I,II,III,aVR,aVL,aVF,V1,V2,V3,V4,V5,V6
-78,-19,58,48,-68,19,-244,-156,0,-146,-68,39
-78,-19,58,48,-68,19,-244,-156,0,-146,-68,39
-78,-19,58,48,-68,19,-244,-156,0,-146,-68,39
-78,-19,58,48,-68,19,-244,-156,0,-146,-68,39
-68,-19,48,43,-58,14,-244,-165,0,-156,-78,39
-68,-19,48,43,-58,14,-244,-165,0,-156,-78,39
-68,-19,48,43,-58,14,-244,-165,0,-156,-78,39
-68,-19,48,43,-58,14,-244,-165,0,-156,-78,39
-68,-29,39,48,-53,4,-244,-156,0,-146,-68,39
-68,-29,39,48,-53,4,-244,-156,0,-146,-68,39
-68,-29,39,48,-53,4,-244,-156,0,-146,-68,39
-68,-29,39,48,-53,4,-244,-156,0,-146,-68,39
-78,-19,58,48,-68,19,-253,-165,0,-136,-68,39
-78,-19,58,48,-68,19,-253,-165,0,-136,-68,39
-78,-19,58,48,-68,19,-253,-165,0,-136,-68,39
-78,-19,58,48,-68,19,-253,-165,0,-136,-68,39
-68,-19,48,43,-58,14,-253,-165,0,-146,-68,39
-68,-19,48,43,-58,14,-253,-165,0,-146,-68,39
-68,-19,48,43,-58,14,-253,-165,0,-146,-68,39
-68,-19,48,43,-58,14,-253,-165,0,-146,-68,39
-68,-29,39,48,-53,4,-253,-165,0,-156,-78,39
-68,-29,39,48,-53,4,-253,-165,0,-156,-78,39
-68,-29,39,48,-53,4,-253,-165,0,-156,-78,39
-68,-29,39,48,-53,4,-253,-165,0,-156,-78,39
-68,-29,39,48,-53,4,-244,-156,0,-156,-68,29
-68,-29,39,48,-53,4,-244,-156,0,-156,-68,29
-68,-29,39,48,-53,4,-244,-156,0,-156,-68,29
-68,-29,39,48,-53,4,-244,-156,0,-156,-68,29
-78,-19,58,48,-68,19,-253,-165,0,-156,-78,29
-78,-19,58,48,-68,19,-253,-165,0,-156,-78,29
-78,-19,58,48,-68,19,-253,-165,0,-156,-78,29
-78,-19,58,48,-68,19,-253,-165,0,-156,-78,29
-78,-29,48,53,-63,9,-253,-165,0,-156,-78,29
-78,-29,48,53,-63,9,-253,-165,0,-156,-78,29
-78,-29,48,53,-63,9,-253,-165,0,-156,-78,29
-78,-29,48,53,-63,9,-253,-165,0,-156,-78,29
-78,-19,58,48,-68,19,-253,-165,-9,-156,-87,29
-78,-19,58,48,-68,19,-253,-165,-9,-156,-87,29
-78,-19,58,48,-68,19,-253,-165,-9,-156,-87,29
-78,-19,58,48,-68,19,-253,-165,-9,-156,-87,29
-68,-29,39,48,-53,4,-253,-165,0,-156,-87,29
-68,-29,39,48,-53,4,-253,-165,0,-156,-87,29
-68,-29,39,48,-53,4,-253,-165,0,-156,-87,29
-68,-29,39,48,-53,4,-253,-165,0,-156,-87,29
-78,-29,48,53,-63,9,-253,-165,0,-156,-78,29
-78,-29,48,53,-63,9,-253,-165,0,-156,-78,29
-78,-29,48,53,-63,9,-253,-165,0,-156,-78,29
-78,-29,48,53,-63,9,-253,-165,0,-156,-78,29
-78,-29,48,53,-63,9,-263,-165,0,-156,-87,19
-78,-29,48,53,-63,9,-263,-165,0,-156,-87,19
-78,-29,48,53,-63,9,-263,-165,0,-156,-87,19
-78,-29,48,53,-63,9,-263,-165,0,-156,-87,19
-68,-29,39,48,-53,4,-263,-165,0,-165,-87,19
-68,-29,39,48,-53,4,-263,-165,0,-165,-87,19
-68,-29,39,48,-53,4,-263,-165,0,-165,-87,19
-68,-29,39,48,-53,4,-263,-165,0,-165,-87,19
-68,-19,48,43,-58,14,-263,-165,0,-165,-87,19
-68,-14,53,41,-61,19,-263,-165,0,-165,-87,19
-63,-9,53,36,-58,21,-263,-161,0,-161,-87,19
-53,-4,48,29,-51,21,-258,-146,4,-161,-82,24
-58,-9,48,34,-53,19,-253,-131,14,-161,-87,24
-53,-4,48,29,-51,21,-239,-126,19,-156,-78,34
-53,4,58,24,-56,31,-234,-126,29,-151,-73,34
-48,9,58,19,-53,34,-234,-122,34,-146,-68,43
-34,29,63,2,-48,46,-234,-117,48,-136,-53,58
-34,34,68,0,-51,51,-224,-112,53,-126,-53,58
-34,34,68,0,-51,51,-224,-112,58,-117,-48,58
-29,34,63,-2,-46,48,-224,-112,58,-107,-48,63
-29,43,73,-7,-51,58,-224,-112,58,-117,-39,63
-34,48,82,-7,-58,65,-224,-107,58,-117,-39,63
-34,53,87,-9,-61,70,-224,-107,63,-117,-39,63
-34,63,97,-14,-65,80,-224,-107,63,-117,-39,63
-34,58,92,-12,-63,75,-229,-117,63,-122,-39,58
-34,63,97,-14,-65,80,-229,-112,68,-117,-43,58
-34,73,107,-19,-70,90,-229,-107,78,-112,-39,68
-29,82,112,-26,-70,97,-229,-107,92,-102,-34,78
-34,87,122,-26,-78,104,-224,-97,92,-87,-19,82
-34,87,122,-26,-78,104,-234,-107,92,-87,-19,82
-24,92,117,-34,-70,104,-263,-117,78,-87,-14,82
-19,92,112,-36,-65,102,-263,-117,78,-87,-14,87
-14,102,117,-43,-65,109,-273,-126,87,-82,-4,97
-9,107,117,-48,-63,112,-278,-126,87,-78,-4,97
-9,102,112,-46,-61,107,-287,-126,87,-78,-4,97
-4,87,92,-41,-48,90,-287,-126,82,-78,-9,92
0,78,78,-39,-39,78,-297,-112,73,-87,-19,82
4,78,73,-41,-34,75,-292,-112,73,-87,-19,82
9,73,63,-41,-26,68,-292,-112,68,-87,-24,82
9,68,58,-39,-24,63,-297,-112,58,-92,-24,78
19,53,34,-36,-7,43,-287,-117,53,-107,-43,73
19,43,24,-31,-2,34,-297,-126,34,-117,-48,68
19,34,14,-26,2,24,-302,-146,14,-131,-58,58
19,24,4,-21,7,14,-307,-161,9,-141,-63,53
4,24,19,-14,-7,21,-317,-161,-4,-146,-58,53
0,19,19,-9,-9,19,-317,-161,-9,-146,-63,48
-14,14,29,0,-21,21,-317,-165,-9,-151,-63,48
-19,9,29,4,-24,19,-312,-165,-9,-156,-68,43
-14,0,14,7,-14,7,-307,-161,0,-156,-73,48
-19,0,19,9,-19,9,-302,-161,-4,-156,-78,43
-34,-9,24,21,-29,7,-302,-161,-4,-161,-82,39
-48,-19,29,34,-39,4,-287,-161,-9,-170,-87,29
-68,-29,39,48,-53,4,-283,-151,-19,-170,-97,14
-78,-34,43,56,-61,4,-283,-156,-19,-175,-97,14
-78,-34,43,56,-61,4,-283,-161,-24,-180,-102,14
-78,-43,34,61,-56,-4,-283,-165,-24,-180,-102,9
-92,-43,48,68,-70,2,-273,-180,-34,-195,-117,4
-92,-53,39,73,-65,-7,-273,-180,-34,-200,-122,0
-92,-58,34,75,-63,-12,-278,-180,-39,-200,-126,-4
-92,-58,34,75,-63,-12,-278,-180,-39,-204,-126,-4
-92,-68,24,80,-58,-21,-283,-180,-39,-219,-131,-14
-92,-73,19,82,-56,-26,-283,-185,-43,-219,-131,-14
-92,-73,19,82,-56,-26,-283,-185,-43,-219,-131,-14
-92,-78,14,85,-53,-31,-283,-185,-43,-219,-131,-19
-92,-87,4,90,-48,-41,-283,-185,-43,-209,-131,-19
-92,-87,4,90,-48,-41,-283,-180,-39,-209,-131,-19
-92,-87,4,90,-48,-41,-283,-180,-39,-209,-131,-19
-97,-87,9,92,-53,-39,-283,-180,-39,-209,-131,-14
-97,-73,24,85,-61,-24,-292,-175,-39,-204,-136,-14
-92,-73,19,82,-56,-26,-292,-175,-34,-204,-136,-14
-92,-73,19,82,-56,-26,-292,-175,-34,-204,-136,-14
-92,-68,24,80,-58,-21,-287,-175,-34,-204,-136,-14
-92,-68,24,80,-58,-21,-287,-175,-34,-214,-136,-14
-92,-68,24,80,-58,-21,-287,-175,-34,-214,-136,-14
-92,-68,24,80,-58,-21,-287,-175,-34,-214,-136,-14
-92,-68,24,80,-58,-21,-287,-175,-34,-214,-136,-14
-82,-68,14,75,-48,-26,-287,-175,-34,-204,-126,-14
-82,-68,14,75,-48,-26,-287,-175,-24,-195,-126,-14
-82,-68,14,75,-48,-26,-283,-170,-19,-204,-126,-9
-87,-68,19,78,-53,-24,-283,-161,-14,-204,-126,-9
-92,-68,24,80,-58,-21,-273,-141,-4,-195,-126,-14
-97,-63,34,80,-65,-14,-263,-112,19,-190,-126,-14
-97,-53,43,75,-70,-4,-239,-78,43,-180,-122,-14
-82,-58,24,70,-53,-17,-219,-39,87,-165,-112,-14
-87,-48,39,68,-63,-4,-204,0,131,-141,-92,-9
-87,-34,53,61,-70,9,-170,58,190,-82,-58,19
-68,-9,58,39,-63,24,-126,151,278,-14,0,58
-53,14,68,19,-61,41,-73,278,405,97,87,117
-19,34,53,-7,-36,43,-24,390,527,219,200,190
39,63,24,-51,7,43,-14,463,605,336,317,292
131,102,-29,-117,80,36,-48,517,653,458,448,405
253,151,-102,-202,178,24,-68,595,722,585,600,541
380,219,-161,-300,270,29,-58,688,814,741,756,678
502,297,-204,-400,353,46,-39,795,907,897,917,829
624,400,-224,-512,424,87,-34,917,1034,1083,1102,980
717,566,-151,-641,434,207,-68,985,1171,1298,1312,1161
790,756,-34,-773,412,361,-161,941,1220,1449,1483,1327
858,922,63,-890,397,492,-287,829,1156,1498,1571,1449
888,985,97,-936,395,541,-444,688,985,1366,1498,1429
834,927,92,-880,370,509,-561,463,727,1054,1239,1278
692,819,126,-756,283,473,-683,112,375,697,922,1063
527,722,195,-624,165,458,-839,-322,-63,336,634,873
390,575,185,-483,102,380,-980,-746,-531,-53,302,639
219,429,209,-324,4,319,-1078,-1161,-971,-468,-63,356
9,341,331,-175,-161,336,-1146,-1507,-1322,-819,-380,107
-112,253,366,-70,-239,309,-1171,-1693,-1512,-1015,-570,-48
-151,122,273,14,-212,197,-1180,-1683,-1556,-1093,-673,-170
-195,-48,146,122,-170,48,-1161,-1625,-1576,-1185,-790,-312
-219,-190,29,204,-124,-80,-1137,-1600,-1610,-1268,-883,-409
-229,-278,-48,253,-90,-163,-1107,-1561,-1605,-1278,-912,-463
-214,-317,-102,265,-56,-209,-1107,-1459,-1532,-1239,-893,-473
-190,-322,-131,256,-29,-226,-1117,-1307,-1395,-1156,-849,-458
-156,-331,-175,244,9,-253,-1083,-1156,-1249,-1068,-785,-434
-151,-336,-185,244,17,-261,-1010,-1054,-1141,-1005,-736,-409
-151,-322,-170,236,9,-246,-936,-966,-1029,-946,-697,-390
-126,-283,-156,204,14,-219,-858,-858,-897,-849,-629,-341
-97,-224,-126,161,14,-175,-771,-722,-722,-741,-536,-283
-78,-170,-92,124,7,-131,-683,-595,-566,-634,-453,-224
-82,-126,-43,104,-19,-85,-610,-492,-444,-551,-395,-180
-82,-102,-19,92,-31,-61,-546,-419,-356,-492,-346,-156
-82,-92,-9,87,-36,-51,-492,-346,-283,-434,-312,-141
-82,-82,0,82,-41,-41,-439,-278,-204,-370,-263,-107
-82,-68,14,75,-48,-26,-395,-234,-151,-317,-224,-82
-82,-58,24,70,-53,-17,-361,-185,-102,-292,-195,-58
-78,-58,19,68,-48,-19,-336,-151,-78,-287,-190,-53
-78,-53,24,65,-51,-14,-317,-136,-48,-273,-180,-39
-82,-58,24,70,-53,-17,-307,-131,-29,-268,-165,-34
-82,-58,24,70,-53,-17,-292,-126,-14,-258,-165,-34
-82,-53,29,68,-56,-12,-302,-126,-24,-248,-156,-34
-87,-53,34,70,-61,-9,-297,-117,-19,-244,-151,-34
-87,-53,34,70,-61,-9,-292,-112,-14,-239,-151,-34
-87,-53,34,70,-61,-9,-287,-107,0,-234,-141,-29
-87,-53,34,70,-61,-9,-283,-92,9,-224,-136,-19
-82,-48,34,65,-58,-7,-283,-87,24,-214,-131,-14
-82,-43,39,63,-61,-2,-283,-82,24,-214,-131,-14
-82,-43,39,63,-61,-2,-283,-82,24,-209,-126,-14
-82,-43,39,63,-61,-2,-278,-87,29,-209,-136,-19
-82,-43,39,63,-61,-2,-273,-87,29,-209,-131,-19
-82,-43,39,63,-61,-2,-273,-82,29,-204,-131,-19
-82,-43,39,63,-61,-2,-273,-78,34,-204,-131,-19
-78,-43,34,61,-56,-4,-273,-68,48,-209,-141,-24
-78,-43,34,61,-56,-4,-268,-68,53,-209,-136,-24
-78,-43,34,61,-56,-4,-263,-63,53,-209,-136,-24
-78,-39,39,58,-58,0,-263,-58,58,-209,-136,-24
-78,-48,29,63,-53,-9,-263,-48,58,-204,-126,-24
-78,-48,29,63,-53,-9,-263,-48,58,-204,-122,-24
-78,-48,29,63,-53,-9,-263,-48,58,-204,-122,-19
-78,-48,29,63,-53,-9,-263,-48,63,-200,-117,-19
-78,-39,39,58,-58,0,-253,-39,63,-200,-126,-19
-78,-43,34,61,-56,-4,-253,-39,68,-200,-126,-19
-78,-43,34,61,-56,-4,-253,-39,73,-195,-126,-19
-73,-39,34,56,-53,-2,-253,-39,73,-195,-122,-19
-73,-39,34,56,-53,-2,-263,-24,73,-190,-122,-14
-73,-39,34,56,-53,-2,-268,-24,73,-190,-117,-14
-73,-34,39,53,-56,2,-268,-24,78,-190,-117,-14
-73,-34,39,53,-56,2,-258,-24,78,-190,-117,-14
-63,-29,34,46,-48,2,-258,-24,82,-180,-112,-4
-63,-29,34,46,-48,2,-258,-24,82,-175,-107,0
-63,-29,34,46,-48,2,-258,-24,82,-175,-97,4
-63,-29,34,46,-48,2,-258,-24,87,-170,-92,9
-63,-29,34,46,-48,2,-258,-19,87,-180,-102,0
-63,-24,39,43,-51,7,-258,-19,92,-180,-102,4
-63,-24,39,43,-51,7,-258,-19,92,-175,-102,4
-58,-24,34,41,-46,4,-253,-14,97,-175,-97,4
-58,-34,24,46,-41,-4,-253,-9,102,-185,-107,0
-58,-29,29,43,-43,0,-258,0,102,-180,-102,0
-58,-29,29,43,-43,0,-258,0,102,-180,-102,0
-53,-24,29,39,-41,2,-253,4,107,-180,-102,4
-53,-24,29,39,-41,2,-253,19,117,-175,-92,4
-48,-19,29,34,-39,4,-253,19,117,-175,-87,9
-48,-19,29,34,-39,4,-253,19,122,-170,-87,9
-48,-19,29,34,-39,4,-248,24,122,-161,-87,9
-53,-14,39,34,-46,12,-253,29,131,-151,-78,14
-53,-14,39,34,-46,12,-253,34,136,-146,-73,14
-48,-14,34,31,-41,9,-253,39,136,-146,-73,14
-48,-4,43,26,-46,19,-258,43,141,-146,-73,14
-39,4,43,17,-41,24,-248,48,146,-146,-63,34
-29,4,34,12,-31,19,-248,53,151,-136,-58,39
-29,9,39,9,-34,24,-248,58,156,-131,-48,39
-29,14,43,7,-36,29,-248,63,161,-126,-43,39
-39,14,53,12,-46,34,-253,73,165,-122,-48,34
-29,24,53,2,-41,39,-253,82,170,-117,-48,34
-29,24,53,2,-41,39,-253,87,180,-112,-43,43
-29,29,58,0,-43,43,-248,97,185,-107,-39,48
-9,29,39,-9,-24,34,-248,102,190,-112,-43,53
-9,29,39,-9,-24,34,-248,117,200,-112,-39,58
-4,29,34,-12,-19,31,-248,126,209,-107,-34,63
0,29,29,-14,-14,29,-244,136,214,-97,-29,68
-4,43,48,-19,-26,46,-244,146,224,-78,-19,73
0,48,48,-24,-24,48,-244,156,234,-73,-9,78
4,53,48,-29,-21,51,-239,165,244,-63,4,82
9,58,48,-34,-19,53,-239,180,253,-53,19,92
14,78,63,-46,-24,70,-248,190,263,-58,19,97
19,82,63,-51,-21,73,-248,200,273,-48,24,102
29,92,63,-61,-17,78,-248,209,283,-43,34,112
34,102,68,-68,-17,85,-244,219,292,-34,39,117
39,97,58,-68,-9,78,-234,248,312,-19,53,131
43,107,63,-75,-9,85,-234,258,322,-9,63,146
58,117,58,-87,0,87,-234,273,331,-4,68,151
68,126,58,-97,4,92,-234,283,346,4,78,161
78,146,68,-112,4,107,-244,283,356,24,97,170
78,156,78,-117,0,117,-244,297,361,34,107,180
92,161,68,-126,12,114,-244,302,370,43,117,190
102,170,68,-136,17,119,-248,312,375,53,126,200
112,170,58,-141,26,114,-248,331,385,53,122,200
112,180,68,-146,21,124,-248,336,395,63,131,214
117,185,68,-151,24,126,-248,346,400,73,141,224
126,195,68,-161,29,131,-248,356,405,78,151,224
122,204,82,-163,19,143,-248,356,409,92,165,248
136,214,78,-175,29,146,-253,361,409,97,180,253
146,219,73,-183,36,146,-258,361,414,97,185,263
146,229,82,-187,31,156,-263,366,414,107,195,268
161,239,78,-200,41,158,-273,356,409,102,195,273
170,244,73,-207,48,158,-273,361,414,107,200,273
170,244,73,-207,48,158,-273,361,414,112,200,278
180,248,68,-214,56,158,-283,361,414,112,204,283
190,253,63,-222,63,158,-287,361,424,117,219,287
195,263,68,-229,63,165,-287,361,424,117,219,292
195,263,68,-229,63,165,-292,361,419,117,224,292
200,268,68,-234,65,168,-297,356,414,112,224,297
195,268,73,-231,61,170,-297,366,414,122,224,297
195,268,73,-231,61,170,-302,361,414,122,224,297
195,268,73,-231,61,170,-307,346,409,122,224,297
195,268,73,-231,61,170,-312,346,405,117,224,302
195,268,73,-231,61,170,-302,331,390,117,219,292
195,268,73,-231,61,170,-307,322,385,112,219,292
195,268,73,-231,61,170,-307,307,375,112,214,287
195,268,73,-231,61,170,-312,302,361,107,214,287
190,263,73,-226,58,168,-322,292,366,97,214,287
190,263,73,-226,58,168,-326,292,356,87,204,283
185,263,78,-224,53,170,-326,283,346,82,204,278
185,258,73,-222,56,165,-326,278,336,73,195,273
175,244,68,-209,53,156,-317,273,331,73,185,263
165,244,78,-204,43,161,-317,258,322,63,180,258
165,239,73,-202,46,156,-322,248,317,53,170,248
156,229,73,-192,41,151,-322,239,307,43,165,244
151,219,68,-185,41,143,-322,229,297,34,141,229
136,214,78,-175,29,146,-317,209,287,19,136,219
131,200,68,-165,31,134,-317,195,273,0,126,209
117,190,73,-153,21,131,-317,185,268,-9,117,200
107,180,73,-143,17,126,-317,170,248,-19,97,195
97,170,73,-134,12,122,-317,156,234,-29,87,180
87,165,78,-126,4,122,-317,141,229,-34,78,175
82,156,73,-119,4,114,-317,131,219,-43,68,161
73,146,73,-109,0,109,-317,122,209,-43,68,156
63,136,73,-100,-4,104,-317,112,195,-53,58,141
58,126,68,-92,-4,97,-317,102,190,-63,53,136
48,117,68,-82,-9,92,-312,82,180,-68,43,126
39,107,68,-73,-14,87,-302,87,180,-92,29,117
29,97,68,-63,-19,82,-302,78,170,-97,19,107
24,87,63,-56,-19,75,-297,63,161,-107,9,97
14,78,63,-46,-24,70,-297,58,151,-117,0,92
4,68,63,-36,-29,65,-297,68,146,-126,-14,73
-4,58,63,-26,-34,61,-297,58,136,-131,-19,63
-9,48,58,-19,-34,53,-297,48,131,-136,-34,53
-9,43,53,-17,-31,48,-297,39,126,-146,-39,48
-19,34,53,-7,-36,43,-292,39,117,-146,-34,48
-29,24,53,2,-41,39,-292,29,117,-156,-39,43
-29,24,53,2,-41,39,-292,29,112,-161,-43,43
-34,19,53,7,-43,36,-292,24,112,-161,-48,39
-34,4,39,14,-36,21,-292,19,97,-180,-63,24
-39,0,39,19,-39,19,-292,14,87,-180,-68,19
-48,0,48,24,-48,24,-292,9,82,-185,-68,14
-48,-4,43,26,-46,19,-297,4,78,-190,-73,14
-48,-9,39,29,-43,14,-287,4,73,-185,-63,19
-53,-9,43,31,-48,17,-287,0,73,-185,-68,19
-58,-14,43,36,-51,14,-287,-4,68,-190,-73,14
-63,-19,43,41,-53,12,-287,-4,63,-195,-78,9
-63,-29,34,46,-48,2,-297,-9,58,-204,-87,-4
-63,-29,34,46,-48,2,-297,-14,58,-209,-87,-4
-63,-29,34,46,-48,2,-292,-14,53,-209,-92,-4
-63,-34,29,48,-46,-2,-292,-14,53,-214,-97,-9
-58,-29,29,43,-43,0,-283,-14,53,-214,-97,-19
-58,-29,29,43,-43,0,-283,-14,48,-214,-97,-19
-58,-29,29,43,-43,0,-283,-19,48,-214,-102,-19
-58,-29,29,43,-43,0,-283,-19,48,-219,-102,-19
-68,-34,34,51,-51,0,-268,-9,39,-219,-102,-24
-68,-39,29,53,-48,-4,-268,-9,39,-219,-102,-24
-73,-39,34,56,-53,-2,-268,-9,39,-224,-102,-24
-73,-34,39,53,-56,2,-268,-9,39,-224,-102,-24
-78,-34,43,56,-61,4,-268,-9,34,-224,-107,-29
-78,-34,43,56,-61,4,-268,-9,34,-224,-107,-29
-78,-34,43,56,-61,4,-268,-9,34,-229,-107,-29
-78,-34,43,56,-61,4,-268,-9,39,-229,-107,-29
-82,-29,53,56,-68,12,-258,-9,29,-229,-102,-29
-82,-29,53,56,-68,12,-258,-14,29,-229,-102,-29
-82,-24,58,53,-70,17,-258,-14,29,-229,-102,-29
-82,-24,58,53,-70,17,-258,-9,29,-229,-102,-29
-82,-29,53,56,-68,12,-248,0,29,-229,-107,-29
-82,-34,48,58,-65,7,-244,0,29,-229,-107,-29
-87,-39,48,63,-68,4,-234,4,29,-229,-107,-24
-87,-48,39,68,-63,-4,-229,9,29,-229,-107,-24
-87,-48,39,68,-63,-4,-219,19,34,-224,-97,-24
-87,-43,43,65,-65,0,-219,19,34,-224,-97,-24
-87,-43,43,65,-65,0,-214,19,34,-224,-97,-24
-87,-39,48,63,-68,4,-214,19,34,-224,-92,-24
-78,-29,48,53,-63,9,-204,29,34,-224,-92,-24
-73,-29,43,51,-58,7,-204,34,39,-224,-92,-24
-73,-29,43,51,-58,7,-200,34,39,-224,-92,-19
-73,-29,43,51,-58,7,-200,34,43,-219,-92,-19
-82,-29,53,56,-68,12,-200,29,39,-209,-82,-9
-82,-29,53,56,-68,12,-200,34,39,-204,-82,-9
-82,-24,58,53,-70,17,-200,34,43,-200,-82,-9
-82,-24,58,53,-70,17,-200,34,43,-200,-82,-9
-73,-14,58,43,-65,21,-195,43,34,-200,-82,-9
-73,-14,58,43,-65,21,-190,43,34,-200,-82,-4
-73,-14,58,43,-65,21,-185,48,39,-195,-78,-4
-73,-14,58,43,-65,21,-180,48,39,-195,-68,-4
-68,-14,53,41,-61,19,-175,58,53,-195,-78,-4
-68,-9,58,39,-63,24,-170,63,58,-195,-78,-4
-68,-9,58,39,-63,24,-165,63,58,-195,-78,-4
-68,-9,58,39,-63,24,-161,58,58,-190,-78,0
-78,-9,68,43,-73,29,-156,58,58,-185,-73,0
-78,-14,63,46,-70,24,-151,58,58,-185,-73,4
-78,-14,63,46,-70,24,-146,58,58,-185,-73,4
-78,-14,63,46,-70,24,-141,58,58,-185,-68,4
-68,-14,53,41,-61,19,-126,68,63,-180,-58,9
-68,-14,53,41,-61,19,-126,73,68,-180,-58,9
-68,-14,53,41,-61,19,-122,73,73,-180,-53,9
-63,-14,48,39,-56,17,-117,73,78,-180,-53,9
-63,-4,58,34,-61,26,-107,73,73,-190,-63,4
-63,-4,58,34,-61,26,-107,73,68,-190,-58,9
-63,-4,58,34,-61,26,-107,73,63,-190,-58,9
-63,-4,58,34,-61,26,-107,73,58,-185,-58,9
-63,-4,58,34,-61,26,-102,82,68,-180,-58,19
-58,0,58,29,-58,29,-97,82,68,-175,-53,19
-58,0,58,29,-58,29,-92,78,68,-170,-53,19
-58,0,58,29,-58,29,-87,78,68,-165,-53,19
-58,0,58,29,-58,29,-82,78,58,-175,-58,19
-58,0,58,29,-58,29,-78,78,53,-175,-58,19
-58,0,58,29,-58,29,-73,78,53,-175,-58,19
-58,0,58,29,-58,29,-73,78,53,-175,-58,19
-58,-9,48,34,-53,19,-63,73,53,-165,-48,19
-53,-9,43,31,-48,17,-63,73,48,-170,-48,19
-53,-14,39,34,-46,12,-63,68,43,-170,-48,14
-53,-14,39,34,-46,12,-63,68,39,-170,-48,14
-53,-14,39,34,-46,12,-48,68,39,-170,-48,24
-53,-14,39,34,-46,12,-43,73,39,-170,-53,24
-53,-14,39,34,-46,12,-39,78,39,-170,-53,24
-53,-14,39,34,-46,12,-39,78,39,-170,-53,24
-53,-14,39,34,-46,12,-34,78,34,-170,-53,14
-53,-14,39,34,-46,12,-29,78,34,-175,-53,14
-53,-14,39,34,-46,12,-19,73,34,-175,-53,14
-53,-14,39,34,-46,12,-14,73,29,-175,-53,14
-53,-14,39,34,-46,12,-4,78,19,-165,-63,24
-53,-14,39,34,-46,12,0,78,9,-175,-68,19
-58,-19,39,39,-48,9,0,73,9,-175,-68,19
-58,-19,39,39,-48,9,4,73,9,-175,-68,19
-48,-29,19,39,-34,-4,4,73,-9,-185,-68,9
-48,-29,19,39,-34,-4,0,68,-9,-185,-73,9
-48,-29,19,39,-34,-4,0,68,-9,-190,-73,9
-48,-29,19,39,-34,-4,0,68,-9,-190,-73,9
-58,-29,29,43,-43,0,4,78,-14,-180,-73,9
-58,-34,24,46,-41,-4,9,68,-14,-180,-73,4
-58,-39,19,48,-39,-9,14,63,-14,-180,-78,4
-58,-39,19,48,-39,-9,19,63,-14,-185,-78,0
-68,-34,34,51,-51,0,19,68,-19,-195,-87,-4
-68,-34,34,51,-51,0,19,68,-24,-200,-92,-4
-68,-39,29,53,-48,-4,19,63,-34,-200,-92,-4
-68,-39,29,53,-48,-4,19,63,-39,-200,-92,-9
-68,-39,29,53,-48,-4,29,73,-39,-195,-102,-9
-68,-43,24,56,-46,-9,29,73,-39,-195,-107,-9
-68,-43,24,56,-46,-9,29,73,-43,-195,-107,-9
-68,-48,19,58,-43,-14,24,68,-43,-195,-107,-9
-68,-39,29,53,-48,-4,29,78,-43,-195,-92,-9
-68,-39,29,53,-48,-4,34,78,-48,-195,-92,-9
-68,-39,29,53,-48,-4,39,78,-48,-195,-97,-9
-68,-39,29,53,-48,-4,43,78,-48,-190,-97,-9
-68,-34,34,51,-51,0,53,78,-48,-190,-97,-9
-68,-34,34,51,-51,0,58,78,-48,-190,-97,-9
-68,-39,29,53,-48,-4,58,73,-48,-190,-97,-14
-68,-39,29,53,-48,-4,58,73,-48,-200,-102,-14
-68,-48,19,58,-43,-14,53,73,-63,-190,-102,-19
-68,-48,19,58,-43,-14,53,73,-63,-190,-102,-24
-68,-48,19,58,-43,-14,53,73,-63,-185,-102,-29
-78,-48,29,63,-53,-9,53,73,-63,-185,-97,-29
-68,-58,9,63,-39,-24,63,73,-63,-195,-107,-29
-58,-58,0,58,-29,-29,63,73,-63,-195,-107,-29
-58,-58,0,58,-29,-29,58,73,-68,-195,-107,-29
-63,-58,4,61,-34,-26,58,68,-68,-195,-107,-34
-73,-48,24,61,-48,-12,73,78,-68,-195,-97,-34
-73,-48,24,61,-48,-12,73,78,-68,-195,-102,-34
-73,-48,24,61,-48,-12,73,78,-68,-195,-102,-34
-73,-53,19,63,-46,-17,73,78,-68,-195,-107,-34
-73,-58,14,65,-43,-21,78,78,-78,-195,-117,-43
-73,-58,14,65,-43,-21,78,78,-78,-200,-117,-43
-73,-58,14,65,-43,-21,78,78,-78,-200,-117,-43
-73,-58,14,65,-43,-21,78,78,-78,-204,-117,-43
-73,-68,4,70,-39,-31,92,92,-78,-195,-117,-34
-73,-68,4,70,-39,-31,92,92,-78,-195,-117,-34
-78,-63,14,70,-46,-24,92,87,-78,-190,-117,-29
-78,-63,14,70,-46,-24,92,87,-78,-190,-117,-29
-63,-53,9,58,-36,-21,102,87,-78,-190,-112,-29
-63,-53,9,58,-36,-21,102,87,-82,-190,-112,-29
-68,-53,14,61,-41,-19,102,87,-82,-190,-112,-29
-68,-58,9,63,-39,-24,102,87,-82,-190,-117,-34
-68,-68,0,68,-34,-34,112,97,-82,-190,-107,-24
-68,-63,4,65,-36,-29,107,97,-82,-185,-107,-24
-68,-63,4,65,-36,-29,107,97,-82,-180,-107,-29
-68,-63,4,65,-36,-29,107,97,-82,-175,-112,-29
-68,-63,4,65,-36,-29,112,97,-92,-185,-122,-19
-68,-63,4,65,-36,-29,112,97,-87,-185,-122,-19
-68,-68,0,68,-34,-34,112,97,-87,-185,-117,-19
-68,-68,0,68,-34,-34,112,97,-87,-185,-117,-19
-68,-63,4,65,-36,-29,122,97,-87,-185,-117,-29
-68,-63,4,65,-36,-29,122,92,-92,-185,-117,-29
-63,-63,0,63,-31,-31,122,92,-92,-185,-117,-29
-63,-63,0,63,-31,-31,122,92,-92,-185,-117,-34
-73,-63,9,68,-41,-26,126,102,-92,-175,-117,-34
-73,-63,9,68,-41,-26,131,102,-92,-175,-117,-34
-73,-63,9,68,-41,-26,136,102,-92,-175,-117,-29
-73,-63,9,68,-41,-26,141,102,-87,-175,-117,-29
-78,-63,14,70,-46,-24,151,102,-87,-175,-117,-29
-78,-68,9,73,-43,-29,151,102,-87,-175,-122,-29
-78,-68,9,73,-43,-29,151,102,-87,-175,-122,-29
-78,-68,9,73,-43,-29,151,102,-87,-175,-122,-29
-68,-68,0,68,-34,-34,151,112,-87,-175,-112,-19
-68,-68,0,68,-34,-34,151,112,-87,-175,-112,-19
-68,-68,0,68,-34,-34,151,112,-87,-175,-117,-24
-68,-68,0,68,-34,-34,151,112,-87,-175,-117,-24
-68,-68,0,68,-34,-34,161,112,-87,-170,-117,-14
-68,-68,0,68,-34,-34,161,112,-87,-165,-112,-14
-68,-68,0,68,-34,-34,161,112,-87,-161,-112,-14
-68,-68,0,68,-34,-34,161,112,-87,-156,-112,-9
-78,-68,9,73,-43,-29,170,112,-87,-156,-112,-19
-68,-68,0,68,-34,-34,175,117,-87,-165,-117,-19
-78,-68,9,73,-43,-29,185,117,-87,-156,-117,-9
-78,-68,9,73,-43,-29,185,117,-87,-156,-117,-9
-78,-68,9,73,-43,-29,185,117,-87,-156,-117,-9
-78,-68,9,73,-43,-29,185,117,-87,-156,-117,-9
-78,-63,14,70,-46,-24,195,117,-78,-156,-117,-9
-73,-58,14,65,-43,-21,195,122,-78,-151,-117,-9
-63,-53,9,58,-36,-21,200,136,-73,-151,-112,-4
-58,-48,9,53,-34,-19,204,141,-63,-141,-107,-4
-53,-43,9,48,-31,-17,219,156,-48,-126,-97,14
-53,-34,19,43,-36,-7,224,156,-39,-122,-92,14
-48,-29,19,39,-34,-4,224,161,-34,-117,-87,24
-43,-19,24,31,-34,2,224,165,-29,-112,-82,29
-34,-4,29,19,-31,12,234,170,-24,-107,-82,29
-34,-4,29,19,-31,12,234,170,-19,-102,-78,29
-29,-4,24,17,-26,9,234,170,-19,-97,-78,34
-29,0,29,14,-29,14,234,170,-19,-97,-78,34
-34,0,34,17,-34,17,244,175,-29,-97,-78,34
-34,0,34,17,-34,17,244,175,-24,-97,-78,34
-34,4,39,14,-36,21,244,175,-24,-97,-78,34
-34,4,39,14,-36,21,239,175,-14,-92,-73,39
-34,4,39,14,-36,21,244,180,-9,-87,-82,39
-34,19,53,7,-43,36,248,185,0,-82,-73,48
-29,34,63,-2,-46,48,253,185,14,-73,-63,58
-24,39,63,-7,-43,51,253,185,14,-68,-58,63
-24,48,73,-12,-48,61,244,175,14,-58,-58,53
-14,53,68,-19,-41,61,214,165,0,-58,-53,53
-9,53,63,-21,-36,58,214,165,0,-58,-53,58
-4,58,63,-26,-34,61,214,165,0,-58,-53,58
0,68,68,-34,-34,68,200,156,0,-48,-53,68
0,58,58,-29,-29,58,190,156,0,-53,-53,68
4,39,34,-21,-14,36,190,156,-4,-58,-58,63
9,29,19,-19,-4,24,190,161,-4,-58,-58,63
4,19,14,-12,-4,17,200,170,4,-58,-58,73
9,14,4,-12,2,9,204,170,0,-58,-63,73
9,9,0,-9,4,4,204,170,-9,-63,-63,68
9,-4,-14,-2,12,-9,209,165,-24,-68,-73,63
9,-24,-34,7,21,-29,200,165,-43,-78,-78,58
9,-34,-43,12,26,-39,195,146,-63,-92,-87,48
9,-43,-53,17,31,-48,190,131,-68,-102,-92,43
4,-43,-48,19,26,-46,190,131,-73,-107,-97,43
9,-39,-48,14,29,-43,190,131,-78,-97,-102,39
-4,-43,-39,24,17,-41,190,126,-78,-102,-102,39
-9,-48,-39,29,14,-43,195,126,-78,-107,-107,34
-14,-48,-34,31,9,-41,200,131,-78,-107,-112,29
-29,-58,-29,43,0,-43,214,131,-82,-107,-117,34
-43,-68,-24,56,-9,-46,214,131,-82,-112,-122,29
-58,-78,-19,68,-19,-48,229,131,-87,-122,-126,19
-78,-87,-9,82,-34,-48,234,131,-87,-122,-136,14
-78,-102,-24,90,-26,-63,234,126,-87,-136,-146,9
-78,-102,-24,90,-26,-63,234,122,-92,-141,-151,4
-78,-112,-34,95,-21,-73,234,117,-92,-141,-151,-4
-82,-112,-29,97,-26,-70,234,112,-102,-146,-156,-14
-82,-122,-39,102,-21,-80,234,102,-112,-141,-151,-9
-82,-126,-43,104,-19,-85,229,102,-117,-141,-156,-14
-82,-126,-43,104,-19,-85,229,102,-117,-146,-156,-14
-82,-126,-43,104,-19,-85,224,102,-117,-151,-161,-14
-82,-122,-39,102,-21,-80,224,107,-112,-151,-161,-14
-82,-122,-39,102,-21,-80,224,107,-112,-151,-161,-14
-82,-126,-43,104,-19,-85,224,107,-112,-151,-161,-19
-82,-126,-43,104,-19,-85,224,107,-112,-151,-161,-19
-82,-126,-43,104,-19,-85,234,102,-117,-151,-170,-29
-82,-126,-43,104,-19,-85,234,102,-117,-151,-170,-29
-87,-126,-39,107,-24,-82,234,102,-117,-151,-170,-24
-87,-122,-34,104,-26,-78,234,107,-117,-146,-165,-24
-82,-122,-39,102,-21,-80,234,107,-102,-136,-156,-14
-82,-122,-39,102,-21,-80,234,107,-102,-136,-156,-14
-82,-117,-34,100,-24,-75,239,107,-102,-136,-156,-14
-82,-117,-34,100,-24,-75,239,107,-102,-136,-156,-14
-82,-117,-34,100,-24,-75,239,107,-92,-126,-146,-4
-82,-117,-34,100,-24,-75,239,107,-92,-126,-146,-4
-82,-117,-34,100,-24,-75,239,107,-92,-126,-146,-4
-82,-117,-34,100,-24,-75,239,107,-92,-126,-146,-4
-82,-117,-34,100,-24,-75,239,117,-92,-126,-156,-14
-92,-117,-24,104,-34,-70,244,122,-87,-126,-156,-19
-97,-117,-19,107,-39,-68,253,131,-82,-117,-156,-19
-102,-117,-14,109,-43,-65,273,151,-53,-107,-146,-14
-97,-102,-4,100,-46,-53,292,180,-19,-92,-136,-14
-97,-102,-4,100,-46,-53,317,224,24,-63,-122,-4
-92,-97,-4,95,-43,-51,336,263,68,-29,-102,4
-97,-87,9,92,-53,-39,351,312,122,14,-82,29
-78,-53,24,65,-51,-14,395,400,209,73,-29,58
-58,-39,19,48,-39,-9,458,522,326,161,48,97
-24,-24,0,24,-12,-12,512,649,444,263,136,165
29,-4,-34,-12,31,-19,531,732,527,375,248,258
117,34,-82,-75,100,-24,512,785,585,512,395,380
229,92,-136,-161,183,-21,488,858,673,673,546,512
361,151,-209,-256,285,-29,507,985,771,819,717,658
488,219,-268,-353,378,-24,546,1117,893,976,873,785
619,317,-302,-468,461,7,556,1254,1024,1151,1034,927
722,478,-244,-600,483,117,531,1327,1151,1337,1220,1098
795,653,-141,-724,468,256,439,1307,1210,1493,1390,1259
858,814,-43,-836,451,385,317,1205,1151,1546,1483,1385
897,893,-4,-895,451,444,180,1073,1010,1429,1424,1381
858,839,-19,-849,439,409,43,854,761,1151,1185,1234
736,741,4,-739,366,373,-92,512,395,810,888,1034
585,644,58,-614,263,351,-273,63,-53,463,619,849
448,507,58,-478,195,283,-448,-400,-531,82,302,629
283,380,97,-331,92,239,-580,-834,-990,-336,-48,366
82,302,219,-192,-68,261,-658,-1220,-1351,-683,-356,141
-48,244,292,-97,-170,268,-707,-1439,-1566,-868,-536,0
-82,126,209,-21,-146,168,-712,-1439,-1620,-946,-639,-117
-131,-43,87,87,-109,21,-702,-1390,-1644,-1034,-751,-239
-175,-195,-19,185,-78,-107,-663,-1371,-1683,-1107,-839,-351
-180,-307,-126,244,-26,-217,-649,-1337,-1688,-1141,-893,-409
-151,-356,-204,253,26,-280,-649,-1239,-1625,-1112,-893,-434
-126,-366,-239,246,56,-302,-649,-1098,-1493,-1044,-854,-444
-102,-361,-258,231,78,-309,-600,-946,-1356,-971,-800,-419
-107,-361,-253,234,73,-307,-527,-824,-1239,-902,-746,-395
-122,-356,-234,239,56,-295,-424,-712,-1102,-819,-688,-361
-122,-322,-200,222,39,-261,-331,-595,-951,-722,-619,-312
-78,-273,-195,175,58,-234,-234,-458,-780,-614,-531,-253
-48,-204,-156,126,53,-180,-146,-331,-624,-497,-448,-195
-48,-161,-112,104,31,-136,-78,-244,-507,-400,-385,-146
-63,-136,-73,100,4,-104,-24,-190,-424,-356,-336,-122
-73,-122,-48,97,-12,-85,29,-126,-366,-307,-317,-117
-63,-122,-58,92,-2,-90,82,-53,-292,-258,-292,-102
-73,-112,-39,92,-17,-75,136,4,-224,-214,-253,-78
-73,-107,-34,90,-19,-70,170,58,-180,-180,-224,-63
-63,-117,-53,90,-4,-85,204,87,-131,-156,-204,-48
-58,-117,-58,87,0,-87,219,102,-107,-131,-190,-34
-58,-102,-43,80,-7,-73,229,107,-87,-117,-180,-29
-63,-97,-34,80,-14,-65,219,102,-87,-122,-175,-34
-63,-97,-34,80,-14,-65,224,107,-92,-122,-185,-34
-73,-92,-19,82,-26,-56,234,107,-82,-122,-175,-24
-78,-92,-14,85,-31,-53,239,117,-78,-117,-170,-24
-78,-92,-14,85,-31,-53,244,122,-73,-112,-170,-24
-78,-92,-14,85,-31,-53,248,126,-58,-107,-161,-19
-68,-102,-34,85,-17,-68,253,131,-58,-87,-156,-19
-63,-97,-34,80,-14,-65,253,136,-43,-78,-151,-14
-63,-92,-29,78,-17,-61,253,141,-43,-78,-151,-14
-63,-92,-29,78,-17,-61,253,141,-43,-73,-146,-14
-73,-92,-19,82,-26,-56,248,146,-39,-73,-146,-9
-73,-92,-19,82,-26,-56,253,146,-39,-73,-141,-9
-73,-92,-19,82,-26,-56,253,151,-39,-68,-141,-9
-73,-92,-19,82,-26,-56,253,156,-34,-68,-141,-9
-68,-92,-24,80,-21,-58,253,156,-39,-63,-131,-4
-68,-92,-24,80,-21,-58,258,156,-34,-63,-126,-4
-68,-92,-24,80,-21,-58,263,161,-34,-63,-126,-4
-68,-87,-19,78,-24,-53,263,165,-29,-63,-126,-4
-58,-87,-29,73,-14,-58,273,156,-19,-48,-126,-4
-58,-87,-29,73,-14,-58,273,156,-19,-48,-122,-4
-58,-87,-29,73,-14,-58,273,156,-19,-48,-122,0
-58,-87,-29,73,-14,-58,273,156,-14,-43,-117,0
-58,-87,-29,73,-14,-58,273,165,-14,-53,-117,0
-58,-92,-34,75,-12,-63,273,165,-9,-53,-117,0
-58,-92,-34,75,-12,-63,273,165,-4,-48,-117,0
-53,-87,-34,70,-9,-61,273,165,-4,-48,-112,0
-53,-87,-34,70,-9,-61,273,170,-4,-43,-112,4
-53,-87,-34,70,-9,-61,268,170,-4,-43,-107,4
-53,-82,-29,68,-12,-56,268,170,0,-43,-107,4
-53,-82,-29,68,-12,-56,278,170,0,-43,-107,4
-53,-78,-24,65,-14,-51,278,180,4,-34,-107,9
-53,-78,-24,65,-14,-51,278,180,4,-29,-107,9
-53,-78,-24,65,-14,-51,278,180,4,-29,-102,9
-53,-78,-24,65,-14,-51,278,180,9,-24,-102,9
-53,-78,-24,65,-14,-51,268,175,9,-24,-92,9
-53,-73,-19,63,-17,-46,268,175,14,-24,-92,14
-53,-73,-19,63,-17,-46,268,175,14,-19,-92,14
-48,-73,-24,61,-12,-48,273,180,19,-19,-87,14
-48,-73,-24,61,-12,-48,283,185,24,-9,-78,19
-48,-68,-19,58,-14,-43,278,195,24,-4,-73,19
-48,-68,-19,58,-14,-43,278,195,24,-4,-73,19
-43,-63,-19,53,-12,-41,283,200,29,-4,-73,24
-43,-63,-19,53,-12,-41,273,204,29,0,-73,24
-39,-58,-19,48,-9,-39,273,204,29,0,-68,29
-39,-58,-19,48,-9,-39,273,204,34,4,-68,29
-39,-58,-19,48,-9,-39,278,209,34,14,-68,29
-34,-53,-19,43,-7,-36,283,204,43,14,-58,34
-34,-53,-19,43,-7,-36,283,209,48,19,-53,34
-29,-53,-24,41,-2,-39,283,214,48,19,-53,34
-29,-43,-14,36,-7,-29,278,219,53,19,-53,34
-29,-43,-14,36,-7,-29,278,234,48,19,-53,43
-19,-43,-24,31,2,-34,278,239,53,29,-48,48
-19,-39,-19,29,0,-29,278,244,58,34,-39,48
-19,-34,-14,26,-2,-24,278,248,63,39,-34,48
-19,-43,-24,31,2,-34,283,248,78,43,-19,53
-9,-34,-24,21,7,-29,283,258,82,48,-19,53
-9,-34,-24,21,7,-29,283,263,92,53,-14,63
-9,-29,-19,19,4,-24,287,273,97,58,-9,68
0,-19,-19,9,9,-19,287,278,112,73,4,73
0,-9,-9,4,4,-9,287,292,122,73,9,78
4,0,-4,-2,4,-2,287,302,131,78,14,82
9,9,0,-9,4,4,292,312,136,87,19,87
14,4,-9,-9,12,-2,292,312,136,87,14,92
19,9,-9,-14,14,0,292,322,146,92,19,97
24,14,-9,-19,17,2,297,331,156,102,29,102
29,19,-9,-24,19,4,297,346,165,112,39,112
43,29,-14,-36,29,7,297,366,175,122,48,126
48,34,-14,-41,31,9,297,375,185,136,53,131
58,43,-14,-51,36,14,297,385,195,146,63,141
63,53,-9,-58,36,21,302,395,204,161,68,146
68,58,-9,-63,39,24,312,405,214,165,82,141
73,68,-4,-70,39,31,312,414,224,175,92,156
87,78,-9,-82,48,34,312,429,234,180,97,161
97,87,-9,-92,53,39,312,439,248,190,107,170
97,97,0,-97,48,48,312,448,258,209,126,190
97,107,9,-102,43,58,312,463,263,219,136,200
112,112,0,-112,56,56,312,468,273,229,146,209
122,122,0,-122,61,61,307,478,278,239,156,219
141,141,0,-141,70,70,297,478,278,248,170,219
141,151,9,-146,65,80,297,483,287,258,180,234
146,156,9,-151,68,82,297,492,292,268,190,244
156,165,9,-161,73,87,297,502,297,273,200,244
161,170,9,-165,75,90,307,512,312,278,200,258
175,175,0,-175,87,87,302,517,312,283,209,263
185,175,-9,-180,97,82,297,517,317,283,209,273
185,180,-4,-183,95,87,292,522,317,292,214,278
190,190,0,-190,95,95,283,522,312,297,224,283
200,195,-4,-197,102,95,283,527,317,302,229,283
200,195,-4,-197,102,95,283,527,317,307,229,287
209,200,-9,-204,109,95,273,527,317,307,234,292
200,195,-4,-197,102,95,278,517,317,312,248,297
204,204,0,-204,102,102,278,517,317,312,248,302
204,204,0,-204,102,102,273,517,312,312,253,302
209,209,0,-209,104,104,268,512,307,307,253,307
214,219,4,-217,104,112,268,502,297,307,253,307
214,219,4,-217,104,112,263,497,297,307,253,307
214,219,4,-217,104,112,258,483,292,307,253,307
214,219,4,-217,104,112,253,483,287,302,253,312
214,209,-4,-212,109,102,253,478,283,302,248,302
214,209,-4,-212,109,102,248,468,278,297,248,302
214,209,-4,-212,109,102,248,453,268,297,244,297
214,209,-4,-212,109,102,244,448,253,292,244,297
200,195,-4,-197,102,95,244,434,248,283,234,287
200,195,-4,-197,102,95,239,429,239,273,224,283
195,195,0,-195,97,97,239,414,229,268,224,278
195,190,-4,-192,100,92,239,405,219,258,214,273
185,175,-9,-180,97,82,239,390,214,258,204,263
175,175,0,-175,87,87,239,375,204,248,200,258
175,170,-4,-173,90,82,234,366,200,239,190,248
165,161,-4,-163,85,78,234,356,190,229,185,244
161,141,-19,-151,90,61,234,346,180,214,161,229
146,136,-9,-141,78,63,239,326,170,204,156,219
141,122,-19,-131,80,51,239,312,156,190,146,209
126,112,-14,-119,70,48,239,302,151,185,136,200
107,102,-4,-104,56,48,239,287,141,185,136,195
97,92,-4,-95,51,43,239,273,126,175,126,180
87,87,0,-87,43,43,239,258,122,170,117,175
82,78,-4,-80,43,36,239,248,112,161,107,161
82,68,-14,-75,48,26,239,239,102,151,87,156
73,58,-14,-65,43,21,239,229,87,141,78,141
68,48,-19,-58,43,14,239,219,82,131,73,136
58,39,-19,-48,39,9,244,200,73,126,63,126
39,29,-9,-34,24,9,234,195,63,112,58,117
29,19,-9,-24,19,4,234,185,53,107,48,107
24,9,-14,-17,19,-2,239,170,43,97,39,97
14,0,-14,-7,14,-7,239,165,34,87,29,92
14,0,-14,-7,14,-7,239,165,39,87,24,82
4,-9,-14,2,9,-12,239,156,29,82,19,73
0,-19,-19,9,9,-19,239,146,24,78,4,63
0,-24,-24,12,12,-24,239,136,19,68,0,58
-19,-34,-14,26,-2,-24,248,136,0,68,4,58
-29,-43,-14,36,-7,-29,253,126,0,58,0,53
-29,-43,-14,36,-7,-29,258,126,-4,53,-4,53
-34,-48,-14,41,-9,-31,263,122,-4,53,-9,48
-24,-53,-29,39,2,-41,253,117,0,43,-14,43
-29,-58,-29,43,0,-43,253,112,-9,43,-19,39
-39,-58,-19,48,-9,-39,253,107,-14,39,-19,34
-39,-63,-24,51,-7,-43,248,102,-19,34,-24,34
-39,-58,-19,48,-9,-39,248,102,-24,39,-14,29
-43,-58,-14,51,-14,-36,248,97,-24,39,-19,29
-48,-63,-14,56,-17,-39,248,92,-29,34,-24,24
-53,-68,-14,61,-19,-41,248,92,-34,29,-29,19
-43,-78,-34,61,-4,-56,248,87,-39,29,-39,14
-43,-78,-34,61,-4,-56,248,82,-39,24,-39,14
-43,-78,-34,61,-4,-56,253,82,-43,24,-43,14
-43,-82,-39,63,-2,-61,253,82,-43,19,-48,9
-48,-87,-39,68,-4,-63,253,82,-43,19,-48,9
-48,-87,-39,68,-4,-63,253,82,-48,19,-48,9
-48,-87,-39,68,-4,-63,253,78,-48,19,-53,9
-48,-87,-39,68,-4,-63,253,78,-48,14,-53,9
-58,-92,-34,75,-12,-63,258,78,-48,14,-53,-4
-58,-97,-39,78,-9,-68,258,78,-48,14,-53,-4
-63,-97,-34,80,-14,-65,258,78,-48,9,-53,-4
-63,-92,-29,78,-17,-61,258,78,-48,9,-53,-4
-68,-92,-24,80,-21,-58,258,68,-53,9,-58,0
-68,-92,-24,80,-21,-58,258,68,-53,9,-58,0
-68,-92,-24,80,-21,-58,258,68,-53,4,-58,0
-68,-92,-24,80,-21,-58,258,68,-48,4,-58,0
-63,-97,-34,80,-14,-65,268,78,-48,14,-53,0
-63,-97,-34,80,-14,-65,268,73,-48,14,-53,0
-63,-92,-29,78,-17,-61,268,73,-48,14,-53,0
-63,-92,-29,78,-17,-61,268,78,-48,14,-53,0
-63,-92,-29,78,-17,-61,268,68,-48,14,-48,0
-63,-92,-29,78,-17,-61,263,68,-48,14,-48,0
-68,-92,-24,80,-21,-58,263,73,-48,14,-48,4
-68,-97,-29,82,-19,-63,258,78,-48,14,-48,4
-78,-97,-19,87,-29,-58,258,78,-43,19,-48,4
-78,-92,-14,85,-31,-53,258,78,-43,19,-48,4
-78,-92,-14,85,-31,-53,263,78,-43,19,-48,4
-78,-87,-9,82,-34,-48,263,78,-43,19,-43,4
-87,-87,0,87,-43,-43,273,87,-34,29,-43,-4
-82,-87,-4,85,-39,-46,273,92,-29,29,-43,-4
-82,-87,-4,85,-39,-46,278,92,-29,29,-43,0
-82,-87,-4,85,-39,-46,278,92,-24,34,-43,0
-73,-87,-14,80,-29,-51,268,87,-19,24,-43,0
-73,-87,-14,80,-29,-51,268,92,-19,29,-43,0
-73,-82,-9,78,-31,-46,268,92,-14,34,-43,0
-73,-82,-9,78,-31,-46,268,92,-14,34,-43,0
-63,-82,-19,73,-21,-51,268,92,-14,34,-43,9
-63,-82,-19,73,-21,-51,268,92,-14,34,-43,14
-63,-82,-19,73,-21,-51,268,97,-9,39,-39,14
-63,-82,-19,73,-21,-51,268,97,-9,39,-29,14
-68,-82,-14,75,-26,-48,278,97,-14,48,-29,14
-68,-78,-9,73,-29,-43,278,102,-9,48,-29,14
-68,-78,-9,73,-29,-43,278,102,-9,48,-29,14
-68,-78,-9,73,-29,-43,278,97,-9,53,-29,19
-58,-82,-24,70,-17,-53,278,107,0,58,-14,19
-58,-82,-24,70,-17,-53,278,107,0,58,-14,24
-58,-78,-19,68,-19,-48,278,107,0,58,-14,24
-58,-73,-14,65,-21,-43,278,107,0,58,-9,24
-58,-73,-14,65,-21,-43,278,107,0,63,-9,29
-58,-73,-14,65,-21,-43,273,112,0,63,-9,29
-58,-73,-14,65,-21,-43,273,112,0,63,-4,29
-53,-73,-19,63,-17,-46,273,112,0,63,-4,29
-53,-63,-9,58,-21,-36,273,112,9,73,-4,34
-53,-63,-9,58,-21,-36,273,112,9,73,0,39
-53,-63,-9,58,-21,-36,273,112,9,73,0,39
-53,-63,-9,58,-21,-36,273,112,9,78,0,39
-53,-73,-19,63,-17,-46,263,102,0,78,0,39
-48,-68,-19,58,-14,-43,263,102,0,78,4,39
-48,-68,-19,58,-14,-43,263,97,0,78,4,39
-48,-68,-19,58,-14,-43,263,97,0,78,4,39
-48,-68,-19,58,-14,-43,263,97,0,78,0,39
-48,-68,-19,58,-14,-43,263,97,-4,78,0,39
-48,-68,-19,58,-14,-43,263,97,-4,78,0,39
-48,-68,-19,58,-14,-43,258,97,-4,78,0,39
-58,-68,-9,63,-24,-39,258,92,-4,78,0,39
-53,-68,-14,61,-19,-41,258,92,-9,73,0,39
-53,-73,-19,63,-17,-46,258,87,-14,73,0,34
-53,-73,-19,63,-17,-46,258,87,-19,73,0,34
-43,-82,-39,63,-2,-61,268,82,-19,73,0,34
-43,-82,-39,63,-2,-61,268,82,-19,73,-4,34
-43,-82,-39,63,-2,-61,268,82,-19,73,-4,34
-43,-82,-39,63,-2,-61,263,78,-19,73,-4,34
-43,-82,-39,63,-2,-61,263,78,-24,73,4,34
-43,-82,-39,63,-2,-61,263,78,-24,68,4,34
-43,-82,-39,63,-2,-61,268,73,-24,68,4,34
-43,-82,-39,63,-2,-61,268,73,-29,68,4,34
-43,-82,-39,63,-2,-61,263,68,-19,78,-4,34
-43,-82,-39,63,-2,-61,263,68,-29,68,-9,29
-48,-87,-39,68,-4,-63,258,63,-29,68,-9,29
-48,-87,-39,68,-4,-63,258,63,-29,68,-9,29
-48,-87,-39,68,-4,-63,268,63,-39,58,-9,19
-48,-87,-39,68,-4,-63,263,58,-39,58,-14,19
-48,-87,-39,68,-4,-63,263,58,-39,53,-14,19
-48,-87,-39,68,-4,-63,263,58,-39,53,-14,19
-48,-87,-39,68,-4,-63,263,58,-43,63,-14,29
-48,-92,-43,70,-2,-68,263,48,-43,63,-14,24
-48,-97,-48,73,0,-73,263,43,-43,63,-19,24
-48,-97,-48,73,0,-73,263,43,-43,58,-19,19
-48,-82,-34,65,-7,-58,253,48,-53,48,-19,14
-48,-82,-34,65,-7,-58,253,48,-53,43,-24,14
-48,-87,-39,68,-4,-63,253,43,-58,43,-24,14
-48,-87,-39,68,-4,-63,253,43,-58,43,-24,9
-58,-97,-39,78,-9,-68,253,43,-58,48,-24,9
-58,-102,-43,80,-7,-73,253,43,-58,48,-29,9
-58,-102,-43,80,-7,-73,253,43,-63,48,-29,9
-58,-107,-48,82,-4,-78,248,39,-63,48,-29,9
-58,-107,-48,82,-4,-78,248,39,-53,48,-14,9
-58,-107,-48,82,-4,-78,248,39,-58,48,-14,9
-58,-107,-48,82,-4,-78,248,39,-58,48,-19,9
-58,-107,-48,82,-4,-78,248,39,-58,53,-19,9
-58,-102,-43,80,-7,-73,258,39,-58,43,-19,19
-58,-102,-43,80,-7,-73,263,39,-58,43,-19,19
-58,-107,-48,82,-4,-78,263,34,-58,43,-19,14
-58,-107,-48,82,-4,-78,263,34,-58,34,-24,14
-48,-107,-58,78,4,-82,248,34,-63,43,-34,4
-48,-107,-58,78,4,-82,248,34,-63,43,-34,4
-48,-107,-58,78,4,-82,248,34,-63,48,-34,4
-58,-107,-48,82,-4,-78,248,34,-63,48,-29,9
-58,-97,-39,78,-9,-68,248,24,-63,48,-29,9
-48,-97,-48,73,0,-73,248,24,-63,48,-29,9
-48,-97,-48,73,0,-73,244,24,-68,48,-29,9
-53,-97,-43,75,-4,-70,244,19,-68,48,-29,4
-63,-107,-43,85,-9,-75,258,29,-68,48,-19,4
-63,-107,-43,85,-9,-75,258,29,-68,48,-24,4
-63,-107,-43,85,-9,-75,258,29,-68,48,-24,4
-63,-112,-48,87,-7,-80,258,29,-68,48,-29,4
-73,-107,-34,90,-19,-70,244,19,-68,48,-29,4
-73,-107,-34,90,-19,-70,244,19,-68,43,-29,4
-73,-107,-34,90,-19,-70,244,19,-68,43,-29,4
-73,-107,-34,90,-19,-70,244,19,-68,39,-29,4
-63,-117,-53,90,-4,-85,248,24,-68,48,-19,4
-63,-117,-53,90,-4,-85,248,24,-68,48,-19,4
-68,-112,-43,90,-12,-78,248,19,-68,53,-19,9
-68,-112,-43,90,-12,-78,248,19,-68,53,-19,9
-53,-112,-58,82,2,-85,248,19,-68,43,-24,9
-53,-112,-58,82,2,-85,248,19,-73,43,-24,9
-58,-112,-53,85,-2,-82,248,19,-73,43,-24,9
-58,-117,-58,87,0,-87,248,19,-73,43,-29,4
-68,-117,-48,92,-9,-82,253,29,-73,48,-19,14
-68,-112,-43,90,-12,-78,253,29,-73,48,-19,14
-68,-112,-43,90,-12,-78,258,29,-73,48,-19,9
-68,-112,-43,90,-12,-78,263,29,-73,48,-24,9
-68,-112,-43,90,-12,-78,263,19,-73,48,-24,9
-68,-112,-43,90,-12,-78,258,19,-68,48,-24,9
-68,-117,-48,92,-9,-82,253,19,-68,48,-19,9
-68,-117,-48,92,-9,-82,248,19,-68,48,-19,9
-58,-112,-53,85,-2,-82,248,19,-68,48,-19,9
-58,-112,-53,85,-2,-82,248,14,-73,48,-19,9
-53,-112,-58,82,2,-85,248,14,-73,48,-19,9
-53,-112,-58,82,2,-85,248,14,-73,48,-19,4
-63,-112,-48,87,-7,-80,258,14,-73,48,-29,4
-63,-112,-48,87,-7,-80,258,14,-73,48,-29,4
-63,-112,-48,87,-7,-80,258,14,-73,48,-29,9
-63,-112,-48,87,-7,-80,258,14,-68,48,-29,9
-58,-112,-53,85,-2,-82,258,14,-78,48,-19,9
-58,-117,-58,87,0,-87,258,14,-78,48,-24,9
-58,-117,-58,87,0,-87,258,14,-78,48,-24,9
-58,-117,-58,87,0,-87,258,14,-78,48,-24,9
-58,-117,-58,87,0,-87,258,14,-68,48,-24,9
-58,-117,-58,87,0,-87,258,14,-68,48,-24,9
-58,-117,-58,87,0,-87,258,14,-68,48,-29,4
-58,-117,-58,87,0,-87,258,14,-68,48,-29,4
-68,-117,-48,92,-9,-82,258,14,-78,48,-29,4
-58,-117,-58,87,0,-87,253,9,-68,48,-29,9
-58,-117,-58,87,0,-87,253,19,-68,48,-19,9
-58,-117,-58,87,0,-87,253,19,-68,48,-19,9
-58,-117,-58,87,0,-87,253,19,-68,48,-19,9
-58,-117,-58,87,0,-87,253,19,-68,48,-19,9
-58,-107,-48,82,-4,-78,258,19,-58,53,-9,19
-53,-97,-43,75,-4,-70,263,24,-58,63,-9,19
-43,-87,-43,65,0,-65,273,39,-53,68,-4,24
-39,-78,-39,58,0,-58,283,43,-43,82,0,24
-34,-73,-39,53,2,-56,287,48,-39,87,0,34
-34,-63,-29,48,-2,-46,292,48,-29,92,4,34
-29,-58,-29,43,0,-43,292,53,-24,97,9,43
-24,-48,-24,36,0,-36,292,58,-19,102,14,48
-24,-43,-19,34,-2,-31,302,63,-14,97,14,48
-24,-43,-19,34,-2,-31,302,63,-9,102,19,48
-19,-43,-24,31,2,-34,302,63,-9,107,19,53
-19,-39,-19,29,0,-29,302,63,-9,107,19,53
-34,-48,-14,41,-9,-31,302,68,-19,107,19,43
-34,-48,-14,41,-9,-31,302,68,-14,107,19,43
-34,-43,-9,39,-12,-26,302,68,-14,107,19,43
-34,-43,-9,39,-12,-26,297,68,-4,112,24,48
-24,-24,0,24,-12,-12,297,63,0,117,24,48
-24,-9,14,17,-19,2,297,68,9,122,34,58
-19,4,24,7,-21,14,297,68,24,131,43,68
-14,9,24,2,-19,17,292,68,24,136,48,73
-14,0,14,7,-14,7,283,58,24,136,48,73
-4,4,9,0,-7,7,253,48,9,136,53,73
0,4,4,-2,-2,4,253,48,9,136,53,78
4,9,4,-7,0,7,253,48,9,136,53,78
9,0,-9,-4,9,-4,258,39,0,136,53,78
9,-9,-19,0,14,-14,248,39,0,131,53,78
14,-29,-43,7,29,-36,248,39,-4,126,48,73
19,-39,-58,9,39,-48,248,43,-4,126,48,73
24,-39,-63,7,43,-51,253,53,-4,126,48,82
29,-43,-73,7,51,-58,253,53,-9,126,43,82
29,-48,-78,9,53,-63,248,53,-19,122,43,78
29,-63,-92,17,61,-78,248,48,-34,117,34,73
19,-63,-82,21,51,-73,229,39,-43,107,39,68
19,-73,-92,26,56,-82,224,19,-63,92,29,58
19,-82,-102,31,61,-92,219,4,-68,82,24,53
14,-82,-97,34,56,-90,219,4,-73,78,19,53
0,-87,-87,43,43,-87,229,4,-78,87,4,39
-14,-92,-78,53,31,-85,229,0,-78,82,4,39
-19,-97,-78,58,29,-87,234,0,-78,78,0,34
-24,-97,-73,61,24,-85,239,4,-78,78,-4,29
-29,-107,-78,68,24,-92,244,-4,-82,78,0,24
-43,-117,-73,80,14,-95,244,-4,-82,73,-4,19
-58,-126,-68,92,4,-97,258,-4,-87,63,-9,9
-78,-136,-58,107,-9,-97,263,-4,-87,63,-19,4
-78,-141,-63,109,-7,-102,253,-9,-87,48,-19,4
-78,-141,-63,109,-7,-102,253,-14,-92,43,-24,4
-78,-151,-73,114,-2,-112,253,-19,-92,43,-24,0
-82,-151,-68,117,-7,-109,253,-24,-102,39,-29,-4
-82,-161,-78,122,-2,-119,263,-14,-102,34,-43,-9
-82,-165,-82,124,0,-124,258,-14,-107,34,-48,-14
-82,-165,-82,124,0,-124,258,-14,-107,29,-48,-14
-82,-165,-82,124,0,-124,253,-14,-107,24,-53,-14
-82,-161,-78,122,-2,-119,253,-29,-112,34,-43,-14
-82,-161,-78,122,-2,-119,253,-29,-112,34,-43,-14
-82,-165,-82,124,0,-124,253,-29,-112,34,-43,-19
-82,-165,-82,124,0,-124,253,-29,-112,34,-43,-19
-82,-165,-82,124,0,-124,253,-24,-107,43,-34,-19
-82,-165,-82,124,0,-124,253,-24,-107,43,-34,-19
-87,-165,-78,126,-4,-122,253,-24,-107,43,-34,-14
-87,-161,-73,124,-7,-117,253,-19,-107,48,-29,-14
-82,-161,-78,122,-2,-119,253,-29,-102,39,-39,-14
-82,-161,-78,122,-2,-119,253,-29,-102,39,-39,-14
-82,-156,-73,119,-4,-114,258,-29,-102,39,-39,-14
-82,-156,-73,119,-4,-114,258,-29,-102,39,-39,-14
-82,-165,-82,124,0,-124,258,-19,-92,39,-39,-14
-82,-165,-82,124,0,-124,258,-19,-92,39,-39,-14
-82,-165,-82,124,0,-124,258,-19,-92,39,-39,-14
-82,-165,-82,124,0,-124,258,-19,-92,39,-39,-14
-82,-165,-82,124,0,-124,268,-9,-82,48,-29,-14
-82,-165,-82,124,0,-124,263,-4,-78,48,-29,-19
-87,-165,-78,126,-4,-122,273,4,-73,58,-29,-19
-92,-156,-63,124,-14,-109,283,24,-53,68,-29,-24
-97,-141,-43,119,-26,-92,312,63,-19,73,-19,-14
-87,-131,-43,109,-21,-87,336,97,24,102,-4,-14
-82,-126,-43,104,-19,-85,366,146,68,136,14,14
-87,-107,-19,97,-34,-63,400,224,141,190,53,39
-78,-82,-4,80,-36,-43,434,322,239,268,107,78
-58,-68,-9,63,-24,-39,497,444,346,356,175,117
-14,-63,-48,39,17,-56,541,561,463,448,263,175
48,-43,-92,-2,70,-68,551,634,527,551,366,258
156,4,-151,-80,153,-73,522,688,585,678,502,380
287,63,-224,-175,256,-80,517,790,663,819,653,502
409,122,-287,-265,348,-82,546,917,780,966,805,639
536,190,-346,-363,441,-78,585,1058,893,1122,961,766
658,297,-361,-478,509,-31,595,1195,1024,1288,1132,917
761,458,-302,-610,531,78,541,1259,1141,1454,1298,1068
863,624,-239,-744,551,192,419,1190,1151,1571,1439,1210
946,766,-180,-856,563,292,258,1068,1063,1576,1483,1298
976,795,-180,-885,578,307,112,927,893,1420,1385,1254
917,722,-195,-819,556,263,-4,688,614,1132,1137,1098
775,624,-151,-700,463,236,-141,307,239,810,868,917
605,527,-78,-566,341,224,-322,-161,-200,483,610,741
458,390,-68,-424,263,161,-507,-634,-668,112,292,531
283,263,-19,-273,151,122,-649,-1088,-1098,-268,-29,287
82,214,131,-148,-24,173,-727,-1473,-1429,-556,-287,102
-29,136,165,-53,-97,151,-766,-1664,-1595,-712,-429,-29
-53,9,63,21,-58,36,-780,-1664,-1659,-800,-541,-146
-92,-141,-48,117,-21,-95,-771,-1625,-1693,-897,-653,-268
-146,-273,-126,209,-9,-200,-732,-1595,-1722,-961,-732,-361
-151,-366,-214,258,31,-290,-697,-1532,-1698,-976,-746,-400
-141,-395,-253,268,56,-324,-688,-1395,-1595,-917,-736,-405
-117,-405,-287,261,85,-346,-678,-1224,-1454,-839,-688,-395
-92,-409,-317,251,112,-363,-619,-1073,-1327,-775,-634,-380
-87,-409,-322,248,117,-366,-517,-951,-1210,-697,-590,-356
-92,-395,-302,244,104,-348,-414,-839,-1063,-614,-531,-322
-82,-351,-268,217,92,-309,-302,-702,-902,-517,-453,-283
-58,-283,-224,170,82,-253,-195,-546,-732,-400,-366,-224
-39,-234,-195,136,78,-214,-117,-429,-585,-292,-292,-165
-39,-200,-161,119,61,-180,-48,-341,-468,-214,-229,-126
-43,-175,-131,109,43,-153,-4,-268,-395,-161,-200,-102
-53,-170,-117,112,31,-143,48,-204,-326,-122,-170,-87
-63,-161,-97,112,17,-129,102,-141,-253,-73,-136,-73
-63,-161,-97,112,17,-129,156,-92,-195,-39,-107,-58
-63,-156,-92,109,14,-124,200,-48,-161,-4,-78,-43
-53,-156,-102,104,24,-129,234,-19,-131,9,-58,-39
-68,-156,-87,112,9,-122,258,14,-97,34,-43,-24
-68,-141,-73,104,2,-107,258,19,-87,48,-34,-9
-63,-136,-73,100,4,-104,258,14,-78,43,-39,-14
-63,-146,-82,104,9,-114,253,19,-82,43,-39,-14
-73,-141,-68,107,-2,-104,263,19,-73,43,-48,-14
-78,-141,-63,109,-7,-102,268,29,-68,48,-43,-14
-78,-141,-63,109,-7,-102,273,34,-63,53,-43,-14
-78,-141,-63,109,-7,-102,278,39,-48,58,-34,-9
-68,-141,-73,104,2,-107,283,43,-48,68,-39,-9
-63,-136,-73,100,4,-104,283,48,-34,78,-34,-4
-63,-131,-68,97,2,-100,283,53,-34,78,-34,-4
-63,-131,-68,97,2,-100,283,53,-34,82,-29,-4
-73,-131,-58,102,-7,-95,278,48,-29,82,-29,0
-73,-131,-58,102,-7,-95,283,48,-29,82,-24,0
-73,-131,-58,102,-7,-95,283,53,-29,87,-24,0
-73,-131,-58,102,-7,-95,283,58,-24,87,-24,0
-58,-141,-82,100,12,-112,292,58,-19,82,-14,4
-58,-141,-82,100,12,-112,297,58,-14,82,-9,4
-58,-141,-82,100,12,-112,302,63,-14,82,-9,4
-58,-136,-78,97,9,-107,302,68,-9,82,-9,4
-58,-136,-78,97,9,-107,292,68,-9,97,-19,-4
-58,-136,-78,97,9,-107,292,68,-9,97,-14,-4
-58,-136,-78,97,9,-107,292,68,-9,97,-14,0
-58,-136,-78,97,9,-107,292,68,-4,102,-9,0
-68,-126,-58,97,-4,-92,302,87,4,112,-4,4
-68,-131,-63,100,-2,-97,302,87,9,112,0,9
-68,-131,-63,100,-2,-97,302,87,14,117,4,14
-63,-126,-63,95,0,-95,302,87,14,117,14,19
-63,-126,-63,95,0,-95,302,92,4,112,4,14
-63,-126,-63,95,0,-95,297,92,4,112,9,14
-63,-122,-58,92,-2,-90,297,92,9,112,9,14
-63,-122,-58,92,-2,-90,307,92,9,112,9,14
-53,-117,-63,85,4,-90,307,102,14,112,9,19
-53,-117,-63,85,4,-90,307,102,14,117,9,19
-53,-117,-63,85,4,-90,307,102,14,117,14,19
-53,-117,-63,85,4,-90,307,102,19,122,14,19
-53,-117,-63,85,4,-90,307,117,19,131,14,19
-53,-112,-58,82,2,-85,307,117,24,131,14,24
-53,-112,-58,82,2,-85,307,117,24,136,14,24
-48,-112,-63,80,7,-87,312,122,29,136,19,24
-48,-112,-63,80,7,-87,312,122,34,126,19,29
-48,-107,-58,78,4,-82,307,126,34,131,24,29
-48,-107,-58,78,4,-82,307,122,34,131,24,29
-43,-102,-58,73,7,-80,312,122,39,131,24,34
-43,-112,-68,78,12,-90,312,136,58,136,24,34
-39,-107,-68,73,14,-87,312,136,58,136,29,39
-39,-107,-68,73,14,-87,312,136,63,141,29,39
-39,-107,-68,73,14,-87,317,141,63,151,29,39
-34,-102,-68,68,17,-85,322,146,63,161,39,43
-34,-102,-68,68,17,-85,322,151,68,165,43,43
-29,-102,-73,65,21,-87,322,156,68,165,43,43
-29,-92,-63,61,17,-78,317,161,73,165,43,43
-29,-82,-53,56,12,-68,326,175,87,156,43,53
-19,-82,-63,51,21,-73,326,180,92,165,48,58
-19,-78,-58,48,19,-68,326,185,97,170,58,58
-19,-73,-53,46,17,-63,326,190,102,175,63,58
-9,-73,-63,41,26,-68,331,200,107,185,68,63
0,-63,-63,31,31,-63,331,209,112,195,68,63
0,-63,-63,31,31,-63,331,214,122,204,73,73
0,-58,-58,29,29,-58,336,224,126,214,78,78
9,-53,-63,21,36,-58,336,229,131,219,92,82
9,-48,-58,19,34,-53,336,244,141,219,97,87
14,-43,-58,14,36,-51,336,253,151,224,102,92
19,-39,-58,9,39,-48,341,263,156,234,107,97
24,-34,-58,4,41,-46,341,283,165,244,112,102
29,-29,-58,0,43,-43,341,292,175,248,117,107
34,-24,-58,-4,46,-41,346,302,185,258,126,112
39,-19,-58,-9,48,-39,346,317,195,268,136,122
43,-19,-63,-12,53,-41,356,326,204,273,136,136
48,-14,-63,-17,56,-39,356,336,214,283,141,141
58,-4,-63,-26,61,-34,356,346,224,287,151,151
63,4,-58,-34,61,-26,361,356,234,297,156,156
68,14,-53,-41,61,-19,351,375,253,322,180,161
73,29,-43,-51,58,-7,351,385,263,331,190,175
87,43,-43,-65,65,0,351,400,273,336,195,180
97,58,-39,-78,68,9,351,409,287,346,204,190
117,68,-48,-92,82,9,351,409,292,351,204,190
117,78,-39,-97,78,19,351,424,292,356,214,200
131,82,-48,-107,90,17,351,429,297,361,224,209
141,92,-48,-117,95,21,346,439,297,366,234,219
141,92,-48,-117,95,21,346,458,317,385,248,229
141,102,-39,-122,90,31,346,463,326,395,258,244
146,107,-39,-126,92,34,346,473,331,405,268,253
156,117,-39,-136,97,39,346,483,336,409,278,253
170,126,-43,-148,107,41,346,473,331,414,278,268
185,136,-48,-161,117,43,341,478,331,419,287,273
195,141,-53,-168,124,43,336,478,336,419,287,283
195,151,-43,-173,119,53,331,483,336,429,292,287
190,151,-39,-170,114,56,331,483,341,444,312,302
200,156,-43,-178,122,56,331,488,346,448,317,302
200,156,-43,-178,122,56,331,488,346,453,317,307
209,161,-48,-185,129,56,322,488,346,453,322,312
209,165,-43,-187,126,61,317,488,346,448,317,307
214,175,-39,-195,126,68,317,488,346,448,317,312
214,175,-39,-195,126,68,312,488,341,448,322,312
219,180,-39,-200,129,70,307,483,336,444,322,317
224,180,-43,-202,134,68,307,473,336,444,322,317
224,180,-43,-202,134,68,302,468,336,444,322,317
224,180,-43,-202,134,68,297,453,331,444,322,317
224,180,-43,-202,134,68,292,453,326,439,322,322
214,170,-43,-192,129,63,292,439,317,429,317,312
214,170,-43,-192,129,63,287,429,307,424,317,312
214,170,-43,-192,129,63,287,414,292,424,312,307
214,170,-43,-192,129,63,283,409,273,419,312,307
209,156,-53,-183,131,51,283,405,278,419,312,307
209,156,-53,-183,131,51,278,400,268,409,302,302
204,156,-48,-180,126,53,278,385,258,405,302,297
204,151,-53,-178,129,48,278,375,248,395,292,292
195,136,-58,-165,126,39,287,361,253,395,273,283
185,136,-48,-161,117,43,287,346,244,385,268,278
185,131,-53,-158,119,39,283,336,239,375,258,268
175,122,-53,-148,114,34,283,326,229,366,253,263
161,122,-39,-141,100,41,273,307,209,351,239,248
146,117,-29,-131,87,43,278,287,200,341,234,239
141,102,-39,-122,90,31,278,273,185,326,224,229
126,92,-34,-109,80,29,278,263,180,322,214,219
117,73,-43,-95,80,14,278,248,170,322,204,214
107,63,-43,-85,75,9,278,234,156,312,195,200
97,58,-39,-78,68,9,278,219,151,307,185,195
92,48,-43,-70,68,2,278,209,141,297,175,180
82,29,-53,-56,68,-12,278,209,122,278,165,165
73,19,-53,-46,63,-17,278,200,107,268,156,151
68,9,-58,-39,63,-24,278,190,102,258,151,146
58,0,-58,-29,58,-29,283,170,92,253,141,136
43,-9,-53,-17,48,-31,292,156,87,239,126,136
29,-19,-48,-4,39,-34,292,146,82,234,117,126
19,-29,-48,4,34,-39,297,131,78,224,107,117
4,-39,-43,17,24,-41,297,126,73,214,97,112
4,-48,-53,21,29,-51,287,136,68,214,92,102
-4,-58,-53,31,24,-56,287,126,58,209,87,92
-9,-68,-58,39,24,-63,287,117,53,204,73,82
-9,-73,-63,41,26,-68,287,107,48,195,68,78
-9,-78,-68,43,29,-73,292,97,39,185,63,68
-19,-82,-63,51,21,-73,292,87,39,175,58,63
-19,-78,-58,48,19,-68,292,87,34,170,53,63
-24,-78,-53,51,14,-65,292,82,34,170,48,58
-24,-82,-58,53,17,-70,292,87,29,161,43,53
-29,-87,-58,58,14,-73,292,82,19,161,39,48
-39,-87,-48,63,4,-68,292,78,14,156,39,43
-39,-92,-53,65,7,-73,287,73,9,151,34,43
-39,-97,-58,68,9,-78,287,73,14,156,43,48
-43,-97,-53,70,4,-75,287,68,14,156,39,48
-48,-102,-53,75,2,-78,287,63,9,151,34,43
-53,-107,-53,80,0,-80,287,63,4,146,29,39
-53,-117,-63,85,4,-90,297,68,0,146,29,34
-53,-117,-63,85,4,-90,297,63,0,141,29,34
-53,-117,-63,85,4,-90,302,63,-4,141,24,34
-53,-122,-68,87,7,-95,302,63,-4,136,19,29
-58,-117,-58,87,0,-87,292,53,-4,146,19,29
-58,-117,-58,87,0,-87,292,53,-9,146,19,29
-58,-117,-58,87,0,-87,292,48,-9,146,14,29
-58,-117,-58,87,0,-87,292,48,-9,141,14,29
-58,-112,-53,85,-2,-82,287,48,-9,141,14,24
-58,-117,-58,87,0,-87,287,48,-9,141,14,24
-63,-117,-53,90,-4,-85,287,48,-9,136,14,24
-63,-112,-48,87,-7,-80,287,48,-9,136,14,24
-68,-112,-43,90,-12,-78,297,48,-24,136,9,19
-68,-112,-43,90,-12,-78,297,48,-24,136,9,19
-68,-112,-43,90,-12,-78,297,48,-24,131,9,19
-68,-112,-43,90,-12,-78,297,48,-19,131,9,19
-63,-126,-63,95,0,-95,297,48,-19,131,4,19
-63,-126,-63,95,0,-95,297,43,-19,131,4,19
-63,-122,-58,92,-2,-90,297,43,-19,131,4,19
-63,-122,-58,92,-2,-90,297,48,-19,131,4,19
-73,-112,-39,92,-17,-75,292,48,-9,141,9,19
-73,-112,-39,92,-17,-75,292,48,-9,141,9,19
-78,-112,-34,95,-21,-73,297,53,-9,141,9,24
-78,-117,-39,97,-19,-78,297,58,-9,141,9,24
-68,-126,-58,97,-4,-92,297,58,-4,136,0,24
-68,-122,-53,95,-7,-87,297,58,-4,136,0,24
-68,-122,-53,95,-7,-87,302,58,-4,136,0,24
-68,-117,-48,92,-9,-82,302,58,-4,136,4,24
-68,-117,-48,92,-9,-82,292,58,-4,146,14,24
-63,-117,-53,90,-4,-85,292,63,0,146,14,24
-63,-117,-53,90,-4,-85,297,63,0,146,14,29
-63,-117,-53,90,-4,-85,297,63,4,151,14,29
-63,-107,-43,85,-9,-75,307,68,9,151,14,39
-63,-107,-43,85,-9,-75,307,73,9,156,14,39
-63,-102,-39,82,-12,-70,307,73,14,161,14,39
-63,-102,-39,82,-12,-70,307,73,14,161,14,39
-63,-102,-39,82,-12,-70,297,73,14,151,14,29
-63,-102,-39,82,-12,-70,297,73,14,151,14,34
-63,-102,-39,82,-12,-70,297,78,19,156,19,34
-63,-102,-39,82,-12,-70,297,78,19,156,29,34
-68,-102,-34,85,-17,-68,307,87,24,161,29,43
-68,-97,-29,82,-19,-63,307,92,29,165,29,43
-68,-97,-29,82,-19,-63,307,92,29,170,29,43
-68,-97,-29,82,-19,-63,307,87,29,180,29,48
-68,-92,-24,80,-21,-58,307,87,29,185,34,48
-68,-92,-24,80,-21,-58,307,87,29,185,34,53
-68,-87,-19,78,-24,-53,307,87,29,185,34,53
-68,-82,-14,75,-26,-48,307,87,29,185,39,53
-58,-92,-34,75,-12,-63,307,78,29,190,39,58
-58,-92,-34,75,-12,-63,302,82,29,190,39,58
-58,-92,-34,75,-12,-63,302,82,29,190,43,58
-53,-92,-39,73,-7,-65,302,82,29,190,43,58
-53,-82,-29,68,-12,-56,292,82,29,180,34,53
-53,-82,-29,68,-12,-56,292,82,29,180,39,58
-53,-82,-29,68,-12,-56,292,82,29,180,39,58
-53,-82,-29,68,-12,-56,292,82,29,185,39,58
-53,-92,-39,73,-7,-65,292,82,29,185,48,58
-48,-87,-39,68,-4,-63,292,82,29,185,53,58
-48,-87,-39,68,-4,-63,292,78,29,185,53,58
-48,-87,-39,68,-4,-63,292,78,29,185,53,58
-48,-78,-29,63,-9,-53,292,78,29,195,58,68
-48,-78,-29,63,-9,-53,292,78,24,195,58,68
-48,-78,-29,63,-9,-53,292,78,24,195,58,68
-48,-78,-29,63,-9,-53,287,78,24,195,58,68
-48,-78,-29,63,-9,-53,278,63,24,195,48,68
-43,-78,-34,61,-4,-56,278,63,19,190,48,68
-43,-82,-39,63,-2,-61,278,58,14,190,48,63
-43,-82,-39,63,-2,-61,278,58,9,190,48,63
-43,-82,-39,63,-2,-61,278,63,9,200,58,63
-43,-82,-39,63,-2,-61,278,63,9,200,53,63
-43,-82,-39,63,-2,-61,278,63,9,200,53,63
-43,-82,-39,63,-2,-61,273,58,9,200,53,63
-43,-82,-39,63,-2,-61,273,58,4,190,43,53
-43,-82,-39,63,-2,-61,273,58,4,185,43,53
-43,-82,-39,63,-2,-61,278,53,4,185,43,53
-43,-82,-39,63,-2,-61,278,53,0,185,43,53
-43,-92,-48,68,2,-70,283,48,0,175,43,53
-43,-92,-48,68,2,-70,283,48,-9,165,39,48
-48,-97,-48,73,0,-73,278,43,-9,165,39,48
-48,-97,-48,73,0,-73,278,43,-9,165,39,48
-39,-97,-58,68,9,-78,268,34,-19,175,39,48
-39,-97,-58,68,9,-78,263,29,-19,175,34,48
-39,-97,-58,68,9,-78,263,29,-19,170,34,48
-39,-97,-58,68,9,-78,263,29,-19,170,34,48
-48,-97,-48,73,0,-73,263,29,-24,170,34,48
-48,-102,-53,75,2,-78,263,19,-24,170,34,43
-48,-107,-58,78,4,-82,263,14,-24,170,29,43
-48,-107,-58,78,4,-82,263,14,-24,165,29,39
-48,-102,-53,75,2,-78,263,29,-24,165,29,43
-48,-102,-53,75,2,-78,263,29,-24,161,24,43
-48,-107,-58,78,4,-82,263,24,-29,161,24,43
-48,-107,-58,78,4,-82,263,24,-29,161,24,39
-48,-97,-48,73,0,-73,263,24,-29,165,34,39
-48,-102,-53,75,2,-78,263,24,-29,165,29,39
-48,-102,-53,75,2,-78,263,24,-34,165,29,39
-48,-107,-58,78,4,-82,258,19,-34,165,29,39
-58,-97,-39,78,-9,-68,258,9,-34,165,24,39
-58,-97,-39,78,-9,-68,258,9,-39,165,24,39
-58,-97,-39,78,-9,-68,258,9,-39,165,19,39
-58,-97,-39,78,-9,-68,258,9,-39,170,19,39
-58,-102,-43,80,-7,-73,248,19,-39,170,19,39
-58,-102,-43,80,-7,-73,253,19,-39,170,19,39
-58,-107,-48,82,-4,-78,253,14,-39,170,19,34
-58,-107,-48,82,-4,-78,253,14,-39,161,14,34
-53,-107,-53,80,0,-80,248,4,-43,161,24,34
-48,-107,-58,78,4,-82,248,4,-43,161,24,34
-43,-107,-63,75,9,-85,248,4,-43,165,24,34
-48,-107,-58,78,4,-82,248,4,-43,165,29,39
-53,-107,-53,80,0,-80,258,14,-34,165,19,39
-48,-107,-58,78,4,-82,258,14,-34,165,19,39
-53,-107,-53,80,0,-80,253,14,-39,165,19,39
-63,-107,-43,85,-9,-75,253,9,-39,165,19,34
-53,-117,-63,85,4,-90,258,0,-48,161,14,29
-53,-117,-63,85,4,-90,258,0,-48,156,4,24
-53,-117,-63,85,4,-90,258,0,-48,151,0,19
-53,-122,-68,87,7,-95,258,0,-48,146,-9,14
-53,-117,-63,85,4,-90,253,0,-48,156,-4,24
-53,-117,-63,85,4,-90,253,0,-48,151,0,24
-53,-117,-63,85,4,-90,253,0,-48,151,4,24
-53,-117,-63,85,4,-90,253,0,-48,146,9,24
-53,-117,-63,85,4,-90,248,4,-48,151,9,24
-53,-117,-63,85,4,-90,248,4,-48,156,9,24
-58,-112,-53,85,-2,-82,248,0,-48,165,9,29
-58,-112,-53,85,-2,-82,248,0,-48,170,9,29
-53,-112,-58,82,2,-85,248,0,-48,161,14,29
-53,-112,-58,82,2,-85,248,0,-53,161,14,29
-58,-112,-53,85,-2,-82,248,0,-53,161,14,29
-58,-117,-58,87,0,-87,248,0,-53,161,9,24
-48,-117,-68,82,9,-92,258,0,-53,165,9,24
-48,-112,-63,80,7,-87,253,0,-53,165,9,24
-48,-112,-63,80,7,-87,253,0,-53,165,9,19
-48,-112,-63,80,7,-87,253,0,-53,165,4,19
-58,-112,-53,85,-2,-82,248,0,-53,165,4,19
-58,-112,-53,85,-2,-82,248,0,-48,165,4,19
-58,-117,-58,87,0,-87,248,0,-48,165,9,19
-58,-117,-58,87,0,-87,248,0,-48,165,9,19
-58,-122,-63,90,2,-92,248,0,-58,165,9,19
-58,-122,-63,90,2,-92,248,-4,-63,165,9,19
-53,-122,-68,87,7,-95,248,-4,-63,165,9,19
-53,-122,-68,87,7,-95,248,-4,-63,165,9,14
-53,-112,-58,82,2,-85,248,-4,-53,175,9,24
-53,-112,-58,82,2,-85,248,-4,-53,175,9,24
-53,-112,-58,82,2,-85,248,-4,-53,175,9,29
-53,-112,-58,82,2,-85,248,-4,-48,175,9,29
-58,-112,-53,85,-2,-82,248,-4,-58,175,9,29
-58,-117,-58,87,0,-87,248,-4,-58,175,4,29
-58,-117,-58,87,0,-87,248,-4,-58,175,4,29
-58,-117,-58,87,0,-87,248,-4,-58,175,4,29
-48,-107,-58,78,4,-82,248,-4,-58,185,14,29
-48,-107,-58,78,4,-82,248,-4,-58,185,14,29
-48,-107,-58,78,4,-82,248,-4,-58,185,9,24
-48,-107,-58,78,4,-82,248,-4,-58,185,9,24
-58,-117,-58,87,0,-87,248,-4,-58,180,9,24
-58,-117,-58,87,0,-87,248,-4,-58,175,14,24
-58,-117,-58,87,0,-87,248,-4,-58,170,14,24
-58,-117,-58,87,0,-87,248,-4,-58,165,14,29
-58,-117,-58,87,0,-87,248,-4,-58,165,9,19
-58,-117,-58,87,0,-87,248,-4,-58,165,4,19
-58,-117,-58,87,0,-87,248,-4,-58,165,0,19
-58,-117,-58,87,0,-87,253,-4,-58,165,-4,19
-58,-117,-58,87,0,-87,258,-4,-48,175,4,19
-58,-126,-68,92,4,-97,253,0,-58,175,9,19
-48,-117,-68,82,9,-92,253,-9,-58,165,0,19
-48,-117,-68,82,9,-92,253,-9,-58,165,0,19
-48,-117,-68,82,9,-92,253,-9,-58,165,0,19
-48,-117,-68,82,9,-92,253,-9,-58,165,0,19
-39,-102,-63,70,12,-82,263,0,-48,175,9,29
-34,-97,-63,65,14,-80,263,4,-48,180,9,29
-24,-92,-68,58,21,-80,268,19,-43,180,14,34
-19,-87,-68,53,24,-78,273,24,-34,190,19,34
-24,-82,-58,53,17,-70,278,29,-29,204,19,43
-24,-73,-48,48,12,-61,283,29,-19,209,24,43
-19,-68,-48,43,14,-58,283,34,-14,214,29,53
-14,-58,-43,36,14,-51,283,39,-9,219,34,58
-14,-53,-39,34,12,-46,292,43,-4,214,34,58
-14,-53,-39,34,12,-46,292,43,0,219,39,58
-9,-53,-43,31,17,-48,292,43,0,224,39,63
-9,-48,-39,29,14,-43,292,43,0,224,39,63
-4,-48,-43,26,19,-46,292,48,-9,224,39,63
-4,-48,-43,26,19,-46,292,48,-4,224,39,63
-4,-43,-39,24,17,-41,292,48,-4,224,39,63
-4,-43,-39,24,17,-41,287,48,4,229,43,68
-14,-34,-19,24,2,-26,297,53,19,244,53,68
-14,-19,-4,17,-4,-12,297,58,29,248,63,78
-9,-4,4,7,-7,0,297,58,43,258,73,87
-4,0,4,2,-4,2,292,58,43,263,78,92
4,0,-4,-2,4,-2,273,39,34,253,68,82
14,4,-9,-9,12,-2,244,29,19,253,73,82
19,4,-14,-12,17,-4,244,29,19,253,73,87
24,9,-14,-17,19,-2,244,29,19,253,73,87
19,9,-9,-14,14,0,248,39,19,258,73,97
19,0,-19,-9,19,-9,239,39,19,258,73,97
24,-19,-43,-2,34,-31,239,39,14,258,68,92
29,-29,-58,0,43,-43,239,43,14,263,68,92
24,-29,-53,2,39,-41,234,43,14,253,78,102
29,-34,-63,2,46,-48,234,43,9,253,73,102
29,-39,-68,4,48,-53,229,43,0,248,73,97
29,-53,-82,12,56,-68,229,39,-14,244,63,92
29,-53,-82,12,56,-68,219,29,-24,244,58,78
29,-63,-92,17,61,-78,214,9,-43,229,48,68
29,-73,-102,21,65,-87,209,-4,-48,219,43,63
24,-73,-97,24,61,-85,209,-4,-53,214,39,63
19,-87,-107,34,63,-97,219,4,-58,204,24,58
4,-92,-97,43,51,-95,219,0,-58,200,24,58
0,-97,-97,48,48,-97,224,0,-58,195,19,53
-4,-97,-92,51,43,-95,229,4,-58,195,14,48
0,-107,-107,53,53,-107,234,-4,-63,195,9,43
-14,-117,-102,65,43,-109,234,-4,-63,190,4,39
-29,-126,-97,78,34,-112,248,-4,-68,180,0,29
-48,-136,-87,92,19,-112,253,-4,-68,180,-9,24
-58,-131,-73,95,7,-102,244,0,-68,185,0,24
-58,-131,-73,95,7,-102,244,-4,-73,180,-4,24
-58,-141,-82,100,12,-112,244,-9,-73,180,-4,19
-63,-141,-78,102,7,-109,244,-14,-82,175,-9,14
-53,-151,-97,102,21,-124,244,-14,-92,170,-24,9
-53,-156,-102,104,24,-129,239,-14,-97,170,-29,4
-53,-156,-102,104,24,-129,239,-14,-97,165,-29,4
-53,-156,-102,104,24,-129,234,-14,-97,161,-34,4
-63,-170,-107,117,21,-139,244,-19,-102,161,-34,4
-63,-170,-107,117,21,-139,244,-19,-102,161,-34,4
-63,-175,-112,119,24,-143,244,-19,-102,161,-34,0
-63,-175,-112,119,24,-143,244,-19,-102,161,-34,0
-63,-170,-107,117,21,-139,234,-24,-97,161,-24,0
-63,-165,-102,114,19,-134,234,-24,-97,161,-24,0
-68,-161,-92,114,12,-126,234,-24,-97,161,-24,4
-68,-151,-82,109,7,-117,234,-19,-97,165,-19,4
-53,-161,-107,107,26,-134,244,-19,-92,165,-29,4
-53,-161,-107,107,26,-134,244,-19,-92,165,-29,4
-53,-156,-102,104,24,-129,248,-19,-92,165,-29,4
-53,-156,-102,104,24,-129,248,-19,-92,165,-29,4
-63,-156,-92,109,14,-124,239,-19,-92,175,-19,4
-63,-156,-92,109,14,-124,239,-19,-92,175,-19,4
-63,-156,-92,109,14,-124,239,-19,-92,175,-19,4
-63,-156,-92,109,14,-124,239,-19,-92,175,-19,4
-63,-146,-82,104,9,-114,239,-9,-92,175,-19,4
-63,-156,-92,109,14,-124,244,-4,-87,175,-29,9
-58,-156,-97,107,19,-126,253,4,-73,175,-29,9
-73,-156,-82,114,4,-119,263,24,-53,185,-29,4
-68,-141,-73,104,2,-107,292,63,-19,200,-19,4
-78,-141,-63,109,-7,-102,317,97,14,209,-14,4
-73,-136,-63,104,-4,-100,336,126,39,234,-4,4
-78,-126,-48,102,-14,-87,361,165,92,268,24,29
-68,-92,-24,80,-21,-58,395,244,161,326,68,58
-48,-68,-19,58,-14,-43,439,366,268,414,136,107
-24,-63,-39,43,7,-51,502,502,395,517,214,156
19,-53,-73,17,46,-63,541,595,497,629,317,229
87,-24,-112,-31,100,-68,531,658,556,736,434,331
209,24,-185,-117,197,-80,507,722,624,868,575,453
341,73,-268,-207,305,-97,517,839,722,1005,727,590
458,131,-326,-295,392,-97,546,971,834,1161,883,727
590,219,-370,-405,480,-75,575,1098,956,1327,1054,868
712,351,-361,-531,536,-4,561,1210,1083,1512,1229,1029
805,536,-268,-671,536,134,497,1229,1171,1688,1410,1190
878,717,-161,-797,519,278,366,1146,1161,1771,1532,1337
936,824,-112,-880,524,356,219,1024,1049,1732,1532,1381
936,810,-126,-873,531,341,82,854,839,1512,1351,1283
844,712,-131,-778,488,290,-43,561,522,1180,1073,1093
683,614,-68,-649,375,273,-204,151,112,854,805,917
536,517,-19,-527,278,248,-380,-312,-346,522,527,727
390,390,0,-390,195,195,-551,-775,-814,131,204,502
190,302,112,-246,39,207,-658,-1210,-1215,-234,-112,268
29,244,214,-136,-92,229,-727,-1527,-1498,-488,-341,87
-34,156,190,-61,-112,173,-751,-1615,-1610,-605,-453,-19
-63,14,78,24,-70,46,-741,-1566,-1634,-683,-556,-141
-117,-146,-29,131,-43,-87,-712,-1537,-1664,-775,-663,-263
-161,-278,-117,219,-21,-197,-678,-1503,-1688,-829,-736,-341
-151,-356,-204,253,26,-280,-658,-1424,-1654,-819,-746,-375
-117,-375,-258,246,70,-317,-658,-1283,-1542,-761,-727,-385
-82,-380,-297,231,107,-339,-639,-1112,-1405,-678,-673,-361
-78,-380,-302,229,112,-341,-566,-971,-1268,-600,-610,-336
-82,-375,-292,229,104,-334,-473,-878,-1151,-527,-561,-322
-82,-351,-268,217,92,-309,-380,-771,-1010,-439,-512,-292
-68,-312,-244,190,87,-278,-273,-634,-849,-351,-434,-244
-48,-263,-214,156,82,-239,-175,-488,-692,-253,-361,-185
-39,-219,-180,129,70,-200,-97,-380,-556,-156,-278,-136
-34,-175,-141,104,53,-158,-43,-297,-453,-73,-229,-92
-43,-151,-107,97,31,-129,19,-234,-395,-24,-190,-78
-53,-151,-97,102,21,-124,73,-170,-322,24,-165,-63
-43,-141,-97,92,26,-119,117,-112,-253,68,-136,-48
-43,-136,-92,90,24,-114,161,-68,-190,102,-107,-34
-43,-136,-92,90,24,-114,195,-29,-151,117,-87,-19
-48,-146,-97,97,24,-122,229,-4,-126,131,-82,-14
-48,-151,-102,100,26,-126,239,19,-97,156,-63,0
-53,-136,-82,95,14,-109,248,24,-97,161,-58,4
-53,-136,-82,95,14,-109,244,19,-92,170,-58,4
-53,-141,-87,97,17,-114,253,19,-82,170,-58,4
-58,-141,-82,100,12,-112,258,29,-78,175,-53,4
-58,-141,-82,100,12,-112,263,34,-73,180,-53,4
-58,-141,-82,100,12,-112,268,39,-58,185,-43,9
-58,-141,-82,100,12,-112,273,43,-48,195,-39,9
-53,-136,-82,95,14,-109,273,48,-34,204,-34,14
-53,-131,-78,92,12,-104,273,53,-34,204,-34,14
-53,-131,-78,92,12,-104,273,53,-34,209,-29,14
-43,-131,-87,87,21,-109,268,68,-39,209,-29,19
-43,-131,-87,87,21,-109,273,68,-39,209,-24,19
-43,-131,-87,87,21,-109,273,73,-39,214,-24,19
-43,-131,-87,87,21,-109,273,78,-34,214,-24,19
-48,-131,-82,90,17,-107,283,78,-19,219,-24,24
-48,-131,-82,90,17,-107,287,78,-14,219,-19,24
-48,-131,-82,90,17,-107,292,82,-14,219,-19,24
-48,-126,-78,87,14,-102,292,87,-9,219,-19,24
-48,-126,-78,87,14,-102,292,97,-9,224,-19,24
-48,-126,-78,87,14,-102,292,97,-9,224,-14,24
-48,-126,-78,87,14,-102,292,97,-9,224,-14,29
-48,-126,-78,87,14,-102,292,97,-4,229,-9,29
-48,-126,-78,87,14,-102,292,97,-4,229,-19,29
-48,-131,-82,90,17,-107,292,97,0,229,-19,29
-48,-131,-82,90,17,-107,292,97,4,234,-19,29
-43,-126,-82,85,19,-104,292,97,4,234,-14,29
-43,-117,-73,80,14,-95,302,102,4,248,-4,34
-43,-117,-73,80,14,-95,297,102,4,248,0,34
-43,-112,-68,78,12,-90,297,102,9,248,0,34
-43,-112,-68,78,12,-90,307,102,9,248,0,34
-34,-107,-73,70,19,-90,297,102,4,248,0,39
-34,-107,-73,70,19,-90,297,102,4,253,0,39
-34,-107,-73,70,19,-90,297,102,4,253,4,39
-34,-107,-73,70,19,-90,297,102,9,258,4,39
-34,-107,-73,70,19,-90,307,117,9,258,-4,39
-34,-102,-68,68,17,-85,307,117,14,258,-4,43
-34,-102,-68,68,17,-85,307,117,14,263,-4,43
-29,-102,-73,65,21,-87,312,122,19,263,0,43
-29,-112,-82,70,26,-97,312,117,34,263,0,48
-29,-107,-78,68,24,-92,307,126,34,268,4,48
-29,-107,-78,68,24,-92,307,126,34,268,4,48
-24,-102,-78,63,26,-90,312,131,39,268,4,53
-34,-102,-68,68,17,-85,312,146,48,273,4,53
-29,-97,-68,63,19,-82,312,146,48,273,9,58
-29,-97,-68,63,19,-82,312,146,53,278,9,58
-29,-97,-68,63,19,-82,317,151,53,287,9,58
-24,-92,-68,58,21,-80,312,156,53,278,9,63
-24,-92,-68,58,21,-80,312,161,58,283,14,63
-19,-92,-73,56,26,-82,312,165,58,283,14,63
-19,-82,-63,51,21,-73,307,170,63,283,14,63
-19,-82,-63,51,21,-73,307,175,68,292,14,73
-9,-82,-73,46,31,-78,307,180,73,302,19,78
-9,-78,-68,43,29,-73,307,185,78,307,29,78
-9,-73,-63,41,26,-68,307,190,82,312,34,78
-9,-73,-63,41,26,-68,312,200,87,317,39,82
0,-63,-63,31,31,-63,312,209,92,322,39,82
0,-63,-63,31,31,-63,312,214,102,326,43,92
0,-58,-58,29,29,-58,317,224,107,331,48,97
9,-43,-53,17,31,-48,317,219,112,346,63,92
9,-39,-48,14,29,-43,317,234,122,346,68,97
14,-34,-48,9,31,-41,317,244,131,351,73,102
19,-29,-48,4,34,-39,322,253,136,361,78,107
34,-24,-58,-4,46,-41,322,273,156,370,82,122
39,-19,-58,-9,48,-39,322,283,165,375,87,126
43,-14,-58,-14,51,-36,326,292,175,385,97,131
48,-9,-58,-19,53,-34,326,307,185,395,107,141
53,-9,-63,-21,58,-36,317,307,185,400,107,156
58,-4,-63,-26,61,-34,317,317,195,409,112,161
68,4,-63,-36,65,-29,317,326,204,414,122,170
73,14,-58,-43,65,-21,322,336,214,424,126,175
78,29,-48,-53,63,-9,322,356,224,439,141,180
82,39,-43,-61,63,-2,322,366,234,448,151,195
97,48,-48,-73,73,0,322,380,244,453,156,200
107,58,-48,-82,78,4,322,390,258,463,165,209
107,58,-48,-82,78,4,322,400,278,473,185,209
107,68,-39,-87,73,14,322,414,283,483,195,219
122,73,-48,-97,85,12,322,419,292,492,204,229
131,82,-48,-107,90,17,317,429,297,502,214,239
151,92,-58,-122,104,17,317,429,297,512,219,239
151,102,-48,-126,100,26,317,434,307,522,229,253
156,107,-48,-131,102,29,317,444,312,531,239,263
165,117,-48,-141,107,34,317,453,317,536,248,263
161,126,-34,-143,97,46,317,453,322,541,258,287
175,136,-39,-156,107,48,312,458,322,546,268,292
185,141,-43,-163,114,48,307,458,326,546,268,302
185,151,-34,-168,109,58,302,463,326,556,273,307
200,161,-39,-180,119,61,302,463,322,570,283,312
209,165,-43,-187,126,61,302,468,326,575,287,312
209,165,-43,-187,126,61,302,468,326,580,287,317
219,170,-48,-195,134,61,292,468,326,580,292,322
219,175,-43,-197,131,65,287,458,326,575,297,326
224,185,-39,-204,131,73,287,458,326,575,297,331
224,185,-39,-204,131,73,283,458,322,575,302,331
229,190,-39,-209,134,75,278,453,317,570,302,336
234,190,-43,-212,139,73,278,453,307,570,302,326
234,190,-43,-212,139,73,273,448,307,570,302,326
234,190,-43,-212,139,73,268,434,302,570,302,326
234,190,-43,-212,139,73,263,434,297,566,302,331
234,190,-43,-212,139,73,263,429,302,566,297,331
234,190,-43,-212,139,73,258,419,297,561,297,331
234,190,-43,-212,139,73,258,405,287,561,292,326
234,190,-43,-212,139,73,253,400,273,556,292,326
219,175,-43,-197,131,65,253,385,268,546,292,326
219,175,-43,-197,131,65,248,380,258,536,283,322
214,175,-39,-195,126,68,248,366,248,531,283,317
214,170,-43,-192,129,63,248,356,239,522,273,312
204,156,-48,-180,126,53,248,341,234,522,253,292
195,156,-39,-175,117,58,248,326,224,512,248,287
195,151,-43,-173,119,53,244,317,219,502,239,278
185,141,-43,-163,114,48,244,307,209,492,234,273
180,131,-48,-156,114,41,244,297,190,488,229,268
165,126,-39,-146,102,43,248,278,180,478,224,258
161,112,-48,-136,104,31,248,263,165,463,214,248
146,102,-43,-124,95,29,248,253,161,458,204,239
136,92,-43,-114,90,24,248,239,151,448,185,224
126,82,-43,-104,85,19,248,224,136,439,175,209
117,78,-39,-97,78,19,248,209,131,434,165,204
112,68,-43,-90,78,12,248,200,122,424,156,190
102,58,-43,-80,73,7,248,190,122,414,146,185
92,48,-43,-70,68,2,248,180,107,405,136,170
87,39,-48,-63,68,-4,248,170,102,395,131,165
78,29,-48,-53,63,-9,253,151,92,390,122,156
68,19,-48,-43,58,-14,244,146,82,375,107,146
58,9,-48,-34,53,-19,244,136,73,370,97,136
53,0,-53,-26,53,-26,248,122,63,361,87,126
43,-9,-53,-17,48,-31,248,117,53,351,78,122
34,-19,-53,-7,43,-36,248,117,48,351,82,112
24,-29,-53,2,39,-41,248,107,39,346,78,102
19,-39,-58,9,39,-48,248,97,34,341,63,92
19,-43,-63,12,41,-53,248,87,29,331,58,87
9,-53,-63,21,36,-58,253,78,29,322,43,78
0,-63,-63,31,31,-63,253,68,29,312,39,73
0,-63,-63,31,31,-63,253,68,24,307,34,73
-4,-68,-63,36,29,-65,253,63,24,307,29,68
-4,-73,-68,39,31,-70,253,58,19,307,34,73
-9,-78,-68,43,29,-73,253,53,9,307,29,68
-19,-78,-58,48,19,-68,253,48,4,302,29,63
-19,-82,-63,51,21,-73,248,43,0,297,24,63
-19,-87,-68,53,24,-78,248,43,-4,283,14,58
-24,-87,-63,56,19,-75,248,39,-4,283,9,58
-29,-92,-63,61,17,-78,248,34,-9,278,4,53
-34,-97,-63,65,14,-80,248,34,-14,273,0,48
-34,-97,-63,65,14,-80,248,29,-9,283,0,43
-34,-97,-63,65,14,-80,248,24,-9,278,0,43
-34,-97,-63,65,14,-80,253,24,-14,278,-4,43
-34,-102,-68,68,17,-85,253,24,-14,273,-9,39
-39,-107,-68,73,14,-87,244,14,-14,263,0,29
-39,-107,-68,73,14,-87,244,14,-19,263,0,29
-39,-107,-68,73,14,-87,244,9,-19,263,-4,29
-39,-107,-68,73,14,-87,244,9,-19,258,-4,29
-48,-112,-63,80,7,-87,248,9,-19,268,-14,24
-48,-117,-68,82,9,-92,248,9,-19,268,-14,24
-53,-117,-63,85,4,-90,248,9,-19,263,-14,24
-53,-112,-58,82,2,-85,248,9,-19,263,-14,24
-48,-112,-63,80,7,-87,248,0,-14,263,-9,19
-48,-112,-63,80,7,-87,248,0,-14,263,-9,19
-48,-112,-63,80,7,-87,248,0,-14,258,-9,19
-48,-112,-63,80,7,-87,248,0,-9,258,-9,19
-53,-117,-63,85,4,-90,248,9,-19,258,-14,19
-53,-117,-63,85,4,-90,248,4,-19,258,-14,19
-53,-112,-58,82,2,-85,248,4,-19,258,-14,19
-53,-112,-58,82,2,-85,248,9,-19,258,-14,19
-53,-112,-58,82,2,-85,244,0,-9,258,-19,19
-53,-112,-58,82,2,-85,244,0,-9,258,-19,19
-58,-112,-53,85,-2,-82,248,4,-9,258,-19,24
-58,-117,-58,87,0,-87,248,9,-9,258,-19,24
-68,-117,-48,92,-9,-82,248,9,4,263,-9,24
-68,-112,-43,90,-12,-78,248,9,4,263,-9,24
-68,-112,-43,90,-12,-78,253,9,4,263,-9,24
-68,-107,-39,87,-14,-73,253,9,4,263,-4,24
-68,-107,-39,87,-14,-73,253,9,4,263,-4,24
-63,-107,-43,85,-9,-75,253,14,9,263,-4,24
-63,-107,-43,85,-9,-75,258,14,9,263,-4,29
-63,-107,-43,85,-9,-75,258,14,14,268,-4,29
-63,-107,-43,85,-9,-75,248,9,9,258,-4,29
-63,-107,-43,85,-9,-75,248,14,9,263,-4,29
-63,-102,-39,82,-12,-70,248,14,14,268,-4,29
-63,-102,-39,82,-12,-70,248,14,14,268,-4,29
-63,-92,-29,78,-17,-61,239,14,14,278,4,39
-63,-92,-29,78,-17,-61,239,14,14,278,4,43
-63,-92,-29,78,-17,-61,239,19,19,283,9,43
-63,-92,-29,78,-17,-61,239,19,19,283,19,43
-58,-92,-34,75,-12,-63,239,19,24,283,19,43
-58,-87,-29,73,-14,-58,239,24,29,283,19,43
-58,-87,-29,73,-14,-58,239,24,29,283,19,43
-58,-87,-29,73,-14,-58,239,19,29,287,19,48
-58,-82,-24,70,-17,-53,229,19,29,292,24,48
-58,-82,-24,70,-17,-53,229,19,29,292,24,53
-58,-78,-19,68,-19,-48,229,19,29,292,24,53
-58,-73,-14,65,-21,-43,229,19,29,292,29,53
-58,-73,-14,65,-21,-43,229,9,39,297,29,58
-58,-73,-14,65,-21,-43,224,14,39,297,29,58
-58,-73,-14,65,-21,-43,224,14,39,297,34,58
-53,-73,-19,63,-17,-46,224,14,39,297,34,58
-53,-73,-19,63,-17,-46,214,4,39,307,43,63
-53,-73,-19,63,-17,-46,214,4,39,307,48,68
-53,-73,-19,63,-17,-46,214,4,39,307,48,68
-53,-73,-19,63,-17,-46,214,4,39,312,48,68
-43,-73,-29,58,-7,-51,204,4,29,312,48,68
-39,-68,-29,53,-4,-48,204,4,29,312,53,68
-39,-68,-29,53,-4,-48,204,0,29,312,53,68
-39,-68,-29,53,-4,-48,204,0,29,312,53,68
-39,-68,-29,53,-4,-48,204,0,29,302,48,68
-39,-68,-29,53,-4,-48,204,0,24,302,48,68
-39,-68,-29,53,-4,-48,204,0,24,302,48,68
-39,-68,-29,53,-4,-48,200,0,24,302,48,68
-48,-68,-19,58,-14,-43,190,-4,34,312,48,68
-43,-68,-24,56,-9,-46,190,-4,29,307,48,68
-43,-73,-29,58,-7,-51,190,-9,24,307,48,63
-43,-73,-29,58,-7,-51,190,-9,19,307,48,63
-43,-63,-19,53,-12,-41,190,-24,19,307,58,63
-43,-63,-19,53,-12,-41,190,-24,19,307,53,63
-43,-63,-19,53,-12,-41,190,-24,19,307,53,63
-43,-63,-19,53,-12,-41,185,-29,19,307,53,63
-34,-63,-29,48,-2,-46,175,-29,4,297,43,63
-34,-63,-29,48,-2,-46,175,-29,4,292,43,63
-34,-63,-29,48,-2,-46,180,-34,4,292,43,63
-34,-63,-29,48,-2,-46,180,-34,0,292,43,63
-34,-63,-29,48,-2,-46,175,-39,0,292,43,63
-34,-63,-29,48,-2,-46,175,-39,-9,283,39,58
-39,-68,-29,53,-4,-48,170,-43,-9,283,39,58
-39,-68,-29,53,-4,-48,170,-43,-9,283,39,58
-39,-78,-39,58,0,-58,170,-43,-19,292,48,58
-39,-78,-39,58,0,-58,165,-48,-19,292,43,58
-39,-78,-39,58,0,-58,165,-48,-19,287,43,58
-39,-78,-39,58,0,-58,165,-48,-19,287,43,58
-48,-78,-29,63,-9,-53,165,-48,-24,278,43,48
-48,-82,-34,65,-7,-58,165,-58,-24,278,43,43
-48,-87,-39,68,-4,-63,165,-63,-24,278,39,43
-48,-87,-39,68,-4,-63,165,-63,-24,273,39,39
-48,-82,-34,65,-7,-58,156,-68,-34,273,39,43
-48,-82,-34,65,-7,-58,156,-68,-34,268,34,43
-48,-87,-39,68,-4,-63,156,-73,-39,268,34,43
-48,-87,-39,68,-4,-63,156,-73,-39,268,34,39
-48,-78,-29,63,-9,-53,156,-73,-39,263,34,39
-48,-82,-34,65,-7,-58,156,-73,-39,263,29,39
-48,-82,-34,65,-7,-58,156,-73,-43,263,29,39
-48,-87,-39,68,-4,-63,151,-78,-43,263,29,39
-48,-78,-29,63,-9,-53,151,-87,-43,253,34,39
-48,-78,-29,63,-9,-53,151,-87,-48,253,34,39
-48,-78,-29,63,-9,-53,151,-87,-48,253,29,39
-48,-78,-29,63,-9,-53,151,-87,-48,258,29,39
-48,-82,-34,65,-7,-58,141,-87,-39,258,29,39
-48,-82,-34,65,-7,-58,146,-87,-39,258,29,39
-48,-87,-39,68,-4,-63,146,-92,-39,258,29,34
-48,-87,-39,68,-4,-63,146,-92,-39,248,24,34
-48,-78,-29,63,-9,-53,151,-92,-43,258,24,34
-48,-78,-29,63,-9,-53,151,-92,-43,258,24,34
-48,-78,-29,63,-9,-53,151,-92,-43,263,24,34
-58,-78,-19,68,-19,-48,151,-92,-43,263,29,39
-58,-78,-19,68,-19,-48,151,-92,-43,263,29,39
-48,-78,-29,63,-9,-53,151,-92,-43,263,29,39
-48,-78,-29,63,-9,-53,146,-92,-48,263,29,39
-53,-78,-24,65,-14,-51,146,-97,-48,263,29,34
-53,-78,-24,65,-14,-51,151,-97,-39,263,29,34
-53,-78,-24,65,-14,-51,151,-97,-39,263,24,34
-53,-78,-24,65,-14,-51,151,-97,-39,263,24,34
-53,-82,-29,68,-12,-56,151,-97,-39,263,19,34
-53,-87,-34,70,-9,-61,146,-97,-39,253,19,24
-53,-87,-34,70,-9,-61,146,-97,-39,248,19,24
-53,-87,-34,70,-9,-61,146,-97,-39,248,19,24
-53,-87,-34,70,-9,-61,146,-97,-39,244,19,24
-53,-87,-34,70,-9,-61,151,-102,-29,244,19,24
-53,-87,-34,70,-9,-61,151,-102,-29,244,19,24
-58,-82,-24,70,-17,-53,151,-107,-29,248,19,29
-58,-82,-24,70,-17,-53,151,-107,-29,248,19,29
-53,-82,-29,68,-12,-56,151,-107,-29,248,24,29
-53,-82,-29,68,-12,-56,151,-107,-34,248,24,29
-58,-82,-24,70,-17,-53,151,-107,-34,248,24,29
-58,-87,-29,73,-14,-58,151,-107,-34,248,19,24
-58,-87,-29,73,-14,-58,151,-107,-34,244,19,24
-58,-82,-24,70,-17,-53,146,-107,-34,244,19,24
-58,-82,-24,70,-17,-53,146,-107,-34,244,19,19
-58,-82,-24,70,-17,-53,146,-107,-34,244,14,19
-58,-82,-24,70,-17,-53,141,-107,-34,234,4,29
-58,-82,-24,70,-17,-53,141,-107,-29,234,4,29
-58,-87,-29,73,-14,-58,141,-107,-29,234,9,29
-58,-87,-29,73,-14,-58,141,-107,-29,234,9,29
-58,-82,-24,70,-17,-53,141,-107,-19,244,9,29
-58,-82,-24,70,-17,-53,141,-112,-24,244,9,29
-53,-82,-29,68,-12,-56,141,-112,-24,244,9,29
-53,-82,-29,68,-12,-56,141,-112,-24,244,9,24
-53,-73,-19,63,-17,-46,131,-102,-24,244,9,24
-53,-73,-19,63,-17,-46,131,-102,-24,244,9,24
-53,-73,-19,63,-17,-46,131,-102,-24,244,9,29
-53,-73,-19,63,-17,-46,131,-102,-19,244,9,29
-58,-73,-14,65,-21,-43,122,-102,-19,234,9,19
-58,-78,-19,68,-19,-48,122,-102,-19,234,4,19
-58,-78,-19,68,-19,-48,122,-102,-19,234,4,19
-58,-78,-19,68,-19,-48,122,-102,-19,234,4,19
-58,-78,-19,68,-19,-48,112,-102,-19,224,4,19
-58,-78,-19,68,-19,-48,112,-102,-19,224,4,19
-58,-78,-19,68,-19,-48,112,-102,-19,224,0,14
-58,-78,-19,68,-19,-48,112,-102,-19,224,0,14
-58,-78,-19,68,-19,-48,102,-102,-19,224,0,14
-58,-78,-19,68,-19,-48,102,-102,-19,224,4,14
-58,-78,-19,68,-19,-48,102,-102,-19,224,4,14
-58,-78,-19,68,-19,-48,102,-102,-19,224,4,19
-58,-78,-19,68,-19,-48,92,-112,-29,234,4,19
-58,-78,-19,68,-19,-48,92,-112,-29,234,4,19
-58,-78,-19,68,-19,-48,92,-112,-29,234,4,19
-58,-78,-19,68,-19,-48,97,-112,-29,234,4,19
-58,-78,-19,68,-19,-48,97,-112,-29,224,4,19
-58,-78,-19,68,-19,-48,92,-112,-29,224,4,19
-58,-78,-19,68,-19,-48,87,-112,-24,224,4,19
-58,-73,-14,65,-21,-43,82,-112,-24,224,4,19
-58,-63,-4,61,-26,-34,82,-112,-24,224,14,19
-63,-63,0,63,-31,-31,82,-112,-29,224,4,19
-63,-58,4,61,-34,-26,73,-107,-29,229,14,19
-58,-68,-9,63,-24,-39,78,-107,-29,224,9,19
-58,-68,-9,63,-24,-39,68,-117,-29,224,19,19
-58,-68,-9,63,-24,-39,68,-117,-29,224,19,19
-58,-68,-9,63,-24,-39,68,-117,-29,224,19,19
-58,-68,-9,63,-24,-39,68,-117,-29,224,19,19
-58,-53,4,56,-31,-24,68,-117,-29,234,19,19
-53,-48,4,51,-29,-21,68,-112,-29,239,19,19
-43,-43,0,43,-21,-21,73,-97,-24,239,24,24
-39,-39,0,39,-19,-19,78,-92,-14,248,29,24
-34,-24,9,29,-21,-7,87,-87,-19,253,39,34
-34,-14,19,24,-26,2,87,-87,-9,258,43,34
-29,-9,19,19,-24,4,82,-82,-4,263,48,43
-24,0,24,12,-24,12,78,-78,0,268,53,48
-24,14,39,4,-31,26,87,-73,4,263,63,48
-24,14,39,4,-31,26,87,-73,9,268,68,48
-19,14,34,2,-26,24,87,-73,9,273,68,53
-19,19,39,0,-29,29,87,-73,9,273,68,53
-24,19,43,2,-34,31,87,-68,0,273,68,53
-24,19,43,2,-34,31,87,-68,4,273,68,53
-24,24,48,0,-36,36,87,-68,4,273,68,53
-24,24,48,0,-36,36,82,-68,14,278,73,58
-24,24,48,0,-36,36,82,-73,9,283,82,48
-24,39,63,-7,-43,51,82,-68,19,287,92,58
-19,53,73,-17,-46,63,82,-68,34,297,102,68
-14,58,73,-21,-43,65,78,-68,34,302,107,73
-14,68,82,-26,-48,75,58,-87,24,292,97,73
-4,73,78,-34,-41,75,29,-97,9,292,102,73
0,73,73,-36,-36,73,29,-97,9,292,102,78
4,78,73,-41,-34,75,29,-97,9,292,102,78
19,78,58,-48,-19,68,14,-97,9,292,102,68
19,68,48,-43,-14,58,4,-97,9,287,102,68
24,48,24,-36,0,36,4,-97,4,283,97,63
29,39,9,-34,9,24,4,-92,4,283,97,63
34,39,4,-36,14,21,19,-92,-4,283,107,73
39,34,-4,-36,21,14,19,-92,-9,283,102,73
39,29,-9,-34,24,9,14,-92,-19,278,102,68
39,14,-24,-26,31,-4,14,-97,-34,273,92,63
39,4,-34,-21,36,-14,4,-107,-53,263,78,58
39,-4,-43,-17,41,-24,0,-126,-73,248,68,48
39,-14,-53,-12,46,-34,-4,-141,-78,239,63,43
34,-14,-48,-9,41,-31,-4,-141,-82,234,58,43
19,-19,-39,0,29,-29,-14,-151,-97,224,43,29
4,-24,-29,9,17,-26,-14,-156,-97,219,43,29
0,-29,-29,14,14,-29,-9,-156,-97,214,39,24
-4,-29,-24,17,9,-26,-4,-151,-97,214,34,19
-9,-29,-19,19,4,-24,9,-151,-102,214,39,14
-24,-39,-14,31,-4,-26,9,-151,-102,209,34,9
-39,-48,-9,43,-14,-29,24,-151,-107,200,29,0
-58,-58,0,58,-29,-29,29,-151,-107,200,19,-4
-58,-63,-4,61,-26,-34,29,-156,-107,195,9,-14
-58,-63,-4,61,-26,-34,29,-161,-112,190,4,-14
-58,-73,-14,65,-21,-43,29,-165,-112,190,4,-19
-63,-73,-9,68,-26,-41,29,-170,-122,185,0,-24
-73,-73,0,73,-36,-36,29,-170,-122,170,-4,-29
-73,-78,-4,75,-34,-41,24,-170,-126,170,-9,-34
-73,-78,-4,75,-34,-41,24,-170,-126,165,-9,-34
-73,-78,-4,75,-34,-41,19,-170,-126,161,-14,-34
-63,-82,-19,73,-21,-51,19,-175,-131,161,-14,-34
-63,-82,-19,73,-21,-51,19,-175,-131,161,-14,-34
-63,-87,-24,75,-19,-56,19,-175,-131,161,-14,-39
-63,-87,-24,75,-19,-56,19,-175,-131,161,-14,-39
-63,-97,-34,80,-14,-65,29,-180,-126,161,-24,-39
-63,-97,-34,80,-14,-65,29,-180,-126,161,-24,-39
-68,-97,-29,82,-19,-63,29,-180,-126,161,-24,-34
-68,-92,-24,80,-21,-58,29,-175,-126,165,-19,-34
-73,-92,-19,82,-26,-56,19,-175,-122,165,-19,-34
-73,-92,-19,82,-26,-56,19,-175,-122,165,-19,-34
-73,-87,-14,80,-29,-51,24,-175,-122,165,-19,-34
-73,-87,-14,80,-29,-51,24,-175,-122,165,-19,-34
-73,-87,-14,80,-29,-51,24,-175,-112,156,-29,-34
-73,-87,-14,80,-29,-51,24,-175,-112,156,-29,-34
-73,-87,-14,80,-29,-51,24,-175,-112,156,-29,-34
-73,-87,-14,80,-29,-51,24,-175,-112,156,-29,-34
-73,-87,-14,80,-29,-51,24,-175,-102,156,-29,-34
-73,-87,-14,80,-29,-51,29,-170,-107,156,-29,-29
-78,-87,-9,82,-34,-48,39,-161,-92,165,-29,-29
-82,-78,4,80,-43,-36,48,-141,-73,175,-29,-34
-87,-73,14,80,-51,-29,78,-112,-39,190,-19,-34
-97,-63,34,80,-65,-14,102,-68,-4,209,-14,-34
-82,-58,24,70,-53,-17,122,-29,39,234,4,-24
-78,-39,39,58,-58,0,146,29,92,268,34,-9
-78,-14,63,46,-70,24,190,107,170,326,78,29
-58,9,68,24,-63,39,244,229,278,405,146,78
-24,34,58,-4,-41,46,307,366,414,517,234,126
19,43,24,-31,-2,34,336,458,507,629,336,209
97,82,-14,-90,56,34,317,512,566,756,453,312
219,131,-87,-175,153,21,292,585,644,888,605,444
341,200,-141,-270,241,29,292,692,732,1044,756,580
478,258,-219,-368,348,19,322,814,834,1190,912,707
610,356,-253,-483,431,51,341,971,966,1356,1083,858
732,507,-224,-619,478,141,317,1073,1102,1542,1259,1010
824,683,-141,-753,483,270,224,1063,1171,1698,1429,1171
917,844,-73,-880,495,385,82,961,1122,1771,1542,1298
985,941,-43,-963,514,448,-82,829,1000,1712,1532,1342
995,907,-87,-951,541,409,-229,639,771,1473,1342,1224
893,790,-102,-841,497,344,-366,326,424,1151,1073,1044
722,683,-39,-702,380,322,-527,-122,-4,805,795,868
566,527,-39,-546,302,244,-702,-595,-473,424,488,649
419,361,-58,-390,239,151,-834,-1029,-922,14,136,395
209,263,53,-236,78,158,-922,-1464,-1322,-361,-180,151
39,204,165,-122,-63,185,-980,-1771,-1595,-605,-409,-19
-24,87,112,-31,-68,100,-1015,-1869,-1708,-732,-531,-136
-63,-73,-9,68,-26,-41,-1015,-1820,-1732,-819,-644,-268
-117,-224,-107,170,-4,-165,-985,-1790,-1771,-893,-741,-380
-141,-326,-185,234,21,-256,-951,-1747,-1776,-927,-785,-439
-122,-375,-253,248,65,-314,-951,-1629,-1693,-888,-775,-453
-87,-375,-287,231,100,-331,-941,-1459,-1542,-800,-736,-444
-82,-380,-297,231,107,-339,-883,-1288,-1395,-727,-673,-419
-87,-380,-292,234,102,-336,-790,-1146,-1259,-658,-629,-405
-82,-366,-283,224,100,-324,-678,-1034,-1112,-566,-561,-370
-73,-322,-248,197,87,-285,-585,-907,-961,-458,-483,-331
-48,-263,-214,156,82,-239,-478,-751,-790,-351,-395,-263
-29,-195,-165,112,68,-180,-390,-614,-634,-234,-312,-195
-29,-141,-112,85,41,-126,-312,-517,-497,-136,-239,-146
-34,-97,-63,65,14,-80,-258,-444,-414,-73,-190,-112
-43,-92,-48,68,2,-70,-204,-390,-346,-43,-170,-107
-43,-92,-48,68,2,-70,-151,-326,-283,-14,-146,-102
-53,-82,-29,68,-12,-56,-107,-278,-224,19,-117,-87
-53,-78,-24,65,-14,-51,-63,-224,-170,63,-87,-63
-53,-87,-34,70,-9,-61,-29,-185,-141,87,-68,-48
-58,-87,-29,73,-14,-58,-4,-161,-107,112,-53,-43
-68,-82,-14,75,-26,-48,4,-146,-87,136,-43,-39
-63,-68,-4,65,-29,-36,4,-151,-78,131,-39,-34
-63,-68,-4,65,-29,-36,0,-146,-73,131,-39,-34
-63,-63,0,63,-31,-31,0,-156,-82,131,-39,-43
-68,-63,4,65,-36,-29,4,-146,-78,136,-34,-43
-68,-63,4,65,-36,-29,9,-141,-73,141,-34,-43
-68,-63,4,65,-36,-29,14,-136,-58,146,-24,-39
-68,-63,4,65,-36,-29,29,-122,-48,146,-19,-29
-63,-58,4,61,-34,-26,29,-117,-34,156,-14,-24
-63,-53,9,58,-36,-21,29,-112,-34,156,-14,-24
-63,-53,9,58,-36,-21,29,-112,-34,161,-9,-24
-63,-63,0,63,-31,-31,34,-117,-29,161,-9,-19
-63,-63,0,63,-31,-31,39,-117,-29,161,-4,-19
-63,-63,0,63,-31,-31,39,-112,-29,165,-4,-19
-63,-63,0,63,-31,-31,39,-107,-24,165,-4,-19
-58,-63,-4,61,-26,-34,39,-107,-19,170,-4,-14
-58,-63,-4,61,-26,-34,43,-107,-14,170,0,-14
-58,-63,-4,61,-26,-34,48,-102,-14,170,0,-14
-58,-58,0,58,-29,-29,48,-97,-9,170,0,-14
-58,-58,0,58,-29,-29,48,-97,-19,175,0,-14
-58,-58,0,58,-29,-29,48,-97,-19,175,4,-14
-58,-58,0,58,-29,-29,48,-97,-19,175,4,-9
-58,-58,0,58,-29,-29,48,-97,-14,180,9,-9
-68,-58,9,63,-39,-24,48,-87,-14,180,19,-9
-68,-63,4,65,-36,-29,48,-87,-9,180,19,-9
-68,-63,4,65,-36,-29,48,-87,-4,185,19,-9
-63,-58,4,61,-34,-26,48,-87,-4,185,24,-9
-53,-58,-4,56,-24,-31,48,-73,-4,190,24,-4
-53,-58,-4,56,-24,-31,43,-73,-4,190,29,-4
-53,-53,0,53,-26,-26,43,-73,0,190,29,-4
-53,-53,0,53,-26,-26,53,-73,0,190,29,-4
-53,-48,4,51,-29,-21,43,-73,4,190,29,0
-53,-48,4,51,-29,-21,43,-73,4,195,29,0
-53,-48,4,51,-29,-21,43,-73,4,195,34,0
-53,-48,4,51,-29,-21,43,-73,9,200,34,0
-53,-48,4,51,-29,-21,43,-68,9,190,34,0
-53,-43,9,48,-31,-17,43,-68,14,190,34,4
-53,-43,9,48,-31,-17,43,-68,14,195,34,4
-48,-43,4,46,-26,-19,48,-63,19,195,39,4
-48,-43,4,46,-26,-19,48,-58,24,195,39,9
-48,-39,9,43,-29,-14,43,-48,24,200,43,9
-48,-39,9,43,-29,-14,43,-48,24,200,43,9
-43,-34,9,39,-26,-12,48,-43,29,200,43,14
-53,-34,19,43,-36,-7,48,-39,39,204,43,14
-48,-29,19,39,-34,-4,48,-39,39,204,48,19
-48,-29,19,39,-34,-4,48,-39,43,209,48,19
-48,-29,19,39,-34,-4,53,-34,43,219,48,19
-43,-24,19,34,-31,-2,58,-19,53,219,48,24
-43,-24,19,34,-31,-2,58,-14,58,224,53,24
-39,-24,14,31,-26,-4,58,-9,58,224,53,24
-39,-14,24,26,-31,4,53,-4,63,224,53,24
-39,-14,24,26,-31,4,53,0,68,224,53,24
-29,-14,14,21,-21,0,53,4,73,234,58,29
-29,-9,19,19,-24,4,53,9,78,239,68,29
-29,-4,24,17,-26,9,53,14,82,244,73,29
-19,-4,14,12,-17,4,68,24,87,248,78,43
-9,4,14,2,-12,9,68,34,92,253,78,43
-9,4,14,2,-12,9,68,39,102,258,82,53
-9,9,19,0,-14,14,73,48,107,263,87,58
-9,4,14,2,-12,9,73,53,112,268,92,63
-9,9,19,0,-14,14,73,68,122,268,97,68
-4,14,19,-4,-12,17,73,78,131,273,102,73
0,19,19,-9,-9,19,78,87,136,283,107,78
4,34,29,-19,-12,31,78,97,136,283,112,82
9,39,29,-24,-9,34,78,107,146,287,117,87
14,43,29,-29,-7,36,82,117,156,297,126,92
19,48,29,-34,-4,39,82,131,165,307,136,102
34,58,24,-46,4,41,82,151,185,312,146,97
39,63,24,-51,7,43,82,161,195,322,151,102
48,73,24,-61,12,48,82,170,204,326,161,112
53,82,29,-68,12,56,87,180,214,336,165,117
58,87,29,-73,14,58,78,200,214,351,170,122
63,97,34,-80,14,65,78,209,224,361,180,136
78,107,29,-92,24,68,78,224,234,366,185,141
87,117,29,-102,29,73,78,234,248,375,195,151
87,126,39,-107,24,82,78,244,268,385,204,161
87,136,48,-112,19,92,78,258,273,395,214,170
102,141,39,-122,31,90,78,263,283,405,224,180
112,151,39,-131,36,95,73,273,287,414,234,190
131,161,29,-146,51,95,73,283,287,414,239,190
131,170,39,-151,46,104,73,287,297,424,248,204
136,175,39,-156,48,107,73,297,302,434,258,214
146,185,39,-165,53,112,73,307,307,439,268,214
151,195,43,-173,53,119,63,307,322,444,278,229
165,204,39,-185,63,122,58,312,322,448,287,234
175,209,34,-192,70,122,53,312,326,448,287,244
175,219,43,-197,65,131,48,317,326,458,292,248
180,219,39,-200,70,129,48,317,322,453,302,253
190,224,34,-207,78,129,48,322,326,458,307,253
190,224,34,-207,78,129,48,322,326,463,307,258
200,229,29,-214,85,129,39,322,326,463,312,263
200,234,34,-217,82,134,43,322,336,468,307,258
204,244,39,-224,82,141,43,322,336,468,307,263
204,244,39,-224,82,141,39,322,331,468,312,263
209,248,39,-229,85,143,34,317,326,463,312,268
214,248,34,-231,90,141,24,307,317,463,322,268
214,248,34,-231,90,141,19,302,317,463,322,268
214,248,34,-231,90,141,14,287,312,463,322,268
214,248,34,-231,90,141,9,287,307,458,322,273
214,248,34,-231,90,141,9,283,302,448,307,273
214,248,34,-231,90,141,4,273,297,444,307,273
214,248,34,-231,90,141,4,258,287,444,302,268
214,248,34,-231,90,141,0,253,273,439,302,268
209,244,34,-226,87,139,-9,229,268,429,302,258
209,244,34,-226,87,139,-14,224,258,419,292,253
204,244,39,-224,82,141,-14,209,248,414,292,248
204,239,34,-222,85,136,-14,200,239,405,283,244
195,214,19,-204,87,117,-14,185,234,395,263,234
185,214,29,-200,78,122,-14,170,224,385,258,229
185,209,24,-197,80,117,-19,161,219,375,248,219
175,200,24,-187,75,112,-19,151,209,366,244,214
161,190,29,-175,65,109,-19,131,190,361,229,209
146,185,39,-165,53,112,-14,112,180,351,224,200
141,170,29,-156,56,100,-14,97,165,336,214,190
126,161,34,-143,46,97,-14,87,161,331,204,180
117,151,34,-134,41,92,-24,73,151,312,195,165
107,141,34,-124,36,87,-24,58,136,302,185,151
97,136,39,-117,29,87,-24,43,131,297,175,146
92,126,34,-109,29,80,-24,34,122,287,165,131
82,117,34,-100,24,75,-24,24,112,287,156,126
73,107,34,-90,19,70,-24,14,97,278,146,112
68,97,29,-82,19,63,-24,4,92,268,141,107
58,87,29,-73,14,58,-19,-14,82,263,131,97
48,78,29,-63,9,53,-19,-29,73,239,117,87
39,68,29,-53,4,48,-19,-39,63,234,107,78
34,58,24,-46,4,41,-14,-53,53,224,97,68
24,48,24,-36,0,36,-14,-58,43,214,87,63
14,39,24,-26,-4,31,-14,-58,48,214,92,63
4,29,24,-17,-9,26,-14,-68,39,209,87,53
0,19,19,-9,-9,19,-14,-78,34,204,73,43
0,14,14,-7,-7,14,-14,-87,29,195,68,39
-9,14,24,-2,-17,19,-9,-87,9,185,63,29
-19,4,24,7,-21,14,-9,-97,9,175,58,24
-19,4,24,7,-21,14,-9,-97,4,170,53,24
-24,0,24,12,-24,12,-9,-102,4,170,48,19
-24,-14,9,19,-17,-2,-9,-107,0,161,43,14
-29,-19,9,24,-19,-4,-9,-112,-9,161,39,9
-39,-19,19,29,-29,0,-9,-117,-14,156,39,4
-39,-24,14,31,-26,-4,-14,-122,-19,151,34,4
-39,-19,19,29,-29,0,-14,-122,-24,146,34,0
-43,-19,24,31,-34,2,-14,-126,-24,146,29,0
-48,-24,24,36,-36,0,-14,-131,-29,141,24,-4
-53,-29,24,41,-39,-2,-14,-131,-34,136,19,-9
-53,-39,14,46,-34,-12,-14,-136,-29,136,29,-14
-53,-39,14,46,-34,-12,-14,-141,-29,131,29,-14
-53,-39,14,46,-34,-12,-9,-141,-34,131,24,-14
-53,-43,9,48,-31,-17,-9,-141,-34,126,19,-19
-58,-39,19,48,-39,-9,-9,-141,-34,126,9,-19
-58,-39,19,48,-39,-9,-9,-141,-39,126,9,-19
-58,-39,19,48,-39,-9,-9,-146,-39,126,4,-19
-58,-39,19,48,-39,-9,-9,-146,-39,122,4,-19
-68,-43,24,56,-46,-9,-14,-146,-39,122,4,-24
-68,-48,19,58,-43,-14,-14,-146,-39,122,4,-24
-73,-48,24,61,-48,-12,-14,-146,-39,117,4,-24
-73,-43,29,58,-51,-7,-14,-146,-39,117,4,-24
-68,-43,24,56,-46,-9,-14,-156,-43,117,9,-29
-68,-43,24,56,-46,-9,-14,-156,-43,117,9,-29
-68,-43,24,56,-46,-9,-14,-156,-43,112,9,-29
-68,-43,24,56,-46,-9,-14,-156,-39,112,9,-29
-73,-48,24,61,-48,-12,-14,-156,-48,112,4,-29
-73,-48,24,61,-48,-12,-14,-161,-48,112,4,-29
-73,-43,29,58,-51,-7,-14,-161,-48,112,4,-29
-73,-43,29,58,-51,-7,-14,-156,-48,112,4,-29
-73,-43,29,58,-51,-7,-9,-156,-39,112,9,-29
-73,-43,29,58,-51,-7,-9,-156,-39,112,9,-29
-78,-43,34,61,-56,-4,-4,-151,-39,112,9,-24
-78,-48,29,63,-53,-9,-4,-146,-39,112,9,-24
-78,-48,29,63,-53,-9,-14,-146,-34,117,9,-34
-78,-43,34,61,-56,-4,-14,-146,-34,117,9,-34
-78,-43,34,61,-56,-4,-9,-146,-34,117,9,-34
-78,-39,39,58,-58,0,-9,-146,-34,117,14,-34
-78,-39,39,58,-58,0,-9,-146,-34,117,14,-34
-73,-39,34,56,-53,-2,-9,-141,-29,117,14,-34
-73,-39,34,56,-53,-2,-4,-141,-29,117,14,-29
-73,-39,34,56,-53,-2,-4,-141,-24,122,14,-29
-73,-39,34,56,-53,-2,-4,-136,-19,112,14,-29
-73,-39,34,56,-53,-2,-4,-131,-19,117,14,-29
-73,-34,39,53,-56,2,-4,-131,-14,122,14,-29
-73,-34,39,53,-56,2,-4,-131,-14,122,14,-29
-73,-34,39,53,-56,2,-4,-122,-4,122,14,-29
-73,-34,39,53,-56,2,-4,-122,-4,122,14,-24
-73,-34,39,53,-56,2,-4,-117,0,126,19,-24
-73,-34,39,53,-56,2,-4,-117,0,126,29,-24
-78,-34,43,56,-61,4,-4,-117,-4,136,29,-14
-78,-29,48,53,-63,9,-4,-112,0,136,29,-14
-78,-29,48,53,-63,9,-4,-112,0,136,29,-14
-78,-29,48,53,-63,9,-4,-117,0,141,29,-9
-78,-24,53,51,-65,14,-4,-117,0,136,34,-19
-78,-24,53,51,-65,14,-4,-117,0,136,34,-14
-78,-19,58,48,-68,19,-4,-117,0,136,34,-14
-78,-14,63,46,-70,24,-4,-117,0,136,39,-14
-68,-14,53,41,-61,19,-4,-126,0,141,29,-9
-68,-14,53,41,-61,19,-9,-122,0,141,29,-9
-68,-14,53,41,-61,19,-9,-122,0,141,34,-9
-63,-14,48,39,-56,17,-9,-122,0,141,34,-9
-63,-14,48,39,-56,17,-9,-122,0,141,34,-4
-63,-14,48,39,-56,17,-9,-122,0,141,39,0
-63,-14,48,39,-56,17,-9,-122,0,141,39,0
-63,-14,48,39,-56,17,-9,-122,0,146,39,0
-63,-24,39,43,-51,7,-9,-122,9,146,39,0
-58,-19,39,39,-48,9,-9,-122,9,146,43,0
-58,-19,39,39,-48,9,-9,-126,9,146,43,0
-58,-19,39,39,-48,9,-9,-126,9,146,43,0
-58,-9,48,34,-53,19,-19,-126,0,146,39,0
-58,-9,48,34,-53,19,-19,-126,-4,146,39,0
-58,-9,48,34,-53,19,-19,-126,-4,146,39,0
-58,-9,48,34,-53,19,-24,-126,-4,146,39,0
-58,-9,48,34,-53,19,-14,-131,-4,136,48,0
-53,-9,43,31,-48,17,-14,-131,-9,131,48,0
-53,-14,39,34,-46,12,-14,-136,-14,131,48,-4
-53,-14,39,34,-46,12,-14,-136,-19,131,48,-4
-53,-14,39,34,-46,12,-24,-141,-19,131,48,-4
-53,-14,39,34,-46,12,-24,-141,-19,131,43,-4
-53,-14,39,34,-46,12,-24,-141,-19,131,43,-4
-53,-14,39,34,-46,12,-29,-146,-19,131,43,-4
-53,-24,29,39,-41,2,-29,-146,-24,122,34,-14
-53,-24,29,39,-41,2,-29,-146,-24,117,34,-14
-53,-24,29,39,-41,2,-24,-151,-24,117,34,-14
-53,-24,29,39,-41,2,-24,-151,-29,117,34,-14
-53,-34,19,43,-36,-7,-29,-156,-29,117,43,-14
-53,-34,19,43,-36,-7,-29,-156,-39,107,39,-19
-58,-39,19,48,-39,-9,-34,-161,-39,107,39,-19
-58,-39,19,48,-39,-9,-34,-161,-39,107,39,-19
-68,-29,39,48,-53,4,-34,-170,-39,107,29,-19
-68,-29,39,48,-53,4,-39,-175,-39,107,24,-19
-68,-29,39,48,-53,4,-39,-175,-39,102,24,-19
-68,-29,39,48,-53,4,-39,-175,-39,102,24,-19
-68,-29,39,48,-53,4,-29,-165,-43,102,24,-19
-68,-34,34,51,-51,0,-29,-175,-43,102,24,-24
-68,-39,29,53,-48,-4,-29,-180,-43,102,19,-24
-68,-39,29,53,-48,-4,-29,-180,-43,97,19,-29
-68,-34,34,51,-51,0,-39,-175,-43,97,29,-24
-68,-34,34,51,-51,0,-39,-175,-43,92,24,-24
-68,-39,29,53,-48,-4,-39,-180,-48,92,24,-24
-68,-39,29,53,-48,-4,-39,-180,-48,92,24,-29
-68,-29,39,48,-53,4,-39,-180,-58,87,24,-19
-68,-34,34,51,-51,0,-39,-180,-58,87,19,-19
-68,-34,34,51,-51,0,-39,-180,-63,87,19,-19
-68,-39,29,53,-48,-4,-43,-185,-63,87,19,-19
-58,-39,19,48,-39,-9,-43,-185,-63,78,24,-29
-58,-39,19,48,-39,-9,-43,-185,-68,78,24,-29
-58,-39,19,48,-39,-9,-43,-185,-68,78,19,-29
-58,-39,19,48,-39,-9,-43,-185,-68,82,19,-29
-68,-43,24,56,-46,-9,-43,-195,-68,82,9,-29
-68,-43,24,56,-46,-9,-39,-195,-68,82,9,-29
-68,-48,19,58,-43,-14,-39,-200,-68,82,9,-34
-68,-48,19,58,-43,-14,-39,-200,-68,73,4,-34
-68,-48,19,58,-43,-14,-43,-200,-73,73,4,-34
-68,-48,19,58,-43,-14,-43,-200,-73,73,4,-34
-68,-48,19,58,-43,-14,-43,-200,-73,78,4,-34
-78,-48,29,63,-53,-9,-43,-200,-73,78,9,-29
-78,-48,29,63,-53,-9,-34,-190,-73,78,9,-39
-68,-48,19,58,-43,-14,-34,-190,-73,78,9,-39
-68,-48,19,58,-43,-14,-39,-190,-78,78,9,-39
-73,-48,24,61,-48,-12,-39,-195,-78,78,9,-43
-73,-48,24,61,-48,-12,-43,-195,-68,78,19,-34
-73,-48,24,61,-48,-12,-43,-195,-68,78,14,-34
-73,-48,24,61,-48,-12,-43,-195,-68,78,14,-34
-73,-53,19,63,-46,-17,-43,-195,-68,78,9,-34
-73,-48,24,61,-48,-12,-48,-195,-78,78,9,-34
-73,-48,24,61,-48,-12,-48,-195,-78,73,9,-34
-73,-48,24,61,-48,-12,-48,-195,-78,73,9,-34
-73,-48,24,61,-48,-12,-48,-195,-78,68,9,-34
-73,-48,24,61,-48,-12,-43,-200,-78,58,9,-43
-73,-48,24,61,-48,-12,-43,-200,-78,58,9,-43
-78,-43,34,61,-56,-4,-43,-204,-78,63,9,-39
-78,-43,34,61,-56,-4,-43,-204,-78,63,9,-39
-73,-48,24,61,-48,-12,-43,-204,-68,63,4,-39
-73,-53,19,63,-46,-17,-43,-204,-73,63,4,-39
-78,-58,19,68,-48,-19,-43,-204,-73,63,4,-39
-78,-68,9,73,-43,-29,-43,-204,-73,63,0,-43
-78,-58,19,68,-48,-19,-43,-204,-82,58,0,-43
-78,-53,24,65,-51,-14,-48,-204,-82,58,0,-43
-78,-53,24,65,-51,-14,-48,-204,-82,58,0,-48
-78,-53,24,65,-51,-14,-48,-204,-82,58,-4,-48
-68,-53,14,61,-41,-19,-53,-204,-82,58,4,-48
-68,-53,14,61,-41,-19,-53,-204,-78,58,4,-48
-68,-58,9,63,-39,-24,-53,-204,-78,58,9,-48
-68,-58,9,63,-39,-24,-53,-204,-78,58,9,-48
-78,-53,24,65,-51,-14,-53,-204,-78,68,9,-39
-78,-53,24,65,-51,-14,-53,-209,-82,68,9,-39
-73,-53,19,63,-46,-17,-53,-209,-82,68,9,-39
-73,-53,19,63,-46,-17,-53,-209,-82,68,9,-43
-73,-53,19,63,-46,-17,-53,-209,-82,58,0,-53
-73,-53,19,63,-46,-17,-53,-209,-82,58,0,-53
-73,-53,19,63,-46,-17,-53,-209,-82,58,0,-48
-73,-53,19,63,-46,-17,-53,-209,-78,58,0,-48
-68,-63,4,65,-36,-29,-53,-209,-78,48,9,-48
-68,-68,0,68,-34,-34,-53,-209,-78,48,4,-48
-68,-68,0,68,-34,-34,-53,-209,-78,48,4,-48
-68,-68,0,68,-34,-34,-53,-209,-78,48,4,-48
-68,-68,0,68,-34,-34,-53,-209,-78,48,4,-48
-68,-68,0,68,-34,-34,-53,-209,-78,48,4,-48
-68,-68,0,68,-34,-34,-53,-209,-78,48,0,-53
-68,-68,0,68,-34,-34,-53,-209,-78,48,0,-53
-68,-68,0,68,-34,-34,-53,-219,-78,48,-9,-53
-68,-68,0,68,-34,-34,-53,-219,-78,48,-4,-53
-68,-68,0,68,-34,-34,-53,-219,-78,48,-4,-53
-68,-68,0,68,-34,-34,-53,-219,-78,48,-4,-48
-78,-58,19,68,-48,-19,-53,-219,-87,48,4,-58
-78,-58,19,68,-48,-19,-53,-219,-87,48,4,-58
-78,-58,19,68,-48,-19,-53,-219,-87,48,4,-58
-78,-58,19,68,-48,-19,-48,-219,-87,48,4,-58
-78,-68,9,73,-43,-29,-53,-219,-87,48,4,-48
-78,-68,9,73,-43,-29,-53,-219,-87,48,4,-48
-78,-68,9,73,-43,-29,-53,-219,-82,48,4,-48
-78,-63,14,70,-46,-24,-53,-219,-82,48,4,-48
-78,-73,4,75,-41,-34,-53,-219,-82,39,-4,-58
-73,-73,0,73,-36,-36,-53,-219,-78,39,-4,-58
-73,-68,4,70,-39,-31,-53,-214,-78,43,-4,-58
-68,-68,0,68,-34,-34,-53,-214,-78,48,0,-53
-78,-68,9,73,-43,-29,-53,-214,-78,39,0,-53
-78,-63,14,70,-46,-24,-53,-214,-78,39,0,-53
-78,-63,14,70,-46,-24,-53,-214,-82,39,4,-53
-78,-63,14,70,-46,-24,-48,-214,-82,43,4,-53
-78,-73,4,75,-41,-34,-48,-214,-82,43,4,-53
-78,-68,9,73,-43,-29,-53,-214,-82,43,4,-53
-78,-68,9,73,-43,-29,-53,-214,-78,43,4,-53
-78,-63,14,70,-46,-24,-53,-214,-78,43,4,-48
-68,-58,9,63,-39,-24,-53,-214,-78,53,0,-48
-68,-68,0,68,-34,-34,-48,-214,-78,48,9,-48
-68,-58,9,63,-39,-24,-58,-204,-78,48,9,-48
-68,-58,9,63,-39,-24,-58,-204,-78,48,9,-48
-68,-58,9,63,-39,-24,-58,-204,-78,48,9,-48
-68,-58,9,63,-39,-24,-58,-204,-78,48,9,-48
-68,-43,24,56,-46,-9,-58,-204,-68,48,9,-48
-63,-39,24,51,-43,-7,-58,-200,-68,53,9,-48
-53,-34,19,43,-36,-7,-53,-185,-63,53,14,-43
-48,-29,19,39,-34,-4,-48,-180,-53,63,19,-43
-43,-24,19,34,-31,-2,-34,-175,-39,78,29,-24
-43,-14,29,29,-36,7,-29,-175,-29,82,34,-24
-39,-9,29,24,-34,9,-29,-170,-24,87,39,-14
-34,0,34,17,-34,17,-29,-165,-19,92,43,-9
-34,4,39,14,-36,21,-19,-161,-24,87,43,-9
-34,4,39,14,-36,21,-19,-161,-19,92,48,-9
-29,4,34,12,-31,19,-19,-161,-19,97,48,-4
-29,9,39,9,-34,24,-19,-161,-19,97,48,-4
-34,9,43,12,-39,26,-19,-156,-19,87,48,-4
-34,9,43,12,-39,26,-19,-156,-14,87,48,-4
-34,14,48,9,-41,31,-19,-156,-14,87,48,-4
-34,14,48,9,-41,31,-24,-156,-4,92,53,0
-24,34,58,-4,-41,46,-14,-161,0,107,63,0
-24,48,73,-12,-48,61,-14,-156,9,112,73,9
-19,63,82,-21,-51,73,-14,-156,24,122,82,19
-14,68,82,-26,-48,75,-19,-156,24,126,87,24
-24,63,87,-19,-56,75,-39,-175,14,117,78,14
-14,63,78,-24,-46,70,-68,-185,0,117,82,14
-9,58,68,-24,-39,63,-68,-185,0,117,82,19
-4,58,63,-26,-34,61,-68,-185,0,117,82,19
9,58,48,-34,-19,53,-73,-175,0,126,92,29
9,48,39,-29,-14,43,-82,-175,0,122,92,29
14,29,14,-21,0,21,-82,-175,-4,117,87,24
19,19,0,-19,9,9,-82,-170,-4,117,87,24
24,19,-4,-21,14,7,-78,-180,-4,107,78,14
29,14,-14,-21,21,0,-78,-180,-9,107,73,14
29,9,-19,-19,24,-4,-82,-180,-19,102,73,9
29,-4,-34,-12,31,-19,-82,-185,-34,97,63,4
29,-14,-43,-7,36,-29,-92,-195,-53,78,48,0
29,-24,-53,-2,41,-39,-97,-214,-73,63,39,-9
29,-34,-63,2,46,-48,-102,-229,-78,53,34,-14
24,-34,-58,4,41,-46,-102,-229,-82,48,29,-14
9,-39,-48,14,29,-43,-102,-229,-87,58,34,-19
-4,-43,-39,24,17,-41,-102,-234,-87,53,34,-19
-9,-48,-39,29,14,-43,-97,-234,-87,48,29,-24
-14,-48,-34,31,9,-41,-92,-229,-87,48,24,-29
-29,-58,-29,43,0,-43,-78,-229,-92,39,9,-34
-43,-68,-24,56,-9,-46,-78,-229,-92,34,4,-39
-58,-78,-19,68,-19,-48,-63,-229,-97,24,0,-48
-78,-87,-9,82,-34,-48,-58,-229,-97,24,-9,-53
-87,-82,4,85,-46,-39,-68,-244,-97,19,0,-53
-87,-82,4,85,-46,-39,-68,-248,-102,14,-4,-53
-87,-92,-4,90,-41,-48,-68,-253,-102,14,-4,-58
-92,-92,0,92,-46,-46,-68,-258,-112,9,-9,-63
-92,-92,0,92,-46,-46,-68,-248,-112,14,-4,-58
-92,-97,-4,95,-43,-51,-73,-248,-117,14,-9,-63
-92,-97,-4,95,-43,-51,-73,-248,-117,9,-9,-63
-92,-97,-4,95,-43,-51,-78,-248,-117,4,-14,-63
-82,-112,-29,97,-26,-70,-78,-253,-122,-4,-24,-73
-82,-112,-29,97,-26,-70,-78,-253,-122,-4,-24,-73
-82,-117,-34,100,-24,-75,-78,-253,-122,-4,-24,-78
-82,-117,-34,100,-24,-75,-78,-253,-122,-4,-24,-78
-92,-117,-24,104,-34,-70,-78,-248,-117,-4,-34,-78
-92,-117,-24,104,-34,-70,-78,-248,-117,-4,-34,-78
-97,-117,-19,107,-39,-68,-78,-248,-117,-4,-34,-73
-97,-112,-14,104,-41,-63,-78,-244,-117,0,-29,-73
-92,-102,-9,97,-41,-56,-87,-244,-112,0,-19,-73
-92,-102,-9,97,-41,-56,-87,-244,-112,0,-19,-73
-92,-97,-4,95,-43,-51,-82,-244,-112,0,-19,-73
-92,-97,-4,95,-43,-51,-82,-244,-112,0,-19,-73
-92,-97,-4,95,-43,-51,-73,-244,-112,0,-19,-73
-92,-97,-4,95,-43,-51,-73,-244,-112,0,-19,-73
-92,-97,-4,95,-43,-51,-73,-244,-112,0,-19,-73
-92,-97,-4,95,-43,-51,-73,-244,-112,0,-19,-73
-92,-107,-14,100,-39,-61,-73,-234,-112,0,-9,-73
-92,-107,-14,100,-39,-61,-68,-229,-97,0,-19,-68
-97,-107,-9,102,-43,-58,-58,-209,-92,9,-9,-68
-102,-87,14,95,-58,-36,-48,-180,-63,19,0,-63
-97,-82,14,90,-56,-34,-19,-151,-19,34,0,-73
-97,-63,34,80,-65,-14,4,-107,24,63,14,-63
-92,-48,43,70,-68,-2,34,-58,68,107,43,-43
-97,-29,68,63,-82,19,68,19,141,161,92,-19
-78,-4,73,41,-75,34,112,136,239,229,146,29
-58,9,68,24,-63,39,175,278,356,317,224,87
-14,24,39,-4,-26,31,219,395,463,429,312,156
58,53,-4,-56,31,24,209,439,527,531,424,239
165,92,-73,-129,119,9,180,483,566,649,551,351
307,151,-156,-229,231,-2,175,566,634,780,692,463
439,200,-239,-319,339,-19,195,683,732,917,834,590
575,278,-297,-427,436,-9,214,824,844,1073,990,727
707,405,-302,-556,505,51,214,971,976,1249,1171,878
819,566,-253,-692,536,156,151,1015,1073,1405,1337,1049
912,741,-170,-827,541,285,19,917,1063,1503,1459,1180
1005,863,-141,-934,573,361,-161,785,956,1488,1483,1249
1044,873,-170,-958,607,351,-317,614,756,1312,1346,1176
966,780,-185,-873,575,297,-453,326,439,995,1088,1000
805,673,-131,-739,468,270,-590,-92,43,673,819,819
644,556,-87,-600,366,234,-761,-561,-395,336,561,644
478,390,-87,-434,283,151,-917,-1005,-834,-53,244,414
273,273,0,-273,136,136,-1010,-1439,-1244,-424,-68,180
63,214,151,-139,-43,183,-1078,-1815,-1546,-702,-317,-4
-39,117,156,-39,-97,136,-1107,-1986,-1703,-849,-478,-136
-63,-29,34,46,-48,2,-1132,-1956,-1756,-946,-590,-263
-112,-190,-78,151,-17,-134,-1122,-1917,-1790,-1034,-702,-395
-146,-312,-165,229,9,-239,-1083,-1888,-1800,-1078,-761,-468
-141,-375,-234,258,46,-305,-1068,-1805,-1747,-1063,-766,-497
-112,-395,-283,253,85,-339,-1058,-1629,-1605,-995,-717,-483
-97,-395,-297,246,100,-346,-1019,-1439,-1454,-897,-658,-463
-102,-390,-287,246,92,-339,-922,-1288,-1317,-824,-605,-439
-97,-380,-283,239,92,-331,-819,-1166,-1190,-756,-561,-414
-92,-356,-263,224,85,-309,-717,-1034,-1044,-663,-492,-380
-73,-302,-229,187,78,-265,-614,-897,-873,-556,-414,-322
-39,-234,-195,136,78,-214,-517,-751,-712,-439,-326,-263
-29,-165,-136,97,53,-151,-439,-634,-566,-331,-244,-204
-39,-122,-82,80,21,-102,-370,-546,-458,-253,-190,-165
-63,-97,-34,80,-14,-65,-307,-473,-385,-209,-161,-151
-73,-112,-39,92,-17,-75,-263,-409,-326,-180,-141,-136
-73,-102,-29,87,-21,-65,-209,-356,-273,-141,-107,-122
-63,-92,-29,78,-17,-61,-165,-307,-214,-107,-87,-107
-73,-97,-24,85,-24,-61,-131,-263,-170,-82,-68,-102
-73,-97,-24,85,-24,-61,-97,-234,-141,-58,-58,-97
-68,-97,-29,82,-19,-63,-82,-219,-117,-34,-43,-92
-68,-82,-14,75,-26,-48,-73,-214,-97,-29,-34,-87
-73,-87,-14,80,-29,-51,-73,-219,-97,-34,-29,-82
-73,-87,-14,80,-29,-51,-78,-214,-102,-34,-39,-82
-73,-92,-19,82,-26,-56,-68,-214,-102,-34,-39,-82
-78,-92,-14,85,-31,-53,-63,-204,-97,-29,-34,-82
-78,-92,-14,85,-31,-53,-58,-200,-92,-24,-34,-82
-78,-92,-14,85,-31,-53,-53,-195,-78,-19,-24,-78
-78,-92,-14,85,-31,-53,-48,-190,-68,-9,-19,-78
-73,-87,-14,80,-29,-51,-48,-185,-53,0,-14,-73
-73,-82,-9,78,-31,-46,-48,-180,-53,0,-14,-73
-73,-82,-9,78,-31,-46,-48,-180,-53,4,-9,-73
-73,-82,-9,78,-31,-46,-43,-175,-48,-4,-9,-68
-73,-82,-9,78,-31,-46,-39,-175,-48,-4,-4,-68
-73,-82,-9,78,-31,-46,-39,-170,-48,0,-4,-68
-73,-82,-9,78,-31,-46,-39,-165,-43,0,-4,-68
-78,-82,-4,80,-36,-43,-39,-165,-39,4,-4,-63
-78,-82,-4,80,-36,-43,-34,-165,-34,4,0,-63
-78,-82,-4,80,-36,-43,-29,-161,-34,4,0,-63
-78,-78,0,78,-39,-39,-29,-156,-29,4,0,-63
-68,-78,-9,73,-29,-43,-29,-156,-29,9,0,-53
-68,-78,-9,73,-29,-43,-29,-156,-29,9,4,-53
-68,-78,-9,73,-29,-43,-29,-156,-29,9,4,-48
-68,-78,-9,73,-29,-43,-29,-156,-24,14,9,-48
-68,-78,-9,73,-29,-43,-29,-146,-24,14,9,-58
-68,-82,-14,75,-26,-48,-29,-146,-19,14,9,-58
-68,-82,-14,75,-26,-48,-29,-146,-14,19,9,-58
-63,-78,-14,70,-24,-46,-29,-146,-14,19,14,-58
-63,-68,-4,65,-29,-36,-29,-141,-14,14,14,-53
-63,-68,-4,65,-29,-36,-34,-141,-14,14,19,-53
-63,-63,0,63,-31,-31,-34,-141,-9,14,19,-53
-63,-63,0,63,-31,-31,-24,-141,-9,14,19,-53
-63,-68,-4,65,-29,-36,-24,-131,-4,14,19,-58
-63,-68,-4,65,-29,-36,-24,-131,-4,19,19,-58
-63,-68,-4,65,-29,-36,-24,-131,-4,19,24,-58
-63,-68,-4,65,-29,-36,-24,-131,0,24,24,-58
-63,-58,4,61,-34,-26,-24,-126,9,24,14,-58
-63,-53,9,58,-36,-21,-24,-126,14,24,14,-53
-63,-53,9,58,-36,-21,-24,-126,14,29,14,-53
-58,-53,4,56,-31,-24,-19,-122,19,29,19,-53
-58,-53,4,56,-31,-24,-19,-117,14,39,29,-39
-58,-48,9,53,-34,-19,-24,-107,14,43,34,-39
-58,-48,9,53,-34,-19,-24,-107,14,43,34,-39
-53,-43,9,48,-31,-17,-19,-102,19,43,34,-34
-53,-43,9,48,-31,-17,-19,-87,29,43,34,-43
-48,-39,9,43,-29,-14,-19,-87,29,39,39,-39
-48,-39,9,43,-29,-14,-19,-87,34,39,39,-39
-48,-39,9,43,-29,-14,-14,-82,34,43,39,-39
-43,-34,9,39,-26,-12,-9,-78,43,43,39,-34
-43,-34,9,39,-26,-12,-9,-73,48,48,43,-34
-39,-34,4,36,-21,-14,-9,-68,48,48,43,-34
-39,-24,14,31,-26,-4,-14,-63,53,48,43,-34
-39,-24,14,31,-26,-4,-14,-48,58,58,53,-14
-29,-24,4,26,-17,-9,-14,-43,63,68,58,-9
-29,-19,9,24,-19,-4,-14,-39,68,73,68,-9
-29,-14,14,21,-21,0,-14,-34,73,78,73,-9
-29,-24,4,26,-17,-9,-19,-24,78,73,78,-4
-19,-14,4,17,-12,-4,-19,-14,82,78,78,-4
-19,-14,4,17,-12,-4,-19,-9,92,82,82,4
-19,-9,9,14,-14,0,-14,0,97,87,87,9
-9,4,14,2,-12,9,-4,4,112,92,92,4
-9,9,19,0,-14,14,-4,19,122,92,97,9
-4,14,19,-4,-12,17,-4,29,131,97,102,14
0,19,19,-9,-9,19,0,39,136,107,107,19
14,24,9,-19,2,17,-9,48,146,126,122,34
19,29,9,-24,4,19,-9,58,156,131,126,39
24,34,9,-29,7,21,-4,68,165,141,136,43
29,39,9,-34,9,24,-4,82,175,151,146,53
34,48,14,-41,9,31,4,102,185,146,151,58
39,53,14,-46,12,34,4,112,195,156,151,63
48,63,14,-56,17,39,4,122,204,161,156,73
53,73,19,-63,17,46,9,131,214,170,156,78
58,78,19,-68,19,48,9,141,224,195,175,82
63,87,24,-75,19,56,9,151,234,204,190,97
78,97,19,-87,29,58,9,165,244,209,200,102
87,107,19,-97,34,63,9,175,258,219,214,112
97,117,19,-107,39,68,9,195,268,219,214,122
97,126,29,-112,34,78,9,209,273,229,224,131
112,131,19,-122,46,75,9,214,283,239,234,141
122,141,19,-131,51,80,4,224,287,248,244,151
141,151,9,-146,65,80,4,224,297,258,248,151
141,161,19,-151,61,90,4,229,307,268,258,165
146,165,19,-156,63,92,4,239,312,278,268,175
156,175,19,-165,68,97,4,248,317,283,278,175
151,175,24,-163,63,100,4,258,322,287,287,190
165,185,19,-175,73,102,0,263,322,292,297,195
175,190,14,-183,80,102,-4,263,326,292,297,204
175,200,24,-187,75,112,-9,268,326,302,302,209
180,209,29,-195,75,119,-19,258,322,307,312,214
190,214,24,-202,82,119,-19,263,326,312,317,214
190,214,24,-202,82,119,-19,263,326,317,317,219
200,219,19,-209,90,119,-29,263,326,317,322,224
209,214,4,-212,102,109,-34,263,326,312,326,229
214,224,9,-219,102,117,-34,263,326,312,326,234
214,224,9,-219,102,117,-39,263,322,312,331,234
219,229,9,-224,104,119,-43,258,317,307,331,239
214,229,14,-222,100,122,-43,248,317,307,331,229
214,229,14,-222,100,122,-48,244,317,307,331,229
214,229,14,-222,100,122,-53,229,312,307,331,229
214,229,14,-222,100,122,-58,229,307,302,331,234
224,239,14,-231,104,126,-58,224,302,302,326,244
224,239,14,-231,104,126,-63,214,297,297,326,244
224,239,14,-231,104,126,-63,200,287,297,322,239
224,239,14,-231,104,126,-68,195,273,292,322,239
219,224,4,-222,107,114,-68,170,268,283,312,229
219,224,4,-222,107,114,-73,165,258,273,302,224
214,224,9,-219,102,117,-73,151,248,268,302,219
214,219,4,-217,104,112,-73,141,239,258,292,214
195,195,0,-195,97,97,-73,126,234,248,283,195
185,195,9,-190,87,102,-73,112,224,239,278,190
185,190,4,-187,90,97,-78,102,219,229,268,180
175,180,4,-178,85,92,-78,92,209,219,263,175
161,161,0,-161,80,80,-68,82,190,214,248,170
146,156,9,-151,68,82,-63,63,180,204,244,161
141,141,0,-141,70,70,-63,48,165,190,234,151
126,131,4,-129,61,68,-63,39,161,185,224,141
126,131,4,-129,61,68,-63,24,151,165,204,126
117,122,4,-119,56,63,-63,9,136,156,195,112
107,117,9,-112,48,63,-63,-4,131,151,185,107
102,107,4,-104,48,56,-63,-14,122,141,175,92
92,97,4,-95,43,51,-73,-24,112,141,175,97
82,87,4,-85,39,46,-73,-34,97,131,165,82
78,78,0,-78,39,39,-73,-43,92,122,161,78
68,68,0,-68,34,34,-68,-63,82,117,151,68
48,58,9,-53,19,34,-68,-68,82,92,126,48
39,48,9,-43,14,29,-68,-78,73,87,117,39
34,39,4,-36,14,21,-63,-92,63,78,107,29
24,29,4,-26,9,17,-63,-97,53,68,97,24
14,9,-4,-12,9,2,-53,-97,48,68,102,19
4,0,-4,-2,4,-2,-53,-107,39,63,97,14
0,-9,-9,4,4,-9,-53,-117,34,58,82,9
0,-14,-14,7,7,-14,-53,-126,29,48,78,9
-9,-14,-4,12,-2,-9,-48,-126,19,48,73,-9
-19,-24,-4,21,-7,-14,-48,-136,19,39,68,-14
-19,-24,-4,21,-7,-14,-48,-136,14,34,63,-14
-24,-29,-4,26,-9,-17,-48,-141,14,34,58,-19
-24,-34,-9,29,-7,-21,-48,-146,9,24,63,-14
-29,-39,-9,34,-9,-24,-48,-151,0,24,58,-19
-39,-39,0,39,-19,-19,-48,-156,-4,19,58,-24
-39,-43,-4,41,-17,-24,-53,-161,-9,14,53,-24
-39,-48,-9,43,-14,-29,-53,-161,-14,9,43,-29
-43,-48,-4,46,-19,-26,-53,-165,-14,9,39,-29
-48,-53,-4,51,-21,-29,-53,-170,-19,4,34,-34
-53,-58,-4,56,-24,-31,-53,-170,-24,0,29,-39
-53,-58,-4,56,-24,-31,-53,-175,-29,0,39,-43
-53,-58,-4,56,-24,-31,-53,-180,-29,-4,39,-43
-53,-58,-4,56,-24,-31,-48,-180,-34,-4,34,-43
-53,-63,-9,58,-21,-36,-48,-180,-34,-9,29,-48
-68,-68,0,68,-34,-34,-58,-180,-43,-9,19,-48
-68,-68,0,68,-34,-34,-58,-180,-48,-9,19,-48
-68,-68,0,68,-34,-34,-58,-185,-48,-9,14,-48
-68,-68,0,68,-34,-34,-58,-185,-48,-14,14,-48
-58,-73,-14,65,-21,-43,-53,-185,-39,-14,14,-63
-58,-78,-19,68,-19,-48,-53,-185,-39,-14,14,-63
-63,-78,-14,70,-24,-46,-53,-185,-39,-19,14,-63
-63,-73,-9,68,-26,-41,-53,-185,-39,-19,14,-63
-68,-73,-4,70,-31,-39,-53,-175,-43,-19,19,-58
-68,-73,-4,70,-31,-39,-53,-175,-43,-19,19,-58
-68,-73,-4,70,-31,-39,-53,-175,-43,-24,19,-58
-68,-73,-4,70,-31,-39,-53,-175,-39,-24,19,-58
-73,-78,-4,75,-34,-41,-43,-185,-39,-24,14,-58
-73,-78,-4,75,-34,-41,-43,-190,-39,-24,14,-58
-73,-73,0,73,-36,-36,-43,-190,-39,-24,14,-58
-73,-73,0,73,-36,-36,-43,-185,-39,-24,14,-58
-73,-73,0,73,-36,-36,-48,-185,-39,-24,9,-68
-73,-73,0,73,-36,-36,-48,-185,-39,-24,9,-68
-78,-73,4,75,-41,-34,-43,-180,-39,-24,9,-63
-78,-78,0,78,-39,-39,-43,-175,-39,-24,9,-63
-78,-87,-9,82,-34,-48,-43,-165,-24,-29,9,-53
-78,-82,-4,80,-36,-43,-43,-165,-24,-29,9,-53
-78,-82,-4,80,-36,-43,-39,-165,-24,-29,9,-53
-78,-78,0,78,-39,-39,-39,-165,-24,-29,14,-53
-78,-68,9,73,-43,-29,-48,-165,-24,-29,14,-63
-73,-68,4,70,-39,-31,-48,-161,-19,-29,14,-63
-73,-68,4,70,-39,-31,-43,-161,-19,-29,14,-58
-73,-68,4,70,-39,-31,-43,-161,-14,-24,14,-58
-73,-58,14,65,-43,-21,-43,-165,-9,-14,19,-48
-73,-58,14,65,-43,-21,-43,-161,-9,-9,24,-48
-73,-53,19,63,-46,-17,-43,-161,-4,-4,29,-48
-73,-53,19,63,-46,-17,-43,-161,-4,-4,34,-48
-73,-53,19,63,-46,-17,-43,-161,-14,-14,24,-48
-73,-53,19,63,-46,-17,-43,-161,-14,-14,24,-43
-73,-53,19,63,-46,-17,-43,-156,-9,-9,29,-43
-73,-53,19,63,-46,-17,-43,-156,-9,-9,39,-43
-78,-43,34,61,-56,-4,-43,-156,-4,-9,29,-43
-78,-39,39,58,-58,0,-43,-151,0,-9,29,-43
-78,-39,39,58,-58,0,-43,-151,0,-9,29,-43
-78,-39,39,58,-58,0,-43,-156,0,-4,29,-39
-68,-43,24,56,-46,-9,-43,-146,9,-9,34,-48
-68,-43,24,56,-46,-9,-43,-146,9,-9,34,-43
-68,-39,29,53,-48,-4,-43,-146,9,-9,34,-43
-68,-34,34,51,-51,0,-43,-146,9,-9,39,-43
-68,-43,24,56,-46,-9,-43,-156,0,4,48,-29
-68,-43,24,56,-46,-9,-48,-151,0,4,48,-29
-68,-43,24,56,-46,-9,-48,-151,0,4,53,-29
-63,-43,19,53,-41,-12,-48,-151,0,4,53,-29
-53,-34,19,43,-36,-7,-48,-161,0,4,53,-34
-53,-34,19,43,-36,-7,-48,-161,0,4,58,-29
-53,-34,19,43,-36,-7,-48,-161,0,4,58,-29
-53,-34,19,43,-36,-7,-48,-161,0,9,58,-29
-63,-43,19,53,-41,-12,-48,-151,0,0,48,-29
-58,-39,19,48,-39,-9,-48,-151,0,0,53,-29
-58,-39,19,48,-39,-9,-48,-156,0,0,53,-29
-58,-39,19,48,-39,-9,-48,-156,0,0,53,-29
-58,-39,19,48,-39,-9,-58,-156,0,0,48,-29
-58,-39,19,48,-39,-9,-58,-156,-4,0,48,-29
-58,-39,19,48,-39,-9,-58,-156,-4,0,48,-29
-58,-39,19,48,-39,-9,-63,-156,-4,0,48,-29
-58,-29,29,43,-43,0,-63,-170,-4,0,48,-29
-53,-29,24,41,-39,-2,-63,-170,-9,-4,48,-29
-53,-34,19,43,-36,-7,-63,-175,-14,-4,48,-34
-53,-34,19,43,-36,-7,-63,-175,-19,-4,48,-34
-53,-43,9,48,-31,-17,-63,-170,-19,-4,58,-24
-53,-43,9,48,-31,-17,-63,-170,-19,-4,53,-24
-53,-43,9,48,-31,-17,-63,-170,-19,-4,53,-24
-53,-43,9,48,-31,-17,-68,-175,-19,-4,53,-24
-53,-43,9,48,-31,-17,-68,-175,-24,-14,43,-34
-53,-43,9,48,-31,-17,-68,-175,-24,-19,43,-34
-53,-43,9,48,-31,-17,-63,-180,-24,-19,43,-34
-53,-43,9,48,-31,-17,-63,-180,-29,-19,43,-34
-53,-43,9,48,-31,-17,-68,-185,-29,-19,34,-34
-53,-43,9,48,-31,-17,-68,-185,-39,-29,29,-39
-58,-48,9,53,-34,-19,-73,-190,-39,-29,29,-39
-58,-48,9,53,-34,-19,-73,-190,-39,-29,29,-39
-58,-58,0,58,-29,-29,-63,-190,-48,-29,39,-39
-58,-58,0,58,-29,-29,-68,-195,-48,-29,34,-39
-58,-58,0,58,-29,-29,-68,-195,-48,-34,34,-39
-58,-58,0,58,-29,-29,-68,-195,-48,-34,34,-39
-58,-48,9,53,-34,-19,-68,-195,-53,-34,24,-39
-58,-53,4,56,-31,-24,-68,-204,-53,-34,24,-43
-58,-58,0,58,-29,-29,-68,-209,-53,-34,19,-43
-58,-58,0,58,-29,-29,-68,-209,-53,-39,19,-48
-58,-53,4,56,-31,-24,-68,-204,-63,-39,19,-53
-58,-53,4,56,-31,-24,-68,-204,-63,-43,14,-53
-58,-58,0,58,-29,-29,-68,-209,-68,-43,14,-53
-58,-58,0,58,-29,-29,-68,-209,-68,-43,14,-58
-58,-48,9,53,-34,-19,-78,-209,-58,-48,24,-48
-58,-53,4,56,-31,-24,-78,-209,-58,-48,19,-48
-58,-53,4,56,-31,-24,-78,-209,-63,-48,19,-48
-58,-58,0,58,-29,-29,-82,-214,-63,-48,19,-48
-68,-68,0,68,-34,-34,-82,-214,-63,-48,24,-58
-68,-68,0,68,-34,-34,-82,-214,-68,-48,24,-58
-68,-68,0,68,-34,-34,-82,-214,-68,-48,19,-58
-68,-68,0,68,-34,-34,-82,-214,-68,-43,19,-58
-58,-53,4,56,-31,-24,-82,-214,-68,-43,19,-58
-58,-53,4,56,-31,-24,-78,-214,-68,-43,19,-58
-58,-58,0,58,-29,-29,-78,-219,-68,-43,19,-63
-58,-58,0,58,-29,-29,-78,-219,-68,-53,14,-63
-58,-68,-9,63,-24,-39,-82,-219,-73,-53,14,-63
-58,-68,-9,63,-24,-39,-82,-219,-73,-53,14,-63
-58,-68,-9,63,-24,-39,-82,-219,-73,-48,14,-63
-68,-68,0,68,-34,-34,-82,-219,-73,-48,19,-58
-78,-68,9,73,-43,-29,-82,-219,-73,-58,9,-58
-68,-68,0,68,-34,-34,-82,-219,-73,-58,9,-58
-68,-68,0,68,-34,-34,-87,-219,-78,-58,9,-58
-73,-68,4,70,-39,-31,-87,-224,-78,-58,9,-63
-63,-68,-4,65,-29,-36,-82,-224,-78,-58,9,-63
-63,-68,-4,65,-29,-36,-82,-224,-78,-58,4,-63
-63,-68,-4,65,-29,-36,-82,-224,-78,-58,4,-63
-63,-73,-9,68,-26,-41,-82,-224,-78,-58,0,-63
-63,-68,-4,65,-29,-36,-87,-224,-78,-48,4,-63
-63,-68,-4,65,-29,-36,-87,-224,-78,-53,9,-63
-63,-68,-4,65,-29,-36,-87,-224,-78,-53,14,-63
-63,-68,-4,65,-29,-36,-87,-224,-78,-58,19,-63
-63,-78,-14,70,-24,-46,-82,-219,-87,-68,9,-63
-63,-78,-14,70,-24,-46,-82,-219,-87,-68,9,-63
-68,-73,-4,70,-31,-39,-82,-224,-87,-63,9,-58
-68,-73,-4,70,-31,-39,-82,-224,-87,-63,9,-58
-63,-82,-19,73,-21,-51,-82,-224,-87,-63,4,-68
-63,-82,-19,73,-21,-51,-82,-224,-92,-63,4,-68
-68,-82,-14,75,-26,-48,-82,-224,-92,-63,4,-68
-68,-87,-19,78,-24,-53,-82,-224,-92,-63,0,-73
-68,-78,-9,73,-29,-43,-82,-224,-82,-58,9,-63
-68,-73,-4,70,-31,-39,-87,-224,-82,-58,9,-63
-68,-73,-4,70,-31,-39,-87,-224,-82,-58,9,-68
-68,-73,-4,70,-31,-39,-87,-224,-82,-58,4,-68
-78,-82,-4,80,-36,-43,-82,-224,-82,-58,4,-68
-78,-82,-4,80,-36,-43,-82,-224,-78,-58,4,-68
-78,-87,-9,82,-34,-48,-82,-224,-78,-58,9,-68
-78,-87,-9,82,-34,-48,-82,-224,-78,-58,9,-68
-68,-78,-9,73,-29,-43,-92,-234,-87,-58,9,-68
-68,-73,-4,70,-31,-39,-92,-239,-92,-58,9,-68
-63,-68,-4,65,-29,-36,-92,-239,-92,-58,9,-68
-63,-63,0,63,-31,-31,-92,-239,-92,-58,9,-73
-63,-73,-9,68,-26,-41,-92,-239,-92,-58,9,-73
-63,-73,-9,68,-26,-41,-92,-239,-92,-58,9,-73
-63,-73,-9,68,-26,-41,-92,-239,-92,-58,9,-68
-63,-73,-9,68,-26,-41,-92,-239,-87,-58,9,-68
-68,-82,-14,75,-26,-48,-92,-229,-87,-68,0,-68
-68,-87,-19,78,-24,-53,-92,-229,-87,-68,-4,-68
-68,-87,-19,78,-24,-53,-92,-229,-87,-68,-4,-68
-68,-87,-19,78,-24,-53,-92,-229,-87,-68,-4,-68
-78,-87,-9,82,-34,-48,-82,-229,-87,-78,4,-68
-78,-87,-9,82,-34,-48,-82,-229,-87,-78,4,-68
-78,-87,-9,82,-34,-48,-82,-229,-87,-78,0,-73
-78,-87,-9,82,-34,-48,-82,-229,-87,-78,0,-73
-68,-87,-19,78,-24,-53,-82,-219,-87,-78,-9,-82
-68,-87,-19,78,-24,-53,-82,-219,-87,-78,-4,-82
-68,-87,-19,78,-24,-53,-82,-219,-87,-78,-4,-82
-68,-87,-19,78,-24,-53,-82,-219,-87,-78,-4,-78
-68,-87,-19,78,-24,-53,-82,-219,-87,-68,-4,-78
-68,-87,-19,78,-24,-53,-82,-219,-87,-68,-4,-78
-68,-87,-19,78,-24,-53,-82,-219,-87,-68,-4,-78
-68,-87,-19,78,-24,-53,-78,-219,-87,-68,-4,-78
-68,-87,-19,78,-24,-53,-78,-229,-97,-78,-4,-78
-68,-87,-19,78,-24,-53,-82,-229,-97,-78,-4,-78
-68,-87,-19,78,-24,-53,-87,-229,-92,-78,-4,-78
-68,-82,-14,75,-26,-48,-92,-229,-92,-78,-4,-78
-78,-82,-4,80,-36,-43,-82,-219,-92,-78,-4,-78
-73,-82,-9,78,-31,-46,-82,-219,-87,-78,-4,-78
-73,-78,-4,75,-34,-41,-82,-214,-87,-73,-4,-78
-68,-78,-9,73,-29,-43,-82,-214,-87,-68,0,-73
-68,-87,-19,78,-24,-53,-82,-224,-87,-68,0,-73
-68,-82,-14,75,-26,-48,-82,-224,-87,-68,0,-73
-68,-82,-14,75,-26,-48,-82,-224,-92,-68,4,-73
-68,-82,-14,75,-26,-48,-78,-224,-92,-63,4,-73
-68,-82,-14,75,-26,-48,-78,-224,-92,-73,4,-73
-78,-87,-9,82,-34,-48,-78,-214,-87,-78,0,-78
-68,-78,-9,73,-29,-43,-87,-214,-87,-78,0,-78
-68,-78,-9,73,-29,-43,-87,-214,-87,-78,0,-78
-68,-78,-9,73,-29,-43,-87,-214,-87,-78,0,-78
-68,-78,-9,73,-29,-43,-87,-214,-87,-78,0,-78
-68,-78,-9,73,-29,-43,-78,-214,-87,-78,-9,-78
-63,-78,-14,70,-24,-46,-78,-209,-87,-73,-9,-78
-53,-78,-24,65,-14,-51,-73,-195,-82,-73,-4,-73
-48,-78,-29,63,-9,-53,-68,-190,-73,-63,0,-73
-53,-73,-19,63,-17,-46,-63,-175,-68,-68,9,-73
-53,-63,-9,58,-21,-36,-58,-175,-58,-63,14,-73
-48,-58,-9,53,-19,-34,-58,-170,-53,-58,19,-63
-43,-48,-4,46,-19,-26,-58,-165,-48,-53,24,-58
-43,-29,14,36,-29,-7,-48,-161,-34,-39,34,-48
-43,-24,19,34,-31,-2,-48,-161,-29,-34,39,-48
-39,-19,19,29,-29,0,-48,-161,-29,-29,39,-43
-39,-9,29,24,-34,9,-48,-161,-29,-29,39,-43
-34,-9,24,21,-29,7,-48,-156,-29,-34,29,-53
-34,-9,24,21,-29,7,-48,-156,-24,-39,29,-53
-34,-4,29,19,-31,12,-48,-156,-24,-43,29,-53
-34,-4,29,19,-31,12,-53,-156,-14,-43,34,-48
-34,0,34,17,-34,17,-43,-141,-19,-34,34,-48
-34,9,43,12,-39,26,-43,-136,-9,-24,43,-39
-29,19,48,4,-39,34,-43,-136,4,-9,53,-29
-24,19,43,2,-34,31,-48,-136,4,0,58,-24
-34,34,68,0,-51,51,-58,-146,9,0,68,-14
-24,43,68,-9,-46,56,-87,-156,0,0,73,-14
-19,48,68,-14,-43,58,-87,-156,4,0,73,-9
-14,58,73,-21,-43,65,-87,-156,9,0,73,-9
0,68,68,-34,-34,68,-92,-165,9,9,82,-9
0,58,58,-29,-29,58,-102,-165,9,4,82,-9
4,39,34,-21,-14,36,-102,-165,4,0,78,-14
9,29,19,-19,-4,24,-102,-161,4,0,78,-14
14,24,9,-19,2,17,-107,-151,4,-9,68,-14
19,14,-4,-17,12,4,-107,-151,0,-9,63,-14
19,4,-14,-12,17,-4,-112,-151,-9,-14,63,-19
19,-14,-34,-2,26,-24,-112,-156,-24,-19,53,-24
19,-24,-43,2,31,-34,-112,-161,-34,-29,48,-29
19,-34,-53,7,36,-43,-117,-175,-53,-43,39,-39
19,-43,-63,12,41,-53,-122,-185,-58,-53,34,-43
14,-43,-58,14,36,-51,-122,-180,-63,-58,29,-43
9,-58,-68,24,39,-63,-131,-190,-78,-58,24,-48
-4,-63,-58,34,26,-61,-131,-195,-78,-63,24,-48
-9,-68,-58,39,24,-63,-126,-195,-78,-68,19,-53
-14,-68,-53,41,19,-61,-122,-190,-78,-68,14,-58
-19,-68,-48,43,14,-58,-117,-180,-82,-78,0,-63
-34,-78,-43,56,4,-61,-117,-180,-82,-82,-4,-68
-48,-87,-39,68,-4,-63,-102,-180,-87,-92,-9,-78
-68,-97,-29,82,-19,-63,-97,-180,-87,-92,-19,-82
-68,-102,-34,85,-17,-68,-97,-175,-78,-97,-19,-92
-68,-102,-34,85,-17,-68,-97,-180,-82,-102,-24,-92
-68,-112,-43,90,-12,-78,-97,-185,-82,-102,-24,-97
-73,-112,-39,92,-17,-75,-97,-190,-92,-107,-29,-102
-82,-122,-39,102,-21,-80,-87,-190,-102,-112,-24,-97
-82,-126,-43,104,-19,-85,-92,-190,-107,-112,-29,-102
-82,-126,-43,104,-19,-85,-92,-190,-107,-117,-29,-102
-82,-126,-43,104,-19,-85,-97,-190,-107,-122,-34,-102
-82,-122,-39,102,-21,-80,-97,-195,-112,-122,-43,-112
-82,-122,-39,102,-21,-80,-97,-195,-112,-122,-43,-112
-82,-126,-43,104,-19,-85,-97,-195,-112,-122,-43,-117
-82,-126,-43,104,-19,-85,-97,-195,-112,-122,-43,-117
