I,II,III,aVR,aVL,aVF,V1,V2,V3,V4,V5,V6
34,-82,-117,24,75,-100,14,-87,-58,-29,-92,-48
34,-82,-117,24,75,-100,14,-87,-58,-29,-92,-48
43,-82,-126,19,85,-104,14,-87,-63,-29,-92,-48
43,-82,-126,19,85,-104,14,-87,-63,-29,-92,-48
53,-82,-136,14,95,-109,14,-87,-68,-39,-92,-58
53,-82,-136,14,95,-109,14,-87,-68,-39,-92,-58
53,-82,-136,14,95,-109,14,-87,-68,-39,-92,-58
58,-82,-141,12,100,-112,14,-87,-68,-39,-92,-58
58,-82,-141,12,100,-112,14,-87,-58,-39,-102,-58
58,-78,-136,9,97,-107,14,-87,-58,-39,-102,-58
58,-78,-136,9,97,-107,19,-82,-58,-39,-102,-58
53,-78,-131,12,92,-104,19,-82,-58,-34,-102,-58
53,-68,-122,7,87,-95,19,-78,-53,-29,-92,-58
29,-68,-97,19,63,-82,29,-68,-43,-19,-92,-53
29,-68,-97,19,63,-82,29,-63,-43,-19,-92,-43
58,-78,-136,9,97,-107,24,-63,-48,-29,-92,-53
24,-82,-107,29,65,-95,39,-48,-29,-14,-82,-53
-4,-87,-82,46,39,-85,58,-29,-14,-4,-78,-43
39,-97,-136,29,87,-117,63,-24,-19,-14,-87,-58
78,-97,-175,9,126,-136,58,-19,-14,-19,-87,-68
58,-87,-146,14,102,-117,78,19,29,9,-68,-63
29,-73,-102,21,65,-87,92,68,78,58,-39,-29
39,-73,-112,17,75,-92,102,97,112,87,-14,-19
87,-43,-131,-21,109,-87,82,122,141,122,19,-4
87,0,-87,-43,87,-43,82,190,219,200,92,58
63,48,-14,-56,39,17,92,283,307,287,180,122
151,97,-53,-124,102,21,53,317,361,336,224,156
214,161,-53,-187,134,53,-4,307,380,395,287,224
195,214,19,-204,87,117,-48,283,400,463,380,302
209,268,58,-239,75,163,-87,248,409,527,448,370
268,322,53,-295,107,187,-146,200,395,556,497,429
268,370,102,-319,82,236,-234,122,361,595,561,497
244,419,175,-331,34,297,-331,24,307,614,614,556
234,439,204,-336,14,322,-400,-87,239,590,624,566
248,439,190,-344,29,314,-478,-209,141,522,561,536
248,444,195,-346,26,319,-546,-346,4,424,478,502
239,448,209,-344,14,329,-610,-488,-131,317,380,453
224,448,224,-336,0,336,-678,-605,-258,224,287,409
224,434,209,-329,7,322,-741,-717,-395,112,200,356
195,395,200,-295,-2,297,-771,-839,-531,0,82,263
136,326,190,-231,-26,258,-795,-956,-653,-122,-39,175
107,263,156,-185,-24,209,-829,-1034,-751,-224,-122,97
63,244,180,-153,-58,212,-819,-1093,-824,-283,-170,63
4,229,224,-117,-109,226,-771,-1117,-873,-322,-209,39
-19,195,214,-87,-117,204,-712,-1093,-883,-346,-244,14
-43,151,195,-53,-119,173,-649,-1005,-829,-346,-263,-14
-73,117,190,-21,-131,153,-556,-893,-751,-322,-258,-39
-92,82,175,4,-134,129,-463,-775,-668,-307,-258,-58
-82,58,141,12,-112,100,-395,-663,-566,-278,-244,-78
-48,39,87,4,-68,63,-351,-570,-483,-253,-244,-87
-19,9,29,4,-24,19,-307,-483,-400,-234,-229,-97
0,4,4,-2,-2,4,-253,-405,-317,-180,-200,-78
4,4,0,-4,2,2,-214,-322,-248,-131,-151,-63
34,-4,-39,-14,36,-21,-170,-263,-214,-92,-122,-53
24,-4,-29,-9,26,-17,-112,-204,-170,-68,-107,-39
24,-9,-34,-7,29,-21,-63,-161,-141,-58,-102,-34
34,0,-34,-17,34,-17,-34,-146,-126,-58,-102,-43
24,-4,-29,-9,26,-17,-19,-126,-102,-53,-97,-43
29,-4,-34,-12,31,-19,-19,-112,-78,-43,-87,-34
39,4,-34,-21,36,-14,-19,-102,-63,-29,-82,-19
39,-4,-43,-17,41,-24,-9,-87,-48,-14,-73,-19
19,-19,-39,0,29,-29,0,-68,-39,-9,-58,-19
34,-24,-58,-4,46,-41,9,-68,-48,-19,-68,-34
43,-34,-78,-4,61,-56,19,-68,-48,-19,-68,-39
48,-39,-87,-4,68,-63,29,-53,-43,-19,-78,-39
48,-39,-87,-4,68,-63,34,-53,-43,-19,-78,-39
34,-29,-63,-2,48,-46,34,-48,-29,-9,-68,-39
34,-34,-68,0,51,-51,29,-48,-24,-9,-68,-39
39,-34,-73,-2,56,-53,29,-48,-24,-9,-68,-39
39,-34,-73,-2,56,-53,29,-48,-24,-9,-68,-39
39,-43,-82,2,61,-63,24,-43,-14,-14,-73,-39
39,-43,-82,2,61,-63,24,-39,-14,-14,-73,-39
39,-43,-82,2,61,-63,29,-39,-14,-14,-73,-43
43,-43,-87,0,65,-65,29,-39,-14,-14,-73,-43
34,-39,-73,2,53,-56,29,-34,-9,-14,-63,-29
34,-39,-73,2,53,-56,29,-34,-4,-9,-63,-29
34,-39,-73,2,53,-56,29,-29,-4,-9,-63,-29
34,-39,-73,2,53,-56,29,-29,-4,-9,-63,-29
39,-48,-87,4,63,-68,29,-29,-4,0,-58,-29
43,-48,-92,2,68,-70,29,-29,-4,0,-58,-29
48,-43,-92,-2,70,-68,34,-29,-4,0,-58,-29
53,-43,-97,-4,75,-70,34,-24,-4,0,-58,-24
48,-34,-82,-7,65,-58,34,-24,-4,0,-63,-34
48,-34,-82,-7,65,-58,34,-24,-4,4,-63,-34
48,-34,-82,-7,65,-58,34,-24,0,4,-63,-34
48,-34,-82,-7,65,-58,34,-24,0,4,-58,-34
58,-34,-92,-12,75,-63,34,-24,0,4,-68,-29
58,-39,-97,-9,78,-68,34,-19,0,4,-68,-29
58,-39,-97,-9,78,-68,34,-19,4,4,-68,-24
58,-39,-97,-9,78,-68,34,-19,4,4,-68,-24
58,-39,-97,-9,78,-68,43,-14,-4,4,-68,-34
58,-39,-97,-9,78,-68,43,-14,-4,9,-68,-34
53,-39,-92,-7,73,-65,43,-14,-4,9,-63,-34
43,-39,-82,-2,63,-61,43,-14,-4,9,-58,-34
48,-34,-82,-7,65,-58,39,-14,0,14,-53,-29
53,-34,-87,-9,70,-61,39,-14,0,14,-53,-29
58,-39,-97,-9,78,-68,39,-14,0,9,-58,-34
63,-39,-102,-12,82,-70,39,-14,0,9,-58,-34
53,-48,-102,-2,78,-75,48,-4,9,14,-48,-24
58,-43,-102,-7,80,-73,48,-4,9,14,-48,-24
58,-43,-102,-7,80,-73,43,-4,9,14,-53,-24
63,-43,-107,-9,85,-75,43,-4,9,9,-53,-24
53,-43,-97,-4,75,-70,43,-4,9,19,-39,-24
43,-43,-87,0,65,-65,43,0,14,24,-39,-24
43,-43,-87,0,65,-65,43,0,14,24,-39,-19
43,-43,-87,0,65,-65,43,0,14,24,-39,-19
48,-34,-82,-7,65,-58,43,0,14,14,-39,-14
48,-34,-82,-7,65,-58,43,4,14,14,-39,-14
48,-34,-82,-7,65,-58,43,4,14,14,-39,-14
48,-34,-82,-7,65,-58,43,4,14,14,-39,-19
53,-34,-87,-9,70,-61,34,4,19,14,-39,-19
58,-29,-87,-14,73,-58,39,4,19,14,-34,-14
63,-29,-92,-17,78,-61,39,9,19,14,-34,-14
68,-29,-97,-19,82,-63,39,9,19,14,-34,-14
58,-29,-87,-14,73,-58,39,9,19,14,-34,-4
58,-29,-87,-14,73,-58,39,9,19,14,-34,-4
63,-29,-92,-17,78,-61,39,9,19,14,-34,-4
63,-24,-87,-19,75,-56,39,9,19,14,-34,-4
63,-19,-82,-21,73,-51,39,9,19,9,-39,-14
63,-19,-82,-21,73,-51,39,9,19,9,-39,-14
63,-24,-87,-19,75,-56,39,9,19,9,-39,-14
63,-24,-87,-19,75,-56,39,14,19,14,-34,-9
53,-19,-73,-17,63,-46,39,19,29,24,-34,-14
53,-19,-73,-17,63,-46,39,19,29,24,-34,-14
53,-19,-73,-17,63,-46,39,19,34,24,-34,-14
53,-14,-68,-19,61,-41,39,24,39,29,-29,-14
48,-14,-63,-17,56,-39,39,24,39,29,-19,0
48,-14,-63,-17,56,-39,39,24,39,29,-19,0
48,-9,-58,-19,53,-34,39,29,43,29,-19,0
43,-9,-53,-17,48,-31,39,29,48,34,-9,4
58,-9,-68,-24,63,-39,39,34,39,29,-19,4
68,-9,-78,-29,73,-43,39,34,39,29,-19,4
87,-4,-92,-41,90,-48,39,34,39,29,-19,9
92,-4,-97,-43,95,-51,39,39,43,29,-14,9
92,-4,-97,-43,95,-51,29,34,43,29,-14,0
92,-4,-97,-43,95,-51,29,34,43,29,-14,0
97,0,-97,-48,97,-48,29,34,48,34,-14,0
102,0,-102,-51,102,-51,29,39,48,39,-14,4
87,4,-82,-46,85,-39,29,53,63,48,0,4
82,4,-78,-43,80,-36,29,53,63,48,4,4
82,9,-73,-46,78,-31,29,53,68,48,4,9
82,9,-73,-46,78,-31,29,63,68,53,4,9
82,14,-68,-48,75,-26,29,68,73,53,9,19
78,14,-63,-46,70,-24,29,68,82,63,9,19
78,19,-58,-48,68,-19,29,68,82,63,14,24
82,24,-58,-53,70,-17,29,73,87,63,14,29
92,24,-68,-58,80,-21,39,78,87,63,19,34
97,24,-73,-61,85,-24,34,78,87,63,19,34
102,29,-73,-65,87,-21,34,78,92,63,29,39
102,29,-73,-65,87,-21,34,82,97,63,29,39
92,29,-63,-61,78,-17,34,87,97,78,29,43
92,34,-58,-63,75,-12,34,87,107,82,39,48
92,39,-53,-65,73,-7,34,97,112,82,43,53
92,39,-53,-65,73,-7,34,102,117,92,48,58
112,43,-68,-78,90,-12,29,107,112,97,58,58
117,48,-68,-82,92,-9,24,107,117,97,58,63
117,53,-63,-85,90,-4,24,107,117,102,68,68
117,58,-58,-87,87,0,24,112,122,107,73,73
131,73,-58,-102,95,7,24,117,131,112,68,78
136,78,-58,-107,97,9,24,122,131,117,73,82
136,82,-53,-109,95,14,24,126,141,117,78,82
141,82,-58,-112,100,12,24,131,141,117,78,82
141,87,-53,-114,97,17,24,141,146,126,82,82
141,92,-48,-117,95,21,19,141,151,131,87,87
141,97,-43,-119,92,26,14,141,156,131,92,92
136,102,-34,-119,85,34,14,151,161,136,97,97
151,107,-43,-129,97,31,14,141,161,146,112,102
165,112,-53,-139,109,29,4,141,161,146,112,107
165,117,-48,-141,107,34,4,146,165,146,117,112
151,122,-29,-136,90,46,14,151,170,156,122,117
141,126,-14,-134,78,56,14,161,180,165,126,131
151,131,-19,-141,85,56,14,161,180,165,126,131
156,131,-24,-143,90,53,9,161,185,165,126,131
156,136,-19,-146,87,58,9,165,190,170,131,141
161,141,-19,-151,90,61,4,156,180,170,131,131
175,146,-29,-161,102,58,4,151,175,170,131,131
180,151,-29,-165,104,61,4,151,175,170,131,136
185,151,-34,-168,109,58,4,151,175,175,136,136
180,151,-29,-165,104,61,4,161,175,180,146,146
180,151,-29,-165,104,61,4,161,180,180,151,146
175,156,-19,-165,97,68,4,161,180,180,151,151
165,156,-9,-161,87,73,4,161,180,180,156,161
175,156,-19,-165,97,68,4,151,170,185,146,151
180,161,-19,-170,100,70,4,151,170,185,146,151
180,161,-19,-170,100,70,4,151,170,185,146,151
180,156,-24,-168,102,65,4,146,165,180,146,151
175,156,-19,-165,97,68,4,146,175,190,151,161
170,156,-14,-163,92,70,9,146,175,190,156,161
165,151,-14,-158,90,68,9,146,175,185,156,156
161,151,-9,-156,85,70,9,146,175,185,161,156
156,136,-19,-146,87,58,9,141,165,175,156,146
161,136,-24,-148,92,56,14,141,165,170,146,141
161,131,-29,-146,95,51,14,141,161,170,136,136
161,126,-34,-143,97,46,14,136,156,165,131,126
156,131,-24,-143,90,53,24,136,156,161,122,122
151,126,-24,-139,87,51,24,126,146,156,117,112
141,112,-29,-126,85,41,29,126,141,151,107,102
131,107,-24,-119,78,41,34,122,136,146,107,102
126,107,-19,-117,73,43,34,117,126,136,97,102
117,92,-24,-104,70,34,34,112,126,131,92,97
112,87,-24,-100,68,31,34,107,117,126,87,87
112,82,-29,-97,70,26,34,97,107,117,73,82
117,78,-39,-97,78,19,34,87,107,117,68,68
107,68,-39,-87,73,14,39,82,102,112,63,68
107,58,-48,-82,78,4,39,78,92,102,58,58
107,48,-58,-78,82,-4,39,63,78,97,43,43
102,39,-63,-70,82,-12,39,58,78,87,39,43
92,34,-58,-63,75,-12,39,58,73,82,39,43
87,29,-58,-58,73,-14,39,48,68,82,39,39
82,19,-63,-51,73,-21,39,48,68,73,34,34
78,24,-53,-51,65,-14,43,43,73,73,29,39
73,19,-53,-46,63,-17,43,34,58,63,24,29
63,14,-48,-39,56,-17,43,29,58,63,24,29
53,14,-39,-34,46,-12,43,29,58,63,24,29
58,9,-48,-34,53,-19,43,29,48,58,14,14
58,4,-53,-31,56,-24,43,19,39,48,14,4
58,0,-58,-29,58,-29,43,14,39,48,9,4
53,0,-53,-26,53,-26,43,14,39,39,9,4
63,-4,-68,-29,65,-36,34,9,29,29,-4,0
63,-4,-68,-29,65,-36,34,4,24,29,-9,0
63,-4,-68,-29,65,-36,34,0,19,24,-14,-4
58,-4,-63,-26,61,-34,34,0,19,24,-14,-4
53,-14,-68,-19,61,-41,43,0,29,34,-14,-4
53,-14,-68,-19,61,-41,43,0,19,29,-14,-4
53,-14,-68,-19,61,-41,43,0,19,29,-14,-4
53,-14,-68,-19,61,-41,43,0,19,24,-19,-9
43,-14,-58,-14,51,-36,34,-4,9,14,-19,-9
48,-14,-63,-17,56,-39,34,-4,9,14,-19,-9
48,-14,-63,-17,56,-39,34,-9,9,14,-19,-9
43,-19,-63,-12,53,-41,34,-9,9,14,-19,-14
43,-19,-63,-12,53,-41,34,-9,9,24,-19,-14
43,-19,-63,-12,53,-41,34,-4,9,24,-24,-14
48,-19,-68,-14,58,-43,34,-4,9,24,-24,-14
53,-19,-73,-17,63,-46,34,-14,4,14,-24,-19
53,-19,-73,-17,63,-46,34,-14,4,14,-29,-19
53,-19,-73,-17,63,-46,34,-14,0,14,-29,-19
53,-19,-73,-17,63,-46,34,-14,0,14,-29,-14
53,-24,-78,-14,65,-51,34,-14,0,14,-24,-14
43,-24,-68,-9,56,-46,43,-4,14,19,-24,-14
39,-19,-58,-9,48,-39,39,-9,14,19,-24,-14
34,-19,-53,-7,43,-36,39,-9,9,19,-29,-19
29,-19,-48,-4,39,-34,43,-9,9,19,-29,-19
34,-19,-53,-7,43,-36,34,-14,0,9,-29,-14
43,-19,-63,-12,53,-41,34,-14,0,9,-29,-14
53,-19,-73,-17,63,-46,34,-14,0,9,-29,-14
63,-19,-82,-21,73,-51,34,-14,0,9,-29,-14
53,-19,-73,-17,63,-46,43,-4,9,19,-19,-4
48,-19,-68,-14,58,-43,39,-9,4,19,-19,-9
39,-19,-58,-9,48,-39,39,-9,4,19,-19,-9
29,-19,-48,-4,39,-34,43,-4,9,19,-14,-9
34,-19,-53,-7,43,-36,34,-4,0,9,-24,-19
34,-19,-53,-7,43,-36,34,-4,0,9,-29,-19
34,-19,-53,-7,43,-36,29,-14,0,9,-29,-19
34,-19,-53,-7,43,-36,29,-14,0,9,-24,-14
48,-19,-68,-14,58,-43,24,-24,0,9,-24,-14
48,-19,-68,-14,58,-43,24,-24,-4,4,-24,-19
53,-19,-73,-17,63,-46,24,-24,-4,4,-24,-19
53,-19,-73,-17,63,-46,24,-24,-4,9,-24,-19
58,-19,-78,-19,68,-48,34,-19,-4,19,-24,-14
58,-19,-78,-19,68,-48,34,-14,-4,19,-24,-14
48,-19,-68,-14,58,-43,39,-14,-4,19,-24,-14
48,-19,-68,-14,58,-43,39,-19,-4,24,-24,-14
43,-19,-63,-12,53,-41,24,-19,-4,24,-24,-19
53,-19,-73,-17,63,-46,24,-19,-4,24,-24,-19
43,-19,-63,-12,53,-41,24,-19,-4,24,-24,-19
39,-19,-58,-9,48,-39,24,-19,-4,24,-24,-14
34,-19,-53,-7,43,-36,29,-19,4,34,-14,-4
29,-19,-48,-4,39,-34,29,-14,4,34,-14,-4
29,-19,-48,-4,39,-34,29,-14,9,34,-14,-4
24,-19,-43,-2,34,-31,29,-14,9,34,-14,-4
24,-9,-34,-7,29,-21,29,-14,0,34,-14,-14
29,-9,-39,-9,34,-24,29,-14,0,34,-14,-14
39,-9,-48,-14,43,-29,29,-14,0,34,-14,-14
43,-9,-53,-17,48,-31,29,-14,0,34,-14,-14
34,-9,-43,-12,39,-26,29,-4,0,24,-24,-14
34,-9,-43,-12,39,-26,29,-4,0,24,-24,-14
34,-9,-43,-12,39,-26,29,-4,0,24,-24,-14
34,-9,-43,-12,39,-26,29,-4,0,24,-19,-14
43,-9,-53,-17,48,-31,29,-14,0,24,-19,-14
43,-9,-53,-17,48,-31,24,-14,0,24,-19,-14
43,-9,-53,-17,48,-31,24,-14,0,24,-19,-14
39,-9,-48,-14,43,-29,29,-14,0,29,-19,-14
29,-9,-39,-9,34,-24,29,-4,9,19,-19,-4
43,-9,-53,-17,48,-31,29,-4,9,19,-19,-9
34,-9,-43,-12,39,-26,29,-4,9,19,-19,-9
29,-9,-39,-9,34,-24,29,-4,9,19,-19,-9
29,-9,-39,-9,34,-24,29,-4,0,29,-19,-9
34,-9,-43,-12,39,-26,29,-4,0,29,-19,-4
34,-9,-43,-12,39,-26,29,-4,0,29,-19,-4
34,-9,-43,-12,39,-26,29,-4,0,29,-19,-4
43,-9,-53,-17,48,-31,19,-4,0,29,-19,-14
43,-9,-53,-17,48,-31,19,-4,0,29,-19,-14
43,-9,-53,-17,48,-31,19,-4,0,29,-19,-14
48,-9,-58,-19,53,-34,19,-4,0,29,-19,-14
43,-9,-53,-17,48,-31,29,4,9,29,-9,-4
34,-9,-43,-12,39,-26,29,4,9,29,-9,-4
29,-9,-39,-9,34,-24,29,4,9,29,-9,-4
29,-9,-39,-9,34,-24,29,4,9,29,-9,-4
39,-9,-48,-14,43,-29,29,-4,9,19,-19,-14
39,-9,-48,-14,43,-29,29,-4,9,19,-19,-14
39,-9,-48,-14,43,-29,29,-4,9,19,-19,-14
39,-9,-48,-14,43,-29,29,0,9,19,-19,-14
43,-9,-53,-17,48,-31,29,0,0,19,-19,-14
43,-9,-53,-17,48,-31,29,0,0,19,-19,-14
34,-9,-43,-12,39,-26,29,0,4,19,-19,-14
34,-9,-43,-12,39,-26,29,0,4,19,-19,-14
43,-9,-53,-17,48,-31,29,0,4,14,-19,-4
48,-9,-58,-19,53,-34,29,0,4,14,-19,-4
48,-9,-58,-19,53,-34,29,0,4,14,-19,-4
48,-9,-58,-19,53,-34,29,0,4,14,-19,-4
39,-14,-53,-12,46,-34,39,0,4,24,-19,-4
39,-14,-53,-12,46,-34,39,0,4,24,-19,-4
39,-14,-53,-12,46,-34,39,0,4,24,-19,-4
39,-14,-53,-12,46,-34,39,0,4,24,-19,-4
39,-14,-53,-12,46,-34,29,0,4,19,-19,-14
39,-14,-53,-12,46,-34,29,-4,4,19,-24,-14
39,-19,-58,-9,48,-39,29,-4,4,19,-24,-14
39,-19,-58,-9,48,-39,29,0,4,19,-24,-14
43,-19,-63,-12,53,-41,29,0,0,14,-14,-14
43,-19,-63,-12,53,-41,29,0,0,14,-19,-14
43,-19,-63,-12,53,-41,29,0,4,19,-19,-14
43,-14,-58,-14,51,-36,29,0,4,19,-19,-14
53,-14,-68,-19,61,-41,29,-9,-9,4,-29,-19
48,-19,-68,-14,58,-43,29,-9,-9,4,-24,-19
48,-19,-68,-14,58,-43,29,-9,-9,4,-24,-19
48,-19,-68,-14,58,-43,29,-9,-9,4,-24,-24
43,-19,-63,-12,53,-41,29,0,-9,14,-19,-19
39,-19,-58,-9,48,-39,29,0,-4,14,-19,-19
34,-24,-58,-4,46,-41,29,0,0,14,-19,-19
29,-24,-53,-2,41,-39,29,-4,4,14,-19,-19
24,-24,-48,0,36,-36,34,4,-4,14,-19,-9
19,-24,-43,2,31,-34,34,0,-4,14,-19,-9
14,-24,-39,4,26,-31,39,0,-4,14,-19,-9
9,-24,-34,7,21,-29,39,0,-4,14,-19,-9
19,-24,-43,2,31,-34,29,-4,-14,4,-29,-19
29,-24,-53,-2,41,-39,29,-9,-14,4,-34,-19
34,-24,-58,-4,46,-41,29,-14,-19,4,-34,-19
43,-24,-68,-9,56,-46,29,-19,-19,0,-34,-24
39,-24,-63,-7,51,-43,24,-19,-9,0,-24,-24
39,-24,-63,-7,51,-43,24,-19,-9,-4,-24,-24
39,-24,-63,-7,51,-43,29,-19,-9,-4,-29,-24
39,-24,-63,-7,51,-43,29,-19,-9,0,-29,-24
48,-24,-73,-12,61,-48,29,-14,-19,0,-34,-34
48,-24,-73,-12,61,-48,29,-14,-19,0,-34,-34
48,-29,-78,-9,63,-53,29,-14,-19,0,-34,-34
48,-29,-78,-9,63,-53,24,-14,-24,0,-34,-34
39,-29,-68,-4,53,-48,24,-14,-14,0,-34,-29
34,-29,-63,-2,48,-46,24,-14,-9,0,-34,-29
34,-29,-63,-2,48,-46,24,-14,-9,0,-34,-24
34,-29,-63,-2,48,-46,24,-14,-9,0,-34,-14
34,-29,-63,-2,48,-46,24,-14,-9,4,-34,-24
34,-29,-63,-2,48,-46,29,-14,-14,4,-34,-24
29,-29,-58,0,43,-43,29,-19,-14,0,-34,-24
29,-29,-58,0,43,-43,29,-19,-14,0,-34,-29
19,-34,-53,7,36,-43,29,-19,-14,9,-24,-29
19,-34,-53,7,36,-43,29,-19,-14,9,-24,-29
24,-29,-53,2,39,-41,29,-19,-19,9,-24,-34
24,-29,-53,2,39,-41,29,-19,-19,4,-29,-34
29,-19,-48,-4,39,-34,24,-19,-24,4,-39,-29
29,-24,-53,-2,41,-39,24,-19,-24,4,-34,-29
34,-24,-58,-4,46,-41,24,-19,-24,4,-34,-29
34,-24,-58,-4,46,-41,24,-19,-24,4,-34,-29
24,-24,-48,0,36,-36,24,-19,-14,-4,-34,-19
24,-29,-53,2,39,-41,24,-19,-14,0,-34,-19
24,-29,-53,2,39,-41,24,-24,-14,0,-34,-14
24,-29,-53,2,39,-41,19,-24,-14,0,-34,-14
34,-29,-63,-2,48,-46,19,-24,-14,0,-39,-19
39,-29,-68,-4,53,-48,19,-24,-14,-4,-43,-24
39,-24,-63,-7,51,-43,19,-24,-24,-4,-43,-29
39,-24,-63,-7,51,-43,19,-24,-24,-4,-43,-34
34,-24,-58,-4,46,-41,24,-24,-19,-4,-43,-29
34,-24,-58,-4,46,-41,24,-24,-19,-4,-43,-34
39,-24,-63,-7,51,-43,19,-24,-19,-4,-43,-34
43,-24,-68,-9,56,-46,19,-24,-19,-4,-43,-34
39,-24,-63,-7,51,-43,19,-24,-19,-4,-34,-34
34,-29,-63,-2,48,-46,19,-24,-19,-4,-34,-29
19,-29,-48,4,34,-39,19,-24,-19,-4,-34,-29
14,-24,-39,4,26,-31,19,-24,-19,-4,-34,-29
29,-34,-63,2,46,-48,19,-24,-19,-4,-43,-29
29,-34,-63,2,46,-48,19,-24,-19,-4,-43,-34
29,-34,-63,2,46,-48,19,-29,-19,-4,-43,-34
29,-34,-63,2,46,-48,19,-29,-19,-4,-43,-34
29,-24,-53,-2,41,-39,19,-29,-19,-4,-43,-29
29,-24,-53,-2,41,-39,19,-24,-24,0,-43,-29
29,-24,-53,-2,41,-39,14,-24,-24,0,-43,-29
29,-29,-58,0,43,-43,14,-24,-24,0,-43,-29
29,-29,-58,0,43,-43,19,-24,-24,0,-43,-39
29,-29,-58,0,43,-43,19,-24,-24,0,-43,-39
29,-29,-58,0,43,-43,19,-29,-24,-4,-43,-43
29,-29,-58,0,43,-43,14,-29,-24,-4,-48,-48
34,-29,-63,-2,48,-46,24,-29,-24,-4,-39,-39
34,-29,-63,-2,48,-46,24,-29,-24,-4,-39,-39
29,-29,-58,0,43,-43,24,-29,-24,-4,-39,-34
29,-24,-53,-2,41,-39,29,-29,-24,-4,-39,-34
34,-24,-58,-4,46,-41,19,-24,-19,-14,-43,-34
34,-24,-58,-4,46,-41,19,-24,-19,-14,-43,-34
34,-29,-63,-2,48,-46,19,-24,-24,-14,-48,-39
39,-29,-68,-4,53,-48,14,-29,-24,-14,-48,-39
48,-29,-78,-9,63,-53,24,-29,-24,-14,-39,-39
58,-29,-87,-14,73,-58,19,-34,-34,-19,-43,-39
29,-29,-58,0,43,-43,29,-24,-24,-9,-43,-34
-29,-29,0,29,-14,-14,39,-9,-9,4,-24,-24
-48,-29,19,39,-34,-4,58,0,0,19,-9,-9
-29,-29,0,29,-14,-14,48,-14,-14,4,-19,-24
-9,-29,-19,19,4,-24,39,-19,-19,0,-29,-29
9,-29,-39,9,24,-34,29,-24,-24,-4,-39,-34
29,-29,-58,0,43,-43,19,-29,-29,-9,-48,-39
29,-29,-58,0,43,-43,19,-29,-29,-9,-39,-39
29,-29,-58,0,43,-43,19,-29,-29,-9,-39,-39
29,-29,-58,0,43,-43,19,-29,-29,-9,-39,-39
29,-29,-58,0,43,-43,19,-29,-29,-9,-39,-39
29,-29,-58,0,43,-43,19,-29,-29,-9,-39,-48
29,-29,-58,0,43,-43,19,-29,-29,-9,-39,-48
29,-29,-58,0,43,-43,19,-29,-29,-9,-39,-48
29,-29,-58,0,43,-43,19,-29,-29,-9,-39,-48
29,-29,-58,0,43,-43,19,-19,-19,-9,-39,-39
29,-29,-58,0,43,-43,19,-19,-19,-9,-39,-39
29,-29,-58,0,43,-43,19,-19,-19,-9,-39,-39
29,-29,-58,0,43,-43,19,-19,-19,-9,-39,-39
19,-29,-48,4,34,-39,29,-19,-29,-9,-39,-39
19,-29,-48,4,34,-39,29,-19,-29,-9,-39,-39
19,-29,-48,4,34,-39,29,-19,-29,-9,-39,-39
19,-29,-48,4,34,-39,29,-19,-29,-9,-39,-39
19,-39,-58,9,39,-48,19,-19,-29,0,-39,-39
19,-39,-58,9,39,-48,19,-19,-29,0,-39,-39
19,-39,-58,9,39,-48,19,-19,-29,0,-39,-39
19,-39,-58,9,39,-48,19,-19,-29,0,-39,-39
19,-39,-58,9,39,-48,29,-19,-29,-9,-39,-39
19,-39,-58,9,39,-48,29,-19,-29,-9,-39,-39
19,-39,-58,9,39,-48,29,-19,-29,-9,-39,-39
19,-39,-58,9,39,-48,29,-19,-29,-9,-39,-39
29,-39,-68,4,48,-53,19,-29,-29,-9,-48,-48
29,-39,-68,4,48,-53,19,-29,-29,-9,-48,-48
29,-39,-68,4,48,-53,19,-29,-29,-9,-48,-48
29,-39,-68,4,48,-53,19,-29,-29,-9,-48,-48
39,-39,-78,0,58,-58,29,-29,-29,-9,-48,-39
39,-39,-78,0,58,-58,29,-29,-29,-9,-48,-39
39,-39,-78,0,58,-58,29,-29,-29,-9,-48,-39
39,-39,-78,0,58,-58,29,-29,-29,-9,-48,-39
29,-34,-63,2,46,-48,39,-19,-19,0,-39,-29
29,-29,-58,0,43,-43,39,-19,-19,0,-39,-29
29,-24,-53,-2,41,-39,39,-19,-19,0,-39,-29
29,-19,-48,-4,39,-34,39,-19,-19,0,-39,-29
34,-9,-43,-12,39,-26,39,-19,-19,0,-29,-39
39,-9,-48,-14,43,-29,39,-19,-19,0,-29,-39
43,-9,-53,-17,48,-31,39,-19,-19,0,-29,-39
48,-9,-58,-19,53,-34,39,-19,-19,0,-29,-39
39,-4,-43,-17,41,-24,53,-4,-4,4,-24,-34
39,0,-39,-19,39,-19,58,0,0,9,-19,-29
39,4,-34,-21,36,-14,63,4,4,14,-14,-24
39,9,-29,-24,34,-9,68,9,9,19,-9,-19
48,19,-29,-34,39,-4,68,9,9,29,-9,-9
48,19,-29,-34,39,-4,68,9,9,29,-9,-9
48,19,-29,-34,39,-4,68,9,9,29,-9,-9
48,19,-29,-34,39,-4,68,9,9,29,-9,-9
58,19,-39,-39,48,-9,68,9,9,29,-9,-9
58,19,-39,-39,48,-9,68,9,9,29,-9,-9
58,19,-39,-39,48,-9,68,9,9,29,-9,-9
58,19,-39,-39,48,-9,68,9,9,29,-9,-9
68,29,-39,-48,53,-4,63,19,19,29,0,0
68,29,-39,-48,53,-4,58,19,19,29,0,0
68,29,-39,-48,53,-4,53,19,19,29,0,0
68,29,-39,-48,53,-4,48,19,19,29,0,0
73,39,-34,-56,53,2,43,19,19,29,9,9
78,39,-39,-58,58,0,39,19,19,29,9,9
82,39,-43,-61,63,-2,34,19,19,29,9,9
87,39,-48,-63,68,-4,29,19,19,29,9,9
87,48,-39,-68,63,4,24,9,19,29,9,9
87,48,-39,-68,63,4,19,9,19,29,9,9
87,48,-39,-68,63,4,14,9,19,29,9,9
87,48,-39,-68,63,4,9,9,19,29,9,9
97,43,-53,-70,75,-4,0,0,14,19,0,0
97,39,-58,-68,78,-9,0,0,9,19,0,0
97,34,-63,-65,80,-14,0,0,4,19,0,0
97,29,-68,-63,82,-19,-4,-4,-4,19,0,0
97,34,-63,-65,80,-14,-4,-4,4,14,-4,9
97,29,-68,-63,82,-19,-4,-4,4,14,-4,9
92,29,-63,-61,78,-17,-4,-4,4,14,-4,9
92,24,-68,-58,80,-21,-4,-9,0,14,-4,9
87,19,-68,-53,78,-24,4,-14,0,14,-9,4
73,9,-63,-41,68,-26,4,-14,-4,9,-9,-4
63,0,-63,-31,63,-31,9,-9,-9,4,-9,-9
58,-9,-68,-24,63,-39,9,-4,-9,0,-14,-9
58,-24,-82,-17,70,-53,9,-14,-19,-4,-29,-19
53,-24,-78,-14,65,-51,9,-14,-19,-4,-34,-24
48,-24,-73,-12,61,-48,9,-14,-19,-4,-34,-29
43,-29,-73,-7,58,-51,9,-14,-19,-4,-34,-29
48,-29,-78,-9,63,-53,0,-14,-24,-4,-34,-29
53,-29,-82,-12,68,-56,0,-19,-24,-14,-34,-34
53,-34,-87,-9,70,-61,0,-19,-34,-14,-34,-39
34,-39,-73,2,53,-56,4,-29,-34,-19,-43,-39
34,-53,-87,9,61,-70,4,-43,-48,-34,-48,-48
24,-58,-82,17,53,-70,9,-48,-53,-39,-53,-53
24,-63,-87,19,56,-75,9,-53,-53,-43,-58,-53
24,-68,-92,21,58,-80,4,-53,-53,-43,-63,-58
19,-78,-97,29,58,-87,14,-53,-53,-43,-63,-73
19,-78,-97,29,58,-87,14,-53,-53,-43,-63,-73
14,-78,-92,31,53,-85,14,-53,-53,-48,-63,-73
9,-78,-87,34,48,-82,14,-58,-58,-48,-63,-73
9,-78,-87,34,48,-82,4,-58,-58,-48,-58,-68
9,-78,-87,34,48,-82,4,-53,-53,-48,-58,-68
0,-82,-82,41,41,-82,9,-53,-53,-48,-58,-68
0,-82,-82,41,41,-82,9,-53,-53,-48,-58,-68
4,-73,-78,34,41,-75,14,-53,-53,-48,-63,-68
4,-73,-78,34,41,-75,14,-58,-63,-48,-63,-68
9,-73,-82,31,46,-78,14,-58,-63,-48,-63,-73
9,-73,-82,31,46,-78,14,-58,-58,-48,-63,-73
0,-78,-78,39,39,-78,4,-58,-58,-48,-63,-73
0,-78,-78,39,39,-78,4,-58,-58,-48,-63,-73
0,-78,-78,39,39,-78,4,-58,-58,-48,-63,-73
0,-78,-78,39,39,-78,4,-58,-58,-48,-68,-73
-4,-78,-73,41,34,-75,4,-58,-58,-39,-68,-73
-4,-78,-73,41,34,-75,9,-53,-58,-39,-63,-73
-4,-78,-73,41,34,-75,9,-53,-58,-39,-63,-73
-4,-78,-73,41,34,-75,4,-58,-58,-39,-63,-73
-4,-68,-63,36,29,-65,4,-58,-68,-48,-63,-73
0,-68,-68,34,34,-68,4,-58,-58,-48,-63,-73
4,-68,-73,31,39,-70,4,-58,-58,-48,-63,-73
9,-68,-78,29,43,-73,4,-58,-58,-48,-63,-73
0,-68,-68,34,34,-68,14,-48,-48,-39,-63,-73
0,-68,-68,34,34,-68,14,-48,-48,-43,-63,-73
0,-63,-63,31,31,-63,14,-48,-53,-43,-68,-68
4,-63,-68,29,36,-65,14,-48,-53,-43,-68,-68
-4,-73,-68,39,31,-70,14,-48,-48,-43,-68,-68
-4,-73,-68,39,31,-70,14,-48,-48,-43,-68,-68
0,-73,-73,36,36,-73,14,-48,-48,-43,-68,-68
0,-73,-73,36,36,-73,14,-48,-48,-43,-63,-68
4,-63,-68,29,36,-65,4,-48,-58,-39,-63,-68
0,-63,-63,31,31,-63,4,-48,-58,-39,-63,-68
0,-63,-63,31,31,-63,4,-48,-58,-39,-63,-68
4,-63,-68,29,36,-65,4,-48,-58,-43,-63,-68
4,-63,-68,29,36,-65,14,-48,-48,-43,-63,-58
0,-63,-63,31,31,-63,14,-48,-48,-39,-63,-58
-4,-63,-58,34,26,-61,14,-48,-48,-39,-63,-58
-4,-63,-58,34,26,-61,14,-48,-48,-39,-63,-58
4,-63,-68,29,36,-65,4,-48,-63,-48,-73,-68
4,-63,-68,29,36,-65,4,-48,-63,-48,-73,-68
4,-63,-68,29,36,-65,4,-48,-58,-48,-73,-68
4,-63,-68,29,36,-65,4,-48,-58,-48,-73,-68
-4,-63,-58,34,26,-61,14,-48,-48,-39,-63,-68
0,-63,-63,31,31,-63,14,-48,-48,-39,-63,-68
0,-63,-63,31,31,-63,14,-48,-48,-39,-63,-68
0,-58,-58,29,29,-58,14,-48,-48,-39,-63,-68
0,-48,-48,24,24,-48,9,-43,-48,-39,-53,-68
-4,-48,-43,26,19,-46,9,-43,-48,-34,-53,-68
-4,-48,-43,26,19,-46,9,-48,-43,-29,-53,-68
0,-48,-48,24,24,-48,9,-48,-43,-29,-53,-63
29,-48,-78,9,53,-63,9,-53,-63,-48,-63,-73
9,-48,-58,19,34,-53,14,-34,-48,-39,-53,-63
-24,-53,-29,39,2,-41,39,-19,-29,-24,-43,-53
-4,-68,-63,36,29,-65,39,-9,-24,-24,-58,-73
9,-78,-87,34,48,-82,53,-4,-19,-34,-68,-87
0,-68,-68,34,34,-68,68,9,-4,-19,-58,-78
-19,-68,-48,43,14,-58,78,48,29,9,-29,-53
-19,-63,-43,41,12,-53,82,68,48,29,-9,-48
19,-53,-73,17,46,-63,73,97,82,48,-4,-48
39,-24,-63,-7,51,-43,82,141,131,92,39,-14
19,9,-9,-14,14,0,92,219,209,161,102,39
53,48,-4,-51,29,21,82,292,287,229,161,82
112,97,-14,-104,63,41,53,346,351,297,224,126
126,151,24,-139,51,87,14,346,380,356,297,195
146,214,68,-180,39,141,-48,312,390,424,370,263
170,268,97,-219,36,183,-97,278,390,478,439,341
200,322,122,-261,39,222,-146,229,375,517,507,409
219,380,161,-300,29,270,-234,151,351,546,551,458
244,409,165,-326,39,287,-351,34,297,546,585,507
253,439,185,-346,34,312,-439,-78,229,541,595,536
239,448,209,-344,14,329,-497,-170,151,492,561,507
239,453,214,-346,12,334,-556,-297,34,405,497,483
239,458,219,-348,9,339,-629,-439,-112,307,409,434
224,468,244,-346,-9,356,-707,-566,-248,214,326,390
204,463,258,-334,-26,361,-751,-668,-366,122,248,356
156,424,268,-290,-56,346,-790,-780,-483,19,151,292
126,356,229,-241,-51,292,-814,-888,-605,-102,29,195
107,292,185,-200,-39,239,-839,-976,-692,-204,-63,117
92,253,161,-173,-34,207,-839,-1024,-775,-263,-122,73
53,239,185,-146,-65,212,-800,-1068,-834,-322,-161,48
-9,214,224,-102,-117,219,-741,-1054,-863,-336,-185,14
-63,180,244,-58,-153,212,-668,-976,-819,-326,-195,4
-82,136,219,-26,-151,178,-585,-873,-741,-312,-200,-19
-112,102,214,4,-163,158,-492,-756,-658,-287,-200,-39
-112,87,200,12,-156,143,-414,-644,-556,-268,-185,-48
-87,78,165,4,-126,122,-361,-541,-473,-244,-185,-58
-68,48,117,9,-92,82,-317,-453,-390,-224,-180,-78
-48,34,82,7,-65,58,-273,-385,-317,-190,-161,-78
-43,43,87,0,-65,65,-224,-302,-258,-151,-122,-63
-34,34,68,0,-51,51,-180,-244,-214,-102,-92,-43
-4,34,39,-14,-21,36,-122,-195,-180,-87,-78,-48
14,19,4,-17,4,12,-82,-151,-161,-78,-82,-53
-4,19,24,-7,-14,21,-43,-126,-126,-78,-73,-43
-14,14,29,0,-21,21,-29,-107,-102,-73,-68,-43
-9,14,24,-2,-17,19,-19,-92,-78,-63,-68,-43
-19,14,34,2,-26,24,-19,-63,-53,-39,-53,-29
-9,14,24,-2,-17,19,-19,-48,-39,-24,-43,-29
0,0,0,0,0,0,-9,-39,-39,-19,-39,-29
0,-4,-4,2,2,-4,0,-39,-48,-19,-39,-43
4,-14,-19,4,12,-17,9,-39,-48,-19,-39,-48
4,-19,-24,7,14,-21,19,-24,-43,-19,-48,-48
0,-19,-19,9,9,-19,24,-24,-43,-19,-48,-48
4,-19,-24,7,14,-21,24,-19,-29,-29,-48,-48
4,-24,-29,9,17,-26,19,-19,-24,-29,-48,-48
9,-24,-34,7,21,-29,19,-19,-24,-29,-48,-48
9,-24,-34,7,21,-29,19,-19,-24,-29,-48,-48
9,-24,-34,7,21,-29,24,-14,-14,-24,-43,-48
9,-24,-34,7,21,-29,24,-9,-14,-24,-43,-48
9,-24,-34,7,21,-29,29,-9,-14,-24,-43,-53
14,-24,-39,4,26,-31,29,-9,-14,-24,-43,-53
4,-19,-24,7,14,-21,29,-4,-9,-24,-34,-48
4,-19,-24,7,14,-21,29,-4,-4,-19,-34,-48
4,-19,-24,7,14,-21,29,0,-4,-19,-34,-48
4,-19,-24,7,14,-21,29,0,-4,-19,-34,-48
4,-29,-34,12,19,-31,29,0,-4,-9,-39,-48
4,-29,-34,12,19,-31,29,0,-4,-9,-39,-48
4,-24,-29,9,17,-26,34,0,-4,-9,-39,-48
4,-24,-29,9,17,-26,34,4,-4,-9,-39,-43
19,-24,-43,2,31,-34,34,4,-14,-19,-43,-53
19,-24,-43,2,31,-34,34,4,-14,-14,-43,-53
19,-24,-43,2,31,-34,34,4,-9,-14,-43,-53
19,-24,-43,2,31,-34,34,4,-9,-14,-39,-53
9,-14,-24,2,17,-19,34,4,-9,-14,-39,-48
9,-19,-29,4,19,-24,34,9,-9,-14,-39,-48
9,-19,-29,4,19,-24,34,9,-4,-14,-39,-43
9,-19,-29,4,19,-24,34,9,-4,-14,-39,-43
14,-29,-43,7,29,-36,34,14,-4,-14,-39,-43
19,-29,-48,4,34,-39,34,14,-4,-9,-39,-43
19,-29,-48,4,34,-39,34,14,-4,-9,-34,-43
14,-29,-43,7,29,-36,34,14,-4,-9,-29,-43
19,-14,-34,-2,26,-24,39,14,-9,-4,-34,-39
24,-14,-39,-4,31,-26,39,14,-9,-4,-34,-39
29,-19,-48,-4,39,-34,39,14,-9,-9,-39,-43
34,-19,-53,-7,43,-36,39,14,-9,-9,-39,-43
24,-19,-43,-2,34,-31,48,24,0,4,-34,-34
19,-14,-34,-2,26,-24,48,24,0,4,-29,-34
9,-14,-24,2,17,-19,43,24,0,4,-29,-34
4,-14,-19,4,12,-17,43,24,0,0,-24,-34
19,-14,-34,-2,26,-24,43,24,0,-9,-19,-43
14,-14,-29,0,21,-21,43,29,4,-4,-19,-43
19,-14,-34,-2,26,-24,43,29,4,-4,-19,-39
24,-14,-39,-4,31,-26,43,29,4,-4,-19,-39
24,-14,-39,-4,31,-26,43,29,14,-4,-9,-34
19,-14,-34,-2,26,-24,43,34,14,-4,-9,-34
14,-14,-29,0,21,-21,43,34,14,-4,-9,-34
9,-14,-24,2,17,-19,43,34,14,-4,-9,-39
14,-14,-29,0,21,-21,34,24,9,-14,-19,-48
19,-9,-29,-4,24,-19,39,24,9,-14,-14,-43
24,-9,-34,-7,29,-21,39,29,9,-14,-14,-43
29,-9,-39,-9,34,-24,39,29,9,-14,-14,-43
19,-9,-29,-4,24,-19,39,39,9,-4,-14,-34
19,-9,-29,-4,24,-19,39,39,9,-4,-14,-34
24,-9,-34,-7,29,-21,39,39,9,-4,-14,-34
24,-4,-29,-9,26,-17,39,39,9,-4,-14,-34
24,0,-24,-12,24,-12,39,39,19,0,-9,-24
24,0,-24,-12,24,-12,39,39,19,0,-9,-24
24,-4,-29,-9,26,-17,39,39,19,0,-9,-24
24,-4,-29,-9,26,-17,39,43,19,4,-4,-19
24,0,-24,-12,24,-12,39,48,19,4,-4,-24
24,0,-24,-12,24,-12,39,48,19,4,-4,-24
24,0,-24,-12,24,-12,39,48,24,4,-4,-24
24,4,-19,-14,21,-7,39,53,29,9,0,-24
29,4,-24,-17,26,-9,39,53,29,9,-9,-19
29,4,-24,-17,26,-9,39,53,29,9,-9,-19
29,9,-19,-19,24,-4,39,58,34,9,-9,-19
24,9,-14,-17,19,-2,39,58,39,14,0,-14
14,0,-14,-7,14,-7,39,63,39,9,0,-24
19,0,-19,-9,19,-9,39,63,39,9,0,-24
34,4,-29,-19,31,-12,39,63,39,9,0,-19
34,4,-29,-19,31,-12,39,68,43,9,4,-19
34,14,-19,-24,26,-2,39,73,53,19,14,-9
34,14,-19,-24,26,-2,39,73,53,19,14,-9
39,19,-19,-29,29,0,39,73,58,24,14,-9
43,19,-24,-31,34,-2,39,78,58,29,14,-4
53,24,-29,-39,41,-2,39,73,53,29,9,-4
53,24,-29,-39,41,-2,39,73,53,29,14,-4
58,29,-29,-43,43,0,39,73,58,29,14,0
63,29,-34,-46,48,-2,39,82,58,34,14,0
53,34,-19,-43,36,7,39,87,53,34,29,0
48,34,-14,-41,31,9,39,87,63,43,29,0
48,39,-9,-43,29,14,39,87,63,43,34,4
53,43,-9,-48,31,17,39,92,68,43,34,9
63,34,-29,-48,46,2,39,107,78,43,39,14
68,34,-34,-51,51,0,34,107,78,43,39,14
73,39,-34,-56,53,2,34,107,82,43,48,19
73,39,-34,-56,53,2,34,112,87,43,48,19
73,48,-24,-61,48,12,43,117,87,58,39,24
73,53,-19,-63,46,17,43,117,97,63,48,29
73,58,-14,-65,43,21,43,126,102,63,53,34
73,58,-14,-65,43,21,43,131,107,73,58,39
73,63,-9,-68,41,26,39,136,112,78,68,29
78,68,-9,-73,43,29,34,136,117,78,68,34
78,73,-4,-75,41,34,34,136,117,82,78,39
78,78,0,-78,39,39,34,141,122,87,82,43
82,82,0,-82,41,41,34,156,131,102,87,58
87,87,0,-87,43,43,34,161,131,107,92,63
87,92,4,-90,41,48,34,165,141,107,97,63
92,92,0,-92,46,46,34,170,141,107,97,63
107,97,-9,-102,58,43,34,161,136,107,92,73
112,102,-9,-107,61,46,29,161,141,112,97,78
117,107,-9,-112,63,48,24,161,146,112,102,82
117,112,-4,-114,61,53,24,170,151,117,107,87
131,117,-14,-124,73,51,24,161,141,126,112,82
146,122,-24,-134,85,48,14,161,141,126,112,87
146,126,-19,-136,82,53,14,165,146,126,117,92
131,131,0,-131,65,65,24,170,151,136,122,97
126,146,19,-136,53,82,24,180,161,146,136,112
131,151,19,-141,56,85,24,180,161,146,136,112
131,151,19,-141,56,85,19,180,165,146,136,112
126,156,29,-141,48,92,19,185,170,151,141,122
126,151,24,-139,51,87,14,195,170,161,151,122
136,156,19,-146,58,87,14,190,165,161,151,122
136,161,24,-148,56,92,14,190,165,161,151,126
136,161,24,-148,56,92,14,190,165,165,156,126
136,170,34,-153,51,102,14,180,165,161,146,126
141,170,29,-156,56,100,14,180,170,161,151,126
141,175,34,-158,53,104,14,180,170,161,151,131
136,175,39,-156,48,107,14,180,170,161,156,141
146,175,29,-161,58,102,14,180,161,165,156,131
151,180,29,-165,61,104,14,180,161,165,156,131
151,180,29,-165,61,104,14,180,161,165,156,131
151,175,24,-163,63,100,14,175,156,161,156,131
141,175,34,-158,53,104,14,175,165,170,165,141
141,175,34,-158,53,104,19,175,165,170,165,141
141,170,29,-156,56,100,19,175,165,165,161,136
141,170,29,-156,56,100,19,175,165,165,161,136
131,165,34,-148,48,100,19,170,156,156,151,126
131,165,34,-148,48,100,24,170,156,151,146,122
126,161,34,-143,46,97,24,170,151,151,141,117
122,156,34,-139,43,95,24,165,146,146,141,107
131,141,9,-136,61,75,34,156,146,131,122,102
131,136,4,-134,63,70,34,146,136,126,117,92
126,122,-4,-124,65,58,39,146,131,122,107,82
122,117,-4,-119,63,56,43,141,126,117,107,82
107,117,9,-112,48,63,43,126,117,117,107,73
97,102,4,-100,46,53,43,122,117,112,102,68
92,97,4,-95,43,51,43,117,107,107,97,58
92,92,0,-92,46,46,43,107,97,97,82,53
87,87,0,-87,43,43,34,107,97,97,78,58
78,78,0,-78,39,39,39,102,92,92,73,58
78,68,-9,-73,43,29,39,97,82,82,68,48
78,58,-19,-68,48,19,39,82,68,78,53,34
68,58,-9,-63,39,24,39,78,68,68,48,24
53,53,0,-53,26,26,39,78,63,63,48,24
43,48,4,-46,19,26,39,68,58,63,48,19
34,39,4,-36,14,21,39,68,58,53,43,14
39,34,-4,-36,21,14,34,63,53,48,29,19
43,29,-14,-36,29,7,34,53,39,34,24,9
43,24,-19,-34,31,2,34,48,39,29,24,9
43,24,-19,-34,31,2,34,48,39,24,24,9
48,19,-29,-34,39,-4,34,48,29,29,4,-4
48,14,-34,-31,41,-9,34,39,19,19,4,-14
48,9,-39,-29,43,-14,34,34,19,19,0,-14
43,9,-34,-26,39,-12,34,34,19,9,0,-14
34,4,-29,-19,31,-12,34,29,19,9,4,-19
34,4,-29,-19,31,-12,34,24,14,9,0,-19
34,4,-29,-19,31,-12,34,19,9,4,-4,-24
29,4,-24,-17,26,-9,34,19,9,4,-4,-24
24,4,-19,-14,21,-7,43,19,19,4,-4,-24
24,4,-19,-14,21,-7,43,19,9,0,-4,-24
24,4,-19,-14,21,-7,43,19,9,0,-4,-24
24,4,-19,-14,21,-7,43,19,9,-4,-9,-29
14,-4,-19,-4,17,-12,43,14,0,-4,-9,-29
19,-4,-24,-7,21,-14,43,14,0,-4,-9,-29
19,-4,-24,-7,21,-14,43,9,0,-4,-9,-29
14,-9,-24,-2,19,-17,43,9,0,-4,-9,-34
9,-9,-19,0,14,-14,34,0,-9,-4,-19,-34
14,-9,-24,-2,19,-17,34,4,-9,-4,-24,-34
24,-9,-34,-7,29,-21,34,4,-9,-4,-24,-34
34,-9,-43,-12,39,-26,34,-4,-14,-14,-24,-39
29,0,-29,-14,29,-14,34,4,-4,-14,-19,-39
24,0,-24,-12,24,-12,34,4,-9,-14,-19,-39
19,0,-19,-9,19,-9,34,4,-9,-14,-19,-34
14,-4,-19,-4,17,-12,34,4,-9,-14,-14,-34
24,-14,-39,-4,31,-26,24,4,-14,-19,-24,-43
29,-9,-39,-9,34,-24,19,0,-14,-19,-24,-43
34,-9,-43,-12,39,-26,19,0,-19,-19,-29,-48
39,-9,-48,-14,43,-29,24,0,-19,-19,-29,-48
19,-9,-29,-4,24,-19,34,4,-9,-9,-19,-34
14,-9,-24,-2,19,-17,34,4,-9,-9,-19,-34
9,-9,-19,0,14,-14,34,4,-9,-9,-19,-34
4,-9,-14,2,9,-12,34,4,-9,-9,-19,-34
14,-9,-24,-2,19,-17,24,4,-9,-19,-29,-34
19,-9,-29,-4,24,-19,19,0,-14,-19,-29,-39
19,-9,-29,-4,24,-19,19,0,-14,-19,-29,-39
19,-9,-29,-4,24,-19,24,4,-9,-19,-24,-39
19,-9,-29,-4,24,-19,24,4,-19,-19,-24,-39
24,-9,-34,-7,29,-21,24,4,-19,-19,-29,-39
29,-9,-39,-9,34,-24,19,-4,-19,-19,-29,-39
34,-9,-43,-12,39,-26,19,-4,-19,-19,-24,-34
39,-9,-48,-14,43,-29,14,-4,-19,-19,-24,-34
39,-9,-48,-14,43,-29,14,-4,-24,-24,-24,-39
43,-9,-53,-17,48,-31,14,-4,-24,-24,-24,-39
43,-9,-53,-17,48,-31,14,-4,-24,-19,-24,-39
34,-9,-43,-12,39,-26,24,0,-14,-14,-14,-24
29,-9,-39,-9,34,-24,24,4,-14,-9,-14,-24
14,-9,-24,-2,19,-17,29,4,-14,-4,-14,-24
9,-9,-19,0,14,-14,29,0,-14,4,-14,-24
4,-9,-14,2,9,-12,24,-9,-14,4,-14,-39
14,-9,-24,-2,19,-17,24,-9,-14,4,-14,-39
4,-9,-14,2,9,-12,24,-9,-14,4,-14,-39
0,-9,-9,4,4,-9,24,-9,-14,4,-14,-34
14,-9,-24,-2,19,-17,19,-9,-24,-4,-24,-34
19,-9,-29,-4,24,-19,19,-4,-24,-4,-24,-34
29,-9,-39,-9,34,-24,19,-4,-19,-4,-24,-34
34,-9,-43,-12,39,-26,19,-4,-19,-4,-24,-34
19,-9,-29,-4,24,-19,19,4,-9,4,-14,-34
19,-9,-29,-4,24,-19,19,4,-9,4,-14,-34
24,-9,-34,-7,29,-21,19,4,-9,4,-14,-34
24,-9,-34,-7,29,-21,19,4,-9,4,-14,-34
14,0,-14,-7,14,-7,19,4,-9,4,-14,-34
14,0,-14,-7,14,-7,19,4,-9,4,-14,-34
14,0,-14,-7,14,-7,19,4,-9,4,-14,-34
14,0,-14,-7,14,-7,19,4,-9,4,-9,-34
24,0,-24,-12,24,-12,19,4,-19,-4,-19,-43
24,0,-24,-12,24,-12,14,4,-19,-4,-19,-43
24,0,-24,-12,24,-12,14,4,-19,-4,-19,-43
19,0,-19,-9,19,-9,19,4,-19,0,-19,-43
19,-9,-29,-4,24,-19,19,4,-9,0,-19,-34
34,-9,-43,-12,39,-26,19,4,-9,0,-19,-39
24,-9,-34,-7,29,-21,19,4,-9,0,-19,-39
19,-9,-29,-4,24,-19,19,4,-9,0,-19,-39
14,-9,-24,-2,19,-17,29,14,0,9,-9,-39
14,-9,-24,-2,19,-17,29,14,0,9,-9,-34
9,-9,-19,0,14,-14,29,14,0,9,-9,-34
4,-9,-14,2,9,-12,29,14,0,9,-9,-34
9,0,-9,-4,9,-4,19,4,-9,0,-19,-43
14,0,-14,-7,14,-7,19,4,-9,0,-19,-43
19,0,-19,-9,19,-9,19,4,-9,0,-19,-43
29,0,-29,-14,29,-14,19,4,-9,0,-19,-43
19,0,-19,-9,19,-9,19,4,-9,0,-19,-43
14,0,-14,-7,14,-7,19,4,-9,0,-19,-43
14,0,-14,-7,14,-7,19,4,-9,0,-19,-43
19,0,-19,-9,19,-9,19,4,-9,0,-19,-43
9,-9,-19,0,14,-14,19,14,-9,0,-19,-43
9,-9,-19,0,14,-14,19,14,-9,0,-19,-43
9,-9,-19,0,14,-14,19,14,-9,0,-19,-43
9,-9,-19,0,14,-14,19,19,-9,0,-19,-43
24,-9,-34,-7,29,-21,19,9,-19,0,-19,-43
24,-9,-34,-7,29,-21,19,9,-19,0,-19,-43
14,-9,-24,-2,19,-17,19,9,-14,0,-19,-43
14,-9,-24,-2,19,-17,19,9,-14,0,-19,-43
14,-9,-24,-2,19,-17,19,9,-14,-4,-29,-43
19,-9,-29,-4,24,-19,19,9,-14,-4,-29,-43
19,-9,-29,-4,24,-19,19,9,-14,-4,-29,-43
19,-9,-29,-4,24,-19,19,9,-14,-4,-29,-43
19,-14,-34,-2,26,-24,29,9,-14,-14,-29,-43
19,-14,-34,-2,26,-24,29,9,-14,-14,-29,-43
19,-14,-34,-2,26,-24,29,9,-14,-14,-29,-43
19,-14,-34,-2,26,-24,29,9,-14,-14,-29,-43
14,-4,-19,-4,17,-12,29,19,-14,-9,-19,-43
9,-4,-14,-2,12,-9,29,14,-14,-9,-24,-43
4,-9,-14,2,9,-12,29,14,-14,-9,-24,-43
0,-9,-9,4,4,-9,29,19,-14,-9,-24,-43
14,-9,-24,-2,19,-17,19,9,-19,-24,-34,-53
14,-9,-24,-2,19,-17,19,9,-19,-24,-39,-53
14,-9,-24,-2,19,-17,19,9,-14,-19,-39,-53
14,-4,-19,-4,17,-12,19,9,-14,-19,-39,-53
4,-14,-19,4,12,-17,29,9,-19,-14,-29,-39
0,-19,-19,9,9,-19,29,9,-19,-14,-24,-39
0,-19,-19,9,9,-19,29,9,-19,-14,-24,-39
0,-19,-19,9,9,-19,29,9,-19,-14,-24,-43
4,-9,-14,2,9,-12,19,9,-24,-24,-39,-48
9,-9,-19,0,14,-14,19,9,-24,-24,-39,-48
14,-14,-29,0,21,-21,19,9,-24,-24,-39,-48
19,-14,-34,-2,26,-24,19,4,-24,-24,-39,-48
19,-14,-34,-2,26,-24,14,4,-24,-24,-39,-48
19,-14,-34,-2,26,-24,14,0,-24,-24,-39,-48
19,-14,-34,-2,26,-24,19,0,-24,-24,-39,-48
19,-14,-34,-2,26,-24,19,0,-24,-24,-39,-48
19,-14,-34,-2,26,-24,29,9,-24,-24,-29,-48
19,-14,-34,-2,26,-24,29,9,-24,-24,-34,-48
14,-14,-29,0,21,-21,29,9,-29,-24,-34,-48
14,-14,-29,0,21,-21,29,9,-29,-29,-34,-53
9,-14,-24,2,17,-19,14,0,-39,-29,-34,-53
9,-14,-24,2,17,-19,14,0,-39,-34,-34,-53
9,-14,-24,2,17,-19,19,0,-39,-34,-39,-53
9,-14,-24,2,17,-19,19,0,-39,-29,-39,-53
9,-14,-24,2,17,-19,19,-4,-29,-29,-43,-53
9,-14,-24,2,17,-19,19,-4,-29,-29,-43,-53
9,-19,-29,4,19,-24,19,-4,-29,-29,-43,-53
9,-19,-29,4,19,-24,14,-4,-34,-29,-43,-53
9,-19,-29,4,19,-24,14,-4,-34,-29,-43,-63
4,-19,-24,7,14,-21,14,-4,-29,-29,-43,-68
4,-19,-24,7,14,-21,14,-4,-29,-29,-43,-68
4,-19,-24,7,14,-21,14,-4,-29,-29,-43,-63
4,-29,-34,12,19,-31,14,4,-29,-24,-34,-53
4,-29,-34,12,19,-31,19,4,-34,-24,-34,-53
0,-29,-29,14,14,-29,19,0,-34,-29,-34,-53
0,-29,-29,14,14,-29,19,0,-34,-29,-34,-58
4,-34,-39,14,21,-36,9,-9,-43,-29,-43,-68
9,-34,-43,12,26,-39,9,-9,-43,-29,-43,-68
19,-29,-48,4,34,-39,9,-9,-48,-29,-43,-73
24,-29,-53,2,39,-41,9,-9,-48,-34,-48,-73
14,-29,-43,7,29,-36,14,-9,-43,-34,-48,-58
9,-34,-43,12,26,-39,14,-9,-43,-34,-43,-58
9,-34,-43,12,26,-39,14,-9,-43,-34,-43,-58
4,-34,-39,14,21,-36,14,-9,-43,-34,-43,-58
-4,-34,-29,19,12,-31,14,0,-34,-34,-43,-58
-4,-39,-34,21,14,-36,14,0,-34,-29,-43,-58
-4,-39,-34,21,14,-36,14,-4,-34,-29,-43,-53
-4,-39,-34,21,14,-36,9,-4,-34,-29,-43,-53
4,-39,-43,17,24,-41,9,-14,-43,-29,-48,-63
9,-39,-48,14,29,-43,9,-14,-43,-34,-53,-63
9,-34,-43,12,26,-39,9,-14,-53,-34,-53,-63
9,-34,-43,12,26,-39,9,-14,-53,-34,-53,-63
4,-34,-39,14,21,-36,14,-14,-48,-34,-53,-68
4,-34,-39,14,21,-36,14,-14,-48,-34,-53,-73
9,-34,-43,12,26,-39,9,-14,-48,-34,-53,-73
14,-34,-48,9,31,-41,9,-14,-48,-34,-53,-73
14,-34,-48,9,31,-41,9,-14,-39,-34,-53,-63
14,-39,-53,12,34,-46,9,-14,-39,-34,-53,-58
4,-39,-43,17,24,-41,9,-14,-39,-34,-53,-58
4,-34,-39,14,21,-36,9,-14,-39,-34,-53,-58
0,-34,-34,17,17,-34,19,-14,-39,-34,-53,-58
0,-34,-34,17,17,-34,19,-14,-39,-34,-53,-63
0,-34,-34,17,17,-34,19,-19,-39,-34,-53,-63
0,-34,-34,17,17,-34,19,-19,-39,-34,-53,-63
0,-34,-34,17,17,-34,9,-19,-39,-34,-53,-68
0,-34,-34,17,17,-34,9,-14,-43,-29,-53,-68
0,-34,-34,17,17,-34,4,-14,-43,-29,-53,-68
0,-39,-39,19,19,-39,4,-14,-43,-29,-53,-68
4,-39,-43,17,24,-41,9,-24,-53,-39,-53,-68
9,-39,-48,14,29,-43,9,-24,-53,-39,-53,-68
14,-39,-53,12,34,-46,9,-29,-53,-43,-53,-73
19,-39,-58,9,39,-48,4,-29,-53,-43,-58,-78
14,-39,-53,12,34,-46,4,-29,-43,-34,-48,-68
14,-39,-53,12,34,-46,4,-29,-43,-34,-48,-68
9,-39,-48,14,29,-43,4,-29,-43,-34,-48,-63
9,-34,-43,12,26,-39,9,-29,-43,-34,-48,-63
-4,-34,-29,19,12,-31,9,-14,-48,-24,-43,-63
-4,-34,-29,19,12,-31,9,-14,-48,-24,-43,-63
-4,-39,-34,21,14,-36,9,-14,-53,-24,-48,-68
0,-39,-39,19,19,-39,4,-19,-53,-24,-48,-68
39,-39,-78,0,58,-58,4,-29,-63,-43,-58,-78
39,-29,-68,-4,53,-48,0,-24,-63,-48,-63,-87
19,-39,-58,9,39,-48,9,-24,-53,-39,-53,-73
9,-39,-48,14,29,-43,9,-19,-48,-34,-53,-73
9,-39,-48,14,29,-43,9,-19,-48,-29,-48,-68
9,-39,-48,14,29,-43,9,-19,-48,-39,-58,-68
9,-39,-48,14,29,-43,9,-19,-48,-39,-58,-68
9,-39,-48,14,29,-43,9,-19,-48,-39,-58,-68
9,-39,-48,14,29,-43,9,-19,-48,-39,-58,-68
0,-39,-39,19,19,-39,9,-19,-48,-39,-58,-68
0,-39,-39,19,19,-39,9,-19,-48,-39,-58,-68
0,-39,-39,19,19,-39,9,-19,-48,-39,-58,-68
0,-39,-39,19,19,-39,9,-19,-48,-39,-58,-68
9,-39,-48,14,29,-43,0,-19,-58,-48,-68,-78
9,-39,-48,14,29,-43,0,-19,-58,-48,-68,-78
9,-39,-48,14,29,-43,0,-19,-58,-48,-68,-78
9,-39,-48,14,29,-43,0,-19,-58,-48,-68,-78
19,-39,-58,9,39,-48,0,-19,-58,-48,-58,-78
19,-39,-58,9,39,-48,0,-19,-58,-48,-58,-78
19,-39,-58,9,39,-48,0,-19,-58,-48,-58,-78
19,-39,-58,9,39,-48,0,-19,-58,-48,-58,-78
14,-39,-53,12,34,-46,9,-19,-48,-39,-58,-68
9,-39,-48,14,29,-43,9,-19,-48,-39,-58,-68
4,-39,-43,17,24,-41,9,-19,-48,-39,-58,-68
0,-39,-39,19,19,-39,9,-19,-48,-39,-58,-68
0,-39,-39,19,19,-39,0,-19,-48,-48,-58,-78
0,-39,-39,19,19,-39,0,-19,-48,-48,-58,-78
0,-39,-39,19,19,-39,0,-19,-48,-48,-58,-78
0,-39,-39,19,19,-39,0,-19,-48,-48,-58,-78
4,-29,-34,12,19,-31,0,-19,-58,-48,-58,-78
9,-29,-39,9,24,-34,0,-19,-58,-48,-58,-78
14,-29,-43,7,29,-36,0,-19,-58,-48,-58,-78
19,-29,-48,4,34,-39,0,-19,-58,-48,-58,-78
14,-39,-53,12,34,-46,0,-19,-48,-39,-58,-78
9,-39,-48,14,29,-43,0,-19,-48,-39,-58,-78
4,-39,-43,17,24,-41,0,-19,-48,-39,-58,-78
0,-39,-39,19,19,-39,0,-19,-48,-39,-58,-78
0,-39,-39,19,19,-39,0,-19,-48,-39,-58,-78
0,-39,-39,19,19,-39,0,-19,-48,-39,-58,-78
0,-39,-39,19,19,-39,0,-19,-48,-39,-58,-78
0,-39,-39,19,19,-39,0,-19,-48,-39,-58,-78
9,-48,-58,19,34,-53,0,-19,-58,-39,-58,-78
9,-48,-58,19,34,-53,0,-19,-58,-39,-58,-78
9,-48,-58,19,34,-53,0,-19,-58,-39,-58,-78
9,-48,-58,19,34,-53,0,-19,-58,-39,-58,-78
9,-58,-68,24,39,-63,-9,-29,-68,-39,-68,-87
9,-58,-68,24,39,-63,-9,-29,-68,-39,-68,-87
9,-58,-68,24,39,-63,-9,-29,-68,-39,-68,-87
9,-58,-68,24,39,-63,-9,-29,-68,-39,-68,-87
0,-48,-48,24,24,-48,0,-19,-58,-39,-58,-78
0,-48,-48,24,24,-48,0,-19,-58,-39,-58,-78
0,-48,-48,24,24,-48,0,-19,-58,-39,-58,-78
0,-48,-48,24,24,-48,0,-19,-58,-39,-58,-78
0,-39,-39,19,19,-39,0,-29,-58,-39,-58,-78
0,-39,-39,19,19,-39,0,-29,-58,-39,-58,-78
0,-39,-39,19,19,-39,0,-29,-58,-39,-58,-78
0,-39,-39,19,19,-39,0,-29,-58,-39,-58,-78
-9,-39,-29,24,9,-34,9,-19,-48,-29,-58,-68
-9,-39,-29,24,9,-34,9,-19,-48,-29,-58,-68
-9,-39,-29,24,9,-34,9,-19,-48,-29,-58,-68
-9,-39,-29,24,9,-34,9,-19,-48,-29,-58,-68
4,-39,-43,17,24,-41,9,-19,-58,-39,-58,-78
9,-39,-48,14,29,-43,9,-19,-58,-39,-58,-78
14,-39,-53,12,34,-46,9,-19,-58,-39,-58,-78
19,-39,-58,9,39,-48,9,-19,-58,-39,-58,-78
9,-34,-43,12,26,-39,14,-14,-53,-34,-48,-73
9,-29,-39,9,24,-34,19,-9,-48,-29,-48,-68
9,-24,-34,7,21,-29,24,-4,-43,-24,-48,-63
9,-19,-29,4,19,-24,29,0,-39,-19,-48,-58
9,-14,-24,2,17,-19,34,9,-29,-9,-43,-58
9,-9,-19,0,14,-14,39,9,-29,-9,-39,-58
9,-4,-14,-2,12,-9,43,9,-29,-9,-34,-58
9,0,-9,-4,9,-4,48,9,-29,-9,-29,-58
14,9,-4,-12,9,2,48,19,-19,-9,-39,-58
19,9,-9,-14,14,0,48,19,-19,-9,-39,-58
24,9,-14,-17,19,-2,48,19,-19,-9,-39,-58
29,9,-19,-19,24,-4,48,19,-19,-9,-39,-58
43,19,-24,-31,34,-2,39,9,-19,0,-39,-58
48,19,-29,-34,39,-4,39,9,-19,0,-39,-58
53,19,-34,-36,43,-7,39,9,-19,0,-39,-58
58,19,-39,-39,48,-9,39,9,-19,0,-39,-58
48,29,-19,-39,34,4,29,19,-19,0,-34,-53
48,29,-19,-39,34,4,29,19,-19,0,-29,-48
48,29,-19,-39,34,4,29,19,-19,0,-24,-43
48,29,-19,-39,34,4,29,19,-19,0,-19,-39
58,39,-19,-48,39,9,14,19,-19,9,-9,-29
58,39,-19,-48,39,9,9,19,-19,9,-9,-29
58,39,-19,-48,39,9,4,19,-19,9,-9,-29
58,39,-19,-48,39,9,0,19,-19,9,-9,-29
58,29,-29,-43,43,0,-9,19,-9,0,-19,-29
58,29,-29,-43,43,0,-9,19,-9,0,-19,-29
58,29,-29,-43,43,0,-9,19,-9,0,-19,-29
58,29,-29,-43,43,0,-9,19,-9,0,-19,-29
68,19,-48,-43,58,-14,-19,14,-14,0,-19,-39
68,19,-48,-43,58,-14,-19,9,-19,0,-19,-39
68,19,-48,-43,58,-14,-19,4,-24,0,-19,-39
68,19,-48,-43,58,-14,-24,-4,-34,0,-19,-39
78,24,-53,-51,65,-14,-34,-4,-34,-4,-24,-29
78,19,-58,-48,68,-19,-34,-4,-34,-4,-24,-29
73,19,-53,-46,63,-17,-34,-4,-34,-4,-24,-29
73,14,-58,-43,65,-21,-34,-9,-39,-4,-24,-29
68,9,-58,-39,63,-24,-24,-19,-39,-14,-39,-43
53,0,-53,-26,53,-26,-24,-24,-43,-19,-39,-53
43,-9,-53,-17,48,-31,-19,-24,-48,-24,-39,-58
39,-19,-58,-9,48,-39,-19,-24,-48,-29,-43,-58
48,-24,-73,-12,61,-48,-19,-24,-58,-34,-48,-58
43,-24,-68,-9,56,-46,-19,-24,-58,-34,-53,-63
39,-24,-63,-7,51,-43,-19,-24,-58,-34,-53,-68
34,-29,-63,-2,48,-46,-19,-24,-58,-34,-53,-68
29,-43,-73,7,51,-58,-9,-14,-53,-34,-63,-68
24,-48,-73,12,48,-61,-9,-19,-53,-43,-63,-73
14,-58,-73,21,43,-65,-9,-19,-63,-43,-63,-78
-14,-68,-53,41,19,-61,-4,-29,-63,-48,-73,-78
-9,-73,-63,41,26,-68,-9,-43,-78,-63,-87,-92
-14,-78,-63,46,24,-70,-9,-48,-82,-68,-92,-102
-9,-82,-73,46,31,-78,-14,-53,-82,-73,-97,-107
-4,-87,-82,46,39,-85,-24,-53,-82,-73,-102,-117
-9,-78,-68,43,29,-73,-14,-43,-82,-63,-97,-117
-9,-78,-68,43,29,-73,-14,-43,-82,-63,-92,-112
-14,-78,-63,46,24,-70,-14,-43,-82,-68,-87,-107
-19,-78,-58,48,19,-68,-14,-48,-87,-68,-82,-102
-9,-87,-78,48,34,-82,-14,-58,-97,-68,-87,-97
-9,-87,-78,48,34,-82,-14,-53,-92,-68,-87,-97
-19,-92,-73,56,26,-82,-9,-53,-92,-68,-87,-97
-19,-92,-73,56,26,-82,-9,-53,-92,-68,-87,-97
-4,-82,-78,43,36,-80,-14,-53,-92,-78,-102,-107
-4,-82,-78,43,36,-80,-14,-58,-102,-78,-102,-107
0,-82,-82,41,41,-82,-14,-58,-102,-78,-102,-112
0,-82,-82,41,41,-82,-14,-58,-97,-78,-102,-112
-4,-87,-82,46,39,-85,-14,-58,-87,-78,-92,-102
-9,-87,-78,48,34,-82,-14,-58,-87,-78,-92,-102
-14,-87,-73,51,29,-80,-14,-58,-87,-78,-92,-102
-19,-87,-68,53,24,-78,-14,-58,-87,-78,-97,-102
-19,-87,-68,53,24,-78,-24,-58,-97,-78,-107,-112
-14,-87,-73,51,29,-80,-19,-53,-97,-78,-102,-112
-9,-87,-78,48,34,-82,-19,-53,-97,-78,-102,-112
-4,-87,-82,46,39,-85,-24,-58,-97,-78,-102,-112
-14,-87,-73,51,29,-80,-14,-58,-97,-68,-92,-102
-19,-87,-68,53,24,-78,-14,-58,-87,-68,-92,-102
-24,-87,-63,56,19,-75,-14,-58,-87,-68,-92,-102
-29,-87,-58,58,14,-73,-14,-58,-87,-68,-92,-102
-19,-87,-68,53,24,-78,-14,-58,-87,-68,-92,-112
-19,-87,-68,53,24,-78,-14,-58,-87,-73,-92,-112
-19,-82,-63,51,21,-73,-14,-58,-92,-73,-97,-107
-14,-82,-68,48,26,-75,-14,-58,-92,-73,-97,-107
-14,-82,-68,48,26,-75,-14,-58,-97,-73,-97,-107
-14,-82,-68,48,26,-75,-14,-58,-97,-73,-97,-107
-9,-82,-73,46,31,-78,-14,-58,-97,-73,-97,-107
-9,-82,-73,46,31,-78,-14,-58,-97,-73,-92,-107
-24,-82,-58,53,17,-70,-14,-48,-87,-68,-92,-97
-29,-82,-53,56,12,-68,-14,-48,-87,-68,-92,-97
-29,-82,-53,56,12,-68,-14,-48,-87,-68,-92,-97
-24,-82,-58,53,17,-70,-14,-48,-87,-73,-92,-97
-24,-82,-58,53,17,-70,-14,-58,-87,-82,-92,-97
-29,-82,-53,56,12,-68,-14,-58,-87,-78,-92,-97
-34,-82,-48,58,7,-65,-14,-58,-87,-78,-92,-97
-34,-82,-48,58,7,-65,-14,-58,-87,-78,-92,-97
-14,-73,-58,43,21,-65,-14,-58,-92,-87,-102,-107
-14,-73,-58,43,21,-65,-14,-58,-92,-87,-102,-107
-14,-73,-58,43,21,-65,-14,-58,-87,-87,-102,-107
-14,-73,-58,43,21,-65,-14,-58,-87,-87,-102,-107
-14,-82,-68,48,26,-75,-14,-58,-87,-78,-102,-107
-9,-82,-73,46,31,-78,-14,-58,-87,-78,-102,-107
-9,-82,-73,46,31,-78,-14,-58,-87,-78,-102,-107
-9,-78,-68,43,29,-73,-14,-58,-87,-78,-102,-107
-14,-78,-63,46,24,-70,-9,-48,-78,-68,-97,-102
-24,-78,-53,51,14,-65,-9,-43,-78,-63,-92,-97
-29,-78,-48,53,9,-63,-9,-43,-73,-58,-87,-92
-29,-78,-48,53,9,-63,-9,-39,-73,-58,-82,-82
-9,-78,-68,43,29,-73,-9,-43,-82,-68,-92,-102
-29,-78,-48,53,9,-63,-4,-34,-68,-58,-82,-102
-43,-82,-39,63,-2,-61,19,-9,-48,-43,-63,-82
-34,-97,-63,65,14,-80,29,0,-43,-53,-68,-92
0,-117,-117,58,58,-117,34,4,-48,-63,-97,-126
0,-97,-97,48,48,-97,29,19,-34,-48,-78,-107
-39,-87,-48,63,4,-68,48,58,9,-9,-48,-82
-39,-82,-43,61,2,-63,53,97,48,19,-39,-78
-9,-53,-43,31,17,-48,53,126,92,58,-14,-68
9,-24,-34,7,21,-29,43,170,141,112,39,-24
39,9,-29,-24,34,-9,43,239,219,180,122,29
82,58,-24,-70,53,17,43,322,307,248,190,82
141,117,-24,-129,82,46,14,346,351,317,253,146
146,180,34,-163,56,107,-53,326,361,385,336,214
165,234,68,-200,48,151,-107,292,361,444,400,283
190,287,97,-239,46,192,-156,258,361,497,468,351
180,341,161,-261,9,251,-214,209,356,546,527,429
161,390,229,-275,-34,309,-292,122,322,566,590,488
195,429,234,-312,-19,331,-380,-4,239,556,595,507
224,429,204,-326,9,317,-448,-126,151,502,575,497
190,429,239,-309,-24,334,-507,-248,53,434,512,478
170,434,263,-302,-46,348,-575,-375,-92,326,429,434
180,448,268,-314,-43,358,-649,-517,-239,219,331,375
165,448,283,-307,-58,366,-707,-624,-356,126,239,331
126,414,287,-270,-80,351,-741,-736,-483,24,141,268
87,356,268,-222,-90,312,-780,-858,-619,-97,14,175
58,297,239,-178,-90,268,-805,-966,-722,-209,-87,87
48,263,214,-156,-82,239,-819,-1034,-800,-283,-151,29
-4,253,258,-124,-131,256,-800,-1073,-873,-331,-190,4
-73,229,302,-78,-187,265,-732,-1068,-902,-351,-219,-19
-117,175,292,-29,-204,234,-683,-1015,-873,-356,-234,-43
-131,131,263,0,-197,197,-610,-917,-810,-356,-253,-73
-161,87,248,36,-204,168,-527,-805,-741,-341,-258,-97
-170,43,214,63,-192,129,-453,-697,-649,-326,-258,-107
-122,29,151,46,-136,90,-395,-595,-556,-307,-244,-126
-87,19,107,34,-97,63,-341,-492,-473,-273,-234,-146
-87,0,87,43,-87,43,-278,-414,-390,-234,-209,-136
-78,-4,73,41,-75,34,-244,-326,-317,-190,-180,-117
-43,4,48,19,-46,26,-204,-263,-258,-151,-141,-102
-34,-4,29,19,-31,12,-161,-204,-224,-122,-112,-92
-34,-24,9,29,-21,-7,-122,-165,-190,-97,-107,-87
-34,-19,14,26,-24,-2,-82,-131,-161,-78,-92,-73
-43,-19,24,31,-34,2,-53,-107,-136,-87,-92,-73
-24,-14,9,19,-17,-2,-48,-97,-112,-82,-97,-82
-9,-14,-4,12,-2,-9,-48,-92,-97,-82,-97,-82
-19,-14,4,17,-12,-4,-48,-82,-92,-68,-82,-78
-39,-14,24,26,-31,4,-39,-58,-78,-53,-73,-78
-29,-29,0,29,-14,-14,-19,-48,-78,-48,-68,-68
-9,-24,-14,17,2,-19,-14,-39,-78,-58,-78,-82
-4,-34,-29,19,12,-31,-9,-39,-78,-58,-78,-87
-4,-39,-34,21,14,-36,-4,-24,-73,-58,-87,-87
-9,-39,-29,24,9,-34,-4,-24,-73,-58,-87,-87
-24,-29,-4,26,-9,-17,-4,-19,-58,-48,-87,-87
-24,-34,-9,29,-7,-21,-9,-19,-53,-48,-87,-87
-19,-34,-14,26,-2,-24,-9,-19,-53,-48,-87,-87
-19,-34,-14,26,-2,-24,-9,-19,-53,-48,-87,-87
-9,-39,-29,24,9,-34,-4,-24,-53,-53,-82,-78
-9,-43,-34,26,12,-39,-4,-19,-53,-53,-82,-78
-9,-48,-39,29,14,-43,0,-19,-53,-53,-82,-82
-4,-53,-48,29,21,-51,0,-19,-53,-53,-82,-82
-4,-48,-43,26,19,-46,0,-14,-48,-53,-73,-78
-4,-48,-43,26,19,-46,0,-14,-43,-48,-73,-78
-4,-48,-43,26,19,-46,0,-9,-43,-48,-73,-78
-4,-48,-43,26,19,-46,0,-9,-43,-48,-73,-78
-14,-48,-34,31,9,-41,0,-9,-43,-48,-68,-78
-14,-48,-34,31,9,-41,0,-9,-43,-48,-68,-78
-14,-43,-29,29,7,-36,4,-9,-43,-48,-68,-78
-14,-43,-29,29,7,-36,4,-4,-43,-48,-68,-73
-9,-53,-43,31,17,-48,4,-4,-43,-39,-73,-82
-9,-53,-43,31,17,-48,4,-4,-43,-34,-73,-82
-9,-53,-43,31,17,-48,4,-4,-39,-34,-73,-82
-9,-53,-43,31,17,-48,4,-4,-39,-34,-68,-82
0,-43,-43,21,21,-43,4,-4,-39,-34,-58,-82
0,-48,-48,24,24,-48,4,0,-39,-34,-58,-78
0,-48,-48,24,24,-48,4,0,-34,-34,-58,-68
0,-48,-48,24,24,-48,4,0,-34,-34,-58,-63
4,-39,-43,17,24,-41,-4,4,-34,-34,-68,-68
9,-39,-48,14,29,-43,-4,4,-34,-29,-68,-73
9,-39,-48,14,29,-43,-4,4,-34,-29,-63,-78
4,-39,-43,17,24,-41,-4,4,-34,-29,-58,-82
-4,-43,-39,24,17,-41,9,4,-29,-24,-53,-68
-4,-43,-39,24,17,-41,9,4,-29,-24,-53,-68
-4,-48,-43,26,19,-46,9,4,-29,-29,-58,-73
-4,-48,-43,26,19,-46,9,4,-29,-29,-58,-73
-14,-58,-43,36,14,-51,9,14,-19,-24,-58,-63
-9,-53,-43,31,17,-48,9,14,-19,-24,-58,-63
-9,-53,-43,31,17,-48,4,14,-19,-24,-63,-63
-4,-53,-48,29,21,-51,4,14,-19,-29,-63,-63
0,-48,-48,24,24,-48,4,4,-29,-29,-58,-73
-4,-43,-39,24,17,-41,4,9,-24,-24,-58,-73
0,-39,-39,19,19,-39,4,9,-24,-24,-58,-68
4,-34,-39,14,21,-36,4,9,-24,-24,-58,-68
0,-34,-34,17,17,-34,4,9,-24,-24,-58,-63
0,-34,-34,17,17,-34,4,14,-24,-24,-58,-63
0,-34,-34,17,17,-34,4,14,-24,-24,-58,-63
0,-34,-34,17,17,-34,4,14,-24,-24,-58,-68
9,-43,-53,17,31,-48,-4,14,-19,-24,-58,-68
9,-39,-48,14,29,-43,0,14,-19,-24,-53,-63
9,-39,-48,14,29,-43,0,19,-19,-24,-53,-63
9,-39,-48,14,29,-43,0,19,-19,-24,-53,-63
19,-39,-58,9,39,-48,0,19,-19,-24,-53,-63
19,-39,-58,9,39,-48,0,19,-19,-24,-53,-63
24,-39,-63,7,43,-51,0,19,-19,-24,-53,-63
24,-34,-58,4,41,-46,0,19,-19,-24,-53,-63
14,-29,-43,7,29,-36,9,29,-9,-19,-48,-53
4,-29,-34,12,19,-31,9,29,-9,-19,-48,-53
-4,-34,-29,19,12,-31,9,29,-9,-19,-48,-53
-14,-34,-19,24,2,-26,9,34,-9,-14,-43,-48
-9,-19,-9,14,0,-14,0,29,-9,-14,-53,-53
-4,-19,-14,12,4,-17,0,29,-9,-14,-53,-53
0,-19,-19,9,9,-19,0,29,-4,-14,-53,-53
4,-14,-19,4,12,-17,0,34,0,-9,-48,-53
19,-24,-43,2,31,-34,0,34,0,-19,-39,-48
19,-24,-43,2,31,-34,0,34,0,-19,-39,-48
19,-19,-39,0,29,-29,0,39,4,-19,-39,-48
14,-19,-34,2,24,-26,0,39,9,-14,-29,-43
4,-19,-24,7,14,-21,0,43,9,0,-29,-34
9,-19,-29,4,19,-24,0,43,9,0,-29,-34
24,-14,-39,-4,31,-26,0,43,9,0,-29,-29
24,-14,-39,-4,31,-26,0,48,14,0,-24,-29
14,-4,-19,-4,17,-12,0,53,14,0,-24,-29
14,-4,-19,-4,17,-12,0,53,14,0,-24,-29
19,0,-19,-9,19,-9,0,53,19,4,-24,-29
24,0,-24,-12,24,-12,0,58,19,9,-24,-24
24,-4,-29,-9,26,-17,0,63,24,0,-29,-34
24,-4,-29,-9,26,-17,0,63,24,0,-24,-34
29,0,-29,-14,29,-14,0,63,29,0,-24,-29
34,0,-34,-17,34,-17,0,73,29,4,-24,-29
34,4,-29,-19,31,-12,-9,78,34,4,-9,-19
29,4,-24,-17,26,-9,-9,78,43,14,-9,-19
29,9,-19,-19,24,-4,-9,78,43,14,-4,-14
34,14,-19,-24,26,-2,-9,82,48,14,-4,-9
34,14,-19,-24,26,-2,-9,87,58,34,0,-4
39,14,-24,-26,31,-4,-14,87,58,34,0,-4
43,19,-24,-31,34,-2,-14,87,63,34,9,0
43,19,-24,-31,34,-2,-14,92,68,34,9,0
34,29,-4,-31,19,12,-14,97,58,48,19,4
34,34,0,-34,17,17,-14,97,68,53,29,9
34,39,4,-36,14,21,-14,107,73,53,34,14
34,39,4,-36,14,21,-14,112,78,63,39,19
48,43,-4,-46,26,19,-19,107,82,58,29,19
58,48,-9,-53,34,19,-24,107,87,58,29,24
63,53,-9,-58,36,21,-24,107,87,63,39,29
68,58,-9,-63,39,24,-24,112,92,68,43,34
73,63,-9,-68,41,26,-34,126,92,73,48,39
78,68,-9,-73,43,29,-34,131,92,78,53,43
78,73,-4,-75,41,34,-34,136,102,78,58,43
82,73,-9,-78,46,31,-34,141,102,78,58,43
82,78,-4,-80,43,36,-29,141,107,97,63,63
82,82,0,-82,41,41,-29,141,112,102,68,68
82,87,4,-85,39,46,-29,141,117,102,73,73
78,92,14,-85,31,53,-24,151,122,107,78,78
87,97,9,-92,39,53,-34,151,122,112,82,73
107,102,-4,-104,56,48,-43,151,122,107,82,78
112,107,-4,-109,58,51,-43,156,126,102,87,82
102,112,9,-107,46,61,-34,161,131,107,92,87
102,117,14,-109,43,65,-34,151,131,107,97,92
112,122,9,-117,51,65,-34,151,131,107,97,92
117,122,4,-119,56,63,-39,151,136,107,97,92
117,126,9,-122,53,68,-39,156,141,112,102,102
107,131,24,-119,41,78,-43,165,141,117,112,92
117,136,19,-126,48,78,-43,161,136,122,112,92
117,141,24,-129,46,82,-43,161,136,126,112,97
117,141,24,-129,46,82,-43,161,136,136,117,97
107,131,24,-119,41,78,-34,161,136,141,117,107
112,131,19,-122,46,75,-34,161,141,141,122,107
112,136,24,-124,43,80,-34,161,141,141,122,112
107,136,29,-122,39,82,-34,161,141,141,126,122
112,146,34,-129,39,90,-43,151,141,136,126,112
122,151,29,-136,46,90,-43,151,141,136,126,112
126,151,24,-139,51,87,-43,151,141,136,126,112
131,146,14,-139,58,80,-43,146,136,131,126,112
131,146,14,-139,58,80,-34,146,136,131,117,102
131,146,14,-139,58,80,-29,146,136,131,117,102
131,141,9,-136,61,75,-29,146,136,126,112,97
131,141,9,-136,61,75,-29,146,136,126,112,97
107,126,19,-117,43,73,-19,151,136,136,122,107
102,126,24,-114,39,75,-14,151,136,131,117,102
92,122,29,-107,31,75,-14,151,131,131,112,97
82,117,34,-100,24,75,-14,146,126,126,112,87
92,112,19,-102,36,65,-14,136,117,112,92,82
92,107,14,-100,39,61,-14,126,107,107,87,73
87,92,4,-90,41,48,-9,126,102,102,78,63
82,87,4,-85,39,46,-4,122,97,97,78,63
78,87,9,-82,34,48,-4,117,87,87,68,53
68,73,4,-70,31,39,-4,112,87,82,63,48
63,68,4,-65,29,36,-4,107,78,78,58,39
63,63,0,-63,31,31,-4,97,68,68,43,34
48,58,9,-53,19,34,4,97,78,68,48,29
39,48,9,-43,14,29,9,92,73,63,43,29
39,39,0,-39,19,19,9,87,63,53,39,19
39,29,-9,-34,24,9,9,73,48,48,24,4
43,19,-24,-31,34,-2,0,68,39,39,9,4
34,14,-19,-24,26,-2,0,68,34,34,9,4
29,9,-19,-19,24,-4,0,58,29,34,9,0
24,0,-24,-12,24,-12,0,58,29,24,4,-4
14,4,-9,-9,12,-2,4,53,34,24,0,0
14,0,-14,-7,14,-7,4,43,19,14,-4,-9
9,-4,-14,-2,12,-9,4,39,19,14,-4,-9
4,-4,-9,0,7,-7,4,39,19,14,-4,-9
4,-9,-14,2,9,-12,4,39,9,19,-24,-14
9,-14,-24,2,17,-19,4,29,0,9,-24,-24
14,-19,-34,2,24,-26,4,24,0,9,-29,-24
14,-19,-34,2,24,-26,4,24,0,0,-29,-24
14,-24,-39,4,26,-31,-4,19,0,-9,-24,-29
14,-24,-39,4,26,-31,-4,14,-4,-9,-29,-29
14,-24,-39,4,26,-31,-4,9,-9,-14,-34,-34
9,-24,-34,7,21,-29,-4,9,-9,-14,-34,-34
-4,-24,-19,14,7,-21,4,9,0,-4,-34,-34
-4,-24,-19,14,7,-21,4,9,-9,-9,-34,-34
-4,-24,-19,14,7,-21,4,9,-9,-9,-34,-34
-4,-24,-19,14,7,-21,4,9,-9,-14,-39,-39
4,-24,-29,9,17,-26,-4,4,-19,-14,-39,-39
9,-24,-34,7,21,-29,-4,4,-19,-14,-39,-39
9,-24,-34,7,21,-29,-4,0,-19,-14,-39,-39
4,-29,-34,12,19,-31,-4,0,-19,-14,-39,-43
-9,-29,-19,19,4,-24,4,0,-19,-14,-48,-43
-14,-29,-14,21,0,-21,4,4,-19,-14,-53,-43
-14,-29,-14,21,0,-21,4,4,-19,-14,-53,-43
-14,-29,-14,21,0,-21,4,-4,-24,-24,-53,-48
-9,-39,-29,24,9,-34,-4,-4,-24,-34,-58,-58
-4,-39,-34,21,14,-36,-4,-4,-29,-34,-58,-58
0,-39,-39,19,19,-39,-4,-4,-29,-34,-58,-53
4,-43,-48,19,26,-46,-4,-4,-29,-34,-53,-53
0,-43,-43,21,21,-43,-4,4,-24,-19,-53,-43
0,-39,-39,19,19,-39,-9,0,-24,-19,-53,-43
0,-39,-39,19,19,-39,-9,0,-29,-19,-58,-48
0,-39,-39,19,19,-39,-4,0,-29,-19,-58,-48
-4,-39,-34,21,14,-36,-4,-4,-19,-19,-48,-43
-4,-39,-34,21,14,-36,-4,-4,-19,-19,-48,-43
-4,-39,-34,21,14,-36,-4,-4,-19,-19,-48,-43
-4,-39,-34,21,14,-36,-4,-4,-19,-19,-48,-43
-4,-29,-24,17,9,-26,-4,-4,-29,-19,-48,-43
0,-29,-29,14,14,-29,-9,-9,-34,-19,-48,-48
0,-29,-29,14,14,-29,-9,-9,-34,-19,-48,-48
0,-29,-29,14,14,-29,-4,-4,-29,-19,-43,-48
-14,-39,-24,26,4,-31,-4,-4,-29,-19,-53,-48
-14,-39,-24,26,4,-31,-4,-4,-29,-19,-58,-48
-14,-39,-24,26,4,-31,-9,-14,-29,-19,-58,-48
-14,-39,-24,26,4,-31,-9,-14,-29,-19,-53,-43
-9,-29,-19,19,4,-24,-4,-14,-29,-29,-53,-43
-9,-29,-19,19,4,-24,-4,-14,-34,-34,-53,-48
-4,-29,-24,17,9,-26,-4,-14,-34,-34,-53,-48
-4,-29,-24,17,9,-26,-4,-14,-34,-29,-53,-48
-19,-29,-9,24,-4,-19,4,-9,-24,-19,-43,-43
-19,-29,-9,24,-4,-19,4,-4,-24,-19,-43,-43
-29,-29,0,29,-14,-14,9,-4,-24,-19,-43,-43
-29,-29,0,29,-14,-14,9,-9,-24,-14,-43,-43
-14,-29,-14,21,0,-21,-4,-9,-34,-14,-43,-48
-4,-29,-24,17,9,-26,-4,-9,-34,-14,-43,-48
-14,-29,-14,21,0,-21,-4,-9,-34,-14,-43,-48
-19,-29,-9,24,-4,-19,-4,-9,-34,-14,-43,-43
-19,-39,-19,29,0,-29,-9,-19,-34,-14,-43,-43
-19,-39,-19,29,0,-29,-9,-14,-34,-14,-43,-43
-14,-39,-24,26,4,-31,-9,-14,-29,-14,-43,-43
-14,-39,-24,26,4,-31,-9,-14,-29,-14,-43,-43
-19,-39,-19,29,0,-29,0,-4,-29,-14,-43,-43
-19,-39,-19,29,0,-29,0,-4,-29,-14,-43,-43
-14,-39,-24,26,4,-31,0,-4,-29,-14,-43,-43
-14,-39,-24,26,4,-31,0,-4,-29,-14,-43,-43
-9,-39,-29,24,9,-34,-9,-14,-29,-14,-53,-43
-4,-39,-34,21,14,-36,-9,-14,-29,-14,-53,-43
0,-39,-39,19,19,-39,-9,-14,-29,-14,-53,-43
4,-39,-43,17,24,-41,-9,-14,-29,-14,-48,-43
0,-39,-39,19,19,-39,-4,-9,-19,-4,-43,-34
-4,-39,-34,21,14,-36,-4,-4,-19,-4,-39,-34
-9,-39,-29,24,9,-34,0,0,-19,-4,-34,-34
-19,-39,-19,29,0,-29,9,4,-19,0,-29,-34
-9,-39,-29,24,9,-34,0,-4,-19,-9,-39,-43
4,-39,-43,17,24,-41,0,-4,-19,-9,-39,-48
-4,-39,-34,21,14,-36,0,-4,-19,-9,-39,-48
-9,-39,-29,24,9,-34,0,-4,-19,-9,-39,-48
-14,-29,-14,21,0,-21,0,-4,-19,0,-39,-39
-14,-29,-14,21,0,-21,0,-4,-19,0,-39,-34
-19,-29,-9,24,-4,-19,0,-4,-19,0,-39,-34
-24,-29,-4,26,-9,-17,0,-4,-19,0,-39,-34
-19,-39,-19,29,0,-29,0,-4,-19,0,-39,-34
-14,-39,-24,26,4,-31,0,-4,-19,0,-39,-34
-9,-39,-29,24,9,-34,0,-4,-19,0,-39,-34
0,-39,-39,19,19,-39,0,-4,-19,0,-39,-34
0,-39,-39,19,19,-39,0,-4,-19,-9,-39,-43
-4,-39,-34,21,14,-36,0,-4,-19,-9,-39,-43
-4,-39,-34,21,14,-36,0,-4,-19,-9,-39,-43
0,-39,-39,19,19,-39,0,-4,-19,-9,-39,-43
0,-29,-29,14,14,-29,0,-4,-19,-9,-39,-43
0,-29,-29,14,14,-29,0,-4,-19,-9,-39,-43
0,-29,-29,14,14,-29,0,-4,-19,-9,-39,-43
0,-29,-29,14,14,-29,0,0,-19,-9,-39,-43
4,-29,-34,12,19,-31,-9,0,-19,-9,-39,-34
4,-29,-34,12,19,-31,-9,0,-19,-9,-39,-34
-4,-29,-24,17,9,-26,-9,0,-14,-9,-39,-34
-4,-29,-24,17,9,-26,-9,0,-14,-9,-39,-34
-4,-39,-34,21,14,-36,-9,0,-14,-14,-39,-24
0,-39,-39,19,19,-39,-9,0,-14,-14,-39,-24
0,-39,-39,19,19,-39,-9,0,-14,-14,-39,-24
0,-39,-39,19,19,-39,-9,0,-14,-14,-39,-24
-9,-34,-24,21,7,-29,0,0,-14,-4,-29,-24
-9,-34,-24,21,7,-29,0,0,-14,-4,-29,-24
-9,-34,-24,21,7,-29,0,0,-14,-4,-29,-24
-9,-34,-24,21,7,-29,0,0,-14,-4,-29,-24
0,-34,-34,17,17,-34,-9,0,-14,-19,-29,-34
0,-34,-34,17,17,-34,-9,-4,-14,-19,-34,-34
0,-39,-39,19,19,-39,-9,-4,-14,-19,-34,-34
0,-39,-39,19,19,-39,-9,0,-14,-19,-34,-34
4,-39,-43,17,24,-41,-9,-9,-19,-34,-39,-34
4,-39,-43,17,24,-41,-9,-9,-19,-34,-48,-34
4,-39,-43,17,24,-41,-9,-9,-14,-29,-53,-34
4,-34,-39,14,21,-36,-9,-9,-14,-29,-58,-34
-4,-34,-29,19,12,-31,0,-9,-9,-24,-53,-29
-9,-39,-29,24,9,-34,0,-9,-9,-24,-43,-29
-9,-39,-29,24,9,-34,0,-9,-9,-24,-39,-29
-9,-39,-29,24,9,-34,0,-9,-9,-24,-34,-34
-19,-29,-9,24,-4,-19,0,0,-14,-14,-39,-29
-19,-29,-9,24,-4,-19,0,0,-14,-14,-39,-29
-19,-34,-14,26,-2,-24,0,0,-14,-14,-39,-29
-19,-34,-14,26,-2,-24,0,-4,-14,-14,-39,-29
-4,-34,-29,19,12,-31,-14,-14,-24,-19,-48,-34
0,-34,-34,17,17,-34,-14,-19,-24,-24,-48,-39
4,-34,-39,14,21,-36,-9,-19,-24,-29,-48,-43
9,-34,-43,12,26,-39,-9,-19,-24,-34,-48,-48
4,-43,-48,19,26,-46,0,-9,-14,-24,-39,-39
0,-43,-43,21,21,-43,0,-9,-14,-24,-43,-39
-9,-43,-34,26,12,-39,0,-9,-19,-24,-43,-39
-14,-43,-29,29,7,-36,0,-9,-19,-29,-43,-43
-4,-43,-39,24,17,-41,-14,-19,-29,-29,-43,-43
0,-43,-43,21,21,-43,-14,-19,-29,-34,-43,-43
4,-43,-48,19,26,-46,-9,-19,-29,-34,-48,-43
9,-43,-53,17,31,-48,-9,-19,-29,-29,-48,-43
0,-43,-43,21,21,-43,0,-14,-19,-19,-34,-34
-9,-43,-34,26,12,-39,0,-14,-19,-19,-34,-34
-19,-48,-29,34,4,-39,0,-14,-19,-19,-34,-34
-29,-48,-19,39,-4,-34,-4,-14,-24,-19,-34,-34
-24,-39,-14,31,-4,-26,-4,-24,-24,-19,-43,-34
-24,-39,-14,31,-4,-26,-4,-24,-19,-19,-43,-39
-19,-39,-19,29,0,-29,-4,-24,-19,-19,-43,-39
-14,-39,-24,26,4,-31,-4,-24,-19,-19,-43,-34
-14,-48,-34,31,9,-41,-14,-24,-19,-24,-43,-34
-14,-48,-34,31,9,-41,-9,-24,-24,-24,-43,-34
-19,-48,-29,34,4,-39,-9,-29,-24,-29,-43,-34
-19,-48,-29,34,4,-39,-9,-29,-24,-29,-43,-39
-9,-53,-43,31,17,-48,-9,-29,-24,-39,-53,-39
-9,-53,-43,31,17,-48,-9,-29,-24,-39,-53,-39
-4,-48,-43,26,19,-46,-9,-29,-29,-39,-53,-43
-4,-48,-43,26,19,-46,-9,-29,-29,-43,-58,-43
-4,-48,-43,26,19,-46,-4,-29,-24,-34,-58,-48
-9,-53,-43,31,17,-48,-4,-29,-24,-34,-53,-48
-9,-53,-43,31,17,-48,-4,-29,-24,-34,-53,-48
-14,-53,-39,34,12,-46,-4,-29,-24,-34,-53,-48
-14,-43,-29,29,7,-36,-14,-29,-34,-34,-53,-48
-14,-48,-34,31,9,-41,-14,-29,-34,-29,-53,-48
-14,-48,-34,31,9,-41,-14,-34,-34,-29,-53,-43
-14,-48,-34,31,9,-41,-19,-34,-34,-29,-53,-43
-24,-58,-34,41,4,-46,-14,-24,-29,-29,-48,-43
-19,-58,-39,39,9,-48,-9,-24,-24,-34,-53,-43
-19,-53,-34,36,7,-43,-4,-24,-29,-34,-53,-43
-19,-53,-34,36,7,-43,0,-24,-24,-34,-53,-43
-14,-53,-39,34,12,-46,-4,-24,-19,-34,-53,-39
-14,-53,-39,34,12,-46,-4,-24,-19,-34,-53,-43
-9,-53,-43,31,17,-48,-9,-24,-19,-34,-53,-43
-4,-53,-48,29,21,-51,-9,-24,-19,-34,-53,-43
-14,-53,-39,34,12,-46,-9,-24,-29,-34,-53,-43
-14,-58,-43,36,14,-51,-9,-24,-29,-34,-53,-39
-24,-58,-34,41,4,-46,-9,-24,-29,-34,-53,-39
-24,-53,-29,39,2,-41,-9,-24,-29,-34,-53,-39
-14,-43,-29,29,7,-36,-9,-34,-39,-43,-63,-48
-9,-43,-34,26,12,-39,-9,-34,-39,-43,-63,-53
-4,-43,-39,24,17,-41,-9,-39,-39,-43,-63,-53
0,-43,-43,21,21,-43,-9,-39,-39,-43,-63,-53
-4,-53,-48,29,21,-51,0,-39,-34,-34,-53,-48
-9,-53,-43,31,17,-48,0,-34,-34,-29,-53,-48
-14,-53,-39,34,12,-46,-4,-34,-29,-29,-53,-48
-19,-58,-39,39,9,-48,-4,-34,-24,-29,-53,-48
-9,-58,-48,34,19,-53,-9,-34,-34,-29,-53,-39
-9,-58,-48,34,19,-53,-9,-34,-34,-29,-53,-39
-9,-58,-48,34,19,-53,-9,-39,-34,-34,-53,-43
-9,-58,-48,34,19,-53,-14,-39,-34,-34,-58,-48
-4,-48,-43,26,19,-46,-14,-39,-34,-43,-68,-58
-4,-48,-43,26,19,-46,-14,-39,-34,-43,-68,-58
-9,-48,-39,29,14,-43,-14,-39,-34,-43,-68,-53
-9,-43,-34,26,12,-39,-9,-39,-34,-43,-68,-53
-4,-53,-48,29,21,-51,-9,-34,-39,-43,-53,-53
-4,-53,-48,29,21,-51,-9,-34,-39,-43,-53,-53
-4,-58,-53,31,24,-56,-9,-34,-43,-43,-58,-58
0,-58,-58,29,29,-58,-14,-39,-43,-43,-58,-58
0,-48,-48,24,24,-48,-14,-39,-34,-43,-58,-39
-78,-48,29,63,-53,-9,9,-14,-14,-9,-34,-29
-78,-48,29,63,-53,-9,9,-14,-4,-9,-34,-34
-9,-48,-39,29,14,-43,-9,-29,-29,-34,-53,-43
0,-48,-48,24,24,-48,-19,-39,-39,-39,-68,-48
-14,-58,-43,36,14,-51,-9,-29,-29,-29,-58,-48
-19,-58,-39,39,9,-48,-9,-29,-29,-29,-58,-48
-24,-58,-34,41,4,-46,-9,-29,-29,-29,-58,-48
-29,-58,-29,43,0,-43,-9,-29,-29,-29,-58,-48
-19,-58,-39,39,9,-48,-9,-39,-29,-29,-58,-48
-19,-58,-39,39,9,-48,-9,-39,-29,-29,-58,-48
-19,-58,-39,39,9,-48,-9,-39,-29,-29,-58,-48
-19,-58,-39,39,9,-48,-9,-39,-29,-29,-58,-48
-19,-48,-29,34,4,-39,-9,-29,-29,-39,-58,-48
-19,-48,-29,34,4,-39,-9,-29,-29,-39,-58,-48
-19,-48,-29,34,4,-39,-9,-29,-29,-39,-58,-48
-19,-48,-29,34,4,-39,-9,-29,-29,-39,-58,-48
-9,-58,-48,34,19,-53,-9,-29,-29,-29,-58,-48
-9,-58,-48,34,19,-53,-9,-29,-29,-29,-58,-48
-9,-58,-48,34,19,-53,-9,-29,-29,-29,-58,-48
-9,-58,-48,34,19,-53,-9,-29,-29,-29,-58,-48
-19,-58,-39,39,9,-48,-9,-29,-29,-29,-58,-39
-19,-58,-39,39,9,-48,-9,-29,-29,-29,-58,-39
-19,-58,-39,39,9,-48,-9,-29,-29,-29,-58,-39
-19,-58,-39,39,9,-48,-9,-29,-29,-29,-58,-39
-19,-48,-29,34,4,-39,0,-19,-19,-29,-48,-39
-19,-48,-29,34,4,-39,0,-19,-19,-29,-48,-39
-19,-48,-29,34,4,-39,0,-19,-19,-29,-48,-39
-19,-48,-29,34,4,-39,0,-19,-19,-29,-48,-39
-9,-43,-34,26,12,-39,9,-19,-19,-19,-39,-29
-9,-39,-29,24,9,-34,9,-19,-19,-19,-39,-29
-9,-34,-24,21,7,-29,9,-19,-19,-19,-39,-29
-9,-29,-19,19,4,-24,9,-19,-19,-19,-39,-29
-9,-19,-9,14,0,-14,19,-9,-14,-9,-29,-29
-9,-19,-9,14,0,-14,19,-9,-9,-9,-29,-29
-9,-19,-9,14,0,-14,19,-9,-4,-9,-29,-29
-9,-19,-9,14,0,-14,19,-9,0,-9,-29,-29
-9,-9,0,9,-4,-4,24,-4,9,0,-19,-19
-9,-9,0,9,-4,-4,29,0,9,0,-19,-19
-9,-9,0,9,-4,-4,34,4,9,0,-19,-19
-9,-9,0,9,-4,-4,39,9,9,0,-19,-19
-4,0,4,2,-4,2,29,0,9,9,-9,-9
0,0,0,0,0,0,29,0,9,9,-9,-9
4,0,-4,-2,4,-2,29,0,9,9,-9,-9
9,0,-9,-4,9,-4,29,0,9,9,-9,-9
19,4,-14,-12,17,-4,19,9,19,9,-9,-9
19,9,-9,-14,14,0,19,9,19,9,-9,-9
19,14,-4,-17,12,4,19,9,19,9,-9,-9
19,19,0,-19,9,9,19,9,19,9,-9,-9
19,29,9,-24,4,19,14,9,19,19,0,-4
19,29,9,-24,4,19,9,9,19,19,0,0
19,29,9,-24,4,19,4,9,19,19,0,4
19,29,9,-24,4,19,0,9,19,19,0,9
34,29,-4,-31,19,12,-4,9,9,9,-9,9
39,29,-9,-34,24,9,-9,9,9,9,-9,9
43,29,-14,-36,29,7,-14,9,9,9,-9,9
48,29,-19,-39,34,4,-19,9,9,9,-9,9
48,19,-29,-34,39,-4,-24,0,9,9,-9,0
48,19,-29,-34,39,-4,-29,0,9,9,-9,0
48,19,-29,-34,39,-4,-34,0,9,9,-9,0
48,19,-29,-34,39,-4,-39,0,9,9,-9,0
43,9,-34,-26,39,-12,-29,0,9,9,0,0
39,9,-29,-24,34,-9,-34,-4,4,9,0,0
34,4,-29,-19,31,-12,-34,-4,4,4,-4,0
29,0,-29,-14,29,-14,-34,-4,4,4,-4,0
34,0,-34,-17,34,-17,-34,-4,4,4,-14,0
34,-4,-39,-14,36,-21,-34,-9,0,4,-14,0
34,-9,-43,-12,39,-26,-34,-19,-9,-4,-29,-14
24,-19,-43,-2,34,-31,-34,-24,-14,-9,-29,-24
9,-29,-39,9,24,-34,-29,-24,-19,-14,-29,-19
9,-39,-48,14,29,-43,-29,-24,-19,-19,-34,-19
9,-43,-53,17,31,-48,-29,-24,-19,-24,-39,-19
4,-43,-48,19,26,-46,-29,-24,-19,-24,-43,-24
9,-34,-43,12,26,-39,-29,-24,-19,-24,-34,-29
4,-39,-43,17,24,-41,-29,-24,-19,-24,-34,-29
4,-43,-48,19,26,-46,-29,-24,-24,-24,-43,-29
4,-48,-53,21,29,-51,-29,-29,-24,-34,-43,-34
0,-58,-58,29,29,-58,-29,-29,-24,-34,-53,-39
-24,-68,-43,46,9,-56,-24,-39,-24,-39,-63,-39
-34,-73,-39,53,2,-56,-24,-43,-39,-43,-68,-48
-43,-78,-34,61,-4,-56,-19,-48,-43,-48,-73,-53
-43,-82,-39,63,-2,-61,-19,-53,-43,-53,-68,-53
-43,-87,-43,65,0,-65,-24,-53,-43,-53,-73,-58
-43,-87,-43,65,0,-65,-24,-53,-43,-53,-73,-63
-39,-87,-48,63,4,-68,-24,-53,-43,-53,-73,-63
-29,-87,-58,58,14,-73,-24,-53,-43,-68,-73,-53
-29,-87,-58,58,14,-73,-24,-58,-48,-68,-73,-53
-29,-87,-58,58,14,-73,-24,-58,-48,-68,-68,-48
-29,-87,-58,58,14,-73,-24,-53,-43,-68,-68,-48
-43,-92,-48,68,2,-70,-19,-63,-43,-58,-68,-58
-48,-92,-43,70,-2,-68,-19,-63,-43,-58,-68,-58
-48,-92,-43,70,-2,-68,-24,-63,-43,-58,-73,-58
-53,-92,-39,73,-7,-65,-24,-68,-53,-58,-73,-58
-43,-102,-58,73,7,-80,-24,-68,-63,-58,-73,-63
-39,-102,-63,70,12,-82,-24,-68,-58,-58,-73,-63
-34,-97,-63,65,14,-80,-24,-68,-58,-58,-73,-63
-29,-97,-68,63,19,-82,-24,-68,-58,-58,-73,-63
-39,-97,-58,68,9,-78,-24,-68,-58,-58,-73,-63
-39,-97,-58,68,9,-78,-24,-68,-58,-58,-78,-63
-43,-97,-53,70,4,-75,-24,-68,-58,-58,-78,-63
-43,-97,-53,70,4,-75,-19,-63,-58,-58,-73,-63
-53,-87,-34,70,-9,-61,-19,-53,-48,-58,-73,-63
-53,-87,-34,70,-9,-61,-24,-58,-48,-58,-73,-63
-58,-87,-29,73,-14,-58,-24,-58,-58,-58,-73,-63
-58,-87,-29,73,-14,-58,-24,-58,-48,-58,-73,-63
-48,-87,-39,68,-4,-63,-24,-58,-48,-58,-73,-63
-48,-87,-39,68,-4,-63,-24,-58,-48,-58,-73,-63
-48,-87,-39,68,-4,-63,-24,-58,-48,-58,-73,-63
-48,-87,-39,68,-4,-63,-24,-58,-48,-63,-73,-63
-39,-82,-43,61,2,-63,-24,-58,-53,-53,-68,-58
-34,-82,-48,58,7,-65,-24,-58,-53,-53,-68,-58
-34,-82,-48,58,7,-65,-24,-58,-48,-53,-68,-58
-34,-82,-48,58,7,-65,-24,-58,-48,-53,-68,-58
-19,-82,-63,51,21,-73,-24,-68,-58,-63,-78,-58
-19,-82,-63,51,21,-73,-24,-68,-58,-63,-73,-58
-24,-82,-58,53,17,-70,-24,-68,-58,-58,-73,-58
-29,-82,-53,56,12,-68,-24,-68,-58,-58,-73,-58
-39,-82,-43,61,2,-63,-14,-58,-58,-48,-63,-48
-34,-82,-48,58,7,-65,-14,-58,-58,-53,-63,-48
-34,-82,-48,58,7,-65,-14,-58,-58,-53,-63,-48
-39,-82,-43,61,2,-63,-14,-58,-58,-48,-63,-48
-53,-82,-29,68,-12,-56,-14,-58,-48,-48,-63,-48
-53,-82,-29,68,-12,-56,-14,-58,-48,-48,-63,-48
-43,-82,-39,63,-2,-61,-14,-58,-53,-48,-63,-48
-43,-82,-39,63,-2,-61,-14,-58,-53,-48,-63,-48
-43,-82,-39,63,-2,-61,-14,-58,-48,-48,-73,-58
-43,-82,-39,63,-2,-61,-14,-58,-48,-48,-73,-58
-43,-82,-39,63,-2,-61,-14,-58,-48,-48,-73,-58
-39,-82,-43,61,2,-63,-14,-58,-48,-48,-73,-58
-39,-82,-43,61,2,-63,-24,-58,-48,-48,-63,-48
-39,-78,-39,58,0,-58,-24,-58,-48,-48,-63,-48
-39,-78,-39,58,0,-58,-19,-53,-48,-48,-63,-48
-43,-78,-34,61,-4,-56,-19,-53,-48,-43,-63,-48
-53,-68,-14,61,-19,-41,-19,-58,-43,-39,-53,-39
-48,-68,-19,58,-14,-43,-9,-58,-34,-39,-53,-43
-9,-68,-58,39,24,-63,-29,-63,-43,-48,-63,-53
-48,-68,-19,58,-14,-43,-4,-43,-29,-39,-43,-43
-112,-73,39,92,-75,-17,19,-19,0,-14,-34,-24
-43,-78,-34,61,-4,-56,9,-29,-14,-43,-58,-53
-9,-87,-78,48,34,-82,14,-24,-19,-53,-78,-87
-48,-87,-39,68,-4,-63,48,19,4,-29,-58,-68
-68,-87,-19,78,-24,-53,58,58,39,0,-29,-43
-78,-92,-14,85,-31,-53,63,78,78,19,-9,-39
-68,-73,-4,70,-31,-39,63,107,112,48,4,-29
-19,-34,-14,26,-2,-24,53,141,161,92,39,-4
0,9,9,-4,-4,9,53,200,229,170,112,48
34,48,14,-41,9,31,43,292,317,258,190,112
73,97,24,-85,24,61,24,346,380,326,263,175
87,161,73,-124,7,117,-24,346,409,395,336,253
97,214,117,-156,-9,165,-78,312,409,444,409,312
131,268,136,-200,-2,202,-126,268,409,497,478,370
161,322,161,-241,0,241,-175,229,405,536,536,439
180,370,190,-275,-4,280,-273,151,380,575,580,497
195,409,214,-302,-9,312,-380,43,326,585,614,536
175,439,263,-307,-43,351,-448,-68,258,570,634,575
151,439,287,-295,-68,363,-497,-170,180,522,600,556
151,434,283,-292,-65,358,-566,-307,43,414,517,502
151,448,297,-300,-73,373,-649,-448,-122,297,409,444
156,448,292,-302,-68,370,-707,-566,-258,195,317,400
136,444,307,-290,-85,375,-761,-697,-385,92,229,346
97,395,297,-246,-100,346,-800,-819,-522,-29,112,273
48,317,268,-183,-109,292,-824,-917,-634,-141,0,175
29,263,234,-146,-102,248,-849,-1005,-722,-234,-82,117
4,253,248,-129,-122,251,-849,-1054,-795,-283,-141,73
-43,229,273,-92,-158,251,-810,-1098,-854,-331,-180,48
-87,195,283,-53,-185,239,-741,-1063,-863,-356,-204,14
-131,151,283,-9,-207,217,-658,-966,-810,-346,-214,-14
-161,107,268,26,-214,187,-585,-863,-732,-341,-229,-29
-161,82,244,39,-202,163,-502,-756,-649,-326,-229,-48
-151,58,209,46,-180,134,-434,-644,-546,-297,-214,-68
-136,39,175,48,-156,107,-370,-551,-463,-263,-195,-68
-117,29,146,43,-131,87,-326,-463,-380,-234,-190,-78
-97,14,112,41,-104,63,-273,-375,-297,-200,-161,-68
-92,4,97,43,-95,51,-234,-292,-229,-151,-122,-43
-73,4,78,34,-75,41,-190,-234,-195,-112,-92,-43
-53,-4,48,29,-51,21,-141,-185,-161,-97,-87,-48
-53,-9,43,31,-48,17,-92,-151,-131,-78,-73,-43
-53,-9,43,31,-48,17,-63,-117,-107,-78,-73,-34
-43,-24,19,34,-31,-2,-58,-107,-82,-73,-68,-24
-39,-14,24,26,-31,4,-58,-92,-58,-63,-58,-14
-39,-4,34,21,-36,14,-48,-82,-43,-48,-43,-9
-78,-14,63,46,-70,24,-39,-48,-19,-24,-24,-9
-78,-19,58,48,-68,19,-29,-39,-9,-9,-19,0
-53,-24,29,39,-41,2,-19,-39,-14,-14,-29,-9
-43,-34,9,39,-26,-12,-9,-39,-19,-19,-29,-19
-39,-39,0,39,-19,-19,0,-24,-19,-24,-39,-24
-39,-39,0,39,-19,-19,4,-24,-24,-29,-39,-29
-53,-39,14,46,-34,-12,4,-19,-9,-19,-29,-19
-53,-43,9,48,-31,-17,0,-19,-4,-19,-29,-19
-48,-43,4,46,-26,-19,0,-19,-4,-19,-29,-19
-48,-43,4,46,-26,-19,0,-19,-4,-19,-29,-19
-43,-43,0,43,-21,-21,-4,-24,-4,-24,-34,-29
-39,-43,-4,41,-17,-24,-4,-19,-4,-24,-34,-29
-34,-43,-9,39,-12,-26,0,-19,-4,-24,-34,-34
-24,-43,-19,34,-2,-31,0,-19,-4,-24,-34,-34
-29,-39,-9,34,-9,-24,9,-4,9,-14,-34,-19
-34,-39,-4,36,-14,-21,9,-4,14,-9,-34,-19
-39,-39,0,39,-19,-19,9,0,14,-9,-34,-19
-43,-39,4,41,-24,-17,9,0,14,-9,-34,-19
-39,-48,-9,43,-14,-29,0,-9,4,-19,-29,-29
-34,-48,-14,41,-9,-31,0,-9,4,-19,-29,-29
-29,-43,-14,36,-7,-29,4,-9,4,-19,-29,-29
-24,-43,-19,34,-2,-31,4,-4,4,-19,-29,-24
-29,-43,-14,36,-7,-29,4,-4,4,-19,-34,-24
-29,-43,-14,36,-7,-29,4,-4,4,-14,-34,-24
-29,-43,-14,36,-7,-29,4,-4,9,-14,-34,-24
-29,-43,-14,36,-7,-29,4,-4,9,-14,-29,-24
-29,-43,-14,36,-7,-29,4,4,9,-4,-29,-29
-29,-48,-19,39,-4,-34,4,9,9,-4,-29,-29
-29,-48,-19,39,-4,-34,4,9,14,-4,-29,-24
-29,-48,-19,39,-4,-34,4,9,14,-4,-29,-24
-34,-39,-4,36,-14,-21,4,14,14,-4,-19,-14
-29,-39,-9,34,-9,-24,4,14,14,0,-19,-14
-29,-39,-9,34,-9,-24,4,14,14,0,-14,-14
-34,-39,-4,36,-14,-21,4,14,14,0,-9,-14
-34,-34,0,34,-17,-17,9,14,19,4,-14,-9
-34,-34,0,34,-17,-17,9,14,19,4,-14,-9
-34,-39,-4,36,-14,-21,9,14,19,0,-19,-14
-34,-39,-4,36,-14,-21,9,14,19,0,-19,-14
-24,-39,-14,31,-4,-26,9,14,19,-4,-19,-24
-19,-34,-14,26,-2,-24,9,14,19,-4,-19,-24
-19,-34,-14,26,-2,-24,4,14,19,-4,-24,-24
-14,-34,-19,24,2,-26,4,14,19,-9,-24,-24
-4,-34,-29,19,12,-31,4,4,19,-9,-19,-24
-14,-34,-19,24,2,-26,4,9,24,-4,-19,-24
-14,-34,-19,24,2,-26,4,9,24,-4,-19,-19
-14,-34,-19,24,2,-26,4,9,24,-4,-19,-19
-9,-34,-24,21,7,-29,14,19,24,-4,-19,-14
-9,-34,-24,21,7,-29,14,24,24,-4,-19,-14
-9,-34,-24,21,7,-29,14,24,24,-4,-19,-14
-9,-34,-24,21,7,-29,14,24,24,-4,-19,-19
-14,-43,-29,29,7,-36,14,24,29,-4,-9,-9
-19,-39,-19,29,0,-29,19,24,29,-4,-4,-4
-24,-39,-14,31,-4,-26,19,29,29,-4,-4,-4
-29,-39,-9,34,-9,-24,19,29,29,-4,-4,-4
-19,-39,-19,29,0,-29,9,29,29,-4,-14,-4
-19,-39,-19,29,0,-29,9,29,29,-4,-14,-4
-14,-39,-24,26,4,-31,9,29,29,-4,-14,-4
-14,-34,-19,24,2,-26,9,29,29,-4,-14,-4
-14,-19,-4,17,-4,-12,9,29,39,9,-9,-4
-14,-19,-4,17,-4,-12,9,29,39,9,-9,-4
-14,-24,-9,19,-2,-17,9,29,39,9,-9,-4
-14,-24,-9,19,-2,-17,9,34,39,14,-4,0
-14,-19,-4,17,-4,-12,9,39,39,4,-4,-4
-14,-19,-4,17,-4,-12,9,39,39,4,-4,-4
-14,-19,-4,17,-4,-12,9,39,43,4,-4,-4
-14,-14,0,14,-7,-7,9,43,48,9,0,-4
0,-14,-14,7,7,-14,9,43,39,9,0,0
0,-14,-14,7,7,-14,9,43,39,9,0,0
0,-9,-9,4,4,-9,9,48,43,9,0,0
-4,-9,-4,7,0,-7,9,48,48,14,9,4
-9,-19,-9,14,0,-14,19,53,58,19,9,4
-9,-19,-9,14,0,-14,19,53,58,19,9,4
0,-14,-14,7,7,-14,19,53,58,19,9,9
-4,-14,-9,9,2,-12,19,58,63,19,14,9
-4,-4,0,4,-2,-2,9,63,63,19,14,9
-4,-4,0,4,-2,-2,9,63,63,19,14,9
0,0,0,0,0,0,9,63,68,24,14,9
4,0,-4,-2,4,-2,9,68,68,29,14,14
4,4,0,-4,2,2,9,63,73,39,19,14
4,4,0,-4,2,2,9,63,73,39,24,14
9,9,0,-9,4,4,9,63,78,39,24,19
14,9,-4,-12,9,2,9,73,78,43,24,19
4,4,0,-4,2,2,19,87,82,43,39,24
0,4,4,-2,-2,4,19,87,92,53,39,29
0,9,9,-4,-4,9,19,87,92,53,43,39
4,14,9,-9,-2,12,19,92,97,53,43,48
14,24,9,-19,2,17,19,97,97,63,48,43
19,24,4,-21,7,14,14,97,97,63,48,43
24,29,4,-26,9,17,14,97,102,63,58,48
24,29,4,-26,9,17,14,102,107,63,58,48
34,29,-4,-31,19,12,4,107,107,68,58,53
34,34,0,-34,17,17,4,107,117,73,68,58
34,39,4,-36,14,21,4,117,122,73,73,63
34,39,4,-36,14,21,4,122,126,82,78,68
34,43,9,-39,12,26,9,126,131,97,78,68
39,48,9,-43,14,29,4,126,136,97,78,73
39,53,14,-46,12,34,4,126,136,102,87,78
39,58,19,-48,9,39,4,131,141,107,92,82
43,73,29,-58,7,51,4,136,141,112,97,87
48,78,29,-63,9,53,4,141,141,117,102,92
48,82,34,-65,7,58,4,146,151,117,107,92
53,82,29,-68,12,56,4,151,151,117,107,92
58,87,29,-73,14,58,4,151,156,126,112,102
63,92,29,-78,17,61,0,151,161,131,117,107
68,97,29,-82,19,63,-4,151,165,131,122,112
68,102,34,-85,17,68,-4,161,170,136,126,117
63,107,43,-85,9,75,-4,161,170,136,131,112
78,112,34,-95,21,73,-14,161,170,136,131,117
78,117,39,-97,19,78,-14,165,175,136,136,122
63,122,58,-92,2,90,-4,170,180,146,141,126
73,126,53,-100,9,90,-4,170,190,156,156,136
82,131,48,-107,17,90,-4,170,190,156,156,141
87,131,43,-109,21,87,-9,170,195,156,156,146
87,136,48,-112,19,92,-9,175,200,161,161,161
87,131,43,-109,21,87,-14,175,200,170,170,161
97,136,39,-117,29,87,-14,170,195,170,170,161
97,141,43,-119,26,92,-14,170,195,170,170,165
97,141,43,-119,26,92,-14,170,195,175,175,165
97,151,53,-124,21,102,-14,170,185,180,165,165
102,151,48,-126,26,100,-14,170,190,180,170,165
102,156,53,-129,24,104,-14,170,190,180,170,170
97,156,58,-126,19,107,-14,170,190,180,175,180
87,146,58,-117,14,102,-4,180,190,185,175,170
92,151,58,-122,17,104,-4,180,190,185,175,170
92,151,58,-122,17,104,-4,180,190,185,175,170
92,146,53,-119,19,100,-4,175,185,180,175,170
102,146,43,-124,29,95,-14,165,185,180,175,170
102,146,43,-124,29,95,-9,165,185,180,175,170
102,141,39,-122,31,90,-9,165,185,175,170,165
102,141,39,-122,31,90,-9,165,185,175,170,165
92,146,53,-119,19,100,0,161,185,175,170,165
92,146,53,-119,19,100,4,161,185,170,165,161
87,141,53,-114,17,97,4,161,180,170,161,156
82,136,53,-109,14,95,4,156,175,165,161,146
82,122,39,-102,21,80,4,156,165,151,151,141
82,117,34,-100,24,75,4,146,156,146,146,131
78,102,24,-90,26,63,9,146,151,141,136,122
73,97,24,-85,24,61,14,141,146,136,136,122
58,97,39,-78,9,68,24,136,146,136,126,112
48,82,34,-65,7,58,24,131,146,131,122,107
43,78,34,-61,4,56,24,126,136,126,117,97
43,73,29,-58,7,51,24,117,126,117,102,92
39,68,29,-53,4,48,24,97,126,107,97,87
29,58,29,-43,0,43,29,92,122,102,92,87
29,48,19,-39,4,34,29,87,112,92,87,78
29,39,9,-34,9,24,29,73,97,87,73,63
24,39,14,-31,4,26,29,78,97,87,78,73
14,34,19,-24,-2,26,29,78,92,82,78,73
9,29,19,-19,-4,24,29,68,87,82,78,68
4,19,14,-12,-4,17,29,68,87,73,73,63
14,14,0,-14,7,7,24,63,82,63,48,48
14,9,-4,-12,9,2,24,53,68,53,43,39
9,4,-4,-7,7,0,24,48,68,53,43,39
4,4,0,-4,2,2,24,48,68,53,43,39
-9,0,9,4,-9,4,24,48,58,58,43,43
-9,-4,4,7,-7,0,24,39,48,48,43,34
-9,-9,0,9,-4,-4,24,34,48,48,39,34
-14,-9,4,12,-9,-2,24,34,48,39,39,34
-9,-14,-4,12,-2,-9,24,39,48,29,34,19
-4,-14,-9,9,2,-12,24,34,43,29,29,19
0,-14,-14,7,7,-14,24,29,39,24,24,14
0,-14,-14,7,7,-14,24,29,39,24,24,14
-4,-24,-19,14,7,-21,14,24,39,24,14,14
-4,-24,-19,14,7,-21,14,19,29,19,14,14
-4,-24,-19,14,7,-21,14,14,29,19,14,14
-4,-24,-19,14,7,-21,14,9,29,14,9,9
-19,-24,-4,21,-7,-14,24,9,39,24,19,14
-19,-24,-4,21,-7,-14,24,14,39,24,19,19
-24,-24,0,24,-12,-12,24,14,39,24,19,24
-34,-29,4,31,-19,-12,24,19,39,24,19,24
-43,-29,14,36,-29,-7,24,19,29,24,19,14
-43,-29,14,36,-29,-7,24,24,29,24,14,14
-39,-29,9,34,-24,-9,24,24,29,24,14,14
-34,-29,4,31,-19,-12,24,14,24,14,14,9
-29,-29,0,29,-14,-14,14,4,24,14,9,9
-24,-29,-4,26,-9,-17,14,4,19,14,9,9
-19,-29,-9,24,-4,-19,14,4,19,14,9,14
-14,-34,-19,24,2,-26,14,4,19,14,14,14
-29,-34,-4,31,-12,-19,24,9,24,19,14,14
-29,-29,0,29,-14,-14,19,9,24,19,14,14
-29,-29,0,29,-14,-14,19,14,19,19,9,9
-29,-29,0,29,-14,-14,24,19,19,19,9,9
-29,-29,0,29,-14,-14,14,19,19,19,9,14
-24,-29,-4,26,-9,-17,14,14,19,19,9,14
-19,-29,-9,24,-4,-19,14,9,19,19,9,14
-14,-29,-14,21,0,-21,14,4,19,19,9,14
-19,-29,-9,24,-4,-19,14,14,29,19,9,14
-19,-29,-9,24,-4,-19,9,9,24,19,9,9
-24,-29,-4,26,-9,-17,9,9,24,19,9,9
-29,-29,0,29,-14,-14,14,14,29,19,14,9
-24,-29,-4,26,-9,-17,14,4,19,19,14,9
-24,-29,-4,26,-9,-17,14,4,19,19,9,9
-24,-29,-4,26,-9,-17,9,-4,19,19,9,9
-24,-29,-4,26,-9,-17,9,-4,19,19,14,14
-29,-29,0,29,-14,-14,14,4,19,19,14,14
-29,-29,0,29,-14,-14,14,4,14,14,14,9
-24,-29,-4,26,-9,-17,14,4,14,14,14,9
-24,-29,-4,26,-9,-17,14,4,14,19,14,9
-19,-29,-9,24,-4,-19,4,0,14,9,4,4
-19,-29,-9,24,-4,-19,4,4,14,9,4,4
-29,-29,0,29,-14,-14,9,4,14,9,4,4
-29,-29,0,29,-14,-14,9,0,14,14,4,4
-24,-29,-4,26,-9,-17,14,9,14,24,14,9
-14,-29,-14,21,0,-21,14,9,14,24,14,9
-24,-29,-4,26,-9,-17,14,9,14,24,14,9
-29,-29,0,29,-14,-14,14,9,14,24,14,14
-29,-29,0,29,-14,-14,9,0,14,24,14,14
-29,-29,0,29,-14,-14,9,4,14,24,14,14
-24,-29,-4,26,-9,-17,9,4,19,24,14,14
-24,-29,-4,26,-9,-17,9,4,19,24,14,14
-29,-19,9,24,-19,-4,19,4,29,34,14,14
-29,-19,9,24,-19,-4,19,4,29,34,14,14
-24,-19,4,21,-14,-7,19,4,29,34,14,14
-24,-19,4,21,-14,-7,19,4,29,34,14,14
-24,-19,4,21,-14,-7,9,14,19,34,14,14
-24,-19,4,21,-14,-7,9,14,19,34,14,14
-24,-19,4,21,-14,-7,9,14,19,34,14,14
-24,-19,4,21,-14,-7,9,14,19,34,19,14
-34,-19,14,26,-24,-2,19,14,29,34,19,14
-34,-19,14,26,-24,-2,14,14,29,34,19,14
-34,-19,14,26,-24,-2,14,14,29,34,19,14
-39,-19,19,29,-29,0,19,14,29,39,19,14
-29,-19,9,24,-19,-4,19,4,19,29,9,4
-14,-19,-4,17,-4,-12,19,4,19,29,9,0
-24,-19,4,21,-14,-7,19,4,19,29,9,0
-29,-19,9,24,-19,-4,19,4,19,29,9,0
-39,-29,9,34,-24,-9,19,9,29,29,9,4
-34,-29,4,31,-19,-12,19,14,29,29,9,14
-34,-29,4,31,-19,-12,19,19,29,29,9,19
-34,-29,4,31,-19,-12,19,24,29,29,9,24
-24,-19,4,21,-14,-7,19,14,29,29,19,14
-24,-19,4,21,-14,-7,19,14,29,29,19,14
-24,-19,4,21,-14,-7,19,14,29,29,19,14
-19,-19,0,19,-9,-9,19,14,29,29,19,14
-19,-19,0,19,-9,-9,19,24,29,29,19,14
-24,-19,4,21,-14,-7,19,24,29,29,19,14
-24,-19,4,21,-14,-7,19,24,29,29,19,14
-19,-19,0,19,-9,-9,19,24,29,29,19,14
-19,-19,0,19,-9,-9,19,14,29,29,19,14
-19,-19,0,19,-9,-9,19,14,29,29,19,14
-19,-19,0,19,-9,-9,19,14,29,29,19,14
-19,-19,0,19,-9,-9,19,19,29,29,19,14
-4,-29,-24,17,9,-26,19,19,29,29,19,14
-4,-29,-24,17,9,-26,19,19,29,29,19,14
-14,-29,-14,21,0,-21,19,19,34,29,19,14
-14,-29,-14,21,0,-21,19,19,34,29,19,14
-19,-19,0,19,-9,-9,19,19,34,34,19,14
-19,-19,0,19,-9,-9,19,19,34,34,19,14
-24,-19,4,21,-14,-7,19,19,34,34,19,14
-29,-19,9,24,-19,-4,19,19,34,34,19,14
-34,-19,14,26,-24,-2,29,29,34,24,19,24
-39,-24,14,31,-26,-4,29,29,34,24,19,24
-43,-29,14,36,-29,-7,29,29,34,24,19,24
-48,-34,14,41,-31,-9,29,29,34,24,19,24
-34,-34,0,34,-17,-17,19,19,34,19,19,14
-29,-34,-4,31,-12,-19,19,14,34,19,14,14
-24,-39,-14,31,-4,-26,19,14,34,19,14,14
-19,-39,-19,29,0,-29,19,19,34,19,14,14
-14,-29,-14,21,0,-21,19,9,19,14,24,14
-14,-29,-14,21,0,-21,19,9,19,14,19,14
-14,-29,-14,21,0,-21,19,9,24,19,19,14
-14,-24,-9,19,-2,-17,19,9,24,19,19,14
-24,-24,0,24,-12,-12,19,19,19,14,9,19
-29,-29,0,29,-14,-14,19,19,19,14,14,19
-29,-29,0,29,-14,-14,19,19,19,14,14,19
-29,-29,0,29,-14,-14,19,19,19,14,14,14
-19,-29,-9,24,-4,-19,19,9,14,14,9,9
-19,-29,-9,24,-4,-19,19,9,14,14,9,9
-19,-34,-14,26,-2,-24,19,9,14,14,9,9
-19,-34,-14,26,-2,-24,19,4,14,14,9,9
-19,-34,-14,26,-2,-24,14,4,14,4,0,9
-19,-34,-14,26,-2,-24,14,0,14,4,0,9
-19,-34,-14,26,-2,-24,19,0,14,4,0,9
-19,-34,-14,26,-2,-24,19,0,14,4,0,9
-24,-34,-9,29,-7,-21,19,9,24,14,4,19
-29,-34,-4,31,-12,-19,19,9,24,14,4,19
-39,-34,4,36,-21,-14,19,9,19,14,9,19
-43,-34,9,39,-26,-12,19,9,19,9,14,14
-34,-34,0,34,-17,-17,14,0,19,9,4,14
-29,-34,-4,31,-12,-19,14,0,19,4,4,14
-24,-34,-9,29,-7,-21,19,0,19,4,0,14
-19,-34,-14,26,-2,-24,19,0,19,9,0,14
-29,-34,-4,31,-12,-19,19,4,19,9,4,4
-29,-34,-4,31,-12,-19,19,4,19,9,4,4
-29,-39,-9,34,-9,-24,19,4,19,9,4,4
-29,-39,-9,34,-9,-24,14,4,14,9,4,4
-19,-39,-19,29,0,-29,14,-4,4,9,4,4
-24,-39,-14,31,-4,-26,14,-4,9,9,4,0
-24,-39,-14,31,-4,-26,14,-4,9,9,4,0
-24,-39,-14,31,-4,-26,14,-4,9,9,4,4
-34,-39,-4,36,-14,-21,14,-4,19,14,4,14
-34,-39,-4,36,-14,-21,19,-4,14,14,4,14
-39,-39,0,39,-19,-19,19,-9,14,9,4,14
-39,-39,0,39,-19,-19,19,-9,14,9,4,9
-39,-43,-4,41,-17,-24,19,0,14,9,4,9
-39,-43,-4,41,-17,-24,19,0,14,9,4,9
-34,-39,-4,36,-14,-21,19,0,9,9,4,4
-34,-39,-4,36,-14,-21,19,0,9,4,0,4
-34,-39,-4,36,-14,-21,14,0,4,4,-9,0
-39,-43,-4,41,-17,-24,14,0,4,4,-4,0
-39,-43,-4,41,-17,-24,14,0,4,4,-4,0
-43,-43,0,43,-21,-21,14,0,4,4,-4,0
-43,-43,0,43,-21,-21,24,0,14,4,4,0
-43,-48,-4,46,-19,-26,24,0,14,9,4,0
-43,-48,-4,46,-19,-26,24,-4,14,9,4,4
-43,-48,-4,46,-19,-26,19,-4,14,9,4,4
-34,-39,-4,36,-14,-21,9,-4,14,0,0,4
-29,-39,-9,34,-9,-24,9,-4,14,-4,-4,4
-29,-34,-4,31,-12,-19,9,-4,4,-4,-4,4
-29,-34,-4,31,-12,-19,9,-4,4,-4,-4,4
-43,-43,0,43,-21,-21,14,-4,9,-4,-4,9
-43,-43,0,43,-21,-21,14,-4,9,-4,-4,4
-39,-43,-4,41,-17,-24,9,-4,9,-4,-4,4
-34,-43,-9,39,-12,-26,9,-4,9,-4,-4,4
-24,-43,-19,34,-2,-31,9,-14,0,-4,-4,-4
-24,-48,-24,36,0,-36,9,-14,0,-4,-4,0
-34,-48,-14,41,-9,-31,9,-14,0,-4,-4,0
-34,-43,-9,39,-12,-26,9,-14,0,-4,-4,0
-19,-53,-34,36,7,-43,9,-4,0,-4,-4,0
-19,-53,-34,36,7,-43,9,-4,0,-4,-4,-4
-19,-53,-34,36,7,-43,9,-9,0,-4,-4,-4
-19,-53,-34,36,7,-43,9,-9,0,-4,-4,-4
-24,-43,-19,34,-2,-31,19,-9,9,4,4,0
-29,-43,-14,36,-7,-29,19,-4,4,9,4,0
-34,-43,-9,39,-12,-26,14,-4,4,9,4,0
-39,-48,-9,43,-14,-29,14,-4,4,9,4,0
-39,-58,-19,48,-9,-39,19,-4,4,0,-4,9
-39,-58,-19,48,-9,-39,19,-4,4,0,-4,9
-39,-58,-19,48,-9,-39,19,-9,4,-4,-4,4
-39,-58,-19,48,-9,-39,14,-9,4,-4,-9,0
-34,-58,-24,46,-4,-41,14,-9,4,-4,-9,-9
-34,-58,-24,46,-4,-41,14,-9,4,-4,-9,-9
-39,-58,-19,48,-9,-39,14,-9,4,-4,-9,-4
-39,-53,-14,46,-12,-34,19,-9,4,-4,-9,-4
-53,-53,0,53,-26,-26,19,-4,9,4,4,4
-53,-53,0,53,-26,-26,19,-4,9,4,4,4
-53,-58,-4,56,-24,-31,19,-4,4,4,0,0
-48,-58,-9,53,-19,-34,14,-9,4,4,0,0
-39,-48,-9,43,-14,-29,24,-9,4,4,0,0
-48,-48,0,48,-24,-24,19,-4,4,0,-4,0
-19,-48,-29,34,4,-39,9,-14,-4,0,-4,-4
-19,-48,-29,34,4,-39,9,-19,-9,-4,-14,-14
-48,-48,0,48,-24,-24,19,0,0,0,-9,-9
-39,-48,-9,43,-14,-29,19,0,0,0,0,0
-39,-48,-9,43,-14,-29,19,0,0,0,0,0
-39,-48,-9,43,-14,-29,19,0,0,0,0,0
-39,-48,-9,43,-14,-29,19,0,0,0,0,0
-39,-48,-9,43,-14,-29,19,-9,0,0,-9,0
-39,-48,-9,43,-14,-29,19,-9,0,0,-9,0
-39,-48,-9,43,-14,-29,19,-9,0,0,-9,0
-39,-48,-9,43,-14,-29,19,-9,0,0,-9,0
-29,-48,-19,39,-4,-34,9,-9,-9,0,0,0
-29,-48,-19,39,-4,-34,9,-9,-9,0,0,0
-29,-48,-19,39,-4,-34,9,-9,-9,0,0,0
-29,-48,-19,39,-4,-34,9,-9,-9,0,0,0
-43,-48,-4,46,-19,-26,19,0,0,9,0,0
-48,-48,0,48,-24,-24,19,0,0,9,0,0
-53,-48,4,51,-29,-21,19,0,0,9,0,0
-58,-48,9,53,-34,-19,19,0,0,9,0,0
-53,-48,4,51,-29,-21,19,-9,0,0,-9,0
-48,-48,0,48,-24,-24,19,-9,0,0,-9,0
-43,-48,-4,46,-19,-26,19,-9,0,0,-9,0
-39,-48,-9,43,-14,-29,19,-9,0,0,-9,0
-29,-58,-29,43,0,-43,9,-9,-9,0,-9,-9
-29,-58,-29,43,0,-43,9,-9,-9,0,-9,-9
-29,-58,-29,43,0,-43,9,-9,-9,0,-9,-9
-29,-58,-29,43,0,-43,9,-9,-9,0,-9,-9
-34,-48,-14,41,-9,-31,19,-9,0,9,0,0
-39,-48,-9,43,-14,-29,19,-9,0,9,0,0
-43,-48,-4,46,-19,-26,19,-9,0,9,0,0
-48,-48,0,48,-24,-24,19,-9,0,9,0,0
-39,-58,-19,48,-9,-39,9,-9,-9,0,-9,-9
-39,-58,-19,48,-9,-39,9,-9,-9,0,-9,-9
-39,-58,-19,48,-9,-39,9,-9,-9,0,-9,-9
-39,-58,-19,48,-9,-39,9,-9,-9,0,-9,-9
-39,-48,-9,43,-14,-29,9,-9,-9,0,-9,0
-39,-48,-9,43,-14,-29,9,-9,-9,0,-9,0
-39,-48,-9,43,-14,-29,9,-9,-9,0,-9,0
-39,-48,-9,43,-14,-29,9,-9,-9,0,-9,0
-39,-58,-19,48,-9,-39,9,-9,-9,0,0,0
-39,-58,-19,48,-9,-39,9,-9,-9,0,0,0
-39,-58,-19,48,-9,-39,9,-9,-9,0,0,0
-39,-58,-19,48,-9,-39,9,-9,-9,0,0,0
-29,-58,-29,43,0,-43,9,-9,-9,0,-9,-9
-29,-58,-29,43,0,-43,9,-9,-9,0,-9,-9
-29,-58,-29,43,0,-43,9,-9,-9,0,-9,-9
-29,-58,-29,43,0,-43,9,-9,-9,0,-9,-9
-39,-48,-9,43,-14,-29,19,0,0,9,0,0
-39,-48,-9,43,-14,-29,19,0,0,9,0,0
-39,-48,-9,43,-14,-29,19,0,0,9,0,0
-39,-48,-9,43,-14,-29,19,0,0,9,0,0
-29,-43,-14,36,-7,-29,29,0,0,9,0,0
-29,-39,-9,34,-9,-24,29,0,0,9,0,0
-29,-34,-4,31,-12,-19,29,0,0,9,0,0
-29,-29,0,29,-14,-14,29,0,0,9,0,0
-29,-19,9,24,-19,-4,43,14,4,14,4,4
-29,-19,9,24,-19,-4,48,19,9,19,9,9
-29,-19,9,24,-19,-4,53,24,14,24,14,14
-29,-19,9,24,-19,-4,58,29,19,29,19,19
-24,-14,9,19,-17,-2,58,29,29,29,29,19
-19,-9,9,14,-14,0,58,29,29,29,29,19
-14,-4,9,9,-12,2,58,29,29,29,29,19
-9,0,9,4,-9,4,58,29,29,29,29,19
-9,9,19,0,-14,14,58,39,29,39,29,24
-9,9,19,0,-14,14,58,39,29,39,29,29
-9,9,19,0,-14,14,58,39,29,39,29,34
-9,9,19,0,-14,14,58,39,29,39,29,39
-4,9,14,-2,-9,12,53,39,29,39,29,29
0,9,9,-4,-4,9,48,39,29,39,29,29
4,9,4,-7,0,7,43,39,29,39,29,29
9,9,0,-9,4,4,39,39,29,39,29,29
9,14,4,-12,2,9,34,39,39,48,34,34
9,19,9,-14,0,14,29,39,39,48,39,39
9,24,14,-17,-2,19,24,39,39,48,43,43
9,29,19,-19,-4,24,19,39,39,48,48,48
14,29,14,-21,0,21,14,29,39,48,39,48
19,29,9,-24,4,19,9,29,39,48,39,48
24,29,4,-26,9,17,4,29,39,48,39,48
29,29,0,-29,14,14,0,29,39,48,39,48
19,24,4,-21,7,14,-9,19,29,39,29,39
19,19,0,-19,9,9,-9,19,29,39,29,39
19,14,-4,-17,12,4,-9,19,29,39,29,39
19,9,-9,-14,14,0,-14,14,24,39,29,39
29,14,-14,-21,21,0,-24,14,14,34,34,39
29,9,-19,-19,24,-4,-24,14,14,34,34,39
24,9,-14,-17,19,-2,-24,14,14,34,34,39
24,4,-19,-14,21,-7,-24,9,9,34,34,39
14,0,-14,-7,14,-7,-14,0,9,24,19,34
4,-9,-14,2,9,-12,-14,-4,4,19,19,24
0,-19,-19,9,9,-19,-9,-4,0,14,19,19
0,-29,-29,14,14,-29,-9,-4,0,9,14,19
0,-34,-34,17,17,-34,-9,4,0,4,9,9
-4,-34,-29,19,12,-31,-9,4,0,4,4,4
-9,-34,-24,21,7,-29,-9,4,0,4,4,0
-14,-39,-24,26,4,-31,-9,4,0,4,4,0
-9,-43,-34,26,12,-39,-9,-4,-4,-4,-4,0
-4,-48,-43,26,19,-46,-9,-9,-4,-14,-4,-4
-4,-58,-53,31,24,-56,-9,-9,-14,-14,-4,-9
-24,-68,-43,46,9,-56,-4,-19,-14,-19,-14,-9
-43,-73,-29,58,-7,-51,-4,-14,-29,-14,-19,-19
-53,-78,-24,65,-14,-51,0,-19,-34,-19,-24,-24
-53,-82,-29,68,-12,-56,0,-24,-34,-24,-29,-24
-53,-87,-34,70,-9,-61,-4,-24,-34,-24,-34,-29
-53,-97,-43,75,-4,-70,-4,-34,-43,-34,-43,-34
-48,-97,-48,73,0,-73,-4,-34,-43,-34,-43,-34
-48,-97,-48,73,0,-73,-4,-34,-43,-39,-43,-34
-48,-97,-48,73,0,-73,-4,-39,-48,-39,-43,-34
-58,-87,-29,73,-14,-58,-4,-39,-39,-39,-29,-29
-58,-87,-29,73,-14,-58,-4,-34,-34,-39,-29,-29
-68,-92,-24,80,-21,-58,0,-34,-34,-39,-29,-29
-68,-92,-24,80,-21,-58,0,-34,-34,-39,-29,-29
-63,-92,-29,78,-17,-61,-4,-34,-34,-29,-24,-19
-63,-92,-29,78,-17,-61,-4,-39,-43,-29,-24,-19
-58,-92,-34,75,-12,-63,-4,-39,-43,-29,-24,-24
-58,-92,-34,75,-12,-63,-4,-39,-39,-29,-24,-24
-68,-87,-19,78,-24,-53,-4,-39,-39,-39,-34,-34
-68,-87,-19,78,-24,-53,-4,-39,-39,-39,-34,-34
-68,-87,-19,78,-24,-53,-4,-39,-39,-39,-34,-34
-68,-87,-19,78,-24,-53,-4,-39,-39,-39,-39,-34
-68,-97,-29,82,-19,-63,-4,-48,-48,-39,-39,-34
-63,-97,-34,80,-14,-65,0,-43,-48,-39,-34,-34
-58,-97,-39,78,-9,-68,0,-43,-48,-39,-34,-34
-53,-97,-43,75,-4,-70,-4,-48,-48,-39,-34,-34
-58,-87,-29,73,-14,-58,-4,-39,-58,-39,-43,-34
-58,-87,-29,73,-14,-58,-4,-39,-48,-39,-43,-34
-58,-87,-29,73,-14,-58,-4,-39,-48,-39,-43,-34
-58,-87,-29,73,-14,-58,-4,-39,-48,-39,-43,-34
-63,-87,-24,75,-19,-56,-4,-39,-39,-29,-39,-24
-68,-87,-19,78,-24,-53,-4,-39,-39,-34,-34,-24
-73,-82,-9,78,-31,-46,-4,-39,-43,-34,-34,-19
-73,-82,-9,78,-31,-46,-4,-39,-43,-34,-29,-19
-68,-82,-14,75,-26,-48,-4,-48,-48,-43,-39,-24
-63,-82,-19,73,-21,-51,-4,-48,-48,-43,-39,-29
-53,-82,-29,68,-12,-56,-4,-48,-48,-43,-39,-34
-48,-82,-34,65,-7,-58,-4,-48,-48,-43,-34,-39
-63,-82,-19,73,-21,-51,-4,-39,-48,-39,-34,-29
-68,-82,-14,75,-26,-48,-4,-39,-48,-39,-34,-29
-68,-82,-14,75,-26,-48,-4,-39,-48,-39,-34,-29
-63,-82,-19,73,-21,-51,-4,-39,-48,-43,-34,-29
-63,-82,-19,73,-21,-51,4,-39,-48,-43,-34,-29
-68,-82,-14,75,-26,-48,4,-39,-48,-39,-34,-29
-73,-82,-9,78,-31,-46,4,-39,-48,-39,-34,-29
-73,-82,-9,78,-31,-46,4,-39,-48,-39,-34,-29
-63,-82,-19,73,-21,-51,4,-39,-43,-39,-24,-29
-63,-82,-19,73,-21,-51,4,-39,-43,-39,-24,-29
-63,-82,-19,73,-21,-51,4,-39,-39,-39,-24,-29
-63,-82,-19,73,-21,-51,4,-39,-39,-39,-24,-29
-63,-82,-19,73,-21,-51,4,-39,-39,-29,-24,-19
-58,-82,-24,70,-17,-53,4,-39,-39,-29,-24,-19
-58,-82,-24,70,-17,-53,4,-39,-39,-29,-24,-19
-58,-78,-19,68,-19,-48,4,-39,-39,-29,-24,-19
-48,-68,-19,58,-14,-43,0,-34,-48,-39,-24,-19
-53,-68,-14,61,-19,-41,0,-34,-48,-34,-24,-19
-53,-68,-14,61,-19,-41,0,-39,-43,-29,-24,-19
-48,-68,-19,58,-14,-43,0,-39,-43,-29,-24,-14
-48,-68,-19,58,-14,-43,0,-24,-34,-19,-24,-14
-87,-68,19,78,-53,-24,24,-14,-19,-9,-4,-4
-82,-73,9,78,-46,-31,29,0,-9,-14,-4,-4
-53,-78,-24,65,-14,-51,29,0,-14,-24,-19,-24
-39,-87,-48,63,4,-68,43,14,-9,-24,-29,-48
-58,-87,-29,73,-14,-58,48,39,4,-9,-19,-39
-78,-87,-9,82,-34,-48,68,68,39,19,0,-14
-78,-82,-4,80,-36,-43,73,107,78,48,19,0
-48,-63,-14,56,-17,-39,82,136,122,78,43,9
-39,-34,4,36,-21,-14,82,180,180,131,87,43
-29,0,29,14,-29,14,82,239,248,200,151,87
14,48,34,-31,-9,41,63,312,317,258,209,141
53,107,53,-80,0,80,43,356,370,317,273,195
78,161,82,-119,-2,122,-4,356,400,385,356,263
78,214,136,-146,-29,175,-58,322,400,444,429,331
102,278,175,-190,-36,226,-107,287,409,497,497,400
141,331,190,-236,-24,261,-175,239,395,536,556,468
180,370,190,-275,-4,280,-283,141,351,556,590,507
204,409,204,-307,0,307,-400,24,287,546,605,536
185,439,253,-312,-34,346,-458,-78,219,531,614,556
131,439,307,-285,-87,373,-497,-180,141,492,590,566
122,444,322,-283,-100,383,-566,-307,14,395,507,531
151,458,307,-305,-78,383,-658,-448,-141,278,409,453
146,458,312,-302,-82,385,-727,-575,-268,185,326,409
136,434,297,-285,-80,366,-771,-688,-385,102,248,375
107,375,268,-241,-80,322,-810,-800,-512,-19,141,292
68,317,248,-192,-90,283,-834,-907,-634,-131,29,195
29,263,234,-146,-102,248,-849,-976,-712,-214,-53,136
-4,244,248,-119,-126,246,-829,-1024,-775,-263,-102,102
-53,239,292,-92,-173,265,-780,-1049,-834,-302,-141,87
-107,204,312,-48,-209,258,-722,-1005,-824,-317,-156,63
-141,161,302,-9,-222,231,-639,-917,-771,-317,-165,43
-161,117,278,21,-219,197,-556,-814,-702,-302,-170,19
-170,82,253,43,-212,168,-483,-707,-619,-278,-170,0
-161,68,229,46,-195,148,-405,-595,-517,-248,-156,-9
-156,58,214,48,-185,136,-351,-502,-424,-234,-156,-29
-126,39,165,43,-146,102,-317,-434,-370,-214,-151,-48
-97,34,131,31,-114,82,-273,-356,-297,-180,-122,-39
-92,34,126,29,-109,80,-214,-273,-239,-122,-82,-14
-92,24,117,34,-104,70,-161,-204,-185,-82,-53,4
-73,14,87,29,-80,51,-122,-165,-161,-68,-48,-9
-53,9,63,21,-58,36,-82,-131,-131,-58,-43,-4
-63,0,63,31,-63,31,-53,-107,-107,-48,-43,-4
-73,-4,68,39,-70,31,-29,-87,-82,-43,-29,-4
-78,4,82,36,-80,43,-29,-63,-58,-34,-19,4
-68,4,73,31,-70,39,-29,-53,-43,-19,-14,0
-58,-4,53,31,-56,24,-29,-39,-39,-14,-4,0
-58,-9,48,34,-53,19,-19,-29,-39,-9,0,9
-48,-14,34,31,-41,9,-9,-29,-39,-19,-4,-4
-43,-24,19,34,-31,-2,0,-29,-39,-19,-9,-9
-43,-29,14,36,-29,-7,9,-14,-34,-19,-24,-9
-48,-29,19,39,-34,-4,14,-14,-34,-19,-29,-9
-63,-29,34,46,-48,2,14,0,-9,-9,-24,-9
-63,-34,29,48,-46,-2,9,0,-4,-9,-19,-9
-58,-34,24,46,-41,-4,9,0,-4,-9,-14,-9
-58,-34,24,46,-41,-4,9,0,-4,-9,-9,-9
-58,-34,24,46,-41,-4,14,4,-4,-4,-4,-9
-58,-34,24,46,-41,-4,14,9,-4,-4,-4,-9
-58,-34,24,46,-41,-4,19,9,-4,-4,-4,-14
-53,-34,19,43,-36,-7,19,9,-4,-4,-4,-14
-53,-39,14,46,-34,-12,19,14,0,-14,-14,-9
-53,-39,14,46,-34,-12,19,14,4,-9,-14,-9
-53,-39,14,46,-34,-12,19,19,4,-9,-14,-9
-53,-39,14,46,-34,-12,19,19,4,-9,-14,-9
-53,-39,14,46,-34,-12,19,19,4,0,-9,-9
-53,-39,14,46,-34,-12,19,19,4,0,-9,-9
-53,-34,19,43,-36,-7,24,19,4,0,-9,-9
-53,-34,19,43,-36,-7,24,24,4,0,-9,-4
-48,-34,14,41,-31,-9,34,24,4,-9,-14,-14
-48,-34,14,41,-31,-9,34,24,4,-4,-14,-14
-48,-34,14,41,-31,-9,34,24,9,-4,-14,-14
-48,-34,14,41,-31,-9,34,24,9,-4,-9,-14
-48,-24,24,36,-36,0,34,24,0,-4,-9,-9
-48,-29,19,39,-34,-4,34,29,0,-4,-9,-9
-48,-29,19,39,-34,-4,34,29,4,-4,-9,-4
-48,-29,19,39,-34,-4,34,29,4,-4,-9,-4
-53,-39,14,46,-34,-12,24,34,14,-4,-9,-4
-48,-39,9,43,-29,-14,24,34,14,0,-9,-4
-48,-39,9,43,-29,-14,24,34,14,0,-4,-4
-53,-39,14,46,-34,-12,24,34,14,0,0,-4
-43,-34,9,39,-26,-12,29,34,9,4,4,-9
-43,-34,9,39,-26,-12,29,34,9,4,4,-9
-43,-39,4,41,-24,-17,29,34,9,0,0,-14
-43,-39,4,41,-24,-17,29,34,9,0,0,-14
-34,-29,4,31,-19,-12,29,24,0,4,0,-14
-29,-24,4,26,-17,-9,29,24,0,4,0,-14
-29,-24,4,26,-17,-9,24,24,0,4,-4,-14
-24,-24,0,24,-12,-12,24,24,0,0,-4,-14
-39,-24,14,31,-26,-4,34,34,9,0,9,-4
-53,-24,29,39,-41,2,34,39,14,4,9,-4
-58,-24,34,41,-46,4,34,39,14,4,9,0
-63,-24,39,43,-51,7,34,39,14,4,9,0
-43,-24,19,34,-31,-2,24,29,14,4,0,-4
-39,-24,14,31,-26,-4,24,34,14,4,0,-4
-34,-24,9,29,-21,-7,24,34,14,4,0,-4
-29,-24,4,26,-17,-9,24,34,14,4,0,-9
-34,-24,9,29,-21,-7,34,43,19,4,0,0
-39,-19,19,29,-29,0,39,43,19,4,4,4
-43,-19,24,31,-34,2,39,48,19,4,4,4
-48,-19,29,34,-39,4,39,48,19,4,4,4
-43,-19,24,31,-34,2,29,39,19,4,4,4
-39,-19,19,29,-29,0,29,39,19,4,4,4
-29,-19,9,24,-19,-4,29,39,19,4,4,4
-24,-14,9,19,-17,-2,29,39,19,4,4,4
-29,-9,19,19,-24,4,29,48,29,9,19,4
-34,-9,24,21,-29,7,29,48,29,9,19,4
-39,-14,24,26,-31,4,29,48,29,9,19,4
-43,-14,29,29,-36,7,29,53,29,14,24,9
-39,-9,29,24,-34,9,29,48,29,4,14,4
-34,-9,24,21,-29,7,29,48,29,4,14,4
-29,-9,19,19,-24,4,29,48,34,4,14,4
-24,-4,19,14,-21,7,29,53,39,9,19,4
-24,-4,19,14,-21,7,29,53,39,19,29,19
-29,-4,24,17,-26,9,29,53,39,19,29,19
-34,0,34,17,-34,17,29,58,43,19,29,19
-43,0,43,21,-43,21,29,58,48,24,39,24
-39,0,39,19,-39,19,29,63,48,19,29,14
-29,0,29,14,-29,14,29,63,48,19,29,14
-9,4,14,2,-12,9,29,63,48,19,29,19
-4,4,9,0,-7,7,29,68,53,19,34,19
-14,4,19,4,-17,12,29,73,53,29,34,29
-14,4,19,4,-17,12,29,73,53,29,34,29
-9,9,19,0,-14,14,29,73,58,34,34,29
-4,9,14,-2,-9,12,29,78,58,39,34,34
-9,14,24,-2,-17,19,29,92,73,39,39,34
-14,14,29,0,-21,21,29,92,73,39,43,34
-14,19,34,-2,-24,26,29,92,78,39,43,39
-14,19,34,-2,-24,26,29,102,78,43,43,39
-4,14,19,-4,-12,17,29,97,73,34,48,29
-9,14,24,-2,-17,19,29,97,82,43,48,29
-9,19,29,-4,-19,24,29,97,82,43,53,34
-4,24,29,-9,-17,26,29,102,87,43,53,39
-4,34,39,-14,-21,36,29,117,97,53,58,53
0,34,34,-17,-17,34,24,117,97,53,58,53
4,39,34,-21,-14,36,24,117,102,53,68,58
4,39,34,-21,-14,36,24,122,107,53,68,58
14,48,34,-31,-9,41,24,126,97,68,68,53
14,53,39,-34,-12,46,24,126,107,73,78,58
14,58,43,-36,-14,51,24,136,112,73,82,63
14,58,43,-36,-14,51,24,141,117,82,87,68
24,63,39,-43,-7,51,29,146,112,78,87,78
29,68,39,-48,-4,53,24,146,117,78,87,82
29,73,43,-51,-7,58,24,146,117,82,97,87
29,78,48,-53,-9,63,24,151,122,87,102,92
24,82,58,-53,-17,70,24,156,126,102,107,87
29,87,58,-58,-14,73,24,161,131,107,112,92
29,92,63,-61,-17,78,24,165,146,107,117,92
34,92,58,-63,-12,75,24,170,151,107,117,92
39,97,58,-68,-9,78,24,170,146,117,122,102
43,102,58,-73,-7,80,19,170,151,122,126,107
48,107,58,-78,-4,82,14,170,156,122,131,112
48,112,63,-80,-7,87,14,180,161,126,136,117
53,117,63,-85,-4,90,24,180,161,136,151,122
68,122,53,-95,7,87,14,180,161,136,151,126
68,126,58,-97,4,92,14,185,165,136,156,131
53,131,78,-92,-12,104,24,190,170,146,161,136
63,136,73,-100,-4,104,14,190,170,156,170,141
73,141,68,-107,2,104,14,190,170,156,165,141
78,141,63,-109,7,102,9,190,175,156,161,141
78,146,68,-112,4,107,9,195,180,161,161,151
68,151,82,-109,-7,117,4,195,180,151,170,151
78,156,78,-117,0,117,4,190,175,151,170,151
78,161,82,-119,-2,122,4,190,175,151,170,156
78,161,82,-119,-2,122,4,190,175,156,175,156
87,161,73,-124,7,117,4,190,175,170,175,156
92,161,68,-126,12,114,4,190,180,170,180,156
92,165,73,-129,9,119,4,190,180,170,180,161
87,165,78,-126,4,122,4,190,180,170,185,170
73,165,92,-119,-9,129,4,200,190,175,185,170
73,170,97,-122,-12,134,4,200,190,175,185,170
68,170,102,-119,-17,136,4,200,190,175,185,170
63,165,102,-114,-19,134,4,195,185,170,185,170
68,165,97,-117,-14,131,-4,185,175,161,175,170
73,165,92,-119,-9,129,0,185,175,161,175,170
78,161,82,-119,-2,122,0,185,175,156,170,165
82,161,78,-122,2,119,0,185,175,156,170,165
73,156,82,-114,-4,119,9,170,165,156,170,156
73,156,82,-114,-4,119,14,170,165,151,165,151
68,151,82,-109,-7,117,14,170,161,151,161,146
63,146,82,-104,-9,114,14,165,156,146,161,136
53,141,87,-97,-17,114,14,165,156,141,161,141
53,136,82,-95,-14,109,14,156,146,136,156,131
48,122,73,-85,-12,97,19,156,141,131,146,122
43,117,73,-80,-14,95,24,151,136,126,146,122
48,117,68,-82,-9,92,24,136,126,117,126,102
39,102,63,-70,-12,82,24,131,126,112,122,97
34,97,63,-65,-14,80,24,126,117,107,117,87
34,92,58,-63,-12,75,24,117,107,97,102,82
39,87,48,-63,-4,68,24,107,107,87,97,78
29,78,48,-53,-9,63,29,102,102,82,92,78
29,68,39,-48,-4,53,29,97,92,73,87,68
29,58,29,-43,0,43,29,82,78,68,73,53
14,58,43,-36,-14,51,29,87,78,48,58,53
4,53,48,-29,-21,51,29,87,73,43,58,53
0,48,48,-24,-24,48,29,78,68,43,58,48
-4,39,43,-17,-24,41,29,78,68,34,53,43
4,34,29,-19,-12,31,24,73,63,34,39,39
4,29,24,-17,-9,26,24,63,48,24,34,29
0,24,24,-12,-12,24,24,58,48,24,34,29
-4,24,29,-9,-17,26,24,58,48,24,34,29
-19,19,39,0,-29,29,24,58,39,19,24,34
-19,14,34,2,-26,24,24,48,29,9,24,24
-19,9,29,4,-24,19,24,43,29,9,19,24
-24,9,34,7,-29,21,24,43,29,0,19,24
-14,4,19,4,-17,12,14,29,19,0,24,19
-14,4,19,4,-17,12,14,24,14,0,19,19
-14,4,19,4,-17,12,14,19,9,-4,14,14
-19,4,24,7,-21,14,14,19,9,-4,14,14
-34,-4,29,19,-31,12,14,29,19,4,14,14
-34,-4,29,19,-31,12,14,29,9,0,14,14
-34,-4,29,19,-31,12,14,29,9,0,14,14
-34,-4,29,19,-31,12,14,29,9,-4,9,9
-34,-4,29,19,-31,12,24,24,9,-14,9,9
-29,-4,24,17,-26,9,24,24,9,-14,9,9
-29,-4,24,17,-26,9,24,19,9,-14,9,9
-34,-9,24,21,-29,7,24,19,9,-14,9,4
-43,-9,34,26,-39,12,14,9,9,-14,9,4
-43,-9,34,26,-39,12,14,14,9,-14,4,4
-39,-9,29,24,-34,9,14,14,9,-14,4,4
-34,-9,24,21,-29,7,14,4,4,-24,4,0
-24,-9,14,17,-19,2,14,14,4,-24,0,-9
-24,-9,14,17,-19,2,14,14,0,-24,0,-9
-24,-9,14,17,-19,2,14,14,0,-24,0,-4
-24,-14,9,19,-17,-2,14,14,0,-24,4,-4
-29,-14,14,21,-21,0,14,14,4,-19,-4,4
-29,-9,19,19,-24,4,9,9,4,-19,-4,4
-29,-9,19,19,-24,4,9,9,0,-19,-9,0
-29,-9,19,19,-24,4,14,9,0,-19,-9,0
-43,-9,34,26,-39,12,14,14,9,-9,0,-4
-43,-9,34,26,-39,12,14,14,9,-9,0,-4
-43,-9,34,26,-39,12,14,14,9,-9,0,-4
-43,-9,34,26,-39,12,14,14,9,-9,0,-4
-34,-9,24,21,-29,7,14,14,0,-19,0,4
-29,-9,19,19,-24,4,9,9,-4,-19,0,0
-29,-9,19,19,-24,4,9,9,-4,-19,0,0
-29,-9,19,19,-24,4,14,14,0,-19,4,0
-43,-19,24,31,-34,2,14,24,0,-9,4,0
-43,-19,24,31,-34,2,14,24,0,-9,0,0
-43,-19,24,31,-34,2,9,14,0,-9,0,0
-43,-19,24,31,-34,2,9,14,0,-9,4,4
-29,-9,19,19,-24,4,4,4,-9,-19,4,4
-29,-9,19,19,-24,4,4,4,-14,-24,4,0
-24,-9,14,17,-19,2,4,4,-14,-24,4,0
-24,-9,14,17,-19,2,4,4,-14,-19,4,0
-39,0,39,19,-39,19,4,9,-9,-9,14,4
-39,0,39,19,-39,19,4,14,-4,-9,14,4
-48,0,48,24,-48,24,9,14,0,-9,14,4
-48,0,48,24,-48,24,9,9,4,-4,14,4
-43,-9,34,26,-39,12,4,9,-4,-4,4,-9
-34,-9,24,21,-29,7,4,9,-4,-4,4,-9
-43,-9,34,26,-39,12,4,9,-4,-4,4,-9
-48,-9,39,29,-43,14,4,9,-4,-4,4,-4
-39,0,39,19,-39,19,9,9,-4,-4,4,4
-39,0,39,19,-39,19,9,14,-4,-4,4,4
-34,0,34,17,-34,17,9,14,0,-4,4,4
-34,0,34,17,-34,17,9,14,0,-4,4,4
-39,0,39,19,-39,19,0,4,-9,4,4,-4
-39,0,39,19,-39,19,0,4,-9,4,4,-4
-34,0,34,17,-34,17,0,4,-9,4,4,-4
-34,0,34,17,-34,17,0,4,-9,4,4,-4
-34,0,34,17,-34,17,0,4,-9,-4,4,-4
-34,0,34,17,-34,17,0,4,-9,-4,4,-4
-34,0,34,17,-34,17,0,4,-9,-4,4,-4
-34,0,34,17,-34,17,0,4,-9,-4,9,-4
-43,0,43,21,-43,21,9,14,0,4,9,4
-43,0,43,21,-43,21,4,14,0,4,9,4
-43,0,43,21,-43,21,4,14,0,4,9,4
-48,0,48,24,-48,24,9,14,0,9,9,4
-39,0,39,19,-39,19,0,14,0,0,0,4
-24,0,24,12,-24,12,0,14,0,0,0,0
-34,0,34,17,-34,17,0,14,0,0,0,0
-39,0,39,19,-39,19,0,14,0,0,0,0
-39,0,39,19,-39,19,0,24,0,0,9,-9
-34,0,34,17,-34,17,0,24,0,0,9,-4
-34,0,34,17,-34,17,0,24,0,0,9,-4
-34,0,34,17,-34,17,0,24,0,0,9,-4
-34,9,43,12,-39,26,0,24,0,0,9,-4
-34,9,43,12,-39,26,0,24,0,0,9,-4
-34,9,43,12,-39,26,0,24,0,0,9,-4
-29,9,39,9,-34,24,0,24,0,0,9,-4
-29,0,29,14,-29,14,0,14,0,0,0,-4
-34,0,34,17,-34,17,0,14,0,0,0,-4
-34,0,34,17,-34,17,0,14,0,0,0,-4
-29,0,29,14,-29,14,0,14,0,0,0,-4
-29,0,29,14,-29,14,0,14,0,-9,0,-4
-29,0,29,14,-29,14,0,14,0,-9,0,-4
-29,0,29,14,-29,14,0,14,0,-9,0,-4
-29,0,29,14,-29,14,0,19,0,-9,0,-4
-34,0,34,17,-34,17,9,29,0,0,9,-4
-34,0,34,17,-34,17,9,29,0,0,9,-4
-43,0,43,21,-43,21,9,29,4,0,9,-4
-43,0,43,21,-43,21,9,29,4,0,9,-4
-43,0,43,21,-43,21,19,19,4,-4,0,-4
-39,0,39,19,-39,19,19,19,4,-4,0,-4
-39,0,39,19,-39,19,19,19,4,-4,0,-4
-39,0,39,19,-39,19,19,19,4,-4,0,-4
-29,-4,24,17,-26,9,9,9,-4,-14,0,-4
-29,-4,24,17,-26,9,9,9,-4,-14,0,-4
-29,-4,24,17,-26,9,9,9,-4,-14,0,-4
-29,-4,24,17,-26,9,9,9,-4,-14,0,-4
-39,4,43,17,-41,24,9,19,-4,-9,0,-4
-39,4,43,17,-41,24,9,14,-4,-9,-4,-4
-39,0,39,19,-39,19,9,14,-4,-9,-4,-4
-39,0,39,19,-39,19,9,19,-4,-9,-4,-4
-24,0,24,12,-24,12,9,9,-9,-24,-4,-4
-24,0,24,12,-24,12,9,9,-9,-24,-9,-4
-24,0,24,12,-24,12,9,9,-4,-19,-9,-4
-24,4,29,9,-26,17,9,9,-4,-19,-9,-4
-34,4,39,14,-36,21,9,19,-9,-24,-9,-9
-39,0,39,19,-39,19,9,19,-9,-24,-4,-9
-39,0,39,19,-39,19,9,19,-9,-24,-4,-9
-39,0,39,19,-39,19,9,19,-9,-24,-4,-14
-48,0,48,24,-48,24,19,19,-14,-14,-9,-14
-48,0,48,24,-48,24,19,19,-14,-14,-9,-9
-48,-4,43,26,-46,19,19,19,-14,-14,-9,-4
-48,-4,43,26,-46,19,19,14,-14,-14,-9,0
-39,-4,34,21,-36,14,4,14,-14,-24,-19,-4
-39,-4,34,21,-36,14,4,9,-14,-24,-19,-9
-39,-4,34,21,-36,14,9,9,-14,-24,-19,-14
-39,-4,34,21,-36,14,9,9,-14,-24,-19,-19
-29,-4,24,17,-26,9,9,9,-14,-24,-19,-19
-29,-4,24,17,-26,9,9,9,-14,-24,-24,-19
-34,-4,29,19,-31,12,9,9,-19,-24,-24,-19
-34,-4,29,19,-31,12,9,9,-19,-29,-24,-24
-39,-14,24,26,-31,4,-4,0,-19,-29,-14,-24
-39,-14,24,26,-31,4,-4,0,-19,-34,-14,-24
-39,-14,24,26,-31,4,0,0,-19,-34,-19,-24
-39,-14,24,26,-31,4,0,0,-19,-29,-19,-24
-29,-14,14,21,-21,0,0,-4,-29,-39,-24,-24
-29,-14,14,21,-21,0,0,-4,-29,-39,-24,-24
-29,-19,9,24,-19,-4,0,-4,-29,-39,-24,-24
-29,-19,9,24,-19,-4,-4,-4,-34,-39,-24,-24
-39,-9,29,24,-34,9,4,4,-24,-29,-24,-24
-43,-9,34,26,-39,12,4,4,-19,-29,-24,-29
-43,-9,34,26,-39,12,4,4,-19,-29,-24,-29
-43,-9,34,26,-39,12,4,4,-19,-29,-24,-24
-43,-9,34,26,-39,12,-4,4,-19,-24,-14,-24
-43,-9,34,26,-39,12,0,4,-24,-24,-14,-24
-48,-9,39,29,-43,14,0,0,-24,-29,-14,-24
-48,-9,39,29,-43,14,0,0,-24,-29,-14,-29
-48,-14,34,31,-41,9,0,-9,-34,-29,-24,-19
-48,-14,34,31,-41,9,0,-9,-34,-29,-24,-19
-43,-9,34,26,-39,12,0,-9,-39,-29,-24,-24
-43,-9,34,26,-39,12,0,-9,-39,-34,-29,-24
-43,-9,34,26,-39,12,4,-9,-34,-34,-39,-29
-48,-14,34,31,-41,9,4,-9,-34,-34,-34,-29
-48,-14,34,31,-41,9,4,-9,-34,-34,-34,-29
-53,-14,39,34,-46,12,4,-9,-34,-34,-34,-29
-43,-4,39,24,-41,17,-4,-9,-34,-43,-34,-39
-43,-9,34,26,-39,12,-4,-9,-34,-39,-34,-39
-43,-9,34,26,-39,12,-4,-14,-34,-39,-34,-34
-43,-9,34,26,-39,12,-9,-14,-34,-39,-34,-34
-53,-9,43,31,-48,17,0,-4,-34,-39,-29,-24
-48,-9,39,29,-43,14,0,-4,-34,-43,-34,-24
-48,-4,43,26,-46,19,0,-4,-43,-43,-34,-24
-48,-4,43,26,-46,19,0,-4,-43,-43,-34,-24
-43,-14,29,29,-36,7,4,-14,-29,-43,-34,-29
-43,-14,29,29,-36,7,4,-14,-29,-43,-34,-34
-39,-14,24,26,-31,4,0,-14,-29,-43,-34,-34
-34,-14,19,24,-26,2,0,-14,-29,-43,-34,-34
-34,-14,19,24,-26,2,0,-14,-39,-43,-34,-34
-34,-19,14,26,-24,-2,0,-14,-39,-43,-34,-29
-43,-19,24,31,-34,2,0,-14,-39,-43,-34,-29
-43,-14,29,29,-36,7,0,-14,-39,-43,-34,-29
-48,-14,34,31,-41,9,-9,-14,-39,-43,-43,-29
-48,-14,34,31,-41,9,-9,-14,-39,-43,-43,-34
-48,-14,34,31,-41,9,-9,-19,-39,-43,-43,-34
-48,-14,34,31,-41,9,-9,-19,-39,-43,-43,-34
-43,-4,39,24,-41,17,0,-19,-39,-53,-43,-39
-39,-4,34,21,-36,14,0,-14,-43,-48,-43,-39
-34,-4,29,19,-31,12,-4,-14,-43,-48,-43,-39
-29,-9,19,19,-24,4,-4,-14,-43,-48,-43,-39
-34,-9,24,21,-29,7,-9,-14,-43,-39,-34,-29
-39,-9,29,24,-34,9,-9,-14,-43,-39,-34,-29
-43,-9,34,26,-39,12,-9,-19,-43,-43,-34,-34
-48,-9,39,29,-43,14,-14,-19,-43,-43,-39,-39
-43,-9,34,26,-39,12,-4,-9,-53,-43,-39,-39
-43,-9,34,26,-39,12,-4,-9,-53,-43,-39,-39
-48,-9,39,29,-43,14,-4,-9,-53,-43,-39,-34
-48,-4,43,26,-46,19,0,-9,-53,-43,-39,-34
-43,-4,39,24,-41,17,-9,-14,-39,-43,-43,-43
-43,-4,39,24,-41,17,-9,-14,-39,-43,-43,-43
-43,-9,34,26,-39,12,-9,-14,-43,-43,-48,-48
-39,-9,29,24,-34,9,-14,-19,-43,-43,-48,-48
-39,-9,29,24,-34,9,-4,-9,-43,-43,-39,-39
-58,0,58,29,-58,29,0,-4,-43,-39,-34,-39
-58,-9,48,34,-53,19,0,-14,-43,-39,-43,-34
-39,-9,29,24,-34,9,0,-19,-48,-43,-43,-43
-29,-9,19,19,-24,4,0,-19,-48,-48,-39,-39
-39,-9,29,24,-34,9,0,-19,-48,-48,-48,-48
-39,-9,29,24,-34,9,0,-19,-48,-48,-48,-48
-39,-9,29,24,-34,9,0,-19,-48,-48,-48,-48
-39,-9,29,24,-34,9,0,-19,-48,-48,-48,-48
-29,-9,19,19,-24,4,-9,-19,-58,-58,-48,-48
-29,-9,19,19,-24,4,-9,-19,-58,-58,-48,-48
-29,-9,19,19,-24,4,-9,-19,-58,-58,-48,-48
-29,-9,19,19,-24,4,-9,-19,-58,-58,-48,-48
-34,-9,24,21,-29,7,0,-19,-48,-48,-48,-48
-39,-9,29,24,-34,9,0,-19,-48,-48,-48,-48
-43,-9,34,26,-39,12,0,-19,-48,-48,-48,-48
-48,-9,39,29,-43,14,0,-19,-48,-48,-48,-48
-39,-9,29,24,-34,9,-9,-19,-58,-48,-48,-48
-39,-9,29,24,-34,9,-9,-19,-58,-48,-48,-48
-39,-9,29,24,-34,9,-9,-19,-58,-48,-48,-48
-39,-9,29,24,-34,9,-9,-19,-58,-48,-48,-48
-39,-9,29,24,-34,9,-9,-19,-58,-48,-48,-48
-39,-9,29,24,-34,9,-9,-19,-58,-48,-48,-48
-39,-9,29,24,-34,9,-9,-19,-58,-48,-48,-48
-39,-9,29,24,-34,9,-9,-19,-58,-48,-48,-48
-48,-9,39,29,-43,14,-9,-19,-48,-48,-39,-39
-48,-9,39,29,-43,14,-9,-19,-48,-48,-39,-39
-48,-9,39,29,-43,14,-9,-19,-48,-48,-39,-39
-48,-9,39,29,-43,14,-9,-19,-48,-48,-39,-39
-48,-19,29,34,-39,4,-9,-19,-58,-58,-43,-48
-48,-19,29,34,-39,4,-9,-19,-58,-58,-48,-48
-48,-19,29,34,-39,4,-9,-19,-58,-58,-53,-48
-48,-19,29,34,-39,4,-9,-19,-58,-58,-58,-48
-48,-19,29,34,-39,4,-9,-19,-48,-48,-48,-39
-48,-19,29,34,-39,4,-9,-19,-48,-48,-48,-39
-48,-19,29,34,-39,4,-9,-19,-48,-48,-48,-39
-48,-19,29,34,-39,4,-9,-19,-48,-48,-48,-39
-48,-9,39,29,-43,14,-9,-19,-48,-48,-48,-48
-48,-9,39,29,-43,14,-9,-19,-48,-48,-48,-48
-48,-9,39,29,-43,14,-9,-19,-48,-48,-48,-48
-48,-9,39,29,-43,14,-9,-19,-48,-48,-48,-48
-48,-19,29,34,-39,4,-9,-19,-58,-48,-48,-48
-48,-19,29,34,-39,4,-9,-19,-58,-48,-48,-48
-48,-19,29,34,-39,4,-9,-19,-58,-48,-48,-48
-48,-19,29,34,-39,4,-9,-19,-58,-48,-48,-48
-39,-9,29,24,-34,9,-9,-19,-58,-58,-58,-48
-39,-9,29,24,-34,9,-9,-19,-58,-58,-58,-48
-39,-9,29,24,-34,9,-9,-19,-58,-58,-58,-48
-39,-9,29,24,-34,9,-9,-19,-58,-58,-58,-48
-48,-9,39,29,-43,14,-9,-19,-58,-58,-48,-48
-48,-9,39,29,-43,14,-9,-19,-58,-58,-48,-48
-48,-9,39,29,-43,14,-9,-19,-58,-58,-48,-48
-48,-9,39,29,-43,14,-9,-19,-58,-58,-48,-48
-39,-19,19,29,-29,0,-9,-29,-58,-58,-48,-48
-39,-19,19,29,-29,0,-9,-29,-58,-58,-48,-48
-39,-19,19,29,-29,0,-9,-29,-58,-58,-48,-48
-39,-19,19,29,-29,0,-9,-29,-58,-58,-48,-48
-48,-19,29,34,-39,4,-9,-19,-58,-58,-48,-58
-48,-19,29,34,-39,4,-9,-19,-58,-58,-48,-58
-48,-19,29,34,-39,4,-9,-19,-58,-58,-48,-58
-48,-19,29,34,-39,4,-9,-19,-58,-58,-48,-58
-48,-19,29,34,-39,4,-9,-19,-48,-58,-48,-48
-48,-19,29,34,-39,4,-9,-19,-48,-58,-48,-48
-48,-19,29,34,-39,4,-9,-19,-48,-58,-48,-48
-48,-19,29,34,-39,4,-9,-19,-48,-58,-48,-48
-39,-9,29,24,-34,9,-9,-19,-48,-48,-48,-48
-39,-9,29,24,-34,9,-9,-19,-48,-48,-48,-48
-39,-9,29,24,-34,9,-9,-19,-48,-48,-48,-48
-39,-9,29,24,-34,9,-9,-19,-48,-48,-48,-48
-39,0,39,19,-39,19,-9,-19,-48,-39,-39,-48
-39,0,39,19,-39,19,-9,-19,-48,-39,-39,-48
-39,0,39,19,-39,19,-9,-19,-48,-39,-39,-48
-39,0,39,19,-39,19,-9,-19,-48,-39,-39,-48
-29,9,39,9,-34,24,-4,-14,-39,-39,-29,-39
-29,9,39,9,-34,24,0,-9,-39,-39,-29,-39
-29,9,39,9,-34,24,4,-4,-39,-39,-29,-39
-29,9,39,9,-34,24,9,0,-39,-39,-29,-39
-39,14,53,12,-46,34,14,9,-29,-34,-29,-29
-39,19,58,9,-48,39,19,9,-29,-29,-29,-29
-39,24,63,7,-51,43,24,9,-29,-24,-29,-29
-39,29,68,4,-53,48,29,9,-29,-19,-29,-29
-29,39,68,-4,-48,53,29,9,-19,-29,-29,-29
-19,39,58,-9,-39,48,29,9,-19,-29,-29,-29
-9,39,48,-14,-29,43,29,9,-19,-29,-29,-29
0,39,39,-19,-19,39,29,9,-19,-29,-29,-29
-9,48,58,-19,-34,53,29,19,-9,-24,-24,-24
-9,48,58,-19,-34,53,29,19,-9,-19,-19,-19
-9,48,58,-19,-34,53,29,19,-9,-14,-14,-14
-9,48,58,-19,-34,53,29,19,-9,-9,-9,-9
0,58,58,-29,-29,58,24,19,-9,-19,0,0
0,58,58,-29,-29,58,19,19,-9,-19,0,0
0,58,58,-29,-29,58,14,19,-9,-19,0,0
0,58,58,-29,-29,58,9,19,-9,-19,0,0
9,58,48,-34,-19,53,4,19,0,-14,0,9
9,58,48,-34,-19,53,0,19,0,-9,0,9
9,58,48,-34,-19,53,-4,19,0,-4,0,9
9,58,48,-34,-19,53,-9,19,0,0,0,9
14,68,53,-41,-19,61,-14,9,-9,-9,0,0
19,68,48,-43,-14,58,-19,9,-9,-9,0,0
24,68,43,-46,-9,56,-24,9,-9,-9,0,0
29,68,39,-48,-4,53,-29,9,-9,-9,0,0
24,58,34,-41,-4,46,-39,19,-9,-9,0,0
19,58,39,-39,-9,48,-39,19,-9,-9,0,0
14,58,43,-36,-14,51,-39,19,-9,-9,0,0
9,58,48,-34,-19,53,-43,14,-14,-9,0,0
19,53,34,-36,-7,43,-43,4,-24,-14,4,0
19,48,29,-34,-4,39,-43,4,-24,-14,4,0
14,48,34,-31,-9,41,-43,4,-24,-14,4,0
14,43,29,-29,-7,36,-43,0,-29,-14,4,0
24,48,24,-36,0,36,-43,-9,-29,-24,-19,-4
14,39,24,-26,-4,31,-43,-14,-34,-29,-19,-14
9,29,19,-19,-4,24,-39,-14,-39,-34,-19,-19
9,19,9,-14,0,14,-39,-14,-39,-39,-24,-19
0,9,9,-4,-4,9,-39,-14,-48,-53,-29,-29
-4,4,9,0,-7,7,-39,-14,-48,-53,-34,-34
-9,0,9,4,-9,4,-39,-14,-48,-53,-34,-39
-14,-9,4,12,-9,-2,-39,-14,-48,-53,-34,-39
-24,-14,9,19,-17,-2,-29,-14,-53,-43,-43,-39
-24,-19,4,21,-14,-7,-29,-19,-53,-53,-43,-43
-29,-29,0,29,-14,-14,-29,-19,-63,-53,-43,-48
-53,-39,14,46,-34,-12,-24,-29,-63,-58,-53,-48
-53,-43,9,48,-31,-17,-34,-34,-68,-63,-58,-58
-63,-48,14,56,-39,-17,-29,-39,-73,-68,-63,-63
-63,-53,9,58,-36,-21,-29,-43,-73,-73,-68,-63
-63,-58,4,61,-34,-26,-34,-43,-73,-73,-73,-68
-53,-58,-4,56,-24,-31,-34,-53,-82,-82,-82,-73
-48,-58,-9,53,-19,-34,-34,-53,-82,-82,-82,-73
-48,-58,-9,53,-19,-34,-34,-53,-82,-87,-82,-73
-48,-58,-9,53,-19,-34,-34,-58,-87,-87,-82,-73
-58,-58,0,58,-29,-29,-34,-48,-87,-78,-78,-68
-58,-58,0,58,-29,-29,-34,-43,-82,-78,-78,-68
-68,-63,4,65,-36,-29,-29,-43,-82,-78,-78,-68
-68,-63,4,65,-36,-29,-29,-43,-82,-78,-78,-68
-53,-63,-9,58,-21,-36,-34,-53,-82,-78,-82,-78
-53,-63,-9,58,-21,-36,-34,-58,-92,-78,-82,-78
-48,-63,-14,56,-17,-39,-34,-58,-92,-78,-82,-82
-48,-63,-14,56,-17,-39,-34,-58,-87,-78,-82,-82
-58,-58,0,58,-29,-29,-43,-48,-87,-87,-82,-73
-58,-58,0,58,-29,-29,-43,-48,-87,-87,-82,-73
-58,-58,0,58,-29,-29,-43,-48,-87,-87,-82,-73
-58,-58,0,58,-29,-29,-43,-48,-87,-87,-87,-73
-73,-58,14,65,-43,-21,-34,-48,-78,-78,-78,-73
-73,-58,14,65,-43,-21,-29,-43,-78,-78,-73,-73
-73,-58,14,65,-43,-21,-29,-43,-78,-78,-73,-73
-73,-58,14,65,-43,-21,-34,-48,-78,-78,-73,-73
-78,-58,19,68,-48,-19,-24,-48,-87,-78,-73,-73
-78,-58,19,68,-48,-19,-24,-48,-78,-78,-73,-73
-78,-58,19,68,-48,-19,-24,-48,-78,-78,-73,-73
-78,-58,19,68,-48,-19,-24,-48,-78,-78,-73,-73
-63,-58,4,61,-34,-26,-34,-58,-87,-87,-82,-82
-58,-58,0,58,-29,-29,-34,-58,-87,-92,-82,-82
-53,-53,0,53,-26,-26,-34,-58,-92,-92,-87,-78
-43,-53,-9,48,-17,-31,-34,-58,-92,-92,-87,-78
-53,-43,9,48,-31,-17,-34,-58,-87,-82,-87,-78
-53,-43,9,48,-31,-17,-34,-58,-87,-82,-87,-78
-48,-43,4,46,-26,-19,-34,-58,-87,-82,-87,-78
-48,-43,4,46,-26,-19,-34,-58,-87,-82,-82,-78
-63,-53,9,58,-36,-21,-24,-48,-78,-78,-73,-68
-68,-53,14,61,-41,-19,-24,-48,-78,-78,-73,-68
-68,-53,14,61,-41,-19,-24,-48,-78,-78,-73,-68
-63,-53,9,58,-36,-21,-24,-48,-78,-82,-73,-68
-63,-53,9,58,-36,-21,-24,-48,-87,-82,-73,-68
-68,-53,14,61,-41,-19,-24,-48,-87,-78,-73,-68
-73,-53,19,63,-46,-17,-24,-48,-87,-78,-73,-68
-73,-53,19,63,-46,-17,-24,-48,-87,-78,-73,-68
-73,-53,19,63,-46,-17,-24,-48,-82,-78,-73,-68
-73,-53,19,63,-46,-17,-24,-48,-82,-78,-73,-68
-73,-53,19,63,-46,-17,-24,-48,-78,-78,-73,-68
-73,-53,19,63,-46,-17,-24,-48,-78,-78,-73,-68
-63,-43,19,53,-41,-12,-24,-48,-78,-78,-73,-68
-58,-43,14,51,-36,-14,-24,-48,-78,-78,-73,-68
-58,-43,14,51,-36,-14,-24,-48,-78,-78,-73,-68
-58,-39,19,48,-39,-9,-24,-48,-78,-78,-73,-68
-68,-39,29,53,-48,-4,-19,-43,-68,-78,-73,-68
-73,-39,34,56,-53,-2,-19,-43,-68,-73,-73,-68
-73,-39,34,56,-53,-2,-19,-48,-63,-68,-73,-68
-68,-39,29,53,-48,-4,-19,-48,-63,-68,-73,-63
-78,-39,39,58,-58,0,-19,-34,-63,-68,-73,-63
-68,-48,19,58,-43,-14,-14,-34,-58,-68,-73,-63
-63,-53,9,58,-36,-21,0,-19,-48,-63,-63,-63
-63,-58,4,61,-34,-26,9,-9,-43,-63,-68,-73
-58,-58,0,58,-29,-29,14,4,-39,-73,-78,-87
-68,-48,19,58,-43,-14,29,19,-14,-58,-68,-87
-68,-48,19,58,-43,-14,39,48,0,-39,-58,-73
-48,-53,-4,51,-21,-29,34,78,29,-9,-39,-78
-19,-53,-34,36,7,-43,43,107,73,19,-14,-58
-19,-24,-4,21,-7,-14,53,161,122,82,39,-14
-19,19,39,0,-29,29,43,219,190,141,102,48
4,78,73,-41,-34,75,43,302,278,219,180,102
34,126,92,-80,-29,109,34,356,351,287,244,156
68,180,112,-124,-21,146,-14,356,370,346,307,214
78,234,156,-156,-39,195,-78,322,370,405,380,283
122,287,165,-204,-21,226,-136,278,370,458,448,361
131,341,209,-236,-39,275,-175,248,366,517,517,429
122,380,258,-251,-68,319,-253,180,341,546,570,488
165,429,263,-297,-48,346,-370,63,287,546,595,517
185,468,283,-326,-48,375,-458,-68,209,522,595,527
161,478,317,-319,-78,397,-497,-170,131,473,561,527
131,473,341,-302,-104,407,-546,-297,4,375,497,492
112,478,366,-295,-126,422,-619,-429,-141,278,400,444
117,488,370,-302,-126,429,-688,-556,-278,185,317,400
107,473,366,-290,-129,419,-732,-658,-395,92,239,356
68,434,366,-251,-148,400,-771,-780,-531,-19,122,273
29,356,326,-192,-148,341,-795,-897,-653,-141,0,165
9,302,292,-156,-141,297,-829,-976,-751,-253,-102,87
-14,283,297,-134,-156,290,-829,-1044,-824,-312,-151,53
-63,268,331,-102,-197,300,-790,-1078,-883,-351,-190,29
-117,234,351,-58,-234,292,-722,-1063,-893,-366,-214,4
-170,180,351,-4,-261,265,-658,-976,-839,-356,-214,-14
-200,136,336,31,-268,236,-575,-863,-771,-341,-219,-39
-190,102,292,43,-241,197,-502,-756,-697,-326,-229,-68
-161,78,239,41,-200,158,-444,-653,-605,-317,-234,-87
-165,58,224,53,-195,141,-380,-541,-492,-292,-224,-97
-146,48,195,48,-170,122,-326,-453,-419,-263,-209,-97
-107,34,141,36,-124,87,-283,-375,-346,-239,-190,-97
-73,34,107,19,-90,70,-244,-302,-287,-190,-151,-82
-73,34,107,19,-90,70,-200,-234,-234,-141,-112,-63
-73,24,97,24,-85,61,-151,-175,-190,-107,-87,-48
-82,9,92,36,-87,51,-102,-131,-161,-87,-82,-43
-73,19,92,26,-82,56,-73,-107,-146,-87,-82,-43
-63,14,78,24,-70,46,-58,-87,-122,-92,-87,-43
-68,14,82,26,-75,48,-48,-82,-97,-82,-78,-43
-78,14,92,31,-85,53,-48,-73,-73,-68,-63,-39
-87,14,102,36,-95,58,-48,-58,-68,-53,-63,-39
-68,19,87,24,-78,53,-39,-58,-68,-58,-58,-39
-48,4,53,21,-51,29,-39,-39,-68,-58,-48,-43
-43,-4,39,24,-41,17,-29,-39,-68,-58,-48,-48
-43,-9,34,26,-39,12,-19,-24,-63,-58,-58,-48
-48,-9,39,29,-43,14,-14,-24,-63,-58,-58,-48
-63,-9,53,36,-58,21,-4,-19,-39,-58,-58,-48
-63,-14,48,39,-56,17,-9,-19,-34,-58,-58,-48
-58,-14,43,36,-51,14,-9,-19,-34,-58,-58,-48
-58,-14,43,36,-51,14,-9,-19,-34,-58,-58,-48
-58,-14,43,36,-51,14,-14,-14,-39,-53,-53,-48
-58,-14,43,36,-51,14,-14,-9,-43,-53,-53,-48
-58,-14,43,36,-51,14,-9,-9,-48,-53,-53,-53
-53,-14,39,34,-46,12,-9,-9,-53,-53,-53,-53
-48,-19,29,34,-39,4,-9,-14,-48,-53,-53,-48
-43,-19,24,31,-34,2,-9,-14,-43,-48,-53,-48
-39,-19,19,29,-29,0,-9,-9,-43,-48,-53,-48
-34,-19,14,26,-24,-2,-9,-9,-43,-48,-53,-48
-39,-9,29,24,-34,9,0,0,-34,-48,-48,-48
-43,-9,34,26,-39,12,0,0,-34,-48,-48,-48
-48,-4,43,26,-46,19,4,0,-34,-48,-48,-48
-53,-4,48,29,-51,21,4,4,-34,-48,-48,-43
-48,-14,34,31,-41,9,4,4,-34,-48,-53,-43
-48,-14,34,31,-41,9,4,4,-34,-43,-53,-43
-48,-14,34,31,-41,9,4,4,-29,-43,-53,-43
-48,-14,34,31,-41,9,4,4,-29,-43,-48,-43
-39,-24,14,31,-26,-4,4,4,-29,-53,-48,-48
-39,-29,9,34,-24,-9,4,9,-29,-53,-48,-48
-39,-29,9,34,-24,-9,4,9,-24,-53,-48,-43
-39,-29,9,34,-24,-9,4,9,-24,-53,-48,-43
-43,-19,24,31,-34,2,4,14,-14,-43,-48,-34
-39,-19,19,29,-29,0,4,14,-14,-39,-48,-34
-39,-19,19,29,-29,0,4,14,-14,-39,-43,-34
-43,-19,24,31,-34,2,4,14,-14,-39,-39,-34
-34,-14,19,24,-26,2,0,14,-19,-24,-34,-29
-34,-14,19,24,-26,2,0,14,-19,-24,-34,-29
-34,-19,14,26,-24,-2,0,14,-19,-29,-39,-34
-34,-19,14,26,-24,-2,0,14,-19,-29,-39,-34
-43,-19,24,31,-34,2,9,14,-19,-34,-39,-43
-39,-14,24,26,-31,4,9,14,-19,-34,-39,-43
-39,-14,24,26,-31,4,4,14,-19,-34,-43,-43
-34,-14,19,24,-26,2,4,14,-19,-39,-43,-43
-43,-14,29,29,-36,7,4,24,-9,-39,-39,-34
-53,-14,39,34,-46,12,4,29,-4,-34,-39,-34
-53,-14,39,34,-46,12,4,29,-4,-34,-39,-29
-53,-14,39,34,-46,12,4,29,-4,-34,-39,-29
-39,-14,24,26,-31,4,4,19,-14,-34,-39,-34
-39,-14,24,26,-31,4,4,24,-14,-34,-39,-34
-39,-14,24,26,-31,4,4,24,-14,-34,-39,-34
-39,-14,24,26,-31,4,4,24,-14,-34,-39,-39
-34,-14,19,24,-26,2,-4,24,-19,-34,-39,-39
-29,-9,19,19,-24,4,0,24,-19,-34,-34,-34
-24,-9,14,17,-19,2,0,29,-19,-34,-34,-34
-19,-9,9,14,-14,0,0,29,-19,-34,-34,-34
-29,-9,19,19,-24,4,0,29,-9,-34,-34,-34
-29,-9,19,19,-24,4,0,29,-9,-34,-34,-34
-24,-9,14,17,-19,2,0,29,-9,-34,-34,-34
-24,-4,19,14,-21,7,0,29,-9,-34,-34,-34
-24,0,24,12,-24,12,0,39,0,-29,-39,-34
-24,0,24,12,-24,12,0,39,0,-29,-39,-34
-24,-4,19,14,-21,7,0,39,0,-29,-39,-34
-24,-4,19,14,-21,7,0,43,0,-24,-34,-29
-24,0,24,12,-24,12,0,39,0,-24,-24,-24
-24,0,24,12,-24,12,0,39,0,-24,-24,-24
-24,0,24,12,-24,12,0,39,4,-24,-24,-24
-24,4,29,9,-26,17,0,43,9,-19,-19,-24
-29,4,34,12,-31,19,0,43,9,-19,-19,-19
-29,4,34,12,-31,19,0,43,9,-19,-19,-19
-29,9,39,9,-34,24,0,48,14,-19,-19,-19
-34,9,43,12,-39,26,0,48,19,-14,-9,-14
-24,9,34,7,-29,21,0,53,19,-19,-19,-24
-19,9,29,4,-24,19,0,53,19,-19,-19,-24
-4,14,19,-4,-12,17,0,53,19,-19,-19,-19
-4,14,19,-4,-12,17,0,58,24,-19,-14,-19
-24,4,29,9,-26,17,0,63,24,-19,-4,-9
-24,4,29,9,-26,17,0,63,24,-19,-4,-9
-19,9,29,4,-24,19,0,63,29,-14,-4,-9
-14,9,24,2,-19,17,0,68,29,-9,-4,-4
-14,14,29,0,-21,21,0,63,34,0,0,-4
-14,14,29,0,-21,21,0,63,34,0,4,-4
-9,19,29,-4,-19,24,0,63,39,0,4,0
-4,19,24,-7,-14,21,0,73,39,4,4,0
4,34,29,-19,-12,31,0,87,34,4,9,0
0,34,34,-17,-17,34,0,87,43,14,9,0
0,39,39,-19,-19,39,0,87,43,14,14,4
4,43,39,-24,-17,41,0,92,48,14,14,9
-4,43,48,-19,-26,46,0,87,58,24,19,14
0,43,43,-21,-21,43,-4,87,58,24,19,14
4,48,43,-26,-19,46,-4,87,63,24,29,19
4,48,43,-26,-19,46,-4,92,68,24,29,19
14,48,34,-31,-9,41,-14,97,68,29,29,24
14,53,39,-34,-12,46,-14,97,78,34,39,29
14,58,43,-36,-14,51,-14,107,82,34,43,34
14,58,43,-36,-14,51,-14,112,87,43,48,39
24,73,48,-48,-12,61,-9,126,92,48,39,29
29,78,48,-53,-9,63,-14,126,97,48,39,34
29,82,53,-56,-12,68,-14,126,97,53,48,39
29,87,58,-58,-14,73,-14,131,102,58,53,43
24,82,58,-53,-17,70,-24,126,112,63,68,58
29,87,58,-58,-14,73,-24,131,112,68,73,63
29,92,63,-61,-17,78,-24,136,122,68,78,63
34,92,58,-63,-12,75,-24,141,122,68,78,63
48,107,58,-78,-4,82,-24,141,117,78,73,73
53,112,58,-82,-2,85,-29,141,122,82,78,78
58,117,58,-87,0,87,-34,141,126,82,82,82
58,122,63,-90,-2,92,-34,151,131,87,87,87
58,117,58,-87,0,87,-29,161,131,97,102,102
68,122,53,-95,7,87,-34,161,131,97,102,107
63,126,63,-95,0,95,-29,165,136,97,107,112
43,131,87,-87,-21,109,-14,170,141,107,112,117
53,136,82,-95,-14,109,-19,161,141,117,117,112
63,141,78,-102,-7,109,-24,161,141,117,117,112
68,141,73,-104,-2,107,-34,161,146,117,117,112
68,146,78,-107,-4,112,-39,165,151,122,122,122
78,151,73,-114,2,112,-34,165,151,122,131,122
87,156,68,-122,9,112,-34,161,146,122,131,122
87,161,73,-124,7,117,-34,161,146,122,131,126
87,161,73,-124,7,117,-34,161,146,126,136,126
78,170,92,-124,-7,131,-34,161,146,131,136,126
82,170,87,-126,-2,129,-34,161,151,131,141,126
82,175,92,-129,-4,134,-34,161,151,131,141,131
78,175,97,-126,-9,136,-34,161,151,131,146,141
87,165,78,-126,4,122,-34,170,151,136,146,141
92,170,78,-131,7,124,-34,170,151,136,146,141
92,170,78,-131,7,124,-34,170,151,136,146,141
92,165,73,-129,9,119,-34,165,146,131,146,141
82,175,92,-129,-4,134,-34,165,156,141,146,141
82,175,92,-129,-4,134,-29,165,156,141,146,141
82,170,87,-126,-2,129,-29,165,156,136,141,136
82,170,87,-126,-2,129,-29,165,156,136,141,136
63,156,92,-109,-14,124,-19,161,146,136,141,136
63,156,92,-109,-14,124,-14,161,146,131,136,131
58,151,92,-104,-17,122,-14,161,141,131,131,126
53,146,92,-100,-19,119,-14,156,136,126,131,117
63,141,78,-102,-7,109,-14,156,146,112,122,122
63,136,73,-100,-4,104,-14,146,136,107,117,112
58,122,63,-90,-2,92,-9,146,131,102,107,102
53,117,63,-85,-4,90,-4,141,126,97,107,102
58,107,48,-82,4,78,4,136,107,87,87,82
48,92,43,-70,2,68,4,131,107,82,82,78
43,87,43,-65,0,65,4,126,97,78,78,68
43,82,39,-63,2,61,4,117,87,68,63,63
39,87,48,-63,-4,68,4,107,87,68,68,58
29,78,48,-53,-9,63,9,102,82,63,63,58
29,68,39,-48,-4,53,9,97,73,53,58,48
29,58,29,-43,0,43,9,82,58,48,43,34
14,58,43,-36,-14,51,9,87,58,48,39,34
4,53,48,-29,-21,51,9,87,53,43,39,34
0,48,48,-24,-24,48,9,78,48,43,39,29
-4,39,43,-17,-24,41,9,78,48,34,34,24
4,34,29,-19,-12,31,-4,63,43,24,9,19
4,29,24,-17,-9,26,-4,53,29,14,4,9
0,24,24,-12,-12,24,-4,48,29,14,4,9
-4,24,29,-9,-17,26,-4,48,29,14,4,9
