I,II,III,aVR,aVL,aVF,V1,V2,V3,V4,V5,V6
39,48,9,-43,14,29,39,9,-9,-19,-9,0
39,48,9,-43,14,29,39,9,-9,-19,-9,0
39,48,9,-43,14,29,39,9,-9,-19,-9,0
39,48,9,-43,14,29,39,9,-9,-19,-9,0
48,48,0,-48,24,24,39,0,-19,-24,-14,-14
48,48,0,-48,24,24,39,0,-19,-29,-19,-19
48,48,0,-48,24,24,39,0,-19,-34,-24,-24
48,48,0,-48,24,24,39,0,-19,-39,-29,-29
53,48,-4,-51,29,21,29,-9,-29,-39,-19,-29
58,48,-9,-53,34,19,29,-9,-29,-39,-19,-29
63,48,-14,-56,39,17,29,-9,-29,-39,-19,-29
68,48,-19,-58,43,14,29,-9,-29,-39,-19,-29
58,48,-9,-53,34,19,39,-9,-29,-39,-19,-29
58,48,-9,-53,34,19,39,-9,-29,-39,-19,-29
58,48,-9,-53,34,19,39,-9,-29,-39,-19,-29
58,48,-9,-53,34,19,39,-9,-29,-39,-19,-29
58,48,-9,-53,34,19,39,-9,-29,-39,-19,-19
58,48,-9,-53,34,19,39,-9,-29,-39,-19,-19
58,48,-9,-53,34,19,39,-9,-29,-39,-19,-19
58,48,-9,-53,34,19,39,-9,-29,-39,-19,-19
53,43,-9,-48,31,17,34,-24,-34,-39,-29,-29
48,39,-9,-43,29,14,29,-29,-39,-39,-29,-29
43,34,-9,-39,26,12,24,-34,-43,-39,-29,-29
39,29,-9,-34,24,9,19,-39,-48,-39,-29,-29
48,43,-4,-46,26,19,29,-39,-48,-39,-29,-29
58,48,-9,-53,34,19,29,-39,-48,-39,-29,-29
68,53,-14,-61,41,19,29,-39,-48,-39,-29,-29
78,58,-19,-68,48,19,29,-39,-48,-39,-29,-29
63,63,0,-63,31,31,29,-29,-48,-39,-19,-19
58,63,4,-61,26,34,34,-29,-43,-39,-19,-14
53,63,9,-58,21,36,34,-29,-43,-39,-19,-14
53,63,9,-58,21,36,34,-39,-53,-39,-19,-14
53,48,-4,-51,29,21,34,-48,-53,-39,-29,-14
53,43,-9,-48,31,17,34,-43,-48,-39,-29,-14
53,43,-9,-48,31,17,29,-43,-48,-39,-29,-14
53,39,-14,-46,34,12,29,-39,-48,-39,-29,-14
53,58,4,-56,24,31,43,-39,-43,-24,-24,-9
58,68,9,-63,24,39,48,-34,-39,-9,-4,9
63,82,19,-73,21,51,58,-29,-34,-9,0,14
63,102,39,-82,12,70,63,-29,-29,-9,4,24
58,92,34,-75,12,63,53,-29,-29,-14,4,19
58,87,29,-73,14,58,53,-29,-34,-14,0,19
58,87,29,-73,14,58,58,-34,-39,-19,-4,14
58,87,29,-73,14,58,58,-39,-39,-19,-4,9
53,92,39,-73,7,65,63,-34,-39,-14,9,19
48,92,43,-70,2,68,63,-34,-39,-14,9,19
43,97,53,-70,-4,75,58,-34,-39,-14,9,19
39,97,58,-68,-9,78,53,-34,-39,-14,9,19
48,107,58,-78,-4,82,58,-34,-39,-9,14,14
58,107,48,-82,4,78,58,-19,-29,-4,19,19
68,107,39,-87,14,73,53,-19,-29,4,19,19
82,107,24,-95,29,65,48,-24,-34,-4,14,19
73,117,43,-95,14,80,48,-24,-29,0,19,24
68,117,48,-92,9,82,39,-39,-29,-4,19,24
68,122,53,-95,7,87,24,-53,-43,-14,19,24
68,131,63,-100,2,97,9,-68,-48,-14,19,24
63,131,68,-97,-2,100,-9,-87,-53,-19,9,19
68,131,63,-100,2,97,-19,-97,-58,-24,9,19
68,141,73,-104,-2,107,-24,-102,-63,-24,14,19
68,151,82,-109,-7,117,-34,-107,-73,-29,19,29
73,165,92,-119,-9,129,-53,-122,-82,-29,14,34
78,170,92,-124,-7,131,-63,-126,-82,-29,14,34
82,175,92,-129,-4,134,-73,-131,-87,-29,14,34
92,175,82,-134,4,129,-78,-131,-87,-29,9,39
102,175,73,-139,14,124,-68,-122,-78,-19,14,48
97,175,78,-136,9,126,-73,-126,-87,-29,19,43
92,170,78,-131,7,124,-73,-136,-92,-29,24,43
82,161,78,-122,2,119,-73,-141,-92,-29,29,48
92,165,73,-129,9,119,-82,-141,-97,-29,29,58
92,156,63,-124,14,109,-87,-151,-102,-34,29,53
92,156,63,-124,14,109,-92,-151,-107,-34,29,53
107,156,48,-131,29,102,-92,-146,-107,-34,29,53
107,141,34,-124,36,87,-92,-141,-107,-34,19,48
112,126,14,-119,48,70,-92,-141,-107,-34,19,48
117,107,-9,-112,63,48,-92,-141,-117,-39,19,43
122,97,-24,-109,73,36,-92,-141,-117,-48,19,43
117,87,-29,-102,73,29,-82,-136,-122,-48,9,43
107,92,-14,-100,61,39,-68,-136,-117,-48,9,43
102,92,-9,-97,56,41,-58,-131,-117,-48,9,43
87,92,4,-90,41,48,-53,-126,-112,-48,9,43
78,102,24,-90,26,63,-39,-122,-112,-48,4,34
73,92,19,-82,26,56,-29,-122,-112,-48,4,24
63,82,19,-73,21,51,-24,-122,-117,-58,-9,14
68,78,9,-73,29,43,-19,-122,-122,-58,-14,14
58,63,4,-61,26,34,-19,-126,-131,-63,-24,0
48,53,4,-51,21,29,-24,-131,-136,-73,-29,-14
39,29,-9,-34,24,9,-34,-136,-141,-78,-43,-29
24,9,-14,-17,19,-2,-43,-141,-151,-87,-48,-29
34,19,-14,-26,24,2,-34,-141,-151,-97,-58,-39
39,14,-24,-26,31,-4,-34,-141,-151,-97,-58,-39
43,9,-34,-26,39,-12,-29,-141,-151,-97,-63,-43
48,9,-39,-29,43,-14,-29,-141,-151,-97,-63,-43
39,19,-19,-29,29,0,-29,-136,-136,-82,-53,-34
34,19,-14,-26,24,2,-24,-131,-136,-82,-48,-24
24,14,-9,-19,17,2,-24,-131,-131,-78,-39,-19
24,14,-9,-19,17,2,-19,-126,-126,-78,-29,-9
39,4,-34,-21,36,-14,-24,-131,-146,-82,-34,-24
34,4,-29,-19,31,-12,-19,-136,-151,-87,-39,-24
34,4,-29,-19,31,-12,-24,-141,-146,-92,-43,-29
39,4,-34,-21,36,-14,-29,-146,-151,-97,-48,-34
48,9,-39,-29,43,-14,-29,-136,-141,-92,-34,-29
48,14,-34,-31,41,-9,-29,-136,-141,-87,-29,-24
48,19,-29,-34,39,-4,-19,-136,-141,-78,-19,-19
53,24,-29,-39,41,-2,-19,-136,-141,-73,-14,-14
34,24,-9,-29,21,7,-14,-136,-131,-73,-19,-14
19,14,-4,-17,12,4,-4,-126,-131,-78,-19,-19
19,14,-4,-17,12,4,0,-117,-131,-78,-29,-19
39,4,-34,-21,36,-14,-4,-122,-141,-97,-34,-29
53,9,-43,-31,48,-17,4,-117,-141,-102,-39,-39
48,0,-48,-24,48,-24,14,-82,-131,-102,-48,-43
48,-19,-68,-14,58,-43,39,-43,-131,-122,-63,-58
39,-53,-92,7,65,-73,82,14,-107,-131,-92,-78
48,-68,-117,9,82,-92,122,97,-63,-112,-92,-87
58,-48,-107,-4,82,-78,141,175,9,-73,-82,-87
63,-29,-92,-17,78,-61,141,244,107,0,-34,-58
82,0,-82,-41,82,-41,126,317,224,117,43,-4
126,58,-68,-92,97,-4,92,356,361,278,170,92
224,146,-78,-185,151,34,19,341,497,463,317,204
336,229,-107,-283,222,61,-73,292,634,668,483,336
405,336,-68,-370,236,134,-161,224,800,907,673,488
492,497,4,-495,244,251,-307,82,956,1210,927,697
610,673,63,-641,273,368,-561,-175,1049,1503,1205,922
722,819,97,-771,312,458,-893,-497,1039,1756,1464,1151
844,971,126,-907,358,549,-1200,-824,966,1932,1678,1366
1034,1156,122,-1095,456,639,-1507,-1132,858,2059,1873,1571
1205,1361,156,-1283,524,758,-1766,-1390,775,2191,2093,1776
1317,1571,253,-1444,531,912,-1971,-1600,683,2278,2274,1971
1351,1742,390,-1546,480,1066,-2127,-1878,483,2239,2347,2098
1351,1849,497,-1600,427,1173,-2303,-2239,165,2054,2327,2152
1263,1888,624,-1576,319,1256,-2444,-2664,-273,1737,2239,2166
1049,1747,697,-1398,175,1222,-2483,-3108,-883,1161,1971,2054
800,1449,649,-1124,75,1049,-2435,-3479,-1556,448,1546,1776
658,1171,512,-915,73,841,-2313,-3494,-1937,-122,1137,1478
570,912,341,-741,114,627,-2039,-3084,-1942,-405,824,1195
424,619,195,-522,114,407,-1644,-2527,-1727,-536,556,922
302,468,165,-385,68,317,-1317,-2039,-1464,-546,390,722
253,473,219,-363,17,346,-1098,-1644,-1200,-444,341,639
224,453,229,-339,-2,341,-888,-1273,-927,-326,317,561
180,370,190,-275,-4,280,-658,-946,-707,-273,234,424
126,302,175,-214,-24,239,-463,-688,-541,-253,117,258
58,229,170,-143,-56,200,-307,-492,-429,-253,-4,102
-9,141,151,-65,-80,146,-180,-346,-346,-244,-82,0
-4,117,122,-56,-63,119,-87,-239,-268,-195,-87,-34
34,107,73,-70,-19,90,-34,-156,-190,-141,-63,-39
29,53,24,-41,2,39,19,-73,-126,-112,-53,-34
19,4,-14,-12,17,-4,78,19,-78,-87,-53,-43
34,-9,-43,-12,39,-26,117,68,-48,-78,-43,-48
29,-14,-43,-7,36,-29,131,87,-39,-78,-43,-48
39,-24,-63,-7,51,-43,141,102,-34,-78,-53,-58
58,-14,-73,-21,65,-43,151,112,-29,-78,-58,-63
43,-9,-53,-17,48,-31,156,122,-29,-87,-68,-78
24,-19,-43,-2,34,-31,156,122,-39,-97,-63,-82
14,-24,-39,4,26,-31,161,126,-39,-97,-63,-82
-4,-39,-34,21,14,-36,175,146,-34,-97,-63,-82
-9,-48,-39,29,14,-43,175,156,-29,-97,-68,-82
0,-48,-48,24,24,-48,185,165,-19,-87,-68,-82
-9,-48,-39,29,14,-43,195,180,-9,-87,-73,-82
-9,-53,-43,31,17,-48,200,185,-9,-87,-73,-92
-4,-58,-53,31,24,-56,200,190,-9,-82,-78,-97
-9,-58,-48,34,19,-53,204,195,-19,-92,-78,-107
-14,-58,-43,36,14,-51,204,200,-14,-92,-78,-107
-19,-63,-43,41,12,-53,204,200,-14,-92,-78,-107
-14,-63,-48,39,17,-56,204,200,-14,-92,-82,-112
-4,-53,-48,29,21,-51,209,209,-4,-82,-73,-102
0,-53,-53,26,26,-53,209,219,0,-82,-73,-102
4,-53,-58,24,31,-56,209,229,4,-82,-73,-102
14,-48,-63,17,39,-56,214,234,4,-82,-78,-102
4,-48,-53,21,29,-51,224,239,19,-78,-78,-102
-4,-48,-43,26,19,-46,229,244,24,-63,-73,-102
-24,-53,-29,39,2,-41,234,248,29,-58,-73,-102
-24,-53,-29,39,2,-41,234,263,34,-48,-73,-102
-4,-63,-58,34,26,-61,234,258,39,-53,-78,-102
0,-63,-63,31,31,-63,239,263,43,-53,-78,-102
4,-63,-68,29,36,-65,239,268,48,-53,-78,-107
9,-63,-73,26,41,-68,239,268,53,-53,-87,-107
9,-63,-73,26,41,-68,239,283,58,-53,-97,-107
9,-63,-73,26,41,-68,239,283,63,-53,-97,-107
9,-63,-73,26,41,-68,239,287,63,-53,-97,-107
9,-63,-73,26,41,-68,239,292,68,-53,-97,-107
14,-63,-78,24,46,-70,244,297,63,-58,-97,-107
19,-63,-82,21,51,-73,244,307,68,-58,-97,-107
24,-63,-87,19,56,-75,244,317,73,-58,-92,-107
29,-63,-92,17,61,-78,244,317,78,-53,-92,-107
24,-63,-87,19,56,-75,248,326,78,-48,-82,-102
24,-63,-87,19,56,-75,248,326,82,-43,-78,-102
19,-63,-82,21,51,-73,253,336,87,-34,-78,-102
14,-68,-82,26,48,-75,253,336,92,-29,-87,-102
-14,-78,-63,46,24,-70,268,356,97,-29,-78,-112
-19,-78,-58,48,19,-68,273,370,102,-29,-78,-112
-14,-78,-63,46,24,-70,278,370,107,-29,-82,-112
-19,-73,-53,46,17,-63,278,375,107,-29,-87,-117
-19,-73,-53,46,17,-63,268,380,112,-29,-97,-126
-19,-73,-53,46,17,-63,273,385,117,-24,-97,-126
-14,-73,-58,43,21,-65,278,390,122,-24,-97,-126
-14,-73,-58,43,21,-65,278,390,122,-24,-102,-126
-4,-63,-58,34,26,-61,287,390,126,-24,-102,-131
-9,-63,-53,36,21,-58,287,395,131,-19,-102,-131
-9,-73,-63,41,26,-68,292,405,136,-19,-102,-131
-14,-73,-58,43,21,-65,292,414,141,-19,-102,-136
-4,-73,-68,39,31,-70,307,429,136,-24,-112,-141
-4,-73,-68,39,31,-70,307,439,141,-24,-112,-141
0,-73,-73,36,36,-73,312,448,146,-24,-117,-146
0,-68,-68,34,34,-68,317,458,151,-24,-122,-146
-9,-68,-58,39,24,-63,326,478,170,-24,-122,-146
-9,-68,-58,39,24,-63,346,492,175,-24,-117,-146
-9,-73,-63,41,26,-68,346,497,180,-24,-117,-151
-9,-73,-63,41,26,-68,351,507,180,-24,-122,-151
-14,-73,-58,43,21,-65,351,507,185,-14,-122,-141
-14,-73,-58,43,21,-65,361,522,195,-14,-122,-151
-14,-78,-63,46,24,-70,375,541,204,-9,-122,-151
-19,-78,-58,48,19,-68,380,551,214,-9,-122,-151
-9,-68,-58,39,24,-63,395,570,219,-4,-122,-146
-9,-68,-58,39,24,-63,400,585,224,-4,-122,-146
-14,-68,-53,41,19,-61,405,600,234,-4,-126,-156
-19,-73,-53,46,17,-63,409,614,239,-9,-131,-156
-34,-82,-48,58,7,-65,424,629,258,-9,-131,-156
-34,-82,-48,58,7,-65,434,649,263,-9,-136,-165
-24,-78,-53,51,14,-65,434,663,263,-9,-141,-170
-19,-78,-58,48,19,-68,444,678,278,-9,-146,-175
-9,-68,-58,39,24,-63,463,707,292,0,-136,-175
-14,-68,-53,41,19,-61,473,727,307,0,-141,-175
-29,-68,-39,48,4,-53,483,746,307,0,-141,-175
-29,-68,-39,48,4,-53,497,766,322,0,-151,-185
-34,-87,-53,61,9,-70,512,775,322,0,-141,-185
-39,-92,-53,65,7,-73,512,795,331,0,-146,-185
-43,-97,-53,70,4,-75,522,810,341,0,-151,-190
-58,-102,-43,80,-7,-73,527,829,346,0,-165,-195
-43,-87,-43,65,0,-65,546,854,351,-9,-180,-204
-39,-82,-43,61,2,-63,556,878,361,-9,-180,-204
-34,-78,-43,56,4,-61,566,893,370,-14,-190,-209
-39,-73,-34,56,-2,-53,570,912,380,-14,-190,-214
-34,-63,-29,48,-2,-46,585,932,380,-24,-195,-229
-39,-63,-24,51,-7,-43,600,951,395,-24,-200,-239
-34,-68,-34,51,0,-51,610,966,405,-29,-204,-239
-29,-73,-43,51,7,-58,624,980,405,-34,-209,-244
-43,-87,-43,65,0,-65,614,976,405,-39,-229,-258
-43,-92,-48,68,2,-70,614,990,395,-53,-248,-273
-48,-92,-43,70,-2,-68,619,995,395,-58,-258,-278
-53,-97,-43,75,-4,-70,624,1010,395,-68,-273,-278
-82,-92,-9,87,-36,-51,639,1010,414,-68,-268,-268
-97,-87,9,92,-53,-39,653,1019,419,-73,-268,-273
-112,-82,29,97,-70,-26,658,1029,419,-78,-273,-278
-126,-78,48,102,-87,-14,668,1044,419,-92,-273,-278
-122,-87,34,104,-78,-26,658,1034,405,-87,-292,-297
-117,-87,29,102,-73,-29,653,1029,400,-92,-292,-302
-117,-87,29,102,-73,-29,653,1029,400,-97,-307,-307
-112,-82,29,97,-70,-26,649,1019,390,-112,-317,-317
-107,-82,24,95,-65,-29,639,1005,370,-131,-326,-326
-112,-78,34,95,-73,-21,639,995,370,-141,-326,-326
-117,-73,43,95,-80,-14,639,990,366,-146,-326,-326
-117,-73,43,95,-80,-14,634,976,361,-161,-326,-326
-117,-63,53,90,-85,-4,624,961,351,-156,-331,-317
-122,-63,58,92,-90,-2,619,941,336,-161,-331,-312
-131,-58,73,95,-102,7,614,932,326,-161,-326,-307
-131,-53,78,92,-104,12,605,902,317,-161,-326,-297
-126,-58,68,92,-97,4,585,858,283,-180,-336,-307
-126,-58,68,92,-97,4,551,814,258,-190,-331,-307
-122,-53,68,87,-95,7,522,775,244,-195,-331,-302
-122,-48,73,85,-97,12,497,736,224,-200,-326,-302
-112,-34,78,73,-95,21,478,697,190,-204,-322,-283
-107,-34,73,70,-90,19,463,663,165,-204,-307,-273
-102,-29,73,65,-87,21,434,624,146,-209,-302,-263
-92,-24,68,58,-80,21,409,575,122,-209,-283,-253
-82,-14,68,48,-75,26,395,531,107,-195,-263,-229
-78,-4,73,41,-75,34,370,488,87,-190,-248,-209
-78,4,82,36,-80,43,341,439,78,-185,-224,-195
-73,14,87,29,-80,51,312,395,63,-175,-209,-185
-73,14,87,29,-80,51,292,366,53,-170,-200,-165
-58,9,68,24,-63,39,273,331,39,-156,-180,-151
-53,9,63,21,-58,36,248,307,19,-141,-165,-141
-48,4,53,21,-51,29,229,283,4,-126,-151,-122
-34,-4,29,19,-31,12,219,258,-4,-126,-141,-112
-24,0,24,12,-24,12,200,224,-14,-122,-126,-112
-4,4,9,0,-7,7,175,195,-29,-112,-112,-102
4,9,4,-7,0,7,161,170,-39,-102,-97,-97
14,19,4,-17,4,12,156,156,-34,-97,-87,-78
14,24,9,-19,2,17,141,136,-43,-87,-78,-63
24,34,9,-29,7,21,122,107,-48,-82,-68,-58
34,43,9,-39,12,26,112,97,-53,-73,-58,-48
43,48,4,-46,19,26,102,92,-63,-73,-58,-48
43,48,4,-46,19,26,92,78,-68,-68,-53,-43
53,48,-4,-51,29,21,87,63,-68,-63,-43,-39
53,53,0,-53,26,26,78,53,-73,-58,-39,-34
63,43,-19,-53,41,12,63,43,-82,-68,-39,-39
63,39,-24,-51,43,7,58,34,-92,-63,-34,-34
68,39,-29,-53,48,4,58,24,-92,-58,-34,-34
73,39,-34,-56,53,2,48,14,-92,-43,-34,-34
53,39,-14,-46,34,12,53,19,-92,-34,-24,-29
43,43,0,-43,21,21,58,19,-87,-24,-14,-19
43,43,0,-43,21,21,58,14,-82,-24,-4,-9
34,43,9,-39,12,26,63,9,-78,-19,0,0
29,34,4,-31,12,19,53,4,-78,-29,-4,-9
24,29,4,-26,9,17,53,4,-78,-29,-4,-4
24,24,0,-24,12,12,48,-4,-78,-29,-4,-4
24,19,-4,-21,14,7,48,-4,-87,-24,0,0
34,29,-4,-31,19,12,48,0,-78,-9,9,0
34,29,-4,-31,19,12,48,0,-78,-9,9,0
34,29,-4,-31,19,12,43,-4,-78,-9,9,0
34,34,0,-34,17,17,43,-4,-78,-14,9,0
48,43,-4,-46,26,19,43,4,-68,-14,9,0
43,39,-4,-41,24,17,43,4,-68,-14,9,0
48,39,-9,-43,29,14,48,4,-63,-14,14,0
58,43,-14,-51,36,14,48,4,-63,-14,14,4
73,53,-19,-63,46,17,29,-9,-68,-29,0,-4
63,53,-9,-58,36,21,29,-9,-73,-29,-4,-9
53,53,0,-53,26,26,34,-4,-78,-24,-9,-9
53,53,0,-53,26,26,34,-4,-82,-24,-14,-9
48,53,4,-51,21,29,39,4,-82,-24,-14,4
48,53,4,-51,21,29,43,4,-78,-19,-9,4
48,53,4,-51,21,29,48,0,-73,-14,-4,4
53,48,-4,-51,29,21,53,0,-68,-9,0,4
58,39,-19,-48,39,9,43,0,-68,-4,9,14
43,43,0,-43,21,21,48,4,-63,-4,9,14
34,43,9,-39,12,26,48,4,-63,-4,9,14
29,39,9,-34,9,24,53,9,-63,-4,9,14
29,48,19,-39,4,34,53,14,-53,4,14,14
19,48,29,-34,-4,39,58,19,-53,9,14,14
19,43,24,-31,-2,34,63,24,-53,9,19,14
19,43,24,-31,-2,34,63,29,-53,9,19,14
34,43,9,-39,12,26,53,24,-63,0,0,0
39,39,0,-39,19,19,58,19,-68,-9,-4,-4
43,34,-9,-39,26,12,58,24,-73,-19,-9,-9
43,29,-14,-36,29,7,58,24,-78,-29,-14,-14
34,19,-14,-26,24,2,63,39,-68,-19,-4,0
34,14,-19,-24,26,-2,63,43,-58,-19,-4,0
43,14,-29,-29,36,-7,63,43,-53,-14,0,0
48,14,-34,-31,41,-9,63,48,-48,-14,0,-4
39,24,-14,-31,26,4,73,53,-48,-14,-9,-4
34,24,-9,-29,21,7,73,53,-43,-14,-9,-4
34,24,-9,-29,21,7,73,53,-43,-14,-9,-4
34,24,-9,-29,21,7,73,53,-43,-14,-9,-4
34,34,0,-34,17,17,63,58,-43,-4,-9,-9
34,29,-4,-31,19,12,68,63,-34,-4,-4,-9
34,29,-4,-31,19,12,68,68,-29,4,0,-4
34,34,0,-34,17,17,68,68,-29,4,4,-4
39,34,-4,-36,21,14,78,78,-29,9,4,4
39,34,-4,-36,21,14,78,78,-29,9,4,4
39,34,-4,-36,21,14,78,82,-24,9,4,4
39,34,-4,-36,21,14,78,87,-19,9,4,4
48,34,-14,-41,31,9,63,78,-29,0,-9,-4
58,34,-24,-46,41,4,63,78,-24,0,-9,-9
78,39,-39,-58,58,0,63,78,-24,0,-9,-14
87,39,-48,-63,68,-4,63,78,-24,0,-9,-19
63,34,-29,-48,46,2,73,82,-14,0,-14,-19
53,34,-19,-43,36,7,73,82,-14,0,-14,-19
43,34,-9,-39,26,12,78,87,-19,0,-14,-19
39,34,-4,-36,21,14,78,92,-19,4,-14,-19
39,24,-14,-31,26,4,78,82,-14,14,-9,-4
39,19,-19,-29,29,0,78,78,-14,19,0,-4
29,19,-9,-24,19,4,78,78,-14,19,4,-4
29,19,-9,-24,19,4,78,82,-14,24,9,-4
39,29,-9,-34,24,9,73,73,-9,29,14,-14
39,29,-9,-34,24,9,73,73,-14,29,9,-14
39,29,-9,-34,24,9,68,73,-24,24,0,-14
39,29,-9,-34,24,9,68,68,-29,14,-4,-14
29,24,-4,-26,17,9,58,68,-29,4,-4,-24
29,24,-4,-26,17,9,63,68,-29,4,-4,-24
34,19,-14,-26,24,2,63,68,-29,4,-4,-24
34,19,-14,-26,24,2,63,68,-29,4,-4,-24
24,19,-4,-21,14,7,63,68,-24,14,4,-14
29,19,-9,-24,19,4,63,58,-29,9,4,-14
29,19,-9,-24,19,4,63,58,-29,0,4,-14
24,19,-4,-21,14,7,58,58,-29,0,4,-14
24,14,-9,-19,17,2,68,63,-34,9,4,-14
24,14,-9,-19,17,2,68,63,-34,9,4,-14
24,14,-9,-19,17,2,68,63,-34,14,4,-14
24,14,-9,-19,17,2,68,58,-39,14,4,-14
19,24,4,-21,7,14,58,48,-29,14,4,-24
19,24,4,-21,7,14,58,48,-34,14,4,-24
19,24,4,-21,7,14,53,39,-39,4,4,-24
19,29,9,-24,4,19,53,39,-39,4,4,-24
39,39,0,-39,19,19,43,29,-43,0,0,-14
48,39,-9,-43,29,14,43,24,-48,-4,0,-14
68,39,-29,-53,48,4,39,19,-63,-14,0,-14
78,39,-39,-58,58,0,39,14,-68,-19,-9,-14
68,34,-34,-51,51,0,48,24,-63,-9,0,-14
58,29,-29,-43,43,0,48,24,-63,-9,0,-14
48,19,-29,-34,39,-4,48,24,-63,-9,0,-14
39,14,-24,-26,31,-4,39,19,-68,-9,-4,-14
48,39,-9,-43,29,14,39,14,-58,-9,4,-4
34,39,4,-36,14,21,39,14,-68,-24,0,-4
4,29,24,-17,-9,26,48,19,-68,-14,0,4
39,39,0,-39,19,19,48,9,-68,-9,0,0
48,34,-14,-41,31,9,39,0,-78,-19,0,-9
48,29,-19,-39,34,4,39,0,-78,-19,0,-9
48,24,-24,-36,36,0,39,0,-78,-19,0,-9
48,19,-29,-34,39,-4,39,0,-78,-19,0,-9
43,34,-9,-39,26,12,29,-9,-78,-9,0,-19
39,34,-4,-36,21,14,34,-9,-73,-9,0,-14
34,34,0,-34,17,17,34,-9,-73,-9,0,-14
34,34,0,-34,17,17,34,-19,-82,-9,0,-14
39,34,-4,-36,21,14,43,-9,-82,-9,0,-4
43,34,-9,-39,26,12,43,-4,-78,-9,0,-4
48,39,-9,-43,29,14,39,-4,-78,-9,0,-4
53,39,-14,-46,34,12,39,0,-78,-9,0,-4
43,39,-4,-41,24,17,34,-9,-78,-14,9,-4
48,39,-9,-43,29,14,39,-4,-78,0,24,9
53,43,-9,-48,31,17,48,0,-78,0,24,9
53,53,0,-53,26,26,53,0,-78,0,24,14
39,68,29,-53,4,48,63,4,-63,0,19,14
39,68,29,-53,4,48,63,9,-63,4,19,19
39,73,34,-56,2,53,68,9,-63,4,19,19
39,78,39,-58,0,58,68,9,-58,9,24,19
39,82,43,-61,-2,63,68,24,-48,24,39,19
39,82,43,-61,-2,63,73,24,-48,24,39,19
39,87,48,-63,-4,68,73,24,-48,24,39,19
39,87,48,-63,-4,68,73,24,-48,24,39,19
53,78,24,-65,14,51,68,19,-58,19,34,14
58,78,19,-68,19,48,68,29,-48,24,39,19
63,78,14,-70,24,46,63,24,-48,34,39,19
73,78,4,-75,34,41,58,14,-53,24,34,19
63,78,14,-70,24,46,58,24,-58,19,29,24
48,78,29,-63,9,53,48,9,-58,14,29,24
39,82,43,-61,-2,63,34,-4,-73,4,29,24
29,92,63,-61,-17,78,19,-19,-78,4,29,24
43,107,63,-75,-9,85,0,-29,-78,4,29,29
48,112,63,-80,-7,87,-9,-39,-78,4,29,29
48,126,78,-87,-14,102,-14,-43,-78,9,34,29
48,141,92,-95,-21,117,-24,-48,-82,9,39,39
58,156,97,-107,-19,126,-34,-63,-82,19,48,43
68,161,92,-114,-12,126,-43,-68,-82,19,53,43
78,165,87,-122,-4,126,-53,-73,-87,19,58,43
92,165,73,-129,9,119,-58,-73,-87,19,58,48
102,175,73,-139,14,124,-68,-73,-92,9,48,48
97,175,78,-136,9,126,-73,-78,-107,0,48,43
92,170,78,-131,7,124,-73,-87,-117,0,48,43
82,161,78,-122,2,119,-73,-92,-122,0,48,48
78,146,68,-112,4,107,-73,-102,-117,9,39,48
73,126,53,-100,9,90,-78,-112,-122,4,39,43
68,117,48,-92,9,82,-82,-112,-126,4,39,43
78,107,29,-92,24,68,-82,-107,-126,4,39,43
92,107,14,-100,39,61,-82,-92,-126,4,39,39
102,97,-4,-100,53,46,-82,-92,-126,4,39,39
112,82,-29,-97,70,26,-82,-92,-136,0,39,34
122,78,-43,-100,82,17,-82,-92,-136,-9,39,34
117,78,-39,-97,78,19,-82,-97,-131,0,48,43
107,82,-24,-95,65,29,-68,-97,-126,0,48,43
102,82,-19,-92,61,31,-58,-92,-126,0,48,43
87,82,-4,-85,46,39,-53,-87,-122,0,48,43
73,82,9,-78,31,46,-39,-82,-131,-9,39,34
63,73,9,-68,26,41,-29,-82,-131,-9,34,24
48,63,14,-56,17,39,-24,-82,-136,-19,14,14
48,58,9,-53,19,34,-19,-82,-141,-19,4,14
53,43,-9,-48,31,17,-19,-82,-131,-24,14,9
48,34,-14,-41,31,9,-14,-82,-136,-34,9,-4
43,9,-34,-26,39,-12,-14,-82,-141,-39,-4,-19
34,-9,-43,-12,39,-26,-14,-82,-151,-48,-9,-19
24,-9,-34,-7,29,-21,-4,-82,-141,-43,-4,-4
19,-14,-34,-2,26,-24,-4,-82,-141,-39,0,0
14,-19,-34,2,24,-26,0,-82,-141,-34,0,0
9,-19,-29,4,19,-24,0,-82,-141,-29,4,4
4,-29,-34,12,19,-31,-4,-82,-141,-39,-4,-4
4,-29,-34,12,19,-31,-4,-82,-146,-43,-9,-4
0,-34,-34,17,17,-34,-9,-87,-146,-43,-9,-9
4,-34,-39,14,21,-36,-9,-87,-146,-48,-9,-9
19,-29,-48,4,34,-39,-9,-87,-161,-48,-19,-19
14,-24,-39,4,26,-31,0,-87,-161,-48,-19,-14
14,-19,-34,2,24,-26,0,-87,-151,-48,-19,-14
19,-14,-34,-2,26,-24,0,-87,-151,-48,-19,-14
24,-4,-29,-9,26,-17,0,-87,-151,-58,-19,-24
29,-4,-34,-12,31,-19,0,-87,-151,-58,-19,-24
34,-4,-39,-14,36,-21,9,-87,-151,-53,-14,-24
43,-4,-48,-19,46,-26,9,-87,-151,-53,-14,-24
34,4,-29,-19,31,-12,14,-87,-131,-34,0,-14
48,4,-43,-26,46,-19,14,-78,-131,-29,0,-9
48,4,-43,-26,46,-19,19,-78,-141,-39,0,-9
29,-4,-34,-12,31,-19,14,-82,-141,-58,-14,-19
4,-9,-14,2,9,-12,34,-58,-131,-43,-9,-19
9,-19,-29,4,19,-24,43,-34,-122,-34,-19,-14
48,-48,-97,0,73,-73,48,-4,-122,-53,-43,-48
97,-63,-161,-17,129,-112,73,43,-117,-73,-73,-87
78,-58,-136,-9,107,-97,112,126,-63,-53,-73,-87
19,-58,-78,19,48,-68,151,224,19,-4,-43,-68
14,-48,-63,17,39,-56,161,312,117,68,4,-39
63,-19,-82,-21,73,-51,146,375,244,185,82,24
97,39,-58,-68,78,-9,112,405,380,336,190,112
165,126,-39,-146,102,43,29,370,517,531,346,234
287,239,-48,-263,168,95,-63,312,673,775,541,375
395,366,-29,-380,212,168,-161,204,829,1024,751,536
492,497,4,-495,244,251,-346,4,946,1298,976,727
619,653,34,-636,292,344,-610,-283,1010,1590,1254,961
761,810,48,-785,356,429,-932,-624,1000,1844,1532,1200
844,941,97,-893,373,519,-1249,-961,917,2020,1747,1405
946,1117,170,-1032,387,644,-1517,-1259,810,2156,1942,1590
1107,1342,234,-1224,436,788,-1776,-1488,746,2327,2171,1825
1249,1571,322,-1410,463,946,-1981,-1678,663,2444,2371,2030
1302,1742,439,-1522,431,1090,-2147,-1937,483,2415,2454,2156
1273,1859,585,-1566,344,1222,-2303,-2269,175,2249,2454,2230
1185,1888,702,-1537,241,1295,-2454,-2674,-263,1922,2376,2244
1019,1737,717,-1378,151,1227,-2522,-3108,-883,1337,2098,2122
810,1449,639,-1129,85,1044,-2474,-3459,-1566,566,1654,1844
619,1161,541,-890,39,851,-2332,-3484,-2005,-73,1205,1537
522,883,361,-702,80,622,-2049,-3093,-2039,-414,854,1234
414,590,175,-502,119,383,-1654,-2498,-1805,-546,575,951
283,409,126,-346,78,268,-1307,-1991,-1512,-536,400,732
244,405,161,-324,41,283,-1098,-1615,-1249,-444,331,619
253,414,161,-334,46,287,-897,-1273,-1005,-346,297,531
180,331,151,-256,14,241,-678,-976,-775,-283,224,414
87,234,146,-161,-29,190,-473,-707,-590,-244,117,258
39,170,131,-104,-46,151,-326,-512,-458,-234,4,112
-29,131,161,-51,-95,146,-190,-336,-346,-214,-73,9
-43,107,151,-31,-97,129,-87,-190,-239,-156,-78,-24
-4,87,92,-41,-48,90,-24,-107,-180,-112,-53,-29
9,34,24,-21,-7,29,19,-24,-136,-92,-53,-43
-9,-14,-4,12,-2,-9,68,39,-87,-68,-43,-43
-14,-58,-43,36,14,-51,97,78,-68,-58,-34,-48
-9,-63,-53,36,21,-58,122,107,-58,-58,-34,-39
9,-43,-53,17,31,-48,151,131,-34,-58,-34,-39
19,-34,-53,7,36,-43,170,161,-19,-48,-29,-43
14,-39,-53,12,34,-46,175,170,-9,-48,-39,-48
24,-39,-63,7,43,-51,165,165,-24,-58,-53,-58
24,-34,-58,4,41,-46,170,165,-29,-58,-53,-63
14,-39,-53,12,34,-46,185,180,-29,-58,-53,-68
19,-39,-58,9,39,-48,185,185,-29,-58,-58,-73
14,-53,-68,19,41,-61,190,185,-29,-58,-68,-82
0,-58,-58,29,29,-58,195,200,-19,-58,-73,-82
-4,-68,-63,36,29,-65,195,204,-19,-58,-73,-92
-4,-78,-73,41,34,-75,190,209,-19,-53,-78,-97
-4,-68,-63,36,29,-65,209,229,-4,-43,-73,-92
-4,-68,-63,36,29,-65,214,239,4,-43,-68,-87
-4,-73,-68,39,31,-70,219,244,9,-43,-63,-82
4,-73,-78,34,41,-75,224,248,14,-43,-63,-82
0,-73,-73,36,36,-73,224,244,4,-53,-73,-92
0,-73,-73,36,36,-73,219,248,9,-53,-73,-92
0,-73,-73,36,36,-73,214,253,14,-53,-73,-92
4,-68,-73,31,39,-70,214,253,14,-53,-78,-92
4,-68,-73,31,39,-70,224,258,29,-43,-68,-82
-4,-68,-63,36,29,-65,229,263,34,-34,-63,-82
-24,-73,-48,48,12,-61,234,268,39,-34,-63,-82
-24,-73,-48,48,12,-61,234,283,43,-29,-63,-82
-4,-78,-73,41,34,-75,229,283,43,-29,-63,-87
0,-82,-82,41,41,-82,229,283,43,-34,-68,-92
4,-87,-92,41,48,-90,224,283,43,-39,-73,-102
9,-92,-102,41,56,-97,219,278,43,-43,-87,-107
4,-92,-97,43,51,-95,229,287,53,-29,-73,-102
0,-92,-92,46,46,-92,229,292,63,-24,-68,-97
-4,-92,-87,48,41,-90,229,302,68,-19,-63,-92
-9,-92,-82,51,36,-87,229,312,78,-14,-58,-87
0,-82,-82,41,41,-82,244,317,82,-19,-68,-87
0,-82,-82,41,41,-82,244,326,87,-19,-68,-87
0,-82,-82,41,41,-82,244,336,92,-19,-63,-87
0,-82,-82,41,41,-82,244,336,97,-14,-63,-87
4,-82,-87,39,46,-85,239,336,87,-14,-68,-102
4,-82,-87,39,46,-85,239,336,92,-14,-68,-102
0,-82,-82,41,41,-82,244,346,97,-9,-73,-102
-4,-87,-82,46,39,-85,244,346,102,-9,-87,-102
-9,-87,-78,48,34,-82,248,356,107,-9,-78,-102
-9,-87,-78,48,34,-82,253,370,112,-9,-78,-102
0,-87,-87,43,43,-87,258,370,117,-9,-82,-102
0,-82,-82,41,41,-82,258,375,117,-9,-87,-107
-4,-82,-78,43,36,-80,258,385,122,-9,-78,-97
-9,-82,-73,46,31,-78,263,395,126,-4,-78,-97
-9,-82,-73,46,31,-78,268,405,131,-4,-78,-97
-14,-82,-68,48,26,-75,268,409,131,-4,-82,-97
-4,-82,-78,43,36,-80,287,409,136,-14,-92,-107
-9,-82,-73,46,31,-78,287,414,141,-9,-92,-112
-9,-92,-82,51,36,-87,292,424,146,-9,-92,-117
-14,-92,-78,53,31,-85,292,434,151,-9,-92,-126
-4,-82,-78,43,36,-80,307,439,156,-4,-92,-122
-4,-82,-78,43,36,-80,307,448,161,-4,-92,-122
0,-82,-82,41,41,-82,312,458,165,-4,-97,-126
0,-78,-78,39,39,-78,317,468,170,-4,-102,-126
-19,-87,-68,53,24,-78,326,488,190,4,-97,-117
-19,-87,-68,53,24,-78,346,502,195,4,-87,-117
-19,-92,-73,56,26,-82,346,507,200,4,-82,-122
-19,-92,-73,56,26,-82,351,517,200,4,-82,-122
-14,-97,-82,56,34,-90,341,522,195,-4,-92,-131
-14,-102,-87,58,36,-95,351,531,204,-4,-92,-141
-14,-112,-97,63,41,-104,366,546,214,0,-92,-141
-19,-117,-97,68,39,-107,370,551,224,0,-92,-141
-24,-107,-82,65,29,-95,385,575,239,14,-92,-126
-29,-107,-78,68,24,-92,390,595,244,14,-92,-126
-39,-107,-68,73,14,-87,395,614,253,14,-97,-136
-48,-112,-63,80,7,-87,400,634,258,9,-102,-136
-48,-107,-58,78,4,-82,414,639,268,19,-112,-146
-43,-102,-58,73,7,-80,424,658,273,19,-117,-156
-29,-92,-63,61,17,-78,424,673,273,19,-122,-161
-19,-87,-68,53,24,-78,434,688,287,19,-126,-165
-9,-92,-82,51,36,-87,434,702,283,14,-136,-175
-14,-97,-82,56,34,-90,444,717,297,9,-141,-175
-29,-102,-73,65,21,-87,453,732,297,4,-141,-175
-29,-107,-78,68,24,-92,468,746,312,0,-151,-185
-39,-112,-73,75,17,-92,488,775,322,0,-141,-185
-39,-112,-73,75,17,-92,492,795,331,0,-146,-185
-39,-112,-73,75,17,-92,507,810,341,0,-151,-190
-48,-112,-63,80,7,-87,517,829,346,0,-165,-195
-58,-122,-63,90,2,-92,527,844,361,4,-170,-204
-58,-122,-63,90,2,-92,536,868,370,9,-170,-204
-58,-122,-63,90,2,-92,546,883,380,9,-180,-209
-68,-122,-53,95,-7,-87,551,902,390,14,-180,-214
-78,-112,-34,95,-21,-73,556,917,390,4,-185,-229
-87,-112,-24,100,-31,-68,570,932,405,4,-190,-239
-87,-117,-29,102,-29,-73,580,941,414,0,-195,-239
-87,-122,-34,104,-26,-78,595,951,414,-4,-200,-244
-87,-131,-43,109,-21,-87,595,956,424,-9,-224,-258
-82,-131,-48,107,-17,-90,595,971,414,-24,-239,-273
-82,-126,-43,104,-19,-85,600,976,414,-29,-244,-278
-82,-126,-43,104,-19,-85,605,990,414,-39,-253,-278
-92,-117,-24,104,-34,-70,600,995,424,-48,-253,-268
-97,-117,-19,107,-39,-68,614,1000,429,-53,-258,-273
-102,-117,-14,109,-43,-65,619,1005,429,-58,-268,-278
-107,-117,-9,112,-48,-63,629,1015,429,-73,-273,-278
-117,-117,0,117,-58,-58,619,1010,414,-68,-283,-297
-117,-117,0,117,-58,-58,614,1000,409,-73,-283,-302
-122,-117,4,119,-63,-56,614,995,409,-78,-297,-307
-122,-112,9,117,-65,-51,610,980,400,-92,-307,-317
-136,-112,24,124,-80,-43,610,985,390,-107,-317,-322
-141,-107,34,124,-87,-36,610,976,390,-112,-317,-317
-146,-102,43,124,-95,-29,610,971,385,-112,-317,-312
-146,-102,43,124,-95,-29,605,956,380,-122,-317,-307
-136,-102,34,119,-85,-34,595,932,361,-141,-326,-317
-141,-102,39,122,-90,-31,590,912,346,-151,-331,-322
-151,-97,53,124,-102,-21,585,902,336,-156,-331,-326
-151,-92,58,122,-104,-17,575,873,326,-161,-336,-326
-131,-78,53,104,-92,-12,551,844,307,-165,-326,-322
-126,-78,48,102,-87,-14,522,805,287,-170,-322,-317
-117,-73,43,95,-80,-14,497,771,278,-170,-322,-307
-112,-68,43,90,-78,-12,478,736,263,-170,-317,-302
-112,-53,58,82,-85,2,448,692,229,-165,-307,-292
-117,-53,63,85,-90,4,434,653,204,-165,-297,-283
-122,-48,73,85,-97,12,405,610,185,-170,-297,-273
-122,-43,78,82,-100,17,380,556,161,-170,-283,-263
-97,-48,48,73,-73,0,346,522,151,-170,-268,-244
-87,-43,43,65,-65,0,322,478,126,-170,-258,-229
-82,-39,43,61,-63,2,292,429,112,-170,-239,-219
-73,-34,39,53,-56,2,263,385,92,-165,-229,-214
-73,-29,43,51,-58,7,244,356,73,-161,-214,-190
-68,-29,39,48,-53,4,224,312,58,-146,-190,-170
-73,-24,48,48,-61,12,200,278,39,-131,-170,-156
-78,-24,53,51,-65,14,180,244,24,-117,-151,-131
-53,-34,19,43,-36,-7,170,214,14,-117,-141,-117
-43,-29,14,36,-29,-7,151,185,4,-112,-126,-112
-24,-24,0,24,-12,-12,126,161,-9,-102,-112,-97
-14,-19,-4,17,-4,-12,112,141,-19,-92,-97,-87
-14,-24,-9,19,-2,-17,107,107,-24,-78,-87,-82
-14,-24,-9,19,-2,-17,92,87,-34,-68,-78,-73
-4,-19,-14,12,4,-17,73,58,-39,-63,-68,-73
4,-14,-19,4,12,-17,63,48,-43,-53,-58,-68
-9,0,9,4,-9,4,63,39,-34,-34,-39,-53
-14,0,14,7,-14,7,53,29,-39,-29,-34,-43
-9,0,9,4,-9,4,48,19,-39,-24,-24,-34
-14,4,19,4,-17,12,39,14,-43,-19,-19,-24
4,4,0,-4,2,2,24,-4,-53,-19,-14,-24
14,0,-14,-7,14,-7,19,-14,-63,-14,-4,-14
29,0,-29,-14,29,-14,19,-24,-63,-9,0,-9
43,0,-43,-21,43,-21,9,-34,-63,4,4,-4
53,4,-48,-29,51,-21,9,-39,-58,-4,9,4
53,14,-39,-34,46,-12,9,-39,-58,4,14,9
63,19,-43,-41,53,-12,4,-43,-58,4,19,14
63,24,-39,-43,51,-7,4,-48,-58,9,19,19
43,14,-29,-29,36,-7,4,-43,-58,9,19,14
34,9,-24,-21,29,-7,4,-43,-58,9,14,14
29,4,-24,-17,26,-9,0,-53,-58,9,9,9
24,0,-24,-12,24,-12,0,-53,-68,14,9,9
19,-9,-29,-4,24,-19,0,-68,-68,9,9,9
14,-9,-24,-2,19,-17,0,-68,-68,9,9,9
9,-9,-19,0,14,-14,-4,-73,-68,9,9,9
4,-4,-9,0,7,-7,-4,-73,-68,4,9,9
24,4,-19,-14,21,-7,-14,-82,-68,4,9,0
24,0,-24,-12,24,-12,-14,-82,-68,4,9,0
34,0,-34,-17,34,-17,-9,-82,-63,4,14,0
48,4,-43,-26,46,-19,-9,-82,-63,4,14,4
58,14,-43,-36,51,-14,-9,-78,-63,4,14,14
43,14,-29,-29,36,-7,-9,-78,-63,9,14,9
29,14,-14,-21,21,0,-4,-73,-63,19,14,9
24,14,-9,-19,17,2,-4,-73,-63,24,14,9
24,4,-19,-14,21,-7,-4,-73,-58,9,9,4
19,4,-14,-12,17,-4,-4,-73,-58,9,9,4
14,4,-9,-9,12,-2,-4,-78,-58,9,9,4
14,0,-14,-7,14,-7,-4,-78,-58,9,9,4
34,0,-34,-17,34,-17,-4,-78,-68,14,9,4
24,4,-19,-14,21,-7,0,-73,-63,14,9,4
19,4,-14,-12,17,-4,0,-73,-63,14,9,4
19,0,-19,-9,19,-9,4,-68,-63,14,9,4
19,4,-14,-12,17,-4,14,-63,-53,14,24,14
9,9,0,-9,4,4,19,-58,-53,19,24,14
9,9,0,-9,4,4,24,-53,-53,19,29,14
9,14,4,-12,2,9,24,-48,-53,19,29,14
24,9,-14,-17,19,-2,14,-48,-48,19,14,14
29,9,-19,-19,24,-4,19,-48,-48,19,14,14
34,9,-24,-21,29,-7,19,-39,-48,19,14,14
34,9,-24,-21,29,-7,19,-34,-48,19,14,14
19,0,-19,-9,19,-9,24,-39,-43,19,14,9
14,-4,-19,-4,17,-12,24,-34,-39,19,14,9
19,-4,-24,-7,21,-14,24,-34,-39,24,19,9
19,-4,-24,-7,21,-14,24,-29,-39,24,19,4
24,-14,-39,-4,31,-26,14,-24,-39,14,19,14
24,-14,-39,-4,31,-26,14,-24,-34,14,19,14
29,-14,-43,-7,36,-29,14,-24,-34,14,19,14
34,-14,-48,-9,41,-31,14,-24,-34,14,19,14
24,-9,-34,-7,29,-21,19,-9,-24,24,19,9
24,-9,-34,-7,29,-21,29,-4,-14,24,24,9
24,-4,-29,-9,26,-17,34,0,-9,34,29,14
24,4,-19,-14,21,-7,39,0,-9,34,34,14
19,-4,-24,-7,21,-14,34,-9,-9,39,24,14
19,-4,-24,-7,21,-14,29,-9,-9,39,24,14
19,-4,-24,-7,21,-14,24,-4,-4,39,24,14
19,-4,-24,-7,21,-14,19,0,0,39,24,14
4,-4,-9,0,7,-7,24,0,-9,39,29,9
0,-4,-4,2,2,-4,24,0,-4,39,29,9
4,0,-4,-2,4,-2,24,0,-4,39,29,9
0,0,0,0,0,0,24,0,-4,39,29,9
-4,-14,-9,9,2,-12,24,-14,-4,39,14,0
-4,-14,-9,9,2,-12,24,-14,-4,39,14,0
-4,-14,-9,9,2,-12,29,-9,-9,39,14,0
0,-14,-14,7,7,-14,29,-4,-9,43,14,0
9,-14,-24,2,17,-19,19,-4,-4,39,4,-4
9,-19,-29,4,19,-24,19,-9,-4,39,9,-4
0,-19,-19,9,9,-19,19,-9,-4,34,9,-4
0,-19,-19,9,9,-19,19,-4,-4,34,9,-4
14,-14,-29,0,21,-21,34,-14,4,43,19,-4
19,-9,-29,-4,24,-19,34,-14,4,48,19,-4
24,-4,-29,-9,26,-17,29,-14,0,48,14,-4
29,0,-29,-14,29,-14,29,-19,0,43,14,-4
29,-4,-34,-12,31,-19,19,-9,0,43,24,4
29,-4,-34,-12,31,-19,24,-9,0,43,24,4
34,-9,-43,-12,39,-26,24,-9,0,43,24,4
34,-9,-43,-12,39,-26,24,-9,0,43,24,4
24,-9,-34,-7,29,-21,24,-19,-14,34,14,-4
19,-9,-29,-4,24,-19,24,-29,-19,29,14,-4
9,-9,-19,0,14,-14,24,-29,-19,19,14,-4
-4,-9,-4,7,0,-7,19,-29,-19,19,14,-4
0,-24,-24,12,12,-24,19,-43,-24,29,14,-4
4,-24,-29,9,17,-26,19,-43,-24,29,14,-4
9,-24,-34,7,21,-29,19,-43,-24,34,14,-4
14,-24,-39,4,26,-31,19,-48,-29,34,14,-4
19,-24,-43,2,31,-34,9,-48,-29,34,14,-4
19,-24,-43,2,31,-34,9,-48,-34,34,14,-4
19,-24,-43,2,31,-34,4,-58,-39,24,14,-4
19,-19,-39,0,29,-29,4,-58,-39,24,14,-4
4,-14,-19,4,12,-17,9,-48,-29,34,19,4
0,-9,-9,4,4,-9,14,-53,-29,34,19,4
4,-4,-9,0,7,-7,14,-58,-39,29,19,4
0,0,0,0,0,0,19,-63,-39,29,9,4
-9,-14,-4,12,-2,-9,9,-68,-53,19,19,4
-9,-19,-9,14,0,-14,9,-73,-53,19,19,4
-9,-29,-19,19,4,-24,9,-78,-53,19,19,4
-9,-34,-24,21,7,-29,0,-87,-58,19,14,4
-9,-29,-19,19,4,-24,0,-92,-58,19,4,-4
-24,-29,-4,26,-9,-17,0,-92,-58,24,9,-4
-14,-29,-14,21,0,-21,0,-97,-58,24,9,-4
-14,-29,-14,21,0,-21,0,-97,-63,19,9,-4
4,-14,-19,4,12,-17,14,-87,-53,29,19,4
9,-4,-14,-2,12,-9,14,-92,-53,29,19,4
19,4,-14,-12,17,-4,9,-97,-58,24,19,4
39,14,-24,-26,31,-4,4,-102,-68,19,14,4
19,19,0,-19,9,9,14,-92,-48,39,34,24
-4,0,4,2,-4,2,4,-102,-58,29,24,24
14,-9,-24,-2,19,-17,-4,-122,-73,19,4,4
24,9,-14,-17,19,-2,-4,-122,-63,29,14,14
-9,0,9,4,-9,4,9,-107,-58,39,29,19
0,-4,-4,2,2,-4,4,-112,-63,34,19,9
0,-9,-9,4,4,-9,0,-117,-68,29,19,9
0,-14,-14,7,7,-14,-4,-122,-73,24,19,9
0,-19,-19,9,9,-19,-9,-126,-78,19,19,9
9,-4,-14,-2,12,-9,-19,-136,-87,19,9,0
9,-4,-14,-2,12,-9,-14,-136,-82,19,9,4
9,-4,-14,-2,12,-9,-14,-136,-82,19,9,4
14,-4,-19,-4,17,-12,-14,-146,-92,19,9,4
24,-14,-39,-4,31,-26,-14,-146,-92,9,9,4
24,-14,-39,-4,31,-26,-14,-141,-87,9,9,4
24,-9,-34,-7,29,-21,-19,-141,-87,9,9,4
24,-9,-34,-7,29,-21,-19,-136,-87,9,9,4
19,-4,-24,-7,21,-14,-4,-126,-92,4,9,4
19,0,-19,-9,19,-9,0,-122,-87,19,24,19
19,9,-9,-14,14,0,9,-117,-82,19,24,19
14,24,9,-19,2,17,14,-117,-78,19,24,24
4,39,34,-21,-14,36,24,-112,-58,34,34,29
0,39,39,-19,-19,39,24,-107,-53,43,39,39
-4,43,48,-19,-26,46,29,-107,-48,48,43,43
-9,48,58,-19,-34,53,29,-107,-39,58,53,48
19,48,29,-34,-4,39,24,-107,-39,48,43,34
29,43,14,-36,7,29,24,-112,-48,43,39,29
39,43,4,-41,17,24,19,-117,-58,39,34,24
48,39,-9,-43,29,14,14,-122,-68,34,29,19
29,39,9,-34,9,24,29,-117,-63,43,43,29
19,39,19,-29,0,29,29,-97,-48,53,48,39
9,39,29,-24,-9,34,24,-92,-43,68,48,43
4,39,34,-21,-14,36,19,-92,-43,63,43,48
4,29,24,-17,-9,26,0,-97,-58,48,39,39
0,29,29,-14,-14,29,-9,-117,-58,43,39,34
0,34,34,-17,-17,34,-24,-136,-73,34,39,29
0,43,43,-21,-21,43,-39,-156,-78,34,39,24
9,63,53,-36,-21,58,-48,-156,-68,34,39,39
19,73,53,-46,-17,63,-58,-165,-68,34,39,39
24,92,68,-58,-21,80,-63,-170,-68,39,43,39
29,112,82,-70,-26,97,-73,-175,-73,39,48,48
43,126,82,-85,-19,104,-82,-190,-82,39,53,43
48,131,82,-90,-17,107,-92,-195,-82,39,53,43
53,136,82,-95,-14,109,-102,-200,-87,39,53,43
63,136,73,-100,-4,104,-107,-200,-87,39,48,48
73,136,63,-104,4,100,-97,-200,-78,48,58,58
68,136,68,-102,0,102,-102,-204,-87,39,58,53
63,131,68,-97,-2,100,-102,-214,-92,39,58,53
53,122,68,-87,-7,95,-102,-219,-92,39,58,58
43,117,73,-80,-14,95,-102,-209,-107,39,68,58
34,97,63,-65,-14,80,-107,-219,-112,34,68,53
24,87,63,-56,-19,75,-112,-219,-117,34,68,53
29,78,48,-53,-9,63,-112,-214,-117,34,68,53
43,73,29,-58,7,51,-122,-219,-117,24,58,48
53,58,4,-56,24,31,-122,-219,-117,24,58,48
63,39,-24,-51,43,7,-122,-219,-126,19,58,43
73,29,-43,-51,58,-7,-122,-219,-126,9,58,43
73,29,-43,-51,58,-7,-131,-219,-131,9,48,43
68,34,-34,-51,51,0,-117,-224,-126,9,48,43
68,34,-34,-51,51,0,-107,-224,-126,9,48,43
58,34,-24,-46,41,4,-102,-224,-122,9,48,43
34,24,-9,-29,21,7,-87,-209,-112,19,53,53
14,14,0,-14,7,7,-78,-209,-112,19,53,43
-9,4,14,2,-12,9,-73,-209,-117,9,39,34
-19,0,19,9,-19,9,-68,-209,-122,9,34,34
-9,-9,0,9,-4,-4,-68,-219,-131,-4,19,24
-9,-14,-4,12,-2,-9,-63,-219,-136,-14,9,4
-9,-34,-24,21,7,-29,-63,-219,-141,-19,-9,-14
-14,-48,-34,31,9,-41,-63,-219,-151,-29,-19,-19
-14,-43,-29,29,7,-36,-63,-209,-141,-29,-9,-9
-9,-43,-34,26,12,-39,-63,-209,-141,-29,-9,-9
-4,-43,-39,24,17,-41,-58,-209,-141,-29,-14,-14
0,-39,-39,19,19,-39,-58,-209,-141,-29,-14,-14
0,-29,-29,14,14,-29,-53,-209,-141,-19,-4,-4
4,-29,-34,12,19,-31,-53,-209,-146,-24,-9,-4
4,-34,-39,14,21,-36,-58,-214,-146,-24,-9,-9
14,-34,-48,9,31,-41,-58,-214,-146,-29,-9,-9
4,-39,-43,17,24,-41,-58,-214,-151,-29,-9,-19
-4,-43,-39,24,17,-41,-48,-214,-151,-29,-9,-14
-9,-48,-39,29,14,-43,-48,-214,-141,-29,-9,-14
-9,-53,-43,31,17,-48,-48,-214,-141,-29,-9,-14
-19,-43,-24,31,2,-34,-48,-204,-131,-19,0,-4
-19,-43,-24,31,2,-34,-48,-204,-131,-19,0,-4
-19,-43,-24,31,2,-34,-39,-204,-131,-14,4,-4
-14,-43,-29,29,7,-36,-39,-204,-131,-14,4,-4
4,-34,-39,14,21,-36,-34,-214,-131,-14,0,-4
-19,-82,-63,51,21,-73,-43,-224,-151,-29,-19,-19
-9,-73,-63,41,26,-68,-48,-224,-151,-39,-19,-19
-9,-53,-43,31,17,-48,-34,-200,-131,-19,-4,-9
-24,-48,-24,36,0,-36,-24,-185,-131,-14,0,-9
-9,-68,-58,39,24,-63,-24,-190,-141,-34,-19,-34
-9,-78,-68,43,29,-73,-9,-170,-141,-53,-43,-48
-29,-92,-63,61,17,-78,14,-112,-126,-53,-63,-68
-29,-97,-68,63,19,-82,63,-39,-92,-63,-73,-87
-19,-107,-87,63,34,-97,92,58,-29,-34,-63,-78
-34,-97,-63,65,14,-80,112,146,68,39,-14,-48
-14,-58,-43,36,14,-51,107,229,195,156,63,4
58,0,-58,-29,58,-29,82,278,341,297,161,82
126,68,-58,-97,92,4,0,244,478,473,297,195
200,141,-58,-170,129,41,-92,185,624,697,473,326
278,239,-39,-258,158,100,-180,97,761,927,653,458
356,380,24,-368,165,202,-317,-53,907,1190,878,639
453,556,102,-505,175,329,-541,-292,1010,1503,1146,873
614,722,107,-668,253,414,-863,-614,1029,1786,1444,1112
795,902,107,-849,344,505,-1200,-961,976,1991,1678,1337
956,1068,112,-1012,422,590,-1507,-1278,878,2137,1883,1522
1088,1234,146,-1161,470,690,-1786,-1556,785,2278,2083,1727
1220,1434,214,-1327,502,824,-2030,-1756,722,2425,2293,1942
1293,1615,322,-1454,485,968,-2205,-1956,610,2483,2435,2098
1244,1732,488,-1488,378,1110,-2352,-2249,361,2376,2474,2191
1166,1781,614,-1473,275,1198,-2532,-2635,-29,2127,2435,2235
1078,1776,697,-1427,190,1237,-2630,-3050,-551,1688,2264,2191
936,1605,668,-1271,134,1137,-2610,-3440,-1215,1005,1917,2000
746,1307,561,-1027,92,934,-2518,-3630,-1800,287,1468,1722
590,1000,409,-795,90,705,-2303,-3425,-2030,-209,1068,1420
453,678,224,-566,114,451,-1927,-2908,-1912,-448,741,1107
322,409,87,-366,117,248,-1542,-2352,-1649,-507,497,839
214,336,122,-275,46,229,-1283,-1917,-1366,-453,380,678
165,346,180,-256,-7,263,-1063,-1546,-1102,-356,346,600
141,322,180,-231,-19,251,-834,-1220,-854,-263,302,502
87,253,165,-170,-39,209,-600,-912,-639,-204,224,375
48,190,141,-119,-46,165,-414,-678,-488,-185,112,239
19,141,122,-80,-51,131,-287,-522,-385,-195,-4,87
-24,78,102,-26,-63,90,-175,-395,-297,-175,-68,-4
-63,39,102,12,-82,70,-92,-273,-200,-112,-53,-19
-39,24,63,7,-51,43,-39,-190,-146,-63,-34,-14
-9,-14,-4,12,-2,-9,19,-126,-117,-58,-34,-34
-34,-48,-14,41,-9,-31,58,-68,-87,-39,-34,-39
-29,-73,-43,51,7,-58,82,-29,-58,-29,-24,-39
-29,-82,-53,56,12,-68,92,-4,-53,-39,-34,-48
-48,-92,-43,70,-2,-68,102,4,-39,-48,-39,-53
-34,-87,-53,61,9,-70,107,4,-39,-48,-58,-68
-48,-102,-53,75,2,-78,117,14,-39,-48,-63,-82
-53,-102,-48,78,-2,-75,122,19,-39,-48,-63,-82
-68,-112,-43,90,-12,-78,136,39,-34,-48,-63,-82
-68,-117,-48,92,-9,-82,136,48,-29,-48,-68,-82
-58,-107,-48,82,-4,-78,146,58,-29,-39,-68,-82
-58,-107,-48,82,-4,-78,156,73,-19,-39,-73,-82
-48,-112,-63,80,7,-87,161,78,-19,-39,-73,-92
-34,-117,-82,75,24,-100,161,82,-19,-34,-78,-97
-48,-117,-68,82,9,-92,175,87,-9,-24,-68,-87
-53,-117,-63,85,4,-90,175,92,-4,-24,-68,-87
-58,-122,-63,90,2,-92,175,92,-4,-24,-68,-87
-53,-122,-68,87,7,-95,175,92,-4,-24,-73,-92
-39,-131,-92,85,26,-112,170,87,-14,-29,-73,-102
-39,-131,-92,85,26,-112,170,92,-9,-34,-73,-102
-39,-131,-92,85,26,-112,170,97,-4,-39,-73,-102
-34,-126,-92,80,29,-109,175,97,-4,-43,-78,-102
-34,-136,-102,85,34,-119,165,102,0,-43,-78,-102
-43,-136,-92,90,24,-114,170,107,4,-34,-73,-102
-63,-141,-78,102,7,-109,175,112,9,-34,-73,-102
-63,-141,-78,102,7,-109,175,126,14,-29,-73,-102
-48,-131,-82,90,17,-107,185,136,24,-14,-68,-92
-48,-131,-82,90,17,-107,190,146,34,-14,-68,-92
-48,-131,-82,90,17,-107,190,156,43,-14,-68,-97
-48,-131,-82,90,17,-107,190,161,53,-14,-78,-97
-53,-131,-78,92,12,-104,200,156,48,-24,-78,-97
-58,-131,-73,95,7,-102,200,156,53,-24,-78,-97
-63,-131,-68,97,2,-100,200,161,53,-24,-78,-97
-68,-131,-63,100,-2,-97,200,165,58,-24,-78,-97
-78,-136,-58,107,-9,-97,195,180,63,-9,-78,-97
-78,-141,-63,109,-7,-102,195,190,68,-9,-78,-97
-78,-146,-68,112,-4,-107,195,200,73,-9,-73,-97
-78,-151,-73,114,-2,-112,195,200,78,-4,-73,-97
-68,-146,-78,107,4,-112,190,200,78,-4,-82,-102
-63,-141,-78,102,7,-109,190,200,82,-4,-78,-102
-63,-136,-73,100,4,-104,195,209,87,0,-78,-102
-63,-136,-73,100,4,-104,195,209,92,0,-87,-102
-82,-136,-53,109,-14,-95,209,229,107,4,-87,-102
-87,-136,-48,112,-19,-92,214,244,112,9,-87,-102
-82,-136,-53,109,-14,-95,219,244,117,14,-92,-102
-87,-131,-43,109,-21,-87,219,248,117,19,-97,-107
-73,-131,-58,102,-7,-95,214,253,112,9,-97,-117
-68,-131,-63,100,-2,-97,214,258,117,14,-97,-117
-58,-131,-73,95,7,-102,214,263,122,14,-97,-117
-53,-131,-78,92,12,-104,209,263,122,14,-102,-117
-53,-131,-78,92,12,-104,229,283,136,4,-102,-122
-58,-131,-73,95,7,-102,229,287,141,9,-102,-122
-58,-141,-82,100,12,-112,234,297,146,9,-102,-122
-63,-141,-78,102,7,-109,234,307,151,9,-102,-126
-82,-146,-63,114,-9,-104,248,302,156,14,-102,-131
-92,-151,-58,122,-17,-104,248,312,161,14,-102,-131
-97,-156,-58,126,-19,-107,253,322,165,14,-107,-136
-107,-156,-48,131,-29,-102,258,331,170,14,-112,-136
-107,-146,-39,126,-34,-92,263,351,170,14,-112,-146
-97,-146,-48,122,-24,-97,278,366,175,14,-107,-146
-87,-151,-63,119,-12,-107,273,370,180,14,-107,-151
-78,-151,-73,114,-2,-112,273,380,180,14,-112,-151
-82,-146,-63,114,-9,-104,278,400,190,24,-107,-146
-82,-141,-58,112,-12,-100,292,414,204,24,-102,-151
-82,-141,-58,112,-12,-100,312,434,219,29,-97,-146
-87,-136,-48,112,-19,-92,322,444,234,29,-92,-141
-78,-151,-73,114,-2,-112,331,458,229,29,-107,-141
-78,-156,-78,117,0,-117,331,468,234,24,-112,-146
-82,-161,-78,122,-2,-119,331,478,244,19,-122,-161
-87,-170,-82,129,-2,-126,331,488,248,9,-131,-165
-102,-170,-68,136,-17,-119,356,502,258,19,-122,-156
-102,-170,-68,136,-17,-119,366,522,263,19,-126,-165
-92,-165,-73,129,-9,-119,366,536,263,19,-131,-170
-87,-165,-78,126,-4,-122,375,551,278,19,-136,-175
-92,-170,-78,131,-7,-124,385,570,283,19,-146,-175
-102,-175,-73,139,-14,-124,395,590,297,19,-151,-175
-122,-180,-58,151,-31,-119,405,610,297,19,-151,-175
-126,-185,-58,156,-34,-122,419,629,312,19,-161,-185
-117,-170,-53,143,-31,-112,439,658,331,29,-151,-195
-107,-161,-53,134,-26,-107,444,678,341,29,-156,-195
-97,-151,-53,124,-21,-102,458,692,351,29,-161,-200
-97,-141,-43,119,-26,-92,468,712,356,29,-175,-204
-97,-146,-48,122,-24,-97,468,717,351,19,-180,-214
-97,-151,-53,124,-21,-102,478,741,361,19,-180,-214
-97,-156,-58,126,-19,-107,488,756,370,14,-190,-219
-107,-161,-53,134,-26,-107,492,775,380,14,-190,-224
-131,-170,-39,151,-46,-104,507,785,380,4,-204,-229
-146,-170,-24,158,-61,-97,522,805,395,4,-209,-239
-151,-175,-24,163,-63,-100,531,819,405,0,-214,-239
-156,-180,-24,168,-65,-102,546,834,405,-4,-219,-244
-146,-175,-29,161,-58,-102,556,839,424,0,-224,-248
-141,-170,-29,156,-56,-100,556,854,414,-14,-239,-263
-141,-161,-19,151,-61,-90,561,858,414,-19,-244,-268
-141,-156,-14,148,-63,-85,566,873,414,-29,-253,-268
-156,-165,-9,161,-73,-87,570,883,424,-29,-253,-278
-165,-165,0,165,-82,-82,585,893,429,-34,-258,-283
-175,-165,9,170,-92,-78,590,902,429,-39,-268,-287
-185,-165,19,175,-102,-73,600,917,429,-53,-273,-287
-175,-175,0,175,-87,-87,590,912,414,-68,-287,-302
-175,-175,0,175,-87,-87,585,902,409,-73,-292,-312
-180,-175,4,178,-92,-85,585,897,409,-78,-312,-322
-180,-170,9,175,-95,-80,580,883,400,-92,-326,-336
-195,-180,14,187,-104,-82,590,883,390,-117,-336,-336
-209,-175,34,192,-122,-70,590,878,390,-122,-336,-336
-224,-170,53,197,-139,-58,590,878,385,-122,-336,-336
-234,-170,63,202,-148,-53,585,868,380,-131,-336,-336
-219,-165,53,192,-136,-56,575,854,380,-136,-336,-331
-219,-161,58,190,-139,-51,570,834,366,-141,-341,-331
-224,-151,73,187,-148,-39,566,824,356,-141,-341,-331
-219,-141,78,180,-148,-31,556,795,346,-141,-346,-326
-204,-146,58,175,-131,-43,531,756,317,-165,-346,-326
-204,-146,58,175,-131,-43,502,717,297,-170,-341,-326
-200,-141,58,170,-129,-41,478,683,287,-170,-341,-322
-200,-136,63,168,-131,-36,458,649,273,-170,-336,-322
-200,-131,68,165,-134,-31,439,610,248,-165,-331,-302
-204,-131,73,168,-139,-29,424,575,224,-165,-317,-292
-209,-126,82,168,-146,-21,395,536,204,-170,-312,-283
-209,-122,87,165,-148,-17,370,488,180,-170,-292,-273
-190,-117,73,153,-131,-21,336,444,151,-180,-297,-263
-185,-112,73,148,-129,-19,312,400,126,-180,-287,-248
-185,-107,78,146,-131,-14,283,351,112,-180,-268,-239
-180,-102,78,141,-129,-12,253,307,92,-175,-258,-234
-165,-87,78,126,-122,-4,229,278,63,-175,-248,-214
-146,-87,58,117,-102,-14,204,234,48,-165,-229,-200
-136,-82,53,109,-95,-14,175,200,29,-156,-214,-190
-126,-82,43,104,-85,-19,151,165,14,-146,-200,-170
-126,-87,39,107,-82,-24,141,131,4,-136,-180,-156
-122,-87,34,104,-78,-26,122,97,-4,-131,-165,-151
-107,-87,19,97,-63,-34,97,68,-19,-122,-151,-136
-102,-87,14,95,-58,-36,82,43,-29,-112,-136,-126
-92,-82,9,87,-51,-36,78,29,-24,-87,-112,-107
-92,-82,9,87,-51,-36,63,9,-34,-78,-97,-92
-82,-78,4,80,-43,-36,43,-19,-39,-73,-82,-87
-73,-73,0,73,-36,-36,34,-29,-43,-63,-68,-78
-73,-58,14,65,-43,-21,24,-34,-43,-43,-58,-58
-73,-58,14,65,-43,-21,14,-48,-48,-39,-53,-53
-63,-58,4,61,-34,-26,9,-63,-48,-34,-43,-48
-63,-53,9,58,-36,-21,0,-73,-53,-29,-39,-43
-58,-53,4,56,-31,-24,-4,-92,-53,-29,-34,-43
-63,-58,4,61,-34,-26,-9,-102,-63,-24,-24,-34
-63,-58,4,61,-34,-26,-9,-112,-63,-19,-19,-29
-63,-58,4,61,-34,-26,-19,-122,-63,-4,-14,-24
-48,-58,-9,53,-19,-34,-39,-136,-78,-9,-14,-34
-43,-53,-9,48,-17,-31,-39,-136,-78,-4,-14,-29
-29,-53,-24,41,-2,-39,-43,-141,-78,-9,-14,-24
-24,-53,-29,39,2,-41,-43,-146,-78,-9,-19,-19
-39,-58,-19,48,-9,-39,-53,-141,-78,-9,-14,-29
-43,-58,-14,51,-14,-36,-53,-141,-78,-9,-14,-24
-43,-58,-14,51,-14,-36,-58,-151,-78,-9,-14,-24
-43,-58,-14,51,-14,-36,-58,-151,-87,-4,-9,-19
-43,-58,-14,51,-14,-36,-48,-156,-78,9,0,-9
-43,-58,-14,51,-14,-36,-48,-156,-78,9,0,-9
-43,-58,-14,51,-14,-36,-53,-161,-78,9,0,-9
-43,-53,-9,48,-17,-31,-53,-161,-78,4,0,-9
-34,-53,-19,43,-7,-36,-53,-161,-78,4,0,-9
-43,-58,-14,51,-14,-36,-53,-161,-78,4,0,-9
-43,-58,-14,51,-14,-36,-48,-161,-73,4,4,-9
-39,-53,-14,46,-12,-34,-48,-161,-73,4,4,-4
-14,-53,-39,34,12,-46,-58,-165,-82,0,-4,-14
-24,-53,-29,39,2,-41,-58,-165,-82,0,-4,-19
-34,-53,-19,43,-7,-36,-53,-161,-82,4,-4,-19
-34,-53,-19,43,-7,-36,-53,-161,-82,4,-4,-19
-34,-43,-9,39,-12,-26,-43,-161,-78,9,0,-4
-39,-43,-4,41,-17,-24,-43,-161,-78,9,0,-4
-43,-43,0,43,-21,-21,-43,-165,-78,9,0,-4
-43,-48,-4,46,-19,-26,-43,-165,-78,9,0,-4
-34,-53,-19,43,-7,-36,-53,-165,-68,14,0,-4
-43,-53,-9,48,-17,-31,-48,-161,-63,14,0,-4
-48,-58,-9,53,-19,-34,-48,-161,-63,14,0,-4
-48,-68,-19,58,-14,-43,-43,-156,-63,14,0,-4
-48,-68,-19,58,-14,-43,-43,-151,-53,4,4,4
-58,-68,-9,63,-24,-39,-39,-146,-53,9,4,4
-58,-73,-14,65,-21,-43,-34,-141,-53,9,9,4
-58,-73,-14,65,-21,-43,-34,-136,-53,9,9,4
-43,-58,-14,51,-14,-36,-34,-136,-58,9,4,-4
-39,-58,-19,48,-9,-39,-29,-136,-58,9,4,-4
-34,-58,-24,46,-4,-41,-29,-126,-58,9,4,-4
-34,-58,-24,46,-4,-41,-29,-122,-58,9,4,-4
-34,-58,-24,46,-4,-41,-34,-117,-53,9,-4,-9
-34,-63,-29,48,-2,-46,-34,-112,-48,9,-4,-9
-24,-63,-39,43,7,-51,-34,-112,-48,14,0,-9
-19,-63,-43,41,12,-53,-34,-107,-48,14,0,-14
-24,-53,-29,39,2,-41,-24,-102,-48,14,9,-4
-34,-53,-19,43,-7,-36,-24,-102,-43,14,9,-4
-39,-53,-14,46,-12,-34,-24,-102,-43,14,9,-4
-43,-53,-9,48,-17,-31,-24,-102,-43,14,9,-4
-53,-58,-4,56,-24,-31,-34,-97,-43,14,4,-9
-53,-68,-14,61,-19,-41,-29,-92,-34,14,4,-9
-53,-73,-19,63,-17,-46,-29,-87,-29,24,4,-4
-53,-73,-19,63,-17,-46,-29,-87,-29,24,4,-4
-43,-63,-19,53,-12,-41,-29,-87,-39,9,-4,-14
-39,-63,-24,51,-7,-43,-29,-87,-39,9,-4,-14
-34,-63,-29,48,-2,-46,-29,-82,-34,9,-4,-14
-29,-63,-34,46,2,-48,-29,-78,-29,9,-4,-14
-14,-73,-58,43,21,-65,-34,-87,-29,9,-9,-29
-9,-73,-63,41,26,-68,-34,-87,-24,9,-9,-29
4,-68,-73,31,39,-70,-34,-87,-24,9,-9,-29
9,-68,-78,29,43,-73,-34,-87,-24,9,-9,-29
-19,-63,-43,41,12,-53,-29,-78,-19,24,-9,-24
-34,-63,-29,48,-2,-46,-24,-73,-14,29,-4,-19
-48,-63,-14,56,-17,-39,-14,-63,-14,34,0,-14
-58,-63,-4,61,-26,-34,-9,-53,-9,43,4,-9
-53,-63,-9,58,-21,-36,-9,-63,-14,43,0,-19
-48,-68,-19,58,-14,-43,-9,-68,-14,39,0,-24
-53,-68,-14,61,-19,-41,-9,-68,-14,29,-4,-29
-48,-68,-19,58,-14,-43,-9,-63,-14,24,-9,-34
-58,-78,-19,68,-19,-48,-14,-73,-9,29,0,-34
-58,-78,-19,68,-19,-48,-14,-73,-14,29,0,-34
-58,-78,-19,68,-19,-48,-19,-73,-24,24,-4,-34
-58,-78,-19,68,-19,-48,-19,-78,-29,14,-4,-34
-68,-73,-4,70,-31,-39,-9,-68,-24,19,4,-29
-68,-73,-4,70,-31,-39,-4,-68,-19,24,4,-24
-63,-78,-14,70,-24,-46,-4,-68,-14,29,4,-19
-63,-78,-14,70,-24,-46,-4,-68,-9,34,4,-14
-53,-73,-19,63,-17,-46,-14,-78,-24,24,-4,-24
-39,-68,-29,53,-4,-48,-14,-87,-29,19,-4,-24
-29,-63,-34,46,2,-48,-14,-87,-29,9,-4,-24
-24,-58,-34,41,4,-46,-19,-87,-29,9,-4,-24
-39,-63,-24,51,-7,-43,-19,-92,-24,19,4,-24
-43,-63,-19,53,-12,-41,-19,-92,-24,19,4,-24
-48,-63,-14,56,-17,-39,-19,-92,-24,24,4,-24
-53,-63,-9,58,-21,-36,-19,-97,-29,24,4,-24
-58,-73,-14,65,-21,-43,-19,-97,-29,24,4,-14
-58,-73,-14,65,-21,-43,-19,-97,-34,24,4,-14
-58,-73,-14,65,-21,-43,-24,-107,-39,14,4,-14
-58,-68,-9,63,-24,-39,-24,-107,-39,14,4,-14
-53,-58,-4,56,-24,-31,-24,-107,-48,14,0,-14
-48,-58,-9,53,-19,-34,-24,-112,-48,14,0,-14
-34,-58,-24,46,-4,-41,-29,-117,-58,9,0,-14
-29,-58,-29,43,0,-43,-29,-122,-58,9,-9,-14
-19,-58,-39,39,9,-48,-39,-131,-63,9,-9,-14
-19,-58,-39,39,9,-48,-39,-131,-63,9,-9,-14
-19,-63,-43,41,12,-53,-39,-131,-63,9,-9,-14
-19,-63,-43,41,12,-53,-48,-136,-68,9,-14,-14
-29,-63,-34,46,2,-48,-39,-131,-68,9,-14,-24
-43,-68,-24,56,-9,-46,-39,-131,-68,14,-9,-24
-34,-73,-39,53,2,-56,-39,-136,-68,14,-9,-24
-34,-78,-43,56,4,-61,-39,-136,-73,9,-9,-24
-34,-73,-39,53,2,-56,-34,-146,-73,9,-19,-24
-39,-73,-34,56,-2,-53,-34,-151,-73,9,-19,-24
-39,-73,-34,56,-2,-53,-39,-156,-78,4,-19,-24
-29,-73,-43,51,7,-58,-43,-161,-87,0,-24,-24
-24,-68,-43,46,9,-56,-43,-151,-87,9,-14,-24
-24,-68,-43,46,9,-56,-43,-151,-87,9,-14,-24
-19,-68,-48,43,14,-58,-43,-161,-92,9,-14,-24
-14,-68,-53,41,19,-61,-43,-161,-92,9,-14,-24
-4,-58,-53,31,24,-56,-48,-161,-87,4,-14,-14
-4,-63,-58,34,26,-61,-48,-161,-87,4,-14,-14
0,-63,-63,31,31,-63,-53,-161,-92,0,-14,-19
0,-63,-63,31,31,-63,-53,-165,-92,-9,-14,-19
-19,-53,-34,36,7,-43,-43,-165,-97,-9,-24,-29
-24,-53,-29,39,2,-41,-43,-170,-97,-9,-24,-29
-39,-53,-14,46,-12,-34,-43,-170,-92,-4,-24,-29
-43,-53,-9,48,-17,-31,-43,-170,-92,-4,-24,-29
-39,-53,-14,46,-12,-34,-34,-170,-82,-4,-14,-19
-34,-53,-19,43,-7,-36,-39,-170,-92,-9,-14,-19
-34,-53,-19,43,-7,-36,-39,-170,-92,-9,-14,-19
-39,-53,-14,46,-12,-34,-39,-170,-87,-9,-14,-19
-39,-63,-24,51,-7,-43,-48,-175,-97,-9,-4,-19
-34,-63,-29,48,-2,-46,-48,-175,-97,-4,-4,-19
-34,-63,-29,48,-2,-46,-48,-170,-97,-4,-4,-14
-39,-63,-24,51,-7,-43,-48,-170,-97,-4,0,-9
0,-53,-53,26,26,-53,-53,-180,-112,-14,-19,-19
9,-53,-63,21,36,-58,-53,-175,-112,-14,-19,-19
-4,-48,-43,26,19,-46,-53,-175,-102,-14,-19,-9
-34,-58,-24,46,-4,-41,-48,-175,-102,-19,-9,-9
-48,-48,0,48,-24,-24,-48,-175,-107,-19,-19,-19
-48,-48,0,48,-24,-24,-48,-175,-107,-9,-19,-9
-48,-48,0,48,-24,-24,-48,-175,-107,-9,-19,-9
-48,-48,0,48,-24,-24,-48,-175,-107,-9,-19,-9
-48,-48,0,48,-24,-24,-48,-175,-107,-9,-19,-9
-39,-58,-19,48,-9,-39,-53,-185,-117,-19,-19,-19
-39,-63,-24,51,-7,-43,-53,-185,-112,-19,-19,-14
-39,-68,-29,53,-4,-48,-58,-185,-112,-19,-19,-14
-34,-73,-39,53,2,-56,-63,-195,-122,-19,-19,-14
-24,-68,-43,46,9,-56,-53,-195,-112,-9,-9,-4
-24,-63,-39,43,7,-51,-53,-190,-107,-9,-9,-4
-24,-53,-29,39,2,-41,-58,-190,-107,-9,-9,-4
-24,-48,-24,36,0,-36,-58,-185,-107,-9,-9,-4
-34,-43,-9,39,-12,-26,-53,-175,-112,-4,-9,-4
-29,-39,-9,34,-9,-24,-48,-170,-107,9,4,9
-24,-29,-4,26,-9,-17,-39,-165,-102,9,4,9
-24,-14,9,19,-17,-2,-34,-165,-97,9,4,14
-19,0,19,9,-19,9,-24,-161,-87,19,9,14
-19,0,19,9,-19,9,-24,-156,-82,24,9,19
-19,4,24,7,-21,14,-19,-156,-78,24,9,19
-19,9,29,4,-24,19,-19,-156,-68,29,14,19
-19,4,24,7,-21,14,-19,-141,-68,24,19,19
-19,4,24,7,-21,14,-14,-141,-68,24,19,19
-19,9,29,4,-24,19,-14,-141,-68,24,19,19
-19,9,29,4,-24,19,-14,-141,-68,24,19,19
-9,9,19,0,-14,14,-19,-151,-78,19,14,14
-9,9,19,0,-14,14,-19,-136,-68,24,19,19
-9,9,19,0,-14,14,-24,-136,-68,34,19,19
-4,9,14,-2,-9,12,-29,-141,-73,24,14,19
-14,0,14,7,-14,7,-48,-151,-78,29,9,4
-19,0,19,9,-19,9,-58,-165,-78,24,9,4
-19,4,24,7,-21,14,-73,-180,-92,14,9,4
-19,14,34,2,-26,24,-87,-195,-97,14,9,4
-9,19,29,-4,-19,24,-97,-204,-97,14,19,19
0,24,24,-12,-12,24,-107,-214,-97,14,19,19
4,39,34,-21,-14,36,-112,-219,-97,19,24,19
9,53,43,-31,-17,48,-122,-224,-102,19,29,29
-4,68,73,-31,-39,70,-122,-219,-92,19,43,43
-9,73,82,-31,-46,78,-131,-224,-92,19,43,43
-14,78,92,-31,-53,85,-141,-229,-97,19,43,43
-14,78,92,-31,-53,85,-146,-229,-97,19,39,48
4,87,82,-46,-39,85,-146,-229,-97,19,29,39
9,87,78,-48,-34,82,-151,-234,-107,9,29,34
14,82,68,-48,-26,75,-151,-244,-112,9,29,34
14,73,58,-43,-21,65,-151,-248,-112,9,29,39
4,63,58,-34,-26,61,-151,-248,-117,9,29,29
4,48,43,-26,-19,46,-156,-258,-122,4,29,24
4,43,39,-24,-17,41,-161,-258,-126,4,29,24
19,39,19,-29,0,29,-161,-253,-126,4,29,24
14,29,14,-21,0,21,-151,-239,-126,4,29,34
14,9,-4,-12,9,2,-151,-239,-126,4,29,39
14,-14,-29,0,21,-21,-151,-239,-136,0,29,39
14,-29,-43,7,29,-36,-151,-239,-136,-9,29,43
14,-19,-34,2,24,-26,-151,-234,-131,0,29,43
9,-14,-24,2,17,-19,-136,-234,-126,0,29,43
9,-14,-24,2,17,-19,-126,-229,-126,0,29,43
0,-14,-14,7,7,-14,-122,-224,-122,0,29,43
0,-14,-14,7,7,-14,-117,-229,-122,-9,24,34
-4,-24,-19,14,7,-21,-107,-229,-122,-9,24,24
-14,-34,-19,24,2,-26,-102,-229,-126,-19,9,14
-9,-39,-29,24,9,-34,-97,-229,-131,-19,4,14
-24,-39,-14,31,-4,-26,-87,-229,-131,-24,0,9
-29,-43,-14,36,-7,-29,-82,-229,-136,-34,-9,-4
-34,-63,-29,48,-2,-46,-82,-229,-141,-39,-29,-19
-43,-78,-34,61,-4,-56,-82,-229,-151,-48,-39,-19
-63,-87,-24,75,-19,-56,-82,-229,-151,-48,-29,-19
-68,-92,-24,80,-21,-58,-82,-229,-151,-48,-29,-19
-73,-97,-24,85,-24,-61,-78,-229,-151,-48,-34,-24
-78,-97,-19,87,-29,-58,-78,-229,-151,-48,-34,-24
-63,-97,-34,80,-14,-65,-92,-239,-161,-48,-43,-34
-53,-97,-43,75,-4,-70,-92,-239,-165,-53,-48,-34
-48,-102,-53,75,2,-78,-97,-244,-165,-53,-48,-39
-34,-102,-68,68,17,-85,-97,-244,-165,-58,-48,-39
-34,-92,-58,63,12,-75,-87,-239,-161,-58,-39,-29
-43,-92,-48,68,2,-70,-78,-234,-161,-58,-39,-24
-48,-92,-43,70,-2,-68,-78,-229,-151,-58,-39,-24
-48,-92,-43,70,-2,-68,-78,-224,-151,-58,-39,-24
-58,-102,-43,80,-7,-73,-87,-234,-161,-68,-39,-34
-58,-102,-43,80,-7,-73,-87,-234,-161,-68,-39,-34
-58,-102,-43,80,-7,-73,-78,-234,-161,-63,-34,-34
-53,-102,-48,78,-2,-75,-78,-234,-161,-63,-34,-34
-24,-102,-78,63,26,-90,-82,-244,-151,-63,-39,-34
-19,-112,-92,65,36,-102,-82,-244,-161,-68,-48,-48
-19,-102,-82,61,31,-92,-78,-234,-151,-68,-48,-39
-39,-92,-53,65,7,-73,-63,-219,-151,-58,-43,-29
-82,-97,-14,90,-34,-56,-53,-214,-151,-53,-39,-29
-97,-117,-19,107,-39,-68,-34,-190,-141,-53,-39,-34
-87,-126,-39,107,-24,-82,-9,-141,-131,-63,-53,-48
-87,-131,-43,109,-21,-87,24,-73,-107,-73,-73,-58
-78,-146,-68,112,-4,-107,63,9,-63,-63,-82,-78
-58,-146,-87,102,14,-117,82,97,0,-24,-63,-68
-34,-126,-92,80,29,-109,82,165,107,48,-24,-39
-14,-87,-73,51,29,-80,58,229,234,165,53,14
29,-29,-58,0,43,-43,14,229,380,326,170,102
126,58,-68,-92,97,-4,-58,195,527,531,326,224
229,141,-87,-185,158,26,-151,136,673,746,502,356
297,258,-39,-278,168,109,-268,39,819,985,692,507
395,409,14,-402,190,212,-453,-151,946,1268,927,688
551,595,43,-573,253,319,-736,-409,1039,1571,1215,941
702,771,68,-736,317,419,-1078,-722,1049,1844,1503,1180
844,912,68,-878,387,490,-1405,-1058,976,2010,1708,1376
1015,1068,53,-1041,480,561,-1703,-1366,868,2127,1883,1551
1166,1263,97,-1215,534,680,-1971,-1615,785,2278,2083,1766
1239,1454,214,-1346,512,834,-2176,-1795,722,2415,2293,1971
1254,1615,361,-1434,446,988,-2332,-2025,561,2415,2405,2108
1224,1732,507,-1478,358,1119,-2508,-2357,253,2259,2415,2181
1166,1761,595,-1464,285,1178,-2679,-2762,-195,1952,2337,2196
1010,1659,649,-1334,180,1154,-2747,-3206,-785,1415,2088,2093
829,1400,570,-1115,129,985,-2698,-3586,-1459,692,1683,1854
688,1093,405,-890,141,749,-2557,-3650,-1927,43,1254,1556
580,785,204,-683,187,495,-2264,-3289,-2010,-326,893,1254
444,483,39,-463,202,261,-1859,-2732,-1815,-478,614,980
292,331,39,-312,126,185,-1493,-2215,-1532,-478,448,780
224,346,122,-285,51,234,-1234,-1781,-1229,-366,409,688
185,356,170,-270,7,263,-1015,-1420,-976,-268,366,600
122,283,161,-202,-19,222,-795,-1102,-756,-214,283,483
68,185,117,-126,-24,151,-590,-824,-570,-195,175,326
29,102,73,-65,-21,87,-414,-629,-439,-195,43,161
-39,43,82,-2,-61,63,-268,-483,-346,-204,-73,19
-82,0,82,41,-82,41,-165,-366,-258,-175,-97,-24
-63,-29,34,46,-48,2,-102,-273,-200,-122,-73,-29
-48,-53,-4,51,-21,-29,-58,-200,-156,-102,-73,-43
-68,-92,-24,80,-21,-58,-9,-126,-126,-87,-73,-53
-63,-117,-53,90,-4,-85,29,-58,-97,-68,-63,-58
-58,-141,-82,100,12,-112,53,-29,-78,-58,-63,-58
-68,-141,-73,104,2,-107,63,-24,-63,-68,-73,-58
-78,-141,-63,109,-7,-102,82,-4,-48,-58,-68,-63
-82,-146,-63,114,-9,-104,107,4,-29,-58,-78,-68
-87,-141,-53,114,-17,-97,97,-4,-34,-68,-92,-78
-92,-141,-48,117,-21,-95,102,0,-39,-68,-92,-82
-107,-151,-43,129,-31,-97,117,19,-39,-68,-92,-87
-107,-156,-48,131,-29,-102,117,29,-39,-68,-97,-92
-107,-156,-48,131,-29,-102,117,39,-39,-68,-97,-92
-117,-156,-39,136,-39,-97,126,53,-29,-68,-102,-92
-117,-161,-43,139,-36,-102,131,58,-29,-68,-102,-102
-112,-165,-53,139,-29,-109,131,63,-29,-63,-107,-107
-102,-165,-63,134,-19,-114,146,68,-19,-53,-107,-107
-102,-165,-63,134,-19,-114,146,73,-14,-53,-107,-107
-102,-170,-68,136,-17,-119,146,73,-14,-53,-107,-107
-92,-170,-78,131,-7,-124,146,73,-14,-53,-112,-112
-87,-170,-82,129,-2,-126,151,78,-14,-53,-112,-102
-87,-170,-82,129,-2,-126,151,82,-9,-53,-112,-102
-87,-170,-82,129,-2,-126,151,87,-4,-53,-112,-102
-82,-165,-82,124,0,-124,156,87,-4,-53,-117,-102
-78,-165,-87,122,4,-126,146,82,-9,-58,-126,-112
-82,-165,-82,124,0,-124,151,87,-4,-53,-122,-112
-97,-170,-73,134,-12,-122,156,92,0,-58,-122,-112
-92,-170,-78,131,-7,-124,156,107,4,-58,-122,-112
-82,-170,-87,126,2,-129,156,122,19,-43,-107,-112
-87,-170,-82,129,-2,-126,161,126,24,-43,-107,-112
-92,-170,-78,131,-7,-124,161,131,29,-43,-107,-117
-97,-170,-73,134,-12,-122,161,131,34,-43,-117,-117
-97,-170,-73,134,-12,-122,161,136,39,-43,-126,-117
-97,-170,-73,134,-12,-122,161,136,43,-43,-126,-117
-97,-170,-73,134,-12,-122,161,141,43,-43,-126,-117
-97,-170,-73,134,-12,-122,161,146,48,-43,-126,-117
-107,-170,-63,139,-21,-117,165,151,53,-39,-126,-117
-107,-170,-63,139,-21,-117,165,161,58,-39,-126,-117
-107,-170,-63,139,-21,-117,165,170,63,-39,-122,-117
-107,-170,-63,139,-21,-117,165,170,68,-34,-122,-117
-102,-180,-78,141,-12,-129,161,180,68,-24,-122,-122
-102,-180,-78,141,-12,-129,161,180,73,-24,-117,-122
-107,-180,-73,143,-17,-126,165,190,78,-19,-117,-122
-112,-185,-73,148,-19,-129,165,190,82,-19,-126,-122
-122,-175,-53,148,-34,-114,170,200,87,-19,-117,-131
-117,-175,-58,146,-29,-117,175,214,92,-19,-117,-131
-102,-175,-73,139,-14,-124,180,214,97,-19,-122,-131
-97,-170,-73,134,-12,-122,180,219,97,-19,-126,-136
-82,-170,-87,126,2,-129,180,219,92,-29,-131,-126
-78,-170,-92,124,7,-131,185,229,97,-24,-136,-126
-68,-170,-102,119,17,-136,190,239,102,-24,-141,-126
-63,-170,-107,117,21,-139,190,244,102,-24,-151,-126
-78,-170,-92,124,7,-131,200,253,107,-24,-151,-141
-87,-170,-82,129,-2,-126,200,258,112,-19,-151,-141
-92,-180,-87,136,-2,-134,204,268,117,-19,-151,-141
-102,-180,-78,141,-12,-129,204,278,122,-19,-151,-146
-117,-180,-63,148,-26,-122,219,287,131,-4,-141,-141
-122,-180,-58,151,-31,-119,219,302,141,-4,-141,-141
-122,-180,-58,151,-31,-119,224,317,151,-4,-146,-146
-126,-175,-48,151,-39,-112,229,331,161,-4,-151,-146
-136,-175,-39,156,-48,-107,239,341,170,-4,-151,-146
-136,-175,-39,156,-48,-107,258,356,175,-4,-146,-146
-136,-180,-43,158,-46,-112,258,361,180,-4,-146,-151
-136,-180,-43,158,-46,-112,263,370,180,-4,-151,-151
-122,-190,-68,156,-26,-129,253,375,180,-14,-156,-161
-112,-190,-78,151,-17,-134,263,385,185,-14,-161,-170
-102,-195,-92,148,-4,-143,278,400,190,-9,-165,-170
-97,-195,-97,146,0,-146,283,405,195,-9,-170,-170
-102,-185,-82,143,-9,-134,297,434,209,4,-161,-165
-107,-185,-78,146,-14,-131,302,448,214,4,-161,-165
-117,-185,-68,151,-24,-126,307,463,224,4,-165,-175
-126,-190,-63,158,-31,-126,312,478,229,0,-170,-175
-122,-190,-68,156,-26,-129,336,492,239,0,-170,-165
-122,-190,-68,156,-26,-129,346,512,244,0,-175,-175
-112,-185,-73,148,-19,-129,346,527,244,0,-180,-180
-107,-185,-78,146,-14,-131,356,541,258,0,-185,-185
-102,-175,-73,139,-14,-124,356,561,263,-9,-185,-185
-102,-175,-73,139,-14,-124,366,580,278,-9,-190,-185
-112,-175,-63,143,-24,-119,375,600,278,-9,-190,-185
-107,-175,-68,141,-19,-122,390,619,292,-9,-200,-195
-117,-190,-73,153,-21,-131,409,639,302,-9,-200,-204
-126,-190,-63,158,-31,-126,414,658,312,-9,-204,-204
-136,-190,-53,163,-41,-122,429,673,322,-9,-209,-209
-156,-190,-34,173,-61,-112,439,692,326,-9,-224,-214
-156,-190,-34,173,-61,-112,448,697,322,-19,-239,-224
-156,-190,-34,173,-61,-112,458,722,331,-19,-239,-224
-156,-190,-34,173,-61,-112,468,736,341,-24,-248,-229
-165,-190,-24,178,-70,-107,473,756,351,-24,-248,-234
-170,-190,-19,180,-75,-104,497,785,361,-14,-248,-229
-175,-190,-14,183,-80,-102,512,805,375,-14,-248,-239
-170,-195,-24,183,-73,-109,522,819,385,-19,-248,-239
-165,-200,-34,183,-65,-117,536,834,385,-24,-248,-244
-170,-190,-19,180,-75,-104,546,839,395,-19,-263,-248
-170,-190,-19,180,-75,-104,546,854,385,-34,-278,-263
-175,-185,-9,180,-82,-97,551,858,385,-39,-283,-268
-180,-185,-4,183,-87,-95,556,873,385,-48,-292,-268
-204,-195,9,200,-107,-92,551,878,395,-58,-302,-273
-214,-195,19,204,-117,-87,566,883,400,-63,-307,-283
-224,-195,29,209,-126,-82,570,888,400,-68,-317,-292
-234,-195,39,214,-136,-78,580,897,400,-82,-322,-297
-224,-195,29,209,-126,-82,580,897,385,-87,-341,-307
-224,-195,29,209,-126,-82,575,893,380,-92,-341,-312
-229,-195,34,212,-131,-80,575,893,380,-97,-356,-317
-229,-190,39,209,-134,-75,570,883,370,-112,-366,-326
-224,-185,39,204,-131,-73,575,883,366,-117,-370,-326
-229,-175,53,202,-141,-61,580,878,370,-122,-366,-326
-234,-165,68,200,-151,-48,585,878,370,-122,-361,-326
-234,-161,73,197,-153,-43,585,868,370,-131,-356,-326
-229,-161,68,195,-148,-46,570,849,351,-151,-375,-331
-229,-161,68,195,-148,-46,561,824,336,-161,-380,-331
-234,-156,78,195,-156,-39,551,810,326,-165,-380,-331
-229,-151,78,190,-153,-36,536,775,317,-170,-385,-326
-224,-146,78,185,-151,-34,512,756,297,-185,-385,-326
-224,-146,78,185,-151,-34,483,717,278,-190,-380,-326
-219,-141,78,180,-148,-31,458,683,268,-190,-380,-322
-219,-136,82,178,-151,-26,439,649,253,-190,-375,-322
-209,-141,68,175,-139,-36,409,600,219,-204,-375,-312
-204,-141,63,173,-134,-39,395,566,195,-204,-366,-302
-200,-136,63,168,-131,-36,366,527,175,-209,-366,-292
-190,-131,58,161,-124,-36,341,478,151,-209,-351,-283
-180,-126,53,153,-117,-36,326,439,141,-200,-341,-263
-185,-122,63,153,-124,-29,302,400,117,-200,-326,-248
-195,-117,78,156,-136,-19,273,356,102,-200,-302,-239
-200,-112,87,156,-143,-12,244,317,82,-195,-287,-234
-180,-107,73,143,-126,-17,219,268,63,-190,-287,-224
-165,-107,58,136,-112,-24,195,224,48,-175,-268,-209
-161,-102,58,131,-109,-21,165,190,29,-161,-253,-200
-156,-102,53,129,-104,-24,141,156,14,-146,-239,-180
-151,-102,48,126,-100,-26,112,122,4,-141,-224,-165
-141,-97,43,119,-92,-26,92,87,-4,-141,-204,-161
-122,-92,29,107,-75,-31,68,58,-19,-136,-185,-146
-112,-87,24,100,-68,-31,53,34,-29,-131,-165,-136
-97,-73,24,85,-61,-24,39,19,-34,-112,-161,-117
-92,-73,19,82,-56,-26,24,0,-43,-97,-146,-102
-78,-68,9,73,-43,-29,4,-29,-48,-87,-131,-97
-63,-63,0,63,-31,-31,-4,-39,-53,-73,-117,-87
-73,-68,4,70,-39,-31,-14,-63,-53,-73,-107,-78
-73,-68,4,70,-39,-31,-24,-78,-58,-68,-102,-73
-63,-68,-4,65,-29,-36,-29,-92,-58,-63,-92,-68
-63,-63,0,63,-31,-31,-39,-102,-63,-58,-87,-63
-53,-58,-4,56,-24,-31,-43,-112,-73,-48,-82,-53
-53,-58,-4,56,-24,-31,-48,-122,-82,-43,-73,-43
-48,-53,-4,51,-21,-29,-48,-131,-82,-39,-68,-39
-43,-48,-4,46,-19,-26,-58,-141,-82,-24,-63,-34
-43,-48,-4,46,-19,-26,-68,-146,-78,-34,-58,-43
-43,-43,0,43,-21,-21,-68,-146,-78,-24,-53,-39
-34,-43,-9,39,-12,-26,-73,-151,-78,-24,-48,-34
-34,-43,-9,39,-12,-26,-73,-156,-78,-19,-48,-29
-39,-58,-19,48,-9,-39,-73,-161,-87,-19,-53,-29
-43,-58,-14,51,-14,-36,-73,-161,-87,-19,-53,-24
-43,-58,-14,51,-14,-36,-78,-170,-87,-19,-53,-24
-43,-58,-14,51,-14,-36,-78,-170,-97,-14,-48,-19
-34,-58,-24,46,-4,-41,-87,-175,-87,-19,-48,-29
-34,-58,-24,46,-4,-41,-87,-175,-87,-19,-48,-29
-34,-58,-24,46,-4,-41,-92,-180,-87,-19,-48,-29
-34,-53,-19,43,-7,-36,-92,-180,-87,-24,-48,-29
-34,-63,-29,48,-2,-46,-92,-180,-87,-14,-48,-29
-43,-68,-24,56,-9,-46,-92,-180,-87,-14,-48,-29
-43,-68,-24,56,-9,-46,-87,-180,-82,-14,-43,-29
-39,-63,-24,51,-7,-43,-87,-180,-82,-14,-43,-24
-34,-53,-19,43,-7,-36,-97,-185,-92,-29,-43,-24
-43,-53,-9,48,-17,-31,-97,-185,-92,-29,-43,-29
-53,-53,0,53,-26,-26,-92,-180,-92,-24,-43,-29
-53,-53,0,53,-26,-26,-92,-180,-92,-24,-43,-29
-43,-43,0,43,-21,-21,-92,-190,-97,-29,-48,-34
-39,-43,-4,41,-17,-24,-92,-190,-97,-29,-48,-34
-34,-43,-9,39,-12,-26,-92,-195,-97,-29,-48,-34
-24,-48,-24,36,0,-36,-92,-195,-97,-29,-48,-34
-24,-39,-14,31,-4,-26,-82,-190,-87,-14,-39,-24
-34,-34,0,34,-17,-17,-78,-180,-82,-14,-39,-24
-39,-34,4,36,-21,-14,-78,-175,-82,-14,-39,-24
-39,-39,0,39,-19,-19,-73,-165,-82,-14,-39,-24
-29,-48,-19,39,-4,-34,-82,-170,-73,-14,-34,-14
-39,-48,-9,43,-14,-29,-78,-165,-73,-9,-34,-14
-39,-53,-14,46,-12,-34,-73,-161,-73,-9,-29,-14
-39,-53,-14,46,-12,-34,-73,-156,-73,-9,-29,-14
-29,-48,-19,39,-4,-34,-73,-156,-68,-19,-43,-24
-29,-48,-19,39,-4,-34,-68,-156,-68,-19,-43,-24
-29,-48,-19,39,-4,-34,-68,-146,-68,-19,-43,-24
-34,-48,-14,41,-9,-31,-68,-141,-68,-19,-43,-24
-43,-48,-4,46,-19,-26,-63,-136,-63,-19,-43,-19
-43,-53,-9,48,-17,-31,-63,-131,-58,-19,-43,-19
-34,-53,-19,43,-7,-36,-63,-131,-58,-14,-39,-19
-29,-53,-24,41,-2,-39,-63,-126,-58,-14,-39,-24
-39,-53,-14,46,-12,-34,-63,-122,-58,-24,-39,-24
-43,-53,-9,48,-17,-31,-63,-122,-53,-24,-39,-24
-43,-53,-9,48,-17,-31,-63,-122,-53,-24,-39,-24
-43,-53,-9,48,-17,-31,-63,-122,-53,-24,-39,-24
-34,-53,-19,43,-7,-36,-63,-126,-53,-24,-43,-29
-34,-58,-24,46,-4,-41,-58,-122,-43,-24,-43,-29
-34,-58,-24,46,-4,-41,-58,-117,-39,-14,-43,-24
-34,-53,-19,43,-7,-36,-58,-117,-39,-14,-43,-24
-34,-53,-19,43,-7,-36,-58,-117,-39,-19,-53,-34
-29,-53,-24,41,-2,-39,-58,-117,-39,-19,-53,-34
-24,-53,-29,39,2,-41,-58,-112,-34,-19,-53,-34
-19,-53,-34,36,7,-43,-58,-107,-29,-19,-53,-34
-34,-63,-29,48,-2,-46,-58,-97,-29,-9,-48,-29
-39,-63,-24,51,-7,-43,-53,-97,-24,-9,-48,-29
-34,-58,-24,46,-4,-41,-48,-97,-24,-9,-48,-29
-39,-58,-19,48,-9,-39,-43,-97,-24,-9,-48,-29
-39,-53,-14,46,-12,-34,-53,-102,-14,-9,-53,-39
-34,-53,-19,43,-7,-36,-53,-102,-14,-9,-53,-39
-29,-53,-24,41,-2,-39,-48,-97,-19,-9,-53,-39
-19,-53,-34,36,7,-43,-48,-92,-19,-4,-53,-39
-24,-43,-19,34,-2,-31,-48,-82,-14,9,-43,-24
-29,-48,-19,39,-4,-34,-48,-87,-14,9,-39,-24
-43,-48,-4,46,-19,-26,-48,-87,-14,4,-39,-24
-48,-48,0,48,-24,-24,-48,-82,-14,4,-39,-24
-43,-58,-14,51,-14,-36,-53,-97,-9,0,-39,-29
-39,-58,-19,48,-9,-39,-53,-102,-14,0,-39,-34
-34,-58,-24,46,-4,-41,-58,-107,-24,-4,-43,-39
-29,-58,-29,43,0,-43,-58,-117,-29,-14,-43,-43
-39,-53,-14,46,-12,-34,-58,-107,-19,-4,-43,-43
-39,-53,-14,46,-12,-34,-53,-107,-19,-4,-43,-43
-34,-58,-24,46,-4,-41,-53,-107,-19,-4,-43,-43
-34,-58,-24,46,-4,-41,-53,-107,-19,-4,-43,-43
-43,-48,-4,46,-19,-26,-53,-107,-24,4,-43,-43
-39,-48,-9,43,-14,-29,-53,-117,-29,0,-43,-43
-39,-48,-9,43,-14,-29,-53,-117,-29,-9,-43,-43
-43,-48,-4,46,-19,-26,-58,-117,-29,-9,-43,-43
-48,-53,-4,51,-21,-29,-48,-112,-24,-9,-34,-34
-53,-53,0,53,-26,-26,-48,-112,-24,-9,-34,-34
-58,-53,4,56,-31,-24,-48,-112,-24,-4,-34,-34
-63,-53,9,58,-36,-21,-48,-117,-29,-4,-34,-34
-53,-53,0,53,-26,-26,-58,-126,-39,-14,-34,-34
-48,-53,-4,51,-21,-29,-58,-126,-43,-14,-34,-34
-43,-53,-9,48,-17,-31,-63,-136,-48,-24,-34,-34
-39,-48,-9,43,-14,-29,-63,-136,-48,-24,-34,-34
-39,-58,-19,48,-9,-39,-63,-136,-58,-24,-34,-43
-39,-58,-19,48,-9,-39,-63,-141,-58,-24,-39,-43
-29,-58,-29,43,0,-43,-68,-146,-68,-29,-43,-43
-29,-58,-29,43,0,-43,-68,-151,-68,-29,-58,-43
-39,-58,-19,48,-9,-39,-68,-161,-73,-39,-48,-34
-39,-58,-19,48,-9,-39,-68,-161,-73,-39,-48,-34
-39,-63,-24,51,-7,-43,-68,-161,-73,-39,-48,-34
-39,-63,-24,51,-7,-43,-78,-165,-78,-39,-53,-34
-29,-53,-24,41,-2,-39,-78,-161,-68,-29,-43,-24
-43,-48,-4,46,-19,-26,-78,-161,-68,-24,-39,-24
-34,-43,-9,39,-12,-26,-78,-165,-68,-24,-39,-24
-34,-39,-4,36,-14,-21,-78,-165,-73,-29,-39,-24
-43,-53,-9,48,-17,-31,-73,-165,-82,-39,-48,-34
-48,-53,-4,51,-21,-29,-73,-170,-82,-39,-48,-34
-48,-53,-4,51,-21,-29,-78,-175,-87,-43,-48,-34
-39,-53,-14,46,-12,-34,-82,-180,-97,-48,-53,-34
-29,-58,-29,43,0,-43,-92,-190,-97,-48,-63,-43
-24,-58,-34,41,4,-46,-92,-190,-97,-48,-63,-43
-14,-58,-43,36,14,-51,-92,-200,-102,-48,-63,-43
-4,-58,-53,31,24,-56,-92,-200,-102,-48,-63,-43
-9,-53,-43,31,17,-48,-78,-190,-97,-43,-53,-39
-14,-53,-39,34,12,-46,-78,-190,-97,-43,-53,-34
-14,-48,-34,31,9,-41,-82,-190,-102,-48,-53,-34
-19,-43,-24,31,2,-34,-82,-195,-102,-58,-53,-29
-29,-53,-24,41,-2,-39,-82,-195,-97,-48,-43,-19
-34,-53,-19,43,-7,-36,-82,-200,-97,-48,-43,-19
-48,-53,-4,51,-21,-29,-82,-200,-92,-43,-43,-19
-53,-53,0,53,-26,-26,-82,-200,-92,-43,-43,-19
-39,-43,-4,41,-17,-24,-82,-200,-92,-43,-43,-29
-34,-43,-9,39,-12,-26,-87,-200,-102,-48,-43,-29
-34,-43,-9,39,-12,-26,-87,-200,-102,-48,-43,-29
-39,-43,-4,41,-17,-24,-87,-200,-97,-48,-43,-29
-29,-43,-14,36,-7,-29,-87,-204,-107,-48,-53,-29
-24,-43,-19,34,-2,-31,-87,-204,-107,-43,-53,-29
-24,-43,-19,34,-2,-31,-87,-200,-107,-43,-53,-24
-29,-43,-14,36,-7,-29,-87,-200,-107,-43,-48,-19
-34,-53,-19,43,-7,-36,-92,-209,-112,-43,-48,-29
-39,-43,-4,41,-17,-24,-92,-214,-112,-43,-48,-29
-39,-39,0,39,-19,-19,-92,-214,-112,-43,-48,-29
-43,-39,4,41,-24,-17,-97,-214,-112,-48,-48,-29
-39,-43,-4,41,-17,-24,-107,-224,-126,-58,-58,-39
-24,-48,-24,36,0,-36,-107,-229,-131,-58,-58,-39
-19,-53,-34,36,7,-43,-112,-234,-131,-58,-58,-39
-19,-58,-39,39,9,-48,-117,-234,-131,-58,-58,-39
-9,-48,-39,29,14,-43,-117,-234,-131,-58,-58,-39
0,-48,-48,24,24,-48,-117,-234,-126,-58,-58,-39
-4,-43,-39,24,17,-41,-112,-224,-117,-48,-48,-29
-9,-39,-29,24,9,-34,-107,-224,-117,-48,-48,-29
-14,-34,-19,24,2,-26,-102,-224,-117,-48,-48,-29
-19,-29,-9,24,-4,-19,-97,-224,-117,-48,-48,-29
-29,-34,-4,31,-12,-19,-107,-224,-117,-48,-48,-29
-29,-34,-4,31,-12,-19,-102,-224,-112,-48,-48,-24
-29,-34,-4,31,-12,-19,-102,-224,-112,-48,-48,-24
-24,-34,-9,29,-7,-21,-102,-234,-122,-48,-48,-24
-34,-24,9,29,-21,-7,-92,-224,-112,-39,-48,-14
-34,-24,9,29,-21,-7,-92,-219,-107,-39,-48,-14
-34,-19,14,26,-24,-2,-97,-219,-107,-39,-48,-14
-34,-19,14,26,-24,-2,-97,-214,-107,-39,-48,-14
-29,-24,4,26,-17,-9,-102,-224,-112,-39,-58,-19
-19,-19,0,19,-9,-9,-97,-219,-107,-29,-43,-9
-9,-9,0,9,-4,-4,-87,-214,-102,-34,-43,-14
-4,4,9,0,-7,7,-82,-214,-97,-39,-43,-14
-9,19,29,-4,-19,24,-73,-209,-92,-29,-39,-14
-9,19,29,-4,-19,24,-73,-204,-92,-24,-39,-9
-9,24,34,-7,-21,29,-68,-204,-92,-24,-39,-9
-9,29,39,-9,-24,34,-68,-204,-87,-19,-34,-9
-4,43,48,-19,-26,46,-58,-190,-68,-4,-19,-4
-9,43,53,-17,-31,48,-53,-190,-68,-4,-19,0
-14,48,63,-17,-39,56,-53,-190,-68,-4,-19,4
-19,48,68,-14,-43,58,-53,-190,-68,-4,-19,9
-4,39,43,-17,-24,41,-48,-200,-68,-4,-14,4
0,39,39,-19,-19,39,-48,-185,-58,-4,-9,9
4,39,34,-21,-14,36,-53,-185,-58,0,-9,9
14,39,24,-26,-4,31,-58,-190,-63,-14,-14,9
24,48,24,-36,0,36,-78,-200,-78,-9,-19,4
19,48,29,-34,-4,39,-87,-214,-78,-14,-19,4
19,53,34,-36,-7,43,-102,-229,-92,-24,-19,4
19,63,43,-41,-12,53,-117,-244,-97,-24,-19,4
19,58,39,-39,-9,48,-126,-248,-87,-24,-9,9
19,63,43,-41,-12,53,-136,-253,-87,-24,-9,9
14,78,63,-46,-24,70,-141,-253,-87,-19,-4,9
9,92,82,-51,-36,87,-151,-253,-92,-19,0,19
9,97,87,-53,-39,92,-161,-268,-92,-19,4,24
9,102,92,-56,-41,97,-170,-273,-92,-19,4,24
9,107,97,-58,-43,102,-180,-278,-97,-19,4,24
14,107,92,-61,-39,100,-185,-278,-97,-19,0,29
39,126,87,-82,-24,107,-175,-268,-97,-19,0,29
39,126,87,-82,-24,107,-180,-273,-107,-29,0,24
39,122,82,-80,-21,102,-180,-283,-112,-29,0,24
34,112,78,-73,-21,95,-180,-287,-112,-29,0,29
43,102,58,-73,-7,80,-180,-297,-126,-39,-9,19
43,87,43,-65,0,65,-185,-307,-131,-43,-9,14
43,82,39,-63,2,61,-190,-307,-136,-43,-9,14
58,78,19,-68,19,48,-190,-302,-136,-43,-9,14
68,63,-4,-65,36,29,-200,-297,-136,-43,-19,9
73,48,-24,-61,48,12,-200,-297,-136,-43,-19,9
78,29,-48,-53,63,-9,-200,-297,-146,-48,-19,4
82,19,-63,-51,73,-21,-200,-297,-146,-58,-19,4
78,29,-48,-53,63,-9,-190,-292,-141,-39,-9,14
68,34,-34,-51,51,0,-175,-292,-136,-39,-9,14
63,34,-29,-48,46,2,-165,-287,-136,-39,-9,14
48,34,-14,-41,31,9,-161,-283,-131,-39,-9,14
19,29,9,-24,4,19,-156,-268,-122,-48,-14,4
4,14,9,-9,-2,12,-146,-268,-122,-48,-14,-4
-14,0,14,7,-14,7,-141,-268,-126,-58,-29,-14
-19,-9,9,14,-14,0,-136,-268,-131,-58,-34,-14
-19,-14,4,17,-12,-4,-117,-268,-122,-53,-34,-14
-19,-14,4,17,-12,-4,-112,-268,-126,-63,-39,-24
-19,-29,-9,24,-4,-19,-112,-268,-131,-68,-53,-34
-24,-39,-14,31,-4,-26,-112,-268,-141,-78,-58,-29
-24,-29,-4,26,-9,-17,-112,-268,-151,-87,-68,-39
-19,-34,-14,26,-2,-24,-112,-268,-151,-87,-68,-39
-14,-39,-24,26,4,-31,-107,-268,-151,-87,-73,-43
-9,-39,-29,24,9,-34,-107,-268,-151,-87,-73,-43
-19,-39,-19,29,0,-29,-112,-278,-151,-97,-73,-43
-14,-39,-24,26,4,-31,-112,-278,-156,-102,-78,-43
-14,-43,-29,29,7,-36,-117,-283,-156,-102,-78,-48
-4,-43,-39,24,17,-41,-117,-283,-156,-107,-78,-48
-4,-34,-29,19,12,-31,-107,-278,-161,-102,-68,-48
-14,-34,-19,24,2,-26,-97,-273,-161,-97,-68,-43
-19,-34,-14,26,-2,-24,-97,-268,-151,-92,-68,-43
-19,-34,-14,26,-2,-24,-97,-263,-151,-87,-68,-43
-29,-39,-9,34,-9,-24,-107,-273,-151,-97,-78,-53
-29,-43,-14,36,-7,-29,-107,-273,-151,-97,-78,-53
-29,-48,-19,39,-4,-34,-97,-273,-151,-92,-73,-53
-24,-53,-29,39,2,-41,-97,-273,-151,-92,-73,-53
-4,-63,-58,34,26,-61,-112,-283,-161,-92,-78,-53
-9,-53,-43,31,17,-48,-102,-283,-161,-97,-78,-48
0,-43,-43,21,21,-43,-97,-273,-161,-97,-78,-58
-9,-43,-34,26,12,-39,-92,-268,-151,-97,-73,-58
-43,-58,-14,51,-14,-36,-73,-253,-141,-92,-78,-58
-48,-68,-19,58,-14,-43,-63,-229,-141,-102,-78,-63
-39,-78,-39,58,0,-58,-39,-180,-131,-112,-92,-68
-39,-92,-53,65,7,-73,4,-102,-107,-112,-102,-87
-29,-97,-68,63,19,-82,43,-19,-73,-102,-112,-97
-9,-97,-87,53,39,-92,73,58,-9,-82,-112,-107
-4,-68,-63,36,29,-65,73,136,97,0,-53,-68
34,-29,-63,-2,48,-46,48,209,244,126,34,-4
107,39,-68,-73,87,-14,-14,209,380,287,141,73
204,117,-87,-161,146,14,-107,195,536,483,287,195
287,209,-78,-248,183,65,-190,175,702,707,473,336
375,346,-29,-361,202,158,-287,97,858,956,663,497
502,497,-4,-500,253,246,-473,-73,1005,1220,897,678
649,653,4,-651,322,329,-775,-322,1078,1503,1156,893
810,800,-9,-805,409,395,-1127,-614,1098,1747,1405,1122
961,951,-9,-956,485,470,-1444,-912,1044,1922,1610,1307
1112,1117,4,-1115,553,561,-1751,-1200,936,2049,1786,1483
1273,1302,29,-1288,622,666,-2049,-1449,854,2171,1976,1668
1395,1483,87,-1439,653,785,-2274,-1639,771,2278,2147,1844
1459,1634,175,-1546,641,905,-2430,-1878,610,2269,2239,1981
1420,1751,331,-1586,544,1041,-2605,-2230,312,2132,2259,2064
1322,1781,458,-1551,431,1119,-2766,-2664,-117,1834,2191,2098
1156,1688,531,-1422,312,1110,-2845,-3157,-727,1307,1961,1986
976,1459,483,-1217,246,971,-2806,-3586,-1400,624,1576,1747
824,1171,346,-997,239,758,-2644,-3660,-1839,43,1176,1468
717,873,156,-795,280,514,-2332,-3289,-1912,-297,834,1185
561,580,19,-570,270,300,-1917,-2732,-1727,-448,575,912
361,429,68,-395,146,248,-1551,-2225,-1444,-429,439,751
244,414,170,-329,36,292,-1283,-1790,-1161,-326,400,668
224,414,190,-319,17,302,-1044,-1429,-907,-239,356,590
200,351,151,-275,24,251,-814,-1122,-707,-204,273,463
126,263,136,-195,-4,200,-600,-854,-541,-195,156,297
58,170,112,-114,-26,141,-424,-639,-419,-214,4,131
0,112,112,-56,-56,112,-278,-492,-336,-224,-102,0
-4,87,92,-41,-48,90,-185,-375,-258,-195,-136,-53
-14,39,53,-12,-34,46,-112,-273,-180,-131,-112,-48
-58,-14,43,36,-51,14,-48,-200,-126,-102,-92,-43
-68,-53,14,61,-41,-19,-9,-146,-107,-97,-92,-53
-34,-58,-24,46,-4,-41,29,-87,-78,-97,-92,-68
-19,-53,-34,36,7,-43,63,-48,-58,-87,-92,-78
-19,-43,-24,31,2,-34,73,-24,-43,-87,-92,-78
-29,-53,-24,41,-2,-39,92,-14,-29,-78,-97,-92
-53,-58,-4,56,-24,-31,107,-14,-29,-78,-107,-107
-53,-63,-9,58,-21,-36,97,-19,-39,-87,-112,-102
-53,-63,-9,58,-21,-36,102,-19,-39,-87,-112,-102
-63,-73,-9,68,-26,-41,117,-4,-34,-87,-112,-102
-58,-78,-19,68,-19,-48,117,0,-29,-87,-117,-102
-48,-87,-39,68,-4,-63,126,19,-29,-87,-117,-102
-58,-87,-29,73,-14,-58,136,34,-19,-87,-122,-102
-58,-92,-34,75,-12,-63,141,39,-19,-87,-122,-112
-53,-97,-43,75,-4,-70,141,43,-19,-82,-126,-117
-53,-87,-34,70,-9,-61,146,48,-9,-92,-126,-126
-53,-87,-34,70,-9,-61,146,53,-4,-92,-126,-126
-53,-92,-39,73,-7,-65,146,53,-4,-92,-126,-126
-43,-92,-48,68,2,-70,146,53,-4,-92,-131,-131
-48,-102,-53,75,2,-78,141,58,-14,-102,-141,-131
-48,-102,-53,75,2,-78,141,63,-9,-102,-141,-131
-48,-102,-53,75,2,-78,141,68,-4,-102,-141,-131
-43,-97,-53,70,4,-75,146,68,-4,-102,-146,-131
-34,-97,-63,65,14,-80,156,82,0,-92,-136,-131
-43,-97,-53,70,4,-75,161,87,4,-82,-131,-131
-63,-102,-39,82,-12,-70,165,92,9,-82,-131,-131
-63,-102,-39,82,-12,-70,165,107,14,-78,-131,-131
-48,-92,-43,70,-2,-68,165,102,19,-82,-136,-131
-48,-92,-43,70,-2,-68,170,107,24,-82,-136,-131
-48,-92,-43,70,-2,-68,170,112,29,-82,-136,-136
-48,-92,-43,70,-2,-68,170,112,34,-82,-146,-136
-53,-102,-48,78,-2,-75,180,126,39,-82,-136,-136
-58,-102,-43,80,-7,-73,180,126,43,-82,-136,-136
-63,-102,-39,82,-12,-70,180,131,43,-82,-136,-136
-68,-102,-34,85,-17,-68,180,136,48,-82,-136,-136
-58,-102,-43,80,-7,-73,185,141,53,-78,-136,-136
-58,-102,-43,80,-7,-73,185,151,58,-78,-136,-136
-58,-102,-43,80,-7,-73,185,161,63,-78,-131,-136
-58,-102,-43,80,-7,-73,185,161,68,-73,-131,-136
-39,-97,-58,68,9,-78,190,170,68,-73,-141,-131
-34,-92,-58,63,12,-75,190,170,73,-73,-136,-131
-34,-87,-53,61,9,-70,195,180,78,-68,-136,-131
-34,-87,-53,61,9,-70,195,180,82,-68,-146,-131
-53,-87,-34,70,-9,-61,190,190,87,-58,-136,-131
-58,-87,-29,73,-14,-58,195,204,92,-58,-136,-131
-53,-87,-34,70,-9,-61,200,204,97,-58,-141,-131
-58,-82,-24,70,-17,-53,200,209,97,-58,-146,-136
-58,-92,-34,75,-12,-63,200,209,92,-68,-146,-146
-58,-92,-34,75,-12,-63,204,219,97,-63,-146,-146
-53,-92,-39,73,-7,-65,209,229,102,-63,-146,-146
-53,-92,-39,73,-7,-65,209,234,102,-63,-151,-146
-58,-92,-34,75,-12,-63,229,253,107,-73,-151,-151
-68,-92,-24,80,-21,-58,229,258,112,-68,-151,-151
-73,-102,-29,87,-21,-65,234,268,117,-68,-151,-151
-82,-102,-19,92,-31,-61,234,278,122,-68,-151,-156
-73,-92,-19,82,-26,-56,248,292,136,-63,-161,-151
-73,-92,-19,82,-26,-56,248,302,141,-63,-161,-151
-68,-92,-24,80,-21,-58,253,312,146,-63,-165,-156
-68,-87,-19,78,-24,-53,258,322,151,-63,-170,-156
-68,-87,-19,78,-24,-53,258,341,161,-53,-170,-156
-68,-87,-19,78,-24,-53,278,356,165,-53,-165,-156
-68,-92,-24,80,-21,-58,278,361,170,-53,-165,-161
-68,-92,-24,80,-21,-58,283,370,170,-53,-170,-161
-63,-92,-29,78,-17,-61,283,370,165,-53,-180,-170
-63,-92,-29,78,-17,-61,292,385,175,-53,-180,-180
-63,-97,-34,80,-14,-65,307,405,185,-48,-180,-180
-68,-97,-29,82,-19,-63,312,414,195,-48,-180,-180
-78,-97,-19,87,-29,-58,326,444,209,-43,-170,-175
-78,-97,-19,87,-29,-58,331,458,214,-43,-170,-175
-82,-97,-14,90,-34,-56,336,473,224,-43,-175,-185
-87,-102,-14,95,-36,-58,341,488,229,-48,-180,-185
-92,-102,-9,97,-41,-56,366,502,239,-48,-190,-175
-92,-102,-9,97,-41,-56,375,522,244,-48,-195,-185
-82,-97,-14,90,-34,-56,375,536,244,-48,-200,-190
-78,-97,-19,87,-29,-58,385,551,258,-48,-204,-195
-78,-97,-19,87,-29,-58,385,570,253,-58,-204,-195
-82,-97,-14,90,-34,-56,395,590,268,-58,-209,-195
-97,-97,0,97,-48,-48,405,610,268,-58,-209,-195
-97,-97,0,97,-48,-48,419,629,283,-58,-219,-204
-97,-92,4,95,-51,-43,444,649,302,-48,-209,-204
-97,-92,4,95,-51,-43,453,668,312,-48,-214,-204
-97,-92,4,95,-51,-43,473,683,322,-48,-219,-209
-107,-92,14,100,-61,-39,488,702,326,-48,-234,-214
-107,-92,14,100,-61,-39,507,727,322,-58,-229,-224
-107,-92,14,100,-61,-39,517,751,331,-58,-229,-224
-107,-92,14,100,-61,-39,527,766,341,-63,-239,-229
-117,-92,24,104,-70,-34,531,785,351,-63,-239,-234
-136,-102,34,119,-85,-34,541,795,351,-73,-253,-239
-146,-102,43,124,-95,-29,551,814,366,-73,-258,-248
-146,-107,39,126,-92,-34,556,829,375,-78,-263,-248
-146,-112,34,129,-90,-39,566,844,375,-82,-268,-253
-136,-112,24,124,-80,-43,570,858,385,-82,-273,-258
-131,-112,19,122,-75,-46,575,873,375,-92,-287,-273
-131,-107,24,119,-78,-41,585,878,375,-92,-292,-278
-131,-107,24,119,-78,-41,595,893,375,-97,-302,-278
-136,-97,39,117,-87,-29,600,893,385,-107,-312,-287
-146,-97,48,122,-97,-24,614,902,390,-112,-317,-292
-156,-97,58,126,-107,-19,619,912,390,-117,-326,-297
-165,-97,68,131,-117,-14,629,927,390,-131,-331,-297
-185,-97,87,141,-136,-4,634,936,395,-136,-336,-307
-195,-97,97,146,-146,0,634,932,390,-141,-331,-312
-209,-97,112,153,-161,7,639,932,390,-146,-341,-317
-219,-92,126,156,-173,17,639,922,380,-161,-346,-326
-219,-92,126,156,-173,17,629,917,361,-165,-366,-331
-219,-87,131,153,-175,21,629,907,361,-170,-366,-326
-219,-82,136,151,-178,26,629,902,356,-170,-366,-322
-214,-82,131,148,-173,24,624,888,351,-180,-366,-317
-204,-92,112,148,-158,9,610,863,331,-200,-375,-326
-209,-92,117,151,-163,12,600,844,317,-209,-380,-331
-219,-87,131,153,-175,21,590,834,307,-214,-380,-336
-219,-82,136,151,-178,26,575,805,297,-219,-385,-336
-200,-63,136,131,-168,36,570,785,287,-234,-385,-326
-195,-58,136,126,-165,39,541,746,268,-239,-380,-326
-185,-48,136,117,-161,43,517,712,258,-239,-380,-322
-180,-39,141,109,-161,51,497,678,244,-239,-375,-322
-185,-43,141,114,-163,48,473,634,219,-244,-366,-312
-185,-43,141,114,-163,48,453,595,195,-244,-356,-302
-185,-39,146,112,-165,53,419,551,175,-248,-356,-292
-180,-34,146,107,-163,56,390,497,151,-248,-341,-283
-175,-39,136,107,-156,48,375,458,136,-244,-336,-263
-175,-34,141,104,-158,53,351,419,117,-239,-326,-248
-180,-29,151,104,-165,61,322,375,107,-234,-307,-239
-180,-24,156,102,-168,65,292,336,92,-224,-297,-234
-161,-29,131,95,-146,51,263,292,68,-229,-292,-219
-136,-29,107,82,-122,39,234,244,48,-224,-278,-209
-122,-24,97,73,-109,36,200,204,24,-219,-268,-204
-107,-24,82,65,-95,29,170,165,4,-214,-258,-190
-102,-14,87,58,-95,36,151,141,4,-204,-248,-175
-92,-9,82,51,-87,36,131,107,-4,-200,-234,-170
-73,-4,68,39,-70,31,107,78,-19,-190,-219,-156
-63,0,63,31,-63,31,92,53,-29,-180,-204,-146
-53,14,68,19,-61,41,68,24,-43,-165,-200,-131
-53,14,68,19,-61,41,53,0,-53,-156,-185,-122
-43,19,63,12,-53,41,34,-34,-58,-151,-170,-122
-34,24,58,4,-46,41,24,-48,-63,-141,-156,-117
-34,29,63,2,-48,46,14,-53,-58,-122,-141,-102
-34,29,63,2,-48,46,4,-68,-58,-117,-131,-92
-24,29,53,-2,-39,41,0,-82,-53,-112,-117,-82
-24,34,58,-4,-41,46,-9,-92,-53,-107,-107,-73
-24,29,53,-2,-39,41,-24,-122,-63,-107,-112,-82
-24,19,43,2,-34,31,-29,-131,-73,-102,-102,-73
-19,14,34,2,-26,24,-29,-141,-73,-97,-97,-68
-14,9,24,2,-19,17,-39,-151,-73,-82,-92,-63
-14,14,29,0,-21,21,-39,-151,-68,-82,-78,-53
-14,24,39,-4,-26,31,-39,-146,-68,-73,-73,-48
-4,29,34,-12,-19,31,-43,-146,-68,-73,-68,-43
-4,34,39,-14,-21,36,-43,-146,-68,-68,-68,-39
0,29,29,-14,-14,29,-53,-156,-78,-78,-68,-48
4,29,24,-17,-9,26,-53,-161,-78,-78,-73,-43
14,29,14,-21,0,21,-58,-175,-78,-78,-78,-43
24,29,4,-26,9,17,-58,-180,-87,-73,-78,-39
34,29,-4,-31,19,12,-68,-185,-97,-78,-78,-48
34,29,-4,-31,19,12,-68,-185,-97,-78,-78,-48
34,29,-4,-31,19,12,-73,-190,-97,-78,-78,-48
34,34,0,-34,17,17,-73,-190,-97,-82,-78,-48
19,24,4,-21,7,14,-63,-180,-92,-78,-68,-39
4,19,14,-12,-4,17,-63,-180,-87,-73,-68,-39
0,19,19,-9,-9,19,-58,-180,-78,-68,-63,-39
0,24,24,-12,-12,24,-58,-180,-73,-63,-63,-34
4,14,9,-9,-2,12,-58,-185,-82,-68,-63,-34
-4,14,19,-4,-12,17,-58,-185,-82,-68,-63,-39
-14,14,29,0,-21,21,-53,-180,-82,-63,-63,-39
-14,14,29,0,-21,21,-53,-180,-82,-63,-63,-39
0,24,24,-12,-12,24,-58,-180,-78,-68,-78,-43
0,24,24,-12,-12,24,-63,-180,-78,-68,-78,-43
0,24,24,-12,-12,24,-68,-185,-78,-68,-78,-43
4,19,14,-12,-4,17,-73,-185,-78,-68,-78,-43
24,19,-4,-21,14,7,-63,-175,-78,-73,-78,-43
14,24,9,-19,2,17,-58,-170,-73,-73,-78,-43
9,24,14,-17,-2,19,-58,-170,-73,-73,-78,-43
9,19,9,-14,0,14,-53,-165,-73,-73,-78,-43
19,9,-9,-14,14,0,-63,-161,-73,-82,-73,-43
9,9,0,-9,4,4,-58,-156,-73,-78,-73,-43
9,4,-4,-7,7,0,-53,-151,-73,-78,-68,-43
9,4,-4,-7,7,0,-53,-146,-73,-78,-68,-43
4,9,4,-7,0,7,-53,-146,-58,-78,-73,-43
0,9,9,-4,-4,9,-48,-146,-58,-78,-73,-43
-4,9,14,-2,-9,12,-48,-136,-58,-78,-73,-43
-14,9,24,2,-19,17,-48,-131,-58,-78,-73,-43
-4,14,19,-4,-12,17,-39,-117,-43,-68,-68,-29
-4,14,19,-4,-12,17,-34,-112,-39,-68,-63,-29
4,19,14,-12,-4,17,-29,-112,-39,-63,-53,-29
9,24,14,-17,-2,19,-24,-107,-39,-63,-48,-34
24,24,0,-24,12,12,-29,-107,-48,-73,-53,-43
24,24,0,-24,12,12,-34,-112,-43,-73,-58,-43
29,24,-4,-26,17,9,-39,-117,-43,-73,-63,-43
34,24,-9,-29,21,7,-43,-122,-43,-73,-68,-43
29,24,-4,-26,17,9,-34,-117,-34,-73,-68,-39
24,19,-4,-21,14,7,-29,-112,-24,-73,-63,-39
19,19,0,-19,9,9,-29,-107,-19,-63,-58,-34
14,24,9,-19,2,17,-29,-107,-19,-63,-53,-34
19,14,-4,-17,12,4,-29,-107,-29,-68,-58,-43
19,14,-4,-17,12,4,-29,-107,-29,-68,-63,-43
19,14,-4,-17,12,4,-29,-102,-24,-68,-68,-43
19,14,-4,-17,12,4,-29,-97,-19,-68,-73,-43
9,14,4,-12,2,9,-24,-87,-9,-58,-68,-48
0,14,14,-7,-7,14,-24,-87,-4,-58,-68,-48
0,19,19,-9,-9,19,-24,-87,-4,-58,-68,-48
-9,19,29,-4,-19,24,-24,-87,-4,-58,-68,-48
-24,4,29,9,-26,17,-24,-102,-14,-68,-82,-68
-24,4,29,9,-26,17,-24,-102,-14,-68,-82,-68
-24,4,29,9,-26,17,-19,-97,-19,-68,-82,-68
-19,4,24,7,-21,14,-19,-92,-19,-63,-82,-68
-14,14,29,0,-21,21,-19,-82,-4,-48,-82,-53
-9,9,19,0,-14,14,-19,-87,-4,-48,-78,-53
-14,9,24,2,-19,17,-19,-87,-4,-53,-78,-53
-9,9,19,0,-14,14,-19,-82,-4,-53,-78,-53
-9,19,29,-4,-19,24,-14,-92,-4,-53,-68,-53
-9,19,29,-4,-19,24,-14,-92,-4,-48,-68,-53
-9,19,29,-4,-19,24,-19,-92,-9,-48,-73,-53
-9,19,29,-4,-19,24,-19,-97,-9,-53,-73,-53
0,14,14,-7,-7,14,-29,-97,-19,-63,-73,-53
0,14,14,-7,-7,14,-24,-97,-19,-63,-73,-53
4,9,4,-7,0,7,-24,-97,-19,-63,-73,-53
4,9,4,-7,0,7,-24,-97,-19,-63,-73,-53
-4,9,14,-2,-9,12,-24,-97,-24,-53,-73,-63
0,9,9,-4,-4,9,-24,-107,-29,-58,-73,-63
0,9,9,-4,-4,9,-24,-107,-29,-68,-73,-63
-4,9,14,-2,-9,12,-29,-107,-29,-68,-73,-63
-9,-4,4,7,-7,0,-29,-112,-34,-78,-73,-63
-14,-4,9,9,-12,2,-29,-112,-34,-78,-73,-63
-19,-4,14,12,-17,4,-29,-112,-34,-73,-73,-63
-24,-4,19,14,-21,7,-29,-117,-39,-73,-73,-63
-19,0,19,9,-19,9,-29,-117,-39,-63,-73,-63
-9,4,14,2,-12,9,-29,-117,-43,-63,-73,-63
0,9,9,-4,-4,9,-34,-126,-48,-73,-73,-63
9,19,9,-14,0,14,-34,-126,-48,-73,-73,-63
0,19,19,-9,-9,19,-34,-126,-48,-82,-68,-53
0,19,19,-9,-9,19,-34,-131,-48,-82,-68,-53
9,19,9,-14,0,14,-39,-136,-58,-87,-68,-53
9,19,9,-14,0,14,-39,-141,-58,-87,-78,-53
-4,9,14,-2,-9,12,-34,-141,-53,-78,-68,-53
-9,9,19,0,-14,14,-29,-141,-53,-78,-68,-53
-14,4,19,4,-17,12,-24,-141,-53,-78,-68,-53
-19,4,24,7,-21,14,-29,-146,-58,-78,-73,-53
-9,19,29,-4,-19,24,-39,-151,-68,-82,-82,-63
-14,19,34,-2,-24,26,-39,-151,-68,-82,-78,-63
4,19,14,-12,-4,17,-39,-156,-68,-87,-78,-63
14,19,4,-17,4,12,-39,-156,-73,-97,-78,-63
24,14,-9,-19,17,2,-43,-156,-82,-97,-87,-53
19,14,-4,-17,12,4,-43,-161,-82,-97,-87,-53
19,14,-4,-17,12,4,-48,-165,-87,-102,-87,-53
29,14,-14,-21,21,0,-53,-170,-97,-107,-92,-53
24,19,-4,-21,14,7,-43,-161,-92,-97,-87,-53
14,19,4,-17,4,12,-43,-161,-87,-97,-82,-53
9,19,9,-14,0,14,-43,-170,-87,-97,-78,-53
4,19,14,-12,-4,17,-43,-170,-82,-97,-73,-53
0,29,29,-14,-14,29,-29,-170,-78,-82,-63,-43
-4,24,29,-9,-17,26,-29,-170,-78,-82,-63,-43
-4,24,29,-9,-17,26,-34,-170,-82,-87,-63,-48
-9,24,34,-7,-21,29,-34,-175,-82,-97,-63,-48
-24,9,34,7,-29,21,-34,-165,-87,-87,-73,-39
-34,4,39,14,-36,21,-34,-170,-87,-87,-73,-39
-53,0,53,26,-53,26,-34,-170,-82,-82,-73,-39
-63,-4,58,34,-61,26,-34,-170,-82,-82,-73,-39
-29,9,39,9,-34,24,-39,-175,-87,-92,-73,-48
-4,14,19,-4,-12,17,-48,-180,-102,-97,-73,-48
14,19,4,-17,4,12,-53,-185,-107,-97,-73,-48
29,24,-4,-26,17,9,-58,-190,-107,-97,-73,-48
19,24,4,-21,7,14,-48,-195,-107,-97,-73,-48
14,24,9,-19,2,17,-48,-195,-107,-92,-73,-48
4,24,19,-14,-7,21,-48,-190,-107,-92,-73,-43
-9,24,34,-7,-21,29,-48,-190,-107,-92,-68,-39
-4,14,19,-4,-12,17,-53,-190,-112,-102,-78,-43
0,24,24,-12,-12,24,-53,-195,-112,-102,-78,-48
9,29,19,-19,-4,24,-53,-195,-112,-102,-78,-53
14,29,14,-21,0,21,-58,-195,-112,-107,-78,-58
4,19,14,-12,-4,17,-48,-185,-107,-107,-78,-58
14,19,4,-17,4,12,-48,-190,-112,-107,-78,-58
14,19,4,-17,4,12,-53,-195,-112,-107,-78,-58
9,19,9,-14,0,14,-58,-195,-112,-107,-78,-58
4,9,4,-7,0,7,-58,-195,-112,-107,-78,-58
0,9,9,-4,-4,9,-58,-200,-112,-107,-78,-58
-4,9,14,-2,-9,12,-58,-200,-112,-107,-78,-58
-9,19,29,-4,-19,24,-58,-204,-112,-107,-78,-58
0,19,19,-9,-9,19,-58,-195,-107,-97,-73,-53
-9,14,24,-2,-17,19,-53,-195,-107,-97,-68,-48
-14,14,29,0,-21,21,-53,-195,-97,-97,-63,-43
-14,14,29,0,-21,21,-53,-195,-97,-97,-58,-39
-14,19,34,-2,-24,26,-53,-195,-112,-92,-68,-39
-39,19,58,9,-48,39,-48,-185,-107,-87,-58,-29
-19,19,39,0,-29,29,-53,-190,-112,-92,-63,-39
-9,19,29,-4,-19,24,-58,-195,-117,-97,-68,-39
0,19,19,-9,-9,19,-63,-200,-122,-102,-73,-39
9,19,9,-14,0,14,-68,-204,-126,-107,-78,-39
0,14,14,-7,-7,14,-68,-204,-117,-107,-68,-48
0,14,14,-7,-7,14,-63,-204,-112,-107,-68,-43
0,14,14,-7,-7,14,-63,-204,-112,-107,-68,-43
4,14,9,-9,-2,12,-63,-214,-122,-107,-68,-43
-9,4,14,2,-12,9,-63,-214,-122,-107,-68,-53
-14,4,19,4,-17,12,-63,-209,-117,-107,-68,-53
-19,9,29,4,-24,19,-68,-209,-117,-107,-68,-53
-24,9,34,7,-29,21,-68,-204,-117,-107,-68,-53
-19,29,48,-4,-34,39,-53,-195,-102,-92,-58,-43
-9,39,48,-14,-29,43,-48,-190,-97,-78,-43,-29
0,53,53,-26,-26,53,-39,-185,-92,-78,-43,-29
4,73,68,-39,-31,70,-34,-185,-87,-78,-43,-24
4,68,63,-36,-29,65,-24,-180,-82,-78,-39,-24
9,68,58,-39,-24,63,-24,-175,-82,-73,-39,-19
14,73,58,-43,-21,65,-19,-175,-82,-73,-39,-19
19,78,58,-48,-19,68,-19,-175,-78,-68,-34,-19
29,73,43,-51,-7,58,-19,-170,-73,-68,-34,-29
29,73,43,-51,-7,58,-14,-170,-78,-73,-39,-29
29,78,48,-53,-9,63,-14,-170,-82,-78,-43,-29
29,78,48,-53,-9,63,-14,-170,-87,-82,-48,-29
29,82,53,-56,-12,68,0,-161,-78,-68,-34,-14
29,87,58,-58,-14,73,0,-146,-68,-63,-29,-9
29,92,63,-61,-17,78,-4,-146,-68,-53,-29,-9
34,97,63,-65,-14,80,-9,-151,-73,-63,-34,-9
24,87,63,-56,-19,75,-19,-141,-68,-63,-29,-4
19,87,68,-53,-24,78,-29,-156,-68,-63,-29,-4
19,92,73,-56,-26,82,-43,-170,-82,-68,-29,-4
19,102,82,-61,-31,92,-58,-185,-87,-63,-29,-4
24,107,82,-65,-29,95,-87,-200,-97,-68,-34,-9
29,112,82,-70,-26,97,-97,-214,-97,-73,-39,-9
29,126,97,-78,-34,112,-102,-224,-97,-73,-39,-9
29,141,112,-85,-41,126,-112,-234,-102,-78,-39,0
29,146,117,-87,-43,131,-112,-229,-102,-68,-34,4
29,151,122,-90,-46,136,-122,-234,-102,-68,-34,4
29,156,126,-92,-48,141,-131,-239,-107,-68,-34,4
34,156,122,-95,-43,139,-136,-239,-107,-68,-39,9
48,156,107,-102,-29,131,-146,-244,-107,-78,-29,9
48,156,107,-102,-29,131,-151,-253,-117,-87,-29,4
48,151,102,-100,-26,126,-151,-268,-122,-87,-29,4
43,141,97,-92,-26,119,-151,-278,-122,-87,-29,9
39,136,97,-87,-29,117,-141,-273,-117,-82,-29,19
34,117,82,-75,-24,100,-146,-278,-122,-82,-29,14
29,107,78,-68,-24,92,-151,-273,-126,-78,-29,14
39,97,58,-68,-9,78,-151,-263,-126,-73,-29,14
48,107,58,-78,-4,82,-151,-258,-126,-82,-29,9
53,97,43,-75,4,70,-151,-258,-126,-82,-29,9
58,82,24,-70,17,53,-151,-258,-136,-87,-29,4
63,78,14,-70,24,46,-151,-258,-136,-97,-29,4
78,87,9,-82,34,48,-141,-253,-141,-87,-29,4
78,92,14,-85,31,53,-126,-253,-136,-87,-29,4
82,92,9,-87,36,51,-117,-248,-136,-87,-29,4
78,92,14,-85,31,53,-112,-244,-131,-87,-29,4
48,87,39,-68,4,63,-107,-229,-122,-87,-34,4
34,73,39,-53,-2,56,-97,-229,-122,-87,-34,-4
14,58,43,-36,-14,51,-92,-229,-126,-97,-48,-14
9,48,39,-29,-14,43,-87,-229,-131,-97,-53,-14
14,39,24,-26,-4,31,-87,-234,-141,-112,-63,-19
9,34,24,-21,-7,29,-82,-239,-146,-122,-68,-34
4,14,9,-9,-2,12,-82,-244,-151,-126,-82,-48
-4,0,4,2,-4,2,-82,-248,-161,-136,-87,-48
-9,9,19,0,-14,14,-82,-248,-161,-126,-78,-48
-9,4,14,2,-12,9,-82,-248,-161,-126,-78,-48
-9,0,9,4,-9,4,-78,-248,-161,-126,-82,-53
-9,0,9,4,-9,4,-78,-248,-161,-126,-82,-53
-9,0,9,4,-9,4,-73,-248,-161,-126,-82,-53
-4,0,4,2,-4,2,-73,-248,-165,-131,-87,-53
-4,-4,0,4,-2,-2,-78,-253,-165,-131,-87,-58
4,-4,-9,0,7,-7,-78,-253,-165,-136,-87,-58
4,-4,-9,0,7,-7,-87,-244,-170,-136,-97,-68
-4,-4,0,4,-2,-2,-78,-244,-170,-136,-97,-63
-9,-4,4,7,-7,0,-78,-244,-161,-136,-97,-63
-9,-4,4,7,-7,0,-78,-244,-161,-136,-97,-63
-19,-4,14,12,-17,4,-68,-244,-161,-136,-97,-53
-19,-4,14,12,-17,4,-68,-244,-161,-136,-97,-53
-19,-4,14,12,-17,4,-58,-244,-161,-131,-92,-53
-14,-4,9,9,-12,2,-58,-244,-161,-131,-92,-53
-4,-14,-9,9,2,-12,-73,-244,-161,-141,-97,-63
-29,-14,14,21,-21,0,-73,-244,-161,-146,-97,-58
-39,-4,34,21,-36,14,-68,-234,-151,-126,-87,-58
9,4,-4,-7,7,0,-63,-229,-161,-126,-92,-58
53,-9,-63,-21,58,-36,-63,-234,-180,-141,-117,-68
19,-39,-58,9,39,-48,-43,-209,-170,-151,-126,-82
-48,-48,0,48,-24,-24,0,-151,-141,-151,-131,-87
-39,-53,-14,46,-12,-34,34,-82,-117,-161,-141,-107
-9,-48,-39,29,14,-43,82,0,-82,-161,-151,-117
0,-29,-29,14,14,-29,112,97,0,-112,-122,-97
24,0,-24,-12,24,-12,112,185,107,-19,-63,-58
73,39,-34,-56,53,2,78,239,224,97,14,-4
136,78,-58,-107,97,9,14,258,351,248,131,82
224,146,-78,-185,151,34,-78,244,517,434,268,185
317,248,-68,-283,192,90,-161,234,683,658,453,326
395,385,-9,-390,202,187,-248,175,868,907,653,488
512,546,34,-529,239,290,-434,34,1024,1171,878,668
688,712,24,-700,331,368,-736,-204,1117,1454,1137,883
839,858,19,-849,409,439,-1088,-497,1127,1698,1385,1112
971,990,19,-980,475,505,-1405,-805,1063,1864,1590,1298
1122,1137,14,-1129,553,575,-1712,-1093,966,1991,1766,1464
1283,1312,29,-1298,627,671,-1991,-1342,883,2113,1947,1649
1405,1512,107,-1459,649,810,-2205,-1522,800,2220,2127,1834
1449,1683,234,-1566,607,958,-2361,-1771,649,2200,2230,1971
1429,1800,370,-1615,529,1085,-2547,-2122,351,2054,2239,2054
1351,1830,478,-1590,436,1154,-2727,-2576,-78,1766,2161,2069
1195,1737,541,-1466,326,1139,-2796,-3089,-678,1268,1932,1956
1024,1517,492,-1271,265,1005,-2766,-3557,-1361,595,1546,1717
863,1220,356,-1041,253,788,-2625,-3640,-1820,14,1156,1439
717,902,185,-810,265,544,-2293,-3259,-1873,-317,824,1156
561,619,58,-590,251,339,-1878,-2693,-1698,-468,566,893
419,468,48,-444,185,258,-1532,-2205,-1434,-478,409,722
322,483,161,-402,80,322,-1263,-1771,-1151,-375,390,649
253,483,229,-368,12,356,-1015,-1390,-888,-268,375,590
180,380,200,-280,-9,290,-766,-1073,-688,-224,283,473
97,273,175,-185,-39,224,-561,-805,-531,-224,156,307
19,200,180,-109,-80,190,-385,-590,-409,-224,24,141
-39,141,180,-51,-109,161,-239,-434,-326,-234,-82,9
-63,97,161,-17,-112,129,-146,-326,-258,-224,-117,-43
-53,48,102,2,-78,75,-92,-253,-209,-200,-122,-68
-39,14,53,12,-46,34,-29,-170,-146,-170,-112,-63
-29,4,34,12,-31,19,39,-87,-97,-146,-92,-63
-24,-9,14,17,-19,2,78,-29,-68,-126,-92,-68
-9,-14,-4,12,-2,-9,92,-9,-68,-136,-102,-87
39,-4,-43,-17,41,-24,102,4,-63,-136,-112,-107
48,4,-43,-26,46,-19,112,4,-58,-126,-107,-112
34,-19,-53,-7,43,-36,126,14,-58,-126,-117,-117
19,-34,-53,7,36,-43,126,14,-48,-136,-122,-122
4,-34,-39,14,21,-36,131,19,-48,-136,-122,-122
-19,-43,-24,31,2,-34,146,39,-43,-136,-122,-122
-29,-48,-19,39,-4,-34,146,48,-39,-136,-126,-122
-39,-39,0,39,-19,-19,165,68,-29,-136,-126,-112
-48,-39,9,43,-29,-14,175,82,-19,-136,-131,-112
-48,-43,4,46,-26,-19,180,87,-19,-136,-131,-122
-43,-48,-4,46,-19,-26,180,92,-19,-131,-136,-126
-53,-48,4,51,-29,-21,195,87,-9,-122,-126,-117
-53,-48,4,51,-29,-21,195,92,-4,-122,-126,-117
-53,-53,0,53,-26,-26,195,92,-4,-122,-126,-117
-43,-53,-9,48,-17,-31,195,92,-4,-122,-131,-122
-43,-58,-14,51,-14,-36,200,102,-4,-131,-131,-131
-48,-63,-14,56,-17,-39,200,112,0,-131,-131,-131
-53,-68,-14,61,-19,-41,200,122,4,-131,-131,-131
-53,-68,-14,61,-19,-41,204,126,4,-131,-136,-131
-39,-58,-19,48,-9,-39,195,122,0,-131,-136,-131
-43,-58,-14,51,-14,-36,200,126,4,-122,-131,-131
-58,-63,-4,61,-26,-34,204,131,9,-122,-131,-131
-53,-63,-9,58,-21,-36,204,146,14,-117,-131,-131
-43,-53,-9,48,-17,-31,214,161,19,-112,-126,-122
-48,-53,-4,51,-21,-29,219,165,24,-112,-126,-122
-53,-53,0,53,-26,-26,219,170,29,-112,-126,-126
-58,-53,4,56,-31,-24,219,170,34,-112,-136,-126
-53,-63,-9,58,-21,-36,229,175,39,-102,-126,-126
-48,-63,-14,56,-17,-39,229,175,43,-102,-126,-126
-43,-63,-19,53,-12,-41,229,180,43,-102,-126,-126
-39,-63,-24,51,-7,-43,229,185,48,-102,-126,-126
-39,-73,-34,56,-2,-53,224,195,43,-102,-131,-131
-39,-73,-34,56,-2,-53,224,200,48,-107,-136,-136
-39,-73,-34,56,-2,-53,224,204,53,-112,-136,-141
-39,-73,-34,56,-2,-53,224,200,58,-112,-141,-146
-43,-73,-29,58,-7,-51,229,204,68,-112,-131,-151
-43,-73,-29,58,-7,-51,229,209,73,-112,-126,-151
-48,-73,-24,61,-12,-48,234,224,78,-107,-126,-151
-53,-78,-24,65,-14,-51,234,229,82,-107,-136,-151
-68,-73,-4,70,-31,-39,248,248,97,-102,-131,-146
-68,-68,0,68,-34,-34,253,263,102,-97,-126,-141
-58,-63,-4,61,-26,-34,258,263,107,-92,-126,-136
-58,-53,4,56,-31,-24,258,268,107,-87,-126,-136
-58,-53,4,56,-31,-24,258,278,112,-87,-136,-146
-58,-53,4,56,-31,-24,263,287,117,-82,-136,-146
-53,-53,0,53,-26,-26,268,297,122,-82,-136,-146
-53,-53,0,53,-26,-26,268,302,122,-82,-141,-146
-53,-63,-9,58,-21,-36,287,302,126,-92,-141,-141
-58,-63,-4,61,-26,-34,287,307,131,-87,-141,-141
-58,-73,-14,65,-21,-43,292,317,136,-87,-141,-141
-63,-73,-9,68,-26,-41,292,326,141,-87,-141,-146
-53,-63,-9,58,-21,-36,307,341,136,-92,-151,-161
-53,-63,-9,58,-21,-36,307,351,141,-92,-151,-161
-48,-63,-14,56,-17,-39,312,361,146,-92,-156,-165
-48,-58,-9,53,-19,-34,317,370,151,-92,-161,-165
-48,-58,-9,53,-19,-34,317,380,151,-92,-170,-165
-48,-58,-9,53,-19,-34,336,395,156,-92,-165,-165
-48,-63,-14,56,-17,-39,336,400,161,-92,-165,-170
-48,-63,-14,56,-17,-39,341,409,161,-92,-170,-170
-48,-73,-24,61,-12,-48,341,429,175,-82,-161,-161
-53,-73,-19,63,-17,-46,351,444,185,-82,-161,-170
-58,-78,-19,68,-19,-48,366,463,195,-78,-161,-170
-68,-78,-9,73,-29,-43,370,473,204,-78,-161,-170
-78,-87,-9,82,-34,-48,375,483,209,-82,-170,-175
-78,-87,-9,82,-34,-48,380,497,214,-82,-170,-175
-82,-87,-4,85,-39,-46,385,512,224,-82,-175,-185
-87,-92,-4,90,-41,-48,390,527,229,-87,-180,-185
-92,-82,9,87,-51,-36,409,551,239,-87,-180,-185
-92,-82,9,87,-51,-36,424,570,244,-87,-185,-195
-82,-78,4,80,-43,-36,429,585,244,-87,-190,-200
-78,-78,0,78,-39,-39,444,600,258,-87,-195,-204
-78,-68,9,73,-43,-29,453,629,263,-78,-190,-195
-82,-68,14,75,-48,-26,463,649,278,-78,-190,-195
-97,-68,29,82,-63,-19,473,668,278,-78,-185,-195
-97,-68,29,82,-63,-19,488,688,292,-78,-190,-204
-87,-73,14,80,-51,-29,497,697,292,-87,-200,-214
-87,-73,14,80,-51,-29,502,717,302,-87,-204,-214
-87,-73,14,80,-51,-29,517,732,312,-87,-209,-219
-97,-73,24,85,-61,-24,527,751,317,-87,-224,-224
-97,-73,24,85,-61,-24,536,766,322,-78,-219,-224
-97,-73,24,85,-61,-24,546,790,331,-78,-219,-224
-97,-73,24,85,-61,-24,556,805,341,-82,-229,-229
-107,-73,34,90,-70,-19,561,824,351,-82,-229,-234
-126,-73,53,100,-90,-9,575,844,341,-92,-224,-229
-136,-73,63,104,-100,-4,590,863,356,-92,-229,-239
-136,-78,58,107,-97,-9,600,878,366,-97,-234,-239
-136,-82,53,109,-95,-14,614,893,366,-102,-239,-244
-136,-82,53,109,-95,-14,624,907,385,-107,-263,-268
-131,-82,48,107,-90,-17,624,922,375,-122,-278,-283
-131,-78,53,104,-92,-12,629,927,375,-126,-283,-287
-131,-78,53,104,-92,-12,634,941,375,-136,-292,-287
-156,-87,68,122,-112,-9,639,941,385,-136,-283,-287
-165,-87,78,126,-122,-4,653,951,390,-141,-287,-292
-175,-87,87,131,-131,0,658,961,390,-146,-297,-297
-185,-87,97,136,-141,4,668,976,390,-161,-302,-297
-175,-78,97,126,-136,9,678,985,385,-165,-312,-307
-175,-78,97,126,-136,9,673,980,380,-170,-312,-312
-180,-78,102,129,-141,12,673,980,380,-175,-326,-317
-180,-73,107,126,-143,17,668,971,370,-190,-336,-326
-195,-73,122,134,-158,24,678,976,370,-195,-336,-326
-200,-68,131,134,-165,31,678,966,370,-200,-336,-326
-204,-63,141,134,-173,39,678,961,366,-200,-336,-326
-204,-63,141,134,-173,39,673,946,361,-209,-336,-326
-190,-63,126,126,-158,31,653,932,341,-219,-356,-341
-190,-63,126,126,-158,31,649,912,326,-229,-361,-341
-195,-58,136,126,-165,39,644,902,317,-234,-361,-341
-190,-53,136,122,-163,41,634,873,307,-239,-366,-336
-200,-39,161,119,-180,61,629,849,297,-253,-356,-326
-204,-39,165,122,-185,63,600,814,278,-258,-351,-326
-204,-34,170,119,-187,68,575,785,268,-258,-351,-322
-209,-29,180,119,-195,75,556,756,253,-258,-346,-322
-195,-24,170,109,-183,73,527,717,234,-253,-346,-302
-195,-24,170,109,-183,73,512,683,214,-253,-336,-292
-195,-19,175,107,-185,78,483,644,200,-258,-336,-283
-190,-14,175,102,-183,80,458,595,180,-258,-322,-273
-170,-19,151,95,-161,65,434,551,161,-268,-317,-273
-165,-14,151,90,-158,68,409,507,136,-268,-307,-258
-165,-9,156,87,-161,73,380,458,122,-268,-287,-248
-161,-4,156,82,-158,75,351,414,102,-263,-278,-244
-141,-9,131,75,-136,61,317,375,73,-253,-278,-234
-126,-9,117,68,-122,53,292,331,58,-244,-258,-219
-122,-4,117,63,-119,56,263,297,39,-234,-244,-209
-117,-4,112,61,-114,53,239,263,24,-224,-229,-190
-112,4,117,53,-114,61,209,224,14,-214,-214,-165
-102,9,112,46,-107,61,190,185,4,-209,-195,-161
-82,14,97,34,-90,56,165,151,-9,-200,-175,-146
-73,19,92,26,-82,56,151,122,-19,-190,-156,-136
-63,24,87,19,-75,56,146,107,-14,-175,-151,-117
-63,24,87,19,-75,56,131,87,-24,-165,-136,-102
-53,29,82,12,-68,56,112,58,-29,-161,-122,-97
-43,34,78,4,-61,56,102,48,-34,-151,-107,-87
-39,39,78,0,-58,58,82,24,-39,-146,-102,-82
-34,39,73,-2,-53,56,73,9,-48,-146,-102,-82
-19,39,58,-9,-39,48,68,-4,-53,-146,-97,-82
-14,43,58,-14,-36,51,58,-14,-63,-146,-97,-82
-4,43,48,-19,-26,46,43,-34,-63,-136,-92,-82
-4,39,43,-17,-24,41,39,-43,-73,-131,-82,-73
0,39,39,-19,-19,39,39,-53,-73,-126,-78,-68
4,39,34,-21,-14,36,29,-63,-73,-112,-73,-63
0,39,39,-19,-19,39,19,-68,-68,-112,-58,-63
-4,43,48,-19,-26,46,19,-68,-68,-102,-53,-58
0,43,43,-21,-21,43,14,-73,-68,-102,-48,-53
-4,43,48,-19,-26,46,14,-78,-68,-97,-48,-48
0,39,39,-19,-19,39,4,-82,-68,-87,-43,-39
-4,39,43,-17,-24,41,4,-82,-68,-87,-43,-34
-4,39,43,-17,-24,41,0,-92,-68,-87,-43,-34
-4,39,43,-17,-24,41,0,-92,-78,-82,-39,-29
9,29,19,-19,-4,24,0,-107,-78,-87,-39,-39
14,29,14,-21,0,21,0,-107,-78,-87,-39,-39
19,29,9,-24,4,19,-4,-112,-78,-87,-39,-39
24,34,9,-29,7,21,-4,-112,-78,-92,-39,-39
19,43,24,-31,-2,34,-4,-107,-73,-82,-39,-29
4,39,34,-21,-14,36,-4,-102,-68,-82,-39,-29
0,39,39,-19,-19,39,0,-97,-58,-82,-34,-29
0,43,43,-21,-21,43,0,-92,-53,-82,-34,-24
24,43,19,-34,2,31,-4,-97,-63,-78,-24,-24
14,43,29,-29,-7,36,0,-97,-63,-78,-24,-29
4,43,39,-24,-17,41,9,-92,-63,-73,-24,-29
4,43,39,-24,-17,41,14,-92,-63,-73,-24,-29
9,43,34,-26,-12,39,9,-102,-68,-87,-29,-34
9,43,34,-26,-12,39,4,-102,-68,-87,-29,-34
9,43,34,-26,-12,39,0,-107,-68,-87,-29,-34
14,39,24,-26,-4,31,-4,-107,-68,-87,-29,-34
24,39,14,-31,4,26,-4,-97,-78,-73,-29,-34
14,43,29,-29,-7,36,0,-92,-73,-73,-29,-34
9,43,34,-26,-12,39,0,-92,-73,-73,-29,-34
9,39,29,-24,-9,34,4,-87,-73,-73,-29,-34
0,29,29,-14,-14,29,4,-82,-63,-82,-24,-34
-9,29,39,-9,-24,34,9,-78,-63,-78,-24,-34
-9,24,34,-7,-21,29,14,-73,-63,-78,-19,-34
-9,24,34,-7,-21,29,14,-68,-63,-78,-19,-34
0,34,34,-17,-17,34,24,-68,-58,-78,-24,-34
0,39,39,-19,-19,39,29,-68,-58,-78,-24,-34
0,43,43,-21,-21,43,29,-58,-58,-78,-24,-34
-4,48,53,-21,-29,51,29,-53,-58,-78,-24,-34
-14,48,63,-17,-39,56,43,-39,-48,-73,-14,-19
-14,43,58,-14,-36,51,43,-34,-39,-68,-14,-19
-4,43,48,-19,-26,46,43,-34,-34,-58,-9,-19
0,43,43,-21,-21,43,43,-29,-29,-53,-9,-24
4,39,34,-21,-14,36,43,-34,-39,-63,-14,-34
4,34,29,-19,-12,31,43,-34,-34,-63,-19,-34
9,29,19,-19,-4,24,43,-34,-34,-63,-24,-34
14,24,9,-19,2,17,43,-34,-34,-63,-29,-34
9,24,14,-17,-2,19,34,-29,-34,-73,-24,-39
4,19,14,-12,-4,17,39,-24,-24,-73,-24,-39
0,19,19,-9,-9,19,39,-19,-19,-63,-24,-34
-4,24,29,-9,-17,26,39,-19,-19,-63,-24,-34
-4,24,29,-9,-17,26,39,-29,-29,-58,-34,-43
0,24,24,-12,-12,24,39,-29,-29,-58,-34,-43
4,24,19,-14,-7,21,39,-24,-24,-58,-34,-43
9,24,14,-17,-2,19,39,-19,-19,-58,-34,-43
4,24,19,-14,-7,21,39,-9,-19,-48,-29,-39
0,24,24,-12,-12,24,43,-9,-14,-48,-29,-39
4,29,24,-17,-9,26,48,-9,-14,-48,-29,-39
0,29,29,-14,-14,29,53,-9,-14,-48,-29,-39
0,34,34,-17,-17,34,43,-14,-4,-48,-34,-48
4,34,29,-19,-12,31,43,-14,-4,-48,-34,-48
9,34,24,-21,-7,29,48,-9,-9,-48,-34,-48
19,34,14,-26,2,24,48,-4,-9,-43,-34,-48
14,34,19,-24,-2,26,48,-14,-14,-39,-34,-43
9,29,19,-19,-4,24,48,-19,-14,-39,-29,-43
-4,29,34,-12,-19,31,48,-19,-14,-43,-29,-43
-9,29,39,-9,-24,34,48,-14,-14,-43,-29,-43
-9,29,39,-9,-24,34,53,-4,-4,-34,-19,-43
-9,29,39,-9,-24,34,53,-4,-4,-29,-19,-43
-9,29,39,-9,-24,34,48,-4,-9,-29,-24,-43
-9,29,39,-9,-24,34,48,-9,-9,-34,-24,-43
-4,24,29,-9,-17,26,48,-19,-19,-43,-24,-53
0,24,24,-12,-12,24,53,-19,-19,-43,-24,-53
9,19,9,-14,0,14,53,-19,-19,-43,-24,-53
14,19,4,-17,4,12,53,-19,-19,-43,-24,-53
14,19,4,-17,4,12,43,-19,-24,-34,-24,-53
19,19,0,-19,9,9,43,-29,-29,-39,-24,-53
19,19,0,-19,9,9,43,-29,-29,-48,-24,-53
14,19,4,-17,4,12,39,-29,-29,-48,-24,-53
4,24,19,-14,-7,21,48,-24,-24,-48,-14,-43
4,24,19,-14,-7,21,48,-24,-24,-48,-14,-43
4,24,19,-14,-7,21,48,-24,-24,-43,-14,-43
4,24,19,-14,-7,21,48,-29,-29,-43,-14,-43
-14,14,29,0,-21,21,48,-29,-29,-34,-24,-53
-19,14,34,2,-26,24,48,-29,-34,-34,-24,-53
-24,14,39,4,-31,26,43,-39,-39,-43,-24,-53
-29,19,48,4,-39,34,43,-39,-39,-43,-24,-53
-19,19,39,0,-29,29,34,-48,-48,-53,-29,-43
-9,19,29,-4,-19,24,34,-53,-48,-53,-29,-43
9,19,9,-14,0,14,29,-58,-58,-58,-29,-43
19,19,0,-19,9,9,29,-63,-58,-58,-39,-43
19,19,0,-19,9,9,39,-63,-53,-68,-39,-43
19,19,0,-19,9,9,39,-63,-53,-68,-39,-43
19,14,-4,-17,12,4,39,-63,-53,-68,-39,-43
19,14,-4,-17,12,4,29,-68,-58,-68,-43,-43
9,29,19,-19,-4,24,39,-63,-68,-58,-43,-34
-4,29,34,-12,-19,31,39,-63,-68,-53,-39,-34
4,29,24,-17,-9,26,39,-68,-68,-53,-39,-34
4,29,24,-17,-9,26,39,-68,-73,-58,-39,-34
0,19,19,-9,-9,19,43,-68,-63,-58,-39,-43
-9,14,24,-2,-17,19,43,-73,-63,-58,-39,-43
-14,9,24,2,-19,17,39,-78,-68,-63,-39,-43
-9,4,14,2,-12,9,34,-82,-78,-68,-43,-43
-4,14,19,-4,-12,17,24,-82,-78,-78,-43,-43
-4,19,24,-7,-14,21,24,-82,-78,-78,-43,-43
0,24,24,-12,-12,24,24,-92,-82,-78,-43,-43
4,29,24,-17,-9,26,24,-92,-82,-78,-43,-43
4,34,29,-19,-12,31,29,-92,-87,-73,-43,-34
4,34,29,-19,-12,31,29,-92,-87,-73,-43,-34
9,39,29,-24,-9,34,24,-92,-92,-78,-43,-39
9,43,34,-26,-12,39,24,-97,-92,-87,-43,-39
9,34,24,-21,-7,29,34,-97,-97,-78,-34,-39
14,34,19,-24,-2,26,34,-102,-97,-78,-34,-39
9,34,24,-21,-7,29,34,-102,-92,-73,-34,-39
14,34,19,-24,-2,26,34,-102,-92,-73,-34,-39
14,24,9,-19,2,17,34,-112,-92,-73,-34,-48
14,24,9,-19,2,17,29,-112,-102,-78,-34,-48
9,24,14,-17,-2,19,29,-112,-102,-78,-34,-48
0,24,24,-12,-12,24,29,-112,-97,-78,-34,-48
9,24,14,-17,-2,19,24,-117,-107,-87,-43,-48
14,24,9,-19,2,17,19,-117,-107,-82,-43,-48
14,24,9,-19,2,17,14,-112,-107,-82,-43,-43
9,24,14,-17,-2,19,9,-112,-107,-82,-39,-39
0,19,19,-9,-9,19,14,-112,-102,-82,-29,-39
0,24,24,-12,-12,24,14,-117,-102,-82,-29,-39
4,24,19,-14,-7,21,14,-117,-102,-82,-29,-39
4,19,14,-12,-4,17,9,-117,-102,-87,-29,-39
-4,19,24,-7,-14,21,19,-107,-107,-78,-29,-39
4,19,14,-12,-4,17,19,-112,-112,-78,-29,-39
4,19,14,-12,-4,17,14,-117,-112,-78,-29,-39
0,19,19,-9,-9,19,9,-117,-112,-78,-29,-39
4,29,24,-17,-9,26,9,-107,-112,-78,-39,-48
9,29,19,-19,-4,24,9,-112,-112,-78,-39,-48
14,29,14,-21,0,21,9,-112,-112,-78,-39,-48
19,39,19,-29,0,29,9,-117,-112,-78,-39,-48
29,39,9,-34,9,24,9,-117,-117,-78,-39,-39
29,43,14,-36,7,29,14,-117,-126,-87,-29,-39
24,43,19,-34,2,31,14,-117,-117,-78,-29,-39
14,34,19,-24,-2,26,14,-126,-117,-78,-19,-39
-9,29,39,-9,-24,34,9,-117,-117,-78,-19,-39
-24,19,43,2,-34,31,9,-117,-107,-78,-19,-39
-29,19,48,4,-39,34,9,-117,-107,-78,-19,-39
-34,19,53,7,-43,36,9,-117,-107,-78,-19,-39
-39,19,58,9,-48,39,9,-117,-107,-78,-19,-39
-19,34,53,-7,-36,43,9,-117,-117,-78,-19,-29
-9,34,43,-12,-26,39,14,-117,-112,-78,-19,-24
0,34,34,-17,-17,34,14,-117,-112,-78,-19,-24
14,34,19,-24,-2,26,14,-126,-122,-78,-19,-24
29,24,-4,-26,17,9,4,-136,-122,-78,-29,-29
34,24,-9,-29,21,7,4,-131,-117,-78,-29,-34
39,29,-9,-34,24,9,0,-131,-117,-78,-29,-39
43,29,-14,-36,29,7,0,-126,-117,-78,-29,-43
34,34,0,-34,17,17,4,-126,-112,-82,-39,-53
29,39,9,-34,9,24,9,-122,-107,-68,-24,-39
24,48,24,-36,0,36,19,-117,-102,-68,-24,-39
14,63,48,-39,-17,56,24,-117,-97,-68,-24,-34
14,68,53,-41,-19,61,24,-112,-102,-68,-19,-34
19,68,48,-43,-14,58,24,-107,-102,-63,-19,-29
24,73,48,-48,-12,61,29,-107,-102,-63,-19,-29
29,78,48,-53,-9,63,29,-107,-97,-58,-14,-29
34,97,63,-65,-14,80,43,-97,-82,-39,-4,-19
29,102,73,-65,-21,87,53,-92,-78,-34,0,-9
24,112,87,-68,-31,100,58,-87,-73,-29,4,0
19,117,97,-68,-39,107,63,-82,-68,-24,9,9
34,117,82,-75,-24,100,58,-92,-78,-34,9,9
39,117,78,-78,-19,97,58,-78,-68,-34,9,9
43,117,73,-80,-14,95,53,-78,-68,-29,4,4
53,117,63,-85,-4,90,48,-82,-73,-43,-4,0
43,112,68,-78,-12,90,48,-73,-78,-39,0,-4
39,107,68,-73,-14,87,39,-87,-78,-43,0,-4
39,107,68,-73,-14,87,24,-102,-92,-53,0,-4
39,112,73,-75,-17,92,9,-117,-97,-53,0,-4
43,107,63,-75,-9,85,-19,-126,-97,-63,0,-9
48,112,63,-80,-7,87,-29,-136,-97,-63,0,-9
48,126,78,-87,-14,102,-34,-141,-97,-58,4,-9
48,141,92,-95,-21,117,-43,-146,-102,-58,9,0
39,156,117,-97,-39,136,-43,-141,-92,-53,24,9
29,161,131,-95,-51,146,-53,-146,-92,-48,24,14
19,165,146,-92,-63,156,-63,-151,-97,-43,24,19
14,165,151,-90,-68,158,-68,-151,-97,-39,19,29
19,175,156,-97,-68,165,-68,-161,-97,-48,19,29
19,175,156,-97,-68,165,-73,-165,-107,-58,19,24
19,170,151,-95,-65,161,-73,-175,-112,-58,19,24
14,161,146,-87,-65,153,-73,-180,-112,-58,19,29
29,161,131,-95,-51,146,-78,-190,-122,-68,14,24
34,146,112,-90,-39,129,-87,-200,-131,-73,9,14
39,141,102,-90,-31,122,-97,-200,-141,-73,4,9
58,136,78,-97,-9,107,-102,-195,-146,-73,0,4
68,141,73,-104,-2,107,-102,-180,-136,-73,9,19
73,126,53,-100,9,90,-102,-180,-136,-73,9,19
78,107,29,-92,24,68,-102,-180,-146,-78,9,14
82,97,14,-90,34,56,-102,-180,-146,-87,9,14
92,107,14,-100,39,61,-102,-185,-151,-78,0,4
97,112,14,-104,41,63,-87,-185,-146,-78,0,4
107,112,4,-109,51,58,-78,-180,-146,-78,0,4
107,112,4,-109,51,58,-73,-175,-141,-78,0,4
87,107,19,-97,34,63,-58,-165,-136,-68,0,9
73,92,19,-82,26,56,-48,-161,-131,-68,4,4
53,78,24,-65,14,51,-43,-156,-131,-78,-4,0
48,68,19,-58,14,43,-39,-151,-131,-78,-4,4
34,68,34,-51,0,51,-39,-151,-131,-82,-14,-9
29,63,34,-46,-2,48,-34,-151,-136,-92,-19,-24
24,43,19,-34,2,31,-34,-151,-141,-97,-34,-39
14,29,14,-21,0,21,-34,-151,-151,-107,-39,-39
9,29,19,-19,-4,24,-24,-151,-151,-107,-39,-39
9,24,14,-17,-2,19,-24,-151,-151,-107,-39,-39
9,19,9,-14,0,14,-19,-151,-151,-107,-43,-43
9,19,9,-14,0,14,-19,-151,-151,-107,-43,-43
0,9,9,-4,-4,9,-24,-161,-151,-107,-43,-34
4,9,4,-7,0,7,-24,-161,-156,-112,-48,-34
4,4,0,-4,2,2,-29,-165,-156,-112,-48,-39
14,4,-9,-9,12,-2,-29,-165,-156,-117,-48,-39
14,4,-9,-9,12,-2,-39,-156,-161,-117,-48,-48
4,4,0,-4,2,2,-29,-156,-161,-117,-48,-43
0,4,4,-2,-2,4,-29,-156,-151,-117,-48,-43
0,4,4,-2,-2,4,-29,-156,-151,-117,-48,-43
-9,4,14,2,-12,9,-19,-156,-141,-107,-58,-34
-9,4,14,2,-12,9,-19,-156,-141,-107,-58,-34
-9,4,14,2,-12,9,-9,-156,-141,-102,-53,-34
-4,4,9,0,-7,7,-9,-156,-141,-102,-53,-34
-4,4,9,0,-7,7,-14,-146,-141,-102,-48,-34
0,4,4,-2,-2,4,-14,-156,-151,-107,-58,-39
29,4,-24,-17,26,-9,-19,-156,-151,-117,-58,-48
39,14,-24,-26,31,-4,-24,-151,-161,-126,-63,-58
14,9,-4,-12,9,2,-14,-146,-161,-122,-68,-58
0,0,0,0,0,0,4,-122,-151,-122,-68,-63
0,-9,-9,4,4,-9,29,-82,-131,-131,-73,-68
-9,-34,-24,21,7,-29,63,-24,-126,-141,-92,-87
-29,-68,-39,48,4,-53,92,39,-102,-141,-112,-107
-19,-78,-58,48,19,-68,112,117,-48,-122,-112,-107
4,-58,-63,26,34,-61,112,204,39,-58,-73,-87
53,-19,-73,-17,63,-46,97,278,156,48,4,-24
156,58,-97,-107,126,-19,63,317,292,190,102,43
234,136,-97,-185,165,19,-9,312,439,385,248,156
287,209,-78,-248,183,65,-82,283,605,610,424,287
385,326,-58,-356,222,134,-170,214,771,839,614,439
502,497,-4,-500,253,246,-297,73,927,1112,849,619
610,663,53,-636,278,358,-541,-156,1049,1405,1117,854
761,829,68,-795,346,448,-873,-468,1068,1688,1395,1083
912,980,68,-946,422,524,-1210,-795,1024,1893,1620,1288
1024,1127,102,-1076,461,614,-1498,-1102,927,2030,1815,1473
1166,1293,126,-1229,519,710,-1795,-1371,834,2152,2005,1678
1288,1522,234,-1405,527,878,-2030,-1571,771,2278,2205,1883
1332,1712,380,-1522,475,1046,-2186,-1781,649,2318,2347,2039
1322,1839,517,-1581,402,1178,-2342,-2113,380,2191,2376,2132
1293,1898,605,-1595,344,1251,-2532,-2537,-29,1922,2308,2156
1176,1834,658,-1505,258,1246,-2630,-3001,-590,1444,2108,2083
966,1605,639,-1285,163,1122,-2620,-3440,-1283,761,1732,1873
795,1307,512,-1051,141,910,-2527,-3630,-1830,92,1312,1586
678,1010,331,-844,173,671,-2293,-3367,-1991,-326,941,1302
522,707,185,-614,168,446,-1898,-2810,-1844,-507,653,1019
370,497,126,-434,122,312,-1512,-2264,-1581,-556,458,790
273,453,180,-363,46,317,-1254,-1839,-1288,-473,380,668
234,483,248,-358,-7,366,-1024,-1449,-1024,-356,366,610
190,429,239,-309,-24,334,-775,-1102,-785,-273,302,502
126,341,214,-234,-43,278,-551,-805,-590,-234,204,356
58,248,190,-153,-65,219,-385,-570,-458,-244,63,180
0,161,161,-80,-80,161,-248,-414,-375,-263,-63,29
-24,107,131,-41,-78,119,-146,-297,-297,-244,-107,-53
-4,87,92,-41,-48,90,-63,-195,-219,-190,-82,-58
19,73,53,-46,-17,63,0,-112,-156,-161,-73,-53
19,34,14,-26,2,24,48,-48,-117,-136,-73,-63
34,0,-34,-17,34,-17,87,9,-87,-126,-73,-78
39,-4,-43,-17,41,-24,112,58,-78,-117,-63,-78
0,-14,-14,7,7,-14,131,82,-53,-117,-63,-68
-29,-24,4,26,-17,-9,161,112,-39,-107,-58,-63
-24,-19,4,21,-14,-7,175,122,-29,-107,-58,-68
-29,-34,-4,31,-12,-19,165,117,-43,-112,-68,-78
-34,-34,0,34,-17,-17,170,117,-48,-117,-73,-82
-48,-43,4,46,-26,-19,185,131,-48,-122,-78,-87
-48,-48,0,48,-24,-24,185,136,-48,-126,-87,-92
-39,-58,-19,48,-9,-39,190,136,-43,-126,-97,-97
-39,-58,-19,48,-9,-39,195,151,-39,-126,-102,-102
-29,-63,-34,46,2,-48,195,156,-43,-126,-102,-117
-14,-68,-53,41,19,-61,190,161,-48,-122,-107,-126
-29,-63,-34,46,2,-48,209,170,-34,-117,-102,-122
-34,-58,-24,46,-4,-41,214,180,-24,-112,-97,-117
-39,-58,-19,48,-9,-39,219,185,-19,-107,-92,-112
-34,-53,-19,43,-7,-36,224,190,-14,-102,-92,-112
-14,-53,-39,34,12,-46,219,195,-24,-112,-102,-112
-9,-53,-43,31,17,-48,219,200,-19,-112,-102,-112
-4,-53,-48,29,21,-51,219,204,-14,-112,-102,-112
4,-48,-53,21,29,-51,224,204,-14,-112,-107,-112
9,-48,-58,19,34,-53,224,209,-9,-122,-107,-122
4,-48,-53,21,29,-51,229,214,-4,-112,-102,-122
-9,-53,-43,31,17,-48,234,219,0,-112,-102,-122
-4,-53,-48,29,21,-51,234,234,4,-107,-102,-122
0,-53,-53,26,26,-53,234,239,19,-92,-87,-112
-9,-53,-43,31,17,-48,239,244,24,-92,-87,-112
-19,-53,-34,36,7,-43,239,248,29,-92,-87,-117
-29,-53,-24,41,-2,-39,239,248,34,-92,-97,-117
-29,-63,-34,46,2,-48,239,263,29,-92,-97,-117
-29,-63,-34,46,2,-48,239,263,34,-92,-97,-117
-29,-63,-34,46,2,-48,239,268,34,-92,-97,-117
-29,-63,-34,46,2,-48,239,273,39,-92,-97,-117
-24,-53,-29,39,2,-41,234,283,43,-87,-107,-126
-19,-53,-34,36,7,-43,234,287,48,-87,-107,-126
-14,-53,-39,34,12,-46,234,292,53,-87,-102,-126
-9,-53,-43,31,17,-48,234,287,58,-82,-102,-126
-14,-53,-39,34,12,-46,239,292,68,-73,-92,-122
-14,-53,-39,34,12,-46,239,297,73,-73,-87,-122
-19,-53,-34,36,7,-43,244,312,78,-68,-87,-122
-24,-58,-34,41,4,-46,244,317,82,-68,-97,-122
-39,-68,-29,53,-4,-48,239,317,82,-73,-102,-126
-39,-68,-29,53,-4,-48,244,331,82,-78,-107,-131
-29,-68,-39,48,4,-53,248,331,82,-82,-117,-136
-29,-63,-34,46,2,-48,248,336,78,-87,-126,-146
-29,-53,-24,41,-2,-39,248,336,82,-87,-126,-146
-29,-53,-24,41,-2,-39,253,346,87,-82,-126,-146
-24,-53,-29,39,2,-41,258,356,92,-82,-126,-146
-24,-53,-29,39,2,-41,258,361,92,-82,-131,-146
-14,-53,-39,34,12,-46,278,380,102,-73,-126,-146
-19,-53,-34,36,7,-43,278,385,112,-68,-122,-141
-19,-63,-43,41,12,-53,283,395,122,-68,-117,-136
-24,-63,-39,43,7,-51,283,405,131,-68,-112,-136
-34,-63,-29,48,-2,-46,287,409,136,-63,-112,-141
-34,-63,-29,48,-2,-46,287,419,141,-63,-112,-141
-29,-63,-34,46,2,-48,292,429,146,-63,-117,-146
-29,-58,-29,43,0,-43,297,439,151,-63,-122,-146
-39,-68,-29,53,-4,-48,297,448,156,-63,-122,-156
-39,-68,-29,53,-4,-48,317,463,156,-63,-117,-156
-39,-73,-34,56,-2,-53,317,468,156,-63,-117,-161
-39,-73,-34,56,-2,-53,322,478,151,-63,-122,-161
-34,-63,-29,48,-2,-46,322,497,165,-73,-131,-161
-34,-63,-29,48,-2,-46,331,512,175,-73,-131,-170
-34,-68,-34,51,0,-51,346,531,185,-68,-131,-170
-39,-68,-29,53,-4,-48,351,541,195,-68,-131,-170
-48,-68,-19,58,-14,-43,366,551,200,-53,-131,-165
-48,-68,-19,58,-14,-43,370,566,204,-53,-131,-165
-53,-68,-14,61,-19,-41,375,580,214,-53,-136,-175
-58,-73,-14,65,-21,-43,380,595,219,-58,-141,-175
-58,-73,-14,65,-21,-43,385,610,229,-58,-141,-175
-53,-73,-19,63,-17,-46,395,629,234,-58,-146,-185
-39,-68,-29,53,-4,-48,395,644,234,-58,-151,-190
-29,-68,-39,48,4,-53,405,658,248,-58,-156,-195
-29,-68,-39,48,4,-53,414,668,253,-58,-156,-195
-34,-68,-34,51,0,-51,424,688,268,-58,-161,-195
-48,-68,-19,58,-14,-43,434,707,268,-58,-161,-195
-48,-68,-19,58,-14,-43,448,727,283,-58,-170,-204
-48,-73,-24,61,-12,-48,458,746,292,-58,-170,-204
-48,-73,-24,61,-12,-48,463,766,302,-58,-175,-204
-48,-73,-24,61,-12,-48,478,780,312,-58,-180,-209
-58,-73,-14,65,-21,-43,488,800,317,-58,-195,-214
-58,-82,-24,70,-17,-53,507,824,322,-58,-190,-214
-58,-82,-24,70,-17,-53,517,849,331,-58,-190,-214
-58,-82,-24,70,-17,-53,527,863,341,-63,-200,-219
-68,-82,-14,75,-26,-48,531,883,351,-63,-200,-224
-87,-73,14,80,-51,-29,536,902,351,-63,-204,-229
-107,-73,34,90,-70,-19,551,922,366,-63,-209,-239
-117,-78,39,97,-78,-19,561,936,375,-68,-214,-239
-126,-82,43,104,-85,-19,575,951,375,-73,-219,-244
-117,-73,43,95,-80,-14,575,956,395,-87,-234,-258
-102,-73,29,87,-65,-21,575,971,385,-102,-248,-273
-92,-68,24,80,-58,-21,580,976,385,-107,-253,-278
-82,-68,14,75,-48,-26,585,990,385,-117,-263,-278
-92,-58,34,75,-63,-12,590,1000,385,-117,-273,-287
-97,-58,39,78,-68,-9,605,1010,390,-122,-278,-292
-102,-58,43,80,-73,-7,610,1019,390,-126,-287,-297
-107,-58,48,82,-78,-4,619,1034,390,-141,-292,-297
-107,-68,39,87,-73,-14,629,1034,385,-156,-302,-307
-107,-68,39,87,-73,-14,624,1029,380,-161,-302,-312
-112,-68,43,90,-78,-12,624,1029,380,-165,-317,-317
-112,-63,48,87,-80,-7,619,1019,370,-180,-326,-326
-126,-63,63,95,-95,0,619,1015,361,-185,-336,-336
-131,-58,73,95,-102,7,619,1005,361,-190,-336,-336
-136,-53,82,95,-109,14,619,1000,356,-190,-336,-336
-136,-53,82,95,-109,14,614,985,351,-200,-336,-336
-151,-63,87,107,-119,12,614,985,341,-219,-346,-341
-161,-63,97,112,-129,17,610,971,326,-229,-351,-341
-175,-58,117,117,-146,29,605,966,317,-234,-351,-341
-180,-53,126,117,-153,36,595,941,307,-239,-356,-336
-175,-39,136,107,-156,48,580,922,287,-253,-366,-341
-175,-39,136,107,-156,48,551,883,268,-258,-361,-346
-170,-34,136,102,-153,51,527,849,258,-258,-361,-346
-170,-29,141,100,-156,56,507,814,244,-258,-356,-351
-165,-34,131,100,-148,48,488,785,229,-273,-356,-341
-165,-34,131,100,-148,48,473,751,204,-273,-346,-331
-165,-29,136,97,-151,53,444,712,185,-278,-346,-322
-161,-24,136,92,-148,56,419,663,161,-278,-331,-312
-131,-29,102,80,-117,36,395,619,131,-287,-336,-302
-126,-24,102,75,-114,39,370,575,107,-287,-326,-287
-126,-19,107,73,-117,43,341,527,92,-287,-307,-278
-122,-14,107,68,-114,46,312,483,73,-283,-297,-273
-122,-4,117,63,-119,56,287,453,63,-273,-287,-253
-107,0,107,53,-107,53,263,409,48,-263,-268,-239
-102,9,112,46,-107,61,234,375,29,-253,-253,-229
-97,14,112,41,-104,63,209,341,14,-244,-239,-209
-78,14,92,31,-85,53,190,302,-4,-234,-219,-195
-63,19,82,21,-73,51,170,263,-14,-229,-204,-190
-39,24,63,7,-51,43,146,229,-29,-219,-190,-175
-24,29,53,-2,-39,41,131,200,-39,-209,-175,-165
-34,34,68,0,-51,51,117,185,-34,-185,-151,-136
-34,34,68,0,-51,51,102,165,-43,-175,-136,-122
-24,39,63,-7,-43,51,82,136,-48,-170,-122,-117
-14,43,58,-14,-36,51,73,126,-53,-161,-107,-107
-24,39,63,-7,-43,51,63,102,-63,-151,-107,-87
-24,39,63,-7,-43,51,53,87,-68,-146,-102,-82
-14,39,53,-12,-34,46,48,73,-68,-141,-92,-78
-14,43,58,-14,-36,51,39,63,-73,-136,-87,-73
-14,43,58,-14,-36,51,14,43,-73,-131,-78,-73
-14,39,53,-12,-34,46,9,34,-82,-122,-63,-63
-9,39,48,-14,-29,43,9,24,-82,-112,-53,-58
-4,39,43,-17,-24,41,0,14,-82,-92,-43,-53
14,39,24,-26,-4,31,-9,4,-97,-107,-43,-58
24,43,19,-34,2,31,-9,0,-97,-102,-43,-58
43,43,0,-43,21,21,-14,-9,-97,-107,-43,-58
53,43,-9,-48,31,17,-14,-19,-97,-107,-48,-58
43,39,-4,-41,24,17,-14,-14,-97,-97,-34,-48
34,39,4,-36,14,21,-14,-14,-97,-97,-34,-43
29,39,9,-34,9,24,-19,-24,-97,-97,-34,-43
24,39,14,-31,4,26,-19,-24,-107,-92,-29,-39
34,43,9,-39,12,26,-19,-29,-102,-78,-19,-29
34,48,14,-41,9,31,-19,-29,-97,-78,-19,-29
34,53,19,-43,7,36,-24,-34,-92,-78,-19,-29
34,63,29,-48,2,46,-24,-34,-87,-82,-19,-29
24,63,39,-43,-7,51,-24,-34,-97,-82,-29,-39
14,58,43,-36,-14,51,-24,-34,-97,-82,-29,-39
14,58,43,-36,-14,51,-19,-34,-92,-82,-24,-39
19,63,43,-41,-12,53,-19,-34,-92,-82,-24,-34
24,53,29,-39,-2,41,-19,-29,-92,-78,-14,-24
14,53,39,-34,-12,46,-19,-29,-92,-78,-14,-29
4,53,48,-29,-21,51,-14,-24,-92,-73,-14,-29
4,53,48,-29,-21,51,-14,-24,-92,-73,-14,-29
9,53,43,-31,-17,48,-14,-24,-97,-78,-19,-24
9,53,43,-31,-17,48,-14,-24,-97,-78,-19,-24
9,53,43,-31,-17,48,-14,-29,-97,-78,-19,-24
14,48,34,-31,-9,41,-14,-29,-97,-78,-19,-24
29,39,9,-34,9,24,-24,-39,-97,-82,-29,-34
24,43,19,-34,2,31,-19,-34,-92,-82,-29,-34
24,43,19,-34,2,31,-19,-34,-92,-82,-29,-34
29,39,9,-34,9,24,-14,-29,-92,-82,-29,-34
19,39,19,-29,0,29,-14,-14,-82,-82,-34,-34
9,39,29,-24,-9,34,-9,-9,-82,-78,-34,-34
9,34,24,-21,-7,29,-4,-4,-82,-78,-29,-34
9,34,24,-21,-7,29,-4,0,-82,-78,-29,-34
24,43,19,-34,2,31,4,9,-78,-78,-24,-34
29,48,19,-39,4,34,9,9,-78,-78,-24,-34
34,53,19,-43,7,36,9,19,-78,-78,-24,-34
34,58,24,-46,4,41,9,24,-78,-78,-24,-34
19,58,39,-39,-9,48,24,29,-63,-78,-24,-19
14,53,39,-34,-12,46,24,34,-58,-78,-24,-19
19,53,34,-36,-7,43,24,34,-58,-73,-19,-19
19,53,34,-36,-7,43,24,39,-58,-73,-19,-24
29,48,19,-39,4,34,14,34,-58,-73,-29,-24
24,43,19,-34,2,31,14,34,-53,-73,-29,-24
24,39,14,-31,4,26,14,34,-53,-73,-29,-24
24,34,9,-29,7,21,14,34,-53,-73,-29,-24
39,39,0,-39,19,19,14,39,-63,-73,-24,-29
43,39,-4,-41,24,17,19,43,-53,-73,-24,-29
48,43,-4,-46,26,19,19,48,-48,-63,-24,-24
53,53,0,-53,26,26,19,48,-48,-63,-24,-24
