I,II,III,aVR,aVL,aVF,V1,V2,V3,V4,V5,V6
-29,-39,-9,34,-9,-24,-9,126,156,58,0,-29
-29,-39,-9,34,-9,-24,-9,126,156,58,0,-29
-29,-39,-9,34,-9,-24,-9,126,156,58,0,-29
-29,-39,-9,34,-9,-24,-9,126,156,58,0,-29
-34,-43,-9,39,-12,-26,-19,112,146,43,-14,-39
-39,-48,-9,43,-14,-29,-19,97,136,39,-19,-39
-43,-53,-9,48,-17,-31,-19,82,126,34,-24,-39
-48,-58,-9,53,-19,-34,-19,68,117,29,-29,-39
-58,-68,-9,63,-24,-39,-24,53,102,19,-43,-43
-58,-68,-9,63,-24,-39,-29,48,97,9,-48,-48
-58,-68,-9,63,-24,-39,-34,43,92,0,-53,-53
-58,-68,-9,63,-24,-39,-39,39,87,-9,-58,-58
-68,-73,-4,70,-31,-39,-48,34,82,-19,-63,-63
-68,-78,-9,73,-29,-43,-48,29,78,-19,-68,-68
-68,-82,-14,75,-26,-48,-48,24,73,-19,-73,-73
-68,-87,-19,78,-24,-53,-48,19,68,-19,-78,-78
-78,-87,-9,82,-34,-48,-58,9,58,-29,-87,-78
-78,-87,-9,82,-34,-48,-58,9,58,-29,-87,-78
-78,-87,-9,82,-34,-48,-58,9,58,-29,-87,-78
-78,-87,-9,82,-34,-48,-58,9,58,-29,-87,-78
-78,-87,-9,82,-34,-48,-58,0,48,-34,-97,-87
-78,-87,-9,82,-34,-48,-58,0,48,-39,-97,-87
-78,-87,-9,82,-34,-48,-58,0,48,-43,-97,-87
-78,-87,-9,82,-34,-48,-58,0,48,-48,-97,-87
-78,-87,-9,82,-34,-48,-58,-9,39,-48,-97,-87
-78,-87,-9,82,-34,-48,-58,-9,39,-48,-97,-87
-78,-87,-9,82,-34,-48,-58,-9,39,-48,-97,-87
-78,-87,-9,82,-34,-48,-58,-9,39,-48,-97,-87
-78,-78,0,78,-39,-39,-58,-9,39,-48,-97,-78
-78,-78,0,78,-39,-39,-58,-9,39,-48,-97,-78
-78,-78,0,78,-39,-39,-58,-9,39,-48,-97,-78
-78,-78,0,78,-39,-39,-58,-9,39,-48,-97,-78
-68,-78,-9,73,-29,-43,-48,0,48,-39,-87,-78
-68,-78,-9,73,-29,-43,-48,0,48,-39,-87,-78
-68,-78,-9,73,-29,-43,-48,0,48,-39,-87,-78
-68,-78,-9,73,-29,-43,-48,0,48,-39,-87,-78
-68,-68,0,68,-34,-34,-48,9,39,-29,-87,-78
-68,-68,0,68,-34,-34,-48,9,39,-29,-87,-78
-68,-68,0,68,-34,-34,-48,9,39,-29,-87,-78
-68,-68,0,68,-34,-34,-48,9,39,-29,-87,-78
-68,-68,0,68,-34,-34,-39,9,48,-29,-87,-68
-68,-68,0,68,-34,-34,-39,9,48,-29,-87,-68
-68,-68,0,68,-34,-34,-39,9,48,-29,-87,-68
-68,-68,0,68,-34,-34,-39,9,48,-29,-87,-68
-58,-58,0,58,-29,-29,-48,9,58,-19,-78,-68
-58,-58,0,58,-29,-29,-48,9,58,-19,-78,-68
-58,-58,0,58,-29,-29,-48,9,58,-19,-78,-68
-58,-58,0,58,-29,-29,-48,9,58,-19,-78,-68
-58,-48,9,53,-34,-19,-39,19,68,-9,-78,-58
-58,-48,9,53,-34,-19,-39,19,68,-9,-78,-58
-58,-48,9,53,-34,-19,-39,19,68,-9,-78,-58
-58,-48,9,53,-34,-19,-39,19,68,-9,-78,-58
-48,-48,0,48,-24,-24,-39,19,68,0,-68,-48
-48,-48,0,48,-24,-24,-39,19,68,0,-68,-48
-48,-48,0,48,-24,-24,-39,19,68,0,-68,-48
-48,-48,0,48,-24,-24,-39,19,68,0,-68,-48
-48,-48,0,48,-24,-24,-29,29,78,0,-68,-58
-48,-48,0,48,-24,-24,-29,29,78,0,-68,-58
-48,-48,0,48,-24,-24,-29,29,78,0,-68,-58
-48,-48,0,48,-24,-24,-29,29,78,0,-68,-58
-48,-48,0,48,-24,-24,-29,19,68,9,-68,-58
-48,-48,0,48,-24,-24,-29,19,68,9,-68,-58
-48,-48,0,48,-24,-24,-29,19,68,9,-68,-58
-48,-48,0,48,-24,-24,-29,19,68,9,-68,-58
-48,-48,0,48,-24,-24,-29,19,68,0,-78,-58
-48,-48,0,48,-24,-24,-29,19,68,0,-78,-58
-48,-48,0,48,-24,-24,-29,19,68,0,-78,-58
-48,-48,0,48,-24,-24,-29,19,68,0,-78,-58
-48,-58,-9,53,-19,-34,-29,19,58,-9,-78,-58
-48,-58,-9,53,-19,-34,-29,19,58,-9,-78,-58
-48,-58,-9,53,-19,-34,-29,19,58,-9,-78,-58
-48,-58,-9,53,-19,-34,-29,19,58,-9,-78,-58
-48,-58,-9,53,-19,-34,-29,9,58,-9,-87,-58
-48,-58,-9,53,-19,-34,-24,9,53,-14,-87,-58
-53,-58,-4,56,-24,-31,-24,9,53,-14,-87,-63
-53,-58,-4,56,-24,-31,-24,9,53,-9,-87,-63
-43,-43,0,43,-21,-21,-34,9,53,-14,-97,-63
-43,-39,4,41,-24,-17,-29,9,58,-14,-97,-63
-39,-24,14,31,-26,-4,-19,14,58,-19,-92,-63
-39,-19,19,29,-29,0,-14,14,63,-19,-87,-58
-39,-19,19,29,-29,0,-4,4,63,-9,-87,-58
-39,-19,19,29,-29,0,0,14,68,-4,-87,-53
-39,-9,29,24,-34,9,0,14,68,-4,-87,-53
-39,-9,29,24,-34,9,4,14,73,-4,-87,-53
-39,0,39,19,-39,19,0,14,73,-9,-82,-53
-39,4,43,17,-41,24,4,24,82,-9,-82,-53
-43,9,53,17,-48,31,19,29,82,-9,-82,-53
-43,9,53,17,-48,31,39,34,87,-9,-82,-53
-43,9,53,17,-48,31,48,39,92,0,-78,-53
-43,9,53,17,-48,31,58,48,97,0,-78,-43
-39,14,53,12,-46,34,68,53,102,4,-73,-43
-39,14,53,12,-46,34,73,63,107,9,-68,-39
-39,24,63,7,-51,43,73,63,117,14,-68,-39
-34,24,58,4,-46,41,68,68,117,14,-63,-39
-29,19,48,4,-39,34,68,68,117,14,-63,-39
-29,9,39,9,-34,24,53,53,107,9,-68,-39
-24,4,29,9,-26,17,34,48,102,14,-68,-39
-24,4,29,9,-26,17,14,29,92,4,-73,-43
-24,4,29,9,-26,17,9,9,82,0,-78,-43
-24,0,24,12,-24,12,0,4,68,-4,-87,-53
-24,-9,14,17,-19,2,-14,-14,48,-19,-107,-58
-24,-14,9,19,-17,-2,-19,-14,43,-29,-112,-58
-24,-14,9,19,-17,-2,-19,-14,43,-29,-112,-63
-24,-19,4,21,-14,-7,-19,-14,43,-34,-112,-63
-24,-34,-9,29,-7,-21,-19,-9,48,-39,-112,-78
-24,-34,-9,29,-7,-21,-24,-14,43,-43,-117,-78
-24,-39,-14,31,-4,-26,-29,-19,39,-43,-122,-78
-29,-43,-14,36,-7,-29,-39,-24,34,-48,-126,-82
-29,-39,-9,34,-9,-24,-34,-19,24,-53,-131,-87
-29,-43,-14,36,-7,-29,-43,-29,19,-58,-136,-92
-34,-48,-14,41,-9,-31,-48,-39,9,-68,-141,-92
-34,-53,-19,43,-7,-36,-58,-43,4,-73,-146,-97
-34,-63,-29,48,-2,-46,-58,-48,-4,-78,-146,-87
-39,-68,-29,53,-4,-48,-63,-48,-9,-78,-151,-87
-39,-73,-34,56,-2,-53,-63,-53,-9,-82,-151,-87
-43,-73,-29,58,-7,-51,-63,-53,-9,-82,-151,-92
-34,-73,-39,53,2,-56,-73,-53,-14,-82,-151,-92
-43,-73,-29,58,-7,-51,-68,-53,-14,-87,-151,-97
-43,-68,-24,56,-9,-46,-63,-53,-14,-87,-156,-97
-48,-63,-14,56,-17,-39,-58,-48,-14,-87,-156,-97
-58,-63,-4,61,-26,-34,-48,-48,-14,-92,-156,-97
-58,-63,-4,61,-26,-34,-43,-48,-14,-92,-161,-102
-58,-68,-9,63,-24,-39,-39,-48,-14,-92,-161,-107
-63,-68,-4,65,-29,-36,-34,-48,-14,-92,-161,-107
-63,-78,-14,70,-24,-46,-34,-48,-14,-82,-156,-107
-63,-87,-24,75,-19,-56,-34,-48,-14,-92,-161,-107
-68,-92,-24,80,-21,-58,-34,-48,-19,-92,-161,-112
-68,-92,-24,80,-21,-58,-34,-48,-24,-92,-161,-112
-68,-82,-14,75,-26,-48,-34,-43,-24,-102,-170,-112
-68,-82,-14,75,-26,-48,-34,-48,-24,-102,-170,-112
-73,-82,-9,78,-31,-46,-34,-48,-24,-102,-175,-112
-73,-82,-9,78,-31,-46,-34,-48,-29,-107,-175,-117
-73,-87,-14,80,-29,-51,-43,-58,-29,-117,-175,-117
-73,-87,-14,80,-29,-51,-48,-58,-29,-117,-180,-117
-73,-92,-19,82,-26,-56,-48,-63,-29,-117,-180,-117
-73,-92,-19,82,-26,-56,-48,-63,-34,-117,-175,-117
-68,-82,-14,75,-26,-48,-39,-63,-43,-117,-185,-117
-68,-82,-14,75,-26,-48,-39,-63,-43,-122,-185,-122
-68,-82,-14,75,-26,-48,-39,-63,-43,-122,-185,-122
-73,-82,-9,78,-31,-46,-39,-63,-43,-126,-185,-122
-73,-82,-9,78,-31,-46,-34,-63,-43,-126,-185,-122
-73,-87,-14,80,-29,-51,-34,-63,-43,-126,-185,-117
-73,-87,-14,80,-29,-51,-34,-63,-43,-126,-185,-117
-73,-87,-14,80,-29,-51,-34,-68,-43,-122,-190,-117
-82,-97,-14,90,-34,-56,-34,-68,-43,-122,-180,-117
-78,-97,-19,87,-29,-58,-39,-68,-43,-122,-180,-117
-78,-97,-19,87,-29,-58,-39,-68,-43,-122,-180,-122
-82,-97,-14,90,-34,-56,-39,-68,-43,-122,-180,-122
-82,-92,-9,87,-36,-51,-29,-68,-43,-131,-190,-126
-78,-92,-14,85,-31,-53,-29,-68,-43,-131,-190,-126
-73,-92,-19,82,-26,-56,-29,-68,-43,-131,-190,-131
-68,-92,-24,80,-21,-58,-29,-68,-43,-131,-190,-131
-68,-92,-24,80,-21,-58,-29,-68,-48,-136,-190,-126
-68,-97,-29,82,-19,-63,-29,-68,-48,-141,-195,-131
-73,-102,-29,87,-21,-65,-24,-63,-53,-146,-200,-136
-73,-107,-34,90,-19,-70,-19,-63,-53,-151,-209,-136
-73,-112,-39,92,-17,-75,-19,-58,-53,-151,-200,-141
-68,-107,-39,87,-14,-73,-19,-53,-53,-151,-204,-151
-78,-107,-29,92,-24,-68,-19,-43,-39,-141,-195,-146
-63,-102,-39,82,-12,-70,-34,-43,-9,-112,-180,-141
-48,-97,-48,73,0,-73,-53,-63,9,-82,-156,-117
-34,-87,-53,61,9,-70,-102,-112,4,-58,-126,-92
-19,-82,-63,51,21,-73,-165,-200,-14,-39,-87,-58
14,-78,-92,31,53,-85,-258,-302,-73,-39,-63,-29
48,-73,-122,12,85,-97,-361,-439,-185,-63,-39,-4
97,-73,-170,-12,134,-122,-468,-624,-346,-97,-24,34
151,-53,-204,-48,178,-129,-585,-800,-512,-117,-4,78
219,-39,-258,-90,239,-148,-663,-922,-619,-102,68,151
302,0,-302,-151,302,-151,-746,-1005,-683,-58,165,248
370,58,-312,-214,341,-126,-839,-1102,-722,-19,273,351
424,126,-297,-275,361,-85,-907,-1190,-736,43,380,453
478,190,-287,-334,383,-48,-951,-1210,-688,131,488,551
512,244,-268,-378,390,-12,-1005,-1249,-678,170,541,614
541,268,-273,-405,407,-2,-1063,-1312,-751,122,527,624
536,268,-268,-402,402,0,-1107,-1405,-878,-4,448,600
492,273,-219,-383,356,26,-1102,-1498,-1005,-151,331,541
370,239,-131,-305,251,53,-1034,-1581,-1151,-366,141,419
219,170,-48,-195,134,61,-956,-1664,-1312,-629,-112,244
63,102,39,-82,12,70,-878,-1703,-1424,-858,-336,68
-73,39,112,17,-92,75,-800,-1673,-1444,-966,-483,-68
-165,-24,141,95,-153,58,-712,-1576,-1405,-1000,-585,-175
-204,-68,136,136,-170,34,-619,-1468,-1332,-1000,-634,-248
-234,-78,156,156,-195,39,-561,-1361,-1239,-946,-634,-273
-258,-78,180,168,-219,51,-522,-1268,-1146,-897,-619,-283
-253,-78,175,165,-214,48,-497,-1171,-1049,-839,-605,-283
-234,-78,156,156,-195,39,-468,-1034,-922,-766,-561,-268
-219,-73,146,146,-183,36,-409,-883,-790,-688,-512,-258
-209,-63,146,136,-178,41,-361,-761,-673,-614,-468,-253
-180,-58,122,119,-151,31,-312,-629,-541,-517,-400,-239
-151,-43,107,97,-129,31,-248,-512,-424,-414,-346,-195
-126,-24,102,75,-114,39,-180,-400,-317,-322,-287,-156
-107,-24,82,65,-95,29,-126,-317,-253,-258,-258,-141
-97,-29,68,63,-82,19,-92,-258,-200,-234,-239,-126
-82,-29,53,56,-68,12,-78,-195,-170,-214,-229,-126
-73,-39,34,56,-53,-2,-53,-146,-131,-209,-224,-131
-73,-39,34,56,-53,-2,-34,-102,-97,-190,-209,-131
-78,-39,39,58,-58,0,-29,-73,-78,-170,-200,-131
-78,-53,24,65,-51,-14,-19,-58,-63,-146,-180,-131
-78,-58,19,68,-48,-19,-19,-53,-48,-131,-175,-126
-82,-48,34,65,-58,-7,-14,-63,-43,-126,-180,-131
-78,-48,29,63,-53,-9,-14,-58,-43,-126,-180,-131
-73,-48,24,61,-48,-12,-9,-43,-43,-131,-180,-131
-73,-48,24,61,-48,-12,-9,-34,-34,-131,-180,-131
-73,-58,14,65,-43,-21,-4,-19,-19,-131,-190,-126
-68,-58,9,63,-39,-24,-4,-14,-9,-126,-185,-126
-58,-58,0,58,-29,-29,0,-4,-4,-117,-180,-126
-53,-53,0,53,-26,-26,0,-4,0,-107,-175,-122
-53,-48,4,51,-29,-21,-9,-9,4,-102,-170,-126
-48,-48,0,48,-24,-24,-9,-9,4,-102,-165,-122
-43,-48,-4,46,-19,-26,-9,-4,0,-102,-165,-122
-43,-48,-4,46,-19,-26,-4,0,0,-102,-165,-122
-43,-39,4,41,-24,-17,-4,4,9,-107,-165,-122
-43,-39,4,41,-24,-17,-4,9,14,-102,-165,-122
-43,-39,4,41,-24,-17,-4,14,19,-97,-161,-112
-43,-39,4,41,-24,-17,-4,14,24,-92,-161,-112
-39,-39,0,39,-19,-19,4,14,19,-92,-156,-102
-34,-39,-4,36,-14,-21,4,14,24,-87,-156,-102
-34,-39,-4,36,-14,-21,4,14,29,-82,-156,-102
-39,-34,4,36,-21,-14,9,24,29,-82,-156,-97
-39,-24,14,31,-26,-4,14,29,39,-73,-151,-97
-39,-24,14,31,-26,-4,14,29,39,-73,-151,-97
-29,-24,4,26,-17,-9,14,34,48,-68,-146,-92
-29,-19,9,24,-19,-4,14,39,48,-58,-141,-92
-24,-14,9,19,-17,-2,14,43,43,-58,-141,-92
-24,-14,9,19,-17,-2,14,48,48,-53,-141,-87
-24,-14,9,19,-17,-2,14,53,53,-48,-136,-87
-24,-9,14,17,-19,2,14,58,58,-43,-131,-78
-24,-9,14,17,-19,2,24,58,58,-48,-126,-87
-19,-9,9,14,-14,0,24,63,58,-48,-126,-87
-19,-9,9,14,-14,0,24,68,63,-43,-122,-87
-19,-4,14,12,-17,4,24,73,68,-39,-117,-82
-9,-14,-4,12,-2,-9,24,82,82,-24,-112,-68
-9,-14,-4,12,-2,-9,24,92,87,-24,-107,-68
-4,-9,-4,7,0,-7,24,102,92,-19,-107,-68
4,-4,-9,0,7,-7,24,117,97,-14,-102,-63
-4,4,9,0,-7,7,34,117,102,-9,-102,-58
-4,4,9,0,-7,7,34,126,107,-4,-97,-53
0,4,4,-2,-2,4,34,131,117,0,-92,-48
4,9,4,-7,0,7,34,136,122,4,-87,-48
9,14,4,-12,2,9,34,146,126,9,-82,-53
14,14,0,-14,7,7,34,156,136,19,-78,-53
19,24,4,-21,7,14,34,161,141,29,-73,-43
24,29,4,-26,9,17,39,165,156,34,-63,-39
24,34,9,-29,7,21,39,161,156,29,-63,-34
29,34,4,-31,12,19,43,175,161,43,-48,-29
29,39,9,-34,9,24,43,185,170,53,-39,-24
34,43,9,-39,12,26,43,195,175,58,-34,-19
39,48,9,-43,14,29,43,214,190,68,-29,-9
43,53,9,-48,17,31,43,224,200,78,-14,0
48,53,4,-51,21,29,43,234,209,87,-9,4
58,58,0,-58,29,29,43,253,219,97,0,9
68,63,-4,-65,36,29,53,268,239,117,9,19
73,68,-4,-70,39,31,58,278,253,131,19,29
78,68,-9,-73,43,29,58,292,273,141,34,39
87,78,-9,-82,48,34,63,307,283,161,43,48
87,92,4,-90,41,48,63,331,287,175,58,58
102,102,0,-102,51,51,58,346,297,190,73,63
107,107,0,-107,53,53,58,361,317,204,82,73
117,112,-4,-114,61,53,63,375,326,219,102,82
126,122,-4,-124,65,58,63,375,351,229,117,92
136,131,-4,-134,70,63,68,395,366,244,126,107
146,136,-9,-141,78,63,68,409,380,258,141,117
151,141,-9,-146,80,65,68,424,395,273,156,126
170,151,-19,-161,95,65,73,444,409,287,180,136
175,161,-14,-168,95,73,73,463,424,307,190,151
185,165,-19,-175,102,73,73,473,439,326,204,165
195,175,-19,-185,107,78,78,488,453,341,219,170
195,190,-4,-192,100,92,87,502,458,346,224,180
200,200,0,-200,100,100,87,517,473,361,229,185
209,209,0,-209,104,104,92,522,483,370,244,190
209,219,9,-214,100,114,97,527,488,375,253,200
214,209,-4,-212,109,102,97,546,507,395,268,219
224,214,-9,-219,117,102,107,551,512,405,273,224
224,224,0,-224,112,112,107,561,522,409,283,229
229,229,0,-229,114,114,107,566,527,419,297,229
239,234,-4,-236,122,114,107,566,522,414,297,224
244,234,-9,-239,126,112,112,566,531,419,297,229
248,239,-9,-244,129,114,112,566,531,419,302,229
248,239,-9,-244,129,114,112,566,531,419,307,234
244,239,-4,-241,124,117,117,566,531,429,307,234
244,239,-4,-241,124,117,117,566,531,429,307,234
244,239,-4,-241,124,117,122,561,531,429,307,229
244,239,-4,-241,124,117,126,556,527,419,302,229
244,244,0,-244,122,122,122,551,522,409,297,234
239,239,0,-239,119,119,122,541,512,400,287,229
229,239,9,-234,109,124,126,531,502,390,278,219
224,234,9,-229,107,122,131,517,488,370,263,209
224,224,0,-224,112,112,122,492,458,351,248,195
224,219,-4,-222,114,107,122,473,444,336,229,185
214,204,-9,-209,112,97,117,458,424,317,204,175
200,195,-4,-197,102,95,117,439,405,297,190,165
175,185,9,-180,82,97,126,400,380,278,170,146
170,175,4,-173,82,90,126,380,361,258,156,126
161,165,4,-163,78,85,122,361,341,239,136,122
146,156,9,-151,68,82,122,346,317,219,122,102
136,141,4,-139,65,73,112,317,283,190,97,82
126,136,9,-131,58,73,112,292,258,165,78,68
117,126,9,-122,53,68,107,268,239,146,63,53
107,117,9,-112,48,63,97,244,219,131,43,39
97,107,9,-102,43,58,92,234,214,112,34,34
92,97,4,-95,43,51,92,214,200,97,14,29
82,87,4,-85,39,46,87,195,180,87,0,19
78,82,4,-80,36,43,82,175,161,68,-9,9
68,78,9,-73,29,43,78,156,131,43,-34,-9
58,68,9,-63,24,39,73,136,122,24,-39,-14
53,58,4,-56,24,31,68,112,102,9,-48,-24
48,53,4,-51,21,29,63,92,82,4,-58,-29
39,48,9,-43,14,29,58,78,82,-4,-68,-29
34,48,14,-41,9,31,53,68,73,-19,-73,-39
29,48,19,-39,4,34,48,63,58,-24,-78,-39
24,43,19,-34,2,31,43,48,53,-29,-82,-48
29,39,9,-34,9,24,39,34,39,-39,-92,-48
24,34,9,-29,7,21,39,29,29,-43,-97,-53
24,29,4,-26,9,17,39,24,19,-48,-102,-58
19,24,4,-21,7,14,34,14,14,-58,-107,-58
14,29,14,-21,0,21,29,9,14,-58,-107,-63
14,24,9,-19,2,17,29,4,9,-58,-107,-68
9,29,19,-19,-4,24,29,0,4,-58,-112,-68
9,34,24,-21,-7,29,29,-4,4,-63,-117,-73
4,24,19,-14,-7,21,14,-14,-9,-73,-122,-73
4,24,19,-14,-7,21,14,-19,-14,-78,-126,-73
0,24,24,-12,-12,24,14,-24,-14,-82,-131,-78
0,24,24,-12,-12,24,14,-24,-19,-82,-131,-78
0,24,24,-12,-12,24,14,-19,-14,-73,-122,-78
0,24,24,-12,-12,24,9,-19,-14,-73,-126,-78
0,19,19,-9,-9,19,9,-19,-9,-78,-126,-78
0,19,19,-9,-9,19,9,-19,-9,-78,-126,-78
0,19,19,-9,-9,19,14,-19,-14,-87,-126,-78
0,19,19,-9,-9,19,14,-19,-14,-82,-126,-78
0,19,19,-9,-9,19,14,-19,-19,-82,-126,-78
0,24,24,-12,-12,24,14,-19,-19,-82,-126,-78
0,24,24,-12,-12,24,24,-9,-4,-78,-122,-78
0,19,19,-9,-9,19,24,-9,-4,-78,-122,-78
0,19,19,-9,-9,19,24,-9,-4,-78,-122,-78
0,19,19,-9,-9,19,24,-9,-4,-78,-122,-78
4,19,14,-12,-4,17,24,-9,-9,-73,-122,-73
4,19,14,-12,-4,17,24,-4,-9,-68,-117,-73
4,19,14,-12,-4,17,24,-4,-9,-68,-117,-73
4,24,19,-14,-7,21,24,-4,-9,-68,-117,-73
4,29,24,-17,-9,26,24,-9,-9,-78,-126,-73
4,29,24,-17,-9,26,24,-9,-9,-78,-126,-73
4,24,19,-14,-7,21,24,-9,-9,-73,-122,-73
4,24,19,-14,-7,21,24,-9,-4,-73,-122,-68
4,24,19,-14,-7,21,39,0,4,-63,-122,-78
4,24,19,-14,-7,21,39,0,4,-63,-117,-78
4,29,24,-17,-9,26,39,4,4,-58,-117,-78
4,29,24,-17,-9,26,39,4,4,-58,-117,-73
14,39,24,-26,-4,31,39,4,9,-63,-117,-73
14,43,29,-29,-7,36,39,4,14,-63,-117,-73
14,43,29,-29,-7,36,39,4,14,-63,-117,-68
14,43,29,-29,-7,36,39,4,14,-58,-117,-68
14,53,39,-34,-12,46,48,14,14,-58,-117,-68
14,48,34,-31,-9,41,48,19,19,-58,-107,-68
19,48,29,-34,-4,39,48,19,19,-58,-107,-68
19,53,34,-36,-7,43,48,19,19,-58,-107,-68
9,53,43,-31,-17,48,48,9,19,-58,-97,-58
9,53,43,-31,-17,48,48,9,19,-53,-97,-58
9,58,48,-34,-19,53,53,14,19,-53,-92,-58
9,58,48,-34,-19,53,53,14,19,-58,-92,-53
19,53,34,-36,-7,43,48,14,19,-58,-102,-63
19,53,34,-36,-7,43,48,14,19,-58,-102,-63
19,53,34,-36,-7,43,48,14,19,-53,-102,-63
19,58,39,-39,-9,48,48,14,19,-53,-102,-63
19,48,29,-34,-4,39,48,14,19,-43,-107,-53
19,48,29,-34,-4,39,48,14,19,-43,-107,-53
19,48,29,-34,-4,39,48,9,19,-43,-107,-53
19,43,24,-31,-2,34,48,9,19,-43,-107,-53
24,43,19,-34,2,31,58,9,19,-43,-97,-53
24,43,19,-34,2,31,48,9,19,-48,-102,-53
19,58,39,-39,-9,48,48,0,19,-48,-97,-58
19,58,39,-39,-9,48,39,-9,9,-58,-107,-68
19,58,39,-39,-9,48,39,-9,9,-58,-107,-68
19,58,39,-39,-9,48,39,-9,9,-58,-107,-68
19,58,39,-39,-9,48,39,-9,9,-58,-107,-68
19,68,48,-43,-14,58,39,-9,0,-58,-117,-68
19,68,48,-43,-14,58,43,-9,-4,-63,-117,-68
14,68,53,-41,-19,61,43,-9,-4,-63,-117,-73
14,68,53,-41,-19,61,43,-9,-4,-58,-117,-73
24,63,39,-43,-7,51,34,0,-4,-58,-107,-63
24,68,43,-46,-9,56,39,0,0,-53,-107,-63
29,82,53,-56,-12,68,48,4,0,-53,-102,-63
29,87,58,-58,-14,73,53,4,4,-48,-97,-58
29,97,68,-63,-19,82,53,-4,4,-48,-97,-58
29,97,68,-63,-19,82,58,4,9,-43,-97,-53
29,107,78,-68,-24,92,58,4,9,-43,-97,-53
29,107,78,-68,-24,92,63,4,14,-43,-97,-53
29,117,87,-73,-29,102,68,4,14,-39,-92,-53
29,122,92,-75,-31,107,73,14,24,-39,-92,-53
24,126,102,-75,-39,114,87,19,24,-39,-92,-53
24,126,102,-75,-39,114,107,24,29,-39,-92,-53
24,126,102,-75,-39,114,126,29,34,-29,-87,-53
24,126,102,-75,-39,114,136,39,39,-29,-87,-43
29,131,102,-80,-36,117,146,43,43,-24,-82,-43
29,131,102,-80,-36,117,151,53,48,-19,-78,-39
29,141,112,-85,-41,126,156,58,68,-9,-68,-29
34,141,107,-87,-36,124,156,68,68,-4,-63,-29
39,136,97,-87,-29,117,161,73,68,0,-63,-29
39,126,87,-82,-24,107,151,63,58,0,-68,-29
43,122,78,-82,-17,100,136,68,53,-4,-68,-39
43,122,78,-82,-17,100,112,48,43,-14,-73,-43
43,122,78,-82,-17,100,102,29,34,-19,-78,-43
43,117,73,-80,-14,95,87,24,19,-24,-87,-53
43,97,53,-70,-4,75,78,4,0,-34,-107,-58
43,92,48,-68,-2,70,68,4,-4,-48,-112,-58
43,92,48,-68,-2,70,63,4,-4,-53,-112,-63
43,87,43,-65,0,65,58,4,-4,-63,-112,-63
43,82,39,-63,2,61,58,0,0,-63,-102,-68
43,82,39,-63,2,61,53,-4,-4,-63,-107,-68
43,78,34,-61,4,56,48,-9,-9,-58,-112,-68
39,73,34,-56,2,53,39,-14,-14,-58,-117,-73
39,68,29,-53,4,48,34,-19,-34,-73,-112,-78
39,63,24,-51,7,43,24,-29,-39,-78,-117,-82
34,58,24,-46,4,41,19,-39,-48,-87,-122,-82
34,53,19,-43,7,36,9,-43,-53,-92,-126,-87
34,53,19,-43,7,36,9,-48,-63,-107,-131,-97
29,48,19,-39,4,34,4,-48,-68,-107,-141,-97
29,43,14,-36,7,29,4,-53,-68,-112,-146,-97
24,43,19,-34,2,31,4,-53,-68,-112,-151,-102
34,39,4,-36,14,21,4,-63,-73,-102,-141,-92
24,34,9,-29,7,21,9,-63,-73,-107,-141,-97
24,34,9,-29,7,21,14,-63,-73,-107,-146,-97
19,34,14,-26,2,24,19,-58,-73,-107,-146,-97
9,34,24,-21,-7,29,29,-58,-73,-112,-146,-97
9,34,24,-21,-7,29,34,-58,-73,-112,-151,-102
9,29,19,-19,-4,24,39,-58,-73,-112,-151,-107
4,29,24,-17,-9,26,43,-58,-73,-112,-151,-107
4,29,24,-17,-9,26,43,-58,-82,-102,-156,-107
4,19,14,-12,-4,17,43,-58,-82,-112,-161,-107
0,14,14,-7,-7,14,43,-58,-87,-112,-161,-112
0,14,14,-7,-7,14,43,-58,-92,-112,-161,-112
0,24,24,-12,-12,24,53,-63,-82,-112,-161,-112
0,24,24,-12,-12,24,53,-68,-82,-112,-161,-112
-4,24,29,-9,-17,26,53,-68,-82,-112,-165,-112
-4,24,29,-9,-17,26,53,-68,-87,-117,-165,-117
4,19,14,-12,-4,17,53,-58,-87,-117,-156,-117
4,19,14,-12,-4,17,48,-58,-87,-117,-161,-117
4,14,9,-9,-2,12,48,-63,-87,-117,-161,-117
4,14,9,-9,-2,12,48,-63,-92,-117,-156,-117
0,14,14,-7,-7,14,58,-63,-92,-107,-156,-107
0,14,14,-7,-7,14,58,-63,-92,-112,-156,-112
0,14,14,-7,-7,14,58,-63,-92,-112,-156,-112
-4,14,19,-4,-12,17,58,-63,-92,-117,-156,-112
-4,24,29,-9,-17,26,63,-63,-92,-117,-156,-112
-4,19,24,-7,-14,21,63,-63,-92,-117,-156,-107
-4,19,24,-7,-14,21,63,-63,-92,-117,-156,-107
-4,19,24,-7,-14,21,63,-68,-92,-112,-161,-107
-4,19,24,-7,-14,21,73,-58,-92,-122,-161,-107
0,19,19,-9,-9,19,68,-58,-92,-122,-161,-107
0,19,19,-9,-9,19,68,-58,-92,-122,-161,-112
-4,19,24,-7,-14,21,68,-58,-92,-122,-161,-112
0,24,24,-12,-12,24,58,-68,-92,-112,-161,-107
0,24,24,-12,-12,24,58,-68,-92,-112,-161,-107
0,24,24,-12,-12,24,58,-68,-92,-112,-161,-112
0,24,24,-12,-12,24,58,-68,-92,-112,-161,-112
0,24,24,-12,-12,24,68,-58,-97,-107,-151,-112
0,19,19,-9,-9,19,68,-58,-97,-112,-156,-112
-4,14,19,-4,-12,17,73,-53,-102,-117,-161,-112
-4,9,14,-2,-9,12,78,-53,-102,-122,-170,-107
-4,4,9,0,-7,7,78,-58,-102,-122,-161,-112
0,0,0,0,0,0,87,-63,-102,-122,-165,-112
-9,0,9,4,-9,4,87,-53,-97,-122,-165,-117
-4,4,9,0,-7,7,82,-53,-87,-112,-161,-122
0,9,9,-4,-4,9,82,-53,-58,-82,-136,-107
4,19,14,-12,-4,17,53,-82,-43,-48,-117,-82
19,24,4,-21,7,14,0,-161,-53,-39,-97,-68
43,29,-14,-36,29,7,-73,-263,-82,-29,-63,-39
87,34,-53,-61,70,-9,-165,-390,-136,-34,-39,-4
136,34,-102,-85,119,-34,-273,-546,-248,-68,-34,24
180,34,-146,-107,163,-56,-380,-751,-414,-117,-24,48
229,48,-180,-139,204,-65,-488,-932,-570,-141,9,92
322,78,-244,-200,283,-82,-580,-1054,-683,-126,78,170
419,117,-302,-268,361,-92,-663,-1141,-741,-87,185,273
502,175,-326,-339,414,-75,-741,-1220,-756,-43,292,385
575,239,-336,-407,456,-48,-805,-1278,-756,34,409,483
639,292,-346,-466,492,-26,-849,-1317,-727,102,483,566
678,336,-341,-507,509,-2,-907,-1371,-761,82,497,605
702,356,-346,-529,524,4,-951,-1464,-878,-14,439,590
668,361,-307,-514,488,26,-976,-1556,-1005,-161,322,531
575,346,-229,-461,402,58,-946,-1639,-1141,-326,180,439
424,307,-117,-366,270,95,-868,-1712,-1293,-551,-34,292
258,229,-29,-244,143,100,-780,-1781,-1454,-800,-287,107
92,156,63,-124,14,109,-702,-1790,-1532,-966,-463,-39
-39,82,122,-21,-80,102,-614,-1712,-1493,-1019,-556,-146
-126,29,156,48,-141,92,-512,-1605,-1410,-1010,-614,-219
-156,9,165,73,-161,87,-434,-1498,-1327,-976,-634,-263
-190,0,190,95,-190,95,-366,-1376,-1215,-917,-629,-273
-214,0,214,107,-214,107,-322,-1268,-1117,-849,-605,-273
-214,19,234,97,-224,126,-292,-1151,-1019,-795,-570,-278
-200,14,214,92,-207,114,-244,-1010,-907,-727,-531,-268
-190,4,195,92,-192,100,-185,-858,-790,-644,-488,-263
-161,9,170,75,-165,90,-136,-717,-668,-556,-429,-239
-122,43,165,39,-143,104,-92,-590,-541,-463,-366,-204
-78,53,131,12,-104,92,-34,-468,-424,-361,-287,-165
-48,53,102,-2,-75,78,19,-356,-322,-278,-239,-131
-39,58,97,-9,-68,78,53,-268,-258,-224,-209,-107
-34,48,82,-7,-58,65,78,-204,-219,-195,-200,-107
-24,39,63,-7,-43,51,92,-146,-190,-190,-195,-102
-24,39,63,-7,-43,51,102,-102,-156,-180,-190,-102
-29,39,68,-4,-48,53,117,-63,-136,-161,-180,-102
-29,34,63,-2,-46,48,126,-48,-112,-146,-170,-102
-19,29,48,-4,-34,39,136,-43,-87,-122,-156,-97
-14,29,43,-7,-29,36,131,-43,-73,-102,-146,-82
-9,29,39,-9,-24,34,131,-39,-73,-97,-141,-82
-4,29,34,-12,-19,31,136,-24,-73,-97,-136,-82
-4,29,34,-12,-19,31,136,-14,-63,-92,-131,-82
0,29,29,-14,-14,29,141,9,-68,-102,-141,-87
0,29,29,-14,-14,29,141,14,-58,-97,-136,-87
4,29,24,-17,-9,26,146,24,-53,-87,-131,-87
4,34,29,-19,-12,31,146,24,-48,-78,-126,-82
4,39,34,-21,-14,36,146,19,-39,-63,-122,-87
9,39,29,-24,-9,34,146,19,-34,-63,-117,-82
14,39,24,-26,-4,31,146,24,-34,-63,-117,-82
14,39,24,-26,-4,31,151,29,-29,-63,-117,-82
14,39,24,-26,-4,31,161,39,-29,-68,-117,-73
14,39,24,-26,-4,31,161,48,-24,-63,-117,-73
14,39,24,-26,-4,31,161,58,-19,-58,-112,-63
14,39,24,-26,-4,31,161,63,-14,-53,-112,-63
19,39,19,-29,0,29,151,63,-19,-53,-107,-63
24,39,14,-31,4,26,151,63,-14,-48,-107,-63
24,39,14,-31,4,26,151,63,-9,-43,-107,-63
19,43,24,-31,-2,34,156,73,-9,-43,-107,-58
19,53,34,-36,-7,43,161,73,-19,-53,-112,-58
19,53,34,-36,-7,43,161,68,-19,-53,-112,-58
29,53,24,-41,2,39,161,68,-9,-48,-107,-53
29,58,29,-43,0,43,161,68,-9,-39,-102,-53
34,53,19,-43,7,36,161,82,-4,-39,-92,-63
34,53,19,-43,7,36,161,87,0,-34,-92,-58
34,53,19,-43,7,36,161,92,4,-29,-87,-58
34,58,24,-46,4,41,161,97,9,-24,-82,-48
34,68,34,-51,0,51,161,97,9,-9,-68,-39
39,68,29,-53,4,48,161,102,9,-9,-68,-39
39,68,29,-53,4,48,161,107,14,-4,-63,-39
39,73,34,-56,2,53,161,112,19,0,-58,-34
39,63,24,-51,7,43,170,117,24,14,-53,-29
39,63,24,-51,7,43,170,122,29,14,-48,-29
43,68,24,-56,9,46,170,126,34,19,-48,-29
53,73,19,-63,17,46,170,136,39,24,-43,-24
43,63,19,-53,12,41,180,146,34,19,-53,-29
43,63,19,-53,12,41,180,156,39,24,-48,-24
48,63,14,-56,17,39,180,161,48,29,-43,-19
53,68,14,-61,19,41,180,165,53,34,-39,-19
58,82,24,-70,17,53,180,165,58,39,-24,-14
63,82,19,-73,21,51,180,175,68,48,-19,-14
68,92,24,-80,21,58,180,180,73,58,-14,-4
73,97,24,-85,24,61,185,185,87,63,-4,0
73,102,29,-87,21,65,185,200,87,68,-14,4
78,102,24,-90,26,63,190,214,92,82,0,9
78,107,29,-92,24,68,190,224,102,92,9,14
82,112,29,-97,26,70,190,234,107,97,14,19
97,117,19,-107,39,68,190,244,112,117,24,39
102,122,19,-112,41,70,190,253,122,126,43,48
107,122,14,-114,46,68,190,263,131,136,53,53
117,126,9,-122,53,68,190,283,141,146,68,58
117,131,14,-124,51,73,190,297,146,146,68,58
122,136,14,-129,53,75,195,307,156,161,78,68
126,136,9,-131,58,73,195,322,170,170,92,78
136,146,9,-141,63,78,200,336,175,190,102,87
136,141,4,-139,65,73,200,361,200,204,107,87
151,151,0,-151,75,75,195,375,209,219,122,92
156,156,0,-156,78,78,195,390,229,234,131,102
165,161,-4,-163,85,78,200,405,239,248,151,112
175,180,4,-178,85,92,209,424,253,263,165,131
185,190,4,-187,90,97,214,444,268,283,175,146
195,195,0,-195,97,97,214,458,283,302,190,156
200,200,0,-200,100,100,214,473,297,322,204,165
219,209,-9,-214,114,100,219,483,312,326,229,175
224,219,-4,-222,114,107,219,502,326,346,239,190
234,224,-9,-229,122,107,219,512,341,366,253,204
244,234,-9,-239,126,112,224,527,356,380,268,209
253,239,-14,-246,134,112,224,551,370,390,292,224
258,248,-9,-253,134,119,224,566,385,409,297,234
268,258,-9,-263,139,124,229,570,395,424,312,244
268,268,0,-268,134,134,234,575,400,434,322,258
283,268,-14,-275,148,126,234,595,409,444,331,258
292,273,-19,-283,156,126,244,600,414,453,331,263
292,283,-9,-287,151,136,244,610,424,458,336,268
297,287,-9,-292,153,139,244,614,429,468,346,268
287,283,-4,-285,146,139,244,624,434,483,356,283
292,283,-9,-287,151,136,248,624,444,488,356,287
297,287,-9,-292,153,139,248,624,444,488,361,287
297,287,-9,-292,153,139,248,624,444,488,366,292
302,297,-4,-300,153,146,253,624,444,488,366,292
302,297,-4,-300,153,146,253,624,444,488,366,292
302,297,-4,-300,153,146,258,619,444,488,366,287
302,297,-4,-300,153,146,263,614,439,478,361,287
302,302,0,-302,151,151,263,610,434,478,366,283
297,297,0,-297,148,148,258,600,424,468,356,278
287,297,9,-292,139,153,258,590,414,458,346,268
283,292,9,-287,136,151,258,575,400,439,331,258
273,273,0,-273,136,136,248,561,380,429,312,244
273,268,-4,-270,139,131,248,541,366,414,297,234
263,253,-9,-258,136,122,244,527,346,395,278,224
248,244,-4,-246,126,119,244,507,326,375,268,214
224,234,9,-229,107,122,244,478,292,346,253,204
219,224,4,-222,107,114,244,458,273,326,234,185
209,214,4,-212,102,109,239,439,253,307,209,180
195,204,9,-200,92,107,239,424,229,287,190,161
185,200,14,-192,85,107,239,400,204,268,175,151
175,195,19,-185,78,107,239,370,180,244,156,136
165,185,19,-175,73,102,234,341,161,224,141,122
156,175,19,-165,68,97,224,312,141,209,122,107
146,165,19,-156,63,92,219,292,117,190,112,92
141,156,14,-148,63,85,219,273,102,175,92,87
131,146,14,-139,58,80,214,253,82,165,78,78
126,141,14,-134,56,78,209,234,63,146,68,68
117,136,19,-126,48,78,204,209,43,122,43,48
107,126,19,-117,43,73,200,195,34,102,39,43
102,117,14,-109,43,65,195,175,14,87,29,34
97,112,14,-104,41,63,190,161,-4,82,19,29
87,97,9,-92,39,53,185,136,-24,82,9,29
82,97,14,-90,34,56,180,126,-34,68,4,19
78,97,19,-87,29,58,175,122,-48,63,0,19
73,92,19,-82,26,56,170,107,-53,58,-4,9
58,87,29,-73,14,58,156,92,-58,43,-19,-4
53,82,29,-68,12,56,156,87,-68,34,-29,-14
53,78,24,-65,14,51,156,82,-78,24,-39,-24
48,73,24,-61,12,48,151,73,-82,9,-48,-29
43,63,19,-53,12,41,156,68,-92,0,-48,-29
43,53,9,-48,17,31,156,63,-97,0,-48,-29
39,53,14,-46,12,34,156,58,-102,0,-53,-24
39,53,14,-46,12,34,156,53,-102,-4,-58,-24
43,53,9,-48,17,31,151,53,-117,-4,-53,-34
43,53,9,-48,17,31,151,48,-122,-9,-58,-34
39,53,14,-46,12,34,151,43,-122,-14,-63,-39
39,53,14,-46,12,34,151,43,-126,-14,-63,-39
39,53,14,-46,12,34,151,29,-131,-24,-53,-39
39,53,14,-46,12,34,146,29,-131,-24,-58,-39
39,48,9,-43,14,29,146,29,-126,-29,-58,-39
39,48,9,-43,14,29,146,29,-126,-29,-58,-39
39,53,14,-46,12,34,146,19,-131,-29,-68,-39
39,58,19,-48,9,39,141,19,-131,-24,-68,-39
39,63,24,-51,7,43,136,19,-136,-24,-68,-39
39,73,34,-56,2,53,131,19,-136,-24,-68,-39
39,63,24,-51,7,43,131,29,-122,-19,-63,-39
39,58,19,-48,9,39,131,29,-122,-19,-63,-39
39,58,19,-48,9,39,131,29,-122,-19,-63,-39
39,58,19,-48,9,39,131,29,-122,-19,-63,-39
43,48,4,-46,19,26,141,39,-126,-24,-63,-34
43,48,4,-46,19,26,141,43,-126,-19,-58,-34
43,48,4,-46,19,26,141,43,-126,-19,-58,-34
43,53,9,-48,17,31,141,43,-126,-19,-58,-34
34,58,24,-46,4,41,141,39,-117,-9,-58,-34
34,58,24,-46,4,41,141,39,-117,-9,-58,-34
34,53,19,-43,7,36,141,39,-117,-4,-53,-34
34,53,19,-43,7,36,141,39,-112,-4,-53,-29
43,63,19,-53,12,41,146,39,-112,-4,-53,-29
43,63,19,-53,12,41,146,39,-112,-4,-48,-29
43,68,24,-56,9,46,146,43,-112,0,-48,-29
43,68,24,-56,9,46,146,43,-112,0,-48,-24
43,68,24,-56,9,46,136,43,-117,-4,-39,-34
43,73,29,-58,7,51,136,43,-112,-4,-39,-34
43,73,29,-58,7,51,136,43,-112,-4,-39,-29
43,73,29,-58,7,51,136,43,-112,0,-39,-29
34,63,29,-48,2,46,136,34,-112,0,-39,-19
34,58,24,-46,4,41,136,39,-107,0,-29,-19
39,58,19,-48,9,39,136,39,-107,0,-29,-19
39,63,24,-51,7,43,136,39,-107,0,-29,-19
39,53,14,-46,12,34,146,39,-107,0,-39,-19
39,53,14,-46,12,34,146,39,-107,4,-39,-19
39,58,19,-48,9,39,151,43,-107,4,-34,-19
39,58,19,-48,9,39,151,43,-107,0,-34,-14
39,63,24,-51,7,43,136,43,-107,9,-24,-24
39,63,24,-51,7,43,136,43,-107,9,-24,-24
39,63,24,-51,7,43,136,43,-107,14,-24,-24
39,68,29,-53,4,48,136,43,-107,14,-24,-24
39,68,29,-53,4,48,136,43,-107,4,-19,-14
39,68,29,-53,4,48,136,43,-107,4,-19,-14
39,68,29,-53,4,48,136,39,-107,4,-19,-14
39,63,24,-51,7,43,136,39,-107,4,-19,-14
53,63,9,-58,21,36,136,48,-97,4,-19,-14
53,63,9,-58,21,36,136,48,-97,9,-24,-14
43,53,9,-48,17,31,136,48,-102,9,-24,-9
48,58,9,-53,19,34,136,48,-107,0,-19,-9
48,68,19,-58,14,43,126,39,-107,9,-19,-9
48,68,19,-58,14,43,126,39,-107,9,-19,-9
48,68,19,-58,14,43,126,39,-107,9,-19,-9
48,68,19,-58,14,43,126,39,-107,9,-19,-9
48,73,24,-61,12,48,126,29,-107,19,-19,-9
48,78,29,-63,9,53,131,29,-112,14,-19,-9
43,82,39,-63,2,61,131,29,-112,14,-19,-14
43,87,43,-65,0,65,131,29,-112,19,-19,-14
34,82,48,-58,-7,65,122,39,-102,19,-19,-14
34,87,53,-61,-9,70,126,39,-97,24,-19,-14
39,102,63,-70,-12,82,136,43,-97,24,-14,-14
39,107,68,-73,-14,87,141,43,-92,29,-9,-9
48,112,63,-80,-7,87,151,43,-82,19,-19,-19
48,107,58,-78,-4,82,156,53,-78,24,-19,-14
48,112,63,-80,-7,87,156,53,-78,24,-19,-14
48,107,58,-78,-4,82,161,53,-73,24,-19,-14
48,97,48,-73,0,73,175,63,-73,19,-4,-14
48,102,53,-75,-2,78,180,73,-63,19,-4,-14
43,107,63,-75,-9,85,195,78,-63,19,-4,-14
43,107,63,-75,-9,85,214,82,-58,19,-4,-14
34,97,63,-65,-14,80,214,87,-53,39,9,-4
34,97,63,-65,-14,80,224,97,-48,39,9,4
39,102,63,-70,-12,82,234,102,-43,43,14,4
39,102,63,-70,-12,82,239,112,-39,48,19,9
48,112,63,-80,-7,87,234,112,-39,53,19,0
53,112,58,-82,-2,85,224,117,-39,53,24,0
58,107,48,-82,4,78,219,117,-39,53,24,0
58,97,39,-78,9,68,200,102,-48,48,19,0
53,82,29,-68,12,56,175,87,-53,34,9,9
53,82,29,-68,12,56,151,68,-63,24,4,4
53,82,29,-68,12,56,141,48,-73,19,0,4
53,78,24,-65,14,51,126,43,-87,14,-9,-4
43,78,34,-61,4,56,131,34,-87,14,-14,0
43,73,29,-58,7,51,126,34,-92,9,-14,0
43,73,29,-58,7,51,126,34,-92,14,-9,-4
43,68,24,-56,9,46,126,34,-92,14,-4,-4
34,53,19,-43,7,36,117,39,-97,0,-14,-19
34,53,19,-43,7,36,112,34,-102,-4,-19,-19
34,48,14,-41,9,31,107,29,-107,-4,-24,-19
29,43,14,-36,7,29,97,24,-112,-9,-29,-24
39,48,9,-43,14,29,92,19,-122,-24,-43,-39
39,43,4,-41,17,24,82,9,-126,-29,-48,-43
34,39,4,-36,14,21,78,0,-136,-39,-53,-43
34,34,0,-34,17,17,68,-4,-141,-43,-58,-48
43,34,-9,-39,26,12,68,-19,-141,-39,-48,-39
39,29,-9,-34,24,9,63,-19,-146,-39,-53,-39
39,24,-14,-31,26,4,63,-24,-146,-43,-53,-39
34,24,-9,-29,21,7,63,-24,-146,-43,-53,-43
24,9,-14,-17,19,-2,73,-24,-151,-43,-53,-43
14,4,-9,-9,12,-2,78,-24,-151,-48,-53,-48
14,4,-9,-9,12,-2,82,-24,-151,-48,-58,-48
9,4,-4,-7,7,0,87,-19,-151,-48,-58,-48
9,4,-4,-7,7,0,78,-19,-141,-48,-48,-48
9,4,-4,-7,7,0,82,-19,-141,-43,-53,-53
9,0,-9,-4,9,-4,87,-19,-141,-39,-53,-58
4,0,-4,-2,4,-2,92,-19,-141,-34,-53,-58
4,9,4,-7,0,7,92,-19,-151,-43,-58,-68
4,0,-4,-2,4,-2,92,-19,-151,-53,-63,-68
0,-4,-4,2,2,-4,92,-19,-156,-53,-63,-73
0,-4,-4,2,2,-4,92,-19,-161,-53,-63,-73
0,-4,-4,2,2,-4,92,-24,-161,-63,-63,-63
0,-4,-4,2,2,-4,92,-29,-161,-63,-63,-63
-4,-4,0,4,-2,-2,92,-29,-161,-63,-68,-63
-4,-4,0,4,-2,-2,92,-29,-165,-68,-68,-68
-9,-4,4,7,-7,0,82,-39,-165,-58,-68,-68
-14,-9,4,12,-9,-2,78,-39,-165,-58,-73,-68
-19,-19,0,19,-9,-9,78,-43,-165,-58,-73,-68
-24,-24,0,24,-12,-12,78,-43,-170,-58,-68,-68
-9,-14,-4,12,-2,-9,78,-34,-161,-68,-78,-78
-9,-14,-4,12,-2,-9,78,-34,-161,-73,-78,-82
-9,-14,-4,12,-2,-9,78,-34,-161,-73,-78,-82
-14,-14,0,14,-7,-7,78,-34,-161,-78,-78,-82
-14,-14,0,14,-7,-7,73,-34,-161,-68,-68,-73
-14,-19,-4,17,-4,-12,73,-34,-161,-68,-68,-68
-14,-19,-4,17,-4,-12,73,-34,-161,-68,-68,-68
-14,-19,-4,17,-4,-12,73,-39,-161,-63,-73,-68
-14,-9,4,12,-9,-2,73,-39,-161,-63,-73,-68
-9,-9,0,9,-4,-4,68,-39,-161,-63,-73,-68
-9,-9,0,9,-4,-4,68,-39,-161,-63,-73,-73
-14,-9,4,12,-9,-2,68,-39,-161,-63,-73,-73
-19,-14,4,17,-12,-4,73,-29,-151,-63,-73,-78
-19,-14,4,17,-12,-4,78,-29,-151,-63,-73,-78
-19,-14,4,17,-12,-4,82,-29,-151,-63,-73,-82
-19,-14,4,17,-12,-4,87,-29,-151,-63,-73,-82
-19,-19,0,19,-9,-9,78,-39,-156,-78,-82,-78
-19,-29,-9,24,-4,-19,78,-39,-156,-82,-87,-82
-24,-39,-14,31,-4,-26,82,-34,-161,-87,-92,-87
-24,-48,-24,36,0,-36,87,-34,-161,-92,-102,-87
-14,-53,-39,34,12,-46,97,-19,-151,-82,-92,-92
-19,-58,-39,39,9,-48,97,-4,-151,-82,-97,-102
-9,-58,-48,34,19,-53,97,14,-107,-43,-78,-97
4,-43,-48,19,26,-46,73,34,-58,14,-24,-63
29,-19,-48,-4,39,-34,43,14,-29,63,19,-29
53,0,-53,-26,53,-26,-14,-53,-34,87,68,14
87,24,-63,-56,75,-19,-97,-151,-63,117,117,68
131,39,-92,-85,112,-26,-180,-273,-122,117,161,117
175,43,-131,-109,153,-43,-263,-409,-224,92,185,161
214,63,-151,-139,183,-43,-361,-575,-336,87,219,209
278,122,-156,-200,217,-17,-468,-712,-405,136,317,312
375,204,-170,-290,273,17,-556,-795,-444,209,439,434
458,263,-195,-361,326,34,-629,-868,-478,273,575,551
507,312,-195,-409,351,58,-692,-956,-507,331,683,663
551,361,-190,-456,370,85,-741,-1015,-531,366,751,746
595,405,-190,-500,392,107,-785,-1063,-561,366,790,795
610,439,-170,-524,390,134,-819,-1141,-639,297,766,819
590,463,-126,-527,358,168,-858,-1254,-780,170,683,790
507,473,-34,-490,270,219,-863,-1385,-927,4,546,717
375,439,63,-407,156,251,-819,-1478,-1073,-209,351,580
204,375,170,-290,17,273,-722,-1542,-1229,-453,102,390
34,307,273,-170,-119,290,-634,-1556,-1332,-668,-131,204
-82,229,312,-73,-197,270,-556,-1507,-1366,-790,-297,48
-161,146,307,7,-234,226,-488,-1439,-1327,-849,-405,-78
-204,73,278,65,-241,175,-409,-1342,-1278,-863,-468,-165
-224,39,263,92,-244,151,-326,-1234,-1185,-824,-488,-209
-234,19,253,107,-244,136,-268,-1137,-1093,-771,-478,-224
-248,9,258,119,-253,134,-229,-1054,-1019,-732,-473,-244
-244,9,253,117,-248,131,-224,-966,-941,-683,-458,-244
-234,9,244,112,-239,126,-195,-858,-854,-619,-424,-229
-229,-14,214,122,-222,100,-156,-717,-732,-541,-375,-219
-200,-34,165,117,-183,65,-117,-585,-614,-458,-312,-195
-151,-39,112,95,-131,36,-87,-473,-502,-370,-244,-170
-112,-43,68,78,-90,12,-34,-375,-405,-287,-190,-136
-97,-53,43,75,-70,-4,14,-292,-336,-234,-161,-126
-87,-53,34,70,-61,-9,58,-239,-283,-190,-141,-112
-68,-39,29,53,-48,-4,73,-180,-239,-156,-122,-87
-63,-39,24,51,-43,-7,78,-126,-209,-136,-102,-87
-63,-39,24,51,-43,-7,82,-78,-170,-112,-87,-82
-63,-29,34,46,-48,2,92,-43,-136,-92,-73,-82
-58,-29,29,43,-43,0,97,-14,-107,-73,-63,-82
-48,-24,24,36,-36,0,97,-9,-82,-58,-43,-73
-48,-29,19,39,-34,-4,97,-14,-78,-43,-39,-78
-53,-29,24,41,-39,-2,92,-24,-82,-48,-39,-73
-48,-29,19,39,-34,-4,92,-19,-82,-48,-43,-73
-43,-29,14,36,-29,-7,97,-4,-82,-53,-48,-73
-43,-29,14,36,-29,-7,97,4,-73,-53,-53,-73
-48,-43,4,46,-26,-19,112,19,-68,-53,-53,-78
-48,-48,0,48,-24,-24,112,24,-58,-48,-48,-78
-43,-53,-9,48,-17,-31,117,34,-53,-39,-43,-78
-43,-53,-9,48,-17,-31,117,34,-48,-29,-39,-73
-43,-58,-14,51,-14,-36,117,29,-48,-24,-43,-78
-39,-58,-19,48,-9,-39,117,29,-43,-24,-39,-73
-34,-58,-24,46,-4,-41,117,34,-43,-24,-39,-73
-34,-58,-24,46,-4,-41,122,39,-39,-24,-39,-73
-34,-48,-14,41,-9,-31,122,43,-29,-19,-34,-68
-34,-48,-14,41,-9,-31,122,48,-24,-14,-29,-63
-34,-48,-14,41,-9,-31,122,53,-19,-9,-19,-48
-34,-48,-14,41,-9,-31,122,53,-14,-4,-14,-43
-39,-43,-4,41,-17,-24,112,53,-19,-4,0,-34
-34,-39,-4,36,-14,-21,112,53,-14,0,0,-34
-34,-34,0,34,-17,-17,112,53,-9,4,0,-34
-39,-24,14,31,-26,-4,117,63,-9,4,0,-29
-29,-29,0,29,-14,-14,112,68,0,14,4,-39
-29,-34,-4,31,-12,-19,112,68,0,14,4,-39
-19,-39,-19,29,0,-29,112,73,9,19,9,-34
-19,-39,-19,29,0,-29,112,78,9,29,14,-34
-24,-43,-19,34,-2,-31,112,82,14,19,4,-43
-24,-43,-19,34,-2,-31,112,87,19,24,4,-39
-24,-43,-19,34,-2,-31,112,92,24,29,9,-39
-24,-39,-14,31,-4,-26,112,97,29,34,14,-29
-14,-29,-14,21,0,-21,112,97,29,39,29,-19
-9,-29,-19,19,4,-24,112,102,29,39,29,-19
-9,-29,-19,19,4,-24,112,107,34,43,34,-19
-9,-24,-14,17,2,-19,112,112,39,48,39,-14
-19,-34,-14,26,-2,-24,112,107,53,43,34,-19
-19,-34,-14,26,-2,-24,112,112,58,43,39,-19
-14,-29,-14,21,0,-21,112,117,63,48,39,-19
-4,-24,-19,14,7,-21,112,126,68,53,43,-14
-14,-34,-19,24,2,-26,112,126,73,68,48,-9
-14,-34,-19,24,2,-26,112,136,78,73,58,-4
-9,-34,-24,21,7,-29,112,141,87,78,68,0
-4,-29,-24,17,9,-26,112,146,92,82,78,0
0,-24,-24,12,12,-24,102,146,87,87,73,4
4,-24,-29,9,17,-26,102,156,97,97,78,4
9,-14,-24,2,17,-19,102,161,102,107,82,14
14,-9,-24,-2,19,-17,107,165,117,112,92,19
14,-14,-29,0,21,-21,107,180,136,126,97,29
19,-14,-34,-2,26,-24,112,195,141,141,117,39
19,-9,-29,-4,24,-19,112,204,151,151,131,48
24,-4,-29,-9,26,-17,112,214,156,156,141,58
39,9,-29,-24,34,-9,102,219,170,175,146,68
43,14,-29,-29,36,-7,102,224,180,185,161,78
48,14,-34,-31,41,-9,102,229,190,195,165,82
58,19,-39,-39,48,-9,102,244,200,204,175,87
58,34,-24,-46,41,4,92,258,209,204,195,97
63,39,-24,-51,43,7,97,268,224,219,204,107
68,39,-29,-53,48,4,97,283,244,229,219,117
78,48,-29,-63,53,9,102,297,253,248,229,126
68,53,-14,-61,41,19,92,302,268,263,253,146
82,63,-19,-73,51,21,87,317,278,278,268,151
87,68,-19,-78,53,24,87,331,297,292,278,161
97,73,-24,-85,61,24,92,346,307,307,297,170
107,78,-29,-92,68,24,92,356,312,307,297,175
117,82,-34,-100,75,24,97,375,326,322,302,185
126,82,-43,-104,85,19,97,390,341,336,312,190
131,82,-48,-107,90,17,97,405,356,351,322,195
131,102,-29,-117,80,36,92,414,375,370,351,209
136,112,-24,-124,80,43,92,434,395,395,366,229
146,117,-29,-131,87,43,92,444,414,419,385,248
156,126,-29,-141,92,48,97,458,434,439,405,258
165,122,-43,-143,104,39,97,468,444,434,409,268
170,131,-39,-151,104,46,97,478,453,448,414,273
180,141,-39,-161,109,51,102,478,458,458,429,278
180,151,-29,-165,104,61,107,478,458,463,439,287
175,146,-29,-161,102,58,107,488,468,463,439,287
185,146,-39,-165,112,53,117,492,473,473,439,292
185,151,-34,-168,109,58,117,502,483,478,444,297
190,151,-39,-170,114,56,117,507,488,488,453,297
180,156,-24,-168,102,65,117,517,483,492,463,302
185,156,-29,-170,107,63,122,517,492,497,463,307
190,161,-29,-175,109,65,122,517,492,497,468,307
190,161,-29,-175,109,65,122,517,492,497,473,312
195,161,-34,-178,114,63,117,507,502,497,483,322
195,161,-34,-178,114,63,117,507,502,497,483,322
195,161,-34,-178,114,63,122,502,502,497,483,317
195,161,-34,-178,114,63,126,497,497,488,478,317
190,151,-39,-170,114,56,122,492,483,478,463,297
180,141,-39,-161,109,51,122,483,473,458,444,287
165,136,-29,-151,97,53,126,473,463,439,424,273
156,126,-29,-141,92,48,131,458,448,409,400,258
146,117,-29,-131,87,43,131,453,439,395,390,244
146,112,-34,-129,90,39,131,434,424,385,375,234
136,97,-39,-117,87,29,126,419,405,370,356,224
122,87,-34,-104,78,26,126,400,385,356,346,214
117,87,-29,-102,73,29,126,370,361,326,331,195
112,78,-34,-95,73,21,126,351,341,307,312,175
102,68,-34,-85,68,17,122,331,322,287,287,170
87,58,-29,-73,58,14,122,317,297,268,268,151
73,48,-24,-61,48,12,131,307,278,248,253,141
58,39,-19,-48,39,9,131,283,258,224,234,126
43,24,-19,-34,31,2,126,258,244,204,219,112
29,9,-19,-19,24,-4,117,234,229,190,200,97
19,0,-19,-9,19,-9,112,219,224,180,190,82
14,-9,-24,-2,19,-17,112,204,209,165,170,78
4,-19,-24,7,14,-21,107,190,190,156,156,68
0,-24,-24,12,12,-24,102,175,170,136,146,58
-19,-29,-9,24,-4,-19,107,170,161,112,122,43
-29,-39,-9,34,-9,-24,102,156,151,92,117,34
-34,-48,-14,41,-9,-31,97,136,131,78,107,19
-39,-53,-14,46,-12,-34,92,122,112,73,97,9
-39,-68,-29,53,-4,-48,78,107,107,73,87,9
-43,-68,-24,56,-9,-46,73,97,102,58,82,0
-48,-68,-19,58,-14,-43,68,92,92,53,78,0
-53,-73,-19,63,-17,-46,63,78,92,48,73,-9
-58,-87,-29,73,-14,-58,68,68,87,39,63,-9
-63,-92,-29,78,-17,-61,68,68,78,34,58,-14
-63,-97,-34,80,-14,-65,68,68,68,29,53,-19
-68,-102,-34,85,-17,-68,63,63,63,19,48,-19
-73,-97,-24,85,-24,-61,58,48,63,0,39,-34
-73,-102,-29,87,-21,-65,58,43,58,0,39,-39
-78,-97,-19,87,-29,-58,58,39,53,0,34,-39
-78,-92,-14,85,-31,-53,58,34,53,-4,29,-43
-73,-92,-19,82,-26,-56,43,34,48,-4,34,-34
-73,-92,-19,82,-26,-56,43,29,43,-9,29,-34
-78,-92,-14,85,-31,-53,43,24,43,-14,24,-39
-78,-92,-14,85,-31,-53,43,24,39,-14,24,-39
-78,-92,-14,85,-31,-53,43,19,34,-14,24,-39
-78,-92,-14,85,-31,-53,39,19,34,-14,19,-39
-78,-97,-19,87,-29,-58,39,19,39,-19,19,-39
-78,-97,-19,87,-29,-58,39,19,39,-19,19,-39
-87,-87,0,87,-43,-43,34,9,43,-19,29,-39
-87,-87,0,87,-43,-43,34,9,43,-14,29,-39
-87,-87,0,87,-43,-43,34,9,39,-14,29,-39
-87,-82,4,85,-46,-39,34,9,39,-14,29,-39
-87,-82,4,85,-46,-39,34,19,53,-14,43,-29
-87,-87,0,87,-43,-43,34,19,53,-9,43,-29
-87,-87,0,87,-43,-43,34,19,53,-4,43,-29
-87,-87,0,87,-43,-43,34,19,53,0,43,-29
-82,-87,-4,85,-39,-46,24,9,68,4,53,-14
-82,-87,-4,85,-39,-46,24,14,68,9,58,-14
-82,-87,-4,85,-39,-46,24,14,68,9,58,-14
-82,-82,0,82,-41,-41,24,14,68,9,58,-14
-82,-78,4,80,-43,-36,24,29,68,0,58,-24
-82,-78,4,80,-43,-36,24,29,68,0,58,-24
-82,-82,0,82,-41,-41,24,29,68,4,63,-24
-82,-82,0,82,-41,-41,24,29,73,4,63,-19
-82,-87,-4,85,-39,-46,19,39,82,-4,58,-19
-82,-92,-9,87,-36,-51,19,39,82,-4,58,-19
-82,-92,-9,87,-36,-51,19,43,82,0,53,-19
-82,-97,-14,90,-34,-56,19,43,82,0,48,-14
-92,-107,-14,100,-39,-61,19,43,87,4,58,-14
-92,-102,-9,97,-41,-56,19,43,92,4,58,-14
-92,-102,-9,97,-41,-56,19,43,92,4,58,-9
-92,-102,-9,97,-41,-56,19,43,92,9,58,-9
-82,-92,-9,87,-36,-51,19,43,92,19,58,-9
-82,-97,-14,90,-34,-56,19,48,97,19,68,-9
-78,-97,-19,87,-29,-58,19,48,97,19,68,-9
-78,-92,-14,85,-31,-53,19,48,97,19,68,-9
-78,-92,-14,85,-31,-53,9,39,107,9,68,0
-78,-92,-14,85,-31,-53,9,39,107,14,68,0
-78,-87,-9,82,-34,-48,14,43,107,14,73,0
-78,-87,-9,82,-34,-48,14,43,107,9,73,4
-78,-87,-9,82,-34,-48,0,43,97,19,82,4
-78,-82,-4,80,-36,-43,0,43,97,19,82,4
-78,-78,0,78,-39,-39,0,43,97,24,82,4
-78,-68,9,73,-43,-29,0,43,97,24,82,4
-87,-78,9,82,-48,-34,0,53,107,24,87,4
-87,-78,9,82,-48,-34,0,53,107,34,87,4
-78,-78,0,78,-39,-39,0,48,107,24,87,4
-87,-73,14,80,-51,-29,-9,48,97,24,87,4
-87,-68,19,78,-53,-24,-19,48,97,9,78,0
-87,-73,14,80,-51,-29,-9,39,97,0,68,0
-87,-78,9,82,-48,-34,-9,39,97,0,68,0
-87,-82,4,85,-46,-39,-9,39,97,0,68,0
-87,-87,0,87,-43,-43,-9,39,97,0,68,0
-87,-97,-9,92,-39,-53,-19,48,87,-9,58,-9
-87,-97,-9,92,-39,-53,-14,48,82,-14,58,-9
-92,-97,-4,95,-43,-51,-14,48,82,-14,58,-14
-92,-97,-4,95,-43,-51,-14,48,82,-9,58,-14
-92,-92,0,92,-46,-46,-24,39,82,-9,68,-4
-92,-87,4,90,-48,-41,-19,39,87,-4,68,-4
-87,-73,14,80,-51,-29,-9,43,87,-4,73,-4
-87,-68,19,78,-53,-24,-4,43,92,0,78,0
-87,-58,29,73,-58,-14,-4,53,92,-9,68,-9
-87,-58,29,73,-58,-14,0,63,97,-4,68,-4
-87,-48,39,68,-63,-4,0,63,97,-4,68,-4
-87,-48,39,68,-63,-4,4,63,102,-4,68,-4
-78,-48,29,63,-53,-9,19,63,102,9,63,-4
-78,-43,34,61,-56,-4,24,73,112,9,63,-4
-82,-39,43,61,-63,2,39,78,112,9,63,-4
-82,-39,43,61,-63,2,58,82,117,9,63,-4
-92,-39,53,65,-73,7,63,97,131,19,78,-4
-92,-39,53,65,-73,7,68,107,136,19,78,4
-87,-34,53,61,-70,9,73,112,141,24,82,4
-87,-34,53,61,-70,9,73,122,146,29,87,9
-97,-34,63,65,-80,14,63,117,156,43,87,0
-92,-34,58,63,-75,12,58,117,156,43,92,0
-87,-39,48,63,-68,4,58,112,156,43,92,0
-87,-48,39,68,-63,-4,43,92,146,39,87,0
-92,-43,48,68,-70,2,19,87,131,24,87,0
-92,-43,48,68,-70,2,-4,68,122,14,82,-4
-92,-43,48,68,-70,2,-14,48,112,9,78,-4
-92,-48,43,70,-68,-2,-29,43,97,4,68,-14
-82,-58,24,70,-53,-17,-34,34,87,-9,48,-19
-82,-63,19,73,-51,-21,-39,34,82,-19,43,-19
-82,-63,19,73,-51,-21,-39,34,82,-19,43,-24
-82,-68,14,75,-48,-26,-39,34,82,-24,43,-24
-92,-82,9,87,-51,-36,-29,39,87,-24,43,-29
-92,-82,9,87,-51,-36,-34,34,82,-24,39,-29
-92,-87,4,90,-48,-41,-39,29,78,-19,34,-29
-97,-92,4,95,-51,-43,-48,24,73,-19,29,-34
-97,-97,0,97,-48,-48,-43,19,63,-24,34,-39
-97,-102,-4,100,-46,-53,-53,9,58,-29,29,-43
-102,-107,-4,104,-48,-56,-58,0,48,-39,24,-43
-102,-112,-9,107,-46,-61,-68,-4,43,-43,19,-48
-92,-102,-9,97,-41,-56,-78,-19,34,-58,19,-48
-97,-107,-9,102,-43,-58,-82,-19,29,-58,14,-48
-97,-112,-14,104,-41,-63,-82,-24,29,-63,14,-48
-102,-112,-9,107,-46,-61,-82,-24,29,-63,14,-53
-102,-117,-14,109,-43,-65,-82,-14,24,-63,4,-53
-112,-122,-9,117,-51,-65,-78,-14,24,-68,4,-58
-112,-122,-9,117,-51,-65,-73,-14,24,-68,0,-58
-117,-122,-4,119,-56,-63,-68,-9,24,-68,0,-58
-126,-131,-4,129,-61,-68,-68,-19,24,-63,0,-58
-126,-131,-4,129,-61,-68,-63,-19,24,-63,-4,-63
-126,-136,-9,131,-58,-73,-58,-19,24,-63,-4,-68
-131,-136,-4,134,-63,-70,-53,-19,24,-63,-4,-68
-131,-146,-14,139,-58,-80,-53,-19,24,-73,-19,-78
-131,-156,-24,143,-53,-90,-53,-19,24,-82,-24,-78
-136,-161,-24,148,-56,-92,-53,-19,19,-82,-24,-82
-136,-161,-24,148,-56,-92,-53,-19,14,-82,-24,-82
-126,-151,-24,139,-51,-87,-63,-24,14,-73,-14,-82
-126,-151,-24,139,-51,-87,-63,-29,14,-73,-14,-82
-131,-151,-19,141,-56,-85,-63,-29,14,-73,-19,-82
-131,-151,-19,141,-56,-85,-63,-29,9,-78,-19,-87
-131,-146,-14,139,-58,-80,-53,-19,9,-87,-19,-78
-131,-146,-14,139,-58,-80,-58,-19,9,-87,-24,-78
-131,-151,-19,141,-56,-85,-58,-24,9,-87,-24,-78
-131,-151,-19,141,-56,-85,-58,-24,4,-87,-19,-78
-136,-141,-4,139,-65,-73,-68,-34,4,-87,-29,-87
-136,-141,-4,139,-65,-73,-68,-34,4,-92,-29,-92
-136,-141,-4,139,-65,-73,-68,-34,4,-92,-29,-92
-141,-141,0,141,-70,-70,-68,-34,4,-97,-29,-92
-141,-141,0,141,-70,-70,-63,-24,-4,-97,-29,-92
-141,-146,-4,143,-68,-75,-63,-24,-4,-97,-29,-87
-141,-146,-4,143,-68,-75,-63,-24,-4,-97,-29,-87
-141,-146,-4,143,-68,-75,-63,-29,-4,-92,-34,-87
-141,-156,-14,148,-63,-85,-63,-39,-4,-92,-34,-87
-136,-156,-19,146,-58,-87,-68,-39,-4,-92,-34,-87
-136,-156,-19,146,-58,-87,-68,-39,-4,-92,-34,-92
-141,-156,-14,148,-63,-85,-68,-39,-4,-92,-34,-92
-136,-151,-14,143,-61,-82,-58,-39,-4,-92,-34,-87
-136,-151,-14,143,-61,-82,-58,-39,-4,-92,-34,-87
-136,-151,-14,143,-61,-82,-58,-39,-4,-92,-34,-92
-136,-151,-14,143,-61,-82,-58,-39,-4,-92,-34,-92
-136,-151,-14,143,-61,-82,-68,-48,-9,-87,-43,-97
-136,-156,-19,146,-58,-87,-68,-48,-9,-92,-48,-102
-141,-161,-19,151,-61,-90,-63,-43,-14,-97,-53,-107
-141,-165,-24,153,-58,-95,-58,-43,-14,-102,-63,-107
-141,-180,-39,161,-51,-109,-48,-29,-14,-102,-53,-102
-136,-185,-48,161,-43,-117,-48,-14,4,-92,-48,-102
-126,-175,-48,151,-39,-112,-58,-4,39,-63,-29,-97
-112,-170,-58,141,-26,-114,-73,4,78,-24,4,-73
-97,-156,-58,126,-19,-107,-92,-14,97,14,39,-48
-82,-136,-53,109,-14,-95,-141,-73,82,48,78,-24
-58,-112,-53,85,-2,-82,-214,-170,53,68,117,29
-24,-97,-73,61,24,-85,-307,-292,-24,68,161,68
9,-92,-102,41,56,-97,-400,-429,-126,53,185,112
48,-73,-122,12,85,-97,-488,-585,-248,39,229,161
112,-34,-146,-39,129,-90,-585,-722,-336,58,297,244
180,29,-151,-104,165,-61,-673,-824,-385,122,400,346
263,87,-175,-175,219,-43,-746,-897,-429,175,517,463
322,146,-175,-234,248,-14,-819,-995,-468,234,634,575
375,214,-161,-295,268,26,-868,-1054,-473,297,741,678
409,268,-141,-339,275,63,-902,-1083,-463,346,819,766
444,312,-131,-378,287,90,-946,-1132,-512,326,824,800
444,336,-107,-390,275,114,-1005,-1234,-634,209,761,790
390,346,-43,-368,217,151,-1039,-1356,-780,53,653,746
287,331,43,-309,122,187,-1015,-1459,-927,-131,488,639
146,287,141,-217,2,214,-936,-1532,-1102,-395,239,448
-4,209,214,-102,-109,212,-849,-1576,-1254,-658,-34,244
-141,131,273,4,-207,202,-771,-1566,-1307,-819,-229,68
-239,58,297,90,-268,178,-702,-1507,-1298,-897,-356,-58
-302,-14,287,158,-295,136,-614,-1410,-1239,-912,-439,-156
-331,-58,273,195,-302,107,-541,-1312,-1156,-883,-468,-209
-341,-68,273,204,-307,102,-483,-1205,-1044,-829,-458,-234
-346,-78,268,212,-307,95,-444,-1102,-961,-780,-453,-244
-331,-87,244,209,-287,78,-439,-1005,-883,-732,-439,-253
-302,-97,204,200,-253,53,-419,-878,-775,-678,-405,-248
-297,-112,185,204,-241,36,-351,-736,-653,-600,-366,-248
-287,-122,165,204,-226,21,-302,-614,-546,-527,-312,-244
-258,-126,131,192,-195,2,-273,-522,-444,-429,-244,-209
-229,-112,117,170,-173,2,-219,-414,-336,-336,-190,-175
-195,-122,73,158,-134,-24,-161,-331,-248,-273,-141,-146
-185,-141,43,163,-114,-48,-117,-258,-185,-229,-122,-131
-165,-136,29,151,-97,-53,-102,-190,-141,-204,-112,-126
-141,-126,14,134,-78,-56,-87,-146,-112,-185,-102,-126
-151,-126,24,139,-87,-51,-73,-97,-82,-170,-97,-131
-170,-126,43,148,-107,-41,-53,-73,-48,-151,-82,-131
-156,-117,39,136,-97,-39,-48,-53,-29,-131,-63,-122
-156,-131,24,143,-90,-53,-48,-48,-4,-107,-43,-112
-156,-136,19,146,-87,-58,-48,-43,0,-92,-39,-107
-141,-126,14,134,-78,-56,-43,-43,4,-97,-39,-102
-136,-126,9,131,-73,-58,-43,-39,4,-97,-43,-102
-131,-126,4,129,-68,-61,-39,-24,4,-102,-48,-102
-131,-126,4,129,-68,-61,-39,-14,14,-102,-53,-102
-146,-126,19,136,-82,-53,-43,-9,19,-92,-63,-107
-146,-126,19,136,-82,-53,-43,-4,29,-87,-58,-107
-141,-126,14,134,-78,-56,-39,4,34,-78,-53,-107
-141,-122,19,131,-80,-51,-39,4,39,-68,-48,-102
-141,-126,14,134,-78,-56,-39,0,43,-73,-43,-107
-136,-126,9,131,-73,-58,-39,0,43,-73,-39,-102
-131,-126,4,129,-68,-61,-39,4,39,-73,-39,-102
-131,-126,4,129,-68,-61,-34,9,39,-73,-39,-102
-131,-117,14,124,-73,-51,-43,14,48,-68,-39,-112
-131,-117,14,124,-73,-51,-43,19,53,-63,-39,-112
-131,-117,14,124,-73,-51,-43,24,58,-58,-34,-102
-131,-117,14,124,-73,-51,-43,24,63,-53,-34,-102
-126,-126,0,126,-63,-63,-34,34,58,-53,-19,-92
-122,-126,-4,124,-58,-65,-34,34,63,-48,-19,-92
-122,-126,-4,124,-58,-65,-34,34,68,-43,-19,-92
-126,-122,4,124,-65,-58,-29,43,68,-43,-19,-87
-117,-122,-4,119,-56,-63,-34,39,78,-43,-14,-87
-117,-122,-4,119,-56,-63,-34,39,78,-43,-14,-87
-107,-122,-14,114,-46,-68,-34,43,87,-39,-9,-82
-107,-117,-9,112,-48,-63,-34,48,87,-29,-4,-82
-112,-112,0,112,-56,-56,-34,43,82,-29,-4,-82
-112,-112,0,112,-56,-56,-34,48,87,-24,-4,-78
-112,-112,0,112,-56,-56,-34,53,92,-19,0,-78
-112,-107,4,109,-58,-51,-34,58,97,-14,4,-68
-112,-107,4,109,-58,-51,-24,63,107,-19,4,-68
-107,-107,0,107,-53,-53,-24,73,107,-19,0,-68
-107,-107,0,107,-53,-53,-24,82,112,-14,0,-68
-107,-102,4,104,-56,-48,-24,92,117,-9,0,-63
-107,-92,14,100,-61,-39,-24,87,122,4,4,-58
-107,-92,14,100,-61,-39,-24,92,126,4,9,-58
-102,-87,14,95,-58,-36,-24,97,131,9,9,-58
-92,-82,9,87,-51,-36,-24,107,136,14,14,-53
-92,-92,0,92,-46,-46,-24,117,131,19,24,-48
-92,-92,0,92,-46,-46,-24,126,136,24,29,-43
-87,-92,-4,90,-41,-48,-24,131,146,29,34,-39
-82,-87,-4,85,-39,-46,-24,136,151,34,39,-39
-78,-73,4,75,-41,-34,-24,136,165,48,43,-43
-73,-73,0,73,-36,-36,-24,146,175,58,48,-43
-68,-63,4,65,-36,-29,-24,151,180,68,53,-34
-63,-58,4,61,-34,-26,-19,156,195,73,63,-29
-63,-63,0,63,-31,-31,-19,161,195,78,73,-24
-58,-63,-4,61,-26,-34,-14,175,200,92,87,-19
-58,-58,0,58,-29,-29,-14,185,209,102,97,-14
-53,-53,0,53,-26,-26,-14,195,214,107,102,-9
-39,-39,0,39,-19,-19,-14,204,224,117,107,9
-34,-34,0,34,-17,-17,-14,214,239,126,122,19
-29,-34,-4,31,-12,-19,-14,224,253,136,126,24
-19,-29,-9,24,-4,-19,-14,244,268,146,136,29
-9,-24,-14,17,2,-19,-14,258,268,146,136,29
-4,-19,-14,12,4,-17,-9,268,283,161,146,39
0,-19,-19,9,9,-19,-9,283,302,170,161,48
9,-9,-19,0,14,-14,-4,297,312,190,170,58
9,4,-4,-7,7,0,-4,302,336,204,185,73
24,14,-9,-19,17,2,-9,317,346,219,200,82
29,19,-9,-24,19,4,-9,331,366,234,209,97
39,24,-14,-31,26,4,-4,346,375,248,229,112
48,43,-4,-46,26,19,-4,356,390,263,253,122
58,53,-4,-56,31,24,0,375,405,283,263,136
68,58,-9,-63,39,24,0,390,419,302,278,146
73,63,-9,-68,41,26,0,405,434,322,292,156
82,63,-19,-73,51,21,14,414,448,326,297,156
87,73,-14,-80,51,29,14,434,463,346,307,170
97,78,-19,-87,58,29,14,444,478,366,322,185
107,87,-19,-97,63,34,19,458,492,380,336,190
107,87,-19,-97,63,34,29,473,497,395,341,200
112,92,-19,-102,65,36,29,488,512,409,346,204
122,97,-24,-109,73,36,34,492,522,419,361,209
122,102,-19,-112,70,41,39,497,527,424,370,219
117,102,-14,-109,65,43,39,497,527,424,370,229
126,107,-19,-117,73,43,48,502,531,434,370,234
126,117,-9,-122,68,53,48,512,541,439,375,239
131,122,-9,-126,70,56,48,517,546,448,385,239
141,136,-4,-139,73,65,48,517,551,453,395,244
146,136,-9,-141,78,63,53,517,561,458,395,248
151,141,-9,-146,80,65,53,517,561,458,400,248
151,141,-9,-146,80,65,53,517,561,458,405,253
156,141,-14,-148,85,63,58,517,551,458,395,253
156,141,-14,-148,85,63,58,517,551,458,395,253
156,141,-14,-148,85,63,63,512,551,458,395,248
156,141,-14,-148,85,63,68,507,546,448,390,248
146,126,-19,-136,82,53,73,502,541,448,385,234
141,122,-19,-131,80,51,73,492,531,439,375,229
131,122,-9,-126,70,56,78,483,522,429,366,219
126,117,-9,-122,68,53,82,468,507,409,351,209
117,117,0,-117,58,58,82,444,478,390,331,195
117,112,-4,-114,61,53,82,424,463,375,317,185
107,97,-9,-102,58,43,78,409,444,356,297,175
92,87,-4,-90,48,41,78,390,424,336,287,165
87,87,0,-87,43,43,78,361,390,297,253,146
82,78,-4,-80,43,36,78,341,370,278,234,126
73,68,-4,-70,39,31,73,322,351,258,209,122
58,58,0,-58,29,29,73,307,326,239,190,102
48,43,-4,-46,26,19,73,287,312,219,165,82
39,39,0,-39,19,19,73,263,287,195,146,68
29,29,0,-29,14,14,68,239,268,175,131,53
19,19,0,-19,9,9,58,214,248,161,112,39
9,0,-9,-4,9,-4,53,204,234,141,112,34
4,-9,-14,2,9,-12,53,185,219,126,92,29
-4,-19,-14,12,4,-17,48,165,200,117,78,19
-9,-24,-14,17,2,-19,43,146,180,97,68,9
-29,-19,9,24,-19,-4,39,131,151,82,43,-9
-39,-29,9,34,-24,-9,34,117,141,63,39,-14
-43,-39,4,41,-24,-17,29,97,122,48,29,-24
-48,-43,4,46,-26,-19,24,82,102,43,19,-29
-48,-39,9,43,-29,-14,19,68,102,34,0,-29
-53,-39,14,46,-34,-12,14,58,92,19,-4,-39
-58,-39,19,48,-39,-9,9,53,78,14,-9,-39
-63,-43,19,53,-41,-12,4,39,73,9,-14,-48
-68,-48,19,58,-43,-14,0,24,68,0,-24,-48
-73,-53,19,63,-46,-17,0,19,58,-4,-29,-53
-73,-58,14,65,-43,-21,0,14,48,-9,-34,-58
-78,-63,14,70,-46,-24,-4,4,43,-19,-39,-58
-73,-63,9,68,-41,-26,-9,9,43,-29,-39,-63
-73,-73,0,73,-36,-36,-9,4,39,-29,-39,-68
-78,-73,4,75,-41,-34,-9,0,34,-29,-43,-68
-78,-73,4,75,-41,-34,-9,-4,34,-34,-48,-73
-82,-63,19,73,-51,-21,-14,-14,19,-34,-53,-82
-82,-63,19,73,-51,-21,-14,-19,14,-39,-58,-82
-87,-63,24,75,-56,-19,-14,-24,14,-43,-63,-87
-87,-63,24,75,-56,-19,-14,-24,9,-43,-63,-87
-87,-73,14,80,-51,-29,-14,-29,4,-43,-63,-78
-87,-73,14,80,-51,-29,-19,-29,4,-43,-68,-78
-87,-78,9,82,-48,-34,-19,-29,9,-48,-68,-78
-87,-78,9,82,-48,-34,-19,-29,9,-48,-68,-78
-87,-78,9,82,-48,-34,-14,-29,14,-48,-78,-78
-87,-78,9,82,-48,-34,-14,-29,14,-43,-78,-78
-87,-78,9,82,-48,-34,-14,-29,9,-43,-78,-78
-87,-73,14,80,-51,-29,-14,-29,9,-43,-78,-78
-78,-73,4,75,-41,-34,-14,-29,14,-48,-73,-78
-78,-78,0,78,-39,-39,-14,-29,14,-48,-73,-78
-78,-78,0,78,-39,-39,-14,-29,14,-48,-73,-78
-78,-78,0,78,-39,-39,-14,-29,14,-48,-73,-78
-82,-78,4,80,-43,-36,-14,-29,9,-53,-73,-73
-82,-78,4,80,-43,-36,-14,-24,9,-48,-68,-73
-82,-78,4,80,-43,-36,-14,-24,9,-48,-68,-73
-82,-73,9,78,-46,-31,-14,-24,9,-48,-68,-73
-73,-58,14,65,-43,-21,-14,-19,19,-39,-58,-73
-73,-58,14,65,-43,-21,-14,-19,19,-39,-58,-73
-73,-63,9,68,-41,-26,-14,-19,19,-34,-53,-73
-73,-63,9,68,-41,-26,-14,-19,24,-34,-53,-68
-73,-53,19,63,-46,-17,-19,-9,24,-34,-53,-68
-73,-53,19,63,-46,-17,-19,-9,24,-34,-48,-68
-73,-48,24,61,-48,-12,-19,-4,24,-29,-48,-68
-73,-48,24,61,-48,-12,-19,-4,24,-29,-48,-63
-73,-58,14,65,-43,-21,-9,-4,29,-34,-48,-63
-73,-53,19,63,-46,-17,-9,-4,34,-34,-48,-63
-73,-53,19,63,-46,-17,-9,-4,34,-34,-48,-58
-73,-53,19,63,-46,-17,-9,-4,34,-29,-48,-58
-73,-53,19,63,-46,-17,-9,-4,34,-29,-58,-58
-73,-58,14,65,-43,-21,-9,0,39,-29,-48,-58
-68,-58,9,63,-39,-24,-9,0,39,-29,-48,-58
-68,-53,14,61,-41,-19,-9,0,39,-29,-48,-58
-68,-63,4,65,-36,-29,0,9,39,-29,-48,-68
-68,-63,4,65,-36,-29,0,9,39,-24,-48,-68
-68,-58,9,63,-39,-24,4,14,39,-24,-43,-68
-68,-58,9,63,-39,-24,4,14,39,-29,-43,-63
-68,-63,4,65,-36,-29,0,14,48,-29,-43,-63
-68,-63,4,65,-36,-29,0,14,48,-29,-43,-63
-68,-63,4,65,-36,-29,0,14,48,-24,-43,-63
-68,-58,9,63,-39,-24,0,14,48,-24,-43,-63
-68,-58,9,63,-39,-24,0,14,39,-24,-48,-63
-68,-58,9,63,-39,-24,0,14,39,-24,-48,-63
-68,-58,9,63,-39,-24,0,9,39,-24,-48,-63
-68,-63,4,65,-36,-29,0,9,39,-24,-48,-63
-63,-53,9,58,-36,-21,0,9,39,-24,-48,-53
-63,-53,9,58,-36,-21,0,9,39,-19,-53,-53
-58,-48,9,53,-34,-19,0,9,39,-29,-48,-48
-58,-48,9,53,-34,-19,-9,0,29,-29,-48,-58
-58,-48,9,53,-34,-19,-9,0,29,-29,-48,-58
-58,-48,9,53,-34,-19,-9,0,29,-29,-48,-58
-58,-48,9,53,-34,-19,-9,0,29,-29,-48,-58
-58,-58,0,58,-29,-29,-9,0,29,-39,-58,-58
-58,-58,0,58,-29,-29,-4,0,24,-43,-58,-58
-63,-58,4,61,-34,-26,-4,0,24,-43,-58,-63
-63,-58,4,61,-34,-26,-4,0,24,-39,-58,-63
-63,-63,0,63,-31,-31,-4,0,24,-39,-68,-63
-63,-58,4,61,-34,-26,0,0,29,-34,-68,-63
-58,-43,14,51,-36,-14,9,4,29,-34,-63,-63
-58,-39,19,48,-39,-9,14,4,34,-29,-58,-58
-58,-29,29,43,-43,0,14,-4,34,-29,-48,-58
-58,-29,29,43,-43,0,19,4,39,-24,-48,-53
-58,-19,39,39,-48,9,19,4,39,-24,-48,-53
-58,-19,39,39,-48,9,24,4,43,-24,-48,-53
-58,-14,43,36,-51,14,29,4,29,-19,-53,-53
-58,-4,53,31,-56,24,34,14,34,-19,-53,-53
-63,4,68,29,-65,36,48,19,29,-19,-53,-53
-63,9,73,26,-68,41,68,24,29,-19,-53,-53
-63,0,63,31,-63,31,78,39,29,-19,-48,-63
-63,0,63,31,-63,31,87,48,29,-19,-48,-53
-58,4,63,26,-61,34,97,53,29,-14,-43,-53
-58,4,63,26,-61,34,102,63,29,-9,-39,-48
-58,14,73,21,-65,43,102,63,53,4,-39,-48
-53,14,68,19,-61,41,97,68,58,4,-34,-48
-48,9,58,19,-53,34,97,68,63,4,-34,-48
-48,0,48,24,-48,24,82,53,58,0,-39,-48
-43,4,48,19,-46,26,68,39,53,-14,-48,-48
-43,4,48,19,-46,26,43,19,43,-24,-53,-53
-43,4,48,19,-46,26,34,0,34,-29,-58,-53
-43,0,43,21,-43,21,19,-4,19,-34,-68,-63
-48,-19,29,34,-39,4,14,-14,0,-39,-68,-58
-53,-24,29,39,-41,2,9,-14,-4,-48,-73,-58
-58,-24,34,41,-46,4,9,-14,-4,-48,-73,-63
-63,-29,34,46,-48,2,9,-14,-4,-53,-73,-63
-63,-43,19,53,-41,-12,19,-9,-9,-48,-82,-78
-63,-43,19,53,-41,-12,14,-14,-14,-53,-87,-78
-63,-48,14,56,-39,-17,9,-19,-19,-53,-92,-78
-68,-53,14,61,-41,-19,0,-24,-24,-58,-97,-82
-68,-58,9,63,-39,-24,-4,-29,-24,-73,-102,-87
-68,-63,4,65,-36,-29,-14,-39,-29,-78,-107,-92
-73,-68,4,70,-39,-31,-19,-48,-39,-87,-112,-92
-73,-73,0,73,-36,-36,-29,-53,-43,-92,-117,-97
-63,-73,-9,68,-26,-41,-39,-68,-53,-97,-117,-97
-68,-78,-9,73,-29,-43,-43,-68,-58,-97,-122,-97
-68,-82,-14,75,-26,-48,-43,-73,-58,-102,-122,-97
-73,-82,-9,78,-31,-46,-43,-73,-58,-102,-122,-102
-73,-87,-14,80,-29,-51,-43,-63,-73,-102,-122,-102
-82,-92,-9,87,-36,-51,-39,-63,-73,-107,-122,-107
-82,-92,-9,87,-36,-51,-34,-63,-73,-107,-126,-107
-87,-92,-4,90,-41,-48,-29,-58,-73,-107,-126,-107
-87,-92,-4,90,-41,-48,-29,-68,-73,-112,-126,-107
-87,-92,-4,90,-41,-48,-24,-68,-73,-112,-131,-112
-87,-97,-9,92,-39,-53,-19,-68,-73,-112,-131,-117
-92,-97,-4,95,-43,-51,-14,-68,-73,-112,-131,-117
-92,-97,-4,95,-43,-51,-4,-68,-73,-112,-136,-117
-92,-107,-14,100,-39,-61,-4,-68,-73,-122,-141,-117
-97,-112,-14,104,-41,-63,-4,-68,-78,-122,-141,-122
-97,-112,-14,104,-41,-63,-4,-68,-82,-122,-141,-122
-97,-112,-14,104,-41,-63,-14,-73,-92,-131,-151,-131
-97,-112,-14,104,-41,-63,-14,-78,-92,-131,-151,-131
-102,-112,-9,107,-46,-61,-14,-78,-92,-131,-156,-131
-102,-112,-9,107,-46,-61,-14,-78,-97,-136,-156,-136
-102,-117,-14,109,-43,-65,-14,-78,-97,-136,-156,-136
-102,-117,-14,109,-43,-65,-19,-78,-97,-136,-161,-136
-102,-122,-19,112,-41,-70,-19,-82,-97,-136,-161,-136
-102,-122,-19,112,-41,-70,-19,-82,-102,-136,-156,-136
-97,-112,-14,104,-41,-63,-9,-82,-92,-136,-165,-136
-97,-112,-14,104,-41,-63,-9,-82,-92,-141,-165,-141
-97,-112,-14,104,-41,-63,-9,-82,-92,-141,-165,-141
-102,-112,-9,107,-46,-61,-9,-82,-92,-146,-165,-141
-102,-112,-9,107,-46,-61,-4,-73,-92,-146,-156,-141
-102,-117,-14,109,-43,-65,-4,-73,-92,-146,-156,-136
-102,-117,-14,109,-43,-65,-4,-73,-92,-146,-156,-136
-102,-117,-14,109,-43,-65,-4,-78,-92,-141,-161,-136
-102,-117,-14,109,-43,-65,4,-78,-92,-141,-161,-136
-97,-117,-19,107,-39,-68,0,-78,-92,-141,-161,-136
-97,-117,-19,107,-39,-68,0,-78,-92,-141,-161,-141
-102,-117,-14,109,-43,-65,0,-78,-92,-141,-161,-141
-107,-122,-14,114,-46,-68,9,-78,-92,-141,-161,-136
-107,-122,-14,114,-46,-68,9,-78,-92,-141,-161,-136
-107,-122,-14,114,-46,-68,9,-78,-92,-141,-161,-141
-107,-122,-14,114,-46,-68,9,-78,-92,-141,-161,-141
-107,-117,-9,112,-48,-63,9,-68,-87,-136,-151,-136
-107,-117,-9,112,-48,-63,9,-68,-87,-141,-156,-141
-112,-117,-4,114,-53,-61,14,-63,-92,-146,-161,-146
-112,-117,-4,114,-53,-61,19,-63,-92,-151,-170,-146
-102,-122,-19,112,-41,-70,19,-58,-102,-151,-170,-141
-97,-117,-19,107,-39,-68,19,-53,-92,-141,-175,-141
-87,-117,-29,102,-29,-73,19,-43,-68,-131,-165,-146
-82,-122,-39,102,-21,-80,14,-34,-39,-112,-151,-141
-78,-117,-39,97,-19,-78,-4,-43,-9,-82,-126,-126
-63,-107,-43,85,-9,-75,-43,-92,-14,-58,-97,-102
-48,-102,-53,75,2,-78,-97,-170,-43,-48,-78,-78
-24,-87,-63,56,19,-75,-180,-283,-92,-48,-53,-48
19,-92,-112,36,65,-102,-273,-419,-175,-53,-29,-4
48,-82,-131,17,90,-107,-380,-595,-307,-87,-4,24
92,-63,-156,-14,124,-109,-497,-771,-434,-97,24,68
161,-29,-190,-65,175,-109,-595,-912,-541,-82,97,141
253,9,-244,-131,248,-117,-688,-1005,-614,-48,185,229
331,68,-263,-200,297,-97,-780,-1102,-663,-9,292,331
395,136,-258,-265,326,-61,-849,-1190,-697,43,390,434
458,190,-268,-324,363,-39,-902,-1220,-688,122,497,531
502,244,-258,-373,380,-7,-946,-1239,-668,170,561,605
531,278,-253,-405,392,12,-995,-1302,-722,131,556,624
527,287,-239,-407,383,24,-1049,-1405,-839,24,488,600
483,292,-190,-387,336,51,-1063,-1488,-966,-112,380,541
380,268,-112,-324,246,78,-1015,-1551,-1093,-297,209,439
239,209,-29,-224,134,90,-927,-1625,-1263,-561,-24,273
82,141,58,-112,12,100,-849,-1673,-1395,-810,-258,97
-63,58,122,2,-92,90,-780,-1654,-1434,-936,-424,-39
-165,-14,151,90,-158,68,-692,-1576,-1395,-980,-527,-156
-224,-58,165,141,-195,53,-590,-1468,-1332,-971,-585,-229
-253,-68,185,161,-219,58,-531,-1371,-1229,-927,-595,-263
-278,-68,209,173,-244,70,-492,-1268,-1137,-878,-590,-283
-273,-68,204,170,-239,68,-478,-1180,-1039,-819,-566,-292
-253,-68,185,161,-219,58,-458,-1054,-941,-756,-541,-278
-229,-63,165,146,-197,51,-409,-912,-819,-688,-502,-268
-219,-63,156,141,-187,46,-341,-780,-712,-614,-458,-263
-209,-58,151,134,-180,46,-292,-658,-610,-536,-400,-248
-180,-53,126,117,-153,36,-239,-541,-492,-434,-336,-204
-156,-43,112,100,-134,34,-170,-429,-375,-341,-268,-165
-136,-43,92,90,-114,24,-107,-326,-292,-268,-239,-141
-117,-48,68,82,-92,9,-73,-258,-229,-234,-219,-136
-112,-58,53,85,-82,-2,-48,-214,-200,-224,-209,-136
-102,-68,34,85,-68,-17,-24,-156,-161,-209,-195,-141
-102,-68,34,85,-68,-17,-4,-102,-126,-200,-190,-141
-97,-68,29,82,-63,-19,9,-82,-117,-180,-190,-141
-87,-73,14,80,-51,-29,19,-68,-102,-165,-170,-141
-97,-78,19,87,-58,-29,19,-73,-87,-141,-156,-136
-102,-78,24,90,-63,-26,24,-63,-73,-126,-161,-131
-97,-78,19,87,-58,-29,24,-58,-73,-126,-161,-131
-92,-78,14,85,-53,-31,29,-43,-73,-131,-161,-131
-92,-78,14,85,-53,-31,29,-34,-63,-131,-161,-131
-97,-78,19,87,-58,-29,34,-19,-58,-141,-170,-126
-97,-78,19,87,-58,-29,34,-14,-48,-136,-165,-126
-92,-78,14,85,-53,-31,39,-4,-43,-126,-161,-126
-92,-73,19,82,-56,-26,39,-4,-39,-117,-156,-122
-92,-78,14,85,-53,-31,48,0,-29,-102,-151,-126
-87,-78,9,82,-48,-34,48,0,-24,-102,-146,-122
-82,-78,4,80,-43,-36,48,4,-24,-102,-146,-122
-82,-78,4,80,-43,-36,53,9,-19,-102,-146,-122
-73,-73,0,73,-36,-36,53,24,-19,-107,-146,-131
-73,-68,4,70,-39,-31,53,29,-14,-102,-146,-131
-73,-63,9,68,-41,-26,53,34,-9,-97,-141,-122
-73,-58,14,65,-43,-21,53,34,-4,-92,-141,-122
-68,-58,9,63,-39,-24,53,24,-9,-92,-136,-112
-63,-58,4,61,-34,-26,53,24,-4,-87,-136,-112
-63,-58,4,61,-34,-26,53,24,0,-82,-136,-112
-68,-53,14,61,-41,-19,58,34,0,-82,-136,-107
-68,-63,4,65,-36,-29,63,39,0,-82,-131,-107
-68,-63,4,65,-36,-29,63,39,0,-82,-131,-107
-58,-63,-4,61,-26,-34,63,43,9,-78,-126,-102
-58,-58,0,58,-29,-29,63,48,9,-68,-122,-102
-53,-53,0,53,-26,-26,63,53,14,-68,-122,-102
-53,-53,0,53,-26,-26,63,58,19,-63,-122,-97
-53,-53,0,53,-26,-26,63,63,24,-58,-117,-97
-53,-48,4,51,-29,-21,63,68,29,-53,-112,-87
-53,-39,14,46,-34,-12,63,78,29,-48,-117,-97
-48,-39,9,43,-29,-14,63,82,29,-48,-117,-97
-48,-39,9,43,-29,-14,63,87,34,-43,-112,-97
-48,-34,14,41,-31,-9,63,92,39,-39,-107,-92
-48,-34,14,41,-31,-9,63,97,53,-34,-102,-78
-48,-34,14,41,-31,-9,63,102,58,-34,-97,-78
-43,-29,14,36,-29,-7,63,107,63,-29,-97,-78
-34,-24,9,29,-21,-7,63,117,68,-24,-92,-73
-34,-24,9,29,-21,-7,63,117,63,-19,-92,-68
-34,-24,9,29,-21,-7,63,126,68,-14,-87,-63
-29,-24,4,26,-17,-9,63,131,78,-9,-82,-58
-24,-19,4,21,-14,-7,63,136,82,-4,-78,-58
-19,-14,4,17,-12,-4,73,146,97,-9,-73,-63
-14,-14,0,14,-7,-7,73,156,107,0,-68,-63
-9,-4,4,7,-7,0,73,161,112,9,-63,-53
-4,0,4,2,-4,2,78,165,126,14,-53,-48
-4,-4,0,4,-2,-2,78,170,126,29,-53,-43
0,-4,-4,2,2,-4,82,185,131,43,-39,-39
0,0,0,0,0,0,82,195,141,53,-29,-34
4,4,0,-4,2,2,82,204,146,58,-24,-29
9,9,0,-9,4,4,92,224,151,58,-19,-29
14,14,0,-14,7,7,92,234,161,68,-4,-19
19,14,-4,-17,12,4,92,244,170,78,0,-14
29,19,-9,-24,19,4,92,263,180,87,9,-9
29,34,4,-31,12,19,92,278,200,107,19,0
34,39,4,-36,14,21,97,287,214,122,29,9
39,39,0,-39,19,19,97,302,234,131,43,19
48,48,0,-48,24,24,102,317,244,151,53,29
48,53,4,-51,21,29,102,322,248,156,58,39
63,63,0,-63,31,31,97,336,258,170,73,43
68,68,0,-68,34,34,97,351,278,185,82,53
78,73,-4,-75,41,34,102,366,287,200,102,63
97,82,-14,-90,56,34,102,385,302,219,117,73
107,92,-14,-100,61,39,107,405,317,234,126,87
117,97,-19,-107,68,39,107,419,331,248,141,97
122,102,-19,-112,70,41,107,434,346,263,156,107
131,122,-9,-126,70,56,122,444,361,268,170,117
136,131,-4,-134,70,63,122,463,375,287,180,131
146,136,-9,-141,78,63,122,473,390,307,195,146
156,146,-9,-151,82,68,126,488,405,322,209,151
165,141,-24,-153,95,58,126,502,419,336,234,170
170,151,-19,-161,95,65,126,517,434,351,239,175
180,161,-19,-170,100,70,131,522,444,361,253,180
180,170,-9,-175,95,80,136,527,448,366,263,190
195,170,-24,-183,109,73,136,536,458,385,273,200
204,175,-29,-190,117,73,146,541,463,395,273,204
204,185,-19,-195,112,82,146,551,473,400,278,209
209,190,-19,-200,114,85,146,556,478,409,287,209
200,185,-14,-192,107,85,156,561,483,414,297,224
204,185,-19,-195,112,82,161,566,492,419,297,229
209,190,-19,-200,114,85,161,570,492,419,302,229
209,190,-19,-200,114,85,161,575,492,419,307,234
214,200,-14,-207,114,92,156,575,492,419,297,224
214,200,-14,-207,114,92,156,575,492,419,297,224
214,200,-14,-207,114,92,161,570,492,419,297,219
214,200,-14,-207,114,92,165,566,488,409,292,219
224,195,-29,-209,126,82,161,551,483,409,297,224
219,190,-29,-204,124,80,161,541,473,400,287,219
209,190,-19,-200,114,85,165,531,463,390,278,209
204,185,-19,-195,112,82,170,517,448,370,263,200
195,175,-19,-185,107,78,170,492,429,351,244,185
195,170,-24,-183,109,73,170,473,414,336,229,175
185,156,-29,-170,107,63,165,458,395,317,209,165
170,146,-24,-158,97,61,165,439,375,297,200,156
156,141,-14,-148,85,63,165,409,351,278,175,136
151,136,-14,-143,82,61,165,390,331,258,156,117
141,131,-9,-136,75,61,161,370,312,239,131,112
126,126,0,-126,63,63,161,356,287,219,112,92
107,122,14,-114,46,68,151,326,263,200,97,82
97,117,19,-107,39,68,151,302,239,175,78,68
87,107,19,-97,34,63,146,278,219,156,63,53
78,97,19,-87,29,58,136,253,200,141,43,39
78,78,0,-78,39,39,141,234,175,112,34,24
73,68,-4,-70,39,31,141,214,161,97,14,19
63,58,-4,-61,34,26,136,195,141,87,0,9
58,53,-4,-56,31,24,131,175,122,68,-9,0
48,58,9,-53,19,34,126,161,102,53,-34,-9
39,48,9,-43,14,29,122,146,92,34,-39,-14
34,39,4,-36,14,21,117,126,73,19,-48,-24
29,34,4,-31,12,19,112,112,53,14,-58,-29
19,19,0,-19,9,9,107,87,43,-4,-78,-39
14,19,4,-17,4,12,102,78,34,-19,-82,-48
9,19,9,-14,0,14,97,73,19,-24,-87,-48
4,14,9,-9,-2,12,92,58,14,-29,-92,-58
9,19,9,-14,0,14,87,43,9,-39,-102,-58
4,14,9,-9,-2,12,87,39,0,-43,-107,-63
4,9,4,-7,0,7,87,34,-9,-48,-112,-68
0,4,4,-2,-2,4,82,24,-14,-58,-117,-68
-4,0,4,2,-4,2,68,19,-24,-68,-126,-63
-4,-4,0,4,-2,-2,68,14,-29,-68,-126,-68
-9,0,9,4,-9,4,68,9,-34,-68,-131,-68
-9,4,14,2,-12,9,68,4,-34,-73,-136,-73
-14,4,19,4,-17,12,63,14,-29,-63,-136,-73
-14,4,19,4,-17,12,63,9,-34,-68,-136,-73
-19,4,24,7,-21,14,63,4,-34,-73,-136,-78
-19,4,24,7,-21,14,63,4,-39,-73,-131,-78
-9,4,14,2,-12,9,63,0,-43,-82,-131,-78
-9,4,14,2,-12,9,58,0,-43,-82,-136,-78
-9,0,9,4,-9,4,58,0,-39,-87,-136,-78
-9,0,9,4,-9,4,58,0,-39,-87,-136,-78
-9,0,9,4,-9,4,63,-9,-43,-87,-136,-78
-9,0,9,4,-9,4,63,-9,-43,-82,-136,-78
-9,0,9,4,-9,4,63,-9,-48,-82,-136,-78
-9,4,14,2,-12,9,63,-9,-48,-82,-136,-78
-9,4,14,2,-12,9,63,0,-43,-78,-131,-78
-9,0,9,4,-9,4,63,0,-43,-78,-131,-78
-9,0,9,4,-9,4,63,0,-43,-78,-131,-78
-9,0,9,4,-9,4,63,0,-43,-78,-131,-78
-14,0,14,7,-14,7,63,0,-39,-82,-131,-82
-14,0,14,7,-14,7,63,4,-39,-78,-126,-82
-14,0,14,7,-14,7,63,4,-39,-78,-126,-82
-14,4,19,4,-17,12,63,4,-39,-78,-126,-82
-4,19,24,-7,-14,21,63,0,-39,-87,-136,-82
-4,19,24,-7,-14,21,63,0,-39,-87,-136,-82
-4,14,19,-4,-12,17,63,0,-39,-82,-131,-82
-4,14,19,-4,-12,17,63,0,-34,-82,-131,-78
-4,4,9,0,-7,7,68,9,-24,-73,-122,-78
-4,4,9,0,-7,7,68,9,-24,-73,-117,-78
-4,9,14,-2,-9,12,68,14,-24,-68,-117,-78
-4,9,14,-2,-9,12,68,14,-24,-68,-117,-73
-4,0,4,2,-4,2,68,14,-29,-73,-126,-73
-4,4,9,0,-7,7,68,14,-24,-73,-126,-73
-4,4,9,0,-7,7,68,14,-24,-73,-126,-68
-4,4,9,0,-7,7,68,14,-24,-68,-126,-68
-4,14,19,-4,-12,17,68,4,-24,-68,-126,-68
-4,9,14,-2,-9,12,68,9,-19,-68,-117,-68
0,9,9,-4,-4,9,68,9,-19,-68,-117,-68
0,14,14,-7,-7,14,68,9,-19,-68,-117,-68
0,14,14,-7,-7,14,78,9,-19,-68,-117,-68
0,14,14,-7,-7,14,78,9,-19,-63,-117,-68
0,19,19,-9,-9,19,82,14,-19,-63,-112,-68
0,19,19,-9,-9,19,82,14,-19,-68,-112,-63
0,14,14,-7,-7,14,87,24,-19,-58,-112,-63
0,14,14,-7,-7,14,87,24,-19,-58,-112,-63
0,14,14,-7,-7,14,87,24,-19,-53,-112,-63
0,19,19,-9,-9,19,87,24,-19,-53,-112,-63
0,19,19,-9,-9,19,78,14,-19,-63,-107,-63
0,19,19,-9,-9,19,78,14,-19,-63,-107,-63
0,19,19,-9,-9,19,78,9,-19,-63,-107,-63
0,14,14,-7,-7,14,78,9,-19,-63,-107,-63
4,24,19,-14,-7,21,87,19,-19,-63,-107,-63
4,24,19,-14,-7,21,87,9,-29,-58,-112,-63
9,19,9,-14,0,14,87,9,-29,-58,-117,-68
9,19,9,-14,0,14,78,9,-29,-58,-117,-68
9,19,9,-14,0,14,78,9,-29,-58,-117,-68
9,19,9,-14,0,14,78,9,-29,-58,-117,-68
9,19,9,-14,0,14,78,9,-29,-58,-117,-68
9,19,9,-14,0,14,78,9,-29,-68,-126,-68
9,19,9,-14,0,14,82,9,-34,-73,-126,-68
4,19,14,-12,-4,17,82,9,-34,-73,-126,-73
4,19,14,-12,-4,17,82,9,-34,-68,-126,-73
4,14,9,-9,-2,12,82,9,-34,-68,-117,-63
4,19,14,-12,-4,17,87,9,-29,-63,-117,-63
9,34,24,-21,-7,29,97,14,-29,-63,-112,-63
9,39,29,-24,-9,34,102,14,-24,-58,-107,-58
9,48,39,-29,-14,43,102,14,-24,-58,-117,-68
9,48,39,-29,-14,43,107,24,-19,-53,-117,-63
9,58,48,-34,-19,53,107,24,-19,-53,-117,-63
9,58,48,-34,-19,53,112,24,-14,-53,-117,-63
9,68,58,-39,-24,63,117,14,-14,-48,-102,-53
9,73,63,-41,-26,68,122,24,-4,-48,-102,-53
4,78,73,-41,-34,75,136,29,-4,-48,-102,-53
4,78,73,-41,-34,75,156,34,0,-48,-102,-53
4,78,73,-41,-34,75,165,48,4,-39,-107,-63
4,78,73,-41,-34,75,175,58,9,-39,-107,-53
9,82,73,-46,-31,78,185,63,14,-34,-102,-53
9,82,73,-46,-31,78,190,73,19,-29,-97,-48
19,92,73,-56,-26,82,200,78,39,-14,-87,-48
24,92,68,-58,-21,80,195,87,39,-14,-82,-48
29,87,58,-58,-14,73,195,92,39,-14,-82,-48
29,78,48,-53,-9,63,180,82,29,-19,-87,-48
24,73,48,-48,-12,61,161,78,24,-24,-87,-39
24,73,48,-48,-12,61,141,58,14,-34,-92,-43
24,73,48,-48,-12,61,136,39,4,-39,-97,-43
24,68,43,-46,-9,56,126,34,-9,-43,-107,-53
24,58,34,-41,-4,46,107,19,-29,-48,-117,-68
24,53,29,-39,-2,41,97,14,-34,-58,-122,-68
24,53,29,-39,-2,41,92,9,-34,-58,-122,-73
24,48,24,-36,0,36,87,4,-34,-63,-122,-73
14,43,29,-29,-7,36,97,9,-29,-68,-122,-68
14,43,29,-29,-7,36,92,4,-34,-73,-126,-68
14,39,24,-26,-4,31,87,0,-39,-73,-131,-68
9,34,24,-21,-7,29,78,-4,-43,-78,-136,-73
9,29,19,-19,-4,24,73,-19,-53,-82,-131,-78
9,24,14,-17,-2,19,63,-29,-58,-87,-136,-82
4,19,14,-12,-4,17,58,-39,-68,-97,-141,-82
4,14,9,-9,-2,12,48,-43,-73,-102,-146,-87
4,4,0,-4,2,2,48,-48,-82,-107,-156,-97
0,0,0,0,0,0,43,-48,-87,-107,-161,-97
0,-4,-4,2,2,-4,43,-53,-87,-112,-161,-97
-4,-4,0,4,-2,-2,43,-53,-87,-112,-161,-102
4,0,-4,-2,4,-2,34,-53,-102,-117,-170,-102
-4,-4,0,4,-2,-2,39,-53,-102,-126,-170,-107
-4,-4,0,4,-2,-2,43,-53,-102,-131,-175,-107
-9,-4,4,7,-7,0,48,-48,-102,-136,-175,-107
-19,-14,4,17,-12,-4,58,-48,-102,-131,-165,-97
-19,-14,4,17,-12,-4,63,-48,-102,-131,-170,-102
-19,-19,0,19,-9,-9,68,-48,-102,-131,-170,-107
-24,-19,4,21,-14,-7,73,-48,-102,-131,-170,-107
-34,-9,24,21,-29,7,73,-48,-102,-122,-165,-107
-34,-19,14,26,-24,-2,73,-48,-102,-131,-170,-107
-39,-24,14,31,-26,-4,73,-48,-107,-131,-170,-112
-39,-24,14,31,-26,-4,73,-48,-112,-131,-170,-112
-29,-24,4,26,-17,-9,73,-53,-112,-141,-180,-112
-29,-24,4,26,-17,-9,73,-58,-112,-141,-180,-112
-34,-24,9,29,-21,-7,73,-58,-112,-141,-185,-112
-34,-24,9,29,-21,-7,73,-58,-117,-146,-185,-117
-43,-19,24,31,-34,2,82,-58,-117,-146,-185,-126
-43,-19,24,31,-34,2,78,-58,-117,-146,-190,-126
-43,-24,19,34,-31,-2,78,-63,-117,-146,-190,-126
-43,-24,19,34,-31,-2,78,-63,-122,-146,-185,-126
-39,-14,24,26,-31,4,78,-63,-122,-146,-185,-117
-39,-14,24,26,-31,4,78,-63,-122,-151,-185,-122
-39,-14,24,26,-31,4,78,-63,-122,-151,-185,-122
-43,-14,29,29,-36,7,78,-63,-122,-156,-185,-122
-34,-14,19,24,-26,2,73,-63,-131,-146,-185,-122
-34,-19,14,26,-24,-2,73,-63,-131,-146,-185,-117
-34,-19,14,26,-24,-2,73,-63,-131,-146,-185,-117
-34,-19,14,26,-24,-2,73,-68,-131,-141,-190,-117
-43,-19,24,31,-34,2,78,-68,-131,-151,-190,-126
-39,-19,19,29,-29,0,78,-68,-131,-151,-190,-126
-39,-19,19,29,-29,0,82,-68,-131,-151,-190,-131
-43,-19,24,31,-34,2,87,-68,-131,-151,-190,-131
-39,-24,14,31,-26,-4,87,-68,-131,-151,-190,-126
-39,-24,14,31,-26,-4,87,-68,-131,-151,-190,-126
-39,-24,14,31,-26,-4,87,-68,-131,-151,-190,-131
-39,-24,14,31,-26,-4,87,-68,-131,-151,-190,-131
-29,-19,9,24,-19,-4,78,-68,-136,-146,-180,-126
-29,-19,9,24,-19,-4,78,-68,-136,-151,-185,-131
-34,-19,14,26,-24,-2,82,-63,-141,-156,-190,-136
-34,-19,14,26,-24,-2,87,-63,-141,-161,-200,-136
-43,-24,19,34,-31,-2,87,-58,-141,-161,-200,-141
-48,-29,19,39,-34,-4,97,-53,-141,-161,-204,-151
-48,-39,9,43,-29,-14,97,-53,-146,-161,-204,-146
-43,-34,9,39,-26,-12,92,-43,-126,-151,-200,-151
-29,-39,-9,34,-9,-24,82,-53,-107,-131,-175,-136
-24,-29,-4,26,-9,-17,53,-82,-92,-97,-146,-112
-19,-34,-14,26,-2,-24,9,-161,-102,-78,-117,-87
14,-29,-43,7,29,-36,-73,-253,-131,-68,-92,-58
58,-14,-73,-21,65,-43,-165,-380,-195,-73,-78,-34
97,-14,-112,-41,104,-63,-263,-536,-317,-107,-63,-4
141,-4,-146,-68,143,-75,-380,-732,-492,-156,-53,29
190,9,-180,-100,185,-85,-478,-912,-649,-180,-19,73
273,48,-224,-161,248,-87,-570,-1024,-741,-165,58,141
370,87,-283,-229,326,-97,-663,-1112,-790,-126,156,244
453,146,-307,-300,380,-80,-751,-1220,-824,-73,263,346
517,209,-307,-363,412,-48,-805,-1288,-814,-4,370,453
570,253,-317,-412,444,-31,-849,-1307,-785,73,453,536
610,287,-322,-448,466,-17,-897,-1371,-810,63,468,566
624,317,-307,-470,466,4,-951,-1464,-917,-34,409,561
600,312,-287,-456,444,12,-976,-1556,-1054,-180,302,512
517,287,-229,-402,373,29,-946,-1639,-1190,-356,161,419
375,239,-136,-307,256,51,-878,-1722,-1361,-590,-53,273
219,170,-48,-195,134,61,-800,-1790,-1522,-849,-307,87
53,97,43,-75,4,70,-722,-1800,-1590,-1015,-492,-58
-78,24,102,26,-90,63,-614,-1722,-1551,-1058,-595,-165
-156,-39,117,97,-136,39,-522,-1605,-1478,-1058,-653,-248
-195,-58,136,126,-165,39,-434,-1488,-1385,-1024,-673,-302
-239,-48,190,143,-214,70,-385,-1385,-1283,-956,-658,-312
-244,-29,214,136,-229,92,-341,-1278,-1185,-907,-644,-312
-234,-19,214,126,-224,97,-312,-1161,-1078,-834,-610,-317
-219,-24,195,122,-207,85,-273,-1019,-956,-756,-551,-297
-200,-24,175,112,-187,75,-214,-868,-839,-673,-497,-283
-180,-9,170,95,-175,80,-156,-717,-707,-575,-439,-258
-151,4,156,73,-153,80,-112,-600,-580,-473,-375,-214
-117,24,141,46,-129,82,-63,-478,-453,-370,-317,-175
-78,34,112,21,-95,73,0,-366,-361,-287,-258,-151
-58,29,87,14,-73,58,43,-278,-297,-244,-229,-126
-43,19,63,12,-53,41,68,-214,-258,-224,-219,-136
-43,19,63,12,-53,41,82,-165,-239,-219,-214,-141
-43,19,63,12,-53,41,92,-112,-195,-200,-200,-141
-39,19,58,9,-48,39,107,-73,-165,-180,-190,-131
-39,14,53,12,-46,34,117,-58,-141,-156,-180,-131
-39,9,48,14,-43,29,117,-53,-126,-141,-175,-126
-34,9,43,12,-39,26,112,-53,-122,-131,-161,-112
-29,9,39,9,-34,24,112,-48,-122,-126,-161,-112
-24,9,34,7,-29,21,117,-34,-122,-126,-161,-112
-24,9,34,7,-29,21,117,-24,-112,-122,-161,-112
-39,19,58,9,-48,39,131,-9,-97,-122,-170,-126
-39,19,58,9,-48,39,131,-4,-87,-117,-165,-126
-34,19,53,7,-43,36,136,4,-82,-107,-161,-126
-34,24,58,4,-46,41,136,4,-78,-97,-156,-122
-24,24,48,0,-36,36,136,19,-68,-92,-151,-117
-19,19,39,0,-29,29,136,19,-63,-92,-146,-112
-14,14,29,0,-21,21,136,24,-63,-92,-146,-112
-14,9,24,2,-19,17,141,29,-58,-92,-146,-112
-14,9,24,2,-19,17,141,34,-68,-97,-136,-112
-14,9,24,2,-19,17,141,39,-63,-92,-136,-112
-14,9,24,2,-19,17,141,43,-58,-87,-131,-102
-14,9,24,2,-19,17,141,43,-53,-82,-131,-102
-9,19,29,-4,-19,24,141,53,-58,-73,-126,-102
-4,19,24,-7,-14,21,141,53,-53,-68,-126,-102
-4,19,24,-7,-14,21,141,53,-48,-63,-126,-102
-9,24,34,-7,-21,29,146,63,-48,-63,-126,-97
0,24,24,-12,-12,24,141,68,-39,-63,-122,-87
0,24,24,-12,-12,24,141,68,-39,-63,-122,-87
9,24,14,-17,-2,19,141,73,-29,-58,-117,-82
9,29,19,-19,-4,24,141,78,-29,-48,-112,-82
14,34,19,-24,-2,26,151,82,-34,-48,-112,-82
14,34,19,-24,-2,26,151,87,-29,-43,-112,-78
14,34,19,-24,-2,26,151,92,-24,-39,-107,-78
14,39,24,-26,-4,31,151,97,-19,-34,-102,-68
14,39,24,-26,-4,31,161,97,-19,-29,-97,-68
19,39,19,-29,0,29,161,102,-19,-29,-97,-68
19,39,19,-29,0,29,161,107,-14,-24,-92,-68
19,43,24,-31,-2,34,161,112,-9,-19,-87,-63
19,34,14,-26,2,24,161,126,-4,-4,-73,-48
19,34,14,-26,2,24,161,131,0,-4,-68,-48
24,39,14,-31,4,26,161,136,4,0,-68,-48
34,43,9,-39,12,26,161,146,9,4,-63,-43
34,53,19,-43,7,36,170,146,24,9,-63,-48
34,53,19,-43,7,36,170,156,29,14,-58,-43
39,53,14,-46,12,34,170,161,39,19,-53,-39
43,58,14,-51,14,36,170,165,43,24,-48,-39
48,63,14,-56,17,39,170,185,48,19,-43,-34
53,63,9,-58,21,36,170,195,58,29,-39,-34
58,73,14,-65,21,43,170,200,63,39,-34,-24
63,78,14,-70,24,46,175,204,78,43,-24,-19
63,73,9,-68,26,41,175,209,78,58,-24,-4
68,73,4,-70,31,39,180,224,82,73,-9,0
68,78,9,-73,29,43,180,234,92,82,0,4
73,82,9,-78,31,46,180,244,97,87,4,9
78,87,9,-82,34,48,190,253,112,97,0,19
82,92,9,-87,36,51,190,263,122,107,14,29
87,92,4,-90,41,48,190,273,131,117,19,34
97,97,0,-97,48,48,190,292,141,126,29,39
97,102,4,-100,46,53,190,317,151,126,39,39
102,107,4,-104,48,56,195,326,165,141,48,48
107,107,0,-107,53,53,195,341,185,151,63,58
117,117,0,-117,58,58,200,356,195,170,73,68
122,131,9,-126,56,70,200,370,200,185,87,87
141,141,0,-141,70,70,195,385,209,200,102,92
151,146,-4,-148,78,70,195,400,229,214,112,102
165,151,-14,-158,90,68,200,414,239,229,131,112
175,161,-14,-168,95,73,209,429,263,248,146,112
185,170,-14,-178,100,78,214,453,278,263,156,126
195,175,-19,-185,107,78,214,473,292,278,170,136
200,180,-19,-190,109,80,214,492,307,292,185,146
200,180,-19,-190,109,80,219,502,312,297,200,156
204,190,-14,-197,109,87,219,522,326,317,209,170
214,195,-19,-204,117,87,219,531,341,336,224,185
224,204,-19,-214,122,92,224,546,356,351,239,190
244,219,-24,-231,134,97,234,570,380,361,263,204
248,229,-19,-239,134,104,234,585,395,380,268,214
258,239,-19,-248,139,109,239,590,405,395,283,224
258,248,-9,-253,134,119,244,595,409,405,292,239
273,248,-24,-261,148,112,234,614,419,424,312,248
283,253,-29,-268,156,112,244,619,424,434,312,253
283,263,-19,-273,151,122,244,629,434,439,317,258
287,268,-19,-278,153,124,244,634,439,448,326,258
287,263,-24,-275,156,119,253,644,444,453,326,263
292,263,-29,-278,161,117,258,644,453,458,326,268
297,268,-29,-283,163,119,258,644,453,458,331,268
297,268,-29,-283,163,119,258,644,453,458,336,273
292,278,-14,-285,153,131,263,653,463,468,346,273
292,278,-14,-285,153,131,263,653,463,468,346,273
292,278,-14,-285,153,131,268,649,463,468,346,268
292,278,-14,-285,153,131,273,644,458,458,341,268
302,273,-29,-287,165,122,273,639,453,448,336,273
297,268,-29,-283,163,119,268,629,444,439,326,268
287,268,-19,-278,153,124,268,619,434,429,317,258
283,263,-19,-273,151,122,268,605,419,409,302,248
273,263,-9,-268,141,126,258,590,400,400,292,244
273,258,-14,-265,143,122,258,570,385,385,278,234
263,244,-19,-253,141,112,253,556,366,366,258,224
248,234,-14,-241,131,109,253,536,346,346,248,214
234,224,-9,-229,122,107,253,502,312,317,224,195
229,214,-14,-222,122,100,253,478,292,297,204,175
219,204,-14,-212,117,95,248,453,273,278,180,170
204,195,-9,-200,107,92,248,434,248,258,161,151
185,180,-4,-183,95,87,239,405,224,239,146,141
175,175,0,-175,87,87,239,380,200,214,126,126
165,165,0,-165,82,82,234,356,180,195,112,112
156,156,0,-156,78,78,224,331,161,180,92,97
136,136,0,-136,68,68,219,302,141,156,73,73
131,126,-4,-129,68,61,219,283,122,136,53,68
122,117,-4,-119,63,56,214,263,97,122,39,58
117,112,-4,-114,61,53,209,244,73,97,29,48
107,107,0,-107,53,53,195,229,53,92,14,39
97,97,0,-97,48,48,190,214,43,73,9,34
92,87,-4,-90,48,41,185,195,24,58,0,24
87,82,-4,-85,46,39,180,180,4,53,-9,19
87,87,0,-87,43,43,185,156,-4,34,-19,19
82,87,4,-85,39,46,180,146,-14,19,-24,9
78,87,9,-82,34,48,175,141,-29,14,-29,9
73,82,9,-78,31,46,170,126,-34,9,-34,0
68,78,9,-73,29,43,156,107,-48,0,-43,0
63,73,9,-68,26,41,156,97,-58,-4,-48,-4
63,68,4,-65,29,36,156,87,-68,-9,-53,-9
58,63,4,-61,26,34,151,73,-73,-19,-58,-9
43,63,19,-53,12,41,136,68,-73,-29,-68,-14
43,53,9,-48,17,31,136,63,-78,-29,-68,-19
39,53,14,-46,12,34,136,58,-82,-29,-73,-19
39,53,14,-46,12,34,136,53,-82,-34,-78,-24
43,63,19,-53,12,41,131,53,-87,-24,-73,-24
43,63,19,-53,12,41,131,48,-92,-29,-78,-24
39,63,24,-51,7,43,131,43,-92,-34,-82,-29
39,63,24,-51,7,43,131,43,-97,-34,-82,-29
48,63,14,-56,17,39,122,39,-112,-34,-73,-29
48,63,14,-56,17,39,117,39,-112,-34,-78,-29
48,58,9,-53,19,34,117,39,-107,-39,-78,-29
48,58,9,-53,19,34,117,39,-107,-39,-78,-29
43,48,4,-46,19,26,122,29,-102,-43,-87,-39
39,48,9,-43,14,29,122,29,-102,-43,-87,-39
34,48,14,-41,9,31,122,29,-107,-48,-87,-39
29,53,24,-41,2,39,122,29,-107,-53,-87,-39
39,53,14,-46,12,34,122,39,-102,-58,-92,-39
39,48,9,-43,14,29,122,39,-102,-58,-92,-39
39,48,9,-43,14,29,122,39,-102,-58,-92,-39
39,48,9,-43,14,29,122,39,-102,-58,-92,-39
43,48,4,-46,19,26,131,39,-97,-53,-92,-34
43,48,4,-46,19,26,131,43,-97,-48,-87,-34
43,48,4,-46,19,26,131,43,-97,-48,-87,-34
43,53,9,-48,17,31,131,43,-97,-48,-87,-34
43,58,14,-51,14,36,122,48,-107,-39,-78,-34
43,58,14,-51,14,36,122,48,-107,-39,-78,-34
43,53,9,-48,17,31,122,48,-107,-34,-73,-34
43,53,9,-48,17,31,122,48,-102,-34,-73,-29
53,63,9,-58,21,36,126,48,-102,-43,-73,-29
53,63,9,-58,21,36,126,48,-102,-43,-68,-29
53,68,14,-61,19,41,126,53,-102,-39,-68,-29
53,68,14,-61,19,41,126,53,-102,-39,-68,-24
43,68,24,-56,9,46,136,53,-97,-24,-58,-24
43,73,29,-58,7,51,136,53,-92,-24,-58,-24
43,73,29,-58,7,51,136,53,-92,-24,-58,-19
43,73,29,-58,7,51,136,53,-92,-19,-58,-19
43,63,19,-53,12,41,146,63,-92,-19,-68,-19
43,58,14,-51,14,36,146,68,-87,-19,-58,-19
48,58,9,-53,19,34,146,68,-87,-19,-58,-19
48,63,14,-56,17,39,146,68,-87,-19,-58,-19
39,63,24,-51,7,43,136,68,-78,-29,-58,-29
39,63,24,-51,7,43,136,68,-78,-24,-58,-29
39,68,29,-53,4,48,141,73,-78,-24,-53,-29
39,68,29,-53,4,48,141,73,-78,-29,-53,-24
48,73,24,-61,12,48,136,63,-87,-19,-53,-14
48,73,24,-61,12,48,136,63,-87,-19,-53,-14
48,73,24,-61,12,48,136,63,-87,-14,-53,-14
48,78,29,-63,9,53,136,63,-87,-14,-53,-14
39,78,39,-58,0,58,126,63,-78,-19,-58,-24
39,78,39,-58,0,58,126,63,-78,-24,-58,-24
39,78,39,-58,0,58,126,58,-78,-29,-58,-24
39,73,34,-56,2,53,126,58,-78,-34,-58,-24
43,73,29,-58,7,51,126,68,-78,-24,-48,-24
43,73,29,-58,7,51,126,58,-78,-29,-53,-14
43,73,29,-58,7,51,126,58,-82,-29,-53,-19
48,78,29,-63,9,53,126,58,-87,-29,-58,-19
39,73,34,-56,2,53,126,58,-87,-19,-48,-19
39,68,29,-53,4,48,126,58,-87,-19,-48,-19
39,63,24,-51,7,43,126,58,-87,-19,-48,-19
39,58,19,-48,9,39,126,58,-87,-19,-48,-19
48,63,14,-56,17,39,117,48,-87,-19,-48,-19
48,68,19,-58,14,43,122,48,-92,-24,-48,-19
43,73,29,-58,7,51,122,48,-92,-24,-48,-24
43,78,34,-61,4,56,122,48,-92,-19,-48,-24
53,82,29,-68,12,56,122,53,-82,-19,-39,-14
53,87,34,-70,9,61,126,58,-78,-14,-39,-14
58,102,43,-80,7,73,136,68,-78,-14,-34,-14
58,107,48,-82,4,78,141,73,-73,-9,-29,-9
48,112,63,-80,-7,87,151,73,-73,-19,-39,-19
48,107,58,-78,-4,82,156,82,-68,-14,-39,-14
48,112,63,-80,-7,87,156,82,-68,-14,-39,-14
48,107,58,-78,-4,82,161,82,-63,-14,-39,-14
48,117,68,-82,-9,92,156,73,-63,0,-24,-4
48,122,73,-85,-12,97,161,82,-53,0,-24,-4
43,126,82,-85,-19,104,175,87,-53,0,-24,-4
43,126,82,-85,-19,104,195,92,-48,0,-24,-4
53,126,73,-90,-9,100,195,107,-43,19,-19,-4
53,126,73,-90,-9,100,204,117,-39,19,-19,4
58,131,73,-95,-7,102,214,122,-34,24,-14,4
58,131,73,-95,-7,102,219,131,-29,29,-9,9
58,122,63,-90,-2,92,229,131,-9,34,-9,9
63,122,58,-92,2,90,224,136,-9,34,-4,9
68,117,48,-92,9,82,224,136,-9,34,-4,9
68,107,39,-87,14,73,209,122,-19,29,-9,9
63,102,39,-82,12,70,175,107,-34,14,-19,0
63,102,39,-82,12,70,151,87,-43,4,-24,-4
63,102,39,-82,12,70,141,68,-53,0,-29,-4
63,97,34,-80,14,65,126,63,-68,-4,-39,-14
53,87,34,-70,9,61,122,53,-68,-9,-39,-9
53,82,29,-68,12,56,117,53,-73,-19,-43,-9
53,82,29,-68,12,56,117,53,-73,-19,-43,-14
53,78,24,-65,14,51,117,53,-73,-24,-43,-14
53,82,29,-68,12,56,107,48,-87,-19,-43,-19
53,82,29,-68,12,56,102,43,-92,-24,-48,-19
53,78,24,-65,14,51,97,39,-97,-24,-53,-19
48,73,24,-61,12,48,87,34,-102,-29,-58,-24
48,68,19,-58,14,43,82,19,-122,-39,-63,-39
48,63,14,-56,17,39,73,9,-126,-48,-68,-43
43,58,14,-51,14,36,68,0,-136,-63,-73,-43
43,53,9,-48,17,31,58,-4,-141,-73,-78,-48
34,53,19,-43,7,36,58,0,-146,-68,-68,-39
29,48,19,-39,4,34,53,0,-146,-68,-73,-39
29,43,14,-36,7,29,53,-4,-141,-73,-73,-39
24,43,19,-34,2,31,53,-4,-136,-73,-73,-43
34,48,14,-41,9,31,53,-4,-141,-68,-63,-34
24,43,19,-34,2,31,58,-4,-141,-68,-63,-39
24,43,19,-34,2,31,63,-4,-141,-63,-68,-39
19,43,24,-31,-2,34,68,0,-141,-58,-68,-39
9,39,29,-24,-9,34,78,0,-141,-63,-78,-48
9,34,24,-21,-7,29,82,0,-141,-63,-82,-53
9,24,14,-17,-2,19,87,0,-141,-63,-82,-58
4,19,14,-12,-4,17,92,0,-141,-63,-82,-58
4,9,4,-7,0,7,82,-9,-151,-68,-97,-68
4,0,-4,-2,4,-2,82,-9,-151,-82,-102,-68
0,-4,-4,2,2,-4,82,-9,-156,-87,-102,-73
0,-4,-4,2,2,-4,82,-9,-161,-92,-102,-73
0,4,4,-2,-2,4,73,-4,-161,-87,-92,-63
0,4,4,-2,-2,4,73,-9,-161,-82,-92,-63
-4,4,9,0,-7,7,73,-9,-161,-78,-97,-63
-4,4,9,0,-7,7,73,-9,-165,-78,-97,-68
-4,9,14,-2,-9,12,73,-9,-165,-87,-97,-78
-4,9,14,-2,-9,12,68,-9,-165,-87,-102,-78
-4,4,9,0,-7,7,68,-14,-165,-87,-102,-78
-4,4,9,0,-7,7,68,-14,-170,-87,-97,-78
-9,4,14,2,-12,9,68,-24,-170,-87,-107,-68
-9,4,14,2,-12,9,68,-24,-170,-92,-107,-73
-9,4,14,2,-12,9,68,-24,-170,-92,-107,-73
-14,4,19,4,-17,12,68,-24,-170,-97,-107,-73
-14,4,19,4,-17,12,73,-24,-180,-87,-97,-82
-14,0,14,7,-14,7,73,-24,-180,-87,-97,-78
-14,0,14,7,-14,7,73,-24,-180,-87,-97,-78
-14,0,14,7,-14,7,73,-29,-180,-82,-102,-78
-4,0,4,2,-4,2,82,-19,-170,-73,-92,-68
0,0,0,0,0,0,78,-19,-170,-73,-92,-68
0,0,0,0,0,0,78,-19,-170,-73,-92,-73
-4,0,4,2,-4,2,78,-19,-170,-73,-92,-73
-9,4,14,2,-12,9,68,-19,-170,-73,-92,-68
-9,4,14,2,-12,9,68,-19,-170,-73,-92,-68
-9,4,14,2,-12,9,68,-19,-170,-73,-92,-73
-9,4,14,2,-12,9,68,-19,-170,-73,-92,-73
-19,4,24,7,-21,14,68,-29,-175,-78,-102,-78
-19,0,19,9,-19,9,68,-29,-175,-82,-107,-82
-24,-4,19,14,-21,7,73,-24,-180,-87,-112,-87
-24,-9,14,17,-19,2,78,-24,-180,-92,-122,-87
-14,-24,-9,19,-2,-17,78,-19,-180,-82,-112,-92
-19,-39,-19,29,0,-29,78,-14,-170,-82,-107,-92
-19,-48,-29,34,4,-39,78,4,-156,-73,-97,-87
-4,-34,-29,19,12,-31,73,24,-107,-34,-73,-63
19,-19,-39,0,29,-29,43,24,-68,4,-29,-39
43,-9,-53,-17,48,-31,4,-24,-63,39,0,-14
68,4,-63,-36,65,-29,-78,-122,-82,58,29,29
112,29,-82,-70,97,-26,-170,-244,-131,78,73,78
156,34,-122,-95,139,-43,-253,-370,-214,73,117,122
214,53,-161,-134,187,-53,-341,-507,-317,58,151,170
287,102,-185,-195,236,-41,-448,-663,-414,87,239,253
366,175,-190,-270,278,-7,-546,-785,-473,151,351,366
439,244,-195,-341,317,24,-639,-878,-517,214,478,492
497,312,-185,-405,341,63,-712,-956,-556,273,575,595
551,370,-180,-461,366,95,-761,-1034,-580,317,673,688
595,414,-180,-505,387,117,-814,-1083,-590,336,741,756
639,439,-200,-539,419,119,-839,-1132,-649,297,736,790
629,444,-185,-536,407,129,-868,-1224,-761,170,653,771
566,453,-112,-509,339,170,-893,-1356,-907,4,536,707
463,458,-4,-461,234,226,-878,-1468,-1054,-170,380,600
302,405,102,-353,100,253,-800,-1542,-1220,-414,141,439
122,317,195,-219,-36,256,-702,-1576,-1371,-649,-122,244
-24,248,273,-112,-148,261,-624,-1566,-1415,-790,-307,78
-122,175,297,-26,-209,236,-556,-1507,-1395,-858,-424,-48
-175,112,287,31,-231,200,-488,-1420,-1346,-873,-478,-136
-204,78,283,63,-244,180,-405,-1312,-1263,-844,-488,-180
-224,68,292,78,-258,180,-326,-1195,-1151,-780,-478,-185
-239,48,287,95,-263,168,-278,-1102,-1068,-732,-463,-204
-224,29,253,97,-239,141,-263,-1015,-1000,-692,-458,-204
-214,29,244,92,-229,136,-253,-917,-922,-649,-434,-209
-209,14,224,97,-217,119,-214,-785,-819,-590,-414,-219
-200,4,204,97,-202,104,-165,-663,-712,-507,-370,-214
-180,-9,170,95,-175,80,-136,-551,-600,-419,-312,-190
-151,-14,136,82,-143,61,-82,-434,-492,-336,-258,-156
-117,-14,102,65,-109,43,-14,-331,-385,-263,-209,-136
-87,-24,63,56,-75,19,29,-248,-322,-219,-180,-122
-68,-19,48,43,-58,14,53,-180,-278,-185,-161,-107
-63,-9,53,36,-58,21,58,-126,-248,-165,-141,-97
-53,0,53,26,-53,26,53,-87,-219,-141,-126,-92
-53,0,53,26,-53,26,53,-43,-185,-112,-112,-82
-48,0,48,24,-48,24,68,-24,-156,-82,-102,-82
-39,-4,34,21,-36,14,68,-9,-141,-68,-92,-82
-39,0,39,19,-39,19,68,-14,-126,-63,-87,-78
-34,-4,29,19,-31,12,73,-14,-122,-58,-73,-73
-29,-9,19,19,-24,4,73,-9,-122,-58,-73,-73
-24,-14,9,19,-17,-2,78,4,-122,-63,-73,-73
-24,-19,4,21,-14,-7,78,14,-112,-63,-73,-73
-39,-29,9,34,-24,-9,73,19,-117,-63,-73,-78
-39,-29,9,34,-24,-9,73,24,-107,-58,-68,-78
-34,-29,4,31,-19,-12,78,34,-102,-48,-63,-78
-34,-24,9,29,-21,-7,78,34,-97,-39,-58,-73
-34,-19,14,26,-24,-2,78,39,-78,-34,-53,-68
-29,-19,9,24,-19,-4,78,39,-73,-34,-48,-63
-24,-19,4,21,-14,-7,78,43,-73,-34,-48,-63
-24,-19,4,21,-14,-7,82,48,-68,-34,-48,-63
-34,-19,14,26,-24,-2,73,43,-68,-29,-39,-63
-34,-19,14,26,-24,-2,73,48,-63,-24,-39,-63
-34,-19,14,26,-24,-2,73,53,-58,-19,-34,-53
-34,-19,14,26,-24,-2,73,53,-53,-14,-34,-53
-24,-9,14,17,-19,2,63,53,-48,-4,-39,-53
-14,-9,4,12,-9,-2,63,53,-43,0,-39,-53
-9,-9,0,9,-4,-4,63,53,-39,4,-39,-53
-9,-4,4,7,-7,0,68,63,-39,4,-39,-48
-19,-14,4,17,-12,-4,73,78,-29,4,-24,-48
-19,-14,4,17,-12,-4,73,78,-29,4,-24,-48
-9,-14,-4,12,-2,-9,73,82,-19,9,-19,-43
-9,-9,0,9,-4,-4,73,87,-19,19,-14,-43
-9,-14,-4,12,-2,-9,73,82,-24,19,-14,-34
-14,-14,0,14,-7,-7,73,87,-19,24,-14,-29
-19,-14,4,17,-12,-4,73,92,-14,29,-9,-29
-24,-9,14,17,-19,2,73,97,-9,34,-4,-19
-14,0,14,7,-14,7,63,97,0,29,0,-29
-9,0,9,4,-9,4,63,102,0,29,0,-29
-9,0,9,4,-9,4,63,107,4,34,4,-29
-9,4,14,2,-12,9,63,112,9,39,9,-24
-9,0,9,4,-9,4,63,117,4,34,4,-19
-9,-4,4,7,-7,0,63,122,9,34,9,-19
-4,-4,0,4,-2,-2,63,126,14,39,9,-19
4,-4,-9,0,7,-7,63,136,19,43,14,-14
4,4,0,-4,2,2,63,126,34,58,24,-9
4,4,0,-4,2,2,63,136,39,63,29,-4
9,4,-4,-7,7,0,63,141,48,68,34,0
14,9,-4,-12,9,2,63,146,53,73,39,0
9,4,-4,-7,7,0,53,156,58,78,43,4
14,4,-9,-9,12,-2,53,165,68,87,48,4
19,14,-4,-17,12,4,53,170,73,97,53,14
24,19,-4,-21,14,7,58,175,87,102,63,19
24,24,0,-24,12,12,48,190,87,107,63,34
29,24,-4,-26,17,9,53,204,92,122,78,39
29,29,0,-29,14,14,53,214,102,131,87,43
34,34,0,-34,17,17,53,224,107,136,92,48
39,39,0,-39,19,19,53,229,117,156,107,58
43,43,0,-43,21,21,53,234,131,165,122,68
48,43,-4,-46,26,19,53,239,146,175,126,73
58,48,-9,-53,34,19,53,253,161,185,136,78
58,53,-4,-56,31,24,43,263,161,190,136,78
63,58,-4,-61,34,26,48,268,175,200,146,87
68,58,-9,-63,39,24,48,278,195,204,161,97
78,68,-9,-73,43,29,53,287,204,219,170,107
87,73,-14,-80,51,29,53,302,219,244,195,122
102,82,-19,-92,61,31,48,317,229,258,209,131
107,87,-19,-97,63,34,48,331,248,273,219,146
117,92,-24,-104,70,34,53,346,258,287,239,161
117,112,-4,-114,61,53,43,356,273,307,263,180
126,122,-4,-124,65,58,48,375,287,322,273,195
136,126,-9,-131,73,58,48,390,302,336,287,204
141,131,-9,-136,75,61,48,405,317,351,302,214
151,131,-19,-141,85,56,53,405,331,356,307,219
156,141,-14,-148,85,63,53,424,346,375,317,229
165,146,-19,-156,92,63,53,434,361,395,331,239
175,156,-19,-165,97,68,58,448,375,409,346,239
175,156,-19,-165,97,68,58,463,380,409,351,248
180,161,-19,-170,100,70,58,478,395,419,356,253
190,165,-24,-178,107,70,63,483,405,424,370,258
190,170,-19,-180,104,75,68,488,409,424,380,268
195,180,-14,-187,104,82,58,497,419,434,390,278
204,185,-19,-195,112,82,68,502,424,444,390,283
204,195,-9,-200,107,92,68,512,434,448,395,287
209,200,-9,-204,109,95,68,517,439,458,405,287
209,195,-14,-202,112,90,68,527,444,473,409,302
214,195,-19,-204,117,87,73,527,453,478,414,307
219,200,-19,-209,119,90,73,527,453,478,424,307
219,200,-19,-209,119,90,73,527,453,478,434,312
204,190,-14,-197,109,87,68,527,453,468,424,307
204,190,-14,-197,109,87,68,527,453,468,424,302
204,190,-14,-197,109,87,73,522,453,468,424,292
204,190,-14,-197,109,87,78,517,448,458,419,287
195,175,-19,-185,107,78,82,512,444,458,414,283
190,170,-19,-180,104,75,82,502,434,448,405,278
180,170,-9,-175,95,80,87,492,424,439,395,268
175,165,-9,-170,92,78,92,478,409,419,380,258
165,165,0,-165,82,82,82,473,400,400,361,253
165,161,-4,-163,85,78,82,453,385,385,346,244
156,146,-9,-151,82,68,78,439,366,366,326,234
141,136,-4,-139,73,65,78,419,346,346,317,224
126,136,9,-131,58,73,87,400,322,317,292,195
122,126,4,-124,58,65,87,380,302,297,273,175
112,117,4,-114,53,61,82,361,283,278,248,170
97,107,9,-102,43,58,82,346,258,258,229,151
87,97,9,-92,39,53,82,336,248,239,214,141
78,87,9,-82,34,48,82,312,229,214,195,126
68,73,4,-70,31,39,78,287,214,195,180,112
58,58,0,-58,29,29,68,263,200,180,161,97
39,48,9,-43,14,29,63,253,175,161,161,82
34,39,4,-36,14,21,63,234,161,146,141,78
24,29,4,-26,9,17,58,214,141,136,126,68
19,24,4,-21,7,14,53,195,122,117,117,58
9,19,9,-14,0,14,48,190,107,102,92,39
0,9,9,-4,-4,9,43,175,102,82,87,34
-4,0,4,2,-4,2,39,156,87,68,78,24
-9,-4,4,7,-7,0,34,141,73,63,68,19
-9,-9,0,9,-4,-4,29,126,73,43,48,9
-14,-9,4,12,-9,-2,24,117,63,29,43,0
-19,-9,9,14,-14,0,19,112,48,24,39,0
-24,-14,9,19,-17,-2,14,97,43,19,34,-9
-29,-29,0,29,-14,-14,9,82,39,9,24,-9
-34,-34,0,34,-17,-17,9,78,29,4,19,-14
-34,-39,-4,36,-14,-21,9,73,19,0,14,-19
-39,-43,-4,41,-17,-24,4,63,14,-9,9,-19
-53,-48,4,51,-29,-21,0,58,14,-19,9,-24
-53,-53,0,53,-26,-26,0,53,9,-19,9,-29
-58,-48,9,53,-34,-19,0,48,4,-19,4,-29
-58,-43,14,51,-36,-14,0,43,4,-24,0,-34
-58,-43,14,51,-36,-14,-14,43,0,-14,4,-24
-63,-43,19,53,-41,-12,-14,39,-4,-19,0,-24
-73,-43,29,58,-51,-7,-14,34,-4,-24,-4,-29
-78,-43,34,61,-56,-4,-14,34,-9,-24,-4,-29
-68,-34,34,51,-51,0,-14,19,-14,-14,4,-29
-68,-34,34,51,-51,0,-19,19,-14,-14,0,-29
-68,-39,29,53,-48,-4,-19,19,-9,-19,0,-29
-68,-39,29,53,-48,-4,-19,19,-9,-19,0,-29
-68,-39,29,53,-48,-4,-24,19,-4,-24,-9,-39
-68,-39,29,53,-48,-4,-24,19,-4,-24,-9,-39
-68,-39,29,53,-48,-4,-24,19,-9,-29,-9,-39
-68,-34,34,51,-51,0,-24,19,-9,-34,-9,-39
-78,-34,43,56,-61,4,-24,29,-4,-39,-14,-39
-78,-39,39,58,-58,0,-24,29,-4,-39,-14,-39
-78,-39,39,58,-58,0,-24,29,-4,-39,-14,-39
-78,-39,39,58,-58,0,-24,29,-4,-39,-14,-39
-73,-48,24,61,-48,-12,-14,29,9,-24,-9,-24
-73,-48,24,61,-48,-12,-14,34,9,-19,0,-24
-73,-48,24,61,-48,-12,-14,34,9,-19,4,-24
-73,-43,29,58,-51,-7,-14,34,9,-19,9,-24
-63,-39,24,51,-43,-7,-24,39,19,-19,9,-34
-63,-39,24,51,-43,-7,-24,39,19,-19,9,-34
-63,-43,19,53,-41,-12,-24,39,19,-14,14,-34
-63,-43,19,53,-41,-12,-24,39,24,-14,14,-29
-63,-43,19,53,-41,-12,-29,39,34,-4,24,-24
-63,-43,19,53,-41,-12,-29,39,34,-4,29,-19
-63,-39,24,51,-43,-7,-29,43,34,0,29,-14
-63,-39,24,51,-43,-7,-29,43,34,0,29,-4
-63,-39,24,51,-43,-7,-29,43,39,4,39,-14
-63,-34,29,48,-46,-2,-29,43,43,4,39,-14
-63,-34,29,48,-46,-2,-29,43,43,4,39,-9
-63,-34,29,48,-46,-2,-29,43,43,9,39,-9
-73,-39,34,56,-53,-2,-29,43,53,0,34,-19
-73,-48,24,61,-48,-12,-29,48,58,0,39,-19
-68,-53,14,61,-41,-19,-29,48,58,0,34,-19
-68,-53,14,61,-41,-19,-29,48,58,0,29,-19
-68,-63,4,65,-36,-29,-29,48,58,0,29,-9
-68,-63,4,65,-36,-29,-29,48,58,4,29,-9
-68,-58,9,63,-39,-24,-24,53,58,4,34,-9
-68,-58,9,63,-39,-24,-24,53,58,0,34,-4
-78,-53,24,65,-51,-14,-39,43,58,0,43,-4
-78,-53,24,65,-51,-14,-39,43,58,0,43,-4
-78,-53,24,65,-51,-14,-39,43,58,4,43,-4
-78,-48,29,63,-53,-9,-39,43,58,4,43,-4
-78,-29,48,53,-63,9,-39,43,68,4,39,-4
-78,-39,39,58,-58,0,-39,43,68,4,29,-14
-78,-39,39,58,-58,0,-39,39,68,4,29,-14
-78,-34,43,56,-61,4,-39,48,68,4,29,-14
-78,-39,39,58,-58,0,-39,39,68,0,29,-19
-78,-48,29,63,-53,-9,-48,39,68,-9,19,-19
-78,-48,29,63,-53,-9,-48,39,68,-9,19,-19
-78,-48,29,63,-53,-9,-48,39,68,-9,19,-19
-78,-48,29,63,-53,-9,-48,39,68,-9,19,-19
-78,-53,24,65,-51,-14,-48,39,78,-19,9,-19
-78,-58,19,68,-48,-19,-43,39,73,-24,9,-19
-82,-63,19,73,-51,-21,-43,39,73,-24,9,-24
-82,-68,14,75,-48,-26,-43,39,73,-19,9,-24
-73,-53,19,63,-46,-17,-53,48,73,-9,14,-19
-73,-48,24,61,-48,-12,-48,48,78,-4,19,-14
-68,-34,34,51,-51,0,-39,53,78,-4,29,-9
-68,-29,39,48,-53,4,-34,53,82,0,39,0
-78,-9,68,43,-73,29,-29,43,82,0,48,0
-78,-9,68,43,-73,29,-29,53,87,4,48,4
-78,0,78,39,-78,39,-34,53,87,4,48,4
-78,0,78,39,-78,39,-34,53,92,4,48,4
-87,-9,78,48,-82,34,-19,53,102,19,53,4
-87,-4,82,46,-85,39,-14,63,112,19,53,4
-92,0,92,46,-92,46,0,68,112,19,53,4
-92,0,92,46,-92,46,19,73,117,19,53,4
-102,-9,92,56,-97,41,19,78,131,29,58,4
-102,-9,92,56,-97,41,29,87,136,29,58,14
-97,-4,92,51,-95,43,39,92,141,34,63,14
-97,-4,92,51,-95,43,43,102,146,39,68,19
-97,4,102,46,-100,53,29,92,146,34,58,14
-92,4,97,43,-95,51,19,97,146,34,63,9
-87,0,87,43,-87,43,14,97,146,34,63,4
-87,-9,78,48,-82,34,-4,82,136,29,58,0
-102,-19,82,61,-92,31,-19,68,122,19,53,-9
-102,-24,78,63,-90,26,-43,48,112,4,43,-14
-102,-29,73,65,-87,21,-53,29,102,-4,34,-14
-102,-39,63,70,-82,12,-68,24,87,-14,19,-24
-102,-39,63,70,-82,12,-68,24,82,-9,14,-24
-102,-43,58,73,-80,7,-68,24,82,-19,14,-19
-102,-43,58,73,-80,7,-63,24,87,-19,19,-19
-102,-48,53,75,-78,2,-58,24,92,-24,24,-14
-102,-53,48,78,-75,-2,-68,19,78,-39,14,-29
-102,-53,48,78,-75,-2,-73,14,73,-43,9,-29
-102,-58,43,80,-73,-7,-78,9,68,-43,4,-29
-107,-63,43,85,-75,-9,-87,4,63,-48,0,-34
-117,-78,39,97,-78,-19,-102,0,53,-53,-4,-39
-117,-82,34,100,-75,-24,-112,-9,48,-58,-9,-43
-122,-87,34,104,-78,-26,-117,-19,39,-68,-14,-43
-122,-92,29,107,-75,-31,-126,-24,34,-73,-19,-48
-131,-102,29,117,-80,-36,-126,-29,24,-78,-29,-58
-136,-107,29,122,-82,-39,-131,-29,19,-78,-34,-58
-136,-112,24,124,-80,-43,-131,-34,19,-82,-34,-58
-141,-112,29,126,-85,-41,-131,-34,19,-82,-34,-63
-131,-117,14,124,-73,-51,-131,-34,14,-92,-34,-73
-141,-122,19,131,-80,-51,-126,-34,14,-97,-34,-78
-141,-122,19,131,-80,-51,-122,-34,14,-97,-39,-78
-146,-122,24,134,-85,-48,-117,-29,14,-97,-39,-78
-146,-131,14,139,-80,-58,-117,-19,14,-102,-39,-68
-146,-131,14,139,-80,-58,-112,-19,14,-102,-43,-73
-146,-136,9,141,-78,-63,-107,-19,14,-102,-43,-78
-151,-136,14,143,-82,-61,-102,-19,14,-102,-43,-78
-151,-136,14,143,-82,-61,-102,-19,14,-102,-39,-78
-151,-146,4,148,-78,-70,-102,-19,14,-112,-43,-78
-156,-151,4,153,-80,-73,-102,-19,9,-112,-43,-82
-156,-151,4,153,-80,-73,-102,-19,4,-112,-43,-82
-156,-141,14,148,-85,-63,-102,-14,14,-102,-34,-73
-156,-141,14,148,-85,-63,-102,-19,14,-102,-34,-73
-161,-141,19,151,-90,-61,-102,-19,14,-102,-39,-73
-161,-141,19,151,-90,-61,-102,-19,9,-107,-39,-78
-161,-131,29,146,-95,-51,-112,-29,9,-107,-39,-78
-161,-126,34,143,-97,-46,-117,-29,9,-107,-43,-78
-161,-126,34,143,-97,-46,-117,-34,9,-107,-43,-78
-161,-122,39,141,-100,-41,-117,-34,4,-107,-39,-78
-156,-131,24,143,-90,-53,-126,-34,4,-107,-39,-78
-156,-131,24,143,-90,-53,-126,-34,4,-112,-39,-82
-156,-131,24,143,-90,-53,-126,-34,4,-112,-39,-82
-161,-131,29,146,-95,-51,-126,-34,4,-117,-39,-82
-161,-131,29,146,-95,-51,-131,-34,4,-117,-48,-92
-161,-136,24,148,-92,-56,-131,-34,4,-117,-48,-87
-161,-136,24,148,-92,-56,-131,-34,4,-117,-48,-87
-161,-136,24,148,-92,-56,-131,-39,4,-112,-53,-87
-161,-131,29,146,-95,-51,-131,-29,-4,-112,-53,-87
-156,-126,29,141,-92,-48,-136,-29,-4,-112,-53,-87
-156,-122,34,139,-95,-43,-136,-29,-4,-112,-53,-92
-161,-117,43,139,-102,-36,-136,-29,-4,-112,-53,-92
-165,-122,43,143,-104,-39,-136,-39,-4,-122,-53,-87
-165,-122,43,143,-104,-39,-136,-39,-4,-122,-53,-87
-165,-122,43,143,-104,-39,-136,-39,-4,-122,-53,-92
-165,-122,43,143,-104,-39,-136,-39,-4,-122,-53,-92
-165,-126,39,146,-102,-43,-136,-39,-19,-136,-53,-97
-165,-136,29,151,-97,-53,-136,-39,-19,-141,-58,-102
-170,-146,24,158,-97,-61,-131,-34,-24,-146,-63,-107
-170,-156,14,163,-92,-70,-126,-34,-24,-151,-73,-107
-170,-170,0,170,-85,-85,-126,-19,-14,-141,-73,-112
-175,-175,0,175,-87,-87,-126,-4,4,-131,-68,-112
-165,-165,0,165,-82,-82,-126,4,39,-102,-48,-107
-141,-141,0,141,-70,-70,-141,4,78,-53,-4,-82
-126,-136,-9,131,-58,-73,-170,-24,87,-14,39,-48
-112,-126,-14,119,-48,-70,-229,-82,82,9,68,-14
-87,-102,-14,95,-36,-58,-312,-180,43,29,117,29
-43,-78,-34,61,-4,-56,-405,-312,-34,29,151,87
0,-63,-63,31,31,-63,-488,-458,-146,4,185,131
29,-43,-73,7,51,-58,-575,-614,-268,0,229,190
92,14,-78,-53,85,-31,-673,-751,-346,29,317,273
180,87,-92,-134,136,-2,-761,-844,-385,102,429,385
244,136,-107,-190,175,14,-834,-927,-429,165,546,492
283,195,-87,-239,185,53,-897,-1015,-458,214,653,605
326,263,-63,-295,195,100,-946,-1073,-463,287,761,707
370,317,-53,-344,212,131,-980,-1093,-453,326,819,785
405,351,-53,-378,229,148,-1034,-1161,-522,278,814,810
405,366,-39,-385,222,163,-1083,-1254,-653,151,741,800
341,375,34,-358,153,204,-1107,-1366,-790,-4,634,746
239,361,122,-300,58,241,-1073,-1459,-936,-200,458,629
97,307,209,-202,-56,258,-995,-1522,-1093,-453,209,448
-53,229,283,-87,-168,256,-917,-1556,-1234,-688,-43,253
-190,151,341,19,-265,246,-839,-1546,-1268,-829,-239,87
-287,68,356,109,-322,212,-761,-1478,-1249,-907,-366,-58
-341,-4,336,173,-339,165,-683,-1371,-1190,-932,-448,-156
-361,-48,312,204,-336,131,-600,-1263,-1107,-902,-468,-200
-370,-68,302,219,-336,117,-551,-1156,-1015,-849,-468,-224
-366,-87,278,226,-322,95,-512,-1073,-941,-810,-453,-244
-351,-97,253,224,-302,78,-507,-976,-854,-761,-429,-244
-331,-97,234,214,-283,68,-478,-849,-736,-688,-395,-239
-317,-112,204,214,-261,46,-429,-717,-614,-610,-356,-248
-307,-122,185,214,-246,31,-380,-595,-507,-527,-312,-224
-287,-117,170,202,-229,26,-341,-492,-405,-439,-263,-200
-248,-112,136,180,-192,12,-287,-385,-297,-346,-200,-165
-224,-112,112,168,-168,0,-239,-302,-219,-283,-151,-136
-195,-122,73,158,-134,-24,-195,-239,-165,-248,-122,-122
-185,-126,58,156,-122,-34,-180,-180,-131,-234,-112,-126
-180,-117,63,148,-122,-26,-175,-136,-102,-214,-102,-117
-180,-117,63,148,-122,-26,-161,-97,-63,-190,-87,-122
-180,-117,63,148,-122,-26,-151,-63,-29,-170,-82,-122
-165,-117,48,141,-107,-34,-136,-34,-9,-141,-73,-112
-165,-122,43,143,-104,-39,-136,-29,14,-117,-53,-112
-175,-117,58,146,-117,-29,-126,-34,9,-102,-48,-107
-170,-126,43,148,-107,-41,-131,-43,4,-102,-53,-112
-165,-126,39,146,-102,-43,-131,-39,4,-107,-53,-112
-161,-126,34,143,-97,-46,-126,-24,4,-117,-53,-112
-161,-126,34,143,-97,-46,-126,-14,14,-122,-53,-112
-175,-126,48,151,-112,-39,-122,0,29,-122,-63,-117
-175,-126,48,151,-112,-39,-122,4,39,-117,-58,-117
-170,-126,43,148,-107,-41,-117,14,43,-107,-53,-117
-170,-122,48,146,-109,-36,-117,14,48,-97,-48,-112
-161,-126,34,143,-97,-46,-117,9,48,-82,-43,-107
-156,-126,29,141,-92,-48,-117,9,53,-82,-39,-102
-151,-126,24,139,-87,-51,-117,14,53,-82,-39,-102
-151,-126,24,139,-87,-51,-112,19,58,-82,-39,-102
-151,-117,34,134,-92,-41,-112,24,68,-78,-29,-102
-151,-117,34,134,-92,-41,-112,29,73,-73,-29,-102
-151,-117,34,134,-92,-41,-112,34,78,-68,-24,-92
-151,-117,34,134,-92,-41,-112,34,82,-63,-24,-92
-146,-117,29,131,-87,-43,-112,34,78,-63,-19,-92
-141,-117,24,129,-82,-46,-112,34,82,-58,-19,-92
-141,-117,24,129,-82,-46,-112,34,87,-53,-19,-92
-146,-112,34,129,-90,-39,-107,43,87,-53,-19,-87
-146,-102,43,124,-95,-29,-112,48,87,-63,-24,-97
-146,-102,43,124,-95,-29,-112,48,87,-63,-24,-97
-136,-102,34,119,-85,-34,-112,53,97,-58,-19,-92
-136,-97,39,117,-87,-29,-112,58,97,-48,-14,-92
-131,-97,34,114,-82,-31,-112,63,92,-58,-14,-92
-131,-102,29,117,-80,-36,-112,68,97,-53,-14,-87
-131,-107,24,119,-78,-41,-112,73,102,-48,-9,-87
-131,-107,24,119,-78,-41,-112,78,107,-43,-4,-78
-131,-117,14,124,-73,-51,-112,78,117,-29,0,-78
-126,-117,9,122,-68,-53,-112,82,117,-29,0,-78
-126,-117,9,122,-68,-53,-112,87,122,-24,4,-78
-126,-112,14,119,-70,-48,-112,92,126,-19,9,-73
-126,-102,24,114,-75,-39,-102,97,122,-24,4,-58
-126,-102,24,114,-75,-39,-102,102,126,-24,9,-58
-122,-97,24,109,-73,-36,-102,107,131,-19,9,-58
-112,-92,19,102,-65,-36,-102,117,136,-14,14,-53
-102,-82,19,92,-61,-31,-102,107,131,-9,14,-53
-102,-82,19,92,-61,-31,-102,117,136,-4,19,-53
-97,-82,14,90,-56,-34,-102,122,146,0,24,-53
-92,-78,14,85,-53,-31,-102,126,151,4,29,-58
-97,-63,34,80,-65,-14,-102,136,156,9,43,-43
-92,-63,29,78,-61,-17,-102,146,165,19,48,-43
-87,-53,34,70,-61,-9,-102,151,170,29,53,-34
-82,-48,34,65,-58,-7,-97,156,185,34,63,-29
-73,-43,29,58,-51,-7,-107,161,204,48,53,-14
-68,-43,24,56,-46,-9,-102,175,209,63,68,-9
-68,-39,29,53,-48,-4,-102,185,219,73,78,-4
-63,-34,29,48,-46,-2,-102,195,224,78,82,0
-68,-39,29,53,-48,-4,-102,195,229,87,87,0
-63,-34,29,48,-46,-2,-102,204,239,97,102,9
-58,-34,24,46,-41,-4,-102,214,248,107,107,14
-48,-29,19,39,-34,-4,-102,234,258,117,117,19
-39,-14,24,26,-31,4,-102,248,278,126,126,29
-34,-9,24,21,-29,7,-97,258,292,141,136,39
-29,-9,19,19,-24,4,-97,273,312,151,151,48
-19,0,19,9,-19,9,-92,287,322,170,161,58
-19,4,24,7,-21,14,-92,302,326,185,175,78
-4,14,19,-4,-12,17,-97,317,336,200,190,82
0,19,19,-9,-9,19,-97,331,356,214,200,92
9,24,14,-17,-2,19,-92,346,366,229,219,102
9,34,24,-21,-7,29,-92,346,380,248,234,112
19,43,24,-31,-2,34,-87,366,395,263,244,126
29,48,19,-39,4,34,-87,380,409,278,258,136
34,53,19,-43,7,36,-87,395,424,292,273,146
53,73,19,-63,17,46,-92,405,448,307,287,156
58,82,24,-70,17,53,-92,424,463,326,297,170
68,87,19,-78,24,53,-92,434,478,346,312,185
78,97,19,-87,29,58,-87,448,492,361,326,190
87,92,4,-90,41,48,-78,453,497,366,331,200
92,102,9,-97,41,56,-78,468,512,380,336,204
102,112,9,-107,46,61,-73,473,522,390,351,209
102,122,19,-112,41,70,-68,478,527,395,361,219
107,122,14,-114,46,68,-78,488,527,395,370,229
117,126,9,-122,53,68,-68,492,531,405,370,234
117,136,19,-126,48,78,-68,502,541,409,375,239
122,141,19,-131,51,80,-68,507,546,419,385,239
122,136,14,-129,53,75,-58,507,551,424,385,244
126,136,9,-131,58,73,-53,507,561,429,385,248
131,141,9,-136,61,75,-53,507,561,429,390,248
131,141,9,-136,61,75,-53,507,561,429,395,253
126,141,14,-134,56,78,-48,507,551,429,395,253
126,141,14,-134,56,78,-48,507,551,429,395,253
126,141,14,-134,56,78,-43,502,551,429,395,248
126,141,14,-134,56,78,-39,497,546,419,390,248
126,141,14,-134,56,78,-39,483,531,409,375,244
122,141,19,-131,51,80,-43,473,522,400,366,239
112,146,34,-129,39,90,-43,463,512,390,356,229
107,146,39,-126,34,92,-43,448,497,370,341,219
97,136,39,-117,29,87,-43,434,468,341,317,200
97,131,34,-114,31,82,-43,414,453,326,297,185
87,117,29,-102,29,73,-48,400,434,307,273,170
73,107,34,-90,19,70,-48,380,414,287,258,156
48,92,43,-70,2,68,-43,361,390,258,234,136
43,78,34,-61,4,56,-39,341,370,239,214,117
34,63,29,-48,2,46,-39,322,351,219,190,112
19,48,29,-34,-4,39,-34,307,326,200,170,92
9,34,24,-21,-7,29,-34,297,312,180,165,82
0,29,29,-14,-14,29,-34,273,287,156,146,68
-9,19,29,-4,-19,24,-39,248,268,136,131,53
-19,9,29,4,-24,19,-48,224,248,122,112,39
-29,9,39,9,-34,24,-53,204,234,102,92,14
-34,0,34,17,-34,17,-53,185,219,87,73,9
-43,-9,34,26,-39,12,-58,165,200,78,58,0
-48,-14,34,31,-41,9,-63,146,180,58,48,-9
-48,-14,34,31,-41,9,-68,141,170,48,34,-9
-58,-19,39,39,-48,9,-73,126,161,34,29,-14
-63,-24,39,43,-51,7,-78,107,141,24,19,-24
-68,-24,43,46,-56,9,-82,92,122,24,9,-29
-68,-29,39,48,-53,4,-78,78,122,14,9,-29
-73,-29,43,51,-58,7,-82,68,112,0,4,-39
-78,-29,48,53,-63,9,-87,63,97,-4,0,-39
-82,-34,48,58,-65,7,-92,48,92,-9,-4,-48
-97,-39,58,68,-78,9,-97,43,87,-19,-24,-58
-102,-43,58,73,-80,7,-97,39,78,-24,-29,-63
-102,-48,53,75,-78,2,-97,34,68,-29,-34,-68
-107,-53,53,80,-80,0,-102,24,63,-39,-39,-68
-102,-58,43,80,-73,-7,-117,19,63,-43,-39,-63
-102,-63,39,82,-70,-12,-117,14,58,-39,-39,-68
-107,-58,48,82,-78,-4,-117,9,53,-34,-43,-68
-107,-53,53,80,-80,0,-117,4,53,-34,-48,-73
-102,-53,48,78,-75,-2,-122,-4,39,-43,-43,-73
-102,-53,48,78,-75,-2,-122,-9,34,-48,-48,-73
-107,-53,53,80,-80,0,-122,-14,34,-53,-53,-78
-107,-53,53,80,-80,0,-122,-14,29,-53,-53,-78
-107,-63,43,85,-75,-9,-122,-19,24,-63,-63,-87
-107,-63,43,85,-75,-9,-126,-19,24,-63,-68,-87
-107,-68,39,87,-73,-14,-126,-19,29,-68,-68,-87
-107,-68,39,87,-73,-14,-126,-19,29,-68,-68,-87
-107,-68,39,87,-73,-14,-122,-19,24,-68,-68,-87
-107,-68,39,87,-73,-14,-122,-19,24,-63,-68,-87
-107,-68,39,87,-73,-14,-122,-19,19,-63,-68,-87
-107,-63,43,85,-75,-9,-122,-19,19,-63,-68,-87
-107,-53,53,80,-80,0,-122,-29,24,-68,-63,-78
-107,-58,48,82,-78,-4,-122,-29,24,-68,-63,-78
-107,-58,48,82,-78,-4,-122,-29,24,-68,-63,-78
-107,-58,48,82,-78,-4,-122,-29,24,-68,-63,-78
-102,-58,43,80,-73,-7,-122,-29,19,-63,-73,-82
-102,-58,43,80,-73,-7,-122,-24,19,-58,-68,-82
-102,-58,43,80,-73,-7,-122,-24,19,-58,-68,-82
-102,-53,48,78,-75,-2,-122,-24,19,-58,-68,-82
-102,-58,43,80,-73,-7,-122,-9,19,-58,-68,-82
-102,-58,43,80,-73,-7,-122,-9,19,-58,-68,-82
-102,-63,39,82,-70,-12,-122,-9,19,-53,-63,-82
-102,-63,39,82,-70,-12,-122,-9,24,-53,-63,-78
-92,-53,39,73,-65,-7,-107,-9,34,-43,-63,-78
-92,-53,39,73,-65,-7,-107,-9,34,-43,-58,-78
-92,-48,43,70,-68,-2,-107,-4,34,-39,-58,-78
-92,-48,43,70,-68,-2,-107,-4,34,-39,-58,-73
-92,-48,43,70,-68,-2,-107,4,39,-34,-48,-73
-92,-43,48,68,-70,2,-107,4,43,-34,-48,-73
-92,-43,48,68,-70,2,-107,4,43,-34,-48,-68
-92,-43,48,68,-70,2,-107,4,43,-29,-48,-68
-92,-43,48,68,-70,2,-97,-4,43,-29,-48,-58
-92,-48,43,70,-68,-2,-97,0,48,-29,-39,-58
-87,-48,39,68,-63,-4,-97,0,48,-29,-39,-58
-87,-43,43,65,-65,0,-97,0,48,-29,-39,-58
-87,-53,34,70,-61,-9,-107,9,58,-29,-39,-58
-87,-53,34,70,-61,-9,-107,9,58,-24,-39,-58
-87,-48,39,68,-63,-4,-102,14,58,-24,-34,-58
-87,-48,39,68,-63,-4,-102,14,58,-29,-34,-53
-87,-43,43,65,-65,0,-97,14,68,-24,-34,-53
-87,-43,43,65,-65,0,-97,14,68,-19,-34,-53
-87,-43,43,65,-65,0,-97,14,68,-9,-34,-53
-87,-39,48,63,-68,4,-97,14,68,-4,-34,-53
-78,-39,39,58,-58,0,-97,24,68,-14,-29,-53
-78,-39,39,58,-58,0,-97,24,68,-14,-29,-53
-78,-39,39,58,-58,0,-97,19,68,-14,-29,-53
-78,-43,34,61,-56,-4,-97,19,68,-14,-29,-53
-82,-34,48,58,-65,7,-87,19,68,-4,-29,-53
-82,-34,48,58,-65,7,-87,19,68,-9,-34,-53
-87,-39,48,63,-68,4,-87,19,68,-9,-29,-58
-87,-39,48,63,-68,4,-87,19,68,-9,-29,-58
-87,-39,48,63,-68,4,-87,19,68,-9,-29,-58
-87,-39,48,63,-68,4,-87,19,68,-9,-29,-58
-87,-39,48,63,-68,4,-87,19,68,-9,-29,-58
-78,-39,39,58,-58,0,-87,19,58,-19,-39,-48
-78,-39,39,58,-58,0,-82,19,53,-24,-39,-48
-82,-39,43,61,-63,2,-82,19,53,-24,-39,-53
-82,-39,43,61,-63,2,-82,19,53,-19,-39,-53
-73,-43,29,58,-51,-7,-82,19,63,-19,-39,-53
-73,-39,34,56,-53,-2,-78,19,68,-14,-39,-53
-68,-24,43,46,-56,9,-68,24,68,-14,-34,-53
-68,-19,48,43,-58,14,-63,24,73,-9,-29,-48
-68,0,68,34,-68,34,-63,14,73,0,-29,-48
-68,0,68,34,-68,34,-58,24,78,4,-29,-43
-68,9,78,29,-73,43,-58,24,78,4,-29,-43
-68,9,78,29,-73,43,-53,24,82,4,-29,-43
-68,9,78,29,-73,43,-48,24,73,0,-24,-43
-68,14,82,26,-75,48,-43,34,82,0,-24,-43
-73,19,92,26,-82,56,-29,39,82,0,-24,-43
-73,19,92,26,-82,56,-9,43,87,0,-24,-43
-73,19,92,26,-82,56,-9,39,92,9,-29,-53
-73,19,92,26,-82,56,0,48,97,9,-29,-43
-68,24,92,21,-80,58,9,53,102,14,-24,-43
-68,24,92,21,-80,58,14,63,107,19,-19,-39
-68,24,92,21,-80,58,24,68,117,24,-29,-39
-63,24,87,19,-75,56,19,78,117,24,-24,-39
-58,19,78,19,-68,48,19,82,117,24,-24,-39
-58,9,68,24,-63,39,4,73,107,19,-29,-39
-63,4,68,29,-65,36,-9,58,102,14,-29,-39
-63,4,68,29,-65,36,-34,39,92,4,-34,-43
-63,4,68,29,-65,36,-43,19,82,0,-39,-43
-63,0,63,31,-63,31,-58,14,68,-4,-48,-53
-63,0,63,31,-63,31,-73,4,58,-19,-58,-58
-63,-4,58,34,-61,26,-78,4,53,-29,-63,-58
-63,-4,58,34,-61,26,-78,4,53,-29,-63,-63
-63,-9,53,36,-58,21,-78,4,53,-34,-63,-63
-63,-24,39,43,-51,7,-68,0,48,-34,-63,-68
-63,-24,39,43,-51,7,-73,-4,43,-34,-68,-68
-63,-29,34,46,-48,2,-78,-9,39,-29,-73,-68
-68,-34,34,51,-51,0,-87,-14,34,-29,-78,-73
-68,-29,39,48,-53,4,-92,-19,24,-43,-73,-78
-68,-34,34,51,-51,0,-102,-29,19,-48,-78,-82
-73,-39,34,56,-53,-2,-107,-39,9,-58,-82,-82
-73,-43,29,58,-51,-7,-117,-43,4,-63,-87,-87
-63,-43,19,53,-41,-12,-117,-48,-4,-68,-97,-87
-68,-48,19,58,-43,-14,-122,-48,-9,-68,-102,-87
-68,-53,14,61,-41,-19,-122,-53,-9,-73,-102,-87
-73,-53,19,63,-46,-17,-122,-53,-9,-73,-102,-92
-73,-58,14,65,-43,-21,-112,-53,-14,-73,-112,-92
-82,-63,19,73,-51,-21,-107,-53,-14,-78,-112,-97
-82,-63,19,73,-51,-21,-102,-53,-14,-78,-117,-97
-87,-63,24,75,-56,-19,-97,-48,-14,-78,-117,-97
-87,-63,24,75,-56,-19,-107,-58,-14,-82,-107,-97
-87,-63,24,75,-56,-19,-102,-58,-14,-82,-112,-102
-87,-68,19,78,-53,-24,-97,-58,-14,-82,-112,-107
-92,-68,24,80,-58,-21,-92,-58,-14,-82,-112,-107
-92,-68,24,80,-58,-21,-92,-48,-24,-82,-126,-107
-92,-78,14,85,-53,-31,-92,-48,-24,-92,-131,-107
-97,-82,14,90,-56,-34,-92,-48,-29,-92,-131,-112
-97,-82,14,90,-56,-34,-92,-48,-34,-92,-131,-112
-97,-92,4,95,-51,-43,-82,-53,-34,-92,-131,-112
-97,-92,4,95,-51,-43,-82,-58,-34,-92,-131,-112
-102,-92,9,97,-56,-41,-82,-58,-34,-92,-136,-112
-102,-92,9,97,-56,-41,-82,-58,-39,-97,-136,-117
-92,-87,4,90,-48,-41,-82,-58,-29,-97,-136,-117
-92,-87,4,90,-48,-41,-87,-58,-29,-97,-141,-117
-92,-92,0,92,-46,-46,-87,-63,-29,-97,-141,-117
-92,-92,0,92,-46,-46,-87,-63,-34,-97,-136,-117
-97,-82,14,90,-56,-34,-87,-73,-34,-97,-136,-117
-97,-82,14,90,-56,-34,-87,-73,-34,-102,-136,-122
-97,-82,14,90,-56,-34,-87,-73,-34,-102,-136,-122
-102,-82,19,92,-61,-31,-87,-73,-34,-107,-136,-122
-92,-73,19,82,-56,-26,-82,-73,-34,-107,-136,-122
-92,-78,14,85,-53,-31,-82,-73,-34,-107,-136,-117
-92,-78,14,85,-53,-31,-82,-73,-34,-107,-136,-117
-92,-78,14,85,-53,-31,-82,-78,-34,-102,-141,-117
-102,-87,14,95,-58,-36,-82,-78,-34,-102,-151,-117
-97,-87,9,92,-53,-39,-87,-78,-34,-102,-151,-117
-97,-87,9,92,-53,-39,-87,-78,-34,-102,-151,-122
-102,-87,14,95,-58,-36,-87,-78,-34,-102,-151,-122
-97,-92,4,95,-51,-43,-78,-78,-34,-112,-151,-117
-97,-92,4,95,-51,-43,-78,-78,-34,-112,-151,-117
-97,-92,4,95,-51,-43,-78,-78,-34,-112,-151,-122
-97,-92,4,95,-51,-43,-78,-78,-34,-112,-151,-122
-97,-82,14,90,-56,-34,-78,-78,-48,-107,-141,-117
-97,-87,9,92,-53,-39,-78,-78,-48,-112,-146,-122
-102,-92,9,97,-56,-41,-73,-73,-53,-117,-151,-126
-102,-97,4,100,-53,-46,-68,-73,-53,-122,-161,-126
-102,-102,0,102,-51,-51,-68,-68,-53,-122,-161,-131
-97,-117,-19,107,-39,-68,-58,-53,-43,-122,-156,-141
-97,-117,-19,107,-39,-68,-58,-43,-19,-112,-156,-136
-92,-112,-19,102,-36,-65,-63,-24,19,-73,-131,-131
-78,-107,-29,92,-24,-68,-73,-43,39,-34,-107,-107
-53,-97,-43,75,-4,-70,-112,-92,43,-9,-87,-82
-39,-92,-53,65,7,-73,-185,-180,14,0,-48,-58
-4,-78,-73,41,34,-75,-278,-292,-43,0,-14,-19
39,-73,-112,17,75,-92,-370,-429,-146,-14,9,14
68,-63,-131,-2,100,-97,-478,-614,-287,-48,24,43
122,-34,-156,-43,139,-95,-595,-790,-424,-68,63,97
190,0,-190,-95,190,-95,-692,-922,-522,-43,136,180
273,48,-224,-161,248,-87,-775,-1005,-575,0,244,287
351,97,-253,-224,302,-78,-858,-1112,-624,48,341,390
414,156,-258,-285,336,-51,-927,-1190,-658,102,439,483
468,229,-239,-348,353,-4,-971,-1220,-619,180,546,580
512,273,-239,-392,375,17,-1015,-1239,-610,219,600,644
531,307,-224,-419,378,41,-1073,-1302,-712,161,585,663
517,317,-200,-417,358,58,-1117,-1395,-858,34,497,629
463,322,-141,-392,302,90,-1112,-1478,-976,-112,380,570
341,287,-53,-314,197,117,-1044,-1551,-1112,-317,190,439
200,219,19,-209,90,119,-956,-1625,-1283,-580,-63,263
34,151,117,-92,-41,134,-888,-1664,-1405,-810,-297,78
-112,68,180,21,-146,124,-810,-1625,-1405,-917,-444,-58
-185,4,190,90,-187,97,-722,-1537,-1356,-951,-536,-175
-224,-29,195,126,-209,82,-629,-1429,-1273,-932,-585,-239
-263,-48,214,156,-239,82,-570,-1332,-1161,-878,-585,-263
-297,-58,239,178,-268,90,-531,-1229,-1068,-819,-570,-273
-283,-58,224,170,-253,82,-507,-1132,-980,-771,-546,-273
-244,-58,185,151,-214,63,-488,-1005,-863,-707,-522,-258
-229,-53,175,141,-202,61,-429,-863,-741,-639,-473,-258
-219,-53,165,136,-192,56,-361,-732,-624,-556,-429,-253
-200,-48,151,124,-175,51,-322,-619,-522,-468,-370,-229
-170,-34,136,102,-153,51,-268,-502,-405,-375,-297,-185
-136,-34,102,85,-119,34,-200,-390,-307,-283,-239,-146
-126,-43,82,85,-104,19,-146,-307,-234,-229,-209,-131
-107,-48,58,78,-82,4,-102,-239,-190,-204,-200,-126
-102,-48,53,75,-78,2,-87,-185,-151,-185,-200,-126
-92,-48,43,70,-68,-2,-63,-136,-112,-180,-195,-131
-92,-48,43,70,-68,-2,-43,-102,-78,-161,-180,-131
-97,-58,39,78,-68,-9,-29,-82,-58,-141,-170,-131
-97,-63,34,80,-65,-14,-29,-78,-34,-126,-161,-131
-97,-68,29,82,-63,-19,-19,-73,-29,-112,-146,-126
-102,-78,24,90,-63,-26,-24,-63,-14,-97,-151,-122
-97,-78,19,87,-58,-29,-24,-58,-14,-97,-151,-122
-92,-78,14,85,-53,-31,-19,-43,-14,-102,-151,-122
-92,-78,14,85,-53,-31,-19,-34,-4,-102,-151,-122
-87,-78,9,82,-48,-34,-14,-19,-9,-112,-161,-126
-87,-78,9,82,-48,-34,-14,-14,0,-107,-156,-126
-82,-78,4,80,-43,-36,-9,-4,4,-97,-151,-126
-82,-73,9,78,-46,-31,-9,-4,9,-87,-146,-122
-92,-68,24,80,-58,-21,-9,-9,19,-82,-151,-126
-87,-68,19,78,-53,-24,-9,-9,24,-82,-146,-122
-82,-68,14,75,-48,-26,-9,-4,24,-82,-146,-122
-82,-68,14,75,-48,-26,-4,0,29,-82,-146,-122
-73,-68,4,70,-39,-31,-4,14,29,-87,-146,-122
-73,-68,4,70,-39,-31,-4,19,34,-82,-146,-122
-73,-68,4,70,-39,-31,-4,24,39,-78,-141,-112
-73,-68,4,70,-39,-31,-4,24,43,-73,-141,-112
-78,-68,9,73,-43,-29,4,34,48,-63,-126,-112
-73,-68,4,70,-39,-31,4,34,53,-58,-126,-112
-73,-68,4,70,-39,-31,4,34,58,-53,-126,-112
-78,-63,14,70,-46,-24,9,43,58,-53,-126,-107
-68,-63,4,65,-36,-29,4,39,58,-53,-131,-107
-68,-63,4,65,-36,-29,4,39,58,-53,-131,-107
-58,-63,-4,61,-26,-34,4,43,68,-48,-126,-102
-58,-58,0,58,-29,-29,4,48,68,-39,-122,-102
-53,-63,-9,58,-21,-36,14,53,73,-48,-122,-102
-53,-63,-9,58,-21,-36,14,58,78,-43,-122,-97
-53,-63,-9,58,-21,-36,14,63,82,-39,-117,-97
-53,-58,-4,56,-24,-31,14,68,87,-34,-112,-87
-53,-58,-4,56,-24,-31,14,73,97,-19,-107,-78
-48,-58,-9,53,-19,-34,14,82,97,-19,-107,-78
-48,-58,-9,53,-19,-34,14,92,102,-14,-102,-78
-48,-53,-4,51,-21,-29,14,102,107,-9,-97,-73
-48,-53,-4,51,-21,-29,14,97,102,4,-92,-68
-48,-53,-4,51,-21,-29,14,102,107,4,-87,-68
-43,-48,-4,46,-19,-26,14,107,112,9,-87,-68
-34,-43,-9,39,-12,-26,14,117,117,14,-82,-63
-34,-34,0,34,-17,-17,24,117,131,19,-82,-58
-34,-34,0,34,-17,-17,24,126,136,24,-78,-53
-29,-34,-4,31,-12,-19,24,131,146,29,-73,-48
-24,-29,-4,26,-9,-17,24,136,151,34,-68,-48
-29,-34,-4,31,-12,-19,34,146,156,39,-73,-53
-24,-34,-9,29,-7,-21,34,156,165,48,-68,-53
-19,-24,-4,21,-7,-14,34,161,170,58,-63,-43
-14,-19,-4,17,-4,-12,39,165,185,63,-53,-39
-4,-14,-9,9,2,-12,39,180,185,58,-53,-34
0,-14,-14,7,7,-14,43,195,190,73,-39,-29
0,-9,-9,4,4,-9,43,204,200,82,-29,-24
4,-4,-9,0,7,-7,43,214,204,87,-24,-19
9,0,-9,-4,9,-4,43,224,219,97,-19,-9
14,4,-9,-9,12,-2,43,234,229,107,-4,0
19,4,-14,-12,17,-4,43,244,239,117,0,4
29,9,-19,-19,24,-4,43,263,248,126,9,9
39,24,-14,-31,26,4,43,268,268,136,19,19
43,29,-14,-36,29,7,48,278,283,151,29,29
48,29,-19,-39,34,4,48,292,302,161,43,39
58,39,-19,-48,39,9,53,307,312,180,53,48
58,43,-14,-51,36,14,63,331,317,195,68,68
73,53,-19,-63,46,17,58,346,326,209,82,73
78,58,-19,-68,48,19,58,361,346,224,92,82
87,63,-24,-75,56,19,63,375,356,239,112,92
97,73,-24,-85,61,24,63,385,380,248,126,92
107,82,-24,-95,65,29,68,405,395,263,136,107
117,87,-29,-102,73,29,68,419,409,278,151,117
122,92,-29,-107,75,31,68,434,424,292,165,126
122,102,-19,-112,70,41,73,453,429,317,180,136
126,112,-14,-119,70,48,73,473,444,336,190,151
136,117,-19,-126,78,48,73,483,458,356,204,165
146,126,-19,-136,82,53,78,497,473,370,219,170
156,122,-34,-139,95,43,78,502,488,366,224,180
161,131,-29,-146,95,51,78,517,502,380,229,185
170,141,-29,-156,100,56,82,522,512,390,244,190
170,151,-19,-161,95,65,87,527,517,395,253,200
185,141,-43,-163,114,48,97,546,527,405,263,209
195,146,-48,-170,122,48,107,551,531,414,263,214
195,156,-39,-175,117,58,107,561,541,419,268,219
200,161,-39,-180,119,61,107,566,546,429,278,219
200,165,-34,-183,117,65,107,566,541,424,278,224
204,165,-39,-185,122,63,112,566,551,429,278,229
209,170,-39,-190,124,65,112,566,551,429,283,229
209,170,-39,-190,124,65,112,566,551,429,287,234
204,170,-34,-187,119,68,107,566,551,439,287,234
204,170,-34,-187,119,68,107,566,551,439,287,234
204,170,-34,-187,119,68,112,561,551,439,287,229
204,170,-34,-187,119,68,117,556,546,429,283,229
214,165,-48,-190,131,58,122,541,541,429,278,234
209,161,-48,-185,129,56,122,531,531,419,268,229
200,161,-39,-180,119,61,126,522,522,409,258,219
195,156,-39,-175,117,58,131,507,507,390,244,209
175,156,-19,-165,97,68,122,483,488,370,224,185
175,151,-24,-163,100,63,122,463,473,356,209,175
165,136,-29,-151,97,53,117,448,453,336,190,165
151,126,-24,-139,87,51,117,429,434,317,180,156
146,126,-19,-136,82,53,117,400,409,297,165,146
141,117,-24,-129,82,46,117,380,390,278,146,126
131,107,-24,-119,78,41,112,361,370,258,122,122
117,97,-19,-107,68,39,112,346,346,239,102,102
107,82,-24,-95,65,29,112,317,322,209,87,82
97,78,-19,-87,58,29,112,292,297,185,68,68
