I,II,III,aVR,aVL,aVF,V1,V2,V3,V4,V5,V6
-19,-53,-34,36,7,-43,19,53,19,-151,14,29
-24,-58,-34,41,4,-46,24,53,14,-156,4,19
-24,-68,-43,46,9,-56,24,48,9,-170,0,9
-9,-68,-58,39,24,-63,19,43,-4,-170,-9,4
-19,-73,-53,46,17,-63,19,34,-14,-175,-24,0
-24,-73,-48,48,12,-61,19,34,-14,-185,-29,-4
-24,-78,-53,51,14,-65,24,34,-9,-190,-34,-9
-34,-87,-53,61,9,-70,34,43,-4,-190,-34,-9
-34,-78,-43,56,4,-61,29,39,-14,-190,-43,-19
-34,-78,-43,56,4,-61,29,39,-14,-190,-48,-19
-39,-73,-34,56,-2,-53,29,39,-14,-195,-48,-19
-39,-73,-34,56,-2,-53,29,43,-9,-200,-53,-19
-53,-92,-39,73,-7,-65,48,63,0,-185,-43,-9
-53,-97,-43,75,-4,-70,48,63,4,-180,-34,-4
-34,-97,-63,65,14,-80,43,53,4,-185,-29,-4
-9,-102,-92,56,41,-97,43,53,4,-185,-29,-4
-14,-102,-87,58,36,-95,53,63,-4,-195,-39,-4
-29,-107,-78,68,24,-92,53,63,-4,-195,-39,-4
-34,-107,-73,70,19,-90,53,63,0,-190,-39,-4
-39,-112,-73,75,17,-92,53,63,0,-190,-39,-9
-24,-107,-82,65,29,-95,43,39,-14,-200,-53,-14
-14,-102,-87,58,36,-95,39,48,-14,-200,-53,-19
0,-97,-97,48,48,-97,34,48,-14,-200,-53,-19
-9,-92,-82,51,36,-87,29,48,-14,-195,-53,-24
-4,-92,-87,48,41,-90,29,39,-19,-200,-58,-29
-4,-97,-92,51,43,-95,29,43,-14,-195,-53,-29
-9,-97,-87,53,39,-92,29,48,-9,-200,-48,-29
-14,-97,-82,56,34,-90,34,48,-9,-204,-48,-29
-4,-97,-92,51,43,-95,39,48,-14,-204,-63,-39
4,-92,-97,43,51,-95,34,48,-14,-209,-63,-39
9,-92,-102,41,56,-97,29,48,-14,-209,-63,-39
19,-102,-122,41,70,-112,24,53,-14,-204,-63,-34
-9,-102,-92,56,41,-97,34,68,4,-185,-43,-19
-43,-102,-58,73,7,-80,43,73,9,-180,-39,-14
-78,-107,-29,92,-24,-68,53,78,14,-180,-39,-14
-107,-107,0,107,-53,-53,63,78,19,-175,-34,-9
-97,-102,-4,100,-46,-53,63,87,19,-165,-29,0
-122,-102,19,112,-70,-41,68,87,19,-165,-29,0
-117,-107,9,112,-63,-48,73,87,19,-165,-24,0
-102,-107,-4,104,-48,-56,78,87,19,-165,-19,0
-48,-97,-48,73,0,-73,63,68,0,-185,-39,-19
-14,-97,-82,56,34,-90,43,53,-9,-204,-58,-34
4,-87,-92,41,48,-90,29,43,-19,-214,-68,-48
39,-87,-126,24,82,-107,14,29,-29,-219,-78,-58
73,-87,-161,7,117,-124,4,19,-39,-219,-73,-68
73,-73,-146,0,109,-109,9,24,-29,-200,-63,-48
34,-82,-117,24,75,-100,14,39,-9,-180,-53,-34
0,-82,-82,41,41,-82,24,39,14,-170,-39,-19
-9,-63,-53,36,21,-58,29,58,39,-141,-9,4
0,-43,-43,21,21,-43,29,68,68,-112,19,34
19,-34,-53,7,36,-43,29,73,102,-82,48,43
29,0,-29,-14,29,-14,4,63,146,-43,73,58
48,63,14,-56,17,39,-53,24,146,-34,82,43
102,97,-4,-100,53,46,-136,-19,146,-19,82,53
136,68,-68,-102,102,0,-209,-19,165,14,126,78
141,78,-63,-109,102,7,-258,-29,165,63,165,112
126,107,-19,-117,73,43,-312,-63,141,87,185,136
122,131,9,-126,56,70,-375,-112,102,92,200,161
136,165,29,-151,53,97,-478,-156,92,122,214,195
175,204,29,-190,73,117,-575,-161,122,180,278,244
239,234,-4,-236,122,114,-663,-151,126,253,346,302
317,273,-43,-295,180,114,-805,-136,126,317,409,356
400,292,-107,-346,253,92,-971,-58,195,424,497,434
463,307,-156,-385,309,75,-1088,48,297,541,605,522
531,322,-209,-427,370,56,-1229,68,336,649,697,595
624,341,-283,-483,453,29,-1439,-43,322,727,775,658
732,322,-409,-527,570,-43,-1620,-214,273,771,834,712
829,268,-561,-549,695,-146,-1737,-322,253,800,888,761
888,170,-717,-529,802,-273,-1820,-385,273,810,902,795
907,24,-883,-466,895,-429,-1849,-414,253,732,854,775
897,-117,-1015,-390,956,-566,-1790,-424,185,575,751,717
868,-214,-1083,-326,976,-649,-1722,-453,97,414,649,673
844,-248,-1093,-297,968,-671,-1649,-517,34,326,566,619
844,-248,-1093,-297,968,-671,-1532,-546,19,278,522,570
829,-258,-1088,-285,958,-673,-1371,-517,24,234,483,551
795,-278,-1073,-258,934,-675,-1190,-458,9,185,458,527
761,-278,-1039,-241,900,-658,-1024,-395,-48,87,380,473
741,-278,-1019,-231,880,-649,-844,-341,-141,-34,278,390
707,-278,-985,-214,846,-631,-707,-297,-263,-151,175,312
653,-278,-932,-187,793,-605,-634,-278,-380,-258,92,253
605,-273,-878,-165,741,-575,-634,-292,-463,-356,9,200
551,-263,-814,-143,683,-539,-634,-346,-527,-444,-63,141
497,-253,-751,-122,624,-502,-610,-361,-536,-488,-107,107
458,-283,-741,-87,600,-512,-580,-341,-507,-507,-122,82
463,-297,-761,-82,612,-529,-566,-361,-527,-546,-170,39
492,-287,-780,-102,636,-534,-570,-439,-585,-619,-253,-48
507,-278,-785,-114,646,-531,-580,-512,-668,-683,-322,-102
502,-268,-771,-117,636,-519,-561,-522,-692,-712,-351,-122
458,-258,-717,-100,588,-488,-527,-502,-692,-702,-356,-126
385,-234,-619,-75,502,-427,-492,-473,-658,-688,-341,-126
292,-224,-517,-34,405,-370,-453,-439,-619,-649,-312,-122
214,-219,-434,2,324,-326,-409,-414,-590,-629,-312,-136
156,-224,-380,34,268,-302,-375,-409,-561,-619,-322,-151
126,-214,-341,43,234,-278,-346,-400,-531,-600,-317,-161
161,-190,-351,14,256,-270,-302,-361,-492,-570,-312,-170
219,-165,-385,-26,302,-275,-268,-346,-473,-561,-322,-190
229,-151,-380,-39,305,-265,-234,-312,-429,-546,-312,-200
180,-146,-326,-17,253,-236,-190,-248,-380,-517,-292,-185
161,-141,-302,-9,231,-222,-165,-195,-331,-488,-263,-175
161,-136,-297,-12,229,-217,-141,-146,-287,-453,-229,-151
117,-122,-239,2,178,-180,-107,-87,-219,-395,-195,-131
58,-102,-161,21,109,-131,-48,-29,-151,-331,-151,-102
29,-78,-107,24,68,-92,-4,19,-92,-283,-117,-73
0,-58,-58,29,29,-58,39,53,-63,-263,-97,-68
-19,-58,-39,39,9,-48,68,78,-39,-258,-97,-63
-24,-82,-58,53,17,-70,102,97,-34,-258,-97,-63
-43,-87,-43,65,0,-65,112,117,-24,-258,-97,-63
-58,-82,-24,70,-17,-53,117,117,-24,-258,-97,-73
-73,-78,-4,75,-34,-41,117,122,-14,-248,-92,-73
-87,-68,19,78,-53,-24,131,126,-9,-248,-92,-73
-117,-58,58,87,-87,0,126,126,0,-244,-92,-73
-117,-53,63,85,-90,4,136,122,9,-239,-82,-73
-107,-53,53,80,-80,0,136,117,9,-234,-82,-73
-97,-48,48,73,-73,0,126,112,4,-234,-87,-78
-87,-48,39,68,-63,-4,122,107,0,-229,-87,-78
-68,-58,9,63,-39,-24,122,107,0,-234,-97,-78
-53,-63,-9,58,-21,-36,122,107,0,-239,-102,-82
-63,-68,-4,65,-29,-36,126,112,0,-239,-102,-82
-73,-68,4,70,-39,-31,131,112,4,-234,-97,-82
-87,-68,19,78,-53,-24,141,117,19,-224,-87,-78
-97,-68,29,82,-63,-19,146,122,19,-214,-82,-68
-107,-68,39,87,-73,-14,146,131,24,-209,-78,-53
-112,-63,48,87,-80,-7,146,136,29,-209,-78,-48
-92,-63,29,78,-61,-17,141,131,24,-219,-87,-53
-92,-73,19,82,-56,-26,136,126,19,-224,-87,-58
-87,-78,9,82,-48,-34,131,126,14,-224,-87,-63
-87,-78,9,82,-48,-34,126,122,9,-224,-87,-68
-73,-63,9,68,-41,-26,117,107,9,-229,-97,-78
-78,-48,29,63,-53,-9,117,107,4,-229,-97,-78
-82,-39,43,61,-63,2,122,107,4,-229,-97,-78
-78,-29,48,53,-63,9,131,112,9,-224,-87,-78
-73,-34,39,53,-56,2,126,122,24,-219,-78,-68
-63,-39,24,51,-43,-7,131,122,24,-219,-78,-63
-78,-48,29,63,-53,-9,136,122,24,-214,-82,-63
-82,-53,29,68,-56,-12,141,122,24,-209,-82,-63
-102,-48,53,75,-78,2,146,122,29,-195,-78,-58
-122,-43,78,82,-100,17,151,126,34,-185,-73,-58
-141,-43,97,92,-119,26,161,131,39,-180,-63,-53
-161,-39,122,100,-141,41,165,136,43,-175,-58,-48
-131,-29,102,80,-117,36,156,126,39,-180,-73,-63
-117,-29,87,73,-102,29,146,122,34,-185,-73,-63
-102,-29,73,65,-87,21,141,117,29,-190,-73,-68
-82,-39,43,61,-63,2,136,117,24,-185,-78,-73
-87,-48,39,68,-63,-4,136,107,19,-195,-78,-82
-73,-43,29,58,-51,-7,136,107,19,-200,-82,-82
-68,-43,24,56,-46,-9,136,102,14,-204,-82,-87
-58,-43,14,51,-36,-14,136,102,9,-204,-82,-87
-73,-39,34,56,-53,-2,141,102,19,-209,-82,-78
-78,-39,39,58,-58,0,141,102,19,-204,-78,-73
-92,-34,58,63,-75,12,141,102,19,-190,-68,-73
-97,-34,63,65,-80,14,151,107,24,-180,-63,-73
-107,-29,78,68,-92,24,161,117,34,-180,-63,-63
-102,-29,73,65,-87,21,161,112,34,-180,-63,-68
-97,-29,68,63,-82,19,161,112,34,-180,-63,-68
-92,-29,63,61,-78,17,161,107,29,-185,-63,-68
-92,-29,63,61,-78,17,151,107,29,-185,-63,-78
-102,-29,73,65,-87,21,161,112,34,-180,-63,-73
-112,-29,82,70,-97,26,170,112,39,-180,-63,-73
-117,-29,87,73,-102,29,170,117,39,-180,-63,-73
-122,-39,82,80,-102,21,180,117,48,-180,-63,-63
-131,-29,102,80,-117,36,185,117,43,-180,-63,-63
-136,-29,107,82,-122,39,190,117,43,-175,-63,-63
-126,-34,92,80,-109,29,195,117,43,-170,-63,-68
-126,-43,82,85,-104,19,200,117,53,-161,-58,-68
-131,-43,87,87,-109,21,200,122,53,-161,-53,-63
-161,-43,117,102,-139,36,204,122,53,-161,-48,-58
-170,-43,126,107,-148,41,214,126,53,-156,-43,-48
-200,-34,165,117,-183,65,229,126,68,-146,-34,-39
-224,-39,185,131,-204,73,239,126,73,-146,-34,-39
-229,-48,180,139,-204,65,244,141,73,-146,-34,-39
-229,-39,190,134,-209,75,244,131,68,-146,-43,-43
-214,-19,195,117,-204,87,234,117,48,-156,-48,-58
-209,-19,190,114,-200,85,239,117,48,-161,-53,-63
-204,-19,185,112,-195,82,239,112,48,-165,-53,-68
-200,-19,180,109,-190,80,248,112,43,-165,-53,-68
-175,-19,156,97,-165,68,239,112,29,-180,-68,-82
-180,-24,156,102,-168,65,244,107,34,-180,-68,-87
-175,-24,151,100,-163,63,248,102,29,-175,-73,-87
-165,-29,136,97,-151,53,244,102,24,-175,-82,-92
-185,-39,146,112,-165,53,263,107,39,-170,-78,-82
-209,-39,170,124,-190,65,273,112,39,-161,-78,-87
-234,-14,219,124,-226,102,287,112,39,-156,-78,-97
-234,-24,209,129,-222,92,297,117,39,-151,-73,-102
-204,-19,185,112,-195,82,297,112,24,-170,-87,-107
-204,-19,185,112,-195,82,292,102,19,-180,-92,-112
-195,-14,180,104,-187,82,292,97,14,-195,-92,-117
-195,-14,180,104,-187,82,302,92,9,-200,-92,-117
-209,-14,195,112,-202,90,312,107,19,-185,-82,-107
-224,-14,209,119,-217,97,331,107,19,-180,-82,-107
-248,-14,234,131,-241,109,346,107,19,-175,-82,-107
-253,-14,239,134,-246,112,351,107,19,-170,-82,-112
-253,-19,234,136,-244,107,366,107,14,-180,-82,-112
-258,-19,239,139,-248,109,370,107,14,-180,-87,-122
-268,-19,248,143,-258,114,375,102,9,-180,-92,-126
-273,-9,263,141,-268,126,390,102,9,-185,-97,-126
-283,0,283,141,-283,141,400,112,19,-180,-87,-126
-292,0,292,146,-292,146,400,112,9,-175,-87,-131
-297,0,297,148,-297,148,400,112,9,-175,-87,-126
-307,0,307,153,-307,153,405,112,4,-175,-82,-126
-287,-9,278,148,-283,134,395,102,-9,-185,-92,-151
-273,-9,263,141,-268,126,405,102,-9,-195,-97,-146
-273,-9,263,141,-268,126,405,92,-14,-200,-107,-146
-263,-9,253,136,-258,122,405,82,-14,-209,-112,-146
-258,-9,248,134,-253,119,400,73,-24,-209,-107,-156
-248,-9,239,129,-244,114,400,73,-24,-204,-107,-156
-244,-9,234,126,-239,112,405,73,-24,-200,-107,-156
-239,-9,229,124,-234,109,409,68,-24,-200,-107,-156
-248,-4,244,126,-246,119,424,78,-14,-195,-97,-146
-258,4,263,126,-261,134,424,78,-9,-190,-92,-141
-258,9,268,124,-263,139,424,78,-4,-190,-87,-141
-253,14,268,119,-261,141,414,78,-4,-190,-87,-141
-263,9,273,126,-268,141,424,87,-4,-185,-87,-136
-268,4,273,131,-270,139,424,87,0,-185,-82,-131
-263,0,263,131,-263,131,419,92,4,-175,-78,-126
-258,0,258,129,-258,129,409,92,9,-165,-73,-126
-253,9,263,122,-258,136,395,82,4,-180,-82,-136
-253,14,268,119,-261,141,390,87,14,-175,-78,-136
-244,19,263,112,-253,141,385,92,14,-175,-68,-131
-229,24,253,102,-241,139,370,97,14,-175,-63,-126
-214,19,234,97,-224,126,356,97,9,-180,-68,-122
-209,19,229,95,-219,124,346,97,14,-175,-63,-117
-209,19,229,95,-219,124,341,107,19,-165,-53,-107
-209,19,229,95,-219,124,326,107,34,-156,-43,-107
-209,19,229,95,-219,124,312,107,39,-146,-29,-87
-224,19,244,102,-234,131,302,112,48,-131,-19,-73
-244,14,258,114,-251,136,302,117,58,-112,-9,-68
-258,14,273,122,-265,143,283,117,68,-97,-4,-63
-219,19,239,100,-229,129,263,102,48,-107,-24,-73
-185,24,209,80,-197,117,239,97,39,-122,-34,-78
-161,29,190,65,-175,109,219,92,29,-136,-39,-87
-126,24,151,51,-139,87,190,87,14,-161,-48,-92
-146,34,180,56,-163,107,180,92,14,-151,-43,-92
-141,43,185,48,-163,114,165,92,9,-156,-43,-92
-156,43,200,56,-178,122,156,87,9,-156,-43,-87
-170,39,209,65,-190,124,161,87,14,-151,-34,-87
-161,39,200,61,-180,119,151,92,19,-126,-14,-68
-156,39,195,58,-175,117,136,92,19,-122,-9,-58
-146,39,185,53,-165,112,122,92,19,-117,0,-53
-136,39,175,48,-156,107,112,92,24,-102,14,-48
-136,34,170,51,-153,102,112,102,43,-87,39,-24
-136,19,156,58,-146,87,112,102,53,-78,43,-9
-131,14,146,58,-139,80,107,107,53,-68,43,0
-122,9,131,56,-126,70,107,112,58,-63,53,9
-107,0,107,53,-107,53,92,102,48,-78,43,-4
-117,-4,112,61,-114,53,87,97,43,-78,34,-19
-117,4,122,56,-119,63,78,87,43,-73,29,-19
-112,-9,102,61,-107,46,73,82,39,-73,19,-34
-126,-14,112,70,-119,48,73,73,24,-87,4,-43
-131,-14,117,73,-124,51,63,68,9,-92,0,-53
-136,-14,122,75,-129,53,63,68,4,-97,-4,-58
-141,-14,126,78,-134,56,58,68,0,-97,-9,-58
-151,-14,136,82,-143,61,63,73,14,-78,4,-34
-161,-14,146,87,-153,65,63,78,14,-68,14,-24
-175,-19,156,97,-165,68,68,82,19,-58,29,-9
-185,-19,165,102,-175,73,73,82,24,-48,43,9
-156,-43,112,100,-134,34,53,68,9,-53,53,19
-136,-58,78,97,-107,9,39,53,9,-63,53,9
-122,-73,48,97,-85,-12,29,48,9,-68,53,9
-107,-87,19,97,-63,-34,29,43,9,-73,48,9
-78,-82,-4,80,-36,-43,14,34,4,-82,29,0
-48,-82,-34,65,-7,-58,9,34,0,-82,24,-9
-14,-82,-68,48,26,-75,4,34,-4,-82,19,-24
14,-82,-97,34,56,-90,0,34,-9,-82,14,-34
-14,-82,-68,48,26,-75,14,53,4,-68,34,-9
-39,-82,-43,61,2,-63,29,63,19,-58,43,0
-63,-82,-19,73,-21,-51,43,73,34,-48,53,4
-82,-82,0,82,-41,-41,58,78,48,-34,58,9
-102,-92,9,97,-56,-41,63,92,58,-29,68,14
-122,-92,29,107,-75,-31,68,97,53,-29,68,19
-141,-92,48,117,-95,-21,73,102,53,-29,68,24
-180,-92,87,136,-134,-2,82,107,58,-24,68,29
-141,-92,48,117,-95,-21,63,82,43,-34,43,4
-107,-92,14,100,-61,-39,48,68,29,-43,34,-9
-68,-92,-24,80,-21,-58,34,53,14,-53,24,-24
-14,-92,-78,53,31,-85,19,39,4,-53,14,-39
4,-87,-92,41,48,-90,19,48,9,-34,29,-39
19,-82,-102,31,61,-92,9,43,9,-29,34,-39
19,-82,-102,31,61,-92,19,43,14,-19,43,-34
14,-78,-92,31,53,-85,19,43,24,-14,58,-29
-14,-73,-58,43,21,-65,34,39,39,-4,68,-24
-39,-68,-29,53,-4,-48,39,43,43,9,68,-14
-68,-68,0,68,-34,-34,43,58,48,19,78,-4
-97,-63,34,80,-65,-14,53,63,53,29,92,9
-117,-73,43,95,-80,-14,63,78,68,34,97,19
-122,-73,48,97,-85,-12,63,78,68,43,102,14
-122,-73,48,97,-85,-12,63,78,73,63,107,14
-117,-78,39,97,-78,-19,73,78,73,73,107,14
-87,-73,14,80,-51,-29,53,63,58,78,107,0
-58,-73,-14,65,-21,-43,43,63,58,73,107,-4
-48,-73,-24,61,-12,-48,43,63,58,78,112,-9
-48,-73,-24,61,-12,-48,48,63,58,87,117,-14
-39,-63,-24,51,-7,-43,43,58,43,73,117,-24
-29,-53,-24,41,-2,-39,39,53,39,68,112,-24
-24,-43,-19,34,-2,-31,34,48,34,63,107,-29
-19,-34,-14,26,-2,-24,29,43,29,58,107,-29
-29,-34,-4,31,-12,-19,34,58,29,48,102,-29
-29,-34,-4,31,-12,-19,34,58,29,48,102,-29
-34,-39,-4,36,-14,-21,39,58,29,48,112,-24
-34,-39,-4,36,-14,-21,43,58,34,53,117,-24
-43,-34,9,39,-26,-12,43,58,39,43,117,-24
-48,-34,14,41,-31,-9,43,58,39,43,112,-24
-53,-34,19,43,-36,-7,34,58,39,43,112,-29
-53,-34,19,43,-36,-7,29,53,39,34,112,-29
-78,-39,39,58,-58,0,39,63,39,24,112,-39
-82,-43,39,63,-61,-2,39,68,43,24,112,-34
-82,-48,34,65,-58,-7,39,68,43,24,112,-34
-73,-53,19,63,-46,-17,39,68,43,14,112,-34
-63,-73,-9,68,-26,-41,39,63,39,-4,102,-34
-58,-73,-14,65,-21,-43,29,63,39,-19,102,-39
-43,-63,-19,53,-12,-41,29,53,39,-39,97,-39
-43,-58,-14,51,-14,-36,24,53,34,-53,97,-39
-68,-48,19,58,-43,-14,29,58,39,-82,82,-43
-73,-48,24,61,-48,-12,29,58,34,-92,78,-48
-87,-53,34,70,-61,-9,29,58,34,-102,73,-53
-107,-53,53,80,-80,0,29,63,34,-107,73,-63
-102,-43,58,73,-80,7,19,58,29,-126,68,-68
-107,-43,63,75,-85,9,19,53,29,-141,58,-73
-92,-43,48,68,-70,2,19,48,34,-151,48,-73
-87,-43,43,65,-65,0,24,43,34,-165,39,-78
-68,-34,34,51,-51,0,19,34,24,-175,34,-78
-53,-34,19,43,-36,-7,9,34,19,-185,34,-73
-39,-39,0,39,-19,-19,4,34,14,-200,34,-73
-19,-39,-19,29,0,-29,0,34,14,-219,34,-78
-34,-39,-4,36,-14,-21,0,34,24,-224,39,-73
-43,-43,0,43,-21,-21,-4,39,24,-224,39,-68
-63,-58,4,61,-34,-26,9,43,29,-224,39,-63
-87,-63,24,75,-56,-19,14,48,34,-224,39,-58
-87,-39,48,63,-68,4,24,48,34,-239,24,-68
-97,-39,58,68,-78,9,24,48,34,-248,19,-58
-107,-43,63,75,-85,9,34,58,34,-248,24,-53
-107,-43,63,75,-85,9,34,58,34,-258,19,-53
-92,-34,58,63,-75,12,29,48,24,-268,0,-58
-73,-24,48,48,-61,12,19,39,19,-273,0,-68
-53,-19,34,36,-43,7,0,24,19,-283,0,-78
-43,-19,24,31,-34,2,-4,19,19,-287,0,-82
-24,-9,14,17,-19,2,-4,19,14,-302,-9,-82
-19,-9,9,14,-14,0,-9,14,14,-312,-9,-82
0,-9,-9,4,4,-9,-9,14,14,-317,-14,-82
-14,-9,4,12,-9,-2,-9,19,19,-312,-14,-82
-53,-19,34,36,-43,7,0,29,19,-322,4,-63
-58,-19,39,39,-48,9,4,29,19,-322,4,-73
-29,-19,9,24,-19,-4,0,19,9,-341,-9,-87
-24,-14,9,19,-17,-2,0,9,4,-356,-14,-97
-19,-9,9,14,-14,0,0,9,0,-361,-19,-97
-14,-4,9,9,-12,2,0,9,-4,-366,-24,-97
-9,0,9,4,-9,4,0,9,-9,-370,-29,-97
-24,9,34,7,-29,21,-4,14,-4,-361,-24,-73
-19,9,29,4,-24,19,-14,14,0,-356,-14,-68
-34,24,58,4,-46,41,-19,19,4,-346,-4,-68
-48,24,73,12,-61,48,-29,19,14,-341,0,-63
-19,9,29,4,-24,19,-43,9,9,-346,0,-63
9,4,-4,-7,7,0,-48,4,4,-351,-4,-68
53,0,-53,-26,53,-26,-63,-4,-4,-356,-9,-78
92,-4,-97,-43,95,-51,-73,-24,-19,-370,-29,-87
82,4,-78,-43,80,-36,-63,-19,-14,-375,-24,-87
82,9,-73,-46,78,-31,-58,-14,-14,-375,-24,-82
73,9,-63,-41,68,-26,-58,-4,-14,-370,-14,-73
58,9,-48,-34,53,-19,-58,0,-9,-370,-9,-58
39,9,-29,-24,34,-9,-48,14,-4,-361,4,-39
34,14,-19,-24,26,-2,-48,14,4,-361,9,-34
39,29,-9,-34,24,9,-53,14,9,-361,9,-29
39,19,-19,-29,29,0,-53,14,9,-361,14,-24
63,9,-53,-36,58,-21,-53,19,0,-361,9,-24
68,0,-68,-34,68,-34,-53,19,-4,-366,9,-24
53,-4,-58,-24,56,-31,-63,19,-4,-366,9,-24
39,-19,-58,-9,48,-39,-53,19,-4,-361,14,-19
39,-19,-58,-9,48,-39,-63,9,-9,-370,0,-29
43,-14,-58,-14,51,-36,-63,9,-14,-380,-4,-29
48,-9,-58,-19,53,-34,-63,9,-24,-390,-9,-34
58,-14,-73,-21,65,-43,-63,9,-29,-400,-9,-34
68,-9,-78,-29,73,-43,-48,9,-24,-390,-9,-24
53,0,-53,-26,53,-26,-48,9,-19,-390,-9,-19
48,9,-39,-29,43,-14,-48,9,-19,-390,-9,-14
43,14,-29,-29,36,-7,-58,19,-19,-390,-9,-14
58,19,-39,-39,48,-9,-58,14,-4,-385,0,-9
58,14,-43,-36,51,-14,-48,19,4,-375,4,-4
53,4,-48,-29,51,-21,-48,24,9,-370,9,9
43,0,-43,-21,43,-21,-48,24,9,-370,9,4
29,9,-19,-19,24,-4,-43,34,19,-385,0,4
9,0,-9,-4,9,-4,-29,39,19,-390,-9,-4
-48,-14,34,31,-41,9,-4,48,19,-395,-14,-9
-63,-19,43,41,-53,12,4,53,14,-400,-24,-19
-53,-39,14,46,-34,-12,-4,34,-4,-434,-48,-43
-29,-39,-9,34,-9,-24,-9,24,-24,-444,-68,-53
-19,-43,-24,31,2,-34,-9,19,-29,-453,-78,-58
-14,-43,-29,29,7,-36,-9,14,-34,-468,-87,-63
-4,-43,-39,24,17,-41,-14,24,-19,-463,-78,-53
-14,-48,-34,31,9,-41,-4,34,-14,-453,-63,-39
-19,-43,-24,31,2,-34,0,39,-14,-444,-48,-29
-24,-39,-14,31,-4,-26,0,39,-14,-434,-39,-19
-48,-48,0,48,-24,-24,14,43,-4,-444,-43,-9
-68,-53,14,61,-41,-19,19,53,0,-444,-43,-9
-97,-63,34,80,-65,-14,34,68,4,-444,-43,-4
-112,-68,43,90,-78,-12,39,73,4,-444,-43,-4
-73,-58,14,65,-43,-21,19,48,-14,-468,-53,-24
-39,-53,-14,46,-12,-34,14,43,-24,-478,-68,-34
-29,-48,-19,39,-4,-34,9,39,-39,-492,-73,-39
-29,-48,-19,39,-4,-34,4,34,-43,-497,-78,-43
0,-43,-43,21,21,-43,-9,19,-43,-497,-87,-53
19,-43,-63,12,41,-53,-14,14,-48,-502,-97,-68
48,-39,-87,-4,68,-63,-24,-4,-58,-507,-112,-78
73,-34,-107,-19,90,-70,-29,0,-63,-512,-122,-87
73,-43,-117,-14,95,-80,-24,4,-48,-492,-107,-73
58,-53,-112,-2,85,-82,-19,9,-43,-478,-92,-63
53,-63,-117,4,85,-90,-14,14,-34,-468,-73,-48
53,-78,-131,12,92,-104,-9,24,-24,-448,-53,-39
34,-87,-122,26,78,-104,-4,39,-14,-439,-43,-34
14,-87,-102,36,58,-95,4,39,-9,-439,-39,-29
0,-87,-87,43,43,-87,19,39,-9,-439,-39,-24
-14,-82,-68,48,26,-75,24,39,-4,-444,-34,-19
-9,-82,-73,46,31,-78,14,39,-9,-453,-48,-34
-9,-92,-82,51,36,-87,14,43,-14,-448,-53,-34
-9,-82,-73,46,31,-78,14,43,-14,-444,-53,-39
-14,-82,-68,48,26,-75,14,43,-19,-444,-58,-43
-34,-87,-53,61,9,-70,19,53,-14,-439,-58,-43
-39,-87,-48,63,4,-68,24,48,-9,-429,-53,-39
-29,-82,-53,56,12,-68,24,48,-4,-419,-48,-34
-53,-82,-29,68,-12,-56,29,48,0,-409,-48,-29
-58,-82,-24,70,-17,-53,29,48,-4,-414,-53,-43
-43,-78,-34,61,-4,-56,29,48,-9,-419,-58,-48
-29,-73,-43,51,7,-58,29,48,-14,-424,-63,-53
-34,-68,-34,51,0,-51,24,43,-19,-439,-78,-63
-9,-68,-58,39,24,-63,9,29,-24,-448,-82,-78
19,-68,-87,24,53,-78,4,19,-29,-444,-87,-78
63,-68,-131,2,97,-100,0,14,-34,-444,-87,-78
102,-63,-165,-19,134,-114,-9,4,-39,-444,-92,-78
63,-24,-87,-19,75,-56,-24,9,-19,-405,-63,-53
9,-4,-14,-2,12,-9,-14,19,4,-375,-39,-39
0,-43,-43,21,21,-43,0,39,39,-336,-9,-4
19,-34,-53,7,36,-43,-9,39,68,-317,19,14
58,14,-43,-36,51,-14,-39,24,102,-287,39,24
68,29,-39,-48,53,-4,-63,14,136,-248,73,39
39,43,4,-41,17,24,-102,14,175,-200,112,73
14,78,63,-46,-24,70,-156,9,195,-156,151,102
19,97,78,-58,-29,87,-219,0,204,-112,185,126
82,117,34,-100,24,75,-297,-48,175,-102,195,141
146,146,0,-146,73,73,-390,-112,102,-117,185,136
190,180,-9,-185,100,85,-502,-190,53,-122,170,131
263,224,-39,-244,151,92,-624,-234,63,-102,195,146
351,292,-58,-322,204,117,-722,-248,73,-43,248,195
424,322,-102,-373,263,109,-829,-229,58,19,317,263
512,331,-180,-422,346,75,-990,-175,107,122,400,336
614,331,-283,-473,448,24,-1137,-87,195,248,497,414
688,336,-351,-512,519,-7,-1254,-9,268,366,595,492
717,341,-375,-529,546,-17,-1405,-48,278,463,697,585
761,331,-429,-546,595,-48,-1595,-200,263,541,775,668
810,302,-507,-556,658,-102,-1737,-331,224,585,844,722
849,248,-600,-549,724,-175,-1834,-409,234,595,878,771
868,131,-736,-500,802,-302,-1878,-453,253,566,863,785
888,-14,-902,-436,895,-458,-1859,-463,214,448,795,736
888,-136,-1024,-375,956,-580,-1790,-483,126,283,673,678
858,-214,-1073,-322,966,-644,-1693,-522,58,170,590,634
834,-248,-1083,-292,958,-666,-1581,-546,53,131,556,619
824,-248,-1073,-287,949,-661,-1424,-527,78,102,531,590
810,-239,-1049,-285,929,-644,-1273,-488,63,39,483,541
805,-219,-1024,-292,915,-622,-1122,-448,9,-48,409,478
810,-219,-1029,-295,919,-624,-956,-395,-68,-165,312,405
810,-229,-1039,-290,924,-634,-805,-351,-190,-297,200,331
785,-248,-1034,-268,910,-641,-717,-336,-331,-424,87,253
761,-258,-1019,-251,890,-639,-673,-326,-439,-522,14,204
732,-273,-1005,-229,868,-639,-673,-370,-522,-610,-58,151
668,-283,-951,-192,810,-617,-673,-414,-566,-688,-131,92
614,-283,-897,-165,756,-590,-658,-429,-575,-741,-185,58
556,-283,-839,-136,697,-561,-619,-409,-556,-751,-200,34
463,-287,-751,-87,607,-519,-566,-419,-556,-761,-219,9
385,-278,-663,-53,524,-470,-551,-488,-605,-805,-263,-29
390,-248,-639,-70,514,-444,-561,-531,-668,-849,-312,-82
424,-229,-653,-97,539,-441,-551,-522,-692,-858,-341,-112
429,-229,-658,-100,544,-444,-517,-502,-673,-858,-346,-117
414,-234,-649,-90,531,-441,-502,-492,-658,-844,-351,-136
390,-224,-614,-82,502,-419,-473,-488,-639,-834,-351,-151
322,-219,-541,-51,431,-380,-429,-473,-619,-824,-361,-165
263,-195,-458,-34,361,-326,-395,-458,-590,-795,-351,-180
204,-185,-390,-9,297,-287,-346,-429,-541,-756,-326,-180
161,-190,-351,14,256,-270,-292,-380,-483,-717,-302,-161
131,-185,-317,26,224,-251,-239,-326,-424,-678,-292,-161
92,-161,-253,34,173,-207,-195,-263,-370,-653,-283,-151
82,-117,-200,17,141,-158,-161,-209,-322,-624,-273,-156
92,-73,-165,-9,129,-119,-126,-165,-292,-605,-253,-165
92,-48,-141,-21,117,-95,-102,-126,-248,-561,-229,-151
78,-43,-122,-17,100,-82,-68,-78,-190,-502,-185,-131
58,-43,-102,-7,80,-73,-48,-48,-141,-458,-141,-102
68,-39,-107,-14,87,-73,-4,-19,-92,-419,-117,-73
78,-19,-97,-29,87,-58,39,14,-63,-400,-97,-58
78,-29,-107,-24,92,-68,58,48,-48,-414,-107,-63
53,-63,-117,4,85,-90,73,68,-43,-424,-117,-73
34,-78,-112,21,73,-95,82,87,-43,-424,-117,-63
34,-78,-112,21,73,-95,82,92,-43,-414,-117,-68
24,-78,-102,26,63,-90,87,92,-34,-405,-112,-73
14,-73,-87,29,51,-80,107,92,-29,-405,-112,-78
-9,-68,-58,39,24,-63,107,87,-19,-400,-112,-82
-39,-53,-14,46,-12,-34,112,87,-4,-390,-107,-78
-48,-53,-4,51,-21,-29,117,87,0,-380,-102,-73
-58,-48,9,53,-34,-19,112,87,0,-375,-102,-73
-68,-48,19,58,-43,-14,112,87,0,-366,-97,-68
-19,-39,-19,29,0,-29,87,82,-9,-385,-112,-73
14,-43,-58,14,36,-51,82,78,-19,-395,-122,-82
24,-48,-73,12,48,-61,82,78,-29,-400,-126,-87
34,-48,-82,7,58,-65,82,73,-34,-400,-126,-92
34,-43,-78,4,56,-61,82,63,-29,-390,-136,-102
29,-39,-68,4,48,-53,87,63,-29,-380,-131,-97
24,-34,-58,4,41,-46,87,68,-24,-375,-126,-87
24,-24,-48,0,36,-36,87,68,-19,-375,-126,-87
19,-14,-34,-2,26,-24,92,73,-14,-370,-122,-78
4,-24,-29,9,17,-26,97,78,-9,-370,-117,-78
-4,-29,-24,17,9,-26,102,87,-4,-366,-112,-78
-19,-29,-9,24,-4,-19,107,92,0,-361,-107,-78
-14,-43,-29,29,7,-36,107,78,-9,-356,-107,-78
-19,-39,-19,29,0,-29,107,78,-14,-356,-107,-78
-24,-39,-14,31,-4,-26,112,78,-14,-356,-107,-78
-19,-39,-19,29,0,-29,122,82,-9,-351,-97,-78
-29,-29,0,29,-14,-14,122,87,4,-341,-87,-68
-24,-29,-4,26,-9,-17,122,92,4,-346,-87,-63
-43,-34,9,39,-26,-12,122,97,4,-346,-92,-63
-53,-34,19,43,-36,-7,122,102,4,-346,-92,-63
-39,-19,19,29,-29,0,112,92,-4,-346,-102,-63
-34,-14,19,24,-26,2,112,87,-4,-341,-102,-68
-29,-14,14,21,-21,0,117,82,-4,-341,-97,-68
-24,-9,14,17,-19,2,117,78,-4,-341,-97,-68
-34,-9,24,21,-29,7,117,82,4,-331,-87,-58
-48,-9,39,29,-43,14,117,82,4,-331,-82,-53
-63,-9,53,36,-58,21,122,82,4,-331,-78,-53
-73,-19,53,46,-63,17,126,87,4,-322,-78,-53
-97,-19,78,58,-87,29,131,92,19,-307,-73,-48
-102,-14,87,58,-95,36,136,97,19,-307,-73,-43
-117,-14,102,65,-109,43,141,97,14,-307,-68,-43
-126,-14,112,70,-119,48,146,102,9,-302,-63,-39
-68,-19,48,43,-58,14,122,82,0,-322,-87,-58
-19,-19,0,19,-9,-9,112,73,-9,-331,-97,-63
19,-14,-34,-2,26,-24,102,63,-19,-331,-102,-73
68,-14,-82,-26,75,-48,102,58,-24,-336,-112,-82
53,-9,-63,-21,58,-36,102,48,-24,-336,-102,-73
53,-9,-63,-21,58,-36,102,43,-24,-336,-102,-78
53,-9,-63,-21,58,-36,102,43,-24,-336,-102,-78
53,-9,-63,-21,58,-36,102,39,-29,-341,-102,-78
48,0,-48,-24,48,-24,107,48,-29,-336,-97,-68
34,0,-34,-17,34,-17,122,53,-24,-326,-92,-63
19,0,-19,-9,19,-9,136,53,-19,-322,-87,-63
9,0,-9,-4,9,-4,141,58,-19,-317,-82,-63
-14,0,14,7,-14,7,146,68,-9,-317,-82,-63
-34,9,43,12,-39,26,146,68,-14,-317,-82,-63
-48,9,58,19,-53,34,146,68,-14,-312,-82,-63
-48,4,53,21,-51,29,146,68,-14,-307,-82,-68
-43,-4,39,24,-41,17,161,58,-14,-307,-97,-82
-43,-4,39,24,-41,17,161,63,-14,-307,-102,-82
-68,-4,63,36,-65,29,165,63,-14,-307,-107,-82
-73,-4,68,39,-70,31,175,68,-14,-302,-112,-78
-87,-4,82,46,-85,39,180,68,0,-302,-102,-73
-107,-9,97,58,-102,43,190,68,4,-302,-102,-68
-107,-19,87,63,-97,34,195,82,4,-302,-102,-63
-102,-9,92,56,-97,41,195,73,0,-302,-112,-63
-82,-9,73,46,-78,31,185,63,-19,-312,-117,-68
-73,-9,63,41,-68,26,190,58,-19,-317,-122,-73
-63,-9,53,36,-58,21,190,48,-19,-322,-122,-78
-53,-9,43,31,-48,17,200,43,-24,-322,-122,-78
-53,0,53,26,-53,26,214,48,-24,-312,-122,-82
-73,-4,68,39,-70,31,224,48,-14,-307,-117,-87
-82,-4,78,43,-80,36,234,48,-14,-297,-117,-87
-87,-9,78,48,-82,34,234,53,-14,-292,-122,-92
-112,-4,107,58,-109,51,258,58,0,-287,-107,-78
-131,0,131,65,-131,65,263,63,0,-278,-107,-78
-151,29,180,61,-165,104,273,63,0,-273,-107,-82
-146,24,170,61,-158,97,278,68,0,-268,-102,-82
-122,14,136,53,-129,75,283,63,-19,-273,-117,-97
-126,9,136,58,-131,73,283,53,-19,-278,-122,-102
-122,9,131,56,-126,70,287,48,-19,-287,-122,-107
-126,4,131,61,-129,68,302,43,-19,-287,-122,-107
-131,-4,126,68,-129,61,297,39,-29,-287,-126,-117
-136,-4,131,70,-134,63,312,39,-29,-287,-131,-117
-151,-4,146,78,-148,70,322,39,-29,-287,-136,-117
-146,-4,141,75,-143,68,322,39,-29,-287,-141,-122
-151,9,161,70,-156,85,346,48,-24,-287,-131,-112
-151,9,161,70,-156,85,351,48,-24,-287,-136,-122
-156,9,165,73,-161,87,356,43,-29,-287,-141,-126
-156,19,175,68,-165,97,370,43,-29,-292,-146,-126
-165,9,175,78,-170,92,380,53,-24,-287,-136,-126
-175,9,185,82,-180,97,380,53,-29,-283,-136,-131
-180,9,190,85,-185,100,380,53,-24,-283,-136,-126
-190,9,200,90,-195,104,385,53,-24,-283,-131,-126
-180,9,190,85,-185,100,390,48,-34,-283,-136,-146
-175,9,185,82,-180,97,405,53,-29,-283,-136,-136
-185,9,195,87,-190,102,409,48,-29,-278,-141,-131
-185,9,195,87,-190,102,414,43,-24,-278,-141,-126
-209,9,219,100,-214,114,429,58,-19,-263,-122,-112
-219,9,229,104,-224,119,429,63,-14,-253,-117,-107
-234,9,244,112,-239,126,434,68,-9,-244,-112,-102
-248,9,258,119,-253,134,439,68,-4,-239,-107,-97
-239,19,258,109,-248,139,439,63,-14,-234,-112,-107
-239,24,263,107,-251,143,434,58,-9,-229,-112,-102
-229,24,253,102,-241,139,429,53,-4,-229,-112,-102
-214,24,239,95,-226,131,414,48,-4,-229,-117,-102
-190,19,209,85,-200,114,400,43,-9,-244,-122,-112
-170,14,185,78,-178,100,395,39,-9,-244,-122,-112
-141,9,151,65,-146,80,385,39,-9,-234,-122,-112
-112,9,122,51,-117,65,370,34,-9,-224,-122,-117
-117,24,141,46,-129,82,370,43,-4,-214,-117,-102
-126,24,151,51,-139,87,370,48,14,-204,-107,-97
-126,24,151,51,-139,87,370,53,24,-200,-92,-87
-122,24,146,48,-134,85,361,58,34,-195,-82,-78
-117,14,131,51,-124,73,346,63,39,-175,-73,-58
-112,9,122,51,-117,65,336,68,43,-165,-63,-48
-112,4,117,53,-114,61,331,82,48,-151,-48,-34
-112,0,112,56,-112,56,317,87,63,-136,-34,-29
-122,9,131,56,-126,70,307,97,63,-126,-29,-19
-136,9,146,63,-141,78,292,102,68,-122,-19,-4
-156,4,161,75,-158,82,287,107,73,-112,-9,0
-170,4,175,82,-173,90,263,107,78,-107,-4,4
-141,14,156,63,-148,85,248,102,68,-102,-14,0
-107,14,122,46,-114,68,229,97,68,-102,-14,0
-82,14,97,34,-90,56,214,92,68,-102,-9,-4
-48,4,53,21,-51,29,190,87,63,-112,-9,-4
-24,-4,19,14,-21,7,175,73,53,-122,-19,-14
4,4,0,-4,2,2,156,73,39,-126,-24,-14
14,4,-9,-9,12,-2,141,68,29,-126,-29,-9
24,0,-24,-12,24,-12,141,68,24,-122,-24,-9
9,-9,-19,0,14,-14,126,73,39,-102,-9,9
0,-9,-9,4,4,-9,117,73,39,-102,-9,19
-4,-9,-4,7,0,-7,107,73,39,-102,-4,24
-9,-9,0,9,-4,-4,102,73,43,-92,4,29
-4,0,4,2,-4,2,97,82,43,-82,24,29
0,-9,-9,4,4,-9,92,73,43,-87,14,29
9,-9,-19,0,14,-14,82,68,34,-92,0,24
24,-9,-34,-7,29,-21,78,63,29,-102,-4,19
14,-24,-39,4,26,-31,73,68,29,-92,0,29
-9,-24,-14,17,2,-19,78,68,34,-87,4,29
-24,-9,14,17,-19,2,78,63,43,-78,14,43
-34,-19,14,26,-24,-2,82,63,48,-73,19,43
-19,-34,-14,26,-2,-24,73,58,34,-78,9,29
-4,-34,-29,19,12,-31,63,48,19,-82,9,24
9,-34,-43,12,26,-39,63,43,14,-87,9,24
24,-34,-58,4,41,-46,58,39,9,-87,9,29
24,-29,-53,2,39,-41,53,29,9,-97,0,19
24,-24,-48,0,36,-36,43,29,4,-97,-4,14
19,-24,-43,2,31,-34,39,29,4,-97,-4,14
19,-19,-39,0,29,-29,34,24,4,-97,-4,19
4,-19,-24,7,14,-21,48,34,14,-82,9,34
-9,-19,-9,14,0,-14,48,34,19,-82,14,29
-29,-19,9,24,-19,-4,53,43,24,-78,19,34
-48,-19,29,34,-39,4,68,53,29,-73,19,39
-39,-34,4,36,-21,-14,63,48,19,-82,4,29
-29,-34,-4,31,-12,-19,58,43,19,-82,4,29
-14,-34,-19,24,2,-26,53,39,19,-82,4,24
-4,-34,-29,19,12,-31,48,34,19,-82,4,24
-29,-24,4,26,-17,-9,53,39,29,-78,4,39
-39,-24,14,31,-26,-4,58,43,29,-78,4,39
-48,-24,24,36,-36,0,63,48,29,-78,4,34
-53,-24,29,39,-41,2,68,48,29,-73,0,29
-48,-9,39,29,-43,14,58,48,19,-82,-9,24
-43,-4,39,24,-41,17,58,48,14,-87,-9,19
-39,0,39,19,-39,19,58,48,14,-92,-9,14
-53,4,58,24,-56,31,63,48,19,-92,-9,9
-34,0,34,17,-34,17,58,43,9,-102,-24,4
-19,-4,14,12,-17,4,58,39,9,-102,-24,0
0,-9,-9,4,4,-9,58,34,9,-102,-24,-4
34,-14,-48,-9,41,-31,58,29,14,-92,-24,-9
39,-14,-53,-12,46,-34,48,19,14,-102,-29,-14
48,-14,-63,-17,56,-39,39,14,9,-107,-34,-19
43,-19,-63,-12,53,-41,48,14,9,-107,-34,-19
34,-19,-53,-7,43,-36,48,14,14,-112,-29,-19
19,-9,-29,-4,24,-19,58,9,24,-112,-19,-14
9,-9,-19,0,14,-14,58,14,24,-107,-29,-14
-4,-14,-9,9,2,-12,58,29,24,-107,-29,-14
-19,-14,4,17,-12,-4,63,34,24,-107,-24,-9
-53,-4,48,29,-51,21,73,53,39,-92,-14,4
-73,4,78,34,-75,41,82,58,48,-82,-4,4
-87,14,102,36,-95,58,92,63,63,-63,4,9
-97,19,117,39,-107,68,112,68,73,-53,9,14
-58,14,73,21,-65,43,87,48,58,-58,-9,0
-19,14,34,2,-26,24,73,43,48,-73,-19,-4
0,14,14,-7,-7,14,68,39,39,-78,-24,-9
9,14,4,-12,2,9,68,34,29,-78,-29,-14
9,4,-4,-7,7,0,58,24,19,-78,-24,-24
19,4,-14,-12,17,-4,58,24,19,-78,-24,-24
24,4,-19,-14,21,-7,58,24,19,-78,-24,-29
29,4,-24,-17,26,-9,58,24,19,-78,-19,-29
4,4,0,-4,2,2,58,34,24,-73,-4,-19
0,4,4,-2,-2,4,63,39,29,-68,-4,-19
-9,0,9,4,-9,4,73,43,34,-63,4,-14
-14,0,14,7,-14,7,82,48,43,-53,9,-14
-29,0,29,14,-29,14,82,48,48,-53,9,-4
-29,-4,24,17,-26,9,82,48,48,-53,4,-4
-29,-9,19,19,-24,4,73,48,48,-53,4,-9
-24,-14,9,19,-17,-2,68,43,48,-63,4,-9
-19,-9,9,14,-14,0,58,39,34,-73,0,-19
-14,-4,9,9,-12,2,58,39,34,-63,-4,-14
-4,0,4,2,-4,2,58,34,29,-53,-9,-14
14,4,-9,-9,12,-2,58,29,24,-53,-14,-14
-9,-4,4,7,-7,0,63,29,24,-48,-9,-4
-19,-4,14,12,-17,4,58,34,29,-48,-4,-9
-19,4,24,7,-21,14,63,29,34,-53,-4,-9
-34,9,43,12,-39,26,63,34,34,-53,0,-9
-48,9,58,19,-53,34,58,39,29,-53,4,-9
-43,9,53,17,-48,31,58,39,24,-53,0,-9
-48,4,53,21,-51,29,58,39,24,-53,-4,-9
-58,4,63,26,-61,34,58,43,24,-48,-4,-14
-73,-4,68,39,-70,31,63,53,34,-34,4,0
-87,-4,82,46,-85,39,68,53,39,-34,9,4
-82,-4,78,43,-80,36,73,53,48,-29,14,14
-87,-4,82,46,-85,39,82,53,53,-29,19,19
-97,0,97,48,-97,48,82,53,53,-29,14,9
-102,4,107,48,-104,56,78,53,48,-29,14,14
-107,4,112,51,-109,58,78,53,43,-34,14,14
-107,9,117,48,-112,63,78,53,43,-43,14,9
-68,24,92,21,-80,58,53,39,34,-58,-9,0
-34,24,58,4,-46,41,34,29,24,-68,-19,-9
-9,14,24,-2,-17,19,34,19,19,-78,-29,-19
9,14,4,-12,2,9,24,9,14,-87,-39,-29
4,19,14,-12,-4,17,24,9,24,-73,-29,-19
-9,19,29,-4,-19,24,24,9,24,-73,-29,-9
-24,14,39,4,-31,26,34,19,24,-63,-19,-4
-29,14,43,7,-36,29,34,19,24,-63,-19,-4
-34,29,63,2,-48,46,43,24,34,-48,-24,4
-24,34,58,-4,-41,46,39,19,29,-48,-19,0
-14,34,48,-9,-31,41,24,9,29,-53,-14,-4
-14,29,43,-7,-29,36,24,9,29,-53,-9,-4
14,39,24,-26,-4,31,14,9,24,-53,-9,-14
39,58,19,-48,9,39,-9,-9,9,-68,-19,-19
24,53,29,-39,-2,41,0,0,14,-63,-9,-9
19,48,29,-34,-4,39,0,0,19,-58,-9,-9
14,43,29,-29,-7,36,0,0,24,-53,-9,-9
9,39,29,-24,-9,34,0,0,29,-48,-9,-9
4,48,43,-26,-19,46,-4,0,19,-53,-9,-4
19,48,29,-34,-4,39,-14,-4,19,-53,-4,-9
14,63,48,-39,-17,56,-19,-4,19,-48,0,-19
9,63,53,-36,-21,58,-29,-9,24,-48,0,-24
0,53,53,-26,-26,53,-24,0,34,-34,14,-9
-9,53,63,-21,-36,58,-19,4,34,-29,14,-9
-4,53,58,-24,-31,56,-24,4,29,-24,14,-14
-4,53,58,-24,-31,56,-24,-4,19,-29,0,-19
-9,53,63,-21,-36,58,-14,-4,24,-24,0,-19
-4,58,63,-26,-34,61,-9,-4,24,-24,4,-14
-9,58,68,-24,-39,63,-9,0,24,-19,19,-4
-19,58,78,-19,-48,68,-9,0,29,-19,29,9
-9,53,63,-21,-36,58,-19,0,24,-14,24,0
4,53,48,-29,-21,51,-19,-4,24,-19,19,-4
29,63,34,-46,-2,48,-24,-9,19,-24,9,-9
48,48,0,-48,24,24,-24,-14,9,-29,4,-14
68,34,-34,-51,51,0,-24,-9,19,-24,4,-4
68,29,-39,-48,53,-4,-24,-9,14,-24,9,-4
48,29,-19,-39,34,4,-34,-9,14,-19,14,-4
29,19,-9,-24,19,4,-24,-9,14,-9,24,0
24,24,0,-24,12,12,-34,-9,4,-9,24,-9
24,34,9,-29,7,21,-34,-9,4,-9,24,-9
24,43,19,-34,2,31,-34,-9,0,-9,24,-14
29,43,14,-36,7,29,-34,-9,0,-9,29,-14
29,39,9,-34,9,24,-24,4,9,-4,34,-4
14,39,24,-26,-4,31,-19,9,19,0,39,0
9,39,29,-24,-9,34,-14,14,24,4,43,4
4,34,29,-19,-12,31,-19,29,29,9,48,4
19,53,34,-36,-7,43,-19,19,39,19,53,14
19,53,34,-36,-7,43,-9,19,43,24,53,14
14,48,34,-31,-9,41,-9,19,43,24,53,24
4,48,43,-26,-19,46,-9,14,39,19,48,14
14,48,34,-31,-9,41,-14,4,34,4,39,9
9,39,29,-24,-9,34,-9,0,29,0,29,-4
-34,24,58,4,-46,41,4,0,24,-4,24,-14
-34,19,53,7,-43,36,4,-4,14,-9,14,-29
-29,19,48,4,-39,34,14,0,0,-29,4,-48
-9,19,29,-4,-19,24,9,-4,-14,-34,-9,-53
-4,14,19,-4,-12,17,9,-4,-14,-39,-14,-53
-4,14,19,-4,-12,17,9,-4,-14,-48,-19,-53
-14,4,19,4,-17,12,4,-4,0,-39,-9,-43
-34,-9,24,21,-29,7,14,4,4,-34,-4,-39
-48,-14,34,31,-41,9,19,9,4,-29,0,-39
-63,-19,43,41,-53,12,19,9,4,-24,0,-39
-58,-4,53,31,-56,24,9,0,-4,-34,-4,-48
-58,-4,53,31,-56,24,9,4,0,-34,-4,-48
-68,-9,58,39,-63,24,19,14,4,-34,-4,-43
-63,-9,53,36,-58,21,19,14,4,-34,-4,-43
-73,-4,68,39,-70,31,24,19,9,-34,0,-34
-68,-4,63,36,-65,29,34,24,14,-29,0,-34
-87,-4,82,46,-85,39,43,29,14,-29,9,-29
-117,-9,107,63,-112,48,53,34,24,-19,19,-24
-107,0,107,53,-107,53,43,19,14,-29,9,-29
-97,-4,92,51,-95,43,34,14,9,-34,0,-39
-78,-4,73,41,-75,34,19,-4,0,-39,-14,-43
-63,-4,58,34,-61,26,9,0,-4,-43,-24,-48
-19,-4,14,12,-17,4,0,-4,-19,-58,-29,-58
-9,-4,4,7,-7,0,0,-9,-24,-58,-34,-63
9,-4,-14,-2,12,-9,0,-14,-24,-63,-34,-63
34,-9,-43,-12,39,-26,0,-14,-24,-58,-34,-68
9,-19,-29,4,19,-24,9,0,-14,-53,-19,-63
-4,-19,-14,12,4,-17,14,0,-9,-48,-19,-58
-14,-19,-4,17,-4,-12,24,0,-9,-43,-24,-53
-24,-14,9,19,-17,-2,24,0,-4,-43,-24,-48
-19,-4,14,12,-17,4,24,0,-4,-53,-24,-58
-19,-14,4,17,-12,-4,24,4,-4,-48,-24,-53
-19,-4,14,12,-17,4,24,4,0,-43,-19,-53
-24,-4,19,14,-21,7,24,4,0,-43,-19,-53
-39,-14,24,26,-31,4,34,9,9,-34,-9,-43
-48,-19,29,34,-39,4,34,9,9,-29,-4,-39
-43,-19,24,31,-34,2,29,14,9,-24,0,-34
-73,-24,48,48,-61,12,29,19,9,-19,0,-29
-53,-19,34,36,-43,7,29,14,0,-19,0,-39
-34,-19,14,26,-24,-2,29,9,0,-19,0,-39
-14,-19,-4,17,-4,-12,29,4,0,-19,0,-39
-14,-19,-4,17,-4,-12,24,-4,0,-29,-9,-43
-43,0,43,21,-43,21,34,0,9,-24,0,-43
-48,0,48,24,-48,24,34,0,9,-14,0,-39
-39,0,39,19,-39,19,34,4,9,-9,4,-34
-34,4,39,14,-36,21,29,4,9,-4,4,-29
-4,24,29,-9,-17,26,14,-9,9,-14,-4,-43
-9,14,24,-2,-17,19,24,0,24,4,0,-29
-29,14,43,7,-36,29,19,9,48,34,29,-24
-39,24,63,7,-51,43,19,9,78,53,48,-4
-39,43,82,-2,-61,63,9,14,112,82,68,14
-29,68,97,-19,-63,82,-24,-4,136,112,82,29
-9,82,92,-36,-51,87,-82,-24,156,141,112,53
14,117,102,-65,-43,109,-165,-39,185,185,161,92
39,146,107,-92,-34,126,-229,-39,204,219,195,107
53,156,102,-104,-24,129,-287,-68,185,248,214,131
58,185,126,-122,-34,156,-351,-122,131,263,244,146
82,229,146,-156,-31,187,-453,-190,82,268,239,141
136,263,126,-200,4,195,-585,-234,73,278,253,156
195,292,97,-244,48,195,-692,-239,63,326,297,204
278,302,24,-290,126,163,-829,-229,29,390,366,263
366,322,-43,-344,204,139,-1000,-185,48,473,439,336
458,341,-117,-400,287,112,-1146,-87,136,580,527,414
551,366,-185,-458,368,90,-1283,-19,219,688,624,483
639,380,-258,-509,448,61,-1493,-78,229,766,697,546
683,380,-302,-531,492,39,-1703,-239,195,834,775,619
722,341,-380,-531,551,-19,-1834,-370,165,888,844,692
741,297,-444,-519,592,-73,-1932,-439,185,946,917,761
741,229,-512,-485,627,-141,-1995,-473,234,985,971,814
741,102,-639,-422,690,-268,-1976,-492,214,936,961,824
780,-9,-790,-385,785,-400,-1917,-531,126,790,849,766
829,-58,-888,-385,858,-473,-1820,-590,19,619,727,683
854,-112,-966,-370,910,-539,-1659,-624,-24,531,653,619
814,-161,-976,-326,895,-568,-1473,-614,-19,492,619,600
761,-170,-932,-295,846,-551,-1283,-556,-34,439,580,570
766,-170,-936,-297,851,-553,-1112,-488,-97,351,497,517
800,-170,-971,-314,885,-570,-966,-463,-195,224,390,434
810,-161,-971,-324,890,-566,-863,-468,-297,112,297,361
795,-170,-966,-312,880,-568,-805,-463,-409,-4,195,283
771,-190,-961,-290,866,-575,-771,-453,-468,-92,122,234
702,-204,-907,-248,805,-556,-751,-468,-492,-161,78,190
610,-214,-824,-197,717,-519,-732,-502,-507,-229,4,131
546,-195,-741,-175,644,-468,-697,-517,-517,-302,-68,68
517,-175,-692,-170,605,-434,-658,-488,-497,-322,-102,43
473,-190,-663,-141,568,-427,-634,-488,-527,-351,-131,9
463,-209,-673,-126,568,-441,-619,-536,-585,-414,-195,-39
458,-209,-668,-124,563,-439,-619,-570,-658,-468,-253,-82
405,-219,-624,-92,514,-422,-600,-551,-673,-488,-283,-112
361,-229,-590,-65,475,-409,-546,-531,-653,-488,-297,-136
366,-204,-570,-80,468,-387,-512,-512,-629,-483,-302,-146
380,-175,-556,-102,468,-366,-492,-517,-610,-492,-312,-170
361,-190,-551,-85,456,-370,-468,-512,-600,-492,-331,-204
312,-195,-507,-58,409,-351,-434,-497,-570,-473,-322,-209
253,-146,-400,-53,326,-273,-375,-448,-531,-434,-307,-200
190,-102,-292,-43,241,-197,-322,-409,-473,-395,-283,-190
122,-97,-219,-12,170,-158,-268,-356,-424,-346,-263,-180
63,-92,-156,14,109,-124,-224,-302,-361,-302,-234,-170
4,-97,-102,46,53,-100,-161,-239,-312,-283,-214,-156
-34,-102,-68,68,17,-85,-107,-185,-253,-253,-195,-146
-34,-78,-43,56,4,-61,-82,-146,-209,-229,-170,-141
-29,-53,-24,41,-2,-39,-48,-97,-161,-190,-136,-122
-58,-43,14,51,-36,-14,0,-39,-92,-126,-92,-92
-87,-29,58,58,-73,14,43,9,-43,-78,-58,-63
-97,-19,78,58,-87,29,68,43,-24,-58,-48,-48
-97,-29,68,63,-82,19,97,68,-9,-43,-48,-53
-92,-43,48,68,-70,2,112,78,-4,-53,-48,-53
-82,-39,43,61,-63,2,112,68,-14,-73,-68,-82
-92,-29,63,61,-78,17,122,68,0,-73,-68,-92
-102,-29,73,65,-87,21,126,73,14,-63,-63,-92
-112,-24,87,68,-100,31,146,78,24,-63,-63,-92
-136,-19,117,78,-126,48,146,78,39,-58,-63,-92
-136,-14,122,75,-129,53,146,82,29,-53,-58,-78
-126,-14,112,70,-119,48,146,78,29,-48,-53,-73
-117,-9,107,63,-112,48,136,73,24,-48,-53,-73
-107,-9,97,58,-102,43,131,68,19,-43,-48,-68
-82,-9,73,46,-78,31,131,58,9,-58,-53,-73
-63,-14,48,39,-56,17,131,58,9,-63,-63,-82
-68,-19,48,43,-58,14,136,63,9,-63,-68,-87
-73,-19,53,46,-63,17,141,63,14,-58,-68,-92
-78,-29,48,53,-63,9,131,58,9,-53,-78,-97
-78,-29,48,53,-63,9,136,53,9,-48,-73,-97
-78,-29,48,53,-63,9,136,53,14,-48,-68,-92
-73,-24,48,48,-61,12,136,48,19,-53,-68,-97
-78,-29,48,53,-63,9,141,63,24,-43,-63,-82
-92,-43,48,68,-70,2,146,68,29,-48,-58,-78
-102,-53,48,78,-75,-2,151,78,34,-48,-53,-73
-117,-58,58,87,-87,0,156,82,39,-48,-48,-68
-117,-53,63,85,-90,4,156,87,48,-43,-48,-68
-126,-39,87,82,-107,24,156,87,43,-43,-48,-68
-136,-29,107,82,-122,39,161,87,43,-43,-48,-68
-136,-19,117,78,-126,48,170,92,48,-39,-39,-68
-136,-9,126,73,-131,58,161,82,53,-29,-39,-78
-122,-9,112,65,-117,51,161,82,53,-34,-39,-73
-131,-14,117,73,-124,51,161,82,53,-34,-43,-73
-131,-14,117,73,-124,51,161,82,53,-34,-43,-73
-126,-19,107,73,-117,43,151,68,53,-43,-53,-82
-122,-14,107,68,-114,46,151,68,53,-39,-53,-87
-117,-14,102,65,-109,43,156,68,53,-39,-48,-87
-112,-9,102,61,-107,46,156,68,53,-39,-48,-87
-107,-9,97,58,-102,43,146,53,43,-48,-58,-78
-107,-9,97,58,-102,43,146,53,43,-48,-53,-73
-107,-9,97,58,-102,43,151,53,43,-48,-48,-73
-102,-19,82,61,-92,31,156,58,43,-39,-48,-73
-92,-9,82,51,-87,36,151,53,34,-43,-58,-78
-63,-4,58,34,-61,26,146,48,29,-53,-63,-82
-43,-4,39,24,-41,17,141,39,19,-63,-63,-92
-19,-4,14,12,-17,4,136,34,9,-68,-63,-97
-39,9,48,14,-43,29,136,39,14,-73,-58,-87
-58,9,68,24,-63,39,141,43,19,-68,-58,-82
-87,14,102,36,-95,58,146,48,24,-53,-53,-82
-107,14,122,46,-114,68,161,58,34,-43,-53,-82
-136,4,141,65,-139,73,165,73,39,-39,-43,-68
-151,0,151,75,-151,75,170,73,43,-34,-34,-68
-165,-4,161,85,-163,78,175,78,48,-29,-24,-63
-180,-9,170,95,-175,80,180,78,48,-29,-14,-58
-161,-19,141,90,-151,61,180,68,39,-39,-24,-63
-161,-19,141,90,-151,61,190,73,43,-34,-24,-63
-161,-19,141,90,-151,61,200,73,48,-34,-24,-68
-156,-19,136,87,-146,58,200,78,48,-34,-24,-73
-136,-9,126,73,-131,58,200,68,39,-48,-29,-82
-131,0,131,65,-131,65,195,68,34,-53,-34,-82
-122,0,122,61,-122,61,190,68,34,-53,-39,-82
-97,-4,92,51,-95,43,185,68,34,-53,-43,-87
-117,-4,112,61,-114,53,195,78,39,-53,-43,-82
-131,-4,126,68,-129,61,200,82,43,-53,-43,-82
-170,-4,165,87,-168,80,209,82,48,-53,-43,-82
-190,-4,185,97,-187,90,224,87,53,-48,-43,-78
-185,4,190,90,-187,97,219,87,53,-48,-53,-87
-185,0,185,92,-185,92,229,87,53,-48,-53,-87
-165,-9,156,87,-161,73,234,102,48,-48,-53,-87
-141,0,141,70,-141,70,234,92,39,-48,-63,-92
-146,9,156,68,-151,82,244,87,29,-58,-58,-97
-141,9,151,65,-146,80,248,87,29,-63,-63,-102
-136,9,146,63,-141,78,248,82,29,-68,-63,-107
-131,9,141,61,-136,75,258,82,24,-68,-63,-107
-146,0,146,73,-146,73,263,97,24,-63,-63,-107
-170,-14,156,92,-163,70,273,97,34,-63,-58,-107
-185,-24,161,104,-173,68,283,97,34,-58,-58,-102
-195,-39,156,117,-175,58,283,102,34,-58,-63,-102
-195,-29,165,112,-180,68,297,92,34,-68,-73,-112
-200,-19,180,109,-190,80,302,92,29,-63,-78,-117
-204,14,219,95,-212,117,312,87,24,-63,-82,-126
-185,14,200,85,-192,107,317,87,19,-63,-82,-131
-185,0,185,92,-185,92,336,102,24,-53,-82,-131
-204,0,204,102,-204,102,341,102,29,-53,-82,-131
-214,4,219,104,-217,112,351,107,34,-58,-78,-131
-234,4,239,114,-236,122,370,112,39,-53,-73,-126
-234,-4,229,119,-231,112,361,112,24,-68,-87,-131
-234,-4,229,119,-231,112,370,107,19,-73,-92,-136
-244,-4,239,124,-241,117,375,102,14,-78,-97,-141
-234,-4,229,119,-231,112,370,97,9,-82,-102,-151
-244,-4,239,124,-241,117,390,112,19,-78,-87,-146
-258,-9,248,134,-253,119,400,117,24,-73,-87,-151
-278,-14,263,146,-270,124,409,117,24,-68,-87,-151
-292,-9,283,151,-287,136,429,122,29,-68,-87,-146
-268,0,268,134,-268,134,424,107,19,-82,-107,-165
-253,0,253,126,-253,126,419,102,0,-87,-117,-180
-234,0,234,117,-234,117,414,97,-9,-97,-126,-185
-219,0,219,109,-219,109,414,92,-24,-107,-131,-195
-204,9,214,97,-209,112,414,78,-34,-117,-141,-204
-195,9,204,92,-200,107,424,82,-29,-117,-136,-195
-200,9,209,95,-204,109,424,78,-29,-112,-136,-190
-195,9,204,92,-200,107,424,73,-24,-112,-131,-185
-209,9,219,100,-214,114,444,87,-19,-97,-122,-175
-219,9,229,104,-224,119,448,92,-14,-87,-117,-175
-234,9,244,112,-239,126,458,97,-9,-78,-112,-175
-248,9,258,119,-253,134,468,97,-4,-73,-107,-175
-263,9,273,126,-268,141,483,102,9,-63,-102,-161
-287,14,302,136,-295,158,483,107,19,-53,-92,-151
-302,14,317,143,-309,165,483,112,29,-48,-82,-146
-312,14,326,148,-319,170,473,117,34,-43,-78,-141
-292,14,307,139,-300,161,468,107,29,-58,-87,-151
-278,14,292,131,-285,153,463,107,29,-58,-82,-151
-253,14,268,119,-261,141,453,112,29,-48,-78,-151
-229,19,248,104,-239,134,439,112,29,-39,-73,-156
-224,19,244,102,-234,131,419,107,19,-48,-82,-146
-224,14,239,104,-231,126,409,107,34,-39,-78,-146
-214,9,224,102,-219,117,400,107,39,-34,-68,-141
-200,4,204,97,-202,104,380,107,43,-29,-63,-136
-209,14,224,97,-217,119,370,117,58,-19,-53,-117
-219,19,239,100,-229,129,366,117,63,-9,-43,-107
-234,24,258,104,-246,141,366,126,68,4,-29,-92
-248,29,278,109,-263,153,356,126,82,19,-14,-87
-219,24,244,97,-231,134,331,122,78,9,-14,-87
-204,19,224,92,-214,122,312,122,78,14,-9,-73
-195,9,204,92,-200,107,302,122,78,24,-4,-68
-180,4,185,87,-183,95,273,117,78,29,-4,-63
-170,19,190,75,-180,104,278,102,78,43,0,-63
-156,24,180,65,-168,102,258,97,78,43,4,-58
-151,29,180,61,-165,104,244,92,78,43,14,-58
-136,24,161,56,-148,92,219,87,73,34,19,-53
-117,19,136,48,-126,78,200,82,68,34,14,-53
-92,24,117,34,-104,70,175,82,58,29,14,-53
-87,19,107,34,-97,63,156,78,53,29,14,-48
-82,9,92,36,-87,51,151,78,53,34,24,-48
-107,0,107,53,-107,53,156,97,68,68,53,-24
-136,0,136,68,-136,68,156,102,78,73,58,-9
-161,0,161,80,-161,80,156,107,87,78,68,0
-185,0,185,92,-185,92,161,112,102,92,82,9
-122,14,136,53,-129,75,136,97,78,68,73,-4
-78,9,87,34,-82,48,112,73,63,48,43,-19
-29,14,43,7,-36,29,82,53,39,29,9,-39
24,19,-4,-21,14,7,58,34,19,4,-14,-58
39,4,-34,-21,36,-14,43,19,4,-9,-24,-68
39,4,-34,-21,36,-14,39,19,4,-9,-24,-68
48,19,-29,-34,39,-4,29,14,9,-4,-19,-53
63,9,-53,-36,58,-21,24,14,9,-4,-19,-53
34,14,-19,-24,26,-2,43,29,19,4,0,-48
4,14,9,-9,-2,12,43,29,19,14,9,-43
-24,14,39,4,-31,26,53,34,29,24,19,-34
-53,14,68,19,-61,41,58,39,39,39,29,-19
-24,19,43,2,-34,31,43,14,24,24,14,-34
-14,24,39,-4,-26,31,34,9,14,19,4,-43
-9,24,34,-7,-21,29,29,4,9,14,0,-48
0,29,29,-14,-14,29,24,-4,4,9,-4,-48
-14,24,39,-4,-26,31,29,0,9,19,0,-43
-19,19,39,0,-29,29,29,-4,9,14,4,-48
-29,14,43,7,-36,29,34,0,9,14,9,-43
-39,9,48,14,-43,29,48,4,9,14,9,-39
-53,14,68,19,-61,41,48,14,19,14,4,-29
-58,14,73,21,-65,43,48,14,19,14,4,-29
-58,14,73,21,-65,43,48,14,19,14,4,-34
-63,14,78,24,-70,46,48,14,19,14,4,-34
-63,4,68,29,-65,36,53,14,29,19,14,-39
-58,4,63,26,-61,34,58,14,29,19,14,-39
-53,4,58,24,-56,31,63,14,29,19,14,-43
-43,4,48,19,-46,26,68,9,29,24,9,-48
-58,14,73,21,-65,43,78,19,39,24,9,-48
-63,14,78,24,-70,46,78,19,34,19,9,-48
-68,14,82,26,-75,48,78,19,34,14,9,-48
-92,14,107,39,-100,61,82,19,39,14,9,-48
-92,14,107,39,-100,61,87,9,29,14,4,-48
-97,14,112,41,-104,63,87,9,29,14,4,-48
-97,14,112,41,-104,63,87,9,29,14,4,-48
-82,14,97,34,-90,56,87,9,34,24,4,-48
-92,24,117,34,-104,70,87,19,34,14,0,-53
-87,24,112,31,-100,68,78,14,29,9,-4,-58
-97,19,117,39,-107,68,87,14,29,9,-4,-58
-112,19,131,46,-122,75,87,14,34,4,0,-58
-97,9,107,43,-102,58,82,0,29,0,-9,-73
-87,9,97,39,-92,53,78,-4,24,0,-19,-73
-82,4,87,39,-85,46,73,0,19,-4,-19,-73
-78,4,82,36,-80,43,73,-4,14,-9,-14,-68
-68,9,78,29,-73,43,68,-14,14,-24,-19,-73
-53,14,68,19,-61,41,63,-19,9,-24,-24,-82
-34,19,53,7,-43,36,58,-24,9,-14,-29,-87
-9,19,29,-4,-19,24,63,-29,4,-14,-39,-92
-9,4,14,2,-12,9,58,-29,9,-4,-39,-82
-9,4,14,2,-12,9,53,-24,9,-14,-39,-82
-29,4,34,12,-31,19,58,-19,9,-14,-34,-82
-58,4,63,26,-61,34,68,-14,9,-9,-29,-82
-78,9,87,34,-82,48,78,-9,19,0,-14,-78
-78,14,92,31,-85,53,78,-4,19,0,-14,-73
-82,19,102,31,-92,61,78,0,19,0,-14,-73
-87,24,112,31,-100,68,78,4,19,0,-9,-68
-97,19,117,39,-107,68,73,0,19,9,-4,-68
-97,14,112,41,-104,63,73,0,19,9,-4,-68
-102,4,107,48,-104,56,78,0,19,9,4,-63
-102,0,102,51,-102,51,82,0,24,14,9,-63
-97,14,112,41,-104,63,73,0,24,9,4,-73
-87,14,102,36,-95,58,73,0,19,4,-4,-73
-78,14,92,31,-85,53,63,0,14,0,-9,-78
-63,14,78,24,-70,46,58,-4,9,-14,-14,-78
-68,29,97,19,-82,63,53,-9,4,-29,-19,-87
-73,34,107,19,-90,70,48,-9,4,-24,-24,-82
-73,39,112,17,-92,75,43,-14,0,-19,-29,-82
-63,43,107,9,-85,75,39,-19,-4,-24,-34,-82
-73,29,102,21,-87,65,43,-9,4,-24,-19,-68
-78,24,102,26,-90,63,39,-4,9,-19,-14,-68
-73,29,102,21,-87,65,43,-9,14,-19,-14,-63
-82,29,112,26,-97,70,43,-4,14,-14,-9,-58
-78,34,112,21,-95,73,34,-14,4,-34,-29,-68
-53,29,82,12,-68,56,29,-19,-4,-34,-39,-78
-39,19,58,9,-48,39,24,-24,-9,-34,-48,-87
-29,14,43,7,-36,29,19,-24,-14,-29,-53,-102
-29,24,53,2,-41,39,14,-29,-19,-39,-48,-102
-29,24,53,2,-41,39,9,-34,-19,-43,-48,-102
-9,24,34,-7,-21,29,4,-39,-14,-43,-48,-97
0,24,24,-12,-12,24,4,-43,-14,-48,-48,-97
-24,24,48,0,-36,36,14,-34,0,-34,-39,-87
-53,24,78,14,-65,51,19,-24,0,-29,-34,-73
-82,19,102,31,-92,61,29,-14,0,-29,-29,-63
-107,19,126,43,-117,73,39,-4,4,-34,-24,-58
-87,14,102,36,-95,58,29,-24,0,-39,-34,-73
-63,14,78,24,-70,46,14,-29,-4,-39,-39,-78
-48,4,53,21,-51,29,19,-34,-4,-39,-43,-82
-39,4,43,17,-41,24,14,-39,-4,-39,-48,-87
-53,29,82,12,-68,56,14,-34,4,-24,-39,-78
-68,29,97,19,-82,63,14,-29,4,-24,-39,-68
-82,24,107,29,-95,65,24,-14,4,-14,-29,-63
-87,24,112,31,-100,68,24,-9,4,-14,-29,-63
-92,39,131,26,-112,85,29,-4,9,0,-34,-53
-92,43,136,24,-114,90,29,-9,9,0,-29,-58
-92,43,136,24,-114,90,19,-19,14,-4,-24,-63
-102,39,141,31,-122,90,24,-19,19,-4,-19,-63
-68,48,117,9,-92,82,9,-24,9,-14,-29,-68
-39,48,87,-4,-63,68,0,-34,4,-19,-29,-73
4,48,43,-26,-19,46,-4,-39,0,-19,-34,-78
14,48,34,-31,-9,41,-9,-39,0,-9,-34,-82
-14,58,73,-21,-43,65,-19,-39,0,0,-14,-73
-68,58,126,4,-97,92,-4,-29,19,0,-14,-73
-107,68,175,19,-141,122,0,-29,19,9,-9,-68
-117,68,185,24,-151,126,0,-29,19,19,0,-63
-117,68,185,24,-151,126,0,-29,19,19,0,-58
-117,68,185,24,-151,126,0,-29,19,19,0,-53
-117,68,185,24,-151,126,0,-29,19,19,0,-48
-102,58,161,21,-131,109,-4,-29,9,14,-9,-48
-78,58,136,9,-107,97,-14,-34,9,14,-4,-48
-73,73,146,0,-109,109,-19,-34,9,19,0,-53
-68,73,141,-2,-104,107,-29,-39,14,19,0,-53
-58,78,136,-9,-97,107,-29,-39,14,9,4,-58
-58,82,141,-12,-100,112,-29,-34,14,9,4,-58
-43,87,131,-21,-87,109,-39,-34,9,9,4,-63
-34,92,126,-29,-80,109,-43,-43,0,0,-9,-68
-14,92,107,-39,-61,100,-58,-48,-14,-14,-19,-78
4,97,92,-51,-43,95,-58,-53,-14,-14,-24,-82
14,97,82,-56,-34,90,-63,-53,-14,-9,-19,-82
19,97,78,-58,-29,87,-68,-58,-9,-9,-19,-78
14,82,68,-48,-26,75,-58,-53,-9,9,0,-63
14,82,68,-48,-26,75,-58,-53,-4,9,0,-63
24,92,68,-58,-21,80,-63,-53,-4,9,-4,-63
29,78,48,-53,-9,63,-63,-53,-9,9,-4,-63
24,73,48,-48,-12,61,-53,-53,0,9,0,-53
9,68,58,-39,-24,63,-53,-48,-4,4,0,-53
-24,68,92,-21,-58,80,-63,-43,-4,4,0,-53
-58,58,117,0,-87,87,-53,-39,-4,9,4,-48
-73,63,136,4,-104,100,-48,-34,9,24,19,-34
-82,63,146,9,-114,104,-43,-29,14,29,24,-29
-92,63,156,14,-124,109,-39,-24,14,34,29,-29
-97,53,151,21,-124,102,-34,-19,19,39,39,-24
-53,53,107,0,-80,80,-34,-24,9,24,24,-39
-43,58,102,-7,-73,80,-39,-29,9,19,19,-39
-24,63,87,-19,-56,75,-43,-34,4,14,14,-39
-4,63,68,-29,-36,65,-58,-29,0,9,9,-43
34,73,39,-53,-2,56,-78,-48,-9,0,4,-48
39,73,34,-56,2,53,-68,-48,-4,4,4,-53
39,68,29,-53,4,48,-68,-48,-4,4,4,-48
34,68,34,-51,0,51,-68,-53,-9,0,0,-63
19,68,48,-43,-14,58,-58,-58,-19,-4,-9,-68
9,58,48,-34,-19,53,-48,-58,-19,-9,-19,-82
-39,43,82,-2,-61,63,-29,-53,-19,-14,-24,-92
-43,39,82,2,-63,61,-24,-53,-24,-19,-34,-107
-58,34,92,12,-75,63,-24,-48,-24,-34,-29,-102
-48,39,87,4,-68,63,-29,-53,-34,-34,-39,-102
-53,39,92,7,-73,65,-29,-53,-29,-34,-39,-97
-63,43,107,9,-85,75,-29,-53,-24,-39,-39,-92
-73,39,112,17,-92,75,-19,-48,-9,-24,-34,-87
-92,29,122,31,-107,75,-4,-34,-4,-14,-24,-78
-107,29,136,39,-122,82,4,-24,-4,-4,-14,-73
-122,29,151,46,-136,90,9,-19,-4,4,-9,-68
-112,24,136,43,-124,80,-4,-34,-9,-9,-19,-82
-97,24,122,36,-109,73,-9,-34,-9,-14,-24,-87
-92,19,112,36,-102,65,-4,-29,-9,-19,-29,-87
-73,19,92,26,-82,56,-9,-34,-14,-24,-34,-92
-63,24,87,19,-75,56,-9,-34,-9,-29,-34,-92
-48,24,73,12,-61,48,-4,-34,-14,-29,-39,-92
-58,24,82,17,-70,53,0,-34,-24,-34,-34,-87
-78,19,97,29,-87,58,4,-34,-24,-29,-29,-82
-82,29,112,26,-97,70,4,-24,-9,-14,-29,-82
-87,24,112,31,-100,68,4,-24,-9,-14,-29,-87
-82,24,107,29,-95,65,0,-39,-14,-14,-34,-87
-82,24,107,29,-95,65,0,-29,-14,-14,-34,-87
-58,19,78,19,-68,48,-9,-39,-24,-24,-43,-92
-68,14,82,26,-75,48,-9,-39,-24,-19,-43,-92
-68,9,78,29,-73,43,-9,-39,-19,-19,-39,-87
-63,0,63,31,-63,31,-9,-34,-14,-9,-34,-87
-73,9,82,31,-78,46,-9,-29,-9,-9,-29,-87
-82,9,92,36,-87,51,-4,-29,-9,-9,-29,-87
-87,9,97,39,-92,53,4,-29,-14,-9,-34,-87
-92,14,107,39,-100,61,4,-29,-14,-14,-34,-87
-87,4,92,41,-90,48,4,-29,-14,-14,-34,-87
-87,-4,82,46,-85,39,4,-24,-14,-9,-34,-82
-87,4,92,41,-90,48,4,-24,-9,-4,-29,-82
-92,4,97,43,-95,51,4,-24,-9,-4,-29,-82
-73,4,78,34,-75,41,0,-29,-24,-24,-39,-92
-58,9,68,24,-63,39,-4,-39,-29,-29,-43,-97
-29,19,48,4,-39,34,-14,-43,-34,-34,-48,-102
-34,24,58,4,-46,41,-19,-48,-39,-39,-58,-107
-43,34,78,4,-61,56,-14,-43,-34,-34,-48,-97
-43,39,82,2,-63,61,-9,-39,-29,-29,-48,-97
-43,43,87,0,-65,65,-4,-34,-24,-24,-48,-97
-63,48,112,7,-87,80,-4,-34,-19,-29,-58,-102
-87,43,131,21,-109,87,4,-29,-14,-24,-43,-92
-87,39,126,24,-107,82,4,-29,-9,-14,-39,-87
-73,34,107,19,-90,70,4,-24,-4,-9,-29,-82
-63,34,97,14,-80,65,0,-24,0,-4,-24,-78
-14,43,58,-14,-36,51,-24,-48,0,-4,-34,-92
-19,63,82,-21,-51,73,-43,-48,-4,-4,-29,-87
0,63,63,-31,-31,63,-48,-58,0,4,-29,-82
0,63,63,-31,-31,63,-48,-48,29,24,-9,-73
-29,82,112,-26,-70,97,-48,-34,82,63,19,-53
-58,107,165,-24,-112,136,-73,-43,117,102,53,-29
-78,131,209,-26,-143,170,-122,-53,156,151,102,14
-92,146,239,-26,-165,192,-175,-48,195,204,151,53
-87,175,263,-43,-175,219,-248,-58,204,239,175,87
-53,214,268,-80,-161,241,-317,-107,165,248,195,102
9,244,234,-126,-112,239,-409,-170,102,244,195,107
112,268,156,-190,-21,212,-551,-239,43,239,190,102
214,302,87,-258,63,195,-683,-273,14,248,204,107
283,331,48,-307,117,190,-800,-287,-14,287,248,146
336,341,4,-339,165,173,-956,-268,-29,361,326,214
424,341,-82,-383,253,129,-1137,-204,29,453,409,278
488,361,-126,-424,307,117,-1254,-97,136,580,507,366
531,395,-136,-463,334,129,-1400,-58,209,697,614,444
600,409,-190,-505,395,109,-1629,-165,190,775,688,517
683,400,-283,-541,483,58,-1839,-336,146,824,746,580
751,370,-380,-561,566,-4,-1981,-458,117,868,814,653
780,317,-463,-549,622,-73,-2078,-517,146,927,878,712
761,229,-531,-495,646,-151,-2103,-561,175,927,902,756
761,102,-658,-431,710,-278,-2044,-580,156,849,873,746
771,-19,-790,-375,780,-405,-1937,-610,78,712,780,697
761,-87,-849,-336,805,-468,-1810,-639,-9,590,688,634
775,-102,-878,-336,827,-490,-1639,-663,-53,522,624,590
805,-112,-917,-346,861,-514,-1464,-634,-68,463,580,551
829,-102,-932,-363,880,-517,-1302,-575,-122,390,522,512
814,-92,-907,-361,861,-500,-1132,-527,-195,292,448,448
761,-122,-883,-319,822,-502,-976,-522,-292,165,341,375
722,-141,-863,-290,793,-502,-883,-517,-395,53,248,302
697,-131,-829,-283,763,-480,-824,-502,-468,-43,165,244
683,-151,-834,-265,758,-492,-800,-502,-497,-122,102,195
634,-165,-800,-234,717,-483,-800,-536,-531,-190,29,141
561,-156,-717,-202,639,-436,-790,-570,-546,-248,-43,92
517,-156,-673,-180,595,-414,-756,-556,-546,-302,-87,48
497,-156,-653,-170,575,-405,-717,-527,-546,-331,-122,4
473,-170,-644,-151,558,-407,-683,-556,-575,-380,-180,-48
453,-170,-624,-141,539,-397,-678,-614,-644,-453,-253,-117
458,-151,-610,-153,534,-380,-678,-639,-707,-497,-302,-161
444,-161,-605,-141,524,-383,-639,-610,-702,-507,-312,-180
380,-170,-551,-104,466,-361,-595,-590,-673,-488,-307,-185
326,-156,-483,-85,405,-319,-551,-561,-639,-463,-292,-175
273,-136,-409,-68,341,-273,-512,-527,-610,-444,-292,-180
204,-131,-336,-36,270,-234,-468,-512,-580,-444,-302,-195
156,-136,-292,-9,224,-214,-424,-478,-541,-414,-292,-209
136,-126,-263,-4,200,-195,-366,-439,-483,-375,-268,-209
131,-82,-214,-24,173,-148,-322,-409,-453,-346,-263,-219
112,-48,-161,-31,136,-104,-287,-375,-405,-326,-263,-229
53,-63,-117,4,85,-90,-224,-312,-341,-292,-234,-209
-24,-87,-63,56,19,-75,-170,-248,-292,-253,-204,-175
-82,-73,9,78,-46,-31,-126,-185,-244,-224,-175,-146
-122,-39,82,80,-102,21,-73,-126,-180,-170,-131,-122
-165,-14,151,90,-158,68,-9,-58,-102,-112,-87,-92
-156,24,180,65,-168,102,19,-29,-63,-87,-73,-92
-107,48,156,29,-131,102,34,-9,-43,-78,-68,-92
-78,29,107,24,-92,68,48,14,-24,-68,-78,-87
-78,29,107,24,-92,68,58,19,-19,-73,-78,-92
-92,14,107,39,-100,61,63,19,-24,-73,-87,-102
-102,-9,92,56,-97,41,82,39,-14,-63,-87,-92
-92,4,97,43,-95,51,87,43,-14,-73,-87,-107
-92,9,102,41,-97,56,87,43,-4,-63,-82,-112
-92,19,112,36,-102,65,102,43,0,-63,-82,-117
-107,29,136,39,-122,82,97,39,9,-58,-82,-122
-92,39,131,26,-112,85,87,29,4,-68,-92,-122
-78,34,112,21,-95,73,87,19,0,-68,-92,-122
-63,34,97,14,-80,65,78,9,-9,-73,-97,-126
-48,29,78,9,-63,53,73,0,-19,-73,-97,-126
-43,29,73,7,-58,51,68,14,-9,-73,-87,-117
-43,24,68,9,-56,46,73,19,-9,-73,-92,-122
-68,19,87,24,-78,53,82,29,-9,-68,-92,-122
-92,19,112,36,-102,65,92,34,-4,-58,-87,-122
-102,29,131,36,-117,80,92,24,9,-58,-87,-122
-107,29,136,39,-122,82,97,24,9,-48,-82,-117
-112,29,141,41,-126,85,97,29,14,-43,-78,-107
-112,34,146,39,-129,90,97,29,19,-43,-78,-107
-92,43,136,24,-114,90,97,39,9,-43,-78,-107
-92,34,126,29,-109,80,97,39,9,-48,-78,-107
-87,29,117,29,-102,73,97,43,9,-48,-78,-107
-87,29,117,29,-102,73,97,43,9,-48,-78,-107
-112,29,141,41,-126,85,102,48,19,-29,-63,-92
-136,39,175,48,-156,107,107,48,24,-24,-58,-87
-161,43,204,58,-183,124,117,48,34,-19,-53,-82
-175,48,224,63,-200,136,131,53,48,-9,-39,-78
-146,39,185,53,-165,112,117,48,39,-14,-43,-92
-122,39,161,41,-141,100,112,43,34,-24,-48,-92
-122,34,156,43,-139,95,107,39,29,-29,-58,-97
-112,34,146,39,-129,90,102,34,24,-34,-63,-102
-102,43,146,29,-124,95,102,29,24,-34,-63,-92
-102,53,156,24,-129,104,102,29,24,-29,-63,-97
-102,58,161,21,-131,109,107,29,24,-29,-58,-97
-102,68,170,17,-136,119,107,29,24,-29,-58,-97
-117,58,175,29,-146,117,117,29,34,-19,-48,-87
-126,58,185,34,-156,122,117,34,34,-19,-43,-82
-136,58,195,39,-165,126,122,39,34,-19,-39,-82
-141,48,190,46,-165,119,126,48,34,-9,-39,-82
-161,58,219,51,-190,139,126,48,39,-9,-39,-92
-151,63,214,43,-183,139,126,48,39,-14,-43,-92
-151,63,214,43,-183,139,126,43,34,-19,-43,-97
-146,63,209,41,-178,136,126,43,29,-19,-43,-97
-122,63,185,29,-153,124,122,39,19,-39,-53,-102
-107,58,165,24,-136,112,122,34,19,-39,-58,-102
-102,58,161,21,-131,109,122,29,19,-29,-58,-107
-87,53,141,17,-114,97,131,29,24,-24,-63,-112
-97,53,151,21,-124,102,136,34,34,-24,-53,-97
-102,58,161,21,-131,109,141,34,34,-24,-53,-97
-107,63,170,21,-139,117,146,39,34,-24,-53,-92
-112,68,180,21,-146,124,151,39,29,-29,-53,-87
-126,63,190,31,-158,126,156,48,34,-19,-48,-73
-151,58,209,46,-180,134,170,63,43,-14,-43,-63
-175,53,229,61,-202,141,185,73,53,-14,-39,-58
-195,48,244,73,-219,146,190,87,58,-14,-34,-53
-175,58,234,58,-204,146,175,68,43,-34,-39,-63
-161,68,229,46,-195,148,165,58,34,-43,-43,-73
-141,68,209,36,-175,139,156,48,29,-48,-48,-82
-107,63,170,21,-139,117,146,39,24,-53,-53,-97
-112,48,161,31,-136,104,161,53,34,-43,-53,-87
-122,43,165,39,-143,104,170,63,34,-43,-53,-82
-156,39,195,58,-175,117,185,68,34,-43,-53,-78
-170,34,204,68,-187,119,204,78,34,-39,-53,-68
-209,39,248,85,-229,143,214,92,53,-34,-39,-63
-244,39,283,102,-263,161,229,97,63,-29,-34,-58
-258,34,292,112,-275,163,239,117,68,-24,-29,-53
-268,48,317,109,-292,183,244,112,68,-19,-34,-53
-214,58,273,78,-244,165,234,87,48,-43,-48,-68
-170,58,229,56,-200,143,229,78,39,-53,-63,-82
-126,58,185,34,-156,122,219,63,29,-63,-73,-97
-82,58,141,12,-112,100,219,53,14,-68,-82,-107
-87,53,141,17,-114,97,214,58,9,-73,-92,-117
-112,43,156,34,-134,100,224,58,14,-73,-87,-117
-126,39,165,43,-146,102,234,58,9,-68,-87,-112
-136,29,165,53,-151,97,234,63,4,-68,-92,-112
-151,39,190,56,-170,114,258,73,4,-78,-92,-107
-170,39,209,65,-190,124,263,73,0,-73,-97,-107
-190,63,253,63,-222,158,273,68,-4,-73,-102,-112
-185,53,239,65,-212,146,278,68,-9,-73,-102,-112
-175,58,234,58,-204,146,287,73,-14,-73,-97,-107
-185,58,244,63,-214,151,292,73,-9,-73,-102,-112
-185,63,248,61,-217,156,302,78,-4,-78,-102,-117
-195,63,258,65,-226,161,322,82,0,-73,-102,-117
-195,43,239,75,-217,141,317,87,9,-63,-92,-107
-204,43,248,80,-226,146,331,87,9,-63,-92,-107
-224,43,268,90,-246,156,341,87,9,-63,-92,-107
-224,43,268,90,-246,156,341,87,9,-63,-92,-112
-239,34,273,102,-256,153,375,97,14,-53,-78,-97
-258,29,287,114,-273,158,390,107,24,-43,-78,-102
-283,24,307,129,-295,165,405,112,29,-34,-78,-102
-302,29,331,136,-317,180,429,122,39,-29,-78,-97
-297,34,331,131,-314,183,424,117,24,-39,-97,-117
-292,39,331,126,-312,185,419,112,9,-48,-107,-131
-283,43,326,119,-305,185,414,107,4,-63,-117,-136
-278,48,326,114,-302,187,414,102,-4,-78,-122,-146
-258,39,297,109,-278,168,409,97,-4,-78,-122,-156
-244,39,283,102,-263,161,424,102,0,-78,-117,-146
-244,39,283,102,-263,161,429,97,0,-73,-117,-141
-234,39,273,97,-253,156,434,92,4,-73,-112,-136
-248,48,297,100,-273,173,444,107,9,-68,-102,-131
-258,48,307,104,-283,178,448,112,14,-58,-97,-126
-273,48,322,112,-297,185,458,117,19,-48,-92,-122
-287,48,336,119,-312,192,468,117,24,-43,-87,-117
-268,48,317,109,-292,183,458,112,19,-43,-97,-126
-268,53,322,107,-295,187,453,107,19,-43,-92,-122
-258,53,312,102,-285,183,448,102,19,-48,-87,-122
-244,53,297,95,-270,175,434,97,14,-53,-87,-122
-239,53,292,92,-265,173,424,97,4,-68,-92,-122
-239,53,292,92,-265,173,424,97,9,-68,-92,-122
-229,53,283,87,-256,168,419,102,14,-58,-92,-122
-219,58,278,80,-248,168,409,102,19,-48,-92,-126
-204,73,278,65,-241,175,405,92,19,-48,-82,-117
-204,73,278,65,-241,175,400,97,34,-39,-78,-117
-195,73,268,61,-231,170,395,102,39,-34,-68,-112
-180,73,253,53,-217,163,380,107,43,-29,-63,-107
-161,68,229,46,-195,148,356,107,58,-14,-48,-97
-151,68,219,41,-185,143,346,107,63,-9,-43,-87
-146,68,214,39,-180,141,341,117,68,0,-34,-73
-141,68,209,36,-175,139,326,117,82,9,-24,-68
-141,68,209,36,-175,139,317,107,73,9,-29,-58
-146,68,214,39,-180,141,302,112,78,14,-19,-43
-156,63,219,46,-187,141,297,117,82,24,-9,-39
-161,63,224,48,-192,143,273,117,87,29,-4,-34
-126,58,185,34,-156,122,263,102,78,24,-4,-34
-97,53,151,21,-124,102,239,97,78,24,-4,-29
-78,48,126,14,-102,87,219,92,78,24,0,-29
-48,34,82,7,-65,58,190,87,73,14,0,-24
-53,39,92,7,-73,65,175,82,58,14,-4,-24
-34,53,87,-9,-61,70,156,82,48,9,-4,-24
-34,58,92,-12,-63,75,141,78,43,9,-4,-19
-34,58,92,-12,-63,75,141,78,43,14,4,-19
-39,53,92,-7,-65,73,146,92,63,24,19,0
-48,48,97,0,-73,73,136,92,68,24,19,9
-53,43,97,4,-75,70,126,92,73,24,24,14
-58,39,97,9,-78,68,122,92,82,34,34,19
-58,48,107,4,-82,78,117,102,73,34,43,19
-58,39,97,9,-78,68,112,92,73,29,34,19
-53,39,92,7,-73,65,102,87,63,24,19,14
-43,39,82,2,-63,61,97,82,58,14,14,9
-39,43,82,-2,-61,63,82,68,43,9,9,4
-48,43,92,2,-70,68,78,68,43,9,4,0
-48,58,107,-4,-78,82,68,63,48,14,4,9
-43,48,92,-2,-68,70,63,63,48,14,0,4
-53,53,107,0,-80,80,63,73,53,19,4,9
-53,53,107,0,-80,80,53,68,48,24,9,4
-53,53,107,0,-80,80,53,68,53,29,14,4
-53,53,107,0,-80,80,48,68,58,39,19,9
-53,43,97,4,-75,70,53,68,68,39,24,14
-53,34,87,9,-70,61,53,68,63,39,24,14
-58,19,78,19,-68,48,58,68,63,39,29,19
-58,9,68,24,-63,39,63,63,63,39,34,29
-29,19,48,4,-39,34,58,58,43,24,19,24
-9,19,29,-4,-19,24,48,43,39,14,14,9
4,19,14,-12,-4,17,43,39,34,9,9,4
19,19,0,-19,9,9,48,34,29,4,0,0
0,29,29,-14,-14,29,39,34,29,-4,-14,0
-9,34,43,-12,-26,39,39,34,29,-4,-14,0
-14,39,53,-12,-34,46,39,34,29,-4,-14,-4
-24,43,68,-9,-46,56,39,34,29,-4,-14,-4
-39,39,78,0,-58,58,43,34,34,9,-9,9
-39,34,73,2,-56,53,48,34,39,9,-4,9
-39,29,68,4,-53,48,53,34,43,9,0,4
-34,24,58,4,-46,41,58,29,48,14,0,0
-48,14,63,17,-56,39,63,39,48,24,9,4
-53,14,68,19,-61,41,68,39,43,19,9,9
-58,14,73,21,-65,43,73,39,43,14,9,14
-82,14,97,34,-90,56,82,39,48,14,9,19
-92,19,112,36,-102,65,82,29,43,9,0,4
-97,24,122,36,-109,73,78,29,39,4,-4,0
-97,29,126,34,-112,78,73,29,34,0,-9,-4
-82,34,117,24,-100,75,68,29,34,4,-14,-9
-29,34,63,-2,-46,48,48,9,24,-9,-29,-29
19,34,14,-26,2,24,29,-4,9,-29,-43,-39
53,29,-24,-41,39,2,29,-14,0,-43,-53,-43
82,29,-53,-56,68,-12,19,-24,-4,-63,-58,-48
63,14,-48,-39,56,-17,34,-24,4,-53,-39,-43
48,9,-39,-29,43,-14,39,-14,14,-39,-39,-34
29,0,-29,-14,29,-14,43,4,24,-29,-29,-24
9,-4,-14,-2,12,-9,53,14,34,-19,-14,-9
-14,4,19,4,-17,12,53,19,29,-14,-24,-19
-24,14,39,4,-31,26,53,19,29,-14,-24,-24
-29,24,53,2,-41,39,53,19,34,-4,-24,-24
-29,29,58,0,-43,43,63,19,34,-4,-29,-24
-14,34,48,-9,-31,41,63,14,19,-14,-34,-24
0,34,34,-17,-17,34,53,14,19,-24,-39,-24
-4,34,39,-14,-21,36,53,14,19,-24,-39,-24
-19,34,53,-7,-36,43,58,14,19,-19,-39,-24
-39,19,58,9,-48,39,68,24,24,-9,-24,-19
-39,14,53,12,-46,34,68,24,29,-9,-24,-14
-43,9,53,17,-48,31,68,24,34,-9,-24,-14
-48,4,53,21,-51,29,68,24,39,-9,-19,-9
-53,-4,48,29,-51,21,63,29,39,-9,-14,0
-48,-4,43,26,-46,19,63,29,39,-9,-14,0
-48,-9,39,29,-43,14,68,29,39,-9,-4,4
-43,-9,34,26,-39,12,73,29,43,-4,0,4
-24,0,24,12,-24,12,53,14,24,-19,-14,-14
0,4,4,-2,-2,4,43,9,9,-34,-34,-24
24,9,-14,-17,19,-2,24,4,-4,-48,-48,-39
53,14,-39,-34,46,-12,9,-4,-19,-73,-63,-48
19,29,9,-24,4,19,24,4,-14,-63,-53,-39
4,34,29,-19,-12,31,29,9,-4,-53,-53,-34
-4,39,43,-17,-24,41,34,9,0,-43,-53,-34
-4,43,48,-19,-26,46,39,9,4,-43,-53,-34
-14,19,34,-2,-24,26,43,9,14,-43,-43,-14
-19,14,34,2,-26,24,39,14,19,-39,-34,-9
-14,19,34,-2,-24,26,43,9,24,-39,-29,0
-24,19,43,2,-34,31,43,14,24,-34,-19,9
-29,14,43,7,-36,29,29,9,9,-53,-24,0
-14,9,24,2,-19,17,29,9,4,-53,-29,0
-9,0,9,4,-9,4,29,9,4,-53,-34,0
-9,-4,4,7,-7,0,29,14,4,-48,-34,-4
-24,4,29,9,-26,17,29,14,9,-53,-29,-4
-39,14,53,12,-46,34,29,14,9,-53,-29,-4
-34,24,58,4,-46,41,29,14,14,-48,-29,0
-39,34,73,2,-56,53,34,14,14,-48,-29,0
-34,24,58,4,-46,41,24,4,14,-39,-34,-9
-34,24,58,4,-46,41,19,4,9,-39,-34,-4
-34,19,53,7,-43,36,19,4,4,-43,-34,-4
-29,19,48,4,-39,34,19,4,4,-53,-34,-9
-14,14,29,0,-21,21,24,9,14,-53,-34,-4
-4,4,9,0,-7,7,14,9,14,-48,-29,0
-4,-14,-9,9,2,-12,24,9,19,-43,-24,4
-9,-24,-14,17,2,-19,24,9,24,-39,-19,9
-24,0,24,12,-24,12,34,9,24,-34,-19,9
-39,0,39,19,-39,19,34,9,24,-34,-19,19
-53,-4,48,29,-51,21,43,19,24,-24,-9,24
-58,-4,53,31,-56,24,43,19,24,-24,-9,24
-48,0,48,24,-48,24,34,4,14,-24,-29,14
-34,4,39,14,-36,21,29,0,9,-29,-29,9
-19,4,24,7,-21,14,14,-9,9,-39,-29,4
-14,0,14,7,-14,7,14,-9,9,-43,-29,4
14,0,-14,-7,14,-7,4,-19,-4,-43,-39,0
29,0,-29,-14,29,-14,0,-24,-4,-48,-39,-4
58,0,-58,-29,58,-29,0,-24,-4,-48,-43,-9
53,0,-53,-26,53,-26,0,-19,0,-39,-43,-14
53,19,-34,-36,43,-7,-19,-29,0,-48,-43,-24
29,-9,-39,-9,34,-24,-24,-19,9,-48,-34,-14
19,-19,-39,0,29,-29,-4,-9,19,-39,-19,-4
19,19,0,-19,9,9,-14,-14,19,-39,-24,4
19,48,29,-34,-4,39,-9,-19,19,-29,-19,9
14,39,24,-26,-4,31,0,-9,19,-29,-19,9
9,39,29,-24,-9,34,0,-9,19,-29,-19,9
4,39,34,-21,-14,36,0,-9,19,-29,-19,9
0,39,39,-19,-19,39,0,-9,19,-29,-19,9
19,39,19,-29,0,29,-9,-19,9,-29,-29,9
39,39,0,-39,19,19,-14,-24,9,-34,-24,9
39,53,14,-46,12,34,-14,-24,9,-34,-19,4
39,53,14,-46,12,34,-19,-29,14,-39,-19,4
24,29,4,-26,9,17,-29,-19,14,-29,-4,19
19,24,4,-21,7,14,-29,-14,14,-29,-4,19
29,19,-9,-24,19,4,-39,-14,9,-29,-4,14
34,14,-19,-24,26,-2,-43,-24,0,-39,-19,9
43,19,-24,-31,34,-2,-39,-24,4,-39,-14,-4
53,29,-24,-41,39,2,-29,-24,4,-34,-14,-4
53,34,-19,-43,36,7,-24,-19,4,-24,-4,0
48,39,-9,-43,29,14,-19,-19,9,-19,0,9
39,48,9,-43,14,29,-19,-14,9,-9,9,24
34,53,19,-43,7,36,-19,-14,14,-9,9,24
39,68,29,-53,4,48,-24,-14,14,-9,4,24
39,58,19,-48,9,39,-24,-14,9,-9,4,24
58,53,-4,-56,31,24,-34,-19,9,-19,0,24
68,48,-19,-58,43,14,-34,-19,4,-24,0,24
58,48,-9,-53,34,19,-43,-19,4,-24,0,24
48,39,-9,-43,29,14,-34,-19,4,-19,4,29
43,29,-14,-36,29,7,-34,-9,14,-19,14,39
43,24,-19,-34,31,2,-34,-9,14,-19,14,39
43,19,-24,-31,34,-2,-34,-9,9,-19,14,34
48,4,-43,-26,46,-19,-34,-9,9,-19,19,34
53,-4,-58,-24,56,-31,-19,0,14,-9,19,34
34,0,-34,-17,34,-17,-19,0,19,-9,19,39
24,4,-19,-14,21,-7,-19,0,19,-9,19,43
14,4,-9,-9,12,-2,-29,9,19,-9,19,43
58,29,-29,-43,43,0,-48,-9,14,-19,14,43
68,34,-34,-51,51,0,-39,-9,14,-14,14,43
73,34,-39,-53,56,-2,-39,-9,9,-14,14,53
73,39,-34,-56,53,2,-39,-14,0,-19,9,43
39,53,14,-46,12,34,-29,-14,14,-19,14,43
9,48,39,-29,-14,43,-19,-9,19,-19,9,34
-58,39,97,9,-78,68,0,0,24,-19,9,29
-82,39,122,21,-102,80,4,4,24,-19,4,19
-73,14,87,29,-80,51,14,0,29,-24,0,19
-48,9,58,19,-53,34,9,-4,14,-24,-9,14
-39,0,39,19,-39,19,9,-4,14,-24,-9,14
-34,-4,29,19,-31,12,9,-4,14,-29,-9,14
-4,-19,-14,12,4,-17,0,-9,4,-43,-14,9
4,-39,-43,17,24,-41,4,-4,4,-43,-14,9
19,-48,-68,14,43,-58,4,-4,0,-43,-14,4
34,-58,-92,12,63,-75,0,-9,-4,-43,-19,0
19,-48,-68,14,43,-58,9,-9,-14,-53,-24,0
9,-43,-53,17,31,-48,9,-4,-9,-53,-24,0
-9,-43,-34,26,12,-39,19,4,-4,-53,-24,4
-14,-39,-24,26,4,-31,19,4,-4,-53,-24,4
-9,-24,-14,17,2,-19,14,-4,-9,-63,-39,-4
0,-14,-14,7,7,-14,14,-4,-14,-68,-48,-14
-14,-4,9,9,-12,2,14,-4,-24,-78,-48,-19
-39,0,39,19,-39,19,14,-4,-24,-78,-48,-24
-24,-4,19,14,-21,7,4,-4,-9,-73,-48,-24
-9,-14,-4,12,-2,-9,4,-4,-9,-73,-48,-29
14,-19,-34,2,24,-26,0,-19,-14,-73,-53,-29
34,-24,-58,-4,46,-41,0,-9,-14,-73,-53,-29
39,-29,-68,-4,53,-48,4,0,-9,-58,-43,-9
19,-34,-53,7,36,-43,9,0,-4,-48,-34,-4
9,-39,-48,14,29,-43,14,0,4,-43,-19,4
4,-48,-53,21,29,-51,19,4,14,-29,-4,9
0,-48,-48,24,24,-48,19,9,9,-39,-9,0
-4,-48,-43,26,19,-46,24,9,9,-39,-9,0
-4,-48,-43,26,19,-46,34,9,4,-39,-14,0
-4,-43,-39,24,17,-41,34,9,4,-43,-14,0
-14,-43,-29,29,7,-36,34,9,14,-43,-24,0
-19,-53,-34,36,7,-43,34,14,14,-39,-24,4
-24,-43,-19,34,-2,-31,34,14,19,-34,-19,4
-34,-43,-9,39,-12,-26,34,14,19,-34,-19,4
-14,-34,-19,24,2,-26,24,0,9,-48,-39,-14
0,-19,-19,9,9,-19,14,-9,0,-58,-43,-19
29,0,-29,-14,29,-14,0,-14,-9,-68,-48,-24
24,14,-9,-19,17,2,-9,-19,-19,-78,-58,-29
24,0,-24,-12,24,-12,4,-14,-14,-68,-53,-24
34,-9,-43,-12,39,-26,9,-9,-9,-68,-48,-19
43,-19,-63,-12,53,-41,14,-4,-4,-68,-43,-14
34,-29,-63,-2,48,-46,14,-4,0,-78,-48,-14
4,-19,-24,7,14,-21,24,0,4,-73,-39,-14
0,-19,-19,9,9,-19,24,0,9,-63,-39,-9
9,-19,-29,4,19,-24,24,4,14,-58,-34,-4
14,-14,-29,0,21,-21,19,4,19,-53,-34,0
4,-14,-19,4,12,-17,24,9,39,-34,-14,24
0,-14,-14,7,7,-14,24,9,53,-24,0,19
9,-14,-24,2,17,-19,19,9,68,-4,9,34
19,-14,-34,-2,26,-24,9,9,78,14,29,53
9,-14,-24,2,17,-19,9,14,102,34,48,53
9,9,0,-9,4,4,-4,14,126,53,53,68
9,53,43,-31,-17,48,-24,4,156,82,82,92
-4,78,82,-36,-43,80,-68,-9,185,136,131,131
-39,97,136,-29,-87,117,-131,-9,224,190,175,165
-34,117,151,-41,-92,134,-219,-29,224,219,195,180
19,156,136,-87,-58,146,-302,-92,180,214,204,175
92,190,97,-141,-2,143,-375,-161,112,190,190,170
146,253,107,-200,19,180,-458,-214,82,190,195,185
175,322,146,-248,14,234,-566,-248,92,239,239,224
219,351,131,-285,43,241,-673,-258,87,312,307,283
307,341,34,-324,136,187,-814,-253,78,375,361,336
419,361,-58,-390,239,151,-1010,-204,126,473,448,395
541,385,-156,-463,348,114,-1156,-117,229,610,566,483
639,400,-239,-519,439,80,-1268,-58,297,727,668,566
712,400,-312,-556,512,43,-1449,-122,292,814,756,649
761,380,-380,-570,570,0,-1639,-283,253,878,834,722
829,307,-522,-568,675,-107,-1766,-419,214,917,888,790
888,219,-668,-553,778,-224,-1859,-483,224,946,941,854
927,112,-814,-519,871,-351,-1898,-512,234,907,932,854
917,-29,-946,-444,932,-488,-1869,-531,185,761,829,795
917,-126,-1044,-395,980,-585,-1820,-570,78,570,688,712
902,-170,-1073,-366,988,-622,-1737,-614,-4,444,595,639
863,-209,-1073,-326,968,-641,-1600,-614,0,414,561,619
829,-248,-1078,-290,954,-663,-1429,-566,24,380,541,619
814,-239,-1054,-287,934,-646,-1278,-536,0,312,488,585
800,-209,-1010,-295,905,-610,-1122,-483,-68,214,400,522
780,-190,-971,-295,875,-580,-941,-419,-151,92,287,429
746,-200,-946,-273,846,-573,-785,-385,-253,-43,175,331
741,-209,-951,-265,846,-580,-702,-366,-380,-170,63,253
751,-195,-946,-278,849,-570,-692,-380,-483,-268,-9,190
727,-195,-922,-265,824,-558,-692,-414,-536,-346,-82,122
683,-244,-927,-219,805,-585,-678,-458,-566,-409,-165,68
673,-253,-927,-209,800,-590,-668,-478,-566,-458,-209,34
658,-248,-907,-204,783,-578,-644,-478,-566,-488,-239,9
600,-258,-858,-170,729,-558,-619,-497,-585,-512,-273,-19
536,-268,-805,-134,671,-536,-590,-551,-619,-546,-302,-53
483,-278,-761,-102,622,-519,-570,-570,-653,-556,-312,-53
429,-278,-707,-75,568,-492,-527,-541,-653,-546,-307,-68
375,-234,-610,-70,492,-422,-502,-531,-629,-531,-302,-78
341,-195,-536,-73,439,-366,-483,-507,-610,-522,-312,-92
322,-200,-522,-61,422,-361,-448,-502,-600,-531,-331,-126
302,-185,-488,-58,395,-336,-424,-507,-610,-541,-370,-161
244,-156,-400,-43,322,-278,-385,-488,-570,-531,-366,-180
200,-141,-341,-29,270,-241,-331,-448,-512,-483,-351,-180
180,-87,-268,-46,224,-178,-287,-414,-463,-453,-331,-190
151,-4,-156,-73,153,-80,-253,-380,-409,-419,-302,-190
112,-19,-131,-46,122,-75,-200,-307,-341,-361,-263,-165
92,-73,-165,-9,129,-119,-146,-234,-292,-322,-224,-126
92,-87,-180,-2,136,-134,-122,-185,-239,-287,-200,-92
97,-92,-190,-2,143,-141,-87,-136,-190,-248,-165,-73
97,-92,-190,-2,143,-141,-58,-97,-131,-195,-122,-53
87,-78,-165,-4,126,-122,-14,-58,-82,-146,-87,-34
78,-68,-146,-4,112,-107,19,-34,-43,-117,-78,-29
78,-68,-146,-4,112,-107,39,-9,-29,-112,-68,-34
73,-63,-136,-4,104,-100,63,9,-24,-112,-68,-34
43,-68,-112,12,78,-90,82,39,-14,-122,-68,-24
4,-68,-73,31,39,-70,107,63,0,-117,-63,-19
-24,-68,-43,46,9,-56,117,73,14,-102,-53,-14
-53,-63,-9,58,-21,-36,141,82,24,-97,-48,-9
-97,-58,39,78,-68,-9,146,87,39,-87,-43,-4
-107,-34,73,70,-90,19,146,82,29,-97,-48,-19
-97,-34,63,65,-80,14,146,78,29,-97,-53,-24
-87,-29,58,58,-73,14,136,73,24,-102,-63,-34
-78,-29,48,53,-63,9,131,68,19,-102,-68,-39
-43,-24,19,34,-31,-2,112,63,9,-117,-73,-48
-24,-24,0,24,-12,-12,112,58,9,-122,-82,-53
-29,-24,4,26,-17,-9,117,58,9,-122,-87,-53
-34,-19,14,26,-24,-2,122,53,14,-117,-87,-53
-58,-24,34,41,-46,4,126,68,29,-97,-68,-34
-68,-29,39,48,-53,4,136,73,39,-78,-53,-19
-78,-34,43,56,-61,4,141,82,53,-63,-39,0
-82,-34,48,58,-65,7,146,87,68,-53,-29,9
-53,-43,9,48,-31,-17,136,82,53,-68,-34,-4
-34,-53,-19,43,-7,-36,136,78,48,-78,-39,-9
-9,-58,-48,34,19,-53,136,78,43,-82,-43,-14
9,-58,-68,24,39,-63,136,73,39,-87,-48,-19
9,-58,-68,24,39,-63,122,58,29,-92,-63,-34
0,-48,-48,24,24,-48,117,58,24,-102,-68,-39
-9,-43,-34,26,12,-39,117,58,24,-112,-73,-43
-9,-39,-29,24,9,-34,122,63,29,-117,-68,-48
14,-39,-53,12,34,-46,112,53,34,-107,-68,-39
34,-39,-73,2,53,-56,112,53,34,-112,-68,-34
29,-43,-73,7,51,-58,112,53,34,-112,-73,-34
34,-43,-78,4,56,-61,112,53,34,-112,-73,-34
43,-39,-82,-2,63,-61,112,58,29,-117,-78,-39
43,-34,-78,-4,61,-56,112,58,24,-117,-82,-48
43,-34,-78,-4,61,-56,117,58,19,-122,-82,-53
43,-29,-73,-7,58,-51,117,58,14,-126,-87,-58
29,-19,-48,-4,39,-34,126,58,29,-112,-73,-48
9,-19,-29,4,19,-24,126,63,34,-107,-63,-34
-9,-19,-9,14,0,-14,131,68,39,-102,-53,-24
-24,-29,-4,26,-9,-17,136,78,43,-87,-48,-14
-43,-34,9,39,-26,-12,146,78,53,-73,-43,-9
-34,-34,0,34,-17,-17,146,78,58,-73,-43,-4
-34,-39,-4,36,-14,-21,146,73,58,-73,-39,-4
-29,-43,-14,36,-7,-29,146,73,58,-68,-34,0
-29,-43,-14,36,-7,-29,141,73,53,-92,-48,-9
-29,-48,-19,39,-4,-34,141,73,48,-97,-48,-4
-39,-48,-9,43,-14,-29,141,73,43,-92,-43,-4
-39,-53,-14,46,-12,-34,151,78,43,-92,-43,-4
-53,-43,9,48,-31,-17,161,87,48,-82,-39,4
-63,-39,24,51,-43,-7,161,82,53,-82,-34,0
-73,-34,39,53,-56,2,161,82,58,-82,-29,0
-82,-29,53,56,-68,12,161,78,58,-87,-24,0
-43,-24,19,34,-31,-2,146,68,48,-107,-34,-19
-24,-19,4,21,-14,-7,151,63,43,-112,-43,-24
-4,-14,-9,9,2,-12,156,53,39,-122,-53,-34
19,-9,-29,-4,24,-19,151,48,29,-131,-63,-43
-4,-9,-4,7,0,-7,161,58,34,-126,-48,-34
-34,0,34,17,-34,17,165,68,34,-122,-43,-24
-58,0,58,29,-58,29,170,78,39,-112,-39,-14
-68,-4,63,36,-65,29,175,87,43,-102,-34,-9
-48,-19,29,34,-39,4,175,73,34,-112,-39,-19
-34,-24,9,29,-21,-7,170,73,34,-112,-43,-24
-43,-29,14,36,-29,-7,170,68,34,-112,-48,-29
-34,-34,0,34,-17,-17,175,68,34,-107,-53,-29
-24,-34,-9,29,-7,-21,170,63,34,-112,-63,-34
-29,-39,-9,34,-9,-24,180,58,34,-117,-63,-39
-14,-48,-34,31,9,-41,185,68,29,-122,-63,-43
4,-39,-43,17,24,-41,185,53,19,-126,-73,-53
-19,-24,-4,21,-7,-14,195,63,14,-122,-68,-48
-43,-19,24,31,-34,2,200,68,19,-122,-73,-53
-68,-14,53,41,-61,19,200,68,24,-122,-73,-58
-92,-9,82,51,-87,36,209,73,24,-117,-73,-58
-107,-9,97,58,-102,43,219,82,29,-107,-58,-53
-131,-14,117,73,-124,51,234,87,43,-102,-48,-48
-146,-14,131,80,-139,58,248,92,48,-92,-43,-39
-156,-19,136,87,-146,58,253,102,53,-87,-43,-34
-156,-9,146,82,-151,68,258,112,58,-82,-34,-34
-161,-9,151,85,-156,70,263,112,58,-73,-39,-39
-165,14,180,75,-173,97,273,107,58,-68,-43,-48
-146,4,151,70,-148,78,278,107,58,-63,-43,-53
-97,-14,82,56,-90,34,273,92,34,-92,-63,-68
-78,-19,58,48,-68,19,263,73,19,-112,-82,-82
-48,-19,29,34,-39,4,258,58,4,-136,-97,-97
-29,-24,4,26,-17,-9,263,43,-9,-151,-112,-107
-53,-39,14,46,-34,-12,273,63,0,-146,-107,-102
-78,-43,34,61,-56,-4,292,68,0,-141,-102,-97
-112,-48,63,80,-87,7,307,73,0,-136,-97,-92
-126,-53,73,90,-100,9,312,78,0,-131,-92,-92
-112,-34,78,73,-95,21,326,68,-4,-131,-102,-102
-112,-29,82,70,-97,26,331,68,-4,-131,-107,-112
-117,-24,92,70,-104,34,336,63,-9,-131,-112,-117
-117,-9,107,63,-112,48,351,63,-9,-136,-117,-117
-122,-4,117,63,-119,56,351,63,0,-141,-131,-112
-126,0,126,63,-126,63,351,63,-9,-146,-136,-122
-126,4,131,61,-129,68,351,63,-9,-156,-141,-122
-131,9,141,61,-136,75,356,63,-14,-165,-141,-126
-136,19,156,58,-146,87,351,63,-14,-156,-131,-136
-136,19,156,58,-146,87,366,73,-9,-156,-126,-126
-151,19,170,65,-161,95,370,73,-9,-151,-126,-122
-156,19,175,68,-165,97,375,73,-4,-151,-122,-117
-146,9,156,68,-151,82,395,78,9,-131,-97,-107
-141,0,141,70,-141,70,400,82,14,-117,-87,-97
-141,-9,131,75,-136,61,409,87,19,-102,-78,-87
-141,-19,122,80,-131,51,419,87,24,-92,-68,-78
-146,-24,122,85,-134,48,424,92,34,-97,-78,-78
-161,-24,136,92,-148,56,424,97,39,-92,-73,-73
-165,-29,136,97,-151,53,424,102,43,-92,-68,-73
-165,-34,131,100,-148,48,414,107,43,-92,-68,-73
-146,-19,126,82,-136,53,409,97,39,-112,-78,-78
-141,-14,126,78,-134,56,405,97,39,-117,-82,-82
-126,-9,117,68,-122,53,395,102,39,-112,-87,-87
-112,0,112,56,-112,56,380,102,39,-107,-92,-97
-122,4,126,58,-124,65,380,102,48,-102,-82,-92
-136,4,141,65,-139,73,380,107,63,-87,-78,-87
-141,4,146,68,-143,75,380,112,68,-78,-68,-78
-141,4,146,68,-143,75,370,117,73,-68,-63,-68
-117,9,126,53,-122,68,351,102,68,-68,-68,-63
-92,9,102,41,-97,56,336,97,73,-68,-63,-58
-73,9,82,31,-78,46,326,102,78,-63,-53,-48
-53,9,63,21,-58,36,307,97,92,-58,-43,-48
-29,9,39,9,-34,24,297,102,92,-48,-48,-48
-29,9,39,9,-34,24,283,112,97,-43,-39,-34
-34,4,39,14,-36,21,278,122,102,-34,-29,-29
-34,4,39,14,-36,21,253,126,107,-29,-24,-24
-39,-14,24,26,-31,4,253,131,107,-24,-19,-19
-29,-24,4,26,-17,-9,239,126,107,-24,-14,-9
-29,-34,-4,31,-12,-19,229,122,107,-24,-4,-4
-19,-53,-34,36,7,-43,209,117,102,-34,0,4
-24,-48,-24,36,0,-36,209,117,107,-29,0,14
-14,-34,-19,24,2,-26,195,122,97,-29,4,14
-24,-29,-4,26,-9,-17,185,122,92,-24,9,19
-34,-29,4,31,-19,-12,190,126,92,-14,24,19
-29,-29,0,29,-14,-14,175,126,97,4,24,24
-29,-29,0,29,-14,-14,165,122,97,4,19,29
-24,-29,-4,26,-9,-17,156,117,97,4,19,29
-19,-29,-9,24,-4,-19,151,112,102,14,24,29
9,-29,-39,9,24,-34,131,112,102,4,43,29
19,-39,-58,9,39,-48,122,102,102,0,34,29
34,-39,-73,2,53,-56,107,97,92,-4,19,24
53,-39,-92,-7,73,-65,97,92,87,-14,14,19
43,-53,-97,4,70,-75,97,87,78,-19,4,19
29,-53,-82,12,56,-68,97,87,73,-19,4,19
24,-39,-63,7,43,-51,92,82,73,-14,9,34
24,-48,-73,12,48,-61,92,82,68,-14,9,34
43,-43,-87,0,65,-65,87,73,53,-24,-4,24
53,-43,-97,-4,75,-70,73,68,39,-34,-9,14
63,-43,-107,-9,85,-75,68,68,34,-43,-14,9
73,-43,-117,-14,95,-80,58,68,29,-48,-19,9
58,-53,-112,-2,85,-82,68,73,39,-39,-9,19
34,-53,-87,9,61,-70,73,78,43,-29,-4,24
4,-58,-63,26,34,-61,82,82,53,-19,4,34
-19,-58,-39,39,9,-48,92,82,63,-9,14,48
14,-53,-68,19,41,-61,78,68,53,-19,9,34
39,-48,-87,4,63,-68,68,53,48,-24,4,19
58,-43,-102,-7,80,-73,63,48,43,-24,0,14
78,-39,-117,-19,97,-78,68,43,39,-24,-9,9
78,-58,-136,-9,107,-97,68,53,29,-34,-24,0
78,-63,-141,-7,109,-102,68,53,29,-34,-24,0
82,-68,-151,-7,117,-109,68,53,29,-34,-24,-4
82,-73,-156,-4,119,-114,68,53,29,-34,-24,-4
63,-63,-126,0,95,-95,82,63,34,-19,-9,4
48,-63,-112,7,80,-87,87,63,39,-19,-4,9
34,-63,-97,14,65,-80,92,63,43,-19,0,9
24,-63,-87,19,56,-75,97,58,48,-14,0,9
39,-53,-92,7,65,-73,92,53,43,-14,0,9
43,-53,-97,4,70,-75,87,48,34,-19,0,9
48,-53,-102,2,75,-78,82,43,29,-24,0,9
34,-53,-87,9,61,-70,82,39,29,-24,0,9
19,-53,-73,17,46,-63,87,43,34,-14,-4,9
9,-53,-63,21,36,-58,87,48,39,-14,-4,9
4,-53,-58,24,31,-56,87,53,43,-14,-4,9
14,-53,-68,19,41,-61,87,58,53,-4,-4,9
34,-63,-97,14,65,-80,97,48,53,-9,-14,14
48,-63,-112,7,80,-87,87,43,48,-19,-24,9
48,-68,-117,9,82,-92,97,43,48,-24,-29,9
43,-68,-112,12,78,-90,97,43,53,-34,-29,9
58,-68,-126,4,92,-97,87,24,48,-48,-39,0
68,-68,-136,0,102,-102,87,24,43,-48,-48,-4
73,-73,-146,0,109,-109,87,34,39,-53,-48,-9
78,-73,-151,-2,114,-112,92,34,34,-58,-43,-9
82,-73,-156,-4,119,-114,92,29,29,-58,-43,-19
82,-73,-156,-4,119,-114,92,29,29,-53,-43,-24
87,-73,-161,-7,124,-117,92,29,34,-39,-43,-24
97,-78,-175,-9,136,-126,102,29,34,-34,-48,-24
78,-78,-156,0,117,-117,97,34,39,-29,-39,-9
68,-73,-141,2,104,-107,92,43,48,-34,-39,-4
39,-68,-107,14,73,-87,97,53,58,-29,-34,0
0,-63,-63,31,31,-63,107,63,68,-19,-29,4
-4,-63,-58,34,26,-61,107,63,58,-19,-34,-4
0,-63,-63,31,31,-63,107,63,58,-19,-34,-4
0,-63,-63,31,31,-63,107,63,58,-19,-34,-9
0,-63,-63,31,31,-63,107,63,58,-19,-29,-9
4,-63,-68,29,36,-65,87,53,53,-29,-34,-14
19,-63,-82,21,51,-73,82,48,48,-29,-43,-19
29,-68,-97,19,63,-82,82,43,43,-29,-43,-19
43,-68,-112,12,78,-90,82,39,43,-24,-48,-24
24,-73,-97,24,61,-85,87,43,48,-19,-34,-19
19,-73,-92,26,56,-82,92,48,48,-14,-34,-14
14,-73,-87,29,51,-80,87,53,48,-9,-29,-14
14,-73,-87,29,51,-80,87,53,48,-14,-24,-9
-14,-63,-48,39,17,-56,92,58,58,-14,-14,0
-24,-63,-39,43,7,-51,97,68,63,-4,-14,4
-29,-63,-34,46,2,-48,102,73,63,4,-14,4
-24,-63,-39,43,7,-51,107,78,63,4,-14,4
14,-63,-78,24,46,-70,87,53,48,-19,-24,-4
48,-63,-112,7,80,-87,68,43,39,-29,-34,-19
92,-53,-146,-19,119,-100,58,24,29,-43,-48,-29
122,-48,-170,-36,146,-109,43,14,14,-53,-58,-39
102,-43,-146,-29,124,-95,48,19,9,-48,-48,-34
112,-48,-161,-31,136,-104,48,19,4,-43,-48,-29
112,-58,-170,-26,141,-114,48,19,4,-39,-48,-24
107,-63,-170,-21,139,-117,48,24,4,-29,-43,-24
78,-68,-146,-4,112,-107,53,34,19,-24,-29,-14
58,-73,-131,7,95,-102,58,34,19,-24,-29,-14
58,-78,-136,9,97,-107,63,34,24,-19,-29,-9
48,-82,-131,17,90,-107,73,34,24,-19,-29,-9
39,-82,-122,21,80,-102,73,34,24,-29,-29,-9
34,-82,-117,24,75,-100,68,34,19,-29,-34,-4
29,-87,-117,29,73,-102,68,34,14,-34,-39,-4
29,-87,-117,29,73,-102,68,34,14,-43,-43,-9
19,-73,-92,26,56,-82,68,39,24,-34,-43,-4
24,-73,-97,24,61,-85,63,39,24,-29,-39,0
19,-82,-102,31,61,-92,78,39,29,-24,-34,4
9,-82,-92,36,51,-87,82,39,34,-19,-29,9
34,-82,-117,24,75,-100,73,24,29,-19,-39,-4
48,-87,-136,19,92,-112,63,19,24,-24,-39,0
63,-97,-161,17,112,-129,63,24,19,-19,-29,0
87,-102,-190,7,139,-146,53,19,14,-24,-29,-4
82,-92,-175,4,129,-134,63,24,4,-24,-48,-14
92,-82,-175,-4,134,-129,58,19,0,-29,-48,-19
102,-78,-180,-12,141,-129,43,9,0,-39,-48,-24
102,-78,-180,-12,141,-129,43,9,0,-43,-48,-24
97,-68,-165,-14,131,-117,48,14,0,-34,-39,-19
87,-68,-156,-9,122,-112,48,14,4,-39,-39,-14
92,-68,-161,-12,126,-114,53,19,9,-39,-43,-9
63,-68,-131,2,97,-100,58,29,19,-29,-43,-4
58,-73,-131,7,95,-102,68,29,29,-24,-39,0
29,-78,-107,24,68,-92,63,29,29,-9,-34,4
24,-82,-107,29,65,-95,63,29,29,-4,-24,9
19,-78,-97,29,58,-87,63,24,29,0,-14,14
14,-78,-92,31,53,-85,68,29,43,4,-4,19
9,-73,-82,31,46,-78,68,39,48,14,0,24
0,-73,-73,36,36,-73,73,43,53,24,0,29
-4,-63,-58,34,26,-61,78,43,58,29,0,34
34,-43,-78,4,56,-61,34,14,29,0,-19,4
68,-14,-82,-26,75,-48,29,4,19,0,-29,-4
107,-39,-146,-34,126,-92,29,0,19,0,-29,0
107,-43,-151,-31,129,-97,19,0,9,-4,-39,-4
107,-48,-156,-29,131,-102,19,0,9,-9,-39,-9
107,-53,-161,-26,134,-107,19,0,9,-14,-39,-14
107,-58,-165,-24,136,-112,19,0,9,-19,-39,-19
97,-48,-146,-24,122,-97,29,9,19,-4,-34,-4
97,-48,-146,-24,122,-97,24,4,19,-4,-24,0
78,-34,-112,-21,95,-73,24,4,19,0,-14,0
58,-34,-92,-12,75,-63,19,0,24,0,-9,4
58,-34,-92,-12,75,-63,19,0,14,9,-14,0
58,-34,-92,-12,75,-63,19,4,14,9,-14,0
73,-34,-107,-19,90,-70,9,4,9,9,-14,-4
82,-34,-117,-24,100,-75,4,-4,0,0,-29,-9
107,-34,-141,-36,124,-87,0,-14,-4,-14,-34,-14
131,-29,-161,-51,146,-95,0,-14,-4,-14,-34,-14
146,-29,-175,-58,161,-102,-4,-9,-4,-9,-24,-9
156,-29,-185,-63,170,-107,-9,-9,0,-9,-19,0
141,-39,-180,-51,161,-109,-4,-4,0,0,0,14
131,-34,-165,-48,148,-100,0,-4,4,0,0,14
131,-19,-151,-56,141,-85,0,-4,4,0,-4,14
126,-29,-156,-48,141,-92,4,-4,0,0,-4,14
126,-29,-156,-48,141,-92,4,0,0,-9,-9,14
126,-29,-156,-48,141,-92,4,0,-4,-14,-9,14
107,-24,-131,-41,119,-78,-4,0,-4,-14,-9,14
87,-29,-117,-29,102,-73,4,0,-4,-9,-4,19
107,-43,-151,-31,129,-97,0,-9,-14,-19,-19,9
122,-43,-165,-39,143,-104,-4,-9,-14,-19,-24,9
136,-43,-180,-46,158,-112,-9,-9,-19,-19,-29,4
156,-53,-209,-51,183,-131,-14,-9,-19,-19,-29,4
136,-63,-200,-36,168,-131,9,9,-4,-9,-9,14
92,-58,-151,-17,122,-104,19,19,9,0,0,29
58,-53,-112,-2,85,-82,29,29,19,9,9,43
24,-53,-78,14,51,-65,29,48,29,19,19,53
82,-29,-112,-26,97,-70,9,29,19,4,14,43
107,-24,-131,-41,119,-78,9,19,14,4,4,34
126,-24,-151,-51,139,-87,0,9,4,0,-4,34
141,-19,-161,-61,151,-90,-9,-4,-9,-9,-19,14
126,-9,-136,-58,131,-73,0,0,-4,0,-4,19
117,-19,-136,-48,126,-78,9,0,0,0,-9,14
68,-34,-102,-17,85,-68,29,4,4,0,-9,14
63,-39,-102,-12,82,-70,34,4,4,0,-14,9
68,-48,-117,-9,92,-82,24,-9,-9,-24,-29,-9
87,-48,-136,-19,112,-92,19,-14,-24,-24,-39,-14
92,-53,-146,-19,119,-100,19,-14,-24,-24,-39,-14
92,-53,-146,-19,119,-100,19,-14,-24,-29,-39,-14
73,-58,-131,-7,102,-95,34,-9,-9,-24,-34,-4
53,-68,-122,7,87,-95,43,4,-4,-14,-24,0
39,-68,-107,14,73,-87,48,14,-4,-4,-14,0
24,-68,-92,21,58,-80,48,19,-4,4,-9,0
19,-63,-82,21,51,-73,39,9,-14,0,-9,-9
19,-63,-82,21,51,-73,39,14,-9,-4,-14,-9
9,-68,-78,29,43,-73,48,24,-4,-9,-19,-4
14,-68,-82,26,48,-75,48,24,-4,-14,-24,-4
43,-53,-97,4,70,-75,34,9,-19,-24,-39,-9
68,-53,-122,-7,95,-87,34,4,-24,-29,-48,-14
68,-53,-122,-7,95,-87,34,0,-34,-39,-48,-14
58,-58,-117,0,87,-87,34,-4,-34,-39,-48,-14
58,-68,-126,4,92,-97,34,-4,-29,-34,-39,-14
58,-73,-131,7,95,-102,34,-4,-29,-34,-39,-19
68,-73,-141,2,104,-107,29,-19,-34,-34,-43,-19
73,-73,-146,0,109,-109,29,-9,-34,-34,-43,-19
58,-68,-126,4,92,-97,43,4,-29,-19,-39,-4
29,-63,-92,17,61,-78,48,9,-24,-9,-34,-4
9,-58,-68,24,39,-63,53,14,-14,-4,-24,0
-4,-58,-53,31,24,-56,58,24,-4,9,-14,0
14,-48,-63,17,39,-56,53,14,-4,-4,-24,-14
24,-48,-73,12,48,-61,53,9,-9,-9,-29,-19
39,-48,-87,4,63,-68,58,4,-19,-14,-39,-24
53,-43,-97,-4,75,-70,53,0,-24,-24,-43,-29
48,-53,-102,2,75,-78,53,0,-24,-24,-43,-29
48,-63,-112,7,80,-87,53,4,-24,-19,-43,-24
48,-53,-102,2,75,-78,53,4,-19,-14,-39,-24
43,-53,-97,4,70,-75,53,4,-19,-14,-39,-24
29,-68,-97,19,63,-82,53,14,-19,-19,-43,-19
29,-68,-97,19,63,-82,53,9,-19,-19,-43,-19
43,-63,-107,9,75,-85,48,9,-19,-19,-43,-19
24,-63,-87,19,56,-75,48,9,-19,-19,-48,-19
43,-58,-102,7,73,-80,39,0,-29,-19,-58,-29
63,-58,-122,-2,92,-90,39,0,-29,-19,-58,-29
82,-58,-141,-12,112,-100,39,0,-29,-19,-58,-29
82,-58,-141,-12,112,-100,34,-4,-29,-29,-68,-34
43,-39,-82,-2,63,-61,43,4,-19,-19,-48,-29
19,-39,-58,9,39,-48,53,9,-9,-4,-39,-19
9,-39,-48,14,29,-43,63,19,0,4,-24,-9
-4,-34,-29,19,12,-31,68,24,9,14,-14,0
-14,-34,-19,24,2,-26,92,39,29,34,-4,4
19,-24,-43,2,31,-34,73,19,34,34,-9,0
78,-4,-82,-36,80,-43,39,-9,29,34,-19,-14
107,-4,-112,-51,109,-58,29,-19,39,34,-29,-24
117,-4,-122,-56,119,-63,9,-24,53,43,-19,-14
136,9,-126,-73,131,-58,-24,-34,87,73,4,0
146,43,-102,-95,124,-29,-63,-43,117,112,43,43
141,78,-63,-109,102,7,-117,-48,146,165,92,82
146,117,-29,-131,87,43,-190,-58,175,219,126,126
161,146,-14,-153,87,65,-258,-87,165,258,156,141
165,156,-9,-161,87,73,-322,-131,131,263,175,146
180,161,-19,-170,100,70,-375,-190,82,278,180,161
195,204,9,-200,92,107,-468,-224,73,297,214,185
224,263,39,-244,92,151,-566,-229,92,356,268,234
278,292,14,-285,131,153,-663,-209,87,429,336,292
346,292,-53,-319,200,119,-805,-175,107,512,409,356
429,302,-126,-366,278,87,-971,-97,204,639,507,434
531,336,-195,-434,363,70,-1098,-9,297,746,595,512
619,370,-248,-495,434,61,-1259,-9,317,834,668,575
702,390,-312,-546,507,39,-1449,-122,292,912,756,658
732,370,-361,-551,546,4,-1600,-263,253,976,844,732
751,287,-463,-519,607,-87,-1708,-351,253,1024,907,810
800,200,-600,-500,700,-200,-1800,-405,273,1034,932,844
849,92,-756,-470,802,-331,-1830,-463,244,946,883,814
897,-39,-936,-429,917,-488,-1800,-512,146,780,771,746
927,-146,-1073,-390,1000,-610,-1732,-551,68,629,649,683
883,-209,-1093,-336,988,-651,-1620,-585,24,561,595,639
834,-248,-1083,-292,958,-666,-1473,-595,19,512,561,610
868,-229,-1098,-319,983,-663,-1312,-575,-14,448,502,551
912,-209,-1122,-351,1017,-666,-1161,-536,-78,351,419,497
907,-239,-1146,-334,1027,-692,-985,-483,-146,253,331,424
849,-239,-1088,-305,968,-663,-824,-429,-229,151,229,361
795,-229,-1024,-283,910,-627,-707,-395,-331,43,146,312
741,-248,-990,-246,866,-619,-644,-375,-409,-43,73,263
712,-273,-985,-219,849,-629,-634,-400,-473,-131,9,200
678,-244,-922,-217,800,-583,-653,-463,-536,-219,-82,122
653,-224,-878,-214,766,-551,-649,-488,-556,-283,-156,58
624,-244,-868,-190,746,-556,-610,-468,-536,-302,-180,34
590,-239,-829,-175,710,-534,-575,-458,-546,-331,-200,0
531,-229,-761,-151,646,-495,-570,-517,-585,-385,-253,-48
497,-229,-727,-134,612,-478,-570,-570,-639,-419,-292,-73
473,-229,-702,-122,588,-466,-551,-570,-663,-419,-312,-82
419,-229,-649,-95,534,-439,-507,-541,-653,-419,-326,-107
395,-224,-619,-85,507,-422,-483,-531,-629,-414,-331,-126
370,-204,-575,-82,473,-390,-453,-507,-610,-414,-331,-141
331,-200,-531,-65,431,-366,-409,-483,-580,-405,-331,-156
283,-204,-488,-39,385,-346,-366,-468,-561,-385,-322,-161
214,-195,-409,-9,312,-302,-326,-439,-522,-346,-317,-161
151,-170,-322,9,236,-246,-263,-400,-473,-307,-292,-151
112,-146,-258,17,185,-202,-209,-346,-405,-258,-263,-131
82,-131,-214,24,148,-173,-165,-292,-331,-214,-244,-112
63,-126,-190,31,126,-158,-122,-239,-283,-185,-224,-107
92,-122,-214,14,153,-168,-97,-195,-253,-185,-214,-117
112,-97,-209,-7,161,-153,-73,-156,-219,-161,-190,-112
87,-82,-170,-2,129,-126,-19,-97,-170,-122,-146,-73
39,-53,-92,7,65,-73,19,-48,-112,-68,-102,-53
39,-19,-58,-9,48,-39,43,-19,-63,-29,-87,-43
39,-19,-58,-9,48,-39,68,-4,-43,-9,-87,-39
0,-29,-29,14,14,-29,97,19,-19,4,-78,-34
-73,-43,29,58,-51,-7,122,58,4,14,-68,-24
-122,-68,53,95,-87,-7,151,78,14,24,-58,-24
-102,-68,34,85,-68,-17,146,78,19,9,-63,-39
-92,-68,24,80,-58,-21,146,82,24,14,-63,-43
-82,-63,19,73,-51,-21,161,87,24,9,-68,-48
-87,-58,29,73,-58,-14,156,87,29,9,-73,-53
-78,-29,48,53,-63,9,165,73,29,14,-63,-43
-68,-24,43,46,-56,9,165,68,29,19,-63,-43
-58,-14,43,36,-51,14,156,63,24,19,-68,-48
-48,-9,39,29,-43,14,151,58,19,24,-68,-48
-39,-19,19,29,-29,0,151,63,29,19,-68,-39
-24,-34,-9,29,-7,-21,151,68,29,14,-73,-43
-34,-48,-14,41,-9,-31,156,78,29,14,-73,-43
-43,-58,-14,51,-14,-36,161,82,34,19,-68,-43
-39,-43,-4,41,-17,-24,151,78,34,24,-78,-53
-39,-39,0,39,-19,-19,156,73,29,29,-73,-48
-39,-34,4,36,-21,-14,156,73,29,29,-68,-39
-34,-24,9,29,-21,-7,156,68,29,24,-68,-39
-34,-24,9,29,-21,-7,146,68,29,19,-78,-39
-34,-34,0,34,-17,-17,146,68,29,9,-78,-39
-29,-39,-9,34,-9,-24,146,73,29,4,-78,-39
-29,-39,-9,34,-9,-24,146,73,29,0,-78,-39
-43,-39,4,41,-24,-17,156,78,34,14,-68,-29
-58,-29,29,43,-43,0,156,78,34,14,-68,-29
-73,-24,48,48,-61,12,161,78,39,14,-68,-29
-78,-19,58,48,-68,19,170,82,48,19,-58,-29
-68,-9,58,39,-63,24,161,73,53,29,-58,-19
-53,-9,43,31,-48,17,161,73,53,24,-58,-14
-63,-14,48,39,-56,17,161,73,53,24,-63,-14
-63,-14,48,39,-56,17,161,73,53,24,-63,-14
-78,-14,63,46,-70,24,170,78,63,34,-58,-4
-82,-14,68,48,-75,26,170,78,63,39,-53,-9
-87,-19,68,53,-78,24,175,78,63,39,-43,-9
-92,-19,73,56,-82,26,175,78,63,39,-39,-9
-82,-9,73,46,-78,31,161,63,53,29,-48,-14
-78,-9,68,43,-73,29,156,63,53,29,-43,-14
-73,-9,63,41,-68,26,156,63,53,29,-39,-19
-63,-19,43,41,-53,12,156,68,53,39,-39,-24
-53,-9,43,31,-48,17,151,63,53,29,-43,-34
-34,-4,29,19,-31,12,146,58,48,24,-53,-34
-24,-4,19,14,-21,7,141,48,39,19,-58,-39
-9,-4,4,7,-7,0,136,43,29,19,-63,-39
-34,-9,24,21,-29,7,141,58,43,19,-58,-24
-58,-9,48,34,-53,19,151,63,48,29,-48,-14
-92,-4,87,48,-90,41,161,68,53,48,-34,-9
-117,-4,112,61,-114,53,180,78,63,63,-24,-4
-92,0,92,46,-92,46,175,73,48,48,-39,-19
-73,0,73,36,-73,36,170,63,43,43,-43,-29
-53,0,53,26,-53,26,165,58,39,39,-48,-34
-34,0,34,17,-34,17,161,48,29,29,-53,-39
-53,0,53,26,-53,26,170,53,34,39,-39,-34
-73,0,73,36,-73,36,180,63,43,43,-34,-24
-92,0,92,46,-92,46,190,68,53,43,-29,-19
-107,0,107,53,-107,53,190,78,58,43,-24,-14
-117,0,117,58,-117,58,185,68,48,48,-24,-14
-122,9,131,56,-126,70,185,68,43,43,-24,-14
-122,9,131,56,-126,70,185,68,43,43,-24,-14
-107,4,112,51,-109,58,185,68,43,43,-24,-19
-82,14,97,34,-90,56,180,63,39,29,-29,-39
-63,14,78,24,-70,46,180,63,34,24,-34,-43
-68,14,82,26,-75,48,185,58,29,19,-39,-48
-53,14,68,19,-61,41,195,58,24,19,-43,-48
-82,4,87,39,-85,46,200,68,39,19,-43,-39
-107,0,107,53,-107,53,209,68,43,19,-43,-39
-112,-9,102,61,-107,46,214,82,43,19,-43,-39
-112,0,112,56,-112,56,214,73,39,19,-53,-43
-112,0,112,56,-112,56,214,68,29,19,-48,-39
-112,0,112,56,-112,56,219,68,29,14,-53,-43
-112,0,112,56,-112,56,219,63,29,9,-53,-48
-112,0,112,56,-112,56,229,63,24,9,-53,-48
-126,4,131,61,-129,68,239,78,34,9,-53,-48
-161,4,165,78,-163,85,253,78,43,14,-48,-48
-185,9,195,87,-190,102,268,78,43,24,-48,-43
-204,9,214,97,-209,112,273,82,43,29,-53,-43
-180,0,180,90,-180,90,278,68,29,14,-58,-48
-170,0,170,85,-170,85,273,63,19,14,-68,-58
-161,24,185,68,-173,104,273,53,9,9,-78,-73
-126,14,141,56,-134,78,268,48,0,4,-82,-82
-117,9,126,53,-122,68,273,48,-9,0,-78,-87
-126,9,136,58,-131,73,273,43,-9,-4,-82,-92
-126,14,141,56,-134,78,278,43,-9,-14,-82,-97
-136,14,151,61,-143,82,292,43,-9,-14,-82,-97
-175,14,190,80,-183,102,307,58,0,4,-73,-82
-214,14,229,100,-222,122,331,68,9,14,-63,-78
-263,14,278,124,-270,146,351,78,19,24,-53,-73
-292,14,307,139,-300,161,361,87,29,34,-43,-73
-253,19,273,117,-263,146,366,78,9,14,-53,-87
-229,19,248,104,-239,134,361,68,4,4,-68,-102
-209,19,229,95,-219,124,356,53,-4,-4,-82,-112
-185,29,214,78,-200,122,361,43,-9,-19,-97,-117
-170,19,190,75,-180,104,351,34,-14,-24,-112,-126
-165,19,185,73,-175,102,351,34,-29,-29,-117,-141
-156,19,175,68,-165,97,351,34,-34,-39,-122,-146
-151,19,170,65,-161,95,356,34,-43,-48,-122,-156
-165,9,175,78,-170,92,370,43,-34,-43,-117,-151
-175,9,185,82,-180,97,385,53,-29,-39,-107,-136
-200,9,209,95,-204,109,390,53,-29,-29,-102,-126
-214,9,224,102,-219,117,395,53,-24,-24,-92,-117
-224,19,244,102,-234,131,400,53,-24,-34,-97,-126
-229,19,248,104,-239,134,400,53,-24,-29,-97,-126
-239,19,258,109,-248,139,405,53,-24,-24,-97,-126
-248,19,268,114,-258,143,409,48,-24,-24,-97,-126
-234,19,253,107,-244,136,414,48,-24,-19,-87,-136
-239,24,263,107,-251,143,414,48,-19,-14,-82,-131
-234,24,258,104,-246,141,414,48,-14,-14,-78,-131
-224,24,248,100,-236,136,405,48,-14,-14,-78,-131
-224,24,248,100,-236,136,414,58,-4,-9,-78,-117
-229,24,253,102,-241,139,414,58,0,-9,-73,-112
-224,24,248,100,-236,136,409,63,4,0,-68,-107
-219,29,248,95,-234,139,400,63,9,9,-63,-107
-219,34,253,92,-236,143,395,63,9,19,-53,-97
-224,34,258,95,-241,146,390,68,24,29,-48,-97
-219,34,253,92,-236,143,385,73,29,34,-39,-92
-209,34,244,87,-226,139,370,78,34,39,-34,-87
-200,24,224,87,-212,124,356,68,29,39,-39,-82
-190,19,209,85,-200,114,346,68,34,39,-34,-78
-185,14,200,85,-192,107,341,78,39,43,-24,-68
-180,9,190,85,-185,100,326,78,53,48,-14,-68
-185,19,204,82,-195,112,322,92,63,58,4,-43
-204,19,224,92,-214,122,312,102,78,73,19,-24
-229,14,244,107,-236,129,312,112,92,92,34,-14
-248,14,263,117,-256,139,292,117,107,107,43,-4
-209,14,224,97,-217,119,278,102,92,102,29,-19
-175,14,190,80,-183,102,258,97,87,92,24,-19
-151,14,165,68,-158,90,244,92,82,82,24,-24
-117,4,122,56,-119,63,219,87,73,63,19,-24
-107,4,112,51,-109,58,195,82,78,73,14,-24
-82,14,97,34,-90,56,175,82,68,68,14,-24
-78,14,92,31,-85,53,161,78,63,68,14,-19
-73,9,82,31,-78,46,161,78,63,73,24,-19
-87,9,97,39,-92,53,165,92,68,92,48,-4
-97,9,107,43,-102,58,156,92,68,92,48,9
-102,9,112,46,-107,61,146,92,68,92,53,19
-107,9,117,48,-112,63,141,92,73,102,63,29
-73,19,92,26,-82,56,117,82,58,97,58,19
-48,9,58,19,-53,34,102,63,53,87,43,9
-19,9,29,4,-24,19,82,48,39,78,24,-4
14,9,-4,-12,9,2,68,34,29,63,14,-19
0,-4,-4,2,2,-4,73,43,29,63,19,-14
-19,-4,14,12,-17,4,78,48,34,68,24,-9
-29,9,39,9,-34,24,78,48,43,78,34,9
-34,0,34,17,-34,17,82,53,48,82,39,14
-48,4,53,21,-51,29,92,58,53,87,53,24
-63,4,68,29,-65,36,82,58,48,92,58,24
-78,4,82,36,-80,43,82,63,53,97,63,29
-92,4,97,43,-95,51,78,68,58,107,68,39
-82,-4,78,43,-80,36,78,58,48,97,68,29
-82,-4,78,43,-80,36,73,58,43,97,63,24
-87,-9,78,48,-82,34,73,58,43,97,63,24
-87,-9,78,48,-82,34,73,53,43,97,63,29
-53,0,53,26,-53,26,63,43,29,82,43,19
-19,0,19,9,-19,9,48,24,19,73,34,0
9,0,-9,-4,9,-4,39,14,9,68,24,-9
39,0,-39,-19,39,-19,39,4,0,63,9,-19
24,-4,-29,-9,26,-17,48,14,4,68,19,-14
9,-4,-14,-2,12,-9,48,14,9,73,24,-9
0,-4,-4,2,2,-4,48,14,14,78,29,-9
-14,-4,9,9,-12,2,48,14,19,82,34,-4
-19,-4,14,12,-17,4,48,24,19,82,24,-9
-19,-4,14,12,-17,4,48,24,19,78,24,-9
-19,-4,14,12,-17,4,48,24,19,73,24,-14
-14,-4,9,9,-12,2,48,19,19,73,19,-19
-14,4,19,4,-17,12,58,9,19,73,9,-19
-14,4,19,4,-17,12,58,9,14,68,9,-19
-14,4,19,4,-17,12,58,9,14,63,9,-19
-34,4,39,14,-36,21,63,9,19,63,9,-19
-43,4,48,19,-46,26,68,19,24,68,14,-19
-48,4,53,21,-51,29,68,19,29,73,14,-19
-48,4,53,21,-51,29,68,19,34,78,14,-19
-34,4,39,14,-36,21,68,19,43,92,14,-19
-48,4,53,21,-51,29,82,24,48,92,19,-14
-48,4,53,21,-51,29,78,24,48,87,14,-19
-63,0,63,31,-63,31,92,29,53,87,14,-19
-82,0,82,41,-82,41,97,34,63,82,19,-19
-97,0,97,48,-97,48,97,29,63,82,29,-19
-97,0,97,48,-97,48,97,34,63,87,19,-14
-102,-4,97,53,-100,46,97,48,63,87,19,-9
-107,-4,102,56,-104,48,102,53,63,87,24,0
-102,0,102,51,-102,51,92,48,58,92,24,-9
-102,4,107,48,-104,56,92,48,58,92,24,-14
-97,9,107,43,-102,58,92,48,63,102,24,-14
-87,9,97,39,-92,53,102,48,63,102,19,-14
-78,14,92,31,-85,53,92,43,58,102,14,-14
-68,14,82,26,-75,48,82,43,58,92,9,-14
-78,14,92,31,-85,53,82,43,58,92,9,-14
-97,14,112,41,-104,63,87,43,58,97,9,-14
-87,14,102,36,-95,58,78,34,48,87,14,-24
-78,14,92,31,-85,53,78,34,48,87,14,-24
-73,14,87,29,-80,51,78,34,48,87,14,-29
-68,14,82,26,-75,48,78,34,48,87,19,-29
-82,14,97,34,-90,56,82,48,53,92,34,-24
-87,14,102,36,-95,58,82,48,58,97,34,-19
-97,9,107,43,-102,58,87,48,63,102,43,-9
-102,9,112,46,-107,61,92,48,73,112,48,-4
-112,14,126,48,-119,70,82,39,73,102,39,-14
-107,14,122,46,-114,68,82,39,68,102,34,-14
-102,14,117,43,-109,65,73,39,63,102,34,-19
-92,14,107,39,-100,61,68,34,58,92,34,-19
-117,9,126,53,-122,68,82,48,63,102,43,-9
-131,4,136,63,-134,70,87,58,73,112,43,-4
-141,0,141,70,-141,70,92,63,78,122,43,-4
-141,-4,136,73,-139,65,97,68,82,122,43,-4
-92,-9,82,51,-87,36,82,39,58,92,29,-19
-48,-4,43,26,-46,19,58,24,39,78,14,-39
4,9,4,-7,0,7,43,0,19,58,-4,-53
43,19,-24,-31,34,-2,24,-14,-4,43,-19,-68
48,19,-29,-34,39,-4,14,-29,-19,29,-34,-78
73,19,-53,-46,63,-17,9,-29,-24,24,-39,-78
87,14,-73,-51,80,-29,4,-29,-24,19,-43,-78
97,14,-82,-56,90,-34,0,-24,-24,19,-43,-82
53,9,-43,-31,48,-17,9,-9,-9,34,-29,-73
19,4,-14,-12,17,-4,19,-4,0,43,-19,-63
4,0,-4,-2,4,-2,29,0,14,58,-9,-48
-19,-4,14,12,-17,4,43,4,24,68,0,-39
-34,-4,29,19,-31,12,43,14,34,78,4,-39
-43,-4,39,24,-41,17,39,14,29,78,4,-34
-53,-9,43,31,-48,17,39,14,24,73,4,-34
-58,-9,48,34,-53,19,39,14,24,63,4,-39
-73,-4,68,39,-70,31,39,19,34,63,9,-29
-73,-4,68,39,-70,31,34,19,34,68,9,-29
-82,-14,68,48,-75,26,48,19,39,73,9,-29
-97,-14,82,56,-90,34,53,19,43,78,9,-29
-107,9,117,48,-112,63,53,19,53,82,9,-29
-117,9,126,53,-122,68,53,19,53,82,9,-19
-126,4,131,61,-129,68,63,29,53,92,19,-14
-126,4,131,61,-129,68,63,29,53,92,19,-14
-117,19,136,48,-126,78,58,24,53,87,9,-14
-102,34,136,34,-119,85,48,19,48,87,9,-19
-87,43,131,21,-109,87,29,9,48,82,9,-24
-82,48,131,17,-107,90,24,9,48,82,9,-24
-73,48,122,12,-97,85,34,9,43,73,0,-34
-87,48,136,19,-112,92,19,-4,34,68,-9,-34
-87,29,117,29,-102,73,9,-4,34,68,-4,-34
-107,29,136,39,-122,82,29,9,48,87,9,-19
-117,34,151,41,-134,92,29,9,58,97,19,-9
-117,39,156,39,-136,97,29,9,58,97,19,-9
-117,43,161,36,-139,102,29,9,58,97,19,-9
-117,48,165,34,-141,107,29,9,58,97,19,-9
-107,48,156,29,-131,102,14,9,48,112,19,0
-87,48,136,19,-112,92,4,4,48,112,24,0
-87,63,151,12,-119,107,0,4,48,117,29,-4
-87,63,151,12,-119,107,-9,0,53,117,29,-4
-73,53,126,9,-100,90,-9,-4,48,112,29,-14
-68,53,122,7,-95,87,-9,-4,43,107,24,-19
-48,53,102,-2,-75,78,-19,-9,34,102,19,-29
-34,53,87,-9,-61,70,-24,-24,19,87,0,-39
-24,53,78,-14,-51,65,-34,-24,24,92,-4,-43
-14,58,73,-21,-43,65,-29,-24,24,92,-4,-43
-14,58,73,-21,-43,65,-29,-19,24,97,4,-39
-19,58,78,-19,-48,68,-29,-19,29,97,9,-29
-34,58,92,-12,-63,75,-24,-4,29,107,19,-24
-43,63,107,-9,-75,85,-19,-4,34,107,19,-24
-43,78,122,-17,-82,100,-19,-4,34,107,14,-24
-48,68,117,-9,-82,92,-14,-4,29,107,14,-24
-19,53,73,-17,-46,63,-19,-14,24,102,9,-24
0,48,48,-24,-24,48,-24,-19,14,92,9,-24
0,48,48,-24,-24,48,-39,-24,9,87,9,-24
0,39,39,-19,-19,39,-34,-29,4,87,14,-19
9,29,19,-19,-4,24,-34,-19,-4,78,4,-24
14,24,9,-19,2,17,-34,-19,-4,78,4,-29
19,19,0,-19,9,9,-34,-19,-9,78,4,-39
29,4,-24,-17,26,-9,-34,-19,-9,78,9,-43
24,14,-9,-19,17,2,-19,0,9,87,24,-39
-4,29,34,-12,-19,31,-19,0,19,97,29,-29
-24,43,68,-9,-46,56,-19,0,24,107,34,-19
-43,53,97,-4,-70,75,-29,9,29,117,39,-14
-43,63,107,-9,-75,85,-24,9,34,122,48,-9
-58,63,122,-2,-90,92,-9,9,43,131,53,-4
-78,58,136,9,-107,97,-4,9,48,136,58,9
-102,58,161,21,-131,109,0,4,48,136,58,4
-78,43,122,17,-100,82,-14,-14,29,112,39,-9
-68,29,97,19,-82,63,-9,-19,19,97,19,-24
-97,9,107,43,-102,58,4,-19,9,82,4,-34
-82,0,82,41,-82,41,4,-24,-4,68,-14,-48
-73,0,73,36,-73,36,0,-39,-9,43,-19,-68
-48,0,48,24,-48,24,-9,-43,-24,43,-29,-73
-39,-4,34,21,-36,14,-14,-43,-24,43,-29,-73
-34,-4,29,19,-31,12,-19,-43,-24,39,-29,-73
-68,-9,58,39,-63,24,0,-34,-9,48,-19,-53
-102,-19,82,61,-92,31,14,-14,4,63,-4,-39
-131,-19,112,75,-122,46,24,0,14,78,9,-29
-161,-19,141,90,-151,61,29,9,24,92,19,-19
-146,-4,141,75,-143,68,24,-4,9,87,19,-34
-136,-4,131,70,-134,63,19,-4,9,82,14,-39
-136,-9,126,73,-131,58,24,0,9,78,9,-39
-122,-9,112,65,-117,51,19,-4,4,73,4,-43
-92,-4,87,48,-90,41,4,-14,9,73,0,-48
-68,-4,63,36,-65,29,4,-14,4,68,-9,-53
-68,-4,63,36,-65,29,4,-14,-4,58,-9,-53
-78,-9,68,43,-73,29,4,-14,-4,58,-9,-53
-82,-9,73,46,-78,31,14,-9,0,63,-9,-43
-87,-14,73,51,-80,29,14,-4,0,63,-9,-48
-82,-14,68,48,-75,26,9,-14,-4,63,-14,-48
-82,-14,68,48,-75,26,9,0,-4,63,-14,-48
-73,-4,68,39,-70,31,9,-4,-14,58,-24,-53
-87,-4,82,46,-85,39,9,-9,-14,58,-24,-53
-92,-4,87,48,-90,41,9,-14,-9,53,-19,-48
-92,-9,82,51,-87,36,9,-14,-4,58,-14,-48
-102,-19,82,61,-92,31,19,0,9,68,-4,-43
-112,-19,92,65,-102,36,24,0,9,68,0,-39
-117,-19,97,68,-107,39,34,0,4,68,0,-34
-122,-14,107,68,-114,46,34,0,4,63,4,-29
-117,-14,102,65,-109,43,34,9,4,63,0,-34
-117,-24,92,70,-104,34,34,14,4,68,-4,-34
-117,-14,102,65,-109,43,34,14,9,73,-4,-39
-122,-14,107,68,-114,46,34,14,9,73,-9,-43
-131,-24,107,78,-119,41,43,14,9,78,-4,-39
-136,-29,107,82,-122,39,43,9,9,78,-4,-39
-126,-29,97,78,-112,34,39,9,9,78,-4,-39
-151,-34,117,92,-134,41,39,9,9,78,-9,-39
-170,-34,136,102,-153,51,43,14,24,92,0,-24
-170,-29,141,100,-156,56,48,19,29,97,9,-19
-170,-24,146,97,-158,61,53,24,34,102,19,-14
-190,-19,170,104,-180,75,53,24,39,97,19,-14
-161,-19,141,90,-151,61,43,14,29,78,9,-39
-126,-19,107,73,-117,43,34,0,19,73,0,-48
-78,-19,58,48,-68,19,24,-9,9,63,-4,-58
-34,-14,19,24,-26,2,9,-24,0,53,-14,-68
-14,-4,9,9,-12,2,-4,-39,0,53,-24,-63
-19,4,24,7,-21,14,-14,-39,14,73,-19,-58
-68,24,92,21,-80,58,0,-19,58,112,19,-34
-146,43,190,51,-168,117,19,19,117,161,78,14
-185,53,239,65,-212,146,19,34,170,200,107,34
-165,58,224,53,-195,141,-24,14,185,219,122,39
-87,73,161,7,-124,117,-102,-14,185,248,131,53
-14,97,112,-41,-63,104,-204,-48,185,273,151,63
19,126,107,-73,-43,117,-268,-78,175,307,175,78
24,146,122,-85,-48,134,-336,-126,136,317,195,102
58,175,117,-117,-29,146,-419,-180,92,322,214,117
102,209,107,-156,-2,158,-541,-229,53,317,219,131
156,244,87,-200,34,165,-653,-253,43,346,244,156
204,273,68,-239,68,170,-771,-248,14,395,297,195
278,302,24,-290,126,163,-936,-219,9,478,385,273
385,331,-53,-358,219,139,-1107,-156,68,580,468,346
468,351,-117,-409,292,117,-1234,-68,175,697,566,434
541,356,-185,-448,363,85,-1400,-48,219,795,644,502
629,370,-258,-500,444,56,-1629,-165,200,863,707,566
692,351,-341,-522,517,4,-1820,-336,156,902,766,619
722,292,-429,-507,575,-68,-1952,-448,146,956,834,673
780,268,-512,-524,646,-122,-2069,-517,165,1005,897,741
829,200,-629,-514,729,-214,-2093,-570,185,1015,912,766
829,63,-766,-446,797,-351,-2034,-590,156,936,863,746
800,-58,-858,-370,829,-458,-1927,-610,68,800,771,707
761,-136,-897,-312,829,-517,-1771,-619,0,697,707,673
717,-180,-897,-268,807,-539,-1571,-614,-4,649,673,658
707,-190,-897,-258,802,-544,-1376,-585,-9,610,639,629
712,-151,-863,-280,788,-507,-1205,-527,-53,527,580,580
707,-131,-839,-287,773,-485,-1063,-488,-136,409,488,507
692,-161,-854,-265,773,-507,-927,-483,-234,283,380,434
692,-180,-873,-256,783,-527,-844,-478,-346,161,278,351
658,-190,-849,-234,753,-519,-795,-463,-419,63,195,283
634,-200,-834,-217,734,-517,-771,-463,-458,-4,131,234
595,-204,-800,-195,697,-502,-761,-507,-492,-73,68,190
531,-195,-727,-168,629,-461,-732,-531,-507,-141,-4,122
468,-175,-644,-146,556,-409,-707,-517,-507,-204,-68,58
439,-165,-605,-136,522,-385,-678,-517,-517,-253,-122,4
434,-200,-634,-117,534,-417,-663,-536,-546,-302,-170,-29
405,-239,-644,-82,524,-441,-639,-566,-605,-336,-214,-58
380,-229,-610,-75,495,-419,-619,-580,-658,-380,-263,-102
375,-209,-585,-82,480,-397,-600,-570,-683,-400,-302,-122
341,-200,-541,-70,441,-370,-566,-551,-663,-400,-307,-136
307,-195,-502,-56,405,-348,-531,-531,-629,-385,-312,-156
283,-195,-478,-43,380,-336,-492,-517,-610,-385,-312,-180
234,-200,-434,-17,334,-317,-448,-502,-570,-366,-292,-175
165,-175,-341,4,253,-258,-405,-468,-531,-346,-292,-180
107,-136,-244,14,175,-190,-366,-439,-492,-326,-287,-200
63,-122,-185,29,124,-153,-322,-380,-434,-278,-263,-180
43,-117,-161,36,102,-139,-248,-326,-366,-219,-224,-161
34,-92,-126,29,80,-109,-185,-273,-322,-185,-214,-161
4,-68,-73,31,39,-70,-141,-229,-283,-175,-204,-165
-24,-63,-39,43,7,-51,-117,-195,-244,-156,-185,-156
-43,-39,4,41,-24,-17,-92,-146,-200,-122,-161,-141
-87,-34,53,61,-70,9,-48,-87,-131,-73,-107,-112
-126,-43,82,85,-104,19,0,-29,-63,-19,-73,-82
-87,-9,78,48,-82,34,24,0,-43,-9,-68,-82
-39,19,58,9,-48,39,39,4,-43,-19,-87,-97
-58,19,78,19,-68,48,68,29,-29,-4,-87,-92
-131,-34,97,82,-114,31,102,58,4,24,-58,-73
-180,-58,122,119,-151,31,131,78,14,34,-48,-53
-180,-43,136,112,-158,46,131,73,9,29,-53,-68
-180,-39,141,109,-161,51,126,73,14,34,-53,-73
-180,-29,151,104,-165,61,136,73,14,29,-58,-78
-195,-19,175,107,-185,78,126,68,19,29,-63,-82
-175,-14,161,95,-168,73,126,63,19,39,-63,-92
-156,-14,141,85,-148,63,126,58,19,39,-63,-92
-136,-9,126,73,-131,58,117,53,14,34,-68,-97
-117,-9,107,63,-112,48,112,48,9,34,-68,-97
-126,-9,117,68,-122,53,122,68,29,48,-53,-82
-141,-14,126,78,-134,56,131,78,39,53,-43,-73
-180,-19,161,100,-170,70,146,92,48,63,-29,-58
-219,-19,200,119,-209,90,161,102,63,78,-9,-43
-200,-14,185,107,-192,85,141,82,48,73,-24,-58
-185,-9,175,97,-180,82,136,73,39,68,-34,-68
-170,-4,165,87,-168,80,126,68,34,58,-43,-73
-151,4,156,73,-153,80,117,58,29,43,-58,-87
-146,-9,136,78,-141,63,126,58,29,43,-48,-78
-151,-24,126,87,-139,51,126,58,29,39,-48,-78
-151,-34,117,92,-134,41,126,63,29,39,-48,-78
-156,-39,117,97,-136,39,126,63,29,39,-48,-78
-170,-34,136,102,-153,51,131,68,34,53,-39,-78
-185,-19,165,102,-175,73,136,68,34,53,-39,-78
-200,-9,190,104,-195,90,146,68,39,53,-39,-78
-204,0,204,102,-204,102,161,73,48,58,-29,-78
-180,-9,170,95,-175,80,146,68,48,53,-34,-87
-161,-9,151,85,-156,70,141,63,43,43,-39,-82
-165,-14,151,90,-158,68,136,58,39,39,-48,-82
-161,-14,146,87,-153,65,131,53,34,34,-53,-82
-151,0,151,75,-151,75,122,48,24,24,-63,-82
-141,4,146,68,-143,75,122,48,24,29,-63,-87
-131,4,136,63,-134,70,126,48,24,29,-58,-87
-122,9,131,56,-126,70,126,48,24,29,-58,-87
-131,9,141,61,-136,75,136,48,29,39,-53,-78
-136,9,146,63,-141,78,136,53,34,39,-43,-73
-141,9,151,65,-146,80,141,58,39,39,-34,-73
-141,0,141,70,-141,70,146,68,43,48,-29,-73
-136,-9,126,73,-131,58,141,63,43,43,-34,-82
-122,-4,117,63,-119,56,136,58,39,34,-43,-82
-117,-4,112,61,-114,53,131,48,29,24,-48,-87
-107,-4,102,56,-104,48,126,43,19,19,-53,-87
-131,9,141,61,-136,75,136,48,34,24,-43,-82
-146,9,156,68,-151,82,141,53,39,29,-39,-73
-170,14,185,78,-178,100,146,58,43,43,-29,-68
-185,14,200,85,-192,107,161,68,53,53,-24,-63
-180,4,185,87,-183,95,170,68,48,48,-34,-63
-170,0,170,85,-170,85,170,63,43,43,-34,-68
-161,-4,156,82,-158,75,170,63,39,39,-34,-68
-151,-9,141,80,-146,65,170,58,29,29,-34,-68
-161,-9,151,85,-156,70,170,68,39,39,-24,-68
-180,-9,170,95,-175,80,180,73,43,43,-24,-63
-200,-9,190,104,-195,90,190,73,48,43,-24,-63
-214,-9,204,112,-209,97,190,78,48,43,-24,-63
-200,0,200,100,-200,100,185,73,39,29,-29,-68
-190,9,200,90,-195,104,185,68,34,24,-34,-73
-175,9,185,82,-180,97,185,63,34,24,-39,-78
-146,4,151,70,-148,78,185,58,34,24,-43,-87
-122,4,126,58,-124,65,190,58,34,14,-53,-92
-112,4,117,53,-114,61,190,63,34,14,-53,-92
-126,4,131,61,-129,68,195,63,34,14,-53,-92
-122,4,126,58,-124,65,204,68,34,19,-53,-87
-170,4,175,82,-173,90,214,82,43,34,-43,-73
-214,0,214,107,-214,107,229,87,53,39,-34,-68
-239,-9,229,124,-234,109,239,107,58,43,-24,-63
-258,0,258,129,-258,129,244,102,58,48,-24,-63
-234,0,234,117,-234,117,234,92,43,34,-34,-82
-209,0,209,104,-209,104,239,87,39,24,-43,-92
-185,0,185,92,-185,92,239,78,34,14,-48,-102
-161,0,161,80,-161,80,248,73,24,9,-53,-107
-180,9,190,85,-185,100,258,92,29,9,-43,-102
-209,4,214,102,-212,109,273,97,43,14,-39,-97
-229,4,234,112,-231,119,287,102,48,24,-39,-87
-244,0,244,122,-244,122,292,112,53,29,-43,-82
-258,-9,248,134,-253,119,307,102,43,19,-43,-82
-268,-9,258,139,-263,124,312,102,39,24,-48,-87
-278,14,292,131,-285,153,322,97,34,24,-53,-97
-263,4,268,129,-265,136,326,97,29,24,-53,-102
-239,9,248,114,-244,129,322,87,19,9,-68,-112
-244,9,253,117,-248,131,322,82,19,4,-73,-122
-239,14,253,112,-246,134,326,82,19,-4,-73,-131
-244,14,258,114,-251,136,341,82,19,-4,-73,-136
-263,14,278,124,-270,146,351,97,19,0,-73,-126
-273,14,287,129,-280,151,370,97,19,4,-73,-126
-292,14,307,139,-300,161,385,97,19,9,-73,-126
-292,14,307,139,-300,161,390,97,19,14,-73,-131
-283,9,292,136,-287,151,390,87,4,9,-82,-141
-278,9,287,134,-283,148,390,87,4,4,-87,-151
-278,9,287,134,-283,148,390,82,0,0,-92,-156
-273,19,292,126,-283,156,400,82,0,-9,-97,-156
-258,29,287,114,-273,158,400,82,0,-19,-102,-161
-253,29,283,112,-268,156,400,82,-9,-19,-107,-170
-244,29,273,107,-258,151,400,82,-9,-24,-112,-170
-239,29,268,104,-253,148,405,82,-14,-29,-112,-175
-258,24,283,117,-270,153,414,92,-14,-19,-102,-175
-263,19,283,122,-273,151,434,102,-9,-19,-97,-165
-283,14,297,134,-290,156,444,102,-9,-14,-97,-161
-292,9,302,141,-297,156,453,102,-4,-14,-92,-156
-268,24,292,122,-280,158,444,87,-19,-29,-102,-165
-248,29,278,109,-263,153,439,82,-24,-29,-107,-175
-234,34,268,100,-251,151,439,78,-29,-29,-112,-185
-219,39,258,90,-239,148,439,68,-34,-34,-117,-195
-239,39,278,100,-258,158,458,78,-19,-24,-112,-185
-268,43,312,112,-290,178,463,87,-9,-14,-102,-170
-287,43,331,122,-309,187,468,97,0,-9,-92,-161
-302,43,346,129,-324,195,463,107,4,-4,-87,-151
-307,34,341,136,-324,187,463,117,14,4,-82,-136
-317,34,351,141,-334,192,463,117,19,9,-73,-131
-317,34,351,141,-334,192,458,122,24,24,-63,-126
-317,39,356,139,-336,197,448,122,29,39,-53,-126
-283,43,326,119,-305,185,424,112,14,24,-68,-141
-263,43,307,109,-285,175,409,107,24,29,-68,-146
-234,43,278,95,-256,161,395,102,24,29,-63,-146
-200,43,244,78,-222,143,370,97,24,29,-63,-146
-209,39,248,85,-229,143,366,107,34,43,-48,-131
-219,39,258,90,-239,148,356,107,43,48,-43,-117
-234,39,273,97,-253,156,351,117,53,58,-34,-97
-248,39,287,104,-268,163,336,117,73,68,-24,-87
-234,48,283,92,-258,165,326,126,73,78,-4,-73
-234,48,283,92,-258,165,312,131,78,82,9,-53
-239,43,283,97,-261,163,307,136,82,92,24,-43
-239,43,283,97,-261,163,283,136,87,97,34,-34
-219,43,263,87,-241,153,263,126,82,92,29,-39
-195,43,239,75,-217,141,239,117,78,92,24,-39
-180,43,224,68,-202,134,219,107,73,92,24,-43
-156,34,190,61,-173,112,190,97,63,82,19,-43
-141,29,170,56,-156,100,175,82,58,82,14,-43
-122,34,156,43,-139,95,156,82,48,78,14,-43
-122,29,151,46,-136,90,141,78,43,78,14,-39
-122,19,141,51,-131,80,141,78,43,82,24,-39
-112,34,146,39,-129,90,126,78,39,97,24,-34
-107,39,146,34,-126,92,117,73,39,92,19,-29
-97,43,141,26,-119,92,107,68,39,87,19,-29
-87,48,136,19,-112,92,102,63,43,92,24,-29
-102,43,146,29,-124,95,107,78,58,102,48,-14
-117,29,146,43,-131,87,102,73,63,107,43,-9
-126,24,151,51,-139,87,92,73,58,112,34,-9
-131,19,151,56,-141,85,87,73,58,112,34,-9
-112,29,141,41,-126,85,73,63,39,97,34,-19
-117,34,151,41,-134,92,68,58,34,97,34,-19
-112,53,165,29,-139,109,58,48,34,102,39,-4
-102,48,151,26,-126,100,53,43,29,102,39,-4
-78,34,112,21,-95,73,48,39,19,92,34,-19
-53,34,87,9,-70,61,34,29,9,92,29,-24
-29,34,63,-2,-46,48,29,24,9,92,24,-24
-4,34,39,-14,-21,36,19,19,9,97,19,-19
-24,34,58,-4,-41,46,34,24,14,97,29,-19
-43,34,78,4,-61,56,34,29,14,97,24,-24
-68,29,97,19,-82,63,39,34,19,97,24,-24
-87,29,117,29,-102,73,43,34,24,97,24,-19
-73,29,102,21,-87,65,34,24,14,87,14,-19
-58,29,87,14,-73,58,29,14,9,82,14,-29
-48,29,78,9,-63,53,29,14,4,82,14,-29
-39,29,68,4,-53,48,39,14,0,82,9,-29
-58,24,82,17,-70,53,48,24,4,92,9,-24
-78,24,102,26,-90,63,48,24,9,92,14,-19
-92,24,117,34,-104,70,48,24,14,92,19,-19
-112,24,136,43,-124,80,48,24,19,92,24,-14
-97,24,122,36,-109,73,48,14,9,92,14,-19
-87,24,112,31,-100,68,48,14,9,87,14,-19
-78,24,102,26,-90,63,48,14,9,82,14,-24
-63,24,87,19,-75,56,48,9,9,82,9,-29
-63,34,97,14,-80,65,48,9,9,82,9,-29
-63,34,97,14,-80,65,48,9,4,78,9,-29
-63,34,97,14,-80,65,48,9,4,73,9,-29
-82,34,117,24,-100,75,53,9,9,73,9,-29
-97,34,131,31,-114,82,58,9,9,82,4,-39
-107,34,141,36,-124,87,58,9,9,82,4,-39
-112,34,146,39,-129,90,58,9,9,82,4,-39
-102,34,136,34,-119,85,58,9,14,92,4,-39
-102,29,131,36,-117,80,63,9,24,92,9,-34
-97,24,122,36,-109,73,58,4,19,87,4,-39
-107,14,122,46,-114,68,73,4,19,87,4,-39
-122,9,131,56,-126,70,78,4,24,82,9,-39
-136,14,151,61,-143,82,78,4,14,82,19,-34
-136,19,156,58,-146,87,78,4,14,87,9,-34
-141,19,161,61,-151,90,78,14,14,87,9,-34
-146,24,170,61,-158,97,82,14,14,87,14,-29
-146,19,165,63,-156,92,78,14,14,68,0,-43
-141,24,165,58,-153,95,73,9,9,63,-4,-53
-131,29,161,51,-146,95,68,4,9,68,-9,-58
-117,29,146,43,-131,87,73,0,4,63,-19,-63
-78,34,112,21,-95,73,53,-9,-14,58,-24,-63
-48,34,82,7,-65,58,43,-14,-19,43,-29,-63
-39,34,73,2,-56,53,43,-19,-24,39,-29,-63
-39,34,73,2,-56,53,48,-24,-29,39,-29,-63
-53,34,87,9,-70,61,48,-14,-24,48,-14,-58
-58,34,92,12,-75,63,48,-14,-19,48,-14,-53
-68,34,102,17,-85,68,48,-14,-14,48,-14,-53
-78,34,112,21,-95,73,48,-14,-9,48,-9,-48
-78,34,112,21,-95,73,39,-14,-19,39,-19,-53
-78,34,112,21,-95,73,34,-19,-19,39,-24,-58
-82,29,112,26,-97,70,34,-24,-19,39,-19,-58
-82,29,112,26,-97,70,34,-29,-14,43,-19,-63
-87,24,112,31,-100,68,43,-24,-9,53,-14,-53
-87,24,112,31,-100,68,43,-19,-9,53,-14,-53
-87,24,112,31,-100,68,34,-14,-9,53,-9,-58
-82,24,107,29,-95,65,29,-14,-9,43,-4,-58
-107,24,131,41,-119,78,34,-4,0,53,0,-53
-122,24,146,48,-134,85,39,0,4,63,4,-43
-131,24,156,53,-143,90,43,0,4,73,9,-39
-131,24,156,53,-143,90,48,0,4,73,14,-34
-141,19,161,61,-151,90,53,0,4,68,14,-24
-146,24,170,61,-158,97,48,4,9,68,14,-29
-141,39,180,51,-161,109,53,0,14,63,9,-29
-151,48,200,51,-175,124,53,4,14,63,9,-29
-136,48,185,43,-161,117,34,-14,4,43,0,-43
-112,39,151,36,-131,95,29,-19,-4,43,-9,-48
-97,24,122,36,-109,73,24,-24,-9,43,-19,-53
-87,14,102,36,-95,58,19,-24,-14,48,-24,-63
-92,19,112,36,-102,65,9,-24,-19,48,-29,-63
-97,24,122,36,-109,73,9,-24,-19,43,-29,-63
-82,29,112,26,-97,70,9,-24,-14,43,-29,-58
-78,34,112,21,-95,73,14,-24,-14,39,-29,-58
-82,43,126,19,-104,85,19,-14,-4,48,-14,-48
-92,43,136,24,-114,90,19,-14,-9,48,-14,-43
-102,39,141,31,-122,90,24,-14,-14,43,-14,-43
-107,39,146,34,-126,92,29,-14,-14,34,-14,-48
-78,39,117,19,-97,78,9,-24,-19,29,-24,-58
-53,34,87,9,-70,61,-4,-29,-24,29,-29,-58
-39,19,58,9,-48,39,0,-34,-24,29,-34,-58
-29,14,43,7,-36,29,-4,-39,-24,29,-39,-58
-19,39,58,-9,-39,48,-14,-43,-34,24,-39,-63
-29,39,68,-4,-48,53,-14,-48,-34,24,-39,-58
-39,34,73,2,-56,53,-4,-43,-34,34,-29,-58
-39,34,73,2,-56,53,-4,-48,-34,34,-29,-63
-68,48,117,9,-92,82,4,-34,-14,53,-29,-53
-82,53,136,14,-109,95,9,-29,-9,58,-19,-48
-97,53,151,21,-124,102,4,-29,0,58,-9,-43
-122,48,170,36,-146,109,14,-19,9,63,0,-34
-239,68,307,85,-273,187,63,19,53,102,48,14
-185,78,263,53,-224,170,29,-4,34,87,19,-4
-87,78,165,4,-126,122,-9,-34,4,68,-4,-43
19,87,68,-53,-24,78,-48,-68,-29,29,-39,-78
9,78,68,-43,-29,73,-48,-78,-39,29,-39,-87
9,78,68,-43,-29,73,-48,-78,-39,29,-39,-87
9,78,68,-43,-29,73,-48,-78,-39,29,-39,-87
9,78,68,-43,-29,73,-48,-78,-39,29,-39,-87
-4,78,82,-36,-43,80,-39,-63,-34,43,-34,-63
0,78,78,-39,-39,78,-43,-63,-29,43,-24,-58
-14,92,107,-39,-61,100,-43,-58,-24,48,-14,-58
-29,92,122,-31,-75,107,-48,-58,-14,48,-9,-53
-48,82,131,-17,-90,107,-39,-48,-4,53,4,-39
-58,82,141,-12,-100,112,-39,-43,-4,58,4,-39
-53,82,136,-14,-95,109,-48,-43,-9,63,4,-43
-53,82,136,-14,-95,109,-53,-53,-19,58,-9,-48
-58,92,151,-17,-104,122,-48,-43,-14,58,-9,-53
-63,97,161,-17,-112,129,-39,-43,-14,63,-4,-53
-78,97,175,-9,-126,136,-34,-39,-14,73,9,-48
-97,97,195,0,-146,146,-29,-39,-9,78,19,-39
-78,87,165,-4,-122,126,-34,-43,0,87,29,-34
-63,92,156,-14,-109,124,-39,-43,4,87,29,-34
-39,107,146,-34,-92,126,-48,-43,4,87,24,-34
-19,97,117,-39,-68,107,-53,-43,0,87,24,-34
-24,97,122,-36,-73,109,-43,-39,0,87,19,-24
-39,97,136,-29,-87,117,-43,-39,-4,82,19,-24
-73,102,175,-14,-124,139,-53,-39,-4,82,19,-24
-107,97,204,4,-156,151,-43,-39,-4,87,24,-19
-87,82,170,2,-129,126,-53,-39,-14,78,14,-24
-73,82,156,-4,-114,119,-53,-39,-14,78,14,-29
-58,82,141,-12,-100,112,-53,-39,-19,78,14,-39
-39,73,112,-17,-75,92,-53,-39,-19,78,19,-43
-4,73,78,-34,-41,75,-58,-43,-19,63,4,-53
-4,78,82,-36,-43,80,-58,-48,-19,58,0,-48
4,82,78,-43,-36,80,-58,-53,-24,53,-4,-43
14,82,68,-48,-26,75,-68,-48,-29,48,-9,-43
9,102,92,-56,-41,97,-63,-43,-24,53,9,-39
-9,102,112,-46,-61,107,-48,-39,-14,63,14,-34
-34,97,131,-31,-82,114,-43,-34,-9,68,19,-19
-63,97,161,-17,-112,129,-39,-34,-9,68,19,-24
-43,92,136,-24,-90,114,-53,-53,-14,53,14,-29
-39,78,117,-19,-78,97,-48,-58,-19,48,0,-43
-73,58,131,7,-102,95,-34,-58,-24,43,-9,-53
-63,48,112,7,-87,80,-34,-63,-34,39,-24,-68
-68,43,112,12,-90,78,-24,-58,-39,14,-29,-78
-58,48,107,4,-82,78,-29,-63,-53,14,-39,-82
-63,48,112,7,-87,80,-29,-63,-53,14,-39,-82
-73,53,126,9,-100,90,-29,-63,-53,9,-39,-82
-82,58,141,12,-112,100,-24,-63,-39,19,-39,-73
-92,48,141,21,-117,95,-14,-53,-34,24,-34,-68
-97,48,146,24,-122,97,-9,-48,-34,29,-29,-68
-102,48,151,26,-126,100,-9,-48,-34,34,-29,-68
-117,43,161,36,-139,102,-4,-39,-24,43,-14,-63
-126,43,170,41,-148,107,0,-34,-19,43,-14,-58
-146,39,185,53,-165,112,14,-24,-14,43,-14,-48
-151,39,190,56,-170,114,19,-24,-14,43,-14,-43
-126,43,170,41,-148,107,9,-43,-29,34,-29,-63
-97,43,141,26,-119,92,4,-43,-34,29,-39,-73
-92,43,136,24,-114,90,0,-43,-43,19,-39,-78
-97,39,136,29,-117,87,-4,-43,-43,19,-39,-82
-102,48,151,26,-126,100,4,-34,-29,34,-34,-78
-107,43,151,31,-129,97,4,-34,-29,34,-29,-78
-102,43,146,29,-124,95,0,-48,-34,34,-29,-73
-102,43,146,29,-124,95,0,-39,-34,34,-24,-68
-112,34,146,39,-129,90,9,-29,-24,39,-19,-48
-136,34,170,51,-153,102,9,-29,-24,48,-14,-43
-151,34,185,58,-168,109,9,-29,-19,53,-4,-34
-161,29,190,65,-175,109,9,-24,-14,68,4,-29
-136,39,175,48,-156,107,0,-34,-14,53,-4,-48
-122,39,161,41,-141,100,-4,-39,-19,48,-9,-58
-102,39,141,31,-122,90,-4,-43,-29,43,-19,-68
-82,43,126,19,-104,85,-14,-48,-34,34,-24,-78
-78,39,117,19,-97,78,-14,-48,-34,34,-29,-87
-68,24,92,21,-80,58,-14,-43,-34,39,-34,-82
-58,29,87,14,-73,58,-14,-43,-29,43,-34,-82
-53,24,78,14,-65,51,-14,-43,-29,43,-39,-82
-87,19,107,34,-97,63,0,-29,-19,48,-24,-63
-117,19,136,48,-126,78,14,-19,-9,58,-14,-48
-131,24,156,53,-143,90,24,-4,0,68,-4,-34
-180,24,204,78,-192,114,39,9,9,78,0,-19
-165,-4,161,85,-163,78,39,9,9,78,0,-29
-141,-19,122,80,-131,51,39,9,9,78,0,-29
-117,-34,82,75,-100,24,39,9,9,78,0,-29
-112,-48,63,80,-87,7,34,4,9,68,-9,-34
-92,-14,78,53,-85,31,9,-19,-14,43,-24,-63
-68,0,68,34,-68,34,-4,-39,-29,34,-39,-78
-29,14,43,7,-36,29,-19,-53,-43,19,-48,-92
4,34,29,-19,-12,31,-39,-73,-58,4,-63,-107
-24,63,87,-19,-56,75,-24,-58,-39,24,-53,-82
-48,112,161,-31,-104,136,-24,-68,-34,24,-48,-78
-68,122,190,-26,-129,156,-29,-58,-19,53,-29,-53
-68,102,170,-17,-119,136,-29,-58,9,73,0,-34
-58,102,161,-21,-109,131,-29,-43,34,92,9,-24
-58,87,146,-14,-102,117,-24,-24,78,131,43,0
-68,112,180,-21,-124,146,-53,-24,107,161,73,14
-73,146,219,-36,-146,183,-126,-58,126,185,92,24
-68,165,234,-48,-151,200,-200,-68,156,229,136,68
-63,195,258,-65,-161,226,-258,-78,175,287,175,112
-48,224,273,-87,-161,248,-322,-112,141,292,195,117
-24,229,253,-102,-139,241,-395,-170,92,297,200,141
9,253,244,-131,-117,248,-488,-204,73,317,234,165
58,283,224,-170,-82,253,-595,-219,63,346,258,185
122,331,209,-226,-43,270,-722,-239,19,370,287,224
200,361,161,-280,19,261,-902,-253,-29,414,331,268
283,351,68,-317,107,209,-1088,-214,0,512,419,336
395,356,-39,-375,217,158,-1254,-126,92,610,497,395
522,409,-112,-466,317,148,-1405,-97,141,707,580,458
614,448,-165,-531,390,141,-1605,-161,156,805,678,541
644,429,-214,-536,429,107,-1795,-302,136,888,766,624
683,375,-307,-529,495,34,-1932,-439,97,936,819,673
771,336,-434,-553,602,-48,-2054,-522,87,966,863,717
829,278,-551,-553,690,-136,-2132,-580,107,966,893,746
819,156,-663,-488,741,-253,-2103,-610,97,897,849,746
790,29,-761,-409,775,-366,-2005,-619,19,756,756,712
785,-73,-858,-356,822,-466,-1883,-653,-63,619,663,658
766,-112,-878,-326,822,-495,-1708,-663,-87,541,619,619
751,-122,-873,-314,812,-497,-1517,-653,-92,507,580,590
775,-112,-888,-331,832,-500,-1337,-575,-117,448,536,566
800,-112,-912,-344,856,-512,-1161,-502,-175,361,468,512
790,-122,-912,-334,851,-517,-1010,-478,-268,239,356,429
756,-141,-897,-307,827,-519,-902,-492,-370,102,244,341
712,-161,-873,-275,793,-517,-858,-492,-478,-24,151,273
683,-146,-829,-268,756,-488,-829,-488,-522,-112,68,219
639,-146,-785,-246,712,-466,-819,-512,-556,-170,14,170
585,-156,-741,-214,663,-448,-795,-556,-575,-234,-39,117
