I,II,III,aVR,aVL,aVF,V1,V2,V3,V4,V5,V6
14,39,24,-26,-4,31,-43,-48,-43,9,14,29
14,39,24,-26,-4,31,-43,-43,-43,9,14,24
14,39,24,-26,-4,31,-43,-43,-43,9,14,24
9,39,29,-24,-9,34,-39,-48,-43,9,19,29
4,39,34,-21,-14,36,-39,-48,-43,14,19,29
4,48,43,-26,-19,46,-34,-43,-43,14,24,34
0,53,53,-26,-26,53,-29,-43,-43,19,29,39
-9,53,63,-21,-36,58,-29,-43,-43,19,29,43
-9,58,68,-24,-39,63,-29,-48,-43,19,24,43
0,58,58,-29,-29,58,-29,-48,-43,14,24,39
0,58,58,-29,-29,58,-24,-48,-43,14,19,39
-9,58,68,-24,-39,63,-24,-48,-48,14,19,39
-14,63,78,-24,-46,70,-24,-48,-48,14,19,43
-19,63,82,-21,-51,73,-24,-48,-48,14,19,48
-19,68,87,-24,-53,78,-24,-48,-48,14,19,48
-24,68,92,-21,-58,80,-24,-48,-48,14,19,48
-19,68,87,-24,-53,78,-29,-53,-53,9,14,43
-14,68,82,-26,-48,75,-29,-53,-53,9,14,43
0,63,63,-31,-31,63,-29,-53,-53,4,9,39
4,53,48,-29,-21,51,-29,-53,-58,0,9,34
9,48,39,-29,-14,43,-24,-53,-53,0,9,29
9,39,29,-24,-9,34,-24,-53,-53,0,9,29
9,39,29,-24,-9,34,-24,-48,-53,4,9,29
19,39,19,-29,0,29,-24,-48,-53,4,14,29
24,39,14,-31,4,26,-24,-53,-53,0,9,29
24,29,4,-26,9,17,-24,-53,-58,-9,4,24
24,29,4,-26,9,17,-24,-53,-58,-14,4,19
19,24,4,-21,7,14,-19,-48,-58,-14,4,19
14,19,4,-17,4,12,-14,-48,-58,-9,9,24
0,19,19,-9,-9,19,-14,-43,-53,-9,9,24
-19,19,39,0,-29,29,-9,-43,-53,-9,9,24
-24,24,48,0,-36,36,-9,-43,-53,0,14,29
-34,24,58,4,-46,41,-9,-43,-58,0,14,29
-34,19,53,7,-43,36,-14,-48,-58,-9,9,29
-39,9,48,14,-43,29,-9,-48,-63,-14,0,24
-43,4,48,19,-46,26,-9,-53,-63,-19,-9,19
-43,0,43,21,-43,21,-9,-53,-68,-24,-14,14
-43,-9,34,26,-39,12,0,-53,-68,-29,-14,9
-39,-14,24,26,-31,4,-9,-53,-73,-34,-19,4
-29,-14,14,21,-21,0,-9,-53,-73,-34,-24,0
-14,-14,0,14,-7,-7,-14,-58,-78,-39,-29,0
0,-14,-14,7,7,-14,-14,-58,-78,-43,-29,-9
9,-14,-24,2,17,-19,-19,-58,-78,-43,-34,-9
19,-9,-29,-4,24,-19,-19,-63,-82,-43,-34,-14
24,-9,-34,-7,29,-21,-19,-63,-82,-43,-34,-9
29,0,-29,-14,29,-14,-24,-63,-82,-43,-34,-9
29,9,-19,-19,24,-4,-34,-68,-82,-43,-29,0
34,14,-19,-24,26,-2,-39,-68,-82,-39,-29,0
34,19,-14,-26,24,2,-39,-68,-82,-39,-24,4
34,24,-9,-29,21,7,-43,-68,-78,-34,-19,9
29,34,4,-31,12,19,-43,-68,-78,-29,-14,14
24,34,9,-29,7,21,-48,-68,-78,-24,-9,19
19,39,19,-29,0,29,-43,-68,-78,-24,-9,19
14,39,24,-26,-4,31,-43,-68,-73,-24,-9,19
14,43,29,-29,-7,36,-43,-68,-73,-24,-9,19
4,34,29,-19,-12,31,-43,-68,-73,-19,-9,19
-9,29,39,-9,-24,34,-43,-68,-73,-19,0,19
-19,24,43,-2,-31,34,-39,-63,-68,-19,0,19
-24,19,43,2,-34,31,-39,-63,-63,-14,4,19
-29,14,43,7,-36,29,-34,-58,-63,-14,4,19
-29,4,34,12,-31,19,-34,-58,-63,-14,4,14
-34,0,34,17,-34,17,-39,-58,-63,-9,4,14
-29,0,29,14,-29,14,-39,-58,-63,-9,4,14
-29,0,29,14,-29,14,-39,-58,-58,-9,9,19
-24,0,24,12,-24,12,-43,-58,-58,-9,9,19
-24,4,29,9,-26,17,-48,-58,-63,-9,9,19
-19,9,29,4,-24,19,-48,-63,-63,-9,9,19
-9,14,24,-2,-17,19,-53,-63,-63,-9,9,19
9,24,14,-17,-2,19,-53,-68,-63,-9,9,19
19,29,9,-24,4,19,-58,-68,-63,-9,9,24
24,39,14,-31,4,26,-58,-68,-63,-9,9,24
24,43,19,-34,2,31,-58,-63,-63,0,14,29
24,48,24,-36,0,36,-53,-63,-58,0,14,29
19,48,29,-34,-4,39,-48,-63,-58,0,14,29
14,43,29,-29,-7,36,-43,-63,-58,0,14,29
9,43,34,-26,-12,39,-43,-58,-58,4,14,29
14,39,24,-26,-4,31,-39,-53,-53,4,14,24
14,34,19,-24,-2,26,-39,-53,-48,4,14,24
14,39,24,-26,-4,31,-34,-53,-48,9,14,29
19,39,19,-29,0,29,-39,-48,-48,9,19,29
19,43,24,-31,-2,34,-39,-48,-43,14,19,29
19,48,29,-34,-4,39,-39,-53,-39,14,19,29
14,48,34,-31,-9,41,-39,-53,-43,14,19,29
9,53,43,-31,-17,48,-39,-53,-39,14,24,34
9,53,43,-31,-17,48,-39,-53,-39,19,29,39
4,58,53,-31,-24,56,-39,-48,-34,24,34,43
9,63,53,-36,-21,58,-43,-48,-34,29,39,48
9,68,58,-39,-24,63,-43,-48,-34,29,39,48
14,73,58,-43,-21,65,-43,-53,-34,29,39,53
14,73,58,-43,-21,65,-39,-53,-34,34,43,53
4,68,63,-36,-29,65,-34,-48,-29,34,43,53
-9,58,68,-24,-39,63,-29,-48,-29,34,39,48
-19,48,68,-14,-43,58,-24,-48,-29,34,39,48
-29,43,73,-7,-51,58,-19,-48,-34,34,39,48
-24,34,58,-4,-41,46,-19,-48,-34,29,39,43
-19,29,48,-4,-34,39,-19,-48,-34,24,34,39
-9,24,34,-7,-21,29,-19,-43,-34,24,29,34
0,29,29,-14,-14,29,-19,-48,-34,19,24,29
4,29,24,-17,-9,26,-19,-39,-34,19,24,29
0,24,24,-12,-12,24,-19,-39,-34,19,24,29
-9,19,29,-4,-19,24,-14,-39,-34,19,29,29
-19,19,39,0,-29,29,-14,-39,-34,19,24,34
-24,24,48,0,-36,36,-14,-39,-39,19,29,34
-24,29,53,-2,-39,41,-14,-43,-39,19,29,34
-19,29,48,-4,-34,39,-19,-43,-43,14,24,34
-9,34,43,-12,-26,39,-19,-43,-43,14,19,34
0,34,34,-17,-17,34,-14,-48,-43,9,19,29
9,34,24,-21,-7,29,-14,-48,-43,9,19,29
14,39,24,-26,-4,31,-9,-43,-43,9,19,29
14,34,19,-24,-2,26,-9,-43,-48,9,14,24
9,29,19,-19,-4,24,-9,-48,-48,4,9,24
4,24,19,-14,-7,21,0,-48,-53,0,9,19
0,19,19,-9,-9,19,-9,-53,-53,0,4,19
4,19,14,-12,-4,17,-9,-53,-58,-9,0,14
9,14,4,-12,2,9,-14,-58,-63,-14,-9,14
9,14,4,-12,2,9,-19,-58,-68,-19,-14,9
14,14,0,-14,7,7,-19,-63,-68,-19,-14,9
4,14,9,-9,-2,12,-19,-63,-68,-19,-9,14
-19,9,29,4,-24,19,-19,-63,-68,-14,-9,14
-43,4,48,19,-46,26,-19,-63,-68,-14,0,19
-68,-9,58,39,-63,24,-19,-63,-68,-14,0,19
-78,-9,68,43,-73,29,-19,-63,-68,-9,0,24
-78,-9,68,43,-73,29,-19,-68,-73,-14,0,24
-73,-14,58,43,-65,21,-19,-68,-73,-14,-9,19
-68,-14,53,41,-61,19,-19,-68,-78,-19,-9,19
-63,-19,43,41,-53,12,-19,-68,-73,-19,-9,19
-63,-19,43,41,-53,12,-14,-63,-73,-14,-9,19
-63,-14,48,39,-56,17,-9,-63,-73,-14,-9,19
-63,-14,48,39,-56,17,-9,-63,-73,-19,-9,19
-58,-14,43,36,-51,14,-9,-63,-73,-19,-9,14
-39,-9,29,24,-34,9,-14,-68,-73,-19,-14,14
-14,4,19,4,-17,12,-19,-68,-78,-24,-19,9
14,9,-4,-12,9,2,-24,-68,-82,-29,-19,4
29,14,-14,-21,21,0,-29,-68,-82,-34,-24,0
34,14,-19,-24,26,-2,-34,-68,-82,-34,-24,0
34,14,-19,-24,26,-2,-34,-63,-78,-29,-24,0
34,14,-19,-24,26,-2,-34,-63,-78,-29,-24,0
29,19,-9,-24,19,4,-34,-63,-78,-29,-19,0
24,19,-4,-21,14,7,-39,-63,-78,-24,-19,4
19,19,0,-19,9,9,-39,-68,-78,-24,-19,4
14,24,9,-19,2,17,-39,-68,-78,-24,-14,9
14,24,9,-19,2,17,-34,-63,-73,-19,-9,14
4,24,19,-14,-7,21,-29,-63,-73,-14,-9,19
-14,24,39,-4,-26,31,-29,-63,-73,-14,0,24
-24,24,48,0,-36,36,-24,-63,-68,-9,4,29
-29,24,53,2,-41,39,-24,-63,-68,-9,4,29
-43,29,73,7,-58,51,-19,-63,-68,0,9,34
-53,29,82,12,-68,56,-19,-58,-63,4,14,39
-58,34,92,12,-75,63,-19,-63,-63,4,19,43
-58,34,92,12,-75,63,-19,-63,-63,4,19,43
-53,39,92,7,-73,65,-19,-63,-68,0,19,43
-48,43,92,2,-70,68,-24,-68,-68,0,19,43
-39,43,82,-2,-61,63,-29,-68,-68,0,14,39
-34,39,73,-2,-53,56,-29,-68,-73,-9,9,34
-29,34,63,-2,-46,48,-29,-68,-73,-9,9,29
-24,29,53,-2,-39,41,-34,-63,-73,-14,4,29
-24,29,53,-2,-39,41,-29,-63,-73,-14,4,24
-19,29,48,-4,-34,39,-29,-63,-68,-14,4,24
-14,29,43,-7,-29,36,-24,-58,-68,-9,4,24
-14,29,43,-7,-29,36,-24,-58,-63,-9,4,19
-14,29,43,-7,-29,36,-19,-53,-63,-9,9,24
-19,24,43,-2,-31,34,-14,-48,-58,0,9,19
-24,14,39,4,-31,26,-14,-48,-58,0,9,19
-19,9,29,4,-24,19,-9,-48,-58,0,9,14
-14,4,19,4,-17,12,-9,-48,-58,-9,4,9
0,4,4,-2,-2,4,-14,-48,-58,-14,4,9
9,4,-4,-7,7,0,-19,-48,-58,-14,0,4
14,4,-9,-9,12,-2,-19,-43,-58,-14,4,4
14,4,-9,-9,12,-2,-19,-43,-58,-14,4,4
19,9,-9,-14,14,0,-19,-48,-58,-14,4,9
19,9,-9,-14,14,0,-24,-48,-58,-14,0,4
29,9,-19,-19,24,-4,-24,-48,-63,-19,0,4
39,9,-29,-24,34,-9,-29,-53,-63,-24,-9,0
43,14,-29,-29,36,-7,-29,-53,-63,-24,-9,0
43,14,-29,-29,36,-7,-24,-48,-63,-24,-9,4
29,14,-14,-21,21,0,-19,-48,-58,-19,0,9
14,14,0,-14,7,7,-9,-43,-53,-14,4,14
-9,14,24,-2,-17,19,0,-43,-53,-9,9,19
-24,14,39,4,-31,26,4,-39,-48,0,9,24
-29,14,43,7,-36,29,4,-43,-53,0,9,24
-29,14,43,7,-36,29,4,-43,-53,-9,4,24
-24,14,39,4,-31,26,4,-43,-58,-14,0,19
-24,14,39,4,-31,26,4,-48,-58,-14,-9,19
-24,14,39,4,-31,26,0,-48,-58,-14,-9,19
-24,19,43,2,-34,31,0,-48,-63,-14,-9,19
-24,19,43,2,-34,31,-9,-53,-63,-14,-9,19
-14,19,34,-2,-24,26,-9,-53,-63,-14,0,19
-9,19,29,-4,-19,24,-14,-53,-63,-14,0,19
0,24,24,-12,-12,24,-14,-53,-63,-14,-9,14
0,19,19,-9,-9,19,-14,-53,-68,-14,0,14
-9,19,29,-4,-19,24,-14,-53,-68,-14,0,14
-19,14,34,2,-26,24,-9,-53,-63,-9,0,19
-29,14,43,7,-36,29,0,-48,-63,-9,4,19
-34,9,43,12,-39,26,0,-48,-63,0,4,19
-39,9,48,14,-43,29,4,-48,-63,0,4,19
-39,4,43,17,-41,24,4,-48,-63,0,4,19
-48,4,53,21,-51,29,9,-48,-63,0,4,19
-53,4,58,24,-56,31,9,-48,-63,0,4,19
-58,4,63,26,-61,34,9,-48,-63,-9,4,19
-58,4,63,26,-61,34,4,-48,-63,-9,4,19
-58,9,68,24,-63,39,4,-53,-68,-9,4,24
-48,19,68,14,-58,43,0,-53,-68,0,4,24
-34,24,58,4,-46,41,-9,-58,-68,0,9,24
-19,34,53,-7,-36,43,-19,-58,-73,-14,4,24
0,39,39,-19,-19,39,-24,-63,-73,-14,4,24
4,39,34,-21,-14,36,-34,-63,-73,-14,4,24
9,39,29,-24,-9,34,-39,-68,-78,-14,4,24
14,39,24,-26,-4,31,-43,-73,-78,-14,4,24
19,39,19,-29,0,29,-48,-73,-82,-14,4,24
29,39,9,-34,9,24,-58,-78,-82,-14,4,24
34,43,9,-39,12,26,-58,-78,-87,-19,4,24
39,43,4,-41,17,24,-63,-82,-87,-19,0,24
39,43,4,-41,17,24,-63,-82,-92,-19,0,24
39,43,4,-41,17,24,-68,-87,-92,-19,0,24
34,39,4,-36,14,21,-73,-92,-97,-24,0,24
24,39,14,-31,4,26,-78,-97,-97,-19,0,24
14,39,24,-26,-4,31,-82,-102,-97,-19,4,29
4,39,34,-21,-14,36,-82,-107,-97,-14,4,24
4,43,39,-24,-17,41,-82,-107,-102,-14,9,29
-9,53,63,-21,-36,58,-82,-107,-102,-9,9,39
-14,58,73,-21,-43,65,-82,-107,-102,-9,9,39
-24,58,82,-17,-53,70,-82,-107,-97,0,14,43
-29,58,87,-14,-58,73,-87,-112,-102,0,14,43
-39,53,92,-7,-65,73,-82,-107,-97,0,19,48
-48,43,92,2,-70,68,-78,-107,-97,4,19,43
-48,34,82,7,-65,58,-73,-97,-92,4,19,39
-43,29,73,7,-58,51,-58,-87,-78,4,19,29
-43,14,58,14,-51,36,-48,-73,-68,14,19,24
-39,9,48,14,-43,29,-39,-53,-48,19,24,29
-29,4,34,12,-31,19,-34,-43,-34,29,34,29
-9,0,9,4,-9,4,-29,-29,-19,34,39,29
9,-19,-29,4,19,-24,-24,0,14,39,39,29
34,-19,-53,-7,43,-36,-14,29,53,48,53,29
63,-14,-78,-24,70,-46,-19,53,92,78,78,43
87,39,-48,-63,68,-4,-39,53,117,107,112,78
117,126,9,-122,53,68,-78,34,117,151,175,141
146,263,117,-204,14,190,-131,4,117,209,258,229
165,419,253,-292,-43,336,-195,-39,92,268,331,326
165,580,414,-373,-124,497,-268,-97,58,307,409,434
185,775,590,-480,-202,683,-346,-161,14,346,483,546
224,971,746,-597,-261,858,-429,-229,-24,385,551,658
258,1146,888,-702,-314,1017,-507,-278,-39,409,595,746
292,1278,985,-785,-346,1132,-561,-307,-43,419,634,800
326,1361,1034,-844,-353,1198,-600,-317,-39,439,649,829
346,1405,1058,-875,-356,1232,-619,-312,-14,468,668,829
351,1405,1054,-878,-351,1229,-614,-297,19,488,673,805
346,1356,1010,-851,-331,1183,-580,-268,48,497,649,751
336,1283,946,-810,-305,1115,-541,-229,87,502,619,683
322,1180,858,-751,-268,1019,-492,-190,112,497,575,590
297,1058,761,-678,-231,910,-429,-151,136,488,522,497
248,932,683,-590,-217,807,-351,-112,156,473,463,400
190,805,614,-497,-212,710,-278,-73,170,439,390,312
151,663,512,-407,-180,588,-200,-24,185,385,297,209
122,483,361,-302,-119,422,-126,34,209,312,185,87
82,287,204,-185,-61,246,-43,92,234,239,92,-24
43,126,82,-85,-19,104,43,151,263,195,34,-92
24,24,0,-24,12,12,102,219,302,185,9,-126
24,-63,-87,19,56,-75,146,268,341,170,-9,-151
24,-170,-195,73,109,-183,195,317,380,151,-39,-190
14,-287,-302,136,158,-295,253,380,429,136,-63,-244
0,-375,-375,187,187,-375,312,444,488,141,-68,-268
0,-448,-448,224,224,-448,366,512,551,161,-68,-287
-9,-507,-497,258,244,-502,414,580,624,170,-63,-302
-9,-536,-527,273,258,-531,453,639,668,180,-63,-302
-9,-531,-522,270,256,-527,478,673,697,180,-63,-297
-19,-517,-497,268,239,-507,502,692,712,195,-58,-283
-24,-492,-468,258,222,-480,522,712,727,209,-43,-273
-24,-473,-448,248,212,-461,541,741,746,219,-34,-258
-19,-468,-448,244,214,-458,561,766,771,224,-34,-248
-9,-473,-463,241,226,-468,580,790,790,224,-34,-248
4,-458,-463,226,234,-461,580,800,785,219,-39,-244
9,-434,-444,212,226,-439,556,766,751,214,-34,-234
19,-390,-409,185,214,-400,512,702,692,214,-24,-200
9,-341,-351,165,180,-346,458,624,610,219,-9,-180
-9,-307,-297,158,143,-302,400,522,517,219,14,-146
-24,-268,-244,146,109,-256,346,429,434,214,29,-122
-53,-239,-185,146,65,-212,297,336,351,214,43,-97
-78,-209,-131,143,26,-170,258,253,268,214,53,-73
-102,-185,-82,143,-9,-134,219,170,195,185,53,-53
-117,-165,-48,141,-34,-107,190,112,131,165,53,-43
-117,-141,-24,129,-46,-82,165,73,78,141,43,-34
-102,-122,-19,112,-41,-70,141,48,53,122,39,-24
-97,-112,-14,104,-41,-63,131,34,24,102,29,-24
-82,-102,-19,92,-31,-61,112,19,9,73,19,-24
-73,-97,-24,85,-24,-61,87,9,-14,48,4,-24
-58,-92,-34,75,-12,-63,82,4,-19,24,-9,-29
-48,-87,-39,68,-4,-63,68,9,-19,14,-24,-29
-48,-82,-34,65,-7,-58,58,4,-29,0,-29,-34
-48,-82,-34,65,-7,-58,53,4,-24,-19,-29,-29
-53,-78,-24,65,-14,-51,48,4,-24,-29,-29,-29
-53,-73,-19,63,-17,-46,39,4,-29,-29,-34,-29
-48,-68,-19,58,-14,-43,39,4,-29,-34,-34,-39
-48,-73,-24,61,-12,-48,39,0,-24,-34,-34,-39
-58,-68,-9,63,-24,-39,39,-14,-34,-39,-34,-34
-58,-68,-9,63,-24,-39,39,-14,-39,-34,-34,-34
-58,-68,-9,63,-24,-39,39,-14,-39,-43,-34,-29
-53,-68,-14,61,-19,-41,34,-14,-43,-43,-39,-29
-48,-73,-24,61,-12,-48,34,-14,-43,-43,-39,-34
-39,-73,-34,56,-2,-53,29,-19,-48,-53,-48,-34
-24,-68,-43,46,9,-56,24,-24,-48,-53,-48,-39
-9,-68,-58,39,24,-63,24,-29,-53,-58,-58,-43
4,-73,-78,34,41,-75,19,-34,-58,-68,-63,-53
9,-73,-82,31,46,-78,24,-34,-63,-68,-63,-53
9,-68,-78,29,43,-73,24,-29,-58,-68,-63,-48
4,-68,-73,31,39,-70,19,-29,-53,-68,-58,-43
-9,-63,-53,36,21,-58,24,-24,-53,-63,-58,-43
-19,-58,-39,39,9,-48,19,-24,-48,-58,-53,-39
-29,-63,-34,46,2,-48,24,-24,-48,-58,-53,-39
-34,-68,-34,51,0,-51,24,-24,-48,-58,-53,-43
-34,-68,-34,51,0,-51,24,-24,-48,-63,-58,-48
-29,-68,-39,48,4,-53,24,-24,-53,-58,-58,-48
-19,-63,-43,41,12,-53,19,-24,-53,-63,-63,-48
-19,-63,-43,41,12,-53,14,-24,-53,-63,-58,-48
-14,-68,-53,41,19,-61,19,-24,-48,-63,-58,-48
-19,-68,-48,43,14,-58,19,-19,-48,-63,-58,-43
-24,-68,-43,46,9,-56,19,-24,-48,-68,-58,-48
-24,-78,-53,51,14,-65,14,-29,-48,-68,-63,-48
-19,-87,-68,53,24,-78,14,-29,-58,-78,-68,-58
0,-82,-82,41,41,-82,4,-24,-58,-82,-73,-63
4,-87,-92,41,48,-90,4,-29,-63,-92,-73,-73
-9,-87,-78,48,34,-82,4,-29,-68,-92,-78,-73
-19,-97,-78,58,29,-87,4,-29,-63,-92,-78,-68
-24,-107,-82,65,29,-95,14,-24,-58,-87,-78,-68
-29,-102,-73,65,21,-87,14,-24,-58,-82,-78,-58
-39,-102,-63,70,12,-82,9,-29,-63,-82,-73,-53
-39,-102,-63,70,12,-82,9,-34,-58,-87,-73,-53
-39,-97,-58,68,9,-78,9,-34,-63,-82,-73,-53
-29,-102,-73,65,21,-87,9,-29,-63,-82,-73,-53
-29,-102,-73,65,21,-87,4,-34,-63,-87,-73,-58
-24,-97,-73,61,24,-85,4,-34,-68,-92,-78,-58
-24,-92,-68,58,21,-80,4,-34,-68,-87,-78,-53
-24,-87,-63,56,19,-75,4,-34,-68,-87,-73,-53
-24,-82,-58,53,17,-70,4,-34,-58,-82,-73,-48
-29,-87,-58,58,14,-73,9,-34,-58,-82,-73,-53
-24,-92,-68,58,21,-80,4,-34,-63,-82,-73,-58
-24,-97,-73,61,24,-85,4,-34,-63,-82,-78,-63
-39,-102,-63,70,12,-82,9,-34,-68,-87,-82,-68
-53,-112,-58,82,2,-85,14,-24,-63,-87,-78,-63
-58,-107,-48,82,-4,-78,19,-24,-53,-78,-73,-58
-58,-107,-48,82,-4,-78,19,-19,-53,-78,-63,-53
-53,-102,-48,78,-2,-75,19,-19,-53,-78,-68,-53
-43,-102,-58,73,7,-80,19,-19,-48,-82,-68,-53
-24,-97,-73,61,24,-85,19,-19,-53,-82,-73,-63
-19,-107,-87,63,34,-97,14,-24,-58,-92,-78,-68
-14,-112,-97,63,41,-104,14,-24,-58,-92,-82,-73
-9,-107,-97,58,43,-102,14,-19,-58,-97,-87,-73
0,-112,-112,56,56,-112,19,-19,-58,-97,-87,-68
4,-107,-112,51,58,-109,14,-19,-53,-97,-87,-68
19,-102,-122,41,70,-112,14,-19,-53,-97,-87,-73
29,-107,-136,39,82,-122,14,-19,-53,-102,-87,-73
34,-107,-141,36,87,-124,14,-19,-53,-107,-92,-82
29,-112,-141,41,85,-126,14,-19,-53,-107,-92,-82
14,-117,-131,51,73,-124,19,-19,-48,-107,-92,-82
9,-122,-131,56,70,-126,19,-19,-48,-102,-87,-82
4,-122,-126,58,65,-124,24,-9,-43,-97,-92,-82
-14,-122,-107,68,46,-114,24,-14,-43,-102,-87,-82
-19,-122,-102,70,41,-112,24,0,-39,-92,-87,-78
-19,-126,-107,73,43,-117,29,0,-34,-92,-87,-82
-29,-131,-102,80,36,-117,24,-9,-43,-97,-92,-82
-29,-141,-112,85,41,-126,29,0,-43,-102,-87,-82
-34,-146,-112,90,39,-129,29,-9,-43,-102,-92,-87
-29,-146,-117,87,43,-131,24,-9,-39,-107,-97,-92
-29,-161,-131,95,51,-146,29,-9,-43,-102,-97,-92
-29,-165,-136,97,53,-151,29,-9,-43,-107,-97,-92
-29,-161,-131,95,51,-146,24,-14,-48,-107,-97,-97
-34,-170,-136,102,51,-153,24,-9,-43,-107,-97,-97
-34,-170,-136,102,51,-153,24,-9,-43,-107,-102,-102
-24,-175,-151,100,63,-163,19,-14,-48,-117,-107,-107
-19,-180,-161,100,70,-170,19,-14,-48,-122,-112,-112
-14,-185,-170,100,78,-178,19,-14,-53,-131,-117,-117
-14,-195,-180,104,82,-187,19,-9,-48,-136,-126,-122
-19,-195,-175,107,78,-185,19,-9,-48,-136,-122,-117
-24,-195,-170,109,73,-183,24,0,-48,-136,-122,-122
-24,-200,-175,112,75,-187,24,0,-43,-136,-126,-122
-24,-200,-175,112,75,-187,24,4,-39,-136,-122,-122
-24,-200,-175,112,75,-187,24,0,-39,-141,-126,-126
-19,-219,-200,119,90,-209,24,4,-39,-146,-136,-136
-19,-224,-204,122,92,-214,24,0,-39,-156,-146,-136
-14,-234,-219,124,102,-226,29,4,-34,-161,-151,-146
-19,-244,-224,131,102,-234,34,9,-29,-165,-151,-146
-29,-248,-219,139,95,-234,34,9,-29,-170,-156,-151
-29,-244,-214,136,92,-229,34,9,-29,-175,-156,-151
-24,-244,-219,134,97,-231,29,9,-29,-175,-161,-151
-24,-248,-224,136,100,-236,29,9,-29,-180,-165,-161
-14,-248,-234,131,109,-241,29,14,-24,-185,-175,-165
0,-253,-253,126,126,-253,34,19,-19,-185,-180,-175
0,-253,-253,126,126,-253,34,24,-14,-190,-185,-175
0,-263,-263,131,131,-263,34,29,-9,-190,-185,-175
-9,-273,-263,141,126,-268,34,29,0,-190,-185,-175
4,-263,-268,129,136,-265,39,34,9,-185,-180,-170
4,-263,-268,129,136,-265,43,43,14,-185,-170,-165
0,-263,-263,131,131,-263,43,48,19,-180,-175,-170
9,-258,-268,124,139,-263,39,48,24,-175,-170,-170
19,-253,-273,117,146,-263,39,53,29,-175,-170,-170
29,-253,-283,112,156,-268,34,48,34,-175,-175,-170
29,-253,-283,112,156,-268,34,53,39,-175,-170,-170
34,-248,-283,107,158,-265,34,58,43,-170,-170,-165
39,-244,-283,102,161,-263,29,63,53,-165,-161,-161
43,-229,-273,92,158,-251,29,68,63,-156,-156,-151
39,-219,-258,90,148,-239,29,73,73,-151,-141,-141
34,-200,-234,82,134,-217,29,68,73,-141,-136,-136
34,-190,-224,78,129,-207,24,73,78,-136,-126,-126
29,-175,-204,73,117,-190,24,73,87,-126,-122,-117
34,-161,-195,63,114,-178,29,78,92,-112,-107,-107
39,-141,-180,51,109,-161,29,82,97,-102,-102,-97
43,-126,-170,41,107,-148,19,78,102,-97,-92,-87
48,-102,-151,26,100,-126,19,78,97,-92,-82,-73
58,-82,-141,12,100,-112,9,73,102,-82,-73,-63
68,-68,-136,0,102,-102,4,68,97,-78,-68,-58
73,-58,-131,-7,102,-95,0,68,97,-68,-63,-53
78,-48,-126,-14,102,-87,-9,63,97,-63,-58,-48
92,-34,-126,-29,109,-80,-14,63,87,-58,-53,-48
92,-24,-117,-34,104,-70,-24,53,82,-58,-53,-43
87,-19,-107,-34,97,-63,-29,48,73,-48,-48,-34
87,0,-87,-43,87,-43,-29,43,73,-43,-39,-29
87,9,-78,-48,82,-34,-29,39,68,-34,-29,-24
78,19,-58,-48,68,-19,-29,39,68,-29,-19,-14
58,29,-29,-43,43,0,-24,39,68,-9,-14,0
43,34,-9,-39,26,12,-19,34,63,0,4,14
34,39,4,-36,14,21,-19,29,58,4,14,19
29,43,14,-36,7,29,-19,24,53,14,14,24
24,48,24,-36,0,36,-19,19,48,19,19,29
9,58,48,-34,-19,53,-19,19,43,14,24,29
4,53,48,-29,-21,51,-14,14,39,19,19,34
4,48,43,-26,-19,46,-19,9,34,19,29,34
9,53,43,-31,-17,48,-14,4,29,29,29,39
19,53,34,-36,-7,43,-19,0,29,24,29,39
29,48,19,-39,4,34,-19,0,19,24,29,34
43,53,9,-48,17,31,-24,-14,14,19,24,39
53,53,0,-53,26,26,-34,-24,0,9,19,29
63,53,-9,-58,36,21,-39,-24,0,9,14,29
68,53,-14,-61,41,19,-39,-24,-9,4,14,29
68,58,-9,-63,39,24,-39,-24,-9,9,19,29
63,58,-4,-61,34,26,-39,-24,-9,9,19,29
58,58,0,-58,29,29,-39,-24,-9,14,19,34
53,58,4,-56,24,31,-34,-29,-9,14,19,34
43,58,14,-51,14,36,-34,-29,-14,14,24,34
34,58,24,-46,4,41,-29,-29,-9,14,24,34
24,53,29,-39,-2,41,-24,-19,-9,19,24,34
14,53,39,-34,-12,46,-24,-19,-9,19,24,34
9,48,39,-29,-14,43,-19,-19,-9,19,24,34
4,48,43,-26,-19,46,-19,-19,-9,19,29,34
0,48,48,-24,-24,48,-19,-19,-14,19,29,34
0,48,48,-24,-24,48,-14,-24,-14,19,29,34
0,43,43,-21,-21,43,-14,-24,-14,19,29,34
0,43,43,-21,-21,43,-14,-24,-14,19,29,34
0,43,43,-21,-21,43,-9,-24,-19,24,29,34
-9,43,53,-17,-31,48,-9,-24,-19,24,34,39
-9,43,53,-17,-31,48,-9,-29,-19,29,34,39
-9,48,58,-19,-34,53,-9,-29,-19,29,39,43
-9,48,58,-19,-34,53,-9,-29,-19,29,39,43
-14,48,63,-17,-39,56,0,-29,-19,34,39,48
-19,48,68,-14,-43,58,0,-29,-19,34,39,48
-24,48,73,-12,-48,61,0,-29,-24,29,39,48
-24,48,73,-12,-48,61,0,-34,-24,29,34,43
-24,43,68,-9,-46,56,0,-34,-24,24,29,43
-24,43,68,-9,-46,56,0,-34,-29,24,24,39
-24,39,63,-7,-43,51,0,-34,-29,19,19,34
-24,34,58,-4,-41,46,0,-34,-34,14,14,29
-24,34,58,-4,-41,46,0,-39,-34,9,14,29
-19,29,48,-4,-34,39,0,-39,-34,4,9,24
-14,24,39,-4,-26,31,-9,-39,-39,0,4,19
-9,24,34,-7,-21,29,-9,-39,-39,-9,0,14
0,19,19,-9,-9,19,-9,-39,-43,-14,0,14
4,19,14,-12,-4,17,-9,-39,-43,-14,-9,9
4,19,14,-12,-4,17,-14,-43,-48,-14,-9,9
9,19,9,-14,0,14,-14,-43,-48,-14,-9,9
4,19,14,-12,-4,17,-9,-39,-48,-14,-9,9
4,19,14,-12,-4,17,-9,-43,-48,-9,0,14
4,24,19,-14,-7,21,-9,-43,-43,-9,0,14
4,24,19,-14,-7,21,-9,-43,-48,-9,4,14
4,19,14,-12,-4,17,-9,-43,-48,-9,4,14
4,19,14,-12,-4,17,-9,-39,-43,-9,4,14
0,19,19,-9,-9,19,-9,-39,-43,0,4,14
-9,19,29,-4,-19,24,-9,-39,-43,0,9,19
-19,14,34,2,-26,24,0,-39,-43,0,9,19
-24,14,39,4,-31,26,0,-39,-43,0,9,19
-29,9,39,9,-34,24,4,-34,-39,0,9,19
-39,4,43,17,-41,24,4,-34,-39,0,9,19
-48,0,48,24,-48,24,9,-34,-39,0,9,19
-53,-9,43,31,-48,17,9,-29,-39,0,9,14
-53,-9,43,31,-48,17,9,-29,-39,-9,9,14
-53,-9,43,31,-48,17,9,-29,-39,-14,4,14
-48,-9,39,29,-43,14,9,-29,-39,-14,4,14
-43,-9,34,26,-39,12,4,-34,-39,-14,4,14
-39,-9,29,24,-34,9,4,-34,-43,-19,0,9
-34,-9,24,21,-29,7,0,-34,-43,-19,0,9
-29,-9,19,19,-24,4,0,-39,-43,-19,-9,9
-24,0,24,12,-24,12,0,-39,-43,-19,-9,9
-19,0,19,9,-19,9,0,-39,-43,-19,-9,9
-19,0,19,9,-19,9,-9,-39,-48,-19,-9,9
-14,0,14,7,-14,7,-9,-39,-48,-19,-14,9
-9,0,9,4,-9,4,-14,-39,-48,-19,-14,4
-9,4,14,2,-12,9,-14,-39,-48,-19,-14,4
-9,0,9,4,-9,4,-14,-39,-48,-14,-14,4
-19,0,19,9,-19,9,-14,-39,-48,-14,-14,0
-24,-9,14,17,-19,2,-14,-39,-48,-14,-14,0
-29,-9,19,19,-24,4,-9,-39,-48,-14,-14,0
-24,-9,14,17,-19,2,-14,-39,-48,-19,-14,-9
-9,-9,0,9,-4,-4,-19,-43,-48,-19,-19,-9
4,-9,-14,2,9,-12,-24,-43,-48,-24,-19,-14
14,-9,-24,-2,19,-17,-29,-43,-48,-24,-24,-14
29,0,-29,-14,29,-14,-29,-43,-53,-29,-24,-14
39,4,-34,-21,36,-14,-34,-43,-53,-29,-24,-19
43,0,-43,-21,43,-21,-34,-43,-53,-29,-24,-14
43,0,-43,-21,43,-21,-34,-43,-53,-29,-24,-14
48,4,-43,-26,46,-19,-34,-48,-53,-29,-24,-14
53,9,-43,-31,48,-17,-39,-48,-53,-29,-24,-14
58,9,-48,-34,53,-19,-39,-48,-53,-29,-24,-9
58,14,-43,-36,51,-14,-43,-48,-53,-29,-19,-9
48,14,-34,-31,41,-9,-43,-43,-48,-24,-19,0
39,14,-24,-26,31,-4,-39,-43,-48,-19,-14,0
24,14,-9,-19,17,2,-39,-43,-48,-19,-9,4
19,14,-4,-17,12,4,-34,-43,-48,-14,0,4
9,14,4,-12,2,9,-34,-43,-43,-9,4,9
0,14,14,-7,-7,14,-34,-43,-43,-9,4,14
-14,14,29,0,-21,21,-34,-48,-43,0,9,14
-24,14,39,4,-31,26,-34,-48,-43,0,9,19
-29,19,48,4,-39,34,-34,-48,-48,0,9,19
-29,19,48,4,-39,34,-34,-53,-48,0,9,19
-29,19,48,4,-39,34,-39,-53,-48,-9,9,19
-24,19,43,2,-34,31,-39,-58,-53,-9,9,19
-19,24,43,-2,-31,34,-39,-58,-53,-14,9,19
-14,24,39,-4,-26,31,-43,-63,-58,-14,4,19
-14,29,43,-7,-29,36,-43,-68,-58,-14,4,24
-14,29,43,-7,-29,36,-48,-73,-63,-14,4,24
-9,29,39,-9,-24,34,-48,-73,-68,-14,4,24
0,34,34,-17,-17,34,-48,-78,-68,-14,4,24
4,39,34,-21,-14,36,-48,-82,-73,-19,4,24
9,39,29,-24,-9,34,-53,-82,-78,-19,4,24
9,39,29,-24,-9,34,-53,-87,-78,-19,9,24
4,39,34,-21,-14,36,-53,-87,-78,-14,14,29
-14,39,53,-12,-34,46,-48,-87,-78,-9,14,29
-29,39,68,-4,-48,53,-48,-87,-78,-9,19,34
-39,39,78,0,-58,58,-43,-87,-78,0,24,39
-43,39,82,2,-63,61,-43,-87,-82,0,24,39
-43,39,82,2,-63,61,-43,-87,-82,0,19,34
-34,43,78,-4,-56,61,-43,-87,-82,-9,19,34
-29,39,68,-4,-48,53,-48,-87,-82,-9,19,29
-24,39,63,-7,-43,51,-48,-87,-82,-9,14,29
-24,34,58,-4,-41,46,-43,-87,-82,-14,14,24
-24,34,58,-4,-41,46,-43,-87,-82,-14,9,24
-19,34,53,-7,-36,43,-43,-87,-82,-14,9,24
-14,34,48,-9,-31,41,-48,-87,-82,-19,4,29
-9,39,48,-14,-29,43,-48,-87,-87,-19,0,24
9,39,29,-24,-9,34,-53,-87,-87,-24,0,24
14,39,24,-26,-4,31,-53,-87,-87,-24,-9,24
19,39,19,-29,0,29,-53,-87,-82,-24,-9,19
14,34,19,-24,-2,26,-53,-82,-82,-24,-9,19
4,34,29,-19,-12,31,-48,-82,-78,-19,-9,19
0,34,34,-17,-17,34,-48,-78,-78,-19,-9,19
0,34,34,-17,-17,34,-48,-78,-78,-19,0,19
0,34,34,-17,-17,34,-48,-78,-78,-19,-9,19
-9,34,43,-12,-26,39,-43,-78,-73,-19,0,19
-9,34,43,-12,-26,39,-43,-73,-73,-14,0,19
-9,34,43,-12,-26,39,-43,-73,-68,-14,0,19
-9,34,43,-12,-26,39,-39,-73,-68,-9,0,19
-9,29,39,-9,-24,34,-39,-68,-63,-9,4,19
-9,29,39,-9,-24,34,-39,-68,-63,-9,4,19
-9,29,39,-9,-24,34,-34,-68,-63,-9,4,19
-14,29,43,-7,-29,36,-34,-68,-63,-9,9,24
-14,29,43,-7,-29,36,-34,-68,-63,-9,9,24
-19,29,48,-4,-34,39,-34,-68,-63,-9,9,24
-19,29,48,-4,-34,39,-34,-68,-63,0,9,29
-19,34,53,-7,-36,43,-34,-63,-58,0,9,29
-24,29,53,-2,-39,41,-34,-63,-58,0,9,29
-29,29,58,0,-43,43,-34,-63,-58,0,9,29
-29,29,58,0,-43,43,-34,-63,-63,0,14,29
-29,24,53,2,-41,39,-34,-68,-63,0,9,29
-24,24,48,0,-36,36,-34,-68,-63,0,9,29
-24,24,48,0,-36,36,-34,-63,-63,0,9,29
-19,24,43,-2,-31,34,-34,-63,-63,0,9,24
-9,19,29,-4,-19,24,-39,-63,-63,0,9,24
0,19,19,-9,-9,19,-39,-63,-63,-9,4,19
0,19,19,-9,-9,19,-39,-63,-68,-9,4,14
0,14,14,-7,-7,14,-39,-68,-68,-9,4,14
4,14,9,-9,-2,12,-39,-68,-68,-14,0,14
9,14,4,-12,2,9,-39,-68,-73,-19,0,14
9,14,4,-12,2,9,-39,-68,-73,-19,0,9
14,14,0,-14,7,7,-39,-68,-73,-24,-9,9
9,14,4,-12,2,9,-34,-68,-73,-24,-9,9
9,14,4,-12,2,9,-34,-68,-73,-29,-14,9
4,14,9,-9,-2,12,-34,-68,-73,-29,-14,9
0,19,19,-9,-9,19,-34,-58,-73,-29,-14,9
-9,19,29,-4,-19,24,-29,-58,-73,-29,-14,14
-14,19,34,-2,-24,26,-24,-58,-73,-24,-9,19
-14,19,34,-2,-24,26,-24,-58,-73,-24,-9,19
-14,24,39,-4,-26,31,-24,-58,-73,-29,-9,19
-14,24,39,-4,-26,31,-24,-53,-68,-29,-9,19
-14,29,43,-7,-29,36,-24,-53,-68,-29,-14,24
-19,29,48,-4,-34,39,-19,-53,-68,-29,-9,24
-24,34,58,-4,-41,46,-19,-53,-68,-29,-9,24
-24,34,58,-4,-41,46,-14,-53,-68,-29,-9,24
-19,34,53,-7,-36,43,-14,-53,-68,-29,-9,24
-19,29,48,-4,-34,39,-19,-53,-68,-29,-9,19
-19,29,48,-4,-34,39,-14,-53,-68,-29,-9,19
-19,24,43,-2,-31,34,-14,-53,-68,-24,-9,19
-19,24,43,-2,-31,34,-14,-53,-68,-24,-9,14
-24,24,48,0,-36,36,-14,-53,-68,-24,-9,14
-24,19,43,2,-34,31,-9,-48,-68,-19,-9,19
-29,14,43,7,-36,29,-9,-48,-63,-14,0,19
-34,14,48,9,-41,31,0,-48,-63,-9,0,24
-29,14,43,7,-36,29,0,-48,-63,0,4,24
-29,14,43,7,-36,29,-9,-48,-63,0,4,24
-29,19,48,4,-39,34,0,-48,-63,4,4,29
-34,19,53,7,-43,36,0,-48,-63,4,9,29
-34,24,58,4,-46,41,0,-48,-63,9,14,29
-34,24,58,4,-46,41,0,-53,-63,9,14,29
-34,24,58,4,-46,41,0,-53,-63,9,14,29
-29,29,58,0,-43,43,0,-53,-63,4,14,29
-24,29,53,-2,-39,41,-9,-53,-68,4,14,29
-19,34,53,-7,-36,43,-14,-58,-68,0,9,24
-14,39,53,-12,-34,46,-14,-58,-68,0,9,24
-14,39,53,-12,-34,46,-19,-58,-68,-9,9,19
-14,34,48,-9,-31,41,-19,-58,-68,-9,9,19
-19,29,48,-4,-34,39,-19,-58,-68,-9,9,19
-29,29,58,0,-43,43,-14,-53,-68,0,14,19
-43,24,68,9,-56,46,-14,-53,-63,4,19,19
-58,24,82,17,-70,53,-9,-48,-58,9,24,24
-73,19,92,26,-82,56,0,-48,-58,9,24,24
-73,14,87,29,-80,51,0,-48,-58,9,24,24
-73,14,87,29,-80,51,0,-48,-58,9,19,19
-63,9,73,26,-68,41,-9,-53,-63,9,19,19
-53,9,63,21,-58,36,-14,-53,-63,4,14,14
-43,9,53,17,-48,31,-19,-53,-63,4,14,14
-29,14,43,7,-36,29,-24,-53,-68,4,14,14
-19,19,39,0,-29,29,-24,-53,-68,4,14,14
-9,24,34,-7,-21,29,-29,-53,-68,4,14,19
14,29,14,-21,0,21,-34,-58,-68,0,9,19
29,29,0,-29,14,14,-39,-58,-68,-9,4,19
43,34,-9,-39,26,12,-43,-63,-73,-14,0,14
53,39,-14,-46,34,12,-53,-68,-73,-14,0,14
58,43,-14,-51,36,14,-58,-68,-78,-14,0,14
48,48,0,-48,24,24,-58,-68,-73,-14,4,19
39,53,14,-46,12,34,-53,-63,-73,-9,9,24
24,53,29,-39,-2,41,-48,-63,-68,0,14,29
4,53,48,-29,-21,51,-43,-63,-68,0,19,34
-24,43,68,-9,-46,56,-43,-58,-68,0,14,39
-43,43,87,0,-65,65,-39,-58,-68,0,19,39
-53,34,87,9,-70,61,-34,-58,-68,4,24,43
-63,34,97,14,-80,65,-34,-58,-63,4,24,48
-63,39,102,12,-82,70,-39,-58,-63,4,19,48
-48,43,92,2,-70,68,-43,-63,-68,0,19,48
-34,43,78,-4,-56,61,-43,-58,-68,0,19,43
-29,48,78,-9,-53,63,-43,-58,-63,0,19,39
-24,43,68,-9,-46,56,-43,-53,-63,0,14,39
-29,29,58,0,-43,43,-34,-48,-53,0,14,29
-29,14,43,7,-36,29,-24,-29,-43,0,9,24
-19,0,19,9,-19,9,-14,-19,-29,9,14,19
4,-19,-24,7,14,-21,-9,-9,-14,14,19,9
29,-19,-48,-4,39,-34,-14,4,4,19,24,4
48,-24,-73,-12,61,-48,-9,19,19,24,24,4
63,-29,-92,-17,78,-61,0,43,48,39,34,4
82,-39,-122,-21,102,-80,0,73,97,58,53,9
97,-29,-126,-34,112,-78,4,107,136,87,78,19
107,19,-87,-63,97,-34,-14,112,161,126,122,58
131,107,-24,-119,78,41,-53,97,170,175,185,122
161,244,82,-202,39,163,-107,68,175,244,278,219
185,395,209,-290,-12,302,-170,19,151,302,361,317
214,570,356,-392,-70,463,-248,-48,117,351,444,429
239,775,536,-507,-148,656,-331,-117,73,390,517,546
278,980,702,-629,-212,841,-424,-175,43,434,585,658
317,1161,844,-739,-263,1002,-497,-224,24,453,644,746
356,1307,951,-832,-297,1129,-556,-253,19,473,678,814
375,1390,1015,-883,-319,1202,-595,-263,29,492,692,849
385,1449,1063,-917,-339,1256,-614,-263,48,522,717,863
375,1464,1088,-919,-356,1276,-595,-244,73,541,717,849
356,1434,1078,-895,-361,1256,-566,-229,102,551,697,800
336,1366,1029,-851,-346,1198,-527,-195,126,546,658,736
302,1278,976,-790,-336,1127,-483,-170,141,536,600,653
258,1171,912,-714,-326,1041,-419,-141,141,512,536,556
190,1063,873,-627,-341,968,-341,-117,141,483,463,468
122,941,819,-531,-348,880,-273,-82,136,439,380,370
68,805,736,-436,-334,771,-200,-48,136,375,278,273
29,634,605,-331,-287,619,-122,0,141,292,161,151
-19,439,458,-209,-239,448,-39,53,156,209,63,43
-53,278,331,-112,-192,305,43,107,175,161,0,-39
-63,165,229,-51,-146,197,107,156,209,141,-39,-73
-58,63,122,-2,-90,92,151,209,239,117,-58,-112
-48,-63,-14,56,-17,-39,204,263,273,97,-87,-161
-39,-185,-146,112,53,-165,263,322,322,78,-122,-214
-29,-292,-263,161,117,-278,322,390,380,82,-131,-258
-24,-380,-356,202,165,-368,375,468,453,102,-126,-278
-19,-458,-439,239,209,-448,439,541,531,117,-122,-292
-24,-507,-483,265,229,-495,488,610,580,122,-122,-302
-34,-522,-488,278,226,-505,522,644,619,131,-112,-302
-43,-512,-468,278,212,-490,546,663,634,146,-107,-283
-58,-497,-439,278,190,-468,566,678,644,156,-92,-273
-68,-483,-414,275,173,-448,585,692,653,165,-82,-263
-73,-473,-400,273,163,-436,610,712,663,170,-78,-253
-73,-468,-395,270,161,-431,619,727,668,165,-78,-248
-63,-458,-395,261,165,-427,614,717,663,165,-68,-239
-63,-429,-366,246,151,-397,575,678,624,161,-68,-219
-63,-385,-322,224,129,-353,527,614,556,165,-48,-190
-73,-336,-263,204,95,-300,468,522,468,161,-29,-165
-78,-302,-224,190,73,-263,409,424,375,161,-19,-136
-92,-263,-170,178,39,-217,346,322,292,161,0,-117
-102,-229,-126,165,12,-178,287,234,214,161,14,-87
-117,-200,-82,158,-17,-141,244,146,141,146,24,-68
-131,-175,-43,153,-43,-109,209,82,73,131,24,-58
-136,-156,-19,146,-58,-87,170,34,24,112,24,-43
-126,-136,-9,131,-58,-73,161,4,-14,87,19,-34
-122,-112,9,117,-65,-51,141,-19,-34,73,14,-29
-122,-97,24,109,-73,-36,122,-24,-43,53,9,-19
-107,-92,14,100,-61,-39,102,-24,-48,34,0,-24
-97,-82,14,90,-56,-34,87,-29,-53,19,-14,-24
-87,-87,0,87,-43,-43,73,-29,-58,0,-24,-29
-82,-82,0,82,-41,-41,58,-29,-48,-9,-34,-29
-73,-87,-14,80,-29,-51,48,-24,-48,-19,-34,-34
-68,-87,-19,78,-24,-53,34,-24,-53,-29,-34,-24
-63,-87,-24,75,-19,-56,29,-29,-53,-34,-39,-24
-53,-78,-24,65,-14,-51,24,-29,-53,-39,-39,-24
-48,-73,-24,61,-12,-48,19,-29,-53,-39,-43,-24
-43,-73,-29,58,-7,-51,4,-34,-53,-43,-48,-29
-48,-73,-24,61,-12,-48,4,-39,-58,-43,-48,-29
-43,-78,-34,61,-4,-56,0,-43,-68,-43,-48,-34
-39,-78,-39,58,0,-58,0,-43,-68,-48,-48,-29
-39,-78,-39,58,0,-58,-9,-43,-63,-53,-48,-34
-34,-73,-39,53,2,-56,-9,-43,-68,-53,-48,-34
-29,-68,-39,48,4,-53,-9,-48,-73,-58,-48,-34
-19,-68,-48,43,14,-58,-14,-48,-73,-58,-48,-39
-14,-63,-48,39,17,-56,-14,-43,-73,-58,-53,-43
-9,-68,-58,39,24,-63,-14,-48,-73,-53,-48,-43
-14,-68,-53,41,19,-61,-9,-48,-68,-58,-48,-43
-19,-68,-48,43,14,-58,0,-48,-73,-58,-53,-39
-19,-68,-48,43,14,-58,-9,-48,-73,-53,-48,-39
-14,-68,-53,41,19,-61,-14,-48,-73,-53,-53,-39
-14,-63,-48,39,17,-56,-19,-48,-73,-58,-53,-39
-14,-68,-53,41,19,-61,-19,-53,-73,-58,-48,-43
-14,-63,-48,39,17,-56,-19,-53,-78,-53,-53,-39
-14,-63,-48,39,17,-56,-19,-48,-68,-53,-53,-43
-9,-63,-53,36,21,-58,-14,-48,-68,-53,-53,-39
-14,-63,-48,39,17,-56,-14,-39,-73,-58,-53,-39
-9,-58,-48,34,19,-53,-19,-39,-68,-58,-53,-39
-14,-53,-39,34,12,-46,-19,-34,-68,-58,-48,-34
-19,-53,-34,36,7,-43,-19,-34,-68,-63,-48,-29
-34,-58,-24,46,-4,-41,-19,-34,-68,-63,-48,-29
-48,-63,-14,56,-17,-39,-14,-29,-63,-63,-53,-24
-58,-68,-9,63,-24,-39,-9,-29,-58,-63,-53,-29
-68,-68,0,68,-34,-34,4,-24,-53,-63,-48,-34
-73,-68,4,70,-39,-31,4,-19,-53,-58,-53,-34
-78,-78,0,78,-39,-39,4,-24,-53,-63,-48,-34
-78,-82,-4,80,-36,-43,9,-24,-58,-63,-53,-34
-73,-87,-14,80,-29,-51,9,-19,-48,-68,-53,-34
-58,-82,-24,70,-17,-53,9,-19,-53,-68,-53,-39
-43,-82,-39,63,-2,-61,9,-19,-53,-68,-53,-43
-39,-87,-48,63,4,-68,4,-19,-53,-68,-58,-48
-24,-82,-58,53,17,-70,4,-19,-53,-68,-63,-48
-14,-78,-63,46,24,-70,4,-24,-53,-73,-63,-53
9,-82,-92,36,51,-87,0,-29,-58,-78,-73,-58
24,-87,-112,31,68,-100,-9,-29,-63,-87,-78,-63
34,-82,-117,24,75,-100,-14,-34,-68,-87,-82,-68
48,-78,-126,14,87,-102,-19,-39,-68,-92,-82,-73
48,-78,-126,14,87,-102,-19,-39,-73,-92,-82,-73
39,-82,-122,21,80,-102,-19,-34,-73,-92,-82,-68
34,-82,-117,24,75,-100,-19,-34,-78,-92,-87,-73
29,-87,-117,29,73,-102,-9,-34,-73,-87,-82,-68
4,-97,-102,46,53,-100,0,-34,-73,-92,-82,-68
-9,-107,-97,58,43,-102,4,-29,-68,-92,-82,-68
-19,-107,-87,63,34,-97,9,-29,-68,-82,-73,-63
-29,-102,-73,65,21,-87,14,-24,-58,-78,-68,-58
-34,-107,-73,70,19,-90,14,-24,-58,-78,-68,-58
-34,-107,-73,70,19,-90,19,-14,-53,-73,-63,-53
-39,-112,-73,75,17,-92,19,-14,-48,-68,-63,-58
-48,-122,-73,85,12,-97,24,-14,-48,-73,-63,-58
-53,-131,-78,92,12,-104,29,-14,-43,-68,-68,-63
-58,-131,-73,95,7,-102,34,-9,-43,-73,-63,-63
-68,-136,-68,102,0,-102,34,0,-43,-73,-68,-58
-68,-136,-68,102,0,-102,34,-9,-43,-73,-68,-63
-58,-136,-78,97,9,-107,39,-9,-43,-78,-73,-63
-48,-136,-87,92,19,-112,34,-9,-43,-82,-73,-73
-39,-141,-102,90,31,-122,34,-9,-43,-82,-78,-78
-39,-141,-102,90,31,-122,34,-9,-43,-82,-82,-82
-34,-146,-112,90,39,-129,34,0,-48,-87,-87,-87
-34,-141,-107,87,36,-124,39,-9,-43,-92,-92,-87
-24,-146,-122,85,48,-134,39,-9,-43,-97,-92,-97
-29,-141,-112,85,41,-126,39,-9,-48,-102,-97,-92
-24,-141,-117,82,46,-129,39,-9,-48,-107,-102,-92
-19,-141,-122,80,51,-131,39,-9,-48,-107,-107,-97
-9,-146,-136,78,63,-141,34,-9,-53,-117,-117,-102
-9,-151,-141,80,65,-146,43,0,-48,-117,-112,-102
-14,-161,-146,87,65,-153,43,0,-48,-122,-117,-107
-19,-165,-146,92,63,-156,48,4,-48,-122,-117,-107
-34,-175,-141,104,53,-158,53,4,-48,-126,-122,-107
-39,-180,-141,109,51,-161,58,4,-48,-131,-122,-107
-39,-185,-146,112,53,-165,58,9,-43,-131,-126,-117
-39,-185,-146,112,53,-165,58,9,-43,-136,-126,-117
-39,-190,-151,114,56,-170,58,19,-34,-131,-122,-122
-34,-195,-161,114,63,-178,63,19,-34,-131,-131,-126
-34,-209,-175,122,70,-192,63,19,-34,-131,-131,-131
-34,-224,-190,129,78,-207,58,24,-34,-136,-136,-136
-34,-229,-195,131,80,-212,63,24,-24,-141,-141,-141
-39,-239,-200,139,80,-219,63,24,-24,-141,-141,-141
-29,-239,-209,134,90,-224,63,29,-19,-141,-141,-146
-19,-244,-224,131,102,-234,63,34,-14,-141,-146,-156
-9,-244,-234,126,112,-239,58,39,-14,-141,-146,-161
4,-244,-248,119,126,-246,53,43,-9,-141,-146,-161
0,-248,-248,124,124,-248,53,39,-9,-141,-151,-170
4,-258,-263,126,134,-261,53,43,0,-146,-156,-170
-9,-258,-248,134,119,-253,53,53,9,-141,-156,-170
-14,-268,-253,141,119,-261,58,58,14,-146,-156,-165
-29,-273,-244,151,107,-258,58,63,19,-141,-151,-170
-24,-273,-248,148,112,-261,53,63,24,-141,-151,-165
-14,-263,-248,139,117,-256,48,63,24,-141,-151,-165
-9,-263,-253,136,122,-258,48,68,24,-151,-156,-170
9,-268,-278,129,143,-273,43,68,29,-151,-156,-170
24,-263,-287,119,156,-275,43,73,39,-151,-156,-175
29,-258,-287,114,158,-273,43,82,48,-151,-151,-165
24,-263,-287,119,156,-275,43,87,58,-151,-151,-161
29,-263,-292,117,161,-278,43,92,63,-151,-151,-161
48,-253,-302,102,175,-278,39,97,63,-156,-151,-161
63,-248,-312,92,187,-280,34,97,68,-161,-156,-156
68,-248,-317,90,192,-283,29,97,68,-165,-156,-161
78,-239,-317,80,197,-278,24,92,73,-161,-156,-165
87,-229,-317,70,202,-273,19,97,82,-161,-151,-165
78,-224,-302,73,190,-263,19,102,82,-161,-151,-161
73,-224,-297,75,185,-261,19,112,87,-156,-146,-151
63,-214,-278,75,170,-246,24,112,97,-151,-136,-146
63,-200,-263,68,163,-231,19,117,102,-146,-136,-146
63,-195,-258,65,161,-226,19,117,112,-141,-131,-136
63,-180,-244,58,153,-212,14,112,112,-136,-126,-136
68,-165,-234,48,151,-200,9,112,117,-131,-126,-126
68,-156,-224,43,146,-190,4,107,117,-131,-122,-122
73,-151,-224,39,148,-187,0,107,117,-117,-112,-117
78,-136,-214,29,146,-175,0,107,117,-112,-112,-107
92,-122,-214,14,153,-168,-9,107,122,-102,-102,-102
107,-97,-204,-4,156,-151,-14,102,117,-102,-92,-92
112,-78,-190,-17,151,-134,-24,97,112,-97,-92,-87
117,-58,-175,-29,146,-117,-24,92,112,-87,-78,-68
122,-39,-161,-41,141,-100,-29,87,107,-78,-73,-63
112,-29,-141,-41,126,-85,-29,82,112,-68,-63,-53
107,-19,-126,-43,117,-73,-29,78,107,-58,-53,-43
97,-9,-107,-43,102,-58,-29,68,102,-48,-43,-34
87,4,-82,-46,85,-39,-29,63,92,-34,-29,-24
68,9,-58,-39,63,-24,-24,53,87,-24,-14,-9
48,14,-34,-31,41,-9,-29,53,82,-9,0,9
39,19,-19,-29,29,0,-29,48,78,4,9,14
29,24,-4,-26,17,9,-19,39,73,9,14,19
29,29,0,-29,14,14,-19,34,63,19,24,29
24,34,9,-29,7,21,-24,24,58,29,24,34
14,34,19,-24,-2,26,-24,19,43,29,34,34
4,34,29,-19,-12,31,-29,4,39,29,34,43
0,43,43,-21,-21,43,-29,4,29,29,39,43
-24,43,68,-9,-46,56,-29,0,24,34,39,48
-34,43,78,-4,-56,61,-24,-9,14,34,39,48
-43,43,87,0,-65,65,-29,-19,9,34,43,48
-39,43,82,-2,-61,63,-24,-19,0,34,43,48
-29,43,73,-7,-51,58,-29,-29,-9,29,39,43
-24,39,63,-7,-43,51,-24,-29,-19,24,34,39
-19,39,58,-9,-39,48,-29,-39,-24,19,29,34
-19,39,58,-9,-39,48,-34,-48,-34,14,24,34
-14,39,53,-12,-34,46,-34,-43,-39,9,19,29
-14,39,53,-12,-34,46,-34,-43,-39,9,14,24
-9,34,43,-12,-26,39,-34,-43,-43,9,14,19
0,34,34,-17,-17,34,-34,-48,-43,9,14,19
9,29,19,-19,-4,24,-34,-48,-48,4,9,14
19,29,9,-24,4,19,-34,-48,-48,4,9,9
24,29,4,-26,9,17,-34,-48,-48,4,9,9
19,24,4,-21,7,14,-34,-48,-53,4,9,9
9,24,14,-17,-2,19,-29,-48,-53,4,14,14
4,19,14,-12,-4,17,-24,-48,-48,9,14,19
0,19,19,-9,-9,19,-24,-43,-48,9,19,24
-9,19,29,-4,-19,24,-24,-43,-48,9,19,24
-14,19,34,-2,-24,26,-19,-43,-48,9,24,29
-24,19,43,2,-34,31,-14,-43,-48,14,24,34
-39,19,58,9,-48,39,-14,-43,-43,14,29,39
-48,24,73,12,-61,48,-9,-39,-43,19,29,39
-58,24,82,17,-70,53,0,-39,-43,19,29,48
-68,24,92,21,-80,58,4,-39,-39,19,24,48
-68,24,92,21,-80,58,4,-34,-39,14,24,43
-68,24,92,21,-80,58,4,-39,-43,14,19,43
-58,29,87,14,-73,58,4,-39,-43,9,19,43
-48,34,82,7,-65,58,0,-39,-43,4,14,39
-39,34,73,2,-56,53,0,-39,-43,4,9,34
-34,39,73,-2,-53,56,0,-34,-43,0,9,29
-29,34,63,-2,-46,48,0,-34,-43,0,4,29
-14,34,48,-9,-31,41,0,-34,-43,0,0,24
4,39,34,-21,-14,36,-9,-34,-43,-9,0,19
19,34,14,-26,2,24,-14,-34,-43,-14,-9,14
29,34,4,-31,12,19,-19,-34,-43,-14,-9,14
39,34,-4,-36,21,14,-19,-34,-48,-19,-14,9
43,34,-9,-39,26,12,-24,-34,-48,-19,-14,9
43,34,-9,-39,26,12,-24,-34,-43,-19,-14,4
39,29,-9,-34,24,9,-24,-29,-43,-14,-14,4
34,24,-9,-29,21,7,-24,-29,-43,-14,-9,9
24,14,-9,-19,17,2,-19,-24,-39,-9,-9,9
24,14,-9,-19,17,2,-19,-24,-39,-9,0,9
19,9,-9,-14,14,0,-24,-29,-39,-9,0,9
14,9,-4,-12,9,2,-24,-29,-43,-9,0,9
14,9,-4,-12,9,2,-29,-29,-43,-9,0,14
14,9,-4,-12,9,2,-29,-29,-48,-9,4,14
14,14,0,-14,7,7,-34,-29,-48,-9,9,14
14,19,4,-17,4,12,-34,-34,-48,0,9,14
14,19,4,-17,4,12,-39,-34,-48,0,9,19
14,24,9,-19,2,17,-39,-34,-48,0,9,24
14,24,9,-19,2,17,-39,-34,-48,0,9,24
4,29,24,-17,-9,26,-43,-39,-48,0,14,29
-9,34,43,-12,-26,39,-43,-39,-48,4,14,29
-24,39,63,-7,-43,51,-43,-39,-53,4,14,34
-34,39,73,-2,-53,56,-43,-39,-53,4,19,39
-39,39,78,0,-58,58,-43,-39,-53,9,19,39
-39,39,78,0,-58,58,-43,-43,-53,4,14,39
-39,39,78,0,-58,58,-43,-43,-53,4,14,34
-34,34,68,0,-51,51,-43,-43,-58,0,9,34
-24,34,58,-4,-41,46,-48,-48,-58,0,9,29
-19,29,48,-4,-34,39,-53,-48,-58,-9,4,24
-9,29,39,-9,-24,34,-53,-48,-63,-14,4,24
-9,24,34,-7,-21,29,-53,-53,-63,-9,4,19
0,19,19,-9,-9,19,-53,-53,-63,-9,0,14
9,14,4,-12,2,9,-58,-53,-68,-14,0,9
19,9,-9,-14,14,0,-63,-53,-68,-19,-9,4
24,4,-19,-14,21,-7,-63,-53,-68,-19,-14,0
29,4,-24,-17,26,-9,-63,-53,-73,-19,-14,-9
29,0,-29,-14,29,-14,-58,-53,-68,-19,-14,-9
24,-9,-34,-7,29,-21,-53,-48,-68,-19,-9,-9
19,-14,-34,-2,26,-24,-48,-48,-63,-19,-9,-9
14,-14,-29,0,21,-21,-43,-48,-63,-19,-14,-9
9,-19,-29,4,19,-24,-43,-48,-63,-19,-14,-9
4,-19,-24,7,14,-21,-39,-48,-63,-19,-14,-9
0,-24,-24,12,12,-24,-39,-48,-63,-24,-14,-9
-9,-24,-14,17,2,-19,-39,-48,-63,-24,-19,-9
-14,-24,-9,19,-2,-17,-34,-48,-63,-29,-19,0
-29,-19,9,24,-19,-4,-29,-48,-63,-29,-19,4
-43,-19,24,31,-34,2,-24,-43,-63,-29,-19,9
-63,-24,39,43,-51,7,-19,-43,-63,-29,-19,14
-78,-24,53,51,-65,14,-9,-43,-63,-29,-14,14
-87,-24,63,56,-75,19,-9,-43,-58,-29,-14,19
-92,-19,73,56,-82,26,0,-43,-58,-29,-14,29
-97,-19,78,58,-87,29,0,-43,-58,-29,-14,29
-102,-19,82,61,-92,31,4,-43,-58,-29,-9,29
-102,-14,87,58,-95,36,4,-43,-58,-24,-9,34
-102,-14,87,58,-95,36,4,-43,-58,-24,0,29
-87,-9,78,48,-82,34,0,-48,-58,-24,0,29
-73,-9,63,41,-68,26,-9,-48,-68,-24,0,24
-43,0,43,21,-43,21,-14,-53,-68,-24,-9,14
-19,4,24,7,-21,14,-19,-53,-73,-24,-14,9
4,9,4,-7,0,7,-24,-53,-73,-24,-14,4
29,9,-19,-19,24,-4,-34,-58,-73,-24,-14,0
43,14,-29,-29,36,-7,-34,-58,-78,-24,-14,-9
48,14,-34,-31,41,-9,-34,-58,-78,-24,-14,-9
48,14,-34,-31,41,-9,-39,-58,-78,-19,-14,-9
53,9,-43,-31,48,-17,-39,-58,-78,-19,-14,-14
58,4,-53,-31,56,-24,-34,-58,-73,-19,-19,-14
53,9,-43,-31,48,-17,-34,-53,-73,-19,-14,-14
43,9,-34,-26,39,-12,-29,-53,-68,-14,-14,-9
29,4,-24,-17,26,-9,-19,-48,-63,0,-9,0
14,4,-9,-9,12,-2,-14,-48,-63,4,0,4
4,4,0,-4,2,2,-14,-43,-58,4,0,9
-9,4,14,2,-12,9,-9,-43,-58,4,4,14
-14,0,14,7,-14,7,-9,-43,-58,4,4,14
-19,0,19,9,-19,9,0,-43,-58,4,0,14
-19,0,19,9,-19,9,0,-39,-58,4,4,14
-19,0,19,9,-19,9,0,-39,-58,0,4,14
-24,0,24,12,-24,12,4,-39,-53,4,4,14
-24,4,29,9,-26,17,4,-39,-53,4,4,14
-19,4,24,7,-21,14,0,-34,-53,4,9,19
-19,4,24,7,-21,14,4,-34,-53,4,9,19
-24,9,34,7,-29,21,4,-34,-48,9,9,19
-34,14,48,9,-41,31,4,-29,-48,9,14,24
-48,9,58,19,-53,34,14,-24,-43,14,19,29
-73,9,82,31,-78,46,19,-19,-34,24,29,34
-87,14,102,36,-95,58,29,-14,-29,29,34,43
-92,14,107,39,-100,61,29,-14,-29,29,39,48
-82,19,102,31,-92,61,24,-14,-29,29,39,48
-73,19,92,26,-82,56,19,-14,-29,29,39,43
-58,19,78,19,-68,48,14,-19,-34,24,34,43
-48,19,68,14,-58,43,14,-19,-34,19,29,39
-39,19,58,9,-48,39,9,-24,-34,14,24,34
-34,19,53,7,-43,36,9,-24,-39,14,24,29
-24,19,43,2,-34,31,4,-29,-43,9,24,29
-9,19,29,-4,-19,24,-9,-29,-48,4,19,24
9,24,14,-17,-2,19,-14,-34,-53,-9,9,24
34,24,-9,-29,21,7,-24,-39,-58,-14,4,14
43,29,-14,-36,29,7,-29,-43,-63,-19,0,14
39,29,-9,-34,24,9,-29,-43,-63,-19,0,9
29,29,0,-29,14,14,-29,-43,-58,-19,4,14
4,29,24,-17,-9,26,-19,-39,-53,-14,9,19
-14,29,43,-7,-29,36,-19,-34,-53,0,14,24
-29,29,58,0,-43,43,-14,-29,-48,0,19,29
-34,29,63,2,-48,46,-19,-34,-48,0,19,34
-39,29,68,4,-53,48,-19,-34,-53,4,14,34
-34,34,68,0,-51,51,-24,-39,-53,4,14,29
-24,34,58,-4,-41,46,-29,-39,-58,0,14,29
-14,34,48,-9,-31,41,-34,-43,-58,0,14,24
0,39,39,-19,-19,39,-39,-48,-63,0,9,24
14,43,29,-29,-7,36,-48,-48,-68,-9,9,19
24,43,19,-34,2,31,-53,-53,-68,-14,4,19
39,43,4,-41,17,24,-63,-58,-78,-19,0,14
48,43,-4,-46,26,19,-68,-68,-82,-24,-9,9
58,43,-14,-51,36,14,-73,-73,-87,-24,-9,9
63,43,-19,-53,41,12,-78,-73,-87,-29,-14,9
63,43,-19,-53,41,12,-82,-78,-92,-24,-9,9
53,43,-9,-48,31,17,-82,-78,-82,-24,0,9
43,39,-4,-41,24,17,-78,-73,-82,-19,4,14
34,39,4,-36,14,21,-73,-73,-78,-14,9,19
19,34,14,-26,2,24,-73,-73,-78,-9,14,24
9,34,24,-21,-7,29,-68,-73,-78,-9,14,24
4,34,29,-19,-12,31,-68,-73,-78,-14,14,24
0,34,34,-17,-17,34,-68,-73,-78,-14,14,24
0,34,34,-17,-17,34,-68,-73,-82,-14,9,24
4,34,29,-19,-12,31,-68,-73,-82,-9,9,29
0,29,29,-14,-14,29,-68,-73,-78,-9,9,29
-14,29,43,-7,-29,36,-63,-73,-78,-9,9,29
-24,24,48,0,-36,36,-58,-73,-78,-9,9,29
-34,24,58,4,-46,41,-53,-73,-78,-9,9,29
-43,24,68,9,-56,46,-48,-73,-82,-9,9,34
-43,24,68,9,-56,46,-48,-73,-82,-14,9,34
-43,29,73,7,-58,51,-48,-73,-82,-14,9,29
-39,29,68,4,-53,48,-48,-73,-82,-14,9,29
-43,34,78,4,-61,56,-48,-73,-82,-9,9,34
-43,34,78,4,-61,56,-43,-73,-82,-9,9,34
-43,34,78,4,-61,56,-39,-68,-78,0,14,34
-48,34,82,7,-65,58,-39,-68,-78,0,14,39
-43,39,82,2,-63,61,-39,-68,-78,4,19,39
-34,43,78,-4,-56,61,-39,-73,-78,4,19,39
-24,48,73,-12,-48,61,-43,-73,-82,0,14,39
-14,48,63,-17,-39,56,-48,-73,-82,0,14,34
-9,48,58,-19,-34,53,-48,-73,-82,0,14,34
0,48,48,-24,-24,48,-48,-73,-78,0,14,34
0,43,43,-21,-21,43,-48,-68,-78,0,14,34
4,43,39,-24,-17,41,-48,-68,-78,0,14,29
4,39,34,-21,-14,36,-43,-68,-78,-9,14,29
4,39,34,-21,-14,36,-43,-68,-82,-9,9,24
0,39,39,-19,-19,39,-43,-68,-82,-9,9,24
0,34,34,-17,-17,34,-43,-68,-82,-9,9,24
0,34,34,-17,-17,34,-43,-68,-78,-9,9,24
0,34,34,-17,-17,34,-43,-63,-78,-9,9,24
0,34,34,-17,-17,34,-39,-63,-78,-9,9,24
0,34,34,-17,-17,34,-39,-63,-78,-9,9,24
4,29,24,-17,-9,26,-39,-63,-78,-9,9,19
4,29,24,-17,-9,26,-39,-63,-78,-9,4,19
4,29,24,-17,-9,26,-34,-63,-78,-9,9,19
0,29,29,-14,-14,29,-34,-58,-78,0,9,19
0,34,34,-17,-17,34,-34,-58,-78,0,14,24
-9,29,39,-9,-24,34,-24,-58,-73,4,14,24
-24,29,53,-2,-39,41,-24,-53,-73,4,14,29
-39,24,63,7,-51,43,-14,-48,-68,9,19,29
-58,24,82,17,-70,53,-9,-48,-63,9,19,34
-68,19,87,24,-78,53,0,-43,-63,14,24,34
-73,14,87,29,-80,51,0,-43,-63,14,24,34
-68,19,87,24,-78,53,0,-43,-63,14,24,34
-58,19,78,19,-68,48,-9,-48,-63,14,24,34
-53,24,78,14,-65,51,-9,-43,-63,14,24,34
-48,24,73,12,-61,48,-9,-43,-63,14,24,34
-43,24,68,9,-56,46,-9,-43,-63,14,24,34
-43,29,73,7,-58,51,0,-43,-58,14,19,34
-43,29,73,7,-58,51,0,-43,-58,14,24,34
-39,34,73,2,-56,53,0,-43,-58,14,19,34
-24,34,58,-4,-41,46,-9,-43,-58,9,19,34
-9,39,48,-14,-29,43,-14,-48,-63,4,14,29
9,39,29,-24,-9,34,-19,-53,-63,4,14,24
19,43,24,-31,-2,34,-24,-53,-68,0,9,24
19,43,24,-31,-2,34,-29,-53,-68,0,9,24
19,39,19,-29,0,29,-29,-53,-68,-9,4,19
19,39,19,-29,0,29,-29,-53,-68,-9,4,19
19,34,14,-26,2,24,-29,-53,-68,-9,4,19
19,34,14,-26,2,24,-34,-58,-73,-14,4,14
24,34,9,-29,7,21,-34,-58,-73,-14,0,9
39,34,-4,-36,21,14,-43,-58,-73,-14,0,4
48,34,-14,-41,31,9,-43,-63,-78,-19,0,4
43,34,-9,-39,26,12,-43,-63,-78,-19,-9,9
39,39,0,-39,19,19,-43,-58,-78,-19,0,14
34,43,9,-39,12,26,-39,-58,-78,-14,9,14
29,39,9,-34,9,24,-39,-53,-73,-14,4,19
24,29,4,-26,9,17,-34,-53,-73,-14,9,14
14,19,4,-17,4,12,-29,-48,-73,-9,4,19
14,9,-4,-12,9,2,-19,-39,-63,-9,4,9
4,-9,-14,2,9,-12,-14,-24,-53,0,-9,4
0,-24,-24,12,12,-24,4,-14,-39,0,0,0
-9,-34,-24,21,7,-29,19,4,-24,9,9,0
-9,-34,-24,21,7,-29,19,19,0,19,19,4
-14,-39,-24,26,4,-31,24,34,19,29,24,9
4,-48,-53,21,29,-51,29,53,53,34,34,9
24,-53,-78,14,51,-65,29,82,92,48,48,9
48,-39,-87,-4,68,-63,24,112,136,78,73,29
78,9,-68,-43,73,-29,9,117,161,112,112,58
107,92,-14,-100,61,39,-34,97,165,161,175,117
151,229,78,-190,36,153,-97,68,165,229,263,209
180,380,200,-280,-9,290,-165,19,151,292,341,302
209,556,346,-383,-68,451,-248,-43,117,331,424,409
239,756,517,-497,-139,636,-331,-107,78,375,502,527
283,946,663,-614,-190,805,-419,-165,53,419,570,639
331,1127,795,-729,-231,961,-502,-214,34,444,624,722
366,1263,897,-814,-265,1080,-556,-248,29,458,658,780
390,1351,961,-871,-285,1156,-590,-253,43,478,678,814
414,1400,985,-907,-285,1193,-605,-248,58,502,688,819
419,1410,990,-915,-285,1200,-600,-234,82,522,683,795
419,1381,961,-900,-270,1171,-575,-209,117,527,663,746
395,1307,912,-851,-258,1110,-536,-175,141,517,619,678
361,1220,858,-790,-248,1039,-483,-146,161,507,566,595
307,1107,800,-707,-246,954,-405,-107,175,492,507,512
229,980,751,-605,-261,866,-326,-73,180,473,444,429
146,858,712,-502,-283,785,-244,-39,185,434,361,336
92,717,624,-405,-265,671,-165,9,180,361,263,239
53,546,492,-300,-219,519,-87,53,190,278,146,122
9,351,341,-180,-165,346,0,107,214,195,43,14
-24,195,219,-85,-122,207,82,170,234,151,-19,-63
-39,92,131,-26,-85,112,146,229,268,131,-48,-97
-43,0,43,21,-43,21,195,283,307,122,-63,-126
-53,-126,-73,90,9,-100,258,336,341,97,-92,-165
-73,-248,-175,161,51,-212,322,395,390,82,-112,-219
-82,-351,-268,217,92,-309,390,463,448,87,-122,-253
-78,-434,-356,256,139,-395,453,536,517,102,-117,-278
-68,-507,-439,287,185,-473,502,614,590,117,-122,-302
-53,-546,-492,300,219,-519,546,683,658,122,-122,-317
-48,-551,-502,300,226,-527,570,717,688,131,-117,-307
-58,-536,-478,297,209,-507,595,741,702,146,-102,-297
-68,-522,-453,295,192,-488,619,761,712,161,-82,-278
-78,-502,-424,290,173,-463,644,780,727,170,-73,-268
-82,-502,-419,292,168,-461,663,795,746,175,-68,-258
-82,-492,-409,287,163,-451,673,814,751,175,-63,-253
-68,-478,-409,273,170,-444,663,805,741,175,-58,-244
-43,-444,-400,244,178,-422,624,756,697,170,-58,-234
-29,-390,-361,209,165,-375,566,688,634,170,-43,-200
-29,-346,-317,187,143,-331,502,595,541,170,-29,-175
-43,-297,-253,170,104,-275,439,488,444,170,-14,-141
-58,-253,-195,156,68,-224,370,380,351,170,14,-117
-73,-224,-151,148,39,-187,307,292,273,175,24,-87
-78,-190,-112,134,17,-151,258,209,195,165,34,-68
-92,-161,-68,126,-12,-114,219,131,126,146,34,-58
-92,-141,-48,117,-21,-95,180,73,68,126,29,-43
-78,-122,-43,100,-17,-82,156,39,34,102,24,-34
-63,-102,-39,82,-12,-70,131,24,9,82,14,-34
-58,-92,-34,75,-12,-63,112,14,-9,63,0,-29
-48,-82,-34,65,-7,-58,92,9,-19,34,-9,-34
-39,-73,-34,56,-2,-53,82,4,-24,14,-19,-34
-24,-73,-48,48,12,-61,68,4,-29,-9,-29,-39
-19,-78,-58,48,19,-68,63,9,-24,-24,-39,-39
-14,-78,-63,46,24,-70,48,9,-24,-34,-39,-43
-19,-78,-58,48,19,-68,48,19,-24,-39,-34,-34
-24,-73,-48,48,12,-61,39,14,-24,-39,-39,-34
-29,-58,-29,43,0,-43,39,9,-24,-43,-34,-29
-39,-58,-19,48,-9,-39,34,9,-24,-39,-39,-24
-58,-63,-4,61,-26,-34,39,9,-29,-39,-34,-24
-73,-58,14,65,-43,-21,34,4,-39,-43,-34,-19
-82,-63,19,73,-51,-21,39,0,-39,-39,-24,-19
-82,-63,19,73,-51,-21,39,-9,-39,-39,-24,-14
-78,-73,4,75,-41,-34,34,-9,-43,-39,-29,-14
-68,-73,-4,70,-31,-39,24,-9,-48,-39,-34,-19
-48,-63,-14,56,-17,-39,19,-19,-48,-48,-34,-19
-39,-58,-19,48,-9,-39,9,-24,-58,-53,-39,-24
-34,-58,-24,46,-4,-41,9,-24,-63,-53,-43,-29
-29,-58,-29,43,0,-43,4,-29,-63,-58,-43,-34
-29,-58,-29,43,0,-43,9,-34,-63,-63,-48,-34
-19,-58,-39,39,9,-48,4,-34,-73,-63,-53,-39
0,-58,-58,29,29,-58,0,-39,-78,-68,-63,-43
19,-58,-78,19,48,-68,-19,-43,-78,-68,-63,-48
29,-63,-92,17,61,-78,-24,-43,-82,-78,-68,-48
29,-68,-97,19,63,-82,-24,-48,-82,-78,-68,-53
19,-73,-92,26,56,-82,-24,-48,-87,-78,-68,-58
4,-73,-78,34,41,-75,-19,-48,-82,-73,-68,-58
0,-73,-73,36,36,-73,-19,-48,-78,-73,-58,-53
-9,-78,-68,43,29,-73,-19,-48,-82,-73,-58,-53
-9,-73,-63,41,26,-68,-19,-53,-87,-73,-58,-48
-9,-68,-58,39,24,-63,-24,-53,-92,-68,-53,-48
0,-68,-68,34,34,-68,-29,-58,-92,-78,-53,-43
-14,-63,-48,39,17,-56,-29,-63,-92,-78,-53,-43
-24,-63,-39,43,7,-51,-29,-63,-92,-78,-53,-43
-29,-68,-39,48,4,-53,-29,-63,-92,-78,-58,-48
-29,-68,-39,48,4,-53,-29,-68,-92,-78,-58,-48
-29,-68,-39,48,4,-53,-29,-68,-97,-78,-63,-53
-34,-68,-34,51,0,-51,-39,-73,-97,-78,-58,-48
-34,-68,-34,51,0,-51,-39,-73,-102,-82,-58,-48
-39,-63,-24,51,-7,-43,-34,-82,-102,-82,-58,-48
-43,-63,-19,53,-12,-41,-34,-68,-102,-78,-58,-43
-48,-68,-19,58,-14,-43,-34,-68,-97,-73,-53,-43
-58,-68,-9,63,-24,-39,-29,-68,-97,-73,-53,-43
-53,-68,-14,61,-19,-41,-24,-63,-87,-73,-53,-43
-48,-68,-19,58,-14,-43,-19,-63,-87,-73,-53,-43
-43,-68,-24,56,-9,-46,-19,-63,-92,-78,-58,-48
-43,-73,-29,58,-7,-51,-24,-63,-92,-78,-63,-48
-43,-78,-34,61,-4,-56,-14,-58,-87,-78,-63,-48
-34,-78,-43,56,4,-61,-14,-58,-87,-78,-63,-48
-29,-78,-48,53,9,-63,-14,-53,-87,-82,-63,-53
-14,-82,-68,48,26,-75,-14,-48,-87,-82,-73,-58
0,-87,-87,43,43,-87,-14,-48,-82,-87,-78,-63
14,-92,-107,39,61,-100,-14,-48,-82,-97,-82,-68
19,-97,-117,39,68,-107,-19,-58,-87,-102,-92,-78
24,-107,-131,41,78,-119,-19,-53,-87,-107,-92,-78
24,-107,-131,41,78,-119,-14,-48,-87,-102,-92,-78
24,-102,-126,39,75,-114,-14,-48,-82,-102,-92,-78
29,-97,-126,34,78,-112,-14,-43,-78,-102,-87,-73
24,-97,-122,36,73,-109,-14,-43,-78,-102,-87,-73
19,-92,-112,36,65,-102,-14,-43,-78,-102,-92,-73
9,-97,-107,43,58,-102,-9,-43,-78,-107,-92,-73
4,-102,-107,48,56,-104,-9,-43,-78,-107,-92,-78
0,-102,-102,51,51,-102,0,-43,-78,-107,-92,-73
-14,-107,-92,61,39,-100,4,-39,-73,-107,-87,-73
-29,-107,-78,68,24,-92,4,-34,-73,-102,-92,-73
-29,-107,-78,68,24,-92,9,-34,-68,-102,-92,-73
-24,-102,-78,63,26,-90,9,-39,-63,-102,-92,-78
-19,-102,-82,61,31,-92,9,-34,-68,-102,-97,-78
-9,-112,-102,61,46,-107,9,-34,-73,-107,-102,-87
4,-117,-122,56,63,-119,9,-34,-73,-107,-102,-92
9,-122,-131,56,70,-126,9,-29,-68,-112,-102,-92
9,-122,-131,56,70,-126,14,-29,-63,-107,-102,-92
-9,-122,-112,65,51,-117,14,-29,-68,-107,-102,-87
-29,-122,-92,75,31,-107,19,-24,-58,-102,-92,-82
-39,-131,-92,85,26,-112,24,-19,-53,-107,-92,-82
-39,-131,-92,85,26,-112,24,-19,-58,-107,-97,-87
-29,-146,-117,87,43,-131,29,-19,-53,-117,-102,-97
-19,-146,-126,82,53,-136,24,-9,-53,-122,-112,-102
-14,-156,-141,85,63,-148,24,0,-53,-122,-117,-107
-14,-165,-151,90,68,-158,29,0,-48,-126,-117,-112
-19,-175,-156,97,68,-165,34,4,-48,-126,-117,-117
-24,-180,-156,102,65,-168,34,9,-43,-126,-117,-122
-24,-185,-161,104,68,-173,39,9,-39,-131,-122,-122
-19,-185,-165,102,73,-175,43,14,-39,-136,-126,-117
-14,-180,-165,97,75,-173,34,9,-39,-146,-136,-126
4,-185,-190,90,97,-187,34,14,-34,-146,-136,-131
9,-195,-204,92,107,-200,39,14,-34,-151,-151,-136
4,-200,-204,97,104,-202,39,19,-39,-156,-146,-146
-9,-214,-204,112,97,-209,43,19,-39,-156,-151,-141
-9,-214,-204,112,97,-209,48,24,-34,-161,-151,-146
-14,-219,-204,117,95,-212,53,29,-29,-161,-156,-151
0,-219,-219,109,109,-219,53,34,-24,-161,-161,-151
4,-224,-229,109,117,-226,53,34,-24,-165,-165,-156
14,-224,-239,104,126,-231,53,29,-24,-170,-170,-161
24,-234,-258,104,141,-246,48,34,-19,-175,-175,-165
29,-234,-263,102,146,-248,53,39,-19,-180,-175,-170
29,-244,-273,107,151,-258,53,43,-14,-180,-180,-175
19,-248,-268,114,143,-258,53,39,-14,-190,-190,-180
29,-248,-278,109,153,-263,48,39,-9,-195,-195,-185
34,-248,-283,107,158,-265,43,43,-9,-195,-195,-190
39,-258,-297,109,168,-278,48,48,0,-200,-209,-200
34,-273,-307,119,170,-290,48,48,4,-209,-209,-209
39,-268,-307,114,173,-287,48,53,9,-209,-209,-209
34,-268,-302,117,168,-285,48,53,14,-200,-200,-209
24,-268,-292,122,158,-280,53,58,14,-200,-200,-200
19,-263,-283,122,151,-273,48,58,24,-200,-195,-195
24,-253,-278,114,151,-265,48,63,29,-195,-195,-185
14,-253,-268,119,141,-261,48,68,29,-195,-190,-185
9,-248,-258,119,134,-253,48,68,34,-190,-185,-180
14,-244,-258,114,136,-251,43,68,39,-185,-180,-175
29,-234,-263,102,146,-248,39,73,43,-185,-180,-175
34,-224,-258,95,146,-241,34,68,48,-180,-175,-175
34,-224,-258,95,146,-241,34,73,48,-180,-175,-175
48,-214,-263,82,156,-239,24,73,53,-180,-175,-175
58,-200,-258,70,158,-229,24,78,58,-180,-170,-170
63,-190,-253,63,158,-222,14,78,63,-175,-170,-165
68,-185,-253,58,161,-219,14,82,73,-170,-161,-156
68,-175,-244,53,156,-209,9,82,73,-165,-161,-151
73,-170,-244,48,158,-207,4,78,73,-161,-151,-151
82,-165,-248,41,165,-207,0,68,73,-156,-146,-141
92,-151,-244,29,168,-197,0,68,73,-146,-141,-131
97,-126,-224,14,161,-175,-9,68,73,-136,-126,-122
102,-107,-209,2,156,-158,-19,68,78,-126,-112,-107
92,-92,-185,0,139,-139,-14,63,78,-117,-102,-92
82,-68,-151,-7,117,-109,-19,58,78,-107,-92,-78
78,-58,-136,-9,107,-97,-19,53,78,-92,-78,-68
73,-48,-122,-12,97,-85,-19,43,63,-87,-73,-63
73,-43,-117,-14,95,-80,-24,48,63,-78,-73,-58
73,-34,-107,-19,90,-70,-24,39,58,-73,-63,-48
63,-29,-92,-17,78,-61,-19,34,48,-63,-53,-43
43,-19,-63,-12,53,-41,-19,29,48,-53,-48,-34
29,-14,-43,-7,36,-29,-19,29,48,-43,-39,-24
4,0,-4,-2,4,-2,-9,24,48,-34,-24,-14
-14,9,24,2,-19,17,4,24,43,-24,-19,0
-29,14,43,7,-36,29,4,19,43,-19,-14,4
-29,14,43,7,-36,29,9,19,39,-14,-9,4
-34,24,58,4,-46,41,4,14,34,-9,4,19
-24,24,48,0,-36,36,4,9,29,0,9,19
-9,34,43,-12,-26,39,-9,4,24,0,9,24
-9,48,58,-19,-34,53,-9,0,14,4,14,24
-9,58,68,-24,-39,63,-14,-14,9,9,19,29
0,63,63,-31,-31,63,-14,-19,4,9,19,29
14,68,53,-41,-19,61,-19,-24,-9,9,19,34
24,68,43,-46,-9,56,-14,-24,-9,9,19,24
34,58,24,-46,4,41,-19,-29,-19,9,19,29
43,53,9,-48,17,31,-29,-39,-29,4,9,19
48,53,4,-51,21,29,-29,-43,-29,4,14,19
48,58,9,-53,19,34,-34,-43,-34,4,14,24
43,63,19,-53,12,41,-34,-48,-34,4,14,24
34,63,29,-48,2,46,-29,-43,-39,9,19,29
24,63,39,-43,-7,51,-29,-43,-39,9,19,34
14,58,43,-36,-14,51,-24,-43,-39,9,19,34
4,53,48,-29,-21,51,-19,-43,-34,9,19,34
-14,48,63,-17,-39,56,-14,-39,-34,14,24,39
-29,43,73,-7,-51,58,-9,-39,-29,14,29,39
-43,43,87,0,-65,65,-9,-34,-29,19,29,43
-48,43,92,2,-70,68,0,-34,-29,19,34,43
-58,43,102,7,-80,73,-9,-34,-29,19,29,43
-48,48,97,0,-73,73,-9,-39,-34,14,24,39
-39,48,87,-4,-63,68,-19,-39,-39,9,24,39
-29,53,82,-12,-56,68,-24,-43,-43,9,19,34
-19,53,73,-17,-46,63,-29,-48,-48,4,19,29
-19,53,73,-17,-46,63,-29,-48,-48,4,14,29
-19,53,73,-17,-46,63,-29,-43,-48,4,19,34
-14,48,63,-17,-39,56,-29,-43,-43,4,19,29
0,48,48,-24,-24,48,-34,-43,-43,4,19,29
9,48,39,-29,-14,43,-34,-43,-48,4,14,29
14,53,39,-34,-12,46,-39,-48,-53,0,14,24
24,53,29,-39,-2,41,-39,-53,-53,0,9,24
24,53,29,-39,-2,41,-39,-48,-53,0,9,24
24,53,29,-39,-2,41,-39,-48,-48,4,9,24
14,48,34,-31,-9,41,-34,-43,-43,4,9,24
4,39,34,-21,-14,36,-29,-43,-43,9,14,24
0,39,39,-19,-19,39,-29,-39,-39,9,9,24
0,39,39,-19,-19,39,-29,-43,-39,9,9,24
-9,39,48,-14,-29,43,-29,-43,-43,4,9,24
-19,43,63,-12,-41,53,-29,-48,-43,4,9,24
-29,43,73,-7,-51,58,-29,-48,-43,9,9,29
-39,43,82,-2,-61,63,-29,-48,-43,9,9,29
-43,39,82,2,-63,61,-24,-48,-43,9,14,29
-43,39,82,2,-63,61,-24,-53,-48,9,14,34
-43,39,82,2,-63,61,-29,-53,-53,9,14,34
-39,43,82,-2,-61,63,-34,-58,-58,4,9,34
-29,43,73,-7,-51,58,-39,-63,-63,4,9,29
-24,48,73,-12,-48,61,-43,-68,-68,0,4,29
-14,48,63,-17,-39,56,-43,-73,-68,0,4,29
-14,43,58,-14,-36,51,-48,-73,-73,0,4,29
-9,43,53,-17,-31,48,-48,-78,-78,-9,4,24
0,43,43,-21,-21,43,-53,-78,-78,-9,0,19
14,39,24,-26,-4,31,-53,-82,-82,-14,-9,14
24,39,14,-31,4,26,-58,-82,-87,-19,-14,14
29,39,9,-34,9,24,-63,-87,-87,-24,-14,9
29,39,9,-34,9,24,-63,-87,-92,-29,-19,4
19,34,14,-26,2,24,-58,-87,-87,-29,-14,4
4,29,24,-17,-9,26,-53,-82,-87,-24,-14,9
-19,24,43,-2,-31,34,-43,-82,-82,-19,-9,14
-34,19,53,7,-43,36,-39,-78,-82,-14,0,14
-43,14,58,14,-51,36,-34,-78,-78,-14,0,19
-53,9,63,21,-58,36,-29,-68,-78,-14,0,19
-53,4,58,24,-56,31,-29,-68,-78,-19,-9,14
-53,4,58,24,-56,31,-29,-68,-78,-19,0,14
-53,0,53,26,-53,26,-24,-68,-78,-19,0,14
-48,0,48,24,-48,24,-29,-68,-82,-24,-9,9
-43,0,43,21,-43,21,-29,-68,-82,-24,-9,9
-34,0,34,17,-34,17,-29,-73,-82,-29,-14,4
-29,0,29,14,-29,14,-34,-73,-87,-34,-19,0
-19,-9,9,14,-14,0,-34,-73,-87,-39,-34,-9
0,-9,-9,4,4,-9,-39,-73,-87,-43,-34,-14
9,-9,-19,0,14,-14,-39,-78,-87,-43,-39,-19
14,-9,-24,-2,19,-17,-39,-78,-87,-43,-39,-19
19,0,-19,-9,19,-9,-39,-78,-87,-43,-34,-19
19,4,-14,-12,17,-4,-39,-78,-87,-39,-34,-14
19,9,-9,-14,14,0,-39,-78,-87,-39,-29,-14
19,14,-4,-17,12,4,-39,-78,-82,-34,-29,-9
14,14,0,-14,7,7,-39,-73,-82,-29,-24,-9
4,14,9,-9,-2,12,-34,-68,-78,-24,-19,0
0,14,14,-7,-7,14,-29,-68,-73,-19,-14,4
-9,14,24,-2,-17,19,-24,-63,-68,-14,-9,9
-14,19,34,-2,-24,26,-19,-63,-68,-9,4,14
-24,19,43,2,-34,31,-19,-58,-63,0,4,19
-34,24,58,4,-46,41,-14,-58,-58,0,9,24
-39,24,63,7,-51,43,-14,-58,-58,4,14,24
-43,24,68,9,-56,46,-14,-58,-58,4,14,29
-48,29,78,9,-63,53,-14,-58,-53,9,19,29
-53,29,82,12,-68,56,-14,-58,-53,9,19,34
-53,29,82,12,-68,56,-14,-53,-53,9,24,34
-43,29,73,7,-58,51,-19,-58,-53,9,24,34
-39,34,73,2,-56,53,-19,-58,-53,9,24,34
-34,34,68,0,-51,51,-24,-58,-53,9,24,34
-29,34,63,-2,-46,48,-24,-58,-53,9,24,34
-24,34,58,-4,-41,46,-19,-58,-53,9,24,29
-19,34,53,-7,-36,43,-19,-58,-53,9,24,29
-14,34,48,-9,-31,41,-19,-58,-53,9,24,29
-19,34,53,-7,-36,43,-19,-53,-48,9,24,29
-24,34,58,-4,-41,46,-14,-48,-43,14,24,34
-34,34,68,0,-51,51,-14,-48,-39,19,29,34
-39,34,73,2,-56,53,-9,-43,-39,19,34,39
-39,39,78,0,-58,58,-9,-43,-39,24,34,39
-43,39,82,2,-63,61,-9,-43,-39,24,29,39
-39,39,78,0,-58,58,-14,-43,-39,24,29,39
-29,39,68,-4,-48,53,-14,-43,-39,19,29,34
-24,39,63,-7,-43,51,-19,-48,-39,19,29,34
-14,43,58,-14,-36,51,-24,-48,-39,24,29,34
0,43,43,-21,-21,43,-29,-48,-43,19,29,34
9,48,39,-29,-14,43,-29,-48,-43,19,24,34
19,53,34,-36,-7,43,-39,-53,-43,14,19,29
39,58,19,-48,9,39,-43,-53,-48,9,14,24
53,53,0,-53,26,26,-43,-53,-48,4,9,19
63,53,-9,-58,36,21,-48,-53,-48,0,4,14
63,48,-14,-56,39,17,-48,-53,-43,0,4,19
58,48,-9,-53,34,19,-48,-48,-43,4,9,19
53,53,0,-53,26,26,-43,-48,-43,4,9,24
43,53,9,-48,17,31,-43,-48,-43,4,9,24
34,48,14,-41,9,31,-43,-43,-39,4,9,24
24,43,19,-34,2,31,-39,-43,-39,9,14,24
19,43,24,-31,-2,34,-34,-39,-34,14,14,29
9,43,34,-26,-12,39,-34,-39,-34,14,19,29
4,39,34,-21,-14,36,-34,-39,-34,19,24,34
0,39,39,-19,-19,39,-29,-39,-39,19,24,34
0,39,39,-19,-19,39,-29,-43,-39,14,19,29
0,34,34,-17,-17,34,-34,-43,-43,9,14,29
0,34,34,-17,-17,34,-34,-43,-43,9,14,24
0,29,29,-14,-14,29,-34,-43,-48,4,9,24
0,29,29,-14,-14,29,-34,-43,-48,4,9,19
0,29,29,-14,-14,29,-34,-48,-48,0,9,19
-9,24,34,-7,-21,29,-34,-48,-53,0,9,24
-9,24,34,-7,-21,29,-34,-53,-58,0,9,24
-9,29,39,-9,-24,34,-39,-63,-68,-9,4,24
-9,29,39,-9,-24,34,-43,-68,-73,-14,4,24
0,29,29,-14,-14,29,-48,-73,-78,-14,0,19
0,24,24,-12,-12,24,-48,-78,-82,-19,0,19
0,24,24,-12,-12,24,-53,-78,-82,-19,0,19
0,19,19,-9,-9,19,-53,-82,-87,-19,-9,14
0,19,19,-9,-9,19,-53,-82,-87,-19,-9,14
-9,14,24,-2,-17,19,-53,-87,-92,-24,-9,9
-9,9,19,0,-14,14,-53,-87,-92,-24,-9,9
-9,4,14,2,-12,9,-53,-87,-97,-24,-14,9
-9,9,19,0,-14,14,-53,-92,-97,-24,-14,4
-9,9,19,0,-14,14,-53,-92,-97,-24,-14,4
-14,9,24,2,-19,17,-48,-92,-97,-24,-14,4
-19,9,29,4,-24,19,-48,-92,-97,-24,-14,4
-19,9,29,4,-24,19,-43,-87,-97,-24,-14,4
-24,14,39,4,-31,26,-43,-87,-97,-19,-14,9
-24,19,43,2,-34,31,-43,-92,-97,-19,-9,9
-24,24,48,0,-36,36,-43,-92,-97,-19,-9,14
-24,29,53,-2,-39,41,-43,-92,-97,-19,-9,14
-24,34,58,-4,-41,46,-43,-92,-97,-19,-9,19
-24,34,58,-4,-41,46,-43,-92,-97,-19,-9,19
-29,29,58,0,-43,43,-43,-87,-92,-14,0,19
-34,29,63,2,-48,46,-39,-87,-92,-14,0,24
-34,29,63,2,-48,46,-39,-87,-92,-9,9,24
-29,29,58,0,-43,43,-39,-87,-92,-9,9,24
-29,29,58,0,-43,43,-39,-87,-92,-9,4,24
-24,29,53,-2,-39,41,-39,-87,-92,-9,4,24
-29,29,58,0,-43,43,-39,-82,-92,-9,9,24
-29,29,58,0,-43,43,-34,-82,-92,-9,9,24
-29,29,58,0,-43,43,-39,-82,-92,-9,9,24
-29,29,58,0,-43,43,-39,-82,-87,-9,9,24
-29,24,53,2,-41,39,-34,-78,-87,0,9,24
-34,19,53,7,-43,36,-34,-78,-87,0,9,24
-29,19,48,4,-39,34,-29,-78,-87,-9,9,19
-24,19,43,2,-34,31,-29,-78,-87,-14,4,19
-24,19,43,2,-34,31,-29,-78,-87,-14,0,14
-29,14,43,7,-36,29,-29,-78,-87,-19,0,14
-29,9,39,9,-34,24,-24,-78,-82,-19,-9,14
-34,0,34,17,-34,17,-24,-78,-87,-19,-9,9
-29,0,29,14,-29,14,-24,-78,-87,-19,-9,4
-34,-9,24,21,-29,7,-24,-78,-82,-19,-9,4
-39,-9,29,24,-34,9,-24,-78,-82,-19,-9,14
-43,0,43,21,-43,21,-24,-78,-87,-14,4,14
-43,4,48,19,-46,26,-29,-82,-87,-14,4,19
-43,9,53,17,-48,31,-29,-82,-92,-14,4,24
-34,14,48,9,-41,31,-29,-78,-87,-14,4,29
-34,14,48,9,-41,31,-29,-73,-87,-14,4,29
-29,9,39,9,-34,24,-24,-68,-78,-14,4,24
-24,0,24,12,-24,12,-19,-53,-68,-9,4,19
-24,-14,9,19,-17,-2,-9,-43,-53,0,9,9
-19,-24,-4,21,-7,-14,4,-29,-34,9,14,9
-19,-24,-4,21,-7,-14,9,-19,-19,19,24,14
-9,-24,-14,17,2,-19,14,4,4,29,34,19
0,-29,-29,14,14,-29,19,29,34,39,39,19
19,-29,-48,4,34,-39,29,53,73,53,53,24
43,-19,-63,-12,53,-41,29,78,112,78,73,39
63,29,-34,-46,48,-2,9,87,131,102,112,68
92,117,24,-104,34,70,-39,63,141,146,165,126
126,248,122,-187,2,185,-97,34,136,204,244,214
151,400,248,-275,-48,324,-161,-19,102,258,317,307
170,575,405,-373,-117,490,-239,-82,63,297,385,409
204,766,561,-485,-178,663,-322,-146,24,331,453,517
239,956,717,-597,-239,836,-400,-209,-14,361,517,629
273,1127,854,-700,-290,990,-478,-253,-29,380,561,707
302,1249,946,-775,-322,1098,-527,-283,-39,385,585,756
336,1317,980,-827,-322,1149,-561,-287,-29,400,610,780
356,1351,995,-854,-319,1173,-580,-283,0,434,629,785
366,1346,980,-856,-307,1163,-566,-263,29,458,634,766
366,1298,932,-832,-283,1115,-541,-234,68,478,619,712
356,1205,849,-780,-246,1027,-492,-185,112,483,585,644
341,1088,746,-714,-202,917,-439,-136,156,483,551,551
307,946,639,-627,-165,793,-356,-78,190,478,502,453
248,795,546,-522,-148,671,-273,-24,224,468,453,356
185,644,458,-414,-136,551,-175,29,258,448,380,268
141,478,336,-309,-97,407,-97,87,287,395,297,156
117,287,170,-202,-26,229,-19,151,322,326,195,39
97,87,-9,-92,53,39,68,224,356,263,102,-73
68,-63,-131,-2,100,-97,146,287,400,229,48,-146
53,-161,-214,53,134,-187,204,351,444,214,24,-180
58,-244,-302,92,180,-273,248,395,483,190,4,-214
58,-341,-400,141,229,-370,287,448,517,165,-29,-253
58,-444,-502,192,280,-473,331,507,561,156,-58,-297
53,-522,-575,234,314,-549,380,566,624,156,-68,-326
48,-575,-624,263,336,-600,424,629,683,170,-68,-341
58,-619,-678,280,368,-649,463,697,751,180,-68,-346
73,-634,-707,280,390,-671,483,746,800,185,-68,-351
68,-619,-688,275,378,-653,507,775,834,190,-68,-336
43,-585,-629,270,336,-607,522,800,849,204,-53,-312
29,-551,-580,261,305,-566,541,824,863,219,-39,-292
24,-527,-551,251,287,-539,561,849,883,229,-29,-278
24,-517,-541,246,283,-529,580,873,897,234,-29,-268
34,-512,-546,239,290,-529,595,902,917,229,-34,-268
53,-492,-546,219,300,-519,590,907,917,229,-34,-268
68,-463,-531,197,300,-497,566,873,883,219,-29,-253
78,-419,-497,170,287,-458,517,805,824,219,-19,-224
78,-361,-439,141,258,-400,468,712,727,224,0,-195
68,-317,-385,124,226,-351,409,614,629,224,19,-161
48,-273,-322,112,185,-297,346,502,531,229,29,-136
34,-234,-268,100,151,-251,292,390,444,229,43,-107
14,-190,-204,87,109,-197,248,302,346,219,53,-78
-14,-161,-146,87,65,-153,209,209,263,204,58,-63
-39,-136,-97,87,29,-117,175,136,175,175,53,-43
-53,-117,-63,85,4,-90,161,92,122,156,53,-24
-63,-97,-34,80,-14,-65,141,63,87,141,48,-14
-68,-87,-19,78,-24,-53,117,43,58,122,43,-9
-68,-78,-9,73,-29,-43,97,24,24,92,29,-9
-63,-73,-9,68,-26,-41,78,4,4,73,19,-9
-53,-68,-14,61,-19,-41,68,0,-14,48,4,-14
-53,-68,-14,61,-19,-41,53,-14,-24,24,-9,-19
-48,-63,-14,56,-17,-39,43,-19,-29,4,-19,-19
-43,-63,-19,53,-12,-41,34,-19,-34,-14,-24,-19
-34,-53,-19,43,-7,-36,19,-29,-43,-24,-29,-19
-24,-43,-19,34,-2,-31,19,-29,-48,-34,-34,-19
-19,-39,-19,29,0,-29,9,-39,-53,-39,-39,-24
-24,-43,-19,34,-2,-31,9,-39,-58,-39,-43,-24
-29,-48,-19,39,-4,-34,4,-43,-63,-43,-43,-29
-29,-53,-24,41,-2,-39,9,-48,-63,-48,-43,-29
-29,-53,-24,41,-2,-39,4,-48,-63,-48,-43,-29
-29,-53,-24,41,-2,-39,4,-48,-68,-53,-48,-29
-29,-53,-24,41,-2,-39,0,-53,-68,-58,-53,-34
-19,-53,-34,36,7,-43,-9,-53,-73,-63,-53,-34
-19,-53,-34,36,7,-43,-9,-58,-78,-63,-53,-29
-24,-58,-34,41,4,-46,-9,-58,-78,-58,-53,-34
-24,-58,-34,41,4,-46,0,-53,-78,-58,-53,-34
-34,-63,-29,48,-2,-46,0,-53,-78,-58,-48,-29
-39,-63,-24,51,-7,-43,4,-48,-78,-58,-48,-29
-43,-58,-14,51,-14,-36,4,-53,-82,-58,-53,-29
-39,-53,-14,46,-12,-34,0,-53,-82,-63,-53,-24
-34,-53,-19,43,-7,-36,-9,-53,-82,-63,-53,-24
-34,-53,-19,43,-7,-36,-9,-53,-82,-63,-53,-29
-34,-53,-19,43,-7,-36,-9,-53,-78,-63,-53,-34
-34,-58,-24,46,-4,-41,-9,-48,-73,-63,-53,-34
-39,-58,-19,48,-9,-39,0,-48,-73,-63,-58,-34
-39,-63,-24,51,-7,-43,0,-48,-73,-63,-58,-34
-34,-63,-29,48,-2,-46,0,-48,-73,-68,-58,-34
-34,-63,-29,48,-2,-46,0,-48,-73,-68,-53,-34
-34,-63,-29,48,-2,-46,0,-48,-73,-68,-53,-29
-34,-58,-24,46,-4,-41,0,-48,-78,-73,-53,-29
-34,-58,-24,46,-4,-41,0,-48,-82,-73,-53,-29
-24,-63,-39,43,7,-51,-9,-53,-82,-73,-58,-34
-14,-58,-43,36,14,-51,-14,-53,-82,-82,-63,-48
-9,-63,-53,36,21,-58,-14,-58,-87,-82,-73,-48
-9,-68,-58,39,24,-63,-14,-53,-82,-82,-73,-48
-9,-73,-63,41,26,-68,-14,-53,-78,-82,-73,-53
0,-73,-73,36,36,-73,-14,-53,-82,-92,-78,-53
9,-73,-82,31,46,-78,-14,-53,-78,-87,-78,-53
14,-73,-87,29,51,-80,-19,-53,-82,-87,-78,-53
14,-68,-82,26,48,-75,-14,-53,-78,-92,-82,-58
14,-73,-87,29,51,-80,-19,-53,-82,-92,-82,-58
14,-68,-82,26,48,-75,-14,-53,-82,-92,-82,-53
14,-73,-87,29,51,-80,-19,-53,-82,-92,-82,-58
9,-73,-82,31,46,-78,-19,-53,-87,-97,-87,-58
9,-73,-82,31,46,-78,-19,-53,-87,-97,-92,-58
9,-68,-78,29,43,-73,-19,-53,-87,-97,-82,-53
9,-73,-82,31,46,-78,-19,-53,-87,-97,-87,-53
9,-68,-78,29,43,-73,-14,-48,-82,-97,-87,-58
0,-73,-73,36,36,-73,-14,-53,-82,-97,-87,-63
-9,-78,-68,43,29,-73,-14,-53,-87,-102,-92,-58
-19,-82,-63,51,21,-73,-14,-53,-87,-102,-92,-63
-24,-97,-73,61,24,-85,-14,-58,-92,-107,-97,-63
-14,-97,-82,56,34,-90,-14,-58,-87,-107,-97,-63
-9,-92,-82,51,36,-87,-9,-53,-87,-107,-92,-63
-9,-97,-87,53,39,-92,-9,-53,-87,-107,-92,-63
-19,-97,-78,58,29,-87,-9,-48,-82,-107,-87,-63
-19,-97,-78,58,29,-87,-9,-58,-82,-107,-87,-63
-34,-107,-73,70,19,-90,0,-58,-87,-107,-92,-68
-39,-107,-68,73,14,-87,0,-58,-92,-112,-102,-68
-34,-107,-73,70,19,-90,-9,-63,-97,-112,-102,-73
-34,-112,-78,73,21,-95,-9,-63,-97,-117,-107,-73
-39,-112,-73,75,17,-92,-9,-58,-102,-117,-107,-73
-43,-112,-68,78,12,-90,-9,-63,-102,-122,-107,-68
-43,-112,-68,78,12,-90,-9,-63,-102,-122,-107,-73
-43,-112,-68,78,12,-90,0,-68,-102,-122,-107,-73
-48,-117,-68,82,9,-92,0,-73,-107,-126,-112,-78
-48,-122,-73,85,12,-97,0,-73,-107,-131,-117,-82
-48,-122,-73,85,12,-97,4,-73,-107,-131,-117,-82
-48,-122,-73,85,12,-97,0,-73,-112,-131,-117,-87
-48,-122,-73,85,12,-97,0,-73,-112,-131,-122,-87
-48,-122,-73,85,12,-97,4,-68,-107,-126,-122,-82
-43,-131,-87,87,21,-109,9,-63,-102,-131,-122,-87
-43,-131,-87,87,21,-109,4,-68,-102,-136,-126,-92
-39,-136,-97,87,29,-117,14,-58,-97,-136,-126,-97
-39,-141,-102,90,31,-122,19,-58,-97,-136,-131,-102
-39,-146,-107,92,34,-126,19,-53,-87,-136,-131,-107
-48,-151,-102,100,26,-126,24,-53,-87,-131,-126,-102
-58,-161,-102,109,21,-131,29,-43,-82,-136,-122,-102
-68,-165,-97,117,14,-131,39,-39,-78,-131,-126,-107
-73,-175,-102,124,14,-139,43,-34,-73,-131,-122,-107
-82,-175,-92,129,4,-134,48,-29,-73,-126,-122,-102
-82,-180,-97,131,7,-139,48,-29,-68,-131,-126,-107
-78,-185,-107,131,14,-146,48,-29,-63,-136,-126,-112
-73,-190,-117,131,21,-153,48,-24,-63,-141,-131,-112
-73,-195,-122,134,24,-158,48,-24,-68,-146,-136,-117
-78,-209,-131,143,26,-170,53,-19,-63,-146,-141,-122
-78,-209,-131,143,26,-170,58,-19,-63,-146,-141,-126
-73,-209,-136,141,31,-173,58,-14,-58,-146,-146,-131
-68,-209,-141,139,36,-175,58,-14,-53,-151,-151,-131
-53,-200,-146,126,46,-173,48,-14,-53,-156,-156,-131
-39,-209,-170,124,65,-190,39,-19,-53,-161,-156,-141
-24,-209,-185,117,80,-197,39,-14,-58,-165,-161,-141
-14,-214,-200,114,92,-207,34,-9,-48,-170,-170,-146
4,-214,-219,104,112,-217,29,0,-48,-175,-170,-151
9,-214,-224,102,117,-219,29,0,-48,-185,-175,-151
19,-214,-234,97,126,-224,29,0,-43,-190,-175,-156
29,-209,-239,90,134,-224,19,4,-39,-190,-180,-156
29,-214,-244,92,136,-229,19,4,-34,-190,-180,-165
39,-219,-258,90,148,-239,19,4,-29,-195,-190,-170
48,-219,-268,85,158,-244,19,14,-24,-200,-190,-170
48,-219,-268,85,158,-244,19,19,-24,-200,-185,-175
43,-219,-263,87,153,-241,19,24,-19,-190,-185,-165
39,-224,-263,92,151,-244,19,29,0,-190,-180,-161
43,-214,-258,85,151,-236,19,29,4,-185,-180,-156
43,-209,-253,82,148,-231,19,34,9,-185,-175,-156
39,-200,-239,80,139,-219,14,39,14,-180,-170,-156
48,-190,-239,70,143,-214,9,39,19,-185,-175,-151
63,-180,-244,58,153,-212,9,39,24,-180,-170,-151
63,-175,-239,56,151,-207,0,43,29,-175,-165,-146
58,-170,-229,56,143,-200,0,48,39,-165,-161,-141
58,-165,-224,53,141,-195,0,53,43,-165,-146,-131
53,-156,-209,51,131,-183,0,63,53,-151,-141,-126
48,-146,-195,48,122,-170,0,58,63,-146,-136,-117
43,-131,-175,43,109,-153,-9,58,68,-136,-122,-107
48,-117,-165,34,107,-141,-14,63,73,-131,-112,-97
58,-107,-165,24,112,-136,-14,58,78,-126,-112,-92
58,-92,-151,17,104,-122,-19,63,82,-117,-102,-87
63,-78,-141,7,102,-109,-19,63,82,-102,-92,-78
73,-58,-131,-7,102,-95,-24,68,92,-92,-82,-63
73,-48,-122,-12,97,-85,-29,68,92,-87,-73,-58
82,-34,-117,-24,100,-75,-39,63,92,-82,-73,-48
92,-14,-107,-39,100,-61,-39,58,87,-78,-63,-43
102,0,-102,-51,102,-51,-39,58,87,-73,-58,-43
112,4,-107,-58,109,-51,-43,53,82,-68,-58,-48
122,9,-112,-65,117,-51,-48,48,78,-68,-58,-48
131,9,-122,-70,126,-56,-48,48,73,-63,-58,-48
131,9,-122,-70,126,-56,-53,39,68,-53,-53,-43
122,9,-112,-65,117,-51,-53,39,63,-48,-43,-34
112,14,-97,-63,104,-41,-53,34,58,-39,-34,-29
102,14,-87,-58,95,-36,-48,29,58,-29,-29,-29
87,19,-68,-53,78,-24,-43,29,53,-24,-14,-19
73,24,-48,-48,61,-12,-39,29,48,-14,-9,-9
53,19,-34,-36,43,-7,-34,19,48,0,-9,-9
39,19,-19,-29,29,0,-29,14,39,0,4,0
34,14,-19,-24,26,-2,-29,14,34,0,4,4
24,19,-4,-21,14,7,-29,9,29,9,9,14
14,24,9,-19,2,17,-29,9,19,9,14,14
9,24,14,-17,-2,19,-29,0,9,9,14,19
0,24,24,-12,-12,24,-34,-14,0,14,19,19
4,24,19,-14,-7,21,-34,-24,-14,9,19,19
0,24,24,-12,-12,24,-29,-24,-19,9,14,19
-9,19,29,-4,-19,24,-24,-34,-24,4,14,19
-14,19,34,-2,-24,26,-34,-39,-39,4,9,24
-19,19,39,0,-29,29,-29,-43,-34,4,14,24
-24,24,48,0,-36,36,-29,-43,-39,4,14,24
-24,24,48,0,-36,36,-29,-48,-43,4,14,24
-19,29,48,-4,-34,39,-29,-53,-43,4,14,24
-14,29,43,-7,-29,36,-29,-53,-48,4,9,24
-14,29,43,-7,-29,36,-29,-53,-53,0,9,24
-14,34,48,-9,-31,41,-24,-53,-53,4,9,24
-19,34,53,-7,-36,43,-24,-53,-48,4,14,24
-19,34,53,-7,-36,43,-19,-53,-48,9,14,24
-19,34,53,-7,-36,43,-19,-53,-48,4,14,24
-14,34,48,-9,-31,41,-19,-53,-53,4,9,24
-9,34,43,-12,-26,39,-24,-58,-58,0,0,19
4,34,29,-19,-12,31,-24,-58,-58,0,0,19
9,34,24,-21,-7,29,-24,-58,-58,-9,0,19
9,34,24,-21,-7,29,-24,-58,-63,-9,0,14
9,29,19,-19,-4,24,-24,-58,-58,-9,0,14
9,29,19,-19,-4,24,-24,-53,-58,0,0,14
4,29,24,-17,-9,26,-19,-53,-58,0,0,14
4,24,19,-14,-7,21,-19,-53,-58,0,0,14
4,24,19,-14,-7,21,-19,-53,-53,-9,0,14
4,19,14,-12,-4,17,-19,-48,-53,0,0,19
-9,19,29,-4,-19,24,-14,-43,-48,0,4,14
-19,19,39,0,-29,29,-9,-43,-48,4,4,19
-24,14,39,4,-31,26,-9,-39,-43,9,9,24
-29,14,43,7,-36,29,0,-34,-39,14,14,24
-29,14,43,7,-36,29,0,-29,-34,14,14,24
-29,14,43,7,-36,29,0,-29,-34,14,14,24
-29,19,48,4,-39,34,0,-29,-34,14,14,24
-29,19,48,4,-39,34,0,-29,-34,14,14,24
-29,19,48,4,-39,34,0,-29,-34,14,14,24
-24,24,48,0,-36,36,-9,-29,-34,14,14,24
-24,29,53,-2,-39,41,-9,-29,-34,14,14,24
-19,29,48,-4,-34,39,-9,-29,-34,9,14,24
-14,34,48,-9,-31,41,-14,-34,-34,9,14,24
0,34,34,-17,-17,34,-14,-34,-34,4,9,24
0,34,34,-17,-17,34,-19,-34,-39,4,9,19
0,39,39,-19,-19,39,-19,-39,-39,4,4,19
-9,39,48,-14,-29,43,-19,-39,-39,0,4,19
-14,39,53,-12,-34,46,-19,-39,-39,0,4,19
-19,39,58,-9,-39,48,-19,-34,-39,0,9,19
-19,39,58,-9,-39,48,-19,-34,-39,0,9,19
-19,39,58,-9,-39,48,-19,-34,-39,0,4,19
-14,39,53,-12,-34,46,-19,-34,-39,0,4,19
-9,34,43,-12,-26,39,-19,-34,-39,0,4,19
0,34,34,-17,-17,34,-24,-34,-39,0,4,14
0,34,34,-17,-17,34,-24,-34,-39,-9,4,14
4,29,24,-17,-9,26,-24,-34,-39,-9,4,14
4,24,19,-14,-7,21,-19,-34,-39,-9,4,9
4,24,19,-14,-7,21,-19,-34,-39,-9,4,9
4,19,14,-12,-4,17,-19,-34,-39,-9,4,9
0,14,14,-7,-7,14,-19,-34,-34,-9,4,9
-9,9,19,0,-14,14,-19,-29,-39,-9,4,14
-14,9,24,2,-19,17,-14,-29,-39,-9,4,14
-19,9,29,4,-24,19,-14,-29,-39,0,9,14
-24,4,29,9,-26,17,-9,-24,-34,0,9,14
-34,4,39,14,-36,21,-9,-24,-34,0,14,19
-39,4,43,17,-41,24,-9,-24,-34,0,14,19
-43,0,43,21,-43,21,-9,-24,-34,0,14,19
-39,0,39,19,-39,19,-9,-24,-34,0,9,19
-34,0,34,17,-34,17,-14,-24,-34,0,9,14
-29,0,29,14,-29,14,-14,-24,-34,-9,9,14
-24,0,24,12,-24,12,-19,-29,-39,-9,4,14
-14,4,19,4,-17,12,-19,-29,-39,-9,4,9
-9,4,14,2,-12,9,-24,-34,-43,-14,0,4
0,4,4,-2,-2,4,-29,-34,-43,-14,-9,4
9,4,-4,-7,7,0,-29,-34,-48,-19,-9,0
14,0,-14,-7,14,-7,-29,-39,-48,-19,-14,-9
14,-9,-24,-2,19,-17,-29,-39,-53,-24,-19,-9
14,-9,-24,-2,19,-17,-29,-43,-53,-24,-29,-14
14,-14,-29,0,21,-21,-29,-39,-53,-29,-29,-19
14,-14,-29,0,21,-21,-24,-39,-58,-29,-29,-19
14,-19,-34,2,24,-26,-24,-43,-58,-29,-29,-24
9,-19,-29,4,19,-24,-24,-43,-58,-29,-29,-24
9,-19,-29,4,19,-24,-24,-43,-58,-29,-29,-24
4,-14,-19,4,12,-17,-19,-43,-58,-29,-29,-19
4,-14,-19,4,12,-17,-19,-43,-58,-29,-24,-19
-9,-19,-9,14,0,-14,-14,-48,-58,-24,-24,-14
-14,-19,-4,17,-4,-12,-14,-48,-58,-24,-19,-9
-19,-19,0,19,-9,-9,-14,-48,-58,-19,-19,-9
-19,-14,4,17,-12,-4,-9,-48,-58,-19,-14,0
-19,-9,9,14,-14,0,-9,-48,-58,-19,-14,0
-19,0,19,9,-19,9,-9,-48,-63,-14,-9,4
-24,4,29,9,-26,17,-9,-48,-58,-14,0,9
-29,0,29,14,-29,14,0,-48,-58,-9,0,9
-34,0,34,17,-34,17,0,-48,-58,-9,4,9
-29,0,29,14,-29,14,0,-43,-58,0,4,14
-34,0,34,17,-34,17,0,-43,-53,0,9,14
-39,4,43,17,-41,24,0,-43,-53,4,9,19
-43,4,48,19,-46,26,4,-43,-53,4,14,19
-43,4,48,19,-46,26,4,-43,-53,9,14,24
-43,4,48,19,-46,26,4,-43,-53,9,19,24
-48,9,58,19,-53,34,4,-43,-53,9,19,24
-48,9,58,19,-53,34,4,-43,-48,14,19,29
-48,9,58,19,-53,34,4,-43,-48,14,19,29
-43,14,58,14,-51,36,0,-43,-48,14,19,29
-39,19,58,9,-48,39,0,-43,-48,14,19,29
-34,24,58,4,-46,41,-9,-48,-48,14,14,29
-29,29,58,0,-43,43,-9,-48,-48,9,14,29
-19,29,48,-4,-34,39,-9,-48,-48,9,14,29
-14,29,43,-7,-29,36,-9,-39,-48,9,14,29
-14,34,48,-9,-31,41,-9,-39,-43,9,14,24
-14,34,48,-9,-31,41,-9,-39,-43,4,14,24
-9,34,43,-12,-26,39,-9,-34,-43,4,14,24
-9,34,43,-12,-26,39,-9,-34,-43,4,14,24
-9,34,43,-12,-26,39,-14,-34,-43,4,14,24
0,29,29,-14,-14,29,-14,-34,-43,4,14,24
0,29,29,-14,-14,29,-14,-34,-43,4,14,24
0,29,29,-14,-14,29,-14,-34,-43,4,14,24
4,29,24,-17,-9,26,-19,-34,-43,4,14,24
9,29,19,-19,-4,24,-19,-34,-43,4,14,24
9,29,19,-19,-4,24,-24,-39,-43,4,14,24
19,34,14,-26,2,24,-29,-39,-43,4,9,24
24,34,9,-29,7,21,-29,-39,-43,0,9,19
24,34,9,-29,7,21,-34,-39,-48,0,9,19
24,39,14,-31,4,26,-34,-39,-43,4,9,19
19,39,19,-29,0,29,-34,-39,-43,4,9,19
14,39,24,-26,-4,31,-39,-39,-43,4,14,24
14,39,24,-26,-4,31,-39,-39,-43,9,14,24
9,43,34,-26,-12,39,-39,-39,-39,9,14,24
9,43,34,-26,-12,39,-43,-39,-43,9,14,24
14,48,34,-31,-9,41,-48,-39,-43,9,14,24
14,48,34,-31,-9,41,-48,-39,-43,9,14,24
9,43,34,-26,-12,39,-48,-39,-43,9,19,29
4,43,39,-24,-17,41,-48,-39,-43,9,19,24
0,43,43,-21,-21,43,-48,-39,-39,9,19,24
0,39,39,-19,-19,39,-48,-39,-39,9,19,24
4,39,34,-21,-14,36,-48,-39,-43,9,19,24
9,39,29,-24,-9,34,-48,-43,-43,4,14,19
9,34,24,-21,-7,29,-53,-43,-43,0,14,14
14,34,19,-24,-2,26,-53,-43,-43,0,9,14
14,34,19,-24,-2,26,-48,-43,-48,0,9,14
9,29,19,-19,-4,24,-48,-39,-48,-9,9,9
0,24,24,-12,-12,24,-43,-39,-48,-9,9,9
-9,24,34,-7,-21,29,-43,-39,-48,-9,9,9
0,24,24,-12,-12,24,-43,-43,-48,-9,4,9
4,19,14,-12,-4,17,-48,-43,-53,-14,0,4
4,19,14,-12,-4,17,-48,-48,-53,-14,0,4
4,19,14,-12,-4,17,-48,-53,-58,-19,0,0
4,9,4,-7,0,7,-48,-53,-58,-19,-9,0
4,9,4,-7,0,7,-53,-53,-63,-19,-9,0
9,9,0,-9,4,4,-53,-58,-63,-24,-9,0
9,4,-4,-7,7,0,-53,-63,-68,-24,-9,0
4,4,0,-4,2,2,-53,-63,-68,-24,-9,0
0,4,4,-2,-2,4,-53,-63,-73,-24,-9,4
-9,0,9,4,-9,4,-53,-68,-73,-24,-9,4
-14,0,14,7,-14,7,-53,-68,-73,-24,-9,4
-24,0,24,12,-24,12,-48,-68,-78,-24,-9,4
-34,-9,24,21,-29,7,-48,-68,-78,-24,-9,9
-39,-9,29,24,-34,9,-43,-68,-73,-29,-9,9
-39,-9,29,24,-34,9,-43,-68,-73,-29,-9,9
-34,-9,24,21,-29,7,-43,-68,-73,-29,-9,9
-34,-9,24,21,-29,7,-39,-68,-73,-29,-9,9
-34,-9,24,21,-29,7,-39,-68,-78,-29,-9,4
-34,0,34,17,-34,17,-39,-68,-78,-29,-14,4
-29,0,29,14,-29,14,-39,-68,-82,-29,-14,4
-19,0,19,9,-19,9,-43,-68,-82,-29,-14,0
-14,0,14,7,-14,7,-43,-68,-82,-34,-19,0
0,0,0,0,0,0,-43,-68,-82,-34,-19,-9
4,0,-4,-2,4,-2,-43,-68,-78,-34,-19,-9
9,4,-4,-7,7,0,-48,-68,-78,-34,-19,-9
14,4,-9,-9,12,-2,-48,-68,-78,-34,-19,-9
14,4,-9,-9,12,-2,-43,-63,-78,-29,-19,-9
9,4,-4,-7,7,0,-43,-63,-78,-29,-14,-9
4,4,0,-4,2,2,-39,-63,-73,-24,-9,0
-9,4,14,2,-12,9,-39,-63,-73,-24,-9,4
-19,4,24,7,-21,14,-34,-58,-73,-19,0,4
-24,4,29,9,-26,17,-29,-58,-68,-19,0,9
-34,4,39,14,-36,21,-24,-58,-68,-14,4,14
-39,4,43,17,-41,24,-24,-58,-63,-14,4,14
-43,4,48,19,-46,26,-19,-53,-63,-9,4,19
-43,4,48,19,-46,26,-19,-53,-63,-9,9,19
-48,4,53,21,-51,29,-14,-53,-63,0,9,19
-48,9,58,19,-53,34,-14,-48,-63,0,9,24
-48,9,58,19,-53,34,-14,-48,-58,0,9,24
-43,9,53,17,-48,31,-14,-48,-58,4,9,24
-39,14,53,12,-46,34,-19,-48,-58,4,9,19
-29,14,43,7,-36,29,-19,-48,-58,0,4,19
-19,14,34,2,-26,24,-19,-48,-58,0,4,19
-9,19,29,-4,-19,24,-19,-48,-58,0,9,19
-9,19,29,-4,-19,24,-19,-48,-58,0,9,19
0,19,19,-9,-9,19,-19,-48,-53,0,9,19
0,24,24,-12,-12,24,-19,-48,-53,0,9,19
4,29,24,-17,-9,26,-19,-48,-53,4,9,19
4,29,24,-17,-9,26,-19,-48,-58,4,9,19
4,34,29,-19,-12,31,-19,-53,-58,4,9,24
4,34,29,-19,-12,31,-19,-53,-58,4,9,24
0,39,39,-19,-19,39,-19,-53,-58,4,9,24
0,39,39,-19,-19,39,-14,-48,-53,4,14,29
-14,43,58,-14,-36,51,-14,-48,-53,9,14,29
-19,43,63,-12,-41,53,-9,-43,-48,9,19,34
-24,43,68,-9,-46,56,-9,-43,-48,9,19,34
-24,43,68,-9,-46,56,-9,-43,-48,9,19,34
-24,39,63,-7,-43,51,-9,-43,-48,14,19,39
-29,39,68,-4,-48,53,-9,-39,-48,14,19,39
-24,39,63,-7,-43,51,-9,-39,-43,14,24,39
-24,39,63,-7,-43,51,-9,-39,-43,14,24,39
-19,39,58,-9,-39,48,-9,-39,-43,19,24,43
-19,39,58,-9,-39,48,-9,-34,-43,19,24,43
-19,39,58,-9,-39,48,-9,-34,-43,19,29,43
-24,34,58,-4,-41,46,-9,-34,-39,19,29,43
-29,34,63,-2,-46,48,-9,-29,-39,19,29,43
-29,34,63,-2,-46,48,-9,-29,-39,19,29,39
-24,39,63,-7,-43,51,-9,-29,-39,19,29,39
-19,39,58,-9,-39,48,-14,-34,-39,19,24,34
0,39,39,-19,-19,39,-14,-34,-43,14,24,29
4,43,39,-24,-17,41,-14,-34,-43,14,19,24
0,43,43,-21,-21,43,-24,-34,-43,14,19,24
-9,39,48,-14,-29,43,-19,-34,-43,14,19,24
-9,39,48,-14,-29,43,-24,-34,-43,14,19,24
-9,39,48,-14,-29,43,-24,-34,-43,14,19,24
0,43,43,-21,-21,43,-24,-34,-43,14,19,24
0,43,43,-21,-21,43,-24,-34,-43,14,19,24
4,39,34,-21,-14,36,-29,-39,-43,9,19,29
0,39,39,-19,-19,39,-29,-39,-43,9,19,29
-14,34,48,-9,-31,41,-29,-43,-48,9,24,34
-19,34,53,-7,-36,43,-24,-43,-48,14,29,39
-24,34,58,-4,-41,46,-24,-43,-48,14,29,39
-29,29,58,0,-43,43,-24,-43,-48,14,29,39
-24,29,53,-2,-39,41,-29,-48,-53,9,24,39
-19,34,53,-7,-36,43,-34,-53,-58,4,19,34
-9,34,43,-12,-26,39,-39,-58,-63,0,14,34
-9,34,43,-12,-26,39,-43,-63,-68,-9,9,29
0,34,34,-17,-17,34,-43,-63,-68,-9,9,29
4,34,29,-19,-12,31,-48,-63,-73,-14,4,19
14,34,19,-24,-2,26,-53,-68,-73,-14,4,19
14,34,19,-24,-2,26,-58,-68,-78,-19,0,14
9,29,19,-19,-4,24,-53,-68,-78,-19,-9,14
0,34,34,-17,-17,34,-53,-73,-78,-19,-9,9
-9,29,39,-9,-24,34,-53,-78,-82,-19,-9,9
-14,24,39,-4,-26,31,-48,-68,-78,-19,-9,9
-19,19,39,0,-29,29,-43,-68,-78,-14,-9,9
-9,14,24,-2,-17,19,-39,-63,-73,-19,-9,4
0,0,0,0,0,0,-29,-58,-63,-19,-14,4
0,-19,-19,9,9,-19,-24,-43,-53,-19,-14,-9
-14,-39,-24,26,4,-31,-9,-29,-34,-9,0,-14
-19,-39,-19,29,0,-29,0,-14,-19,9,9,-14
-9,-39,-29,24,9,-34,4,0,0,19,24,0
0,-39,-39,19,19,-39,9,9,14,34,39,9
9,-34,-43,12,26,-39,9,34,43,43,48,14
39,-34,-73,-2,56,-53,14,58,82,63,63,24
63,-14,-78,-24,70,-46,14,87,122,92,92,48
82,39,-43,-61,63,-2,-9,87,151,126,136,82
102,136,34,-119,34,85,-48,68,146,175,204,151
126,278,151,-202,-12,214,-107,39,146,244,292,248
146,444,297,-295,-75,370,-170,-14,126,307,380,351
165,619,453,-392,-143,536,-248,-73,87,356,458,468
195,814,619,-505,-212,717,-331,-141,53,395,536,575
234,1010,775,-622,-270,893,-419,-200,19,439,600,683
273,1180,907,-727,-317,1044,-492,-248,4,458,653,766
302,1307,1005,-805,-351,1156,-541,-278,0,468,678,819
322,1385,1063,-854,-370,1224,-570,-287,9,492,692,844
331,1439,1107,-885,-387,1273,-580,-287,29,517,707,854
336,1439,1102,-888,-383,1271,-580,-268,48,536,702,834
331,1395,1063,-863,-366,1229,-546,-244,78,541,673,771
326,1322,995,-824,-334,1159,-512,-214,102,527,629,697
302,1224,922,-763,-309,1073,-458,-180,117,512,575,610
253,1102,849,-678,-297,976,-390,-146,131,488,507,507
180,980,800,-580,-309,890,-312,-112,131,463,434,414
102,854,751,-478,-324,802,-234,-82,131,419,351,326
39,712,673,-375,-317,692,-156,-48,136,351,248,219
0,531,531,-265,-265,531,-78,9,146,268,131,102
-43,341,385,-148,-214,363,9,63,151,190,39,-9
-73,185,258,-56,-165,222,87,117,175,146,-29,-78
-82,87,170,-2,-126,129,146,170,214,131,-58,-112
-78,-9,68,43,-73,29,190,224,253,112,-73,-136
-78,-107,-29,92,-24,-68,239,273,287,92,-97,-175
-82,-229,-146,156,31,-187,302,326,326,82,-122,-229
-82,-336,-253,209,85,-295,356,390,385,87,-126,-263
-73,-419,-346,246,136,-383,414,468,458,107,-122,-283
-63,-488,-424,275,180,-456,468,541,536,122,-117,-297
-43,-531,-488,287,222,-509,512,614,595,136,-112,-307
-34,-536,-502,285,234,-519,536,653,634,146,-102,-302
-39,-512,-473,275,217,-492,556,668,649,156,-87,-283
-53,-492,-439,273,192,-466,575,683,649,170,-73,-268
-53,-473,-419,263,183,-446,590,692,658,175,-68,-253
-58,-468,-409,263,175,-439,600,702,663,180,-63,-248
-53,-468,-414,261,180,-441,614,712,668,170,-68,-244
-39,-453,-414,246,187,-434,610,712,658,165,-63,-239
-24,-424,-400,224,187,-412,570,673,624,165,-53,-229
-29,-375,-346,202,158,-361,522,610,556,161,-39,-195
-39,-326,-287,183,124,-307,458,517,473,165,-29,-161
-48,-287,-239,168,95,-263,390,419,370,165,-9,-136
-58,-248,-190,153,65,-219,331,317,292,156,4,-112
-73,-214,-141,143,34,-178,268,224,214,156,14,-87
-92,-180,-87,136,-2,-134,219,146,141,151,24,-68
-102,-161,-58,131,-21,-109,180,82,78,131,19,-53
-112,-146,-34,129,-39,-90,151,29,24,107,19,-39
-122,-122,0,122,-61,-61,131,4,0,87,19,-29
-112,-97,14,104,-63,-41,107,-9,-24,73,14,-24
-97,-87,9,92,-53,-39,92,-9,-34,48,0,-24
-82,-82,0,82,-41,-41,68,-14,-39,29,-14,-29
-63,-78,-14,70,-24,-46,53,-19,-43,4,-24,-34
-43,-73,-29,58,-7,-51,39,-19,-48,-19,-39,-39
-34,-78,-43,56,4,-61,29,-19,-43,-29,-48,-43
-24,-78,-53,51,14,-65,14,-14,-39,-39,-43,-43
-24,-73,-48,48,12,-61,9,-9,-34,-43,-48,-43
-24,-63,-39,43,7,-51,4,-14,-39,-43,-43,-39
-29,-53,-24,41,-2,-39,0,-14,-39,-43,-39,-34
-34,-53,-19,43,-7,-36,0,-14,-34,-43,-39,-34
-48,-53,-4,51,-21,-29,0,-14,-39,-39,-39,-29
-48,-58,-9,53,-19,-34,-9,-19,-43,-39,-34,-29
-48,-53,-4,51,-21,-29,0,-19,-48,-39,-34,-24
-43,-53,-9,48,-17,-31,-9,-24,-48,-34,-34,-24
-34,-53,-19,43,-7,-36,-9,-24,-48,-39,-34,-24
-24,-53,-29,39,2,-41,-9,-29,-48,-39,-39,-29
-24,-48,-24,36,0,-36,-14,-29,-48,-43,-39,-29
-24,-43,-19,34,-2,-31,-14,-29,-48,-43,-39,-29
-24,-48,-24,36,0,-36,-9,-24,-48,-43,-34,-29
-19,-53,-34,36,7,-43,-9,-24,-48,-48,-39,-29
-19,-53,-34,36,7,-43,-9,-24,-48,-48,-39,-29
-14,-53,-39,34,12,-46,0,-24,-48,-53,-43,-34
-9,-53,-43,31,17,-48,0,-29,-58,-58,-48,-34
-14,-53,-39,34,12,-46,-9,-29,-58,-63,-48,-34
-19,-58,-39,39,9,-48,0,-29,-58,-68,-53,-39
-29,-63,-34,46,2,-48,0,-24,-53,-73,-53,-43
-29,-68,-39,48,4,-53,0,-29,-58,-73,-53,-48
-29,-73,-43,51,7,-58,0,-29,-53,-73,-58,-53
-24,-78,-53,51,14,-65,4,-29,-53,-73,-63,-53
-14,-78,-63,46,24,-70,0,-34,-58,-73,-63,-53
-9,-78,-68,43,29,-73,0,-34,-68,-73,-63,-53
-9,-78,-68,43,29,-73,-9,-39,-63,-73,-63,-48
-9,-78,-68,43,29,-73,-14,-39,-68,-73,-63,-43
-9,-68,-58,39,24,-63,-14,-43,-73,-78,-58,-43
-9,-68,-58,39,24,-63,-14,-43,-73,-73,-63,-39
-9,-73,-63,41,26,-68,-19,-43,-73,-73,-68,-43
0,-73,-73,36,36,-73,-19,-43,-73,-73,-63,-48
-9,-73,-63,41,26,-68,-19,-48,-73,-68,-63,-48
-19,-78,-58,48,19,-68,-14,-48,-78,-73,-63,-48
-29,-87,-58,58,14,-73,-9,-48,-78,-63,-58,-43
-39,-87,-48,63,4,-68,-14,-48,-73,-68,-58,-43
-43,-87,-43,65,0,-65,-9,-48,-73,-68,-58,-43
-43,-87,-43,65,0,-65,-9,-48,-73,-73,-58,-43
-48,-92,-43,70,-2,-68,0,-48,-73,-68,-58,-48
-48,-92,-43,70,-2,-68,4,-48,-73,-68,-63,-53
-43,-92,-48,68,2,-70,4,-48,-73,-68,-63,-53
-43,-97,-53,70,4,-75,0,-48,-73,-73,-63,-58
-39,-97,-58,68,9,-78,4,-53,-78,-78,-68,-58
-39,-97,-58,68,9,-78,0,-53,-78,-78,-68,-58
-39,-87,-48,63,4,-68,4,-48,-73,-82,-68,-58
-39,-92,-53,65,7,-73,4,-48,-78,-82,-68,-58
-43,-97,-53,70,4,-75,4,-43,-73,-82,-68,-58
-43,-102,-58,73,7,-80,9,-43,-73,-82,-73,-68
-39,-107,-68,73,14,-87,9,-43,-73,-87,-78,-68
-39,-112,-73,75,17,-92,9,-43,-73,-87,-78,-73
-34,-122,-87,78,26,-104,4,-43,-78,-97,-87,-82
-29,-122,-92,75,31,-107,4,-43,-82,-97,-87,-82
-24,-117,-92,70,34,-104,4,-39,-78,-102,-82,-78
-19,-117,-97,68,39,-107,4,-39,-78,-102,-82,-78
-24,-112,-87,68,31,-100,9,-34,-73,-97,-82,-78
-29,-112,-82,70,26,-97,19,-34,-73,-102,-82,-78
-29,-122,-92,75,31,-107,14,-34,-73,-102,-87,-82
-24,-126,-102,75,39,-114,14,-34,-73,-102,-87,-82
-19,-126,-107,73,43,-117,14,-39,-68,-107,-92,-87
-19,-126,-107,73,43,-117,9,-29,-68,-112,-92,-82
-24,-131,-107,78,41,-119,14,-29,-63,-107,-92,-82
-29,-131,-102,80,36,-117,19,-24,-68,-107,-92,-78
-34,-131,-97,82,31,-114,19,-29,-63,-107,-92,-78
-39,-131,-92,85,26,-112,24,-24,-58,-102,-92,-78
-34,-131,-97,82,31,-114,29,-29,-63,-107,-92,-82
-29,-136,-107,82,39,-122,24,-29,-63,-107,-97,-87
-29,-146,-117,87,43,-131,24,-24,-63,-117,-102,-92
-24,-146,-122,85,48,-134,29,-24,-63,-122,-107,-92
-34,-146,-112,90,39,-129,29,-24,-63,-117,-107,-92
-43,-146,-102,95,29,-124,29,-24,-63,-117,-102,-82
-43,-146,-102,95,29,-124,29,-14,-53,-107,-97,-82
-43,-151,-107,97,31,-129,29,-14,-53,-107,-97,-87
-34,-156,-122,95,43,-139,29,-14,-53,-112,-102,-92
-34,-165,-131,100,48,-148,34,-9,-53,-117,-107,-97
-29,-170,-141,100,56,-156,34,0,-48,-122,-117,-102
-19,-175,-156,97,68,-165,34,0,-48,-126,-117,-107
-29,-185,-156,107,63,-170,39,0,-48,-131,-122,-112
-34,-190,-156,112,61,-173,39,0,-43,-131,-122,-117
-34,-190,-156,112,61,-173,39,4,-39,-131,-122,-112
-29,-190,-161,109,65,-175,43,9,-39,-131,-122,-112
-19,-190,-170,104,75,-180,39,9,-34,-131,-126,-122
-9,-185,-175,97,82,-180,34,14,-34,-141,-131,-126
9,-195,-204,92,107,-200,34,14,-34,-146,-136,-136
14,-200,-214,92,114,-207,39,14,-39,-151,-141,-141
19,-209,-229,95,124,-219,39,19,-34,-151,-146,-141
19,-200,-219,90,119,-209,39,19,-29,-146,-146,-141
14,-200,-214,92,114,-207,39,29,-24,-151,-151,-146
14,-195,-209,90,112,-202,43,29,-14,-141,-146,-141
14,-195,-209,90,112,-202,43,34,-14,-151,-146,-141
19,-195,-214,87,117,-204,43,39,-9,-151,-141,-146
14,-209,-224,97,119,-217,43,39,0,-151,-146,-141
9,-214,-224,102,117,-219,48,43,9,-151,-146,-141
4,-219,-224,107,114,-222,43,48,9,-151,-151,-146
4,-224,-229,109,117,-226,43,48,9,-156,-156,-151
4,-229,-234,112,119,-231,39,48,14,-161,-161,-161
14,-229,-244,107,129,-236,43,53,19,-161,-165,-161
9,-229,-239,109,124,-234,39,58,24,-165,-165,-170
9,-239,-248,114,129,-244,39,63,29,-161,-165,-170
9,-239,-248,114,129,-244,43,68,43,-161,-161,-170
9,-234,-244,112,126,-239,43,78,48,-156,-161,-165
0,-239,-239,119,119,-239,48,78,58,-156,-156,-161
9,-244,-253,117,131,-248,48,82,63,-151,-151,-161
24,-234,-258,104,141,-246,43,87,68,-151,-151,-161
39,-229,-268,95,153,-248,39,92,68,-151,-146,-156
43,-229,-273,92,158,-251,34,92,73,-146,-146,-156
53,-219,-273,82,163,-246,29,97,78,-151,-146,-156
58,-209,-268,75,163,-239,34,107,87,-146,-146,-151
53,-200,-253,73,153,-226,34,107,92,-141,-141,-146
43,-200,-244,78,143,-222,39,117,102,-141,-136,-141
43,-195,-239,75,141,-217,39,117,107,-136,-126,-136
48,-190,-239,70,143,-214,34,122,117,-126,-131,-131
58,-175,-234,58,146,-204,34,122,117,-126,-126,-131
68,-165,-234,48,151,-200,29,117,117,-126,-126,-122
78,-151,-229,36,153,-190,24,117,117,-122,-117,-117
78,-136,-214,29,146,-175,19,117,117,-117,-112,-112
78,-131,-209,26,143,-170,19,112,117,-107,-107,-107
78,-122,-200,21,139,-161,19,112,122,-102,-97,-97
82,-102,-185,9,134,-143,19,107,122,-92,-82,-87
82,-87,-170,2,126,-129,14,102,122,-82,-78,-73
82,-68,-151,-7,117,-109,9,92,122,-78,-68,-63
82,-48,-131,-17,107,-90,4,87,117,-68,-58,-53
87,-34,-122,-26,104,-78,0,87,112,-58,-48,-43
78,-29,-107,-24,92,-68,0,78,102,-48,-39,-34
73,-24,-97,-24,85,-61,0,73,97,-43,-34,-29
68,-19,-87,-24,78,-53,0,68,92,-39,-24,-24
63,-9,-73,-26,68,-41,-14,58,87,-34,-24,-19
53,-9,-63,-21,58,-36,-14,53,82,-24,-14,0
39,0,-39,-19,39,-19,-9,48,78,-14,0,4
29,14,-14,-21,21,0,-9,53,73,4,4,14
19,19,0,-19,9,9,0,43,68,9,14,19
14,24,9,-19,2,17,0,43,63,14,14,24
9,24,14,-17,-2,19,0,39,58,14,14,24
4,29,24,-17,-9,26,0,29,48,14,19,24
0,29,29,-14,-14,29,-9,24,43,19,19,24
-9,34,43,-12,-26,39,-9,19,39,19,24,29
-14,43,58,-14,-36,51,-9,19,34,24,24,29
-14,43,58,-14,-36,51,0,14,29,29,24,34
-19,43,63,-12,-41,53,-9,4,24,24,24,29
0,43,43,-21,-21,43,-9,0,14,24,24,29
4,43,39,-24,-17,41,-14,-9,9,19,24,24
9,39,29,-24,-9,34,-9,-14,4,9,14,24
9,39,29,-24,-9,34,-19,-24,-14,0,9,19
14,39,24,-26,-4,31,-19,-24,-14,0,9,19
14,39,24,-26,-4,31,-19,-29,-19,0,9,19
14,39,24,-26,-4,31,-24,-29,-24,0,9,19
19,39,19,-29,0,29,-24,-34,-24,-9,9,24
24,39,14,-31,4,26,-24,-34,-29,-9,4,24
29,39,9,-34,9,24,-29,-39,-29,-9,4,19
29,39,9,-34,9,24,-29,-39,-34,-9,4,19
24,39,14,-31,4,26,-29,-39,-34,-9,4,19
19,43,24,-31,-2,34,-29,-39,-39,-9,4,24
14,39,24,-26,-4,31,-29,-34,-39,-9,4,24
9,34,24,-21,-7,29,-29,-39,-39,-9,4,24
9,34,24,-21,-7,29,-29,-39,-43,-9,4,24
14,34,19,-24,-2,26,-29,-39,-43,-9,4,19
9,34,24,-21,-7,29,-24,-39,-43,-9,4,19
4,29,24,-17,-9,26,-24,-34,-43,-9,4,24
0,24,24,-12,-12,24,-19,-34,-39,-9,4,19
-9,19,29,-4,-19,24,-14,-34,-39,-14,4,19
-19,14,34,2,-26,24,-9,-34,-43,-9,0,19
-24,9,34,7,-29,21,-9,-34,-43,-14,0,14
-24,4,29,9,-26,17,-9,-34,-43,-14,0,14
-34,4,39,14,-36,21,0,-34,-43,-14,0,19
-39,4,43,17,-41,24,0,-34,-43,-14,0,19
-43,4,48,19,-46,26,0,-34,-43,-9,0,19
-48,0,48,24,-48,24,4,-34,-43,-9,4,19
-48,0,48,24,-48,24,4,-34,-43,-9,4,19
-48,4,53,21,-51,29,4,-34,-48,-9,4,19
-39,4,43,17,-41,24,0,-34,-48,-14,0,19
-34,4,39,14,-36,21,-9,-39,-48,-14,0,14
-24,9,34,7,-29,21,-14,-39,-53,-14,0,14
-24,14,39,4,-31,26,-14,-39,-53,-14,0,14
-24,14,39,4,-31,26,-14,-39,-48,-9,4,19
-29,14,43,7,-36,29,-14,-39,-48,-9,4,19
-29,19,48,4,-39,34,-19,-39,-48,0,9,24
-29,19,48,4,-39,34,-19,-39,-48,0,9,24
-24,19,43,2,-34,31,-19,-39,-53,-9,9,19
-14,19,34,-2,-24,26,-29,-43,-53,-9,4,19
0,19,19,-9,-9,19,-39,-43,-58,-14,0,14
9,19,9,-14,0,14,-43,-48,-58,-19,0,14
14,19,4,-17,4,12,-43,-48,-58,-19,0,14
14,19,4,-17,4,12,-43,-48,-58,-19,0,14
14,19,4,-17,4,12,-43,-48,-58,-19,0,14
14,24,9,-19,2,17,-43,-48,-58,-19,-9,9
24,19,-4,-21,14,7,-43,-48,-58,-19,-9,4
34,19,-14,-26,24,2,-43,-48,-63,-24,-14,4
39,19,-19,-29,29,0,-48,-48,-63,-29,-14,0
43,19,-24,-31,34,-2,-48,-48,-63,-29,-19,0
43,19,-24,-31,34,-2,-43,-43,-58,-29,-19,0
39,19,-19,-29,29,0,-39,-39,-53,-24,-14,0
29,19,-9,-24,19,4,-39,-34,-48,-19,-9,4
19,19,0,-19,9,9,-34,-34,-43,-19,0,4
14,24,9,-19,2,17,-34,-29,-43,-14,0,9
9,19,9,-14,0,14,-29,-29,-39,-14,0,9
4,19,14,-12,-4,17,-29,-24,-39,-14,0,9
0,24,24,-12,-12,24,-29,-24,-34,-9,0,14
0,24,24,-12,-12,24,-24,-24,-34,-9,4,14
-14,24,39,-4,-26,31,-29,-24,-34,0,4,19
-19,29,48,-4,-34,39,-24,-24,-29,4,9,19
-19,29,48,-4,-34,39,-24,-24,-29,4,9,19
-19,29,48,-4,-34,39,-24,-24,-29,9,9,24
-19,29,48,-4,-34,39,-24,-24,-29,9,14,24
-24,29,53,-2,-39,41,-24,-24,-29,14,14,29
-29,24,53,2,-41,39,-19,-24,-29,14,19,29
-39,24,63,7,-51,43,-19,-24,-29,19,19,34
-43,29,73,7,-58,51,-14,-29,-29,19,24,34
-48,29,78,9,-63,53,-14,-29,-34,19,24,39
-48,34,82,7,-65,58,-14,-34,-34,19,24,39
-39,34,73,2,-56,53,-14,-34,-39,19,24,39
-29,34,63,-2,-46,48,-19,-39,-39,19,19,39
-24,34,58,-4,-41,46,-19,-39,-43,14,19,39
-24,34,58,-4,-41,46,-19,-39,-43,14,19,39
-24,34,58,-4,-41,46,-19,-39,-43,14,14,39
-24,29,53,-2,-39,41,-19,-43,-48,9,14,39
-14,29,43,-7,-29,36,-24,-43,-48,9,14,34
0,24,24,-12,-12,24,-24,-43,-48,4,9,29
9,24,14,-17,-2,19,-29,-43,-48,4,9,29
14,24,9,-19,2,17,-29,-43,-48,4,9,29
19,24,4,-21,7,14,-29,-43,-48,4,9,24
14,19,4,-17,4,12,-29,-39,-43,9,9,29
9,14,4,-12,2,9,-24,-43,-43,9,14,29
4,14,9,-9,-2,12,-24,-39,-39,9,14,29
4,14,9,-9,-2,12,-24,-39,-39,9,14,24
4,14,9,-9,-2,12,-19,-39,-39,9,14,24
0,14,14,-7,-7,14,-19,-39,-34,14,14,24
-9,14,24,-2,-17,19,-19,-34,-39,14,14,24
-14,14,29,0,-21,21,-14,-34,-39,14,14,24
-19,14,34,2,-26,24,-9,-34,-34,14,14,24
-24,14,39,4,-31,26,-9,-34,-34,9,14,19
-24,9,34,7,-29,21,-9,-34,-39,9,14,19
-24,9,34,7,-29,21,-9,-34,-39,9,9,19
-24,9,34,7,-29,21,-9,-34,-39,4,9,19
-24,9,34,7,-29,21,-9,-39,-39,4,9,14
-24,9,34,7,-29,21,-9,-34,-39,4,9,14
-24,4,29,9,-26,17,-9,-39,-43,4,9,14
-24,0,24,12,-24,12,-9,-39,-43,0,4,14
-24,0,24,12,-24,12,-9,-39,-43,0,4,9
-24,0,24,12,-24,12,-9,-39,-43,0,4,9
-24,-9,14,17,-19,2,-14,-39,-48,-9,4,9
-24,-9,14,17,-19,2,-14,-43,-48,-9,0,9
-24,-9,14,17,-19,2,-14,-43,-48,-9,0,9
-24,0,24,12,-24,12,-14,-43,-48,-9,0,9
-24,0,24,12,-24,12,-14,-43,-48,-14,0,9
-14,0,14,7,-14,7,-19,-43,-48,-14,-9,4
-14,0,14,7,-14,7,-19,-43,-48,-14,0,9
-14,0,14,7,-14,7,-19,-43,-48,-14,0,9
-14,4,19,4,-17,12,-19,-43,-48,-14,0,9
-14,4,19,4,-17,12,-19,-43,-48,-14,4,14
-14,9,24,2,-19,17,-24,-48,-53,-14,4,14
-14,9,24,2,-19,17,-24,-48,-53,-14,4,19
-19,9,29,4,-24,19,-24,-48,-53,-9,9,19
-24,9,34,7,-29,21,-24,-48,-48,0,9,19
-29,4,34,12,-31,19,-24,-48,-48,0,9,24
-34,4,39,14,-36,21,-24,-48,-48,4,9,24
-39,4,43,17,-41,24,-24,-48,-53,4,9,24
-43,4,48,19,-46,26,-24,-48,-53,9,14,24
-39,9,48,14,-43,29,-24,-53,-53,9,9,24
-34,14,48,9,-41,31,-29,-53,-58,9,14,24
-34,14,48,9,-41,31,-29,-53,-58,4,9,19
-29,14,43,7,-36,29,-29,-53,-58,4,9,19
-29,14,43,7,-36,29,-34,-53,-58,4,9,19
-24,14,39,4,-31,26,-34,-58,-58,0,9,14
-14,14,29,0,-21,21,-39,-58,-63,-9,4,14
0,19,19,-9,-9,19,-39,-58,-68,-9,4,14
14,19,4,-17,4,12,-43,-63,-68,-14,0,9
19,24,4,-21,7,14,-43,-63,-73,-14,0,9
24,24,0,-24,12,12,-48,-63,-73,-19,0,9
24,19,-4,-21,14,7,-48,-63,-73,-19,0,9
19,19,0,-19,9,9,-43,-63,-73,-19,0,9
14,19,4,-17,4,12,-43,-63,-73,-19,0,14
14,19,4,-17,4,12,-43,-63,-73,-19,0,14
9,19,9,-14,0,14,-43,-63,-73,-24,0,14
9,19,9,-14,0,14,-39,-63,-73,-24,0,14
0,19,19,-9,-9,19,-39,-63,-73,-24,0,19
-9,19,29,-4,-19,24,-39,-58,-73,-19,4,19
-19,14,34,2,-26,24,-34,-58,-68,-19,4,19
-24,14,39,4,-31,26,-34,-53,-68,-19,4,19
-29,9,39,9,-34,24,-29,-53,-63,-14,9,24
-34,9,43,12,-39,26,-29,-48,-63,-14,9,24
-34,9,43,12,-39,26,-24,-48,-58,-14,9,24
-29,9,39,9,-34,24,-24,-48,-58,-14,9,24
-24,9,34,7,-29,21,-29,-48,-63,-9,9,24
-24,9,34,7,-29,21,-29,-48,-63,-14,9,19
-19,9,29,4,-24,19,-34,-48,-63,-14,9,19
-14,14,29,0,-21,21,-34,-48,-63,-14,4,19
-14,14,29,0,-21,21,-29,-48,-58,-14,9,24
-19,19,39,0,-29,29,-29,-48,-58,-9,9,24
-24,24,48,0,-36,36,-29,-43,-58,-9,9,29
-24,29,53,-2,-39,41,-29,-43,-53,-9,14,34
-29,34,63,-2,-46,48,-29,-48,-58,-9,14,34
-29,39,68,-4,-48,53,-29,-48,-58,-9,9,34
-24,39,63,-7,-43,51,-29,-53,-58,-9,9,34
-24,43,68,-9,-46,56,-34,-53,-63,-9,9,34
-24,48,73,-12,-48,61,-34,-53,-63,-9,9,34
-24,48,73,-12,-48,61,-34,-53,-58,0,9,34
-19,48,68,-14,-43,58,-34,-53,-58,0,9,34
-19,48,68,-14,-43,58,-34,-53,-63,0,9,34
-14,48,63,-17,-39,56,-34,-53,-63,0,9,29
0,48,48,-24,-24,48,-34,-58,-63,0,9,29
9,48,39,-29,-14,43,-39,-58,-68,0,9,24
14,48,34,-31,-9,41,-39,-58,-68,0,9,24
19,48,29,-34,-4,39,-39,-58,-63,4,9,24
19,43,24,-31,-2,34,-39,-58,-63,4,9,24
14,43,29,-29,-7,36,-34,-58,-63,9,14,24
4,39,34,-21,-14,36,-29,-53,-58,14,14,29
-9,39,48,-14,-29,43,-29,-53,-58,14,19,29
-14,39,53,-12,-34,46,-29,-53,-58,19,19,34
-19,39,58,-9,-39,48,-29,-53,-58,19,24,34
-19,39,58,-9,-39,48,-29,-53,-58,19,24,34
-19,39,58,-9,-39,48,-29,-53,-58,19,24,34
-19,43,63,-12,-41,53,-29,-53,-58,19,24,34
-14,43,58,-14,-36,51,-34,-53,-58,19,19,34
-19,43,63,-12,-41,53,-34,-58,-63,14,24,39
-24,43,68,-9,-46,56,-34,-53,-63,14,24,39
-24,43,68,-9,-46,56,-34,-58,-63,14,24,39
-19,43,63,-12,-41,53,-34,-58,-63,9,19,39
-14,43,58,-14,-36,51,-34,-58,-68,9,14,34
-9,43,53,-17,-31,48,-34,-58,-68,4,14,34
-14,39,53,-12,-34,46,-34,-58,-63,4,14,34
-19,39,58,-9,-39,48,-29,-53,-63,9,14,34
-24,39,63,-7,-43,51,-24,-48,-58,9,19,39
-29,39,68,-4,-48,53,-19,-48,-58,9,19,39
-29,34,63,-2,-46,48,-19,-48,-58,9,19,39
-24,39,63,-7,-43,51,-19,-48,-58,9,24,39
-14,39,53,-12,-34,46,-24,-53,-63,4,19,34
-9,34,43,-12,-26,39,-24,-53,-68,0,14,29
-9,34,43,-12,-26,39,-24,-53,-68,0,14,29
0,34,34,-17,-17,34,-24,-53,-68,0,14,29
-9,34,43,-12,-26,39,-24,-53,-68,0,14,34
-14,39,53,-12,-34,46,-24,-53,-68,4,19,34
-14,39,53,-12,-34,46,-24,-53,-68,9,14,34
-14,39,53,-12,-34,46,-24,-58,-68,4,14,34
-9,39,48,-14,-29,43,-29,-58,-73,4,9,29
0,39,39,-19,-19,39,-29,-58,-73,0,9,24
-9,39,48,-14,-29,43,-29,-58,-73,0,9,24
-9,34,43,-12,-26,39,-29,-58,-73,0,9,24
-14,29,43,-7,-29,36,-24,-53,-68,0,9,24
-14,29,43,-7,-29,36,-24,-53,-68,4,9,24
-19,29,48,-4,-34,39,-24,-53,-63,4,9,24
-19,29,48,-4,-34,39,-24,-53,-63,4,14,24
-19,24,43,-2,-31,34,-24,-53,-63,4,9,24
-24,24,48,0,-36,36,-24,-53,-63,4,14,24
-19,24,43,-2,-31,34,-24,-53,-63,0,14,24
-14,24,39,-4,-26,31,-24,-53,-63,0,9,24
-14,19,34,-2,-24,26,-24,-53,-68,-9,9,19
-14,19,34,-2,-24,26,-24,-53,-68,-9,4,19
-9,19,29,-4,-19,24,-29,-53,-68,-9,4,19
-14,19,34,-2,-24,26,-29,-53,-68,-9,4,24
-14,19,34,-2,-24,26,-29,-53,-73,-14,4,24
-9,19,29,-4,-19,24,-29,-58,-73,-14,4,24
-9,19,29,-4,-19,24,-34,-58,-73,-14,4,24
-9,19,29,-4,-19,24,-29,-58,-73,-19,4,24
-9,19,29,-4,-19,24,-29,-58,-78,-19,4,24
0,19,19,-9,-9,19,-29,-58,-78,-19,4,24
0,14,14,-7,-7,14,-34,-58,-78,-19,4,19
-9,14,24,-2,-17,19,-29,-58,-73,-19,4,19
-14,19,34,-2,-24,26,-29,-53,-73,-14,4,19
-19,19,39,0,-29,29,-24,-58,-63,-9,4,24
-24,19,43,2,-34,31,-24,-43,-58,-9,9,29
-39,19,58,9,-48,39,-14,-43,-58,0,14,34
-48,19,68,14,-58,43,-14,-39,-58,4,14,34
-48,19,68,14,-58,43,-9,-39,-58,4,19,34
-48,19,68,14,-58,43,-9,-39,-58,9,14,34
-43,19,63,12,-53,41,-14,-39,-58,9,9,34
-34,14,48,9,-41,31,-9,-34,-53,4,4,29
-19,4,24,7,-21,14,0,-29,-48,4,0,19
-9,-14,-4,12,-2,-9,4,-19,-39,4,0,9
-9,-24,-14,17,2,-19,14,0,-24,9,4,0
-9,-39,-29,24,9,-34,24,14,-9,19,4,4
4,-39,-43,17,24,-41,29,24,9,24,9,0
19,-43,-63,12,41,-53,29,39,29,29,14,0
34,-48,-82,7,58,-65,34,63,58,39,24,-9
58,-53,-112,-2,85,-82,39,92,102,53,39,-9
82,-48,-131,-17,107,-90,39,122,146,87,68,14
97,-9,-107,-43,102,-58,24,131,175,122,112,48
112,82,-29,-97,70,26,-14,122,180,180,180,117
141,224,82,-183,29,153,-68,87,185,253,278,214
165,380,214,-273,-24,297,-136,43,175,322,366,322
185,561,375,-373,-95,468,-219,-19,136,375,453,434
219,766,546,-492,-163,656,-297,-82,102,424,536,551
258,966,707,-612,-224,836,-390,-146,82,468,614,668
302,1151,849,-727,-273,1000,-473,-190,63,492,668,756
336,1298,961,-817,-312,1129,-527,-224,58,512,707,824
361,1400,1039,-880,-339,1220,-566,-244,68,536,736,873
370,1464,1093,-917,-361,1278,-595,-248,87,570,761,893
370,1493,1122,-932,-375,1307,-595,-239,112,595,766,883
375,1473,1098,-924,-361,1285,-580,-224,131,600,741,839
366,1429,1063,-897,-348,1246,-551,-195,151,595,707,775
346,1346,1000,-846,-326,1173,-512,-170,161,580,653,692
302,1249,946,-775,-322,1098,-453,-146,161,556,585,600
229,1137,907,-683,-339,1022,-375,-122,151,531,512,517
146,1029,883,-588,-368,956,-302,-102,141,483,434,434
82,897,814,-490,-366,856,-239,-73,136,419,331,326
43,727,683,-385,-319,705,-161,-34,136,326,219,214
0,541,541,-270,-270,541,-78,19,141,248,112,102
-43,385,429,-170,-236,407,4,73,156,195,43,29
-63,278,341,-107,-202,309,73,126,180,175,14,0
-73,180,253,-53,-163,217,122,175,214,156,-14,-39
-78,58,136,9,-107,97,180,229,248,131,-43,-82
-87,-78,9,82,-48,-34,244,287,287,112,-78,-141
-92,-209,-117,151,12,-163,307,351,336,107,-92,-185
-87,-307,-219,197,65,-263,366,429,409,122,-92,-219
-82,-390,-307,236,112,-348,429,507,483,131,-92,-244
-68,-463,-395,265,163,-429,478,575,551,141,-97,-263
-73,-488,-414,280,170,-451,517,624,590,146,-92,-268
-87,-488,-400,287,156,-444,546,644,600,156,-87,-263
-92,-478,-385,285,146,-431,566,658,610,165,-73,-248
-97,-473,-375,285,139,-424,585,673,619,165,-68,-244
-92,-478,-385,285,146,-431,600,688,629,165,-73,-244
-82,-483,-400,283,158,-441,614,702,634,161,-73,-244
-73,-468,-395,270,161,-431,614,697,634,151,-73,-244
-58,-434,-375,246,158,-405,570,668,590,151,-63,-224
-63,-390,-326,226,131,-358,527,595,531,156,-48,-195
-78,-341,-263,209,92,-302,468,512,453,156,-29,-165
-87,-297,-209,192,61,-253,409,424,361,156,-14,-136
-107,-263,-156,185,24,-209,341,322,278,156,4,-107
-122,-229,-107,175,-7,-168,287,234,204,161,19,-82
-131,-195,-63,163,-34,-129,239,156,131,146,24,-58
-141,-175,-34,158,-53,-104,195,87,68,126,24,-43
-156,-156,0,156,-78,-78,165,43,24,107,19,-39
-156,-141,14,148,-85,-63,151,14,-14,97,19,-24
-146,-126,19,136,-82,-53,131,4,-24,82,14,-24
-131,-117,14,124,-73,-51,122,4,-34,63,4,-24
-122,-112,9,117,-65,-51,97,0,-43,39,-9,-29
-107,-107,0,107,-53,-53,87,-9,-48,14,-19,-29
-82,-107,-24,95,-29,-65,73,-9,-53,0,-34,-39
-68,-102,-34,85,-17,-68,58,-9,-48,-34,-43,-48
-53,-97,-43,75,-4,-70,43,-9,-48,-43,-48,-43
-43,-97,-53,70,4,-75,29,-9,-48,-48,-58,-48
-24,-92,-68,58,21,-80,24,-14,-53,-53,-58,-48
-19,-82,-63,51,21,-73,19,-14,-53,-58,-63,-48
-14,-82,-68,48,26,-75,14,-19,-58,-58,-63,-48
-19,-82,-63,51,21,-73,14,-19,-58,-63,-63,-48
-24,-82,-58,53,17,-70,14,-24,-63,-63,-63,-48
-24,-82,-58,53,17,-70,14,-29,-68,-63,-58,-48
-24,-82,-58,53,17,-70,14,-34,-68,-68,-58,-48
-29,-82,-53,56,12,-68,9,-34,-73,-68,-63,-48
-34,-82,-48,58,7,-65,14,-34,-73,-68,-63,-48
-43,-78,-34,61,-4,-56,9,-39,-73,-68,-58,-43
-53,-78,-24,65,-14,-51,14,-34,-68,-63,-53,-39
-53,-82,-29,68,-12,-56,14,-39,-73,-63,-58,-43
-58,-87,-29,73,-14,-58,19,-34,-73,-68,-53,-39
-58,-87,-29,73,-14,-58,19,-34,-68,-68,-58,-43
-68,-82,-14,75,-26,-48,24,-34,-68,-63,-58,-39
-73,-82,-9,78,-31,-46,24,-39,-68,-63,-58,-43
-73,-87,-14,80,-29,-51,24,-39,-68,-68,-58,-39
-73,-87,-14,80,-29,-51,24,-39,-68,-73,-63,-39
-73,-92,-19,82,-26,-56,24,-34,-68,-73,-63,-43
-73,-102,-29,87,-21,-65,24,-29,-68,-73,-63,-48
-68,-97,-29,82,-19,-63,24,-29,-68,-68,-63,-48
-58,-102,-43,80,-7,-73,29,-34,-68,-68,-68,-53
-43,-107,-63,75,9,-85,19,-34,-68,-68,-68,-53
-39,-102,-63,70,12,-82,19,-34,-73,-73,-68,-53
-39,-97,-58,68,9,-78,24,-34,-68,-68,-63,-48
-34,-97,-63,65,14,-80,19,-34,-68,-73,-63,-43
-34,-92,-58,63,12,-75,19,-34,-73,-73,-68,-48
-24,-87,-63,56,19,-75,19,-34,-73,-73,-68,-48
-24,-87,-63,56,19,-75,9,-29,-68,-73,-68,-48
-19,-82,-63,51,21,-73,14,-34,-63,-78,-68,-53
-19,-87,-68,53,24,-78,9,-29,-68,-73,-68,-53
-14,-92,-78,53,31,-85,9,-34,-68,-78,-73,-53
-14,-92,-78,53,31,-85,9,-34,-68,-73,-73,-53
-9,-92,-82,51,36,-87,14,-29,-63,-73,-63,-48
-9,-92,-82,51,36,-87,14,-29,-58,-73,-63,-53
0,-87,-87,43,43,-87,14,-24,-58,-73,-68,-53
0,-87,-87,43,43,-87,9,-24,-53,-73,-63,-48
0,-82,-82,41,41,-82,9,-19,-53,-73,-63,-48
0,-87,-87,43,43,-87,9,-24,-48,-73,-68,-48
-9,-87,-78,48,34,-82,14,-24,-53,-68,-63,-53
-9,-92,-82,51,36,-87,9,-24,-48,-73,-63,-48
-14,-82,-68,48,26,-75,14,-19,-48,-68,-58,-48
-19,-78,-58,48,19,-68,19,-19,-43,-63,-53,-43
-34,-73,-39,53,2,-56,19,-14,-48,-63,-53,-34
-48,-73,-24,61,-12,-48,24,-9,-43,-63,-48,-29
-63,-82,-19,73,-21,-51,29,0,-43,-53,-53,-29
-63,-87,-24,75,-19,-56,29,-9,-43,-58,-58,-39
-68,-97,-29,82,-19,-63,34,-9,-43,-63,-58,-43
-73,-112,-39,92,-17,-75,29,-9,-43,-68,-63,-53
-68,-112,-43,90,-12,-78,29,-9,-48,-68,-63,-53
-68,-112,-43,90,-12,-78,29,-9,-43,-68,-63,-48
-58,-112,-53,85,-2,-82,29,0,-43,-68,-63,-53
-53,-117,-63,85,4,-90,29,-9,-43,-73,-68,-58
-48,-117,-68,82,9,-92,24,-14,-48,-82,-73,-63
-34,-131,-97,82,31,-114,24,-14,-53,-87,-87,-73
-19,-136,-117,78,48,-126,19,-14,-53,-92,-92,-82
9,-136,-146,63,78,-141,14,-19,-58,-102,-102,-87
19,-136,-156,58,87,-146,9,-14,-58,-102,-102,-87
24,-136,-161,56,92,-148,4,-14,-58,-107,-102,-87
24,-131,-156,53,90,-143,4,-14,-63,-107,-102,-92
24,-131,-156,53,90,-143,4,-19,-53,-107,-107,-97
29,-131,-161,51,95,-146,9,-14,-53,-112,-107,-97
39,-131,-170,46,104,-151,4,-19,-58,-112,-112,-102
43,-141,-185,48,114,-163,9,-14,-53,-112,-112,-102
34,-136,-170,51,102,-153,9,-9,-53,-117,-112,-107
19,-146,-165,63,92,-156,14,-9,-53,-117,-112,-102
0,-146,-146,73,73,-146,14,-9,-48,-112,-112,-97
-19,-141,-122,80,51,-131,24,0,-48,-112,-107,-87
-29,-141,-112,85,41,-126,24,4,-43,-112,-107,-87
-34,-146,-112,90,39,-129,24,9,-39,-107,-107,-87
-39,-156,-117,97,39,-136,34,9,-34,-112,-112,-92
-39,-170,-131,104,46,-151,34,14,-34,-112,-112,-97
-34,-170,-136,102,51,-153,39,14,-34,-122,-117,-107
-39,-180,-141,109,51,-161,43,14,-34,-122,-117,-112
-43,-190,-146,117,51,-168,43,14,-34,-126,-122,-112
-58,-209,-151,134,46,-180,48,19,-34,-126,-126,-117
-58,-209,-151,134,46,-180,53,19,-24,-131,-131,-117
-58,-214,-156,136,48,-185,53,29,-24,-131,-131,-122
-63,-224,-161,143,48,-192,53,29,-19,-131,-136,-126
-53,-224,-170,139,58,-197,58,29,-19,-136,-136,-131
-43,-234,-190,139,73,-212,58,29,-24,-141,-141,-141
-43,-239,-195,141,75,-217,53,29,-24,-151,-146,-141
-43,-248,-204,146,80,-226,53,24,-29,-151,-151,-146
-39,-244,-204,141,82,-224,48,29,-29,-151,-151,-151
-34,-248,-214,141,90,-231,53,29,-24,-156,-156,-156
-34,-244,-209,139,87,-226,48,29,-24,-151,-161,-156
-34,-248,-214,141,90,-231,48,24,-24,-161,-161,-156
-24,-248,-224,136,100,-236,43,19,-29,-161,-161,-161
-19,-253,-234,136,107,-244,39,19,-29,-170,-170,-165
-9,-258,-248,134,119,-253,43,19,-24,-170,-170,-170
4,-263,-268,129,136,-265,43,19,-24,-180,-180,-170
4,-268,-273,131,139,-270,34,19,-24,-185,-180,-180
4,-273,-278,134,141,-275,39,24,-19,-185,-185,-185
4,-273,-278,134,141,-275,39,29,-14,-185,-185,-185
0,-273,-273,136,136,-273,39,34,-9,-185,-180,-180
-14,-278,-263,146,124,-270,43,39,0,-185,-185,-185
-14,-278,-263,146,124,-270,48,43,14,-180,-175,-180
-14,-273,-258,143,122,-265,48,48,19,-180,-175,-175
-14,-273,-258,143,122,-265,43,58,24,-180,-175,-170
-9,-273,-263,141,126,-268,48,63,34,-170,-175,-165
4,-263,-268,129,136,-265,43,68,39,-175,-170,-170
19,-258,-278,119,148,-268,43,73,34,-170,-170,-165
19,-253,-273,117,146,-263,39,73,39,-175,-170,-165
24,-244,-268,109,146,-256,34,73,43,-170,-170,-170
34,-234,-268,100,151,-251,29,73,53,-170,-170,-170
34,-229,-263,97,148,-246,24,82,58,-170,-170,-165
29,-229,-258,100,143,-244,29,87,68,-165,-165,-161
24,-224,-248,100,136,-236,24,92,73,-165,-161,-161
39,-219,-258,90,148,-239,24,102,87,-161,-156,-156
43,-214,-258,85,151,-236,19,102,87,-161,-151,-156
48,-209,-258,80,153,-234,14,102,92,-151,-146,-146
58,-190,-248,65,153,-219,14,107,97,-146,-141,-146
68,-170,-239,51,153,-204,4,107,107,-146,-136,-141
68,-165,-234,48,151,-200,4,102,107,-131,-122,-126
63,-146,-209,41,136,-178,4,102,112,-122,-112,-117
63,-126,-190,31,126,-158,4,102,117,-112,-97,-97
68,-107,-175,19,122,-141,-9,102,122,-102,-92,-82
73,-87,-161,7,117,-124,-14,102,117,-97,-82,-78
73,-68,-141,-2,107,-104,-14,97,122,-87,-73,-63
82,-48,-131,-17,107,-90,-24,92,117,-78,-63,-58
82,-43,-126,-19,104,-85,-24,92,112,-68,-58,-48
87,-29,-117,-29,102,-73,-24,87,112,-58,-48,-43
92,-19,-112,-36,102,-65,-29,82,107,-58,-43,-39
92,-9,-102,-41,97,-56,-34,73,97,-48,-39,-29
82,4,-78,-43,80,-36,-34,68,97,-39,-29,-19
82,4,-78,-43,80,-36,-34,63,92,-34,-24,-19
82,14,-68,-48,75,-26,-34,63,87,-29,-19,-14
73,19,-53,-46,63,-17,-34,53,82,-19,-9,0
68,24,-43,-46,56,-9,-34,53,78,-14,0,4
68,29,-39,-48,53,-4,-34,43,68,-9,0,4
58,34,-24,-46,41,4,-34,34,63,-9,4,9
53,34,-19,-43,36,7,-34,29,53,0,9,14
53,43,-9,-48,31,17,-34,24,43,-9,9,14
48,48,0,-48,24,24,-34,19,39,0,14,19
39,48,9,-43,14,29,-39,14,29,0,9,19
43,43,0,-43,21,21,-39,9,24,-9,9,14
48,48,0,-48,24,24,-39,0,14,-9,4,9
53,43,-9,-48,31,17,-39,0,9,-9,0,9
48,34,-14,-41,31,9,-34,-9,4,-19,-9,9
43,29,-14,-36,29,7,-39,-14,-9,-24,-14,4
39,24,-14,-31,26,4,-34,-14,-14,-24,-14,0
34,19,-14,-26,24,2,-34,-19,-14,-24,-19,0
29,19,-9,-24,19,4,-29,-19,-14,-24,-19,0
24,19,-4,-21,14,7,-24,-19,-19,-24,-19,4
19,19,0,-19,9,9,-24,-19,-19,-24,-14,9
9,14,4,-12,2,9,-19,-19,-24,-24,-14,9
4,9,4,-7,0,7,-14,-19,-24,-19,-14,9
0,9,9,-4,-4,9,-14,-19,-29,-19,-9,9
-9,9,19,0,-14,14,-9,-24,-29,-14,0,14
-19,9,29,4,-24,19,-9,-24,-29,-9,0,14
-24,9,34,7,-29,21,0,-24,-29,-9,0,19
-29,9,39,9,-34,24,0,-19,-34,-9,4,19
-34,9,43,12,-39,26,4,-19,-34,-9,4,19
-43,9,53,17,-48,31,4,-19,-34,0,4,24
-48,9,58,19,-53,34,9,-19,-34,0,9,24
-48,4,53,21,-51,29,9,-19,-34,0,9,24
-53,4,58,24,-56,31,9,-19,-34,0,9,24
-48,4,53,21,-51,29,9,-24,-39,0,9,24
-43,9,53,17,-48,31,4,-29,-39,0,4,24
-34,14,48,9,-41,31,4,-29,-39,-9,4,24
-29,14,43,7,-36,29,0,-34,-39,-9,4,24
-29,19,48,4,-39,34,-9,-39,-43,-9,4,24
-19,24,43,-2,-31,34,-14,-43,-48,-9,9,24
-9,29,39,-9,-24,34,-19,-43,-53,-14,4,24
0,29,29,-14,-14,29,-24,-48,-53,-19,4,19
4,34,29,-19,-12,31,-29,-53,-58,-19,0,14
9,29,19,-19,-4,24,-29,-53,-58,-24,-9,14
9,29,19,-19,-4,24,-29,-58,-58,-24,-9,9
9,24,14,-17,-2,19,-34,-58,-63,-24,-9,9
4,19,14,-12,-4,17,-34,-58,-63,-24,-9,9
0,19,19,-9,-9,19,-29,-58,-63,-24,-9,9
-19,14,34,2,-26,24,-29,-58,-63,-24,-9,14
-29,14,43,7,-36,29,-29,-58,-63,-19,-9,14
-34,19,53,7,-43,36,-29,-58,-63,-19,-9,19
-43,19,63,12,-53,41,-24,-58,-63,-19,0,19
-48,14,63,17,-56,39,-19,-58,-58,-14,4,24
-53,14,68,19,-61,41,-19,-58,-58,-9,4,24
-53,14,68,19,-61,41,-19,-58,-58,-9,4,24
-48,14,63,17,-56,39,-19,-58,-63,-9,9,29
-48,19,68,14,-58,43,-24,-58,-63,-9,9,29
-43,24,68,9,-56,46,-24,-58,-63,-9,9,29
-39,24,63,7,-51,43,-24,-58,-63,-9,9,34
-39,24,63,7,-51,43,-24,-58,-63,-9,4,29
-34,24,58,4,-46,41,-29,-58,-63,-9,4,29
-29,24,53,2,-41,39,-29,-58,-58,-9,4,24
-24,24,48,0,-36,36,-29,-58,-58,-9,4,24
-14,29,43,-7,-29,36,-29,-58,-58,-9,4,24
-9,34,43,-12,-26,39,-34,-58,-58,-9,4,24
0,34,34,-17,-17,34,-39,-58,-58,-14,0,24
0,43,43,-21,-21,43,-39,-58,-63,-19,0,24
4,48,43,-26,-19,46,-43,-58,-58,-19,4,29
4,53,48,-29,-21,51,-43,-58,-58,-19,4,29
4,53,48,-29,-21,51,-43,-58,-58,-19,0,29
4,53,48,-29,-21,51,-43,-58,-58,-19,0,24
4,48,43,-26,-19,46,-39,-53,-58,-19,0,24
-9,48,58,-19,-34,53,-39,-53,-58,-19,0,24
-9,43,53,-17,-31,48,-39,-53,-58,-19,0,24
-9,39,48,-14,-29,43,-39,-53,-58,-19,0,24
0,39,39,-19,-19,39,-39,-48,-53,-19,0,19
0,34,34,-17,-17,34,-34,-48,-53,-14,0,19
0,34,34,-17,-17,34,-34,-48,-48,-14,0,19
-9,29,39,-9,-24,34,-34,-43,-48,-14,4,19
-14,29,43,-7,-29,36,-34,-43,-48,-9,4,24
-24,24,48,0,-36,36,-29,-43,-48,-9,9,24
-24,29,53,-2,-39,41,-29,-43,-48,-9,9,29
-24,29,53,-2,-39,41,-34,-43,-48,0,14,29
-19,34,53,-7,-36,43,-34,-43,-48,0,14,34
-19,34,53,-7,-36,43,-34,-43,-43,0,14,34
-14,29,43,-7,-29,36,-34,-43,-43,0,14,29
-19,29,48,-4,-34,39,-29,-39,-43,0,9,29
-19,24,43,-2,-31,34,-29,-39,-43,0,4,24
-24,24,48,0,-36,36,-29,-39,-43,-9,4,24
-19,19,39,0,-29,29,-29,-39,-43,-9,0,19
-19,19,39,0,-29,29,-24,-34,-43,-14,0,19
-14,14,29,0,-21,21,-24,-39,-43,-19,-14,9
0,4,4,-2,-2,4,-24,-34,-43,-24,-19,4
4,0,-4,-2,4,-2,-24,-34,-43,-24,-19,0
0,-9,-9,4,4,-9,-19,-34,-43,-24,-19,-9
-9,-14,-4,12,-2,-9,-14,-29,-43,-24,-19,0
-19,-14,4,17,-12,-4,-9,-29,-43,-24,-19,0
-24,-9,14,17,-19,2,-9,-34,-43,-24,-19,0
-24,0,24,12,-24,12,-9,-39,-48,-24,-19,4
-19,4,24,7,-21,14,-9,-39,-48,-24,-19,4
-19,4,24,7,-21,14,-9,-39,-48,-24,-19,4
-19,4,24,7,-21,14,-9,-39,-48,-24,-19,4
-14,0,14,7,-14,7,-9,-39,-48,-24,-19,4
-9,0,9,4,-9,4,0,-39,-48,-24,-14,4
-9,4,14,2,-12,9,0,-39,-48,-24,-14,4
-14,4,19,4,-17,12,-9,-39,-53,-19,-14,4
-14,4,19,4,-17,12,-9,-43,-53,-24,-14,4
0,9,9,-4,-4,9,-9,-43,-58,-24,-19,4
0,4,4,-2,-2,4,-14,-43,-58,-24,-19,0
0,0,0,0,0,0,-14,-43,-53,-24,-19,0
0,0,0,0,0,0,-9,-43,-53,-24,-14,4
-9,0,9,4,-9,4,-9,-43,-53,-19,-14,9
-14,0,14,7,-14,7,-9,-48,-58,-19,-9,9
-14,9,24,2,-19,17,-14,-48,-58,-19,-9,14
-14,14,29,0,-21,21,-14,-53,-63,-19,-9,19
-19,19,39,0,-29,29,-19,-58,-63,-19,-9,19
-29,19,48,4,-39,34,-14,-58,-68,-19,0,24
-34,19,53,7,-43,36,-14,-63,-68,-14,0,24
-34,19,53,7,-43,36,-14,-63,-68,-14,0,24
-34,19,53,7,-43,36,-19,-63,-73,-14,0,24
-24,19,43,2,-34,31,-19,-68,-73,-19,0,19
-19,24,43,-2,-31,34,-24,-68,-78,-19,-9,19
-19,19,39,0,-29,29,-24,-73,-78,-24,-9,19
-14,19,34,-2,-24,26,-29,-73,-78,-24,-14,14
-14,14,29,0,-21,21,-29,-73,-78,-24,-14,14
-19,14,34,2,-26,24,-24,-68,-78,-19,-9,14
-19,9,29,4,-24,19,-24,-68,-73,-19,-9,14
-19,9,29,4,-24,19,-24,-68,-73,-19,-9,14
-19,9,29,4,-24,19,-29,-68,-73,-19,-9,14
-14,14,29,0,-21,21,-29,-68,-73,-19,-9,14
-14,19,34,-2,-24,26,-29,-73,-73,-19,-9,19
-19,24,43,-2,-31,34,-29,-73,-73,-19,0,19
-24,29,53,-2,-39,41,-29,-73,-73,-14,0,24
-24,29,53,-2,-39,41,-29,-68,-73,-14,4,29
-24,34,58,-4,-41,46,-29,-73,-73,-9,4,29
-24,34,58,-4,-41,46,-34,-73,-73,-9,9,29
-24,34,58,-4,-41,46,-34,-73,-73,0,9,34
-24,34,58,-4,-41,46,-34,-73,-73,0,9,34
-29,34,63,-2,-46,48,-39,-73,-73,0,14,34
-24,34,58,-4,-41,46,-39,-73,-73,4,14,39
-24,39,63,-7,-43,51,-43,-78,-73,4,24,39
-19,43,63,-12,-41,53,-48,-78,-73,4,24,39
-19,43,63,-12,-41,53,-48,-78,-78,4,19,39
-14,43,58,-14,-36,51,-53,-82,-78,4,19,34
-9,43,53,-17,-31,48,-53,-78,-78,4,19,34
0,48,48,-24,-24,48,-53,-78,-73,4,19,34
4,48,43,-26,-19,46,-53,-73,-73,4,19,34
4,48,43,-26,-19,46,-48,-68,-68,0,19,34
9,43,34,-26,-12,39,-43,-68,-68,0,14,29
9,43,34,-26,-12,39,-43,-63,-63,0,14,29
9,43,34,-26,-12,39,-39,-63,-63,0,14,24
9,43,34,-26,-12,39,-39,-58,-63,0,14,24
9,39,29,-24,-9,34,-39,-58,-63,0,9,24
4,39,34,-21,-14,36,-34,-58,-58,0,9,24
4,39,34,-21,-14,36,-34,-58,-58,0,14,29
0,43,43,-21,-21,43,-34,-53,-58,0,14,29
-14,43,58,-14,-36,51,-29,-53,-58,4,19,34
-19,43,63,-12,-41,53,-29,-53,-58,4,19,34
-24,43,68,-9,-46,56,-29,-53,-58,9,19,34
-24,39,63,-7,-43,51,-29,-53,-58,4,14,29
-24,34,58,-4,-41,46,-29,-53,-63,0,9,24
-24,29,53,-2,-39,41,-29,-58,-63,0,9,24
-19,29,48,-4,-34,39,-29,-58,-63,-9,4,19
-19,29,48,-4,-34,39,-29,-58,-68,-9,4,19
-19,24,43,-2,-31,34,-29,-58,-63,-9,4,19
-14,24,39,-4,-26,31,-29,-58,-63,-9,4,19
-9,24,34,-7,-21,29,-29,-58,-63,-14,4,19
0,24,24,-12,-12,24,-29,-58,-68,-14,0,14
9,24,14,-17,-2,19,-34,-58,-68,-24,-9,9
19,24,4,-21,7,14,-34,-58,-68,-24,-14,9
19,29,9,-24,4,19,-34,-63,-73,-24,-9,9
24,34,9,-29,7,21,-39,-63,-73,-19,0,14
19,39,19,-29,0,29,-39,-68,-73,-19,0,19
19,48,29,-34,-4,39,-39,-68,-73,-19,4,24
19,53,34,-36,-7,43,-43,-68,-78,-14,4,24
19,58,39,-39,-9,48,-43,-73,-78,-14,4,29
14,63,48,-39,-17,56,-43,-73,-78,-14,4,29
9,58,48,-34,-19,53,-43,-73,-78,-14,4,24
4,53,48,-29,-21,51,-39,-73,-73,-14,0,24
0,48,48,-24,-24,48,-39,-63,-73,-14,0,24
-9,39,48,-14,-29,43,-34,-63,-73,-14,4,24
-14,34,48,-9,-31,41,-29,-63,-68,-9,4,24
-14,29,43,-7,-29,36,-29,-63,-68,-14,0,19
-19,29,48,-4,-34,39,-29,-63,-68,-14,0,19
-24,24,48,0,-36,36,-24,-63,-68,-9,4,19
-24,24,48,0,-36,36,-24,-63,-68,-9,4,24
-24,24,48,0,-36,36,-24,-63,-68,0,9,24
-24,29,53,-2,-39,41,-24,-63,-68,0,19,34
-24,34,58,-4,-41,46,-24,-68,-73,0,19,34
-24,39,63,-7,-43,51,-24,-68,-78,4,24,39
-24,48,73,-12,-48,61,-24,-68,-78,4,24,39
-29,48,78,-9,-53,63,-24,-68,-78,4,24,39
-34,53,87,-9,-61,70,-24,-68,-73,4,24,43
-34,53,87,-9,-61,70,-24,-68,-73,4,29,43
-29,53,82,-12,-56,68,-24,-68,-78,4,29,43
-24,53,78,-14,-51,65,-29,-73,-78,4,24,43
-24,53,78,-14,-51,65,-29,-73,-78,4,19,39
-24,53,78,-14,-51,65,-29,-73,-78,0,19,39
-24,48,73,-12,-48,61,-29,-73,-78,0,19,34
-24,43,68,-9,-46,56,-29,-73,-78,0,14,34
-29,39,68,-4,-48,53,-24,-68,-73,0,14,34
-29,34,63,-2,-46,48,-24,-68,-73,0,14,29
-24,29,53,-2,-39,41,-24,-68,-73,4,14,29
-19,29,48,-4,-34,39,-24,-73,-78,4,14,34
-14,34,48,-9,-31,41,-24,-73,-78,0,14,29
-14,34,48,-9,-31,41,-24,-73,-82,0,14,29
-14,39,53,-12,-34,46,-24,-78,-82,0,14,29
-19,43,63,-12,-41,53,-24,-78,-82,0,14,34
-19,48,68,-14,-43,58,-24,-73,-82,0,14,34
-24,48,73,-12,-48,61,-24,-73,-82,0,14,34
-29,48,78,-9,-53,63,-24,-73,-82,0,14,34
-39,43,82,-2,-61,63,-19,-73,-82,-9,9,29
-43,39,82,2,-63,61,-19,-68,-78,-9,9,29
-43,34,78,4,-61,56,-14,-68,-78,-9,9,24
-48,29,78,9,-63,53,-9,-63,-73,0,9,29
-53,24,78,14,-65,51,-9,-58,-73,0,14,29
-53,24,78,14,-65,51,-9,-58,-73,0,14,29
-53,29,82,12,-68,56,-14,-63,-73,0,14,29
-48,29,78,9,-63,53,-14,-63,-73,0,14,29
-43,24,68,9,-56,46,-14,-63,-73,0,14,29
-39,19,58,9,-48,39,-19,-63,-73,0,14,29
-29,14,43,7,-36,29,-19,-63,-73,0,9,24
-24,14,39,4,-31,26,-24,-63,-73,0,9,19
-14,14,29,0,-21,21,-24,-63,-73,-9,9,24
-9,14,24,-2,-17,19,-29,-63,-73,0,9,24
0,19,19,-9,-9,19,-34,-68,-78,-9,9,24
4,24,19,-14,-7,21,-39,-68,-78,-9,4,24
9,29,19,-19,-4,24,-43,-73,-82,-14,4,19
9,29,19,-19,-4,24,-48,-73,-82,-14,0,19
9,29,19,-19,-4,24,-48,-73,-82,-14,0,14
4,29,24,-17,-9,26,-48,-73,-82,-14,4,19
0,34,34,-17,-17,34,-48,-73,-82,-9,9,24
-9,34,43,-12,-26,39,-48,-78,-78,-9,9,29
-19,39,58,-9,-39,48,-48,-78,-82,0,14,34
-24,43,68,-9,-46,56,-48,-78,-82,0,14,34
-24,48,73,-12,-48,61,-53,-78,-82,0,19,34
-14,48,63,-17,-39,56,-53,-78,-82,0,14,34
-9,48,58,-19,-34,53,-53,-78,-82,0,14,29
0,48,48,-24,-24,48,-53,-78,-82,-9,14,29
0,43,43,-21,-21,43,-53,-78,-78,0,14,29
0,43,43,-21,-21,43,-48,-73,-78,0,14,29
0,39,39,-19,-19,39,-48,-73,-78,0,14,29
0,39,39,-19,-19,39,-43,-68,-73,0,14,29
-9,39,48,-14,-29,43,-43,-68,-73,0,14,29
-14,39,53,-12,-34,46,-39,-63,-73,4,14,29
-14,39,53,-12,-34,46,-34,-63,-68,4,19,29
-19,39,58,-9,-39,48,-34,-53,-63,9,19,34
-24,39,63,-7,-43,51,-29,-53,-63,9,19,34
-29,39,68,-4,-48,53,-24,-53,-63,9,24,39
-39,43,82,-2,-61,63,-24,-53,-58,14,24,39
-39,43,82,-2,-61,63,-24,-53,-58,14,24,39
-39,39,78,0,-58,58,-24,-53,-58,14,24,39
-34,39,73,-2,-53,56,-19,-53,-58,14,24,39
-29,39,68,-4,-48,53,-24,-53,-63,9,24,34
-24,34,58,-4,-41,46,-24,-53,-63,0,19,34
-14,34,48,-9,-31,41,-24,-58,-63,-9,14,29
4,34,29,-19,-12,31,-29,-58,-63,-14,9,24
14,29,14,-21,0,21,-29,-58,-63,-14,4,19
19,29,9,-24,4,19,-29,-58,-68,-19,4,19
29,24,-4,-26,17,9,-34,-58,-68,-19,0,9
39,24,-14,-31,26,4,-34,-58,-68,-24,-9,9
43,24,-19,-34,31,2,-34,-58,-68,-19,4,9
34,34,0,-34,17,17,-34,-58,-73,-19,4,14
29,39,9,-34,9,24,-34,-63,-73,-19,4,19
9,39,29,-24,-9,34,-34,-63,-73,-9,9,19
4,43,39,-24,-17,41,-34,-63,-73,0,14,24
-9,43,53,-17,-31,48,-29,-63,-73,0,19,29
-9,39,48,-14,-29,43,-24,-58,-68,4,14,34
-9,34,43,-12,-26,39,-14,-53,-63,4,14,24
0,24,24,-12,-12,24,-14,-43,-53,0,9,19
-9,9,19,0,-14,14,0,-34,-43,4,14,14
-14,0,14,7,-14,7,9,-19,-29,14,19,14
-19,-9,9,14,-14,0,14,-14,-19,19,24,14
-19,-14,4,17,-12,-4,19,4,0,29,34,24
-14,-29,-14,21,0,-21,29,29,29,39,39,24
9,-39,-48,14,29,-43,34,58,68,43,53,24
43,-29,-73,-7,58,-51,34,82,107,68,73,39
63,24,-39,-43,51,-7,9,82,122,92,102,68
92,112,19,-102,36,65,-29,63,122,131,161,122
117,248,131,-183,-7,190,-82,24,117,185,234,209
136,395,258,-265,-61,326,-141,-24,97,244,312,302
151,566,414,-358,-131,490,-219,-82,58,287,375,400
185,751,566,-468,-190,658,-297,-146,14,322,444,512
244,941,697,-592,-226,819,-385,-209,-24,351,507,610
292,1112,819,-702,-263,966,-468,-258,-43,361,551,688
336,1244,907,-790,-285,1076,-527,-287,-58,370,570,736
366,1327,961,-846,-297,1144,-561,-302,-48,385,590,761
380,1366,985,-873,-302,1176,-575,-297,-29,419,614,775
370,1371,1000,-871,-314,1185,-566,-278,4,448,624,761
361,1327,966,-844,-302,1146,-536,-244,48,463,619,722
356,1249,893,-802,-268,1071,-492,-195,97,473,590,653
336,1132,795,-734,-229,963,-439,-146,136,478,556,566
307,980,673,-644,-183,827,-361,-97,170,473,502,468
253,834,580,-544,-163,707,-278,-39,209,458,453,370
185,678,492,-431,-153,585,-185,14,239,439,385,273
126,512,385,-319,-129,448,-107,73,268,385,302,170
87,322,234,-204,-73,278,-14,141,307,322,209,58
43,117,73,-80,-14,95,78,214,341,258,107,-63
9,-58,-68,24,39,-63,161,287,380,219,43,-141
0,-165,-165,82,82,-165,224,341,424,204,19,-180
4,-263,-268,129,136,-265,268,395,468,180,-9,-214
14,-366,-380,175,197,-373,307,444,507,151,-43,-258
24,-473,-497,224,261,-485,351,497,546,126,-78,-307
19,-551,-570,265,295,-561,400,551,590,126,-92,-336
19,-595,-614,287,317,-605,444,614,653,146,-87,-351
24,-639,-663,307,344,-651,478,683,717,156,-82,-351
43,-653,-697,305,370,-675,507,741,771,161,-87,-356
39,-639,-678,300,358,-658,527,775,805,170,-78,-341
34,-600,-634,283,334,-617,546,795,829,180,-68,-326
29,-566,-595,268,312,-580,556,814,839,195,-58,-307
39,-546,-585,253,312,-566,570,839,858,209,-48,-292
53,-531,-585,239,319,-558,585,873,883,214,-48,-287
63,-522,-585,229,324,-553,600,897,907,209,-48,-283
73,-507,-580,217,326,-544,610,907,917,209,-43,-278
78,-478,-556,200,317,-517,580,888,893,214,-34,-263
73,-439,-512,183,292,-475,541,834,844,219,-14,-234
68,-385,-453,158,261,-419,492,746,761,229,4,-200
63,-341,-405,139,234,-373,434,649,663,229,19,-170
53,-302,-356,124,204,-329,366,536,570,229,34,-146
43,-258,-302,107,173,-280,307,439,478,229,48,-117
24,-219,-244,97,134,-231,263,336,390,229,58,-87
0,-180,-180,90,90,-180,219,253,297,209,63,-68
-29,-156,-126,92,48,-141,180,175,219,185,68,-48
-48,-126,-78,87,14,-102,156,126,156,175,68,-24
-53,-97,-43,75,-4,-70,131,87,122,156,63,-14
-53,-78,-24,65,-14,-51,117,58,82,136,53,0
-58,-68,-9,63,-24,-39,87,34,53,107,43,0
-63,-58,4,61,-34,-26,73,14,29,82,34,0
-58,-58,0,58,-29,-29,58,9,14,58,24,-9
-53,-53,0,53,-26,-26,48,4,4,39,14,0
