I,II,III,aVR,aVL,aVF,V1,V2,V3,V4,V5,V6
-48,-107,-58,78,4,-82,-97,48,97,-78,-78,68
-48,-107,-58,78,4,-82,-97,48,97,-78,-78,68
-48,-107,-58,78,4,-82,-97,48,97,-78,-78,68
-48,-107,-58,78,4,-82,-97,48,97,-78,-78,68
-43,-97,-53,70,4,-75,-107,48,97,-68,-68,68
-39,-97,-58,68,9,-78,-107,48,97,-68,-68,68
-34,-97,-63,65,14,-80,-107,48,97,-68,-68,68
-29,-97,-68,63,19,-82,-107,48,97,-68,-68,68
-24,-87,-63,56,19,-75,-117,39,107,-68,-58,68
-19,-87,-68,53,24,-78,-117,39,107,-68,-58,68
-14,-87,-73,51,29,-80,-117,39,107,-68,-58,68
-9,-87,-78,48,34,-82,-117,39,107,-68,-58,68
0,-73,-73,36,36,-73,-126,39,107,-58,-48,68
0,-68,-68,34,34,-68,-126,39,107,-58,-48,68
0,-63,-63,31,31,-63,-126,39,107,-58,-48,68
0,-58,-58,29,29,-58,-126,39,107,-58,-48,68
4,-48,-53,21,29,-51,-136,39,107,-48,-43,73
9,-48,-58,19,34,-53,-136,39,107,-48,-39,78
14,-48,-63,17,39,-56,-136,39,107,-48,-34,82
19,-48,-68,14,43,-58,-136,39,107,-48,-29,87
34,-58,-92,12,63,-75,-141,29,117,-39,-29,97
39,-58,-97,9,68,-78,-146,29,117,-39,-29,97
43,-58,-102,7,73,-80,-151,29,117,-39,-29,97
48,-58,-107,4,78,-82,-156,29,117,-39,-29,97
53,-53,-107,0,80,-80,-161,19,107,-29,-24,107
58,-48,-107,-4,82,-78,-165,19,107,-29,-19,107
63,-43,-107,-9,85,-75,-170,19,107,-29,-14,107
68,-39,-107,-14,87,-73,-175,19,107,-29,-9,107
82,-29,-112,-26,97,-70,-180,9,107,-19,-4,117
87,-19,-107,-34,97,-63,-185,9,107,-19,0,117
92,-9,-102,-41,97,-56,-190,9,107,-19,4,117
97,0,-97,-48,97,-48,-195,9,107,-19,9,117
102,-4,-107,-48,104,-56,-200,9,117,-9,14,126
107,-9,-117,-48,112,-63,-204,9,117,-9,19,126
112,-14,-126,-48,119,-70,-209,9,117,-9,24,126
117,-19,-136,-48,126,-78,-214,9,117,-9,29,126
122,-9,-131,-56,126,-70,-229,0,107,-19,39,131
126,0,-126,-63,126,-63,-234,0,107,-19,39,136
131,9,-122,-70,126,-56,-239,0,107,-19,39,141
136,19,-117,-78,126,-48,-244,0,107,-19,39,146
141,19,-122,-80,131,-51,-253,-9,117,-9,43,156
146,19,-126,-82,136,-53,-253,-9,117,-9,48,156
151,19,-131,-85,141,-56,-253,-9,117,-9,53,156
156,19,-136,-87,146,-58,-253,-9,117,-9,58,156
165,29,-136,-97,151,-53,-263,-19,117,-9,68,165
165,39,-126,-102,146,-43,-263,-19,117,-9,68,165
165,48,-117,-107,141,-34,-263,-19,117,-9,68,165
165,58,-107,-112,136,-24,-263,-19,117,-9,68,165
175,68,-107,-122,141,-19,-273,-19,126,-9,78,156
175,68,-107,-122,141,-19,-273,-19,126,-9,78,156
175,68,-107,-122,141,-19,-273,-19,126,-9,78,156
175,68,-107,-122,141,-19,-273,-19,126,-9,78,156
165,68,-97,-117,131,-14,-263,-29,131,-19,68,156
156,68,-87,-112,122,-9,-263,-29,136,-19,68,156
146,68,-78,-107,112,-4,-263,-29,141,-19,68,156
136,68,-68,-102,102,0,-263,-29,146,-19,68,156
131,68,-63,-100,97,2,-258,-29,156,-29,68,151
126,68,-58,-97,92,4,-253,-29,156,-29,68,146
122,68,-53,-95,87,7,-248,-29,156,-29,68,141
117,68,-48,-92,82,9,-244,-29,156,-29,68,136
97,63,-34,-80,65,14,-229,-24,170,-39,63,131
87,58,-29,-73,58,14,-224,-19,175,-39,58,126
78,53,-24,-65,51,14,-219,-14,180,-39,53,122
68,48,-19,-58,43,14,-214,-9,185,-39,48,117
53,39,-14,-46,34,12,-209,-9,185,-43,43,102
48,39,-9,-43,29,14,-204,-9,185,-48,39,97
43,39,-4,-41,24,17,-200,-9,185,-53,34,92
39,39,0,-39,19,19,-195,-9,185,-58,29,87
24,29,4,-26,9,17,-180,0,185,-68,24,82
19,19,0,-19,9,9,-175,0,185,-68,19,78
14,9,-4,-12,9,2,-170,0,185,-68,14,73
9,0,-9,-4,9,-4,-165,0,185,-68,9,68
4,4,0,-4,2,2,-156,-9,180,-82,4,63
0,9,9,-4,-4,9,-156,-9,175,-87,0,58
-4,14,19,-4,-12,17,-156,-9,170,-92,-4,53
-9,19,29,-4,-19,24,-156,-9,165,-97,-9,48
-14,14,29,0,-21,21,-146,0,156,-97,-19,39
-19,9,29,4,-24,19,-146,0,156,-97,-19,39
-24,4,29,9,-26,17,-146,0,156,-97,-19,39
-29,0,29,14,-29,14,-146,0,156,-97,-19,39
-39,-4,34,21,-36,14,-136,0,165,-87,-19,29
-39,-9,29,24,-34,9,-136,0,165,-87,-19,29
-39,-14,24,26,-31,4,-136,0,165,-87,-19,29
-39,-19,19,29,-29,0,-136,0,165,-87,-19,29
-48,-9,39,29,-43,14,-136,-9,161,-92,-34,24
-48,-9,39,29,-43,14,-136,-9,156,-97,-39,19
-48,-9,39,29,-43,14,-136,-9,151,-102,-43,14
-48,-9,39,29,-43,14,-136,-9,146,-107,-48,9
-39,-14,24,26,-31,4,-126,0,156,-97,-39,19
-39,-19,19,29,-29,0,-126,0,156,-97,-39,19
-39,-24,14,31,-26,-4,-126,0,156,-97,-39,19
-39,-29,9,34,-24,-9,-126,0,156,-97,-39,19
-39,-19,19,29,-29,0,-126,0,156,-92,-39,9
-39,-19,19,29,-29,0,-126,0,156,-87,-39,9
-39,-19,19,29,-29,0,-126,0,156,-82,-39,9
-39,-19,19,29,-29,0,-126,0,156,-78,-39,9
-39,-29,9,34,-24,-9,-136,-9,156,-87,-39,9
-39,-29,9,34,-24,-9,-136,-9,156,-87,-39,9
-39,-29,9,34,-24,-9,-136,-9,156,-87,-39,9
-39,-29,9,34,-24,-9,-136,-9,156,-87,-39,9
-48,-19,29,34,-39,4,-136,-19,146,-78,-48,0
-48,-19,29,34,-39,4,-136,-19,146,-78,-48,0
-48,-19,29,34,-39,4,-136,-19,146,-78,-48,0
-48,-19,29,34,-39,4,-136,-19,146,-78,-48,0
-58,-24,34,41,-46,4,-126,-14,156,-73,-39,0
-58,-29,29,43,-43,0,-126,-9,156,-68,-39,0
-58,-34,24,46,-41,-4,-126,-4,156,-63,-39,0
-58,-39,19,48,-39,-9,-126,0,156,-58,-39,0
-58,-34,24,46,-41,-4,-136,-4,156,-48,-39,0
-58,-29,29,43,-43,0,-136,-9,156,-48,-39,0
-58,-24,34,41,-46,4,-136,-14,156,-48,-39,0
-58,-19,39,39,-48,9,-136,-19,156,-48,-39,0
-48,-19,29,34,-39,4,-126,-9,156,-48,-43,-9
-48,-19,29,34,-39,4,-126,-9,156,-48,-48,-9
-48,-19,29,34,-39,4,-126,-9,156,-48,-53,-9
-48,-19,29,34,-39,4,-126,-9,156,-48,-58,-9
-48,-19,29,34,-39,4,-136,-19,146,-39,-58,-9
-48,-19,29,34,-39,4,-136,-19,146,-39,-58,-9
-48,-19,29,34,-39,4,-136,-19,146,-39,-58,-9
-48,-19,29,34,-39,4,-136,-19,146,-39,-58,-9
-48,-29,19,39,-34,-4,-136,-29,146,-34,-48,-19
-48,-29,19,39,-34,-4,-136,-29,146,-29,-48,-19
-48,-29,19,39,-34,-4,-136,-29,146,-24,-48,-19
-48,-29,19,39,-34,-4,-136,-29,146,-19,-48,-19
-48,-14,34,31,-41,9,-136,-29,146,-29,-58,-29
-48,-9,39,29,-43,14,-136,-29,146,-29,-58,-29
-48,-4,43,26,-46,19,-136,-29,146,-29,-58,-29
-48,0,48,24,-48,24,-136,-29,146,-29,-58,-29
-48,-4,43,26,-46,19,-131,-19,156,-19,-48,-19
-48,-9,39,29,-43,14,-126,-19,156,-19,-48,-19
-48,-14,34,31,-41,9,-122,-19,156,-19,-48,-19
-48,-19,29,34,-39,4,-117,-19,156,-19,-48,-19
-48,-29,19,39,-34,-4,-126,-29,146,-19,-48,-19
-48,-29,19,39,-34,-4,-126,-29,146,-19,-48,-19
-48,-29,19,39,-34,-4,-126,-29,146,-19,-48,-19
-48,-29,19,39,-34,-4,-126,-29,146,-19,-48,-19
-58,-19,39,39,-48,9,-126,-29,156,-24,-58,-29
-58,-19,39,39,-48,9,-126,-29,156,-29,-58,-29
-58,-19,39,39,-48,9,-126,-29,156,-34,-58,-29
-58,-19,39,39,-48,9,-126,-29,156,-39,-58,-29
-48,-19,29,34,-39,4,-117,-19,146,-48,-58,-39
-48,-19,29,34,-39,4,-117,-19,146,-48,-58,-39
-48,-19,29,34,-39,4,-117,-19,146,-48,-58,-39
-48,-19,29,34,-39,4,-117,-19,146,-48,-58,-39
-39,-14,24,26,-31,4,-126,-29,136,-58,-58,-29
-39,-9,29,24,-34,9,-126,-29,136,-58,-58,-29
-39,-4,34,21,-36,14,-126,-29,136,-58,-58,-29
-39,0,39,19,-39,19,-126,-29,136,-58,-58,-29
-39,-9,29,24,-34,9,-117,-29,136,-68,-68,-34
-39,-9,29,24,-34,9,-117,-29,136,-68,-68,-39
-39,-9,29,24,-34,9,-117,-29,136,-68,-68,-43
-39,-9,29,24,-34,9,-117,-29,136,-68,-68,-48
-48,-14,34,31,-41,9,-107,-29,136,-68,-68,-39
-48,-19,29,34,-39,4,-107,-29,136,-68,-68,-39
-48,-24,24,36,-36,0,-107,-29,136,-68,-68,-39
-48,-29,19,39,-34,-4,-107,-29,136,-68,-68,-39
-39,-39,0,39,-19,-19,-107,-19,136,-68,-68,-48
-39,-39,0,39,-19,-19,-107,-19,136,-68,-68,-48
-39,-39,0,39,-19,-19,-102,-19,136,-68,-68,-48
-39,-43,-4,41,-17,-24,-102,-19,136,-68,-68,-48
-39,-39,0,39,-19,-19,-107,-29,126,-82,-78,-58
-39,-34,4,36,-21,-14,-112,-29,126,-82,-78,-58
-39,-34,4,36,-21,-14,-117,-29,126,-78,-78,-58
-39,-29,9,34,-24,-9,-122,-29,126,-78,-78,-63
-39,-29,9,34,-24,-9,-122,-29,126,-73,-78,-53
-39,-29,9,34,-24,-9,-122,-29,126,-73,-73,-53
-39,-29,9,34,-24,-9,-122,-29,122,-73,-73,-48
-39,-29,9,34,-24,-9,-122,-29,122,-73,-73,-48
-43,-19,24,31,-34,2,-131,-39,122,-73,-73,-53
-43,-19,24,31,-34,2,-131,-39,117,-73,-73,-53
-43,-24,19,34,-31,-2,-131,-39,117,-73,-73,-53
-43,-24,19,34,-31,-2,-131,-39,117,-73,-73,-53
-43,-29,14,36,-29,-7,-122,-29,107,-63,-73,-58
-39,-29,9,34,-24,-9,-122,-39,107,-63,-82,-68
-34,-34,0,34,-17,-17,-122,-39,107,-63,-82,-68
-29,-34,-4,31,-12,-19,-122,-34,107,-53,-78,-63
-34,-39,-4,36,-14,-21,-112,-34,107,-63,-73,-63
-39,-39,0,39,-19,-19,-112,-34,107,-63,-73,-58
-43,-39,4,41,-24,-17,-112,-34,112,-53,-73,-58
-48,-39,9,43,-29,-14,-112,-34,112,-53,-73,-58
-48,-29,19,39,-34,-4,-126,-34,102,-53,-73,-68
-48,-19,29,34,-39,4,-126,-34,102,-48,-73,-68
-48,-14,34,31,-41,9,-122,-34,107,-48,-73,-63
-48,-14,34,31,-41,9,-122,-29,117,-39,-63,-58
-43,-14,29,29,-36,7,-112,-9,131,-34,-63,-58
-34,0,34,17,-34,17,-107,0,136,-29,-58,-53
-19,9,29,4,-24,19,-107,4,141,-19,-48,-43
-14,19,34,-2,-24,26,-107,14,151,-14,-43,-39
4,43,39,-24,-17,41,-112,19,165,-4,-39,-34
4,58,53,-31,-24,56,-102,29,180,4,-34,-29
0,63,63,-31,-31,63,-78,48,190,14,-29,-24
0,68,68,-34,-34,68,-53,68,200,14,-24,-24
9,63,53,-36,-21,58,-29,102,209,14,-24,-24
4,63,58,-34,-26,61,-24,117,214,14,-19,-19
-9,68,78,-29,-43,73,-24,107,219,19,-19,-19
-14,82,97,-34,-56,90,-24,97,234,34,-14,-9
0,97,97,-48,-48,97,-43,87,239,34,-4,0
4,102,97,-53,-46,100,-53,73,239,39,-4,4
9,112,102,-61,-46,107,-73,53,239,39,-4,4
9,117,107,-63,-48,112,-92,24,239,34,-4,9
19,126,107,-73,-43,117,-136,-24,229,19,4,9
19,122,102,-70,-41,112,-180,-58,214,14,-4,9
14,122,107,-68,-46,114,-200,-82,195,0,-4,0
14,97,82,-56,-34,90,-209,-97,175,-9,-19,-14
0,68,68,-34,-34,68,-219,-107,141,-39,-39,-29
-4,58,63,-26,-34,61,-224,-112,122,-63,-53,-34
-4,43,48,-19,-26,46,-224,-117,112,-73,-58,-39
-4,29,34,-12,-19,31,-224,-117,97,-78,-63,-43
-14,29,43,-7,-29,36,-224,-126,92,-82,-63,-48
-14,19,34,-2,-24,26,-214,-126,87,-87,-68,-48
-19,19,39,0,-29,29,-209,-122,82,-92,-73,-58
-19,14,34,2,-26,24,-195,-112,78,-97,-78,-58
-9,19,29,-4,-19,24,-185,-92,58,-112,-92,-73
-9,0,9,4,-9,4,-175,-82,53,-122,-97,-78
-14,-9,4,12,-9,-2,-161,-78,53,-126,-97,-78
-39,-14,24,26,-31,4,-146,-73,53,-126,-97,-82
-48,-19,29,34,-39,4,-136,-68,43,-131,-102,-82
-48,-29,19,39,-34,-4,-136,-63,34,-141,-117,-97
-48,-39,9,43,-29,-14,-122,-58,29,-151,-122,-102
-48,-43,4,46,-26,-19,-122,-53,29,-151,-122,-102
-39,-63,-24,51,-7,-43,-117,-58,29,-151,-117,-92
-43,-73,-29,58,-7,-51,-112,-58,19,-151,-122,-97
-43,-73,-29,58,-7,-51,-107,-58,19,-161,-126,-97
-43,-73,-29,58,-7,-51,-107,-58,14,-165,-126,-102
-58,-78,-19,68,-19,-48,-97,-53,14,-156,-131,-117
-68,-82,-14,75,-26,-48,-97,-53,14,-156,-131,-117
-68,-82,-14,75,-26,-48,-97,-58,14,-161,-136,-122
-63,-78,-14,70,-24,-46,-97,-58,9,-165,-136,-122
-58,-87,-29,73,-14,-58,-92,-48,9,-165,-146,-122
-63,-92,-29,78,-17,-61,-87,-48,14,-165,-146,-117
-58,-97,-39,78,-9,-68,-82,-43,14,-165,-146,-117
-53,-97,-43,75,-4,-70,-82,-43,14,-165,-151,-117
-63,-107,-43,85,-9,-75,-82,-58,4,-156,-151,-117
-68,-107,-39,87,-14,-73,-82,-58,4,-156,-151,-122
-68,-112,-43,90,-12,-78,-82,-58,4,-156,-151,-126
-68,-112,-43,90,-12,-78,-82,-53,4,-156,-151,-126
-58,-92,-34,75,-12,-63,-87,-63,-4,-146,-141,-126
-58,-87,-29,73,-14,-58,-87,-63,-4,-146,-141,-126
-58,-82,-24,70,-17,-53,-92,-63,-9,-141,-141,-131
-58,-82,-24,70,-17,-53,-92,-58,-9,-141,-141,-131
-48,-87,-39,68,-4,-63,-82,-58,4,-122,-141,-117
-58,-87,-29,73,-14,-58,-73,-48,4,-131,-141,-117
-82,-122,-39,102,-21,-80,-73,-48,4,-131,-151,-136
-73,-146,-73,109,0,-109,-63,-34,0,-112,-156,-141
-43,-131,-87,87,21,-109,-34,0,19,-112,-161,-146
-63,-161,-97,112,17,-129,-24,9,24,-112,-161,-146
-78,-190,-112,134,17,-151,-34,0,43,-78,-161,-136
-53,-117,-63,85,4,-90,-53,-14,53,-39,-126,-117
0,-19,-19,9,9,-19,-107,-58,68,14,-82,-73
43,39,-4,-41,24,17,-161,-112,97,82,-4,0
82,43,-39,-63,61,2,-244,-151,102,161,78,63
190,102,-87,-146,139,7,-312,-180,102,229,141,131
336,224,-112,-280,224,56,-390,-229,112,297,234,244
419,302,-117,-361,268,92,-473,-292,141,370,336,341
463,366,-97,-414,280,134,-546,-375,156,429,414,429
541,527,-14,-534,278,256,-619,-444,161,488,492,541
668,683,14,-675,326,348,-717,-492,161,556,595,658
736,795,58,-766,339,427,-814,-556,151,624,707,780
707,902,195,-805,256,549,-878,-639,151,673,795,873
649,985,336,-817,156,661,-883,-668,151,673,824,917
566,985,419,-775,73,702,-839,-658,141,610,775,893
444,971,527,-707,-41,749,-795,-683,122,541,702,839
287,961,673,-624,-192,817,-751,-702,122,468,629,775
161,956,795,-558,-317,875,-678,-692,126,356,522,688
58,912,854,-485,-397,883,-585,-649,126,248,400,570
-73,771,844,-348,-458,807,-473,-570,136,161,292,453
-146,619,766,-236,-456,692,-380,-483,126,78,170,326
-141,541,683,-200,-412,612,-302,-400,117,-9,73,214
-185,458,644,-136,-414,551,-229,-351,151,-29,14,126
-244,361,605,-58,-424,483,-156,-287,175,-39,-24,78
-244,302,546,-29,-395,424,-117,-263,156,-87,-73,29
-214,273,488,-29,-351,380,-117,-283,97,-156,-141,-29
-224,219,444,2,-334,331,-156,-331,43,-190,-175,-63
-253,141,395,56,-324,268,-185,-380,-4,-180,-190,-87
-229,107,336,61,-283,222,-209,-385,-48,-175,-185,-107
-185,78,263,53,-224,170,-219,-380,-78,-175,-195,-122
-185,34,219,75,-202,126,-209,-356,-82,-161,-185,-131
-161,0,161,80,-161,80,-190,-307,-73,-131,-170,-131
-112,-29,82,70,-97,26,-161,-229,-43,-112,-161,-122
-63,-19,43,41,-53,12,-122,-170,-19,-102,-151,-102
-68,-29,39,48,-53,4,-112,-126,-14,-97,-151,-107
-102,-78,24,90,-63,-26,-102,-107,-29,-102,-161,-136
-97,-78,19,87,-58,-29,-92,-97,-43,-117,-170,-151
-73,-53,19,63,-46,-17,-92,-87,-29,-107,-165,-141
-68,-63,4,65,-36,-29,-82,-78,-19,-112,-151,-141
-63,-78,-14,70,-24,-46,-92,-78,-19,-107,-151,-141
-53,-82,-29,68,-12,-56,-97,-78,-24,-107,-151,-141
-48,-87,-39,68,-4,-63,-97,-73,-24,-107,-151,-131
-48,-97,-48,73,0,-73,-82,-63,-24,-112,-161,-131
-48,-102,-53,75,2,-78,-78,-53,-19,-117,-161,-136
-48,-112,-63,80,7,-87,-73,-43,-19,-126,-161,-136
-53,-126,-73,90,9,-100,-63,-43,-19,-131,-161,-141
-53,-126,-73,90,9,-100,-73,-48,-24,-141,-151,-151
-43,-117,-73,80,14,-95,-82,-58,-29,-141,-151,-151
-39,-117,-78,78,19,-97,-87,-58,-39,-151,-151,-141
-34,-117,-82,75,24,-100,-92,-58,-43,-151,-151,-141
-34,-112,-78,73,21,-95,-92,-58,-34,-156,-141,-131
-34,-107,-73,70,19,-90,-87,-53,-34,-165,-141,-136
-34,-102,-68,68,17,-85,-87,-48,-34,-165,-141,-136
-34,-97,-63,65,14,-80,-87,-48,-34,-165,-141,-131
-43,-97,-53,70,4,-75,-87,-39,-43,-175,-141,-141
-43,-102,-58,73,7,-80,-87,-43,-43,-185,-141,-151
-43,-102,-58,73,7,-80,-87,-48,-43,-200,-141,-151
-34,-102,-68,68,17,-85,-92,-48,-39,-214,-136,-146
-29,-107,-78,68,24,-92,-92,-48,-39,-224,-146,-146
-29,-107,-78,68,24,-92,-92,-43,-39,-224,-146,-146
-24,-102,-78,63,26,-90,-92,-43,-39,-224,-146,-146
-19,-102,-82,61,31,-92,-92,-43,-39,-224,-146,-146
-24,-112,-87,68,31,-100,-92,-53,-39,-224,-131,-136
-24,-112,-87,68,31,-100,-92,-53,-34,-219,-126,-136
-29,-112,-82,70,26,-97,-92,-53,-29,-219,-126,-131
-39,-117,-78,78,19,-97,-97,-53,-29,-219,-122,-131
-29,-117,-87,73,29,-102,-107,-53,-39,-229,-126,-136
-14,-107,-92,61,39,-100,-112,-53,-43,-229,-131,-136
-14,-107,-92,61,39,-100,-112,-53,-43,-229,-136,-136
-14,-107,-92,61,39,-100,-112,-53,-43,-229,-141,-131
-24,-87,-63,56,19,-75,-112,-63,-53,-239,-151,-141
-24,-102,-78,63,26,-90,-112,-63,-48,-234,-146,-146
-24,-102,-78,63,26,-90,-112,-63,-48,-234,-146,-151
-24,-102,-78,63,26,-90,-117,-68,-48,-234,-146,-156
-14,-87,-73,51,29,-80,-131,-68,-53,-234,-141,-146
-9,-82,-73,46,31,-78,-131,-68,-53,-234,-136,-141
-9,-82,-73,46,31,-78,-131,-68,-48,-234,-131,-136
-4,-82,-78,43,36,-80,-131,-63,-48,-234,-126,-136
-14,-87,-73,51,29,-80,-126,-53,-48,-224,-117,-126
-14,-87,-73,51,29,-80,-126,-53,-48,-224,-117,-126
-14,-87,-73,51,29,-80,-122,-58,-43,-224,-112,-122
-14,-87,-73,51,29,-80,-117,-58,-43,-224,-112,-122
-4,-92,-87,48,41,-90,-136,-73,-53,-234,-117,-131
0,-82,-82,41,41,-82,-136,-73,-53,-229,-117,-131
9,-92,-102,41,56,-97,-136,-68,-53,-224,-117,-126
14,-92,-107,39,61,-100,-136,-68,-53,-224,-117,-122
14,-97,-112,41,63,-104,-136,-58,-53,-224,-107,-122
19,-97,-117,39,68,-107,-141,-58,-53,-224,-107,-122
14,-97,-112,41,63,-104,-141,-63,-53,-224,-102,-117
14,-87,-102,36,58,-95,-141,-63,-48,-219,-102,-117
24,-73,-97,24,61,-85,-156,-63,-53,-209,-97,-117
29,-68,-97,19,63,-82,-161,-63,-53,-209,-97,-117
34,-58,-92,12,63,-75,-161,-73,-63,-209,-97,-117
34,-53,-87,9,61,-70,-161,-73,-63,-200,-92,-112
34,-63,-97,14,65,-80,-156,-73,-58,-195,-92,-112
43,-58,-102,7,73,-80,-156,-68,-58,-185,-82,-107
48,-53,-102,2,75,-78,-156,-68,-58,-175,-78,-97
53,-53,-107,0,80,-80,-161,-73,-58,-165,-78,-92
53,-63,-117,4,85,-90,-175,-82,-58,-151,-68,-87
58,-58,-117,0,87,-87,-180,-82,-58,-146,-68,-87
63,-58,-122,-2,92,-90,-180,-87,-58,-136,-58,-87
73,-48,-122,-12,97,-85,-185,-87,-58,-136,-53,-87
82,-34,-117,-24,100,-75,-190,-87,-68,-131,-58,-92
87,-34,-122,-26,104,-78,-190,-87,-68,-126,-58,-82
92,-29,-122,-31,107,-75,-195,-92,-68,-122,-58,-78
107,-19,-126,-43,117,-73,-200,-92,-68,-117,-48,-73
107,-19,-126,-43,117,-73,-195,-92,-73,-112,-39,-73
117,-19,-136,-48,126,-78,-200,-92,-73,-102,-34,-68
117,-19,-136,-48,126,-78,-204,-92,-73,-97,-29,-63
117,-9,-126,-53,122,-68,-219,-97,-73,-97,-24,-58
136,-4,-141,-65,139,-73,-229,-107,-73,-87,-29,-58
151,0,-151,-75,151,-75,-229,-102,-73,-82,-24,-53
151,4,-146,-78,148,-70,-234,-102,-73,-78,-14,-48
151,4,-146,-78,148,-70,-239,-102,-73,-68,-14,-43
141,4,-136,-73,139,-65,-248,-97,-63,-63,0,-34
156,9,-146,-82,151,-68,-258,-102,-63,-63,4,-34
156,9,-146,-82,151,-68,-258,-102,-63,-53,9,-29
161,14,-146,-87,153,-65,-258,-102,-58,-53,14,-24
170,14,-156,-92,163,-70,-268,-112,-68,-53,9,-14
175,19,-156,-97,165,-68,-278,-122,-68,-58,14,-14
180,19,-161,-100,170,-70,-278,-122,-68,-58,14,-14
180,14,-165,-97,173,-75,-278,-122,-63,-53,19,-9
190,24,-165,-107,178,-70,-273,-122,-53,-53,24,-9
195,34,-161,-114,178,-63,-278,-122,-53,-48,29,0
200,39,-161,-119,180,-61,-283,-126,-53,-43,34,0
200,39,-161,-119,180,-61,-287,-131,-53,-43,34,4
185,39,-146,-112,165,-53,-292,-131,-63,-43,34,-4
180,39,-141,-109,161,-51,-292,-131,-58,-39,39,0
175,39,-136,-107,156,-48,-292,-136,-53,-39,39,4
170,48,-122,-109,146,-36,-292,-136,-48,-39,39,4
161,63,-97,-112,129,-17,-302,-146,-48,-39,43,4
156,68,-87,-112,122,-9,-297,-141,-39,-34,43,4
151,73,-78,-112,114,-2,-297,-141,-39,-29,48,4
151,78,-73,-114,112,2,-297,-146,-34,-24,48,4
146,68,-78,-107,112,-4,-283,-136,-29,-24,43,-4
146,63,-82,-104,114,-9,-278,-131,-29,-29,43,-9
126,58,-68,-92,97,-4,-273,-131,-24,-29,34,-14
126,58,-68,-92,97,-4,-268,-131,-19,-34,29,-24
112,53,-58,-82,85,-2,-253,-136,-14,-39,24,-29
97,48,-48,-73,73,0,-244,-131,-9,-39,24,-29
87,39,-48,-63,68,-4,-239,-122,-9,-39,19,-29
78,19,-58,-48,68,-19,-234,-117,-9,-48,9,-29
73,34,-39,-53,56,-2,-224,-107,0,-53,4,-34
63,29,-34,-46,48,-2,-219,-102,0,-58,4,-48
63,34,-29,-48,46,2,-209,-102,0,-63,-4,-48
48,39,-9,-43,29,14,-195,-97,0,-68,-4,-58
39,34,-4,-36,21,14,-204,-102,-4,-82,-19,-68
24,19,-4,-21,14,7,-200,-102,-4,-92,-29,-78
14,9,-4,-12,9,2,-200,-97,-9,-97,-39,-82
9,0,-9,-4,9,-4,-190,-97,-14,-97,-39,-82
14,9,-4,-12,9,2,-185,-97,-19,-92,-34,-82
19,9,-9,-14,14,0,-180,-97,-19,-97,-34,-87
4,4,0,-4,2,2,-175,-92,-19,-97,-39,-92
9,9,0,-9,4,4,-175,-87,-19,-102,-43,-97
9,0,-9,-4,9,-4,-170,-87,-19,-117,-48,-102
9,-9,-19,0,14,-14,-165,-92,-24,-117,-53,-107
0,-24,-24,12,12,-24,-165,-92,-24,-122,-58,-112
0,-19,-19,9,9,-19,-161,-92,-24,-126,-58,-112
-9,-24,-14,17,2,-19,-151,-87,-24,-131,-48,-112
-14,-34,-19,24,2,-26,-146,-87,-24,-136,-48,-112
-14,-39,-24,26,4,-31,-141,-82,-24,-141,-48,-112
-14,-39,-24,26,4,-31,-141,-82,-34,-141,-58,-112
-9,-24,-14,17,2,-19,-146,-97,-39,-151,-73,-136
-14,-24,-9,19,-2,-17,-151,-97,-43,-156,-78,-136
-14,-29,-14,21,0,-21,-156,-97,-48,-156,-82,-136
-14,-24,-9,19,-2,-17,-161,-97,-48,-156,-92,-136
-24,-14,9,19,-17,-2,-170,-97,-58,-161,-102,-136
-29,-19,9,24,-19,-4,-165,-97,-58,-161,-102,-141
-29,-19,9,24,-19,-4,-161,-97,-58,-165,-102,-141
-29,-19,9,24,-19,-4,-161,-97,-58,-170,-102,-146
-19,-24,-4,21,-7,-14,-161,-87,-48,-165,-87,-136
-24,-29,-4,26,-9,-17,-156,-87,-53,-161,-82,-131
-24,-34,-9,29,-7,-21,-151,-87,-53,-156,-78,-131
-19,-39,-19,29,0,-29,-146,-87,-53,-151,-73,-126
-29,-34,-4,31,-12,-19,-151,-97,-63,-156,-78,-131
-29,-34,-4,31,-12,-19,-156,-97,-63,-156,-82,-136
-29,-39,-9,34,-9,-24,-156,-97,-63,-156,-87,-141
-29,-43,-14,36,-7,-29,-161,-97,-63,-156,-92,-146
-19,-39,-19,29,0,-29,-151,-97,-53,-141,-87,-131
-19,-34,-14,26,-2,-24,-146,-97,-53,-141,-78,-131
-19,-29,-9,24,-4,-19,-146,-97,-53,-141,-73,-126
-19,-24,-4,21,-7,-14,-151,-97,-53,-141,-73,-126
-34,-34,0,34,-17,-17,-141,-97,-63,-141,-87,-131
-34,-39,-4,36,-14,-21,-141,-97,-63,-136,-87,-131
-34,-43,-9,39,-12,-26,-141,-97,-63,-136,-87,-136
-39,-53,-14,46,-12,-34,-141,-97,-63,-136,-87,-141
-29,-48,-19,39,-4,-34,-151,-92,-68,-146,-87,-131
-29,-43,-14,36,-7,-29,-146,-92,-63,-146,-87,-131
-29,-43,-14,36,-7,-29,-146,-97,-63,-141,-87,-131
-29,-39,-9,34,-9,-24,-151,-97,-63,-136,-87,-131
-19,-29,-9,24,-4,-19,-161,-97,-53,-131,-82,-131
-14,-19,-4,17,-4,-12,-161,-97,-53,-122,-78,-131
-9,-14,-4,12,-2,-9,-161,-97,-53,-112,-73,-131
-9,-14,-4,12,-2,-9,-161,-97,-58,-107,-68,-131
-19,-29,-9,24,-4,-19,-151,-87,-68,-117,-73,-141
-29,-43,-14,36,-7,-29,-151,-87,-68,-112,-78,-141
-39,-58,-19,48,-9,-39,-156,-87,-68,-112,-87,-141
-48,-73,-24,61,-12,-48,-156,-87,-68,-107,-92,-146
-39,-58,-19,48,-9,-39,-146,-97,-68,-102,-87,-146
-39,-53,-14,46,-12,-34,-146,-97,-68,-92,-78,-141
-43,-58,-14,51,-14,-36,-136,-97,-68,-87,-73,-141
-43,-53,-9,48,-17,-31,-136,-97,-63,-78,-68,-141
-43,-53,-9,48,-17,-31,-146,-97,-63,-87,-78,-131
-43,-43,0,43,-21,-21,-146,-97,-68,-87,-78,-131
-34,-43,-9,39,-12,-26,-146,-97,-68,-87,-78,-131
-43,-43,0,43,-21,-21,-146,-97,-68,-82,-78,-131
-43,-43,0,43,-21,-21,-136,-82,-68,-87,-87,-141
-43,-43,0,43,-21,-21,-136,-82,-68,-102,-87,-141
-39,-39,0,39,-19,-19,-141,-87,-68,-107,-87,-141
-39,-39,0,39,-19,-19,-141,-87,-68,-112,-87,-141
-39,-58,-19,48,-9,-39,-136,-87,-68,-102,-82,-131
-39,-63,-24,51,-7,-43,-136,-87,-68,-97,-78,-131
-39,-48,-9,43,-14,-29,-141,-87,-68,-92,-73,-136
-39,-63,-24,51,-7,-43,-141,-87,-68,-87,-68,-136
-39,-53,-14,46,-12,-34,-146,-97,-78,-97,-73,-141
-39,-48,-9,43,-14,-29,-146,-97,-78,-97,-73,-141
-39,-39,0,39,-19,-19,-146,-97,-78,-102,-78,-141
-39,-34,4,36,-21,-14,-146,-92,-78,-102,-78,-141
-29,-24,4,26,-17,-9,-141,-82,-68,-92,-73,-131
-29,-24,4,26,-17,-9,-141,-82,-68,-87,-68,-131
-29,-24,4,26,-17,-9,-141,-82,-68,-87,-58,-131
-29,-19,9,24,-19,-4,-146,-87,-68,-87,-53,-131
-34,-29,4,31,-19,-12,-146,-87,-82,-97,-58,-146
-39,-43,-4,41,-17,-24,-146,-87,-82,-102,-63,-146
-43,-68,-24,56,-9,-46,-146,-82,-78,-107,-68,-146
-48,-78,-29,63,-9,-53,-146,-82,-78,-117,-73,-146
-43,-63,-19,53,-12,-41,-151,-82,-78,-112,-63,-136
-39,-53,-14,46,-12,-34,-151,-87,-78,-112,-63,-136
-34,-39,-4,36,-14,-21,-151,-87,-78,-112,-63,-136
-24,-29,-4,26,-9,-17,-151,-87,-78,-112,-68,-141
-34,-34,0,34,-17,-17,-151,-97,-87,-117,-78,-146
-34,-39,-4,36,-14,-21,-156,-97,-87,-117,-73,-146
-34,-43,-9,39,-12,-26,-156,-97,-87,-122,-73,-151
-34,-53,-19,43,-7,-36,-156,-92,-87,-131,-73,-156
-39,-34,4,36,-21,-14,-146,-92,-87,-122,-82,-156
-48,-29,19,39,-34,-4,-156,-107,-87,-126,-78,-156
-43,-29,14,36,-29,-7,-156,-97,-78,-126,-68,-151
-39,-29,9,34,-24,-9,-156,-97,-78,-126,-68,-146
-34,-29,4,31,-19,-12,-156,-97,-78,-126,-68,-141
-29,-29,0,29,-14,-14,-156,-97,-78,-126,-68,-136
-29,-43,-14,36,-7,-29,-151,-87,-78,-126,-78,-146
-29,-53,-24,41,-2,-39,-151,-87,-78,-126,-78,-146
-29,-58,-29,43,0,-43,-151,-87,-78,-131,-78,-146
-29,-63,-34,46,2,-48,-151,-87,-78,-131,-78,-146
-34,-63,-29,48,-2,-46,-161,-97,-87,-131,-87,-156
-39,-58,-19,48,-9,-39,-161,-97,-87,-136,-87,-161
-43,-53,-9,48,-17,-31,-161,-97,-87,-136,-87,-161
-48,-48,0,48,-24,-24,-161,-97,-87,-141,-82,-161
-39,-48,-9,43,-14,-29,-151,-97,-92,-136,-78,-156
-39,-48,-9,43,-14,-29,-151,-97,-92,-131,-73,-156
-34,-48,-14,41,-9,-31,-151,-97,-92,-126,-78,-161
-34,-48,-14,41,-9,-31,-151,-97,-97,-122,-73,-161
-34,-58,-24,46,-4,-41,-151,-97,-87,-126,-82,-161
-34,-63,-29,48,-2,-46,-151,-97,-87,-131,-82,-161
-39,-63,-24,51,-7,-43,-151,-97,-87,-136,-82,-165
-39,-68,-29,53,-4,-48,-151,-107,-87,-141,-92,-175
-29,-73,-43,51,7,-58,-161,-107,-87,-136,-82,-165
-29,-73,-43,51,7,-58,-161,-102,-87,-122,-78,-161
-29,-78,-48,53,9,-63,-161,-102,-87,-117,-73,-161
-29,-78,-48,53,9,-63,-161,-102,-87,-112,-73,-156
-39,-63,-24,51,-7,-43,-151,-112,-92,-112,-82,-165
-39,-58,-19,48,-9,-39,-151,-112,-92,-112,-82,-165
-39,-43,-4,41,-17,-24,-156,-112,-92,-112,-82,-165
-39,-29,9,34,-24,-9,-156,-112,-92,-107,-82,-165
-39,-34,4,36,-21,-14,-151,-102,-87,-107,-73,-161
-39,-43,-4,41,-17,-24,-151,-97,-78,-97,-63,-156
-39,-43,-4,41,-17,-24,-141,-87,-73,-92,-63,-156
-34,-39,-4,36,-14,-21,-136,-78,-68,-87,-58,-151
-34,-24,9,29,-21,-7,-136,-73,-63,-78,-53,-141
-34,-9,24,21,-29,7,-136,-63,-53,-73,-53,-136
-24,4,29,9,-26,17,-131,-53,-39,-63,-53,-131
-24,19,43,2,-34,31,-122,-39,-24,-53,-53,-126
-24,24,48,0,-36,36,-112,-19,-19,-43,-48,-126
-19,29,48,-4,-34,39,-92,0,-14,-43,-43,-131
0,34,34,-17,-17,34,-78,19,-9,-43,-43,-136
4,43,39,-24,-17,41,-82,29,-9,-43,-39,-136
-14,43,58,-14,-36,51,-68,29,9,-29,-29,-122
-14,53,68,-19,-41,61,-63,29,29,-14,-24,-107
-9,48,58,-19,-34,53,-63,34,48,-4,-4,-92
-4,43,48,-19,-26,46,-63,34,53,0,-4,-82
-4,63,68,-29,-36,65,-87,9,43,0,4,-87
-9,68,78,-29,-43,73,-112,-14,43,-4,4,-87
-14,68,82,-26,-48,75,-151,-63,34,-9,4,-92
-19,63,82,-21,-51,73,-200,-97,19,-14,-4,-97
-9,68,78,-29,-43,73,-219,-131,9,-29,-4,-102
-4,48,53,-21,-29,51,-229,-146,-9,-39,-19,-112
-4,39,43,-17,-24,41,-229,-156,-34,-58,-29,-112
-4,39,43,-17,-24,41,-234,-161,-53,-82,-43,-112
-14,34,48,-9,-31,41,-239,-170,-68,-97,-58,-122
-14,29,43,-7,-29,36,-244,-175,-87,-107,-63,-131
-14,29,43,-7,-29,36,-258,-180,-97,-117,-63,-141
-14,19,34,-2,-24,26,-253,-185,-107,-126,-68,-146
-29,0,29,14,-29,14,-244,-175,-102,-131,-63,-151
-29,-14,14,21,-21,0,-224,-161,-107,-136,-68,-146
-29,-24,4,26,-17,-9,-209,-146,-117,-141,-73,-146
-29,-48,-19,39,-4,-34,-195,-131,-122,-151,-78,-146
-29,-48,-19,39,-4,-34,-190,-126,-131,-156,-87,-156
-48,-53,-4,51,-21,-29,-175,-122,-131,-156,-87,-161
-43,-58,-14,51,-14,-36,-165,-117,-131,-170,-92,-170
-39,-68,-29,53,-4,-48,-165,-112,-141,-180,-107,-185
-48,-78,-29,63,-9,-53,-141,-97,-136,-190,-112,-190
-48,-82,-34,65,-7,-58,-141,-92,-136,-190,-112,-190
-48,-92,-43,70,-2,-68,-126,-87,-136,-190,-117,-190
-53,-102,-48,78,-2,-75,-122,-87,-146,-190,-122,-195
-53,-107,-53,80,0,-80,-126,-97,-146,-209,-126,-195
-53,-112,-58,82,2,-85,-126,-97,-151,-214,-126,-200
-58,-122,-63,90,2,-92,-126,-92,-151,-214,-131,-204
-68,-131,-63,100,-2,-97,-126,-92,-151,-214,-131,-204
-68,-131,-63,100,-2,-97,-117,-87,-151,-214,-136,-200
-63,-126,-63,95,0,-95,-117,-87,-156,-214,-136,-200
-63,-126,-63,95,0,-95,-112,-87,-156,-209,-136,-200
-73,-131,-58,102,-7,-95,-107,-87,-151,-204,-136,-195
-63,-122,-58,92,-2,-90,-112,-92,-151,-195,-126,-195
-63,-117,-53,90,-4,-85,-112,-92,-151,-195,-131,-195
-63,-112,-48,87,-7,-80,-112,-97,-161,-195,-131,-195
-68,-107,-39,87,-14,-73,-112,-97,-161,-195,-131,-200
-73,-122,-48,97,-12,-85,-112,-107,-170,-204,-136,-214
-78,-122,-43,100,-17,-82,-112,-102,-170,-204,-141,-214
-82,-117,-34,100,-24,-75,-107,-102,-170,-204,-146,-214
-87,-117,-29,102,-29,-73,-107,-102,-170,-204,-151,-214
-78,-131,-53,104,-12,-92,-107,-97,-170,-190,-141,-209
-78,-141,-63,109,-7,-102,-102,-87,-165,-190,-141,-209
-78,-151,-73,114,-2,-112,-87,-82,-156,-190,-141,-204
-78,-156,-78,117,0,-117,-82,-78,-151,-190,-141,-204
-63,-151,-87,107,12,-119,-92,-87,-170,-190,-161,-224
-63,-126,-63,95,0,-95,-82,-73,-156,-190,-156,-219
-53,-131,-78,92,12,-104,-73,-48,-146,-190,-161,-224
-73,-190,-117,131,21,-153,-73,-39,-141,-170,-170,-244
-78,-180,-102,129,12,-141,-63,-29,-122,-136,-151,-234
-43,-107,-63,75,9,-85,-73,-43,-102,-87,-107,-185
-19,-68,-48,43,14,-58,-107,-68,-78,-43,-63,-151
-4,-48,-43,26,19,-46,-161,-112,-68,4,-14,-107
43,4,-39,-24,41,-17,-224,-161,-53,63,68,-24
131,92,-39,-112,85,26,-292,-200,-34,141,161,73
248,165,-82,-207,165,41,-380,-248,-14,229,253,175
341,214,-126,-278,234,43,-463,-302,4,312,366,283
385,317,-68,-351,226,124,-527,-375,19,380,473,390
434,488,53,-461,190,270,-619,-473,14,429,541,492
512,614,102,-563,204,358,-707,-531,14,507,644,600
590,736,146,-663,222,441,-785,-566,24,595,785,751
619,902,283,-761,168,592,-849,-639,34,634,883,883
590,1044,453,-817,68,749,-883,-707,43,644,922,956
507,1054,546,-780,-19,800,-868,-717,24,600,902,951
385,990,605,-688,-109,797,-834,-722,-4,522,819,878
258,990,732,-624,-236,861,-790,-741,-24,429,727,795
151,985,834,-568,-341,910,-717,-732,-39,326,629,707
19,893,873,-456,-427,883,-624,-697,-39,209,488,570
-92,790,883,-348,-488,836,-531,-629,-39,102,351,434
-136,717,854,-290,-495,785,-429,-551,-39,-9,219,307
-161,590,751,-214,-456,671,-351,-478,-48,-107,92,185
-195,468,663,-136,-429,566,-278,-429,-43,-165,-4,68
-224,390,614,-82,-419,502,-204,-356,-19,-185,-63,-9
-244,331,575,-43,-409,453,-146,-302,-19,-195,-92,-48
-244,244,488,0,-366,366,-126,-292,-58,-224,-122,-78
-263,161,424,51,-344,292,-146,-331,-112,-239,-156,-131
-253,151,405,51,-329,278,-204,-390,-161,-248,-170,-156
-229,156,385,36,-307,270,-239,-424,-195,-263,-185,-165
-224,97,322,63,-273,209,-239,-419,-204,-253,-185,-180
-224,24,248,100,-236,136,-239,-395,-219,-248,-185,-209
-190,9,200,90,-195,104,-229,-356,-219,-239,-190,-219
-141,19,161,61,-151,90,-209,-297,-219,-200,-180,-200
-102,-29,73,65,-87,21,-170,-229,-195,-161,-151,-180
-107,-87,19,97,-63,-34,-141,-175,-180,-136,-141,-185
-122,-78,43,100,-82,-17,-131,-156,-185,-151,-151,-195
-78,-48,29,63,-53,-9,-112,-136,-170,-156,-151,-190
-53,-82,-29,68,-12,-56,-102,-117,-146,-136,-146,-190
-63,-78,-14,70,-24,-46,-102,-126,-156,-131,-151,-200
-63,-87,-24,75,-19,-56,-112,-126,-156,-126,-151,-200
-58,-87,-29,73,-14,-58,-117,-126,-161,-126,-151,-200
-58,-87,-29,73,-14,-58,-117,-122,-161,-126,-151,-190
-58,-92,-34,75,-12,-63,-112,-112,-161,-117,-146,-180
-58,-92,-34,75,-12,-63,-107,-102,-156,-117,-141,-185
-58,-97,-39,78,-9,-68,-102,-92,-156,-122,-136,-185
-63,-107,-43,85,-9,-75,-92,-92,-156,-122,-131,-190
-73,-112,-39,92,-17,-75,-92,-87,-146,-131,-141,-200
-63,-107,-43,85,-9,-75,-102,-97,-146,-131,-141,-200
-58,-112,-53,85,-2,-82,-107,-97,-151,-141,-141,-190
-53,-117,-63,85,4,-90,-112,-97,-151,-141,-141,-190
-63,-117,-53,90,-4,-85,-112,-97,-151,-136,-151,-190
-63,-117,-53,90,-4,-85,-107,-92,-151,-146,-151,-195
-63,-117,-53,90,-4,-85,-107,-87,-151,-146,-151,-195
-63,-117,-53,90,-4,-85,-107,-87,-151,-146,-151,-190
-63,-126,-63,95,0,-95,-97,-78,-141,-146,-141,-180
-63,-131,-68,97,2,-100,-97,-82,-141,-146,-141,-190
-63,-131,-68,97,2,-100,-97,-87,-141,-151,-141,-190
-53,-131,-78,92,12,-104,-102,-87,-136,-156,-136,-185
-48,-117,-68,82,9,-92,-102,-87,-146,-156,-136,-175
-48,-117,-68,82,9,-92,-102,-82,-146,-156,-136,-175
-43,-112,-68,78,12,-90,-102,-82,-146,-156,-136,-175
-39,-112,-73,75,17,-92,-102,-82,-146,-156,-136,-175
-48,-107,-58,78,4,-82,-112,-92,-146,-161,-141,-185
-43,-102,-58,73,7,-80,-112,-92,-141,-161,-136,-185
-43,-97,-53,70,4,-75,-112,-92,-136,-165,-136,-180
-48,-97,-48,73,0,-73,-117,-92,-136,-170,-131,-180
-58,-102,-43,80,-7,-73,-107,-82,-126,-165,-122,-180
-43,-97,-53,70,4,-75,-112,-82,-131,-161,-122,-175
-43,-102,-58,73,7,-80,-112,-82,-131,-156,-122,-170
-43,-107,-63,75,9,-85,-112,-82,-131,-151,-122,-161
-43,-107,-63,75,9,-85,-102,-82,-122,-151,-122,-165
-43,-122,-78,82,17,-100,-102,-82,-117,-146,-117,-165
-43,-122,-78,82,17,-100,-102,-82,-117,-146,-117,-165
-43,-122,-78,82,17,-100,-107,-87,-117,-146,-117,-165
-34,-117,-82,75,24,-100,-112,-78,-131,-146,-117,-165
-29,-112,-82,70,26,-97,-112,-78,-131,-146,-117,-161
-29,-112,-82,70,26,-97,-112,-78,-126,-146,-117,-156
-24,-112,-87,68,31,-100,-112,-73,-126,-146,-117,-156
-34,-102,-68,68,17,-85,-122,-82,-117,-136,-107,-146
-34,-97,-63,65,14,-80,-126,-82,-117,-136,-107,-146
-34,-92,-58,63,12,-75,-126,-87,-112,-136,-102,-141
-34,-87,-53,61,9,-70,-126,-87,-112,-136,-102,-141
-29,-92,-63,61,17,-78,-136,-82,-122,-146,-112,-141
-29,-82,-53,56,12,-68,-136,-82,-122,-141,-107,-141
-24,-92,-68,58,21,-80,-136,-78,-122,-136,-102,-136
-24,-92,-68,58,21,-80,-136,-78,-122,-136,-97,-131
-19,-97,-78,58,29,-87,-126,-78,-122,-126,-97,-131
-9,-97,-87,53,39,-92,-131,-78,-122,-126,-97,-131
-9,-97,-87,53,39,-92,-131,-82,-122,-126,-92,-126
-4,-87,-82,46,39,-85,-131,-82,-117,-122,-92,-126
4,-78,-82,36,43,-80,-136,-82,-112,-112,-78,-117
9,-78,-87,34,48,-82,-141,-82,-112,-112,-78,-117
14,-73,-87,29,51,-80,-141,-92,-122,-112,-78,-117
14,-73,-87,29,51,-80,-141,-92,-122,-102,-73,-112
14,-82,-97,34,56,-90,-146,-82,-126,-92,-73,-112
24,-78,-102,26,63,-90,-146,-78,-126,-87,-63,-107
29,-73,-102,21,65,-87,-146,-78,-126,-82,-58,-97
34,-73,-107,19,70,-90,-151,-82,-126,-78,-58,-92
43,-63,-107,9,75,-85,-165,-97,-136,-73,-68,-97
48,-48,-97,0,73,-73,-170,-102,-136,-68,-68,-97
53,-39,-92,-7,73,-65,-170,-112,-136,-58,-58,-97
63,-19,-82,-21,73,-51,-175,-117,-136,-58,-53,-97
48,-24,-73,-12,61,-48,-170,-112,-126,-43,-48,-82
48,-34,-82,-7,65,-58,-170,-107,-126,-39,-48,-73
48,-39,-87,-4,68,-63,-175,-107,-126,-34,-48,-68
58,-39,-97,-9,78,-68,-180,-102,-126,-29,-39,-63
78,-48,-126,-14,102,-87,-185,-102,-122,-24,-29,-63
87,-48,-136,-19,112,-92,-190,-102,-122,-14,-24,-58
87,-48,-136,-19,112,-92,-195,-102,-122,-9,-19,-53
87,-39,-126,-24,107,-82,-209,-107,-122,-9,-14,-48
97,-29,-126,-34,112,-78,-209,-107,-131,-4,-19,-48
112,-19,-131,-46,122,-75,-209,-102,-131,-4,-14,-43
112,-9,-122,-51,117,-65,-214,-102,-131,-4,-4,-39
112,-4,-117,-53,114,-61,-219,-102,-131,0,-4,-34
102,-4,-107,-48,104,-56,-229,-117,-131,4,0,-24
117,0,-117,-58,117,-58,-239,-122,-131,4,4,-24
117,0,-117,-58,117,-58,-239,-122,-131,14,9,-19
122,4,-117,-63,119,-56,-239,-122,-126,14,14,-14
131,9,-122,-70,126,-56,-248,-122,-126,19,29,0
136,19,-117,-78,126,-48,-258,-131,-126,19,34,4
141,24,-117,-82,129,-46,-258,-131,-126,24,34,9
141,24,-117,-82,129,-46,-258,-131,-122,34,39,19
141,29,-112,-85,126,-41,-263,-131,-122,24,34,9
146,43,-102,-95,124,-29,-268,-131,-122,29,39,19
151,53,-97,-102,124,-21,-273,-136,-122,34,43,19
151,58,-92,-104,122,-17,-278,-141,-122,34,43,24
151,58,-92,-104,122,-17,-273,-141,-122,43,53,24
151,58,-92,-104,122,-17,-273,-141,-117,48,58,29
151,58,-92,-104,122,-17,-273,-146,-112,48,58,34
151,68,-82,-109,117,-7,-273,-146,-107,48,58,34
146,73,-73,-109,109,0,-273,-146,-107,43,63,34
136,68,-68,-102,102,0,-268,-141,-97,43,63,34
126,63,-63,-95,95,0,-268,-141,-97,43,68,34
122,58,-63,-90,92,-2,-268,-146,-92,43,68,34
117,73,-43,-95,80,14,-273,-146,-87,43,63,43
117,73,-43,-95,80,14,-268,-141,-87,39,63,39
97,73,-24,-85,61,24,-263,-141,-82,39,53,34
97,78,-19,-87,58,29,-258,-141,-78,34,48,24
82,73,-9,-78,46,31,-248,-136,-73,39,43,9
68,68,0,-68,34,34,-234,-131,-68,39,43,9
58,58,0,-58,29,29,-224,-122,-68,39,39,9
48,39,-9,-43,29,14,-214,-117,-68,29,29,9
53,43,-9,-48,31,17,-209,-126,-78,24,14,-4
43,39,-4,-41,24,17,-209,-122,-78,19,14,-19
43,43,0,-43,21,21,-204,-122,-78,14,4,-19
29,48,19,-39,4,34,-195,-117,-78,9,4,-29
29,34,4,-31,12,19,-190,-102,-68,14,9,-19
14,19,4,-17,4,12,-180,-102,-63,4,0,-29
4,9,4,-7,0,7,-175,-97,-63,0,-9,-34
0,0,0,0,0,0,-161,-97,-63,0,-9,-34
0,0,0,0,0,0,-165,-97,-78,-4,-14,-43
0,0,0,0,0,0,-161,-97,-78,-9,-14,-48
-19,-4,14,12,-17,4,-156,-92,-78,-9,-19,-53
-19,0,19,9,-19,9,-156,-87,-78,-14,-24,-58
-29,-9,19,19,-24,4,-151,-78,-68,-9,-19,-53
-29,-19,9,24,-19,-4,-146,-82,-73,-9,-24,-58
-39,-34,4,36,-21,-14,-146,-82,-73,-14,-29,-63
-39,-29,9,34,-24,-9,-141,-82,-73,-19,-29,-63
-29,-19,9,24,-19,-4,-151,-82,-78,-24,-34,-68
-34,-14,19,24,-26,2,-146,-87,-82,-29,-39,-73
-34,-4,29,19,-31,12,-141,-87,-87,-34,-43,-78
-34,9,43,12,-39,26,-141,-92,-102,-34,-58,-82
-39,4,43,17,-41,24,-131,-87,-97,-29,-48,-92
-43,-4,39,24,-41,17,-131,-87,-92,-29,-48,-87
-43,-19,24,31,-34,2,-131,-87,-87,-24,-48,-82
-43,-24,19,34,-31,-2,-131,-87,-78,-19,-53,-78
-29,-19,9,24,-19,-4,-141,-97,-87,-19,-53,-73
-29,-19,9,24,-19,-4,-136,-97,-87,-14,-53,-73
-24,-14,9,19,-17,-2,-131,-97,-87,-14,-53,-68
-19,-9,9,14,-14,0,-131,-97,-87,-14,-53,-68
-29,-14,14,21,-21,0,-136,-87,-87,-4,-43,-73
-43,-19,24,31,-34,2,-136,-87,-92,-4,-43,-73
-53,-24,29,39,-41,2,-136,-87,-92,-4,-43,-78
-58,-29,29,43,-43,0,-136,-87,-92,-4,-43,-78
-48,-29,19,39,-34,-4,-126,-87,-92,0,-53,-78
-48,-34,14,41,-31,-9,-126,-87,-92,0,-53,-78
-48,-43,4,46,-26,-19,-122,-87,-92,0,-53,-78
-48,-53,-4,51,-21,-29,-122,-87,-92,0,-53,-78
-48,-43,4,46,-26,-19,-131,-87,-92,4,-63,-78
-48,-34,14,41,-31,-9,-126,-87,-92,4,-58,-82
-48,-24,24,36,-36,0,-126,-87,-92,4,-58,-82
-48,-14,34,31,-41,9,-131,-87,-92,4,-63,-87
-53,-24,29,39,-41,2,-122,-87,-82,9,-53,-78
-53,-29,24,41,-39,-2,-122,-87,-82,19,-48,-73
-53,-34,19,43,-36,-7,-122,-87,-82,24,-43,-73
-58,-43,14,51,-36,-14,-122,-87,-82,29,-39,-73
-68,-29,39,48,-53,4,-131,-92,-87,19,-48,-82
-68,-24,43,46,-56,9,-126,-92,-82,19,-48,-82
-68,-24,43,46,-56,9,-126,-97,-82,24,-48,-82
-68,-19,48,43,-58,14,-131,-97,-82,29,-48,-82
-58,-19,39,39,-48,9,-122,-97,-82,29,-48,-82
-53,-19,34,36,-43,7,-122,-97,-82,34,-48,-82
-48,-24,24,36,-36,0,-122,-97,-82,39,-48,-82
-48,-34,14,41,-31,-9,-122,-97,-87,39,-48,-82
-53,-43,9,48,-31,-17,-112,-97,-78,39,-39,-73
-58,-43,14,51,-36,-14,-112,-97,-78,43,-39,-73
-63,-43,19,53,-41,-12,-117,-97,-78,43,-43,-73
-68,-43,24,56,-46,-9,-117,-97,-78,48,-43,-78
-68,-34,34,51,-51,0,-126,-97,-87,39,-43,-78
-68,-34,34,51,-51,0,-126,-97,-87,43,-39,-73
-73,-43,29,58,-51,-7,-117,-97,-87,43,-39,-73
-73,-43,29,58,-51,-7,-117,-97,-82,48,-39,-73
-73,-34,39,53,-56,2,-117,-97,-73,48,-39,-73
-73,-24,48,48,-61,12,-117,-97,-78,48,-39,-73
-63,-24,39,43,-51,7,-117,-97,-78,48,-39,-73
-73,-24,48,48,-61,12,-117,-97,-78,53,-39,-73
-73,-34,39,53,-56,2,-117,-102,-87,43,-48,-82
-73,-34,39,53,-56,2,-117,-102,-87,34,-48,-82
-68,-29,39,48,-53,4,-122,-107,-87,34,-48,-82
-68,-29,39,48,-53,4,-122,-107,-87,34,-48,-82
-68,-43,24,56,-46,-9,-117,-97,-87,29,-48,-73
-68,-43,24,56,-46,-9,-117,-97,-87,29,-48,-73
-68,-24,43,46,-56,9,-122,-97,-87,29,-48,-78
-68,-34,34,51,-51,0,-122,-97,-87,29,-48,-78
-68,-39,29,53,-48,-4,-117,-97,-87,39,-34,-73
-68,-39,29,53,-48,-4,-117,-97,-87,39,-34,-73
-68,-34,34,51,-51,0,-117,-97,-87,34,-39,-73
-68,-34,34,51,-51,0,-117,-92,-87,34,-39,-73
-58,-29,29,43,-43,0,-122,-102,-97,24,-48,-73
-58,-24,34,41,-46,4,-122,-102,-97,29,-48,-73
-58,-19,39,39,-48,9,-122,-102,-97,29,-43,-73
-58,-9,48,34,-53,19,-126,-107,-97,29,-43,-73
-63,-19,43,41,-53,12,-122,-97,-92,34,-34,-68
-68,-34,34,51,-51,0,-117,-97,-92,34,-34,-68
-73,-58,14,65,-43,-21,-112,-92,-87,34,-34,-68
-78,-68,9,73,-43,-29,-107,-92,-87,29,-34,-68
-68,-48,19,58,-43,-14,-107,-92,-97,19,-43,-78
-68,-43,24,56,-46,-9,-112,-97,-97,14,-43,-78
-68,-34,34,51,-51,0,-117,-97,-97,9,-43,-78
-63,-29,34,46,-48,2,-122,-97,-97,4,-48,-82
-53,-39,14,46,-34,-12,-112,-87,-97,14,-39,-73
-53,-39,14,46,-34,-12,-117,-87,-97,19,-34,-68
-53,-39,14,46,-34,-12,-117,-87,-97,19,-34,-68
-53,-43,9,48,-31,-17,-117,-82,-97,14,-34,-68
-39,-53,-14,46,-12,-34,-117,-92,-97,24,-24,-68
-48,-53,-4,51,-21,-29,-117,-92,-97,24,-34,-68
-58,-48,9,53,-34,-19,-117,-87,-97,29,-29,-58
-68,-39,29,53,-48,-4,-117,-97,-107,24,-34,-63
-68,-39,29,53,-48,-4,-117,-97,-107,19,-39,-68
-68,-39,29,53,-48,-4,-117,-97,-107,14,-43,-73
-68,-39,29,53,-48,-4,-117,-97,-107,9,-48,-78
-58,-39,19,48,-39,-9,-122,-97,-97,19,-39,-68
-58,-43,14,51,-36,-14,-122,-97,-97,19,-39,-68
-58,-43,14,51,-36,-14,-122,-97,-97,14,-39,-68
-58,-43,14,51,-36,-14,-122,-97,-97,14,-39,-68
-58,-58,0,58,-29,-29,-112,-97,-107,9,-48,-78
-58,-58,0,58,-29,-29,-112,-97,-107,9,-48,-82
-58,-58,0,58,-29,-29,-112,-97,-107,14,-48,-82
-58,-58,0,58,-29,-29,-112,-97,-107,14,-43,-82
-68,-48,19,58,-43,-14,-112,-107,-112,4,-43,-78
-68,-48,19,58,-43,-14,-112,-107,-112,4,-43,-78
-63,-48,14,56,-39,-17,-112,-107,-112,4,-53,-82
-63,-48,14,56,-39,-17,-112,-107,-117,4,-53,-82
-53,-53,0,53,-26,-26,-112,-97,-107,14,-43,-73
-53,-53,0,53,-26,-26,-112,-97,-107,14,-43,-73
-58,-48,9,53,-34,-19,-112,-97,-107,14,-43,-78
-58,-48,9,53,-34,-19,-112,-107,-107,14,-53,-87
-58,-48,9,53,-34,-19,-117,-107,-112,14,-63,-87
-58,-43,14,51,-36,-14,-122,-102,-117,24,-58,-82
-58,-43,14,51,-36,-14,-126,-102,-122,24,-53,-82
-58,-39,19,48,-39,-9,-131,-102,-126,24,-53,-78
-58,-39,19,48,-39,-9,-126,-102,-112,34,-48,-68
-58,-39,19,48,-39,-9,-122,-102,-112,34,-43,-68
-58,-29,29,43,-43,0,-122,-102,-112,34,-39,-68
-58,-19,39,39,-48,9,-117,-102,-112,39,-34,-68
-58,-29,29,43,-43,0,-122,-102,-107,48,-43,-63
-58,-34,24,46,-41,-4,-122,-97,-97,58,-34,-58
-58,-29,29,43,-43,0,-112,-87,-92,63,-34,-58
-53,-19,34,36,-43,7,-107,-78,-87,68,-29,-53
-53,-9,43,31,-48,17,-97,-82,-82,78,-19,-43
-53,0,53,26,-53,26,-97,-73,-73,82,-14,-39
-43,9,53,17,-48,31,-92,-63,-58,92,-9,-34
-43,19,63,12,-53,41,-82,-48,-43,102,-4,-29
-48,19,68,14,-58,43,-68,-24,-34,112,0,-24
-48,19,68,14,-58,43,-43,0,-24,112,4,-24
-34,19,53,7,-43,36,-24,24,-14,112,4,-24
-34,24,58,4,-46,41,-24,39,-9,112,9,-19
-34,39,73,-2,-53,56,-24,39,4,126,9,-19
-34,63,97,-14,-65,80,-24,29,19,141,14,-9
-29,73,102,-21,-65,87,-29,24,34,151,34,0
-24,82,107,-29,-65,95,-34,14,34,156,34,4
-29,82,112,-26,-70,97,-53,9,43,165,43,14
-29,87,117,-29,-73,102,-73,-14,43,161,43,19
-29,87,117,-29,-73,102,-107,-63,34,156,43,19
-29,82,112,-26,-70,97,-151,-97,19,151,34,19
-43,87,131,-21,-87,109,-180,-126,-9,146,34,9
-43,68,112,-12,-78,90,-190,-146,-29,136,19,-4
-48,58,107,-4,-78,82,-190,-161,-53,117,9,-9
-53,58,112,-2,-82,85,-195,-170,-73,92,-4,-14
-53,43,97,4,-75,70,-195,-175,-82,73,-9,-29
-53,29,82,12,-68,56,-195,-175,-97,68,-14,-34
-53,19,73,17,-63,46,-204,-175,-102,63,-14,-39
-53,0,53,26,-53,26,-195,-175,-107,58,-19,-39
-48,-4,43,26,-46,19,-190,-161,-112,63,-24,-48
-48,-14,34,31,-41,9,-175,-151,-117,58,-29,-48
-48,-19,29,34,-39,4,-165,-141,-126,53,-34,-53
-48,-39,9,43,-29,-14,-156,-131,-131,43,-39,-58
-53,-53,0,53,-26,-26,-131,-117,-122,48,-29,-48
-78,-63,14,70,-46,-24,-117,-112,-122,48,-29,-53
-78,-73,4,75,-41,-34,-107,-107,-122,34,-34,-63
-78,-87,-9,82,-34,-48,-107,-102,-131,24,-48,-78
-68,-87,-19,78,-24,-53,-97,-102,-141,9,-58,-82
-68,-82,-14,75,-26,-48,-102,-102,-146,4,-63,-82
-68,-82,-14,75,-26,-48,-92,-102,-151,0,-73,-82
-73,-82,-9,78,-31,-46,-92,-107,-165,-4,-82,-87
-82,-97,-14,90,-34,-56,-78,-97,-161,-14,-78,-97
-82,-102,-19,92,-31,-61,-78,-97,-161,-19,-78,-102
-87,-112,-24,100,-31,-68,-78,-92,-156,-19,-82,-107
-97,-122,-24,109,-36,-73,-78,-92,-151,-19,-82,-107
-97,-131,-34,114,-31,-82,-68,-97,-161,-24,-87,-102
-92,-126,-34,109,-29,-80,-68,-97,-165,-29,-87,-102
-92,-126,-34,109,-29,-80,-63,-97,-165,-29,-87,-102
-102,-131,-29,117,-36,-80,-58,-97,-161,-29,-87,-97
-102,-122,-19,112,-41,-70,-58,-102,-170,-39,-97,-102
-102,-117,-14,109,-43,-65,-63,-102,-170,-39,-102,-107
-102,-112,-9,107,-46,-61,-68,-107,-180,-39,-102,-112
-107,-107,0,107,-53,-53,-73,-107,-180,-39,-102,-122
-97,-126,-29,112,-34,-78,-68,-102,-170,-39,-92,-112
-97,-131,-34,114,-31,-82,-63,-92,-170,-39,-92,-107
-97,-131,-34,114,-31,-82,-53,-87,-170,-39,-92,-102
-97,-136,-39,117,-29,-87,-48,-82,-170,-39,-92,-97
-107,-126,-19,117,-43,-73,-53,-92,-175,-34,-92,-112
-107,-131,-24,119,-41,-78,-53,-87,-175,-34,-92,-112
-107,-136,-29,122,-39,-82,-43,-87,-170,-34,-92,-107
-107,-136,-29,122,-39,-82,-43,-87,-170,-34,-92,-107
-92,-112,-19,102,-36,-65,-53,-87,-180,-43,-102,-117
-102,-126,-24,114,-39,-75,-43,-82,-175,-43,-107,-122
-92,-131,-39,112,-26,-85,-24,-58,-175,-43,-112,-126
-73,-131,-58,102,-7,-95,-14,-29,-151,-24,-102,-126
-87,-151,-63,119,-12,-107,-14,-39,-131,9,-92,-117
-102,-165,-63,134,-19,-114,-43,-63,-122,39,-78,-117
-68,-117,-48,92,-9,-82,-68,-87,-107,73,-43,-82
-14,-29,-14,21,0,-21,-112,-122,-87,131,24,-9
14,24,9,-19,2,17,-185,-180,-82,190,87,53
92,73,-19,-82,56,26,-253,-209,-73,248,161,122
219,146,-73,-183,146,36,-341,-239,-53,336,244,224
322,273,-48,-297,185,112,-424,-302,-34,429,346,331
375,366,-9,-370,192,178,-488,-385,-9,497,444,439
414,439,24,-427,195,231,-561,-473,4,556,531,522
502,566,63,-534,219,314,-639,-531,4,614,624,629
610,717,107,-663,251,412,-736,-585,-4,692,727,741
649,814,165,-732,241,490,-810,-639,-4,741,834,873
619,917,297,-768,161,607,-844,-688,-4,751,893,956
556,1005,448,-780,53,727,-849,-727,-24,707,863,961
463,1010,546,-736,-41,778,-805,-732,-53,649,800,907
317,971,653,-644,-168,812,-761,-751,-53,585,736,854
161,917,756,-539,-297,836,-697,-761,-58,492,639,766
39,893,854,-466,-407,873,-595,-727,-48,385,527,658
-63,839,902,-387,-483,871,-492,-658,-39,278,400,541
-156,707,863,-275,-509,785,-400,-580,-39,185,278,414
-180,590,771,-204,-475,680,-312,-497,-48,97,161,292
-195,497,692,-151,-444,595,-229,-429,-34,29,63,185
-253,400,653,-73,-453,527,-156,-366,-19,9,14,117
-292,302,595,-4,-444,448,-107,-322,-19,0,-14,78
-263,234,497,14,-380,366,-78,-322,-58,-29,-53,29
-253,200,453,26,-353,326,-117,-370,-122,-82,-107,-24
-273,180,453,46,-363,317,-175,-448,-190,-112,-122,-68
-297,126,424,85,-361,275,-219,-483,-234,-97,-126,-78
-273,78,351,97,-312,214,-219,-448,-244,-87,-126,-82
-224,34,258,95,-241,146,-190,-395,-248,-82,-126,-92
-200,0,200,100,-200,100,-180,-356,-248,-73,-131,-102
-180,0,180,90,-180,90,-170,-307,-239,-53,-122,-102
-131,-9,122,70,-126,56,-122,-239,-204,-24,-112,-92
-117,-58,58,87,-87,0,-82,-185,-190,0,-102,-87
-122,-87,34,104,-78,-26,-73,-156,-175,24,-92,-87
-117,-97,19,107,-68,-39,-63,-136,-170,19,-92,-102
-102,-73,29,87,-65,-21,-63,-126,-175,9,-97,-102
-107,-87,19,97,-63,-34,-53,-122,-175,4,-102,-102
-102,-97,4,100,-53,-46,-63,-117,-175,9,-102,-102
-92,-97,-4,95,-43,-51,-68,-112,-180,9,-102,-102
-87,-97,-9,92,-39,-53,-68,-102,-180,9,-102,-92
-87,-92,-4,90,-41,-48,-63,-97,-170,9,-102,-92
-87,-92,-4,90,-41,-48,-58,-92,-165,9,-102,-97
-87,-97,-9,92,-39,-53,-53,-87,-165,4,-102,-97
-92,-107,-14,100,-39,-61,-43,-92,-165,4,-102,-102
-92,-117,-24,104,-34,-70,-43,-87,-175,4,-102,-112
-82,-107,-24,95,-29,-65,-53,-97,-175,4,-102,-112
-78,-107,-29,92,-24,-68,-58,-97,-180,-4,-102,-102
-73,-107,-34,90,-19,-70,-63,-97,-180,-4,-102,-102
-82,-117,-34,100,-24,-75,-63,-87,-170,-9,-92,-112
-82,-117,-34,100,-24,-75,-58,-82,-170,-19,-92,-117
-82,-117,-34,100,-24,-75,-58,-78,-170,-19,-92,-117
-82,-117,-34,100,-24,-75,-58,-78,-170,-19,-92,-112
-82,-107,-24,95,-29,-65,-58,-78,-180,-19,-92,-102
-82,-112,-29,97,-26,-70,-58,-82,-180,-19,-92,-112
-82,-112,-29,97,-26,-70,-58,-87,-180,-24,-92,-112
-73,-112,-39,92,-17,-75,-63,-87,-175,-29,-87,-107
-63,-117,-53,90,-4,-85,-63,-87,-165,-29,-87,-97
-68,-117,-48,92,-9,-82,-63,-82,-165,-29,-87,-97
-68,-112,-43,90,-12,-78,-63,-82,-165,-29,-87,-97
-68,-112,-43,90,-12,-78,-63,-82,-165,-29,-87,-97
-68,-102,-34,85,-17,-68,-63,-82,-175,-29,-82,-97
-63,-102,-39,82,-12,-70,-63,-82,-170,-24,-78,-97
-63,-102,-39,82,-12,-70,-63,-82,-165,-24,-78,-92
-68,-107,-39,87,-14,-73,-68,-82,-165,-24,-73,-92
-58,-102,-43,80,-7,-73,-78,-82,-156,-14,-82,-87
-43,-87,-43,65,0,-65,-82,-82,-161,-14,-82,-87
-43,-82,-39,63,-2,-61,-82,-82,-161,-14,-82,-87
-43,-78,-34,61,-4,-56,-82,-82,-161,-14,-82,-82
-58,-78,-19,68,-19,-48,-82,-92,-161,-14,-82,-87
-63,-102,-39,82,-12,-70,-82,-92,-156,-9,-78,-87
-68,-112,-43,90,-12,-78,-82,-92,-156,-9,-78,-87
-73,-122,-48,97,-12,-85,-87,-97,-156,-9,-78,-87
-63,-107,-43,85,-9,-75,-92,-87,-161,-9,-78,-87
-58,-92,-34,75,-12,-63,-92,-87,-161,-9,-78,-82
-58,-82,-24,70,-17,-53,-92,-87,-156,-9,-78,-78
-53,-73,-19,63,-17,-46,-92,-82,-156,-9,-78,-78
-43,-78,-34,61,-4,-56,-82,-92,-146,0,-68,-87
-43,-87,-43,65,0,-65,-87,-92,-146,0,-68,-87
-43,-97,-53,70,4,-75,-87,-97,-141,0,-63,-82
-43,-107,-63,75,9,-85,-87,-97,-141,0,-63,-82
-43,-92,-48,68,2,-70,-97,-92,-141,0,-63,-73
-48,-82,-34,65,-7,-58,-97,-92,-141,4,-58,-73
-48,-92,-43,70,-2,-68,-97,-87,-141,9,-53,-68
-53,-92,-39,73,-7,-65,-97,-87,-141,9,-48,-63
-39,-78,-39,58,0,-58,-107,-87,-141,9,-48,-53
-29,-78,-48,53,9,-63,-112,-87,-141,9,-48,-53
-29,-78,-48,53,9,-63,-112,-92,-141,9,-43,-48
-24,-68,-43,46,9,-56,-112,-92,-136,14,-43,-48
-14,-68,-53,41,19,-61,-117,-92,-131,24,-39,-48
-9,-68,-58,39,24,-63,-122,-92,-131,24,-39,-48
-4,-63,-58,34,26,-61,-122,-102,-141,24,-39,-48
-4,-63,-58,34,26,-61,-122,-102,-141,34,-34,-43
-9,-73,-63,41,26,-68,-117,-102,-136,34,-34,-34
-4,-68,-63,36,29,-65,-117,-97,-136,39,-24,-29
-4,-63,-58,34,26,-61,-117,-97,-136,43,-19,-19
-4,-63,-58,34,26,-61,-122,-102,-136,48,-19,-14
0,-53,-53,26,26,-53,-136,-102,-126,53,-19,-19
9,-48,-58,19,34,-53,-141,-102,-126,58,-19,-19
19,-48,-68,14,43,-58,-141,-107,-126,68,-9,-19
34,-39,-73,2,53,-56,-146,-107,-126,68,-4,-19
24,-29,-53,2,39,-41,-141,-107,-126,73,0,-4
29,-24,-53,-2,41,-39,-141,-107,-126,78,0,4
34,-14,-48,-9,41,-31,-146,-112,-126,82,0,9
48,0,-48,-24,48,-24,-151,-112,-126,87,9,14
58,-4,-63,-26,61,-34,-165,-112,-131,82,9,14
68,-9,-78,-29,73,-43,-170,-112,-131,92,14,19
68,-14,-82,-26,75,-48,-175,-112,-131,97,19,24
68,-9,-78,-29,73,-43,-190,-117,-131,97,24,29
78,-14,-92,-31,85,-53,-180,-126,-122,102,39,29
92,-9,-102,-41,97,-56,-180,-122,-122,102,43,34
92,-4,-97,-43,95,-51,-185,-122,-122,102,53,39
92,-4,-97,-43,95,-51,-190,-122,-122,107,53,43
97,9,-87,-53,92,-39,-200,-126,-122,102,48,43
117,19,-97,-68,107,-39,-209,-131,-122,102,53,43
122,24,-97,-73,109,-36,-209,-131,-122,112,58,48
131,34,-97,-82,114,-31,-209,-131,-117,112,63,53
136,29,-107,-82,122,-39,-229,-141,-126,112,68,58
136,39,-97,-87,117,-29,-239,-151,-126,107,73,63
136,43,-92,-90,114,-24,-239,-151,-126,107,73,68
131,43,-87,-87,109,-21,-239,-151,-122,112,78,78
131,34,-97,-82,114,-31,-234,-141,-122,102,82,78
136,43,-92,-90,114,-24,-239,-141,-122,107,87,87
141,48,-92,-95,117,-21,-244,-146,-122,112,92,87
141,48,-92,-95,117,-21,-248,-151,-122,112,92,92
151,58,-92,-104,122,-17,-263,-151,-122,112,92,92
151,58,-92,-104,122,-17,-263,-151,-117,117,97,97
151,58,-92,-104,122,-17,-263,-156,-112,117,97,102
151,68,-82,-109,117,-7,-263,-156,-107,117,97,102
146,78,-68,-112,107,4,-263,-156,-117,112,102,102
136,78,-58,-107,97,9,-258,-151,-107,112,102,102
126,78,-48,-102,87,14,-258,-151,-107,112,107,102
122,78,-43,-100,82,17,-258,-156,-102,112,107,102
122,68,-53,-95,87,7,-253,-156,-97,112,102,102
117,63,-53,-90,85,4,-248,-151,-97,107,102,97
92,58,-34,-75,63,12,-244,-151,-92,107,92,92
87,58,-29,-73,58,14,-239,-151,-87,102,87,82
82,73,-9,-78,46,31,-224,-146,-82,97,87,87
68,78,9,-73,29,43,-214,-141,-78,97,92,87
58,78,19,-68,19,48,-209,-131,-78,97,92,87
48,68,19,-58,14,43,-204,-126,-78,87,87,87
43,63,19,-53,12,41,-204,-136,-78,82,73,73
34,48,14,-41,9,31,-200,-131,-78,78,73,58
34,43,9,-39,12,26,-190,-131,-78,73,63,58
19,39,19,-29,0,29,-175,-126,-78,68,63,48
9,48,39,-29,-14,43,-165,-122,-68,63,58,58
-4,39,43,-17,-24,41,-161,-122,-63,53,48,48
-14,34,48,-9,-31,41,-161,-117,-63,48,39,43
-19,29,48,-4,-34,39,-151,-117,-63,48,39,43
-9,24,34,-7,-21,29,-156,-117,-68,43,34,34
-9,19,29,-4,-19,24,-151,-117,-68,39,34,29
-29,9,39,9,-34,24,-146,-112,-68,39,29,24
-29,9,39,9,-34,24,-146,-107,-68,34,24,19
-29,4,34,12,-31,19,-131,-97,-68,39,29,24
-29,0,29,14,-29,14,-126,-102,-73,39,24,19
-39,-9,29,24,-34,9,-126,-102,-73,34,19,14
-39,0,39,19,-39,19,-122,-102,-73,29,19,14
-39,0,39,19,-39,19,-126,-102,-82,24,9,4
-43,-4,39,24,-41,17,-126,-107,-82,19,9,4
-43,-4,39,24,-41,17,-126,-107,-82,14,9,4
-43,0,43,21,-43,21,-131,-112,-92,14,0,4
-48,9,58,19,-53,34,-122,-107,-82,24,0,-4
-53,4,58,24,-56,31,-122,-107,-82,19,0,0
-53,-4,48,29,-51,21,-122,-107,-82,19,0,4
-53,-4,48,29,-51,21,-122,-107,-78,19,-4,9
-53,-4,48,29,-51,21,-122,-117,-87,9,-4,9
-58,-9,48,34,-53,19,-117,-117,-87,14,-4,4
-58,-9,48,34,-53,19,-112,-117,-87,14,-4,4
-58,-9,48,34,-53,19,-112,-117,-87,14,-4,0
-68,-9,58,39,-63,24,-117,-107,-78,24,-4,4
-73,-9,63,41,-68,26,-117,-107,-82,24,-4,4
-73,-9,63,41,-68,26,-117,-107,-82,24,-4,0
-68,-9,58,39,-63,24,-117,-107,-82,24,-4,0
-53,4,58,24,-56,31,-117,-117,-92,19,-4,0
-48,4,53,21,-51,29,-117,-117,-92,19,-4,0
-43,0,43,21,-43,21,-112,-117,-92,19,-4,0
-39,-4,34,21,-36,14,-112,-117,-92,19,-4,0
-53,-14,39,34,-46,12,-112,-117,-82,34,-14,9
-58,-24,34,41,-46,4,-107,-117,-82,34,-9,4
-63,-34,29,48,-46,-2,-107,-117,-82,34,-9,4
-68,-43,24,56,-46,-9,-112,-117,-82,34,-14,0
-73,-24,48,48,-61,12,-112,-117,-82,34,-14,0
-73,-19,53,46,-63,17,-112,-117,-82,39,-9,4
-73,-14,58,43,-65,21,-112,-117,-82,39,-4,4
-78,-14,63,46,-70,24,-112,-117,-82,39,0,4
-78,-14,63,46,-70,24,-112,-112,-87,48,0,14
-78,-14,63,46,-70,24,-107,-112,-82,48,0,14
-78,-19,58,48,-68,19,-107,-117,-82,53,0,14
-78,-19,58,48,-68,19,-112,-117,-82,58,0,14
-73,-24,48,48,-61,12,-112,-117,-73,48,0,4
-73,-19,53,46,-63,17,-112,-117,-73,53,0,4
-73,-19,53,46,-63,17,-112,-117,-73,58,0,4
-78,-24,53,51,-65,14,-112,-117,-78,58,0,4
-68,-19,48,43,-58,14,-102,-117,-68,58,0,14
-68,-14,53,41,-61,19,-102,-117,-68,63,0,14
-68,-9,58,39,-63,24,-107,-117,-68,63,-4,14
-68,-4,63,36,-65,29,-107,-117,-68,68,-4,9
-78,-9,68,43,-73,29,-107,-117,-68,78,-4,9
-78,-14,63,46,-70,24,-107,-117,-68,82,0,14
-82,-29,53,56,-68,12,-97,-117,-68,82,0,14
-82,-34,48,58,-65,7,-97,-117,-63,87,0,14
-78,-34,43,56,-61,4,-107,-117,-53,78,0,14
-73,-24,48,48,-61,12,-107,-117,-58,78,0,14
-58,-24,34,41,-46,4,-107,-117,-58,78,0,14
-63,-24,39,43,-51,7,-107,-117,-58,82,0,14
-73,-43,29,58,-51,-7,-97,-122,-58,92,0,14
-73,-43,29,58,-51,-7,-97,-122,-58,82,0,14
-68,-39,29,53,-48,-4,-102,-126,-58,82,0,14
-68,-39,29,53,-48,-4,-102,-126,-58,82,0,14
-78,-34,43,56,-61,4,-97,-117,-58,78,0,14
-78,-24,53,51,-65,14,-97,-117,-58,78,0,14
-78,4,82,36,-80,43,-102,-117,-58,78,0,9
-78,4,82,36,-80,43,-102,-117,-58,78,0,9
-68,-4,63,36,-65,29,-97,-126,-58,87,4,14
-68,-9,58,39,-63,24,-97,-126,-58,87,4,14
-68,-9,58,39,-63,24,-97,-126,-58,82,0,14
-68,-14,53,41,-61,19,-97,-122,-58,82,0,14
-68,-14,53,41,-61,19,-82,-117,-48,73,9,24
-68,-14,53,41,-61,19,-82,-112,-48,78,9,24
-68,-14,53,41,-61,19,-82,-107,-48,78,14,24
-68,-9,58,39,-63,24,-87,-107,-48,78,14,24
-78,-9,68,43,-73,29,-97,-112,-53,73,4,19
-78,-14,63,46,-70,24,-97,-117,-53,73,4,19
-78,-29,48,53,-63,9,-97,-117,-48,73,4,19
-78,-29,48,53,-63,9,-97,-122,-48,68,4,19
-78,-24,53,51,-65,14,-92,-112,-48,58,-4,19
-78,-24,53,51,-65,14,-92,-117,-48,53,-4,19
-78,-19,58,48,-68,19,-92,-117,-48,48,-4,19
-73,-19,53,46,-63,17,-92,-117,-48,43,-9,14
-73,-9,63,41,-68,26,-102,-126,-58,34,-9,4
-73,-9,63,41,-68,26,-107,-126,-58,39,-4,9
-73,-9,63,41,-68,26,-107,-126,-58,39,-4,9
-73,-14,58,43,-65,21,-107,-122,-58,34,-4,9
-68,-4,63,36,-65,29,-87,-112,-58,43,4,19
-68,-19,48,43,-58,14,-87,-107,-48,48,9,19
-68,-19,48,43,-58,14,-97,-117,-58,43,4,9
-68,-19,48,43,-58,14,-97,-117,-58,39,0,9
-68,-19,48,43,-58,14,-97,-117,-58,34,-4,9
-68,-19,48,43,-58,14,-97,-117,-58,29,-9,9
-68,-24,43,46,-56,9,-92,-117,-48,29,-9,9
-68,-34,34,51,-51,0,-92,-117,-48,29,-9,9
-68,-39,29,53,-48,-4,-92,-117,-48,24,-9,9
-68,-43,24,56,-46,-9,-92,-117,-48,24,-9,9
-78,-43,34,61,-56,-4,-92,-117,-48,29,-9,19
-78,-39,39,58,-58,0,-92,-117,-48,29,-9,14
-78,-34,43,56,-61,4,-92,-117,-48,34,-9,14
-78,-29,48,53,-63,9,-92,-117,-48,34,-4,14
-78,-39,39,58,-58,0,-92,-117,-43,34,-4,19
-78,-39,39,58,-58,0,-92,-117,-43,34,-4,19
-73,-39,34,56,-53,-2,-92,-117,-43,34,-14,14
-73,-39,34,56,-53,-2,-92,-117,-48,34,-14,14
-63,-43,19,53,-41,-12,-92,-117,-48,24,-4,14
-63,-43,19,53,-41,-12,-92,-117,-48,24,-4,14
-68,-39,29,53,-48,-4,-92,-117,-48,24,-4,9
-68,-39,29,53,-48,-4,-92,-126,-48,24,-14,0
-68,-34,34,51,-51,0,-92,-126,-48,24,-14,9
-68,-34,34,51,-51,0,-92,-122,-48,34,-9,14
-68,-39,29,53,-48,-4,-92,-122,-48,34,-4,14
-68,-39,29,53,-48,-4,-92,-122,-48,34,-4,19
-78,-29,48,53,-63,9,-92,-122,-53,39,-9,9
-78,-29,48,53,-63,9,-92,-122,-53,34,-14,9
-78,-19,58,48,-68,19,-97,-122,-53,29,-19,9
-78,-9,68,43,-73,29,-97,-122,-53,29,-24,9
-78,-14,63,46,-70,24,-82,-122,-43,39,-14,24
-78,-14,63,46,-70,24,-82,-117,-29,48,-4,29
-78,-4,73,41,-75,34,-73,-107,-19,53,-4,29
-73,9,82,31,-78,46,-68,-97,-9,58,0,34
-63,14,78,24,-70,46,-68,-92,-4,68,19,43
-63,19,82,21,-73,51,-68,-82,4,73,24,48
-53,24,78,14,-65,51,-63,-73,19,82,29,53
-53,29,82,12,-68,56,-53,-58,34,92,34,58
-48,39,87,4,-68,63,-29,-34,43,112,39,63
-48,39,87,4,-68,63,-4,-9,53,112,43,63
-34,39,73,-2,-53,56,14,14,63,112,43,63
-34,43,78,-4,-56,61,14,29,68,112,48,68
-43,63,107,-9,-75,85,9,19,82,126,48,68
-43,82,126,-19,-85,104,4,9,97,141,53,78
-39,87,126,-24,-82,107,-4,4,112,151,73,87
-34,92,126,-29,-80,109,-14,-4,112,156,73,92
-19,102,122,-41,-70,112,-43,-29,102,156,73,102
-19,107,126,-43,-73,117,-63,-53,102,151,73,107
-19,107,126,-43,-73,117,-97,-102,92,146,73,107
-19,102,122,-41,-70,112,-141,-136,78,141,63,107
-29,92,122,-31,-75,107,-151,-151,58,126,53,87
-34,68,102,-17,-68,85,-161,-165,39,117,39,73
-43,53,97,-4,-70,75,-161,-175,14,97,29,68
-53,48,102,2,-78,75,-165,-180,-4,73,14,63
-43,39,82,2,-63,61,-170,-195,-14,63,9,58
-43,29,73,7,-58,51,-175,-195,-29,58,4,53
-43,24,68,9,-56,46,-190,-195,-34,53,4,48
-43,9,53,17,-48,31,-185,-195,-39,48,0,48
-58,4,63,26,-61,34,-175,-180,-34,53,-4,39
-58,-4,53,31,-56,24,-156,-170,-39,48,-9,39
-58,-9,48,34,-53,19,-141,-161,-48,43,-14,34
-58,-29,29,43,-43,0,-126,-151,-53,34,-19,29
-53,-48,4,51,-29,-21,-112,-156,-63,29,-29,29
-78,-53,24,65,-51,-14,-97,-151,-63,29,-29,24
-78,-58,19,68,-48,-19,-87,-146,-63,14,-34,14
-78,-68,9,73,-43,-29,-87,-141,-73,4,-48,0
-87,-78,9,82,-48,-34,-82,-136,-73,4,-48,0
-87,-82,4,85,-46,-39,-82,-131,-68,4,-43,4
-87,-92,-4,90,-41,-48,-68,-126,-63,4,-43,9
-92,-102,-9,97,-41,-56,-63,-126,-68,4,-43,9
-102,-92,9,97,-56,-41,-48,-126,-73,-9,-53,4
-102,-92,9,97,-56,-41,-48,-126,-82,-19,-58,-4
-107,-97,9,102,-58,-43,-48,-122,-87,-24,-68,-14
-117,-102,14,109,-65,-43,-48,-122,-92,-29,-73,-19
-107,-102,4,104,-56,-48,-58,-126,-82,-24,-73,-14
-102,-97,4,100,-53,-46,-58,-126,-87,-29,-68,-14
-102,-97,4,100,-53,-46,-53,-126,-87,-29,-63,-14
-112,-102,9,107,-61,-46,-48,-126,-82,-29,-58,-9
-112,-117,-4,114,-53,-61,-34,-112,-82,-39,-58,-9
-112,-117,-4,114,-53,-61,-34,-112,-82,-39,-63,-9
-112,-117,-4,114,-53,-61,-34,-117,-92,-39,-63,-9
-117,-117,0,117,-58,-58,-34,-117,-92,-39,-63,-14
-107,-107,0,107,-53,-53,-43,-126,-92,-39,-73,-9
-107,-102,4,104,-56,-48,-43,-122,-92,-39,-73,-9
-107,-92,14,100,-61,-39,-39,-122,-92,-39,-73,-9
-107,-87,19,97,-63,-34,-39,-122,-92,-39,-73,-9
-117,-102,14,109,-65,-43,-43,-122,-97,-39,-73,-24
-117,-112,4,114,-61,-53,-43,-117,-97,-43,-73,-24
-117,-122,-4,119,-56,-63,-34,-117,-92,-48,-73,-19
-117,-126,-9,122,-53,-68,-34,-117,-92,-53,-73,-19
-122,-161,-39,141,-41,-100,-34,-117,-92,-43,-73,-29
-131,-146,-14,139,-58,-80,-24,-112,-87,-53,-87,-43
-122,-102,19,112,-70,-41,-14,-97,-87,-63,-102,-48
-112,-112,0,112,-56,-56,-14,-87,-73,-43,-92,-48
-117,-151,-34,134,-41,-92,-14,-78,-43,-9,-63,-29
-92,-117,-24,104,-34,-70,-24,-82,-14,29,-29,9
-48,-48,0,48,-24,-24,-58,-117,0,73,4,53
-4,-19,-14,12,4,-17,-131,-170,9,122,63,97
43,34,-9,-39,26,12,-204,-219,14,190,136,151
131,161,29,-146,51,95,-273,-268,34,258,209,229
278,263,-14,-270,146,124,-351,-297,73,336,302,341
361,331,-29,-346,195,151,-424,-361,92,409,395,439
366,375,9,-370,178,192,-507,-463,87,448,453,517
424,478,53,-451,185,265,-580,-531,92,497,522,600
570,614,43,-592,263,329,-658,-551,112,566,634,727
678,746,68,-712,305,407,-746,-614,92,644,746,829
678,873,195,-775,241,534,-829,-697,73,673,814,932
619,985,366,-802,126,675,-844,-756,63,673,854,985
536,985,448,-761,43,717,-810,-775,43,619,814,971
405,951,546,-678,-70,749,-766,-780,24,541,741,907
258,932,673,-595,-207,802,-722,-800,24,468,668,844
131,888,756,-509,-312,822,-629,-771,39,375,570,775
19,834,814,-427,-397,824,-517,-707,58,287,458,668
-82,741,824,-329,-453,783,-405,-639,68,200,351,551
-175,610,785,-217,-480,697,-322,-561,58,117,239,434
-229,502,732,-136,-480,617,-234,-488,58,39,141,322
-263,429,692,-82,-478,561,-170,-448,63,-9,63,244
-302,370,673,-34,-488,522,-107,-405,58,-29,14,185
-302,312,614,-4,-458,463,-78,-380,48,-58,-24,146
-283,244,527,19,-405,385,-78,-400,0,-107,-63,107
-283,190,473,46,-378,331,-117,-448,-63,-131,-87,73
-292,131,424,80,-358,278,-175,-497,-112,-141,-102,39
-268,87,356,90,-312,222,-190,-492,-136,-126,-107,19
-234,68,302,82,-268,185,-180,-458,-146,-126,-117,4
-234,24,258,104,-246,141,-170,-424,-161,-112,-126,-14
-219,-39,180,129,-200,70,-151,-375,-161,-92,-122,-24
-180,-29,151,104,-165,61,-122,-307,-122,-73,-102,-4
-161,-29,131,95,-146,51,-92,-248,-107,-63,-92,-4
-146,-68,78,107,-112,4,-63,-204,-92,-48,-92,-9
-131,-78,53,104,-92,-12,-34,-175,-68,-34,-82,9
-126,-87,39,107,-82,-24,-24,-146,-63,-29,-73,4
-122,-92,29,107,-75,-31,-24,-136,-68,-29,-78,-4
-126,-97,29,112,-78,-34,-24,-146,-68,-34,-82,-4
-122,-107,14,114,-68,-46,-34,-146,-68,-29,-82,-4
-112,-107,4,109,-58,-51,-39,-146,-73,-29,-82,-4
-107,-107,0,107,-53,-53,-39,-141,-73,-29,-82,4
-97,-107,-9,102,-43,-58,-34,-131,-73,-39,-82,-4
-97,-102,-4,100,-46,-53,-29,-122,-68,-39,-82,-9
-97,-102,-4,100,-46,-53,-24,-112,-68,-43,-82,-9
-102,-107,-4,104,-48,-56,-14,-112,-68,-43,-82,-14
-102,-107,-4,104,-48,-56,-24,-117,-68,-34,-92,-14
-92,-97,-4,95,-43,-51,-34,-126,-68,-34,-92,-14
-87,-97,-9,92,-39,-53,-39,-126,-73,-43,-92,-4
-82,-97,-14,90,-34,-56,-43,-126,-73,-43,-92,-4
-87,-97,-9,92,-39,-53,-34,-117,-63,-39,-82,-4
-92,-97,-4,95,-43,-51,-29,-112,-63,-48,-82,-9
-97,-97,0,97,-48,-48,-29,-107,-63,-48,-82,-9
-102,-97,4,100,-53,-46,-29,-107,-63,-48,-82,-4
-92,-97,-4,95,-43,-51,-39,-117,-73,-58,-92,-4
-92,-102,-9,97,-41,-56,-39,-122,-73,-58,-92,-14
-92,-102,-9,97,-41,-56,-39,-126,-73,-63,-92,-14
-82,-102,-19,92,-31,-61,-43,-126,-68,-68,-87,-9
-82,-97,-14,90,-34,-56,-43,-126,-68,-58,-78,0
-87,-97,-9,92,-39,-53,-43,-122,-68,-58,-78,0
-87,-92,-4,90,-41,-48,-43,-122,-68,-58,-78,0
-87,-92,-4,90,-41,-48,-43,-122,-68,-58,-78,0
-87,-97,-9,92,-39,-53,-43,-112,-58,-58,-73,9
-82,-102,-19,92,-31,-61,-43,-112,-53,-53,-68,9
-82,-107,-24,95,-29,-65,-43,-112,-48,-53,-68,14
-87,-117,-29,102,-29,-73,-48,-112,-48,-53,-63,14
-87,-112,-24,100,-31,-68,-48,-122,-48,-43,-73,9
-73,-97,-24,85,-24,-61,-53,-122,-53,-43,-73,9
-73,-92,-19,82,-26,-56,-53,-122,-53,-43,-73,9
-73,-87,-14,80,-29,-51,-53,-122,-53,-43,-73,14
-73,-78,-4,75,-34,-41,-53,-122,-43,-43,-73,19
-73,-92,-19,82,-26,-56,-53,-122,-39,-39,-68,19
-73,-92,-19,82,-26,-56,-53,-122,-39,-39,-68,19
-73,-92,-19,82,-26,-56,-58,-126,-39,-39,-68,19
-73,-97,-24,85,-24,-61,-53,-126,-34,-39,-58,19
-68,-92,-24,80,-21,-58,-53,-126,-34,-39,-58,24
-68,-92,-24,80,-21,-58,-53,-126,-29,-39,-58,29
-63,-92,-29,78,-17,-61,-53,-122,-29,-39,-58,29
-63,-82,-19,73,-21,-51,-63,-122,-39,-39,-58,19
-63,-78,-14,70,-24,-46,-68,-122,-39,-39,-58,19
-63,-73,-9,68,-26,-41,-68,-126,-34,-39,-53,24
-63,-68,-4,65,-29,-36,-68,-126,-34,-39,-53,24
-58,-68,-9,63,-24,-39,-68,-122,-29,-39,-53,34
-58,-63,-4,61,-26,-34,-68,-122,-24,-34,-48,34
-53,-78,-24,65,-14,-51,-68,-117,-19,-29,-43,39
-53,-82,-29,68,-12,-56,-68,-117,-14,-29,-39,43
-48,-68,-19,58,-14,-43,-78,-117,-24,-29,-48,34
-39,-68,-29,53,-4,-48,-82,-117,-24,-29,-48,34
-39,-68,-29,53,-4,-48,-82,-122,-24,-29,-43,39
-34,-58,-24,46,-4,-41,-82,-122,-19,-24,-43,39
-39,-68,-29,53,-4,-48,-87,-131,-14,-24,-39,48
-39,-68,-29,53,-4,-48,-92,-131,-14,-24,-39,48
-39,-63,-24,51,-7,-43,-92,-141,-24,-24,-39,48
-43,-63,-19,53,-12,-41,-92,-141,-24,-14,-34,53
-34,-58,-24,46,-4,-41,-97,-131,-9,-4,-34,53
-14,-48,-34,31,9,-41,-97,-126,-9,0,-24,58
0,-39,-39,19,19,-39,-97,-126,-9,4,-19,68
14,-34,-48,9,31,-41,-102,-131,-9,9,-19,73
9,-48,-58,19,34,-53,-107,-141,0,4,-19,78
9,-48,-58,19,34,-53,-112,-141,0,9,-19,78
9,-53,-63,21,36,-58,-112,-146,0,19,-9,78
14,-48,-63,17,39,-56,-117,-146,0,19,-4,78
24,-34,-58,4,41,-46,-131,-146,0,24,-9,82
29,-24,-53,-2,41,-39,-131,-146,0,29,-9,92
34,-9,-43,-12,39,-26,-136,-151,0,34,-9,97
48,9,-39,-29,43,-14,-141,-151,0,39,0,102
58,9,-48,-34,53,-19,-136,-151,4,34,9,102
68,9,-58,-39,63,-24,-141,-151,4,43,14,107
68,9,-58,-39,63,-24,-146,-151,4,48,19,112
68,19,-48,-43,58,-14,-161,-156,4,48,24,117
78,19,-58,-48,68,-19,-161,-156,14,63,29,126
92,19,-73,-56,82,-26,-161,-151,14,63,34,131
92,19,-73,-56,82,-26,-165,-151,14,63,43,136
92,14,-78,-53,85,-31,-170,-151,14,68,43,141
102,34,-68,-68,85,-17,-190,-165,14,63,39,141
117,39,-78,-78,97,-19,-200,-170,14,63,43,141
117,39,-78,-78,97,-19,-200,-170,14,73,48,146
122,43,-78,-82,100,-17,-200,-170,19,73,53,151
122,39,-82,-80,102,-21,-200,-175,19,78,68,165
126,48,-78,-87,102,-14,-209,-180,19,78,73,170
131,53,-78,-92,104,-12,-209,-175,19,82,73,175
131,53,-78,-92,104,-12,-209,-170,24,92,78,185
131,58,-73,-95,102,-7,-214,-170,24,92,82,185
136,73,-63,-104,100,4,-219,-170,24,97,87,195
141,82,-58,-112,100,12,-224,-175,24,102,92,195
141,87,-53,-114,97,17,-229,-180,24,102,92,200
141,87,-53,-114,97,17,-234,-190,24,92,92,190
141,87,-53,-114,97,17,-234,-190,29,97,97,195
141,87,-53,-114,97,17,-234,-195,34,97,97,200
141,97,-43,-119,92,26,-234,-195,39,97,97,200
141,107,-34,-124,87,36,-234,-195,39,102,92,200
136,107,-29,-122,82,39,-229,-190,48,102,92,200
131,107,-24,-119,78,41,-229,-190,48,102,97,200
131,107,-24,-119,78,41,-229,-195,53,102,97,200
112,97,-14,-104,63,41,-224,-195,58,112,102,209
107,92,-14,-100,61,39,-219,-190,58,107,102,204
82,87,4,-85,39,46,-214,-190,63,107,92,200
78,87,9,-82,34,48,-209,-190,68,102,87,190
82,92,9,-87,36,51,-204,-185,73,97,82,185
68,97,29,-82,19,63,-195,-180,78,97,82,185
58,97,39,-78,9,68,-190,-170,78,97,78,185
48,87,39,-68,4,63,-185,-165,78,87,68,185
34,82,48,-58,-7,65,-185,-175,87,73,53,170
24,68,43,-46,-9,56,-180,-170,87,68,53,156
24,63,39,-43,-7,51,-170,-170,87,63,43,156
9,58,48,-34,-19,53,-156,-165,87,58,43,146
9,68,58,-39,-24,63,-146,-161,97,63,48,156
-4,58,63,-26,-34,61,-141,-161,102,53,39,146
-14,53,68,-19,-41,61,-141,-156,102,48,29,141
-19,48,68,-14,-43,58,-131,-156,102,48,29,141
-29,39,68,-4,-48,53,-126,-156,97,34,24,141
-29,29,58,0,-43,43,-122,-156,97,29,24,136
-48,14,63,17,-56,39,-117,-151,97,29,19,131
-48,9,58,19,-53,34,-117,-146,97,24,14,126
-39,4,43,17,-41,24,-112,-156,97,19,19,122
-39,0,39,19,-39,19,-107,-161,92,19,14,117
-48,-9,39,29,-43,14,-107,-161,92,14,9,112
-48,0,48,24,-48,24,-102,-161,92,9,9,112
-58,9,68,24,-63,39,-112,-156,92,14,9,112
-63,4,68,29,-65,36,-107,-156,92,9,9,112
-63,4,68,29,-65,36,-102,-151,92,4,9,112
-63,9,73,26,-68,41,-102,-151,82,4,0,112
-58,19,78,19,-68,48,-102,-156,92,-4,0,107
-63,14,78,24,-70,46,-102,-156,92,-9,0,107
-63,4,68,29,-65,36,-102,-156,92,-9,0,107
-63,4,68,29,-65,36,-102,-156,97,-9,-4,107
-73,-4,68,39,-70,31,-92,-156,97,0,-4,102
-78,-9,68,43,-73,29,-87,-156,97,4,-4,102
-78,-9,68,43,-73,29,-82,-156,97,4,-4,107
-78,-9,68,43,-73,29,-82,-156,97,4,-4,107
-68,0,68,34,-68,34,-97,-156,97,-4,-4,102
-73,0,73,36,-73,36,-97,-156,92,-4,-4,102
-73,0,73,36,-73,36,-97,-156,92,-4,-4,97
-68,0,68,34,-68,34,-97,-156,92,-4,-4,97
-68,4,73,31,-70,39,-92,-156,102,0,-4,102
-68,4,73,31,-70,39,-87,-156,102,0,-4,107
-68,0,68,34,-68,34,-78,-156,102,0,-4,112
-68,-4,63,36,-65,29,-73,-156,102,0,-4,117
-78,-9,68,43,-73,29,-82,-165,92,4,-14,107
-78,-14,63,46,-70,24,-78,-165,92,4,-9,102
-78,-19,58,48,-68,19,-78,-165,92,4,-9,102
-78,-24,53,51,-65,14,-82,-165,92,4,-14,97
-73,-14,58,43,-65,21,-82,-156,102,4,-9,97
-73,-9,63,41,-68,26,-82,-156,102,9,-9,102
-73,-4,68,39,-70,31,-82,-156,102,9,-9,102
-78,-4,73,41,-75,34,-82,-156,102,9,-9,102
-87,-14,73,51,-80,29,-92,-161,97,0,-9,92
-87,-14,73,51,-80,29,-87,-161,102,0,-9,92
-87,-19,68,53,-78,24,-87,-165,102,4,-9,92
-87,-19,68,53,-78,24,-92,-165,102,9,-9,92
-73,-4,68,39,-70,31,-82,-165,112,0,-9,102
-73,0,73,36,-73,36,-82,-165,112,4,-9,102
-73,0,73,36,-73,36,-82,-165,112,9,-9,102
-78,-4,73,41,-75,34,-82,-165,107,9,-9,102
-78,-9,68,43,-73,29,-82,-165,107,9,-9,102
-78,-14,63,46,-70,24,-82,-165,107,14,-9,102
-78,-19,58,48,-68,19,-87,-165,107,14,-14,102
-78,-24,53,51,-65,14,-87,-165,107,19,-14,97
-68,-9,58,39,-63,24,-97,-165,107,9,-14,97
-68,-4,63,36,-65,29,-97,-165,107,14,-9,102
-73,-9,63,41,-68,26,-87,-165,107,14,-9,102
-73,-4,68,39,-70,31,-87,-165,112,19,-9,102
-73,-14,58,43,-65,21,-87,-165,122,9,-9,102
-73,-4,68,39,-70,31,-87,-165,117,9,-9,102
-63,-4,58,34,-61,26,-87,-165,117,9,-9,102
-73,-4,68,39,-70,31,-87,-165,117,14,-9,102
-82,-9,73,46,-78,31,-87,-170,107,24,-19,102
-82,-4,78,43,-80,36,-87,-170,107,14,-19,102
-78,4,82,36,-80,43,-92,-175,107,14,-19,102
-78,9,87,34,-82,48,-92,-175,107,14,-19,102
-68,0,68,34,-68,34,-82,-165,112,19,-14,112
-68,-4,63,36,-65,29,-78,-165,117,19,-9,112
-68,9,78,29,-73,43,-78,-165,122,19,-4,107
-68,-4,63,36,-65,29,-73,-165,126,19,0,107
-73,-19,53,46,-63,17,-78,-165,117,9,0,107
-78,-19,58,48,-68,19,-78,-165,117,9,-4,102
-82,-14,68,48,-75,26,-78,-165,117,4,-14,97
-87,-14,73,51,-80,29,-78,-161,117,4,-19,92
-87,-9,78,48,-82,34,-82,-170,122,4,-9,97
-87,-4,82,46,-85,39,-82,-170,126,9,-9,102
-87,0,87,43,-87,43,-82,-170,131,9,-4,107
-87,9,97,39,-92,53,-87,-175,136,9,-4,112
-82,0,82,41,-82,41,-78,-165,122,4,-4,97
-78,-4,73,41,-75,34,-78,-165,122,4,-4,97
-73,-19,53,46,-63,17,-78,-161,126,4,-4,97
-68,-19,48,43,-58,14,-78,-161,126,0,-4,97
-78,-24,53,51,-65,14,-73,-161,136,0,-14,97
-78,-24,53,51,-65,14,-73,-165,136,-4,-14,97
-78,-19,58,48,-68,19,-73,-165,136,-9,-14,97
-73,-19,53,46,-63,17,-73,-165,136,-14,-19,92
-73,-4,68,39,-70,31,-82,-175,126,-14,-19,82
-73,0,73,36,-73,36,-87,-175,126,-9,-14,87
-73,4,78,34,-75,41,-87,-175,126,-9,-14,87
-73,4,78,34,-75,41,-87,-170,126,-14,-14,87
-68,-43,24,56,-46,-9,-68,-151,146,4,-4,97
-58,-43,14,51,-36,-14,-58,-151,146,4,-4,97
-68,-29,39,48,-53,4,-78,-156,136,-9,-19,97
-78,-29,48,53,-63,9,-78,-165,126,-9,-29,92
-78,-29,48,53,-63,9,-78,-165,126,-9,-29,87
-78,-29,48,53,-63,9,-78,-165,126,-9,-29,82
-78,-29,48,53,-63,9,-78,-165,126,-9,-29,78
-78,-29,48,53,-63,9,-73,-156,136,-9,-19,78
-78,-34,43,56,-61,4,-73,-156,136,-9,-19,78
-78,-34,43,56,-61,4,-73,-156,136,-14,-19,78
-78,-34,43,56,-61,4,-73,-156,136,-14,-19,78
-68,-29,39,48,-53,4,-82,-165,126,-9,-29,78
-68,-29,39,48,-53,4,-82,-165,126,-9,-29,73
-68,-29,39,48,-53,4,-82,-165,126,-4,-29,73
-68,-29,39,48,-53,4,-82,-165,126,-4,-24,73
-78,-19,58,48,-68,19,-73,-165,131,-4,-14,78
-78,-19,58,48,-68,19,-73,-165,131,-4,-14,78
-73,-19,53,46,-63,17,-73,-165,131,-4,-24,73
-73,-19,53,46,-63,17,-73,-165,126,-4,-24,73
-82,-39,43,61,-63,2,-73,-165,136,4,-24,73
-82,-43,39,63,-61,-2,-73,-165,136,4,-24,73
-87,-43,43,65,-65,0,-73,-165,136,4,-24,68
-87,-48,39,68,-63,-4,-73,-175,136,4,-34,58
-78,-39,39,58,-58,0,-73,-175,126,0,-34,58
-78,-34,43,56,-61,4,-73,-170,126,4,-29,63
-78,-34,43,56,-61,4,-73,-170,126,0,-24,63
-78,-29,48,53,-63,9,-73,-170,126,-4,-24,68
-78,-39,39,58,-58,0,-73,-170,141,14,-24,68
-78,-39,39,58,-58,0,-73,-170,141,14,-24,68
-78,-29,48,53,-63,9,-78,-170,141,14,-24,68
-78,-19,58,48,-68,19,-78,-170,141,19,-24,68
-68,-14,53,41,-61,19,-73,-170,146,9,-34,68
-68,-14,53,41,-61,19,-73,-165,156,19,-24,68
-68,-4,63,36,-65,29,-63,-156,161,24,-24,63
-63,9,73,26,-68,41,-58,-146,165,29,-19,63
-43,29,73,7,-58,51,-58,-151,170,39,-9,63
-43,39,82,2,-63,61,-58,-141,180,43,-4,68
-34,48,82,-7,-58,65,-53,-131,195,53,0,73
-34,58,92,-12,-63,75,-43,-117,209,63,4,78
-43,48,92,-2,-68,70,-19,-92,229,78,19,92
-48,48,97,0,-73,73,4,-68,239,82,24,92
-39,48,87,-4,-63,68,24,-43,248,87,24,92
-43,53,97,-4,-70,75,24,-29,253,92,29,97
-53,53,107,0,-80,80,29,-29,258,87,29,87
-53,73,126,-9,-90,100,24,-39,273,102,34,97
-48,78,126,-14,-87,102,14,-43,287,112,53,107
-43,82,126,-19,-85,104,4,-53,287,117,53,112
-29,102,131,-36,-80,117,-19,-68,287,126,53,102
-29,117,146,-43,-87,131,-43,-92,287,122,53,107
-29,126,156,-48,-92,141,-82,-141,278,117,53,107
-29,131,161,-51,-95,146,-131,-175,263,112,43,107
-34,117,151,-41,-92,134,-146,-200,253,97,43,97
-34,87,122,-26,-78,104,-151,-214,234,87,29,82
-39,68,107,-14,-73,87,-146,-224,209,68,19,78
-43,58,102,-7,-73,80,-146,-229,190,43,4,73
-53,48,102,2,-78,75,-151,-244,170,24,-9,58
-53,39,92,7,-73,65,-156,-244,156,19,-14,53
-53,34,87,9,-70,61,-170,-244,151,14,-14,48
-53,19,73,17,-63,46,-165,-244,146,9,-19,48
-53,14,68,19,-61,41,-161,-239,141,9,-19,39
-48,4,53,21,-51,29,-146,-229,136,9,-19,39
-43,0,43,21,-43,21,-136,-219,126,9,-19,34
-39,-19,19,29,-29,0,-126,-209,122,4,-19,29
-48,-29,19,39,-34,-4,-112,-195,122,-9,-29,29
-78,-34,43,56,-61,4,-97,-190,122,-9,-29,24
-82,-39,43,61,-63,2,-87,-185,122,-24,-34,14
-87,-48,39,68,-63,-4,-87,-180,112,-34,-48,0
-87,-53,34,70,-61,-9,-82,-190,102,-58,-58,-19
-87,-53,34,70,-61,-9,-82,-190,97,-63,-63,-24
-87,-58,29,73,-58,-14,-68,-190,92,-68,-73,-29
-92,-63,29,78,-61,-17,-63,-195,78,-73,-82,-39
-92,-78,14,85,-53,-31,-53,-185,82,-82,-82,-29
-92,-82,9,87,-51,-36,-48,-185,82,-87,-78,-34
-97,-92,4,95,-51,-43,-43,-180,87,-87,-78,-39
-107,-102,4,104,-56,-48,-39,-180,92,-87,-73,-39
-107,-102,4,104,-56,-48,-39,-175,92,-102,-87,-48
-102,-97,4,100,-53,-46,-39,-175,87,-107,-87,-53
-102,-97,4,100,-53,-46,-34,-175,87,-107,-87,-58
-112,-102,9,107,-61,-46,-29,-175,92,-107,-87,-58
-102,-92,9,97,-56,-41,-24,-180,92,-107,-82,-48
-102,-87,14,95,-58,-36,-24,-180,92,-107,-82,-48
-102,-82,19,92,-61,-31,-24,-185,82,-107,-78,-48
-107,-78,29,92,-68,-24,-24,-185,82,-107,-73,-53
-117,-87,29,102,-73,-29,-24,-185,82,-117,-82,-68
-117,-92,24,104,-70,-34,-24,-180,82,-117,-82,-68
-117,-92,24,104,-70,-34,-19,-180,82,-117,-82,-68
-117,-97,19,107,-68,-39,-19,-180,82,-117,-82,-68
-126,-97,29,112,-78,-34,-24,-190,78,-122,-92,-78
-126,-102,24,114,-75,-39,-24,-185,78,-122,-92,-82
-126,-107,19,117,-73,-43,-14,-185,82,-122,-92,-82
-126,-107,19,117,-73,-43,-14,-185,82,-122,-92,-87
-92,-73,19,82,-56,-26,4,-165,92,-102,-63,-58
-112,-117,-4,114,-53,-61,4,-170,87,-92,-78,-63
-131,-151,-19,141,-56,-85,4,-165,87,-112,-102,-87
-131,-141,-9,136,-61,-75,14,-146,102,-112,-112,-97
-107,-122,-14,114,-46,-68,24,-136,122,-97,-102,-97
-92,-97,-4,95,-43,-51,-4,-151,141,-58,-78,-78
-87,-78,9,82,-48,-34,-29,-175,165,4,-24,-43
-34,-19,14,26,-24,-2,-73,-200,195,63,34,19
34,43,9,-39,12,26,-136,-248,200,122,107,92
122,102,-19,-112,70,41,-214,-297,209,190,170,161
229,175,-53,-202,141,61,-302,-336,219,248,244,234
351,292,-58,-322,204,117,-385,-390,239,312,336,322
405,414,9,-409,197,212,-458,-483,263,380,424,419
434,488,53,-461,190,270,-541,-570,268,439,502,502
531,585,53,-558,239,319,-629,-619,278,507,585,600
678,746,68,-712,305,407,-717,-653,268,566,688,712
727,844,117,-785,305,480,-790,-707,268,614,775,824
697,927,229,-812,234,578,-824,-785,248,624,814,897
634,1005,370,-819,131,688,-810,-814,229,570,795,893
531,990,458,-761,36,724,-766,-819,219,502,741,858
366,932,566,-649,-100,749,-722,-849,219,448,678,795
180,897,717,-539,-268,807,-649,-849,214,366,590,717
39,863,824,-451,-392,844,-546,-795,214,268,488,619
-73,780,854,-353,-463,817,-434,-717,234,190,380,522
-136,668,805,-265,-470,736,-351,-658,234,97,278,405
-180,541,722,-180,-451,631,-273,-595,214,19,161,283
-224,468,692,-122,-458,580,-180,-527,239,-39,73,204
-253,419,673,-82,-463,546,-97,-473,263,-68,34,146
-263,341,605,-39,-434,473,-58,-448,244,-87,-4,97
-273,263,536,4,-405,400,-68,-458,185,-146,-53,29
-292,209,502,41,-397,356,-97,-497,122,-190,-97,-14
-292,180,473,56,-383,326,-146,-546,73,-190,-102,-29
-268,146,414,61,-341,280,-170,-561,48,-185,-107,-48
-273,48,322,112,-297,185,-170,-527,39,-185,-126,-73
-253,-14,239,134,-246,112,-161,-492,24,-180,-126,-92
-200,0,200,100,-200,100,-141,-444,24,-170,-122,-82
-161,0,161,80,-161,80,-112,-395,34,-141,-112,-92
-161,-29,131,95,-146,51,-92,-326,48,-122,-102,-92
-156,-39,117,97,-136,39,-53,-283,63,-107,-102,-78
-141,-48,92,95,-117,21,-34,-244,78,-112,-102,-87
-136,-68,68,102,-102,0,-24,-224,82,-117,-112,-102
-141,-92,48,117,-95,-21,-14,-204,87,-107,-97,-102
-126,-87,39,107,-82,-24,-4,-204,97,-102,-92,-92
-122,-97,24,109,-73,-36,-14,-204,97,-97,-92,-92
-112,-97,14,104,-63,-41,-19,-204,92,-97,-92,-92
-107,-97,9,102,-58,-43,-19,-200,92,-97,-92,-82
-97,-102,-4,100,-46,-53,-24,-190,82,-102,-102,-92
-97,-102,-4,100,-46,-53,-19,-180,87,-107,-102,-97
-97,-107,-9,102,-43,-58,-14,-170,87,-117,-102,-97
-102,-117,-14,109,-43,-65,-4,-170,87,-122,-102,-102
-112,-117,-4,114,-53,-61,4,-175,87,-112,-92,-102
-102,-107,-4,104,-48,-56,-4,-185,87,-112,-92,-102
-97,-107,-9,102,-43,-58,-9,-185,82,-122,-92,-92
-92,-107,-14,100,-39,-61,-14,-185,82,-122,-92,-92
-92,-117,-24,104,-34,-70,-14,-165,73,-126,-92,-92
-92,-117,-24,104,-34,-70,-9,-161,73,-136,-92,-97
-92,-117,-24,104,-34,-70,-9,-156,73,-136,-92,-97
-92,-117,-24,104,-34,-70,-9,-156,73,-136,-92,-92
-92,-117,-24,104,-34,-70,-19,-161,82,-126,-92,-92
-92,-122,-29,107,-31,-75,-19,-170,82,-126,-92,-102
-92,-122,-29,107,-31,-75,-19,-180,82,-131,-92,-102
-82,-122,-39,102,-21,-80,-24,-185,87,-136,-87,-97
-73,-112,-39,92,-17,-75,-24,-175,78,-146,-87,-97
-78,-107,-29,92,-24,-68,-24,-170,78,-146,-87,-97
-78,-97,-19,87,-29,-58,-24,-170,78,-146,-87,-97
-78,-92,-14,85,-31,-53,-24,-170,78,-146,-87,-97
-78,-97,-19,87,-29,-58,-24,-180,87,-141,-82,-87
-73,-102,-29,87,-21,-65,-24,-180,92,-131,-78,-87
-73,-107,-34,90,-19,-70,-24,-180,97,-126,-78,-82
-78,-117,-39,97,-19,-78,-29,-180,97,-122,-73,-82
-78,-112,-34,95,-21,-73,-29,-170,87,-122,-82,-97
-63,-97,-34,80,-14,-65,-34,-170,82,-122,-82,-97
-63,-92,-29,78,-17,-61,-34,-170,82,-122,-82,-97
-63,-87,-24,75,-19,-56,-34,-170,82,-122,-82,-92
-68,-92,-24,80,-21,-58,-34,-170,92,-117,-82,-78
-73,-112,-39,92,-17,-75,-34,-170,97,-107,-78,-78
-78,-117,-39,97,-19,-78,-34,-170,97,-102,-78,-78
-82,-122,-39,102,-21,-80,-39,-175,97,-97,-78,-78
-68,-112,-43,90,-12,-78,-53,-175,82,-97,-87,-82
-58,-102,-43,80,-7,-73,-53,-175,82,-97,-87,-82
-53,-97,-43,75,-4,-70,-53,-175,87,-97,-87,-82
-43,-92,-48,68,2,-70,-53,-170,87,-97,-87,-87
-53,-92,-39,73,-7,-65,-43,-180,87,-87,-78,-78
-53,-97,-43,75,-4,-70,-48,-180,87,-87,-78,-78
-53,-102,-48,78,-2,-75,-48,-185,92,-87,-73,-73
-53,-107,-53,80,0,-80,-48,-185,92,-87,-73,-73
-48,-102,-53,75,2,-78,-58,-180,92,-78,-63,-63
-48,-92,-43,70,-2,-68,-58,-180,92,-73,-58,-63
-43,-102,-58,73,7,-80,-58,-175,92,-68,-53,-58
-43,-102,-58,73,7,-80,-58,-175,92,-68,-48,-53
-48,-87,-39,68,-4,-63,-48,-175,102,-58,-58,-53
-39,-87,-48,63,4,-68,-53,-175,102,-58,-58,-53
-39,-87,-48,63,4,-68,-53,-180,102,-58,-53,-48
-34,-78,-43,56,4,-61,-53,-180,107,-53,-53,-48
-24,-87,-63,56,19,-75,-68,-180,107,-43,-48,-58
-19,-87,-68,53,24,-78,-73,-180,102,-43,-48,-58
-14,-82,-68,48,26,-75,-73,-190,87,-43,-48,-58
-14,-82,-68,48,26,-75,-73,-190,82,-34,-43,-53
-4,-73,-68,39,31,-70,-87,-200,87,-24,-43,-53
4,-58,-63,26,34,-61,-87,-195,87,-19,-34,-48
9,-43,-53,17,31,-48,-87,-195,87,-14,-29,-39
14,-34,-48,9,31,-41,-92,-200,87,-9,-29,-34
4,-43,-48,19,26,-46,-87,-190,87,0,-29,-29
9,-48,-58,19,34,-53,-92,-190,87,9,-29,-29
14,-58,-73,21,43,-65,-92,-195,87,24,-19,-29
24,-58,-82,17,53,-70,-97,-195,87,29,-14,-29
24,-48,-73,12,48,-61,-112,-204,78,34,-19,-34
29,-43,-73,7,51,-58,-112,-204,78,39,-19,-24
34,-34,-68,0,51,-51,-117,-209,78,43,-19,-19
48,-19,-68,-14,58,-43,-122,-209,78,48,-9,-14
63,-19,-82,-21,73,-51,-117,-209,82,43,0,-14
78,-19,-97,-29,87,-58,-122,-209,82,53,4,-9
82,-19,-102,-31,92,-61,-126,-209,82,58,9,-4
87,-9,-97,-39,92,-53,-141,-214,82,58,14,0
82,-4,-87,-39,85,-46,-141,-214,82,63,9,0
92,0,-92,-46,92,-46,-141,-209,82,63,14,4
87,4,-82,-46,85,-39,-146,-209,82,63,24,9
82,4,-78,-43,80,-36,-151,-209,82,68,24,14
87,4,-82,-46,85,-39,-161,-214,82,73,39,34
107,9,-97,-58,102,-43,-170,-219,82,73,43,34
112,9,-102,-61,107,-46,-170,-219,82,82,48,39
122,14,-107,-68,114,-46,-170,-219,87,82,53,43
122,19,-102,-70,112,-41,-190,-229,78,73,58,43
126,29,-97,-78,112,-34,-200,-239,78,68,63,43
131,34,-97,-82,114,-31,-200,-239,78,68,63,43
131,34,-97,-82,114,-31,-200,-239,82,73,68,48
131,39,-92,-85,112,-26,-204,-239,73,68,63,48
136,53,-82,-95,109,-14,-209,-239,73,68,68,58
141,63,-78,-102,109,-7,-214,-244,73,68,73,58
141,68,-73,-104,107,-2,-219,-248,73,63,73,63
146,63,-82,-104,114,-9,-214,-239,73,53,73,53
151,58,-92,-104,122,-17,-214,-239,78,58,78,58
156,53,-102,-104,129,-24,-214,-244,82,58,78,63
161,58,-102,-109,131,-21,-214,-244,87,58,78,63
151,73,-78,-112,114,-2,-224,-253,87,53,82,73
146,78,-68,-112,107,4,-219,-248,97,53,82,73
141,82,-58,-112,100,12,-219,-248,97,53,87,73
141,87,-53,-114,97,17,-219,-253,102,53,87,73
122,78,-43,-100,82,17,-204,-244,97,63,92,73
117,73,-43,-95,80,14,-200,-239,97,58,92,68
92,68,-24,-80,58,21,-195,-239,102,58,82,63
87,68,-19,-78,53,24,-190,-239,107,53,78,53
92,73,-19,-82,56,26,-185,-244,112,39,73,39
78,78,0,-78,39,39,-175,-239,117,39,73,39
68,78,9,-73,29,43,-170,-229,117,39,68,39
58,68,9,-63,24,39,-165,-224,117,29,58,39
43,53,9,-48,17,31,-146,-214,117,14,53,24
34,39,4,-36,14,21,-141,-209,117,9,53,9
34,34,0,-34,17,17,-131,-209,117,4,43,9
19,29,9,-24,4,19,-117,-204,117,0,43,0
19,29,9,-24,4,19,-117,-209,107,-14,29,-9
4,19,14,-12,-4,17,-112,-209,112,-24,19,-19
-4,14,19,-4,-12,17,-112,-204,112,-29,9,-24
-9,9,19,0,-14,14,-102,-204,112,-29,9,-24
0,19,19,-9,-9,19,-102,-214,97,-43,14,-24
0,19,19,-9,-9,19,-102,-214,97,-48,14,-29
-19,14,34,2,-26,24,-102,-209,97,-48,9,-34
-19,19,39,0,-29,29,-107,-204,97,-53,4,-39
-29,0,29,14,-29,14,-97,-195,97,-58,9,-43
-29,-9,19,19,-24,4,-87,-200,92,-58,4,-48
-39,-24,14,31,-26,-4,-82,-200,92,-63,0,-53
-39,-19,19,29,-29,0,-73,-200,92,-68,0,-53
-39,-9,29,24,-34,9,-82,-204,87,-82,-4,-63
-43,-14,29,29,-36,7,-78,-204,82,-87,-9,-63
-43,-14,29,29,-36,7,-73,-200,78,-92,-14,-63
-43,-9,34,26,-39,12,-73,-200,63,-92,-29,-63
-48,-9,39,29,-43,14,-82,-204,63,-92,-19,-78
-53,-14,39,34,-46,12,-82,-204,63,-97,-19,-78
-53,-24,29,39,-41,2,-82,-204,63,-97,-19,-78
-53,-24,29,39,-41,2,-82,-204,68,-97,-24,-78
-53,-24,29,39,-41,2,-73,-204,68,-97,-24,-82
-58,-29,29,43,-43,0,-68,-204,68,-92,-24,-82
-58,-29,29,43,-43,0,-63,-204,68,-92,-24,-78
-58,-29,29,43,-43,0,-63,-204,68,-92,-24,-78
-48,-29,19,39,-34,-4,-78,-204,58,-92,-24,-92
-53,-29,24,41,-39,-2,-78,-204,53,-92,-24,-92
-53,-29,24,41,-39,-2,-78,-204,53,-92,-24,-97
-48,-29,19,39,-34,-4,-78,-204,53,-92,-24,-97
-48,-24,24,36,-36,0,-68,-195,63,-87,-34,-97
-48,-24,24,36,-36,0,-68,-195,63,-87,-34,-97
-48,-29,19,39,-34,-4,-63,-195,63,-87,-34,-97
-48,-34,14,41,-31,-9,-63,-195,63,-87,-34,-97
-58,-34,24,46,-41,-4,-73,-204,53,-92,-43,-97
-58,-34,24,46,-41,-4,-68,-204,53,-92,-39,-102
-58,-34,24,46,-41,-4,-68,-204,53,-92,-39,-102
-58,-34,24,46,-41,-4,-73,-204,53,-92,-43,-107
-73,-39,34,56,-53,-2,-63,-204,53,-82,-34,-97
-73,-39,34,56,-53,-2,-63,-204,53,-78,-29,-92
-73,-39,34,56,-53,-2,-63,-204,53,-78,-24,-92
-78,-43,34,61,-56,-4,-63,-204,53,-78,-19,-92
-63,-39,24,51,-43,-7,-63,-200,48,-78,-29,-102
-58,-34,24,46,-41,-4,-58,-200,53,-78,-29,-102
-53,-34,19,43,-36,-7,-58,-204,53,-73,-29,-102
-48,-29,19,39,-34,-4,-63,-204,53,-68,-29,-102
-58,-34,24,46,-41,-4,-73,-214,43,-68,-39,-112
-63,-29,34,46,-48,2,-73,-214,43,-63,-39,-112
-68,-29,39,48,-53,4,-73,-214,43,-58,-39,-112
-78,-34,43,56,-61,4,-73,-214,39,-58,-39,-112
-73,-34,39,53,-56,2,-63,-214,39,-68,-29,-102
-68,-34,34,51,-51,0,-63,-214,39,-63,-29,-102
-63,-34,29,48,-46,-2,-68,-214,39,-63,-34,-102
-58,-34,24,46,-41,-4,-68,-214,39,-58,-34,-107
-58,-34,24,46,-41,-4,-58,-214,39,-58,-43,-117
-58,-34,24,46,-41,-4,-58,-214,39,-53,-39,-112
-63,-43,19,53,-41,-12,-48,-214,39,-53,-39,-112
-63,-43,19,53,-41,-12,-48,-214,43,-48,-39,-112
-68,-43,24,56,-46,-9,-58,-214,39,-53,-39,-117
-73,-34,39,53,-56,2,-58,-214,29,-58,-39,-122
-68,-34,34,51,-51,0,-58,-214,24,-63,-39,-126
-82,-34,48,58,-65,7,-58,-214,19,-63,-39,-131
-73,-53,19,63,-46,-17,-48,-209,29,-53,-39,-122
-73,-53,19,63,-46,-17,-48,-209,29,-63,-39,-122
-68,-48,19,58,-43,-14,-53,-214,29,-63,-39,-122
-68,-48,19,58,-43,-14,-53,-214,29,-63,-39,-122
-68,-53,14,61,-41,-19,-48,-214,29,-58,-39,-122
-68,-53,14,61,-41,-19,-48,-214,29,-58,-39,-122
-68,-34,34,51,-51,0,-53,-214,29,-58,-39,-126
-68,-43,24,56,-46,-9,-53,-214,29,-58,-39,-126
-58,-39,19,48,-39,-9,-48,-214,19,-48,-24,-112
-58,-39,19,48,-39,-9,-48,-214,19,-48,-24,-112
-58,-34,24,46,-41,-4,-48,-214,19,-53,-29,-112
-58,-34,24,46,-41,-4,-48,-209,19,-53,-29,-112
-68,-43,24,56,-46,-9,-53,-209,19,-58,-39,-117
-68,-43,24,56,-46,-9,-53,-209,19,-58,-39,-122
-68,-43,24,56,-46,-9,-53,-209,19,-63,-34,-126
-68,-39,29,53,-48,-4,-58,-214,19,-68,-34,-131
-63,-29,34,46,-48,2,-58,-214,14,-63,-34,-126
-58,-34,24,46,-41,-4,-58,-214,14,-63,-34,-126
-53,-48,4,51,-29,-21,-58,-209,19,-63,-34,-126
-48,-48,0,48,-24,-24,-58,-209,19,-68,-34,-126
-48,-43,4,46,-26,-19,-43,-200,19,-68,-34,-126
-48,-43,4,46,-26,-19,-43,-204,19,-73,-34,-126
-48,-39,9,43,-29,-14,-43,-204,19,-78,-34,-126
-43,-39,4,41,-24,-17,-43,-204,19,-82,-39,-131
-48,-43,4,46,-26,-19,-53,-214,9,-82,-48,-141
-53,-48,4,51,-29,-21,-58,-214,9,-78,-43,-136
-58,-53,4,56,-31,-24,-58,-214,9,-78,-43,-136
-63,-63,0,63,-31,-31,-58,-209,9,-82,-43,-136
-48,-43,4,46,-26,-19,-48,-200,0,-82,-34,-117
-58,-24,34,41,-46,4,-48,-209,9,-73,-24,-117
-78,-48,29,63,-53,-9,-48,-204,9,-73,-34,-126
-68,-78,-9,73,-29,-43,-48,-195,9,-78,-29,-126
-58,-73,-14,65,-21,-43,-58,-204,4,-78,-39,-126
-58,-68,-9,63,-24,-39,-58,-204,0,-78,-39,-126
-58,-63,-4,61,-26,-34,-58,-204,-4,-78,-39,-126
-58,-58,0,58,-29,-29,-58,-204,-9,-78,-39,-126
-58,-53,4,56,-31,-24,-53,-204,-9,-68,-29,-126
-58,-53,4,56,-31,-24,-53,-204,-9,-68,-29,-126
-58,-48,9,53,-34,-19,-53,-204,-9,-73,-29,-126
-58,-43,14,51,-36,-14,-53,-204,-9,-73,-29,-126
-53,-58,-4,56,-24,-31,-53,-214,-19,-73,-43,-131
-48,-58,-9,53,-19,-34,-53,-214,-19,-78,-48,-141
-43,-58,-14,51,-14,-36,-53,-214,-19,-78,-53,-146
-39,-58,-19,48,-9,-39,-53,-214,-19,-82,-53,-151
-48,-48,0,48,-24,-24,-53,-204,-24,-78,-48,-136
-48,-48,0,48,-24,-24,-53,-204,-24,-73,-43,-136
-43,-48,-4,46,-19,-26,-53,-204,-24,-68,-48,-141
-43,-48,-4,46,-19,-26,-53,-204,-29,-63,-43,-141
-43,-43,0,43,-21,-21,-63,-204,-39,-63,-53,-131
-43,-43,0,43,-21,-21,-63,-204,-39,-63,-53,-131
-48,-39,9,43,-29,-14,-63,-204,-39,-63,-53,-136
-48,-39,9,43,-29,-14,-63,-214,-39,-63,-63,-146
-53,-58,-4,56,-24,-31,-63,-214,-39,-68,-68,-151
-58,-63,-4,61,-26,-34,-63,-209,-39,-63,-68,-151
-63,-73,-9,68,-26,-41,-63,-209,-39,-68,-68,-156
-68,-78,-9,73,-29,-43,-63,-209,-39,-73,-73,-156
-63,-73,-9,68,-26,-41,-63,-219,-34,-58,-68,-151
-58,-68,-9,63,-24,-39,-63,-219,-34,-53,-63,-146
-53,-53,0,53,-26,-26,-68,-219,-34,-48,-58,-141
-48,-39,9,43,-29,-14,-68,-219,-34,-39,-53,-136
-58,-34,24,46,-41,-4,-63,-209,-29,-48,-53,-141
-58,-34,24,46,-41,-4,-63,-204,-19,-39,-43,-136
-58,-24,34,41,-46,4,-53,-195,-14,-34,-43,-136
-53,-9,43,31,-48,17,-48,-185,-9,-29,-39,-131
-34,-9,24,21,-29,7,-39,-170,-4,-9,-19,-112
-34,0,34,17,-34,17,-39,-161,4,-4,-14,-107
-24,9,34,7,-29,21,-34,-151,19,4,-9,-102
-24,19,43,2,-34,31,-24,-136,34,14,-4,-97
-29,29,58,0,-43,43,0,-112,53,14,0,-92
-29,29,58,0,-43,43,24,-87,63,14,4,-92
-14,29,43,-7,-29,36,43,-63,73,14,4,-92
-14,34,48,-9,-31,41,43,-48,78,14,9,-87
-24,43,68,-9,-46,56,29,-63,73,9,0,-87
-24,63,87,-19,-56,75,24,-78,87,24,4,-78
-19,68,87,-24,-53,78,14,-87,102,34,24,-68
-14,73,87,-29,-51,80,4,-102,102,39,24,-63
-19,92,112,-36,-65,102,-24,-122,97,29,24,-68
-19,97,117,-39,-68,107,-43,-151,92,24,24,-68
-19,97,117,-39,-68,107,-78,-204,78,19,24,-73
-19,92,112,-36,-65,102,-122,-244,58,14,14,-78
-14,78,92,-31,-53,85,-151,-258,29,-4,4,-87
-14,48,63,-17,-39,56,-161,-273,9,-19,-9,-102
-19,29,48,-4,-34,39,-161,-283,-14,-43,-19,-107
-24,19,43,2,-34,31,-165,-287,-34,-73,-34,-112
-14,29,43,-7,-29,36,-161,-283,-39,-82,-29,-112
-14,29,43,-7,-29,36,-156,-283,-48,-87,-34,-112
-14,34,48,-9,-31,41,-161,-283,-48,-92,-34,-112
-14,29,43,-7,-29,36,-146,-283,-48,-97,-39,-107
-34,4,39,14,-36,21,-136,-268,-63,-102,-53,-122
-39,-24,14,31,-26,-4,-117,-258,-68,-107,-58,-126
-43,-48,-4,46,-19,-26,-102,-248,-78,-112,-63,-136
-48,-87,-39,68,-4,-63,-87,-239,-82,-122,-68,-146
-43,-87,-43,65,0,-65,-82,-244,-82,-117,-58,-141
-68,-82,-14,75,-26,-48,-68,-239,-82,-117,-58,-141
-68,-78,-9,73,-29,-43,-58,-234,-82,-131,-63,-146
-68,-78,-9,73,-29,-43,-58,-229,-92,-141,-78,-156
-58,-97,-39,78,-9,-68,-43,-224,-97,-151,-82,-170
-58,-102,-43,80,-7,-73,-43,-219,-97,-151,-82,-170
-58,-112,-53,85,-2,-82,-29,-214,-97,-151,-87,-170
-63,-122,-58,92,-2,-90,-24,-214,-107,-151,-92,-175
-73,-112,-39,92,-17,-75,-19,-204,-97,-151,-97,-175
-73,-112,-39,92,-17,-75,-19,-204,-102,-156,-97,-180
-78,-117,-39,97,-19,-78,-19,-200,-102,-156,-102,-185
-87,-122,-34,104,-26,-78,-19,-200,-102,-156,-102,-185
-78,-126,-48,102,-14,-87,-19,-214,-112,-151,-107,-190
-73,-126,-53,100,-9,-90,-19,-214,-117,-156,-107,-190
-73,-131,-58,102,-7,-95,-14,-214,-117,-156,-107,-190
-82,-141,-58,112,-12,-100,-9,-214,-112,-156,-107,-185
-92,-141,-48,117,-21,-95,-14,-209,-112,-156,-117,-185
-92,-136,-43,114,-24,-90,-14,-209,-112,-156,-122,-185
-92,-131,-39,112,-26,-85,-14,-214,-122,-156,-122,-185
-97,-126,-29,112,-34,-78,-14,-214,-122,-156,-122,-190
-87,-141,-53,114,-17,-97,-4,-204,-122,-151,-112,-185
-87,-141,-53,114,-17,-97,-4,-200,-122,-146,-112,-185
-87,-136,-48,112,-19,-92,0,-200,-122,-141,-112,-185
-87,-136,-48,112,-19,-92,0,-200,-122,-136,-112,-185
-87,-136,-48,112,-19,-92,-4,-200,-117,-131,-112,-180
-87,-141,-53,114,-17,-97,-4,-195,-117,-131,-112,-180
-87,-146,-58,117,-14,-102,4,-195,-112,-131,-112,-175
-87,-146,-58,117,-14,-102,4,-195,-112,-131,-112,-175
-82,-141,-58,112,-12,-100,4,-185,-112,-131,-131,-195
-73,-156,-82,114,4,-119,14,-170,-117,-141,-146,-209
-82,-170,-87,126,2,-129,34,-156,-107,-122,-141,-214
-73,-170,-97,122,12,-134,34,-136,-82,-92,-112,-204
-58,-151,-92,104,17,-122,24,-136,-53,-58,-82,-175
-43,-126,-82,85,19,-104,-14,-170,-43,-19,-39,-146
-19,-87,-68,53,24,-78,-68,-214,-39,43,14,-102
34,-19,-53,-7,43,-36,-122,-258,-9,112,82,-19
131,73,-58,-102,95,7,-195,-307,-4,170,156,53
258,170,-87,-214,173,41,-283,-356,-4,229,239,151
346,253,-92,-300,219,80,-380,-424,14,317,341,263
370,341,-29,-356,200,156,-453,-507,34,380,434,361
414,463,48,-439,183,256,-517,-580,39,439,522,458
531,585,53,-558,239,319,-590,-610,53,527,658,600
639,712,73,-675,283,392,-688,-658,63,614,780,727
658,863,204,-761,226,534,-766,-732,53,644,854,839
590,951,361,-771,114,656,-800,-795,53,644,902,912
512,976,463,-744,24,719,-775,-814,43,605,873,917
419,966,546,-692,-63,756,-732,-824,14,531,805,854
278,961,683,-619,-202,822,-697,-839,14,473,751,800
151,922,771,-536,-309,846,-644,-858,4,370,649,717
63,878,814,-470,-375,846,-561,-819,-19,239,512,590
-29,814,844,-392,-436,829,-448,-727,-9,141,390,463
-122,702,824,-290,-473,763,-336,-639,9,53,273,336
-165,570,736,-202,-451,653,-263,-580,-9,-58,131,190
-200,473,673,-136,-436,573,-195,-527,-19,-136,14,78
-253,380,634,-63,-444,507,-112,-458,14,-146,-43,0
-263,302,566,-19,-414,434,-48,-414,19,-165,-73,-39
-273,224,497,24,-385,361,-39,-419,-29,-195,-102,-87
-273,175,448,48,-361,312,-58,-448,-87,-224,-141,-126
-273,131,405,70,-339,268,-97,-488,-131,-229,-136,-141
-253,112,366,70,-309,239,-146,-517,-161,-229,-141,-156
-229,87,317,70,-273,202,-161,-522,-185,-234,-165,-175
-204,39,244,82,-224,141,-151,-497,-195,-224,-175,-200
-195,-14,180,104,-187,82,-131,-463,-200,-209,-165,-200
-180,-39,141,109,-161,51,-112,-424,-190,-180,-151,-190
-141,-29,112,85,-126,41,-92,-366,-180,-151,-131,-190
-122,-39,82,80,-102,21,-73,-317,-175,-141,-131,-190
-107,-78,29,92,-68,-24,-53,-273,-170,-156,-131,-204
-102,-107,-4,104,-48,-56,-24,-234,-165,-161,-141,-204
-107,-97,9,102,-58,-43,-4,-204,-151,-146,-131,-200
-102,-102,0,102,-51,-51,-4,-204,-136,-126,-126,-190
-97,-107,-9,102,-43,-58,-4,-209,-136,-131,-131,-200
-92,-117,-24,104,-34,-70,-14,-214,-136,-126,-131,-200
-82,-117,-34,100,-24,-75,-19,-219,-141,-126,-131,-200
-78,-117,-39,97,-19,-78,-19,-219,-141,-126,-131,-190
-78,-126,-48,102,-14,-87,-14,-209,-151,-126,-131,-200
-78,-131,-53,104,-12,-92,-9,-200,-146,-126,-131,-204
-78,-141,-63,109,-7,-102,-4,-190,-146,-131,-131,-204
-82,-156,-73,119,-4,-114,4,-190,-146,-131,-131,-209
-82,-151,-68,117,-7,-109,4,-195,-136,-141,-131,-209
-73,-136,-63,104,-4,-100,-4,-204,-136,-141,-131,-209
-68,-131,-63,100,-2,-97,-9,-204,-141,-151,-131,-200
-63,-126,-63,95,0,-95,-14,-204,-141,-151,-131,-200
-63,-136,-73,100,4,-104,-14,-195,-141,-156,-131,-209
-63,-136,-73,100,4,-104,-9,-190,-141,-165,-131,-214
-63,-136,-73,100,4,-104,-9,-185,-141,-165,-131,-214
-63,-136,-73,100,4,-104,-9,-185,-141,-165,-131,-209
-63,-136,-73,100,4,-104,-9,-195,-141,-175,-122,-200
-63,-141,-78,102,7,-109,-9,-200,-141,-175,-122,-209
-63,-141,-78,102,7,-109,-9,-204,-141,-180,-122,-209
-53,-141,-87,97,17,-114,-14,-204,-136,-185,-117,-204
-53,-136,-82,95,14,-109,-14,-195,-146,-195,-126,-204
-58,-136,-78,97,9,-107,-14,-190,-146,-195,-126,-204
-58,-131,-73,95,7,-102,-14,-190,-146,-195,-126,-204
-58,-131,-73,95,7,-102,-14,-190,-146,-195,-126,-204
-48,-131,-82,90,17,-107,-14,-190,-136,-195,-122,-195
-43,-131,-87,87,21,-109,-14,-190,-131,-190,-117,-195
-43,-131,-87,87,21,-109,-14,-190,-126,-190,-117,-190
-48,-136,-87,92,19,-112,-19,-190,-126,-190,-112,-190
-53,-136,-82,95,14,-109,-9,-200,-126,-180,-122,-195
-43,-126,-82,85,19,-104,-14,-200,-131,-180,-122,-195
-48,-126,-78,87,14,-102,-14,-200,-131,-180,-122,-195
-53,-126,-73,90,9,-100,-14,-200,-131,-180,-122,-190
-43,-117,-73,80,14,-95,-24,-200,-122,-170,-112,-175
-43,-131,-87,87,21,-109,-24,-200,-117,-165,-107,-175
-43,-131,-87,87,21,-109,-24,-200,-117,-165,-107,-175
-43,-131,-87,87,21,-109,-29,-204,-117,-165,-107,-175
-43,-136,-92,90,24,-114,-34,-204,-112,-156,-102,-175
-39,-131,-92,85,26,-112,-34,-204,-112,-156,-97,-170
-39,-131,-92,85,26,-112,-34,-204,-107,-156,-92,-165
-34,-131,-97,82,31,-114,-34,-200,-107,-156,-87,-165
-34,-126,-92,80,29,-109,-24,-200,-117,-170,-92,-170
-34,-126,-92,80,29,-109,-29,-200,-117,-175,-97,-175
-34,-126,-92,80,29,-109,-29,-204,-112,-180,-97,-175
-34,-126,-92,80,29,-109,-29,-204,-112,-185,-102,-180
-29,-117,-87,73,29,-102,-48,-214,-122,-185,-102,-175
-29,-102,-73,65,21,-87,-48,-219,-122,-180,-97,-170
-24,-107,-82,65,29,-95,-48,-219,-122,-175,-92,-161
-24,-102,-78,63,26,-90,-48,-224,-122,-175,-87,-151
-19,-107,-87,63,34,-97,-48,-224,-122,-165,-78,-161
-9,-107,-97,58,43,-102,-53,-224,-122,-165,-78,-161
-9,-107,-97,58,43,-102,-53,-229,-122,-165,-73,-156
-4,-97,-92,51,43,-95,-53,-229,-117,-161,-73,-156
4,-87,-92,41,48,-90,-58,-229,-112,-161,-78,-146
9,-87,-97,39,53,-92,-63,-229,-112,-161,-78,-146
14,-82,-97,34,56,-90,-63,-239,-122,-161,-78,-146
14,-82,-97,34,56,-90,-63,-239,-122,-151,-73,-141
9,-92,-102,41,56,-97,-68,-248,-126,-141,-73,-141
14,-97,-112,41,63,-104,-68,-244,-126,-136,-63,-136
14,-102,-117,43,65,-109,-68,-244,-126,-131,-58,-126
14,-112,-126,48,70,-119,-73,-248,-126,-126,-58,-122
29,-97,-126,34,78,-112,-87,-248,-126,-131,-58,-117
39,-87,-126,24,82,-107,-92,-248,-126,-126,-58,-117
48,-82,-131,17,90,-107,-92,-253,-126,-117,-48,-117
63,-68,-131,2,97,-100,-97,-253,-126,-117,-43,-117
58,-68,-126,4,92,-97,-92,-244,-122,-97,-34,-102
58,-73,-131,7,95,-102,-92,-244,-117,-87,-29,-92
58,-73,-131,7,95,-102,-97,-248,-112,-78,-24,-87
68,-68,-136,0,102,-102,-102,-248,-107,-68,-9,-82
78,-58,-136,-9,107,-97,-107,-248,-112,-68,-19,-92
87,-58,-146,-14,117,-102,-112,-248,-112,-63,-14,-87
87,-58,-146,-14,117,-102,-117,-248,-112,-63,-9,-82
87,-48,-136,-19,112,-92,-131,-253,-112,-68,-4,-78
87,-53,-141,-17,114,-97,-141,-258,-122,-73,0,-78
102,-48,-151,-26,126,-100,-141,-258,-122,-73,4,-73
102,-43,-146,-29,124,-95,-146,-263,-122,-73,14,-68
102,-43,-146,-29,124,-95,-151,-268,-122,-68,14,-63
112,-24,-136,-43,124,-80,-151,-263,-117,-53,29,-43
126,-19,-146,-53,136,-82,-161,-268,-112,-53,34,-43
126,-19,-146,-53,136,-82,-161,-268,-107,-43,39,-39
131,-14,-146,-58,139,-80,-161,-268,-97,-43,43,-34
131,-19,-151,-56,141,-85,-170,-268,-107,-53,48,-29
136,-9,-146,-63,141,-78,-180,-278,-107,-58,53,-24
141,-4,-146,-68,143,-75,-180,-278,-107,-58,53,-19
141,-4,-146,-68,143,-75,-180,-278,-102,-53,58,-9
151,0,-151,-75,151,-75,-195,-287,-102,-43,63,-9
156,14,-141,-85,148,-63,-200,-287,-102,-39,68,0
161,24,-136,-92,148,-56,-204,-292,-102,-34,73,0
161,29,-131,-95,146,-51,-209,-297,-102,-34,73,4
156,34,-122,-95,139,-43,-204,-287,-102,-43,73,14
151,29,-122,-90,136,-46,-204,-287,-97,-39,78,19
146,24,-122,-85,134,-48,-204,-292,-92,-39,78,24
141,29,-112,-85,126,-41,-204,-292,-87,-39,78,24
141,34,-107,-87,124,-36,-195,-283,-87,-53,73,14
136,29,-107,-82,122,-39,-190,-278,-78,-53,73,14
131,24,-107,-78,119,-41,-190,-278,-78,-53,78,14
131,19,-112,-75,122,-46,-190,-283,-73,-53,78,14
112,29,-82,-70,97,-26,-185,-273,-68,-58,78,9
107,24,-82,-65,95,-29,-180,-268,-68,-68,73,0
82,19,-63,-51,73,-21,-175,-268,-63,-73,58,-9
78,19,-58,-48,68,-19,-170,-268,-58,-82,48,-24
78,19,-58,-48,68,-19,-156,-263,-43,-87,48,-19
68,19,-48,-43,58,-14,-146,-258,-39,-87,53,-19
63,14,-48,-39,56,-17,-141,-248,-39,-87,53,-19
58,0,-58,-29,58,-29,-136,-244,-39,-97,48,-19
43,-9,-53,-17,48,-31,-126,-244,-39,-112,39,-34
34,-19,-53,-7,43,-36,-122,-239,-39,-117,34,-48
34,-19,-53,-7,43,-36,-112,-239,-39,-122,19,-48
19,-19,-39,0,29,-29,-97,-234,-39,-126,14,-58
19,-9,-29,-4,24,-19,-107,-229,-48,-141,19,-58
4,-19,-24,7,14,-21,-102,-229,-43,-151,9,-68
-4,-24,-19,14,7,-21,-102,-224,-43,-156,0,-73
-9,-29,-19,19,4,-24,-92,-224,-43,-156,0,-73
0,-34,-34,17,17,-34,-78,-214,-39,-170,-4,-73
0,-39,-39,19,19,-39,-73,-214,-39,-175,-4,-78
-19,-48,-29,34,4,-39,-68,-209,-39,-175,-9,-82
-19,-48,-29,34,4,-39,-68,-204,-39,-180,-14,-87
-19,-53,-34,36,7,-43,-73,-204,-48,-195,-29,-92
-19,-58,-39,39,9,-48,-68,-209,-53,-195,-34,-97
-29,-68,-39,48,4,-53,-68,-209,-53,-200,-39,-102
-29,-58,-29,43,0,-43,-63,-209,-53,-204,-39,-102
-29,-63,-34,46,2,-48,-63,-214,-53,-195,-29,-92
-34,-73,-39,53,2,-56,-58,-214,-53,-195,-29,-92
-34,-78,-43,56,4,-61,-53,-209,-53,-195,-29,-92
-34,-78,-43,56,4,-61,-53,-209,-63,-190,-39,-92
-39,-73,-34,56,-2,-53,-43,-209,-58,-190,-29,-102
-43,-73,-29,58,-7,-51,-43,-204,-53,-195,-29,-97
-43,-78,-34,61,-4,-56,-43,-200,-48,-195,-29,-92
-43,-73,-29,58,-7,-51,-43,-195,-39,-195,-34,-87
-39,-68,-29,53,-4,-48,-53,-204,-43,-204,-43,-87
-39,-68,-29,53,-4,-48,-48,-204,-48,-200,-43,-92
-34,-63,-29,48,-2,-46,-43,-204,-53,-200,-43,-92
-29,-58,-29,43,0,-43,-43,-204,-58,-200,-43,-97
-39,-68,-29,53,-4,-48,-48,-204,-48,-190,-43,-102
-43,-68,-24,56,-9,-46,-48,-204,-53,-190,-43,-102
-43,-68,-24,56,-9,-46,-48,-204,-53,-190,-43,-107
-39,-68,-29,53,-4,-48,-48,-204,-53,-190,-43,-107
-39,-68,-29,53,-4,-48,-39,-204,-53,-175,-43,-97
-39,-73,-34,56,-2,-53,-39,-204,-53,-175,-43,-97
-39,-82,-43,61,2,-63,-34,-204,-53,-175,-43,-97
-39,-92,-53,65,7,-73,-34,-204,-53,-175,-43,-97
-48,-87,-39,68,-4,-63,-43,-204,-53,-161,-53,-97
-48,-82,-34,65,-7,-58,-39,-204,-53,-161,-48,-102
-48,-78,-29,63,-9,-53,-39,-204,-53,-161,-48,-102
-48,-73,-24,61,-12,-48,-43,-204,-53,-161,-53,-107
-48,-53,-4,51,-21,-29,-53,-214,-53,-151,-48,-97
-43,-48,-4,46,-19,-26,-53,-214,-53,-146,-48,-92
-39,-43,-4,41,-17,-24,-53,-214,-53,-146,-48,-92
-39,-43,-4,41,-17,-24,-53,-214,-53,-146,-48,-92
-39,-68,-29,53,-4,-48,-39,-204,-39,-141,-48,-82
-39,-82,-43,61,2,-63,-29,-200,-34,-136,-48,-82
-39,-102,-63,70,12,-82,-24,-200,-34,-126,-48,-82
-39,-117,-78,78,19,-97,-24,-195,-34,-117,-48,-82
-48,-107,-58,78,4,-82,-34,-204,-43,-126,-48,-92
-53,-97,-43,75,-4,-70,-34,-204,-43,-122,-48,-92
-58,-92,-34,75,-12,-63,-34,-204,-43,-117,-48,-92
-68,-92,-24,80,-21,-58,-34,-204,-48,-117,-48,-92
-58,-87,-29,73,-14,-58,-34,-204,-48,-117,-58,-102
-58,-82,-24,70,-17,-53,-34,-204,-48,-112,-58,-102
-58,-78,-19,68,-19,-48,-39,-204,-48,-112,-63,-102
-58,-73,-14,65,-21,-43,-39,-204,-48,-107,-63,-107
-48,-82,-34,65,-7,-58,-29,-204,-48,-107,-53,-102
-48,-82,-34,65,-7,-58,-29,-204,-48,-102,-48,-92
-53,-92,-39,73,-7,-65,-19,-204,-48,-102,-48,-87
-53,-92,-39,73,-7,-65,-19,-204,-43,-97,-48,-82
-63,-92,-29,78,-17,-61,-19,-195,-43,-87,-48,-92
-63,-82,-19,73,-21,-51,-19,-195,-48,-87,-48,-92
-53,-82,-29,68,-12,-56,-19,-195,-48,-87,-48,-92
-63,-82,-19,73,-21,-51,-19,-195,-48,-82,-48,-92
-58,-82,-24,70,-17,-53,-19,-180,-39,-73,-48,-82
-53,-82,-29,68,-12,-56,-19,-180,-39,-82,-48,-82
-43,-78,-34,61,-4,-56,-24,-185,-39,-82,-48,-82
-39,-78,-39,58,0,-58,-24,-185,-39,-82,-48,-82
-53,-97,-43,75,-4,-70,-29,-195,-48,-73,-39,-73
-58,-102,-43,80,-7,-73,-29,-195,-48,-68,-39,-73
-63,-87,-24,75,-19,-56,-34,-195,-48,-63,-39,-78
-68,-102,-34,85,-17,-68,-34,-195,-48,-58,-39,-78
-63,-102,-39,82,-12,-70,-19,-185,-39,-63,-39,-82
-58,-97,-39,78,-9,-68,-19,-185,-39,-68,-43,-82
-53,-87,-34,70,-9,-61,-19,-185,-39,-78,-53,-82
-48,-82,-34,65,-7,-58,-19,-180,-39,-82,-58,-82
-58,-92,-34,75,-12,-63,-24,-190,-39,-82,-48,-82
-58,-92,-34,75,-12,-63,-24,-190,-39,-78,-48,-82
-58,-92,-34,75,-12,-63,-24,-190,-39,-78,-43,-82
-58,-87,-29,73,-14,-58,-29,-195,-39,-78,-43,-82
-53,-73,-19,63,-17,-46,-19,-185,-34,-73,-43,-73
-48,-73,-24,61,-12,-48,-19,-185,-34,-73,-43,-68
-43,-82,-39,63,-2,-61,-19,-180,-29,-73,-43,-63
-39,-78,-39,58,0,-58,-19,-180,-29,-78,-43,-58
-39,-87,-48,63,4,-68,-24,-180,-29,-78,-43,-68
-39,-92,-53,65,7,-73,-24,-185,-29,-82,-43,-68
-39,-92,-53,65,7,-73,-24,-185,-29,-87,-43,-68
-34,-97,-63,65,14,-80,-24,-185,-29,-92,-48,-73
-43,-92,-48,68,2,-70,-24,-185,-29,-102,-58,-73
-43,-87,-43,65,0,-65,-29,-185,-29,-97,-53,-68
-43,-82,-39,63,-2,-61,-29,-185,-29,-97,-53,-68
-43,-82,-39,63,-2,-61,-29,-180,-29,-102,-53,-68
-29,-53,-24,41,-2,-39,-39,-190,-29,-92,-53,-58
-48,-63,-14,56,-17,-39,-39,-190,-29,-82,-43,-58
-58,-107,-48,82,-4,-78,-29,-185,-19,-73,-34,-58
-43,-117,-73,80,14,-95,-29,-185,-29,-78,-39,-68
-39,-97,-58,68,9,-78,-29,-185,-29,-97,-58,-68
-48,-102,-53,75,2,-78,-19,-175,-29,-97,-48,-68
-48,-107,-58,78,4,-82,-19,-175,-29,-97,-48,-68
-48,-112,-63,80,7,-87,-19,-175,-29,-97,-48,-68
-48,-117,-68,82,9,-92,-19,-175,-29,-97,-48,-68
-48,-107,-58,78,4,-82,-24,-185,-39,-97,-58,-78
-48,-112,-63,80,7,-87,-24,-185,-39,-97,-58,-78
-48,-112,-63,80,7,-87,-24,-185,-39,-102,-58,-78
-48,-112,-63,80,7,-87,-24,-185,-39,-102,-58,-78
-43,-112,-68,78,12,-90,-24,-175,-29,-87,-48,-63
-39,-107,-68,73,14,-87,-24,-175,-29,-87,-48,-63
-34,-102,-68,68,17,-85,-24,-175,-29,-82,-48,-58
-29,-97,-68,63,19,-82,-24,-175,-29,-82,-43,-53
-43,-112,-68,78,12,-90,-34,-185,-34,-82,-43,-53
-48,-117,-68,82,9,-92,-34,-185,-34,-82,-43,-58
-48,-122,-73,85,12,-97,-34,-185,-34,-82,-53,-68
-53,-126,-73,90,9,-100,-34,-185,-39,-82,-53,-73
-43,-126,-82,85,19,-104,-24,-175,-39,-87,-63,-68
-43,-122,-78,82,17,-100,-24,-175,-39,-92,-63,-63
-48,-112,-63,80,7,-87,-24,-175,-39,-97,-63,-63
-48,-107,-58,78,4,-82,-24,-185,-39,-102,-73,-68
-39,-112,-73,75,17,-92,-14,-185,-29,-97,-63,-78
-39,-112,-73,75,17,-92,-14,-180,-29,-82,-58,-73
-39,-117,-78,78,19,-97,-14,-180,-29,-78,-53,-73
-39,-117,-78,78,19,-97,-14,-180,-29,-73,-53,-68
-43,-112,-68,78,12,-90,-24,-180,-34,-73,-63,-58
-48,-107,-58,78,4,-82,-24,-180,-34,-73,-63,-58
-53,-92,-39,73,-7,-65,-29,-180,-34,-73,-63,-58
-58,-78,-19,68,-19,-48,-29,-180,-34,-68,-63,-58
-53,-78,-24,65,-14,-51,-14,-180,-24,-58,-58,-53
-48,-82,-34,65,-7,-58,-14,-175,-9,-48,-43,-48
-43,-78,-34,61,-4,-56,-4,-165,0,-43,-39,-48
-34,-68,-34,51,0,-51,0,-156,9,-39,-29,-43
-34,-53,-19,43,-7,-36,0,-141,4,-29,-29,-34
-34,-39,-4,36,-14,-21,0,-131,14,-24,-24,-29
-24,-24,0,24,-12,-12,4,-122,29,-14,-19,-24
-24,-9,14,17,-19,2,14,-107,43,-4,-14,-19
-19,-14,4,17,-12,-4,39,-92,43,0,-19,-24
-19,-19,0,19,-9,-9,63,-68,53,-4,-14,-24
-4,-24,-19,14,7,-21,82,-43,63,-9,-14,-24
-4,-24,-19,14,7,-21,82,-29,68,-14,-9,-19
-24,-14,9,19,-17,-2,68,-39,63,-9,-9,-9
-24,4,29,9,-26,17,63,-48,78,4,-4,0
-19,9,29,4,-24,19,53,-53,92,14,14,9
-14,14,29,0,-21,21,43,-63,92,19,14,14
-19,24,43,-2,-31,34,19,-92,82,19,14,4
-19,29,48,-4,-34,39,-4,-122,82,14,14,9
-19,29,48,-4,-34,39,-43,-175,73,9,14,9
-19,24,43,-2,-31,34,-92,-214,58,4,4,9
-14,34,48,-9,-31,41,-102,-234,39,0,4,0
-14,9,24,2,-19,17,-112,-244,19,-9,-9,-14
-19,-4,14,12,-17,4,-112,-248,-4,-29,-19,-19
-24,-9,14,17,-19,2,-117,-248,-24,-53,-34,-24
-24,-19,4,21,-14,-7,-112,-244,-29,-63,-39,-29
-24,-29,-4,26,-9,-17,-107,-244,-39,-68,-43,-34
-24,-34,-9,29,-7,-21,-112,-244,-39,-73,-43,-39
-24,-48,-24,36,0,-36,-97,-244,-39,-78,-48,-39
-34,-43,-9,39,-12,-26,-92,-229,-53,-73,-53,-39
-39,-53,-14,46,-12,-34,-78,-219,-58,-78,-58,-39
-43,-58,-14,51,-14,-36,-68,-209,-68,-82,-63,-43
-48,-78,-29,63,-9,-53,-58,-200,-73,-92,-68,-48
-43,-102,-58,73,7,-80,-43,-185,-82,-87,-58,-48
-68,-112,-43,90,-12,-78,-29,-180,-82,-87,-58,-53
-68,-122,-53,95,-7,-87,-19,-175,-82,-102,-63,-63
-68,-136,-68,102,0,-102,-19,-170,-92,-112,-78,-78
-58,-131,-73,95,7,-102,-4,-165,-87,-112,-92,-82
-58,-131,-73,95,7,-102,-4,-161,-87,-112,-92,-82
-58,-136,-78,97,9,-107,9,-156,-87,-112,-97,-82
-63,-141,-78,102,7,-109,14,-156,-97,-112,-102,-87
-53,-151,-97,102,21,-124,19,-156,-97,-112,-97,-87
-53,-151,-97,102,21,-124,19,-156,-102,-117,-97,-92
-58,-156,-97,107,19,-126,19,-151,-102,-117,-102,-97
-68,-161,-92,114,12,-126,19,-151,-102,-117,-102,-97
-68,-151,-82,109,7,-117,19,-156,-102,-117,-107,-92
-63,-146,-82,104,9,-114,19,-156,-107,-117,-107,-92
-63,-146,-82,104,9,-114,24,-156,-107,-112,-107,-92
-73,-151,-78,112,2,-114,29,-156,-102,-107,-107,-87
-82,-146,-63,114,-9,-104,24,-151,-102,-97,-117,-97
-82,-146,-63,114,-9,-104,24,-151,-102,-97,-122,-97
-82,-146,-63,114,-9,-104,24,-156,-112,-97,-122,-97
-87,-146,-58,117,-14,-102,24,-156,-112,-97,-122,-102
-87,-161,-73,124,-7,-117,24,-165,-122,-87,-122,-97
-87,-161,-73,124,-7,-117,24,-161,-122,-87,-122,-97
-87,-156,-68,122,-9,-112,29,-161,-122,-87,-122,-97
-87,-156,-68,122,-9,-112,29,-161,-122,-87,-122,-97
-87,-165,-78,126,-4,-122,34,-156,-117,-78,-122,-102
-87,-170,-82,129,-2,-126,34,-146,-117,-73,-122,-102
-87,-175,-87,131,0,-131,43,-141,-112,-68,-122,-97
-87,-175,-87,131,0,-131,43,-136,-112,-63,-122,-97
-73,-180,-107,126,17,-143,43,-136,-112,-73,-131,-117
-53,-185,-131,119,39,-158,53,-131,-117,-73,-146,-122
-73,-200,-126,136,26,-163,63,-107,-107,-53,-141,-126
-82,-209,-126,146,21,-168,63,-97,-82,-24,-122,-126
-58,-161,-102,109,21,-131,63,-97,-53,9,-112,-107
-34,-146,-112,90,39,-129,43,-122,-34,58,-78,-68
-9,-146,-136,78,63,-141,0,-156,-9,131,-4,-14
43,-58,-102,7,73,-80,-63,-200,0,190,63,58
112,53,-58,-82,85,-2,-136,-258,4,248,136,141
200,112,-87,-156,143,12,-234,-307,-4,317,229,229
307,165,-141,-236,224,12,-322,-356,24,414,341,341
370,302,-68,-336,219,117,-405,-429,53,488,444,458
414,463,48,-439,183,256,-468,-512,68,536,531,556
492,566,73,-529,209,319,-551,-570,82,614,629,668
580,663,82,-622,248,373,-639,-619,82,702,732,795
619,834,214,-727,202,524,-717,-692,73,751,834,927
590,971,380,-780,104,675,-751,-746,73,780,912,1029
512,966,453,-739,29,710,-746,-785,63,751,912,1044
429,956,527,-692,-48,741,-712,-785,24,678,854,980
326,1010,683,-668,-178,846,-668,-790,14,600,780,927
200,980,780,-590,-290,880,-614,-800,14,517,688,863
53,858,805,-456,-375,832,-531,-780,19,405,570,746
-68,775,844,-353,-456,810,-448,-717,19,297,419,600
-131,732,863,-300,-497,797,-336,-649,19,180,273,463
-165,629,795,-231,-480,712,-234,-570,9,68,141,346
-200,463,663,-131,-431,563,-156,-507,0,9,43,214
-244,361,605,-58,-424,483,-82,-439,14,-19,-14,126
-263,331,595,-34,-429,463,-19,-375,29,-48,-53,78
-263,253,517,4,-390,385,0,-361,-9,-87,-102,29
-263,146,409,58,-336,278,-19,-390,-68,-117,-141,-29
-253,112,366,70,-309,239,-48,-439,-112,-112,-165,-53
-244,122,366,61,-305,244,-97,-488,-151,-122,-180,-68
-229,117,346,56,-287,231,-112,-492,-175,-126,-185,-87
-214,29,244,92,-229,136,-102,-478,-185,-117,-185,-102
-195,-24,170,109,-183,73,-82,-434,-190,-92,-165,-92
-151,0,151,75,-151,75,-73,-375,-190,-73,-151,-82
-122,-29,92,75,-107,31,-53,-317,-170,-34,-151,-82
-102,-78,24,90,-63,-26,-24,-258,-156,-4,-141,-82
-78,-78,0,78,-39,-39,14,-204,-131,0,-131,-78
-102,-107,-4,104,-48,-56,34,-185,-117,4,-141,-87
-117,-146,-29,131,-43,-87,34,-185,-122,0,-151,-112
-82,-112,-29,97,-26,-70,53,-175,-117,0,-146,-102
-78,-107,-29,92,-24,-68,48,-165,-126,-4,-141,-102
-73,-117,-43,95,-14,-80,34,-165,-126,0,-141,-102
-63,-117,-53,90,-4,-85,24,-165,-131,0,-141,-102
-58,-117,-58,87,0,-87,19,-161,-131,0,-141,-92
-63,-131,-68,97,2,-100,34,-151,-122,9,-131,-92
-68,-141,-73,104,2,-107,39,-141,-117,9,-131,-97
-73,-156,-82,114,4,-119,43,-131,-117,4,-131,-97
-82,-175,-92,129,4,-134,53,-131,-117,4,-131,-102
-78,-170,-92,124,7,-131,43,-126,-117,-4,-131,-112
-63,-156,-92,109,14,-124,34,-136,-117,-4,-131,-112
-53,-151,-97,102,21,-124,29,-136,-122,-14,-131,-102
-43,-146,-102,95,29,-124,24,-136,-122,-14,-131,-102
-43,-141,-97,92,26,-119,24,-131,-122,-19,-131,-102
-43,-136,-92,90,24,-114,29,-131,-122,-29,-131,-107
-43,-131,-87,87,21,-109,29,-131,-122,-29,-131,-107
-43,-126,-82,85,19,-104,29,-136,-122,-29,-131,-102
-53,-141,-87,97,17,-114,39,-131,-112,-29,-122,-97
-53,-151,-97,102,21,-124,39,-131,-112,-29,-122,-102
-53,-156,-102,104,24,-129,39,-131,-112,-34,-122,-97
-43,-161,-117,102,36,-139,34,-126,-107,-39,-117,-87
-53,-151,-97,102,21,-124,24,-136,-117,-48,-126,-97
-58,-146,-87,102,14,-117,24,-131,-117,-48,-126,-97
-58,-136,-78,97,9,-107,24,-131,-117,-48,-126,-97
-58,-131,-73,95,7,-102,24,-131,-117,-48,-126,-97
-58,-131,-73,95,7,-102,34,-131,-117,-48,-112,-87
-53,-131,-78,92,12,-104,34,-131,-112,-43,-107,-87
-53,-131,-78,92,12,-104,34,-131,-107,-43,-107,-82
-58,-136,-78,97,9,-107,29,-131,-107,-43,-102,-82
-68,-146,-78,107,4,-112,19,-131,-107,-53,-112,-87
-53,-146,-92,100,19,-119,14,-131,-112,-53,-112,-87
-53,-156,-102,104,24,-129,14,-131,-112,-53,-112,-87
-53,-165,-112,109,29,-139,14,-131,-112,-53,-112,-82
-48,-146,-97,97,24,-122,24,-131,-112,-43,-102,-68
-43,-151,-107,97,31,-129,24,-131,-107,-39,-97,-68
-39,-141,-102,90,31,-122,24,-131,-107,-39,-97,-68
-34,-131,-97,82,31,-114,19,-136,-107,-39,-97,-68
-43,-126,-82,85,19,-104,4,-136,-112,-39,-107,-73
-39,-122,-82,80,21,-102,4,-136,-112,-39,-107,-73
-39,-122,-82,80,21,-102,4,-136,-107,-39,-107,-73
-34,-122,-87,78,26,-104,4,-131,-107,-39,-107,-78
-24,-117,-92,70,34,-104,14,-131,-107,-48,-97,-68
-24,-117,-92,70,34,-104,9,-131,-107,-48,-97,-68
-24,-117,-92,70,34,-104,9,-136,-102,-48,-92,-63
-24,-117,-92,70,34,-104,9,-136,-102,-48,-92,-63
-29,-112,-82,70,26,-97,-9,-151,-112,-39,-102,-73
-29,-102,-73,65,21,-87,-9,-151,-112,-34,-97,-73
-24,-112,-87,68,31,-100,-9,-146,-112,-29,-92,-68
-24,-112,-87,68,31,-100,-9,-146,-112,-29,-87,-63
-29,-107,-78,68,24,-92,-9,-136,-112,-29,-78,-53
-19,-107,-87,63,34,-97,-14,-136,-112,-29,-78,-53
-19,-107,-87,63,34,-97,-14,-141,-112,-29,-73,-48
-14,-97,-82,56,34,-90,-14,-141,-107,-24,-73,-48
-4,-107,-102,56,48,-104,-19,-141,-102,-14,-68,-48
0,-107,-107,53,53,-107,-24,-141,-102,-14,-68,-48
4,-102,-107,48,56,-104,-24,-151,-112,-14,-68,-48
4,-102,-107,48,56,-104,-24,-151,-112,-4,-63,-43
14,-102,-117,43,65,-109,-29,-151,-117,-4,-63,-53
24,-97,-122,36,73,-109,-29,-146,-117,0,-53,-48
29,-92,-122,31,75,-107,-29,-146,-117,4,-48,-39
34,-92,-126,29,80,-109,-34,-151,-117,9,-48,-34
34,-92,-126,29,80,-109,-29,-151,-107,24,-43,-24
39,-87,-126,24,82,-107,-34,-151,-107,29,-39,-19
43,-87,-131,21,87,-109,-34,-156,-107,39,-24,-14
53,-78,-131,12,92,-104,-39,-156,-107,39,-14,-9
43,-82,-126,19,85,-104,-53,-156,-107,34,-19,-9
48,-82,-131,17,90,-107,-53,-156,-107,39,-19,-4
53,-78,-131,12,92,-104,-58,-161,-107,43,-19,-4
68,-68,-136,0,102,-102,-63,-161,-107,48,-9,-4
78,-53,-131,-12,104,-92,-78,-170,-107,53,-9,-4
87,-48,-136,-19,112,-92,-82,-170,-112,63,-4,0
87,-43,-131,-21,109,-87,-87,-170,-117,68,0,4
87,-29,-117,-29,102,-73,-102,-175,-122,68,4,9
97,-34,-131,-31,114,-82,-92,-165,-112,78,19,19
112,-29,-141,-41,126,-85,-92,-161,-112,82,24,24
112,-24,-136,-43,124,-80,-97,-161,-112,87,34,29
112,-24,-136,-43,124,-80,-102,-161,-112,97,34,34
112,-24,-136,-43,124,-80,-112,-165,-102,92,29,43
126,-19,-146,-53,136,-82,-122,-170,-102,92,34,43
126,-19,-146,-53,136,-82,-122,-170,-102,102,39,48
131,-14,-146,-58,139,-80,-122,-170,-97,102,43,53
131,-19,-151,-56,141,-85,-122,-170,-97,107,48,63
136,-9,-146,-63,141,-78,-131,-180,-97,107,53,63
141,-4,-146,-68,143,-75,-131,-180,-97,112,53,63
141,-4,-146,-68,143,-75,-131,-180,-92,122,58,68
151,9,-141,-80,146,-65,-146,-180,-102,122,53,68
156,24,-131,-90,143,-53,-151,-180,-102,126,58,78
161,34,-126,-97,143,-46,-156,-185,-102,131,63,78
161,39,-122,-100,141,-41,-161,-190,-102,131,63,82
151,39,-112,-95,131,-36,-156,-190,-92,141,73,73
151,39,-112,-95,131,-36,-156,-190,-87,146,78,78
151,39,-112,-95,131,-36,-156,-195,-82,146,78,82
151,48,-102,-100,126,-26,-156,-195,-78,146,78,82
151,58,-92,-104,122,-17,-165,-195,-78,151,82,92
146,58,-87,-102,117,-14,-161,-190,-68,151,82,92
141,58,-82,-100,112,-12,-161,-190,-68,151,87,92
141,58,-82,-100,112,-12,-161,-195,-63,151,87,92
131,63,-68,-97,100,-2,-165,-204,-68,151,87,87
126,63,-63,-95,95,0,-161,-200,-68,146,82,78
102,63,-39,-82,70,12,-156,-200,-63,146,68,68
97,68,-29,-82,63,19,-151,-200,-58,141,58,53
92,53,-39,-73,65,7,-141,-185,-48,146,58,53
78,48,-29,-63,53,9,-126,-180,-39,146,63,58
68,39,-29,-53,48,4,-117,-170,-34,146,63,63
58,19,-39,-39,48,-9,-107,-165,-29,136,58,68
58,29,-29,-43,43,0,-107,-175,-34,122,48,48
53,19,-34,-36,43,-7,-102,-170,-39,117,43,29
58,19,-39,-39,48,-9,-92,-170,-43,112,29,24
48,19,-29,-34,39,-4,-78,-165,-48,107,24,9
39,24,-14,-31,26,4,-68,-151,-39,107,24,14
24,19,-4,-21,14,7,-63,-151,-34,102,19,9
14,19,4,-17,4,12,-63,-146,-34,102,14,9
9,19,9,-14,0,14,-53,-146,-34,107,19,14
0,9,9,-4,-4,9,-58,-156,-48,97,4,4
0,0,0,0,0,0,-53,-156,-48,87,4,0
-19,-14,4,17,-12,-4,-48,-151,-48,82,0,-4
-19,-19,0,19,-9,-9,-48,-146,-48,73,-4,-9
-19,-24,-4,21,-7,-14,-34,-136,-48,78,0,-4
-19,-29,-9,24,-4,-19,-29,-141,-53,78,-4,-9
-29,-39,-9,34,-9,-24,-29,-141,-53,73,-9,-14
-29,-29,0,29,-14,-14,-24,-141,-53,68,-9,-14
-19,-29,-9,24,-4,-19,-34,-146,-53,73,-9,-24
-24,-34,-9,29,-7,-21,-29,-146,-53,68,-9,-24
-24,-34,-9,29,-7,-21,-24,-141,-53,63,-9,-24
-24,-29,-4,26,-9,-17,-24,-141,-63,63,-19,-24
-39,-14,24,26,-31,4,-24,-146,-73,58,-29,-39
-43,-14,29,29,-36,7,-24,-146,-73,48,-29,-39
-43,-19,24,31,-34,2,-24,-146,-73,43,-29,-39
-43,-14,29,29,-36,7,-24,-146,-68,39,-34,-39
-34,-29,4,31,-19,-12,-14,-136,-58,48,-24,-34
-39,-39,0,39,-19,-19,-9,-136,-58,53,-24,-34
-39,-43,-4,41,-17,-24,-4,-136,-58,53,-24,-29
-39,-48,-9,43,-14,-29,-4,-136,-58,53,-24,-29
-29,-48,-19,39,-4,-34,-9,-126,-48,53,-14,-34
-34,-48,-14,41,-9,-31,-9,-126,-53,53,-14,-34
-34,-48,-14,41,-9,-31,-9,-126,-53,53,-14,-39
-29,-48,-19,39,-4,-34,-9,-126,-53,53,-14,-39
-29,-29,0,29,-14,-14,-19,-136,-63,48,-24,-39
-29,-24,4,26,-17,-9,-19,-136,-63,48,-24,-39
-29,-24,4,26,-17,-9,-14,-136,-63,48,-24,-39
-29,-24,4,26,-17,-9,-14,-136,-63,48,-24,-39
-39,-34,4,36,-21,-14,-24,-146,-73,43,-34,-48
-39,-34,4,36,-21,-14,-19,-146,-73,43,-29,-53
-39,-34,4,36,-21,-14,-19,-146,-73,43,-29,-53
-39,-34,4,36,-21,-14,-24,-146,-73,43,-34,-58
-53,-39,14,46,-34,-12,-24,-146,-63,53,-39,-58
-53,-39,14,46,-34,-12,-24,-146,-63,58,-39,-53
-53,-39,14,46,-34,-12,-24,-146,-63,58,-39,-53
-58,-43,14,51,-36,-14,-24,-146,-63,58,-39,-53
-48,-34,14,41,-31,-9,-14,-131,-58,58,-29,-43
-48,-34,14,41,-31,-9,-9,-131,-53,58,-29,-43
-48,-39,9,43,-29,-14,-9,-136,-53,63,-29,-43
-48,-39,9,43,-29,-14,-14,-136,-53,68,-29,-43
-43,-39,4,41,-24,-17,-14,-136,-53,68,-19,-43
-43,-39,4,41,-24,-17,-14,-136,-53,73,-19,-43
-43,-43,0,43,-21,-21,-14,-136,-53,78,-19,-43
-48,-53,-4,51,-21,-29,-14,-136,-58,78,-19,-43
-39,-39,0,39,-19,-19,-14,-136,-58,78,-29,-43
-39,-34,4,36,-21,-14,-14,-136,-58,82,-29,-43
-39,-29,9,34,-24,-9,-19,-136,-58,82,-34,-43
-39,-24,14,31,-26,-4,-19,-136,-58,87,-34,-48
-53,-29,24,41,-39,-2,-19,-136,-48,87,-24,-39
-58,-34,24,46,-41,-4,-19,-136,-48,92,-19,-34
-68,-48,19,58,-43,-14,-9,-136,-48,92,-19,-34
-73,-53,19,63,-46,-17,-9,-136,-43,97,-19,-34
-58,-43,14,51,-36,-14,-19,-136,-53,92,-29,-43
-53,-34,19,43,-36,-7,-19,-136,-58,87,-29,-43
-39,-34,4,36,-21,-14,-19,-136,-58,82,-29,-43
-43,-34,9,39,-26,-12,-19,-136,-58,82,-29,-43
-53,-53,0,53,-26,-26,-9,-131,-48,92,-19,-34
-53,-53,0,53,-26,-26,-9,-131,-48,82,-19,-34
-48,-48,0,48,-24,-24,-14,-136,-48,82,-19,-34
-48,-48,0,48,-24,-24,-14,-136,-48,82,-19,-34
-48,-43,4,46,-26,-19,-9,-126,-48,78,-19,-34
-48,-43,4,46,-26,-19,-9,-126,-48,78,-19,-34
-48,-24,24,36,-36,0,-14,-126,-48,78,-19,-39
-48,-34,14,41,-31,-9,-14,-126,-48,78,-19,-39
-58,-39,19,48,-39,-9,-9,-136,-58,78,-14,-34
-58,-39,19,48,-39,-9,-9,-136,-58,78,-14,-34
-58,-34,24,46,-41,-4,-9,-136,-58,73,-19,-34
-58,-34,24,46,-41,-4,-9,-131,-58,73,-19,-34
-48,-43,4,46,-26,-19,-14,-131,-58,63,-19,-34
-48,-43,4,46,-26,-19,-14,-131,-58,68,-19,-34
-48,-43,4,46,-26,-19,-14,-131,-58,68,-14,-34
-48,-39,9,43,-29,-14,-19,-136,-58,68,-14,-34
-58,-34,24,46,-41,-4,-19,-126,-63,63,-24,-48
-58,-34,24,46,-41,-4,-19,-126,-63,63,-24,-48
-58,-43,14,51,-36,-14,-19,-122,-58,63,-24,-48
-58,-39,19,48,-39,-9,-19,-122,-58,58,-24,-48
-48,-34,14,41,-31,-9,-24,-122,-68,48,-24,-39
-48,-34,14,41,-31,-9,-24,-126,-68,43,-24,-39
-48,-29,19,39,-34,-4,-24,-126,-68,39,-24,-39
-43,-29,14,36,-29,-7,-24,-126,-68,34,-29,-43
-43,-39,4,41,-24,-17,-14,-117,-58,43,-19,-43
-43,-39,4,41,-24,-17,-19,-117,-58,48,-14,-39
-43,-39,4,41,-24,-17,-19,-117,-58,48,-14,-39
-43,-43,0,43,-21,-21,-19,-112,-58,43,-14,-39
-39,-24,14,31,-26,-4,-9,-122,-58,43,-14,-39
-39,-43,-4,41,-17,-24,0,-112,-48,43,-14,-39
-48,-58,-9,53,-19,-34,0,-126,-48,34,-24,-39
-53,-48,4,51,-29,-21,-9,-126,-58,29,-19,-48
-48,-48,0,48,-24,-24,-9,-126,-58,39,-29,-48
-48,-39,9,43,-29,-14,-9,-117,-68,29,-29,-39
-48,-39,9,43,-29,-14,-9,-117,-68,29,-29,-39
-48,-39,9,43,-29,-14,-9,-117,-68,29,-29,-39
-48,-39,9,43,-29,-14,-9,-117,-68,29,-29,-39
-39,-29,9,34,-24,-9,-4,-126,-68,29,-29,-48
-39,-34,4,36,-21,-14,-4,-126,-68,29,-29,-48
-39,-34,4,36,-21,-14,-4,-126,-68,24,-29,-48
-39,-34,4,36,-21,-14,-4,-126,-68,24,-29,-48
-29,-48,-19,39,-4,-34,-4,-117,-58,29,-29,-39
-29,-48,-19,39,-4,-34,-4,-117,-58,29,-29,-43
-29,-48,-19,39,-4,-34,-4,-117,-58,34,-29,-43
-29,-48,-19,39,-4,-34,-4,-117,-58,34,-24,-43
-34,-39,-4,36,-14,-21,-4,-117,-63,34,-24,-48
-39,-39,0,39,-19,-19,-4,-117,-63,34,-24,-48
-39,-39,0,39,-19,-19,-4,-117,-63,34,-34,-53
-43,-39,4,41,-24,-17,-4,-117,-68,34,-34,-53
-53,-34,19,43,-36,-7,-4,-126,-78,24,-34,-53
-53,-34,19,43,-36,-7,-4,-126,-78,24,-34,-53
-58,-29,29,43,-43,0,-4,-126,-78,24,-34,-58
-58,-29,29,43,-43,0,-4,-136,-78,24,-43,-68
-43,-34,9,39,-26,-12,-4,-136,-78,24,-43,-68
-39,-34,4,36,-21,-14,-4,-131,-78,34,-39,-63
-34,-39,-4,36,-14,-21,-4,-131,-78,34,-34,-63
-29,-39,-9,34,-9,-24,-4,-131,-78,34,-34,-58
-39,-43,-4,41,-17,-24,-4,-122,-63,53,-24,-48
-39,-48,-9,43,-14,-29,-4,-122,-63,53,-24,-48
-39,-43,-4,41,-17,-24,-9,-122,-63,53,-24,-48
-39,-39,0,39,-19,-19,-9,-122,-63,58,-24,-48
-48,-24,24,36,-36,0,-4,-122,-58,68,-24,-34
-48,-24,24,36,-36,0,-4,-117,-48,78,-14,-29
-48,-14,34,31,-41,9,4,-107,-43,82,-14,-29
-43,0,43,21,-43,21,9,-97,-39,87,-9,-24
-24,19,43,2,-34,31,9,-92,-24,107,0,-14
-24,29,53,-2,-39,41,9,-82,-14,112,4,-9
-14,39,53,-12,-34,46,14,-73,0,122,9,-4
-14,48,63,-17,-39,56,24,-58,14,131,14,0
-29,48,78,-9,-53,63,48,-34,14,151,19,4
-29,48,78,-9,-53,63,73,-9,24,151,24,4
-14,48,63,-17,-39,56,92,14,34,151,24,4
-14,53,68,-19,-41,61,92,29,39,151,29,9
-34,53,87,-9,-61,70,87,19,53,165,29,9
-34,73,107,-19,-70,90,82,9,68,180,34,19
-29,78,107,-24,-68,92,73,4,82,190,53,29
-24,82,107,-29,-65,95,63,-4,82,195,53,34
-14,82,97,-34,-56,90,53,-9,82,195,63,34
-9,87,97,-39,-53,92,34,-34,82,190,63,39
-4,87,92,-41,-48,90,0,-82,73,185,63,39
0,82,82,-41,-41,82,-43,-117,58,180,53,39
-14,87,102,-36,-58,95,-68,-151,48,165,43,39
-14,68,82,-26,-48,75,-82,-165,29,156,29,24
-19,58,78,-19,-48,68,-87,-175,4,136,19,19
-24,58,82,-17,-53,70,-97,-180,-14,112,4,14
-24,39,63,-7,-43,51,-87,-185,-24,107,9,9
-24,29,53,-2,-39,41,-87,-185,-39,107,4,4
-24,24,48,0,-36,36,-97,-185,-43,107,4,0
-24,9,34,7,-29,21,-87,-185,-48,107,0,0
-19,14,34,2,-26,24,-92,-180,-53,87,-14,-19
-19,4,24,7,-21,14,-78,-170,-58,78,-19,-19
-19,0,19,9,-19,9,-68,-161,-68,68,-24,-24
-19,-19,0,19,-9,-9,-58,-151,-73,53,-29,-29
-34,-34,0,34,-17,-17,-43,-146,-82,58,-29,-29
-58,-43,14,51,-36,-14,-29,-141,-82,58,-29,-34
-58,-53,4,56,-31,-24,-19,-136,-82,43,-34,-43
-58,-68,-9,63,-24,-39,-19,-131,-92,34,-48,-58
-58,-68,-9,63,-24,-39,-14,-126,-87,14,-53,-63
-58,-73,-14,65,-21,-43,-14,-122,-87,14,-53,-63
-58,-82,-24,70,-17,-53,0,-117,-87,14,-58,-63
-63,-92,-29,78,-17,-61,4,-117,-97,14,-63,-68
-63,-102,-39,82,-12,-70,14,-117,-97,-4,-68,-58
-63,-102,-39,82,-12,-70,19,-117,-102,-9,-68,-63
-68,-107,-39,87,-14,-73,24,-112,-102,-9,-73,-68
-78,-112,-34,95,-21,-73,29,-112,-102,-9,-73,-68
-68,-102,-34,85,-17,-68,29,-117,-102,-14,-78,-82
-63,-97,-34,80,-14,-65,29,-117,-107,-19,-78,-82
-63,-97,-34,80,-14,-65,34,-117,-107,-19,-78,-82
-73,-102,-29,87,-21,-65,39,-117,-102,-19,-78,-78
-73,-97,-24,85,-24,-61,34,-102,-102,-29,-68,-78
-73,-97,-24,85,-24,-61,34,-102,-102,-29,-73,-78
-73,-97,-24,85,-24,-61,34,-107,-112,-29,-73,-78
-78,-97,-19,87,-29,-58,34,-107,-112,-29,-73,-82
-78,-107,-29,92,-24,-68,34,-117,-112,-39,-82,-87
-78,-112,-34,95,-21,-73,34,-112,-112,-39,-82,-87
-78,-112,-34,95,-21,-73,39,-112,-112,-39,-82,-87
-78,-117,-39,97,-19,-78,39,-112,-112,-39,-82,-87
-87,-112,-24,100,-31,-68,34,-112,-117,-43,-92,-92
-87,-112,-24,100,-31,-68,34,-107,-117,-43,-92,-92
-87,-112,-24,100,-31,-68,43,-107,-112,-43,-92,-87
-87,-107,-19,97,-34,-63,43,-107,-112,-43,-92,-87
-92,-112,-19,102,-36,-65,53,-97,-112,-34,-82,-87
-82,-126,-43,104,-19,-85,53,-92,-107,-34,-87,-92
-92,-141,-48,117,-21,-95,63,-87,-107,-24,-92,-107
-73,-141,-68,107,-2,-104,73,-68,-92,-24,-92,-107
-48,-131,-82,90,17,-107,73,-68,-73,0,-82,-97
-53,-126,-73,90,9,-100,53,-82,-63,19,-58,-87
-58,-117,-58,87,0,-87,39,-87,-29,73,-14,-43
-34,-87,-53,61,9,-70,14,-102,9,141,53,29
43,-4,-48,-19,46,-26,-58,-161,14,200,117,92
131,112,-19,-122,75,46,-146,-219,4,248,170,151
229,214,-14,-222,122,100,-244,-278,14,317,263,234
331,312,-19,-322,175,146,-336,-341,24,400,356,331
405,395,-9,-400,207,192,-429,-434,39,448,434,429
453,488,34,-470,209,261,-483,-502,63,517,522,531
522,595,73,-558,224,334,-541,-531,82,595,624,649
629,727,97,-678,265,412,-639,-575,73,663,727,761
688,863,175,-775,256,519,-722,-649,53,702,814,873
649,985,336,-817,156,661,-756,-727,43,712,873,946
575,1034,458,-805,58,746,-751,-766,24,678,854,941
473,1010,536,-741,-31,773,-717,-761,4,610,800,897
346,1010,663,-678,-158,836,-673,-780,4,546,736,854
200,966,766,-583,-283,866,-610,-790,0,463,639,775
58,873,814,-466,-378,844,-507,-736,9,356,527,678
-43,800,844,-378,-444,822,-375,-639,39,268,419,570
-136,688,824,-275,-480,756,-273,-561,48,185,307,444
-180,570,751,-195,-466,661,-195,-497,29,87,180,312
-195,507,702,-156,-448,605,-112,-439,34,19,82,204
-244,468,712,-112,-478,590,-58,-395,39,-9,34,136
-273,400,673,-63,-473,536,-19,-361,29,-39,-4,78
-253,312,566,-29,-409,439,9,-341,0,-68,-43,48
