I,II,III,aVR,aVL,aVF,V1,V2,V3,V4,V5,V6
-146,43,190,51,-168,117,-170,-214,-234,-146,-126,-39
-146,43,190,51,-168,117,-185,-234,-248,-161,-136,-43
-131,43,175,43,-153,109,-195,-239,-268,-170,-141,-48
-131,39,170,46,-151,104,-200,-244,-273,-175,-146,-48
-141,14,156,63,-148,85,-190,-234,-283,-170,-136,-39
-146,9,156,68,-151,82,-185,-234,-273,-165,-136,-34
-151,4,156,73,-153,80,-170,-229,-258,-156,-131,-34
-151,0,151,75,-151,75,-165,-224,-258,-151,-131,-34
-151,9,161,70,-156,85,-151,-229,-258,-156,-136,-43
-161,4,165,78,-163,85,-136,-229,-258,-161,-141,-43
-165,-14,151,90,-158,68,-126,-219,-258,-161,-146,-43
-165,-29,136,97,-151,53,-117,-209,-253,-165,-151,-43
-180,-48,131,114,-156,41,-97,-204,-253,-165,-141,-48
-195,-68,126,131,-161,29,-97,-204,-263,-175,-156,-58
-195,-92,102,143,-148,4,-92,-209,-278,-190,-175,-82
-200,-107,92,153,-146,-7,-87,-214,-287,-204,-180,-87
-195,-117,78,156,-136,-19,-82,-224,-297,-204,-195,-102
-204,-131,73,168,-139,-29,-78,-224,-297,-204,-195,-107
-209,-131,78,170,-143,-26,-82,-224,-302,-214,-204,-117
-209,-126,82,168,-146,-21,-82,-224,-307,-219,-209,-117
-224,-146,78,185,-151,-34,-73,-214,-302,-219,-200,-107
-224,-146,78,185,-151,-34,-63,-214,-302,-219,-204,-117
-224,-141,82,183,-153,-29,-63,-214,-307,-234,-214,-126
-224,-141,82,183,-153,-29,-68,-219,-317,-234,-219,-131
-219,-136,82,178,-151,-26,-78,-229,-317,-234,-219,-131
-224,-136,87,180,-156,-24,-78,-229,-317,-239,-219,-131
-229,-136,92,183,-161,-21,-78,-229,-317,-239,-219,-131
-229,-131,97,180,-163,-17,-73,-224,-312,-239,-219,-126
-219,-126,92,173,-156,-17,-58,-214,-307,-229,-219,-126
-229,-146,82,187,-156,-31,-58,-214,-307,-229,-224,-126
-229,-151,78,190,-153,-36,-58,-214,-312,-229,-224,-126
-229,-146,82,187,-156,-31,-58,-214,-312,-229,-219,-126
-229,-156,73,192,-151,-41,-63,-214,-312,-234,-219,-126
-229,-165,63,197,-146,-51,-63,-214,-312,-234,-219,-126
-219,-156,63,187,-141,-46,-58,-214,-312,-229,-214,-126
-219,-146,73,183,-146,-36,-58,-214,-312,-229,-214,-126
-229,-151,78,190,-153,-36,-58,-214,-312,-234,-224,-126
-234,-165,68,200,-151,-48,-58,-214,-312,-234,-224,-126
-234,-161,73,197,-153,-43,-53,-209,-312,-234,-224,-126
-229,-156,73,192,-151,-41,-53,-209,-312,-234,-224,-126
-229,-161,68,195,-148,-46,-63,-219,-322,-234,-224,-136
-229,-161,68,195,-148,-46,-63,-219,-322,-234,-224,-136
-224,-156,68,190,-146,-43,-68,-224,-322,-234,-229,-136
-224,-151,73,187,-148,-39,-68,-224,-322,-234,-229,-136
-224,-141,82,183,-153,-29,-68,-224,-312,-234,-219,-126
-224,-151,73,187,-148,-39,-63,-214,-307,-229,-219,-126
-224,-141,82,183,-153,-29,-63,-214,-307,-229,-219,-126
-224,-131,92,178,-158,-19,-63,-214,-307,-229,-219,-126
-224,-122,102,173,-163,-9,-53,-204,-302,-229,-214,-126
-224,-131,92,178,-158,-19,-53,-204,-302,-229,-214,-126
-224,-141,82,183,-153,-29,-53,-204,-302,-229,-214,-126
-224,-141,82,183,-153,-29,-53,-204,-302,-224,-209,-117
-219,-156,63,187,-141,-46,-53,-204,-292,-204,-200,-107
-229,-151,78,190,-153,-36,-63,-204,-292,-214,-204,-122
-248,-170,78,209,-163,-46,-63,-204,-297,-219,-214,-126
-234,-175,58,204,-146,-58,-34,-185,-297,-224,-224,-141
-214,-156,58,185,-136,-48,4,-161,-292,-229,-239,-156
-224,-170,53,197,-139,-58,48,-126,-283,-239,-244,-180
-234,-170,63,202,-148,-53,73,-97,-258,-239,-244,-180
-248,-165,82,207,-165,-41,87,-68,-219,-219,-244,-190
-268,-190,78,229,-173,-56,122,-14,-175,-195,-229,-190
-268,-209,58,239,-163,-75,151,58,-112,-141,-200,-180
-248,-200,48,224,-148,-75,185,146,-29,-68,-141,-141
-204,-175,29,190,-117,-73,204,239,78,29,-63,-87
-141,-161,-19,151,-61,-90,234,356,219,165,58,-24
-112,-156,-43,134,-34,-100,234,458,390,356,224,92
-58,-122,-63,90,2,-92,180,473,541,546,400,234
43,-39,-82,-2,63,-61,107,439,658,717,575,361
131,58,-73,-95,102,-7,43,390,771,897,756,517
185,146,-39,-165,112,53,-78,278,893,1102,966,678
234,292,58,-263,87,175,-263,82,980,1283,1161,844
302,473,170,-387,65,322,-448,-102,1049,1439,1332,1000
346,614,268,-480,39,441,-614,-273,1068,1546,1464,1132
366,692,326,-529,19,509,-751,-414,1034,1561,1517,1205
395,692,297,-544,48,495,-819,-527,927,1498,1468,1205
444,658,214,-551,114,436,-863,-629,736,1332,1332,1132
405,614,209,-509,97,412,-927,-795,512,1122,1151,1044
283,658,375,-470,-46,517,-980,-1029,322,946,1034,990
165,707,541,-436,-187,624,-1000,-1234,141,761,907,961
87,688,600,-387,-256,644,-1000,-1317,-117,507,722,863
29,649,619,-339,-295,634,-951,-1361,-419,190,448,692
-48,605,653,-278,-351,629,-858,-1420,-722,-156,170,512
-126,522,649,-197,-387,585,-790,-1468,-985,-444,-58,370
-141,453,595,-156,-368,524,-756,-1444,-1102,-595,-175,292
-146,390,536,-122,-341,463,-717,-1381,-1093,-619,-219,244
-185,283,468,-48,-326,375,-688,-1342,-1093,-668,-292,170
-234,195,429,19,-331,312,-673,-1312,-1127,-736,-385,78
-268,141,409,63,-339,275,-658,-1263,-1098,-741,-434,0
-278,117,395,80,-336,256,-614,-1161,-1019,-707,-434,-39
-278,102,380,87,-329,241,-556,-1044,-932,-663,-424,-73
-287,87,375,100,-331,231,-502,-932,-858,-619,-424,-122
-287,58,346,114,-317,202,-434,-819,-766,-561,-395,-141
-258,9,268,124,-263,139,-351,-678,-634,-463,-336,-117
-239,-19,219,129,-229,100,-258,-536,-527,-375,-287,-107
-234,-24,209,129,-222,92,-200,-448,-453,-326,-258,-102
-214,-19,195,117,-204,87,-151,-351,-375,-268,-224,-92
-195,-53,141,124,-168,43,-92,-248,-312,-209,-185,-78
-185,-63,122,124,-153,29,-43,-180,-253,-175,-165,-58
-180,-43,136,112,-158,46,-39,-146,-229,-156,-146,-58
-209,-53,156,131,-183,51,-58,-156,-224,-161,-141,-68
-200,-68,131,134,-165,31,-48,-156,-224,-146,-136,-58
-195,-68,126,131,-161,29,-39,-156,-209,-131,-126,-58
-195,-68,126,131,-161,29,-19,-131,-200,-126,-126,-58
-195,-78,117,136,-156,19,-4,-122,-200,-126,-126,-63
-195,-78,117,136,-156,19,-9,-102,-200,-141,-141,-78
-195,-73,122,134,-158,24,-9,-92,-195,-146,-141,-82
-195,-73,122,134,-158,24,-14,-78,-190,-146,-151,-82
-195,-68,126,131,-161,29,-14,-78,-185,-131,-141,-78
-190,-68,122,129,-156,26,-14,-78,-175,-126,-122,-68
-190,-68,122,129,-156,26,-9,-78,-165,-126,-117,-68
-190,-68,122,129,-156,26,-4,-68,-161,-122,-117,-68
-190,-73,117,131,-153,21,0,-58,-156,-117,-112,-68
-195,-87,107,141,-151,9,19,-34,-141,-117,-112,-58
-195,-102,92,148,-143,-4,24,-24,-136,-117,-107,-58
-190,-112,78,151,-134,-17,24,-19,-136,-107,-107,-58
-190,-122,68,156,-129,-26,19,-19,-131,-107,-107,-58
-200,-102,97,151,-148,-2,19,-19,-122,-97,-97,-58
-200,-97,102,148,-151,2,19,-19,-117,-97,-97,-58
-195,-97,97,146,-146,0,29,-14,-107,-87,-87,-48
-195,-102,92,148,-143,-4,34,-9,-107,-82,-87,-48
-195,-107,87,151,-141,-9,24,-4,-112,-92,-92,-58
-190,-102,87,146,-139,-7,29,0,-107,-82,-92,-58
-180,-87,92,134,-136,2,29,9,-102,-82,-97,-53
-175,-82,92,129,-134,4,29,9,-102,-82,-102,-53
-165,-82,82,124,-124,0,14,0,-107,-82,-102,-53
-165,-78,87,122,-126,4,14,4,-102,-78,-102,-53
-165,-78,87,122,-126,4,19,4,-97,-68,-92,-53
-165,-78,87,122,-126,4,19,14,-92,-63,-92,-48
-170,-82,87,126,-129,2,39,34,-73,-48,-82,-43
-165,-73,92,119,-129,9,39,39,-73,-43,-78,-43
-170,-92,78,131,-124,-7,39,43,-73,-43,-78,-43
-180,-92,87,136,-134,-2,39,43,-68,-43,-73,-43
-190,-73,117,131,-153,21,29,39,-73,-43,-68,-53
-190,-63,126,126,-158,31,29,43,-58,-39,-68,-48
-180,-63,117,122,-148,26,29,48,-53,-29,-68,-48
-180,-63,117,122,-148,26,34,53,-48,-29,-68,-39
-170,-78,92,124,-131,7,39,63,-34,-19,-53,-29
-170,-78,92,124,-131,7,39,68,-29,-19,-48,-29
-170,-78,92,124,-131,7,43,78,-24,-14,-48,-29
-170,-78,92,124,-131,7,43,82,-19,-9,-48,-29
-170,-73,97,122,-134,12,53,97,-14,-4,-48,-24
-170,-68,102,119,-136,17,53,97,-9,-4,-48,-24
-165,-68,97,117,-131,14,58,107,4,9,-34,-19
-161,-68,92,114,-126,12,58,112,14,14,-29,-19
-151,-68,82,109,-117,7,58,112,14,24,-19,-19
-146,-68,78,107,-112,4,63,117,19,24,-19,-9
-141,-63,78,102,-109,7,68,136,34,34,-14,-9
-141,-63,78,102,-109,7,73,146,43,43,-9,-4
-151,-48,102,100,-126,26,63,165,43,48,-14,-4
-151,-48,102,100,-126,26,63,165,53,53,-9,0
-151,-48,102,100,-126,26,68,180,63,68,4,4
-151,-43,107,97,-129,31,78,190,78,73,9,9
-141,-29,112,85,-126,41,68,190,87,73,14,4
-141,-19,122,80,-131,51,73,200,92,82,14,9
-136,-14,122,75,-129,53,73,209,102,87,19,9
-126,-19,107,73,-117,43,78,229,122,102,29,14
-117,-9,107,63,-112,48,92,244,131,107,34,24
-117,0,117,58,-117,58,97,253,131,112,43,24
-117,0,117,58,-117,58,97,268,141,126,53,29
-117,-9,107,63,-112,48,112,287,165,136,63,39
-126,-29,97,78,-112,34,122,307,185,156,78,53
-126,-39,87,82,-107,24,131,331,209,170,87,63
-112,-48,63,80,-87,7,141,351,229,185,102,73
-107,-48,58,78,-82,4,151,375,244,200,112,82
-102,-29,73,65,-87,21,151,380,244,204,117,82
-92,-14,78,53,-85,31,156,400,263,219,126,87
-92,0,92,46,-92,46,170,419,283,239,136,87
-92,19,112,36,-102,65,170,439,307,253,136,87
-87,4,92,41,-90,48,180,458,322,273,161,112
-82,0,82,41,-82,41,190,483,341,283,170,112
-82,0,82,41,-82,41,200,502,356,297,180,122
-78,0,78,39,-78,39,204,522,375,312,190,131
-53,29,82,12,-68,56,214,546,390,331,200,126
-53,34,87,9,-70,61,224,561,409,346,209,136
-48,43,92,2,-70,68,224,585,419,356,214,136
-43,53,97,-4,-70,75,229,605,444,375,234,146
-53,39,92,7,-73,65,239,624,463,395,248,161
-48,34,82,7,-65,58,258,649,488,419,268,170
-43,39,82,2,-63,61,258,673,502,434,278,175
-29,43,73,-7,-51,58,263,688,517,444,278,185
-19,58,78,-19,-48,68,273,712,541,458,292,185
-14,68,82,-26,-48,75,273,722,551,468,307,190
-14,73,87,-29,-51,80,278,736,556,478,307,190
-14,92,107,-39,-61,100,283,756,570,488,317,195
0,78,78,-39,-39,78,297,780,590,517,341,214
4,63,58,-34,-26,61,302,795,600,527,351,224
14,78,63,-46,-24,70,302,805,614,536,361,229
19,73,53,-46,-17,63,312,819,624,546,366,229
14,82,68,-48,-26,75,312,829,639,546,361,229
14,87,73,-51,-29,80,312,839,644,551,361,234
9,92,82,-51,-36,87,307,839,644,551,366,234
4,92,87,-48,-41,90,307,839,644,551,366,234
14,92,78,-53,-31,85,317,844,639,551,375,239
24,92,68,-58,-21,80,322,849,649,556,380,239
29,82,53,-56,-12,68,322,849,649,556,385,248
34,73,39,-53,-2,56,322,849,649,556,385,248
34,82,48,-58,-7,65,322,854,644,561,370,248
34,82,48,-58,-7,65,317,854,639,556,370,248
29,73,43,-51,-7,58,317,849,634,556,366,244
29,73,43,-51,-7,58,312,844,629,551,361,244
19,58,39,-39,-9,48,302,829,610,531,356,229
19,58,39,-39,-9,48,292,810,595,517,346,219
19,68,48,-43,-14,58,292,790,575,502,341,209
14,58,43,-36,-14,51,287,775,566,483,326,209
24,68,43,-46,-9,56,273,751,546,468,317,209
24,68,43,-46,-9,56,268,736,527,453,307,204
19,53,34,-36,-7,43,263,717,517,444,302,200
14,48,34,-31,-9,41,244,688,488,424,283,185
4,39,34,-21,-14,36,234,649,458,405,258,175
4,39,34,-21,-14,36,224,619,439,385,248,170
-4,39,43,-17,-24,41,214,585,409,361,229,156
-24,34,58,-4,-41,46,200,556,375,336,214,146
-29,43,73,-7,-51,58,190,522,341,302,200,136
-29,39,68,-4,-48,53,180,483,326,283,190,131
-39,24,63,7,-51,43,170,453,292,263,165,126
-39,24,63,7,-51,43,151,419,263,239,151,112
-43,24,68,9,-56,46,141,385,239,229,131,102
-48,9,58,19,-53,34,122,351,214,204,122,92
-58,9,68,24,-63,39,107,317,185,185,107,87
-58,9,68,24,-63,39,102,283,161,156,87,78
-68,4,73,31,-70,39,92,268,146,141,87,78
-68,0,68,34,-68,34,87,239,126,122,73,68
-73,-4,68,39,-70,31,73,209,97,107,48,58
-87,-14,73,51,-80,29,58,185,82,82,43,43
-107,-34,73,70,-90,19,53,151,58,58,19,34
-112,-34,78,73,-95,21,43,126,29,43,9,24
-112,-29,82,70,-97,26,29,102,0,24,-4,14
-112,-24,87,68,-100,31,24,82,-14,4,-19,4
-122,-19,102,70,-112,41,4,63,-34,-14,-24,-4
-131,-29,102,80,-117,36,4,43,-48,-29,-43,-14
-151,-34,117,92,-134,41,-4,29,-63,-39,-48,-14
-151,-39,112,95,-131,36,-4,14,-68,-48,-48,-14
-141,-48,92,95,-117,21,0,19,-68,-48,-43,-9
-136,-53,82,95,-109,14,0,0,-78,-53,-53,-14
-146,-58,87,102,-117,14,-9,-19,-92,-68,-58,-29
-146,-63,82,104,-114,9,-9,-34,-107,-68,-68,-34
-156,-53,102,104,-129,24,-19,-48,-122,-82,-78,-34
-156,-63,92,109,-124,14,-19,-58,-131,-87,-82,-39
-161,-63,97,112,-129,17,-24,-63,-136,-97,-92,-43
-165,-63,102,114,-134,19,-29,-73,-141,-107,-97,-43
-165,-53,112,109,-139,29,-29,-78,-151,-112,-112,-48
-165,-53,112,109,-139,29,-34,-82,-156,-117,-112,-53
-170,-53,117,112,-143,31,-34,-92,-161,-117,-112,-53
-170,-53,117,112,-143,31,-39,-97,-161,-117,-112,-53
-161,-63,97,112,-129,17,-43,-117,-165,-126,-117,-63
-161,-63,97,112,-129,17,-53,-122,-180,-136,-122,-73
-165,-58,107,112,-136,24,-63,-122,-180,-141,-122,-73
-165,-58,107,112,-136,24,-68,-122,-185,-146,-131,-78
-161,-73,87,117,-124,7,-63,-117,-175,-136,-122,-68
-161,-78,82,119,-122,2,-58,-117,-175,-136,-122,-68
-165,-82,82,124,-124,0,-53,-126,-175,-136,-122,-68
-165,-82,82,124,-124,0,-53,-126,-175,-136,-122,-68
-165,-68,97,117,-131,14,-53,-122,-180,-136,-122,-68
-165,-63,102,114,-134,19,-53,-122,-180,-141,-122,-68
-165,-73,92,119,-129,9,-53,-122,-180,-141,-122,-68
-165,-68,97,117,-131,14,-53,-122,-180,-141,-122,-68
-156,-73,82,114,-119,4,-53,-126,-180,-141,-122,-68
-156,-73,82,114,-119,4,-53,-126,-185,-141,-122,-68
-161,-78,82,119,-122,2,-58,-136,-185,-141,-122,-68
-161,-78,82,119,-122,2,-58,-136,-185,-141,-122,-68
-161,-68,92,114,-126,12,-68,-141,-195,-146,-131,-73
-165,-73,92,119,-129,9,-63,-141,-190,-146,-131,-73
-170,-73,97,122,-134,12,-63,-141,-190,-146,-131,-73
-175,-63,112,119,-143,24,-73,-141,-190,-146,-131,-73
-165,-53,112,109,-139,29,-63,-141,-190,-146,-131,-73
-165,-63,102,114,-134,19,-63,-136,-190,-146,-126,-68
-161,-53,107,107,-134,26,-63,-136,-190,-146,-126,-68
-161,-48,112,104,-136,31,-68,-136,-190,-146,-126,-73
-165,-48,117,107,-141,34,-68,-136,-180,-146,-126,-63
-170,-48,122,109,-146,36,-68,-136,-180,-146,-122,-63
-170,-48,122,109,-146,36,-68,-136,-180,-146,-122,-63
-170,-48,122,109,-146,36,-68,-136,-180,-146,-122,-63
-170,-53,117,112,-143,31,-68,-126,-190,-146,-122,-73
-170,-48,122,109,-146,36,-68,-126,-190,-146,-126,-73
-170,-48,122,109,-146,36,-68,-126,-190,-146,-126,-73
-170,-58,112,114,-141,26,-63,-122,-190,-141,-126,-68
-161,-73,87,117,-124,7,-48,-117,-165,-122,-107,-53
-161,-73,87,117,-124,7,-48,-117,-165,-122,-107,-53
-161,-73,87,117,-124,7,-53,-117,-165,-122,-107,-53
-161,-73,87,117,-124,7,-53,-122,-165,-122,-112,-58
-161,-63,97,112,-129,17,-63,-122,-170,-122,-112,-58
-161,-63,97,112,-129,17,-63,-117,-170,-122,-112,-58
-161,-58,102,109,-131,21,-63,-117,-170,-122,-112,-58
-161,-58,102,109,-131,21,-63,-117,-165,-122,-112,-53
-161,-48,112,104,-136,31,-63,-117,-165,-136,-112,-63
-161,-43,117,102,-139,36,-63,-112,-161,-136,-112,-63
-161,-43,117,102,-139,36,-63,-112,-161,-131,-112,-63
-161,-43,117,102,-139,36,-63,-112,-161,-131,-112,-63
-165,-43,122,104,-143,39,-73,-122,-170,-131,-122,-73
-165,-43,122,104,-143,39,-68,-122,-170,-131,-122,-73
-161,-43,117,102,-139,36,-68,-117,-170,-131,-117,-73
-161,-43,117,102,-139,36,-68,-117,-165,-131,-117,-73
-151,-58,92,104,-122,17,-58,-112,-156,-117,-97,-68
-151,-58,92,104,-122,17,-58,-107,-156,-112,-97,-63
-151,-48,102,100,-126,26,-58,-102,-156,-112,-102,-58
-151,-48,102,100,-126,26,-58,-97,-156,-117,-102,-53
-151,-43,107,97,-129,31,-58,-97,-156,-117,-102,-53
-151,-43,107,97,-129,31,-58,-97,-156,-117,-102,-53
-151,-39,112,95,-131,36,-58,-97,-156,-117,-102,-53
-151,-39,112,95,-131,36,-58,-97,-156,-117,-102,-53
-156,-43,112,100,-134,34,-58,-97,-156,-117,-102,-53
-156,-53,102,104,-129,24,-58,-97,-156,-117,-102,-53
-151,-39,112,95,-131,36,-58,-97,-156,-117,-102,-53
-151,-39,112,95,-131,36,-58,-97,-156,-117,-102,-53
-151,-48,102,100,-126,26,-58,-107,-156,-117,-102,-53
-151,-48,102,100,-126,26,-58,-107,-156,-117,-102,-53
-151,-48,102,100,-126,26,-58,-107,-156,-117,-102,-53
-151,-48,102,100,-126,26,-58,-107,-156,-122,-102,-58
-146,-53,92,100,-119,19,-68,-117,-165,-136,-117,-68
-146,-48,97,97,-122,24,-68,-122,-165,-136,-117,-68
-151,-39,112,95,-131,36,-68,-122,-170,-136,-122,-68
-146,-34,112,90,-129,39,-68,-122,-170,-136,-122,-68
-151,-34,117,92,-134,41,-58,-117,-170,-136,-122,-78
-156,-34,122,95,-139,43,-58,-117,-170,-136,-122,-73
-165,-39,126,102,-146,43,-58,-117,-170,-136,-122,-73
-170,-39,131,104,-151,46,-58,-117,-170,-136,-122,-78
-161,-43,117,102,-139,36,-58,-112,-170,-136,-112,-68
-161,-48,112,104,-136,31,-58,-117,-170,-136,-117,-73
-165,-48,117,107,-141,34,-58,-117,-165,-131,-117,-73
-165,-53,112,109,-139,29,-58,-117,-161,-131,-117,-73
-156,-63,92,109,-124,14,-58,-107,-175,-131,-117,-63
-161,-78,82,119,-122,2,-58,-107,-175,-131,-117,-63
-161,-63,97,112,-129,17,-58,-112,-175,-141,-122,-68
-161,-53,107,107,-134,26,-58,-117,-180,-146,-126,-68
-146,-43,102,95,-124,29,-68,-122,-180,-156,-136,-73
-146,-39,107,92,-126,34,-68,-122,-180,-156,-136,-78
-151,-48,102,100,-126,26,-68,-126,-185,-156,-136,-82
-151,-58,92,104,-122,17,-68,-136,-185,-156,-136,-87
-161,-68,92,114,-126,12,-68,-136,-185,-156,-141,-82
-165,-58,107,112,-136,24,-68,-141,-190,-161,-141,-82
-165,-58,107,112,-136,24,-73,-146,-195,-165,-146,-82
-165,-58,107,112,-136,24,-73,-146,-195,-165,-146,-82
-156,-34,122,95,-139,43,-82,-141,-195,-165,-151,-92
-156,-24,131,90,-143,53,-82,-141,-200,-170,-151,-92
-156,-43,112,100,-134,34,-82,-141,-200,-170,-156,-92
-161,-58,102,109,-131,21,-78,-136,-200,-165,-156,-92
-151,-58,92,104,-122,17,-68,-146,-200,-165,-146,-92
-151,-53,97,102,-124,21,-73,-156,-204,-170,-151,-97
-151,-48,102,100,-126,26,-73,-161,-214,-180,-156,-97
-156,-48,107,102,-131,29,-78,-161,-214,-180,-156,-97
-156,-43,112,100,-134,34,-78,-156,-204,-170,-146,-87
-156,-58,97,107,-126,19,-78,-156,-204,-170,-151,-87
-156,-58,97,107,-126,19,-78,-151,-204,-170,-151,-87
-151,-43,107,97,-129,31,-78,-146,-209,-170,-151,-92
-151,-43,107,97,-129,31,-78,-156,-219,-185,-161,-102
-151,-43,107,97,-129,31,-78,-161,-219,-185,-161,-102
-151,-43,107,97,-129,31,-78,-161,-219,-185,-161,-102
-151,-48,102,100,-126,26,-78,-161,-219,-190,-161,-102
-156,-43,112,100,-134,34,-87,-170,-224,-190,-161,-102
-156,-48,107,102,-131,29,-87,-175,-224,-190,-165,-102
-156,-48,107,102,-131,29,-87,-175,-229,-190,-165,-102
-156,-43,112,100,-134,34,-92,-175,-229,-190,-170,-102
-165,-43,122,104,-143,39,-82,-170,-229,-200,-170,-102
-165,-48,117,107,-141,34,-82,-170,-229,-200,-170,-102
-165,-53,112,109,-139,29,-82,-170,-224,-195,-170,-97
-165,-58,107,112,-136,24,-82,-170,-224,-195,-170,-97
-161,-68,92,114,-126,12,-82,-170,-229,-195,-165,-102
-161,-82,78,122,-119,-2,-82,-175,-229,-195,-165,-102
-161,-73,87,117,-124,7,-82,-175,-234,-195,-165,-102
-161,-73,87,117,-124,7,-87,-180,-234,-195,-165,-102
-161,-63,97,112,-129,17,-78,-170,-234,-195,-165,-102
-161,-63,97,112,-129,17,-78,-170,-234,-195,-165,-102
-161,-53,107,107,-134,26,-78,-170,-234,-200,-165,-107
-161,-63,97,112,-129,17,-78,-175,-234,-200,-165,-107
-170,-58,112,114,-141,26,-82,-180,-244,-209,-175,-117
-170,-48,122,109,-146,36,-87,-185,-248,-209,-175,-117
-165,-43,122,104,-143,39,-92,-190,-248,-209,-175,-117
-165,-43,122,104,-143,39,-97,-195,-248,-209,-175,-117
-156,-43,112,100,-134,34,-92,-195,-253,-209,-175,-107
-156,-48,107,102,-131,29,-92,-195,-253,-209,-180,-107
-161,-48,112,104,-136,31,-92,-195,-253,-219,-180,-107
-165,-43,122,104,-143,39,-92,-195,-258,-219,-185,-107
-175,-58,117,117,-146,29,-92,-185,-248,-214,-175,-107
-170,-68,102,119,-136,17,-92,-185,-239,-209,-170,-107
-170,-73,97,122,-134,12,-92,-185,-239,-209,-170,-107
-170,-78,92,124,-131,7,-92,-190,-244,-214,-175,-112
-161,-68,92,114,-126,12,-92,-200,-253,-214,-185,-122
-165,-63,102,114,-134,19,-92,-200,-258,-214,-185,-122
-165,-53,112,109,-139,29,-92,-200,-258,-214,-185,-122
-161,-34,126,97,-143,46,-92,-200,-258,-214,-180,-117
-161,-63,97,112,-129,17,-82,-195,-244,-209,-170,-107
-161,-73,87,117,-124,7,-82,-190,-244,-209,-170,-107
-161,-78,82,119,-122,2,-82,-185,-244,-214,-170,-107
-161,-82,78,122,-119,-2,-82,-180,-244,-214,-170,-107
-161,-73,87,117,-124,7,-92,-185,-248,-214,-180,-112
-161,-73,87,117,-124,7,-92,-185,-248,-214,-180,-112
-161,-58,102,109,-131,21,-97,-190,-253,-214,-180,-112
-161,-53,107,107,-134,26,-97,-200,-253,-214,-185,-122
-161,-58,102,109,-131,21,-97,-200,-263,-224,-185,-122
-161,-58,102,109,-131,21,-97,-200,-263,-224,-185,-122
-161,-63,97,112,-129,17,-97,-204,-263,-224,-190,-122
-161,-73,87,117,-124,7,-97,-204,-263,-224,-190,-122
-161,-78,82,119,-122,2,-97,-190,-248,-214,-175,-107
-165,-78,87,122,-126,4,-92,-190,-248,-209,-175,-107
-165,-73,92,119,-129,9,-92,-190,-248,-209,-175,-107
-165,-63,102,114,-134,19,-92,-190,-248,-209,-175,-107
-170,-53,117,112,-143,31,-102,-204,-263,-224,-190,-112
-170,-53,117,112,-143,31,-112,-204,-263,-229,-190,-117
-180,-58,122,119,-151,31,-112,-204,-263,-229,-190,-122
-180,-68,112,124,-146,21,-112,-204,-263,-229,-190,-131
-175,-58,117,117,-146,29,-112,-214,-273,-239,-190,-136
-175,-58,117,117,-146,29,-112,-214,-273,-234,-190,-136
-175,-58,117,117,-146,29,-112,-214,-273,-234,-190,-131
-175,-68,107,122,-141,19,-112,-214,-273,-234,-190,-131
-161,-39,122,100,-141,41,-97,-204,-258,-229,-180,-126
-151,-48,102,100,-126,26,-97,-200,-253,-224,-175,-117
-146,-48,97,97,-122,24,-97,-195,-248,-219,-175,-112
-141,-29,112,85,-126,41,-102,-195,-244,-214,-175,-112
-146,-34,112,90,-129,39,-92,-195,-253,-214,-185,-112
-156,-58,97,107,-126,19,-92,-195,-253,-214,-185,-112
-161,-63,97,112,-129,17,-92,-195,-253,-214,-185,-112
-165,-48,117,107,-141,34,-87,-195,-253,-214,-185,-112
-170,-48,122,109,-146,36,-97,-200,-258,-219,-185,-112
-161,-39,122,100,-141,41,-97,-200,-258,-219,-185,-117
-170,-48,122,109,-146,36,-97,-204,-263,-224,-185,-122
-175,-58,117,117,-146,29,-97,-209,-263,-229,-185,-122
-170,-53,117,112,-143,31,-102,-209,-263,-229,-185,-122
-161,-43,117,102,-139,36,-102,-209,-263,-234,-185,-122
-156,-48,107,102,-131,29,-102,-209,-263,-234,-185,-122
-151,-58,92,104,-122,17,-102,-209,-258,-229,-185,-122
-161,-48,112,104,-136,31,-112,-209,-263,-229,-195,-131
-161,-48,112,104,-136,31,-112,-209,-268,-229,-190,-131
-161,-43,117,102,-139,36,-112,-209,-273,-229,-190,-131
-161,-43,117,102,-139,36,-112,-209,-273,-229,-190,-131
-161,-48,112,104,-136,31,-112,-209,-273,-229,-190,-131
-165,-48,117,107,-141,34,-112,-209,-268,-229,-190,-131
-165,-48,117,107,-141,34,-112,-209,-268,-224,-190,-131
-156,-48,107,102,-131,29,-112,-209,-268,-224,-190,-131
-156,-58,97,107,-126,19,-107,-209,-273,-234,-195,-122
-161,-53,107,107,-134,26,-107,-209,-273,-234,-195,-122
-161,-53,107,107,-134,26,-112,-209,-273,-234,-190,-117
-146,-39,107,92,-126,34,-107,-209,-273,-229,-190,-112
-156,-48,107,102,-131,29,-97,-200,-268,-219,-190,-112
-165,-53,112,109,-139,29,-97,-200,-263,-219,-190,-112
-165,-53,112,109,-139,29,-97,-204,-258,-219,-190,-117
-156,-53,102,104,-129,24,-102,-209,-253,-219,-190,-117
-146,-63,82,104,-114,9,-102,-214,-268,-229,-190,-126
-141,-53,87,97,-114,17,-102,-219,-273,-229,-190,-126
-165,-29,136,97,-151,53,-97,-214,-253,-224,-175,-107
-165,-19,146,92,-156,63,-97,-209,-244,-214,-175,-97
-165,-19,146,92,-156,63,-97,-204,-244,-214,-175,-97
-165,-19,146,92,-156,63,-97,-200,-244,-214,-175,-97
-165,-19,146,92,-156,63,-97,-195,-244,-214,-175,-97
-165,-4,161,85,-163,78,-87,-185,-234,-209,-165,-107
-165,0,165,82,-165,82,-87,-185,-234,-204,-165,-107
-165,4,170,80,-168,87,-82,-185,-229,-200,-165,-102
-165,14,180,75,-173,97,-82,-185,-229,-195,-165,-102
-161,4,165,78,-163,85,-73,-195,-239,-209,-165,-102
-161,4,165,78,-163,85,-68,-195,-234,-209,-165,-102
-156,9,165,73,-161,87,-68,-190,-234,-209,-165,-107
-156,19,175,68,-165,97,-73,-185,-234,-204,-165,-107
-146,14,161,65,-153,87,-63,-180,-224,-200,-156,-92
-146,9,156,68,-151,82,-63,-180,-214,-190,-151,-87
-146,9,156,68,-151,82,-63,-180,-209,-185,-146,-87
-141,9,151,65,-146,80,-68,-175,-200,-170,-131,-82
-136,43,180,46,-158,112,-78,-175,-204,-170,-136,-87
-131,63,195,34,-163,129,-97,-185,-204,-175,-136,-87
-122,82,204,19,-163,143,-117,-185,-195,-175,-126,-82
-117,87,204,14,-161,146,-136,-190,-195,-175,-126,-73
-126,78,204,24,-165,141,-136,-180,-180,-161,-112,-63
-126,78,204,24,-165,141,-141,-195,-180,-161,-112,-58
-122,87,209,17,-165,148,-151,-195,-190,-161,-112,-53
-117,92,209,12,-163,151,-156,-200,-190,-165,-112,-53
-107,87,195,9,-151,141,-165,-195,-190,-165,-117,-48
-102,92,195,4,-148,143,-170,-195,-195,-165,-117,-48
-97,92,190,2,-143,141,-170,-200,-200,-170,-117,-48
-87,87,175,0,-131,131,-170,-204,-200,-170,-117,-48
-87,82,170,2,-129,126,-175,-219,-209,-170,-122,-48
-87,82,170,2,-129,126,-190,-224,-214,-175,-126,-48
-87,87,175,0,-131,131,-204,-244,-229,-190,-136,-53
-73,92,165,-9,-119,129,-214,-248,-248,-200,-141,-58
-82,78,161,2,-122,119,-229,-263,-263,-214,-156,-68
-82,58,141,12,-112,100,-229,-263,-273,-214,-156,-68
-87,58,146,14,-117,102,-224,-263,-263,-214,-156,-63
-92,58,151,17,-122,104,-209,-258,-248,-209,-151,-63
-92,68,161,12,-126,114,-195,-244,-248,-200,-141,-53
-102,68,170,17,-136,119,-180,-239,-248,-200,-141,-63
-112,63,175,24,-143,119,-165,-239,-248,-200,-141,-63
-117,43,161,36,-139,102,-156,-229,-248,-195,-141,-63
-117,24,141,46,-129,82,-156,-229,-244,-204,-141,-63
-122,4,126,58,-124,65,-146,-224,-244,-204,-141,-68
-136,-14,122,75,-129,53,-146,-224,-253,-214,-156,-78
-136,-39,97,87,-117,29,-141,-229,-268,-229,-175,-102
-131,-29,102,80,-117,36,-136,-234,-278,-234,-190,-117
-136,-34,102,85,-119,34,-126,-234,-278,-234,-195,-122
-146,-43,102,95,-124,29,-117,-234,-278,-234,-195,-126
-151,-39,112,95,-131,36,-117,-234,-283,-244,-204,-136
-161,-29,131,95,-146,51,-122,-244,-297,-253,-219,-146
-165,-48,117,107,-141,34,-122,-244,-302,-258,-219,-146
-165,-48,117,107,-141,34,-112,-244,-302,-263,-224,-156
-165,-43,122,104,-143,39,-112,-244,-307,-283,-234,-165
-165,-53,112,109,-139,29,-107,-239,-307,-278,-234,-165
-170,-63,107,117,-139,21,-107,-239,-307,-273,-229,-161
-175,-78,97,126,-136,9,-107,-239,-307,-273,-224,-156
-180,-92,87,136,-134,-2,-107,-239,-307,-268,-219,-151
-180,-97,82,139,-131,-7,-102,-234,-302,-268,-219,-156
-170,-92,78,131,-124,-7,-97,-234,-297,-268,-219,-156
-180,-112,68,146,-124,-21,-97,-234,-297,-268,-224,-156
-180,-117,63,148,-122,-26,-97,-234,-302,-268,-224,-156
-175,-97,78,136,-126,-9,-107,-244,-312,-278,-229,-165
-170,-87,82,129,-126,-2,-112,-244,-312,-273,-229,-165
-165,-87,78,126,-122,-4,-112,-244,-312,-273,-229,-165
-151,-68,82,109,-117,7,-107,-244,-312,-268,-224,-165
-161,-68,92,114,-126,12,-97,-239,-307,-258,-214,-156
-170,-78,92,124,-131,7,-97,-234,-302,-263,-214,-156
-175,-97,78,136,-126,-9,-97,-229,-297,-263,-214,-156
-175,-97,78,136,-126,-9,-92,-219,-292,-263,-214,-156
-175,-87,87,131,-131,0,-102,-229,-302,-273,-219,-156
-180,-82,97,131,-139,7,-102,-229,-302,-273,-224,-156
-185,-82,102,134,-143,9,-102,-229,-302,-273,-229,-156
-185,-78,107,131,-146,14,-107,-234,-302,-273,-239,-156
-180,-73,107,126,-143,17,-97,-234,-302,-273,-229,-156
-175,-73,102,124,-139,14,-97,-234,-302,-273,-229,-156
-170,-82,87,126,-129,2,-92,-224,-297,-268,-229,-156
-165,-73,92,119,-129,9,-92,-224,-297,-268,-229,-156
-170,-73,97,122,-134,12,-92,-224,-297,-268,-229,-156
-175,-73,102,124,-139,14,-92,-224,-292,-268,-224,-156
-180,-82,97,131,-139,7,-92,-224,-292,-268,-224,-156
-185,-92,92,139,-139,0,-92,-224,-292,-268,-224,-156
-180,-102,78,141,-129,-12,-92,-224,-283,-253,-219,-146
-170,-97,73,134,-122,-12,-92,-224,-283,-253,-219,-146
-165,-73,92,119,-129,9,-92,-224,-283,-253,-224,-151
-161,-73,87,117,-124,7,-92,-224,-287,-258,-234,-156
-175,-68,107,122,-141,19,-73,-214,-297,-263,-234,-170
-185,-68,117,126,-151,24,-53,-190,-292,-278,-248,-185
-195,-82,112,139,-153,14,-29,-165,-292,-297,-263,-209
-204,-141,63,173,-134,-39,14,-136,-268,-287,-273,-229
-200,-175,24,187,-112,-75,68,-78,-209,-248,-244,-200
-200,-122,78,161,-139,-21,92,-24,-156,-214,-229,-200
-209,-112,97,161,-153,-7,122,29,-122,-190,-219,-219
-209,-141,68,175,-139,-36,136,97,-58,-136,-180,-190
-175,-136,39,156,-107,-48,165,190,39,-48,-102,-136
-131,-131,0,131,-65,-65,185,307,170,78,9,-73
-63,-97,-34,80,-14,-65,175,429,331,258,165,34
19,-43,-63,12,41,-53,141,473,492,458,341,165
73,9,-63,-41,68,-26,78,468,619,639,507,292
131,78,-53,-104,92,12,14,429,732,800,678,429
224,204,-19,-214,122,92,-68,346,844,985,868,590
322,361,39,-341,141,200,-214,190,941,1166,1063,756
380,492,112,-436,134,302,-409,-14,1010,1322,1244,922
444,634,190,-539,126,412,-595,-204,1058,1449,1395,1063
492,741,248,-617,122,495,-741,-385,1024,1483,1468,1156
492,732,239,-612,126,485,-839,-527,917,1410,1429,1166
473,678,204,-575,134,441,-902,-639,717,1234,1254,1063
453,653,200,-553,126,427,-966,-795,473,995,1054,946
361,707,346,-534,7,527,-1010,-1010,283,819,917,883
253,775,522,-514,-134,649,-1019,-1215,131,663,810,863
185,775,590,-480,-202,683,-1010,-1317,-87,448,663,795
117,688,570,-402,-226,629,-961,-1361,-351,161,429,663
19,585,566,-302,-273,575,-888,-1429,-644,-165,170,492
-58,512,570,-226,-314,541,-829,-1478,-907,-444,-48,341
-82,483,566,-200,-324,524,-795,-1473,-1044,-614,-195,244
-117,429,546,-156,-331,488,-775,-1420,-1063,-658,-258,185
-136,361,497,-112,-317,429,-736,-1381,-1063,-697,-322,122
-156,292,448,-68,-302,370,-692,-1351,-1078,-756,-405,39
-190,229,419,-19,-305,324,-678,-1302,-1068,-771,-453,-29
-209,204,414,2,-312,309,-653,-1210,-1000,-746,-444,-58
-219,190,409,14,-314,300,-605,-1093,-922,-692,-434,-92
-239,156,395,41,-317,275,-561,-980,-858,-658,-424,-141
-229,126,356,51,-292,241,-502,-868,-756,-600,-405,-151
-200,117,317,41,-258,217,-429,-717,-634,-492,-346,-136
-180,117,297,31,-239,207,-336,-595,-527,-414,-307,-136
-185,92,278,46,-231,185,-258,-497,-463,-375,-287,-141
-175,58,234,58,-204,146,-190,-400,-385,-326,-253,-131
-165,14,180,75,-173,97,-131,-287,-312,-278,-214,-107
-146,-4,141,75,-143,68,-82,-209,-263,-234,-175,-97
-131,4,136,63,-134,70,-78,-175,-229,-204,-165,-87
-151,4,156,73,-153,80,-97,-175,-224,-200,-161,-97
-141,4,146,68,-143,75,-97,-185,-224,-195,-165,-97
-136,9,146,63,-141,78,-87,-185,-209,-180,-156,-97
-136,14,151,61,-143,82,-68,-161,-200,-175,-156,-97
-136,9,146,63,-141,78,-53,-151,-200,-175,-156,-102
-136,-4,131,70,-134,63,-39,-122,-200,-180,-161,-107
-136,-4,131,70,-134,63,-39,-112,-195,-185,-161,-112
-136,-9,126,73,-131,58,-43,-97,-190,-185,-170,-112
-136,-9,126,73,-131,58,-43,-97,-185,-170,-161,-107
-141,-9,131,75,-136,61,-43,-97,-175,-175,-151,-107
-141,-9,131,75,-136,61,-39,-97,-165,-175,-146,-107
-141,-9,131,75,-136,61,-34,-87,-161,-170,-146,-107
-141,-14,126,78,-134,56,-29,-78,-156,-165,-141,-107
-146,-24,122,85,-134,48,-19,-63,-151,-165,-141,-107
-146,-34,112,90,-129,39,-14,-53,-146,-165,-136,-107
-141,-39,102,90,-122,31,-14,-48,-146,-156,-136,-107
-141,-43,97,92,-119,26,-19,-48,-141,-156,-136,-107
-141,-34,107,87,-124,36,-29,-39,-141,-146,-126,-107
-141,-29,112,85,-126,41,-29,-39,-136,-146,-126,-107
-136,-29,107,82,-122,39,-19,-34,-126,-136,-117,-97
-136,-34,102,85,-119,34,-14,-29,-126,-131,-117,-97
-131,-34,97,82,-114,31,-14,-24,-122,-131,-126,-97
-131,-34,97,82,-114,31,-9,-19,-117,-122,-122,-97
-126,-24,102,75,-114,39,-9,-9,-112,-122,-122,-92
-126,-24,102,75,-114,39,-9,-9,-112,-122,-122,-92
-136,-24,112,80,-124,43,-14,-9,-97,-122,-122,-92
-136,-19,117,78,-126,48,-14,-4,-92,-117,-122,-92
-136,-19,117,78,-126,48,-9,-4,-87,-107,-112,-92
-136,-19,117,78,-126,48,-9,4,-82,-102,-112,-87
-126,-14,112,70,-119,48,9,24,-73,-97,-97,-82
-117,-4,112,61,-114,53,9,29,-73,-92,-97,-82
-117,-24,92,70,-104,34,9,34,-73,-92,-102,-82
-122,-24,97,73,-109,36,9,34,-68,-92,-102,-82
-131,-14,117,73,-124,51,0,29,-63,-92,-102,-92
-131,-4,126,68,-129,61,0,34,-48,-87,-97,-87
-122,-4,117,63,-119,56,0,39,-43,-78,-92,-87
-122,-4,117,63,-119,56,4,43,-39,-78,-87,-78
-112,-9,102,61,-107,46,19,63,-34,-58,-73,-68
-112,-9,102,61,-107,46,19,68,-29,-58,-68,-68
-112,-9,102,61,-107,46,24,78,-24,-53,-68,-68
-112,-9,102,61,-107,46,24,82,-19,-48,-68,-68
-112,-9,102,61,-107,46,34,87,-4,-43,-58,-53
-112,-9,102,61,-107,46,34,87,0,-43,-58,-53
-107,-14,92,61,-100,39,39,97,14,-29,-43,-48
-102,-19,82,61,-92,31,39,102,24,-24,-39,-48
-112,-4,107,58,-109,51,34,107,19,-34,-48,-53
-107,0,107,53,-107,53,34,107,19,-34,-48,-48
-102,9,112,46,-107,61,34,122,29,-24,-43,-53
-102,14,117,43,-109,65,34,126,34,-14,-39,-53
-92,9,102,41,-97,56,43,146,43,-9,-34,-53
-92,9,102,41,-97,56,43,146,53,-4,-29,-48
-92,9,102,41,-97,56,48,161,63,9,-14,-43
-92,14,107,39,-100,61,58,170,78,14,-9,-39
-92,34,126,29,-109,80,48,180,78,24,-4,-34
-92,39,131,26,-112,85,53,190,82,34,-4,-29
-87,39,126,24,-107,82,53,200,92,39,0,-29
-78,29,107,24,-92,68,58,219,112,53,9,-24
-68,29,97,19,-82,63,73,234,131,68,14,-14
-68,39,107,14,-87,73,78,244,131,73,24,-14
-68,39,107,14,-87,73,78,258,141,87,34,-9
-68,29,97,19,-82,63,92,278,165,97,43,0
-68,29,97,19,-82,63,97,292,170,112,53,9
-68,29,97,19,-82,63,102,312,190,122,58,14
-53,29,82,12,-68,56,107,326,204,131,68,19
-48,39,87,4,-68,63,112,346,214,141,73,24
-48,48,97,0,-73,73,122,361,224,146,73,19
-43,53,97,-4,-70,75,126,380,244,161,87,29
-48,58,107,-4,-78,82,141,400,263,180,102,34
-53,68,122,-7,-87,95,141,419,287,195,107,39
-39,73,112,-17,-75,92,141,429,297,209,112,43
-34,78,112,-21,-73,95,151,453,312,214,122,43
-34,87,122,-26,-78,104,161,473,322,224,131,53
-29,97,126,-34,-78,112,165,492,336,234,141,63
-4,97,102,-46,-53,100,185,522,361,258,156,73
-4,92,97,-43,-51,95,195,541,380,278,170,87
0,92,92,-46,-46,92,195,570,390,292,180,92
4,92,87,-48,-41,90,200,595,414,317,204,107
-4,102,107,-48,-56,104,209,614,434,326,209,112
0,102,102,-51,-51,102,229,639,458,351,229,122
4,112,107,-58,-51,109,229,663,473,366,239,126
19,122,102,-70,-41,112,234,678,488,375,239,136
29,122,92,-75,-31,107,244,692,502,380,244,136
34,126,92,-80,-29,109,244,702,512,390,258,141
34,126,92,-80,-29,109,248,717,517,400,258,141
34,141,107,-87,-36,124,253,736,531,409,268,146
29,141,112,-85,-41,126,258,751,551,429,283,156
34,131,97,-82,-31,114,263,766,561,439,292,165
43,151,107,-97,-31,129,263,775,575,448,302,170
48,151,102,-100,-26,126,273,790,585,458,307,170
58,141,82,-100,-12,112,283,810,590,468,312,180
63,146,82,-104,-9,114,283,819,595,473,312,185
63,151,87,-107,-12,119,278,819,595,473,317,185
63,151,87,-107,-12,119,278,819,595,473,317,185
68,161,92,-114,-12,126,278,834,600,473,317,180
73,161,87,-117,-7,124,283,839,610,478,322,180
73,151,78,-112,-2,114,283,839,610,478,326,190
73,141,68,-107,2,104,283,839,610,478,326,190
82,141,58,-112,12,100,283,824,595,473,322,180
82,141,58,-112,12,100,278,824,590,468,322,180
78,131,53,-104,12,92,278,819,585,468,317,175
78,131,53,-104,12,92,273,814,580,463,312,175
68,126,58,-97,4,92,273,805,570,448,307,170
68,126,58,-97,4,92,263,790,556,439,297,161
68,136,68,-102,0,102,263,775,536,429,292,151
63,126,63,-95,0,95,258,766,527,414,278,151
68,136,68,-102,0,102,244,741,517,409,268,161
73,136,63,-104,4,100,239,727,497,395,258,156
73,122,48,-97,12,85,234,707,488,385,253,151
73,117,43,-95,14,80,214,678,458,366,234,136
82,117,34,-100,24,75,214,658,434,346,229,136
82,117,34,-100,24,75,204,629,419,326,219,131
73,117,43,-95,14,80,195,595,395,302,200,117
53,112,58,-82,-2,85,180,566,366,278,185,107
39,107,68,-73,-14,87,170,531,341,263,180,97
39,97,58,-68,-9,78,161,492,326,244,170,92
29,78,48,-53,-9,63,151,463,292,224,146,87
29,73,43,-51,-7,58,131,429,263,200,131,73
9,73,63,-41,-26,68,122,395,239,180,112,53
0,58,58,-29,-29,58,102,361,214,156,102,43
-14,58,73,-21,-43,65,87,326,185,136,87,39
-19,58,78,-19,-48,68,82,292,161,107,68,29
-24,63,87,-19,-56,75,63,268,146,102,58,29
-19,58,78,-19,-48,68,58,239,126,82,43,19
-19,53,73,-17,-46,63,43,209,97,68,19,9
-29,43,73,-7,-51,58,29,185,82,43,14,-4
-39,34,73,2,-56,53,24,151,63,19,0,-4
-43,34,78,4,-61,56,14,126,39,4,-9,-14
-43,39,82,2,-63,61,0,102,14,-14,-24,-24
-43,43,87,0,-65,65,-4,82,4,-34,-39,-34
-53,43,97,4,-75,70,-14,63,-24,-34,-34,-43
-63,29,92,17,-78,61,-14,43,-39,-48,-53,-53
-82,19,102,31,-92,61,-24,29,-53,-58,-58,-53
-82,9,92,36,-87,51,-24,14,-58,-68,-58,-53
-68,14,82,26,-75,48,-24,9,-68,-82,-73,-48
-68,14,82,26,-75,48,-29,-9,-78,-92,-82,-53
-82,14,97,34,-90,56,-43,-29,-92,-112,-87,-68
-87,14,102,36,-95,58,-48,-43,-107,-117,-97,-73
-97,4,102,46,-100,53,-58,-48,-122,-122,-107,-82
-97,-4,92,51,-95,43,-58,-58,-131,-126,-112,-87
-102,-4,97,53,-100,46,-63,-63,-136,-136,-122,-92
-107,-4,102,56,-104,48,-68,-73,-141,-146,-126,-92
-107,4,112,51,-109,58,-58,-87,-151,-151,-131,-87
-107,4,112,51,-109,58,-63,-92,-156,-156,-131,-92
-112,4,117,53,-114,61,-63,-102,-161,-156,-131,-92
-112,4,117,53,-114,61,-68,-107,-161,-156,-131,-92
-112,4,117,53,-114,61,-78,-126,-156,-156,-136,-102
-112,4,117,53,-114,61,-82,-131,-170,-165,-141,-112
-117,9,126,53,-122,68,-87,-131,-170,-170,-141,-112
-117,9,126,53,-122,68,-87,-131,-175,-175,-151,-117
-102,4,107,48,-104,56,-78,-136,-175,-175,-151,-107
-102,9,112,46,-107,61,-78,-136,-175,-175,-151,-107
-107,14,122,46,-114,68,-78,-146,-175,-175,-151,-107
-107,24,131,41,-119,78,-82,-146,-175,-175,-151,-107
-117,14,131,51,-124,73,-92,-151,-190,-175,-151,-117
-117,4,122,56,-119,63,-92,-151,-190,-180,-151,-117
-117,-19,97,68,-107,39,-92,-151,-190,-180,-151,-117
-117,-29,87,73,-102,29,-92,-151,-190,-180,-151,-117
-117,-19,97,68,-107,39,-82,-136,-180,-180,-151,-107
-117,-14,102,65,-109,43,-82,-136,-185,-180,-151,-107
-122,-14,107,68,-114,46,-87,-146,-185,-180,-151,-107
-122,-9,112,65,-117,51,-87,-146,-185,-180,-151,-107
-117,4,122,56,-119,63,-92,-151,-195,-185,-161,-107
-117,4,122,56,-119,63,-92,-151,-190,-185,-161,-112
-117,9,126,53,-122,68,-97,-151,-190,-185,-161,-117
-117,24,141,46,-129,82,-112,-151,-190,-185,-161,-122
-117,14,131,51,-124,73,-92,-151,-190,-185,-151,-112
-117,4,122,56,-119,63,-92,-146,-190,-185,-146,-107
-112,14,126,48,-119,70,-92,-146,-190,-185,-146,-107
-112,19,131,46,-122,75,-97,-146,-190,-185,-146,-112
-112,9,122,51,-117,65,-87,-141,-185,-180,-136,-107
-112,0,112,56,-112,56,-87,-136,-180,-175,-131,-102
-107,-9,97,58,-102,43,-87,-131,-175,-170,-131,-97
-102,-19,82,61,-92,31,-87,-126,-170,-165,-131,-92
-97,-9,87,53,-92,39,-87,-136,-180,-175,-141,-97
-102,0,102,51,-102,51,-87,-136,-180,-175,-146,-102
-107,4,112,51,-109,58,-87,-136,-180,-175,-146,-107
-112,0,112,56,-112,56,-82,-131,-180,-170,-146,-107
-102,4,107,48,-104,56,-78,-117,-165,-161,-126,-92
-102,4,107,48,-104,56,-78,-117,-165,-161,-126,-92
-102,4,107,48,-104,56,-82,-117,-165,-161,-126,-92
-102,4,107,48,-104,56,-82,-122,-165,-161,-131,-97
-112,-4,107,58,-109,51,-92,-126,-170,-170,-141,-107
-112,-4,107,58,-109,51,-92,-126,-170,-170,-141,-107
-112,0,112,56,-112,56,-92,-131,-170,-170,-141,-107
-112,0,112,56,-112,56,-92,-136,-165,-170,-141,-102
-112,4,117,53,-114,61,-92,-136,-175,-165,-141,-112
-112,14,126,48,-119,70,-92,-131,-170,-165,-141,-112
-112,19,131,46,-122,75,-92,-131,-170,-161,-141,-112
-112,24,136,43,-124,80,-92,-131,-170,-161,-141,-112
-107,24,131,41,-119,78,-92,-131,-170,-161,-141,-102
-107,24,131,41,-119,78,-87,-131,-170,-161,-141,-102
-102,24,126,39,-114,75,-87,-126,-170,-161,-136,-102
-102,24,126,39,-114,75,-87,-126,-165,-161,-136,-102
-112,9,122,51,-117,65,-87,-117,-165,-165,-136,-102
-112,9,122,51,-117,65,-87,-117,-165,-161,-136,-102
-112,19,131,46,-122,75,-87,-117,-165,-161,-141,-102
-112,19,131,46,-122,75,-87,-117,-165,-165,-141,-102
-102,4,107,48,-104,56,-87,-117,-156,-156,-131,-102
-102,4,107,48,-104,56,-87,-117,-156,-156,-131,-102
-102,9,112,46,-107,61,-87,-117,-156,-156,-131,-102
-102,9,112,46,-107,61,-87,-117,-156,-156,-131,-102
-107,19,126,43,-117,73,-87,-126,-165,-165,-141,-102
-107,14,122,46,-114,68,-87,-126,-165,-165,-141,-102
-102,34,136,34,-119,85,-87,-126,-165,-165,-141,-102
-102,39,141,31,-122,90,-87,-126,-165,-165,-141,-102
-102,29,131,36,-117,80,-87,-126,-165,-165,-141,-112
-102,29,131,36,-117,80,-87,-126,-165,-165,-141,-112
-102,29,131,36,-117,80,-87,-126,-165,-165,-141,-112
-102,29,131,36,-117,80,-87,-126,-165,-170,-141,-117
-112,9,122,51,-117,65,-87,-117,-156,-165,-136,-112
-117,9,126,53,-122,68,-87,-122,-156,-165,-136,-107
-126,14,141,56,-134,78,-87,-122,-161,-165,-141,-102
-126,14,141,56,-134,78,-87,-122,-161,-165,-141,-97
-112,24,136,43,-124,80,-78,-126,-161,-165,-141,-107
-107,24,131,41,-119,78,-78,-126,-161,-165,-141,-102
-107,19,126,43,-117,73,-78,-126,-161,-165,-141,-102
-102,19,122,41,-112,70,-78,-126,-161,-165,-141,-107
-102,34,136,34,-119,85,-82,-131,-175,-185,-151,-117
-102,39,141,31,-122,90,-87,-136,-180,-185,-156,-122
-107,48,156,29,-131,102,-92,-136,-180,-180,-156,-122
-107,53,161,26,-134,107,-97,-136,-180,-180,-156,-122
-107,34,141,36,-124,87,-87,-126,-180,-170,-146,-112
-112,9,122,51,-117,65,-87,-126,-175,-170,-146,-112
-112,14,126,48,-119,70,-87,-131,-170,-180,-151,-117
-112,14,126,48,-119,70,-87,-136,-170,-185,-156,-117
-117,19,136,48,-126,78,-87,-136,-180,-185,-156,-117
-117,19,136,48,-126,78,-87,-131,-180,-185,-156,-117
-122,4,126,58,-124,65,-87,-131,-185,-185,-156,-117
-122,-9,112,65,-117,51,-87,-136,-185,-185,-156,-117
-112,4,117,53,-114,61,-87,-146,-185,-185,-161,-122
-117,19,136,48,-126,78,-87,-151,-190,-190,-161,-122
-117,24,141,46,-129,82,-92,-156,-195,-195,-165,-122
-117,29,146,43,-131,87,-92,-156,-195,-195,-165,-122
-117,34,151,41,-134,92,-92,-151,-185,-195,-161,-122
-117,34,151,41,-134,92,-92,-151,-190,-200,-161,-122
-117,4,122,56,-119,63,-92,-151,-190,-200,-165,-122
-122,-19,102,70,-112,41,-87,-146,-190,-195,-165,-122
-112,4,117,53,-114,61,-97,-156,-200,-204,-175,-131
-112,14,126,48,-119,70,-102,-165,-204,-209,-180,-136
-112,24,136,43,-124,80,-102,-170,-214,-219,-185,-136
-117,29,146,43,-131,87,-107,-170,-214,-219,-185,-136
-117,9,126,53,-122,68,-102,-165,-204,-209,-180,-131
-117,-9,107,63,-112,48,-97,-165,-204,-209,-180,-126
-117,-14,102,65,-109,43,-92,-161,-204,-209,-175,-122
-112,-4,107,58,-109,51,-87,-156,-209,-209,-170,-122
-112,0,112,56,-112,56,-97,-165,-219,-214,-170,-131
-112,4,117,53,-114,61,-97,-170,-219,-214,-170,-131
-112,9,122,51,-117,65,-97,-170,-219,-214,-170,-131
-112,9,122,51,-117,65,-97,-170,-219,-219,-170,-131
-126,0,126,63,-126,63,-97,-170,-214,-219,-170,-131
-126,-9,117,68,-122,53,-97,-175,-214,-219,-175,-131
-126,-14,112,70,-119,48,-97,-175,-219,-219,-175,-131
-126,-14,112,70,-119,48,-102,-175,-219,-219,-180,-131
-122,-4,117,63,-119,56,-102,-180,-229,-229,-180,-131
-117,0,117,58,-117,58,-102,-180,-229,-229,-180,-131
-112,4,117,53,-114,61,-102,-180,-224,-224,-180,-126
-107,9,117,48,-112,63,-102,-180,-224,-224,-180,-126
-112,19,131,46,-122,75,-102,-190,-229,-234,-185,-141
-112,4,117,53,-114,61,-102,-195,-229,-234,-185,-141
-112,14,126,48,-119,70,-102,-195,-234,-234,-185,-141
-112,14,126,48,-119,70,-107,-200,-234,-234,-185,-141
-102,4,107,48,-104,56,-107,-190,-244,-244,-195,-141
-102,4,107,48,-104,56,-107,-190,-244,-244,-195,-141
-102,14,117,43,-109,65,-107,-190,-244,-248,-195,-146
-102,4,107,48,-104,56,-107,-195,-244,-248,-195,-146
-117,-4,112,61,-114,53,-107,-195,-234,-244,-185,-146
-122,0,122,61,-122,61,-107,-195,-239,-239,-185,-146
-122,0,122,61,-122,61,-107,-195,-239,-234,-185,-146
-126,-4,122,65,-124,58,-107,-195,-239,-229,-185,-146
-122,4,126,58,-124,65,-112,-195,-244,-239,-195,-146
-117,0,117,58,-117,58,-112,-195,-244,-239,-200,-146
-117,0,117,58,-117,58,-112,-195,-244,-248,-200,-146
-117,4,122,56,-119,63,-112,-195,-248,-248,-204,-146
-117,0,117,58,-117,58,-102,-195,-248,-234,-195,-136
-112,-9,102,61,-107,46,-102,-195,-239,-229,-190,-136
-112,-14,97,63,-104,41,-102,-195,-239,-229,-190,-136
-112,-19,92,65,-102,36,-102,-200,-244,-234,-195,-141
-122,-24,97,73,-109,36,-112,-209,-253,-239,-204,-151
-126,-24,102,75,-114,39,-112,-209,-258,-244,-204,-151
-126,-19,107,73,-117,43,-112,-209,-258,-248,-204,-151
-122,-4,117,63,-119,56,-112,-209,-258,-253,-200,-146
-122,-14,107,68,-114,46,-112,-209,-244,-239,-190,-146
-122,-14,107,68,-114,46,-112,-209,-244,-239,-190,-146
-122,-9,112,65,-117,51,-112,-209,-244,-244,-190,-146
-122,-4,117,63,-119,56,-112,-209,-244,-244,-190,-146
-122,-14,107,68,-114,46,-112,-209,-248,-253,-200,-151
-122,-14,107,68,-114,46,-112,-204,-248,-253,-200,-151
-122,0,122,61,-122,61,-117,-204,-253,-253,-200,-151
-122,4,126,58,-124,65,-117,-209,-253,-253,-204,-161
-122,0,122,61,-122,61,-117,-200,-253,-253,-204,-151
-122,0,122,61,-122,61,-117,-200,-253,-253,-204,-151
-122,-4,117,63,-119,56,-117,-204,-253,-253,-209,-151
-122,-14,107,68,-114,46,-117,-204,-253,-253,-209,-151
-112,-19,92,65,-102,36,-117,-209,-258,-263,-204,-146
-117,-19,97,68,-107,39,-112,-209,-258,-258,-204,-146
-117,-14,102,65,-109,43,-112,-209,-258,-258,-204,-146
-117,-4,112,61,-114,53,-112,-209,-258,-258,-204,-146
-112,4,117,53,-114,61,-112,-214,-263,-253,-200,-156
-112,4,117,53,-114,61,-122,-214,-263,-258,-200,-156
-122,0,122,61,-122,61,-122,-214,-263,-258,-200,-156
-122,-9,112,65,-117,51,-122,-214,-263,-258,-200,-161
-117,-14,102,65,-109,43,-117,-209,-258,-248,-200,-161
-117,-19,97,68,-107,39,-112,-204,-253,-244,-200,-156
-117,-24,92,70,-104,34,-107,-200,-248,-244,-200,-146
-117,-39,78,78,-97,19,-102,-195,-244,-244,-200,-141
-126,-4,122,65,-124,58,-102,-195,-248,-248,-209,-146
-122,-9,112,65,-117,51,-107,-200,-253,-253,-204,-146
-122,-4,117,63,-119,56,-112,-204,-258,-258,-204,-151
-122,19,141,51,-131,80,-122,-214,-263,-263,-204,-161
-112,14,126,48,-119,70,-112,-204,-253,-253,-195,-151
-117,-9,107,63,-112,48,-112,-204,-253,-253,-195,-151
-117,-14,102,65,-109,43,-112,-204,-253,-253,-195,-151
-117,0,117,58,-117,58,-107,-204,-253,-253,-195,-151
-122,-9,112,65,-117,51,-117,-214,-258,-263,-204,-156
-112,0,112,56,-112,56,-117,-209,-258,-258,-204,-156
-122,-9,112,65,-117,51,-117,-209,-263,-258,-204,-156
-126,-19,107,73,-117,43,-117,-209,-263,-258,-204,-151
-117,-19,97,68,-107,39,-112,-219,-263,-258,-214,-161
-112,-4,107,58,-109,51,-112,-219,-263,-263,-214,-161
-112,-4,107,58,-109,51,-112,-219,-263,-263,-214,-161
-112,-9,102,61,-107,46,-112,-219,-258,-258,-214,-161
-122,-19,102,70,-112,41,-112,-209,-258,-258,-204,-151
-122,-19,102,70,-112,41,-112,-209,-258,-258,-200,-151
-122,-14,107,68,-114,46,-112,-209,-258,-258,-200,-151
-122,-14,107,68,-114,46,-112,-209,-253,-258,-200,-151
-131,-19,112,75,-122,46,-112,-219,-258,-258,-209,-161
-136,-19,117,78,-126,48,-112,-219,-258,-258,-209,-161
-136,-19,117,78,-126,48,-112,-219,-263,-253,-209,-161
-126,-19,107,73,-117,43,-112,-219,-268,-253,-209,-161
-117,-29,87,73,-102,29,-102,-209,-253,-253,-204,-151
-122,-24,97,73,-109,36,-107,-209,-253,-253,-204,-151
-122,-24,97,73,-109,36,-117,-209,-253,-253,-200,-146
-107,-9,97,58,-102,43,-117,-209,-253,-248,-200,-141
-107,-4,102,56,-104,48,-107,-209,-263,-258,-209,-151
-117,-4,112,61,-114,53,-107,-209,-263,-258,-209,-151
-117,0,117,58,-117,58,-107,-214,-263,-258,-209,-156
-107,4,112,51,-109,58,-112,-219,-263,-258,-209,-156
-87,14,102,36,-95,58,-122,-214,-268,-258,-209,-165
-112,-4,107,58,-109,51,-102,-200,-263,-248,-200,-146
-126,-19,107,73,-117,43,-97,-195,-244,-244,-195,-136
-126,-9,117,68,-122,53,-107,-204,-253,-253,-195,-146
-126,-9,117,68,-122,53,-107,-204,-253,-253,-195,-146
-126,-9,117,68,-122,53,-107,-204,-253,-253,-195,-146
-126,-9,117,68,-122,53,-107,-204,-253,-253,-195,-146
-117,0,117,58,-117,58,-117,-214,-253,-244,-195,-146
-117,9,126,53,-122,68,-117,-214,-253,-244,-195,-146
-117,19,136,48,-126,78,-117,-214,-253,-244,-195,-146
-117,29,146,43,-131,87,-117,-214,-253,-244,-195,-146
-107,39,146,34,-126,92,-112,-200,-239,-239,-190,-141
-107,39,146,34,-126,92,-107,-195,-234,-234,-185,-136
-107,39,146,34,-126,92,-102,-190,-229,-229,-180,-131
-107,39,146,34,-126,92,-92,-185,-219,-224,-175,-122
-97,53,151,21,-124,102,-82,-185,-219,-214,-165,-122
-102,53,156,24,-129,104,-73,-185,-219,-219,-165,-122
-102,53,156,24,-129,104,-68,-185,-214,-219,-165,-122
-97,58,156,19,-126,107,-68,-180,-214,-219,-165,-126
-112,53,165,29,-139,109,-82,-185,-224,-224,-175,-136
-117,48,165,34,-141,107,-82,-180,-219,-224,-170,-131
-122,43,165,39,-143,104,-82,-180,-214,-219,-170,-126
-126,43,170,41,-148,107,-82,-180,-214,-219,-170,-126
-107,53,161,26,-134,107,-78,-165,-200,-200,-151,-117
-97,78,175,9,-136,126,-82,-165,-195,-195,-146,-107
-87,97,185,-4,-136,141,-97,-175,-195,-195,-146,-102
-73,117,190,-21,-131,153,-112,-175,-185,-190,-136,-92
-78,117,195,-19,-136,156,-136,-180,-195,-190,-146,-87
-78,117,195,-19,-136,156,-141,-180,-190,-190,-141,-92
-78,117,195,-19,-136,156,-151,-195,-190,-195,-141,-92
-73,126,200,-26,-136,163,-165,-195,-200,-200,-141,-92
-68,122,190,-26,-129,156,-165,-190,-190,-200,-141,-82
-63,112,175,-24,-119,143,-175,-195,-190,-195,-136,-78
-63,112,175,-24,-119,143,-180,-195,-195,-190,-136,-78
-63,107,170,-21,-117,139,-180,-200,-200,-190,-136,-78
-48,117,165,-34,-107,141,-180,-214,-200,-200,-136,-78
-48,107,156,-29,-102,131,-185,-219,-209,-200,-141,-78
-48,102,151,-26,-100,126,-200,-224,-214,-204,-146,-78
-48,102,151,-26,-100,126,-214,-244,-229,-219,-156,-82
-34,107,141,-36,-87,124,-224,-248,-248,-229,-161,-97
-34,107,141,-36,-87,124,-229,-253,-253,-234,-165,-97
-34,92,126,-29,-80,109,-229,-253,-263,-234,-165,-97
-39,97,136,-29,-87,117,-224,-253,-253,-234,-165,-92
-43,107,151,-31,-97,129,-209,-258,-248,-229,-161,-92
-43,107,151,-31,-97,129,-204,-253,-248,-229,-161,-92
-53,107,161,-26,-107,134,-190,-248,-248,-229,-161,-102
-63,102,165,-19,-114,134,-175,-248,-248,-229,-161,-102
-68,92,161,-12,-114,126,-175,-229,-248,-234,-170,-102
-68,78,146,-4,-107,112,-165,-219,-244,-234,-170,-102
-73,63,136,4,-104,100,-156,-214,-244,-234,-170,-107
-87,48,136,19,-112,92,-156,-214,-253,-244,-185,-117
-87,19,107,34,-97,63,-146,-219,-263,-253,-200,-136
-92,0,92,46,-92,46,-136,-224,-268,-263,-200,-136
-97,-24,73,61,-85,24,-122,-224,-263,-258,-200,-136
-107,-53,53,80,-80,0,-107,-224,-258,-253,-195,-136
-112,-43,68,78,-90,12,-117,-224,-273,-273,-204,-156
-112,-39,73,75,-92,17,-112,-224,-278,-278,-209,-156
-117,-53,63,85,-90,4,-112,-224,-283,-278,-209,-156
-117,-48,68,82,-92,9,-102,-224,-283,-278,-214,-165
-117,-48,68,82,-92,9,-102,-234,-287,-292,-234,-175
-117,-53,63,85,-90,4,-107,-239,-297,-292,-239,-180
-122,-58,63,90,-92,2,-107,-239,-297,-292,-239,-180
-126,-68,58,97,-92,-4,-107,-239,-297,-297,-239,-180
-141,-68,73,104,-107,2,-117,-239,-307,-287,-229,-180
-141,-63,78,102,-109,7,-112,-234,-302,-287,-229,-175
-131,-48,82,90,-107,17,-107,-234,-297,-287,-229,-175
-141,-58,82,100,-112,12,-107,-234,-297,-287,-234,-175
-141,-58,82,100,-112,12,-107,-234,-302,-297,-244,-185
-141,-48,92,95,-117,21,-107,-234,-302,-297,-239,-185
-141,-48,92,95,-117,21,-112,-234,-302,-292,-239,-185
-141,-58,82,100,-112,12,-112,-234,-302,-292,-239,-185
-126,-48,78,87,-102,14,-107,-224,-292,-287,-234,-175
-122,-39,82,80,-102,21,-107,-224,-292,-287,-234,-175
-126,-48,78,87,-102,14,-107,-224,-292,-292,-234,-175
-126,-68,58,97,-92,-4,-107,-224,-292,-292,-234,-175
-131,-73,58,102,-95,-7,-92,-229,-283,-283,-224,-175
-131,-78,53,104,-92,-12,-92,-229,-283,-283,-224,-175
-136,-78,58,107,-97,-9,-92,-229,-283,-283,-224,-175
-141,-82,58,112,-100,-12,-92,-229,-283,-283,-224,-175
-126,-63,63,95,-95,0,-97,-224,-292,-283,-229,-175
-126,-53,73,90,-100,9,-97,-224,-292,-283,-229,-175
-126,-48,78,87,-102,14,-97,-224,-292,-283,-229,-175
-126,-53,73,90,-100,9,-92,-214,-287,-278,-229,-175
-117,-53,63,85,-90,4,-92,-214,-278,-278,-219,-165
-117,-43,73,80,-95,14,-92,-214,-278,-278,-219,-165
-117,-43,73,80,-95,14,-92,-214,-273,-278,-214,-165
-117,-53,63,85,-90,4,-92,-214,-273,-278,-214,-165
-126,-63,63,95,-95,0,-102,-224,-283,-278,-224,-175
-126,-63,63,95,-95,0,-102,-224,-283,-273,-219,-165
-122,-58,63,90,-92,2,-102,-224,-283,-273,-219,-165
-122,-34,87,78,-104,26,-102,-224,-283,-273,-224,-170
-112,-24,87,68,-100,31,-92,-214,-287,-287,-234,-175
-117,-39,78,78,-97,19,-82,-195,-278,-292,-244,-180
-126,-68,58,97,-92,-4,-53,-180,-273,-287,-248,-195
-146,-102,43,124,-95,-29,-19,-146,-263,-297,-263,-209
-165,-131,34,148,-100,-48,24,-107,-229,-278,-253,-219
-170,-117,53,143,-112,-31,48,-68,-190,-258,-244,-229
-151,-82,68,117,-109,-7,92,-14,-146,-234,-239,-229
-161,-102,58,131,-109,-21,122,58,-102,-200,-209,-229
-161,-131,29,146,-95,-51,146,136,-29,-136,-161,-190
-97,-107,-9,102,-43,-58,185,229,78,-39,-73,-126
-63,-73,-9,68,-26,-41,195,336,209,87,19,-73
-14,-58,-43,36,14,-51,175,439,341,248,165,14
87,-14,-102,-36,95,-58,151,502,512,458,361,165
170,19,-151,-95,161,-65,97,517,649,649,546,312
219,78,-141,-148,180,-31,34,488,751,819,707,439
312,214,-97,-263,204,58,-58,405,883,995,897,600
390,370,-19,-380,204,175,-204,239,980,1176,1083,766
429,502,73,-466,178,287,-400,24,1039,1312,1244,912
473,634,161,-553,156,397,-595,-175,1049,1400,1356,1034
541,732,190,-636,175,461,-732,-346,1015,1424,1420,1117
561,722,161,-641,200,441,-800,-468,907,1342,1361,1107
531,658,126,-595,202,392,-873,-600,678,1137,1176,995
483,653,170,-568,156,412,-956,-775,434,907,976,888
400,697,297,-549,51,497,-980,-990,273,751,868,863
292,717,424,-505,-65,570,-1000,-1185,112,595,771,844
195,717,522,-456,-163,619,-1000,-1298,-126,351,585,746
126,688,561,-407,-217,624,-971,-1381,-419,43,341,585
58,634,575,-346,-258,605,-897,-1449,-702,-263,92,414
9,580,570,-295,-280,575,-819,-1488,-936,-512,-97,292
-4,531,536,-263,-270,534,-785,-1464,-1044,-644,-214,214
-39,458,497,-209,-268,478,-766,-1400,-1044,-688,-278,156
-78,361,439,-141,-258,400,-717,-1361,-1054,-736,-351,73
-136,263,400,-63,-268,331,-683,-1322,-1078,-785,-424,0
-180,209,390,-14,-285,300,-668,-1273,-1049,-790,-453,-58
-180,204,385,-12,-283,295,-634,-1180,-980,-756,-444,-78
-190,180,370,4,-280,275,-595,-1073,-902,-712,-444,-122
-200,146,346,26,-273,246,-551,-980,-839,-678,-444,-170
-180,136,317,21,-248,226,-502,-858,-746,-610,-405,-180
-131,107,239,12,-185,173,-419,-717,-614,-512,-346,-165
-112,68,180,21,-146,124,-326,-575,-517,-434,-307,-156
-126,53,180,36,-153,117,-239,-448,-424,-375,-268,-141
-117,39,156,39,-136,97,-161,-331,-346,-307,-224,-122
-97,14,112,41,-104,63,-112,-248,-292,-278,-204,-117
-107,-4,102,56,-104,48,-82,-200,-253,-253,-195,-117
-102,-4,97,53,-100,46,-87,-175,-229,-224,-175,-107
-92,4,97,43,-95,51,-97,-165,-204,-200,-151,-107
-92,0,92,46,-92,46,-87,-156,-204,-204,-156,-97
-87,0,87,43,-87,43,-78,-156,-190,-190,-146,-97
-87,0,87,43,-87,43,-58,-131,-180,-185,-146,-97
-87,-9,78,48,-82,34,-43,-122,-180,-185,-146,-102
-87,-9,78,48,-82,34,-39,-112,-180,-190,-151,-107
-87,-4,82,46,-85,39,-39,-102,-175,-195,-151,-112
-87,-4,82,46,-85,39,-43,-87,-170,-195,-161,-112
-87,0,87,43,-87,43,-43,-87,-165,-180,-151,-107
-73,0,73,36,-73,36,-43,-78,-156,-165,-131,-107
-73,0,73,36,-73,36,-39,-78,-146,-165,-126,-107
-73,0,73,36,-73,36,-34,-68,-141,-161,-126,-107
-73,-4,68,39,-70,31,-29,-58,-136,-156,-122,-107
-82,-24,58,53,-70,17,-9,-43,-122,-165,-122,-107
-87,-34,53,61,-70,9,-4,-34,-117,-165,-117,-107
-87,-39,48,63,-68,4,-4,-29,-117,-156,-117,-107
-92,-43,48,68,-70,2,-9,-29,-112,-156,-117,-107
-87,-29,58,58,-73,14,-29,-39,-117,-165,-126,-117
-82,-19,63,51,-73,21,-29,-39,-117,-165,-126,-117
-73,-14,58,43,-65,21,-19,-34,-112,-156,-117,-107
-68,-14,53,41,-61,19,-14,-29,-117,-151,-117,-107
-73,-24,48,48,-61,12,-14,-14,-107,-141,-107,-97
-73,-24,48,48,-61,12,-9,-9,-97,-131,-102,-97
-68,-14,53,41,-61,19,-9,0,-87,-131,-102,-92
-68,-14,53,41,-61,19,-9,0,-82,-131,-102,-92
-78,-14,63,46,-70,24,-14,0,-82,-131,-107,-102
-78,-9,68,43,-73,29,-14,4,-82,-126,-112,-102
-78,-9,68,43,-73,29,-9,4,-82,-117,-107,-102
-78,-9,68,43,-73,29,-9,14,-82,-112,-112,-97
-87,-9,78,48,-82,34,9,34,-63,-107,-97,-92
-78,-4,73,41,-75,34,9,39,-63,-102,-97,-92
-78,-29,48,53,-63,9,9,43,-63,-102,-102,-92
-82,-34,48,58,-65,7,9,43,-58,-102,-102,-92
-78,-24,53,51,-65,14,9,48,-53,-82,-82,-82
-73,-14,58,43,-65,21,9,53,-39,-78,-78,-78
-58,-14,43,36,-51,14,9,58,-34,-68,-73,-78
-53,-14,39,34,-46,12,14,63,-29,-68,-68,-68
-63,-29,34,46,-48,2,29,73,-14,-58,-63,-68
-63,-29,34,46,-48,2,29,78,-9,-58,-58,-68
-63,-29,34,46,-48,2,34,87,-4,-53,-58,-68
-63,-29,34,46,-48,2,34,92,0,-48,-58,-68
-53,-9,43,31,-48,17,24,97,-4,-53,-39,-63
-53,0,53,26,-53,26,24,97,0,-53,-39,-63
-48,4,53,21,-51,29,29,107,14,-39,-24,-58
-43,9,53,17,-48,31,29,112,24,-34,-19,-58
-48,-4,43,26,-46,19,39,122,24,-34,-29,-58
-48,-9,39,29,-43,14,43,126,29,-34,-29,-48
-48,-9,39,29,-43,14,48,146,43,-24,-24,-48
-53,-14,39,34,-46,12,53,156,53,-14,-19,-43
-43,0,43,21,-43,21,53,175,53,0,-4,-43
-43,0,43,21,-43,21,53,175,63,4,0,-39
-43,0,43,21,-43,21,58,190,73,19,14,-34
-43,4,48,19,-46,26,68,200,87,24,19,-29
-43,24,68,9,-56,46,58,204,87,19,19,-34
-43,29,73,7,-58,51,63,209,92,24,14,-29
-39,29,68,4,-53,48,63,214,102,24,14,-29
-29,19,48,4,-39,34,68,229,122,34,19,-24
-29,14,43,7,-36,29,78,253,151,63,39,-9
-29,19,48,4,-39,34,87,273,151,73,53,-4
-29,14,43,7,-36,29,92,297,161,92,68,4
-29,0,29,14,-29,14,112,326,185,107,82,19
-24,14,39,4,-31,26,107,336,180,117,87,19
-19,19,39,0,-29,29,112,351,200,122,87,24
0,24,24,-12,-12,24,117,361,214,126,92,29
9,39,29,-24,-9,34,122,375,224,131,92,34
4,58,53,-31,-24,56,122,390,234,146,102,39
14,63,48,-39,-17,56,126,409,253,161,117,48
14,68,53,-41,-19,61,141,429,273,180,131,53
14,78,63,-46,-24,70,141,448,297,195,136,58
9,63,53,-36,-21,58,161,468,312,204,151,73
14,58,43,-36,-14,51,170,492,331,214,161,73
14,58,43,-36,-14,51,180,512,346,229,170,82
19,58,39,-39,-9,48,185,531,366,244,180,92
39,73,34,-56,2,53,195,566,370,263,190,97
43,73,29,-58,7,51,204,580,390,278,200,107
53,78,24,-65,14,51,204,605,400,287,204,107
63,82,19,-73,21,51,209,624,424,307,224,117
63,78,14,-70,24,46,219,634,444,326,239,131
68,73,4,-70,31,39,239,658,468,351,258,141
73,78,4,-75,34,41,239,683,483,366,268,146
87,82,-4,-85,46,39,244,697,497,375,268,156
97,92,-4,-95,51,43,263,732,522,400,283,165
102,97,-4,-100,53,46,263,741,531,409,297,170
102,97,-4,-100,53,46,268,756,536,419,297,170
102,112,9,-107,46,61,273,775,551,429,307,175
107,117,9,-112,48,63,268,780,561,444,317,180
112,112,0,-112,56,56,273,795,570,448,322,185
122,136,14,-129,53,75,273,805,585,453,326,185
126,141,14,-134,56,78,283,819,595,458,326,180
126,126,0,-126,63,63,292,839,610,468,341,190
131,126,-4,-129,68,61,292,849,614,473,341,195
131,126,-4,-129,68,61,287,849,614,473,346,195
131,122,-9,-126,70,56,287,849,614,473,346,195
126,122,-4,-124,65,58,297,873,619,483,346,200
131,122,-9,-126,70,56,302,878,629,488,351,200
131,112,-19,-122,75,46,302,878,629,488,356,209
131,102,-29,-117,80,36,302,878,629,488,356,209
156,126,-29,-141,92,48,292,863,614,473,341,204
161,141,-19,-151,90,61,287,863,610,468,341,200
161,146,-14,-153,87,65,287,858,605,468,336,190
165,161,-4,-163,85,78,283,854,600,463,331,185
156,146,-9,-151,82,68,292,854,595,463,331,195
156,136,-19,-146,87,58,283,839,585,458,326,190
156,136,-19,-146,87,58,283,824,570,453,326,185
151,117,-34,-134,92,41,278,814,566,444,317,190
141,112,-29,-126,85,41,273,790,556,429,317,190
141,107,-34,-124,87,36,268,775,536,414,307,185
136,87,-48,-112,92,19,263,756,527,405,302,180
131,78,-53,-104,92,12,244,727,497,385,283,165
131,68,-63,-100,97,2,234,688,468,366,258,156
131,68,-63,-100,97,2,224,658,448,346,248,151
122,68,-53,-95,87,7,214,624,419,322,229,136
102,63,-39,-82,70,12,200,595,385,297,214,126
107,68,-39,-87,73,14,180,561,370,273,200,107
107,68,-39,-87,73,14,170,522,356,253,190,102
97,58,-39,-78,68,9,161,492,322,234,165,97
97,63,-34,-80,65,14,141,458,292,209,151,82
87,63,-24,-75,56,19,141,434,268,200,136,73
78,48,-29,-63,53,9,122,400,244,175,131,63
63,48,-14,-56,39,17,107,366,214,156,122,58
58,48,-9,-53,34,19,102,331,190,126,107,48
39,43,4,-41,17,24,92,297,165,102,87,48
39,39,0,-39,19,19,87,268,146,82,73,39
34,34,0,-34,17,17,73,239,117,68,48,29
19,24,4,-21,7,14,58,214,102,43,43,14
19,4,-14,-12,17,-4,53,190,87,39,39,9
14,4,-9,-9,12,-2,43,165,68,24,29,4
14,9,-4,-12,9,2,29,141,48,4,14,0
14,14,0,-14,7,7,24,122,43,-14,0,-4
4,4,0,-4,2,2,24,102,24,-19,4,-4
-4,-9,-4,7,0,-7,24,82,9,-29,-14,-14
-24,-19,4,21,-14,-7,14,68,-4,-34,-19,-14
-24,-29,-4,26,-9,-17,14,53,-9,-39,-19,-14
-19,-19,0,19,-9,-9,9,39,-29,-48,-29,-29
-19,-14,4,17,-12,-4,0,19,-39,-63,-43,-34
-34,-9,24,21,-29,7,-19,0,-53,-87,-53,-48
-39,-4,34,21,-36,14,-29,-14,-68,-97,-68,-53
-48,-9,39,29,-43,14,-19,-19,-73,-92,-68,-53
-48,-24,24,36,-36,0,-19,-29,-82,-97,-73,-58
-53,-29,24,41,-39,-2,-24,-34,-87,-107,-82,-63
-58,-34,24,46,-41,-4,-29,-43,-92,-117,-87,-63
-48,-43,4,46,-26,-19,-19,-48,-92,-117,-87,-58
-48,-43,4,46,-26,-19,-24,-53,-97,-117,-82,-63
-53,-43,9,48,-31,-17,-24,-63,-102,-112,-78,-63
-53,-43,9,48,-31,-17,-29,-68,-102,-107,-73,-63
-63,-43,19,53,-41,-12,-39,-78,-117,-112,-87,-63
-63,-43,19,53,-41,-12,-43,-82,-131,-126,-92,-73
-68,-39,29,53,-48,-4,-48,-82,-131,-136,-92,-73
-68,-39,29,53,-48,-4,-48,-82,-136,-146,-102,-78
-53,-48,4,51,-29,-21,-48,-87,-136,-146,-102,-87
-53,-48,4,51,-29,-21,-48,-87,-136,-146,-102,-87
-58,-48,9,53,-34,-19,-48,-97,-136,-146,-102,-87
-58,-43,14,51,-36,-14,-53,-97,-136,-146,-102,-87
-68,-24,43,46,-56,9,-53,-102,-141,-146,-102,-78
-68,-24,43,46,-56,9,-53,-102,-141,-151,-102,-78
-68,-39,29,53,-48,-4,-53,-102,-141,-151,-102,-78
-68,-39,29,53,-48,-4,-53,-102,-141,-151,-102,-78
-58,-43,14,51,-36,-14,-63,-87,-131,-141,-102,-78
-58,-43,14,51,-36,-14,-63,-87,-136,-141,-102,-78
-63,-48,14,56,-39,-17,-68,-97,-136,-141,-102,-78
-63,-48,14,56,-39,-17,-68,-97,-136,-141,-102,-78
-58,-48,9,53,-34,-19,-63,-92,-136,-126,-97,-63
-58,-53,4,56,-31,-24,-53,-92,-131,-126,-92,-63
-58,-53,4,56,-31,-24,-48,-92,-131,-126,-87,-63
-58,-43,14,51,-36,-14,-53,-92,-131,-126,-82,-63
-58,-34,24,46,-41,-4,-53,-92,-141,-131,-87,-73
-58,-43,14,51,-36,-14,-53,-87,-141,-136,-87,-68
-53,-34,19,43,-36,-7,-53,-87,-141,-141,-92,-68
-53,-29,24,41,-39,-2,-58,-87,-141,-146,-97,-73
-58,-39,19,48,-39,-9,-58,-87,-131,-136,-87,-63
-63,-39,24,51,-43,-7,-58,-87,-131,-136,-82,-63
-63,-39,24,51,-43,-7,-58,-87,-131,-136,-82,-63
-63,-39,24,51,-43,-7,-58,-87,-131,-136,-82,-63
-63,-43,19,53,-41,-12,-68,-97,-131,-136,-92,-73
-63,-39,24,51,-43,-7,-68,-97,-131,-136,-97,-73
-63,-39,24,51,-43,-7,-68,-97,-131,-136,-97,-73
-63,-48,14,56,-39,-17,-63,-92,-131,-131,-97,-68
-58,-48,9,53,-34,-19,-53,-78,-107,-112,-78,-63
-53,-43,9,48,-31,-17,-48,-78,-107,-112,-78,-63
-48,-39,9,43,-29,-14,-48,-78,-107,-112,-78,-63
-43,-34,9,39,-26,-12,-43,-82,-107,-112,-82,-68
-43,-43,0,43,-21,-21,-53,-82,-112,-122,-73,-58
-43,-43,0,43,-21,-21,-53,-78,-112,-122,-73,-58
-43,-39,4,41,-24,-17,-53,-78,-112,-122,-73,-58
-43,-39,4,41,-24,-17,-53,-78,-107,-122,-73,-53
-43,-39,4,41,-24,-17,-53,-78,-117,-126,-82,-63
-43,-34,9,39,-26,-12,-53,-73,-112,-126,-82,-63
-43,-34,9,39,-26,-12,-53,-73,-112,-122,-82,-63
-43,-34,9,39,-26,-12,-53,-73,-112,-122,-82,-63
-39,-43,-4,41,-17,-24,-43,-63,-102,-112,-82,-63
-39,-43,-4,41,-17,-24,-39,-63,-102,-112,-82,-63
-34,-43,-9,39,-12,-26,-39,-58,-102,-112,-78,-63
-34,-43,-9,39,-12,-26,-39,-58,-97,-112,-78,-63
-39,-48,-9,43,-14,-29,-48,-68,-107,-117,-68,-63
-43,-48,-4,46,-19,-26,-48,-68,-107,-112,-68,-63
-48,-39,9,43,-29,-14,-48,-68,-107,-112,-73,-63
-53,-39,14,46,-34,-12,-48,-68,-107,-117,-73,-63
-48,-53,-4,51,-21,-29,-39,-68,-97,-107,-73,-63
-43,-53,-9,48,-17,-31,-39,-68,-97,-107,-73,-63
-39,-48,-9,43,-14,-29,-39,-68,-97,-107,-73,-63
-34,-48,-14,41,-9,-31,-39,-68,-97,-107,-73,-63
-43,-63,-19,53,-12,-41,-39,-58,-107,-107,-73,-53
-48,-73,-24,61,-12,-48,-39,-58,-107,-107,-73,-53
-48,-58,-9,53,-19,-34,-39,-58,-107,-107,-73,-53
-53,-58,-4,56,-24,-31,-39,-58,-107,-107,-73,-53
-53,-48,4,51,-29,-21,-39,-58,-97,-107,-73,-53
-53,-48,4,51,-29,-21,-39,-58,-97,-107,-73,-53
-53,-48,4,51,-29,-21,-39,-58,-97,-107,-73,-53
-53,-48,4,51,-29,-21,-39,-58,-97,-112,-73,-58
-53,-48,4,51,-29,-21,-48,-68,-107,-126,-78,-58
-58,-48,9,53,-34,-19,-48,-73,-107,-126,-78,-58
-68,-43,24,56,-46,-9,-48,-73,-112,-126,-82,-58
-68,-43,24,56,-46,-9,-48,-73,-112,-126,-82,-58
-58,-34,24,46,-41,-4,-48,-78,-112,-126,-82,-68
-58,-24,34,41,-46,4,-48,-78,-112,-126,-82,-63
-63,-19,43,41,-53,12,-48,-78,-112,-126,-82,-63
-63,-9,53,36,-58,21,-48,-78,-112,-126,-82,-68
-53,-29,24,41,-39,-2,-39,-78,-112,-131,-73,-63
-53,-39,14,46,-34,-12,-39,-78,-112,-126,-78,-63
-58,-43,14,51,-36,-14,-39,-73,-107,-117,-78,-58
-58,-53,4,56,-31,-24,-39,-68,-102,-112,-78,-53
-58,-68,-9,63,-24,-39,-29,-58,-117,-112,-78,-63
-63,-87,-24,75,-19,-56,-29,-58,-117,-112,-78,-63
-63,-78,-14,70,-24,-46,-29,-63,-117,-122,-82,-68
-63,-73,-9,68,-26,-41,-29,-68,-122,-126,-87,-68
-68,-58,9,63,-39,-24,-34,-73,-126,-131,-92,-73
-68,-48,19,58,-43,-14,-39,-73,-131,-136,-97,-78
-73,-53,19,63,-46,-17,-43,-78,-141,-141,-102,-82
-73,-58,14,65,-43,-21,-48,-87,-146,-146,-107,-87
-68,-73,-4,70,-31,-39,-39,-78,-141,-141,-107,-87
-68,-68,0,68,-34,-34,-39,-82,-141,-141,-102,-82
-63,-73,-9,68,-26,-41,-43,-87,-141,-141,-102,-78
-58,-78,-19,68,-19,-48,-43,-87,-136,-136,-97,-73
-58,-58,0,58,-29,-29,-43,-92,-136,-136,-92,-73
-58,-43,14,51,-36,-14,-43,-92,-141,-141,-92,-73
-58,-58,0,58,-29,-29,-43,-92,-141,-141,-97,-73
-63,-68,-4,65,-29,-36,-39,-87,-141,-136,-97,-73
-53,-68,-14,61,-19,-41,-39,-97,-141,-136,-97,-73
-53,-63,-9,58,-21,-36,-43,-107,-146,-141,-102,-78
-53,-58,-4,56,-24,-31,-43,-112,-156,-151,-107,-78
-58,-58,0,58,-29,-29,-48,-112,-156,-151,-107,-78
-68,-68,0,68,-34,-34,-43,-107,-146,-151,-107,-78
-68,-87,-19,78,-24,-53,-39,-107,-146,-151,-112,-78
-68,-92,-24,80,-21,-58,-34,-102,-146,-151,-112,-78
-63,-82,-19,73,-21,-51,-29,-97,-151,-151,-112,-82
-53,-73,-19,63,-17,-46,-34,-107,-161,-165,-112,-82
-53,-73,-19,63,-17,-46,-39,-112,-161,-165,-112,-82
-53,-73,-19,63,-17,-46,-43,-112,-161,-165,-112,-82
-53,-78,-24,65,-14,-51,-48,-112,-161,-170,-112,-82
-68,-73,-4,70,-31,-39,-48,-112,-165,-161,-102,-82
-68,-78,-9,73,-29,-43,-48,-117,-165,-161,-107,-82
-68,-78,-9,73,-29,-43,-48,-117,-170,-161,-107,-82
-68,-73,-4,70,-31,-39,-53,-117,-170,-161,-112,-82
-68,-68,0,68,-34,-34,-53,-122,-190,-180,-122,-102
-68,-68,0,68,-34,-34,-53,-122,-190,-180,-122,-102
-68,-68,0,68,-34,-34,-53,-122,-185,-175,-122,-97
-68,-68,0,68,-34,-34,-53,-122,-185,-175,-122,-97
-63,-68,-4,65,-29,-36,-43,-122,-180,-180,-117,-92
-63,-82,-19,73,-21,-51,-43,-126,-180,-175,-117,-92
-63,-73,-9,68,-26,-41,-43,-126,-185,-170,-117,-92
-63,-73,-9,68,-26,-41,-48,-131,-185,-165,-117,-92
-53,-82,-29,68,-12,-56,-58,-131,-185,-175,-126,-92
-53,-82,-29,68,-12,-56,-58,-131,-185,-175,-126,-92
-53,-73,-19,63,-17,-46,-58,-131,-185,-180,-126,-97
-53,-82,-29,68,-12,-56,-58,-136,-185,-180,-126,-97
-63,-82,-19,73,-21,-51,-48,-126,-185,-180,-126,-87
-63,-78,-14,70,-24,-46,-48,-126,-190,-180,-126,-87
-58,-78,-19,68,-19,-48,-48,-126,-190,-180,-126,-87
-58,-82,-24,70,-17,-53,-48,-126,-190,-180,-126,-87
-68,-82,-14,75,-26,-48,-53,-136,-195,-180,-126,-97
-68,-87,-19,78,-24,-53,-53,-136,-195,-180,-131,-97
-73,-87,-14,80,-29,-51,-53,-136,-195,-190,-131,-97
-78,-82,-4,80,-36,-43,-53,-136,-200,-190,-136,-97
-68,-73,-4,70,-31,-39,-53,-136,-200,-185,-126,-97
-63,-78,-14,70,-24,-46,-53,-136,-190,-180,-122,-97
-63,-78,-14,70,-24,-46,-53,-136,-190,-180,-122,-97
-63,-78,-14,70,-24,-46,-53,-141,-195,-185,-126,-102
-63,-82,-19,73,-21,-51,-53,-141,-195,-185,-126,-92
-68,-82,-14,75,-26,-48,-53,-141,-200,-185,-126,-92
-68,-78,-9,73,-29,-43,-53,-141,-200,-185,-126,-92
-63,-63,0,63,-31,-31,-53,-141,-200,-185,-122,-87
-73,-78,-4,75,-34,-41,-63,-151,-200,-190,-126,-97
-73,-82,-9,78,-31,-46,-63,-151,-204,-190,-131,-97
-73,-82,-9,78,-31,-46,-63,-151,-209,-195,-136,-97
-73,-82,-9,78,-31,-46,-63,-151,-214,-195,-141,-97
-58,-87,-29,73,-14,-58,-58,-141,-195,-190,-136,-97
-53,-92,-39,73,-7,-65,-53,-136,-190,-185,-131,-92
-48,-82,-34,65,-7,-58,-53,-136,-190,-180,-126,-87
-43,-82,-39,63,-2,-61,-48,-141,-185,-175,-126,-92
-53,-73,-19,63,-17,-46,-58,-151,-204,-180,-136,-102
-53,-68,-14,61,-19,-41,-58,-151,-204,-185,-136,-102
-53,-68,-14,61,-19,-41,-58,-156,-204,-190,-141,-102
-53,-73,-19,63,-17,-46,-58,-156,-204,-195,-141,-102
-63,-97,-34,80,-14,-65,-53,-146,-190,-190,-131,-87
-68,-107,-39,87,-14,-73,-43,-141,-190,-180,-126,-87
-68,-112,-43,90,-12,-78,-39,-136,-190,-175,-122,-87
-68,-112,-43,90,-12,-78,-34,-131,-190,-170,-117,-87
-63,-97,-34,80,-14,-65,-43,-146,-204,-185,-131,-97
-63,-92,-29,78,-17,-61,-53,-146,-204,-190,-131,-97
-73,-92,-19,82,-26,-56,-53,-146,-204,-190,-131,-97
-73,-97,-24,85,-24,-61,-53,-146,-204,-190,-131,-102
-78,-87,-9,82,-34,-48,-53,-146,-204,-200,-136,-107
-78,-87,-9,82,-34,-48,-53,-146,-204,-195,-141,-107
-78,-87,-9,82,-34,-48,-53,-146,-204,-195,-146,-102
-78,-97,-19,87,-29,-58,-53,-146,-204,-195,-151,-102
-68,-97,-29,82,-19,-63,-39,-131,-195,-190,-146,-92
-63,-117,-53,90,-4,-85,-39,-131,-195,-185,-136,-87
-63,-126,-63,95,0,-95,-39,-131,-195,-180,-131,-87
-63,-117,-53,90,-4,-85,-43,-136,-195,-175,-126,-92
-53,-97,-43,75,-4,-70,-53,-146,-195,-175,-126,-92
-58,-107,-48,82,-4,-78,-53,-146,-195,-175,-126,-92
-58,-97,-39,78,-9,-68,-53,-146,-195,-175,-126,-92
-58,-68,-9,63,-24,-39,-48,-146,-195,-175,-126,-92
-63,-87,-24,75,-19,-56,-39,-136,-180,-175,-117,-87
-53,-87,-34,70,-9,-61,-39,-131,-180,-170,-117,-87
-63,-107,-43,85,-9,-75,-39,-131,-185,-170,-117,-87
-68,-126,-58,97,-4,-92,-39,-131,-185,-170,-117,-82
-68,-107,-39,87,-14,-73,-43,-141,-190,-175,-122,-92
-63,-92,-29,78,-17,-61,-43,-141,-195,-185,-126,-92
-63,-92,-29,78,-17,-61,-43,-141,-200,-190,-131,-92
-63,-97,-34,80,-14,-65,-43,-141,-200,-190,-136,-92
-63,-87,-24,75,-19,-56,-43,-141,-200,-180,-136,-102
-63,-87,-24,75,-19,-56,-43,-141,-200,-180,-131,-102
-63,-82,-19,73,-21,-51,-43,-141,-200,-180,-131,-102
-63,-82,-19,73,-21,-51,-43,-141,-195,-180,-131,-102
-63,-92,-29,78,-17,-61,-43,-131,-195,-170,-122,-97
-68,-97,-29,82,-19,-63,-43,-131,-190,-170,-122,-92
-68,-102,-34,85,-17,-68,-43,-131,-190,-165,-122,-87
-58,-107,-48,82,-4,-78,-43,-131,-190,-165,-122,-82
-58,-107,-48,82,-4,-78,-34,-122,-165,-156,-107,-73
-68,-87,-19,78,-24,-53,-29,-117,-165,-156,-107,-68
-58,-78,-19,68,-19,-48,-29,-117,-156,-146,-97,-58
-58,-68,-9,63,-24,-39,-29,-117,-156,-146,-97,-58
-58,-58,0,58,-29,-29,-29,-117,-156,-146,-97,-58
-58,-48,9,53,-34,-19,-29,-117,-156,-146,-97,-58
-48,-58,-9,53,-19,-34,-34,-117,-161,-146,-97,-63
-48,-53,-4,51,-21,-29,-34,-117,-161,-146,-97,-63
-53,-53,0,53,-26,-26,-24,-117,-161,-151,-97,-63
-53,-53,0,53,-26,-26,-19,-117,-156,-151,-97,-63
-63,-53,9,58,-36,-21,-4,-112,-146,-151,-107,-68
-68,-48,19,58,-43,-14,-4,-107,-146,-146,-107,-68
-73,-53,19,63,-46,-17,0,-102,-141,-146,-102,-63
-78,-58,19,68,-48,-19,4,-102,-136,-141,-102,-58
-73,-48,24,61,-48,-12,0,-112,-146,-131,-92,-48
-63,-39,24,51,-43,-7,-9,-107,-141,-122,-82,-43
-53,-14,39,34,-46,12,-19,-107,-136,-117,-78,-39
-43,4,48,19,-46,26,-39,-117,-136,-117,-78,-39
-24,29,53,-2,-39,41,-53,-107,-117,-112,-58,-34
-19,29,48,-4,-34,39,-68,-112,-117,-107,-58,-24
-19,29,48,-4,-34,39,-73,-112,-112,-102,-53,-24
-19,29,48,-4,-34,39,-82,-126,-112,-102,-53,-19
-14,39,53,-12,-34,46,-97,-126,-131,-102,-63,-24
-9,43,53,-17,-31,48,-107,-131,-131,-107,-63,-24
-4,43,48,-19,-26,46,-117,-136,-131,-107,-58,-19
-4,53,58,-24,-31,56,-122,-136,-136,-107,-58,-19
-14,48,63,-17,-39,56,-122,-151,-141,-122,-58,-19
-9,48,58,-19,-34,53,-122,-156,-141,-122,-58,-19
-9,39,48,-14,-29,43,-126,-161,-151,-122,-63,-19
-9,34,43,-12,-26,39,-141,-165,-156,-126,-68,-19
0,34,34,-17,-17,34,-146,-175,-161,-131,-68,-24
14,34,19,-24,-2,26,-156,-180,-180,-141,-73,-29
14,29,14,-21,0,21,-161,-185,-185,-146,-78,-29
14,9,-4,-12,9,2,-161,-185,-195,-146,-78,-29
9,19,9,-14,0,14,-165,-195,-195,-146,-87,-24
4,19,14,-12,-4,17,-151,-190,-180,-141,-82,-24
4,19,14,-12,-4,17,-146,-185,-180,-141,-82,-24
-4,19,24,-7,-14,21,-131,-180,-180,-141,-82,-34
-4,14,19,-4,-12,17,-107,-175,-170,-141,-73,-24
-9,-4,4,7,-7,0,-97,-161,-170,-136,-73,-24
-9,-19,-9,14,0,-14,-87,-146,-165,-136,-73,-24
-14,-34,-19,24,2,-26,-78,-136,-165,-136,-73,-29
-29,-53,-24,41,-2,-39,-78,-136,-175,-156,-87,-39
-29,-78,-48,53,9,-63,-73,-141,-190,-170,-107,-63
-34,-92,-58,63,12,-75,-68,-146,-200,-185,-112,-68
-39,-112,-73,75,17,-92,-58,-146,-200,-185,-117,-73
-58,-117,-58,87,0,-87,-48,-156,-200,-180,-117,-87
-63,-117,-53,90,-4,-85,-48,-156,-204,-185,-126,-97
-63,-112,-48,87,-7,-80,-43,-156,-209,-185,-131,-97
-68,-126,-58,97,-4,-92,-43,-156,-214,-180,-131,-97
-78,-141,-63,109,-7,-102,-24,-146,-204,-180,-136,-102
-78,-141,-63,109,-7,-102,-24,-146,-209,-195,-146,-107
-78,-146,-68,112,-4,-107,-29,-151,-219,-195,-151,-107
-82,-151,-68,117,-7,-109,-29,-151,-219,-195,-151,-102
-87,-146,-58,117,-14,-102,-34,-161,-224,-204,-161,-112
-92,-151,-58,122,-17,-104,-39,-161,-229,-209,-161,-112
-92,-151,-58,122,-17,-104,-39,-156,-229,-214,-161,-107
-82,-141,-58,112,-12,-100,-39,-156,-229,-219,-161,-107
-82,-165,-82,124,0,-124,-34,-151,-224,-209,-156,-107
-82,-175,-92,129,4,-134,-29,-146,-224,-209,-156,-107
-82,-175,-92,129,4,-134,-24,-141,-219,-209,-151,-107
-82,-185,-102,134,9,-143,-24,-136,-214,-204,-151,-107
-92,-180,-87,136,-2,-134,-34,-141,-219,-204,-156,-117
-82,-165,-82,124,0,-124,-29,-146,-224,-200,-156,-117
-82,-151,-68,117,-7,-109,-29,-151,-229,-200,-161,-117
-92,-156,-63,124,-14,-109,-29,-156,-234,-204,-165,-117
-87,-165,-78,126,-4,-122,-29,-146,-229,-195,-151,-107
-87,-165,-78,126,-4,-122,-24,-141,-224,-195,-146,-107
-82,-165,-82,124,0,-124,-24,-141,-219,-195,-141,-107
-82,-161,-78,122,-2,-119,-24,-141,-214,-195,-136,-107
-82,-161,-78,122,-2,-119,-24,-141,-224,-204,-141,-117
-78,-156,-78,117,0,-117,-29,-146,-224,-204,-151,-117
-78,-151,-73,114,-2,-112,-29,-146,-224,-204,-156,-117
-78,-151,-73,114,-2,-112,-29,-146,-224,-204,-161,-117
-78,-170,-92,124,7,-131,-24,-136,-209,-190,-151,-112
-78,-161,-82,119,2,-122,-24,-136,-209,-190,-151,-107
-78,-151,-73,114,-2,-112,-24,-136,-209,-190,-151,-102
-78,-151,-73,114,-2,-112,-24,-136,-204,-190,-146,-97
-87,-170,-82,129,-2,-126,-24,-136,-204,-180,-136,-97
-87,-180,-92,134,2,-136,-24,-136,-204,-180,-136,-97
-87,-180,-92,134,2,-136,-24,-136,-204,-175,-131,-87
-82,-175,-92,129,4,-134,-24,-136,-204,-175,-131,-87
-92,-151,-58,122,-17,-104,-34,-136,-214,-195,-156,-112
-53,-112,-58,82,2,-85,-24,-136,-219,-200,-156,-107
-48,-117,-68,82,9,-92,-4,-126,-219,-204,-156,-122
-97,-175,-78,136,-9,-126,24,-112,-214,-219,-180,-146
-107,-190,-82,148,-12,-136,58,-78,-175,-200,-175,-161
-97,-180,-82,139,-7,-131,102,-29,-141,-180,-165,-161
-112,-214,-102,163,-4,-158,136,19,-102,-161,-156,-151
-122,-258,-136,190,7,-197,180,82,-48,-117,-131,-141
-102,-248,-146,175,21,-197,200,156,14,-63,-102,-141
-73,-219,-146,146,36,-183,224,224,78,-9,-53,-122
-58,-214,-156,136,48,-185,253,317,185,68,14,-78
-43,-209,-165,126,61,-187,273,434,317,195,107,-24
24,-195,-219,85,122,-207,292,556,478,375,273,82
107,-161,-268,26,187,-214,258,629,649,585,468,244
190,-87,-278,-51,234,-183,204,624,766,775,653,400
268,-9,-278,-129,273,-143,151,585,868,946,824,527
341,78,-263,-209,302,-92,78,512,971,1122,1015,688
400,214,-185,-307,292,14,-58,356,1078,1312,1210,854
458,405,-53,-431,256,175,-244,141,1137,1459,1381,1010
512,556,43,-534,234,300,-419,-48,1156,1556,1512,1141
551,614,63,-583,244,339,-556,-209,1102,1561,1556,1215
570,614,43,-592,263,329,-634,-331,985,1459,1468,1185
570,580,9,-575,280,295,-688,-453,766,1263,1293,1093
531,566,34,-549,248,300,-761,-649,522,1054,1112,1005
429,668,239,-549,95,453,-844,-902,351,888,1005,961
322,775,453,-549,-65,614,-902,-1107,151,692,868,912
253,736,483,-495,-114,610,-893,-1210,-117,409,644,785
195,639,444,-417,-124,541,-854,-1263,-400,102,390,624
107,556,448,-331,-170,502,-790,-1342,-673,-195,151,463
29,463,434,-246,-202,448,-722,-1381,-917,-453,-48,341
4,444,439,-224,-217,441,-668,-1356,-1024,-595,-175,263
-9,419,429,-204,-219,424,-639,-1293,-1005,-610,-209,214
-39,253,292,-107,-165,273,-570,-1195,-956,-610,-244,151
-97,97,195,0,-146,146,-517,-1146,-971,-658,-317,68
-122,112,234,4,-178,173,-512,-1117,-980,-702,-395,-29
-131,97,229,17,-180,163,-507,-1054,-941,-697,-414,-87
-161,24,185,68,-173,104,-478,-956,-863,-653,-414,-122
-180,-9,170,95,-175,80,-424,-863,-800,-610,-414,-170
-170,-29,141,100,-156,56,-366,-771,-717,-561,-385,-190
-161,-97,63,129,-112,-17,-302,-639,-614,-492,-346,-175
-131,-126,4,129,-68,-61,-229,-507,-507,-405,-287,-156
-107,-92,14,100,-61,-39,-151,-380,-405,-336,-239,-131
-97,-117,-19,107,-39,-68,-82,-283,-326,-268,-195,-122
-87,-161,-73,124,-7,-117,-43,-190,-244,-200,-146,-97
-78,-151,-73,114,-2,-112,-14,-131,-185,-156,-117,-78
-43,-102,-58,73,7,-80,0,-87,-151,-146,-97,-58
-24,-73,-48,48,12,-61,0,-78,-126,-131,-82,-48
-39,-87,-48,63,4,-68,-4,-87,-126,-117,-68,-39
-39,-87,-48,63,4,-68,0,-87,-112,-102,-58,-39
-43,-87,-43,65,0,-65,14,-63,-102,-97,-58,-39
-48,-97,-48,73,0,-73,24,-53,-102,-97,-58,-43
-48,-92,-43,70,-2,-68,39,-34,-102,-112,-73,-58
-48,-92,-43,70,-2,-68,39,-24,-97,-117,-73,-63
-48,-97,-48,73,0,-73,34,-9,-92,-117,-82,-63
-48,-97,-48,73,0,-73,34,-9,-87,-102,-73,-58
-39,-102,-63,70,12,-82,34,0,-78,-87,-63,-48
-34,-107,-73,70,19,-90,39,0,-68,-87,-58,-48
-29,-112,-82,70,26,-97,43,9,-63,-82,-58,-48
-24,-122,-97,73,36,-109,48,19,-58,-78,-53,-48
-34,-126,-92,80,29,-109,58,34,-43,-68,-43,-48
-39,-131,-92,85,26,-112,63,43,-39,-68,-39,-48
-39,-131,-92,85,26,-112,63,48,-39,-58,-39,-48
-43,-131,-87,87,21,-109,58,48,-34,-58,-39,-48
-43,-122,-78,82,17,-100,39,43,-39,-68,-48,-48
-43,-117,-73,80,14,-95,39,39,-39,-68,-48,-48
-39,-117,-78,78,19,-97,48,39,-34,-58,-39,-39
-39,-122,-82,80,21,-102,53,39,-39,-53,-39,-39
-43,-136,-92,90,24,-114,63,48,-29,-39,-24,-29
-43,-141,-97,92,26,-119,68,58,-19,-24,-14,-29
-39,-136,-97,87,29,-117,68,73,-9,-19,-9,-24
-39,-141,-102,90,31,-122,68,78,-4,-14,-4,-24
-29,-126,-97,78,34,-112,63,68,-9,-19,-19,-24
-29,-117,-87,73,29,-102,63,73,-4,-19,-24,-24
-29,-112,-82,70,26,-97,68,73,0,-14,-19,-24
-29,-107,-78,68,24,-92,68,82,4,-14,-24,-19
-29,-117,-87,73,29,-102,78,102,14,-9,-9,-24
-19,-112,-92,65,36,-102,78,107,14,-4,-9,-24
-19,-136,-117,78,48,-126,78,112,14,-4,-14,-24
-24,-141,-117,82,46,-129,78,112,19,-4,-14,-24
-34,-122,-87,78,26,-104,78,107,34,14,4,-14
-34,-112,-78,73,21,-95,78,112,48,19,9,-9
-24,-112,-87,68,31,-100,78,117,53,29,14,-9
-24,-112,-87,68,31,-100,82,122,58,29,19,0
-24,-117,-92,70,34,-104,78,131,53,29,14,-9
-24,-117,-92,70,34,-104,78,136,58,29,19,-9
-24,-117,-92,70,34,-104,82,146,63,34,19,-9
-24,-117,-92,70,34,-104,82,151,68,39,19,-9
-14,-112,-97,63,41,-104,92,165,73,43,29,4
-14,-107,-92,61,39,-100,92,165,78,43,29,4
-9,-107,-97,58,43,-102,97,175,92,58,43,9
-4,-107,-102,56,48,-104,97,180,102,63,48,9
-14,-107,-92,61,39,-100,87,180,102,63,48,9
-9,-107,-97,58,43,-102,92,185,107,63,48,19
-4,-102,-97,53,46,-100,97,204,122,73,53,19
-4,-102,-97,53,46,-100,102,214,131,82,58,24
-4,-87,-82,46,39,-85,102,224,122,78,53,14
-4,-87,-82,46,39,-85,102,224,131,82,58,19
-4,-87,-82,46,39,-85,107,239,141,97,73,24
-4,-82,-78,43,36,-80,117,248,156,102,78,29
14,-82,-97,34,56,-90,117,263,170,117,97,39
14,-78,-92,31,53,-85,122,278,180,131,102,48
19,-78,-97,29,58,-87,122,292,195,141,112,53
29,-87,-117,29,73,-102,126,317,219,161,126,63
29,-68,-97,19,63,-82,131,322,229,165,131,63
29,-58,-87,14,58,-73,136,331,229,170,141,63
29,-58,-87,14,58,-73,136,346,239,185,151,68
29,-68,-97,19,63,-82,151,366,263,195,161,78
29,-58,-87,14,58,-73,156,380,268,209,161,78
29,-58,-87,14,58,-73,161,400,287,219,165,82
43,-58,-102,7,73,-80,165,414,302,229,175,87
48,-48,-97,0,73,-73,170,434,312,239,180,92
53,-43,-97,-4,75,-70,190,448,326,263,204,112
63,-43,-107,-9,85,-75,195,468,351,287,224,126
63,-43,-107,-9,85,-75,209,488,375,317,244,136
63,-39,-102,-12,82,-70,209,507,405,341,253,146
68,-43,-112,-12,90,-78,209,527,414,351,258,156
73,-48,-122,-12,97,-85,219,551,429,351,258,151
73,-48,-122,-12,97,-85,229,570,439,356,258,156
78,-48,-126,-14,102,-87,234,590,453,361,258,161
92,-24,-117,-34,104,-70,234,614,478,390,278,156
92,-24,-117,-34,104,-70,244,629,497,405,287,165
97,-19,-117,-39,107,-68,244,653,507,414,292,165
102,-14,-117,-43,109,-65,248,673,531,434,312,175
102,0,-102,-51,102,-51,248,683,541,463,336,200
107,4,-102,-56,104,-48,268,707,566,488,356,209
112,19,-92,-65,102,-36,268,732,580,502,366,214
126,34,-92,-80,109,-29,273,746,595,512,366,224
146,29,-117,-87,131,-43,283,771,619,522,370,234
151,29,-122,-90,136,-46,283,780,629,527,385,239
151,24,-126,-87,139,-51,287,795,634,531,385,239
151,34,-117,-92,134,-41,292,814,649,536,395,244
146,24,-122,-85,134,-48,302,839,673,561,414,263
151,14,-136,-82,143,-61,312,854,688,575,429,273
161,34,-126,-97,143,-46,317,863,707,590,444,278
165,34,-131,-100,148,-48,331,878,722,605,453,278
165,24,-141,-95,153,-58,322,888,717,600,453,278
170,29,-141,-100,156,-56,322,897,722,600,448,283
170,34,-136,-102,153,-51,317,897,722,595,448,283
170,34,-136,-102,153,-51,317,897,722,590,444,283
185,43,-141,-114,163,-48,326,912,727,610,453,278
190,43,-146,-117,168,-51,331,917,736,614,458,278
190,34,-156,-112,173,-61,331,917,736,614,463,287
190,24,-165,-107,178,-70,331,917,736,614,463,287
200,39,-161,-119,180,-61,331,902,732,610,458,297
200,43,-156,-122,178,-56,326,902,727,605,458,297
195,39,-156,-117,175,-58,326,897,722,605,453,292
195,43,-151,-119,173,-53,322,893,717,600,448,292
185,29,-156,-107,170,-63,322,873,702,575,429,283
185,29,-156,-107,170,-63,312,858,683,566,414,268
185,39,-146,-112,165,-53,312,844,658,556,405,253
180,29,-151,-104,165,-61,307,834,644,541,385,248
180,19,-161,-100,170,-70,292,810,634,536,390,248
180,19,-161,-100,170,-70,287,795,614,522,385,244
175,4,-170,-90,173,-82,283,775,605,512,385,239
170,0,-170,-85,170,-85,263,746,575,492,370,224
170,-4,-175,-82,173,-90,268,727,551,483,356,219
170,-9,-180,-80,175,-95,263,697,536,463,346,219
161,-14,-175,-73,168,-95,258,663,512,439,326,209
141,-24,-165,-58,153,-95,248,634,483,414,312,204
136,-24,-161,-56,148,-92,229,590,453,380,287,190
136,-29,-165,-53,151,-97,219,551,434,361,278,180
126,-43,-170,-41,148,-107,209,522,395,341,253,170
126,-43,-170,-41,148,-107,190,488,361,317,239,151
107,-43,-151,-31,129,-97,190,463,346,297,219,141
97,-58,-156,-19,126,-107,170,429,322,273,209,131
82,-58,-141,-12,112,-100,156,395,292,253,195,126
78,-58,-136,-9,107,-97,151,361,268,224,175,117
78,-58,-136,-9,107,-97,141,336,234,200,156,97
78,-58,-136,-9,107,-97,136,307,214,180,141,87
73,-58,-131,-7,102,-95,122,278,185,165,117,78
58,-63,-122,2,90,-92,107,253,170,141,112,63
48,-73,-122,12,85,-97,102,239,156,131,97,63
43,-73,-117,14,80,-95,92,214,136,122,87,53
43,-68,-112,12,78,-90,78,190,117,107,73,43
43,-63,-107,9,75,-85,73,170,112,92,58,34
34,-68,-102,17,68,-85,63,141,82,82,58,43
24,-87,-112,31,68,-100,63,122,68,68,43,34
4,-102,-107,48,56,-104,53,107,53,58,43,34
4,-117,-122,56,63,-119,53,92,48,48,48,34
19,-112,-131,46,75,-122,63,92,48,48,53,29
19,-112,-131,46,75,-122,58,78,39,43,43,24
4,-112,-117,53,61,-114,43,63,24,29,39,9
0,-112,-112,56,56,-112,39,53,9,29,29,4
-9,-112,-102,61,46,-107,39,48,-4,14,4,0
-9,-122,-112,65,51,-117,39,39,-14,0,-4,-9
-14,-122,-107,68,46,-114,34,34,-19,-19,-19,-19
-19,-122,-102,70,41,-112,29,24,-24,-39,-29,-24
-19,-131,-112,75,46,-122,19,9,-34,-39,-24,-29
-19,-131,-112,75,46,-122,14,4,-39,-39,-24,-34
-24,-131,-107,78,41,-119,14,-4,-43,-34,-24,-34
-24,-131,-107,78,41,-119,9,-9,-43,-29,-24,-34
-24,-131,-107,78,41,-119,19,-9,-39,-19,-19,-19
-24,-131,-107,78,41,-119,14,-14,-53,-29,-24,-24
-29,-126,-97,78,34,-112,9,-14,-53,-34,-24,-19
-29,-126,-97,78,34,-112,9,-14,-58,-39,-34,-19
-34,-136,-102,85,34,-119,0,-19,-58,-48,-34,-24
-34,-136,-102,85,34,-119,0,-19,-58,-48,-34,-29
-39,-136,-97,87,29,-117,0,-29,-58,-48,-34,-34
-39,-131,-92,85,26,-112,-4,-29,-58,-48,-34,-39
-29,-112,-82,70,26,-97,4,-24,-53,-48,-43,-39
-29,-112,-82,70,26,-97,4,-24,-53,-53,-43,-39
-29,-126,-97,78,34,-112,4,-24,-53,-53,-43,-39
-29,-126,-97,78,34,-112,4,-24,-53,-53,-43,-39
-19,-117,-97,68,39,-107,-4,-24,-58,-63,-53,-48
-19,-112,-92,65,36,-102,-4,-29,-68,-63,-53,-48
-24,-112,-87,68,31,-100,-9,-43,-73,-63,-53,-48
-24,-107,-82,65,29,-95,-9,-48,-78,-63,-53,-48
-29,-107,-78,68,24,-92,-4,-34,-73,-53,-39,-39
-29,-112,-82,70,26,-97,4,-34,-63,-48,-34,-34
-29,-112,-82,70,26,-97,9,-34,-58,-43,-29,-29
-29,-102,-73,65,21,-87,4,-34,-53,-39,-24,-24
-19,-112,-92,65,36,-102,14,-24,-53,-29,-24,-24
-19,-131,-112,75,46,-122,14,-19,-53,-29,-19,-19
-14,-131,-117,73,51,-124,14,-19,-53,-29,-19,-19
-14,-136,-122,75,53,-129,9,-19,-53,-29,-19,-24
-24,-126,-102,75,39,-114,0,-29,-43,-29,-29,-24
-34,-126,-92,80,29,-109,0,-29,-43,-29,-24,-24
-39,-126,-87,82,24,-107,0,-29,-43,-29,-24,-24
-43,-126,-82,85,19,-104,0,-29,-43,-29,-24,-24
-24,-112,-87,68,31,-100,0,-29,-48,-34,-34,-34
-24,-107,-82,65,29,-95,0,-29,-53,-39,-39,-34
-24,-107,-82,65,29,-95,0,-29,-58,-43,-39,-34
-24,-117,-92,70,34,-104,4,-24,-63,-43,-39,-29
-24,-112,-87,68,31,-100,9,-19,-39,-24,-19,-14
-24,-112,-87,68,31,-100,9,-19,-39,-24,-19,-14
-24,-112,-87,68,31,-100,4,-19,-39,-24,-19,-14
-24,-112,-87,68,31,-100,4,-24,-39,-24,-24,-19
-24,-117,-92,70,34,-104,14,-14,-43,-24,-24,-19
-24,-122,-97,73,36,-109,14,-9,-43,-24,-24,-19
-24,-122,-97,73,36,-109,14,-9,-43,-24,-24,-19
-24,-126,-102,75,39,-114,14,-9,-39,-24,-24,-14
-24,-126,-102,75,39,-114,14,-9,-29,-24,-14,-14
-24,-122,-97,73,36,-109,14,-4,-24,-19,-14,-14
-24,-122,-97,73,36,-109,14,-4,-24,-9,-14,-14
-24,-122,-97,73,36,-109,14,-4,-24,-4,-14,-14
-34,-122,-87,78,26,-104,4,-4,-24,-14,-4,-14
-39,-122,-82,80,21,-102,9,-4,-24,-14,-4,-14
-39,-122,-82,80,21,-102,9,0,-24,-14,0,-14
-43,-122,-78,82,17,-100,9,0,-19,-14,0,-14
-29,-117,-87,73,29,-102,9,-9,-29,-19,4,-14
-24,-117,-92,70,34,-104,9,-9,-29,-14,0,-14
-19,-107,-87,63,34,-97,9,-9,-29,-14,-9,-14
-14,-107,-92,61,39,-100,9,-9,-29,-19,-14,-14
-14,-102,-87,58,36,-95,9,0,-29,-19,-14,-24
-14,-102,-87,58,36,-95,9,0,-29,-19,-14,-24
-14,-97,-82,56,34,-90,9,0,-29,-19,-14,-24
-14,-97,-82,56,34,-90,9,0,-29,-19,-14,-24
-29,-117,-87,73,29,-102,19,0,-29,-29,-14,-24
-29,-131,-102,80,36,-117,19,0,-29,-29,-14,-24
-24,-122,-97,73,36,-109,19,0,-29,-29,-14,-24
-24,-126,-102,75,39,-114,19,0,-29,-29,-14,-24
-24,-122,-97,73,36,-109,19,-9,-29,-19,-14,-24
-24,-117,-92,70,34,-104,19,-9,-29,-19,-14,-24
-24,-112,-87,68,31,-100,19,-9,-29,-19,-14,-24
-24,-107,-82,65,29,-95,19,-9,-29,-24,-14,-29
-24,-126,-102,75,39,-114,19,-9,-29,-29,-19,-19
-29,-126,-97,78,34,-112,19,-14,-29,-29,-19,-19
-39,-122,-82,80,21,-102,19,-14,-34,-29,-24,-19
-39,-122,-82,80,21,-102,19,-14,-34,-29,-24,-19
-29,-122,-92,75,31,-107,19,-9,-34,-29,-14,-29
-29,-122,-92,75,31,-107,19,-9,-34,-29,-14,-24
-34,-126,-92,80,29,-109,19,-9,-34,-29,-14,-24
-34,-126,-92,80,29,-109,19,-9,-34,-29,-14,-29
-24,-117,-92,70,34,-104,19,-14,-39,-39,-24,-29
-24,-117,-92,70,34,-104,19,-19,-43,-39,-29,-34
-29,-112,-82,70,26,-97,19,-19,-43,-34,-29,-34
-29,-112,-82,70,26,-97,19,-19,-43,-34,-29,-34
-29,-126,-97,78,34,-112,19,-19,-58,-43,-39,-34
-34,-146,-112,90,39,-129,19,-19,-58,-43,-39,-34
-34,-136,-102,85,34,-119,19,-24,-58,-53,-43,-39
-34,-131,-97,82,31,-114,19,-29,-63,-58,-48,-39
-29,-122,-92,75,31,-107,19,-29,-53,-53,-43,-39
-29,-117,-87,73,29,-102,19,-24,-53,-48,-39,-39
-34,-126,-92,80,29,-109,19,-24,-58,-43,-34,-39
-34,-136,-102,85,34,-119,19,-29,-58,-39,-29,-39
-43,-141,-97,92,26,-119,19,-29,-68,-48,-39,-43
-48,-136,-87,92,19,-112,19,-34,-73,-53,-43,-43
-48,-141,-92,95,21,-117,14,-39,-78,-58,-53,-43
-48,-146,-97,97,24,-122,14,-39,-78,-58,-58,-43
-34,-122,-87,78,26,-104,4,-53,-87,-68,-53,-53
-29,-102,-73,65,21,-87,4,-53,-92,-73,-53,-53
-24,-112,-87,68,31,-100,4,-53,-92,-73,-58,-53
-24,-117,-92,70,34,-104,9,-48,-92,-68,-58,-53
-24,-122,-97,73,36,-109,19,-39,-87,-63,-48,-48
-24,-122,-97,73,36,-109,14,-48,-87,-63,-53,-48
-24,-122,-97,73,36,-109,14,-53,-92,-68,-58,-43
-29,-126,-97,78,34,-112,9,-53,-87,-63,-58,-39
-34,-136,-102,85,34,-119,9,-53,-87,-53,-53,-39
-39,-156,-117,97,39,-136,9,-58,-87,-53,-53,-39
-43,-161,-117,102,36,-139,9,-58,-87,-53,-48,-39
-43,-151,-107,97,31,-129,9,-58,-92,-53,-43,-43
-34,-136,-102,85,34,-119,0,-48,-102,-63,-48,-53
-34,-131,-97,82,31,-114,0,-53,-102,-68,-53,-53
-34,-126,-92,80,29,-109,0,-53,-102,-73,-58,-53
-34,-126,-92,80,29,-109,0,-53,-102,-82,-63,-53
-39,-131,-92,85,26,-112,9,-63,-107,-92,-73,-43
-39,-136,-97,87,29,-117,9,-68,-107,-92,-78,-43
-39,-136,-97,87,29,-117,9,-68,-112,-92,-78,-43
-39,-131,-92,85,26,-112,4,-68,-112,-92,-82,-43
-39,-136,-97,87,29,-117,4,-73,-122,-92,-82,-58
-39,-136,-97,87,29,-117,4,-73,-122,-92,-82,-63
-39,-136,-97,87,29,-117,4,-73,-117,-87,-82,-63
-39,-136,-97,87,29,-117,4,-73,-117,-87,-82,-68
-34,-146,-112,90,39,-129,14,-63,-122,-87,-78,-68
-34,-161,-126,97,46,-143,14,-68,-122,-87,-78,-63
-34,-151,-117,92,41,-134,14,-68,-126,-87,-78,-58
-34,-151,-117,92,41,-134,9,-73,-126,-87,-78,-53
-34,-136,-102,85,34,-119,4,-82,-126,-97,-87,-58
-34,-131,-97,82,31,-114,0,-82,-126,-97,-87,-63
-34,-117,-82,75,24,-100,-4,-82,-126,-102,-87,-73
-34,-122,-87,78,26,-104,-9,-87,-126,-102,-87,-78
-43,-126,-82,85,19,-104,-4,-87,-117,-92,-78,-68
-43,-126,-82,85,19,-104,0,-87,-122,-92,-78,-68
-39,-131,-92,85,26,-112,4,-87,-122,-92,-78,-68
-39,-141,-102,90,31,-122,9,-87,-122,-92,-78,-68
-39,-141,-102,90,31,-122,4,-87,-136,-102,-87,-78
-39,-146,-107,92,34,-126,4,-87,-136,-102,-92,-78
-43,-146,-102,95,29,-124,4,-87,-136,-112,-92,-78
-48,-141,-92,95,21,-117,4,-87,-141,-112,-97,-78
-34,-131,-97,82,31,-114,-4,-97,-141,-107,-87,-68
-24,-126,-102,75,39,-114,-4,-97,-131,-102,-82,-68
-19,-117,-97,68,39,-107,-4,-97,-131,-102,-82,-68
-14,-107,-92,61,39,-100,-4,-102,-136,-107,-87,-73
-19,-122,-102,70,41,-112,-9,-97,-136,-97,-87,-63
-29,-131,-102,80,36,-117,-4,-92,-141,-97,-87,-63
-34,-136,-102,85,34,-119,0,-87,-141,-97,-87,-63
-34,-131,-97,82,31,-114,4,-82,-141,-97,-82,-58
-34,-156,-122,95,43,-139,4,-82,-126,-92,-82,-68
-34,-161,-126,97,46,-143,4,-82,-126,-92,-82,-68
-34,-161,-126,97,46,-143,4,-82,-126,-97,-82,-68
-34,-161,-126,97,46,-143,4,-82,-126,-97,-82,-68
-34,-170,-136,102,51,-153,4,-82,-131,-97,-82,-63
-34,-170,-136,102,51,-153,4,-78,-131,-97,-82,-63
-34,-156,-122,95,43,-139,0,-78,-136,-97,-82,-63
-34,-151,-117,92,41,-134,0,-82,-136,-97,-87,-73
-34,-136,-102,85,34,-119,-9,-97,-146,-107,-97,-82
-34,-126,-92,80,29,-109,-9,-102,-146,-107,-97,-82
-34,-122,-87,78,26,-104,-9,-112,-146,-107,-102,-82
-34,-122,-87,78,26,-104,-9,-117,-146,-107,-102,-82
-43,-151,-107,97,31,-129,0,-107,-131,-97,-97,-78
-48,-165,-117,107,34,-141,4,-102,-131,-92,-97,-78
-48,-175,-126,112,39,-151,4,-97,-131,-92,-97,-78
-48,-180,-131,114,41,-156,4,-92,-131,-92,-97,-78
-39,-156,-117,97,39,-136,14,-97,-146,-107,-102,-78
-34,-151,-117,92,41,-134,4,-97,-146,-112,-102,-78
-39,-151,-112,95,36,-131,4,-97,-146,-112,-102,-78
-34,-156,-122,95,43,-139,4,-97,-146,-112,-102,-82
-39,-146,-107,92,34,-126,-4,-97,-136,-107,-87,-82
-39,-146,-107,92,34,-126,-4,-97,-136,-97,-82,-78
-39,-146,-107,92,34,-126,-4,-97,-136,-92,-78,-68
-39,-156,-117,97,39,-136,-4,-97,-136,-87,-73,-63
-29,-126,-97,78,34,-112,0,-102,-141,-102,-87,-68
-24,-136,-112,80,43,-124,0,-102,-146,-107,-87,-68
-24,-136,-112,80,43,-124,0,-102,-151,-112,-92,-73
-24,-117,-92,70,34,-104,-4,-107,-156,-117,-97,-82
-24,-117,-92,70,34,-104,-14,-107,-151,-112,-87,-73
-29,-136,-107,82,39,-122,-14,-107,-146,-107,-87,-73
-29,-136,-107,82,39,-122,-14,-107,-141,-102,-87,-73
-29,-117,-87,73,29,-102,-9,-107,-136,-97,-87,-73
-24,-78,-53,51,14,-65,0,-97,-131,-97,-87,-68
9,-68,-78,29,43,-73,29,-68,-107,-68,-68,-48
-4,-73,-68,39,31,-70,19,-78,-117,-78,-73,-58
-9,-78,-68,43,29,-73,19,-78,-117,-78,-78,-58
-14,-82,-68,48,26,-75,19,-78,-117,-78,-82,-58
-19,-87,-68,53,24,-78,19,-78,-117,-78,-87,-58
-19,-97,-78,58,29,-87,24,-78,-102,-63,-73,-43
-19,-92,-73,56,26,-82,24,-78,-102,-58,-68,-43
-24,-92,-68,58,21,-80,34,-78,-102,-58,-63,-43
-24,-92,-68,58,21,-80,39,-78,-97,-53,-58,-43
-29,-78,-48,53,9,-63,39,-82,-107,-63,-68,-48
-29,-68,-39,48,4,-53,34,-78,-107,-58,-68,-48
-29,-68,-39,48,4,-53,34,-73,-102,-58,-63,-43
-29,-68,-39,48,4,-53,34,-73,-97,-53,-63,-39
-19,-58,-39,39,9,-48,24,-73,-87,-63,-63,-48
-14,-48,-34,31,9,-41,19,-68,-82,-53,-53,-43
-9,-24,-14,17,2,-19,14,-68,-78,-48,-48,-39
-4,-4,0,4,-2,-2,0,-78,-78,-48,-48,-39
4,0,-4,-2,4,-2,-24,-78,-78,-43,-48,-34
9,0,-9,-4,9,-4,-39,-82,-78,-39,-48,-24
9,0,-9,-4,9,-4,-43,-82,-73,-34,-43,-24
9,0,-9,-4,9,-4,-53,-97,-73,-34,-43,-19
14,14,0,-14,7,7,-68,-107,-73,-34,-39,-14
19,24,4,-21,7,14,-78,-112,-73,-39,-34,-14
24,29,4,-26,9,17,-87,-117,-73,-39,-24,-9
24,43,19,-34,2,31,-92,-117,-78,-39,-19,-9
24,34,9,-29,7,21,-82,-122,-92,-34,-19,4
29,29,0,-29,14,14,-82,-126,-92,-34,-19,9
29,14,-14,-21,21,0,-87,-131,-102,-34,-24,14
29,4,-24,-17,26,-9,-102,-136,-107,-39,-29,19
19,4,-14,-12,17,-4,-117,-156,-122,-63,-48,9
34,4,-29,-19,31,-12,-126,-161,-141,-73,-53,0
34,0,-34,-17,34,-17,-131,-165,-146,-78,-58,-4
34,-19,-53,-7,43,-36,-131,-165,-156,-78,-58,-9
29,-9,-39,-9,34,-24,-122,-161,-136,-73,-53,-4
24,-9,-34,-7,29,-21,-102,-151,-122,-63,-43,-4
24,-9,-34,-7,29,-21,-92,-141,-122,-58,-39,-4
14,-9,-24,-2,19,-17,-73,-131,-122,-53,-34,-14
14,-4,-19,-4,17,-12,-68,-131,-122,-63,-39,-24
9,-24,-34,7,21,-29,-58,-122,-122,-58,-43,-24
9,-39,-48,14,29,-43,-48,-112,-117,-58,-48,-24
4,-53,-58,24,31,-56,-39,-107,-117,-58,-53,-29
-24,-82,-58,53,17,-70,-29,-117,-136,-68,-68,-39
-29,-107,-78,68,24,-92,-24,-122,-151,-82,-87,-63
-39,-122,-82,80,21,-102,-19,-126,-161,-97,-92,-68
-48,-141,-92,95,21,-117,-9,-126,-161,-97,-97,-73
-58,-161,-102,109,21,-131,0,-117,-170,-107,-97,-78
-63,-165,-102,114,19,-134,0,-117,-175,-117,-107,-87
-63,-165,-102,114,19,-134,4,-117,-180,-122,-112,-87
-68,-185,-117,126,24,-151,4,-117,-185,-122,-112,-87
-58,-185,-126,122,34,-156,14,-117,-180,-112,-117,-97
-58,-180,-122,119,31,-151,14,-117,-180,-126,-126,-107
-58,-180,-122,119,31,-151,9,-122,-185,-126,-131,-112
-63,-180,-117,122,26,-148,9,-122,-180,-126,-131,-112
-78,-190,-112,134,17,-151,9,-122,-190,-131,-131,-102
-82,-200,-117,141,17,-158,9,-122,-190,-131,-131,-102
-82,-204,-122,143,19,-163,14,-117,-185,-131,-131,-97
-73,-200,-126,136,26,-163,19,-117,-180,-131,-131,-97
-78,-204,-126,141,24,-165,19,-117,-170,-141,-136,-97
-73,-195,-122,134,24,-158,19,-117,-175,-141,-136,-97
-68,-175,-107,122,19,-141,19,-117,-175,-141,-131,-97
-63,-165,-102,114,19,-134,14,-117,-175,-136,-131,-97
-73,-190,-117,131,21,-153,14,-107,-175,-131,-122,-87
-63,-185,-122,124,29,-153,19,-107,-175,-122,-117,-87
-63,-180,-117,122,26,-148,19,-107,-175,-117,-117,-87
-73,-195,-122,134,24,-158,19,-107,-175,-117,-117,-87
-68,-204,-136,136,34,-170,19,-117,-175,-117,-126,-97
-68,-195,-126,131,29,-161,24,-112,-175,-117,-126,-97
-63,-185,-122,124,29,-153,24,-112,-175,-117,-126,-97
-63,-170,-107,117,21,-139,24,-112,-175,-117,-126,-97
-73,-175,-102,124,14,-139,24,-102,-175,-126,-126,-107
-68,-175,-107,122,19,-141,19,-107,-175,-126,-131,-107
-68,-175,-107,122,19,-141,19,-107,-175,-126,-131,-107
-68,-180,-112,124,21,-146,19,-107,-175,-126,-131,-107
-58,-200,-141,129,41,-170,24,-107,-161,-117,-117,-102
-58,-190,-131,124,36,-161,24,-107,-161,-112,-112,-97
-58,-180,-122,119,31,-151,24,-107,-161,-107,-107,-92
-58,-180,-122,119,31,-151,24,-107,-156,-102,-97,-87
-63,-185,-122,124,29,-153,24,-107,-165,-107,-112,-102
-68,-190,-122,129,26,-156,24,-107,-165,-112,-117,-107
-73,-185,-112,129,19,-148,24,-107,-165,-112,-117,-102
-73,-175,-102,124,14,-139,24,-107,-165,-117,-122,-107
-53,-180,-126,117,36,-153,34,-97,-165,-107,-117,-92
-43,-209,-165,126,61,-187,53,-78,-161,-102,-107,-87
-58,-224,-165,141,53,-195,63,-68,-161,-117,-126,-92
-68,-224,-156,146,43,-190,82,-63,-165,-131,-151,-117
-68,-209,-141,139,36,-175,117,-39,-136,-122,-156,-141
-97,-209,-112,153,7,-161,131,0,-102,-112,-146,-151
-102,-204,-102,153,0,-153,165,48,-53,-82,-136,-141
-92,-209,-117,151,12,-163,200,112,9,-39,-112,-141
-102,-229,-126,165,12,-178,229,175,63,4,-82,-141
-92,-248,-156,170,31,-202,263,253,146,87,-14,-102
-39,-263,-224,151,92,-244,292,346,273,195,82,-39
14,-248,-263,117,139,-256,312,463,405,322,185,34
43,-234,-278,95,161,-256,302,556,566,492,341,141
107,-170,-278,31,192,-224,278,600,727,712,556,322
200,-87,-287,-56,244,-187,224,575,834,893,741,468
248,-19,-268,-114,258,-143,151,507,917,1054,893,585
312,97,-214,-204,263,-58,68,424,1019,1249,1112,756
380,244,-136,-312,258,53,-48,239,1078,1410,1307,932
429,405,-24,-417,226,190,-224,-4,1078,1517,1439,1049
473,556,82,-514,195,319,-390,-214,1058,1595,1561,1171
522,653,131,-588,195,392,-507,-366,985,1610,1605,1244
522,663,141,-592,190,402,-566,-488,849,1488,1517,1215
522,600,78,-561,222,339,-610,-590,629,1263,1302,1093
463,546,82,-505,190,314,-673,-756,424,1083,1151,1024
351,600,248,-475,51,424,-727,-961,283,956,1073,1000
273,697,424,-485,-75,561,-756,-1107,102,780,946,941
234,688,453,-461,-109,570,-736,-1171,-175,468,692,795
165,590,424,-378,-129,507,-697,-1224,-468,122,380,595
78,507,429,-292,-175,468,-644,-1273,-732,-195,112,414
19,414,395,-217,-187,405,-556,-1283,-946,-444,-87,292
-4,346,351,-170,-178,348,-492,-1239,-1015,-556,-175,224
-19,273,292,-126,-156,283,-453,-1156,-966,-551,-209,175
-39,146,185,-53,-112,165,-414,-1078,-946,-561,-263,82
-107,39,146,34,-126,92,-370,-1029,-961,-619,-356,-39
-161,-24,136,92,-148,56,-356,-980,-941,-644,-424,-136
-151,-58,92,104,-122,17,-331,-897,-873,-600,-424,-175
-151,-131,19,141,-85,-56,-273,-800,-805,-566,-424,-200
-200,-214,-14,207,-92,-114,-229,-727,-761,-561,-453,-258
-200,-214,-14,207,-92,-114,-209,-663,-697,-541,-453,-278
-151,-185,-34,168,-58,-109,-175,-561,-585,-444,-375,-234
-92,-156,-63,124,-14,-109,-122,-419,-448,-317,-258,-165
-58,-141,-82,100,12,-112,-63,-302,-336,-219,-180,-112
-39,-117,-78,78,19,-97,-24,-214,-268,-170,-156,-102
-39,-112,-73,75,17,-92,-4,-151,-214,-141,-146,-97
-39,-102,-63,70,12,-82,24,-102,-146,-97,-107,-78
-34,-112,-78,73,21,-95,58,-68,-102,-58,-68,-48
-34,-151,-117,92,41,-134,58,-48,-87,-43,-63,-39
-34,-146,-112,90,39,-129,48,-39,-87,-29,-53,-29
-29,-146,-117,87,43,-131,58,-39,-73,-14,-39,-29
-29,-146,-117,87,43,-131,78,-14,-63,-9,-34,-29
-29,-156,-126,92,48,-141,92,-4,-63,-9,-29,-34
-39,-156,-117,97,39,-136,92,9,-63,-24,-39,-48
-39,-151,-112,95,36,-131,87,14,-58,-29,-43,-53
-39,-151,-112,95,36,-131,78,24,-53,-29,-58,-53
-39,-146,-107,92,34,-126,73,19,-48,-14,-53,-48
-24,-136,-112,80,43,-124,73,19,-39,0,-34,-39
-24,-136,-112,80,43,-124,78,19,-29,0,-29,-39
-24,-136,-112,80,43,-124,82,29,-24,4,-29,-39
-24,-141,-117,82,46,-129,87,39,-19,9,-24,-39
-29,-141,-112,85,41,-126,87,53,-14,9,-34,-48
-29,-141,-112,85,41,-126,92,63,-9,9,-29,-48
-24,-136,-112,80,43,-124,92,68,-9,19,-29,-48
-24,-131,-107,78,41,-119,87,68,-4,19,-29,-48
-14,-126,-112,70,48,-119,87,58,-4,19,-29,-39
-14,-126,-112,70,48,-119,87,58,0,19,-29,-39
-9,-131,-122,70,56,-126,97,63,9,29,-19,-29
-9,-141,-131,75,61,-136,102,68,9,34,-19,-29
-14,-151,-136,82,61,-143,92,73,14,43,-9,-29
-14,-151,-136,82,61,-143,97,78,19,53,-4,-29
-9,-141,-131,75,61,-136,97,87,24,53,-4,-24
-9,-141,-131,75,61,-136,97,87,24,53,-4,-24
0,-126,-126,63,63,-126,102,87,29,43,-14,-24
0,-117,-117,58,58,-117,102,92,34,48,-14,-24
0,-112,-112,56,56,-112,107,92,39,58,-4,-24
0,-107,-107,53,53,-107,107,102,43,63,-4,-19
-9,-117,-107,63,48,-112,112,112,53,68,9,-14
0,-112,-112,56,56,-112,107,117,53,73,9,-14
0,-136,-136,68,68,-136,102,122,53,73,4,-14
-4,-141,-136,73,65,-139,97,122,58,73,4,-14
-4,-131,-126,68,61,-129,112,136,73,92,19,-9
-4,-122,-117,63,56,-119,117,141,87,97,29,0
4,-122,-126,58,65,-124,122,146,92,107,39,4
4,-122,-126,58,65,-124,131,151,97,107,48,19
-4,-117,-112,61,53,-114,122,151,92,107,48,14
-4,-117,-112,61,53,-114,117,156,97,107,48,9
-4,-117,-112,61,53,-114,117,165,102,112,43,4
-4,-117,-112,61,53,-114,112,170,107,117,39,0
4,-112,-117,53,61,-114,117,175,122,122,48,14
4,-107,-112,51,58,-109,122,175,126,122,48,14
9,-107,-117,48,63,-112,131,185,141,136,63,19
14,-107,-122,46,68,-114,136,190,151,141,68,19
4,-107,-112,51,58,-109,136,209,151,151,78,29
9,-107,-117,48,63,-112,141,214,156,151,78,39
14,-102,-117,43,65,-109,146,234,170,161,82,39
14,-102,-117,43,65,-109,151,244,180,170,87,43
24,-92,-117,34,70,-104,146,248,170,165,82,34
24,-87,-112,31,68,-100,141,244,180,170,87,39
24,-82,-107,29,65,-95,141,253,190,185,102,43
24,-73,-97,24,61,-85,146,258,204,190,107,48
34,-73,-107,19,70,-90,146,268,224,209,122,53
34,-68,-102,17,68,-85,151,278,229,219,122,58
39,-68,-107,14,73,-87,151,287,239,224,126,58
48,-78,-126,14,87,-102,156,307,258,239,136,63
48,-78,-126,14,87,-102,170,326,287,268,156,78
48,-78,-126,14,87,-102,175,341,287,278,170,82
48,-87,-136,19,92,-112,175,361,297,297,185,92
48,-107,-156,29,102,-131,190,385,322,312,200,107
48,-87,-136,19,92,-112,185,390,326,322,204,107
48,-78,-126,14,87,-102,190,409,346,326,204,112
63,-68,-131,2,97,-100,195,424,361,331,209,117
68,-48,-117,-9,92,-82,200,444,370,336,209,122
63,-43,-107,-9,85,-75,200,453,380,361,219,126
73,-43,-117,-14,95,-80,204,468,400,375,234,136
73,-43,-117,-14,95,-80,219,483,419,395,248,141
73,-39,-112,-17,92,-75,219,497,444,409,253,146
82,-39,-122,-21,102,-80,219,522,463,444,283,170
92,-39,-131,-26,112,-85,229,551,488,458,297,170
97,-34,-131,-31,114,-82,239,575,507,478,312,180
107,-29,-136,-39,122,-82,244,600,531,497,326,190
131,4,-126,-68,129,-61,244,619,536,502,331,195
131,14,-117,-73,124,-51,253,629,556,512,336,204
136,29,-107,-82,122,-39,253,649,566,517,336,204
141,43,-97,-92,119,-26,258,663,590,531,351,214
131,24,-107,-78,119,-41,268,692,614,556,370,229
136,14,-122,-75,129,-53,287,717,644,585,395,239
141,14,-126,-78,134,-56,287,741,663,605,409,244
156,14,-141,-85,148,-63,292,756,683,619,414,253
161,4,-156,-82,158,-75,302,771,697,634,429,273
161,9,-151,-85,156,-70,302,780,707,644,444,278
156,9,-146,-82,151,-68,307,795,712,653,444,278
151,24,-126,-87,139,-51,312,814,727,663,453,283
161,24,-136,-92,148,-56,307,819,746,683,478,292
170,24,-146,-97,158,-61,312,834,756,692,488,302
185,53,-131,-119,158,-39,312,844,771,702,497,307
195,63,-131,-129,163,-34,322,858,780,712,502,307
185,48,-136,-117,161,-43,331,868,790,717,517,317
190,48,-141,-119,165,-46,331,878,800,727,517,322
190,48,-141,-119,165,-46,326,878,805,732,522,322
190,43,-146,-117,168,-51,326,878,810,736,522,322
204,58,-146,-131,175,-43,331,883,800,741,517,317
209,63,-146,-136,178,-41,331,888,805,741,517,317
209,58,-151,-134,180,-46,326,888,800,736,517,326
209,53,-156,-131,183,-51,322,888,795,732,512,326
209,53,-156,-131,183,-51,331,893,800,736,507,326
209,53,-156,-131,183,-51,326,893,795,732,507,326
204,43,-161,-124,183,-58,326,888,790,732,502,322
204,43,-161,-124,183,-58,322,883,785,727,497,322
204,39,-165,-122,185,-63,312,858,761,707,483,307
204,39,-165,-122,185,-63,302,839,741,692,473,297
204,48,-156,-126,180,-53,302,819,717,678,468,287
200,39,-161,-119,180,-61,297,805,702,658,453,287
195,29,-165,-112,180,-68,302,780,683,644,434,278
190,29,-161,-109,175,-65,297,766,663,629,424,273
180,14,-165,-97,173,-75,292,746,653,619,419,268
170,9,-161,-90,165,-75,273,717,624,600,400,253
170,14,-156,-92,163,-70,263,683,590,566,375,234
170,19,-151,-95,161,-65,253,649,566,541,366,229
161,24,-136,-92,148,-56,244,610,531,512,346,214
141,24,-117,-82,129,-46,229,575,492,483,331,204
146,9,-136,-78,141,-63,234,551,473,463,317,204
146,0,-146,-73,146,-73,229,522,463,448,307,200
136,-19,-156,-58,146,-87,224,502,434,434,283,195
136,-24,-161,-56,148,-92,209,478,409,414,268,180
117,-29,-146,-43,131,-87,200,439,370,380,239,165
107,-39,-146,-34,126,-92,180,400,341,351,229,151
92,-34,-126,-29,109,-80,165,361,307,326,214,141
87,-29,-117,-29,102,-73,161,322,278,292,195,126
78,-43,-122,-17,100,-82,151,312,253,278,175,117
78,-48,-126,-14,102,-87,146,287,234,258,161,107
73,-53,-126,-9,100,-90,131,263,204,244,136,97
58,-63,-122,2,90,-92,117,244,190,219,131,82
48,-82,-131,17,90,-107,126,219,161,195,117,73
43,-82,-126,19,85,-104,122,195,136,180,107,63
43,-78,-122,17,82,-100,112,170,112,161,92,53
43,-73,-117,14,80,-95,112,151,102,141,78,43
43,-68,-112,12,78,-90,97,141,82,131,63,34
34,-78,-112,21,73,-95,92,122,68,117,43,24
14,-82,-97,34,56,-90,78,107,53,107,39,24
14,-87,-102,36,58,-95,73,92,48,97,39,24
19,-92,-112,36,65,-102,82,97,39,102,43,29
19,-92,-112,36,65,-102,78,78,29,92,34,24
4,-92,-97,43,51,-95,63,58,14,73,29,9
0,-92,-92,46,46,-92,58,43,0,68,19,4
9,-92,-102,41,56,-97,68,48,-4,63,9,4
9,-102,-112,46,61,-107,68,39,-14,58,4,0
4,-102,-107,48,56,-104,63,34,-19,48,-4,-4
0,-102,-102,51,51,-102,58,24,-24,39,-9,-4
0,-107,-107,53,53,-107,68,19,-24,43,-14,-9
0,-112,-112,56,56,-112,63,14,-29,39,-14,-14
-4,-117,-112,61,53,-114,63,4,-34,39,-14,-14
-4,-122,-117,63,56,-119,58,0,-34,39,-14,-14
-14,-122,-107,68,46,-114,58,-4,-29,39,-9,-4
-14,-122,-107,68,46,-114,53,-4,-43,29,-14,-14
-19,-117,-97,68,39,-107,48,0,-43,24,-14,-14
-19,-117,-97,68,39,-107,48,4,-48,19,-24,-19
-4,-112,-107,58,51,-109,39,-4,-53,9,-29,-24
-4,-107,-102,56,48,-104,39,-9,-58,9,-34,-29
-9,-102,-92,56,41,-97,39,-24,-63,9,-39,-34
-9,-92,-82,51,36,-87,34,-29,-68,9,-43,-39
-9,-87,-78,48,34,-82,34,-24,-73,9,-34,-29
-9,-92,-82,51,36,-87,34,-24,-73,4,-34,-29
-9,-112,-102,61,46,-107,34,-24,-73,4,-34,-29
-9,-117,-107,63,48,-112,34,-24,-73,4,-34,-29
-9,-92,-82,51,36,-87,34,-29,-73,4,-43,-39
-9,-82,-73,46,31,-78,34,-29,-78,4,-43,-39
-14,-78,-63,46,24,-70,29,-39,-78,4,-43,-39
-14,-68,-53,41,19,-61,29,-39,-78,4,-43,-39
-14,-87,-73,51,29,-80,39,-29,-68,9,-39,-29
-19,-102,-82,61,31,-92,43,-24,-63,9,-34,-24
-24,-112,-87,68,31,-100,43,-19,-63,9,-29,-19
-29,-112,-82,70,26,-97,34,-14,-63,9,-24,-14
-24,-122,-97,73,36,-109,43,-14,-63,19,-24,-24
-19,-131,-112,75,46,-122,43,-9,-63,19,-19,-19
-9,-122,-112,65,51,-117,43,-9,-63,19,-19,-19
-4,-117,-112,61,53,-114,39,-9,-63,19,-19,-24
-19,-117,-97,68,39,-107,48,-9,-63,9,-29,-14
-24,-117,-92,70,34,-104,48,-9,-63,9,-24,-14
-24,-117,-92,70,34,-104,48,-9,-63,9,-24,-14
-24,-117,-92,70,34,-104,48,-9,-63,9,-24,-14
-4,-102,-97,53,46,-100,39,-19,-63,9,-24,-19
-4,-87,-82,46,39,-85,39,-19,-63,9,-29,-24
-4,-78,-73,41,34,-75,39,-19,-63,9,-29,-29
-4,-78,-73,41,34,-75,43,-14,-63,14,-29,-29
-14,-97,-82,56,34,-90,48,0,-48,34,-9,-19
-14,-102,-87,58,36,-95,48,0,-48,34,-9,-14
-14,-107,-92,61,39,-100,43,0,-48,34,-9,-9
-14,-112,-97,63,41,-104,43,-4,-48,34,-14,-9
-4,-97,-92,51,43,-95,34,-14,-53,24,-24,-9
-4,-92,-87,48,41,-90,34,-9,-53,24,-24,-9
-4,-82,-78,43,36,-80,34,-9,-53,24,-24,-9
-4,-78,-73,41,34,-75,34,-9,-48,24,-24,-4
-4,-87,-82,46,39,-85,43,0,-48,29,-14,-4
-4,-82,-78,43,36,-80,43,4,-43,29,-14,-4
-4,-82,-78,43,36,-80,43,4,-43,34,-14,-4
-4,-82,-78,43,36,-80,43,4,-43,34,-14,-4
-14,-87,-73,51,29,-80,34,-4,-34,34,-14,-4
-19,-92,-73,56,26,-82,39,-4,-34,34,-14,-4
-19,-97,-78,58,29,-87,39,0,-34,34,-9,-4
-24,-102,-78,63,26,-90,39,0,-29,34,-9,-4
-19,-97,-78,58,29,-87,48,4,-29,48,0,4
-14,-97,-82,56,34,-90,48,9,-29,53,0,4
-9,-87,-78,48,34,-82,48,14,-29,53,-4,4
-4,-87,-82,46,39,-85,48,19,-29,48,-4,4
-4,-87,-82,46,39,-85,39,14,-39,39,-14,-4
-4,-82,-78,43,36,-80,39,9,-39,39,-14,-4
-4,-73,-68,39,31,-70,39,4,-39,39,-14,-4
-4,-68,-63,36,29,-65,39,0,-39,39,-14,-4
-9,-68,-58,39,24,-63,39,-9,-48,29,-24,-14
-9,-73,-63,41,26,-68,39,-9,-48,29,-24,-14
-4,-53,-48,29,21,-51,39,-9,-48,29,-24,-14
-4,-48,-43,26,19,-46,39,-9,-48,29,-24,-14
-4,-68,-63,36,29,-65,48,-4,-43,34,-19,-9
-4,-78,-73,41,34,-75,48,0,-39,39,-14,-4
-4,-87,-82,46,39,-85,48,4,-34,43,-9,0
-4,-97,-92,51,43,-95,48,9,-29,43,-4,0
-4,-97,-92,51,43,-95,58,9,-39,39,-19,-9
-9,-97,-87,53,39,-92,58,4,-39,39,-19,-9
-19,-92,-73,56,26,-82,58,4,-43,39,-24,-9
-19,-92,-73,56,26,-82,58,4,-43,39,-24,-9
0,-92,-92,46,46,-92,53,0,-43,29,-24,-9
0,-92,-92,46,46,-92,48,0,-43,29,-24,-4
-4,-97,-92,51,43,-95,43,0,-43,29,-24,-4
-4,-97,-92,51,43,-95,39,0,-43,29,-24,-9
0,-97,-97,48,48,-97,39,-4,-48,29,-24,-9
-4,-97,-92,51,43,-95,39,-9,-53,29,-29,-14
-14,-92,-78,53,31,-85,39,-9,-53,34,-29,-14
-19,-92,-73,56,26,-82,39,-9,-53,34,-29,-14
-14,-87,-73,51,29,-80,48,0,-58,34,-19,-14
-14,-97,-82,56,34,-90,48,0,-58,34,-19,-14
-9,-78,-68,43,29,-73,48,-4,-58,24,-24,-19
-4,-63,-58,34,26,-61,48,-9,-63,19,-29,-19
0,-68,-68,34,34,-68,48,-19,-63,19,-29,-19
0,-68,-68,34,34,-68,48,-14,-63,19,-29,-19
-4,-82,-78,43,36,-80,48,-14,-68,19,-29,-19
-4,-97,-92,51,43,-95,48,-19,-68,19,-29,-19
-14,-112,-97,63,41,-104,58,-9,-68,19,-34,-24
-19,-107,-87,63,34,-97,58,-14,-73,14,-34,-24
-19,-112,-92,65,36,-102,53,-19,-78,9,-39,-24
-19,-117,-97,68,39,-107,53,-19,-78,9,-39,-24
0,-87,-87,43,43,-87,48,-34,-87,0,-43,-34
0,-73,-73,36,36,-73,43,-34,-92,-4,-43,-34
0,-87,-87,43,43,-87,39,-34,-92,-4,-48,-34
-4,-97,-92,51,43,-95,39,-29,-92,0,-48,-34
-9,-92,-82,51,36,-87,39,-29,-92,0,-39,-34
-14,-92,-78,53,31,-85,34,-39,-97,-4,-43,-39
-19,-92,-73,56,26,-82,34,-43,-107,-14,-48,-39
-29,-97,-68,63,19,-82,29,-43,-107,-14,-48,-39
-19,-97,-78,58,29,-87,29,-43,-117,-24,-58,-39
-19,-107,-87,63,34,-97,29,-48,-117,-24,-63,-39
-19,-102,-82,61,31,-92,29,-48,-117,-24,-63,-39
-14,-82,-68,48,26,-75,29,-48,-122,-24,-63,-43
-4,-87,-82,46,39,-85,34,-43,-107,-24,-58,-39
-4,-92,-87,48,41,-90,39,-43,-102,-19,-53,-34
-4,-97,-92,51,43,-95,43,-39,-97,-14,-48,-29
-4,-107,-102,56,48,-104,48,-34,-92,-14,-43,-24
-19,-112,-92,65,36,-102,39,-39,-102,-19,-48,-29
-19,-117,-97,68,39,-107,39,-48,-107,-24,-58,-34
-19,-117,-97,68,39,-107,39,-53,-117,-29,-63,-39
-19,-112,-92,65,36,-102,34,-58,-122,-34,-73,-43
-9,-107,-97,58,43,-102,24,-63,-131,-34,-68,-48
-9,-107,-97,58,43,-102,24,-63,-131,-34,-63,-43
-9,-107,-97,58,43,-102,24,-63,-126,-29,-58,-34
-9,-107,-97,58,43,-102,24,-63,-126,-29,-53,-29
-24,-92,-68,58,21,-80,24,-73,-141,-48,-63,-39
-24,-102,-78,63,26,-90,24,-78,-141,-48,-68,-43
-24,-87,-63,56,19,-75,24,-78,-146,-48,-73,-48
-24,-82,-58,53,17,-70,19,-82,-146,-48,-78,-53
-24,-87,-63,56,19,-75,19,-73,-146,-48,-78,-43
-24,-92,-68,58,21,-80,19,-73,-146,-48,-78,-43
-24,-87,-63,56,19,-75,19,-73,-146,-53,-78,-48
-24,-102,-78,63,26,-90,19,-78,-146,-53,-78,-48
-14,-102,-87,58,36,-95,29,-68,-136,-48,-73,-39
-14,-97,-82,56,34,-90,29,-68,-141,-43,-68,-39
-9,-97,-87,53,39,-92,29,-68,-141,-39,-63,-39
-9,-102,-92,56,41,-97,29,-68,-141,-34,-58,-39
-19,-92,-73,56,26,-82,24,-78,-146,-43,-63,-48
-19,-97,-78,58,29,-87,24,-78,-146,-43,-73,-48
-24,-97,-73,61,24,-85,24,-78,-146,-53,-78,-48
-29,-92,-63,61,17,-78,24,-78,-151,-53,-87,-48
-29,-82,-53,56,12,-68,14,-87,-161,-48,-87,-48
-24,-87,-63,56,19,-75,14,-87,-151,-43,-82,-48
-24,-87,-63,56,19,-75,14,-87,-151,-43,-82,-48
-24,-87,-63,56,19,-75,14,-92,-156,-48,-87,-53
-14,-102,-87,58,36,-95,19,-78,-151,-39,-82,-48
-19,-112,-92,65,36,-102,24,-73,-151,-39,-78,-43
-19,-117,-97,68,39,-107,29,-68,-146,-39,-73,-39
-14,-112,-97,63,41,-104,34,-63,-141,-39,-63,-29
-24,-117,-92,70,34,-104,24,-73,-141,-43,-73,-39
-24,-122,-97,73,36,-109,24,-73,-146,-43,-73,-39
-24,-122,-97,73,36,-109,24,-73,-151,-48,-73,-39
-24,-122,-97,73,36,-109,24,-73,-156,-48,-73,-39
-14,-112,-97,63,41,-104,24,-82,-151,-48,-63,-34
-14,-112,-97,63,41,-104,24,-78,-151,-48,-63,-34
-14,-97,-82,56,34,-90,19,-78,-156,-48,-63,-34
-14,-92,-78,53,31,-85,19,-82,-156,-48,-68,-43
-24,-97,-73,61,24,-85,29,-82,-156,-48,-78,-34
-24,-97,-73,61,24,-85,29,-82,-156,-48,-78,-34
-24,-102,-78,63,26,-90,29,-87,-156,-48,-82,-34
-24,-112,-87,68,31,-100,29,-87,-156,-48,-82,-34
-14,-117,-102,65,43,-109,19,-82,-161,-53,-78,-39
-19,-117,-97,68,39,-107,24,-82,-161,-53,-78,-39
-19,-112,-92,65,36,-102,24,-82,-161,-58,-78,-39
-19,-102,-82,61,31,-92,24,-82,-161,-63,-78,-39
-24,-92,-68,58,21,-80,34,-78,-156,-63,-73,-29
-24,-92,-68,58,21,-80,24,-78,-156,-63,-73,-29
-34,-97,-63,65,14,-80,24,-78,-156,-58,-73,-29
-34,-107,-73,70,19,-90,24,-78,-156,-53,-73,-34
-29,-97,-68,63,19,-82,24,-87,-156,-63,-73,-48
-29,-97,-68,63,19,-82,24,-87,-156,-58,-73,-48
-29,-97,-68,63,19,-82,24,-87,-156,-58,-73,-43
-29,-107,-78,68,24,-92,24,-87,-156,-58,-73,-43
-29,-92,-63,61,17,-78,29,-82,-165,-58,-78,-43
-24,-107,-82,65,29,-95,29,-82,-165,-58,-78,-39
-24,-112,-87,68,31,-100,29,-82,-165,-58,-82,-39
-24,-97,-73,61,24,-85,24,-87,-165,-58,-87,-43
-24,-68,-43,46,9,-56,24,-87,-156,-58,-78,-43
-19,-68,-48,43,14,-58,34,-68,-146,-48,-68,-34
0,-68,-68,34,34,-68,43,-58,-136,-39,-58,-24
0,-39,-39,19,19,-39,39,-68,-136,-29,-48,-19
-9,-48,-39,29,14,-43,39,-58,-126,-19,-39,-9
-9,-48,-39,29,14,-43,39,-58,-126,-19,-39,-9
-9,-48,-39,29,14,-43,39,-58,-126,-19,-39,-9
-9,-48,-39,29,14,-43,39,-58,-126,-19,-39,-9
-9,-48,-39,29,14,-43,43,-68,-122,-19,-48,-14
-9,-43,-34,26,12,-39,43,-68,-122,-19,-48,-14
-14,-43,-29,29,7,-36,53,-68,-122,-24,-48,-14
-14,-43,-29,29,7,-36,58,-68,-117,-24,-48,-14
0,-39,-39,19,19,-39,68,-53,-107,-14,-43,-9
0,-29,-29,14,14,-29,63,-48,-107,-9,-39,-9
0,-29,-29,14,14,-29,63,-43,-102,-9,-29,-4
0,-29,-29,14,14,-29,63,-43,-97,-4,-24,0
-9,-19,-9,14,0,-14,58,-53,-97,-4,-34,0
-4,-9,-4,7,0,-7,48,-48,-92,4,-24,4
0,14,14,-7,-7,14,39,-48,-87,9,-19,9
4,34,29,-19,-12,31,19,-58,-87,9,-19,9
14,48,34,-31,-9,41,-4,-63,-87,9,-19,4
19,48,29,-34,-4,39,-19,-73,-87,9,-19,14
19,48,29,-34,-4,39,-24,-78,-82,9,-14,14
19,48,29,-34,-4,39,-34,-97,-82,4,-14,19
14,48,34,-31,-9,41,-39,-97,-102,4,-14,24
19,53,34,-36,-7,43,-48,-102,-102,0,-14,24
24,53,29,-39,-2,41,-58,-107,-102,0,-9,29
24,63,39,-43,-7,51,-63,-107,-107,0,-9,29
24,78,53,-51,-14,65,-63,-112,-112,-4,-9,29
29,78,48,-53,-9,63,-63,-117,-112,-4,-9,29
29,68,39,-48,-4,53,-68,-122,-122,-4,-14,29
29,63,34,-46,-2,48,-82,-126,-126,-9,-19,29
29,58,29,-43,0,43,-87,-146,-141,-34,-39,24
43,53,9,-48,17,31,-97,-151,-161,-43,-43,19
43,43,0,-43,21,21,-102,-156,-165,-48,-48,19
43,19,-24,-31,34,-2,-102,-156,-175,-48,-48,19
39,29,-9,-34,24,9,-92,-151,-156,-43,-43,24
34,29,-4,-31,19,12,-73,-141,-141,-34,-34,24
34,29,-4,-31,19,12,-63,-131,-141,-29,-29,24
24,29,4,-26,9,17,-43,-122,-141,-24,-24,14
14,19,4,-17,4,12,-34,-131,-151,-29,-34,14
9,-4,-14,-2,12,-9,-29,-122,-151,-29,-34,14
9,-24,-34,7,21,-29,-24,-112,-146,-34,-34,14
4,-43,-48,19,26,-46,-19,-107,-146,-39,-34,9
-9,-48,-39,29,14,-43,-9,-97,-156,-39,-48,0
-9,-68,-58,39,24,-63,-4,-102,-170,-53,-68,-24
-14,-78,-63,46,24,-70,0,-107,-180,-68,-73,-29
-19,-92,-73,56,26,-82,9,-107,-180,-68,-78,-34
-19,-107,-87,63,34,-97,29,-107,-180,-68,-68,-29
-24,-107,-82,65,29,-95,29,-107,-185,-78,-78,-39
-24,-102,-78,63,26,-90,34,-107,-190,-82,-82,-39
-29,-117,-87,73,29,-102,34,-107,-195,-82,-82,-39
-29,-122,-92,75,31,-107,39,-107,-185,-73,-78,-39
-29,-122,-92,75,31,-107,34,-107,-190,-87,-87,-48
-29,-126,-97,78,34,-112,24,-112,-200,-87,-92,-53
-34,-131,-97,82,31,-114,19,-112,-200,-87,-92,-53
-39,-122,-82,80,21,-102,29,-112,-209,-102,-97,-58
-43,-122,-78,82,17,-100,29,-112,-209,-102,-102,-63
-43,-117,-73,80,14,-95,34,-107,-204,-102,-107,-63
-34,-102,-68,68,17,-85,39,-107,-200,-102,-112,-68
-53,-131,-78,92,12,-104,29,-117,-209,-102,-117,-68
-53,-136,-82,95,14,-109,29,-117,-214,-102,-117,-68
-53,-131,-78,92,12,-104,29,-117,-214,-102,-112,-68
-53,-136,-82,95,14,-109,24,-117,-214,-97,-112,-68
-48,-136,-87,92,19,-112,24,-107,-209,-87,-102,-58
-34,-126,-92,80,29,-109,29,-107,-204,-82,-97,-58
-29,-117,-87,73,29,-102,29,-107,-200,-82,-97,-58
-34,-126,-92,80,29,-109,29,-107,-195,-87,-97,-58
-48,-156,-107,102,29,-131,29,-117,-195,-97,-107,-58
-48,-156,-107,102,29,-131,34,-112,-195,-97,-107,-58
-43,-156,-112,100,34,-134,34,-112,-195,-97,-107,-58
-43,-151,-107,97,31,-129,34,-112,-195,-97,-107,-58
-53,-141,-87,97,17,-114,34,-102,-195,-87,-97,-58
-48,-136,-87,92,19,-112,29,-107,-195,-87,-102,-58
-48,-131,-82,90,17,-107,29,-107,-195,-87,-102,-58
-48,-131,-82,90,17,-107,29,-107,-195,-87,-102,-58
-39,-136,-97,87,29,-117,34,-97,-190,-82,-92,-48
-39,-122,-82,80,21,-102,34,-97,-190,-82,-92,-48
-39,-107,-68,73,14,-87,34,-97,-190,-82,-92,-48
-39,-102,-63,70,12,-82,34,-97,-185,-82,-87,-48
-48,-126,-78,87,14,-102,34,-107,-185,-92,-97,-58
-48,-141,-92,95,21,-117,34,-107,-185,-92,-97,-58
-48,-146,-97,97,24,-122,34,-107,-185,-87,-92,-48
-43,-146,-102,95,29,-124,34,-107,-185,-87,-92,-48
-24,-112,-87,68,31,-100,34,-87,-175,-87,-97,-43
-14,-92,-78,53,31,-85,43,-87,-190,-102,-107,-58
-48,-107,-58,78,4,-82,43,-97,-219,-126,-136,-92
-68,-156,-87,112,9,-122,82,-73,-214,-141,-161,-117
-58,-170,-112,114,26,-141,136,-19,-165,-112,-146,-112
-48,-161,-112,104,31,-136,170,29,-112,-73,-126,-102
-63,-195,-131,129,34,-163,204,78,-63,-43,-107,-102
-63,-219,-156,141,46,-187,248,151,9,0,-73,-82
-53,-190,-136,122,41,-163,268,214,63,53,-34,-73
-53,-170,-117,112,31,-143,273,273,126,97,4,-53
-19,-185,-165,102,73,-175,302,375,244,204,92,0
24,-180,-204,78,114,-192,322,492,424,380,234,92
82,-126,-209,21,146,-168,302,556,585,590,419,229
165,-53,-219,-56,192,-136,239,551,707,771,595,370
278,39,-239,-158,258,-100,165,497,814,941,780,507
356,146,-209,-251,283,-31,92,429,936,1132,971,653
400,263,-136,-331,268,63,-39,297,1039,1317,1180,844
458,390,-68,-424,263,161,-224,122,1127,1498,1385,1010
507,502,-4,-505,256,248,-400,-43,1176,1644,1546,1146
551,614,63,-583,244,339,-546,-195,1176,1712,1639,1259
580,673,92,-627,244,383,-644,-317,1093,1688,1644,1293
610,653,43,-631,283,348,-712,-409,936,1566,1527,1234
600,610,9,-605,295,309,-766,-551,717,1351,1332,1122
522,624,102,-573,209,363,-829,-756,512,1161,1180,1063
380,717,336,-549,21,527,-873,-980,351,1005,1083,1039
312,766,453,-539,-70,610,-883,-1127,122,771,927,971
273,717,444,-495,-85,580,-873,-1200,-185,458,673,814
195,619,424,-407,-114,522,-814,-1244,-488,131,400,644
97,517,419,-307,-161,468,-712,-1293,-771,-175,161,483
58,473,414,-265,-178,444,-644,-1312,-976,-414,-39,361
34,444,409,-239,-187,427,-619,-1259,-1015,-507,-126,292
9,361,351,-185,-170,356,-580,-1195,-985,-522,-180,234
-29,224,253,-97,-141,239,-531,-1146,-995,-570,-263,141
-78,146,224,-34,-151,185,-507,-1117,-1000,-619,-326,48
-102,112,214,-4,-158,163,-483,-1058,-961,-624,-366,-29
-112,68,180,21,-146,124,-458,-946,-893,-590,-375,-68
-122,34,156,43,-139,95,-400,-839,-824,-536,-366,-92
-131,9,141,61,-136,75,-336,-736,-741,-483,-356,-122
-122,-19,102,70,-112,41,-268,-624,-629,-414,-317,-122
-92,-58,34,75,-63,-12,-195,-483,-488,-307,-239,-78
-73,-78,-4,75,-34,-41,-102,-361,-370,-209,-161,-48
-48,-53,-4,51,-21,-29,-43,-273,-287,-151,-112,-24
-19,-29,-9,24,-4,-19,-4,-185,-229,-102,-78,-14
-19,-63,-43,41,12,-53,14,-122,-185,-73,-68,-9
-19,-73,-53,46,17,-63,24,-82,-156,-48,-48,-9
-4,-34,-29,19,12,-31,29,-58,-131,-29,-39,9
-4,-34,-29,19,12,-31,39,-58,-107,-14,-34,19
-14,-48,-34,31,9,-41,39,-48,-97,-19,-29,9
-9,-48,-39,29,14,-43,48,-48,-82,-4,-19,9
-9,-48,-39,29,14,-43,68,-24,-73,0,-19,9
-9,-58,-48,34,19,-53,82,-14,-73,0,-19,4
-19,-73,-53,46,17,-63,87,-4,-82,-4,-24,0
-19,-73,-53,46,17,-63,87,4,-78,-9,-24,-4
-19,-78,-58,48,19,-68,82,19,-73,-9,-34,-4
-19,-78,-58,48,19,-68,82,19,-68,4,-24,0
-14,-63,-48,39,17,-56,73,19,-58,9,-14,9
-14,-58,-43,36,14,-51,78,19,-48,9,-9,9
-14,-53,-39,34,12,-46,82,29,-43,14,-9,9
-14,-53,-39,34,12,-46,87,39,-39,19,-4,9
-9,-68,-58,39,24,-63,97,53,-34,19,4,9
-9,-73,-63,41,26,-68,102,63,-29,19,9,9
-4,-73,-68,39,31,-70,102,68,-29,29,9,9
-4,-73,-68,39,31,-70,97,68,-24,29,9,9
-4,-63,-58,34,26,-61,87,58,-24,19,9,9
-4,-58,-53,31,24,-56,87,58,-19,19,9,9
0,-58,-58,29,29,-58,97,63,-9,29,19,19
0,-63,-63,31,31,-63,102,68,-9,34,19,19
-4,-63,-58,34,26,-61,102,82,-4,43,9,9
-4,-63,-58,34,26,-61,107,87,0,53,14,9
0,-53,-53,26,26,-53,107,97,4,53,14,14
0,-53,-53,26,26,-53,107,97,4,53,14,14
0,-58,-58,29,29,-58,112,97,9,53,24,24
0,-58,-58,29,29,-58,112,102,14,58,24,24
0,-63,-63,31,31,-63,117,102,19,68,34,24
0,-68,-68,34,34,-68,117,112,24,73,34,29
0,-63,-63,31,31,-63,117,122,43,78,39,34
9,-53,-63,21,36,-58,117,126,43,82,39,34
9,-73,-82,31,46,-78,117,131,43,82,34,34
4,-73,-78,34,41,-75,117,131,48,82,34,34
4,-58,-63,26,34,-61,117,136,43,92,43,34
4,-43,-48,19,26,-46,117,141,58,97,48,39
14,-39,-53,12,34,-46,117,146,63,107,53,39
14,-34,-48,9,31,-41,122,151,68,107,58,48
14,-43,-58,14,36,-51,126,161,82,117,63,48
14,-48,-63,17,39,-56,126,165,87,117,68,48
14,-53,-68,19,41,-61,131,175,92,122,68,48
14,-58,-73,21,43,-65,131,180,97,126,68,48
14,-39,-53,12,34,-46,131,175,92,131,68,53
14,-29,-43,7,29,-36,131,175,97,131,68,53
19,-24,-43,2,31,-34,136,185,112,146,82,58
24,-19,-43,-2,34,-31,136,190,122,151,87,58
24,-24,-48,0,36,-36,126,200,122,151,87,58
29,-29,-58,0,43,-43,131,204,126,151,87,68
34,-29,-63,-2,48,-46,136,224,141,161,92,68
34,-34,-68,0,51,-51,141,234,151,170,97,73
34,-14,-48,-9,41,-31,151,244,156,175,112,73
34,-9,-43,-12,39,-26,151,244,170,180,117,78
34,-4,-39,-14,36,-21,156,258,185,195,131,82
34,4,-29,-19,31,-12,165,268,204,200,136,87
34,0,-34,-17,34,-17,165,287,204,219,141,92
34,0,-34,-17,34,-17,170,297,209,229,141,97
39,-4,-43,-17,41,-24,170,307,219,234,146,97
48,-19,-68,-14,58,-43,175,326,239,248,156,102
58,-19,-78,-19,68,-48,190,341,258,253,170,122
58,-9,-68,-24,63,-39,195,351,258,258,180,122
58,-9,-68,-24,63,-39,195,366,268,273,190,126
58,-19,-78,-19,68,-48,209,385,292,283,200,136
48,-4,-53,-21,51,-29,209,395,297,297,200,141
48,0,-48,-24,48,-24,209,409,317,307,204,141
63,4,-58,-34,61,-26,209,419,331,317,214,141
68,19,-48,-43,58,-14,209,434,341,326,219,141
78,19,-58,-48,68,-19,224,463,356,351,234,151
92,24,-68,-58,80,-21,234,488,380,366,253,165
97,29,-68,-63,82,-19,253,512,405,385,273,175
102,39,-63,-70,82,-12,258,536,434,400,283,185
107,53,-53,-80,80,0,258,546,439,419,287,195
112,58,-53,-85,82,2,268,570,458,429,297,190
112,68,-43,-90,78,12,278,590,473,444,307,195
117,78,-39,-97,78,19,283,610,492,458,317,200
126,82,-43,-104,85,19,292,634,517,488,336,214
122,73,-48,-97,85,12,302,649,536,502,346,224
122,68,-53,-95,87,7,302,673,546,512,351,224
122,63,-58,-92,90,2,307,692,570,531,370,234
131,68,-63,-100,97,2,317,712,600,551,385,248
136,73,-63,-104,100,4,336,736,624,575,405,258
141,87,-53,-114,97,17,336,761,639,590,414,263
156,102,-53,-129,104,24,341,775,653,600,414,273
156,102,-53,-129,104,24,351,790,668,605,419,273
161,107,-53,-134,107,26,351,800,678,614,434,278
161,107,-53,-134,107,26,356,814,683,624,434,278
161,122,-39,-141,100,41,361,834,697,634,444,283
170,112,-58,-141,114,26,366,854,722,668,463,297
180,102,-78,-141,129,12,370,873,736,683,478,312
195,122,-73,-158,134,24,370,888,756,697,492,322
204,122,-82,-163,143,19,380,907,771,712,502,326
190,117,-73,-153,131,21,390,912,771,707,497,326
190,117,-73,-153,131,21,390,917,771,707,497,331
185,117,-68,-151,126,24,385,912,766,702,502,331
180,112,-68,-146,124,21,385,907,761,697,502,331
195,131,-63,-163,129,34,390,922,766,707,512,326
200,131,-68,-165,134,31,390,927,775,712,517,326
200,122,-78,-161,139,21,385,927,775,712,522,336
200,112,-87,-156,143,12,380,927,775,712,522,336
209,131,-78,-170,143,26,380,912,766,697,512,326
209,131,-78,-170,143,26,375,912,756,692,507,326
204,122,-82,-163,143,19,375,907,746,692,497,322
204,122,-82,-163,143,19,370,902,736,688,488,322
204,112,-92,-158,148,9,370,883,736,673,483,326
