I,II,III,aVR,aVL,aVF,V1,V2,V3,V4,V5,V6
-78,-195,-117,136,19,-156,117,136,97,-9,-107,-78
-78,-195,-117,136,19,-156,117,136,97,-9,-107,-78
-78,-195,-117,136,19,-156,117,136,97,-9,-107,-78
-78,-195,-117,136,19,-156,117,136,97,-9,-107,-78
-78,-195,-117,136,19,-156,117,146,107,0,-102,-68
-78,-195,-117,136,19,-156,117,146,107,0,-97,-68
-78,-195,-117,136,19,-156,117,146,107,0,-92,-68
-78,-195,-117,136,19,-156,117,146,107,0,-87,-68
-78,-195,-117,136,19,-156,117,156,112,9,-78,-68
-78,-195,-117,136,19,-156,117,156,117,9,-78,-68
-78,-195,-117,136,19,-156,117,156,122,9,-78,-68
-78,-195,-117,136,19,-156,117,156,126,9,-78,-68
-78,-204,-126,141,24,-165,126,161,131,14,-68,-63
-78,-204,-126,141,24,-165,126,165,136,19,-68,-58
-78,-204,-126,141,24,-165,126,170,141,24,-68,-53
-78,-204,-126,141,24,-165,126,175,146,29,-68,-48
-78,-204,-126,141,24,-165,136,180,161,34,-63,-39
-78,-204,-126,141,24,-165,136,185,165,39,-58,-39
-78,-204,-126,141,24,-165,136,190,170,43,-53,-39
-78,-204,-126,141,24,-165,136,195,175,48,-48,-39
-68,-204,-136,136,34,-170,136,200,190,53,-43,-29
-68,-204,-136,136,34,-170,136,204,195,58,-39,-29
-68,-204,-136,136,34,-170,136,209,200,63,-34,-29
-68,-204,-136,136,34,-170,136,214,204,68,-29,-29
-63,-200,-136,131,36,-168,136,224,214,78,-24,-24
-58,-195,-136,126,39,-165,136,234,224,87,-19,-19
-53,-190,-136,122,41,-163,136,244,234,97,-14,-14
-48,-185,-136,117,43,-161,136,253,244,107,-9,-9
-39,-195,-156,117,58,-175,146,263,263,117,0,4
-39,-195,-156,117,58,-175,146,273,273,126,9,9
-39,-195,-156,117,58,-175,146,283,283,136,19,14
-39,-195,-156,117,58,-175,146,292,292,146,29,19
-29,-204,-175,117,73,-190,151,312,307,161,39,29
-29,-204,-175,117,73,-190,156,322,322,175,48,39
-29,-204,-175,117,73,-190,161,331,336,190,58,48
-29,-204,-175,117,73,-190,165,341,351,204,68,58
-24,-219,-195,122,85,-207,170,356,370,229,82,78
-19,-224,-204,122,92,-214,175,370,390,244,97,87
-14,-229,-214,122,100,-222,180,385,409,258,112,97
-9,-234,-224,122,107,-229,185,400,429,273,126,107
4,-224,-229,109,117,-226,195,414,448,297,141,126
9,-224,-234,107,122,-229,195,429,468,312,156,136
14,-224,-239,104,126,-231,195,444,488,326,170,146
19,-224,-244,102,131,-234,195,458,507,341,185,156
24,-214,-239,95,131,-226,195,473,522,361,204,175
29,-214,-244,92,136,-229,195,478,536,370,214,185
34,-214,-248,90,141,-231,195,483,551,380,224,195
39,-214,-253,87,146,-234,195,488,566,390,234,204
43,-204,-248,80,146,-226,195,497,575,409,244,214
48,-204,-253,78,151,-229,195,507,585,419,253,224
53,-204,-258,75,156,-231,195,517,595,429,263,234
58,-204,-263,73,161,-234,195,527,605,439,273,244
63,-195,-258,65,161,-226,185,527,619,453,283,258
68,-195,-263,63,165,-229,185,527,624,458,292,263
73,-195,-268,61,170,-231,185,527,629,463,302,268
78,-195,-273,58,175,-234,185,527,634,468,312,273
87,-185,-273,48,180,-229,185,536,644,473,317,278
87,-185,-273,48,180,-229,185,536,644,478,322,283
87,-185,-273,48,180,-229,185,536,644,483,326,287
87,-185,-273,48,180,-229,185,536,644,488,331,292
97,-185,-283,43,190,-234,180,531,634,478,341,297
97,-185,-283,43,190,-234,175,527,634,478,341,302
97,-185,-283,43,190,-234,170,522,634,478,341,307
97,-185,-283,43,190,-234,165,517,634,478,341,312
97,-185,-283,43,190,-234,161,507,624,473,336,302
97,-185,-283,43,190,-234,156,497,614,468,331,302
97,-185,-283,43,190,-234,151,488,605,463,326,302
97,-185,-283,43,190,-234,146,478,595,458,322,302
97,-195,-292,48,195,-244,136,463,570,434,307,297
97,-195,-292,48,195,-244,136,448,556,419,302,292
97,-195,-292,48,195,-244,136,434,541,405,297,287
97,-195,-292,48,195,-244,136,419,527,390,292,283
82,-209,-292,63,187,-251,131,395,507,380,283,268
78,-214,-292,68,185,-253,126,380,488,370,273,263
73,-219,-292,73,183,-256,122,366,468,361,263,258
68,-224,-292,78,180,-258,117,351,448,351,253,253
53,-239,-292,92,173,-265,117,331,429,331,234,234
48,-244,-292,97,170,-268,117,322,409,312,224,224
43,-248,-292,102,168,-270,117,312,390,292,214,214
39,-253,-292,107,165,-273,117,302,370,273,204,204
34,-268,-302,117,168,-285,107,287,346,253,185,195
29,-273,-302,122,165,-287,107,273,331,244,175,185
24,-278,-302,126,163,-290,107,258,317,234,165,175
19,-283,-302,131,161,-292,107,244,302,224,156,165
4,-297,-302,146,153,-300,107,234,278,200,136,156
0,-302,-302,151,151,-302,107,224,263,185,126,146
-4,-307,-302,156,148,-305,107,214,248,170,117,136
-9,-312,-302,161,146,-307,107,204,234,156,107,126
-14,-326,-312,170,148,-319,107,200,224,141,97,117
-19,-331,-312,175,146,-322,107,195,214,136,87,107
-24,-336,-312,180,143,-324,107,190,204,131,78,97
-29,-341,-312,185,141,-326,107,185,195,126,68,87
-39,-346,-307,192,134,-326,107,180,185,117,53,82
-39,-351,-312,195,136,-331,107,175,175,107,48,78
-39,-356,-317,197,139,-336,107,170,165,97,43,73
-39,-361,-322,200,141,-341,107,165,156,87,39,68
-39,-370,-331,204,146,-351,107,156,151,82,34,63
-39,-370,-331,204,146,-351,107,156,146,78,29,58
-39,-370,-331,204,146,-351,107,156,141,73,24,53
-39,-370,-331,204,146,-351,107,156,136,68,19,48
-48,-375,-326,212,139,-351,117,146,131,63,9,48
-48,-380,-331,214,141,-356,117,146,126,58,9,48
-48,-385,-336,217,143,-361,117,146,122,53,9,48
-48,-390,-341,219,146,-366,117,146,117,48,9,48
-58,-380,-322,219,131,-351,117,136,117,48,9,43
-58,-380,-322,219,131,-351,117,136,117,48,9,39
-58,-380,-322,219,131,-351,117,136,117,48,9,34
-58,-380,-322,219,131,-351,117,136,117,48,9,29
-58,-380,-322,219,131,-351,107,126,107,39,0,29
-58,-380,-322,219,131,-351,107,126,107,39,0,29
-58,-380,-322,219,131,-351,107,126,107,39,0,29
-58,-380,-322,219,131,-351,107,126,107,39,0,29
-58,-380,-322,219,131,-351,107,126,97,29,-9,29
-58,-380,-322,219,131,-351,107,126,97,29,-9,29
-58,-380,-322,219,131,-351,107,126,97,29,-9,29
-58,-380,-322,219,131,-351,107,126,97,29,-9,29
-68,-370,-302,219,117,-336,107,117,87,29,-9,19
-68,-370,-302,219,117,-336,107,117,87,29,-9,19
-68,-370,-302,219,117,-336,107,117,87,29,-9,19
-68,-370,-302,219,117,-336,107,117,87,29,-9,19
-68,-380,-312,224,122,-346,107,126,97,39,-9,19
-68,-380,-312,224,122,-346,107,126,97,39,-9,19
-68,-380,-312,224,122,-346,107,126,97,39,-9,19
-68,-380,-312,224,122,-346,107,126,97,39,-9,19
-68,-375,-307,222,119,-341,107,117,87,29,-19,19
-68,-370,-302,219,117,-336,107,117,87,29,-19,19
-68,-366,-297,217,114,-331,107,117,87,29,-19,19
-68,-361,-292,214,112,-326,107,117,87,29,-19,19
-68,-361,-292,214,112,-326,97,117,97,29,-19,9
-68,-361,-292,214,112,-326,97,117,97,29,-19,9
-68,-361,-292,214,112,-326,97,117,97,29,-19,9
-68,-361,-292,214,112,-326,97,117,97,29,-19,9
-68,-361,-292,214,112,-326,97,117,87,29,-19,9
-68,-361,-292,214,112,-326,97,117,87,29,-19,9
-68,-361,-292,214,112,-326,97,117,87,29,-19,9
-68,-361,-292,214,112,-326,97,117,87,29,-19,9
-58,-356,-297,207,119,-326,87,117,97,29,-9,9
-58,-351,-292,204,117,-322,87,117,97,29,-9,9
-58,-346,-287,202,114,-317,87,117,97,29,-9,9
-58,-341,-283,200,112,-312,87,117,97,29,-9,9
-58,-351,-292,204,117,-322,97,117,97,39,-9,19
-58,-351,-292,204,117,-322,97,117,97,39,-9,19
-58,-351,-292,204,117,-322,97,117,97,39,-9,19
-58,-351,-292,204,117,-322,97,117,97,39,-9,19
-58,-346,-287,202,114,-317,97,117,107,39,-9,19
-58,-341,-283,200,112,-312,97,117,107,39,-9,19
-58,-336,-278,197,109,-307,97,117,107,39,-9,19
-58,-331,-273,195,107,-302,97,117,107,39,-9,19
-58,-331,-273,195,107,-302,97,126,107,48,0,29
-58,-331,-273,195,107,-302,97,126,107,48,0,29
-58,-331,-273,195,107,-302,97,126,107,48,0,29
-58,-331,-273,195,107,-302,97,126,107,48,0,29
-48,-322,-273,185,112,-297,87,126,107,48,0,19
-48,-322,-273,185,112,-297,87,126,107,48,0,19
-48,-322,-273,185,112,-297,87,126,107,48,0,19
-48,-322,-273,185,112,-297,87,126,107,48,0,19
-58,-312,-253,185,97,-283,78,117,117,58,0,19
-58,-312,-253,185,97,-283,78,117,117,58,0,19
-58,-312,-253,185,97,-283,78,117,117,58,0,19
-58,-312,-253,185,97,-283,78,117,117,58,0,19
-58,-312,-253,185,97,-283,87,117,107,48,9,29
-58,-312,-253,185,97,-283,87,117,107,48,9,29
-58,-312,-253,185,97,-283,87,117,107,48,9,29
-58,-312,-253,185,97,-283,87,117,107,48,9,29
-58,-322,-263,190,102,-292,78,126,117,48,0,19
-58,-322,-263,190,102,-292,78,126,117,48,0,19
-58,-322,-263,190,102,-292,78,126,117,48,0,19
-58,-322,-263,190,102,-292,78,126,117,48,0,19
-58,-312,-253,185,97,-283,78,117,107,48,0,19
-58,-312,-253,185,97,-283,78,117,107,48,0,19
-58,-312,-253,185,97,-283,78,117,107,48,0,19
-58,-312,-253,185,97,-283,78,117,107,48,0,19
-58,-312,-253,185,97,-283,78,107,97,48,0,19
-58,-312,-253,185,97,-283,78,107,97,48,0,19
-58,-312,-253,185,97,-283,78,107,97,48,0,19
-58,-312,-253,185,97,-283,78,107,97,48,0,19
-58,-312,-253,185,97,-283,78,107,87,43,-9,9
-58,-312,-253,185,97,-283,78,107,87,39,-9,9
-58,-312,-253,185,97,-283,78,107,87,34,-9,9
-58,-312,-253,185,97,-283,78,107,87,29,-9,9
-68,-312,-244,190,87,-278,78,97,78,29,-19,0
-68,-312,-244,190,87,-278,78,97,78,29,-19,0
-68,-312,-244,190,87,-278,78,97,78,29,-19,0
-68,-312,-244,190,87,-278,78,97,78,29,-19,0
-58,-322,-263,190,102,-292,68,87,68,24,-19,0
-58,-322,-263,190,102,-292,68,87,68,19,-19,0
-58,-322,-263,190,102,-292,68,87,68,14,-19,0
-58,-322,-263,190,102,-292,68,87,68,9,-19,0
-58,-312,-253,185,97,-283,68,87,58,9,-29,0
-58,-312,-253,185,97,-283,68,87,58,9,-29,0
-58,-312,-253,185,97,-283,68,87,58,9,-29,0
-58,-312,-253,185,97,-283,68,87,58,9,-29,0
-68,-322,-253,195,92,-287,68,87,68,9,-19,0
-68,-322,-253,195,92,-287,68,87,68,9,-19,0
-68,-322,-253,195,92,-287,68,87,68,9,-19,0
-68,-322,-253,195,92,-287,68,87,68,9,-19,0
-68,-322,-253,195,92,-287,68,78,58,0,-29,-9
-68,-322,-253,195,92,-287,68,78,58,0,-29,-9
-68,-322,-253,195,92,-287,68,78,58,0,-29,-9
-68,-322,-253,195,92,-287,68,78,58,0,-29,-9
-78,-322,-244,200,82,-283,68,68,48,0,-39,-19
-78,-322,-244,200,82,-283,68,68,48,0,-39,-19
-78,-322,-244,200,82,-283,68,68,48,0,-39,-19
-78,-322,-244,200,82,-283,68,68,48,0,-39,-19
-78,-312,-234,195,78,-273,58,58,48,-9,-39,-19
-78,-312,-234,195,78,-273,58,63,48,-9,-39,-19
-78,-307,-229,192,75,-268,58,63,43,-9,-39,-19
-82,-307,-224,195,70,-265,58,58,43,-9,-39,-19
-73,-297,-224,185,75,-261,58,68,43,-9,-39,-14
-73,-297,-224,185,75,-261,58,63,48,-9,-39,-14
-73,-297,-224,185,75,-261,58,63,48,-9,-39,-14
-73,-297,-224,185,75,-261,58,63,53,-4,-39,-14
-68,-307,-239,187,85,-273,63,58,43,-4,-34,-9
-68,-297,-229,183,80,-263,58,58,43,-4,-34,-9
-78,-292,-214,185,68,-253,48,53,43,-4,-34,-9
-78,-283,-204,180,63,-244,43,53,48,-4,-29,-9
-78,-263,-185,170,53,-224,34,53,53,9,-24,0
-78,-258,-180,168,51,-219,34,43,58,9,-19,4
-78,-258,-180,168,51,-219,34,43,63,19,-19,4
-78,-258,-180,168,51,-219,39,48,63,19,-19,4
-78,-244,-165,161,43,-204,34,53,78,19,-19,4
-78,-244,-165,161,43,-204,34,53,78,24,-19,9
-78,-239,-161,158,41,-200,39,53,78,24,-14,9
-73,-239,-165,156,46,-202,39,58,82,24,-14,9
-73,-239,-165,156,46,-202,48,63,78,29,-4,9
-73,-234,-161,153,43,-197,48,63,78,29,-4,9
-68,-234,-165,151,48,-200,48,58,78,29,-4,9
-68,-234,-165,151,48,-200,43,58,78,29,-4,9
-58,-239,-180,148,61,-209,34,53,78,19,-4,9
-58,-239,-180,148,61,-209,24,39,73,14,-4,9
-58,-239,-180,148,61,-209,14,34,73,14,-9,9
-58,-239,-180,148,61,-209,9,24,68,14,-9,9
-63,-248,-185,156,61,-217,4,14,53,0,-19,-4
-63,-239,-175,151,56,-207,0,14,53,0,-24,-4
-58,-234,-175,146,58,-204,0,14,53,-9,-24,-4
-58,-229,-170,143,56,-200,-9,9,48,-9,-24,-4
-48,-229,-180,139,65,-204,-24,4,43,-4,-34,-14
-43,-219,-175,131,65,-197,-24,4,48,0,-24,-4
-34,-204,-170,119,68,-187,-29,4,43,0,-19,4
-29,-195,-165,112,68,-180,-34,4,39,9,-14,9
-19,-190,-170,104,75,-180,-43,0,48,14,-4,14
-19,-185,-165,102,73,-175,-34,0,53,19,0,19
-19,-190,-170,104,75,-180,-34,4,53,24,4,24
-19,-190,-170,104,75,-180,-29,9,58,29,9,29
-9,-195,-185,102,87,-190,-19,19,68,29,4,24
-9,-200,-190,104,90,-195,-9,29,68,29,4,24
-9,-209,-200,109,95,-204,-4,34,68,29,9,24
-14,-219,-204,117,95,-212,0,39,68,29,9,24
-19,-239,-219,129,100,-229,4,48,58,19,0,9
-29,-244,-214,136,92,-229,9,48,53,19,-4,9
-29,-244,-214,136,92,-229,14,48,48,14,-9,9
-39,-248,-209,143,85,-229,19,48,48,9,-29,0
-43,-253,-209,148,82,-231,24,48,39,-4,-34,-9
-53,-263,-209,158,78,-236,34,39,29,-14,-39,-19
-58,-273,-214,165,78,-244,39,39,24,-19,-43,-24
-63,-283,-219,173,78,-251,43,39,19,-24,-39,-29
-73,-292,-219,183,73,-256,43,34,19,-24,-43,-34
-78,-302,-224,190,73,-263,48,39,14,-29,-48,-34
-78,-307,-229,192,75,-268,48,39,9,-34,-48,-34
-82,-312,-229,197,73,-270,48,39,4,-39,-48,-39
-82,-312,-229,197,73,-270,53,39,0,-29,-53,-43
-87,-317,-229,202,70,-273,53,34,0,-34,-58,-48
-87,-317,-229,202,70,-273,58,34,-4,-39,-63,-53
-87,-317,-229,202,70,-273,58,34,-9,-39,-68,-58
-87,-317,-229,202,70,-273,48,34,-9,-48,-68,-58
-87,-317,-229,202,70,-273,48,34,-9,-53,-68,-58
-87,-326,-239,207,75,-283,53,34,-9,-53,-68,-58
-87,-326,-239,207,75,-283,53,39,-4,-53,-68,-58
-92,-322,-229,207,68,-275,53,39,-14,-53,-78,-53
-92,-322,-229,207,68,-275,48,34,-14,-53,-78,-53
-92,-322,-229,207,68,-275,48,34,-14,-53,-78,-53
-92,-326,-234,209,70,-280,53,34,-19,-53,-78,-53
-97,-317,-219,207,61,-268,53,34,-19,-63,-78,-53
-97,-317,-219,207,61,-268,53,34,-19,-63,-78,-58
-92,-317,-224,204,65,-270,53,34,-24,-63,-82,-58
-92,-322,-229,207,68,-275,53,34,-24,-63,-82,-58
-92,-312,-219,202,63,-265,63,34,-19,-58,-82,-58
-92,-312,-219,202,63,-265,63,34,-19,-58,-82,-58
-92,-307,-214,200,61,-261,63,34,-19,-58,-78,-58
-87,-307,-219,197,65,-263,63,39,-19,-58,-78,-53
-87,-317,-229,202,70,-273,63,39,-14,-63,-87,-63
-92,-317,-224,204,65,-270,63,39,-14,-63,-82,-63
-92,-317,-224,204,65,-270,63,39,-14,-63,-82,-63
-92,-322,-229,207,68,-275,63,39,-14,-63,-82,-63
-82,-312,-229,197,73,-270,63,39,-14,-53,-82,-53
-82,-326,-244,204,80,-285,63,39,-24,-53,-73,-53
-82,-326,-244,204,80,-285,68,39,-14,-53,-78,-58
-92,-312,-219,202,63,-265,63,34,-19,-63,-73,-58
-97,-322,-224,209,63,-273,73,43,-29,-78,-87,-73
-97,-346,-248,222,75,-297,87,63,-43,-92,-112,-102
-107,-375,-268,241,80,-322,117,107,-53,-117,-136,-126
-126,-409,-283,268,78,-346,156,141,-68,-146,-180,-165
-126,-434,-307,280,90,-370,200,175,-68,-165,-209,-204
-136,-448,-312,292,87,-380,214,200,-39,-146,-200,-204
-126,-439,-312,283,92,-375,229,224,14,-97,-165,-161
-102,-439,-336,270,117,-387,219,248,87,-24,-97,-107
-53,-405,-351,229,148,-378,185,239,175,87,9,-29
24,-302,-326,139,175,-314,97,190,283,234,170,122
117,-122,-239,2,178,-180,-34,97,400,434,395,341
234,68,-165,-151,200,-48,-200,-24,531,658,653,595
351,224,-126,-287,239,48,-351,-112,653,873,907,854
463,351,-112,-407,287,119,-492,-209,683,1029,1122,1073
575,434,-141,-505,358,146,-614,-336,600,1098,1259,1254
697,478,-219,-588,458,129,-741,-444,473,1141,1405,1424
834,531,-302,-683,568,114,-854,-517,380,1190,1561,1615
976,595,-380,-785,678,107,-936,-575,263,1200,1678,1766
1083,649,-434,-866,758,107,-1019,-658,122,1171,1727,1849
1146,697,-448,-922,797,124,-1102,-766,-63,1083,1683,1839
1156,727,-429,-941,793,148,-1171,-893,-331,814,1454,1673
1098,658,-439,-878,768,109,-1180,-1019,-717,361,995,1293
971,497,-473,-734,722,12,-1117,-1137,-1107,-175,458,819
800,248,-551,-524,675,-151,-1000,-1180,-1415,-639,-24,370
658,4,-653,-331,656,-324,-849,-1137,-1644,-1000,-419,-19
546,-151,-697,-197,622,-424,-756,-1107,-1790,-1254,-722,-317
409,-253,-663,-78,536,-458,-668,-1093,-1839,-1410,-927,-541
297,-351,-649,26,473,-500,-561,-1019,-1800,-1444,-1039,-683
248,-405,-653,78,451,-529,-488,-907,-1659,-1342,-1005,-702
214,-429,-644,107,429,-536,-419,-795,-1473,-1190,-927,-658
161,-419,-580,129,370,-500,-361,-688,-1254,-1034,-819,-595
92,-351,-444,129,268,-397,-336,-600,-1019,-863,-683,-497
0,-263,-263,131,131,-263,-297,-517,-785,-683,-531,-395
-63,-224,-161,143,48,-192,-239,-414,-605,-531,-424,-317
-82,-209,-126,146,21,-168,-180,-322,-478,-434,-356,-278
-92,-209,-117,151,12,-163,-141,-258,-375,-346,-297,-229
-92,-200,-107,146,7,-153,-102,-200,-283,-258,-239,-185
-82,-209,-126,146,21,-168,-63,-136,-209,-200,-200,-156
-63,-239,-175,151,56,-207,-34,-82,-161,-151,-170,-126
-63,-278,-214,170,75,-246,4,-43,-131,-136,-151,-112
-68,-297,-229,183,80,-263,29,-9,-107,-126,-146,-112
-73,-292,-219,183,73,-256,39,0,-82,-117,-131,-112
-78,-307,-229,192,75,-268,43,9,-58,-107,-126,-107
-87,-317,-229,202,70,-273,58,19,-39,-102,-122,-112
-97,-317,-219,207,61,-268,63,29,-34,-82,-117,-102
-102,-312,-209,207,53,-261,58,34,-34,-73,-107,-92
-102,-312,-209,207,53,-261,58,34,-34,-73,-107,-92
-97,-307,-209,202,56,-258,58,34,-34,-68,-112,-97
-97,-307,-209,202,56,-258,58,39,-34,-68,-112,-97
-92,-317,-224,204,65,-270,63,48,-29,-78,-102,-107
-92,-322,-229,207,68,-275,63,48,-19,-78,-97,-107
-92,-322,-229,207,68,-275,63,53,-4,-73,-92,-102
-97,-312,-214,204,58,-263,63,53,4,-58,-92,-92
-107,-307,-200,207,46,-253,63,53,-4,-58,-97,-92
-107,-307,-200,207,46,-253,68,53,-4,-58,-97,-92
-102,-312,-209,207,53,-261,68,58,-4,-58,-97,-92
-102,-312,-209,207,53,-261,68,63,-4,-58,-97,-92
-102,-302,-200,202,48,-251,73,63,4,-53,-82,-82
-102,-307,-204,204,51,-256,73,63,4,-53,-82,-82
-102,-307,-204,204,51,-256,73,68,9,-48,-82,-82
-102,-312,-209,207,53,-261,73,68,14,-48,-78,-82
-102,-302,-200,202,48,-251,73,58,9,-48,-87,-92
-97,-297,-200,197,51,-248,73,58,14,-43,-87,-87
-97,-297,-200,197,51,-248,73,63,14,-43,-87,-82
-97,-287,-190,192,46,-239,73,63,14,-43,-87,-82
-97,-297,-200,197,51,-248,73,68,24,-39,-87,-87
-97,-302,-204,200,53,-253,73,68,29,-39,-87,-87
-97,-302,-204,200,53,-253,73,73,29,-39,-87,-87
-97,-302,-204,200,53,-253,73,78,29,-39,-82,-87
-97,-292,-195,195,48,-244,73,78,34,-39,-68,-73
-97,-292,-195,195,48,-244,73,78,34,-34,-68,-73
-97,-292,-195,195,48,-244,73,78,39,-34,-73,-73
-97,-292,-195,195,48,-244,78,82,39,-34,-73,-73
-87,-292,-204,190,58,-248,73,82,39,-39,-78,-78
-87,-292,-204,190,58,-248,73,82,43,-39,-73,-73
-87,-292,-204,190,58,-248,73,82,43,-34,-73,-73
-87,-283,-195,185,53,-239,73,82,48,-34,-73,-73
-87,-292,-204,190,58,-248,73,82,39,-24,-63,-73
-87,-287,-200,187,56,-244,73,82,48,-24,-58,-73
-87,-287,-200,187,56,-244,73,82,48,-19,-58,-73
-87,-287,-200,187,56,-244,73,82,48,-14,-58,-68
-97,-278,-180,187,41,-229,73,92,53,-4,-53,-68
-97,-278,-180,187,41,-229,73,97,58,0,-48,-68
-97,-278,-180,187,41,-229,73,97,68,0,-48,-63
-97,-278,-180,187,41,-229,73,102,73,0,-48,-63
-97,-278,-180,187,41,-229,73,97,73,0,-48,-63
-97,-278,-180,187,41,-229,73,102,73,4,-43,-63
-92,-278,-185,185,46,-231,73,107,78,4,-43,-63
-92,-278,-185,185,46,-231,73,107,82,4,-43,-63
-82,-287,-204,185,61,-246,82,102,87,0,-39,-68
-82,-278,-195,180,56,-236,82,102,87,9,-39,-68
-82,-278,-195,180,56,-236,82,107,92,9,-39,-63
-82,-283,-200,183,58,-241,82,107,97,9,-34,-63
-82,-283,-200,183,58,-241,87,117,102,14,-34,-53
-78,-278,-200,178,61,-239,87,122,107,19,-24,-48
-78,-273,-195,175,58,-234,87,126,112,24,-24,-48
-78,-273,-195,175,58,-234,87,131,117,24,-24,-43
-87,-263,-175,175,43,-219,87,136,126,34,-24,-43
-87,-263,-175,175,43,-219,87,141,126,39,-14,-43
-82,-263,-180,173,48,-222,92,146,136,43,-14,-34
-82,-263,-180,173,48,-222,92,151,141,43,-14,-34
-78,-273,-195,175,58,-234,92,156,146,53,-4,-34
-78,-263,-185,170,53,-224,92,161,151,63,0,-29
-78,-263,-185,170,53,-224,97,170,161,78,0,-29
-73,-258,-185,165,56,-222,97,175,170,92,4,-24
-68,-253,-185,161,58,-219,97,180,180,92,9,-19
-68,-253,-185,161,58,-219,97,195,190,97,14,-14
-58,-253,-195,156,68,-224,97,200,195,107,24,-9
-58,-248,-190,153,65,-219,102,204,204,112,29,-4
-58,-239,-180,148,61,-209,102,219,224,117,43,0
-58,-239,-180,148,61,-209,102,229,234,117,48,4
-53,-234,-180,143,63,-207,102,239,248,131,58,9
-53,-229,-175,141,61,-202,102,248,258,141,68,14
-58,-224,-165,141,53,-195,117,268,273,165,73,24
-53,-219,-165,136,56,-192,117,278,292,185,82,34
-53,-214,-161,134,53,-187,117,283,307,195,87,39
-43,-209,-165,126,61,-187,117,297,322,204,97,48
-29,-195,-165,112,68,-180,117,307,331,219,107,43
-24,-185,-161,104,68,-173,122,326,346,229,117,53
-24,-185,-161,104,68,-173,122,336,361,239,126,63
-19,-170,-151,95,65,-161,117,341,375,258,141,73
-14,-161,-146,87,65,-153,117,356,390,263,146,92
-9,-156,-146,82,68,-151,122,366,405,278,156,102
0,-151,-151,75,75,-151,122,375,419,292,170,112
9,-141,-151,65,80,-146,122,385,434,302,180,122
4,-141,-146,68,75,-143,117,400,448,326,200,131
9,-136,-146,63,78,-141,117,405,458,336,204,141
19,-122,-141,51,80,-131,117,414,468,341,219,151
24,-112,-136,43,80,-124,112,424,488,351,229,156
34,-112,-146,39,90,-129,112,419,492,361,239,165
48,-102,-151,26,100,-126,112,424,497,370,248,175
53,-92,-146,19,100,-119,107,424,507,380,253,185
63,-87,-151,12,107,-119,102,429,512,390,263,195
63,-82,-146,9,104,-114,102,439,512,395,258,195
68,-82,-151,7,109,-117,102,444,522,395,268,200
73,-78,-151,2,112,-114,97,448,522,400,273,204
78,-73,-151,-2,114,-112,97,448,522,405,278,209
82,-63,-146,-9,114,-104,97,448,531,419,283,209
82,-58,-141,-12,112,-100,92,448,536,419,292,214
87,-58,-146,-14,117,-102,87,448,536,424,297,229
92,-53,-146,-19,119,-100,87,448,536,429,307,234
87,-43,-131,-21,109,-87,82,434,531,419,297,234
92,-39,-131,-26,112,-85,78,434,527,414,297,239
92,-34,-126,-29,109,-80,78,424,527,414,297,239
92,-34,-126,-29,109,-80,73,414,527,409,297,239
102,-24,-126,-39,114,-75,58,409,517,405,297,239
97,-24,-122,-36,109,-73,53,395,507,400,297,234
92,-24,-117,-34,104,-70,48,380,497,390,292,234
92,-24,-117,-34,104,-70,48,366,478,385,287,229
92,-34,-126,-29,109,-80,43,346,468,375,273,224
92,-34,-126,-29,109,-80,39,322,444,356,273,224
87,-34,-122,-26,104,-78,34,307,429,336,258,214
82,-34,-117,-24,100,-75,29,292,409,322,244,209
78,-39,-117,-19,97,-78,24,273,390,307,234,204
73,-53,-126,-9,100,-90,24,263,366,292,224,195
68,-58,-126,-4,97,-92,19,244,346,283,219,190
63,-63,-126,0,95,-95,19,229,317,268,209,175
58,-63,-122,2,90,-92,14,209,297,244,204,165
53,-73,-126,9,90,-100,9,195,278,224,185,156
43,-78,-122,17,82,-100,4,170,263,204,170,146
29,-92,-122,31,75,-107,-4,151,244,190,156,136
24,-102,-126,39,75,-114,4,141,224,180,141,112
14,-112,-126,48,70,-119,4,131,204,165,126,97
9,-117,-126,53,68,-122,4,117,190,156,117,87
4,-126,-131,61,68,-129,4,102,175,141,107,82
-14,-126,-112,70,48,-119,-4,97,146,126,92,73
-19,-131,-112,75,46,-122,-4,82,131,117,87,68
-24,-141,-117,82,46,-129,-4,73,117,102,82,63
-24,-146,-122,85,48,-134,-4,68,107,92,73,53
-19,-161,-141,90,61,-151,-4,53,97,68,43,29
-24,-170,-146,97,61,-158,-4,48,82,53,39,19
-34,-180,-146,107,56,-163,0,39,78,48,34,9
-39,-180,-141,109,51,-161,0,34,68,43,24,4
-39,-190,-151,114,56,-170,0,39,48,34,19,14
-39,-195,-156,117,58,-175,0,34,43,24,9,9
-43,-195,-151,119,53,-173,0,29,34,14,9,0
-48,-195,-146,122,48,-170,0,24,24,4,0,-4
-53,-190,-136,122,41,-163,0,14,9,-4,-4,-19
-53,-195,-141,124,43,-168,0,9,9,-4,-9,-29
-53,-195,-141,124,43,-168,0,4,0,-9,-9,-29
-53,-200,-146,126,46,-173,0,4,0,-9,-14,-34
-53,-204,-151,129,48,-178,0,0,4,-9,-14,-29
-58,-204,-146,131,43,-175,4,0,4,-14,-19,-29
-58,-209,-151,134,46,-180,4,-4,0,-19,-19,-29
-58,-209,-151,134,46,-180,4,-4,-4,-24,-24,-34
-68,-219,-151,143,41,-185,4,4,-4,-19,-29,-34
-73,-219,-146,146,36,-183,4,0,-9,-19,-29,-29
-73,-219,-146,146,36,-183,4,-4,-9,-19,-29,-29
-73,-224,-151,148,39,-187,4,-4,-9,-24,-29,-34
-63,-214,-151,139,43,-183,4,-14,-19,-24,-29,-34
-63,-214,-151,139,43,-183,4,-14,-24,-24,-34,-34
-68,-214,-146,141,39,-180,4,-14,-24,-24,-34,-39
-68,-214,-146,141,39,-180,4,-14,-24,-24,-34,-39
-63,-219,-156,141,46,-187,4,-14,-14,-29,-34,-48
-63,-219,-156,141,46,-187,4,-14,-14,-29,-34,-48
-68,-219,-151,143,41,-185,4,-14,-19,-39,-34,-48
-68,-224,-156,146,43,-190,4,-14,-19,-39,-34,-53
-68,-224,-156,146,43,-190,4,-14,-19,-29,-39,-43
-68,-224,-156,146,43,-190,4,-14,-19,-29,-39,-43
-68,-224,-156,146,43,-190,4,-14,-24,-29,-39,-43
-68,-219,-151,143,41,-185,4,-14,-24,-29,-39,-43
-63,-219,-156,141,46,-187,4,-19,-24,-29,-34,-39
-63,-224,-161,143,48,-192,4,-19,-24,-29,-34,-43
-63,-224,-161,143,48,-192,4,-19,-24,-34,-34,-43
-63,-219,-156,141,46,-187,4,-19,-24,-34,-34,-43
-53,-219,-165,136,56,-192,4,-24,-34,-39,-39,-43
-53,-219,-165,136,56,-192,4,-24,-29,-39,-39,-43
-53,-219,-165,136,56,-192,4,-19,-29,-39,-39,-43
-53,-219,-165,136,56,-192,4,-19,-29,-39,-39,-39
-58,-209,-151,134,46,-180,-4,-19,-29,-29,-29,-48
-63,-209,-146,136,41,-178,-4,-19,-24,-29,-34,-48
-68,-209,-141,139,36,-175,-4,-19,-24,-29,-34,-48
-73,-209,-136,141,31,-173,-4,-19,-24,-29,-34,-48
-82,-209,-126,146,21,-168,4,-19,-24,-29,-34,-43
-78,-209,-131,143,26,-170,4,-19,-24,-29,-34,-43
-78,-209,-131,143,26,-170,4,-19,-24,-29,-34,-43
-82,-209,-126,146,21,-168,4,-19,-24,-29,-34,-43
-73,-209,-136,141,31,-173,4,-24,-24,-39,-43,-43
-73,-209,-136,141,31,-173,4,-24,-24,-39,-43,-43
-73,-209,-136,141,31,-173,4,-24,-24,-39,-43,-43
-73,-209,-136,141,31,-173,4,-24,-19,-34,-39,-43
-73,-195,-122,134,24,-158,-4,-24,-19,-34,-43,-48
-73,-190,-117,131,21,-153,-4,-24,-19,-34,-43,-48
-68,-190,-122,129,26,-156,-4,-24,-19,-34,-43,-48
-68,-195,-126,131,29,-161,-4,-24,-14,-34,-43,-48
-68,-195,-126,131,29,-161,-4,-24,-14,-34,-34,-43
-68,-195,-126,131,29,-161,-4,-24,-14,-34,-34,-39
-68,-190,-122,129,26,-156,-9,-24,-9,-29,-34,-39
-68,-185,-117,126,24,-151,-9,-24,-9,-29,-34,-39
-68,-195,-126,131,29,-161,0,-24,-19,-19,-34,-39
-68,-195,-126,131,29,-161,0,-24,-19,-24,-34,-39
-68,-195,-126,131,29,-161,0,-24,-14,-24,-34,-39
-68,-195,-126,131,29,-161,0,-24,-14,-19,-29,-39
-68,-195,-126,131,29,-161,-4,-24,-9,-29,-39,-48
-68,-190,-122,129,26,-156,-4,-24,-9,-29,-34,-43
-68,-180,-112,124,21,-146,-4,-24,-9,-19,-34,-43
-68,-175,-107,122,19,-141,-9,-24,-9,-14,-34,-39
-68,-175,-107,122,19,-141,-9,-24,-19,-14,-24,-39
-68,-175,-107,122,19,-141,-9,-24,-19,-19,-19,-39
-68,-175,-107,122,19,-141,-9,-19,-19,-19,-19,-43
-68,-170,-102,119,17,-136,-9,-14,-19,-19,-24,-43
-78,-180,-102,129,12,-141,-9,-24,-9,-19,-14,-43
-73,-180,-107,126,17,-143,-9,-24,-9,-19,-14,-43
-73,-180,-107,126,17,-143,-9,-24,-9,-19,-14,-43
-73,-180,-107,126,17,-143,-9,-24,-9,-19,-14,-43
-63,-190,-126,126,31,-158,-9,-24,-9,-19,-24,-43
-63,-190,-126,126,31,-158,-9,-24,-9,-19,-24,-43
-63,-190,-126,126,31,-158,-9,-24,-9,-19,-24,-43
-63,-190,-126,126,31,-158,-9,-24,-9,-19,-24,-43
-63,-180,-117,122,26,-148,-4,-24,-9,-24,-24,-43
-63,-180,-117,122,26,-148,-4,-24,-14,-24,-24,-39
-63,-180,-117,122,26,-148,-4,-24,-14,-24,-24,-39
-63,-180,-117,122,26,-148,-4,-24,-14,-24,-24,-39
-73,-190,-117,131,21,-153,-4,-29,-24,-24,-14,-39
-73,-195,-122,134,24,-158,-4,-29,-24,-24,-14,-39
-73,-195,-122,134,24,-158,-4,-34,-24,-24,-14,-39
-73,-190,-117,131,21,-153,-4,-34,-24,-24,-14,-43
-63,-190,-126,126,31,-158,-4,-43,-34,-34,-24,-43
-63,-190,-126,126,31,-158,-4,-43,-39,-34,-24,-48
-63,-190,-126,126,31,-158,-4,-43,-39,-34,-24,-48
-63,-195,-131,129,34,-163,-4,-43,-39,-39,-24,-48
-63,-185,-122,124,29,-153,-14,-53,-29,-29,-34,-43
-63,-180,-117,122,26,-148,-14,-53,-39,-34,-39,-43
-63,-180,-117,122,26,-148,-14,-53,-39,-34,-39,-48
-63,-185,-122,124,29,-153,-14,-53,-39,-34,-39,-48
-73,-190,-117,131,21,-153,-14,-53,-39,-34,-48,-53
-73,-190,-117,131,21,-153,-14,-58,-43,-39,-48,-53
-73,-190,-117,131,21,-153,-14,-58,-43,-39,-48,-53
-73,-185,-112,129,19,-148,-14,-63,-43,-39,-43,-53
-73,-185,-112,129,19,-148,-14,-53,-53,-39,-43,-58
-68,-195,-126,131,29,-161,-4,-53,-53,-39,-34,-48
-68,-195,-126,131,29,-161,-4,-53,-53,-39,-39,-48
-68,-204,-136,136,34,-170,-9,-48,-48,-39,-39,-58
-78,-195,-117,136,19,-156,-19,-58,-58,-48,-39,-58
-78,-195,-117,136,19,-156,-19,-58,-58,-48,-39,-58
-78,-195,-117,136,19,-156,-19,-58,-58,-48,-39,-58
-78,-195,-117,136,19,-156,-19,-58,-58,-48,-39,-58
-68,-204,-136,136,34,-170,-9,-63,-58,-48,-48,-68
-68,-200,-131,134,31,-165,-9,-63,-63,-48,-48,-68
-73,-200,-126,136,26,-163,-9,-68,-63,-48,-48,-68
-73,-200,-126,136,26,-163,-9,-68,-63,-48,-48,-63
-73,-200,-126,136,26,-163,-9,-63,-58,-48,-48,-63
-73,-200,-126,136,26,-163,-9,-63,-58,-48,-48,-63
-73,-200,-126,136,26,-163,-9,-63,-53,-43,-48,-63
-68,-200,-131,134,31,-165,-14,-68,-53,-43,-43,-58
-68,-180,-112,124,21,-146,-29,-78,-53,-43,-43,-48
-78,-175,-97,126,9,-136,-39,-82,-53,-43,-43,-48
-78,-165,-87,122,4,-126,-43,-82,-48,-43,-39,-48
-78,-156,-78,117,0,-117,-43,-82,-43,-39,-34,-48
-78,-161,-82,119,2,-122,-43,-92,-39,-29,-19,-43
-78,-161,-82,119,2,-122,-43,-92,-34,-19,-19,-43
-78,-161,-82,119,2,-122,-39,-87,-34,-19,-19,-43
-78,-156,-78,117,0,-117,-34,-82,-29,-19,-19,-43
-87,-165,-78,126,-4,-122,-34,-73,-19,-14,-19,-39
-87,-161,-73,124,-7,-117,-29,-73,-19,-14,-14,-39
-82,-161,-78,122,-2,-119,-29,-68,-14,-14,-14,-39
-82,-161,-78,122,-2,-119,-29,-63,-9,-9,-14,-39
-73,-146,-73,109,0,-109,-29,-53,-9,-9,-24,-39
-68,-146,-78,107,4,-112,-29,-58,-9,-9,-24,-39
-68,-146,-78,107,4,-112,-34,-58,-9,-9,-24,-39
-68,-141,-73,104,2,-107,-43,-63,-9,-9,-24,-39
-68,-131,-63,100,-2,-97,-53,-87,-24,-14,-14,-29
-68,-131,-63,100,-2,-97,-63,-92,-24,-14,-19,-29
-68,-131,-63,100,-2,-97,-68,-102,-29,-14,-19,-29
-63,-131,-68,97,2,-100,-82,-112,-43,-19,-19,-34
-63,-131,-68,97,2,-100,-97,-122,-43,-29,-34,-43
-58,-126,-68,92,4,-97,-97,-122,-43,-39,-34,-43
-58,-122,-63,90,2,-92,-107,-126,-48,-39,-34,-43
-48,-122,-73,85,12,-97,-112,-131,-48,-34,-34,-43
-43,-122,-78,82,17,-100,-112,-122,-39,-29,-24,-43
-34,-107,-73,70,19,-90,-117,-122,-39,-29,-19,-34
-29,-97,-68,63,19,-82,-122,-122,-39,-19,-14,-29
-19,-97,-78,58,29,-87,-122,-117,-34,-19,-9,-29
-9,-87,-78,48,34,-82,-122,-117,-34,-9,0,-24
-9,-97,-87,53,39,-92,-122,-112,-39,-9,0,-19
-9,-102,-92,56,41,-97,-117,-107,-39,-9,0,-14
-9,-117,-107,63,48,-112,-107,-97,-39,-9,-4,-14
-9,-122,-112,65,51,-117,-87,-97,-48,-9,-4,-14
-9,-131,-122,70,56,-126,-82,-92,-48,-9,0,-14
-14,-141,-126,78,56,-134,-78,-87,-48,-9,0,-14
-19,-151,-131,85,56,-141,-73,-87,-48,-9,-4,-19
-39,-156,-117,97,39,-136,-68,-78,-43,-19,-4,-19
-39,-156,-117,97,39,-136,-63,-78,-48,-24,-4,-19
-48,-161,-112,104,31,-136,-58,-78,-48,-29,-19,-29
-63,-175,-112,119,24,-143,-53,-78,-58,-43,-29,-39
-73,-185,-112,129,19,-148,-43,-87,-78,-53,-48,-58
-78,-195,-117,136,19,-156,-39,-87,-82,-58,-58,-63
-82,-204,-122,143,19,-163,-34,-87,-87,-63,-58,-68
-82,-214,-131,148,24,-173,-34,-82,-87,-63,-63,-73
-87,-214,-126,151,19,-170,-29,-87,-82,-58,-58,-63
-87,-219,-131,153,21,-175,-29,-87,-87,-63,-58,-63
-92,-224,-131,158,19,-178,-29,-87,-92,-68,-58,-68
-92,-224,-131,158,19,-178,-24,-87,-97,-68,-63,-73
-97,-229,-131,163,17,-180,-24,-92,-97,-63,-68,-78
-97,-229,-131,163,17,-180,-19,-92,-102,-68,-73,-82
-97,-229,-131,163,17,-180,-19,-92,-107,-68,-78,-87
-97,-229,-131,163,17,-180,-19,-92,-107,-68,-78,-87
-107,-229,-122,168,7,-175,-19,-102,-117,-82,-78,-87
-107,-239,-131,173,12,-185,-14,-102,-117,-82,-78,-87
-107,-239,-131,173,12,-185,-14,-97,-112,-82,-78,-87
-112,-234,-122,173,4,-178,-14,-97,-112,-82,-78,-82
-102,-234,-131,168,14,-183,-19,-97,-112,-82,-87,-82
-102,-234,-131,168,14,-183,-19,-92,-112,-82,-87,-82
-102,-239,-136,170,17,-187,-14,-87,-117,-82,-87,-82
-107,-239,-131,173,12,-185,-14,-82,-117,-82,-87,-82
-107,-239,-131,173,12,-185,-14,-92,-107,-82,-87,-97
-102,-239,-136,170,17,-187,-14,-92,-112,-82,-92,-97
-102,-244,-141,173,19,-192,-14,-92,-112,-82,-92,-97
-102,-244,-141,173,19,-192,-14,-92,-107,-87,-92,-97
-112,-253,-141,183,14,-197,-4,-82,-117,-87,-92,-97
-112,-248,-136,180,12,-192,-4,-82,-117,-87,-87,-97
-107,-248,-141,178,17,-195,-4,-78,-117,-87,-87,-92
-107,-248,-141,178,17,-195,-4,-78,-112,-82,-87,-92
-102,-239,-136,170,17,-187,-4,-87,-112,-73,-82,-92
-102,-239,-136,170,17,-187,-4,-87,-112,-73,-82,-92
-102,-244,-141,173,19,-192,-4,-87,-112,-73,-82,-92
-102,-244,-141,173,19,-192,-4,-87,-112,-73,-82,-92
-102,-229,-126,165,12,-178,-4,-97,-112,-73,-82,-92
-102,-239,-136,170,17,-187,0,-87,-112,-73,-78,-87
-102,-244,-141,173,19,-192,-4,-82,-107,-82,-82,-87
-107,-244,-136,175,14,-190,4,-82,-117,-97,-97,-92
-117,-258,-141,187,12,-200,19,-63,-122,-112,-112,-112
-126,-297,-170,212,21,-234,48,-29,-131,-126,-136,-146
-136,-331,-195,234,29,-263,97,14,-136,-146,-161,-175
-146,-356,-209,251,31,-283,141,48,-146,-165,-180,-214
-165,-370,-204,268,19,-287,165,73,-126,-156,-190,-224
-165,-370,-204,268,19,-287,170,97,-92,-117,-175,-200
-141,-351,-209,246,34,-280,161,131,-29,-63,-126,-156
-102,-307,-204,204,51,-256,136,141,48,19,-39,-78
-34,-224,-190,129,78,-207,78,122,156,156,102,63
58,-92,-151,17,104,-122,-34,58,283,346,317,263
185,78,-107,-131,146,-14,-180,-53,395,551,556,497
322,234,-87,-278,204,73,-331,-151,488,736,790,736
453,351,-102,-402,278,124,-483,-229,546,893,995,956
595,444,-151,-519,373,146,-624,-346,492,971,1141,1117
717,497,-219,-607,468,139,-761,-463,346,956,1229,1259
873,541,-331,-707,602,104,-893,-566,204,956,1337,1410
1054,595,-458,-824,756,68,-995,-624,78,966,1434,1551
1171,629,-541,-900,856,43,-1068,-688,-53,936,1473,1625
1244,678,-566,-961,905,56,-1132,-795,-219,858,1449,1625
1263,717,-546,-990,905,85,-1210,-951,-448,668,1288,1517
1215,697,-517,-956,866,90,-1239,-1088,-756,302,936,1205
1068,585,-483,-827,775,51,-1185,-1185,-1107,-175,429,741
878,356,-522,-617,700,-82,-1078,-1268,-1405,-619,-63,273
717,102,-614,-409,666,-256,-946,-1263,-1625,-980,-458,-107
566,-63,-629,-251,597,-346,-824,-1234,-1761,-1224,-741,-385
390,-175,-566,-107,478,-370,-727,-1229,-1830,-1381,-946,-590
258,-292,-551,17,405,-422,-629,-1176,-1810,-1424,-1049,-741
209,-366,-575,78,392,-470,-536,-1063,-1698,-1342,-1034,-771
175,-380,-556,102,366,-468,-478,-961,-1542,-1220,-946,-727
122,-370,-492,124,307,-431,-419,-854,-1371,-1093,-868,-673
53,-331,-385,139,219,-358,-366,-756,-1176,-932,-751,-595
-39,-253,-214,146,87,-234,-336,-663,-951,-761,-610,-492
-102,-185,-82,143,-9,-134,-287,-561,-741,-600,-492,-395
-122,-170,-48,146,-36,-109,-239,-458,-575,-473,-395,-326
-122,-161,-39,141,-41,-100,-190,-375,-463,-375,-326,-268
-112,-170,-58,141,-26,-114,-141,-317,-390,-297,-268,-234
-102,-170,-68,136,-17,-119,-102,-253,-317,-229,-219,-195
-82,-170,-87,126,2,-129,-73,-200,-268,-170,-170,-165
-73,-190,-117,131,21,-153,-43,-151,-229,-146,-141,-141
-78,-209,-131,143,26,-170,-29,-117,-204,-146,-146,-141
-92,-224,-131,158,19,-178,-9,-107,-180,-146,-141,-141
-107,-219,-112,163,2,-165,4,-97,-146,-126,-126,-126
-107,-229,-122,168,7,-175,9,-87,-117,-102,-112,-112
-107,-219,-112,163,2,-165,14,-87,-112,-92,-107,-122
-122,-219,-97,170,-12,-158,19,-73,-122,-92,-107,-112
-122,-224,-102,173,-9,-163,19,-73,-122,-92,-107,-112
-117,-224,-107,170,-4,-165,19,-73,-122,-87,-112,-117
-117,-229,-112,173,-2,-170,19,-68,-122,-87,-112,-117
-112,-229,-117,170,2,-173,24,-68,-126,-97,-112,-126
-112,-234,-122,173,4,-178,24,-68,-117,-97,-107,-126
-112,-234,-122,173,4,-178,24,-63,-102,-92,-102,-122
-117,-224,-107,170,-4,-165,24,-63,-92,-78,-102,-112
-126,-229,-102,178,-12,-165,34,-53,-87,-73,-87,-102
-126,-229,-102,178,-12,-165,39,-53,-82,-68,-87,-102
-122,-234,-112,178,-4,-173,39,-48,-78,-63,-87,-102
-122,-234,-112,178,-4,-173,39,-43,-73,-58,-87,-102
-122,-224,-102,173,-9,-163,43,-43,-82,-63,-92,-102
-122,-229,-107,175,-7,-168,43,-43,-82,-63,-92,-102
-122,-229,-107,175,-7,-168,43,-39,-78,-58,-92,-102
-122,-234,-112,178,-4,-173,43,-39,-73,-58,-87,-102
-122,-234,-112,178,-4,-173,43,-29,-68,-48,-78,-92
-117,-229,-112,173,-2,-170,43,-29,-63,-43,-78,-87
-117,-229,-112,173,-2,-170,43,-24,-63,-43,-78,-82
-117,-219,-102,168,-7,-161,43,-24,-63,-43,-78,-82
-107,-219,-112,163,2,-165,43,-29,-63,-48,-87,-97
-107,-224,-117,165,4,-170,43,-29,-58,-48,-87,-97
-107,-224,-117,165,4,-170,43,-24,-58,-48,-87,-97
-107,-224,-117,165,4,-170,43,-19,-58,-48,-82,-97
-107,-224,-117,165,4,-170,43,-19,-53,-48,-78,-92
-107,-224,-117,165,4,-170,43,-19,-53,-43,-78,-92
-107,-224,-117,165,4,-170,43,-19,-48,-43,-82,-92
-107,-224,-117,165,4,-170,48,-14,-48,-43,-82,-92
-107,-224,-117,165,4,-170,53,-14,-48,-39,-78,-97
-107,-224,-117,165,4,-170,53,-14,-43,-39,-73,-92
-107,-224,-117,165,4,-170,53,-14,-43,-34,-73,-92
-107,-214,-107,161,0,-161,53,-14,-39,-34,-73,-92
-107,-224,-117,165,4,-170,53,-4,-48,-34,-73,-92
-107,-219,-112,163,2,-165,53,-4,-39,-34,-68,-92
-107,-219,-112,163,2,-165,53,-4,-39,-29,-68,-92
-107,-219,-112,163,2,-165,53,-4,-39,-24,-68,-87
-97,-209,-112,153,7,-161,53,-4,-39,-14,-53,-78
-97,-209,-112,153,7,-161,53,0,-39,-9,-48,-78
-97,-209,-112,153,7,-161,53,0,-34,-9,-48,-73
-97,-209,-112,153,7,-161,53,4,-34,-9,-48,-73
-107,-209,-102,158,-2,-156,53,0,-24,-19,-58,-73
-107,-209,-102,158,-2,-156,53,4,-24,-14,-53,-73
-102,-209,-107,156,2,-158,53,9,-19,-14,-53,-73
-102,-209,-107,156,2,-158,53,9,-14,-14,-53,-73
-102,-219,-117,161,7,-168,63,24,-9,-9,-48,-68
-102,-209,-107,156,2,-158,63,24,-9,0,-48,-68
-102,-209,-107,156,2,-158,63,29,-4,0,-48,-63
-102,-214,-112,158,4,-163,63,29,0,0,-43,-63
-92,-204,-112,148,9,-158,58,29,-4,14,-43,-63
-87,-200,-112,143,12,-156,58,34,0,19,-34,-58
-87,-195,-107,141,9,-151,58,39,4,24,-34,-58
-87,-195,-107,141,9,-151,58,43,9,24,-34,-53
-87,-185,-97,136,4,-141,58,39,19,29,-34,-63
-87,-185,-97,136,4,-141,58,43,19,29,-24,-63
-82,-185,-102,134,9,-143,63,48,29,29,-24,-53
-82,-185,-102,134,9,-143,63,53,34,24,-24,-53
-78,-185,-107,131,14,-146,63,68,39,29,-24,-53
-78,-175,-97,126,9,-136,63,73,43,34,-19,-48
-78,-175,-97,126,9,-136,68,82,53,43,-19,-48
-73,-170,-97,122,12,-134,68,87,63,53,-14,-43
-68,-165,-97,117,14,-131,68,92,82,73,-4,-29
-68,-165,-97,117,14,-131,68,107,92,78,4,-24
-58,-165,-107,112,24,-136,68,112,97,87,19,-19
-58,-161,-102,109,21,-131,73,117,107,92,29,-14
-68,-151,-82,109,7,-117,82,131,117,107,34,-9
-68,-151,-82,109,7,-117,82,141,126,107,39,-4
-63,-146,-82,104,9,-114,82,151,141,122,48,0
-63,-141,-78,102,7,-109,82,161,151,131,58,4
-48,-136,-87,92,19,-112,78,170,156,136,68,14
-43,-131,-87,87,21,-109,78,180,175,156,73,24
-43,-126,-82,85,19,-104,78,185,190,165,73,29
-34,-122,-87,78,26,-104,78,200,204,175,78,39
-29,-117,-87,73,29,-102,82,209,214,180,97,34
-24,-107,-82,65,29,-95,92,229,229,190,107,43
-24,-107,-82,65,29,-95,97,239,244,200,117,53
-19,-92,-73,56,26,-82,97,244,258,219,131,63
-14,-92,-78,53,31,-85,87,268,273,244,156,78
-9,-87,-78,48,34,-82,92,278,287,258,165,92
0,-82,-82,41,41,-82,92,287,302,273,180,107
9,-73,-82,31,46,-78,92,297,317,283,190,122
4,-63,-68,29,36,-65,87,302,326,283,185,117
9,-58,-68,24,39,-63,87,307,331,287,185,122
19,-43,-63,12,41,-53,87,317,336,287,195,126
24,-34,-58,4,41,-46,82,326,351,292,200,126
39,-34,-73,-2,56,-53,82,341,366,307,219,146
48,-24,-73,-12,61,-48,82,346,370,322,229,156
48,-14,-63,-17,56,-39,78,346,380,336,234,165
53,-9,-63,-21,58,-36,73,351,385,351,244,175
63,4,-58,-34,61,-26,73,341,395,346,239,175
68,4,-63,-36,65,-29,73,346,405,346,248,180
73,9,-63,-41,68,-26,68,351,405,351,253,185
78,14,-63,-46,70,-24,68,351,405,356,258,190
92,14,-78,-53,85,-31,78,361,405,370,258,190
92,19,-73,-56,82,-26,73,361,409,370,263,195
97,19,-78,-58,87,-29,68,361,409,375,263,209
102,24,-78,-63,90,-26,68,361,409,380,268,214
97,24,-73,-61,85,-24,63,356,405,370,268,209
102,29,-73,-65,87,-21,58,356,400,366,268,209
102,34,-68,-68,85,-17,58,346,400,366,268,204
102,34,-68,-68,85,-17,53,336,400,361,268,200
102,24,-78,-63,90,-26,58,341,400,366,268,209
97,24,-73,-61,85,-24,53,326,390,361,268,204
92,24,-68,-58,80,-21,48,312,380,351,263,204
92,24,-68,-58,80,-21,48,297,361,346,258,200
92,34,-58,-63,75,-12,34,278,341,336,253,195
92,34,-58,-63,75,-12,29,253,317,317,253,195
87,34,-53,-61,70,-9,24,239,302,297,239,185
82,34,-48,-58,65,-7,19,224,283,283,224,180
68,39,-29,-53,48,4,24,214,273,278,214,170
63,24,-39,-43,51,-7,24,204,258,263,204,165
58,19,-39,-39,48,-9,19,185,248,253,200,165
53,14,-39,-34,46,-12,19,170,229,239,190,156
58,-4,-63,-26,61,-34,19,156,200,214,175,136
53,-14,-68,-19,61,-41,19,146,180,195,156,126
43,-19,-63,-12,53,-41,19,126,165,175,141,117
29,-34,-63,2,46,-48,14,112,146,161,126,107
24,-34,-58,4,41,-46,4,92,136,151,122,102
14,-43,-58,14,36,-51,4,82,117,136,107,87
9,-48,-58,19,34,-53,4,68,102,126,97,78
4,-58,-63,26,34,-61,4,53,87,112,87,73
-14,-58,-43,36,14,-51,14,48,78,102,82,63
-19,-63,-43,41,12,-53,14,34,63,97,78,58
-24,-73,-48,48,12,-61,14,24,48,87,73,53
-24,-78,-53,51,14,-65,14,19,39,82,63,43
-19,-73,-53,46,17,-63,14,4,19,63,34,29
-24,-82,-58,53,17,-70,14,0,4,43,29,19
-34,-92,-58,63,12,-75,19,-9,0,34,24,9
-39,-92,-53,65,7,-73,19,-14,-9,24,14,4
-48,-107,-58,78,4,-82,29,-9,-29,24,0,-4
-48,-117,-68,82,9,-92,29,-14,-34,14,-9,-9
-53,-122,-68,87,7,-95,29,-19,-43,4,-9,-19
-58,-126,-68,92,4,-97,29,-24,-53,-4,-19,-24
-63,-126,-63,95,0,-95,19,-34,-48,-4,-14,-19
-63,-126,-63,95,0,-95,19,-39,-48,-4,-19,-29
-63,-122,-58,92,-2,-90,19,-43,-58,-9,-19,-29
-63,-122,-58,92,-2,-90,19,-43,-58,-9,-24,-34
-53,-117,-63,85,4,-90,19,-39,-73,-19,-24,-29
-58,-117,-58,87,0,-87,24,-39,-73,-24,-29,-29
-58,-122,-63,90,2,-92,24,-43,-78,-29,-29,-29
-58,-122,-63,90,2,-92,24,-43,-82,-34,-34,-34
-58,-131,-73,95,7,-102,34,-43,-82,-48,-43,-39
-63,-131,-68,97,2,-100,34,-48,-87,-48,-48,-39
-63,-131,-68,97,2,-100,34,-53,-87,-48,-53,-43
-63,-136,-73,100,4,-104,34,-53,-87,-53,-58,-53
-63,-136,-73,100,4,-104,34,-53,-87,-43,-48,-53
-63,-136,-73,100,4,-104,34,-53,-92,-43,-53,-53
-68,-136,-68,102,0,-102,34,-53,-92,-43,-53,-58
-68,-136,-68,102,0,-102,34,-53,-92,-43,-53,-58
-73,-131,-58,102,-7,-95,34,-53,-87,-29,-43,-48
-73,-131,-58,102,-7,-95,34,-53,-82,-29,-43,-48
-78,-131,-53,104,-12,-92,34,-53,-82,-39,-43,-48
-78,-136,-58,107,-9,-97,34,-53,-78,-39,-43,-53
-68,-126,-58,97,-4,-92,43,-43,-78,-39,-48,-53
-68,-126,-58,97,-4,-92,43,-43,-78,-39,-48,-53
-68,-126,-58,97,-4,-92,43,-43,-82,-39,-48,-53
-68,-122,-53,95,-7,-87,43,-43,-82,-39,-48,-53
-73,-122,-48,97,-12,-85,43,-48,-92,-48,-63,-63
-73,-126,-53,100,-9,-90,43,-48,-92,-48,-63,-73
-73,-126,-53,100,-9,-90,43,-48,-92,-53,-63,-78
-73,-122,-48,97,-12,-85,43,-48,-92,-53,-63,-82
-73,-122,-48,97,-12,-85,43,-43,-92,-39,-48,-68
-73,-122,-48,97,-12,-85,43,-43,-87,-39,-48,-63
-73,-122,-48,97,-12,-85,43,-39,-87,-39,-48,-58
-73,-122,-48,97,-12,-85,43,-39,-87,-39,-48,-48
-73,-122,-48,97,-12,-85,53,-39,-87,-29,-39,-58
-73,-122,-48,97,-12,-85,53,-39,-82,-29,-43,-58
-73,-122,-48,97,-12,-85,53,-39,-82,-29,-43,-58
-73,-122,-48,97,-12,-85,53,-39,-82,-29,-43,-58
-82,-131,-48,107,-17,-90,53,-29,-73,-34,-48,-63
-78,-131,-53,104,-12,-92,53,-29,-73,-39,-53,-63
-78,-131,-53,104,-12,-92,53,-29,-73,-43,-58,-63
-82,-131,-48,107,-17,-90,53,-29,-73,-48,-63,-63
-82,-126,-43,104,-19,-85,53,-34,-73,-39,-58,-53
-82,-122,-39,102,-21,-80,53,-34,-73,-39,-53,-53
-82,-117,-34,100,-24,-75,53,-34,-73,-39,-48,-53
-82,-112,-29,97,-26,-70,53,-34,-68,-34,-39,-53
-73,-107,-34,90,-19,-70,53,-24,-68,-24,-34,-39
-73,-102,-29,87,-21,-65,53,-24,-68,-24,-34,-39
-68,-102,-34,85,-17,-68,53,-24,-68,-24,-34,-39
-68,-107,-39,87,-14,-73,53,-24,-63,-24,-34,-39
-68,-112,-43,90,-12,-78,53,-24,-63,-34,-43,-48
-68,-117,-48,92,-9,-82,53,-24,-63,-34,-43,-48
-68,-117,-48,92,-9,-82,48,-24,-58,-29,-43,-53
-68,-117,-48,92,-9,-82,48,-24,-58,-29,-43,-58
-68,-107,-39,87,-14,-73,48,-24,-68,-19,-34,-48
-68,-107,-39,87,-14,-73,48,-24,-68,-24,-34,-48
-68,-107,-39,87,-14,-73,48,-24,-63,-24,-34,-48
-68,-107,-39,87,-14,-73,48,-24,-63,-19,-29,-48
-68,-102,-34,85,-17,-68,53,-24,-48,-19,-29,-39
-68,-102,-34,85,-17,-68,53,-24,-48,-19,-24,-34
-68,-97,-29,82,-19,-63,53,-24,-48,-9,-24,-34
-68,-97,-29,82,-19,-63,48,-24,-48,-4,-24,-29
-68,-97,-29,82,-19,-63,58,-24,-58,-9,-34,-39
-68,-97,-29,82,-19,-63,58,-24,-58,-19,-29,-39
-68,-97,-29,82,-19,-63,58,-19,-58,-24,-29,-43
-68,-92,-24,80,-21,-58,58,-14,-58,-29,-34,-43
-68,-102,-34,85,-17,-68,58,-14,-58,-19,-34,-43
-63,-102,-39,82,-12,-70,58,-14,-58,-19,-34,-43
-63,-102,-39,82,-12,-70,58,-14,-58,-19,-34,-43
-63,-102,-39,82,-12,-70,58,-14,-58,-19,-34,-43
-73,-92,-19,82,-26,-56,58,-24,-58,-19,-34,-43
-73,-92,-19,82,-26,-56,58,-24,-58,-19,-34,-43
-73,-92,-19,82,-26,-56,58,-24,-58,-19,-34,-43
-73,-92,-19,82,-26,-56,58,-24,-58,-19,-34,-43
-73,-92,-19,82,-26,-56,63,-24,-58,-24,-43,-43
-73,-92,-19,82,-26,-56,63,-24,-63,-24,-43,-39
-73,-92,-19,82,-26,-56,63,-24,-63,-24,-43,-39
-73,-92,-19,82,-26,-56,63,-24,-63,-24,-43,-39
-63,-92,-29,78,-17,-61,53,-29,-73,-14,-34,-39
-63,-97,-34,80,-14,-65,53,-29,-73,-14,-34,-39
-63,-97,-34,80,-14,-65,53,-34,-73,-14,-34,-39
-63,-92,-29,78,-17,-61,53,-34,-73,-14,-34,-43
-73,-92,-19,82,-26,-56,63,-24,-73,-19,-39,-53
-73,-92,-19,82,-26,-56,63,-24,-78,-24,-43,-58
-73,-92,-19,82,-26,-56,63,-24,-78,-29,-48,-58
-73,-97,-24,85,-24,-61,63,-24,-78,-39,-53,-58
-73,-107,-34,90,-19,-70,73,-14,-87,-39,-53,-53
-82,-112,-29,97,-26,-70,73,-14,-87,-43,-58,-53
-68,-107,-39,87,-14,-73,68,-19,-87,-58,-68,-58
-68,-97,-29,82,-19,-63,58,-29,-97,-48,-68,-58
-68,-97,-29,82,-19,-63,58,-29,-97,-48,-68,-58
-68,-97,-29,82,-19,-63,58,-29,-97,-48,-68,-58
-68,-97,-29,82,-19,-63,58,-29,-97,-48,-68,-58
-78,-97,-19,87,-29,-58,68,-24,-87,-39,-58,-58
-78,-92,-14,85,-31,-53,68,-24,-92,-39,-58,-58
-82,-92,-9,87,-36,-51,68,-29,-92,-39,-58,-58
-82,-92,-9,87,-36,-51,68,-29,-92,-39,-58,-53
-73,-92,-19,82,-26,-56,68,-34,-87,-39,-48,-53
-73,-92,-19,82,-26,-56,68,-34,-87,-39,-48,-53
-73,-92,-19,82,-26,-56,68,-34,-82,-34,-48,-53
-68,-92,-24,80,-21,-58,63,-39,-82,-34,-43,-48
-68,-82,-14,75,-26,-48,58,-39,-92,-34,-48,-58
-78,-78,0,78,-39,-39,48,-43,-92,-34,-53,-58
-78,-68,9,73,-43,-29,43,-43,-87,-34,-53,-58
-78,-58,19,68,-48,-19,43,-43,-82,-29,-53,-58
-78,-63,14,70,-46,-24,53,-48,-78,-39,-48,-53
-78,-63,14,70,-46,-24,53,-43,-73,-29,-48,-53
-78,-63,14,70,-46,-24,58,-34,-73,-29,-48,-53
-78,-58,19,68,-48,-19,63,-24,-68,-29,-48,-53
-78,-58,19,68,-48,-19,63,-24,-58,-14,-39,-39
-78,-53,24,65,-51,-14,68,-24,-58,-14,-34,-39
-73,-53,19,63,-46,-17,68,-19,-53,-14,-34,-39
-73,-53,19,63,-46,-17,68,-14,-48,-9,-34,-39
-82,-39,43,61,-63,2,78,-24,-48,0,-29,-34
-78,-39,39,58,-58,0,78,-29,-48,0,-24,-29
-78,-39,39,58,-58,0,73,-29,-48,0,-19,-24
-78,-34,43,56,-61,4,63,-34,-48,0,-14,-19
-68,-43,24,56,-46,-9,43,-48,-53,-9,-19,-24
-68,-43,24,56,-46,-9,34,-53,-53,-14,-29,-29
-68,-43,24,56,-46,-9,29,-63,-58,-19,-34,-34
-63,-43,19,53,-41,-12,14,-73,-73,-29,-39,-43
-63,-34,29,48,-46,-2,19,-63,-63,-24,-34,-39
-58,-29,29,43,-43,0,19,-63,-63,-29,-34,-34
-58,-24,34,41,-46,4,9,-68,-68,-24,-34,-29
-48,-24,24,36,-36,0,4,-73,-68,-14,-34,-24
-43,-9,34,26,-39,12,-4,-82,-68,-19,-24,-24
-34,9,43,12,-39,26,-9,-82,-68,-19,-19,-14
-29,24,53,2,-41,39,-14,-82,-68,-9,-14,-9
-19,29,48,-4,-34,39,-14,-78,-63,-9,-9,-9
-19,19,39,0,-29,29,4,-68,-53,-9,-19,-9
-19,9,29,4,-24,19,4,-63,-58,-9,-19,-9
-19,4,24,7,-21,14,9,-58,-58,-9,-19,-9
-19,-9,9,14,-14,0,19,-48,-58,-9,-24,-14
-19,-4,14,12,-17,4,39,-39,-58,0,-24,-14
-19,-14,4,17,-12,-4,43,-34,-58,0,-19,-14
-24,-24,0,24,-12,-12,48,-29,-58,0,-19,-14
-29,-34,-4,31,-12,-19,53,-29,-58,0,-24,-19
-48,-39,9,43,-29,-14,58,-29,-73,-4,-34,-24
-48,-39,9,43,-29,-14,63,-29,-78,-14,-34,-29
-58,-43,14,51,-36,-14,68,-29,-78,-24,-48,-43
-73,-58,14,65,-43,-21,73,-29,-87,-43,-58,-58
-82,-78,4,80,-43,-36,82,-39,-97,-43,-68,-58
-87,-87,0,87,-43,-43,87,-39,-102,-48,-78,-63
-92,-97,-4,95,-43,-51,92,-39,-107,-53,-78,-68
-92,-107,-14,100,-39,-61,92,-34,-107,-53,-82,-73
-97,-117,-19,107,-39,-68,107,-19,-112,-48,-78,-73
-97,-122,-24,109,-36,-73,107,-19,-117,-53,-78,-73
-102,-126,-24,114,-39,-75,107,-19,-122,-58,-78,-78
-102,-126,-24,114,-39,-75,112,-19,-126,-58,-82,-82
-107,-131,-24,119,-41,-78,102,-34,-117,-73,-87,-78
-107,-131,-24,119,-41,-78,107,-34,-122,-78,-92,-82
-107,-131,-24,119,-41,-78,107,-34,-126,-78,-97,-87
-107,-131,-24,119,-41,-78,107,-34,-126,-78,-97,-87
-97,-122,-24,109,-36,-73,107,-34,-136,-82,-107,-87
-97,-131,-34,114,-31,-82,112,-34,-136,-82,-107,-87
-97,-131,-34,114,-31,-82,112,-29,-131,-82,-107,-87
-102,-126,-24,114,-39,-75,112,-29,-131,-82,-107,-82
-92,-126,-34,109,-29,-80,117,-24,-131,-92,-107,-87
-92,-126,-34,109,-29,-80,117,-24,-131,-92,-107,-92
-92,-131,-39,112,-26,-85,122,-24,-136,-92,-107,-97
-97,-131,-34,114,-31,-82,122,-24,-136,-92,-107,-102
-107,-141,-34,124,-36,-87,122,-14,-126,-82,-107,-97
-102,-141,-39,122,-31,-90,122,-14,-131,-82,-112,-97
-102,-146,-43,124,-29,-95,122,-14,-131,-82,-112,-97
-102,-146,-43,124,-29,-95,122,-14,-126,-87,-112,-97
-102,-136,-34,119,-34,-85,122,-14,-136,-78,-112,-97
-102,-131,-29,117,-36,-80,122,-14,-136,-78,-107,-97
-97,-131,-34,114,-31,-82,122,-9,-136,-78,-107,-92
-97,-131,-34,114,-31,-82,122,-9,-131,-73,-107,-92
-102,-122,-19,112,-41,-70,122,-19,-131,-82,-112,-92
-102,-122,-19,112,-41,-70,122,-19,-131,-82,-112,-92
-102,-126,-24,114,-39,-75,122,-19,-131,-82,-112,-92
-102,-126,-24,114,-39,-75,122,-19,-131,-82,-112,-92
-92,-122,-29,107,-31,-75,122,-19,-122,-82,-112,-92
-92,-112,-19,102,-36,-65,117,-19,-122,-73,-107,-97
-102,-117,-14,109,-43,-65,131,-14,-117,-82,-112,-107
-117,-126,-9,122,-53,-68,131,-4,-126,-97,-136,-122
-126,-141,-14,134,-56,-78,156,4,-131,-102,-151,-131
-117,-170,-53,143,-31,-112,185,48,-131,-117,-156,-146
-136,-204,-68,170,-34,-136,224,92,-126,-126,-170,-165
-156,-239,-82,197,-36,-161,258,126,-126,-126,-190,-185
-156,-253,-97,204,-29,-175,273,151,-117,-117,-190,-195
-146,-244,-97,195,-24,-170,278,175,-73,-87,-165,-180
-131,-224,-92,178,-19,-158,278,209,0,-14,-107,-136
-102,-190,-87,146,-7,-139,263,219,68,68,-29,-58
-24,-126,-102,75,39,-114,214,209,185,204,122,82
87,24,-63,-56,75,-19,92,136,322,405,336,312
204,214,9,-209,97,112,-63,14,434,619,595,575
322,361,39,-341,141,200,-204,-92,517,805,849,834
434,468,34,-451,200,251,-336,-161,575,971,1063,1063
556,551,-4,-553,280,273,-468,-258,551,1039,1210,1234
697,614,-82,-656,390,265,-605,-385,405,1034,1307,1376
844,668,-175,-756,509,246,-727,-488,234,1024,1405,1527
1005,722,-283,-863,644,219,-839,-556,107,1034,1522,1688
1132,805,-326,-968,729,239,-912,-619,4,1044,1610,1810
1195,883,-312,-1039,753,285,-976,-707,-122,995,1615,1849
1176,932,-244,-1054,710,344,-1044,-863,-351,795,1454,1712
1107,902,-204,-1005,656,348,-1073,-990,-697,409,1054,1371
961,751,-209,-856,585,270,-1000,-1068,-1029,-68,527,868
761,502,-258,-631,509,122,-863,-1083,-1307,-512,14,361
610,258,-351,-434,480,-46,-722,-1068,-1527,-883,-429,-78
478,102,-375,-290,427,-136,-629,-1049,-1693,-1156,-751,-395
312,-39,-351,-136,331,-195,-512,-1015,-1751,-1322,-956,-610
190,-175,-366,-7,278,-270,-385,-932,-1722,-1366,-1058,-751
131,-268,-400,68,265,-334,-283,-819,-1629,-1293,-1034,-771
87,-302,-390,107,239,-346,-224,-727,-1493,-1180,-956,-727
34,-312,-346,139,190,-329,-175,-649,-1351,-1083,-897,-683
-24,-283,-258,153,117,-270,-141,-580,-1176,-951,-819,-634
-87,-204,-117,146,14,-161,-122,-507,-980,-800,-707,-561
-131,-146,-14,139,-58,-80,-92,-434,-800,-658,-590,-473
-141,-122,19,131,-80,-51,-63,-361,-653,-541,-492,-405
-131,-92,39,112,-85,-26,-34,-287,-531,-424,-395,-326
-122,-53,68,87,-95,7,-4,-229,-419,-317,-307,-244
-112,-53,58,82,-85,2,34,-165,-346,-248,-239,-195
-102,-53,48,78,-75,-2,73,-122,-297,-209,-209,-175
-92,-73,19,82,-56,-26,102,-63,-258,-185,-209,-170
-78,-82,-4,80,-36,-43,117,-29,-214,-165,-204,-170
-73,-97,-24,85,-24,-61,136,-9,-180,-146,-190,-161
-97,-122,-24,109,-36,-73,151,9,-156,-136,-185,-165
-107,-131,-24,119,-41,-78,156,19,-136,-131,-190,-161
-107,-122,-14,114,-46,-68,161,19,-122,-102,-165,-141
-112,-126,-14,119,-48,-70,156,24,-122,-97,-151,-126
-112,-126,-14,119,-48,-70,156,24,-122,-92,-146,-122
-107,-122,-14,114,-46,-68,156,24,-122,-82,-146,-122
-107,-122,-14,114,-46,-68,156,29,-122,-78,-141,-117
-102,-117,-14,109,-43,-65,151,29,-117,-82,-151,-122
-102,-117,-14,109,-43,-65,151,29,-107,-87,-146,-126
-102,-112,-9,107,-46,-61,151,34,-92,-87,-141,-126
-107,-97,9,102,-58,-43,151,34,-82,-78,-141,-122
-117,-102,14,109,-65,-43,161,34,-82,-68,-131,-117
-117,-102,14,109,-65,-43,165,34,-82,-68,-126,-112
-112,-107,4,109,-58,-51,165,39,-82,-68,-122,-107
-112,-107,4,109,-58,-51,165,43,-82,-68,-117,-102
-102,-97,4,100,-53,-46,170,53,-82,-73,-126,-107
-102,-102,0,102,-51,-51,170,53,-82,-73,-131,-112
-102,-102,0,102,-51,-51,170,58,-78,-68,-136,-117
-102,-107,-4,104,-48,-56,170,58,-73,-68,-136,-122
-102,-117,-14,109,-43,-65,170,58,-58,-68,-131,-112
-97,-112,-14,104,-41,-63,170,58,-53,-63,-126,-107
-97,-112,-14,104,-41,-63,170,63,-53,-63,-122,-102
-97,-102,-4,100,-46,-53,170,63,-53,-63,-117,-102
-107,-112,-4,109,-51,-58,170,68,-53,-58,-126,-117
-107,-117,-9,112,-48,-63,170,68,-48,-58,-126,-117
-107,-117,-9,112,-48,-63,170,73,-48,-58,-126,-117
-107,-117,-9,112,-48,-63,170,78,-48,-58,-122,-117
-97,-107,-9,102,-43,-58,170,78,-43,-58,-107,-102
-97,-107,-9,102,-43,-58,170,78,-43,-53,-107,-102
-97,-107,-9,102,-43,-58,170,78,-39,-53,-112,-102
-97,-107,-9,102,-43,-58,175,82,-39,-53,-112,-102
-107,-97,9,102,-58,-43,170,73,-48,-48,-107,-97
-107,-97,9,102,-58,-43,170,73,-43,-48,-102,-92
-107,-97,9,102,-58,-43,170,73,-43,-43,-102,-92
-107,-87,19,97,-63,-34,170,73,-39,-43,-102,-92
-97,-97,0,97,-48,-48,170,73,-39,-53,-107,-102
-97,-92,4,95,-51,-43,170,73,-29,-53,-107,-102
-97,-92,4,95,-51,-43,170,73,-29,-48,-112,-102
-97,-92,4,95,-51,-43,170,73,-29,-43,-117,-97
-87,-82,4,85,-46,-39,170,73,-29,-39,-97,-87
-87,-82,4,85,-46,-39,170,78,-29,-29,-87,-78
-87,-82,4,85,-46,-39,170,78,-24,-24,-82,-63
-87,-82,4,85,-46,-39,170,82,-24,-19,-78,-53
-97,-73,24,85,-61,-24,170,87,-14,-29,-82,-68
-97,-73,24,85,-61,-24,170,92,-14,-24,-82,-73
-92,-73,19,82,-56,-26,170,97,-9,-24,-87,-78
-92,-73,19,82,-56,-26,170,97,-4,-24,-92,-82
-92,-78,14,85,-53,-31,170,102,-9,-24,-92,-87
-92,-73,19,82,-56,-26,170,102,-9,-19,-97,-87
-92,-78,14,85,-53,-31,170,107,-4,-24,-102,-82
-92,-87,4,90,-48,-41,170,107,0,-29,-102,-82
-92,-78,14,85,-53,-31,165,107,4,-14,-92,-73
-87,-73,14,80,-51,-29,165,112,9,-9,-82,-68
-87,-68,19,78,-53,-24,165,117,14,-4,-82,-68
-87,-68,19,78,-53,-24,165,122,19,-4,-82,-63
-78,-53,24,65,-51,-14,165,122,19,4,-73,-63
-78,-48,29,63,-53,-9,165,122,19,9,-63,-63
-73,-43,29,58,-51,-7,170,122,29,14,-63,-53
-73,-39,34,56,-53,-2,170,122,34,14,-63,-53
-68,-48,19,58,-43,-14,170,136,48,29,-53,-53
-68,-39,29,53,-48,-4,170,141,53,34,-48,-48
-68,-39,29,53,-48,-4,175,151,63,43,-48,-48
-63,-34,29,48,-46,-2,175,156,73,53,-43,-43
-48,-19,29,34,-39,4,175,151,73,53,-39,-39
-48,-19,29,34,-39,4,175,165,82,58,-34,-34
-39,-19,19,29,-29,0,175,170,87,68,-24,-29
-39,-14,24,26,-31,4,180,175,97,73,-19,-24
-39,-4,34,21,-36,14,180,190,117,87,-14,-19
-39,-4,34,21,-36,14,180,200,126,87,-9,-14
-34,0,34,17,-34,17,180,209,141,102,0,-9
-34,4,39,14,-36,21,180,219,151,112,9,-4
-19,9,29,4,-24,19,185,229,156,126,24,4
-14,14,29,0,-21,21,185,239,175,146,34,14
-14,19,34,-2,-24,26,185,244,190,156,39,19
-4,24,29,-9,-17,26,185,258,204,165,48,29
9,39,29,-24,-9,34,175,258,214,180,68,39
14,48,34,-31,-9,41,180,278,229,190,78,53
14,48,34,-31,-9,41,180,287,244,200,87,68
19,63,43,-41,-12,53,175,292,258,219,102,82
24,73,48,-48,-12,61,175,297,273,224,107,82
29,78,48,-53,-9,63,180,307,287,239,117,92
39,82,43,-61,-2,63,180,317,302,253,131,102
48,92,43,-70,2,68,180,326,317,263,141,112
43,107,63,-75,-9,85,175,331,322,287,161,131
48,117,68,-82,-9,92,175,336,331,297,165,141
58,136,78,-97,-9,107,175,346,341,302,180,151
63,151,87,-107,-12,119,170,356,361,312,190,156
68,141,73,-104,-2,107,170,361,375,322,200,165
78,151,73,-114,2,112,170,366,380,331,209,175
78,161,82,-119,-2,122,165,366,390,341,214,185
82,165,82,-124,0,124,161,370,395,351,224,195
92,170,78,-131,7,124,161,380,395,356,219,195
97,170,73,-134,12,122,161,385,405,356,229,200
102,175,73,-139,14,124,156,390,405,361,234,204
107,180,73,-143,17,126,156,390,405,366,239,209
122,195,73,-158,24,134,156,380,414,380,248,209
122,204,82,-163,19,143,151,380,419,380,253,214
126,209,82,-168,21,146,146,380,419,385,253,229
131,219,87,-175,21,153,146,380,419,390,258,234
126,209,82,-168,21,146,151,385,414,380,258,234
131,214,82,-173,24,148,146,385,409,375,258,239
131,219,87,-175,21,153,146,375,409,375,258,239
131,219,87,-175,21,153,141,366,409,370,258,239
131,229,97,-180,17,163,126,370,400,356,253,229
126,229,102,-178,12,165,122,356,390,351,248,224
122,229,107,-175,7,168,117,341,380,341,239,224
122,229,107,-175,7,168,117,326,361,336,229,219
112,219,107,-165,2,163,122,317,361,326,204,204
112,219,107,-165,2,163,117,292,336,307,204,204
107,219,112,-163,-2,165,112,278,322,287,190,195
102,219,117,-161,-7,168,107,263,302,273,175,190
87,214,126,-151,-19,170,112,248,297,268,165,175
82,200,117,-141,-17,158,112,244,278,253,156,165
78,195,117,-136,-19,156,107,229,263,244,151,161
73,190,117,-131,-21,153,107,219,239,229,141,146
78,190,112,-134,-17,151,107,214,229,214,136,146
73,180,107,-126,-17,143,107,204,209,195,117,136
63,175,112,-119,-24,143,107,185,195,175,102,126
48,161,112,-104,-31,136,102,170,175,161,87,117
34,141,107,-87,-36,124,112,165,165,141,73,92
24,131,107,-78,-41,119,112,161,146,126,58,78
19,126,107,-73,-43,117,112,151,131,117,48,68
14,117,102,-65,-43,109,112,141,117,102,39,63
14,117,102,-65,-43,109,112,136,97,78,14,43
9,112,102,-61,-46,107,112,122,82,68,9,39
4,102,97,-53,-46,100,112,112,68,53,4,34
4,97,92,-51,-43,95,112,107,58,43,-4,24
0,82,82,-41,-41,82,122,112,48,39,-24,9
-4,73,78,-34,-41,75,122,107,34,24,-29,0
-14,63,78,-24,-46,70,126,97,29,19,-34,-9
-19,63,82,-21,-51,73,126,92,19,14,-43,-14
-19,63,82,-21,-51,73,117,87,9,4,-48,-14
-19,58,78,-19,-48,68,117,82,4,-4,-58,-19
-24,58,82,-17,-53,70,117,78,-4,-14,-58,-29
-29,58,87,-14,-58,73,117,73,-14,-24,-68,-34
-34,53,87,-9,-61,70,126,73,-19,-34,-82,-39
-34,48,82,-7,-58,65,126,68,-19,-34,-87,-48
-34,48,82,-7,-58,65,126,63,-29,-39,-87,-48
-34,43,78,-4,-56,61,126,63,-29,-39,-92,-53
-34,39,73,-2,-53,56,126,68,-24,-39,-82,-48
-39,39,78,0,-58,58,131,68,-24,-43,-87,-48
-39,34,73,2,-56,53,131,63,-29,-48,-87,-48
-39,34,73,2,-56,53,131,63,-34,-53,-92,-53
-39,43,82,-2,-61,63,131,63,-43,-58,-107,-63
-43,43,87,0,-65,65,131,58,-48,-58,-107,-58
-43,43,87,0,-65,65,131,53,-48,-58,-107,-58
-43,39,82,2,-63,61,131,53,-48,-63,-107,-63
-53,39,92,7,-73,65,131,53,-48,-63,-107,-63
-53,39,92,7,-73,65,131,53,-53,-63,-112,-63
-58,39,97,9,-78,68,131,53,-53,-63,-112,-68
-58,39,97,9,-78,68,131,53,-53,-63,-112,-68
-43,34,78,4,-61,56,131,53,-53,-58,-112,-78
-43,34,78,4,-61,56,131,53,-53,-58,-112,-78
-48,34,82,7,-65,58,131,53,-58,-68,-112,-78
-48,29,78,9,-63,53,131,53,-58,-68,-112,-82
-58,19,78,19,-68,48,141,63,-58,-78,-126,-82
-58,19,78,19,-68,48,141,63,-58,-78,-126,-82
-58,19,78,19,-68,48,141,63,-63,-78,-126,-82
-58,24,82,17,-70,53,141,63,-63,-78,-126,-82
-53,34,87,9,-70,61,141,58,-63,-87,-131,-78
-53,29,82,12,-68,56,141,58,-63,-87,-131,-82
-53,29,82,12,-68,56,141,58,-63,-92,-131,-82
-53,34,87,9,-70,61,141,58,-63,-92,-131,-82
-53,39,92,7,-73,65,131,53,-63,-78,-126,-92
-53,43,97,4,-75,70,131,53,-58,-78,-126,-92
-53,48,102,2,-78,75,131,58,-58,-78,-126,-92
-53,53,107,0,-80,80,131,58,-58,-78,-126,-87
-53,43,97,4,-75,70,141,58,-58,-87,-126,-87
-53,43,97,4,-75,70,141,58,-53,-87,-131,-87
-53,43,97,4,-75,70,141,58,-53,-87,-131,-87
-53,43,97,4,-75,70,141,58,-53,-87,-131,-87
-53,48,102,2,-78,75,131,58,-53,-87,-131,-92
-48,53,102,-2,-75,78,131,58,-53,-87,-131,-92
-48,58,107,-4,-78,82,131,58,-53,-87,-131,-92
-53,63,117,-4,-85,90,131,58,-53,-87,-131,-92
-53,63,117,-4,-85,90,141,73,-43,-78,-131,-82
-53,63,117,-4,-85,90,141,73,-43,-78,-131,-82
-53,63,117,-4,-85,90,141,73,-43,-78,-131,-82
-53,63,117,-4,-85,90,141,73,-39,-73,-126,-82
-53,68,122,-7,-87,95,131,73,-29,-63,-112,-68
-53,73,126,-9,-90,100,131,73,-29,-63,-112,-68
-48,73,122,-12,-85,97,131,73,-29,-63,-112,-68
-48,68,117,-9,-82,92,131,73,-24,-63,-112,-68
-39,68,107,-14,-73,87,131,73,-24,-53,-102,-63
-39,68,107,-14,-73,87,131,73,-24,-53,-102,-58
-39,73,112,-17,-75,92,126,73,-19,-48,-102,-58
-39,78,117,-19,-78,97,126,73,-19,-48,-102,-58
-29,87,117,-29,-73,102,126,73,-9,-48,-102,-58
-29,87,117,-29,-73,102,126,73,-9,-53,-102,-58
-29,87,117,-29,-73,102,126,73,-4,-53,-102,-58
-29,87,117,-29,-73,102,126,73,-4,-48,-97,-58
-39,78,117,-19,-78,97,141,82,0,-48,-97,-58
-39,73,112,-17,-75,92,141,82,0,-48,-92,-53
-39,73,112,-17,-75,92,141,82,0,-39,-92,-53
-39,68,107,-14,-73,87,136,82,0,-34,-92,-48
-39,68,107,-14,-73,87,126,82,0,-34,-82,-39
-39,68,107,-14,-73,87,126,82,0,-39,-78,-39
-39,68,107,-14,-73,87,126,87,0,-39,-78,-43
-39,73,112,-17,-75,92,126,92,0,-39,-82,-43
-29,82,112,-26,-70,97,126,82,0,-39,-92,-43
-24,82,107,-29,-65,95,126,82,0,-39,-92,-43
-24,82,107,-29,-65,95,126,82,0,-39,-92,-43
-24,82,107,-29,-65,95,126,82,0,-39,-92,-43
-24,73,97,-24,-61,85,126,92,0,-39,-82,-43
-24,73,97,-24,-61,85,126,92,0,-39,-82,-43
-24,73,97,-24,-61,85,126,92,0,-39,-82,-43
-24,73,97,-24,-61,85,126,92,0,-39,-82,-43
-34,82,117,-24,-75,100,112,82,0,-34,-82,-43
-34,82,117,-24,-75,100,112,82,-4,-34,-82,-39
-34,82,117,-24,-75,100,112,82,-4,-34,-82,-39
-34,82,117,-24,-75,100,112,82,-4,-34,-82,-39
-34,82,117,-24,-75,100,122,87,-4,-39,-92,-48
-34,78,112,-21,-73,95,122,87,-4,-43,-92,-48
-34,78,112,-21,-73,95,122,82,-4,-48,-92,-48
-34,82,117,-24,-75,100,122,82,-4,-53,-92,-53
-34,63,97,-14,-65,80,122,82,-4,-43,-92,-43
-39,58,97,-9,-68,78,126,87,-9,-48,-87,-48
-39,63,102,-12,-70,82,117,78,-19,-48,-97,-58
-39,68,107,-14,-73,87,117,78,-19,-48,-97,-58
-39,73,112,-17,-75,92,117,78,-19,-48,-97,-58
-39,78,117,-19,-78,97,117,78,-19,-48,-97,-58
-39,78,117,-19,-78,97,117,73,-19,-58,-107,-58
-39,82,122,-21,-80,102,117,73,-24,-58,-107,-58
-43,82,126,-19,-85,104,117,68,-24,-58,-107,-58
-43,82,126,-19,-85,104,117,68,-24,-58,-107,-53
-43,82,126,-19,-85,104,107,73,-19,-58,-107,-53
-43,82,126,-19,-85,104,107,73,-19,-58,-107,-53
-43,82,126,-19,-85,104,107,73,-14,-53,-107,-53
-39,82,122,-21,-80,102,102,68,-14,-53,-102,-48
-39,92,131,-26,-85,112,107,68,-4,-53,-92,-48
-48,97,146,-24,-97,122,97,63,-4,-53,-92,-48
-48,107,156,-29,-102,131,92,63,0,-53,-87,-48
-48,117,165,-34,-107,141,92,63,4,-48,-82,-48
-48,122,170,-36,-109,146,92,53,0,-48,-87,-43
-48,122,170,-36,-109,146,92,53,4,-39,-87,-43
-48,122,170,-36,-109,146,97,58,4,-39,-87,-43
-48,126,175,-39,-112,151,102,63,9,-39,-87,-43
-58,117,175,-29,-117,146,102,63,19,-34,-87,-39
-58,122,180,-31,-119,151,107,63,19,-34,-82,-39
-53,122,175,-34,-114,148,107,68,24,-34,-82,-39
-53,122,175,-34,-114,148,107,73,29,-29,-82,-39
-53,126,180,-36,-117,153,107,63,19,-39,-73,-29
-48,126,175,-39,-112,151,107,58,19,-39,-73,-29
-48,126,175,-39,-112,151,102,58,19,-39,-73,-29
-48,131,180,-41,-114,156,92,53,19,-39,-73,-29
-39,131,170,-46,-104,151,73,39,14,-43,-82,-39
-39,131,170,-46,-104,151,63,34,14,-43,-87,-39
-39,131,170,-46,-104,151,58,24,9,-43,-87,-39
-34,131,165,-48,-100,148,43,14,-4,-48,-87,-43
-24,146,170,-61,-97,158,29,4,-4,-48,-92,-43
-19,156,175,-68,-97,165,29,4,-4,-58,-92,-43
-19,165,185,-73,-102,175,19,0,-9,-58,-92,-43
-9,170,180,-80,-95,175,14,-4,-9,-53,-92,-43
-14,170,185,-78,-100,178,19,0,9,-39,-73,-24
-4,185,190,-90,-97,187,19,4,9,-39,-68,-14
0,195,195,-97,-97,195,19,9,9,-29,-63,-9
9,195,185,-102,-87,190,24,19,14,-29,-58,-9
0,195,195,-97,-97,195,43,19,4,-29,-68,-9
0,185,185,-92,-92,185,43,24,0,-29,-68,-9
0,180,180,-90,-90,180,48,29,0,-29,-68,-9
0,165,165,-82,-82,165,58,39,0,-29,-73,-14
-9,161,170,-75,-90,165,68,48,0,-39,-73,-24
-9,151,161,-70,-85,156,73,53,0,-39,-68,-24
-14,141,156,-63,-85,148,78,58,0,-39,-68,-24
-19,131,151,-56,-85,141,82,58,0,-39,-73,-29
-29,117,146,-43,-87,131,87,48,-14,-48,-78,-39
-29,117,146,-43,-87,131,92,48,-19,-53,-82,-39
-39,112,151,-36,-95,131,97,48,-19,-58,-102,-48
-53,97,151,-21,-102,124,102,48,-29,-73,-117,-58
-63,78,141,-7,-102,109,112,48,-39,-73,-117,-68
-68,68,136,0,-102,102,117,48,-43,-78,-126,-73
-73,58,131,7,-102,95,122,48,-48,-82,-126,-78
-73,48,122,12,-97,85,122,53,-48,-82,-131,-82
-68,43,112,12,-90,78,117,58,-53,-87,-136,-82
-68,43,112,12,-90,78,117,58,-58,-92,-136,-82
-73,43,117,14,-95,80,117,58,-63,-97,-136,-87
-73,48,122,12,-97,85,122,58,-68,-97,-141,-92
-78,39,117,19,-97,78,122,53,-58,-112,-146,-97
-78,34,112,21,-95,73,126,53,-63,-117,-151,-102
-78,29,107,24,-92,68,126,53,-68,-117,-156,-107
-78,24,102,26,-90,63,126,53,-68,-117,-156,-107
-78,29,107,24,-92,68,126,53,-78,-122,-156,-107
-78,24,102,26,-90,63,131,53,-78,-122,-156,-107
-78,29,107,24,-92,68,131,58,-73,-122,-156,-107
-82,39,122,21,-102,80,131,58,-73,-122,-156,-102
-82,39,122,21,-102,80,126,53,-73,-122,-156,-112
-82,39,122,21,-102,80,126,53,-73,-122,-156,-112
-82,34,117,24,-100,75,131,53,-78,-122,-156,-112
-87,34,122,26,-104,78,131,53,-78,-122,-156,-112
-87,24,112,31,-100,68,131,53,-78,-122,-156,-117
-82,24,107,29,-95,65,131,53,-82,-122,-161,-117
-82,19,102,31,-92,61,131,53,-82,-122,-161,-117
-82,19,102,31,-92,61,131,53,-78,-126,-161,-117
-82,19,102,31,-92,61,131,53,-78,-126,-170,-117
-82,24,107,29,-95,65,131,53,-78,-126,-165,-117
-78,24,102,26,-90,63,131,58,-78,-126,-165,-112
-78,24,102,26,-90,63,131,58,-73,-122,-165,-112
-82,14,97,34,-90,56,131,58,-73,-131,-161,-112
-82,14,97,34,-90,56,131,58,-73,-131,-161,-112
-82,9,92,36,-87,51,131,58,-73,-131,-161,-112
-82,9,92,36,-87,51,131,58,-73,-131,-161,-112
-73,34,107,19,-90,70,122,48,-82,-131,-161,-122
-82,34,117,24,-100,75,126,48,-82,-141,-165,-126
-92,19,112,36,-102,65,141,63,-78,-141,-170,-126
-107,0,107,53,-107,53,161,82,-78,-146,-175,-131
-107,-14,92,61,-100,39,185,112,-82,-151,-200,-141
-117,-53,63,85,-90,4,224,156,-92,-185,-234,-185
-126,-107,19,117,-73,-43,263,180,-107,-214,-278,-234
-136,-122,14,129,-75,-53,287,214,-97,-214,-287,-253
-136,-126,9,131,-73,-58,302,248,-48,-185,-268,-244
-117,-117,0,117,-58,-58,307,273,14,-117,-204,-190
-92,-87,4,90,-48,-41,287,287,97,-14,-107,-87
-43,4,48,19,-46,26,224,248,214,136,48,48
53,156,102,-104,-24,129,97,161,331,322,258,248
165,336,170,-251,-2,253,-53,48,458,531,512,497
292,507,214,-400,39,361,-200,-43,570,746,761,761
419,634,214,-527,102,424,-341,-122,663,941,995,1000
531,722,190,-627,170,456,-473,-219,644,1049,1171,1180
644,775,131,-710,256,453,-585,-326,512,1068,1298,1351
785,839,53,-812,366,446,-712,-414,375,1102,1434,1532
932,912,-19,-922,475,446,-824,-488,263,1141,1561,1712
1044,976,-68,-1010,556,453,-897,-546,156,1141,1649,1825
1122,1039,-82,-1080,602,478,-961,-629,14,1083,1659,1859
1137,1078,-58,-1107,597,509,-1024,-766,-219,897,1507,1751
1098,1049,-48,-1073,573,500,-1054,-893,-556,502,1132,1429
990,902,-87,-946,539,407,-1015,-980,-922,0,605,961
814,663,-151,-739,483,256,-902,-1029,-1244,-468,78,478
653,414,-239,-534,446,87,-766,-1024,-1483,-854,-356,48
522,239,-283,-380,402,-21,-653,-980,-1654,-1146,-673,-273
390,112,-278,-251,334,-82,-561,-961,-1751,-1342,-927,-512
263,-9,-273,-126,268,-141,-453,-917,-1751,-1439,-1083,-697
190,-97,-287,-46,239,-192,-356,-814,-1654,-1395,-1098,-771
161,-131,-292,-14,226,-212,-292,-722,-1512,-1273,-1024,-741
107,-146,-253,19,180,-200,-253,-649,-1366,-1161,-956,-707
43,-107,-151,31,97,-129,-214,-570,-1176,-1015,-858,-634
-34,-39,-4,36,-14,-21,-180,-492,-951,-844,-722,-546
-97,9,107,43,-102,58,-141,-409,-746,-683,-600,-453
-122,39,161,41,-141,100,-102,-317,-575,-561,-512,-385
-112,73,185,19,-148,129,-63,-244,-458,-453,-434,-317
-102,82,185,9,-143,134,-34,-190,-375,-375,-366,-268
-92,82,175,4,-134,129,4,-131,-312,-317,-317,-234
-82,82,165,0,-124,124,43,-78,-248,-268,-278,-204
-73,73,146,0,-109,109,73,-34,-200,-219,-248,-175
-73,34,107,19,-90,70,102,4,-161,-204,-229,-180
-78,4,82,36,-80,43,117,29,-136,-185,-224,-170
-102,9,112,46,-107,61,126,48,-102,-165,-209,-161
-97,14,112,41,-104,63,131,58,-78,-156,-195,-146
-107,4,112,51,-109,58,136,58,-68,-141,-180,-141
-107,-4,102,56,-104,48,141,58,-73,-141,-185,-141
-102,0,102,51,-102,51,146,53,-73,-151,-180,-136
-102,0,102,51,-102,51,146,53,-73,-151,-185,-141
-97,4,102,46,-100,53,146,53,-73,-146,-195,-151
-97,4,102,46,-100,53,146,58,-73,-146,-200,-156
-102,-4,97,53,-100,46,151,78,-68,-136,-190,-146
-102,-9,92,56,-97,41,151,78,-58,-136,-185,-146
-102,-9,92,56,-97,41,151,82,-43,-131,-180,-141
-107,0,107,53,-107,53,151,82,-34,-117,-180,-131
-117,4,122,56,-119,63,151,82,-34,-117,-165,-131
-117,4,122,56,-119,63,156,82,-34,-117,-165,-131
-112,0,112,56,-112,56,156,87,-34,-117,-165,-131
-112,0,112,56,-112,56,156,92,-34,-117,-165,-131
-112,0,112,56,-112,56,151,92,-34,-122,-170,-131
-112,-4,107,58,-109,51,151,92,-34,-122,-170,-131
-112,-4,107,58,-109,51,151,97,-29,-117,-170,-131
-112,-9,102,61,-107,46,151,97,-24,-117,-165,-131
-112,0,112,56,-112,56,151,97,-19,-107,-165,-131
-107,4,112,51,-109,58,151,97,-14,-102,-165,-126
-107,4,112,51,-109,58,151,102,-14,-102,-165,-122
-107,14,122,46,-114,68,151,102,-14,-102,-165,-122
-107,4,112,51,-109,58,161,97,-14,-97,-165,-126
-107,0,107,53,-107,53,161,97,-9,-97,-165,-126
-107,0,107,53,-107,53,161,102,-9,-97,-165,-126
-107,0,107,53,-107,53,161,107,-9,-97,-161,-126
-107,9,117,48,-112,63,151,107,4,-97,-146,-122
-107,9,117,48,-112,63,151,107,4,-92,-146,-122
-107,9,117,48,-112,63,151,107,9,-92,-151,-122
-107,9,117,48,-112,63,156,112,9,-92,-151,-122
-97,9,107,43,-102,58,161,112,0,-87,-156,-126
-97,9,107,43,-102,58,161,112,4,-87,-151,-122
-97,9,107,43,-102,58,161,112,4,-82,-151,-122
-97,19,117,39,-107,68,161,112,9,-82,-151,-122
-107,9,117,48,-112,63,161,112,9,-82,-141,-112
-107,14,122,46,-114,68,161,112,19,-82,-136,-112
-107,14,122,46,-114,68,161,112,19,-78,-136,-112
-107,14,122,46,-114,68,161,112,19,-73,-136,-107
-97,14,112,41,-104,63,161,122,19,-73,-131,-107
-97,14,112,41,-104,63,161,126,19,-68,-126,-107
-97,14,112,41,-104,63,161,126,24,-68,-126,-102
-97,14,112,41,-104,63,161,131,24,-68,-126,-102
-97,14,112,41,-104,63,161,126,34,-68,-126,-102
-97,14,112,41,-104,63,161,131,34,-63,-122,-102
-92,14,107,39,-100,61,161,136,39,-63,-122,-102
-92,14,107,39,-100,61,161,136,43,-63,-122,-102
-92,14,107,39,-100,61,151,131,58,-58,-117,-97
-92,24,117,34,-104,70,151,131,58,-48,-117,-97
-92,24,117,34,-104,70,151,136,63,-48,-117,-92
-92,19,112,36,-102,65,151,136,68,-48,-112,-92
-102,9,112,46,-107,61,156,146,63,-43,-122,-92
-97,14,112,41,-104,63,156,151,68,-39,-112,-87
-97,19,117,39,-107,68,156,156,73,-34,-112,-87
-97,19,117,39,-107,68,156,161,78,-34,-112,-82
-97,19,117,39,-107,68,156,165,97,-24,-102,-82
-97,19,117,39,-107,68,156,170,97,-19,-92,-82
-92,19,112,36,-102,65,161,175,107,-14,-92,-73
-92,19,112,36,-102,65,161,180,112,-14,-92,-73
-78,29,107,24,-92,68,161,175,117,0,-82,-73
-78,39,117,19,-97,78,161,180,122,4,-78,-68
-78,39,117,19,-97,78,165,190,131,14,-78,-68
-73,43,117,14,-95,80,165,195,141,24,-73,-63
-73,39,112,17,-92,75,165,209,151,34,-58,-48
-78,39,117,19,-97,78,165,224,161,39,-53,-43
-73,39,112,17,-92,75,165,229,165,48,-43,-39
-78,43,122,17,-100,82,170,234,175,53,-39,-34
-68,53,122,7,-95,87,170,239,185,58,-43,-39
-68,53,122,7,-95,87,170,248,195,58,-39,-34
-63,58,122,2,-92,90,170,258,209,73,-29,-29
-63,63,126,0,-95,95,170,268,219,82,-19,-24
-58,58,117,0,-87,87,185,287,244,107,-4,-14
-53,63,117,-4,-85,90,185,297,263,126,4,-4
-53,68,122,-7,-87,95,185,302,278,136,9,0
-43,73,117,-14,-80,95,185,317,292,146,19,9
-29,78,107,-24,-68,92,185,326,302,170,39,24
-24,87,112,-31,-68,100,190,346,317,180,48,34
-24,87,112,-31,-68,100,190,356,331,190,58,43
-19,102,122,-41,-70,112,185,361,346,209,73,53
-4,102,107,-48,-56,104,185,366,370,214,87,63
0,107,107,-53,-53,107,190,375,385,229,97,73
9,112,102,-61,-46,107,190,385,400,244,112,82
19,122,102,-70,-41,112,190,395,414,253,122,92
19,141,122,-80,-51,131,175,400,419,273,131,112
19,146,126,-82,-53,136,175,405,429,287,136,122
24,161,136,-92,-56,148,175,414,439,297,151,131
24,170,146,-97,-61,158,170,424,458,312,161,136
29,180,151,-104,-61,165,161,429,463,312,180,136
39,190,151,-114,-56,170,161,434,468,322,190,146
39,200,161,-119,-61,180,156,434,478,331,195,156
43,204,161,-124,-58,183,151,439,483,341,204,165
43,204,161,-124,-58,183,161,429,492,356,200,175
48,200,151,-124,-51,175,161,434,502,356,209,180
53,200,146,-126,-46,173,156,439,502,361,214,185
58,200,141,-129,-41,170,156,439,502,366,219,190
63,200,136,-131,-36,168,156,429,502,366,219,190
63,204,141,-134,-39,173,151,429,507,361,224,195
68,204,136,-136,-34,170,146,429,507,361,224,209
73,209,136,-141,-31,173,146,429,507,361,229,214
78,219,141,-148,-31,180,131,414,492,361,229,204
82,224,141,-153,-29,183,126,414,488,356,229,209
82,229,146,-156,-31,187,126,405,488,356,229,209
82,229,146,-156,-31,187,122,395,488,351,229,209
82,219,136,-151,-26,178,126,390,473,336,219,209
78,219,141,-148,-31,180,122,375,458,331,219,204
73,219,146,-146,-36,183,117,361,444,322,214,204
73,219,146,-146,-36,183,117,346,419,317,209,200
63,209,146,-136,-41,178,112,336,409,297,185,185
63,209,146,-136,-41,178,107,312,385,278,185,185
58,209,151,-134,-46,180,102,297,370,258,170,175
53,209,156,-131,-51,183,97,283,351,244,156,170
48,195,146,-122,-48,170,92,263,336,229,146,156
43,180,136,-112,-46,158,92,253,317,214,136,146
39,175,136,-107,-48,156,87,234,302,204,131,141
34,170,136,-102,-51,153,87,219,278,190,122,126
19,170,151,-95,-65,161,87,204,248,175,107,117
14,161,146,-87,-65,153,87,195,229,156,87,107
4,156,151,-80,-73,153,87,175,214,136,73,97
-9,141,151,-65,-80,146,82,161,195,122,58,87
-14,131,146,-58,-80,139,82,151,185,102,43,63
-24,122,146,-48,-85,134,82,141,165,87,29,48
-29,117,146,-43,-87,131,82,126,151,78,19,39
-34,107,141,-36,-87,124,82,112,136,63,9,34
-34,97,131,-31,-82,114,82,117,117,48,-14,14
-39,92,131,-26,-85,112,82,102,102,39,-19,9
-43,82,126,-19,-85,104,82,92,87,24,-24,4
-43,78,122,-17,-82,100,82,87,78,14,-34,-4
-48,82,131,-17,-90,107,73,82,78,9,-43,-14
-53,73,126,-9,-90,100,73,78,63,-4,-48,-19
-63,63,126,0,-95,95,78,68,58,-9,-53,-24
-68,63,131,2,-100,97,78,63,48,-14,-63,-24
-68,53,122,7,-95,87,78,58,29,-24,-68,-34
-68,48,117,9,-92,82,78,53,24,-34,-78,-39
-73,48,122,12,-97,85,78,48,14,-43,-78,-48
-78,48,126,14,-102,87,78,43,4,-53,-87,-53
-82,34,117,24,-100,75,87,43,9,-63,-92,-58
-82,29,112,26,-97,70,87,39,9,-63,-97,-68
-82,29,112,26,-97,70,87,34,0,-68,-97,-68
-82,24,107,29,-95,65,87,34,0,-68,-102,-73
-92,24,117,34,-104,70,78,29,-4,-68,-112,-68
-97,29,126,34,-112,78,82,29,-4,-73,-117,-68
-97,29,126,34,-112,78,82,24,-9,-78,-117,-68
-97,34,131,31,-114,82,82,24,-14,-82,-122,-73
-87,34,122,26,-104,78,82,24,-14,-78,-117,-82
-92,34,126,29,-109,80,82,19,-19,-78,-117,-78
-92,34,126,29,-109,80,82,14,-19,-78,-117,-78
-92,29,122,31,-107,75,82,14,-19,-82,-117,-82
-92,19,112,36,-102,65,82,24,-19,-92,-117,-82
-92,19,112,36,-102,65,82,24,-24,-92,-122,-82
-97,19,117,39,-107,68,82,24,-24,-92,-122,-87
-97,19,117,39,-107,68,82,24,-24,-92,-122,-87
-92,24,117,34,-104,70,73,14,-24,-78,-131,-87
-92,24,117,34,-104,70,73,14,-24,-78,-131,-87
-97,24,122,36,-109,73,73,14,-29,-87,-131,-87
-97,19,117,39,-107,68,73,14,-29,-87,-131,-92
-97,19,117,39,-107,68,73,4,-39,-97,-136,-92
-97,19,117,39,-107,68,73,4,-39,-97,-136,-92
-97,19,117,39,-107,68,73,4,-43,-97,-136,-92
-97,24,122,36,-109,73,73,4,-43,-97,-136,-92
-102,34,136,34,-119,85,73,0,-34,-97,-131,-87
-102,29,131,36,-117,80,73,0,-34,-97,-131,-92
-102,29,131,36,-117,80,73,0,-34,-102,-131,-92
-102,34,136,34,-119,85,73,0,-34,-102,-131,-92
-102,24,126,39,-114,75,73,4,-34,-97,-136,-102
-102,24,126,39,-114,75,73,4,-29,-97,-136,-102
-102,24,126,39,-114,75,73,9,-29,-97,-136,-102
-102,24,126,39,-114,75,73,9,-29,-97,-136,-97
-112,14,126,48,-119,70,73,0,-29,-87,-136,-97
-112,14,126,48,-119,70,73,0,-24,-87,-141,-97
-112,14,126,48,-119,70,73,0,-24,-87,-141,-97
-112,14,126,48,-119,70,73,0,-24,-87,-141,-97
-112,24,136,43,-124,80,73,0,-24,-97,-141,-102
-107,24,131,41,-119,78,73,0,-24,-97,-141,-102
-107,24,131,41,-119,78,73,0,-24,-97,-141,-102
-112,24,136,43,-124,80,73,0,-24,-97,-141,-102
-112,34,146,39,-129,90,73,4,-14,-87,-131,-92
-112,34,146,39,-129,90,73,4,-14,-87,-131,-92
-112,34,146,39,-129,90,73,4,-14,-87,-131,-92
-112,34,146,39,-129,90,73,4,-9,-82,-126,-92
-122,29,151,46,-136,90,73,4,-9,-82,-131,-87
-122,34,156,43,-139,95,73,4,-9,-82,-131,-87
-117,34,151,41,-134,92,73,4,-9,-82,-131,-87
-117,29,146,43,-131,87,73,4,-4,-82,-131,-87
-107,39,146,34,-126,92,73,-4,-4,-82,-131,-92
-107,39,146,34,-126,92,73,-4,-4,-82,-131,-87
-107,43,151,31,-129,97,68,-4,0,-78,-131,-87
-107,48,156,29,-131,102,68,-4,0,-78,-131,-87
-107,48,156,29,-131,102,68,-4,-9,-78,-131,-87
-107,48,156,29,-131,102,68,-4,-9,-82,-131,-87
-107,48,156,29,-131,102,68,-4,-4,-82,-131,-87
-107,48,156,29,-131,102,68,-4,-4,-78,-126,-87
-107,43,151,31,-129,97,73,4,9,-78,-117,-87
-107,43,151,31,-129,97,73,4,9,-78,-112,-82
-107,48,156,29,-131,102,73,4,9,-68,-112,-82
-107,48,156,29,-131,102,68,4,9,-63,-112,-78
-107,48,156,29,-131,102,68,4,9,-63,-112,-78
-107,48,156,29,-131,102,68,4,9,-68,-107,-78
-107,48,156,29,-131,102,68,9,9,-68,-107,-82
-107,53,161,26,-134,107,68,14,9,-68,-112,-82
-117,53,170,31,-143,112,58,4,9,-58,-102,-73
-112,53,165,29,-139,109,58,4,9,-58,-102,-73
-112,53,165,29,-139,109,58,4,9,-58,-102,-73
-112,53,165,29,-139,109,58,4,9,-58,-102,-73
-112,53,165,29,-139,109,68,-4,0,-68,-107,-82
-112,53,165,29,-139,109,68,-4,0,-68,-112,-82
-112,53,165,29,-139,109,68,-4,0,-68,-117,-82
-112,53,165,29,-139,109,68,-4,0,-68,-122,-82
-102,43,146,29,-124,95,63,-4,9,-63,-122,-82
-102,43,146,29,-124,95,63,-4,4,-63,-122,-78
-102,43,146,29,-124,95,63,-4,4,-63,-122,-78
-102,43,146,29,-124,95,63,-4,4,-63,-122,-78
-112,43,156,34,-134,100,53,-9,-4,-73,-122,-78
-112,39,151,36,-131,95,53,-9,-4,-73,-122,-78
-112,39,151,36,-131,95,53,-14,-4,-73,-122,-78
-112,43,156,34,-134,100,53,-14,-4,-73,-122,-82
-112,34,146,39,-129,90,63,-4,-4,-73,-122,-82
-122,34,156,43,-139,95,63,-4,0,-73,-112,-78
-122,53,175,34,-148,114,53,-14,-9,-73,-112,-87
-117,48,165,34,-141,107,58,-19,-9,-78,-117,-87
-117,39,156,39,-136,97,58,-19,-9,-87,-126,-87
-117,39,156,39,-136,97,58,-19,-9,-87,-126,-87
-117,39,156,39,-136,97,58,-19,-9,-87,-126,-87
-117,39,156,39,-136,97,58,-19,-9,-87,-126,-87
-117,29,146,43,-131,87,58,-14,-19,-87,-136,-97
-117,34,151,41,-134,92,58,-14,-24,-87,-136,-97
-122,34,156,43,-139,95,58,-19,-24,-87,-136,-97
-122,34,156,43,-139,95,58,-19,-24,-87,-136,-92
-122,43,165,39,-143,104,48,-24,-29,-97,-136,-102
-122,43,165,39,-143,104,48,-24,-29,-97,-136,-102
-122,43,165,39,-143,104,48,-24,-24,-92,-136,-102
-117,43,161,36,-139,102,43,-29,-24,-92,-131,-97
-107,43,151,31,-129,97,48,-39,-14,-82,-131,-87
-117,48,165,34,-141,107,39,-43,-14,-82,-131,-87
-117,58,175,29,-146,117,34,-43,-9,-82,-126,-87
-117,68,185,24,-151,126,34,-43,-4,-78,-122,-87
-117,82,200,17,-158,141,24,-53,9,-68,-117,-82
-117,82,200,17,-158,141,24,-53,14,-58,-117,-82
-117,82,200,17,-158,141,29,-48,14,-58,-117,-82
-117,87,204,14,-161,146,34,-43,19,-58,-117,-82
-117,78,195,19,-156,136,43,-43,9,-53,-107,-78
-117,82,200,17,-158,141,48,-43,9,-53,-102,-78
-112,82,195,14,-153,139,48,-39,14,-53,-102,-78
-112,82,195,14,-153,139,48,-34,19,-48,-102,-78
-112,87,200,12,-156,143,39,-34,19,-58,-102,-78
-107,87,195,9,-151,141,39,-39,19,-58,-102,-78
-107,87,195,9,-151,141,34,-39,19,-58,-102,-78
-107,92,200,7,-153,146,24,-43,19,-58,-102,-78
-107,92,200,7,-153,146,14,-58,4,-73,-112,-78
-107,92,200,7,-153,146,4,-63,4,-73,-117,-78
-107,92,200,7,-153,146,0,-73,0,-73,-117,-78
-102,92,195,4,-148,143,-14,-82,-14,-78,-117,-82
-102,92,195,4,-148,143,-19,-92,-14,-78,-122,-82
-97,97,195,0,-146,146,-19,-92,-14,-87,-122,-82
-97,102,200,-2,-148,151,-29,-97,-19,-87,-122,-82
-87,102,190,-7,-139,146,-34,-102,-19,-82,-122,-82
-82,122,204,-19,-143,163,-43,-102,-9,-78,-112,-73
-73,136,209,-31,-141,173,-48,-102,-9,-78,-107,-63
-68,146,214,-39,-141,180,-53,-102,-9,-68,-102,-58
-58,146,204,-43,-131,175,-53,-97,-4,-68,-97,-58
-58,156,214,-48,-136,185,-43,-97,-14,-78,-107,-58
-58,146,204,-43,-131,175,-43,-92,-19,-78,-107,-58
-58,141,200,-41,-129,170,-39,-87,-19,-78,-107,-58
-58,126,185,-34,-122,156,-29,-78,-19,-78,-112,-63
-58,112,170,-26,-114,141,-9,-68,-19,-68,-102,-53
-58,102,161,-21,-109,131,-4,-63,-19,-68,-97,-53
-63,92,156,-14,-109,124,0,-58,-19,-68,-97,-53
-68,82,151,-7,-109,117,4,-58,-19,-68,-102,-58
-78,78,156,0,-117,117,9,-48,-14,-58,-102,-63
-78,78,156,0,-117,117,14,-48,-19,-63,-102,-68
-87,73,161,7,-124,117,19,-48,-19,-68,-117,-82
-102,58,161,21,-131,109,24,-48,-29,-82,-126,-97
-112,39,151,36,-131,95,24,-68,-48,-107,-146,-97
-117,29,146,43,-131,87,29,-68,-53,-117,-156,-102
-122,19,141,51,-131,80,34,-68,-58,-126,-156,-107
-122,9,131,56,-126,70,34,-63,-58,-131,-161,-112
-136,9,146,63,-141,78,39,-68,-73,-146,-165,-122
-136,4,141,65,-139,73,39,-68,-78,-151,-165,-122
-141,0,141,70,-141,70,39,-68,-82,-156,-165,-126
-141,0,141,70,-141,70,43,-68,-87,-156,-170,-131
-136,-14,122,75,-129,53,53,-63,-78,-156,-165,-146
-136,-14,122,75,-129,53,58,-63,-82,-156,-170,-151
-136,-14,122,75,-129,53,58,-63,-87,-151,-175,-156
-136,-14,122,75,-129,53,58,-63,-87,-146,-175,-156
-136,-24,112,80,-124,43,58,-63,-87,-141,-165,-146
-136,-34,102,85,-119,34,63,-63,-87,-141,-165,-146
-136,-34,102,85,-119,34,63,-58,-82,-141,-165,-146
-141,-29,112,85,-126,41,63,-58,-82,-141,-165,-141
-131,-19,112,75,-122,46,58,-63,-82,-141,-165,-141
-131,-19,112,75,-122,46,58,-63,-82,-141,-165,-141
-131,-24,107,78,-119,41,63,-63,-87,-141,-165,-141
-136,-24,112,80,-124,43,63,-63,-87,-141,-165,-141
-146,-24,122,85,-134,48,53,-63,-78,-131,-165,-136
-141,-24,117,82,-129,46,53,-63,-82,-131,-170,-136
-141,-29,112,85,-126,41,53,-63,-82,-131,-170,-136
-141,-29,112,85,-126,41,53,-63,-78,-136,-170,-136
-141,-39,102,90,-122,31,63,-63,-87,-136,-170,-136
-141,-34,107,87,-124,36,63,-63,-87,-136,-165,-136
-136,-34,102,85,-119,34,63,-58,-87,-136,-165,-131
-136,-34,102,85,-119,34,63,-58,-82,-131,-165,-131
-141,-34,107,87,-124,36,63,-58,-82,-131,-161,-141
-141,-34,107,87,-124,36,63,-58,-82,-131,-161,-141
-141,-39,102,90,-122,31,63,-58,-82,-131,-161,-141
-141,-39,102,90,-122,31,63,-58,-82,-131,-161,-141
-131,-43,87,87,-109,21,63,-58,-82,-141,-161,-141
-141,-43,97,92,-119,26,58,-58,-82,-131,-165,-146
-151,-48,102,100,-126,26,63,-53,-87,-141,-161,-146
-146,-48,97,97,-122,24,73,-43,-97,-146,-175,-151
-156,-63,92,109,-124,14,87,-34,-102,-170,-190,-170
-165,-92,73,129,-119,-9,117,0,-122,-185,-224,-204
-175,-126,48,151,-112,-39,156,34,-126,-214,-248,-234
-185,-161,24,173,-104,-68,190,68,-126,-234,-278,-273
-185,-175,9,180,-97,-82,214,102,-117,-234,-287,-292
-185,-175,9,180,-97,-82,229,136,-73,-195,-253,-258
-170,-165,4,168,-87,-80,229,161,0,-122,-185,-204
-131,-131,0,131,-65,-65,204,161,78,-19,-97,-117
-53,-48,4,51,-29,-21,126,122,185,117,43,14
39,92,53,-65,-7,73,4,29,322,317,268,214
146,283,136,-214,4,209,-151,-82,463,541,527,478
273,458,185,-366,43,322,-302,-170,595,775,790,746
395,595,200,-495,97,397,-444,-248,673,971,1034,985
497,688,190,-592,153,439,-575,-356,619,1068,1210,1176
610,751,141,-680,234,446,-702,-463,512,1112,1346,1346
756,814,58,-785,348,436,-824,-556,400,1161,1493,1537
897,868,-29,-883,463,419,-917,-614,292,1190,1610,1698
1015,912,-102,-963,558,405,-990,-668,161,1171,1668,1781
1088,961,-126,-1024,607,417,-1054,-766,-4,1083,1644,1790
1098,990,-107,-1044,602,441,-1122,-902,-263,863,1473,1664
1058,961,-97,-1010,578,431,-1151,-1019,-629,439,1063,1332
941,829,-112,-885,527,358,-1117,-1127,-1029,-87,527,868
771,580,-190,-675,480,195,-1000,-1190,-1346,-570,24,400
619,317,-302,-468,461,7,-849,-1166,-1595,-951,-400,-9
507,131,-375,-319,441,-122,-736,-1127,-1771,-1234,-722,-326
370,29,-341,-200,356,-156,-668,-1141,-1859,-1439,-976,-580
248,-87,-336,-80,292,-212,-561,-1088,-1849,-1512,-1117,-761
190,-170,-361,-9,275,-265,-468,-966,-1727,-1439,-1102,-800
146,-195,-341,24,244,-268,-400,-863,-1551,-1298,-1015,-756
102,-175,-278,36,190,-226,-351,-766,-1361,-1151,-917,-692
43,-126,-170,41,107,-148,-317,-668,-1156,-990,-800,-605
-29,-58,-29,43,0,-43,-287,-595,-932,-810,-668,-512
-122,-9,112,65,-117,51,-239,-502,-722,-649,-551,-434
-151,14,165,68,-158,90,-180,-409,-575,-541,-473,-385
-151,24,175,63,-163,100,-141,-346,-463,-473,-405,-336
-151,34,185,58,-168,109,-92,-297,-370,-385,-336,-283
-151,34,185,58,-168,109,-53,-234,-287,-297,-287,-244
-131,24,156,53,-143,90,-24,-180,-248,-258,-258,-224
-112,4,117,53,-114,61,-4,-141,-219,-244,-248,-209
-117,-24,92,70,-104,34,19,-97,-185,-224,-234,-200
-131,-29,102,80,-117,36,39,-78,-151,-204,-229,-200
-146,-43,102,95,-124,29,53,-68,-126,-195,-214,-185
-136,-73,63,104,-100,-4,58,-48,-107,-180,-209,-180
-136,-82,53,109,-95,-14,73,-48,-92,-161,-195,-180
-151,-73,78,112,-114,2,78,-53,-92,-161,-185,-180
-151,-68,82,109,-117,7,78,-53,-92,-161,-185,-180
-146,-58,87,102,-117,14,78,-53,-92,-156,-190,-185
-146,-53,92,100,-119,19,78,-48,-92,-156,-190,-185
-151,-63,87,107,-119,12,82,-29,-87,-156,-200,-185
-151,-68,82,109,-117,7,82,-29,-78,-156,-195,-185
-151,-68,82,109,-117,7,82,-24,-63,-151,-190,-180
-156,-58,97,107,-126,19,82,-24,-53,-136,-190,-170
-156,-58,97,107,-126,19,82,-24,-53,-136,-185,-170
-156,-63,92,109,-124,14,87,-24,-53,-136,-185,-170
-151,-73,78,112,-114,2,87,-19,-53,-136,-185,-170
-151,-78,73,114,-112,-2,87,-14,-53,-136,-185,-170
-151,-68,82,109,-117,7,82,-14,-63,-131,-170,-170
-151,-73,78,112,-114,2,82,-14,-63,-131,-170,-170
-151,-73,78,112,-114,2,82,-9,-58,-126,-170,-170
-151,-78,73,114,-112,-2,82,-9,-53,-126,-165,-170
-151,-78,73,114,-112,-2,82,-9,-39,-117,-165,-170
-146,-73,73,109,-109,0,82,-9,-34,-112,-165,-165
-146,-73,73,109,-109,0,82,-4,-34,-112,-165,-161
-146,-63,82,104,-114,9,82,-4,-34,-112,-165,-161
-146,-73,73,109,-109,0,73,0,-24,-107,-165,-165
-146,-78,68,112,-107,-4,73,0,-19,-107,-165,-165
-146,-78,68,112,-107,-4,73,4,-19,-107,-165,-165
-146,-78,68,112,-107,-4,73,9,-19,-107,-161,-165
-146,-78,68,112,-107,-4,82,9,-24,-107,-156,-161
-146,-78,68,112,-107,-4,82,9,-24,-102,-156,-161
-146,-78,68,112,-107,-4,82,9,-19,-102,-161,-161
-146,-78,68,112,-107,-4,87,14,-19,-102,-161,-161
-136,-78,58,107,-97,-9,82,14,-19,-107,-156,-156
-136,-78,58,107,-97,-9,82,14,-14,-107,-151,-151
-136,-78,58,107,-97,-9,82,14,-14,-102,-151,-151
-136,-68,68,102,-102,0,82,14,-9,-102,-151,-151
-146,-78,68,112,-107,-4,82,14,-9,-92,-141,-151
-146,-73,73,109,-109,0,82,14,0,-92,-136,-151
-146,-73,73,109,-109,0,82,14,0,-87,-136,-151
-146,-73,73,109,-109,0,82,14,0,-82,-136,-146
-136,-73,63,104,-100,-4,82,14,9,-82,-141,-156
-136,-73,63,104,-100,-4,82,19,9,-78,-136,-156
-136,-73,63,104,-100,-4,82,19,14,-78,-136,-151
-136,-73,63,104,-100,-4,82,24,14,-78,-136,-151
-136,-73,63,104,-100,-4,82,29,14,-87,-136,-141
-136,-73,63,104,-100,-4,82,34,14,-82,-131,-141
-131,-73,58,102,-95,-7,82,39,19,-82,-131,-141
-131,-73,58,102,-95,-7,82,39,24,-82,-131,-141
-131,-63,68,97,-100,2,82,43,29,-73,-117,-136
-131,-53,78,92,-104,12,82,43,29,-58,-117,-136
-131,-53,78,92,-104,12,82,48,34,-53,-117,-131
-131,-58,73,95,-102,7,82,48,39,-48,-112,-131
-131,-68,63,100,-97,-2,78,48,43,-43,-112,-141
-126,-63,63,95,-95,0,78,53,48,-39,-102,-136
-126,-58,68,92,-97,4,78,58,53,-34,-102,-136
-126,-58,68,92,-97,4,78,63,58,-34,-102,-131
-136,-58,78,97,-107,9,87,68,78,-34,-102,-122
-136,-58,78,97,-107,9,87,73,78,-29,-92,-122
-131,-58,73,95,-102,7,92,78,87,-24,-92,-112
-131,-58,73,95,-102,7,92,82,92,-24,-92,-112
-126,-68,58,97,-92,-4,82,87,87,-19,-92,-122
-126,-58,68,92,-97,4,82,92,92,-14,-87,-117
-126,-58,68,92,-97,4,87,102,102,-4,-87,-117
-122,-53,68,87,-95,7,87,107,112,4,-82,-112
-117,-39,78,78,-97,19,87,112,122,9,-78,-97
-117,-39,78,78,-97,19,87,126,131,9,-73,-92
-107,-39,68,73,-87,14,87,131,136,14,-63,-87
-107,-34,73,70,-90,19,92,136,146,14,-58,-82
-107,-34,73,70,-90,19,92,151,165,43,-43,-78
-107,-34,73,70,-90,19,92,161,175,48,-39,-73
-102,-29,73,65,-87,21,92,170,190,68,-29,-68
-102,-24,78,63,-90,26,92,180,200,82,-19,-63
-97,-19,78,58,-87,29,97,200,219,107,-14,-53
-92,-14,78,53,-85,31,97,209,244,126,-4,-43
-92,-9,82,51,-87,36,97,214,263,136,0,-39
-82,-4,78,43,-80,36,97,229,283,146,9,-29
-78,-9,68,43,-73,29,97,239,292,161,24,-24
-73,0,73,36,-73,36,102,258,307,170,39,-14
-73,0,73,36,-73,36,102,268,322,180,53,-4
-68,14,82,26,-75,48,97,273,336,200,73,4
-63,24,87,19,-75,56,97,278,341,204,82,4
-58,29,87,14,-73,58,102,287,356,219,87,14
-48,34,82,7,-65,58,102,297,370,234,97,24
-39,43,82,-2,-61,63,102,307,385,244,102,34
-34,43,78,-4,-56,61,97,322,409,258,117,48
-29,48,78,-9,-53,63,97,326,419,268,126,63
-19,63,82,-21,-51,73,97,336,429,273,146,78
-14,73,87,-29,-51,80,92,346,448,283,161,87
-9,82,92,-36,-51,87,102,351,463,307,180,87
0,92,92,-46,-46,92,102,356,468,322,190,97
0,102,102,-51,-51,102,97,356,478,336,195,107
4,107,102,-56,-48,104,92,361,483,351,204,117
14,112,97,-63,-41,104,82,361,492,366,209,126
19,112,92,-65,-36,102,82,366,502,366,219,131
24,117,92,-70,-34,104,78,370,502,370,224,136
29,122,92,-75,-31,107,78,370,502,375,229,141
34,122,87,-78,-26,104,68,370,492,375,229,141
34,126,92,-80,-29,109,63,370,497,370,234,146
39,126,87,-82,-24,107,58,370,497,370,234,161
43,131,87,-87,-21,109,58,370,497,370,239,165
48,141,92,-95,-21,117,53,356,492,380,248,165
53,146,92,-100,-19,119,48,356,488,375,248,170
53,151,97,-102,-21,124,48,346,488,375,248,170
53,151,97,-102,-21,124,43,336,488,370,248,170
63,141,78,-102,-7,109,39,331,468,356,239,170
58,141,82,-100,-12,112,34,317,458,351,239,165
53,141,87,-97,-17,114,29,302,448,341,234,165
53,141,87,-97,-17,114,29,287,429,336,229,161
43,141,97,-92,-26,119,14,268,409,317,214,156
43,141,97,-92,-26,119,9,244,385,297,214,156
39,141,102,-90,-31,122,4,229,370,278,200,146
34,141,107,-87,-36,124,0,214,351,263,185,141
29,136,107,-82,-39,122,-4,195,336,248,175,117
24,122,97,-73,-36,109,-4,185,317,234,165,107
19,117,97,-68,-39,107,-9,165,302,224,161,102
14,112,97,-63,-41,104,-9,151,278,209,151,87
9,102,92,-56,-41,97,-19,126,248,195,126,78
4,92,87,-48,-41,90,-19,117,229,175,107,68
-4,87,92,-41,-48,90,-19,97,214,156,92,58
-19,73,92,-26,-56,82,-24,82,195,141,78,48
-24,63,87,-19,-56,75,-24,73,175,112,73,34
-34,53,87,-9,-61,70,-24,63,156,97,58,19
-39,48,87,-4,-63,68,-24,48,141,87,48,9
-43,39,82,2,-63,61,-24,34,126,73,39,4
-43,19,63,12,-53,41,-24,29,102,43,19,-4
-48,14,63,17,-56,39,-24,14,82,29,9,-9
-53,4,58,24,-56,31,-24,4,63,9,0,-14
-53,0,53,26,-53,26,-24,0,48,-4,-14,-24
-68,-4,63,36,-65,29,-24,-4,43,-9,-29,-39
-73,-14,58,43,-65,21,-24,-9,34,-14,-29,-48
-82,-24,58,53,-70,17,-19,-19,34,-9,-29,-58
-87,-24,63,56,-75,19,-19,-24,29,-4,-34,-63
-97,-34,63,65,-80,14,-19,-29,19,-4,-29,-53
-97,-39,58,68,-78,9,-19,-34,14,-14,-39,-58
-102,-39,63,70,-82,12,-19,-39,4,-24,-39,-68
-107,-39,68,73,-87,14,-19,-43,-4,-34,-48,-73
-107,-43,63,75,-85,9,-19,-43,-14,-48,-58,-87
-102,-48,53,75,-78,2,-19,-48,-19,-53,-68,-97
-97,-48,48,73,-73,0,-19,-53,-34,-63,-73,-97
-92,-53,39,73,-65,-7,-19,-53,-39,-68,-82,-102
-102,-58,43,80,-73,-7,-29,-58,-39,-58,-73,-97
-107,-58,48,82,-78,-4,-24,-58,-34,-63,-78,-97
-107,-63,43,85,-75,-9,-24,-63,-34,-68,-78,-97
-107,-63,43,85,-75,-9,-24,-63,-34,-73,-82,-102
-107,-63,43,85,-75,-9,-24,-53,-43,-68,-78,-102
-112,-63,48,87,-80,-7,-24,-58,-48,-68,-78,-97
-112,-63,48,87,-80,-7,-24,-63,-48,-68,-78,-97
-112,-68,43,90,-78,-12,-24,-63,-48,-73,-78,-102
-107,-68,39,87,-73,-14,-24,-63,-48,-78,-78,-102
-102,-68,34,85,-68,-17,-24,-63,-53,-82,-82,-102
-102,-68,34,85,-68,-17,-24,-63,-53,-87,-82,-107
-97,-68,29,82,-63,-19,-24,-63,-53,-92,-82,-107
-102,-73,29,87,-65,-21,-24,-63,-53,-78,-82,-107
-102,-73,29,87,-65,-21,-24,-63,-53,-78,-82,-107
-107,-73,34,90,-70,-19,-24,-63,-58,-87,-82,-107
-107,-78,29,92,-68,-24,-24,-63,-58,-87,-82,-112
-97,-78,19,87,-58,-29,-24,-73,-48,-87,-78,-112
-97,-78,19,87,-58,-29,-24,-73,-48,-87,-78,-112
-97,-78,19,87,-58,-29,-24,-73,-53,-87,-78,-112
-97,-73,24,85,-61,-24,-24,-73,-53,-87,-78,-112
-102,-82,19,92,-61,-31,-24,-68,-53,-87,-82,-107
-102,-87,14,95,-58,-36,-24,-68,-53,-87,-82,-112
-102,-87,14,95,-58,-36,-24,-68,-53,-92,-82,-112
-102,-82,19,92,-61,-31,-24,-68,-53,-92,-82,-112
-112,-92,19,102,-65,-36,-24,-73,-63,-87,-78,-112
-112,-92,19,102,-65,-36,-24,-73,-58,-87,-78,-112
-112,-92,19,102,-65,-36,-24,-68,-58,-87,-78,-112
-112,-92,19,102,-65,-36,-24,-68,-58,-87,-78,-107
-102,-82,19,92,-61,-31,-34,-78,-48,-82,-78,-117
-102,-82,19,92,-61,-31,-34,-78,-43,-78,-82,-117
-102,-82,19,92,-61,-31,-34,-78,-43,-73,-82,-117
-102,-82,19,92,-61,-31,-34,-78,-43,-68,-82,-117
-112,-92,19,102,-65,-36,-34,-78,-48,-82,-82,-117
-107,-92,14,100,-61,-39,-34,-78,-53,-87,-82,-112
-107,-92,14,100,-61,-39,-34,-78,-58,-92,-82,-107
-112,-92,19,102,-65,-36,-34,-78,-63,-97,-82,-102
-112,-82,29,97,-70,-26,-34,-82,-58,-87,-82,-107
-112,-82,29,97,-70,-26,-34,-82,-53,-87,-82,-112
-112,-82,29,97,-70,-26,-34,-82,-48,-87,-82,-117
-112,-82,29,97,-70,-26,-34,-82,-39,-82,-78,-122
-112,-78,34,95,-73,-21,-43,-82,-48,-82,-73,-126
-112,-73,39,92,-75,-17,-43,-82,-48,-82,-73,-126
-107,-73,34,90,-70,-19,-43,-82,-48,-82,-73,-126
-107,-78,29,92,-68,-24,-43,-82,-43,-82,-73,-126
-107,-87,19,97,-63,-34,-34,-73,-43,-92,-73,-122
-107,-87,19,97,-63,-34,-34,-73,-43,-92,-73,-117
-107,-82,24,95,-65,-29,-39,-73,-39,-87,-73,-117
-107,-78,29,92,-68,-24,-39,-73,-39,-87,-73,-117
-107,-78,29,92,-68,-24,-48,-73,-48,-87,-63,-107
-107,-78,29,92,-68,-24,-48,-73,-48,-92,-63,-107
-107,-78,29,92,-68,-24,-48,-73,-43,-92,-63,-107
-107,-78,29,92,-68,-24,-48,-73,-43,-87,-58,-107
-107,-92,14,100,-61,-39,-43,-73,-39,-97,-68,-117
-107,-92,14,100,-61,-39,-43,-73,-39,-97,-63,-112
-107,-87,19,97,-63,-34,-43,-73,-39,-87,-63,-112
-107,-87,19,97,-63,-34,-48,-73,-39,-82,-63,-107
-107,-87,19,97,-63,-34,-58,-82,-39,-73,-63,-107
-107,-87,19,97,-63,-34,-58,-82,-39,-78,-58,-107
-107,-87,19,97,-63,-34,-58,-78,-39,-78,-58,-112
-107,-82,24,95,-65,-29,-58,-73,-39,-78,-63,-112
-117,-82,34,100,-75,-24,-58,-73,-29,-78,-63,-122
-112,-82,29,97,-70,-26,-58,-73,-29,-78,-63,-122
-112,-82,29,97,-70,-26,-58,-73,-29,-78,-63,-122
-112,-82,29,97,-70,-26,-58,-73,-29,-78,-63,-122
-102,-82,19,92,-61,-31,-58,-82,-29,-78,-53,-112
-102,-82,19,92,-61,-31,-58,-82,-29,-78,-53,-112
-102,-82,19,92,-61,-31,-58,-82,-29,-78,-53,-112
-102,-82,19,92,-61,-31,-58,-82,-29,-78,-53,-112
-102,-82,19,92,-61,-31,-63,-82,-39,-82,-58,-122
-102,-82,19,92,-61,-31,-63,-82,-43,-82,-63,-117
-102,-82,19,92,-61,-31,-63,-82,-43,-82,-68,-117
-102,-82,19,92,-61,-31,-63,-82,-43,-82,-73,-117
-102,-82,19,92,-61,-31,-73,-78,-43,-82,-63,-107
-102,-87,14,95,-58,-36,-73,-78,-43,-82,-63,-107
-102,-87,14,95,-58,-36,-73,-82,-43,-82,-63,-107
-102,-82,19,92,-61,-31,-73,-82,-43,-82,-63,-112
-102,-82,19,92,-61,-31,-73,-82,-43,-73,-63,-122
-102,-82,19,92,-61,-31,-73,-82,-48,-73,-63,-126
-102,-82,19,92,-61,-31,-73,-82,-48,-73,-63,-126
-102,-87,14,95,-58,-36,-73,-82,-48,-78,-63,-126
-92,-87,4,90,-48,-41,-82,-82,-48,-87,-63,-112
-92,-82,9,87,-51,-36,-82,-82,-58,-92,-68,-112
-92,-82,9,87,-51,-36,-82,-82,-58,-92,-68,-117
-92,-87,4,90,-48,-41,-82,-82,-58,-92,-68,-117
-102,-102,0,102,-51,-51,-82,-82,-58,-92,-68,-122
-102,-102,0,102,-51,-51,-82,-87,-63,-97,-68,-122
-102,-102,0,102,-51,-51,-82,-87,-63,-97,-68,-122
-102,-97,4,100,-53,-46,-82,-92,-63,-97,-63,-122
-92,-97,-4,95,-43,-51,-82,-92,-63,-97,-73,-126
-97,-97,0,97,-48,-48,-78,-97,-68,-107,-68,-126
-97,-97,0,97,-48,-48,-87,-97,-68,-97,-68,-126
-97,-97,0,97,-48,-48,-87,-97,-68,-97,-68,-126
-97,-97,0,97,-48,-48,-87,-97,-68,-97,-68,-126
-97,-97,0,97,-48,-48,-87,-97,-68,-97,-68,-126
-97,-107,-9,102,-43,-58,-97,-102,-68,-97,-68,-126
-97,-102,-4,100,-46,-53,-97,-102,-73,-97,-68,-126
-102,-102,0,102,-51,-51,-97,-107,-73,-97,-68,-126
-102,-102,0,102,-51,-51,-97,-107,-73,-97,-68,-122
-102,-92,9,97,-56,-41,-97,-102,-78,-107,-78,-131
-102,-92,9,97,-56,-41,-97,-102,-78,-107,-78,-131
-102,-92,9,97,-56,-41,-97,-102,-73,-102,-78,-131
-97,-92,4,95,-51,-43,-102,-107,-73,-102,-73,-126
-87,-82,4,85,-46,-39,-107,-107,-63,-92,-73,-126
-97,-78,19,87,-58,-29,-117,-112,-63,-92,-73,-126
-97,-68,29,82,-63,-19,-122,-112,-58,-92,-68,-126
-97,-58,39,78,-68,-9,-122,-112,-53,-87,-63,-126
-107,-43,63,75,-85,9,-131,-122,-48,-87,-48,-117
-107,-43,63,75,-85,9,-131,-122,-43,-78,-48,-112
-107,-43,63,75,-85,9,-126,-117,-43,-78,-48,-107
-107,-39,68,73,-87,14,-122,-112,-39,-78,-48,-102
-107,-48,58,78,-82,4,-122,-112,-39,-82,-48,-107
-107,-43,63,75,-85,9,-117,-112,-39,-82,-43,-107
-102,-43,58,73,-80,7,-117,-107,-34,-82,-43,-107
-102,-43,58,73,-80,7,-117,-102,-29,-78,-43,-107
-102,-29,73,65,-87,21,-107,-92,-29,-78,-34,-97
-97,-29,68,63,-82,19,-107,-97,-29,-78,-34,-97
-97,-29,68,63,-82,19,-112,-97,-29,-78,-34,-97
-97,-24,73,61,-85,24,-122,-102,-29,-78,-34,-97
-92,-24,68,58,-80,21,-131,-117,-34,-82,-43,-107
-87,-24,63,56,-75,19,-141,-122,-34,-82,-48,-107
-82,-24,58,53,-70,17,-146,-131,-39,-82,-48,-107
-73,-24,48,48,-61,12,-161,-141,-53,-87,-48,-112
-82,-24,58,53,-70,17,-175,-141,-53,-87,-53,-112
-78,-19,58,48,-68,19,-175,-141,-53,-97,-53,-112
-78,-14,63,46,-70,24,-185,-146,-58,-97,-53,-112
-68,-14,53,41,-61,19,-190,-151,-58,-92,-53,-112
-63,-4,58,34,-61,26,-190,-151,-58,-87,-53,-102
-53,9,63,21,-58,36,-195,-151,-58,-87,-48,-92
-48,19,68,14,-58,43,-200,-151,-58,-78,-43,-87
-39,19,58,9,-48,39,-200,-146,-53,-78,-39,-87
-34,34,68,0,-51,51,-195,-156,-53,-78,-29,-78
-29,29,58,0,-43,43,-200,-151,-58,-78,-29,-78
-24,29,53,-2,-39,41,-200,-146,-58,-78,-29,-78
-19,19,39,0,-29,29,-195,-136,-58,-78,-34,-82
-9,24,34,-7,-21,29,-185,-126,-48,-78,-34,-92
-9,14,24,-2,-17,19,-180,-122,-48,-78,-29,-92
-14,4,19,4,-17,12,-175,-117,-48,-78,-29,-92
-19,-4,14,12,-17,4,-170,-117,-48,-78,-34,-97
-24,-9,14,17,-19,2,-175,-117,-53,-68,-24,-87
-19,-9,9,14,-14,0,-170,-117,-58,-73,-24,-87
-24,-14,9,19,-17,-2,-165,-117,-58,-78,-39,-97
-34,-29,4,31,-19,-12,-161,-117,-68,-92,-48,-107
-48,-48,0,48,-24,-24,-151,-117,-78,-112,-58,-107
-58,-58,0,58,-29,-29,-146,-117,-82,-117,-68,-112
-68,-68,0,68,-34,-34,-141,-117,-87,-122,-68,-117
-73,-78,-4,75,-34,-41,-141,-112,-87,-122,-73,-122
-78,-87,-9,82,-34,-48,-126,-107,-92,-117,-78,-131
-78,-92,-14,85,-31,-53,-126,-107,-97,-122,-78,-131
-82,-97,-14,90,-34,-56,-126,-107,-102,-126,-78,-136
-82,-97,-14,90,-34,-56,-122,-107,-107,-126,-82,-141
-97,-112,-14,104,-41,-63,-122,-112,-107,-131,-87,-146
-97,-112,-14,104,-41,-63,-117,-112,-112,-136,-92,-151
-97,-112,-14,104,-41,-63,-117,-112,-117,-136,-97,-156
-97,-112,-14,104,-41,-63,-117,-112,-117,-136,-97,-156
-97,-112,-14,104,-41,-63,-126,-122,-117,-131,-107,-165
-97,-122,-24,109,-36,-73,-122,-122,-117,-131,-107,-165
-97,-122,-24,109,-36,-73,-122,-117,-112,-131,-107,-165
-102,-117,-14,109,-43,-65,-122,-117,-112,-131,-107,-161
-92,-117,-24,104,-34,-70,-117,-112,-122,-141,-107,-161
-92,-117,-24,104,-34,-70,-117,-112,-122,-141,-107,-161
-92,-122,-29,107,-31,-75,-112,-112,-126,-141,-107,-161
-97,-122,-24,109,-36,-73,-112,-112,-126,-141,-107,-161
-87,-112,-24,100,-31,-68,-122,-122,-117,-141,-97,-156
-82,-112,-29,97,-26,-70,-122,-122,-122,-141,-102,-156
-82,-117,-34,100,-24,-75,-122,-122,-122,-141,-102,-156
-82,-117,-34,100,-24,-75,-122,-122,-117,-146,-102,-156
-92,-117,-24,104,-34,-70,-131,-112,-117,-136,-92,-146
-92,-112,-19,102,-36,-65,-131,-112,-117,-136,-87,-146
-87,-112,-24,100,-31,-68,-131,-107,-117,-136,-87,-141
-87,-112,-24,100,-31,-68,-131,-107,-112,-131,-87,-141
-82,-122,-39,102,-21,-80,-122,-107,-112,-131,-92,-146
-82,-122,-39,102,-21,-80,-122,-107,-112,-131,-92,-151
-82,-126,-43,104,-19,-85,-122,-107,-112,-131,-92,-156
-82,-126,-43,104,-19,-85,-122,-107,-112,-131,-92,-161
-92,-141,-48,117,-21,-95,-112,-107,-112,-131,-92,-151
-102,-151,-48,126,-26,-100,-107,-97,-102,-131,-87,-146
-102,-146,-43,124,-29,-95,-112,-102,-107,-131,-102,-156
-78,-146,-68,112,-4,-107,-112,-102,-117,-146,-107,-170
-78,-151,-73,114,-2,-112,-97,-82,-122,-161,-131,-180
-97,-170,-73,134,-12,-122,-68,-58,-131,-185,-146,-204
-117,-204,-87,161,-14,-146,-29,-24,-156,-204,-180,-244
-126,-239,-112,183,-7,-175,-4,9,-156,-224,-209,-283
-126,-244,-117,185,-4,-180,19,43,-136,-214,-219,-292
-126,-253,-126,190,0,-190,34,78,-82,-165,-185,-268
-112,-253,-141,183,14,-197,34,112,0,-92,-117,-214
-63,-229,-165,146,51,-197,9,112,68,-9,-19,-126
4,-146,-151,70,78,-148,-58,82,175,126,122,14
87,4,-82,-46,85,-39,-170,9,312,326,336,224
204,185,-19,-195,112,82,-317,-92,444,551,585,468
351,341,-9,-346,180,165,-478,-180,556,756,829,707
483,468,-14,-475,248,226,-619,-268,614,922,1034,927
585,551,-34,-568,309,258,-761,-375,551,1000,1190,1098
717,614,-102,-666,409,256,-888,-502,424,1024,1307,1239
873,668,-204,-771,539,231,-1019,-585,312,1054,1444,1420
1024,722,-302,-873,663,209,-1112,-653,175,1063,1542,1561
1141,766,-375,-954,758,195,-1185,-717,24,1015,1581,1634
1224,795,-429,-1010,827,183,-1259,-814,-151,927,1556,1644
1244,814,-429,-1029,836,192,-1327,-951,-400,707,1376,1517
1195,785,-409,-990,802,187,-1356,-1088,-746,302,976,1195
1068,644,-424,-856,746,109,-1322,-1205,-1117,-204,448,722
888,414,-473,-651,680,-29,-1205,-1278,-1424,-658,-43,253
727,161,-566,-444,646,-202,-1054,-1254,-1644,-1019,-439,-136
595,-14,-610,-290,602,-312,-941,-1244,-1810,-1283,-741,-424
448,-117,-566,-165,507,-341,-863,-1249,-1898,-1468,-946,-639
317,-214,-531,-51,424,-373,-766,-1195,-1878,-1512,-1058,-790
268,-297,-566,14,417,-431,-663,-1073,-1747,-1429,-1044,-819
234,-322,-556,43,395,-439,-605,-951,-1571,-1288,-966,-785
180,-302,-483,61,331,-392,-546,-844,-1371,-1132,-868,-722
112,-234,-346,61,229,-290,-522,-746,-1137,-961,-732,-624
39,-146,-185,53,112,-165,-483,-653,-902,-771,-580,-512
-24,-78,-53,51,14,-65,-424,-551,-692,-610,-453,-424
-63,-53,9,58,-36,-21,-356,-458,-546,-502,-375,-356
-73,-53,19,63,-46,-17,-307,-385,-444,-405,-317,-307
-73,-63,9,68,-41,-26,-268,-326,-361,-326,-248,-273
-63,-63,0,63,-31,-31,-239,-263,-297,-268,-200,-234
-53,-73,-19,63,-17,-46,-209,-219,-258,-219,-170,-214
-43,-112,-68,78,12,-90,-180,-170,-219,-204,-161,-209
-58,-131,-73,95,7,-102,-156,-136,-185,-185,-146,-200
-53,-146,-92,100,19,-119,-136,-117,-151,-175,-131,-190
-58,-151,-92,104,17,-122,-122,-107,-126,-165,-126,-185
-58,-151,-92,104,17,-122,-107,-97,-107,-151,-122,-180
-78,-151,-73,114,-2,-112,-102,-97,-102,-141,-117,-180
-92,-156,-63,124,-14,-109,-97,-82,-102,-141,-117,-180
-92,-156,-63,124,-14,-109,-97,-82,-102,-141,-117,-180
-87,-151,-63,119,-12,-107,-97,-82,-102,-136,-122,-185
-87,-151,-63,119,-12,-107,-97,-78,-102,-136,-122,-185
-82,-161,-78,122,-2,-119,-92,-68,-97,-126,-122,-185
-82,-165,-82,124,0,-124,-92,-68,-87,-126,-117,-185
-82,-165,-82,124,0,-124,-92,-63,-73,-122,-112,-180
-87,-156,-68,122,-9,-112,-92,-63,-63,-107,-112,-170
-78,-161,-82,119,2,-122,-92,-53,-63,-107,-97,-161
-78,-161,-82,119,2,-122,-87,-53,-63,-107,-97,-161
-73,-165,-92,119,9,-129,-87,-48,-63,-107,-97,-161
-73,-165,-92,119,9,-129,-87,-43,-63,-107,-97,-161
-73,-156,-82,114,4,-119,-82,-43,-63,-102,-102,-151
-73,-161,-87,117,7,-124,-82,-43,-63,-102,-102,-151
-73,-161,-87,117,7,-124,-82,-39,-58,-97,-102,-151
-73,-165,-92,119,9,-129,-82,-39,-53,-97,-97,-151
-82,-165,-82,124,0,-124,-82,-29,-48,-97,-97,-156
-78,-161,-82,119,2,-122,-82,-29,-43,-92,-97,-156
-78,-161,-82,119,2,-122,-82,-24,-43,-92,-97,-156
-78,-151,-73,114,-2,-112,-82,-24,-43,-92,-97,-161
-68,-151,-82,109,7,-117,-92,-29,-43,-97,-97,-156
-68,-156,-87,112,9,-122,-92,-29,-39,-97,-97,-156
-68,-156,-87,112,9,-122,-92,-24,-39,-97,-97,-156
-68,-156,-87,112,9,-122,-92,-19,-39,-97,-92,-156
-58,-146,-87,102,14,-117,-82,-19,-34,-87,-78,-151
-58,-146,-87,102,14,-117,-82,-19,-34,-82,-78,-151
-58,-146,-87,102,14,-117,-82,-19,-29,-82,-82,-151
-58,-146,-87,102,14,-117,-78,-14,-29,-82,-82,-151
-58,-156,-97,107,19,-126,-73,-4,-19,-68,-78,-146
-58,-156,-97,107,19,-126,-73,-4,-14,-68,-73,-141
-58,-156,-97,107,19,-126,-73,-4,-14,-63,-73,-141
-58,-146,-87,102,14,-117,-73,-4,-9,-63,-73,-141
-58,-156,-97,107,19,-126,-73,-4,-9,-63,-73,-141
-58,-151,-92,104,17,-122,-73,-4,0,-63,-68,-141
-58,-151,-92,104,17,-122,-73,-4,0,-58,-68,-141
-58,-151,-92,104,17,-122,-73,-4,0,-53,-68,-136
-58,-141,-82,100,12,-112,-73,-4,0,-63,-73,-146
-58,-141,-82,100,12,-112,-73,0,0,-58,-68,-146
-58,-141,-82,100,12,-112,-73,0,4,-58,-68,-141
-58,-141,-82,100,12,-112,-73,4,4,-58,-68,-141
-58,-141,-82,100,12,-112,-73,9,14,-53,-68,-131
-58,-141,-82,100,12,-112,-73,14,14,-43,-63,-131
-53,-141,-87,97,17,-114,-73,19,19,-39,-63,-131
-53,-141,-87,97,17,-114,-73,19,24,-34,-63,-131
-43,-141,-97,92,26,-119,-63,24,29,-39,-48,-117
-43,-131,-87,87,21,-109,-63,24,29,-29,-48,-117
-43,-131,-87,87,21,-109,-63,29,34,-29,-48,-112
-43,-136,-92,90,24,-114,-63,29,39,-29,-43,-112
-53,-136,-82,95,14,-109,-58,29,53,-14,-43,-112
-48,-131,-82,90,17,-107,-58,34,58,-9,-34,-107
-48,-126,-78,87,14,-102,-58,39,63,-4,-34,-107
-48,-126,-78,87,14,-102,-58,43,68,-4,-34,-102
-48,-136,-87,92,19,-112,-58,53,78,4,-34,-102
-48,-136,-87,92,19,-112,-58,63,78,9,-24,-102
-43,-136,-92,90,24,-114,-53,73,87,14,-24,-92
-43,-136,-92,90,24,-114,-53,82,92,14,-24,-92
-29,-136,-107,82,39,-122,-53,78,97,19,-24,-92
-29,-126,-97,78,34,-112,-53,82,102,24,-19,-87
-29,-126,-97,78,34,-112,-48,92,112,34,-19,-87
-24,-122,-97,73,36,-109,-48,97,122,43,-14,-82
-19,-117,-97,68,39,-107,-48,112,141,63,0,-78
-19,-117,-97,68,39,-107,-48,126,151,68,4,-73
-9,-117,-107,63,48,-112,-48,131,156,78,14,-68
-9,-112,-102,61,46,-107,-43,136,165,82,19,-63
-9,-112,-102,61,46,-107,-34,151,165,92,14,-58
-9,-112,-102,61,46,-107,-34,161,175,87,19,-53
-4,-107,-102,56,48,-104,-34,170,190,97,29,-48
-4,-102,-97,53,46,-100,-34,180,200,102,39,-43
-9,-97,-87,53,39,-92,-29,190,224,117,43,-43
-4,-92,-87,48,41,-90,-29,200,244,136,53,-34
-4,-87,-82,46,39,-85,-29,204,258,146,58,-29
4,-82,-87,39,46,-85,-29,219,273,156,68,-19
9,-73,-82,31,46,-78,-39,229,273,170,87,-14
14,-58,-73,21,43,-65,-34,248,287,180,97,-4
14,-53,-68,19,41,-61,-34,258,302,190,107,4
19,-34,-53,7,36,-43,-39,263,317,209,122,14
34,-29,-63,-2,48,-46,-29,287,341,224,136,34
39,-29,-68,-4,53,-48,-24,297,356,239,146,43
48,-29,-78,-9,63,-53,-24,307,370,253,161,53
58,-24,-82,-17,70,-53,-24,317,385,263,170,63
53,-19,-73,-17,63,-46,-19,331,409,287,190,82
58,-19,-78,-19,68,-48,-19,336,419,297,195,92
68,-9,-78,-29,73,-43,-19,346,429,302,209,102
73,-4,-78,-34,75,-41,-24,356,448,312,219,107
78,4,-73,-41,75,-34,-24,361,453,322,224,107
87,14,-73,-51,80,-29,-24,366,458,331,229,117
87,24,-63,-56,75,-19,-29,366,468,341,229,126
92,29,-63,-61,78,-17,-34,370,473,351,234,136
102,43,-58,-73,80,-7,-34,380,483,366,244,146
107,43,-63,-75,85,-9,-34,385,492,366,258,151
112,48,-63,-80,87,-7,-39,390,492,370,268,156
117,53,-63,-85,90,-4,-39,390,492,375,278,161
131,53,-78,-92,104,-12,-39,390,502,380,268,151
131,58,-73,-95,102,-7,-43,390,507,380,273,156
136,58,-78,-97,107,-9,-48,390,507,385,273,170
141,63,-78,-102,109,-7,-48,390,507,390,278,175
136,53,-82,-95,109,-14,-43,395,502,390,278,165
141,58,-82,-100,112,-12,-48,395,497,385,278,170
141,63,-78,-102,109,-7,-48,385,497,385,278,170
141,63,-78,-102,109,-7,-53,375,497,380,278,170
151,68,-82,-109,117,-7,-68,361,488,375,278,175
146,73,-73,-109,109,0,-73,346,478,370,278,175
141,78,-63,-109,102,7,-78,331,468,361,273,180
141,82,-58,-112,100,12,-78,317,448,356,268,180
151,82,-68,-117,109,7,-92,297,448,356,263,175
151,82,-68,-117,109,7,-97,273,424,336,263,175
146,82,-63,-114,104,9,-102,258,409,317,248,165
141,82,-58,-112,100,12,-107,244,390,302,234,161
126,68,-58,-97,92,4,-112,224,375,297,234,151
122,53,-68,-87,95,-7,-112,214,356,283,224,146
117,48,-68,-82,92,-9,-117,195,341,273,219,146
112,43,-68,-78,90,-12,-117,180,317,258,209,136
117,34,-82,-75,100,-24,-126,161,297,234,185,117
112,24,-87,-68,100,-31,-126,146,278,214,165,107
102,19,-82,-61,92,-31,-126,122,263,195,151,97
87,4,-82,-46,85,-39,-131,102,244,180,136,87
82,-4,-87,-39,85,-46,-122,92,224,170,131,82
73,-14,-87,-29,80,-51,-122,82,204,156,117,68
68,-19,-87,-24,78,-53,-122,68,190,146,107,58
63,-29,-92,-17,78,-61,-122,53,175,131,97,53
43,-39,-82,-2,63,-61,-131,39,156,117,82,43
39,-43,-82,2,61,-63,-131,24,141,107,78,39
34,-53,-87,9,61,-70,-131,14,126,92,73,34
34,-58,-92,12,63,-75,-131,9,117,82,63,24
29,-63,-92,17,61,-78,-131,14,107,68,53,9
24,-73,-97,24,61,-85,-131,9,92,53,48,0
14,-82,-97,34,56,-90,-126,0,87,48,43,-9
9,-82,-92,36,51,-87,-126,-4,78,43,34,-14
9,-82,-92,36,51,-87,-126,-19,58,34,19,-14
9,-87,-97,39,53,-92,-126,-24,53,24,9,-19
4,-87,-92,41,48,-90,-126,-29,43,14,9,-29
0,-87,-87,43,43,-87,-126,-34,34,4,0,-34
-4,-102,-97,53,46,-100,-126,-24,39,4,4,-29
-4,-107,-102,56,48,-104,-126,-29,39,4,0,-39
-4,-107,-102,56,48,-104,-126,-34,29,0,0,-39
-4,-112,-107,58,51,-109,-126,-34,29,0,-4,-43
4,-117,-122,56,63,-119,-126,-39,14,0,-4,-39
0,-117,-117,58,58,-117,-122,-39,14,-4,-9,-39
0,-122,-122,61,61,-122,-122,-43,9,-9,-9,-39
0,-122,-122,61,61,-122,-122,-43,4,-14,-14,-43
-9,-122,-112,65,51,-117,-122,-53,4,-19,-19,-48
-14,-122,-107,68,46,-114,-122,-58,0,-19,-19,-48
-14,-122,-107,68,46,-114,-122,-63,0,-19,-19,-53
-14,-126,-112,70,48,-119,-122,-63,0,-24,-19,-63
-4,-126,-122,65,58,-124,-112,-53,0,-24,-19,-53
-4,-126,-122,65,58,-124,-112,-53,-4,-24,-24,-53
-9,-126,-117,68,53,-122,-112,-53,-4,-24,-24,-58
-9,-126,-117,68,53,-122,-112,-53,-4,-24,-24,-58
4,-122,-126,58,65,-124,-122,-53,-4,-19,-24,-58
4,-122,-126,58,65,-124,-122,-53,-4,-19,-24,-58
0,-122,-122,61,61,-122,-122,-53,-9,-29,-24,-58
0,-126,-126,63,63,-126,-122,-53,-9,-29,-24,-63
0,-126,-126,63,63,-126,-122,-53,0,-24,-19,-53
0,-126,-126,63,63,-126,-122,-53,0,-19,-19,-53
0,-126,-126,63,63,-126,-122,-53,-4,-14,-19,-53
0,-122,-122,61,61,-122,-122,-53,-4,-9,-19,-53
-14,-131,-117,73,51,-124,-112,-48,4,-19,-24,-48
-14,-136,-122,75,53,-129,-112,-48,4,-19,-24,-53
-14,-136,-122,75,53,-129,-112,-48,4,-24,-24,-53
-14,-131,-117,73,51,-124,-112,-48,4,-24,-24,-53
-4,-131,-126,68,61,-129,-122,-53,-4,-19,-29,-63
-4,-131,-126,68,61,-129,-122,-53,0,-19,-29,-63
-4,-131,-126,68,61,-129,-122,-48,0,-19,-29,-63
-4,-131,-126,68,61,-129,-122,-48,0,-19,-29,-58
-4,-122,-117,63,56,-119,-112,-48,0,-9,-24,-48
-4,-122,-117,63,56,-119,-112,-48,4,-9,-24,-48
-4,-122,-117,63,56,-119,-112,-48,4,-9,-19,-48
-4,-122,-117,63,56,-119,-112,-48,4,-9,-14,-48
-14,-122,-107,68,46,-114,-112,-48,4,-19,-24,-53
-9,-122,-112,65,51,-117,-112,-48,4,-19,-24,-53
-9,-122,-112,65,51,-117,-112,-48,4,-19,-24,-53
-14,-122,-107,68,46,-114,-112,-48,4,-19,-24,-53
-4,-122,-117,63,56,-119,-112,-43,4,-19,-24,-53
-4,-122,-117,63,56,-119,-112,-43,4,-19,-24,-53
-4,-122,-117,63,56,-119,-112,-43,4,-19,-24,-53
-4,-122,-117,63,56,-119,-112,-43,9,-14,-19,-53
-14,-126,-112,70,48,-119,-112,-43,9,-14,-24,-48
-14,-122,-107,68,46,-114,-112,-43,9,-14,-24,-48
-9,-122,-112,65,51,-117,-112,-43,9,-14,-24,-48
-9,-126,-117,68,53,-122,-112,-43,14,-14,-24,-48
-9,-117,-107,63,48,-112,-102,-43,4,-4,-14,-43
-9,-117,-107,63,48,-112,-102,-43,4,-4,-14,-39
-9,-112,-102,61,46,-107,-107,-43,9,0,-14,-39
-9,-107,-97,58,43,-102,-107,-43,9,0,-14,-39
-9,-107,-97,58,43,-102,-107,-43,9,-9,-14,-48
-9,-107,-97,58,43,-102,-107,-43,9,-14,-14,-48
-9,-107,-97,58,43,-102,-107,-43,14,-14,-14,-48
-9,-107,-97,58,43,-102,-107,-43,14,-9,-9,-48
-9,-122,-112,65,51,-117,-102,-34,19,-19,-14,-48
-9,-122,-112,65,51,-117,-102,-34,19,-19,-14,-43
-9,-117,-107,63,48,-112,-102,-34,19,-9,-19,-43
-9,-117,-107,63,48,-112,-107,-34,19,-4,-24,-39
-9,-107,-97,58,43,-102,-107,-34,19,4,-14,-29
-9,-107,-97,58,43,-102,-107,-34,19,0,-9,-29
-9,-107,-97,58,43,-102,-107,-29,19,0,-9,-34
-9,-102,-92,56,41,-97,-107,-24,19,0,-14,-34
-9,-102,-92,56,41,-97,-107,-34,19,9,-4,-43
-4,-102,-97,53,46,-100,-107,-34,19,9,-4,-43
-4,-102,-97,53,46,-100,-107,-34,19,9,-4,-43
-4,-102,-97,53,46,-100,-107,-34,19,9,-4,-43
-4,-112,-107,58,51,-109,-107,-34,19,0,-14,-43
-4,-112,-107,58,51,-109,-107,-34,19,0,-14,-43
-4,-112,-107,58,51,-109,-107,-34,19,0,-14,-43
-4,-112,-107,58,51,-109,-107,-34,19,0,-14,-43
-4,-122,-117,63,56,-119,-112,-34,19,-4,-14,-43
-4,-122,-117,63,56,-119,-112,-34,14,-4,-14,-39
-4,-122,-117,63,56,-119,-112,-34,14,-4,-14,-39
-4,-122,-117,63,56,-119,-112,-34,14,-4,-14,-39
-4,-122,-117,63,56,-119,-112,-29,14,-4,-14,-39
4,-126,-131,61,68,-129,-102,-29,14,-4,-14,-39
14,-117,-131,51,73,-124,-112,-34,14,4,-14,-39
9,-117,-126,53,68,-122,-107,-39,9,9,-9,-39
0,-117,-117,58,58,-117,-107,-29,19,0,-9,-29
0,-117,-117,58,58,-117,-107,-29,19,0,-9,-29
0,-117,-117,58,58,-117,-107,-29,19,0,-9,-29
0,-117,-117,58,58,-117,-107,-29,19,0,-9,-29
0,-107,-107,53,53,-107,-107,-34,9,-9,-19,-39
0,-102,-102,51,51,-102,-107,-34,4,-9,-19,-39
-4,-102,-97,53,46,-100,-107,-39,4,-9,-19,-39
-4,-102,-97,53,46,-100,-107,-39,4,-9,-19,-34
-4,-107,-102,56,48,-104,-107,-34,9,-9,-9,-34
-4,-112,-107,58,51,-109,-107,-34,9,-9,-9,-34
-4,-117,-112,61,53,-114,-107,-34,14,-4,-9,-34
0,-122,-122,61,61,-122,-112,-39,14,-4,-4,-29
9,-112,-122,51,65,-117,-107,-39,14,-4,-14,-29
0,-107,-107,53,53,-107,-117,-43,14,-4,-14,-29
0,-97,-97,48,48,-97,-122,-43,19,-4,-9,-29
0,-87,-87,43,43,-87,-122,-43,24,0,-4,-29
9,-82,-92,36,51,-87,-122,-53,29,0,0,-24
9,-82,-92,36,51,-87,-122,-53,34,9,0,-24
9,-82,-92,36,51,-87,-117,-48,34,9,0,-24
9,-78,-87,34,48,-82,-112,-43,39,9,0,-24
4,-78,-82,36,43,-80,-112,-34,39,24,9,-9
0,-73,-73,36,36,-73,-107,-34,39,24,14,-9
0,-73,-73,36,36,-73,-107,-29,43,24,14,-9
-4,-73,-68,39,31,-70,-107,-24,48,29,14,-9
-4,-78,-73,41,34,-75,-97,-24,48,19,14,-9
0,-78,-78,39,39,-78,-97,-29,48,19,14,-9
0,-78,-78,39,39,-78,-102,-29,48,19,14,-9
0,-73,-73,36,36,-73,-112,-34,48,19,14,-9
9,-68,-78,29,43,-73,-131,-48,43,14,14,-9
9,-63,-73,26,41,-68,-141,-53,43,14,9,-9
9,-58,-68,24,39,-63,-146,-63,39,14,9,-9
14,-53,-68,19,41,-61,-161,-73,24,9,9,-14
14,-53,-68,19,41,-61,-165,-73,24,19,4,-4
19,-48,-68,14,43,-58,-165,-73,24,9,4,-4
19,-43,-63,12,41,-53,-175,-78,19,9,4,-4
29,-43,-73,7,51,-58,-180,-82,19,14,4,-4
34,-24,-58,-4,46,-41,-180,-82,29,9,4,-4
43,-9,-53,-17,48,-31,-185,-82,29,9,9,4
48,0,-48,-24,48,-24,-190,-82,29,19,14,9
58,0,-58,-29,58,-29,-190,-78,34,19,19,9
58,0,-58,-29,58,-29,-180,-78,34,29,29,19
58,-9,-68,-24,63,-39,-180,-73,29,29,29,19
58,-14,-73,-21,65,-43,-175,-68,29,29,29,19
58,-29,-87,-14,73,-58,-165,-58,29,29,24,14
48,-43,-92,-2,70,-68,-146,-39,29,29,24,14
48,-53,-102,2,75,-78,-141,-34,29,29,29,14
43,-63,-107,9,75,-85,-136,-29,29,29,29,14
39,-73,-112,17,75,-92,-131,-29,29,29,24,9
29,-87,-117,29,73,-102,-117,-39,24,24,14,9
29,-87,-117,29,73,-102,-112,-39,19,14,14,9
19,-92,-112,36,65,-102,-107,-39,19,4,0,0
4,-107,-112,51,58,-109,-102,-39,9,-14,-9,-9
4,-117,-122,56,63,-119,-92,-39,0,-14,-19,-29
0,-126,-126,63,63,-126,-87,-39,-4,-19,-29,-34
-4,-136,-131,70,63,-134,-82,-39,-9,-24,-29,-39
-4,-146,-141,75,68,-143,-82,-34,-9,-24,-34,-43
-9,-156,-146,82,68,-151,-68,-29,-4,-19,-29,-43
-9,-161,-151,85,70,-156,-68,-29,-9,-24,-29,-43
-14,-165,-151,90,68,-158,-68,-29,-14,-29,-29,-48
-14,-165,-151,90,68,-158,-63,-29,-19,-29,-34,-53
-19,-170,-151,95,65,-161,-73,-34,-29,-43,-48,-48
-19,-170,-151,95,65,-161,-68,-34,-34,-48,-53,-53
-19,-170,-151,95,65,-161,-68,-34,-39,-48,-58,-58
-19,-170,-151,95,65,-161,-68,-34,-39,-48,-58,-58
-29,-170,-141,100,56,-156,-58,-24,-29,-43,-58,-58
-29,-180,-151,104,61,-165,-53,-24,-29,-43,-58,-58
-29,-180,-151,104,61,-165,-53,-19,-24,-43,-58,-58
-34,-175,-141,104,53,-158,-53,-19,-24,-43,-58,-53
-24,-165,-141,95,58,-153,-58,-24,-14,-43,-48,-53
-24,-165,-141,95,58,-153,-58,-24,-14,-43,-48,-53
-24,-170,-146,97,61,-158,-53,-24,-19,-43,-48,-53
-29,-170,-141,100,56,-156,-53,-24,-19,-43,-48,-53
-29,-180,-151,104,61,-165,-53,-24,-29,-43,-39,-58
-24,-180,-156,102,65,-168,-53,-24,-34,-43,-43,-58
-24,-185,-161,104,68,-173,-53,-24,-34,-43,-43,-58
-24,-185,-161,104,68,-173,-53,-24,-29,-48,-43,-58
-34,-185,-151,109,58,-168,-43,-24,-29,-58,-48,-58
-34,-180,-146,107,56,-163,-43,-24,-29,-58,-48,-58
-29,-180,-151,104,61,-165,-43,-19,-29,-58,-53,-53
-29,-180,-151,104,61,-165,-43,-19,-24,-53,-58,-53
-24,-180,-156,102,65,-168,-43,-19,-24,-43,-43,-63
-24,-180,-156,102,65,-168,-43,-19,-24,-43,-43,-63
-24,-185,-161,104,68,-173,-43,-19,-24,-43,-43,-63
-24,-185,-161,104,68,-173,-43,-19,-24,-43,-43,-63
-24,-180,-156,102,65,-168,-43,-9,-24,-43,-43,-53
-34,-180,-146,107,56,-163,-39,-9,-24,-43,-48,-58
-24,-185,-161,104,68,-173,-43,-14,-29,-43,-43,-58
-29,-185,-156,107,63,-170,-34,-4,-29,-39,-48,-63
-29,-209,-180,119,75,-195,-19,14,-24,-43,-53,-73
-39,-229,-190,134,75,-209,19,48,-34,-68,-87,-107
-58,-273,-214,165,78,-244,68,92,-39,-97,-131,-156
-78,-307,-229,192,75,-268,102,136,-29,-126,-170,-185
-87,-312,-224,200,68,-268,117,161,-9,-107,-170,-195
-78,-312,-234,195,78,-273,131,185,43,-58,-117,-151
-43,-302,-258,173,107,-280,131,239,117,24,-39,-78
4,-268,-273,131,139,-270,97,239,185,126,68,19
73,-156,-229,41,151,-192,19,190,302,283,239,170
175,14,-161,-95,168,-73,-112,97,439,492,473,400
312,195,-117,-253,214,39,-268,-14,541,688,712,653
439,341,-97,-390,268,122,-409,-102,624,854,927,883
570,448,-122,-509,346,163,-541,-180,663,990,1122,1093
702,512,-190,-607,446,161,-683,-297,570,1029,1249,1254
834,536,-297,-685,566,119,-810,-414,395,1015,1346,1405
980,580,-400,-780,690,90,-932,-507,253,1024,1464,1566
1132,644,-488,-888,810,78,-1034,-575,136,1044,1561,1708
1239,707,-531,-973,885,87,-1107,-649,24,1015,1610,1781
1273,795,-478,-1034,875,158,-1180,-766,-131,907,1556,1761
1254,834,-419,-1044,836,207,-1239,-912,-390,668,1337,1586
1166,766,-400,-966,783,183,-1229,-1019,-727,263,907,1195
1000,585,-414,-793,707,85,-1127,-1088,-1029,-195,400,722
800,336,-463,-568,631,-63,-1000,-1112,-1307,-619,-92,253
639,102,-536,-370,588,-217,-868,-1107,-1527,-951,-468,-126
497,-34,-531,-231,514,-283,-766,-1078,-1644,-1185,-732,-395
361,-156,-517,-102,439,-336,-658,-1044,-1683,-1332,-936,-619
239,-292,-531,26,385,-412,-541,-951,-1644,-1366,-1029,-751
180,-356,-536,87,358,-446,-458,-849,-1522,-1273,-985,-751
136,-370,-507,117,322,-439,-409,-756,-1376,-1141,-907,-707
82,-361,-444,139,263,-402,-361,-678,-1215,-1015,-819,-653
34,-322,-356,143,195,-339,-326,-590,-1029,-844,-692,-556
-29,-244,-214,136,92,-229,-287,-507,-814,-673,-551,-453
-73,-195,-122,134,24,-158,-248,-414,-624,-551,-453,-375
-63,-180,-117,122,26,-148,-209,-322,-478,-444,-375,-317
-43,-161,-117,102,36,-139,-180,-248,-366,-346,-307,-258
-43,-141,-97,92,26,-119,-151,-190,-283,-268,-239,-204
-34,-141,-107,87,36,-124,-112,-136,-219,-200,-180,-165
-4,-151,-146,78,70,-148,-82,-82,-161,-131,-131,-117
-4,-161,-156,82,75,-158,-53,-43,-112,-97,-92,-92
-9,-170,-161,90,75,-165,-39,-9,-87,-87,-87,-82
-4,-185,-180,95,87,-183,-19,0,-63,-78,-92,-92
-9,-190,-180,100,85,-185,-14,19,-39,-78,-87,-87
-29,-200,-170,114,70,-185,0,29,-9,-63,-82,-82
-39,-190,-151,114,56,-170,-4,29,-4,-63,-78,-82
-34,-195,-161,114,63,-178,0,34,-14,-58,-68,-73
-34,-195,-161,114,63,-178,0,34,-14,-53,-68,-73
-29,-190,-161,109,65,-175,0,34,-14,-43,-73,-78
-29,-190,-161,109,65,-175,0,39,-14,-39,-73,-78
-24,-190,-165,107,70,-178,4,48,-9,-48,-73,-78
-24,-195,-170,109,73,-183,4,48,0,-48,-68,-78
-24,-195,-170,109,73,-183,4,53,14,-43,-63,-73
-29,-185,-156,107,63,-170,4,53,24,-29,-63,-63
-29,-190,-161,109,65,-175,4,63,24,-19,-48,-63
-29,-190,-161,109,65,-175,9,63,24,-19,-48,-63
-24,-195,-170,109,73,-183,9,68,24,-19,-48,-63
-24,-195,-170,109,73,-183,9,73,24,-19,-48,-63
-24,-204,-180,114,78,-192,14,73,34,-14,-43,-53
-24,-209,-185,117,80,-197,14,73,34,-14,-43,-53
-24,-209,-185,117,80,-197,14,78,39,-9,-43,-53
-24,-214,-190,119,82,-202,14,78,43,-9,-39,-53
-24,-204,-180,114,78,-192,14,78,39,-19,-48,-63
-19,-200,-180,109,80,-190,14,78,43,-14,-48,-58
-19,-200,-180,109,80,-190,14,82,43,-14,-48,-53
-19,-190,-170,104,75,-180,14,82,43,-14,-48,-53
-19,-180,-161,100,70,-170,14,78,43,-9,-39,-58
-19,-185,-165,102,73,-175,14,78,48,-9,-39,-58
-19,-185,-165,102,73,-175,14,82,48,-9,-39,-58
-19,-185,-165,102,73,-175,14,87,48,-9,-34,-58
-19,-185,-165,102,73,-175,14,87,53,0,-19,-43
-19,-185,-165,102,73,-175,14,87,53,4,-19,-43
-19,-185,-165,102,73,-175,14,87,58,4,-24,-43
-19,-185,-165,102,73,-175,19,92,58,4,-24,-43
-19,-195,-175,107,78,-185,14,92,58,9,-29,-48
-19,-195,-175,107,78,-185,14,92,63,9,-24,-43
-19,-195,-175,107,78,-185,14,92,63,14,-24,-43
-19,-185,-165,102,73,-175,14,92,68,14,-24,-43
-9,-185,-175,97,82,-180,14,92,68,14,-24,-34
-9,-180,-170,95,80,-175,14,92,78,14,-19,-34
-9,-180,-170,95,80,-175,14,92,78,19,-19,-34
-9,-180,-170,95,80,-175,14,92,78,24,-19,-29
-19,-180,-161,100,70,-170,24,92,78,24,-14,-29
-19,-180,-161,100,70,-170,24,97,78,29,-9,-29
-19,-180,-161,100,70,-170,24,97,82,29,-9,-24
-19,-180,-161,100,70,-170,24,102,82,29,-9,-24
-9,-180,-170,95,80,-175,24,107,82,29,-9,-24
-9,-180,-170,95,80,-175,24,112,82,34,-4,-24
-4,-180,-175,92,85,-178,24,117,87,34,-4,-24
-4,-180,-175,92,85,-178,24,117,92,34,-4,-24
-4,-175,-170,90,82,-173,14,112,107,48,9,-19
-4,-161,-156,82,75,-158,14,112,107,58,9,-19
-4,-156,-151,80,73,-153,14,117,112,58,9,-14
-4,-156,-151,80,73,-153,14,117,117,58,14,-14
-4,-165,-161,85,78,-163,29,126,112,63,4,-14
0,-161,-161,80,80,-161,29,131,117,68,14,-9
0,-156,-156,78,78,-156,29,136,122,73,14,-9
0,-156,-156,78,78,-156,29,141,126,73,14,-4
0,-165,-165,82,82,-165,29,146,136,73,14,4
0,-165,-165,82,82,-165,29,151,136,78,24,4
4,-165,-170,80,87,-168,34,156,146,82,24,14
4,-165,-170,80,87,-168,34,161,151,82,24,14
9,-165,-175,78,92,-170,24,165,156,87,34,4
9,-156,-165,73,87,-161,24,170,161,92,39,9
9,-156,-165,73,87,-161,29,180,170,102,39,9
14,-151,-165,68,90,-158,29,185,180,112,43,14
29,-146,-175,58,102,-161,39,190,190,122,48,19
29,-146,-175,58,102,-161,39,204,200,126,53,24
39,-146,-185,53,112,-165,39,209,204,136,63,29
39,-141,-180,51,109,-161,43,214,214,141,68,34
29,-122,-151,46,90,-136,34,219,224,165,82,48
29,-122,-151,46,90,-136,34,229,234,165,87,53
34,-117,-151,41,92,-134,34,239,248,180,97,58
34,-112,-146,39,90,-129,34,248,258,190,107,63
43,-107,-151,31,97,-129,39,258,273,204,131,82
53,-102,-156,24,104,-129,39,268,292,224,141,92
58,-97,-156,19,107,-126,39,273,307,234,146,97
73,-92,-165,9,119,-129,39,287,322,244,156,107
78,-78,-156,0,117,-117,39,297,331,248,156,102
82,-68,-151,-7,117,-109,43,317,346,258,165,112
82,-68,-151,-7,117,-109,43,326,361,268,175,122
87,-53,-141,-17,114,-97,39,331,375,287,190,131
92,-53,-146,-19,119,-100,39,346,380,312,214,146
97,-48,-146,-24,122,-97,43,356,395,326,224,161
107,-43,-151,-31,129,-97,43,366,409,341,239,175
117,-34,-151,-41,134,-92,43,375,424,351,248,190
112,-34,-146,-39,129,-90,39,380,448,356,248,190
117,-29,-146,-43,131,-87,39,385,458,366,253,200
126,-14,-141,-56,134,-78,39,395,468,370,268,209
131,-4,-136,-63,134,-70,34,405,488,380,278,214
146,0,-146,-73,146,-73,34,409,483,400,297,234
156,14,-141,-85,148,-63,34,414,488,409,307,244
156,29,-126,-92,141,-48,29,414,497,419,312,253
161,39,-122,-100,141,-41,24,419,502,429,322,263
170,34,-136,-102,153,-51,24,419,502,424,317,253
175,34,-141,-104,158,-53,24,424,512,424,326,258
180,39,-141,-109,161,-51,19,429,512,429,331,263
185,43,-141,-114,163,-48,19,429,512,434,336,268
180,53,-126,-117,153,-36,19,429,522,439,336,268
180,58,-122,-119,151,-31,14,429,527,439,341,273
185,58,-126,-122,156,-34,9,429,527,444,341,287
190,63,-126,-126,158,-31,9,429,527,448,346,292
