I,II,III,aVR,aVL,aVF,V1,V2,V3,V4,V5,V6
-200,-92,107,146,-153,7,-39,-34,0,14,-48,-19
-209,-102,107,156,-158,2,-43,-39,4,14,-43,-19
-204,-102,102,153,-153,0,-43,-34,9,19,-39,-19
-204,-97,107,151,-156,4,-34,-29,4,19,-43,-19
-214,-102,112,158,-163,4,-34,-29,-9,14,-53,-29
-209,-122,87,165,-148,-17,-39,-34,-24,4,-58,-39
-195,-126,68,161,-131,-29,-48,-39,-24,0,-58,-39
-200,-112,87,156,-143,-12,-48,-43,-24,0,-58,-34
-214,-102,112,158,-163,4,-43,-39,-19,9,-53,-29
-219,-102,117,161,-168,7,-43,-43,-19,9,-53,-29
-209,-102,107,156,-158,2,-53,-53,-19,0,-58,-29
-209,-107,102,158,-156,-2,-63,-58,-29,-4,-58,-29
-214,-112,102,163,-158,-4,-58,-48,-24,-4,-63,-29
-229,-122,107,175,-168,-7,-53,-48,-24,0,-63,-24
-229,-126,102,178,-165,-12,-58,-53,-29,-4,-63,-24
-219,-122,97,170,-158,-12,-53,-48,-29,-9,-68,-24
-224,-126,97,175,-161,-14,-48,-48,-34,-9,-63,-24
-224,-141,82,183,-153,-29,-53,-53,-34,-14,-63,-19
-209,-136,73,173,-141,-31,-53,-48,-34,-19,-63,-14
-214,-126,87,170,-151,-19,-53,-43,-24,-14,-63,-14
-219,-117,102,168,-161,-7,-53,-48,-19,-14,-63,-19
-204,-117,87,161,-146,-14,-58,-53,-24,-19,-68,-24
-190,-122,68,156,-129,-26,-58,-48,-24,-19,-73,-24
-200,-122,78,161,-139,-21,-58,-53,-24,-24,-68,-24
-209,-122,87,165,-148,-17,-63,-58,-34,-29,-68,-19
-209,-126,82,168,-146,-21,-68,-53,-34,-29,-68,-19
-214,-122,92,168,-153,-14,-53,-43,-24,-29,-63,-14
-209,-122,87,165,-148,-17,-43,-43,-29,-29,-63,-14
-185,-117,68,151,-126,-24,-53,-48,-34,-39,-68,-19
-185,-117,68,151,-126,-24,-58,-53,-39,-39,-63,-19
-190,-102,87,146,-139,-7,-63,-58,-39,-39,-63,-14
-185,-87,97,136,-141,4,-68,-58,-39,-43,-58,-14
-185,-87,97,136,-141,4,-63,-53,-19,-34,-48,-4
-195,-87,107,141,-151,9,-58,-48,-4,-29,-43,0
-190,-92,97,141,-143,2,-63,-48,-9,-34,-53,-4
-185,-102,82,143,-134,-9,-73,-58,-29,-39,-63,-9
-185,-107,78,146,-131,-14,-63,-53,-29,-39,-58,-9
-190,-102,87,146,-139,-7,-48,-39,-24,-34,-53,0
-185,-97,87,141,-136,-4,-48,-39,-24,-39,-53,-4
-175,-92,82,134,-129,-4,-58,-43,-34,-48,-63,-9
-175,-97,78,136,-126,-9,-58,-43,-34,-53,-63,-9
-185,-102,82,143,-134,-9,-53,-43,-34,-58,-58,-4
-180,-102,78,141,-129,-12,-58,-48,-43,-53,-53,0
-165,-92,73,129,-119,-9,-58,-48,-39,-48,-48,9
-165,-92,73,129,-119,-9,-58,-53,-39,-53,-58,9
-185,-102,82,143,-134,-9,-58,-58,-48,-63,-58,9
-190,-102,87,146,-139,-7,-53,-48,-43,-53,-53,14
-170,-92,78,131,-124,-7,-53,-39,-29,-48,-53,9
-170,-102,68,136,-119,-17,-53,-43,-29,-53,-58,-4
-195,-117,78,156,-136,-19,-53,-48,-24,-53,-53,-4
-195,-112,82,153,-139,-14,-58,-53,-19,-48,-48,0
-190,-102,87,146,-139,-7,-63,-48,-14,-39,-53,4
-161,-102,58,131,-109,-21,-92,-39,-19,-29,-53,0
-73,-68,4,70,-39,-31,-180,-34,-24,-24,-39,0
-141,-78,63,109,-102,-7,-117,-39,-29,-34,-53,-4
-322,-131,190,226,-256,29,78,-58,-34,-58,-87,-24
-248,-136,112,192,-180,-12,9,-63,-34,-58,-82,-24
-136,-112,24,124,-80,-43,-126,-58,-29,-48,-58,-14
-200,-131,68,165,-134,-31,-82,-58,-29,-53,-63,-19
-234,-146,87,190,-161,-29,-43,-58,-34,-58,-73,-24
-195,-136,58,165,-126,-39,-82,-58,-39,-58,-73,-29
-200,-126,73,163,-136,-26,-92,-63,-53,-63,-78,-39
-219,-117,102,168,-161,-7,-73,-63,-53,-58,-78,-39
-204,-112,92,158,-148,-9,-73,-58,-34,-43,-63,-29
-195,-117,78,156,-136,-19,-78,-53,-19,-34,-53,-24
-195,-126,68,161,-131,-29,-73,-53,-24,-39,-58,-29
-195,-126,68,161,-131,-29,-78,-48,-29,-43,-58,-29
-200,-126,73,163,-136,-26,-82,-53,-29,-48,-58,-29
-200,-126,73,163,-136,-26,-87,-58,-29,-48,-58,-29
-185,-126,58,156,-122,-34,-92,-68,-34,-53,-63,-29
-180,-117,63,148,-122,-26,-102,-73,-48,-63,-73,-34
-180,-112,68,146,-124,-21,-112,-73,-48,-63,-73,-34
-165,-122,43,143,-104,-39,-117,-78,-43,-68,-73,-34
-156,-126,29,141,-92,-48,-117,-78,-43,-68,-73,-34
-165,-122,43,143,-104,-39,-107,-68,-43,-63,-73,-34
-175,-117,58,146,-117,-29,-102,-68,-43,-63,-68,-29
-175,-97,78,136,-126,-9,-102,-68,-34,-58,-58,-24
-156,-92,63,124,-109,-14,-107,-68,-34,-58,-58,-24
-165,-107,58,136,-112,-24,-107,-68,-43,-63,-63,-24
-195,-126,68,161,-131,-29,-102,-68,-53,-63,-68,-24
-200,-122,78,161,-139,-21,-102,-68,-53,-63,-63,-24
-175,-107,68,141,-122,-19,-112,-78,-43,-63,-63,-24
-165,-112,53,139,-109,-29,-112,-78,-34,-68,-68,-24
-170,-117,53,143,-112,-31,-112,-73,-34,-68,-68,-24
-175,-107,68,141,-122,-19,-117,-73,-39,-68,-63,-29
-175,-107,68,141,-122,-19,-107,-63,-39,-68,-63,-29
-175,-117,58,146,-117,-29,-97,-53,-34,-68,-58,-24
-190,-112,78,151,-134,-17,-87,-48,-34,-58,-53,-19
-200,-112,87,156,-143,-12,-82,-43,-34,-53,-53,-14
-180,-107,73,143,-126,-17,-92,-58,-43,-58,-53,-9
-175,-107,68,141,-122,-19,-102,-63,-39,-63,-58,-4
-180,-107,73,143,-126,-17,-97,-63,-34,-58,-53,0
-175,-107,68,141,-122,-19,-97,-63,-39,-63,-63,0
-165,-92,73,129,-119,-9,-107,-68,-43,-68,-63,-9
-161,-87,73,124,-117,-7,-107,-73,-39,-63,-58,-9
-156,-97,58,126,-107,-19,-92,-63,-39,-63,-58,-4
-156,-102,53,129,-104,-24,-87,-58,-34,-58,-53,-4
-156,-117,39,136,-97,-39,-87,-53,-24,-53,-53,0
-156,-112,43,134,-100,-34,-73,-43,-24,-48,-53,0
-165,-107,58,136,-112,-24,-68,-39,-24,-48,-58,-4
-195,-122,73,158,-134,-24,-73,-43,-24,-58,-63,-4
-204,-131,73,168,-139,-29,-78,-43,-24,-63,-63,0
-185,-117,68,151,-126,-24,-78,-48,-29,-68,-73,-4
-170,-112,58,141,-114,-26,-87,-63,-34,-63,-73,-4
-185,-117,68,151,-126,-24,-87,-68,-34,-63,-68,0
-185,-126,58,156,-122,-34,-87,-63,-43,-68,-73,-9
-165,-126,39,146,-102,-43,-97,-73,-48,-78,-78,-14
-170,-131,39,151,-104,-46,-97,-73,-43,-73,-73,-14
-180,-141,39,161,-109,-51,-78,-58,-34,-68,-68,-9
-175,-141,34,158,-104,-53,-78,-53,-34,-68,-68,-9
-165,-136,29,151,-97,-53,-92,-58,-43,-73,-73,-14
-175,-136,39,156,-107,-48,-92,-68,-48,-82,-78,-19
-185,-131,53,158,-119,-39,-92,-68,-48,-82,-78,-14
-170,-126,43,148,-107,-41,-97,-63,-48,-82,-78,-9
-161,-141,19,151,-90,-61,-102,-68,-63,-87,-82,-14
-175,-156,19,165,-97,-68,-107,-73,-73,-97,-82,-14
-185,-156,29,170,-107,-63,-107,-82,-78,-107,-87,-14
-175,-146,29,161,-102,-58,-107,-87,-92,-122,-92,-19
-165,-156,9,161,-87,-73,-117,-92,-92,-126,-92,-19
-170,-161,9,165,-90,-75,-112,-82,-82,-122,-87,-9
-180,-156,24,168,-102,-65,-107,-82,-78,-117,-87,-9
-200,-156,43,178,-122,-56,-102,-87,-78,-117,-87,-4
-200,-146,53,173,-126,-46,-102,-82,-78,-112,-78,-4
-190,-136,53,163,-122,-41,-102,-82,-78,-97,-73,0
-170,-126,43,148,-107,-41,-107,-73,-73,-92,-73,-4
-146,-131,14,139,-80,-58,-112,-73,-68,-87,-73,-9
-131,-131,0,131,-65,-65,-102,-68,-58,-87,-73,-9
-136,-131,4,134,-70,-63,-87,-58,-53,-87,-78,-9
-141,-126,14,134,-78,-56,-87,-63,-53,-92,-78,-9
-126,-131,-4,129,-61,-68,-97,-73,-53,-92,-78,-9
-107,-141,-34,124,-36,-87,-92,-63,-48,-92,-78,-9
-102,-146,-43,124,-29,-95,-87,-43,-39,-87,-73,-14
-131,-146,-14,139,-58,-80,-73,-39,-39,-82,-73,-9
-165,-141,24,153,-95,-58,-63,-39,-39,-73,-68,0
-161,-141,19,151,-90,-61,-68,-34,-34,-68,-58,4
-146,-146,0,146,-73,-73,-73,-39,-24,-68,-53,4
-126,-136,-9,131,-58,-73,-78,-43,-29,-73,-58,4
-112,-102,9,107,-61,-46,-82,-34,-34,-73,-53,4
-112,-102,9,107,-61,-46,-82,-24,-34,-68,-53,4
-126,-126,0,126,-63,-63,-78,-24,-34,-73,-58,4
-131,-136,-4,134,-63,-70,-68,-29,-24,-73,-58,9
-131,-126,4,129,-68,-61,-73,-34,-19,-68,-58,14
-136,-112,24,124,-80,-43,-78,-34,-24,-68,-63,9
-141,-122,19,131,-80,-51,-78,-39,-29,-73,-68,9
-141,-131,9,136,-75,-61,-68,-43,-39,-78,-68,4
-146,-131,14,139,-80,-58,-58,-39,-39,-78,-68,0
-165,-136,29,151,-97,-53,-53,-34,-39,-82,-68,4
-165,-136,29,151,-97,-53,-58,-34,-39,-87,-68,9
-161,-126,34,143,-97,-46,-58,-29,-29,-87,-63,14
-161,-122,39,141,-100,-41,-53,-29,-19,-82,-58,19
-165,-131,34,148,-100,-48,-58,-29,-19,-78,-53,24
-165,-146,19,156,-92,-63,-63,-43,-43,-87,-63,19
-239,-224,14,231,-126,-104,-87,-170,-253,-239,-170,-43
-287,-263,24,275,-156,-119,-102,-258,-390,-331,-234,-82
-107,-68,39,87,-73,-14,-39,58,131,43,14,58
-14,34,48,-9,-31,41,-14,209,380,219,141,126
-131,-92,39,112,-85,-26,-58,-24,4,-58,-43,24
-165,-141,24,153,-95,-58,-73,-82,-82,-126,-87,0
-136,-102,34,119,-85,-34,-53,4,58,-19,-19,39
-151,-107,43,129,-97,-31,-48,-19,4,-48,-39,29
-156,-117,39,136,-97,-39,-39,-39,-48,-82,-53,19
-146,-102,43,124,-95,-29,-24,-4,-4,-53,-34,34
-146,-97,48,122,-97,-24,-34,-19,-9,-63,-39,29
-126,-112,14,119,-70,-48,-48,-39,-39,-82,-48,29
-82,-122,-39,102,-21,-80,-63,-43,-48,-87,-43,29
-78,-136,-58,107,-9,-97,-87,-63,-82,-107,-53,24
-87,-161,-73,124,-7,-117,-112,-92,-131,-136,-63,14
-73,-175,-102,124,14,-139,-117,-92,-156,-141,-58,19
-63,-190,-126,126,31,-158,-122,-92,-165,-141,-58,24
-58,-204,-146,131,43,-175,-131,-102,-200,-156,-73,9
-43,-190,-146,117,51,-168,-141,-112,-229,-175,-82,4
-9,-161,-151,85,70,-156,-151,-117,-234,-185,-78,14
19,-165,-185,73,102,-175,-170,-131,-253,-200,-82,9
34,-190,-224,78,129,-207,-195,-146,-307,-229,-97,0
43,-204,-248,80,146,-226,-214,-175,-356,-258,-102,0
73,-219,-292,73,183,-256,-248,-200,-400,-283,-102,0
107,-229,-336,61,222,-283,-287,-229,-458,-307,-112,0
141,-239,-380,48,261,-309,-322,-258,-517,-331,-112,9
175,-268,-444,46,309,-356,-356,-283,-580,-361,-117,14
229,-292,-522,31,375,-407,-400,-307,-639,-390,-117,19
297,-312,-610,7,453,-461,-448,-351,-712,-429,-126,19
366,-341,-707,-12,536,-524,-507,-419,-805,-488,-141,4
434,-385,-819,-24,627,-602,-575,-512,-897,-551,-161,0
488,-453,-941,-17,714,-697,-634,-590,-990,-595,-170,-9
531,-507,-1039,-12,785,-773,-683,-653,-1063,-639,-195,-24
590,-556,-1146,-17,868,-851,-727,-707,-1127,-683,-224,-48
663,-600,-1263,-31,963,-932,-800,-790,-1195,-727,-248,-73
722,-658,-1381,-31,1051,-1019,-888,-883,-1259,-766,-283,-92
746,-722,-1468,-12,1107,-1095,-951,-966,-1337,-834,-326,-122
780,-761,-1542,-9,1161,-1151,-995,-1029,-1415,-922,-385,-161
829,-785,-1615,-21,1222,-1200,-1024,-1063,-1483,-1005,-434,-195
844,-829,-1673,-7,1259,-1251,-1019,-1083,-1527,-1068,-473,-224
834,-893,-1727,29,1281,-1310,-1015,-1093,-1566,-1127,-522,-258
839,-951,-1790,56,1315,-1371,-1029,-1117,-1620,-1195,-585,-302
854,-1015,-1869,80,1361,-1442,-1068,-1166,-1668,-1244,-639,-346
854,-1054,-1908,100,1381,-1481,-1107,-1234,-1703,-1288,-683,-375
863,-1078,-1942,107,1403,-1510,-1146,-1298,-1732,-1327,-722,-400
888,-1098,-1986,104,1437,-1542,-1190,-1346,-1756,-1366,-756,-429
897,-1112,-2010,107,1454,-1561,-1220,-1385,-1776,-1390,-775,-444
897,-1132,-2030,117,1464,-1581,-1220,-1405,-1790,-1420,-795,-448
902,-1141,-2044,119,1473,-1593,-1215,-1405,-1805,-1439,-819,-458
917,-1137,-2054,109,1485,-1595,-1224,-1415,-1810,-1449,-829,-468
917,-1112,-2030,97,1473,-1571,-1215,-1410,-1781,-1434,-839,-478
907,-1098,-2005,95,1456,-1551,-1185,-1390,-1747,-1420,-849,-478
902,-1093,-1995,95,1449,-1544,-1176,-1381,-1742,-1424,-858,-488
902,-1083,-1986,90,1444,-1534,-1176,-1376,-1703,-1410,-863,-497
941,-1049,-1991,53,1466,-1520,-1161,-1346,-1625,-1356,-829,-473
971,-976,-1947,2,1459,-1461,-1151,-1302,-1551,-1298,-795,-448
961,-932,-1893,-14,1427,-1412,-1132,-1268,-1493,-1278,-780,-444
971,-902,-1873,-34,1422,-1388,-1102,-1210,-1439,-1244,-775,-439
990,-863,-1854,-63,1422,-1359,-1058,-1156,-1381,-1210,-766,-439
995,-839,-1834,-78,1415,-1337,-1019,-1117,-1351,-1185,-766,-448
966,-819,-1786,-73,1376,-1302,-980,-1083,-1312,-1171,-775,-458
932,-780,-1712,-75,1322,-1246,-936,-1044,-1254,-1132,-761,-458
902,-727,-1629,-87,1266,-1178,-902,-1000,-1195,-1088,-736,-444
858,-697,-1556,-80,1207,-1127,-868,-971,-1156,-1054,-727,-439
790,-683,-1473,-53,1132,-1078,-829,-927,-1102,-1024,-712,-434
761,-649,-1410,-56,1085,-1029,-790,-873,-1044,-990,-692,-429
751,-644,-1395,-53,1073,-1019,-746,-844,-1010,-966,-692,-439
717,-668,-1385,-24,1051,-1027,-712,-834,-1000,-966,-712,-463
692,-653,-1346,-19,1019,-1000,-688,-810,-971,-941,-697,-463
683,-605,-1288,-39,985,-946,-658,-766,-902,-888,-653,-439
653,-556,-1210,-48,932,-883,-619,-717,-844,-834,-619,-414
619,-527,-1146,-46,883,-836,-585,-673,-795,-795,-605,-405
595,-512,-1107,-41,851,-810,-551,-619,-741,-756,-580,-395
580,-497,-1078,-41,829,-788,-512,-561,-692,-712,-546,-370
570,-473,-1044,-48,807,-758,-468,-507,-634,-658,-507,-346
556,-453,-1010,-51,783,-732,-439,-468,-585,-610,-488,-331
522,-419,-941,-51,732,-680,-409,-439,-541,-575,-468,-326
473,-380,-854,-46,663,-617,-370,-405,-492,-536,-439,-302
414,-356,-771,-29,592,-563,-331,-370,-453,-492,-405,-273
370,-326,-697,-21,534,-512,-297,-331,-409,-458,-375,-244
341,-278,-619,-31,480,-448,-273,-287,-361,-414,-341,-214
292,-234,-527,-29,409,-380,-244,-253,-317,-370,-302,-190
253,-209,-463,-21,358,-336,-209,-229,-273,-331,-278,-161
244,-190,-434,-26,339,-312,-180,-195,-234,-292,-244,-131
219,-170,-390,-24,305,-280,-151,-165,-185,-253,-209,-102
190,-136,-326,-26,258,-231,-126,-136,-151,-219,-185,-87
175,-102,-278,-36,226,-190,-102,-102,-117,-195,-170,-78
156,-73,-229,-41,192,-151,-82,-78,-82,-165,-151,-63
107,-39,-146,-34,126,-92,-58,-43,-39,-131,-122,-43
68,-24,-92,-21,80,-58,-34,-4,-4,-102,-92,-19
43,-14,-58,-14,51,-36,-9,9,9,-82,-73,0
29,0,-29,-14,29,-14,19,24,39,-63,-58,9
0,9,9,-4,-4,9,39,39,53,-48,-53,14
-29,4,34,12,-31,19,48,48,53,-43,-48,19
-34,9,43,12,-39,26,68,63,58,-34,-39,34
-34,34,68,0,-51,51,73,73,73,-24,-24,39
-39,43,82,-2,-61,63,63,78,78,-24,-19,39
-48,48,97,0,-73,73,63,82,82,-24,-19,39
-43,53,97,-4,-70,75,68,92,87,-24,-19,39
-29,48,78,-9,-53,63,68,92,92,-14,-14,34
-29,39,68,-4,-48,53,78,97,92,-9,-14,34
-39,43,82,-2,-61,63,87,102,92,0,-9,43
-48,58,107,-4,-78,82,92,102,87,4,-9,48
-43,58,102,-7,-73,80,92,97,87,0,-9,48
-43,63,107,-9,-75,85,92,97,92,0,-9,53
-48,82,131,-17,-90,107,97,102,107,14,4,68
-53,92,146,-19,-100,119,107,112,117,19,9,78
-58,78,136,-9,-97,107,112,112,112,14,4,73
-58,73,131,-7,-95,102,117,112,107,9,4,63
-48,92,141,-21,-95,117,126,112,122,14,4,73
-53,97,151,-21,-102,124,126,117,131,19,14,82
-58,97,156,-19,-107,126,131,122,126,14,19,82
-43,107,151,-31,-97,129,126,122,107,0,4,73
-39,122,161,-41,-100,141,122,117,102,0,4,68
-48,131,180,-41,-114,156,131,126,117,4,9,68
-53,122,175,-34,-114,148,131,131,112,4,9,68
-53,112,165,-29,-109,139,136,131,112,4,14,68
-53,117,170,-31,-112,143,146,141,126,14,29,78
-58,126,185,-34,-122,156,156,146,136,24,34,82
-68,126,195,-29,-131,161,151,146,131,19,29,68
-63,122,185,-29,-124,153,141,141,126,24,19,58
-48,122,170,-36,-109,146,131,136,126,29,24,58
-43,131,175,-43,-109,153,126,136,126,34,29,53
-53,136,190,-41,-122,163,126,131,131,34,24,48
-58,136,195,-39,-126,165,131,131,136,39,19,43
-63,136,200,-36,-131,168,141,141,156,53,29,48
-63,141,204,-39,-134,173,151,156,180,73,39,58
-68,151,219,-41,-143,185,161,161,185,87,43,63
-68,165,234,-48,-151,200,170,165,180,82,43,58
-58,175,234,-58,-146,204,175,180,190,92,43,58
-58,175,234,-58,-146,204,180,195,204,107,53,53
-73,170,244,-48,-158,207,190,200,204,102,58,53
-63,180,244,-58,-153,212,200,200,200,97,53,48
-39,195,234,-78,-136,214,195,200,200,92,53,43
-34,195,229,-80,-131,212,175,190,209,102,53,43
-53,185,239,-65,-146,212,180,190,214,117,63,58
-58,195,253,-68,-156,224,195,204,219,126,68,63
-43,214,258,-85,-151,236,204,214,229,131,73,58
-29,224,253,-97,-141,239,204,219,239,146,82,58
-39,234,273,-97,-156,253,214,229,244,151,92,58
-43,253,297,-104,-170,275,224,234,248,156,97,58
-29,263,292,-117,-161,278,224,234,253,151,97,58
-29,263,292,-117,-161,278,224,239,253,146,92,58
-34,273,307,-119,-170,290,224,239,253,136,87,53
-29,287,317,-129,-173,302,229,239,263,146,87,53
0,292,292,-146,-146,292,239,258,287,165,97,58
4,297,292,-151,-143,295,258,283,302,180,117,68
-29,297,326,-134,-178,312,263,283,302,185,126,78
-48,307,356,-129,-202,331,268,273,307,190,131,73
-34,322,356,-143,-195,339,273,278,312,200,126,68
-29,336,366,-153,-197,351,278,278,312,200,122,68
-29,346,375,-158,-202,361,278,287,326,209,126,68
-29,351,380,-161,-204,366,287,302,341,224,141,73
-14,356,370,-170,-192,363,302,326,366,239,151,78
-4,361,366,-178,-185,363,312,331,380,248,161,82
-29,361,390,-165,-209,375,322,346,395,263,170,92
-58,361,419,-151,-239,390,336,361,409,278,185,107
-48,385,434,-168,-241,409,341,361,414,283,190,112
-39,405,444,-183,-241,424,346,366,424,283,190,107
-39,414,453,-187,-246,434,346,375,429,287,200,112
-34,419,453,-192,-244,436,346,380,434,297,204,112
-29,419,448,-195,-239,434,346,385,439,302,209,112
-24,434,458,-204,-241,446,351,385,458,317,219,117
-24,453,478,-214,-251,466,366,400,492,341,239,131
-24,468,492,-222,-258,480,380,414,502,351,244,136
-14,488,502,-236,-258,495,385,424,497,346,244,131
-19,497,517,-239,-268,507,385,424,497,346,244,126
-24,502,527,-239,-275,514,390,434,502,351,248,126
-29,517,546,-244,-287,531,395,448,522,366,263,136
-43,507,551,-231,-297,529,400,463,541,385,283,141
-53,497,551,-222,-302,524,414,483,561,400,287,141
-48,502,551,-226,-300,527,419,488,570,409,297,136
-48,497,546,-224,-297,522,424,492,580,429,302,146
-63,502,566,-219,-314,534,434,502,610,453,317,161
-53,517,570,-231,-312,544,448,527,629,483,331,170
-34,531,566,-248,-300,549,453,546,629,483,346,170
-43,541,585,-248,-314,563,453,551,634,488,351,175
-53,551,605,-248,-329,578,458,556,649,497,361,180
-43,551,595,-253,-319,573,458,551,649,492,361,175
-24,551,575,-263,-300,563,453,546,644,497,366,175
-29,546,575,-258,-302,561,453,556,653,512,370,180
-48,531,580,-241,-314,556,458,570,678,536,380,185
-48,546,595,-248,-322,570,458,575,688,541,385,185
-29,561,590,-265,-309,575,458,575,688,541,395,190
-24,556,580,-265,-302,568,453,590,688,556,405,195
-29,541,570,-256,-300,556,448,595,707,566,419,195
-19,546,566,-263,-292,556,444,605,741,590,434,204
9,570,561,-290,-275,566,439,610,756,610,444,204
14,566,551,-290,-268,558,439,614,746,610,439,200
4,551,546,-278,-270,549,444,624,732,600,429,195
4,561,556,-283,-275,558,458,634,732,600,434,200
19,590,570,-305,-275,580,458,639,736,600,448,204
39,580,541,-309,-251,561,448,644,736,605,448,204
43,556,512,-300,-234,534,444,649,741,610,458,200
48,556,507,-302,-229,531,453,663,746,614,468,204
68,561,492,-314,-212,527,448,663,736,605,468,195
73,546,473,-309,-200,509,429,658,727,605,468,185
73,536,463,-305,-195,500,419,649,717,600,463,185
87,536,448,-312,-180,492,414,639,717,595,458,180
117,536,419,-326,-151,478,409,629,707,580,453,175
136,536,400,-336,-131,468,409,629,692,575,444,170
146,522,375,-334,-114,448,405,629,678,570,439,165
161,517,356,-339,-97,436,395,624,668,561,444,156
180,517,336,-348,-78,427,385,614,653,546,439,141
190,512,322,-351,-65,417,366,600,634,531,429,136
170,502,331,-336,-80,417,356,580,619,527,429,141
175,483,307,-329,-65,395,351,566,610,517,424,136
195,478,283,-336,-43,380,336,556,595,502,414,131
209,473,263,-341,-26,368,326,546,561,483,395,117
214,458,244,-336,-14,351,326,546,531,463,385,112
209,444,234,-326,-12,339,331,536,522,458,380,107
204,419,214,-312,-4,317,326,517,512,444,366,92
219,414,195,-317,12,305,302,488,488,424,351,78
239,409,170,-324,34,290,283,463,458,390,336,63
239,390,151,-314,43,270,273,434,424,351,322,48
229,375,146,-302,41,261,263,424,400,331,312,43
234,370,136,-302,48,253,258,414,380,326,307,48
229,366,136,-297,46,251,239,400,375,322,302,58
234,361,126,-297,53,244,229,380,366,312,292,48
234,346,112,-290,61,229,229,370,346,302,278,43
239,331,92,-285,73,212,224,356,336,292,263,39
234,326,92,-280,70,209,214,341,326,278,248,34
224,312,87,-268,68,200,214,326,317,258,229,24
229,297,68,-263,80,183,209,307,278,224,214,14
234,287,53,-261,90,170,200,292,244,200,195,0
219,283,63,-251,78,173,195,278,229,190,185,-4
209,268,58,-239,75,163,180,263,214,180,170,-9
214,253,39,-234,87,146,170,248,200,161,156,-19
224,248,24,-236,100,136,170,244,190,156,151,-24
224,239,14,-231,104,126,175,244,195,161,156,-19
200,229,29,-214,85,129,180,239,200,161,156,-19
185,234,48,-209,68,141,175,219,190,151,141,-24
200,239,39,-219,80,139,151,195,165,136,126,-34
214,239,24,-226,95,131,136,185,151,126,117,-43
204,234,29,-219,87,131,136,185,146,117,112,-53
190,234,43,-212,73,139,136,180,122,102,97,-53
185,234,48,-209,68,141,126,161,107,87,82,-58
180,209,29,-195,75,119,126,156,112,82,92,-48
161,175,14,-168,73,95,141,161,112,87,97,-34
151,165,14,-158,68,90,146,161,97,78,92,-34
161,170,9,-165,75,90,131,146,73,58,78,-43
161,180,19,-170,70,100,131,141,53,53,73,-43
161,180,19,-170,70,100,136,141,58,53,73,-39
161,165,4,-163,78,85,141,146,58,53,68,-43
151,165,14,-158,68,90,141,141,48,48,58,-48
156,165,9,-161,73,87,136,136,39,34,53,-63
161,156,-4,-158,82,75,131,131,34,19,48,-63
151,146,-4,-148,78,70,141,126,29,19,48,-58
141,146,4,-143,68,75,141,126,34,19,48,-53
136,131,-4,-134,70,63,141,122,24,9,43,-58
141,122,-19,-131,80,51,141,117,9,-4,39,-58
141,122,-19,-131,80,51,141,112,4,-4,39,-58
126,112,-14,-119,70,48,131,102,4,0,39,-63
117,107,-9,-112,63,48,126,97,0,0,24,-68
126,126,0,-126,63,63,131,97,-9,-4,19,-73
117,136,19,-126,48,78,141,97,0,0,24,-68
102,131,29,-117,36,80,146,102,19,14,29,-68
122,141,19,-131,51,80,141,107,24,24,34,-63
136,156,19,-146,58,87,131,107,9,14,29,-68
122,136,14,-129,53,75,131,102,0,9,24,-73
117,131,14,-124,51,73,131,107,9,14,24,-73
112,136,24,-124,43,80,141,112,24,29,29,-68
107,136,29,-122,39,82,141,117,24,29,29,-68
117,136,19,-126,48,78,136,112,19,19,24,-73
136,141,4,-139,65,73,136,112,14,14,24,-73
126,131,4,-129,61,68,136,112,9,14,19,-73
107,136,29,-122,39,82,136,102,4,14,19,-78
102,141,39,-122,31,90,136,102,4,14,24,-78
102,136,34,-119,34,85,141,107,14,19,34,-68
87,136,48,-112,19,92,141,112,19,24,39,-68
82,146,63,-114,9,104,141,117,19,24,39,-68
92,136,43,-114,24,90,141,117,24,29,43,-68
87,117,29,-102,29,73,141,117,29,39,43,-68
73,122,48,-97,12,85,146,117,34,43,48,-68
68,141,73,-104,-2,107,141,117,29,43,43,-68
73,151,78,-112,-2,114,136,112,24,39,39,-68
73,156,82,-114,-4,119,136,112,29,39,39,-68
78,146,68,-112,4,107,141,112,24,34,34,-73
92,146,53,-119,19,100,136,107,14,19,24,-87
107,156,48,-131,29,102,126,97,9,14,19,-92
97,146,48,-122,24,97,136,102,24,19,19,-92
87,131,43,-109,21,87,146,117,39,29,29,-82
87,136,48,-112,19,92,151,117,43,39,39,-82
97,161,63,-129,17,112,146,117,63,53,39,-82
97,161,63,-129,17,112,146,122,73,63,39,-82
97,146,48,-122,24,97,151,131,68,63,39,-82
97,146,48,-122,24,97,151,131,58,58,39,-82
117,165,48,-141,34,107,146,131,53,58,39,-87
126,175,48,-151,39,112,146,131,48,53,39,-87
107,170,63,-139,21,117,151,141,63,53,48,-82
82,156,73,-119,4,114,165,156,78,68,63,-63
82,151,68,-117,7,109,170,151,73,73,68,-58
82,151,68,-117,7,109,151,131,63,58,58,-73
68,161,92,-114,-12,126,141,122,63,63,58,-68
58,161,102,-109,-21,131,151,131,73,78,68,-53
68,146,78,-107,-4,112,156,136,73,78,73,-53
63,141,78,-102,-7,109,156,141,78,68,68,-53
63,146,82,-104,-9,114,161,146,73,58,68,-53
68,156,87,-112,-9,122,156,146,73,58,63,-48
73,161,87,-117,-7,124,151,131,78,63,63,-53
68,165,97,-117,-14,131,141,131,87,63,63,-53
63,170,107,-117,-21,139,146,136,92,68,68,-48
53,180,126,-117,-36,153,146,136,92,73,68,-48
53,175,122,-114,-34,148,146,141,92,68,63,-53
68,170,102,-119,-17,136,141,146,82,63,68,-63
68,170,102,-119,-17,136,141,151,87,63,73,-68
58,175,117,-117,-29,146,141,151,87,63,78,-58
48,180,131,-114,-41,156,146,151,82,58,78,-58
43,161,117,-102,-36,139,151,156,82,58,73,-63
43,136,92,-90,-24,114,141,151,78,63,78,-63
43,136,92,-90,-24,114,141,151,82,73,78,-63
43,146,102,-95,-29,124,156,151,92,87,82,-63
48,146,97,-97,-24,122,156,151,102,92,82,-68
43,141,97,-92,-26,119,141,141,102,87,78,-73
19,126,107,-73,-43,117,136,136,97,82,73,-73
9,122,112,-65,-51,117,131,131,87,73,73,-73
24,136,112,-80,-43,124,122,126,82,73,68,-78
39,141,102,-90,-31,122,117,122,92,82,68,-78
39,141,102,-90,-31,122,117,126,97,87,63,-78
29,136,107,-82,-39,122,122,126,82,82,58,-87
29,136,107,-82,-39,122,117,131,73,78,58,-92
14,136,122,-75,-53,129,122,131,82,87,63,-87
-9,126,136,-58,-73,131,126,136,87,92,68,-78
-24,102,126,-39,-75,114,136,141,82,92,73,-73
-24,87,112,-31,-68,100,136,141,87,87,73,-78
-19,87,107,-34,-63,97,136,136,97,92,73,-82
-9,97,107,-43,-58,102,131,136,97,87,73,-82
-19,92,112,-36,-65,102,126,131,87,78,63,-92
-39,73,112,-17,-75,92,117,122,73,63,48,-102
-29,82,112,-26,-70,97,117,117,73,58,43,-112
-14,92,107,-39,-61,100,122,117,78,63,48,-107
-29,87,117,-29,-73,102,126,126,92,82,63,-92
-29,82,112,-26,-70,97,131,131,97,82,68,-87
-19,78,97,-29,-58,87,126,122,82,68,58,-92
-29,68,97,-19,-63,82,112,107,63,53,48,-97
-39,78,117,-19,-78,97,102,102,63,48,48,-97
-29,102,131,-36,-80,117,97,92,73,48,53,-92
-14,107,122,-46,-68,114,87,87,73,43,48,-92
-19,92,112,-36,-65,102,92,92,78,53,53,-87
-29,87,117,-29,-73,102,102,102,73,53,58,-87
-24,107,131,-41,-78,119,97,97,43,34,48,-97
-29,107,136,-39,-82,122,92,92,43,29,48,-97
-39,82,122,-21,-80,102,107,112,58,39,53,-87
-43,58,102,-7,-73,80,117,122,58,39,58,-82
-53,53,107,0,-80,80,112,122,53,34,53,-78
-58,53,112,2,-85,82,102,112,58,39,53,-78
-58,53,112,2,-85,82,102,107,68,39,48,-82
-53,58,112,-2,-82,85,107,107,68,34,43,-87
-53,63,117,-4,-85,90,117,112,73,43,53,-82
-48,68,117,-9,-82,92,122,122,78,58,68,-68
-48,63,112,-7,-80,87,112,112,78,53,63,-68
-53,58,112,-2,-82,85,92,92,68,39,43,-87
-53,68,122,-7,-87,95,78,82,58,34,34,-87
-58,73,131,-7,-95,102,82,87,48,29,34,-82
-63,58,122,2,-92,90,92,92,43,29,39,-78
-63,43,107,9,-85,75,92,87,48,34,39,-78
-78,34,112,21,-95,73,102,92,53,34,43,-73
-92,34,126,29,-109,80,107,97,53,39,48,-68
-87,34,122,26,-104,78,102,97,48,34,48,-68
-82,29,112,26,-97,70,97,87,43,34,43,-68
-82,24,107,29,-95,65,102,87,39,34,43,-68
-68,34,102,17,-85,68,97,92,34,24,34,-73
-48,39,87,4,-68,63,87,87,24,14,34,-78
-58,34,92,12,-75,63,78,82,19,14,34,-78
-82,34,117,24,-100,75,82,82,19,19,39,-68
-92,29,122,31,-107,75,92,87,24,24,43,-68
-92,29,122,31,-107,75,92,82,34,24,43,-68
-97,24,122,36,-109,73,82,78,34,19,39,-68
-97,19,117,39,-107,68,78,73,29,14,34,-68
-87,19,107,34,-97,63,78,73,29,14,34,-68
-78,14,92,31,-85,53,78,68,24,14,29,-68
-73,19,92,26,-82,56,73,63,24,14,29,-63
-78,34,112,21,-95,73,63,58,9,4,29,-63
-87,53,141,17,-114,97,63,58,9,0,24,-63
-82,48,131,17,-107,90,73,63,24,4,29,-58
-82,24,107,29,-95,65,78,78,39,14,34,-53
-102,14,117,43,-109,65,82,92,39,19,39,-48
-102,29,131,36,-117,80,82,87,43,19,34,-48
-97,39,136,29,-117,87,78,82,48,14,29,-58
-107,19,126,43,-117,73,68,73,48,19,24,-63
-107,14,122,46,-114,68,63,73,48,24,29,-58
-107,24,131,41,-119,78,68,73,43,29,34,-53
-112,14,126,48,-119,70,73,73,34,19,29,-53
-112,4,117,53,-114,61,78,78,39,19,29,-53
-102,9,112,46,-107,61,82,82,48,29,39,-48
-102,24,126,39,-114,75,73,78,48,34,43,-43
-92,34,126,29,-109,80,63,73,48,34,39,-43
-87,34,122,26,-104,78,58,68,53,43,39,-48
-92,24,117,34,-104,70,68,73,53,48,39,-48
-92,9,102,41,-97,56,78,82,48,43,39,-43
-92,9,102,41,-97,56,82,82,48,39,39,-43
-92,9,102,41,-97,56,82,78,53,43,39,-48
-87,9,97,39,-92,53,78,78,53,39,39,-48
-87,19,107,34,-97,63,78,82,48,34,34,-43
-117,14,131,51,-124,73,82,73,43,29,34,-39
-122,4,126,58,-124,65,78,68,39,19,29,-39
-102,14,117,43,-109,65,73,68,39,14,29,-34
-97,24,122,36,-109,73,68,73,24,9,29,-34
-102,24,126,39,-114,75,58,58,4,0,19,-39
-97,24,122,36,-109,73,53,48,4,0,29,-29
-78,24,102,26,-90,63,39,63,14,9,43,-14
14,43,29,-29,-7,36,-39,78,29,29,63,0
-43,48,92,-2,-68,70,19,73,34,29,58,0
-229,14,244,107,-236,129,204,53,39,14,14,-14
-165,14,180,75,-173,97,156,63,34,24,14,-19
-43,39,82,2,-63,61,29,82,39,39,43,-4
-92,34,126,29,-109,80,63,82,53,43,48,0
-126,19,146,53,-136,82,87,73,63,43,39,0
-87,29,117,29,-102,73,53,68,53,39,43,0
-73,29,102,21,-87,65,53,68,43,29,43,4
-82,29,112,26,-97,70,73,63,39,24,39,4
-82,39,122,21,-102,80,73,68,43,29,43,4
-73,48,122,12,-97,85,73,78,48,39,53,14
-68,43,112,12,-90,78,68,78,48,39,53,19
-68,48,117,9,-92,82,58,68,48,43,53,19
-78,48,126,14,-102,87,53,68,58,48,58,24
-78,48,126,14,-102,87,58,68,53,53,68,34
-78,39,117,19,-97,78,53,58,29,34,63,29
-82,34,117,24,-100,75,53,58,14,19,48,19
-68,34,102,17,-85,68,58,68,29,24,43,19
-53,29,82,12,-68,56,53,68,39,29,43,19
-63,34,97,14,-80,65,53,68,39,29,43,19
-92,39,131,26,-112,85,63,78,48,39,53,29
-92,43,136,24,-114,90,53,73,43,39,53,29
-68,43,112,12,-90,78,43,68,34,29,48,29
-68,34,102,17,-85,68,48,63,39,34,53,29
-82,34,117,24,-100,75,53,58,48,43,58,34
-82,48,131,17,-107,90,48,53,48,43,53,29
-78,53,131,12,-104,92,43,53,43,39,48,24
-73,48,122,12,-97,85,48,53,43,43,48,24
-92,48,141,21,-117,95,53,53,53,53,53,19
-102,48,151,26,-126,100,58,58,63,58,53,19
-87,63,151,12,-119,107,58,58,58,58,48,19
-63,78,141,-7,-102,109,39,48,48,58,48,19
-63,82,146,-9,-104,114,24,34,53,63,53,24
-78,92,170,-7,-124,131,34,39,53,63,58,29
-78,92,170,-7,-124,131,58,58,58,63,53,24
-63,87,151,-12,-107,119,63,68,58,53,53,19
-63,78,141,-7,-102,109,58,53,63,53,58,29
-82,73,156,4,-119,114,63,58,68,63,63,34
-87,73,161,7,-124,117,63,58,58,53,58,29
-68,58,126,4,-97,92,58,53,48,48,53,19
-63,34,97,14,-80,65,58,58,39,43,48,9
-82,24,107,29,-95,65,73,73,39,48,53,9
-97,24,122,36,-109,73,78,78,39,58,58,14
-73,34,107,19,-90,70,73,73,43,58,53,14
-58,39,97,9,-78,68,63,63,39,48,48,9
-78,34,112,21,-95,73,63,58,39,43,48,9
-92,39,131,26,-112,85,73,63,39,43,53,14
-82,43,126,19,-104,85,68,63,39,43,53,14
-78,39,117,19,-97,78,68,63,39,48,53,9
-82,34,117,24,-100,75,73,63,43,53,53,14
-82,43,126,19,-104,85,73,58,43,53,53,19
-82,43,126,19,-104,85,68,53,34,48,48,14
-68,43,112,12,-90,78,58,43,24,34,39,4
-78,48,126,14,-102,87,53,39,24,29,34,4
-102,39,141,31,-122,90,73,53,39,39,53,19
-97,24,122,36,-109,73,78,58,39,39,58,24
-78,34,112,21,-95,73,68,48,34,29,48,19
-78,43,122,17,-100,82,63,43,29,24,43,14
-73,48,122,12,-97,85,58,39,14,19,39,9
-63,39,102,12,-82,70,43,29,14,19,34,4
-63,19,82,21,-73,51,43,29,19,24,34,4
-78,34,112,21,-95,73,58,34,14,24,34,9
-97,48,146,24,-122,97,63,34,19,24,39,9
-102,48,151,26,-126,100,53,29,19,29,39,4
-87,43,131,21,-109,87,43,19,14,29,34,-4
-78,48,126,14,-102,87,43,19,9,24,29,0
-87,48,136,19,-112,92,43,24,14,29,34,9
-102,48,151,26,-126,100,53,29,19,34,43,14
-92,48,141,21,-117,95,58,34,19,39,43,24
-82,63,146,9,-114,104,53,34,19,43,48,29
-87,68,156,9,-122,112,53,34,29,43,58,29
-78,63,141,7,-109,102,53,39,34,48,58,24
-48,63,112,-7,-80,87,48,39,39,48,53,19
-34,58,92,-12,-63,75,43,43,43,48,48,9
-43,53,97,-4,-70,75,43,43,39,48,43,0
-58,53,112,2,-85,82,48,48,39,48,43,0
-58,48,107,4,-82,78,53,53,39,53,48,4
-43,43,87,0,-65,65,53,53,39,53,48,4
-39,48,87,-4,-63,68,63,58,43,53,53,9
-39,53,92,-7,-65,73,68,53,48,48,58,9
-39,58,97,-9,-68,78,58,48,39,48,48,0
-48,68,117,-9,-82,92,53,48,39,53,43,4
-48,73,122,-12,-85,97,53,58,58,63,53,14
-48,63,112,-7,-80,87,53,68,73,73,63,24
-58,48,107,4,-82,78,58,73,63,68,63,24
-53,48,102,2,-78,75,58,73,43,53,53,19
-58,58,117,0,-87,87,58,63,29,43,48,14
-73,48,122,12,-97,85,63,58,24,34,48,14
-73,34,107,19,-90,70,63,58,24,29,48,19
-68,29,97,19,-82,63,63,58,29,34,43,19
-73,34,107,19,-90,70,63,63,39,39,43,14
-87,39,126,24,-107,82,63,63,39,39,43,14
-92,34,126,29,-109,80,58,63,43,43,43,14
-102,34,136,34,-119,85,58,58,48,48,43,9
-112,39,151,36,-131,95,58,53,53,48,34,4
-117,43,161,36,-139,102,53,58,63,63,39,14
-112,34,146,39,-129,90,58,68,78,78,53,24
-117,19,136,48,-126,78,48,48,43,48,39,14
-180,-39,141,109,-161,51,19,-92,-190,-126,-78,-53
-219,-68,151,143,-185,41,9,-175,-331,-219,-146,-87
-34,92,126,-29,-80,109,73,141,219,170,112,43
53,161,107,-107,-26,134,92,297,478,356,234,107
-87,34,122,26,-104,78,53,68,68,73,48,4
-141,0,141,70,-141,70,48,14,-39,-9,0,-19
-87,58,146,14,-117,102,58,102,117,102,82,29
-92,48,141,21,-117,95,43,53,68,73,63,19
-112,19,131,46,-122,75,39,14,4,24,34,0
-97,39,136,29,-117,87,58,39,53,58,58,19
-92,48,141,21,-117,95,58,39,63,73,63,29
-97,39,136,29,-117,87,53,24,34,53,53,19
-78,43,122,17,-100,82,43,24,14,48,48,14
-58,43,102,7,-80,73,29,24,-4,43,53,19
-58,14,73,21,-65,43,14,9,-43,29,58,24
-48,-9,39,29,-43,14,0,-4,-87,4,58,29
-29,-4,24,17,-26,9,-19,-24,-112,-9,53,29
-19,-4,14,12,-17,4,-39,-39,-141,-34,43,24
-19,-19,0,19,-9,-9,-43,-43,-161,-48,43,24
0,-29,-29,14,14,-29,-48,-34,-165,-48,53,34
29,-39,-68,4,48,-53,-68,-43,-195,-68,39,29
39,-48,-87,4,63,-68,-97,-78,-258,-102,14,14
39,-63,-102,12,70,-82,-112,-97,-307,-122,9,14
53,-82,-136,14,95,-109,-131,-107,-336,-131,24,34
92,-87,-180,-2,136,-134,-170,-141,-385,-151,24,43
141,-92,-234,-24,187,-163,-224,-190,-448,-180,14,39
185,-102,-287,-41,236,-195,-268,-209,-497,-195,14,43
229,-112,-341,-58,285,-226,-312,-239,-546,-214,14,48
278,-141,-419,-68,348,-280,-356,-283,-619,-253,9,43
331,-175,-507,-78,419,-341,-400,-331,-712,-297,4,43
375,-204,-580,-85,478,-392,-468,-400,-800,-341,-4,43
429,-268,-697,-80,563,-483,-527,-478,-883,-385,-9,43
483,-341,-824,-70,653,-583,-566,-531,-956,-434,-19,43
527,-400,-927,-63,727,-663,-600,-575,-1044,-492,-53,29
570,-453,-1024,-58,797,-739,-673,-663,-1127,-561,-92,9
624,-512,-1137,-56,880,-824,-775,-780,-1210,-619,-131,-14
668,-575,-1244,-46,956,-910,-834,-868,-1278,-688,-175,-39
683,-614,-1298,-34,990,-956,-868,-912,-1346,-761,-219,-73
688,-639,-1327,-24,1007,-983,-888,-936,-1395,-824,-258,-102
692,-683,-1376,-4,1034,-1029,-888,-946,-1444,-883,-297,-131
702,-751,-1454,24,1078,-1102,-888,-966,-1498,-971,-356,-165
712,-819,-1532,53,1122,-1176,-893,-990,-1556,-1049,-414,-219
732,-863,-1595,65,1163,-1229,-927,-1039,-1600,-1107,-468,-253
741,-907,-1649,82,1195,-1278,-980,-1117,-1634,-1151,-512,-278
741,-951,-1693,104,1217,-1322,-1024,-1190,-1668,-1195,-556,-297
751,-971,-1722,109,1237,-1346,-1058,-1229,-1693,-1220,-580,-322
746,-990,-1737,122,1241,-1363,-1088,-1268,-1712,-1244,-600,-336
736,-1015,-1751,139,1244,-1383,-1083,-1278,-1717,-1268,-619,-356
741,-1024,-1766,141,1254,-1395,-1088,-1278,-1727,-1288,-649,-370
756,-1034,-1790,139,1273,-1412,-1088,-1278,-1717,-1298,-668,-380
761,-1039,-1800,139,1281,-1420,-1073,-1268,-1698,-1298,-683,-385
751,-1044,-1795,146,1273,-1420,-1044,-1244,-1673,-1293,-697,-400
741,-1044,-1786,151,1263,-1415,-1034,-1244,-1644,-1288,-717,-409
741,-1024,-1766,141,1254,-1395,-1029,-1239,-1605,-1268,-712,-409
756,-990,-1747,117,1251,-1368,-1019,-1215,-1546,-1229,-692,-405
766,-951,-1717,92,1241,-1334,-1005,-1171,-1478,-1171,-668,-400
771,-912,-1683,70,1227,-1298,-976,-1122,-1424,-1132,-653,-395
775,-868,-1644,46,1210,-1256,-941,-1068,-1361,-1088,-644,-385
771,-839,-1610,34,1190,-1224,-912,-1024,-1302,-1054,-629,-375
761,-834,-1595,36,1178,-1215,-883,-990,-1273,-1044,-634,-380
751,-805,-1556,26,1154,-1180,-863,-976,-1254,-1044,-644,-395
727,-766,-1493,19,1110,-1129,-829,-956,-1210,-1024,-634,-390
683,-741,-1424,29,1054,-1083,-790,-907,-1151,-980,-614,-385
634,-717,-1351,41,993,-1034,-746,-863,-1093,-941,-614,-390
590,-683,-1273,46,932,-978,-707,-829,-1029,-907,-605,-390
561,-658,-1220,48,890,-939,-668,-785,-971,-863,-585,-380
531,-649,-1180,58,856,-915,-634,-751,-932,-839,-575,-380
497,-644,-1141,73,819,-893,-614,-736,-917,-829,-585,-385
483,-634,-1117,75,800,-875,-605,-722,-897,-805,-575,-385
468,-610,-1078,70,773,-844,-590,-697,-858,-766,-551,-380
448,-570,-1019,61,734,-795,-551,-658,-790,-712,-517,-366
434,-541,-976,53,705,-758,-502,-600,-717,-658,-488,-351
405,-531,-936,63,671,-734,-473,-541,-658,-619,-478,-351
375,-507,-883,65,629,-695,-439,-488,-614,-585,-453,-336
336,-478,-814,70,575,-646,-405,-448,-570,-546,-424,-302
307,-463,-771,78,539,-617,-380,-424,-531,-512,-395,-283
287,-444,-732,78,509,-588,-356,-395,-492,-483,-370,-263
253,-405,-658,75,456,-531,-326,-366,-448,-444,-346,-248
224,-380,-605,78,414,-492,-307,-331,-414,-405,-326,-239
195,-351,-546,78,370,-448,-273,-297,-366,-375,-302,-224
141,-307,-448,82,295,-378,-234,-258,-307,-331,-273,-190
82,-273,-356,95,219,-314,-200,-219,-248,-278,-239,-156
68,-239,-307,85,187,-273,-170,-180,-209,-239,-204,-126
43,-214,-258,85,151,-236,-151,-156,-175,-204,-175,-107
-4,-200,-195,102,95,-197,-126,-126,-141,-170,-146,-78
-34,-175,-141,104,53,-158,-112,-112,-112,-136,-122,-58
-43,-141,-97,92,26,-119,-97,-97,-82,-112,-102,-53
-63,-122,-58,92,-2,-90,-68,-63,-43,-78,-78,-43
-92,-112,-19,102,-36,-65,-34,-29,-4,-39,-53,-24
-122,-102,19,112,-70,-41,-9,0,34,-9,-34,-4
-161,-87,73,124,-117,-7,9,19,58,14,-24,9
-185,-68,117,126,-151,24,24,29,68,24,-14,19
-195,-63,131,129,-163,34,29,39,68,29,-9,19
-200,-63,136,131,-168,36,34,43,78,39,0,24
-214,-58,156,136,-185,48,39,48,78,43,0,29
-219,-48,170,134,-195,61,43,48,78,39,0,29
-219,-48,170,134,-195,61,53,63,92,43,4,34
-229,-43,185,136,-207,70,63,78,112,58,14,39
-248,-34,214,141,-231,90,78,87,126,73,24,48
-253,-29,224,141,-239,97,82,87,122,68,24,48
-239,-29,209,134,-224,90,73,82,112,58,19,43
-229,-34,195,131,-212,80,73,82,102,58,19,43
-244,-34,209,139,-226,87,78,82,107,58,24,48
-239,-19,219,129,-229,100,82,87,112,63,29,53
-229,0,229,114,-229,114,87,82,117,73,29,58
-234,-4,229,119,-231,112,92,87,122,73,24,63
-253,-24,229,139,-241,102,87,87,126,78,29,68
-263,-29,234,146,-248,102,92,92,131,82,29,68
-258,-29,229,143,-244,100,92,97,136,82,34,68
-253,-19,234,136,-244,107,102,102,141,87,34,73
-263,-14,248,139,-256,117,102,102,141,82,34,68
-268,-9,258,139,-263,124,102,87,131,78,24,63
-253,-14,239,134,-246,112,97,82,136,73,24,63
-258,-14,244,136,-251,114,92,82,141,82,29,63
-278,-14,263,146,-270,124,92,82,141,87,34,68
-278,-4,273,141,-275,134,97,82,141,87,34,63
-273,-4,268,139,-270,131,97,87,146,92,34,63
-292,-24,268,158,-280,122,107,97,146,97,34,63
-312,-29,283,170,-297,126,112,102,146,97,39,63
-317,-24,292,170,-305,134,112,97,151,97,34,58
-302,-24,278,163,-290,126,107,87,151,92,29,53
-302,-24,278,163,-290,126,102,82,141,87,19,48
-302,-29,273,165,-287,122,97,82,141,87,19,43
-307,-29,278,168,-292,124,97,92,141,87,19,43
-307,-24,283,165,-295,129,92,87,141,92,19,43
-317,-34,283,175,-300,124,97,92,151,92,24,43
-336,-53,283,195,-309,114,102,102,161,97,34,53
-351,-63,287,207,-319,112,102,97,156,97,29,53
-346,-43,302,195,-324,129,97,92,151,92,24,48
-341,-19,322,180,-331,151,102,102,156,97,29,48
-356,-19,336,187,-346,158,107,107,161,107,29,48
-356,-24,331,190,-344,153,97,102,156,102,24,43
-346,-24,322,185,-334,148,87,92,156,97,24,43
-346,-29,317,187,-331,143,92,92,161,97,24,43
-361,-34,326,197,-344,146,97,102,165,102,29,39
-366,-24,341,195,-353,158,102,112,180,107,39,43
-361,-24,336,192,-348,156,112,112,180,107,39,48
-361,-29,331,195,-346,151,112,112,170,107,34,43
-366,-24,341,195,-353,158,117,122,175,112,34,43
-375,-19,356,197,-366,168,117,122,190,122,39,48
-370,-14,356,192,-363,170,117,117,195,122,39,43
-356,-9,346,183,-351,168,126,122,204,131,39,43
-356,-9,346,183,-351,168,131,131,214,141,43,48
-370,-4,366,187,-368,180,131,136,219,146,48,48
-380,9,390,185,-385,200,136,131,219,146,48,48
-375,19,395,178,-385,207,136,131,224,146,48,43
-380,4,385,187,-383,195,136,136,234,151,53,43
-395,-4,390,200,-392,192,141,146,239,161,58,53
-405,4,409,200,-407,207,151,161,248,170,63,58
-400,24,424,187,-412,224,156,165,263,185,68,63
-405,19,424,192,-414,222,156,170,273,195,73,63
-419,19,439,200,-429,229,165,175,283,200,87,63
-424,39,463,192,-444,251,170,180,283,204,92,68
-414,43,458,185,-436,251,170,180,283,204,87,63
-409,48,458,180,-434,253,170,175,292,204,87,58
-405,58,463,173,-434,261,170,180,307,219,92,63
-405,68,473,168,-439,270,170,195,322,229,102,63
-405,73,478,165,-441,275,175,200,331,244,107,68
-414,78,492,168,-453,285,180,204,341,248,112,68
-429,78,507,175,-468,292,190,209,351,248,117,73
-444,87,531,178,-488,309,195,219,356,253,122,68
-444,97,541,173,-492,319,200,229,366,263,131,73
-439,97,536,170,-488,317,204,239,375,273,141,82
-444,97,541,173,-492,319,209,248,385,283,146,87
-458,102,561,178,-509,331,214,258,395,292,151,82
-453,112,566,170,-509,339,209,258,409,307,146,78
-448,112,561,168,-505,336,209,263,434,322,151,73
-463,102,566,180,-514,334,219,273,448,336,161,73
-473,102,575,185,-524,339,224,283,463,346,165,78
-478,117,595,180,-536,356,239,302,468,351,170,82
-468,131,600,168,-534,366,244,312,478,361,180,92
-473,131,605,170,-539,368,244,317,492,370,195,97
-488,136,624,175,-556,380,248,326,507,385,204,102
-483,151,634,165,-558,392,253,336,517,400,219,112
-463,151,614,156,-539,383,258,356,536,419,234,122
-468,146,614,161,-541,380,258,361,546,429,239,126
-473,161,634,156,-553,397,258,361,556,429,239,131
-468,165,634,151,-551,400,268,375,566,439,248,136
-448,165,614,141,-531,390,273,380,575,453,258,136
-434,190,624,122,-529,407,263,380,580,453,263,141
-439,204,644,117,-541,424,263,385,595,463,273,146
-444,195,639,124,-541,417,268,395,610,478,283,151
-439,195,634,122,-536,414,273,405,614,488,292,161
-434,209,644,112,-539,427,273,424,634,507,307,175
-419,209,629,104,-524,419,273,434,658,527,326,190
-414,214,629,100,-522,422,278,444,663,541,341,200
-414,214,629,100,-522,422,287,448,668,546,346,200
-385,224,610,80,-497,417,287,453,668,546,346,200
-361,239,600,61,-480,419,278,458,673,551,351,200
-366,244,610,61,-488,427,273,463,673,551,356,204
-356,248,605,53,-480,427,273,468,673,561,361,214
-336,248,585,43,-461,417,273,478,678,570,366,229
-326,248,575,39,-451,412,273,483,688,575,370,234
-317,253,570,31,-444,412,268,488,692,575,380,234
-297,253,551,21,-424,402,263,492,692,575,385,234
-273,253,527,9,-400,390,263,488,688,566,385,229
-258,248,507,4,-383,378,258,483,678,556,375,224
-258,248,507,4,-383,378,253,483,668,556,380,224
-253,248,502,2,-378,375,248,483,663,556,380,234
-234,239,473,-2,-353,356,248,488,658,546,375,229
-214,239,453,-12,-334,346,239,478,644,536,370,229
-204,239,444,-17,-324,341,224,468,629,536,366,234
-204,234,439,-14,-322,336,214,463,614,522,366,229
-195,229,424,-17,-309,326,204,458,600,502,361,219
-161,219,380,-29,-270,300,195,448,590,502,361,214
-146,200,346,-26,-246,273,185,439,585,502,361,214
-151,195,346,-21,-248,270,180,424,566,488,346,204
-131,195,326,-31,-229,261,170,409,551,468,336,200
-117,180,297,-31,-207,239,165,405,541,468,336,195
-126,156,283,-14,-204,219,161,395,536,458,331,195
-141,146,287,-2,-214,217,151,375,512,439,322,190
-141,146,287,-2,-214,217,136,366,492,419,312,185
-122,141,263,-9,-192,202,126,356,478,409,302,175
-107,131,239,-12,-173,185,117,346,458,395,292,165
-107,112,219,-2,-163,165,107,326,434,375,278,156
-92,102,195,-4,-143,148,102,307,405,356,258,141
-87,92,180,-2,-134,136,97,287,385,331,244,131
-97,68,165,14,-131,117,92,268,366,307,234,122
-107,53,161,26,-134,107,87,253,351,292,224,112
-107,43,151,31,-129,97,73,244,331,283,209,102
-102,24,126,39,-114,75,63,229,317,268,190,87
-92,24,117,34,-104,70,48,214,297,253,180,78
-102,14,117,43,-109,65,48,204,283,239,170,73
-112,-4,107,58,-109,51,48,190,258,224,161,68
-112,-14,97,63,-104,41,43,180,234,200,151,68
-107,-14,92,61,-100,39,39,165,214,180,141,63
-107,-19,87,63,-97,34,24,141,200,161,126,58
-107,-24,82,65,-95,29,9,122,185,146,117,48
-107,-24,82,65,-95,29,0,107,170,131,102,39
-117,-34,82,75,-100,24,0,97,146,117,82,29
-122,-43,78,82,-100,17,4,92,131,107,68,24
-122,-43,78,82,-100,17,4,87,126,102,68,19
-107,-53,53,80,-80,0,-4,78,112,87,58,9
-102,-78,24,90,-63,-26,-4,68,87,73,43,0
-117,-92,24,104,-70,-34,-4,58,78,63,39,-9
-131,-97,34,114,-82,-31,0,53,78,53,39,-9
-122,-102,19,112,-70,-41,-4,48,68,48,34,-19
-107,-97,9,102,-58,-43,-14,39,53,39,19,-34
-117,-92,24,104,-70,-34,-19,34,43,34,9,-39
-122,-102,19,112,-70,-41,-14,29,34,29,4,-39
-126,-117,9,122,-68,-53,-14,24,24,19,0,-39
-131,-126,4,129,-68,-61,-19,24,24,9,-4,-39
-131,-122,9,126,-70,-56,-19,19,19,0,-4,-39
-131,-117,14,124,-73,-51,-14,19,14,-4,-4,-43
-146,-126,19,136,-82,-53,-14,19,9,-9,-14,-53
-156,-131,24,143,-90,-53,-14,19,9,-9,-19,-58
-146,-126,19,136,-82,-53,-9,14,9,0,-14,-53
-141,-126,14,134,-78,-56,-9,9,14,4,-9,-48
-136,-126,9,131,-73,-58,-19,4,9,0,-14,-53
-122,-112,9,117,-65,-51,-29,0,0,-4,-24,-63
-122,-102,19,112,-70,-41,-29,0,0,-9,-29,-68
-131,-117,14,124,-73,-51,-24,4,4,-4,-29,-73
-136,-126,9,131,-73,-58,-19,9,0,-9,-34,-78
-136,-117,19,126,-78,-48,-24,4,0,-14,-34,-82
-136,-112,24,124,-80,-43,-24,0,-4,-14,-34,-82
-141,-131,9,136,-75,-61,-24,0,-9,-14,-43,-82
-146,-141,4,143,-75,-68,-14,0,-4,-14,-43,-78
-141,-131,9,136,-75,-61,-14,0,-4,-14,-39,-82
-126,-112,14,119,-70,-48,-24,-9,-14,-24,-43,-92
-117,-107,9,112,-63,-48,-29,-9,-9,-29,-48,-92
-126,-117,9,122,-68,-53,-19,-4,-4,-24,-43,-87
-136,-122,14,129,-75,-53,-9,0,0,-14,-34,-82
-131,-117,14,124,-73,-51,-9,0,4,-4,-34,-82
-136,-117,19,126,-78,-48,-9,4,4,-4,-34,-82
-141,-117,24,129,-82,-46,-4,9,4,0,-29,-78
-136,-117,19,126,-78,-48,-4,4,4,0,-29,-78
-131,-107,24,119,-78,-41,-9,0,0,-4,-34,-78
-131,-107,24,119,-78,-41,-9,4,0,-14,-39,-82
-136,-112,24,124,-80,-43,-4,9,0,-9,-34,-82
-136,-117,19,126,-78,-48,-9,9,4,-4,-29,-82
-126,-107,19,117,-73,-43,-19,0,0,-4,-39,-87
-112,-97,14,104,-63,-41,-14,4,4,-4,-39,-87
-122,-102,19,112,-70,-41,0,19,14,4,-29,-82
-126,-97,29,112,-78,-34,4,24,19,4,-24,-82
-126,-97,29,112,-78,-34,0,19,19,4,-29,-82
-126,-102,24,114,-75,-39,-4,14,14,4,-29,-82
-126,-92,34,109,-80,-29,0,14,19,9,-19,-78
-131,-82,48,107,-90,-17,0,14,24,9,-19,-73
-117,-78,39,97,-78,-19,-4,14,24,9,-24,-73
-97,-68,29,82,-63,-19,-9,9,19,4,-29,-82
-102,-68,34,85,-68,-17,-14,4,19,0,-29,-82
-131,-82,48,107,-90,-17,-4,14,29,4,-24,-78
-131,-82,48,107,-90,-17,-4,24,39,14,-19,-73
-117,-73,43,95,-80,-14,-4,24,34,14,-19,-78
-117,-68,48,92,-82,-9,-4,19,24,9,-19,-78
-122,-68,53,95,-87,-7,-4,19,29,9,-14,-78
-122,-68,53,95,-87,-7,-4,19,29,9,-9,-73
-122,-78,43,100,-82,-17,0,19,29,9,-14,-73
-126,-68,58,97,-92,-4,0,24,39,9,-9,-73
-126,-58,68,92,-97,4,0,24,48,14,-9,-73
-117,-53,63,85,-90,4,-9,19,48,9,-14,-78
-112,-58,53,85,-82,-2,-4,19,39,4,-19,-82
-117,-73,43,95,-80,-14,0,24,43,14,-19,-78
-117,-92,24,104,-70,-34,4,29,48,19,-14,-68
-122,-82,39,102,-80,-21,4,29,53,19,-9,-63
-117,-58,58,87,-87,0,-4,19,53,19,-19,-68
-122,-53,68,87,-95,7,-4,19,48,19,-19,-73
-131,-63,68,97,-100,2,0,19,39,14,-14,-73
-131,-48,82,90,-107,17,4,19,43,19,-9,-68
-117,-29,87,73,-102,29,0,24,53,24,-4,-58
-122,-43,78,82,-100,17,4,34,63,34,0,-48
-131,-58,73,95,-102,7,9,39,68,39,0,-53
-117,-39,78,78,-97,19,14,39,68,39,0,-48
-107,-39,68,73,-87,14,14,43,68,39,0,-48
-112,-58,53,85,-82,-2,9,34,58,29,-4,-53
-122,-53,68,87,-95,7,4,24,48,14,-9,-63
-122,-48,73,85,-97,12,9,29,58,14,0,-58
-122,-53,68,87,-95,7,9,39,63,19,0,-53
-122,-53,68,87,-95,7,4,34,58,19,0,-53
-117,-48,68,82,-92,9,9,34,68,24,0,-53
-122,-43,78,82,-100,17,9,34,73,19,0,-48
-122,-39,82,80,-102,21,9,34,63,14,0,-48
-107,-43,63,75,-85,9,14,34,58,9,0,-48
-107,-39,68,73,-87,14,14,39,58,9,-4,-48
-122,-29,92,75,-107,31,14,39,58,14,-4,-53
-122,-34,87,78,-104,26,14,39,63,19,0,-48
-117,-39,78,78,-97,19,14,39,63,24,9,-43
-112,-34,78,73,-95,21,14,39,68,29,9,-39
-112,-34,78,73,-95,21,14,48,73,39,9,-34
-117,-34,82,75,-100,24,19,43,78,39,4,-39
-112,-34,78,73,-95,21,9,29,73,34,4,-48
-107,-29,78,68,-92,24,9,24,78,34,4,-43
-107,-34,73,70,-90,19,9,29,82,39,4,-39
-107,-34,73,70,-90,19,14,34,82,34,9,-39
-102,-29,73,65,-87,21,14,29,68,29,4,-39
-102,-24,78,63,-90,26,9,29,58,14,-4,-43
-112,-14,97,63,-104,41,4,29,63,14,0,-43
-112,-14,97,63,-104,41,4,24,68,14,0,-48
-107,-19,87,63,-97,34,9,24,63,14,-4,-48
-97,-19,78,58,-87,29,4,19,58,9,-4,-48
-102,-19,82,61,-92,31,4,19,58,14,-4,-48
-117,-19,97,68,-107,39,9,24,63,14,0,-43
-117,-9,107,63,-112,48,4,19,58,9,-4,-48
-112,-14,97,63,-104,41,0,14,58,4,-9,-53
-112,-14,97,63,-104,41,4,14,58,4,-4,-48
-112,-19,92,65,-102,36,9,19,58,4,0,-48
-112,-29,82,70,-97,26,4,9,53,-4,-9,-58
-107,-29,78,68,-92,24,0,4,43,-9,-14,-68
-107,-24,82,65,-95,29,0,9,43,-9,-14,-63
-117,-29,87,73,-102,29,4,14,43,-4,-9,-58
-122,-34,87,78,-104,26,9,14,53,0,-4,-53
-112,-29,82,70,-97,26,9,9,43,-4,-4,-53
-107,-24,82,65,-95,29,9,4,39,-9,-9,-53
-117,-19,97,68,-107,39,9,9,39,-9,-14,-58
-117,-19,97,68,-107,39,4,4,39,-9,-19,-63
-112,-19,92,65,-102,36,4,4,34,-9,-19,-63
-117,-29,87,73,-102,29,4,4,39,-9,-24,-63
-126,-34,92,80,-109,29,4,9,43,-4,-19,-58
-131,-29,102,80,-117,36,4,9,43,0,-14,-53
-122,-29,92,75,-107,31,0,4,43,-4,-19,-53
-122,-34,87,78,-104,26,-4,0,39,-9,-24,-68
-122,-29,92,75,-107,31,-4,-4,39,-14,-24,-68
-122,-39,82,80,-102,21,0,-4,39,-14,-19,-58
-126,-53,73,90,-100,9,4,0,43,-9,-14,-48
-126,-53,73,90,-100,9,4,0,39,-9,-19,-48
-126,-34,92,80,-109,29,0,-4,34,-14,-24,-53
-131,-39,92,85,-112,26,0,-9,34,-19,-29,-53
-131,-58,73,95,-102,7,4,-4,34,-14,-24,-48
-131,-63,68,97,-100,2,9,-4,39,-14,-24,-43
-136,-48,87,92,-112,19,9,-9,29,-19,-24,-48
-136,-43,92,90,-114,24,9,-9,29,-19,-29,-43
-131,-58,73,95,-102,7,14,-4,34,-19,-24,-39
-122,-53,68,87,-95,7,9,-9,29,-19,-29,-43
-126,-43,82,85,-104,19,0,-14,29,-24,-29,-39
-136,-48,87,92,-112,19,9,-9,29,-19,-29,-34
-141,-53,87,97,-114,17,14,-4,24,-14,-24,-29
-141,-58,82,100,-112,12,9,-9,24,-19,-24,-24
-146,-68,78,107,-112,4,9,-19,29,-14,-29,-29
-146,-73,73,109,-109,0,9,-19,29,-14,-29,-24
-146,-63,82,104,-114,9,9,-19,19,-19,-34,-19
-131,-48,82,90,-107,17,4,-24,9,-24,-39,-19
-126,-43,82,85,-104,19,0,-24,9,-29,-43,-19
-146,-53,92,100,-119,19,4,-14,9,-34,-43,-14
-161,-53,107,107,-134,26,9,-14,4,-39,-43,-14
-156,-48,107,102,-131,29,9,-14,4,-34,-34,-9
-136,-48,87,92,-112,19,9,-19,9,-24,-29,-4
-136,-48,87,92,-112,19,9,-24,14,-24,-29,-4
-146,-48,97,97,-122,24,4,-29,19,-29,-29,-9
-141,-39,102,90,-122,31,0,-34,14,-34,-39,-14
-131,-43,87,87,-109,21,0,-29,9,-34,-43,-19
-136,-53,82,95,-109,14,9,-24,19,-24,-39,-9
-146,-58,87,102,-117,14,14,-14,34,-19,-34,-9
-136,-53,82,95,-109,14,14,-14,29,-24,-39,-9
-136,-48,87,92,-112,19,14,-14,29,-24,-39,-4
-136,-53,82,95,-109,14,14,-14,29,-19,-39,-4
-146,-63,82,104,-114,9,19,-9,29,-14,-34,0
-151,-68,82,109,-117,7,24,-9,29,-9,-34,0
-146,-53,92,100,-119,19,19,-14,19,-14,-43,-9
-141,-53,87,97,-114,17,14,-19,14,-19,-43,-9
-151,-63,87,107,-119,12,19,-9,19,-14,-39,-4
-156,-73,82,114,-119,4,24,-9,19,-9,-34,0
-141,-68,73,104,-107,2,19,-14,19,-14,-39,-4
-136,-58,78,97,-107,9,14,-19,19,-19,-43,-9
-146,-58,87,102,-117,14,14,-19,24,-19,-39,-4
-141,-63,78,102,-109,7,19,-14,24,-14,-34,0
-131,-58,73,95,-102,7,19,-14,24,-9,-29,4
-136,-53,82,95,-109,14,9,-24,14,-14,-39,0
-156,-73,82,114,-119,4,9,-24,4,-24,-48,0
-161,-82,78,122,-119,-2,4,-29,0,-34,-53,0
-151,-68,82,109,-117,7,9,-29,4,-29,-48,0
-112,-63,48,87,-80,-7,-9,-19,14,-19,-39,4
-19,-53,-34,36,7,-43,-107,-9,24,-4,-24,9
-82,-58,24,70,-53,-17,-48,-24,34,-4,-29,9
-278,-78,200,178,-239,61,146,-39,34,-19,-58,-4
-214,-63,151,139,-183,43,92,-34,9,-24,-58,-4
-102,-39,63,70,-82,12,-39,-29,0,-14,-43,4
-151,-53,97,102,-124,21,4,-29,9,-14,-39,9
-185,-68,117,126,-151,24,43,-24,14,-14,-43,14
-136,-68,68,102,-102,0,9,-24,9,-19,-43,9
-126,-63,63,95,-95,0,4,-29,4,-29,-48,4
-136,-63,73,100,-104,4,14,-29,9,-29,-48,4
-131,-63,68,97,-100,2,9,-29,14,-19,-43,9
-126,-63,63,95,-95,0,4,-29,14,-19,-43,9
-141,-63,78,102,-109,7,9,-24,14,-19,-48,14
-151,-68,82,109,-117,7,9,-19,14,-19,-43,19
-146,-58,87,102,-117,14,9,-24,14,-19,-39,24
-136,-53,82,95,-109,14,0,-29,9,-29,-43,19
-136,-58,78,97,-107,9,-4,-29,4,-29,-43,14
-136,-68,68,102,-102,0,0,-29,4,-24,-43,9
-136,-68,68,102,-102,0,-4,-29,9,-24,-39,14
-126,-63,63,95,-95,0,-9,-39,9,-29,-43,14
-117,-48,68,82,-92,9,-14,-43,0,-34,-43,14
-141,-39,102,90,-122,31,-9,-39,4,-29,-39,24
-156,-39,117,97,-136,39,-4,-34,14,-9,-34,34
-141,-48,92,95,-117,21,0,-34,19,0,-29,34
-126,-58,68,92,-97,4,0,-34,19,-4,-34,34
-131,-43,87,87,-109,21,-4,-39,14,-14,-34,34
-136,-24,112,80,-124,43,-9,-43,14,-14,-34,34
-136,-34,102,85,-119,34,-9,-39,19,-14,-34,34
-131,-43,87,87,-109,21,-9,-39,19,-14,-34,34
-136,-39,97,87,-117,29,-9,-39,19,-14,-34,34
-146,-39,107,92,-126,34,-4,-34,24,-14,-39,34
-146,-43,102,95,-124,29,0,-34,24,-14,-39,34
-141,-43,97,92,-119,26,0,-34,19,-14,-39,34
-146,-39,107,92,-126,34,4,-34,19,-14,-39,34
-161,-39,122,100,-141,41,9,-29,24,-14,-34,39
-165,-43,122,104,-143,39,9,-29,29,-9,-34,43
-141,-39,102,90,-122,31,9,-34,19,-14,-34,39
-136,-39,97,87,-117,29,9,-39,14,-19,-39,34
-156,-63,92,109,-124,14,9,-34,24,-14,-39,39
-151,-68,82,109,-117,7,9,-34,24,-19,-39,39
-136,-53,82,95,-109,14,4,-43,14,-24,-48,34
-136,-39,97,87,-117,29,0,-48,9,-29,-53,29
-146,-39,107,92,-126,34,0,-48,9,-29,-48,29
-156,-53,102,104,-129,24,4,-43,9,-24,-43,34
-151,-63,87,107,-119,12,14,-39,9,-24,-43,39
-146,-53,92,100,-119,19,14,-39,4,-29,-48,34
-156,-48,107,102,-131,29,14,-39,4,-34,-53,39
-165,-68,97,117,-131,14,24,-39,4,-29,-48,43
-161,-73,87,117,-124,7,24,-43,0,-34,-48,43
-151,-68,82,109,-117,7,19,-43,-4,-39,-53,43
-156,-68,87,112,-122,9,19,-43,0,-39,-53,43
-161,-73,87,117,-124,7,14,-43,0,-39,-53,43
-151,-63,87,107,-119,12,4,-48,-4,-43,-53,43
-146,-58,87,102,-117,14,4,-53,-4,-48,-53,43
-165,-73,92,119,-129,9,14,-48,-4,-43,-48,48
-180,-78,102,129,-141,12,19,-48,-9,-43,-53,48
-175,-63,112,119,-143,24,14,-53,-9,-43,-58,48
-165,-68,97,117,-131,14,14,-53,0,-34,-53,53
-161,-73,87,117,-124,7,14,-53,0,-34,-53,53
-161,-68,92,114,-126,12,14,-53,-4,-34,-58,48
-161,-73,87,117,-124,7,9,-58,-9,-43,-58,43
-161,-78,82,119,-122,2,0,-63,-19,-48,-58,39
-165,-78,87,122,-126,4,0,-63,-19,-48,-63,34
-161,-78,82,119,-122,2,0,-58,-19,-48,-63,34
-156,-78,78,117,-117,0,-4,-63,-24,-48,-68,29
-156,-82,73,119,-114,-4,-4,-73,-24,-53,-73,19
-161,-82,78,122,-119,-2,4,-68,-14,-43,-68,19
-165,-63,102,114,-134,19,4,-58,-4,-34,-58,29
-185,-53,131,119,-158,39,0,-58,-9,-29,-58,19
-185,-58,126,122,-156,34,4,-63,-14,-39,-58,14
-170,-58,112,114,-141,26,4,-58,-9,-39,-53,19
-156,-58,97,107,-126,19,4,-53,-4,-34,-48,29
-156,-58,97,107,-126,19,9,-53,-9,-34,-48,29
-156,-58,97,107,-126,19,14,-48,-14,-34,-48,24
-146,-63,82,104,-114,9,14,-43,-9,-34,-53,24
-141,-63,78,102,-109,7,14,-48,-14,-34,-53,24
-146,-63,82,104,-114,9,19,-48,-9,-29,-53,19
-136,-68,68,102,-102,0,24,-43,-4,-34,-53,19
-122,-73,48,97,-85,-12,24,-39,-9,-39,-58,14
-131,-73,58,102,-95,-7,29,-34,-9,-34,-63,14
-141,-82,58,112,-100,-12,34,-34,-4,-29,-58,24
-151,-78,73,114,-112,-2,34,-29,-4,-29,-58,19
-146,-78,68,112,-107,-4,29,-34,-4,-29,-58,19
-136,-78,58,107,-97,-9,29,-29,4,-19,-48,34
-136,-78,58,107,-97,-9,34,-19,14,-4,-39,48
-151,-78,73,114,-112,-2,39,-14,24,0,-39,53
-151,-63,87,107,-119,12,39,-19,14,-9,-43,43
-141,-53,87,97,-114,17,34,-24,9,-14,-53,43
-146,-63,82,104,-114,9,43,-14,14,-14,-48,43
-146,-63,82,104,-114,9,43,-14,14,-9,-48,43
-146,-58,87,102,-117,14,43,-14,9,-14,-48,43
-151,-53,97,102,-124,21,43,-14,9,-14,-48,39
-161,-53,107,107,-134,26,48,-14,9,-14,-48,39
-161,-58,102,109,-131,21,53,-9,9,-14,-48,43
-156,-63,92,109,-124,14,48,-9,14,-4,-43,43
-151,-53,97,102,-124,21,43,-14,19,-4,-43,39
-165,-53,112,109,-139,29,48,-14,19,-4,-48,43
-185,-68,117,126,-151,24,58,-4,24,0,-43,53
-180,-68,112,124,-146,21,53,-14,0,-14,-53,53
-239,-122,117,180,-178,-2,29,-146,-209,-170,-156,-9
-287,-161,126,224,-207,-17,19,-234,-346,-268,-219,-43
-107,-9,97,58,-102,43,73,78,165,102,39,92
-9,73,82,-31,-46,78,92,229,414,287,165,156
-136,-29,107,82,-122,39,48,-4,39,14,-24,53
-185,-58,126,122,-156,34,39,-68,-68,-63,-78,24
-151,-14,136,82,-143,61,53,14,82,43,-4,73
-161,-34,126,97,-143,46,48,-9,34,24,-24,63
-165,-53,112,109,-139,29,43,-43,-19,-19,-53,53
-136,-39,97,87,-117,29,53,-14,24,14,-29,68
-136,-34,102,85,-119,34,58,-9,34,19,-19,78
-141,-39,102,90,-122,31,48,-34,4,4,-29,68
-122,-39,82,80,-102,21,34,-39,-4,-4,-34,58
-107,-48,58,78,-82,4,24,-43,-24,-4,-34,58
-107,-63,43,85,-75,-9,9,-63,-63,-14,-34,63
-97,-68,29,82,-63,-19,-9,-82,-102,-34,-39,58
-87,-78,9,82,-48,-34,-14,-82,-122,-48,-43,53
-78,-97,-19,87,-29,-58,-19,-82,-141,-63,-53,48
-58,-112,-53,85,-2,-82,-29,-87,-161,-73,-48,48
-48,-122,-73,85,12,-97,-39,-87,-165,-78,-48,53
-34,-122,-87,78,26,-104,-53,-97,-195,-102,-58,48
0,-122,-122,61,61,-122,-82,-126,-253,-131,-73,39
24,-126,-151,51,87,-139,-107,-146,-302,-151,-73,39
34,-151,-185,58,109,-168,-131,-156,-341,-165,-73,43
58,-170,-229,56,143,-200,-170,-190,-395,-190,-73,48
102,-180,-283,39,192,-231,-219,-234,-458,-224,-82,43
156,-195,-351,19,253,-273,-258,-263,-522,-248,-87,48
204,-224,-429,9,317,-326,-287,-278,-570,-268,-87,53
258,-253,-512,-2,385,-383,-336,-331,-639,-302,-97,48
317,-283,-600,-17,458,-441,-395,-400,-736,-351,-117,39
370,-331,-702,-19,536,-517,-463,-473,-824,-409,-131,39
419,-390,-810,-14,614,-600,-522,-551,-893,-448,-131,43
483,-448,-932,-17,707,-690,-575,-610,-976,-497,-146,34
541,-497,-1039,-21,790,-768,-634,-678,-1063,-556,-175,4
610,-527,-1137,-41,873,-832,-717,-766,-1146,-605,-209,-19
658,-561,-1220,-48,939,-890,-800,-863,-1215,-668,-248,-39
702,-619,-1322,-41,1012,-971,-854,-946,-1293,-741,-297,-73
732,-678,-1410,-26,1071,-1044,-888,-1000,-1356,-814,-356,-112
736,-741,-1478,2,1107,-1110,-907,-1024,-1405,-888,-405,-146
741,-810,-1551,34,1146,-1180,-912,-1039,-1449,-951,-453,-180
756,-863,-1620,53,1188,-1241,-912,-1049,-1503,-1015,-497,-214
766,-907,-1673,70,1220,-1290,-922,-1073,-1546,-1068,-546,-248
775,-951,-1727,87,1251,-1339,-951,-1117,-1581,-1112,-590,-287
785,-995,-1781,104,1283,-1388,-990,-1195,-1625,-1166,-639,-317
790,-1015,-1805,112,1298,-1410,-1039,-1263,-1673,-1215,-688,-351
810,-1039,-1849,114,1329,-1444,-1078,-1307,-1698,-1249,-717,-366
824,-1068,-1893,122,1359,-1481,-1093,-1332,-1708,-1268,-736,-375
814,-1102,-1917,143,1366,-1510,-1093,-1346,-1717,-1288,-761,-395
814,-1117,-1932,151,1373,-1525,-1088,-1342,-1722,-1312,-785,-409
824,-1112,-1937,143,1381,-1525,-1093,-1342,-1722,-1322,-795,-414
824,-1107,-1932,141,1378,-1520,-1083,-1337,-1703,-1307,-805,-419
824,-1088,-1912,131,1368,-1500,-1073,-1337,-1673,-1302,-814,-429
824,-1083,-1908,129,1366,-1495,-1063,-1332,-1654,-1302,-829,-439
829,-1063,-1893,117,1361,-1478,-1049,-1327,-1620,-1288,-834,-434
854,-1024,-1878,85,1366,-1451,-1039,-1288,-1551,-1239,-805,-414
873,-980,-1854,53,1363,-1417,-1019,-1234,-1488,-1195,-780,-400
883,-932,-1815,24,1349,-1373,-995,-1176,-1434,-1161,-771,-400
888,-883,-1771,-2,1329,-1327,-956,-1122,-1366,-1122,-751,-390
888,-854,-1742,-17,1315,-1298,-922,-1078,-1302,-1073,-727,-380
878,-839,-1717,-19,1298,-1278,-893,-1054,-1259,-1054,-722,-380
849,-819,-1668,-14,1259,-1244,-858,-1034,-1239,-1044,-732,-390
819,-771,-1590,-24,1205,-1180,-824,-1010,-1190,-1019,-717,-380
800,-722,-1522,-39,1161,-1122,-785,-966,-1132,-980,-697,-361
756,-697,-1454,-29,1105,-1076,-746,-917,-1088,-946,-697,-356
697,-678,-1376,-9,1037,-1027,-707,-878,-1034,-922,-692,-356
668,-653,-1322,-7,995,-988,-673,-834,-985,-888,-683,-356
644,-639,-1283,-2,963,-961,-644,-805,-946,-863,-678,-366
610,-629,-1239,9,924,-934,-619,-795,-922,-854,-678,-366
585,-624,-1210,19,897,-917,-590,-775,-893,-819,-653,-351
575,-605,-1180,14,878,-893,-566,-736,-849,-775,-624,-336
566,-551,-1117,-7,841,-834,-541,-707,-805,-741,-605,-331
546,-517,-1063,-14,805,-790,-507,-663,-746,-702,-590,-317
517,-507,-1024,-4,771,-766,-463,-600,-688,-663,-566,-307
483,-478,-961,-2,722,-719,-429,-551,-644,-624,-546,-292
448,-434,-883,-7,666,-658,-405,-517,-600,-585,-507,-263
419,-419,-839,0,629,-629,-370,-473,-536,-531,-463,-229
375,-405,-780,14,578,-592,-331,-429,-483,-483,-429,-200
331,-375,-707,21,519,-541,-302,-405,-453,-448,-400,-185
297,-341,-639,21,468,-490,-278,-385,-424,-419,-385,-175
273,-302,-575,14,424,-439,-248,-351,-380,-385,-366,-161
229,-263,-492,17,361,-378,-204,-307,-336,-346,-336,-136
180,-229,-409,24,295,-319,-175,-268,-278,-302,-307,-102
151,-209,-361,29,256,-285,-151,-234,-234,-263,-278,-73
122,-190,-312,34,217,-251,-126,-200,-195,-229,-248,-48
78,-165,-244,43,161,-204,-92,-165,-161,-195,-214,-29
48,-141,-190,46,119,-165,-68,-141,-126,-161,-185,-14
29,-122,-151,46,90,-136,-48,-122,-97,-131,-165,-4
-14,-97,-82,56,34,-90,-19,-102,-53,-92,-146,14
-73,-68,4,70,-39,-31,14,-68,-4,-43,-117,43
-107,-43,63,75,-85,9,39,-29,34,-14,-97,63
-122,-34,87,78,-104,26,53,0,58,0,-82,73
-146,-34,112,90,-129,39,73,19,68,14,-68,78
-170,-39,131,104,-151,46,78,29,73,24,-58,87
-180,-34,146,107,-163,56,87,34,82,34,-43,92
-190,-24,165,107,-178,70,102,43,87,39,-39,92
-200,-29,170,114,-185,70,107,39,87,34,-43,82
-204,-39,165,122,-185,63,107,39,92,39,-43,82
-219,-34,185,126,-202,75,117,53,107,48,-34,87
-234,-14,219,124,-226,102,117,58,112,43,-34,92
-234,-4,229,119,-231,112,117,58,117,48,-34,92
-229,0,229,114,-229,114,117,63,126,58,-29,102
-229,0,229,114,-229,114,122,73,126,63,-24,107
-234,-4,229,119,-231,112,126,78,122,63,-24,107
-224,-9,214,117,-219,102,126,73,122,68,-24,107
-219,4,224,107,-222,114,126,73,136,78,-19,107
-234,9,244,112,-239,126,136,78,151,87,-9,117
-253,9,263,122,-258,136,146,82,161,97,-4,122
-253,24,278,114,-265,151,146,82,156,97,-4,122
-253,24,278,114,-265,151,146,87,161,97,-9,122
-248,24,273,112,-261,148,146,92,156,97,-9,117
-253,43,297,104,-275,170,146,92,156,97,-4,117
-253,48,302,102,-278,175,146,92,156,97,-9,117
-244,29,273,107,-258,151,151,97,161,102,-9,112
-248,19,268,114,-258,143,151,97,161,102,-9,107
-268,-4,263,136,-265,129,151,102,161,102,-9,102
-273,-24,248,148,-261,112,156,107,165,107,-9,97
-278,-14,263,146,-270,124,156,102,161,107,-4,97
-283,-4,278,143,-280,136,156,102,161,107,-4,97
-278,-4,273,141,-275,134,156,107,161,107,-4,97
-273,-4,268,139,-270,131,161,107,161,112,-4,92
-273,0,273,136,-273,136,156,102,165,112,-4,97
-273,19,292,126,-283,156,156,102,161,112,0,97
-278,34,312,122,-295,173,161,107,165,117,4,107
-278,43,322,117,-300,183,165,117,180,126,14,112
-268,53,322,107,-295,187,165,112,185,126,14,107
-278,53,331,112,-305,192,161,112,185,126,9,92
-283,43,326,119,-305,185,175,112,185,126,4,82
-283,43,326,119,-305,185,185,126,190,131,14,92
-283,43,326,119,-305,185,180,126,190,131,14,92
-283,58,341,112,-312,200,175,122,195,131,14,92
-287,63,351,112,-319,207,175,122,204,141,19,92
-283,63,346,109,-314,204,175,126,204,141,9,82
-283,58,341,112,-312,200,180,136,195,131,9,73
-283,63,346,109,-314,204,190,146,214,146,24,87
-287,87,375,100,-331,231,190,156,234,161,39,92
-287,112,400,87,-344,256,185,151,234,165,34,87
-278,102,380,87,-329,241,195,161,239,165,39,92
-263,92,356,85,-309,224,200,165,244,175,43,97
-263,97,361,82,-312,229,204,170,244,175,43,97
-273,97,370,87,-322,234,214,175,248,180,48,102
-268,102,370,82,-319,236,214,175,258,190,48,102
-263,107,370,78,-317,239,214,170,258,195,53,102
-273,112,385,80,-329,248,224,175,263,195,58,102
-283,117,400,82,-341,258,224,180,273,204,63,102
-278,122,400,78,-339,261,224,190,283,214,73,107
-263,131,395,65,-329,263,234,204,297,224,82,112
-258,151,409,53,-334,280,244,219,302,224,87,112
-263,165,429,48,-346,297,248,224,312,229,87,122
-268,180,448,43,-358,314,248,224,322,234,92,131
-258,185,444,36,-351,314,248,224,341,253,102,146
-268,180,448,43,-358,314,263,229,346,263,102,146
-283,190,473,46,-378,331,263,229,356,263,97,141
-287,214,502,36,-395,358,268,234,366,273,107,146
-278,214,492,31,-385,353,278,253,385,292,126,156
-278,209,488,34,-383,348,287,268,385,292,131,161
-283,224,507,29,-395,366,292,278,390,292,141,165
-287,234,522,26,-405,378,297,287,405,302,146,170
-278,244,522,17,-400,383,297,292,414,307,146,165
-273,258,531,7,-402,395,297,292,414,317,146,165
-273,268,541,2,-407,405,312,297,439,336,156,175
-273,283,556,-4,-414,419,322,307,463,361,175,185
-278,297,575,-9,-427,436,331,322,473,366,180,195
-273,302,575,-14,-424,439,331,336,478,370,185,200
-278,302,580,-12,-429,441,336,346,492,370,190,204
-287,297,585,-4,-436,441,341,366,497,380,190,204
-283,307,590,-12,-436,448,341,370,502,390,200,209
-278,326,605,-24,-441,466,346,370,517,405,209,219
-278,331,610,-26,-444,470,346,370,531,414,224,219
-273,336,610,-31,-441,473,346,380,546,429,229,219
-273,351,624,-39,-448,488,361,400,556,448,239,219
-273,356,629,-41,-451,492,370,414,566,458,248,219
-278,361,639,-41,-458,500,380,429,580,473,258,234
-287,366,653,-39,-470,509,380,434,605,492,273,239
-287,375,663,-43,-475,519,390,439,619,502,283,244
-268,385,653,-58,-461,519,395,448,629,507,292,244
-253,400,653,-73,-453,527,405,468,634,512,302,244
-253,405,658,-75,-456,531,409,488,649,531,312,253
-253,409,663,-78,-458,536,409,497,663,541,322,258
-248,409,658,-80,-453,534,405,502,673,546,331,258
-239,414,653,-87,-446,534,409,507,683,556,336,258
-244,419,663,-87,-453,541,414,517,707,580,351,263
-239,439,678,-100,-458,558,414,527,722,590,361,268
-219,468,688,-124,-453,578,405,527,727,600,370,268
-195,463,658,-134,-427,561,400,536,736,605,375,278
-190,453,644,-131,-417,549,405,551,741,619,390,287
-190,468,658,-139,-424,563,414,561,746,624,400,297
-185,483,668,-148,-427,575,414,566,756,639,409,302
-165,497,663,-165,-414,580,409,566,766,644,414,307
-146,497,644,-175,-395,570,409,566,771,653,419,307
-141,488,629,-173,-385,558,414,585,775,658,424,312
-136,483,619,-173,-378,551,414,600,775,653,434,307
-126,483,610,-178,-368,546,414,600,761,644,429,302
-112,488,600,-187,-356,544,409,600,761,649,429,307
-97,478,575,-190,-336,527,405,600,775,653,439,307
-87,453,541,-183,-314,497,409,614,775,653,444,297
-73,448,522,-187,-297,485,405,614,761,644,439,292
-63,463,527,-200,-295,495,395,605,756,644,444,292
-58,473,531,-207,-295,502,385,595,746,634,439,292
-43,468,512,-212,-278,490,385,600,741,629,434,292
-19,468,488,-224,-253,478,375,600,736,629,429,287
-9,468,478,-229,-244,473,361,595,727,629,429,292
-9,458,468,-224,-239,463,351,585,717,619,429,287
-4,448,453,-222,-229,451,346,575,702,610,429,278
24,453,429,-239,-202,441,336,570,692,595,424,273
53,444,390,-248,-168,417,331,561,673,590,419,268
48,414,366,-231,-158,390,326,556,668,580,409,263
43,400,356,-222,-156,378,322,551,658,566,405,258
63,390,326,-226,-131,358,307,541,644,551,395,253
87,390,302,-239,-107,346,292,522,619,536,385,244
92,395,302,-244,-104,348,278,502,595,522,375,234
92,390,297,-241,-102,344,263,483,570,502,366,234
97,375,278,-236,-90,326,253,468,551,478,356,229
117,361,244,-239,-63,302,248,448,527,458,336,224
117,346,229,-231,-56,287,244,434,517,444,326,219
112,331,219,-222,-53,275,234,424,507,434,317,219
112,331,219,-222,-53,275,219,400,488,424,317,214
126,331,204,-229,-39,268,204,375,468,409,302,200
136,322,185,-229,-24,253,190,361,458,395,287,185
136,312,175,-224,-19,244,180,356,429,375,273,175
136,302,165,-219,-14,234,175,346,385,346,253,161
146,297,151,-222,-2,224,170,326,366,326,239,151
151,283,131,-217,9,207,161,307,356,322,234,146
136,258,122,-197,7,190,156,292,346,307,224,141
136,248,112,-192,12,180,151,283,336,292,209,136
136,253,117,-195,9,185,141,268,322,273,195,126
131,244,112,-187,9,178,131,248,297,253,180,117
126,214,87,-170,19,151,136,239,283,239,180,117
122,200,78,-161,21,139,136,234,278,234,175,107
131,200,68,-165,31,134,126,219,263,214,156,92
131,195,63,-163,34,129,117,200,248,204,141,73
117,175,58,-146,29,117,117,190,234,195,131,68
117,170,53,-143,31,112,117,190,224,185,122,63
131,185,53,-158,39,119,107,180,214,175,117,58
126,175,48,-151,39,112,102,170,195,165,107,43
112,156,43,-134,34,100,97,161,180,156,92,34
112,161,48,-136,31,104,87,146,170,146,82,24
112,165,53,-139,29,109,82,131,165,141,78,19
112,146,34,-129,39,90,87,136,170,146,82,24
107,141,34,-124,36,87,92,136,170,146,82,29
97,156,58,-126,19,107,82,122,151,131,73,24
92,151,58,-122,17,104,78,107,131,122,68,14
102,141,39,-122,31,90,82,107,136,117,68,19
102,136,34,-119,34,85,87,117,131,112,68,19
97,136,39,-117,29,87,92,122,126,107,68,19
97,131,34,-114,31,82,92,126,122,102,63,19
107,126,19,-117,43,73,92,122,122,97,58,19
107,117,9,-112,48,63,92,122,112,87,53,14
92,92,0,-92,46,46,97,122,102,78,48,4
87,78,-9,-82,48,34,97,122,97,78,43,9
87,78,-9,-82,48,34,92,117,102,78,43,14
87,87,0,-87,43,43,87,107,97,73,34,9
92,112,19,-102,36,65,78,97,87,68,29,9
92,126,34,-109,29,80,73,87,87,58,29,9
87,112,24,-100,31,68,73,82,78,53,29,4
87,102,14,-95,36,58,73,82,73,53,24,4
87,117,29,-102,29,73,78,82,73,53,19,0
87,122,34,-104,26,78,78,82,82,53,14,0
87,112,24,-100,31,68,73,82,82,53,19,0
87,102,14,-95,36,58,73,78,73,53,19,0
87,102,14,-95,36,58,82,87,78,53,19,0
82,102,19,-92,31,61,82,92,92,63,24,4
78,102,24,-90,26,63,82,87,87,63,19,0
78,112,34,-95,21,73,82,82,87,58,24,0
73,122,48,-97,12,85,87,82,97,68,34,4
58,117,58,-87,0,87,82,82,97,68,29,0
63,117,53,-90,4,85,82,82,87,68,19,-9
73,117,43,-95,14,80,87,92,87,68,19,-9
68,112,43,-90,12,78,82,92,87,63,19,-9
68,107,39,-87,14,73,82,92,82,63,24,-4
73,102,29,-87,21,65,87,97,87,73,34,0
78,102,24,-90,26,63,87,102,92,68,39,0
78,117,39,-97,19,78,87,97,97,68,39,0
68,126,58,-97,4,92,82,97,92,63,34,-4
68,126,58,-97,4,92,82,92,82,58,29,-4
73,131,58,-102,7,95,78,82,82,53,29,-9
73,141,68,-107,2,104,78,78,97,63,29,-9
73,131,58,-102,7,95,82,92,107,68,39,-4
73,122,48,-97,12,85,87,102,107,68,39,-4
78,131,53,-104,12,92,82,97,97,63,29,-14
68,146,78,-107,-4,112,78,92,97,68,24,-14
53,141,87,-97,-17,114,87,97,107,78,34,-9
53,126,73,-90,-9,100,92,102,107,82,43,0
63,122,58,-92,2,90,92,97,107,78,48,-4
63,126,63,-95,0,95,92,92,107,78,48,-4
58,126,68,-92,-4,97,92,97,117,78,48,-4
58,126,68,-92,-4,97,97,102,112,78,43,-4
48,131,82,-90,-17,107,97,97,102,73,34,-14
58,141,82,-100,-12,112,87,87,97,73,34,-14
58,136,78,-97,-9,107,87,97,112,87,34,-9
48,126,78,-87,-14,102,97,102,122,87,34,-9
48,126,78,-87,-14,102,97,102,107,82,24,-14
58,117,58,-87,0,87,97,107,112,92,34,-4
58,117,58,-87,0,87,97,112,126,107,48,14
53,131,78,-92,-12,104,87,107,131,102,53,14
53,141,87,-97,-17,114,87,97,122,97,48,9
58,131,73,-95,-7,102,87,102,117,92,48,14
58,122,63,-90,-2,92,97,107,112,87,43,14
39,117,78,-78,-19,97,97,112,117,87,39,9
24,126,102,-75,-39,114,97,112,122,92,39,9
29,141,112,-85,-41,126,92,102,122,87,43,14
43,141,97,-92,-26,119,92,102,117,82,43,14
48,141,92,-95,-21,117,92,107,117,82,43,14
53,146,92,-100,-19,119,92,112,122,87,48,19
53,146,92,-100,-19,119,92,112,126,87,48,19
53,146,92,-100,-19,119,92,112,126,92,53,14
48,151,102,-100,-26,126,97,112,131,102,58,14
48,146,97,-97,-24,122,97,117,136,102,58,9
48,141,92,-95,-21,117,102,117,131,102,58,9
48,141,92,-95,-21,117,102,117,131,102,58,14
43,151,107,-97,-31,129,97,107,126,97,53,9
39,141,102,-90,-31,122,97,107,131,97,48,4
34,122,87,-78,-26,104,107,117,141,107,58,14
43,131,87,-87,-21,109,102,117,136,117,68,14
43,146,102,-95,-29,124,92,107,122,117,58,4
39,141,102,-90,-31,122,92,107,122,112,53,4
48,136,87,-92,-19,112,92,102,126,117,53,9
48,141,92,-95,-21,117,97,107,131,117,63,14
43,136,92,-90,-24,114,102,107,136,117,68,14
39,136,97,-87,-29,117,102,107,136,122,68,14
39,131,92,-85,-26,112,97,112,136,122,63,9
43,122,78,-82,-17,100,97,112,131,122,68,9
43,126,82,-85,-19,104,97,112,136,122,63,4
39,131,92,-85,-26,112,87,102,131,117,58,0
34,136,102,-85,-34,119,82,92,131,117,53,0
39,131,92,-85,-26,112,87,92,131,117,58,0
43,131,87,-87,-21,109,92,97,131,117,58,0
39,126,87,-82,-24,107,92,102,122,107,53,-4
29,117,87,-73,-29,102,102,107,122,102,53,0
29,112,82,-70,-26,97,107,112,117,102,53,0
39,126,87,-82,-24,107,102,102,112,97,58,0
39,131,92,-85,-26,112,92,97,107,87,58,-4
34,126,92,-80,-29,109,87,102,112,92,58,-4
39,131,92,-85,-26,112,87,97,112,97,58,-9
43,156,112,-100,-34,134,78,82,97,87,48,-9
43,156,112,-100,-34,134,78,82,102,92,53,-4
39,146,107,-92,-34,126,82,92,122,107,63,4
53,136,82,-95,-14,109,78,92,122,112,63,9
63,131,68,-97,-2,100,78,87,102,102,58,4
48,117,68,-82,-9,92,87,97,112,107,68,14
34,97,63,-65,-14,80,92,107,122,112,78,19
34,97,63,-65,-14,80,92,102,112,112,68,14
39,107,68,-73,-14,87,92,97,107,107,58,0
29,107,78,-68,-24,92,92,92,107,107,53,-4
24,112,87,-68,-31,100,82,82,107,102,48,-4
34,117,82,-75,-24,100,82,82,112,102,43,-9
43,122,78,-82,-17,100,82,78,117,107,48,-9
48,122,73,-85,-12,97,82,78,117,107,53,-9
34,122,87,-78,-26,104,87,82,107,102,48,-4
29,122,92,-75,-31,107,97,87,97,92,48,0
39,126,87,-82,-24,107,97,82,92,87,48,-4
43,117,73,-80,-14,95,92,82,92,82,48,-4
39,112,73,-75,-17,92,97,82,97,82,48,0
39,112,73,-75,-17,92,97,87,102,92,48,0
39,107,68,-73,-14,87,97,87,97,87,43,-4
39,97,58,-68,-9,78,92,87,82,82,39,-4
39,97,58,-68,-9,78,87,82,78,78,43,0
39,107,68,-73,-14,87,82,78,73,73,43,-4
39,126,87,-82,-24,107,78,68,78,68,39,-9
43,131,87,-87,-21,109,78,68,78,63,39,-4
48,136,87,-92,-19,112,87,78,82,73,53,9
43,136,92,-90,-24,114,92,82,78,78,58,14
43,131,87,-87,-21,109,82,73,78,68,53,4
58,141,82,-100,-12,112,78,63,82,68,48,-4
63,141,78,-102,-7,109,87,73,92,82,53,0
53,136,82,-95,-14,109,87,78,97,92,58,4
48,131,82,-90,-17,107,78,73,97,97,53,0
48,126,78,-87,-14,102,78,73,102,92,53,-4
48,122,73,-85,-12,97,82,78,102,87,43,-14
43,122,78,-82,-17,100,92,82,87,87,39,-14
43,131,87,-87,-21,109,102,78,87,87,43,-9
48,131,82,-90,-17,107,102,78,97,92,48,-9
48,122,73,-85,-12,97,102,78,92,87,48,-14
43,117,73,-80,-14,95,107,78,92,92,48,-14
48,131,82,-90,-17,107,97,78,97,97,53,-14
53,136,82,-95,-14,109,92,73,97,97,58,-9
53,122,68,-87,-7,95,97,78,92,92,63,-9
43,122,78,-82,-17,100,97,87,92,87,63,-9
48,126,78,-87,-14,102,97,82,87,82,58,-14
53,136,82,-95,-14,109,92,78,82,78,48,-19
48,126,78,-87,-14,102,92,82,82,78,43,-24
39,117,78,-78,-19,97,97,87,87,87,48,-24
39,126,87,-82,-24,107,92,87,97,97,48,-19
43,136,92,-90,-24,114,92,82,112,107,53,-14
43,131,87,-87,-21,109,92,78,112,112,48,-14
48,136,87,-92,-19,112,87,73,102,107,53,-14
53,141,87,-97,-17,114,82,73,107,107,58,-9
39,126,87,-82,-24,107,92,78,97,92,53,-19
43,112,68,-78,-12,90,87,73,78,73,43,-29
48,117,68,-82,-9,92,87,73,82,82,48,-24
43,117,73,-80,-14,95,92,73,92,97,53,-19
53,136,82,-95,-14,109,82,73,87,92,48,-19
58,146,87,-102,-14,117,78,68,82,87,43,-24
43,122,78,-82,-17,100,87,73,82,92,48,-19
29,92,63,-61,-17,78,107,78,92,97,63,-9
34,117,82,-75,-24,100,102,73,97,92,63,-4
58,151,92,-104,-17,122,92,73,92,82,53,-9
68,136,68,-102,0,102,87,73,68,73,48,-14
48,97,48,-73,0,73,92,73,53,63,39,-19
43,92,48,-68,-2,70,92,73,58,63,43,-24
48,107,58,-78,-4,82,97,78,73,82,53,-19
78,122,43,-100,17,82,73,78,92,97,63,-9
180,161,-19,-170,100,70,-29,82,97,112,82,0
117,161,43,-139,36,102,29,73,87,102,73,0
-78,112,190,-17,-134,151,219,53,73,78,34,-4
-19,117,136,-48,-78,126,165,63,87,82,39,0
107,131,24,-119,41,78,39,82,102,92,58,0
53,112,58,-82,-2,85,87,82,92,78,43,-14
14,112,97,-63,-41,104,122,73,68,68,34,-24
48,122,73,-85,-12,97,87,73,82,78,48,-14
53,117,63,-85,-4,90,92,78,92,87,53,-14
43,122,78,-82,-17,100,107,73,92,82,48,-9
53,126,73,-90,-9,100,87,73,82,82,48,-4
58,126,68,-92,-4,97,78,73,82,87,53,-4
58,126,68,-92,-4,97,78,73,87,87,53,0
63,131,68,-97,-2,100,78,73,82,73,43,-4
63,131,68,-97,-2,100,78,73,68,68,48,-9
63,131,68,-97,-2,100,78,68,73,73,53,-4
68,131,63,-100,2,97,73,58,82,73,58,-4
68,136,68,-102,0,102,68,58,82,73,58,-4
63,136,73,-100,-4,104,68,58,82,73,63,-4
78,136,58,-107,9,97,63,53,73,63,58,0
82,136,53,-109,14,95,58,48,63,63,53,0
68,131,63,-100,2,97,63,53,58,73,58,4
63,131,68,-97,-2,100,73,68,63,82,68,4
63,136,73,-100,-4,104,73,68,73,82,68,0
63,141,78,-102,-7,109,73,68,82,78,63,-4
63,156,92,-109,-14,124,78,68,97,87,63,0
58,156,97,-107,-19,126,82,63,112,97,63,0
63,146,82,-104,-9,114,78,53,107,97,53,-9
68,146,78,-107,-4,112,78,48,92,92,48,-19
53,146,92,-100,-19,119,92,53,87,87,53,-9
39,146,107,-92,-34,126,92,63,92,87,58,-4
43,141,97,-92,-26,119,87,63,87,87,58,-9
58,136,78,-97,-9,107,87,58,82,78,58,-9
53,146,92,-100,-19,119,87,53,78,82,58,-4
48,156,107,-102,-29,131,82,53,87,92,58,0
58,156,97,-107,-19,126,78,53,97,107,58,0
73,151,78,-112,-2,114,78,48,102,112,63,-4
73,156,82,-114,-4,119,78,48,107,112,68,0
73,175,102,-124,-14,139,78,53,112,117,73,9
68,165,97,-117,-14,131,78,53,107,112,73,4
63,146,82,-104,-9,114,87,53,97,97,73,4
58,146,87,-102,-14,117,92,63,102,97,73,9
63,146,82,-104,-9,114,102,68,102,97,73,9
68,136,68,-102,0,102,102,73,82,82,63,4
73,141,68,-107,2,104,97,63,68,73,53,-4
73,151,78,-112,-2,114,92,48,68,82,48,-9
73,146,73,-109,0,109,92,53,78,92,53,-4
73,117,43,-95,14,80,97,63,82,107,63,0
68,117,48,-92,9,82,97,58,87,102,58,0
68,146,78,-107,-4,112,92,48,73,87,53,0
73,161,87,-117,-7,124,87,48,78,87,63,9
68,156,87,-112,-9,122,97,58,87,97,63,14
63,146,82,-104,-9,114,97,53,68,78,48,4
73,151,78,-112,-2,114,87,43,53,68,43,0
78,151,73,-114,2,112,82,39,63,78,53,4
73,151,78,-112,-2,114,87,39,63,82,58,4
68,151,82,-109,-7,117,92,43,48,73,58,0
78,151,73,-114,2,112,87,48,53,78,53,0
73,156,82,-114,-4,119,87,48,68,92,58,4
53,161,107,-107,-26,134,92,39,68,97,58,4
53,151,97,-102,-21,124,92,34,63,87,58,0
63,141,78,-102,-7,109,97,39,58,87,53,0
58,141,82,-100,-12,112,102,43,63,87,53,0
58,141,82,-100,-12,112,97,43,63,87,58,0
68,131,63,-100,2,97,87,39,58,82,58,0
82,131,48,-107,17,90,78,34,48,73,48,-4
78,141,63,-109,7,102,82,34,48,78,53,0
63,146,82,-104,-9,114,87,39,53,82,63,4
53,141,87,-97,-17,114,92,39,58,78,58,9
63,146,82,-104,-9,114,92,34,53,73,58,4
78,165,87,-122,-4,126,87,29,43,73,58,9
78,170,92,-124,-7,131,82,29,43,78,63,9
78,156,78,-117,0,117,78,24,53,82,63,14
78,146,68,-112,4,107,82,29,58,87,63,14
87,151,63,-119,12,107,82,34,53,82,58,9
92,146,53,-119,19,100,87,39,63,87,58,9
87,136,48,-112,19,92,97,48,73,87,63,9
87,146,58,-117,14,102,97,48,68,87,58,9
102,161,58,-131,21,109,92,48,73,92,58,9
102,161,58,-131,21,109,102,53,102,102,68,14
97,161,63,-129,17,112,112,63,97,97,73,19
97,161,63,-129,17,112,117,68,68,87,73,24
102,165,63,-134,19,114,117,68,63,82,73,24
102,185,82,-143,9,134,117,63,78,82,73,29
87,180,92,-134,-2,136,122,68,92,92,78,39
87,161,73,-124,7,117,117,73,92,102,78,39
92,165,73,-129,9,119,107,68,92,97,73,29
87,165,78,-126,4,122,112,68,97,97,73,29
73,151,78,-112,-2,114,117,78,97,97,68,24
73,161,87,-117,-7,124,107,68,82,87,58,19
87,165,78,-126,4,122,102,63,78,82,58,19
87,136,48,-112,19,92,112,68,73,82,58,19
82,122,39,-102,21,80,122,73,78,78,48,9
73,131,58,-102,7,95,122,68,82,78,48,9
68,131,63,-100,2,97,122,68,78,82,48,14
63,122,58,-92,2,90,122,73,68,78,48,14
48,126,78,-87,-14,102,122,73,68,78,53,14
39,131,92,-85,-26,112,122,78,63,82,58,14
34,117,82,-75,-24,100,112,53,43,68,48,9
-39,43,82,-2,-61,63,87,-73,-161,-82,-53,-48
-97,-4,92,51,-95,43,78,-165,-292,-185,-126,-78
87,161,73,-124,7,117,122,141,229,190,136,63
200,263,63,-231,68,163,141,307,492,380,268,136
63,151,87,-107,-12,119,107,87,122,112,92,43
14,117,102,-65,-43,109,102,24,14,39,39,14
53,175,122,-114,-34,148,117,102,156,146,102,43
34,175,141,-104,-53,158,107,58,102,122,78,29
19,161,141,-90,-61,151,102,24,43,78,48,14
39,170,131,-104,-46,151,112,53,97,112,78,34
43,161,117,-102,-36,139,112,53,97,107,82,43
58,131,73,-95,-7,102,97,34,53,73,68,29
78,131,53,-104,12,92,92,39,29,53,68,29
87,126,39,-107,24,82,87,39,0,43,73,34
87,112,24,-100,31,68,73,9,-43,29,68,34
92,107,14,-100,39,61,53,-9,-73,24,68,34
107,102,-4,-104,56,48,43,-19,-92,14,63,29
122,82,-39,-102,80,21,34,-24,-112,0,58,24
131,73,-58,-102,95,7,19,-29,-131,-9,63,29
141,73,-68,-107,104,2,9,-24,-141,-14,63,29
156,58,-97,-107,126,-19,-4,-34,-175,-34,43,19
170,39,-131,-104,151,-46,-34,-53,-219,-58,34,14
185,29,-156,-107,170,-63,-53,-73,-253,-68,43,19
204,39,-165,-122,185,-63,-73,-92,-283,-78,43,19
234,39,-195,-136,214,-78,-117,-136,-336,-97,34,14
268,19,-248,-143,258,-114,-165,-180,-390,-122,34,24
317,4,-312,-161,314,-153,-204,-209,-444,-146,39,34
375,-9,-385,-183,380,-197,-234,-219,-502,-180,43,43
429,-34,-463,-197,446,-248,-278,-253,-600,-224,29,39
468,-73,-541,-197,505,-307,-336,-307,-702,-283,9,34
502,-136,-639,-183,570,-387,-395,-370,-785,-326,4,34
541,-200,-741,-170,641,-470,-444,-434,-863,-370,0,34
590,-244,-834,-173,712,-539,-492,-497,-956,-419,-14,19
644,-278,-922,-183,783,-600,-546,-570,-1024,-473,-43,0
722,-317,-1039,-202,880,-678,-614,-649,-1088,-522,-68,-14
790,-366,-1156,-212,973,-761,-692,-741,-1171,-575,-97,-34
834,-419,-1254,-207,1044,-836,-761,-824,-1244,-644,-141,-63
854,-478,-1332,-187,1093,-905,-800,-878,-1307,-722,-190,-92
873,-536,-1410,-168,1141,-973,-814,-897,-1361,-795,-239,-126
868,-600,-1468,-134,1168,-1034,-814,-912,-1410,-858,-287,-156
863,-644,-1507,-109,1185,-1076,-814,-932,-1459,-917,-346,-200
873,-692,-1566,-90,1220,-1129,-824,-956,-1488,-976,-400,-244
888,-751,-1639,-68,1263,-1195,-844,-995,-1522,-1019,-439,-283
883,-790,-1673,-46,1278,-1232,-883,-1068,-1566,-1078,-483,-307
883,-819,-1703,-31,1293,-1261,-932,-1146,-1615,-1127,-522,-331
883,-849,-1732,-17,1307,-1290,-976,-1195,-1644,-1166,-561,-361
883,-878,-1761,-2,1322,-1320,-995,-1220,-1659,-1195,-595,-385
873,-927,-1800,26,1337,-1363,-980,-1210,-1668,-1220,-614,-400
873,-956,-1830,41,1351,-1393,-966,-1205,-1668,-1234,-639,-414
878,-966,-1844,43,1361,-1405,-971,-1205,-1659,-1239,-649,-429
888,-966,-1854,39,1371,-1410,-961,-1200,-1629,-1229,-658,-444
883,-946,-1830,31,1356,-1388,-936,-1195,-1600,-1220,-673,-453
863,-941,-1805,39,1334,-1373,-927,-1185,-1576,-1215,-688,-478
863,-946,-1810,41,1337,-1378,-922,-1176,-1551,-1205,-692,-483
878,-912,-1790,17,1334,-1351,-912,-1141,-1498,-1171,-678,-473
893,-868,-1761,-12,1327,-1315,-888,-1093,-1424,-1117,-644,-453
888,-834,-1722,-26,1305,-1278,-868,-1044,-1366,-1083,-634,-448
888,-790,-1678,-48,1283,-1234,-854,-1010,-1302,-1044,-624,-448
897,-766,-1664,-65,1281,-1215,-824,-966,-1239,-1010,-610,-444
883,-756,-1639,-63,1261,-1198,-785,-932,-1205,-990,-605,-448
854,-727,-1581,-63,1217,-1154,-751,-912,-1195,-985,-610,-453
839,-688,-1527,-75,1183,-1107,-717,-883,-1146,-961,-595,-444
824,-658,-1483,-82,1154,-1071,-678,-839,-1088,-922,-580,-434
780,-614,-1395,-82,1088,-1005,-649,-805,-1039,-893,-570,-434
732,-566,-1298,-82,1015,-932,-619,-775,-990,-863,-566,-429
692,-536,-1229,-78,961,-883,-585,-736,-936,-824,-551,-419
658,-527,-1185,-65,922,-856,-551,-707,-883,-790,-541,-414
629,-497,-1127,-65,878,-812,-527,-697,-849,-761,-536,-414
614,-463,-1078,-75,846,-771,-512,-688,-829,-741,-531,-419
600,-453,-1054,-73,827,-753,-483,-644,-785,-702,-507,-409
585,-434,-1019,-75,802,-727,-444,-595,-722,-653,-478,-395
570,-390,-961,-90,766,-675,-414,-546,-663,-610,-453,-385
551,-370,-922,-90,736,-646,-380,-488,-614,-580,-434,-375
536,-351,-888,-92,712,-619,-351,-444,-561,-541,-409,-356
522,-322,-844,-100,683,-583,-326,-405,-502,-492,-370,-326
488,-307,-795,-90,641,-551,-292,-366,-448,-444,-336,-302
434,-297,-732,-68,583,-514,-248,-326,-409,-405,-312,-283
380,-268,-649,-56,514,-458,-214,-297,-380,-375,-287,-268
366,-224,-590,-70,478,-407,-190,-273,-341,-341,-258,-253
341,-190,-531,-75,436,-361,-165,-234,-302,-307,-239,-234
297,-156,-453,-70,375,-305,-136,-195,-258,-273,-214,-214
258,-112,-370,-73,314,-241,-112,-161,-214,-239,-185,-190
239,-78,-317,-80,278,-197,-87,-131,-165,-200,-156,-165
214,-53,-268,-80,241,-161,-63,-107,-117,-161,-131,-141
185,-39,-224,-73,204,-131,-39,-87,-82,-126,-107,-122
156,-9,-165,-73,161,-87,-14,-58,-48,-92,-78,-102
126,24,-102,-75,114,-39,14,-29,-9,-53,-48,-87
102,34,-68,-68,85,-17,34,4,19,-19,-24,-73
68,39,-29,-53,48,4,53,39,43,0,-4,-63
34,48,14,-41,9,31,73,63,58,9,4,-53
4,58,53,-31,-24,56,87,73,73,24,9,-48
-24,68,92,-21,-58,80,97,78,87,39,24,-29
-43,73,117,-14,-80,95,107,82,102,58,39,-14
-58,78,136,-9,-97,107,117,87,117,68,43,-4
-68,82,151,-7,-109,117,122,82,126,73,48,-9
-63,87,151,-12,-107,119,122,82,126,68,43,-9
-73,87,161,-7,-117,124,131,92,131,68,48,-9
-87,92,180,-2,-134,136,141,112,151,87,58,0
-97,87,185,4,-141,136,146,122,161,97,63,9
-97,92,190,2,-143,141,141,122,156,87,58,4
-97,112,209,-7,-153,161,141,112,151,82,53,0
-102,131,234,-14,-168,183,136,102,151,87,48,4
-112,126,239,-7,-175,183,146,107,161,102,53,9
-107,112,219,-2,-163,165,146,107,165,107,58,14
-97,126,224,-14,-161,175,136,102,161,102,53,9
-97,136,234,-19,-165,185,141,107,165,102,53,9
-102,126,229,-12,-165,178,151,117,175,107,63,24
-117,117,234,0,-175,175,146,117,180,107,68,24
-117,112,229,2,-173,170,151,117,170,107,68,19
-112,107,219,2,-165,163,161,122,165,112,73,24
-126,107,234,9,-180,170,165,131,170,112,73,29
-131,107,239,12,-185,173,161,126,170,112,73,29
-126,102,229,12,-178,165,156,122,161,107,63,24
-131,102,234,14,-183,168,156,122,161,107,68,24
-156,112,268,21,-212,190,161,126,170,107,68,24
-156,117,273,19,-214,195,156,122,170,107,63,19
-146,112,258,17,-202,185,156,122,170,102,63,14
-151,102,253,24,-202,178,165,122,170,102,63,19
-170,92,263,39,-217,178,165,126,161,92,63,9
-175,87,263,43,-219,175,165,126,151,87,58,9
-170,92,263,39,-217,178,165,122,161,92,63,9
-170,97,268,36,-219,183,165,122,180,102,68,9
-180,102,283,39,-231,192,165,126,190,107,68,9
-185,102,287,41,-236,195,165,126,190,112,63,14
-180,112,292,34,-236,202,161,126,190,117,63,9
-170,122,292,24,-231,207,156,131,195,122,63,4
-170,131,302,19,-236,217,156,136,200,126,73,4
-175,122,297,26,-236,209,165,141,209,136,78,14
-180,122,302,29,-241,212,165,141,204,136,78,14
-180,136,317,21,-248,226,161,136,200,136,73,9
-185,136,322,24,-253,229,165,141,204,141,82,19
-200,126,326,36,-263,226,170,146,209,151,87,29
-195,136,331,29,-263,234,175,141,209,151,87,29
-190,141,331,24,-261,236,175,146,229,151,87,29
-195,151,346,21,-270,248,175,146,234,146,82,39
-200,151,351,24,-275,251,175,151,229,146,82,39
-200,146,346,26,-273,246,185,156,234,146,82,43
-190,156,346,17,-268,251,185,161,239,151,87,43
-195,165,361,14,-278,263,190,165,248,151,82,48
-209,165,375,21,-292,270,200,175,258,156,92,53
-209,170,380,19,-295,275,200,175,258,161,92,53
-200,170,370,14,-285,270,195,175,253,175,92,53
-200,170,370,14,-285,270,200,175,258,180,97,58
-209,175,385,17,-297,280,204,180,268,190,107,63
-214,175,390,19,-302,283,204,180,273,195,117,68
-209,180,390,14,-300,285,209,190,283,200,122,73
-214,185,400,14,-307,292,219,195,302,214,131,82
-224,185,409,19,-317,297,224,204,317,224,136,87
-229,190,419,19,-324,305,229,204,322,229,131,82
-234,214,448,9,-341,331,224,204,317,224,126,78
-239,239,478,0,-358,358,219,204,317,224,122,73
-244,224,468,9,-356,346,229,219,331,244,131,78
-248,204,453,21,-351,329,239,234,351,258,146,87
-244,219,463,12,-353,341,239,229,356,263,146,82
-248,239,488,4,-368,363,234,224,361,268,146,82
-258,244,502,7,-380,373,239,234,370,273,151,87
-258,244,502,7,-380,373,253,248,385,287,161,97
-258,239,497,9,-378,368,263,253,390,292,165,97
-258,244,502,7,-380,373,263,253,390,287,161,92
-268,263,531,2,-400,397,263,258,400,297,165,97
-273,273,546,0,-409,409,273,273,419,312,180,112
-278,263,541,7,-409,402,283,283,419,322,190,107
-287,263,551,12,-419,407,287,287,424,322,190,102
-287,263,551,12,-419,407,292,302,439,331,200,112
-297,268,566,14,-431,417,292,312,458,341,204,112
-297,263,561,17,-429,412,302,317,458,346,209,112
-297,263,561,17,-429,412,302,322,473,356,214,112
-302,268,570,17,-436,419,302,326,488,366,219,112
-312,287,600,12,-456,444,302,331,507,380,229,117
-312,302,614,4,-463,458,307,336,517,400,239,122
-317,312,629,2,-473,470,307,341,517,405,244,126
-326,307,634,9,-480,470,307,351,531,414,248,131
-331,302,634,14,-483,468,317,370,546,434,268,146
-326,312,639,7,-483,475,322,380,551,444,283,161
-317,336,653,-9,-485,495,317,375,561,444,283,156
-312,346,658,-17,-485,502,312,380,575,453,287,156
-312,351,663,-19,-488,507,317,395,595,473,302,170
-317,356,673,-19,-495,514,317,400,610,488,317,180
-317,366,683,-24,-500,524,322,405,624,492,322,185
-302,380,683,-39,-492,531,322,414,634,507,326,190
-297,380,678,-41,-488,529,322,424,634,517,341,200
-297,380,678,-41,-488,529,326,429,634,517,346,204
-287,385,673,-48,-480,529,322,434,649,527,356,209
-273,380,653,-53,-463,517,322,439,668,546,375,219
-268,375,644,-53,-456,509,326,453,683,566,385,224
-268,395,663,-63,-466,529,336,468,683,566,380,219
-258,400,658,-70,-458,529,331,473,688,561,380,214
-244,385,629,-70,-436,507,331,478,692,570,395,234
-244,370,614,-63,-429,492,341,488,697,580,405,248
-239,370,610,-65,-424,490,336,488,707,590,409,248
-229,385,614,-78,-422,500,326,483,707,590,405,248
-224,385,610,-80,-417,497,326,483,702,590,409,248
-219,380,600,-80,-409,490,326,492,702,590,419,258
-200,390,590,-95,-395,490,322,502,717,605,434,268
-180,395,575,-107,-378,485,312,497,712,605,434,273
-165,395,561,-114,-363,478,307,497,692,595,429,273
-161,400,561,-119,-361,480,307,502,688,590,424,273
-156,390,546,-117,-351,468,312,507,692,595,429,273
-141,380,522,-119,-331,451,307,502,688,590,429,273
-131,375,507,-122,-319,441,292,488,673,580,424,273
-136,356,492,-109,-314,424,278,483,663,566,414,268
-131,331,463,-100,-297,397,278,488,663,570,424,273
-122,326,448,-102,-285,387,273,488,653,566,424,278
-107,331,439,-112,-273,385,258,473,639,551,409,268
-92,317,409,-112,-251,363,248,463,624,541,400,268
-82,302,385,-109,-234,344,248,463,610,536,405,268
-78,312,390,-117,-234,351,239,448,595,531,400,263
-68,312,380,-122,-224,346,224,434,570,512,390,253
-58,292,351,-117,-204,322,214,419,556,492,380,248
-58,278,336,-109,-197,307,195,405,541,478,370,253
-58,268,326,-104,-192,297,185,390,527,458,356,248
-48,248,297,-100,-173,273,180,385,507,444,341,234
-39,239,278,-100,-158,258,170,370,483,429,326,229
-43,224,268,-90,-156,246,165,351,463,409,312,219
-43,209,253,-82,-148,231,156,326,448,395,297,204
-29,200,229,-85,-129,214,141,312,429,380,292,190
-24,190,214,-82,-119,202,126,292,400,361,278,185
-24,180,204,-78,-114,192,112,273,375,336,263,180
-29,180,209,-75,-119,195,102,263,361,326,258,180
-29,151,180,-61,-104,165,107,263,346,312,248,170
-29,122,151,-46,-90,136,107,248,322,283,229,156
-34,112,146,-39,-90,129,102,229,302,263,214,151
-43,112,156,-34,-100,134,102,214,283,248,200,146
-43,107,151,-31,-97,129,97,200,258,229,190,136
-39,87,126,-24,-82,107,82,185,239,209,175,126
-34,63,97,-14,-65,80,73,170,224,195,165,117
-43,58,102,-7,-73,80,68,161,209,180,156,107
-58,53,112,2,-85,82,58,156,200,165,141,97
-58,34,92,12,-75,63,58,141,180,151,126,78
-43,19,63,12,-53,41,53,122,151,126,112,68
-48,14,63,17,-56,39,53,112,136,117,107,68
-63,14,78,24,-70,46,53,102,126,122,102,63
-63,9,73,26,-68,41,48,92,117,117,92,53
-58,0,58,29,-58,29,39,82,102,107,82,39
-68,-9,58,39,-63,24,34,78,102,107,78,43
-78,-9,68,43,-73,29,34,68,107,107,73,39
-78,-19,58,48,-68,19,29,68,102,92,58,24
-78,-29,48,53,-63,9,34,73,102,82,48,19
-87,-39,48,63,-68,4,39,73,92,78,48,14
-87,-29,58,58,-73,14,34,63,82,68,43,9
-92,-29,63,61,-78,17,29,48,68,58,29,0
-92,-53,39,73,-65,-7,34,39,58,48,24,-4
-97,-68,29,82,-63,-19,39,39,53,39,24,0
-107,-58,48,82,-78,-4,34,34,48,34,24,-4
-112,-53,58,82,-85,2,29,34,48,34,24,-4
-102,-58,43,80,-73,-7,29,29,43,29,19,-9
-97,-48,48,73,-73,0,19,29,34,19,9,-14
-97,-48,48,73,-73,0,9,24,24,14,-4,-24
-102,-53,48,78,-75,-2,4,9,24,14,-9,-29
-102,-63,39,82,-70,-12,9,9,24,14,-9,-29
-102,-68,34,85,-68,-17,14,14,19,14,-14,-34
-107,-63,43,85,-75,-9,14,14,9,9,-14,-39
-112,-53,58,82,-85,2,9,9,14,4,-14,-39
-102,-68,34,85,-68,-17,14,14,14,4,-14,-39
-102,-97,4,100,-53,-46,24,19,9,0,-14,-39
-122,-107,14,114,-68,-46,29,14,0,-9,-24,-48
-126,-92,34,109,-80,-29,29,9,0,-9,-24,-48
-112,-78,34,95,-73,-21,19,9,4,-9,-14,-43
-107,-73,34,90,-70,-19,9,9,4,-9,-19,-48
-112,-68,43,90,-78,-12,9,9,0,-14,-24,-48
-122,-73,48,97,-85,-12,9,9,0,-9,-29,-48
-126,-82,43,104,-85,-19,9,14,0,-4,-29,-53
-122,-82,39,102,-80,-21,9,14,4,-4,-29,-58
-126,-73,53,100,-90,-9,9,9,14,4,-24,-48
-136,-68,68,102,-102,0,14,9,19,14,-19,-43
-136,-68,68,102,-102,0,9,9,4,9,-19,-43
-126,-68,58,97,-92,-4,9,4,0,9,-19,-43
-122,-68,53,95,-87,-7,4,4,9,9,-19,-43
-126,-63,63,95,-95,0,4,4,14,4,-14,-43
-126,-68,58,97,-92,-4,9,4,14,4,-14,-43
-126,-82,43,104,-85,-19,9,9,19,9,-14,-43
-131,-82,48,107,-90,-17,9,14,19,9,-9,-43
-141,-82,58,112,-100,-12,9,14,19,4,-14,-48
-141,-78,63,109,-102,-7,9,9,19,4,-19,-53
-131,-73,58,102,-95,-7,9,9,19,4,-19,-53
-126,-73,53,100,-90,-9,9,9,14,4,-19,-48
-131,-73,58,102,-95,-7,9,4,14,0,-24,-58
-141,-68,73,104,-107,2,9,0,14,0,-24,-53
-146,-73,73,109,-109,0,19,4,19,4,-19,-48
-141,-78,63,109,-102,-7,19,9,24,9,-19,-48
-146,-78,68,112,-107,-4,19,14,34,9,-14,-43
-151,-73,78,112,-114,2,19,14,34,9,-14,-43
-141,-63,78,102,-109,7,24,14,29,9,-14,-43
-136,-68,68,102,-102,0,24,9,29,9,-14,-43
-151,-73,78,112,-114,2,24,14,29,14,-4,-39
-165,-82,82,124,-124,0,34,24,39,24,0,-29
-151,-82,68,117,-109,-7,39,29,43,24,4,-24
-131,-68,63,100,-97,-2,19,19,43,9,0,-29
-141,-63,78,102,-109,7,19,14,43,9,-4,-34
-156,-73,82,114,-119,4,24,19,39,9,-4,-29
-156,-73,82,114,-119,4,29,19,34,9,-9,-29
-151,-73,78,112,-114,2,24,24,34,14,-4,-19
-151,-73,78,112,-114,2,24,24,39,19,0,-14
-151,-63,87,107,-119,12,24,24,34,14,0,-14
-151,-48,102,100,-126,26,29,19,39,14,-4,-14
-151,-48,102,100,-126,26,24,19,43,19,-4,-14
-151,-53,97,102,-124,21,24,19,48,19,-4,-9
-146,-48,97,97,-122,24,24,24,58,29,0,0
-151,-58,92,104,-122,17,29,29,63,29,-4,0
-161,-73,87,117,-124,7,29,24,53,29,-4,0
-165,-82,82,124,-124,0,29,19,53,29,0,4
-161,-73,87,117,-124,7,24,24,53,34,0,4
-161,-58,102,109,-131,21,24,24,53,29,0,0
-151,-48,102,100,-126,26,19,24,43,19,-4,-4
-136,-43,92,90,-114,24,19,19,43,14,-4,-4
-141,-43,97,92,-119,26,24,24,48,29,0,9
-141,-48,92,95,-117,21,29,24,58,34,9,14
-131,-39,92,85,-112,26,24,24,63,34,4,9
-131,-29,102,80,-117,36,19,24,63,34,4,9
-136,-39,97,87,-117,29,24,24,68,39,4,14
-131,-34,97,82,-114,31,34,29,73,43,14,19
-126,-29,97,78,-112,34,39,29,73,43,19,19
-126,-39,87,82,-107,24,34,24,63,43,14,19
-131,-39,92,85,-112,26,29,19,58,43,14,24
-131,-39,92,85,-112,26,34,24,63,43,14,24
-131,-34,97,82,-114,31,34,24,63,43,9,19
-131,-34,97,82,-114,31,29,24,58,43,4,19
-136,-34,102,85,-119,34,34,24,58,43,9,19
-141,-39,102,90,-122,31,34,24,63,43,9,19
-146,-39,107,92,-126,34,34,24,68,48,9,14
-131,-34,97,82,-114,31,29,19,63,48,9,9
-131,-34,97,82,-114,31,29,14,63,43,9,9
-141,-43,97,92,-119,26,34,19,58,43,9,9
-146,-58,87,102,-117,14,39,29,58,43,9,14
-146,-53,92,100,-119,19,34,24,53,39,9,9
-141,-34,107,87,-124,36,24,14,48,34,4,0
-146,-19,126,82,-136,53,24,9,43,29,0,0
-151,-39,112,95,-131,36,29,19,43,34,4,4
-151,-58,92,104,-122,17,29,19,48,39,9,0
-151,-53,97,102,-124,21,19,14,43,34,4,-9
-151,-48,102,100,-126,26,14,9,48,34,4,-9
-146,-48,97,97,-122,24,14,9,48,39,4,-4
-141,-43,97,92,-119,26,14,4,48,34,0,-9
-151,-43,107,97,-129,31,14,4,43,34,-9,-14
-151,-43,107,97,-129,31,14,9,43,34,-4,-14
-151,-43,107,97,-129,31,24,9,48,39,0,-14
-151,-53,97,102,-124,21,29,9,48,39,4,-14
-151,-53,97,102,-124,21,19,4,39,34,0,-19
-156,-48,107,102,-131,29,19,4,39,29,0,-24
-156,-63,92,109,-124,14,24,4,43,34,0,-24
-156,-78,78,117,-117,0,29,9,43,39,4,-19
-165,-78,87,122,-126,4,29,9,39,34,4,-24
-170,-82,87,126,-129,2,24,0,39,34,-4,-34
-165,-78,87,122,-126,4,14,-4,39,34,-4,-29
-165,-73,92,119,-129,9,9,0,29,29,-9,-24
-156,-68,87,112,-122,9,9,-4,19,19,-14,-29
-161,-78,82,119,-122,2,9,-4,24,19,-14,-24
-165,-82,82,124,-124,0,14,0,29,19,-9,-24
-165,-82,82,124,-124,0,9,-4,29,19,-9,-24
-161,-78,82,119,-122,2,4,-9,29,19,-14,-29
-156,-73,82,114,-119,4,9,-14,29,19,-14,-34
-165,-73,92,119,-129,9,9,-9,29,19,-14,-34
-175,-73,102,124,-139,14,4,-9,29,19,-14,-29
-175,-73,102,124,-139,14,0,-9,29,24,-14,-24
-170,-58,112,114,-141,26,0,-14,24,24,-14,-19
-170,-58,112,114,-141,26,0,-14,29,24,-19,-24
-165,-63,102,114,-134,19,4,-14,34,24,-19,-24
-156,-73,82,114,-119,4,14,-14,24,19,-19,-24
-156,-78,78,117,-117,0,14,-19,14,9,-24,-24
-161,-78,82,119,-122,2,4,-19,14,9,-24,-24
-161,-82,78,122,-119,-2,0,-19,14,9,-24,-29
-161,-97,63,129,-112,-17,4,-19,14,9,-24,-24
-161,-97,63,129,-112,-17,9,-19,14,9,-24,-19
-165,-73,92,119,-129,9,4,-19,14,14,-24,-19
-180,-68,112,124,-146,21,9,-14,14,14,-29,-19
-170,-87,82,129,-126,-2,14,-9,14,19,-24,-19
-156,-82,73,119,-114,-4,14,-14,19,14,-19,-19
-161,-73,87,117,-124,7,4,-24,19,9,-19,-19
-165,-73,92,119,-129,9,4,-19,19,9,-19,-19
-161,-68,92,114,-126,12,4,-19,19,9,-19,-19
-156,-68,87,112,-122,9,4,-19,14,9,-24,-19
-165,-73,92,119,-129,9,9,-24,9,4,-29,-19
-175,-73,102,124,-139,14,14,-19,14,4,-24,-14
-161,-73,87,117,-124,7,9,-24,24,14,-19,-14
-146,-68,78,107,-112,4,0,-24,14,9,-29,-24
-156,-73,82,114,-119,4,4,-24,9,4,-34,-19
-165,-82,82,124,-124,0,14,-14,14,9,-29,-14
-161,-87,73,124,-117,-7,14,-14,14,9,-24,-19
-151,-78,73,114,-112,-2,4,-24,9,4,-29,-24
-146,-73,73,109,-109,0,4,-29,9,0,-34,-24
-161,-73,87,117,-124,7,9,-24,14,0,-34,-24
-175,-68,107,122,-141,19,9,-24,14,0,-34,-24
-165,-68,97,117,-131,14,9,-24,19,9,-29,-19
-156,-78,78,117,-117,0,9,-24,19,9,-29,-14
-151,-73,78,112,-114,2,4,-29,14,9,-29,-19
-156,-68,87,112,-122,9,9,-24,14,9,-29,-19
-156,-68,87,112,-122,9,14,-19,14,14,-19,-14
-146,-63,82,104,-114,9,9,-24,9,4,-24,-14
-156,-63,92,109,-124,14,4,-24,4,0,-29,-24
-170,-68,102,119,-136,17,9,-19,9,4,-29,-24
-170,-68,102,119,-136,17,9,-19,9,0,-24,-19
-161,-82,78,122,-119,-2,9,-24,4,0,-24,-19
-156,-92,63,124,-109,-14,9,-19,4,0,-24,-19
-156,-78,78,117,-117,0,4,-19,14,4,-29,-19
-156,-78,78,117,-117,0,4,-24,14,0,-29,-24
-161,-82,78,122,-119,-2,4,-29,14,0,-34,-34
-165,-82,82,124,-124,0,4,-29,9,4,-29,-29
-175,-82,92,129,-134,4,4,-19,9,9,-24,-24
-180,-87,92,134,-136,2,14,-14,0,9,-24,-24
-180,-92,87,136,-134,-2,14,-19,0,0,-29,-29
-151,-92,58,122,-104,-17,-19,-19,0,-4,-34,-34
-48,-73,-24,61,-12,-48,-122,-19,0,0,-19,-29
-107,-78,29,92,-68,-24,-58,-29,0,-9,-34,-39
-307,-112,195,209,-251,41,141,-43,-4,-29,-63,-53
-258,-102,156,180,-207,26,97,-34,4,-9,-48,-39
-141,-87,53,114,-97,-17,-24,-9,19,14,-14,-19
-195,-102,92,148,-143,-4,4,-14,14,9,-19,-19
-214,-92,122,153,-168,14,29,-24,4,-4,-34,-29
-165,-73,92,119,-129,9,-9,-24,4,-4,-34,-29
-161,-73,87,117,-124,7,-14,-29,0,-9,-39,-34
-175,-73,102,124,-139,14,0,-39,0,-9,-43,-34
-161,-73,87,117,-124,7,-4,-39,0,-9,-43,-39
-156,-73,82,114,-119,4,-9,-34,0,-9,-43,-39
-170,-73,97,122,-134,12,-9,-29,4,-4,-43,-34
-185,-78,107,131,-146,14,-4,-24,9,4,-34,-29
-180,-87,92,134,-136,2,-4,-24,14,4,-34,-29
-165,-82,82,124,-124,0,-4,-24,4,0,-34,-29
-165,-82,82,124,-124,0,-14,-29,0,-4,-39,-39
-165,-92,73,129,-119,-9,-24,-34,-4,-4,-43,-48
-151,-102,48,126,-100,-26,-29,-39,-4,-9,-43,-53
-146,-107,39,126,-92,-34,-34,-43,-9,-14,-48,-53
-161,-102,58,131,-109,-21,-34,-43,-4,-14,-43,-48
-165,-92,73,129,-119,-9,-29,-39,0,-9,-39,-43
-165,-78,87,122,-126,4,-24,-43,0,-14,-43,-43
-165,-63,102,114,-134,19,-29,-48,-9,-24,-48,-43
-170,-68,102,119,-136,17,-24,-48,-4,-19,-48,-39
-175,-92,82,134,-129,-4,-14,-39,4,-14,-39,-34
-180,-102,78,141,-129,-12,-14,-34,9,-9,-34,-29
-175,-92,82,134,-129,-4,-24,-39,4,-9,-34,-39
-161,-78,82,119,-122,2,-24,-43,9,-4,-43,-48
-165,-87,78,126,-122,-4,-14,-39,14,0,-39,-43
-185,-107,78,146,-131,-14,-4,-34,14,4,-34,-34
-185,-102,82,143,-134,-9,-4,-34,9,4,-34,-34
-175,-97,78,136,-126,-9,-9,-39,9,4,-39,-43
-175,-82,92,129,-134,4,-14,-43,9,0,-39,-43
-180,-78,102,129,-141,12,-14,-48,9,0,-43,-43
-170,-82,87,126,-129,2,-14,-48,9,0,-43,-43
-165,-87,78,126,-122,-4,-14,-43,4,0,-39,-39
-175,-87,87,131,-131,0,-9,-43,9,0,-34,-34
-185,-87,97,136,-141,4,-9,-39,14,0,-34,-29
-185,-87,97,136,-141,4,-9,-43,14,4,-34,-29
-185,-97,87,141,-136,-4,-9,-43,14,0,-34,-24
-185,-92,92,139,-139,0,-4,-43,9,0,-39,-24
-185,-82,102,134,-143,9,-4,-48,4,-4,-39,-29
-180,-87,92,134,-136,2,-9,-48,4,-4,-39,-29
-175,-92,82,134,-129,-4,-9,-43,9,0,-39,-24
-180,-92,87,136,-134,-2,-9,-43,9,0,-39,-24
-195,-87,107,141,-151,9,-4,-43,0,-9,-43,-29
-190,-92,97,141,-143,2,-4,-43,-9,-14,-43,-34
-180,-107,73,143,-126,-17,-4,-43,-4,-19,-43,-34
-175,-112,63,143,-119,-24,-4,-39,-4,-14,-43,-29
-175,-97,78,136,-126,-9,-4,-48,-4,-19,-48,-34
-180,-87,92,134,-136,2,-9,-53,-9,-19,-53,-39
-185,-92,92,139,-139,0,-9,-53,-9,-19,-58,-34
-185,-92,92,139,-139,0,-9,-48,-9,-19,-53,-34
-195,-102,92,148,-143,-4,-4,-43,-9,-19,-48,-29
-204,-117,87,161,-146,-14,-4,-39,-9,-19,-43,-29
-204,-122,82,163,-143,-19,-4,-43,-9,-19,-48,-29
-200,-122,78,161,-139,-21,-4,-53,-9,-19,-53,-34
-185,-117,68,151,-126,-24,-9,-58,-9,-19,-53,-34
-180,-102,78,141,-129,-12,-14,-63,-19,-29,-58,-39
-185,-92,92,139,-139,0,-24,-68,-24,-39,-63,-43
-185,-97,87,141,-136,-4,-29,-73,-29,-43,-68,-48
-185,-102,82,143,-134,-9,-24,-68,-29,-43,-68,-43
-185,-107,78,146,-131,-14,-9,-63,-29,-34,-58,-34
-180,-102,78,141,-129,-12,-9,-63,-29,-29,-58,-29
-185,-97,87,141,-136,-4,-19,-63,-39,-34,-58,-39
-190,-102,87,146,-139,-7,-19,-63,-34,-34,-58,-43
-200,-112,87,156,-143,-12,-14,-63,-29,-29,-58,-39
-200,-122,78,161,-139,-21,-14,-68,-24,-29,-58,-39
-185,-107,78,146,-131,-14,-24,-73,-19,-29,-63,-39
-185,-92,92,139,-139,0,-29,-78,-14,-29,-63,-34
-185,-97,87,141,-136,-4,-29,-78,-14,-24,-63,-34
-180,-97,82,139,-131,-7,-29,-73,-14,-24,-63,-34
-175,-102,73,139,-124,-14,-24,-63,-14,-24,-63,-34
-170,-102,68,136,-119,-17,-14,-58,-14,-24,-58,-29
-175,-97,78,136,-126,-9,-9,-53,-14,-24,-53,-24
-175,-97,78,136,-126,-9,-4,-48,-9,-19,-48,-24
-156,-102,53,129,-104,-24,-4,-43,-14,-24,-53,-24
-136,-97,39,117,-87,-29,0,-48,-14,-29,-58,-34
-151,-92,58,122,-104,-17,0,-48,-14,-34,-58,-34
-165,-102,63,134,-114,-19,0,-43,-9,-29,-58,-29
-165,-107,58,136,-112,-24,9,-39,0,-19,-53,-19
-165,-92,73,129,-119,-9,9,-39,4,-14,-48,-19
-161,-73,87,117,-124,7,0,-48,4,-14,-53,-19
-156,-68,87,112,-122,9,-4,-43,4,-19,-53,-19
-151,-97,53,124,-102,-21,4,-34,0,-19,-48,-19
-151,-117,34,134,-92,-41,9,-29,-4,-19,-43,-14
-156,-102,53,129,-104,-24,4,-34,-4,-19,-43,-14
-161,-87,73,124,-117,-7,0,-34,-4,-24,-48,-14
-161,-92,68,126,-114,-12,0,-34,-9,-19,-48,-19
-165,-97,68,131,-117,-14,0,-34,-4,-24,-48,-14
-175,-92,82,134,-129,-4,4,-34,-9,-29,-48,-19
-180,-97,82,139,-131,-7,14,-29,-4,-24,-48,-14
-185,-102,82,143,-134,-9,14,-24,4,-14,-43,-14
-185,-97,87,141,-136,-4,9,-29,4,-14,-48,-19
-185,-92,92,139,-139,0,9,-39,0,-14,-53,-24
-200,-97,102,148,-151,2,14,-29,4,-4,-48,-14
-200,-102,97,151,-148,-2,24,-24,9,4,-48,-9
-195,-107,87,151,-141,-9,19,-39,-9,-9,-53,-9
-263,-185,78,224,-170,-53,-4,-161,-219,-165,-151,-63
-322,-234,87,278,-204,-73,-24,-248,-366,-273,-224,-107
-146,-53,92,100,-119,19,19,43,146,87,19,14
-43,34,78,4,-61,56,48,204,409,278,146,87
-165,-87,78,126,-122,-4,14,-14,34,14,-34,-9
-209,-112,97,161,-153,-7,4,-78,-78,-58,-82,-39
-180,-63,117,122,-148,26,24,0,63,48,-14,9
-200,-97,102,148,-151,2,19,-24,29,24,-29,4
-219,-117,102,168,-161,-7,14,-53,-19,-14,-53,-9
-195,-92,102,143,-148,4,14,-29,19,14,-29,0
-185,-87,97,136,-141,4,14,-34,19,19,-24,0
-180,-102,78,141,-129,-12,0,-58,-9,-9,-39,-9
-161,-92,68,126,-114,-12,-14,-68,-29,-19,-43,-14
-151,-102,48,126,-100,-26,-19,-73,-53,-29,-43,-19
-136,-122,14,129,-75,-53,-29,-82,-97,-48,-48,-19
-126,-131,-4,129,-61,-68,-43,-92,-131,-58,-48,-14
-122,-141,-19,131,-51,-80,-53,-97,-146,-68,-48,-14
-117,-161,-43,139,-36,-102,-58,-97,-170,-78,-53,-24
-112,-165,-53,139,-29,-109,-73,-102,-190,-87,-53,-29
-102,-170,-68,136,-17,-119,-78,-102,-195,-92,-53,-29
-78,-175,-97,126,9,-136,-92,-122,-234,-117,-68,-39
-39,-180,-141,109,51,-161,-122,-161,-297,-156,-92,-53
-19,-195,-175,107,78,-185,-156,-180,-341,-180,-92,-48
-14,-204,-190,109,87,-197,-180,-200,-375,-195,-87,-39
14,-204,-219,95,117,-212,-219,-234,-429,-214,-92,-34
63,-214,-278,75,170,-246,-268,-268,-492,-244,-97,-29
117,-239,-356,61,236,-297,-302,-283,-541,-263,-92,-19
165,-268,-434,51,300,-351,-331,-297,-595,-283,-87,-9
224,-287,-512,31,368,-400,-380,-356,-673,-326,-97,-14
287,-302,-590,7,439,-446,-448,-424,-771,-380,-112,-34
331,-346,-678,7,505,-512,-507,-497,-863,-424,-122,-34
380,-405,-785,12,583,-595,-566,-570,-941,-473,-126,-34
434,-463,-897,14,666,-680,-624,-639,-1029,-522,-156,-53
488,-522,-1010,17,749,-766,-678,-697,-1093,-566,-185,-73
561,-575,-1137,7,849,-856,-756,-775,-1156,-610,-200,-82
614,-619,-1234,2,924,-927,-829,-868,-1220,-653,-234,-102
649,-668,-1317,9,983,-993,-883,-951,-1298,-722,-287,-136
683,-717,-1400,17,1041,-1058,-917,-1005,-1366,-795,-336,-175
702,-766,-1468,31,1085,-1117,-927,-1024,-1420,-868,-375,-195
707,-819,-1527,56,1117,-1173,-922,-1034,-1459,-932,-409,-224
722,-878,-1600,78,1161,-1239,-932,-1049,-1512,-1000,-458,-258
736,-927,-1664,95,1200,-1295,-946,-1068,-1556,-1058,-517,-297
741,-966,-1708,112,1224,-1337,-980,-1122,-1590,-1107,-575,-336
746,-1000,-1747,126,1246,-1373,-1029,-1195,-1639,-1161,-629,-375
751,-1044,-1795,146,1273,-1420,-1073,-1273,-1683,-1210,-673,-405
780,-1063,-1844,141,1312,-1454,-1112,-1317,-1712,-1244,-697,-424
790,-1078,-1869,143,1329,-1473,-1127,-1356,-1732,-1268,-722,-439
771,-1102,-1873,165,1322,-1488,-1122,-1361,-1747,-1293,-741,-453
766,-1122,-1888,178,1327,-1505,-1112,-1356,-1747,-1317,-766,-468
771,-1122,-1893,175,1332,-1507,-1122,-1356,-1742,-1327,-775,-473
771,-1112,-1883,170,1327,-1498,-1112,-1346,-1717,-1322,-790,-468
775,-1117,-1893,170,1334,-1505,-1098,-1332,-1678,-1307,-800,-478
780,-1117,-1898,168,1339,-1507,-1078,-1322,-1659,-1307,-810,-488
795,-1093,-1888,148,1342,-1490,-1073,-1322,-1639,-1293,-819,-497
810,-1029,-1839,109,1324,-1434,-1073,-1298,-1581,-1254,-800,-483
829,-980,-1810,75,1320,-1395,-1049,-1249,-1507,-1195,-761,-458
844,-941,-1786,48,1315,-1363,-1024,-1190,-1434,-1151,-741,-448
849,-902,-1751,26,1300,-1327,-995,-1146,-1371,-1107,-727,-444
854,-883,-1737,14,1295,-1310,-961,-1098,-1312,-1068,-712,-439
854,-868,-1722,7,1288,-1295,-932,-1063,-1263,-1054,-717,-453
844,-829,-1673,-7,1259,-1251,-897,-1044,-1244,-1049,-727,-463
814,-780,-1595,-17,1205,-1188,-868,-1019,-1215,-1039,-722,-463
775,-751,-1527,-12,1151,-1139,-834,-976,-1156,-995,-697,-444
712,-741,-1454,14,1083,-1098,-775,-922,-1088,-941,-673,-429
644,-727,-1371,41,1007,-1049,-722,-873,-1029,-907,-658,-429
605,-702,-1307,48,956,-1005,-688,-834,-980,-873,-653,-429
585,-683,-1268,48,927,-976,-663,-805,-941,-849,-649,-429
561,-668,-1229,53,895,-949,-644,-795,-917,-839,-653,-429
551,-658,-1210,53,880,-934,-619,-785,-907,-824,-644,-429
536,-639,-1176,51,856,-907,-600,-756,-868,-795,-629,-424
512,-600,-1112,43,812,-856,-566,-712,-819,-756,-610,-424
488,-566,-1054,39,771,-810,-522,-663,-761,-707,-585,-414
458,-541,-1000,41,729,-771,-478,-605,-702,-668,-561,-400
434,-527,-961,46,697,-744,-448,-551,-649,-629,-531,-380
409,-517,-927,53,668,-722,-414,-502,-595,-580,-488,-341
390,-497,-888,53,639,-692,-385,-463,-541,-531,-458,-312
361,-453,-814,46,588,-634,-361,-444,-507,-497,-439,-297
307,-414,-722,53,514,-568,-336,-419,-473,-468,-419,-283
278,-390,-668,56,473,-529,-302,-385,-434,-439,-395,-268
253,-351,-605,48,429,-478,-268,-346,-390,-395,-366,-253
195,-312,-507,58,351,-409,-229,-302,-336,-346,-336,-229
141,-283,-424,70,283,-353,-200,-263,-278,-297,-297,-195
107,-253,-361,73,234,-307,-175,-224,-234,-248,-258,-156
87,-229,-317,70,202,-273,-151,-195,-195,-214,-229,-126
53,-190,-244,68,148,-217,-126,-180,-165,-185,-204,-102
9,-161,-170,75,90,-165,-102,-151,-131,-156,-175,-82
-14,-136,-122,75,53,-129,-78,-126,-97,-126,-156,-68
-29,-117,-87,73,29,-102,-43,-97,-63,-97,-136,-63
-73,-97,-24,85,-24,-61,-14,-58,-24,-63,-112,-48
-117,-82,34,100,-75,-24,9,-24,14,-29,-87,-34
-141,-73,68,107,-104,-2,24,-4,39,-9,-73,-19
-151,-73,78,112,-114,2,39,4,58,9,-58,-4
-170,-78,92,124,-131,7,48,14,78,19,-43,4
-185,-63,122,124,-153,29,53,14,78,24,-43,4
-190,-43,146,117,-168,51,53,9,68,14,-53,-4
-185,-24,161,104,-173,68,58,14,63,19,-53,-9
-200,-29,170,114,-185,70,68,29,87,34,-39,-4
-234,-39,195,136,-214,78,87,43,112,58,-24,9
-239,-39,200,139,-219,80,92,48,122,63,-19,14
-234,-24,209,129,-222,92,87,48,117,63,-24,9
-219,-14,204,117,-212,95,82,48,112,58,-29,14
-219,-9,209,114,-214,100,87,53,112,58,-29,14
-229,-4,224,117,-226,109,92,53,112,58,-19,19
-229,-9,219,119,-224,104,102,58,117,58,-19,29
-224,-9,214,117,-219,102,107,58,117,63,-14,29
-244,0,244,122,-244,122,112,63,122,63,-9,29
-258,4,263,126,-261,134,117,68,131,68,-9,29
-263,0,263,131,-263,131,117,73,136,73,-9,34
-253,-9,244,131,-248,117,117,73,136,73,-4,29
-244,-9,234,126,-239,112,112,78,141,73,-9,29
-244,-9,234,126,-239,112,112,73,141,73,-9,34
-239,-4,234,122,-236,114,112,73,146,73,-9,34
-239,0,239,119,-239,119,112,73,141,73,-9,29
-248,0,248,124,-248,124,117,82,141,78,-4,34
-268,4,273,131,-270,139,122,82,146,78,-4,39
-268,9,278,129,-273,143,122,87,146,82,-4,39
-268,4,273,131,-270,139,122,87,151,87,-4,39
-278,9,287,134,-283,148,126,82,151,87,-4,39
-287,9,297,139,-292,153,126,82,156,92,0,39
-278,4,283,136,-280,143,122,82,151,87,-4,34
-268,9,278,129,-273,143,112,78,151,82,-9,29
-273,9,283,131,-278,146,117,78,156,87,0,34
-283,4,287,139,-285,146,126,87,161,92,4,34
-273,-4,268,139,-270,131,136,97,170,97,4,39
-278,-4,273,141,-275,134,131,97,170,97,0,29
-292,0,292,146,-292,146,131,97,175,97,0,29
-302,4,307,148,-305,156,141,102,185,107,9,34
-307,9,317,148,-312,163,141,107,185,112,9,39
-307,9,317,148,-312,163,141,102,170,102,0,29
-302,9,312,146,-307,161,141,107,170,102,4,24
-312,14,326,148,-319,170,146,107,185,107,9,34
-312,34,346,139,-329,190,141,102,190,112,4,29
-307,43,351,131,-329,197,131,97,185,107,0,24
-307,39,346,134,-326,192,136,112,190,112,4,29
-312,29,341,141,-326,185,151,122,200,122,14,39
-307,29,336,139,-322,183,156,131,204,126,24,48
-307,34,341,136,-324,187,156,131,200,131,24,43
-307,39,346,134,-326,192,161,131,214,136,29,48
-307,43,351,131,-329,197,170,136,224,141,39,58
-317,48,366,134,-341,207,175,141,229,141,34,58
-317,53,370,131,-344,212,175,146,229,146,34,53
-307,78,385,114,-346,231,170,141,234,146,29,43
-317,97,414,109,-366,256,170,146,244,151,29,43
-322,97,419,112,-370,258,175,146,248,156,29,53
-322,87,409,117,-366,248,185,156,248,165,39,63
-322,78,400,122,-361,239,190,161,258,185,53,68
-322,92,414,114,-368,253,195,165,263,190,58,73
-326,112,439,107,-383,275,195,170,273,195,63,78
-322,112,434,104,-378,273,200,180,287,204,68,78
-317,112,429,102,-373,270,204,190,302,214,73,82
-326,117,444,104,-385,280,214,204,312,219,73,82
-336,131,468,102,-402,300,219,209,322,229,78,87
-336,141,478,97,-407,309,214,214,331,239,82,92
-331,146,478,92,-405,312,224,219,331,239,87,92
-331,146,478,92,-405,312,229,224,331,239,87,87
-336,151,488,92,-412,319,239,229,351,244,97,92
-341,165,507,87,-424,336,239,239,361,258,102,97
-341,170,512,85,-427,341,248,248,366,268,107,97
-341,165,507,87,-424,336,258,253,375,273,112,97
-341,170,512,85,-427,341,263,258,390,283,117,102
-346,195,541,75,-444,368,263,273,405,297,126,107
-346,204,551,70,-448,378,263,278,424,307,131,112
-351,214,566,68,-458,390,273,283,439,317,146,117
-356,229,585,63,-470,407,283,297,444,326,156,122
-366,239,605,63,-485,422,287,302,448,326,161,122
-361,234,595,63,-478,414,292,317,463,341,170,122
-366,224,590,70,-478,407,302,331,483,356,180,131
-366,234,600,65,-483,417,302,331,497,366,180,136
-366,248,614,58,-490,431,302,341,502,375,190,136
-361,268,629,46,-495,448,302,346,517,385,200,141
-341,297,639,21,-490,468,297,346,531,395,204,151
-351,302,653,24,-502,478,312,366,546,409,219,161
-370,283,653,43,-512,468,331,385,561,424,234,170
-361,292,653,34,-507,473,331,390,561,434,234,175
-351,317,668,17,-509,492,326,395,575,444,244,180
-351,326,678,12,-514,502,331,414,590,453,258,185
-351,326,678,12,-514,502,341,429,605,463,263,190
-346,331,678,7,-512,505,341,434,610,473,268,195
-341,331,673,4,-507,502,336,439,619,478,278,195
-341,331,673,4,-507,502,346,439,624,488,283,204
-341,341,683,0,-512,512,346,448,644,507,297,214
-331,356,688,-12,-509,522,346,468,653,522,312,224
-322,351,673,-14,-497,512,346,473,663,531,322,234
-317,346,663,-14,-490,505,351,483,673,536,331,244
-312,361,673,-24,-492,517,351,492,678,536,331,244
-307,366,673,-29,-490,519,351,492,673,531,326,239
-302,366,668,-31,-485,517,356,502,678,536,336,244
-287,366,653,-39,-470,509,356,507,692,551,346,253
-283,361,644,-39,-463,502,361,517,702,566,361,268
-278,346,624,-34,-451,485,361,527,707,575,375,278
-268,351,619,-41,-444,485,351,522,702,575,375,278
-253,361,614,-53,-434,488,341,522,697,570,370,268
-244,356,600,-56,-422,478,341,527,697,570,370,268
-234,356,590,-61,-412,473,346,536,702,575,375,283
-224,356,580,-65,-402,468,336,541,707,580,380,287
-204,361,566,-78,-385,463,326,536,707,580,375,283
-200,361,561,-80,-380,461,322,536,697,575,375,283
-190,351,541,-80,-366,446,322,536,692,575,380,287
-180,346,527,-82,-353,436,312,531,692,570,380,283
-161,341,502,-90,-331,422,302,522,678,561,380,278
-151,341,492,-95,-322,417,297,522,663,561,375,278
-151,331,483,-90,-317,407,292,522,658,556,380,287
-141,331,473,-95,-307,402,287,512,653,551,380,283
-122,322,444,-100,-283,383,273,497,639,541,370,278
-112,302,414,-95,-263,358,258,488,619,527,361,273
-107,287,395,-90,-251,341,248,483,605,517,356,268
-92,283,375,-95,-234,329,244,473,595,507,351,268
-73,283,356,-104,-214,319,234,463,585,502,346,263
-68,283,351,-107,-209,317,219,448,566,478,331,248
-68,278,346,-104,-207,312,204,424,536,458,312,229
-63,273,336,-104,-200,305,195,409,527,448,307,229
-58,258,317,-100,-187,287,195,409,517,439,307,234
-58,239,297,-90,-178,268,185,395,502,424,297,224
-58,224,283,-82,-170,253,175,375,483,405,283,224
-53,214,268,-80,-161,241,161,356,453,385,268,214
-34,209,244,-87,-139,226,141,326,419,366,248,200
-19,200,219,-90,-119,209,126,302,400,346,234,190
-24,180,204,-78,-114,192,126,292,385,336,229,185
-24,165,190,-70,-107,178,122,287,366,326,224,170
-19,156,175,-68,-97,165,107,273,356,307,209,161
-14,141,156,-63,-85,148,97,258,341,287,195,151
-24,117,141,-46,-82,129,92,239,317,273,185,146
-39,107,146,-34,-92,126,87,219,297,253,170,141
-34,107,141,-36,-87,124,78,195,278,234,161,136
-19,97,117,-39,-68,107,68,180,253,224,146,126
-24,92,117,-34,-70,104,63,170,229,204,131,112
-39,92,131,-26,-85,112,58,161,214,190,122,97
-43,68,112,-12,-78,90,58,156,209,185,117,97
-34,43,78,-4,-56,61,53,156,209,180,112,97
-39,48,87,-4,-63,68,39,136,195,170,97,92
-53,43,97,4,-75,70,34,117,170,151,87,82
-58,29,87,14,-73,58,39,112,151,131,73,78
-48,24,73,12,-61,48,34,102,136,122,63,73
-39,14,53,12,-46,34,29,92,126,112,53,63
-48,9,58,19,-53,34,24,87,112,97,43,43
-58,9,68,24,-63,39,19,78,102,82,34,39
-58,4,63,26,-61,34,14,68,97,73,24,39
-58,-4,53,31,-56,24,14,58,87,58,14,29
-68,-4,63,36,-65,29,14,58,92,58,14,39
-73,-4,68,39,-70,31,9,53,87,58,14,39
-73,-9,63,41,-68,26,4,48,68,48,4,29
-73,-19,53,46,-63,17,4,43,53,39,-4,24
-73,-24,48,48,-61,12,4,43,48,34,0,24
-82,-19,63,51,-73,21,0,29,48,34,-4,19
-82,-34,48,58,-65,7,0,24,43,29,-14,14
-68,-39,29,53,-48,-4,0,24,39,19,-19,9
-68,-34,34,51,-51,0,0,19,29,9,-24,14
-82,-43,39,63,-61,-2,0,19,39,14,-24,19
-92,-39,53,65,-73,7,-4,14,34,4,-29,9
-82,-29,53,56,-68,12,-9,4,14,-4,-39,0
-82,-53,29,68,-56,-12,-4,4,14,-4,-34,4
-92,-63,29,78,-61,-17,4,14,19,4,-24,14
-97,-58,39,78,-68,-9,0,14,19,4,-29,14
-97,-53,43,75,-70,-4,-4,4,14,0,-34,4
-92,-48,43,70,-68,-2,-4,0,14,0,-39,4
-97,-43,53,70,-75,4,-9,-4,24,0,-43,4
-107,-48,58,78,-82,4,-4,-4,24,0,-39,4
-107,-48,58,78,-82,4,0,0,24,4,-39,9
-87,-39,48,63,-68,4,0,4,14,4,-39,9
-82,-43,39,63,-61,-2,0,4,9,0,-43,4
-97,-58,39,78,-68,-9,4,4,14,-4,-43,4
-102,-58,43,80,-73,-7,4,4,19,-4,-43,4
-102,-43,58,73,-80,7,0,-4,9,-9,-53,-4
-112,-43,68,78,-90,12,0,-4,14,-4,-53,-4
-117,-48,68,82,-92,9,9,4,24,0,-43,4
-102,-48,53,75,-78,2,4,4,14,0,-43,4
-92,-43,48,68,-70,2,-4,-4,9,-4,-48,0
-97,-43,53,70,-75,4,-4,-4,14,-4,-48,0
-97,-53,43,75,-70,-4,4,4,19,4,-43,4
-92,-58,34,75,-63,-12,9,4,24,4,-39,9
-87,-43,43,65,-65,0,9,4,19,4,-34,9
-102,-29,73,65,-87,21,9,0,14,0,-39,4
-122,-43,78,82,-100,17,14,9,19,0,-34,9
-126,-53,73,90,-100,9,24,24,29,4,-29,19
-112,-43,68,78,-90,12,19,14,29,0,-39,9
-102,-34,68,68,-85,17,9,9,19,-4,-48,4
-102,-48,53,75,-78,2,14,9,19,0,-43,4
-107,-63,43,85,-75,-9,19,14,34,9,-34,9
-102,-53,48,78,-75,-2,14,14,34,4,-39,4
-107,-48,58,78,-82,4,9,9,24,0,-43,-4
-122,-53,68,87,-95,7,14,9,29,9,-39,-4
-122,-48,73,85,-97,12,14,9,39,14,-34,0
-102,-34,68,68,-85,17,4,0,39,9,-34,0
-102,-34,68,68,-85,17,4,4,39,9,-43,0
-107,-53,53,80,-80,0,14,14,34,4,-48,0
-112,-58,53,85,-82,-2,19,14,39,9,-39,4
-117,-53,63,85,-90,4,24,24,43,14,-34,9
-117,-48,68,82,-92,9,24,29,39,14,-34,14
-117,-43,73,80,-95,14,19,29,34,4,-34,4
-122,-34,87,78,-104,26,24,19,39,14,-34,0
-126,-29,97,78,-112,34,19,14,34,19,-39,0
-122,-19,102,70,-112,41,14,14,29,14,-39,0
-126,-19,107,73,-117,43,24,14,43,19,-39,0
-141,-29,112,85,-126,41,29,19,58,34,-29,9
-141,-29,112,85,-126,41,34,24,63,34,-24,19
-117,-19,97,68,-107,39,24,19,58,34,-29,14
-107,-19,87,63,-97,34,24,24,48,29,-34,9
-126,-34,92,80,-109,29,29,34,48,34,-24,19
-136,-39,97,87,-117,29,34,39,58,48,-9,29
-122,-34,87,78,-104,26,39,39,73,58,0,29
-117,-39,78,78,-97,19,34,34,78,53,-9,24
-131,-43,87,87,-109,21,34,34,68,48,-14,14
-136,-34,102,85,-119,34,39,34,68,43,-19,14
-122,-24,97,73,-109,36,34,34,63,43,-24,14
-112,-24,87,68,-100,31,34,39,58,39,-24,14
-122,-24,97,73,-109,36,34,34,58,39,-24,14
-131,-24,107,78,-119,41,34,34,68,48,-14,19
-131,-29,102,80,-117,36,34,34,73,58,-9,24
-126,-19,107,73,-117,43,34,29,78,58,-9,19
-126,0,126,63,-126,63,29,24,73,53,-14,19
-131,4,136,63,-134,70,29,24,78,58,-14,19
-126,-4,122,65,-124,58,29,24,82,53,-9,14
-117,-4,112,61,-114,53,24,24,78,53,-14,9
-117,-9,107,63,-112,48,29,34,82,53,-9,14
-122,-24,97,73,-109,36,34,43,87,63,0,24
-117,-29,87,73,-102,29,39,43,92,63,4,24
-112,-19,92,65,-102,36,34,39,82,58,-4,19
-112,-9,102,61,-107,46,29,34,73,53,-9,14
-117,-9,107,63,-112,48,24,29,63,48,-9,9
-122,-9,112,65,-117,51,24,29,63,43,-14,9
-112,-14,97,63,-104,41,29,29,63,48,-9,9
-117,-19,97,68,-107,39,34,34,68,48,-4,4
-117,-19,97,68,-107,39,34,29,63,43,-9,0
-112,-14,97,63,-104,41,29,24,53,39,-14,4
-112,-24,87,68,-100,31,34,24,58,39,-14,4
-117,-39,78,78,-97,19,34,24,73,48,-14,4
-117,-39,78,78,-97,19,34,29,68,53,-9,9
-117,-24,92,70,-104,34,29,24,58,48,-9,4
-117,-14,102,65,-109,43,24,19,53,43,-14,-4
-117,-4,112,61,-114,53,19,19,63,43,-19,-4
-117,-14,102,65,-109,43,24,24,63,39,-14,-4
-117,-19,97,68,-107,39,29,24,53,39,-14,-4
-117,-19,97,68,-107,39,24,14,53,39,-9,-4
-112,-14,97,63,-104,41,24,14,58,43,-9,-4
-117,-14,102,65,-109,43,24,24,63,48,-9,-4
-122,-19,102,70,-112,41,24,14,58,43,-14,-4
-112,-24,87,68,-100,31,14,0,43,29,-24,-14
-107,-19,87,63,-97,34,14,0,39,29,-29,-19
-122,-14,107,68,-114,46,19,4,48,34,-24,-14
-126,-9,117,68,-122,53,19,9,48,34,-24,-14
-122,-4,117,63,-119,56,19,4,39,29,-24,-19
-122,-14,107,68,-114,46,19,14,39,29,-29,-19
-122,-19,102,70,-112,41,24,14,43,39,-19,-19
-112,-4,107,58,-109,51,24,14,58,48,-9,-9
-112,0,112,56,-112,56,19,9,48,39,-9,-9
-117,-14,102,65,-109,43,19,4,29,19,-19,-14
-112,-34,78,73,-95,21,24,9,24,14,-24,-14
-126,-39,87,82,-107,24,29,14,39,19,-19,-9
-131,-19,112,75,-122,46,24,9,43,24,-19,-9
-112,-14,97,63,-104,41,19,9,43,24,-24,-14
-102,-19,82,61,-92,31,14,0,43,24,-24,-24
-107,-24,82,65,-95,29,19,0,48,29,-24,-24
-112,-29,82,70,-97,26,19,4,53,34,-19,-19
-97,-19,78,58,-87,29,19,4,53,34,-24,-19
-92,-9,82,51,-87,36,14,4,48,34,-29,-24
-112,-14,97,63,-104,41,24,14,43,34,-19,-24
-117,-29,87,73,-102,29,24,24,43,39,-14,-14
-112,-29,82,70,-97,26,24,19,48,39,-14,-14
-107,-29,78,68,-92,24,24,14,43,29,-19,-19
-112,-29,82,70,-97,26,24,14,39,34,-19,-14
-117,-29,87,73,-102,29,29,14,43,39,-14,-14
-107,-19,87,63,-97,34,19,9,39,34,-19,-19
-92,-4,87,48,-90,41,14,4,29,19,-29,-24
-97,-14,82,56,-90,34,19,4,34,24,-29,-24
-102,-24,78,63,-90,26,24,4,39,29,-19,-19
-97,-14,82,56,-90,34,24,4,34,24,-24,-14
-92,-24,68,58,-80,21,24,4,34,24,-24,-14
-107,-29,78,68,-92,24,34,9,39,29,-24,-24
-112,-19,92,65,-102,36,29,9,43,29,-24,-24
-102,-19,82,61,-92,31,29,4,43,29,-19,-14
-97,-34,63,65,-80,14,24,4,48,34,-19,-14
-112,-39,73,75,-92,17,24,4,43,29,-29,-19
-117,-39,78,78,-97,19,19,4,39,24,-29,-19
-107,-34,73,70,-90,19,19,4,34,24,-19,-14
-92,-24,68,58,-80,21,19,4,34,29,-19,-14
-78,-24,53,51,-65,14,19,9,34,29,-19,-14
-87,-19,68,53,-78,24,24,9,34,29,-14,-14
-102,-19,82,61,-92,31,29,9,39,29,-14,-14
-97,-14,82,56,-90,34,34,9,39,29,-14,-19
-87,-4,82,46,-85,39,34,9,39,29,-14,-14
-102,-14,87,58,-95,36,34,9,48,34,-9,-4
-112,-29,82,70,-97,26,34,9,48,34,-9,-9
-102,-29,73,65,-87,21,24,0,43,29,-19,-14
-102,-19,82,61,-92,31,29,0,39,29,-19,-19
-102,-9,92,56,-97,41,29,4,39,29,-19,-24
-102,-4,97,53,-100,46,29,4,34,24,-19,-29
-92,-4,87,48,-90,41,34,9,34,24,-19,-29
-78,0,78,39,-78,39,34,14,39,24,-14,-29
-78,0,78,39,-78,39,39,14,43,29,-14,-29
-87,4,92,41,-90,48,34,14,39,29,-14,-29
-78,9,87,34,-82,48,29,9,34,24,-14,-34
-68,9,78,29,-73,43,29,4,29,24,-19,-34
-78,0,78,39,-78,39,24,9,39,24,-14,-29
-87,-4,82,46,-85,39,19,14,39,29,-14,-24
-78,0,78,39,-78,39,24,9,39,29,-14,-24
-73,9,82,31,-78,46,24,4,34,34,-14,-29
-78,9,87,34,-82,48,24,4,39,29,-14,-34
-82,-4,78,43,-80,36,29,14,34,24,-9,-34
-82,-14,68,48,-75,26,29,14,34,24,-9,-24
-87,-9,78,48,-82,34,19,9,43,29,-9,-29
-58,9,68,24,-63,39,-9,9,53,34,0,-29
43,34,-9,-39,26,12,-102,14,58,48,14,-19
-24,9,34,7,-29,21,-39,14,53,43,9,-19
-219,-39,180,129,-200,70,170,0,34,9,-34,-34
-156,-4,151,80,-153,73,117,4,19,4,-39,-39
-34,34,68,0,-51,51,-24,14,19,14,-14,-34
-82,14,97,34,-90,56,19,14,29,14,-14,-29
-107,4,112,51,-109,58,48,14,34,14,-14,-29
-68,19,87,24,-78,53,9,14,39,24,-9,-29
-63,19,82,21,-73,51,9,9,39,29,0,-24
-78,9,87,34,-82,48,29,9,43,29,0,-24
-63,4,68,29,-65,36,24,9,43,24,-9,-29
-53,4,58,24,-56,31,19,4,34,19,-14,-39
-63,9,73,26,-68,41,24,9,34,19,-14,-34
-63,9,73,26,-68,41,24,14,43,24,-4,-29
-53,0,53,26,-53,26,24,19,48,29,4,-24
-48,0,48,24,-48,24,24,19,48,29,4,-34
-53,19,73,17,-63,46,19,19,48,24,0,-34
-63,19,82,21,-73,51,14,14,43,24,-4,-34
-63,4,68,29,-65,36,4,9,34,14,-14,-34
-48,9,58,19,-53,34,0,0,34,9,-19,-39
-48,19,68,14,-58,43,-4,-4,34,14,-19,-39
-53,19,73,17,-63,46,0,0,34,19,-14,-34
-58,19,78,19,-68,48,4,9,34,19,-9,-29
-58,19,78,19,-68,48,9,4,34,19,-4,-24
-63,19,82,21,-73,51,4,4,39,19,-4,-24
-58,19,78,19,-68,48,0,4,43,24,0,-19
-53,29,82,12,-68,56,4,9,43,24,4,-14
-53,24,78,14,-65,51,9,14,43,24,4,-14
-63,0,63,31,-63,31,19,14,43,19,0,-14
-68,0,68,34,-68,34,19,14,39,14,-9,-19
-63,14,78,24,-70,46,14,14,39,14,-14,-19
-63,14,78,24,-70,46,9,9,34,9,-19,-29
-58,9,68,24,-63,39,9,0,34,4,-19,-29
-63,24,87,19,-75,56,9,-4,39,9,-14,-29
-68,39,107,14,-87,73,14,-4,48,14,-14,-24
-63,39,102,12,-82,70,9,-4,48,14,-14,-29
-63,39,102,12,-82,70,9,0,43,19,-9,-24
-73,29,102,21,-87,65,19,9,43,24,4,-19
-78,14,92,31,-85,53,24,19,48,29,9,-19
-68,29,97,19,-82,63,24,14,53,29,4,-24
-58,39,97,9,-78,68,24,14,53,34,4,-19
-58,43,102,7,-80,73,29,19,53,39,9,-14
-58,39,97,9,-78,68,29,19,53,39,14,-9
-53,34,87,9,-70,61,19,14,48,34,4,-19
-48,29,78,9,-63,53,24,14,39,29,0,-29
-53,29,82,12,-68,56,29,19,39,34,4,-24
-68,24,92,21,-80,58,34,19,53,34,9,-19
-63,24,87,19,-75,56,29,19,53,34,4,-24
-58,19,78,19,-68,48,29,14,39,34,4,-24
-63,4,68,29,-65,36,34,14,29,29,4,-24
-63,9,73,26,-68,41,34,14,29,24,0,-29
-63,14,78,24,-70,46,34,9,29,19,-4,-29
-53,19,73,17,-63,46,29,9,19,14,-9,-29
-43,24,68,9,-56,46,19,0,14,9,-9,-34
-58,19,78,19,-68,48,24,0,19,9,-9,-34
-78,0,78,39,-78,39,39,4,34,14,0,-24
-68,4,73,31,-70,39,34,4,39,19,4,-19
-48,14,63,17,-56,39,29,4,34,19,0,-24
-48,9,58,19,-53,34,24,0,24,9,-4,-29
-58,14,73,21,-65,43,24,0,19,4,0,-34
-58,29,87,14,-73,58,19,0,14,0,-4,-39
-58,29,87,14,-73,58,14,-9,9,0,-14,-39
-68,14,82,26,-75,48,19,-9,4,0,-14,-39
-78,0,78,39,-78,39,29,-4,9,9,-19,-39
-73,0,73,36,-73,36,24,-4,19,9,-19,-39
-63,-4,58,34,-61,26,24,-9,14,4,-24,-43
-58,-9,48,34,-53,19,19,-14,4,0,-24,-43
-63,9,73,26,-68,41,14,-14,9,0,-24,-43
-58,34,92,12,-75,63,9,-24,9,0,-29,-43
-53,39,92,7,-73,65,4,-24,9,0,-34,-48
-48,19,68,14,-58,43,9,-14,14,4,-24,-39
-48,9,58,19,-53,34,14,-9,24,14,-14,-34
-43,24,68,9,-56,46,14,-9,24,19,-14,-34
-39,34,73,2,-56,53,19,0,24,24,-4,-34
