I,II,III,aVR,aVL,aVF,V1,V2,V3,V4,V5,V6
9,29,19,-19,-4,24,-58,-82,-97,-92,-73,-58
4,34,29,-19,-12,31,-58,-82,-92,-92,-73,-58
4,43,39,-24,-17,41,-58,-78,-78,-87,-73,-63
14,43,29,-29,-7,36,-53,-78,-78,-87,-73,-63
0,34,34,-17,-17,34,-58,-73,-68,-78,-78,-73
-14,24,39,-4,-26,31,-53,-73,-68,-82,-92,-82
-19,24,43,-2,-31,34,-43,-73,-58,-82,-92,-82
-24,24,48,0,-36,36,-43,-73,-68,-87,-92,-87
-39,9,48,14,-43,29,-24,-73,-73,-112,-102,-92
-39,9,48,14,-43,29,-24,-73,-73,-112,-107,-97
-29,9,39,9,-34,24,-24,-73,-73,-112,-107,-97
-24,19,43,2,-34,31,-29,-68,-68,-112,-102,-97
-14,29,43,-7,-29,36,-29,-68,-58,-107,-92,-107
-29,14,43,7,-36,29,-34,-78,-58,-102,-97,-107
-29,14,43,7,-36,29,-34,-78,-58,-97,-97,-102
-19,19,39,0,-29,29,-34,-73,-58,-87,-87,-102
-34,29,63,2,-48,46,-43,-73,-68,-92,-97,-112
-39,19,58,9,-48,39,-34,-73,-68,-97,-102,-112
-48,19,68,14,-58,43,-34,-73,-68,-107,-107,-112
-53,14,68,19,-61,41,-34,-73,-68,-117,-112,-117
-39,9,48,14,-43,29,-24,-82,-68,-107,-102,-107
-48,9,58,19,-53,34,-29,-82,-68,-102,-97,-107
-48,9,58,19,-53,34,-29,-82,-68,-102,-97,-107
-43,9,53,17,-48,31,-29,-87,-68,-102,-97,-102
-48,0,48,24,-48,24,-29,-82,-68,-112,-107,-112
-53,0,53,26,-53,26,-29,-73,-68,-112,-107,-112
-53,9,63,21,-58,36,-24,-68,-68,-112,-107,-112
-48,9,58,19,-53,34,-24,-63,-68,-112,-107,-117
-48,9,58,19,-53,34,-34,-63,-53,-102,-107,-107
-53,14,68,19,-61,41,-34,-63,-53,-102,-107,-107
-53,19,73,17,-63,46,-34,-63,-53,-102,-107,-102
-53,24,78,14,-65,51,-34,-63,-53,-102,-107,-102
-63,14,78,24,-70,46,-39,-68,-58,-112,-107,-112
-58,9,68,24,-63,39,-19,-73,-63,-112,-107,-112
-48,9,58,19,-53,34,-14,-78,-68,-112,-107,-112
-39,4,43,17,-41,24,-4,-82,-73,-112,-107,-112
-29,4,34,12,-31,19,4,-68,-63,-112,-107,-122
-68,-19,48,43,-58,14,9,-48,-58,-97,-102,-117
-24,9,34,7,-29,21,9,-19,-24,-68,-73,-87
4,24,19,-14,-7,21,4,0,0,-39,-58,-68
-14,24,39,-4,-26,31,0,0,19,-9,-39,-68
-19,63,82,-21,-51,73,4,9,53,34,-4,-58
-19,78,97,-29,-58,87,34,29,82,92,39,-29
-24,92,117,-34,-70,104,53,48,107,156,112,24
14,146,131,-80,-58,139,43,63,131,234,214,112
39,180,141,-109,-51,161,14,82,151,297,317,195
43,175,131,-109,-43,153,14,102,170,351,385,258
68,175,107,-122,-19,141,14,107,200,400,444,312
141,190,48,-165,46,119,-4,97,190,419,502,380
190,200,9,-195,90,104,-24,87,170,424,566,463
209,204,-4,-207,107,100,-48,68,156,429,605,536
219,219,0,-219,109,109,-82,14,117,414,634,570
185,219,34,-202,75,126,-82,-34,107,409,619,551
131,141,9,-136,61,75,-43,-14,136,409,546,468
73,82,9,-78,31,46,-19,-4,180,366,390,302
9,117,107,-63,-48,112,-4,-34,200,248,180,97
-73,146,219,-36,-146,183,53,-9,278,141,-43,-107
-151,146,297,2,-224,222,165,87,429,82,-253,-322
-234,136,370,48,-302,253,263,156,566,-39,-458,-517
-322,122,444,100,-383,283,336,224,658,-126,-600,-634
-370,97,468,136,-419,283,429,336,790,-146,-663,-692
-385,68,453,158,-419,261,488,400,839,-229,-732,-746
-366,48,414,158,-390,231,507,390,717,-380,-780,-780
-361,43,405,158,-383,224,497,366,575,-468,-771,-761
-390,0,390,195,-390,195,512,405,492,-488,-746,-727
-375,-39,336,207,-356,148,522,473,463,-497,-722,-702
-322,-48,273,185,-297,112,536,522,439,-497,-683,-673
-312,-58,253,185,-283,97,527,541,331,-492,-653,-639
-336,-97,239,217,-287,70,507,531,185,-512,-629,-605
-336,-141,195,239,-265,26,497,546,102,-512,-595,-575
-312,-180,131,246,-222,-24,478,536,39,-492,-561,-546
-292,-180,112,236,-202,-34,424,497,-78,-502,-531,-517
-258,-185,73,222,-165,-56,356,419,-209,-512,-517,-492
-214,-180,34,197,-124,-73,302,370,-278,-502,-478,-444
-180,-200,-19,190,-80,-109,273,370,-278,-468,-434,-385
-136,-200,-63,168,-36,-131,234,326,-278,-439,-395,-356
-92,-180,-87,136,-2,-134,200,268,-287,-405,-356,-322
-92,-180,-87,136,-2,-134,185,244,-287,-380,-322,-292
-92,-195,-102,143,4,-148,170,234,-258,-356,-302,-273
-58,-146,-87,102,14,-117,126,180,-234,-292,-253,-239
-39,-82,-43,61,2,-63,78,102,-200,-224,-200,-200
-43,-68,-24,56,-9,-46,48,63,-170,-190,-165,-170
-43,-58,-14,51,-14,-36,34,43,-131,-165,-136,-146
-39,-34,4,36,-21,-14,24,14,-112,-141,-122,-131
-29,-19,9,24,-19,-4,14,-14,-107,-136,-122,-126
-19,-19,0,19,-9,-9,14,-14,-92,-117,-102,-117
-14,-4,9,9,-12,2,34,-9,-68,-102,-82,-107
-19,14,34,2,-26,24,43,-24,-58,-82,-78,-97
-14,9,24,2,-19,17,29,-24,-48,-82,-73,-87
-19,9,29,4,-24,19,19,-34,-58,-82,-73,-97
-24,4,29,9,-26,17,9,-53,-63,-87,-78,-97
-19,4,24,7,-21,14,4,-63,-68,-87,-78,-97
-24,4,29,9,-26,17,-19,-73,-78,-87,-78,-97
-24,4,29,9,-26,17,-19,-63,-78,-82,-78,-92
-19,14,34,2,-26,24,-14,-53,-63,-78,-73,-87
-14,14,29,0,-21,21,-14,-53,-58,-68,-63,-82
-24,24,48,0,-36,36,-4,-48,-53,-63,-39,-63
-24,29,53,-2,-39,41,-9,-48,-53,-63,-48,-63
-19,39,58,-9,-39,48,-9,-48,-48,-63,-48,-68
-14,29,43,-7,-29,36,-19,-58,-53,-63,-58,-68
-24,39,63,-7,-43,51,-19,-63,-68,-63,-48,-78
-24,34,58,-4,-41,46,-19,-63,-68,-63,-48,-73
-24,34,58,-4,-41,46,-14,-58,-68,-63,-48,-73
-14,34,48,-9,-31,41,-4,-53,-63,-63,-34,-68
4,43,39,-24,-17,41,-4,-58,-58,-58,-48,-68
0,39,39,-19,-19,39,-14,-63,-58,-63,-48,-68
-9,29,39,-9,-24,34,-34,-78,-58,-73,-53,-68
-4,24,29,-9,-17,26,-43,-87,-58,-78,-68,-68
4,29,24,-17,-9,26,-34,-78,-68,-87,-58,-63
14,34,19,-24,-2,26,-43,-78,-73,-87,-58,-63
29,39,9,-34,9,24,-43,-78,-82,-87,-58,-63
39,43,4,-41,17,24,-43,-78,-87,-87,-58,-63
14,34,19,-24,-2,26,-34,-68,-78,-78,-39,-48
0,29,29,-14,-14,29,-34,-63,-68,-78,-34,-48
-9,19,29,-4,-19,24,-39,-58,-63,-73,-34,-48
-24,9,34,7,-29,21,-39,-53,-58,-73,-43,-48
-19,19,39,0,-29,29,-48,-63,-73,-78,-53,-58
-14,19,34,-2,-24,26,-53,-68,-78,-78,-53,-58
-4,19,24,-7,-14,21,-53,-78,-82,-78,-53,-58
14,19,4,-17,4,12,-53,-82,-82,-78,-53,-58
9,24,14,-17,-2,19,-39,-82,-78,-78,-43,-48
14,24,9,-19,2,17,-39,-78,-73,-78,-39,-48
29,29,0,-29,14,14,-39,-78,-73,-78,-39,-39
29,34,4,-31,12,19,-39,-82,-73,-78,-39,-39
14,24,9,-19,2,17,-39,-87,-78,-78,-48,-48
14,19,4,-17,4,12,-39,-87,-82,-78,-48,-48
14,19,4,-17,4,12,-39,-82,-82,-78,-48,-39
9,19,9,-14,0,14,-43,-78,-82,-73,-43,-39
14,29,14,-21,0,21,-53,-68,-68,-63,-29,-29
19,29,9,-24,4,19,-43,-68,-68,-63,-29,-29
29,24,-4,-26,17,9,-53,-68,-68,-63,-29,-29
39,24,-14,-31,26,4,-63,-78,-73,-63,-29,-29
43,29,-14,-36,29,7,-68,-73,-73,-68,-29,-29
39,29,-9,-34,24,9,-68,-78,-78,-68,-34,-29
34,29,-4,-31,19,12,-73,-78,-82,-63,-34,-29
39,29,-9,-34,24,9,-73,-73,-82,-63,-24,-19
53,29,-24,-41,39,2,-68,-82,-87,-63,-24,-9
53,34,-19,-43,36,7,-63,-92,-82,-63,-14,-4
43,34,-9,-39,26,12,-53,-92,-82,-63,-14,-4
39,34,-4,-36,21,14,-48,-87,-87,-53,-14,-4
19,24,4,-21,7,14,-53,-82,-73,-48,-4,9
14,34,19,-24,-2,26,-63,-78,-68,-43,0,9
14,34,19,-24,-2,26,-63,-73,-68,-39,4,14
-4,34,39,-14,-21,36,-63,-73,-63,-34,19,19
4,24,19,-14,-7,21,-78,-78,-63,-43,9,14
19,24,4,-21,7,14,-82,-78,-68,-43,4,19
39,24,-14,-31,26,4,-92,-82,-73,-48,4,19
39,29,-9,-34,24,9,-97,-87,-78,-43,4,29
48,24,-24,-36,36,0,-102,-97,-82,-53,4,19
58,24,-34,-41,46,-4,-97,-117,-92,-53,4,24
73,24,-48,-48,61,-12,-92,-122,-102,-53,9,24
87,29,-58,-58,73,-14,-87,-122,-107,-43,19,29
68,34,-34,-51,51,0,-82,-117,-97,-34,34,39
48,39,-9,-43,29,14,-78,-112,-92,-29,43,48
39,48,9,-43,14,29,-68,-102,-87,-9,53,73
39,68,29,-53,4,48,-63,-97,-82,-4,63,78
48,43,-4,-46,26,19,-87,-107,-92,-9,63,73
53,39,-14,-46,34,12,-102,-107,-92,-9,63,73
78,34,-43,-56,61,-4,-117,-117,-97,-9,58,78
78,34,-43,-56,61,-4,-131,-117,-97,-14,58,82
87,43,-43,-65,65,0,-136,-126,-97,-9,73,82
87,53,-34,-70,61,9,-136,-126,-92,9,82,97
92,63,-29,-78,61,17,-136,-126,-87,19,97,107
97,68,-29,-82,63,19,-141,-126,-87,24,102,122
107,58,-48,-82,78,4,-141,-126,-92,43,122,131
107,58,-48,-82,78,4,-151,-131,-87,53,131,136
107,63,-43,-85,75,9,-156,-131,-87,63,136,141
122,68,-53,-95,87,7,-175,-131,-87,68,146,151
146,78,-68,-112,107,4,-165,-131,-78,68,146,165
146,78,-68,-112,107,4,-165,-131,-73,82,161,175
146,87,-58,-117,102,14,-165,-131,-73,97,170,185
151,97,-53,-124,102,21,-165,-131,-63,107,180,195
156,92,-63,-124,109,14,-175,-131,-68,117,180,200
151,92,-58,-122,104,17,-185,-131,-58,131,195,209
141,97,-43,-119,92,26,-195,-126,-48,146,209,219
136,102,-34,-119,85,34,-200,-126,-39,161,214,219
151,107,-43,-129,97,31,-190,-126,-19,185,234,234
161,117,-43,-139,102,36,-190,-126,-14,195,239,234
170,126,-43,-148,107,41,-200,-122,-4,209,244,234
170,131,-39,-151,104,46,-200,-122,9,224,253,244
180,141,-39,-161,109,51,-204,-107,9,248,268,258
180,146,-34,-163,107,56,-204,-97,29,258,278,258
175,151,-24,-163,100,63,-200,-92,48,278,287,263
175,165,-9,-170,92,78,-200,-87,63,292,292,273
185,156,-29,-170,107,63,-200,-87,68,297,302,263
185,156,-29,-170,107,63,-204,-82,68,302,302,263
185,156,-29,-170,107,63,-204,-82,78,312,307,263
185,165,-19,-175,102,73,-200,-82,87,322,307,263
180,180,0,-180,90,90,-190,-87,97,326,307,263
190,180,-9,-185,100,85,-185,-87,107,326,302,268
200,185,-14,-192,107,85,-185,-78,107,336,307,268
180,185,4,-183,87,95,-185,-78,112,341,307,268
175,190,14,-183,80,102,-185,-63,126,356,312,278
170,190,19,-180,75,104,-180,-63,131,361,312,273
165,190,24,-178,70,107,-180,-63,131,361,312,263
151,190,39,-170,56,114,-180,-58,136,356,312,253
151,185,34,-168,58,109,-175,-39,151,356,312,258
131,180,48,-156,41,114,-161,-34,165,361,297,253
126,165,39,-146,43,102,-156,-29,165,361,292,239
122,161,39,-141,41,100,-156,-24,165,351,278,219
126,170,43,-148,41,107,-156,-24,170,351,273,219
122,170,48,-146,36,109,-151,-14,170,331,263,204
122,165,43,-143,39,104,-146,-14,165,322,248,185
107,161,53,-134,26,107,-141,-9,165,302,224,175
107,161,53,-134,26,107,-126,4,170,283,224,156
92,131,39,-112,26,85,-117,4,156,258,200,141
92,131,39,-112,26,85,-92,9,151,239,180,126
87,122,34,-104,26,78,-73,9,146,219,170,112
63,102,39,-82,12,70,-68,-4,136,195,146,92
53,97,43,-75,4,70,-63,-4,117,175,126,78
53,87,34,-70,9,61,-68,-9,102,156,112,58
63,82,19,-73,21,51,-73,-14,82,136,92,43
34,63,29,-48,2,46,-63,0,87,126,78,34
34,53,19,-43,7,36,-63,-4,78,107,68,24
29,53,24,-41,2,39,-58,-4,73,92,53,19
24,43,19,-34,2,31,-53,0,63,78,48,19
14,43,29,-29,-7,36,-34,-9,48,63,43,4
14,43,29,-29,-7,36,-29,-14,43,53,39,0
4,43,39,-24,-17,41,-29,-14,39,43,24,0
-4,48,53,-21,-29,51,-29,-14,39,39,24,0
-4,39,43,-17,-24,41,-39,-14,39,24,4,-14
-4,29,34,-12,-19,31,-39,-24,24,9,-4,-29
0,24,24,-12,-12,24,-39,-24,19,0,-19,-39
0,19,19,-9,-9,19,-34,-24,19,-9,-19,-43
-9,14,24,-2,-17,19,-19,-14,4,0,-19,-34
-19,9,29,4,-24,19,-24,-19,4,-9,-29,-34
-24,9,34,7,-29,21,-19,-19,-4,-9,-29,-39
-29,9,39,9,-34,24,-9,-19,-4,-9,-29,-39
-19,-9,9,14,-14,0,-9,-24,-19,-24,-29,-34
-4,-14,-9,9,2,-12,-9,-29,-19,-24,-39,-34
9,-14,-24,2,17,-19,-9,-34,-19,-24,-39,-34
9,-14,-24,2,17,-19,4,-39,-19,-29,-39,-34
0,-9,-9,4,4,-9,-4,-48,-34,-43,-58,-53
9,-9,-19,0,14,-14,-14,-43,-34,-43,-58,-53
9,0,-9,-4,9,-4,-29,-43,-34,-43,-53,-48
9,0,-9,-4,9,-4,-43,-43,-34,-43,-53,-48
-9,0,9,4,-9,4,-34,-34,-19,-39,-43,-58
-19,-4,14,12,-17,4,-29,-34,-14,-39,-43,-58
-34,-4,29,19,-31,12,-19,-34,-9,-43,-43,-58
-43,-4,39,24,-41,17,-14,-34,-4,-43,-43,-63
-58,-9,48,34,-53,19,-9,-29,-9,-34,-48,-48
-58,-9,48,34,-53,19,-9,-29,-9,-34,-48,-43
-48,-9,39,29,-43,14,-9,-24,-9,-34,-43,-39
-48,-14,34,31,-41,9,-14,-19,-14,-34,-39,-29
-34,-14,19,24,-26,2,-29,-24,-24,-43,-48,-34
-19,-14,4,17,-12,-4,-29,-29,-29,-43,-48,-39
-4,-14,-9,9,2,-12,-34,-29,-34,-43,-48,-43
9,-14,-24,2,17,-19,-39,-34,-39,-43,-48,-48
14,0,-14,-7,14,-7,-43,-24,-29,-34,-39,-43
14,-9,-24,-2,19,-17,-43,-34,-34,-39,-39,-43
19,-4,-24,-7,21,-14,-39,-34,-34,-39,-39,-43
29,9,-19,-19,24,-4,-34,-34,-29,-34,-39,-43
9,0,-9,-4,9,-4,-34,-19,-19,-24,-19,-24
0,-4,-4,2,2,-4,-34,-19,-19,-24,-19,-24
-14,-9,4,12,-9,-2,-34,-19,-19,-24,-19,-24
-24,-9,14,17,-19,2,-29,-19,-24,-24,-19,-24
4,4,0,-4,2,2,-19,-34,-34,-29,-24,-29
9,9,0,-9,4,4,-19,-39,-34,-34,-29,-39
19,14,-4,-17,12,4,-19,-43,-34,-34,-34,-43
24,14,-9,-19,17,2,-19,-53,-39,-39,-39,-43
9,4,-4,-7,7,0,-24,-48,-29,-29,-24,-34
4,4,0,-4,2,2,-29,-48,-34,-29,-24,-29
0,4,4,-2,-2,4,-29,-43,-34,-29,-19,-29
-4,4,9,0,-7,7,-29,-39,-34,-29,-19,-24
0,9,9,-4,-4,9,-34,-29,-24,-24,-14,-14
0,9,9,-4,-4,9,-34,-29,-19,-19,-9,-9
4,14,9,-9,-2,12,-34,-29,-19,-14,0,-9
4,19,14,-12,-4,17,-34,-29,-19,-9,4,-9
4,14,9,-9,-2,12,-43,-29,-29,-9,-4,-19
-4,4,9,0,-7,7,-43,-29,-34,-14,-4,-14
-4,-4,0,4,-2,-2,-43,-29,-39,-19,-9,-14
-4,-9,-4,7,0,-7,-43,-34,-43,-24,-9,-14
-9,0,9,4,-9,4,-53,-43,-39,-24,-19,-19
-14,0,14,7,-14,7,-58,-43,-39,-24,-19,-19
-14,0,14,7,-14,7,-58,-43,-39,-24,-19,-19
-19,0,19,9,-19,9,-58,-43,-39,-24,-19,-19
-19,9,29,4,-24,19,-48,-43,-48,-34,-9,-14
-9,9,19,0,-14,14,-43,-43,-43,-34,-9,-9
-9,9,19,0,-14,14,-43,-43,-43,-34,-9,0
-14,9,24,2,-19,17,-43,-43,-48,-34,-9,4
0,0,0,0,0,0,-53,-43,-39,-24,-9,4
4,4,0,-4,2,2,-53,-43,-39,-24,-9,4
14,4,-9,-9,12,-2,-63,-43,-39,-24,-4,9
19,4,-14,-12,17,-4,-63,-43,-39,-29,-4,9
14,-4,-19,-4,17,-12,-53,-39,-48,-39,-4,-4
0,0,0,0,0,0,-48,-39,-48,-39,-9,-9
-4,0,4,2,-4,2,-39,-39,-48,-39,-19,-9
-9,0,9,4,-9,4,-34,-39,-48,-39,-24,-9
0,0,0,0,0,0,-24,-48,-48,-29,-14,0
-4,-4,0,4,-2,-2,-24,-48,-48,-29,-19,0
-4,-4,0,4,-2,-2,-14,-48,-48,-34,-19,0
0,0,0,0,0,0,-14,-48,-48,-39,-19,0
14,9,-4,-12,9,2,-19,-39,-39,-39,-34,-14
14,9,-4,-12,9,2,-29,-48,-39,-39,-34,-24
14,9,-4,-12,9,2,-39,-48,-39,-39,-39,-29
4,9,4,-7,0,7,-43,-48,-34,-39,-39,-39
4,19,14,-12,-4,17,-39,-43,-34,-39,-39,-34
9,14,4,-12,2,9,-39,-43,-34,-39,-39,-29
19,14,-4,-17,12,4,-43,-43,-34,-39,-39,-24
24,14,-9,-19,17,2,-43,-39,-34,-39,-39,-14
19,9,-9,-14,14,0,-53,-39,-34,-39,-39,-14
14,4,-9,-9,12,-2,-53,-39,-39,-39,-39,-14
9,0,-9,-4,9,-4,-48,-39,-48,-43,-39,-14
14,-9,-24,-2,19,-17,-43,-39,-53,-43,-39,-14
0,-9,-9,4,4,-9,-34,-39,-34,-29,-29,-4
-14,-9,4,12,-9,-2,-34,-39,-19,-29,-29,-14
-29,-19,9,24,-19,-4,-34,-39,-24,-34,-39,-19
-43,-19,24,31,-34,2,-34,-39,-19,-39,-39,-19
-19,-9,9,14,-14,0,-34,-48,-34,-48,-48,-24
-14,-4,9,9,-12,2,-39,-48,-29,-43,-43,-29
-14,-4,9,9,-12,2,-39,-48,-29,-43,-43,-29
-29,-4,24,17,-26,9,-34,-48,-34,-43,-43,-34
-14,-4,9,9,-12,2,-34,-34,-19,-48,-34,-34
-9,-4,4,7,-7,0,-24,-34,-19,-43,-34,-34
-4,-9,-4,7,0,-7,-29,-34,-24,-43,-29,-34
0,-9,-9,4,4,-9,-39,-34,-24,-39,-29,-34
24,-9,-34,-7,29,-21,-29,-14,-14,-29,-19,-29
39,-9,-48,-14,43,-29,-19,-4,-9,-24,-19,-24
43,-24,-68,-9,56,-46,-9,0,-9,-19,-19,-19
43,-24,-68,-9,56,-46,0,9,-4,-19,-19,-14
53,-14,-68,-19,61,-41,0,34,29,0,-4,9
68,-9,-78,-29,73,-43,9,29,19,0,0,9
58,-24,-82,-17,70,-53,9,29,9,-9,-9,4
48,-39,-87,-4,68,-63,9,29,9,-9,-9,0
39,-53,-92,7,65,-73,9,29,9,-9,-9,-4
29,-68,-97,19,63,-82,9,29,9,-9,-9,-9
14,-63,-78,24,46,-70,24,29,19,-9,4,4
9,-68,-78,29,43,-73,29,39,14,-4,0,4
-4,-63,-58,34,26,-61,39,48,19,0,4,9
-9,-53,-43,31,17,-48,48,58,24,4,9,14
-4,-39,-34,21,14,-36,48,53,24,-4,4,4
-9,-39,-29,24,9,-34,43,53,24,-4,0,4
-9,-39,-29,24,9,-34,39,53,24,-9,-9,0
9,-34,-43,12,26,-39,34,58,19,-9,-14,-4
19,-39,-58,9,39,-48,34,53,14,-19,-14,4
29,-48,-78,9,53,-63,34,63,9,-19,-14,9
48,-53,-102,2,75,-78,29,63,9,-14,-14,9
63,-53,-117,-4,90,-85,24,68,4,-14,-9,14
78,-43,-122,-17,100,-82,14,68,4,-14,-19,4
82,-43,-126,-19,104,-85,14,68,4,-19,-19,4
87,-43,-131,-21,109,-87,14,68,0,-19,-19,4
87,-58,-146,-14,117,-102,0,63,-9,-29,-34,0
73,-68,-141,-2,107,-104,-29,39,-34,-39,-24,-9
53,-68,-122,7,87,-95,-53,9,-58,-48,-24,-14
39,-68,-107,14,73,-87,-73,-24,-78,-63,-39,-19
19,-78,-97,29,58,-87,-92,-58,-107,-87,-58,-29
29,-78,-107,24,68,-92,-97,-82,-112,-92,-63,-29
34,-68,-102,17,68,-85,-112,-87,-117,-92,-73,-34
43,-68,-112,12,78,-90,-112,-82,-112,-92,-73,-34
34,-68,-102,17,68,-85,-102,-73,-102,-87,-68,-29
29,-63,-92,17,61,-78,-82,-63,-92,-78,-48,-9
24,-53,-78,14,51,-65,-73,-63,-82,-68,-43,-9
19,-48,-68,14,43,-58,-58,-53,-78,-58,-39,-9
24,-39,-63,7,43,-51,-43,-53,-78,-48,-39,0
29,-39,-68,4,48,-53,-48,-48,-78,-48,-24,0
24,-34,-58,4,41,-46,-43,-48,-82,-48,-24,0
14,-34,-48,9,31,-41,-43,-43,-82,-48,-24,0
9,-29,-39,9,24,-34,-43,-39,-82,-48,-24,0
34,-29,-63,-2,48,-46,-63,-48,-92,-53,-24,4
43,-19,-63,-12,53,-41,-63,-53,-92,-53,-29,0
39,-19,-58,-9,48,-39,-58,-58,-87,-48,-29,-4
43,-14,-58,-14,51,-36,-58,-63,-82,-53,-34,-9
34,-9,-43,-12,39,-26,-58,-48,-68,-48,-24,-9
34,-14,-48,-9,41,-31,-53,-48,-68,-48,-24,-4
9,-19,-29,4,19,-24,-48,-53,-68,-48,-29,-9
-14,-34,-19,24,2,-26,-43,-53,-68,-53,-43,-14
-14,-19,-4,17,-4,-12,-24,-53,-48,-43,-43,-14
-14,-14,0,14,-7,-7,-24,-53,-58,-48,-43,-19
-24,-24,0,24,-12,-12,-14,-53,-63,-63,-53,-24
-19,-19,0,19,-9,-9,-14,-53,-63,-63,-58,-29
0,-29,-29,14,14,-29,-19,-63,-63,-73,-68,-39
4,-19,-24,7,14,-21,-29,-58,-58,-73,-63,-39
4,-19,-24,7,14,-21,-34,-58,-58,-73,-63,-48
-9,-34,-24,21,7,-29,-43,-68,-58,-73,-68,-48
-29,-39,-9,34,-9,-24,-43,-63,-58,-63,-58,-34
-39,-39,0,39,-19,-19,-43,-53,-58,-58,-48,-34
-58,-24,34,41,-46,4,-43,-48,-58,-58,-48,-34
-78,-39,39,58,-58,0,-34,-43,-58,-58,-53,-34
-63,-24,39,43,-51,7,-29,-53,-58,-63,-58,-34
-43,-24,19,34,-31,-2,-24,-53,-58,-68,-63,-39
-14,-24,-9,19,-2,-17,-19,-53,-58,-68,-63,-39
-9,-19,-9,14,0,-14,-19,-53,-58,-63,-58,-39
-19,-19,0,19,-9,-9,-19,-53,-68,-63,-48,-29
-24,-19,4,21,-14,-7,-19,-58,-68,-63,-48,-24
-29,-19,9,24,-19,-4,-19,-58,-68,-63,-48,-24
-34,-19,14,26,-24,-2,-19,-53,-68,-63,-48,-24
-14,-14,0,14,-7,-7,-19,-63,-78,-68,-63,-29
0,-19,-19,9,9,-19,-24,-63,-78,-73,-68,-39
4,-29,-34,12,19,-31,-29,-63,-73,-78,-73,-43
4,-34,-39,14,21,-36,-34,-63,-73,-82,-78,-48
4,-29,-34,12,19,-31,-24,-53,-63,-78,-73,-39
4,-24,-29,9,17,-26,-24,-53,-63,-73,-68,-34
-9,-24,-14,17,2,-19,-34,-53,-63,-68,-63,-29
-9,-19,-9,14,0,-14,-19,-53,-63,-63,-58,-24
-24,-34,-9,29,-7,-21,-9,-43,-53,-73,-68,-53
9,-4,-14,-2,12,-9,-14,-43,-63,-63,-58,-43
0,-34,-34,17,17,-34,-34,-58,-73,-73,-58,-34
-9,-58,-48,34,19,-53,-29,-39,-39,-39,-43,-19
14,-29,-43,7,29,-36,-9,0,-4,-9,-14,0
24,-4,-29,-9,26,-17,-4,19,9,19,9,9
4,14,9,-9,-2,12,0,29,29,48,19,19
-19,34,53,-7,-36,43,24,39,53,102,63,29
-19,58,78,-19,-48,68,43,68,92,161,126,68
-24,82,107,-29,-65,95,43,78,126,234,200,131
-14,117,131,-51,-73,124,43,82,161,312,302,219
19,161,141,-90,-61,151,43,102,190,385,395,302
53,165,112,-109,-29,139,24,122,200,429,463,356
126,165,39,-146,43,102,-14,117,190,458,512,400
209,170,-39,-190,124,65,-63,107,170,478,561,478
248,180,-68,-214,158,56,-82,78,151,473,614,541
268,214,-53,-241,161,80,-87,9,97,448,634,585
239,248,9,-244,114,129,-92,-63,48,434,634,580
165,209,43,-187,61,126,-112,-102,58,419,600,541
92,141,48,-117,21,95,-102,-92,107,400,507,439
43,141,97,-92,-26,119,-58,-92,131,317,322,283
-39,165,204,-63,-122,185,-34,-102,151,161,82,68
-112,165,278,-26,-195,222,43,-39,268,73,-141,-126
-170,146,317,12,-244,231,165,78,439,14,-331,-302
-263,117,380,73,-322,248,244,165,546,-97,-507,-458
-322,82,405,119,-363,244,297,234,668,-156,-610,-566
-341,78,419,131,-380,248,370,326,810,-165,-653,-614
-366,58,424,153,-395,241,429,361,800,-278,-712,-668
-385,29,414,178,-400,222,429,312,639,-419,-741,-673
-380,24,405,178,-392,214,429,307,507,-468,-732,-653
-370,9,380,180,-375,195,492,395,463,-458,-688,-619
-366,-29,336,197,-351,153,531,492,453,-448,-653,-595
-322,-48,273,185,-297,112,527,541,400,-439,-624,-566
-283,-97,185,190,-234,43,497,541,263,-463,-605,-551
-248,-156,92,202,-170,-31,468,531,136,-473,-580,-527
-229,-200,29,214,-129,-85,458,517,63,-473,-536,-488
-204,-209,-4,207,-100,-107,429,488,-29,-473,-502,-439
-195,-209,-14,202,-90,-112,356,439,-156,-483,-483,-409
-190,-234,-43,212,-73,-139,287,370,-268,-492,-468,-375
-165,-268,-102,217,-31,-185,253,341,-326,-483,-439,-336
-131,-268,-136,200,2,-202,234,341,-307,-439,-395,-307
-117,-219,-102,168,-7,-161,214,317,-278,-390,-346,-268
-92,-200,-107,146,7,-153,190,268,-278,-356,-297,-224
-53,-209,-156,131,51,-183,175,224,-278,-341,-273,-204
-43,-204,-161,124,58,-183,151,204,-248,-297,-234,-175
-39,-165,-126,102,43,-146,107,161,-204,-234,-175,-131
-39,-131,-92,85,26,-112,58,102,-190,-185,-141,-92
-34,-117,-82,75,24,-100,29,73,-180,-151,-126,-82
-43,-107,-63,75,9,-85,14,63,-141,-117,-107,-78
-48,-82,-34,65,-7,-58,24,43,-92,-73,-82,-53
-48,-58,-9,53,-19,-34,53,24,-78,-48,-53,-39
-39,-58,-19,48,-9,-39,53,14,-63,-48,-34,-19
-43,-53,-9,48,-17,-31,34,19,-58,-34,-14,-9
-29,-34,-4,31,-12,-19,34,14,-58,-34,-19,-9
-9,-39,-29,24,9,-34,14,4,-58,-29,-19,0
-9,-39,-29,24,9,-34,9,-4,-68,-34,-24,-9
-9,-43,-34,26,12,-39,4,-24,-73,-43,-34,-9
0,-43,-43,21,21,-43,4,-34,-78,-48,-39,-9
-14,-43,-29,29,7,-36,0,-34,-68,-39,-24,0
-14,-43,-29,29,7,-36,0,-24,-68,-34,-19,4
-9,-34,-24,21,7,-29,4,-14,-53,-29,-9,9
-4,-34,-29,19,12,-31,4,-14,-48,-19,4,14
0,-34,-34,17,17,-34,14,-29,-53,-24,4,19
4,-29,-34,12,19,-31,9,-39,-63,-34,-9,14
14,-19,-34,2,24,-26,9,-48,-68,-43,-14,4
24,-29,-53,2,39,-41,0,-68,-82,-53,-29,0
4,-34,-39,14,21,-36,-14,-63,-78,-53,-29,0
-4,-43,-39,24,17,-41,-29,-63,-78,-53,-29,4
-14,-48,-34,31,9,-41,-39,-58,-78,-53,-29,4
-14,-53,-39,34,12,-46,-43,-53,-73,-53,-14,9
-9,-24,-14,17,2,-19,-14,-39,-63,-29,-9,24
-19,-19,0,19,-9,-9,-4,-34,-58,-24,0,29
-34,-19,14,26,-24,-2,-4,-39,-53,-24,4,34
-34,-14,19,24,-26,2,4,-39,-48,-19,0,39
-19,-24,-4,21,-7,-14,-4,-48,-63,-24,-9,29
-14,-24,-9,19,-2,-17,-14,-48,-63,-29,-9,24
-4,-24,-19,14,7,-21,-14,-48,-68,-34,-9,19
0,-24,-24,12,12,-24,-14,-48,-68,-39,-9,14
14,-24,-39,4,26,-31,-24,-53,-73,-48,-9,19
19,-19,-39,0,29,-29,-24,-53,-68,-48,-4,19
29,-19,-48,-4,39,-34,-29,-53,-68,-43,-4,19
34,-19,-53,-7,43,-36,-29,-53,-68,-43,-14,19
24,-29,-53,2,39,-41,-34,-48,-63,-39,-14,19
14,-29,-43,7,29,-36,-43,-48,-68,-39,-14,19
9,-29,-39,9,24,-34,-48,-53,-73,-39,-14,19
14,-29,-43,7,29,-36,-53,-53,-73,-39,-14,19
9,-29,-39,9,24,-34,-34,-48,-58,-34,-4,29
14,-24,-39,4,26,-31,-29,-39,-53,-29,0,29
29,-14,-43,-7,36,-29,-24,-34,-53,-24,0,39
29,-4,-34,-12,31,-19,-19,-34,-53,-19,0,39
9,-9,-19,0,14,-14,-29,-43,-68,-24,0,39
4,-19,-24,7,14,-21,-29,-48,-73,-29,0,39
0,-24,-24,12,12,-24,-29,-48,-73,-34,0,48
-9,-29,-19,19,4,-24,-34,-48,-73,-34,4,48
-4,-29,-24,17,9,-26,-34,-39,-68,-24,9,39
0,-29,-29,14,14,-29,-24,-39,-68,-24,9,39
9,-34,-43,12,26,-39,-34,-39,-68,-24,9,39
19,-34,-53,7,36,-43,-43,-48,-73,-24,9,39
19,-29,-48,4,34,-39,-58,-63,-73,-39,9,48
19,-29,-48,4,34,-39,-58,-68,-78,-39,4,48
19,-29,-48,4,34,-39,-63,-68,-82,-34,4,48
29,-29,-58,0,43,-43,-63,-63,-82,-34,14,58
24,-34,-58,4,41,-46,-63,-73,-87,-43,4,48
24,-34,-58,4,41,-46,-63,-82,-82,-43,14,53
14,-39,-53,12,34,-46,-58,-82,-82,-43,14,53
9,-43,-53,17,31,-48,-58,-78,-87,-34,14,53
29,-34,-63,2,46,-48,-58,-78,-97,-34,19,68
43,-24,-68,-9,56,-46,-63,-78,-97,-34,19,68
63,-24,-87,-19,75,-56,-58,-78,-102,-34,19,73
63,-24,-87,-19,75,-56,-53,-82,-102,-34,29,78
48,-34,-82,-7,65,-58,-63,-73,-87,-19,43,82
48,-34,-82,-7,65,-58,-63,-68,-87,-14,43,87
53,-34,-87,-9,70,-61,-68,-68,-87,-14,48,87
39,-29,-68,-4,53,-48,-68,-68,-87,-4,53,97
24,-34,-58,4,41,-46,-87,-63,-82,-4,53,97
19,-34,-53,7,36,-43,-87,-78,-82,-4,53,102
19,-34,-53,7,36,-43,-87,-78,-82,-4,58,102
19,-29,-48,4,34,-39,-87,-73,-78,4,68,107
29,-34,-63,2,46,-48,-87,-82,-78,0,68,102
19,-39,-58,9,39,-48,-87,-82,-82,0,73,107
19,-39,-58,9,39,-48,-82,-78,-87,14,78,126
29,-29,-58,0,43,-43,-82,-78,-92,14,82,126
48,-29,-78,-9,63,-53,-97,-78,-82,24,97,141
63,-19,-82,-21,73,-51,-102,-78,-82,29,102,141
97,-9,-107,-43,102,-58,-107,-87,-87,34,102,146
107,4,-102,-56,104,-48,-112,-87,-87,34,107,151
102,-4,-107,-48,104,-56,-117,-78,-87,39,112,151
97,4,-92,-51,95,-43,-117,-78,-82,58,122,165
97,14,-82,-56,90,-34,-117,-78,-78,68,136,175
97,19,-78,-58,87,-29,-122,-78,-78,73,141,190
102,14,-87,-58,95,-36,-126,-82,-78,73,151,200
97,9,-87,-53,92,-39,-141,-92,-78,82,161,204
92,9,-82,-51,87,-36,-151,-97,-82,92,165,209
102,9,-92,-56,97,-41,-175,-102,-87,97,175,219
126,14,-112,-70,119,-48,-161,-112,-78,117,195,224
126,19,-107,-73,117,-43,-156,-112,-73,131,209,234
126,34,-92,-80,109,-29,-151,-112,-73,146,219,244
131,48,-82,-90,107,-17,-146,-112,-63,156,229,253
131,53,-78,-92,104,-12,-151,-112,-48,165,229,258
131,53,-78,-92,104,-12,-156,-112,-39,180,244,268
126,58,-68,-92,97,-4,-161,-107,-29,195,258,278
126,63,-63,-95,95,0,-161,-107,-19,209,263,278
122,58,-63,-90,92,-2,-165,-97,-9,234,273,292
131,68,-63,-100,97,2,-170,-97,-4,244,278,292
141,78,-63,-109,102,7,-185,-92,4,258,283,292
141,82,-58,-112,100,12,-190,-92,19,273,292,302
161,92,-68,-126,114,12,-195,-97,29,287,287,297
161,97,-63,-129,112,17,-195,-87,48,297,297,297
156,102,-53,-129,104,24,-190,-82,68,317,307,302
156,117,-39,-136,97,39,-190,-78,82,331,312,312
151,117,-34,-134,92,41,-185,-63,97,346,317,317
146,117,-29,-131,87,43,-185,-53,97,351,322,322
141,117,-24,-129,82,46,-180,-48,107,361,331,326
136,126,-9,-131,73,58,-170,-43,117,370,336,331
151,136,-14,-143,82,61,-180,-43,117,380,331,326
161,131,-29,-146,95,51,-175,-48,126,375,331,326
170,131,-39,-151,104,46,-175,-43,126,380,341,322
151,126,-24,-139,87,51,-175,-48,131,380,346,317
151,141,-9,-146,80,65,-185,-34,146,385,336,307
151,141,-9,-146,80,65,-180,-34,151,390,331,302
151,141,-9,-146,80,65,-180,-34,151,390,326,292
141,141,0,-141,70,70,-180,-29,156,385,322,283
141,141,0,-141,70,70,-161,-29,161,370,317,278
122,141,19,-131,51,80,-141,-24,175,370,297,273
117,131,14,-124,51,73,-131,-19,175,366,287,258
112,131,19,-122,46,75,-126,-14,175,351,268,239
122,131,9,-126,56,70,-131,-4,175,336,244,229
122,131,9,-126,56,70,-122,4,170,312,234,214
126,126,0,-126,63,63,-112,4,161,297,219,195
117,122,4,-119,56,63,-102,9,156,273,195,185
92,97,4,-95,43,51,-97,14,151,253,195,165
63,63,0,-63,31,31,-97,14,136,229,170,151
48,58,9,-53,19,34,-82,19,131,209,151,136
29,43,14,-36,7,29,-73,19,126,190,141,122
24,34,9,-29,7,21,-48,19,122,185,131,117
14,39,24,-26,-4,31,-34,24,107,165,117,107
14,39,24,-26,-4,31,-29,24,97,146,107,92
24,43,19,-34,2,31,-24,24,82,126,92,82
24,14,-9,-19,17,2,-34,14,63,97,58,58
34,4,-29,-19,31,-12,-34,4,48,78,48,43
39,4,-34,-21,36,-14,-29,0,39,63,34,34
43,-4,-48,-19,46,-26,-24,0,24,48,29,29
34,-9,-43,-12,39,-26,-24,4,24,39,19,34
24,-14,-39,-4,31,-26,-19,4,24,34,19,29
4,-19,-24,7,14,-21,-19,9,24,29,9,29
-14,-19,-4,17,-4,-12,-19,14,29,29,14,29
-24,-34,-9,29,-7,-21,-14,14,9,14,14,34
-24,-39,-14,31,-4,-26,-9,4,-4,0,4,19
-19,-39,-19,29,0,-29,-4,4,-9,-9,-9,9
-19,-39,-19,29,0,-29,4,4,-9,-19,-9,4
-19,-34,-14,26,-2,-24,4,-4,-14,-9,-19,-4
-19,-39,-19,29,0,-29,-4,-9,-14,-19,-29,-4
-14,-39,-24,26,4,-31,-4,-9,-24,-19,-29,-9
-9,-39,-29,24,9,-34,0,-9,-24,-19,-29,-9
-24,-58,-34,41,4,-46,-9,0,-19,-24,-29,-14
-34,-63,-29,48,-2,-46,-9,0,-19,-24,-39,-14
-43,-63,-19,53,-12,-41,-9,0,-19,-24,-39,-14
-68,-63,4,65,-36,-29,4,0,-19,-29,-39,-14
-63,-68,-4,65,-29,-36,14,0,-24,-24,-48,-24
-48,-68,-19,58,-14,-43,14,4,-24,-24,-48,-24
-43,-58,-14,51,-14,-36,9,4,-24,-24,-43,-19
-39,-58,-19,48,-9,-39,4,4,-24,-24,-43,-19
-29,-58,-29,43,0,-43,-9,4,-24,-29,-43,-29
-29,-63,-34,46,2,-48,-9,4,-24,-29,-43,-29
-34,-63,-29,48,-2,-46,-4,4,-24,-34,-43,-29
-34,-63,-29,48,-2,-46,-4,4,-24,-34,-43,-34
-43,-73,-29,58,-7,-51,0,4,-19,-34,-48,-24
-48,-68,-19,58,-14,-43,0,0,-19,-34,-48,-24
-43,-63,-19,53,-12,-41,0,0,-19,-34,-43,-24
-48,-63,-14,56,-17,-39,-4,0,-24,-34,-39,-19
-39,-58,-19,48,-9,-39,9,-9,-19,-34,-48,-29
-39,-53,-14,46,-12,-34,19,-9,-19,-34,-48,-29
-39,-48,-9,43,-14,-29,24,-4,-19,-34,-48,-29
-39,-43,-4,41,-17,-24,29,-4,-19,-34,-48,-29
-48,-53,-4,51,-21,-29,9,4,-29,-34,-48,-24
-53,-68,-14,61,-19,-41,4,-4,-34,-39,-48,-24
-53,-68,-14,61,-19,-41,4,-4,-34,-39,-48,-24
-48,-58,-9,53,-19,-34,4,-4,-29,-34,-48,-24
-39,-48,-9,43,-14,-29,4,0,-19,-24,-29,-14
-29,-43,-14,36,-7,-29,4,0,-19,-24,-29,-14
-24,-39,-14,31,-4,-26,4,0,-19,-24,-29,-14
-14,-29,-14,21,0,-21,9,0,-24,-24,-29,-14
-9,-34,-24,21,7,-29,-4,-4,-39,-29,-34,-24
-9,-39,-29,24,9,-34,-9,-9,-43,-34,-39,-29
-4,-43,-39,24,17,-41,-14,-14,-48,-34,-43,-29
-4,-53,-48,29,21,-51,-19,-24,-58,-39,-48,-24
-24,-63,-39,43,7,-51,-19,-19,-53,-29,-29,-19
-34,-63,-29,48,-2,-46,-19,-19,-53,-29,-24,-9
-43,-63,-19,53,-12,-41,-14,-14,-48,-29,-14,-4
-53,-63,-9,58,-21,-36,-9,-9,-43,-29,-9,4
-34,-53,-19,43,-7,-36,-4,-14,-53,-29,-9,4
-29,-48,-19,39,-4,-34,-4,-19,-48,-29,-9,9
-19,-39,-19,29,0,-29,-4,-24,-48,-29,-4,9
-14,-29,-14,21,0,-21,-4,-29,-48,-29,-4,9
-4,-29,-24,17,9,-26,-19,-19,-53,-34,-4,0
-14,-34,-19,24,2,-26,-24,-19,-53,-34,-4,4
-14,-39,-24,26,4,-31,-29,-19,-53,-34,-9,4
-14,-39,-24,26,4,-31,-34,-24,-53,-34,-9,4
-14,-39,-24,26,4,-31,-24,-24,-58,-34,-19,-9
-14,-39,-24,26,4,-31,-29,-24,-58,-34,-19,-9
-9,-39,-29,24,9,-34,-29,-24,-58,-34,-19,-9
-9,-39,-29,24,9,-34,-29,-24,-58,-34,-19,-9
-14,-29,-14,21,0,-21,-29,-24,-58,-34,-9,-4
0,-29,-29,14,14,-29,-24,-24,-53,-34,-9,0
4,-29,-34,12,19,-31,-24,-24,-53,-34,-9,9
4,-29,-34,12,19,-31,-24,-24,-58,-34,-9,14
0,-39,-39,19,19,-39,-9,-34,-68,-34,-19,9
-4,-34,-29,19,12,-31,-4,-34,-68,-34,-19,4
-4,-34,-29,19,12,-31,-9,-34,-68,-34,-14,4
-9,-34,-24,21,7,-29,-4,-34,-68,-39,-14,0
-14,-43,-29,29,7,-36,-14,-19,-68,-39,-19,4
-29,-39,-9,34,-9,-24,-19,-19,-68,-39,-19,0
-34,-39,-4,36,-14,-21,-19,-19,-68,-39,-24,0
-39,-39,0,39,-19,-19,-24,-19,-68,-39,-24,0
-34,-34,0,34,-17,-17,-24,-19,-58,-29,-14,0
-34,-34,0,34,-17,-17,-24,-19,-58,-29,-19,0
-29,-29,0,29,-14,-14,-14,-19,-58,-34,-19,0
-19,-19,0,19,-9,-9,-14,-19,-58,-39,-19,0
-4,-29,-24,17,9,-26,-24,-19,-58,-39,-24,0
-4,-29,-24,17,9,-26,-29,-29,-58,-39,-24,-4
-4,-29,-24,17,9,-26,-34,-29,-58,-39,-29,-4
-14,-29,-14,21,0,-21,-34,-29,-53,-39,-29,-9
-29,-34,-4,31,-12,-19,-19,-29,-58,-43,-39,-14
-29,-43,-14,36,-7,-29,-19,-34,-63,-48,-39,-19
-24,-48,-24,36,0,-36,-24,-39,-68,-53,-39,-24
-24,-53,-29,39,2,-41,-24,-39,-73,-58,-39,-24
-34,-43,-9,39,-12,-26,-14,-29,-63,-53,-39,-14
-34,-43,-9,39,-12,-26,-14,-29,-58,-48,-39,-14
-34,-43,-9,39,-12,-26,-9,-29,-58,-48,-39,-14
-24,-48,-24,36,0,-36,-4,-29,-53,-43,-39,-14
-34,-43,-9,39,-12,-26,-14,-29,-48,-39,-29,-4
-34,-39,-4,36,-14,-21,-14,-29,-39,-39,-29,-14
-34,-43,-9,39,-12,-26,-14,-29,-48,-43,-39,-19
-34,-39,-4,36,-14,-21,-14,-29,-48,-48,-39,-19
-43,-48,-4,46,-19,-26,-4,-29,-48,-39,-39,-19
-53,-43,9,48,-31,-17,-9,-29,-39,-34,-34,-19
-68,-43,24,56,-46,-9,-9,-29,-34,-34,-34,-14
-97,-43,53,70,-75,4,-4,-29,-34,-34,-34,-14
-73,-34,39,53,-56,2,-4,-24,-34,-43,-43,-24
-48,-34,14,41,-31,-9,4,-24,-39,-43,-43,-24
-24,-39,-14,31,-4,-26,0,-24,-48,-48,-39,-24
0,-39,-39,19,19,-39,-9,-24,-53,-48,-39,-24
4,-19,-24,7,14,-21,-9,-29,-53,-48,-39,-34
9,-19,-29,4,19,-24,-9,-24,-48,-43,-39,-34
4,-34,-39,14,21,-36,-9,-24,-48,-39,-39,-34
-4,-34,-29,19,12,-31,-9,-19,-43,-39,-39,-34
4,-14,-19,4,12,-17,0,4,-9,-9,-14,0
-34,-63,-29,48,-2,-46,4,9,-19,-19,-14,-4
-34,-63,-29,48,-2,-46,19,14,-9,-9,-14,-4
-4,-53,-48,29,21,-51,39,39,19,4,-4,9
9,-58,-68,24,39,-63,29,58,19,0,-9,9
9,-63,-73,26,41,-68,29,48,9,0,-9,0
9,-68,-78,29,43,-73,29,48,9,0,-9,0
9,-73,-82,31,46,-78,29,48,9,0,-9,0
9,-78,-87,34,48,-82,29,48,9,0,-9,0
19,-78,-97,29,58,-87,34,48,14,-14,-9,9
29,-87,-117,29,73,-102,39,48,4,-14,-19,4
29,-87,-117,29,73,-102,48,48,4,-14,-19,4
39,-82,-122,21,80,-102,58,48,4,-14,-19,4
19,-87,-107,34,63,-97,63,63,4,-14,-19,-4
9,-87,-97,39,53,-92,63,63,4,-14,-19,-4
4,-87,-92,41,48,-90,63,63,4,-19,-24,-9
19,-82,-102,31,61,-92,63,68,0,-19,-24,-14
14,-73,-87,29,51,-80,73,82,4,-9,-14,-9
9,-78,-87,34,48,-82,73,92,9,-9,-14,0
14,-78,-92,31,53,-85,68,92,19,-4,-14,4
14,-73,-87,29,51,-80,63,97,24,-4,-9,14
24,-63,-87,19,56,-75,53,107,24,4,0,4
24,-63,-87,19,56,-75,53,107,24,0,0,4
24,-63,-87,19,56,-75,53,107,19,0,0,4
19,-78,-97,29,58,-87,39,102,9,-9,-14,0
34,-68,-102,17,68,-85,14,68,-14,-29,-19,-4
24,-68,-92,21,58,-80,-4,39,-39,-39,-24,-14
19,-68,-87,24,53,-78,-19,4,-58,-53,-43,-24
9,-78,-87,34,48,-82,-34,-29,-87,-78,-68,-39
0,-92,-92,46,46,-92,-53,-58,-112,-102,-73,-48
-4,-87,-82,46,39,-85,-73,-68,-126,-102,-82,-53
-4,-92,-87,48,41,-90,-78,-68,-131,-102,-82,-53
-24,-97,-73,61,24,-85,-73,-63,-131,-97,-78,-48
-14,-92,-78,53,31,-85,-58,-48,-117,-87,-63,-34
-14,-82,-68,48,26,-75,-53,-43,-102,-78,-53,-29
-14,-78,-63,46,24,-70,-43,-29,-92,-68,-43,-24
-4,-68,-63,36,29,-65,-34,-24,-87,-58,-39,-9
4,-63,-68,29,36,-65,-29,-34,-97,-58,-43,-19
4,-63,-68,29,36,-65,-24,-39,-102,-58,-43,-19
0,-68,-68,34,34,-68,-24,-39,-102,-58,-43,-19
0,-68,-68,34,34,-68,-24,-39,-102,-58,-43,-19
4,-58,-63,26,34,-61,-43,-53,-102,-68,-48,-9
4,-48,-53,21,29,-51,-43,-53,-102,-63,-48,-9
-9,-48,-39,29,14,-43,-39,-53,-97,-53,-43,-9
-14,-43,-29,29,7,-36,-39,-53,-92,-53,-43,-9
-4,-34,-29,19,12,-31,-48,-48,-87,-48,-34,-24
4,-34,-39,14,21,-36,-43,-48,-87,-48,-34,-24
-9,-34,-24,21,7,-29,-39,-53,-87,-48,-39,-34
-24,-43,-19,34,-2,-31,-34,-53,-87,-53,-53,-43
-39,-34,4,36,-21,-14,-24,-48,-68,-53,-53,-34
-43,-34,9,39,-26,-12,-24,-43,-78,-58,-53,-39
-58,-48,9,53,-34,-19,-14,-39,-82,-73,-63,-43
-58,-48,9,53,-34,-19,-14,-34,-82,-73,-68,-48
-48,-48,0,48,-24,-24,-4,-43,-82,-82,-68,-39
-43,-39,4,41,-24,-17,-9,-39,-78,-82,-63,-39
-43,-39,4,41,-24,-17,-9,-39,-78,-82,-63,-48
-58,-53,4,56,-31,-24,-14,-48,-78,-82,-68,-48
-68,-63,4,65,-36,-29,-14,-48,-78,-73,-78,-43
-58,-58,0,58,-29,-29,-14,-43,-78,-68,-68,-43
-58,-39,19,48,-39,-9,-14,-43,-78,-68,-68,-43
-58,-48,9,53,-34,-19,-4,-43,-78,-68,-73,-43
-53,-39,14,46,-34,-12,-9,-43,-87,-82,-87,-48
-53,-43,9,48,-31,-17,-14,-43,-87,-87,-92,-58
-43,-48,-4,46,-19,-26,-19,-43,-87,-87,-92,-63
-58,-48,9,53,-34,-19,-29,-43,-87,-82,-87,-68
-53,-48,4,51,-29,-21,-19,-53,-87,-82,-78,-58
-53,-48,4,51,-29,-21,-19,-58,-87,-82,-78,-53
-53,-48,4,51,-29,-21,-19,-58,-87,-82,-78,-53
-53,-48,4,51,-29,-21,-19,-53,-87,-82,-78,-53
-53,-29,24,41,-39,-2,-4,-48,-78,-73,-68,-43
-48,-29,19,39,-34,-4,4,-43,-78,-73,-68,-48
-53,-34,19,43,-36,-7,14,-39,-73,-73,-68,-48
-63,-34,29,48,-46,-2,24,-34,-73,-73,-68,-48
-58,-34,24,46,-41,-4,9,-39,-73,-73,-78,-53
-53,-34,19,43,-36,-7,4,-43,-73,-73,-78,-53
-63,-39,24,51,-43,-7,-9,-48,-73,-73,-78,-53
-58,-39,19,48,-39,-9,0,-53,-73,-73,-78,-53
-14,-24,-9,19,-2,-17,9,-53,-73,-63,-78,-53
-39,-34,4,36,-21,-14,14,-43,-73,-73,-78,-53
-68,-63,4,65,-36,-29,4,-39,-73,-73,-78,-53
-58,-68,-9,63,-24,-39,9,-29,-68,-68,-73,-48
-43,-58,-14,51,-14,-36,19,-9,-53,-48,-53,-39
-63,-53,9,58,-36,-21,24,9,-29,-29,-39,-29
-73,-43,29,58,-51,-7,19,19,0,0,-19,-19
-58,-24,34,41,-46,4,14,29,24,53,4,-9
-48,9,58,19,-53,34,34,58,73,112,48,0
-24,53,78,-14,-51,65,53,87,107,175,112,43
53,126,73,-90,-9,100,24,92,122,244,195,112
87,170,82,-129,2,126,4,82,131,307,287,195
63,175,112,-119,-24,143,14,92,151,361,375,268
58,175,117,-117,-29,146,34,117,180,419,444,331
73,161,87,-117,-7,124,34,126,190,468,522,400
112,161,48,-136,31,104,14,107,180,502,595,483
170,175,4,-173,82,90,-19,68,146,507,644,556
180,200,19,-190,80,109,-63,4,107,483,663,600
117,200,82,-158,17,141,-82,-63,87,458,658,590
73,151,78,-112,-2,114,-53,-73,117,448,605,517
63,112,48,-87,7,80,0,-43,161,405,458,390
9,126,117,-68,-53,122,14,-43,170,258,229,185
-82,126,209,-21,-146,168,43,-29,229,112,-34,-58
-141,107,248,17,-195,178,117,48,380,24,-273,-283
-224,97,322,63,-273,209,224,146,527,-87,-488,-468
-331,73,405,129,-368,239,326,224,649,-165,-619,-585
-400,29,429,185,-414,229,429,297,780,-185,-692,-653
-414,0,414,207,-414,207,497,370,810,-268,-761,-707
-434,-29,405,231,-419,187,497,390,707,-409,-810,-732
-458,-53,405,256,-431,175,468,356,556,-497,-810,-722
-409,-78,331,244,-370,126,502,375,473,-536,-785,-707
-336,-87,248,212,-292,80,551,453,453,-536,-761,-692
-312,-107,204,209,-258,48,575,522,429,-527,-722,-653
-331,-156,175,244,-253,9,556,541,322,-512,-683,-629
-336,-195,141,265,-239,-26,536,541,185,-512,-649,-595
-278,-209,68,244,-173,-70,536,556,141,-473,-585,-546
-224,-190,34,207,-129,-78,527,585,97,-434,-522,-488
-244,-219,24,231,-134,-97,463,536,-29,-453,-502,-458
-268,-273,-4,270,-131,-139,366,439,-170,-483,-488,-444
-214,-268,-53,241,-80,-161,302,419,-229,-463,-448,-395
-141,-239,-97,190,-21,-168,273,429,-229,-429,-405,-346
-146,-248,-102,197,-21,-175,244,395,-248,-400,-375,-317
-170,-268,-97,219,-36,-183,229,336,-258,-375,-346,-283
-161,-258,-97,209,-31,-178,224,312,-248,-341,-312,-253
-102,-214,-112,158,4,-163,209,273,-219,-287,-263,-224
-87,-185,-97,136,4,-141,146,190,-224,-244,-214,-190
-87,-161,-73,124,-7,-117,87,92,-219,-214,-180,-151
-73,-136,-63,104,-4,-100,48,63,-190,-180,-156,-131
-43,-97,-53,70,4,-75,43,43,-151,-136,-126,-107
-39,-63,-24,51,-7,-43,53,24,-122,-112,-102,-102
-48,-58,-9,53,-19,-34,63,4,-117,-107,-102,-97
-39,-58,-19,48,-9,-39,63,4,-102,-87,-92,-87
-24,-24,0,24,-12,-12,43,9,-68,-53,-63,-68
0,4,4,-2,-2,4,43,14,-48,-34,-39,-48
-14,0,14,7,-14,7,24,0,-53,-39,-39,-48
-29,-9,19,19,-24,4,19,-14,-68,-43,-43,-58
-43,-24,19,34,-31,-2,14,-39,-78,-53,-53,-58
-48,-34,14,41,-31,-9,14,-53,-87,-58,-58,-58
-58,-43,14,51,-36,-14,4,-58,-87,-58,-58,-68
-63,-43,19,53,-41,-12,9,-43,-87,-53,-58,-63
-63,-34,29,48,-46,-2,19,-29,-73,-48,-53,-58
-63,-34,29,48,-46,-2,24,-24,-68,-39,-43,-53
-63,-24,39,43,-51,7,34,-24,-58,-29,-24,-39
-63,-19,43,41,-53,12,29,-29,-63,-34,-29,-34
-58,-9,48,34,-53,19,29,-34,-63,-39,-24,-34
-53,-19,34,36,-43,7,19,-48,-73,-43,-29,-29
-48,-19,29,34,-39,4,4,-53,-78,-53,-34,-34
-43,-24,19,34,-31,-2,0,-53,-78,-53,-39,-34
-39,-24,14,31,-26,-4,0,-48,-78,-53,-43,-39
-24,-24,0,24,-12,-12,4,-43,-73,-53,-34,-39
9,-4,-14,-2,12,-9,14,-43,-78,-43,-24,-29
9,0,-9,-4,9,-4,14,-43,-78,-43,-19,-29
4,0,-4,-2,4,-2,4,-53,-78,-48,-19,-29
14,4,-9,-9,12,-2,4,-58,-78,-48,-29,-29
-4,-4,0,4,-2,-2,-4,-58,-82,-53,-34,-29
-14,-14,0,14,-7,-7,-14,-58,-82,-58,-39,-34
-19,-24,-4,21,-7,-14,-14,-58,-87,-63,-43,-39
-29,-34,-4,31,-12,-19,-14,-58,-87,-68,-48,-43
-34,-29,4,31,-19,-12,-4,-43,-73,-53,-34,-29
-39,-19,19,29,-29,0,-4,-43,-68,-48,-24,-19
-39,-14,24,26,-31,4,-9,-43,-68,-39,-19,-9
-43,-9,34,26,-39,12,-9,-43,-68,-34,-24,0
-39,-19,19,29,-29,0,-14,-58,-82,-43,-34,-14
-43,-19,24,31,-34,2,-24,-58,-87,-48,-34,-19
-43,-19,24,31,-34,2,-29,-63,-92,-53,-34,-24
-34,-19,14,26,-24,-2,-34,-63,-92,-58,-34,-29
-14,-24,-9,19,-2,-17,-29,-68,-97,-58,-34,-29
-4,-24,-19,14,7,-21,-29,-68,-92,-58,-29,-29
14,-19,-34,2,24,-26,-29,-73,-92,-58,-29,-19
19,-14,-34,-2,26,-24,-29,-82,-92,-58,-29,-19
14,-9,-24,-2,19,-17,-14,-82,-87,-48,-29,-29
14,-9,-24,-2,19,-17,-9,-78,-92,-48,-29,-29
14,-4,-19,-4,17,-12,-4,-68,-92,-48,-29,-19
9,0,-9,-4,9,-4,-4,-58,-92,-43,-24,-19
0,-9,-9,4,4,-9,-14,-63,-78,-43,-19,-9
0,-9,-9,4,4,-9,-4,-68,-78,-43,-19,-9
4,-14,-19,4,12,-17,-14,-73,-78,-43,-19,-9
9,-14,-24,2,17,-19,-24,-87,-82,-43,-19,-9
9,-19,-29,4,19,-24,-29,-87,-82,-48,-19,-9
0,-19,-19,9,9,-19,-29,-87,-87,-48,-24,-9
-9,-19,-9,14,0,-14,-34,-82,-92,-43,-24,-9
-9,-19,-9,14,0,-14,-34,-73,-92,-43,-14,0
-14,-14,0,14,-7,-7,-34,-68,-82,-39,-9,9
-14,-4,9,9,-12,2,-34,-73,-73,-34,4,14
-24,0,24,12,-24,12,-29,-68,-68,-29,9,14
-29,4,34,12,-31,19,-29,-58,-68,-14,14,14
-9,4,14,2,-12,9,-34,-63,-82,-19,14,9
4,14,9,-9,-2,12,-43,-68,-87,-24,9,9
24,14,-9,-19,17,2,-43,-73,-97,-29,4,14
24,14,-9,-19,17,2,-43,-82,-102,-34,9,19
19,0,-19,-9,19,-9,-34,-92,-97,-29,14,14
19,-4,-24,-7,21,-14,-34,-87,-97,-24,14,19
24,-9,-34,-7,29,-21,-39,-87,-97,-24,19,19
9,-9,-19,0,14,-14,-39,-87,-97,-14,24,29
0,0,0,0,0,0,-48,-78,-92,-4,29,34
0,4,4,-2,-2,4,-48,-87,-92,-4,34,43
4,9,4,-7,0,7,-48,-82,-92,-4,43,48
9,19,9,-14,0,14,-48,-73,-87,4,58,58
29,19,-9,-24,19,4,-63,-78,-82,0,63,53
29,19,-9,-24,19,4,-68,-82,-82,0,63,58
39,24,-14,-31,26,4,-68,-82,-82,14,63,78
58,39,-19,-48,39,9,-73,-87,-82,14,63,78
58,24,-34,-41,46,-4,-87,-97,-87,14,68,82
53,19,-34,-36,43,-7,-92,-97,-92,19,73,82
68,14,-53,-41,61,-19,-97,-107,-102,24,73,87
58,14,-43,-36,51,-14,-102,-107,-107,24,78,92
43,14,-29,-29,36,-7,-92,-97,-102,39,97,102
39,24,-14,-31,26,4,-87,-97,-92,58,112,117
39,34,-4,-36,21,14,-82,-97,-82,68,131,126
39,39,0,-39,19,19,-82,-97,-78,73,141,141
68,48,-19,-58,43,14,-87,-102,-78,78,146,141
87,48,-39,-68,63,4,-102,-112,-78,82,151,146
107,53,-53,-80,80,0,-112,-117,-82,87,151,151
141,58,-82,-100,112,-12,-136,-122,-87,87,156,161
151,48,-102,-100,126,-26,-141,-122,-68,107,165,165
146,48,-97,-97,122,-24,-146,-122,-63,122,180,175
141,58,-82,-100,112,-12,-151,-122,-63,136,190,185
141,68,-73,-104,107,-2,-156,-122,-53,146,200,195
141,78,-63,-109,102,7,-156,-117,-39,170,214,209
141,82,-58,-112,100,12,-156,-112,-29,190,234,219
136,92,-43,-114,90,24,-156,-102,-19,209,253,229
136,102,-34,-119,85,34,-151,-97,-9,229,263,229
136,102,-34,-119,85,34,-141,-97,9,244,263,244
141,107,-34,-124,87,36,-141,-97,14,253,268,244
146,112,-34,-129,90,39,-151,-92,24,268,273,244
141,112,-29,-126,85,41,-151,-92,39,283,283,253
151,117,-34,-134,92,41,-146,-97,48,297,297,268
151,126,-24,-139,87,51,-146,-87,68,307,307,268
146,136,-9,-141,78,63,-141,-82,87,326,317,273
146,156,9,-151,68,82,-141,-78,102,341,322,283
156,146,-9,-151,82,68,-141,-78,97,346,322,283
156,146,-9,-151,82,68,-146,-73,97,351,322,283
156,146,-9,-151,82,68,-146,-73,107,361,326,283
156,156,0,-156,78,78,-141,-73,117,370,326,283
151,170,19,-161,65,95,-146,-63,136,385,341,283
161,170,9,-165,75,90,-146,-58,146,385,341,287
170,175,4,-173,82,90,-151,-43,146,395,351,287
151,175,24,-163,63,100,-156,-39,151,400,356,287
161,170,9,-165,75,90,-156,-39,156,395,351,278
161,170,9,-165,75,90,-151,-43,161,400,341,273
161,170,9,-165,75,90,-151,-48,161,400,331,263
151,170,19,-161,65,95,-151,-48,165,395,322,253
151,180,29,-165,61,104,-136,-34,180,395,326,258
131,180,48,-156,41,114,-122,-24,195,400,317,253
126,170,43,-148,41,107,-117,-14,195,400,317,239
122,170,48,-146,36,109,-117,-4,195,390,307,219
126,170,43,-148,41,107,-102,-4,190,375,283,209
122,170,48,-146,36,109,-92,4,190,351,273,195
122,165,43,-143,39,104,-82,4,185,336,258,175
107,161,53,-134,26,107,-73,9,185,312,234,165
87,146,58,-117,14,102,-68,14,180,302,224,146
63,112,48,-87,7,80,-68,14,165,278,200,131
53,107,53,-80,0,80,-53,19,161,258,180,117
39,92,53,-65,-7,73,-43,19,156,239,170,102
24,87,63,-56,-19,75,-24,19,151,214,161,97
14,87,73,-51,-29,80,-14,24,136,195,146,87
14,82,68,-48,-26,75,-14,24,126,175,136,73
24,82,58,-53,-17,70,-14,24,112,156,122,63
19,53,34,-36,-7,43,-24,19,97,126,82,43
24,43,19,-34,2,31,-24,4,78,107,68,24
24,43,19,-34,2,31,-19,-4,63,92,48,9
24,34,9,-29,7,21,-14,-9,43,78,39,0
14,29,14,-21,0,21,-4,0,39,63,34,-4
14,24,9,-19,2,17,0,-4,34,53,29,-9
4,19,14,-12,-4,17,0,-4,29,43,14,-9
-4,19,24,-7,-14,21,0,-4,29,39,14,-9
0,14,14,-7,-7,14,9,-14,9,24,-4,-24
4,9,4,-7,0,7,9,-24,-4,9,-14,-39
14,9,-4,-12,9,2,9,-24,-9,0,-29,-48
19,9,-9,-14,14,0,14,-24,-9,-9,-29,-53
9,-4,-14,-2,12,-9,19,-14,-9,0,-19,-43
0,-9,-9,4,4,-9,4,-19,-4,-9,-29,-43
-4,-9,-4,7,0,-7,0,-19,-9,-9,-29,-48
-9,-9,0,9,-4,-4,0,-19,-4,-9,-29,-48
-29,-14,14,21,-21,0,0,-14,0,-14,-19,-48
-34,-14,19,24,-26,2,0,-9,0,-14,-29,-43
-39,-9,29,24,-34,9,0,-4,0,-14,-29,-39
-58,-4,53,31,-56,24,14,0,0,-19,-29,-34
-58,-19,39,39,-48,9,29,-9,-14,-24,-29,-53
-48,-19,29,34,-39,4,34,-4,-14,-24,-29,-53
-48,-9,39,29,-43,14,34,-4,-14,-24,-24,-48
-48,-9,39,29,-43,14,34,-4,-14,-24,-24,-48
-39,-19,19,29,-29,0,24,-14,-24,-24,-39,-53
-39,-24,14,31,-26,-4,19,-14,-24,-29,-43,-58
-43,-24,19,34,-31,-2,19,-14,-24,-39,-48,-63
-43,-24,19,34,-31,-2,14,-14,-24,-43,-53,-73
-34,-34,0,34,-17,-17,14,-24,-29,-43,-58,-73
-29,-29,0,29,-14,-14,9,-29,-29,-43,-58,-73
-14,-24,-9,19,-2,-17,4,-29,-29,-43,-53,-73
-9,-24,-14,17,2,-19,-4,-29,-34,-43,-48,-68
-19,-19,0,19,-9,-9,0,-24,-34,-34,-39,-58
-19,-14,4,17,-12,-4,9,-19,-29,-34,-39,-58
-19,-9,9,14,-14,0,14,-9,-24,-34,-39,-58
-19,-4,14,12,-17,4,19,-4,-19,-34,-39,-58
-24,-14,9,19,-17,-2,14,-14,-19,-24,-39,-63
-34,-29,4,31,-19,-12,14,-24,-24,-29,-39,-63
-39,-29,9,34,-24,-9,19,-24,-24,-29,-39,-63
-39,-19,19,29,-29,0,24,-24,-19,-24,-39,-63
-29,-4,24,17,-26,9,14,-9,-19,-24,-19,-43
-29,-4,24,17,-26,9,14,-9,-19,-24,-19,-43
-34,-4,29,19,-31,12,14,-9,-19,-24,-19,-43
-34,0,34,17,-34,17,19,-9,-24,-24,-19,-43
-29,-9,19,19,-24,4,14,-19,-34,-34,-24,-43
-29,-9,19,19,-24,4,9,-19,-34,-34,-29,-48
-24,-9,14,17,-19,2,4,-19,-34,-29,-34,-48
-24,-14,9,19,-17,-2,0,-24,-39,-29,-39,-43
-14,-14,0,14,-7,-7,-14,-34,-48,-39,-43,-48
-4,-14,-9,9,2,-12,-19,-39,-53,-39,-43,-48
4,-14,-19,4,12,-17,-19,-39,-53,-39,-39,-53
14,-14,-29,0,21,-21,-19,-39,-53,-39,-39,-53
9,-9,-19,0,14,-14,-9,-29,-43,-34,-34,-43
0,-9,-9,4,4,-9,-4,-29,-39,-29,-29,-39
-4,-4,0,4,-2,-2,0,-29,-39,-24,-19,-39
-14,0,14,7,-14,7,4,-29,-39,-19,-14,-39
-19,-9,9,14,-14,0,-4,-29,-34,-24,-14,-29
-34,-14,19,24,-26,2,-4,-29,-34,-24,-14,-24
-39,-19,19,29,-29,0,-4,-29,-34,-24,-19,-24
-43,-19,24,31,-34,2,-4,-34,-34,-24,-19,-24
-29,-9,19,19,-24,4,-14,-34,-39,-24,-19,-29
-14,0,14,7,-14,7,-19,-34,-39,-24,-19,-29
4,9,4,-7,0,7,-19,-34,-39,-24,-19,-29
19,19,0,-19,9,9,-19,-34,-39,-24,-19,-29
4,9,4,-7,0,7,-4,-24,-39,-14,-9,-29
9,9,0,-9,4,4,4,-24,-34,-14,-9,-29
4,9,4,-7,0,7,9,-24,-34,-14,-9,-24
-4,9,14,-2,-9,12,14,-24,-39,-14,-9,-24
-14,0,14,7,-14,7,4,-34,-39,-24,-19,-29
-14,4,19,4,-17,12,4,-34,-39,-24,-19,-34
-9,4,14,2,-12,9,-4,-34,-39,-24,-14,-34
-9,4,14,2,-12,9,-4,-34,-39,-29,-14,-39
-24,-9,14,17,-19,2,-4,-29,-39,-29,-19,-34
-39,-9,29,24,-34,9,-9,-29,-39,-29,-19,-39
-43,-14,29,29,-36,7,-9,-29,-39,-29,-24,-39
-48,-19,29,34,-39,4,-14,-29,-39,-29,-24,-39
-39,-19,19,29,-29,0,-4,-19,-39,-29,-14,-29
-34,-14,19,24,-26,2,-4,-19,-39,-29,-19,-29
-24,-4,19,14,-21,7,4,-19,-39,-34,-19,-29
-9,9,19,0,-14,14,4,-19,-39,-39,-19,-29
4,9,4,-7,0,7,4,-24,-48,-48,-34,-39
4,9,4,-7,0,7,0,-39,-48,-48,-34,-43
4,9,4,-7,0,7,-4,-43,-48,-48,-39,-43
-4,9,14,-2,-9,12,-4,-48,-43,-48,-39,-48
-29,0,29,14,-29,14,4,-34,-34,-39,-34,-39
-39,-4,34,21,-36,14,9,-34,-34,-39,-29,-39
-43,-4,39,24,-41,17,9,-34,-34,-39,-24,-39
-53,-4,48,29,-51,21,14,-29,-34,-39,-19,-34
-48,-14,34,31,-41,9,4,-29,-39,-39,-24,-39
-43,-14,29,29,-36,7,-4,-29,-39,-39,-29,-43
-39,-14,24,26,-31,4,-9,-29,-43,-43,-34,-48
-24,-19,4,21,-14,-7,-14,-29,-43,-43,-39,-53
-14,-14,0,14,-7,-7,-4,-39,-43,-43,-48,-53
-4,-9,-4,7,0,-7,-4,-39,-39,-48,-48,-63
4,-14,-19,4,12,-17,-4,-39,-53,-58,-58,-68
14,-9,-24,-2,19,-17,-4,-39,-58,-68,-58,-68
19,-9,-29,-4,24,-19,4,-29,-53,-53,-53,-63
14,-4,-19,-4,17,-12,0,-29,-39,-43,-43,-58
4,-4,-9,0,7,-7,0,-29,-29,-39,-39,-48
-19,-4,14,12,-17,4,4,-29,-24,-34,-34,-43
-14,-4,9,9,-12,2,14,-14,-9,-29,-34,-43
-9,-4,4,7,-7,0,24,-14,-9,-24,-34,-43
-4,-9,-4,7,0,-7,19,-14,-14,-24,-29,-43
0,-9,-9,4,4,-9,9,-14,-14,-19,-29,-43
39,19,-19,-29,29,0,39,14,-4,-9,-9,-24
39,0,-39,-19,39,-19,48,24,9,-14,-9,-24
29,-39,-68,4,48,-53,19,39,19,-9,-19,-29
14,-48,-63,17,39,-56,34,43,24,-4,-9,-19
9,-48,-58,19,34,-53,39,48,29,0,-9,-19
4,-48,-53,21,29,-51,43,53,34,4,-9,-19
0,-48,-48,24,24,-48,48,58,39,9,-9,-19
14,-48,-63,17,39,-56,58,58,24,-4,-9,-19
19,-58,-78,19,48,-68,58,58,14,-4,-19,-24
14,-58,-73,21,43,-65,63,58,14,-4,-19,-24
19,-53,-73,17,46,-63,68,58,14,-4,-19,-24
14,-48,-63,17,39,-56,68,63,24,-14,-9,-14
9,-48,-58,19,34,-53,63,63,24,-14,-9,-14
9,-48,-58,19,34,-53,58,63,24,-19,-14,-19
29,-43,-73,7,51,-58,53,68,19,-19,-14,-24
29,-43,-73,7,51,-58,63,63,9,-29,-24,-34
29,-48,-78,9,53,-63,63,73,9,-29,-24,-29
39,-48,-87,4,63,-68,58,73,14,-24,-24,-29
43,-43,-87,0,65,-65,53,78,14,-24,-19,-24
48,-34,-82,-7,65,-58,58,87,19,-19,-19,-24
53,-34,-87,-9,70,-61,63,87,24,-19,-19,-24
58,-34,-92,-12,75,-63,68,87,24,-14,-19,-24
58,-48,-107,-4,82,-78,58,82,19,-19,-34,-29
48,-48,-97,0,73,-73,43,78,9,-24,-29,-19
24,-48,-73,12,48,-61,24,58,-9,-29,-24,-24
4,-48,-53,21,29,-51,9,34,-24,-39,-34,-29
-19,-58,-39,39,9,-48,-4,9,-48,-58,-48,-39
-29,-78,-48,53,9,-63,-9,-24,-73,-82,-63,-48
-34,-68,-34,51,0,-51,-24,-39,-87,-82,-73,-53
-34,-68,-34,51,0,-51,-24,-43,-92,-82,-73,-53
-53,-68,-14,61,-19,-41,-14,-43,-92,-78,-68,-48
-34,-78,-43,56,4,-61,-34,-43,-102,-82,-73,-53
-14,-73,-58,43,21,-65,-43,-53,-102,-87,-73,-58
4,-73,-78,34,41,-75,-48,-53,-107,-92,-73,-63
34,-68,-102,17,68,-85,-53,-63,-117,-97,-78,-58
34,-68,-102,17,68,-85,-39,-58,-112,-87,-63,-48
34,-63,-97,14,65,-80,-34,-58,-112,-87,-63,-48
29,-63,-92,17,61,-78,-34,-53,-107,-87,-63,-48
29,-58,-87,14,58,-73,-34,-48,-102,-87,-63,-48
43,-29,-73,-7,58,-51,-39,-43,-97,-78,-53,-29
43,-9,-53,-17,48,-31,-34,-43,-92,-73,-48,-29
29,0,-29,-14,29,-14,-24,-43,-82,-63,-39,-29
24,14,-9,-19,17,2,-19,-43,-73,-63,-34,-29
9,19,9,-14,0,14,-19,-48,-68,-58,-34,-24
14,14,0,-14,7,7,-14,-48,-68,-58,-34,-24
-4,9,14,-2,-9,12,-9,-53,-68,-58,-39,-34
-24,-4,19,14,-21,7,-4,-53,-68,-63,-53,-43
-34,-9,24,21,-29,7,0,-43,-58,-63,-63,-48
-43,-14,29,29,-36,7,-4,-43,-68,-68,-63,-58
-63,-34,29,48,-46,-2,0,-43,-73,-82,-73,-68
-68,-39,29,53,-48,-4,-4,-43,-73,-82,-78,-78
-43,-29,14,36,-29,-7,4,-48,-82,-92,-87,-78
-34,-19,14,26,-24,-2,0,-48,-78,-92,-82,-78
-29,-19,9,24,-19,-4,0,-53,-78,-92,-82,-87
-39,-34,4,36,-21,-14,-4,-68,-78,-92,-87,-87
-48,-43,4,46,-26,-19,-4,-63,-68,-82,-78,-73
-48,-39,9,43,-29,-14,-4,-53,-68,-78,-68,-73
-58,-19,39,39,-48,9,-4,-48,-68,-78,-68,-73
-68,-29,39,48,-53,4,4,-43,-68,-78,-73,-73
-58,-24,34,41,-46,4,4,-48,-78,-92,-87,-82
-43,-24,19,34,-31,-2,4,-53,-78,-97,-92,-87
-19,-24,-4,21,-7,-14,4,-58,-78,-97,-92,-87
-19,-19,0,19,-9,-9,0,-63,-78,-92,-87,-87
-29,-29,0,29,-14,-14,0,-63,-68,-92,-87,-87
-34,-29,4,31,-19,-12,0,-68,-68,-92,-87,-82
-39,-29,9,34,-24,-9,0,-68,-68,-92,-87,-82
-43,-29,14,36,-29,-7,0,-63,-68,-92,-87,-82
-43,-29,14,36,-29,-7,0,-53,-78,-92,-87,-82
-39,-29,9,34,-24,-9,-4,-53,-78,-92,-87,-87
-43,-34,9,39,-26,-12,-9,-53,-73,-92,-87,-87
-53,-34,19,43,-36,-7,-14,-53,-73,-92,-87,-87
-53,-24,29,39,-41,2,0,-43,-68,-82,-78,-82
-53,-24,29,39,-41,2,4,-43,-63,-82,-78,-82
-68,-29,39,48,-53,4,0,-43,-58,-82,-78,-82
-68,-29,39,48,-53,4,19,-43,-53,-82,-78,-82
-92,-43,48,68,-70,2,29,-53,-63,-82,-78,-73
-48,-4,43,26,-46,19,34,-43,-63,-73,-68,-63
-19,4,24,7,-21,14,34,-48,-63,-82,-68,-63
-19,-9,9,14,-14,0,29,-39,-58,-78,-63,-68
-14,-9,4,12,-9,-2,39,-9,-43,-58,-53,-58
-4,-14,-9,9,2,-12,34,9,-19,-39,-48,-48
-14,-14,0,14,-7,-7,19,9,0,-19,-29,-48
-19,14,34,2,-26,24,24,39,34,34,-4,-39
-19,58,78,-19,-48,68,43,68,82,102,48,-9
-14,73,87,-29,-51,80,53,78,107,165,112,34
-14,87,102,-36,-58,95,43,63,112,214,195,102
29,131,102,-80,-36,117,34,73,131,278,287,175
73,175,102,-124,-14,139,24,102,161,341,366,258
107,175,68,-141,19,122,24,117,180,390,434,312
131,180,48,-156,41,114,14,117,190,429,502,390
141,170,29,-156,56,100,4,107,180,453,575,473
161,165,4,-163,78,85,-9,78,146,448,624,546
190,200,9,-195,90,104,-14,14,97,424,644,580
165,190,24,-178,70,107,-53,-43,68,400,629,561
112,102,-9,-107,61,46,-34,-43,107,390,556,478
82,53,-29,-68,56,12,19,-24,161,356,419,331
29,97,68,-63,-19,82,53,-14,200,248,209,136
-73,126,200,-26,-136,163,82,9,268,131,-24,-87
-180,87,268,46,-224,178,175,78,400,63,-263,-312
-273,68,341,102,-307,204,283,156,517,-58,-478,-517
-341,63,405,139,-373,234,366,224,629,-146,-619,-644
-400,29,429,185,-414,229,439,317,761,-165,-683,-702
-424,0,424,212,-424,212,497,400,829,-229,-741,-746
-414,-9,405,212,-409,197,507,390,727,-370,-780,-761
-419,-24,395,222,-407,185,488,366,575,-478,-780,-761
-419,-48,370,234,-395,161,512,395,483,-507,-756,-746
-405,-87,317,246,-361,114,580,483,453,-507,-741,-712
-370,-97,273,234,-322,87,605,541,429,-497,-702,-673
-351,-117,234,234,-292,58,585,561,312,-502,-663,-649
-336,-165,170,251,-253,2,546,551,175,-522,-649,-614
-326,-209,117,268,-222,-46,527,566,122,-502,-595,-575
-292,-209,82,251,-187,-63,517,585,87,-473,-531,-527
-283,-200,82,241,-183,-58,453,546,-19,-463,-492,-488
-278,-204,73,241,-175,-65,375,478,-141,-463,-468,-444
-253,-239,14,246,-134,-112,331,439,-219,-463,-448,-414
-219,-248,-29,234,-95,-139,302,419,-248,-439,-424,-385
-146,-229,-82,187,-31,-156,273,366,-268,-429,-395,-346
-73,-209,-136,141,31,-173,239,307,-297,-414,-366,-322
-63,-209,-146,136,41,-178,234,292,-278,-370,-322,-292
-102,-195,-92,148,-4,-143,239,283,-229,-317,-263,-253
-107,-165,-58,136,-24,-112,185,200,-214,-263,-214,-219
-68,-112,-43,90,-12,-78,126,122,-200,-214,-170,-180
-63,-48,14,56,-39,-17,107,92,-151,-161,-126,-141
-63,-19,43,41,-53,12,82,82,-102,-117,-107,-107
-68,-34,34,51,-51,0,43,43,-92,-112,-112,-112
-87,-68,19,78,-53,-24,24,14,-97,-117,-112,-117
-87,-87,0,87,-43,-43,24,-4,-102,-117,-102,-107
-34,-34,0,34,-17,-17,34,-9,-78,-92,-82,-87
39,14,-24,-26,31,-4,34,-4,-68,-82,-68,-78
19,9,-9,-14,14,0,24,-19,-63,-82,-73,-78
0,0,0,0,0,0,19,-34,-78,-82,-73,-87
-19,-14,4,17,-12,-4,14,-58,-87,-87,-78,-87
-29,-24,4,26,-17,-9,14,-73,-97,-87,-78,-87
-29,-14,14,21,-21,0,4,-78,-87,-87,-68,-78
-24,-14,9,19,-17,-2,9,-63,-87,-82,-68,-73
-14,-4,9,9,-12,2,19,-48,-73,-78,-63,-68
-4,-4,0,4,-2,-2,24,-43,-68,-68,-53,-63
-19,-14,4,17,-12,-4,14,-34,-58,-63,-39,-53
-24,-9,14,17,-19,2,9,-39,-63,-63,-48,-53
-24,0,24,12,-24,12,9,-43,-63,-63,-48,-58
-24,-9,14,17,-19,2,0,-58,-73,-63,-58,-58
-34,-19,14,26,-24,-2,-4,-73,-87,-73,-58,-68
-43,-24,19,34,-31,-2,-9,-73,-87,-73,-58,-63
-53,-24,29,39,-41,2,-9,-68,-87,-73,-58,-63
-53,-24,29,39,-41,2,-4,-63,-82,-73,-43,-58
-29,0,29,14,-29,14,-4,-53,-78,-63,-43,-58
-29,0,29,14,-29,14,-4,-53,-78,-63,-39,-58
-34,-4,29,19,-31,12,-14,-63,-78,-68,-39,-58
-24,-4,19,14,-21,7,-14,-68,-78,-68,-48,-58
-24,-4,19,14,-21,7,0,-68,-82,-68,-39,-53
-24,-4,19,14,-21,7,-4,-68,-82,-68,-39,-53
-19,-4,14,12,-17,4,0,-68,-87,-68,-39,-53
-19,-4,14,12,-17,4,4,-68,-87,-68,-39,-53
-29,0,29,14,-29,14,14,-58,-78,-58,-29,-39
-29,9,39,9,-34,24,14,-53,-68,-58,-24,-39
-24,14,39,4,-31,26,9,-48,-63,-53,-24,-39
-24,19,43,2,-34,31,9,-43,-58,-53,-34,-39
-29,14,43,7,-36,29,4,-58,-73,-68,-34,-39
-34,9,43,12,-39,26,-4,-58,-78,-68,-34,-39
-34,4,39,14,-36,21,-9,-63,-82,-68,-34,-39
-24,0,24,12,-24,12,-14,-63,-82,-68,-34,-39
-9,0,9,4,-9,4,-24,-63,-78,-68,-43,-48
4,4,0,-4,2,2,-29,-58,-73,-68,-39,-48
29,14,-14,-21,21,0,-34,-58,-73,-68,-39,-39
39,24,-14,-31,26,4,-39,-63,-73,-68,-39,-39
4,9,4,-7,0,7,-34,-73,-87,-68,-39,-39
-4,0,4,2,-4,2,-29,-78,-92,-68,-39,-39
-14,-4,9,9,-12,2,-24,-78,-92,-68,-39,-29
-29,-9,19,19,-24,4,-24,-78,-92,-63,-34,-29
-29,0,29,14,-29,14,-14,-68,-78,-63,-29,-29
-29,0,29,14,-29,14,-4,-68,-78,-63,-29,-29
-24,-4,19,14,-21,7,-14,-68,-78,-63,-29,-29
-19,-4,14,12,-17,4,-24,-78,-82,-63,-29,-29
-4,9,14,-2,-9,12,-34,-82,-92,-68,-29,-39
0,9,9,-4,-4,9,-39,-87,-97,-68,-34,-39
4,9,4,-7,0,7,-48,-87,-102,-63,-34,-39
19,9,-9,-14,14,0,-53,-82,-102,-63,-24,-29
34,0,-34,-17,34,-17,-58,-82,-107,-73,-34,-19
34,4,-29,-19,31,-12,-63,-92,-102,-73,-24,-14
24,4,-19,-14,21,-7,-63,-92,-102,-73,-24,-14
19,4,-14,-12,17,-4,-68,-87,-107,-63,-24,-14
19,14,-4,-17,12,4,-68,-97,-107,-63,-19,-9
24,24,0,-24,12,12,-73,-97,-107,-63,-19,-9
34,24,-9,-29,21,7,-68,-97,-112,-63,-19,-4
24,24,0,-24,12,12,-63,-102,-112,-63,-9,0
9,9,0,-9,4,4,-53,-102,-97,-48,4,4
9,4,-4,-7,7,0,-53,-97,-97,-43,4,9
14,0,-14,-7,14,-7,-58,-97,-97,-43,9,9
0,0,0,0,0,0,-58,-97,-97,-34,14,19
4,14,9,-9,-2,12,-58,-92,-97,-34,14,29
9,14,4,-12,2,9,-58,-107,-102,-34,14,34
19,14,-4,-17,12,4,-58,-107,-107,-34,19,34
29,19,-9,-24,19,4,-58,-102,-107,-24,29,39
39,19,-19,-29,29,0,-73,-92,-92,-19,39,34
29,19,-9,-24,19,4,-78,-92,-92,-19,43,39
29,24,-4,-26,17,9,-78,-87,-92,-4,48,58
39,39,0,-39,19,19,-82,-87,-92,-4,53,58
34,19,-14,-26,24,2,-97,-102,-102,-14,58,63
34,19,-14,-26,24,2,-102,-107,-102,-9,63,63
53,19,-34,-36,43,-7,-107,-122,-107,-4,63,68
48,24,-24,-36,36,0,-112,-126,-107,-4,68,73
58,29,-29,-43,43,0,-112,-117,-97,4,92,92
58,43,-14,-51,36,14,-107,-117,-92,29,102,107
63,58,-4,-61,34,26,-102,-117,-87,43,117,117
68,68,0,-68,34,34,-102,-117,-87,53,122,131
78,78,0,-78,39,39,-102,-117,-82,73,141,141
78,78,0,-78,39,39,-112,-122,-78,82,151,146
78,82,4,-80,36,43,-117,-122,-78,92,156,151
92,87,-4,-90,48,41,-136,-122,-78,97,165,161
102,82,-19,-92,61,31,-141,-112,-78,102,170,165
97,78,-19,-87,58,29,-146,-112,-73,112,180,175
92,82,-9,-87,51,36,-151,-112,-73,122,185,185
92,87,-4,-90,48,41,-156,-112,-63,126,190,195
107,92,-14,-100,61,39,-151,-117,-58,136,200,190
112,92,-19,-102,65,36,-156,-122,-48,151,214,200
112,97,-14,-104,63,41,-161,-122,-39,165,229,209
117,102,-14,-109,65,43,-161,-126,-29,180,234,209
136,107,-29,-122,82,39,-165,-136,-29,195,234,214
151,117,-34,-134,92,41,-170,-136,-24,204,239,214
165,126,-39,-146,102,43,-185,-131,-14,219,244,214
170,131,-39,-151,104,46,-190,-131,0,234,253,224
170,131,-39,-151,104,46,-190,-112,4,258,268,234
161,136,-24,-148,92,56,-185,-97,29,268,278,239
146,141,-4,-143,75,68,-175,-87,53,287,287,248
136,156,19,-146,58,87,-170,-78,73,302,292,263
151,146,-4,-148,78,70,-180,-87,68,297,292,253
156,146,-9,-151,82,68,-185,-82,68,302,292,253
161,146,-14,-153,87,65,-185,-82,78,312,297,253
165,156,-9,-161,87,73,-180,-82,87,322,297,253
180,170,-9,-175,95,80,-170,-68,97,326,302,253
190,170,-19,-180,104,75,-165,-68,107,326,302,258
200,175,-24,-187,112,75,-165,-58,107,336,312,258
180,175,-4,-178,92,85,-165,-58,112,341,317,258
180,190,9,-185,85,100,-175,-63,126,356,307,258
180,190,9,-185,85,100,-170,-63,131,361,302,253
180,190,9,-185,85,100,-170,-63,131,361,297,244
170,190,19,-180,75,104,-170,-58,136,356,292,234
161,175,14,-168,73,95,-156,-39,141,341,292,219
131,170,39,-151,46,104,-141,-34,156,341,278,214
117,156,39,-136,39,97,-136,-29,156,336,273,200
102,151,48,-126,26,100,-136,-24,156,322,258,180
97,165,68,-131,14,117,-141,-4,165,326,248,175
92,170,78,-131,7,124,-131,4,170,312,244,165
92,170,78,-131,7,124,-122,4,170,307,234,151
78,170,92,-124,-7,131,-112,9,175,292,214,146
78,151,73,-114,2,112,-97,9,165,268,200,117
63,122,58,-92,2,90,-87,4,146,239,170,102
63,122,58,-92,2,90,-63,4,136,214,146,87
58,112,53,-85,2,82,-43,0,126,190,131,73
34,107,73,-70,-19,90,-39,9,131,185,122,58
24,107,82,-65,-29,95,-34,14,117,165,107,48
24,102,78,-63,-26,90,-39,14,107,146,97,34
34,102,68,-68,-17,85,-43,14,92,126,82,24
9,82,73,-46,-31,78,-39,14,92,107,58,19
4,73,68,-39,-31,70,-34,4,78,87,48,4
-4,73,78,-34,-41,75,-24,0,68,73,34,-4
-14,63,78,-24,-46,70,-14,0,53,58,29,-9
-9,39,48,-14,-29,43,-19,-9,43,43,14,-19
-4,34,39,-14,-21,36,-19,-14,34,34,9,-29
-9,29,39,-9,-24,34,-24,-14,24,24,-4,-34
-14,29,43,-7,-29,36,-29,-14,19,19,-4,-39
-9,34,43,-12,-26,39,-24,-14,9,4,-24,-43
-4,29,34,-12,-19,31,-19,-24,-4,-9,-34,-58
4,29,24,-17,-9,26,-14,-24,-9,-19,-48,-68
9,29,19,-19,-4,24,-4,-24,-9,-29,-48,-73
-4,14,19,-4,-12,17,4,-24,-14,-29,-48,-73
-19,9,29,4,-24,19,-4,-29,-14,-39,-58,-73
-29,9,39,9,-34,24,-4,-29,-24,-39,-58,-78
-39,9,48,14,-43,29,0,-29,-24,-39,-58,-78
-29,14,43,7,-36,29,-4,-19,-19,-43,-48,-82
-24,14,39,4,-31,26,-9,-19,-19,-43,-58,-82
-19,19,39,0,-29,29,-14,-19,-19,-43,-58,-82
-29,24,53,2,-41,39,-4,-19,-19,-48,-58,-82
-39,9,48,14,-43,29,0,-14,-14,-48,-58,-82
-39,9,48,14,-43,29,4,-4,-14,-43,-58,-82
-48,19,68,14,-58,43,4,0,-14,-39,-53,-78
-58,19,78,19,-68,48,4,4,-14,-34,-53,-78
-68,9,78,29,-73,43,-9,-9,-14,-39,-53,-68
-68,4,73,31,-70,39,-9,-14,-14,-39,-53,-68
-73,4,78,34,-75,41,-4,-19,-14,-43,-53,-68
-73,4,78,34,-75,41,-4,-24,-14,-43,-53,-73
-68,-4,63,36,-65,29,-4,-39,-29,-58,-73,-87
-58,0,58,29,-58,29,-9,-48,-39,-63,-78,-92
-39,4,43,17,-41,24,-14,-53,-48,-68,-78,-97
-29,4,34,12,-31,19,-24,-58,-63,-73,-78,-97
-19,19,39,0,-29,29,-14,-53,-53,-68,-73,-92
-9,24,34,-7,-21,29,-9,-48,-48,-63,-68,-87
0,29,29,-14,-14,29,-9,-39,-43,-58,-63,-82
9,34,24,-21,-7,29,-9,-34,-39,-53,-58,-78
-4,29,34,-12,-19,31,-19,-34,-43,-63,-68,-92
-14,9,24,2,-19,17,-24,-43,-53,-68,-68,-92
-19,4,24,7,-21,14,-24,-43,-58,-68,-68,-92
-19,9,29,4,-24,19,-24,-43,-58,-63,-68,-92
-39,4,43,17,-41,24,-34,-39,-53,-58,-48,-73
-48,4,53,21,-51,29,-34,-39,-48,-53,-48,-73
-63,4,68,29,-65,36,-34,-39,-43,-48,-48,-73
-73,9,82,31,-78,46,-29,-39,-43,-43,-48,-73
-48,14,63,17,-56,39,-19,-39,-53,-43,-48,-63
-39,19,58,9,-48,39,-19,-39,-53,-43,-48,-68
-24,24,48,0,-36,36,-19,-39,-53,-39,-48,-68
-14,24,39,-4,-26,31,-19,-43,-58,-39,-48,-63
-24,4,29,9,-26,17,-29,-53,-68,-43,-53,-68
-24,4,29,9,-26,17,-39,-58,-73,-48,-53,-68
-24,4,29,9,-26,17,-43,-58,-73,-53,-48,-73
-24,4,29,9,-26,17,-48,-58,-73,-58,-48,-73
-9,14,24,-2,-17,19,-39,-58,-68,-53,-58,-82
-9,19,29,-4,-19,24,-34,-58,-58,-48,-58,-78
-4,29,34,-12,-19,31,-29,-58,-53,-43,-53,-78
-4,39,43,-17,-24,41,-24,-58,-48,-39,-53,-78
9,48,39,-29,-14,43,-29,-58,-63,-43,-43,-78
4,43,39,-24,-17,41,-34,-58,-63,-43,-43,-73
9,39,29,-24,-9,34,-39,-58,-63,-43,-48,-73
14,39,24,-26,-4,31,-43,-63,-63,-43,-48,-73
4,39,34,-21,-14,36,-43,-53,-63,-34,-39,-73
-4,39,43,-17,-24,41,-48,-53,-58,-34,-39,-68
-9,39,48,-14,-29,43,-48,-53,-53,-34,-39,-63
-19,39,58,-9,-39,48,-48,-53,-48,-34,-39,-58
-39,48,87,-4,-63,68,-48,-53,-58,-34,-39,-68
-29,48,78,-9,-53,63,-43,-53,-53,-34,-39,-68
-29,48,78,-9,-53,63,-43,-53,-53,-34,-39,-63
-34,48,82,-7,-58,65,-43,-53,-58,-34,-39,-63
-19,34,53,-7,-36,43,-34,-53,-68,-39,-48,-68
-14,34,48,-9,-31,41,-34,-53,-68,-43,-48,-73
-4,29,34,-12,-19,31,-43,-53,-68,-48,-43,-73
0,24,24,-12,-12,24,-43,-53,-68,-58,-43,-78
9,34,24,-21,-7,29,-29,-58,-58,-48,-48,-78
0,39,39,-19,-19,39,-29,-58,-58,-48,-48,-78
0,39,39,-19,-19,39,-24,-58,-58,-48,-53,-73
0,39,39,-19,-19,39,-24,-58,-58,-48,-53,-68
-4,24,29,-9,-17,26,-39,-58,-68,-58,-53,-78
-14,14,29,0,-21,21,-43,-58,-68,-58,-58,-78
-19,9,29,4,-24,19,-39,-58,-68,-63,-58,-78
-19,9,29,4,-24,19,-43,-58,-68,-68,-58,-78
-9,9,19,0,-14,14,-39,-58,-78,-68,-63,-78
-14,9,24,2,-19,17,-39,-68,-78,-68,-63,-82
-19,9,29,4,-24,19,-39,-68,-78,-68,-68,-82
-34,9,43,12,-39,26,-34,-68,-73,-68,-68,-87
-39,14,53,12,-46,34,-29,-53,-63,-58,-58,-87
-39,14,53,12,-46,34,-29,-53,-63,-58,-58,-87
-34,19,53,7,-43,36,-34,-53,-63,-58,-58,-87
-34,24,58,4,-46,41,-34,-48,-63,-58,-58,-82
-34,24,58,4,-46,41,-24,-58,-68,-68,-68,-82
-34,24,58,4,-46,41,-24,-58,-68,-68,-68,-82
-34,24,58,4,-46,41,-19,-58,-73,-73,-68,-82
-24,19,43,2,-34,31,-14,-58,-73,-73,-68,-82
-29,9,39,9,-34,24,-19,-58,-68,-58,-68,-82
-34,9,43,12,-39,26,-24,-58,-58,-58,-68,-92
-39,0,39,19,-39,19,-29,-58,-68,-63,-78,-97
-43,0,43,21,-43,21,-34,-58,-68,-68,-78,-97
-19,0,19,9,-19,9,-39,-58,-78,-78,-87,-97
-14,4,19,4,-17,12,-48,-58,-68,-73,-82,-97
-14,4,19,4,-17,12,-53,-58,-63,-73,-82,-92
-29,4,34,12,-31,19,-53,-58,-63,-73,-82,-92
-43,14,58,14,-51,36,-24,-48,-43,-58,-78,-82
-48,14,63,17,-56,39,-4,-43,-39,-53,-73,-82
-53,9,63,21,-58,36,0,-39,-39,-53,-63,-82
-58,9,68,24,-63,39,0,-34,-34,-48,-58,-82
-58,9,68,24,-63,39,0,-14,-24,-39,-48,-82
-19,0,19,9,-19,9,-19,-4,-19,-43,-58,-82
29,-4,-34,-12,31,-19,-29,-9,-19,-39,-58,-92
43,14,-29,-29,36,-7,-19,-9,-14,-39,-58,-82
29,9,-19,-19,24,-4,9,0,0,-29,-39,-68
24,-4,-29,-9,26,-17,14,14,9,-19,-39,-68
19,-9,-29,-4,24,-19,19,19,9,-19,-39,-68
14,-14,-29,0,21,-21,24,24,9,-19,-39,-68
9,-19,-29,4,19,-24,29,29,9,-19,-39,-68
4,-29,-34,12,19,-31,39,29,14,-24,-39,-68
0,-39,-39,19,19,-39,39,29,4,-24,-48,-73
-14,-39,-24,26,4,-31,43,29,4,-24,-48,-73
-19,-34,-14,26,-2,-24,48,29,4,-24,-48,-73
-9,-39,-29,24,9,-34,39,24,-4,-29,-58,-82
-9,-39,-29,24,9,-34,34,24,-4,-34,-58,-82
-4,-39,-34,21,14,-36,29,24,-4,-43,-63,-87
19,-34,-53,7,36,-43,24,29,-9,-48,-63,-92
9,-24,-34,7,21,-29,34,43,0,-39,-58,-87
9,-29,-39,9,24,-34,34,53,0,-39,-53,-78
19,-29,-48,4,34,-39,29,53,4,-34,-48,-73
24,-24,-48,0,36,-36,24,58,4,-34,-39,-63
39,-24,-63,-7,51,-43,24,58,-4,-43,-48,-73
43,-24,-68,-9,56,-46,24,58,-4,-48,-48,-73
48,-24,-73,-12,61,-48,24,58,-9,-48,-48,-73
48,-39,-87,-4,68,-63,9,53,-19,-58,-63,-78
43,-48,-92,2,68,-70,-9,48,-19,-53,-53,-78
24,-48,-73,12,48,-61,-24,29,-39,-58,-53,-82
9,-48,-58,19,34,-53,-34,4,-53,-68,-68,-87
-9,-58,-48,34,19,-53,-43,-19,-78,-87,-87,-97
4,-58,-63,26,34,-61,-48,-53,-107,-112,-92,-107
14,-48,-63,17,39,-56,-63,-68,-117,-112,-102,-112
29,-48,-78,9,53,-63,-63,-73,-117,-112,-102,-112
24,-48,-73,12,48,-61,-53,-73,-112,-107,-97,-107
14,-58,-73,21,43,-65,-63,-68,-112,-112,-97,-107
4,-53,-58,24,31,-56,-63,-73,-102,-107,-92,-107
-4,-53,-48,29,21,-51,-58,-68,-97,-102,-87,-107
-4,-48,-43,26,19,-46,-53,-73,-97,-97,-87,-97
19,-39,-58,9,39,-48,-63,-68,-87,-87,-73,-87
24,-34,-58,4,41,-46,-63,-68,-92,-87,-73,-87
24,-34,-58,4,41,-46,-68,-63,-92,-87,-73,-87
29,-29,-58,0,43,-43,-73,-58,-92,-87,-73,-87
14,-24,-39,4,26,-31,-78,-73,-102,-97,-78,-87
4,-19,-24,7,14,-21,-73,-73,-102,-92,-78,-87
-19,-24,-4,21,-7,-14,-63,-73,-97,-82,-73,-87
-34,-24,9,29,-21,-7,-58,-73,-92,-82,-73,-87
-19,-9,9,14,-14,0,-68,-78,-68,-68,-63,-82
-4,-4,0,4,-2,-2,-63,-78,-68,-68,-63,-82
-14,0,14,7,-14,7,-58,-82,-68,-68,-68,-92
-24,-4,19,14,-21,7,-53,-82,-68,-73,-82,-102
-39,-4,34,21,-36,14,-39,-73,-58,-73,-82,-102
-43,-4,39,24,-41,17,-34,-73,-68,-78,-82,-107
-58,-19,39,39,-48,9,-19,-73,-73,-92,-92,-112
-58,-19,39,39,-48,9,-14,-73,-73,-92,-97,-117
-39,-29,9,34,-24,-9,-19,-73,-82,-102,-107,-126
-34,-19,14,26,-24,-2,-29,-68,-78,-102,-102,-126
-34,-19,14,26,-24,-2,-34,-68,-78,-102,-102,-136
-48,-34,14,41,-31,-9,-43,-78,-78,-102,-107,-136
-39,-29,9,34,-24,-9,-39,-78,-78,-102,-107,-131
-29,-19,9,24,-19,-4,-34,-73,-78,-97,-97,-131
-29,4,34,12,-31,19,-29,-73,-78,-97,-97,-131
-29,0,29,14,-29,14,-14,-73,-78,-97,-102,-131
-34,0,34,17,-34,17,-24,-68,-73,-92,-102,-126
-34,-4,29,19,-31,12,-24,-63,-68,-97,-102,-126
-24,-9,14,17,-19,2,-24,-58,-63,-97,-97,-122
-39,-9,29,24,-34,9,-29,-53,-58,-92,-87,-117
-48,-14,34,31,-41,9,-19,-63,-68,-92,-97,-126
-53,-19,34,36,-43,7,-19,-68,-68,-92,-97,-122
-58,-24,34,41,-46,4,-19,-68,-68,-92,-97,-122
-63,-29,34,46,-48,2,-19,-63,-68,-92,-97,-122
-53,-9,43,31,-48,17,-14,-63,-68,-92,-97,-122
-39,-9,29,24,-34,9,-14,-63,-68,-92,-97,-126
-34,-14,19,24,-26,2,-14,-63,-63,-92,-97,-126
-34,-14,19,24,-26,2,-14,-63,-63,-92,-97,-126
-24,-14,9,19,-17,-2,-19,-63,-63,-92,-97,-122
-24,-14,9,19,-17,-2,-24,-63,-63,-92,-97,-122
-39,-19,19,29,-29,0,-39,-63,-63,-92,-97,-122
-39,-19,19,29,-29,0,-29,-63,-63,-92,-97,-122
-73,-43,29,58,-51,-7,0,-63,-73,-102,-107,-131
-68,-34,34,51,-51,0,-14,-63,-63,-102,-97,-131
-68,-34,34,51,-51,0,-14,-68,-53,-92,-87,-131
-97,-58,39,78,-68,-9,9,-58,-48,-87,-82,-117
-102,-48,53,75,-78,2,29,-29,-34,-58,-63,-97
-92,-24,68,58,-80,21,24,0,-9,-29,-48,-78
-92,-14,78,53,-85,31,29,19,19,0,-19,-68
-68,14,82,26,-75,48,24,29,53,43,-4,-68
-29,39,68,-4,-48,53,24,39,73,82,19,-58
-24,53,78,-14,-51,65,24,58,107,136,82,-24
4,97,92,-51,-43,95,4,63,131,204,175,53
68,151,82,-109,-7,117,-14,63,131,268,268,136
112,175,63,-143,24,119,-24,63,141,322,346,200
117,185,68,-151,24,126,4,87,170,370,414,263
141,180,39,-161,51,109,34,107,190,429,483,341
161,170,9,-165,75,90,14,117,190,453,556,424
200,175,-24,-187,112,75,-19,97,165,448,605,507
209,200,-9,-204,109,95,-63,34,117,424,634,541
175,200,24,-187,75,112,-82,-34,87,400,629,541
131,141,9,-136,61,75,-53,-34,117,400,575,488
112,92,-19,-102,65,36,9,-4,170,375,448,351
39,87,48,-63,-4,68,14,-43,170,268,229,146
-63,97,161,-17,-112,129,43,-39,219,141,-4,-78
-141,97,239,21,-190,168,136,48,370,73,-214,-292
-263,68,331,97,-297,200,244,156,517,-19,-429,-507
-380,34,414,173,-397,224,307,214,600,-136,-600,-663
-390,58,448,165,-419,253,390,317,741,-136,-644,-712
-375,87,463,143,-419,275,468,419,858,-151,-673,-727
-424,19,444,202,-434,231,488,409,766,-302,-741,-780
-468,-43,424,256,-446,190,468,356,585,-448,-780,-790
-429,-48,380,239,-405,165,492,366,483,-478,-756,-756
-414,-58,356,236,-385,148,541,463,453,-488,-722,-732
-400,-87,312,244,-356,112,575,551,458,-478,-683,-702
-400,-97,302,248,-351,102,575,590,380,-473,-653,-668
-395,-126,268,261,-331,70,566,590,244,-483,-629,-634
-356,-161,195,258,-275,17,556,595,151,-473,-585,-605
-322,-200,122,261,-222,-39,527,575,78,-473,-561,-575
-292,-229,63,261,-178,-82,444,517,-48,-502,-551,-556
-239,-224,14,231,-126,-104,366,429,-180,-531,-527,-531
-185,-229,-43,207,-70,-136,302,370,-258,-512,-497,-483
-170,-258,-87,214,-41,-173,263,370,-278,-488,-453,-444
-175,-258,-82,217,-46,-170,234,375,-268,-448,-414,-405
-151,-239,-87,195,-31,-163,219,317,-287,-424,-385,-370
-151,-239,-87,195,-31,-163,214,273,-287,-390,-351,-351
-180,-244,-63,212,-58,-153,200,263,-258,-356,-322,-312
-146,-195,-48,170,-48,-122,146,219,-224,-302,-263,-268
-78,-131,-53,104,-12,-92,87,122,-209,-244,-209,-219
-43,-97,-53,70,4,-75,68,53,-190,-209,-175,-190
-63,-87,-24,75,-19,-56,73,53,-141,-165,-146,-165
-87,-92,-4,90,-41,-48,43,34,-122,-141,-131,-161
-58,-58,0,58,-29,-29,4,4,-107,-136,-131,-165
-29,-29,0,29,-14,-14,-14,-4,-92,-126,-131,-156
-24,-34,-9,29,-7,-21,4,-29,-87,-112,-122,-156
-9,-34,-24,21,7,-29,24,-34,-87,-102,-107,-146
-9,-24,-14,17,2,-19,19,-24,-63,-87,-87,-126
-19,-19,0,19,-9,-9,19,-24,-68,-82,-82,-126
-29,-19,9,24,-19,-4,19,-34,-68,-82,-82,-117
-29,-14,14,21,-21,0,24,-34,-68,-78,-78,-107
-43,-4,39,24,-41,17,0,-48,-78,-82,-78,-117
-43,-4,39,24,-41,17,0,-43,-78,-82,-78,-112
-39,4,43,17,-41,24,4,-39,-63,-82,-73,-107
-34,4,39,14,-36,21,4,-43,-58,-78,-63,-102
-43,-9,34,26,-39,12,4,-53,-68,-68,-48,-92
-43,-9,34,26,-39,12,0,-58,-73,-73,-58,-92
-39,-4,34,21,-36,14,0,-63,-73,-78,-58,-97
-34,-19,14,26,-24,-2,-9,-78,-82,-82,-68,-97
-29,-9,19,19,-24,4,-24,-78,-78,-73,-68,-97
-24,-4,19,14,-21,7,-29,-73,-78,-73,-68,-92
-19,4,24,7,-21,14,-29,-63,-78,-73,-68,-92
-4,14,19,-4,-12,17,-24,-53,-73,-73,-53,-87
0,24,24,-12,-12,24,-24,-53,-68,-73,-53,-78
-9,19,29,-4,-19,24,-24,-53,-68,-73,-48,-78
-24,9,34,7,-29,21,-34,-63,-68,-78,-48,-78
-24,4,29,9,-26,17,-34,-68,-68,-78,-58,-78
-34,4,39,14,-36,21,-24,-78,-82,-78,-68,-82
-34,4,39,14,-36,21,-34,-78,-82,-78,-68,-82
-29,4,34,12,-31,19,-34,-78,-87,-78,-68,-82
-29,4,34,12,-31,19,-34,-78,-87,-78,-68,-82
-43,14,58,14,-51,36,-24,-58,-68,-73,-43,-63
-48,19,68,14,-58,43,-24,-53,-58,-68,-34,-58
-48,19,68,14,-58,43,-29,-48,-53,-58,-29,-53
-53,19,73,17,-63,46,-29,-43,-48,-53,-34,-48
-43,9,53,17,-48,31,-29,-63,-58,-63,-39,-63
-34,9,43,12,-39,26,-34,-68,-68,-68,-43,-68
-19,9,29,4,-24,19,-34,-78,-78,-73,-48,-73
4,9,4,-7,0,7,-34,-82,-82,-78,-53,-78
9,-4,-14,-2,12,-9,-29,-82,-82,-87,-63,-78
14,-4,-19,-4,17,-12,-29,-78,-82,-87,-58,-78
29,0,-29,-14,29,-14,-29,-78,-87,-87,-58,-68
29,4,-24,-17,26,-9,-29,-82,-92,-87,-58,-68
9,14,4,-12,2,9,-34,-87,-92,-78,-58,-68
4,9,4,-7,0,7,-39,-87,-92,-78,-58,-68
0,9,9,-4,-4,9,-43,-82,-87,-78,-58,-58
-9,9,19,0,-14,14,-53,-78,-82,-73,-53,-58
-19,19,39,0,-29,29,-43,-73,-73,-68,-34,-53
-29,19,48,4,-39,34,-24,-68,-68,-63,-29,-48
-34,14,48,9,-41,31,-24,-63,-63,-58,-24,-43
-39,14,53,12,-46,34,-24,-68,-63,-53,-19,-39
-9,9,19,0,-14,14,-39,-78,-73,-73,-29,-53
0,9,9,-4,-4,9,-48,-87,-87,-78,-43,-58
9,9,0,-9,4,4,-63,-92,-102,-78,-53,-63
29,9,-19,-19,24,-4,-73,-92,-112,-82,-53,-58
34,19,-14,-26,24,2,-82,-92,-97,-82,-43,-48
34,24,-9,-29,21,7,-82,-102,-92,-82,-34,-43
24,24,0,-24,12,12,-78,-102,-92,-82,-34,-43
19,24,4,-21,7,14,-78,-97,-97,-73,-34,-43
4,14,9,-9,-2,12,-68,-92,-97,-68,-29,-29
4,24,19,-14,-7,21,-73,-87,-97,-63,-29,-29
9,24,14,-17,-2,19,-68,-82,-102,-58,-29,-24
-4,24,29,-9,-17,26,-63,-82,-102,-53,-19,-19
4,24,19,-14,-7,21,-68,-97,-97,-53,-14,-24
19,24,4,-21,7,14,-73,-97,-97,-53,-14,-19
39,24,-14,-31,26,4,-82,-102,-97,-58,-9,-19
39,29,-9,-34,24,9,-87,-107,-97,-53,-4,-9
34,43,9,-39,12,26,-87,-107,-87,-43,4,0
29,43,14,-36,7,29,-87,-117,-92,-43,4,4
29,43,14,-36,7,29,-87,-112,-97,-43,9,4
29,48,19,-39,4,34,-87,-102,-97,-34,19,9
29,43,14,-36,7,29,-112,-102,-92,-29,19,14
19,39,19,-29,0,29,-117,-102,-92,-29,24,19
19,39,19,-29,0,29,-117,-97,-92,-14,29,39
29,48,19,-39,4,34,-122,-97,-92,-14,34,39
48,39,-9,-43,29,14,-122,-117,-107,-24,29,34
53,39,-14,-46,34,12,-122,-117,-112,-19,34,34
78,39,-39,-58,58,0,-122,-126,-122,-14,34,39
78,43,-34,-61,56,4,-122,-126,-126,-14,39,43
73,53,-19,-63,46,17,-117,-126,-112,0,63,63
68,63,-4,-65,36,29,-117,-126,-102,19,73,78
68,73,4,-70,31,39,-117,-126,-92,29,87,87
68,78,9,-73,29,43,-122,-126,-87,34,92,102
78,78,0,-78,39,39,-122,-117,-92,43,112,112
78,78,0,-78,39,39,-131,-122,-87,53,122,117
78,82,4,-80,36,43,-136,-122,-87,63,126,122
92,87,-4,-90,48,41,-156,-122,-87,68,136,131
92,87,-4,-90,48,41,-146,-122,-68,87,146,136
87,87,0,-87,43,43,-146,-122,-63,102,161,146
82,97,14,-90,34,56,-146,-122,-63,117,170,156
82,107,24,-95,29,65,-146,-122,-53,126,180,165
107,112,4,-109,51,58,-156,-122,-58,141,180,161
112,112,0,-112,56,56,-165,-122,-48,151,195,170
112,117,4,-114,53,61,-175,-117,-39,161,209,180
117,122,4,-119,56,63,-180,-117,-29,170,214,180
141,136,-4,-139,73,65,-190,-126,-19,175,214,195
161,146,-14,-153,87,65,-190,-126,-14,185,219,195
180,156,-24,-168,102,65,-200,-122,-4,200,224,195
190,161,-29,-175,109,65,-200,-122,9,214,234,204
195,161,-34,-178,114,63,-204,-117,9,229,239,209
190,165,-24,-178,107,70,-204,-107,29,239,248,209
180,170,-9,-175,95,80,-200,-102,48,258,258,214
175,185,9,-180,82,97,-200,-97,63,273,263,224
156,175,19,-165,68,97,-185,-87,73,283,268,229
146,175,29,-161,58,102,-185,-82,78,292,273,234
136,175,39,-156,48,107,-180,-82,92,307,283,239
126,185,58,-156,34,122,-170,-82,107,322,287,244
141,195,53,-168,43,124,-180,-78,107,326,283,234
151,190,39,-170,56,114,-175,-78,117,326,283,239
161,190,29,-175,65,109,-175,-68,117,336,292,239
141,185,43,-163,48,114,-175,-68,122,341,297,239
151,200,48,-175,51,124,-190,-63,136,346,287,229
161,200,39,-180,61,119,-190,-63,141,351,283,224
170,200,29,-185,70,114,-195,-63,141,351,278,214
170,200,29,-185,70,114,-200,-58,146,346,273,204
170,200,29,-185,70,114,-180,-48,151,341,273,200
151,200,48,-175,51,124,-161,-43,165,341,258,195
146,190,43,-168,51,117,-151,-39,165,336,253,180
141,190,48,-165,46,119,-146,-34,165,322,239,161
122,180,58,-151,31,119,-141,-24,170,317,234,156
112,180,68,-146,21,124,-131,-14,170,302,224,146
107,175,68,-141,19,122,-122,-14,165,297,209,131
87,170,82,-129,2,126,-112,-9,165,283,185,126
73,170,97,-122,-12,134,-102,-4,170,263,180,107
53,141,87,-97,-17,114,-97,-4,156,239,161,92
48,141,92,-95,-21,117,-78,0,151,219,146,78
39,131,92,-85,-26,112,-63,0,146,200,141,63
19,117,97,-68,-39,107,-43,9,151,195,122,58
4,117,112,-61,-53,114,-34,14,136,175,107,48
0,112,112,-56,-56,112,-34,14,126,156,97,34
4,112,107,-58,-51,109,-34,14,112,136,82,24
-4,102,107,-48,-56,104,-34,14,102,107,48,4
4,92,87,-48,-41,90,-34,4,87,87,39,-14
9,92,82,-51,-36,87,-29,0,78,73,24,-29
14,82,68,-48,-26,75,-24,0,63,58,19,-39
14,68,53,-41,-19,61,-29,-9,53,43,-4,-43
14,63,48,-39,-17,56,-29,-14,43,34,-9,-48
4,58,53,-31,-24,56,-34,-14,34,24,-24,-48
-4,58,63,-26,-34,61,-39,-14,29,19,-24,-48
-14,53,68,-19,-41,61,-29,-4,29,14,-24,-53
-14,48,63,-17,-39,56,-29,-14,14,0,-34,-68
-9,48,58,-19,-34,53,-29,-14,9,-9,-48,-78
-9,48,58,-19,-34,53,-24,-14,9,-19,-48,-82
-9,43,53,-17,-31,48,-24,-24,-4,-29,-48,-82
-9,39,48,-14,-29,43,-34,-29,-4,-39,-58,-82
-4,39,43,-17,-24,41,-34,-29,-14,-39,-58,-87
0,39,39,-19,-19,39,-29,-29,-14,-39,-58,-87
-9,19,29,-4,-19,24,-24,-39,-19,-53,-68,-92
-14,14,29,0,-21,21,-19,-39,-19,-53,-78,-92
-19,14,34,2,-26,24,-14,-39,-19,-53,-78,-92
-39,14,53,12,-46,34,4,-39,-19,-58,-78,-92
-39,19,58,9,-48,39,-4,-39,-24,-53,-78,-102
-29,19,48,4,-39,34,-4,-34,-24,-53,-78,-102
-29,29,58,0,-43,43,-9,-34,-24,-53,-73,-97
-29,29,58,0,-43,43,-14,-34,-24,-53,-73,-97
-29,29,58,0,-43,43,-9,-24,-24,-48,-73,-107
-29,24,53,2,-41,39,-9,-24,-24,-48,-73,-107
-34,24,58,4,-46,41,-4,-24,-24,-53,-73,-107
-34,24,58,4,-46,41,-4,-24,-24,-53,-73,-112
-48,24,73,12,-61,48,4,-14,-9,-43,-78,-102
-48,29,78,9,-63,53,9,-19,-9,-43,-78,-102
-39,34,73,2,-56,53,14,-19,-9,-43,-73,-102
-39,34,73,2,-56,53,14,-19,-14,-43,-68,-97
-29,24,53,2,-41,39,4,-19,-19,-53,-68,-97
-29,24,53,2,-41,39,0,-19,-19,-53,-68,-97
-29,24,53,2,-41,39,-9,-14,-19,-53,-68,-97
-29,24,53,2,-41,39,-19,-14,-19,-53,-68,-97
-53,19,73,17,-63,46,-14,-14,-9,-43,-68,-92
-73,0,73,36,-73,36,-14,-24,-14,-48,-68,-92
-87,-4,82,46,-85,39,-9,-24,-14,-48,-68,-92
-97,0,97,48,-97,48,-4,-24,-9,-43,-68,-92
-73,9,82,31,-78,46,-14,-29,-14,-53,-68,-92
-58,14,73,21,-65,43,-14,-29,-19,-53,-68,-92
-48,19,68,14,-58,43,-14,-29,-24,-53,-68,-92
-34,29,63,2,-48,46,-9,-29,-34,-53,-68,-92
-19,24,43,-2,-31,34,-19,-29,-34,-53,-68,-92
-19,29,48,-4,-34,39,-19,-29,-34,-53,-68,-97
-14,34,48,-9,-31,41,-19,-29,-34,-48,-68,-97
-14,34,48,-9,-31,41,-19,-34,-39,-48,-68,-92
-14,34,48,-9,-31,41,-24,-24,-29,-39,-53,-82
-14,34,48,-9,-31,41,-29,-29,-34,-39,-53,-78
-14,34,48,-9,-31,41,-29,-29,-34,-39,-48,-78
-14,34,48,-9,-31,41,-29,-29,-34,-39,-48,-73
0,39,39,-19,-19,39,-43,-34,-39,-43,-53,-78
9,39,29,-24,-9,34,-43,-39,-39,-48,-58,-78
24,43,19,-34,2,31,-43,-43,-43,-53,-58,-82
34,48,14,-41,9,31,-43,-48,-48,-58,-63,-87
19,39,19,-29,0,29,-39,-39,-53,-43,-58,-78
4,34,29,-19,-12,31,-34,-39,-53,-43,-53,-73
0,29,29,-14,-14,29,-29,-39,-53,-43,-53,-73
-4,29,34,-12,-19,31,-24,-43,-53,-43,-48,-73
-14,39,53,-12,-34,46,-24,-43,-48,-43,-39,-68
-14,39,53,-12,-34,46,-29,-43,-48,-43,-39,-68
-9,39,48,-14,-29,43,-29,-43,-48,-43,-39,-68
-9,39,48,-14,-29,43,-29,-43,-48,-43,-39,-68
-24,39,63,-7,-43,51,-29,-34,-48,-34,-39,-58
-19,39,58,-9,-39,48,-24,-34,-43,-34,-39,-58
-24,39,63,-7,-43,51,-24,-34,-43,-34,-39,-53
-34,39,73,-2,-53,56,-24,-34,-48,-34,-39,-53
-14,48,63,-17,-39,56,-29,-43,-48,-39,-48,-58
-4,53,58,-24,-31,56,-34,-43,-48,-43,-48,-63
9,53,43,-31,-17,48,-48,-43,-48,-48,-43,-63
19,53,34,-36,-7,43,-53,-43,-48,-58,-43,-68
14,48,34,-31,-9,41,-43,-39,-48,-48,-48,-63
0,48,48,-24,-24,48,-39,-39,-48,-48,-48,-68
-4,43,48,-19,-26,46,-29,-39,-48,-48,-53,-68
-9,39,48,-14,-29,43,-24,-39,-48,-48,-53,-68
-19,29,48,-4,-34,39,-24,-39,-48,-48,-48,-58
-34,24,58,4,-46,41,-24,-39,-48,-48,-48,-58
-43,24,68,9,-56,46,-14,-39,-48,-53,-43,-58
-48,29,78,9,-63,53,-14,-39,-48,-58,-39,-58
-14,39,53,-12,-34,46,-29,-48,-58,-68,-53,-68
-4,39,43,-17,-24,41,-39,-58,-58,-68,-53,-73
4,39,34,-21,-14,36,-48,-58,-58,-68,-58,-73
4,39,34,-21,-14,36,-53,-58,-53,-68,-58,-78
-14,39,53,-12,-34,46,-34,-48,-43,-58,-48,-78
-19,34,53,-7,-36,43,-29,-43,-43,-58,-48,-78
-19,34,53,-7,-36,43,-29,-39,-43,-58,-48,-78
-24,34,58,-4,-41,46,-24,-29,-43,-58,-48,-73
-14,43,58,-14,-36,51,-14,-39,-39,-58,-58,-82
-14,43,58,-14,-36,51,-14,-39,-39,-58,-58,-82
-14,43,58,-14,-36,51,-9,-39,-43,-63,-58,-82
-4,39,43,-17,-24,41,-4,-39,-43,-63,-58,-82
-9,39,48,-14,-29,43,-4,-29,-34,-53,-53,-68
-14,39,53,-12,-34,46,-4,-29,-19,-48,-48,-73
-19,29,48,-4,-34,39,-4,-29,-24,-48,-53,-73
-24,29,53,-2,-39,41,-4,-29,-19,-48,-48,-68
39,68,29,-53,4,48,-14,0,9,-19,-29,-48
24,34,9,-29,7,21,-19,-9,-9,-34,-53,-68
14,4,-9,-9,12,-2,-9,-9,-14,-43,-53,-73
29,24,-4,-26,17,9,14,9,4,-24,-43,-63
48,29,-19,-39,34,4,29,39,29,-9,-29,-48
43,14,-29,-29,36,-7,29,48,39,-9,-29,-48
39,9,-29,-24,34,-9,29,48,39,-9,-29,-48
34,4,-29,-19,31,-12,29,48,39,-9,-29,-48
29,0,-29,-14,29,-14,29,48,39,-9,-29,-48
19,-4,-24,-7,21,-14,19,43,34,-14,-19,-48
19,-19,-39,0,29,-29,19,48,24,-14,-29,-53
9,-24,-34,7,21,-29,24,53,24,-14,-29,-53
9,-24,-34,7,21,-29,29,58,24,-14,-29,-53
4,-9,-14,2,9,-12,39,73,24,-14,-29,-43
0,-9,-9,4,4,-9,43,73,24,-14,-29,-43
0,-9,-9,4,4,-9,48,73,24,-19,-34,-48
19,-4,-24,-7,21,-14,53,78,19,-19,-34,-53
34,4,-29,-19,31,-12,43,68,19,-29,-43,-63
39,0,-39,-19,39,-19,43,73,19,-29,-43,-58
53,0,-53,-26,53,-26,39,68,24,-24,-43,-58
63,4,-58,-34,61,-26,34,68,24,-24,-39,-53
63,4,-58,-34,61,-26,43,82,34,-14,-29,-43
63,4,-58,-34,61,-26,43,87,34,-19,-29,-43
63,4,-58,-34,61,-26,43,92,29,-19,-29,-43
58,-9,-68,-24,63,-39,29,92,19,-29,-43,-48
48,-19,-68,-14,58,-43,19,87,14,-24,-39,-48
24,-19,-43,-2,34,-31,4,68,0,-29,-34,-53
4,-19,-24,7,14,-21,-4,43,-9,-39,-43,-58
-19,-29,-9,24,-4,-19,-14,19,-29,-58,-58,-68
-14,-43,-29,29,7,-36,-39,-29,-63,-82,-73,-82
-4,-39,-34,21,14,-36,-63,-48,-87,-92,-92,-92
9,-43,-53,17,31,-48,-73,-58,-102,-102,-102,-97
4,-48,-53,21,29,-51,-73,-63,-112,-107,-107,-97
-9,-39,-29,24,9,-34,-63,-53,-102,-92,-87,-78
-14,-34,-19,24,2,-26,-63,-53,-92,-87,-82,-78
-19,-34,-14,26,-2,-24,-58,-43,-87,-82,-78,-78
-14,-29,-14,21,0,-21,-53,-43,-87,-78,-78,-68
4,-19,-24,7,14,-21,-58,-53,-87,-82,-82,-78
14,-14,-29,0,21,-21,-53,-58,-92,-87,-82,-78
19,-14,-34,-2,26,-24,-53,-58,-92,-92,-82,-78
29,-9,-39,-9,34,-24,-53,-58,-92,-97,-82,-78
24,0,-24,-12,24,-12,-53,-53,-92,-97,-68,-78
24,9,-14,-17,19,-2,-53,-53,-92,-92,-68,-78
9,9,0,-9,4,4,-48,-53,-87,-82,-63,-78
4,14,9,-9,-2,12,-48,-53,-82,-82,-63,-78
9,34,24,-21,-7,29,-53,-53,-78,-78,-63,-78
24,34,9,-29,7,21,-53,-58,-78,-78,-63,-73
14,34,19,-24,-2,26,-53,-68,-78,-78,-68,-78
4,24,19,-14,-7,21,-53,-73,-78,-82,-82,-82
-4,34,39,-14,-21,36,-34,-63,-58,-73,-82,-82
-14,34,48,-9,-31,41,-34,-63,-68,-78,-82,-87
-34,19,53,7,-43,36,-24,-63,-73,-92,-92,-92
-39,19,58,9,-48,39,-24,-63,-73,-92,-97,-97
-43,14,58,14,-51,36,-14,-58,-63,-82,-97,-97
-43,19,63,12,-53,41,-19,-48,-58,-82,-92,-97
-48,14,63,17,-56,39,-19,-43,-58,-82,-92,-107
-68,-4,63,36,-65,29,-24,-48,-58,-82,-97,-107
-58,4,63,26,-61,34,-24,-48,-58,-82,-97,-102
-48,9,58,19,-53,34,-24,-43,-58,-78,-87,-102
-48,29,78,9,-63,53,-24,-43,-58,-78,-87,-102
-48,19,68,14,-58,43,-14,-43,-58,-78,-92,-102
-48,9,58,19,-53,34,-14,-58,-68,-92,-97,-102
-43,4,48,19,-46,26,-14,-63,-68,-97,-102,-107
-29,0,29,14,-29,14,-14,-68,-68,-97,-102,-107
-39,0,39,19,-39,19,-19,-73,-68,-92,-97,-107
-43,4,48,19,-46,26,-19,-68,-58,-92,-87,-107
-43,9,53,17,-48,31,-19,-68,-58,-92,-87,-102
-43,14,58,14,-51,36,-19,-63,-58,-92,-87,-102
-43,19,63,12,-53,41,-19,-53,-58,-92,-87,-102
-39,29,68,4,-53,48,-24,-63,-58,-92,-97,-102
-29,29,58,0,-43,43,-24,-63,-58,-92,-97,-107
-29,24,53,2,-41,39,-24,-63,-53,-92,-97,-107
-34,24,58,4,-46,41,-24,-63,-53,-92,-97,-107
-34,9,43,12,-39,26,-29,-63,-58,-97,-102,-112
-34,4,39,14,-36,21,-34,-63,-63,-102,-107,-112
-48,-4,43,26,-46,19,-48,-63,-68,-107,-112,-112
-48,-9,39,29,-43,14,-39,-63,-73,-112,-117,-112
-63,4,68,29,-65,36,0,-63,-63,-92,-97,-102
-78,-4,73,41,-75,34,-4,-63,-63,-102,-107,-112
-78,-4,73,41,-75,34,-14,-58,-53,-102,-97,-112
-58,-9,48,34,-53,19,-9,-48,-48,-87,-92,-107
-34,0,34,17,-34,17,9,-19,-34,-68,-82,-97
-14,14,29,0,-21,21,24,9,-9,-39,-58,-78
-14,34,48,-9,-31,41,19,29,19,0,-29,-58
-39,43,82,-2,-61,63,34,39,53,43,-4,-58
-48,68,117,-9,-82,92,53,68,102,102,39,-29
-24,122,146,-48,-85,134,53,87,136,175,122,34
14,185,170,-100,-78,178,34,82,151,234,214,112
29,219,190,-124,-80,204,14,73,161,287,307,185
34,214,180,-124,-73,197,4,92,170,341,385,248
78,204,126,-141,-24,165,-4,107,190,390,444,312
131,209,78,-170,26,143,-4,117,200,429,512,390
170,209,39,-190,65,124,-14,107,190,453,585,483
209,185,-24,-197,117,80,-58,68,146,439,614,546
239,209,-29,-224,134,90,-112,-4,97,405,624,570
214,229,14,-222,100,122,-102,-53,87,400,619,561
151,190,39,-170,56,114,-24,-14,165,419,566,488
63,112,48,-87,7,80,29,14,219,366,409,322
-39,107,146,-34,-92,126,34,-4,229,239,180,97
-131,117,248,7,-190,183,82,29,307,122,-63,-136
-219,87,307,65,-263,197,175,117,458,43,-302,-370
-292,87,380,102,-336,234,283,204,575,-78,-517,-566
-351,92,444,129,-397,268,375,283,688,-136,-639,-673
-390,78,468,156,-429,273,468,356,810,-146,-692,-732
-385,58,444,163,-414,251,517,400,810,-258,-761,-795
-385,58,444,163,-414,251,527,390,688,-409,-800,-800
-400,24,424,187,-412,224,507,385,556,-497,-790,-790
-400,-29,370,214,-385,170,502,434,473,-527,-785,-775
-385,-58,326,222,-356,134,531,512,453,-527,-751,-741
-370,-87,283,229,-326,97,556,561,419,-517,-712,-692
-370,-107,263,239,-317,78,546,551,292,-522,-683,-668
-356,-136,219,246,-287,41,517,551,165,-522,-658,-634
-336,-161,175,248,-256,7,517,566,112,-502,-614,-595
-302,-180,122,241,-212,-29,497,556,39,-492,-570,-566
-253,-170,82,212,-168,-43,434,497,-78,-512,-541,-536
-219,-175,43,197,-131,-65,356,439,-190,-522,-507,-492
-204,-219,-14,212,-95,-117,302,429,-239,-502,-468,-444
-180,-229,-48,204,-65,-139,263,419,-248,-468,-434,-395
-146,-200,-53,173,-46,-126,224,366,-258,-429,-395,-346
-141,-190,-48,165,-46,-119,209,317,-258,-385,-356,-312
-161,-200,-39,180,-61,-119,214,283,-248,-361,-331,-292
-161,-185,-24,173,-68,-104,190,234,-229,-326,-302,-273
-117,-126,-9,122,-53,-68,117,161,-204,-273,-234,-229
-68,-63,4,65,-36,-29,58,92,-180,-224,-190,-190
-34,-58,-24,46,-4,-41,39,63,-151,-200,-165,-170
-53,-48,4,51,-29,-21,43,43,-122,-165,-146,-156
-68,-24,43,46,-56,9,24,34,-112,-141,-131,-141
-48,-9,39,29,-43,14,4,24,-97,-117,-131,-136
-19,9,29,4,-24,19,4,4,-73,-107,-122,-126
4,34,29,-19,-12,31,14,-19,-58,-92,-102,-107
9,53,43,-31,-17,48,24,-24,-58,-82,-78,-97
0,48,48,-24,-24,48,4,-24,-58,-78,-82,-87
-9,39,48,-14,-29,43,0,-34,-68,-82,-82,-97
-19,24,43,-2,-31,34,-4,-53,-73,-92,-87,-97
-19,14,34,2,-26,24,-4,-63,-78,-97,-87,-97
-24,14,39,4,-31,26,-19,-63,-78,-97,-87,-97
-24,14,39,4,-31,26,-19,-53,-78,-92,-87,-92
-19,24,43,-2,-31,34,-14,-43,-63,-87,-82,-87
-14,24,39,-4,-26,31,-14,-43,-58,-78,-73,-82
-24,24,48,0,-36,36,-24,-43,-48,-68,-58,-82
-24,29,53,-2,-39,41,-29,-48,-53,-73,-68,-82
-19,39,58,-9,-39,48,-29,-53,-53,-78,-68,-87
-14,29,43,-7,-29,36,-39,-68,-63,-82,-78,-87
-14,39,53,-12,-34,46,-29,-82,-68,-92,-87,-87
-14,34,48,-9,-31,41,-29,-82,-68,-92,-87,-82
-14,34,48,-9,-31,41,-24,-78,-68,-92,-87,-82
-4,34,39,-14,-21,36,-14,-73,-63,-92,-73,-78
0,39,39,-19,-19,39,-9,-48,-48,-78,-58,-68
-19,39,58,-9,-39,48,-14,-43,-48,-73,-48,-68
-43,34,78,4,-61,56,-29,-48,-48,-73,-43,-68
-53,34,87,9,-70,61,-34,-48,-48,-68,-48,-68
-43,43,87,0,-65,65,-24,-58,-53,-78,-58,-63
-43,43,87,0,-65,65,-24,-58,-53,-78,-58,-63
-39,43,82,-2,-61,63,-14,-58,-58,-78,-58,-63
-39,43,82,-2,-61,63,-4,-58,-58,-78,-58,-63
-29,34,63,-2,-46,48,-14,-68,-58,-82,-53,-68
-19,39,58,-9,-39,48,-24,-73,-58,-87,-53,-68
-4,39,43,-17,-24,41,-39,-78,-63,-87,-58,-68
4,39,34,-21,-14,36,-48,-82,-68,-92,-73,-68
14,48,34,-31,-9,41,-48,-87,-73,-87,-63,-68
14,48,34,-31,-9,41,-53,-87,-78,-87,-63,-68
19,48,29,-34,-4,39,-53,-92,-82,-87,-63,-68
34,48,14,-41,9,31,-53,-92,-82,-87,-63,-68
29,48,19,-39,4,34,-48,-87,-68,-78,-53,-58
24,53,29,-39,-2,41,-48,-78,-63,-78,-48,-58
29,63,34,-46,-2,48,-48,-73,-63,-78,-48,-48
19,73,53,-46,-17,63,-48,-73,-63,-78,-48,-48
-9,58,68,-24,-39,63,-58,-87,-68,-78,-58,-58
-14,48,63,-17,-39,56,-58,-87,-73,-78,-58,-58
-19,43,63,-12,-41,53,-58,-82,-73,-78,-58,-48
-29,39,68,-4,-48,53,-63,-78,-73,-73,-53,-48
-19,43,63,-12,-41,53,-53,-78,-78,-82,-48,-48
-9,48,58,-19,-34,53,-43,-78,-78,-82,-48,-48
4,48,43,-26,-19,46,-53,-78,-78,-82,-48,-48
19,53,34,-36,-7,43,-63,-87,-82,-82,-48,-48
19,68,48,-43,-14,58,-78,-92,-73,-87,-39,-39
19,68,48,-43,-14,58,-78,-97,-78,-87,-43,-39
19,68,48,-43,-14,58,-82,-97,-82,-82,-43,-39
29,68,39,-48,-4,53,-82,-92,-82,-82,-34,-29
34,58,24,-46,4,41,-73,-92,-87,-82,-43,-29
34,63,29,-48,2,46,-73,-102,-82,-82,-34,-24
24,63,39,-43,-7,51,-68,-102,-82,-82,-34,-24
19,63,43,-41,-12,53,-68,-97,-87,-73,-34,-24
24,63,39,-43,-7,51,-82,-97,-87,-73,-29,-29
34,73,39,-53,-2,56,-92,-97,-87,-73,-29,-29
48,73,24,-61,12,48,-92,-97,-92,-73,-29,-24
43,73,29,-58,7,51,-92,-102,-92,-73,-19,-19
39,63,24,-51,7,43,-82,-92,-78,-58,-4,-4
39,63,24,-51,7,43,-82,-87,-78,-53,-4,0
43,63,19,-53,12,41,-87,-87,-78,-53,0,0
29,68,39,-48,-4,53,-87,-87,-78,-43,4,9
29,63,34,-46,-2,48,-97,-102,-78,-53,4,0
29,63,34,-46,-2,48,-97,-117,-82,-53,4,4
34,63,29,-48,2,46,-97,-117,-87,-53,9,4
39,68,29,-53,4,48,-97,-112,-87,-43,19,9
29,58,29,-43,0,43,-97,-102,-82,-34,39,19
9,58,48,-34,-19,53,-97,-102,-82,-29,43,29
0,63,63,-31,-31,63,-92,-97,-82,-9,48,53
0,78,78,-39,-39,78,-92,-97,-82,-4,53,58
34,73,39,-53,-2,56,-117,-117,-92,-9,48,53
53,78,24,-65,14,51,-122,-117,-92,-9,53,53
92,82,-9,-87,51,36,-126,-126,-97,-9,53,58
107,92,-14,-100,61,39,-131,-126,-97,-14,58,63
102,102,0,-102,51,51,-136,-117,-87,0,73,73
97,112,14,-104,41,63,-136,-117,-82,19,82,87
97,122,24,-109,36,73,-136,-117,-78,29,97,97
97,126,29,-112,34,78,-141,-117,-78,34,102,112
92,126,34,-109,29,80,-131,-107,-73,53,122,112
87,126,39,-107,24,82,-141,-112,-68,63,131,117
82,131,48,-107,17,90,-146,-112,-68,73,136,122
92,136,43,-114,24,90,-165,-112,-68,78,146,131
117,131,14,-124,51,73,-175,-126,-63,78,151,146
126,126,0,-126,63,63,-175,-131,-63,92,161,156
136,131,-4,-134,70,63,-175,-136,-68,107,165,165
151,136,-14,-143,82,61,-175,-141,-63,117,170,175
151,141,-9,-146,80,65,-185,-126,-43,136,185,185
151,141,-9,-146,80,65,-195,-122,-29,151,204,200
146,146,0,-146,73,73,-204,-112,-14,165,224,214
146,151,4,-148,70,78,-209,-107,0,180,234,219
156,165,9,-161,73,87,-195,-112,4,185,234,224
170,175,4,-173,82,90,-190,-117,4,195,239,224
185,185,0,-185,92,92,-195,-117,9,209,244,224
190,190,0,-190,95,95,-190,-122,19,224,253,234
190,180,-9,-185,100,85,-195,-107,19,229,248,229
190,185,-4,-187,97,90,-195,-97,39,239,258,229
185,190,4,-187,90,97,-190,-92,58,258,268,234
185,204,19,-195,82,112,-190,-87,73,273,273,244
175,200,24,-187,75,112,-200,-78,87,283,283,253
175,204,29,-190,73,117,-204,-73,87,292,283,253
175,209,34,-192,70,122,-204,-73,97,307,287,253
175,224,48,-200,63,136,-200,-73,107,322,287,253
180,234,53,-207,63,143,-200,-78,107,331,292,253
190,229,39,-209,75,134,-195,-78,117,326,292,258
200,229,29,-214,85,129,-195,-68,117,331,302,258
180,224,43,-202,68,134,-195,-68,122,331,307,258
165,229,63,-197,51,146,-185,-58,136,346,307,258
161,229,68,-195,46,148,-180,-53,141,351,302,253
156,229,73,-192,41,151,-180,-48,141,351,297,244
141,229,87,-185,26,158,-180,-39,146,346,292,234
156,229,73,-192,41,151,-185,-39,151,331,283,224
141,229,87,-185,26,158,-170,-34,165,331,268,214
141,219,78,-180,31,148,-165,-29,165,326,263,195
141,219,78,-180,31,148,-165,-24,165,312,248,170
151,219,68,-185,41,143,-161,-24,165,302,234,161
151,219,68,-185,41,143,-151,-14,161,283,224,146
156,214,58,-185,48,136,-141,-14,151,273,209,126
146,209,63,-178,41,136,-131,-9,146,253,185,117
122,200,78,-161,21,139,-131,4,156,244,175,107
92,170,78,-131,7,124,-126,4,146,219,151,92
78,170,92,-124,-7,131,-107,9,146,200,131,78
58,161,102,-109,-21,131,-92,9,146,180,122,63
39,136,97,-87,-29,117,-78,4,131,165,102,39
24,136,112,-80,-43,124,-63,4,117,146,87,29
19,131,112,-75,-46,122,-58,0,107,126,78,14
24,131,107,-78,-41,119,-53,-4,92,107,63,4
19,122,102,-70,-41,112,-58,4,82,87,48,0
24,112,87,-68,-31,100,-63,-4,68,68,39,-14
24,112,87,-68,-31,100,-63,-9,58,53,24,-24
24,102,78,-63,-26,90,-63,-9,43,39,19,-29
14,82,68,-48,-26,75,-48,0,48,34,4,-34
4,73,68,-39,-31,70,-39,-4,43,24,0,-39
-14,63,78,-24,-46,70,-34,-4,39,14,-14,-39
-34,58,92,-12,-63,75,-29,-4,39,9,-14,-39
-14,68,82,-26,-48,75,-19,-9,29,-4,-24,-53
-4,68,73,-31,-39,70,-19,-24,14,-19,-34,-68
9,73,63,-41,-26,68,-19,-29,9,-29,-48,-78
19,78,58,-48,-19,68,-14,-34,9,-39,-48,-82
14,68,53,-41,-19,61,-14,-34,-4,-48,-58,-92
9,58,48,-34,-19,53,-34,-39,-4,-58,-68,-92
9,53,43,-31,-17,48,-43,-39,-14,-58,-68,-97
9,48,39,-29,-14,43,-48,-39,-14,-58,-68,-97
0,39,39,-19,-19,39,-43,-39,-29,-73,-68,-102
-4,34,39,-14,-21,36,-39,-39,-29,-73,-78,-102
-9,34,43,-12,-26,39,-34,-39,-29,-73,-78,-102
-29,34,63,-2,-46,48,-14,-39,-29,-78,-78,-102
-39,19,58,9,-48,39,-14,-39,-24,-73,-78,-102
-29,19,48,4,-39,34,-14,-34,-24,-73,-78,-102
-29,29,58,0,-43,43,-19,-34,-24,-73,-73,-97
-29,29,58,0,-43,43,-24,-34,-24,-73,-73,-97
-19,29,48,-4,-34,39,-19,-24,-24,-68,-63,-87
-19,24,43,-2,-31,34,-19,-24,-24,-68,-63,-87
-24,24,48,0,-36,36,-14,-24,-24,-73,-63,-87
-24,24,48,0,-36,36,-14,-24,-24,-73,-63,-92
-14,39,53,-12,-34,46,-19,-24,-19,-73,-78,-102
-9,48,58,-19,-34,53,-19,-29,-19,-73,-78,-102
4,58,53,-31,-24,56,-19,-29,-19,-73,-73,-102
9,63,53,-36,-21,58,-24,-29,-24,-73,-68,-97
0,43,43,-21,-21,43,-29,-29,-29,-73,-68,-107
-9,34,43,-12,-26,39,-29,-29,-29,-73,-68,-107
-19,24,43,-2,-31,34,-34,-24,-29,-73,-68,-107
-29,14,43,7,-36,29,-39,-24,-29,-73,-68,-107
-19,19,39,0,-29,29,-43,-24,-29,-73,-68,-102
-24,9,34,7,-29,21,-43,-34,-34,-78,-68,-102
-24,14,39,4,-31,26,-39,-34,-34,-78,-68,-102
-19,29,48,-4,-34,39,-34,-34,-29,-73,-68,-102
-14,34,48,-9,-31,41,-34,-39,-29,-73,-68,-102
-9,34,43,-12,-26,39,-34,-39,-29,-73,-68,-102
-9,34,43,-12,-26,39,-34,-39,-29,-73,-68,-102
-4,39,43,-17,-24,41,-29,-39,-34,-73,-68,-102
0,48,48,-24,-24,48,-39,-34,-29,-58,-53,-87
0,58,58,-29,-29,58,-39,-29,-24,-53,-48,-87
4,68,63,-36,-29,65,-39,-24,-19,-43,-43,-82
4,73,68,-39,-31,70,-39,-24,-19,-39,-39,-73
0,48,48,-24,-24,48,-34,-24,-19,-48,-43,-82
-4,43,48,-19,-26,46,-39,-29,-24,-48,-43,-78
-9,39,48,-14,-29,43,-39,-29,-24,-48,-39,-78
-14,34,48,-9,-31,41,-39,-29,-24,-48,-39,-73
-4,29,34,-12,-19,31,-39,-39,-29,-48,-39,-73
0,29,29,-14,-14,29,-34,-39,-29,-48,-39,-68
9,34,24,-21,-7,29,-29,-39,-34,-48,-34,-68
14,39,24,-26,-4,31,-24,-39,-39,-48,-34,-68
14,39,24,-26,-4,31,-29,-39,-34,-48,-43,-78
4,34,29,-19,-12,31,-34,-39,-34,-53,-43,-73
4,29,24,-17,-9,26,-39,-39,-34,-58,-48,-73
4,29,24,-17,-9,26,-43,-43,-34,-63,-48,-73
0,19,19,-9,-9,19,-34,-43,-29,-53,-39,-78
-4,19,24,-7,-14,21,-39,-43,-29,-53,-39,-78
-4,19,24,-7,-14,21,-39,-43,-29,-53,-39,-78
-9,19,29,-4,-19,24,-39,-43,-29,-53,-39,-78
-9,24,34,-7,-21,29,-43,-43,-39,-63,-48,-87
9,29,19,-19,-4,24,-43,-43,-34,-63,-48,-87
19,34,14,-26,2,24,-48,-43,-34,-63,-48,-82
24,39,14,-31,4,26,-53,-43,-39,-63,-48,-82
14,34,19,-24,-2,26,-48,-34,-29,-58,-39,-73
4,34,29,-19,-12,31,-43,-34,-29,-53,-39,-73
0,29,29,-14,-14,29,-48,-34,-29,-48,-34,-68
-9,24,34,-7,-21,29,-43,-34,-29,-48,-34,-68
0,34,34,-17,-17,34,-48,-29,-29,-58,-39,-73
-9,39,48,-14,-29,43,-48,-29,-29,-58,-39,-78
-9,39,48,-14,-29,43,-43,-29,-29,-58,-43,-78
-9,39,48,-14,-29,43,-43,-29,-29,-58,-43,-78
-19,39,58,-9,-39,48,-48,-19,-19,-48,-43,-87
-24,34,58,-4,-41,46,-53,-19,-19,-48,-48,-87
-24,34,58,-4,-41,46,-48,-19,-19,-53,-48,-87
-19,39,58,-9,-39,48,-53,-19,-19,-58,-48,-87
0,29,29,-14,-14,29,-48,-24,-24,-68,-53,-78
4,29,24,-17,-9,26,-48,-39,-29,-68,-53,-82
9,29,19,-19,-4,24,-48,-43,-34,-68,-58,-82
4,29,24,-17,-9,26,-43,-48,-34,-68,-58,-87
-4,29,34,-12,-19,31,-34,-34,-24,-58,-53,-78
0,24,24,-12,-12,24,-29,-34,-24,-58,-48,-78
9,24,14,-17,-2,19,-29,-34,-24,-58,-43,-78
14,24,9,-19,2,17,-24,-29,-24,-58,-39,-73
-4,34,39,-14,-21,36,-24,-19,0,-48,-34,-68
-14,34,48,-9,-31,41,-24,-9,9,-39,-29,-63
-24,34,58,-4,-41,46,-19,0,14,-34,-24,-58
-24,29,53,-2,-39,41,-14,9,24,-24,-19,-53
-14,29,43,-7,-29,36,-14,29,29,-19,-19,-53
-24,0,24,12,-24,12,-4,39,39,-9,-19,-53
-29,0,29,14,-29,14,19,48,48,0,-9,-39
0,-9,-9,4,4,-9,4,43,34,-14,-19,-43
29,-9,-39,-9,34,-24,0,39,29,-19,-19,-48
58,-9,-68,-24,63,-39,-4,34,24,-24,-19,-53
87,-9,-97,-39,92,-53,-9,29,19,-29,-19,-58
82,-9,-92,-36,87,-51,0,34,19,-34,-19,-58
78,-19,-97,-29,87,-58,0,39,14,-34,-29,-63
63,-19,-82,-21,73,-51,4,43,19,-34,-29,-63
58,-14,-73,-21,65,-43,9,48,24,-34,-29,-63
43,-4,-48,-19,46,-26,14,58,34,-29,-24,-53
39,0,-39,-19,39,-19,14,63,34,-24,-19,-53
39,4,-34,-21,36,-14,14,68,34,-24,-19,-58
58,14,-43,-36,51,-14,14,78,29,-19,-14,-63
48,0,-48,-24,48,-24,24,78,19,-34,-29,-68
48,-9,-58,-19,53,-34,24,82,19,-39,-34,-68
58,-14,-73,-21,65,-43,19,78,24,-39,-39,-73
63,-14,-78,-24,70,-46,14,78,24,-43,-39,-73
58,-19,-78,-19,68,-48,14,82,24,-39,-29,-63
53,-24,-78,-14,65,-51,14,87,24,-39,-29,-63
48,-29,-78,-9,63,-53,14,92,19,-34,-29,-63
39,-48,-87,4,63,-68,0,92,9,-39,-43,-68
53,-29,-82,-12,68,-56,-19,78,4,-39,-34,-58
43,-19,-63,-12,53,-41,-34,58,-9,-48,-34,-63
39,-9,-48,-14,43,-29,-43,34,-19,-63,-48,-68
29,-9,-39,-9,34,-24,-53,9,-39,-87,-68,-78
19,-34,-53,7,36,-43,-48,-29,-73,-112,-73,-87
14,-29,-43,7,29,-36,-63,-48,-87,-112,-82,-92
14,-34,-48,9,31,-41,-63,-58,-92,-112,-82,-92
-4,-39,-34,21,14,-36,-53,-63,-92,-107,-78,-87
-4,-39,-34,21,14,-36,-68,-53,-82,-102,-78,-87
-4,-34,-29,19,12,-31,-73,-53,-73,-97,-73,-87
-4,-34,-29,19,12,-31,-73,-43,-68,-92,-68,-87
4,-29,-34,12,19,-31,-73,-43,-68,-87,-68,-78
24,-24,-48,0,36,-36,-78,-48,-82,-97,-68,-82
24,-24,-48,0,36,-36,-73,-58,-92,-97,-73,-87
19,-29,-48,4,34,-39,-73,-63,-97,-97,-78,-92
19,-29,-48,4,34,-39,-73,-68,-102,-97,-82,-97
29,-14,-43,-7,36,-29,-78,-68,-87,-87,-73,-82
34,0,-34,-17,34,-17,-73,-63,-82,-82,-68,-78
24,4,-19,-14,21,-7,-63,-58,-73,-73,-58,-73
24,14,-9,-19,17,2,-58,-53,-63,-73,-53,-68
24,29,4,-26,9,17,-68,-48,-48,-68,-53,-73
34,34,0,-34,17,17,-63,-48,-48,-68,-53,-73
19,39,19,-29,0,29,-58,-53,-48,-68,-58,-82
4,34,29,-19,-12,31,-53,-53,-48,-73,-73,-92
14,24,9,-19,2,17,-48,-53,-48,-82,-82,-97
14,24,9,-19,2,17,-53,-53,-58,-87,-82,-107
4,9,4,-7,0,7,-48,-53,-63,-102,-92,-117
9,9,0,-9,4,4,-53,-53,-63,-102,-97,-126
4,0,-4,-2,4,-2,-39,-43,-53,-97,-92,-112
4,9,4,-7,0,7,-39,-39,-48,-92,-82,-107
0,9,9,-4,-4,9,-34,-39,-48,-87,-78,-112
-19,-4,14,12,-17,4,-34,-48,-48,-82,-78,-107
-34,-14,19,24,-26,2,-34,-53,-58,-92,-87,-112
-29,-9,19,19,-24,4,-34,-53,-58,-87,-78,-112
-34,9,43,12,-39,26,-34,-58,-58,-87,-78,-112
-39,0,39,19,-39,19,-24,-63,-58,-87,-82,-112
-53,-9,43,31,-48,17,-24,-63,-48,-92,-87,-112
-53,-14,39,34,-46,12,-24,-63,-48,-97,-92,-117
-43,-19,24,31,-34,2,-24,-63,-48,-97,-92,-117
-58,-19,39,39,-48,9,-29,-63,-48,-92,-87,-117
-48,-14,34,31,-41,9,-43,-53,-48,-92,-87,-117
-43,-9,34,26,-39,12,-48,-58,-48,-92,-87,-112
-39,-4,34,21,-36,14,-53,-58,-48,-92,-87,-112
-34,0,34,17,-34,17,-58,-53,-48,-92,-87,-112
-19,19,39,0,-29,29,-39,-58,-48,-82,-87,-112
-9,19,29,-4,-19,24,-34,-63,-48,-82,-87,-117
-9,14,24,-2,-17,19,-29,-68,-43,-82,-87,-117
-14,14,29,0,-21,21,-24,-73,-43,-82,-87,-117
-34,14,48,9,-41,31,-24,-68,-43,-82,-78,-102
-43,14,58,14,-51,36,-24,-63,-43,-82,-78,-102
-68,9,78,29,-73,43,-34,-58,-43,-82,-78,-102
-78,9,87,34,-82,48,-19,-53,-43,-82,-78,-102
-53,14,68,19,-61,41,0,-34,-34,-63,-58,-92
-29,-4,24,17,-26,9,-4,-43,-43,-73,-68,-102
-19,-24,-4,21,-7,-14,-14,-48,-43,-82,-87,-102
0,-19,-19,9,9,-19,-29,-48,-39,-78,-73,-97
-14,-19,-4,17,-4,-12,-29,-29,-24,-58,-63,-87
-14,-14,0,14,-7,-7,-14,0,-19,-39,-48,-78
14,24,9,-19,2,17,0,19,9,-9,-19,-68
19,43,24,-31,-2,34,4,19,53,34,-4,-68
-19,29,48,-4,-34,39,-4,29,92,82,29,-58
-4,73,78,-34,-41,75,-4,68,117,156,112,4
73,165,92,-119,-9,129,14,102,151,244,224,112
107,200,92,-153,7,146,4,92,151,307,317,195
92,175,82,-134,4,129,-14,92,161,341,375,239
117,195,78,-156,19,136,-4,107,190,400,444,302
151,209,58,-180,46,134,4,126,219,448,531,380
170,170,0,-170,85,85,-14,107,190,444,575,453
200,165,-34,-183,117,65,-68,68,146,429,605,507
200,190,-9,-195,104,90,-102,4,97,414,634,561
136,200,63,-168,36,131,-92,-53,78,400,639,561
102,161,58,-131,21,109,-63,-63,107,380,566,478
102,141,39,-122,31,90,-39,-53,161,356,439,341
78,185,107,-131,-14,146,-24,-43,200,278,229,146
-24,195,219,-85,-122,207,4,-9,268,170,-4,-87
-180,117,297,31,-239,207,87,68,390,82,-244,-331
-292,78,370,107,-331,224,204,156,517,-19,-458,-536
-312,102,414,104,-363,258,307,234,629,-107,-590,-644
-331,117,448,107,-390,283,390,326,780,-117,-644,-692
-356,107,463,124,-409,285,458,409,849,-161,-683,-736
-366,97,463,134,-414,280,478,409,766,-312,-732,-761
-380,73,453,153,-417,263,458,366,614,-419,-751,-761
-390,9,400,190,-395,204,444,366,502,-448,-736,-746
-385,-39,346,212,-366,153,473,463,453,-458,-702,-722
-341,-58,283,200,-312,112,497,551,429,-458,-673,-683
-312,-87,224,200,-268,68,517,580,341,-473,-644,-639
-297,-117,180,207,-239,31,517,570,204,-492,-610,-614
-287,-141,146,214,-217,2,497,566,112,-483,-575,-575
-273,-161,112,217,-192,-24,468,556,48,-473,-531,-536
-244,-161,82,202,-163,-39,424,497,-68,-492,-502,-517
-219,-175,43,197,-131,-65,356,409,-209,-512,-497,-492
-214,-229,-14,222,-100,-122,292,361,-297,-512,-478,-463
-161,-248,-87,204,-36,-168,253,361,-307,-478,-444,-424
-87,-229,-141,158,26,-185,204,346,-287,-439,-414,-395
-73,-229,-156,151,41,-192,161,287,-297,-424,-385,-361
-102,-229,-126,165,12,-178,146,234,-297,-400,-361,-331
-92,-195,-102,143,4,-148,161,234,-258,-366,-312,-292
-48,-156,-107,102,29,-131,136,209,-214,-292,-244,-239
-29,-112,-82,70,26,-97,68,122,-190,-234,-190,-190
-24,-87,-63,56,19,-75,29,63,-170,-180,-156,-170
-14,-58,-43,36,14,-51,24,63,-141,-146,-126,-146
0,-43,-43,21,21,-43,4,43,-122,-131,-112,-141
-19,-39,-19,29,0,-29,4,24,-97,-117,-112,-136
-48,-48,0,48,-24,-24,14,24,-73,-97,-102,-126
-63,-43,19,53,-41,-12,24,19,-48,-73,-73,-107
-58,-14,43,36,-51,14,24,4,-19,-53,-39,-68
-43,-9,34,26,-39,12,19,9,-9,-34,-24,-58
-48,-9,39,29,-43,14,19,4,-19,-34,-24,-68
-53,-14,39,34,-46,12,19,-9,-24,-39,-29,-68
-48,-14,34,31,-41,9,24,-14,-29,-39,-29,-68
-29,-24,4,26,-17,-9,0,-29,-39,-48,-39,-73
-14,-24,-9,19,-2,-17,-9,-24,-48,-53,-48,-73
4,-14,-19,4,12,-17,-14,-19,-43,-58,-53,-73
24,-14,-39,-4,31,-26,-24,-24,-48,-58,-53,-73
19,-9,-29,-4,24,-19,-24,-34,-39,-53,-24,-53
14,0,-14,-7,14,-7,-29,-39,-43,-53,-29,-53
14,14,0,-14,7,7,-29,-43,-43,-53,-24,-58
14,9,-4,-12,9,2,-39,-58,-53,-53,-29,-58
9,4,-4,-7,7,0,-34,-53,-58,-53,-39,-68
4,-4,-9,0,7,-7,-29,-53,-58,-53,-39,-63
0,-9,-9,4,4,-9,-19,-48,-58,-53,-39,-63
4,-14,-19,4,12,-17,-4,-43,-53,-53,-24,-58
9,-9,-19,0,14,-14,0,-34,-48,-43,-24,-58
0,-9,-9,4,4,-9,-4,-34,-48,-43,-19,-58
-14,-14,0,14,-7,-7,-19,-43,-48,-48,-19,-58
-14,-14,0,14,-7,-7,-24,-48,-48,-48,-29,-58
-9,-14,-4,12,-2,-9,-24,-48,-43,-48,-29,-43
-4,-14,-9,9,2,-12,-34,-48,-43,-48,-29,-43
4,-14,-19,4,12,-17,-34,-48,-48,-48,-29,-43
9,-14,-24,2,17,-19,-34,-48,-48,-48,-29,-43
24,-9,-34,-7,29,-21,-43,-53,-48,-58,-29,-48
29,0,-29,-14,29,-14,-43,-53,-48,-58,-24,-48
39,4,-34,-21,36,-14,-48,-53,-53,-53,-24,-48
43,9,-34,-26,39,-12,-48,-53,-58,-53,-34,-48
19,-4,-24,-7,21,-14,-34,-53,-58,-48,-29,-34
-4,-9,-4,7,0,-7,-34,-48,-58,-48,-24,-29
-24,-14,9,19,-17,-2,-29,-48,-58,-48,-19,-24
-34,-19,14,26,-24,-2,-24,-43,-53,-48,-14,-19
-14,-19,-4,17,-4,-12,-29,-53,-58,-58,-24,-29
4,-14,-19,4,12,-17,-39,-48,-53,-58,-19,-29
34,-4,-39,-14,36,-21,-48,-48,-53,-58,-19,-19
48,4,-43,-26,46,-19,-58,-53,-53,-58,-19,-19
24,-4,-29,-9,26,-17,-48,-68,-58,-58,-19,-29
24,-9,-34,-7,29,-21,-48,-68,-63,-58,-19,-29
24,-9,-34,-7,29,-21,-48,-63,-63,-58,-19,-19
19,-9,-29,-4,24,-19,-53,-58,-63,-53,-14,-19
19,-4,-24,-7,21,-14,-63,-68,-68,-53,-19,-19
19,0,-19,-9,19,-9,-53,-68,-68,-53,-19,-19
24,0,-24,-12,24,-12,-63,-68,-68,-53,-19,-19
29,4,-24,-17,26,-9,-73,-78,-73,-53,-19,-19
24,4,-19,-14,21,-7,-73,-68,-58,-53,-14,-14
19,0,-19,-9,19,-9,-68,-68,-58,-48,-14,-9
14,-4,-19,-4,17,-12,-68,-63,-58,-39,-9,-4
19,-9,-29,-4,24,-19,-63,-53,-53,-34,4,9
39,0,-39,-19,39,-19,-53,-58,-53,-39,0,4
43,4,-39,-24,41,-17,-53,-73,-53,-43,4,4
39,4,-34,-21,36,-14,-48,-78,-58,-48,0,0
39,4,-34,-21,36,-14,-48,-78,-68,-43,-4,-4
48,14,-34,-31,41,-9,-63,-68,-68,-34,0,0
53,24,-29,-39,41,-2,-73,-68,-68,-34,0,0
63,24,-39,-43,51,-7,-73,-68,-73,-34,0,4
53,24,-29,-39,41,-2,-73,-73,-73,-34,9,9
39,4,-34,-21,36,-14,-73,-63,-68,-29,24,24
39,4,-34,-21,36,-14,-73,-58,-68,-24,24,29
43,4,-39,-24,41,-17,-78,-58,-68,-24,29,29
29,9,-19,-19,24,-4,-78,-58,-68,-14,34,39
48,14,-34,-31,41,-9,-78,-73,-78,-14,43,48
58,14,-43,-36,51,-14,-78,-87,-82,-14,43,53
73,14,-58,-43,65,-21,-78,-87,-87,-14,48,53
87,19,-68,-53,78,-24,-78,-82,-87,-4,58,58
68,9,-58,-39,63,-24,-92,-82,-82,-9,63,53
48,9,-39,-29,43,-14,-97,-82,-82,-9,63,58
39,14,-24,-26,31,-4,-97,-78,-82,4,63,78
39,29,-9,-34,24,9,-102,-78,-82,4,63,78
58,19,-39,-39,48,-9,-107,-87,-73,9,82,97
63,19,-43,-41,53,-12,-112,-87,-73,19,92,102
87,19,-68,-53,78,-24,-117,-97,-78,29,97,112
87,24,-63,-56,75,-19,-122,-97,-78,34,107,122
92,24,-68,-58,80,-21,-136,-97,-87,29,117,126
97,34,-63,-65,80,-14,-136,-97,-82,48,122,136
107,43,-63,-75,85,-9,-136,-97,-78,58,131,141
117,48,-68,-82,92,-9,-141,-97,-78,63,131,151
117,58,-58,-87,87,0,-131,-97,-63,73,151,151
117,58,-58,-87,87,0,-141,-102,-58,82,161,156
117,63,-53,-90,85,4,-146,-102,-58,92,165,161
131,68,-63,-100,97,2,-165,-102,-58,97,175,170
151,63,-87,-107,119,-12,-165,-107,-63,97,175,180
156,58,-97,-107,126,-19,-165,-112,-63,112,190,195
161,63,-97,-112,129,-17,-165,-117,-68,126,200,209
170,68,-102,-119,136,-17,-165,-122,-63,136,209,224
170,82,-87,-126,129,-2,-175,-112,-53,165,219,229
170,82,-87,-126,129,-2,-185,-112,-39,180,234,239
165,87,-78,-126,122,4,-195,-107,-24,195,248,248
165,92,-73,-129,119,9,-200,-107,-9,209,253,248
165,97,-68,-131,117,14,-185,-102,0,224,263,273
170,107,-63,-139,117,21,-180,-97,4,234,268,273
175,117,-58,-146,117,29,-185,-87,14,248,273,273
170,122,-48,-146,109,36,-180,-82,29,263,283,283
180,122,-58,-151,119,31,-185,-78,34,287,297,287
180,126,-53,-153,117,36,-185,-68,58,297,307,287
175,131,-43,-153,109,43,-180,-63,82,317,317,292
175,146,-29,-161,102,58,-180,-58,102,331,322,302
185,136,-48,-161,117,43,-195,-63,97,331,317,292
185,136,-48,-161,117,43,-204,-63,87,331,312,292
185,136,-48,-161,117,43,-209,-68,87,336,312,292
185,146,-39,-165,112,53,-209,-73,87,341,307,292
180,156,-24,-168,102,65,-200,-68,102,366,317,302
190,151,-39,-170,114,56,-195,-68,117,366,322,307
200,151,-48,-175,124,51,-195,-58,122,375,336,307
180,146,-34,-163,107,56,-195,-58,131,380,346,307
190,161,-29,-175,109,65,-195,-53,141,380,341,297
190,161,-29,-175,109,65,-190,-53,141,380,331,292
190,161,-29,-175,109,65,-190,-53,136,375,322,283
180,161,-19,-170,100,70,-190,-48,136,366,312,273
180,161,-19,-170,100,70,-180,-29,146,366,322,268
161,161,0,-161,80,80,-161,-24,165,370,307,263
156,151,-4,-153,80,73,-151,-19,170,370,302,248
151,151,0,-151,75,75,-146,-14,175,361,287,229
136,161,24,-148,56,92,-151,4,190,351,263,219
131,161,29,-146,51,95,-141,14,190,331,253,204
131,156,24,-143,53,90,-131,14,185,322,239,185
117,151,34,-134,41,92,-122,19,185,302,214,175
117,136,19,-126,48,78,-102,14,170,283,214,156
102,102,0,-102,51,51,-97,14,156,258,190,141
102,97,-4,-100,53,46,-78,19,151,239,170,126
97,82,-14,-90,56,34,-63,19,146,219,161,112
63,58,-4,-61,34,26,-53,29,141,204,141,107
43,58,14,-51,14,36,-43,34,126,185,126,97
34,53,19,-43,7,36,-43,34,117,165,117,82
34,53,19,-43,7,36,-43,34,102,146,102,73
24,39,14,-31,4,26,-48,24,102,126,78,58
34,34,0,-34,17,17,-53,14,87,107,68,43
39,39,0,-39,19,19,-53,9,78,92,53,34
43,34,-9,-39,26,12,-53,9,63,78,48,29
34,19,-14,-26,24,2,-39,19,58,73,39,29
24,14,-9,-19,17,2,-29,14,53,63,39,29
4,9,4,-7,0,7,-24,14,48,53,29,34
-14,9,24,2,-19,17,-19,14,48,48,34,39
-4,-9,-4,7,0,-7,-24,4,39,43,34,34
-4,-19,-14,12,4,-17,-29,-4,24,29,24,19
0,-24,-24,12,12,-24,-34,-4,19,19,9,9
0,-29,-29,14,14,-29,-34,-4,19,9,9,4
4,-29,-34,12,19,-31,-19,-14,4,0,-4,-4
9,-29,-39,9,24,-34,-24,-19,4,-9,-19,-4
19,-24,-43,2,31,-34,-19,-19,-4,-9,-24,-9
29,-19,-48,-4,39,-34,-9,-19,-4,-9,-29,-9
9,-29,-39,9,24,-34,-9,-9,-9,-14,-19,-14
4,-34,-39,14,21,-36,-9,-9,-9,-14,-29,-14
0,-34,-34,17,17,-34,-9,-9,-9,-14,-29,-14
-19,-34,-14,26,-2,-24,4,-9,-9,-19,-29,-14
-29,-29,0,29,-14,-14,-9,-4,0,-19,-29,-14
-19,-29,-9,24,-4,-19,-14,4,4,-14,-29,-14
-19,-19,0,19,-9,-9,-24,9,9,-9,-24,-9
-19,-19,0,19,-9,-9,-34,14,14,-4,-24,-9
-19,-29,-9,24,-4,-19,-29,14,14,-9,-24,-9
-19,-34,-14,26,-2,-24,-19,14,14,-9,-24,-9
-24,-34,-9,29,-7,-21,-4,14,14,-14,-24,-9
-24,-34,-9,29,-7,-21,4,14,14,-14,-24,-14
-19,-43,-24,31,2,-34,0,0,4,-24,-39,-24
-9,-39,-29,24,9,-34,0,-9,0,-24,-39,-24
9,-34,-43,12,26,-39,0,-14,-4,-24,-34,-24
19,-34,-53,7,36,-43,-4,-19,-14,-24,-29,-19
19,-24,-43,2,31,-34,-4,-9,-9,-24,-39,-19
19,-24,-43,2,31,-34,0,-9,-9,-24,-39,-19
19,-24,-43,2,31,-34,0,-4,-9,-24,-39,-19
19,-24,-43,2,31,-34,0,-4,-9,-24,-39,-19
9,-29,-39,9,24,-34,-24,-4,-9,-24,-39,-14
4,-48,-53,21,29,-51,-34,-14,-14,-29,-39,-14
4,-53,-58,24,31,-56,-39,-14,-14,-29,-39,-14
9,-48,-58,19,34,-53,-43,-14,-9,-24,-39,-14
0,-43,-43,21,21,-43,-29,0,-9,-19,-24,0
0,-43,-43,21,21,-43,-24,0,-9,-14,-19,4
-4,-43,-39,24,17,-41,-19,0,-9,-9,-14,9
-4,-39,-34,21,14,-36,-9,0,-14,-4,-9,14
-4,-34,-29,19,12,-31,-9,-9,-14,-4,-9,14
-9,-29,-19,19,4,-24,-9,-9,-14,-4,-9,9
-9,-24,-14,17,2,-19,-9,-9,-14,0,-9,9
-14,-24,-9,19,-2,-17,-9,-14,-19,0,-9,14
-4,-24,-19,14,7,-21,-4,-4,-19,0,4,24
4,-24,-29,9,17,-26,-9,-9,-24,0,4,29
14,-24,-39,4,26,-31,-9,-9,-24,0,9,29
24,-24,-48,0,36,-36,-9,-9,-24,0,9,34
14,-19,-34,2,24,-26,-24,0,-14,9,9,34
9,-19,-29,4,19,-24,-24,0,-9,9,9,39
9,-14,-24,2,17,-19,-24,0,-9,9,14,39
4,-9,-14,2,9,-12,-24,0,-9,9,14,39
-4,-19,-14,12,4,-17,-34,-9,-24,4,4,39
-14,-24,-9,19,-2,-17,-34,-9,-24,4,4,43
-14,-29,-14,21,0,-21,-34,-9,-24,4,0,43
-14,-29,-14,21,0,-21,-34,-14,-24,4,0,43
-9,-39,-29,24,9,-34,-29,-14,-19,4,9,48
-4,-39,-34,21,14,-36,-29,-14,-19,4,9,48
4,-39,-43,17,24,-41,-24,-14,-19,4,9,48
9,-39,-48,14,29,-43,-19,-14,-19,4,9,48
14,-24,-39,4,26,-31,-29,-4,-29,-4,9,39
29,-19,-48,-4,39,-34,-24,-4,-24,-4,9,39
34,-14,-48,-9,41,-31,-24,-4,-24,-4,9,43
34,-9,-43,-12,39,-26,-24,-4,-29,-4,9,43
29,-24,-53,-2,41,-39,-34,-9,-29,4,0,43
24,-24,-48,0,36,-36,-34,-14,-29,4,0,43
24,-29,-53,2,39,-41,-43,-19,-29,4,4,48
19,-34,-53,7,36,-43,-43,-24,-29,0,4,48
19,-34,-53,7,36,-43,-39,-19,-29,-9,0,43
9,-29,-39,9,24,-34,-39,-19,-29,-9,0,39
9,-29,-39,9,24,-34,-34,-19,-29,-9,-4,39
9,-29,-39,9,24,-34,-34,-19,-29,-9,-4,39
9,-29,-39,9,24,-34,-24,-19,-19,0,4,39
4,-34,-39,14,21,-36,-24,-19,-19,0,0,39
4,-34,-39,14,21,-36,-14,-19,-19,-4,0,39
9,-29,-39,9,24,-34,-14,-19,-19,-9,0,39
24,-29,-53,2,39,-41,-4,-14,-9,0,-4,39
24,-29,-53,2,39,-41,-9,-19,-9,0,-4,34
24,-29,-53,2,39,-41,-14,-14,-9,0,-9,34
14,-29,-43,7,29,-36,-14,-9,-4,0,-9,29
9,-19,-29,4,19,-24,-9,-4,-4,9,0,34
9,-24,-34,7,21,-29,-9,-4,-4,9,0,39
14,-24,-39,4,26,-31,-14,-4,-4,9,0,43
14,-24,-39,4,26,-31,-14,0,-4,9,0,53
24,-24,-48,0,36,-36,-4,14,14,24,4,58
34,-24,-58,-4,46,-41,-4,19,19,29,9,63
43,-24,-68,-9,56,-46,0,24,19,29,14,68
63,-29,-92,-17,78,-61,4,29,24,34,19,73
53,-78,-131,12,92,-104,-4,58,29,29,29,73
19,-87,-107,34,63,-97,9,68,39,39,39,78
34,-82,-117,24,75,-100,14,78,43,43,48,82
39,-78,-117,19,78,-97,19,78,48,48,48,87
43,-73,-117,14,80,-95,24,78,53,53,48,92
48,-68,-117,9,82,-92,29,78,58,58,48,97
43,-73,-117,14,80,-95,39,82,63,53,48,97
39,-87,-126,24,82,-107,39,87,53,53,39,92
24,-92,-117,34,70,-104,43,92,53,53,39,92
19,-92,-112,36,65,-102,48,97,53,53,39,92
4,-87,-92,41,48,-90,63,97,48,48,34,78
0,-87,-87,43,43,-87,63,92,43,43,29,73
0,-87,-87,43,43,-87,63,87,39,34,19,63
19,-82,-102,31,61,-92,63,87,29,29,14,53
29,-73,-102,21,65,-87,58,92,39,29,14,63
39,-78,-117,19,78,-97,53,102,39,29,14,68
58,-78,-136,9,97,-107,43,102,43,34,14,68
73,-73,-146,0,109,-109,34,107,43,34,19,73
82,-82,-165,0,124,-124,34,107,34,24,9,73
82,-82,-165,0,124,-124,34,107,34,19,9,73
82,-82,-165,0,124,-124,34,107,29,19,9,73
78,-97,-175,9,126,-136,19,102,19,9,-4,68
68,-87,-156,9,112,-122,4,82,9,4,0,78
43,-87,-131,21,87,-109,-14,58,-9,0,4,73
24,-87,-112,31,68,-100,-29,29,-24,-9,-4,68
0,-97,-97,48,48,-97,-43,0,-48,-29,-19,58
4,-97,-102,46,53,-100,-48,-39,-78,-53,-34,39
14,-87,-102,36,58,-95,-63,-48,-87,-53,-43,34
29,-87,-117,29,73,-102,-63,-48,-87,-53,-43,34
24,-87,-112,31,68,-100,-53,-43,-82,-48,-39,39
14,-97,-112,41,63,-104,-53,-29,-73,-34,-29,53
14,-92,-107,39,61,-100,-53,-24,-63,-29,-24,58
14,-92,-107,39,61,-100,-48,-9,-58,-24,-19,63
24,-87,-112,31,68,-100,-43,-4,-58,-19,-19,78
19,-87,-107,34,63,-97,-29,-14,-58,-29,-14,73
14,-82,-97,34,56,-90,-24,-19,-63,-29,-14,68
4,-82,-87,39,46,-85,-24,-19,-63,-29,-14,63
0,-78,-78,39,39,-78,-24,-19,-63,-29,-14,58
24,-58,-82,17,53,-70,-43,-34,-63,-29,-9,78
43,-48,-92,2,68,-70,-43,-34,-63,-24,-9,78
48,-48,-97,0,73,-73,-39,-34,-58,-14,-4,78
63,-43,-107,-9,85,-75,-39,-34,-53,-14,-4,78
48,-39,-87,-4,68,-63,-29,-24,-39,-9,-4,63
43,-43,-87,0,65,-65,-24,-19,-39,-9,-4,63
14,-48,-63,17,39,-56,-19,-19,-39,-9,-9,53
-14,-63,-48,39,17,-56,-14,-14,-39,-14,-24,43
-34,-63,-29,48,-2,-46,-4,-14,-19,-9,-14,53
-43,-63,-19,53,-12,-41,-4,-14,-29,-9,-14,48
-63,-78,-14,70,-24,-46,4,-14,-34,-19,-24,43
-68,-78,-9,73,-29,-43,4,-14,-34,-14,-29,39
-39,-63,-24,51,-7,-43,-4,-24,-43,-24,-39,39
-24,-48,-24,36,0,-36,-9,-19,-39,-24,-34,39
-14,-43,-29,29,7,-36,-9,-19,-39,-24,-34,29
-19,-53,-34,36,7,-43,-14,-29,-39,-24,-39,29
-9,-58,-48,34,19,-53,-4,-39,-48,-29,-48,24
0,-58,-58,29,29,-58,-4,-34,-48,-29,-39,24
0,-43,-43,21,21,-43,-4,-34,-48,-34,-39,24
0,-58,-58,29,29,-58,4,-34,-48,-39,-43,24
-9,-48,-39,29,14,-43,-4,-19,-43,-34,-39,34
-14,-53,-39,34,12,-46,-4,-14,-39,-39,-43,29
-9,-58,-48,34,19,-53,-4,-9,-34,-39,-43,29
-29,-58,-29,43,0,-43,-9,-4,-29,-34,-39,29
-39,-58,-19,48,-9,-39,-19,-9,-39,-34,-29,39
-43,-58,-14,51,-14,-36,-19,-19,-39,-34,-29,43
-48,-58,-9,53,-19,-34,-19,-24,-39,-34,-29,43
-53,-58,-4,56,-24,-31,-19,-24,-39,-34,-29,43
-39,-58,-19,48,-9,-39,0,-24,-39,-34,-39,34
-19,-58,-39,39,9,-48,4,-24,-39,-34,-39,29
-9,-63,-53,36,21,-58,9,-24,-34,-34,-39,29
-4,-63,-58,34,26,-61,14,-24,-34,-34,-39,29
-19,-63,-43,41,12,-53,4,-14,-34,-43,-39,34
-24,-63,-39,43,7,-51,4,-14,-34,-43,-39,34
-43,-68,-24,56,-9,-46,-4,-14,-34,-43,-39,34
-48,-68,-19,58,-14,-43,9,-14,-34,-43,-39,34
4,-53,-58,24,31,-56,9,-34,-43,-34,-29,43
-9,-73,-63,41,26,-68,-4,-34,-43,-34,-39,34
-29,-92,-63,61,17,-78,-4,-29,-34,-34,-39,34
-29,-78,-48,53,9,-63,9,-9,-29,-19,-24,48
-24,-87,-63,56,19,-75,29,9,-24,-19,-14,48
-14,-82,-68,48,26,-75,34,9,-19,-9,-9,48
-14,-73,-58,43,21,-65,39,29,19,19,9,58
-29,-43,-14,36,-7,-29,34,48,63,73,43,78
-19,-9,9,14,-14,0,53,87,102,141,78,97
4,24,19,-14,-7,21,63,117,146,214,141,141
4,48,43,-26,-19,46,43,122,161,283,224,200
9,92,82,-51,-36,87,34,122,170,346,326,283
24,126,102,-75,-39,114,43,131,200,419,414,356
39,126,87,-82,-24,107,43,136,229,458,473,409
82,122,39,-102,21,80,24,146,229,488,531,468
122,131,9,-126,56,70,4,146,219,522,605,551
151,136,-14,-143,82,61,-19,107,185,527,653,624
170,141,-29,-156,100,56,-63,24,126,492,653,649
165,180,14,-173,75,97,-92,-53,78,468,649,639
170,200,29,-185,70,114,-82,-82,78,448,614,605
131,170,39,-151,46,104,-39,-73,122,424,507,497
9,156,146,-82,-68,151,-24,-73,151,326,317,331
-102,165,268,-31,-185,217,-4,-58,200,170,73,117
-122,185,307,-31,-214,246,68,9,322,82,-146,-78
-165,165,331,0,-248,248,165,97,478,9,-351,-263
-273,92,366,90,-319,229,239,165,590,-97,-531,-419
-302,58,361,122,-331,209,302,248,692,-146,-614,-517
-268,78,346,95,-307,212,380,361,800,-170,-663,-561
-287,68,356,109,-322,212,448,400,775,-273,-712,-595
-341,24,366,158,-353,195,448,366,634,-390,-722,-595
-341,-9,331,175,-336,161,434,346,512,-448,-717,-580
-326,-48,278,187,-302,114,463,414,453,-458,-702,-566
-351,-87,263,219,-307,87,488,512,448,-439,-653,-536
-331,-117,214,224,-273,48,507,561,409,-414,-605,-483
-297,-136,161,217,-229,12,546,561,283,-424,-561,-448
-278,-190,87,234,-183,-51,546,566,161,-434,-536,-429
-263,-239,24,251,-143,-107,507,575,87,-424,-502,-400
-224,-248,-24,236,-100,-136,444,556,-19,-434,-483,-370
-200,-234,-34,217,-82,-134,395,488,-141,-453,-458,-346
-204,-258,-53,231,-75,-156,351,409,-239,-463,-448,-326
-180,-287,-107,234,-36,-197,312,390,-278,-439,-414,-287
-126,-268,-141,197,7,-204,273,385,-268,-400,-366,-239
-92,-258,-165,175,36,-212,229,346,-248,-356,-317,-195
-112,-278,-165,195,26,-222,204,312,-248,-322,-283,-156
-141,-292,-151,217,4,-222,190,292,-239,-297,-253,-126
-117,-244,-126,180,4,-185,175,278,-204,-253,-204,-92
-68,-170,-102,119,17,-136,136,209,-170,-185,-151,-43
-43,-126,-82,85,19,-104,97,131,-161,-151,-117,-24
-34,-136,-102,85,34,-119,73,92,-141,-126,-107,-9
-39,-131,-92,85,26,-112,53,82,-102,-92,-82,-4
-39,-97,-58,68,9,-78,43,73,-68,-48,-53,19
-9,-78,-68,43,29,-73,53,53,-63,-39,-43,29
4,-102,-107,48,56,-104,53,39,-68,-43,-43,29
19,-82,-102,31,61,-92,43,24,-48,-24,-29,39
9,-73,-82,31,46,-78,24,34,-29,-24,-24,48
0,-68,-68,34,34,-68,19,24,-39,-24,-24,39
-9,-68,-58,39,24,-63,14,4,-43,-29,-29,39
-9,-63,-53,36,21,-58,14,-4,-48,-29,-29,39
-24,-68,-43,46,9,-56,19,-24,-48,-19,-19,48
-34,-73,-39,53,2,-56,29,-14,-48,-14,-19,53
-39,-68,-29,53,-4,-48,43,-4,-34,-9,-14,58
-43,-73,-29,58,-7,-51,53,-4,-29,0,-4,63
-53,-82,-29,68,-12,-56,48,0,-29,-9,9,73
-53,-78,-24,65,-14,-51,39,0,-34,-14,0,73
-48,-68,-19,58,-14,-43,34,0,-34,-19,0,68
-43,-78,-34,61,-4,-56,19,-9,-43,-24,-9,68
-34,-73,-39,53,2,-56,4,-14,-48,-14,-19,58
-24,-73,-48,48,12,-61,0,-14,-48,-14,-19,63
-14,-68,-53,41,19,-61,0,-9,-48,-14,-19,63
4,-63,-68,29,36,-65,4,-4,-43,-14,-4,68
9,-58,-68,24,39,-63,14,-9,-43,-9,-4,68
0,-58,-58,29,29,-58,14,-14,-48,-14,0,68
-14,-63,-48,39,17,-56,4,-29,-53,-24,0,68
-14,-63,-48,39,17,-56,4,-39,-58,-29,-9,68
-24,-73,-48,48,12,-61,14,-29,-53,-19,-9,63
-24,-73,-48,48,12,-61,4,-29,-53,-19,-9,63
-19,-73,-53,46,17,-63,4,-29,-58,-19,-9,63
-19,-73,-53,46,17,-63,4,-29,-58,-19,-9,63
-9,-68,-58,39,24,-63,-4,-24,-43,-29,0,78
0,-58,-58,29,29,-58,-4,-24,-39,-29,4,78
14,-53,-68,19,41,-61,-9,-24,-39,-24,4,78
24,-48,-73,12,48,-61,-9,-24,-39,-24,-4,78
9,-58,-68,24,39,-63,-4,-19,-43,-19,4,87
-4,-58,-53,31,24,-56,-4,-19,-48,-19,4,87
-14,-58,-43,36,14,-51,0,-24,-53,-19,4,87
-14,-58,-43,36,14,-51,4,-24,-53,-19,4,87
-14,-73,-58,43,21,-65,4,-24,-48,-29,-4,87
-14,-73,-58,43,21,-65,0,-19,-43,-29,0,87
-4,-68,-63,36,29,-65,-4,-19,-43,-29,0,97
-9,-63,-53,36,21,-58,-9,-24,-43,-29,0,97
-19,-63,-43,41,12,-53,-9,-29,-58,-29,0,87
-14,-68,-53,41,19,-61,-9,-29,-63,-29,0,87
-9,-68,-58,39,24,-63,-9,-24,-63,-29,0,97
-9,-68,-58,39,24,-63,-14,-19,-63,-24,4,97
0,-58,-58,29,29,-58,-14,-24,-58,-24,0,87
0,-58,-58,29,29,-58,-4,-29,-58,-24,0,87
4,-63,-68,29,36,-65,-14,-34,-58,-24,0,87
9,-63,-73,26,41,-68,-24,-48,-63,-24,0,87
14,-58,-73,21,43,-65,-19,-43,-53,-29,0,87
9,-58,-68,24,39,-63,-19,-48,-58,-29,-4,87
4,-58,-63,26,34,-61,-24,-48,-63,-24,-4,87
9,-58,-68,24,39,-63,-24,-43,-63,-24,4,97
19,-58,-78,19,48,-68,-29,-43,-63,-24,4,97
24,-53,-78,14,51,-65,-34,-53,-63,-24,14,102
19,-53,-73,17,46,-63,-34,-53,-68,-24,14,102
19,-53,-73,17,46,-63,-39,-48,-78,-14,14,102
9,-58,-68,24,39,-63,-53,-39,-73,-14,29,107
4,-53,-58,24,31,-56,-63,-39,-68,-14,29,107
4,-58,-63,26,34,-61,-63,-39,-68,-14,29,112
-14,-63,-48,39,17,-56,-63,-43,-63,-14,39,117
0,-68,-68,34,34,-68,-58,-34,-58,0,43,131
9,-63,-73,26,41,-68,-53,-29,-58,4,43,136
24,-58,-82,17,53,-70,-53,-29,-58,4,48,136
19,-48,-68,14,43,-58,-48,-29,-58,14,53,146
9,-53,-63,21,36,-58,-53,-39,-68,9,43,136
9,-53,-63,21,36,-58,-48,-58,-73,4,43,141
14,-53,-68,19,41,-61,-43,-63,-78,0,48,141
19,-48,-68,14,43,-58,-39,-63,-78,4,58,146
39,-39,-78,0,58,-58,-53,-63,-82,9,58,146
39,-39,-78,0,58,-58,-58,-63,-82,9,63,146
48,-34,-82,-7,65,-58,-58,-58,-82,24,68,161
68,-19,-87,-24,78,-53,-63,-58,-82,24,73,156
63,-29,-92,-17,78,-61,-78,-68,-73,34,87,165
63,-29,-92,-17,78,-61,-82,-68,-73,39,92,170
82,-29,-112,-26,97,-70,-87,-78,-78,43,92,180
78,-24,-102,-26,90,-63,-92,-78,-78,43,97,190
68,-29,-97,-19,82,-63,-97,-78,-87,39,102,195
68,-24,-92,-21,80,-58,-97,-78,-82,58,112,204
73,-19,-92,-26,82,-56,-97,-78,-78,68,126,209
78,-19,-97,-29,87,-58,-102,-78,-78,73,131,219
68,-9,-78,-29,73,-43,-97,-78,-63,82,146,234
58,-9,-68,-24,63,-39,-102,-82,-58,92,161,244
48,-4,-53,-21,51,-29,-102,-82,-58,102,170,253
53,0,-53,-26,53,-26,-117,-82,-58,107,185,268
82,14,-68,-48,75,-26,-126,-82,-48,122,195,263
97,19,-78,-58,87,-29,-126,-82,-43,141,209,273
112,34,-78,-73,95,-21,-126,-82,-43,161,219,283
131,48,-82,-90,107,-17,-126,-82,-34,175,229,292
126,48,-78,-87,102,-14,-131,-92,-39,190,234,297
122,43,-78,-82,100,-17,-136,-92,-29,200,244,307
112,43,-68,-78,90,-12,-141,-87,-19,209,253,317
107,43,-63,-75,85,-9,-141,-87,-9,219,253,317
122,48,-73,-85,97,-12,-146,-87,0,234,263,331
141,58,-82,-100,112,-12,-151,-87,4,244,268,331
161,68,-92,-114,126,-12,-165,-82,14,258,273,331
170,73,-97,-122,134,-12,-170,-82,29,273,283,341
170,82,-87,-126,129,-2,-175,-78,39,287,287,346
170,87,-82,-129,126,2,-175,-68,58,297,297,346
165,92,-73,-129,119,9,-170,-63,78,317,307,351
165,107,-58,-136,112,24,-170,-58,92,331,312,361
156,102,-53,-129,104,24,-161,-53,107,341,317,370
146,107,-39,-126,92,34,-156,-43,107,351,322,370
136,112,-24,-124,80,43,-146,-39,117,366,331,370
126,126,0,-126,63,63,-131,-34,126,380,336,370
141,136,-4,-139,73,65,-141,-43,131,390,336,361
161,131,-29,-146,95,51,-146,-48,136,385,331,366
180,131,-48,-156,114,41,-156,-43,131,390,336,366
170,126,-43,-148,107,41,-165,-48,131,390,336,366
170,131,-39,-151,104,46,-165,-53,146,390,326,361
170,131,-39,-151,104,46,-161,-53,151,390,322,351
170,131,-39,-151,104,46,-161,-53,151,385,317,336
161,131,-29,-146,95,51,-161,-48,156,375,312,322
146,141,-4,-143,75,68,-146,-34,170,380,312,317
122,141,19,-131,51,80,-131,-24,185,380,297,312
112,131,19,-122,46,75,-126,-14,185,375,292,297
102,131,29,-117,36,80,-126,-4,185,361,278,278
87,117,29,-102,29,73,-117,4,180,341,263,268
82,112,29,-97,26,70,-102,14,180,322,253,253
82,102,19,-92,31,61,-87,14,175,312,239,234
68,92,24,-80,21,58,-73,19,175,292,214,224
63,87,24,-75,19,56,-63,34,170,283,204,214
43,63,19,-53,12,41,-58,34,156,258,180,200
39,68,29,-53,4,48,-39,39,151,239,161,185
29,63,34,-46,-2,48,-24,39,146,219,151,170
29,48,19,-39,4,34,-19,34,131,200,131,156
34,48,14,-41,9,31,-14,34,117,175,117,146
48,43,-4,-46,26,19,-19,29,107,151,107,131
73,43,-29,-58,51,7,-24,24,92,126,92,122
34,9,-24,-21,29,-7,-29,24,92,112,68,117
24,-4,-29,-9,26,-17,-34,14,78,97,58,102
9,-9,-19,0,14,-14,-34,9,68,87,43,92
-4,-24,-19,14,7,-21,-34,9,53,78,39,87
-19,-34,-14,26,-2,-24,-4,14,48,73,29,82
-24,-34,-9,29,-7,-21,9,14,43,63,29,78
-39,-34,4,36,-21,-14,19,19,39,53,19,78
-53,-29,24,41,-39,-2,29,24,39,48,24,78
-63,-43,19,53,-41,-12,19,29,39,39,24,82
-63,-48,14,56,-39,-17,19,24,24,29,14,68
-58,-48,9,53,-34,-19,19,29,19,24,0,58
-58,-48,9,53,-34,-19,24,34,19,19,0,53
-43,-43,0,43,-21,-21,24,24,9,4,-4,48
-29,-48,-19,39,-4,-34,14,9,4,-9,-19,43
-9,-48,-39,29,14,-43,14,0,-9,-14,-24,34
9,-48,-58,19,34,-53,19,-9,-14,-19,-29,29
-4,-53,-48,29,21,-51,9,-4,-9,-14,-19,24
-4,-53,-48,29,21,-51,9,0,-9,-14,-29,24
-4,-48,-43,26,19,-46,9,4,-9,-14,-29,24
-19,-43,-24,31,2,-34,24,9,-9,-19,-29,24
-39,-58,-19,48,-9,-39,34,0,-14,-24,-48,14
-39,-68,-29,53,-4,-48,34,4,-14,-24,-48,14
-48,-68,-19,58,-14,-43,29,4,-14,-24,-43,19
-58,-78,-19,68,-19,-48,24,4,-14,-24,-43,19
-43,-78,-34,61,-4,-56,9,4,-14,-19,-43,19
-29,-73,-43,51,7,-58,9,4,-14,-19,-43,19
-19,-63,-43,41,12,-53,14,4,-14,-24,-43,19
-4,-53,-48,29,21,-51,14,4,-14,-24,-43,14
-19,-63,-43,41,12,-53,24,9,-9,-14,-48,14
-29,-58,-29,43,0,-43,29,9,-9,-14,-48,14
-29,-53,-24,41,-2,-39,34,14,-9,-14,-43,14
-39,-53,-14,46,-12,-34,34,19,-14,-14,-39,19
-48,-58,-9,53,-19,-34,29,9,-9,-24,-48,9
-48,-63,-14,56,-17,-39,29,9,-9,-24,-48,9
-48,-68,-19,58,-14,-43,24,14,-9,-24,-48,9
-48,-73,-24,61,-12,-48,19,14,-9,-24,-48,9
-39,-63,-24,51,-7,-43,14,24,-9,-14,-39,14
-43,-78,-34,61,-4,-56,14,14,-14,-19,-39,14
-43,-78,-34,61,-4,-56,19,14,-14,-19,-39,14
-39,-68,-29,53,-4,-48,24,14,-9,-14,-39,14
-43,-73,-29,58,-7,-51,24,14,-19,-24,-39,14
-48,-73,-24,61,-12,-48,24,9,-19,-24,-39,14
-58,-73,-14,65,-21,-43,24,4,-19,-24,-39,14
-63,-68,-4,65,-29,-36,29,0,-24,-24,-39,14
-34,-58,-24,46,-4,-41,14,0,-14,-24,-34,14
-19,-48,-29,34,4,-39,9,0,-14,-24,-29,9
0,-39,-39,19,19,-39,4,0,-14,-19,-24,9
14,-34,-48,9,31,-41,0,-4,-19,-19,-19,14
0,-58,-58,29,29,-58,0,-4,-24,-29,-24,24
-14,-63,-48,39,17,-56,0,-9,-34,-29,-24,29
-29,-68,-39,48,4,-53,4,-9,-39,-29,-19,29
-43,-73,-29,58,-7,-51,9,-9,-43,-29,-19,34
-39,-73,-34,56,-2,-53,14,-4,-39,-24,-14,34
-39,-68,-29,53,-4,-48,14,0,-29,-19,-9,39
-34,-58,-24,46,-4,-41,14,4,-24,-14,0,39
-34,-48,-14,41,-9,-31,14,9,-19,-9,4,39
-19,-39,-19,29,0,-29,14,4,-34,-9,-4,39
-24,-43,-19,34,-2,-31,14,0,-34,-14,-4,43
-19,-48,-29,34,4,-39,14,-4,-34,-19,-9,43
-14,-48,-34,31,9,-41,14,-14,-34,-24,-9,43
-29,-48,-19,39,-4,-34,24,-4,-29,-14,0,48
-34,-48,-14,41,-9,-31,19,-4,-29,-14,0,48
-34,-48,-14,41,-9,-31,19,-4,-29,-14,0,48
-39,-48,-9,43,-14,-29,19,-4,-29,-14,0,48
-43,-58,-14,51,-14,-36,4,-14,-34,-24,-9,43
-29,-58,-29,43,0,-43,4,-14,-34,-24,-9,39
