I,II,III,aVR,aVL,aVF,V1,V2,V3,V4,V5,V6
-14,-68,-53,41,19,-61,0,9,4,39,29,82
-9,-68,-58,39,24,-63,0,4,4,34,34,82
-4,-68,-63,36,29,-65,-9,0,4,34,34,82
0,-68,-68,34,34,-68,-9,0,4,34,34,82
0,-68,-68,34,34,-68,-9,9,4,34,19,78
0,-73,-73,36,36,-73,-9,9,4,29,14,78
0,-73,-73,36,36,-73,-9,9,4,29,14,73
0,-73,-73,36,36,-73,-14,9,4,29,14,73
-9,-82,-73,46,31,-78,-9,4,4,34,24,73
-9,-82,-73,46,31,-78,-9,4,0,34,24,73
-9,-82,-73,46,31,-78,-9,4,0,34,24,73
-14,-82,-68,48,26,-75,-4,0,0,34,24,73
-14,-78,-63,46,24,-70,-4,0,0,14,19,68
-14,-82,-68,48,26,-75,-4,0,-4,14,9,63
-14,-87,-73,51,29,-80,-4,0,-9,9,4,58
-19,-92,-73,56,26,-82,0,0,-9,9,4,58
-24,-97,-73,61,24,-85,0,0,-9,14,4,58
-29,-102,-73,65,21,-87,4,0,-9,14,0,53
-34,-107,-73,70,19,-90,4,-9,-9,9,-4,48
-39,-107,-68,73,14,-87,4,-9,-19,9,-9,43
-53,-112,-58,82,2,-85,9,-9,-19,9,-9,43
-58,-117,-58,87,0,-87,14,-4,-14,9,-9,43
-63,-122,-58,92,-2,-90,14,-4,-14,4,-14,39
-63,-122,-58,92,-2,-90,9,-9,-19,4,-14,29
-63,-126,-63,95,0,-95,19,-9,-19,4,-19,29
-63,-126,-63,95,0,-95,19,-9,-19,-4,-24,29
-63,-126,-63,95,0,-95,14,-9,-19,-9,-24,29
-68,-136,-68,102,0,-102,14,-9,-29,-9,-29,24
-63,-131,-68,97,2,-100,19,-14,-29,-24,-34,24
-68,-131,-63,100,-2,-97,19,-14,-29,-24,-34,24
-68,-131,-63,100,-2,-97,24,-14,-29,-24,-34,19
-68,-131,-63,100,-2,-97,24,-14,-29,-24,-34,19
-68,-146,-78,107,4,-112,29,-14,-29,-14,-34,19
-68,-146,-78,107,4,-112,29,-9,-29,-14,-34,19
-68,-146,-78,107,4,-112,24,-9,-29,-14,-34,19
-68,-141,-73,104,2,-107,24,-9,-29,-14,-34,19
-68,-141,-73,104,2,-107,29,-9,-29,-14,-34,19
-73,-141,-68,107,-2,-104,29,-9,-29,-14,-39,14
-73,-141,-68,107,-2,-104,29,-14,-34,-19,-39,14
-73,-141,-68,107,-2,-104,29,-14,-34,-19,-39,14
-73,-141,-68,107,-2,-104,29,-14,-34,-14,-48,9
-73,-141,-68,107,-2,-104,29,-14,-29,-14,-48,9
-73,-146,-73,109,0,-109,29,-9,-29,-14,-48,9
-73,-146,-73,109,0,-109,29,-9,-29,-19,-48,9
-73,-141,-68,107,-2,-104,29,-9,-29,-29,-48,14
-73,-141,-68,107,-2,-104,29,-9,-29,-24,-48,14
-78,-136,-58,107,-9,-97,29,-9,-29,-24,-48,14
-78,-136,-58,107,-9,-97,29,-9,-29,-24,-48,14
-73,-141,-68,107,-2,-104,34,-9,-34,-19,-39,14
-73,-146,-73,109,0,-109,34,-9,-34,-19,-39,14
-73,-151,-78,112,2,-114,34,-9,-34,-19,-39,14
-73,-156,-82,114,4,-119,34,-9,-34,-19,-39,14
-82,-146,-63,114,-9,-104,24,-9,-34,-29,-48,4
-82,-146,-63,114,-9,-104,24,-9,-34,-24,-48,4
-82,-146,-63,114,-9,-104,24,-9,-34,-24,-43,4
-82,-146,-63,114,-9,-104,29,-9,-34,-24,-43,4
-78,-146,-68,112,-4,-107,29,-9,-34,-24,-43,4
-78,-146,-68,112,-4,-107,29,-9,-34,-24,-43,4
-78,-146,-68,112,-4,-107,29,-9,-34,-24,-48,4
-78,-146,-68,112,-4,-107,29,-9,-34,-24,-48,4
-78,-146,-68,112,-4,-107,29,0,-24,-14,-43,4
-78,-146,-68,112,-4,-107,29,0,-24,-14,-43,4
-78,-146,-68,112,-4,-107,29,0,-24,-14,-43,4
-78,-146,-68,112,-4,-107,29,0,-24,-14,-43,4
-78,-136,-58,107,-9,-97,29,0,-24,-14,-43,4
-78,-112,-34,95,-21,-73,29,-4,-34,-24,-48,4
-78,-82,-4,80,-36,-43,19,-19,-43,-34,-68,-14
-78,-48,29,63,-53,-9,14,-19,-48,-43,-78,-24
-82,-53,29,68,-56,-12,24,-14,-48,-48,-78,-24
-87,-97,-9,92,-39,-53,39,0,-39,-43,-78,-19
-87,-131,-43,109,-21,-87,53,14,-24,-34,-73,-24
-82,-136,-53,109,-14,-95,68,39,0,-24,-73,-29
-92,-117,-24,104,-34,-70,82,68,14,-14,-73,-48
-82,-102,-19,92,-31,-61,102,112,53,9,-63,-39
-73,-87,-14,80,-29,-51,107,151,97,58,-24,-19
-43,-92,-48,68,2,-70,126,209,175,151,58,24
0,-87,-87,43,43,-87,151,283,268,248,151,78
39,-68,-107,14,73,-87,175,351,366,356,248,131
97,-24,-122,-36,109,-73,180,414,453,468,351,185
180,34,-146,-107,163,-56,161,448,536,575,463,263
263,102,-161,-183,212,-29,146,483,614,678,585,351
370,146,-224,-258,297,-39,131,536,707,819,732,463
483,190,-292,-336,387,-51,102,585,819,985,902,590
610,244,-366,-427,488,-61,53,595,912,1146,1078,707
727,326,-400,-527,563,-36,-24,585,980,1273,1224,819
805,419,-385,-612,595,17,-112,517,990,1346,1337,902
839,502,-336,-671,588,82,-195,414,932,1346,1376,966
805,551,-253,-678,529,148,-268,268,819,1263,1332,985
697,517,-180,-607,439,168,-331,97,629,1098,1195,936
595,419,-175,-507,385,122,-385,-73,429,854,990,824
517,287,-229,-402,373,29,-429,-185,258,585,727,673
439,180,-258,-309,348,-39,-444,-283,92,351,502,527
326,131,-195,-229,261,-31,-444,-390,-78,180,336,429
180,97,-82,-139,131,7,-439,-507,-258,-4,175,331
63,34,-29,-48,46,2,-439,-610,-458,-253,-34,190
-34,-53,-19,43,-7,-36,-434,-688,-649,-478,-244,68
-92,-131,-39,112,-26,-85,-414,-712,-727,-580,-351,0
-102,-151,-48,126,-26,-100,-395,-663,-688,-561,-351,-19
-117,-151,-34,134,-41,-92,-366,-595,-624,-507,-346,-29
-126,-126,0,126,-63,-63,-312,-512,-541,-453,-326,-29
-117,-112,4,114,-61,-53,-263,-434,-468,-385,-283,-29
-112,-102,9,107,-61,-46,-200,-346,-385,-326,-239,-29
-117,-102,14,109,-65,-43,-146,-283,-322,-278,-214,-29
-112,-97,14,104,-63,-41,-112,-234,-268,-224,-185,-24
-92,-82,9,87,-51,-36,-97,-200,-229,-190,-161,-24
-82,-82,0,82,-41,-41,-82,-170,-190,-151,-136,-9
-78,-78,0,78,-39,-39,-73,-136,-161,-131,-126,-9
-87,-73,14,80,-51,-29,-68,-117,-146,-122,-122,-9
-87,-82,4,85,-46,-39,-48,-102,-136,-112,-112,0
-92,-82,9,87,-51,-36,-29,-82,-117,-97,-102,0
-92,-73,19,82,-56,-26,-4,-68,-92,-78,-82,0
-87,-73,14,80,-51,-29,14,-43,-68,-58,-78,0
-78,-73,4,75,-41,-34,19,-19,-48,-39,-58,4
-73,-78,-4,75,-34,-41,24,-9,-29,-24,-58,4
-73,-87,-14,80,-29,-51,24,0,-29,-24,-58,4
-73,-87,-14,80,-29,-51,24,0,-29,-24,-63,4
-73,-92,-19,82,-26,-56,24,0,-29,-29,-63,4
-78,-97,-19,87,-29,-58,24,0,-29,-29,-63,4
-78,-92,-14,85,-31,-53,29,0,-29,-34,-63,-4
-78,-92,-14,85,-31,-53,34,4,-29,-29,-63,-9
-78,-87,-9,82,-34,-48,39,9,-24,-24,-58,-9
-78,-87,-9,82,-34,-48,43,9,-24,-19,-58,-9
-78,-87,-9,82,-34,-48,43,14,-24,-24,-53,-9
-78,-87,-9,82,-34,-48,43,14,-24,-24,-53,-9
-78,-92,-14,85,-31,-53,43,19,-24,-24,-53,-9
-78,-92,-14,85,-31,-53,48,19,-24,-24,-48,-4
-73,-92,-19,82,-26,-56,39,19,-14,-9,-58,-4
-73,-92,-19,82,-26,-56,39,19,-9,-9,-53,-9
-73,-92,-19,82,-26,-56,43,24,-9,-9,-53,-9
-73,-92,-19,82,-26,-56,43,29,-4,-4,-48,-9
-73,-92,-19,82,-26,-56,43,19,-14,-4,-39,0
-73,-87,-14,80,-29,-51,48,24,-9,-4,-39,0
-68,-87,-19,78,-24,-53,48,24,-9,-4,-43,0
-68,-87,-19,78,-24,-53,43,24,-9,0,-43,0
-68,-97,-29,82,-19,-63,43,24,-4,0,-39,0
-68,-97,-29,82,-19,-63,43,24,-4,0,-39,4
-68,-97,-29,82,-19,-63,48,24,-4,0,-39,4
-68,-97,-29,82,-19,-63,48,29,-4,0,-34,4
-68,-87,-19,78,-24,-53,48,29,0,4,-43,0
-63,-87,-24,75,-19,-56,48,29,0,4,-39,0
-63,-87,-24,75,-19,-56,43,34,0,9,-39,4
-63,-87,-24,75,-19,-56,43,34,0,9,-39,4
-63,-87,-24,75,-19,-56,48,34,4,0,-39,4
-63,-87,-24,75,-19,-56,48,39,4,0,-39,4
-58,-87,-29,73,-14,-58,43,39,4,4,-34,4
-58,-87,-29,73,-14,-58,43,39,9,4,-34,4
-58,-87,-29,73,-14,-58,53,39,9,9,-24,4
-58,-87,-29,73,-14,-58,53,39,9,9,-24,4
-53,-78,-24,65,-14,-51,53,39,9,9,-24,9
-53,-78,-24,65,-14,-51,53,43,9,9,-19,9
-53,-78,-24,65,-14,-51,58,43,24,9,-29,9
-53,-78,-24,65,-14,-51,58,43,24,14,-29,9
-53,-78,-24,65,-14,-51,58,48,24,14,-24,14
-53,-78,-24,65,-14,-51,58,48,29,19,-24,14
-63,-78,-14,70,-24,-46,58,48,29,19,-19,19
-63,-78,-14,70,-24,-46,58,48,29,19,-19,19
-63,-68,-4,65,-29,-36,58,53,34,19,-19,19
-58,-68,-9,63,-24,-39,58,53,34,24,-14,24
-58,-63,-4,61,-26,-34,58,53,29,29,-14,24
-58,-63,-4,61,-26,-34,58,58,34,29,-14,24
-53,-63,-9,58,-21,-36,58,63,34,29,-9,24
-53,-58,-4,56,-24,-31,58,63,34,34,-9,24
-43,-68,-24,56,-9,-46,48,73,43,34,0,24
-43,-63,-19,53,-12,-41,58,73,43,34,0,29
-43,-63,-19,53,-12,-41,58,73,43,39,0,29
-39,-63,-24,51,-7,-43,53,78,48,43,4,29
-48,-53,-4,51,-21,-29,58,82,53,48,9,39
-48,-48,0,48,-24,-24,63,87,58,53,14,43
-43,-48,-4,46,-19,-26,68,87,58,53,19,48
-39,-43,-4,41,-17,-24,73,92,63,58,19,48
-39,-53,-14,46,-12,-34,63,97,78,63,24,43
-39,-48,-9,43,-14,-29,68,102,78,68,29,48
-34,-48,-14,41,-9,-31,68,102,82,73,34,48
-29,-43,-14,36,-7,-29,73,107,87,78,34,48
-29,-39,-9,34,-9,-24,82,122,92,82,39,58
-29,-39,-9,34,-9,-24,87,131,97,87,43,68
-24,-39,-14,31,-4,-26,92,136,102,92,48,73
-14,-29,-14,21,0,-21,97,146,112,97,53,78
-4,-34,-29,19,12,-31,112,151,117,107,73,73
0,-29,-29,14,14,-29,122,156,122,112,78,78
4,-29,-34,12,19,-31,126,161,131,117,87,82
9,-24,-34,7,21,-29,136,165,136,126,92,87
9,-19,-29,4,19,-24,126,170,136,146,87,92
4,-14,-19,4,12,-17,126,180,151,146,102,97
4,-14,-19,4,12,-17,131,185,161,156,107,102
4,-9,-14,2,9,-12,131,190,165,165,117,112
19,4,-14,-12,17,-4,126,185,185,161,126,112
24,9,-14,-17,19,-2,122,200,185,175,141,122
29,14,-14,-21,21,0,117,204,200,180,151,126
34,19,-14,-26,24,2,112,209,200,190,151,131
43,29,-14,-36,29,7,112,214,200,209,161,136
43,29,-14,-36,29,7,112,219,204,214,170,151
48,29,-19,-39,34,4,112,224,219,224,180,156
53,39,-14,-46,34,12,112,229,224,234,185,170
58,48,-9,-53,34,19,102,239,234,244,195,180
63,48,-14,-56,39,17,102,244,239,253,204,180
63,53,-9,-58,36,21,102,248,253,263,214,185
68,58,-9,-63,39,24,102,248,258,273,224,190
82,53,-29,-68,56,12,102,263,268,278,239,204
87,58,-29,-73,58,14,102,268,273,283,248,204
92,63,-29,-78,61,17,102,273,283,292,248,209
97,68,-29,-82,63,19,97,273,287,297,258,214
102,82,-19,-92,61,31,107,268,287,302,258,219
107,82,-24,-95,65,29,112,268,292,312,263,224
107,87,-19,-97,63,34,112,268,297,312,268,224
107,87,-19,-97,63,34,107,268,302,322,273,224
107,92,-14,-100,61,39,97,273,302,326,273,229
112,92,-19,-102,65,36,97,273,302,326,278,234
112,92,-19,-102,65,36,97,273,307,331,283,239
112,92,-19,-102,65,36,97,273,307,336,287,239
117,87,-29,-102,73,29,97,273,307,336,287,239
117,87,-29,-102,73,29,97,273,307,336,292,239
117,87,-29,-102,73,29,97,268,307,336,292,244
117,92,-24,-104,70,34,97,268,302,336,292,244
112,82,-29,-97,70,26,87,263,297,331,287,244
112,82,-29,-97,70,26,87,258,297,331,287,244
112,78,-34,-95,73,21,82,248,297,331,287,244
112,78,-34,-95,73,21,78,244,287,326,283,239
107,78,-29,-92,68,24,78,234,278,326,283,239
107,78,-29,-92,68,24,78,229,268,317,273,229
102,68,-34,-85,68,17,78,224,263,307,263,224
102,58,-43,-80,73,7,78,214,253,297,258,214
97,53,-43,-75,70,4,78,204,244,278,248,204
92,48,-43,-70,68,2,68,195,234,263,239,195
92,43,-48,-68,70,-2,68,185,224,253,224,190
82,34,-48,-58,65,-7,68,175,214,248,214,175
78,14,-63,-46,70,-24,68,165,204,234,200,170
68,9,-58,-39,63,-24,63,156,190,219,185,165
58,4,-53,-31,56,-24,63,151,180,204,175,161
53,-4,-58,-24,56,-31,63,141,170,200,165,151
48,-9,-58,-19,53,-34,63,131,151,185,151,136
39,-19,-58,-9,48,-39,63,122,141,175,146,126
34,-24,-58,-4,46,-41,63,112,131,165,141,117
29,-34,-63,2,46,-48,63,112,126,156,122,112
24,-34,-58,4,41,-46,63,97,112,141,112,107
19,-43,-63,12,41,-53,63,92,102,131,97,97
14,-43,-58,14,36,-51,63,82,92,122,92,92
14,-48,-63,17,39,-56,63,78,87,117,87,82
4,-48,-53,21,29,-51,48,68,87,97,68,78
0,-58,-58,29,29,-58,48,63,78,87,58,68
0,-63,-63,31,31,-63,48,58,68,82,48,63
-4,-68,-63,36,29,-65,48,58,58,73,48,53
-14,-73,-58,43,21,-65,48,53,58,73,48,58
-19,-73,-53,46,17,-63,43,48,48,68,39,53
-19,-73,-53,46,17,-63,43,48,48,63,39,53
-24,-78,-53,51,14,-65,43,43,43,53,29,53
-29,-87,-58,58,14,-73,48,39,43,53,24,39
-34,-87,-53,61,9,-70,48,29,39,53,19,34
-34,-92,-58,63,12,-75,48,29,34,48,19,29
-39,-97,-58,68,9,-78,48,29,34,48,19,29
-39,-87,-48,63,4,-68,43,29,29,39,14,29
-39,-92,-53,65,7,-73,43,24,24,34,9,29
-39,-92,-53,65,7,-73,39,19,19,29,4,19
-39,-92,-53,65,7,-73,39,19,14,24,0,19
-39,-97,-58,68,9,-78,39,19,14,34,0,19
-39,-97,-58,68,9,-78,39,19,14,29,0,19
-43,-97,-53,70,4,-75,39,14,14,24,-4,19
-43,-97,-53,70,4,-75,39,9,14,24,-4,19
-39,-97,-58,68,9,-78,39,19,14,24,-4,19
-39,-92,-53,65,7,-73,39,19,9,24,-4,19
-39,-92,-53,65,7,-73,34,19,9,24,-9,19
-39,-92,-53,65,7,-73,34,19,9,19,-9,19
-43,-97,-53,70,4,-75,34,14,4,9,-9,19
-43,-97,-53,70,4,-75,34,14,4,9,-14,19
-43,-97,-53,70,4,-75,34,14,0,9,-14,9
-39,-97,-58,68,9,-78,34,14,0,9,-14,9
-48,-92,-43,70,-2,-68,34,14,9,9,-19,9
-53,-92,-39,73,-7,-65,34,9,9,4,-19,4
-53,-92,-39,73,-7,-65,29,9,9,4,-19,4
-53,-92,-39,73,-7,-65,29,9,9,4,-19,4
-53,-92,-39,73,-7,-65,29,9,9,4,-19,4
-53,-92,-39,73,-7,-65,29,9,4,4,-19,4
-48,-92,-43,70,-2,-68,29,9,4,9,-14,4
-48,-97,-48,73,0,-73,34,9,4,9,-14,4
-48,-97,-48,73,0,-73,34,9,4,9,-14,0
-53,-92,-39,73,-7,-65,34,4,4,9,-14,0
-53,-92,-39,73,-7,-65,34,4,4,9,-19,4
-53,-92,-39,73,-7,-65,29,4,4,9,-19,4
-53,-82,-29,68,-12,-56,29,4,-4,9,-19,4
-58,-82,-24,70,-17,-53,29,4,-4,9,-24,4
-58,-82,-24,70,-17,-53,29,4,-4,9,-24,4
-58,-82,-24,70,-17,-53,29,9,-4,9,-24,4
-48,-82,-34,65,-7,-58,29,9,-4,4,-34,4
-48,-82,-34,65,-7,-58,29,9,-4,4,-34,4
-48,-82,-34,65,-7,-58,29,9,-4,0,-29,4
-48,-82,-34,65,-7,-58,29,9,-4,0,-29,4
-48,-82,-34,65,-7,-58,29,9,-4,4,-29,4
-48,-82,-34,65,-7,-58,29,9,-4,4,-29,4
-48,-82,-34,65,-7,-58,29,9,-4,4,-34,4
-53,-82,-29,68,-12,-56,29,9,-4,4,-34,4
-63,-87,-24,75,-19,-56,29,9,-4,4,-34,4
-58,-87,-29,73,-14,-58,29,9,-4,4,-34,4
-58,-87,-29,73,-14,-58,29,9,-4,4,-34,4
-63,-87,-24,75,-19,-56,34,9,-9,0,-34,4
-53,-87,-34,70,-9,-61,34,0,-9,-9,-34,4
-53,-82,-29,68,-12,-56,34,0,-9,-4,-34,4
-53,-82,-29,68,-12,-56,34,0,-9,-4,-34,4
-48,-87,-39,68,-4,-63,34,0,-9,-4,-34,4
-58,-87,-29,73,-14,-58,34,0,-9,-14,-34,-4
-58,-87,-29,73,-14,-58,34,0,-9,-14,-34,-4
-58,-82,-24,70,-17,-53,34,0,-9,-14,-34,-9
-58,-82,-24,70,-17,-53,34,0,-9,-9,-34,-9
-58,-82,-24,70,-17,-53,34,0,-9,-9,-34,-9
-58,-78,-19,68,-19,-48,34,0,-9,-9,-34,-4
-58,-78,-19,68,-19,-48,34,0,-9,-9,-34,-4
-58,-78,-19,68,-19,-48,34,0,-9,-14,-29,0
-58,-82,-24,70,-17,-53,34,0,-19,-4,-39,0
-58,-82,-24,70,-17,-53,34,0,-19,-4,-39,0
-58,-82,-24,70,-17,-53,34,-4,-19,-4,-39,0
-63,-82,-19,73,-21,-51,34,-4,-14,0,-39,0
-63,-73,-9,68,-26,-41,34,-4,-14,0,-39,0
-63,-73,-9,68,-26,-41,34,-4,-14,-4,-39,0
-63,-73,-9,68,-26,-41,34,-4,-14,-4,-39,0
-58,-73,-14,65,-21,-43,34,-4,-14,-4,-39,0
-68,-82,-14,75,-26,-48,34,-4,-14,-14,-39,-9
-68,-82,-14,75,-26,-48,34,-4,-14,-9,-39,-9
-68,-82,-14,75,-26,-48,34,-4,-14,-9,-39,-9
-68,-78,-9,73,-29,-43,34,-4,-14,-9,-34,-9
-68,-87,-19,78,-24,-53,34,-4,-19,-9,-34,0
-68,-87,-19,78,-24,-53,34,-9,-19,-9,-34,0
-68,-87,-19,78,-24,-53,29,-9,-19,-9,-34,0
-68,-87,-19,78,-24,-53,29,-9,-19,-9,-34,0
-68,-87,-19,78,-24,-53,29,-9,-19,-4,-34,0
-68,-87,-19,78,-24,-53,29,-9,-24,-4,-34,0
-63,-87,-24,75,-19,-56,29,-9,-24,-4,-34,0
-63,-87,-24,75,-19,-56,34,-9,-24,-4,-34,0
-63,-87,-24,75,-19,-56,34,-9,-24,-4,-24,0
-63,-87,-24,75,-19,-56,34,-9,-19,-4,-24,0
-63,-87,-24,75,-19,-56,34,-9,-19,-4,-24,0
-63,-87,-24,75,-19,-56,34,-9,-19,-4,-24,0
-63,-87,-24,75,-19,-56,34,-9,-19,-4,-24,0
-63,-87,-24,75,-19,-56,34,-9,-19,-4,-24,0
-63,-87,-24,75,-19,-56,34,-4,-19,-4,-24,0
-63,-92,-29,78,-17,-61,34,-4,-19,-4,-24,0
-63,-92,-29,78,-17,-61,34,-4,-14,-4,-24,0
-63,-87,-24,75,-19,-56,29,-9,-14,-4,-24,0
-63,-87,-24,75,-19,-56,29,-9,-9,-4,-24,0
-63,-87,-24,75,-19,-56,29,-9,-9,-4,-24,0
-53,-87,-34,70,-9,-61,29,-9,-9,-4,-24,0
-53,-87,-34,70,-9,-61,29,-9,-9,-4,-24,0
-53,-87,-34,70,-9,-61,29,-9,-9,-4,-24,0
-53,-87,-34,70,-9,-61,34,-9,-9,-4,-24,0
-53,-87,-34,70,-9,-61,24,-9,-9,-4,-34,0
-53,-87,-34,70,-9,-61,24,-9,-9,-4,-34,0
-53,-87,-34,70,-9,-61,19,-9,-9,-4,-34,0
-53,-87,-34,70,-9,-61,19,-9,-9,-9,-34,0
-53,-82,-29,68,-12,-56,19,-9,-14,-9,-34,0
-53,-82,-29,68,-12,-56,19,-9,-14,-9,-34,0
-53,-82,-29,68,-12,-56,19,-9,-14,-9,-34,0
-53,-82,-29,68,-12,-56,19,-9,-14,-9,-34,-4
-53,-82,-29,68,-12,-56,19,-9,-14,-9,-29,-4
-53,-82,-29,68,-12,-56,19,-9,-14,-9,-29,0
-53,-82,-29,68,-12,-56,19,-9,-14,-9,-34,0
-53,-82,-29,68,-12,-56,19,-9,-14,-9,-34,-4
-53,-82,-29,68,-12,-56,29,-9,-14,-14,-34,-4
-53,-82,-29,68,-12,-56,24,-14,-14,-14,-34,-4
-53,-82,-29,68,-12,-56,24,-19,-14,-14,-34,-4
-53,-82,-29,68,-12,-56,24,-19,-19,-14,-34,-4
-53,-82,-29,68,-12,-56,24,-9,-19,-4,-29,-4
-53,-82,-29,68,-12,-56,24,-9,-19,-4,-29,-4
-53,-82,-29,68,-12,-56,24,-9,-19,-4,-29,-4
-53,-82,-29,68,-12,-56,24,-9,-14,-4,-29,-4
-53,-82,-29,68,-12,-56,24,-19,-14,-14,-29,-4
-53,-82,-29,68,-12,-56,24,-19,-19,-14,-29,-4
-53,-82,-29,68,-12,-56,24,-19,-19,-14,-29,-4
-53,-87,-34,70,-9,-61,24,-14,-19,-14,-29,-4
-53,-97,-43,75,-4,-70,14,-14,-19,-14,-34,-4
-53,-97,-43,75,-4,-70,14,-19,-19,-14,-39,-9
-53,-92,-39,73,-7,-65,14,-19,-19,-14,-39,-9
-53,-92,-39,73,-7,-65,14,-19,-19,-19,-39,-9
-63,-82,-19,73,-21,-51,14,-19,-19,-19,-39,-9
-63,-87,-24,75,-19,-56,19,-19,-19,-14,-39,-9
-63,-87,-24,75,-19,-56,19,-24,-19,-14,-39,-9
-63,-87,-24,75,-19,-56,19,-24,-19,-14,-39,-9
-63,-87,-24,75,-19,-56,19,-24,-19,-19,-48,-9
-63,-87,-24,75,-19,-56,19,-24,-19,-19,-48,-9
-63,-87,-24,75,-19,-56,19,-24,-19,-19,-43,-9
-63,-87,-24,75,-19,-56,14,-24,-19,-19,-43,-9
-53,-87,-34,70,-9,-61,14,-24,-19,-19,-48,-19
-53,-92,-39,73,-7,-65,14,-24,-19,-19,-48,-19
-53,-92,-39,73,-7,-65,14,-24,-19,-19,-43,-19
-53,-92,-39,73,-7,-65,14,-24,-19,-19,-43,-14
-53,-92,-39,73,-7,-65,14,-24,-29,-19,-43,-14
-53,-92,-39,73,-7,-65,14,-24,-24,-19,-43,-19
-53,-97,-43,75,-4,-70,14,-24,-24,-19,-43,-19
-53,-97,-43,75,-4,-70,14,-24,-29,-19,-43,-19
-53,-97,-43,75,-4,-70,14,-24,-29,-19,-43,-14
-53,-92,-39,73,-7,-65,19,-24,-29,-19,-43,-14
-53,-92,-39,73,-7,-65,19,-19,-24,-19,-43,-14
-53,-87,-34,70,-9,-61,19,-19,-24,-14,-39,-9
-53,-97,-43,75,-4,-70,9,-29,-29,-24,-48,-19
-53,-97,-43,75,-4,-70,9,-29,-29,-24,-48,-19
-53,-97,-43,75,-4,-70,9,-29,-24,-24,-48,-24
-53,-97,-43,75,-4,-70,9,-29,-24,-24,-48,-24
-58,-97,-39,78,-9,-68,9,-29,-29,-24,-48,-19
-58,-92,-34,75,-12,-63,9,-29,-29,-24,-48,-19
-58,-92,-34,75,-12,-63,14,-29,-29,-24,-48,-19
-58,-87,-29,73,-14,-58,14,-29,-29,-24,-48,-19
-53,-92,-39,73,-7,-65,14,-24,-24,-24,-48,-19
-53,-92,-39,73,-7,-65,14,-24,-19,-14,-48,-14
-48,-97,-48,73,0,-73,19,-19,-19,-19,-39,-19
-48,-87,-39,68,-4,-63,9,-19,-19,-19,-39,-19
-48,-87,-39,68,-4,-63,9,-19,-19,-19,-39,-19
-48,-87,-39,68,-4,-63,9,-19,-19,-19,-39,-19
-48,-87,-39,68,-4,-63,9,-19,-19,-19,-39,-19
-43,-82,-39,63,-2,-61,9,-9,-19,-14,-34,-9
-39,-78,-39,58,0,-58,9,-9,-14,-9,-34,-9
-39,-68,-29,53,-4,-48,9,-9,-14,-9,-29,-4
-39,-63,-24,51,-7,-43,14,-9,-14,0,-29,0
-43,-58,-14,51,-14,-36,14,-14,-9,-4,-34,-9
-43,-53,-9,48,-17,-31,14,-9,-9,-4,-24,0
-43,-53,-9,48,-17,-31,14,-4,-4,-4,-24,0
-43,-53,-9,48,-17,-31,14,-4,0,0,-19,0
-43,-63,-19,53,-12,-41,14,-14,-9,0,-19,0
-43,-58,-14,51,-14,-36,14,-14,-9,0,-19,0
-48,-53,-4,51,-21,-29,14,-14,-14,0,-19,0
-48,-53,-4,51,-21,-29,14,-14,-14,0,-24,0
-34,-53,-19,43,-7,-36,14,-14,-4,0,-24,0
-34,-53,-19,43,-7,-36,14,-19,-4,0,-24,0
-34,-53,-19,43,-7,-36,14,-19,-4,0,-24,0
-24,-48,-24,36,0,-36,9,-19,-4,0,-19,4
-29,-43,-14,36,-7,-29,9,-19,-9,-4,-14,0
-24,-43,-19,34,-2,-31,0,-19,-9,0,-14,4
-24,-39,-14,31,-4,-26,-4,-19,-14,0,-9,4
-24,-39,-14,31,-4,-26,-9,-19,-14,0,-9,14
-9,-39,-29,24,9,-34,-9,-24,-14,4,-4,14
-4,-39,-34,21,14,-36,-19,-29,-14,4,-4,14
0,-39,-39,19,19,-39,-19,-29,-14,4,-4,14
0,-39,-39,19,19,-39,-19,-29,-14,4,-9,9
9,-53,-63,21,36,-58,-29,-29,-14,0,-4,9
9,-53,-63,21,36,-58,-29,-29,-14,0,-4,4
9,-53,-63,21,36,-58,-34,-29,-14,0,-4,4
9,-53,-63,21,36,-58,-39,-34,-24,-4,-4,4
0,-43,-43,21,21,-43,-29,-34,-19,-4,-14,14
0,-43,-43,21,21,-43,-29,-34,-19,-4,-14,14
-4,-43,-39,24,17,-41,-24,-39,-19,-4,-14,14
-4,-48,-43,26,19,-46,-24,-39,-19,-14,-19,9
-4,-43,-39,24,17,-41,-14,-39,-24,-4,-24,14
-4,-48,-43,26,19,-46,-14,-39,-29,-9,-24,9
-9,-53,-43,31,17,-48,-9,-39,-29,-9,-19,9
-24,-58,-34,41,4,-46,-9,-39,-29,-14,-14,9
-19,-73,-53,46,17,-63,-14,-29,-29,-24,-29,-4
-24,-78,-53,51,14,-65,-14,-39,-29,-29,-34,-9
-29,-78,-48,53,9,-63,-14,-39,-39,-29,-39,-14
-34,-82,-48,58,7,-65,-9,-39,-39,-29,-39,-14
-39,-87,-48,63,4,-68,-4,-34,-34,-29,-39,-4
-43,-92,-48,68,2,-70,-4,-34,-34,-34,-43,-9
-43,-92,-48,68,2,-70,-9,-39,-39,-34,-43,-19
-43,-97,-53,70,4,-75,-9,-39,-39,-34,-48,-19
-53,-97,-43,75,-4,-70,0,-48,-39,-34,-43,-19
-53,-97,-43,75,-4,-70,-4,-48,-39,-39,-43,-19
-58,-107,-48,82,-4,-78,-4,-48,-48,-39,-48,-24
-63,-112,-48,87,-7,-80,0,-53,-48,-43,-53,-24
-58,-112,-53,85,-2,-82,-9,-43,-48,-53,-53,-29
-58,-112,-53,85,-2,-82,-4,-43,-48,-53,-53,-39
-58,-112,-53,85,-2,-82,-4,-43,-48,-53,-53,-43
-58,-117,-58,87,0,-87,0,-43,-48,-53,-53,-48
-58,-117,-58,87,0,-87,0,-48,-48,-53,-63,-39
-58,-117,-58,87,0,-87,-4,-48,-48,-53,-63,-39
-58,-112,-53,85,-2,-82,-4,-48,-48,-53,-63,-39
-58,-112,-53,85,-2,-82,0,-48,-48,-53,-63,-39
-63,-112,-48,87,-7,-80,0,-39,-48,-53,-68,-43
-63,-112,-48,87,-7,-80,0,-43,-53,-58,-68,-43
-63,-112,-48,87,-7,-80,0,-43,-53,-58,-68,-43
-63,-112,-48,87,-7,-80,0,-43,-53,-53,-68,-48
-63,-112,-48,87,-7,-80,0,-43,-48,-53,-68,-48
-63,-117,-53,90,-4,-85,0,-39,-48,-53,-68,-48
-63,-117,-53,90,-4,-85,0,-39,-48,-58,-68,-48
-63,-122,-58,92,-2,-90,0,-39,-48,-58,-68,-43
-73,-112,-39,92,-17,-75,0,-48,-48,-43,-68,-43
-78,-107,-29,92,-24,-68,0,-48,-48,-43,-68,-43
-78,-107,-29,92,-24,-68,0,-48,-48,-43,-68,-43
-73,-107,-34,90,-19,-70,4,-48,-43,-48,-68,-43
-73,-107,-34,90,-19,-70,4,-48,-43,-48,-68,-53
-73,-107,-34,90,-19,-70,4,-48,-43,-48,-68,-53
-73,-107,-34,90,-19,-70,4,-48,-43,-48,-68,-53
-73,-107,-34,90,-19,-70,4,-48,-43,-48,-68,-53
-63,-107,-43,85,-9,-75,4,-39,-43,-53,-78,-53
-63,-107,-43,85,-9,-75,4,-39,-43,-53,-73,-53
-63,-107,-43,85,-9,-75,9,-39,-43,-53,-73,-53
-68,-107,-39,87,-14,-73,9,-39,-43,-53,-73,-53
-68,-107,-39,87,-14,-73,9,-39,-43,-43,-63,-43
-68,-107,-39,87,-14,-73,9,-39,-43,-43,-68,-43
-68,-107,-39,87,-14,-73,9,-39,-43,-43,-68,-43
-68,-107,-39,87,-14,-73,9,-39,-43,-43,-63,-43
-68,-107,-39,87,-14,-73,9,-39,-43,-43,-63,-43
-68,-107,-39,87,-14,-73,9,-39,-43,-43,-63,-43
-68,-107,-39,87,-14,-73,9,-39,-43,-43,-63,-43
-68,-107,-39,87,-14,-73,9,-39,-43,-43,-63,-43
-68,-112,-43,90,-12,-78,9,-34,-34,-43,-68,-43
-68,-112,-43,90,-12,-78,9,-29,-34,-43,-68,-43
-68,-107,-39,87,-14,-73,14,-29,-39,-43,-68,-53
-73,-112,-39,92,-17,-75,14,-34,-39,-48,-78,-53
-78,-107,-29,92,-24,-68,29,-29,-39,-53,-78,-58
-87,-112,-24,100,-31,-68,34,-14,-34,-63,-92,-73
-82,-117,-34,100,-24,-75,48,0,-19,-53,-102,-78
-82,-117,-34,100,-24,-75,63,29,4,-34,-92,-78
-82,-131,-48,107,-17,-90,82,73,34,-9,-82,-78
-73,-126,-53,100,-9,-90,97,122,78,39,-34,-58
-43,-122,-78,82,17,-100,107,170,146,112,29,-24
0,-97,-97,48,48,-97,122,234,239,209,122,29
48,-78,-126,14,87,-102,146,312,336,307,219,73
97,-43,-141,-26,119,-92,161,375,434,409,312,126
170,-4,-175,-82,173,-90,161,429,517,517,424,214
263,53,-209,-158,236,-78,146,463,595,629,536,292
361,107,-253,-234,307,-73,131,507,688,751,663,385
473,190,-283,-331,378,-46,102,556,780,897,834,502
600,253,-346,-427,473,-46,43,575,873,1049,1000,619
717,317,-400,-517,558,-41,-24,556,941,1185,1156,732
824,380,-444,-602,634,-31,-112,507,971,1268,1278,824
868,453,-414,-661,641,19,-185,424,941,1298,1337,907
834,492,-341,-663,588,75,-239,287,839,1234,1312,936
736,507,-229,-622,483,139,-312,117,668,1098,1205,907
624,448,-175,-536,400,136,-375,-63,448,863,1000,805
546,336,-209,-441,378,63,-429,-204,258,595,746,644
468,219,-248,-344,358,-14,-453,-302,102,351,502,488
366,141,-224,-253,295,-41,-453,-400,-58,170,336,380
229,87,-141,-158,185,-26,-439,-497,-229,-4,195,292
92,14,-78,-53,85,-31,-429,-610,-419,-224,-4,170
-24,-63,-39,43,7,-51,-424,-707,-619,-458,-224,39
-92,-131,-39,112,-26,-85,-424,-741,-727,-590,-361,-48
-112,-151,-39,131,-36,-95,-414,-712,-727,-600,-390,-78
-117,-151,-34,134,-41,-92,-385,-653,-663,-556,-375,-87
-126,-126,0,126,-63,-63,-341,-580,-590,-502,-356,-87
-126,-112,14,119,-70,-48,-292,-492,-497,-434,-312,-78
-112,-112,0,112,-56,-56,-239,-405,-414,-356,-258,-78
-107,-102,4,104,-56,-48,-175,-322,-341,-307,-234,-78
-102,-97,4,100,-53,-46,-131,-263,-287,-263,-204,-73
-92,-92,0,92,-46,-46,-107,-229,-239,-219,-180,-63
-73,-82,-9,78,-31,-46,-102,-200,-200,-180,-156,-48
-68,-78,-9,73,-29,-43,-92,-175,-170,-161,-146,-48
-78,-73,4,75,-41,-34,-87,-156,-156,-141,-141,-48
-78,-73,4,75,-41,-34,-78,-141,-146,-131,-131,-48
-82,-73,9,78,-46,-31,-58,-122,-126,-117,-122,-39
-82,-73,9,78,-46,-31,-34,-97,-102,-97,-112,-39
-78,-73,4,75,-41,-34,-4,-73,-68,-78,-97,-39
-78,-73,4,75,-41,-34,9,-48,-48,-58,-78,-34
-73,-78,-4,75,-34,-41,14,-39,-39,-53,-78,-34
-63,-87,-24,75,-19,-56,4,-39,-39,-53,-78,-34
-63,-87,-24,75,-19,-56,4,-39,-39,-53,-82,-34
-63,-92,-29,78,-17,-61,4,-39,-39,-58,-82,-34
-68,-97,-29,82,-19,-63,4,-39,-39,-58,-82,-34
-68,-102,-34,85,-17,-68,9,-29,-34,-63,-82,-34
-68,-102,-34,85,-17,-68,14,-24,-29,-58,-82,-39
-68,-97,-29,82,-19,-63,19,-19,-19,-53,-78,-39
-68,-97,-29,82,-19,-63,24,-19,-14,-48,-78,-39
-68,-87,-19,78,-24,-53,14,-14,-14,-34,-73,-48
-68,-87,-19,78,-24,-53,14,-14,-14,-34,-73,-48
-68,-92,-24,80,-21,-58,14,-9,-14,-34,-73,-48
-68,-92,-24,80,-21,-58,19,-9,-14,-34,-68,-43
-63,-92,-29,78,-17,-61,19,-9,-24,-29,-68,-34
-63,-92,-29,78,-17,-61,19,-9,-19,-29,-63,-39
-63,-92,-29,78,-17,-61,24,-4,-19,-29,-63,-39
-63,-92,-29,78,-17,-61,24,0,-14,-24,-58,-39
-63,-92,-29,78,-17,-61,24,0,-4,-24,-58,-39
-63,-87,-24,75,-19,-56,29,4,0,-24,-58,-39
-58,-87,-29,73,-14,-58,29,4,0,-24,-63,-39
-58,-87,-29,73,-14,-58,24,4,0,-19,-63,-39
-58,-87,-29,73,-14,-58,34,4,-4,-19,-58,-39
-58,-87,-29,73,-14,-58,34,4,-4,-19,-58,-34
-58,-87,-29,73,-14,-58,39,4,-4,-19,-58,-34
-58,-87,-29,73,-14,-58,39,9,-4,-19,-53,-34
-68,-87,-19,78,-24,-53,39,9,0,-14,-53,-29
-63,-87,-24,75,-19,-56,39,9,0,-14,-48,-29
-63,-87,-24,75,-19,-56,34,14,0,-9,-48,-24
-63,-87,-24,75,-19,-56,34,14,0,-9,-48,-24
-53,-87,-34,70,-9,-61,39,14,4,-9,-48,-34
-53,-87,-34,70,-9,-61,39,19,4,-9,-48,-34
-48,-87,-39,68,-4,-63,34,19,4,-4,-43,-34
-48,-87,-39,68,-4,-63,34,19,9,-4,-43,-34
-58,-87,-29,73,-14,-58,34,19,19,0,-34,-24
-58,-87,-29,73,-14,-58,34,19,19,0,-34,-24
-53,-78,-24,65,-14,-51,34,19,19,0,-34,-19
-53,-78,-24,65,-14,-51,34,24,19,0,-29,-19
-53,-78,-24,65,-14,-51,39,24,24,0,-29,-29
-53,-78,-24,65,-14,-51,39,24,24,4,-29,-29
-53,-78,-24,65,-14,-51,39,29,24,4,-24,-24
-53,-78,-24,65,-14,-51,39,29,29,9,-24,-24
-43,-78,-34,61,-4,-56,39,29,29,9,-29,-19
-43,-78,-34,61,-4,-56,39,29,29,9,-29,-19
-43,-68,-24,56,-9,-46,39,34,34,9,-29,-19
-39,-68,-29,53,-4,-48,39,34,34,14,-24,-14
-39,-63,-24,51,-7,-43,39,34,39,19,-24,-14
-39,-63,-24,51,-7,-43,39,39,43,19,-24,-14
-34,-63,-29,48,-2,-46,39,43,43,19,-19,-14
-34,-58,-24,46,-4,-41,39,43,43,24,-19,-14
-34,-58,-24,46,-4,-41,39,53,53,24,-9,-14
-34,-53,-19,43,-7,-36,48,53,53,24,-9,-9
-34,-53,-19,43,-7,-36,48,53,53,29,-9,-9
-29,-53,-24,41,-2,-39,43,58,58,34,-4,-9
-29,-53,-24,41,-2,-39,43,63,53,29,-9,-9
-29,-48,-19,39,-4,-34,43,68,58,34,-4,-4
-24,-48,-24,36,0,-36,43,68,58,34,0,0
-19,-43,-24,31,2,-34,43,73,63,39,0,0
-19,-43,-24,31,2,-34,43,78,68,43,14,4
-19,-39,-19,29,0,-29,48,82,68,48,19,9
-14,-39,-24,26,4,-31,48,82,73,53,24,9
-9,-34,-24,21,7,-29,53,87,78,58,24,9
-9,-29,-19,19,4,-24,48,92,92,63,29,9
-9,-29,-19,19,4,-24,48,102,97,68,34,19
-4,-29,-24,17,9,-26,48,107,102,73,39,24
4,-19,-24,7,14,-21,48,117,112,78,43,29
4,-24,-29,9,17,-26,48,122,117,87,53,34
9,-19,-29,4,19,-24,53,126,122,92,58,39
14,-19,-34,2,24,-26,53,131,131,97,68,43
19,-14,-34,-2,26,-24,58,136,136,107,73,48
24,-9,-34,-7,29,-21,58,141,136,117,68,53
24,-4,-29,-9,26,-17,58,151,151,117,82,58
29,-4,-34,-12,31,-19,63,156,161,126,87,63
34,0,-34,-17,34,-17,63,161,165,136,97,73
29,4,-24,-17,26,-9,63,165,175,141,107,73
34,9,-24,-21,29,-7,63,180,175,156,122,82
39,14,-24,-26,31,-4,63,185,190,161,131,87
43,19,-24,-31,34,-2,63,190,190,170,131,92
53,39,-14,-46,34,12,63,195,200,180,141,87
53,39,-14,-46,34,12,63,200,204,185,151,102
58,39,-19,-48,39,9,63,204,219,195,161,107
63,48,-14,-56,39,17,63,209,224,204,165,122
78,58,-19,-68,48,19,63,219,234,214,175,131
82,58,-24,-70,53,17,63,224,239,224,185,131
82,63,-19,-73,51,21,63,229,253,234,195,136
87,68,-19,-78,53,24,63,229,258,244,204,141
92,63,-29,-78,61,17,63,234,258,248,219,156
97,68,-29,-82,63,19,63,239,263,253,229,156
102,73,-29,-87,65,21,63,244,273,263,229,161
107,78,-29,-92,68,24,58,244,278,268,239,165
112,82,-29,-97,70,26,58,248,287,283,248,170
117,82,-34,-100,75,24,63,248,292,292,253,175
117,87,-29,-102,73,29,63,248,297,292,258,175
117,87,-29,-102,73,29,58,248,302,302,263,175
117,92,-24,-104,70,34,58,263,302,307,263,190
122,92,-29,-107,75,31,58,263,302,307,268,195
122,92,-29,-107,75,31,58,263,307,312,273,200
122,92,-29,-107,75,31,58,263,307,317,278,200
136,87,-48,-112,92,19,58,253,307,317,278,190
136,87,-48,-112,92,19,58,253,307,317,283,190
136,87,-48,-112,92,19,58,248,307,317,283,195
136,92,-43,-114,90,24,58,248,302,317,283,195
131,92,-39,-112,85,26,58,253,307,312,287,204
131,92,-39,-112,85,26,58,248,307,312,287,204
131,87,-43,-109,87,21,53,239,307,312,287,204
131,87,-43,-109,87,21,48,234,297,307,283,200
126,87,-39,-107,82,24,48,224,287,307,283,200
126,87,-39,-107,82,24,48,219,278,297,273,190
122,78,-43,-100,82,17,48,214,273,287,263,185
122,68,-53,-95,87,7,48,204,263,278,258,175
117,63,-53,-90,85,4,48,195,253,268,239,165
112,58,-53,-85,82,2,39,185,244,253,229,156
112,53,-58,-82,85,-2,39,175,234,244,214,151
102,43,-58,-73,80,-7,39,165,224,239,204,136
87,34,-53,-61,70,-9,39,156,214,224,209,131
78,29,-48,-53,63,-9,34,146,200,209,195,126
68,24,-43,-46,56,-9,34,141,190,195,185,122
63,14,-48,-39,56,-17,34,131,180,190,175,112
68,4,-63,-36,65,-29,24,122,170,175,151,97
58,0,-58,-29,58,-29,24,112,161,165,146,87
53,0,-53,-26,53,-26,24,102,151,156,141,78
48,-4,-53,-21,51,-29,24,102,146,146,122,73
34,-14,-48,-9,41,-31,24,97,131,131,122,78
29,-24,-53,-2,41,-39,24,92,122,122,107,68
24,-24,-48,0,36,-36,24,82,112,112,102,63
24,-29,-53,2,39,-41,24,78,107,107,97,53
14,-39,-53,12,34,-46,19,58,97,87,78,48
9,-48,-58,19,34,-53,19,53,87,78,68,39
9,-53,-63,21,36,-58,19,48,78,73,58,34
4,-58,-63,26,34,-61,19,48,68,63,58,24
4,-63,-68,29,36,-65,9,43,68,53,58,19
0,-63,-63,31,31,-63,4,39,58,48,48,14
0,-63,-63,31,31,-63,4,39,58,43,48,14
-4,-68,-63,36,29,-65,4,34,53,34,39,14
-9,-68,-58,39,24,-63,9,29,43,34,34,9
-14,-68,-53,41,19,-61,9,19,39,34,29,4
-14,-73,-58,43,21,-65,9,19,34,29,29,0
-19,-78,-58,48,19,-68,9,19,34,29,29,0
-19,-78,-58,48,19,-68,14,19,39,29,24,0
-19,-82,-63,51,21,-73,14,14,34,24,19,0
-19,-82,-63,51,21,-73,9,9,29,19,14,-9
-19,-82,-63,51,21,-73,9,9,24,14,9,-9
-19,-78,-58,48,19,-68,9,0,14,4,9,-19
-19,-78,-58,48,19,-68,9,0,14,0,9,-19
-24,-78,-53,51,14,-65,9,-4,14,-4,4,-19
-24,-78,-53,51,14,-65,9,-9,14,-4,4,-19
-29,-87,-58,58,14,-73,9,0,14,4,4,-29
-29,-82,-53,56,12,-68,9,0,9,4,4,-29
-29,-82,-53,56,12,-68,4,0,9,4,0,-29
-29,-82,-53,56,12,-68,4,0,9,0,0,-29
-43,-78,-34,61,-4,-56,4,4,4,0,0,-19
-43,-78,-34,61,-4,-56,4,4,4,0,-4,-19
-43,-78,-34,61,-4,-56,4,4,0,0,-4,-29
-39,-78,-39,58,0,-58,4,4,0,0,-4,-29
-39,-82,-43,61,2,-63,4,-4,9,0,-9,-19
-43,-82,-39,63,-2,-61,4,-9,9,-4,-9,-24
-43,-82,-39,63,-2,-61,0,-9,9,-4,-9,-24
-43,-82,-39,63,-2,-61,0,-9,9,-4,-9,-24
-43,-73,-29,58,-7,-51,0,0,0,-4,-9,-24
-43,-73,-29,58,-7,-51,0,0,-4,-4,-9,-24
-39,-73,-34,56,-2,-53,0,0,-4,0,-4,-24
-39,-78,-39,58,0,-58,4,0,-4,0,-4,-24
-39,-78,-39,58,0,-58,-4,0,-4,-9,-4,-29
-43,-73,-29,58,-7,-51,-4,-4,-4,-9,-4,-29
-43,-73,-29,58,-7,-51,-4,-4,-4,-9,-9,-24
-43,-73,-29,58,-7,-51,-9,-4,-4,-9,-9,-24
-34,-73,-39,53,2,-56,0,-14,-4,-9,-9,-24
-39,-73,-34,56,-2,-53,0,-14,-4,-9,-14,-24
-39,-73,-34,56,-2,-53,0,-14,-4,-9,-14,-24
-39,-73,-34,56,-2,-53,0,-9,-4,-9,-14,-24
-39,-73,-34,56,-2,-53,0,-9,-4,-14,-14,-34
-39,-73,-34,56,-2,-53,0,-9,-4,-14,-14,-34
-39,-73,-34,56,-2,-53,0,-9,-4,-19,-9,-34
-39,-73,-34,56,-2,-53,0,-9,-4,-19,-9,-34
-48,-73,-24,61,-12,-48,0,0,-4,-14,-9,-24
-48,-73,-24,61,-12,-48,0,0,-4,-14,-9,-24
-48,-73,-24,61,-12,-48,0,0,-4,-14,-14,-24
-53,-73,-19,63,-17,-46,0,0,-4,-14,-14,-24
-43,-68,-24,56,-9,-46,0,-9,-4,-14,-14,-34
-39,-68,-29,53,-4,-48,0,-9,-4,-14,-14,-34
-39,-68,-29,53,-4,-48,0,-9,-4,-14,-14,-34
-43,-68,-24,56,-9,-46,4,-9,-9,-19,-14,-34
-53,-68,-14,61,-19,-41,4,-9,-9,-29,-24,-34
-53,-63,-9,58,-21,-36,4,-9,-9,-24,-24,-34
-53,-63,-9,58,-21,-36,4,-9,-9,-24,-24,-34
-48,-68,-19,58,-14,-43,4,-9,-9,-24,-24,-34
-48,-68,-19,58,-14,-43,4,-9,-9,-24,-24,-34
-48,-68,-19,58,-14,-43,4,-9,-9,-24,-24,-34
-48,-63,-14,56,-17,-39,4,-9,-9,-24,-24,-39
-48,-63,-14,56,-17,-39,4,-9,-9,-19,-24,-39
-48,-73,-24,61,-12,-48,4,-9,-9,-19,-24,-39
-48,-68,-19,58,-14,-43,4,-9,-9,-19,-24,-34
-48,-68,-19,58,-14,-43,4,-9,-9,-19,-24,-34
-48,-68,-19,58,-14,-43,4,-9,-9,-24,-19,-29
-48,-63,-14,56,-17,-39,4,-9,-9,-24,-29,-39
-48,-63,-14,56,-17,-39,4,-9,-9,-24,-29,-39
-48,-63,-14,56,-17,-39,4,-14,-9,-24,-29,-39
-53,-63,-9,58,-21,-36,4,-14,-4,-19,-29,-39
-53,-63,-9,58,-21,-36,4,-14,-14,-19,-29,-39
-53,-63,-9,58,-21,-36,4,-14,-14,-24,-29,-39
-53,-63,-9,58,-21,-36,4,-14,-14,-24,-29,-39
-48,-63,-14,56,-17,-39,4,-14,-14,-24,-29,-39
-48,-63,-14,56,-17,-39,4,-14,-14,-24,-29,-39
-48,-63,-14,56,-17,-39,4,-14,-14,-19,-29,-39
-48,-63,-14,56,-17,-39,4,-14,-14,-19,-29,-39
-48,-58,-9,53,-19,-34,4,-14,-14,-19,-24,-39
-48,-58,-9,53,-19,-34,4,-14,-19,-19,-34,-39
-48,-58,-9,53,-19,-34,4,-19,-19,-19,-34,-39
-48,-58,-9,53,-19,-34,0,-19,-19,-19,-34,-39
-48,-58,-9,53,-19,-34,0,-19,-19,-19,-34,-39
-48,-58,-9,53,-19,-34,0,-19,-19,-24,-24,-39
-48,-58,-9,53,-19,-34,0,-19,-24,-24,-24,-39
-43,-58,-14,51,-14,-36,0,-19,-24,-24,-24,-39
-43,-58,-14,51,-14,-36,4,-19,-24,-24,-24,-39
-43,-58,-14,51,-14,-36,4,-19,-24,-14,-34,-39
-43,-58,-14,51,-14,-36,4,-19,-19,-14,-34,-39
-43,-58,-14,51,-14,-36,4,-19,-19,-14,-34,-39
-43,-58,-14,51,-14,-36,4,-19,-19,-14,-34,-39
-43,-58,-14,51,-14,-36,-4,-19,-19,-14,-34,-39
-43,-58,-14,51,-14,-36,-4,-19,-19,-14,-34,-39
-43,-58,-14,51,-14,-36,-4,-14,-19,-14,-34,-39
-43,-63,-19,53,-12,-41,-4,-14,-19,-14,-34,-39
-43,-63,-19,53,-12,-41,-4,-14,-24,-14,-34,-39
-43,-58,-14,51,-14,-36,-9,-19,-24,-14,-34,-39
-43,-58,-14,51,-14,-36,-9,-19,-19,-14,-34,-39
-43,-58,-14,51,-14,-36,-9,-19,-19,-14,-34,-39
-43,-58,-14,51,-14,-36,0,-19,-19,-24,-34,-39
-43,-58,-14,51,-14,-36,0,-19,-19,-24,-34,-39
-43,-58,-14,51,-14,-36,0,-19,-19,-24,-34,-39
-43,-58,-14,51,-14,-36,4,-19,-19,-24,-34,-39
-43,-58,-14,51,-14,-36,-4,-19,-19,-14,-34,-39
-43,-58,-14,51,-14,-36,-4,-19,-19,-14,-34,-39
-43,-58,-14,51,-14,-36,-9,-19,-19,-14,-34,-39
-43,-58,-14,51,-14,-36,-9,-19,-19,-19,-34,-39
-43,-63,-19,53,-12,-41,0,-19,-14,-19,-34,-39
-43,-63,-19,53,-12,-41,0,-19,-14,-19,-34,-39
-43,-63,-19,53,-12,-41,0,-19,-14,-19,-34,-39
-43,-63,-19,53,-12,-41,0,-19,-14,-19,-34,-43
-34,-53,-19,43,-7,-36,0,-19,-14,-19,-39,-43
-34,-53,-19,43,-7,-36,0,-19,-14,-19,-39,-39
-34,-53,-19,43,-7,-36,0,-19,-14,-19,-43,-39
-34,-53,-19,43,-7,-36,0,-19,-14,-19,-43,-43
-34,-63,-29,48,-2,-46,0,-19,-14,-24,-34,-43
-34,-63,-29,48,-2,-46,-4,-24,-14,-24,-34,-43
-34,-63,-29,48,-2,-46,-4,-29,-14,-24,-34,-43
-34,-63,-29,48,-2,-46,-4,-29,-19,-24,-34,-43
-34,-63,-29,48,-2,-46,-4,-29,-19,-24,-39,-43
-34,-63,-29,48,-2,-46,-4,-29,-19,-24,-39,-43
-34,-63,-29,48,-2,-46,-4,-29,-19,-24,-39,-43
-34,-63,-29,48,-2,-46,-4,-29,-14,-24,-39,-43
-43,-73,-29,58,-7,-51,-4,-29,-14,-24,-39,-34
-43,-73,-29,58,-7,-51,-4,-29,-19,-24,-39,-34
-43,-73,-29,58,-7,-51,-4,-29,-19,-24,-39,-34
-43,-78,-34,61,-4,-56,-4,-24,-19,-24,-39,-34
-34,-68,-34,51,0,-51,-4,-24,-19,-24,-34,-43
-34,-68,-34,51,0,-51,-4,-29,-19,-24,-39,-48
-34,-63,-29,48,-2,-46,-4,-29,-19,-24,-39,-48
-34,-63,-29,48,-2,-46,-4,-29,-19,-29,-39,-48
-43,-73,-29,58,-7,-51,-4,-29,-19,-29,-48,-48
-43,-78,-34,61,-4,-56,0,-29,-19,-24,-48,-48
-43,-78,-34,61,-4,-56,0,-34,-19,-24,-48,-48
-43,-78,-34,61,-4,-56,0,-34,-19,-24,-48,-48
-43,-78,-34,61,-4,-56,0,-34,-19,-29,-48,-48
-43,-78,-34,61,-4,-56,0,-34,-19,-29,-48,-48
-43,-78,-34,61,-4,-56,0,-34,-19,-29,-43,-48
-43,-78,-34,61,-4,-56,-4,-34,-19,-29,-43,-48
-34,-78,-43,56,4,-61,-4,-34,-19,-29,-48,-48
-34,-82,-48,58,7,-65,-4,-34,-19,-29,-48,-48
-34,-82,-48,58,7,-65,-4,-34,-19,-29,-43,-48
-34,-82,-48,58,7,-65,-4,-34,-19,-29,-43,-43
-43,-73,-29,58,-7,-51,-4,-34,-29,-29,-53,-43
-43,-73,-29,58,-7,-51,-4,-34,-24,-29,-53,-48
-43,-78,-34,61,-4,-56,-4,-34,-24,-29,-53,-48
-43,-78,-34,61,-4,-56,-4,-34,-29,-29,-53,-48
-43,-78,-34,61,-4,-56,-4,-34,-29,-29,-53,-53
-43,-73,-29,58,-7,-51,0,-34,-29,-29,-53,-53
-43,-73,-29,58,-7,-51,0,-29,-24,-29,-53,-53
-43,-68,-24,56,-9,-46,0,-29,-24,-24,-48,-48
-43,-78,-34,61,-4,-56,0,-29,-29,-34,-48,-48
-43,-78,-34,61,-4,-56,0,-29,-29,-34,-48,-48
-43,-78,-34,61,-4,-56,0,-29,-24,-34,-48,-53
-43,-78,-34,61,-4,-56,0,-29,-24,-34,-48,-53
-39,-78,-39,58,0,-58,0,-29,-29,-34,-48,-48
-39,-73,-34,56,-2,-53,0,-29,-29,-34,-48,-48
-39,-73,-34,56,-2,-53,4,-29,-29,-34,-48,-48
-39,-68,-29,53,-4,-48,4,-29,-29,-34,-48,-48
-43,-73,-29,58,-7,-51,4,-34,-24,-34,-43,-53
-43,-73,-29,58,-7,-51,4,-34,-19,-34,-48,-43
-43,-73,-29,58,-7,-51,4,-34,-19,-34,-48,-43
-43,-73,-29,58,-7,-51,4,-29,-19,-29,-48,-48
-43,-78,-34,61,-4,-56,0,-29,-19,-24,-48,-58
-39,-78,-39,58,0,-58,0,-29,-19,-29,-48,-48
-39,-78,-39,58,0,-58,0,-29,-19,-29,-48,-48
-39,-78,-39,58,0,-58,0,-29,-19,-29,-48,-48
-39,-78,-39,58,0,-58,0,-29,-19,-29,-48,-48
-39,-78,-39,58,0,-58,0,-29,-19,-29,-48,-48
-34,-63,-29,48,-2,-46,0,-19,-19,-14,-43,-39
-29,-58,-29,43,0,-43,0,-19,-14,-9,-43,-39
-29,-48,-19,39,-4,-34,0,-19,-14,-9,-39,-34
-29,-43,-14,36,-7,-29,4,-19,-14,0,-39,-29
-24,-39,-14,31,-4,-26,4,-14,0,0,-43,-39
-24,-34,-9,29,-7,-21,4,-9,0,-4,-34,-29
-24,-34,-9,29,-7,-21,4,-4,4,-9,-34,-29
-24,-34,-9,29,-7,-21,4,-4,9,-9,-29,-29
-24,-43,-19,34,-2,-31,4,-14,0,0,-29,-29
-24,-39,-14,31,-4,-26,4,-14,0,0,-29,-29
-29,-34,-4,31,-12,-19,4,-14,-4,0,-29,-29
-29,-34,-4,31,-12,-19,4,-14,-4,0,-34,-29
-24,-34,-9,29,-7,-21,-4,-14,-4,0,-34,-39
-24,-34,-9,29,-7,-21,-4,-19,-4,0,-34,-39
-24,-34,-9,29,-7,-21,-4,-19,-4,0,-34,-39
-14,-29,-14,21,0,-21,-9,-19,-4,0,-29,-34
-14,-24,-9,19,-2,-17,-9,-29,-9,-4,-34,-29
-4,-24,-19,14,7,-21,-19,-29,-9,0,-34,-24
0,-19,-19,9,9,-19,-24,-29,-14,0,-29,-24
4,-19,-24,7,14,-21,-29,-29,-14,0,-29,-14
9,-19,-29,4,19,-24,-29,-34,-14,-4,-24,-14
14,-19,-34,2,24,-26,-39,-39,-14,-4,-24,-14
19,-19,-39,0,29,-29,-39,-39,-14,-4,-24,-14
19,-19,-39,0,29,-29,-39,-39,-14,-4,-29,-19
19,-24,-43,2,31,-34,-39,-29,-14,-9,-34,-19
19,-24,-43,2,31,-34,-39,-29,-14,-9,-34,-24
19,-24,-43,2,31,-34,-43,-29,-14,-9,-34,-24
19,-24,-43,2,31,-34,-48,-34,-24,-14,-34,-24
19,-24,-43,2,31,-34,-48,-34,-29,-14,-43,-24
19,-24,-43,2,31,-34,-48,-34,-29,-14,-43,-24
14,-24,-39,4,26,-31,-43,-39,-29,-14,-43,-24
14,-29,-43,7,29,-36,-43,-39,-29,-24,-48,-29
14,-24,-39,4,26,-31,-43,-39,-24,-14,-48,-24
14,-29,-43,7,29,-36,-43,-39,-29,-19,-53,-29
9,-34,-43,12,26,-39,-39,-39,-29,-19,-53,-29
-4,-39,-34,21,14,-36,-39,-39,-29,-24,-53,-29
-9,-53,-43,31,17,-48,-24,-39,-39,-34,-58,-43
-14,-58,-43,36,14,-51,-24,-48,-39,-39,-63,-48
-19,-58,-39,39,9,-48,-24,-48,-48,-39,-68,-53
-24,-63,-39,43,7,-51,-19,-48,-48,-39,-68,-53
-29,-68,-39,48,4,-53,-14,-43,-43,-39,-68,-53
-34,-73,-39,53,2,-56,-14,-43,-43,-43,-73,-58
-34,-73,-39,53,2,-56,-19,-48,-48,-43,-73,-68
-34,-78,-43,56,4,-61,-19,-48,-48,-43,-78,-68
-34,-68,-34,51,0,-51,-19,-48,-39,-43,-73,-58
-34,-68,-34,51,0,-51,-24,-48,-39,-48,-73,-58
-39,-78,-39,58,0,-58,-24,-48,-48,-48,-78,-63
-43,-82,-39,63,-2,-61,-19,-53,-48,-53,-82,-63
-48,-82,-34,65,-7,-58,-19,-53,-48,-53,-82,-73
-48,-82,-34,65,-7,-58,-14,-53,-48,-53,-82,-78
-48,-82,-34,65,-7,-58,-14,-53,-48,-53,-82,-78
-48,-87,-39,68,-4,-63,-9,-53,-48,-53,-82,-78
-48,-97,-48,73,0,-73,-9,-58,-48,-63,-92,-78
-48,-97,-48,73,0,-73,-14,-58,-48,-63,-92,-78
-48,-92,-43,70,-2,-68,-14,-58,-48,-63,-92,-78
-48,-92,-43,70,-2,-68,-9,-58,-48,-63,-92,-78
-43,-92,-48,68,2,-70,-9,-48,-48,-63,-87,-82
-43,-92,-48,68,2,-70,-9,-53,-53,-68,-87,-82
-43,-92,-48,68,2,-70,-9,-53,-53,-68,-87,-82
-43,-92,-48,68,2,-70,-9,-53,-53,-63,-87,-87
-53,-82,-29,68,-12,-56,-9,-63,-58,-63,-97,-87
-53,-87,-34,70,-9,-61,-9,-58,-58,-63,-97,-87
-53,-87,-34,70,-9,-61,-9,-58,-58,-68,-97,-87
-53,-92,-39,73,-7,-65,-9,-58,-58,-68,-97,-82
-43,-92,-48,68,2,-70,-9,-48,-58,-63,-97,-82
-48,-87,-39,68,-4,-63,-9,-48,-58,-63,-97,-82
-48,-87,-39,68,-4,-63,-9,-48,-58,-63,-97,-82
-43,-87,-43,65,0,-65,-4,-48,-53,-68,-97,-82
-53,-87,-34,70,-9,-61,-4,-48,-53,-58,-87,-82
-53,-87,-34,70,-9,-61,-4,-48,-53,-58,-87,-82
-53,-87,-34,70,-9,-61,-4,-48,-53,-58,-87,-82
-53,-87,-34,70,-9,-61,-4,-48,-53,-58,-87,-82
-53,-87,-34,70,-9,-61,-4,-48,-43,-53,-97,-82
-53,-87,-34,70,-9,-61,-4,-48,-43,-53,-92,-82
-53,-87,-34,70,-9,-61,0,-48,-43,-53,-92,-82
-58,-87,-29,73,-14,-58,0,-48,-43,-53,-92,-82
-48,-78,-29,63,-9,-53,0,-39,-43,-53,-82,-82
-48,-78,-29,63,-9,-53,0,-39,-43,-53,-87,-82
-48,-78,-29,63,-9,-53,0,-39,-43,-53,-87,-82
-48,-78,-29,63,-9,-53,0,-39,-43,-53,-82,-82
-58,-78,-19,68,-19,-48,0,-39,-43,-53,-92,-82
-58,-78,-19,68,-19,-48,0,-39,-43,-53,-92,-82
-58,-78,-19,68,-19,-48,0,-39,-43,-53,-92,-82
-58,-78,-19,68,-19,-48,0,-39,-43,-53,-92,-82
-58,-82,-24,70,-17,-53,0,-34,-43,-53,-87,-82
-58,-82,-24,70,-17,-53,0,-29,-34,-53,-87,-82
-58,-87,-29,73,-14,-58,4,-29,-39,-53,-87,-82
-63,-82,-19,73,-21,-51,4,-24,-39,-58,-97,-92
-68,-87,-19,78,-24,-53,9,-29,-39,-63,-107,-97
-68,-92,-24,80,-21,-58,14,-14,-34,-73,-112,-112
-73,-97,-24,85,-24,-61,39,9,-29,-63,-112,-117
-73,-97,-24,85,-24,-61,53,29,-4,-53,-112,-117
-63,-92,-29,78,-17,-61,73,73,34,-19,-92,-117
-43,-97,-53,70,4,-75,87,122,97,39,-43,-87
-14,-82,-68,48,26,-75,97,180,175,131,39,-34
19,-68,-87,24,53,-78,112,253,268,229,131,9
68,-29,-97,-19,82,-63,136,322,366,326,219,53
136,14,-122,-75,129,-53,141,385,444,429,322,117
219,63,-156,-141,187,-46,131,429,527,527,434,185
322,112,-209,-217,265,-48,117,473,605,639,556,283
429,165,-263,-297,346,-48,102,517,707,780,702,385
551,229,-322,-390,436,-46,73,566,810,936,873,502
678,292,-385,-485,531,-46,14,575,893,1078,1029,619
785,356,-429,-570,607,-36,-63,546,951,1195,1176,722
863,429,-434,-646,649,-2,-141,488,961,1259,1268,805
888,492,-395,-690,641,48,-204,385,902,1259,1298,868
834,541,-292,-688,563,124,-268,239,780,1176,1254,888
717,536,-180,-627,448,178,-322,68,590,1010,1117,829
605,448,-156,-527,380,146,-375,-102,380,766,902,707
527,326,-200,-427,363,63,-429,-244,180,488,639,546
458,219,-239,-339,348,-9,-444,-341,14,253,405,400
336,151,-185,-244,261,-17,-434,-439,-136,92,248,312
180,107,-73,-143,126,17,-419,-546,-297,-92,87,214
43,34,-9,-39,26,12,-409,-658,-507,-331,-131,82
-63,-43,19,53,-41,-12,-405,-746,-688,-536,-331,-39
-112,-102,9,107,-61,-46,-405,-761,-766,-619,-409,-107
-112,-112,0,112,-56,-56,-405,-722,-736,-610,-419,-126
-117,-112,4,114,-61,-53,-385,-663,-673,-575,-405,-136
-126,-97,29,112,-78,-34,-331,-580,-590,-502,-366,-136
-117,-92,24,104,-70,-34,-283,-483,-497,-424,-322,-126
-112,-82,29,97,-70,-26,-229,-395,-405,-356,-287,-126
-107,-82,24,95,-65,-29,-175,-312,-331,-307,-253,-117
-92,-68,24,80,-58,-21,-131,-253,-278,-253,-214,-122
-82,-63,19,73,-51,-21,-117,-219,-239,-219,-190,-112
-63,-53,9,58,-36,-21,-102,-200,-209,-190,-175,-97
-58,-39,19,48,-39,-9,-92,-175,-180,-161,-156,-87
-58,-43,14,51,-36,-14,-87,-165,-165,-141,-141,-78
-68,-43,24,56,-46,-9,-68,-141,-146,-131,-141,-78
-63,-43,19,53,-41,-12,-58,-122,-126,-117,-131,-78
-63,-43,19,53,-41,-12,-34,-87,-92,-97,-122,-78
-58,-43,14,51,-36,-14,-14,-63,-68,-78,-97,-78
-58,-43,14,51,-36,-14,0,-48,-58,-68,-87,-73
-53,-48,4,51,-29,-21,4,-39,-48,-63,-87,-73
-53,-48,4,51,-29,-21,-4,-39,-48,-63,-87,-73
-53,-48,4,51,-29,-21,-4,-39,-48,-63,-92,-73
-53,-53,0,53,-26,-26,-4,-39,-48,-68,-92,-73
-58,-58,0,58,-29,-29,-4,-39,-48,-68,-92,-73
-58,-63,-4,61,-26,-34,0,-39,-43,-63,-92,-73
-58,-63,-4,61,-26,-34,4,-34,-39,-58,-92,-78
-58,-58,0,58,-29,-29,9,-29,-29,-53,-87,-78
-58,-58,0,58,-29,-29,14,-29,-24,-48,-87,-78
-58,-58,0,58,-29,-29,14,-24,-34,-43,-82,-87
-58,-58,0,58,-29,-29,14,-24,-34,-43,-82,-87
-58,-63,-4,61,-26,-34,14,-19,-34,-43,-82,-87
-58,-63,-4,61,-26,-34,19,-19,-34,-43,-78,-82
-43,-63,-19,53,-12,-41,19,-9,-24,-39,-87,-82
-43,-63,-19,53,-12,-41,19,-9,-19,-39,-82,-87
-43,-63,-19,53,-12,-41,24,-4,-19,-39,-82,-87
-43,-63,-19,53,-12,-41,24,0,-14,-34,-78,-87
-43,-63,-19,53,-12,-41,24,-9,-14,-34,-78,-78
-43,-58,-14,51,-14,-36,29,-4,-9,-34,-78,-78
-39,-58,-19,48,-9,-39,29,-4,-9,-34,-82,-78
-39,-58,-19,48,-9,-39,24,-4,-9,-29,-82,-78
-39,-58,-19,48,-9,-39,24,-4,-14,-29,-78,-78
-39,-58,-19,48,-9,-39,24,-4,-14,-29,-78,-73
-39,-58,-19,48,-9,-39,29,-4,-14,-29,-78,-73
-39,-58,-19,48,-9,-39,29,0,-14,-29,-73,-73
-48,-48,0,48,-24,-24,29,0,-9,-34,-73,-78
-43,-48,-4,46,-19,-26,29,0,-9,-34,-68,-78
-43,-48,-4,46,-19,-26,24,4,-9,-29,-68,-73
-43,-48,-4,46,-19,-26,24,4,-9,-29,-68,-73
-34,-48,-14,41,-9,-31,29,4,-4,-29,-68,-73
-34,-48,-14,41,-9,-31,29,9,-4,-29,-68,-73
-29,-48,-19,39,-4,-34,24,9,-4,-24,-63,-73
-29,-48,-19,39,-4,-34,24,9,0,-24,-63,-73
-39,-58,-19,48,-9,-39,24,9,9,-9,-53,-73
-39,-58,-19,48,-9,-39,24,9,9,-9,-53,-73
-34,-48,-14,41,-9,-31,24,9,9,-9,-53,-68
-34,-48,-14,41,-9,-31,24,14,9,-9,-48,-68
-34,-58,-24,46,-4,-41,29,14,14,-9,-48,-68
-34,-58,-24,46,-4,-41,29,14,14,-4,-48,-68
-34,-58,-24,46,-4,-41,29,19,14,-4,-43,-63
-34,-58,-24,46,-4,-41,29,19,19,0,-43,-63
-34,-48,-14,41,-9,-31,39,19,19,0,-48,-68
-34,-48,-14,41,-9,-31,39,19,19,0,-48,-68
-34,-39,-4,36,-14,-21,39,24,24,0,-48,-68
-29,-39,-9,34,-9,-24,39,24,24,4,-43,-63
-29,-34,-4,31,-12,-19,39,24,29,0,-43,-53
-29,-34,-4,31,-12,-19,39,29,34,0,-43,-53
-24,-34,-9,29,-7,-21,39,34,34,0,-39,-53
-24,-29,-4,26,-9,-17,39,34,34,4,-39,-53
-24,-29,-4,26,-9,-17,39,43,34,14,-29,-53
-24,-24,0,24,-12,-12,48,43,34,14,-29,-48
-24,-24,0,24,-12,-12,48,43,34,19,-29,-48
-19,-24,-4,21,-7,-14,43,48,39,24,-24,-48
-9,-34,-24,21,7,-29,43,53,53,19,-19,-48
-9,-29,-19,19,4,-24,43,58,58,24,-14,-43
-4,-29,-24,17,9,-26,43,58,58,24,-9,-39
0,-24,-24,12,12,-24,43,63,63,29,-9,-39
0,-14,-14,7,7,-14,43,68,68,34,-14,-34
0,-9,-9,4,4,-9,48,73,68,39,-9,-29
4,-9,-14,2,9,-12,48,73,73,43,-4,-29
9,-4,-14,-2,12,-9,53,78,78,48,-4,-29
0,-9,-9,4,4,-9,48,82,82,63,9,-29
0,-9,-9,4,4,-9,48,92,87,68,14,-19
4,-9,-14,2,9,-12,48,97,92,73,19,-14
14,0,-14,-7,14,-7,48,107,102,78,24,-9
14,14,0,-14,7,7,48,112,107,78,24,-14
19,19,0,-19,9,9,53,117,112,82,29,-9
24,19,-4,-21,14,7,53,122,122,87,39,-4
29,24,-4,-26,17,9,58,126,126,97,43,0
34,29,-4,-31,19,12,48,131,126,107,48,4
34,34,0,-34,17,17,48,141,141,107,63,9
39,34,-4,-36,21,14,53,146,151,117,68,14
43,39,-4,-41,24,17,53,151,156,126,78,24
48,34,-14,-41,31,9,63,156,165,131,87,24
53,39,-14,-46,34,12,63,170,165,146,102,34
58,43,-14,-51,36,14,63,175,180,151,112,39
63,48,-14,-56,39,17,63,180,180,161,112,43
73,68,-4,-70,39,31,53,185,190,170,122,39
73,68,-4,-70,39,31,53,190,195,175,131,53
78,68,-9,-73,43,29,53,195,209,185,141,58
82,78,-4,-80,43,36,53,200,214,195,146,73
97,78,-19,-87,58,29,63,209,224,214,156,82
102,78,-24,-90,63,26,63,214,229,224,165,82
102,82,-19,-92,61,31,63,219,244,234,175,87
107,87,-19,-97,63,34,63,219,248,244,185,92
112,92,-19,-102,65,36,63,234,248,239,190,107
117,97,-19,-107,68,39,63,239,253,244,200,107
122,102,-19,-112,70,41,63,244,263,253,200,112
126,107,-19,-117,73,43,58,244,268,258,209,117
131,112,-19,-122,75,46,58,239,268,263,209,122
136,112,-24,-124,80,43,63,239,273,273,214,126
136,117,-19,-126,78,48,63,239,278,273,219,126
136,117,-19,-126,78,48,58,239,283,283,224,126
136,122,-14,-129,75,53,68,244,292,287,224,131
141,122,-19,-131,80,51,68,244,292,287,229,136
141,122,-19,-131,80,51,68,244,297,292,234,141
141,122,-19,-131,80,51,68,244,297,297,239,141
146,117,-29,-131,87,43,58,244,297,297,239,151
146,117,-29,-131,87,43,58,244,297,297,244,151
146,117,-29,-131,87,43,58,239,297,297,244,156
146,122,-24,-134,85,48,58,239,292,297,244,156
141,122,-19,-131,80,51,58,234,287,292,248,146
141,122,-19,-131,80,51,58,229,287,292,248,146
141,117,-24,-129,82,46,53,219,287,292,248,146
141,117,-24,-129,82,46,48,214,278,287,244,141
136,117,-19,-126,78,48,48,214,268,287,234,151
136,117,-19,-126,78,48,48,209,258,278,224,141
131,107,-24,-119,78,41,48,204,253,268,214,136
131,97,-34,-114,82,31,48,195,244,258,209,126
117,92,-24,-104,70,34,48,185,234,248,200,117
112,87,-24,-100,68,31,39,175,224,234,190,107
112,82,-29,-97,70,26,39,165,214,224,175,102
102,73,-29,-87,65,21,39,156,204,219,165,87
107,63,-43,-85,75,9,39,146,195,214,170,92
97,58,-39,-78,68,9,34,136,180,200,156,87
87,53,-34,-70,61,9,34,131,170,185,146,82
82,43,-39,-63,61,2,34,122,161,180,136,73
78,39,-39,-58,58,0,34,112,151,156,112,63
68,29,-39,-48,53,-4,34,102,141,146,107,48
63,24,-39,-43,51,-7,34,92,131,136,102,34
58,14,-43,-36,51,-14,34,92,126,126,82,24
53,4,-48,-29,51,-21,24,87,112,122,73,29
48,-4,-53,-21,51,-29,24,82,102,112,58,19
43,-4,-48,-19,46,-26,24,73,92,102,53,14
43,-9,-53,-17,48,-31,24,68,87,97,48,4
24,-9,-34,-7,29,-21,29,58,87,78,39,0
19,-19,-39,0,29,-29,29,53,78,68,29,-9
19,-24,-43,2,31,-34,29,48,68,63,19,-14
14,-29,-43,7,29,-36,29,48,58,53,19,-24
14,-34,-48,9,31,-41,29,34,48,53,9,-19
9,-34,-43,12,26,-39,24,29,39,48,0,-24
9,-34,-43,12,26,-39,24,29,39,43,0,-24
4,-39,-43,17,24,-41,24,24,34,34,-9,-24
0,-39,-39,19,19,-39,19,19,24,24,-14,-39
-4,-39,-34,21,14,-36,19,9,19,24,-19,-43
-4,-43,-39,24,17,-41,19,9,14,19,-19,-48
-9,-48,-39,29,14,-43,19,9,14,19,-19,-48
-9,-48,-39,29,14,-43,14,9,9,9,-24,-39
-9,-53,-43,31,17,-48,14,4,4,4,-29,-39
-9,-53,-43,31,17,-48,9,0,0,0,-34,-48
-9,-53,-43,31,17,-48,9,0,-4,-4,-39,-48
-19,-48,-29,34,4,-39,9,0,-4,-4,-39,-58
-19,-48,-29,34,4,-39,9,0,-4,-9,-39,-58
-24,-48,-24,36,0,-36,9,-4,-4,-14,-43,-58
-24,-48,-24,36,0,-36,9,-9,-4,-14,-43,-58
-19,-58,-39,39,9,-48,9,-9,-4,-4,-43,-58
-19,-53,-34,36,7,-43,9,-9,-9,-4,-43,-58
-19,-53,-34,36,7,-43,4,-9,-9,-4,-48,-58
-19,-53,-34,36,7,-43,4,-9,-9,-9,-48,-58
-24,-58,-34,41,4,-46,14,-4,-4,-9,-39,-58
-24,-58,-34,41,4,-46,14,-4,-4,-9,-43,-58
-24,-58,-34,41,4,-46,14,-4,-9,-9,-43,-68
-19,-58,-39,39,9,-48,14,-4,-9,-9,-43,-68
-19,-63,-43,41,12,-53,14,-4,-9,-19,-48,-58
-24,-63,-39,43,7,-51,14,-9,-9,-24,-48,-63
-24,-63,-39,43,7,-51,9,-9,-9,-24,-48,-63
-24,-63,-39,43,7,-51,9,-9,-9,-24,-48,-63
-34,-53,-19,43,-7,-36,9,-9,-9,-24,-58,-73
-34,-53,-19,43,-7,-36,9,-9,-14,-24,-58,-73
-29,-53,-24,41,-2,-39,9,-9,-14,-19,-53,-73
-29,-58,-29,43,0,-43,14,-9,-14,-19,-53,-73
-19,-58,-39,39,9,-48,4,-9,-14,-19,-53,-68
-24,-53,-29,39,2,-41,4,-14,-14,-19,-53,-68
-24,-53,-29,39,2,-41,4,-14,-14,-19,-58,-63
-24,-53,-29,39,2,-41,0,-14,-14,-19,-58,-63
-24,-53,-29,39,2,-41,9,-14,-14,-19,-48,-73
-29,-53,-24,41,-2,-39,9,-14,-14,-19,-53,-73
-29,-53,-24,41,-2,-39,9,-14,-14,-19,-53,-73
-29,-53,-24,41,-2,-39,9,-9,-14,-19,-53,-73
-29,-53,-24,41,-2,-39,9,-9,-24,-24,-63,-63
-29,-53,-24,41,-2,-39,9,-9,-24,-24,-63,-63
-29,-53,-24,41,-2,-39,9,-9,-24,-29,-58,-63
-29,-53,-24,41,-2,-39,9,-9,-24,-29,-58,-63
-39,-43,-4,41,-17,-24,9,-9,-24,-34,-58,-63
-39,-43,-4,41,-17,-24,9,-9,-24,-34,-58,-63
-39,-43,-4,41,-17,-24,9,-9,-24,-34,-63,-63
-43,-43,0,43,-21,-21,9,-9,-24,-34,-63,-63
-43,-48,-4,46,-19,-26,19,-9,-14,-24,-53,-63
-39,-48,-9,43,-14,-29,19,-9,-14,-24,-53,-63
-39,-48,-9,43,-14,-29,19,-9,-14,-24,-53,-63
-43,-48,-4,46,-19,-26,24,-9,-19,-29,-53,-63
-43,-48,-4,46,-19,-26,14,-19,-19,-29,-63,-63
-43,-43,0,43,-21,-21,14,-19,-19,-24,-63,-63
-43,-43,0,43,-21,-21,14,-19,-19,-24,-63,-63
-39,-48,-9,43,-14,-29,14,-19,-19,-24,-63,-63
-39,-48,-9,43,-14,-29,24,-19,-19,-24,-63,-63
-39,-48,-9,43,-14,-29,24,-19,-19,-24,-63,-63
-39,-43,-4,41,-17,-24,24,-19,-19,-24,-63,-68
-39,-43,-4,41,-17,-24,24,-19,-19,-19,-63,-68
-39,-43,-4,41,-17,-24,24,-19,-29,-29,-63,-68
-39,-39,0,39,-19,-19,24,-19,-29,-29,-63,-63
-39,-39,0,39,-19,-19,24,-19,-29,-29,-63,-63
-39,-39,0,39,-19,-19,24,-19,-29,-34,-58,-58
-39,-34,4,36,-21,-14,14,-19,-29,-24,-58,-68
-39,-34,4,36,-21,-14,14,-19,-29,-24,-58,-68
-39,-34,4,36,-21,-14,14,-24,-29,-24,-58,-68
-43,-34,9,39,-26,-12,14,-24,-24,-19,-58,-68
-43,-34,9,39,-26,-12,14,-24,-24,-29,-58,-68
-43,-34,9,39,-26,-12,14,-24,-24,-34,-58,-68
-43,-34,9,39,-26,-12,14,-24,-24,-34,-58,-68
-39,-34,4,36,-21,-14,14,-24,-24,-34,-58,-68
-39,-43,-4,41,-17,-24,14,-24,-24,-24,-58,-68
-39,-43,-4,41,-17,-24,14,-24,-24,-19,-58,-68
-39,-43,-4,41,-17,-24,14,-24,-24,-19,-58,-68
-39,-39,0,39,-19,-19,14,-24,-24,-19,-53,-68
-29,-39,-9,34,-9,-24,14,-14,-19,-19,-53,-68
-29,-39,-9,34,-9,-24,14,-19,-19,-19,-53,-68
-29,-39,-9,34,-9,-24,9,-19,-19,-19,-53,-68
-29,-39,-9,34,-9,-24,9,-19,-19,-19,-53,-68
-39,-39,0,39,-19,-19,9,-19,-19,-24,-53,-68
-39,-39,0,39,-19,-19,9,-19,-24,-24,-53,-68
-34,-39,-4,36,-14,-21,9,-19,-24,-24,-53,-68
-34,-39,-4,36,-14,-21,14,-19,-24,-24,-53,-68
-34,-39,-4,36,-14,-21,14,-19,-24,-24,-53,-68
-34,-39,-4,36,-14,-21,14,-19,-19,-24,-53,-68
-34,-39,-4,36,-14,-21,14,-19,-19,-24,-53,-68
-34,-39,-4,36,-14,-21,14,-19,-19,-24,-53,-68
-24,-48,-24,36,0,-36,14,-19,-19,-24,-43,-58
-24,-48,-24,36,0,-36,14,-19,-19,-24,-43,-58
-24,-48,-24,36,0,-36,14,-14,-19,-24,-43,-58
-24,-53,-29,39,2,-41,14,-14,-19,-24,-43,-58
-24,-53,-29,39,2,-41,14,-14,-24,-24,-43,-58
-24,-48,-24,36,0,-36,9,-19,-24,-24,-43,-58
-24,-48,-24,36,0,-36,9,-19,-19,-24,-43,-58
-24,-48,-24,36,0,-36,9,-19,-19,-24,-43,-58
-24,-48,-24,36,0,-36,9,-19,-19,-24,-53,-68
-24,-48,-24,36,0,-36,9,-19,-19,-24,-53,-68
-24,-48,-24,36,0,-36,9,-19,-19,-24,-53,-68
-24,-48,-24,36,0,-36,14,-19,-19,-24,-53,-68
-24,-48,-24,36,0,-36,14,-29,-19,-24,-53,-68
-24,-48,-24,36,0,-36,14,-29,-19,-24,-53,-68
-24,-48,-24,36,0,-36,9,-29,-19,-24,-53,-68
-24,-48,-24,36,0,-36,9,-29,-19,-29,-53,-68
-24,-53,-29,39,2,-41,9,-19,-24,-29,-53,-68
-24,-53,-29,39,2,-41,9,-19,-24,-29,-53,-68
-24,-53,-29,39,2,-41,9,-19,-24,-29,-53,-68
-24,-53,-29,39,2,-41,9,-19,-24,-29,-53,-73
-24,-43,-19,34,-2,-31,9,-29,-24,-29,-58,-73
-24,-43,-19,34,-2,-31,9,-29,-24,-29,-58,-68
-24,-43,-19,34,-2,-31,9,-29,-24,-29,-63,-68
-24,-43,-19,34,-2,-31,9,-29,-24,-29,-63,-73
-24,-43,-19,34,-2,-31,9,-19,-24,-34,-53,-73
-24,-43,-19,34,-2,-31,4,-24,-24,-34,-53,-73
-24,-43,-19,34,-2,-31,4,-29,-24,-34,-53,-73
-24,-43,-19,34,-2,-31,4,-29,-29,-34,-53,-73
-34,-43,-9,39,-12,-26,4,-29,-29,-34,-58,-73
-34,-43,-9,39,-12,-26,4,-29,-29,-34,-58,-73
-34,-43,-9,39,-12,-26,4,-29,-29,-34,-58,-73
-34,-43,-9,39,-12,-26,4,-29,-24,-34,-58,-73
-34,-43,-9,39,-12,-26,4,-29,-34,-34,-58,-73
-34,-43,-9,39,-12,-26,4,-29,-39,-34,-58,-73
-34,-43,-9,39,-12,-26,4,-29,-39,-34,-58,-73
-34,-48,-14,41,-9,-31,4,-24,-39,-34,-58,-73
-34,-58,-24,46,-4,-41,4,-34,-39,-43,-53,-73
-34,-58,-24,46,-4,-41,4,-39,-39,-43,-58,-78
-34,-53,-19,43,-7,-36,4,-39,-39,-43,-58,-78
-34,-53,-19,43,-7,-36,4,-39,-39,-48,-58,-78
-34,-43,-9,39,-12,-26,-4,-29,-39,-39,-58,-78
-34,-48,-14,41,-9,-31,0,-29,-39,-34,-58,-78
-34,-48,-14,41,-9,-31,0,-34,-39,-34,-58,-78
-34,-48,-14,41,-9,-31,0,-34,-39,-34,-58,-78
-34,-48,-14,41,-9,-31,0,-34,-39,-39,-58,-78
-34,-48,-14,41,-9,-31,0,-34,-39,-39,-58,-78
-34,-48,-14,41,-9,-31,0,-34,-39,-39,-53,-78
-34,-48,-14,41,-9,-31,-4,-34,-39,-39,-53,-78
-34,-48,-14,41,-9,-31,4,-34,-39,-39,-58,-78
-34,-53,-19,43,-7,-36,4,-34,-39,-39,-58,-78
-34,-53,-19,43,-7,-36,4,-34,-39,-39,-53,-78
-34,-53,-19,43,-7,-36,4,-34,-39,-39,-53,-73
-34,-53,-19,43,-7,-36,4,-34,-39,-39,-53,-82
-34,-53,-19,43,-7,-36,4,-34,-34,-39,-53,-87
-34,-58,-24,46,-4,-41,4,-34,-34,-39,-53,-87
-34,-58,-24,46,-4,-41,4,-34,-39,-39,-53,-87
-34,-53,-19,43,-7,-36,4,-34,-39,-39,-53,-82
-34,-53,-19,43,-7,-36,9,-34,-39,-39,-53,-82
-34,-58,-24,46,-4,-41,9,-29,-34,-39,-53,-82
-34,-58,-24,46,-4,-41,9,-29,-34,-34,-48,-78
-34,-68,-34,51,0,-51,9,-29,-39,-34,-58,-78
-34,-68,-34,51,0,-51,9,-29,-39,-34,-58,-78
-34,-68,-34,51,0,-51,9,-29,-34,-34,-58,-82
-34,-68,-34,51,0,-51,9,-29,-34,-34,-58,-82
-29,-78,-48,53,9,-63,0,-29,-29,-34,-48,-78
-29,-73,-43,51,7,-58,0,-29,-29,-34,-48,-78
-29,-73,-43,51,7,-58,4,-29,-29,-34,-48,-78
-29,-68,-39,48,4,-53,4,-29,-29,-34,-48,-78
-34,-73,-39,53,2,-56,4,-34,-29,-29,-43,-82
-34,-73,-39,53,2,-56,4,-34,-29,-34,-48,-73
-34,-73,-39,53,2,-56,4,-34,-34,-39,-48,-73
-34,-73,-39,53,2,-56,4,-29,-39,-39,-48,-78
-34,-68,-34,51,0,-51,9,-29,-39,-34,-48,-78
-39,-68,-29,53,-4,-48,9,-29,-39,-34,-53,-78
-29,-68,-39,48,4,-53,0,-29,-39,-34,-53,-73
-29,-58,-29,43,0,-43,9,-29,-39,-29,-48,-78
-29,-58,-29,43,0,-43,9,-29,-29,-29,-48,-78
-29,-58,-29,43,0,-43,9,-29,-29,-29,-48,-78
-29,-58,-29,43,0,-43,9,-29,-29,-29,-48,-78
-29,-58,-29,43,0,-43,9,-29,-29,-29,-48,-78
-24,-43,-19,34,-2,-31,0,-19,-29,-24,-34,-68
-19,-39,-19,29,0,-29,0,-19,-24,-19,-34,-68
-19,-29,-9,24,-4,-19,0,-19,-24,-19,-29,-63
-19,-24,-4,21,-7,-14,4,-19,-24,-9,-29,-58
-14,-29,-14,21,0,-21,14,-14,-19,-14,-34,-68
-14,-24,-9,19,-2,-17,14,-9,-19,-14,-24,-58
-14,-24,-9,19,-2,-17,14,-4,-14,-14,-24,-58
-14,-24,-9,19,-2,-17,14,-4,-9,-9,-19,-58
-14,-34,-19,24,2,-26,14,-4,-9,-19,-19,-58
-14,-29,-14,21,0,-21,14,-4,-9,-19,-19,-58
-19,-24,-4,21,-7,-14,14,-4,-14,-19,-19,-58
-19,-24,-4,21,-7,-14,14,-4,-14,-19,-24,-58
-14,-14,0,14,-7,-7,4,-4,-24,-19,-24,-58
-14,-14,0,14,-7,-7,4,-9,-24,-19,-24,-58
-14,-14,0,14,-7,-7,4,-9,-24,-19,-24,-58
-4,-9,-4,7,0,-7,0,-9,-24,-19,-19,-53
-14,-4,9,9,-12,2,0,-19,-19,-24,-24,-53
-4,-4,0,4,-2,-2,-9,-19,-19,-19,-24,-53
0,0,0,0,0,0,-14,-19,-24,-19,-19,-58
4,0,-4,-2,4,-2,-19,-19,-24,-19,-19,-53
19,-9,-29,-4,24,-19,-19,-34,-24,-14,-14,-53
24,-9,-34,-7,29,-21,-29,-39,-24,-14,-14,-53
29,-9,-39,-9,34,-24,-29,-39,-24,-14,-14,-53
29,-9,-39,-9,34,-24,-29,-39,-24,-14,-19,-58
29,-14,-43,-7,36,-29,-39,-39,-24,-19,-14,-48
29,-14,-43,-7,36,-29,-39,-39,-24,-19,-14,-53
29,-14,-43,-7,36,-29,-43,-39,-24,-19,-14,-53
29,-14,-43,-7,36,-29,-48,-43,-34,-24,-14,-53
29,-14,-43,-7,36,-29,-43,-43,-39,-24,-24,-53
29,-14,-43,-7,36,-29,-39,-43,-39,-24,-24,-53
24,-14,-39,-4,31,-26,-29,-48,-39,-24,-24,-53
24,-19,-43,-2,34,-31,-24,-48,-39,-34,-29,-58
24,-14,-39,-4,31,-26,-34,-48,-34,-34,-29,-53
24,-19,-43,-2,34,-31,-34,-48,-39,-39,-34,-58
19,-24,-43,2,31,-34,-29,-48,-39,-39,-34,-58
4,-29,-34,12,19,-31,-29,-48,-39,-43,-34,-58
9,-34,-43,12,26,-39,-24,-39,-48,-43,-39,-73
4,-39,-43,17,24,-41,-24,-48,-48,-48,-43,-78
0,-39,-39,19,19,-39,-24,-48,-58,-48,-48,-82
-4,-43,-39,24,17,-41,-19,-48,-58,-48,-48,-82
-19,-48,-29,34,4,-39,-4,-43,-53,-48,-48,-73
-24,-53,-29,39,2,-41,-4,-43,-53,-53,-53,-78
-24,-53,-29,39,2,-41,-9,-48,-58,-53,-53,-87
-24,-58,-34,41,4,-46,-9,-48,-58,-53,-58,-87
-24,-58,-34,41,4,-46,-9,-48,-58,-53,-53,-97
-24,-58,-34,41,4,-46,-14,-48,-58,-58,-53,-97
-29,-68,-39,48,4,-53,-14,-48,-68,-58,-58,-102
-34,-73,-39,53,2,-56,-9,-53,-68,-63,-63,-102
-39,-73,-34,56,-2,-53,-9,-43,-68,-73,-73,-102
-39,-73,-34,56,-2,-53,-4,-43,-68,-73,-73,-107
-39,-73,-34,56,-2,-53,-4,-43,-68,-73,-73,-107
-39,-78,-39,58,0,-58,0,-43,-68,-73,-73,-107
-39,-78,-39,58,0,-58,0,-48,-68,-63,-73,-107
-39,-78,-39,58,0,-58,-4,-48,-68,-63,-73,-107
-39,-73,-34,56,-2,-53,-4,-48,-68,-63,-73,-107
-39,-73,-34,56,-2,-53,0,-48,-68,-63,-73,-107
-43,-73,-29,58,-7,-51,0,-48,-58,-73,-78,-102
-43,-73,-29,58,-7,-51,0,-53,-63,-78,-78,-102
-43,-73,-29,58,-7,-51,0,-53,-63,-78,-78,-102
-43,-73,-29,58,-7,-51,0,-53,-63,-73,-78,-107
-43,-73,-29,58,-7,-51,0,-43,-58,-63,-78,-107
-43,-78,-34,61,-4,-56,0,-39,-58,-63,-78,-107
-43,-78,-34,61,-4,-56,0,-39,-58,-68,-78,-107
-43,-82,-39,63,-2,-61,0,-39,-58,-68,-78,-102
-43,-82,-39,63,-2,-61,0,-39,-68,-63,-68,-112
-48,-78,-29,63,-9,-53,0,-39,-68,-63,-68,-112
-48,-78,-29,63,-9,-53,0,-39,-68,-63,-68,-112
-43,-78,-34,61,-4,-56,4,-39,-63,-68,-68,-112
-43,-78,-34,61,-4,-56,4,-39,-63,-78,-68,-112
-43,-78,-34,61,-4,-56,4,-39,-63,-78,-68,-112
-43,-78,-34,61,-4,-56,4,-39,-63,-78,-68,-112
-43,-78,-34,61,-4,-56,4,-39,-63,-78,-68,-112
-43,-78,-34,61,-4,-56,-4,-39,-63,-73,-78,-112
-43,-78,-34,61,-4,-56,-4,-39,-63,-73,-73,-112
-43,-78,-34,61,-4,-56,0,-39,-63,-73,-73,-112
-48,-78,-29,63,-9,-53,0,-39,-63,-73,-73,-112
-48,-68,-19,58,-14,-43,0,-39,-53,-73,-73,-112
-48,-68,-19,58,-14,-43,0,-39,-53,-73,-78,-112
-48,-68,-19,58,-14,-43,0,-39,-53,-73,-78,-112
-48,-68,-19,58,-14,-43,0,-39,-53,-73,-73,-112
-48,-78,-29,63,-9,-53,9,-39,-53,-63,-73,-112
-48,-78,-29,63,-9,-53,9,-39,-53,-63,-73,-112
-48,-78,-29,63,-9,-53,9,-39,-53,-63,-73,-112
-48,-78,-29,63,-9,-53,9,-39,-53,-63,-73,-112
-39,-73,-34,56,-2,-53,9,-24,-53,-63,-68,-112
-48,-82,-34,65,-7,-58,9,-19,-53,-63,-58,-112
-48,-87,-39,68,-4,-63,14,-29,-48,-63,-68,-122
-53,-73,-19,63,-17,-46,14,-34,-48,-68,-68,-122
-58,-78,-19,68,-19,-48,19,-29,-58,-73,-78,-126
-68,-92,-24,80,-21,-58,24,-14,-53,-82,-92,-131
-63,-97,-34,80,-14,-65,39,0,-39,-73,-102,-146
-63,-97,-34,80,-14,-65,53,29,-14,-63,-102,-146
-63,-102,-39,82,-12,-70,82,73,24,-39,-82,-146
-53,-97,-43,75,-4,-70,87,122,78,9,-43,-126
-24,-92,-68,58,21,-80,97,170,136,82,29,-92
19,-68,-87,24,53,-78,112,224,219,170,122,-48
68,-39,-107,-14,87,-73,126,292,307,268,209,4
126,-4,-131,-61,129,-68,131,366,395,370,312,58
209,43,-165,-126,187,-61,141,419,488,478,414,136
302,82,-219,-192,261,-68,126,463,566,590,527,224
400,136,-263,-268,331,-63,112,517,668,722,653,326
522,209,-312,-366,417,-51,82,566,771,858,814,434
649,263,-385,-456,517,-61,34,585,854,1000,980,541
775,326,-448,-551,612,-61,-24,566,912,1127,1127,644
873,409,-463,-641,668,-26,-112,507,932,1200,1249,746
897,483,-414,-690,656,34,-175,414,893,1220,1298,819
863,522,-341,-692,602,90,-239,287,800,1166,1273,849
766,536,-229,-651,497,153,-283,136,639,1039,1166,829
644,478,-165,-561,405,156,-336,-34,439,824,980,727
556,385,-170,-470,363,107,-380,-185,239,556,717,575
488,268,-219,-378,353,24,-414,-302,53,292,473,409
375,190,-185,-283,280,2,-424,-400,-107,102,307,292
219,126,-92,-173,156,17,-400,-497,-268,-53,156,214
73,63,-9,-68,41,26,-390,-619,-468,-273,-43,92
-43,-14,29,29,-36,7,-385,-727,-678,-507,-263,-39
-112,-82,29,97,-70,-26,-385,-761,-766,-619,-380,-117
-131,-122,9,126,-70,-56,-385,-732,-756,-629,-400,-146
-126,-122,4,124,-65,-58,-375,-673,-702,-595,-405,-165
-136,-107,29,122,-82,-39,-331,-600,-639,-551,-375,-165
-126,-92,34,109,-80,-29,-283,-512,-546,-473,-322,-156
-112,-82,29,97,-70,-26,-239,-424,-453,-395,-268,-156
-107,-73,34,90,-70,-19,-185,-341,-370,-326,-234,-146
-102,-68,34,85,-68,-17,-141,-263,-307,-273,-204,-141
-82,-63,19,73,-51,-21,-117,-219,-258,-239,-180,-141
-73,-53,19,63,-46,-17,-92,-190,-229,-209,-175,-126
-68,-39,29,53,-48,-4,-82,-165,-190,-180,-156,-117
-68,-34,34,51,-51,0,-68,-156,-175,-161,-141,-107
-68,-34,34,51,-51,0,-68,-141,-165,-161,-131,-107
-73,-43,29,58,-51,-7,-48,-122,-146,-146,-112,-107
-73,-43,29,58,-51,-7,-24,-87,-122,-117,-92,-107
-58,-43,14,51,-36,-14,-14,-63,-97,-97,-78,-97
-48,-43,4,46,-26,-19,-9,-48,-78,-78,-68,-92
-43,-39,4,41,-24,-17,4,-39,-58,-63,-68,-92
-43,-48,-4,46,-19,-26,4,-39,-58,-73,-68,-102
-43,-48,-4,46,-19,-26,4,-39,-58,-73,-73,-102
-43,-53,-9,48,-17,-31,4,-39,-58,-78,-73,-102
-48,-58,-9,53,-19,-34,4,-39,-58,-78,-73,-102
-48,-73,-24,61,-12,-48,9,-29,-63,-73,-63,-112
-48,-73,-24,61,-12,-48,14,-24,-58,-68,-63,-117
-48,-68,-19,58,-14,-43,19,-19,-48,-63,-58,-117
-48,-68,-19,58,-14,-43,24,-19,-43,-58,-58,-117
-48,-68,-19,58,-14,-43,24,-14,-34,-53,-63,-107
-48,-68,-19,58,-14,-43,24,-14,-34,-53,-63,-107
-48,-73,-24,61,-12,-48,24,-9,-34,-53,-63,-107
-48,-73,-24,61,-12,-48,29,-9,-34,-53,-58,-102
-43,-73,-29,58,-7,-51,29,-9,-34,-48,-58,-102
-43,-73,-29,58,-7,-51,29,-9,-29,-48,-53,-107
-43,-73,-29,58,-7,-51,34,-4,-29,-48,-53,-107
-43,-73,-29,58,-7,-51,34,0,-24,-43,-48,-107
-43,-73,-29,58,-7,-51,34,0,-24,-43,-48,-97
-43,-68,-24,56,-9,-46,39,4,-19,-43,-48,-97
-39,-68,-29,53,-4,-48,39,4,-19,-43,-53,-97
-39,-68,-29,53,-4,-48,34,4,-19,-39,-53,-97
-29,-78,-48,53,9,-63,34,4,-14,-39,-48,-97
-29,-78,-48,53,9,-63,34,4,-14,-39,-48,-92
-29,-78,-48,53,9,-63,39,4,-14,-39,-48,-92
-29,-78,-48,53,9,-63,39,9,-14,-39,-43,-92
-39,-68,-29,53,-4,-48,39,9,-9,-34,-53,-97
-34,-68,-34,51,0,-51,39,9,-9,-34,-48,-97
-34,-68,-34,51,0,-51,34,14,-9,-29,-48,-92
-34,-68,-34,51,0,-51,34,14,-9,-29,-48,-92
-34,-58,-24,46,-4,-41,39,14,-4,-29,-48,-92
-34,-58,-24,46,-4,-41,39,19,-4,-29,-48,-92
-29,-58,-29,43,0,-43,34,19,-4,-24,-43,-92
-29,-58,-29,43,0,-43,34,19,0,-24,-43,-92
-29,-58,-29,43,0,-43,34,29,0,-19,-34,-92
-29,-58,-29,43,0,-43,34,29,0,-19,-34,-92
-24,-48,-24,36,0,-36,34,29,0,-19,-34,-87
-24,-48,-24,36,0,-36,34,34,0,-19,-29,-87
-24,-58,-34,41,4,-46,39,34,4,-19,-29,-87
-24,-58,-34,41,4,-46,39,34,4,-14,-29,-87
-24,-58,-34,41,4,-46,39,39,4,-14,-24,-82
-24,-58,-34,41,4,-46,39,39,9,-9,-24,-82
-14,-58,-43,36,14,-51,48,39,9,-9,-29,-87
-14,-58,-43,36,14,-51,48,39,9,-9,-29,-87
-14,-48,-34,31,9,-41,48,43,14,-9,-29,-87
-9,-48,-39,29,14,-43,48,43,14,-4,-24,-82
-19,-43,-24,31,2,-34,39,43,19,0,-14,-73
-19,-43,-24,31,2,-34,39,48,24,0,-14,-73
-14,-43,-29,29,7,-36,39,53,24,0,-9,-73
-14,-39,-24,26,4,-31,39,53,24,4,-9,-73
-4,-29,-24,17,9,-26,39,53,24,4,-19,-63
-4,-24,-19,14,7,-21,48,53,24,4,-19,-58
-4,-24,-19,14,7,-21,48,53,24,9,-19,-58
0,-24,-24,12,12,-24,43,58,29,14,-14,-58
0,-34,-34,17,17,-34,53,73,43,29,0,-68
0,-29,-29,14,14,-29,53,78,48,34,4,-63
4,-29,-34,12,19,-31,53,78,48,34,9,-58
9,-24,-34,7,21,-29,53,82,53,39,9,-58
9,-14,-24,2,17,-19,48,78,58,34,14,-53
9,-9,-19,0,14,-14,48,82,58,39,19,-48
14,-9,-24,-2,19,-17,43,82,63,43,24,-48
19,-4,-24,-7,21,-14,43,87,68,48,24,-48
9,9,0,-9,4,4,48,87,68,43,19,-48
9,9,0,-9,4,4,48,92,68,48,24,-39
14,9,-4,-12,9,2,48,92,68,53,29,-34
24,19,-4,-21,14,7,48,97,73,58,34,-29
34,14,-19,-24,26,-2,58,107,87,68,43,-29
39,19,-19,-29,29,0,63,117,92,73,48,-29
43,19,-24,-31,34,-2,63,126,102,78,58,-29
48,24,-24,-36,36,0,68,136,107,87,63,-29
53,19,-34,-36,43,-7,58,146,126,97,63,-34
53,24,-29,-39,41,-2,58,161,141,97,73,-29
58,24,-34,-41,46,-4,63,170,151,107,73,-24
63,29,-34,-46,48,-2,63,180,156,117,78,-14
68,34,-34,-51,51,0,63,175,165,122,87,-4
73,39,-34,-56,53,2,63,190,165,136,102,4
78,43,-34,-61,56,4,63,195,180,141,112,9
82,48,-34,-65,58,7,63,200,180,151,112,14
82,48,-34,-65,58,7,73,204,190,161,122,19
82,48,-34,-65,58,7,73,209,195,165,131,34
87,48,-39,-68,63,4,73,214,209,175,141,39
92,58,-34,-75,63,12,73,219,214,185,146,53
107,63,-43,-85,75,9,63,219,214,195,165,63
112,68,-43,-90,78,12,63,224,219,204,175,63
112,78,-34,-95,73,21,63,229,234,214,185,68
117,87,-29,-102,73,29,63,229,239,224,195,73
131,92,-39,-112,85,26,63,234,239,219,190,82
136,97,-39,-117,87,29,63,239,244,224,200,87
141,102,-39,-122,90,31,63,244,253,234,200,97
146,107,-39,-126,92,34,58,244,258,239,209,107
141,102,-39,-122,90,31,68,258,268,253,219,122
146,102,-43,-124,95,29,73,258,273,263,224,126
146,107,-39,-126,92,34,73,258,278,263,229,126
146,107,-39,-126,92,34,68,258,283,273,234,126
146,102,-43,-124,95,29,68,263,273,268,234,131
151,102,-48,-126,100,26,68,263,273,268,239,136
151,102,-48,-126,100,26,68,263,278,273,244,141
151,102,-48,-126,100,26,68,263,278,278,248,141
146,107,-39,-126,92,34,68,263,287,287,239,141
146,107,-39,-126,92,34,68,263,287,287,244,141
146,107,-39,-126,92,34,68,258,287,287,244,146
146,112,-34,-129,90,39,68,258,283,287,244,146
151,112,-39,-131,95,36,58,253,278,283,239,141
151,112,-39,-131,95,36,58,248,278,283,239,136
151,107,-43,-129,97,31,53,239,278,283,239,131
151,107,-43,-129,97,31,48,234,268,278,234,122
146,107,-39,-126,92,34,48,234,258,278,234,131
146,107,-39,-126,92,34,48,229,248,268,224,122
141,97,-43,-119,92,26,48,224,244,258,214,117
141,87,-53,-114,97,17,48,214,234,248,209,107
136,92,-43,-114,90,24,48,204,229,244,209,107
131,87,-43,-109,87,21,39,195,224,234,200,97
131,82,-48,-107,90,17,39,185,219,229,185,92
122,73,-48,-97,85,12,39,175,214,229,175,78
117,53,-63,-85,90,-4,39,165,195,209,161,73
107,48,-58,-78,82,-4,34,156,180,190,146,68
97,43,-53,-70,75,-4,34,151,170,170,136,63
92,34,-58,-63,75,-12,34,141,161,161,126,53
87,9,-78,-48,82,-34,43,141,161,151,117,53
78,0,-78,-39,78,-39,43,131,151,146,117,48
73,-4,-78,-34,75,-41,43,122,141,141,117,43
68,-14,-82,-26,75,-48,43,122,136,136,102,43
63,-4,-68,-29,65,-36,34,97,112,112,82,29
58,-14,-73,-21,65,-43,34,92,102,102,68,19
53,-14,-68,-19,61,-41,34,82,92,92,63,14
53,-19,-73,-17,63,-46,34,78,87,87,58,4
43,-19,-63,-12,53,-41,29,68,87,87,58,0
39,-29,-68,-4,53,-48,29,63,78,78,48,-9
39,-34,-73,-2,56,-53,29,58,68,73,39,-14
34,-39,-73,2,53,-56,29,58,58,63,39,-24
24,-43,-68,9,46,-56,29,48,53,43,24,-39
19,-43,-63,12,41,-53,24,39,39,39,9,-43
19,-43,-63,12,41,-53,24,34,34,34,4,-43
14,-48,-63,17,39,-56,24,24,24,24,-9,-43
9,-58,-68,24,39,-63,29,29,24,24,-4,-39
4,-58,-63,26,34,-61,29,19,19,24,-9,-43
4,-63,-68,29,36,-65,29,19,14,19,-9,-48
0,-68,-68,34,34,-68,29,19,14,19,-9,-48
0,-58,-58,29,29,-58,24,14,0,9,-14,-48
0,-63,-63,31,31,-63,24,4,-4,4,-19,-48
0,-63,-63,31,31,-63,19,-4,-9,0,-24,-58
0,-63,-63,31,31,-63,19,-9,-14,-4,-29,-58
0,-58,-58,29,29,-58,19,0,-4,4,-29,-48
0,-58,-58,29,29,-58,19,0,-4,0,-29,-48
-4,-58,-53,31,24,-56,19,-4,-4,-4,-34,-48
-4,-58,-53,31,24,-56,19,-9,-4,-4,-34,-48
-9,-63,-53,36,21,-58,29,0,-4,-14,-34,-58
-9,-63,-53,36,21,-58,29,0,-9,-14,-34,-58
-9,-68,-58,39,24,-63,24,0,-9,-14,-39,-58
-9,-73,-63,41,26,-68,24,0,-9,-19,-39,-58
-14,-68,-53,41,19,-61,14,-9,-19,-29,-48,-68
-14,-68,-53,41,19,-61,14,-14,-24,-29,-53,-68
-14,-68,-53,41,19,-61,14,-19,-34,-29,-53,-78
-9,-68,-58,39,24,-63,14,-24,-39,-29,-53,-78
-19,-63,-43,41,12,-53,24,-14,-29,-19,-48,-68
-24,-63,-39,43,7,-51,24,-19,-29,-24,-48,-73
-24,-63,-39,43,7,-51,19,-19,-29,-24,-48,-73
-24,-63,-39,43,7,-51,19,-19,-29,-24,-48,-73
-24,-63,-39,43,7,-51,19,-19,-29,-24,-58,-82
-24,-63,-39,43,7,-51,19,-19,-34,-24,-58,-82
-19,-63,-43,41,12,-53,19,-19,-34,-19,-53,-82
-19,-68,-48,43,14,-58,24,-19,-34,-19,-53,-82
-19,-58,-39,39,9,-48,14,-19,-34,-29,-53,-78
-24,-53,-29,39,2,-41,14,-24,-34,-29,-53,-78
-24,-53,-29,39,2,-41,14,-24,-34,-29,-58,-73
-24,-53,-29,39,2,-41,9,-24,-34,-29,-58,-73
-24,-53,-29,39,2,-41,19,-24,-34,-29,-48,-63
-29,-53,-24,41,-2,-39,19,-24,-34,-29,-53,-63
-29,-53,-24,41,-2,-39,19,-24,-34,-29,-53,-63
-29,-53,-24,41,-2,-39,19,-19,-34,-29,-53,-63
-29,-43,-14,36,-7,-29,19,-29,-34,-24,-53,-73
-29,-43,-14,36,-7,-29,19,-29,-34,-24,-53,-73
-29,-43,-14,36,-7,-29,19,-29,-34,-29,-48,-73
-29,-43,-14,36,-7,-29,19,-29,-34,-29,-48,-73
-39,-48,-9,43,-14,-29,19,-29,-34,-34,-48,-82
-39,-53,-14,46,-12,-34,19,-29,-34,-34,-48,-82
-39,-58,-19,48,-9,-39,19,-29,-34,-34,-53,-82
-43,-63,-19,53,-12,-41,19,-29,-34,-34,-53,-82
-43,-58,-14,51,-14,-36,19,-39,-43,-34,-53,-73
-39,-58,-19,48,-9,-39,19,-39,-43,-34,-53,-73
-39,-58,-19,48,-9,-39,19,-39,-43,-34,-53,-73
-43,-58,-14,51,-14,-36,24,-39,-48,-39,-53,-73
-34,-53,-19,43,-7,-36,14,-48,-48,-39,-53,-73
-34,-43,-9,39,-12,-26,14,-48,-48,-34,-53,-73
-34,-39,-4,36,-14,-21,14,-48,-48,-34,-53,-73
-29,-39,-9,34,-9,-24,14,-48,-48,-34,-53,-73
-29,-48,-19,39,-4,-34,24,-34,-43,-34,-53,-78
-29,-48,-19,39,-4,-34,24,-29,-39,-34,-53,-82
-29,-43,-14,36,-7,-29,24,-24,-34,-34,-53,-92
-29,-43,-14,36,-7,-29,24,-19,-29,-29,-53,-97
-29,-53,-24,41,-2,-39,34,-19,-29,-39,-63,-87
-29,-48,-19,39,-4,-34,34,-19,-29,-39,-63,-82
-29,-48,-19,39,-4,-34,34,-19,-29,-39,-63,-82
-29,-48,-19,39,-4,-34,34,-19,-29,-43,-58,-78
-29,-63,-34,46,2,-48,24,-29,-29,-34,-58,-68
-29,-63,-34,46,2,-48,24,-29,-29,-34,-58,-68
-29,-63,-34,46,2,-48,24,-34,-29,-34,-58,-68
-34,-63,-29,48,-2,-46,24,-34,-24,-29,-58,-68
-34,-53,-19,43,-7,-36,24,-34,-34,-29,-48,-68
-34,-53,-19,43,-7,-36,24,-34,-34,-34,-48,-68
-34,-53,-19,43,-7,-36,24,-34,-34,-34,-48,-68
-29,-53,-24,41,-2,-39,24,-34,-34,-34,-48,-68
-29,-63,-34,46,2,-48,24,-34,-34,-34,-48,-78
-29,-63,-34,46,2,-48,24,-34,-34,-29,-48,-78
-29,-63,-34,46,2,-48,24,-34,-34,-29,-48,-78
-29,-58,-29,43,0,-43,24,-34,-34,-29,-43,-78
-29,-48,-19,39,-4,-34,14,-34,-39,-29,-43,-78
-29,-48,-19,39,-4,-34,14,-39,-39,-29,-43,-78
-29,-48,-19,39,-4,-34,9,-39,-39,-29,-43,-78
-29,-48,-19,39,-4,-34,9,-39,-39,-29,-43,-78
-19,-48,-29,34,4,-39,19,-39,-29,-24,-43,-68
-19,-48,-29,34,4,-39,19,-39,-34,-24,-43,-68
-14,-48,-34,31,9,-41,19,-39,-34,-24,-43,-68
-14,-48,-34,31,9,-41,24,-39,-34,-24,-43,-68
-24,-58,-34,41,4,-46,24,-29,-34,-24,-43,-68
-24,-58,-34,41,4,-46,24,-29,-29,-24,-43,-68
-24,-58,-34,41,4,-46,24,-29,-29,-24,-43,-68
-24,-58,-34,41,4,-46,24,-29,-29,-24,-43,-68
-24,-48,-24,36,0,-36,24,-39,-39,-34,-43,-68
-24,-48,-24,36,0,-36,24,-39,-39,-34,-43,-68
-24,-48,-24,36,0,-36,24,-34,-39,-34,-43,-68
-24,-53,-29,39,2,-41,24,-34,-39,-34,-43,-68
-24,-53,-29,39,2,-41,24,-43,-43,-34,-43,-68
-24,-48,-24,36,0,-36,19,-48,-43,-34,-43,-68
-24,-48,-24,36,0,-36,19,-48,-39,-34,-43,-68
-24,-48,-24,36,0,-36,19,-48,-39,-34,-43,-68
-24,-48,-24,36,0,-36,19,-39,-39,-24,-43,-68
-24,-48,-24,36,0,-36,19,-39,-39,-24,-43,-68
-24,-48,-24,36,0,-36,19,-39,-39,-24,-43,-68
-24,-48,-24,36,0,-36,24,-39,-39,-24,-43,-68
-14,-48,-34,31,9,-41,24,-29,-29,-24,-43,-78
-14,-48,-34,31,9,-41,24,-29,-29,-24,-43,-78
-14,-48,-34,31,9,-41,19,-29,-29,-24,-43,-78
-14,-48,-34,31,9,-41,19,-29,-29,-29,-43,-78
-14,-53,-39,34,12,-46,29,-39,-34,-29,-53,-68
-14,-53,-39,34,12,-46,29,-39,-34,-29,-53,-68
-14,-53,-39,34,12,-46,29,-39,-34,-29,-53,-68
-14,-53,-39,34,12,-46,29,-39,-34,-29,-53,-73
-24,-53,-29,39,2,-41,19,-48,-43,-39,-58,-73
-24,-53,-29,39,2,-41,19,-48,-43,-39,-58,-68
-24,-53,-29,39,2,-41,19,-48,-43,-39,-63,-68
-24,-53,-29,39,2,-41,19,-48,-43,-39,-63,-73
-24,-58,-34,41,4,-46,29,-39,-34,-43,-63,-73
-24,-63,-39,43,7,-51,24,-43,-34,-43,-63,-73
-24,-68,-43,46,9,-56,24,-48,-34,-43,-63,-73
-24,-73,-48,48,12,-61,24,-48,-39,-43,-63,-73
-34,-82,-48,58,7,-65,14,-48,-48,-34,-58,-73
-34,-82,-48,58,7,-65,14,-48,-48,-34,-58,-73
-34,-82,-48,58,7,-65,14,-48,-48,-34,-58,-73
-34,-82,-48,58,7,-65,14,-48,-43,-34,-58,-73
-24,-73,-48,48,12,-61,14,-48,-34,-34,-48,-63
-24,-73,-48,48,12,-61,14,-48,-39,-34,-48,-63
-24,-73,-48,48,12,-61,14,-48,-39,-34,-48,-63
-24,-78,-53,51,14,-65,14,-43,-39,-34,-48,-63
-24,-78,-53,51,14,-65,14,-43,-39,-34,-43,-63
-24,-78,-53,51,14,-65,14,-48,-39,-34,-48,-68
-24,-73,-48,48,12,-61,14,-48,-39,-34,-48,-68
-24,-73,-48,48,12,-61,14,-48,-39,-39,-48,-68
-24,-73,-48,48,12,-61,24,-39,-39,-39,-58,-68
-24,-78,-53,51,14,-65,29,-39,-39,-34,-58,-68
-24,-78,-53,51,14,-65,29,-43,-39,-34,-58,-68
-24,-78,-53,51,14,-65,29,-43,-39,-34,-58,-68
-24,-68,-43,46,9,-56,19,-43,-39,-29,-58,-78
-24,-68,-43,46,9,-56,19,-43,-39,-29,-58,-78
-24,-68,-43,46,9,-56,19,-43,-39,-29,-53,-78
-24,-68,-43,46,9,-56,14,-43,-39,-29,-53,-78
-34,-68,-34,51,0,-51,14,-43,-48,-39,-58,-78
-34,-73,-39,53,2,-56,14,-43,-48,-39,-58,-78
-34,-73,-39,53,2,-56,14,-43,-48,-39,-53,-78
-34,-73,-39,53,2,-56,14,-43,-48,-39,-53,-73
-34,-63,-29,48,-2,-46,14,-53,-48,-39,-63,-82
-34,-63,-29,48,-2,-46,14,-53,-43,-39,-63,-87
-34,-68,-34,51,0,-51,14,-53,-43,-39,-63,-87
-34,-68,-34,51,0,-51,14,-53,-48,-39,-63,-87
-34,-58,-24,46,-4,-41,14,-53,-48,-39,-53,-82
-24,-53,-29,39,2,-41,9,-53,-48,-39,-53,-73
-24,-63,-39,43,7,-51,9,-39,-43,-39,-53,-73
-34,-68,-34,51,0,-51,19,-39,-43,-43,-58,-87
-39,-68,-29,53,-4,-48,19,-39,-39,-48,-58,-78
-29,-68,-39,48,4,-53,19,-39,-29,-48,-58,-78
-29,-68,-39,48,4,-53,19,-39,-29,-48,-58,-78
-29,-68,-39,48,4,-53,19,-39,-29,-48,-58,-78
-29,-68,-39,48,4,-53,19,-39,-29,-48,-58,-78
-14,-73,-58,43,21,-65,9,-39,-39,-43,-53,-68
-9,-68,-58,39,24,-63,9,-39,-34,-39,-53,-68
-9,-58,-48,34,19,-53,9,-39,-34,-39,-48,-63
-9,-53,-43,31,17,-48,14,-39,-34,-29,-48,-58
4,-48,-53,21,29,-51,24,-24,-24,-19,-34,-58
4,-43,-48,19,26,-46,24,-19,-19,-14,-24,-48
4,-43,-48,19,26,-46,24,-14,-9,-9,-24,-48
4,-43,-48,19,26,-46,24,-14,0,0,-19,-48
4,-39,-43,17,24,-41,34,-14,-9,-9,-29,-48
4,-29,-34,12,19,-31,34,-14,-9,-9,-29,-48
0,-19,-19,9,9,-19,34,-14,-14,-9,-29,-48
0,-14,-14,7,7,-14,34,-14,-14,-9,-34,-48
-4,-14,-9,9,2,-12,24,-24,-14,-9,-34,-48
-4,-14,-9,9,2,-12,24,-29,-14,-9,-34,-48
-4,-14,-9,9,2,-12,24,-29,-14,-9,-34,-48
4,-9,-14,2,9,-12,19,-29,-14,-9,-29,-43
14,-4,-19,-4,17,-12,29,-29,0,0,-19,-29
24,-4,-29,-9,26,-17,19,-29,0,9,-14,-24
29,0,-29,-14,29,-14,14,-29,-4,14,-4,-24
34,0,-34,-17,34,-17,9,-29,-4,19,0,-14
39,0,-39,-19,39,-19,9,-24,4,14,4,-14
43,0,-43,-21,43,-21,0,-29,4,14,4,-14
48,0,-48,-24,48,-24,0,-29,4,14,4,-14
48,0,-48,-24,48,-24,0,-29,4,14,0,-19
48,-4,-53,-21,51,-29,9,-29,-4,0,-14,-19
48,-4,-53,-21,51,-29,9,-29,-4,0,-14,-24
48,-4,-53,-21,51,-29,4,-29,-4,0,-14,-24
48,-4,-53,-21,51,-29,0,-34,-14,-4,-14,-24
48,-14,-63,-17,56,-39,0,-43,-19,-4,-14,-24
48,-14,-63,-17,56,-39,0,-43,-19,-4,-14,-24
43,-14,-58,-14,51,-36,4,-48,-19,-4,-14,-24
43,-19,-63,-12,53,-41,4,-48,-19,-14,-19,-29
29,-29,-58,0,43,-43,-4,-58,-34,-24,-34,-43
24,-39,-63,7,43,-51,-4,-58,-39,-29,-43,-48
14,-48,-63,17,39,-56,0,-58,-39,-29,-48,-48
-4,-58,-53,31,24,-56,0,-58,-39,-34,-53,-48
-9,-53,-43,31,17,-48,4,-48,-29,-43,-58,-53
-14,-58,-43,36,14,-51,4,-58,-29,-48,-63,-58
-19,-58,-39,39,9,-48,4,-58,-39,-48,-68,-63
-24,-63,-39,43,7,-51,9,-58,-39,-48,-68,-63
-19,-63,-43,41,12,-53,4,-58,-48,-48,-68,-73
-24,-63,-39,43,7,-51,4,-63,-53,-53,-73,-78
-24,-58,-34,41,4,-46,0,-73,-63,-53,-73,-87
-24,-58,-34,41,4,-46,0,-78,-68,-53,-78,-87
-24,-68,-43,46,9,-56,0,-68,-58,-63,-82,-87
-24,-68,-43,46,9,-56,-4,-68,-58,-68,-82,-87
-29,-78,-48,53,9,-63,-4,-68,-68,-68,-87,-92
-34,-82,-48,58,7,-65,0,-73,-68,-73,-92,-92
-29,-92,-63,61,17,-78,9,-63,-58,-63,-82,-87
-29,-92,-63,61,17,-78,14,-63,-58,-63,-82,-87
-29,-92,-63,61,17,-78,14,-63,-58,-63,-82,-82
-29,-97,-68,63,19,-82,19,-63,-58,-63,-82,-78
-39,-92,-53,65,7,-73,19,-63,-63,-73,-92,-78
-39,-87,-48,63,4,-68,14,-68,-68,-73,-92,-78
-39,-78,-39,58,0,-58,14,-73,-73,-73,-92,-78
-39,-73,-34,56,-2,-53,19,-78,-78,-73,-92,-78
-43,-82,-39,63,-2,-61,19,-78,-68,-73,-87,-92
-43,-82,-39,63,-2,-61,19,-82,-73,-78,-87,-92
-43,-82,-39,63,-2,-61,19,-82,-73,-78,-87,-92
-43,-82,-39,63,-2,-61,19,-82,-73,-73,-87,-97
-53,-82,-29,68,-12,-56,19,-73,-68,-73,-92,-107
-53,-87,-34,70,-9,-61,19,-68,-68,-73,-97,-107
-53,-87,-34,70,-9,-61,19,-68,-68,-78,-102,-107
-53,-92,-39,73,-7,-65,19,-68,-68,-78,-107,-102
-43,-92,-48,68,2,-70,19,-78,-68,-73,-107,-92
-48,-87,-39,68,-4,-63,19,-78,-68,-73,-107,-92
-48,-87,-39,68,-4,-63,19,-78,-68,-73,-107,-92
-43,-87,-43,65,0,-65,24,-78,-63,-78,-107,-92
-43,-87,-43,65,0,-65,24,-68,-63,-78,-97,-92
-43,-87,-43,65,0,-65,24,-68,-63,-78,-97,-92
-43,-87,-43,65,0,-65,24,-68,-63,-78,-97,-92
-43,-87,-43,65,0,-65,24,-68,-63,-78,-97,-92
-43,-87,-43,65,0,-65,14,-78,-63,-73,-97,-102
-43,-87,-43,65,0,-65,14,-78,-63,-73,-92,-102
-43,-87,-43,65,0,-65,19,-78,-63,-73,-92,-102
-48,-87,-39,68,-4,-63,19,-78,-63,-73,-92,-102
-48,-87,-39,68,-4,-63,19,-68,-63,-73,-102,-102
-48,-87,-39,68,-4,-63,19,-68,-63,-73,-107,-102
-48,-87,-39,68,-4,-63,19,-68,-63,-73,-107,-102
-48,-87,-39,68,-4,-63,19,-68,-63,-73,-102,-102
-48,-78,-29,63,-9,-53,19,-68,-63,-73,-92,-92
-48,-78,-29,63,-9,-53,19,-68,-63,-73,-92,-92
-48,-78,-29,63,-9,-53,19,-68,-63,-73,-92,-92
-48,-78,-29,63,-9,-53,19,-68,-63,-73,-92,-92
-39,-73,-34,56,-2,-53,19,-63,-63,-63,-87,-92
-48,-73,-24,61,-12,-48,19,-58,-63,-63,-97,-102
-48,-78,-29,63,-9,-53,24,-58,-58,-63,-97,-102
-53,-82,-29,68,-12,-56,34,-53,-58,-78,-107,-112
-58,-87,-29,73,-14,-58,39,-48,-58,-92,-126,-117
-58,-112,-53,85,-2,-82,53,-24,-43,-92,-131,-122
-63,-117,-53,90,-4,-85,68,0,-19,-82,-131,-126
-53,-117,-63,85,4,-90,73,19,-4,-63,-122,-126
-53,-112,-58,82,2,-85,73,43,24,-19,-92,-117
-34,-107,-73,70,19,-90,87,92,78,48,-24,-87
4,-92,-97,43,51,-95,97,151,165,141,68,-53
68,-58,-126,-4,97,-92,122,234,268,248,161,0
126,-29,-156,-48,141,-92,136,302,366,346,248,53
195,4,-190,-100,192,-92,141,375,463,439,351,117
287,53,-234,-170,261,-90,141,429,566,556,463,204
400,112,-287,-256,344,-87,126,492,663,688,605,312
517,165,-351,-341,434,-92,102,556,775,849,771,434
639,219,-419,-429,529,-100,63,585,878,995,941,551
736,283,-453,-509,595,-85,14,575,932,1117,1088,668
824,366,-458,-595,641,-46,-53,536,971,1215,1224,761
873,439,-434,-656,653,2,-122,458,941,1249,1278,844
839,492,-346,-666,592,73,-175,346,854,1200,1278,888
746,522,-224,-634,485,148,-200,219,732,1107,1195,878
658,507,-151,-583,405,178,-234,68,570,941,1039,810
585,409,-175,-497,380,117,-297,-82,370,678,795,668
517,307,-209,-412,363,48,-361,-234,151,390,541,507
390,229,-161,-309,275,34,-385,-370,-34,185,356,390
229,180,-48,-204,139,65,-375,-478,-204,14,190,292
73,117,43,-95,14,80,-361,-605,-414,-219,-19,175
-63,53,117,4,-90,85,-341,-736,-644,-458,-239,34
-151,-4,146,78,-148,70,-336,-805,-785,-605,-380,-48
-170,-53,117,112,-143,31,-346,-810,-805,-639,-419,-97
-180,-82,97,131,-139,7,-346,-771,-775,-639,-429,-126
-175,-82,92,129,-134,4,-336,-702,-722,-605,-424,-146
-165,-78,87,122,-126,4,-302,-619,-629,-541,-395,-136
-156,-82,73,119,-114,-4,-253,-522,-527,-463,-341,-126
-151,-82,68,117,-109,-7,-200,-434,-444,-395,-307,-136
-126,-73,53,100,-90,-9,-156,-351,-361,-336,-263,-136
-102,-68,34,85,-68,-17,-112,-283,-297,-283,-234,-122
-82,-63,19,73,-51,-21,-78,-229,-239,-239,-209,-112
-63,-53,9,58,-36,-21,-63,-200,-209,-209,-185,-97
-68,-48,19,58,-43,-14,-63,-195,-200,-180,-156,-87
-68,-34,34,51,-51,0,-48,-175,-175,-161,-131,-68
-68,-24,43,46,-56,9,-29,-151,-156,-141,-131,-78
-73,-43,29,58,-51,-7,-19,-141,-136,-126,-131,-87
-73,-53,19,63,-46,-17,-14,-117,-112,-107,-112,-97
-58,-43,14,51,-36,-14,4,-82,-87,-87,-97,-87
-48,-43,4,46,-26,-19,19,-68,-58,-78,-87,-82
-53,-48,4,51,-29,-21,24,-68,-58,-73,-87,-82
-53,-58,-4,56,-24,-31,14,-78,-63,-82,-97,-92
-53,-58,-4,56,-24,-31,14,-78,-68,-82,-102,-92
-53,-63,-9,58,-21,-36,14,-78,-73,-87,-102,-92
-58,-68,-9,63,-24,-39,14,-78,-78,-87,-102,-92
-58,-73,-14,65,-21,-43,19,-58,-63,-73,-92,-82
-58,-73,-14,65,-21,-43,24,-53,-58,-68,-92,-87
-58,-68,-9,63,-24,-39,29,-48,-48,-63,-87,-87
-58,-68,-9,63,-24,-39,34,-48,-43,-58,-87,-87
-48,-68,-19,58,-14,-43,34,-43,-43,-53,-73,-78
-48,-68,-19,58,-14,-43,34,-43,-43,-53,-73,-78
-48,-73,-24,61,-12,-48,34,-39,-43,-53,-73,-78
-48,-73,-24,61,-12,-48,39,-39,-43,-53,-68,-73
-53,-73,-19,63,-17,-46,39,-48,-43,-58,-73,-78
-53,-73,-19,63,-17,-46,39,-48,-39,-58,-73,-87
-53,-73,-19,63,-17,-46,43,-43,-39,-58,-78,-92
-53,-73,-19,63,-17,-46,43,-39,-34,-53,-78,-97
-53,-82,-29,68,-12,-56,43,-34,-24,-63,-87,-97
-53,-78,-24,65,-14,-51,48,-24,-19,-63,-87,-97
-48,-78,-29,63,-9,-53,48,-19,-19,-63,-92,-97
-48,-78,-29,63,-9,-53,43,-14,-19,-58,-92,-97
-48,-78,-29,63,-9,-53,43,-24,-19,-58,-87,-87
-48,-78,-29,63,-9,-53,43,-24,-24,-58,-87,-82
-48,-78,-29,63,-9,-53,48,-24,-29,-58,-87,-82
-48,-78,-29,63,-9,-53,48,-19,-34,-58,-82,-82
-39,-73,-34,56,-2,-53,39,-29,-29,-43,-78,-78
-34,-68,-34,51,0,-51,39,-29,-29,-43,-68,-78
-34,-63,-29,48,-2,-46,34,-24,-29,-39,-63,-73
-34,-58,-24,46,-4,-41,34,-24,-29,-39,-58,-73
-34,-58,-24,46,-4,-41,48,-19,-14,-39,-58,-73
-34,-58,-24,46,-4,-41,48,-9,-14,-39,-58,-73
-29,-58,-29,43,0,-43,43,-4,-14,-34,-53,-73
-29,-58,-29,43,0,-43,43,0,-9,-34,-53,-73
-29,-68,-39,48,4,-53,53,0,0,-29,-53,-73
-29,-68,-39,48,4,-53,53,0,0,-29,-53,-73
-24,-58,-34,41,4,-46,53,0,0,-29,-53,-68
-24,-58,-34,41,4,-46,53,4,0,-29,-48,-68
-24,-48,-24,36,0,-36,39,-4,-4,-29,-58,-68
-24,-48,-24,36,0,-36,19,-4,-4,-24,-58,-68
-24,-48,-24,36,0,-36,0,0,-4,-24,-53,-63
-24,-48,-24,36,0,-36,-19,0,0,-19,-53,-63
-24,-39,-14,31,-4,-26,-9,0,0,-29,-48,-68
-24,-39,-14,31,-4,-26,-9,0,0,-29,-48,-68
-24,-29,-4,26,-9,-17,-9,4,4,-29,-48,-68
-19,-29,-9,24,-4,-19,-9,4,4,-24,-43,-63
-19,-34,-14,26,-2,-24,0,4,9,-19,-43,-63
-19,-34,-14,26,-2,-24,0,9,14,-19,-43,-63
-14,-34,-19,24,2,-26,0,14,14,-19,-39,-63
-14,-29,-14,21,0,-21,0,14,14,-14,-39,-63
-4,-29,-24,17,9,-26,0,14,14,-4,-39,-53
-4,-24,-19,14,7,-21,9,14,14,-4,-39,-48
-4,-24,-19,14,7,-21,9,14,14,0,-39,-48
0,-24,-24,12,12,-24,4,19,19,4,-34,-48
0,-14,-14,7,7,-14,4,24,24,0,-29,-39
0,-9,-9,4,4,-9,4,29,29,4,-24,-34
4,-9,-14,2,9,-12,4,29,29,4,-19,-29
9,-4,-14,-2,12,-9,4,34,34,9,-19,-29
9,-4,-14,-2,12,-9,4,39,48,14,-14,-34
9,0,-9,-4,9,-4,9,43,48,19,-9,-29
14,0,-14,-7,14,-7,9,43,53,24,-4,-29
19,4,-14,-12,17,-4,14,48,58,29,-4,-29
19,0,-19,-9,19,-9,19,53,73,39,4,-29
19,0,-19,-9,19,-9,19,63,78,48,14,-19
24,0,-24,-12,24,-12,19,68,82,58,24,-14
34,9,-24,-21,29,-7,19,78,92,68,34,-9
34,14,-19,-24,26,-2,9,73,92,78,34,-4
39,19,-19,-29,29,0,14,78,92,82,39,0
43,19,-24,-31,34,-2,14,82,97,87,48,4
48,24,-24,-36,36,0,19,87,97,97,53,9
53,39,-14,-46,34,12,19,102,107,97,48,24
53,43,-9,-48,31,17,19,112,122,97,63,29
58,43,-14,-51,36,14,24,117,131,107,68,34
63,48,-14,-56,39,17,24,122,136,117,78,43
58,48,-9,-53,34,19,34,136,156,122,78,34
63,48,-14,-56,39,17,34,151,156,136,92,43
68,48,-19,-58,43,14,34,156,170,141,102,48
73,48,-24,-61,48,12,34,161,170,151,102,53
82,58,-24,-70,53,17,34,156,170,151,112,58
82,58,-24,-70,53,17,34,161,175,156,122,73
87,58,-29,-73,58,14,34,165,190,165,131,78
92,68,-24,-80,58,21,34,170,195,175,136,92
97,68,-29,-82,63,19,43,190,214,195,146,102
102,68,-34,-85,68,17,43,195,219,204,156,102
102,73,-29,-87,65,21,43,200,234,214,165,107
107,78,-29,-92,68,24,43,200,239,224,175,112
122,82,-39,-102,80,21,43,195,239,219,180,117
126,87,-39,-107,82,24,43,200,244,224,190,117
131,92,-39,-112,85,26,43,204,253,234,190,122
136,97,-39,-117,87,29,39,204,258,239,200,126
131,112,-19,-122,75,46,39,209,258,253,209,131
136,112,-24,-124,80,43,43,209,263,263,214,136
136,117,-19,-126,78,48,43,209,268,263,219,136
136,117,-19,-126,78,48,39,209,273,273,224,136
126,117,-9,-122,68,53,48,224,263,273,219,136
131,112,-19,-122,75,46,48,224,263,268,219,136
131,107,-24,-119,78,41,48,224,268,268,219,136
131,102,-29,-117,80,36,48,224,268,268,219,131
136,107,-29,-122,82,39,48,224,278,268,209,131
136,107,-29,-122,82,39,48,224,278,268,214,131
136,107,-29,-122,82,39,48,219,278,268,214,136
136,112,-24,-124,80,43,48,219,273,268,214,136
131,122,-9,-126,70,56,48,204,258,273,219,146
131,122,-9,-126,70,56,48,200,258,273,219,146
131,117,-14,-124,73,51,43,190,258,273,219,146
131,117,-14,-124,73,51,39,185,248,268,214,141
117,117,0,-117,58,58,29,180,239,258,214,131
117,117,0,-117,58,58,29,170,229,248,204,122
112,107,-4,-109,58,51,29,161,224,239,195,117
112,97,-14,-104,63,41,29,146,214,229,190,107
107,92,-14,-100,61,39,29,141,204,219,180,117
102,87,-14,-95,58,36,19,136,195,204,170,107
102,82,-19,-92,61,31,19,131,185,195,156,102
92,73,-19,-82,56,26,19,126,175,190,146,87
87,63,-24,-75,56,19,29,117,165,175,131,92
78,58,-19,-68,48,19,24,107,151,161,117,87
68,53,-14,-61,41,19,24,102,141,146,107,82
63,43,-19,-53,41,12,24,92,131,141,97,73
68,19,-48,-43,58,-14,14,92,131,136,92,58
58,9,-48,-34,53,-19,14,82,122,126,87,48
53,4,-48,-29,51,-21,14,73,112,117,82,39
48,-4,-53,-21,51,-29,14,73,107,107,63,34
43,4,-39,-24,41,-17,14,58,102,92,58,29
39,-4,-43,-17,41,-24,14,53,92,82,48,19
34,-4,-39,-14,36,-21,14,43,82,73,48,14
34,-9,-43,-12,39,-26,14,39,78,68,48,4
24,0,-24,-12,24,-12,9,29,58,58,29,0
19,-9,-29,-4,24,-19,9,24,48,48,19,-9
19,-14,-34,-2,26,-24,9,19,39,43,9,-14
14,-19,-34,2,24,-26,9,19,29,34,9,-24
4,-34,-39,14,21,-36,19,14,39,24,0,-19
0,-34,-34,17,17,-34,14,9,29,19,-9,-24
0,-34,-34,17,17,-34,14,9,29,14,-9,-24
-4,-39,-34,21,14,-36,14,4,24,4,-19,-24
-9,-39,-29,24,9,-34,4,-9,4,-14,-24,-29
-14,-39,-24,26,4,-31,0,-19,0,-14,-29,-34
-14,-43,-29,29,7,-36,-4,-19,-4,-19,-29,-39
-19,-48,-29,34,4,-39,-9,-19,-4,-19,-29,-39
-19,-39,-19,29,0,-29,4,-19,-9,-9,-34,-48
-19,-43,-24,31,2,-34,4,-24,-14,-14,-39,-48
-19,-43,-24,31,2,-34,0,-29,-19,-19,-43,-58
-19,-43,-24,31,2,-34,0,-29,-24,-24,-48,-58
-29,-39,-9,34,-9,-24,0,-29,-24,-34,-58,-63
-29,-39,-9,34,-9,-24,0,-29,-24,-39,-58,-68
-34,-39,-4,36,-14,-21,0,-34,-24,-43,-63,-73
-34,-39,-4,36,-14,-21,0,-39,-24,-43,-63,-78
-29,-39,-9,34,-9,-24,0,-48,-29,-43,-73,-78
-29,-34,-4,31,-12,-19,0,-48,-39,-43,-73,-78
-29,-34,-4,31,-12,-19,-4,-48,-43,-43,-78,-78
-29,-34,-4,31,-12,-19,-4,-48,-48,-48,-78,-78
-34,-39,-4,36,-14,-21,4,-43,-48,-39,-73,-73
-34,-39,-4,36,-14,-21,4,-43,-43,-39,-73,-68
-34,-39,-4,36,-14,-21,4,-43,-43,-39,-68,-73
-29,-39,-9,34,-9,-24,4,-43,-39,-39,-63,-68
-29,-39,-9,34,-9,-24,4,-34,-39,-48,-68,-58
-34,-43,-9,39,-12,-26,4,-39,-39,-53,-68,-63
-34,-48,-14,41,-9,-31,0,-39,-39,-53,-68,-63
-34,-53,-19,43,-7,-36,0,-39,-39,-53,-68,-63
-43,-53,-9,48,-17,-31,0,-48,-48,-53,-78,-63
-43,-53,-9,48,-17,-31,0,-48,-53,-53,-78,-63
-39,-53,-14,46,-12,-34,0,-48,-53,-48,-73,-63
-39,-58,-19,48,-9,-39,4,-48,-53,-48,-73,-63
-48,-58,-9,53,-19,-34,-4,-39,-43,-58,-73,-78
-53,-53,0,53,-26,-26,-4,-43,-43,-58,-73,-78
-53,-53,0,53,-26,-26,-4,-43,-43,-58,-78,-73
-53,-53,0,53,-26,-26,-9,-43,-43,-58,-78,-73
-43,-53,-9,48,-17,-31,0,-43,-43,-58,-78,-73
-48,-53,-4,51,-21,-29,0,-43,-43,-58,-82,-73
-48,-53,-4,51,-21,-29,0,-43,-43,-58,-82,-73
-48,-53,-4,51,-21,-29,0,-39,-43,-58,-82,-73
-48,-43,4,46,-26,-19,0,-39,-43,-53,-73,-68
-48,-43,4,46,-26,-19,0,-39,-43,-53,-73,-63
-48,-43,4,46,-26,-19,0,-39,-43,-58,-68,-58
-48,-43,4,46,-26,-19,0,-39,-43,-58,-68,-53
-39,-53,-14,46,-12,-34,0,-39,-43,-53,-68,-63
-39,-53,-14,46,-12,-34,0,-39,-43,-53,-68,-63
-39,-53,-14,46,-12,-34,0,-39,-43,-53,-73,-63
-43,-53,-9,48,-17,-31,0,-39,-43,-53,-73,-63
-43,-39,4,41,-24,-17,-9,-48,-43,-43,-68,-73
-39,-39,0,39,-19,-19,-9,-48,-43,-43,-63,-73
-39,-39,0,39,-19,-19,-9,-48,-43,-43,-58,-73
-43,-39,4,41,-24,-17,-4,-48,-48,-48,-53,-73
-34,-29,4,31,-19,-12,-4,-58,-48,-58,-58,-73
-34,-24,9,29,-21,-7,-4,-58,-48,-53,-63,-73
-34,-24,9,29,-21,-7,-4,-58,-48,-53,-68,-73
-29,-29,0,29,-14,-14,-4,-58,-48,-53,-73,-73
-29,-39,-9,34,-9,-24,-4,-58,-48,-53,-63,-63
-29,-39,-9,34,-9,-24,-4,-58,-48,-53,-63,-63
-29,-34,-4,31,-12,-19,-4,-58,-48,-53,-63,-68
-29,-34,-4,31,-12,-19,-4,-58,-48,-48,-63,-68
-29,-34,-4,31,-12,-19,-14,-48,-39,-48,-63,-58
-29,-29,0,29,-14,-14,-14,-48,-39,-48,-63,-53
-29,-29,0,29,-14,-14,-14,-48,-39,-48,-63,-53
-29,-29,0,29,-14,-14,-14,-48,-39,-53,-58,-48
-29,-43,-14,36,-7,-29,-14,-39,-39,-53,-48,-39
-29,-43,-14,36,-7,-29,-14,-39,-39,-53,-48,-39
-29,-43,-14,36,-7,-29,-14,-43,-39,-53,-48,-39
-34,-43,-9,39,-12,-26,-14,-43,-34,-48,-48,-39
-24,-34,-9,29,-7,-21,-4,-34,-24,-43,-39,-39
-24,-34,-9,29,-7,-21,-4,-34,-24,-43,-39,-39
-24,-34,-9,29,-7,-21,-4,-34,-24,-39,-39,-39
-19,-34,-14,26,-2,-24,-4,-34,-24,-34,-39,-39
-29,-34,-4,31,-12,-19,-4,-43,-34,-43,-48,-43
-29,-34,-4,31,-12,-19,-4,-43,-34,-39,-48,-48
-29,-34,-4,31,-12,-19,-4,-43,-34,-39,-48,-53
-29,-29,0,29,-14,-14,-4,-43,-34,-39,-43,-58
-29,-19,9,24,-19,-4,-14,-53,-48,-48,-48,-68
-29,-19,9,24,-19,-4,-14,-58,-48,-48,-53,-68
-29,-19,9,24,-19,-4,-19,-58,-48,-48,-58,-68
-29,-19,9,24,-19,-4,-19,-58,-48,-48,-63,-68
-29,-19,9,24,-19,-4,-19,-58,-48,-43,-63,-68
-29,-19,9,24,-19,-4,-19,-58,-53,-43,-63,-68
-24,-19,4,21,-14,-7,-19,-58,-53,-43,-63,-68
-24,-19,4,21,-14,-7,-14,-58,-53,-43,-63,-68
-34,-24,9,29,-21,-7,-14,-48,-43,-43,-63,-58
-34,-29,4,31,-19,-12,-14,-48,-39,-43,-63,-58
-34,-34,0,34,-17,-17,-14,-48,-39,-43,-63,-58
-34,-39,-4,36,-14,-21,-14,-48,-39,-43,-63,-58
-34,-39,-4,36,-14,-21,-14,-48,-48,-53,-63,-68
-34,-39,-4,36,-14,-21,-14,-48,-48,-53,-63,-68
-34,-39,-4,36,-14,-21,-14,-43,-48,-53,-63,-68
-34,-43,-9,39,-12,-26,-14,-43,-48,-53,-63,-68
-34,-34,0,34,-17,-17,-14,-43,-53,-53,-73,-68
-34,-29,4,31,-19,-12,-19,-48,-53,-53,-73,-68
-34,-29,4,31,-19,-12,-19,-48,-48,-53,-73,-68
-34,-29,4,31,-19,-12,-19,-48,-48,-53,-73,-68
-34,-29,4,31,-19,-12,-9,-39,-39,-43,-73,-78
-34,-29,4,31,-19,-12,-9,-39,-39,-43,-73,-78
-34,-29,4,31,-19,-12,-9,-39,-39,-43,-73,-78
-34,-29,4,31,-19,-12,-4,-39,-39,-43,-73,-78
-34,-34,0,34,-17,-17,-4,-39,-39,-39,-68,-73
-34,-39,-4,36,-14,-21,-4,-39,-39,-34,-63,-68
-34,-43,-9,39,-12,-26,-9,-39,-39,-29,-58,-63
-34,-48,-14,41,-9,-31,-9,-39,-39,-29,-53,-58
-34,-53,-19,43,-7,-36,-9,-43,-53,-39,-63,-58
-34,-53,-19,43,-7,-36,-9,-48,-53,-39,-63,-58
-34,-53,-19,43,-7,-36,-9,-53,-53,-39,-63,-58
-34,-53,-19,43,-7,-36,-9,-58,-53,-39,-63,-63
-34,-43,-9,39,-12,-26,-9,-48,-43,-43,-68,-53
-34,-43,-9,39,-12,-26,-9,-48,-43,-48,-68,-48
-34,-43,-9,39,-12,-26,-9,-48,-43,-53,-73,-48
-34,-43,-9,39,-12,-26,-9,-48,-43,-58,-73,-53
-43,-43,0,43,-21,-21,-9,-48,-53,-63,-73,-53
-43,-43,0,43,-21,-21,-14,-53,-53,-63,-73,-53
-43,-43,0,43,-21,-21,-14,-58,-53,-63,-73,-53
-43,-43,0,43,-21,-21,-14,-58,-58,-63,-73,-53
-34,-39,-4,36,-14,-21,-24,-58,-58,-63,-78,-58
-34,-34,0,34,-17,-17,-24,-58,-58,-63,-78,-63
-34,-29,4,31,-19,-12,-24,-58,-58,-63,-78,-68
-34,-24,9,29,-21,-7,-24,-58,-53,-63,-78,-73
-34,-29,4,31,-19,-12,-24,-58,-53,-63,-78,-73
-34,-34,0,34,-17,-17,-24,-58,-58,-63,-78,-73
-34,-39,-4,36,-14,-21,-24,-58,-58,-63,-78,-73
-34,-48,-14,41,-9,-31,-24,-53,-58,-63,-78,-73
-43,-48,-4,46,-19,-26,-14,-53,-58,-63,-82,-73
-43,-48,-4,46,-19,-26,-14,-58,-58,-63,-87,-78
-43,-43,0,43,-21,-21,-14,-58,-58,-63,-87,-78
-43,-43,0,43,-21,-21,-14,-58,-58,-68,-87,-78
-53,-43,9,48,-31,-17,-14,-68,-68,-78,-97,-82
-53,-48,4,51,-29,-21,-9,-68,-68,-73,-97,-87
-53,-48,4,51,-29,-21,-9,-73,-68,-73,-97,-92
-53,-48,4,51,-29,-21,-9,-73,-68,-73,-97,-97
-43,-48,-4,46,-19,-26,-9,-63,-68,-73,-87,-97
-43,-48,-4,46,-19,-26,-9,-63,-68,-68,-87,-97
-43,-48,-4,46,-19,-26,-9,-63,-68,-63,-82,-97
-43,-48,-4,46,-19,-26,-14,-63,-68,-58,-82,-97
-34,-48,-14,41,-9,-31,-14,-53,-58,-58,-87,-82
-34,-53,-19,43,-7,-36,-14,-53,-58,-58,-87,-78
-34,-53,-19,43,-7,-36,-14,-53,-58,-58,-82,-73
-34,-53,-19,43,-7,-36,-14,-53,-58,-58,-82,-63
-34,-53,-19,43,-7,-36,-14,-53,-58,-68,-82,-58
-34,-53,-19,43,-7,-36,-14,-53,-53,-68,-82,-58
-34,-58,-24,46,-4,-41,-14,-53,-53,-68,-82,-53
-34,-58,-24,46,-4,-41,-14,-53,-58,-68,-82,-48
-43,-48,-4,46,-19,-26,-14,-63,-68,-68,-73,-53
-34,-43,-9,39,-12,-26,-9,-53,-68,-68,-73,-53
-39,-48,-9,43,-14,-29,-9,-48,-58,-58,-78,-48
-39,-58,-19,48,-9,-39,-9,-48,-58,-58,-78,-53
-39,-58,-19,48,-9,-39,-9,-48,-58,-58,-78,-58
-39,-58,-19,48,-9,-39,-9,-48,-58,-58,-78,-63
-39,-58,-19,48,-9,-39,-9,-48,-58,-58,-78,-68
-34,-53,-19,43,-7,-36,-19,-58,-58,-63,-82,-78
-29,-48,-19,39,-4,-34,-19,-58,-53,-58,-82,-78
-29,-39,-9,34,-9,-24,-19,-58,-53,-58,-78,-73
-29,-34,-4,31,-12,-19,-14,-58,-53,-48,-78,-68
-14,-19,-4,17,-4,-12,-24,-53,-48,-43,-73,-68
-14,-14,0,14,-7,-7,-24,-48,-48,-43,-63,-58
-14,-14,0,14,-7,-7,-24,-43,-43,-43,-63,-58
-14,-14,0,14,-7,-7,-24,-43,-39,-39,-58,-58
-24,-14,9,19,-17,-2,-19,-34,-29,-29,-48,-58
-24,-9,14,17,-19,2,-14,-34,-29,-29,-48,-58
-29,-4,24,17,-26,9,-9,-34,-34,-29,-48,-58
-29,-4,24,17,-26,9,-4,-34,-34,-29,-53,-58
-24,-14,9,19,-17,-2,4,-24,-34,-29,-53,-58
-24,-14,9,19,-17,-2,4,-29,-34,-29,-53,-58
-24,-14,9,19,-17,-2,4,-29,-34,-29,-53,-58
-14,-9,4,12,-9,-2,0,-29,-34,-29,-48,-53
-14,-4,9,9,-12,2,9,-19,-24,-14,-39,-34
-4,-4,0,4,-2,-2,0,-19,-19,-9,-34,-24
0,0,0,0,0,0,-4,-19,-19,-9,-24,-19
4,0,-4,-2,4,-2,-9,-19,-14,-9,-19,-4
9,9,0,-9,4,4,-9,-24,-14,-4,-4,4
14,9,-4,-12,9,2,-19,-29,-14,-4,-4,4
19,9,-9,-14,14,0,-19,-29,-14,-4,-4,4
19,9,-9,-14,14,0,-19,-29,-14,-4,-9,0
19,14,-4,-17,12,4,-29,-39,-14,-9,-4,-9
19,14,-4,-17,12,4,-29,-39,-14,-9,-4,-14
19,14,-4,-17,12,4,-34,-39,-14,-9,-4,-14
19,14,-4,-17,12,4,-39,-43,-24,-14,-4,-14
19,24,4,-21,7,14,-39,-43,-29,-24,-9,-14
19,24,4,-21,7,14,-39,-43,-29,-24,-14,-14
14,24,9,-19,2,17,-34,-48,-29,-24,-19,-14
14,19,4,-17,4,12,-34,-48,-29,-34,-29,-19
9,4,-4,-7,7,0,-34,-58,-39,-43,-39,-39
4,0,-4,-2,4,-2,-34,-58,-48,-48,-43,-48
-4,-4,0,4,-2,-2,-29,-58,-53,-48,-43,-53
-24,-9,14,17,-19,2,-29,-58,-58,-53,-43,-58
-19,-24,-4,21,-7,-14,-24,-48,-58,-53,-58,-53
-24,-29,-4,26,-9,-17,-24,-58,-58,-58,-63,-58
-29,-29,0,29,-14,-14,-24,-58,-68,-58,-68,-63
-34,-34,0,34,-17,-17,-19,-58,-68,-58,-68,-63
-39,-39,0,39,-19,-19,-24,-58,-73,-68,-68,-53
-43,-43,0,43,-21,-21,-24,-63,-73,-73,-73,-58
-43,-43,0,43,-21,-21,-29,-73,-78,-73,-73,-68
-43,-48,-4,46,-19,-26,-29,-78,-78,-73,-78,-68
-43,-48,-4,46,-19,-26,-39,-87,-87,-82,-82,-78
-43,-48,-4,46,-19,-26,-43,-87,-87,-87,-82,-78
-48,-58,-9,53,-19,-34,-43,-87,-97,-87,-87,-82
-53,-63,-9,58,-21,-36,-39,-92,-97,-92,-92,-82
-58,-68,-9,63,-24,-39,-39,-87,-87,-102,-102,-82
-58,-73,-14,65,-21,-43,-34,-82,-87,-102,-102,-87
-58,-78,-19,68,-19,-48,-34,-78,-87,-102,-102,-87
-58,-87,-29,73,-14,-58,-29,-73,-87,-102,-102,-87
-58,-78,-19,68,-19,-48,-29,-78,-87,-92,-92,-87
-58,-78,-19,68,-19,-48,-34,-78,-87,-92,-92,-87
-58,-73,-14,65,-21,-43,-34,-78,-87,-92,-92,-87
-58,-73,-14,65,-21,-43,-29,-78,-87,-92,-92,-87
-63,-73,-9,68,-26,-41,-39,-78,-97,-92,-97,-102
-63,-73,-9,68,-26,-41,-39,-82,-102,-97,-97,-102
-63,-73,-9,68,-26,-41,-39,-82,-102,-97,-97,-102
-63,-73,-9,68,-26,-41,-39,-82,-102,-92,-97,-107
-63,-73,-9,68,-26,-41,-29,-82,-97,-92,-97,-107
-63,-78,-14,70,-24,-46,-29,-78,-97,-92,-97,-107
-63,-78,-14,70,-24,-46,-29,-78,-97,-97,-97,-107
-63,-82,-19,73,-21,-51,-29,-78,-97,-97,-97,-102
-63,-73,-9,68,-26,-41,-29,-68,-87,-82,-107,-102
-68,-68,0,68,-34,-34,-29,-68,-87,-82,-107,-102
-68,-68,0,68,-34,-34,-29,-68,-87,-82,-107,-102
-63,-68,-4,65,-29,-36,-24,-68,-82,-87,-107,-102
-63,-78,-14,70,-24,-46,-14,-68,-82,-92,-107,-92
-63,-78,-14,70,-24,-46,-14,-68,-82,-97,-107,-92
-63,-78,-14,70,-24,-46,-14,-68,-82,-102,-107,-92
-63,-78,-14,70,-24,-46,-14,-68,-82,-107,-107,-92
-63,-78,-14,70,-24,-46,-24,-78,-82,-92,-97,-92
-63,-78,-14,70,-24,-46,-24,-78,-82,-92,-92,-92
-63,-78,-14,70,-24,-46,-19,-78,-82,-92,-92,-92
-68,-78,-9,73,-29,-43,-19,-78,-82,-92,-92,-92
-58,-78,-19,68,-19,-48,-19,-78,-92,-92,-92,-92
-58,-78,-19,68,-19,-48,-19,-78,-92,-92,-97,-92
-58,-78,-19,68,-19,-48,-19,-78,-92,-92,-97,-92
-58,-78,-19,68,-19,-48,-19,-78,-92,-92,-92,-92
-68,-78,-9,73,-29,-43,-19,-68,-82,-92,-92,-92
-68,-78,-9,73,-29,-43,-19,-68,-82,-92,-92,-92
-68,-78,-9,73,-29,-43,-19,-68,-82,-92,-92,-92
-68,-78,-9,73,-29,-43,-19,-68,-82,-92,-92,-92
-68,-92,-24,80,-21,-58,-19,-63,-82,-92,-107,-102
-68,-102,-34,85,-17,-68,-9,-58,-82,-92,-107,-102
-78,-97,-19,87,-29,-58,-4,-58,-87,-102,-107,-112
-73,-102,-29,87,-21,-65,-4,-43,-78,-97,-117,-122
-68,-107,-39,87,-14,-73,0,-39,-68,-102,-117,-126
-68,-112,-43,90,-12,-78,4,-34,-73,-112,-122,-141
-73,-117,-43,95,-14,-80,19,-19,-58,-112,-131,-156
-73,-107,-34,90,-19,-70,34,0,-34,-92,-122,-156
-63,-112,-48,87,-7,-80,43,34,-4,-48,-92,-136
-43,-107,-63,75,9,-85,48,82,58,9,-43,-97
-24,-82,-58,53,17,-70,58,131,126,92,39,-43
29,-48,-78,9,53,-63,63,195,200,190,122,9
78,-29,-107,-24,92,-68,78,263,287,278,209,53
126,-4,-131,-61,129,-68,102,326,385,390,322,107
200,24,-175,-112,187,-75,102,390,488,507,434,185
292,73,-219,-183,256,-73,87,434,585,649,585,292
400,136,-263,-268,331,-63,73,497,688,810,751,414
512,209,-302,-361,407,-46,43,546,800,985,951,561
619,292,-326,-456,473,-17,4,575,893,1156,1137,697
717,375,-341,-546,529,17,-63,556,941,1283,1293,829
775,458,-317,-617,546,70,-122,488,932,1317,1385,932
761,522,-239,-641,500,141,-175,385,863,1307,1415,985
697,561,-136,-629,417,212,-209,268,761,1224,1361,995
619,556,-63,-588,341,246,-234,136,639,1098,1244,946
536,497,-39,-517,287,229,-278,-4,458,873,1029,834
468,395,-73,-431,270,161,-351,-156,248,585,766,673
380,317,-63,-348,222,126,-405,-302,43,341,531,527
248,258,9,-253,119,134,-424,-409,-126,161,356,429
112,195,82,-153,14,139,-400,-507,-297,-53,156,302
-34,122,156,-43,-95,139,-361,-629,-536,-331,-102,141
-161,43,204,58,-183,124,-346,-746,-736,-575,-322,0
-219,-24,195,122,-207,85,-356,-800,-824,-668,-419,-78
-219,-63,156,141,-187,46,-385,-790,-834,-697,-458,-117
-214,-73,141,143,-178,34,-385,-751,-790,-683,-463,-146
-204,-78,126,141,-165,24,-370,-668,-707,-629,-444,-156
-195,-73,122,134,-158,24,-331,-561,-605,-551,-400,-136
-180,-73,107,126,-143,17,-278,-473,-522,-483,-356,-136
-165,-73,92,119,-129,9,-214,-390,-439,-424,-331,-136
-141,-68,73,104,-107,2,-170,-322,-366,-370,-292,-141
-112,-73,39,92,-75,-17,-136,-268,-307,-307,-258,-141
-102,-63,39,82,-70,-12,-112,-239,-268,-258,-234,-136
-97,-48,48,73,-73,0,-92,-224,-248,-229,-204,-126
-97,-24,73,61,-85,24,-87,-204,-224,-190,-170,-97
-97,-14,82,56,-90,34,-87,-180,-204,-170,-141,-68
-102,-24,78,63,-90,26,-78,-161,-185,-165,-141,-78
-92,-24,68,58,-80,21,-63,-146,-170,-156,-151,-87
-68,-14,53,41,-61,19,-53,-131,-146,-136,-136,-107
-68,-14,53,41,-61,19,-39,-107,-126,-117,-126,-112
-73,-19,53,46,-63,17,-24,-97,-117,-102,-117,-122
-63,-29,34,46,-48,2,-24,-92,-112,-92,-107,-107
-63,-29,34,46,-48,2,-24,-87,-107,-92,-112,-102
-63,-34,29,48,-46,-2,-24,-82,-102,-97,-112,-97
-68,-39,29,53,-48,-4,-24,-78,-97,-97,-112,-92
-68,-53,14,61,-41,-19,-19,-58,-82,-92,-102,-87
-68,-53,14,61,-41,-19,-14,-53,-78,-87,-102,-87
-68,-48,19,58,-43,-14,-9,-48,-68,-82,-97,-82
-68,-48,19,58,-43,-14,-4,-48,-63,-78,-97,-78
-58,-63,-4,61,-26,-34,-4,-34,-63,-78,-102,-68
-58,-68,-9,63,-24,-39,-4,-34,-63,-82,-102,-68
-58,-78,-19,68,-19,-48,-4,-29,-63,-87,-102,-68
-58,-82,-24,70,-17,-53,0,-29,-63,-92,-97,-63
-53,-82,-29,68,-12,-56,-9,-39,-63,-78,-87,-73
-53,-82,-29,68,-12,-56,-9,-39,-58,-78,-82,-78
-53,-82,-29,68,-12,-56,-4,-34,-58,-78,-82,-78
-53,-82,-29,68,-12,-56,-4,-29,-53,-73,-78,-78
-63,-78,-14,70,-24,-46,-14,-39,-63,-73,-87,-82
-63,-68,-4,65,-29,-36,-9,-34,-58,-73,-87,-87
-58,-63,-4,61,-26,-34,-9,-34,-58,-73,-92,-92
-58,-58,0,58,-29,-29,-14,-34,-58,-68,-92,-97
-58,-68,-9,63,-24,-39,-4,-34,-63,-78,-97,-97
-58,-68,-9,63,-24,-39,-4,-34,-63,-78,-97,-92
-58,-68,-9,63,-24,-39,0,-34,-63,-78,-97,-92
-58,-68,-9,63,-24,-39,0,-29,-63,-78,-92,-92
-58,-78,-19,68,-19,-48,0,-29,-58,-73,-92,-82
-53,-78,-24,65,-14,-51,0,-29,-58,-73,-87,-78
-53,-78,-24,65,-14,-51,-4,-24,-58,-68,-87,-68
-53,-78,-24,65,-14,-51,-4,-24,-58,-68,-87,-63
-43,-78,-34,61,-4,-56,0,-24,-43,-58,-82,-53
-43,-78,-34,61,-4,-56,0,-19,-43,-58,-78,-53
-39,-78,-39,58,0,-58,-4,-19,-43,-53,-68,-53
-39,-78,-39,58,0,-58,-4,-19,-39,-53,-63,-53
-29,-73,-43,51,7,-58,-4,-9,-29,-39,-53,-63
-29,-68,-39,48,4,-53,-4,-9,-29,-39,-53,-63
-24,-53,-29,39,2,-41,-4,-9,-29,-39,-53,-58
-24,-48,-24,36,0,-36,-4,-4,-29,-39,-48,-58
-24,-58,-34,41,4,-46,0,-4,-34,-48,-53,-68
-24,-58,-34,41,4,-46,0,-4,-34,-43,-58,-68
-24,-58,-34,41,4,-46,0,0,-34,-43,-58,-63
-24,-58,-34,41,4,-46,0,0,-29,-39,-63,-63
-34,-48,-14,41,-9,-31,0,-9,-39,-29,-48,-58
-34,-48,-14,41,-9,-31,0,-9,-39,-29,-48,-58
-34,-39,-4,36,-14,-21,0,-4,-34,-29,-48,-58
-29,-39,-9,34,-9,-24,0,-4,-34,-24,-43,-53
-29,-24,4,26,-17,-9,-9,-14,-29,-29,-48,-58
-29,-24,4,26,-17,-9,-9,-9,-24,-29,-53,-63
-24,-24,0,24,-12,-12,-9,-4,-24,-29,-53,-68
-24,-19,4,21,-14,-7,-9,-4,-24,-24,-58,-73
-24,-34,-9,29,-7,-21,0,14,-14,-24,-58,-63
-24,-34,-9,29,-7,-21,9,14,-14,-24,-58,-58
-24,-39,-14,31,-4,-26,9,14,-14,-19,-58,-58
-19,-43,-24,31,2,-34,4,19,-9,-14,-53,-58
-9,-34,-24,21,7,-29,4,14,-4,-9,-39,-48
-9,-29,-19,19,4,-24,4,19,0,-4,-34,-34
-4,-29,-24,17,9,-26,4,19,0,-4,-29,-19
0,-24,-24,12,12,-24,4,24,4,0,-29,-9
-9,-24,-14,17,2,-19,4,29,9,4,-14,-4
-9,-19,-9,14,0,-14,9,34,9,9,-9,0
-4,-19,-14,12,4,-17,9,34,14,14,-4,0
0,-14,-14,7,7,-14,14,39,19,19,-4,0
9,-9,-19,0,14,-14,19,43,34,24,0,-4
9,-9,-19,0,14,-14,19,53,39,29,4,0
14,-9,-24,-2,19,-17,19,58,43,34,9,0
24,0,-24,-12,24,-12,19,68,53,39,14,0
14,4,-9,-9,12,-2,9,73,58,48,14,4
19,9,-9,-14,14,0,14,78,63,53,19,9
24,9,-14,-17,19,-2,14,82,73,58,29,14
29,14,-14,-21,21,0,19,87,78,68,34,19
34,9,-24,-21,29,-7,19,82,78,87,48,24
34,14,-19,-24,26,-2,19,92,92,87,63,29
39,14,-24,-26,31,-4,24,97,102,97,68,34
43,19,-24,-31,34,-2,24,102,107,107,78,43
48,14,-34,-31,41,-9,34,107,117,102,78,34
53,19,-34,-36,43,-7,34,122,117,117,92,43
58,24,-34,-41,46,-4,34,126,131,122,102,48
63,29,-34,-46,48,-2,34,131,131,131,102,53
63,39,-24,-51,43,7,43,136,131,131,102,48
63,39,-24,-51,43,7,43,141,136,136,112,63
68,39,-29,-53,48,4,43,146,151,146,122,68
73,48,-24,-61,48,12,43,151,156,156,126,82
87,53,-34,-70,61,9,34,165,175,165,136,97
92,58,-34,-75,63,12,34,175,180,175,146,102
92,68,-24,-80,58,21,34,185,195,185,156,112
97,78,-19,-87,58,29,34,190,200,195,165,122
102,73,-29,-87,65,21,43,195,200,209,170,126
107,78,-29,-92,68,24,43,200,204,214,180,126
112,82,-29,-97,70,26,43,204,214,224,180,131
117,87,-29,-102,73,29,39,204,219,229,190,136
112,92,-19,-102,65,36,39,200,219,234,200,136
117,92,-24,-104,70,34,43,200,224,244,204,136
117,97,-19,-107,68,39,43,200,229,244,209,131
117,97,-19,-107,68,39,39,200,234,253,214,126
117,112,-4,-114,61,53,39,195,224,258,214,131
122,112,-9,-117,65,51,39,195,224,258,219,136
122,112,-9,-117,65,51,39,195,229,263,224,141
122,112,-9,-117,65,51,39,195,229,268,229,141
117,97,-19,-107,68,39,39,204,239,268,239,156
117,97,-19,-107,68,39,39,204,239,268,244,161
117,97,-19,-107,68,39,39,200,239,268,244,170
117,102,-14,-109,65,43,39,200,234,268,244,175
122,92,-29,-107,75,31,48,204,229,263,229,175
122,92,-29,-107,75,31,48,200,229,263,229,175
122,87,-34,-104,78,26,43,190,229,263,229,175
122,87,-34,-104,78,26,39,185,219,258,224,170
117,92,-24,-104,70,34,39,175,219,248,214,165
117,97,-19,-107,68,39,39,170,209,239,204,151
112,92,-19,-102,65,36,39,165,204,229,195,141
112,87,-24,-100,68,31,39,156,195,219,190,126
97,82,-14,-90,56,34,39,156,185,219,190,126
92,78,-14,-85,53,31,29,146,175,204,180,117
92,73,-19,-82,56,26,29,136,165,195,165,112
82,63,-19,-73,51,21,29,126,156,190,156,97
78,43,-34,-61,56,4,19,107,136,175,151,92
68,39,-29,-53,48,4,14,97,122,161,136,87
58,34,-24,-46,41,4,14,92,112,146,126,82
53,24,-29,-39,41,-2,14,82,102,141,117,73
48,19,-29,-34,39,-4,24,82,102,126,102,68
39,9,-29,-24,34,-9,24,73,92,117,97,58
34,4,-29,-19,31,-12,24,63,82,107,92,48
29,-4,-34,-12,31,-19,24,63,78,97,73,43
34,4,-29,-19,31,-12,14,48,53,73,53,39
29,-4,-34,-12,31,-19,14,43,43,63,39,29
24,-4,-29,-9,26,-17,14,34,34,53,34,24
24,-9,-34,-7,29,-21,14,29,29,48,29,14
4,-4,-9,0,7,-7,0,9,19,39,29,0
0,-9,-9,4,4,-9,0,4,9,29,19,-9
0,-9,-9,4,4,-9,0,0,0,24,9,-14
-4,-9,-4,7,0,-7,0,0,-9,14,9,-24
-4,-29,-24,17,9,-26,0,-4,-19,4,-4,-29
-9,-34,-24,21,7,-29,-4,-9,-29,0,-19,-34
-9,-39,-29,24,9,-34,-4,-9,-29,-4,-24,-34
-14,-48,-34,31,9,-41,-4,-14,-34,-14,-39,-34
-29,-48,-19,39,-4,-34,-9,-9,-39,-34,-43,-39
-34,-48,-14,41,-9,-31,-9,-19,-39,-34,-48,-43
-34,-53,-19,43,-7,-36,-9,-19,-39,-39,-48,-48
-39,-58,-19,48,-9,-39,-9,-19,-34,-39,-48,-48
-29,-58,-29,43,0,-43,4,-19,-39,-29,-43,-39
-29,-63,-34,46,2,-48,4,-24,-43,-34,-48,-39
-29,-63,-34,46,2,-48,0,-29,-48,-39,-53,-48
-29,-63,-34,46,2,-48,0,-29,-53,-43,-58,-48
-29,-58,-29,43,0,-43,0,-29,-53,-34,-48,-48
-29,-58,-29,43,0,-43,0,-29,-53,-39,-48,-48
-34,-58,-24,46,-4,-41,0,-34,-53,-43,-53,-48
-34,-58,-24,46,-4,-41,0,-39,-53,-43,-53,-48
-48,-58,-9,53,-19,-34,0,-39,-63,-43,-53,-48
-48,-53,-4,51,-21,-29,0,-39,-68,-43,-53,-48
-48,-53,-4,51,-21,-29,-4,-39,-68,-43,-58,-48
-48,-53,-4,51,-21,-29,-4,-39,-68,-48,-58,-48
-43,-58,-14,51,-14,-36,-4,-34,-63,-58,-58,-58
-43,-58,-14,51,-14,-36,-4,-34,-63,-58,-63,-58
-43,-58,-14,51,-14,-36,-4,-34,-68,-58,-63,-68
-39,-58,-19,48,-9,-39,-4,-34,-68,-58,-63,-68
-39,-53,-14,46,-12,-34,4,-43,-68,-58,-78,-78
-43,-53,-9,48,-17,-31,4,-48,-68,-63,-78,-82
-43,-53,-9,48,-17,-31,0,-48,-68,-63,-78,-82
-43,-53,-9,48,-17,-31,0,-48,-68,-63,-78,-82
-53,-63,-9,58,-21,-36,-9,-48,-68,-63,-78,-73
-53,-63,-9,58,-21,-36,-9,-48,-73,-63,-78,-73
-48,-63,-14,56,-17,-39,-9,-48,-73,-58,-73,-73
-48,-68,-19,58,-14,-43,-4,-48,-73,-58,-73,-73
-48,-68,-19,58,-14,-43,4,-39,-73,-68,-73,-68
-53,-63,-9,58,-21,-36,4,-43,-73,-68,-73,-68
-53,-63,-9,58,-21,-36,4,-43,-73,-68,-78,-63
-53,-63,-9,58,-21,-36,0,-43,-73,-68,-78,-63
-43,-58,-14,51,-14,-36,0,-53,-82,-68,-78,-63
-48,-53,-4,51,-21,-29,0,-53,-82,-68,-82,-63
-48,-48,0,48,-24,-24,0,-53,-82,-68,-82,-63
-48,-43,4,46,-26,-19,0,-48,-82,-68,-82,-63
-58,-53,4,56,-31,-24,0,-48,-82,-73,-92,-63
-58,-53,4,56,-31,-24,0,-48,-82,-73,-92,-63
-58,-53,4,56,-31,-24,0,-48,-82,-78,-87,-63
-58,-53,4,56,-31,-24,0,-48,-82,-78,-87,-63
-48,-63,-14,56,-17,-39,9,-48,-82,-73,-87,-73
-48,-63,-14,56,-17,-39,9,-48,-82,-73,-87,-73
-48,-63,-14,56,-17,-39,9,-48,-82,-73,-92,-73
-53,-63,-9,58,-21,-36,9,-48,-82,-73,-92,-73
-53,-48,4,51,-29,-21,0,-39,-73,-63,-82,-63
-48,-48,0,48,-24,-24,0,-39,-73,-63,-82,-63
-48,-48,0,48,-24,-24,0,-39,-73,-63,-82,-63
-53,-48,4,51,-29,-21,4,-39,-78,-68,-82,-63
-43,-48,-4,46,-19,-26,4,-39,-78,-68,-82,-73
-43,-43,0,43,-21,-21,4,-39,-78,-63,-82,-73
-43,-43,0,43,-21,-21,4,-39,-78,-63,-82,-73
-39,-48,-9,43,-14,-29,4,-39,-78,-63,-82,-73
-48,-48,0,48,-24,-24,4,-39,-68,-53,-82,-73
-48,-48,0,48,-24,-24,4,-39,-68,-53,-82,-73
-48,-43,4,46,-26,-19,4,-39,-68,-53,-82,-78
-48,-43,4,46,-26,-19,4,-39,-68,-48,-82,-78
-39,-43,-4,41,-17,-24,-4,-39,-68,-58,-82,-68
-39,-39,0,39,-19,-19,-4,-39,-68,-58,-82,-63
-39,-39,0,39,-19,-19,-4,-39,-68,-58,-82,-63
-39,-39,0,39,-19,-19,-4,-39,-68,-63,-78,-58
-39,-53,-14,46,-12,-34,-4,-39,-68,-53,-78,-58
-39,-53,-14,46,-12,-34,-4,-39,-68,-53,-78,-58
-39,-53,-14,46,-12,-34,-4,-43,-68,-53,-78,-58
-43,-53,-9,48,-17,-31,-4,-43,-63,-48,-78,-58
-43,-43,0,43,-21,-21,-4,-43,-63,-48,-78,-58
-43,-43,0,43,-21,-21,-4,-43,-63,-53,-78,-58
-43,-43,0,43,-21,-21,-4,-43,-63,-53,-78,-58
-39,-43,-4,41,-17,-24,-4,-43,-63,-53,-78,-58
-39,-43,-4,41,-17,-24,-4,-43,-63,-63,-78,-58
-39,-43,-4,41,-17,-24,-4,-43,-63,-58,-78,-58
-39,-43,-4,41,-17,-24,-4,-43,-63,-58,-78,-58
-39,-39,0,39,-19,-19,-4,-43,-63,-58,-73,-58
-29,-34,-4,31,-12,-19,-4,-34,-68,-53,-63,-48
-29,-29,0,29,-14,-14,-4,-39,-68,-48,-63,-48
-29,-24,4,26,-17,-9,-9,-39,-68,-43,-63,-48
-29,-19,9,24,-19,-4,-9,-39,-68,-39,-63,-48
-29,-19,9,24,-19,-4,0,-29,-58,-43,-63,-58
-29,-19,9,24,-19,-4,0,-29,-63,-43,-63,-58
-24,-19,4,21,-14,-7,0,-29,-63,-43,-63,-58
-24,-19,4,21,-14,-7,4,-29,-63,-43,-63,-58
-24,-29,-4,26,-9,-17,-4,-29,-63,-53,-68,-63
-24,-29,-4,26,-9,-17,-4,-29,-58,-53,-73,-68
-24,-29,-4,26,-9,-17,-4,-29,-58,-53,-78,-73
-24,-29,-4,26,-9,-17,-4,-29,-58,-53,-82,-78
-34,-29,4,31,-19,-12,-4,-39,-68,-53,-82,-78
-34,-29,4,31,-19,-12,-4,-39,-68,-53,-82,-78
-34,-29,4,31,-19,-12,-4,-34,-68,-53,-82,-78
-34,-34,0,34,-17,-17,-4,-34,-68,-53,-82,-78
-34,-34,0,34,-17,-17,-4,-34,-73,-53,-82,-68
-34,-29,4,31,-19,-12,-9,-39,-73,-53,-82,-68
-34,-29,4,31,-19,-12,-9,-39,-68,-53,-82,-68
-34,-29,4,31,-19,-12,-9,-39,-68,-53,-82,-68
-34,-34,0,34,-17,-17,0,-39,-68,-63,-92,-58
-34,-39,-4,36,-14,-21,0,-39,-68,-63,-92,-58
-34,-43,-9,39,-12,-26,0,-39,-68,-63,-92,-58
-34,-48,-14,41,-9,-31,4,-39,-68,-63,-92,-58
-34,-48,-14,41,-9,-31,-4,-39,-68,-53,-87,-53
-34,-48,-14,41,-9,-31,-4,-39,-68,-53,-82,-48
-34,-48,-14,41,-9,-31,-9,-39,-68,-53,-78,-43
-34,-48,-14,41,-9,-31,-9,-39,-68,-58,-73,-39
-34,-53,-19,43,-7,-36,-9,-39,-73,-48,-82,-43
-34,-53,-19,43,-7,-36,-9,-39,-73,-48,-82,-48
-34,-53,-19,43,-7,-36,-9,-39,-73,-48,-82,-53
-34,-53,-19,43,-7,-36,-9,-39,-73,-48,-82,-63
-34,-63,-29,48,-2,-46,0,-39,-73,-58,-97,-68
-34,-63,-29,48,-2,-46,0,-39,-73,-58,-97,-68
-34,-63,-29,48,-2,-46,0,-39,-73,-58,-102,-73
-34,-63,-29,48,-2,-46,0,-39,-73,-58,-102,-82
-34,-63,-29,48,-2,-46,0,-39,-73,-53,-92,-82
-34,-63,-29,48,-2,-46,-4,-43,-73,-53,-92,-82
-34,-63,-29,48,-2,-46,-4,-48,-73,-53,-92,-82
-34,-63,-29,48,-2,-46,-4,-48,-78,-53,-92,-82
-34,-53,-19,43,-7,-36,-14,-48,-87,-53,-87,-78
-34,-53,-19,43,-7,-36,-14,-48,-87,-53,-87,-73
-34,-53,-19,43,-7,-36,-14,-48,-87,-53,-87,-68
-34,-53,-19,43,-7,-36,-14,-48,-82,-53,-87,-63
-34,-53,-19,43,-7,-36,-14,-39,-73,-63,-97,-73
-34,-53,-19,43,-7,-36,-14,-39,-78,-63,-97,-73
-34,-53,-19,43,-7,-36,-14,-39,-78,-63,-97,-73
-34,-58,-24,46,-4,-41,-14,-34,-78,-63,-97,-73
-24,-68,-43,46,9,-56,-14,-34,-68,-53,-92,-63
-24,-68,-43,46,9,-56,-14,-39,-68,-53,-97,-68
-24,-63,-39,43,7,-51,-14,-39,-68,-53,-97,-68
-24,-63,-39,43,7,-51,-14,-39,-68,-58,-97,-68
-29,-63,-34,46,2,-48,-14,-39,-78,-68,-97,-68
-34,-68,-34,51,0,-51,-9,-39,-78,-63,-97,-68
-39,-68,-29,53,-4,-48,-9,-43,-78,-63,-97,-68
-43,-68,-24,56,-9,-46,-9,-43,-78,-63,-97,-68
-43,-48,-4,46,-19,-26,-9,-53,-87,-68,-97,-78
-43,-48,-4,46,-19,-26,-9,-53,-87,-68,-107,-78
-43,-48,-4,46,-19,-26,-9,-53,-87,-68,-102,-87
-34,-39,-4,36,-14,-21,-14,-53,-87,-58,-112,-87
-39,-48,-9,43,-14,-29,-9,-48,-78,-68,-117,-87
-39,-53,-14,46,-12,-34,-9,-48,-87,-73,-117,-78
-39,-58,-19,48,-9,-39,-9,-48,-87,-78,-117,-78
-39,-63,-24,51,-7,-43,-9,-48,-87,-82,-117,-78
-39,-68,-29,53,-4,-48,-9,-48,-87,-87,-117,-78
-34,-63,-29,48,-2,-46,-19,-39,-82,-73,-102,-68
-29,-58,-29,43,0,-43,-19,-39,-73,-68,-102,-68
-29,-48,-19,39,-4,-34,-19,-39,-68,-68,-97,-63
-29,-43,-14,36,-7,-29,-14,-39,-63,-58,-97,-58
-14,-24,-9,19,-2,-17,-14,-43,-58,-48,-92,-68
-14,-14,0,14,-7,-7,-14,-39,-58,-43,-82,-58
-14,-9,4,12,-9,-2,-14,-34,-53,-39,-82,-58
-14,-4,9,9,-12,2,-14,-34,-48,-29,-78,-58
-14,-9,4,12,-9,-2,-4,-24,-39,-29,-78,-48
-14,-9,4,12,-9,-2,-4,-24,-39,-29,-78,-48
-19,-9,9,14,-14,0,-4,-24,-43,-29,-78,-48
-19,-14,4,17,-12,-4,-4,-24,-43,-29,-82,-48
-14,-14,0,14,-7,-7,4,-14,-53,-29,-82,-58
-14,-14,0,14,-7,-7,4,-19,-53,-29,-82,-58
-14,-14,0,14,-7,-7,4,-19,-53,-29,-82,-58
-4,-9,-4,7,0,-7,0,-19,-53,-29,-78,-53
-14,0,14,7,-14,7,-9,-29,-48,-14,-68,-39
-4,4,9,0,-7,7,-19,-29,-48,-9,-63,-34
0,14,14,-7,-7,14,-24,-29,-53,-9,-53,-34
4,19,14,-12,-4,17,-29,-29,-53,-9,-48,-24
9,9,0,-9,4,4,-19,-24,-43,-4,-43,-19
14,9,-4,-12,9,2,-29,-29,-43,-4,-43,-14
19,9,-9,-14,14,0,-29,-29,-43,-4,-43,-9
19,9,-9,-14,14,0,-29,-29,-43,-4,-48,-9
19,4,-14,-12,17,-4,-19,-29,-43,-19,-53,-9
19,4,-14,-12,17,-4,-19,-29,-43,-19,-53,-14
19,4,-14,-12,17,-4,-24,-29,-43,-19,-53,-14
19,4,-14,-12,17,-4,-29,-34,-53,-24,-53,-14
19,4,-14,-12,17,-4,-39,-34,-58,-24,-53,-14
19,4,-14,-12,17,-4,-39,-34,-58,-24,-53,-14
14,4,-9,-9,12,-2,-34,-39,-58,-24,-53,-14
14,0,-14,-7,14,-7,-34,-39,-58,-34,-58,-19
4,-14,-19,4,12,-17,-34,-48,-73,-39,-82,-39
4,-19,-24,7,14,-21,-34,-48,-78,-48,-92,-48
0,-24,-24,12,12,-24,-29,-48,-78,-53,-97,-53
-14,-29,-14,21,0,-21,-29,-48,-78,-63,-102,-58
-29,-24,4,26,-17,-9,-24,-58,-87,-73,-107,-63
-34,-29,4,31,-19,-12,-24,-68,-87,-78,-112,-68
-39,-29,9,34,-24,-9,-24,-68,-97,-78,-117,-73
-43,-34,9,39,-26,-12,-19,-68,-97,-78,-117,-73
-39,-39,0,39,-19,-19,-14,-63,-92,-87,-126,-82
-43,-43,0,43,-21,-21,-14,-63,-92,-92,-131,-87
-43,-43,0,43,-21,-21,-19,-68,-97,-92,-131,-97
-43,-48,-4,46,-19,-26,-19,-68,-97,-92,-136,-97
-43,-58,-14,51,-14,-36,-29,-58,-97,-92,-131,-97
-43,-58,-14,51,-14,-36,-34,-58,-97,-97,-131,-97
-48,-68,-19,58,-14,-43,-34,-58,-107,-97,-136,-102
-53,-73,-19,63,-17,-46,-29,-63,-107,-102,-141,-102
-58,-63,-4,61,-26,-34,-29,-73,-117,-102,-141,-92
-58,-63,-4,61,-26,-34,-24,-73,-117,-102,-141,-97
-58,-63,-4,61,-26,-34,-24,-73,-117,-102,-141,-97
-58,-68,-9,63,-24,-39,-19,-73,-117,-102,-141,-97
-58,-78,-19,68,-19,-48,-19,-68,-107,-102,-141,-107
-58,-78,-19,68,-19,-48,-24,-68,-107,-102,-141,-107
-58,-73,-14,65,-21,-43,-24,-68,-107,-102,-141,-107
-58,-73,-14,65,-21,-43,-19,-68,-107,-102,-141,-107
-53,-73,-19,63,-17,-46,-29,-78,-107,-102,-136,-107
-53,-73,-19,63,-17,-46,-29,-82,-112,-107,-136,-102
-53,-73,-19,63,-17,-46,-29,-82,-112,-107,-136,-97
-53,-73,-19,63,-17,-46,-29,-82,-112,-102,-136,-97
-63,-73,-9,68,-26,-41,-19,-82,-117,-102,-146,-107
-63,-78,-14,70,-24,-46,-19,-78,-117,-102,-146,-107
-63,-78,-14,70,-24,-46,-19,-78,-117,-107,-146,-107
-63,-82,-19,73,-21,-51,-19,-78,-117,-107,-146,-102
-63,-92,-29,78,-17,-61,-19,-68,-117,-112,-146,-112
-68,-87,-19,78,-24,-53,-19,-68,-117,-112,-146,-112
-68,-87,-19,78,-24,-53,-19,-68,-117,-112,-146,-112
-63,-87,-24,75,-19,-56,-14,-68,-112,-117,-146,-112
-63,-87,-24,75,-19,-56,-14,-68,-112,-117,-156,-122
-63,-87,-24,75,-19,-56,-14,-68,-112,-117,-156,-122
-63,-87,-24,75,-19,-56,-14,-68,-112,-117,-156,-122
-63,-87,-24,75,-19,-56,-14,-68,-112,-117,-156,-122
-63,-78,-14,70,-24,-46,-14,-68,-112,-102,-156,-112
-63,-78,-14,70,-24,-46,-14,-68,-112,-102,-151,-112
-63,-78,-14,70,-24,-46,-9,-68,-112,-102,-151,-112
-68,-78,-9,73,-29,-43,-9,-68,-112,-102,-151,-112
-68,-78,-9,73,-29,-43,-9,-58,-112,-112,-151,-112
-68,-78,-9,73,-29,-43,-9,-58,-112,-112,-156,-112
-68,-78,-9,73,-29,-43,-9,-58,-112,-112,-156,-112
-68,-78,-9,73,-29,-43,-9,-58,-112,-112,-151,-112
-68,-78,-9,73,-29,-43,-9,-58,-112,-112,-161,-122
-68,-78,-9,73,-29,-43,-9,-58,-112,-112,-161,-122
-68,-78,-9,73,-29,-43,-9,-58,-112,-112,-161,-122
-68,-78,-9,73,-29,-43,-9,-58,-112,-112,-161,-122
-68,-82,-14,75,-26,-48,0,-53,-102,-112,-156,-122
-58,-73,-14,65,-21,-43,-9,-48,-102,-112,-156,-122
-58,-68,-9,63,-24,-39,-4,-58,-107,-112,-156,-131
-53,-73,-19,63,-17,-46,-4,-63,-107,-107,-165,-141
-68,-87,-19,78,-24,-53,0,-48,-107,-112,-175,-146
-68,-82,-14,75,-26,-48,14,-34,-102,-112,-180,-151
-63,-87,-24,75,-19,-56,29,-9,-78,-112,-180,-156
-63,-97,-34,80,-14,-65,43,29,-53,-92,-170,-156
-53,-92,-39,73,-7,-65,53,63,-4,-48,-131,-136
-34,-78,-43,56,4,-61,68,112,68,19,-73,-97
-4,-63,-58,34,26,-61,78,170,136,112,19,-63
29,-48,-78,9,53,-63,92,234,219,219,112,-9
78,-29,-107,-24,92,-68,107,302,317,326,200,53
146,-4,-151,-70,148,-78,122,375,414,439,312,136
229,34,-195,-131,212,-80,122,439,507,556,434,224
331,102,-229,-217,280,-63,107,492,605,697,585,331
429,175,-253,-302,341,-39,82,546,717,858,761,444
531,248,-283,-390,407,-17,63,585,819,1015,941,570
629,312,-317,-470,473,-2,14,585,893,1166,1117,697
717,385,-331,-551,524,26,-43,546,932,1283,1263,819
756,458,-297,-607,527,80,-112,478,922,1346,1356,902
741,522,-219,-631,480,151,-165,385,854,1337,1376,966
678,570,-107,-624,392,231,-209,258,732,1254,1312,976
600,575,-24,-588,312,275,-244,117,580,1098,1185,917
527,507,-19,-517,273,244,-297,-34,400,854,961,795
448,395,-53,-422,251,170,-361,-185,190,556,697,634
341,307,-34,-324,187,136,-395,-312,-4,312,463,488
219,258,39,-239,90,148,-395,-419,-165,122,287,370
82,185,102,-134,-9,143,-380,-527,-366,-102,68,244
-63,112,175,-24,-119,143,-361,-658,-605,-390,-209,82
-170,34,204,68,-187,119,-346,-756,-785,-605,-400,-39
-200,-24,175,112,-187,75,-366,-780,-844,-678,-478,-97
-190,-53,136,122,-163,41,-385,-761,-834,-688,-497,-136
-195,-63,131,129,-163,34,-385,-712,-790,-673,-512,-165
-185,-58,126,122,-156,34,-361,-639,-707,-619,-473,-175
-175,-53,122,114,-148,34,-312,-551,-605,-531,-419,-156
-161,-53,107,107,-134,26,-258,-453,-512,-453,-375,-156
-156,-73,82,114,-119,4,-195,-370,-439,-395,-361,-156
-131,-68,63,100,-97,-2,-151,-292,-366,-341,-331,-161
-112,-53,58,82,-85,2,-117,-239,-307,-307,-307,-151
-82,-43,39,63,-61,-2,-92,-219,-287,-278,-283,-146
-78,-29,48,53,-63,9,-92,-204,-268,-248,-244,-126
-87,-14,73,51,-80,29,-87,-185,-244,-219,-209,-107
-87,-14,73,51,-80,29,-78,-170,-224,-200,-200,-107
-92,-24,68,58,-80,21,-68,-151,-204,-185,-200,-117
-92,-24,68,58,-80,21,-43,-126,-170,-165,-200,-107
-87,-34,53,61,-70,9,-34,-92,-146,-146,-185,-107
-78,-24,53,51,-65,14,-19,-78,-126,-117,-175,-112
-63,-29,34,46,-48,2,-14,-68,-117,-102,-165,-112
-63,-34,29,48,-46,-2,-4,-78,-117,-112,-156,-112
-63,-39,24,51,-43,-7,-4,-78,-117,-112,-161,-112
-63,-48,14,56,-39,-17,-4,-78,-117,-117,-161,-112
-68,-58,9,63,-39,-24,-4,-78,-117,-117,-161,-112
-68,-63,4,65,-36,-29,-9,-58,-112,-122,-161,-102
-68,-63,4,65,-36,-29,-4,-53,-107,-117,-161,-107
-68,-58,9,63,-39,-24,0,-48,-97,-112,-156,-107
-68,-58,9,63,-39,-24,4,-48,-92,-107,-156,-107
-58,-48,9,53,-34,-19,4,-43,-92,-92,-151,-107
-58,-48,9,53,-34,-19,4,-43,-92,-92,-151,-107
-58,-53,4,56,-31,-24,4,-39,-92,-92,-151,-107
-58,-53,4,56,-31,-24,9,-39,-92,-92,-146,-102
-53,-43,9,48,-31,-17,9,-39,-92,-87,-146,-102
-53,-43,9,48,-31,-17,9,-39,-87,-87,-141,-107
-53,-43,9,48,-31,-17,14,-34,-87,-87,-141,-107
-53,-43,9,48,-31,-17,14,-29,-82,-82,-136,-107
-53,-53,0,53,-26,-26,14,-29,-82,-92,-146,-107
-53,-48,4,51,-29,-21,19,-24,-78,-92,-146,-107
-48,-48,0,48,-24,-24,19,-24,-78,-92,-151,-107
-48,-48,0,48,-24,-24,14,-24,-78,-87,-151,-107
-48,-58,-9,53,-19,-34,4,-34,-82,-78,-136,-97
-48,-58,-9,53,-19,-34,4,-34,-82,-78,-136,-92
-48,-58,-9,53,-19,-34,9,-34,-82,-78,-136,-92
-48,-58,-9,53,-19,-34,9,-29,-82,-78,-131,-92
-48,-53,-4,51,-21,-29,19,-24,-73,-63,-131,-97
-43,-48,-4,46,-19,-26,19,-19,-68,-63,-126,-97
-43,-43,0,43,-21,-21,14,-9,-63,-58,-126,-92
-43,-39,4,41,-24,-17,14,-4,-58,-58,-126,-92
-43,-39,4,41,-24,-17,29,-4,-63,-68,-126,-102
-43,-39,4,41,-24,-17,29,0,-63,-68,-126,-102
-39,-39,0,39,-19,-19,24,0,-63,-63,-122,-102
-39,-39,0,39,-19,-19,24,0,-58,-63,-122,-102
-48,-48,0,48,-24,-24,24,0,-48,-68,-131,-92
-48,-48,0,48,-24,-24,24,0,-48,-68,-131,-92
-43,-39,4,41,-24,-17,24,0,-48,-68,-131,-87
-43,-39,4,41,-24,-17,24,4,-48,-68,-126,-87
-34,-39,-4,36,-14,-21,24,-4,-53,-58,-117,-78
-34,-39,-4,36,-14,-21,19,-4,-53,-53,-117,-78
-34,-39,-4,36,-14,-21,14,0,-53,-53,-112,-73
-34,-39,-4,36,-14,-21,9,0,-48,-48,-112,-73
-34,-39,-4,36,-14,-21,19,0,-48,-48,-107,-68
-34,-39,-4,36,-14,-21,19,0,-48,-48,-107,-68
-34,-29,4,31,-19,-12,19,4,-43,-48,-107,-68
-29,-29,0,29,-14,-14,19,4,-43,-43,-102,-63
-29,-24,4,26,-17,-9,19,4,-48,-48,-112,-73
-29,-24,4,26,-17,-9,19,9,-43,-48,-112,-73
-24,-24,0,24,-12,-12,19,14,-43,-48,-107,-73
-24,-19,4,21,-14,-7,19,14,-43,-43,-107,-73
-34,-9,24,21,-29,7,19,14,-34,-34,-97,-73
-34,-4,29,19,-31,12,29,14,-34,-34,-97,-68
-34,-4,29,19,-31,12,29,14,-34,-29,-97,-68
-29,-4,24,17,-26,9,24,19,-29,-24,-92,-68
-29,-14,14,21,-21,0,24,34,-14,-19,-78,-58
-29,-9,19,19,-24,4,24,39,-9,-14,-73,-53
-24,-9,14,17,-19,2,24,39,-9,-14,-68,-48
-19,-4,14,12,-17,4,24,43,-4,-9,-68,-48
-9,-4,4,7,-7,0,24,48,9,-14,-63,-53
-9,0,9,4,-9,4,29,53,9,-9,-58,-48
-4,0,4,2,-4,2,29,53,14,-4,-53,-48
0,4,4,-2,-2,4,34,58,19,0,-53,-48
0,0,0,0,0,0,39,63,24,4,-48,-48
0,0,0,0,0,0,39,73,29,9,-43,-39
4,0,-4,-2,4,-2,39,78,34,14,-39,-34
14,9,-4,-12,9,2,39,87,43,19,-34,-29
4,14,9,-9,-2,12,39,92,39,29,-34,-24
9,19,9,-14,0,14,43,97,43,34,-29,-19
14,19,4,-17,4,12,43,102,53,39,-19,-14
19,24,4,-21,7,14,48,107,58,48,-14,-9
24,39,14,-31,4,26,48,112,58,73,0,-4
24,43,19,-34,2,31,48,122,73,78,14,0
29,43,14,-36,7,29,53,126,82,92,19,4
34,48,14,-41,9,31,53,131,87,107,29,14
48,53,4,-51,21,29,53,136,107,107,29,4
53,58,4,-56,24,31,53,151,107,117,43,14
58,63,4,-61,26,34,53,156,122,117,53,19
63,68,4,-65,29,36,53,161,122,122,53,24
82,78,-4,-80,43,36,53,165,131,131,63,29
82,78,-4,-80,43,36,53,170,136,136,73,43
87,78,-9,-82,48,34,53,175,151,146,82,48
92,87,-4,-90,48,41,53,180,156,156,87,63
87,78,-9,-82,48,34,53,190,156,165,97,82
92,78,-14,-85,53,31,53,195,161,175,107,82
92,82,-9,-87,51,36,53,200,175,185,117,87
97,87,-9,-92,53,39,53,200,180,195,126,92
92,92,0,-92,46,46,53,204,190,209,131,107
97,97,0,-97,48,48,53,209,195,214,141,107
102,102,0,-102,51,51,53,214,204,224,141,112
107,107,0,-107,53,53,48,214,209,229,151,117
112,122,9,-117,51,65,48,219,209,224,151,122
117,122,4,-119,56,63,53,219,214,234,156,126
117,126,9,-122,53,68,53,219,219,234,161,126
117,126,9,-122,53,68,48,219,224,244,165,126
117,122,4,-119,56,63,58,234,224,239,165,122
122,122,0,-122,61,61,58,234,224,239,170,126
122,122,0,-122,61,61,58,234,229,244,175,131
122,122,0,-122,61,61,58,234,229,248,180,131
126,117,-9,-122,68,53,58,234,229,258,190,131
126,117,-9,-122,68,53,58,234,229,258,195,131
126,117,-9,-122,68,53,58,229,229,258,195,136
126,122,-4,-124,65,58,58,229,224,258,195,136
122,112,-9,-117,65,51,58,214,219,263,190,136
122,112,-9,-117,65,51,58,209,219,263,190,136
122,107,-14,-114,68,46,53,200,219,263,190,136
122,107,-14,-114,68,46,48,195,209,258,185,131
117,97,-19,-107,68,39,48,204,209,248,175,131
117,97,-19,-107,68,39,48,200,200,239,165,122
112,87,-24,-100,68,31,48,195,195,229,156,117
112,78,-34,-95,73,21,48,185,185,219,151,107
102,73,-29,-87,65,21,58,175,175,209,141,97
92,68,-24,-80,58,21,48,165,165,195,131,87
87,63,-24,-75,56,19,48,156,156,185,117,82
73,53,-19,-63,46,17,48,146,146,180,107,68
78,43,-34,-61,56,4,39,136,136,165,112,63
68,39,-29,-53,48,4,34,126,122,151,97,58
58,34,-24,-46,41,4,34,122,112,136,87,53
53,24,-29,-39,41,-2,34,112,102,131,78,43
48,14,-34,-31,41,-9,34,102,82,117,63,29
39,9,-29,-24,34,-9,34,92,73,107,58,19
