I,II,III,aVR,aVL,aVF,V1,V2,V3,V4,V5,V6
107,507,400,-307,-146,453,-692,-1083,-253,175,390,419
107,507,400,-307,-146,453,-692,-1083,-253,175,390,419
107,507,400,-307,-146,453,-692,-1083,-253,175,390,419
107,507,400,-307,-146,453,-692,-1083,-253,175,390,419
102,492,390,-297,-143,441,-668,-1049,-239,165,370,395
97,478,380,-287,-141,429,-653,-1024,-224,165,361,380
92,463,370,-278,-139,417,-639,-1000,-209,165,351,366
87,448,361,-268,-136,405,-624,-976,-195,165,341,351
78,429,351,-253,-136,390,-595,-941,-180,156,326,331
78,419,341,-248,-131,380,-575,-907,-165,156,322,322
78,409,331,-244,-126,370,-556,-873,-151,156,317,312
78,400,322,-239,-122,361,-536,-839,-136,156,312,302
78,390,312,-234,-117,351,-507,-800,-117,151,297,287
78,380,302,-229,-112,341,-488,-771,-107,146,283,273
78,370,292,-224,-107,331,-468,-741,-97,141,268,258
78,361,283,-219,-102,322,-448,-712,-87,136,253,244
68,341,273,-204,-102,307,-419,-668,-73,131,244,224
58,322,263,-190,-102,292,-400,-634,-58,126,234,214
48,302,253,-175,-102,278,-380,-600,-43,122,224,204
39,283,244,-161,-102,263,-361,-566,-29,117,214,195
34,258,224,-146,-95,241,-336,-531,-19,107,200,175
29,234,204,-131,-87,219,-312,-497,-9,107,195,165
24,209,185,-117,-80,197,-287,-463,0,107,190,156
19,185,165,-102,-73,175,-263,-429,9,107,185,146
19,175,156,-97,-68,165,-244,-390,19,102,170,131
19,175,156,-97,-68,165,-224,-361,29,97,165,126
19,175,156,-97,-68,165,-204,-331,39,92,161,122
19,175,156,-97,-68,165,-185,-302,48,87,156,117
9,156,146,-82,-68,151,-170,-273,53,78,146,107
9,146,136,-78,-63,141,-156,-253,58,78,136,97
9,136,126,-73,-58,131,-141,-234,63,78,126,87
9,126,117,-68,-53,122,-126,-214,68,78,117,78
0,107,107,-53,-53,107,-102,-180,73,68,107,73
0,97,97,-48,-48,97,-87,-156,78,68,107,68
0,87,87,-43,-43,87,-73,-131,82,68,107,63
0,78,78,-39,-39,78,-58,-107,87,68,107,58
0,73,73,-36,-36,73,-43,-92,97,58,102,53
0,68,68,-34,-34,68,-39,-78,97,58,97,48
0,63,63,-31,-31,63,-34,-63,97,58,92,43
0,58,58,-29,-29,58,-29,-48,97,58,87,39
0,53,53,-26,-26,53,-24,-39,97,48,82,29
0,48,48,-24,-24,48,-19,-29,97,48,78,29
0,43,43,-21,-21,43,-14,-19,97,48,73,29
0,39,39,-19,-19,39,-9,-9,97,48,68,29
-9,34,43,-12,-26,39,0,-4,92,43,63,24
-9,29,39,-9,-24,34,0,0,87,39,58,19
-9,24,34,-7,-21,29,0,4,82,34,53,14
-9,19,29,-4,-19,24,0,9,78,29,48,9
0,19,19,-9,-9,19,9,19,87,29,48,0
0,19,19,-9,-9,19,9,19,87,29,48,0
0,19,19,-9,-9,19,9,19,87,29,48,0
0,19,19,-9,-9,19,9,19,87,29,48,0
9,19,9,-14,0,14,19,24,87,29,48,9
9,19,9,-14,0,14,19,29,87,29,48,9
9,19,9,-14,0,14,19,34,87,29,48,9
9,19,9,-14,0,14,19,39,87,29,48,9
9,4,-4,-7,7,0,19,39,87,29,58,9
9,0,-9,-4,9,-4,19,39,87,29,58,9
9,-4,-14,-2,12,-9,19,39,87,29,58,9
9,-9,-19,0,14,-14,19,39,87,29,58,9
0,-4,-4,2,2,-4,9,29,78,19,53,4
0,0,0,0,0,0,9,29,78,19,48,0
0,4,4,-2,-2,4,9,29,78,19,43,-4
0,9,9,-4,-4,9,9,29,78,19,39,-9
0,4,4,-2,-2,4,9,29,78,29,39,0
0,0,0,0,0,0,9,29,78,29,39,0
0,-4,-4,2,2,-4,9,29,78,29,39,0
0,-9,-9,4,4,-9,9,29,78,29,39,0
-9,-9,0,9,-4,-4,19,29,78,29,39,0
-9,-9,0,9,-4,-4,19,29,78,29,39,0
-9,-9,0,9,-4,-4,19,29,78,29,39,0
-9,-9,0,9,-4,-4,19,29,78,29,39,0
-9,-4,4,7,-7,0,9,29,68,19,29,-9
-9,0,9,4,-9,4,9,29,68,19,29,-9
-9,4,14,2,-12,9,9,29,68,19,29,-9
-9,9,19,0,-14,14,9,29,68,19,29,-9
0,4,4,-2,-2,4,9,29,78,19,29,-9
0,0,0,0,0,0,9,29,78,19,29,-9
0,-4,-4,2,2,-4,9,29,78,19,29,-9
0,-9,-9,4,4,-9,9,29,78,19,29,-9
0,-9,-9,4,4,-9,9,29,78,19,29,-9
0,-9,-9,4,4,-9,9,29,78,19,29,-9
0,-9,-9,4,4,-9,9,29,78,19,29,-9
0,-9,-9,4,4,-9,9,29,78,19,29,-9
0,-19,-19,9,9,-19,9,39,68,9,29,-9
0,-19,-19,9,9,-19,9,39,68,9,29,-9
0,-19,-19,9,9,-19,9,39,68,9,29,-9
0,-19,-19,9,9,-19,9,39,68,9,29,-9
0,-14,-14,7,7,-14,9,39,68,9,19,-9
0,-9,-9,4,4,-9,9,39,68,9,19,-9
0,-4,-4,2,2,-4,9,39,68,9,19,-9
0,0,0,0,0,0,9,39,68,9,19,-9
9,0,-9,-4,9,-4,19,39,68,19,29,-9
9,0,-9,-4,9,-4,19,39,68,19,29,-9
9,0,-9,-4,9,-4,19,39,68,19,29,-9
9,0,-9,-4,9,-4,19,39,68,19,29,-9
0,-14,-14,7,7,-14,19,39,68,9,19,-9
0,-19,-19,9,9,-19,19,39,68,9,19,-9
0,-24,-24,12,12,-24,19,39,68,9,19,-9
0,-29,-29,14,14,-29,19,39,68,9,19,-9
-9,-19,-9,14,0,-14,9,29,58,0,9,-19
-9,-19,-9,14,0,-14,9,29,58,0,9,-19
-9,-19,-9,14,0,-14,9,29,58,0,9,-19
-9,-19,-9,14,0,-14,9,29,58,0,9,-19
0,-29,-29,14,14,-29,19,39,68,9,19,-19
0,-29,-29,14,14,-29,19,39,68,9,19,-19
0,-29,-29,14,14,-29,19,39,68,9,19,-19
0,-29,-29,14,14,-29,19,39,68,9,19,-19
0,-29,-29,14,14,-29,9,39,58,0,9,-19
0,-29,-29,14,14,-29,9,39,58,0,9,-19
0,-29,-29,14,14,-29,9,39,58,0,9,-19
0,-29,-29,14,14,-29,9,39,58,0,9,-19
0,-29,-29,14,14,-29,9,39,48,0,9,-19
0,-29,-29,14,14,-29,9,39,48,0,9,-19
0,-29,-29,14,14,-29,9,39,48,0,9,-19
0,-29,-29,14,14,-29,9,39,48,0,9,-19
-9,-39,-29,24,9,-34,19,29,48,0,9,-19
-9,-39,-29,24,9,-34,19,29,48,0,9,-19
-9,-39,-29,24,9,-34,19,29,48,0,9,-19
-9,-39,-29,24,9,-34,19,29,48,0,9,-19
-19,-39,-19,29,0,-29,9,19,39,-4,0,-29
-19,-39,-19,29,0,-29,9,19,39,-9,0,-29
-19,-39,-19,29,0,-29,9,19,39,-14,0,-29
-19,-39,-19,29,0,-29,9,19,39,-19,0,-29
-9,-29,-19,19,4,-24,0,19,39,-19,0,-29
-9,-29,-19,19,4,-24,0,19,39,-19,0,-29
-9,-29,-19,19,4,-24,0,19,39,-19,0,-29
-9,-29,-19,19,4,-24,0,19,39,-19,0,-29
0,-29,-29,14,14,-29,9,29,39,-9,0,-19
0,-29,-29,14,14,-29,9,29,39,-9,0,-19
0,-29,-29,14,14,-29,9,29,39,-9,0,-19
0,-29,-29,14,14,-29,9,29,39,-9,0,-19
9,-29,-39,9,24,-34,9,19,39,-9,0,-29
9,-29,-39,9,24,-34,9,19,39,-9,0,-29
9,-29,-39,9,24,-34,9,19,39,-9,0,-29
9,-29,-39,9,24,-34,9,19,39,-9,0,-29
4,-34,-39,14,21,-36,9,19,29,-19,-9,-39
0,-39,-39,19,19,-39,9,19,29,-19,-9,-39
-4,-43,-39,24,17,-41,9,19,29,-19,-9,-39
-9,-48,-39,29,14,-43,9,19,29,-19,-9,-39
-9,-43,-34,26,12,-39,0,9,29,-19,-9,-39
-9,-39,-29,24,9,-34,0,9,29,-19,-9,-39
-9,-34,-24,21,7,-29,0,9,29,-19,-9,-39
-9,-29,-19,19,4,-24,0,9,29,-19,-9,-39
0,-39,-39,19,19,-39,0,19,39,-19,-9,-29
0,-39,-39,19,19,-39,0,19,39,-19,-9,-29
0,-39,-39,19,19,-39,0,19,39,-19,-9,-29
0,-39,-39,19,19,-39,0,19,39,-19,-9,-29
0,-39,-39,19,19,-39,0,19,39,-19,0,-29
0,-39,-39,19,19,-39,0,19,39,-19,0,-29
0,-39,-39,19,19,-39,0,19,39,-19,0,-29
0,-39,-39,19,19,-39,0,19,39,-19,0,-29
-4,-48,-43,26,19,-46,0,9,29,-29,-9,-39
-9,-48,-39,29,14,-43,0,9,29,-29,-9,-39
-14,-48,-34,31,9,-41,0,9,29,-29,-9,-39
-19,-48,-29,34,4,-39,0,9,29,-29,-9,-39
-9,-39,-29,24,9,-34,0,9,29,-19,-9,-39
-9,-39,-29,24,9,-34,0,9,29,-19,-9,-39
-9,-39,-29,24,9,-34,0,9,29,-19,-9,-39
-9,-39,-29,24,9,-34,0,9,29,-19,-9,-39
0,-48,-48,24,24,-48,0,9,29,-19,-9,-39
0,-48,-48,24,24,-48,0,9,29,-19,-9,-39
0,-48,-48,24,24,-48,0,9,29,-19,-9,-39
0,-48,-48,24,24,-48,0,9,29,-19,-9,-39
0,-48,-48,24,24,-48,0,9,29,-19,-9,-39
0,-48,-48,24,24,-48,0,9,29,-19,-9,-39
0,-48,-48,24,24,-48,0,9,29,-19,-9,-39
0,-48,-48,24,24,-48,0,9,29,-19,-9,-39
0,-48,-48,24,24,-48,0,19,39,-19,-9,-29
0,-48,-48,24,24,-48,0,19,39,-19,-9,-29
0,-48,-48,24,24,-48,0,19,39,-19,-9,-29
0,-48,-48,24,24,-48,0,19,39,-19,-9,-29
0,-48,-48,24,24,-48,0,19,29,-19,-9,-39
0,-48,-48,24,24,-48,0,19,29,-19,-9,-39
0,-48,-48,24,24,-48,0,19,29,-19,-9,-39
0,-48,-48,24,24,-48,0,19,29,-19,-9,-39
0,-39,-39,19,19,-39,-9,9,19,-19,-9,-39
0,-39,-39,19,19,-39,-9,9,19,-19,-9,-39
0,-39,-39,19,19,-39,-9,9,19,-19,-9,-39
0,-39,-39,19,19,-39,-9,9,19,-19,-9,-39
0,-29,-29,14,14,-29,-9,9,19,-29,-9,-39
0,-29,-29,14,14,-29,-9,9,19,-29,-9,-39
0,-29,-29,14,14,-29,-9,9,19,-29,-9,-39
0,-29,-29,14,14,-29,-9,9,19,-29,-9,-39
-4,-39,-34,21,14,-36,0,9,19,-29,-9,-39
-9,-48,-39,29,14,-43,0,9,19,-29,-9,-39
-14,-58,-43,36,14,-51,0,9,19,-29,-9,-39
-19,-68,-48,43,14,-58,0,9,19,-29,-9,-39
-9,-53,-43,31,17,-48,-9,19,29,-29,-9,-29
-9,-48,-39,29,14,-43,-9,19,29,-29,-9,-29
-9,-43,-34,26,12,-39,-9,19,29,-29,-9,-29
-9,-39,-29,24,9,-34,-9,19,29,-29,-9,-29
0,-39,-39,19,19,-39,0,9,19,-19,0,-29
0,-39,-39,19,19,-39,0,9,19,-19,0,-29
0,-39,-39,19,19,-39,0,9,19,-19,0,-29
0,-39,-39,19,19,-39,0,9,19,-19,0,-29
-9,-39,-29,24,9,-34,-9,9,19,-29,-9,-39
-9,-39,-29,24,9,-34,-9,9,19,-29,-9,-39
-9,-39,-29,24,9,-34,-9,9,19,-29,-9,-39
-9,-39,-29,24,9,-34,-9,9,19,-29,-9,-39
0,-29,-29,14,14,-29,-9,9,19,-29,0,-29
0,-29,-29,14,14,-29,-9,9,19,-29,0,-29
0,-29,-29,14,14,-29,-9,9,19,-29,0,-29
0,-29,-29,14,14,-29,-9,9,19,-29,0,-29
0,-43,-43,21,21,-43,-9,9,29,-29,0,-29
0,-48,-48,24,24,-48,-9,9,29,-29,0,-29
0,-53,-53,26,26,-53,-9,9,29,-29,0,-29
0,-58,-58,29,29,-58,-9,9,29,-29,0,-29
-9,-48,-39,29,14,-43,-9,9,19,-29,-9,-39
-9,-48,-39,29,14,-43,-9,9,19,-29,-9,-39
-9,-48,-39,29,14,-43,-9,9,19,-29,-9,-39
-9,-48,-39,29,14,-43,-9,9,19,-29,-9,-39
-4,-43,-39,24,17,-41,0,19,29,-19,0,-29
0,-39,-39,19,19,-39,0,19,29,-19,0,-29
4,-34,-39,14,21,-36,0,19,29,-19,0,-29
9,-29,-39,9,24,-34,0,19,29,-19,0,-29
0,-29,-29,14,14,-29,-9,9,29,-29,-9,-39
0,-29,-29,14,14,-29,-9,9,29,-29,-9,-39
0,-29,-29,14,14,-29,-9,9,29,-29,-9,-39
0,-29,-29,14,14,-29,-9,9,29,-29,-9,-39
-9,-39,-29,24,9,-34,-19,0,19,-29,-9,-39
-9,-39,-29,24,9,-34,-19,0,19,-29,-9,-39
-9,-39,-29,24,9,-34,-19,0,19,-29,-9,-39
-9,-39,-29,24,9,-34,-19,0,19,-29,-9,-39
-9,-29,-19,19,4,-24,-9,9,29,-29,-9,-39
-9,-29,-19,19,4,-24,-9,9,29,-29,-9,-39
-9,-29,-19,19,4,-24,-9,9,29,-29,-9,-39
-9,-29,-19,19,4,-24,-9,9,29,-29,-9,-39
-9,-39,-29,24,9,-34,-9,9,19,-29,-9,-39
-9,-39,-29,24,9,-34,-9,9,19,-29,-9,-39
-9,-39,-29,24,9,-34,-9,9,19,-29,-9,-39
-9,-39,-29,24,9,-34,-9,9,19,-29,-9,-39
-19,-48,-29,34,4,-39,-9,9,29,-29,-9,-39
-19,-48,-29,34,4,-39,-9,9,29,-29,-9,-39
-19,-48,-29,34,4,-39,-9,9,29,-29,-9,-39
-19,-48,-29,34,4,-39,-9,9,29,-29,-9,-39
-9,-48,-39,29,14,-43,-9,9,29,-29,-9,-39
-9,-48,-39,29,14,-43,-9,9,29,-29,-9,-39
-9,-48,-39,29,14,-43,-9,9,29,-29,-9,-39
-9,-48,-39,29,14,-43,-9,9,29,-29,-9,-39
-9,-39,-29,24,9,-34,-9,9,29,-29,0,-29
-9,-39,-29,24,9,-34,-9,9,29,-29,0,-29
-9,-39,-29,24,9,-34,-9,9,29,-29,0,-29
-9,-39,-29,24,9,-34,-9,9,29,-29,0,-29
-9,-39,-29,24,9,-34,-9,9,29,-29,0,-39
-9,-39,-29,24,9,-34,-9,9,29,-29,0,-39
-9,-39,-29,24,9,-34,-9,9,29,-29,0,-39
-9,-39,-29,24,9,-34,-9,9,29,-29,0,-39
-19,-48,-29,34,4,-39,-9,9,29,-29,0,-39
-19,-48,-29,34,4,-39,-9,9,29,-29,0,-39
-19,-48,-29,34,4,-39,-9,9,29,-29,0,-39
-19,-48,-29,34,4,-39,-9,9,29,-29,0,-39
-19,-48,-29,34,4,-39,-19,9,19,-29,-9,-39
-19,-48,-29,34,4,-39,-19,9,19,-29,-9,-39
-19,-48,-29,34,4,-39,-19,9,19,-29,-9,-39
-19,-48,-29,34,4,-39,-19,9,19,-29,-9,-39
-9,-48,-39,29,14,-43,-19,9,19,-29,0,-39
-9,-48,-39,29,14,-43,-19,9,19,-29,0,-39
-9,-48,-39,29,14,-43,-19,9,19,-29,0,-39
-9,-48,-39,29,14,-43,-19,9,19,-29,0,-39
0,-39,-39,19,19,-39,-9,9,29,-19,0,-39
0,-39,-39,19,19,-39,-9,9,29,-19,0,-39
0,-39,-39,19,19,-39,-9,9,29,-19,0,-39
0,-39,-39,19,19,-39,-9,9,29,-19,0,-39
0,-29,-29,14,14,-29,-9,9,29,-19,0,-29
0,-29,-29,14,14,-29,-9,9,29,-19,0,-29
0,-29,-29,14,14,-29,-9,9,29,-19,0,-29
0,-29,-29,14,14,-29,-9,9,29,-19,0,-29
-9,-29,-19,19,4,-24,-19,0,19,-29,0,-39
-9,-29,-19,19,4,-24,-19,0,19,-29,0,-39
-9,-29,-19,19,4,-24,-19,0,19,-29,0,-39
-9,-29,-19,19,4,-24,-19,0,19,-29,0,-39
-9,-34,-24,21,7,-29,-19,9,19,-29,0,-39
-9,-39,-29,24,9,-34,-19,9,19,-29,0,-39
-9,-43,-34,26,12,-39,-19,9,19,-29,0,-39
-9,-48,-39,29,14,-43,-19,9,19,-29,0,-39
-19,-39,-19,29,0,-29,-19,9,19,-29,0,-39
-19,-39,-19,29,0,-29,-19,9,19,-29,0,-39
-19,-39,-19,29,0,-29,-19,9,19,-29,0,-39
-19,-39,-19,29,0,-29,-19,9,19,-29,0,-39
-14,-29,-14,21,0,-21,-19,9,19,-19,0,-29
-9,-29,-19,19,4,-24,-19,9,19,-19,0,-29
-4,-29,-24,17,9,-26,-19,9,19,-19,0,-29
0,-29,-29,14,14,-29,-19,9,19,-19,0,-29
-9,-39,-29,24,9,-34,-19,9,29,-19,0,-29
-9,-39,-29,24,9,-34,-19,9,29,-19,0,-29
-9,-39,-29,24,9,-34,-19,9,29,-19,0,-29
-9,-39,-29,24,9,-34,-19,9,29,-19,0,-29
-9,-48,-39,29,14,-43,-19,9,19,-19,0,-39
-9,-48,-39,29,14,-43,-19,9,19,-19,0,-39
-9,-48,-39,29,14,-43,-19,9,19,-19,0,-39
-9,-48,-39,29,14,-43,-19,9,19,-19,0,-39
-9,-58,-48,34,19,-53,-19,9,19,-29,0,-39
-9,-58,-48,34,19,-53,-19,9,19,-29,0,-39
-9,-58,-48,34,19,-53,-19,9,19,-29,0,-39
-9,-58,-48,34,19,-53,-19,9,19,-29,0,-39
-9,-48,-39,29,14,-43,-19,9,19,-29,0,-39
-9,-48,-39,29,14,-43,-19,9,19,-29,0,-39
-9,-48,-39,29,14,-43,-19,9,19,-29,0,-39
-9,-48,-39,29,14,-43,-19,9,19,-29,0,-39
-9,-39,-29,24,9,-34,-19,0,19,-29,0,-48
-9,-39,-29,24,9,-34,-19,0,19,-29,0,-48
-9,-39,-29,24,9,-34,-19,0,19,-29,0,-48
-9,-39,-29,24,9,-34,-19,0,19,-29,0,-48
-9,-39,-29,24,9,-34,-29,0,19,-29,0,-48
-9,-39,-29,24,9,-34,-29,0,19,-29,0,-48
-9,-39,-29,24,9,-34,-29,0,19,-29,0,-48
-9,-39,-29,24,9,-34,-29,0,19,-29,0,-48
-9,-29,-19,19,4,-24,-29,0,19,-29,0,-48
-9,-29,-19,19,4,-24,-29,0,19,-29,0,-48
-9,-29,-19,19,4,-24,-29,0,19,-29,0,-48
-9,-29,-19,19,4,-24,-29,0,19,-29,0,-48
0,-43,-43,21,21,-43,-19,4,29,-19,9,-39
0,-48,-48,24,24,-48,-19,9,29,-19,9,-39
0,-53,-53,26,26,-53,-19,14,29,-19,9,-39
0,-58,-58,29,29,-58,-19,19,29,-19,9,-39
-9,-43,-34,26,12,-39,-29,14,19,-24,0,-48
-9,-39,-29,24,9,-34,-29,9,19,-29,0,-48
-9,-34,-24,21,7,-29,-29,4,19,-34,0,-48
-9,-29,-19,19,4,-24,-29,0,19,-39,0,-48
-9,-39,-29,24,9,-34,-29,0,19,-29,0,-48
-9,-39,-29,24,9,-34,-29,0,19,-29,0,-48
-9,-39,-29,24,9,-34,-29,0,19,-29,0,-48
-9,-39,-29,24,9,-34,-29,0,19,-29,0,-48
-9,-48,-39,29,14,-43,-29,0,19,-29,9,-39
-9,-48,-39,29,14,-43,-29,0,19,-29,9,-39
-9,-48,-39,29,14,-43,-29,0,19,-29,9,-39
-9,-48,-39,29,14,-43,-29,0,19,-29,9,-39
-9,-48,-39,29,14,-43,-29,0,19,-29,9,-48
-9,-48,-39,29,14,-43,-29,0,19,-29,9,-48
-9,-48,-39,29,14,-43,-29,0,19,-29,9,-48
-9,-48,-39,29,14,-43,-29,0,19,-29,9,-48
-9,-39,-29,24,9,-34,-29,0,19,-29,0,-48
-9,-39,-29,24,9,-34,-29,0,19,-29,0,-48
-9,-39,-29,24,9,-34,-29,0,19,-29,0,-48
-9,-39,-29,24,9,-34,-29,0,19,-29,0,-48
0,-39,-39,19,19,-39,-29,9,19,-29,9,-39
0,-39,-39,19,19,-39,-29,9,19,-29,9,-39
0,-39,-39,19,19,-39,-29,9,19,-29,9,-39
0,-39,-39,19,19,-39,-29,9,19,-29,9,-39
0,-39,-39,19,19,-39,-29,9,29,-29,9,-48
0,-39,-39,19,19,-39,-29,9,29,-29,9,-48
0,-39,-39,19,19,-39,-29,9,29,-29,9,-48
0,-39,-39,19,19,-39,-29,9,29,-29,9,-48
0,-24,-24,12,12,-24,-29,9,29,-29,0,-48
0,-19,-19,9,9,-19,-29,9,29,-29,0,-48
0,-14,-14,7,7,-14,-29,9,29,-29,0,-48
0,-9,-9,4,4,-9,-29,9,29,-29,0,-48
-9,-9,0,9,-4,-4,-29,9,19,-29,9,-48
-4,-9,-4,7,0,-7,-34,9,24,-24,19,-43
-4,-4,0,4,-2,-2,-34,9,29,-19,19,-43
-9,-4,4,7,-7,0,-34,9,29,-19,19,-43
0,9,9,-4,-4,9,-43,14,29,-14,29,-29
0,9,9,-4,-4,9,-43,14,34,-14,34,-29
0,9,9,-4,-4,9,-43,19,43,-4,34,-29
0,14,14,-7,-7,14,-39,19,48,-4,29,-29
0,24,24,-12,-12,24,-39,9,34,-9,19,-39
0,24,24,-12,-12,24,-39,9,34,-9,14,-39
4,24,19,-14,-7,21,-39,9,34,-9,14,-43
9,24,14,-17,-2,19,-39,9,34,-9,14,-43
0,29,29,-14,-14,29,-39,19,43,-9,24,-43
4,14,9,-9,-2,12,-43,14,43,-14,29,-43
4,9,4,-7,0,7,-43,9,43,-14,29,-43
4,9,4,-7,0,7,-43,9,43,-14,24,-43
14,9,-4,-12,9,2,-53,4,43,-14,24,-34
14,4,-9,-9,12,-2,-58,0,43,-14,24,-29
14,4,-9,-9,12,-2,-63,-4,43,-14,24,-29
14,4,-9,-9,12,-2,-68,-4,39,-14,24,-29
9,14,4,-12,2,9,-82,-14,19,-14,19,-39
9,24,14,-17,-2,19,-82,-19,19,-19,19,-39
9,24,14,-17,-2,19,-87,-24,14,-19,19,-39
14,24,9,-19,2,17,-87,-24,14,-19,19,-39
14,29,14,-21,0,21,-87,-39,9,-29,19,-39
19,24,4,-21,7,14,-87,-39,9,-29,19,-39
19,19,0,-19,9,9,-87,-39,9,-29,19,-34
24,9,-14,-17,19,-2,-92,-43,9,-29,19,-29
39,4,-34,-21,36,-14,-102,-34,9,-29,19,-29
43,4,-39,-24,41,-17,-107,-39,4,-29,19,-29
48,4,-43,-26,46,-19,-107,-39,4,-29,19,-34
53,9,-43,-31,48,-17,-107,-39,4,-34,19,-34
68,4,-63,-36,65,-29,-117,-48,0,-24,29,-29
68,-4,-73,-31,70,-39,-112,-43,0,-19,29,-29
68,-9,-78,-29,73,-43,-107,-43,0,-19,24,-29
63,-4,-68,-29,65,-36,-102,-43,0,-19,24,-29
63,-9,-73,-26,68,-41,-87,-34,14,-19,29,-19
63,-9,-73,-26,68,-41,-87,-24,14,-14,34,-14
58,-4,-63,-26,61,-34,-87,-24,14,-14,39,-14
48,-4,-53,-21,51,-29,-82,-19,19,-14,43,-14
43,0,-43,-21,43,-21,-82,-29,9,-4,34,-14
39,0,-39,-19,39,-19,-78,-24,19,0,43,-14
29,4,-24,-17,26,-9,-73,-19,19,0,43,-14
24,4,-19,-14,21,-7,-68,-19,19,-4,34,-19
24,4,-19,-14,21,-7,-63,-19,24,-4,34,-9
14,0,-14,-7,14,-7,-63,-19,24,-14,39,-14
9,4,-4,-7,7,0,-58,-19,24,-14,34,-19
4,9,4,-7,0,7,-53,-19,24,-14,34,-29
-4,-4,0,4,-2,-2,-43,-9,24,-4,29,-34
-14,-14,0,14,-7,-7,-43,-9,14,-14,24,-34
-14,-24,-9,19,-2,-17,-39,-9,14,-24,24,-39
-14,-29,-14,21,0,-21,-29,-9,9,-29,9,-43
-9,-39,-29,24,9,-34,-39,-9,9,-24,9,-48
-14,-48,-34,31,9,-41,-39,-9,0,-29,4,-53
-14,-48,-34,31,9,-41,-39,-9,-4,-34,0,-58
-19,-58,-39,39,9,-48,-39,-9,-4,-34,0,-63
-19,-68,-48,43,14,-58,-34,-9,0,-48,-9,-68
-24,-58,-34,41,4,-46,-34,-19,0,-48,-14,-73
-24,-58,-34,41,4,-46,-39,-19,-4,-48,-19,-73
-24,-58,-34,41,4,-46,-39,-19,-4,-48,-19,-73
-14,-58,-43,36,14,-51,-39,-14,-14,-58,-19,-73
-14,-53,-39,34,12,-46,-39,-14,-14,-58,-19,-78
-14,-53,-39,34,12,-46,-39,-14,-9,-63,-19,-78
-14,-68,-53,41,19,-61,-34,-14,-4,-63,-19,-73
-14,-68,-53,41,19,-61,-34,-14,4,-48,-14,-78
-14,-68,-53,41,19,-61,-29,-14,4,-48,-9,-78
-14,-63,-48,39,17,-56,-29,-9,4,-43,-9,-73
-14,-63,-48,39,17,-56,-34,-9,4,-43,-9,-73
-29,-53,-24,41,-2,-39,-43,-19,-9,-53,-19,-78
-29,-48,-19,39,-4,-34,-43,-19,-9,-53,-19,-78
-29,-48,-19,39,-4,-34,-43,-19,-9,-53,-19,-78
-29,-48,-19,39,-4,-34,-43,-19,-9,-53,-24,-82
-29,-48,-19,39,-4,-34,-43,-19,-19,-53,-19,-92
-29,-48,-19,39,-4,-34,-43,-19,-14,-58,-19,-87
-29,-48,-19,39,-4,-34,-39,-14,-14,-58,-14,-87
-29,-48,-19,39,-4,-34,-39,-9,-14,-58,-14,-87
-29,-53,-24,41,-2,-39,-39,-9,-9,-58,-14,-78
-34,-43,-9,39,-12,-26,-29,-4,0,-48,-14,-82
-29,-48,-19,39,-4,-34,-19,4,-4,-48,-19,-87
-39,-58,-19,48,-9,-39,-19,9,0,-48,-19,-87
-39,-48,-9,43,-14,-29,0,29,14,-43,-24,-97
-58,-43,14,51,-36,-14,29,58,34,-43,-24,-102
-68,-43,24,56,-46,-9,53,82,53,-39,-34,-117
-68,-43,24,56,-46,-9,58,107,68,-43,-29,-117
-68,-53,14,61,-41,-19,73,122,78,-34,-24,-107
-68,-58,9,63,-39,-24,73,136,102,-24,-19,-107
-82,-43,39,63,-61,-2,82,156,126,-14,-19,-112
-82,-39,43,61,-63,2,87,175,141,-4,-14,-107
-53,-43,9,48,-31,-17,87,229,200,34,14,-82
-9,-39,-29,24,9,-34,78,302,283,102,68,-58
19,4,-14,-12,17,-4,58,361,366,185,131,-9
73,53,-19,-63,46,17,19,370,414,273,219,63
151,102,-48,-126,100,26,-29,322,424,351,322,165
234,175,-58,-204,146,58,-102,248,400,424,434,278
312,273,-39,-292,175,117,-195,146,380,502,546,395
400,351,-48,-375,224,151,-283,43,370,580,653,512
517,429,-87,-473,302,170,-361,-9,390,683,780,634
580,473,-107,-527,344,183,-395,-29,429,790,902,741
575,492,-82,-534,329,204,-400,-87,409,829,951,790
527,507,-19,-517,273,244,-405,-214,326,805,951,810
458,517,58,-488,200,287,-414,-366,234,780,951,824
385,551,165,-468,109,358,-405,-492,161,751,956,854
351,570,219,-461,65,395,-414,-590,78,727,956,873
341,570,229,-456,56,400,-434,-688,0,692,941,873
317,527,209,-422,53,368,-434,-722,-58,634,893,854
283,448,165,-366,58,307,-395,-712,-156,507,800,795
239,370,131,-305,53,251,-356,-732,-312,322,649,697
180,268,87,-224,46,178,-331,-785,-497,112,468,580
126,146,19,-136,53,82,-292,-839,-663,-92,283,439
68,78,9,-73,29,43,-278,-897,-795,-278,107,302
39,63,24,-51,7,43,-278,-941,-883,-400,-14,209
29,24,-4,-26,17,9,-273,-927,-912,-458,-78,156
24,-29,-53,2,39,-41,-283,-893,-888,-468,-122,102
9,-24,-34,7,21,-29,-307,-878,-854,-483,-151,68
-19,-24,-4,21,-7,-14,-336,-873,-819,-483,-170,43
-39,-14,24,26,-31,4,-366,-844,-766,-468,-170,24
-19,29,48,-4,-34,39,-395,-775,-673,-419,-151,34
9,29,19,-19,-4,24,-414,-683,-570,-361,-122,34
14,-4,-19,-4,17,-12,-375,-580,-497,-341,-122,9
34,-24,-58,-4,46,-41,-331,-492,-453,-336,-146,-29
48,-24,-73,-12,61,-48,-312,-439,-434,-336,-156,-53
63,-34,-97,-14,80,-65,-312,-409,-419,-326,-151,-53
78,-34,-112,-21,95,-73,-292,-385,-400,-317,-151,-63
92,-53,-146,-19,119,-100,-273,-341,-356,-297,-151,-73
82,-87,-170,2,126,-129,-244,-297,-317,-278,-151,-68
73,-102,-175,14,124,-139,-209,-253,-273,-268,-141,-68
63,-97,-161,17,112,-129,-180,-204,-229,-263,-151,-92
53,-97,-151,21,102,-124,-161,-161,-200,-244,-146,-117
29,-92,-122,31,75,-107,-151,-146,-180,-239,-146,-126
19,-73,-92,26,56,-82,-146,-141,-175,-224,-146,-126
9,-63,-73,26,41,-68,-146,-126,-175,-209,-151,-131
-4,-82,-78,43,36,-80,-122,-102,-146,-190,-136,-136
4,-97,-102,46,53,-100,-112,-73,-117,-170,-126,-126
14,-87,-102,36,58,-95,-97,-58,-102,-165,-126,-126
4,-87,-92,41,48,-90,-87,-43,-87,-161,-126,-131
0,-107,-107,53,53,-107,-68,-14,-68,-151,-122,-136
-4,-126,-122,65,58,-124,-53,0,-63,-146,-112,-136
-9,-122,-112,65,51,-117,-53,4,-58,-126,-97,-136
-14,-112,-97,63,41,-104,-53,4,-58,-122,-97,-136
-29,-102,-73,65,21,-87,-53,9,-53,-102,-92,-136
-34,-92,-58,63,12,-75,-53,9,-34,-92,-82,-131
-48,-97,-48,73,0,-73,-53,14,-24,-92,-78,-126
-48,-92,-43,70,-2,-68,-48,19,-14,-87,-73,-122
-53,-92,-39,73,-7,-65,-43,24,-4,-78,-68,-117
-53,-78,-24,65,-14,-51,-43,29,-4,-78,-63,-112
-43,-68,-24,56,-9,-46,-34,39,-14,-87,-63,-122
-43,-58,-14,51,-14,-36,-39,39,-14,-87,-58,-122
-43,-58,-14,51,-14,-36,-39,39,-14,-82,-58,-122
-43,-58,-14,51,-14,-36,-39,39,-9,-78,-53,-117
-43,-58,-14,51,-14,-36,-29,48,0,-68,-63,-112
-43,-63,-19,53,-12,-41,-19,53,0,-63,-63,-112
-39,-68,-29,53,-4,-48,-19,53,9,-63,-63,-112
-39,-63,-24,51,-7,-43,-19,58,9,-63,-63,-112
-43,-73,-29,58,-7,-51,-14,58,19,-68,-58,-107
-43,-78,-34,61,-4,-56,-14,58,24,-68,-58,-107
-43,-78,-34,61,-4,-56,-14,58,24,-68,-63,-112
-39,-68,-29,53,-4,-48,-14,58,19,-68,-63,-112
-39,-68,-29,53,-4,-48,-24,58,9,-63,-58,-112
-34,-58,-24,46,-4,-41,-24,58,9,-63,-58,-112
-34,-58,-24,46,-4,-41,-24,58,9,-68,-58,-112
-39,-58,-19,48,-9,-39,-24,58,9,-68,-58,-112
-43,-68,-24,56,-9,-46,-14,73,19,-58,-58,-112
-48,-68,-19,58,-14,-43,-9,78,24,-58,-68,-112
-53,-73,-19,63,-17,-46,-9,78,24,-58,-68,-112
-63,-78,-14,70,-24,-46,-9,78,24,-58,-63,-112
-53,-73,-19,63,-17,-46,-19,73,14,-58,-53,-122
-53,-73,-19,63,-17,-46,-19,68,19,-58,-53,-122
-48,-73,-24,61,-12,-48,-14,63,19,-53,-53,-122
-48,-73,-24,61,-12,-48,-14,58,19,-48,-53,-122
-39,-68,-29,53,-4,-48,-19,68,19,-58,-63,-122
-48,-63,-14,56,-17,-39,-19,78,19,-58,-58,-117
-48,-58,-9,53,-19,-34,-14,78,19,-58,-58,-117
-48,-53,-4,51,-21,-29,-14,78,24,-58,-58,-117
-48,-53,-4,51,-21,-29,-4,78,29,-53,-63,-112
-48,-58,-9,53,-19,-34,-4,82,34,-53,-63,-112
-48,-63,-14,56,-17,-39,-4,87,39,-53,-63,-112
-48,-68,-19,58,-14,-43,-4,97,39,-53,-63,-112
-48,-68,-19,58,-14,-43,-4,92,39,-53,-63,-112
-48,-63,-14,56,-17,-39,0,92,39,-53,-63,-112
-43,-63,-19,53,-12,-41,0,97,39,-53,-63,-112
-43,-63,-19,53,-12,-41,0,97,48,-53,-63,-112
-48,-63,-14,56,-17,-39,-9,97,39,-48,-63,-122
-48,-63,-14,56,-17,-39,-9,97,43,-48,-63,-122
-48,-63,-14,56,-17,-39,-4,97,43,-48,-63,-122
-43,-63,-19,53,-12,-41,-4,97,43,-48,-68,-122
-53,-68,-14,61,-19,-41,4,107,43,-48,-63,-112
-58,-73,-14,65,-21,-43,4,112,58,-43,-53,-112
-58,-73,-14,65,-21,-43,4,112,48,-43,-48,-112
-53,-73,-19,63,-17,-46,4,117,48,-39,-43,-112
-53,-73,-19,63,-17,-46,4,126,63,-39,-48,-112
-58,-78,-19,68,-19,-48,4,126,63,-39,-48,-112
-58,-78,-19,68,-19,-48,4,126,63,-43,-48,-112
-58,-78,-19,68,-19,-48,0,131,68,-43,-48,-112
-48,-82,-34,65,-7,-58,0,146,68,-48,-58,-122
-48,-82,-34,65,-7,-58,9,146,68,-48,-58,-122
-48,-78,-29,63,-9,-53,14,146,68,-48,-63,-122
-48,-78,-29,63,-9,-53,14,146,68,-48,-63,-122
-39,-63,-24,51,-7,-43,14,146,63,-39,-58,-122
-39,-58,-19,48,-9,-39,14,151,68,-39,-58,-122
-39,-58,-19,48,-9,-39,9,156,68,-43,-63,-122
-39,-53,-14,46,-12,-34,9,156,68,-43,-63,-122
-48,-48,0,48,-24,-24,9,156,82,-43,-63,-122
-48,-39,9,43,-29,-14,9,165,87,-43,-68,-126
-53,-34,19,43,-36,-7,14,170,87,-43,-73,-131
-53,-29,24,41,-39,-2,14,175,92,-34,-78,-136
-53,-34,19,43,-36,-7,14,190,97,-24,-63,-131
-58,-39,19,48,-39,-9,14,195,97,-24,-58,-126
-63,-48,14,56,-39,-17,14,195,107,-24,-53,-122
-68,-58,9,63,-39,-24,24,200,112,-19,-43,-117
-58,-48,9,53,-34,-19,14,200,112,-4,-29,-102
-58,-43,14,51,-36,-14,19,204,117,0,-24,-97
-63,-34,29,48,-46,-2,19,209,122,4,-24,-97
-63,-43,19,53,-41,-12,19,219,126,19,-19,-92
-58,-34,24,46,-41,-4,34,234,131,19,-24,-97
-58,-34,24,46,-41,-4,39,244,136,19,-24,-97
-53,-19,34,36,-43,7,39,244,141,14,-24,-97
-48,-19,29,34,-39,4,39,248,146,14,-19,-92
-48,-29,19,39,-34,-4,48,263,151,19,-29,-102
-48,-24,24,36,-36,0,48,268,156,19,-29,-102
-48,-24,24,36,-36,0,48,273,161,19,-29,-107
-53,-24,29,39,-41,2,53,273,165,19,-29,-117
-63,-39,24,51,-43,-7,58,278,170,14,-34,-126
-73,-43,29,58,-51,-7,58,283,170,9,-39,-126
-73,-43,29,58,-51,-7,58,287,175,4,-53,-131
-68,-48,19,58,-43,-14,58,292,180,0,-58,-131
-78,-39,39,58,-58,0,58,297,180,14,-48,-131
-78,-39,39,58,-58,0,58,297,185,14,-43,-131
-82,-39,43,61,-63,2,58,297,185,14,-43,-131
-82,-34,48,58,-65,7,58,297,180,24,-39,-131
-68,-19,48,43,-58,14,48,292,180,43,-24,-126
-68,-4,63,36,-65,29,53,292,190,43,-24,-122
-68,0,68,34,-68,34,53,292,190,43,-24,-117
-68,4,73,31,-70,39,58,292,195,39,-24,-112
-68,0,68,34,-68,34,58,302,204,39,-19,-102
-68,-4,63,36,-65,29,53,302,200,39,-19,-102
-68,-4,63,36,-65,29,53,307,200,39,-19,-102
-68,4,73,31,-70,39,53,307,204,43,-19,-97
-68,4,73,31,-70,39,53,302,195,58,-4,-82
-63,4,68,29,-65,36,48,297,195,58,0,-78
-58,4,63,26,-61,34,48,292,200,68,9,-73
-53,14,68,19,-61,41,48,292,204,68,9,-73
-48,0,48,24,-48,24,39,287,214,58,4,-82
-48,-4,43,26,-46,19,39,287,214,58,9,-78
-48,-19,29,34,-39,4,39,283,214,58,4,-78
-48,-24,24,36,-36,0,34,278,209,58,4,-73
-43,-14,29,29,-36,7,29,263,204,58,4,-82
-43,-4,39,24,-41,17,29,258,200,58,0,-73
-39,9,48,14,-43,29,14,248,200,58,0,-73
-34,19,53,7,-43,36,9,234,185,58,9,-68
-24,39,63,-7,-43,51,14,239,195,63,14,-53
-14,39,53,-12,-34,46,9,229,195,68,19,-53
-9,39,48,-14,-29,43,4,214,195,78,29,-48
0,39,39,-19,-19,39,0,214,190,82,43,-43
4,48,43,-26,-19,46,-4,200,185,82,43,-34
9,43,34,-26,-12,39,-9,195,175,82,34,-39
9,39,29,-24,-9,34,-19,185,161,73,34,-39
9,29,19,-19,-4,24,-24,175,156,73,39,-29
19,14,-4,-17,12,4,-29,161,151,82,43,-14
19,14,-4,-17,12,4,-34,146,146,78,53,0
19,14,-4,-17,12,4,-39,131,141,78,58,4
19,14,-4,-17,12,4,-43,112,131,78,68,9
24,4,-19,-14,21,-7,-39,112,117,68,58,0
24,-4,-29,-9,26,-17,-39,107,112,63,58,0
19,-9,-29,-4,24,-19,-43,102,102,58,53,-4
19,-14,-34,-2,26,-24,-43,92,97,53,48,-9
19,-9,-29,-4,24,-19,-58,78,82,34,24,-19
19,-9,-29,-4,24,-19,-63,68,78,34,19,-19
24,-14,-39,-4,31,-26,-68,68,78,29,19,-19
24,-19,-43,-2,34,-31,-73,58,73,29,19,-19
19,-9,-29,-4,24,-19,-73,48,63,14,4,-29
14,-4,-19,-4,17,-12,-73,39,58,9,4,-39
14,4,-9,-9,12,-2,-78,29,53,4,4,-39
14,14,0,-14,7,7,-82,19,48,4,0,-43
14,4,-9,-9,12,-2,-73,19,48,9,9,-43
14,0,-14,-7,14,-7,-73,19,48,14,14,-43
14,0,-14,-7,14,-7,-73,19,43,9,14,-39
14,4,-9,-9,12,-2,-73,14,39,14,9,-39
14,-4,-19,-4,17,-12,-82,24,48,19,14,-24
14,-4,-19,-4,17,-12,-78,19,48,19,19,-19
14,-4,-19,-4,17,-12,-78,19,48,19,24,-14
19,-9,-29,-4,24,-19,-78,19,48,24,34,-9
9,-9,-19,0,14,-14,-87,14,43,24,29,-14
9,-14,-24,2,17,-19,-87,14,39,14,19,-19
9,-14,-24,2,17,-19,-82,9,34,14,14,-24
9,-14,-24,2,17,-19,-78,4,29,14,9,-24
14,0,-14,-7,14,-7,-78,9,39,9,-4,-14
14,0,-14,-7,14,-7,-82,9,34,4,-4,-19
14,0,-14,-7,14,-7,-87,9,29,0,-4,-24
19,4,-14,-12,17,-4,-92,4,24,-9,-4,-29
19,-4,-24,-7,21,-14,-82,14,29,0,4,-19
19,-4,-24,-7,21,-14,-73,19,34,0,4,-19
14,-9,-24,-2,19,-17,-73,19,39,0,4,-19
9,-9,-19,0,14,-14,-73,19,43,0,4,-24
9,-9,-19,0,14,-14,-73,19,34,9,4,-14
9,-9,-19,0,14,-14,-73,19,34,9,9,-14
9,-4,-14,-2,12,-9,-73,14,34,9,14,-14
9,0,-9,-4,9,-4,-73,14,34,14,19,-14
9,-9,-19,0,14,-14,-73,19,34,14,14,-14
14,-9,-24,-2,19,-17,-73,19,39,14,19,-14
14,-9,-24,-2,19,-17,-73,24,39,14,19,-14
14,-14,-29,0,21,-21,-73,24,39,14,19,-14
4,-29,-34,12,19,-31,-73,34,48,29,29,-24
4,-29,-34,12,19,-31,-68,39,53,29,29,-24
4,-34,-39,14,21,-36,-68,43,53,29,29,-24
4,-34,-39,14,21,-36,-68,43,53,29,19,-24
9,-19,-29,4,19,-24,-82,39,43,24,14,-34
9,-14,-24,2,17,-19,-82,34,39,14,4,-39
9,0,-9,-4,9,-4,-78,24,39,9,0,-39
9,4,-4,-7,7,0,-78,19,34,4,0,-39
9,-4,-14,-2,12,-9,-68,24,43,19,9,-34
9,-4,-14,-2,12,-9,-63,39,43,19,9,-29
9,-4,-14,-2,12,-9,-63,43,43,19,14,-19
0,-9,-9,4,4,-9,-63,48,43,19,14,-14
0,-9,-9,4,4,-9,-53,48,53,19,14,-14
0,-4,-4,2,2,-4,-53,48,58,19,14,-19
0,4,4,-2,-2,4,-53,53,58,19,14,-19
9,19,9,-14,0,14,-53,53,58,19,14,-19
9,4,-4,-7,7,0,-53,63,78,24,14,-29
9,0,-9,-4,9,-4,-53,68,82,24,14,-24
9,-4,-14,-2,12,-9,-48,68,82,24,14,-24
9,-9,-19,0,14,-14,-48,68,78,24,14,-24
4,0,-4,-2,4,-2,-58,68,68,24,9,-24
4,0,-4,-2,4,-2,-58,68,78,34,19,-14
0,0,0,0,0,0,-58,68,78,34,19,-14
-9,-9,0,9,-4,-4,-58,68,78,34,14,-14
-4,0,4,2,-4,2,-43,58,73,34,14,-24
0,4,4,-2,-2,4,-43,58,68,29,9,-24
4,19,14,-12,-4,17,-48,58,63,29,9,-24
4,24,19,-14,-7,21,-48,58,58,29,9,-24
14,9,-4,-12,9,2,-39,58,68,29,9,-29
19,14,-4,-17,12,4,-39,58,68,29,9,-24
19,9,-9,-14,14,0,-39,58,63,24,4,-19
19,0,-19,-9,19,-9,-39,58,63,24,4,-14
4,-9,-14,2,9,-12,-48,58,58,9,-9,-19
4,-9,-14,2,9,-12,-43,58,63,9,-9,-19
4,-9,-14,2,9,-12,-39,58,68,9,-9,-19
4,-14,-19,4,12,-17,-39,58,68,4,-4,-19
14,-14,-29,0,21,-21,-48,58,58,4,-4,-29
14,-14,-29,0,21,-21,-53,58,58,9,-4,-29
14,-9,-24,-2,19,-17,-53,58,53,9,-4,-29
14,-9,-24,-2,19,-17,-53,58,53,9,0,-29
9,0,-9,-4,9,-4,-43,58,58,29,14,-24
0,-4,-4,2,2,-4,-43,58,58,34,24,-14
-4,-4,0,4,-2,-2,-43,58,58,34,14,-14
-9,0,9,4,-9,4,-43,58,53,29,14,-19
-19,0,19,9,-19,9,-43,53,53,19,9,-34
-19,-4,14,12,-17,4,-43,53,53,14,0,-34
-19,-4,14,12,-17,4,-43,53,48,9,-4,-34
-19,-4,14,12,-17,4,-43,53,48,0,-9,-39
-9,-24,-14,17,2,-19,-43,53,39,0,-14,-29
-9,-24,-14,17,2,-19,-43,48,34,0,-9,-29
-14,-19,-4,17,-4,-12,-43,43,29,0,-4,-29
-14,-19,-4,17,-4,-12,-43,43,29,4,0,-29
-14,-29,-14,21,0,-21,-53,34,29,0,0,-39
-9,-29,-19,19,4,-24,-53,34,29,0,-4,-39
-9,-24,-14,17,2,-19,-58,29,24,0,-9,-39
-14,-19,-4,17,-4,-12,-63,24,19,0,-19,-39
-14,-9,4,12,-9,-2,-58,34,29,4,-14,-39
-9,-9,0,9,-4,-4,-53,29,29,4,-14,-39
0,-14,-14,7,7,-14,-48,29,29,4,-14,-39
4,-4,-9,0,7,-7,-43,29,24,4,-14,-34
4,-9,-14,2,9,-12,-43,29,24,4,-14,-24
9,-14,-24,2,17,-19,-43,29,29,4,-9,-24
9,-19,-29,4,19,-24,-43,24,29,4,-4,-24
4,-4,-9,0,7,-7,-43,24,24,4,-4,-29
-4,-9,-4,7,0,-7,-43,24,24,0,-19,-29
0,-14,-14,7,7,-14,-43,34,24,-9,-24,-29
0,-19,-19,9,9,-19,-43,34,24,-14,-24,-29
0,-24,-24,12,12,-24,-43,34,19,-19,-24,-34
-4,-24,-19,14,7,-21,-53,24,14,-9,-19,-29
-4,-24,-19,14,7,-21,-53,9,9,-4,-9,-14
-4,-14,-9,9,2,-12,-53,4,4,-4,-4,-9
-4,-14,-9,9,2,-12,-53,4,0,-4,0,-4
4,-14,-19,4,12,-17,-48,14,9,-9,-14,-14
9,-14,-24,2,17,-19,-43,9,4,-14,-19,-24
9,-19,-29,4,19,-24,-43,9,4,-19,-29,-34
9,-19,-29,4,19,-24,-43,9,0,-34,-39,-43
9,-14,-24,2,17,-19,-53,4,0,-34,-39,-48
9,-9,-19,0,14,-14,-53,4,0,-29,-39,-48
9,-4,-14,-2,12,-9,-48,4,0,-29,-39,-48
9,4,-4,-7,7,0,-48,9,0,-29,-43,-48
0,4,4,-2,-2,4,-48,9,0,-19,-29,-43
-4,-4,0,4,-2,-2,-48,9,0,-14,-24,-43
-4,-9,-4,7,0,-7,-48,4,-4,-9,-19,-39
0,-9,-9,4,4,-9,-48,4,-4,-9,-9,-39
9,-9,-19,0,14,-14,-48,4,-4,-9,-19,-39
9,-4,-14,-2,12,-9,-53,-4,-9,-9,-24,-34
9,-4,-14,-2,12,-9,-53,-4,-9,-4,-24,-29
9,-14,-24,2,17,-19,-48,4,0,-4,-19,-9
14,-19,-34,2,24,-26,-43,9,0,-14,-19,-9
14,-14,-29,0,21,-21,-43,9,0,-14,-14,-9
4,-19,-24,7,14,-21,-43,0,0,-14,-14,-9
4,-24,-29,9,17,-26,-43,0,-4,-14,-14,-14
-4,-34,-29,19,12,-31,-43,-4,-14,-19,-34,-19
0,-24,-24,12,12,-24,-43,-14,-19,-19,-39,-19
0,-19,-19,9,9,-19,-53,-14,-24,-24,-34,-24
0,-19,-19,9,9,-19,-53,-14,-29,-24,-39,-29
0,-4,-4,2,2,-4,-58,-9,-19,-24,-48,-39
4,-4,-9,0,7,-7,-58,-9,-24,-24,-48,-34
4,-9,-14,2,9,-12,-58,-4,-24,-24,-48,-34
4,-9,-14,2,9,-12,-58,-4,-24,-29,-48,-34
14,0,-14,-7,14,-7,-53,-4,-14,-19,-39,-29
14,0,-14,-7,14,-7,-53,-9,-19,-24,-39,-29
14,-4,-19,-4,17,-12,-53,-9,-19,-24,-48,-29
14,-19,-34,2,24,-26,-43,-9,-19,-29,-58,-29
9,-24,-34,7,21,-29,-43,0,-29,-19,-53,-19
9,-29,-39,9,24,-34,-43,0,-29,-19,-48,-19
9,-39,-48,14,29,-43,-43,0,-29,-19,-39,-14
9,-43,-53,17,31,-48,-43,4,-29,-19,-24,-9
14,-39,-53,12,34,-46,-43,-4,-29,-29,-34,-14
19,-24,-43,2,31,-34,-43,-4,-29,-19,-34,-4
19,-14,-34,-2,26,-24,-48,-9,-24,-19,-34,-4
24,0,-24,-12,24,-12,-48,-9,-24,-14,-29,0
24,9,-14,-17,19,-2,-48,-19,-34,-14,-29,-9
24,24,0,-24,12,12,-48,-14,-34,-14,-29,-9
24,9,-14,-17,19,-2,-48,-14,-34,-14,-29,-9
14,9,-4,-12,9,2,-48,-14,-34,-19,-29,-9
4,9,4,-7,0,7,-39,-9,-29,-14,-24,-14
0,4,4,-2,-2,4,-39,-9,-34,-14,-24,-14
-4,-4,0,4,-2,-2,-39,-9,-34,-9,-29,-19
-4,-19,-14,12,4,-17,-39,-9,-34,-14,-29,-19
4,-29,-34,12,19,-31,-39,-19,-34,-34,-43,-34
4,-19,-24,7,14,-21,-39,-24,-43,-48,-63,-43
0,-14,-14,7,7,-14,-39,-24,-48,-58,-73,-48
-4,-14,-9,9,2,-12,-39,-19,-48,-63,-78,-48
-4,-39,-34,21,14,-36,-29,-4,-43,-53,-63,-29
0,-48,-48,24,24,-48,-24,0,-39,-43,-53,-24
0,-58,-58,29,29,-58,-19,0,-34,-34,-43,-19
-4,-63,-58,34,26,-61,-19,-4,-29,-29,-39,-9
4,-48,-53,21,29,-51,-24,-4,-39,-24,-24,-9
4,-24,-29,9,17,-26,-29,-4,-39,-19,-24,-9
4,-9,-14,2,9,-12,-29,-4,-34,-14,-24,-9
4,-4,-9,0,7,-7,-34,-4,-34,-14,-24,-9
19,4,-14,-12,17,-4,-24,-9,-34,-9,-24,-4
19,9,-9,-14,14,0,-29,0,-29,-9,-19,0
9,19,9,-14,0,14,-19,0,-19,-19,-29,-9
9,19,9,-14,0,14,-19,0,-19,-19,-29,-9
9,19,9,-14,0,14,-19,0,-19,-19,-29,-9
9,19,9,-14,0,14,-19,0,-19,-19,-29,-9
14,29,14,-21,0,21,-34,-9,-14,-14,-19,4
14,34,19,-24,-2,26,-34,-9,-9,-9,-19,4
9,34,24,-21,-7,29,-34,-9,-9,-9,-19,4
9,34,24,-21,-7,29,-34,-14,-14,-14,-19,9
0,24,24,-12,-12,24,-24,-14,-24,-14,-24,0
0,14,14,-7,-7,14,-24,-9,-19,-4,-24,0
0,9,9,-4,-4,9,-19,-9,-19,-4,-29,0
0,4,4,-2,-2,4,-19,-9,-24,-9,-29,0
9,4,-4,-7,7,0,-19,-9,-24,-9,-29,9
14,4,-9,-9,12,-2,-19,-9,-24,-9,-24,4
19,4,-14,-12,17,-4,-19,-9,-24,-9,-19,4
19,14,-4,-17,12,4,-29,-9,-24,-9,-14,4
24,19,-4,-21,14,7,-43,-14,-34,-14,-19,-4
24,24,0,-24,12,12,-43,-19,-34,-14,-19,-4
24,34,9,-29,7,21,-43,-19,-34,-14,-24,-4
24,39,14,-31,4,26,-53,-24,-34,-14,-24,-4
34,34,0,-34,17,17,-48,-29,-24,-14,-34,0
34,34,0,-34,17,17,-53,-34,-24,-14,-34,0
34,34,0,-34,17,17,-58,-34,-29,-14,-34,0
39,43,4,-41,17,24,-63,-43,-39,-14,-29,0
29,48,19,-39,4,34,-63,-48,-39,-29,-39,-9
29,43,14,-36,7,29,-68,-53,-43,-29,-39,-9
34,39,4,-36,14,21,-68,-53,-43,-29,-39,-9
34,29,-4,-31,19,12,-78,-58,-48,-29,-39,-9
29,24,-4,-26,17,9,-78,-68,-53,-39,-39,0
29,19,-9,-24,19,4,-78,-68,-58,-39,-39,4
34,9,-24,-21,29,-7,-82,-73,-63,-39,-39,9
39,4,-34,-21,36,-14,-82,-73,-78,-39,-39,9
43,-4,-48,-19,46,-26,-78,-63,-68,-24,-24,14
48,-4,-53,-21,51,-29,-78,-58,-63,-19,-19,14
53,0,-53,-26,53,-26,-78,-53,-58,-19,-14,19
58,0,-58,-29,58,-29,-78,-48,-48,-14,-9,29
58,9,-48,-34,53,-19,-82,-53,-48,-14,-19,19
58,14,-43,-36,51,-14,-78,-53,-48,-19,-24,19
53,29,-24,-41,39,2,-73,-53,-48,-24,-24,19
53,39,-14,-46,34,12,-68,-53,-43,-29,-19,19
53,39,-14,-46,34,12,-63,-43,-43,-19,-14,24
48,43,-4,-46,26,19,-58,-43,-43,-14,-9,24
39,43,4,-41,17,24,-48,-39,-39,-9,-4,24
34,43,9,-39,12,26,-34,-39,-39,4,-4,34
19,34,14,-26,2,24,-29,-34,-39,0,4,24
9,29,19,-19,-4,24,-24,-29,-39,0,4,24
4,19,14,-12,-4,17,-19,-29,-39,-4,-4,19
4,9,4,-7,0,7,-14,-29,-43,-4,-9,19
-4,-4,0,4,-2,-2,-14,-39,-58,-19,-14,4
-9,-9,0,9,-4,-4,-9,-39,-63,-24,-29,0
-14,-14,0,14,-7,-7,-4,-39,-68,-29,-39,-9
-14,-24,-9,19,-2,-17,-4,-39,-73,-34,-48,-14
-24,-43,-19,34,-2,-31,4,-29,-78,-53,-63,-14
-24,-53,-29,39,2,-41,9,-29,-73,-63,-63,-19
-24,-58,-34,41,4,-46,19,-29,-73,-68,-78,-24
-29,-68,-39,48,4,-53,19,-29,-68,-73,-78,-29
-24,-73,-48,48,12,-61,9,-29,-68,-63,-73,-24
-24,-68,-43,46,9,-56,9,-29,-73,-63,-78,-29
-29,-73,-43,51,7,-58,9,-29,-73,-58,-78,-34
-29,-68,-39,48,4,-53,4,-29,-78,-58,-78,-39
-34,-48,-14,41,-9,-31,-4,-48,-87,-58,-73,-43
-34,-39,-4,36,-14,-21,-9,-48,-92,-58,-78,-43
-34,-29,4,31,-19,-12,-9,-48,-92,-58,-78,-43
-24,-19,4,21,-14,-7,-9,-43,-92,-58,-78,-43
-14,-19,-4,17,-4,-12,0,-34,-92,-58,-87,-39
-14,-24,-9,19,-2,-17,0,-34,-87,-63,-87,-39
-14,-43,-29,29,7,-36,4,-34,-82,-63,-87,-34
-14,-48,-34,31,9,-41,4,-34,-82,-58,-82,-29
-14,-58,-43,36,14,-51,9,-43,-92,-58,-68,-19
-14,-53,-39,34,12,-46,9,-39,-92,-53,-68,-14
-14,-53,-39,34,12,-46,4,-39,-92,-53,-68,-14
-19,-53,-34,36,7,-43,4,-39,-97,-53,-68,-19
-29,-39,-9,34,-9,-24,4,-39,-87,-53,-68,-29
-29,-39,-9,34,-9,-24,4,-39,-87,-53,-68,-29
-29,-39,-9,34,-9,-24,4,-39,-87,-53,-73,-34
-29,-39,-9,34,-9,-24,4,-39,-87,-53,-78,-34
-39,-43,-4,41,-17,-24,14,-29,-73,-58,-87,-34
-39,-48,-9,43,-14,-29,19,-24,-73,-58,-82,-39
-39,-53,-14,46,-12,-34,19,-19,-73,-58,-82,-43
-39,-53,-14,46,-12,-34,29,-19,-68,-58,-82,-48
-34,-63,-29,48,-2,-46,39,-4,-68,-39,-73,-43
-48,-68,-19,58,-14,-43,58,4,-53,-48,-78,-58
-68,-39,29,53,-48,-4,68,29,-58,-58,-87,-78
-78,-19,58,48,-68,19,97,58,-43,-53,-112,-97
-68,-43,24,56,-46,-9,126,97,-14,-43,-112,-102
-58,-43,14,51,-36,-14,131,112,14,-29,-102,-107
-68,-43,24,56,-46,-9,136,126,39,-4,-78,-87
-68,-43,24,56,-46,-9,151,141,58,24,-63,-68
-58,-48,9,53,-34,-19,161,146,63,24,-58,-68
-63,-43,19,53,-41,-12,161,175,78,34,-48,-63
-34,-48,-14,41,-9,-31,165,214,131,73,-4,-29
14,-34,-48,9,31,-41,165,297,219,141,53,24
78,19,-58,-48,68,-19,146,370,331,229,126,78
136,82,-53,-109,95,14,117,409,424,331,229,156
190,122,-68,-156,129,26,68,400,463,429,336,258
248,190,-58,-219,153,65,19,370,483,507,439,370
322,283,-39,-302,180,122,-53,307,478,600,551,483
409,370,-39,-390,224,165,-136,224,478,717,702,629
497,429,-68,-463,283,180,-204,170,517,854,878,795
546,468,-78,-507,312,195,-244,156,556,966,1005,927
551,502,-48,-527,300,226,-229,126,536,985,1039,966
507,522,14,-514,246,268,-224,19,429,917,1000,946
429,546,117,-488,156,331,-268,-156,297,854,961,946
370,585,214,-478,78,400,-297,-326,195,810,951,961
326,610,283,-468,21,446,-287,-414,122,800,956,971
302,590,287,-446,7,439,-268,-473,68,775,946,971
292,522,229,-407,31,375,-287,-531,-19,702,893,961
258,448,190,-353,34,319,-268,-566,-126,566,785,912
224,380,156,-302,34,268,-229,-585,-263,370,624,805
190,292,102,-241,43,197,-200,-614,-448,126,424,649
141,170,29,-156,56,100,-165,-668,-644,-102,214,483
68,97,29,-82,19,63,-136,-732,-790,-287,39,351
19,78,58,-48,-19,68,-141,-810,-893,-405,-87,263
0,53,53,-26,-26,53,-141,-844,-951,-478,-161,190
-19,14,34,2,-26,24,-126,-829,-941,-497,-204,146
-53,-19,34,36,-43,7,-136,-795,-917,-507,-248,92
-78,-24,53,51,-65,14,-161,-780,-883,-522,-278,48
-78,-34,43,56,-61,4,-180,-756,-839,-522,-297,14
-78,-34,43,56,-61,4,-190,-707,-775,-517,-317,-24
-68,-39,29,53,-48,-4,-200,-639,-683,-488,-317,-53
-39,-19,19,29,-29,0,-219,-566,-590,-448,-307,-63
-14,-14,0,14,-7,-7,-229,-522,-546,-400,-297,-58
-4,-34,-29,19,12,-31,-214,-483,-531,-366,-273,-48
0,-34,-34,17,17,-34,-204,-439,-522,-336,-244,-43
14,-24,-39,4,26,-31,-195,-409,-497,-307,-229,-34
29,-14,-43,-7,36,-29,-185,-375,-448,-297,-219,-24
24,-34,-58,4,41,-46,-156,-322,-395,-278,-200,-34
4,-68,-73,31,39,-70,-117,-268,-346,-258,-200,-39
-4,-73,-68,39,31,-70,-92,-224,-312,-248,-200,-48
-4,-78,-73,41,34,-75,-73,-195,-287,-224,-190,-53
4,-78,-82,36,43,-80,-53,-170,-268,-195,-175,-48
0,-73,-73,36,36,-73,-43,-146,-248,-161,-156,-48
-19,-73,-53,46,17,-63,-29,-122,-224,-146,-146,-58
-29,-73,-43,51,7,-58,-19,-97,-204,-141,-151,-73
-24,-63,-39,43,7,-51,-14,-92,-204,-161,-156,-78
-24,-58,-34,41,4,-46,-14,-102,-195,-180,-165,-87
-24,-68,-43,46,9,-56,0,-78,-180,-185,-185,-87
-14,-87,-73,51,29,-80,29,-53,-165,-170,-185,-102
-19,-87,-68,53,24,-78,48,-43,-156,-151,-180,-97
-24,-78,-53,51,14,-65,53,-39,-141,-126,-170,-87
-19,-53,-34,36,7,-43,43,-24,-126,-97,-146,-78
-34,-53,-19,43,-7,-36,43,-14,-117,-82,-126,-68
-48,-63,-14,56,-17,-39,53,-19,-112,-82,-122,-58
-43,-53,-9,48,-17,-31,63,-9,-102,-73,-102,-53
-43,-58,-14,51,-14,-36,63,4,-92,-63,-87,-39
-39,-53,-14,46,-12,-34,68,9,-82,-58,-82,-34
-39,-53,-14,46,-12,-34,73,14,-73,-48,-78,-29
-34,-39,-4,36,-14,-21,73,19,-73,-48,-73,-24
-43,-48,-4,46,-19,-26,82,19,-73,-63,-92,-29
-43,-48,-4,46,-19,-26,78,19,-73,-68,-97,-34
-43,-58,-14,51,-14,-36,78,19,-73,-68,-107,-39
-43,-68,-24,56,-9,-46,78,19,-68,-68,-112,-39
-43,-58,-14,51,-14,-36,68,9,-78,-68,-102,-43
-43,-63,-19,53,-12,-41,78,14,-78,-63,-102,-43
-39,-68,-29,53,-4,-48,78,14,-68,-63,-102,-43
-39,-63,-24,51,-7,-43,78,19,-68,-63,-102,-43
-43,-48,-4,46,-19,-26,63,9,-78,-58,-102,-39
-43,-48,-4,46,-19,-26,63,9,-73,-58,-97,-39
-43,-43,0,43,-21,-21,63,9,-73,-58,-97,-43
-39,-29,9,34,-24,-9,63,9,-78,-58,-92,-43
-39,-39,0,39,-19,-19,73,19,-68,-48,-82,-34
-34,-29,4,31,-19,-12,73,19,-68,-43,-78,-34
-34,-29,4,31,-19,-12,73,19,-68,-43,-73,-34
-39,-29,9,34,-24,-9,73,19,-68,-39,-68,-34
-39,-39,0,39,-19,-19,82,24,-68,-53,-87,-43
-39,-39,0,39,-19,-19,87,29,-63,-58,-107,-53
-39,-43,-4,41,-17,-24,87,29,-63,-63,-117,-63
-43,-48,-4,46,-19,-26,87,29,-63,-68,-122,-73
-53,-53,0,53,-26,-26,87,29,-53,-68,-122,-63
-53,-53,0,53,-26,-26,87,29,-48,-68,-122,-63
-48,-53,-4,51,-21,-29,92,29,-48,-63,-122,-63
-48,-53,-4,51,-21,-29,92,29,-48,-58,-122,-63
-43,-43,0,43,-21,-21,87,19,-53,-48,-117,-48
-48,-43,4,46,-26,-19,87,29,-58,-48,-107,-39
-43,-43,0,43,-21,-21,92,29,-63,-48,-102,-34
-39,-43,-4,41,-17,-24,92,29,-63,-48,-97,-29
-29,-48,-19,39,-4,-34,92,24,-53,-39,-87,-24
-29,-48,-19,39,-4,-34,92,24,-53,-34,-82,-24
-29,-48,-19,39,-4,-34,92,24,-53,-29,-78,-24
-29,-48,-19,39,-4,-34,92,29,-58,-24,-73,-24
-34,-39,-4,36,-14,-21,92,34,-58,-29,-82,-29
-39,-34,4,36,-21,-14,97,34,-58,-34,-82,-34
-39,-34,4,36,-21,-14,97,39,-58,-39,-82,-39
-43,-34,9,39,-26,-12,97,39,-48,-43,-82,-43
-58,-43,14,51,-36,-14,97,48,-58,-43,-97,-53
-58,-43,14,51,-36,-14,97,48,-53,-48,-102,-53
-58,-43,14,51,-36,-14,102,48,-53,-53,-107,-53
-53,-43,9,48,-31,-17,102,48,-53,-58,-117,-53
-43,-53,-9,48,-17,-31,112,58,-43,-58,-117,-53
-48,-53,-4,51,-21,-29,112,63,-29,-53,-112,-53
-48,-48,0,48,-24,-24,112,63,-39,-53,-112,-53
-43,-43,0,43,-21,-21,112,68,-39,-48,-112,-53
-53,-34,19,43,-36,-7,112,73,-34,-39,-107,-43
-58,-39,19,48,-39,-9,112,68,-34,-39,-107,-43
-58,-39,19,48,-39,-9,112,63,-34,-43,-107,-43
-58,-39,19,48,-39,-9,107,63,-29,-43,-107,-43
-48,-34,14,41,-31,-9,97,58,-29,-34,-97,-39
-48,-34,14,41,-31,-9,107,58,-29,-29,-87,-34
-48,-29,19,39,-34,-4,112,58,-29,-24,-82,-29
-48,-29,19,39,-34,-4,112,58,-29,-19,-73,-24
-39,-39,0,39,-19,-19,122,78,-14,0,-68,-14
-39,-39,0,39,-19,-19,122,82,-9,0,-68,-14
-39,-43,-4,41,-17,-24,117,87,-9,-4,-73,-14
-39,-43,-4,41,-17,-24,117,87,-9,-4,-73,-14
-48,-53,-4,51,-21,-29,126,87,-14,-9,-73,-14
-48,-48,0,48,-24,-24,126,97,-9,-14,-78,-19
-53,-48,4,51,-29,-21,131,102,-9,-19,-82,-24
-53,-48,4,51,-29,-21,131,107,-4,-14,-87,-29
-48,-34,14,41,-31,-9,122,112,0,-14,-87,-29
-48,-29,19,39,-34,-4,122,117,0,-14,-87,-29
-48,-29,19,39,-34,-4,122,117,9,-14,-87,-29
-48,-29,19,39,-34,-4,131,122,14,-9,-82,-29
-48,-24,24,36,-36,0,131,126,14,9,-68,-19
-48,-14,34,31,-41,9,136,126,19,9,-63,-19
-53,0,53,26,-53,26,136,126,24,9,-63,-24
-53,-4,48,29,-51,21,136,131,29,19,-58,-24
-68,-4,63,36,-65,29,141,136,43,34,-53,-29
-68,-4,63,36,-65,29,146,146,48,39,-53,-29
-63,9,73,26,-68,41,146,146,53,39,-53,-29
-58,9,68,24,-63,39,146,151,58,43,-48,-24
-58,4,63,26,-61,34,146,165,63,39,-48,-9
-58,4,63,26,-61,34,146,170,68,39,-48,-4
-58,0,58,29,-58,29,146,175,73,39,-48,-4
-63,-4,58,34,-61,26,151,175,78,39,-48,-9
-58,4,63,26,-61,34,156,170,73,39,-58,-19
-63,14,78,24,-70,46,156,175,73,39,-58,-19
-58,29,87,14,-73,58,156,180,78,39,-68,-24
-48,39,87,4,-68,63,156,185,82,39,-68,-24
-39,29,68,4,-53,48,165,190,92,53,-63,-14
-39,29,68,4,-53,48,165,190,97,53,-53,-14
-43,29,73,7,-58,51,165,190,97,53,-48,-14
-43,34,78,4,-61,56,165,190,92,63,-39,-14
-39,24,63,7,-51,43,156,185,82,73,-24,-9
-39,34,73,2,-56,53,161,185,92,73,-24,-4
-39,34,73,2,-56,53,161,185,92,73,-24,0
-39,34,73,2,-56,53,165,185,97,68,-24,4
-39,43,82,-2,-61,63,175,195,107,58,-24,4
-39,43,82,-2,-61,63,170,195,102,58,-29,4
-39,48,87,-4,-63,68,170,200,102,58,-34,4
-39,63,102,-12,-70,82,170,200,107,63,-39,9
-48,63,112,-7,-80,87,161,195,97,68,-34,4
-43,63,107,-9,-75,85,156,190,97,68,-29,9
-39,63,102,-12,-70,82,156,185,102,78,-19,14
-34,73,107,-19,-70,90,156,185,107,78,-19,14
-34,63,97,-14,-65,80,146,170,97,78,-19,24
-39,63,102,-12,-70,82,146,170,97,78,-9,29
-43,53,97,-4,-70,75,146,165,97,78,-9,29
-48,53,102,-2,-75,78,141,161,92,78,-4,34
-43,43,87,0,-65,65,141,165,87,68,-14,29
-43,43,87,0,-65,65,146,161,82,68,-19,34
-39,48,87,-4,-63,68,136,151,82,68,-19,29
-34,48,82,-7,-58,65,136,136,68,68,-9,29
-24,58,82,-17,-53,70,146,136,78,68,-9,34
-14,58,73,-21,-43,65,146,131,78,68,-9,34
-9,58,68,-24,-39,63,146,122,78,73,-4,39
0,58,58,-29,-29,58,146,126,73,73,4,43
4,48,43,-26,-19,46,146,122,78,63,0,53
9,43,34,-26,-12,39,146,117,68,63,-14,48
9,39,29,-24,-9,34,141,107,53,53,-19,48
9,29,19,-19,-4,24,141,97,48,53,-19,58
4,34,29,-19,-12,31,136,87,34,53,-29,53
0,34,34,-17,-17,34,131,78,29,48,-24,58
-4,34,39,-14,-21,36,126,68,24,48,-24,53
-9,34,43,-12,-26,39,122,53,14,48,-19,48
-14,24,39,-4,-26,31,126,48,19,48,-9,48
-14,14,29,0,-21,21,126,48,14,43,-9,48
-19,9,29,4,-24,19,122,48,4,39,-14,43
-19,4,24,7,-21,14,122,43,0,34,-19,39
-14,19,34,-2,-24,26,126,39,-4,24,-24,39
-9,19,29,-4,-19,24,122,29,-9,24,-29,39
0,14,14,-7,-7,14,117,29,-9,19,-29,39
4,9,4,-7,0,7,112,19,-14,19,-29,39
9,19,9,-14,0,14,112,14,-24,24,-29,43
4,14,9,-9,-2,12,112,9,-29,19,-24,39
4,14,9,-9,-2,12,107,4,-34,14,-19,43
4,14,9,-9,-2,12,102,0,-39,14,-19,43
-9,4,14,2,-12,9,102,-9,-48,4,-24,39
-14,0,14,7,-14,7,102,-9,-48,4,-24,34
-19,0,19,9,-19,9,102,-9,-53,-4,-29,34
-24,4,29,9,-26,17,102,-14,-58,-4,-39,29
-14,14,29,0,-21,21,102,-14,-48,-4,-53,24
-14,14,29,0,-21,21,107,-19,-48,-9,-58,19
-14,14,29,0,-21,21,107,-19,-48,-14,-63,14
-9,9,19,0,-14,14,107,-19,-48,-14,-63,9
0,-4,-4,2,2,-4,107,-14,-39,-4,-58,14
0,-14,-14,7,7,-14,107,-4,-39,-14,-58,19
0,-19,-19,9,9,-19,112,0,-39,-14,-53,24
0,-24,-24,12,12,-24,117,4,-39,-14,-48,34
-4,-14,-9,9,2,-12,117,-9,-48,-4,-43,34
-4,-9,-4,7,0,-7,112,-9,-53,-4,-43,29
-4,-4,0,4,-2,-2,107,-9,-58,-4,-43,24
0,4,4,-2,-2,4,102,-14,-63,-9,-43,19
-9,-4,4,7,-7,0,112,-14,-53,-9,-43,19
-9,-4,4,7,-7,0,122,-9,-53,-9,-43,19
-14,-9,4,12,-9,-2,122,-9,-53,-9,-43,19
-19,-9,9,14,-14,0,122,-9,-53,-9,-43,14
-29,-9,19,19,-24,4,117,-19,-58,-24,-63,0
-29,-9,19,19,-24,4,112,-19,-63,-29,-68,-4
-29,-4,24,17,-26,9,107,-24,-68,-34,-73,-9
-29,0,29,14,-29,14,102,-24,-73,-34,-78,-14
-29,0,29,14,-29,14,112,-19,-63,-24,-53,-4
-24,-9,14,17,-19,2,112,-9,-58,-14,-48,4
-4,0,4,2,-4,2,112,-4,-48,-14,-48,14
-4,-4,0,4,-2,-2,112,-4,-48,-14,-48,14
-19,-19,0,19,-9,-9,117,-9,-48,-9,-48,9
-19,-29,-9,24,-4,-19,107,-9,-58,-14,-53,0
-19,-29,-9,24,-4,-19,107,-9,-58,-19,-58,0
-19,-29,-9,24,-4,-19,107,-9,-58,-24,-63,0
-19,-29,-9,24,-4,-19,107,-9,-58,-29,-68,0
-29,-14,14,21,-21,0,107,-19,-58,-39,-78,-4
-29,-9,19,19,-24,4,107,-19,-58,-39,-78,-9
-29,-4,24,17,-26,9,107,-19,-58,-39,-78,-14
-29,0,29,14,-29,14,107,-19,-58,-39,-78,-19
-39,-9,29,24,-34,9,107,-9,-48,-34,-73,-14
-39,-9,29,24,-34,9,107,-9,-48,-29,-68,-9
-39,-9,29,24,-34,9,107,-9,-48,-24,-63,-4
-39,-9,29,24,-34,9,107,-9,-48,-19,-58,0
-29,0,29,14,-29,14,107,0,-48,-9,-48,0
-29,0,29,14,-29,14,107,0,-48,-9,-48,0
-29,0,29,14,-29,14,107,0,-48,-9,-48,0
-29,0,29,14,-29,14,107,0,-48,-9,-48,0
-24,0,24,12,-24,12,117,0,-43,0,-39,4
-19,0,19,9,-19,9,117,0,-39,0,-39,9
-14,0,14,7,-14,7,117,0,-34,0,-39,14
-9,0,9,4,-9,4,117,0,-29,0,-39,19
-9,9,19,0,-14,14,107,9,-29,0,-39,9
-9,9,19,0,-14,14,107,9,-29,0,-39,9
-9,9,19,0,-14,14,107,9,-29,0,-39,9
-9,9,19,0,-14,14,107,9,-29,0,-39,9
-14,0,14,7,-14,7,117,19,-19,-14,-53,0
-19,-9,9,14,-14,0,117,19,-19,-19,-58,0
-24,-19,4,21,-14,-7,117,19,-19,-24,-63,0
-29,-29,0,29,-14,-14,117,19,-19,-29,-68,0
-39,-24,14,31,-26,-4,117,9,-29,-29,-68,-9
-39,-19,19,29,-29,0,117,9,-29,-29,-68,-9
-39,-14,24,26,-31,4,117,9,-29,-29,-68,-9
-39,-9,29,24,-34,9,117,9,-29,-29,-68,-9
-34,-4,29,19,-31,12,112,0,-19,-19,-58,-9
-29,0,29,14,-29,14,107,0,-19,-19,-58,-9
-24,4,29,9,-26,17,102,0,-19,-19,-58,-9
-19,9,29,4,-24,19,97,0,-19,-19,-58,-9
-19,4,24,7,-21,14,107,4,-19,-14,-53,0
-19,0,19,9,-19,9,107,9,-19,-9,-48,0
-19,-4,14,12,-17,4,107,14,-19,-4,-43,0
-19,-9,9,14,-14,0,107,19,-19,0,-39,0
-19,0,19,9,-19,9,117,9,-19,-9,-39,9
-19,0,19,9,-19,9,117,9,-19,-9,-39,9
-19,0,19,9,-19,9,117,9,-19,-9,-39,9
-19,0,19,9,-19,9,117,9,-19,-9,-39,9
-29,-9,19,19,-24,4,107,9,-29,-19,-48,9
-29,-9,19,19,-24,4,107,9,-29,-19,-48,9
-29,-9,19,19,-24,4,107,9,-29,-19,-48,9
-29,-9,19,19,-24,4,107,9,-29,-19,-48,9
-29,0,29,14,-29,14,97,0,-29,-19,-58,4
-29,0,29,14,-29,14,97,0,-29,-19,-58,0
-29,0,29,14,-29,14,97,0,-29,-19,-58,-4
-29,0,29,14,-29,14,97,0,-29,-19,-58,-9
-39,0,39,19,-39,19,97,0,-29,-29,-68,-14
-39,0,39,19,-39,19,97,0,-29,-29,-68,-19
-39,0,39,19,-39,19,97,0,-29,-29,-68,-24
-39,0,39,19,-39,19,97,0,-29,-29,-68,-29
0,29,29,-14,-14,29,97,9,-19,-9,-48,0
0,9,9,-4,-4,9,107,19,-19,-9,-39,9
0,0,0,0,0,0,107,19,-19,-9,-29,19
0,0,0,0,0,0,107,19,-9,0,-29,19
0,9,9,-4,-4,9,107,19,-9,0,-19,29
0,9,9,-4,-4,9,107,19,9,19,-9,39
0,9,9,-4,-4,9,107,19,19,29,0,48
0,9,9,-4,-4,9,107,29,29,48,9,58
9,19,9,-14,0,14,107,29,39,68,29,68
9,29,19,-19,-4,24,97,39,58,87,58,87
9,19,9,-14,0,14,97,48,78,107,78,107
0,29,29,-14,-14,29,97,48,78,117,87,107
0,48,48,-24,-24,48,97,39,78,107,78,97
0,48,48,-24,-24,48,97,39,78,107,78,97
9,29,19,-19,-4,24,107,58,107,126,97,117
9,48,39,-29,-14,43,107,58,126,156,126,156
19,107,87,-63,-34,97,87,39,136,185,156,185
39,146,107,-92,-34,126,68,29,136,195,185,204
58,156,97,-107,-19,126,68,39,146,214,204,234
78,146,68,-112,4,107,78,48,165,234,244,263
87,156,68,-122,9,112,87,68,175,253,253,273
97,156,58,-126,19,107,97,97,195,263,253,263
107,117,9,-112,48,63,126,136,214,263,244,244
97,48,-48,-73,73,0,165,185,234,244,195,175
97,-29,-126,-34,112,-78,195,224,253,214,146,87
107,-97,-204,-4,156,-151,234,283,292,214,117,39
126,-165,-292,19,209,-229,263,341,341,234,117,29
136,-234,-370,48,253,-302,302,419,390,263,126,9
146,-263,-409,58,278,-336,331,478,429,283,136,-9
165,-292,-458,63,312,-375,361,536,468,302,156,-9
195,-322,-517,63,356,-419,400,595,517,331,156,-19
204,-361,-566,78,385,-463,429,663,575,361,146,-68
214,-390,-605,87,409,-497,458,741,653,409,156,-117
244,-439,-683,97,463,-561,488,839,780,497,204,-117
253,-478,-732,112,492,-605,517,936,897,595,253,-107
253,-527,-780,136,517,-653,575,1054,995,634,253,-146
253,-595,-849,170,551,-722,634,1171,1083,644,214,-224
253,-653,-907,200,580,-780,712,1298,1161,644,175,-273
253,-673,-927,209,590,-800,780,1395,1210,624,126,-331
244,-692,-936,224,590,-814,829,1473,1239,556,19,-429
224,-761,-985,268,605,-873,897,1561,1229,429,-136,-556
195,-849,-1044,326,619,-946,966,1639,1190,273,-312,-702
146,-897,-1044,375,595,-971,985,1668,1122,126,-458,-810
107,-917,-1024,405,566,-971,995,1678,1054,29,-546,-858
68,-946,-1015,439,541,-980,1044,1727,1015,-29,-595,-897
39,-985,-1024,473,531,-1005,1083,1786,985,-68,-634,-917
29,-985,-1015,478,522,-1000,1093,1805,956,-117,-673,-936
29,-985,-1015,478,522,-1000,1083,1815,917,-146,-692,-956
19,-1005,-1024,492,522,-1015,1102,1834,888,-185,-722,-976
-9,-1034,-1024,522,507,-1029,1112,1834,858,-224,-751,-1005
-58,-1054,-995,556,468,-1024,1102,1825,810,-263,-790,-1034
-97,-1054,-956,575,429,-1005,1122,1834,771,-312,-829,-1054
-117,-1054,-936,585,409,-995,1132,1844,732,-351,-868,-1063
-146,-1083,-936,614,395,-1010,1151,1864,692,-390,-888,-1073
-185,-1122,-936,653,375,-1029,1180,1883,673,-409,-897,-1083
-204,-1122,-917,663,356,-1019,1200,1893,663,-409,-897,-1073
-204,-1083,-878,644,336,-980,1190,1864,634,-419,-888,-1054
-214,-1054,-839,634,312,-946,1180,1825,614,-409,-868,-1024
-234,-1024,-790,629,278,-907,1161,1786,605,-390,-829,-985
-244,-985,-741,614,248,-863,1141,1737,585,-380,-800,-946
-253,-897,-644,575,195,-771,1102,1649,546,-361,-771,-888
-273,-790,-517,531,122,-653,1054,1551,517,-331,-712,-819
-283,-712,-429,497,73,-570,1015,1473,488,-312,-673,-761
-292,-653,-361,473,34,-507,985,1415,458,-292,-634,-702
-302,-605,-302,453,0,-453,936,1337,429,-273,-575,-644
-292,-536,-244,414,-24,-390,868,1249,409,-253,-536,-585
-283,-468,-185,375,-48,-326,829,1180,380,-263,-527,-566
-283,-429,-146,356,-68,-287,839,1171,370,-263,-517,-556
-253,-429,-175,341,-39,-302,858,1229,390,-234,-488,-507
-214,-458,-244,336,14,-351,878,1307,419,-195,-429,-458
-175,-458,-283,317,53,-370,878,1346,400,-175,-400,-419
-156,-458,-302,307,73,-380,878,1366,351,-175,-380,-400
-146,-478,-331,312,92,-405,907,1405,331,-175,-370,-380
-136,-488,-351,312,107,-419,956,1473,331,-175,-361,-370
-117,-478,-361,297,122,-419,976,1483,302,-185,-361,-361
-97,-439,-341,268,122,-390,936,1434,244,-195,-361,-341
-68,-390,-322,229,126,-356,897,1366,195,-204,-331,-312
-58,-361,-302,209,122,-331,878,1366,185,-175,-292,-263
-29,-331,-302,180,136,-317,858,1346,165,-156,-253,-234
9,-302,-312,146,161,-307,800,1249,107,-136,-224,-204
9,-302,-312,146,161,-307,761,1141,58,-126,-214,-185
-9,-302,-292,156,141,-297,761,1102,39,-136,-214,-185
-9,-292,-283,151,136,-287,751,1054,19,-146,-224,-195
-19,-273,-253,146,117,-263,702,927,-39,-165,-234,-185
-48,-244,-195,146,73,-219,624,751,-117,-195,-244,-185
-68,-224,-156,146,43,-190,566,595,-185,-214,-253,-175
-58,-195,-136,126,39,-165,517,497,-214,-214,-224,-146
-39,-156,-117,97,39,-136,439,409,-224,-185,-185,-97
-9,-107,-97,58,43,-102,331,351,-224,-146,-146,-58
29,-29,-58,0,43,-43,224,283,-195,-117,-107,-29
39,29,-9,-34,24,9,126,195,-175,-97,-87,-9
39,58,19,-48,9,39,58,117,-156,-78,-68,0
48,87,39,-68,4,63,0,29,-146,-58,-39,39
39,117,78,-78,-19,97,-58,-78,-165,-58,-29,58
19,156,136,-87,-58,146,-97,-175,-204,-68,-29,68
0,156,156,-78,-78,156,-117,-224,-224,-68,-19,68
-19,156,175,-68,-97,165,-126,-253,-234,-58,-9,78
-24,161,185,-68,-104,173,-131,-263,-234,-68,-9,78
-29,165,195,-68,-112,180,-136,-273,-234,-68,-9,78
-34,170,204,-68,-119,187,-141,-283,-234,-68,-9,78
-39,175,214,-68,-126,195,-146,-292,-234,-68,-9,78
-29,175,204,-73,-117,190,-161,-307,-239,-73,-19,78
-29,175,204,-73,-117,190,-165,-322,-244,-78,-19,78
-29,175,204,-73,-117,190,-170,-336,-248,-82,-19,78
-29,175,204,-73,-117,190,-175,-351,-253,-87,-19,78
-24,175,200,-75,-112,187,-195,-366,-268,-97,-9,82
-19,175,195,-78,-107,185,-204,-380,-273,-97,-9,87
-14,175,190,-80,-102,183,-214,-395,-278,-97,-9,92
-9,175,185,-82,-97,180,-224,-409,-283,-97,-9,97
0,180,180,-90,-90,180,-234,-414,-287,-97,-4,102
0,185,185,-92,-92,185,-234,-419,-292,-97,0,107
0,190,190,-95,-95,190,-234,-424,-297,-97,4,112
0,195,195,-97,-97,195,-234,-429,-302,-97,9,117
9,214,204,-112,-97,209,-239,-444,-292,-82,19,126
9,224,214,-117,-102,219,-244,-448,-292,-78,29,136
9,234,224,-122,-107,229,-248,-453,-292,-73,39,146
9,244,234,-126,-112,239,-253,-458,-292,-68,48,156
4,258,253,-131,-124,256,-253,-468,-283,-63,63,170
0,263,263,-131,-131,263,-253,-468,-283,-58,68,175
-4,268,273,-131,-139,270,-253,-468,-283,-53,73,180
-9,273,283,-131,-146,278,-253,-468,-283,-48,78,185
-24,278,302,-126,-163,290,-263,-483,-292,-48,82,190
-29,283,312,-126,-170,297,-263,-488,-292,-48,87,195
-34,287,322,-126,-178,305,-263,-492,-292,-48,92,200
-39,292,331,-126,-185,312,-263,-497,-292,-48,97,204
-48,292,341,-122,-195,317,-273,-507,-297,-48,107,209
-48,292,341,-122,-195,317,-273,-517,-302,-48,107,214
-48,292,341,-122,-195,317,-273,-527,-307,-48,107,219
-48,292,341,-122,-195,317,-273,-536,-312,-48,107,224
-58,302,361,-122,-209,331,-283,-556,-326,-53,107,234
-58,302,361,-122,-209,331,-292,-575,-341,-58,107,234
-58,302,361,-122,-209,331,-302,-595,-356,-63,107,234
-58,302,361,-122,-209,331,-312,-614,-370,-68,107,234
-48,317,366,-134,-207,341,-322,-634,-375,-68,122,253
-48,322,370,-136,-209,346,-331,-644,-380,-68,126,263
-48,326,375,-139,-212,351,-341,-653,-385,-68,131,273
-48,331,380,-141,-214,356,-351,-663,-390,-68,136,283
-34,351,385,-158,-209,368,-361,-688,-395,-53,156,297
-29,370,400,-170,-214,385,-370,-702,-400,-48,165,312
-24,390,414,-183,-219,402,-380,-717,-405,-43,175,326
-19,409,429,-195,-224,419,-390,-732,-409,-39,185,341
-19,419,439,-200,-229,429,-405,-761,-424,-29,195,361
-19,429,448,-204,-234,439,-419,-780,-429,-29,204,370
-19,439,458,-209,-239,448,-434,-800,-434,-29,214,380
-19,448,468,-214,-244,458,-448,-819,-439,-29,224,390
-9,468,478,-229,-244,473,-463,-849,-448,-24,244,405
-9,488,497,-239,-253,492,-478,-868,-458,-19,253,419
-9,507,517,-248,-263,512,-492,-888,-468,-14,263,434
-9,527,536,-258,-273,531,-507,-907,-478,-9,273,448
-9,546,556,-268,-283,551,-531,-932,-492,-4,283,458
-9,556,566,-273,-287,561,-546,-956,-497,0,292,468
-9,566,575,-278,-292,570,-561,-980,-502,4,302,478
-9,575,585,-283,-297,580,-575,-1005,-507,9,312,488
4,595,590,-300,-292,592,-585,-1029,-512,24,326,512
9,605,595,-307,-292,600,-595,-1044,-517,29,341,527
14,614,600,-314,-292,607,-605,-1058,-522,34,356,541
19,624,605,-322,-292,614,-614,-1073,-527,39,370,556
34,644,610,-339,-287,627,-639,-1102,-536,43,385,561
39,653,614,-346,-287,634,-653,-1122,-536,48,390,566
43,663,619,-353,-287,641,-668,-1141,-536,53,395,570
48,673,624,-361,-287,649,-683,-1161,-536,58,400,575
48,683,634,-366,-292,658,-692,-1176,-536,63,414,585
48,683,634,-366,-292,658,-702,-1190,-536,68,419,595
48,683,634,-366,-292,658,-712,-1205,-536,73,424,605
48,683,634,-366,-292,658,-722,-1220,-536,78,429,614
53,702,649,-378,-297,675,-732,-1234,-536,87,439,624
58,712,653,-385,-297,683,-741,-1249,-536,97,448,624
63,722,658,-392,-297,690,-751,-1263,-536,107,458,624
68,732,663,-400,-297,697,-761,-1278,-536,117,468,624
73,722,649,-397,-287,685,-766,-1293,-531,117,468,614
78,722,644,-400,-283,683,-771,-1298,-527,117,468,614
82,722,639,-402,-278,680,-775,-1302,-522,117,468,614
87,722,634,-405,-273,678,-780,-1307,-517,117,468,614
78,717,639,-397,-280,678,-790,-1307,-502,122,468,610
78,712,634,-395,-278,673,-790,-1307,-497,126,468,605
78,707,629,-392,-275,668,-790,-1307,-492,131,468,600
78,702,624,-390,-273,663,-790,-1307,-488,136,468,595
82,697,614,-390,-265,656,-785,-1298,-468,146,458,580
87,692,605,-390,-258,649,-780,-1288,-458,146,458,575
92,688,595,-390,-251,641,-775,-1278,-448,146,458,570
97,683,585,-390,-244,634,-771,-1268,-439,146,458,566
107,673,566,-390,-229,619,-761,-1249,-424,156,448,551
107,673,566,-390,-229,619,-751,-1239,-409,156,448,546
107,673,566,-390,-229,619,-741,-1229,-395,156,448,541
107,673,566,-390,-229,619,-732,-1220,-380,156,448,536
97,658,561,-378,-231,610,-722,-1200,-361,156,439,522
97,644,546,-370,-224,595,-712,-1180,-351,156,429,507
97,629,531,-363,-217,580,-702,-1161,-341,156,419,492
97,614,517,-356,-209,566,-692,-1141,-331,156,409,478
82,600,517,-341,-217,558,-678,-1112,-317,151,400,463
78,585,507,-331,-214,546,-663,-1093,-302,146,390,448
73,570,497,-322,-212,534,-649,-1073,-287,141,380,434
68,556,488,-312,-209,522,-634,-1054,-273,136,370,419
68,536,468,-302,-200,502,-614,-1015,-248,126,361,405
68,527,458,-297,-195,492,-595,-985,-234,126,351,390
68,517,448,-292,-190,483,-575,-956,-219,126,341,375
68,507,439,-287,-185,473,-556,-927,-204,126,331,361
63,492,429,-278,-183,461,-536,-888,-185,122,322,336
58,478,419,-268,-180,448,-517,-858,-175,117,312,322
53,463,409,-258,-178,436,-497,-829,-165,112,302,307
48,448,400,-248,-175,424,-478,-800,-156,107,292,292
34,429,395,-231,-180,412,-458,-766,-136,102,278,278
29,409,380,-219,-175,395,-439,-732,-126,97,263,263
24,390,366,-207,-170,378,-419,-697,-117,92,248,248
19,370,351,-195,-165,361,-400,-663,-107,87,234,234
9,356,346,-183,-168,351,-370,-629,-92,78,224,214
9,341,331,-175,-161,336,-351,-595,-78,78,214,204
9,326,317,-168,-153,322,-331,-561,-63,78,204,195
9,312,302,-161,-146,307,-312,-527,-48,78,195,185
9,292,283,-151,-136,287,-283,-492,-34,68,180,175
9,283,273,-146,-131,278,-263,-458,-19,68,175,165
9,273,263,-141,-126,268,-244,-424,-4,68,170,156
9,263,253,-136,-122,258,-224,-390,9,68,165,146
4,244,239,-124,-117,241,-200,-361,14,63,151,126
0,234,234,-117,-117,234,-185,-331,19,58,146,117
-4,224,229,-109,-117,226,-170,-302,24,53,141,107
-9,214,224,-102,-117,219,-156,-273,29,48,136,97
-9,204,214,-97,-112,209,-141,-239,43,39,131,92
-9,195,204,-92,-107,200,-126,-214,48,39,126,87
-9,185,195,-87,-102,190,-112,-190,53,39,122,82
-9,175,185,-82,-97,180,-97,-165,58,39,117,78
-24,156,180,-65,-102,168,-78,-151,68,34,107,68
-29,136,165,-53,-97,151,-68,-136,68,29,97,58
-34,117,151,-41,-92,134,-58,-122,68,24,87,48
-39,97,136,-29,-87,117,-48,-107,68,19,78,39
-34,107,141,-36,-87,124,-34,-92,68,9,68,29
-29,107,136,-39,-82,122,-29,-78,68,9,68,29
-24,107,131,-41,-78,119,-24,-63,68,9,68,29
-19,107,126,-43,-73,117,-19,-48,68,9,68,29
-4,117,122,-56,-63,119,-14,-34,78,9,58,19
0,117,117,-58,-58,117,-9,-29,78,9,58,19
4,117,112,-61,-53,114,-4,-24,78,9,58,19
9,117,107,-63,-48,112,0,-19,78,9,58,19
-4,102,107,-48,-56,104,4,-4,78,0,48,9
-9,87,97,-39,-53,92,9,0,78,0,48,9
-14,73,87,-29,-51,80,14,4,78,0,48,9
-19,58,78,-19,-48,68,19,9,78,0,48,9
-19,58,78,-19,-48,68,9,9,73,-4,43,4
-19,58,78,-19,-48,68,9,9,68,-9,39,0
-19,58,78,-19,-48,68,9,9,63,-14,34,-4
-19,58,78,-19,-48,68,9,9,58,-19,29,-9
-19,53,73,-17,-46,63,19,9,58,-19,19,-19
-19,48,68,-14,-43,58,19,9,58,-19,19,-19
-19,43,63,-12,-41,53,19,9,58,-19,19,-19
-19,39,58,-9,-39,48,19,9,58,-19,19,-19
-19,43,63,-12,-41,53,19,0,53,-29,19,-19
-19,48,68,-14,-43,58,19,0,48,-29,19,-19
-19,53,73,-17,-46,63,19,0,43,-29,19,-19
-19,58,78,-19,-48,68,19,0,39,-29,19,-19
-19,43,63,-12,-41,53,19,9,48,-19,19,-19
-19,39,58,-9,-39,48,19,9,48,-19,19,-19
-19,34,53,-7,-36,43,19,9,48,-19,19,-19
-19,29,48,-4,-34,39,19,9,48,-19,19,-19
-29,39,68,-4,-48,53,14,0,43,-24,9,-29
-29,39,68,-4,-48,53,9,0,39,-29,9,-29
-29,39,68,-4,-48,53,4,0,34,-34,9,-29
-29,39,68,-4,-48,53,0,0,29,-39,9,-29
-14,43,58,-14,-36,51,9,9,39,-29,19,-19
-9,48,58,-19,-34,53,9,9,39,-29,19,-19
-4,53,58,-24,-31,56,9,9,39,-29,19,-19
0,58,58,-29,-29,58,9,9,39,-29,19,-19
-9,48,58,-19,-34,53,9,9,39,-29,19,-29
-9,48,58,-19,-34,53,9,9,39,-29,19,-29
-9,48,58,-19,-34,53,9,9,39,-29,19,-29
-9,48,58,-19,-34,53,9,9,39,-29,19,-29
-19,48,68,-14,-43,58,0,0,29,-39,9,-29
-19,48,68,-14,-43,58,0,0,29,-39,9,-29
-19,48,68,-14,-43,58,0,0,29,-39,9,-29
-19,48,68,-14,-43,58,0,0,29,-39,9,-29
-29,39,68,-4,-48,53,4,0,39,-29,9,-29
-29,29,58,0,-43,43,9,0,39,-29,9,-29
-29,19,48,4,-39,34,14,0,39,-29,9,-29
-29,9,39,9,-34,24,19,0,39,-29,9,-29
-29,19,48,4,-39,34,14,0,29,-39,4,-34
-29,19,48,4,-39,34,9,0,29,-39,0,-39
-29,19,48,4,-39,34,4,0,29,-39,-4,-43
-29,19,48,4,-39,34,0,0,29,-39,-9,-48
-14,29,43,-7,-29,36,9,9,29,-29,0,-39
-9,39,48,-14,-29,43,9,9,29,-29,0,-39
-4,48,53,-21,-29,51,9,9,29,-29,0,-39
0,58,58,-29,-29,58,9,9,29,-29,0,-39
0,48,48,-24,-24,48,9,9,29,-39,0,-48
0,48,48,-24,-24,48,9,9,29,-39,0,-48
0,48,48,-24,-24,48,9,9,29,-39,0,-48
0,48,48,-24,-24,48,9,9,29,-39,0,-48
-4,29,34,-12,-19,31,9,9,29,-39,-9,-48
-9,19,29,-4,-19,24,9,9,29,-39,-9,-48
-14,9,24,2,-19,17,9,9,29,-39,-9,-48
-19,0,19,9,-19,9,9,9,29,-39,-9,-48
-19,9,29,4,-24,19,9,0,29,-48,-9,-58
-19,9,29,4,-24,19,9,0,29,-48,-9,-58
-19,9,29,4,-24,19,9,0,29,-48,-9,-58
-19,9,29,4,-24,19,9,0,29,-48,-9,-58
-19,19,39,0,-29,29,0,9,19,-58,-19,-58
-19,19,39,0,-29,29,0,9,19,-58,-19,-58
-19,19,39,0,-29,29,0,9,19,-58,-19,-58
-19,19,39,0,-29,29,0,9,19,-58,-19,-58
-29,4,34,12,-31,19,9,9,19,-58,-19,-58
-29,0,29,14,-29,14,9,9,19,-58,-19,-58
-29,-4,24,17,-26,9,9,9,19,-58,-19,-58
-29,-9,19,19,-24,4,9,9,19,-58,-19,-58
-24,9,34,7,-29,21,0,9,19,-48,-19,-58
-19,19,39,0,-29,29,0,9,19,-48,-19,-58
-14,29,43,-7,-29,36,0,9,19,-48,-19,-58
-9,39,48,-14,-29,43,0,9,19,-48,-19,-58
-9,34,43,-12,-26,39,9,9,19,-58,-19,-68
-9,29,39,-9,-24,34,9,9,19,-58,-19,-68
-9,24,34,-7,-21,29,9,9,19,-58,-19,-68
-9,19,29,-4,-19,24,9,9,19,-58,-19,-68
-14,14,29,0,-21,21,0,0,19,-68,-29,-78
-19,9,29,4,-24,19,0,0,19,-68,-29,-78
-24,4,29,9,-26,17,0,0,19,-68,-29,-78
-29,0,29,14,-29,14,0,0,19,-68,-29,-78
-19,0,19,9,-19,9,0,0,9,-58,-29,-68
-19,0,19,9,-19,9,0,0,9,-58,-29,-68
-19,0,19,9,-19,9,0,0,9,-58,-29,-68
-19,0,19,9,-19,9,0,0,9,-58,-29,-68
-9,9,19,0,-14,14,0,0,19,-58,-19,-68
-9,9,19,0,-14,14,0,0,19,-58,-19,-68
-9,9,19,0,-14,14,0,0,19,-58,-19,-68
-9,9,19,0,-14,14,0,0,19,-58,-19,-68
-19,9,29,4,-24,19,-9,0,9,-58,-29,-78
-19,9,29,4,-24,19,-9,0,9,-58,-29,-78
-19,9,29,4,-24,19,-9,0,9,-58,-29,-78
-19,9,29,4,-24,19,-9,0,9,-58,-29,-78
-29,4,34,12,-31,19,0,0,9,-58,-29,-78
-29,0,29,14,-29,14,0,0,9,-58,-29,-78
-29,-4,24,17,-26,9,0,0,9,-58,-29,-78
-29,-9,19,19,-24,4,0,0,9,-58,-29,-78
-19,0,19,9,-19,9,-9,0,9,-58,-29,-78
-19,0,19,9,-19,9,-9,0,9,-58,-29,-78
-19,0,19,9,-19,9,-9,0,9,-58,-29,-78
-19,0,19,9,-19,9,-9,0,9,-58,-29,-78
-9,9,19,0,-14,14,-9,0,9,-58,-29,-78
-9,9,19,0,-14,14,-9,0,9,-58,-29,-78
-9,9,19,0,-14,14,-9,0,9,-58,-29,-78
-9,9,19,0,-14,14,-9,0,9,-58,-29,-78
-9,9,19,0,-14,14,-9,0,9,-68,-29,-78
-9,9,19,0,-14,14,-9,0,9,-68,-29,-78
-9,9,19,0,-14,14,-9,0,9,-68,-29,-78
-9,9,19,0,-14,14,-9,0,9,-68,-29,-78
-19,-4,14,12,-17,4,-9,-9,0,-68,-29,-87
-19,-9,9,14,-14,0,-9,-9,0,-68,-29,-87
-19,-14,4,17,-12,-4,-9,-9,0,-68,-29,-87
-19,-19,0,19,-9,-9,-9,-9,0,-68,-29,-87
-19,-4,14,12,-17,4,-9,-9,0,-68,-29,-87
-19,0,19,9,-19,9,-9,-9,0,-68,-29,-87
-19,4,24,7,-21,14,-9,-9,0,-68,-29,-87
-19,9,29,4,-24,19,-9,-9,0,-68,-29,-87
-14,9,24,2,-19,17,-9,0,9,-58,-19,-87
-9,9,19,0,-14,14,-9,0,9,-58,-19,-87
-4,9,14,-2,-9,12,-9,0,9,-58,-19,-87
0,9,9,-4,-4,9,-9,0,9,-58,-19,-87
-4,4,9,0,-7,7,-9,0,9,-58,-29,-87
-9,0,9,4,-9,4,-9,0,9,-58,-29,-87
-14,-4,9,9,-12,2,-9,0,9,-58,-29,-87
-19,-9,9,14,-14,0,-9,0,9,-58,-29,-87
-19,0,19,9,-19,9,-19,-9,0,-68,-29,-87
-19,0,19,9,-19,9,-19,-9,0,-68,-29,-87
-19,0,19,9,-19,9,-19,-9,0,-68,-29,-87
-19,0,19,9,-19,9,-19,-9,0,-68,-29,-87
-19,0,19,9,-19,9,-19,-9,0,-68,-29,-97
-19,0,19,9,-19,9,-19,-9,0,-68,-29,-97
-19,0,19,9,-19,9,-19,-9,0,-68,-29,-97
-19,0,19,9,-19,9,-19,-9,0,-68,-29,-97
-19,-9,9,14,-14,0,-9,-9,0,-58,-29,-87
-19,-9,9,14,-14,0,-9,-9,0,-58,-29,-87
-19,-9,9,14,-14,0,-9,-9,0,-58,-29,-87
-19,-9,9,14,-14,0,-9,-9,0,-58,-29,-87
-9,0,9,4,-9,4,-19,-9,0,-68,-29,-87
-9,0,9,4,-9,4,-19,-9,0,-68,-29,-87
-9,0,9,4,-9,4,-19,-9,0,-68,-29,-87
-9,0,9,4,-9,4,-19,-9,0,-68,-29,-87
-19,-9,9,14,-14,0,-19,-9,0,-58,-29,-87
-19,-9,9,14,-14,0,-19,-9,0,-58,-29,-87
-19,-9,9,14,-14,0,-19,-9,0,-58,-29,-87
-19,-9,9,14,-14,0,-19,-9,0,-58,-29,-87
-29,-14,14,21,-21,0,-19,-9,0,-58,-29,-87
-29,-19,9,24,-19,-4,-19,-9,0,-58,-29,-87
-29,-24,4,26,-17,-9,-19,-9,0,-58,-29,-87
-29,-29,0,29,-14,-14,-19,-9,0,-58,-29,-87
-19,-24,-4,21,-7,-14,-19,-9,0,-68,-29,-97
-19,-19,0,19,-9,-9,-19,-9,0,-68,-29,-97
-19,-14,4,17,-12,-4,-19,-9,0,-68,-29,-97
-19,-9,9,14,-14,0,-19,-9,0,-68,-29,-97
-14,-4,9,9,-12,2,-29,-9,0,-68,-29,-97
-9,0,9,4,-9,4,-29,-9,0,-68,-29,-97
-4,4,9,0,-7,7,-29,-9,0,-68,-29,-97
0,9,9,-4,-4,9,-29,-9,0,-68,-29,-97
-9,0,9,4,-9,4,-19,-9,0,-58,-19,-87
-9,0,9,4,-9,4,-19,-9,0,-58,-19,-87
-9,0,9,4,-9,4,-19,-9,0,-58,-19,-87
-9,0,9,4,-9,4,-19,-9,0,-58,-19,-87
-19,-9,9,14,-14,0,-19,-9,0,-58,-29,-87
-19,-9,9,14,-14,0,-19,-9,0,-58,-29,-87
-19,-9,9,14,-14,0,-19,-9,0,-58,-29,-87
-19,-9,9,14,-14,0,-19,-9,0,-58,-29,-87
-29,-19,9,24,-19,-4,-29,-9,0,-68,-19,-97
-29,-19,9,24,-19,-4,-29,-9,0,-68,-19,-97
-29,-19,9,24,-19,-4,-29,-9,0,-68,-19,-97
-29,-19,9,24,-19,-4,-29,-9,0,-68,-19,-97
-14,-4,9,9,-12,2,-19,-9,0,-58,-29,-87
-9,0,9,4,-9,4,-19,-9,0,-58,-29,-87
-4,4,9,0,-7,7,-19,-9,0,-58,-29,-87
0,9,9,-4,-4,9,-19,-9,0,-58,-29,-87
-9,4,14,2,-12,9,-19,0,9,-48,-24,-87
-9,0,9,4,-9,4,-19,0,9,-48,-19,-87
-9,-4,4,7,-7,0,-19,0,9,-48,-14,-87
-9,-9,0,9,-4,-4,-19,0,9,-48,-9,-87
-19,0,19,9,-19,9,-19,-9,0,-58,-19,-87
-19,0,19,9,-19,9,-19,-9,0,-58,-19,-87
-19,0,19,9,-19,9,-19,-9,0,-58,-19,-87
-19,0,19,9,-19,9,-19,-9,0,-58,-19,-87
-19,0,19,9,-19,9,-29,-9,0,-58,-19,-97
-19,0,19,9,-19,9,-29,-9,0,-58,-19,-97
-19,0,19,9,-19,9,-29,-9,0,-58,-19,-97
-19,0,19,9,-19,9,-29,-9,0,-58,-19,-97
-19,-14,4,17,-12,-4,-19,0,9,-48,-9,-87
-19,-19,0,19,-9,-9,-19,0,9,-48,-9,-87
-19,-24,-4,21,-7,-14,-19,0,9,-48,-9,-87
-19,-29,-9,24,-4,-19,-19,0,9,-48,-9,-87
-19,-29,-9,24,-4,-19,-19,-9,0,-48,-19,-87
-19,-29,-9,24,-4,-19,-19,-9,0,-48,-19,-87
-19,-29,-9,24,-4,-19,-19,-9,0,-48,-19,-87
-19,-29,-9,24,-4,-19,-19,-9,0,-48,-19,-87
-14,-19,-4,17,-4,-12,-29,-9,0,-58,-19,-87
-9,-9,0,9,-4,-4,-29,-9,0,-58,-19,-87
-4,0,4,2,-4,2,-29,-9,0,-58,-19,-87
0,9,9,-4,-4,9,-29,-9,0,-58,-19,-87
-9,-4,4,7,-7,0,-29,-9,0,-58,-19,-87
-9,-9,0,9,-4,-4,-29,-9,0,-58,-19,-87
-9,-14,-4,12,-2,-9,-29,-9,0,-58,-19,-87
-9,-19,-9,14,0,-14,-29,-9,0,-58,-19,-87
-9,-19,-9,14,0,-14,-29,-9,9,-58,-19,-87
-9,-19,-9,14,0,-14,-29,-9,9,-58,-19,-87
-9,-19,-9,14,0,-14,-29,-9,9,-58,-19,-87
-9,-19,-9,14,0,-14,-29,-9,9,-58,-19,-87
-19,-19,0,19,-9,-9,-19,0,9,-48,-9,-87
-19,-19,0,19,-9,-9,-19,0,9,-48,-9,-87
-19,-19,0,19,-9,-9,-19,0,9,-48,-9,-87
-19,-19,0,19,-9,-9,-19,0,9,-48,-9,-87
-9,-14,-4,12,-2,-9,-29,-9,9,-58,-19,-87
-9,-9,0,9,-4,-4,-29,-9,9,-58,-19,-87
-9,-4,4,7,-7,0,-29,-9,9,-58,-19,-87
-9,0,9,4,-9,4,-29,-9,9,-58,-19,-87
0,-9,-9,4,4,-9,-19,0,9,-48,-9,-78
0,-9,-9,4,4,-9,-19,0,9,-48,-9,-78
0,-9,-9,4,4,-9,-19,0,9,-48,-9,-78
0,-9,-9,4,4,-9,-19,0,9,-48,-9,-78
-4,-14,-9,9,2,-12,-19,0,9,-48,-19,-87
-9,-19,-9,14,0,-14,-19,0,9,-48,-19,-87
-14,-24,-9,19,-2,-17,-19,0,9,-48,-19,-87
-19,-29,-9,24,-4,-19,-19,0,9,-48,-19,-87
-19,-19,0,19,-9,-9,-29,-9,0,-58,-19,-87
-19,-19,0,19,-9,-9,-29,-9,0,-58,-19,-87
-19,-19,0,19,-9,-9,-29,-9,0,-58,-19,-87
-19,-19,0,19,-9,-9,-29,-9,0,-58,-19,-87
-14,-9,4,12,-9,-2,-19,0,9,-48,-9,-78
-9,-9,0,9,-4,-4,-19,0,9,-48,-9,-78
-4,-9,-4,7,0,-7,-19,0,9,-48,-9,-78
0,-9,-9,4,4,-9,-19,0,9,-48,-9,-78
-9,-19,-9,14,0,-14,-29,0,9,-58,-9,-87
-9,-19,-9,14,0,-14,-29,0,9,-58,-9,-87
-9,-19,-9,14,0,-14,-29,0,9,-58,-9,-87
-9,-19,-9,14,0,-14,-29,0,9,-58,-9,-87
-19,-29,-9,24,-4,-19,-19,-9,9,-48,-19,-87
-19,-29,-9,24,-4,-19,-19,-9,9,-48,-19,-87
-19,-29,-9,24,-4,-19,-19,-9,9,-48,-19,-87
-19,-29,-9,24,-4,-19,-19,-9,9,-48,-19,-87
-14,-19,-4,17,-4,-12,-19,0,9,-48,-14,-78
-9,-19,-9,14,0,-14,-19,0,9,-48,-9,-78
-4,-19,-14,12,4,-17,-19,0,9,-48,-4,-78
0,-19,-19,9,9,-19,-19,0,9,-48,0,-78
-9,-19,-9,14,0,-14,-19,0,9,-39,0,-87
-9,-19,-9,14,0,-14,-19,0,9,-39,0,-87
-9,-19,-9,14,0,-14,-19,0,9,-39,0,-87
-9,-19,-9,14,0,-14,-19,0,9,-39,0,-87
-19,-19,0,19,-9,-9,-29,-9,9,-48,-9,-87
-19,-19,0,19,-9,-9,-29,-9,9,-48,-9,-87
-19,-19,0,19,-9,-9,-29,-9,9,-48,-9,-87
-19,-19,0,19,-9,-9,-29,-9,9,-48,-9,-87
-19,-19,0,19,-9,-9,-29,0,9,-48,-9,-78
-19,-19,0,19,-9,-9,-29,0,9,-48,-9,-78
-19,-19,0,19,-9,-9,-29,0,9,-48,-9,-78
-19,-19,0,19,-9,-9,-29,0,9,-48,-9,-78
-9,-29,-19,19,4,-24,-29,0,19,-39,0,-68
-9,-29,-19,19,4,-24,-29,0,19,-39,0,-68
-9,-29,-19,19,4,-24,-29,0,19,-39,0,-68
-9,-29,-19,19,4,-24,-29,0,19,-39,0,-68
-9,-29,-19,19,4,-24,-19,-9,9,-48,-9,-78
-9,-29,-19,19,4,-24,-19,-9,9,-48,-9,-78
-9,-29,-19,19,4,-24,-19,-9,9,-48,-9,-78
-9,-29,-19,19,4,-24,-19,-9,9,-48,-9,-78
-14,-19,-4,17,-4,-12,-29,-9,9,-58,-9,-78
-19,-19,0,19,-9,-9,-29,-9,9,-58,-9,-78
-24,-19,4,21,-14,-7,-29,-9,9,-58,-9,-78
-29,-19,9,24,-19,-4,-29,-9,9,-58,-9,-78
-24,-19,4,21,-14,-7,-19,-9,19,-48,0,-68
-19,-19,0,19,-9,-9,-19,-9,19,-48,0,-68
-14,-19,-4,17,-4,-12,-19,-9,19,-48,0,-68
-9,-19,-9,14,0,-14,-19,-9,19,-48,0,-68
-9,-19,-9,14,0,-14,-19,0,19,-39,9,-68
-9,-19,-9,14,0,-14,-19,0,19,-39,9,-68
-9,-19,-9,14,0,-14,-19,0,19,-39,9,-68
-9,-19,-9,14,0,-14,-19,0,19,-39,9,-68
-9,-14,-4,12,-2,-9,-29,-9,19,-48,0,-78
-9,-9,0,9,-4,-4,-29,-9,19,-48,0,-78
-9,-4,4,7,-7,0,-29,-9,19,-48,0,-78
-9,0,9,4,-9,4,-29,-9,19,-48,0,-78
0,9,9,-4,-4,9,-19,-4,29,-39,0,-78
0,9,9,-4,-4,9,-19,0,29,-39,0,-78
0,9,9,-4,-4,9,-19,4,29,-39,0,-78
4,9,4,-7,0,7,-24,9,34,-34,9,-73
4,19,14,-12,-4,17,-24,9,39,-19,9,-63
0,24,24,-12,-12,24,-24,9,39,-19,9,-63
0,29,29,-14,-14,29,-24,4,34,-24,9,-58
0,29,29,-14,-14,29,-24,4,34,-24,14,-58
0,24,24,-12,-12,24,-34,0,39,-14,19,-58
0,24,24,-12,-12,24,-29,0,39,-14,19,-58
0,24,24,-12,-12,24,-29,0,34,-19,24,-58
0,24,24,-12,-12,24,-29,0,34,-19,24,-58
14,34,19,-24,-2,26,-39,0,34,-19,24,-63
19,34,14,-26,2,24,-39,0,34,-19,24,-63
19,43,24,-31,-2,34,-48,0,34,-19,24,-63
24,34,9,-29,7,21,-53,-4,34,-24,29,-63
9,29,19,-19,-4,24,-48,0,34,-24,29,-63
4,29,24,-17,-9,26,-43,0,34,-24,24,-63
0,24,24,-12,-12,24,-48,-4,34,-24,24,-63
-4,14,19,-4,-12,17,-48,-9,34,-24,24,-58
-4,24,29,-9,-17,26,-63,-14,34,-24,14,-58
-4,24,29,-9,-17,26,-68,-14,29,-24,14,-58
0,34,34,-17,-17,34,-73,-24,19,-24,19,-58
0,43,43,-21,-21,43,-73,-29,19,-29,19,-58
9,39,29,-24,-9,34,-78,-34,14,-29,19,-68
14,34,19,-24,-2,26,-78,-34,14,-29,19,-68
14,24,9,-19,2,17,-87,-39,9,-29,19,-68
19,14,-4,-17,12,4,-87,-39,9,-29,19,-68
9,19,9,-14,0,14,-87,-48,9,-39,19,-63
14,9,-4,-12,9,2,-92,-53,9,-39,19,-58
19,4,-14,-12,17,-4,-92,-53,0,-39,19,-58
24,4,-19,-14,21,-7,-97,-58,-4,-39,19,-58
39,4,-34,-21,36,-14,-107,-58,-14,-39,19,-73
43,9,-34,-26,39,-12,-107,-58,-14,-43,19,-73
48,9,-39,-29,43,-14,-107,-58,-9,-43,19,-68
48,4,-43,-26,46,-19,-102,-53,-9,-39,19,-68
53,14,-39,-34,46,-12,-107,-53,-9,-39,24,-58
53,24,-29,-39,41,-2,-102,-53,-9,-39,24,-58
58,29,-29,-43,43,0,-97,-53,-4,-39,29,-58
63,29,-34,-46,48,-2,-97,-43,-4,-34,34,-53
58,24,-34,-41,46,-4,-87,-43,4,-24,29,-53
48,24,-24,-36,36,0,-82,-39,9,-24,34,-53
43,24,-19,-34,31,2,-73,-39,9,-14,34,-43
39,19,-19,-29,29,0,-68,-34,19,-9,43,-43
39,34,-4,-36,21,14,-73,-29,29,-9,43,-34
34,34,0,-34,17,17,-68,-29,29,-14,34,-39
34,34,0,-34,17,17,-63,-29,24,-14,29,-39
24,29,4,-26,9,17,-63,-29,24,-24,29,-43
9,29,19,-19,-4,24,-58,-29,14,-24,24,-39
4,29,24,-17,-9,26,-53,-29,14,-24,24,-48
4,24,19,-14,-7,21,-53,-29,14,-24,24,-53
-4,14,19,-4,-12,17,-53,-29,4,-34,24,-53
-14,4,19,4,-17,12,-48,-29,4,-34,24,-68
-14,0,14,7,-14,7,-39,-29,0,-39,9,-73
-19,-9,9,14,-14,0,-39,-29,0,-43,9,-78
-24,-19,4,21,-14,-7,-39,-29,-9,-48,4,-82
-14,-24,-9,19,-2,-17,-29,-19,-4,-63,-9,-87
-19,-39,-19,29,0,-29,-29,-19,-4,-63,-9,-92
-19,-43,-24,31,2,-34,-34,-19,-9,-68,-9,-97
-24,-39,-14,31,-4,-26,-34,-29,-9,-68,-14,-102
-34,-48,-14,41,-9,-31,-39,-39,-14,-73,-24,-112
-34,-48,-14,41,-9,-31,-39,-39,-14,-78,-29,-112
-24,-48,-24,36,0,-36,-39,-34,-14,-82,-34,-112
-24,-43,-19,34,-2,-31,-39,-34,-14,-87,-39,-117
-24,-53,-29,39,2,-41,-39,-24,-19,-87,-29,-107
-24,-68,-43,46,9,-56,-34,-24,-14,-82,-29,-102
-24,-68,-43,46,9,-56,-34,-24,-14,-73,-24,-97
-24,-68,-43,46,9,-56,-29,-24,-14,-68,-19,-97
-24,-53,-29,39,2,-41,-39,-29,-14,-73,-29,-97
-24,-53,-29,39,2,-41,-43,-29,-14,-73,-29,-102
-29,-53,-24,41,-2,-39,-43,-29,-19,-73,-29,-112
-29,-48,-19,39,-4,-34,-43,-29,-19,-73,-29,-117
-39,-58,-19,48,-9,-39,-43,-19,-19,-73,-19,-107
-39,-58,-19,48,-9,-39,-43,-19,-19,-73,-24,-112
-39,-58,-19,48,-9,-39,-43,-19,-19,-73,-29,-112
-39,-58,-19,48,-9,-39,-43,-19,-14,-78,-29,-107
-39,-68,-29,53,-4,-48,-39,-24,-24,-78,-34,-107
-39,-58,-19,48,-9,-39,-39,-29,-24,-78,-34,-107
-39,-53,-14,46,-12,-34,-39,-29,-19,-78,-24,-107
-43,-53,-9,48,-17,-31,-39,-24,-19,-68,-24,-112
-39,-48,-9,43,-14,-29,-29,-14,-14,-68,-19,-107
-29,-48,-19,39,-4,-34,-19,0,0,-58,-19,-97
-19,-58,-39,39,9,-48,9,29,14,-53,-14,-97
-19,-53,-34,36,7,-43,29,48,34,-43,-14,-102
-39,-53,-14,46,-12,-34,53,73,43,-48,-24,-117
-58,-53,4,56,-31,-24,58,87,58,-43,-29,-136
-68,-34,34,51,-51,0,63,102,58,-34,-34,-136
-68,-9,58,39,-63,24,63,107,73,-34,-29,-136
-82,-34,48,58,-65,7,73,126,97,-24,-29,-141
-92,-48,43,70,-68,-2,87,156,122,-14,-14,-136
-73,-24,48,48,-61,12,78,190,151,14,-4,-131
-19,19,39,0,-29,29,68,253,234,53,19,-107
29,34,4,-31,12,19,68,341,346,136,92,-48
82,63,-19,-73,51,21,48,380,434,234,190,24
151,112,-39,-131,95,36,-9,341,453,312,283,117
214,175,-39,-195,126,68,-82,268,429,385,375,219
283,283,0,-283,141,141,-165,175,400,463,488,326
361,370,9,-366,175,190,-253,82,370,541,605,444
458,409,-48,-434,253,180,-331,9,390,653,741,575
551,444,-107,-497,329,168,-375,-9,439,771,873,702
585,473,-112,-529,348,180,-380,-39,448,829,961,780
556,478,-78,-517,317,200,-385,-146,375,824,971,800
468,488,19,-478,224,253,-395,-297,283,780,941,795
395,522,126,-458,134,324,-405,-453,190,751,936,814
341,561,219,-451,61,390,-395,-570,107,736,946,844
331,580,248,-456,41,414,-405,-649,39,712,941,854
317,556,239,-436,39,397,-424,-702,-39,663,912,844
283,497,214,-390,34,356,-405,-712,-126,546,829,795
239,400,161,-319,39,280,-366,-712,-263,380,697,717
200,297,97,-248,51,197,-331,-756,-429,180,546,619
165,185,19,-175,73,102,-302,-819,-605,-34,361,488
107,78,-29,-92,68,24,-278,-878,-756,-219,175,351
48,43,-4,-46,26,19,-278,-941,-863,-370,34,258
29,34,4,-31,12,19,-283,-946,-922,-448,-48,175
14,9,-4,-12,9,2,-283,-922,-927,-478,-102,112
-9,4,14,2,-12,9,-297,-897,-893,-492,-141,58
-29,4,34,12,-31,19,-326,-893,-858,-502,-161,24
-39,14,53,12,-46,34,-346,-863,-814,-497,-180,4
-29,29,58,0,-43,43,-366,-805,-722,-468,-170,-4
-9,39,48,-14,-29,43,-395,-732,-619,-409,-151,-14
4,14,9,-9,-2,12,-375,-629,-527,-380,-161,-29
4,-24,-29,9,17,-26,-331,-531,-483,-366,-185,-78
9,-53,-63,21,36,-58,-312,-458,-453,-366,-204,-122
14,-63,-78,24,46,-70,-312,-439,-448,-375,-219,-141
39,-82,-122,21,80,-102,-292,-405,-429,-366,-219,-131
53,-92,-146,19,100,-119,-273,-361,-385,-346,-200,-131
63,-78,-141,7,102,-109,-244,-317,-336,-336,-190,-126
73,-73,-146,0,109,-109,-209,-273,-283,-307,-170,-117
63,-78,-141,7,102,-109,-170,-214,-229,-273,-151,-102
53,-87,-141,17,97,-114,-141,-170,-200,-244,-136,-107
48,-73,-122,12,85,-97,-141,-156,-200,-229,-136,-117
39,-53,-92,7,65,-73,-146,-151,-204,-224,-136,-126
29,-63,-92,17,61,-78,-136,-136,-185,-209,-131,-122
24,-82,-107,29,65,-95,-112,-112,-156,-190,-117,-117
14,-87,-102,36,58,-95,-92,-82,-126,-180,-117,-126
14,-68,-82,26,48,-75,-87,-68,-112,-185,-117,-126
14,-68,-82,26,48,-75,-78,-53,-97,-170,-126,-141
0,-87,-87,43,43,-87,-68,-43,-87,-161,-122,-146
-4,-97,-92,51,43,-95,-63,-29,-82,-156,-112,-156
-9,-92,-82,51,36,-87,-63,-24,-78,-146,-117,-165
-4,-73,-68,39,31,-70,-63,-24,-78,-151,-117,-165
-19,-73,-53,46,17,-63,-53,-9,-73,-141,-122,-165
-34,-92,-58,63,12,-75,-43,0,-53,-131,-112,-161
-48,-92,-43,70,-2,-68,-43,14,-34,-122,-107,-156
-48,-92,-43,70,-2,-68,-39,19,-24,-117,-102,-151
-53,-97,-43,75,-4,-70,-34,24,-14,-107,-97,-146
-53,-87,-34,70,-9,-61,-34,29,-14,-107,-92,-141
-43,-97,-53,70,4,-75,-24,29,-4,-102,-87,-131
-43,-87,-43,65,0,-65,-29,29,-4,-97,-78,-131
-43,-87,-43,65,0,-65,-29,29,-4,-87,-73,-131
-43,-87,-43,65,0,-65,-29,29,0,-78,-63,-126
-43,-78,-34,61,-4,-56,-39,29,-9,-78,-53,-117
-43,-73,-29,58,-7,-51,-29,34,-9,-73,-53,-112
-39,-68,-29,53,-4,-48,-29,34,0,-73,-53,-107
-39,-53,-14,46,-12,-34,-29,39,0,-73,-53,-102
-43,-63,-19,53,-12,-41,-24,48,9,-78,-68,-112
-43,-68,-24,56,-9,-46,-24,48,14,-78,-68,-117
-43,-68,-24,56,-9,-46,-24,48,14,-78,-73,-126
-39,-58,-19,48,-9,-39,-24,48,9,-78,-73,-131
-39,-48,-9,43,-14,-29,-24,39,0,-78,-73,-131
-34,-39,-4,36,-14,-21,-24,39,0,-82,-78,-131
-34,-39,-4,36,-14,-21,-24,39,0,-92,-82,-131
-39,-39,0,39,-19,-19,-24,39,0,-97,-87,-131
-39,-48,-9,43,-14,-29,-24,43,4,-92,-82,-122
-39,-48,-9,43,-14,-29,-19,48,14,-87,-87,-122
-39,-53,-14,46,-12,-34,-19,48,19,-82,-82,-122
-43,-58,-14,51,-14,-36,-19,48,24,-78,-73,-122
-43,-63,-19,53,-12,-41,-19,48,14,-87,-82,-131
-43,-63,-19,53,-12,-41,-19,48,19,-87,-82,-131
-39,-63,-24,51,-7,-43,-14,48,19,-82,-82,-131
-39,-63,-24,51,-7,-43,-14,48,19,-78,-82,-131
-43,-78,-34,61,-4,-56,-9,58,19,-78,-92,-141
-58,-82,-24,70,-17,-53,-9,68,19,-78,-87,-136
-63,-87,-24,75,-19,-56,-4,68,19,-78,-87,-136
-68,-92,-24,80,-21,-58,-4,68,24,-78,-87,-136
-68,-97,-29,82,-19,-63,-9,63,14,-82,-82,-141
-68,-97,-29,82,-19,-63,-14,63,14,-82,-82,-141
-68,-97,-29,82,-19,-63,-19,63,14,-82,-82,-141
-68,-97,-29,82,-19,-63,-24,68,9,-82,-82,-141
-58,-82,-24,70,-17,-53,-24,73,19,-73,-73,-131
-48,-63,-14,56,-17,-39,-19,73,19,-73,-73,-131
-34,-48,-14,41,-9,-31,-19,78,19,-73,-73,-131
-24,-34,-9,29,-7,-21,-19,78,29,-73,-73,-131
-39,-43,-4,41,-17,-24,-14,97,39,-58,-63,-126
-39,-43,-4,41,-17,-24,-9,97,43,-58,-63,-122
-39,-43,-4,41,-17,-24,0,97,43,-58,-63,-117
-34,-43,-9,39,-12,-26,4,97,43,-58,-68,-112
-39,-53,-14,46,-12,-34,-4,97,34,-68,-78,-122
-48,-63,-14,56,-17,-39,-4,102,48,-63,-73,-122
-53,-68,-14,61,-19,-41,-4,102,39,-63,-73,-122
-53,-73,-19,63,-17,-46,-4,107,39,-58,-73,-122
-43,-68,-24,56,-9,-46,-4,107,34,-68,-78,-131
-48,-68,-19,58,-14,-43,-4,107,34,-68,-78,-131
-48,-63,-14,56,-17,-39,-4,107,34,-73,-78,-131
-48,-58,-9,53,-19,-34,-9,112,39,-73,-78,-131
-58,-63,-4,61,-26,-34,-9,117,58,-68,-78,-141
-58,-63,-4,61,-26,-34,0,117,58,-68,-78,-141
-58,-58,0,58,-29,-29,4,117,58,-68,-82,-141
-58,-58,0,58,-29,-29,4,117,58,-68,-82,-141
-53,-48,4,51,-29,-21,4,136,63,-58,-78,-141
-48,-48,0,48,-24,-24,4,141,68,-58,-78,-141
-43,-53,-9,48,-17,-31,0,146,68,-63,-82,-141
-39,-53,-14,46,-12,-34,0,146,68,-63,-82,-141
-48,-53,-4,51,-21,-29,0,136,63,-53,-73,-126
-48,-48,0,48,-24,-24,0,146,68,-53,-68,-126
-53,-48,4,51,-29,-21,4,151,68,-53,-63,-126
-53,-48,4,51,-29,-21,4,156,73,-43,-58,-126
-48,-43,4,46,-26,-19,4,161,78,-53,-73,-136
-48,-39,9,43,-29,-14,4,165,78,-53,-78,-136
-48,-39,9,43,-29,-14,4,165,87,-53,-82,-136
-48,-39,9,43,-29,-14,14,170,92,-48,-82,-136
-58,-48,9,53,-34,-19,14,190,92,-39,-78,-136
-58,-43,14,51,-36,-14,19,195,97,-39,-73,-136
-63,-34,29,48,-46,-2,19,200,102,-39,-73,-141
-63,-43,19,53,-41,-12,19,209,107,-29,-68,-141
-68,-43,24,56,-46,-9,24,214,122,-14,-53,-126
-68,-43,24,56,-46,-9,29,224,126,-9,-53,-126
-63,-29,34,46,-48,2,29,224,131,-9,-53,-126
-58,-29,29,43,-43,0,29,229,136,-4,-48,-122
-53,-29,24,41,-39,-2,39,244,141,0,-39,-117
-48,-24,24,36,-36,0,39,248,146,0,-39,-112
-43,-24,19,34,-31,-2,39,253,151,0,-39,-112
-43,-24,19,34,-31,-2,43,253,156,0,-39,-117
-53,-14,39,34,-46,12,48,248,156,9,-39,-126
-63,-14,48,39,-56,17,48,253,151,9,-39,-126
-63,-9,53,36,-58,21,48,258,151,9,-48,-131
-58,-9,48,34,-53,19,48,263,151,9,-48,-131
-68,-19,48,43,-58,14,48,278,161,0,-63,-141
-68,-19,48,43,-58,14,48,278,165,-4,-63,-141
-73,-19,53,46,-63,17,48,278,165,-9,-68,-141
-73,-14,58,43,-65,21,48,278,161,-4,-68,-141
-73,-29,43,51,-58,7,58,283,161,-4,-73,-151
-78,-24,53,51,-65,14,63,283,170,-4,-73,-151
-82,-29,53,56,-68,12,63,283,170,-4,-73,-151
-87,-34,53,61,-70,9,68,283,175,-9,-73,-151
-73,-24,48,48,-61,12,68,283,185,-4,-63,-131
-68,-24,43,46,-56,9,63,283,180,0,-58,-131
-63,-19,43,41,-53,12,63,287,180,4,-53,-131
-58,-4,53,31,-56,24,63,287,185,14,-48,-126
-48,4,53,21,-51,29,63,292,185,24,-39,-112
-43,4,48,19,-46,26,58,287,185,29,-29,-107
-39,4,43,17,-41,24,58,283,190,43,-14,-102
-34,14,48,9,-41,31,58,283,195,48,-9,-102
-34,29,63,2,-48,46,48,268,195,39,-19,-92
-39,34,73,2,-56,53,48,268,195,39,-9,-87
-43,29,73,7,-58,51,48,263,195,39,-9,-87
-48,34,82,7,-65,58,43,258,190,39,-4,-82
-39,43,82,-2,-61,63,39,253,195,39,-4,-92
-34,43,78,-4,-56,61,39,248,190,39,-9,-82
-24,48,73,-12,-48,61,24,239,190,39,-9,-82
-14,48,63,-17,-39,56,19,224,175,39,0,-78
-19,43,63,-12,-41,53,24,219,185,48,9,-63
-14,39,53,-12,-34,46,19,209,185,48,9,-63
-14,34,48,-9,-31,41,14,195,185,53,14,-58
-9,29,39,-9,-24,34,9,195,180,53,24,-53
-4,39,43,-17,-24,41,-4,175,170,53,24,-53
0,34,34,-17,-17,34,-9,165,156,53,14,-58
0,29,29,-14,-14,29,-19,151,136,43,14,-58
0,19,19,-9,-9,19,-24,136,126,43,19,-48
19,4,-14,-12,17,-4,-19,136,122,53,29,-39
19,4,-14,-12,17,-4,-24,126,117,48,34,-29
19,4,-14,-12,17,-4,-29,117,112,48,34,-29
19,4,-14,-12,17,-4,-34,102,102,48,39,-29
34,0,-34,-17,34,-17,-39,92,107,39,29,-19
34,-4,-39,-14,36,-21,-39,87,102,34,29,-19
29,-4,-34,-12,31,-19,-43,82,92,29,24,-24
29,-4,-34,-12,31,-19,-43,73,87,24,19,-29
19,14,-4,-17,12,4,-58,58,78,9,-4,-43
19,19,0,-19,9,9,-63,48,68,4,-9,-48
24,19,-4,-21,14,7,-68,48,63,-4,-9,-53
24,19,-4,-21,14,7,-73,39,53,-9,-9,-58
9,9,0,-9,4,4,-73,29,43,-4,-14,-58
4,4,0,-4,2,2,-73,19,39,-9,-14,-68
4,4,0,-4,2,2,-78,9,34,-14,-14,-68
4,4,0,-4,2,2,-82,0,29,-14,-19,-73
14,14,0,-14,7,7,-73,9,39,-9,-4,-58
14,9,-4,-12,9,2,-73,9,39,-4,4,-53
14,9,-4,-12,9,2,-73,9,34,-9,9,-43
14,14,0,-14,7,7,-73,4,29,-4,9,-39
14,4,-9,-9,12,-2,-73,-4,19,0,9,-39
14,4,-9,-9,12,-2,-68,-9,19,0,9,-39
14,4,-9,-9,12,-2,-68,-9,19,0,9,-39
19,0,-19,-9,19,-9,-68,-9,19,4,14,-39
19,-9,-29,-4,24,-19,-78,-9,29,0,4,-39
19,-14,-34,-2,26,-24,-78,-4,29,-14,0,-39
19,-14,-34,-2,26,-24,-73,-4,29,-19,0,-39
19,-14,-34,-2,26,-24,-68,-4,29,-24,0,-34
14,-19,-34,2,24,-26,-68,-9,29,-24,-4,-34
14,-19,-34,2,24,-26,-73,-9,24,-24,-4,-39
14,-19,-34,2,24,-26,-78,-9,19,-24,-4,-43
19,-14,-34,-2,26,-24,-82,-14,14,-29,-4,-48
19,0,-19,-9,19,-9,-92,-24,4,-19,-4,-48
19,4,-14,-12,17,-4,-82,-19,4,-19,-4,-48
14,4,-9,-9,12,-2,-82,-19,4,-19,-4,-48
9,9,0,-9,4,4,-82,-19,4,-19,-4,-53
9,4,-4,-7,7,0,-73,-14,9,-14,0,-43
9,0,-9,-4,9,-4,-73,-9,14,-9,0,-43
9,0,-9,-4,9,-4,-73,-9,19,-4,0,-43
9,0,-9,-4,9,-4,-73,-4,24,4,0,-43
9,-19,-29,4,19,-24,-73,0,24,-9,-9,-48
14,-19,-34,2,24,-26,-73,0,29,-14,-9,-53
14,-19,-34,2,24,-26,-73,4,29,-19,-14,-58
14,-24,-39,4,26,-31,-73,4,29,-24,-19,-63
4,-14,-19,4,12,-17,-63,4,19,-9,-14,-58
4,-9,-14,2,9,-12,-58,9,24,-9,-9,-53
4,-9,-14,2,9,-12,-58,14,24,-9,-4,-48
4,-4,-9,0,7,-7,-58,14,24,-9,-9,-43
0,-9,-9,4,4,-9,-63,24,24,-4,-4,-34
0,-14,-14,7,7,-14,-63,24,29,-4,-4,-39
0,-9,-9,4,4,-9,-58,19,39,0,0,-39
0,-14,-14,7,7,-14,-58,19,43,4,9,-39
9,-14,-24,2,17,-19,-58,19,43,4,-4,-48
9,-14,-24,2,17,-19,-53,29,43,0,-9,-48
9,-14,-24,2,17,-19,-53,29,43,-4,-9,-43
0,-19,-19,9,9,-19,-53,29,43,-9,-14,-43
0,-14,-14,7,7,-14,-63,19,34,0,-14,-43
0,-14,-14,7,7,-14,-63,19,39,0,-14,-48
0,-9,-9,4,4,-9,-63,24,39,0,-14,-48
9,0,-9,-4,9,-4,-63,24,39,0,-14,-48
9,9,0,-9,4,4,-63,24,39,-4,-14,-58
9,9,0,-9,4,4,-63,29,43,-4,-14,-53
9,9,0,-9,4,4,-58,29,43,-4,-14,-53
9,9,0,-9,4,4,-58,29,39,-4,-14,-53
9,0,-9,-4,9,-4,-58,39,48,4,0,-48
14,0,-14,-7,14,-7,-58,39,58,14,9,-34
14,0,-14,-7,14,-7,-58,39,58,14,9,-29
9,-9,-19,0,14,-14,-58,39,58,14,4,-24
0,-24,-24,12,12,-24,-43,48,58,14,4,-34
0,-24,-24,12,12,-24,-43,48,58,9,0,-34
0,-14,-14,7,7,-14,-48,48,58,9,0,-34
-4,-14,-9,9,2,-12,-48,48,58,9,0,-34
4,-4,-9,0,7,-7,-48,48,58,0,-9,-43
9,4,-4,-7,7,0,-48,48,58,0,-9,-43
9,4,-4,-7,7,0,-48,48,53,-4,-14,-43
9,0,-9,-4,9,-4,-48,48,53,-4,-14,-43
-4,9,14,-2,-9,12,-58,48,48,-9,-29,-58
-4,9,14,-2,-9,12,-53,48,53,-9,-29,-58
-4,9,14,-2,-9,12,-48,48,58,-9,-29,-58
-4,4,9,0,-7,7,-48,48,58,-14,-24,-58
4,-9,-14,2,9,-12,-48,48,58,-9,-14,-48
4,-14,-19,4,12,-17,-53,48,58,0,-14,-48
4,-14,-19,4,12,-17,-53,48,53,4,-14,-48
4,-19,-24,7,14,-21,-53,48,53,9,-9,-48
4,-29,-34,12,19,-31,-43,48,48,14,-4,-53
0,-34,-34,17,17,-34,-43,48,48,14,4,-43
0,-34,-34,17,17,-34,-43,48,48,9,-4,-43
0,-29,-29,14,14,-29,-43,48,43,0,-4,-48
0,-14,-14,7,7,-14,-53,34,43,-4,-14,-43
0,-14,-14,7,7,-14,-53,34,43,-4,-19,-43
0,-9,-9,4,4,-9,-53,34,39,-4,-19,-43
0,-4,-4,2,2,-4,-53,34,39,-9,-19,-48
9,-9,-19,0,14,-14,-53,34,39,-19,-29,-48
9,-4,-14,-2,12,-9,-53,29,34,-19,-29,-48
4,4,0,-4,2,2,-53,24,29,-19,-29,-48
4,9,4,-7,0,7,-53,24,29,-14,-29,-48
4,4,0,-4,2,2,-43,24,29,-14,-34,-48
9,0,-9,-4,9,-4,-43,24,29,-19,-34,-48
9,0,-9,-4,9,-4,-48,19,24,-24,-34,-48
4,0,-4,-2,4,-2,-53,14,19,-29,-39,-48
0,0,0,0,0,0,-53,14,19,-29,-29,-39
0,-9,-9,4,4,-9,-53,9,19,-24,-24,-39
4,-24,-29,9,17,-26,-53,9,19,-19,-19,-39
4,-24,-29,9,17,-26,-53,9,14,-14,-14,-34
-4,-34,-29,19,12,-31,-53,9,14,-4,-14,-34
0,-34,-34,17,17,-34,-53,9,19,-4,-9,-34
0,-34,-34,17,17,-34,-53,4,19,-4,-4,-34
-4,-14,-9,9,2,-12,-53,4,14,-4,-4,-39
-4,-14,-9,9,2,-12,-53,4,14,-14,-24,-48
0,-14,-14,7,7,-14,-53,14,14,-29,-34,-48
0,-14,-14,7,7,-14,-53,14,14,-39,-39,-48
0,-14,-14,7,7,-14,-53,14,9,-48,-43,-53
-4,-19,-14,12,4,-17,-43,9,9,-34,-34,-63
-4,-14,-9,9,2,-12,-43,0,9,-24,-29,-53
-4,0,4,2,-4,2,-43,0,9,-19,-29,-53
-4,4,9,0,-7,7,-43,4,9,-14,-29,-53
4,-4,-9,0,7,-7,-53,4,9,-24,-29,-43
9,-4,-14,-2,12,-9,-53,0,4,-24,-29,-43
9,-9,-19,0,14,-14,-58,0,4,-24,-34,-43
9,-9,-19,0,14,-14,-63,0,0,-34,-39,-43
0,-4,-4,2,2,-4,-73,-14,-9,-24,-29,-48
0,0,0,0,0,0,-73,-14,-9,-19,-29,-48
0,4,4,-2,-2,4,-68,-14,-9,-19,-29,-48
0,14,14,-7,-7,14,-68,-9,-9,-19,-34,-48
9,14,4,-12,2,9,-58,-9,-9,-29,-39,-58
4,4,0,-4,2,2,-58,-9,-9,-34,-43,-63
4,0,-4,-2,4,-2,-58,-14,-14,-39,-48,-63
9,0,-9,-4,9,-4,-58,-14,-14,-48,-48,-68
9,-14,-24,2,17,-19,-48,-9,-9,-58,-53,-82
9,-14,-24,2,17,-19,-53,-14,-9,-58,-63,-82
9,-19,-29,4,19,-24,-53,-9,-4,-53,-68,-82
9,-34,-43,12,26,-39,-48,4,9,-53,-68,-68
4,-34,-39,14,21,-36,-34,9,0,-43,-48,-48
4,-43,-48,19,26,-46,-34,9,0,-34,-43,-39
-9,-39,-29,24,9,-34,-29,9,9,-29,-29,-39
0,-24,-24,12,12,-24,-34,4,0,-24,-24,-29
0,-9,-9,4,4,-9,-39,0,0,-19,-19,-29
0,4,4,-2,-2,4,-43,-4,0,-14,-14,-29
0,19,19,-9,-9,19,-48,-9,0,-9,-9,-29
9,29,19,-19,-4,24,-63,-9,4,0,9,-19
14,43,29,-29,-7,36,-63,-9,9,9,9,-14
14,53,39,-34,-12,46,-63,-9,9,14,9,-9
19,63,43,-41,-12,53,-63,-14,4,14,9,0
9,48,39,-29,-14,43,-53,-14,4,0,0,-19
9,43,34,-26,-12,39,-53,-9,9,-4,-14,-29
9,43,34,-26,-12,39,-48,-9,9,-19,-34,-39
9,43,34,-26,-12,39,-48,-9,4,-39,-48,-48
0,39,39,-19,-19,39,-48,-9,4,-29,-43,-48
4,34,29,-19,-12,31,-48,-9,4,-29,-43,-53
9,29,19,-19,-4,24,-48,-9,4,-29,-43,-53
9,34,24,-21,-7,29,-58,-9,4,-29,-43,-53
24,9,-14,-17,19,-2,-73,-14,-4,-29,-34,-39
24,4,-19,-14,21,-7,-73,-19,-4,-24,-29,-34
24,4,-19,-14,21,-7,-73,-19,-4,-19,-29,-29
24,0,-24,-12,24,-12,-82,-24,-4,-14,-24,-24
24,4,-19,-14,21,-7,-78,-29,4,-14,-14,-9
24,4,-19,-14,21,-7,-82,-34,4,-14,-14,-9
24,4,-19,-14,21,-7,-87,-34,0,-14,-14,-9
29,14,-14,-21,21,0,-92,-43,-9,-14,-9,-9
39,29,-9,-34,24,9,-102,-58,-14,-29,-19,-19
39,34,-4,-36,21,14,-107,-63,-24,-29,-19,-19
43,39,-4,-41,24,17,-107,-63,-29,-29,-19,-19
43,39,-4,-41,24,17,-117,-68,-39,-29,-19,-19
48,43,-4,-46,26,19,-117,-68,-39,-39,-24,-24
48,39,-9,-43,29,14,-117,-68,-39,-39,-29,-24
53,29,-24,-41,39,2,-122,-73,-39,-39,-34,-24
58,24,-34,-41,46,-4,-122,-73,-48,-39,-39,-29
48,9,-39,-29,43,-14,-122,-73,-48,-48,-39,-19
48,4,-43,-26,46,-19,-117,-68,-43,-48,-39,-24
48,4,-43,-26,46,-19,-112,-63,-39,-53,-39,-24
48,0,-48,-24,48,-24,-107,-58,-29,-53,-39,-19
48,9,-39,-29,43,-14,-112,-63,-34,-43,-34,-9
48,14,-34,-31,41,-9,-107,-63,-39,-39,-34,-9
43,29,-14,-36,29,7,-102,-63,-43,-34,-29,-9
43,39,-4,-41,24,17,-97,-63,-43,-29,-19,-9
43,43,0,-43,21,21,-87,-43,-39,-19,-4,4
39,53,14,-46,12,34,-87,-43,-34,-14,0,4
29,58,29,-43,0,43,-82,-39,-24,-9,4,4
24,63,39,-43,-7,51,-73,-39,-19,4,4,14
19,53,34,-36,-7,43,-68,-43,-14,0,4,0
9,48,39,-29,-14,43,-63,-39,-19,-9,-4,-4
4,39,34,-21,-14,36,-58,-39,-24,-24,-24,-14
4,29,24,-17,-9,26,-53,-39,-34,-34,-39,-19
-14,0,14,7,-14,7,-43,-39,-34,-53,-43,-34
-19,-9,9,14,-14,0,-39,-39,-34,-53,-58,-39
-24,-19,4,21,-14,-7,-34,-39,-34,-53,-68,-48
-24,-34,-9,29,-7,-21,-34,-39,-34,-53,-78,-53
-24,-43,-19,34,-2,-31,-43,-39,-53,-53,-78,-53
-24,-53,-29,39,2,-41,-39,-39,-53,-63,-73,-58
-24,-58,-34,41,4,-46,-29,-39,-58,-68,-82,-63
-29,-68,-39,48,4,-53,-29,-39,-58,-73,-78,-68
-34,-68,-34,51,0,-51,-39,-48,-58,-73,-78,-68
-34,-58,-24,46,-4,-41,-39,-48,-63,-73,-78,-68
-39,-58,-19,48,-9,-39,-39,-48,-63,-68,-73,-68
-39,-48,-9,43,-14,-29,-43,-48,-68,-68,-68,-68
-34,-29,4,31,-19,-12,-34,-48,-78,-68,-63,-63
-34,-29,4,31,-19,-12,-39,-48,-82,-68,-68,-63
-34,-29,4,31,-19,-12,-39,-48,-82,-68,-68,-63
-24,-29,-4,26,-9,-17,-39,-43,-82,-68,-68,-63
-24,-34,-9,29,-7,-21,-39,-43,-73,-68,-78,-68
-24,-34,-9,29,-7,-21,-39,-43,-68,-73,-78,-68
-24,-48,-24,36,0,-36,-34,-43,-63,-73,-78,-63
-24,-48,-24,36,0,-36,-34,-43,-63,-68,-73,-58
-24,-53,-29,39,2,-41,-19,-34,-63,-78,-73,-68
-24,-53,-29,39,2,-41,-19,-29,-63,-73,-78,-63
-24,-58,-34,41,4,-46,-24,-29,-63,-73,-82,-63
-29,-63,-34,46,2,-48,-24,-29,-68,-73,-87,-68
-39,-58,-19,48,-9,-39,-24,-39,-68,-82,-97,-78
-39,-58,-19,48,-9,-39,-24,-39,-68,-82,-97,-78
-39,-58,-19,48,-9,-39,-24,-39,-68,-82,-102,-82
-39,-58,-19,48,-9,-39,-24,-39,-68,-82,-107,-82
-29,-58,-29,43,0,-43,-24,-39,-73,-78,-97,-78
-29,-58,-29,43,0,-43,-19,-34,-73,-78,-92,-78
-29,-58,-29,43,0,-43,-19,-29,-73,-78,-92,-78
-29,-53,-24,41,-2,-39,-9,-29,-68,-78,-92,-78
-34,-43,-9,39,-12,-26,0,-14,-48,-68,-92,-82
-48,-48,0,48,-24,-24,19,-4,-43,-68,-87,-87
-68,-48,19,58,-43,-14,39,19,-29,-58,-87,-97
-87,-48,39,68,-63,-4,68,48,-14,-53,-92,-97
-87,-53,34,70,-61,-9,78,87,-4,-43,-102,-102
-78,-63,14,70,-46,-24,82,102,4,-39,-92,-107
-87,-63,24,75,-56,-19,87,107,29,-34,-87,-107
-97,-53,43,75,-70,-4,102,131,48,-34,-92,-107
-87,-29,58,58,-73,14,102,136,73,-14,-87,-107
-73,-34,39,53,-56,2,92,165,107,14,-58,-82
-34,-48,-14,41,-9,-31,107,214,180,73,-14,-58
24,-14,-39,-4,31,-26,107,317,287,151,53,-14
97,48,-48,-73,73,0,87,390,400,248,136,48
156,122,-34,-139,95,43,48,409,453,331,219,136
229,170,-58,-200,143,56,0,400,483,409,326,248
297,239,-58,-268,178,90,-48,351,483,507,458,380
380,322,-58,-351,219,131,-131,268,478,610,600,522
468,400,-68,-434,268,165,-224,185,497,746,771,678
546,468,-78,-507,312,195,-292,131,536,883,936,814
575,507,-68,-541,322,219,-302,107,546,966,1024,897
531,502,-29,-517,280,236,-287,48,478,946,1019,907
468,512,43,-490,212,278,-302,-78,361,878,980,907
419,556,136,-488,141,346,-326,-244,239,824,971,936
361,556,195,-458,82,375,-326,-366,165,800,971,971
317,531,214,-424,51,373,-307,-434,122,771,966,980
273,502,229,-387,21,366,-326,-512,58,736,936,971
244,453,209,-348,17,331,-326,-570,-29,644,863,922
209,400,190,-305,9,295,-297,-605,-156,478,736,834
185,331,146,-258,19,239,-278,-634,-341,253,536,707
151,234,82,-192,34,158,-248,-673,-546,9,317,541
112,151,39,-131,36,95,-214,-717,-722,-209,117,395
58,97,39,-78,9,68,-195,-790,-839,-375,-39,283
9,58,48,-34,-19,53,-190,-849,-922,-483,-156,195
-9,-4,4,7,-7,0,-180,-844,-932,-527,-219,122
-29,-34,-4,31,-12,-19,-175,-819,-912,-546,-263,58
-53,-29,24,41,-39,-2,-195,-805,-897,-556,-297,-4
-87,-24,63,56,-75,19,-219,-800,-873,-551,-326,-48
-78,-24,53,51,-65,14,-239,-766,-819,-531,-326,-63
-58,-4,53,31,-56,24,-258,-688,-727,-497,-317,-73
-58,9,68,24,-63,39,-278,-619,-634,-458,-307,-82
-39,-9,29,24,-34,9,-278,-556,-561,-429,-297,-82
-14,-43,-29,29,7,-36,-258,-512,-527,-400,-278,-78
-4,-34,-29,19,12,-31,-253,-473,-502,-385,-273,-68
9,-24,-34,7,21,-29,-263,-439,-492,-366,-253,-73
24,-34,-58,4,41,-46,-253,-400,-468,-336,-239,-63
29,-53,-82,12,56,-68,-224,-356,-429,-307,-219,-63
43,-53,-97,4,70,-75,-204,-302,-375,-278,-200,-63
43,-39,-82,-2,63,-61,-175,-258,-336,-248,-190,-58
24,-53,-78,14,51,-65,-131,-224,-292,-229,-180,-58
14,-78,-92,31,53,-85,-112,-195,-258,-214,-170,-63
14,-87,-102,36,58,-95,-92,-170,-248,-204,-165,-68
-9,-92,-82,51,36,-87,-73,-146,-229,-209,-165,-78
-29,-102,-73,65,21,-87,-58,-112,-204,-185,-165,-87
-29,-82,-53,56,12,-68,-58,-97,-185,-170,-161,-102
-24,-92,-68,58,21,-80,-53,-82,-165,-170,-165,-117
-34,-126,-92,80,29,-109,-43,-63,-156,-170,-185,-117
-24,-126,-102,75,39,-114,-29,-58,-141,-175,-185,-126
-14,-107,-92,61,39,-100,-19,-53,-136,-170,-185,-112
-9,-97,-87,53,39,-92,-9,-43,-126,-151,-161,-97
-14,-68,-53,41,19,-61,-14,-39,-122,-136,-151,-87
-19,-53,-34,36,7,-43,-14,-43,-126,-126,-146,-87
-24,-73,-48,48,12,-61,-14,-24,-117,-112,-126,-87
-29,-82,-53,56,12,-68,-4,0,-92,-102,-112,-68
-24,-63,-39,43,7,-51,4,9,-73,-102,-112,-63
-29,-68,-39,48,4,-53,4,4,-73,-97,-112,-63
-29,-63,-34,46,2,-48,9,9,-63,-97,-112,-63
-34,-63,-29,48,-2,-46,14,14,-53,-92,-112,-63
-34,-48,-14,41,-9,-31,14,19,-53,-97,-112,-63
-43,-43,0,43,-21,-21,14,4,-68,-82,-107,-73
-43,-29,14,36,-29,-7,9,0,-73,-78,-97,-73
-43,-24,19,34,-31,-2,9,-4,-78,-68,-92,-73
-43,-19,24,31,-34,2,9,-9,-78,-58,-82,-68
-43,-34,9,39,-26,-12,19,4,-63,-68,-82,-73
-43,-43,0,43,-21,-21,29,14,-58,-63,-82,-73
-39,-53,-14,46,-12,-34,29,19,-43,-63,-82,-73
-39,-53,-14,46,-12,-34,29,29,-39,-63,-82,-73
-43,-53,-9,48,-17,-31,24,24,-53,-73,-102,-78
-43,-58,-14,51,-14,-36,24,19,-53,-78,-107,-78
-43,-58,-14,51,-14,-36,24,14,-58,-82,-117,-82
-39,-48,-9,43,-14,-29,24,9,-68,-87,-122,-82
-48,-53,-4,51,-21,-29,24,19,-63,-73,-117,-78
-43,-48,-4,46,-19,-26,24,19,-58,-73,-117,-73
-43,-53,-9,48,-17,-31,24,19,-53,-78,-117,-68
-48,-58,-9,53,-19,-34,24,19,-48,-78,-117,-63
-39,-43,-4,41,-17,-24,24,19,-53,-87,-117,-68
-39,-39,0,39,-19,-19,29,19,-53,-87,-126,-73
-39,-39,0,39,-19,-19,29,14,-58,-87,-126,-78
-43,-39,4,41,-24,-17,29,9,-63,-87,-122,-82
-34,-53,-19,43,-7,-36,29,19,-63,-78,-112,-82
-34,-53,-19,43,-7,-36,29,19,-58,-78,-112,-82
-29,-53,-24,41,-2,-39,34,19,-58,-73,-112,-82
-29,-53,-24,41,-2,-39,34,19,-58,-68,-112,-82
-39,-53,-14,46,-12,-34,39,19,-58,-63,-107,-78
-48,-53,-4,51,-21,-29,39,29,-58,-58,-97,-68
-48,-53,-4,51,-21,-29,43,29,-58,-53,-92,-63
-48,-53,-4,51,-21,-29,43,29,-53,-48,-87,-58
-39,-39,0,39,-19,-19,34,24,-43,-63,-92,-73
-39,-39,0,39,-19,-19,34,24,-43,-63,-92,-73
-39,-39,0,39,-19,-19,34,24,-43,-63,-92,-73
-39,-39,0,39,-19,-19,34,29,-48,-63,-92,-73
-39,-48,-9,43,-14,-29,34,34,-39,-73,-102,-73
-39,-43,-4,41,-17,-24,39,34,-39,-73,-102,-73
-34,-43,-9,39,-12,-26,39,39,-39,-73,-102,-73
-34,-43,-9,39,-12,-26,39,39,-29,-73,-102,-73
-39,-53,-14,46,-12,-34,48,48,-39,-78,-112,-63
-39,-53,-14,46,-12,-34,48,48,-34,-78,-112,-63
-39,-53,-14,46,-12,-34,53,48,-34,-78,-112,-63
-34,-53,-19,43,-7,-36,53,48,-34,-78,-117,-63
-34,-43,-9,39,-12,-26,53,48,-34,-63,-112,-63
-39,-43,-4,41,-17,-24,53,53,-19,-53,-102,-63
-39,-39,0,39,-19,-19,53,53,-29,-48,-97,-63
-34,-34,0,34,-17,-17,53,58,-29,-39,-92,-63
-34,-43,-9,39,-12,-26,53,68,-24,-48,-92,-68
-39,-48,-9,43,-14,-29,53,68,-24,-48,-97,-73
-39,-48,-9,43,-14,-29,53,68,-24,-53,-102,-78
-39,-48,-9,43,-14,-29,48,73,-19,-53,-107,-82
-48,-34,14,41,-31,-9,48,68,-19,-48,-97,-82
-48,-34,14,41,-31,-9,58,68,-19,-48,-97,-82
-48,-29,19,39,-34,-4,63,68,-19,-48,-102,-82
-48,-29,19,39,-34,-4,63,68,-19,-48,-102,-82
-58,-34,24,46,-41,-4,63,78,-14,-29,-87,-68
-58,-39,19,48,-39,-9,63,82,-9,-29,-87,-63
-58,-48,9,53,-34,-19,58,87,-9,-34,-92,-58
-58,-53,4,56,-31,-24,58,87,-9,-34,-92,-53
-53,-39,14,46,-34,-12,58,87,4,-34,-87,-48
-48,-29,19,39,-34,-4,58,97,9,-34,-87,-48
-48,-24,24,36,-36,0,63,102,9,-34,-87,-48
-43,-19,24,31,-34,2,63,107,14,-24,-87,-48
-29,-4,24,17,-26,9,73,122,29,-19,-78,-39
-29,0,29,14,-29,14,73,126,29,-14,-78,-39
-29,0,29,14,-29,14,73,126,39,-9,-78,-39
-29,0,29,14,-29,14,82,131,43,0,-73,-39
-29,-4,24,17,-26,9,82,131,43,4,-82,-43
-29,-4,24,17,-26,9,87,136,48,0,-82,-48
-34,0,34,17,-34,17,87,141,53,-4,-87,-58
-34,-14,19,24,-26,2,87,151,58,0,-87,-63
-43,-4,39,24,-41,17,92,156,63,9,-78,-48
-48,-4,43,26,-46,19,97,165,68,19,-73,-48
-48,9,58,19,-53,34,97,165,73,24,-68,-48
-48,9,58,19,-53,34,97,170,78,34,-58,-43
-43,24,68,9,-56,46,102,165,73,39,-48,-34
-39,34,73,2,-56,53,97,170,78,39,-48,-24
-34,39,73,-2,-53,56,92,175,82,39,-48,-19
-34,43,78,-4,-56,61,92,175,87,39,-48,-19
-24,39,63,-7,-43,51,107,190,102,39,-48,-29
-34,34,68,0,-51,51,107,195,102,39,-48,-29
-34,34,68,0,-51,51,107,200,107,39,-58,-34
-29,29,58,0,-43,43,107,204,112,39,-58,-34
-39,29,68,4,-53,48,107,200,102,43,-58,-34
-39,29,68,4,-53,48,107,200,107,43,-53,-34
-43,29,73,7,-58,51,107,200,107,43,-53,-34
-43,34,78,4,-61,56,107,200,102,53,-48,-34
-48,24,73,12,-61,48,107,204,112,63,-43,-34
-48,34,82,7,-65,58,112,204,122,63,-43,-34
-48,34,82,7,-65,58,112,204,122,63,-43,-34
-48,34,82,7,-65,58,117,204,126,58,-43,-34
-48,34,82,7,-65,58,117,195,117,48,-48,-34
-48,34,82,7,-65,58,112,195,112,48,-48,-34
-48,39,87,4,-68,63,112,200,112,48,-48,-34
-48,53,102,-2,-75,78,112,200,117,53,-48,-29
-39,63,102,-12,-70,82,102,185,117,68,-29,-14
-34,63,97,-14,-65,80,97,180,117,68,-19,0
-29,63,92,-17,-61,78,97,175,122,78,-4,14
-24,73,97,-24,-61,85,97,175,126,78,0,24
-9,82,92,-36,-51,87,107,175,117,78,-9,19
-9,82,92,-36,-51,87,107,180,117,78,0,19
-9,73,82,-31,-46,78,107,180,117,78,0,14
-9,73,82,-31,-46,78,102,180,112,78,4,14
-14,63,78,-24,-46,70,102,175,117,73,0,4
-14,53,68,-19,-41,61,107,170,112,68,-9,14
-9,48,58,-19,-34,53,97,161,112,63,-14,14
-4,39,43,-17,-24,41,97,146,97,58,-9,19
-9,39,48,-14,-29,43,92,141,82,48,-19,14
-4,39,43,-17,-24,41,87,131,78,48,-19,14
-4,39,43,-17,-24,41,82,117,73,53,-14,19
0,39,39,-19,-19,39,78,117,63,53,-4,24
4,43,39,-24,-17,41,73,92,48,43,-9,14
9,43,34,-26,-12,39,68,87,39,43,-24,9
9,43,34,-26,-12,39,58,78,24,34,-29,9
9,39,29,-24,-9,34,53,68,19,34,-29,19
19,43,24,-31,-2,34,63,63,24,34,-19,29
19,43,24,-31,-2,34,63,58,19,29,-14,39
19,43,24,-31,-2,34,63,53,14,29,-14,39
19,43,24,-31,-2,34,63,43,4,29,-9,39
24,34,9,-29,7,21,63,39,4,34,0,48
24,24,0,-24,12,12,68,39,4,34,0,48
19,19,0,-19,9,9,68,39,0,34,-4,43
19,14,-4,-17,12,4,73,34,0,34,-9,39
9,29,19,-19,-4,24,68,19,-14,19,-29,24
9,29,19,-19,-4,24,63,9,-19,14,-39,19
14,24,9,-19,2,17,58,9,-19,4,-43,14
14,19,4,-17,4,12,53,0,-24,0,-48,9
19,4,-14,-12,17,-4,63,0,-29,0,-43,19
14,-4,-19,-4,17,-12,63,0,-29,0,-43,9
14,-9,-24,-2,19,-17,58,0,-29,0,-43,9
14,-14,-29,0,21,-21,53,0,-29,4,-48,4
4,-24,-29,9,17,-26,63,-9,-34,-9,-58,14
4,-29,-34,12,19,-31,63,-9,-39,-14,-53,14
4,-29,-34,12,19,-31,63,-9,-48,-29,-53,19
4,-24,-29,9,17,-26,63,-14,-58,-34,-58,19
4,-19,-24,7,14,-21,53,-14,-58,-19,-58,19
4,-14,-19,4,12,-17,58,-19,-58,-19,-58,19
4,-9,-14,2,9,-12,58,-19,-58,-19,-58,19
9,-9,-19,0,14,-14,58,-19,-58,-14,-53,19
0,0,0,0,0,0,58,-19,-48,-14,-63,4
0,-4,-4,2,2,-4,58,-14,-48,-24,-68,0
0,-4,-4,2,2,-4,63,-14,-48,-24,-68,-4
0,-4,-4,2,2,-4,68,-14,-48,-24,-68,-4
-14,0,14,7,-14,7,68,-29,-58,-14,-63,4
-14,0,14,7,-14,7,63,-29,-63,-14,-63,0
-14,0,14,7,-14,7,58,-29,-68,-14,-63,-4
-9,4,14,2,-12,9,53,-34,-73,-19,-63,-9
-4,4,9,0,-7,7,53,-24,-63,-19,-58,-4
0,4,4,-2,-2,4,63,-19,-63,-19,-53,0
0,0,0,0,0,0,63,-19,-63,-19,-48,4
0,0,0,0,0,0,63,-19,-63,-19,-43,4
-9,-14,-4,12,-2,-9,73,-9,-53,-19,-53,4
-9,-19,-9,14,0,-14,73,-9,-53,-19,-58,4
-9,-19,-9,14,0,-14,73,-14,-53,-19,-63,4
-9,-19,-9,14,0,-14,73,-14,-53,-14,-68,4
0,-39,-39,19,19,-39,73,-9,-53,-4,-58,9
4,-39,-43,17,24,-41,73,-9,-48,-4,-48,14
4,-39,-43,17,24,-41,73,-4,-48,-4,-43,19
4,-43,-48,19,26,-46,73,-4,-48,-4,-39,24
4,-34,-39,14,21,-36,82,-14,-58,-14,-53,19
4,-29,-34,12,19,-31,87,-9,-53,-19,-58,14
4,-29,-34,12,19,-31,87,-4,-53,-24,-63,9
4,-24,-29,9,17,-26,87,-4,-53,-29,-78,4
-9,-34,-24,21,7,-29,82,-4,-58,-19,-68,-4
-9,-34,-24,21,7,-29,82,-4,-58,-24,-73,-9
-9,-24,-14,17,2,-19,87,-9,-53,-24,-73,-9
-9,-24,-14,17,2,-19,87,-9,-53,-24,-68,-9
0,-24,-24,12,12,-24,87,0,-43,-9,-63,-4
0,-24,-24,12,12,-24,92,9,-43,-9,-58,0
0,-24,-24,12,12,-24,92,9,-43,-9,-48,9
-9,-29,-19,19,4,-24,92,9,-43,-9,-43,14
-19,-24,-4,21,-7,-14,92,0,-53,-14,-58,9
-19,-24,-4,21,-7,-14,92,0,-48,-19,-63,0
-19,-19,0,19,-9,-9,92,4,-48,-24,-68,-4
-9,-9,0,9,-4,-4,92,4,-48,-29,-73,-9
-9,-4,4,7,-7,0,82,-4,-39,-19,-63,-9
-9,0,9,4,-9,4,82,0,-34,-14,-63,-4
-9,4,14,2,-12,9,87,0,-34,-9,-63,-4
-9,9,19,0,-14,14,87,0,-39,-4,-63,-4
0,4,4,-2,-2,4,97,9,-39,-14,-68,-4
4,0,-4,-2,4,-2,97,9,-29,-4,-58,4
4,-4,-9,0,7,-7,97,9,-29,-4,-58,4
0,-19,-19,9,9,-19,97,9,-29,-4,-63,4
9,-34,-43,12,26,-39,102,19,-29,0,-48,9
9,-34,-43,12,26,-39,102,19,-29,0,-48,14
9,-24,-34,7,21,-29,97,19,-29,4,-43,19
4,-24,-29,9,17,-26,97,19,-29,9,-39,24
0,-14,-14,7,7,-14,97,9,-29,0,-48,14
0,-4,-4,2,2,-4,97,9,-29,0,-48,14
-4,-4,0,4,-2,-2,97,9,-34,-4,-53,14
-9,-9,0,9,-4,-4,97,9,-34,-4,-53,14
-4,-19,-14,12,4,-17,97,14,-29,-14,-63,0
-4,-19,-14,12,4,-17,102,19,-24,-19,-68,0
-4,-19,-14,12,4,-17,107,24,-19,-24,-73,0
-4,-24,-19,14,7,-21,107,29,-19,-34,-73,0
-4,-29,-24,17,9,-26,107,19,-29,-29,-73,9
-4,-34,-29,19,12,-31,102,19,-29,-19,-73,9
-4,-34,-29,19,12,-31,102,19,-34,-14,-73,9
-4,-39,-34,21,14,-36,102,19,-34,-9,-68,9
-9,-34,-24,21,7,-29,92,9,-29,9,-58,4
-19,-34,-14,26,-2,-24,92,9,-29,14,-43,14
-24,-29,-4,26,-9,-17,92,9,-29,14,-48,14
-29,-19,9,24,-19,-4,92,9,-34,9,-43,9
-19,-9,9,14,-14,0,102,4,-34,0,-58,0
-19,-14,4,17,-12,-4,102,4,-34,-4,-68,-4
-19,-14,4,17,-12,-4,102,4,-39,-9,-73,-9
-19,-14,4,17,-12,-4,102,4,-39,-19,-78,-19
-19,-29,-9,24,-4,-19,112,9,-29,-39,-87,-9
-19,-34,-14,26,-2,-24,112,9,-34,-39,-87,-9
-24,-34,-9,29,-7,-21,112,9,-39,-39,-87,-9
-24,-39,-14,31,-4,-26,112,14,-39,-34,-87,-9
-14,-24,-9,19,-2,-17,112,24,-24,-4,-63,4
0,-19,-19,9,9,-19,112,24,-19,9,-43,19
9,-9,-19,0,14,-14,107,19,-19,24,-24,34
14,0,-14,-7,14,-7,102,14,-19,39,-9,48
0,0,0,0,0,0,102,14,-24,19,-29,34
0,-9,-9,4,4,-9,102,9,-29,4,-43,29
4,-24,-29,9,17,-26,102,9,-34,-9,-58,24
4,-24,-29,9,17,-26,102,9,-43,-24,-73,24
0,-34,-34,17,17,-34,102,9,-43,-34,-82,9
0,-34,-34,17,17,-34,102,9,-39,-34,-78,4
-4,-34,-29,19,12,-31,102,4,-39,-34,-73,0
-14,-14,0,14,-7,-7,102,4,-43,-34,-73,-9
-14,24,39,-4,-26,31,102,-4,-53,-4,-48,9
0,4,4,-2,-2,4,112,4,-43,9,-43,29
9,14,4,-12,2,9,112,4,-43,9,-53,19
9,43,34,-26,-12,39,102,4,-39,0,-53,14
19,29,9,-24,4,19,107,9,-19,0,-48,19
9,29,19,-19,-4,24,117,19,-19,9,-48,19
9,29,19,-19,-4,24,117,19,-19,9,-48,19
9,29,19,-19,-4,24,117,19,-19,9,-48,19
9,29,19,-19,-4,24,117,19,-19,9,-48,19
9,29,19,-19,-4,24,107,4,-29,4,-43,24
4,34,29,-19,-12,31,102,0,-29,9,-48,24
-4,34,39,-14,-21,36,97,-4,-34,9,-53,24
-9,34,43,-12,-26,39,92,-14,-43,4,-58,29
0,19,19,-9,-9,19,102,-4,-34,0,-53,29
0,14,14,-7,-7,14,102,0,-29,4,-53,29
0,14,14,-7,-7,14,107,0,-29,0,-58,29
0,14,14,-7,-7,14,107,0,-34,-9,-58,29
-9,4,14,2,-12,9,107,0,-24,0,-63,19
-4,4,9,0,-7,7,107,0,-24,0,-63,14
0,4,4,-2,-2,4,107,0,-24,0,-63,14
0,14,14,-7,-7,14,97,0,-24,0,-63,14
4,14,9,-9,-2,12,92,-14,-34,4,-48,24
4,14,9,-9,-2,12,92,-19,-34,4,-48,24
4,19,14,-12,-4,17,92,-19,-34,4,-53,24
4,19,14,-12,-4,17,82,-24,-34,4,-53,24
14,29,14,-21,0,21,78,-29,-34,4,-43,39
14,34,19,-24,-2,26,73,-34,-34,4,-43,39
14,39,24,-26,-4,31,68,-34,-39,4,-43,39
19,53,34,-36,-7,43,63,-43,-48,4,-39,39
19,58,39,-39,-9,48,63,-39,-48,0,-48,29
19,53,34,-36,-7,43,58,-43,-53,0,-48,29
24,48,24,-36,0,36,58,-43,-53,0,-48,29
24,39,14,-31,4,26,48,-48,-58,0,-48,29
39,24,-14,-31,26,4,48,-48,-58,0,-39,39
39,19,-19,-29,29,0,48,-48,-58,0,-39,43
43,9,-34,-26,39,-12,43,-53,-58,0,-39,48
48,4,-43,-26,46,-19,43,-53,-68,0,-39,48
53,14,-39,-34,46,-12,39,-58,-63,0,-39,58
58,14,-43,-36,51,-14,39,-58,-63,0,-39,53
63,19,-43,-41,53,-12,39,-58,-63,-4,-39,53
68,19,-48,-43,58,-14,39,-58,-58,-4,-39,58
58,14,-43,-36,51,-14,48,-43,-58,-4,-48,43
48,14,-34,-31,41,-9,58,-43,-58,-9,-53,39
34,24,-9,-29,21,7,68,-43,-58,-14,-53,34
24,29,4,-26,9,17,78,-43,-53,-19,-48,29
34,29,-4,-31,19,12,78,-43,-53,-9,-43,43
29,34,4,-31,12,19,78,-43,-53,-4,-39,43
19,34,14,-26,2,24,82,-39,-48,0,-34,43
14,34,19,-24,-2,26,92,-39,-48,14,-34,53
9,29,19,-19,-4,24,97,-24,-39,19,-24,53
0,29,29,-14,-14,29,102,-19,-39,19,-24,53
-4,24,29,-9,-17,26,107,-19,-39,14,-34,48
-4,19,24,-7,-14,21,112,-19,-43,14,-39,48
-14,9,24,2,-19,17,102,-29,-48,-9,-48,39
-19,9,29,4,-24,19,107,-29,-53,-14,-58,29
-24,9,34,7,-29,21,112,-29,-58,-19,-63,14
-24,4,29,9,-26,17,112,-29,-63,-24,-68,4
-24,-9,14,17,-19,2,102,-39,-73,-34,-82,4
-24,-24,0,24,-12,-12,107,-39,-73,-43,-82,0
-24,-34,-9,29,-7,-21,117,-39,-78,-48,-97,-4
-29,-48,-19,39,-4,-34,117,-39,-78,-53,-97,-9
-39,-63,-24,51,-7,-43,126,-39,-87,-58,-102,-24
-43,-68,-24,56,-9,-46,126,-39,-92,-63,-107,-29
-53,-82,-29,68,-12,-56,126,-39,-92,-63,-107,-34
-58,-87,-29,73,-14,-58,122,-39,-97,-68,-107,-39
-48,-68,-19,58,-14,-43,122,-43,-92,-58,-97,-29
-43,-68,-24,56,-9,-46,117,-39,-92,-48,-97,-24
-39,-68,-29,53,-4,-48,117,-34,-87,-39,-92,-19
-24,-68,-43,46,9,-56,117,-24,-82,-29,-87,-14
-14,-43,-29,29,7,-36,117,-34,-82,-43,-92,-24
-14,-34,-19,24,2,-26,117,-34,-78,-53,-97,-29
-14,-39,-24,26,4,-31,122,-34,-73,-58,-102,-29
-14,-29,-14,21,0,-21,122,-34,-73,-58,-102,-29
-19,-48,-29,34,4,-39,126,-34,-82,-58,-97,-24
-24,-53,-29,39,2,-41,126,-29,-82,-53,-97,-14
-29,-63,-34,46,2,-48,122,-29,-82,-53,-97,-9
-39,-73,-34,56,-2,-53,122,-29,-87,-53,-97,-9
-48,-63,-14,56,-17,-39,112,-39,-87,-43,-87,-9
-48,-58,-9,53,-19,-34,112,-39,-87,-43,-87,-9
-48,-53,-4,51,-21,-29,112,-39,-87,-43,-92,-14
-48,-48,0,48,-24,-24,112,-39,-87,-43,-97,-14
-34,-39,-4,36,-14,-21,122,-29,-73,-48,-97,-9
-29,-39,-9,34,-9,-24,126,-24,-73,-48,-92,-9
-24,-39,-14,31,-4,-26,126,-19,-73,-48,-92,-9
-19,-34,-14,26,-2,-24,136,-19,-68,-48,-92,-9
-34,-43,-9,39,-12,-26,146,4,-58,-39,-92,-4
-39,-48,-9,43,-14,-29,156,14,-53,-48,-107,-19
-48,-68,-19,58,-14,-43,175,29,-48,-58,-117,-39
-68,-78,-9,73,-29,-43,204,58,-34,-73,-131,-58
-87,-73,14,80,-51,-29,214,78,-24,-63,-141,-73
-87,-73,14,80,-51,-29,219,92,-4,-48,-131,-68
-87,-63,24,75,-56,-19,224,107,9,-34,-107,-58
-97,-63,34,80,-65,-14,229,122,39,-4,-102,-58
-97,-48,48,73,-73,0,229,146,73,14,-87,-58
-73,-34,39,53,-56,2,229,165,107,43,-58,-43
-24,-9,14,17,-19,2,224,214,170,102,-14,-9
14,4,-9,-9,12,-2,224,287,268,190,63,43
58,39,-19,-48,39,9,214,351,370,287,146,107
117,112,-4,-114,61,53,175,361,424,361,239,195
180,180,0,-180,90,90,126,341,444,439,326,287
239,248,9,-244,114,129,78,292,444,517,429,400
312,312,0,-312,156,156,4,219,429,610,551,522
400,370,-29,-385,214,170,-68,146,439,717,702,678
488,448,-39,-468,263,204,-146,102,488,854,858,824
536,507,-29,-522,283,239,-175,87,517,936,956,907
512,512,0,-512,256,256,-161,29,468,927,961,917
429,512,82,-470,173,297,-156,-97,361,868,922,907
361,556,195,-458,82,375,-190,-263,239,814,902,917
312,575,263,-444,24,419,-200,-395,156,800,902,951
268,590,322,-429,-26,456,-190,-473,92,771,907,961
244,590,346,-417,-51,468,-209,-551,9,717,868,941
224,531,307,-378,-41,419,-219,-610,-78,624,795,902
190,439,248,-314,-29,344,-190,-624,-185,478,688,834
165,361,195,-263,-14,278,-161,-653,-351,273,527,727
141,273,131,-207,4,202,-141,-702,-556,48,326,590
82,170,87,-126,-2,129,-97,-756,-722,-161,136,453
29,97,68,-63,-19,82,-68,-819,-849,-317,-9,351
0,68,68,-34,-34,68,-73,-868,-932,-414,-107,273
-19,34,53,-7,-36,43,-73,-863,-951,-468,-170,209
-29,14,43,7,-36,29,-78,-819,-932,-488,-224,146
-43,9,53,17,-48,31,-87,-805,-907,-488,-248,92
-78,-14,63,46,-70,24,-122,-800,-873,-483,-268,58
-97,-24,73,61,-85,24,-141,-775,-819,-473,-268,34
-87,-4,82,46,-85,39,-161,-707,-736,-448,-278,14
-78,9,87,34,-82,48,-170,-629,-634,-419,-278,4
-58,-9,48,34,-53,19,-161,-556,-561,-390,-287,-14
-34,-34,0,34,-17,-17,-141,-483,-517,-380,-297,-39
-14,-34,-19,24,2,-26,-126,-434,-502,-375,-283,-48
-9,-43,-34,26,12,-39,-126,-409,-483,-366,-273,-43
4,-43,-48,19,26,-46,-117,-390,-468,-346,-268,-43
19,-24,-43,2,31,-34,-107,-366,-429,-317,-258,-43
34,-24,-58,-4,46,-41,-78,-312,-375,-278,-229,-24
24,-68,-92,21,58,-80,-39,-258,-317,-248,-219,-19
14,-82,-97,34,56,-90,-4,-214,-283,-239,-219,-29
4,-78,-82,36,43,-80,4,-185,-268,-234,-219,-53
-14,-78,-63,46,24,-70,14,-170,-258,-224,-214,-48
-9,-92,-82,51,36,-87,34,-146,-239,-209,-195,-48
-19,-82,-63,51,21,-73,48,-122,-224,-195,-195,-58
-29,-73,-43,51,7,-58,48,-117,-214,-190,-200,-63
-34,-73,-39,53,2,-56,53,-102,-195,-180,-185,-68
-34,-97,-63,65,14,-80,73,-82,-175,-151,-175,-58
-34,-117,-82,75,24,-100,87,-68,-151,-146,-165,-58
-34,-107,-73,70,19,-90,87,-53,-146,-131,-165,-73
-29,-78,-48,53,9,-63,87,-43,-136,-122,-161,-78
-24,-78,-53,51,14,-65,102,-29,-122,-117,-151,-68
-39,-82,-43,61,2,-63,112,-14,-107,-107,-156,-68
-43,-82,-39,63,-2,-61,112,-14,-107,-102,-146,-58
-39,-73,-34,56,-2,-53,122,-9,-92,-102,-151,-58
-43,-73,-29,58,-7,-51,131,-9,-82,-102,-151,-63
-48,-58,-9,53,-19,-34,122,4,-82,-82,-146,-58
-48,-53,-4,51,-21,-29,126,9,-73,-78,-141,-53
-53,-53,0,53,-26,-26,131,14,-63,-68,-136,-48
-53,-39,14,46,-34,-12,131,19,-63,-68,-131,-43
-53,-48,4,51,-29,-21,131,9,-73,-68,-122,-34
-53,-39,14,46,-34,-12,126,9,-73,-68,-117,-34
-53,-39,14,46,-34,-12,126,9,-73,-63,-117,-34
-53,-39,14,46,-34,-12,126,9,-68,-58,-112,-29
-63,-48,14,56,-39,-17,126,19,-68,-73,-122,-29
-63,-63,0,63,-31,-31,136,24,-68,-73,-122,-34
-58,-78,-19,68,-19,-48,136,24,-58,-78,-122,-39
-58,-82,-24,70,-17,-53,136,29,-58,-82,-122,-43
-53,-78,-24,65,-14,-51,131,19,-58,-82,-117,-39
-53,-78,-24,65,-14,-51,131,19,-53,-78,-117,-39
-53,-73,-19,63,-17,-46,131,19,-53,-73,-122,-43
-48,-58,-9,53,-19,-34,131,19,-58,-68,-122,-43
-58,-58,0,58,-29,-29,131,29,-48,-63,-117,-43
-53,-48,4,51,-29,-21,131,29,-48,-63,-117,-43
-53,-48,4,51,-29,-21,131,29,-48,-68,-117,-43
-58,-48,9,53,-34,-19,131,29,-48,-68,-117,-43
-48,-48,0,48,-24,-24,131,24,-48,-68,-126,-48
-48,-48,0,48,-24,-24,136,29,-43,-68,-136,-53
-48,-53,-4,51,-21,-29,136,29,-43,-68,-136,-58
-53,-58,-4,56,-24,-31,136,29,-43,-68,-131,-63
-63,-78,-14,70,-24,-46,136,34,-43,-68,-122,-58
-63,-82,-19,73,-21,-51,136,39,-39,-68,-122,-53
-58,-87,-29,73,-14,-58,141,43,-39,-63,-122,-48
-58,-92,-34,75,-12,-63,141,48,-39,-58,-122,-43
-58,-92,-34,75,-12,-63,136,43,-39,-58,-122,-43
-68,-92,-24,80,-21,-58,136,48,-39,-58,-117,-39
-68,-92,-24,80,-21,-58,141,43,-39,-58,-117,-39
-68,-92,-24,80,-21,-58,141,39,-34,-58,-117,-39
-58,-73,-14,65,-21,-43,131,43,-34,-63,-122,-43
-58,-68,-9,63,-24,-39,131,43,-34,-63,-122,-43
-58,-63,-4,61,-26,-34,131,43,-34,-63,-122,-43
-58,-58,0,58,-29,-29,131,48,-39,-63,-122,-43
-58,-58,0,58,-29,-29,131,43,-39,-63,-131,-53
-58,-53,4,56,-31,-24,136,43,-39,-63,-131,-53
-53,-53,0,53,-26,-26,136,48,-39,-63,-131,-53
-53,-53,0,53,-26,-26,136,48,-29,-63,-131,-53
-58,-63,-4,61,-26,-34,126,48,-29,-58,-131,-43
-58,-63,-4,61,-26,-34,126,48,-24,-58,-131,-43
-58,-63,-4,61,-26,-34,131,48,-24,-58,-131,-43
-53,-63,-9,58,-21,-36,131,48,-24,-58,-136,-43
-53,-53,0,53,-26,-26,131,53,-14,-58,-126,-43
-58,-53,4,56,-31,-24,131,63,0,-53,-122,-43
-58,-48,9,53,-34,-19,131,68,-9,-53,-122,-43
-53,-43,9,48,-31,-17,131,78,-9,-48,-122,-43
-53,-53,0,53,-26,-26,151,87,-4,-48,-117,-43
-58,-58,0,58,-29,-29,151,87,-4,-48,-117,-43
-58,-58,0,58,-29,-29,151,87,-4,-53,-117,-43
-58,-58,0,58,-29,-29,146,92,0,-53,-117,-43
-58,-43,14,51,-36,-14,136,97,9,-48,-117,-43
-58,-43,14,51,-36,-14,146,97,9,-48,-117,-43
-58,-39,19,48,-39,-9,151,97,9,-48,-122,-43
-58,-39,19,48,-39,-9,151,97,9,-48,-122,-43
-58,-43,14,51,-36,-14,161,107,24,-29,-112,-34
-58,-48,9,53,-34,-19,161,112,29,-29,-107,-34
-58,-58,0,58,-29,-29,156,117,29,-34,-107,-34
-58,-63,-4,61,-26,-34,156,117,29,-34,-102,-34
-68,-58,9,63,-39,-24,146,107,34,-24,-97,-29
-68,-48,19,58,-43,-14,146,117,39,-24,-97,-29
-73,-43,29,58,-51,-7,151,122,39,-24,-97,-29
-73,-39,34,56,-53,-2,151,126,43,-14,-97,-29
-78,-34,43,56,-61,4,141,131,48,-14,-107,-34
-78,-29,48,53,-63,9,141,136,48,-14,-107,-39
-78,-29,48,53,-63,9,141,136,58,-14,-107,-43
-78,-29,48,53,-63,9,151,141,63,-9,-102,-48
-63,-19,43,41,-53,12,161,156,73,0,-107,-58
-58,-14,43,36,-51,14,165,165,78,0,-102,-58
-58,-4,53,31,-56,24,165,175,82,0,-102,-63
-53,-14,39,34,-46,12,165,190,87,9,-97,-63
-58,-14,43,36,-51,14,170,185,92,24,-87,-53
-58,-14,43,36,-51,14,175,195,97,29,-82,-48
-53,0,53,26,-53,26,175,195,102,29,-78,-43
-48,0,48,24,-48,24,175,200,107,34,-68,-34
-53,0,53,26,-53,26,180,195,102,39,-58,-19
-58,4,63,26,-61,34,175,200,107,39,-58,-14
-63,4,68,29,-65,36,170,204,112,39,-58,-14
-73,4,78,34,-75,41,170,204,117,39,-58,-19
-63,-4,58,34,-61,26,175,219,131,48,-58,-9
-73,-4,68,39,-70,31,175,224,131,48,-58,-9
-73,0,73,36,-73,36,175,229,136,48,-68,-14
-68,0,68,34,-68,34,175,234,141,48,-68,-14
-68,9,78,29,-73,43,185,239,146,63,-58,-14
-68,9,78,29,-73,43,185,239,156,63,-53,-14
-73,9,82,31,-78,46,185,239,161,63,-53,-14
-73,14,87,29,-80,51,185,239,161,73,-48,-14
-58,19,78,19,-68,48,175,234,156,78,-53,-14
-58,34,92,12,-75,63,180,234,161,73,-53,-14
-58,39,97,9,-78,68,180,234,156,68,-53,-14
-58,43,102,7,-80,73,185,234,156,58,-53,-14
-68,34,102,17,-85,68,185,224,156,48,-48,-14
-68,34,102,17,-85,68,180,224,151,48,-48,-14
-68,39,107,14,-87,73,180,229,151,48,-48,-14
-68,53,122,7,-95,87,180,229,156,53,-48,-9
-68,53,122,7,-95,87,170,214,156,58,-53,-9
-63,53,117,4,-90,85,165,209,156,58,-48,-9
-58,53,112,2,-85,82,165,204,161,68,-39,-9
-53,63,117,-4,-85,90,165,204,165,68,-39,-14
-48,73,122,-12,-85,97,156,200,161,78,-29,-9
-48,73,122,-12,-85,97,156,200,156,78,-19,0
-48,63,112,-7,-80,87,156,195,151,78,-19,4
-48,63,112,-7,-80,87,151,190,141,78,-14,14
-39,53,92,-7,-65,73,156,175,126,78,-4,24
-34,53,87,-9,-61,70,156,170,122,78,-9,34
-24,58,82,-17,-53,70,141,161,122,78,-9,34
-14,58,73,-21,-43,65,136,146,107,78,0,39
-9,53,63,-21,-36,58,141,151,107,73,-4,34
-4,48,53,-21,-29,51,136,141,107,68,-9,34
-4,43,48,-19,-26,46,131,126,107,68,-9,39
0,39,39,-19,-19,39,126,126,102,63,-4,43
-4,34,39,-14,-21,36,131,112,97,53,-14,43
0,24,24,-12,-12,24,126,107,87,53,-24,39
0,14,14,-7,-7,14,117,97,73,43,-24,39
0,0,0,0,0,0,112,87,68,43,-19,48
-4,4,9,0,-7,7,117,78,63,39,-24,43
-9,4,14,2,-12,9,112,68,58,29,-24,48
-14,4,19,4,-17,12,107,58,53,24,-29,43
-19,4,24,7,-21,14,102,43,43,19,-29,39
-4,9,14,-2,-9,12,97,43,29,19,-39,29
-4,4,9,0,-7,7,97,39,24,14,-39,29
-9,4,14,2,-12,9,92,34,14,9,-43,24
-9,4,14,2,-12,9,92,24,9,4,-48,19
0,0,0,0,0,0,97,24,14,9,-53,29
0,0,0,0,0,0,92,19,9,14,-48,29
4,-4,-9,0,7,-7,87,24,9,14,-39,29
4,-9,-14,2,9,-12,82,19,4,19,-29,29
-4,-4,0,4,-2,-2,82,4,-4,4,-43,29
-14,-4,9,9,-12,2,82,0,-9,0,-43,19
-19,0,19,9,-19,9,78,-4,-14,-4,-43,19
-24,4,29,9,-26,17,73,-9,-19,-4,-48,14
-14,0,14,7,-14,7,82,0,-9,-4,-58,14
-14,-9,4,12,-9,-2,82,0,-9,-4,-53,14
-14,-14,0,14,-7,-7,82,0,-14,-14,-53,19
-14,-14,0,14,-7,-7,82,-4,-19,-14,-58,19
-24,-24,0,24,-12,-12,73,-4,-19,-19,-58,19
-24,-24,0,24,-12,-12,78,-9,-19,-19,-58,19
-24,-24,0,24,-12,-12,78,-9,-19,-19,-58,19
-19,-29,-9,24,-4,-19,78,-9,-19,-14,-53,19
-9,-24,-14,17,2,-19,68,-19,-19,-4,-53,19
-9,-24,-14,17,2,-19,68,-14,-19,-14,-58,19
-9,-19,-9,14,0,-14,73,-14,-19,-14,-58,19
-9,-14,-4,12,-2,-9,78,-14,-19,-14,-58,24
-4,-19,-14,12,4,-17,78,-9,-9,-4,-58,34
-4,-19,-14,12,4,-17,73,-9,-14,-4,-53,29
-4,-19,-14,12,4,-17,68,-9,-19,-4,-48,24
0,-14,-14,7,7,-14,63,-14,-24,-9,-43,19
-4,-4,0,4,-2,-2,63,-14,-24,-19,-53,9
-9,-4,4,7,-7,0,73,-9,-24,-19,-53,9
-19,-9,9,14,-14,0,73,-9,-24,-19,-53,9
-29,-9,19,19,-24,4,73,-9,-24,-19,-53,4
-29,-19,9,24,-19,-4,73,-9,-24,-19,-58,-4
-29,-29,0,29,-14,-14,73,-9,-24,-19,-58,-4
-29,-34,-4,31,-12,-19,73,-14,-24,-19,-58,-4
-29,-39,-9,34,-9,-24,73,-14,-24,-14,-58,-4
-29,-48,-19,39,-4,-34,73,-9,-24,-24,-53,-4
-39,-48,-9,43,-14,-29,68,-9,-19,-19,-58,0
-39,-39,0,39,-19,-19,68,-9,-19,-19,-58,0
-39,-39,0,39,-19,-19,68,-9,-19,-19,-58,0
-39,-39,0,39,-19,-19,68,-9,-19,-19,-58,0
-39,-39,0,39,-19,-19,68,-9,-19,-19,-58,0
-29,-24,4,26,-17,-9,78,-4,-9,-9,-48,4
-19,-19,0,19,-9,-9,78,0,-9,-9,-48,9
-9,-14,-4,12,-2,-9,78,4,-9,-9,-48,14
0,-9,-9,4,4,-9,78,9,-9,-9,-48,19
-9,-19,-9,14,0,-14,87,9,-9,-19,-58,14
-9,-19,-9,14,0,-14,87,9,-9,-19,-58,9
-9,-19,-9,14,0,-14,87,9,-9,-19,-58,4
-9,-19,-9,14,0,-14,87,9,-9,-19,-58,0
-14,-24,-9,19,-2,-17,78,9,-9,-19,-58,-9
-19,-29,-9,24,-4,-19,78,9,-9,-19,-58,-9
-24,-34,-9,29,-7,-21,78,9,-9,-19,-58,-9
-29,-39,-9,34,-9,-24,78,9,-9,-19,-58,-9
-19,-29,-9,24,-4,-19,68,19,-9,-19,-58,0
-19,-19,0,19,-9,-9,68,19,-9,-19,-58,0
-19,-9,9,14,-14,0,68,19,-9,-19,-58,0
-19,0,19,9,-19,9,68,19,-9,-19,-58,0
-9,-4,4,7,-7,0,73,29,-4,-14,-53,9
-9,-9,0,9,-4,-4,78,29,0,-9,-48,9
-9,-14,-4,12,-2,-9,82,29,4,-4,-43,9
-9,-19,-9,14,0,-14,87,29,9,0,-39,9
-19,-24,-4,21,-7,-14,87,39,19,-9,-48,9
-19,-29,-9,24,-4,-19,87,39,19,-9,-48,9
-19,-34,-14,26,-2,-24,87,39,19,-9,-48,9
-19,-39,-19,29,0,-29,87,39,19,-9,-48,9
-19,-29,-9,24,-4,-19,82,29,9,-19,-58,0
-19,-19,0,19,-9,-9,78,29,9,-19,-58,0
-19,-9,9,14,-14,0,73,29,9,-19,-58,0
-19,0,19,9,-19,9,68,29,9,-19,-58,0
-19,-4,14,12,-17,4,78,39,19,-4,-53,0
-19,-9,9,14,-14,0,78,39,19,0,-48,0
-19,-14,4,17,-12,-4,78,39,19,4,-43,0
-19,-19,0,19,-9,-9,78,39,19,9,-39,0
-24,-29,-4,26,-9,-17,87,29,9,-4,-43,-4
-29,-29,0,29,-14,-14,87,29,9,-9,-48,-9
-34,-29,4,31,-19,-12,87,29,9,-14,-53,-14
-39,-29,9,34,-24,-9,87,29,9,-19,-58,-19
-29,-24,4,26,-17,-9,87,29,9,-29,-58,-19
-29,-19,9,24,-19,-4,87,29,9,-29,-58,-19
-29,-14,14,21,-21,0,87,29,9,-29,-58,-19
-29,-9,19,19,-24,4,87,29,9,-29,-58,-19
-19,-19,0,19,-9,-9,78,29,19,-19,-58,-9
-19,-19,0,19,-9,-9,78,29,19,-19,-58,-9
-19,-19,0,19,-9,-9,78,29,19,-19,-58,-9
-19,-19,0,19,-9,-9,78,29,19,-19,-58,-9
-29,-29,0,29,-14,-14,78,29,9,-9,-48,0
-29,-29,0,29,-14,-14,78,29,9,-9,-48,0
-29,-29,0,29,-14,-14,78,29,9,-9,-48,0
-29,-29,0,29,-14,-14,78,29,9,-9,-48,0
-39,-29,9,34,-24,-9,68,24,0,-14,-53,-9
-39,-29,9,34,-24,-9,68,19,0,-19,-58,-9
-39,-29,9,34,-24,-9,68,14,0,-24,-63,-9
-39,-29,9,34,-24,-9,68,9,0,-29,-68,-9
-39,-39,0,39,-19,-19,68,19,0,-19,-58,-9
-29,-29,0,29,-14,-14,68,19,9,-19,-58,-9
-19,-19,0,19,-9,-9,68,29,9,-9,-48,0
-19,-19,0,19,-9,-9,68,19,19,0,-39,9
-9,-19,-9,14,0,-14,68,29,29,19,-19,19
9,-9,-19,0,14,-14,78,29,48,39,0,39
9,19,9,-14,0,14,78,39,58,58,19,48
9,39,29,-24,-9,34,68,29,58,48,19,48
19,39,19,-29,0,29,68,39,68,58,29,58
19,29,9,-24,4,19,68,48,87,78,48,78
19,19,0,-19,9,9,78,58,107,97,58,87
19,19,0,-19,9,9,78,58,117,117,78,97
19,48,29,-34,-4,39,68,48,117,126,87,107
19,68,48,-43,-14,58,58,39,107,117,97,117
9,68,58,-39,-24,63,68,48,117,136,117,126
9,68,58,-39,-24,63,68,48,146,165,146,175
19,97,78,-58,-29,87,58,48,156,195,185,204
29,107,78,-68,-24,92,48,29,165,204,195,224
29,117,87,-73,-29,102,39,29,165,214,204,234
39,126,87,-82,-24,107,39,39,185,224,224,244
68,136,68,-102,0,102,39,58,204,244,234,253
87,126,39,-107,24,82,48,78,214,244,234,244
97,97,0,-97,48,48,68,117,244,244,224,224
107,48,-58,-78,82,-4,126,175,263,244,195,175
107,-29,-136,-39,122,-82,175,234,292,224,146,107
107,-97,-204,-4,156,-151,214,283,312,214,107,48
136,-165,-302,14,219,-234,244,351,361,234,107,19
165,-214,-380,24,273,-297,273,419,419,263,117,9
175,-253,-429,39,302,-341,302,488,468,283,126,-9
185,-283,-468,48,326,-375,312,527,507,302,136,-9
195,-331,-527,68,361,-429,341,585,536,331,156,-19
204,-380,-585,87,395,-483,390,653,585,361,146,-58
214,-429,-644,107,429,-536,429,741,663,409,165,-87
253,-448,-702,97,478,-575,458,839,790,507,214,-87
283,-458,-741,87,512,-600,497,936,917,595,263,-97
283,-488,-771,102,527,-629,536,1034,1024,644,253,-136
283,-566,-849,141,566,-707,595,1151,1102,653,214,-195
273,-644,-917,185,595,-780,653,1268,1171,663,165,-263
263,-663,-927,200,595,-795,692,1356,1220,644,126,-322
253,-683,-936,214,595,-810,751,1424,1239,585,48,-400
234,-741,-976,253,605,-858,819,1522,1249,478,-87,-517
185,-829,-1015,322,600,-922,907,1620,1220,331,-263,-663
126,-878,-1005,375,566,-941,966,1668,1161,175,-429,-790
87,-907,-995,409,541,-951,985,1688,1093,48,-546,-878
58,-927,-985,434,522,-956,995,1708,1044,-29,-624,-927
29,-966,-995,468,512,-980,1034,1756,1005,-78,-673,-946
19,-985,-1005,483,512,-995,1054,1795,976,-107,-692,-966
19,-985,-1005,483,512,-995,1054,1805,946,-126,-692,-946
19,-995,-1015,488,517,-1005,1054,1825,917,-146,-702,-936
-9,-1005,-995,507,492,-1000,1083,1834,897,-175,-722,-966
-58,-1024,-966,541,453,-995,1093,1834,858,-224,-761,-995
-97,-1024,-927,561,414,-976,1102,1834,819,-273,-810,-1024
-126,-1034,-907,580,390,-971,1112,1854,790,-322,-839,-1034
-146,-1063,-917,605,385,-990,1132,1864,741,-361,-878,-1054
-165,-1093,-927,629,380,-1010,1151,1873,702,-390,-897,-1063
-185,-1083,-897,634,356,-990,1151,1873,673,-400,-907,-1063
-214,-1063,-849,639,317,-956,1151,1864,653,-400,-897,-1054
-234,-1063,-829,649,297,-946,1151,1825,634,-390,-868,-1024
-244,-1044,-800,644,278,-922,1151,1805,634,-370,-839,-976
-253,-995,-741,624,244,-868,1132,1766,614,-361,-810,-936
-263,-917,-653,590,195,-785,1093,1688,585,-361,-790,-888
-283,-839,-556,561,136,-697,1044,1590,566,-341,-741,-829
-292,-761,-468,527,87,-614,1005,1512,536,-302,-683,-761
-302,-692,-390,497,43,-541,976,1444,507,-283,-634,-692
-312,-624,-312,468,0,-468,927,1356,478,-253,-585,-634
-302,-575,-273,439,-14,-424,878,1268,448,-224,-527,-575
-302,-536,-234,419,-34,-385,849,1210,429,-214,-497,-536
-302,-497,-195,400,-53,-346,839,1190,419,-224,-497,-517
-283,-458,-175,370,-53,-317,839,1220,419,-224,-488,-497
-253,-448,-195,351,-29,-322,849,1288,439,-204,-458,-468
-214,-468,-253,341,19,-361,858,1346,439,-175,-419,-429
-185,-468,-283,326,48,-375,858,1356,400,-165,-390,-390
-175,-478,-302,326,63,-390,878,1376,361,-165,-380,-370
-165,-497,-331,331,82,-414,917,1444,351,-156,-361,-361
-156,-488,-331,322,87,-409,946,1473,341,-156,-351,-351
