I,II,III,aVR,aVL,aVF,V1,V2,V3,V4,V5,V6
-48,0,48,24,-48,24,48,29,-9,9,0,-58
-48,0,48,24,-48,24,48,29,-9,9,0,-58
-48,0,48,24,-48,24,48,29,-9,9,0,-58
-48,0,48,24,-48,24,48,29,-9,9,0,-58
-34,4,39,14,-36,21,39,24,-19,4,0,-68
-29,9,39,9,-34,24,39,19,-19,0,0,-68
-24,14,39,4,-31,26,39,14,-19,-4,0,-68
-19,19,39,0,-29,29,39,9,-19,-9,0,-68
-19,4,24,7,-21,14,39,19,-19,0,9,-58
-19,0,19,9,-19,9,39,19,-19,0,9,-58
-19,-4,14,12,-17,4,39,19,-19,0,9,-58
-19,-9,9,14,-14,0,39,19,-19,0,9,-58
-9,-4,4,7,-7,0,48,19,-29,0,9,-58
-9,0,9,4,-9,4,48,19,-29,0,9,-58
-9,4,14,2,-12,9,48,19,-29,0,9,-58
-9,9,19,0,-14,14,48,19,-29,0,9,-58
0,19,19,-9,-9,19,39,29,-29,0,9,-58
0,19,19,-9,-9,19,39,29,-29,0,9,-58
0,19,19,-9,-9,19,39,29,-29,0,9,-58
0,19,19,-9,-9,19,39,29,-29,0,9,-58
-9,19,29,-4,-19,24,43,29,-29,9,19,-53
-9,19,29,-4,-19,24,48,29,-29,9,19,-48
-9,19,29,-4,-19,24,53,29,-29,9,19,-43
-9,19,29,-4,-19,24,58,29,-29,9,19,-39
-9,29,39,-9,-24,34,48,29,-19,9,29,-39
-9,29,39,-9,-24,34,48,29,-19,9,29,-39
-9,29,39,-9,-24,34,48,29,-19,9,29,-39
-9,29,39,-9,-24,34,48,29,-19,9,29,-39
-9,43,53,-17,-31,48,63,34,-14,19,29,-34
-9,48,58,-19,-34,53,68,39,-9,19,29,-29
-9,53,63,-21,-36,58,73,43,-4,19,29,-24
-9,58,68,-24,-39,63,78,48,0,19,29,-19
-4,58,63,-26,-34,61,87,58,0,29,29,-29
0,58,58,-29,-29,58,87,58,0,29,29,-29
4,58,53,-31,-24,56,87,58,0,29,29,-29
14,58,43,-36,-14,51,87,68,0,29,29,-29
9,53,43,-31,-17,48,102,58,9,29,24,-29
4,53,48,-29,-21,51,107,58,9,29,24,-24
-4,43,48,-19,-26,46,107,58,9,39,24,-24
-14,43,58,-14,-36,51,102,58,9,39,24,-24
-4,58,63,-26,-34,61,92,68,9,48,29,-14
0,68,68,-34,-34,68,87,63,9,48,34,-9
0,78,78,-39,-39,78,87,58,9,48,34,-4
0,82,82,-41,-41,82,87,58,9,48,39,-4
4,63,58,-34,-26,61,68,53,0,43,29,-19
19,58,39,-39,-9,48,68,48,0,39,24,-14
24,58,34,-41,-4,46,63,43,0,34,19,-19
34,53,19,-43,7,36,63,39,0,29,14,-24
24,58,34,-41,-4,46,63,43,0,34,19,-14
19,53,34,-36,-7,43,63,43,0,39,19,-19
19,48,29,-34,-4,39,58,39,-4,39,19,-19
19,48,29,-34,-4,39,58,39,-4,43,24,-19
19,68,48,-43,-14,58,53,34,4,43,24,-4
19,68,48,-43,-14,58,43,34,4,39,24,-4
19,68,48,-43,-14,58,39,24,-4,39,24,-4
19,68,48,-43,-14,58,39,19,-4,39,24,-9
43,68,24,-56,9,46,24,9,-19,34,19,-19
63,78,14,-70,24,46,24,9,-19,34,14,-19
73,63,-9,-68,41,26,19,9,-19,34,9,-19
78,63,-14,-70,46,24,19,9,-19,34,4,-19
68,48,-19,-58,43,14,34,24,-9,43,9,-9
53,48,-4,-51,29,21,34,24,-9,39,14,-9
43,43,0,-43,21,21,24,19,-9,39,19,-14
39,43,4,-41,17,24,24,19,-9,39,24,-14
39,39,0,-39,19,19,14,9,-14,34,24,-14
48,39,-9,-43,29,14,9,9,-19,34,24,-14
48,43,-4,-46,26,19,9,9,-24,39,24,-9
48,43,-4,-46,26,19,9,9,-29,39,24,-4
58,53,-4,-56,31,24,14,9,-24,53,34,4
58,53,-4,-56,31,24,19,14,-19,53,34,4
58,48,-9,-53,34,19,24,19,-14,53,34,4
58,39,-19,-48,39,9,29,24,-14,39,34,4
63,39,-24,-51,43,7,24,19,-24,39,19,-14
63,39,-24,-51,43,7,29,19,-24,39,19,-14
63,39,-24,-51,43,7,29,29,-19,39,14,-19
53,39,-14,-46,34,12,29,29,-19,39,14,-19
48,48,0,-48,24,24,48,43,-14,39,24,-19
29,34,4,-31,12,19,53,43,-9,34,24,-24
19,29,9,-24,4,19,63,34,-4,34,24,-24
14,29,14,-21,0,21,68,34,-4,34,24,-24
9,24,14,-17,-2,19,53,29,-14,14,9,-29
4,24,19,-14,-7,21,53,29,-14,14,9,-29
4,19,14,-12,-4,17,53,29,-19,14,0,-34
4,9,4,-7,0,7,53,19,-24,14,0,-39
-4,4,9,0,-7,7,63,19,-24,14,0,-39
-4,4,9,0,-7,7,68,24,-24,9,0,-39
0,4,4,-2,-2,4,68,24,-24,9,0,-39
0,0,0,0,0,0,63,24,-24,9,0,-39
9,0,-9,-4,9,-4,53,24,-39,9,-9,-48
9,0,-9,-4,9,-4,53,24,-39,0,-9,-48
14,9,-4,-12,9,2,53,24,-39,0,-9,-48
14,9,-4,-12,9,2,48,24,-39,4,-9,-48
4,-4,-9,0,7,-7,48,14,-29,4,0,-39
0,-9,-9,4,4,-9,53,9,-29,9,0,-39
-4,-9,-4,7,0,-7,53,9,-29,9,0,-39
-9,-9,0,9,-4,-4,53,4,-29,9,0,-34
-9,-4,4,7,-7,0,63,9,-34,19,9,-34
-4,0,4,2,-4,2,63,14,-34,19,9,-34
0,4,4,-2,-2,4,63,14,-34,19,9,-34
4,9,4,-7,0,7,63,19,-34,19,9,-34
4,19,14,-12,-4,17,53,14,-34,9,0,-39
4,19,14,-12,-4,17,53,14,-34,9,0,-39
9,19,9,-14,0,14,53,14,-34,9,0,-34
9,19,9,-14,0,14,48,14,-34,9,0,-34
14,19,4,-17,4,12,48,14,-34,19,4,-34
14,19,4,-17,4,12,48,14,-34,19,9,-34
14,24,9,-19,2,17,53,14,-34,29,14,-34
14,24,9,-19,2,17,53,14,-34,29,19,-34
9,4,-4,-7,7,0,63,14,-29,34,29,-24
-4,-4,0,4,-2,-2,63,14,-29,39,24,-24
-9,-9,0,9,-4,-4,68,24,-29,43,24,-24
-14,-9,4,12,-9,-2,73,24,-24,53,24,-24
-14,14,29,0,-21,21,73,14,-34,43,14,-24
-29,19,48,4,-39,34,82,14,-34,43,14,-24
-34,24,58,4,-46,41,97,14,-34,48,14,-19
-43,34,78,4,-61,56,102,14,-34,53,14,-19
-39,24,63,7,-51,43,131,19,-34,53,14,-19
-29,24,53,2,-41,39,141,14,-24,68,24,-4
-39,34,73,2,-56,53,146,4,-24,78,19,4
-39,39,78,0,-58,58,141,0,-19,78,24,0
-9,63,73,-26,-41,68,151,0,0,92,43,4
9,58,48,-34,-19,53,146,-14,24,117,53,19
-9,39,48,-14,-29,43,131,-53,48,141,73,29
0,73,73,-36,-36,73,87,-112,63,185,97,48
39,107,68,-73,-14,87,34,-190,82,229,136,73
53,107,53,-80,0,80,-53,-278,78,253,151,92
82,92,9,-87,36,51,-190,-346,68,278,170,107
126,82,-43,-104,85,19,-331,-409,53,278,190,112
161,53,-107,-107,134,-26,-512,-483,34,292,204,112
200,53,-146,-126,173,-46,-732,-551,29,317,248,151
302,97,-204,-200,253,-53,-932,-639,9,366,312,185
405,136,-268,-270,336,-65,-1088,-732,-4,409,366,219
444,126,-317,-285,380,-95,-1239,-824,-14,434,414,253
473,146,-326,-309,400,-90,-1395,-932,-29,453,448,287
561,204,-356,-383,458,-75,-1532,-1005,-9,483,488,322
639,234,-405,-436,522,-85,-1615,-1034,24,483,507,341
688,190,-497,-439,592,-153,-1659,-995,58,439,488,312
727,126,-600,-427,663,-236,-1654,-907,63,341,409,244
727,68,-658,-397,692,-295,-1595,-800,53,229,326,175
717,9,-707,-363,712,-348,-1532,-688,43,112,248,112
727,-68,-795,-329,761,-431,-1449,-575,19,-34,156,29
741,-156,-897,-292,819,-527,-1356,-424,0,-175,39,-63
761,-229,-990,-265,875,-610,-1263,-302,-9,-283,-43,-136
761,-283,-1044,-239,902,-663,-1156,-204,-9,-331,-87,-161
761,-312,-1073,-224,917,-692,-1049,-146,-39,-336,-97,-175
746,-331,-1078,-207,912,-705,-971,-131,-112,-370,-141,-209
702,-356,-1058,-173,880,-707,-902,-141,-224,-429,-185,-258
688,-366,-1054,-161,871,-710,-814,-190,-326,-473,-229,-283
658,-380,-1039,-139,849,-710,-732,-263,-424,-502,-258,-312
595,-395,-990,-100,793,-692,-663,-331,-512,-561,-307,-351
527,-419,-946,-53,736,-683,-595,-375,-575,-605,-351,-380
483,-444,-927,-19,705,-685,-527,-405,-595,-610,-370,-390
434,-458,-893,12,663,-675,-468,-434,-619,-614,-385,-395
390,-492,-883,51,636,-688,-429,-473,-653,-649,-419,-419
336,-522,-858,92,597,-690,-390,-473,-663,-649,-439,-429
312,-522,-834,104,573,-678,-361,-444,-634,-624,-439,-434
307,-473,-780,82,544,-627,-331,-414,-614,-610,-444,-434
292,-444,-736,75,514,-590,-302,-409,-614,-610,-453,-444
244,-458,-702,107,473,-580,-268,-390,-580,-585,-448,-429
219,-453,-673,117,446,-563,-244,-366,-541,-561,-439,-419
234,-414,-649,90,441,-531,-219,-346,-497,-527,-419,-395
234,-370,-605,68,419,-488,-185,-317,-453,-473,-380,-361
214,-326,-541,56,378,-434,-156,-278,-409,-414,-346,-322
195,-307,-502,56,348,-405,-136,-244,-366,-375,-322,-297
170,-258,-429,43,300,-344,-107,-200,-326,-351,-297,-273
165,-185,-351,9,258,-268,-73,-131,-278,-307,-248,-224
161,-126,-287,-17,224,-207,-39,-68,-204,-244,-195,-175
136,-97,-234,-19,185,-165,0,-19,-156,-180,-161,-141
97,-92,-190,-2,143,-141,29,9,-117,-151,-136,-122
82,-82,-165,0,124,-124,43,24,-78,-131,-122,-112
78,-39,-117,-19,97,-78,63,39,-63,-112,-112,-97
48,-14,-63,-17,56,-39,92,68,-39,-92,-92,-87
9,-4,-14,-2,12,-9,107,92,-29,-73,-78,-68
14,4,-9,-9,12,-2,107,122,-14,-58,-63,-48
9,19,9,-14,0,14,126,156,14,-48,-43,-43
0,34,34,-17,-17,34,136,175,34,-34,-39,-43
-14,24,39,-4,-26,31,136,170,39,-34,-48,-39
-24,24,48,0,-36,36,141,170,34,-29,-48,-39
-24,14,39,4,-31,26,146,170,29,-29,-43,-39
-24,14,39,4,-31,26,146,175,34,-19,-39,-34
-19,14,34,2,-26,24,161,190,48,-9,-29,-24
-24,14,39,4,-31,26,165,195,48,-9,-29,-24
-34,14,48,9,-41,31,170,204,48,-9,-29,-24
-48,14,63,17,-56,39,180,209,48,-9,-29,-24
-19,24,43,-2,-31,34,170,200,48,-9,-39,-34
-14,29,43,-7,-29,36,170,204,48,-14,-34,-34
-14,29,43,-7,-29,36,170,209,53,-14,-34,-34
-9,24,34,-7,-21,29,170,214,53,-14,-34,-34
-4,24,29,-9,-17,26,175,204,39,-14,-24,-34
-4,29,34,-12,-19,31,175,209,39,-14,-24,-29
-9,29,39,-9,-24,34,175,209,43,-4,-14,-14
-24,29,53,-2,-39,41,175,214,43,-4,-14,-4
-34,29,63,2,-48,46,180,224,43,4,-4,-14
-48,29,78,9,-63,53,185,229,48,9,-9,-19
-53,34,87,9,-70,61,195,234,53,9,-9,-19
-53,34,87,9,-70,61,200,239,58,9,-9,-19
-29,43,73,-7,-51,58,190,234,58,4,-19,-24
-19,43,63,-12,-41,53,190,239,53,4,-19,-19
-9,39,48,-14,-29,43,190,234,48,4,-19,-19
0,39,39,-19,-19,39,190,229,43,4,-19,-19
-4,34,39,-14,-21,36,190,234,53,9,-14,-24
-14,34,48,-9,-31,41,190,239,58,4,-14,-24
-19,34,53,-7,-36,43,190,239,58,9,-14,-24
-19,34,53,-7,-36,43,190,239,58,4,-14,-19
-19,39,58,-9,-39,48,190,244,48,0,-24,-14
-19,39,58,-9,-39,48,190,244,53,4,-24,-9
-24,39,63,-7,-43,51,190,248,53,4,-24,-9
-24,39,63,-7,-43,51,190,253,53,4,-24,-9
-34,39,73,-2,-53,56,204,263,63,9,-24,-14
-34,43,78,-4,-56,61,204,263,63,9,-24,-14
-34,43,78,-4,-56,61,204,268,63,9,-24,-14
-34,53,87,-9,-61,70,204,268,58,4,-29,-19
-34,43,78,-4,-56,61,214,268,58,-4,-39,-9
-34,39,73,-2,-53,56,214,273,63,-4,-39,-9
-29,39,68,-4,-48,53,214,278,68,-4,-39,-9
-29,43,73,-7,-51,58,219,278,68,-4,-39,-9
-29,39,68,-4,-48,53,219,287,78,-4,-34,-9
-29,29,58,0,-43,43,214,287,78,-4,-39,-9
-34,19,53,7,-43,36,214,287,78,-4,-39,-9
-34,14,48,9,-41,31,219,292,78,-4,-34,-9
-29,24,53,2,-41,39,219,283,68,-9,-39,-19
-29,34,63,-2,-46,48,224,283,63,-9,-39,-19
-34,43,78,-4,-56,61,224,287,68,-9,-34,-14
-39,48,87,-4,-63,68,224,287,63,-9,-34,-14
-48,34,82,7,-65,58,214,287,73,-19,-43,-14
-48,29,78,9,-63,53,214,297,73,-19,-43,-24
-39,34,73,2,-56,53,219,297,78,-19,-43,-24
-39,29,68,4,-53,48,219,297,78,-24,-43,-24
-39,34,73,2,-56,53,229,292,73,-34,-43,-29
-34,39,73,-2,-53,56,229,297,68,-34,-43,-29
-34,39,73,-2,-53,56,229,297,68,-34,-39,-29
-34,43,78,-4,-56,61,234,297,68,-34,-39,-29
-24,48,73,-12,-48,61,244,307,78,-24,-39,-24
-24,53,78,-14,-51,65,244,307,78,-24,-39,-24
-34,53,87,-9,-61,70,244,312,78,-19,-39,-19
-34,53,87,-9,-61,70,244,312,78,-19,-39,-14
-24,58,82,-17,-53,70,244,312,68,-19,-39,-14
-29,58,87,-14,-58,73,244,317,63,-24,-39,-19
-34,58,92,-12,-63,75,244,317,63,-29,-39,-19
-34,58,92,-12,-63,75,244,326,63,-29,-39,-19
-29,53,82,-12,-56,68,248,326,78,-24,-29,-9
-29,48,78,-9,-53,63,258,326,78,-24,-29,-9
-24,43,68,-9,-46,56,258,331,78,-24,-29,-4
-24,39,63,-7,-43,51,268,341,78,-24,-29,-4
-14,48,63,-17,-39,56,258,341,87,-34,-29,-14
-19,48,68,-14,-43,58,253,341,82,-34,-29,-14
-24,48,73,-12,-48,61,253,341,82,-29,-29,-14
-29,53,82,-12,-56,68,253,336,82,-29,-29,-14
-39,43,82,-2,-61,63,263,336,82,-24,-39,-4
-58,39,97,9,-78,68,263,346,82,-29,-39,-4
-68,39,107,14,-87,73,263,346,82,-29,-39,-4
-68,39,107,14,-87,73,263,346,78,-29,-34,-4
-53,39,92,7,-73,65,263,346,87,-19,-34,-24
-39,43,82,-2,-61,63,263,346,87,-24,-39,-24
-29,43,73,-7,-51,58,263,346,87,-29,-39,-19
-19,43,63,-12,-41,53,263,351,87,-29,-39,-19
-24,53,78,-14,-51,65,268,346,87,-24,-39,-9
-34,63,97,-14,-65,80,283,346,82,-24,-39,-9
-43,53,97,-4,-70,75,273,341,78,-24,-39,-9
-48,53,102,-2,-75,78,268,341,63,-29,-43,-9
-43,48,92,-2,-68,70,278,351,73,-29,-43,-19
-53,48,102,2,-78,75,283,361,73,-29,-43,-14
-43,48,92,-2,-68,70,292,361,78,-24,-34,-14
-29,53,82,-12,-56,68,292,361,78,-24,-34,-14
-34,63,97,-14,-65,80,278,366,87,-34,-34,-4
-53,73,126,-9,-90,100,278,366,87,-34,-39,-4
-58,73,131,-7,-95,102,278,366,87,-34,-39,-4
-68,68,136,0,-102,102,278,366,82,-39,-39,-4
-58,58,117,0,-87,87,287,366,73,-34,-39,-14
-53,63,117,-4,-85,90,287,361,68,-39,-39,-14
-48,63,112,-7,-80,87,287,356,68,-43,-43,-14
-43,53,97,-4,-70,75,287,346,68,-43,-43,-19
-48,53,102,-2,-75,78,297,356,73,-34,-34,-14
-63,53,117,4,-90,85,297,351,73,-34,-34,-4
-68,53,122,7,-95,87,297,346,73,-34,-34,0
-68,58,126,4,-97,92,287,341,68,-39,-34,4
-53,68,122,-7,-87,95,287,331,63,-29,-43,-4
-58,68,126,-4,-92,97,287,326,58,-29,-39,0
-63,58,122,2,-92,90,287,322,58,-29,-39,4
-58,58,117,0,-87,87,278,312,53,-29,-39,4
-58,68,126,-4,-92,97,273,302,48,-29,-34,0
-58,68,126,-4,-92,97,268,297,43,-34,-34,0
-58,73,131,-7,-95,102,268,283,39,-34,-34,0
-58,73,131,-7,-95,102,263,278,39,-29,-34,0
-53,73,126,-9,-90,100,258,253,24,-34,-43,-9
-48,73,122,-12,-85,97,258,248,19,-34,-43,-9
-48,68,117,-9,-82,92,253,244,14,-29,-43,0
-58,68,126,-4,-92,97,253,234,9,-29,-43,0
-68,63,131,2,-100,97,258,224,9,-39,-48,0
-68,53,122,7,-95,87,253,214,0,-39,-48,0
-58,68,126,-4,-92,97,248,200,0,-39,-39,4
-58,68,126,-4,-92,97,248,195,4,-34,-24,9
-73,63,136,4,-104,100,229,195,-4,-34,-34,9
-73,68,141,2,-107,104,229,180,-14,-34,-34,9
-53,63,117,-4,-85,90,229,170,-24,-34,-34,14
-48,58,107,-4,-78,82,219,156,-29,-43,-34,14
-48,48,97,0,-73,73,209,126,-39,-43,-39,4
-43,58,102,-7,-73,80,200,117,-43,-39,-43,4
-34,58,92,-12,-63,75,200,107,-43,-39,-43,4
-34,58,92,-12,-63,75,190,97,-53,-39,-39,9
-39,73,112,-17,-75,92,190,92,-43,-24,-24,0
-43,73,117,-14,-80,95,190,92,-48,-24,-24,4
-43,58,102,-7,-73,80,185,78,-48,-19,-24,4
-43,58,102,-7,-73,80,175,68,-53,-19,-24,4
-43,48,92,-2,-68,70,170,48,-63,-29,-19,4
-43,48,92,-2,-68,70,165,39,-63,-24,-19,4
-43,48,92,-2,-68,70,161,29,-73,-24,-19,0
-34,43,78,-4,-56,61,151,9,-78,-24,-19,0
-24,48,73,-12,-48,61,146,4,-68,-14,-14,9
-24,48,73,-12,-48,61,146,0,-68,-14,-14,9
-24,53,78,-14,-51,65,141,-9,-68,-4,-9,9
-24,53,78,-14,-51,65,141,-9,-73,-4,-9,9
-9,63,73,-26,-41,68,136,-9,-73,-4,-9,9
0,63,63,-31,-31,63,131,-19,-73,-9,-9,9
0,58,58,-29,-29,58,131,-29,-78,-14,-4,9
-9,53,63,-21,-36,58,131,-29,-78,-19,0,4
-9,68,78,-29,-43,73,136,-19,-68,-14,0,14
-9,73,82,-31,-46,78,131,-19,-68,-14,0,14
0,73,73,-36,-36,73,131,-19,-68,-14,0,14
0,78,78,-39,-39,78,131,-24,-68,-9,4,14
9,58,48,-34,-19,53,131,-14,-58,-9,4,24
14,53,39,-34,-12,46,136,-9,-48,0,14,24
14,63,48,-39,-17,56,146,0,-53,4,14,34
19,68,48,-43,-14,58,146,-9,-48,0,9,29
24,73,48,-48,-12,61,156,-4,-48,9,19,29
29,78,48,-53,-9,63,156,0,-48,9,19,29
34,82,48,-58,-7,65,156,4,-48,9,19,29
39,87,48,-63,-4,68,156,9,-48,9,19,29
48,78,29,-63,9,53,146,19,-43,14,19,39
53,78,24,-65,14,51,146,29,-39,19,19,39
53,82,29,-68,12,56,151,29,-34,24,24,39
53,82,29,-68,12,56,156,29,-29,29,24,43
39,58,19,-48,9,39,146,39,-29,39,24,34
34,53,19,-43,7,36,141,39,-29,39,24,34
34,48,14,-41,9,31,141,39,-29,39,24,39
39,48,9,-43,14,29,136,34,-29,39,24,39
29,53,24,-41,2,39,141,39,-39,39,19,39
29,53,24,-41,2,39,146,39,-39,39,19,34
29,48,19,-39,4,34,141,39,-39,39,24,34
39,48,9,-43,14,29,146,39,-39,39,24,43
43,63,19,-53,12,41,146,48,-34,39,24,43
53,73,19,-63,17,46,151,48,-29,39,24,43
58,78,19,-68,19,48,146,43,-24,39,19,43
58,82,24,-70,17,53,151,43,-19,39,19,39
43,63,19,-53,12,41,161,39,-34,29,14,29
39,58,19,-48,9,39,165,39,-34,24,14,29
34,63,29,-48,2,46,165,34,-34,19,9,34
29,58,29,-43,0,43,161,34,-34,9,4,34
14,48,34,-31,-9,41,170,29,-43,0,-4,24
9,48,39,-29,-14,43,175,29,-43,0,-4,19
9,48,39,-29,-14,43,175,34,-48,-4,-4,19
14,58,43,-36,-14,51,180,39,-48,-4,-4,19
24,58,34,-41,-4,46,185,39,-48,-4,-4,19
19,63,43,-41,-12,53,185,39,-48,-4,-4,19
19,63,43,-41,-12,53,190,43,-48,-4,-4,19
14,68,53,-41,-19,61,190,43,-48,-9,-4,19
24,63,39,-43,-7,51,195,43,-39,-4,4,14
29,63,34,-46,-2,48,200,48,-39,0,4,14
29,68,39,-48,-4,53,204,53,-39,9,4,14
39,68,29,-53,4,48,204,58,-39,14,4,14
34,63,29,-48,2,46,214,58,-39,19,14,19
29,63,34,-46,-2,48,214,58,-39,19,14,24
24,63,39,-43,-7,51,214,53,-39,24,14,24
19,63,43,-41,-12,53,214,53,-39,24,14,24
19,73,53,-46,-17,63,200,48,-34,34,4,34
19,68,48,-43,-14,58,195,43,-34,19,4,34
14,73,58,-43,-21,65,190,43,-29,19,0,24
14,78,63,-46,-24,70,195,39,-24,19,0,24
4,73,68,-39,-31,70,195,43,-29,9,4,19
-4,68,73,-31,-39,70,195,39,-39,9,4,19
-4,63,68,-29,-36,65,195,39,-48,9,4,19
-19,43,63,-12,-41,53,190,34,-58,4,4,14
-9,43,53,-17,-31,48,185,14,-68,-4,-4,14
-4,48,53,-21,-29,51,175,14,-73,-4,-4,14
-4,58,63,-26,-34,61,161,9,-73,-14,-9,9
-4,63,68,-29,-36,65,151,9,-73,-14,-9,9
0,68,68,-34,-34,68,141,9,-68,-9,-14,9
4,58,53,-31,-24,56,141,0,-73,-4,-9,9
9,53,43,-31,-17,48,141,0,-73,0,-4,14
14,53,39,-34,-12,46,146,4,-73,0,0,19
9,53,43,-31,-17,48,146,9,-82,-14,0,29
9,48,39,-29,-14,43,141,14,-82,-19,0,29
9,48,39,-29,-14,43,141,19,-87,-24,0,29
9,48,39,-29,-14,43,141,24,-87,-39,0,29
9,43,34,-26,-12,39,151,34,-87,-48,-9,19
4,39,34,-21,-14,36,146,34,-87,-43,-9,19
-4,29,34,-12,-19,31,146,29,-87,-43,-9,19
-9,19,29,-4,-19,24,151,29,-87,-39,-9,19
4,34,29,-19,-12,31,161,34,-87,-29,0,29
9,39,29,-24,-9,34,161,34,-87,-29,0,34
9,43,34,-26,-12,39,161,34,-82,-29,0,34
14,48,34,-31,-9,41,161,34,-82,-29,0,34
9,43,34,-26,-12,39,161,39,-73,-29,0,43
4,39,34,-21,-14,36,161,39,-73,-29,0,43
0,34,34,-17,-17,34,161,34,-73,-29,0,39
-4,29,34,-12,-19,31,161,34,-73,-29,0,39
-9,43,53,-17,-31,48,151,19,-63,-14,0,43
-9,48,58,-19,-34,53,146,14,-63,-9,0,43
-14,53,68,-19,-41,61,146,9,-63,-4,0,43
-14,58,73,-21,-43,65,146,4,-63,0,0,43
-4,53,58,-24,-31,56,151,19,-73,4,0,53
-4,53,58,-24,-31,56,151,24,-73,0,0,53
-4,48,53,-21,-29,51,151,29,-78,-4,0,53
-14,43,58,-14,-36,51,151,34,-78,-9,-4,53
-4,34,39,-14,-21,36,146,43,-78,0,4,63
-4,39,43,-17,-24,41,151,43,-73,4,4,63
-4,48,53,-21,-29,51,161,43,-73,4,4,63
-19,48,68,-14,-43,58,170,43,-73,4,4,63
-4,29,34,-12,-19,31,175,53,-82,0,-4,68
-34,24,58,4,-46,41,180,53,-63,4,4,78
-68,14,82,26,-75,48,190,48,-73,-4,-4,68
-58,14,73,21,-65,43,209,43,-82,-19,-14,63
-39,34,73,2,-56,53,234,53,-63,0,-9,73
-29,58,87,-14,-58,73,258,68,-39,19,4,87
-29,73,102,-21,-65,87,258,68,-29,34,14,92
-29,87,117,-29,-73,102,263,63,-4,39,14,107
-19,97,117,-39,-68,107,268,53,9,63,34,117
-9,82,92,-36,-51,87,253,14,14,68,48,136
0,87,87,-43,-43,87,219,-63,24,82,58,141
4,97,92,-51,-43,95,180,-161,29,97,82,151
14,82,68,-48,-26,75,102,-268,19,122,112,165
48,73,24,-61,12,48,-29,-370,-24,131,131,170
92,73,-19,-82,56,26,-190,-473,-43,156,165,190
151,73,-78,-112,114,-2,-419,-610,-78,170,200,219
224,58,-165,-141,195,-53,-707,-785,-126,180,244,253
307,78,-229,-192,268,-75,-961,-976,-170,214,297,297
366,97,-268,-231,317,-85,-1171,-1156,-209,239,336,322
424,97,-326,-261,375,-114,-1356,-1312,-244,258,370,336
522,146,-375,-334,448,-114,-1503,-1405,-224,307,429,380
619,224,-395,-422,507,-85,-1625,-1483,-190,366,488,439
678,268,-409,-473,544,-70,-1688,-1512,-185,380,517,468
717,234,-483,-475,600,-124,-1712,-1473,-209,322,488,448
746,165,-580,-456,663,-207,-1693,-1376,-200,219,414,390
746,97,-649,-422,697,-275,-1639,-1254,-180,92,317,307
746,39,-707,-392,727,-334,-1546,-1112,-175,-34,224,234
732,-29,-761,-351,746,-395,-1444,-971,-195,-156,117,161
722,-131,-854,-295,788,-492,-1342,-829,-224,-292,-4,58
722,-214,-936,-253,829,-575,-1234,-702,-244,-400,-97,-24
732,-244,-976,-244,854,-610,-1107,-575,-234,-444,-136,-58
727,-273,-1000,-226,863,-636,-1000,-492,-258,-468,-161,-63
712,-297,-1010,-207,861,-653,-902,-444,-322,-507,-185,-82
688,-326,-1015,-180,851,-671,-824,-424,-405,-561,-209,-107
658,-341,-1000,-158,829,-671,-751,-448,-492,-610,-239,-126
605,-356,-961,-124,783,-658,-663,-497,-561,-639,-268,-146
536,-400,-936,-68,736,-668,-585,-551,-614,-663,-302,-175
463,-444,-907,-9,685,-675,-517,-570,-644,-688,-331,-204
414,-458,-873,21,644,-666,-458,-580,-668,-702,-356,-219
370,-463,-834,46,602,-649,-409,-590,-692,-707,-370,-224
317,-492,-810,87,563,-651,-361,-600,-692,-707,-380,-234
283,-492,-775,104,529,-634,-322,-580,-663,-692,-390,-239
278,-453,-732,87,505,-592,-283,-541,-653,-678,-405,-239
244,-434,-678,95,461,-556,-253,-517,-644,-688,-414,-239
204,-448,-653,122,429,-551,-239,-488,-629,-683,-419,-244
170,-444,-614,136,392,-529,-214,-463,-610,-668,-419,-244
165,-424,-590,129,378,-507,-170,-434,-556,-634,-409,-219
165,-390,-556,112,361,-473,-146,-405,-502,-590,-370,-195
165,-346,-512,90,339,-429,-136,-385,-458,-531,-336,-156
146,-317,-463,85,305,-390,-117,-351,-424,-483,-292,-131
141,-278,-419,68,280,-348,-87,-317,-395,-448,-258,-97
146,-224,-370,39,258,-297,-63,-268,-346,-424,-219,-78
131,-175,-307,21,219,-241,-19,-195,-283,-390,-175,-39
107,-146,-253,19,180,-200,29,-117,-204,-326,-131,4
107,-102,-209,-2,158,-156,58,-68,-136,-268,-97,34
92,-63,-156,-14,124,-109,82,-24,-97,-209,-53,63
58,-39,-97,-9,78,-68,112,0,-82,-170,-14,97
48,-24,-73,-12,61,-48,122,19,-48,-131,4,117
39,14,-24,-26,31,-4,117,34,-19,-122,19,126
24,34,9,-29,7,21,126,53,-14,-117,24,126
0,9,9,-4,-4,9,156,87,-14,-117,24,131
-29,-14,14,21,-21,0,175,107,14,-122,29,131
-34,-14,19,24,-26,2,185,126,34,-117,29,146
-43,-14,29,29,-36,7,190,131,43,-107,29,146
-43,-24,19,34,-31,-2,195,136,53,-102,34,146
-43,-24,19,34,-31,-2,195,146,73,-87,39,151
-29,0,29,14,-29,14,185,151,68,-87,48,151
-24,4,29,9,-26,17,185,146,68,-87,48,151
-24,9,34,7,-29,21,185,146,68,-87,48,151
-29,14,43,7,-36,29,190,141,68,-87,48,151
-24,24,48,0,-36,36,195,156,78,-97,48,161
-24,29,53,-2,-39,41,200,165,87,-102,53,161
-29,29,58,0,-43,43,204,175,102,-102,53,161
-29,24,53,2,-41,39,209,185,112,-102,53,161
-29,19,48,4,-39,34,209,175,102,-112,48,161
-24,19,43,2,-34,31,204,170,97,-112,43,165
-24,14,39,4,-31,26,200,161,97,-102,48,180
-34,9,43,12,-39,26,195,156,92,-102,43,190
-29,9,39,9,-34,24,195,170,102,-102,29,180
-39,9,48,14,-43,29,195,170,107,-97,19,175
-39,14,53,12,-46,34,200,170,112,-97,14,175
-34,14,48,9,-41,31,200,170,117,-97,9,175
-29,19,48,4,-39,34,204,180,122,-92,0,170
-29,24,53,2,-41,39,209,190,122,-92,0,175
-29,24,53,2,-41,39,214,190,122,-92,0,175
-29,29,58,0,-43,43,219,190,122,-92,0,175
-29,24,53,2,-41,39,229,185,117,-82,-4,170
-34,24,58,4,-46,41,229,190,117,-82,-4,170
-34,24,58,4,-46,41,229,190,112,-73,-4,170
-29,24,53,2,-41,39,229,190,107,-73,-4,175
-34,9,43,12,-39,26,219,185,97,-78,4,175
-39,0,39,19,-39,19,219,185,102,-73,4,175
-48,-9,39,29,-43,14,219,190,102,-73,4,170
-53,-19,34,36,-43,7,219,195,102,-73,4,165
-53,-14,39,34,-46,12,214,195,87,-82,19,165
-53,-4,48,29,-51,21,214,195,82,-87,24,170
-53,0,53,26,-53,26,214,200,78,-92,29,175
-53,14,68,19,-61,41,214,200,68,-102,29,175
-43,24,68,9,-56,46,229,214,73,-97,43,190
-43,19,63,12,-53,41,234,224,82,-92,48,195
-39,19,58,9,-48,39,239,234,92,-87,53,200
-39,24,63,7,-51,43,248,239,97,-82,58,204
-34,34,68,0,-51,51,244,229,102,-82,68,195
-29,29,58,0,-43,43,234,229,107,-82,58,195
-29,24,53,2,-41,39,229,229,112,-82,53,195
-24,24,48,0,-36,36,229,234,117,-82,53,195
-34,24,58,4,-46,41,234,244,122,-78,39,180
-39,24,63,7,-51,43,244,244,122,-78,39,175
-48,24,73,12,-61,48,248,248,131,-78,43,175
-58,19,78,19,-68,48,253,248,131,-78,43,170
-53,19,73,17,-63,46,263,248,126,-68,43,170
-48,19,68,14,-58,43,263,258,122,-68,43,161
-34,29,63,2,-48,46,268,258,122,-68,43,161
-29,29,58,0,-43,43,268,258,117,-73,43,161
-34,29,63,2,-48,46,258,268,126,-63,34,151
-34,29,63,2,-48,46,258,278,126,-63,34,146
-39,24,63,7,-51,43,258,283,131,-63,39,141
-43,24,68,9,-56,46,263,287,136,-63,39,136
-39,19,58,9,-48,39,263,278,141,-58,39,126
-34,24,58,4,-46,41,263,278,146,-53,39,122
-39,24,63,7,-51,43,263,283,151,-43,39,122
-34,24,58,4,-46,41,263,283,156,-39,39,122
-53,14,68,19,-61,41,253,278,146,-48,29,107
-68,9,78,29,-73,43,253,278,141,-53,19,97
-82,4,87,39,-85,46,253,273,141,-58,9,92
-92,0,92,46,-92,46,253,278,141,-58,0,87
-82,9,92,36,-87,51,263,283,146,-53,9,97
-78,9,87,34,-82,48,278,287,146,-53,19,97
-68,9,78,29,-73,43,283,297,146,-53,29,102
-63,9,73,26,-68,41,297,312,146,-53,39,102
-58,19,78,19,-68,48,297,302,151,-39,29,92
-58,19,78,19,-68,48,292,302,151,-34,29,92
-58,19,78,19,-68,48,292,302,156,-24,29,92
-58,24,82,17,-70,53,292,297,161,-19,29,92
-73,9,82,31,-78,46,292,302,151,-43,19,82
-97,0,97,48,-97,48,292,317,141,-58,19,82
-112,-4,107,58,-109,51,292,322,131,-68,19,82
-117,-9,107,63,-112,48,292,326,117,-78,24,82
-117,-4,112,61,-114,53,292,317,122,-58,34,78
-107,4,112,51,-109,58,292,317,126,-53,29,82
-102,9,112,46,-107,61,292,317,131,-48,29,92
-97,14,112,41,-104,63,292,322,136,-39,29,97
-87,24,112,31,-100,68,297,326,156,-19,39,107
-92,34,126,29,-109,80,312,326,161,-14,48,107
-97,24,122,36,-109,73,302,322,165,-9,58,107
-97,24,122,36,-109,73,297,322,161,-9,63,107
-102,14,117,43,-109,65,307,331,141,-9,68,107
-112,9,122,51,-117,65,312,341,131,-9,73,112
-102,4,107,48,-104,56,322,341,126,-4,87,112
-87,4,92,41,-90,48,322,341,117,-4,92,112
-92,14,107,39,-100,61,307,326,126,0,82,122
-112,24,136,43,-124,80,307,326,126,4,78,122
-117,24,141,46,-129,82,307,326,126,9,78,122
-126,19,146,53,-136,82,307,326,122,9,78,122
-126,29,156,48,-141,92,307,317,112,4,87,136
-122,34,156,43,-139,95,307,312,107,0,87,141
-117,34,151,41,-134,92,307,307,107,-4,82,146
-112,24,136,43,-124,80,307,297,107,-4,82,146
-112,34,146,39,-129,90,297,287,112,-14,82,136
-122,34,156,43,-139,95,297,283,112,-14,82,141
-122,34,156,43,-139,95,297,278,112,-14,82,141
-117,39,156,39,-136,97,287,273,107,-19,82,141
-107,43,151,31,-129,97,287,253,102,-29,73,151
-117,48,165,34,-141,107,287,248,97,-29,78,156
-126,43,170,41,-148,107,287,244,97,-29,78,161
-126,48,175,39,-151,112,278,234,92,-29,78,161
-117,43,161,36,-139,102,273,234,87,-39,82,146
-117,39,156,39,-136,97,268,229,82,-43,82,146
-117,39,156,39,-136,97,268,214,78,-43,82,146
-117,34,151,41,-134,92,263,209,78,-39,82,146
-102,39,141,31,-122,90,268,190,73,-29,92,151
-97,43,141,26,-119,92,268,180,68,-24,92,156
-97,43,141,26,-119,92,263,170,63,-14,92,170
-107,48,156,29,-131,102,263,156,58,-9,92,175
-107,43,151,31,-129,97,258,156,58,-24,97,165
-107,34,141,36,-124,87,253,146,48,-29,97,165
-97,48,146,24,-122,97,248,131,48,-34,107,170
-97,48,146,24,-122,97,248,126,53,-34,122,175
-112,48,161,31,-136,104,229,107,63,-24,112,185
-112,58,170,26,-141,114,229,92,63,-24,112,185
-92,58,151,17,-122,104,229,82,63,-24,112,190
-87,58,146,14,-117,102,219,68,68,-34,112,190
-78,53,131,12,-104,92,209,58,48,-24,107,180
-73,68,141,2,-107,104,200,48,43,-19,102,180
-63,73,136,-4,-100,104,200,39,43,-19,102,180
-63,78,141,-7,-102,109,190,29,34,-19,107,185
-68,73,141,-2,-104,107,200,29,43,-29,107,175
-73,73,146,0,-109,109,200,24,39,-34,102,180
-73,58,131,7,-102,95,195,4,39,-34,97,180
-73,58,131,7,-102,95,185,-9,34,-39,92,180
-68,68,136,0,-102,102,190,-14,43,-34,87,170
-63,68,131,-2,-97,100,185,-19,53,-24,87,170
-58,68,126,-4,-92,97,180,-24,53,-19,87,165
-43,63,107,-9,-75,85,170,-39,58,-14,87,165
-48,43,92,2,-70,68,156,-43,39,-29,87,161
-53,39,92,7,-73,65,156,-48,29,-34,82,156
-58,39,97,9,-78,68,151,-58,19,-29,82,151
-63,34,97,14,-80,65,151,-58,4,-34,78,146
-68,43,112,12,-90,78,146,-68,9,-24,78,136
-58,43,102,7,-80,73,141,-78,14,-19,78,136
-58,39,97,9,-78,68,141,-87,14,-14,82,136
-68,34,102,17,-85,68,141,-87,19,-9,87,131
-63,34,97,14,-80,65,141,-82,9,-9,97,126
-58,34,92,12,-75,63,141,-78,9,-14,107,122
-43,29,73,7,-58,51,146,-73,9,-19,117,117
-39,29,68,4,-53,48,151,-73,9,-19,131,112
-29,34,63,-2,-46,48,151,-82,29,-9,146,107
-24,34,58,-4,-41,46,146,-78,29,-9,151,102
-24,29,53,-2,-39,41,146,-78,24,-4,156,97
-34,19,53,7,-43,36,146,-73,24,-4,161,92
-24,9,34,7,-29,21,146,-82,14,0,175,92
-29,9,39,9,-34,24,146,-78,14,4,175,92
-34,9,43,12,-39,26,146,-78,9,9,175,92
-48,9,58,19,-53,34,146,-78,4,9,175,92
-39,14,53,12,-46,34,146,-78,-4,9,170,82
-34,14,48,9,-41,31,146,-78,0,-9,165,82
-34,14,48,9,-41,31,146,-78,0,-19,161,82
-34,9,43,12,-39,26,146,-73,0,-29,161,82
-39,9,48,14,-43,29,161,-68,-9,-24,170,73
-39,4,43,17,-41,24,165,-68,-9,-24,180,73
-39,4,43,17,-41,24,170,-63,-4,-24,185,73
-39,9,48,14,-43,29,170,-58,-4,-19,190,78
-39,9,48,14,-43,29,180,-58,9,-4,190,87
-39,4,43,17,-41,24,175,-58,9,-4,195,87
-34,4,39,14,-36,21,175,-58,9,0,200,87
-29,9,39,9,-34,24,180,-53,9,4,214,92
-39,19,58,9,-48,39,170,-53,19,9,204,97
-34,19,53,7,-43,36,175,-53,19,9,190,102
-34,19,53,7,-43,36,175,-53,14,9,180,107
-34,19,53,7,-43,36,175,-53,9,9,170,112
-39,14,53,12,-46,34,180,-43,0,9,156,112
-43,4,48,19,-46,26,190,-43,4,9,151,112
-43,0,43,21,-43,21,195,-39,4,9,146,112
-43,0,43,21,-43,21,200,-39,4,9,141,117
-48,0,48,24,-48,24,200,-48,19,14,146,122
-48,0,48,24,-48,24,204,-48,29,19,146,126
-53,0,53,26,-53,26,214,-43,34,24,146,131
-53,0,53,26,-53,26,219,-43,39,29,146,136
-48,4,53,21,-51,29,219,-34,24,4,131,126
-43,14,58,14,-51,36,214,-29,24,-4,126,126
-43,14,58,14,-51,36,209,-29,29,-19,122,126
-43,9,53,17,-48,31,209,-29,29,-29,117,126
-43,9,53,17,-48,31,219,-39,34,-24,112,117
-43,9,53,17,-48,31,219,-39,39,-19,102,117
-53,4,58,24,-56,31,219,-39,48,-19,97,117
-58,4,63,26,-61,34,224,-39,58,-19,97,117
-48,9,58,19,-53,34,214,-43,48,-14,92,126
-48,14,63,17,-56,39,214,-43,43,-9,82,126
-48,19,68,14,-58,43,214,-43,43,0,73,122
-43,29,73,7,-58,51,214,-48,43,4,58,122
-43,29,73,7,-58,51,214,-43,34,4,43,112
-43,29,73,7,-58,51,214,-34,34,4,43,112
-48,29,78,9,-63,53,214,-29,34,4,39,117
-53,19,73,17,-63,46,214,-29,34,4,39,117
-68,19,87,24,-78,53,214,-39,39,19,24,126
-68,19,87,24,-78,53,214,-39,43,14,24,126
-68,14,82,26,-75,48,214,-39,48,19,24,126
-68,14,82,26,-75,48,214,-29,58,24,29,126
-68,14,82,26,-75,48,229,-14,53,24,14,131
-73,14,87,29,-80,51,229,-14,48,24,9,136
-73,19,92,26,-82,56,229,-19,43,24,4,141
-73,19,92,26,-82,56,229,-19,39,24,-4,146
-78,14,92,31,-85,53,219,-29,29,14,-29,146
-78,9,87,34,-82,48,214,-34,29,14,-48,146
-78,4,82,36,-80,43,209,-34,29,14,-68,141
-78,0,78,39,-78,39,209,-34,29,4,-92,141
-73,-4,68,39,-70,31,209,-24,24,4,-107,141
-68,0,68,34,-68,34,209,-19,19,4,-112,141
-63,9,73,26,-68,41,209,-19,14,4,-117,136
-58,24,82,17,-70,53,204,-19,4,4,-122,136
-58,34,92,12,-75,63,204,-14,14,4,-141,126
-58,34,92,12,-75,63,204,-19,9,9,-151,122
-53,34,87,9,-70,61,204,-19,4,14,-161,117
-43,39,82,2,-63,61,209,-19,4,24,-170,112
-43,29,73,7,-58,51,204,-24,0,14,-175,92
-48,24,73,12,-61,48,200,-24,-9,19,-180,78
-53,24,78,14,-65,51,195,-24,-19,19,-185,63
-58,24,82,17,-70,53,190,-24,-29,14,-190,34
-53,29,82,12,-68,56,180,-29,-24,0,-200,9
-48,34,82,7,-65,58,175,-29,-24,0,-200,0
-43,34,78,4,-61,56,175,-29,-24,0,-200,-9
-43,29,73,7,-58,51,180,-29,-24,0,-195,-24
-53,39,92,7,-73,65,190,-19,-34,4,-175,-34
-53,48,102,2,-78,75,190,-14,-34,9,-165,-39
-48,39,87,4,-68,63,195,-14,-29,4,-151,-48
-48,39,87,4,-68,63,195,-14,-29,0,-141,-58
-58,34,92,12,-75,63,190,-14,-39,-14,-126,-78
-58,39,97,9,-78,68,180,-19,-39,-19,-126,-92
-48,39,87,4,-68,63,175,-19,-39,-34,-122,-102
-43,43,87,0,-65,65,170,-14,-39,-43,-112,-112
-43,53,97,-4,-70,75,170,-14,-29,-48,-102,-122
-53,48,102,2,-78,75,170,-14,-29,-48,-107,-136
-53,43,97,4,-75,70,165,-14,-24,-53,-107,-151
-53,43,97,4,-75,70,165,-14,-24,-58,-102,-161
-34,39,73,-2,-53,56,165,-14,-34,-68,-117,-165
-34,43,78,-4,-56,61,161,-14,-39,-73,-122,-175
-39,43,82,-2,-61,63,156,-14,-39,-78,-126,-185
-39,43,82,-2,-61,63,151,-14,-39,-82,-131,-195
-24,53,78,-14,-51,65,161,-14,-29,-92,-126,-204
-19,48,68,-14,-43,58,156,-9,-29,-92,-126,-204
-14,43,58,-14,-36,51,156,-9,-29,-92,-126,-204
-9,43,53,-17,-31,48,156,-9,-29,-92,-126,-204
-14,48,63,-17,-39,56,156,0,-29,-82,-126,-200
-4,53,58,-24,-31,56,151,0,-29,-73,-126,-195
-19,53,73,-17,-46,63,151,0,-24,-68,-122,-190
-19,48,68,-14,-43,58,151,0,-24,-58,-122,-185
-9,58,68,-24,-39,63,151,0,-24,-48,-112,-180
-9,63,73,-26,-41,68,151,0,-24,-43,-102,-175
-9,63,73,-26,-41,68,151,0,-24,-43,-92,-170
-9,63,73,-26,-41,68,151,0,-24,-43,-82,-165
4,58,53,-31,-24,56,151,0,-34,-34,-68,-141
4,58,53,-31,-24,56,151,0,-34,-14,-68,-131
9,63,53,-36,-21,58,151,0,-34,-4,-63,-122
9,63,53,-36,-21,58,146,0,-34,4,-48,-117
19,63,43,-41,-12,53,156,0,-24,14,-43,-107
19,63,43,-41,-12,53,161,0,-24,19,-39,-92
9,63,53,-36,-21,58,161,0,-24,24,-34,-82
4,58,53,-31,-24,56,161,0,-24,29,-34,-73
-9,48,58,-19,-34,53,151,0,-24,34,-24,-53
-14,39,53,-12,-34,46,146,-4,-24,39,-24,-43
-14,34,48,-9,-31,41,141,-4,-29,43,-24,-34
-4,29,34,-12,-19,31,141,-9,-29,53,-24,-19
-4,39,43,-17,-24,41,151,0,-39,63,-24,4
-4,39,43,-17,-24,41,156,0,-39,68,-14,9
-4,39,43,-17,-24,41,161,4,-39,68,-4,14
-4,39,43,-17,-24,41,165,4,-39,68,-4,29
14,53,39,-34,-12,46,165,4,-29,87,4,34
24,58,34,-41,-4,46,170,9,-24,92,4,39
34,63,29,-48,2,46,170,9,-24,102,4,43
43,73,29,-58,7,51,165,9,-24,107,4,48
24,68,43,-46,-9,56,175,9,-29,112,9,58
14,63,48,-39,-17,56,175,9,-29,122,14,58
4,58,53,-31,-24,56,175,9,-29,131,19,58
-4,53,58,-24,-31,56,175,4,-29,146,24,58
4,53,48,-29,-21,51,175,4,-29,161,24,58
9,53,43,-31,-17,48,175,4,-29,165,24,58
19,53,34,-36,-7,43,175,4,-34,175,24,63
24,48,24,-36,0,36,175,4,-34,180,24,63
14,58,43,-36,-14,51,175,-4,-24,180,14,53
24,58,34,-41,-4,46,175,-4,-19,180,19,53
24,58,34,-41,-4,46,175,-4,-14,180,19,53
24,58,34,-41,-4,46,175,-4,-9,180,19,53
14,58,43,-36,-14,51,190,0,0,180,19,53
14,58,43,-36,-14,51,190,4,0,180,19,53
14,58,43,-36,-14,51,190,9,0,180,19,53
14,58,43,-36,-14,51,190,14,0,175,19,53
24,63,39,-43,-7,51,180,9,4,165,19,48
24,68,43,-46,-9,56,180,14,9,165,19,48
24,68,43,-46,-9,56,185,14,14,165,19,43
24,73,48,-48,-12,61,190,14,14,170,24,39
29,68,39,-48,-4,53,190,14,19,161,24,39
24,68,43,-46,-9,56,195,19,24,161,24,39
14,63,48,-39,-17,56,195,19,34,165,24,39
9,63,53,-36,-21,58,195,19,39,165,24,43
14,58,43,-36,-14,51,195,24,39,156,29,34
19,63,43,-41,-12,53,195,24,39,151,29,34
19,63,43,-41,-12,53,195,19,39,141,24,34
19,63,43,-41,-12,53,195,19,39,136,24,34
29,73,43,-51,-7,58,190,24,53,131,29,29
29,73,43,-51,-7,58,185,24,53,122,24,24
24,73,48,-48,-12,61,175,19,53,117,19,19
24,73,48,-48,-12,61,170,19,58,107,9,14
43,87,43,-65,0,65,185,19,58,102,19,4
43,87,43,-65,0,65,185,29,58,97,19,9
34,87,53,-61,-9,70,185,29,58,92,19,9
24,78,53,-51,-14,65,185,24,58,87,19,4
19,68,48,-43,-14,58,185,34,68,73,19,-4
14,68,53,-41,-19,61,185,29,73,68,24,-9
14,68,53,-41,-19,61,185,29,73,63,24,-9
14,73,58,-43,-21,65,175,19,68,58,24,-9
19,73,53,-46,-17,63,175,14,68,43,14,-14
24,73,48,-48,-12,61,175,14,68,29,14,-14
29,78,48,-53,-9,63,175,14,68,24,14,-14
34,78,43,-56,-4,61,175,14,68,19,14,-14
34,73,39,-53,-2,56,175,24,78,9,24,-4
39,78,39,-58,0,58,170,24,78,9,24,0
48,87,39,-68,4,63,170,29,78,9,29,0
58,92,34,-75,12,63,170,39,78,9,34,9
58,102,43,-80,7,73,185,39,82,9,43,0
43,82,39,-63,2,61,180,39,63,0,39,0
14,53,39,-34,-12,46,170,34,58,-19,29,0
9,39,29,-24,-9,34,165,29,48,-29,19,0
4,29,24,-17,-9,26,165,24,58,-29,19,-9
0,29,29,-14,-14,29,165,19,58,-29,19,-9
-4,29,34,-12,-19,31,165,14,58,-29,19,-9
-9,29,39,-9,-24,34,165,9,58,-29,19,-9
-9,29,39,-9,-24,34,156,9,58,-29,19,-9
-9,29,39,-9,-24,34,156,9,58,-29,19,-9
-9,29,39,-9,-24,34,156,9,58,-29,19,-9
-9,29,39,-9,-24,34,156,9,58,-29,19,-9
9,39,29,-24,-9,34,146,0,48,-39,19,-19
19,48,29,-34,-4,39,146,0,48,-39,19,-19
29,58,29,-43,0,43,146,0,48,-39,19,-19
39,68,29,-53,4,48,146,0,48,-39,19,-19
39,63,24,-51,7,43,156,4,48,-29,19,-9
39,58,19,-48,9,39,156,9,48,-29,19,-9
39,53,14,-46,12,34,156,14,48,-29,19,-9
39,48,9,-43,14,29,156,19,48,-29,19,-9
29,53,24,-41,2,39,156,29,48,-24,24,4
29,58,29,-43,0,43,156,29,48,-19,29,9
29,63,34,-46,-2,48,156,29,48,-14,34,14
29,68,39,-48,-4,53,156,29,48,-9,39,19
39,63,24,-51,7,43,156,19,48,0,39,19
39,58,19,-48,9,39,156,19,48,0,39,19
39,53,14,-46,12,34,156,19,48,0,39,19
39,48,9,-43,14,29,156,19,48,0,39,19
48,58,9,-53,19,34,146,29,48,14,48,24
48,58,9,-53,19,34,146,29,48,19,48,29
48,58,9,-53,19,34,146,29,48,24,48,34
48,58,9,-53,19,34,146,29,48,29,48,39
48,68,19,-58,14,43,136,29,39,43,58,43
48,68,19,-58,14,43,136,29,39,48,58,48
48,68,19,-58,14,43,136,29,39,53,58,53
48,68,19,-58,14,43,136,29,39,58,58,58
39,58,19,-48,9,39,126,19,29,58,48,58
39,58,19,-48,9,39,126,19,29,58,48,58
39,58,19,-48,9,39,126,19,29,58,48,58
39,58,19,-48,9,39,126,19,29,58,48,58
34,48,14,-41,9,31,126,19,39,63,58,68
29,48,19,-39,4,34,126,19,39,68,58,68
24,48,24,-36,0,36,126,19,39,73,58,68
19,48,29,-34,-4,39,126,19,39,78,58,68
29,58,29,-43,0,43,117,29,39,82,58,68
29,58,29,-43,0,43,117,29,39,87,58,68
29,58,29,-43,0,43,117,29,39,92,58,68
29,58,29,-43,0,43,117,29,39,97,58,68
19,48,29,-34,-4,39,117,19,48,107,58,58
19,48,29,-34,-4,39,117,19,48,107,58,58
19,48,29,-34,-4,39,117,19,48,107,58,58
19,48,29,-34,-4,39,117,19,48,107,58,58
9,43,34,-26,-12,39,117,19,48,107,58,58
9,39,29,-24,-9,34,117,19,48,107,58,58
9,34,24,-21,-7,29,117,19,48,107,58,58
9,29,19,-19,-4,24,117,19,48,107,58,58
14,34,19,-24,-2,26,107,29,48,107,48,68
19,39,19,-29,0,29,107,29,48,107,48,68
24,43,19,-34,2,31,107,29,48,107,48,68
29,48,19,-39,4,34,107,29,48,107,48,68
34,63,29,-48,2,46,107,29,48,117,58,68
39,68,29,-53,4,48,107,29,48,117,58,68
43,73,29,-58,7,51,107,29,48,117,58,68
48,78,29,-63,9,53,107,29,48,117,58,68
29,63,34,-46,-2,48,97,29,48,102,58,68
19,48,29,-34,-4,39,97,29,48,97,58,68
9,34,24,-21,-7,29,97,29,48,92,58,68
0,19,19,-9,-9,19,97,29,48,87,58,68
-4,29,34,-12,-19,31,97,24,48,82,53,68
-9,29,39,-9,-24,34,97,19,48,78,48,68
-14,29,43,-7,-29,36,97,14,48,73,43,68
-19,29,48,-4,-34,39,97,9,48,68,39,68
-19,29,48,-4,-34,39,107,14,48,68,48,78
-19,29,48,-4,-34,39,107,19,48,68,48,78
-19,29,48,-4,-34,39,107,24,48,68,48,78
-19,29,48,-4,-34,39,107,29,48,68,48,78
-19,34,53,-7,-36,43,107,19,48,63,34,68
-19,39,58,-9,-39,48,107,19,48,58,29,68
-19,43,63,-12,-41,53,107,19,48,53,24,68
-19,48,68,-14,-43,58,107,19,48,48,19,68
-9,58,68,-24,-39,63,112,29,58,48,29,78
-9,58,68,-24,-39,63,117,29,58,48,29,78
-4,58,63,-26,-34,61,122,39,58,48,29,78
-4,63,68,-29,-36,65,131,39,58,48,34,78
-14,63,78,-24,-46,70,146,48,68,48,34,73
-19,53,73,-17,-46,63,146,48,68,58,34,73
-24,53,78,-14,-51,65,141,48,68,58,34,73
-24,53,78,-14,-51,65,141,48,68,58,34,78
-9,63,73,-26,-41,68,136,43,58,48,34,73
0,73,73,-36,-36,73,136,39,58,48,29,68
9,78,68,-43,-29,73,136,39,58,48,29,58
19,78,58,-48,-19,68,126,39,58,48,34,53
24,63,39,-43,-7,51,117,29,53,39,29,48
19,63,43,-41,-12,53,112,29,48,39,24,43
19,58,39,-39,-9,48,112,29,43,39,19,39
14,48,34,-31,-9,41,102,24,39,39,9,34
4,53,48,-29,-21,51,92,24,39,34,19,29
0,48,48,-24,-24,48,87,19,34,24,19,29
-4,48,53,-21,-29,51,87,19,34,19,24,29
-9,58,68,-24,-39,63,82,14,34,14,24,34
0,58,58,-29,-29,58,63,14,34,19,34,24
0,58,58,-29,-29,58,58,4,24,19,34,24
0,58,58,-29,-29,58,58,0,24,19,34,19
4,58,53,-31,-24,56,53,0,19,14,34,19
24,58,34,-41,-4,46,53,0,29,24,43,29
24,43,19,-34,2,31,48,0,29,24,43,29
19,43,24,-31,-2,34,48,0,29,24,43,29
19,39,19,-29,0,29,53,4,29,24,43,29
4,48,43,-26,-19,46,43,-4,19,9,43,29
4,43,39,-24,-17,41,34,-9,19,9,43,24
9,43,34,-26,-12,39,34,-9,19,9,43,24
9,48,39,-29,-14,43,34,-9,19,14,43,24
19,39,19,-29,0,29,19,-19,19,24,43,14
19,43,24,-31,-2,34,19,-19,19,29,43,19
19,43,24,-31,-2,34,19,-19,19,29,43,24
19,43,24,-31,-2,34,19,-24,19,34,43,24
34,48,14,-41,9,31,24,-19,29,34,53,34
39,48,9,-43,14,29,29,-14,29,34,53,34
43,43,0,-43,21,21,34,-9,24,19,53,34
43,48,4,-46,19,26,39,0,24,19,48,24
34,43,9,-39,12,26,43,-9,14,29,39,24
34,39,4,-36,14,21,43,0,19,29,34,19
24,34,9,-29,7,21,43,0,19,29,34,19
24,29,4,-26,9,17,43,4,19,29,34,19
4,4,0,-4,2,2,53,9,29,34,24,14
-4,0,4,2,-4,2,58,4,29,34,24,14
-9,0,9,4,-9,4,58,9,24,34,24,14
-19,4,24,7,-21,14,53,9,24,24,19,9
-19,14,34,2,-26,24,53,4,14,24,19,9
-14,9,24,2,-19,17,53,0,9,24,9,4
-9,0,9,4,-9,4,53,-14,4,24,9,0
-4,-4,0,4,-2,-2,53,-19,4,24,9,0
-24,-19,4,21,-14,-7,48,-24,4,24,0,0
-29,-24,4,26,-17,-9,48,-24,4,29,0,0
-39,-34,4,36,-21,-14,43,-24,4,34,0,0
-48,-39,9,43,-29,-14,43,-24,0,39,0,0
-34,-24,9,29,-21,-7,53,-14,4,39,9,4
-24,-9,14,17,-19,2,53,-14,9,48,9,9
-19,-4,14,12,-17,4,48,-14,14,63,9,14
-19,-4,14,12,-17,4,48,-19,19,73,9,19
-29,-14,14,21,-21,0,63,-29,14,73,4,19
-29,-19,9,24,-19,-4,63,-24,9,68,0,19
-29,-24,4,26,-17,-9,63,-24,4,63,-4,24
-34,-29,4,31,-19,-12,63,-24,4,58,-9,24
-48,-34,14,41,-31,-9,58,-24,14,58,-19,14
-53,-39,14,46,-34,-12,53,-29,14,58,-19,14
-58,-43,14,51,-36,-14,48,-29,14,58,-19,14
-63,-48,14,56,-39,-17,43,-34,14,58,-19,9
-43,-34,9,39,-26,-12,48,-24,24,68,-9,19
-29,-29,0,29,-14,-14,53,-24,24,68,-9,24
-19,-24,-4,21,-7,-14,53,-24,24,68,-9,24
-14,-19,-4,17,-4,-12,58,-24,24,68,-9,24
-19,-34,-14,26,-2,-24,48,-24,24,78,-9,14
-24,-34,-9,29,-7,-21,53,-24,24,87,-9,14
-29,-39,-9,34,-9,-24,53,-24,24,87,-9,14
-34,-48,-14,41,-9,-31,53,-24,19,87,-9,14
-53,-48,4,51,-29,-21,63,-34,29,87,-14,14
-53,-43,9,48,-31,-17,68,-24,29,87,-14,14
-53,-34,19,43,-36,-7,73,-24,34,92,-14,14
-53,-19,34,36,-43,7,82,-24,34,92,-14,14
-68,-29,39,48,-53,4,92,-24,39,102,-4,24
-73,-29,43,51,-58,7,107,-24,43,107,-4,29
-82,-24,58,53,-70,17,112,-24,48,112,-4,29
-87,-24,63,56,-75,19,122,-29,53,112,-4,29
-87,-34,53,61,-70,9,122,-34,43,117,4,34
-58,-24,34,41,-46,4,117,-34,63,126,9,34
-58,-29,29,43,-43,0,122,-29,87,136,24,39
-58,-24,34,41,-46,4,131,-48,107,151,34,53
-48,0,48,24,-48,24,117,-82,122,185,53,68
-58,19,78,19,-68,48,102,-122,156,239,82,87
-48,14,63,17,-56,39,68,-200,170,283,126,107
-39,0,39,19,-39,19,4,-307,151,326,156,131
-34,-19,14,26,-24,-2,-92,-395,136,341,180,151
-14,-4,9,9,-12,2,-200,-444,136,356,200,165
39,4,-34,-21,36,-14,-331,-507,122,366,229,180
112,4,-107,-58,109,-51,-541,-600,102,380,263,200
180,14,-165,-97,173,-75,-761,-688,78,414,317,229
244,19,-224,-131,234,-102,-932,-775,48,463,361,253
297,29,-268,-163,283,-119,-1068,-878,34,488,405,287
366,68,-297,-217,331,-114,-1210,-971,34,531,463,331
434,107,-326,-270,380,-109,-1346,-1078,48,561,517,366
483,117,-366,-300,424,-124,-1473,-1141,48,541,527,380
512,78,-434,-295,473,-178,-1527,-1122,63,483,488,351
541,34,-507,-287,524,-236,-1542,-1044,87,380,419,292
580,-19,-600,-280,590,-309,-1517,-946,82,224,312,204
600,-78,-678,-261,639,-378,-1468,-839,82,82,209,126
590,-146,-736,-222,663,-441,-1405,-727,63,-53,112,43
600,-244,-844,-178,722,-544,-1332,-595,39,-190,0,-48
614,-341,-956,-136,785,-649,-1259,-463,29,-292,-87,-131
624,-414,-1039,-104,832,-727,-1176,-341,39,-331,-122,-156
634,-439,-1073,-97,854,-756,-1107,-273,19,-361,-146,-170
634,-439,-1073,-97,854,-756,-1029,-244,-58,-405,-185,-204
610,-458,-1068,-75,839,-763,-941,-229,-141,-439,-209,-229
575,-492,-1068,-41,822,-780,-844,-248,-224,-468,-234,-248
541,-492,-1034,-24,788,-763,-766,-307,-317,-502,-258,-263
512,-497,-1010,-7,761,-753,-692,-370,-395,-531,-297,-292
478,-502,-980,12,729,-741,-624,-419,-463,-561,-336,-322
419,-517,-936,48,678,-727,-566,-444,-507,-585,-361,-341
356,-551,-907,97,631,-729,-517,-483,-556,-610,-400,-361
268,-585,-854,158,561,-719,-468,-512,-600,-644,-434,-375
214,-600,-814,192,514,-707,-419,-512,-614,-668,-468,-400
209,-580,-790,185,500,-685,-380,-483,-595,-668,-478,-409
185,-580,-766,197,475,-673,-341,-453,-575,-653,-478,-414
151,-590,-741,219,446,-666,-322,-434,-556,-639,-483,-414
136,-580,-717,222,427,-649,-302,-429,-536,-619,-483,-414
136,-556,-692,209,414,-624,-287,-419,-502,-595,-468,-400
122,-502,-624,190,373,-563,-263,-385,-463,-551,-439,-370
107,-444,-551,168,329,-497,-229,-356,-409,-497,-390,-336
107,-390,-497,141,302,-444,-204,-317,-366,-453,-361,-292
97,-356,-453,129,275,-405,-185,-278,-331,-414,-326,-263
78,-346,-424,134,251,-385,-146,-214,-278,-375,-292,-239
73,-317,-390,122,231,-353,-107,-170,-219,-322,-248,-214
68,-244,-312,87,190,-278,-82,-112,-161,-268,-209,-175
53,-185,-239,65,146,-212,-48,-68,-117,-224,-175,-146
0,-165,-165,82,82,-165,-29,-39,-78,-190,-161,-122
-58,-161,-102,109,21,-131,0,-19,-58,-170,-146,-112
-73,-141,-68,107,-2,-104,24,4,-39,-151,-122,-82
-68,-136,-68,102,0,-102,43,29,-14,-131,-92,-68
-58,-141,-82,100,12,-112,53,48,-9,-131,-82,-58
-97,-141,-43,119,-26,-92,58,63,9,-122,-68,-58
-131,-161,-29,146,-51,-95,78,82,24,-107,-73,-58
-136,-136,0,136,-68,-68,87,107,34,-97,-63,-53
-126,-102,24,114,-75,-39,107,126,53,-82,-58,-43
-141,-102,39,122,-90,-31,102,126,58,-87,-58,-48
-151,-102,48,126,-100,-26,102,122,53,-87,-58,-48
-151,-112,39,131,-95,-36,102,117,48,-92,-53,-48
-151,-112,39,131,-95,-36,97,117,53,-87,-48,-43
-131,-102,29,117,-80,-36,97,126,48,-87,-58,-43
-131,-102,29,117,-80,-36,97,126,48,-87,-58,-43
-136,-102,34,119,-85,-34,97,131,48,-87,-58,-43
-146,-102,43,124,-95,-29,102,131,48,-87,-58,-43
-136,-97,39,117,-87,-29,102,131,39,-78,-68,-53
-141,-97,43,119,-92,-26,102,136,39,-82,-63,-53
-151,-102,48,126,-100,-26,102,141,43,-82,-63,-53
-156,-112,43,134,-100,-34,102,146,43,-82,-63,-53
-136,-112,24,124,-80,-43,97,146,29,-78,-53,-58
-131,-107,24,119,-78,-41,97,151,29,-73,-53,-58
-131,-107,24,119,-78,-41,97,151,34,-58,-43,-48
-141,-107,34,124,-87,-36,97,156,34,-53,-43,-43
-156,-117,39,136,-97,-39,97,161,29,-53,-43,-43
-165,-117,48,141,-107,-34,97,161,29,-48,-48,-48
-165,-112,53,139,-109,-29,102,161,29,-48,-48,-48
-161,-112,48,136,-104,-31,102,161,29,-48,-48,-48
-146,-122,24,134,-85,-48,92,151,29,-53,-53,-43
-146,-122,24,134,-85,-48,92,161,24,-53,-58,-39
-146,-126,19,136,-82,-53,92,161,19,-53,-63,-39
-146,-126,19,136,-82,-53,92,161,14,-53,-68,-39
-136,-107,29,122,-82,-39,92,165,24,-43,-53,-34
-141,-102,39,122,-90,-31,92,170,29,-43,-53,-34
-141,-97,43,119,-92,-26,92,170,29,-34,-53,-34
-136,-92,43,114,-90,-24,92,170,29,-34,-53,-29
-126,-87,39,107,-82,-24,92,165,29,-34,-63,-34
-126,-87,39,107,-82,-24,92,165,34,-34,-63,-29
-131,-87,43,109,-87,-21,92,170,34,-39,-63,-29
-131,-87,43,109,-87,-21,92,175,34,-43,-63,-29
-136,-92,43,114,-90,-24,107,180,43,-29,-53,-24
-141,-92,48,117,-95,-21,107,185,43,-29,-53,-24
-146,-97,48,122,-97,-24,107,195,43,-29,-53,-24
-151,-92,58,122,-104,-17,107,200,39,-34,-58,-29
-156,-97,58,126,-107,-19,117,195,48,-34,-68,-39
-161,-107,53,134,-107,-26,117,195,53,-34,-68,-39
-161,-112,48,136,-104,-31,117,195,58,-34,-68,-39
-165,-112,53,139,-109,-29,122,190,58,-34,-68,-39
-165,-102,63,134,-114,-19,112,190,68,-24,-63,-39
-165,-107,58,136,-112,-24,107,190,68,-14,-68,-39
-170,-112,58,141,-114,-26,107,190,68,-4,-68,-39
-170,-112,58,141,-114,-26,112,195,68,4,-63,-39
-175,-117,58,146,-117,-29,112,195,63,4,-68,-53
-175,-122,53,148,-114,-34,117,195,63,9,-68,-58
-180,-126,53,153,-117,-36,117,200,73,14,-63,-58
-185,-136,48,161,-117,-43,117,200,73,19,-63,-63
-195,-141,53,168,-124,-43,107,190,82,19,-73,-63
-195,-136,58,165,-126,-39,107,200,82,19,-73,-73
-185,-122,63,153,-124,-29,112,200,87,19,-73,-73
-185,-117,68,151,-126,-24,112,200,87,14,-73,-73
-180,-117,63,148,-122,-26,112,204,87,4,-73,-78
-170,-117,53,143,-112,-31,112,209,87,4,-73,-78
-165,-122,43,143,-104,-39,112,209,92,4,-68,-78
-161,-122,39,141,-100,-41,117,209,97,4,-68,-78
-161,-117,43,139,-102,-36,107,209,87,-4,-78,-78
-161,-112,48,136,-104,-31,107,209,87,-4,-78,-82
-170,-112,58,141,-114,-26,107,214,87,0,-78,-82
-170,-112,58,141,-114,-26,107,214,87,0,-78,-82
-156,-117,39,136,-97,-39,117,214,97,4,-68,-73
-156,-117,39,136,-97,-39,117,219,92,4,-68,-78
-156,-117,39,136,-97,-39,117,219,92,4,-68,-78
-151,-117,34,134,-92,-41,117,229,92,9,-68,-78
-165,-107,58,136,-112,-24,112,219,97,4,-68,-87
-165,-107,58,136,-112,-24,122,219,97,4,-68,-87
-161,-107,53,134,-107,-26,122,224,97,4,-68,-82
-161,-107,53,134,-107,-26,131,234,97,4,-68,-82
-161,-117,43,139,-102,-36,131,234,97,0,-68,-82
-175,-126,48,151,-112,-39,126,234,92,-4,-68,-82
-190,-136,53,163,-122,-41,126,234,92,-4,-68,-82
-204,-141,63,173,-134,-39,126,229,92,-9,-68,-82
-185,-131,53,158,-119,-39,126,219,82,-14,-78,-82
-185,-126,58,156,-122,-34,126,229,82,-19,-78,-82
-175,-117,58,146,-117,-29,126,229,82,-19,-78,-82
-156,-107,48,131,-102,-29,126,229,78,-19,-73,-82
-165,-112,53,139,-109,-29,136,239,87,-19,-63,-82
-165,-112,53,139,-109,-29,136,239,87,-24,-68,-82
-170,-117,53,143,-112,-31,136,239,87,-29,-68,-78
-175,-122,53,148,-114,-34,136,244,87,-29,-68,-78
-175,-126,48,151,-112,-39,131,239,82,-24,-68,-68
-180,-122,58,151,-119,-31,146,239,82,-24,-68,-68
-185,-136,48,161,-117,-43,136,234,82,-24,-68,-68
-185,-141,43,163,-114,-48,131,234,73,-29,-73,-68
-185,-122,63,153,-124,-29,131,234,82,-48,-63,-58
-190,-117,73,153,-131,-21,136,244,82,-48,-63,-53
-175,-112,63,143,-119,-24,146,244,87,-43,-53,-53
-156,-102,53,129,-104,-24,146,244,87,-43,-53,-53
-146,-112,34,129,-90,-39,131,248,78,-53,-53,-53
-161,-102,58,131,-109,-21,131,248,78,-53,-58,-53
-161,-102,58,131,-109,-21,131,248,78,-53,-58,-53
-165,-107,58,136,-112,-24,131,248,73,-58,-58,-53
-185,-122,63,153,-124,-29,122,244,63,-73,-68,-53
-190,-122,68,156,-129,-26,122,234,58,-78,-68,-53
-195,-126,68,161,-131,-29,122,224,58,-82,-73,-53
-200,-141,58,170,-129,-41,122,209,58,-82,-73,-58
-204,-146,58,175,-131,-43,122,200,43,-92,-78,-68
-219,-151,68,185,-143,-41,122,195,43,-92,-82,-63
-224,-156,68,190,-146,-43,122,190,43,-92,-87,-63
-224,-156,68,190,-146,-43,112,185,39,-97,-92,-63
-214,-141,73,178,-143,-34,117,185,43,-87,-82,-63
-214,-136,78,175,-146,-29,122,180,39,-87,-78,-58
-214,-141,73,178,-143,-34,126,175,39,-87,-78,-53
-204,-136,68,170,-136,-34,122,165,34,-87,-78,-53
-214,-126,87,170,-151,-19,117,165,29,-87,-82,-68
-214,-126,87,170,-151,-19,112,161,24,-92,-82,-68
-214,-122,92,168,-153,-14,112,146,19,-92,-82,-68
-214,-122,92,168,-153,-14,107,141,19,-87,-82,-68
-200,-122,78,161,-139,-21,92,117,14,-92,-92,-68
-195,-122,73,158,-134,-24,92,112,9,-92,-92,-68
-195,-126,68,161,-131,-29,87,107,4,-87,-92,-58
-204,-126,78,165,-141,-24,87,97,0,-87,-92,-58
-214,-141,73,178,-143,-34,82,97,-19,-97,-87,-68
-214,-151,63,183,-139,-43,78,87,-29,-97,-87,-68
-204,-136,68,170,-136,-34,73,73,-29,-97,-78,-63
-204,-136,68,170,-136,-34,73,68,-24,-92,-63,-58
-209,-141,68,175,-139,-36,63,58,-34,-87,-63,-58
-209,-136,73,173,-141,-31,63,43,-43,-82,-63,-58
-190,-141,48,165,-119,-46,63,34,-53,-78,-63,-53
-185,-146,39,165,-112,-53,53,19,-58,-82,-63,-53
-190,-151,39,170,-114,-56,43,9,-63,-82,-68,-63
-190,-136,53,163,-122,-41,34,0,-63,-78,-73,-63
-185,-131,53,158,-119,-39,34,-9,-58,-78,-73,-63
-190,-126,63,158,-126,-31,24,-19,-63,-78,-68,-58
-204,-131,73,168,-139,-29,24,-29,-73,-73,-63,-48
-209,-131,78,170,-143,-26,24,-34,-78,-73,-63,-43
-209,-146,63,178,-136,-41,19,-53,-78,-68,-63,-43
-209,-146,63,178,-136,-41,9,-68,-82,-68,-63,-43
-219,-146,73,183,-146,-36,4,-82,-92,-58,-58,-43
-219,-146,73,183,-146,-36,0,-87,-92,-53,-58,-43
-219,-146,73,183,-146,-36,-4,-92,-102,-53,-58,-48
-209,-151,58,180,-134,-46,-14,-107,-107,-53,-58,-48
-195,-156,39,175,-117,-58,-19,-122,-107,-53,-63,-48
-190,-156,34,173,-112,-61,-19,-126,-107,-53,-63,-48
-185,-151,34,168,-109,-58,-24,-136,-107,-43,-58,-48
-180,-151,29,165,-104,-61,-24,-136,-112,-43,-58,-48
-165,-141,24,153,-95,-58,-43,-151,-117,-48,-68,-58
-156,-141,14,148,-85,-63,-53,-165,-122,-48,-68,-58
-156,-146,9,151,-82,-68,-58,-180,-131,-48,-63,-58
-165,-151,14,158,-90,-68,-63,-185,-136,-48,-58,-63
-175,-141,34,158,-104,-53,-63,-175,-131,-39,-48,-53
-175,-141,34,158,-104,-53,-63,-175,-126,-34,-48,-53
-165,-146,19,156,-92,-63,-58,-175,-122,-29,-48,-53
-165,-146,19,156,-92,-63,-53,-180,-117,-19,-43,-53
-156,-126,29,141,-92,-48,-58,-185,-107,-9,-53,-53
-151,-122,29,136,-90,-46,-68,-185,-107,-9,-53,-53
-151,-122,29,136,-90,-46,-73,-190,-112,-4,-53,-53
-161,-126,34,143,-97,-46,-78,-190,-112,-4,-53,-53
-146,-126,19,136,-82,-53,-78,-190,-117,9,-39,-43
-146,-126,19,136,-82,-53,-78,-185,-112,14,-39,-43
-146,-126,19,136,-82,-53,-78,-185,-112,19,-39,-43
-156,-126,29,141,-92,-48,-78,-185,-112,19,-39,-43
-146,-122,24,134,-85,-48,-68,-175,-112,19,-48,-43
-141,-122,19,131,-80,-51,-68,-175,-107,9,-48,-43
-141,-122,19,131,-80,-51,-68,-175,-107,9,-48,-43
-141,-126,14,134,-78,-56,-68,-170,-107,9,-43,-43
-146,-112,34,129,-90,-39,-63,-175,-107,24,-29,-43
-146,-112,34,129,-90,-39,-58,-175,-107,24,-24,-43
-146,-107,39,126,-92,-34,-53,-170,-102,24,-24,-43
-146,-97,48,122,-97,-24,-53,-165,-102,29,-24,-39
-165,-107,58,136,-112,-24,-53,-156,-97,29,-29,-39
-175,-122,53,148,-114,-34,-58,-156,-97,24,-29,-39
-180,-131,48,156,-114,-41,-58,-156,-97,24,-29,-39
-185,-136,48,161,-117,-43,-53,-151,-97,24,-19,-34
-165,-136,29,151,-97,-53,-58,-146,-92,14,-34,-43
-151,-136,14,143,-82,-61,-58,-151,-97,9,-43,-53
-141,-136,4,139,-73,-65,-63,-156,-107,4,-48,-63
-131,-136,-4,134,-63,-70,-68,-161,-117,0,-53,-73
-131,-126,4,129,-68,-61,-58,-156,-107,-9,-48,-63
-131,-131,0,131,-65,-65,-53,-151,-102,-9,-43,-63
-126,-131,-4,129,-61,-68,-53,-141,-102,-9,-39,-63
-122,-126,-4,124,-58,-65,-53,-136,-102,-9,-34,-58
-131,-117,14,124,-73,-51,-58,-126,-92,-19,-39,-68
-136,-117,19,126,-78,-48,-58,-126,-87,-19,-39,-68
-146,-117,29,131,-87,-43,-53,-122,-87,-19,-39,-68
-151,-117,34,134,-92,-41,-53,-122,-87,-19,-39,-68
-141,-112,29,126,-85,-41,-48,-112,-92,-9,-34,-58
-131,-102,29,117,-80,-36,-48,-107,-92,-4,-29,-58
-126,-102,24,114,-75,-39,-48,-107,-87,-4,-24,-58
-122,-107,14,114,-68,-46,-43,-107,-87,0,-19,-58
-112,-107,4,109,-58,-51,-53,-107,-87,-4,-19,-68
-112,-107,4,109,-58,-51,-53,-107,-87,0,-24,-68
-122,-112,9,117,-65,-51,-53,-107,-82,0,-24,-68
-126,-112,14,119,-70,-48,-48,-107,-78,0,-19,-68
-126,-102,24,114,-75,-39,-48,-112,-87,0,-24,-68
-126,-102,24,114,-75,-39,-48,-112,-92,0,-24,-68
-126,-102,24,114,-75,-39,-48,-112,-92,4,-24,-73
-122,-97,24,109,-73,-36,-48,-117,-92,4,-29,-73
-131,-107,24,119,-78,-41,-39,-107,-87,4,-29,-63
-131,-107,24,119,-78,-41,-39,-102,-82,4,-24,-63
-136,-107,29,122,-82,-39,-39,-102,-78,4,-24,-58
-141,-117,24,129,-82,-46,-39,-107,-73,4,-19,-58
-136,-107,29,122,-82,-39,-29,-97,-63,14,-14,-48
-136,-107,29,122,-82,-39,-29,-97,-63,4,-14,-48
-136,-112,24,124,-80,-43,-29,-97,-63,4,-14,-48
-136,-112,24,124,-80,-43,-29,-87,-58,4,-9,-48
-141,-122,19,131,-80,-51,-24,-73,-48,4,-19,-48
-151,-122,29,136,-90,-46,-24,-73,-48,4,-19,-48
-156,-117,39,136,-97,-39,-24,-78,-48,4,-19,-48
-161,-117,43,139,-102,-36,-24,-78,-48,4,-24,-48
-146,-107,39,126,-92,-34,-24,-87,-48,14,-24,-48
-146,-107,39,126,-92,-34,-29,-92,-48,14,-29,-48
-146,-107,39,126,-92,-34,-34,-92,-48,14,-34,-53
-146,-107,39,126,-92,-34,-34,-92,-48,4,-43,-53
-151,-117,34,134,-92,-41,-19,-87,-43,9,-29,-48
-146,-117,29,131,-87,-43,-14,-78,-39,14,-24,-43
-141,-112,29,126,-85,-41,-9,-73,-34,19,-19,-43
-136,-102,34,119,-85,-34,-9,-68,-34,24,-14,-39
-151,-102,48,126,-100,-26,-9,-73,-24,29,-19,-34
-156,-102,53,129,-104,-24,-9,-78,-29,29,-24,-34
-156,-102,53,129,-104,-24,-9,-78,-34,29,-29,-34
-151,-97,53,124,-102,-21,-4,-78,-34,34,-34,-34
-146,-97,48,122,-97,-24,-4,-73,-19,34,-24,-39
-146,-102,43,124,-95,-29,-4,-73,-19,39,-24,-39
-146,-102,43,124,-95,-29,-4,-73,-19,39,-24,-39
-146,-102,43,124,-95,-29,-4,-73,-19,34,-24,-53
-151,-102,48,126,-100,-26,-4,-68,-24,29,-43,-48
-156,-102,53,129,-104,-24,-9,-68,-24,29,-43,-48
-161,-107,53,134,-107,-26,-9,-68,-24,29,-43,-48
-170,-117,53,143,-112,-31,-4,-68,-24,29,-39,-53
-161,-107,53,134,-107,-26,4,-68,-19,29,-29,-43
-161,-97,63,129,-112,-17,4,-63,-14,39,-29,-39
-156,-107,48,131,-102,-29,9,-63,-4,39,-24,-39
-156,-107,48,131,-102,-29,9,-63,0,39,-24,-39
-151,-102,48,126,-100,-26,9,-63,-9,34,-34,-39
-146,-97,48,122,-97,-24,4,-68,-9,29,-39,-43
-131,-97,34,114,-82,-31,4,-68,-9,14,-39,-43
-122,-92,29,107,-75,-31,4,-63,-9,4,-34,-43
-126,-97,29,112,-78,-34,4,-63,0,4,-34,-53
-141,-107,34,124,-87,-36,4,-63,0,9,-39,-58
-146,-117,29,131,-87,-43,0,-63,4,9,-39,-63
-151,-122,29,136,-90,-46,0,-63,4,9,-34,-63
-131,-102,29,117,-80,-36,4,-58,14,14,-24,-48
-131,-92,39,112,-85,-26,4,-53,9,14,-24,-48
-136,-87,48,112,-92,-19,4,-48,9,14,-24,-48
-136,-82,53,109,-95,-14,4,-43,9,14,-24,-48
-146,-92,53,119,-100,-19,4,-53,0,14,-39,-58
-146,-97,48,122,-97,-24,0,-48,0,14,-39,-58
-146,-102,43,124,-95,-29,0,-48,0,14,-39,-58
-146,-102,43,124,-95,-29,0,-48,0,14,-39,-58
-141,-102,39,122,-90,-31,-9,-53,0,14,-39,-58
-131,-102,29,117,-80,-36,-14,-58,0,14,-39,-58
-146,-107,39,126,-92,-34,-14,-63,4,9,-34,-58
-146,-117,29,131,-87,-43,-14,-68,4,9,-34,-58
-151,-117,34,134,-92,-41,-14,-68,4,0,-34,-58
-156,-112,43,134,-100,-34,-14,-68,4,4,-34,-58
-161,-112,48,136,-104,-31,-14,-68,4,4,-34,-58
-165,-112,53,139,-109,-29,-14,-68,4,4,-34,-58
-156,-102,53,129,-104,-24,-9,-63,4,9,-29,-39
-151,-97,53,124,-102,-21,-4,-58,4,24,-29,-34
-141,-87,53,114,-97,-17,0,-53,4,29,-24,-29
-136,-82,53,109,-95,-14,0,-48,4,34,-9,-29
-126,-82,43,104,-85,-19,-9,-48,-4,19,-19,-34
-126,-82,43,104,-85,-19,-4,-48,-4,19,-19,-34
-136,-82,53,109,-95,-14,-4,-48,-4,19,-19,-39
-141,-87,53,114,-97,-17,-4,-48,-4,19,-24,-43
-136,-102,34,119,-85,-34,-14,-58,-9,14,-29,-53
-131,-107,24,119,-78,-41,-19,-63,-14,9,-34,-53
-122,-107,14,114,-68,-46,-24,-63,-24,4,-39,-53
-102,-107,-4,104,-48,-56,-24,-68,-29,4,-43,-48
-117,-112,4,114,-61,-53,-9,-58,-19,9,-39,-39
-122,-117,4,119,-63,-56,-9,-58,-19,19,-24,-39
-126,-122,4,124,-65,-58,-9,-53,-19,24,-9,-39
-131,-126,4,129,-68,-61,-9,-53,-19,29,-4,-29
-141,-117,24,129,-82,-46,-19,-63,-29,29,-9,-29
-141,-117,24,129,-82,-46,-14,-58,-24,24,-14,-29
-141,-117,24,129,-82,-46,-14,-58,-24,24,-19,-29
-141,-112,29,126,-85,-41,-19,-58,-24,19,-24,-29
-136,-112,24,124,-80,-43,-19,-58,-29,24,-24,-39
-131,-112,19,122,-75,-46,-19,-58,-29,24,-24,-39
-126,-112,14,119,-70,-48,-19,-58,-29,24,-24,-39
-122,-112,9,117,-65,-51,-19,-63,-29,29,-24,-39
-131,-112,19,122,-75,-46,-29,-63,-29,29,-24,-39
-136,-112,24,124,-80,-43,-29,-63,-29,29,-24,-39
-136,-112,24,124,-80,-43,-29,-63,-34,34,-24,-34
-141,-117,24,129,-82,-46,-29,-63,-34,34,-24,-34
-141,-126,14,134,-78,-56,-19,-63,-29,34,-14,-24
-131,-126,4,129,-68,-61,-19,-63,-29,34,-9,-24
-131,-126,4,129,-68,-61,-19,-63,-29,34,-9,-24
-131,-126,4,129,-68,-61,-19,-63,-29,34,-9,-24
-131,-117,14,124,-73,-51,-24,-53,-39,34,-19,-34
-131,-117,14,124,-73,-51,-24,-53,-39,34,-19,-34
-131,-117,14,124,-73,-51,-24,-53,-39,34,-19,-34
-131,-117,14,124,-73,-51,-24,-53,-39,29,-19,-34
-146,-117,29,131,-87,-43,-34,-53,-34,29,-9,-34
-151,-117,34,134,-92,-41,-34,-53,-29,29,-9,-29
-156,-122,34,139,-95,-43,-29,-58,-24,29,-9,-29
-161,-122,39,141,-100,-41,-24,-63,-24,34,-4,-29
-151,-107,43,129,-97,-31,-24,-53,-24,34,-14,-19
-151,-107,43,129,-97,-31,-19,-48,-24,34,-14,-19
-156,-112,43,134,-100,-34,-19,-48,-19,39,-14,-19
-156,-112,43,134,-100,-34,-19,-48,-19,39,-14,-14
-151,-112,39,131,-95,-36,-19,-53,-29,34,-9,-24
-146,-112,34,129,-90,-39,-19,-53,-29,34,-9,-24
-146,-117,29,131,-87,-43,-19,-58,-29,29,-14,-24
-146,-122,24,134,-85,-48,-19,-58,-29,29,-14,-24
-136,-112,24,124,-80,-43,-29,-53,-34,24,-9,-34
-136,-112,24,124,-80,-43,-29,-53,-34,24,-14,-34
-141,-112,29,126,-85,-41,-34,-58,-34,29,-19,-34
-141,-112,29,126,-85,-41,-34,-58,-29,29,-29,-34
-112,-97,14,104,-63,-41,-29,-48,-19,29,-24,-24
-112,-97,14,104,-63,-41,-29,-39,-19,29,-19,-19
-122,-97,24,109,-73,-36,-29,-39,-19,29,-14,-19
-131,-107,24,119,-78,-41,-29,-43,-19,29,-9,-24
-161,-107,53,134,-107,-26,-19,-43,-19,39,-9,-24
-141,-87,53,114,-97,-17,-9,-39,-14,48,-4,-19
-136,-87,48,112,-92,-19,-9,-29,-9,48,-9,-19
-136,-87,48,112,-92,-19,0,-29,-9,43,-9,-19
-136,-87,48,112,-92,-19,0,-29,-9,39,-9,-19
-136,-87,48,112,-92,-19,0,-29,-9,34,-9,-19
-136,-87,48,112,-92,-19,0,-29,-9,29,-9,-19
-151,-87,63,119,-107,-12,9,-39,-9,29,-9,-29
-151,-87,63,119,-107,-12,9,-29,-9,29,-9,-29
-156,-82,73,119,-114,-4,14,-29,-9,29,-4,-29
-161,-82,78,122,-119,-2,19,-29,-9,29,-4,-24
-175,-97,78,136,-126,-9,19,-29,-19,29,-14,-24
-180,-102,78,141,-129,-12,14,-29,-19,29,-14,-24
-180,-107,73,143,-126,-17,14,-29,-19,29,-14,-19
-175,-107,68,141,-122,-19,9,-34,-19,29,-14,-19
-165,-87,78,126,-122,-4,19,-29,-9,29,-14,-9
-156,-82,73,119,-114,-4,19,-29,-9,29,-9,-14
-146,-82,63,114,-104,-9,9,-29,-9,29,0,-14
-126,-78,48,102,-87,-14,9,-29,-9,29,4,-4
-136,-68,68,102,-102,0,0,-29,-19,39,4,-4
-131,-63,68,97,-100,2,-4,-29,-19,39,4,-4
-131,-63,68,97,-100,2,-19,-34,-19,39,0,-4
-136,-63,73,100,-104,4,-24,-34,-19,39,0,-9
-136,-82,53,109,-95,-14,-29,-48,-24,24,-9,-9
-136,-87,48,112,-92,-19,-29,-48,-24,24,-4,-9
-136,-82,53,109,-95,-14,-34,-53,-24,24,-4,-4
-136,-87,48,112,-92,-19,-43,-53,-24,19,-4,-4
-126,-97,29,112,-78,-34,-48,-53,-34,29,0,4
-126,-97,29,112,-78,-34,-48,-58,-34,29,4,0
-122,-97,24,109,-73,-36,-53,-58,-39,24,9,0
-112,-87,24,100,-68,-31,-53,-58,-39,24,14,0
-122,-92,29,107,-75,-31,-58,-68,-29,14,4,0
-126,-92,34,109,-80,-29,-58,-68,-29,14,4,0
-126,-97,29,112,-78,-34,-53,-63,-29,14,4,0
-131,-97,34,114,-82,-31,-53,-63,-29,9,4,0
-131,-92,39,112,-85,-26,-73,-78,-34,0,-4,-4
-126,-92,34,109,-80,-29,-73,-78,-39,0,-4,-4
-126,-87,39,107,-82,-24,-73,-78,-43,4,-4,-4
-117,-87,29,102,-73,-29,-78,-78,-48,4,-4,-4
-117,-82,34,100,-75,-24,-78,-68,-39,9,4,0
-117,-82,34,100,-75,-24,-78,-68,-39,9,4,4
-117,-82,34,100,-75,-24,-78,-73,-39,14,4,4
-117,-82,34,100,-75,-24,-78,-73,-39,14,4,4
-117,-97,19,107,-68,-39,-78,-73,-39,14,4,-4
-117,-107,9,112,-63,-48,-78,-73,-43,0,4,-4
-122,-107,14,114,-68,-46,-78,-68,-43,0,0,-14
-122,-107,14,114,-68,-46,-68,-68,-43,0,0,-14
-122,-107,14,114,-68,-46,-53,-48,-34,4,-4,-19
-131,-107,24,119,-78,-41,-48,-48,-29,9,-4,-19
-131,-107,24,119,-78,-41,-43,-43,-24,14,-4,-19
-146,-122,24,134,-85,-48,-43,-43,-19,14,-4,-24
-156,-136,19,146,-87,-58,-48,-63,-24,9,-19,-34
-161,-136,24,148,-92,-56,-48,-63,-34,4,-24,-34
-170,-131,39,151,-104,-46,-53,-68,-39,-9,-34,-39
-180,-131,48,156,-114,-41,-53,-68,-43,-14,-39,-39
-175,-126,48,151,-112,-39,-43,-58,-43,-4,-39,-34
-170,-136,34,153,-102,-51,-43,-68,-43,-4,-39,-39
-165,-141,24,153,-95,-58,-43,-68,-39,-4,-39,-39
-161,-141,19,151,-90,-61,-39,-63,-34,-9,-39,-39
-165,-131,34,148,-100,-48,-48,-63,-24,-9,-39,-48
-165,-136,29,151,-97,-53,-53,-63,-24,-9,-39,-48
-165,-136,29,151,-97,-53,-53,-63,-29,-9,-39,-48
-165,-136,29,151,-97,-53,-53,-63,-29,-19,-39,-48
-151,-136,14,143,-82,-61,-53,-68,-43,-29,-43,-58
-151,-136,14,143,-82,-61,-58,-73,-48,-24,-48,-58
-156,-141,14,148,-85,-63,-58,-82,-53,-24,-53,-58
-156,-146,9,151,-82,-68,-53,-87,-58,-19,-58,-58
-156,-131,24,143,-90,-53,-43,-78,-43,-9,-48,-48
-156,-126,29,141,-92,-48,-43,-73,-39,-9,-48,-43
-161,-122,39,141,-100,-41,-43,-68,-29,-9,-48,-43
-161,-117,43,139,-102,-36,-43,-63,-24,-9,-48,-43
-151,-126,24,139,-87,-51,-53,-68,-34,-19,-48,-43
-151,-126,24,139,-87,-51,-53,-68,-34,-19,-48,-43
-151,-126,24,139,-87,-51,-53,-73,-34,-19,-48,-48
-151,-126,24,139,-87,-51,-53,-73,-34,-19,-48,-48
-156,-131,24,143,-90,-53,-48,-63,-34,-9,-58,-43
-165,-136,29,151,-97,-53,-48,-63,-34,-9,-58,-43
-180,-141,39,161,-109,-51,-43,-63,-34,-9,-58,-43
-190,-146,43,168,-117,-51,-39,-63,-34,-9,-58,-43
-195,-161,34,178,-114,-63,-48,-78,-39,-14,-63,-58
-200,-170,29,185,-114,-70,-53,-82,-43,-19,-68,-63
-204,-185,19,195,-112,-82,-58,-87,-53,-24,-73,-68
-219,-200,19,209,-119,-90,-63,-92,-58,-29,-82,-73
-200,-180,19,190,-109,-80,-48,-82,-58,-19,-73,-63
-190,-165,24,178,-107,-70,-43,-82,-53,-14,-73,-63
-180,-146,34,163,-107,-56,-34,-82,-53,-14,-73,-63
-185,-136,48,161,-117,-43,-24,-82,-53,-14,-73,-63
-200,-126,73,163,-136,-26,-19,-82,-53,-19,-73,-68
-209,-122,87,165,-148,-17,-4,-73,-53,-14,-63,-68
-214,-131,82,173,-148,-24,4,-78,-53,-4,-63,-58
-204,-122,82,163,-143,-19,4,-82,-63,-9,-63,-53
-204,-112,92,158,-148,-9,19,-92,-53,0,-48,-53
-214,-126,87,170,-151,-19,34,-87,-29,19,-43,-48
-214,-122,92,168,-153,-14,43,-87,-9,43,-24,-43
-195,-97,97,146,-146,0,39,-112,4,78,-4,-29
-175,-78,97,126,-136,9,4,-161,19,122,14,-19
-146,-63,82,104,-114,9,-39,-239,34,156,39,-9
-126,-68,58,97,-92,-4,-102,-346,34,190,68,4
-122,-68,53,95,-87,-7,-180,-434,29,224,102,34
-122,-82,39,102,-80,-21,-287,-483,29,239,122,48
-87,-82,4,85,-46,-39,-429,-536,14,258,151,63
-34,-73,-39,53,2,-56,-610,-610,4,292,185,82
43,-63,-107,9,75,-85,-819,-697,-19,336,239,122
136,-68,-204,-34,170,-136,-1029,-805,-48,375,283,146
200,-58,-258,-70,229,-158,-1176,-907,-63,400,326,170
239,-39,-278,-100,258,-158,-1317,-1010,-63,434,385,214
307,0,-307,-153,307,-153,-1464,-1098,-48,473,439,258
375,39,-336,-207,356,-148,-1600,-1171,-39,483,468,292
444,48,-395,-246,419,-173,-1683,-1200,-34,453,468,283
483,-4,-488,-239,485,-246,-1708,-1151,-29,390,429,244
512,-78,-590,-217,551,-334,-1693,-1054,-14,283,341,175
512,-117,-629,-197,570,-373,-1644,-946,-4,170,258,117
522,-165,-688,-178,605,-427,-1571,-844,-4,53,170,53
522,-263,-785,-129,653,-524,-1498,-712,-19,-92,58,-48
517,-390,-907,-63,712,-649,-1415,-561,-39,-234,-48,-141
527,-483,-1010,-21,768,-746,-1332,-429,-39,-331,-131,-204
546,-517,-1063,-14,805,-790,-1254,-331,-48,-370,-165,-239
575,-507,-1083,-34,829,-795,-1146,-273,-87,-375,-165,-244
570,-507,-1078,-31,824,-793,-1049,-248,-170,-409,-200,-268
517,-541,-1058,12,788,-800,-971,-268,-263,-448,-244,-307
483,-570,-1054,43,768,-812,-893,-317,-336,-483,-278,-331
463,-566,-1029,51,746,-797,-810,-380,-414,-512,-297,-341
409,-580,-990,85,700,-785,-741,-439,-502,-551,-336,-361
351,-614,-966,131,658,-790,-683,-483,-575,-585,-380,-390
317,-619,-936,151,627,-778,-634,-502,-614,-610,-409,-409
278,-624,-902,173,590,-763,-575,-531,-649,-634,-434,-434
204,-649,-854,222,529,-751,-546,-561,-683,-658,-478,-458
161,-658,-819,248,490,-739,-497,-561,-692,-658,-497,-468
146,-639,-785,246,466,-712,-448,-531,-653,-634,-497,-463
141,-629,-771,244,456,-700,-419,-512,-624,-619,-483,-453
117,-629,-746,256,431,-688,-400,-488,-595,-610,-492,-444
87,-614,-702,263,395,-658,-385,-468,-570,-585,-488,-448
73,-590,-663,258,368,-627,-351,-444,-531,-561,-468,-419
68,-551,-619,241,344,-585,-326,-405,-488,-527,-439,-385
58,-507,-566,224,312,-536,-312,-385,-453,-483,-409,-361
48,-463,-512,207,280,-488,-292,-366,-419,-434,-385,-341
48,-414,-463,183,256,-439,-263,-322,-385,-385,-351,-307
34,-375,-409,170,222,-392,-224,-278,-326,-331,-307,-273
19,-331,-351,156,185,-341,-190,-229,-268,-297,-268,-234
4,-273,-278,134,141,-275,-156,-165,-204,-253,-234,-195
0,-214,-214,107,107,-214,-117,-97,-136,-209,-200,-161
-39,-209,-170,124,65,-190,-87,-58,-97,-180,-175,-141
-112,-219,-107,165,-2,-163,-63,-43,-87,-161,-170,-131
-175,-224,-48,200,-63,-136,-43,-19,-63,-131,-151,-107
-185,-209,-24,197,-80,-117,-14,0,-39,-102,-112,-78
-185,-209,-24,197,-80,-117,-9,14,-29,-73,-107,-68
-180,-209,-29,195,-75,-119,-19,24,-14,-68,-102,-78
-195,-195,0,195,-97,-97,-19,39,-4,-68,-112,-82
-204,-190,14,197,-109,-87,0,58,-4,-82,-107,-82
-209,-180,29,195,-119,-75,9,68,4,-82,-117,-78
-219,-180,39,200,-129,-70,14,73,4,-78,-117,-78
-219,-190,29,204,-124,-80,19,78,4,-78,-112,-78
-219,-190,29,204,-124,-80,19,87,14,-68,-107,-73
-214,-170,43,192,-129,-63,19,97,19,-73,-97,-73
-219,-170,48,195,-134,-61,19,97,19,-78,-97,-73
-229,-170,58,200,-143,-56,19,102,19,-82,-97,-73
-244,-170,73,207,-158,-48,24,102,19,-87,-97,-73
-224,-156,68,190,-146,-43,34,102,19,-92,-102,-82
-219,-146,73,183,-146,-36,34,107,19,-102,-102,-82
-219,-141,78,180,-148,-31,34,112,24,-107,-107,-82
-214,-141,73,178,-143,-34,34,117,24,-112,-112,-82
-200,-131,68,165,-134,-31,48,126,29,-102,-102,-87
-190,-126,63,158,-126,-31,48,131,29,-102,-102,-87
-185,-126,58,156,-122,-34,48,131,34,-92,-92,-78
-190,-126,63,158,-126,-31,48,136,34,-92,-92,-73
-204,-131,73,168,-139,-29,39,131,19,-97,-102,-87
-214,-136,78,175,-146,-29,39,131,19,-97,-107,-97
-214,-136,78,175,-146,-29,43,131,19,-102,-107,-102
-209,-141,68,175,-139,-36,43,131,19,-107,-107,-107
-204,-141,63,173,-134,-39,43,141,34,-87,-92,-102
-204,-141,63,173,-134,-39,43,151,34,-82,-87,-97
-204,-146,58,175,-131,-43,43,151,34,-78,-82,-97
-204,-146,58,175,-131,-43,43,151,34,-73,-78,-97
-195,-141,53,168,-124,-43,43,156,34,-58,-63,-102
-200,-141,58,170,-129,-41,43,161,39,-53,-63,-102
-200,-141,58,170,-129,-41,43,161,39,-39,-63,-102
-195,-141,53,168,-124,-43,43,161,39,-34,-63,-97
-204,-126,78,165,-141,-24,53,165,29,-29,-73,-97
-204,-126,78,165,-141,-24,53,165,34,-24,-73,-97
-209,-126,82,168,-146,-21,53,170,34,-24,-73,-102
-209,-126,82,168,-146,-21,53,175,34,-24,-73,-107
-209,-131,78,170,-143,-26,48,165,34,-19,-73,-107
-209,-131,78,170,-143,-26,48,165,34,-19,-73,-102
-209,-136,73,173,-141,-31,48,170,34,-19,-73,-97
-209,-131,78,170,-143,-26,48,170,29,-24,-78,-97
-200,-122,78,161,-139,-21,58,170,29,-19,-68,-92
-200,-126,73,163,-136,-26,58,175,34,-14,-68,-87
-195,-126,68,161,-131,-29,58,180,39,-9,-68,-82
-195,-122,73,158,-134,-24,63,180,39,-4,-68,-78
-204,-126,78,165,-141,-24,53,180,39,-14,-78,-87
-204,-136,68,170,-136,-34,48,180,39,-14,-87,-87
-209,-146,63,178,-136,-41,48,180,39,-14,-92,-87
-209,-151,58,180,-134,-46,53,185,39,-14,-92,-87
-214,-141,73,178,-143,-34,63,195,43,-4,-87,-78
-214,-141,73,178,-143,-34,68,195,43,0,-87,-78
-219,-141,78,180,-148,-31,68,200,53,4,-82,-73
-224,-146,78,185,-151,-34,68,200,53,9,-82,-73
-219,-151,68,185,-143,-41,68,190,43,9,-92,-63
-214,-146,68,180,-141,-39,68,200,43,9,-92,-73
-200,-131,68,165,-134,-31,73,200,48,9,-92,-73
-195,-126,68,161,-131,-29,73,200,48,4,-92,-73
-204,-136,68,170,-136,-34,82,195,48,14,-92,-68
-200,-136,63,168,-131,-36,82,200,48,14,-92,-68
-200,-141,58,170,-129,-41,82,200,53,14,-87,-68
-200,-141,58,170,-129,-41,87,200,58,14,-87,-68
-195,-131,63,163,-129,-34,87,209,58,14,-87,-68
-190,-122,68,156,-129,-26,87,209,58,14,-87,-73
-195,-117,78,156,-136,-19,87,214,58,19,-87,-73
-190,-112,78,151,-134,-17,87,214,58,19,-87,-73
-180,-107,73,143,-126,-17,97,224,68,29,-78,-68
-185,-107,78,146,-131,-14,97,229,63,24,-78,-68
-190,-107,82,148,-136,-12,97,229,63,19,-78,-63
-190,-107,82,148,-136,-12,97,239,63,19,-78,-58
-195,-112,82,153,-139,-14,97,229,78,14,-87,-68
-195,-117,78,156,-136,-19,102,229,78,14,-87,-68
-190,-122,68,156,-129,-26,97,234,78,14,-87,-63
-190,-126,63,158,-126,-31,102,244,78,14,-87,-63
-185,-112,73,148,-129,-19,107,253,87,4,-87,-63
-185,-107,78,146,-131,-14,107,253,82,4,-87,-63
-185,-102,82,143,-134,-9,112,253,82,9,-87,-63
-185,-92,92,139,-139,0,117,248,82,9,-87,-63
-175,-92,82,134,-129,-4,107,248,82,4,-87,-73
-195,-97,97,146,-146,0,107,258,82,0,-87,-73
-204,-97,107,151,-156,4,107,258,82,0,-87,-73
-204,-97,107,151,-156,4,107,258,78,0,-82,-73
-214,-112,102,163,-158,-4,117,258,78,-14,-92,-82
-214,-112,102,163,-158,-4,117,258,78,-24,-97,-82
-219,-117,102,168,-161,-7,117,258,78,-34,-97,-78
-224,-122,102,173,-163,-9,117,263,78,-39,-97,-78
-209,-112,97,161,-153,-7,122,268,82,-34,-87,-78
-209,-102,107,156,-158,2,136,268,82,-34,-87,-78
-209,-112,97,161,-153,-7,126,263,82,-34,-87,-78
-204,-112,92,158,-148,-9,122,263,73,-39,-92,-78
-195,-97,97,146,-146,0,122,263,73,-58,-92,-87
-200,-97,102,148,-151,2,126,273,73,-58,-92,-82
-185,-97,87,141,-136,-4,136,273,78,-53,-82,-82
-165,-92,73,129,-119,-9,136,273,78,-53,-82,-82
-175,-97,78,136,-126,-9,122,268,78,-58,-82,-82
-200,-92,107,146,-153,7,122,268,78,-63,-87,-82
-209,-97,112,153,-161,7,122,268,78,-68,-87,-82
-224,-107,117,165,-170,4,122,268,73,-78,-87,-82
-224,-107,117,165,-170,4,122,268,63,-73,-87,-82
-219,-102,117,161,-168,7,122,263,58,-78,-87,-82
-214,-102,112,158,-163,4,122,258,58,-82,-92,-82
-209,-112,97,161,-153,-7,122,248,58,-82,-92,-87
-209,-122,87,165,-148,-17,131,258,53,-82,-92,-78
-219,-122,97,170,-158,-12,131,253,53,-82,-92,-73
-219,-122,97,170,-158,-12,131,248,53,-82,-92,-73
-214,-117,97,165,-156,-9,122,244,48,-87,-92,-73
-214,-107,107,161,-161,0,122,234,43,-97,-102,-82
-224,-107,117,165,-170,4,122,229,39,-97,-97,-78
-234,-117,117,175,-175,0,122,224,39,-97,-97,-73
-234,-117,117,175,-175,0,112,214,34,-97,-97,-73
-229,-107,122,168,-175,7,117,214,29,-97,-92,-68
-224,-107,117,165,-170,4,112,209,24,-102,-92,-68
-219,-102,117,161,-168,7,112,195,19,-102,-92,-68
-214,-102,112,158,-163,4,107,190,19,-97,-92,-68
-219,-92,126,156,-173,17,92,175,14,-87,-82,-68
-214,-92,122,153,-168,14,92,170,9,-82,-82,-68
-214,-97,117,156,-165,9,87,165,4,-73,-82,-58
-224,-97,126,161,-175,14,87,156,0,-68,-82,-58
-214,-92,122,153,-168,14,73,141,-19,-73,-92,-68
-214,-102,112,158,-163,4,68,126,-29,-78,-97,-68
-204,-87,117,146,-161,14,63,107,-29,-82,-92,-63
-204,-87,117,146,-161,14,63,97,-24,-82,-82,-58
-195,-78,117,136,-156,19,58,92,-24,-78,-73,-48
-190,-68,122,129,-156,26,63,82,-34,-73,-73,-48
-165,-68,97,117,-131,14,68,78,-43,-68,-73,-43
-156,-68,87,112,-122,9,63,68,-48,-73,-73,-43
-161,-87,73,124,-117,-7,43,58,-48,-63,-73,-43
-161,-78,82,119,-122,2,34,48,-53,-58,-73,-43
-156,-78,78,117,-117,0,34,39,-53,-58,-68,-43
-161,-78,82,119,-122,2,24,29,-63,-58,-58,-39
-156,-63,92,109,-124,14,34,9,-53,-43,-53,-29
-161,-63,97,112,-129,17,34,4,-58,-43,-53,-24
-161,-78,82,119,-122,2,29,-14,-58,-39,-53,-24
-161,-78,82,119,-122,2,19,-29,-63,-39,-53,-24
-170,-87,82,129,-126,-2,14,-43,-68,-48,-58,-34
-170,-87,82,129,-126,-2,9,-48,-73,-43,-58,-34
-170,-87,82,129,-126,-2,4,-53,-87,-43,-58,-39
-161,-92,68,126,-114,-12,-4,-68,-97,-43,-58,-39
-146,-92,53,119,-100,-19,-9,-73,-87,-39,-63,-29
-141,-87,53,114,-97,-17,-9,-78,-87,-34,-63,-29
-136,-78,58,107,-97,-9,-14,-87,-87,-19,-58,-29
-131,-73,58,102,-95,-7,-14,-87,-92,-14,-58,-29
-131,-73,58,102,-95,-7,-29,-97,-92,-19,-58,-29
-126,-73,53,100,-90,-9,-34,-107,-92,-19,-58,-29
-131,-78,53,104,-92,-12,-34,-117,-97,-19,-53,-29
-146,-82,63,114,-104,-9,-34,-117,-97,-19,-48,-34
-161,-92,68,126,-114,-12,-39,-126,-107,-19,-63,-43
-165,-102,63,134,-114,-19,-43,-126,-107,-24,-68,-43
-161,-117,43,139,-102,-36,-43,-126,-107,-29,-73,-43
-165,-126,39,146,-102,-43,-43,-131,-107,-29,-73,-43
-146,-117,29,131,-87,-43,-43,-131,-97,-29,-68,-34
-141,-112,29,126,-85,-41,-48,-126,-97,-29,-63,-34
-141,-112,29,126,-85,-41,-48,-126,-102,-24,-58,-34
-151,-117,34,134,-92,-41,-48,-122,-102,-24,-53,-34
-136,-112,24,124,-80,-43,-48,-122,-87,-19,-48,-34
-136,-107,29,122,-82,-39,-48,-117,-82,-14,-48,-34
-136,-102,34,119,-85,-34,-48,-117,-82,-9,-48,-34
-146,-97,48,122,-97,-24,-48,-117,-82,-9,-48,-34
-131,-82,48,107,-90,-17,-48,-126,-82,-9,-48,-34
-122,-82,39,102,-80,-21,-48,-126,-78,-19,-48,-34
-117,-82,34,100,-75,-24,-48,-126,-78,-19,-48,-34
-112,-87,24,100,-68,-31,-48,-122,-78,-19,-43,-34
-117,-92,24,104,-70,-34,-53,-107,-68,-4,-39,-24
-117,-102,14,109,-65,-43,-48,-107,-68,-4,-34,-24
-117,-107,9,112,-63,-48,-43,-102,-63,-4,-34,-24
-117,-107,9,112,-63,-48,-43,-97,-63,0,-34,-19
-126,-97,29,112,-78,-34,-53,-97,-68,0,-48,-29
-126,-102,24,114,-75,-39,-58,-97,-68,-4,-48,-29
-122,-102,19,112,-70,-41,-58,-97,-68,-4,-48,-29
-117,-97,19,107,-68,-39,-53,-92,-68,-4,-39,-24
-107,-97,9,102,-58,-43,-43,-82,-58,9,-29,-24
-102,-97,4,100,-53,-46,-39,-82,-58,9,-34,-24
-102,-97,4,100,-53,-46,-39,-82,-63,9,-34,-24
-102,-97,4,100,-53,-46,-39,-82,-68,9,-34,-24
-107,-97,9,102,-58,-43,-39,-82,-58,19,-34,-34
-112,-102,9,107,-61,-46,-34,-82,-53,19,-34,-34
-112,-102,9,107,-61,-46,-34,-78,-53,19,-34,-34
-112,-97,14,104,-63,-41,-34,-78,-53,19,-34,-29
-117,-87,29,102,-73,-29,-48,-78,-63,9,-39,-39
-117,-87,29,102,-73,-29,-48,-78,-58,9,-39,-39
-122,-87,34,104,-78,-26,-43,-73,-58,9,-39,-39
-122,-87,34,104,-78,-26,-43,-73,-58,9,-39,-39
-102,-73,29,87,-65,-21,-29,-63,-58,19,-34,-34
-92,-63,29,78,-61,-17,-29,-58,-53,24,-29,-29
-87,-63,24,75,-56,-19,-29,-58,-43,24,-24,-24
-82,-68,14,75,-48,-26,-24,-58,-39,29,-19,-19
-87,-78,9,82,-48,-34,-24,-58,-48,34,-29,-29
-92,-78,14,85,-53,-31,-24,-58,-48,39,-34,-29
-107,-82,24,95,-65,-29,-24,-58,-43,39,-34,-29
-117,-82,34,100,-75,-24,-19,-58,-39,39,-29,-29
-102,-68,34,85,-68,-17,-19,-53,-29,48,-19,-24
-97,-63,34,80,-65,-14,-19,-53,-34,48,-14,-19
-92,-58,34,75,-63,-12,-19,-53,-34,53,-9,-19
-82,-48,34,65,-58,-7,-19,-58,-34,53,-9,-14
-92,-58,34,75,-63,-12,-9,-58,-34,43,-14,-24
-92,-58,34,75,-63,-12,-9,-53,-34,43,-14,-24
-97,-58,39,78,-68,-9,-9,-53,-34,43,-19,-19
-102,-68,34,85,-68,-17,-9,-58,-34,43,-19,-19
-117,-78,39,97,-78,-19,-19,-68,-34,43,-34,-29
-117,-78,39,97,-78,-19,-19,-68,-34,34,-34,-29
-117,-82,34,100,-75,-24,-19,-68,-34,34,-34,-29
-117,-82,34,100,-75,-24,-19,-58,-29,34,-29,-29
-107,-73,34,90,-70,-19,-4,-43,-24,43,-29,-29
-112,-73,39,92,-75,-17,-4,-43,-19,43,-29,-29
-112,-68,43,90,-78,-12,-4,-48,-14,43,-29,-29
-112,-68,43,90,-78,-12,-4,-48,-9,43,-34,-29
-117,-73,43,95,-80,-14,0,-48,0,43,-24,-19
-117,-78,39,97,-78,-19,0,-53,0,43,-29,-19
-117,-82,34,100,-75,-24,0,-53,0,43,-34,-24
-117,-87,29,102,-73,-29,4,-53,0,34,-43,-24
-112,-87,24,100,-68,-31,4,-43,0,34,-43,-24
-107,-87,19,97,-63,-34,4,-39,0,34,-43,-24
-102,-82,19,92,-61,-31,4,-39,0,34,-43,-29
-97,-73,24,85,-61,-24,0,-39,-4,34,-43,-29
-112,-73,39,92,-75,-17,9,-43,0,19,-53,-34
-126,-73,53,100,-90,-9,9,-48,0,19,-53,-34
-136,-73,63,104,-100,-4,9,-48,0,19,-53,-34
-141,-68,73,104,-107,2,14,-48,4,24,-53,-34
-136,-68,68,102,-102,0,14,-43,0,14,-63,-34
-136,-73,63,104,-100,-4,14,-43,0,9,-63,-39
-136,-73,63,104,-100,-4,14,-43,0,0,-63,-43
-136,-73,63,104,-100,-4,14,-43,0,-14,-63,-63
-131,-68,63,100,-97,-2,14,-39,4,-24,-68,-58
-126,-63,63,95,-95,0,9,-39,4,-29,-63,-58
-122,-63,58,92,-90,-2,9,-39,4,-34,-58,-58
-122,-68,53,95,-87,-7,14,-39,4,-39,-48,-63
-122,-68,53,95,-87,-7,14,-39,4,-34,-58,-58
-122,-58,63,90,-92,2,14,-34,4,-29,-58,-58
-117,-68,48,92,-82,-9,19,-34,9,-34,-53,-63
-117,-68,48,92,-82,-9,19,-34,9,-39,-53,-68
-126,-63,63,95,-95,0,19,-24,9,-29,-43,-63
-126,-58,68,92,-97,4,14,-29,9,-29,-48,-63
-117,-58,58,87,-87,0,14,-29,9,-39,-48,-58
-112,-53,58,82,-85,2,14,-24,9,-43,-43,-53
-122,-63,58,92,-90,-2,19,-14,0,-34,-34,-43
-131,-68,63,100,-97,-2,24,-14,0,-29,-39,-48
-131,-73,58,102,-95,-7,24,-14,4,-29,-39,-53
-131,-73,58,102,-95,-7,29,-14,4,-29,-34,-53
-122,-78,43,100,-82,-17,24,-14,4,-29,-24,-39
-122,-73,48,97,-85,-12,24,-14,0,-24,-24,-39
-126,-73,53,100,-90,-9,24,-14,0,-19,-24,-39
-126,-73,53,100,-90,-9,24,-14,0,-14,-24,-39
-117,-68,48,92,-82,-9,24,-24,0,-14,-29,-39
-117,-68,48,92,-82,-9,19,-19,0,-14,-29,-39
-117,-68,48,92,-82,-9,19,-19,0,-14,-29,-39
-117,-63,53,90,-85,-4,19,-19,0,-14,-29,-39
-102,-68,34,85,-68,-17,19,-19,0,-9,-39,-29
-92,-63,29,78,-61,-17,14,-19,0,-4,-39,-29
-107,-63,43,85,-75,-9,14,-19,4,-4,-34,-29
-107,-68,39,87,-73,-14,14,-19,4,0,-34,-29
-97,-63,34,80,-65,-14,24,-9,4,-9,-24,-29
-97,-53,43,75,-70,-4,24,-9,4,-4,-24,-29
-97,-48,48,73,-73,0,24,-9,4,-4,-24,-29
-97,-43,53,70,-75,4,24,-9,4,-4,-24,-29
-92,-39,53,65,-73,7,24,-9,4,4,-34,-19
-92,-39,53,65,-73,7,24,-9,4,14,-39,-14
-87,-34,53,61,-70,9,24,-9,4,14,-39,-9
-87,-34,53,61,-70,9,19,-9,4,14,-29,-9
-102,-43,58,73,-80,7,9,-19,-4,9,-39,-14
-107,-53,53,80,-80,0,14,-19,-4,9,-39,-14
-122,-63,58,92,-90,-2,14,-19,-4,9,-39,-19
-131,-78,53,104,-92,-12,14,-19,-4,9,-43,-24
-122,-78,43,100,-82,-17,14,-9,4,0,-34,-34
-122,-78,43,100,-82,-17,9,-14,4,0,-34,-34
-117,-73,43,95,-80,-14,4,-14,0,0,-34,-34
-102,-68,34,85,-68,-17,4,-19,0,4,-34,-29
-102,-68,34,85,-68,-17,9,-29,0,-4,-43,-29
-102,-68,34,85,-68,-17,9,-29,0,0,-34,-29
-102,-68,34,85,-68,-17,9,-24,0,0,-24,-29
-102,-68,34,85,-68,-17,9,-24,0,0,-24,-19
-92,-68,24,80,-58,-21,9,-24,0,-4,-24,-24
-92,-68,24,80,-58,-21,14,-19,4,-4,-24,-29
-92,-68,24,80,-58,-21,14,-19,4,0,-24,-34
-92,-63,29,78,-61,-17,9,-19,4,0,-24,-39
-92,-53,39,73,-65,-7,0,-19,0,-14,-34,-39
-92,-53,39,73,-65,-7,0,-19,0,-14,-34,-39
-92,-53,39,73,-65,-7,0,-19,0,-14,-34,-39
-92,-53,39,73,-65,-7,0,-24,0,-9,-34,-39
-92,-58,34,75,-63,-12,9,-34,-9,0,-24,-39
-97,-63,34,80,-65,-14,9,-34,-9,0,-24,-39
-97,-68,29,82,-63,-19,9,-34,-14,4,-24,-34
-102,-78,24,90,-63,-26,9,-34,-14,4,-24,-34
-112,-63,48,87,-80,-7,0,-43,-19,14,-24,-43
-102,-58,43,80,-73,-7,0,-43,-19,14,-19,-43
-102,-53,48,78,-75,-2,0,-43,-19,14,-19,-43
-102,-48,53,75,-78,2,0,-43,-19,14,-19,-43
-92,-39,53,65,-73,7,-4,-43,-9,14,-19,-43
-92,-39,53,65,-73,7,-4,-43,-9,14,-19,-43
-92,-39,53,65,-73,7,-4,-43,-9,14,-19,-43
-92,-39,53,65,-73,7,-4,-43,-9,9,-19,-43
-102,-39,63,70,-82,12,-4,-48,-9,9,-19,-53
-102,-39,63,70,-82,12,-4,-43,-9,9,-19,-48
-102,-43,58,73,-80,7,0,-43,-9,9,-19,-48
-102,-43,58,73,-80,7,4,-43,-14,14,-14,-48
-102,-43,58,73,-80,7,-4,-43,-14,14,-14,-48
-102,-48,53,75,-78,2,0,-39,-14,14,-14,-48
-107,-58,48,82,-78,-4,0,-39,-9,19,-14,-48
-107,-63,43,85,-75,-9,0,-39,-9,19,-14,-43
-97,-53,43,75,-70,-4,9,-24,0,19,-9,-34
-87,-43,43,65,-65,0,9,-24,0,24,-9,-34
-82,-39,43,61,-63,2,9,-29,0,24,-14,-34
-78,-34,43,56,-61,4,9,-29,0,29,-14,-34
-68,-34,34,51,-51,0,9,-24,4,34,-14,-24
-58,-19,39,39,-48,9,9,-9,19,39,-9,-19
-68,-14,53,41,-61,19,14,-9,19,48,-9,-19
-68,-9,58,39,-63,24,19,-9,19,48,-9,-19
-68,-4,63,36,-65,29,24,-9,19,48,-9,-19
-68,0,68,34,-68,34,29,-9,19,48,-9,-19
-58,0,58,29,-58,29,34,-9,24,58,-9,-9
-53,0,53,26,-53,26,39,0,29,58,-9,-9
-53,4,58,24,-56,31,48,0,34,58,-4,-9
-53,4,58,24,-56,31,58,0,39,58,-4,-4
-63,-4,58,34,-61,26,58,9,48,58,-14,-4
-73,-4,68,39,-70,31,53,9,48,58,-14,-4
-78,-4,73,41,-75,34,53,9,48,58,-14,0
-78,0,78,39,-78,39,48,4,48,58,-14,0
-78,4,82,36,-80,43,48,-9,48,58,-19,0
-78,4,82,36,-80,43,48,-9,48,58,-19,-4
-78,0,78,39,-78,39,39,-9,48,58,-14,-4
-68,0,68,34,-68,34,39,-9,48,58,-14,4
-63,14,78,24,-70,46,24,-9,48,58,-14,14
-53,14,68,19,-61,41,24,-9,48,58,-14,14
-48,9,58,19,-53,34,14,-14,48,58,-19,14
-48,4,53,21,-51,29,14,-14,48,58,-19,9
-58,0,58,29,-58,29,9,-29,43,63,-19,9
-58,0,58,29,-58,29,9,-29,43,63,-14,9
-58,9,68,24,-63,39,4,-34,43,63,-14,14
-58,9,68,24,-63,39,-4,-34,43,58,-14,14
-58,9,68,24,-63,39,-9,-34,43,58,-4,24
-58,9,68,24,-63,39,-9,-39,43,58,-4,19
-53,9,63,21,-58,36,-14,-39,39,53,-4,19
-43,19,63,12,-53,41,-14,-39,39,53,-4,19
-34,14,48,9,-41,31,-29,-48,29,43,-4,19
-29,14,43,7,-36,29,-29,-48,29,43,-4,19
-19,9,29,4,-24,19,-24,-43,29,43,-4,19
-14,9,24,2,-19,17,-24,-43,29,39,-4,19
-34,0,34,17,-34,17,-34,-48,19,29,-14,4
-39,-4,34,21,-36,14,-34,-48,19,29,-14,4
-48,-4,43,26,-46,19,-34,-48,19,34,-14,4
-48,-9,39,29,-43,14,-39,-48,19,34,-14,4
-34,0,34,17,-34,17,-29,-39,29,29,-4,9
-29,4,34,12,-31,19,-29,-39,29,29,-4,14
-24,9,34,7,-29,21,-29,-43,29,34,-4,14
-19,14,34,2,-26,24,-29,-43,29,34,-4,14
-29,0,29,14,-29,14,-19,-43,19,43,4,14
-29,-9,19,19,-24,4,-19,-43,14,29,4,14
-34,-9,24,21,-29,7,-19,-39,14,29,0,4
-34,-9,24,21,-29,7,-9,-39,14,29,0,4
-24,-9,14,17,-19,2,-4,-29,19,19,-14,-9
-34,-9,24,21,-29,7,0,-29,19,19,-14,-9
-34,-9,24,21,-29,7,4,-24,19,19,-14,-9
-48,-24,24,36,-36,0,4,-24,19,14,-14,-14
-53,-19,34,36,-43,7,9,-24,19,14,-14,-14
-53,-19,34,36,-43,7,9,-24,14,14,-14,-14
-58,-14,43,36,-51,14,4,-29,14,4,-19,-19
-63,-14,48,39,-56,17,4,-29,14,4,-19,-19
-68,-24,43,46,-56,9,4,-29,9,0,-19,-24
-73,-39,34,56,-53,-2,4,-39,4,-4,-19,-29
-78,-48,29,63,-53,-9,4,-39,4,-9,-19,-29
-82,-53,29,68,-56,-12,9,-34,4,-19,-19,-29
-73,-48,24,61,-48,-12,9,-43,4,-29,-29,-39
-68,-48,19,58,-43,-14,4,-43,4,-29,-29,-39
-63,-43,19,53,-41,-12,4,-43,0,-29,-29,-39
-58,-39,19,48,-39,-9,4,-43,0,-39,-29,-39
-58,-39,19,48,-39,-9,4,-43,0,-48,-19,-48
-63,-39,24,51,-43,-7,0,-43,0,-43,-19,-48
-73,-43,29,58,-51,-7,0,-48,0,-43,-19,-48
-78,-48,29,63,-53,-9,4,-48,0,-39,-19,-48
-87,-58,29,73,-58,-14,4,-53,0,-29,-9,-48
-87,-58,29,73,-58,-14,4,-53,0,-29,-9,-43
-92,-58,34,75,-63,-12,4,-53,4,-29,-9,-43
-92,-58,34,75,-63,-12,4,-53,4,-29,-9,-43
-82,-48,34,65,-58,-7,4,-48,4,-19,-9,-53
-82,-48,34,65,-58,-7,4,-48,4,-19,-9,-53
-82,-48,34,65,-58,-7,4,-53,4,-19,-9,-58
-82,-48,34,65,-58,-7,4,-53,4,-19,-9,-58
-87,-48,39,68,-63,-4,4,-53,4,-14,-9,-63
-87,-48,39,68,-63,-4,0,-53,4,-9,-9,-63
-92,-48,43,70,-68,-2,0,-53,4,-4,-9,-63
-92,-48,43,70,-68,-2,0,-53,4,0,-9,-63
-82,-53,29,68,-56,-12,-4,-63,-4,9,-9,-73
-82,-53,29,68,-56,-12,-4,-63,-4,9,-9,-73
-82,-58,24,70,-53,-17,-4,-63,-9,9,-9,-73
-92,-63,29,78,-61,-17,-4,-63,-9,9,-14,-73
-102,-73,29,87,-65,-21,0,-53,0,19,-14,-63
-102,-68,34,85,-68,-17,4,-53,4,24,-14,-63
-102,-58,43,80,-73,-7,14,-53,4,24,-14,-63
-117,-58,58,87,-87,0,24,-53,4,24,-14,-63
-92,-9,82,51,-87,36,48,-43,14,58,-4,-39
-92,-4,87,48,-90,41,53,-43,14,63,4,-39
-87,-14,73,51,-80,29,63,-58,14,63,4,-39
-97,-14,82,56,-90,34,73,-63,4,78,4,-34
-107,4,112,51,-109,58,78,-53,24,107,9,-24
-117,0,117,58,-117,58,92,-39,48,126,24,-9
-107,-4,102,56,-104,48,92,-58,68,131,24,4
-87,9,97,39,-92,53,87,-82,73,156,34,19
-68,29,97,19,-82,63,73,-131,87,200,53,29
-58,43,102,7,-80,73,39,-190,112,244,87,58
-39,39,78,0,-58,58,-24,-287,102,278,117,82
-4,39,43,-17,-24,41,-122,-385,87,302,131,92
4,34,29,-19,-12,31,-239,-453,97,326,151,97
29,34,4,-31,12,19,-361,-507,92,346,170,112
63,34,-29,-48,46,2,-541,-570,73,361,195,131
131,34,-97,-82,114,-31,-761,-658,48,395,239,161
204,48,-156,-126,180,-53,-941,-756,29,444,292,195
278,48,-229,-163,253,-90,-1098,-849,14,468,336,229
346,58,-287,-202,317,-114,-1259,-951,-4,483,375,263
414,107,-307,-261,361,-100,-1405,-1039,0,531,419,307
483,146,-336,-314,409,-95,-1512,-1102,19,551,468,351
541,156,-385,-348,463,-114,-1605,-1122,34,512,468,341
600,131,-468,-366,534,-168,-1659,-1073,48,429,409,283
610,68,-541,-339,575,-236,-1634,-985,53,312,312,204
590,-9,-600,-290,595,-305,-1586,-888,63,180,219,136
590,-87,-678,-251,634,-383,-1522,-785,63,53,131,73
610,-156,-766,-226,688,-461,-1449,-653,39,-92,39,-9
614,-253,-868,-180,741,-561,-1366,-512,19,-214,-58,-92
624,-336,-961,-143,793,-649,-1273,-380,19,-292,-122,-146
653,-361,-1015,-146,834,-688,-1185,-283,9,-322,-156,-180
683,-370,-1054,-156,868,-712,-1098,-234,-39,-346,-175,-204
678,-390,-1068,-143,873,-729,-1010,-219,-122,-380,-209,-239
634,-414,-1049,-109,841,-732,-922,-239,-214,-429,-244,-258
580,-424,-1005,-78,793,-714,-844,-287,-297,-483,-287,-292
541,-439,-980,-51,761,-710,-771,-370,-385,-522,-336,-322
488,-463,-951,-12,719,-707,-692,-429,-463,-541,-375,-361
419,-488,-907,34,663,-697,-614,-453,-517,-566,-390,-370
366,-492,-858,63,612,-675,-556,-463,-556,-580,-400,-380
346,-507,-854,80,600,-680,-507,-492,-600,-614,-434,-405
312,-531,-844,109,578,-688,-468,-522,-624,-639,-458,-429
258,-541,-800,141,529,-671,-429,-522,-624,-649,-488,-439
234,-522,-756,143,495,-639,-409,-502,-614,-644,-497,-444
219,-522,-741,151,480,-631,-380,-492,-595,-639,-502,-453
195,-541,-736,173,466,-639,-361,-468,-566,-619,-512,-453
165,-556,-722,195,444,-639,-326,-439,-531,-585,-497,-429
151,-512,-663,180,407,-588,-302,-424,-512,-551,-468,-409
146,-434,-580,143,363,-507,-278,-395,-468,-517,-429,-385
117,-380,-497,131,307,-439,-253,-366,-424,-463,-390,-351
107,-356,-463,124,285,-409,-224,-326,-370,-424,-366,-312
107,-307,-414,100,261,-361,-195,-283,-326,-405,-341,-287
102,-268,-370,82,236,-319,-165,-239,-278,-370,-307,-253
107,-224,-331,58,219,-278,-141,-180,-219,-307,-258,-204
92,-175,-268,41,180,-222,-107,-117,-165,-253,-214,-175
48,-146,-195,48,122,-170,-68,-87,-136,-219,-190,-161
9,-112,-122,51,65,-117,-29,-48,-107,-180,-165,-141
-14,-92,-78,53,31,-85,14,-4,-68,-122,-131,-112
-48,-87,-39,68,-4,-63,43,19,-34,-82,-102,-97
-68,-92,-24,80,-21,-58,34,29,-9,-73,-92,-97
-97,-102,-4,100,-46,-53,29,34,0,-82,-97,-97
-122,-92,29,107,-75,-31,29,53,14,-78,-82,-87
-107,-68,39,87,-73,-14,39,87,34,-58,-63,-73
-58,-14,43,36,-51,14,68,117,53,-24,-39,-53
-78,-19,58,48,-68,19,78,122,53,-34,-39,-58
-92,-24,68,58,-80,21,82,122,53,-29,-39,-58
-97,-39,58,68,-78,9,87,122,53,-29,-34,-58
-102,-43,58,73,-80,7,87,126,63,-19,-29,-53
-97,-39,58,68,-78,9,87,131,58,-29,-29,-53
-102,-43,58,73,-80,7,87,126,58,-29,-29,-53
-112,-48,63,80,-87,7,87,126,58,-29,-29,-53
-126,-53,73,90,-100,9,92,122,58,-29,-29,-53
-102,-43,58,73,-80,7,92,112,58,-19,-39,-63
-102,-39,63,70,-82,12,92,117,58,-24,-34,-63
-107,-39,68,73,-87,14,92,122,63,-24,-34,-63
-107,-43,63,75,-85,9,92,126,63,-24,-34,-63
-87,-39,48,63,-68,4,107,136,68,-14,-24,-58
-82,-29,53,56,-68,12,107,141,68,-14,-24,-58
-82,-24,58,53,-70,17,107,141,73,-4,-14,-48
-92,-19,73,56,-82,26,107,146,73,-4,-14,-43
-107,-29,78,68,-92,24,107,151,58,-4,-14,-43
-117,-29,87,73,-102,29,107,151,58,0,-19,-48
-117,-24,92,70,-104,34,112,151,58,0,-19,-48
-112,-24,87,68,-100,31,112,151,58,0,-19,-48
-117,-24,92,70,-104,34,112,151,63,-4,-9,-34
-117,-24,92,70,-104,34,112,161,63,-4,-9,-29
-117,-29,87,73,-102,29,112,161,63,-4,-9,-29
-117,-29,87,73,-102,29,112,161,63,-4,-9,-29
-107,-14,92,61,-100,39,112,165,53,-4,-9,-24
-112,-14,97,63,-104,41,112,170,58,-4,-14,-24
-112,-14,97,63,-104,41,112,170,58,4,-19,-24
-107,-14,92,61,-100,39,112,170,58,4,-24,-19
-117,-14,102,65,-109,43,112,165,58,0,-34,-24
-117,-19,97,68,-107,39,112,165,63,4,-34,-19
-122,-24,97,73,-109,36,112,170,63,4,-34,-19
-122,-29,92,75,-107,31,112,175,63,4,-34,-19
-117,-29,87,73,-102,29,126,185,63,0,-34,-19
-112,-24,87,68,-100,31,126,185,63,0,-34,-14
-107,-24,82,65,-95,29,126,190,63,0,-34,-9
-102,-14,87,58,-95,36,126,190,58,-4,-39,-9
-112,-14,97,63,-104,41,136,200,68,4,-48,0
-112,-19,92,65,-102,36,136,204,73,4,-48,0
-107,-19,87,63,-97,34,136,209,78,4,-48,0
-107,-14,92,61,-100,39,141,209,78,4,-48,0
-107,-4,102,56,-104,48,131,209,68,-4,-48,0
-107,-9,97,58,-102,43,126,209,68,-4,-58,0
-112,-14,97,63,-104,41,126,209,68,-4,-63,0
-112,-14,97,63,-104,41,131,214,68,-4,-63,0
-107,-24,82,65,-95,29,122,204,53,-9,-68,-9
-107,-24,82,65,-95,29,126,204,53,-9,-68,-9
-112,-24,87,68,-100,31,126,209,63,-9,-63,-4
-117,-29,87,73,-102,29,126,209,63,-9,-63,-4
-117,-34,82,75,-100,24,136,219,63,0,-73,4
-117,-29,87,73,-102,29,136,229,63,0,-73,-4
-107,-14,92,61,-100,39,141,229,68,0,-73,-4
-107,-9,97,58,-102,43,141,229,68,-4,-73,-4
-107,-19,87,63,-97,34,141,234,58,-4,-63,-4
-102,-19,82,61,-92,31,141,239,58,-4,-63,0
-102,-24,78,63,-90,26,141,239,63,-4,-58,4
-102,-24,78,63,-90,26,146,239,68,-4,-58,9
-102,-14,87,58,-95,36,146,239,78,-4,-68,9
-102,-4,97,53,-100,46,146,239,78,-4,-68,4
-112,0,112,56,-112,56,146,244,78,0,-68,4
-112,4,117,53,-114,61,146,244,78,0,-68,4
-112,-9,102,61,-107,46,146,253,78,9,-68,14
-117,-9,107,63,-112,48,146,258,73,4,-68,9
-122,-9,112,65,-117,51,146,258,73,0,-68,9
-122,-9,112,65,-117,51,146,268,73,0,-68,9
-126,-19,107,73,-117,43,141,258,68,-4,-68,0
-126,-19,107,73,-117,43,151,258,68,-4,-68,0
-122,-19,102,70,-112,41,151,263,68,-4,-68,4
-122,-19,102,70,-112,41,161,273,68,-4,-68,4
-112,-9,102,61,-107,46,170,263,78,-4,-58,14
-117,-9,107,63,-112,48,165,263,73,-4,-58,14
-122,-9,112,65,-117,51,165,263,73,0,-58,14
-126,-4,122,65,-124,58,165,258,73,0,-58,14
-117,-19,97,68,-107,39,165,268,73,4,-58,4
-136,-29,107,82,-122,39,165,278,73,0,-58,4
-146,-34,112,90,-129,39,165,278,73,0,-58,4
-146,-39,107,92,-126,34,165,278,68,0,-53,4
-141,-24,117,82,-129,46,175,287,68,0,-43,0
-126,-14,112,70,-119,48,175,287,68,-4,-48,4
-117,-9,107,63,-112,48,175,287,68,-9,-48,14
-107,-4,102,56,-104,48,175,292,68,-9,-48,19
-97,-14,82,56,-90,34,180,297,63,-4,-48,14
-102,-4,97,53,-100,46,195,297,63,-4,-48,9
-107,-14,92,61,-100,39,185,292,63,-4,-48,4
-107,-14,92,61,-100,39,180,292,53,-9,-53,0
-117,-19,97,68,-107,39,180,283,63,-19,-53,0
-131,-19,112,75,-122,46,185,292,63,-19,-53,4
-126,-19,107,73,-117,43,195,292,68,-14,-43,4
-117,-14,102,65,-109,43,195,292,68,-14,-43,4
-107,-24,82,65,-95,29,190,297,58,-14,-43,4
-122,-14,107,68,-114,46,190,297,58,-14,-48,4
-122,-14,107,68,-114,46,190,297,58,-14,-48,4
-126,-19,107,73,-117,43,190,297,53,-19,-48,4
-122,-19,102,70,-112,41,190,297,53,-14,-39,4
-122,-14,107,68,-114,46,190,292,48,-19,-39,4
-122,-14,107,68,-114,46,190,287,48,-24,-43,4
-122,-24,97,73,-109,36,190,278,48,-24,-43,0
-107,-9,97,58,-102,43,190,287,43,-14,-43,0
-112,-4,107,58,-109,51,190,283,43,-14,-43,4
-107,0,107,53,-107,53,190,278,43,-14,-43,4
-97,9,107,43,-102,58,180,273,39,-19,-43,4
-107,4,112,51,-109,58,180,263,34,-19,-53,4
-126,0,126,63,-126,63,180,258,29,-19,-48,9
-146,-14,131,80,-139,58,180,253,29,-19,-48,14
-156,-19,136,87,-146,58,170,244,24,-19,-48,14
-156,-29,126,92,-141,48,156,224,9,-29,-53,0
-156,-29,126,92,-141,48,151,219,4,-34,-53,0
-156,-24,131,90,-143,53,151,204,0,-34,-53,0
-156,-24,131,90,-143,53,146,200,0,-29,-53,0
-141,-14,126,78,-134,56,156,195,0,-34,-53,9
-126,-4,122,65,-124,58,161,190,0,-34,-53,9
-117,0,117,58,-117,58,161,185,0,-29,-53,19
-117,9,126,53,-122,68,165,175,0,-29,-53,19
-122,0,122,61,-122,61,161,175,0,-19,-48,29
-126,-14,112,70,-119,48,156,165,-9,-19,-48,29
-122,-4,117,63,-119,56,151,151,-9,-19,-39,34
-126,-9,117,68,-122,53,151,146,-4,-14,-24,39
-122,-9,112,65,-117,51,131,126,-14,-24,-29,39
-122,0,122,61,-122,61,131,112,-24,-24,-34,39
-102,0,102,51,-102,51,131,102,-34,-24,-39,43
-97,0,97,48,-97,48,122,87,-39,-34,-43,43
-107,-14,92,61,-100,39,122,68,-58,-34,-48,24
-112,-9,102,61,-107,46,112,58,-63,-29,-53,24
-112,-14,97,63,-104,41,112,48,-63,-29,-53,24
-122,-19,102,70,-112,41,102,39,-73,-29,-48,29
-112,-4,107,58,-109,51,92,19,-63,-34,-53,29
-112,-4,107,58,-109,51,92,14,-68,-34,-53,34
-107,-19,87,63,-97,34,87,-4,-68,-29,-53,34
-102,-19,82,61,-92,31,78,-19,-73,-29,-53,34
-92,-4,87,48,-90,41,82,-24,-82,-29,-48,43
-92,0,92,46,-92,46,78,-29,-82,-24,-48,43
-92,4,97,43,-95,51,73,-34,-92,-24,-48,39
-82,4,87,39,-85,46,63,-48,-97,-24,-48,39
-87,-14,73,51,-80,29,48,-63,-97,-34,-53,39
-92,-19,73,56,-82,26,48,-68,-97,-34,-53,39
-97,-19,78,58,-87,29,43,-78,-97,-24,-48,39
-102,-24,78,63,-90,26,43,-78,-102,-24,-48,39
-87,-14,73,51,-80,29,39,-87,-102,-29,-48,39
-78,-14,63,46,-70,24,34,-97,-102,-29,-48,39
-78,-19,58,48,-68,19,34,-107,-107,-29,-43,39
-87,-24,63,56,-75,19,34,-107,-107,-29,-39,34
-87,-19,68,53,-78,24,39,-97,-97,-24,-39,43
-87,-14,73,51,-80,29,34,-97,-97,-24,-39,43
-78,-14,63,46,-70,24,34,-97,-97,-24,-39,43
-78,-9,68,43,-73,29,34,-102,-97,-19,-34,43
-68,-9,58,39,-63,24,43,-102,-87,-19,-34,34
-63,-4,58,34,-61,26,39,-97,-87,-19,-34,34
-63,-4,58,34,-61,26,39,-97,-92,-14,-34,34
-73,-9,63,41,-68,26,39,-92,-92,-14,-34,34
-48,0,48,24,-48,24,39,-87,-78,-9,-19,43
-48,0,48,24,-48,24,39,-78,-73,-4,-19,43
-48,0,48,24,-48,24,39,-73,-73,0,-19,43
-58,0,58,29,-58,29,39,-68,-73,0,-19,43
-39,14,53,12,-46,34,39,-78,-73,0,-19,43
-34,14,48,9,-41,31,39,-58,-58,9,0,53
-34,14,48,9,-41,31,48,-48,-48,19,0,63
-48,0,48,24,-48,24,58,-39,-48,9,0,58
-48,0,48,24,-48,24,48,-39,-53,14,-9,53
-48,0,48,24,-48,24,48,-39,-58,19,-9,48
-48,0,48,24,-48,24,48,-39,-63,24,-9,43
-48,0,48,24,-48,24,48,-39,-68,29,-9,39
-34,4,39,14,-36,21,58,-34,-53,34,0,48
-24,9,34,7,-29,21,58,-19,-48,39,0,48
-19,19,39,0,-29,29,63,-14,-43,43,4,48
-14,24,39,-4,-26,31,68,-9,-39,48,4,53
-14,24,39,-4,-26,31,78,-4,-34,63,9,53
-14,24,39,-4,-26,31,73,0,-29,68,14,53
-9,24,34,-7,-21,29,73,4,-24,73,19,58
0,29,29,-14,-14,29,68,4,-19,78,24,58
-9,43,53,-17,-31,48,78,0,-29,78,9,58
-9,43,53,-17,-31,48,78,0,-29,78,9,53
-9,39,48,-14,-29,43,68,0,-29,78,14,53
0,39,39,-19,-19,39,68,0,-29,78,14,63
-9,34,43,-12,-26,39,68,4,-19,87,24,63
-4,34,39,-14,-21,36,73,9,-19,87,24,63
-4,29,34,-12,-19,31,68,9,-19,87,19,63
-9,24,34,-7,-21,29,73,14,-19,87,19,58
-19,14,34,2,-26,24,82,0,-34,68,14,48
-29,9,39,9,-34,24,87,0,-34,63,14,48
-39,14,53,12,-46,34,87,-4,-34,58,9,53
-48,9,58,19,-53,34,82,-4,-34,48,4,53
-39,14,53,12,-46,34,87,-4,-43,58,4,53
-39,19,58,9,-48,39,87,-9,-43,58,4,48
-34,24,58,4,-46,41,82,-9,-48,53,4,48
-24,39,63,-7,-43,51,82,-9,-48,53,4,48
-24,24,48,0,-36,36,92,-9,-39,63,4,58
-29,24,53,2,-41,39,97,-9,-39,63,4,58
-29,19,48,4,-39,34,107,-4,-39,63,4,58
-34,19,53,7,-43,36,112,-4,-39,58,4,58
-29,24,53,2,-41,39,107,-4,-29,68,4,53
-19,24,43,-2,-31,34,112,0,-29,68,4,53
-14,29,43,-7,-29,36,117,4,-29,73,4,53
0,29,29,-14,-14,29,117,9,-29,73,4,53
-14,34,48,-9,-31,41,117,19,-29,63,4,58
-19,34,53,-7,-36,43,117,19,-29,58,4,63
-24,34,58,-4,-41,46,117,14,-29,58,4,63
-29,34,63,-2,-46,48,117,14,-29,53,4,63
-39,29,68,4,-53,48,117,14,-19,63,4,73
-39,19,58,9,-48,39,117,14,-24,48,4,73
-43,19,63,12,-53,41,117,19,-24,48,0,63
-43,19,63,12,-53,41,126,19,-24,48,0,63
-34,24,58,4,-46,41,112,19,-34,43,-4,58
-34,29,63,2,-48,46,107,9,-39,39,-4,58
-24,34,58,-4,-41,46,102,4,-43,34,-4,58
-29,24,53,2,-41,39,92,-4,-48,24,-4,53
-19,29,48,-4,-34,39,92,-14,-48,24,-14,53
-14,29,43,-7,-29,36,87,-14,-53,24,-14,53
-14,34,48,-9,-31,41,78,-19,-53,14,-19,48
-14,34,48,-9,-31,41,73,-19,-53,14,-19,48
-29,24,53,2,-41,39,63,-9,-48,14,-24,48
-34,9,43,12,-39,26,63,-19,-53,14,-19,48
-39,0,39,19,-39,19,63,-19,-53,14,-14,53
-43,-4,39,24,-41,17,68,-14,-53,9,-9,58
-29,4,34,12,-31,19,58,-14,-43,19,-9,58
-29,9,39,9,-34,24,53,-14,-43,19,-9,58
-29,19,48,4,-39,34,53,-14,-48,19,-9,58
-29,29,58,0,-43,43,53,-14,-48,9,-9,58
-24,29,53,-2,-39,41,63,-4,-48,9,-19,58
-24,29,53,-2,-39,41,58,-4,-48,14,-19,58
-29,24,53,2,-41,39,58,-9,-48,14,-19,58
-29,19,48,4,-39,34,63,-9,-48,19,-19,58
-39,9,48,14,-43,29,63,-14,-48,19,-19,58
-39,9,48,14,-43,29,63,-14,-48,19,-19,63
-43,9,53,17,-48,31,63,-14,-43,19,-19,63
-43,9,53,17,-48,31,63,-14,-43,19,-19,63
-34,24,58,4,-46,41,63,-19,-34,19,-19,63
-34,29,63,2,-48,46,63,-19,-34,19,-19,63
-34,34,68,0,-51,51,63,-24,-34,19,-19,58
-34,39,73,-2,-53,56,63,-24,-34,19,-19,58
-24,43,68,-9,-46,56,53,-14,-24,34,-9,73
-19,48,68,-14,-43,58,48,-14,-24,39,-9,73
-19,53,73,-17,-46,63,48,-14,-24,43,-9,73
-14,58,73,-21,-43,65,48,-14,-24,48,-9,73
-24,63,87,-19,-56,75,53,-24,-29,48,-19,73
-24,63,87,-19,-56,75,53,-24,-34,48,-19,73
-24,58,82,-17,-53,70,53,-24,-43,48,-19,73
-34,53,87,-9,-61,70,53,-24,-48,48,-24,73
-34,39,73,-2,-53,56,48,-14,-48,39,-24,63
-34,39,73,-2,-53,56,53,-14,-43,43,-24,63
-34,43,78,-4,-56,61,63,-14,-43,43,-24,63
-48,39,87,4,-68,63,73,-14,-43,43,-24,63
-53,29,82,12,-68,56,78,-14,-53,39,-24,58
-53,43,97,4,-75,70,92,-14,-43,43,-14,68
-48,73,122,-12,-85,97,122,0,-14,63,-4,78
-48,82,131,-17,-90,107,151,14,34,87,4,92
-58,82,141,-12,-100,112,165,4,34,97,0,92
-58,78,136,-9,-97,107,170,0,9,97,4,97
-48,73,122,-12,-85,97,180,0,9,112,14,102
-48,78,126,-14,-87,102,175,-4,24,126,24,117
-39,97,136,-29,-87,117,161,-63,29,141,43,117
-29,102,131,-36,-80,117,126,-141,24,165,68,126
-9,97,107,-43,-58,102,63,-248,24,190,87,141
14,97,82,-56,-34,90,-63,-385,29,214,102,161
43,102,58,-73,-7,80,-209,-512,29,258,131,175
87,102,14,-95,36,58,-400,-614,4,278,161,209
141,92,-48,-117,95,21,-639,-736,-53,292,185,219
209,82,-126,-146,168,-21,-888,-873,-107,297,219,239
263,78,-185,-170,224,-53,-1088,-1029,-146,317,263,263
326,78,-248,-202,287,-85,-1263,-1180,-161,361,307,287
385,97,-287,-241,336,-95,-1424,-1302,-161,405,356,312
453,146,-307,-300,380,-80,-1561,-1410,-146,463,419,366
551,224,-326,-387,439,-51,-1678,-1483,-126,522,488,429
649,253,-395,-451,522,-70,-1751,-1483,-131,522,507,458
688,229,-458,-458,573,-114,-1766,-1415,-136,468,478,429
697,165,-531,-431,614,-183,-1732,-1298,-112,351,409,370
727,126,-600,-427,663,-236,-1664,-1161,-82,219,336,292
727,68,-658,-397,692,-295,-1561,-1029,-73,92,258,219
717,-39,-756,-339,736,-397,-1459,-888,-78,-34,156,136
741,-146,-888,-297,814,-517,-1356,-746,-97,-156,48,43
761,-209,-971,-275,866,-590,-1244,-624,-117,-253,-24,-19
761,-253,-1015,-253,888,-634,-1166,-556,-156,-312,-78,-63
741,-292,-1034,-224,888,-663,-1088,-497,-214,-366,-117,-87
736,-322,-1058,-207,897,-690,-1000,-444,-268,-419,-161,-122
732,-326,-1058,-202,895,-692,-912,-424,-341,-478,-204,-161
649,-366,-1015,-141,832,-690,-824,-453,-434,-522,-248,-195
551,-409,-961,-70,756,-685,-741,-507,-512,-551,-278,-224
488,-434,-922,-26,705,-678,-663,-556,-570,-570,-307,-234
478,-439,-917,-19,697,-678,-595,-580,-634,-585,-331,-253
463,-434,-897,-14,680,-666,-536,-600,-683,-600,-370,-263
453,-448,-902,-2,678,-675,-497,-610,-697,-605,-395,-278
429,-444,-873,7,651,-658,-468,-590,-673,-619,-409,-283
375,-434,-810,29,592,-622,-419,-561,-653,-629,-419,-292
292,-434,-727,70,509,-580,-390,-541,-644,-644,-439,-307
239,-444,-683,102,461,-563,-351,-512,-624,-639,-453,-326
224,-434,-658,104,441,-546,-322,-478,-566,-629,-453,-326
224,-409,-634,92,429,-522,-278,-448,-522,-575,-439,-312
229,-375,-605,73,417,-490,-224,-414,-492,-522,-419,-283
204,-356,-561,75,383,-458,-200,-366,-458,-478,-390,-248
185,-331,-517,73,351,-424,-204,-346,-453,-453,-361,-214
185,-278,-463,46,324,-370,-195,-336,-429,-434,-336,-185
195,-229,-424,17,309,-326,-156,-292,-375,-385,-302,-161
190,-190,-380,0,285,-285,-136,-248,-307,-331,-258,-126
156,-136,-292,-9,224,-214,-112,-200,-258,-287,-219,-97
112,-117,-229,2,170,-173,-68,-136,-204,-244,-185,-68
48,-126,-175,39,112,-151,-19,-87,-165,-209,-161,-43
29,-102,-131,36,80,-117,19,-48,-126,-170,-136,-14
63,-43,-107,-9,85,-75,53,-14,-87,-122,-102,24
58,-19,-78,-19,68,-48,73,0,-34,-82,-73,48
0,-24,-24,12,12,-24,73,19,0,-63,-53,68
-19,-4,14,12,-17,4,78,34,29,-43,-29,78
-4,14,19,-4,-12,17,97,73,34,-29,4,97
-9,19,29,-4,-19,24,117,117,43,-29,14,102
-19,14,34,2,-26,24,136,146,53,-34,19,92
-14,14,29,0,-21,21,136,141,63,-39,19,97
-24,14,39,4,-31,26,141,141,63,-39,19,97
-24,4,29,9,-26,17,146,141,63,-43,24,97
-24,4,29,9,-26,17,146,146,73,-39,29,102
-14,14,29,0,-21,21,141,146,92,-48,39,102
-14,14,29,0,-21,21,136,146,97,-48,39,102
-19,14,34,2,-26,24,131,151,102,-48,39,102
-29,14,43,7,-36,29,131,151,107,-48,39,102
-19,14,34,2,-26,24,131,146,117,-43,48,102
-24,19,43,2,-34,31,131,146,117,-43,53,102
-34,19,53,7,-43,36,131,146,122,-39,53,102
-39,14,53,12,-46,34,131,146,122,-34,53,102
-24,19,43,2,-34,31,136,156,126,-43,53,87
-14,29,43,-7,-29,36,136,161,126,-43,53,87
-9,34,43,-12,-26,39,136,161,131,-34,63,97
-14,39,53,-12,-34,46,136,165,131,-34,63,102
-19,39,58,-9,-39,48,136,165,131,-39,63,92
-29,39,68,-4,-48,53,136,161,136,-39,58,87
-29,43,73,-7,-51,58,141,156,141,-43,58,87
-24,43,68,-9,-46,56,141,151,146,-48,58,87
-24,53,78,-14,-51,65,131,161,146,-53,58,92
-29,53,82,-12,-56,68,131,170,141,-53,58,97
-34,48,82,-7,-58,65,131,170,136,-53,58,97
-39,48,87,-4,-63,68,131,170,131,-53,58,97
-34,48,82,-7,-58,65,151,180,126,-58,73,92
-34,43,78,-4,-56,61,151,190,126,-63,73,92
-29,39,68,-4,-48,53,151,195,122,-58,73,92
-19,34,53,-7,-36,43,151,200,117,-63,73,97
-29,24,53,2,-41,39,151,195,126,-63,78,97
-29,19,48,4,-39,34,151,195,131,-63,82,97
-34,14,48,9,-41,31,151,200,131,-68,87,92
-34,9,43,12,-39,26,151,204,131,-73,92,87
-24,19,43,2,-34,31,146,204,131,-58,82,82
-24,24,48,0,-36,36,146,204,131,-58,82,82
-24,24,48,0,-36,36,146,209,131,-58,82,82
-24,34,58,-4,-41,46,146,209,126,-63,78,78
-24,48,73,-12,-48,61,156,219,136,-53,82,87
-24,48,73,-12,-48,61,156,224,141,-53,87,87
-19,53,73,-17,-46,63,156,229,146,-53,92,87
-19,63,82,-21,-51,73,161,229,146,-53,97,87
-19,68,87,-24,-53,78,170,229,141,-43,97,87
-19,68,87,-24,-53,78,165,229,136,-43,87,87
-24,68,92,-21,-58,80,165,229,131,-43,82,87
-24,73,97,-24,-61,85,170,234,126,-43,82,87
-34,63,97,-14,-65,80,180,224,131,-48,73,82
-39,63,102,-12,-70,82,185,224,131,-48,68,78
-48,63,112,-7,-80,87,185,229,141,-48,68,78
-58,58,117,0,-87,87,185,229,141,-48,63,73
-53,39,92,7,-73,65,175,219,126,-63,43,63
-48,39,87,4,-68,63,175,229,122,-68,43,53
-34,48,82,-7,-58,65,180,229,122,-73,43,53
-29,48,78,-9,-53,63,180,229,117,-82,43,53
-39,48,87,-4,-63,68,170,244,117,-73,39,39
-43,48,92,-2,-68,70,170,248,117,-73,34,39
-53,43,97,4,-75,70,170,248,122,-73,34,39
-63,43,107,9,-85,75,175,248,126,-73,29,39
-53,58,112,-2,-82,85,165,239,141,-63,19,29
-53,63,117,-4,-85,90,165,239,156,-53,19,24
-63,63,126,0,-95,95,165,244,170,-39,19,24
-63,63,126,0,-95,95,165,244,185,-29,19,24
-48,73,122,-12,-85,97,165,244,161,-29,14,19
-39,78,117,-19,-78,97,165,248,141,-34,9,9
-29,82,112,-26,-70,97,165,248,126,-39,4,4
-14,87,102,-36,-58,95,165,258,112,-39,0,0
-24,73,97,-24,-61,85,180,258,117,-43,0,-4
-29,68,97,-19,-63,82,190,258,117,-43,0,-9
-29,63,92,-17,-61,78,190,263,117,-43,0,-9
-34,58,92,-12,-63,75,200,273,117,-43,0,-14
-34,68,102,-17,-68,85,200,283,131,-34,9,-19
-39,68,107,-14,-73,87,195,283,131,-34,9,-24
-43,68,112,-12,-78,90,195,283,136,-29,9,-29
-48,73,122,-12,-85,97,195,278,141,-29,9,-34
-48,73,122,-12,-85,97,200,283,141,-24,19,-34
-68,68,136,0,-102,102,204,297,141,-29,19,-34
-78,68,146,4,-112,107,209,302,141,-29,19,-34
-78,68,146,4,-112,107,214,307,136,-29,24,-34
-68,63,131,2,-100,97,209,302,146,-19,14,-58
-58,63,122,-2,-90,92,204,297,146,-24,9,-63
-53,58,112,-2,-82,85,200,292,146,-29,9,-63
-48,53,102,-2,-75,78,195,292,146,-29,9,-68
-48,73,122,-12,-85,97,209,302,151,-14,14,-58
-53,92,146,-19,-100,119,224,307,151,-4,19,-58
-58,92,151,-17,-104,122,214,307,151,4,24,-58
-58,102,161,-21,-109,131,209,312,141,9,24,-58
-68,92,161,-12,-114,126,200,312,126,0,24,-68
-82,87,170,-2,-126,129,204,322,122,0,24,-73
-78,82,161,-2,-119,122,214,322,122,4,34,-82
-68,82,151,-7,-109,117,214,322,117,4,34,-92
-48,97,146,-24,-97,122,200,302,122,-4,34,-97
-53,112,165,-29,-109,139,200,297,126,-4,29,-102
-43,117,161,-36,-102,139,200,292,131,-4,29,-107
-39,117,156,-39,-97,136,200,287,131,-9,29,-112
-53,117,170,-31,-112,143,204,292,131,-24,34,-102
-53,122,175,-34,-114,148,209,292,126,-29,39,-102
-53,122,175,-34,-114,148,214,292,126,-34,39,-102
-53,112,165,-29,-109,139,219,287,126,-34,43,-107
-63,107,170,-21,-117,139,209,278,131,-24,43,-117
-82,102,185,-9,-134,143,209,273,131,-24,43,-112
-92,97,190,-2,-141,143,209,268,131,-24,43,-112
-97,97,195,0,-146,146,200,263,126,-29,43,-112
-68,107,175,-19,-122,141,200,248,122,-19,53,-112
-58,117,175,-29,-117,146,200,239,117,-19,58,-107
-48,117,165,-34,-107,141,200,229,117,-19,58,-102
-29,126,156,-48,-92,141,190,214,112,-19,58,-102
-43,117,161,-36,-102,139,180,195,92,-29,53,-107
-48,117,165,-34,-107,141,170,190,82,-34,53,-107
-53,122,175,-34,-114,148,165,175,73,-34,53,-107
-58,122,180,-31,-119,151,156,170,68,-29,53,-107
-43,136,180,-46,-112,158,151,146,78,-9,58,-102
-39,141,180,-51,-109,161,151,141,78,-4,63,-97
-39,141,180,-51,-109,161,146,136,78,4,68,-82
-48,146,195,-48,-122,170,146,126,78,9,73,-78
-48,136,185,-43,-117,161,141,107,58,0,63,-78
-48,122,170,-36,-109,146,136,97,48,0,58,-78
-39,131,170,-46,-104,151,131,82,48,0,63,-73
-39,126,165,-43,-102,146,131,78,53,4,73,-68
-43,136,180,-46,-112,158,131,73,68,9,82,-53
-43,146,190,-51,-117,168,131,63,63,14,82,-48
-24,146,170,-61,-97,158,131,58,58,19,82,-39
-19,146,165,-63,-92,156,122,48,58,14,82,-34
-19,141,161,-61,-90,151,112,29,34,14,78,-39
-14,156,170,-70,-92,163,102,19,24,19,73,-34
-4,161,165,-78,-85,163,102,9,19,19,73,-29
-4,165,170,-80,-87,168,92,0,4,19,78,-19
-9,156,165,-73,-87,161,82,0,19,29,82,-14
-14,151,165,-68,-90,158,82,-4,19,34,82,-4
-14,131,146,-58,-80,139,78,-24,24,43,82,0
-14,126,141,-56,-78,134,68,-39,24,48,82,4
-14,136,151,-61,-82,143,73,-63,14,39,73,4
-14,136,151,-61,-82,143,68,-68,14,43,68,4
-14,136,151,-61,-82,143,63,-73,4,43,63,0
-4,131,136,-63,-70,134,53,-87,0,43,58,0
4,122,117,-63,-56,119,48,-87,9,34,53,9
4,117,112,-61,-53,114,48,-87,9,34,53,9
4,117,112,-61,-53,114,43,-92,9,43,58,9
4,112,107,-58,-51,109,43,-87,4,43,58,9
19,117,97,-68,-39,107,43,-82,4,48,63,19
29,122,92,-75,-31,107,43,-87,4,48,68,19
29,122,92,-75,-31,107,48,-92,0,48,78,19
19,122,102,-70,-41,112,53,-87,0,48,87,14
29,122,92,-75,-31,107,43,-97,-14,39,78,4
29,122,92,-75,-31,107,34,-97,-19,34,78,4
39,117,78,-78,-19,97,29,-97,-24,29,78,4
39,117,78,-78,-19,97,24,-102,-29,29,82,4
58,131,73,-95,-7,102,24,-97,-4,39,92,4
63,141,78,-102,-7,109,19,-87,0,39,102,4
63,146,82,-104,-9,114,19,-82,0,43,112,4
53,146,92,-100,-19,119,19,-73,4,43,122,4
78,136,58,-107,9,97,29,-82,-9,39,131,0
78,136,58,-107,9,97,29,-78,-14,34,136,-4
78,136,58,-107,9,97,29,-78,-24,29,141,-9
68,136,68,-102,0,102,29,-78,-34,19,146,-14
63,126,63,-95,0,95,19,-78,-24,29,141,-19
63,122,58,-92,2,90,19,-78,-19,19,136,-24
58,117,58,-87,0,87,19,-78,-19,19,131,-29
53,107,53,-80,0,80,19,-73,-19,19,131,-34
39,107,68,-73,-14,87,29,-68,-34,4,122,-39
39,102,63,-70,-12,82,39,-68,-39,-4,122,-43
39,102,63,-70,-12,82,48,-63,-39,-14,117,-48
39,107,68,-73,-14,87,53,-58,-43,-19,112,-48
39,117,78,-78,-19,97,43,-68,-34,-19,117,-58
39,112,73,-75,-17,92,39,-68,-29,-24,117,-58
43,112,68,-78,-12,90,39,-68,-24,-24,117,-58
48,117,68,-82,-9,92,43,-63,-19,-24,126,-53
53,107,53,-80,0,80,43,-53,-14,-29,126,-53
63,107,43,-85,9,75,48,-53,-19,-29,122,-53
68,107,39,-87,14,73,48,-53,-29,-29,122,-53
73,107,34,-90,19,70,48,-53,-39,-29,122,-53
53,117,63,-85,-4,90,58,-43,-29,-24,131,-48
43,112,68,-78,-12,90,63,-43,-24,-19,141,-43
39,112,73,-75,-17,92,63,-39,-24,-14,151,-39
34,117,82,-75,-24,100,63,-39,-24,-9,161,-29
48,117,68,-82,-9,92,53,-43,-29,-29,146,-34
58,117,58,-87,0,87,48,-48,-29,-29,136,-39
63,117,53,-90,4,85,48,-48,-34,-29,126,-43
73,117,43,-95,14,80,43,-53,-39,-29,117,-48
78,131,53,-104,12,92,39,-63,-53,-34,102,-58
82,141,58,-112,12,100,39,-58,-53,-34,97,-58
82,141,58,-112,12,100,39,-58,-48,-39,92,-58
82,136,53,-109,14,95,43,-58,-48,-39,87,-58
78,126,48,-102,14,87,48,-53,-34,-34,97,-48
73,126,53,-100,9,90,53,-48,-29,-29,92,-48
58,122,63,-90,-2,92,58,-43,-19,-29,92,-48
48,122,73,-85,-12,97,68,-39,-9,-29,97,-48
48,117,68,-82,-9,92,58,-34,-19,-29,97,-53
48,112,63,-80,-7,87,58,-34,-24,-29,92,-58
48,107,58,-78,-4,82,58,-34,-24,-24,87,-68
53,107,53,-80,0,80,58,-39,-24,-24,78,-73
53,112,58,-82,-2,85,58,-39,-34,-14,73,-63
53,117,63,-85,-4,90,58,-34,-34,-14,73,-63
48,122,73,-85,-12,97,58,-34,-34,-14,68,-58
43,117,73,-80,-14,95,58,-39,-34,-14,68,-58
43,126,82,-85,-19,104,53,-29,-24,-9,68,-58
48,126,78,-87,-14,102,48,-29,-24,-14,73,-58
53,122,68,-87,-7,95,43,-29,-24,-9,78,-58
58,122,63,-90,-2,92,39,-19,-19,-4,87,-58
68,131,63,-100,2,97,53,-24,-19,4,92,-53
63,141,78,-102,-7,109,53,-24,-19,14,97,-48
63,156,92,-109,-14,124,53,-29,-19,24,102,-43
63,165,102,-114,-19,134,53,-29,-19,34,102,-39
73,156,82,-114,-4,119,53,-24,-19,24,112,-34
78,156,78,-117,0,117,48,-24,-19,24,107,-29
82,156,73,-119,4,114,43,-19,-19,24,102,-29
87,156,68,-122,9,112,43,-14,-19,14,92,-24
63,131,68,-97,-2,100,43,-24,-19,24,92,-14
58,126,68,-92,-4,97,43,-19,-19,34,92,-14
53,126,73,-90,-9,100,43,-19,-19,43,92,-19
48,131,82,-90,-17,107,39,-19,-24,53,92,-19
48,141,92,-95,-21,117,39,-34,-24,58,87,-19
48,141,92,-95,-21,117,39,-39,-29,58,82,-14
53,141,87,-97,-17,114,39,-39,-34,58,78,-9
63,146,82,-104,-9,114,43,-39,-34,63,73,-4
82,161,78,-122,2,119,43,-24,-19,73,63,0
87,161,73,-124,7,117,43,-24,-19,78,63,0
92,165,73,-129,9,119,43,-24,-19,78,63,0
97,170,73,-134,12,122,43,-24,-19,73,63,-14
92,170,78,-131,7,124,34,-29,-29,63,43,-29
87,170,82,-129,2,126,29,-29,-34,58,34,-29
82,165,82,-124,0,124,29,-29,-39,53,24,-29
73,156,82,-114,-4,119,34,-29,-43,48,19,-34
58,146,87,-102,-14,117,24,-29,-43,53,9,-48
43,146,102,-95,-29,124,24,-24,-43,58,0,-48
34,126,92,-80,-29,109,29,-24,-39,53,-4,-53
19,117,97,-68,-39,107,29,-24,-39,48,-14,-58
24,122,97,-73,-36,109,29,-24,-39,48,-14,-48
29,126,97,-78,-34,112,24,-29,-39,48,-19,-53
43,126,82,-85,-19,104,24,-29,-39,39,-19,-53
53,131,78,-92,-12,104,24,-24,-39,34,-14,-53
68,141,73,-104,-2,107,34,-34,-48,24,-19,-63
63,146,82,-104,-9,114,34,-34,-48,29,-29,-68
68,151,82,-109,-7,117,29,-34,-43,29,-34,-73
73,161,87,-117,-7,124,29,-34,-43,29,-34,-73
73,156,82,-114,-4,119,29,-24,-53,14,-48,-68
73,161,87,-117,-7,124,24,-24,-58,14,-53,-68
68,161,92,-114,-12,126,19,-24,-58,14,-58,-68
68,161,92,-114,-12,126,14,-24,-58,14,-63,-68
58,161,102,-109,-21,131,24,-14,-48,24,-63,-68
58,156,97,-107,-19,126,19,-9,-48,24,-58,-68
58,151,92,-104,-17,122,19,-9,-48,24,-53,-68
58,151,92,-104,-17,122,19,-9,-48,24,-48,-68
68,146,78,-107,-4,112,9,-14,-53,19,-58,-78
82,151,68,-117,7,109,4,-19,-58,24,-58,-78
73,151,78,-112,-2,114,4,-24,-58,24,-53,-78
78,146,68,-112,4,107,4,-29,-63,29,-53,-78
68,151,82,-109,-7,117,14,-19,-53,29,-53,-78
68,161,92,-114,-12,126,14,-19,-53,34,-53,-78
68,165,97,-117,-14,131,14,-19,-53,34,-53,-78
68,170,102,-119,-17,136,14,-19,-53,34,-53,-78
78,165,87,-122,-4,126,9,-29,-53,29,-63,-82
82,165,82,-124,0,124,4,-29,-53,34,-68,-82
92,170,78,-131,7,124,0,-29,-53,29,-68,-82
97,170,73,-134,12,122,-9,-29,-53,24,-58,-87
92,165,73,-129,9,119,-4,-19,-53,19,-58,-87
87,161,73,-124,7,117,4,-19,-53,19,-58,-82
73,156,82,-114,-4,119,9,-19,-53,19,-58,-82
63,146,82,-104,-9,114,14,-19,-53,19,-63,-82
63,141,78,-102,-7,109,9,-29,-43,4,-73,-87
63,136,73,-100,-4,104,0,-34,-43,0,-73,-92
68,136,68,-102,0,102,-9,-34,-48,-4,-73,-97
82,136,53,-109,14,95,-14,-39,-48,-4,-73,-97
102,170,68,-136,17,119,0,-24,-39,9,-68,-97
122,185,63,-153,29,124,0,-19,-39,19,-53,-97
141,200,58,-170,41,129,0,-9,-39,24,-39,-97
161,214,53,-187,53,134,0,-4,-39,29,-34,-87
141,200,58,-170,41,129,0,-14,-48,43,-43,-97
122,195,73,-158,24,134,4,-9,-43,43,-43,-97
102,190,87,-146,7,139,4,-9,-43,48,-43,-97
82,190,107,-136,-12,148,0,-9,-43,48,-43,-97
102,195,92,-148,4,143,0,-9,-48,53,-39,-87
112,200,87,-156,12,143,0,-9,-48,53,-34,-87
122,204,82,-163,19,143,0,-9,-48,53,-29,-87
131,209,78,-170,26,143,0,-14,-48,58,-24,-87
112,204,92,-158,9,148,4,-4,-43,63,-9,-82
97,200,102,-148,-2,151,9,-4,-39,68,-4,-78
87,195,107,-141,-9,151,14,-4,-39,78,0,-68
73,185,112,-129,-19,148,19,-4,-34,82,4,-63
73,165,92,-119,-9,129,14,-4,-29,92,4,-63
82,156,73,-119,4,114,9,-4,-29,92,9,-63
82,146,63,-114,9,104,4,-4,-29,92,9,-63
82,136,53,-109,14,95,0,-4,-29,92,9,-63
92,136,43,-114,24,90,4,-14,-29,112,9,-48
92,136,43,-114,24,90,4,-14,-29,112,9,-43
92,136,43,-114,24,90,4,-14,-29,112,9,-39
92,136,43,-114,24,90,4,-14,-29,107,9,-34
92,146,53,-119,19,100,14,0,-14,112,19,-19
92,156,63,-124,14,109,14,4,-9,117,19,-9
92,161,68,-126,12,114,19,4,-4,122,19,-4
92,170,78,-131,7,124,24,4,-4,131,24,0
117,170,53,-143,31,112,19,-9,-19,122,19,-9
122,165,43,-143,39,104,19,-9,-24,122,14,-9
122,156,34,-139,43,95,14,-14,-24,126,9,-9
126,151,24,-139,51,87,9,-19,-29,126,4,-4
126,156,29,-141,48,92,19,-4,-24,131,19,4
126,161,34,-143,46,97,19,-4,-19,141,19,4
122,161,39,-141,41,100,19,-9,-14,146,14,4
117,161,43,-139,36,102,19,-9,-9,156,14,4
117,151,34,-134,41,92,19,-4,4,175,24,4
117,151,34,-134,41,92,19,-4,4,180,24,4
112,151,39,-131,36,95,14,-9,4,190,24,4
112,151,39,-131,36,95,14,-9,9,195,19,4
117,151,34,-134,41,92,19,-19,19,204,29,14
112,146,34,-129,39,90,19,-9,19,204,29,19
97,141,43,-119,26,92,19,-9,19,204,29,19
82,126,43,-104,19,85,19,-14,19,204,29,14
92,131,39,-112,26,85,19,-4,19,195,29,14
92,136,43,-114,24,90,19,-9,24,195,34,9
97,141,43,-119,26,92,19,-9,24,195,34,9
102,151,48,-126,26,100,9,-19,19,195,34,9
92,151,58,-122,17,104,14,-19,24,195,34,14
82,151,68,-117,7,109,19,-14,29,185,34,14
73,156,82,-114,-4,119,24,-9,34,185,34,14
63,156,92,-109,-14,124,29,-4,39,185,34,14
73,146,73,-109,0,109,29,-4,48,180,24,4
78,146,68,-112,4,107,24,-4,48,175,24,9
87,151,63,-119,12,107,24,0,48,170,29,9
97,151,53,-124,21,102,24,9,48,165,34,19
97,141,43,-119,26,92,39,19,53,156,24,0
112,151,39,-131,36,95,43,19,53,165,29,9
102,161,58,-131,21,109,34,24,58,156,39,9
97,156,58,-126,19,107,19,0,48,136,19,-9
92,146,53,-119,19,100,19,0,58,126,19,-19
87,146,58,-117,14,102,19,0,58,126,19,-19
82,146,63,-114,9,104,19,0,58,126,19,-19
78,146,68,-112,4,107,19,0,58,126,19,-19
87,146,58,-117,14,102,24,4,68,126,24,-9
87,146,58,-117,14,102,29,9,68,126,29,-9
87,146,58,-117,14,102,34,14,68,126,34,-9
87,146,58,-117,14,102,39,19,68,126,39,-9
87,151,63,-119,12,107,29,19,68,117,39,-19
87,156,68,-122,9,112,29,19,68,107,39,-19
87,161,73,-124,7,117,29,19,68,97,39,-19
87,165,78,-126,4,122,29,19,68,87,39,-19
78,151,73,-114,2,112,29,29,68,73,39,-9
68,146,78,-107,-4,112,29,29,68,68,39,-9
58,141,82,-100,-12,112,29,29,68,63,39,-9
48,136,87,-92,-19,112,29,29,68,58,39,-9
73,151,78,-112,-2,114,19,19,63,43,29,-9
87,165,78,-126,4,122,19,19,58,39,29,-9
102,180,78,-141,12,129,19,19,53,34,29,-9
117,195,78,-156,19,136,19,19,48,29,29,-9
102,190,87,-146,7,139,9,19,48,14,19,-9
97,185,87,-141,4,136,9,19,48,9,19,-9
92,180,87,-136,2,134,9,19,48,4,19,-9
87,175,87,-131,0,131,9,19,48,0,19,-9
102,175,73,-139,14,124,14,19,48,4,24,-4
107,175,68,-141,19,122,19,19,48,9,29,0
112,175,63,-143,24,119,24,19,48,14,34,4
117,175,58,-146,29,117,29,19,48,19,39,9
92,161,68,-126,12,114,19,14,43,14,34,0
78,156,78,-117,0,117,19,9,39,9,29,0
63,151,87,-107,-12,119,19,4,34,4,24,0
48,146,97,-97,-24,122,19,0,29,0,19,0
68,141,73,-104,-2,107,14,-4,14,-4,9,-4
78,136,58,-107,9,97,9,-9,9,-9,9,-9
87,131,43,-109,21,87,4,-14,4,-14,9,-14
97,126,29,-112,34,78,0,-19,0,-19,9,-19
102,141,39,-122,31,90,9,-9,0,-19,19,-14
107,146,39,-126,34,92,9,-9,0,-19,19,-9
112,151,39,-131,36,95,9,-9,0,-19,19,-4
117,156,39,-136,39,97,9,-9,0,-19,19,0
107,151,43,-129,31,97,9,-9,9,-9,29,0
107,146,39,-126,34,92,9,-9,9,-9,29,0
107,141,34,-124,36,87,9,-9,9,-9,29,0
107,136,29,-122,39,82,9,-9,9,-9,29,0
92,136,43,-114,24,90,0,-9,0,0,29,0
87,136,48,-112,19,92,0,-9,0,0,29,0
82,136,53,-109,14,95,0,-9,0,0,29,0
78,136,58,-107,9,97,0,-9,0,0,29,0
87,146,58,-117,14,102,9,0,9,14,34,4
97,156,58,-126,19,107,9,0,9,19,39,9
107,165,58,-136,24,112,9,0,9,24,43,14
117,175,58,-146,29,117,9,0,9,29,48,19
107,170,63,-139,21,117,0,-9,19,43,48,19
97,165,68,-131,14,117,0,-9,19,48,48,19
87,161,73,-124,7,117,0,-9,19,53,48,19
78,156,78,-117,0,117,0,-9,19,58,48,19
92,146,53,-119,19,100,0,-9,29,73,53,29
97,146,48,-122,24,97,0,-9,29,78,58,29
102,146,43,-124,29,95,0,-9,29,82,63,29
107,146,39,-126,34,92,0,-9,29,87,68,29
97,156,58,-126,19,107,4,-9,39,107,68,39
97,165,68,-131,14,117,9,-9,39,117,68,39
97,175,78,-136,9,126,14,-9,39,126,68,39
97,185,87,-141,4,136,19,-9,39,136,68,39
87,180,92,-134,-2,136,29,4,43,151,78,43
87,175,87,-131,0,131,29,9,48,156,78,48
87,170,82,-129,2,126,29,14,53,161,78,53
87,165,78,-126,4,122,29,19,58,165,78,58
97,170,73,-134,12,122,29,19,68,170,78,63
97,175,78,-136,9,126,29,19,68,175,78,68
102,180,78,-141,12,129,29,29,68,180,78,73
102,190,87,-146,7,139,34,29,68,185,82,78
92,190,97,-141,-2,143,48,29,68,195,82,92
87,180,92,-134,-2,136,48,29,68,204,82,92
82,180,97,-131,-7,139,43,29,68,204,82,92
82,180,97,-131,-7,139,43,29,68,204,82,97
97,185,87,-141,4,136,48,34,78,214,82,107
97,190,92,-143,2,141,48,29,78,214,78,107
97,190,92,-143,2,141,48,29,78,214,78,102
97,185,87,-141,4,136,39,29,78,214,82,102
107,190,82,-148,12,136,48,29,87,214,82,122
107,200,92,-153,7,146,43,29,87,214,82,122
112,204,92,-158,9,148,43,29,87,214,82,122
112,204,92,-158,9,148,34,24,87,214,78,122
107,200,92,-153,7,146,24,24,78,200,68,107
107,195,87,-151,9,141,19,19,73,190,68,107
107,195,87,-151,9,141,19,19,73,185,73,107
107,204,97,-156,4,151,14,14,73,180,73,112
107,204,97,-156,4,151,-4,9,73,170,68,122
107,204,97,-156,4,151,-9,-4,63,165,63,122
107,204,97,-156,4,151,-9,-14,63,161,58,117
112,204,92,-158,9,148,-14,-19,58,151,53,117
112,209,97,-161,7,153,-14,-9,63,136,58,126
112,190,78,-151,17,134,-19,-9,68,131,63,126
107,185,78,-146,14,131,-19,-9,73,126,68,126
107,175,68,-141,19,122,-14,-4,78,122,73,126
92,165,73,-129,9,119,-4,-4,87,112,73,126
92,161,68,-126,12,114,-14,-9,87,107,73,122
97,161,63,-129,17,112,-14,-9,87,102,73,122
97,165,68,-131,14,117,-14,-9,87,102,73,122
92,151,58,-122,17,104,-24,-14,82,92,68,107
87,151,63,-119,12,107,-29,-19,78,87,63,107
82,146,63,-114,9,104,-34,-24,73,78,58,107
78,141,63,-109,7,102,-39,-34,68,73,53,102
92,146,53,-119,19,100,-48,-34,58,68,43,92
107,146,39,-126,34,92,-48,-34,58,63,43,92
122,141,19,-131,51,80,-48,-34,53,43,43,92
131,146,14,-139,58,80,-48,-29,53,39,39,82
107,141,34,-124,36,87,-29,-24,63,48,43,87
92,136,43,-114,24,90,-24,-9,68,48,43,87
68,131,63,-100,2,97,-19,-4,68,48,48,92
53,126,73,-90,-9,100,-14,4,68,48,53,97
68,122,53,-95,7,87,-14,4,58,43,43,87
82,117,34,-100,24,75,-9,-4,58,43,43,82
102,117,14,-109,43,65,-9,-4,53,43,43,78
117,122,4,-119,56,63,-14,-9,53,34,39,68
102,131,29,-117,36,80,-14,-9,53,34,29,78
92,126,34,-109,29,80,-14,-9,48,34,19,73
82,117,34,-100,24,75,-14,-19,43,34,19,68
73,112,39,-92,17,75,-14,-19,43,34,19,68
58,107,48,-82,4,78,-4,-14,43,34,29,58
48,102,53,-75,-2,78,0,-14,43,39,29,58
34,92,58,-63,-12,75,0,-14,43,43,29,58
19,87,68,-53,-24,78,4,-14,39,48,29,58
19,78,58,-48,-19,68,4,-14,29,39,19,48
24,87,63,-56,-19,75,4,-14,29,39,19,48
24,87,63,-56,-19,75,0,-14,29,43,19,48
19,82,63,-51,-21,73,0,-19,29,43,19,48
19,78,58,-48,-19,68,4,-19,29,39,29,39
19,78,58,-48,-19,68,4,-14,29,39,29,39
19,78,58,-48,-19,68,4,-14,29,39,29,43
14,78,63,-46,-24,70,4,-14,34,39,29,43
43,78,34,-61,4,56,-9,-19,19,34,24,29
63,78,14,-70,24,46,-14,-29,14,29,19,24
82,78,-4,-80,43,36,-19,-34,9,24,14,19
102,78,-24,-90,63,26,-24,-43,4,19,9,9
97,63,-34,-80,65,14,-14,-34,14,29,19,9
97,58,-39,-78,68,9,-14,-34,14,29,19,14
92,53,-39,-73,65,7,-19,-34,14,29,19,14
82,48,-34,-65,58,7,-19,-34,14,29,19,14
73,48,-24,-61,48,12,-9,-34,14,39,29,14
63,53,-9,-58,36,21,-4,-34,14,48,29,14
53,53,0,-53,26,26,-4,-34,14,48,29,14
43,48,4,-46,19,26,-4,-34,9,48,29,14
43,48,4,-46,19,26,4,-24,9,39,24,14
43,53,9,-48,17,31,9,-14,9,39,24,14
43,63,19,-53,12,41,14,-14,14,43,24,14
43,78,34,-61,4,56,24,-14,14,43,24,14
19,82,63,-51,-21,73,43,-9,29,58,34,29
4,87,82,-46,-39,85,58,-4,34,68,43,39
-14,97,112,-41,-63,104,63,0,39,78,53,43
-29,102,131,-36,-80,117,73,0,43,82,63,48
19,112,92,-65,-36,102,63,-24,24,78,43,34
9,122,112,-65,-51,117,78,-24,53,87,48,43
-19,136,156,-58,-87,146,92,-19,78,117,63,58
0,131,131,-65,-65,131,82,-39,87,131,73,63
39,136,97,-87,-29,117,68,-82,82,146,92,68
78,156,78,-117,0,117,53,-112,107,190,122,87
107,170,63,-139,21,117,19,-180,112,244,165,107
117,165,48,-141,34,107,-34,-278,112,287,204,131
131,165,34,-148,48,100,-122,-346,107,322,219,151
141,161,19,-151,61,90,-219,-405,107,326,229,156
156,161,4,-158,75,82,-351,-468,92,336,248,170
219,161,-58,-190,139,51,-531,-561,73,370,292,200
307,161,-146,-234,226,7,-741,-649,48,414,346,239
361,156,-204,-258,283,-24,-932,-756,19,444,400,263
385,156,-229,-270,307,-36,-1078,-858,-14,448,434,287
424,175,-248,-300,336,-36,-1220,-951,-4,483,492,331
502,224,-278,-363,390,-26,-1346,-1029,19,531,546,375
590,263,-326,-427,458,-31,-1464,-1093,29,531,566,400
649,234,-414,-441,531,-90,-1537,-1112,34,483,536,370
658,151,-507,-405,583,-178,-1551,-1063,39,380,458,302
658,78,-580,-368,619,-251,-1527,-976,43,234,351,214
688,39,-649,-363,668,-305,-1498,-888,34,82,248,146
688,-9,-697,-339,692,-353,-1454,-785,24,-53,141,63
649,-97,-746,-275,697,-422,-1381,-644,9,-200,39,-39
663,-195,-858,-234,761,-527,-1307,-502,9,-302,-48,-112
761,-209,-971,-275,866,-590,-1224,-361,29,-351,-82,-136
790,-214,-1005,-287,897,-610,-1137,-263,29,-370,-97,-151
722,-263,-985,-229,854,-624,-1049,-234,-19,-395,-126,-165
688,-302,-990,-192,839,-646,-961,-239,-112,-448,-170,-209
692,-307,-1000,-192,846,-653,-883,-268,-204,-488,-204,-239
678,-307,-985,-185,832,-646,-795,-326,-287,-512,-219,-263
619,-331,-951,-143,785,-641,-732,-390,-375,-531,-239,-273
536,-366,-902,-85,719,-634,-673,-429,-453,-561,-297,-312
478,-380,-858,-48,668,-619,-605,-453,-507,-595,-331,-341
453,-385,-839,-34,646,-612,-556,-473,-546,-619,-361,-361
414,-409,-824,-2,619,-617,-507,-502,-600,-653,-405,-385
341,-434,-775,46,558,-605,-448,-502,-595,-668,-419,-400
287,-424,-712,68,500,-568,-409,-463,-575,-649,-429,-409
292,-405,-697,56,495,-551,-380,-453,-556,-653,-429,-414
287,-395,-683,53,485,-539,-351,-434,-536,-649,-434,-414
263,-385,-649,61,456,-517,-331,-419,-507,-619,-434,-414
263,-370,-634,53,448,-502,-326,-409,-492,-585,-429,-409
258,-346,-605,43,431,-475,-312,-385,-463,-541,-400,-380
244,-317,-561,36,402,-439,-278,-346,-419,-488,-351,-346
234,-273,-507,19,370,-390,-244,-297,-366,-453,-312,-312
224,-209,-434,-7,329,-322,-204,-258,-322,-405,-287,-273
234,-151,-385,-41,309,-268,-175,-224,-268,-346,-244,-239
219,-92,-312,-63,265,-202,-156,-161,-209,-292,-190,-204
156,-48,-204,-53,180,-126,-112,-102,-141,-239,-141,-156
122,-29,-151,-46,136,-90,-78,-48,-107,-195,-107,-126
107,-19,-126,-43,117,-73,-48,-19,-78,-170,-92,-102
58,-4,-63,-26,61,-34,-19,19,-48,-151,-78,-82
34,24,-9,-29,21,7,4,43,-29,-131,-53,-63
0,39,39,-19,-19,39,24,58,-4,-112,-43,-48
-9,43,53,-17,-31,48,34,68,9,-92,-24,-39
0,63,63,-31,-31,63,39,92,29,-73,-9,-19
-4,63,68,-29,-36,65,48,122,53,-48,4,-9
-19,68,87,-24,-53,78,68,136,63,-48,4,-4
-19,73,92,-26,-56,82,68,136,63,-43,0,-14
-24,58,82,-17,-53,70,73,136,58,-53,-4,-14
-34,53,87,-9,-61,70,73,131,53,-48,-9,-19
-34,39,73,-2,-53,56,73,126,48,-48,-9,-24
