I,II,III,aVR,aVL,aVF,V1,V2,V3,V4,V5,V6
-273,-156,117,214,-195,-19,87,-48,-273,-204,-234,-244
-273,-156,117,214,-195,-19,87,-48,-273,-204,-234,-244
-273,-156,117,214,-195,-19,87,-48,-273,-204,-234,-244
-273,-156,117,214,-195,-19,87,-48,-273,-204,-234,-244
-258,-180,78,219,-168,-51,97,-29,-234,-165,-190,-195
-244,-195,48,219,-146,-73,97,-9,-204,-136,-156,-156
-229,-209,19,219,-124,-95,97,9,-175,-107,-122,-117
-214,-224,-9,219,-102,-117,97,29,-146,-78,-87,-78
-195,-234,-39,214,-78,-136,92,29,-151,-92,-92,-82
-185,-234,-48,209,-68,-141,87,29,-156,-97,-97,-87
-175,-234,-58,204,-58,-146,82,29,-161,-102,-102,-92
-165,-234,-68,200,-48,-151,78,29,-165,-107,-107,-97
-161,-200,-39,180,-61,-119,73,29,-151,-87,-82,-73
-156,-175,-19,165,-68,-97,68,29,-146,-78,-68,-58
-151,-151,0,151,-75,-75,63,29,-141,-68,-53,-43
-146,-126,19,136,-82,-53,58,29,-136,-58,-39,-29
-141,-117,24,129,-82,-46,53,19,-117,-34,-14,-9
-136,-107,29,122,-82,-39,48,19,-107,-19,0,9
-131,-97,34,114,-82,-31,43,19,-97,-4,14,29
-126,-87,39,107,-82,-24,39,19,-87,9,29,48
-117,-102,14,109,-65,-43,29,9,-102,-4,4,29
-117,-107,9,112,-63,-48,29,9,-107,-19,-9,9
-117,-112,4,114,-61,-53,29,9,-112,-34,-24,-9
-117,-117,0,117,-58,-58,29,9,-117,-48,-39,-29
-92,-102,-9,97,-41,-56,29,19,-112,-39,-29,-24
-78,-97,-19,87,-29,-58,29,19,-107,-39,-29,-19
-63,-92,-29,78,-17,-61,29,19,-102,-39,-29,-14
-48,-87,-39,68,-4,-63,29,19,-97,-39,-29,-9
-53,-92,-39,73,-7,-65,34,29,-87,-29,-9,9
-58,-97,-39,78,-9,-68,39,29,-87,-19,0,19
-63,-102,-39,82,-12,-70,43,29,-87,-9,9,29
-68,-107,-39,87,-14,-73,48,29,-87,0,19,39
-58,-87,-29,73,-14,-58,39,19,-97,0,29,43
-58,-68,-9,63,-24,-39,29,9,-97,0,29,48
-58,-48,9,53,-34,-19,19,0,-97,0,29,53
-58,-29,29,43,-43,0,9,-9,-97,0,29,58
-63,-24,39,43,-51,7,0,0,-97,0,29,58
-68,-19,48,43,-58,14,0,0,-97,0,29,58
-73,-14,58,43,-65,21,0,0,-97,0,29,58
-78,-9,68,43,-73,29,0,0,-97,0,29,58
-73,-24,48,48,-61,12,0,9,-97,-4,24,43
-68,-29,39,48,-53,4,0,9,-97,-9,19,39
-63,-34,29,48,-46,-2,0,9,-97,-14,14,34
-58,-39,19,48,-39,-9,0,9,-97,-19,9,29
-43,-53,-9,48,-17,-31,-9,0,-102,-24,4,39
-39,-58,-19,48,-9,-39,-9,0,-107,-29,0,39
-34,-63,-29,48,-2,-46,-9,0,-112,-34,-4,39
-29,-68,-39,48,4,-53,-9,0,-117,-39,-9,39
-53,-58,-4,56,-24,-31,0,0,-97,-14,9,58
-68,-58,9,63,-39,-24,0,0,-87,0,29,78
-82,-58,24,70,-53,-17,0,0,-78,14,48,97
-97,-58,39,78,-68,-9,0,0,-68,29,68,117
-78,-68,9,73,-43,-29,4,9,-63,39,78,117
-68,-78,-9,73,-29,-43,9,19,-58,39,78,117
-58,-87,-29,73,-14,-58,14,29,-53,39,78,117
-48,-97,-48,73,0,-73,19,39,-48,39,78,117
-48,-82,-34,65,-7,-58,29,39,-58,29,63,112
-48,-68,-19,58,-14,-43,29,39,-58,29,58,107
-48,-53,-4,51,-21,-29,29,39,-58,29,53,102
-48,-39,9,43,-29,-14,29,39,-58,29,48,97
-53,-39,14,46,-34,-12,14,34,-68,24,39,92
-58,-39,19,48,-39,-9,9,29,-68,19,39,87
-63,-39,24,51,-43,-7,4,24,-68,14,39,82
-68,-39,29,53,-48,-4,0,19,-68,9,39,78
-82,-48,34,65,-58,-7,9,34,-58,19,39,68
-87,-58,29,73,-58,-14,19,39,-58,19,39,68
-92,-68,24,80,-58,-21,29,43,-58,19,39,68
-97,-78,19,87,-58,-29,39,48,-58,19,39,68
-87,-68,19,78,-53,-24,29,39,-68,9,29,68
-87,-68,19,78,-53,-24,29,29,-68,9,29,68
-87,-68,19,78,-53,-24,29,19,-68,9,29,68
-87,-68,19,78,-53,-24,29,9,-68,9,29,68
-102,-48,53,75,-78,2,24,4,-78,0,24,63
-102,-48,53,75,-78,2,19,0,-78,-4,14,53
-102,-43,58,73,-80,7,19,-4,-78,-9,9,48
-102,-48,53,75,-78,2,19,-4,-78,-14,4,43
-97,-53,43,75,-70,-4,9,-14,-87,-24,0,43
-92,-53,39,73,-65,-7,4,-14,-87,-24,4,43
-87,-58,29,73,-58,-14,4,-14,-87,-24,-9,39
-78,-63,14,70,-46,-24,4,-19,-97,-24,-14,39
-73,-68,4,70,-39,-31,9,-14,-82,-19,-9,43
-73,-68,4,70,-39,-31,19,-9,-78,-14,0,43
-73,-73,0,73,-36,-36,24,-4,-63,-4,9,48
-68,-82,-14,75,-26,-48,34,4,-58,0,19,53
-73,-68,4,70,-39,-31,29,-4,-58,0,14,48
-78,-48,29,63,-53,-9,19,-4,-58,0,19,48
-82,-34,48,58,-65,7,14,-4,-58,0,19,48
-87,-14,73,51,-80,29,14,-4,-58,0,19,48
-73,-34,39,53,-56,2,14,0,-68,-4,4,34
-68,-34,34,51,-51,0,14,4,-58,-9,0,29
-68,-43,24,56,-46,-9,29,14,-53,-9,-4,24
-73,-53,19,63,-46,-17,43,19,-48,-4,-9,19
-73,-58,14,65,-43,-21,68,39,-29,0,9,39
-73,-53,19,63,-46,-17,92,48,-24,19,19,53
-68,-63,4,65,-36,-29,107,63,-14,29,34,68
-68,-58,9,63,-39,-24,122,78,-9,34,43,73
-82,-14,68,48,-75,26,136,82,4,48,53,92
-87,-4,82,46,-85,39,141,97,14,53,63,102
-78,-4,73,41,-75,34,141,107,19,53,68,112
-78,-4,73,41,-75,34,161,126,24,58,78,117
-68,-29,39,48,-53,4,175,151,24,48,68,107
-58,-48,9,53,-34,-19,185,161,24,48,68,107
-53,-58,-4,56,-24,-31,185,156,24,53,68,107
-48,-68,-19,58,-14,-43,165,146,34,63,78,122
-58,-29,29,43,-43,0,136,117,34,68,87,122
-78,-9,68,43,-73,29,122,97,29,63,82,117
-87,-4,82,46,-85,39,112,87,29,63,78,117
-102,-9,92,56,-97,41,87,63,24,58,73,112
-92,-9,82,51,-87,36,48,34,24,53,73,112
-82,-19,63,51,-73,21,34,9,19,53,73,112
-82,-29,53,56,-68,12,19,-4,4,48,63,107
-78,-43,34,61,-56,-4,4,-14,4,43,63,107
-78,-14,63,46,-70,24,-29,-34,-4,39,63,117
-78,19,97,29,-87,58,-39,-39,-14,39,63,117
-82,48,131,17,-107,90,-53,-43,-14,39,63,117
-78,82,161,-2,-119,122,-58,-43,-14,34,58,112
-43,92,136,-24,-90,114,-53,-34,-9,48,63,126
-29,97,126,-34,-78,112,-53,-34,-14,48,73,131
-19,92,112,-36,-65,102,-53,-34,-9,48,78,131
-9,97,107,-43,-58,102,-53,-34,-9,53,82,131
-14,63,78,-24,-46,70,-48,-19,0,48,73,112
-19,39,58,-9,-39,48,-39,-14,-4,39,58,107
-24,9,34,7,-29,21,-39,-14,-9,29,48,102
-24,-4,19,14,-21,7,-43,-14,-14,19,29,87
-34,-29,4,31,-19,-12,-43,-14,-24,4,19,78
-34,-48,-14,41,-9,-31,-43,-9,-43,-9,9,68
-19,-73,-53,46,17,-63,-39,-4,-48,-14,4,63
-9,-97,-87,53,39,-92,-29,4,-53,-19,0,58
-19,-78,-58,48,19,-68,-39,-4,-63,-9,14,73
-14,-53,-39,34,12,-46,-43,-9,-68,-14,9,78
-9,-29,-19,19,4,-24,-48,-19,-68,-14,14,73
-4,-14,-9,9,2,-12,-43,-29,-78,-14,19,73
4,-34,-39,14,21,-36,-29,-19,-68,-19,14,82
-4,-39,-34,21,14,-36,-24,-9,-58,-14,14,82
-9,-48,-39,29,14,-43,-14,0,-43,-4,14,82
-19,-63,-43,41,12,-53,0,19,-29,4,19,87
-19,-92,-73,56,26,-82,9,34,-34,-4,0,63
-24,-107,-82,65,29,-95,14,29,-43,-24,-19,39
-29,-122,-92,75,31,-107,19,29,-53,-43,-39,14
-9,-131,-122,70,56,-126,19,34,-68,-53,-53,-4
-19,-126,-107,73,43,-117,29,34,-78,-48,-43,0
-39,-126,-87,82,24,-107,29,34,-78,-48,-43,0
-48,-131,-82,90,17,-107,29,34,-68,-39,-34,14
-58,-141,-82,100,12,-112,29,39,-68,-39,-34,14
-73,-107,-34,90,-19,-70,24,34,-68,-39,-24,14
-78,-87,-9,82,-34,-48,24,29,-63,-34,-19,24
-82,-43,39,63,-61,-2,19,24,-63,-29,-14,34
-82,-9,73,46,-78,31,9,19,-58,-24,-9,48
-68,-29,39,48,-53,4,9,29,-53,-34,-9,58
-68,-53,14,61,-41,-19,9,29,-53,-34,-9,58
-68,-53,14,61,-41,-19,9,29,-58,-34,-4,58
-68,-63,4,65,-36,-29,9,29,-58,-34,-4,58
-58,-141,-82,100,12,-112,24,43,-73,-53,-34,29
-53,-200,-146,126,46,-173,29,58,-63,-53,-24,39
-53,-190,-136,122,41,-163,19,68,-53,-34,-14,34
-58,-141,-82,100,12,-112,19,73,-48,-24,-14,34
-34,-87,-53,61,9,-70,24,107,-29,-9,4,39
9,-53,-63,21,36,-58,29,146,0,14,29,68
73,-48,-122,-12,97,-85,29,195,58,73,82,122
107,-39,-146,-34,126,-92,43,263,136,156,170,204
165,14,-151,-90,158,-68,53,336,234,248,268,307
234,131,-102,-183,168,14,39,385,341,351,366,395
317,244,-73,-280,195,85,29,429,453,463,468,497
434,326,-107,-380,270,109,0,473,541,566,570,595
536,448,-87,-492,312,180,-53,522,624,653,668,702
605,575,-29,-590,317,273,-92,566,697,756,800,844
727,692,-34,-710,380,329,-151,580,785,868,941,985
917,849,-68,-883,492,390,-229,610,863,980,1058,1107
1122,995,-126,-1058,624,434,-307,658,946,1093,1190,1234
1346,1137,-209,-1241,778,463,-424,639,1019,1205,1322,1381
1493,1249,-244,-1371,868,502,-580,522,1039,1259,1410,1478
1615,1366,-248,-1490,932,558,-717,439,1019,1273,1454,1542
1727,1483,-244,-1605,985,619,-824,405,1019,1302,1493,1586
1776,1625,-151,-1700,963,736,-907,341,1044,1337,1551,1649
1747,1771,24,-1759,861,897,-1015,214,1054,1381,1605,1727
1668,1912,244,-1790,712,1078,-1112,63,1093,1449,1688,1810
1532,2015,483,-1773,524,1249,-1107,-24,1229,1605,1849,1961
1322,2039,717,-1681,302,1378,-1029,-78,1390,1751,1991,2103
1019,1991,971,-1505,24,1481,-917,-165,1366,1717,1942,2044
712,1732,1019,-1222,-153,1376,-766,-258,1137,1464,1683,1795
458,1361,902,-910,-222,1132,-595,-287,829,1112,1327,1449
248,1010,761,-629,-256,885,-424,-312,531,771,971,1098
14,658,644,-336,-314,651,-244,-336,263,448,629,761
-204,317,522,-56,-363,419,-73,-346,43,185,341,468
-346,136,483,104,-414,309,24,-375,-97,24,151,273
-409,68,478,170,-444,273,63,-405,-165,-78,39,146
-424,24,448,200,-436,236,112,-385,-195,-141,-39,53
-400,-4,395,202,-397,195,204,-292,-180,-156,-97,-9
-390,-87,302,239,-346,107,307,-170,-146,-156,-126,-63
-444,-214,229,329,-336,7,370,-97,-146,-185,-190,-131
-517,-292,224,405,-370,-34,424,-78,-141,-214,-214,-175
-541,-322,219,431,-380,-51,463,-53,-122,-190,-200,-156
-497,-326,170,412,-334,-78,473,-34,-97,-170,-180,-146
-453,-302,151,378,-302,-75,444,-29,-97,-170,-190,-156
-463,-253,209,358,-336,-21,385,-34,-112,-175,-190,-170
-458,-204,253,331,-356,24,341,-29,-102,-161,-170,-141
-405,-229,175,317,-290,-26,312,-19,-82,-131,-131,-92
-326,-248,78,287,-202,-85,268,-14,-92,-126,-117,-82
-268,-180,87,224,-178,-46,214,-24,-112,-141,-126,-87
-219,-146,73,183,-146,-36,185,0,-97,-112,-102,-58
-209,-234,-24,222,-92,-129,180,43,-39,-53,-43,0
-209,-297,-87,253,-61,-192,165,78,-9,-14,-14,19
-195,-273,-78,234,-58,-175,146,82,-4,-14,-19,19
-185,-248,-63,217,-61,-156,131,82,-4,-19,-14,19
-175,-229,-53,202,-61,-141,126,82,-4,-24,-9,24
-156,-190,-34,173,-61,-112,107,78,-9,-24,-14,29
-141,-151,-9,146,-65,-80,92,63,-24,-39,-29,14
-141,-131,9,136,-75,-61,87,53,-29,-48,-43,4
-131,-131,0,131,-65,-65,82,53,-34,-53,-48,-4
-131,-112,19,122,-75,-46,78,53,-39,-58,-53,-9
-126,-107,19,117,-73,-43,73,63,-24,-58,-63,-14
-122,-107,14,114,-68,-46,68,78,-19,-58,-58,-14
-102,-102,0,102,-51,-51,63,82,-19,-53,-58,-14
-92,-97,-4,95,-43,-51,48,78,-24,-53,-58,-14
-112,-68,43,90,-78,-12,53,73,-29,-63,-63,-29
-126,-53,73,90,-100,9,53,73,-34,-63,-68,-34
-136,-43,92,90,-114,24,53,68,-29,-58,-73,-43
-141,-39,102,90,-122,31,53,68,-29,-53,-68,-53
-122,-82,39,102,-80,-21,73,87,-24,-43,-48,-43
-102,-117,-14,109,-43,-65,78,92,-19,-43,-48,-29
-92,-161,-68,126,-12,-114,82,107,-4,-43,-48,-19
-87,-185,-97,136,4,-141,87,112,-9,-48,-48,-9
-87,-165,-78,126,-4,-122,68,92,-19,-53,-43,-4
-87,-136,-48,112,-19,-92,53,87,-24,-53,-48,-9
-87,-122,-34,104,-26,-78,48,78,-29,-53,-48,-4
-87,-107,-19,97,-34,-63,53,73,-34,-53,-48,4
-73,-117,-43,95,-14,-80,53,68,-29,-43,-43,14
-68,-117,-48,92,-9,-82,43,68,-19,-43,-39,9
-68,-117,-48,92,-9,-82,43,68,-14,-43,-34,9
-73,-122,-48,97,-12,-85,48,78,0,-39,-29,14
-82,-131,-48,107,-17,-90,58,87,0,-48,-34,4
-87,-117,-29,102,-29,-73,53,87,0,-48,-34,4
-92,-117,-24,104,-34,-70,53,92,-4,-48,-34,9
-102,-122,-19,112,-41,-70,58,92,-4,-48,-29,9
-92,-126,-34,109,-29,-80,58,97,14,-29,-39,4
-97,-131,-34,114,-31,-82,53,102,14,-29,-34,4
-92,-131,-39,112,-26,-85,53,107,19,-29,-29,0
-78,-136,-58,107,-9,-97,53,117,19,-24,-29,-4
-87,-131,-43,109,-21,-87,68,131,34,-19,-14,4
-87,-126,-39,107,-24,-82,73,136,39,-9,-9,14
-87,-117,-29,102,-29,-73,73,136,43,-4,-4,24
-82,-112,-29,97,-26,-70,78,141,48,-4,0,34
-87,-112,-24,100,-31,-68,68,141,43,-9,4,48
-97,-112,-14,104,-41,-63,58,141,39,-9,9,58
-107,-112,-4,109,-51,-58,48,136,34,-14,9,58
-117,-107,9,112,-63,-48,34,126,29,-19,4,53
-102,-78,24,90,-63,-26,34,126,29,-24,14,63
-97,-73,24,85,-61,-24,39,126,29,-24,14,63
-97,-78,19,87,-58,-29,39,126,29,-24,19,63
-92,-73,19,82,-56,-26,39,122,29,-19,19,58
-97,-92,4,95,-51,-43,48,126,43,-14,34,73
-102,-102,0,102,-51,-51,48,136,48,-9,39,78
-107,-112,-4,109,-51,-58,48,146,53,-4,43,82
-112,-117,-4,114,-53,-61,53,156,63,0,48,87
-102,-112,-9,107,-46,-61,63,146,63,-14,34,73
-112,-126,-14,119,-48,-70,68,146,58,-19,24,63
-117,-122,-4,119,-56,-63,68,146,48,-24,14,58
-122,-112,9,117,-65,-51,73,146,39,-29,9,53
-126,-97,29,112,-78,-34,68,146,39,-53,0,48
-131,-87,43,109,-87,-21,63,136,29,-53,-9,34
-146,-82,63,114,-104,-9,58,117,29,-63,-24,24
-146,-78,68,112,-107,-4,48,117,29,-68,-29,9
-156,-73,82,114,-119,4,43,117,19,-78,-48,-4
-161,-68,92,114,-126,12,39,112,9,-97,-53,-19
-170,-82,87,126,-129,2,43,107,-4,-107,-63,-34
-180,-87,92,134,-136,2,43,102,-14,-117,-73,-43
-200,-112,87,156,-143,-12,63,117,-4,-107,-53,-29
-214,-131,82,173,-148,-24,78,117,0,-102,-53,-24
-224,-146,78,185,-151,-34,92,117,4,-102,-53,-24
-234,-161,73,197,-153,-43,102,122,19,-102,-48,-29
-219,-185,34,202,-126,-75,92,102,0,-117,-78,-48
-214,-195,19,204,-117,-87,87,78,-14,-141,-92,-68
-219,-209,9,214,-114,-100,82,68,-24,-156,-107,-87
-214,-224,-9,219,-102,-117,82,63,-29,-170,-122,-97
-224,-204,19,214,-122,-92,78,53,-48,-190,-141,-117
-234,-200,34,217,-134,-82,73,39,-68,-204,-156,-131
-253,-180,73,217,-163,-53,73,24,-78,-219,-170,-141
-263,-161,102,212,-183,-29,68,9,-87,-229,-185,-156
-278,-190,87,234,-183,-51,87,19,-73,-219,-180,-161
-297,-229,68,263,-183,-80,102,24,-73,-224,-175,-161
-312,-273,39,292,-175,-117,112,39,-63,-224,-175,-161
-336,-312,24,324,-180,-143,131,48,-53,-214,-165,-165
-326,-297,29,312,-178,-134,122,39,-73,-234,-185,-180
-326,-287,39,307,-183,-124,122,29,-92,-258,-209,-195
-326,-273,53,300,-190,-109,126,14,-107,-268,-229,-209
-341,-268,73,305,-207,-97,126,4,-126,-283,-244,-219
-356,-273,82,314,-219,-95,136,19,-112,-278,-234,-219
-361,-268,92,314,-226,-87,136,14,-107,-283,-234,-209
-375,-263,112,319,-244,-75,136,14,-112,-287,-234,-204
-370,-258,112,314,-241,-73,131,19,-112,-283,-224,-195
-375,-278,97,326,-236,-90,131,19,-102,-273,-209,-185
-390,-287,102,339,-246,-92,131,24,-92,-273,-209,-175
-385,-292,92,339,-239,-100,126,24,-102,-273,-209,-185
-375,-297,78,336,-226,-109,122,24,-102,-273,-209,-185
-361,-283,78,322,-219,-102,112,19,-107,-273,-209,-175
-341,-278,63,309,-202,-107,112,34,-102,-273,-200,-170
-331,-263,68,297,-200,-97,102,39,-92,-263,-195,-161
-307,-239,68,273,-187,-85,102,53,-82,-258,-185,-146
-312,-195,117,253,-214,-39,82,43,-82,-263,-190,-141
-292,-170,122,231,-207,-24,73,43,-78,-258,-185,-151
-278,-151,126,214,-202,-12,63,43,-78,-258,-185,-146
-268,-131,136,200,-202,2,58,48,-73,-244,-175,-146
-268,-151,117,209,-192,-17,68,68,-53,-224,-156,-131
-239,-146,92,192,-165,-26,68,87,-34,-204,-141,-117
-229,-156,73,192,-151,-41,58,97,-19,-195,-126,-102
-214,-175,39,195,-126,-68,58,107,0,-175,-107,-82
-190,-170,19,180,-104,-75,68,117,19,-175,-87,-48
-156,-156,0,156,-78,-78,68,117,24,-165,-78,-39
-126,-141,-14,134,-56,-78,73,122,24,-161,-73,-39
-102,-136,-34,119,-34,-85,73,126,29,-146,-58,-34
-97,-151,-53,124,-21,-102,78,136,43,-131,-53,-29
-87,-141,-53,114,-17,-97,73,141,58,-122,-48,-19
-97,-141,-43,119,-26,-92,73,141,58,-122,-43,-14
-102,-151,-48,126,-26,-100,73,141,73,-112,-39,-4
-82,-136,-53,109,-14,-95,63,151,82,-97,-29,-9
-78,-131,-53,104,-12,-92,53,151,82,-92,-24,0
-78,-122,-43,100,-17,-82,53,151,82,-87,-24,0
-78,-117,-39,97,-19,-78,53,151,87,-73,-9,4
-63,-82,-19,73,-21,-51,34,131,82,-87,-19,-4
-58,-53,4,56,-31,-24,19,126,82,-92,-24,0
-53,-34,19,43,-36,-7,14,126,82,-102,-29,4
-43,-4,39,24,-41,17,9,122,82,-107,-29,9
-58,-39,19,48,-39,-9,14,131,92,-82,-9,19
-63,-53,9,58,-36,-21,19,131,97,-73,0,29
-68,-63,4,65,-36,-29,29,131,107,-63,14,34
-68,-68,0,68,-34,-34,34,126,112,-53,19,39
-58,-53,4,56,-31,-24,19,117,102,-53,9,43
-58,-48,9,53,-34,-19,9,112,102,-58,9,43
-48,-39,9,43,-29,-14,9,112,102,-63,14,53
-34,-39,-4,36,-14,-21,4,112,97,-68,14,53
-39,-53,-14,46,-12,-34,4,112,107,-68,34,53
-39,-53,-14,46,-12,-34,0,112,112,-63,34,58
-34,-58,-24,46,-4,-41,0,112,112,-63,29,58
-34,-58,-24,46,-4,-41,4,107,102,-63,24,53
-34,-48,-14,41,-9,-31,-4,97,102,-68,24,53
-39,-48,-9,43,-14,-29,-4,92,107,-68,24,53
-43,-53,-9,48,-17,-31,-4,87,112,-63,24,53
-43,-39,4,41,-24,-17,-4,87,112,-63,24,53
-29,-19,9,24,-19,-4,4,102,117,-58,34,53
-14,-14,0,14,-7,-7,9,102,122,-58,34,53
-9,-14,-4,12,-2,-9,9,102,122,-53,39,58
-9,-14,-4,12,-2,-9,9,107,126,-43,43,68
-19,-24,-4,21,-7,-14,4,107,126,-53,39,53
-14,-24,-9,19,-2,-17,0,107,126,-53,29,39
-14,-24,-9,19,-2,-17,0,102,126,-53,24,34
-19,-34,-14,26,-2,-24,0,97,126,-53,19,29
-39,-39,0,39,-19,-19,14,87,122,-53,19,24
-43,-43,0,43,-21,-21,14,78,122,-63,19,24
-48,-48,0,48,-24,-24,14,87,126,-53,19,29
-53,-68,-14,61,-19,-41,19,92,126,-53,29,39
-48,-43,4,46,-26,-19,14,87,126,-53,29,39
-48,-43,4,46,-26,-19,9,87,126,-48,34,39
-48,-43,4,46,-26,-19,0,82,126,-48,34,39
-48,-43,4,46,-26,-19,-9,78,126,-58,19,29
-53,-39,14,46,-34,-12,-4,87,131,-48,14,19
-58,-39,19,48,-39,-9,4,87,131,-53,14,19
-63,-29,34,46,-48,2,9,87,131,-53,14,19
-78,-29,48,53,-63,9,14,82,131,-58,14,19
-68,-24,43,46,-56,9,9,73,117,-63,9,9
-73,-19,53,46,-63,17,4,68,112,-63,4,9
-73,-14,58,43,-65,21,0,63,107,-68,0,9
-73,-14,58,43,-65,21,-4,63,102,-68,0,9
-82,0,82,41,-82,41,-4,48,92,-87,-19,9
-58,-58,0,58,-29,-29,0,58,107,-68,0,19
-58,-48,9,53,-34,-19,0,63,107,-58,0,14
-58,-39,19,48,-39,-9,0,68,107,-58,0,9
-58,-29,29,43,-43,0,0,73,107,-58,0,4
-58,-19,39,39,-48,9,0,78,107,-58,0,0
-53,-19,34,36,-43,7,9,78,112,-53,0,0
-53,-29,24,41,-39,-2,9,78,117,-53,-4,-4
-53,-34,19,43,-36,-7,14,78,122,-53,-4,-4
-53,-48,4,51,-29,-21,19,82,126,-53,-4,-4
-63,-63,0,63,-31,-31,9,92,126,-43,-4,4
-63,-73,-9,68,-26,-41,4,92,126,-43,4,4
-63,-87,-24,75,-19,-56,4,92,126,-43,-4,0
-58,-102,-43,80,-7,-73,4,87,117,-43,-4,0
-63,-92,-29,78,-17,-61,4,102,117,-53,-9,9
-73,-87,-14,80,-29,-51,9,107,117,-53,-9,4
-82,-87,-4,85,-39,-46,9,112,126,-48,-9,4
-87,-92,-4,90,-41,-48,14,122,126,-48,-9,4
-97,-78,19,87,-58,-29,9,131,122,-53,-14,4
-97,-68,29,82,-63,-19,0,131,117,-58,-9,0
-97,-63,34,80,-65,-14,-4,131,112,-63,-9,-4
-97,-53,43,75,-70,-4,-4,131,107,-68,-9,-9
-87,-43,43,65,-65,0,14,136,117,-63,-9,-19
-78,-24,53,51,-65,14,24,141,126,-58,-9,-19
-73,-14,58,43,-65,21,48,151,131,-48,-9,-19
-73,-4,68,39,-70,31,73,156,136,-34,-9,-19
-78,0,78,39,-78,39,82,175,136,-34,4,-4
-82,14,97,34,-90,56,102,185,141,-19,9,4
-82,14,97,34,-90,56,112,200,151,-14,19,14
-87,29,117,29,-102,73,122,214,156,-14,24,14
-78,43,122,17,-100,82,131,219,156,-24,14,4
-78,34,112,21,-95,73,141,234,161,-24,14,4
-63,14,78,24,-70,46,146,244,161,-29,9,4
-58,-4,53,31,-56,24,170,263,161,-29,9,0
-63,0,63,31,-63,31,165,268,151,-39,0,-9
-58,9,68,24,-63,39,165,268,151,-39,0,-9
-58,29,87,14,-73,58,156,253,151,-34,0,-9
-58,48,107,4,-82,78,126,234,161,-24,9,4
-63,73,136,-4,-100,104,87,190,165,-9,34,19
-78,87,165,-4,-122,126,63,165,165,-4,34,19
-82,87,170,-2,-126,129,43,151,170,4,34,24
-92,78,170,7,-131,124,9,122,170,9,34,24
-87,73,161,7,-124,117,-4,112,180,14,43,24
-82,58,141,12,-112,100,-14,97,175,14,43,24
-87,43,131,21,-109,87,-24,92,161,9,34,19
-87,24,112,31,-100,68,-34,92,161,4,34,19
-82,29,112,26,-97,70,-43,97,156,0,29,14
-78,29,107,24,-92,68,-48,97,151,0,24,9
-78,24,102,26,-90,63,-58,97,156,0,19,4
-68,24,92,21,-80,58,-58,102,161,-4,9,-4
-34,19,53,7,-43,36,-73,87,146,-9,-4,-14
-19,19,39,0,-29,29,-73,82,131,-19,-4,-14
-9,9,19,0,-14,14,-73,78,126,-29,-9,-19
0,9,9,-4,-4,9,-73,73,117,-34,-14,-24
0,19,19,-9,-9,19,-82,73,107,-34,-14,-29
0,19,19,-9,-9,19,-78,73,102,-39,-19,-29
0,14,14,-7,-7,14,-82,68,97,-43,-19,-29
4,24,19,-14,-7,21,-92,63,92,-48,-29,-39
4,14,9,-9,-2,12,-87,58,97,-48,-24,-53
4,9,4,-7,0,7,-92,58,82,-58,-29,-58
19,0,-19,-9,19,-9,-92,58,82,-58,-29,-58
29,-9,-39,-9,34,-24,-87,63,82,-58,-29,-58
4,-39,-43,17,24,-41,-82,82,82,-58,-29,-58
4,-43,-48,19,26,-46,-73,87,78,-63,-39,-58
4,-48,-53,21,29,-51,-63,87,78,-63,-39,-68
4,-63,-68,29,36,-65,-43,87,68,-63,-39,-73
0,-58,-58,29,29,-58,-53,87,78,-63,-43,-63
-14,-58,-43,36,14,-51,-53,87,78,-63,-43,-63
-24,-63,-39,43,7,-51,-48,87,82,-58,-43,-63
-39,-73,-34,56,-2,-53,-39,97,87,-53,-39,-58
-53,-68,-14,61,-19,-41,-39,102,87,-53,-29,-48
-63,-68,-4,65,-29,-36,-34,87,82,-63,-39,-58
-73,-68,4,70,-39,-31,-29,78,78,-73,-48,-68
-58,-63,-4,61,-26,-34,-29,73,68,-73,-53,-73
-68,-58,9,63,-39,-24,-29,63,58,-78,-63,-82
-78,-58,19,68,-48,-19,-29,63,58,-78,-63,-87
-78,-63,14,70,-46,-24,-29,63,68,-68,-53,-78
-78,-73,4,75,-41,-34,-29,68,68,-68,-53,-82
-78,-63,14,70,-46,-24,-39,58,53,-82,-68,-102
-78,-68,9,73,-43,-29,-34,58,53,-82,-68,-102
-78,-48,29,63,-53,-9,-34,58,48,-82,-68,-102
-73,-39,34,56,-53,-2,-39,58,48,-82,-68,-97
-58,-58,0,58,-29,-29,-24,63,58,-73,-58,-92
-58,-92,-34,75,-12,-63,-19,68,63,-73,-58,-87
-58,-102,-43,80,-7,-73,-14,73,63,-73,-53,-82
-58,-122,-63,90,2,-92,-9,78,68,-73,-53,-78
-48,-151,-102,100,26,-126,4,92,82,-63,-43,-58
-53,-122,-68,87,7,-95,9,87,73,-63,-53,-68
-53,-122,-68,87,7,-95,9,97,82,-63,-43,-63
-39,-141,-102,90,31,-122,19,131,97,-43,-34,-53
-4,-126,-122,65,58,-124,24,185,136,-9,-4,-29
48,-73,-122,12,85,-97,19,234,185,43,39,19
112,19,-92,-65,102,-36,0,273,234,82,82,63
156,97,-58,-126,107,19,-24,312,302,146,151,126
234,180,-53,-207,143,63,-34,375,390,239,239,209
312,258,-53,-285,183,102,-39,434,468,331,346,317
385,322,-63,-353,224,129,-39,478,551,414,439,409
473,375,-97,-424,285,139,-58,541,658,527,551,517
575,439,-136,-507,356,151,-73,610,780,663,678,644
683,556,-126,-619,405,214,-122,634,873,775,800,756
805,712,-92,-758,448,309,-180,649,932,858,893,849
956,849,-107,-902,531,370,-248,688,1019,971,1010,971
1141,956,-185,-1049,663,385,-356,697,1102,1083,1151,1117
1317,1098,-219,-1207,768,439,-512,629,1146,1166,1273,1244
1473,1268,-204,-1371,839,531,-658,531,1146,1210,1351,1332
1634,1454,-180,-1544,907,636,-785,468,1127,1234,1385,1385
1737,1590,-146,-1664,941,722,-883,434,1146,1283,1434,1459
1747,1693,-53,-1720,900,819,-976,331,1200,1346,1522,1542
1668,1820,151,-1744,758,985,-1073,175,1239,1429,1605,1629
1571,1952,380,-1761,595,1166,-1141,24,1327,1527,1727,1761
1395,2064,668,-1729,363,1366,-1137,-82,1464,1673,1878,1912
1127,2117,990,-1622,68,1554,-1058,-195,1537,1742,1932,1976
824,1991,1166,-1407,-170,1578,-917,-302,1434,1610,1805,1849
546,1673,1127,-1110,-290,1400,-746,-356,1195,1346,1537,1581
322,1322,1000,-822,-339,1161,-585,-405,917,1034,1210,1263
102,1010,907,-556,-402,958,-424,-439,629,712,873,912
-131,668,800,-268,-466,734,-253,-453,361,380,522,575
-312,366,678,-26,-495,522,-122,-473,122,117,244,292
-395,156,551,119,-473,353,-34,-473,-19,-43,73,107
-448,29,478,209,-463,253,43,-444,-87,-136,-39,-9
-492,-73,419,283,-456,173,131,-375,-107,-190,-117,-102
-507,-131,375,319,-441,122,234,-253,-82,-195,-156,-156
-517,-185,331,351,-424,73,336,-151,-29,-185,-175,-190
-541,-234,307,387,-424,36,400,-107,-19,-185,-190,-229
-556,-253,302,405,-429,24,414,-107,-24,-195,-204,-244
-561,-253,307,407,-434,26,424,-92,-24,-200,-209,-244
-546,-268,278,407,-412,4,414,-82,-39,-209,-229,-253
-502,-273,229,387,-366,-21,366,-87,-39,-209,-229,-253
-453,-283,170,368,-312,-56,317,-82,-34,-195,-209,-239
-409,-292,117,351,-263,-87,283,-68,-24,-180,-190,-209
-356,-268,87,312,-222,-90,234,-68,-24,-170,-170,-190
-287,-190,97,239,-192,-46,190,-53,-14,-156,-156,-170
-239,-161,78,200,-158,-41,156,-14,4,-141,-136,-156
-209,-165,43,187,-126,-61,107,9,9,-131,-122,-146
-170,-156,14,163,-92,-70,73,24,9,-131,-122,-146
-161,-200,-39,180,-61,-119,97,68,39,-102,-92,-117
-156,-195,-39,175,-58,-117,92,78,43,-102,-92,-107
-156,-180,-24,168,-65,-102,82,73,43,-97,-82,-107
-156,-170,-14,163,-70,-92,82,68,43,-92,-73,-102
-146,-141,4,143,-75,-68,68,58,39,-82,-73,-97
-131,-122,9,126,-70,-56,48,53,39,-73,-73,-102
-131,-122,9,126,-70,-56,48,53,39,-78,-82,-112
-122,-141,-19,131,-51,-80,48,63,39,-78,-82,-122
-122,-141,-19,131,-51,-80,48,73,39,-78,-82,-126
-122,-151,-29,136,-46,-90,48,78,53,-78,-73,-112
-122,-156,-34,139,-43,-95,48,87,58,-78,-68,-112
-107,-156,-48,131,-29,-102,48,87,58,-73,-68,-112
-102,-156,-53,129,-24,-104,39,78,53,-73,-68,-112
-112,-146,-34,129,-39,-90,34,78,53,-73,-68,-122
-117,-141,-24,129,-46,-82,34,82,53,-73,-68,-112
-117,-141,-24,129,-46,-82,34,82,63,-68,-68,-107
-112,-146,-34,129,-39,-90,34,87,68,-63,-58,-102
-122,-151,-29,136,-46,-90,39,82,63,-58,-63,-102
-112,-146,-34,129,-39,-90,39,82,58,-63,-68,-97
-112,-151,-39,131,-36,-95,39,92,63,-68,-73,-97
-117,-136,-19,126,-48,-78,39,92,48,-78,-78,-97
-102,-141,-39,122,-31,-90,43,97,43,-78,-78,-92
-97,-126,-29,112,-34,-78,34,97,43,-73,-78,-97
-92,-126,-34,109,-29,-80,34,92,43,-68,-73,-92
-87,-126,-39,107,-24,-82,43,92,43,-63,-68,-82
-92,-141,-48,117,-21,-95,34,87,53,-53,-58,-92
-87,-146,-58,117,-14,-102,24,87,58,-53,-58,-97
-87,-151,-63,119,-12,-107,24,87,58,-53,-58,-97
-92,-161,-68,126,-12,-114,29,97,68,-48,-58,-92
-107,-161,-53,134,-26,-107,29,97,58,-39,-53,-92
-107,-146,-39,126,-34,-92,24,97,58,-39,-53,-92
-107,-146,-39,126,-34,-92,24,102,53,-39,-53,-87
-112,-151,-39,131,-36,-95,29,102,53,-39,-48,-87
-97,-136,-39,117,-29,-87,29,102,53,-39,-53,-92
-97,-131,-34,114,-31,-82,24,102,53,-39,-53,-92
-87,-122,-34,104,-26,-78,24,102,58,-39,-53,-97
-68,-117,-48,92,-9,-82,24,107,58,-34,-58,-102
-68,-112,-43,90,-12,-78,24,107,58,-43,-58,-92
-68,-107,-39,87,-14,-73,24,107,58,-39,-58,-92
-68,-97,-29,82,-19,-63,19,102,58,-39,-58,-92
-63,-92,-29,78,-17,-61,19,102,58,-43,-58,-92
-63,-102,-39,82,-12,-70,24,112,68,-34,-48,-87
-68,-102,-34,85,-17,-68,29,122,68,-19,-39,-78
-73,-102,-29,87,-21,-65,34,126,68,-9,-34,-78
-78,-97,-19,87,-29,-58,34,126,68,0,-34,-82
-78,-97,-19,87,-29,-58,29,122,58,-4,-43,-82
-78,-102,-24,90,-26,-63,29,117,58,-4,-43,-82
-82,-117,-34,100,-24,-75,24,112,58,-4,-39,-82
-82,-122,-39,102,-21,-80,19,102,58,0,-39,-87
-82,-107,-24,95,-29,-65,19,92,53,-9,-39,-78
-82,-102,-19,92,-31,-61,19,97,48,-9,-39,-78
-82,-97,-14,90,-34,-56,19,102,43,-9,-39,-78
-82,-87,-4,85,-39,-46,24,107,43,-9,-39,-78
-73,-97,-24,85,-24,-61,34,117,58,0,-39,-87
-82,-117,-34,100,-24,-75,39,117,58,0,-43,-92
-87,-117,-29,102,-29,-73,39,117,53,0,-48,-92
-92,-112,-19,102,-36,-65,43,117,48,0,-48,-92
-87,-122,-34,104,-26,-78,43,117,39,-14,-48,-92
-92,-117,-24,104,-34,-70,43,107,29,-14,-58,-102
-107,-117,-9,112,-48,-63,43,87,29,-24,-73,-107
-107,-117,-9,112,-48,-63,39,87,29,-29,-78,-117
-117,-126,-9,122,-53,-68,39,92,29,-24,-68,-107
-122,-126,-4,124,-58,-65,39,92,29,-29,-63,-107
-131,-146,-14,139,-58,-80,48,92,24,-24,-63,-107
-141,-156,-14,148,-63,-85,53,92,24,-19,-63,-102
-151,-161,-9,156,-70,-85,48,78,9,-29,-78,-112
-156,-161,-4,158,-75,-82,48,68,0,-34,-92,-122
-156,-156,0,156,-78,-78,48,58,-9,-43,-107,-136
-156,-151,4,153,-80,-73,43,53,-9,-53,-117,-156
-170,-151,19,161,-95,-65,53,43,-9,-43,-126,-151
-185,-156,29,170,-107,-63,58,29,-24,-63,-131,-165
-209,-165,43,187,-126,-61,63,29,-34,-73,-136,-180
-224,-175,48,200,-136,-63,73,34,-39,-82,-141,-185
-224,-185,39,204,-131,-73,82,43,-43,-78,-146,-190
-234,-200,34,217,-134,-82,82,39,-58,-87,-156,-200
-253,-200,53,226,-153,-73,87,34,-63,-97,-165,-204
-263,-200,63,231,-163,-68,87,29,-68,-102,-175,-214
-258,-185,73,222,-165,-56,73,14,-82,-126,-190,-239
-268,-180,87,224,-178,-46,73,-4,-102,-146,-204,-248
-273,-180,92,226,-183,-43,68,-14,-112,-161,-224,-258
-287,-175,112,231,-200,-31,73,-29,-122,-165,-234,-273
-297,-224,73,261,-185,-75,82,-14,-112,-146,-229,-268
-297,-268,29,283,-163,-119,92,0,-112,-151,-229,-263
-297,-307,-9,302,-143,-158,107,9,-107,-141,-224,-258
-312,-356,-43,334,-134,-200,117,24,-107,-136,-214,-248
-317,-356,-39,336,-139,-197,131,34,-117,-126,-224,-273
-322,-346,-24,334,-148,-185,136,24,-117,-136,-234,-278
-336,-336,0,336,-168,-168,141,19,-126,-146,-244,-287
-331,-326,4,329,-168,-161,141,19,-131,-146,-244,-292
-322,-326,-4,324,-158,-165,126,14,-146,-156,-253,-297
-322,-326,-4,324,-158,-165,122,14,-141,-165,-258,-292
-302,-322,-19,312,-141,-170,112,9,-156,-175,-263,-307
-278,-317,-39,297,-119,-178,102,4,-161,-185,-268,-312
-283,-317,-34,300,-124,-175,102,19,-151,-165,-258,-292
-273,-317,-43,295,-114,-180,102,34,-141,-165,-239,-278
-273,-307,-34,290,-119,-170,92,39,-126,-156,-224,-258
-258,-287,-29,273,-114,-158,92,53,-112,-151,-204,-234
-248,-253,-4,251,-122,-129,73,48,-112,-151,-209,-234
-224,-239,-14,231,-104,-126,63,43,-107,-141,-204,-239
-204,-229,-24,217,-90,-126,53,39,-107,-136,-204,-229
-190,-219,-29,204,-80,-124,48,39,-102,-117,-195,-224
-200,-200,0,200,-100,-100,53,53,-82,-92,-175,-209
-180,-175,4,178,-92,-85,58,68,-63,-78,-161,-195
-180,-165,14,173,-97,-75,53,73,-48,-73,-146,-180
-175,-165,9,170,-92,-78,58,78,-29,-58,-126,-161
-165,-161,4,163,-85,-78,53,78,-24,-48,-117,-146
-146,-146,0,146,-73,-73,48,78,-24,-39,-107,-136
-131,-131,0,131,-65,-65,48,82,-29,-34,-102,-136
-122,-126,-4,124,-58,-65,43,87,-29,-19,-87,-131
-97,-122,-24,109,-36,-73,29,78,-14,-14,-73,-112
-78,-92,-14,85,-31,-53,24,82,0,-4,-68,-97
-78,-73,4,75,-41,-34,24,82,0,-4,-63,-87
-73,-63,9,68,-41,-26,24,82,14,4,-58,-73
-73,-63,9,68,-41,-26,34,82,24,19,-39,-78
-68,-63,4,65,-36,-29,24,82,24,24,-34,-68
-68,-58,9,63,-39,-24,24,82,24,29,-34,-68
-68,-58,9,63,-39,-24,24,82,29,43,-19,-63
-73,-58,14,65,-43,-21,9,78,19,43,-14,-63
-68,-53,14,61,-41,-19,0,78,24,43,-14,-58
-63,-58,4,61,-34,-26,0,82,29,39,-14,-53
-53,-53,0,53,-26,-26,0,82,34,39,-9,-48
-53,-53,0,53,-26,-26,-9,78,29,39,-14,-43
-53,-43,9,48,-31,-17,-9,73,29,43,-9,-39
-53,-29,24,41,-39,-2,-4,68,34,48,0,-39
-48,-9,39,29,-43,14,-4,58,34,53,0,-39
-58,-24,34,41,-46,4,-4,68,43,58,0,-43
-58,-29,29,43,-43,0,-9,63,43,58,0,-43
-48,-29,19,39,-34,-4,-4,63,43,58,4,-34
-34,-39,-4,36,-14,-21,-4,63,39,58,4,-34
-53,-48,4,51,-29,-21,4,63,39,58,14,-29
-58,-53,4,56,-31,-24,0,63,43,63,14,-19
-58,-63,-4,61,-26,-34,0,63,43,63,9,-14
-63,-68,-4,65,-29,-36,4,58,34,63,4,-14
-58,-48,9,53,-34,-19,0,63,43,63,9,-14
-58,-39,19,48,-39,-9,-4,63,48,68,14,-14
-58,-34,24,46,-41,-4,-9,63,53,78,19,-14
-53,-9,43,31,-48,17,-14,68,53,82,24,-14
-34,0,34,17,-34,17,-24,58,48,73,9,-29
-14,4,19,4,-17,12,-19,53,43,68,4,-34
-4,4,9,0,-7,7,-19,48,34,68,4,-34
0,4,4,-2,-2,4,-19,48,29,73,4,-29
-14,-4,9,9,-12,2,-19,43,29,68,4,-19
-14,-14,0,14,-7,-7,-19,48,29,63,0,-29
-19,-24,-4,21,-7,-14,-14,48,29,58,0,-29
-29,-43,-14,36,-7,-29,-9,48,29,53,0,-29
-24,-39,-14,31,-4,-26,-4,48,24,68,4,-19
-24,-34,-9,29,-7,-21,-4,39,24,63,9,-14
-24,-29,-4,26,-9,-17,-4,48,29,78,14,-4
-24,-39,-14,31,-4,-26,0,53,29,82,29,9
-29,-14,14,21,-21,0,-9,43,29,73,9,-9
-29,19,48,4,-39,34,-29,19,9,58,-9,-29
-29,14,43,7,-36,29,-29,19,9,48,-9,-39
-29,9,39,9,-34,24,-29,19,9,48,-9,-39
-29,4,34,12,-31,19,-29,19,9,48,-9,-39
-29,0,29,14,-29,14,-29,19,9,48,-9,-39
-39,-14,24,26,-31,4,-24,24,14,63,4,-29
-43,-39,4,41,-24,-17,-19,29,19,63,4,-24
-48,-58,-9,53,-19,-34,-9,34,24,63,9,-14
-53,-87,-34,70,-9,-61,0,43,29,63,14,-4
-53,-78,-24,65,-14,-51,0,34,19,73,4,-14
-53,-63,-9,58,-21,-36,-4,34,19,73,14,-14
-53,-53,0,53,-26,-26,-4,34,19,73,4,-19
-48,-43,4,46,-26,-19,-4,29,9,73,4,-19
-58,-34,24,46,-41,-4,-4,39,0,63,-9,-24
-63,-29,34,46,-48,2,0,39,0,63,-9,-34
-68,-29,39,48,-53,4,0,39,9,68,-9,-39
-68,-34,34,51,-51,0,4,43,9,68,-9,-43
-73,-48,24,61,-48,-12,9,48,19,73,4,-29
-78,-48,29,63,-53,-9,9,53,19,78,9,-29
-82,-53,29,68,-56,-12,14,58,19,82,9,-29
-87,-53,34,70,-61,-9,24,63,19,87,9,-29
-73,-68,4,70,-39,-31,29,58,9,82,0,-29
-68,-63,4,65,-36,-29,24,63,19,78,0,-29
-68,-68,0,68,-34,-34,34,73,24,78,0,-29
-73,-73,0,73,-36,-36,43,78,29,82,0,-29
-58,-48,9,53,-34,-19,68,78,34,78,-4,-34
-53,-24,29,39,-41,2,92,87,34,87,0,-24
-43,-14,29,29,-36,7,107,102,39,87,9,-14
-39,9,48,14,-43,29,122,117,39,82,14,-14
-48,19,68,14,-58,43,146,131,48,87,24,-9
-48,14,63,17,-56,39,161,146,53,92,24,-4
-34,0,34,17,-34,17,170,156,53,92,19,0
-29,-14,14,21,-21,0,200,175,53,97,19,0
-14,-19,-4,17,-4,-12,200,190,43,87,29,9
-9,-19,-9,14,0,-14,195,190,43,87,29,9
-9,-9,0,9,-4,-4,180,175,43,92,29,9
-9,0,9,4,-9,4,146,156,53,102,39,24
-19,34,53,-7,-36,43,102,122,68,112,53,19
-39,58,97,-9,-68,78,82,97,68,112,53,19
-48,68,117,-9,-82,92,68,82,73,117,53,24
-63,68,131,-2,-97,100,39,53,73,117,53,24
-63,63,126,0,-95,95,14,34,73,122,53,14
-63,58,122,2,-92,90,4,19,68,122,53,14
-73,53,126,9,-100,90,-4,14,53,117,43,9
-78,43,122,17,-100,82,-14,14,53,112,43,9
-68,39,107,14,-87,73,-34,9,34,97,39,4
-58,39,97,9,-78,68,-39,9,24,97,34,0
-53,34,87,9,-70,61,-48,9,24,97,29,-4
-39,34,73,2,-56,53,-48,14,24,92,19,-14
-24,34,58,-4,-41,46,-53,14,24,92,24,-14
-19,29,48,-4,-34,39,-53,14,14,87,24,-14
-19,14,34,2,-26,24,-53,14,14,82,19,-19
-19,9,29,4,-24,19,-53,14,9,82,14,-24
-19,0,19,9,-19,9,-58,9,9,82,24,-24
-19,-9,9,14,-14,0,-48,14,4,78,19,-19
-19,-24,-4,21,-7,-14,-48,14,0,73,19,-14
-14,-24,-9,19,-2,-17,-53,14,-4,68,9,-19
-19,-24,-4,21,-7,-14,-68,0,-14,48,-4,-39
-24,-29,-4,26,-9,-17,-73,0,-34,39,-9,-48
-14,-39,-24,26,4,-31,-73,0,-39,39,-9,-53
-9,-48,-39,29,14,-43,-68,4,-43,39,-9,-58
-19,-58,-39,39,9,-48,-53,24,-34,29,-19,-48
-14,-53,-39,34,12,-46,-43,29,-39,24,-29,-48
-9,-48,-39,29,14,-43,-34,29,-39,24,-29,-58
-4,-53,-48,29,21,-51,-14,29,-48,24,-29,-63
-14,-43,-29,29,7,-36,-19,24,-53,4,-34,-63
-24,-29,-4,26,-9,-17,-24,19,-58,4,-34,-63
-29,-19,9,24,-19,-4,-24,14,-58,9,-34,-63
-39,-14,24,26,-31,4,-19,19,-58,14,-29,-58
-48,-48,0,48,-24,-24,0,43,-53,19,-24,-53
-63,-68,-4,65,-29,-36,4,39,-53,14,-29,-58
-78,-87,-9,82,-34,-48,9,39,-53,9,-34,-63
-68,-102,-34,85,-17,-68,9,43,-58,14,-34,-63
-68,-92,-24,80,-21,-58,19,43,-68,0,-34,-58
-78,-97,-19,87,-29,-58,19,43,-68,0,-34,-58
-78,-107,-29,92,-24,-68,19,43,-58,9,-24,-43
-78,-122,-43,100,-17,-82,19,48,-58,9,-24,-43
-68,-126,-58,97,-4,-92,14,58,-53,14,-19,-53
-68,-136,-68,102,0,-102,14,58,-53,14,-19,-53
-68,-122,-53,95,-7,-87,9,58,-58,14,-19,-53
-63,-117,-53,90,-4,-85,0,58,-58,14,-19,-48
-68,-97,-29,82,-19,-63,4,48,-63,4,-24,-53
-68,-102,-34,85,-17,-68,9,48,-63,4,-29,-58
-68,-82,-14,75,-26,-48,14,48,-68,4,-29,-63
-68,-73,-4,70,-31,-39,19,48,-68,4,-34,-68
-29,-82,-53,56,12,-68,-14,34,-82,4,-43,-78
-24,-63,-39,43,7,-51,-29,29,-82,-4,-43,-78
-34,-63,-29,48,-2,-46,-19,39,-82,4,-43,-73
-39,-112,-73,75,17,-92,9,53,-58,14,-34,-63
-4,-117,-112,61,53,-114,24,87,-48,29,-24,-58
68,-82,-151,7,109,-117,29,126,-19,43,0,-39
102,-68,-170,-17,136,-119,39,195,39,112,63,14
117,-19,-136,-48,126,-78,43,244,107,175,131,78
185,102,-82,-143,134,9,14,287,185,248,200,161
263,180,-82,-222,173,48,9,366,283,361,307,268
317,234,-82,-275,200,75,9,429,395,463,409,380
385,278,-107,-331,246,85,0,473,483,556,512,468
468,370,-97,-419,283,136,-24,512,575,653,610,566
575,478,-97,-527,336,190,-63,556,658,746,712,668
697,585,-112,-641,405,236,-122,561,717,839,814,771
829,712,-117,-771,473,297,-190,570,785,922,912,873
995,868,-126,-932,561,370,-258,610,878,1044,1044,1000
1171,1039,-131,-1105,651,453,-375,590,951,1156,1176,1146
1346,1190,-156,-1268,751,517,-551,492,971,1229,1283,1263
1517,1317,-200,-1417,858,558,-727,390,961,1254,1337,1337
1639,1415,-224,-1527,932,595,-844,346,961,1293,1385,1390
1717,1537,-180,-1627,949,678,-907,302,995,1337,1454,1464
1727,1664,-63,-1695,895,800,-995,195,1044,1410,1537,1542
1659,1786,126,-1722,766,956,-1083,24,1093,1488,1620,1644
1532,1927,395,-1729,568,1161,-1146,-122,1180,1605,1751,1776
1312,2069,756,-1690,278,1412,-1107,-224,1332,1751,1893,1917
1019,2108,1088,-1564,-34,1598,-985,-292,1395,1795,1942,1956
722,1956,1234,-1339,-256,1595,-844,-385,1263,1649,1790,1815
458,1644,1185,-1051,-363,1415,-702,-463,985,1356,1483,1517
200,1302,1102,-751,-451,1202,-512,-497,717,1044,1166,1195
-53,941,995,-444,-524,968,-312,-512,458,732,844,868
-253,570,824,-158,-539,697,-141,-522,190,429,517,546
-366,283,649,41,-507,466,-43,-541,-39,180,239,283
-409,136,546,136,-478,341,14,-570,-195,0,48,97
-453,24,478,214,-466,251,92,-541,-283,-112,-78,-43
-507,-112,395,309,-451,141,204,-429,-287,-146,-146,-126
-556,-195,361,375,-458,82,287,-317,-253,-165,-185,-180
-561,-224,336,392,-448,56,351,-253,-244,-175,-209,-219
-566,-263,302,414,-434,19,405,-214,-239,-185,-224,-253
-590,-302,287,446,-439,-7,453,-180,-209,-161,-209,-244
-556,-307,248,431,-402,-29,473,-141,-185,-141,-190,-224
-502,-283,219,392,-361,-31,453,-126,-195,-151,-200,-224
-453,-283,170,368,-312,-56,395,-131,-209,-165,-209,-229
-419,-273,146,346,-283,-63,341,-117,-209,-161,-200,-219
-375,-258,117,317,-246,-70,292,-97,-190,-131,-170,-190
-336,-239,97,287,-217,-70,258,-63,-161,-97,-136,-151
-326,-239,87,283,-207,-75,234,-34,-122,-63,-107,-107
-287,-214,73,251,-180,-70,195,-19,-117,-43,-82,-87
-200,-146,53,173,-126,-46,131,-14,-136,-63,-102,-107
-161,-63,97,112,-129,17,97,-19,-156,-82,-112,-126
-161,-82,78,122,-119,-2,97,4,-136,-63,-117,-122
-165,-92,73,129,-119,-9,92,14,-131,-58,-102,-117
-170,-107,63,139,-117,-21,97,24,-126,-53,-87,-107
-165,-102,63,134,-114,-19,87,29,-126,-43,-82,-97
-141,-112,29,126,-85,-41,92,29,-122,-39,-78,-87
-141,-131,9,136,-75,-61,97,34,-117,-39,-82,-92
-131,-170,-39,151,-46,-104,102,48,-112,-34,-78,-97
-131,-190,-58,161,-36,-124,107,63,-107,-29,-73,-97
-131,-170,-39,151,-46,-104,92,63,-107,-34,-78,-102
-131,-165,-34,148,-48,-100,87,68,-107,-39,-78,-102
-117,-156,-39,136,-39,-97,82,63,-112,-39,-82,-102
-112,-146,-34,129,-39,-90,68,48,-122,-43,-87,-102
-102,-126,-24,114,-39,-75,53,43,-126,-48,-97,-112
-107,-122,-14,114,-46,-68,53,43,-131,-53,-97,-102
-107,-122,-14,114,-46,-68,53,39,-126,-53,-97,-97
-102,-126,-24,114,-39,-75,53,39,-126,-53,-87,-92
-112,-151,-39,131,-36,-95,68,53,-117,-43,-78,-87
-102,-165,-63,134,-19,-114,68,53,-117,-43,-78,-78
-102,-190,-87,146,-7,-139,68,63,-107,-43,-78,-73
-107,-195,-87,151,-9,-141,68,63,-117,-48,-78,-68
-117,-165,-48,141,-34,-107,78,63,-117,-48,-68,-63
-117,-136,-19,126,-48,-78,73,68,-112,-43,-68,-68
-117,-122,-4,119,-56,-63,78,68,-107,-39,-63,-63
-117,-107,9,112,-63,-48,92,73,-102,-34,-58,-53
-107,-112,-4,109,-51,-58,92,68,-112,-34,-58,-63
-97,-117,-19,107,-39,-68,82,68,-107,-34,-58,-68
-92,-122,-29,107,-31,-75,82,68,-107,-34,-58,-68
-92,-131,-39,112,-26,-85,87,78,-97,-29,-58,-63
-97,-136,-39,117,-29,-87,82,68,-87,-19,-63,-63
-97,-126,-29,112,-34,-78,73,68,-87,-19,-63,-63
-97,-131,-34,114,-31,-82,68,73,-92,-19,-63,-58
-102,-141,-39,122,-31,-90,68,73,-92,-19,-58,-58
-107,-141,-34,124,-36,-87,78,63,-92,-9,-58,-68
-117,-141,-24,129,-46,-82,73,63,-92,-9,-53,-63
-117,-136,-19,126,-48,-78,73,63,-87,-9,-48,-63
-107,-136,-29,122,-39,-82,73,68,-87,-4,-48,-63
-102,-131,-29,117,-36,-80,68,63,-92,-19,-58,-73
-97,-126,-29,112,-34,-78,63,58,-97,-19,-58,-73
-92,-117,-24,104,-34,-70,53,48,-102,-24,-58,-73
-82,-112,-29,97,-26,-70,48,43,-107,-34,-58,-73
-82,-122,-39,102,-21,-80,58,58,-97,-34,-53,-68
-87,-131,-43,109,-21,-87,58,63,-97,-29,-48,-58
-92,-141,-48,117,-21,-95,58,63,-97,-29,-48,-58
-97,-146,-48,122,-24,-97,53,58,-97,-29,-53,-63
-102,-122,-19,112,-41,-70,63,68,-82,-24,-48,-48
-107,-112,-4,109,-51,-58,78,78,-78,-14,-43,-43
-117,-112,4,114,-61,-53,87,87,-73,-4,-34,-39
-122,-102,19,112,-70,-41,97,92,-68,9,-29,-39
-117,-102,14,109,-65,-43,92,82,-78,-4,-39,-39
-112,-102,9,107,-61,-46,87,87,-78,-9,-39,-39
-107,-102,4,104,-56,-48,82,92,-78,-14,-39,-39
-102,-97,4,100,-53,-46,82,97,-73,-19,-39,-39
-102,-97,4,100,-53,-46,73,92,-73,-19,-48,-48
-112,-117,-4,114,-53,-61,78,87,-78,-19,-53,-53
-117,-117,0,117,-58,-58,78,82,-87,-19,-58,-53
-122,-112,9,117,-65,-51,82,78,-97,-19,-58,-53
-126,-122,4,124,-65,-58,73,87,-97,-24,-48,-63
-131,-117,14,124,-73,-51,73,78,-107,-24,-58,-73
-146,-117,29,131,-87,-43,73,58,-107,-34,-73,-78
-146,-117,29,131,-87,-43,68,58,-107,-39,-78,-87
-146,-122,24,134,-85,-48,73,63,-112,-43,-87,-102
-151,-126,24,139,-87,-51,78,63,-117,-58,-92,-107
-161,-151,9,156,-85,-70,92,63,-126,-63,-102,-112
-170,-165,4,168,-87,-80,102,63,-131,-68,-112,-112
-185,-165,19,175,-102,-73,92,53,-126,-78,-112,-117
-195,-161,34,178,-114,-63,97,48,-136,-82,-122,-122
-200,-151,48,175,-124,-51,102,43,-146,-92,-131,-131
-204,-141,63,173,-134,-39,102,43,-146,-102,-136,-146
-204,-146,58,175,-131,-43,107,34,-146,-92,-141,-151
-214,-146,68,180,-141,-39,107,19,-161,-112,-151,-165
-234,-151,82,192,-158,-34,107,19,-170,-122,-161,-180
-244,-156,87,200,-165,-34,112,24,-175,-131,-170,-185
-248,-185,63,217,-156,-61,131,34,-170,-126,-165,-180
-253,-209,43,231,-148,-82,131,29,-185,-136,-175,-190
-268,-219,48,244,-158,-85,136,24,-190,-146,-185,-195
-273,-229,43,251,-158,-92,136,19,-195,-151,-195,-204
-283,-229,53,256,-168,-87,136,4,-204,-165,-204,-214
-297,-239,58,268,-178,-90,141,-4,-219,-185,-214,-219
-307,-253,53,280,-180,-100,141,-4,-224,-200,-229,-224
-326,-263,63,295,-195,-100,151,-9,-229,-204,-234,-234
-331,-273,58,302,-195,-107,141,-9,-229,-195,-234,-234
-336,-278,58,307,-197,-109,141,-9,-239,-209,-248,-244
-341,-278,63,309,-202,-107,146,-14,-244,-209,-258,-253
-361,-287,73,324,-217,-107,146,-14,-253,-214,-263,-258
-361,-297,63,329,-212,-117,156,-4,-253,-214,-263,-278
-361,-297,63,329,-212,-117,156,-14,-253,-224,-273,-278
-370,-297,73,334,-222,-112,156,-19,-263,-234,-283,-283
-361,-297,63,329,-212,-117,151,-19,-268,-234,-283,-283
-356,-312,43,334,-200,-134,151,-19,-278,-244,-287,-292
-361,-317,43,339,-202,-136,151,-14,-268,-244,-287,-283
-346,-317,29,331,-187,-143,146,-14,-278,-244,-287,-292
-326,-317,9,322,-168,-153,141,-14,-278,-244,-287,-292
-317,-307,9,312,-163,-148,126,-24,-278,-244,-287,-283
-302,-307,-4,305,-148,-156,122,-14,-278,-244,-278,-278
-297,-297,0,297,-148,-148,107,-14,-273,-234,-273,-268
-278,-278,0,278,-139,-139,102,-4,-268,-229,-263,-253
-263,-244,19,253,-141,-112,107,9,-248,-204,-239,-234
-234,-229,4,231,-119,-112,102,14,-234,-190,-224,-229
-209,-219,-9,214,-100,-114,97,19,-224,-180,-214,-209
-190,-209,-19,200,-85,-114,97,29,-209,-156,-195,-195
-190,-204,-14,197,-87,-109,97,34,-204,-151,-190,-185
-161,-185,-24,173,-68,-104,97,48,-190,-136,-180,-175
-151,-180,-29,165,-61,-104,87,53,-180,-131,-170,-165
-136,-185,-48,161,-43,-117,87,58,-165,-117,-156,-151
-146,-170,-24,158,-61,-97,78,63,-156,-117,-146,-117
-136,-156,-19,146,-58,-87,68,58,-151,-107,-136,-107
-131,-141,-9,136,-61,-75,63,58,-151,-102,-131,-107
-131,-136,-4,134,-63,-70,53,58,-146,-87,-117,-102
-107,-141,-34,124,-36,-87,48,68,-131,-73,-97,-82
-87,-122,-34,104,-26,-78,43,73,-117,-63,-87,-68
-87,-112,-24,100,-31,-68,43,73,-117,-63,-78,-58
-82,-112,-29,97,-26,-70,43,73,-102,-53,-68,-43
-82,-97,-14,90,-34,-56,53,68,-92,-48,-68,-48
-78,-92,-14,85,-31,-53,43,63,-92,-43,-63,-39
-78,-82,-4,80,-36,-43,43,58,-92,-39,-63,-39
-78,-78,0,78,-39,-39,43,53,-87,-24,-48,-34
-68,-73,-4,70,-31,-39,39,48,-78,-14,-43,-34
-58,-63,-4,61,-26,-34,29,48,-73,-14,-43,-29
-48,-63,-14,56,-17,-39,29,53,-68,-19,-43,-24
-34,-53,-19,43,-7,-36,29,53,-63,-19,-39,-19
-53,-68,-14,61,-19,-41,29,43,-68,-9,-43,-19
-63,-73,-9,68,-26,-41,29,43,-68,-4,-39,-19
-73,-73,0,73,-36,-36,34,43,-63,0,-29,-24
-78,-68,9,73,-43,-29,34,39,-63,4,-29,-29
-63,-63,0,63,-31,-31,29,48,-63,9,-29,-34
-58,-58,0,58,-29,-29,19,43,-63,9,-29,-34
-43,-48,-4,46,-19,-26,19,43,-63,9,-24,-24
-24,-48,-24,36,0,-36,14,43,-68,9,-24,-24
-29,-53,-24,41,-2,-39,24,43,-68,4,-14,-14
-29,-53,-24,41,-2,-39,19,43,-63,4,-14,-9
-24,-58,-34,41,4,-46,19,43,-63,0,-19,-9
-24,-58,-34,41,4,-46,24,39,-73,-4,-24,-14
-34,-48,-14,41,-9,-31,19,24,-68,-9,-24,-4
-39,-39,0,39,-19,-19,14,24,-68,-9,-24,-4
-43,-34,9,39,-26,-12,9,24,-68,-4,-24,-4
-43,-9,34,26,-39,12,4,29,-73,-4,-24,-4
-58,-9,48,34,-53,19,4,29,-73,-4,-24,-14
-53,-14,39,34,-46,12,9,24,-73,-9,-24,-14
-58,-24,34,41,-46,4,9,19,-78,-9,-19,-9
-68,-34,34,51,-51,0,9,19,-78,-4,-14,0
-53,-39,14,46,-34,-12,0,19,-87,-14,-19,-4
-34,-43,-9,39,-12,-26,-9,19,-87,-14,-29,-19
-19,-48,-29,34,4,-39,-14,14,-87,-14,-34,-24
-9,-63,-53,36,21,-58,-19,9,-87,-14,-39,-29
-29,-78,-48,53,9,-63,-9,19,-87,-4,-29,-19
-34,-82,-48,58,7,-65,-4,19,-82,-14,-29,-14
-39,-87,-48,63,4,-68,0,39,-73,-4,-29,-4
-43,-107,-63,75,9,-85,9,53,-68,-4,-19,9
-53,-82,-29,68,-12,-56,19,53,-68,-14,-19,19
-58,-82,-24,70,-17,-53,19,58,-68,-9,-14,19
-63,-82,-19,73,-21,-51,14,58,-68,-9,-14,19
-68,-82,-14,75,-26,-48,9,58,-68,-19,-29,9
-58,-78,-19,68,-19,-48,19,68,-68,-4,-19,4
-48,-78,-29,63,-9,-53,24,68,-63,-4,-14,9
-39,-68,-29,53,-4,-48,24,68,-58,0,-9,14
-39,-68,-29,53,-4,-48,24,63,-53,0,-4,19
-19,-58,-39,39,9,-48,24,68,-63,9,-14,9
-4,-68,-63,36,29,-65,43,78,-53,4,-14,19
-29,-68,-39,48,4,-53,48,68,-58,0,-19,9
-39,-53,-14,46,-12,-34,39,68,-68,-9,-29,4
-48,-48,0,48,-24,-24,39,68,-68,-9,-29,0
-58,-43,14,51,-36,-14,39,68,-68,-9,-29,-4
-68,-39,29,53,-48,-4,39,68,-68,-9,-29,-9
-58,-39,19,48,-39,-9,24,53,-73,-19,-34,-19
-53,-48,4,51,-29,-21,19,48,-78,-24,-43,-24
-48,-53,-4,51,-21,-29,19,43,-82,-29,-48,-24
-43,-68,-24,56,-9,-46,19,43,-87,-34,-53,-24
-53,-58,-4,56,-24,-31,29,34,-87,-24,-63,-29
-53,-53,0,53,-26,-26,24,34,-87,-24,-53,-34
-53,-53,0,53,-26,-26,24,34,-87,-24,-63,-43
-48,-53,-4,51,-21,-29,24,29,-97,-24,-63,-48
-48,-53,-4,51,-21,-29,14,29,-97,-29,-78,-48
-53,-58,-4,56,-24,-31,19,29,-97,-34,-78,-53
-58,-68,-9,63,-24,-39,19,29,-87,-34,-78,-53
-58,-82,-24,70,-17,-53,24,34,-87,-39,-78,-53
-63,-97,-34,80,-14,-65,39,39,-87,-39,-68,-34
-68,-97,-29,82,-19,-63,39,43,-87,-39,-58,-29
-73,-102,-29,87,-21,-65,43,48,-87,-39,-53,-24
-78,-102,-24,90,-26,-63,53,53,-87,-39,-48,-19
-73,-97,-24,85,-24,-61,58,48,-87,-39,-58,-24
-68,-82,-14,75,-26,-48,53,53,-78,-39,-58,-29
-68,-78,-9,73,-29,-43,63,63,-73,-34,-58,-34
-73,-73,0,73,-36,-36,73,68,-68,-24,-58,-39
-68,-58,9,63,-39,-24,87,73,-68,-34,-53,-34
-63,-43,19,53,-41,-12,112,78,-63,-19,-48,-24
-53,-43,9,48,-31,-17,126,87,-53,-14,-39,-14
-48,-29,19,39,-34,-4,141,97,-48,-14,-34,-14
-63,-14,48,39,-56,17,165,126,-34,0,-29,-9
-68,-24,43,46,-56,9,180,146,-24,4,-24,-4
-58,-43,14,51,-36,-14,190,161,-19,4,-24,0
-58,-63,-4,61,-26,-34,219,185,-14,9,-19,0
-39,-53,-14,46,-12,-34,209,185,-24,0,-24,-4
-29,-39,-9,34,-9,-24,204,180,-24,0,-29,-9
-24,-14,9,19,-17,-2,190,161,-24,4,-34,-14
-19,9,29,4,-24,19,156,136,-14,14,-29,-4
-43,24,68,9,-56,46,112,102,-9,24,-14,9
-68,39,107,14,-87,73,92,78,-9,24,-14,9
-82,39,122,21,-102,80,78,63,-4,29,-14,14
-102,29,131,36,-117,80,48,34,-4,29,-14,14
-82,34,117,24,-100,75,19,0,-9,14,-14,14
-73,29,102,21,-87,65,4,-19,-19,14,-14,14
-73,24,97,24,-85,61,-9,-29,-39,9,-24,9
-68,14,82,26,-75,48,-24,-34,-43,4,-24,9
-53,19,73,17,-63,46,-43,-24,-48,0,-24,19
-39,19,58,9,-48,39,-48,-19,-53,0,-24,19
-29,14,43,7,-36,29,-58,-14,-48,0,-24,19
-9,14,24,-2,-17,19,-58,-4,-43,-4,-29,14
-4,14,19,-4,-12,17,-53,-14,-34,4,-24,4
-9,9,19,0,-14,14,-53,-14,-43,0,-24,4
-19,-4,14,12,-17,4,-53,-14,-43,-4,-29,0
-29,-9,19,19,-24,4,-53,-14,-48,-4,-34,-4
0,-29,-29,14,14,-29,-48,0,-58,-14,-48,-24
9,-39,-48,14,29,-43,-39,4,-73,-29,-58,-29
19,-53,-73,17,46,-63,-39,4,-87,-43,-63,-34
34,-53,-87,9,61,-70,-43,4,-102,-58,-78,-48
24,-48,-73,12,48,-61,-39,4,-102,-58,-73,-48
14,-48,-63,17,39,-56,-43,9,-112,-68,-78,-48
19,-53,-73,17,46,-63,-43,14,-107,-68,-78,-43
19,-58,-78,19,48,-68,-39,24,-102,-68,-78,-39
4,-63,-68,29,36,-65,-39,19,-97,-53,-73,-39
4,-53,-58,24,31,-56,-34,19,-97,-53,-78,-39
4,-43,-48,19,26,-46,-29,14,-92,-48,-73,-48
4,-43,-48,19,26,-46,-14,9,-97,-43,-68,-53
4,-73,-78,34,41,-75,-14,9,-97,-53,-82,-53
-4,-87,-82,46,39,-85,-14,9,-97,-53,-82,-53
-9,-107,-97,58,43,-102,-9,9,-92,-48,-82,-53
-19,-131,-112,75,46,-122,0,19,-87,-43,-78,-48
-43,-151,-107,97,31,-129,14,43,-97,-48,-82,-53
-63,-156,-92,109,14,-124,24,39,-102,-63,-97,-68
-82,-161,-78,122,-2,-119,34,39,-107,-78,-112,-82
-78,-161,-82,119,2,-122,39,43,-117,-82,-122,-92
-68,-141,-73,104,2,-107,19,39,-107,-78,-117,-87
-78,-136,-58,107,-9,-97,9,34,-107,-78,-112,-87
-78,-136,-58,107,-9,-97,0,29,-97,-68,-97,-73
-78,-141,-63,109,-7,-102,-9,29,-97,-68,-92,-73
-78,-141,-63,109,-7,-102,-4,29,-102,-73,-97,-68
-78,-146,-68,112,-4,-107,4,29,-102,-73,-97,-63
-78,-126,-48,102,-14,-87,9,29,-107,-73,-97,-58
-73,-117,-43,95,-14,-80,9,29,-107,-73,-97,-48
-58,-107,-48,82,-4,-78,9,24,-117,-87,-112,-63
-58,-112,-53,85,-2,-82,9,19,-122,-92,-117,-68
-58,-92,-34,75,-12,-63,9,14,-131,-97,-117,-73
-58,-82,-24,70,-17,-53,9,9,-136,-102,-122,-78
-48,-161,-112,104,31,-136,43,53,-73,-43,-63,-29
-43,-151,-107,97,31,-129,39,58,-73,-34,-63,-29
-43,-161,-117,102,36,-139,48,68,-73,-34,-53,-24
-9,-151,-141,80,65,-146,48,82,-68,-24,-53,-24
53,-97,-151,21,102,-124,43,117,-39,-9,-43,-9
68,-73,-141,2,104,-107,48,165,0,24,-19,9
73,-68,-141,-2,107,-104,39,214,58,73,34,63
126,-29,-156,-48,141,-92,34,283,136,146,102,126
204,73,-131,-139,168,-29,24,356,234,239,200,219
273,161,-112,-217,192,24,9,424,312,331,287,317
366,234,-131,-300,248,51,-9,478,395,414,380,409
492,346,-146,-419,319,100,-29,512,483,507,473,497
624,478,-146,-551,385,165,-53,561,575,634,610,624
722,585,-136,-653,429,224,-92,566,678,746,741,756
814,732,-82,-773,448,324,-151,570,756,849,844,868
956,897,-58,-927,507,419,-229,590,834,951,961,980
1161,1054,-107,-1107,634,473,-356,590,907,1054,1073,1107
1395,1176,-219,-1285,807,478,-541,502,912,1107,1156,1205
1600,1259,-341,-1429,971,458,-717,385,883,1112,1205,1263
1703,1337,-366,-1520,1034,485,-805,361,883,1146,1249,1327
1776,1444,-331,-1610,1054,556,-883,346,912,1195,1317,1400
1815,1556,-258,-1686,1037,649,-995,244,946,1239,1376,1454
1776,1664,-112,-1720,944,775,-1093,97,985,1293,1439,1532
1678,1786,107,-1732,785,946,-1141,-43,1054,1400,1551,1634
1483,1937,453,-1710,514,1195,-1127,-151,1180,1527,1683,1776
1195,2010,814,-1603,190,1412,-1029,-234,1263,1615,1756,1849
854,1903,1049,-1378,-97,1476,-888,-322,1210,1532,1678,1771
546,1615,1068,-1080,-261,1342,-746,-414,971,1278,1420,1532
283,1302,1019,-793,-368,1161,-575,-463,702,976,1112,1224
53,990,936,-522,-441,963,-395,-488,453,683,805,922
-122,678,800,-278,-461,739,-214,-512,195,380,492,605
-244,385,629,-70,-436,507,-92,-531,-34,117,214,331
-346,156,502,95,-424,329,-24,-570,-195,-63,24,136
-429,-9,419,219,-424,204,63,-551,-273,-165,-107,0
-473,-141,331,307,-402,95,170,-473,-292,-219,-185,-92
-517,-219,297,368,-407,39,263,-351,-268,-224,-234,-165
-566,-273,292,419,-429,9,346,-268,-234,-214,-253,-200
-590,-322,268,456,-429,-26,409,-224,-204,-204,-258,-219
-566,-322,244,444,-405,-39,463,-195,-190,-195,-244,-224
-551,-322,229,436,-390,-46,463,-170,-170,-190,-239,-214
-546,-326,219,436,-383,-53,434,-170,-185,-209,-258,-224
-512,-302,209,407,-361,-46,395,-175,-204,-229,-278,-244
-453,-283,170,368,-312,-56,336,-161,-209,-234,-287,-248
-400,-302,97,351,-248,-102,283,-136,-219,-229,-268,-229
-366,-297,68,331,-217,-114,234,-117,-209,-209,-258,-219
-317,-287,29,302,-173,-129,190,-82,-200,-195,-244,-209
-268,-268,0,268,-134,-134,165,-53,-170,-161,-214,-185
-219,-234,-14,226,-102,-124,146,-29,-146,-151,-190,-165
-170,-214,-43,192,-63,-129,122,-14,-146,-141,-190,-165
-151,-229,-78,190,-36,-153,126,19,-126,-122,-170,-146
-151,-219,-68,185,-41,-143,117,19,-107,-107,-161,-117
-156,-200,-43,178,-56,-122,102,14,-102,-97,-141,-107
-161,-185,-24,173,-68,-104,97,9,-97,-87,-122,-92
-156,-151,4,153,-80,-73,78,0,-97,-73,-112,-78
-151,-136,14,143,-82,-61,58,-4,-102,-87,-117,-82
-151,-141,9,146,-80,-65,58,-4,-107,-97,-131,-92
-141,-165,-24,153,-58,-95,58,4,-112,-102,-136,-102
-141,-170,-29,156,-56,-100,58,14,-117,-107,-141,-107
-131,-175,-43,153,-43,-109,68,14,-117,-117,-151,-117
-122,-185,-63,153,-29,-124,68,19,-117,-126,-156,-122
-97,-190,-92,143,-2,-141,68,14,-122,-131,-165,-126
-82,-195,-112,139,14,-153,58,0,-131,-141,-175,-131
-87,-170,-82,129,-2,-126,58,0,-126,-131,-165,-126
-97,-161,-63,129,-17,-112,63,4,-122,-122,-156,-112
-102,-156,-53,129,-24,-104,68,4,-107,-107,-146,-102
-102,-156,-53,129,-24,-104,73,9,-97,-92,-126,-92
-107,-151,-43,129,-31,-97,73,9,-87,-73,-107,-82
-102,-146,-43,124,-29,-95,68,4,-87,-73,-107,-78
-107,-151,-43,129,-31,-97,63,9,-78,-73,-107,-78
-117,-136,-19,126,-48,-78,58,4,-87,-78,-107,-78
-107,-131,-24,119,-41,-78,43,0,-97,-97,-126,-82
-107,-117,-9,112,-48,-63,34,0,-102,-102,-136,-97
-107,-117,-9,112,-48,-63,34,-4,-107,-107,-141,-102
-107,-117,-9,112,-48,-63,43,-4,-112,-112,-146,-102
-102,-136,-34,119,-34,-85,53,0,-102,-102,-146,-102
-97,-146,-48,122,-24,-97,43,0,-97,-102,-146,-107
-97,-156,-58,126,-19,-107,43,0,-97,-102,-146,-107
-102,-170,-68,136,-17,-119,48,9,-87,-97,-146,-102
-102,-165,-63,134,-19,-114,39,4,-82,-82,-136,-97
-97,-146,-48,122,-24,-97,34,0,-78,-78,-131,-92
-92,-141,-48,117,-21,-95,34,0,-78,-73,-126,-82
-92,-141,-48,117,-21,-95,39,-4,-73,-68,-117,-78
-107,-136,-29,122,-39,-82,43,4,-63,-63,-126,-78
-117,-131,-14,124,-51,-73,43,4,-63,-68,-122,-73
-117,-122,-4,119,-56,-63,48,4,-58,-73,-117,-73
-107,-117,-9,112,-48,-63,53,9,-58,-73,-117,-73
-102,-126,-24,114,-39,-75,43,9,-68,-73,-107,-73
-97,-136,-39,117,-29,-87,43,9,-68,-68,-107,-73
-92,-141,-48,117,-21,-95,39,4,-68,-68,-107,-73
-82,-151,-68,117,-7,-109,39,4,-68,-73,-107,-73
-78,-136,-58,107,-9,-97,29,0,-63,-68,-92,-58
-78,-122,-43,100,-17,-82,29,4,-58,-58,-87,-48
-78,-107,-29,92,-24,-68,29,4,-53,-53,-87,-48
-78,-87,-9,82,-34,-48,24,0,-48,-48,-92,-53
-78,-87,-9,82,-34,-48,24,4,-58,-68,-117,-68
-78,-102,-24,90,-26,-63,29,9,-68,-82,-131,-82
-82,-126,-43,104,-19,-85,29,14,-78,-97,-141,-97
-82,-141,-58,112,-12,-100,29,14,-87,-107,-156,-117
-92,-141,-48,117,-21,-95,34,24,-82,-97,-146,-107
-92,-141,-48,117,-21,-95,39,29,-78,-97,-146,-107
-92,-141,-48,117,-21,-95,43,34,-73,-97,-146,-107
-92,-136,-43,114,-24,-90,53,39,-63,-97,-146,-107
-82,-122,-39,102,-21,-80,48,29,-48,-82,-136,-97
-92,-126,-34,109,-29,-80,48,29,-48,-78,-131,-92
-97,-112,-14,104,-41,-63,43,29,-53,-73,-126,-82
-102,-92,9,97,-56,-41,43,29,-58,-68,-117,-73
-97,-112,-14,104,-41,-63,48,34,-48,-82,-122,-87
-102,-117,-14,109,-43,-65,53,29,-58,-82,-136,-102
-117,-126,-9,122,-53,-68,58,14,-58,-92,-156,-112
-117,-136,-19,126,-48,-78,58,19,-58,-97,-165,-126
-122,-146,-24,134,-48,-85,68,24,-68,-97,-170,-131
-131,-146,-14,139,-58,-80,68,24,-68,-107,-170,-136
-146,-165,-19,156,-63,-92,78,24,-73,-107,-175,-141
-161,-175,-14,168,-73,-95,82,24,-73,-107,-180,-141
-165,-185,-19,175,-73,-102,82,14,-78,-117,-170,-146
-175,-190,-14,183,-80,-102,87,9,-87,-122,-180,-151
-180,-190,-9,185,-85,-100,92,4,-97,-131,-190,-161
-185,-190,-4,187,-90,-97,92,4,-97,-141,-195,-175
-190,-190,0,190,-95,-95,87,0,-97,-131,-209,-190
-204,-195,9,200,-107,-92,87,-19,-112,-151,-219,-204
-229,-204,24,217,-126,-90,87,-24,-122,-161,-229,-219
-244,-214,29,229,-136,-92,92,-24,-126,-170,-239,-224
-244,-224,19,234,-131,-102,92,-29,-122,-175,-244,-229
-253,-239,14,246,-134,-112,92,-39,-136,-185,-253,-239
-273,-239,34,256,-153,-102,97,-48,-141,-195,-263,-244
-283,-239,43,261,-163,-97,97,-58,-146,-200,-273,-253
-302,-224,78,263,-190,-73,87,-73,-141,-190,-263,-253
-317,-219,97,268,-207,-61,92,-82,-151,-195,-263,-248
-326,-219,107,273,-217,-56,92,-82,-151,-195,-268,-244
-346,-214,131,280,-239,-41,102,-87,-151,-185,-263,-244
-356,-234,122,295,-239,-56,112,-78,-161,-200,-263,-244
-356,-248,107,302,-231,-70,112,-78,-170,-219,-278,-253
-356,-258,97,307,-226,-80,117,-82,-175,-224,-287,-263
-370,-278,92,324,-231,-92,117,-82,-185,-234,-292,-268
-356,-297,58,326,-207,-119,117,-73,-200,-248,-312,-297
-351,-297,53,324,-202,-122,117,-82,-204,-263,-331,-307
-356,-297,58,326,-207,-119,117,-87,-219,-278,-351,-322
-341,-297,43,319,-192,-126,112,-87,-229,-283,-361,-331
-351,-297,53,324,-202,-122,122,-82,-224,-268,-341,-317
-361,-297,63,329,-212,-117,122,-73,-209,-263,-336,-302
-351,-292,58,322,-204,-117,117,-68,-214,-258,-331,-307
-336,-287,48,312,-192,-119,112,-63,-209,-253,-326,-302
-331,-297,34,314,-183,-131,102,-58,-195,-234,-312,-278
-322,-297,24,309,-173,-136,102,-43,-190,-234,-297,-268
-322,-287,34,305,-178,-126,92,-39,-180,-224,-287,-253
-307,-268,39,287,-173,-114,92,-24,-170,-219,-273,-234
-283,-253,29,268,-156,-112,82,-24,-175,-209,-273,-229
-253,-248,4,251,-129,-122,73,-24,-165,-200,-263,-239
-229,-248,-19,239,-104,-134,63,-24,-161,-195,-258,-234
-209,-248,-39,229,-85,-143,58,-19,-151,-175,-244,-234
-209,-229,-19,219,-95,-124,48,4,-136,-161,-219,-209
-180,-195,-14,187,-82,-104,48,19,-122,-146,-209,-195
-170,-175,-4,173,-82,-90,39,24,-112,-141,-200,-180
-156,-165,-9,161,-73,-87,39,29,-97,-126,-185,-161
-165,-156,9,161,-87,-73,24,29,-78,-117,-165,-136
-146,-146,0,146,-73,-73,19,29,-73,-107,-156,-126
-131,-136,-4,134,-63,-70,19,34,-73,-102,-151,-126
-122,-136,-14,129,-53,-75,14,39,-68,-87,-136,-122
-107,-141,-34,124,-36,-87,24,39,-68,-87,-146,-122
-87,-122,-34,104,-26,-78,24,43,-58,-82,-146,-117
-87,-112,-24,100,-31,-68,29,43,-63,-87,-146,-117
-82,-112,-29,97,-26,-70,34,43,-53,-82,-146,-112
-63,-92,-29,78,-17,-61,19,48,-53,-78,-136,-117
-58,-92,-34,75,-12,-63,4,53,-53,-73,-131,-107
-58,-87,-29,73,-14,-58,0,58,-53,-68,-131,-107
-58,-87,-29,73,-14,-58,-4,63,-48,-53,-117,-102
-39,-63,-24,51,-7,-43,-24,48,-58,-63,-122,-117
-29,-43,-14,36,-7,-29,-39,39,-63,-73,-131,-117
-19,-34,-14,26,-2,-24,-43,34,-68,-87,-141,-117
-4,-14,-9,9,2,-12,-48,24,-73,-97,-146,-117
-14,-48,-34,31,9,-41,-34,39,-63,-82,-136,-97
-14,-73,-58,43,21,-65,-29,43,-58,-73,-126,-87
-14,-92,-78,53,31,-85,-19,48,-48,-63,-112,-82
-9,-107,-97,58,43,-102,-14,48,-43,-53,-107,-78
-19,-87,-68,53,24,-78,-14,48,-29,-34,-92,-68
-19,-78,-58,48,19,-68,-19,43,-24,-29,-87,-63
-9,-63,-53,36,21,-58,-14,43,-19,-24,-78,-48
4,-58,-63,26,34,-61,-14,43,-19,-19,-73,-43
0,-58,-58,29,29,-58,-19,43,-19,-29,-63,-43
0,-53,-53,26,26,-53,-29,43,-14,-24,-63,-39
4,-53,-58,24,31,-56,-34,43,-14,-24,-68,-39
4,-48,-53,21,29,-51,-34,39,-24,-24,-73,-43
-4,-39,-34,21,14,-36,-34,24,-24,-29,-82,-53
-9,-39,-29,24,9,-34,-34,24,-19,-29,-82,-53
-14,-43,-29,29,7,-36,-34,24,-14,-24,-82,-53
-14,-29,-14,21,0,-21,-34,29,-14,-24,-82,-53
-14,-29,-14,21,0,-21,-34,34,-24,-34,-92,-68
-4,-34,-29,19,12,-31,-29,34,-24,-39,-92,-73
-4,-43,-39,24,17,-41,-29,34,-29,-39,-87,-73
-9,-53,-43,31,17,-48,-29,39,-29,-34,-82,-68
0,-73,-73,36,36,-73,-29,34,-29,-34,-92,-68
4,-82,-87,39,46,-85,-29,39,-29,-34,-97,-78
4,-92,-97,43,51,-95,-24,39,-29,-34,-97,-78
0,-112,-112,56,56,-112,-19,39,-29,-34,-97,-78
-4,-82,-78,43,36,-80,-19,24,-29,-24,-78,-68
-4,-63,-58,34,26,-61,-24,9,-24,-24,-68,-53
-4,-43,-39,24,17,-41,-29,14,-14,-4,-58,-34
-4,-39,-34,21,14,-36,-29,14,-9,4,-39,-9
-19,-29,-9,24,-4,-19,-29,4,4,14,-48,-19
-29,-34,-4,31,-12,-19,-29,9,9,19,-43,-19
-39,-39,0,39,-19,-19,-34,9,14,19,-43,-19
-48,-43,4,46,-26,-19,-39,9,19,9,-58,-29
-24,-73,-48,48,12,-61,-29,14,0,-14,-87,-58
-9,-87,-78,48,34,-82,-24,19,-14,-34,-102,-78
4,-92,-97,43,51,-95,-24,24,-29,-48,-117,-97
9,-107,-117,48,63,-112,-24,24,-43,-68,-131,-117
0,-82,-82,41,41,-82,-34,14,-39,-58,-112,-102
-4,-68,-63,36,29,-65,-34,9,-34,-43,-102,-87
-4,-53,-48,29,21,-51,-34,4,-29,-34,-92,-73
-4,-43,-39,24,17,-41,-34,4,-24,-19,-78,-58
-34,-48,-14,41,-9,-31,-34,-19,-4,0,-58,-39
-39,-58,-19,48,-9,-39,-29,-9,-9,-9,-68,-48
-24,-73,-48,48,12,-61,-19,-4,-14,-24,-82,-63
-19,-78,-58,48,19,-68,-19,0,-19,-29,-87,-68
-14,-82,-68,48,26,-75,-19,4,-24,-34,-92,-73
-9,-87,-78,48,34,-82,-19,9,-29,-39,-97,-78
-24,-87,-63,56,19,-75,-29,19,-29,-48,-107,-87
-24,-97,-73,61,24,-85,-29,19,-29,-53,-112,-92
-24,-102,-78,63,26,-90,-24,19,-29,-58,-112,-92
-24,-117,-92,70,34,-104,-19,24,-29,-63,-112,-92
-24,-102,-78,63,26,-90,-29,14,-29,-48,-97,-78
-24,-82,-58,53,17,-70,-34,4,-29,-43,-82,-73
-24,-68,-43,46,9,-56,-34,-4,-29,-39,-87,-73
-19,-53,-34,36,7,-43,-34,-19,-39,-34,-82,-68
-29,-53,-24,41,-2,-39,-24,-9,-29,-24,-87,-68
-43,-58,-14,51,-14,-36,-19,-9,-29,-24,-87,-73
-58,-68,-9,63,-24,-39,-19,-9,-19,-19,-87,-73
-68,-82,-14,75,-26,-48,-14,-4,-19,-19,-87,-73
-58,-92,-34,75,-12,-63,-24,-4,-29,-29,-97,-82
-58,-87,-29,73,-14,-58,-29,-4,-29,-29,-97,-87
-58,-87,-29,73,-14,-58,-29,-4,-29,-29,-102,-92
-58,-82,-24,70,-17,-53,-24,-4,-29,-29,-107,-97
-68,-63,4,65,-36,-29,0,9,-14,-19,-87,-87
-68,-43,24,56,-46,-9,4,14,0,-9,-78,-78
-73,-34,39,53,-56,2,24,24,9,4,-68,-68
-82,-24,58,53,-70,17,43,29,19,24,-58,-58
-68,-9,58,39,-63,24,48,34,24,9,-68,-58
-53,4,58,24,-56,31,63,39,24,19,-68,-53
-34,4,39,14,-36,21,68,48,29,19,-63,-48
-19,19,39,0,-29,29,73,58,29,14,-63,-53
-9,29,39,-9,-24,34,97,78,14,4,-73,-63
-9,14,24,-2,-17,19,112,97,14,-4,-82,-73
4,-9,-14,2,9,-12,122,112,9,-19,-97,-82
9,-34,-43,12,26,-39,151,136,4,-29,-107,-97
0,-48,-48,24,24,-48,156,146,19,-19,-97,-87
0,-48,-48,24,24,-48,156,141,24,-9,-87,-78
-4,-39,-34,21,14,-36,146,122,29,4,-78,-68
-9,-29,-19,19,4,-24,117,97,43,24,-58,-43
-9,0,9,4,-9,4,78,53,48,43,-34,-29
-29,19,48,4,-39,34,53,29,48,43,-34,-29
-39,24,63,7,-51,43,34,14,53,48,-34,-24
-53,19,73,17,-63,46,0,-14,53,48,-34,-24
-43,19,63,12,-53,41,-24,-34,53,34,-34,-34
-34,19,53,7,-43,36,-34,-48,48,34,-34,-34
-34,19,53,7,-43,36,-43,-53,34,29,-43,-39
-29,14,43,7,-36,29,-53,-53,34,24,-43,-39
-29,4,34,12,-31,19,-73,-58,24,19,-43,-39
-29,0,29,14,-29,14,-78,-58,14,19,-43,-39
-34,-9,24,21,-29,7,-87,-58,14,19,-43,-39
-29,-14,14,21,-21,0,-87,-53,14,14,-48,-43
-19,4,24,7,-21,14,-97,-58,4,14,-58,-48
-19,9,29,4,-24,19,-102,-63,-4,9,-63,-53
-24,4,29,9,-26,17,-107,-68,-4,4,-73,-63
-29,9,39,9,-34,24,-112,-73,-9,4,-82,-73
0,-4,-4,2,2,-4,-107,-68,0,4,-82,-87
9,-19,-29,4,19,-24,-97,-63,-4,0,-87,-87
19,-39,-58,9,39,-48,-97,-63,-9,-4,-87,-87
34,-43,-78,4,56,-61,-102,-63,-14,-9,-97,-97
34,-34,-68,0,51,-51,-117,-78,-29,-19,-97,-87
34,-29,-63,-2,48,-46,-122,-78,-43,-29,-97,-87
48,-29,-78,-9,63,-53,-122,-78,-43,-29,-92,-82
58,-29,-87,-14,73,-58,-117,-73,-43,-29,-87,-78
39,-58,-97,9,68,-78,-102,-63,-34,-29,-87,-68
34,-63,-97,14,65,-80,-92,-58,-39,-34,-97,-68
29,-68,-97,19,63,-82,-82,-58,-39,-34,-97,-78
24,-82,-107,29,65,-95,-63,-58,-48,-34,-97,-82
14,-97,-112,41,63,-104,-63,-48,-58,-43,-107,-87
4,-97,-102,46,53,-100,-63,-48,-58,-43,-112,-92
0,-102,-102,51,51,-102,-58,-48,-53,-39,-117,-97
-9,-112,-102,61,46,-107,-48,-39,-48,-34,-117,-97
-14,-102,-87,58,36,-95,-39,-29,-34,-19,-97,-87
-24,-97,-73,61,24,-85,-34,-39,-34,-24,-97,-87
-34,-92,-58,63,12,-75,-29,-43,-34,-29,-97,-87
-19,-82,-63,51,21,-73,-29,-43,-39,-24,-92,-82
-14,-68,-53,41,19,-61,-34,-48,-43,-34,-107,-102
-19,-68,-48,43,14,-58,-39,-53,-48,-39,-112,-107
-14,-73,-58,43,21,-65,-43,-58,-43,-34,-107,-97
-9,-82,-73,46,31,-78,-48,-58,-48,-39,-112,-102
-24,-117,-92,70,34,-104,-34,-48,-43,-43,-117,-112
-29,-146,-117,87,43,-131,-24,-39,-43,-43,-117,-112
-34,-151,-117,92,41,-134,-19,-29,-48,-43,-117,-112
-34,-165,-131,100,48,-148,-19,-19,-48,-43,-117,-107
-39,-136,-97,87,29,-117,-34,-39,-48,-53,-126,-117
-39,-131,-92,85,26,-112,-39,-48,-53,-53,-126,-117
-39,-102,-63,70,12,-82,-43,-58,-63,-53,-122,-117
-39,-82,-43,61,2,-63,-48,-68,-68,-53,-122,-117
-29,-92,-63,61,17,-78,-43,-43,-43,-14,-92,-87
-24,-141,-117,82,46,-129,-19,-19,-34,-4,-82,-78
-14,-131,-117,73,51,-124,-19,-9,-53,-24,-102,-92
19,-82,-102,31,61,-92,-29,14,-48,-24,-102,-82
53,-58,-112,2,82,-85,-24,68,0,9,-73,-58
97,-63,-161,-17,129,-112,-9,136,48,43,-39,-39
151,-48,-200,-51,175,-124,-9,195,107,102,4,4
214,0,-214,-107,214,-107,-24,263,175,175,82,68
312,92,-219,-202,265,-63,-53,317,253,258,161,151
400,190,-209,-295,305,-9,-68,366,331,351,258,239
473,292,-180,-383,326,56,-97,409,424,453,361,351
551,424,-126,-488,339,148,-117,463,531,566,483,468
644,546,-97,-595,370,224,-141,512,653,692,610,614
800,673,-126,-736,463,273,-170,556,746,814,741,746
1019,819,-200,-919,610,309,-239,590,814,907,863,849
1220,946,-273,-1083,746,336,-336,629,873,980,961,951
1395,1034,-361,-1215,878,336,-444,629,927,1083,1063,1068
1581,1127,-453,-1354,1017,336,-590,551,961,1166,1176,1195
1747,1259,-488,-1503,1117,385,-727,453,961,1200,1244,1273
1888,1434,-453,-1661,1171,490,-854,390,961,1234,1288,1327
1971,1571,-400,-1771,1185,585,-961,326,990,1283,1356,1400
1952,1673,-278,-1812,1115,697,-1063,204,1024,1337,1434,1493
1844,1781,-63,-1812,954,858,-1161,58,1054,1400,1527,1590
1698,1912,214,-1805,741,1063,-1200,-73,1141,1507,1639,1712
1493,2044,551,-1769,470,1298,-1156,-151,1259,1634,1771,1834
1185,2030,844,-1607,170,1437,-1039,-234,1283,1644,1776,1849
863,1805,941,-1334,-39,1373,-868,-322,1102,1444,1571,1654
605,1468,863,-1037,-129,1166,-697,-375,824,1132,1254,1346
380,1137,756,-758,-187,946,-527,-405,566,829,927,1039
141,795,653,-468,-256,724,-346,-439,307,517,600,697
-63,463,527,-200,-295,495,-204,-473,48,214,268,361
-224,209,434,7,-329,322,-112,-522,-112,29,48,136
-346,58,405,143,-375,231,-43,-531,-175,-63,-53,19
-400,-48,351,224,-375,151,43,-502,-214,-126,-126,-68
-424,-112,312,268,-368,100,131,-414,-204,-141,-175,-131
-468,-151,317,309,-392,82,244,-312,-161,-126,-195,-175
-517,-175,341,346,-429,82,317,-239,-126,-117,-214,-209
-541,-156,385,348,-463,114,341,-234,-126,-126,-229,-229
-536,-156,380,346,-458,112,346,-244,-131,-136,-244,-244
-463,-204,258,334,-361,26,336,-239,-170,-170,-278,-283
-400,-209,190,305,-295,-9,317,-219,-185,-200,-307,-302
-424,-234,190,329,-307,-21,297,-185,-156,-170,-268,-273
-414,-283,131,348,-273,-75,268,-161,-131,-136,-229,-229
-331,-302,29,317,-180,-136,253,-146,-112,-112,-200,-200
-258,-239,19,248,-139,-109,214,-136,-112,-92,-190,-180
-229,-209,19,219,-124,-95,170,-122,-102,-78,-165,-161
-229,-239,-9,234,-109,-124,156,-92,-82,-53,-156,-146
-200,-234,-34,217,-82,-134,126,-68,-78,-63,-161,-156
-151,-204,-53,178,-48,-129,92,-53,-97,-73,-170,-165
-151,-200,-48,175,-51,-124,87,-39,-97,-73,-161,-165
-156,-209,-53,183,-51,-131,68,-34,-87,-53,-156,-151
-165,-200,-34,183,-65,-117,53,-43,-82,-48,-141,-146
-175,-195,-19,185,-78,-107,48,-53,-78,-43,-126,-136
-175,-170,4,173,-90,-82,29,-68,-78,-34,-122,-126
-146,-146,0,146,-73,-73,29,-63,-73,-24,-112,-117
-131,-141,-9,136,-61,-75,29,-63,-68,-29,-122,-122
-107,-156,-48,131,-29,-102,29,-53,-63,-29,-122,-126
-92,-151,-58,122,-17,-104,29,-43,-58,-29,-122,-126
-82,-146,-63,114,-9,-104,39,-39,-58,-43,-136,-126
-82,-146,-63,114,-9,-104,39,-29,-58,-48,-136,-131
-68,-141,-73,104,2,-107,39,-29,-63,-48,-141,-136
-63,-136,-73,100,4,-104,29,-39,-73,-53,-146,-141
-73,-126,-53,100,-9,-90,34,-29,-82,-53,-156,-151
-78,-131,-53,104,-12,-92,34,-24,-82,-53,-156,-141
-78,-141,-63,109,-7,-102,34,-24,-73,-48,-156,-136
-73,-156,-82,114,4,-119,34,-19,-68,-43,-146,-131
-63,-146,-82,104,9,-114,29,-19,-63,-29,-126,-126
-53,-126,-73,90,9,-100,29,-24,-58,-24,-117,-117
-53,-117,-63,85,4,-90,29,-19,-43,-19,-107,-112
-58,-87,-29,73,-14,-58,29,-24,-48,-19,-97,-107
-63,-92,-29,78,-17,-61,14,-39,-63,-14,-102,-107
-68,-87,-19,78,-24,-53,4,-39,-63,-14,-107,-117
-73,-97,-24,85,-24,-61,4,-43,-63,-14,-107,-117
-78,-107,-29,92,-24,-68,14,-43,-63,-14,-107,-112
-82,-107,-24,95,-29,-65,4,-48,-73,-19,-122,-122
-78,-107,-29,92,-24,-68,-4,-48,-68,-24,-126,-136
-78,-107,-29,92,-24,-68,-4,-48,-68,-29,-131,-146
-82,-112,-29,97,-26,-70,0,-39,-58,-29,-136,-151
-78,-117,-39,97,-19,-78,0,-43,-58,-29,-122,-146
-68,-107,-39,87,-14,-73,-4,-48,-58,-29,-122,-141
-58,-112,-53,85,-2,-82,-4,-48,-63,-29,-122,-131
-53,-122,-68,87,7,-95,0,-53,-63,-29,-117,-126
-68,-126,-58,97,-4,-92,9,-43,-48,-14,-112,-112
-87,-131,-43,109,-21,-87,4,-43,-43,-9,-102,-102
-97,-131,-34,114,-31,-82,4,-43,-34,-4,-92,-97
-97,-136,-39,117,-29,-87,4,-39,-29,4,-87,-92
-92,-126,-34,109,-29,-80,14,-34,-19,4,-87,-97
-87,-126,-39,107,-24,-82,14,-29,-19,9,-87,-102
-82,-122,-39,102,-21,-80,9,-29,-19,9,-87,-107
-73,-122,-48,97,-12,-85,9,-24,-19,4,-87,-112
-63,-131,-68,97,2,-100,4,-24,-29,-4,-92,-117
-58,-141,-82,100,12,-112,0,-24,-39,-9,-97,-117
-53,-151,-97,102,21,-124,-4,-29,-48,-19,-107,-126
-48,-156,-107,102,29,-131,-14,-39,-58,-29,-122,-141
-53,-122,-68,87,7,-95,-4,-43,-48,-9,-107,-126
-58,-102,-43,80,-7,-73,0,-48,-39,4,-92,-112
-68,-92,-24,80,-21,-58,0,-53,-29,19,-73,-97
-73,-73,0,73,-36,-36,0,-63,-19,39,-58,-87
-58,-82,-24,70,-17,-53,0,-63,-19,34,-63,-97
-53,-82,-29,68,-12,-56,0,-58,-19,29,-68,-97
-48,-82,-34,65,-7,-58,0,-53,-19,24,-73,-97
-43,-78,-34,61,-4,-56,4,-48,-14,19,-78,-97
-48,-87,-39,68,-4,-63,-4,-48,-29,4,-97,-107
-63,-117,-53,90,-4,-85,0,-48,-39,-9,-112,-122
-73,-126,-53,100,-9,-90,0,-48,-53,-24,-126,-131
-82,-131,-48,107,-17,-90,4,-48,-68,-39,-136,-141
-97,-122,-24,109,-36,-73,9,-39,-58,-39,-112,-126
-112,-107,4,109,-58,-51,14,-48,-58,-24,-107,-122
-136,-97,39,117,-87,-29,19,-68,-48,-19,-107,-112
-146,-87,58,117,-102,-14,19,-68,-39,-9,-97,-107
-136,-78,58,107,-97,-9,4,-73,-48,-9,-112,-117
-131,-78,53,104,-92,-12,0,-73,-48,-19,-112,-126
-131,-97,34,114,-82,-31,4,-73,-53,-19,-117,-136
-131,-107,24,119,-78,-41,4,-73,-53,-19,-122,-141
-146,-131,14,139,-80,-58,19,-73,-58,-24,-126,-151
-156,-151,4,153,-80,-73,29,-78,-68,-34,-141,-161
-161,-165,-4,163,-78,-85,39,-82,-78,-48,-156,-175
-165,-180,-14,173,-75,-97,43,-82,-78,-63,-165,-195
-180,-180,0,180,-90,-90,48,-92,-78,-53,-170,-195
-195,-185,9,190,-102,-87,48,-107,-92,-73,-180,-204
-219,-195,24,207,-122,-85,48,-107,-102,-82,-190,-214
-234,-204,29,219,-131,-87,53,-102,-107,-92,-200,-214
-253,-214,39,234,-146,-87,63,-102,-107,-87,-185,-200
-273,-229,43,251,-158,-92,63,-107,-117,-87,-185,-200
-302,-229,73,265,-187,-78,68,-112,-117,-87,-185,-195
-322,-229,92,275,-207,-68,68,-117,-117,-82,-185,-195
-317,-209,107,263,-212,-51,53,-131,-126,-102,-204,-219
-326,-209,117,268,-222,-46,53,-151,-141,-117,-214,-229
-331,-214,117,273,-224,-48,48,-161,-146,-126,-229,-239
-346,-214,131,280,-239,-41,53,-175,-151,-126,-234,-253
-336,-239,97,287,-217,-70,58,-170,-165,-141,-258,-278
-336,-248,87,292,-212,-80,63,-165,-180,-161,-278,-292
-336,-253,82,295,-209,-85,73,-165,-190,-165,-292,-307
-351,-268,82,309,-217,-92,78,-161,-204,-175,-302,-317
-366,-283,82,324,-224,-100,97,-151,-190,-165,-287,-312
-370,-287,82,329,-226,-102,97,-161,-185,-175,-292,-307
-385,-292,92,339,-239,-100,97,-165,-190,-185,-297,-307
-380,-297,82,339,-231,-107,92,-165,-190,-185,-292,-302
-366,-312,53,339,-209,-129,78,-165,-200,-175,-283,-297
-370,-317,53,344,-212,-131,73,-161,-190,-175,-278,-283
-356,-317,39,336,-197,-139,63,-161,-200,-175,-273,-287
-336,-317,19,326,-178,-148,53,-161,-200,-175,-268,-283
-307,-297,9,302,-158,-143,58,-146,-190,-151,-258,-258
-283,-287,-4,285,-139,-146,63,-131,-180,-146,-239,-248
-268,-268,0,268,-134,-134,58,-126,-165,-131,-224,-234
-239,-239,0,239,-119,-119,63,-112,-151,-122,-204,-214
-234,-214,19,224,-126,-97,63,-107,-146,-102,-195,-209
-214,-200,14,207,-114,-92,53,-102,-136,-92,-185,-209
-200,-190,9,195,-104,-90,43,-97,-131,-87,-180,-195
-190,-180,9,185,-100,-85,39,-87,-122,-68,-165,-185
-175,-180,-4,178,-85,-92,34,-78,-126,-68,-165,-180
-141,-156,-14,148,-63,-85,29,-68,-112,-58,-161,-175
-126,-146,-19,136,-53,-82,14,-68,-102,-58,-156,-170
-107,-146,-39,126,-34,-92,9,-68,-87,-48,-146,-161
-107,-131,-24,119,-41,-78,14,-48,-58,-29,-117,-126
-87,-117,-29,102,-29,-73,9,-48,-53,-19,-97,-107
-73,-102,-29,87,-21,-65,9,-43,-53,-14,-82,-97
-63,-97,-34,80,-14,-65,4,-39,-48,0,-58,-82
-63,-102,-39,82,-12,-70,0,-48,-53,-4,-63,-92
-48,-82,-34,65,-7,-58,-4,-43,-48,-4,-68,-87
-53,-73,-19,63,-17,-46,-4,-43,-58,-14,-73,-87
-53,-73,-19,63,-17,-46,-4,-43,-53,-14,-78,-82
-43,-53,-9,48,-17,-31,4,-43,-39,0,-58,-68
-39,-53,-14,46,-12,-34,-4,-43,-34,4,-43,-48
-39,-48,-9,43,-14,-29,-4,-43,-29,9,-34,-39
-39,-48,-9,43,-14,-29,-4,-43,-19,24,-9,-24
-19,-34,-14,26,-2,-24,-9,-39,-29,19,-9,-34
-9,-24,-14,17,2,-19,-19,-39,-24,14,-14,-29
0,-24,-24,12,12,-24,-19,-34,-19,4,-19,-24
14,-14,-29,0,21,-21,-19,-34,-14,0,-19,-19
0,-39,-39,19,19,-39,-9,-19,0,9,-14,-24
-4,-53,-48,29,21,-51,-9,-14,0,14,-9,-19
-9,-63,-53,36,21,-58,-4,-9,4,19,0,-19
-9,-68,-58,39,24,-63,-4,-9,4,24,0,-19
-24,-43,-19,34,-2,-31,-14,-14,4,29,0,-4
-29,-29,0,29,-14,-14,-29,-24,4,29,0,-4
-24,-9,14,17,-19,2,-34,-29,4,29,4,4
-14,0,14,7,-14,7,-43,-34,0,29,4,4
-14,-19,-4,17,-4,-12,-29,-19,0,24,4,0
-9,-34,-24,21,7,-29,-29,-14,4,24,4,0
0,-53,-53,26,26,-53,-24,-9,4,19,0,-4
4,-68,-73,31,39,-70,-14,-9,-4,14,-4,-14
-4,-73,-68,39,31,-70,-4,-4,4,19,9,-9
-9,-78,-68,43,29,-73,-4,-4,9,19,14,-4
-14,-87,-73,51,29,-80,-4,-4,14,24,19,0
-14,-78,-63,46,24,-70,-4,0,14,24,24,4
-9,-68,-58,39,24,-63,-9,-9,24,29,29,19
4,-63,-68,29,36,-65,-9,-14,24,29,34,24
9,-63,-73,26,41,-68,-14,-19,19,34,43,34
9,-63,-73,26,41,-68,-19,-19,19,43,53,48
0,-43,-43,21,21,-43,-34,-29,4,34,43,29
4,-34,-39,14,21,-36,-39,-29,0,24,29,9
4,-24,-29,9,17,-26,-39,-34,-4,14,19,0
0,-24,-24,12,12,-24,-39,-39,-9,4,9,-9
-14,-14,0,14,-7,-7,-43,-48,-14,-4,4,-19
-14,-4,9,9,-12,2,-43,-58,-14,-14,0,-24
-14,4,19,4,-17,12,-43,-48,-9,-4,-4,-24
-14,0,14,7,-14,7,-39,-43,-9,-4,0,-19
-4,0,4,2,-4,2,-29,-34,-4,-4,4,-4
0,-4,-4,2,2,-4,-29,-29,0,0,14,0
4,-9,-14,2,9,-12,-34,-29,4,0,19,4
9,-14,-24,2,17,-19,-39,-29,9,-9,9,0
19,-9,-29,-4,24,-19,-39,-34,-4,-19,4,0
19,-9,-29,-4,24,-19,-34,-39,-4,-24,4,0
19,0,-19,-9,19,-9,-34,-43,-4,-24,4,0
9,0,-9,-4,9,-4,-34,-53,-4,-29,4,0
-29,-58,-29,43,0,-43,-14,-39,14,-9,14,9
-14,-39,-24,26,4,-31,-24,-29,14,4,24,19
-14,-48,-34,31,9,-41,-14,-19,14,4,34,29
-39,-97,-58,68,9,-78,0,-9,19,19,48,39
-29,-78,-48,53,9,-63,-9,-24,9,9,39,29
-19,-68,-48,43,14,-58,-9,-29,9,9,39,29
-9,-58,-48,34,19,-53,-9,-34,9,9,39,29
0,-48,-48,24,24,-48,-9,-39,9,9,39,29
-14,-39,-24,26,4,-31,-9,-43,0,0,29,19
-14,-39,-24,26,4,-31,-9,-48,0,-4,24,14
-14,-34,-19,24,2,-26,-4,-53,0,-9,24,14
-14,-39,-24,26,4,-31,0,-53,0,-14,24,14
-39,-48,-9,43,-14,-29,0,-43,9,-4,34,19
-43,-43,0,43,-21,-21,-4,-43,9,-4,43,24
-48,-43,4,46,-26,-19,-4,-43,9,-4,34,24
-48,-43,4,46,-26,-19,-4,-48,0,-4,34,29
-34,-43,-9,39,-12,-26,-14,-48,0,-14,29,19
-34,-48,-14,41,-9,-31,-9,-48,0,-14,29,14
-34,-58,-24,46,-4,-41,-9,-48,9,-9,29,14
-29,-73,-43,51,7,-58,-4,-43,9,-9,29,14
-34,-63,-29,48,-2,-46,-14,-53,4,-14,24,4
-39,-58,-19,48,-9,-39,-19,-53,0,-19,19,0
-43,-58,-14,51,-14,-36,-19,-53,-4,-24,9,-4
-48,-53,-4,51,-21,-29,-14,-53,-9,-29,0,-9
-43,-43,0,43,-21,-21,4,-48,-9,-19,14,4
-39,-34,4,36,-21,-14,4,-43,0,-19,19,9
-39,-34,4,36,-21,-14,19,-34,4,-14,24,14
-43,-34,9,39,-26,-12,34,-29,9,-4,29,19
-53,-34,19,43,-36,-7,39,-19,29,4,39,29
-53,-24,29,39,-41,2,63,-9,34,19,48,43
-48,-29,19,39,-34,-4,78,4,43,24,63,58
-48,-19,29,34,-39,4,92,19,48,24,73,63
-58,0,58,29,-58,29,102,43,48,14,73,68
-58,-4,53,31,-56,24,112,58,53,14,73,73
-43,-19,24,31,-34,2,117,68,53,9,68,78
-39,-34,4,36,-21,-14,141,87,53,9,68,78
-43,-29,14,36,-29,-7,156,102,48,0,58,63
-39,-29,9,34,-24,-9,156,102,43,0,58,58
-39,-19,19,29,-29,0,146,87,39,4,58,53
-39,-9,29,24,-34,9,117,68,43,14,68,63
-48,9,58,19,-53,34,102,43,63,29,92,78
-68,19,87,24,-78,53,92,29,68,34,92,78
-78,14,92,31,-85,53,87,24,78,43,92,82
-92,0,92,46,-92,46,68,4,82,48,92,82
-73,34,107,19,-90,70,19,-29,68,39,82,73
-63,48,112,7,-87,80,-4,-58,58,34,82,73
-63,63,126,0,-95,95,-29,-78,39,24,73,68
-58,73,131,-7,-95,102,-53,-92,34,14,73,68
-48,78,126,-14,-87,102,-68,-97,34,19,82,78
-39,78,117,-19,-78,97,-68,-97,24,19,82,78
-34,73,107,-19,-70,90,-73,-97,24,19,82,78
-19,73,92,-26,-56,82,-68,-92,24,14,78,73
-14,68,82,-26,-48,75,-73,-82,24,4,73,73
-9,68,78,-29,-43,73,-73,-82,14,0,73,73
-9,58,68,-24,-39,63,-73,-82,14,-4,68,68
-9,58,68,-24,-39,63,-73,-82,9,-4,63,63
0,39,39,-19,-19,39,-68,-78,9,4,53,53
0,19,19,-9,-9,19,-58,-73,4,0,48,48
0,-4,-4,2,2,-4,-58,-73,0,-4,48,43
4,-14,-19,4,12,-17,-63,-73,-4,-9,39,29
4,0,-4,-2,4,-2,-68,-68,-9,-9,43,39
4,0,-4,-2,4,-2,-73,-68,-24,-19,39,39
19,-4,-24,-7,21,-14,-73,-68,-24,-19,39,43
29,-9,-39,-9,34,-24,-68,-63,-24,-19,39,48
14,-39,-53,12,34,-46,-63,-48,-14,-19,43,58
14,-43,-58,14,36,-51,-53,-39,-19,-24,39,58
14,-48,-63,17,39,-56,-43,-34,-19,-24,43,48
14,-63,-78,24,46,-70,-24,-29,-29,-24,48,43
29,-58,-87,14,58,-73,-34,-29,-29,-43,39,43
24,-58,-82,17,53,-70,-34,-29,-29,-43,34,43
24,-63,-87,19,56,-75,-29,-29,-24,-39,29,43
19,-73,-92,26,56,-82,-19,-19,-19,-34,29,48
-9,-68,-58,39,24,-63,-4,0,-19,-24,39,48
-24,-68,-43,46,9,-56,4,-9,-24,-34,29,39
-39,-68,-29,53,-4,-48,14,-14,-29,-43,19,29
-29,-63,-34,46,2,-48,19,-14,-39,-43,14,24
-39,-58,-19,48,-9,-39,19,-19,-39,-48,4,14
-48,-68,-19,58,-14,-43,19,-24,-39,-48,4,9
-48,-82,-34,65,-7,-58,19,-29,-29,-39,14,19
-48,-102,-53,75,2,-78,19,-29,-29,-39,14,14
-58,-97,-39,78,-9,-68,14,-39,-43,-53,0,4
-58,-107,-48,82,-4,-78,14,-39,-43,-53,0,4
-58,-92,-34,75,-12,-63,9,-39,-48,-53,0,4
-53,-87,-34,70,-9,-61,0,-39,-48,-53,0,9
-43,-87,-43,65,0,-65,0,-29,-53,-63,9,19
-39,-102,-63,70,12,-82,0,-29,-53,-63,9,19
-34,-92,-58,63,12,-75,0,-29,-58,-63,14,19
-29,-92,-63,61,17,-78,0,-29,-58,-63,14,19
-29,-102,-73,65,21,-87,14,-14,-34,-43,24,29
-24,-102,-78,63,26,-90,29,-19,-34,-43,24,19
-24,-102,-78,63,26,-90,19,-19,-43,-43,14,14
-29,-112,-82,70,26,-97,19,-4,-39,-43,14,14
4,-107,-112,51,58,-109,24,39,-19,-29,24,29
68,-43,-112,-12,90,-78,39,87,19,-4,48,48
102,9,-92,-56,97,-41,39,136,68,43,102,102
156,39,-117,-97,136,-39,24,185,126,107,161,156
244,122,-122,-183,183,0,-4,239,204,190,248,239
331,219,-112,-275,222,53,-19,297,302,292,346,336
424,292,-131,-358,278,80,-39,351,395,395,448,448
502,385,-117,-444,309,134,-58,405,483,488,561,556
556,488,-68,-522,312,209,-73,463,595,605,678,673
653,566,-87,-610,370,239,-102,507,688,727,800,795
814,634,-180,-724,497,226,-141,531,766,819,912,917
985,810,-175,-897,580,317,-190,570,854,922,1019,1019
1161,1005,-156,-1083,658,424,-268,619,936,1034,1151,1156
1376,1127,-248,-1251,812,439,-414,580,990,1127,1273,1283
1571,1249,-322,-1410,946,463,-610,453,980,1171,1351,1371
1722,1366,-356,-1544,1039,505,-756,370,961,1195,1405,1434
1815,1473,-341,-1644,1078,566,-834,346,990,1244,1464,1517
1883,1586,-297,-1734,1090,644,-917,292,1024,1298,1532,1590
1873,1722,-151,-1798,1012,785,-1015,165,1054,1351,1595,1659
1786,1844,58,-1815,863,951,-1102,24,1112,1420,1678,1751
1610,1966,356,-1788,627,1161,-1117,-92,1210,1546,1810,1883
1351,2059,707,-1705,322,1383,-1068,-185,1322,1654,1912,1986
1068,2010,941,-1539,63,1476,-956,-283,1288,1600,1873,1947
790,1761,971,-1276,-90,1366,-805,-356,1088,1385,1644,1727
546,1410,863,-978,-158,1137,-624,-395,800,1063,1327,1410
297,1049,751,-673,-226,900,-444,-419,531,761,990,1088
53,707,653,-380,-300,680,-263,-453,283,458,668,761
-136,414,551,-139,-344,483,-112,-483,43,175,370,458
-268,224,492,21,-380,358,-24,-512,-117,-14,161,253
-351,107,458,122,-405,283,24,-522,-204,-126,39,117
-385,-4,380,195,-383,187,82,-483,-244,-200,-48,4
-419,-82,336,251,-378,126,185,-380,-229,-214,-97,-58
-448,-146,302,297,-375,78,307,-239,-146,-175,-87,-63
-483,-214,268,348,-375,26,400,-156,-97,-156,-92,-82
-507,-273,234,390,-370,-19,434,-146,-102,-165,-117,-117
-531,-283,248,407,-390,-17,463,-151,-102,-170,-131,-126
-527,-287,239,407,-383,-24,473,-131,-107,-170,-141,-126
-483,-292,190,387,-336,-51,444,-126,-117,-190,-151,-146
-405,-283,122,344,-263,-80,395,-141,-141,-204,-161,-161
-351,-263,87,307,-219,-87,331,-156,-161,-209,-161,-151
-356,-239,117,297,-236,-61,292,-156,-151,-190,-131,-131
-317,-248,68,283,-192,-90,268,-122,-112,-146,-97,-82
-239,-239,0,239,-119,-119,234,-92,-92,-122,-68,-58
-190,-204,-14,197,-87,-109,175,-78,-97,-122,-73,-58
-190,-175,14,183,-102,-80,141,-63,-97,-122,-73,-68
-151,-161,-9,156,-70,-85,136,-39,-78,-102,-63,-68
-136,-146,-9,141,-63,-78,131,-24,-68,-102,-68,-63
-126,-131,-4,129,-61,-68,122,-24,-63,-97,-53,-58
-117,-122,-4,119,-56,-63,122,-24,-58,-92,-39,-48
-97,-92,4,95,-51,-43,107,-29,-58,-82,-34,-39
-97,-73,24,85,-61,-24,92,-39,-63,-92,-43,-39
-102,-73,29,87,-65,-21,87,-43,-68,-97,-53,-43
-97,-92,4,95,-51,-43,82,-39,-73,-97,-53,-48
-102,-92,9,97,-56,-41,78,-34,-78,-97,-53,-48
-112,-112,0,112,-56,-56,87,-19,-63,-82,-39,-29
-112,-136,-24,124,-43,-80,97,0,-48,-78,-29,-24
-97,-156,-58,126,-19,-107,107,9,-39,-68,-24,-19
-92,-175,-82,134,-4,-129,107,9,-34,-63,-19,-14
-87,-151,-63,119,-12,-107,92,0,-43,-73,-29,-24
-87,-141,-53,114,-17,-97,92,4,-43,-73,-29,-14
-82,-136,-53,109,-14,-95,92,4,-34,-68,-29,-9
-73,-136,-63,104,-4,-100,92,9,-29,-63,-19,-4
-82,-146,-63,114,-9,-104,92,4,-39,-63,-14,-19
-73,-146,-73,109,0,-109,87,4,-39,-63,-19,-19
-73,-156,-82,114,4,-119,82,14,-29,-63,-24,-24
-78,-146,-68,112,-4,-107,78,14,-39,-68,-29,-29
-82,-141,-58,112,-12,-100,82,19,-34,-73,-24,-19
-87,-126,-39,107,-24,-82,73,19,-34,-73,-29,-29
-92,-126,-34,109,-29,-80,73,14,-34,-73,-29,-29
-97,-126,-29,112,-34,-78,82,14,-34,-73,-29,-24
-87,-112,-24,100,-31,-68,73,19,-34,-68,-19,-14
-78,-97,-19,87,-29,-58,63,19,-29,-63,-19,-19
-73,-82,-9,78,-31,-46,63,19,-29,-58,-19,-19
-73,-73,0,73,-36,-36,68,29,-19,-48,-19,-14
-58,-92,-34,75,-12,-63,73,19,-19,-58,-24,-14
-48,-87,-39,68,-4,-63,73,19,-19,-58,-24,-14
-39,-97,-58,68,9,-78,78,24,-24,-58,-24,-9
-34,-112,-78,73,21,-95,87,24,-24,-58,-19,-9
-48,-102,-53,75,2,-78,78,14,-19,-58,-29,-14
-58,-92,-34,75,-12,-63,63,14,-24,-58,-24,-14
-58,-78,-19,68,-19,-48,53,14,-24,-58,-19,-19
-48,-68,-19,58,-14,-43,43,19,-29,-53,-19,-24
-53,-78,-24,65,-14,-51,53,24,-24,-43,-9,-14
-58,-87,-29,73,-14,-58,63,29,-19,-39,-9,-14
-63,-92,-29,78,-17,-61,68,29,-14,-39,-9,-14
-63,-102,-39,82,-12,-70,78,34,-9,-43,-9,-14
-68,-107,-39,87,-14,-73,78,48,-19,-53,-9,-19
-68,-112,-43,90,-12,-78,78,53,-19,-48,-9,-9
-68,-117,-48,92,-9,-82,78,53,-19,-48,-14,-9
-68,-117,-48,92,-9,-82,73,48,-19,-48,-24,-14
-63,-92,-29,78,-17,-61,68,58,-9,-53,-14,-4
-58,-92,-34,75,-12,-63,68,58,-9,-53,-14,-4
-58,-102,-43,80,-7,-73,63,58,-9,-53,-9,-4
-53,-102,-48,78,-2,-75,58,53,-9,-48,-9,-9
-58,-92,-34,75,-12,-63,68,63,-9,-48,-9,-9
-63,-82,-19,73,-21,-51,68,68,-9,-48,-9,-9
-68,-73,-4,70,-31,-39,68,73,-9,-48,-9,-9
-73,-58,14,65,-43,-21,73,78,-4,-48,-9,-9
-68,-63,4,65,-36,-29,63,73,-9,-48,-19,-14
-73,-87,-14,80,-29,-51,68,68,-9,-48,-24,-24
-73,-92,-19,82,-26,-56,68,63,-14,-48,-29,-29
-73,-92,-19,82,-26,-56,73,58,-19,-48,-29,-34
-82,-97,-14,90,-34,-56,78,73,-4,-58,-24,-29
-92,-97,-4,95,-43,-51,82,68,-9,-53,-29,-34
-112,-102,9,107,-61,-46,87,53,-4,-58,-39,-34
-117,-107,9,112,-63,-48,87,58,0,-58,-39,-39
-107,-92,14,100,-61,-39,78,58,-4,-58,-53,-58
-112,-87,24,100,-68,-31,78,53,-9,-68,-53,-68
-122,-102,19,112,-70,-41,87,48,-19,-68,-58,-78
-131,-107,24,119,-78,-41,92,43,-24,-68,-63,-82
-131,-107,24,119,-78,-41,92,34,-29,-73,-68,-87
-136,-112,24,124,-80,-43,97,29,-39,-82,-82,-92
-136,-112,24,124,-80,-43,102,24,-48,-97,-97,-102
-136,-112,24,124,-80,-43,102,24,-48,-112,-107,-117
-146,-126,19,136,-82,-53,107,19,-58,-112,-117,-112
-165,-136,29,151,-97,-53,107,0,-73,-131,-122,-117
-195,-151,43,173,-119,-53,107,-4,-82,-141,-126,-122
-214,-165,48,190,-131,-58,112,-4,-87,-151,-131,-117
-214,-170,43,192,-129,-63,122,-9,-102,-156,-136,-131
-224,-180,43,202,-134,-68,122,-19,-117,-165,-146,-141
-244,-175,68,209,-156,-53,126,-29,-122,-175,-156,-146
-253,-170,82,212,-168,-43,126,-39,-126,-180,-165,-156
-263,-185,78,224,-170,-53,131,-53,-141,-180,-170,-165
-278,-200,78,239,-178,-61,141,-63,-151,-195,-175,-170
-287,-219,68,253,-178,-75,146,-63,-151,-204,-185,-175
-307,-234,73,270,-190,-80,161,-68,-151,-204,-185,-185
-292,-239,53,265,-173,-92,156,-78,-161,-214,-204,-204
-287,-239,48,263,-168,-95,151,-78,-170,-229,-219,-214
-283,-234,48,258,-165,-92,151,-82,-175,-229,-229,-224
-292,-239,53,265,-173,-92,146,-82,-185,-234,-234,-229
-297,-248,48,273,-173,-100,151,-73,-175,-224,-224,-239
-302,-248,53,275,-178,-97,146,-82,-175,-234,-234,-239
-317,-248,68,283,-192,-90,141,-87,-185,-244,-244,-244
-312,-248,63,280,-187,-92,131,-87,-190,-244,-244,-244
-322,-263,58,292,-190,-102,146,-87,-190,-253,-244,-253
-331,-268,63,300,-197,-102,151,-82,-180,-253,-248,-244
-322,-268,53,295,-187,-107,151,-82,-190,-253,-253,-253
-307,-268,39,287,-173,-114,151,-82,-190,-253,-258,-253
-297,-278,19,287,-158,-129,151,-78,-195,-234,-253,-239
-283,-278,4,280,-143,-136,151,-63,-190,-234,-239,-229
-278,-268,9,273,-143,-129,141,-58,-180,-224,-229,-214
-258,-248,9,253,-134,-119,141,-43,-170,-219,-214,-195
-234,-204,29,219,-131,-87,122,-34,-156,-209,-195,-170
-204,-180,24,192,-114,-78,112,-34,-146,-200,-185,-170
-180,-161,19,170,-100,-70,102,-34,-141,-195,-180,-156
-161,-141,19,151,-90,-61,97,-29,-131,-175,-165,-146
-165,-136,29,151,-97,-53,97,-24,-136,-170,-161,-136
-141,-117,24,129,-82,-46,97,-9,-122,-156,-151,-126
-136,-112,24,124,-80,-43,87,-4,-112,-151,-141,-117
-126,-117,9,122,-68,-53,87,0,-97,-136,-126,-102
-122,-126,-4,124,-58,-65,73,0,-78,-126,-117,-82
-97,-117,-19,107,-39,-68,68,0,-73,-117,-107,-78
-78,-107,-29,92,-24,-68,68,4,-73,-112,-102,-82
-63,-107,-43,85,-9,-75,63,9,-68,-97,-87,-82
-58,-117,-58,87,0,-87,58,14,-53,-82,-82,-68
-39,-92,-53,65,7,-73,53,24,-39,-73,-78,-58
-39,-78,-39,58,0,-58,53,29,-39,-73,-73,-53
-34,-73,-39,53,2,-56,53,34,-24,-63,-68,-43
-39,-58,-19,48,-9,-39,53,34,-14,-58,-48,-34
-39,-53,-14,46,-12,-34,43,34,-14,-53,-43,-19
-43,-43,0,43,-21,-21,43,34,-14,-48,-43,-14
-48,-39,9,43,-29,-14,43,34,-9,-34,-29,-4
-34,-43,-9,39,-12,-26,43,34,-19,-24,-14,4
-29,-43,-14,36,-7,-29,39,39,-14,-24,-14,9
-24,-53,-29,39,2,-41,43,48,-9,-29,-14,14
-14,-53,-39,34,12,-46,48,53,-4,-29,-9,19
-9,-53,-43,31,17,-48,39,43,9,-29,-14,14
-4,-53,-48,29,21,-51,39,43,9,-24,-9,19
0,-48,-48,24,24,-48,43,43,14,-19,0,19
9,-39,-48,14,29,-43,43,39,14,-14,0,19
4,-29,-34,12,19,-31,29,29,4,-14,-4,14
0,-19,-19,9,9,-19,19,24,4,-19,-9,14
4,-4,-9,0,7,-7,19,24,4,-24,-9,24
14,0,-14,-7,14,-7,14,24,0,-29,-14,24
-9,4,14,2,-12,9,4,24,9,-19,4,24
-9,14,24,-2,-17,19,0,24,14,-14,4,29
-4,19,24,-7,-14,21,0,24,14,-14,0,29
-4,29,34,-12,-19,31,4,19,4,-14,-4,24
0,4,4,-2,-2,4,14,19,24,-14,-4,24
0,-19,-19,9,9,-19,14,24,29,-9,-4,24
0,-48,-48,24,24,-48,14,29,34,0,-4,24
4,-58,-63,26,34,-61,14,39,34,4,-4,24
14,-39,-53,12,34,-46,14,29,19,-9,-4,24
24,-34,-58,4,41,-46,19,24,14,-19,-4,24
24,-34,-58,4,41,-46,19,19,4,-24,0,29
19,-34,-53,7,36,-43,19,19,0,-24,4,39
4,-24,-29,9,17,-26,19,24,9,-14,14,43
4,-24,-29,9,17,-26,19,29,9,-14,9,39
0,-24,-24,12,12,-24,24,29,9,-14,9,43
-9,-34,-24,21,7,-29,29,29,9,-14,9,48
-4,-34,-29,19,12,-31,24,19,14,-4,9,34
-4,-34,-29,19,12,-31,24,9,14,-14,9,34
-4,-34,-29,19,12,-31,24,19,19,-4,9,39
-4,-48,-43,26,19,-46,29,24,19,-4,19,48
4,-29,-34,12,19,-31,29,14,19,-14,14,39
9,-24,-34,7,21,-29,29,19,19,-9,14,39
14,-19,-34,2,24,-26,24,19,19,-9,9,39
19,-14,-34,-2,26,-24,19,19,19,-19,-9,29
29,-9,-39,-9,34,-24,9,9,9,-19,-14,19
29,-9,-39,-9,34,-24,14,9,4,-24,-14,19
29,0,-29,-14,29,-14,14,9,0,-24,-14,19
19,0,-19,-9,19,-9,14,4,-4,-29,-14,19
0,-19,-19,9,9,-19,14,9,4,-19,-4,29
-4,-29,-24,17,9,-26,14,9,4,-14,-4,29
-4,-29,-24,17,9,-26,14,19,4,-14,-4,29
-19,-19,0,19,-9,-9,29,19,9,-19,-9,29
-19,-24,-4,21,-7,-14,29,19,9,-19,-9,19
-19,-29,-9,24,-4,-19,29,19,9,-19,-9,19
-19,-34,-14,26,-2,-24,29,19,9,-19,-9,19
-19,-39,-19,29,0,-29,29,19,9,-19,-9,19
-19,-34,-14,26,-2,-24,19,9,4,-29,-9,9
-14,-39,-24,26,4,-31,19,9,0,-34,-14,4
-9,-39,-29,24,9,-34,24,9,-4,-39,-14,4
-4,-48,-43,26,19,-46,29,14,-9,-43,-14,4
-4,-43,-39,24,17,-41,19,9,-19,-43,-19,4
-4,-34,-29,19,12,-31,14,4,-19,-43,-14,4
-4,-29,-24,17,9,-26,14,0,-19,-43,-29,0
0,-24,-24,12,12,-24,14,-9,-29,-43,-34,0
-19,-39,-19,29,0,-29,19,4,-19,-43,-29,0
-34,-48,-14,41,-9,-31,29,9,-19,-43,-29,-4
-48,-63,-14,56,-17,-39,34,14,-9,-39,-29,-4
-58,-82,-24,70,-17,-53,43,24,-9,-39,-29,-4
-39,-68,-29,53,-4,-48,43,24,-9,-48,-34,-9
-29,-58,-29,43,0,-43,39,24,-9,-48,-29,-9
-19,-53,-34,36,7,-43,39,24,-9,-48,-29,-9
-9,-43,-34,26,12,-39,43,24,-9,-48,-29,-9
-4,-34,-29,19,12,-31,53,29,-9,-48,-39,0
0,-24,-24,12,12,-24,53,34,0,-48,-39,0
0,-24,-24,12,12,-24,68,43,4,-43,-39,0
-4,-24,-19,14,7,-21,82,48,9,-34,-39,0
-14,-29,-14,21,0,-21,97,58,19,-24,-29,14
-14,-14,0,14,-7,-7,122,68,24,-9,-19,24
-9,-14,-4,12,-2,-9,136,82,34,-4,-4,34
-9,0,9,4,-9,4,151,97,39,-4,4,34
-19,24,43,-2,-31,34,161,112,39,-4,-4,24
-19,24,43,-2,-31,34,170,126,43,-4,-4,24
-4,14,19,-4,-12,17,175,136,43,-9,-9,24
0,4,4,-2,-2,4,200,156,43,-9,-9,19
-9,9,19,0,-14,14,195,161,43,-9,-9,9
-9,9,19,0,-14,14,185,161,43,-9,-9,9
-14,19,34,-2,-24,26,165,146,43,-4,-9,9
-19,29,48,-4,-34,39,126,126,53,4,0,24
-14,48,63,-17,-39,56,97,82,58,4,14,39
-19,58,78,-19,-48,68,82,58,58,4,14,39
-14,53,68,-19,-41,61,73,43,63,9,14,43
-14,39,53,-12,-34,46,48,14,63,9,14,43
-9,68,78,-29,-43,73,19,-9,53,4,4,43
-4,78,82,-36,-43,80,4,-29,48,4,4,43
-9,87,97,-39,-53,92,-9,-39,34,0,-4,39
-9,92,102,-41,-56,97,-24,-43,34,-4,-4,39
-9,58,68,-24,-39,63,-29,-34,39,0,-4,29
-9,39,48,-14,-29,43,-29,-29,34,0,-4,29
-14,14,29,0,-21,21,-34,-24,39,0,-4,29
-9,-4,4,7,-7,0,-29,-14,43,-4,-9,24
14,9,-4,-12,9,2,-34,-24,39,-14,-14,14
19,19,0,-19,9,9,-34,-24,24,-19,-14,14
19,19,0,-19,9,9,-34,-24,19,-24,-19,9
19,29,9,-24,4,19,-34,-24,9,-24,-24,4
39,19,-19,-29,29,0,-29,-9,14,-14,-24,4
39,9,-29,-24,34,-9,-19,-4,14,-19,-29,9
39,-4,-43,-17,41,-24,-19,-4,14,-24,-29,14
43,-4,-48,-19,46,-26,-24,-4,14,-29,-39,9
43,-9,-53,-17,48,-31,-39,-9,0,-39,-34,4
43,-19,-63,-12,53,-41,-43,-9,-14,-48,-39,0
58,-34,-92,-12,75,-63,-43,-9,-14,-48,-39,0
68,-48,-117,-9,92,-82,-39,-4,-14,-48,-39,0
48,-48,-97,0,73,-73,-34,14,-14,-48,-39,0
43,-43,-87,0,65,-65,-24,19,-19,-53,-48,0
39,-39,-78,0,58,-58,-14,19,-19,-53,-48,-9
34,-43,-78,4,56,-61,4,19,-29,-53,-48,-14
43,-48,-92,2,68,-70,-4,9,-39,-73,-53,-14
34,-48,-82,7,58,-65,-4,9,-39,-73,-53,-14
29,-53,-82,12,56,-68,0,9,-34,-68,-53,-14
19,-63,-82,21,51,-73,9,19,-29,-63,-48,-9
0,-73,-73,36,36,-73,9,29,-29,-63,-48,-9
-14,-78,-63,46,24,-70,14,19,-34,-73,-58,-19
-29,-82,-53,56,12,-68,19,14,-39,-82,-68,-29
-19,-82,-63,51,21,-73,19,14,-48,-82,-73,-34
-14,-78,-63,46,24,-70,9,4,-48,-87,-82,-48
-19,-78,-58,48,19,-68,9,4,-48,-87,-82,-48
-14,-82,-68,48,26,-75,9,4,-39,-78,-73,-34
-9,-92,-82,51,36,-87,9,9,-39,-78,-73,-34
-24,-87,-63,56,19,-75,4,9,-43,-82,-82,-48
-29,-97,-68,63,19,-82,4,9,-43,-82,-87,-53
-34,-82,-48,58,7,-65,0,9,-48,-82,-92,-58
-34,-78,-43,56,4,-61,-9,9,-48,-82,-97,-58
-29,-87,-58,58,14,-73,4,14,-39,-73,-87,-48
-29,-102,-73,65,21,-87,9,19,-34,-73,-87,-48
-29,-92,-63,61,17,-78,14,24,-34,-73,-82,-48
-29,-92,-63,61,17,-78,19,29,-29,-73,-82,-48
-9,-53,-43,31,17,-48,14,24,-43,-82,-92,-58
4,-63,-68,29,36,-65,19,29,-43,-82,-82,-58
14,-102,-117,43,65,-109,39,39,-24,-73,-73,-43
19,-122,-141,51,80,-131,39,63,-19,-63,-73,-43
24,-87,-112,31,68,-100,43,107,9,-39,-53,-19
48,-34,-82,-7,65,-58,48,175,68,4,-9,19
141,9,-131,-75,136,-61,29,204,107,53,34,53
244,68,-175,-156,209,-53,4,244,165,117,92,117
302,161,-141,-231,222,9,4,317,263,219,190,209
351,258,-92,-305,222,82,9,375,361,312,287,317
414,341,-73,-378,244,134,19,429,453,405,390,409
502,405,-97,-453,300,153,19,483,551,497,492,517
595,478,-117,-536,356,180,-4,541,644,605,600,624
692,566,-126,-629,409,219,-63,556,727,707,712,736
824,692,-131,-758,478,280,-131,570,795,790,814,839
966,829,-136,-897,551,346,-200,600,873,893,932,961
1122,966,-156,-1044,639,405,-287,619,966,1024,1063,1098
1317,1127,-190,-1222,753,468,-444,551,1019,1117,1185,1224
1522,1278,-244,-1400,883,517,-610,434,1010,1161,1254,1312
1664,1385,-278,-1525,971,553,-727,380,1000,1176,1307,1376
1737,1493,-244,-1615,990,624,-824,346,1010,1224,1366,1439
1756,1615,-141,-1686,949,736,-927,263,1054,1278,1434,1512
1727,1732,4,-1729,861,868,-1044,107,1093,1351,1507,1590
1639,1864,224,-1751,707,1044,-1112,-43,1171,1439,1620,1703
1473,2015,541,-1744,466,1278,-1117,-161,1307,1595,1771,1854
1215,2108,893,-1661,161,1500,-1029,-244,1420,1712,1873,1956
893,2020,1127,-1456,-117,1573,-888,-331,1395,1659,1825,1908
605,1761,1156,-1183,-275,1459,-746,-424,1176,1424,1576,1678
361,1429,1068,-895,-353,1249,-585,-483,888,1093,1259,1371
122,1107,985,-614,-431,1046,-405,-527,610,771,922,1029
-122,766,888,-322,-505,827,-244,-561,322,439,580,683
-283,434,717,-75,-500,575,-112,-590,63,146,263,380
-356,204,561,75,-458,383,-24,-590,-97,-43,63,175
-409,68,478,170,-444,273,63,-561,-185,-146,-58,48
-444,-34,409,239,-427,187,161,-492,-214,-209,-136,-43
-468,-112,356,290,-412,122,273,-370,-200,-224,-185,-107
-497,-165,331,331,-414,82,356,-278,-165,-224,-214,-151
-541,-214,326,378,-434,56,409,-224,-146,-234,-239,-200
-556,-273,283,414,-419,4,453,-195,-141,-244,-273,-234
-541,-302,239,422,-390,-31,463,-170,-151,-258,-287,-253
-507,-317,190,412,-348,-63,444,-161,-156,-268,-287,-253
-453,-312,141,383,-297,-85,414,-156,-156,-258,-278,-244
-395,-292,102,344,-248,-95,366,-161,-151,-244,-268,-229
-370,-273,97,322,-234,-87,312,-136,-141,-219,-248,-200
-356,-248,107,302,-231,-70,263,-107,-122,-200,-219,-170
-317,-209,107,263,-212,-51,219,-82,-102,-175,-195,-151
-229,-170,58,200,-143,-56,175,-63,-92,-170,-185,-136
-151,-136,14,143,-82,-61,146,-39,-87,-170,-180,-136
-122,-136,-14,129,-53,-75,131,-24,-78,-161,-180,-136
-131,-161,-29,146,-51,-95,126,-9,-58,-141,-170,-126
-117,-170,-53,143,-31,-112,122,-4,-53,-141,-175,-122
-117,-161,-43,139,-36,-102,112,-4,-53,-136,-161,-117
-117,-156,-39,136,-39,-97,112,-4,-53,-131,-146,-107
-107,-131,-24,119,-41,-78,97,-9,-58,-122,-141,-97
-102,-126,-24,114,-39,-75,87,-9,-58,-126,-151,-97
-102,-131,-29,117,-36,-80,87,-4,-58,-136,-161,-102
-92,-156,-63,124,-14,-109,87,9,-58,-141,-161,-107
-92,-161,-68,126,-12,-114,87,24,-58,-146,-161,-107
-92,-151,-58,122,-17,-104,87,19,-63,-136,-161,-112
-92,-156,-63,124,-14,-109,87,29,-58,-136,-156,-112
-78,-156,-78,117,0,-117,87,29,-58,-131,-156,-112
-73,-156,-82,114,4,-119,78,19,-63,-131,-156,-112
-63,-126,-63,95,0,-95,73,29,-53,-122,-156,-112
-68,-122,-53,95,-7,-87,73,34,-53,-122,-156,-102
-68,-122,-53,95,-7,-87,73,34,-43,-117,-156,-97
-63,-126,-63,95,0,-95,73,39,-39,-112,-146,-92
-73,-131,-58,102,-7,-95,78,43,-39,-107,-146,-97
-63,-126,-63,95,0,-95,78,43,-39,-112,-146,-97
-63,-131,-68,97,2,-100,78,53,-29,-117,-146,-102
-68,-117,-48,92,-9,-82,78,53,-39,-126,-146,-107
-68,-126,-58,97,-4,-92,73,48,-34,-122,-151,-107
-68,-117,-48,92,-9,-82,63,48,-34,-122,-156,-117
-68,-122,-53,95,-7,-87,63,43,-34,-122,-156,-117
-68,-126,-58,97,-4,-92,73,43,-34,-122,-156,-112
-73,-117,-43,95,-14,-80,73,43,-24,-117,-146,-102
-68,-117,-48,92,-9,-82,63,48,-19,-112,-146,-107
-68,-117,-48,92,-9,-82,63,53,-19,-107,-146,-107
-73,-122,-48,97,-12,-85,68,68,-9,-97,-146,-102
-87,-122,-34,104,-26,-78,68,58,-19,-107,-141,-92
-87,-107,-19,97,-34,-63,63,58,-19,-107,-141,-92
-87,-107,-19,97,-34,-63,63,63,-24,-107,-141,-87
-92,-112,-19,102,-36,-65,68,63,-24,-107,-136,-87
-82,-102,-19,92,-31,-61,58,63,-24,-107,-146,-97
-78,-102,-24,90,-26,-63,53,63,-24,-107,-141,-92
-63,-97,-34,80,-14,-65,53,63,-19,-107,-136,-92
-39,-97,-58,68,9,-78,53,68,-19,-102,-136,-92
-53,-107,-53,80,0,-80,63,68,-19,-112,-126,-87
-58,-107,-48,82,-4,-78,63,68,-19,-107,-126,-82
-63,-102,-39,82,-12,-70,58,63,-19,-107,-126,-78
-63,-102,-39,82,-12,-70,58,63,-19,-112,-126,-73
-43,-97,-53,70,4,-75,48,58,-9,-102,-131,-73
-39,-92,-53,65,7,-73,48,63,-9,-97,-126,-68
-34,-87,-53,61,9,-70,48,63,-9,-97,-126,-73
-29,-78,-48,53,9,-63,43,58,-9,-97,-131,-82
-39,-58,-19,48,-9,-39,43,68,-19,-102,-141,-73
-39,-53,-14,46,-12,-34,48,68,-19,-102,-141,-73
-43,-58,-14,51,-14,-36,48,68,-19,-102,-136,-73
-43,-53,-9,48,-17,-31,48,63,-19,-97,-136,-78
-58,-63,-4,61,-26,-34,58,53,-19,-107,-136,-87
-63,-73,-9,68,-26,-41,58,58,-19,-107,-136,-87
-68,-82,-14,75,-26,-48,58,63,-19,-107,-136,-87
-73,-87,-14,80,-29,-51,63,68,-14,-107,-136,-87
-63,-73,-9,68,-26,-41,53,58,-9,-107,-146,-97
-73,-87,-14,80,-29,-51,58,58,-9,-107,-151,-102
-78,-82,-4,80,-36,-43,58,58,-14,-107,-156,-102
-82,-73,9,78,-46,-31,63,58,-19,-107,-156,-102
-68,-87,-19,78,-24,-53,73,68,-9,-117,-146,-112
-63,-87,-24,75,-19,-56,73,58,-19,-112,-156,-122
-68,-92,-24,80,-21,-58,73,39,-19,-117,-170,-126
-58,-97,-39,78,-9,-68,68,39,-19,-117,-175,-136
-63,-107,-43,85,-9,-75,68,43,-29,-117,-180,-131
-73,-107,-34,90,-19,-70,68,43,-29,-126,-180,-136
-87,-126,-39,107,-24,-82,78,43,-34,-126,-185,-141
-102,-136,-34,119,-34,-85,82,43,-34,-126,-190,-141
-131,-141,-9,136,-61,-75,82,34,-48,-136,-190,-136
-146,-141,4,143,-75,-68,87,29,-58,-141,-200,-141
-156,-136,19,146,-87,-58,92,24,-68,-151,-209,-151
-165,-131,34,148,-100,-48,92,24,-68,-161,-214,-165
-151,-141,9,146,-80,-65,92,0,-78,-170,-229,-170
-156,-146,9,151,-82,-68,87,-19,-92,-190,-239,-185
-170,-156,14,163,-92,-70,82,-24,-102,-200,-248,-200
-175,-165,9,170,-92,-78,82,-24,-107,-209,-258,-204
-175,-165,9,170,-92,-78,102,-14,-102,-204,-263,-209
-185,-180,4,183,-95,-87,102,-19,-117,-214,-273,-219
-204,-180,24,192,-114,-78,107,-24,-122,-224,-283,-224
-214,-180,34,197,-124,-73,107,-29,-126,-229,-292,-234
-224,-195,29,209,-126,-82,107,-29,-131,-229,-297,-244
-239,-209,29,224,-134,-90,112,-34,-141,-244,-302,-248
-248,-229,19,239,-134,-104,112,-29,-141,-253,-312,-253
-268,-244,24,256,-146,-109,122,-29,-141,-253,-312,-263
-278,-229,48,253,-163,-90,122,-34,-161,-258,-326,-283
-278,-219,58,248,-168,-80,122,-39,-170,-278,-346,-292
-278,-204,73,241,-175,-65,126,-48,-175,-283,-361,-302
-292,-200,92,246,-192,-53,126,-53,-185,-292,-370,-307
-302,-234,68,268,-185,-82,146,-43,-175,-283,-366,-317
-302,-248,53,275,-178,-97,146,-53,-175,-292,-370,-317
-312,-263,48,287,-180,-107,146,-58,-185,-302,-375,-322
-302,-278,24,290,-163,-126,141,-58,-190,-302,-370,-322
-302,-292,9,297,-156,-141,131,-53,-180,-292,-356,-312
-312,-297,14,305,-163,-141,131,-43,-170,-292,-356,-302
-302,-297,4,300,-153,-146,126,-39,-180,-292,-356,-312
-287,-297,-9,292,-139,-153,122,-34,-180,-292,-356,-312
-273,-283,-9,278,-131,-146,131,-29,-170,-278,-351,-307
-253,-278,-24,265,-114,-151,131,-14,-161,-273,-336,-297
-244,-263,-19,253,-112,-141,122,-9,-146,-258,-326,-283
-219,-239,-19,229,-100,-129,122,4,-131,-248,-312,-263
-214,-224,-9,219,-102,-117,102,4,-136,-248,-312,-263
-195,-209,-14,202,-90,-112,92,4,-126,-239,-302,-268
-180,-200,-19,190,-80,-109,82,4,-122,-234,-297,-258
-170,-190,-19,180,-75,-104,78,9,-112,-214,-283,-253
-161,-190,-29,175,-65,-109,68,19,-107,-209,-278,-234
-131,-165,-34,148,-48,-100,68,29,-92,-195,-268,-224
-122,-156,-34,139,-43,-95,58,29,-82,-190,-258,-214
-107,-156,-48,131,-29,-102,58,29,-68,-175,-244,-200
-97,-146,-48,122,-24,-97,48,29,-53,-165,-224,-175
-78,-136,-58,107,-9,-97,39,29,-53,-156,-214,-165
-63,-126,-63,95,0,-95,34,34,-58,-151,-209,-165
-53,-126,-73,90,9,-100,24,39,-58,-136,-195,-161
-53,-112,-58,82,2,-85,24,39,-43,-131,-190,-146
-39,-82,-43,61,2,-63,24,43,-29,-122,-185,-136
-43,-63,-19,53,-12,-41,29,43,-29,-122,-180,-131
-43,-53,-9,48,-17,-31,34,43,-14,-112,-175,-122
-43,-53,-9,48,-17,-31,34,43,-14,-107,-165,-107
-39,-53,-14,46,-12,-34,24,43,-14,-102,-161,-97
-39,-48,-9,43,-14,-29,24,43,-14,-97,-161,-97
-39,-48,-9,43,-14,-29,24,43,-9,-82,-146,-92
-43,-63,-19,53,-12,-41,14,29,-9,-73,-141,-92
-39,-63,-24,51,-7,-43,0,29,-4,-73,-141,-87
-34,-73,-39,53,2,-56,-4,34,0,-78,-141,-82
-24,-73,-48,48,12,-61,-9,34,4,-78,-136,-78
-14,-73,-58,43,21,-65,4,34,9,-68,-131,-73
-4,-63,-58,34,26,-61,9,34,9,-63,-126,-68
4,-48,-53,21,29,-51,19,34,14,-58,-117,-68
19,-29,-48,4,34,-39,24,29,14,-53,-117,-68
19,-14,-34,-2,26,-24,14,29,14,-58,-126,-68
19,-9,-29,-4,24,-19,0,24,14,-58,-126,-73
29,0,-29,-14,29,-14,-4,24,14,-58,-122,-68
43,0,-43,-21,43,-21,-14,24,9,-58,-122,-73
19,-14,-34,-2,26,-24,-14,14,14,-58,-102,-73
19,-14,-34,-2,26,-24,-19,14,24,-53,-102,-68
24,-19,-43,-2,34,-31,-19,14,29,-53,-107,-68
24,-19,-43,-2,34,-31,-14,9,24,-53,-112,-73
14,-29,-43,7,29,-36,-4,14,29,-58,-112,-73
0,-39,-39,19,19,-39,-4,14,29,-58,-112,-73
-14,-53,-39,34,12,-46,-4,14,29,-53,-112,-73
-24,-48,-24,36,0,-36,-4,19,24,-53,-112,-73
-19,-29,-9,24,-4,-19,-4,29,29,-43,-102,-63
-4,-24,-19,14,7,-21,0,24,34,-48,-102,-63
0,-24,-24,12,12,-24,0,19,34,-48,-97,-58
0,-24,-24,12,12,-24,0,19,39,-43,-92,-48
-9,-19,-9,14,0,-14,-14,19,39,-43,-102,-48
-4,-14,-9,9,2,-12,-19,19,39,-43,-107,-58
-4,-9,-4,7,0,-7,-19,14,39,-43,-107,-58
-9,-14,-4,12,-2,-9,-19,9,39,-43,-107,-58
-4,-24,-19,14,7,-21,-14,9,34,-34,-107,-73
-4,-24,-19,14,7,-21,-14,0,34,-43,-107,-73
-4,-24,-19,14,7,-21,-14,9,39,-34,-107,-68
-4,-39,-34,21,14,-36,-9,14,39,-34,-97,-58
-9,-14,-4,12,-2,-9,-9,9,29,-39,-107,-68
-9,-14,-4,12,-2,-9,-9,9,29,-39,-102,-68
-9,-14,-4,12,-2,-9,-14,4,29,-43,-102,-68
-9,-14,-4,12,-2,-9,-19,0,29,-58,-117,-78
-9,-39,-29,24,9,-34,-9,9,43,-39,-102,-48
-9,-48,-39,29,14,-43,-14,9,43,-34,-92,-48
-19,-29,-9,24,-4,-19,-9,0,29,-39,-97,-58
-19,-14,4,17,-12,-4,-19,-9,19,-43,-102,-63
-19,-9,9,14,-14,0,-19,-9,19,-48,-107,-68
-19,-4,14,12,-17,4,-19,-9,19,-53,-112,-73
-19,0,19,9,-19,9,-19,-9,19,-58,-117,-78
-14,-19,-4,17,-4,-12,-14,-9,29,-48,-107,-68
-14,-39,-24,26,4,-31,-9,-9,29,-53,-112,-73
-14,-53,-39,34,12,-46,0,-9,29,-58,-112,-73
-14,-78,-63,46,24,-70,9,-4,29,-63,-112,-73
-24,-73,-48,48,12,-61,4,-4,19,-63,-122,-73
-24,-63,-39,43,7,-51,-4,-4,19,-63,-112,-73
-24,-58,-34,41,4,-46,-9,-4,19,-63,-122,-78
-19,-53,-34,36,7,-43,-14,-9,9,-63,-122,-78
-24,-24,0,24,-12,-12,-24,-19,0,-68,-131,-92
-34,-9,24,21,-29,7,-19,-19,0,-73,-136,-102
-43,0,43,21,-43,21,-19,-19,9,-73,-141,-107
-48,4,53,21,-51,29,-14,-14,9,-78,-146,-112
-29,-29,0,29,-14,-14,-9,-9,9,-73,-131,-102
-19,-48,-29,34,4,-39,-9,-4,9,-68,-126,-97
-9,-73,-63,41,26,-68,-4,0,9,-63,-126,-92
0,-92,-92,46,46,-92,4,4,9,-58,-126,-87
-14,-87,-73,51,29,-80,19,19,14,-53,-122,-82
-19,-73,-53,46,17,-63,24,24,29,-48,-117,-78
-29,-68,-39,48,4,-53,43,34,39,-39,-112,-73
-43,-63,-19,53,-12,-41,63,39,48,-24,-107,-68
-43,-53,-9,48,-17,-31,73,39,58,-29,-112,-73
-43,-34,9,39,-26,-12,92,48,63,-19,-107,-63
-39,-29,9,34,-24,-9,102,63,73,-19,-97,-53
-39,-9,29,24,-34,9,112,78,78,-24,-92,-53
-34,0,34,17,-34,17,141,102,73,-24,-92,-63
-29,-4,24,17,-26,9,151,117,73,-24,-92,-63
-9,-19,-9,14,0,-14,156,126,68,-29,-97,-63
0,-34,-34,17,17,-34,180,146,63,-29,-97,-68
4,-34,-39,14,21,-36,180,151,63,-39,-102,-68
9,-29,-39,9,24,-34,175,151,63,-39,-107,-68
9,-14,-24,2,17,-19,161,136,63,-34,-112,-68
9,0,-9,-4,9,-4,126,117,73,-24,-107,-53
-9,34,43,-12,-26,39,92,82,82,-4,-82,-48
-29,48,78,-9,-53,63,73,58,87,-4,-82,-48
-39,48,87,-4,-63,68,58,43,97,0,-82,-43
-53,39,92,7,-73,65,29,14,102,0,-82,-43
-34,48,82,-7,-58,65,-9,-19,97,-14,-92,-48
-24,48,73,-12,-48,61,-24,-39,87,-14,-92,-53
-24,48,73,-12,-48,61,-39,-48,68,-19,-102,-63
-19,43,63,-12,-41,53,-53,-53,63,-24,-102,-68
-24,34,58,-4,-41,46,-73,-48,53,-39,-112,-78
-19,29,48,-4,-34,39,-78,-48,43,-39,-112,-78
-19,19,39,0,-29,29,-87,-48,43,-39,-112,-78
-9,14,24,-2,-17,19,-87,-43,43,-43,-117,-82
14,29,14,-21,0,21,-87,-34,43,-34,-117,-78
19,29,9,-24,4,19,-82,-34,34,-39,-112,-73
19,19,0,-19,9,9,-78,-34,34,-43,-112,-73
19,19,0,-19,9,9,-73,-34,29,-43,-112,-73
19,19,0,-19,9,9,-78,-29,39,-34,-102,-78
19,9,-9,-14,14,0,-68,-24,34,-39,-107,-78
19,-4,-24,-7,21,-14,-68,-24,29,-43,-107,-78
24,-4,-29,-9,26,-17,-73,-24,24,-48,-117,-87
34,-19,-53,-7,43,-36,-68,-34,9,-68,-126,-102
34,-29,-63,-2,48,-46,-73,-39,-4,-78,-136,-107
48,-43,-92,-2,70,-68,-73,-43,-4,-78,-141,-107
58,-58,-117,0,87,-87,-68,-43,-4,-78,-146,-107
53,-68,-122,7,87,-95,-78,-39,-14,-87,-151,-122
53,-63,-117,4,85,-90,-73,-39,-19,-92,-165,-126
53,-58,-112,2,82,-85,-68,-43,-19,-92,-170,-141
53,-63,-117,4,85,-90,-53,-48,-29,-92,-175,-151
43,-58,-102,7,73,-80,-43,-39,-19,-92,-175,-136
24,-58,-82,17,53,-70,-43,-39,-19,-92,-170,-131
9,-63,-73,26,41,-68,-39,-39,-14,-87,-165,-126
-9,-73,-63,41,26,-68,-29,-29,-9,-82,-156,-117
-34,-92,-58,63,12,-75,-29,-29,-19,-82,-156,-107
-53,-97,-43,75,-4,-70,-24,-39,-24,-92,-165,-117
-73,-102,-29,87,-21,-65,-19,-43,-29,-102,-175,-126
-68,-102,-34,85,-17,-68,-19,-43,-39,-102,-180,-131
-48,-78,-29,63,-9,-53,-29,-34,-39,-107,-170,-136
-48,-78,-29,63,-9,-53,-29,-34,-39,-107,-170,-136
-39,-82,-43,61,2,-63,-29,-34,-29,-97,-161,-122
-29,-92,-63,61,17,-78,-29,-29,-29,-97,-161,-122
-39,-97,-58,68,9,-78,-19,-29,-24,-97,-165,-131
-39,-107,-68,73,14,-87,-14,-29,-24,-92,-165,-131
-39,-92,-53,65,7,-73,-14,-29,-29,-87,-165,-131
-34,-87,-53,61,9,-70,-19,-29,-29,-82,-165,-126
-34,-97,-63,65,14,-80,-29,-29,-14,-82,-165,-136
-39,-112,-73,75,17,-92,-29,-29,-14,-82,-165,-136
-43,-102,-58,73,7,-80,-29,-29,-19,-82,-161,-136
-48,-102,-53,75,2,-78,-29,-29,-19,-82,-161,-136
-48,-53,-4,51,-21,-29,-24,-43,-24,-92,-170,-136
-34,-34,0,34,-17,-17,-19,-39,-34,-102,-170,-126
-24,-34,-9,29,-7,-21,-19,-29,-24,-92,-170,-122
-19,-34,-14,26,-2,-24,-19,-4,-19,-92,-170,-122
24,-48,-73,12,48,-61,-14,29,-9,-68,-151,-107
58,-73,-131,7,95,-102,9,107,48,-14,-107,-68
92,-58,-151,-17,122,-104,29,175,126,53,-43,-14
146,9,-136,-78,141,-63,24,234,204,126,24,48
195,82,-112,-139,153,-14,14,297,292,209,122,141
273,161,-112,-217,192,24,0,366,380,312,229,248
356,253,-102,-305,229,75,-9,400,463,385,312,331
463,356,-107,-409,285,124,-39,434,522,458,375,390
566,478,-87,-522,326,195,-82,453,605,556,473,478
663,585,-78,-624,370,253,-122,478,688,668,585,590
756,663,-92,-710,424,285,-170,512,775,771,697,702
868,761,-107,-814,488,326,-219,551,863,863,814,814
1024,907,-117,-966,570,395,-307,580,946,976,936,951
1229,1078,-151,-1154,690,463,-453,531,1010,1068,1058,1078
1434,1210,-224,-1322,829,492,-629,414,1010,1122,1137,1176
1605,1337,-268,-1471,936,534,-775,322,990,1146,1190,1249
1717,1454,-263,-1586,990,595,-873,287,980,1176,1239,1302
1766,1595,-170,-1681,968,712,-966,234,1015,1239,1317,1376
1737,1742,4,-1739,866,873,-1073,107,1063,1312,1400,1464
1649,1854,204,-1751,722,1029,-1171,-53,1132,1400,1503,1566
1464,1986,522,-1725,470,1254,-1215,-180,1259,1537,1634,1698
1215,2108,893,-1661,161,1500,-1146,-273,1390,1654,1756,1820
922,2127,1205,-1525,-141,1666,-995,-361,1424,1668,1756,1830
644,1927,1283,-1285,-319,1605,-844,-444,1263,1493,1576,1649
429,1556,1127,-993,-348,1342,-692,-522,976,1180,1259,1342
239,1166,927,-702,-344,1046,-522,-566,688,849,922,1010
-24,805,829,-390,-427,817,-331,-580,419,546,600,683
-244,483,727,-119,-485,605,-180,-610,141,253,283,370
-336,263,600,36,-468,431,-92,-619,-48,24,53,136
-380,117,497,131,-439,307,-14,-600,-146,-97,-87,0
-434,-24,409,229,-422,192,73,-531,-195,-190,-185,-102
-478,-151,326,314,-402,87,175,-439,-200,-224,-244,-185
-497,-204,292,351,-395,43,278,-326,-165,-224,-263,-219
-541,-214,326,378,-434,56,361,-273,-146,-224,-287,-268
-566,-244,322,405,-444,39,414,-234,-151,-234,-322,-302
-551,-283,268,417,-409,-7,444,-209,-141,-229,-317,-312
-517,-287,229,402,-373,-29,424,-200,-136,-219,-326,-322
-473,-273,200,373,-336,-36,375,-204,-156,-239,-346,-341
-444,-283,161,363,-302,-61,336,-180,-141,-224,-326,-317
-400,-302,97,351,-248,-102,292,-146,-112,-190,-287,-278
-336,-268,68,302,-202,-100,244,-126,-112,-180,-278,-258
-297,-209,87,253,-192,-61,209,-102,-92,-165,-244,-239
-258,-180,78,219,-168,-51,165,-82,-73,-131,-224,-214
-219,-165,53,192,-136,-56,126,-68,-68,-122,-219,-214
-180,-165,14,173,-97,-75,92,-73,-68,-122,-229,-224
-170,-180,-9,175,-80,-95,78,-48,-68,-122,-229,-224
-161,-190,-29,175,-65,-109,63,-34,-68,-117,-234,-219
-156,-180,-24,168,-65,-102,53,-34,-63,-117,-219,-214
-151,-175,-24,163,-63,-100,53,-34,-58,-117,-204,-204
-136,-151,-14,143,-61,-82,39,-39,-58,-112,-200,-195
-112,-122,-9,117,-51,-65,29,-43,-58,-112,-209,-195
-112,-122,-9,117,-51,-65,29,-43,-58,-117,-219,-200
-102,-141,-39,122,-31,-90,29,-34,-58,-117,-219,-204
-102,-141,-39,122,-31,-90,29,-24,-58,-117,-219,-204
-112,-151,-39,131,-36,-95,29,-29,-53,-107,-214,-195
-112,-156,-43,134,-34,-100,29,-19,-48,-107,-204,-190
-97,-156,-58,126,-19,-107,29,-19,-48,-102,-200,-185
-92,-156,-63,124,-14,-109,19,-29,-53,-102,-195,-180
-107,-126,-19,117,-43,-73,14,-34,-63,-112,-195,-185
-117,-112,4,114,-61,-53,14,-34,-63,-112,-195,-180
-122,-102,19,112,-70,-41,14,-39,-53,-107,-195,-180
-122,-97,24,109,-73,-36,14,-39,-48,-102,-185,-180
-102,-122,-19,112,-41,-70,24,-29,-43,-87,-165,-175
-82,-126,-43,104,-19,-85,29,-24,-39,-82,-165,-165
-73,-141,-68,107,-2,-104,34,-9,-24,-78,-165,-161
-68,-136,-68,102,0,-102,39,-4,-29,-78,-165,-156
-78,-131,-53,104,-12,-92,24,-19,-43,-82,-170,-156
-78,-117,-39,97,-19,-78,14,-19,-43,-82,-175,-165
-78,-117,-39,97,-19,-78,14,-24,-43,-82,-175,-165
-78,-117,-39,97,-19,-78,24,-24,-43,-82,-175,-161
-82,-107,-24,95,-29,-65,14,-34,-53,-92,-185,-165
-78,-97,-19,87,-29,-58,4,-39,-48,-92,-185,-175
-78,-87,-9,82,-34,-48,4,-43,-48,-92,-185,-180
-82,-82,0,82,-41,-41,9,-39,-39,-87,-185,-180
-68,-73,-4,70,-31,-39,4,-48,-48,-97,-185,-180
-58,-58,0,58,-29,-29,-4,-48,-48,-97,-190,-180
-48,-58,-9,53,-19,-34,-9,-43,-53,-97,-195,-175
-43,-63,-19,53,-12,-41,-9,-43,-53,-97,-195,-175
-53,-78,-24,65,-14,-51,-4,-43,-53,-97,-185,-185
-68,-82,-14,75,-26,-48,-4,-43,-53,-97,-180,-180
-73,-82,-9,78,-31,-46,0,-43,-48,-97,-175,-180
-68,-87,-19,78,-24,-53,4,-39,-48,-92,-175,-180
-68,-78,-9,73,-29,-43,4,-39,-39,-82,-185,-180
-68,-78,-9,73,-29,-43,4,-39,-39,-78,-185,-180
-68,-73,-4,70,-31,-39,0,-43,-39,-78,-185,-180
-63,-73,-9,68,-26,-41,0,-43,-39,-82,-185,-180
-63,-73,-9,68,-26,-41,4,-29,-24,-78,-175,-185
-68,-73,-4,70,-31,-39,9,-24,-19,-68,-165,-175
-73,-73,0,73,-36,-36,14,-24,-14,-63,-161,-175
-78,-68,9,73,-43,-29,14,-29,-9,-58,-161,-180
-63,-63,0,63,-31,-31,4,-39,-24,-73,-165,-190
-58,-63,-4,61,-26,-34,9,-39,-29,-73,-170,-190
-58,-73,-14,65,-21,-43,9,-39,-34,-73,-170,-190
-53,-73,-19,63,-17,-46,9,-43,-39,-68,-175,-195
-68,-73,-4,70,-31,-39,0,-48,-48,-73,-175,-190
-73,-73,0,73,-36,-36,0,-48,-48,-78,-175,-185
-78,-73,4,75,-41,-34,0,-48,-48,-82,-175,-180
-82,-68,14,75,-48,-26,4,-48,-43,-87,-175,-175
-78,-63,14,70,-46,-24,14,-48,-29,-78,-170,-161
-82,-78,4,80,-43,-36,19,-48,-29,-78,-170,-161
-82,-73,9,78,-46,-31,19,-48,-34,-78,-170,-156
-82,-63,19,73,-51,-21,24,-48,-39,-78,-165,-151
-87,-73,14,80,-51,-29,34,-34,-29,-87,-156,-151
-92,-78,14,85,-53,-31,34,-39,-39,-82,-165,-161
-107,-87,19,97,-63,-34,34,-53,-39,-87,-180,-165
-107,-97,9,102,-58,-43,29,-48,-39,-87,-185,-175
-117,-97,19,107,-68,-39,19,-48,-43,-92,-200,-185
-122,-97,24,109,-73,-36,19,-53,-48,-107,-200,-195
-131,-117,14,124,-73,-51,29,-58,-58,-112,-204,-204
-141,-126,14,134,-78,-56,34,-63,-63,-117,-209,-209
-151,-122,29,136,-90,-46,24,-73,-68,-117,-219,-224
-156,-112,43,134,-100,-34,29,-78,-78,-122,-229,-229
-156,-97,58,126,-107,-19,34,-82,-87,-131,-239,-239
-156,-82,73,119,-114,-4,34,-82,-87,-141,-244,-253
-156,-112,43,134,-100,-34,48,-82,-92,-131,-253,-253
-165,-136,29,151,-97,-53,48,-97,-102,-151,-258,-263
-185,-165,19,175,-102,-73,48,-97,-107,-161,-263,-273
-195,-195,0,195,-97,-97,53,-92,-107,-170,-268,-273
-214,-195,19,204,-117,-87,53,-102,-117,-185,-283,-287
-224,-209,14,217,-119,-97,53,-107,-136,-195,-292,-297
-244,-209,34,226,-139,-87,58,-112,-146,-204,-302,-302
-253,-209,43,231,-148,-82,58,-117,-156,-209,-312,-312
-273,-200,73,236,-173,-63,63,-117,-161,-214,-307,-322
-287,-209,78,248,-183,-65,73,-122,-170,-224,-312,-326
-297,-224,73,261,-185,-75,78,-117,-170,-229,-322,-331
-317,-234,82,275,-200,-75,92,-117,-170,-224,-322,-341
-302,-229,73,265,-187,-78,92,-122,-190,-234,-341,-356
-297,-229,68,263,-183,-80,92,-126,-200,-248,-356,-370
-292,-224,68,258,-180,-78,97,-136,-204,-248,-366,-385
-302,-229,73,265,-187,-78,97,-141,-214,-253,-370,-395
-326,-248,78,287,-202,-85,107,-131,-200,-248,-366,-390
-341,-258,82,300,-212,-87,107,-131,-195,-253,-370,-385
-366,-268,97,317,-231,-85,107,-126,-200,-258,-375,-385
-370,-278,92,324,-231,-92,102,-117,-200,-253,-370,-380
-351,-268,82,309,-217,-92,97,-126,-214,-258,-375,-380
-351,-268,82,309,-217,-92,92,-122,-209,-263,-375,-370
-331,-263,68,297,-200,-97,82,-122,-224,-268,-375,-380
-307,-258,48,283,-178,-104,73,-122,-229,-273,-375,-380
-292,-253,39,273,-165,-107,82,-126,-224,-253,-361,-356
-273,-248,24,261,-148,-112,82,-112,-219,-253,-346,-346
-263,-234,29,248,-146,-102,73,-107,-209,-244,-336,-331
-239,-209,29,224,-134,-90,73,-92,-200,-239,-322,-312
-244,-200,43,222,-143,-78,73,-92,-190,-229,-312,-302
-224,-200,24,212,-124,-87,63,-92,-175,-219,-302,-307
-209,-204,4,207,-107,-100,53,-92,-165,-214,-297,-297
-200,-209,-9,204,-95,-109,48,-87,-151,-195,-283,-292
-204,-180,24,192,-114,-78,34,-82,-156,-180,-278,-283
-180,-146,34,163,-107,-56,29,-68,-141,-165,-268,-273
-175,-126,48,151,-112,-39,14,-63,-131,-161,-258,-263
-165,-117,48,141,-107,-34,9,-58,-117,-146,-244,-248
-161,-122,39,141,-100,-41,19,-39,-87,-131,-214,-214
-136,-117,19,126,-78,-48,19,-39,-82,-117,-204,-204
-117,-112,4,114,-61,-53,24,-34,-82,-107,-200,-204
-102,-117,-14,109,-43,-65,24,-29,-78,-87,-185,-200
-87,-126,-39,107,-24,-82,19,-34,-82,-92,-180,-195
-68,-102,-34,85,-17,-68,14,-34,-68,-82,-175,-185
-68,-87,-19,78,-24,-53,14,-39,-68,-82,-170,-180
-63,-82,-19,73,-21,-51,14,-43,-53,-73,-165,-170
-58,-63,-4,61,-26,-34,0,-43,-53,-68,-156,-175
-58,-63,-4,61,-26,-34,-14,-43,-53,-63,-151,-165
-63,-58,4,61,-34,-26,-19,-43,-53,-58,-151,-165
-68,-58,9,63,-39,-24,-24,-43,-48,-43,-136,-161
-48,-43,4,46,-26,-19,-24,-58,-48,-34,-122,-151
-39,-34,4,36,-21,-14,-29,-58,-43,-34,-122,-146
-29,-34,-4,31,-12,-19,-24,-53,-39,-39,-122,-141
-14,-24,-9,19,-2,-17,-19,-53,-34,-39,-117,-136
-29,-34,-4,31,-12,-19,-34,-58,-39,-34,-117,-141
-34,-34,0,34,-17,-17,-39,-63,-39,-34,-117,-136
-39,-29,9,34,-24,-9,-39,-68,-34,-34,-112,-136
-39,-19,19,29,-29,0,-43,-78,-34,-34,-117,-136
-34,-14,19,24,-26,2,-43,-68,-24,-29,-107,-122
-29,-9,19,19,-24,4,-48,-73,-24,-29,-107,-122
-14,0,14,7,-14,7,-43,-73,-24,-29,-102,-112
4,0,-4,-2,4,-2,-43,-73,-29,-29,-102,-112
0,9,9,-4,-4,9,-53,-73,-19,-19,-82,-112
0,14,14,-7,-7,14,-58,-73,-14,-14,-82,-107
4,14,9,-9,-2,12,-58,-73,-14,-14,-87,-107
4,19,14,-12,-4,17,-53,-78,-24,-14,-92,-112
-4,9,14,-2,-9,12,-43,-92,-19,-19,-92,-112
-9,0,9,4,-9,4,-43,-92,-19,-19,-92,-112
-14,-14,0,14,-7,-7,-43,-92,-19,-14,-92,-112
-14,-9,4,12,-9,-2,-43,-87,-24,-14,-92,-112
-4,-9,-4,7,0,-7,-53,-87,-24,-14,-92,-112
4,-4,-9,0,7,-7,-48,-92,-24,-19,-92,-112
4,-4,-9,0,7,-7,-48,-97,-29,-19,-87,-107
0,-4,-4,2,2,-4,-48,-97,-29,-14,-82,-97
-9,0,9,4,-9,4,-53,-97,-29,-14,-82,-97
-4,4,9,0,-7,7,-58,-97,-29,-14,-87,-107
-4,9,14,-2,-9,12,-58,-102,-29,-14,-87,-107
-9,4,14,2,-12,9,-58,-107,-29,-14,-87,-107
-19,-9,9,14,-14,0,-43,-112,-43,-24,-97,-112
-24,-14,9,19,-17,-2,-43,-117,-43,-34,-97,-112
-29,-19,9,24,-19,-4,-43,-102,-39,-24,-97,-107
-34,-39,-4,36,-14,-21,-39,-92,-39,-24,-87,-97
-24,-34,-9,29,-7,-21,-43,-102,-48,-24,-87,-102
-19,-34,-14,26,-2,-24,-48,-97,-48,-19,-82,-107
-14,-34,-19,24,2,-26,-58,-97,-48,-19,-82,-112
-9,-34,-24,21,7,-29,-68,-97,-48,-29,-97,-126
0,-24,-24,12,12,-24,-58,-102,-63,-34,-107,-146
0,-9,-9,4,4,-9,-53,-107,-63,-43,-112,-146
0,14,14,-7,-7,14,-53,-112,-63,-48,-117,-146
-9,29,39,-9,-24,34,-53,-122,-63,-58,-122,-146
-58,-58,0,58,-29,-29,-14,-78,-34,-29,-82,-107
-63,-58,4,61,-34,-26,-24,-78,-43,-24,-82,-107
-34,-48,-14,41,-9,-31,-34,-97,-53,-34,-92,-117
0,-58,-58,29,29,-58,-48,-117,-58,-48,-117,-136
0,-53,-53,26,26,-53,-39,-117,-58,-39,-107,-136
0,-48,-48,24,24,-48,-39,-117,-58,-39,-107,-136
0,-43,-43,21,21,-43,-39,-117,-58,-39,-107,-136
0,-39,-39,19,19,-39,-39,-117,-58,-39,-107,-136
-9,-29,-19,19,4,-24,-39,-107,-58,-29,-97,-126
-14,-39,-24,26,4,-31,-39,-107,-58,-34,-102,-131
-19,-43,-24,31,2,-34,-34,-107,-58,-39,-102,-131
-24,-58,-34,41,4,-46,-29,-102,-58,-43,-102,-131
-43,-58,-14,51,-14,-36,-19,-102,-63,-48,-112,-131
-43,-53,-9,48,-17,-31,-24,-102,-68,-53,-102,-131
-43,-53,-9,48,-17,-31,-24,-102,-73,-58,-112,-136
-39,-53,-14,46,-12,-34,-24,-107,-87,-63,-112,-136
-29,-34,-4,31,-12,-19,-29,-117,-97,-73,-117,-136
-34,-29,4,31,-19,-12,-29,-117,-97,-73,-117,-141
-39,-29,9,34,-24,-9,-34,-117,-87,-68,-117,-141
-39,-34,4,36,-21,-14,-34,-112,-87,-68,-117,-141
-43,-43,0,43,-21,-21,-24,-102,-82,-53,-107,-131
-48,-39,9,43,-29,-14,-29,-102,-78,-48,-97,-126
-53,-39,14,46,-34,-12,-29,-102,-73,-43,-92,-122
-58,-34,24,46,-41,-4,-24,-102,-68,-39,-87,-117
-63,-48,14,56,-39,-17,-14,-107,-73,-43,-102,-131
-58,-53,4,56,-31,-24,-14,-102,-68,-48,-107,-136
-58,-68,-9,63,-24,-39,0,-92,-68,-48,-112,-141
-63,-82,-19,73,-21,-51,14,-87,-68,-43,-117,-146
-58,-63,-4,61,-26,-34,34,-63,-53,-39,-107,-131
-53,-43,9,48,-31,-17,63,-48,-43,-19,-97,-122
-43,-39,4,41,-24,-17,82,-29,-29,-9,-82,-112
-39,-19,19,29,-29,0,102,-9,-19,-4,-73,-112
-39,9,48,14,-43,29,112,0,-9,0,-58,-97
-39,14,53,12,-46,34,122,9,-4,4,-53,-92
-24,9,34,7,-29,21,126,14,-4,4,-53,-87
-19,4,24,7,-21,14,151,29,-4,9,-48,-87
-4,-14,-9,9,2,-12,165,53,-19,0,-58,-92
9,-19,-29,4,19,-24,165,53,-24,-9,-68,-97
19,-14,-34,-2,26,-24,156,39,-29,-14,-78,-102
29,-9,-39,-9,34,-24,126,19,-24,-14,-78,-92
14,19,4,-17,4,12,82,-24,-19,-4,-58,-78
-9,39,48,-14,-29,43,63,-48,-19,-4,-53,-78
-24,43,68,-9,-46,56,48,-63,-14,0,-48,-73
-43,39,82,2,-63,61,19,-92,-14,0,-43,-73
-39,63,102,-12,-70,82,-9,-126,-9,9,-34,-63
-34,68,102,-17,-68,85,-24,-146,-9,14,-34,-63
-39,73,112,-17,-75,92,-39,-156,-19,14,-43,-68
-39,73,112,-17,-75,92,-53,-161,-14,14,-43,-68
-19,58,78,-19,-48,68,-73,-156,-29,0,-53,-78
-9,58,68,-24,-39,63,-78,-156,-43,-9,-63,-87
-4,53,58,-24,-31,56,-87,-156,-48,-19,-73,-97
9,53,43,-31,-17,48,-87,-151,-53,-34,-87,-112
19,39,19,-29,0,29,-102,-151,-58,-34,-92,-112
19,29,9,-24,4,19,-102,-151,-73,-39,-92,-112
14,9,-4,-12,9,2,-102,-151,-78,-43,-97,-117
9,0,-9,-4,9,-4,-102,-151,-87,-43,-102,-122
14,0,-14,-7,14,-7,-97,-146,-82,-29,-82,-107
9,-9,-19,0,14,-14,-87,-141,-82,-29,-78,-97
4,-24,-29,9,17,-26,-87,-141,-82,-29,-68,-87
4,-24,-29,9,17,-26,-92,-141,-82,-29,-68,-87
14,-14,-29,0,21,-21,-87,-156,-97,-39,-82,-102
14,-9,-24,-2,19,-17,-92,-156,-112,-48,-87,-107
29,-9,-39,-9,34,-24,-92,-156,-112,-48,-87,-107
39,-9,-48,-14,43,-29,-87,-151,-112,-48,-87,-107
43,-29,-73,-7,58,-51,-87,-141,-117,-58,-97,-126
53,-34,-87,-9,70,-61,-82,-136,-126,-73,-117,-136
63,-39,-102,-12,82,-70,-78,-136,-131,-82,-126,-156
73,-53,-126,-9,100,-90,-63,-136,-146,-92,-136,-170
58,-43,-102,-7,80,-73,-73,-146,-141,-87,-131,-156
34,-39,-73,2,53,-56,-73,-146,-136,-82,-122,-151
14,-39,-53,12,34,-46,-68,-146,-126,-73,-112,-146
-9,-43,-34,26,12,-39,-58,-136,-117,-63,-97,-136
-24,-53,-29,39,2,-41,-39,-126,-117,-63,-107,-126
-34,-58,-24,46,-4,-41,-34,-136,-122,-73,-117,-136
-43,-63,-19,53,-12,-41,-29,-141,-126,-82,-126,-146
-29,-63,-34,46,2,-48,-29,-141,-136,-82,-131,-151
-24,-53,-29,39,2,-41,-39,-151,-151,-97,-146,-170
-29,-58,-29,43,0,-43,-39,-151,-156,-107,-151,-175
-24,-68,-43,46,9,-56,-39,-151,-151,-107,-146,-165
-19,-82,-63,51,21,-73,-39,-146,-156,-117,-151,-170
-24,-102,-78,63,26,-90,-34,-136,-146,-102,-146,-170
-29,-117,-87,73,29,-102,-24,-136,-141,-92,-136,-161
-34,-107,-73,70,19,-90,-19,-136,-141,-82,-126,-151
-34,-107,-73,70,19,-90,-19,-136,-136,-73,-117,-136
-19,-102,-82,61,31,-92,-24,-141,-141,-82,-117,-146
-19,-112,-92,65,36,-102,-29,-146,-141,-82,-117,-146
-19,-97,-78,58,29,-87,-34,-151,-146,-82,-112,-146
-19,-92,-73,56,26,-82,-39,-156,-146,-82,-112,-146
-29,-151,-122,90,46,-136,-24,-131,-151,-102,-122,-156
-53,-141,-87,97,17,-114,0,-117,-151,-102,-131,-156
-14,-151,-136,82,61,-143,9,-107,-161,-112,-141,-170
19,-141,-161,61,90,-151,0,-102,-165,-122,-151,-180
43,-78,-122,17,82,-100,-4,-78,-146,-107,-131,-165
68,-43,-112,-12,90,-78,9,-9,-97,-43,-87,-107
102,-48,-151,-26,126,-100,29,48,-19,43,4,-24
136,9,-126,-73,131,-58,24,97,58,117,82,48
204,112,-92,-158,148,9,-4,141,136,200,170,131
283,200,-82,-241,183,58,-19,209,234,292,268,209
346,292,-53,-319,200,119,-39,273,307,366,331,273
434,395,-39,-414,236,178,-68,307,366,419,385,322
566,468,-97,-517,331,185,-82,366,458,517,483,429
692,527,-165,-610,429,180,-92,419,561,629,595,551
824,644,-180,-734,502,231,-170,424,600,692,678,634
946,741,-204,-844,575,268,-248,434,658,766,775,736
1093,810,-283,-951,688,263,-317,483,751,897,917,893
1307,961,-346,-1134,827,307,-444,453,814,1000,1058,1029
1561,1171,-390,-1366,976,390,-619,336,834,1063,1156,1146
1781,1366,-414,-1573,1098,475,-766,234,824,1098,1220,1220
1903,1542,-361,-1722,1132,590,-893,170,814,1117,1249,1254
1903,1644,-258,-1773,1080,692,-976,126,839,1180,1327,1337
1844,1673,-170,-1759,1007,751,-1044,39,907,1273,1429,1454
1795,1708,-87,-1751,941,810,-1122,-82,966,1361,1532,1566
1668,1839,170,-1754,749,1005,-1185,-229,1044,1439,1634,1668
1420,2049,629,-1734,395,1339,-1166,-361,1117,1507,1688,1732
1117,2069,951,-1593,82,1510,-1044,-448,1102,1483,1659,1683
829,1810,980,-1320,-75,1395,-863,-512,980,1317,1488,1522
575,1468,893,-1022,-158,1180,-683,-551,741,1054,1210,1254
346,1098,751,-722,-202,924,-492,-575,492,780,922,980
92,658,566,-375,-236,612,-292,-561,263,517,658,702
-156,385,541,-114,-348,463,-151,-610,14,234,361,400
-317,331,649,-7,-483,490,-102,-717,-195,-4,122,156
-409,253,663,78,-536,458,-43,-746,-292,-117,-9,29
-483,82,566,200,-524,324,73,-688,-312,-170,-87,-63
-497,-4,492,251,-495,244,165,-614,-317,-214,-165,-165
-478,-48,429,263,-453,190,239,-522,-292,-234,-224,-239
-492,-175,317,334,-405,70,341,-429,-263,-224,-239,-278
-536,-263,273,400,-405,4,405,-380,-248,-224,-253,-302
-541,-263,278,402,-409,7,414,-366,-278,-248,-287,-331
-546,-287,258,417,-402,-14,424,-336,-273,-258,-297,-331
-531,-322,209,427,-370,-56,405,-312,-263,-248,-278,-312
-492,-292,200,392,-346,-46,356,-307,-258,-234,-258,-287
-439,-253,185,346,-312,-34,283,-312,-258,-229,-239,-278
-375,-219,156,297,-265,-31,224,-302,-248,-219,-229,-258
-297,-161,136,229,-217,-12,190,-278,-229,-185,-195,-229
-248,-141,107,195,-178,-17,165,-248,-209,-161,-175,-195
-229,-175,53,202,-141,-61,146,-214,-204,-151,-161,-185
-200,-214,-14,207,-92,-114,131,-190,-195,-131,-141,-165
-161,-229,-68,195,-46,-148,126,-156,-175,-122,-131,-156
-165,-214,-48,190,-58,-131,112,-156,-180,-122,-146,-161
-165,-190,-24,178,-70,-107,92,-161,-180,-126,-141,-165
-165,-170,-4,168,-80,-87,82,-165,-180,-131,-136,-165
-156,-131,24,143,-90,-53,58,-175,-185,-131,-141,-165
-151,-102,48,126,-100,-26,43,-195,-190,-136,-146,-170
-151,-92,58,122,-104,-17,39,-200,-195,-146,-161,-180
-141,-102,39,122,-90,-31,34,-195,-200,-151,-165,-190
-141,-92,48,117,-95,-21,29,-190,-204,-156,-170,-195
-146,-122,24,134,-85,-48,34,-180,-195,-151,-156,-185
-151,-146,4,148,-78,-70,39,-165,-185,-146,-146,-180
-141,-165,-24,153,-58,-95,43,-161,-180,-136,-141,-175
-141,-185,-43,163,-48,-114,39,-165,-180,-131,-136,-170
-126,-141,-14,134,-56,-78,34,-175,-190,-122,-131,-161
-117,-122,-4,119,-56,-63,34,-170,-190,-122,-126,-151
-102,-107,-4,104,-48,-56,34,-170,-180,-117,-122,-146
-82,-97,-14,90,-34,-56,34,-165,-175,-112,-107,-141
-82,-117,-34,100,-24,-75,43,-161,-175,-107,-112,-146
-73,-126,-53,100,-9,-90,48,-161,-175,-112,-117,-146
-73,-146,-73,109,0,-109,53,-151,-165,-117,-122,-151
-78,-146,-68,112,-4,-107,58,-151,-175,-126,-126,-156
-82,-136,-53,109,-14,-95,43,-161,-185,-141,-141,-161
-87,-117,-29,102,-29,-73,34,-165,-190,-141,-146,-175
-92,-112,-19,102,-36,-65,34,-175,-195,-141,-146,-180
-97,-107,-9,102,-43,-58,43,-180,-200,-141,-146,-180
-102,-107,-4,104,-48,-56,53,-170,-185,-122,-126,-161
-97,-107,-9,102,-43,-58,43,-165,-175,-112,-117,-156
-97,-107,-9,102,-43,-58,43,-161,-170,-102,-107,-146
-102,-112,-9,107,-46,-61,48,-146,-156,-87,-97,-131
-112,-112,0,112,-56,-56,43,-151,-161,-102,-107,-141
-107,-97,9,102,-58,-43,34,-156,-165,-107,-112,-151
-102,-97,4,100,-53,-46,29,-156,-175,-112,-117,-156
-102,-102,0,102,-51,-51,29,-161,-180,-117,-117,-165
-102,-112,-9,107,-46,-61,34,-151,-180,-112,-126,-165
-107,-112,-4,109,-51,-58,34,-141,-180,-117,-122,-161
-102,-107,-4,104,-48,-56,39,-131,-175,-122,-117,-161
-87,-107,-19,97,-34,-63,43,-117,-175,-122,-117,-161
-87,-117,-29,102,-29,-73,34,-126,-165,-112,-112,-156
