I,II,III,aVR,aVL,aVF,V1,V2,V3,V4,V5,V6
-43,-58,-14,51,-14,-36,4,-87,-122,-107,-112,-78
-43,-58,-14,51,-14,-36,4,-87,-122,-107,-112,-78
-43,-58,-14,51,-14,-36,4,-87,-122,-107,-112,-78
-43,-63,-19,53,-12,-41,4,-87,-122,-107,-112,-82
-43,-63,-19,53,-12,-41,-4,-97,-122,-107,-112,-92
-43,-63,-19,53,-12,-41,-4,-97,-122,-107,-112,-87
-43,-58,-14,51,-14,-36,-4,-97,-122,-107,-112,-87
-43,-53,-9,48,-17,-31,-4,-97,-122,-112,-112,-87
-48,-43,4,46,-26,-19,-4,-97,-131,-112,-122,-78
-48,-48,0,48,-24,-24,-4,-97,-131,-112,-122,-78
-48,-48,0,48,-24,-24,-4,-97,-131,-112,-122,-78
-48,-48,0,48,-24,-24,-4,-97,-131,-112,-122,-82
-58,-48,9,53,-34,-19,-4,-97,-122,-112,-112,-82
-58,-48,9,53,-34,-19,-4,-97,-126,-117,-112,-82
-58,-48,9,53,-34,-19,-4,-97,-126,-117,-122,-82
-58,-48,9,53,-34,-19,0,-97,-126,-117,-122,-82
-58,-53,4,56,-31,-24,9,-97,-122,-107,-117,-82
-58,-53,4,56,-31,-24,9,-97,-122,-107,-117,-82
-58,-53,4,56,-31,-24,9,-97,-122,-107,-117,-82
-58,-53,4,56,-31,-24,9,-97,-122,-107,-117,-82
-58,-43,14,51,-36,-14,9,-97,-122,-107,-117,-82
-58,-43,14,51,-36,-14,9,-92,-122,-107,-117,-82
-58,-43,14,51,-36,-14,9,-92,-122,-107,-117,-82
-58,-43,14,51,-36,-14,14,-87,-122,-107,-117,-87
-68,-48,19,58,-43,-14,24,-78,-107,-107,-112,-87
-68,-53,14,61,-41,-19,34,-53,-102,-102,-122,-92
-68,-63,4,65,-36,-29,53,-39,-97,-102,-131,-102
-78,-73,4,75,-41,-34,78,-14,-73,-92,-131,-122
-87,-92,-4,90,-41,-48,102,29,-43,-78,-131,-126
-87,-97,-9,92,-39,-53,131,68,-4,-48,-131,-126
-87,-97,-9,92,-39,-53,161,136,58,-4,-107,-126
-82,-107,-24,95,-29,-65,185,190,112,39,-82,-117
-53,-107,-53,80,0,-80,204,253,161,82,-39,-87
-9,-92,-82,51,36,-87,204,302,229,151,29,-43
53,-63,-117,4,85,-90,200,361,278,224,112,24
146,-24,-170,-61,158,-97,175,405,351,326,244,122
229,48,-180,-139,204,-65,146,439,429,439,385,248
317,131,-185,-224,251,-26,87,434,492,556,541,390
424,219,-204,-322,314,7,34,419,551,683,702,551
531,297,-234,-414,383,31,-48,366,575,780,868,707
619,380,-239,-500,429,70,-131,297,566,844,1000,849
692,439,-253,-566,473,92,-190,244,546,897,1107,966
756,483,-273,-619,514,104,-229,209,541,946,1200,1058
805,492,-312,-649,558,90,-248,190,507,936,1234,1107
790,468,-322,-629,556,73,-239,156,448,858,1166,1063
717,400,-317,-558,517,41,-180,141,375,697,956,917
600,302,-297,-451,448,2,-92,136,273,458,639,663
448,190,-258,-319,353,-34,4,122,131,170,258,361
239,102,-136,-170,187,-17,102,78,-9,-78,-73,92
29,63,34,-46,-2,48,180,39,-78,-214,-268,-73
-156,53,209,51,-183,131,258,9,-102,-263,-361,-165
-273,29,302,122,-287,165,307,-9,-112,-283,-414,-239
-326,9,336,158,-331,173,317,-24,-97,-278,-409,-273
-336,9,346,163,-341,178,331,-19,-87,-258,-390,-273
-326,14,341,156,-334,178,336,-34,-107,-278,-385,-263
-322,-4,317,163,-319,156,356,-43,-136,-297,-395,-278
-322,-29,292,175,-307,131,390,-14,-117,-287,-395,-287
-312,-48,263,180,-287,107,419,9,-97,-278,-380,-283
-302,-68,234,185,-268,82,424,-53,-141,-297,-370,-283
-297,-87,209,192,-253,61,370,-161,-234,-331,-370,-278
-263,-68,195,165,-229,63,263,-287,-331,-346,-361,-248
-224,-58,165,141,-195,53,112,-380,-395,-356,-331,-229
-195,-48,146,122,-170,48,4,-414,-414,-351,-307,-200
-156,-39,117,97,-136,39,-58,-385,-380,-322,-268,-165
-131,-48,82,90,-107,17,-68,-331,-341,-287,-239,-151
-117,-39,78,78,-97,19,-43,-273,-297,-253,-219,-136
-107,-43,63,75,-85,9,-24,-224,-263,-219,-204,-126
-92,-48,43,70,-68,-2,-4,-170,-219,-180,-180,-112
-73,-53,19,63,-46,-17,9,-126,-180,-146,-151,-92
-73,-53,19,63,-46,-17,39,-97,-141,-122,-126,-82
-58,-58,0,58,-29,-29,53,-63,-102,-107,-107,-78
-53,-73,-19,63,-17,-46,53,-53,-97,-97,-97,-82
-39,-73,-34,56,-2,-53,43,-58,-107,-107,-102,-73
-34,-73,-39,53,2,-56,43,-53,-107,-102,-102,-73
-34,-73,-39,53,2,-56,43,-53,-102,-92,-107,-73
-34,-73,-39,53,2,-56,39,-48,-102,-87,-102,-68
-19,-63,-43,41,12,-53,29,-29,-87,-78,-92,-63
-19,-63,-43,41,12,-53,29,-29,-78,-78,-87,-63
-19,-68,-48,43,14,-58,29,-29,-78,-82,-87,-63
-19,-68,-48,43,14,-58,29,-29,-78,-82,-87,-58
-24,-63,-39,43,7,-51,34,-29,-78,-73,-87,-58
-24,-63,-39,43,7,-51,34,-34,-78,-73,-87,-58
-24,-63,-39,43,7,-51,29,-34,-82,-73,-82,-53
-24,-63,-39,43,7,-51,29,-29,-82,-68,-82,-53
-14,-53,-39,34,12,-46,29,-24,-73,-73,-73,-39
-14,-53,-39,34,12,-46,29,-24,-73,-73,-73,-39
-14,-58,-43,36,14,-51,29,-24,-68,-68,-73,-39
-9,-58,-48,34,19,-53,29,-29,-68,-68,-73,-34
-9,-48,-39,29,14,-43,29,-29,-78,-58,-68,-34
-4,-43,-39,24,17,-41,24,-29,-78,-58,-68,-34
-4,-39,-34,21,14,-36,24,-29,-73,-53,-68,-34
-4,-39,-34,21,14,-36,19,-24,-73,-53,-68,-34
-4,-39,-34,21,14,-36,19,-24,-73,-63,-58,-34
-4,-39,-34,21,14,-36,19,-24,-68,-63,-58,-29
0,-39,-39,19,19,-39,19,-24,-68,-63,-53,-29
0,-39,-39,19,19,-39,19,-24,-68,-63,-53,-29
0,-39,-39,19,19,-39,19,-24,-68,-58,-58,-29
4,-39,-43,17,24,-41,19,-24,-68,-58,-53,-29
4,-39,-43,17,24,-41,19,-24,-68,-58,-53,-24
0,-39,-39,19,19,-39,19,-24,-73,-53,-53,-24
9,-29,-39,9,24,-34,9,-34,-73,-53,-53,-34
9,-29,-39,9,24,-34,9,-34,-73,-53,-53,-34
9,-24,-34,7,21,-29,9,-34,-73,-53,-53,-29
14,-19,-34,2,24,-26,9,-34,-73,-53,-48,-29
4,-19,-24,7,14,-21,0,-43,-82,-53,-48,-29
9,-19,-29,4,19,-24,0,-43,-78,-53,-43,-29
9,-19,-29,4,19,-24,-4,-43,-73,-48,-43,-24
9,-19,-29,4,19,-24,-4,-43,-73,-48,-43,-24
0,-19,-19,9,9,-19,-4,-43,-73,-43,-48,-24
4,-19,-24,7,14,-21,-9,-43,-73,-43,-43,-24
4,-14,-19,4,12,-17,-9,-39,-73,-39,-43,-19
4,-14,-19,4,12,-17,-9,-39,-73,-39,-43,-19
4,-14,-19,4,12,-17,-9,-39,-63,-39,-39,-14
4,-14,-19,4,12,-17,-9,-39,-68,-39,-39,-9
4,-9,-14,2,9,-12,-9,-39,-68,-34,-29,-9
4,-9,-14,2,9,-12,-14,-39,-68,-34,-29,-9
4,-9,-14,2,9,-12,-4,-39,-68,-24,-14,0
9,-9,-19,0,14,-14,-4,-39,-63,-24,-14,0
9,-4,-14,-2,12,-9,-4,-39,-58,-24,-14,0
9,-4,-14,-2,12,-9,-4,-39,-58,-24,-9,9
9,-4,-14,-2,12,-9,-4,-34,-58,-9,-4,14
14,0,-14,-7,14,-7,-9,-34,-58,-9,0,19
14,0,-14,-7,14,-7,-9,-34,-58,-9,4,19
14,0,-14,-7,14,-7,-14,-34,-53,-4,4,24
19,4,-14,-12,17,-4,-14,-34,-43,-9,9,29
19,9,-9,-14,14,0,-19,-34,-43,-4,9,29
19,9,-9,-14,14,0,-19,-29,-43,0,14,34
19,14,-4,-17,12,4,-24,-29,-43,4,19,34
24,4,-19,-14,21,-7,-24,-39,-53,-4,14,39
24,14,-9,-19,17,2,-24,-39,-48,0,19,48
29,19,-9,-24,19,4,-24,-39,-48,4,24,53
29,19,-9,-24,19,4,-29,-39,-43,9,29,58
34,24,-9,-29,21,7,-43,-48,-53,14,39,53
39,24,-14,-31,26,4,-43,-48,-53,19,43,58
39,24,-14,-31,26,4,-48,-53,-53,19,53,63
39,29,-9,-34,24,9,-48,-53,-53,24,58,73
48,34,-14,-41,31,9,-53,-43,-53,29,68,78
48,39,-9,-43,29,14,-58,-53,-48,34,78,82
48,43,-4,-46,26,19,-63,-58,-48,39,82,92
53,48,-4,-51,29,21,-68,-58,-48,48,97,97
58,53,-4,-56,31,24,-73,-48,-39,58,107,112
63,58,-4,-61,34,26,-73,-58,-39,63,117,126
63,63,0,-63,31,31,-78,-63,-39,68,126,136
68,68,0,-68,34,34,-82,-63,-39,78,136,141
73,73,0,-73,36,36,-92,-68,-29,87,146,141
73,82,9,-78,31,46,-97,-73,-29,92,156,151
78,82,4,-80,36,43,-102,-78,-29,102,161,156
82,92,9,-87,36,51,-107,-82,-29,107,170,161
97,102,4,-100,46,53,-112,-87,-39,107,180,170
97,97,0,-97,48,48,-122,-92,-39,112,190,180
102,102,0,-102,51,51,-126,-97,-43,117,195,185
102,112,9,-107,46,61,-136,-102,-43,122,204,195
102,107,4,-104,48,56,-141,-107,-43,126,214,204
102,112,9,-107,46,61,-141,-112,-43,131,224,214
102,112,9,-107,46,61,-151,-112,-48,136,234,224
102,117,14,-109,43,65,-156,-117,-48,141,244,234
102,122,19,-112,41,70,-161,-122,-48,131,253,244
107,126,19,-117,43,73,-161,-126,-53,141,253,248
107,131,24,-119,41,78,-170,-131,-53,146,263,253
112,136,24,-124,43,80,-170,-141,-58,146,263,258
122,151,29,-136,46,90,-180,-146,-58,156,273,268
122,151,29,-136,46,90,-180,-156,-58,156,273,273
126,156,29,-141,48,92,-190,-161,-68,156,283,273
131,161,29,-146,51,95,-195,-161,-73,156,283,278
131,161,29,-146,51,95,-200,-165,-63,165,278,273
131,161,29,-146,51,95,-200,-165,-63,161,278,273
136,161,24,-148,56,92,-200,-165,-63,161,278,268
136,156,19,-146,58,87,-200,-156,-63,156,273,268
151,151,0,-151,75,75,-209,-165,-63,146,268,268
151,146,-4,-148,78,70,-204,-161,-68,141,248,263
151,136,-14,-143,82,61,-200,-161,-68,131,244,244
146,131,-14,-139,80,58,-195,-151,-63,122,224,234
146,122,-24,-134,85,48,-175,-131,-63,107,214,209
146,112,-34,-129,90,39,-170,-122,-63,102,195,200
141,97,-43,-119,92,26,-156,-107,-58,97,175,185
136,87,-48,-112,92,19,-141,-97,-58,82,161,170
122,92,-29,-107,75,31,-131,-82,-53,82,161,161
112,82,-29,-97,70,26,-117,-68,-43,78,146,146
112,73,-39,-92,75,17,-102,-58,-39,68,131,141
107,63,-43,-85,75,9,-87,-43,-34,53,112,136
107,58,-48,-82,78,4,-82,-29,-24,58,97,131
97,48,-48,-73,73,0,-73,-19,-14,58,92,107
87,39,-48,-63,68,-4,-58,-14,-9,53,87,92
82,39,-43,-61,63,-2,-48,-4,-4,58,78,82
73,34,-39,-53,56,-2,-39,4,0,43,53,63
63,34,-29,-48,46,2,-29,9,4,39,48,53
53,29,-24,-41,39,2,-24,14,4,39,39,43
48,24,-24,-36,36,0,-14,19,9,34,24,29
39,14,-24,-26,31,-4,0,19,9,29,14,29
39,14,-24,-26,31,-4,9,19,9,24,4,24
29,4,-24,-17,26,-9,19,24,9,19,0,14
24,4,-19,-14,21,-7,24,24,4,9,-4,4
19,-9,-29,-4,24,-19,24,14,4,4,-19,-14
14,-9,-24,-2,19,-17,24,9,4,0,-19,-14
4,-14,-19,4,12,-17,29,9,4,0,-29,-19
4,-19,-24,7,14,-21,29,9,4,0,-29,-19
4,-19,-24,7,14,-21,24,0,-4,-4,-29,-24
0,-24,-24,12,12,-24,29,0,-4,-9,-39,-29
-4,-24,-19,14,7,-21,29,0,-9,-14,-39,-29
-4,-29,-24,17,9,-26,29,0,-9,-19,-43,-29
-4,-19,-14,12,4,-17,29,-4,-9,-24,-43,-34
-9,-19,-9,14,0,-14,24,-4,-19,-24,-48,-39
-9,-19,-9,14,0,-14,24,-9,-19,-29,-48,-39
-9,-19,-9,14,0,-14,24,-9,-19,-29,-53,-39
-14,-19,-4,17,-4,-12,29,-9,-24,-29,-53,-39
-14,-19,-4,17,-4,-12,29,-14,-24,-29,-53,-43
-14,-19,-4,17,-4,-12,34,-14,-24,-34,-53,-43
-19,-19,0,19,-9,-9,34,-14,-24,-34,-53,-43
-29,-29,0,29,-14,-14,39,-14,-24,-34,-63,-43
-29,-39,-9,34,-9,-24,39,-14,-24,-39,-68,-48
-29,-39,-9,34,-9,-24,39,-19,-29,-39,-68,-48
-29,-34,-4,31,-12,-19,43,-19,-29,-39,-68,-48
-34,-24,9,29,-21,-7,43,-19,-19,-39,-73,-48
-34,-24,9,29,-21,-7,43,-19,-24,-39,-73,-48
-34,-24,9,29,-21,-7,43,-19,-24,-39,-73,-48
-34,-24,9,29,-21,-7,43,-19,-24,-39,-73,-48
-34,-24,9,29,-21,-7,34,-14,-24,-53,-78,-63
-29,-24,4,26,-17,-9,39,-14,-24,-53,-78,-63
-29,-19,9,24,-19,-4,39,-14,-29,-53,-82,-68
-34,-19,14,26,-24,-2,39,-14,-29,-58,-82,-68
-43,-19,24,31,-34,2,48,-19,-29,-48,-82,-68
-43,-19,24,31,-34,2,48,-19,-24,-53,-82,-68
-43,-19,24,31,-34,2,48,-19,-24,-53,-87,-68
-43,-19,24,31,-34,2,48,-19,-24,-53,-87,-68
-34,-19,14,26,-24,-2,48,-19,-34,-53,-87,-63
-34,-19,14,26,-24,-2,48,-19,-34,-53,-87,-63
-34,-19,14,26,-24,-2,48,-19,-34,-53,-82,-58
-34,-19,14,26,-24,-2,48,-19,-34,-48,-82,-53
-34,-19,14,26,-24,-2,43,-24,-43,-58,-82,-58
-34,-24,9,29,-21,-7,39,-24,-39,-58,-82,-63
-34,-24,9,29,-21,-7,34,-19,-39,-58,-82,-68
-34,-19,14,26,-24,-2,29,-19,-39,-58,-82,-73
-34,-29,4,31,-19,-12,39,-19,-29,-53,-87,-63
-34,-29,4,31,-19,-12,39,-19,-29,-53,-87,-63
-34,-29,4,31,-19,-12,39,-19,-29,-53,-87,-63
-34,-29,4,31,-19,-12,39,-19,-29,-53,-87,-58
-34,-29,4,31,-19,-12,39,-9,-29,-43,-78,-58
-34,-29,4,31,-19,-12,39,-9,-29,-43,-78,-58
-34,-24,9,29,-21,-7,39,-9,-29,-43,-78,-58
-34,-19,14,26,-24,-2,39,-9,-29,-39,-78,-58
-34,-29,4,31,-19,-12,48,-9,-29,-43,-82,-68
-29,-29,0,29,-14,-14,48,-4,-24,-43,-82,-68
-29,-29,0,29,-14,-14,48,-4,-24,-43,-82,-68
-29,-29,0,29,-14,-14,48,-4,-24,-43,-82,-68
-29,-34,-4,31,-12,-19,48,-4,-24,-34,-87,-68
-29,-34,-4,31,-12,-19,48,-4,-24,-34,-87,-68
-29,-29,0,29,-14,-14,48,-4,-24,-34,-87,-68
-29,-29,0,29,-14,-14,48,-4,-19,-34,-87,-63
-29,-43,-14,36,-7,-29,43,-4,-9,-34,-82,-48
-29,-43,-14,36,-7,-29,43,4,-9,-29,-68,-43
-29,-43,-14,36,-7,-29,43,4,-9,-24,-63,-43
-29,-39,-9,34,-9,-24,43,4,-9,-24,-58,-43
-19,-39,-19,29,0,-29,43,0,-9,-34,-58,-39
-19,-39,-19,29,0,-29,43,0,-9,-34,-53,-39
-19,-39,-19,29,0,-29,39,0,-9,-29,-53,-39
-19,-39,-19,29,0,-29,39,4,-9,-29,-53,-39
-29,-34,-4,31,-12,-19,48,4,-9,-19,-53,-39
-29,-34,-4,31,-12,-19,48,0,-9,-19,-48,-43
-24,-34,-9,29,-7,-21,48,0,-9,-24,-48,-43
-24,-34,-9,29,-7,-21,48,4,-9,-24,-48,-39
-24,-34,-9,29,-7,-21,58,14,0,-19,-48,-39
-24,-34,-9,29,-7,-21,58,14,0,-19,-48,-39
-24,-34,-9,29,-7,-21,58,14,4,-19,-48,-39
-24,-29,-4,26,-9,-17,58,14,4,-19,-48,-39
-14,-39,-24,26,4,-31,58,14,-4,-19,-39,-39
-14,-43,-29,29,7,-36,58,14,-4,-19,-39,-39
-14,-43,-29,29,7,-36,58,9,-4,-19,-39,-34
-14,-39,-24,26,4,-31,58,9,-4,-19,-43,-34
-14,-34,-19,24,2,-26,58,9,4,-14,-53,-34
-14,-34,-19,24,2,-26,53,9,0,-14,-53,-34
-14,-34,-19,24,2,-26,53,9,0,-14,-53,-34
-14,-34,-19,24,2,-26,53,9,0,-14,-53,-39
-4,-34,-29,19,12,-31,53,9,-9,-24,-53,-48
-4,-39,-34,21,14,-36,53,9,-9,-24,-53,-48
-4,-39,-34,21,14,-36,53,9,-9,-24,-53,-48
-4,-39,-34,21,14,-36,53,9,-9,-24,-53,-48
-14,-29,-14,21,0,-21,53,9,-9,-24,-53,-48
-14,-29,-14,21,0,-21,53,9,-14,-24,-53,-48
-14,-29,-14,21,0,-21,53,9,-14,-24,-58,-48
-14,-29,-14,21,0,-21,53,4,-14,-29,-58,-48
-14,-24,-9,19,-2,-17,53,4,-4,-19,-48,-39
0,-19,-19,9,9,-19,48,0,-9,-19,-48,-39
0,-19,-19,9,9,-19,48,0,-9,-29,-48,-39
0,-19,-19,9,9,-19,48,0,-9,-29,-48,-39
0,-19,-19,9,9,-19,48,0,-9,-29,-48,-39
0,-19,-19,9,9,-19,48,0,-9,-29,-48,-39
-9,-19,-9,14,0,-14,48,0,-14,-29,-48,-48
-9,-19,-9,14,0,-14,48,-4,-14,-29,-53,-53
-9,-19,-9,14,0,-14,43,-4,-14,-34,-58,-53
-9,-24,-14,17,2,-19,43,-4,-19,-34,-58,-53
-9,-34,-24,21,7,-29,48,-14,-29,-34,-63,-53
-9,-29,-19,19,4,-24,48,-14,-29,-34,-68,-53
-14,-29,-14,21,0,-21,48,-14,-29,-34,-73,-53
-14,-29,-14,21,0,-21,48,-14,-29,-34,-78,-53
-19,-19,0,19,-9,-9,39,-19,-29,-39,-68,-43
-19,-19,0,19,-9,-9,39,-19,-29,-43,-73,-48
-24,-19,4,21,-14,-7,39,-19,-29,-43,-73,-48
-24,-19,4,21,-14,-7,39,-19,-29,-43,-73,-48
-14,-9,4,12,-9,-2,29,-29,-29,-43,-63,-48
-14,-9,4,12,-9,-2,29,-29,-29,-43,-63,-48
-14,-9,4,12,-9,-2,29,-29,-24,-43,-58,-48
-14,-9,4,12,-9,-2,34,-24,-24,-39,-58,-43
-9,-9,0,9,-4,-4,39,-9,-9,-34,-58,-43
-9,-4,4,7,-7,0,48,-9,-9,-34,-53,-43
-9,-4,4,7,-7,0,53,-4,-4,-34,-53,-43
-9,4,14,2,-12,9,58,4,0,-29,-48,-43
-9,4,14,2,-12,9,68,4,0,-24,-48,-34
-9,4,14,2,-12,9,73,9,0,-14,-43,-34
-9,4,14,2,-12,9,73,9,4,-14,-43,-29
-9,4,14,2,-12,9,73,4,4,-14,-43,-29
-9,9,19,0,-14,14,73,14,0,-19,-48,-39
-9,9,19,0,-14,14,73,14,0,-19,-48,-39
-9,9,19,0,-14,14,78,19,4,-19,-48,-43
-9,4,14,2,-12,9,87,19,9,-19,-48,-43
-9,-4,4,7,-7,0,92,29,19,-19,-58,-43
-14,-4,9,9,-12,2,102,43,29,-14,-53,-39
-14,4,19,4,-17,12,122,63,39,-4,-39,-34
-9,9,19,0,-14,14,136,78,58,14,-34,-34
-4,9,14,-2,-9,12,136,92,63,19,-29,-29
0,14,14,-7,-7,14,136,102,63,29,-24,-24
4,19,14,-12,-4,17,126,92,63,29,-24,-19
9,24,14,-17,-2,19,97,78,58,24,-24,-14
9,34,24,-21,-7,29,73,58,43,14,-24,-14
9,34,24,-21,-7,29,34,29,29,9,-34,-19
9,34,24,-21,-7,29,0,0,9,0,-34,-19
14,29,14,-21,0,21,-19,-19,-9,-9,-39,-24
14,24,9,-19,2,17,-34,-39,-24,-24,-48,-24
9,14,4,-12,2,9,-34,-48,-34,-39,-53,-24
9,9,0,-9,4,4,-34,-53,-43,-53,-58,-29
4,0,-4,-2,4,-2,-34,-63,-58,-63,-73,-39
-9,-14,-4,12,-2,-9,-34,-78,-68,-73,-87,-58
-14,-19,-4,17,-4,-12,-34,-92,-82,-82,-97,-58
-19,-19,0,19,-9,-9,-39,-107,-87,-92,-102,-63
-29,-19,9,24,-19,-4,-39,-112,-102,-97,-107,-68
-19,-19,0,19,-9,-9,-43,-117,-107,-107,-122,-78
-24,-29,-4,26,-9,-17,-43,-117,-112,-107,-126,-82
-29,-29,0,29,-14,-14,-39,-107,-112,-112,-126,-87
-34,-39,-4,36,-14,-21,-29,-107,-112,-112,-131,-92
-43,-39,4,41,-24,-17,-29,-92,-107,-122,-131,-102
-43,-43,0,43,-21,-21,-14,-87,-97,-117,-131,-102
-43,-48,-4,46,-19,-26,-9,-87,-97,-112,-131,-102
-43,-48,-4,46,-19,-26,-4,-87,-92,-112,-126,-102
-48,-53,-4,51,-21,-29,0,-82,-92,-112,-126,-97
-48,-53,-4,51,-21,-29,0,-78,-92,-107,-126,-92
-48,-53,-4,51,-21,-29,0,-78,-92,-107,-126,-92
-48,-58,-9,53,-19,-34,0,-78,-92,-107,-126,-87
-53,-68,-14,61,-19,-41,4,-78,-92,-107,-122,-87
-53,-68,-14,61,-19,-41,4,-78,-92,-107,-122,-87
-53,-68,-14,61,-19,-41,4,-78,-92,-107,-122,-87
-53,-68,-14,61,-19,-41,4,-78,-92,-107,-122,-87
-53,-73,-19,63,-17,-46,14,-68,-92,-97,-112,-82
-53,-73,-19,63,-17,-46,14,-68,-92,-97,-112,-82
-53,-73,-19,63,-17,-46,14,-68,-92,-97,-112,-78
-53,-68,-14,61,-19,-41,14,-68,-92,-97,-112,-78
-53,-63,-9,58,-21,-36,14,-68,-92,-102,-122,-87
-58,-63,-4,61,-26,-34,14,-68,-92,-102,-122,-87
-58,-68,-9,63,-24,-39,14,-68,-92,-102,-122,-87
-58,-68,-9,63,-24,-39,14,-68,-92,-102,-122,-87
-58,-78,-19,68,-19,-48,14,-68,-92,-102,-122,-92
-58,-78,-19,68,-19,-48,14,-68,-92,-102,-122,-92
-58,-78,-19,68,-19,-48,14,-68,-97,-107,-122,-92
-58,-78,-19,68,-19,-48,14,-68,-97,-107,-131,-92
-58,-78,-19,68,-19,-48,19,-68,-87,-107,-122,-92
-58,-73,-14,65,-21,-43,19,-68,-82,-107,-117,-92
-58,-73,-14,65,-21,-43,19,-68,-82,-107,-117,-92
-58,-73,-14,65,-21,-43,19,-68,-82,-107,-117,-92
-48,-73,-24,61,-12,-48,19,-68,-92,-107,-126,-102
-48,-73,-24,61,-12,-48,19,-68,-92,-107,-126,-102
-48,-73,-24,61,-12,-48,19,-63,-92,-107,-126,-102
-48,-73,-24,61,-12,-48,19,-63,-92,-107,-126,-102
-48,-63,-14,56,-17,-39,24,-58,-82,-107,-117,-97
-48,-68,-19,58,-14,-43,34,-48,-68,-97,-122,-97
-48,-82,-34,65,-7,-58,43,-24,-63,-102,-122,-112
-58,-92,-34,75,-12,-63,63,0,-48,-92,-131,-131
-58,-102,-43,80,-7,-73,87,34,-24,-82,-141,-131
-58,-102,-43,80,-7,-73,112,68,14,-68,-131,-136
-68,-107,-39,87,-14,-73,151,117,53,-39,-112,-136
-68,-107,-39,87,-14,-73,180,175,107,14,-97,-126
-53,-107,-53,80,0,-80,204,229,170,68,-53,-107
-14,-107,-92,61,39,-100,214,292,229,131,0,-68
39,-92,-131,26,85,-112,214,351,287,200,78,-14
102,-63,-165,-19,134,-114,190,390,346,283,180,63
195,4,-190,-100,192,-92,165,434,419,385,312,180
278,87,-190,-183,234,-51,126,448,488,497,453,317
375,170,-204,-273,290,-17,78,434,541,605,610,458
473,258,-214,-366,344,21,4,409,580,722,780,629
570,346,-224,-458,397,61,-68,346,595,829,946,785
649,409,-239,-529,444,85,-151,278,585,893,1068,917
722,448,-273,-585,497,87,-200,234,575,936,1185,1034
775,473,-302,-624,539,85,-239,209,561,966,1259,1117
805,473,-331,-639,568,70,-239,180,527,936,1254,1137
771,448,-322,-610,546,63,-219,165,458,829,1137,1063
678,390,-287,-534,483,51,-161,151,375,639,878,858
541,283,-258,-412,400,12,-73,146,253,361,502,575
370,180,-190,-275,280,-4,43,112,112,82,122,263
161,102,-58,-131,109,21,151,87,19,-117,-161,24
-48,82,131,-17,-90,107,229,68,-19,-204,-287,-112
-204,73,278,65,-241,175,297,48,-34,-234,-370,-204
-292,48,341,122,-317,195,317,29,-43,-253,-414,-268
-317,39,356,139,-336,197,326,14,-29,-248,-409,-283
-317,48,366,134,-341,207,331,9,-9,-229,-370,-263
-317,34,351,141,-334,192,346,-14,-39,-248,-366,-263
-322,4,326,158,-324,165,366,-24,-58,-268,-385,-278
-312,-9,302,161,-307,146,409,14,-29,-248,-375,-287
-302,-29,273,165,-287,122,439,39,-9,-229,-351,-273
-302,-48,253,175,-278,102,424,-24,-63,-248,-341,-263
-287,-58,229,173,-258,85,380,-131,-146,-283,-341,-258
-263,-48,214,156,-239,82,273,-248,-244,-307,-331,-239
-234,-29,204,131,-219,87,131,-351,-317,-326,-312,-209
-195,-19,175,107,-185,78,14,-395,-356,-322,-287,-180
-156,-9,146,82,-151,68,-39,-375,-341,-302,-258,-156
-131,-9,122,70,-126,56,-58,-322,-292,-268,-229,-141
-117,-9,107,63,-112,48,-43,-263,-248,-234,-209,-136
-107,-14,92,61,-100,39,-24,-214,-204,-200,-185,-126
-92,-19,73,56,-82,26,-14,-170,-161,-161,-151,-112
-73,-14,58,43,-65,21,0,-126,-122,-126,-131,-92
-63,-24,39,43,-51,7,19,-97,-102,-102,-117,-82
-58,-39,19,48,-39,-9,34,-63,-82,-87,-107,-78
-53,-43,9,48,-31,-17,43,-53,-68,-87,-107,-73
-48,-53,-4,51,-21,-29,34,-58,-78,-97,-107,-73
-43,-53,-9,48,-17,-31,34,-53,-78,-92,-102,-73
-43,-53,-9,48,-17,-31,34,-53,-73,-82,-102,-73
-43,-53,-9,48,-17,-31,29,-48,-73,-78,-92,-68
-29,-43,-14,36,-7,-29,19,-48,-68,-78,-102,-68
-29,-43,-14,36,-7,-29,19,-48,-58,-78,-97,-73
-29,-48,-19,39,-4,-34,19,-48,-58,-82,-97,-78
-29,-48,-19,39,-4,-34,19,-48,-58,-82,-97,-78
-24,-43,-19,34,-2,-31,14,-39,-58,-82,-97,-73
-24,-43,-19,34,-2,-31,14,-43,-58,-82,-97,-68
-24,-43,-19,34,-2,-31,9,-43,-63,-82,-92,-58
-24,-43,-19,34,-2,-31,9,-39,-63,-78,-92,-53
-14,-53,-39,34,12,-46,9,-43,-63,-73,-78,-39
-14,-53,-39,34,12,-46,9,-43,-63,-73,-73,-39
-14,-58,-43,36,14,-51,9,-43,-58,-68,-68,-39
-9,-58,-48,34,19,-53,9,-48,-58,-68,-63,-34
-9,-68,-58,39,24,-63,19,-39,-58,-68,-68,-39
-4,-63,-58,34,26,-61,14,-39,-58,-68,-68,-43
-4,-58,-53,31,24,-56,14,-39,-53,-63,-68,-48
-4,-58,-53,31,24,-56,9,-34,-53,-63,-68,-53
-14,-58,-43,36,14,-51,9,-34,-63,-73,-78,-63
-14,-58,-43,36,14,-51,9,-34,-58,-73,-78,-58
-9,-58,-48,34,19,-53,9,-34,-58,-73,-73,-58
-9,-58,-48,34,19,-53,9,-34,-58,-73,-73,-58
-9,-48,-39,29,14,-43,0,-34,-58,-58,-78,-58
-4,-48,-43,26,19,-46,0,-34,-58,-58,-73,-58
-4,-48,-43,26,19,-46,0,-34,-58,-58,-73,-53
-9,-48,-39,29,14,-43,0,-34,-63,-53,-73,-53
-9,-48,-39,29,14,-43,0,-34,-53,-53,-63,-43
-9,-48,-39,29,14,-43,0,-34,-53,-53,-63,-43
-9,-43,-34,26,12,-39,0,-34,-53,-53,-63,-39
-4,-39,-34,21,14,-36,0,-34,-53,-53,-58,-39
-4,-48,-43,26,19,-46,0,-34,-53,-53,-48,-39
0,-48,-48,24,24,-48,0,-34,-48,-53,-43,-39
0,-48,-48,24,24,-48,-4,-34,-43,-48,-43,-34
0,-48,-48,24,24,-48,-4,-34,-43,-48,-43,-34
0,-48,-48,24,24,-48,4,-34,-34,-34,-39,-34
4,-48,-53,21,29,-51,0,-34,-34,-34,-34,-34
4,-43,-48,19,26,-46,0,-29,-34,-29,-34,-29
4,-43,-48,19,26,-46,0,-29,-34,-29,-34,-29
4,-43,-48,19,26,-46,0,-29,-34,-29,-29,-14
4,-43,-48,19,26,-46,0,-29,-39,-29,-29,-9
4,-39,-43,17,24,-41,0,-29,-39,-24,-19,-9
4,-39,-43,17,24,-41,-4,-29,-39,-24,-19,-9
4,-48,-53,21,29,-51,-4,-19,-39,-14,-14,-9
9,-48,-58,19,34,-53,-4,-19,-34,-14,-14,-9
9,-43,-53,17,31,-48,-4,-19,-29,-14,-14,-9
9,-43,-53,17,31,-48,-4,-19,-29,-14,-9,0
19,-34,-53,7,36,-43,-4,-24,-29,-9,4,4
24,-29,-53,2,39,-41,-9,-24,-29,-9,9,9
24,-29,-53,2,39,-41,-9,-24,-29,-9,14,9
24,-29,-53,2,39,-41,-14,-24,-24,-4,14,14
29,-19,-48,-4,39,-34,-24,-24,-24,0,19,29
29,-9,-39,-9,34,-24,-29,-24,-24,4,19,29
29,-4,-34,-12,31,-19,-29,-19,-24,9,24,34
29,4,-24,-17,26,-9,-34,-19,-24,14,29,34
43,-4,-48,-19,46,-26,-34,-29,-24,24,34,39
43,4,-39,-24,41,-17,-34,-29,-19,29,39,48
48,9,-39,-29,43,-14,-34,-29,-19,34,43,53
48,9,-39,-29,43,-14,-39,-29,-14,39,48,58
43,14,-29,-29,36,-7,-53,-29,-14,34,58,63
48,14,-34,-31,41,-9,-53,-29,-14,39,63,68
48,14,-34,-31,41,-9,-58,-34,-14,39,73,73
48,19,-29,-34,39,-4,-58,-34,-14,43,78,82
58,34,-24,-46,41,4,-63,-43,-14,48,78,87
58,39,-19,-48,39,9,-68,-53,-9,53,87,92
58,43,-14,-51,36,14,-73,-58,-9,58,92,102
63,48,-14,-56,39,17,-78,-58,-9,68,107,107
68,53,-14,-61,41,19,-82,-58,-9,78,117,122
73,58,-14,-65,43,21,-82,-68,-9,82,126,136
73,63,-9,-68,41,26,-87,-73,-9,87,136,146
78,68,-9,-73,43,29,-92,-73,-9,97,146,151
82,73,-9,-78,46,31,-102,-78,-9,97,165,151
82,82,0,-82,41,41,-107,-82,-9,102,175,161
87,82,-4,-85,46,39,-112,-87,-9,112,180,165
92,92,0,-92,46,46,-117,-92,-9,117,190,170
87,117,29,-102,29,73,-131,-107,-19,117,190,180
87,117,29,-102,29,73,-141,-112,-19,122,200,190
92,126,34,-109,29,80,-146,-117,-24,126,204,195
92,141,48,-117,21,95,-156,-122,-24,131,214,204
102,146,43,-124,29,95,-170,-136,-24,136,234,224
102,151,48,-126,26,100,-170,-141,-24,141,244,234
102,151,48,-126,26,100,-180,-141,-29,146,253,244
102,156,53,-129,24,104,-185,-146,-29,151,263,253
102,161,58,-131,21,109,-190,-151,-19,151,273,253
107,165,58,-136,24,112,-190,-156,-24,161,273,258
107,170,63,-139,21,117,-200,-161,-24,165,283,263
112,175,63,-143,24,119,-200,-170,-29,165,283,268
112,180,68,-146,21,124,-209,-165,-39,175,302,287
112,180,68,-146,21,124,-209,-175,-39,175,302,292
117,185,68,-151,24,126,-219,-180,-48,175,312,292
122,190,68,-156,26,129,-224,-180,-53,175,312,297
122,200,78,-161,21,139,-229,-185,-43,175,317,292
122,200,78,-161,21,139,-229,-185,-43,170,317,292
126,200,73,-163,26,136,-229,-185,-43,170,317,287
126,195,68,-161,29,131,-229,-175,-43,165,312,287
131,180,48,-156,41,114,-229,-175,-53,165,302,278
131,175,43,-153,43,109,-224,-170,-58,161,278,273
131,165,34,-148,48,100,-219,-170,-58,151,268,253
126,161,34,-143,46,97,-214,-161,-53,141,244,244
126,146,19,-136,53,82,-204,-151,-53,117,234,219
126,131,4,-129,61,68,-200,-141,-53,112,214,209
122,112,-9,-117,65,51,-185,-126,-48,107,195,195
117,97,-19,-107,68,39,-170,-117,-48,92,180,180
112,92,-19,-102,65,36,-151,-102,-43,92,161,165
102,82,-19,-92,61,31,-136,-87,-34,87,146,146
102,73,-29,-87,65,21,-122,-78,-29,78,131,136
97,63,-34,-80,65,14,-107,-63,-24,63,112,126
78,58,-19,-68,48,19,-102,-39,-14,53,92,112
68,48,-19,-58,43,14,-92,-29,-4,48,82,87
58,39,-19,-48,39,9,-78,-24,0,39,73,73
53,39,-14,-46,34,12,-68,-14,4,39,58,63
43,24,-19,-34,31,2,-48,-4,9,43,53,53
34,24,-9,-29,21,7,-39,0,14,39,48,43
24,19,-4,-21,14,7,-34,4,14,39,39,34
19,14,-4,-17,12,4,-24,9,19,34,24,19
19,0,-19,-9,19,-9,-19,9,29,29,24,19
19,-4,-24,-7,21,-14,-9,9,29,24,14,14
9,-19,-29,4,19,-24,0,14,29,19,9,4
4,-24,-29,9,17,-26,4,14,24,9,4,-4
0,-29,-29,14,14,-29,4,14,14,4,-4,-14
-4,-29,-24,17,9,-26,4,9,14,0,-9,-14
-14,-34,-19,24,2,-26,9,9,14,0,-24,-19
-14,-39,-24,26,4,-31,9,9,14,0,-29,-19
-14,-29,-14,21,0,-21,14,0,4,-4,-39,-29
-19,-34,-14,26,-2,-24,19,0,4,-9,-48,-39
-24,-34,-9,29,-7,-21,19,0,0,-14,-48,-43
-24,-39,-14,31,-4,-26,19,0,0,-19,-53,-48
-24,-39,-14,31,-4,-26,19,-4,9,-24,-43,-43
-29,-39,-9,34,-9,-24,14,-4,0,-24,-48,-48
-29,-39,-9,34,-9,-24,14,-9,0,-29,-48,-48
-29,-39,-9,34,-9,-24,14,-9,0,-29,-53,-48
-34,-48,-14,41,-9,-31,19,0,4,-39,-63,-58
-34,-48,-14,41,-9,-31,19,-4,4,-39,-63,-63
-34,-48,-14,41,-9,-31,24,-4,4,-43,-63,-63
-39,-48,-9,43,-14,-29,24,-4,4,-43,-63,-63
-39,-48,-9,43,-14,-29,29,-4,-4,-34,-63,-53
-39,-58,-19,48,-9,-39,29,-4,-4,-39,-68,-58
-39,-58,-19,48,-9,-39,29,-9,-9,-39,-68,-58
-39,-53,-14,46,-12,-34,34,-9,-9,-39,-68,-58
-34,-53,-19,43,-7,-36,34,-9,0,-39,-63,-58
-34,-53,-19,43,-7,-36,34,-9,-4,-39,-63,-58
-34,-53,-19,43,-7,-36,34,-9,-4,-39,-63,-58
-34,-53,-19,43,-7,-36,34,-9,-4,-39,-63,-58
-43,-73,-29,58,-7,-51,43,-4,-4,-43,-78,-73
-39,-73,-34,56,-2,-53,48,-4,-4,-43,-78,-73
-39,-68,-29,53,-4,-48,48,-4,-9,-43,-82,-78
-43,-68,-24,56,-9,-46,48,-4,-9,-48,-82,-78
-34,-68,-34,51,0,-51,48,0,-9,-48,-82,-78
-34,-68,-34,51,0,-51,48,0,-4,-53,-82,-78
-34,-68,-34,51,0,-51,48,0,-4,-53,-87,-78
-34,-68,-34,51,0,-51,48,0,-4,-53,-87,-78
-34,-63,-29,48,-2,-46,39,0,-4,-43,-78,-78
-34,-58,-24,46,-4,-41,39,0,-4,-43,-78,-73
-34,-53,-19,43,-7,-36,39,0,-4,-43,-73,-63
-34,-48,-14,41,-9,-31,39,0,-4,-39,-73,-53
-24,-39,-14,31,-4,-26,39,-4,-4,-29,-63,-43
-24,-43,-19,34,-2,-31,39,-4,0,-29,-63,-43
-24,-43,-19,34,-2,-31,39,0,0,-29,-63,-43
-24,-39,-14,31,-4,-26,39,0,0,-29,-63,-43
-24,-39,-14,31,-4,-26,29,0,0,-34,-68,-48
-24,-39,-14,31,-4,-26,29,0,0,-34,-68,-53
-24,-39,-14,31,-4,-26,29,0,0,-34,-68,-58
-24,-39,-14,31,-4,-26,29,0,0,-34,-68,-58
-34,-39,-4,36,-14,-21,29,0,0,-34,-68,-58
-34,-39,-4,36,-14,-21,29,0,0,-34,-68,-58
-34,-34,0,34,-17,-17,29,0,0,-34,-68,-58
-34,-29,4,31,-19,-12,29,0,0,-29,-68,-58
-34,-29,4,31,-19,-12,29,0,0,-24,-53,-48
-29,-29,0,29,-14,-14,29,4,4,-24,-53,-48
-29,-29,0,29,-14,-14,29,4,4,-24,-53,-48
-29,-29,0,29,-14,-14,29,4,4,-24,-53,-48
-29,-24,4,26,-17,-9,29,-4,4,-19,-39,-39
-29,-24,4,26,-17,-9,29,-4,4,-14,-39,-39
-29,-19,9,24,-19,-4,29,-4,4,-9,-39,-39
-29,-19,9,24,-19,-4,29,-4,9,-4,-39,-34
-29,-24,4,26,-17,-9,24,-4,9,-9,-48,-39
-29,-24,4,26,-17,-9,24,4,9,-9,-39,-34
-29,-24,4,26,-17,-9,24,4,9,-9,-39,-34
-29,-19,9,24,-19,-4,24,4,9,-14,-39,-34
-39,-19,19,29,-29,0,24,0,0,-14,-48,-39
-39,-19,19,29,-29,0,24,0,0,-14,-43,-39
-39,-19,19,29,-29,0,19,0,0,-9,-43,-39
-39,-19,19,29,-29,0,19,4,0,-9,-43,-39
-39,-14,24,26,-31,4,19,4,0,-9,-43,-39
-39,-14,24,26,-31,4,19,0,0,-9,-39,-43
-34,-14,19,24,-26,2,19,0,0,-14,-39,-43
-34,-14,19,24,-26,2,19,4,0,-14,-39,-39
-43,-24,19,34,-31,-2,29,4,9,0,-29,-29
-43,-24,19,34,-31,-2,29,4,9,0,-29,-29
-43,-24,19,34,-31,-2,29,4,14,0,-29,-29
-43,-19,24,31,-34,2,29,4,14,0,-29,-29
-43,-9,34,26,-39,12,29,4,14,-9,-39,-39
-43,-14,29,29,-36,7,29,4,14,-9,-39,-39
-43,-14,29,29,-36,7,29,0,14,-9,-39,-34
-43,-9,34,26,-39,12,29,0,14,-9,-43,-34
-34,-14,19,24,-26,2,29,0,4,-24,-53,-43
-34,-14,19,24,-26,2,24,0,0,-24,-53,-43
-34,-14,19,24,-26,2,24,0,0,-24,-53,-43
-34,-14,19,24,-26,2,24,0,0,-24,-53,-48
-43,-19,24,31,-34,2,34,0,0,-14,-43,-39
-43,-29,14,36,-29,-7,34,0,0,-14,-43,-39
-43,-34,9,39,-26,-12,34,0,0,-14,-43,-39
-43,-39,4,41,-24,-17,34,0,0,-14,-43,-39
-43,-39,4,41,-24,-17,34,0,0,-14,-43,-29
-34,-39,-4,36,-14,-21,34,0,-4,-24,-43,-39
-34,-39,-4,36,-14,-21,24,0,4,-24,-48,-39
-43,-48,-4,46,-19,-26,24,-4,-4,-29,-48,-39
-48,-58,-9,53,-19,-34,29,-9,-9,-29,-48,-39
-39,-48,-9,43,-14,-29,29,0,-19,-29,-58,-48
-39,-48,-9,43,-14,-29,29,0,-19,-29,-58,-48
-39,-48,-9,43,-14,-29,29,0,-19,-29,-58,-48
-39,-48,-9,43,-14,-29,29,0,-19,-29,-58,-48
-39,-39,0,39,-19,-19,29,-9,-24,-39,-68,-48
-39,-39,0,39,-19,-19,29,-14,-24,-39,-73,-53
-39,-39,0,39,-19,-19,24,-14,-24,-43,-78,-53
-39,-43,-4,41,-17,-24,24,-14,-29,-43,-78,-53
-39,-53,-14,46,-12,-34,19,-4,-19,-34,-68,-53
-39,-48,-9,43,-14,-29,19,-4,-19,-34,-68,-53
-43,-48,-4,46,-19,-26,19,-4,-19,-34,-68,-53
-43,-48,-4,46,-19,-26,19,-4,-19,-34,-68,-53
-39,-58,-19,48,-9,-39,29,-9,-29,-39,-68,-43
-39,-58,-19,48,-9,-39,29,-9,-29,-43,-73,-48
-43,-58,-14,51,-14,-36,29,-9,-29,-43,-73,-48
-43,-58,-14,51,-14,-36,29,-9,-29,-43,-73,-48
-43,-58,-14,51,-14,-36,29,-9,-29,-43,-82,-53
-43,-58,-14,51,-14,-36,29,-9,-29,-43,-82,-58
-43,-58,-14,51,-14,-36,29,-9,-24,-43,-78,-63
-43,-58,-14,51,-14,-36,34,-4,-24,-39,-78,-63
-39,-48,-9,43,-14,-29,39,9,-19,-34,-68,-63
-39,-43,-4,41,-17,-24,48,9,-19,-34,-63,-63
-39,-43,-4,41,-17,-24,53,14,-14,-34,-63,-63
-39,-34,4,36,-21,-14,58,24,-9,-29,-58,-63
-29,-43,-14,36,-7,-29,58,24,0,-24,-48,-58
-29,-43,-14,36,-7,-29,63,29,0,-14,-43,-53
-29,-43,-14,36,-7,-29,63,29,4,-14,-43,-43
-29,-43,-14,36,-7,-29,63,24,4,-14,-43,-39
-29,-58,-29,43,0,-43,73,34,9,-9,-48,-48
-29,-58,-29,43,0,-43,73,34,9,-9,-48,-48
-29,-58,-29,43,0,-43,78,39,14,-9,-48,-53
-29,-63,-34,46,2,-48,87,39,19,-9,-48,-53
-19,-58,-39,39,9,-48,82,48,19,-9,-58,-53
-24,-53,-29,39,2,-41,92,63,29,-4,-53,-48
-24,-39,-14,31,-4,-26,112,82,39,4,-39,-43
-19,-29,-9,24,-4,-19,126,97,58,24,-34,-43
-14,-29,-14,21,0,-21,131,102,73,29,-19,-29
-9,-24,-14,17,2,-19,126,112,73,39,-14,-24
-4,-19,-14,12,4,-17,112,102,73,39,-14,-19
0,-14,-14,7,7,-14,78,87,68,34,-14,-14
-9,-14,-4,12,-2,-9,63,68,53,14,-24,-14
-9,-14,-4,12,-2,-9,24,39,39,9,-34,-19
-9,-14,-4,12,-2,-9,-9,9,19,0,-34,-19
-4,-19,-14,12,4,-17,-29,-9,0,-9,-39,-24
-4,-19,-14,12,4,-17,-43,-29,-14,-14,-48,-14
-9,-24,-14,17,2,-19,-43,-39,-24,-29,-53,-14
-9,-24,-14,17,2,-19,-43,-43,-34,-43,-58,-19
-14,-29,-14,21,0,-21,-43,-53,-48,-53,-73,-29
-9,-24,-14,17,2,-19,-43,-63,-48,-53,-73,-39
-14,-29,-14,21,0,-21,-43,-73,-63,-63,-78,-39
-19,-29,-9,24,-4,-19,-48,-82,-68,-73,-78,-43
-29,-29,0,29,-14,-14,-48,-82,-82,-78,-78,-48
-29,-29,0,29,-14,-14,-53,-97,-87,-87,-92,-58
-34,-39,-4,36,-14,-21,-53,-97,-92,-87,-97,-63
-39,-39,0,39,-19,-19,-48,-87,-92,-92,-97,-68
-43,-48,-4,46,-19,-26,-39,-87,-92,-92,-102,-73
-43,-39,4,41,-24,-17,-48,-82,-87,-92,-112,-73
-43,-43,0,43,-21,-21,-34,-78,-78,-87,-112,-73
-43,-48,-4,46,-19,-26,-29,-78,-78,-82,-112,-73
-43,-48,-4,46,-19,-26,-24,-78,-73,-82,-107,-73
-58,-53,4,56,-31,-24,-29,-82,-82,-92,-117,-73
-58,-53,4,56,-31,-24,-29,-78,-82,-87,-117,-73
-58,-53,4,56,-31,-24,-29,-78,-82,-87,-117,-78
-58,-58,0,58,-29,-29,-29,-78,-82,-87,-117,-78
-63,-58,4,61,-34,-26,-14,-68,-82,-78,-112,-78
-63,-58,4,61,-34,-26,-14,-68,-82,-78,-112,-78
-63,-58,4,61,-34,-26,-14,-68,-82,-78,-112,-78
-63,-58,4,61,-34,-26,-14,-68,-82,-78,-112,-78
-73,-73,0,73,-36,-36,-4,-68,-73,-78,-102,-73
-73,-73,0,73,-36,-36,-4,-68,-73,-78,-102,-73
-73,-73,0,73,-36,-36,-4,-68,-73,-78,-102,-68
-73,-68,4,70,-39,-31,-4,-68,-73,-78,-102,-68
-73,-63,9,68,-41,-26,-14,-68,-82,-92,-112,-78
-78,-63,14,70,-46,-24,-14,-68,-82,-92,-112,-78
-78,-68,9,73,-43,-29,-14,-68,-82,-92,-112,-78
-78,-68,9,73,-43,-29,-14,-68,-82,-92,-112,-78
-78,-68,9,73,-43,-29,-4,-68,-82,-92,-122,-92
-78,-68,9,73,-43,-29,-4,-68,-82,-92,-122,-92
-78,-68,9,73,-43,-29,-4,-68,-87,-97,-122,-92
-78,-68,9,73,-43,-29,-4,-68,-87,-97,-131,-92
-78,-68,9,73,-43,-29,0,-68,-87,-97,-122,-82
-78,-63,14,70,-46,-24,0,-68,-82,-97,-117,-82
-78,-63,14,70,-46,-24,0,-68,-82,-97,-117,-82
-78,-63,14,70,-46,-24,0,-68,-82,-97,-117,-82
-68,-63,4,65,-36,-29,-9,-68,-82,-87,-107,-73
-68,-63,4,65,-36,-29,-9,-68,-82,-87,-107,-73
-68,-63,4,65,-36,-29,-9,-63,-82,-87,-107,-73
-68,-63,4,65,-36,-29,-9,-63,-82,-87,-107,-73
-68,-63,4,65,-36,-29,-4,-58,-73,-87,-107,-78
-68,-68,0,68,-34,-34,4,-48,-68,-87,-122,-87
-68,-73,-4,70,-31,-39,24,-24,-53,-92,-131,-112
-78,-92,-14,85,-31,-53,53,9,-39,-82,-141,-141
-97,-112,-14,104,-41,-63,78,43,-4,-63,-141,-151
-87,-122,-34,104,-26,-78,102,87,34,-39,-131,-156
-87,-126,-39,107,-24,-82,141,146,92,9,-112,-146
-78,-136,-58,107,-9,-97,170,204,146,43,-78,-136
-53,-136,-82,95,14,-109,185,258,200,97,-34,-107
-14,-126,-112,70,48,-119,195,312,258,161,29,-58
48,-112,-161,31,104,-136,175,361,307,239,117,14
112,-73,-185,-19,148,-129,161,400,375,331,239,122
185,4,-180,-95,183,-87,136,434,458,453,390,258
268,87,-180,-178,224,-46,87,429,517,575,551,405
375,180,-195,-278,285,-7,29,405,561,692,717,566
473,268,-204,-370,339,31,-43,361,590,810,907,736
551,346,-204,-448,378,70,-126,287,595,888,1054,893
619,400,-219,-509,419,90,-190,219,575,941,1176,1015
673,448,-224,-561,448,112,-229,204,566,985,1263,1132
697,463,-234,-580,466,114,-258,180,541,985,1307,1185
678,453,-224,-566,451,114,-248,151,488,927,1254,1146
624,409,-214,-517,419,97,-190,156,419,780,1058,1005
512,322,-190,-417,351,65,-112,151,317,531,722,741
366,185,-180,-275,273,2,-4,136,175,224,317,419
175,82,-92,-129,134,-4,122,122,63,-34,-34,126
-34,34,68,0,-51,51,219,117,9,-165,-258,-73
-204,24,229,90,-217,126,278,107,-9,-234,-375,-190
-302,-14,287,158,-295,136,317,87,-24,-273,-448,-283
-351,-29,322,190,-336,146,336,58,-24,-273,-463,-326
-356,-9,346,183,-351,168,336,63,0,-239,-429,-322
-346,-9,336,178,-341,163,341,58,0,-229,-400,-302
-336,-24,312,180,-324,143,346,34,-29,-239,-395,-302
-331,-53,278,192,-305,112,375,34,-29,-248,-385,-307
-322,-58,263,190,-292,102,409,73,0,-229,-366,-297
-312,-78,234,195,-273,78,429,68,0,-219,-361,-283
-302,-87,214,195,-258,63,414,-14,-73,-248,-361,-283
-297,-87,209,192,-253,61,341,-141,-165,-292,-361,-268
-263,-68,195,165,-229,63,204,-268,-253,-307,-341,-239
-224,-48,175,136,-200,63,73,-351,-326,-317,-312,-209
-195,-39,156,117,-175,58,-24,-366,-346,-312,-278,-180
-165,-48,117,107,-141,34,-58,-326,-312,-273,-248,-156
-141,-58,82,100,-112,12,-48,-263,-263,-239,-219,-141
-126,-48,78,87,-102,14,-34,-214,-219,-195,-200,-136
-117,-53,63,85,-90,4,-24,-175,-185,-161,-175,-126
-102,-68,34,85,-68,-17,-4,-131,-161,-131,-151,-102
-82,-63,19,73,-51,-21,9,-87,-112,-107,-131,-92
-73,-63,9,68,-41,-26,29,-58,-82,-92,-117,-82
-68,-68,0,68,-34,-34,34,-34,-63,-87,-117,-78
-53,-53,0,53,-26,-26,24,-34,-58,-87,-117,-82
-48,-53,-4,51,-21,-29,14,-39,-68,-97,-126,-82
-43,-53,-9,48,-17,-31,14,-34,-68,-92,-122,-82
-43,-53,-9,48,-17,-31,14,-34,-63,-82,-122,-82
-43,-53,-9,48,-17,-31,9,-29,-63,-78,-112,-78
-39,-53,-14,46,-12,-34,9,-19,-58,-58,-107,-73
-39,-53,-14,46,-12,-34,9,-19,-48,-58,-97,-73
-39,-58,-19,48,-9,-39,9,-19,-48,-63,-92,-73
-39,-58,-19,48,-9,-39,9,-19,-48,-63,-87,-68
-34,-63,-29,48,-2,-46,4,-19,-39,-53,-82,-63
-34,-63,-29,48,-2,-46,4,-24,-39,-53,-78,-58
-34,-63,-29,48,-2,-46,0,-24,-43,-53,-68,-48
-34,-63,-29,48,-2,-46,0,-19,-43,-48,-63,-43
-34,-73,-39,53,2,-56,0,-14,-53,-53,-53,-39
-34,-73,-39,53,2,-56,0,-14,-53,-53,-53,-39
-34,-78,-43,56,4,-61,0,-14,-48,-48,-53,-39
-29,-78,-48,53,9,-63,0,-19,-48,-48,-53,-34
-29,-68,-39,48,4,-53,-9,-29,-58,-58,-53,-43
-24,-63,-39,43,7,-51,-14,-29,-58,-58,-58,-43
-24,-58,-34,41,4,-46,-14,-29,-53,-53,-63,-43
-24,-58,-34,41,4,-46,-19,-24,-53,-53,-68,-43
-34,-48,-14,41,-9,-31,-19,-34,-63,-53,-68,-43
-34,-48,-14,41,-9,-31,-19,-34,-58,-53,-68,-39
-29,-48,-19,39,-4,-34,-19,-34,-58,-53,-63,-39
-29,-48,-19,39,-4,-34,-19,-34,-58,-53,-63,-39
-29,-58,-29,43,0,-43,-9,-34,-48,-48,-58,-29
-24,-58,-34,41,4,-46,-9,-34,-48,-48,-53,-29
-24,-58,-34,41,4,-46,-9,-34,-48,-48,-53,-24
-29,-58,-29,43,0,-43,-9,-34,-53,-43,-53,-24
-19,-48,-29,34,4,-39,-19,-34,-53,-43,-43,-34
-19,-48,-29,34,4,-39,-19,-34,-53,-43,-43,-34
-19,-43,-24,31,2,-34,-19,-34,-53,-43,-43,-29
-14,-39,-24,26,4,-31,-19,-34,-53,-43,-39,-29
-14,-29,-14,21,0,-21,-29,-34,-53,-39,-48,-29
-9,-29,-19,19,4,-24,-29,-34,-48,-34,-43,-29
-9,-29,-19,19,4,-24,-34,-34,-43,-24,-43,-24
-9,-29,-19,19,4,-24,-34,-34,-43,-19,-43,-24
-19,-39,-19,29,0,-29,-24,-34,-43,-24,-29,-14
-14,-39,-24,26,4,-31,-29,-34,-43,-24,-24,-14
-14,-34,-19,24,2,-26,-29,-29,-43,-19,-24,-9
-14,-34,-19,24,2,-26,-29,-29,-43,-19,-24,-9
-24,-34,-9,29,-7,-21,-29,-29,-34,-19,-29,-14
-24,-34,-9,29,-7,-21,-29,-29,-39,-19,-29,-9
-24,-29,-4,26,-9,-17,-29,-29,-39,-14,-19,-9
-24,-29,-4,26,-9,-17,-34,-29,-39,-14,-19,-9
-14,-29,-14,21,0,-21,-34,-39,-48,-4,-14,0
-9,-29,-19,19,4,-24,-34,-39,-43,-4,-14,0
-9,-24,-14,17,2,-19,-34,-39,-39,-4,-14,0
-9,-24,-14,17,2,-19,-34,-39,-39,-4,-9,9
-9,-34,-24,21,7,-29,-34,-34,-48,0,-4,14
-4,-29,-24,17,9,-26,-39,-34,-48,0,0,19
-4,-29,-24,17,9,-26,-39,-34,-48,0,4,19
-4,-29,-24,17,9,-26,-43,-34,-43,4,4,24
0,-24,-24,12,12,-24,-53,-43,-43,0,0,19
0,-19,-19,9,9,-19,-58,-43,-43,4,0,19
0,-19,-19,9,9,-19,-58,-39,-43,9,4,24
0,-14,-14,7,7,-14,-63,-39,-43,14,9,24
14,-24,-39,4,26,-31,-63,-48,-43,14,24,19
14,-14,-29,0,21,-21,-63,-48,-39,19,29,29
19,-9,-29,-4,24,-19,-63,-48,-39,24,34,34
19,-9,-29,-4,24,-19,-68,-48,-34,29,39,39
24,4,-19,-14,21,-7,-73,-48,-34,34,48,53
29,4,-24,-17,26,-9,-73,-48,-34,39,53,58
29,4,-24,-17,26,-9,-78,-53,-34,39,63,63
29,9,-19,-19,24,-4,-78,-53,-34,43,68,73
29,24,-4,-26,17,9,-92,-53,-43,39,73,68
29,29,0,-29,14,14,-97,-63,-39,43,78,73
29,34,4,-31,12,19,-102,-68,-39,48,78,82
34,39,4,-36,14,21,-107,-68,-39,58,87,87
39,34,-4,-36,21,14,-122,-78,-29,78,102,97
43,39,-4,-41,24,17,-122,-87,-29,82,117,117
43,43,0,-43,21,21,-126,-92,-29,87,131,131
48,48,0,-48,24,24,-131,-92,-29,97,146,141
53,43,-9,-48,31,17,-141,-87,-39,97,156,151
53,53,0,-53,26,26,-146,-92,-39,102,165,161
58,53,-4,-56,31,24,-151,-97,-39,112,170,165
63,63,0,-63,31,31,-156,-102,-39,117,180,170
58,78,19,-68,19,48,-151,-117,-48,117,190,170
58,78,19,-68,19,48,-161,-122,-48,122,200,180
63,87,24,-75,19,56,-165,-126,-53,126,204,185
63,102,39,-82,12,70,-175,-131,-53,131,214,195
82,117,34,-100,24,75,-190,-136,-43,141,239,209
82,122,39,-102,21,80,-190,-141,-43,151,253,224
82,122,39,-102,21,80,-200,-141,-48,161,268,239
82,126,43,-104,19,85,-204,-146,-48,170,283,253
82,131,48,-107,17,90,-209,-151,-48,161,283,253
87,136,48,-112,19,92,-209,-156,-53,170,283,258
87,141,53,-114,17,97,-219,-161,-53,175,292,263
92,146,53,-119,19,100,-219,-170,-58,175,292,268
102,161,58,-131,21,109,-239,-175,-58,175,302,278
102,161,58,-131,21,109,-239,-185,-58,175,302,283
107,165,58,-136,24,112,-248,-190,-68,175,312,283
112,170,58,-141,26,114,-253,-190,-73,175,312,287
112,161,48,-136,31,104,-258,-195,-73,175,307,283
112,161,48,-136,31,104,-258,-195,-73,170,307,283
117,161,43,-139,36,102,-258,-195,-73,170,307,278
117,156,39,-136,39,97,-258,-185,-73,165,302,278
122,151,29,-136,46,90,-248,-175,-73,156,292,273
122,146,24,-134,48,85,-244,-170,-78,151,268,263
122,136,14,-129,53,75,-239,-170,-78,141,258,239
117,131,14,-124,51,73,-234,-161,-73,131,234,224
107,112,4,-109,51,58,-214,-141,-63,126,234,209
107,102,-4,-104,56,48,-209,-131,-63,122,214,200
102,87,-14,-95,58,36,-195,-117,-58,117,195,185
97,78,-19,-87,58,29,-180,-107,-58,102,180,170
82,82,0,-82,41,41,-180,-92,-53,97,156,156
73,73,0,-73,36,36,-165,-78,-43,87,136,136
73,63,-9,-68,41,26,-151,-68,-39,73,117,126
68,53,-14,-61,41,19,-136,-53,-34,53,92,117
68,48,-19,-58,43,14,-122,-39,-34,63,82,92
58,39,-19,-48,39,9,-112,-29,-24,58,73,68
48,29,-19,-39,34,4,-97,-24,-19,48,63,53
43,29,-14,-36,29,7,-87,-14,-14,48,48,43
24,9,-14,-17,19,-2,-73,4,-4,53,39,43
14,4,-9,-9,12,-2,-58,9,4,48,39,34
4,-4,-9,0,7,-7,-48,14,9,48,34,24
0,-14,-14,7,7,-14,-34,19,19,43,24,9
0,-14,-14,7,7,-14,-34,9,19,29,9,0
0,-14,-14,7,7,-14,-29,9,19,24,-4,-4
-9,-24,-14,17,2,-19,-24,14,19,19,-14,-14
-14,-24,-9,19,-2,-17,-24,14,14,9,-24,-24
-19,-24,-4,21,-7,-14,-24,14,14,14,-19,-24
-24,-19,4,21,-14,-7,-24,9,14,9,-19,-24
-34,-19,14,26,-24,-2,-19,9,14,9,-29,-29
-34,-19,14,26,-24,-2,-19,9,14,9,-29,-29
-34,-29,4,31,-19,-12,-14,0,4,-4,-39,-34
-39,-34,4,36,-21,-14,-9,0,4,-9,-48,-39
-43,-34,9,39,-26,-12,-9,0,0,-14,-48,-39
-43,-39,4,41,-24,-17,-9,0,0,-19,-53,-39
-53,-39,14,46,-34,-12,-19,-4,-9,-24,-63,-53
-58,-39,19,48,-39,-9,-24,-4,-19,-24,-68,-58
-58,-39,19,48,-39,-9,-24,-9,-19,-29,-68,-58
-58,-39,19,48,-39,-9,-24,-9,-19,-29,-73,-58
-53,-39,14,46,-34,-12,-9,0,-19,-19,-63,-48
-53,-39,14,46,-34,-12,-9,-4,-14,-19,-63,-53
-53,-39,14,46,-34,-12,-4,-4,-9,-24,-63,-53
-58,-39,19,48,-39,-9,-4,-4,-4,-24,-63,-53
-68,-39,29,53,-48,-4,0,4,-4,-19,-58,-43
-68,-48,19,58,-43,-14,0,4,-4,-19,-58,-48
-68,-48,19,58,-43,-14,0,0,-9,-14,-53,-48
-68,-43,24,56,-46,-9,4,0,-9,-9,-48,-48
-63,-53,9,58,-36,-21,-4,-9,-9,-14,-58,-58
-63,-53,9,58,-36,-21,-4,-9,-14,-19,-63,-58
-63,-53,9,58,-36,-21,-4,-9,-14,-24,-68,-58
-63,-53,9,58,-36,-21,-4,-9,-14,-29,-73,-58
-73,-63,9,68,-41,-26,-14,-14,-24,-39,-82,-68
-68,-63,4,65,-36,-29,-9,-14,-24,-43,-87,-73
-68,-58,9,63,-39,-24,-9,-14,-29,-48,-97,-82
-73,-58,14,65,-43,-21,-9,-14,-29,-58,-102,-87
-63,-68,-4,65,-29,-36,0,-9,-29,-53,-92,-87
-63,-68,-4,65,-29,-36,0,-9,-24,-53,-92,-87
-63,-68,-4,65,-29,-36,0,-9,-24,-48,-97,-87
-63,-68,-4,65,-29,-36,0,-9,-24,-43,-97,-87
-63,-68,-4,65,-29,-36,0,-9,-24,-53,-107,-102
-63,-68,-4,65,-29,-36,0,-9,-24,-53,-107,-102
-63,-68,-4,65,-29,-36,0,-9,-24,-53,-102,-97
-63,-68,-4,65,-29,-36,0,-9,-24,-48,-102,-92
-63,-68,-4,65,-29,-36,0,-4,-14,-39,-92,-82
-63,-73,-9,68,-26,-41,0,-4,-9,-39,-92,-82
-63,-73,-9,68,-26,-41,0,0,-9,-39,-92,-82
-63,-68,-4,65,-29,-36,0,0,-9,-39,-92,-82
-63,-68,-4,65,-29,-36,0,-9,-19,-43,-97,-82
-63,-68,-4,65,-29,-36,0,-9,-19,-43,-97,-82
-63,-68,-4,65,-29,-36,0,-9,-19,-43,-97,-82
-63,-68,-4,65,-29,-36,0,-9,-19,-43,-97,-78
-73,-68,4,70,-39,-31,0,0,-19,-43,-97,-78
-73,-68,4,70,-39,-31,0,0,-19,-43,-97,-78
-73,-63,9,68,-41,-26,0,0,-19,-43,-97,-78
-73,-58,14,65,-43,-21,0,0,-19,-39,-97,-78
-73,-63,9,68,-41,-26,0,0,-19,-34,-87,-68
-68,-68,0,68,-34,-34,0,4,-14,-34,-82,-68
-68,-73,-4,70,-31,-39,0,4,-14,-34,-78,-68
-68,-78,-9,73,-29,-43,0,4,-14,-34,-73,-68
-68,-82,-14,75,-26,-48,9,4,-4,-24,-78,-78
-68,-82,-14,75,-26,-48,9,4,-4,-24,-78,-78
-68,-78,-9,73,-29,-43,9,4,-4,-24,-78,-78
-68,-78,-9,73,-29,-43,9,4,0,-24,-78,-73
-58,-73,-14,65,-21,-43,4,-4,0,-34,-78,-68
-58,-73,-14,65,-21,-43,4,4,0,-29,-68,-63
-58,-73,-14,65,-21,-43,4,4,0,-24,-68,-63
-58,-68,-9,63,-24,-39,4,4,0,-24,-68,-63
-68,-68,0,68,-34,-34,4,9,0,-24,-68,-68
-68,-68,0,68,-34,-34,4,9,0,-24,-63,-68
-68,-68,0,68,-34,-34,0,9,0,-19,-63,-68
-68,-68,0,68,-34,-34,0,14,0,-19,-63,-68
-68,-73,-4,70,-31,-39,9,14,9,-9,-63,-68
-68,-73,-4,70,-31,-39,9,9,9,-9,-58,-73
-63,-73,-9,68,-26,-41,9,9,9,-14,-58,-73
-63,-73,-9,68,-26,-41,9,14,9,-14,-58,-68
-53,-68,-14,61,-19,-41,0,4,0,-19,-68,-58
-53,-63,-9,58,-21,-36,0,4,0,-19,-68,-58
-53,-58,-4,56,-24,-31,0,4,4,-19,-68,-58
-53,-48,4,51,-29,-21,0,4,4,-19,-68,-58
-43,-58,-14,51,-14,-36,0,14,4,-19,-58,-48
-43,-63,-19,53,-12,-41,0,14,4,-19,-58,-48
-43,-63,-19,53,-12,-41,0,9,4,-19,-58,-43
-43,-58,-14,51,-14,-36,0,9,4,-19,-63,-43
-43,-63,-19,53,-12,-41,9,19,4,-14,-53,-43
-43,-63,-19,53,-12,-41,4,19,0,-14,-53,-43
-43,-63,-19,53,-12,-41,4,19,0,-14,-53,-43
-43,-63,-19,53,-12,-41,4,19,0,-14,-53,-48
-43,-48,-4,46,-19,-26,0,9,0,-14,-53,-48
-43,-48,-4,46,-19,-26,-4,9,0,-14,-53,-48
-43,-43,0,43,-21,-21,-9,9,0,-14,-53,-48
-43,-39,4,41,-24,-17,-14,9,0,-14,-53,-48
-34,-39,-4,36,-14,-21,-24,0,0,-24,-63,-48
-34,-39,-4,36,-14,-21,-24,0,-4,-24,-63,-48
-34,-39,-4,36,-14,-21,-24,0,-4,-24,-68,-48
-34,-39,-4,36,-14,-21,-24,-4,-4,-29,-68,-48
-43,-53,-9,48,-17,-31,-14,4,-4,-19,-68,-68
-53,-53,0,53,-26,-26,-14,4,-9,-19,-68,-68
-48,-48,0,48,-24,-24,-19,0,-9,-29,-68,-68
-58,-58,0,58,-29,-29,-29,0,-19,-29,-58,-63
-58,-58,0,58,-29,-29,-29,0,-19,-29,-58,-58
-58,-58,0,58,-29,-29,-29,0,-19,-29,-58,-53
-58,-58,0,58,-29,-29,-29,0,-19,-29,-58,-48
-58,-58,0,58,-29,-29,-24,0,-14,-19,-48,-43
-58,-58,0,58,-29,-29,-19,-4,-14,-19,-53,-43
-58,-58,0,58,-29,-29,-19,-4,-14,-24,-58,-39
-58,-63,-4,61,-26,-34,-14,-4,-19,-24,-58,-34
-58,-53,4,56,-31,-24,-19,-14,-19,-24,-58,-43
-58,-48,9,53,-34,-19,-19,-14,-19,-24,-58,-43
-63,-48,14,56,-39,-17,-19,-14,-19,-24,-58,-43
-63,-48,14,56,-39,-17,-19,-14,-19,-24,-58,-43
-58,-39,19,48,-39,-9,-29,-19,-29,-29,-63,-48
-58,-39,19,48,-39,-9,-29,-19,-29,-34,-73,-58
-63,-39,24,51,-43,-7,-29,-19,-29,-34,-78,-63
-63,-39,24,51,-43,-7,-29,-19,-29,-34,-82,-68
-73,-43,29,58,-51,-7,-24,-9,-19,-34,-82,-68
-73,-48,24,61,-48,-12,-19,-9,-19,-34,-82,-68
-73,-53,19,63,-46,-17,-14,-9,-14,-34,-78,-68
-73,-58,14,65,-43,-21,-4,-4,-14,-29,-78,-63
-68,-53,14,61,-41,-19,0,0,0,-24,-68,-58
-68,-43,24,56,-46,-9,9,0,0,-24,-63,-53
-68,-39,29,53,-48,-4,14,4,4,-24,-63,-48
-68,-24,43,46,-56,9,19,14,9,-19,-58,-43
-48,-24,24,36,-36,0,9,24,14,-24,-63,-53
-48,-24,24,36,-36,0,14,29,9,-14,-63,-53
-48,-24,24,36,-36,0,14,29,9,-14,-68,-48
-48,-24,24,36,-36,0,14,24,4,-14,-73,-48
-48,-39,9,43,-29,-14,4,24,0,-19,-78,-58
-48,-39,9,43,-29,-14,4,24,0,-19,-78,-58
-48,-39,9,43,-29,-14,9,29,4,-19,-78,-63
-48,-43,4,46,-26,-19,19,29,9,-19,-78,-63
-39,-43,-4,41,-17,-24,29,48,14,-4,-63,-58
-43,-43,0,43,-21,-21,43,63,29,4,-53,-48
-43,-34,9,39,-26,-12,68,82,43,19,-34,-39
-39,-29,9,34,-24,-9,87,97,68,43,-24,-34
-43,-39,4,41,-24,-17,82,97,78,43,-24,-34
-39,-34,4,36,-21,-14,78,102,73,48,-24,-34
-34,-29,4,31,-19,-12,63,87,68,43,-29,-34
-29,-24,4,26,-17,-9,29,68,58,34,-34,-34
-39,-34,4,36,-21,-14,4,39,34,19,-34,-34
-39,-34,4,36,-21,-14,-34,9,19,9,-43,-39
-39,-34,4,36,-21,-14,-68,-19,0,-4,-43,-39
-34,-39,-4,36,-14,-21,-87,-39,-19,-19,-48,-43
-34,-43,-9,39,-12,-26,-87,-43,-24,-24,-58,-34
-39,-53,-14,46,-12,-34,-82,-48,-34,-39,-63,-34
-39,-58,-19,48,-9,-39,-78,-48,-43,-53,-68,-39
-43,-68,-24,56,-9,-46,-73,-53,-58,-63,-82,-48
-58,-73,-14,65,-21,-43,-82,-58,-78,-73,-97,-58
-63,-78,-14,70,-24,-46,-82,-73,-92,-82,-107,-58
-68,-78,-9,73,-29,-43,-87,-87,-97,-92,-112,-63
-78,-78,0,78,-39,-39,-87,-92,-112,-97,-117,-68
-68,-73,-4,70,-31,-39,-92,-97,-112,-107,-131,-73
-73,-78,-4,75,-34,-41,-92,-97,-112,-107,-136,-82
-78,-73,4,75,-41,-34,-87,-87,-107,-112,-136,-92
-82,-78,4,80,-43,-36,-78,-87,-102,-112,-141,-102
-82,-78,4,80,-43,-36,-78,-82,-107,-112,-131,-92
-82,-82,0,82,-41,-41,-63,-78,-97,-107,-131,-92
-82,-87,-4,85,-39,-46,-58,-78,-97,-102,-131,-92
-82,-87,-4,85,-39,-46,-53,-78,-92,-102,-126,-92
-87,-102,-14,95,-36,-58,-39,-63,-82,-92,-117,-87
-87,-102,-14,95,-36,-58,-39,-58,-82,-87,-117,-82
-87,-102,-14,95,-36,-58,-39,-58,-82,-87,-117,-82
-87,-107,-19,97,-34,-63,-39,-58,-82,-87,-117,-78
-92,-107,-14,100,-39,-61,-43,-58,-82,-87,-122,-82
-92,-107,-14,100,-39,-61,-43,-58,-82,-87,-122,-87
-92,-107,-14,100,-39,-61,-43,-58,-82,-87,-122,-92
-92,-107,-14,100,-39,-61,-43,-58,-82,-87,-122,-97
-92,-112,-19,102,-36,-65,-53,-58,-82,-87,-131,-102
-92,-112,-19,102,-36,-65,-53,-58,-82,-87,-131,-102
-92,-112,-19,102,-36,-65,-53,-58,-82,-87,-131,-97
-92,-107,-14,100,-39,-61,-53,-58,-82,-87,-131,-97
-82,-112,-29,97,-26,-70,-43,-58,-82,-92,-122,-87
-87,-112,-24,100,-31,-68,-43,-58,-82,-92,-122,-87
-87,-117,-29,102,-29,-73,-43,-58,-82,-92,-122,-87
-87,-117,-29,102,-29,-73,-43,-58,-82,-92,-122,-87
-87,-117,-29,102,-29,-73,-34,-48,-73,-82,-112,-92
-87,-117,-29,102,-29,-73,-34,-48,-73,-82,-112,-92
-87,-117,-29,102,-29,-73,-34,-48,-78,-87,-112,-92
-87,-117,-29,102,-29,-73,-34,-48,-78,-87,-122,-92
-87,-107,-19,97,-34,-63,-39,-58,-87,-87,-131,-92
-87,-102,-14,95,-36,-58,-39,-58,-82,-87,-126,-92
-87,-102,-14,95,-36,-58,-39,-58,-82,-87,-126,-92
-87,-102,-14,95,-36,-58,-39,-58,-82,-87,-126,-92
-78,-92,-14,85,-31,-53,-48,-58,-82,-87,-126,-82
-78,-92,-14,85,-31,-53,-48,-58,-82,-87,-126,-82
-78,-92,-14,85,-31,-53,-48,-53,-82,-87,-126,-82
-78,-92,-14,85,-31,-53,-48,-53,-82,-87,-126,-82
-87,-92,-4,90,-41,-48,-34,-39,-73,-87,-117,-97
-87,-117,-29,102,-29,-73,-4,-9,-48,-78,-122,-107
-87,-131,-43,109,-21,-87,4,14,-34,-73,-131,-112
-97,-131,-34,114,-31,-82,24,39,-29,-73,-151,-141
-97,-131,-34,114,-31,-82,39,73,4,-53,-151,-161
-97,-131,-34,114,-31,-82,73,126,53,-19,-141,-165
-97,-136,-39,117,-29,-87,102,185,112,19,-112,-156
-78,-136,-58,107,-9,-97,131,234,175,73,-78,-146
-53,-126,-73,90,9,-100,146,287,239,136,-24,-107
-4,-126,-122,65,58,-124,146,351,297,209,68,-39
58,-102,-161,21,109,-131,136,390,356,307,185,53
131,-34,-165,-48,148,-100,102,429,424,419,326,190
204,53,-151,-129,178,-48,58,434,497,541,478,326
287,136,-151,-212,219,-7,0,409,536,653,639,483
375,229,-146,-302,261,41,-68,375,590,780,824,673
463,317,-146,-390,305,85,-131,312,600,878,995,834
522,395,-126,-458,324,134,-204,239,585,946,1132,971
570,458,-112,-514,341,173,-258,190,566,1000,1263,1083
614,478,-136,-546,375,170,-287,165,556,1034,1351,1180
619,483,-136,-551,378,173,-287,151,512,1005,1356,1205
580,444,-136,-512,358,153,-248,131,448,897,1234,1117
488,361,-126,-424,307,117,-190,126,361,702,951,917
356,253,-102,-305,229,75,-102,122,239,405,556,614
200,146,-53,-173,126,46,14,107,97,87,141,273
19,82,63,-51,-21,73,131,102,4,-122,-161,19
-161,53,214,53,-187,134,219,97,-29,-214,-326,-141
-292,4,297,143,-295,151,268,87,-48,-283,-444,-268
-351,-43,307,197,-329,131,297,78,-73,-322,-507,-341
-370,-48,322,209,-346,136,307,78,-53,-302,-492,-346
-366,-48,317,207,-341,134,307,73,-29,-268,-448,-331
-366,-48,317,207,-341,134,322,58,-39,-268,-439,-331
-366,-63,302,214,-334,119,336,43,-48,-268,-434,-331
-351,-63,287,207,-319,112,375,73,-29,-258,-414,-336
-341,-68,273,204,-307,102,409,82,-19,-248,-395,-317
-331,-68,263,200,-297,97,400,19,-68,-258,-370,-302
-312,-68,244,190,-278,87,346,-102,-151,-278,-361,-283
-297,-68,229,183,-263,80,224,-229,-244,-302,-351,-258
-263,-58,204,161,-234,73,68,-346,-322,-317,-331,-229
-234,-39,195,136,-214,78,-63,-390,-356,-317,-302,-190
-195,-39,156,117,-175,58,-112,-366,-336,-292,-258,-151
-165,-39,126,102,-146,43,-126,-317,-302,-253,-219,-146
-161,-39,122,100,-141,41,-107,-263,-263,-219,-200,-141
-146,-39,107,92,-126,34,-92,-214,-229,-195,-190,-136
-126,-43,82,85,-104,19,-73,-165,-195,-161,-175,-126
-112,-48,63,80,-87,7,-53,-131,-151,-131,-151,-112
-112,-63,48,87,-80,-7,-39,-97,-122,-107,-141,-102
-102,-82,19,92,-61,-31,-29,-68,-102,-92,-126,-82
-97,-78,19,87,-58,-29,-34,-53,-82,-87,-117,-78
-92,-73,19,82,-56,-26,-34,-53,-78,-97,-117,-82
-82,-73,9,78,-46,-31,-43,-48,-87,-87,-117,-92
-73,-73,0,73,-36,-36,-43,-43,-87,-82,-112,-92
-68,-73,-4,70,-31,-39,-43,-43,-82,-73,-112,-92
-63,-73,-9,68,-26,-41,-48,-39,-82,-68,-102,-87
-58,-78,-19,68,-19,-48,-39,-29,-78,-68,-102,-82
-58,-82,-24,70,-17,-53,-39,-29,-68,-68,-97,-82
-58,-92,-34,75,-12,-63,-39,-29,-68,-73,-97,-82
-58,-97,-39,78,-9,-68,-39,-29,-68,-73,-97,-78
-63,-102,-39,82,-12,-70,-43,-39,-68,-82,-97,-78
-63,-102,-39,82,-12,-70,-43,-43,-68,-82,-97,-78
-63,-102,-39,82,-12,-70,-48,-43,-73,-82,-92,-73
-63,-102,-39,82,-12,-70,-48,-39,-73,-78,-92,-73
-63,-87,-24,75,-19,-56,-58,-43,-73,-73,-92,-78
-63,-82,-19,73,-21,-51,-58,-43,-73,-73,-92,-78
-63,-82,-19,73,-21,-51,-58,-43,-68,-68,-92,-78
-58,-78,-19,68,-19,-48,-58,-48,-68,-68,-92,-73
-58,-87,-29,73,-14,-58,-48,-39,-68,-58,-78,-63
-53,-82,-29,68,-12,-56,-53,-39,-68,-58,-78,-63
-53,-78,-24,65,-14,-51,-53,-39,-63,-53,-78,-63
-53,-78,-24,65,-14,-51,-58,-34,-63,-53,-78,-63
-43,-78,-34,61,-4,-56,-48,-34,-63,-53,-68,-73
-43,-78,-34,61,-4,-56,-48,-34,-58,-53,-68,-68
-39,-78,-39,58,0,-58,-48,-34,-58,-53,-63,-68
-39,-78,-39,58,0,-58,-48,-34,-58,-53,-63,-68
-48,-78,-29,63,-9,-53,-58,-34,-68,-48,-68,-58
-43,-78,-34,61,-4,-56,-58,-34,-68,-48,-63,-58
-43,-78,-34,61,-4,-56,-58,-34,-68,-48,-63,-53
-48,-78,-29,63,-9,-53,-58,-34,-73,-43,-63,-53
-48,-78,-29,63,-9,-53,-58,-34,-68,-43,-53,-43
-48,-78,-29,63,-9,-53,-58,-34,-63,-43,-53,-43
-48,-73,-24,61,-12,-48,-58,-34,-58,-43,-53,-39
-43,-68,-24,56,-9,-46,-58,-34,-53,-43,-48,-39
-34,-68,-34,51,0,-51,-58,-24,-63,-43,-58,-48
-29,-68,-39,48,4,-53,-58,-24,-58,-43,-53,-48
-29,-68,-39,48,4,-53,-63,-24,-53,-39,-53,-43
-29,-68,-39,48,4,-53,-63,-24,-53,-39,-53,-43
-29,-63,-34,46,2,-48,-63,-24,-53,-43,-48,-43
-24,-58,-34,41,4,-46,-68,-24,-53,-43,-43,-43
-24,-48,-24,36,0,-36,-68,-19,-53,-39,-43,-39
-24,-43,-19,34,-2,-31,-68,-19,-53,-39,-43,-39
-24,-53,-29,39,2,-41,-58,-29,-43,-34,-29,-24
-24,-53,-29,39,2,-41,-58,-29,-48,-29,-29,-19
-24,-48,-24,36,0,-36,-58,-29,-48,-19,-19,-19
-24,-48,-24,36,0,-36,-63,-29,-48,-14,-19,-19
-24,-48,-24,36,0,-36,-63,-29,-48,4,-4,-9
-19,-48,-29,34,4,-39,-63,-29,-43,4,-4,-9
-19,-43,-24,31,2,-34,-63,-29,-39,4,-4,-9
-19,-43,-24,31,2,-34,-63,-29,-39,4,0,0
-14,-29,-14,21,0,-21,-68,-34,-39,0,-4,4
-4,-19,-14,12,4,-17,-78,-34,-39,0,0,9
0,-14,-14,7,7,-14,-82,-34,-39,0,4,9
4,-9,-14,2,9,-12,-92,-34,-34,4,4,14
0,-14,-14,7,7,-14,-82,-43,-34,9,9,19
0,-9,-9,4,4,-9,-87,-43,-34,14,9,19
0,-9,-9,4,4,-9,-87,-39,-34,19,14,24
0,-4,-4,2,2,-4,-92,-39,-34,24,19,24
4,-4,-9,0,7,-7,-102,-48,-43,24,34,39
4,4,0,-4,2,2,-102,-48,-39,29,39,48
9,9,0,-9,4,4,-102,-48,-39,34,43,53
9,9,0,-9,4,4,-107,-48,-34,39,48,58
14,19,4,-17,4,12,-112,-58,-34,43,58,63
19,24,4,-21,7,14,-112,-58,-34,48,63,68
19,29,9,-24,4,19,-117,-63,-34,48,73,73
19,39,19,-29,0,29,-117,-63,-34,53,78,82
19,43,24,-31,-2,34,-131,-63,-43,58,87,87
19,48,29,-34,-4,39,-136,-73,-39,63,97,92
19,53,34,-36,-7,43,-141,-78,-39,68,102,102
24,58,34,-41,-4,46,-146,-78,-39,78,117,107
39,68,29,-53,4,48,-161,-87,-39,78,117,112
43,78,34,-61,4,56,-161,-97,-39,82,126,126
43,87,43,-65,0,65,-165,-102,-39,87,136,136
48,97,48,-73,0,73,-170,-102,-39,97,146,141
43,92,48,-68,-2,70,-170,-97,-29,117,161,161
43,102,58,-73,-7,80,-175,-102,-29,122,175,170
48,102,53,-75,-2,78,-180,-107,-29,131,185,175
53,112,58,-82,-2,85,-185,-112,-29,136,200,180
58,126,68,-92,-4,97,-190,-117,-39,136,219,200
58,126,68,-92,-4,97,-200,-122,-39,141,229,209
63,136,73,-100,-4,104,-204,-126,-43,146,234,214
63,151,87,-107,-12,119,-214,-131,-43,151,244,224
73,156,82,-114,-4,119,-229,-146,-43,165,253,234
73,161,87,-117,-7,124,-229,-151,-43,170,263,244
73,161,87,-117,-7,124,-239,-151,-48,175,273,253
73,165,92,-119,-9,129,-244,-156,-48,180,283,263
82,170,87,-126,-2,129,-248,-170,-58,175,283,253
87,175,87,-131,0,131,-248,-175,-63,180,283,258
87,180,92,-134,-2,136,-258,-180,-63,180,292,263
92,185,92,-139,0,139,-258,-190,-68,175,292,268
92,190,97,-141,-2,143,-268,-185,-78,165,292,278
92,190,97,-141,-2,143,-268,-195,-78,165,292,283
97,195,97,-146,0,146,-278,-200,-87,165,302,283
102,200,97,-151,2,148,-283,-200,-92,165,302,287
112,200,87,-156,12,143,-297,-214,-92,175,297,283
112,200,87,-156,12,143,-297,-214,-92,170,297,283
117,200,82,-158,17,141,-297,-214,-92,170,297,278
117,195,78,-156,19,136,-297,-204,-92,165,292,278
112,185,73,-148,19,129,-287,-195,-82,165,287,268
112,175,63,-143,24,119,-283,-190,-87,161,268,263
112,161,48,-136,31,104,-278,-190,-87,151,263,244
107,151,43,-129,31,97,-273,-180,-82,141,244,234
97,126,29,-112,34,78,-258,-165,-73,117,234,209
97,112,14,-104,41,63,-248,-151,-73,112,214,200
92,92,0,-92,46,46,-229,-131,-68,107,195,185
87,78,-9,-82,48,34,-209,-117,-68,92,180,170
82,73,-9,-78,46,31,-200,-102,-63,92,165,146
73,63,-9,-68,41,26,-185,-87,-53,87,146,126
73,53,-19,-63,46,17,-170,-78,-48,78,126,117
68,43,-24,-56,46,9,-156,-63,-43,63,102,107
58,39,-19,-48,39,9,-131,-39,-24,63,82,92
48,29,-19,-39,34,4,-122,-29,-14,58,73,68
39,19,-19,-29,29,0,-107,-24,-9,48,63,53
34,19,-14,-26,24,2,-97,-14,-4,48,48,43
34,4,-29,-19,31,-12,-87,-4,0,53,39,39
24,4,-19,-14,21,-7,-78,0,4,48,39,34
14,0,-14,-7,14,-7,-73,4,4,48,34,29
9,-4,-14,-2,12,-9,-63,9,9,43,24,19
0,-14,-14,7,7,-14,-68,9,9,39,14,9
0,-14,-14,7,7,-14,-58,9,9,34,4,4
-9,-24,-14,17,2,-19,-48,14,9,29,0,-4
-14,-24,-9,19,-2,-17,-43,14,4,19,-4,-14
-9,-29,-19,19,4,-24,-43,14,4,14,-19,-24
-14,-29,-14,21,0,-21,-43,9,4,9,-19,-24
-24,-34,-9,29,-7,-21,-39,9,4,9,-29,-29
-24,-39,-14,31,-4,-26,-39,9,4,9,-29,-29
-24,-39,-14,31,-4,-26,-34,0,4,4,-29,-43
-29,-43,-14,36,-7,-29,-29,0,4,0,-39,-48
-34,-43,-9,39,-12,-26,-29,0,0,-4,-39,-48
-34,-48,-14,41,-9,-31,-29,0,0,-9,-43,-48
-24,-39,-14,31,-4,-26,-29,-4,0,-4,-43,-43
-29,-39,-9,34,-9,-24,-34,-4,-9,-4,-48,-48
-29,-39,-9,34,-9,-24,-34,-9,-9,-9,-48,-48
-29,-39,-9,34,-9,-24,-34,-9,-9,-9,-53,-48
-34,-39,-4,36,-14,-21,-29,0,-4,-9,-43,-48
-34,-39,-4,36,-14,-21,-29,-4,-4,-9,-43,-53
-34,-39,-4,36,-14,-21,-24,-4,-4,-14,-43,-53
-39,-39,0,39,-19,-19,-24,-4,-4,-14,-43,-53
-39,-39,0,39,-19,-19,-19,-4,-4,-14,-43,-53
-39,-48,-9,43,-14,-29,-19,-4,-4,-19,-48,-58
-39,-48,-9,43,-14,-29,-19,-9,-9,-19,-48,-58
-39,-43,-4,41,-17,-24,-14,-9,-9,-19,-48,-58
-34,-43,-9,39,-12,-26,-14,0,-9,-19,-53,-58
-34,-43,-9,39,-12,-26,-14,0,-14,-19,-53,-58
-34,-43,-9,39,-12,-26,-14,0,-14,-19,-53,-58
-34,-43,-9,39,-12,-26,-14,0,-14,-19,-53,-58
-34,-53,-19,43,-7,-36,-24,0,-14,-14,-48,-53
-29,-53,-24,41,-2,-39,-19,-4,-14,-14,-48,-53
-29,-48,-19,39,-4,-34,-19,-9,-19,-14,-53,-58
-34,-48,-14,41,-9,-31,-19,-14,-19,-19,-53,-58
-34,-48,-14,41,-9,-31,-19,-9,-19,-19,-53,-58
-34,-48,-14,41,-9,-31,-19,-9,-14,-24,-53,-58
-34,-48,-14,41,-9,-31,-19,-9,-14,-24,-58,-58
-34,-48,-14,41,-9,-31,-19,-9,-14,-24,-58,-58
-34,-39,-4,36,-14,-21,-29,-9,-14,-24,-58,-63
-34,-39,-4,36,-14,-21,-29,-9,-14,-24,-58,-63
-34,-39,-4,36,-14,-21,-29,-9,-14,-24,-53,-58
-34,-39,-4,36,-14,-21,-29,-9,-14,-19,-53,-53
-43,-29,14,36,-29,-7,-29,-14,-14,-19,-43,-63
-43,-34,9,39,-26,-12,-29,-14,-9,-19,-43,-63
-43,-34,9,39,-26,-12,-29,-9,-9,-19,-43,-63
-43,-29,14,36,-29,-7,-29,-9,-9,-19,-43,-63
-43,-29,14,36,-29,-7,-19,-9,0,-24,-48,-63
-43,-29,14,36,-29,-7,-19,-9,0,-24,-48,-63
-43,-29,14,36,-29,-7,-19,-9,0,-24,-48,-63
-43,-29,14,36,-29,-7,-19,-9,0,-24,-48,-58
-43,-29,14,36,-29,-7,-19,-9,0,-14,-48,-48
-43,-29,14,36,-29,-7,-19,-9,0,-14,-48,-48
-43,-24,19,34,-31,-2,-19,-9,0,-14,-48,-48
-43,-19,24,31,-34,2,-19,-9,0,-9,-48,-48
-43,-19,24,31,-34,2,-19,-9,-9,-14,-53,-58
-39,-19,19,29,-29,0,-19,-4,-4,-14,-53,-58
-39,-19,19,29,-29,0,-19,-4,-4,-14,-53,-58
-39,-19,19,29,-29,0,-19,-4,-4,-14,-53,-58
-39,-24,14,31,-26,-4,-9,-4,4,-14,-48,-48
-39,-24,14,31,-26,-4,-9,-4,4,-14,-48,-48
-39,-19,19,29,-29,0,-9,-4,4,-14,-48,-48
-39,-19,19,29,-29,0,-9,-4,9,-14,-48,-43
-39,-14,24,26,-31,4,-4,-4,9,-4,-39,-39
-39,-14,24,26,-31,4,-4,4,9,0,-29,-34
-39,-14,24,26,-31,4,-4,4,9,4,-29,-34
-39,-9,29,24,-34,9,-4,4,9,4,-29,-34
-39,0,39,19,-39,19,-14,0,9,4,-29,-39
-39,0,39,19,-39,19,-14,0,9,4,-24,-39
-39,0,39,19,-39,19,-19,0,9,9,-24,-39
-39,0,39,19,-39,19,-19,4,9,9,-24,-39
-39,-14,24,26,-31,4,-9,4,9,0,-24,-39
-39,-14,24,26,-31,4,-9,0,9,0,-19,-43
-34,-14,19,24,-26,2,-9,0,9,-4,-19,-43
-34,-14,19,24,-26,2,-9,4,9,-4,-19,-39
-34,-14,19,24,-26,2,-19,-4,0,0,-29,-39
-34,-14,19,24,-26,2,-19,-4,0,0,-29,-39
-34,-14,19,24,-26,2,-19,-4,4,0,-29,-39
-34,-9,24,21,-29,7,-19,-4,4,0,-29,-39
-34,-9,24,21,-29,7,-19,-4,-4,-9,-29,-39
-34,-14,19,24,-26,2,-19,-4,-4,-9,-29,-39
-34,-14,19,24,-26,2,-19,-9,-4,-9,-29,-34
-34,-9,24,21,-29,7,-19,-9,-4,-9,-34,-34
-34,-9,24,21,-29,7,-19,-9,-4,-14,-34,-43
-34,-14,19,24,-26,2,-24,-9,-9,-14,-34,-43
-34,-19,14,26,-24,-2,-24,-9,-9,-14,-34,-43
-34,-24,9,29,-21,-7,-24,-9,-9,-14,-34,-48
-34,-34,0,34,-17,-17,-14,-9,-9,-14,-34,-39
-34,-39,-4,36,-14,-21,-14,-9,-9,-14,-34,-39
-34,-39,-4,36,-14,-21,-14,-9,-9,-14,-34,-39
-34,-39,-4,36,-14,-21,-14,-9,-9,-14,-34,-39
-34,-29,4,31,-19,-12,-24,-19,-9,-14,-34,-39
-34,-29,4,31,-19,-12,-24,-19,-14,-14,-34,-39
-34,-29,4,31,-19,-12,-24,-19,-14,-14,-39,-39
-34,-29,4,31,-19,-12,-24,-24,-14,-19,-39,-39
-34,-34,0,34,-17,-17,-24,-24,-14,-19,-39,-48
-34,-34,0,34,-17,-17,-24,-24,-19,-19,-39,-48
-34,-29,4,31,-19,-12,-24,-24,-19,-24,-39,-48
-34,-29,4,31,-19,-12,-24,-24,-24,-24,-39,-48
-34,-34,0,34,-17,-17,-24,-24,-24,-24,-39,-39
-39,-29,9,34,-24,-9,-29,-19,-19,-29,-39,-48
-39,-39,0,39,-19,-19,-29,-19,-19,-29,-48,-48
-39,-39,0,39,-19,-19,-29,-19,-19,-29,-48,-48
-39,-39,0,39,-19,-19,-29,-19,-19,-29,-48,-48
-39,-39,0,39,-19,-19,-29,-19,-19,-29,-48,-48
-39,-48,-9,43,-14,-29,-19,-29,-34,-39,-48,-58
-39,-48,-9,43,-14,-29,-19,-34,-34,-39,-53,-63
-39,-48,-9,43,-14,-29,-24,-34,-34,-43,-58,-63
-39,-53,-14,46,-12,-34,-24,-34,-39,-43,-58,-63
-39,-63,-24,51,-7,-43,-29,-34,-39,-43,-58,-63
-39,-58,-19,48,-9,-39,-29,-34,-39,-43,-58,-63
-43,-58,-14,51,-14,-36,-29,-34,-39,-43,-58,-63
-43,-58,-14,51,-14,-36,-29,-34,-39,-43,-58,-63
-39,-58,-19,48,-9,-39,-19,-29,-39,-39,-48,-53
-39,-58,-19,48,-9,-39,-19,-29,-39,-43,-53,-58
-43,-58,-14,51,-14,-36,-19,-29,-39,-43,-53,-58
-43,-58,-14,51,-14,-36,-19,-29,-39,-43,-53,-58
-34,-48,-14,41,-9,-31,-9,-29,-39,-34,-53,-58
-34,-48,-14,41,-9,-31,-9,-29,-39,-34,-53,-58
-34,-48,-14,41,-9,-31,-9,-29,-34,-34,-48,-58
-34,-48,-14,41,-9,-31,-4,-24,-34,-29,-48,-53
-19,-39,-19,29,0,-29,0,-19,-19,-34,-58,-53
-19,-34,-14,26,-2,-24,9,-19,-19,-34,-53,-53
-19,-34,-14,26,-2,-24,14,-14,-14,-34,-53,-53
-19,-24,-4,21,-7,-14,19,-4,-9,-29,-48,-53
-9,-14,-4,12,-2,-9,19,4,0,-14,-43,-43
-9,-14,-4,12,-2,-9,24,9,0,-4,-34,-43
-9,-14,-4,12,-2,-9,24,9,4,-4,-29,-39
-9,-14,-4,12,-2,-9,24,4,4,-4,-24,-39
-19,-19,0,19,-9,-9,24,4,0,0,-19,-29
-19,-19,0,19,-9,-9,24,4,0,0,-19,-29
-19,-19,0,19,-9,-9,29,9,4,0,-19,-34
-19,-24,-4,21,-7,-14,39,9,9,0,-19,-34
-9,-24,-14,17,2,-19,53,29,19,0,-29,-34
-14,-24,-9,19,-2,-17,63,43,29,4,-24,-29
-14,-14,0,14,-7,-7,82,63,39,14,-9,-24
-9,-9,0,9,-4,-4,97,78,58,34,-4,-24
-4,-9,-4,7,0,-7,102,82,63,29,0,-19
0,-4,-4,2,2,-4,97,92,63,39,4,-14
4,0,-4,-2,4,-2,82,82,63,39,4,-9
9,4,-4,-7,7,0,48,68,58,34,4,-4
0,4,4,-2,-2,4,19,34,39,14,-4,-14
0,4,4,-2,-2,4,-24,0,19,9,-14,-19
0,4,4,-2,-2,4,-63,-34,-4,0,-14,-19
4,0,-4,-2,4,-2,-87,-58,-29,-9,-19,-24
4,0,-4,-2,4,-2,-97,-63,-34,-14,-29,-24
0,-4,-4,2,2,-4,-92,-68,-43,-29,-34,-24
0,-4,-4,2,2,-4,-87,-68,-53,-43,-39,-29
-4,-9,-4,7,0,-7,-82,-73,-68,-53,-53,-39
-9,-14,-4,12,-2,-9,-92,-97,-78,-63,-48,-39
-14,-19,-4,17,-4,-12,-92,-112,-92,-73,-58,-39
-19,-19,0,19,-9,-9,-97,-126,-97,-82,-63,-43
-29,-19,9,24,-19,-4,-97,-131,-112,-87,-68,-48
-39,-9,29,24,-34,9,-92,-126,-107,-87,-82,-58
-43,-19,24,31,-34,2,-92,-126,-112,-87,-87,-63
-48,-19,29,34,-39,4,-87,-117,-112,-92,-87,-68
-53,-29,24,41,-39,-2,-78,-117,-112,-92,-92,-73
-43,-19,24,31,-34,2,-78,-102,-107,-92,-82,-63
-43,-24,19,34,-31,-2,-63,-97,-97,-87,-82,-63
-43,-29,14,36,-29,-7,-58,-97,-97,-82,-82,-63
-43,-29,14,36,-29,-7,-53,-97,-92,-82,-78,-63
-48,-24,24,36,-36,0,-58,-102,-92,-82,-78,-73
-48,-24,24,36,-36,0,-58,-97,-92,-78,-78,-73
-48,-24,24,36,-36,0,-58,-97,-92,-78,-78,-78
-48,-29,19,39,-34,-4,-58,-97,-92,-78,-78,-78
-53,-39,14,46,-34,-12,-53,-87,-92,-87,-82,-78
-53,-39,14,46,-34,-12,-53,-87,-92,-87,-82,-78
-53,-39,14,46,-34,-12,-53,-87,-92,-87,-82,-78
-53,-39,14,46,-34,-12,-53,-87,-92,-87,-82,-78
-53,-43,9,48,-31,-17,-43,-87,-92,-97,-82,-82
-53,-43,9,48,-31,-17,-43,-87,-92,-97,-82,-82
-53,-43,9,48,-31,-17,-43,-87,-92,-97,-82,-78
-53,-39,14,46,-34,-12,-43,-87,-92,-97,-82,-78
-53,-43,9,48,-31,-17,-43,-97,-102,-92,-92,-87
-58,-43,14,51,-36,-14,-43,-97,-102,-92,-92,-87
-58,-48,9,53,-34,-19,-43,-97,-102,-92,-92,-87
-58,-48,9,53,-34,-19,-43,-97,-102,-92,-92,-87
-48,-58,-9,53,-19,-34,-43,-97,-102,-92,-92,-82
-48,-58,-9,53,-19,-34,-43,-97,-102,-92,-92,-82
-48,-58,-9,53,-19,-34,-43,-97,-107,-97,-92,-82
-48,-58,-9,53,-19,-34,-43,-97,-107,-97,-102,-82
-48,-68,-19,58,-14,-43,-39,-97,-107,-97,-92,-92
-48,-63,-14,56,-17,-39,-39,-97,-102,-97,-87,-92
-48,-63,-14,56,-17,-39,-39,-97,-102,-97,-87,-92
-48,-63,-14,56,-17,-39,-39,-97,-102,-97,-87,-92
-58,-63,-4,61,-26,-34,-39,-87,-102,-87,-87,-82
-58,-63,-4,61,-26,-34,-39,-87,-102,-87,-87,-82
-58,-63,-4,61,-26,-34,-39,-82,-102,-87,-87,-82
-58,-63,-4,61,-26,-34,-39,-82,-102,-87,-87,-82
-58,-73,-14,65,-21,-43,-24,-68,-82,-87,-97,-97
-68,-78,-9,73,-29,-43,-4,-48,-78,-87,-112,-107
-68,-92,-24,80,-21,-58,24,-24,-63,-82,-122,-122
-68,-102,-34,85,-17,-68,43,9,-39,-82,-131,-141
-78,-102,-24,90,-26,-63,68,53,4,-63,-131,-151
-78,-112,-34,95,-21,-73,92,107,53,-29,-112,-156
-68,-107,-39,87,-14,-73,131,175,112,19,-92,-146
-58,-107,-48,82,-4,-78,161,234,165,73,-48,-126
-34,-107,-73,70,19,-90,185,297,239,146,14,-87
14,-97,-112,41,63,-104,185,361,297,219,107,-29
87,-73,-161,-7,124,-117,156,400,356,307,214,63
180,-14,-195,-82,187,-104,131,429,444,419,346,180
263,73,-190,-168,226,-58,87,444,517,541,497,317
356,165,-190,-261,273,-12,29,429,575,663,668,483
453,258,-195,-356,324,31,-39,405,619,790,854,644
522,346,-175,-434,348,85,-102,341,629,897,1015,795
590,405,-185,-497,387,109,-175,287,614,966,1151,932
649,448,-200,-549,424,124,-209,248,605,1019,1273,1044
702,468,-234,-585,468,117,-239,224,585,1034,1342,1112
707,463,-244,-585,475,109,-239,180,522,985,1317,1117
658,414,-244,-536,451,85,-200,151,448,858,1166,1019
575,351,-224,-463,400,63,-131,126,341,624,873,819
434,244,-190,-339,312,26,-34,112,200,326,478,527
258,136,-122,-197,190,7,63,58,29,19,102,234
58,63,4,-61,26,34,151,4,-82,-200,-170,9
-122,43,165,39,-143,104,229,-9,-126,-283,-326,-131
-253,34,287,109,-270,161,278,-19,-146,-341,-414,-229
-312,14,326,148,-319,170,287,-48,-161,-370,-458,-292
-331,9,341,161,-336,175,297,-58,-151,-351,-444,-307
-326,9,336,158,-331,173,326,-63,-156,-346,-429,-302
-317,0,317,158,-317,158,351,-78,-185,-356,-419,-302
-317,-4,312,161,-314,153,375,-73,-175,-336,-405,-302
-312,-14,297,163,-305,141,405,-73,-165,-326,-385,-297
-312,-29,283,170,-297,126,400,-141,-204,-336,-375,-297
-292,-39,253,165,-273,107,322,-253,-283,-356,-370,-283
-253,-39,214,146,-234,87,180,-375,-366,-375,-351,-263
-209,-29,180,119,-195,75,29,-444,-409,-370,-322,-229
-175,-19,156,97,-165,68,-78,-453,-419,-356,-283,-190
-136,-19,117,78,-126,48,-112,-419,-395,-317,-244,-151
-117,-19,97,68,-107,39,-122,-356,-346,-283,-219,-131
-107,-19,87,63,-97,34,-107,-287,-292,-244,-190,-117
-102,-9,92,56,-97,41,-78,-224,-234,-190,-161,-112
-78,-9,68,43,-73,29,-53,-175,-190,-156,-141,-107
-58,-14,43,36,-51,14,-34,-136,-156,-122,-117,-97
-43,-19,24,31,-34,2,-14,-102,-122,-102,-92,-82
-34,-24,9,29,-21,-7,-9,-87,-92,-87,-73,-73
-34,-24,9,29,-21,-7,-19,-78,-82,-92,-68,-73
-29,-29,0,29,-14,-14,-4,-73,-82,-87,-68,-68
-24,-34,-9,29,-7,-21,-4,-63,-78,-78,-68,-63
-29,-43,-14,36,-7,-29,-4,-58,-78,-78,-68,-63
-24,-43,-19,34,-2,-31,-4,-53,-78,-73,-63,-63
-24,-43,-19,34,-2,-31,-4,-53,-73,-63,-63,-63
-24,-43,-19,34,-2,-31,-9,-48,-73,-58,-53,-58
-19,-34,-14,26,-2,-24,-19,-43,-68,-58,-53,-63
-19,-34,-14,26,-2,-24,-19,-48,-58,-58,-48,-63
-19,-39,-19,29,0,-29,-19,-53,-58,-63,-48,-63
-19,-39,-19,29,0,-29,-19,-58,-58,-63,-48,-58
-14,-34,-19,24,2,-26,-24,-58,-68,-53,-48,-48
-14,-34,-19,24,2,-26,-24,-63,-68,-53,-48,-48
-14,-34,-19,24,2,-26,-29,-63,-73,-53,-43,-43
-14,-34,-19,24,2,-26,-29,-58,-73,-48,-43,-43
-14,-24,-9,19,-2,-17,-29,-53,-73,-53,-43,-48
-14,-24,-9,19,-2,-17,-29,-53,-73,-53,-43,-48
-14,-29,-14,21,0,-21,-29,-53,-68,-48,-43,-48
-9,-29,-19,19,4,-24,-29,-58,-68,-48,-43,-43
-19,-29,-9,24,-4,-19,-19,-58,-58,-48,-39,-43
-14,-24,-9,19,-2,-17,-24,-58,-58,-48,-39,-43
-14,-19,-4,17,-4,-12,-24,-58,-53,-43,-39,-43
-14,-19,-4,17,-4,-12,-29,-53,-53,-43,-39,-43
-14,-9,4,12,-9,-2,-29,-43,-53,-34,-29,-43
-14,-9,4,12,-9,-2,-29,-43,-48,-34,-29,-39
-9,-9,0,9,-4,-4,-29,-43,-48,-34,-24,-39
-9,-9,0,9,-4,-4,-29,-43,-48,-34,-24,-39
-19,-19,0,19,-9,-9,-19,-43,-48,-29,-19,-29
-14,-19,-4,17,-4,-12,-19,-43,-48,-29,-14,-29
-14,-19,-4,17,-4,-12,-19,-43,-48,-29,-14,-24
-19,-19,0,19,-9,-9,-19,-43,-53,-24,-14,-24
-9,-29,-19,19,4,-24,-19,-43,-53,-34,-14,-34
-9,-29,-19,19,4,-24,-19,-43,-53,-34,-14,-34
-9,-24,-14,17,2,-19,-19,-43,-53,-34,-14,-29
-4,-19,-14,12,4,-17,-19,-43,-53,-34,-9,-29
-4,-19,-14,12,4,-17,-29,-43,-63,-34,-19,-29
0,-19,-19,9,9,-19,-29,-43,-58,-34,-14,-29
0,-19,-19,9,9,-19,-34,-43,-53,-29,-14,-24
0,-19,-19,9,9,-19,-34,-43,-53,-29,-14,-24
0,-19,-19,9,9,-19,-34,-43,-53,-24,-9,-24
4,-19,-24,7,14,-21,-39,-43,-53,-24,-4,-24
4,-14,-19,4,12,-17,-39,-39,-53,-19,-4,-19
4,-14,-19,4,12,-17,-39,-39,-53,-19,-4,-19
4,-24,-29,9,17,-26,-39,-39,-43,-19,0,-14
4,-24,-29,9,17,-26,-39,-39,-48,-19,0,-9
4,-19,-24,7,14,-21,-39,-39,-48,-14,9,-9
4,-19,-24,7,14,-21,-43,-39,-48,-14,9,-9
4,-19,-24,7,14,-21,-34,-39,-48,-4,14,0
9,-19,-29,4,19,-24,-34,-39,-43,-4,14,0
9,-14,-24,2,17,-19,-34,-39,-39,-4,14,0
9,-14,-24,2,17,-19,-34,-39,-39,-4,19,9
9,-24,-34,7,21,-29,-34,-34,-39,0,24,4
14,-19,-34,2,24,-26,-39,-34,-39,0,29,9
14,-19,-34,2,24,-26,-39,-34,-39,0,34,9
14,-19,-34,2,24,-26,-43,-34,-34,4,34,14
19,-14,-34,-2,26,-24,-53,-43,-34,9,39,19
19,-9,-29,-4,24,-19,-58,-43,-34,14,39,19
19,-9,-29,-4,24,-19,-58,-39,-34,19,43,24
19,-4,-24,-7,21,-14,-63,-39,-34,24,48,24
34,4,-29,-19,31,-12,-63,-48,-34,24,53,19
34,14,-19,-24,26,-2,-63,-48,-29,29,58,29
39,19,-19,-29,29,0,-63,-48,-29,34,63,34
39,19,-19,-29,29,0,-68,-48,-24,39,68,39
34,24,-9,-29,21,7,-63,-39,-14,53,78,53
39,24,-14,-31,26,4,-63,-39,-14,58,82,58
39,24,-14,-31,26,4,-68,-43,-14,58,92,63
39,29,-9,-34,24,9,-68,-43,-14,63,97,73
48,34,-14,-41,31,9,-82,-43,-14,68,107,78
48,39,-9,-43,29,14,-87,-53,-9,73,117,82
48,43,-4,-46,26,19,-92,-58,-9,78,122,92
53,48,-4,-51,29,21,-97,-58,-9,87,136,97
48,53,4,-51,21,29,-102,-48,-9,107,146,102
53,58,4,-56,24,31,-102,-58,-9,112,156,117
53,63,9,-58,21,36,-107,-63,-9,117,165,126
58,68,9,-63,24,39,-112,-63,-9,126,175,131
73,73,0,-73,36,36,-112,-58,0,136,195,141
73,82,9,-78,31,46,-117,-63,0,141,204,151
78,82,4,-80,36,43,-122,-68,0,151,209,156
82,92,9,-87,36,51,-126,-73,0,156,219,161
87,107,19,-97,34,63,-131,-78,0,156,239,180
87,107,19,-97,34,63,-141,-82,0,161,248,190
92,117,24,-104,34,70,-146,-87,-4,165,253,195
92,131,39,-112,26,85,-156,-92,-4,170,263,204
102,136,34,-119,34,85,-170,-97,-4,175,263,204
102,141,39,-122,31,90,-170,-102,-4,180,273,214
102,141,39,-122,31,90,-180,-102,-9,185,283,224
102,146,43,-124,29,95,-185,-107,-9,190,292,234
102,161,58,-131,21,109,-200,-112,-9,190,302,234
107,165,58,-136,24,112,-200,-117,-14,200,302,239
107,170,63,-139,21,117,-209,-122,-14,204,312,244
112,175,63,-143,24,119,-209,-131,-19,204,312,248
122,170,48,-146,36,109,-209,-136,-19,204,322,268
122,170,48,-146,36,109,-209,-146,-19,204,322,273
126,175,48,-151,39,112,-219,-151,-29,204,331,273
131,180,48,-156,41,114,-224,-151,-34,204,331,278
131,180,48,-156,41,114,-219,-156,-34,204,336,273
131,180,48,-156,41,114,-219,-156,-34,200,336,273
136,180,43,-158,46,112,-219,-156,-34,200,336,268
136,175,39,-156,48,107,-219,-146,-34,195,331,268
131,170,39,-151,46,104,-219,-146,-34,185,322,258
131,165,34,-148,48,100,-214,-141,-39,180,297,253
131,156,24,-143,53,90,-209,-141,-39,170,287,234
126,151,24,-139,51,87,-204,-131,-34,161,263,224
126,141,14,-134,56,78,-195,-122,-34,146,253,200
126,131,4,-129,61,68,-190,-112,-34,141,234,190
122,117,-4,-119,63,56,-175,-97,-29,136,214,175
117,107,-9,-112,63,48,-161,-87,-29,122,200,161
112,112,0,-112,56,56,-151,-73,-24,122,180,156
102,102,0,-102,51,51,-136,-58,-14,117,165,136
102,92,-9,-97,56,41,-122,-48,-9,107,151,126
97,82,-14,-90,56,34,-107,-34,-4,92,131,117
78,68,-9,-73,43,29,-82,-29,4,82,122,92
68,58,-9,-63,39,24,-73,-19,14,78,112,68
58,48,-9,-53,34,19,-58,-14,19,68,102,53
53,48,-4,-51,29,21,-48,-4,24,68,87,43
43,34,-9,-39,26,12,-48,-4,24,63,73,43
34,34,0,-34,17,17,-39,0,24,58,68,34
24,29,4,-26,9,17,-34,4,19,58,58,24
19,24,4,-21,7,14,-24,9,19,53,43,9
9,14,4,-12,2,9,-19,0,19,48,43,0
9,14,4,-12,2,9,-9,0,19,43,34,-4
0,4,4,-2,-2,4,0,4,19,39,29,-14
-4,4,9,0,-7,7,4,4,14,29,24,-24
-9,9,19,0,-14,14,4,4,14,24,19,-24
-14,9,24,2,-19,17,4,0,14,19,19,-24
-24,4,29,9,-26,17,9,0,14,19,9,-29
-24,0,24,12,-24,12,9,0,14,19,9,-29
-14,0,14,7,-14,7,4,-9,4,14,0,-34
-19,-4,14,12,-17,4,9,-9,4,9,-9,-39
-24,-4,19,14,-21,7,9,-9,0,4,-9,-39
-24,-9,14,17,-19,2,9,-9,0,0,-14,-39
-24,-9,14,17,-19,2,9,-14,0,-14,-14,-43
-29,-9,19,19,-24,4,4,-14,-9,-14,-19,-48
-29,-9,19,19,-24,4,4,-19,-9,-19,-19,-48
-29,-9,19,19,-24,4,4,-19,-9,-19,-24,-48
-24,-19,4,21,-14,-7,9,-19,-14,-19,-24,-48
-24,-19,4,21,-14,-7,9,-24,-14,-19,-24,-53
-24,-19,4,21,-14,-7,14,-24,-14,-24,-24,-53
-29,-19,9,24,-19,-4,14,-24,-14,-24,-24,-53
-39,-19,19,29,-29,0,9,-24,-14,-24,-24,-53
-39,-29,9,34,-24,-9,9,-24,-14,-29,-29,-58
-39,-29,9,34,-24,-9,9,-29,-19,-29,-29,-58
-39,-24,14,31,-26,-4,14,-29,-19,-29,-29,-58
-34,-34,0,34,-17,-17,14,-29,-19,-29,-34,-68
-34,-34,0,34,-17,-17,14,-29,-24,-29,-34,-68
-34,-34,0,34,-17,-17,14,-29,-24,-29,-34,-68
-34,-34,0,34,-17,-17,14,-29,-24,-29,-34,-68
-34,-34,0,34,-17,-17,14,-24,-24,-34,-39,-63
-29,-34,-4,31,-12,-19,19,-24,-24,-34,-39,-63
-29,-29,0,29,-14,-14,19,-24,-29,-34,-43,-68
-34,-29,4,31,-19,-12,19,-24,-29,-39,-43,-68
-34,-39,-4,36,-14,-21,19,-19,-29,-29,-43,-68
-34,-39,-4,36,-14,-21,19,-19,-24,-34,-43,-68
-34,-39,-4,36,-14,-21,19,-19,-24,-34,-48,-68
-34,-39,-4,36,-14,-21,19,-19,-24,-34,-48,-68
-34,-39,-4,36,-14,-21,19,-19,-14,-34,-48,-73
-34,-39,-4,36,-14,-21,19,-19,-14,-34,-48,-73
-34,-39,-4,36,-14,-21,19,-19,-14,-34,-43,-68
-34,-39,-4,36,-14,-21,19,-19,-14,-29,-43,-63
-34,-39,-4,36,-14,-21,19,-24,-24,-39,-53,-73
-34,-43,-9,39,-12,-26,19,-24,-19,-39,-53,-73
-34,-43,-9,39,-12,-26,19,-19,-19,-39,-53,-73
-34,-39,-4,36,-14,-21,19,-19,-19,-39,-53,-73
-34,-39,-4,36,-14,-21,29,-19,-9,-34,-39,-73
-34,-39,-4,36,-14,-21,29,-19,-9,-34,-39,-73
-34,-39,-4,36,-14,-21,29,-19,-9,-34,-39,-73
-34,-39,-4,36,-14,-21,29,-19,-9,-34,-39,-68
-34,-39,-4,36,-14,-21,39,-9,-9,-24,-29,-68
-34,-39,-4,36,-14,-21,39,-9,-9,-24,-29,-68
-34,-34,0,34,-17,-17,39,-9,-9,-24,-29,-68
-34,-29,4,31,-19,-12,39,-9,-9,-19,-29,-68
-34,-39,-4,36,-14,-21,29,-9,-9,-14,-24,-58
-29,-39,-9,34,-9,-24,29,-4,-4,-14,-24,-58
-29,-39,-9,34,-9,-24,29,-4,-4,-14,-24,-58
-29,-39,-9,34,-9,-24,29,-4,-4,-14,-24,-58
-19,-34,-14,26,-2,-24,29,-4,-4,-4,-19,-58
-19,-34,-14,26,-2,-24,29,-4,-4,-4,-19,-58
-19,-29,-9,24,-4,-19,29,-4,-4,-4,-19,-58
-19,-29,-9,24,-4,-19,29,-4,0,-4,-19,-53
-19,-24,-4,21,-7,-14,34,-4,9,-4,-19,-58
-19,-24,-4,21,-7,-14,34,4,9,0,-9,-53
-19,-24,-4,21,-7,-14,34,4,9,4,-9,-53
-19,-19,0,19,-9,-9,34,4,9,4,-9,-53
-19,-19,0,19,-9,-9,34,0,9,-4,-19,-48
-19,-19,0,19,-9,-9,34,0,9,-4,-14,-48
-19,-19,0,19,-9,-9,29,0,9,0,-14,-48
-19,-19,0,19,-9,-9,29,4,9,0,-14,-48
-9,-24,-14,17,2,-19,39,4,9,0,-14,-48
-9,-24,-14,17,2,-19,39,0,9,0,-9,-53
-4,-24,-19,14,7,-21,39,0,9,-4,-9,-53
-4,-24,-19,14,7,-21,39,4,9,-4,-9,-48
-14,-14,0,14,-7,-7,29,4,0,9,0,-39
-14,-14,0,14,-7,-7,29,4,0,9,0,-39
-14,-14,0,14,-7,-7,29,4,4,9,0,-39
-14,-9,4,12,-9,-2,29,4,4,9,0,-39
-14,-9,4,12,-9,-2,29,4,4,0,0,-39
-14,-14,0,14,-7,-7,29,4,4,0,0,-39
-14,-14,0,14,-7,-7,29,0,4,0,0,-34
-14,-9,4,12,-9,-2,29,0,4,0,-4,-34
-14,-14,0,14,-7,-7,29,0,4,-4,-4,-43
-14,-14,0,14,-7,-7,24,0,0,-4,-4,-43
-14,-14,0,14,-7,-7,24,0,0,-4,-4,-43
-14,-14,0,14,-7,-7,24,0,0,-4,-4,-48
-14,-4,9,9,-12,2,24,-9,-9,-14,-14,-39
-14,-9,4,12,-9,-2,24,-9,-9,-14,-14,-39
-14,-9,4,12,-9,-2,24,-9,-9,-14,-14,-39
-14,-9,4,12,-9,-2,24,-9,-9,-14,-14,-39
-24,-9,14,17,-19,2,24,-19,-9,-14,-4,-39
-24,-9,14,17,-19,2,24,-19,-14,-14,-4,-39
-24,-9,14,17,-19,2,24,-19,-14,-14,-9,-39
-24,-9,14,17,-19,2,24,-24,-14,-19,-9,-39
-24,-14,9,19,-17,-2,24,-24,-14,-9,-19,-39
-24,-14,9,19,-17,-2,24,-24,-19,-9,-19,-39
-24,-9,14,17,-19,2,24,-24,-19,-14,-19,-39
-24,-9,14,17,-19,2,24,-24,-24,-14,-19,-39
-24,-4,19,14,-21,7,24,-34,-24,-14,-19,-39
-24,-4,19,14,-21,7,24,-34,-24,-14,-19,-39
-19,-9,9,14,-14,0,29,-29,-19,-19,-19,-39
-24,0,24,12,-24,12,29,-39,-19,-19,-29,-48
-29,0,29,14,-29,14,29,-39,-19,-19,-29,-48
-34,0,34,17,-34,17,29,-39,-19,-19,-29,-48
-39,0,39,19,-39,19,29,-39,-19,-19,-29,-48
-39,0,39,19,-39,19,29,-29,-24,-19,-19,-48
-39,0,39,19,-39,19,29,-34,-24,-19,-24,-53
-39,0,39,19,-39,19,24,-34,-24,-24,-29,-53
-39,-4,34,21,-36,14,24,-34,-29,-24,-29,-53
-29,-4,24,17,-26,9,29,-43,-39,-34,-39,-53
-29,0,29,14,-29,14,29,-43,-39,-34,-39,-53
-34,0,34,17,-34,17,29,-43,-39,-34,-39,-53
-34,0,34,17,-34,17,29,-43,-39,-34,-39,-53
-39,-9,29,24,-34,9,19,-48,-39,-39,-39,-53
-39,-9,29,24,-34,9,19,-48,-39,-43,-43,-58
-43,-9,34,26,-39,12,19,-48,-39,-43,-43,-58
-43,-9,34,26,-39,12,19,-48,-39,-43,-43,-58
-34,-19,14,26,-24,-2,9,-48,-48,-43,-53,-68
-34,-19,14,26,-24,-2,9,-48,-48,-43,-53,-68
-34,-19,14,26,-24,-2,9,-48,-43,-43,-48,-68
-34,-19,14,26,-24,-2,14,-43,-43,-39,-48,-63
-29,-19,9,24,-19,-4,19,-39,-39,-34,-48,-63
-29,-14,14,21,-21,0,29,-39,-39,-34,-43,-63
-29,-14,14,21,-21,0,34,-34,-34,-34,-43,-63
-29,-4,24,17,-26,9,39,-24,-29,-29,-39,-63
-19,-4,14,12,-17,4,43,-4,-9,-24,-29,-53
-19,-4,14,12,-17,4,53,0,-9,-14,-24,-53
-19,-4,14,12,-17,4,58,0,-4,-14,-24,-48
-19,-4,14,12,-17,4,63,-4,-4,-14,-24,-48
-19,-9,9,14,-14,0,63,-4,-9,-19,-29,-48
-19,-9,9,14,-14,0,63,-4,-9,-19,-29,-48
-19,-9,9,14,-14,0,68,0,-4,-19,-29,-53
-19,-14,4,17,-12,-4,78,0,0,-19,-29,-53
-19,-24,-4,21,-7,-14,78,0,-9,-19,-39,-63
-24,-24,0,24,-12,-12,82,14,0,-14,-34,-58
-24,-14,9,19,-17,-2,97,34,9,-4,-19,-53
-19,-9,9,14,-14,0,107,48,29,14,-14,-53
-24,-9,14,17,-19,2,131,73,53,19,-9,-48
-19,-4,14,12,-17,4,136,82,53,29,-4,-43
-14,0,14,7,-14,7,131,73,53,29,-4,-39
-9,4,14,2,-12,9,107,58,48,24,-4,-34
-9,-4,4,7,-7,0,92,43,39,24,-4,-24
-9,-4,4,7,-7,0,53,19,29,19,-14,-29
-9,-4,4,7,-7,0,19,-4,14,9,-14,-29
-4,-9,-4,7,0,-7,0,-19,0,0,-19,-34
4,-9,-14,2,9,-12,-24,-39,-24,-14,-19,-34
0,-14,-14,7,7,-14,-24,-48,-34,-29,-24,-34
0,-14,-14,7,7,-14,-24,-53,-43,-43,-29,-39
-4,-19,-14,12,4,-17,-24,-63,-58,-53,-43,-48
-9,-24,-14,17,2,-19,-34,-68,-58,-58,-48,-58
-14,-29,-14,21,0,-21,-34,-82,-73,-63,-58,-58
-19,-29,-9,24,-4,-19,-39,-97,-78,-68,-63,-63
-29,-29,0,29,-14,-14,-39,-102,-92,-68,-68,-68
-19,-19,0,19,-9,-9,-53,-117,-102,-82,-82,-68
-24,-29,-4,26,-9,-17,-53,-117,-112,-87,-87,-73
-29,-29,0,29,-14,-14,-48,-107,-117,-97,-87,-78
-34,-39,-4,36,-14,-21,-39,-107,-122,-102,-92,-82
-43,-48,-4,46,-19,-26,-39,-102,-107,-92,-92,-82
-43,-53,-9,48,-17,-31,-24,-97,-97,-87,-92,-82
-43,-58,-14,51,-14,-36,-19,-97,-97,-82,-92,-82
-43,-58,-14,51,-14,-36,-14,-97,-92,-82,-87,-82
-48,-63,-14,56,-17,-39,-4,-87,-82,-82,-78,-82
-48,-63,-14,56,-17,-39,0,-78,-82,-78,-78,-82
-48,-63,-14,56,-17,-39,4,-73,-82,-78,-78,-87
-48,-68,-19,58,-14,-43,9,-68,-82,-78,-78,-87
-43,-68,-24,56,-9,-46,14,-68,-82,-87,-73,-87
-43,-68,-24,56,-9,-46,14,-68,-82,-87,-73,-87
-43,-68,-24,56,-9,-46,14,-68,-82,-87,-73,-87
-43,-68,-24,56,-9,-46,14,-68,-82,-87,-73,-87
-43,-63,-19,53,-12,-41,4,-78,-82,-87,-82,-92
-43,-63,-19,53,-12,-41,4,-78,-82,-87,-82,-92
-43,-63,-19,53,-12,-41,4,-78,-82,-87,-82,-87
-43,-58,-14,51,-14,-36,4,-78,-82,-87,-82,-87
-34,-53,-19,43,-7,-36,4,-87,-92,-82,-82,-87
-39,-53,-14,46,-12,-34,4,-87,-92,-82,-82,-87
-39,-58,-19,48,-9,-39,4,-87,-92,-82,-82,-87
-39,-58,-19,48,-9,-39,4,-87,-92,-82,-82,-87
-48,-58,-9,53,-19,-34,4,-87,-92,-82,-82,-82
-48,-58,-9,53,-19,-34,4,-87,-92,-82,-82,-82
-48,-58,-9,53,-19,-34,4,-87,-97,-87,-82,-82
-48,-58,-9,53,-19,-34,4,-87,-97,-87,-92,-82
-48,-58,-9,53,-19,-34,9,-87,-97,-87,-82,-82
-48,-53,-4,51,-21,-29,9,-87,-92,-87,-78,-82
-48,-53,-4,51,-21,-29,9,-87,-92,-87,-78,-82
-48,-53,-4,51,-21,-29,9,-87,-92,-87,-78,-82
-48,-43,4,46,-26,-19,9,-97,-102,-87,-78,-82
-48,-43,4,46,-26,-19,9,-97,-102,-87,-78,-82
-48,-43,4,46,-26,-19,9,-92,-102,-87,-78,-82
-48,-43,4,46,-26,-19,9,-92,-102,-87,-78,-82
-48,-34,14,41,-31,-9,14,-87,-102,-87,-87,-87
-58,-48,9,53,-34,-19,24,-78,-87,-87,-92,-97
-58,-53,4,56,-31,-24,34,-63,-82,-82,-92,-112
-58,-73,-14,65,-21,-43,63,-29,-58,-82,-102,-122
-68,-82,-14,75,-26,-48,87,14,-34,-73,-112,-141
-78,-92,-14,85,-31,-53,112,58,4,-58,-102,-146
-78,-97,-19,87,-29,-58,151,117,63,-29,-92,-146
-78,-97,-19,87,-29,-58,190,175,117,14,-78,-136
-63,-97,-34,80,-14,-65,204,229,170,68,-43,-117
-24,-97,-73,61,24,-85,214,283,229,141,19,-78
19,-82,-102,31,61,-92,214,341,297,209,107,-24
92,-53,-146,-19,119,-100,200,390,356,302,209,63
175,4,-170,-90,173,-82,175,444,439,414,341,170
258,97,-161,-178,209,-31,126,458,507,527,492,307
356,190,-165,-273,261,12,78,444,570,653,649,458
463,278,-185,-370,324,46,4,419,629,780,829,629
551,366,-185,-458,368,90,-68,366,644,878,985,775
610,419,-190,-514,400,114,-131,297,624,941,1107,907
673,458,-214,-566,444,122,-161,273,624,1005,1234,1024
727,483,-244,-605,485,119,-190,248,600,1024,1307,1098
736,483,-253,-610,495,114,-200,209,536,976,1293,1107
692,448,-244,-570,468,102,-161,175,458,849,1156,1005
610,370,-239,-490,424,65,-92,151,366,639,878,810
473,273,-200,-373,336,36,-4,117,224,331,492,536
302,161,-141,-231,222,9,82,43,43,24,112,244
102,82,-19,-92,61,31,161,-19,-87,-195,-170,14
-87,63,151,12,-119,107,239,-39,-136,-292,-317,-122
-224,53,278,85,-251,165,297,-39,-151,-322,-390,-204
-312,39,351,136,-331,195,317,-58,-161,-341,-424,-268
-336,39,375,148,-356,207,326,-73,-156,-336,-429,-292
-336,39,375,148,-356,207,351,-87,-165,-346,-409,-292
-336,34,370,151,-353,202,366,-112,-195,-356,-405,-292
-341,14,356,163,-348,185,395,-112,-185,-346,-405,-297
-331,0,331,165,-331,165,429,-131,-185,-336,-395,-297
-322,-29,292,175,-307,131,429,-195,-234,-356,-390,-292
-302,-48,253,175,-278,102,366,-297,-307,-375,-380,-283
-268,-48,219,158,-244,85,224,-395,-370,-380,-351,-258
-234,-39,195,136,-214,78,68,-453,-419,-375,-322,-239
-185,-29,156,107,-170,63,-34,-458,-424,-366,-283,-209
-146,-19,126,82,-136,53,-92,-424,-395,-331,-248,-180
-126,-19,107,73,-117,43,-97,-366,-351,-292,-219,-156
-112,-19,92,65,-102,36,-78,-312,-302,-258,-200,-141
-97,-19,78,58,-87,29,-43,-253,-258,-214,-180,-126
-87,-34,53,61,-70,9,-14,-195,-214,-170,-156,-117
-82,-39,43,61,-63,2,14,-151,-161,-141,-122,-112
-73,-43,29,58,-51,-7,29,-107,-122,-117,-102,-102
-73,-43,29,58,-51,-7,39,-78,-92,-102,-78,-92
-58,-48,9,53,-34,-19,34,-73,-82,-97,-78,-87
-43,-43,0,43,-21,-21,34,-73,-87,-97,-87,-82
-39,-43,-4,41,-17,-24,24,-68,-97,-97,-87,-82
-34,-43,-9,39,-12,-26,24,-63,-97,-92,-82,-82
-34,-43,-9,39,-12,-26,24,-63,-92,-82,-82,-82
-34,-43,-9,39,-12,-26,19,-58,-92,-78,-73,-78
-29,-53,-24,41,-2,-39,29,-48,-78,-68,-73,-73
-29,-53,-24,41,-2,-39,29,-48,-68,-68,-68,-73
-29,-58,-29,43,0,-43,29,-48,-68,-73,-68,-73
-29,-58,-29,43,0,-43,29,-48,-68,-73,-68,-68
-24,-53,-29,39,2,-41,24,-48,-68,-73,-68,-68
-24,-53,-29,39,2,-41,24,-53,-68,-73,-68,-68
-24,-53,-29,39,2,-41,19,-53,-73,-73,-63,-63
-24,-53,-29,39,2,-41,19,-48,-73,-68,-63,-63
-24,-53,-29,39,2,-41,29,-43,-73,-73,-53,-58
-24,-53,-29,39,2,-41,29,-43,-73,-73,-53,-58
-24,-58,-34,41,4,-46,29,-43,-68,-68,-53,-58
-19,-58,-39,39,9,-48,29,-48,-68,-68,-53,-53
-19,-48,-29,34,4,-39,29,-39,-68,-58,-48,-53
-14,-43,-29,29,7,-36,24,-39,-68,-58,-48,-53
-14,-39,-24,26,4,-31,24,-39,-63,-53,-48,-53
-14,-39,-24,26,4,-31,19,-34,-63,-53,-48,-53
-14,-39,-24,26,4,-31,19,-34,-63,-53,-39,-53
-14,-39,-24,26,4,-31,19,-34,-58,-53,-39,-48
-9,-39,-29,24,9,-34,19,-34,-58,-53,-34,-48
-9,-39,-29,24,9,-34,19,-34,-58,-53,-34,-48
-9,-29,-19,19,4,-24,19,-34,-48,-39,-29,-48
-4,-29,-24,17,9,-26,19,-34,-48,-39,-24,-48
-4,-29,-24,17,9,-26,19,-34,-48,-39,-24,-43
-9,-29,-19,19,4,-24,19,-34,-53,-34,-24,-43
0,-29,-29,14,14,-29,19,-24,-43,-34,-24,-43
0,-29,-29,14,14,-29,19,-24,-43,-34,-24,-43
0,-24,-24,12,12,-24,19,-24,-43,-34,-24,-39
4,-19,-24,7,14,-21,19,-24,-43,-34,-19,-39
4,-29,-34,12,19,-31,19,-24,-53,-34,-19,-39
9,-29,-39,9,24,-34,19,-24,-48,-34,-14,-39
9,-29,-39,9,24,-34,14,-24,-43,-29,-14,-34
9,-29,-39,9,24,-34,14,-24,-43,-29,-14,-34
9,-29,-39,9,24,-34,14,-24,-43,-24,-9,-34
14,-29,-43,7,29,-36,9,-24,-43,-24,-4,-34
14,-24,-39,4,26,-31,9,-19,-43,-19,-4,-29
14,-24,-39,4,26,-31,9,-19,-43,-19,-4,-29
14,-24,-39,4,26,-31,9,-29,-34,-19,-9,-24
14,-24,-39,4,26,-31,9,-29,-39,-19,-9,-19
14,-19,-34,2,24,-26,9,-29,-39,-14,0,-19
14,-19,-34,2,24,-26,4,-29,-39,-14,0,-19
4,-9,-14,2,9,-12,-4,-29,-48,-14,14,-9
9,-9,-19,0,14,-14,-4,-29,-43,-14,14,-9
9,-4,-14,-2,12,-9,-4,-29,-39,-14,14,-9
9,-4,-14,-2,12,-9,-4,-29,-39,-14,19,0
9,-4,-14,-2,12,-9,-14,-34,-39,0,24,4
14,0,-14,-7,14,-7,-19,-34,-39,0,29,9
14,0,-14,-7,14,-7,-19,-34,-39,0,34,9
14,0,-14,-7,14,-7,-24,-34,-34,4,34,14
29,4,-24,-17,26,-9,-14,-34,-43,0,29,19
29,9,-19,-19,24,-4,-19,-34,-43,4,29,19
29,9,-19,-19,24,-4,-19,-29,-43,9,34,24
29,14,-14,-21,21,0,-24,-29,-43,14,39,24
24,14,-9,-19,17,2,-24,-39,-34,24,53,29
24,24,0,-24,12,12,-24,-39,-29,29,58,39
29,29,0,-29,14,14,-24,-39,-29,34,63,43
29,29,0,-29,14,14,-29,-39,-24,39,68,48
24,43,19,-34,2,31,-34,-39,-24,43,78,53
29,43,14,-36,7,29,-34,-39,-24,48,82,58
29,43,14,-36,7,29,-39,-43,-24,48,92,63
29,48,19,-39,4,34,-39,-43,-24,53,97,73
39,63,24,-51,7,43,-34,-39,-14,68,97,78
39,68,29,-53,4,48,-39,-43,-9,73,107,82
39,73,34,-56,2,53,-43,-43,-9,78,112,92
43,78,34,-61,4,56,-48,-39,-9,87,126,97
48,73,24,-61,12,48,-63,-39,-9,87,136,92
53,78,24,-65,14,51,-63,-48,-9,92,146,107
53,82,29,-68,12,56,-68,-53,-9,97,156,117
58,87,29,-73,14,58,-73,-53,-9,107,165,122
73,92,19,-82,26,56,-82,-58,-9,107,175,131
73,102,29,-87,21,65,-87,-63,-9,112,185,141
78,102,24,-90,26,63,-92,-68,-9,122,190,146
82,112,29,-97,26,70,-97,-73,-9,126,200,151
78,117,39,-97,19,78,-102,-68,-9,136,209,161
78,117,39,-97,19,78,-112,-73,-9,141,219,170
82,126,43,-104,19,85,-117,-78,-14,146,224,175
82,141,58,-112,12,100,-126,-82,-14,151,234,185
92,146,53,-119,19,100,-131,-97,-14,156,244,185
92,151,58,-122,17,104,-131,-102,-14,161,253,195
92,151,58,-122,17,104,-141,-102,-19,165,263,204
92,156,63,-124,14,109,-146,-107,-19,170,273,214
92,161,68,-126,12,114,-151,-112,-19,161,273,214
97,165,68,-131,14,117,-151,-117,-24,170,273,219
97,170,73,-134,12,122,-161,-122,-24,175,283,224
102,175,73,-139,14,124,-161,-131,-29,175,283,229
102,170,68,-136,17,119,-170,-136,-29,185,292,239
102,170,68,-136,17,119,-170,-146,-29,185,292,244
107,175,68,-141,19,122,-180,-151,-39,185,302,244
112,180,68,-146,21,124,-185,-151,-43,185,302,248
112,170,58,-141,26,114,-190,-156,-43,185,297,253
112,170,58,-141,26,114,-190,-156,-43,180,297,253
117,170,53,-143,31,112,-190,-156,-43,180,297,248
117,165,48,-141,34,107,-190,-146,-43,175,292,248
131,170,39,-151,46,104,-200,-146,-43,175,292,248
131,165,34,-148,48,100,-195,-141,-48,170,278,244
131,156,24,-143,53,90,-190,-141,-48,161,278,224
126,151,24,-139,51,87,-185,-131,-43,151,263,214
126,131,4,-129,61,68,-170,-122,-43,126,244,200
126,122,-4,-124,65,58,-161,-112,-43,122,224,190
122,107,-14,-114,68,46,-141,-97,-39,117,204,175
117,97,-19,-107,68,39,-122,-87,-39,102,190,161
112,92,-19,-102,65,36,-122,-82,-43,102,180,146
102,82,-19,-92,61,31,-107,-68,-34,97,165,126
102,73,-29,-87,65,21,-92,-58,-29,87,151,117
97,63,-34,-80,65,14,-78,-43,-24,73,131,107
87,58,-29,-73,58,14,-63,-29,-14,82,112,102
78,48,-29,-63,53,9,-53,-19,-4,78,102,78
68,39,-29,-53,48,4,-39,-14,0,68,92,63
63,39,-24,-51,43,7,-29,-4,4,68,78,53
53,24,-29,-39,41,-2,-9,4,9,53,63,43
43,24,-19,-34,31,2,0,9,14,48,58,34
34,19,-14,-26,24,2,4,14,14,48,48,24
29,14,-14,-21,21,0,14,19,19,43,34,9
29,14,-14,-21,21,0,9,19,9,39,24,0
29,14,-14,-21,21,0,19,19,9,34,14,-4
19,4,-14,-12,17,-4,29,24,9,29,9,-14
14,4,-9,-9,12,-2,34,24,4,19,4,-24
9,0,-9,-4,9,-4,43,14,14,14,9,-24
4,0,-4,-2,4,-2,43,9,14,9,9,-24
-4,-4,0,4,-2,-2,48,9,14,9,0,-29
-4,-9,-4,7,0,-7,48,9,14,9,0,-29
4,0,-4,-2,4,-2,48,9,4,4,-9,-34
0,-4,-4,2,2,-4,48,9,4,0,-19,-39
-4,-4,0,4,-2,-2,43,9,0,-4,-19,-39
-4,-9,-4,7,0,-7,39,9,0,-9,-24,-39
-4,-9,-4,7,0,-7,39,-4,0,-14,-24,-43
-9,-9,0,9,-4,-4,34,-4,-9,-14,-29,-48
-9,-9,0,9,-4,-4,34,-9,-9,-19,-29,-48
-9,-9,0,9,-4,-4,34,-9,-9,-19,-34,-48
-14,-9,4,12,-9,-2,39,-9,-14,-19,-43,-48
-14,-9,4,12,-9,-2,39,-14,-14,-19,-43,-53
-14,-9,4,12,-9,-2,43,-14,-14,-24,-43,-53
-19,-9,9,14,-14,0,43,-14,-14,-24,-43,-53
-19,-9,9,14,-14,0,39,-14,-24,-24,-43,-53
-19,-19,0,19,-9,-9,39,-14,-24,-29,-48,-58
-19,-19,0,19,-9,-9,39,-19,-29,-29,-48,-58
-19,-14,4,17,-12,-4,43,-19,-29,-29,-48,-58
-24,-4,19,14,-21,7,43,-19,-19,-39,-53,-58
-24,-4,19,14,-21,7,43,-19,-24,-39,-53,-58
-24,-4,19,14,-21,7,43,-19,-24,-39,-53,-58
-24,-4,19,14,-21,7,43,-19,-24,-39,-53,-58
-24,-4,19,14,-21,7,34,-24,-34,-34,-48,-63
-19,-4,14,12,-17,4,39,-24,-34,-34,-48,-63
-19,0,19,9,-19,9,39,-24,-39,-34,-53,-68
-24,0,24,12,-24,12,39,-24,-39,-39,-53,-68
-24,0,24,12,-24,12,39,-29,-39,-39,-53,-58
-24,0,24,12,-24,12,39,-29,-34,-43,-53,-58
-24,0,24,12,-24,12,39,-29,-34,-43,-58,-58
-24,0,24,12,-24,12,39,-29,-34,-43,-58,-58
-24,0,24,12,-24,12,39,-19,-24,-34,-58,-63
-24,0,24,12,-24,12,39,-19,-24,-34,-58,-63
-24,0,24,12,-24,12,39,-19,-24,-34,-53,-58
-24,0,24,12,-24,12,39,-19,-24,-29,-53,-53
-34,0,34,17,-34,17,48,-24,-24,-39,-53,-63
-34,-4,29,19,-31,12,48,-24,-19,-39,-53,-63
-34,-4,29,19,-31,12,48,-19,-19,-39,-53,-63
-34,0,34,17,-34,17,48,-19,-19,-39,-53,-63
-34,0,34,17,-34,17,48,-9,-19,-34,-48,-63
-34,0,34,17,-34,17,48,-9,-19,-34,-48,-63
-34,0,34,17,-34,17,48,-9,-19,-34,-48,-63
-34,0,34,17,-34,17,48,-9,-19,-34,-48,-58
-34,-9,24,21,-29,7,48,0,-9,-24,-48,-58
-34,-9,24,21,-29,7,48,0,-9,-24,-48,-58
-34,-4,29,19,-31,12,48,0,-9,-24,-48,-58
-34,0,34,17,-34,17,48,0,-9,-19,-48,-58
-34,0,34,17,-34,17,48,-9,-19,-19,-43,-58
-29,0,29,14,-29,14,48,-4,-14,-24,-43,-58
-29,0,29,14,-29,14,48,-4,-14,-29,-43,-58
-29,0,29,14,-29,14,48,-4,-14,-34,-43,-58
-19,-4,14,12,-17,4,39,-4,-14,-34,-48,-58
-19,-4,14,12,-17,4,39,-4,-14,-34,-48,-58
-19,0,19,9,-19,9,39,-4,-14,-34,-48,-58
-19,0,19,9,-19,9,39,-4,-9,-34,-48,-53
-29,-14,14,21,-21,0,53,-4,-9,-34,-48,-53
-29,-14,14,21,-21,0,53,4,-9,-29,-39,-53
-29,-14,14,21,-21,0,53,4,-9,-24,-39,-58
-29,-9,19,19,-24,4,53,4,-9,-24,-39,-63
-19,-9,9,14,-14,0,53,0,-9,-34,-48,-58
-19,-9,9,14,-14,0,53,0,-9,-34,-43,-58
-19,-9,9,14,-14,0,48,0,-9,-29,-43,-58
-19,-9,9,14,-14,0,48,4,-9,-29,-43,-58
-29,-4,24,17,-26,9,48,4,-9,-19,-43,-58
-29,-4,24,17,-26,9,48,0,-9,-19,-39,-63
-24,-4,19,14,-21,7,48,0,-9,-24,-39,-63
-24,-4,19,14,-21,7,48,4,-9,-24,-39,-58
-24,-14,9,19,-17,-2,58,4,-9,-19,-39,-48
-24,-14,9,19,-17,-2,58,4,-9,-19,-39,-48
-24,-14,9,19,-17,-2,58,4,-4,-19,-39,-48
-24,-9,14,17,-19,2,58,4,-4,-19,-39,-48
-24,-19,4,21,-14,-7,48,4,-4,-29,-39,-58
-24,-24,0,24,-12,-12,48,4,-4,-29,-39,-58
-24,-24,0,24,-12,-12,48,0,-4,-29,-39,-53
-24,-19,4,21,-14,-7,48,0,-4,-29,-43,-53
-24,-24,0,24,-12,-12,48,0,-4,-34,-53,-53
-24,-24,0,24,-12,-12,43,0,-9,-34,-53,-53
-24,-24,0,24,-12,-12,43,0,-9,-34,-53,-53
-24,-24,0,24,-12,-12,43,0,-9,-34,-53,-58
-24,-14,9,19,-17,-2,53,0,-9,-34,-53,-58
-24,-19,4,21,-14,-7,53,0,-9,-34,-53,-58
-24,-19,4,21,-14,-7,53,0,-9,-34,-53,-58
-24,-19,4,21,-14,-7,53,0,-9,-34,-53,-58
-24,-9,14,17,-19,2,53,0,-9,-34,-53,-48
-24,-9,14,17,-19,2,53,0,-14,-34,-53,-48
-24,-9,14,17,-19,2,53,0,-14,-34,-58,-48
-24,-9,14,17,-19,2,53,-4,-14,-39,-58,-48
-24,-24,0,24,-12,-12,53,-4,-14,-29,-48,-48
-24,-24,0,24,-12,-12,53,-4,-19,-29,-48,-48
-24,-19,4,21,-14,-7,53,-4,-19,-34,-48,-48
-24,-19,4,21,-14,-7,53,-4,-24,-34,-48,-48
-24,-14,9,19,-17,-2,53,-4,-14,-34,-48,-48
-24,-14,9,19,-17,-2,53,-4,-14,-34,-48,-48
-24,-19,4,21,-14,-7,53,-4,-14,-39,-53,-48
-14,-19,-4,17,-4,-12,53,-9,-24,-39,-53,-48
-9,-9,0,9,-4,-4,48,-9,-19,-39,-48,-48
-19,-9,9,14,-14,0,48,-9,-19,-39,-58,-48
-19,-9,9,14,-14,0,48,-9,-19,-39,-58,-48
-19,-9,9,14,-14,0,48,-9,-19,-39,-58,-48
-19,-9,9,14,-14,0,48,-9,-19,-39,-58,-48
-19,-9,9,14,-14,0,58,-9,-24,-39,-48,-48
-19,-9,9,14,-14,0,58,-14,-24,-39,-53,-53
-19,-9,9,14,-14,0,53,-14,-24,-43,-58,-53
-19,-14,4,17,-12,-4,53,-14,-29,-43,-58,-53
-9,-14,-4,12,-2,-9,48,-24,-29,-43,-58,-63
-9,-9,0,9,-4,-4,48,-24,-29,-43,-58,-63
-14,-9,4,12,-9,-2,48,-24,-29,-43,-58,-63
-14,-9,4,12,-9,-2,48,-24,-29,-43,-58,-63
-9,-9,0,9,-4,-4,48,-19,-29,-39,-58,-53
-9,-9,0,9,-4,-4,48,-19,-29,-43,-63,-58
-14,-9,4,12,-9,-2,48,-19,-29,-43,-63,-58
-14,-9,4,12,-9,-2,48,-19,-29,-43,-63,-58
-14,-9,4,12,-9,-2,48,-29,-39,-53,-63,-58
-14,-9,4,12,-9,-2,48,-29,-39,-53,-63,-58
-14,-9,4,12,-9,-2,48,-29,-34,-53,-58,-58
-14,-9,4,12,-9,-2,53,-24,-34,-48,-58,-53
-9,-9,0,9,-4,-4,48,-19,-29,-43,-58,-53
-9,-4,4,7,-7,0,58,-19,-29,-43,-53,-53
-9,-4,4,7,-7,0,63,-14,-24,-43,-53,-53
-9,4,14,2,-12,9,68,-4,-19,-39,-48,-53
-9,14,24,-2,-17,19,58,-4,-9,-34,-48,-53
-9,14,24,-2,-17,19,63,0,-9,-24,-43,-53
-9,14,24,-2,-17,19,63,0,-4,-24,-43,-48
-9,14,24,-2,-17,19,63,-4,-4,-24,-43,-48
0,9,9,-4,-4,9,73,-4,-9,-29,-39,-48
0,9,9,-4,-4,9,73,-4,-9,-29,-39,-48
0,9,9,-4,-4,9,78,0,-4,-29,-39,-53
0,4,4,-2,-2,4,87,0,0,-29,-39,-53
-9,4,14,2,-12,9,82,9,0,-29,-48,-53
-14,4,19,4,-17,12,92,24,9,-24,-43,-48
-14,14,29,0,-21,21,112,43,19,-14,-29,-43
-9,19,29,-4,-19,24,126,58,39,4,-24,-43
-14,19,34,-2,-24,26,151,78,63,9,-19,-39
-9,24,34,-7,-21,29,156,92,63,19,-14,-34
-4,29,34,-12,-19,31,151,87,63,19,-14,-29
0,34,34,-17,-17,34,126,78,58,14,-14,-24
9,43,34,-26,-12,39,102,58,53,14,-4,-24
9,43,34,-26,-12,39,63,29,39,9,-14,-29
9,43,34,-26,-12,39,29,0,19,0,-14,-29
14,39,24,-26,-4,31,9,-19,0,-9,-19,-34
14,39,24,-26,-4,31,-14,-29,-14,-24,-29,-34
9,34,24,-21,-7,29,-14,-39,-24,-39,-34,-34
9,34,24,-21,-7,29,-14,-43,-34,-53,-39,-39
4,29,24,-17,-9,26,-14,-53,-48,-63,-53,-48
0,19,19,-9,-9,19,-24,-68,-68,-73,-68,-58
-4,9,14,-2,-9,12,-24,-82,-82,-82,-78,-58
-9,4,14,2,-12,9,-29,-97,-87,-92,-82,-63
-19,0,19,9,-19,9,-29,-102,-102,-97,-87,-68
-19,0,19,9,-19,9,-43,-112,-117,-117,-102,-68
-24,-9,14,17,-19,2,-43,-117,-122,-117,-107,-73
-29,-9,19,19,-24,4,-39,-112,-122,-122,-107,-78
-34,-19,14,26,-24,-2,-29,-117,-122,-122,-112,-82
-43,-19,24,31,-34,2,-29,-112,-126,-122,-112,-92
-43,-24,19,34,-31,-2,-14,-107,-117,-117,-112,-92
-43,-29,14,36,-29,-7,-9,-107,-117,-112,-112,-92
-43,-29,14,36,-29,-7,-4,-107,-112,-112,-107,-92
-48,-34,14,41,-31,-9,9,-102,-102,-112,-117,-92
-48,-34,14,41,-31,-9,9,-97,-102,-107,-117,-92
-48,-34,14,41,-31,-9,9,-97,-102,-107,-117,-97
-48,-39,9,43,-29,-14,9,-97,-102,-107,-117,-97
-53,-48,4,51,-29,-21,14,-87,-102,-117,-122,-97
-53,-48,4,51,-29,-21,14,-87,-102,-117,-122,-97
-53,-48,4,51,-29,-21,14,-87,-102,-117,-122,-97
-53,-48,4,51,-29,-21,14,-87,-102,-117,-122,-97
-53,-53,0,53,-26,-26,14,-87,-102,-117,-122,-102
-53,-53,0,53,-26,-26,14,-87,-102,-117,-122,-102
-53,-53,0,53,-26,-26,14,-87,-102,-117,-122,-97
-53,-48,4,51,-29,-21,14,-87,-102,-117,-122,-97
-53,-43,9,48,-31,-17,24,-87,-112,-122,-122,-97
-58,-43,14,51,-36,-14,24,-87,-112,-122,-122,-97
-58,-48,9,53,-34,-19,24,-87,-112,-122,-122,-97
-58,-48,9,53,-34,-19,24,-87,-112,-122,-122,-97
-58,-58,0,58,-29,-29,24,-87,-102,-122,-112,-102
-58,-58,0,58,-29,-29,24,-87,-102,-122,-112,-102
-58,-58,0,58,-29,-29,24,-87,-107,-126,-112,-102
-58,-58,0,58,-29,-29,24,-87,-107,-126,-122,-102
-58,-58,0,58,-29,-29,19,-97,-107,-117,-122,-102
-58,-53,4,56,-31,-24,19,-97,-102,-117,-117,-102
-58,-53,4,56,-31,-24,19,-97,-102,-117,-117,-102
-58,-53,4,56,-31,-24,19,-97,-102,-117,-117,-102
-58,-43,14,51,-36,-14,19,-87,-102,-117,-126,-102
-58,-43,14,51,-36,-14,19,-87,-102,-117,-126,-102
-58,-43,14,51,-36,-14,19,-82,-102,-117,-126,-102
-58,-43,14,51,-36,-14,19,-82,-102,-117,-126,-102
-58,-53,4,56,-31,-24,34,-78,-102,-117,-126,-97
-58,-58,0,58,-29,-29,43,-68,-97,-107,-122,-107
-58,-73,-14,65,-21,-43,63,-43,-82,-112,-131,-122
-68,-82,-14,75,-26,-48,82,-9,-58,-112,-141,-131
-68,-82,-14,75,-26,-48,107,24,-34,-102,-141,-141
-68,-92,-24,80,-21,-58,131,58,4,-78,-141,-156
-78,-97,-19,87,-29,-58,161,117,53,-48,-131,-156
-68,-107,-39,87,-14,-73,200,175,107,-4,-107,-146
-53,-107,-53,80,0,-80,214,239,161,48,-73,-126
-14,-107,-92,61,39,-100,234,302,219,112,-9,-87
29,-92,-122,31,75,-107,244,370,287,190,68,-34
102,-53,-156,-24,129,-104,219,409,346,283,180,53
185,4,-180,-95,183,-87,185,453,429,385,312,161
278,87,-190,-183,234,-51,146,468,507,497,453,297
375,190,-185,-283,280,2,87,453,570,614,619,448
483,278,-204,-380,344,36,14,419,610,751,790,619
570,356,-214,-463,392,70,-58,366,624,839,946,766
649,419,-229,-534,439,95,-122,297,614,902,1078,888
722,468,-253,-595,488,107,-161,263,605,966,1185,1005
766,492,-273,-629,519,109,-190,239,580,995,1268,1088
785,492,-292,-639,539,100,-190,209,527,936,1254,1098
751,458,-292,-605,522,82,-180,165,448,810,1117,1005
649,400,-248,-524,448,75,-112,141,356,600,839,800
522,302,-219,-412,370,41,-24,117,224,312,463,517
351,190,-161,-270,256,14,73,73,53,14,92,234
141,112,-29,-126,85,41,151,9,-68,-195,-180,14
-58,92,151,-17,-104,122,239,-19,-117,-273,-326,-122
-214,82,297,65,-256,190,307,-29,-131,-312,-390,-204
-292,48,341,122,-317,195,336,-39,-131,-331,-424,-258
-336,39,375,148,-356,207,336,-53,-117,-317,-419,-283
-336,48,385,143,-361,217,351,-68,-136,-326,-409,-273
-317,43,361,136,-339,202,356,-82,-156,-346,-414,-273
-312,34,346,139,-329,190,385,-63,-146,-336,-414,-278
-302,29,331,136,-317,180,429,-53,-126,-317,-395,-278
-302,9,312,146,-307,161,429,-107,-175,-326,-390,-273
-292,-19,273,156,-283,126,385,-219,-258,-356,-380,-273
-278,-29,248,153,-263,109,263,-336,-351,-370,-361,-258
-234,-9,224,122,-229,107,117,-424,-409,-385,-331,-219
-185,9,195,87,-190,102,-4,-458,-424,-375,-302,-190
-146,9,156,68,-151,82,-63,-424,-395,-351,-268,-161
-107,9,117,48,-112,63,-78,-366,-341,-302,-239,-146
-102,9,112,46,-107,61,-58,-302,-292,-268,-219,-131
-97,9,107,43,-102,58,-24,-244,-248,-214,-200,-126
-78,4,82,36,-80,43,4,-185,-204,-180,-165,-117
-73,-9,63,41,-68,26,24,-141,-161,-151,-141,-102
-63,-4,58,34,-61,26,39,-107,-122,-126,-112,-92
-53,-4,48,29,-51,21,48,-78,-92,-112,-97,-73
-39,-9,29,24,-34,9,43,-63,-82,-107,-97,-68
-34,-4,29,19,-31,12,43,-63,-78,-107,-97,-73
-29,-14,14,21,-21,0,43,-58,-78,-107,-107,-73
-24,-14,9,19,-17,-2,43,-53,-78,-102,-102,-73
-24,-14,9,19,-17,-2,43,-53,-73,-92,-102,-73
-24,-14,9,19,-17,-2,39,-48,-73,-87,-92,-68
-29,-4,24,17,-26,9,39,-39,-68,-78,-82,-63
-29,-4,24,17,-26,9,39,-39,-58,-78,-78,-63
-29,-9,19,19,-24,4,39,-39,-58,-82,-78,-63
-29,-9,19,19,-24,4,39,-39,-58,-82,-78,-58
-14,-14,0,14,-7,-7,34,-39,-68,-92,-87,-58
-14,-14,0,14,-7,-7,34,-43,-68,-92,-87,-58
-14,-14,0,14,-7,-7,29,-43,-73,-92,-82,-53
-14,-14,0,14,-7,-7,29,-39,-73,-87,-82,-53
-14,-14,0,14,-7,-7,29,-43,-73,-82,-73,-58
-14,-14,0,14,-7,-7,29,-43,-73,-82,-73,-58
-14,-19,-4,17,-4,-12,29,-43,-68,-78,-73,-58
-9,-19,-9,14,0,-14,29,-48,-68,-78,-73,-53
-9,-29,-19,19,4,-24,39,-48,-68,-78,-78,-53
-4,-24,-19,14,7,-21,34,-48,-68,-78,-78,-53
-4,-19,-14,12,4,-17,34,-48,-63,-73,-78,-53
-4,-19,-14,12,4,-17,29,-43,-63,-73,-78,-53
-14,-19,-4,17,-4,-12,29,-34,-63,-73,-68,-53
-14,-19,-4,17,-4,-12,29,-34,-58,-73,-68,-48
-9,-19,-9,14,0,-14,29,-34,-58,-73,-63,-48
-9,-19,-9,14,0,-14,29,-34,-58,-73,-63,-48
0,-19,-19,9,9,-19,19,-34,-58,-68,-68,-48
4,-19,-24,7,14,-21,19,-34,-58,-68,-63,-48
4,-19,-24,7,14,-21,19,-34,-58,-68,-63,-43
0,-19,-19,9,9,-19,19,-34,-63,-63,-63,-43
0,-29,-29,14,14,-29,19,-34,-53,-63,-53,-53
0,-29,-29,14,14,-29,19,-34,-53,-63,-53,-53
0,-24,-24,12,12,-24,19,-34,-53,-63,-53,-48
4,-19,-24,7,14,-21,19,-34,-53,-63,-48,-48
-4,-19,-14,12,4,-17,29,-34,-53,-63,-48,-48
0,-19,-19,9,9,-19,29,-34,-48,-63,-43,-48
0,-19,-19,9,9,-19,24,-34,-43,-58,-43,-43
0,-19,-19,9,9,-19,24,-34,-43,-58,-43,-43
9,-19,-29,4,19,-24,24,-34,-43,-63,-48,-43
14,-19,-34,2,24,-26,19,-34,-43,-63,-43,-43
14,-14,-29,0,21,-21,19,-29,-43,-58,-43,-39
14,-14,-29,0,21,-21,19,-29,-43,-58,-43,-39
14,-24,-39,4,26,-31,19,-29,-43,-48,-29,-24
14,-24,-39,4,26,-31,19,-29,-48,-48,-29,-19
14,-19,-34,2,24,-26,19,-29,-48,-43,-19,-19
14,-19,-34,2,24,-26,14,-29,-48,-43,-19,-19
4,-19,-24,7,14,-21,14,-19,-39,-34,-14,-19
9,-19,-29,4,19,-24,14,-19,-34,-34,-14,-19
9,-14,-24,2,17,-19,14,-19,-29,-34,-14,-19
9,-14,-24,2,17,-19,14,-19,-29,-34,-9,-9
19,-4,-24,-7,21,-14,14,-24,-29,-19,-14,-4
24,0,-24,-12,24,-12,9,-24,-29,-19,-9,0
24,0,-24,-12,24,-12,9,-24,-29,-19,-4,0
24,0,-24,-12,24,-12,4,-24,-24,-14,-4,4
39,-4,-43,-17,41,-24,4,-14,-24,-9,9,9
39,0,-39,-19,39,-19,0,-14,-24,-4,9,9
39,0,-39,-19,39,-19,0,-9,-24,0,14,14
39,4,-34,-21,36,-14,-4,-9,-24,4,19,14
43,14,-29,-29,36,-7,-4,-19,-24,4,24,19
43,24,-19,-34,31,2,-4,-19,-19,9,29,29
48,29,-19,-39,34,4,-4,-19,-19,14,34,34
48,29,-19,-39,34,4,-9,-19,-14,19,39,39
53,43,-9,-48,31,17,-24,-9,-14,24,48,43
58,43,-14,-51,36,14,-24,-9,-14,29,53,48
58,43,-14,-51,36,14,-29,-14,-14,29,63,53
58,48,-9,-53,34,19,-29,-14,-14,34,68,63
58,43,-14,-51,36,14,-24,-4,-4,48,78,68
58,48,-9,-53,34,19,-29,-14,0,53,87,73
58,53,-4,-56,31,24,-34,-19,0,58,92,82
63,58,-4,-61,34,26,-39,-19,0,68,107,87
68,73,4,-70,31,39,-43,-19,9,78,117,92
73,78,4,-75,34,41,-43,-29,9,82,126,107
73,82,9,-78,31,46,-48,-34,9,87,136,117
78,87,9,-82,34,48,-53,-34,9,97,146,122
82,92,9,-87,36,51,-73,-39,9,97,156,131
82,102,19,-92,31,61,-78,-43,9,102,165,141
87,102,14,-95,36,58,-82,-48,9,112,170,146
92,112,19,-102,36,65,-87,-53,9,117,180,151
107,117,9,-112,48,63,-92,-68,9,117,180,161
107,117,9,-112,48,63,-102,-73,9,122,190,170
112,126,14,-119,48,70,-107,-78,4,126,195,175
112,141,29,-126,41,85,-117,-82,4,131,204,185
122,156,34,-139,43,95,-131,-87,-4,136,214,195
122,161,39,-141,41,100,-131,-92,-4,141,224,204
122,161,39,-141,41,100,-141,-92,-9,146,234,214
122,165,43,-143,39,104,-146,-97,-9,151,244,224
122,170,48,-146,36,109,-161,-112,-9,141,253,224
126,175,48,-151,39,112,-161,-117,-14,151,253,229
126,180,53,-153,36,117,-170,-122,-14,156,263,234
131,185,53,-158,39,119,-170,-131,-19,156,263,239
122,190,68,-156,26,129,-170,-126,-19,161,283,258
122,190,68,-156,26,129,-170,-136,-19,165,283,263
126,195,68,-161,29,131,-180,-141,-29,170,292,263
131,200,68,-165,31,134,-185,-141,-34,175,292,268
131,200,68,-165,31,134,-180,-146,-24,175,297,273
131,200,68,-165,31,134,-180,-146,-24,170,297,273
136,200,63,-168,36,131,-180,-146,-24,170,297,268
136,195,58,-165,39,126,-180,-136,-24,165,292,268
141,190,48,-165,46,119,-190,-136,-34,156,278,268
141,185,43,-163,48,114,-185,-131,-39,151,258,263
141,175,34,-158,53,104,-180,-131,-39,141,253,244
136,170,34,-153,51,102,-175,-122,-34,131,234,234
136,161,24,-148,56,92,-165,-112,-24,117,224,209
136,151,14,-143,61,82,-161,-102,-24,112,204,200
131,136,4,-134,63,70,-146,-87,-19,107,185,185
126,126,0,-126,63,63,-131,-78,-19,92,170,170
112,122,9,-117,51,65,-112,-63,-24,102,161,165
102,112,9,-107,46,61,-97,-48,-14,97,146,146
102,102,0,-102,51,51,-82,-39,-9,87,131,136
97,92,-4,-95,51,43,-68,-24,-4,73,112,126
87,87,0,-87,43,43,-63,-19,4,63,82,107
78,78,0,-78,39,39,-53,-9,14,58,73,78
68,68,0,-68,34,34,-39,-4,19,48,63,58
63,68,4,-65,29,36,-29,4,24,48,48,43
53,53,0,-53,26,26,-29,4,24,34,43,43
43,53,9,-48,17,31,-19,9,24,29,39,34
34,48,14,-41,9,31,-14,14,19,29,29,24
29,43,14,-36,7,29,-4,19,19,24,14,9
29,24,-4,-26,17,9,-9,19,29,29,14,9
29,24,-4,-26,17,9,0,19,29,24,4,4
19,14,-4,-17,12,4,9,24,29,19,0,-4
14,14,0,-14,7,7,14,24,24,9,-4,-14
9,9,0,-9,4,4,19,24,24,-4,-9,-24
4,9,4,-7,0,7,24,19,24,-9,-9,-24
-4,4,9,0,-7,7,34,19,24,-9,-19,-29
-4,0,4,2,-4,2,39,19,24,-9,-19,-29
-4,-9,-4,7,0,-7,43,9,14,-4,-29,-43
-9,-14,-4,12,-2,-9,48,9,14,-9,-39,-48
-14,-14,0,14,-7,-7,48,9,9,-14,-39,-48
-14,-19,-4,17,-4,-12,48,9,9,-19,-43,-48
-14,-19,-4,17,-4,-12,48,4,9,-34,-53,-53
-19,-19,0,19,-9,-9,43,4,0,-34,-58,-58
-19,-19,0,19,-9,-9,43,0,0,-39,-58,-58
-19,-19,0,19,-9,-9,43,0,0,-39,-63,-58
-24,-19,4,21,-14,-7,39,0,-14,-48,-73,-58
-24,-19,4,21,-14,-7,39,-4,-14,-48,-73,-63
-24,-19,4,21,-14,-7,43,-4,-14,-53,-73,-63
-29,-19,9,24,-19,-4,43,-4,-14,-53,-73,-63
-29,-19,9,24,-19,-4,39,-4,-14,-43,-73,-73
-29,-29,0,29,-14,-14,39,-4,-14,-48,-78,-78
-29,-29,0,29,-14,-14,39,-9,-19,-48,-78,-78
-29,-24,4,26,-17,-9,43,-9,-19,-48,-78,-78
-34,-24,9,29,-21,-7,43,-9,-9,-48,-73,-78
-34,-24,9,29,-21,-7,43,-9,-14,-48,-73,-78
-34,-24,9,29,-21,-7,43,-9,-14,-48,-73,-78
-34,-24,9,29,-21,-7,43,-9,-14,-48,-73,-78
-34,-34,0,34,-17,-17,53,4,-4,-43,-73,-68
-29,-34,-4,31,-12,-19,58,4,-4,-43,-68,-63
-29,-29,0,29,-14,-14,58,4,-9,-43,-68,-63
-34,-29,4,31,-19,-12,58,4,-9,-48,-63,-58
-34,-29,4,31,-19,-12,48,0,-9,-48,-63,-68
-34,-29,4,31,-19,-12,48,0,-4,-53,-63,-68
-34,-29,4,31,-19,-12,48,0,-4,-53,-68,-68
-34,-29,4,31,-19,-12,48,0,-4,-53,-68,-68
-24,-39,-14,31,-4,-26,48,9,-4,-53,-78,-82
-24,-39,-14,31,-4,-26,48,9,-4,-53,-78,-82
-24,-39,-14,31,-4,-26,48,9,-4,-53,-73,-78
-24,-39,-14,31,-4,-26,48,9,-4,-48,-73,-73
-24,-39,-14,31,-4,-26,58,4,-4,-39,-63,-63
-24,-43,-19,34,-2,-31,58,4,0,-39,-63,-63
-24,-43,-19,34,-2,-31,58,9,0,-39,-63,-63
-24,-39,-14,31,-4,-26,58,9,0,-39,-63,-63
-24,-39,-14,31,-4,-26,58,19,9,-34,-58,-53
-24,-39,-14,31,-4,-26,58,19,9,-34,-58,-53
-24,-39,-14,31,-4,-26,58,19,9,-34,-58,-53
-24,-39,-14,31,-4,-26,58,19,9,-34,-58,-48
-24,-34,-9,29,-7,-21,58,9,9,-34,-58,-58
-24,-29,-4,26,-9,-17,58,9,9,-34,-58,-58
-24,-19,4,21,-14,-7,58,9,9,-34,-58,-58
-24,-9,14,17,-19,2,58,9,9,-29,-58,-58
-24,-9,14,17,-19,2,48,9,9,-34,-58,-58
-19,-9,9,14,-14,0,48,14,14,-34,-63,-58
-19,-9,9,14,-14,0,48,14,14,-34,-68,-58
-19,-9,9,14,-14,0,48,14,14,-34,-73,-58
-9,-4,4,7,-7,0,48,14,14,-24,-68,-58
-9,-4,4,7,-7,0,48,14,14,-24,-68,-58
-9,0,9,4,-9,4,48,14,14,-24,-68,-58
-9,0,9,4,-9,4,48,14,19,-24,-68,-53
-19,-14,4,17,-12,-4,53,14,19,-24,-58,-48
-19,-14,4,17,-12,-4,53,24,19,-19,-48,-43
-19,-14,4,17,-12,-4,53,24,19,-14,-48,-43
-19,-9,9,14,-14,0,53,24,19,-14,-48,-43
-19,0,19,9,-19,9,53,19,19,-14,-48,-48
-19,0,19,9,-19,9,53,19,19,-14,-43,-48
-19,0,19,9,-19,9,48,19,19,-9,-43,-48
-19,0,19,9,-19,9,48,24,19,-9,-43,-48
-19,-4,14,12,-17,4,48,14,19,-9,-34,-48
-19,-4,14,12,-17,4,48,9,19,-9,-29,-53
-14,-4,9,9,-12,2,48,9,19,-14,-29,-53
-14,-4,9,9,-12,2,48,14,19,-14,-29,-48
-14,-4,9,9,-12,2,39,14,19,-19,-39,-39
-14,-4,9,9,-12,2,39,14,19,-19,-39,-39
-14,-4,9,9,-12,2,39,14,24,-19,-39,-39
-14,0,14,7,-14,7,39,14,24,-19,-39,-39
-14,0,14,7,-14,7,39,14,24,-9,-29,-48
-14,-4,9,9,-12,2,39,14,24,-9,-29,-48
-14,-4,9,9,-12,2,39,9,24,-9,-29,-43
-14,0,14,7,-14,7,39,9,24,-9,-34,-43
-24,-4,19,14,-21,7,43,19,24,-4,-34,-34
-24,-4,19,14,-21,7,43,19,19,-4,-34,-34
-24,-4,19,14,-21,7,48,19,19,-4,-34,-34
-24,-4,19,14,-21,7,53,19,19,-4,-34,-39
-24,4,29,9,-26,17,43,9,19,-14,-34,-39
-24,0,24,12,-24,12,43,9,19,-14,-34,-39
-24,0,24,12,-24,12,43,9,19,-14,-34,-39
-24,0,24,12,-24,12,43,9,19,-14,-34,-39
-24,-9,14,17,-19,2,43,0,9,-24,-43,-48
-24,-9,14,17,-19,2,43,0,4,-24,-43,-48
-24,-9,14,17,-19,2,43,0,4,-24,-48,-48
-24,-9,14,17,-19,2,43,-4,4,-29,-48,-48
-24,-14,9,19,-17,-2,43,4,4,-29,-58,-58
-24,-14,9,19,-17,-2,43,4,0,-29,-58,-58
-24,-19,4,21,-14,-7,34,-4,0,-34,-58,-58
-29,-19,9,24,-19,-4,39,0,0,-39,-58,-58
-29,-19,9,24,-19,-4,29,0,-9,-48,-68,-58
-29,-19,9,24,-19,-4,29,0,-9,-48,-68,-58
-29,-19,9,24,-19,-4,29,0,-9,-48,-68,-58
-29,-19,9,24,-19,-4,29,0,-9,-48,-68,-58
-29,-29,0,29,-14,-14,39,0,-14,-39,-58,-58
-29,-29,0,29,-14,-14,39,-4,-14,-39,-63,-63
-29,-29,0,29,-14,-14,34,-4,-14,-43,-68,-63
-29,-34,-4,31,-12,-19,34,-4,-19,-43,-68,-63
-29,-34,-4,31,-12,-19,39,-14,-9,-43,-68,-53
-29,-29,0,29,-14,-14,39,-14,-9,-43,-68,-53
-34,-29,4,31,-19,-12,39,-14,-9,-43,-68,-53
-34,-29,4,31,-19,-12,39,-14,-9,-43,-68,-53
-19,-29,-9,24,-4,-19,39,-9,-19,-48,-78,-63
-19,-29,-9,24,-4,-19,39,-9,-19,-53,-82,-68
-24,-29,-4,26,-9,-17,39,-9,-19,-53,-82,-68
-24,-29,-4,26,-9,-17,39,-9,-19,-53,-82,-68
-34,-39,-4,36,-14,-21,39,-9,-19,-53,-82,-68
-34,-39,-4,36,-14,-21,39,-9,-19,-53,-82,-68
-34,-39,-4,36,-14,-21,39,-9,-14,-53,-78,-68
-34,-39,-4,36,-14,-21,43,-4,-14,-48,-78,-63
-29,-39,-9,34,-9,-24,48,0,-9,-43,-78,-53
-29,-34,-4,31,-12,-19,58,0,-9,-43,-73,-53
-29,-34,-4,31,-12,-19,63,4,-4,-43,-73,-53
-29,-24,4,26,-17,-9,68,14,0,-39,-68,-53
-19,-24,-4,21,-7,-14,58,24,9,-43,-58,-53
-19,-24,-4,21,-7,-14,63,29,9,-34,-53,-53
-19,-24,-4,21,-7,-14,63,29,14,-34,-53,-48
-19,-24,-4,21,-7,-14,63,24,14,-34,-53,-48
-19,-29,-9,24,-4,-19,73,24,9,-29,-48,-48
-19,-29,-9,24,-4,-19,73,24,9,-29,-48,-48
-19,-29,-9,24,-4,-19,78,29,14,-29,-48,-53
-19,-34,-14,26,-2,-24,87,29,19,-29,-48,-53
-19,-43,-24,31,2,-34,82,34,9,-34,-63,-58
-24,-43,-19,34,-2,-31,92,43,19,-34,-63,-58
-24,-34,-9,29,-7,-21,112,58,29,-29,-53,-58
-19,-29,-9,24,-4,-19,126,68,48,-14,-53,-63
-24,-29,-4,26,-9,-17,141,97,68,-4,-39,-48
-19,-24,-4,21,-7,-14,146,112,73,9,-34,-43
-14,-19,-4,17,-4,-12,141,107,78,14,-34,-39
-9,-14,-4,12,-2,-9,117,97,78,14,-34,-34
0,-4,-4,2,2,-4,97,82,68,9,-29,-29
0,-4,-4,2,2,-4,63,58,58,9,-34,-29
0,-4,-4,2,2,-4,34,34,43,4,-29,-24
4,-9,-14,2,9,-12,19,19,29,0,-29,-24
4,0,-4,-2,4,-2,-4,9,24,-4,-39,-34
0,-4,-4,2,2,-4,-4,0,14,-19,-43,-34
0,-4,-4,2,2,-4,-4,-4,4,-34,-48,-39
-4,-9,-4,7,0,-7,-4,-14,-9,-43,-63,-48
0,-14,-14,7,7,-14,-24,-39,-24,-63,-78,-58
-4,-19,-14,12,4,-17,-24,-53,-43,-73,-87,-58
-9,-19,-9,14,0,-14,-29,-68,-53,-82,-92,-63
-19,-19,0,19,-9,-9,-29,-73,-73,-87,-97,-68
-29,-9,19,19,-24,4,-43,-82,-78,-97,-92,-58
-34,-19,14,26,-24,-2,-43,-87,-82,-97,-97,-63
-39,-19,19,29,-29,0,-39,-82,-82,-102,-97,-68
-43,-29,14,36,-29,-7,-29,-87,-82,-102,-102,-73
-34,-39,-4,36,-14,-21,-29,-73,-87,-112,-102,-73
-34,-43,-9,39,-12,-26,-14,-68,-78,-107,-102,-73
-34,-48,-14,41,-9,-31,-9,-68,-78,-102,-102,-73
-34,-48,-14,41,-9,-31,-4,-68,-73,-102,-97,-73
-39,-63,-24,51,-7,-43,0,-63,-63,-92,-97,-73
-39,-63,-24,51,-7,-43,0,-58,-63,-87,-97,-73
-39,-63,-24,51,-7,-43,0,-58,-63,-87,-97,-78
-39,-68,-29,53,-4,-48,0,-58,-63,-87,-97,-78
-53,-58,-4,56,-24,-31,-4,-58,-73,-97,-112,-87
-53,-58,-4,56,-24,-31,-4,-58,-73,-97,-112,-87
-53,-58,-4,56,-24,-31,-4,-58,-73,-97,-112,-87
-53,-58,-4,56,-24,-31,-4,-58,-73,-97,-112,-87
-53,-63,-9,58,-21,-36,-4,-68,-73,-97,-102,-82
-53,-63,-9,58,-21,-36,-4,-68,-73,-97,-102,-82
-53,-63,-9,58,-21,-36,-4,-68,-73,-97,-102,-78
-53,-58,-4,56,-24,-31,-4,-68,-73,-97,-102,-78
-53,-43,9,48,-31,-17,-4,-68,-63,-92,-92,-78
-58,-43,14,51,-36,-14,-4,-68,-63,-92,-92,-78
-58,-48,9,53,-34,-19,-4,-68,-63,-92,-92,-78
-58,-48,9,53,-34,-19,-4,-68,-63,-92,-92,-78
-58,-48,9,53,-34,-19,-4,-68,-73,-102,-102,-92
-58,-48,9,53,-34,-19,-4,-68,-73,-102,-102,-92
-58,-48,9,53,-34,-19,-4,-68,-78,-107,-102,-92
-58,-48,9,53,-34,-19,-4,-68,-78,-107,-112,-92
-68,-58,9,63,-39,-24,9,-68,-78,-97,-122,-92
-68,-53,14,61,-41,-19,9,-68,-73,-97,-117,-92
-68,-53,14,61,-41,-19,9,-68,-73,-97,-117,-92
-68,-53,14,61,-41,-19,9,-68,-73,-97,-117,-92
-58,-53,4,56,-31,-24,9,-58,-73,-97,-117,-92
-58,-53,4,56,-31,-24,9,-58,-73,-97,-117,-92
-58,-53,4,56,-31,-24,9,-53,-73,-97,-117,-92
-58,-53,4,56,-31,-24,9,-53,-73,-97,-117,-92
-68,-53,14,61,-41,-19,14,-58,-73,-97,-107,-87
-58,-48,9,53,-34,-19,24,-48,-68,-97,-112,-87
-58,-53,4,56,-31,-24,34,-34,-53,-92,-122,-102
-68,-63,4,65,-36,-29,53,-19,-48,-92,-131,-112
-68,-82,-14,75,-26,-48,78,14,-34,-82,-131,-131
-78,-92,-14,85,-31,-53,92,48,-4,-68,-131,-146
-87,-107,-19,97,-34,-63,122,97,43,-48,-122,-146
-87,-107,-19,97,-34,-63,151,156,97,-14,-107,-146
-82,-107,-24,95,-29,-65,185,209,151,29,-82,-136
-63,-107,-43,85,-9,-75,195,263,200,82,-39,-107
-19,-102,-82,61,31,-92,195,312,258,141,19,-63
43,-82,-126,19,85,-104,190,370,307,224,112,4
117,-43,-161,-36,139,-102,175,405,370,317,224,102
209,19,-190,-114,200,-85,146,439,448,439,366,229
297,102,-195,-200,246,-46,97,453,512,546,522,370
405,190,-214,-297,309,-12,34,429,570,663,683,531
502,268,-234,-385,368,17,-39,395,614,771,858,697
580,351,-229,-466,405,61,-112,317,614,844,1000,839
653,409,-244,-531,448,82,-170,263,585,907,1117,966
717,453,-263,-585,490,95,-219,229,570,946,1210,1058
746,463,-283,-605,514,90,-239,209,546,956,1263,1117
741,458,-283,-600,512,87,-229,185,507,897,1215,1093
688,419,-268,-553,478,75,-190,161,424,746,1024,956
580,331,-248,-456,414,41,-112,156,312,497,688,702
429,209,-219,-319,324,-4,-14,141,180,200,297,400
229,102,-126,-165,178,-12,102,107,58,-68,-43,112
19,53,34,-36,-7,43,190,78,-19,-204,-258,-82
-165,53,219,56,-192,136,268,58,-34,-253,-370,-185
-283,39,322,122,-302,180,317,48,-43,-283,-434,-268
-336,19,356,158,-346,187,326,34,-48,-278,-448,-312
-346,19,366,163,-356,192,331,29,-19,-248,-409,-302
-326,24,351,151,-339,187,346,24,-9,-239,-385,-292
-322,-4,317,163,-319,156,356,4,-48,-258,-385,-297
-331,-29,302,180,-317,136,380,14,-48,-258,-385,-297
-312,-39,273,175,-292,117,429,48,-9,-248,-361,-292
-302,-58,244,180,-273,92,444,34,-24,-239,-351,-283
-297,-68,229,183,-263,80,409,-63,-97,-273,-341,-278
-273,-68,204,170,-239,68,331,-190,-185,-297,-341,-258
-244,-68,175,156,-209,53,190,-302,-278,-307,-322,-229
-204,-58,146,131,-175,43,43,-375,-326,-322,-297,-200
-165,-39,126,102,-146,43,-39,-375,-341,-312,-268,-185
-131,-39,92,85,-112,26,-68,-331,-312,-287,-248,-170
-126,-39,87,82,-107,24,-63,-273,-268,-253,-229,-165
-117,-34,82,75,-100,24,-43,-224,-234,-229,-204,-156
-92,-29,63,61,-78,17,-14,-180,-190,-190,-190,-151
-82,-34,48,58,-65,7,0,-136,-151,-156,-170,-141
-73,-43,29,58,-51,-7,19,-97,-112,-122,-146,-122
-58,-48,9,53,-34,-19,34,-53,-82,-107,-117,-107
-53,-53,0,53,-26,-26,43,-34,-48,-97,-107,-92
-48,-63,-14,56,-17,-39,34,-29,-58,-107,-107,-82
-43,-63,-19,53,-12,-41,34,-24,-58,-102,-102,-82
-43,-63,-19,53,-12,-41,34,-24,-53,-92,-102,-82
-43,-63,-19,53,-12,-41,29,-19,-53,-87,-92,-78
-29,-63,-34,46,2,-48,29,-9,-58,-68,-82,-73
-29,-63,-34,46,2,-48,29,-9,-48,-68,-78,-73
-29,-68,-39,48,4,-53,29,-9,-48,-73,-78,-73
-29,-68,-39,48,4,-53,29,-9,-48,-73,-78,-68
-24,-53,-29,39,2,-41,34,-9,-39,-73,-87,-68
-24,-53,-29,39,2,-41,34,-14,-39,-73,-87,-68
-24,-53,-29,39,2,-41,29,-14,-43,-73,-82,-63
-24,-53,-29,39,2,-41,29,-9,-43,-68,-82,-63
-14,-43,-29,29,7,-36,24,-14,-43,-63,-73,-58
-14,-43,-29,29,7,-36,19,-14,-43,-63,-73,-58
-14,-48,-34,31,9,-41,14,-14,-39,-58,-73,-58
-9,-48,-39,29,14,-43,9,-19,-39,-58,-73,-53
-19,-58,-39,39,9,-48,19,-9,-39,-58,-58,-53
-14,-53,-39,34,12,-46,14,-9,-39,-58,-58,-53
-14,-48,-34,31,9,-41,14,-9,-34,-53,-58,-53
-14,-48,-34,31,9,-41,9,-4,-34,-53,-58,-53
-14,-58,-43,36,14,-51,9,-4,-34,-53,-58,-63
-14,-58,-43,36,14,-51,9,-4,-29,-53,-58,-58
-9,-58,-48,34,19,-53,9,-4,-29,-53,-53,-58
-9,-58,-48,34,19,-53,9,-4,-29,-53,-53,-58
-9,-48,-39,29,14,-43,0,-14,-29,-58,-58,-48
-4,-48,-43,26,19,-46,0,-14,-29,-58,-53,-48
-4,-48,-43,26,19,-46,0,-14,-29,-58,-53,-43
-9,-48,-39,29,14,-43,0,-14,-34,-53,-53,-43
-9,-39,-29,24,9,-34,-9,-24,-43,-43,-43,-43
-9,-39,-29,24,9,-34,-9,-24,-43,-43,-43,-43
-9,-34,-24,21,7,-29,-9,-24,-43,-43,-43,-39
-4,-29,-24,17,9,-26,-9,-24,-43,-43,-39,-39
-14,-39,-24,26,4,-31,0,-24,-43,-43,-39,-29
-9,-39,-29,24,9,-34,0,-24,-39,-43,-34,-29
-9,-39,-29,24,9,-34,-4,-24,-34,-39,-34,-24
-9,-39,-29,24,9,-34,-4,-24,-34,-39,-34,-24
-9,-39,-29,24,9,-34,-4,-24,-34,-34,-29,-24
-4,-39,-34,21,14,-36,-9,-24,-34,-34,-24,-24
-4,-34,-29,19,12,-31,-9,-19,-34,-29,-24,-19
-4,-34,-29,19,12,-31,-9,-19,-34,-29,-24,-19
-4,-29,-24,17,9,-26,-19,-19,-24,-29,-19,-24
-4,-24,-19,14,7,-21,-19,-19,-29,-29,-19,-19
-4,-14,-9,9,2,-12,-19,-19,-29,-24,-9,-19
-4,-9,-4,7,0,-7,-24,-19,-29,-24,-9,-19
-14,-19,-4,17,-4,-12,-14,-19,-29,-24,-9,-19
-9,-19,-9,14,0,-14,-14,-19,-24,-24,-14,-19
-9,-14,-4,12,-2,-9,-14,-19,-19,-24,-19,-19
-9,-14,-4,12,-2,-9,-14,-19,-19,-24,-19,-9
0,-14,-14,7,7,-14,-24,-24,-29,-19,-14,-4
4,-9,-14,2,9,-12,-29,-24,-29,-19,-9,0
4,-9,-14,2,9,-12,-29,-24,-29,-19,-4,0
4,-9,-14,2,9,-12,-34,-24,-24,-14,-4,4
0,-4,-4,2,2,-4,-24,-34,-24,-9,0,9
0,0,0,0,0,0,-29,-34,-24,-4,0,9
0,0,0,0,0,0,-29,-29,-24,0,4,14
0,4,4,-2,-2,4,-34,-29,-24,4,9,14
4,0,-4,-2,4,-2,-43,-29,-34,0,4,9
4,4,0,-4,2,2,-43,-29,-29,0,9,19
9,4,-4,-7,7,0,-43,-29,-29,0,14,24
9,0,-9,-4,9,-4,-48,-29,-24,0,19,29
24,4,-19,-14,21,-7,-63,-39,-24,4,29,24
29,4,-24,-17,26,-9,-63,-39,-24,9,34,29
29,4,-24,-17,26,-9,-68,-43,-24,9,43,34
29,9,-19,-19,24,-4,-68,-43,-24,14,48,43
39,24,-14,-31,26,4,-73,-34,-14,34,68,53
39,29,-9,-34,24,9,-78,-43,-9,43,78,63
39,34,-4,-36,21,14,-82,-48,-9,53,82,78
43,39,-4,-41,24,17,-87,-48,-9,68,97,87
39,34,-4,-36,21,14,-82,-48,-9,73,97,92
43,39,-4,-41,24,17,-82,-58,-9,73,107,107
43,43,0,-43,21,21,-87,-63,-9,73,117,117
48,48,0,-48,24,24,-92,-63,-9,78,126,122
53,53,0,-53,26,26,-102,-68,-19,87,146,141
53,63,9,-58,21,36,-107,-73,-19,92,156,151
58,63,4,-61,26,34,-112,-78,-19,102,161,156
63,73,9,-68,26,41,-117,-82,-19,107,170,161
68,78,9,-73,29,43,-122,-78,-9,117,190,170
68,78,9,-73,29,43,-131,-82,-9,122,200,180
73,87,14,-80,29,51,-136,-87,-14,126,204,185
73,102,29,-87,21,65,-146,-92,-14,131,214,195
92,117,24,-104,34,70,-170,-117,-24,126,224,195
92,122,29,-107,31,75,-170,-122,-24,131,234,204
92,122,29,-107,31,75,-180,-122,-29,136,244,214
92,126,34,-109,29,80,-185,-126,-29,141,253,224
92,122,29,-107,31,75,-190,-122,-29,151,273,234
97,126,29,-112,34,78,-190,-126,-34,161,273,239
97,131,34,-114,31,82,-200,-131,-34,165,283,244
102,136,34,-119,34,85,-200,-141,-39,165,283,248
102,151,48,-126,26,100,-200,-146,-39,156,287,248
102,151,48,-126,26,100,-200,-156,-39,156,283,253
107,156,48,-131,29,102,-209,-161,-48,156,287,253
112,161,48,-136,31,104,-214,-161,-53,156,283,258
112,161,48,-136,31,104,-229,-175,-53,161,297,278
112,161,48,-136,31,104,-229,-175,-53,161,297,283
117,161,43,-139,36,102,-229,-175,-53,165,297,283
117,156,39,-136,39,97,-229,-165,-53,165,292,287
131,151,19,-141,56,85,-229,-156,-53,165,292,278
131,146,14,-139,58,80,-224,-151,-58,161,278,273
131,136,4,-134,63,70,-219,-151,-58,151,278,253
126,131,4,-129,61,68,-214,-141,-53,141,263,244
126,122,-4,-124,65,58,-204,-131,-53,126,244,229
126,112,-14,-119,70,48,-200,-122,-53,122,224,219
122,97,-24,-109,73,36,-185,-107,-48,117,204,204
117,87,-29,-102,73,29,-170,-97,-48,102,190,190
112,87,-24,-100,68,31,-170,-92,-43,92,180,185
102,82,-19,-92,61,31,-156,-78,-34,87,165,165
102,78,-24,-90,63,26,-141,-68,-29,78,151,156
97,73,-24,-85,61,24,-126,-53,-24,63,131,146
87,68,-19,-78,53,24,-112,-29,-14,73,102,122
78,58,-19,-68,48,19,-102,-19,-4,68,92,97
68,48,-19,-58,43,14,-87,-14,0,58,82,82
63,48,-14,-56,39,17,-78,-4,4,58,68,73
53,24,-29,-39,41,-2,-68,14,9,43,53,53
43,24,-19,-34,31,2,-58,19,14,39,48,43
34,19,-14,-26,24,2,-53,24,14,39,39,34
29,14,-14,-21,21,0,-43,29,19,34,24,19
29,4,-24,-17,26,-9,-29,29,29,29,14,9
29,4,-24,-17,26,-9,-19,29,29,24,4,4
19,-4,-24,-7,21,-14,-9,34,29,19,0,-4
14,-4,-19,-4,17,-12,-4,34,24,9,-4,-14
9,-19,-29,4,19,-24,-4,43,34,4,-19,-14
4,-19,-24,7,14,-21,-4,39,34,0,-19,-14
-4,-24,-19,14,7,-21,0,39,34,0,-29,-19
-4,-29,-24,17,9,-26,0,39,34,0,-29,-19
-14,-19,-4,17,-4,-12,4,29,24,-4,-39,-34
-19,-24,-4,21,-7,-14,9,29,24,-9,-48,-39
-24,-24,0,24,-12,-12,9,29,19,-14,-48,-39
-24,-29,-4,26,-9,-17,9,29,19,-19,-53,-39
-24,-29,-4,26,-9,-17,19,24,19,-14,-53,-53
-29,-29,0,29,-14,-14,14,24,9,-14,-58,-58
-29,-29,0,29,-14,-14,14,19,9,-19,-58,-58
-29,-29,0,29,-14,-14,14,19,9,-19,-63,-58
-24,-39,-14,31,-4,-26,19,19,14,-19,-53,-53
-24,-39,-14,31,-4,-26,19,14,14,-19,-53,-53
-24,-39,-14,31,-4,-26,24,14,14,-24,-53,-48
-29,-39,-9,34,-9,-24,24,14,14,-24,-53,-43
-39,-29,9,34,-24,-9,9,14,4,-24,-53,-53
-39,-39,0,39,-19,-19,9,14,4,-29,-58,-58
-39,-39,0,39,-19,-19,9,9,0,-29,-58,-58
-39,-34,4,36,-21,-14,14,9,0,-29,-58,-58
-43,-34,9,39,-26,-12,24,9,9,-29,-63,-68
-43,-34,9,39,-26,-12,24,9,4,-29,-63,-68
-43,-34,9,39,-26,-12,24,9,4,-29,-63,-68
-43,-34,9,39,-26,-12,24,9,4,-29,-63,-68
-43,-39,4,41,-24,-17,24,4,4,-34,-68,-73
-39,-34,4,36,-21,-14,29,4,4,-34,-68,-73
-39,-24,14,31,-26,-4,29,4,0,-34,-73,-78
-43,-19,24,31,-34,2,29,4,0,-39,-73,-78
-43,-24,19,34,-31,-2,19,9,-9,-48,-73,-68
-43,-29,14,36,-29,-7,19,9,-4,-53,-73,-68
-43,-34,9,39,-26,-12,19,9,-4,-53,-78,-68
-43,-39,4,41,-24,-17,19,9,-4,-53,-78,-68
-43,-48,-4,46,-19,-26,19,0,-14,-53,-87,-82
-43,-48,-4,46,-19,-26,19,0,-14,-53,-87,-82
-43,-48,-4,46,-19,-26,19,0,-14,-53,-82,-78
-43,-48,-4,46,-19,-26,19,0,-14,-48,-82,-73
-43,-48,-4,46,-19,-26,19,-4,-14,-48,-92,-82
-43,-53,-9,48,-17,-31,19,-4,-9,-48,-92,-82
-43,-53,-9,48,-17,-31,19,0,-9,-48,-92,-82
-43,-48,-4,46,-19,-26,19,0,-9,-48,-92,-82
-53,-48,4,51,-29,-21,29,9,-9,-53,-97,-82
-53,-48,4,51,-29,-21,29,9,-9,-53,-97,-82
-53,-48,4,51,-29,-21,29,9,-9,-53,-97,-82
-53,-48,4,51,-29,-21,29,9,-9,-53,-97,-78
-43,-58,-14,51,-14,-36,19,9,-9,-53,-87,-87
-43,-58,-14,51,-14,-36,19,9,-9,-53,-87,-87
-43,-53,-9,48,-17,-31,19,9,-9,-53,-87,-87
-43,-48,-4,46,-19,-26,19,9,-9,-48,-87,-87
-43,-58,-14,51,-14,-36,19,9,-9,-34,-78,-73
-39,-58,-19,48,-9,-39,19,14,-4,-34,-73,-68
-39,-58,-19,48,-9,-39,19,14,-4,-34,-68,-63
-39,-58,-19,48,-9,-39,19,14,-4,-34,-63,-58
-39,-53,-14,46,-12,-34,19,14,4,-34,-68,-63
-39,-53,-14,46,-12,-34,19,14,4,-34,-68,-68
-39,-48,-9,43,-14,-29,19,14,4,-34,-68,-73
-39,-48,-9,43,-14,-29,19,14,9,-34,-68,-73
-39,-53,-14,46,-12,-34,14,4,9,-43,-73,-73
-39,-53,-14,46,-12,-34,14,14,9,-39,-68,-73
-39,-53,-14,46,-12,-34,14,14,9,-34,-73,-78
-39,-48,-9,43,-14,-29,14,14,9,-34,-78,-82
-39,-58,-19,48,-9,-39,19,19,9,-34,-68,-82
-39,-58,-19,48,-9,-39,24,19,9,-34,-63,-78
-39,-58,-19,48,-9,-39,24,19,9,-29,-63,-73
-39,-58,-19,48,-9,-39,29,24,9,-29,-63,-68
-48,-63,-14,56,-17,-39,29,24,9,-19,-63,-68
-48,-63,-14,56,-17,-39,29,19,9,-19,-58,-73
-43,-63,-19,53,-12,-41,29,19,9,-24,-58,-73
-43,-63,-19,53,-12,-41,29,24,9,-24,-58,-68
-34,-53,-19,43,-7,-36,19,24,9,-29,-58,-78
-34,-53,-19,43,-7,-36,19,24,9,-29,-58,-78
-34,-53,-19,43,-7,-36,19,24,14,-29,-58,-78
-34,-48,-14,41,-9,-31,19,24,14,-29,-58,-78
-43,-48,-4,46,-19,-26,29,34,14,-29,-58,-68
-43,-53,-9,48,-17,-31,29,34,14,-29,-58,-68
-43,-53,-9,48,-17,-31,29,29,14,-29,-58,-63
-43,-48,-4,46,-19,-26,29,29,14,-29,-63,-63
-34,-53,-19,43,-7,-36,29,29,14,-24,-63,-63
-34,-53,-19,43,-7,-36,24,29,9,-24,-63,-63
-34,-53,-19,43,-7,-36,24,29,9,-24,-63,-63
-34,-53,-19,43,-7,-36,24,29,9,-24,-63,-68
-34,-43,-9,39,-12,-26,24,29,9,-24,-63,-58
-34,-48,-14,41,-9,-31,24,29,9,-24,-63,-58
-34,-48,-14,41,-9,-31,24,29,9,-24,-63,-58
-34,-48,-14,41,-9,-31,24,29,9,-24,-63,-58
-34,-39,-4,36,-14,-21,14,29,9,-14,-53,-58
-34,-39,-4,36,-14,-21,14,29,4,-14,-53,-58
-34,-39,-4,36,-14,-21,14,29,4,-14,-58,-58
-34,-39,-4,36,-14,-21,14,24,4,-19,-58,-58
-24,-34,-9,29,-7,-21,14,24,4,-9,-48,-58
-24,-34,-9,29,-7,-21,14,24,9,-9,-48,-58
-24,-29,-4,26,-9,-17,14,14,9,-24,-48,-58
-24,-29,-4,26,-9,-17,14,24,4,-24,-58,-58
-39,-29,9,34,-24,-9,19,19,9,-29,-58,-58
-39,-39,0,39,-19,-19,19,19,0,-29,-68,-58
-39,-39,0,39,-19,-19,19,19,0,-29,-68,-58
-39,-39,0,39,-19,-19,19,19,0,-29,-68,-58
-39,-39,0,39,-19,-19,19,19,0,-29,-68,-58
-29,-39,-9,34,-9,-24,9,9,-4,-29,-68,-68
-29,-39,-9,34,-9,-24,9,4,-4,-29,-73,-73
-29,-39,-9,34,-9,-24,4,4,-4,-34,-78,-73
-29,-43,-14,36,-7,-29,4,4,-9,-34,-78,-73
-29,-43,-14,36,-7,-29,0,4,-9,-34,-68,-63
-29,-39,-9,34,-9,-24,0,4,-9,-34,-68,-63
-34,-39,-4,36,-14,-21,0,4,-9,-34,-68,-63
-34,-39,-4,36,-14,-21,0,4,-9,-34,-68,-63
-29,-39,-9,34,-9,-24,0,-9,-19,-39,-68,-63
-29,-39,-9,34,-9,-24,0,-9,-19,-43,-73,-68
-34,-39,-4,36,-14,-21,0,-9,-19,-43,-73,-68
-34,-39,-4,36,-14,-21,0,-9,-19,-43,-73,-68
-43,-39,4,41,-24,-17,0,-9,-19,-43,-63,-68
-43,-39,4,41,-24,-17,0,-9,-19,-43,-63,-68
-43,-39,4,41,-24,-17,0,-9,-14,-43,-58,-68
-43,-39,4,41,-24,-17,4,-4,-14,-39,-58,-63
-39,-48,-9,43,-14,-29,19,9,0,-24,-58,-63
-39,-43,-4,41,-17,-24,29,9,0,-24,-53,-63
-39,-43,-4,41,-17,-24,34,14,4,-24,-53,-63
-39,-34,4,36,-21,-14,39,24,9,-19,-48,-63
-39,-24,14,31,-26,-4,48,34,19,-19,-63,-73
-39,-24,14,31,-26,-4,53,39,19,-14,-63,-73
-39,-24,14,31,-26,-4,53,39,24,-19,-68,-68
