I,II,III,aVR,aVL,aVF,V1,V2,V3,V4,V5,V6
-14,20,35,-4,-25,27,-10,80,50,10,5,19
-1,34,35,-17,-18,34,-14,87,59,18,7,24
28,63,35,-46,-4,49,-21,103,72,27,12,46
57,88,31,-73,13,60,-27,112,77,26,16,54
75,105,29,-90,23,67,-34,127,79,23,21,65
73,103,31,-88,21,66,-40,137,76,21,30,82
71,106,35,-89,18,70,-34,129,74,17,30,92
81,121,40,-101,20,80,-28,123,76,15,30,90
73,116,43,-94,14,79,-21,116,74,13,27,83
54,102,48,-79,3,75,-3,109,76,10,24,79
24,81,57,-52,-17,69,18,104,71,7,25,69
-12,52,64,-20,-38,58,36,88,57,4,18,47
-31,34,65,-2,-48,50,42,67,43,1,8,33
-45,20,65,12,-55,42,44,48,29,-1,0,28
-60,5,65,27,-63,35,41,34,14,-4,-10,21
-73,-8,65,40,-69,28,39,26,3,-9,-18,14
-75,-10,65,42,-70,27,40,14,-1,-11,-26,8
-75,-12,63,43,-68,25,40,6,-3,-15,-34,2
-75,-16,59,45,-67,21,41,4,-6,-20,-30,0
-78,-18,60,48,-69,21,37,1,-10,-18,-30,0
-81,-21,60,51,-70,20,35,-2,-10,-14,-29,0
-76,-16,60,46,-68,21,35,-5,-6,-15,-25,0
-74,-14,60,44,-67,23,35,-5,-3,-15,-25,1
-70,-11,59,41,-65,24,35,-5,0,-15,-23,4
-74,-8,66,41,-70,29,35,-5,2,-15,-18,7
-77,-6,71,41,-74,32,30,-5,6,-10,-15,9
-73,-3,69,38,-71,33,30,-5,3,-10,-12,13
-71,0,70,36,-71,35,30,-5,-3,-9,-7,15
-67,2,70,32,-69,36,30,-8,-8,-5,-5,13
-65,6,70,30,-68,37,31,-11,-11,-5,-10,9
-69,1,70,34,-69,35,27,-10,-17,-7,-15,7
-70,0,70,35,-70,35,25,-10,-20,-17,-19,4
-69,0,70,35,-70,35,25,-10,-15,-21,-24,1
-70,0,71,35,-71,35,22,-11,-15,-20,-29,0
-70,14,84,27,-77,49,19,-20,-15,-20,-28,0
-69,16,85,26,-77,51,21,-22,-15,-19,-24,0
-76,9,85,33,-80,47,24,-19,-15,-21,-25,0
-83,2,86,40,-84,44,28,-20,-13,-17,-25,0
-88,-4,84,46,-86,40,31,-20,-6,-15,-25,-1
-97,-11,86,53,-91,38,34,-20,-2,-15,-25,3
-78,-15,64,46,-71,24,38,-19,4,-15,-18,5
-58,21,79,18,-69,50,47,-11,10,-15,-10,6
-62,40,102,11,-82,71,67,-3,14,-6,-2,11
-61,42,103,9,-82,73,69,5,27,6,6,9
-61,64,125,-2,-94,95,48,13,29,21,14,23
-29,90,119,-30,-75,104,19,11,20,24,14,37
-10,104,113,-47,-62,108,-4,2,15,12,5,29
-23,84,106,-31,-65,95,-6,-5,5,6,0,23
-19,79,98,-31,-58,88,-4,-11,0,-5,-10,14
-35,47,82,-6,-59,64,-7,-21,-9,-14,-14,8
-48,-8,40,28,-44,16,-3,-23,-12,-31,-24,0
-61,-25,37,43,-49,6,-7,-34,-21,-43,-43,-4
-68,-35,33,51,-50,-1,2,-26,-21,-37,-45,-7
-73,-36,37,54,-54,1,6,-35,-33,-44,-47,-10
-82,-48,34,64,-58,-7,10,-35,-32,-35,-42,-12
-87,-53,35,70,-61,-9,21,-32,-30,-46,-50,-17
-75,-41,34,58,-54,-3,16,-39,-28,-34,-47,-16
-67,-50,17,59,-42,-17,34,-10,-14,-46,-65,-39
-106,-32,75,69,-91,21,29,-43,-28,-51,-58,-47
-76,-41,36,58,-56,-2,142,132,107,32,-7,-15
318,243,-75,-280,196,84,-176,179,332,479,468,356
876,551,-325,-713,600,113,-841,-46,464,989,1053,816
623,238,-385,-430,504,-73,-651,-245,38,344,508,508
10,-6,-17,-2,13,-12,-239,-522,-543,-440,-204,6
-84,11,95,36,-89,52,-227,-462,-445,-349,-201,-59
-67,-27,41,47,-54,7,-158,-204,-196,-185,-137,-42
-63,-27,36,45,-49,4,-52,-75,-76,-91,-77,-34
-53,-35,17,44,-35,-9,0,-23,-34,-70,-59,-25
-50,-26,24,38,-37,-1,8,-18,-35,-64,-59,-22
-33,-24,9,28,-20,-7,13,1,-12,-47,-50,-17
-33,-23,10,28,-21,-6,14,5,-12,-48,-53,-16
-13,-12,1,12,-7,-5,22,19,5,-32,-43,-11
-19,-27,-8,24,-5,-17,32,24,7,-32,-45,-11
-28,-45,-16,37,-6,-30,24,30,17,-20,-36,-7
-13,-30,-17,22,2,-23,21,38,22,-17,-33,-4
-5,-17,-12,11,4,-14,16,41,29,-9,-29,0
0,-11,-11,6,6,-11,11,54,38,-3,-23,3
4,-3,-7,0,6,-5,7,57,44,1,-20,8
6,2,-5,-3,5,-1,1,74,61,7,-9,10
18,10,-7,-14,12,1,-4,90,65,10,5,17
28,13,-14,-20,21,-1,-9,93,76,15,17,27
57,35,-22,-46,39,7,-15,116,94,19,28,40
83,50,-33,-67,58,8,-19,126,95,23,34,68
91,53,-37,-72,64,8,-15,131,95,26,51,77
99,68,-31,-83,65,18,-13,142,95,24,62,78
104,77,-26,-90,65,25,-8,147,96,26,59,81
109,88,-21,-98,65,33,-7,148,101,24,61,72
94,80,-15,-87,54,32,1,137,94,27,59,63
75,65,-10,-70,42,27,30,128,88,37,61,55
54,49,-5,-51,29,22,47,113,80,32,53,45
16,15,0,-15,8,7,58,90,72,23,38,36
-7,-4,4,5,-5,0,61,60,66,15,25,20
-15,-11,4,13,-9,-3,59,37,54,7,2,3
-17,-21,-4,19,-6,-12,58,22,39,1,-14,-5
-25,-29,-5,27,-10,-17,54,7,28,-6,-17,-8
-25,-39,-14,32,-5,-26,56,5,24,-13,-21,-12
-25,-41,-16,33,-4,-28,51,5,22,-19,-24,-16
-34,-37,-2,36,-16,-19,50,1,19,-27,-29,-19
-28,-33,-5,31,-11,-19,50,0,16,-29,-30,-23
-28,-30,-2,29,-13,-15,45,0,14,-25,-30,-25
-30,-26,4,27,-17,-11,45,-5,11,-25,-30,-25
-29,-22,7,26,-18,-8,43,-5,10,-23,-30,-25
-33,-20,13,26,-23,-3,40,-6,9,-19,-30,-25
-32,-17,15,24,-23,-1,37,-10,4,-21,-30,-25
-29,-14,15,21,-22,0,35,-10,6,-16,-26,-20
-25,-11,15,18,-20,2,32,-12,3,-15,-25,-20
-25,-10,15,17,-20,2,29,-18,-1,-15,-25,-19
-29,-15,14,21,-21,0,34,-21,1,-10,-20,-15
-45,-18,27,31,-36,4,35,-27,-4,-10,-20,-15
-58,-22,37,40,-48,7,35,-30,-5,-10,-21,-15
-59,-25,34,42,-46,4,35,-25,-5,-10,-27,-15
-65,-30,36,47,-51,2,35,-25,-11,-10,-34,-15
-63,-28,35,45,-48,3,34,-24,-16,-9,-35,-15
-58,-23,35,40,-46,6,29,-20,-21,-11,-35,-15
-59,-20,38,39,-49,9,31,-20,-27,-8,-35,-15
-57,-16,41,36,-48,12,27,-18,-33,-19,-35,-10
-53,-13,40,33,-46,13,25,-11,-33,-26,-34,-10
-49,-8,40,28,-44,16,25,-6,-22,-17,-28,-9
-46,-6,40,26,-43,17,31,0,-13,-9,-22,-5
-35,3,39,16,-37,21,56,4,-2,-1,-17,-6
-31,4,35,13,-33,19,67,0,7,6,-11,-3
-16,25,41,-4,-29,32,64,-6,19,22,-6,4
3,78,75,-41,-36,77,48,-12,22,28,1,10
10,82,72,-47,-31,77,11,-17,13,19,5,14
36,69,33,-53,1,51,-3,-21,4,15,13,28
29,52,23,-41,3,37,5,-19,-3,9,13,25
-5,10,15,-3,-11,12,6,-21,-22,3,-8,6
-26,-21,5,24,-16,-8,10,-30,-42,-21,-24,-8
-60,-60,1,60,-30,-29,15,-42,-58,-47,-43,-29
-88,-91,-3,90,-42,-47,16,-42,-61,-42,-49,-39
-87,-95,-7,91,-40,-50,23,-36,-61,-48,-53,-41
-71,-80,-9,76,-31,-44,20,-46,-70,-47,-46,-38
-65,-81,-16,74,-24,-49,30,-32,-63,-51,-54,-42
-56,-67,-11,62,-22,-39,26,-51,-79,-50,-47,-37
-57,-68,-11,63,-23,-39,32,-25,-52,-40,-56,-43
-67,-73,-6,70,-30,-39,33,-38,-69,-60,-64,-44
-75,-78,-3,77,-36,-40,108,25,-15,-23,-29,-42
78,31,-48,-54,63,-8,103,197,205,193,153,104
658,435,-223,-546,440,106,-520,61,443,866,883,653
853,449,-404,-651,628,22,-831,-169,319,841,951,762
257,55,-202,-156,229,-73,-368,-436,-350,-155,61,186
-124,-68,56,96,-90,-6,-191,-553,-584,-435,-248,-84
-113,-74,38,93,-75,-18,-196,-352,-331,-239,-171,-74
-74,-71,3,73,-39,-34,-75,-152,-158,-123,-104,-76
-58,-64,-6,62,-26,-35,-5,-55,-64,-51,-53,-55
-55,-65,-10,60,-22,-37,30,-34,-55,-62,-66,-50
-42,-57,-15,50,-14,-36,30,-16,-31,-37,-45,-43
-33,-57,-23,45,-5,-39,30,-12,-24,-42,-48,-46
-24,-47,-22,36,-1,-34,30,-3,-14,-29,-36,-45
-24,-45,-21,34,-1,-33,29,5,-7,-24,-33,-45
-21,-37,-17,29,-1,-27,31,9,-6,-20,-28,-45
-17,-32,-15,25,-1,-23,26,19,4,-12,-23,-39
-22,-34,-12,28,-5,-22,22,23,6,-11,-20,-33
-26,-35,-9,30,-9,-21,16,32,15,-4,-13,-27
-10,-28,-18,19,4,-23,13,36,25,-1,-10,-22
9,-25,-34,8,22,-29,8,48,38,5,-3,-16
22,-19,-41,-1,32,-30,3,65,48,11,1,-10
28,-16,-44,-6,36,-30,-2,81,57,18,7,-5
31,-9,-40,-11,36,-24,-9,107,65,24,12,11
44,4,-40,-24,42,-18,-12,117,69,31,17,32
53,13,-40,-33,46,-13,-27,120,66,34,26,42
82,42,-40,-62,60,1,-36,123,63,29,33,52
98,49,-49,-73,73,0,-27,135,61,24,31,53
87,38,-49,-62,68,-6,-21,145,57,20,28,46
78,34,-44,-55,61,-5,-13,134,55,15,26,41
61,25,-37,-43,49,-6,7,127,52,10,22,34
44,21,-22,-32,33,-1,31,107,44,6,21,31
23,8,-15,-15,19,-3,51,84,38,1,16,18
11,-4,-15,-3,13,-9,55,59,30,-3,5,3
-10,-25,-15,18,3,-20,55,35,22,-8,-7,-18
-26,-41,-15,34,-6,-27,55,35,16,-12,-17,-36
-25,-41,-15,34,-5,-27,55,21,10,-17,-28,-35
-36,-50,-15,44,-11,-32,55,7,10,-20,-35,-39
-40,-50,-10,45,-15,-30,52,10,9,-23,-35,-41
-45,-50,-5,48,-20,-27,49,10,5,-25,-35,-40
-50,-50,-1,50,-25,-25,46,10,6,-21,-35,-40
-53,-50,4,51,-28,-23,43,10,2,-19,-35,-40
-59,-49,9,54,-34,-20,40,10,0,-20,-35,-40
-50,-42,8,46,-29,-17,39,7,0,-20,-35,-40
-42,-38,4,39,-23,-17,35,2,-4,-21,-35,-39
-38,-32,6,34,-21,-13,35,0,-5,-18,-35,-36
-31,-26,4,28,-17,-11,33,-5,-5,-15,-35,-33
-22,-21,1,21,-11,-10,29,-8,-5,-15,-35,-30
-23,-23,0,23,-11,-11,30,-12,-5,-15,-33,-28
-28,-28,0,28,-13,-13,26,-15,-5,-15,-29,-24
-28,-28,0,28,-14,-14,25,-15,-5,-15,-30,-27
-42,-43,0,43,-21,-21,25,-18,-5,-18,-30,-31
-52,-50,2,50,-27,-24,25,-20,-8,-21,-30,-30
-48,-42,7,44,-27,-17,26,-20,-10,-19,-30,-30
-48,-38,10,43,-29,-14,24,-16,-10,-20,-25,-30
-44,-31,13,37,-28,-9,20,-15,-14,-19,-25,-31
-44,-26,18,34,-31,-3,20,-15,-15,-21,-25,-34
-49,-29,20,39,-34,-4,20,-10,-15,-25,-25,-37
-49,-34,15,41,-32,-9,20,-10,-15,-24,-24,-40
-43,-28,15,35,-29,-6,19,-9,-15,-28,-28,-42
-35,-20,14,27,-24,-2,25,-5,-15,-30,-37,-46
-31,-15,16,23,-23,0,34,-5,-15,-30,-35,-42
-20,-6,14,12,-16,4,35,-3,-16,-26,-27,-34
-25,-4,22,14,-23,9,37,1,-12,-15,-22,-26
-41,13,54,14,-48,33,46,-1,1,-5,-14,-18
-33,28,61,2,-47,44,67,7,12,5,-8,-11
-11,40,51,-14,-32,45,62,18,26,12,-2,-3
24,71,47,-48,-12,58,33,11,32,20,1,4
28,66,38,-47,-5,52,29,5,23,15,4,11
20,53,33,-36,-7,43,24,-4,13,5,8,13
18,43,25,-31,-4,34,22,-9,6,-2,10,2
-3,16,20,-7,-12,18,17,-20,-6,-13,0,-7
-35,-24,12,29,-24,-6,15,-18,-10,-19,-30,-20
-60,-54,6,57,-33,-24,21,-24,-21,-30,-53,-32
-57,-59,-1,58,-28,-30,17,-36,-25,-34,-53,-42
-64,-76,-12,70,-26,-44,25,-33,-33,-38,-58,-47
-62,-73,-11,68,-25,-41,20,-40,-44,-32,-54,-42
-67,-80,-13,74,-27,-46,31,-28,-38,-38,-65,-49
-66,-68,-2,67,-31,-35,20,-46,-48,-33,-55,-40
-74,-84,-11,80,-31,-47,38,-18,-28,-38,-66,-52
-103,-77,25,90,-64,-26,47,-32,-57,-50,-58,-45
-87,-53,35,70,-61,-9,125,59,27,-2,-40,-44
167,110,-57,-139,112,27,7,197,265,309,258,184
766,508,-258,-637,512,124,-690,17,458,941,972,733
792,368,-425,-580,608,-28,-804,-204,219,654,778,663
145,-11,-156,-67,150,-83,-316,-463,-442,-287,-68,92
-136,-50,86,93,-111,18,-227,-539,-545,-412,-236,-90
-89,-63,26,76,-57,-18,-183,-290,-253,-204,-148,-72
-54,-48,6,51,-30,-21,-61,-105,-118,-101,-93,-70
-42,-48,-6,46,-18,-27,-3,-39,-50,-59,-57,-61
-37,-43,-7,40,-15,-25,21,-20,-39,-61,-62,-59
-26,-38,-12,33,-7,-25,29,-2,-16,-43,-50,-50
-50,-67,-17,59,-16,-41,39,9,-9,-47,-54,-47
-63,-64,-1,64,-31,-33,34,17,1,-35,-44,-41
-40,-56,-16,48,-11,-36,36,25,10,-34,-45,-36
-17,-49,-32,33,8,-40,32,21,16,-25,-39,-31
-16,-42,-26,30,5,-34,29,16,26,-19,-33,-27
-15,-36,-21,26,3,-28,31,28,28,-13,-30,-23
-11,-28,-18,20,4,-23,26,39,33,-5,-24,-18
-11,-23,-12,18,0,-18,20,53,34,0,-21,-13
-5,-17,-11,11,3,-14,15,60,39,7,-15,-7
7,-8,-15,1,11,-11,9,70,53,11,-5,-1
28,2,-26,-15,27,-12,4,99,70,17,5,4
49,18,-31,-33,40,-6,-1,109,80,23,13,11
53,28,-25,-40,39,1,-6,121,81,22,19,24
71,49,-23,-60,47,13,-11,130,80,20,26,35
91,72,-19,-81,55,26,-14,137,80,20,33,44
90,77,-13,-83,51,32,-21,143,80,20,32,54
100,72,-28,-86,64,21,-13,134,80,20,29,52
103,63,-40,-83,71,11,2,128,80,20,26,44
81,55,-26,-68,53,14,15,121,75,28,23,38
63,48,-15,-55,38,17,47,113,66,33,20,31
44,34,-10,-39,27,12,66,91,58,24,19,19
20,12,-7,-16,13,2,64,67,48,18,10,1
7,2,-5,-4,6,-1,65,48,36,11,0,-12
-2,-4,-2,3,0,-2,65,35,21,5,-11,-19
-12,-11,0,12,-6,-5,65,30,11,0,-23,-25
-19,-16,3,18,-11,-6,64,22,7,-5,-35,-30
-38,-31,7,34,-22,-12,59,14,4,-9,-43,-30
-50,-41,8,45,-29,-17,56,7,0,-14,-40,-30
-52,-39,13,45,-32,-13,53,1,-3,-15,-37,-30
-56,-43,13,49,-34,-15,48,0,-7,-15,-35,-30
-66,-45,21,55,-43,-12,45,0,-10,-15,-31,-27
-81,-45,36,63,-58,-5,41,0,-10,-15,-30,-25
-73,-41,32,57,-52,-4,40,0,-12,-15,-27,-25
-55,-29,26,42,-40,-2,40,-2,-16,-15,-25,-25
-48,-25,23,36,-35,0,40,-5,-14,-10,-25,-25
-41,-25,16,33,-28,-4,40,-8,-19,-10,-25,-25
-41,-25,16,33,-28,-4,39,-10,-20,-9,-25,-30
-55,-25,30,40,-42,2,35,-14,-20,-5,-25,-30
-61,-25,36,43,-48,5,33,-15,-25,-5,-25,-30
-63,-28,34,45,-48,3,30,-15,-25,-7,-25,-30
-67,-31,35,48,-51,2,26,-15,-26,-14,-25,-30
-68,-34,35,50,-51,0,25,-15,-30,-19,-25,-32
-72,-37,35,54,-54,-1,21,-15,-30,-24,-25,-37
-71,-39,31,55,-51,-4,20,-15,-30,-31,-29,-39
-68,-42,26,55,-47,-8,20,-15,-30,-34,-35,-36
-66,-44,21,55,-43,-11,20,-15,-30,-31,-35,-35
-63,-46,18,54,-40,-14,20,-15,-26,-28,-35,-35
-56,-44,12,50,-34,-16,21,-15,-19,-26,-35,-35
-58,-47,11,52,-34,-17,26,-15,-13,-22,-35,-36
-69,-28,42,48,-55,7,28,-15,-6,-21,-36,-33
-49,16,65,16,-57,40,50,-10,1,-16,-29,-24
-42,23,65,9,-54,44,73,0,6,-5,-16,-16
-27,43,70,-8,-49,56,68,11,13,8,-5,-8
15,86,71,-50,-28,78,55,18,12,21,10,-1
4,84,80,-44,-39,82,20,14,4,14,10,-6
3,82,80,-43,-39,81,-3,6,-3,8,1,-12
18,79,61,-49,-21,70,2,3,-8,1,-8,-20
-10,41,52,-16,-31,46,-1,-9,-17,-10,-16,-25
-32,-11,20,21,-26,5,5,-21,-31,-23,-32,-34
-41,-39,2,40,-21,-19,5,-34,-51,-56,-50,-48
-59,-59,0,59,-29,-30,5,-30,-49,-59,-51,-50
-75,-78,-3,77,-36,-40,14,-28,-51,-63,-60,-51
-64,-68,-4,66,-30,-36,12,-34,-56,-57,-58,-53
-67,-74,-7,70,-30,-40,27,-23,-51,-62,-69,-58
-79,-58,21,68,-50,-18,17,-41,-62,-59,-62,-52
-66,-69,-3,67,-32,-35,38,-11,-34,-53,-66,-66
-75,-46,29,60,-52,-8,41,-40,-57,-67,-77,-50
-72,-40,31,56,-51,-5,143,74,37,-6,-59,-47
187,123,-64,-155,125,29,7,204,277,313,270,186
802,527,-275,-664,538,126,-712,8,467,923,957,724
816,362,-454,-589,635,-46,-799,-208,206,595,727,627
123,-13,-137,-55,130,-74,-310,-483,-455,-335,-101,64
-132,-57,75,94,-103,9,-231,-532,-534,-413,-249,-106
-77,-74,3,76,-40,-35,-192,-280,-247,-215,-155,-89
-78,-59,19,68,-48,-20,-51,-99,-108,-112,-100,-83
-64,-59,4,62,-34,-27,0,-22,-40,-68,-67,-75
-69,-56,13,62,-40,-21,9,-17,-33,-76,-69,-70
-60,-51,10,55,-35,-20,22,2,-14,-54,-54,-61
-61,-52,9,57,-35,-21,26,5,-10,-60,-54,-57
-54,-44,10,49,-31,-17,24,7,3,-44,-42,-51
-47,-47,0,46,-23,-23,29,14,9,-43,-40,-49
-39,-40,-1,40,-19,-20,30,12,13,-36,-35,-46
-28,-35,-8,32,-10,-21,30,28,20,-30,-32,-43
-19,-30,-11,25,-4,-20,25,35,24,-26,-30,-40
-9,-24,-15,17,3,-19,20,40,31,-19,-26,-39
-9,-19,-11,14,1,-15,16,56,36,-14,-26,-31
-3,-13,-9,8,3,-11,11,64,50,-5,-18,-21
-3,-10,-7,7,2,-8,6,82,62,0,-3,-14
-15,-18,-3,17,-6,-10,2,97,72,8,10,-3
5,-4,-9,0,7,-7,-1,112,86,15,17,7
44,19,-26,-31,35,-4,-5,131,86,22,22,24
67,36,-31,-51,49,2,-8,141,85,29,28,39
90,60,-29,-75,59,15,-13,146,84,26,34,46
99,69,-30,-84,65,19,-16,137,79,25,39,50
87,63,-23,-75,55,20,-4,131,81,24,36,42
71,55,-15,-63,43,20,10,124,77,19,27,36
60,50,-10,-55,34,20,24,118,69,21,21,29
40,39,-2,-40,21,18,48,109,63,18,13,23
11,17,6,-14,2,11,60,87,55,11,6,17
-14,2,16,6,-15,9,60,67,47,7,-1,5
-30,-7,23,18,-26,8,60,48,41,1,-8,-8
-36,-15,21,25,-28,3,60,37,33,-5,-12,-16
-43,-25,18,34,-31,-3,60,28,22,-10,-18,-22
-48,-32,15,39,-31,-8,60,20,13,-16,-24,-29
-49,-37,13,43,-31,-12,56,21,3,-22,-29,-36
-49,-40,9,44,-29,-15,55,19,-1,-27,-34,-43
-49,-35,14,42,-31,-11,55,15,0,-33,-35,-43
-66,-35,31,50,-48,-2,50,15,-4,-33,-35,-39
-70,-34,36,51,-52,1,50,12,-5,-29,-35,-37
-64,-30,35,46,-49,2,49,9,-5,-30,-35,-34
-65,-30,35,47,-50,2,44,10,-10,-26,-34,-31
-65,-30,35,47,-50,2,41,6,-10,-25,-30,-29
-65,-30,35,47,-50,2,38,5,-11,-25,-30,-25
-59,-30,29,45,-44,0,33,5,-15,-20,-28,-25
-53,-30,24,41,-38,-3,30,1,-15,-20,-24,-24
-49,-30,19,39,-34,-6,30,-2,-18,-19,-25,-19
-42,-30,13,36,-28,-8,30,-5,-20,-15,-25,-21
-32,-25,7,28,-19,-9,30,-8,-20,-15,-25,-19
-33,-25,7,29,-19,-9,31,-10,-20,-17,-25,-28
-41,-23,17,32,-29,-3,29,-12,-20,-23,-25,-37
-41,-20,21,31,-31,0,32,-15,-20,-26,-25,-32
-38,-19,19,28,-28,0,35,-18,-20,-31,-26,-30
-45,-24,21,35,-33,-2,35,-21,-20,-35,-30,-27
-52,-33,18,43,-35,-7,37,-25,-20,-29,-29,-24
-52,-26,27,39,-39,0,41,-25,-20,-22,-33,-22
-55,-19,36,37,-45,8,40,-18,-20,-16,-35,-19
-44,-10,34,26,-38,12,35,-7,-18,-9,-36,-17
-25,21,46,2,-36,33,52,2,-7,-3,-29,-13
-21,35,56,-7,-39,46,77,13,2,4,-12,-11
-29,39,68,-6,-49,54,88,27,12,18,-1,-9
-4,73,78,-35,-41,75,62,14,13,32,11,-3
11,84,73,-48,-32,78,34,-7,6,29,11,3
8,75,67,-42,-30,71,32,-18,-1,16,2,8
18,71,53,-44,-18,62,26,-25,-7,9,-5,15
1,42,41,-21,-21,41,24,-27,-14,-7,-15,8
-27,1,28,13,-28,14,16,-36,-32,-27,-21,-12
-42,-31,11,36,-26,-10,18,-43,-51,-52,-44,-32
-56,-48,8,52,-32,-20,18,-49,-58,-55,-53,-47
-79,-79,0,79,-40,-39,23,-40,-51,-54,-56,-54
-83,-79,4,81,-43,-37,19,-52,-64,-61,-55,-48
-75,-82,-6,79,-35,-44,28,-38,-54,-56,-53,-51
-81,-84,-3,83,-39,-43,23,-52,-67,-67,-59,-45
-80,-84,-4,83,-38,-44,28,-34,-53,-40,-47,-44
-86,-87,-1,86,-42,-43,44,-34,-66,-57,-60,-50
-97,-64,33,80,-65,-15,74,-24,-45,-46,-64,-43
5,-13,-18,4,11,-15,144,189,169,121,63,36
519,386,-132,-452,325,127,-380,90,392,713,723,530
921,545,-376,-733,648,84,-864,-151,390,952,1051,834
425,141,-284,-283,354,-71,-485,-381,-205,39,254,324
-84,-39,45,61,-65,3,-216,-590,-618,-476,-252,-74
-84,-55,29,69,-56,-13,-221,-405,-389,-274,-179,-81
-78,-70,8,74,-43,-30,-115,-176,-185,-154,-125,-77
-68,-57,11,62,-39,-23,-20,-58,-79,-70,-69,-59
-61,-64,-4,62,-29,-34,19,-15,-49,-59,-66,-51
-59,-56,2,58,-30,-27,24,-6,-36,-41,-56,-44
-51,-63,-11,57,-20,-37,26,5,-24,-38,-53,-46
-48,-58,-10,53,-19,-34,24,2,-21,-32,-47,-43
-30,-61,-31,45,0,-45,25,13,-8,-22,-40,-39
-25,-54,-29,39,3,-42,25,12,-7,-20,-38,-41
-18,-48,-30,33,6,-39,22,23,4,-9,-31,-35
-14,-44,-30,29,8,-37,19,32,9,-6,-31,-30
-7,-37,-30,22,11,-33,16,30,16,3,-25,-25
-3,-33,-30,18,13,-31,13,37,26,8,-22,-20
-6,-29,-23,17,9,-26,10,52,34,17,-18,-13
-12,-31,-19,22,4,-25,9,63,46,28,-11,-9
4,-10,-14,4,9,-12,3,82,65,35,-3,0
28,17,-11,-23,19,3,-5,99,64,39,5,10
36,32,-4,-33,20,14,-10,118,69,44,12,22
58,43,-16,-50,37,13,-17,136,78,43,26,52
88,52,-36,-70,62,8,-24,136,73,37,32,61
109,75,-34,-92,71,21,-21,129,70,33,29,54
113,83,-30,-98,71,26,-10,126,67,29,31,50
120,94,-25,-107,72,34,-3,121,62,24,30,45
93,73,-20,-83,56,26,7,117,60,19,31,41
62,46,-16,-54,39,15,32,109,53,16,25,37
63,60,-4,-61,33,27,56,88,43,15,15,31
21,24,3,-23,9,14,58,67,35,15,5,12
-19,1,21,9,-20,11,55,51,25,15,-5,-2
-37,-1,36,19,-37,17,55,35,17,15,-13,-7
-55,-25,29,40,-42,2,55,19,9,13,-19,-15
-62,-36,25,48,-43,-5,55,9,2,7,-26,-20
-55,-33,22,44,-38,-6,55,11,-5,3,-33,-28
-44,-28,16,36,-30,-6,51,9,-13,-1,-39,-30
-44,-27,17,35,-30,-4,50,5,-18,-6,-44,-30
-42,-20,22,31,-32,1,50,5,-16,-11,-45,-30
-49,-23,25,35,-37,0,45,3,-15,-14,-45,-30
-56,-31,25,43,-41,-3,45,-1,-14,-16,-45,-30
-54,-30,25,41,-40,-2,44,0,-10,-12,-45,-29
-56,-30,25,42,-40,-2,39,-4,-10,-10,-44,-26
-55,-30,25,42,-40,-2,41,-5,-10,-10,-40,-25
-56,-30,26,42,-41,-2,37,-5,-10,-10,-40,-25
-55,-30,24,42,-39,-2,35,-10,-10,-10,-38,-25
-56,-30,26,42,-41,-2,35,-10,-10,-10,-34,-25
-60,-30,29,45,-44,0,31,-11,-10,-15,-35,-27
-60,-30,30,45,-45,0,30,-15,-10,-20,-38,-31
-61,-31,30,46,-45,0,30,-15,-15,-23,-40,-30
-58,-29,29,44,-44,0,30,-15,-20,-29,-40,-30
-58,-26,32,42,-44,3,30,-15,-24,-28,-40,-30
-44,-19,25,31,-34,3,28,-15,-29,-24,-40,-31
-54,-18,36,36,-45,9,25,-15,-34,-25,-39,-34
-54,-9,45,31,-49,18,22,-15,-35,-25,-35,-35
-48,-12,36,29,-42,12,20,-15,-35,-25,-35,-35
-78,-44,33,61,-55,-5,16,-22,-35,-25,-35,-35
-67,-43,25,55,-46,-9,15,-20,-35,-20,-35,-35
-52,-28,23,40,-37,-2,19,-14,-35,-16,-36,-33
-31,-20,11,25,-21,-4,31,-8,-36,-12,-30,-30
-16,21,37,-3,-27,29,40,-3,-17,-7,-21,-27
-23,50,73,-14,-48,61,55,5,7,-2,-12,-24
-13,48,61,-18,-37,54,70,33,15,2,-4,-21
10,66,57,-38,-24,61,46,23,19,5,1,-14
25,73,48,-49,-12,60,28,-2,15,8,3,-11
20,60,40,-41,-10,50,26,-9,8,12,7,-6
20,55,35,-38,-8,45,20,-10,3,16,11,0
12,37,25,-25,-7,31,18,-13,-3,3,-1,-4
-10,9,19,0,-15,14,9,-28,-9,-21,-24,-21
-40,-32,8,36,-24,-12,15,-34,-24,-43,-48,-50
-58,-53,5,55,-31,-24,13,-46,-43,-46,-53,-59
-65,-72,-7,69,-28,-39,21,-40,-52,-51,-62,-62
-62,-74,-12,68,-25,-43,18,-51,-61,-54,-59,-56
-59,-76,-17,68,-20,-47,27,-41,-42,-53,-60,-57
-62,-75,-14,69,-24,-44,24,-58,-54,-65,-61,-54
-57,-72,-15,65,-21,-44,17,-44,-32,-52,-58,-57
-73,-90,-16,82,-29,-52,36,-36,-44,-71,-80,-69
-92,-64,27,77,-59,-18,77,-1,-18,-37,-55,-42
15,9,-6,-12,10,2,130,200,184,136,78,40
551,390,-161,-471,356,114,-434,76,389,724,726,535
925,523,-402,-724,663,60,-903,-154,375,903,996,807
410,111,-298,-260,354,-93,-501,-390,-232,-7,188,273
-88,-50,38,69,-63,-6,-283,-606,-620,-470,-261,-86
-120,-69,51,94,-85,-9,-264,-402,-370,-274,-183,-84
-113,-98,14,105,-64,-42,-106,-157,-158,-146,-126,-80
-98,-79,19,88,-58,-30,-17,-54,-49,-74,-68,-66
-87,-88,-1,87,-43,-44,17,-28,-38,-74,-68,-67
-77,-75,3,76,-40,-36,18,-17,-36,-54,-56,-57
-61,-77,-17,69,-22,-47,32,-2,-28,-49,-56,-55
-45,-70,-26,58,-9,-48,35,1,-27,-43,-50,-49
-40,-64,-24,52,-8,-44,34,13,-8,-36,-45,-50
-41,-58,-17,50,-12,-37,36,16,-2,-35,-43,-48
-37,-50,-13,44,-12,-31,34,25,9,-27,-36,-44
-38,-45,-6,42,-16,-25,36,30,11,-26,-35,-46
-37,-38,-1,38,-18,-19,34,37,20,-19,-30,-41
-29,-33,-3,31,-13,-17,30,49,23,-13,-27,-34
-18,-26,-8,22,-5,-17,22,57,31,-6,-23,-27
-9,-18,-9,14,0,-13,16,74,44,1,-16,-21
-9,-14,-5,12,-2,-9,9,95,56,7,-9,-14
2,3,1,-3,0,2,2,100,64,12,-3,-6
43,30,-12,-36,27,9,0,113,68,15,7,1
76,48,-28,-62,52,10,-3,136,82,18,22,13
86,63,-23,-74,54,20,-6,148,93,23,35,32
87,66,-22,-77,54,22,-8,154,95,25,45,44
94,76,-18,-85,56,29,-11,149,90,20,47,40
94,79,-16,-86,55,31,10,140,83,20,41,30
83,69,-14,-75,48,28,36,135,79,19,37,22
65,66,1,-66,32,34,48,126,73,14,33,12
29,47,18,-38,5,32,63,108,68,16,27,4
-5,22,27,-9,-16,24,66,77,62,12,24,-12
-22,3,25,9,-24,14,64,48,53,4,7,-33
-41,-16,25,28,-33,4,65,27,39,-2,-9,-43
-48,-25,23,36,-35,-1,65,14,25,-10,-11,-49
-60,-40,19,50,-39,-10,65,8,13,-17,-14,-50
-69,-49,20,59,-45,-14,60,1,10,-25,-17,-51
-69,-52,17,60,-43,-17,60,-6,10,-17,-19,-48
-77,-65,12,71,-44,-26,59,-13,10,-23,-23,-55
-73,-63,9,68,-41,-27,55,-13,10,-41,-30,-75
-64,-58,6,61,-35,-26,55,-9,10,-40,-30,-73
-58,-56,1,57,-29,-27,53,-11,15,-40,-30,-69
-51,-51,1,51,-26,-25,49,-6,15,-40,-30,-66
-56,-49,7,52,-31,-21,47,-5,15,-40,-30,-61
-53,-43,10,48,-31,-16,44,-5,15,-38,-28,-59
-52,-37,15,44,-33,-11,41,0,15,-33,-23,-54
-53,-33,20,43,-36,-6,39,0,13,-31,-21,-51
-41,-25,16,33,-28,-4,36,0,6,-26,-16,-48
-38,-23,15,30,-26,-4,33,0,1,-23,-13,-43
-27,-13,15,20,-21,1,30,0,-4,-19,-9,-40
-36,-26,10,31,-23,-7,28,-2,-11,-15,-12,-40
-60,-51,10,56,-35,-20,23,-6,-14,-15,-28,-40
-53,-42,11,47,-32,-15,34,-5,-11,-15,-31,-40
-59,-36,24,47,-41,-6,46,-5,-10,-16,-30,-40
-57,-29,27,43,-42,-1,44,-5,-10,-13,-30,-39
-44,-22,22,33,-33,0,45,-5,-10,-22,-30,-42
-41,-21,20,31,-30,-1,45,-10,-11,-36,-29,-46
-43,-28,15,35,-29,-6,45,-14,-7,-29,-23,-42
-50,-38,12,44,-30,-13,41,-19,1,-21,-17,-39
-41,-31,11,36,-26,-10,41,-17,9,-14,-11,-36
-36,6,43,15,-40,24,60,-4,17,-6,-7,-32
-34,22,56,5,-45,39,79,7,25,0,-1,-28
-32,20,52,6,-42,36,87,22,30,5,2,-24
-15,62,78,-24,-47,70,67,27,23,10,7,-19
0,75,75,-38,-38,74,33,14,16,14,8,-15
-4,62,65,-29,-35,63,14,0,9,19,15,-19
1,60,59,-31,-30,60,15,-10,1,18,14,-19
-11,42,52,-16,-32,47,16,-22,-5,-4,-11,-25
-26,18,45,4,-36,31,14,-34,-17,-18,-21,-40
-39,-31,9,35,-24,-11,17,-36,-36,-32,-48,-61
-54,-57,-4,56,-25,-30,14,-36,-44,-41,-61,-70
-54,-64,-9,59,-23,-36,23,-23,-35,-53,-60,-71
-54,-63,-9,58,-22,-35,19,-29,-40,-60,-60,-68
-54,-70,-17,62,-18,-43,28,-13,-27,-53,-59,-71
-57,-69,-12,63,-22,-40,27,-20,-35,-60,-62,-70
-56,-61,-5,58,-25,-32,29,-28,-30,-47,-55,-72
-58,-62,-4,60,-27,-33,42,-19,-43,-69,-70,-85
-72,-44,27,58,-49,-8,84,22,-15,-48,-54,-62
20,-7,-27,-7,24,-17,147,198,189,123,74,23
516,405,-111,-461,314,147,-371,123,432,768,770,539
852,583,-269,-717,560,157,-845,-128,411,1006,1103,857
348,137,-211,-242,280,-37,-458,-379,-212,27,242,293
-82,-26,57,54,-70,15,-203,-538,-602,-490,-270,-114
-65,-16,49,40,-56,16,-237,-382,-374,-290,-192,-108
-65,-57,9,61,-37,-24,-121,-161,-177,-169,-138,-109
-40,-44,-4,42,-18,-24,-24,-44,-70,-77,-77,-87
-14,-50,-36,32,12,-43,8,-23,-46,-76,-77,-82
-15,-40,-25,28,5,-32,10,-12,-28,-56,-63,-73
-12,-40,-28,27,8,-34,10,-2,-13,-53,-60,-76
-14,-34,-20,24,4,-26,10,0,-9,-47,-53,-73
-26,-44,-18,35,-3,-30,10,11,2,-37,-45,-68
-29,-44,-15,37,-7,-29,10,14,1,-36,-42,-72
-17,-36,-19,27,1,-28,10,22,9,-26,-33,-64
-12,-33,-21,23,5,-27,10,25,12,-24,-31,-55
-7,-26,-19,17,6,-22,10,24,17,-16,-23,-45
0,-20,-21,10,11,-20,10,36,32,-13,-19,-35
3,-17,-19,7,11,-18,10,50,42,-8,-14,-27
18,-5,-23,-6,20,-14,8,62,43,-5,-6,-22
26,-1,-28,-12,27,-14,3,81,53,5,2,-16
29,9,-21,-19,25,-6,-3,88,60,20,10,-12
64,41,-23,-52,43,9,-6,117,79,33,17,-2
83,44,-40,-63,61,2,-11,136,85,35,24,15
100,63,-37,-81,68,13,-15,135,76,27,31,41
112,81,-31,-97,71,25,-10,141,75,21,29,52
111,85,-26,-98,68,29,-5,133,68,14,25,46
106,87,-20,-96,63,33,-3,122,65,7,22,43
87,72,-15,-79,51,28,7,113,58,3,17,38
83,68,-15,-75,49,26,33,101,50,-1,15,33
59,47,-12,-53,35,17,61,84,42,-2,4,10
21,28,7,-24,7,17,71,61,34,-7,-15,-10
3,14,12,-9,-5,13,70,37,27,-8,-31,-15
-3,4,7,-1,-5,5,70,25,18,-12,-36,-20
-13,-8,5,10,-8,-2,70,14,10,-28,-40,-26
-46,-46,1,46,-23,-22,70,2,1,-31,-48,-31
-55,-57,-2,57,-26,-30,66,0,-5,-29,-50,-36
-48,-53,-6,51,-20,-30,64,0,-4,-27,-50,-43
-65,-59,6,62,-35,-27,65,0,-7,-24,-50,-42
-73,-60,13,66,-43,-23,65,0,-10,-25,-50,-39
-68,-60,8,64,-38,-26,65,0,-10,-20,-50,-40
-58,-53,5,55,-31,-23,63,-3,-7,-20,-49,-35
-46,-44,2,45,-23,-21,60,-6,-5,-19,-45,-35
-32,-35,-3,34,-14,-18,58,-5,-5,-15,-40,-34
-28,-33,-6,31,-11,-19,55,-9,-5,-15,-36,-30
-48,-36,12,42,-30,-12,52,-10,-5,-18,-31,-31
-62,-35,27,48,-44,-4,49,-10,-5,-20,-26,-27
-54,-33,21,43,-37,-6,47,-10,-12,-20,-27,-25
-46,-29,17,37,-31,-6,44,-10,-23,-24,-31,-25
-42,-31,11,36,-27,-10,41,-10,-25,-26,-34,-25
-29,-25,4,27,-16,-10,38,-10,-25,-24,-38,-25
-31,-30,1,30,-16,-14,35,-10,-29,-21,-41,-25
-29,-41,-12,35,-8,-26,36,-8,-31,-20,-44,-25
-24,-40,-16,32,-4,-28,41,-4,-29,-19,-45,-25
-29,-39,-10,34,-10,-24,45,-5,-26,-14,-45,-24
-29,-34,-6,32,-11,-20,45,-1,-25,-16,-45,-20
-34,-36,-1,35,-16,-18,45,0,-25,-13,-43,-17
-36,-32,4,33,-19,-14,45,0,-25,-6,-38,-15
-28,-24,4,26,-16,-10,45,6,-26,-2,-35,-11
-8,-17,-9,13,1,-12,45,11,-22,4,-32,-10
-26,-12,14,19,-20,1,46,16,-13,10,-28,-7
-46,2,48,22,-47,25,61,22,-5,15,-25,1
-25,25,49,0,-37,37,67,28,4,22,-20,8
-20,38,58,-10,-39,48,59,27,1,31,-15,14
1,66,65,-34,-32,65,33,7,-4,33,-10,22
2,67,65,-35,-32,65,2,-5,-5,22,-7,24
-5,55,60,-25,-33,57,-2,-5,-13,14,-1,16
-17,44,61,-13,-39,52,2,-8,-11,5,-2,5
-40,12,52,14,-46,31,-2,-11,-22,-5,-14,-2
-33,-31,1,32,-17,-15,1,-11,-26,-10,-20,-13
-56,-68,-12,62,-21,-39,-1,-23,-38,-25,-37,-19
-67,-76,-9,71,-28,-42,3,-21,-54,-26,-52,-19
-65,-76,-12,70,-26,-43,10,-18,-53,-45,-59,-24
-65,-72,-7,68,-28,-39,7,-23,-50,-39,-50,-23
-66,-80,-14,73,-26,-46,20,-8,-42,-36,-55,-28
-62,-69,-7,65,-27,-37,11,-26,-49,-28,-46,-21
-48,-90,-41,69,-3,-65,30,6,-26,-16,-51,-30
-55,-61,-7,58,-24,-34,35,-9,-45,-57,-68,-20
-41,-42,-1,41,-20,-21,137,103,70,21,-31,-2
179,147,-32,-163,105,57,-13,210,292,390,349,269
671,570,-101,-621,386,235,-676,-26,452,1057,1116,843
610,374,-236,-492,423,69,-705,-238,183,719,849,712
39,-24,-63,-7,51,-44,-269,-443,-471,-324,-98,80
-117,-52,64,84,-90,6,-202,-481,-536,-412,-250,-80
-78,-73,6,75,-41,-33,-171,-259,-266,-208,-147,-48
-72,-61,11,66,-41,-25,-69,-98,-124,-118,-90,-21
-62,-69,-7,66,-27,-37,-3,-33,-51,-46,-59,-1
-70,-77,-7,74,-31,-42,10,-14,-47,-49,-68,-11
-50,-67,-16,59,-17,-41,16,2,-21,-25,-48,1
-45,-65,-20,55,-13,-42,20,9,-18,-31,-52,-1
-20,-54,-34,37,7,-43,21,19,-7,-16,-38,6
-7,-51,-43,29,18,-47,26,21,-4,-14,-36,8
-5,-43,-38,24,16,-40,19,18,-2,-7,-30,11
4,-38,-42,17,23,-40,21,24,7,-4,-24,16
6,-33,-39,13,23,-35,19,28,12,-3,-19,21
13,-27,-40,7,27,-33,14,35,25,2,-13,26
13,-22,-35,5,24,-28,16,45,29,3,-6,30
20,-15,-35,-2,28,-25,12,52,37,6,4,35
22,-12,-34,-5,28,-23,6,76,53,13,11,39
21,-8,-29,-7,25,-18,1,97,71,27,23,53
33,2,-31,-17,32,-14,-4,112,89,37,30,60
51,21,-29,-36,40,-4,-10,131,101,48,39,72
83,52,-31,-68,57,10,-14,145,107,53,54,90
98,63,-35,-80,66,14,-10,153,102,46,56,103
95,65,-30,-80,62,17,-8,148,94,39,50,108
96,71,-25,-83,60,23,-3,143,88,33,45,97
84,64,-19,-74,51,22,-2,141,78,26,39,87
71,57,-14,-64,42,21,7,121,73,20,34,78
60,52,-9,-56,34,21,39,90,63,14,28,63
31,26,-5,-28,18,10,47,67,48,8,16,47
-9,-12,-3,11,-3,-7,44,43,35,4,1,32
-32,-32,0,32,-16,-16,46,23,22,-3,-9,22
-32,-29,3,30,-18,-12,44,16,10,-7,-11,14
-38,-32,6,35,-22,-13,46,9,1,-14,-14,5
-54,-49,5,51,-29,-22,42,3,0,-31,-17,-4
-54,-48,5,50,-29,-21,40,-4,0,-36,-20,-11
-48,-44,4,45,-26,-20,40,-10,-5,-34,-21,-16
-47,-41,6,43,-26,-17,40,-15,-5,-36,-25,-21
-40,-36,4,38,-22,-16,40,-15,-6,-34,-30,-27
-42,-33,9,37,-25,-12,39,-16,-10,-36,-26,-33
-51,-29,21,40,-36,-4,36,-20,-13,-33,-25,-33
-41,-23,18,32,-29,-2,33,-19,-17,-28,-25,-29
-34,-20,14,27,-24,-3,30,-23,-20,-22,-25,-30
-26,-15,11,20,-18,-2,27,-25,-20,-18,-25,-26
-16,-10,6,12,-11,-2,25,-25,-20,-14,-25,-25
-38,-33,6,35,-22,-13,25,-25,-20,-9,-25,-25
-57,-43,15,50,-36,-14,25,-25,-20,-23,-25,-20
-71,-39,33,55,-52,-3,25,-25,-20,-33,-25,-20
-71,-37,34,54,-52,-1,25,-20,-21,-29,-25,-19
-60,-34,27,47,-43,-3,25,-20,-25,-30,-25,-15
-60,-36,24,47,-42,-6,25,-20,-25,-26,-21,-15
-46,-28,18,36,-32,-5,20,-20,-27,-24,-20,-17
-37,-21,15,28,-26,-3,20,-20,-31,-26,-20,-25
-37,-13,24,25,-30,5,19,-22,-29,-29,-20,-29
-51,-13,38,32,-44,12,15,-30,-34,-30,-20,-32
-69,-26,43,47,-55,8,15,-34,-35,-30,-21,-35
-66,-27,39,46,-52,6,17,-37,-35,-30,-26,-37
-61,-24,37,42,-48,7,21,-40,-39,-29,-31,-41
-60,-26,33,43,-46,4,20,-42,-40,-33,-34,-37
-55,-24,31,39,-43,3,20,-46,-39,-35,-32,-34
-55,-26,29,41,-42,1,20,-43,-33,-35,-27,-35
-58,-22,36,40,-47,7,20,-36,-28,-35,-25,-35
-47,-13,34,29,-40,10,25,-29,-23,-29,-20,-35
-47,-9,39,28,-43,15,27,-22,-16,-20,-17,-35
-27,40,67,-7,-47,53,40,-16,-11,-13,-13,-30
-8,61,69,-26,-39,65,55,-15,-6,-3,-10,-22
-19,70,89,-26,-54,79,41,-15,-2,-2,-10,-16
0,102,102,-51,-52,102,23,-18,0,-8,-7,-9
8,91,83,-50,-38,87,16,-32,-10,-15,-5,-2
10,84,73,-47,-32,78,12,-25,-18,-19,-4,-3
7,76,70,-41,-32,73,12,-21,-26,-28,-13,-16
-29,56,85,-14,-57,70,5,-45,-37,-38,-26,-25
-60,23,83,18,-72,53,8,-43,-42,-47,-40,-39
-67,-9,58,37,-62,24,0,-48,-56,-59,-55,-50
-70,-35,34,52,-52,0,2,-42,-48,-62,-59,-56
-80,-45,36,62,-58,-4,-1,-48,-53,-69,-64,-58
-85,-50,35,67,-59,-8,-1,-42,-47,-60,-62,-59
-91,-62,29,76,-60,-16,3,-39,-51,-71,-73,-62
-76,-43,33,60,-54,-5,-7,-44,-53,-60,-65,-56
-87,-62,25,75,-56,-19,35,-30,-39,-70,-77,-70
-94,-28,67,61,-81,20,46,-43,-42,-76,-70,-65
-54,9,63,22,-58,36,153,128,123,37,-2,-28
314,305,-8,-309,161,148,-226,115,331,542,522,356
828,643,-186,-735,507,228,-915,-77,495,1100,1144,837
543,307,-236,-425,389,35,-672,-254,81,433,584,503
-23,1,24,11,-24,13,-282,-545,-557,-432,-184,-34
-120,-8,112,63,-115,51,-287,-472,-452,-354,-204,-108
-93,-43,50,68,-71,3,-159,-211,-206,-191,-142,-100
-70,-31,39,50,-54,4,-41,-87,-95,-114,-103,-96
-66,-38,28,52,-46,-5,1,-47,-45,-83,-88,-90
-65,-34,31,49,-48,-1,21,-39,-51,-81,-85,-88
-58,-35,23,46,-40,-6,23,-16,-27,-65,-73,-81
-57,-36,21,47,-38,-7,27,-11,-31,-67,-72,-79
-55,-33,22,43,-38,-5,30,-2,-15,-54,-60,-71
-52,-27,25,39,-38,-1,35,-2,-12,-53,-59,-69
-39,-14,25,26,-32,5,33,3,-4,-45,-53,-63
-30,-5,24,17,-27,9,28,6,3,-41,-52,-60
-22,4,26,8,-24,15,25,15,8,-35,-49,-55
-18,6,24,6,-22,15,21,32,17,-29,-45,-49
-17,4,21,7,-19,12,18,41,23,-24,-45,-46
-9,8,16,0,-13,12,14,55,40,-15,-38,-41
2,16,14,-10,-6,15,11,71,53,-5,-30,-37
21,31,10,-26,6,20,5,96,70,4,-22,-31
48,53,5,-51,21,29,1,127,85,10,-13,-14
71,76,5,-74,33,41,-3,138,95,15,-2,-2
90,95,5,-93,42,50,-9,151,103,21,6,6
91,96,5,-94,43,50,-8,162,96,27,14,24
110,115,5,-113,52,60,-1,171,91,29,33,30
117,122,5,-120,56,63,5,169,86,25,34,24
95,107,12,-101,41,60,9,147,79,21,22,20
82,103,21,-93,31,62,29,126,76,18,15,16
49,80,30,-65,9,55,47,98,64,13,5,8
19,52,33,-36,-7,43,44,73,47,10,-3,-14
6,34,27,-20,-11,30,45,52,31,6,-11,-37
-2,20,22,-9,-13,21,41,35,15,-6,-17,-51
-9,10,19,-1,-14,14,40,19,-2,-14,-25,-59
-16,-3,14,9,-15,5,40,9,-11,-29,-33,-61
-22,-12,9,17,-15,-1,35,5,-15,-41,-39,-64
-41,-19,22,30,-31,1,35,0,-20,-40,-42,-65
-52,-26,27,38,-39,1,33,-3,-24,-40,-40,-65
-57,-33,24,44,-41,-4,30,-9,-29,-40,-40,-65
-63,-39,24,50,-43,-7,30,-8,-30,-40,-40,-65
-55,-36,19,45,-37,-8,33,-4,-30,-38,-40,-65
-55,-35,21,45,-37,-6,35,-2,-30,-34,-40,-65
-53,-36,18,44,-35,-9,35,1,-30,-32,-36,-61
-49,-34,14,41,-31,-10,35,4,-30,-29,-35,-59
-51,-36,15,43,-33,-10,35,5,-30,-26,-35,-60
-49,-34,15,41,-31,-10,35,0,-26,-25,-35,-60
-51,-36,15,43,-33,-10,30,-3,-25,-30,-36,-60
-48,-34,14,41,-31,-10,30,-7,-25,-30,-34,-59
-47,-36,11,41,-28,-12,29,-10,-25,-30,-30,-55
-41,-35,6,37,-23,-14,25,-15,-26,-30,-30,-55
-39,-35,4,36,-21,-16,25,-13,-22,-30,-30,-53
-61,-62,0,62,-30,-31,25,-9,-20,-30,-30,-49
-50,-55,-5,53,-22,-30,25,-10,-20,-30,-30,-50
-35,-38,-3,37,-16,-20,25,-6,-17,-30,-30,-46
-41,-41,0,41,-21,-20,25,-4,-14,-30,-30,-45
-37,-37,0,37,-18,-18,35,-6,-16,-30,-30,-45
-32,-33,-1,33,-15,-16,41,-9,-20,-30,-30,-40
-37,-42,-5,40,-16,-24,39,-13,-20,-30,-30,-40
-46,-60,-13,53,-16,-36,41,-15,-21,-30,-30,-39
-42,-61,-18,52,-12,-39,39,-18,-25,-30,-30,-35
-35,-62,-27,49,-4,-45,41,-21,-25,-30,-30,-35
-40,-67,-27,53,-6,-47,44,-24,-22,-30,-30,-35
-44,-61,-17,53,-13,-39,47,-26,-13,-28,-30,-35
-46,-54,-9,50,-18,-31,50,-14,-4,-18,-31,-36
-61,-31,30,46,-46,-1,52,0,3,-8,-26,-31
-56,-8,48,32,-51,20,74,13,16,3,-15,-24
-34,2,36,16,-35,19,80,33,23,10,-5,-19
2,34,32,-18,-15,33,48,34,16,21,5,-14
22,45,24,-34,-1,34,21,25,10,23,12,-16
13,30,17,-22,-2,23,8,16,2,12,15,-12
18,15,-3,-16,10,6,12,10,-3,5,21,-10
-11,-14,-3,13,-4,-8,9,1,-11,-6,8,-10
-58,-55,3,56,-30,-26,10,-1,-16,-12,-21,-16
-73,-90,-17,82,-28,-53,11,-5,-26,-34,-37,-29
-64,-93,-29,79,-17,-61,11,-10,-31,-45,-40,-38
-60,-108,-48,84,-6,-78,36,-9,-28,-46,-52,-53
-49,-113,-64,81,8,-88,35,-22,-35,-44,-48,-53
-50,-116,-67,83,9,-91,46,1,-23,-45,-52,-58
-56,-105,-49,80,-3,-77,36,-15,-40,-47,-50,-52
-65,-110,-45,88,-10,-77,52,20,-16,-39,-47,-59
-64,-98,-34,82,-15,-66,47,-8,-41,-50,-60,-52
-56,-84,-29,70,-13,-56,132,62,33,-1,-40,-29
100,46,-54,-73,77,-4,82,208,250,243,210,137
654,478,-176,-566,415,151,-639,-23,412,873,932,689
807,426,-381,-616,594,22,-842,-178,306,813,954,764
218,5,-213,-111,216,-104,-372,-411,-341,-169,70,170
-127,-78,49,102,-88,-14,-277,-557,-575,-453,-231,-86
-97,-93,4,95,-51,-44,-201,-275,-254,-219,-124,-63
-58,-91,-32,75,-13,-61,-48,-89,-101,-110,-81,-59
-55,-87,-32,71,-11,-60,8,-17,-31,-52,-42,-50
-65,-94,-29,80,-18,-61,30,2,-20,-52,-50,-53
-72,-86,-14,79,-29,-50,29,8,-7,-34,-42,-45
-61,-89,-28,75,-16,-58,31,21,4,-32,-43,-46
-27,-81,-54,54,14,-67,29,35,10,-21,-39,-42
-27,-82,-55,55,14,-68,31,53,22,-16,-40,-36
-31,-76,-45,54,8,-61,29,47,23,-10,-36,-31
-31,-76,-45,54,8,-60,27,52,35,-4,-32,-26
-34,-72,-38,53,2,-55,24,50,37,0,-31,-20
-28,-63,-35,46,4,-49,21,61,47,7,-26,-15
-20,-55,-35,38,8,-44,18,72,48,11,-26,-9
-11,-46,-35,29,12,-41,15,78,50,19,-22,-3
2,-33,-35,16,19,-34,13,101,75,26,-13,4
23,-12,-35,-5,29,-23,9,115,88,32,-2,11
38,4,-35,-20,37,-15,3,138,98,40,7,18
51,17,-35,-33,43,-9,0,160,115,40,14,38
62,27,-35,-44,48,-3,-5,168,118,40,24,52
82,47,-35,-64,58,6,-10,179,116,40,35,65
95,60,-35,-77,64,12,-5,184,112,40,35,73
101,66,-35,-83,68,15,4,180,110,41,35,66
106,72,-35,-88,70,18,13,166,106,35,33,61
94,64,-30,-79,62,16,21,154,105,27,22,55
85,59,-27,-71,56,16,32,133,98,21,14,50
52,29,-23,-40,37,3,49,112,83,13,5,38
23,3,-20,-13,21,-8,50,92,69,6,-4,20
4,-11,-15,4,10,-13,50,58,47,-1,-12,7
-26,-41,-15,34,-5,-28,47,35,31,-7,-22,-7
-32,-46,-14,40,-8,-30,44,29,24,-12,-29,-16
-28,-44,-16,37,-5,-30,45,22,17,-18,-41,-21
-20,-46,-25,33,3,-35,40,16,11,-24,-43,-28
-19,-45,-25,33,3,-35,40,9,4,-29,-39,-28
-20,-45,-25,33,3,-35,40,3,-2,-27,-40,-25
-19,-41,-22,30,1,-31,40,0,-5,-24,-36,-25
-19,-38,-19,29,0,-29,40,0,-8,-25,-34,-22
-15,-35,-20,25,3,-27,42,-2,-10,-25,-36,-19
-17,-32,-15,25,-1,-23,45,-6,-14,-26,-40,-21
-14,-30,-15,23,0,-22,45,-5,-16,-23,-38,-24
-18,-32,-14,25,-2,-22,45,-9,-11,-20,-34,-25
-27,-37,-10,32,-8,-23,45,-10,-10,-18,-36,-25
-29,-39,-10,34,-9,-25,44,-10,-10,-15,-35,-25
-28,-36,-8,32,-9,-22,41,-10,-10,-12,-35,-25
-27,-31,-4,30,-12,-17,38,-10,-10,-9,-35,-23
-23,-29,-6,26,-8,-17,36,-10,-11,-14,-30,-18
-20,-24,-4,23,-8,-14,32,-10,-15,-20,-30,-15
-13,-21,-8,18,-3,-14,30,-10,-15,-20,-30,-12
7,-17,-24,6,16,-20,32,-10,-15,-20,-30,-7
8,-15,-22,4,16,-18,36,-10,-15,-20,-30,-5
2,-15,-17,7,10,-15,39,-10,-15,-20,-27,-10
-2,-15,-13,9,6,-14,43,-13,-19,-20,-25,-15
-7,-15,-8,11,1,-11,45,-16,-20,-16,-25,-19
-10,-16,-6,14,-2,-11,40,-14,-20,-15,-25,-23
-25,-29,-4,27,-10,-16,40,-17,-24,-15,-25,-29
-29,-31,-1,30,-14,-16,40,-20,-26,-15,-24,-28
-27,-26,1,26,-14,-12,40,-20,-24,-15,-21,-24
-26,-25,2,25,-14,-11,40,-23,-18,-14,-18,-25
-28,-20,8,23,-18,-5,42,-25,-11,-9,-16,-21
-27,-21,6,24,-16,-8,47,-26,-4,-5,-13,-20
-18,4,21,7,-20,12,50,-17,2,0,-10,-20
-21,39,60,-9,-41,49,67,-1,10,5,-8,-14
-18,42,59,-12,-39,50,80,20,13,9,-3,-9
5,59,54,-33,-25,56,63,18,21,19,3,-2
19,71,52,-45,-17,62,34,-11,29,24,6,2
16,64,48,-40,-16,56,14,-23,18,15,11,8
22,64,41,-43,-9,52,14,-25,11,5,16,18
20,49,29,-35,-5,39,17,-30,1,-5,3,8
-9,12,21,-2,-15,16,19,-35,-18,-16,-13,-11
-60,-51,9,55,-34,-21,22,-39,-35,-35,-29,-24
-81,-77,4,78,-42,-36,22,-49,-43,-35,-36,-31
-69,-75,-6,72,-31,-40,28,-45,-36,-35,-48,-44
-65,-75,-10,70,-27,-42,23,-52,-45,-37,-46,-44
-53,-75,-22,64,-15,-48,34,-32,-34,-31,-43,-46
-55,-76,-21,66,-16,-48,27,-39,-47,-41,-49,-45
-56,-71,-14,64,-21,-42,33,-21,-31,-31,-38,-43
-73,-66,7,69,-40,-29,38,-20,-23,-62,-60,-52
-80,-49,31,64,-55,-9,69,-14,-15,-35,-58,-36
15,1,-14,-8,15,-7,142,175,161,114,68,37
501,385,-116,-443,308,134,-396,75,365,689,712,518
897,565,-332,-731,615,116,-893,-144,380,959,1056,828
411,147,-264,-279,337,-58,-505,-357,-177,64,267,317
-87,-54,32,70,-59,-11,-225,-577,-606,-471,-250,-79
-102,-49,53,75,-77,2,-226,-392,-381,-283,-172,-79
-78,-62,16,70,-47,-23,-109,-162,-166,-151,-119,-69
-55,-42,12,48,-33,-15,-19,-61,-67,-62,-64,-57
-54,-49,5,51,-29,-22,18,-22,-44,-55,-61,-57
-45,-37,8,40,-26,-14,25,-25,-38,-38,-49,-48
-36,-37,-1,36,-17,-19,25,-9,-24,-34,-44,-44
-33,-31,1,32,-17,-15,25,-6,-24,-29,-38,-39
-31,-29,2,29,-17,-13,25,5,-11,-18,-30,-33
-33,-27,6,29,-19,-10,25,5,-10,-17,-27,-29
-27,-22,5,24,-15,-9,25,13,1,-7,-24,-24
-31,-21,10,26,-21,-5,25,41,5,-4,-26,-21
-28,-19,10,24,-19,-4,25,50,13,5,-20,-15
-24,-12,11,18,-17,0,24,52,18,10,-20,-12
-33,-8,25,20,-29,8,19,57,27,18,-19,-4
-22,0,22,11,-22,11,13,66,40,22,-11,2
-8,6,13,1,-11,9,10,86,53,29,-4,10
11,19,8,-15,1,14,5,94,70,35,1,15
46,44,-2,-45,24,21,1,108,76,30,18,22
66,54,-12,-60,39,21,-3,131,75,30,36,41
85,60,-25,-72,55,17,-9,136,76,29,35,49
98,64,-33,-81,65,15,-12,129,74,25,35,48
111,85,-25,-98,68,30,-18,122,70,26,35,43
106,91,-15,-98,60,38,-19,116,70,23,35,35
83,78,-5,-80,44,36,-3,109,68,20,34,30
67,73,7,-70,30,40,12,103,61,20,23,22
44,62,18,-54,13,40,23,94,54,20,12,17
8,38,31,-23,-12,34,36,69,48,20,0,8
-27,8,35,9,-32,21,47,47,41,20,-9,-7
-38,-3,35,20,-36,16,45,29,29,11,-12,-19
-47,-12,35,29,-41,11,45,20,14,-1,-16,-28
-69,-34,35,51,-52,0,43,17,3,-14,-19,-33
-77,-42,35,59,-56,-3,39,10,-1,-31,-24,-37
-65,-34,31,50,-48,-1,40,5,-3,-31,-25,-40
-60,-31,30,46,-45,0,36,-1,-6,-30,-25,-44
-56,-26,30,41,-43,2,35,-4,-9,-29,-25,-44
-51,-21,30,36,-40,4,35,-7,-11,-24,-25,-39
-51,-22,30,37,-40,4,35,-10,-14,-25,-25,-41
-58,-27,31,43,-44,1,35,-12,-16,-25,-25,-38
-65,-29,35,47,-50,3,35,-16,-15,-25,-29,-34
-60,-26,35,42,-47,4,35,-12,-15,-25,-30,-36
-57,-21,36,39,-46,7,35,-10,-15,-25,-33,-31
-53,-19,34,35,-43,7,35,-10,-13,-25,-35,-30
-50,-15,35,32,-42,10,35,-10,-10,-25,-36,-30
-50,-9,40,29,-45,16,35,-10,-7,-25,-40,-25
-59,-19,40,39,-50,11,32,-11,-4,-25,-40,-25
-72,-33,39,52,-55,3,29,-14,-1,-25,-42,-26
-62,-28,34,44,-48,3,26,-17,0,-25,-46,-31
-69,-33,36,50,-52,1,23,-20,-6,-24,-45,-35
-78,-46,32,62,-55,-7,20,-22,-12,-28,-42,-38
-73,-43,30,58,-51,-6,21,-26,-19,-30,-39,-42
-70,-40,30,55,-50,-5,27,-23,-26,-30,-40,-45
-64,-38,27,51,-45,-6,30,-19,-33,-33,-40,-49
-59,-34,24,46,-41,-5,35,-21,-33,-36,-40,-49
-60,-34,26,46,-43,-4,34,-16,-26,-34,-39,-45
-68,-27,41,47,-54,7,36,-15,-22,-30,-34,-43
-59,-26,32,42,-45,3,34,-15,-16,-22,-31,-40
-37,-1,36,19,-37,17,38,-10,-10,-17,-28,-37
-23,28,52,-3,-38,40,62,-10,-5,-9,-23,-35
-37,11,48,13,-43,29,59,-10,2,-3,-21,-31
-18,49,67,-15,-43,57,47,-10,11,3,-9,-24
32,101,68,-67,-18,84,28,-10,13,17,11,-17
37,94,57,-65,-11,75,11,-12,3,14,8,-12
31,85,54,-58,-12,70,10,-22,-6,8,2,-3
3,45,42,-24,-20,44,11,-26,-13,-1,-3,-3
-24,15,40,4,-32,27,9,-36,-27,-27,-16,-30
-46,-20,26,33,-36,3,11,-38,-43,-46,-42,-56
-63,-55,8,59,-35,-23,10,-42,-54,-62,-55,-60
-59,-61,-2,60,-28,-31,14,-40,-48,-64,-49,-67
-67,-72,-6,70,-30,-39,19,-45,-51,-67,-53,-71
-61,-69,-8,65,-26,-39,17,-48,-51,-65,-45,-68
-62,-80,-18,71,-21,-49,30,-36,-47,-74,-56,-79
-62,-66,-4,64,-29,-35,17,-43,-56,-67,-43,-69
-75,-73,1,74,-38,-36,36,-8,-45,-76,-58,-90
-83,-54,28,68,-55,-13,38,-42,-64,-84,-72,-80
-71,-63,8,67,-40,-27,145,95,57,-22,-37,-59
238,150,-88,-194,163,31,-51,197,300,381,376,231
832,558,-274,-695,552,142,-749,-38,452,981,1068,782
712,338,-374,-524,543,-18,-720,-260,97,485,670,573
63,-27,-91,-17,77,-59,-261,-494,-522,-393,-136,-9
-148,-63,85,105,-116,11,-210,-501,-513,-394,-201,-119
-96,-78,18,87,-57,-30,-159,-264,-248,-212,-132,-98
-52,-60,-8,56,-22,-34,-41,-87,-116,-102,-71,-87
-38,-62,-24,50,-7,-43,10,-18,-53,-58,-55,-82
-34,-52,-19,43,-7,-35,22,-11,-48,-56,-57,-79
-32,-51,-19,41,-6,-35,28,10,-29,-34,-42,-69
-42,-64,-22,53,-10,-43,32,14,-31,-36,-48,-68
-22,-57,-35,39,7,-46,34,22,-19,-23,-35,-60
-18,-53,-35,36,9,-44,36,26,-15,-25,-37,-58
-17,-47,-30,32,6,-38,34,32,-9,-16,-28,-54
-12,-41,-29,27,9,-35,35,38,1,-14,-24,-51
-12,-37,-25,25,6,-30,35,43,9,-6,-19,-47
-6,-30,-24,19,9,-27,31,57,21,4,-12,-43
-5,-25,-20,15,7,-22,25,61,29,11,-8,-36
-1,-19,-18,10,9,-19,20,72,37,21,-2,-29
0,-13,-13,7,7,-13,14,88,49,28,7,-23
18,-9,-28,-4,23,-18,9,106,60,38,17,-15
62,19,-43,-40,52,-12,4,125,69,43,28,-5
69,30,-38,-49,53,-4,0,127,81,39,29,4
72,36,-36,-53,54,0,1,142,82,34,39,23
97,64,-33,-80,65,15,-3,157,77,30,46,47
99,69,-30,-84,65,19,-5,155,74,25,40,45
105,76,-29,-90,67,23,-5,149,71,20,38,37
100,77,-22,-88,61,27,1,136,65,17,33,31
82,65,-16,-73,49,24,27,125,67,14,30,22
71,60,-11,-65,41,24,53,108,68,11,24,17
53,43,-10,-48,31,16,66,92,57,8,11,3
27,17,-10,-22,18,4,75,73,48,5,0,-13
-8,-13,-5,11,-1,-9,75,54,38,4,-9,-29
-30,-35,-5,33,-12,-20,72,38,27,-2,-16,-40
-34,-38,-4,37,-15,-21,70,25,18,-10,-23,-41
-36,-35,1,35,-18,-16,70,20,7,-15,-31,-38
-45,-35,9,40,-26,-13,70,15,0,-23,-38,-50
-56,-35,21,45,-38,-7,70,9,-5,-29,-37,-55
-57,-35,22,46,-39,-6,71,4,-10,-27,-34,-55
-54,-35,20,45,-37,-7,74,-1,-13,-22,-36,-55
-58,-38,20,48,-39,-9,75,-6,-19,-19,-35,-54
-73,-52,20,62,-46,-16,75,-10,-18,-16,-36,-57
-70,-50,20,60,-44,-15,75,-15,-15,-10,-34,-47
-62,-40,21,51,-41,-9,75,-20,-15,-14,-30,-52
-59,-33,25,45,-42,-4,72,-17,-15,-26,-30,-30
-51,-26,25,38,-38,0,64,-12,-15,-23,-28,-47
-60,-30,30,45,-45,0,58,-9,-15,-19,-25,-15
-64,-35,30,49,-46,-2,50,-6,-20,-16,-25,-38
-67,-39,27,53,-47,-5,43,-1,-20,-11,-29,-32
-61,-38,23,49,-42,-7,36,0,-21,-11,-30,-47
-59,-29,30,43,-44,1,30,-10,-25,-16,-30,-70
-73,-23,49,48,-61,13,29,-15,-25,-21,-29,-9
-61,-16,45,38,-52,14,25,-15,-25,-25,-31,-163
-58,-20,38,39,-48,9,23,-14,-25,-30,-29,315
-57,-23,33,40,-45,4,19,-17,-26,-26,-30,364
-53,-28,25,40,-38,-1,23,-21,-26,-24,-30,-99
-58,-38,20,48,-39,-9,26,-19,-23,-26,-29,43
-44,-32,12,38,-28,-10,24,-16,-18,-24,-29,-15
-34,-28,6,30,-20,-10,36,-13,-17,-26,-20,0
-26,-13,14,19,-20,0,40,-11,-10,-23,-32,9
-57,-7,50,31,-54,21,45,-8,-10,-18,-16,-13
-63,18,81,23,-73,49,69,-5,-6,-6,-38,15
-60,23,82,18,-71,52,77,15,86,-3,3,-15
2,91,89,-47,-44,90,54,18,350,5,62,14
188,292,103,-240,42,197,21,-19,324,0,1,-13
