I,II,III,aVR,aVL,aVF,V1,V2,V3,V4,V5,V6
-10,-80,-70,45,30,-75,50,-10,-25,75,35,20
-13,-79,-66,46,27,-72,50,-10,-25,75,35,20
-14,-73,-59,44,23,-65,50,-7,-21,75,35,20
-18,-71,-53,45,17,-61,49,-4,-19,78,35,20
-18,-63,-45,41,14,-54,51,-1,-15,81,36,20
-23,-63,-40,43,9,-52,48,0,-15,78,33,19
-10,-40,-30,25,10,-34,54,7,-8,95,46,27
26,6,-20,-16,23,-6,66,17,3,117,67,37
10,9,-1,-9,5,4,58,29,13,116,73,45
-24,0,24,12,-24,12,57,28,33,111,72,53
-29,-5,24,17,-26,9,41,2,25,107,64,48
-6,-13,-7,9,1,-9,8,-24,1,102,60,45
10,-19,-29,5,20,-24,-3,-30,-9,99,55,43
17,-24,-41,4,30,-33,-9,-30,-22,92,47,36
31,-30,-62,0,47,-46,-6,-30,-33,88,46,37
20,-41,-61,10,41,-50,7,-29,-46,77,34,21
7,-50,-57,22,32,-53,32,-33,-46,74,30,8
-20,-85,-65,52,23,-74,49,-22,-43,63,18,4
-29,-83,-53,56,13,-67,42,-31,-49,56,22,6
-17,-85,-67,51,25,-76,47,-17,-40,62,19,2
-31,-77,-45,54,7,-60,43,-29,-52,65,13,-3
-28,-87,-59,58,16,-73,46,-12,-37,84,19,5
-45,-78,-32,61,-6,-54,46,-24,-46,61,11,-1
-51,-20,30,35,-40,5,91,32,34,128,73,20
14,-4,-18,-5,16,-11,156,230,221,302,209,133
423,181,-242,-301,333,-30,-10,478,620,821,813,714
833,113,-720,-473,776,-304,-159,790,1000,1147,1066,985
513,-86,-599,-213,556,-342,-196,218,371,451,297,329
150,-2,-152,-74,151,-77,-236,-414,-309,-90,-100,-17
79,-15,-93,-32,86,-54,-73,-125,-149,16,-21,9
15,-43,-57,14,36,-49,55,20,9,106,27,-15
1,-61,-62,30,32,-61,68,35,19,114,61,9
-27,-80,-54,54,14,-67,80,54,12,100,34,-6
-25,-67,-42,46,9,-54,68,36,2,102,41,-1
-27,-72,-45,50,9,-58,72,53,-1,94,26,-6
-20,-62,-42,41,12,-52,64,38,-14,90,23,-6
-3,-62,-58,33,28,-60,66,50,-11,95,20,-9
-4,-60,-56,32,26,-58,70,47,-10,105,15,-11
-9,-66,-57,37,25,-61,70,52,-4,111,16,-11
-16,-65,-49,41,17,-57,70,50,-2,109,9,-12
-19,-65,-46,42,14,-55,70,50,3,113,11,-8
-24,-65,-42,45,10,-53,71,50,6,115,16,-11
-29,-65,-35,47,3,-50,67,52,9,114,21,-9
-28,-64,-36,47,4,-50,65,63,14,119,19,-11
-10,-57,-47,34,19,-52,65,75,28,125,20,-8
0,-53,-52,26,26,-52,80,89,36,132,35,-5
6,-47,-54,21,30,-51,86,104,39,134,41,-6
18,-41,-59,12,39,-50,86,131,58,139,39,-1
23,-36,-60,6,42,-48,91,152,73,151,44,0
29,-31,-60,1,44,-45,90,179,89,154,45,0
46,-27,-72,-9,59,-49,90,217,109,166,45,5
64,-22,-87,-21,76,-54,89,241,121,178,50,9
71,-18,-89,-26,80,-53,96,271,141,187,50,11
83,-13,-96,-35,90,-54,97,274,150,192,54,16
85,-10,-95,-37,90,-52,84,261,140,184,55,19
56,-10,-66,-23,61,-38,75,234,127,181,57,22
24,-10,-34,-7,29,-22,65,172,113,174,68,33
10,-10,-20,0,15,-15,60,121,90,169,73,41
10,-10,-20,0,15,-15,55,71,64,164,66,40
6,-15,-20,5,13,-17,49,37,36,149,61,37
-3,-23,-20,13,9,-21,43,18,13,132,56,34
-11,-31,-20,21,5,-25,40,6,6,121,50,31
-18,-35,-18,27,1,-26,40,3,-1,116,45,29
-23,-34,-11,29,-6,-22,40,-3,-7,111,40,26
-32,-37,-6,35,-13,-21,40,-9,-14,108,40,23
-41,-40,0,41,-20,-20,40,-14,-19,102,40,20
-45,-40,5,42,-25,-17,40,-12,-15,101,40,17
-23,-37,-14,30,-4,-25,43,-7,-15,105,41,14
-11,-32,-21,22,6,-26,46,-4,-15,105,37,18
-18,-30,-11,24,-3,-20,43,-1,-15,105,35,20
-19,-25,-7,22,-6,-16,51,4,-16,109,35,20
-23,-22,1,22,-12,-10,60,4,-12,110,35,20
-25,-18,7,22,-16,-5,54,0,-10,110,35,20
-26,-15,12,21,-18,-1,48,-3,-10,110,34,19
-17,-15,1,16,-9,-7,43,-5,-7,110,31,16
-8,-13,-5,11,-1,-9,36,-9,-4,109,28,13
-13,-9,4,11,-9,-2,38,-10,-6,103,39,10
-16,-10,6,13,-11,-2,42,-16,-9,97,44,8
-28,-13,15,20,-21,1,40,-30,-14,92,35,4
-33,-16,17,24,-25,0,40,-35,-16,86,30,8
-37,-19,18,28,-28,-1,40,-35,-21,81,22,10
-57,-22,36,39,-47,7,40,-35,-24,76,16,10
-59,-25,33,42,-45,4,40,-35,-27,71,19,10
-54,-24,30,39,-42,3,35,-35,-38,67,20,10
-47,-20,27,33,-37,4,35,-32,-45,62,20,10
-45,-20,25,32,-35,2,34,-29,-45,58,24,6
-42,-20,22,30,-32,1,30,-42,-45,53,26,1
-28,-20,8,24,-18,-6,30,-51,-45,50,23,-1
-47,-20,27,33,-37,3,27,-50,-45,50,20,-5
-54,-17,38,35,-46,10,25,-48,-45,48,17,-10
-42,-14,28,28,-35,7,25,-44,-45,44,15,-8
-37,-11,27,23,-32,7,25,-45,-45,45,12,-4
-30,-9,21,19,-25,6,25,-41,-45,48,10,-5
-21,-4,17,12,-19,7,25,-35,-45,50,7,-5
-16,-10,7,13,-11,-1,20,-30,-46,50,4,-5
-29,-22,7,25,-18,-7,20,-25,-49,50,5,-10
-43,-18,25,30,-34,3,20,-16,-50,49,5,-10
-51,-16,35,33,-43,10,19,-22,-50,51,5,-11
-60,-12,48,36,-53,18,21,-36,-50,55,4,-15
-34,-11,23,22,-28,6,16,-30,-50,57,-3,-16
-6,-6,0,6,-3,-3,24,-25,-50,60,-1,-11
-37,10,46,13,-42,28,37,-22,-51,63,8,3
-47,26,73,10,-60,49,26,-16,-32,65,17,18
-43,46,89,-2,-66,67,22,-12,-8,68,41,24
-46,56,102,-5,-75,79,13,-9,2,79,57,31
-32,53,85,-11,-59,69,9,-4,12,83,55,37
-24,50,75,-13,-49,62,-2,-26,-1,66,45,31
-11,48,58,-18,-35,53,-39,-65,-32,50,35,29
7,45,38,-26,-16,41,-45,-64,-45,40,28,24
30,43,13,-36,8,28,-34,-65,-49,30,20,20
47,33,-14,-40,30,9,-31,-65,-52,25,16,18
16,22,6,-19,4,14,-20,-64,-55,10,6,3
-21,3,23,9,-22,13,-8,-66,-57,8,1,-5
-23,-30,-7,27,-8,-18,9,-55,-70,2,-20,-18
-32,-33,0,33,-16,-16,15,-62,-73,2,-25,-14
-55,-39,16,47,-36,-11,30,-45,-66,-1,-24,-23
-63,-20,43,41,-53,12,28,-57,-72,-8,-18,-23
-15,-25,-9,20,-3,-17,32,-36,-58,3,-7,-22
-36,-3,33,19,-34,15,28,-37,-66,-10,-15,-22
-69,35,104,16,-86,69,67,29,29,69,40,12
14,54,40,-34,-13,46,113,206,225,262,230,163
474,227,-247,-351,361,-10,-78,467,634,778,827,744
837,110,-728,-473,782,-309,-195,701,903,955,898,819
431,-69,-500,-181,466,-284,-221,61,199,214,131,181
123,39,-83,-81,103,-22,-259,-441,-348,-206,-141,-22
60,24,-36,-42,48,-6,-87,-124,-134,-71,-60,-24
-8,4,12,2,-11,8,16,-17,-45,2,-44,-45
18,3,-15,-11,17,-6,18,10,-45,16,-18,-26
-20,-9,11,14,-15,1,37,31,-33,7,-22,-39
-24,-7,18,15,-21,5,46,20,-32,9,-11,-24
-33,-20,13,26,-22,-3,53,31,-19,3,-18,-34
-36,-18,19,26,-28,1,48,18,-22,1,-9,-32
-31,-22,9,26,-20,-6,51,24,-18,0,-10,-36
-32,-19,13,25,-22,-3,49,17,-21,-5,-12,-35
-28,-20,8,24,-18,-6,48,24,-19,-4,-15,-35
-28,-20,8,24,-18,-6,45,29,-20,-7,-20,-35
-20,-20,0,20,-10,-10,41,35,-15,-10,-21,-37
-14,-17,-3,16,-5,-10,40,39,-9,-10,-27,-41
-5,-12,-7,9,1,-9,35,44,-6,-8,-30,-39
4,-10,-13,3,9,-11,35,46,-1,-3,-27,-40
8,-5,-14,-1,11,-9,42,56,3,0,-21,-40
7,-2,-8,-2,8,-4,50,75,9,3,-17,-40
1,1,0,-1,0,1,55,92,16,8,-13,-36
13,6,-7,-10,10,-1,55,112,30,10,-7,-35
39,12,-27,-25,33,-8,55,130,42,20,-6,-35
52,15,-37,-33,44,-11,55,163,61,33,-10,-35
50,20,-29,-35,39,-5,56,198,82,35,-10,-36
47,25,-23,-36,35,1,54,221,92,35,-10,-33
72,28,-44,-50,58,-8,48,242,112,43,-10,-26
81,33,-48,-56,64,-7,45,256,120,48,-10,-19
66,36,-30,-51,47,3,40,238,107,43,-4,-13
63,43,-20,-52,41,11,35,194,96,40,13,-6
45,42,-3,-43,24,19,35,139,82,37,22,0
17,34,17,-26,0,25,35,83,62,32,18,4
2,31,29,-17,-14,29,35,39,32,30,12,9
4,24,20,-14,-8,22,35,8,8,20,8,8
-9,19,28,-5,-18,23,35,-3,-2,4,1,2
-33,14,47,9,-40,30,34,-9,-20,-7,-3,-2
-33,10,43,11,-38,26,29,-21,-36,-13,-9,-6
-30,10,40,10,-35,25,31,-35,-35,-17,-10,-11
-30,8,37,11,-34,23,27,-35,-35,-21,-10,-15
-30,4,35,12,-33,20,24,-30,-36,-26,-14,-21
-27,5,33,11,-31,19,25,-29,-35,-30,-16,-31
-22,8,30,7,-26,19,21,-24,-35,-30,-13,-33
-15,11,26,2,-21,19,20,-27,-35,-30,-10,-28
-10,14,25,-2,-18,19,20,-30,-35,-30,-10,-25
-4,16,20,-6,-12,18,21,-30,-35,-30,-10,-22
0,20,21,-10,-10,20,19,-32,-35,-29,-10,-17
-12,19,31,-3,-22,25,25,-35,-35,-33,-10,-15
-11,15,26,-2,-19,20,37,-35,-35,-36,-13,-20
-19,15,34,2,-27,25,33,-31,-34,-34,-16,-20
-38,13,51,13,-45,31,30,-31,-37,-39,-19,-21
-41,10,50,16,-45,30,28,-29,-31,-40,-22,-25
-38,10,48,14,-43,29,25,-33,-33,-41,-24,-25
-32,13,46,9,-39,29,23,-37,-38,-38,-27,-25
-28,15,43,6,-36,30,19,-49,-50,-46,-30,-25
-32,15,47,8,-40,31,17,-72,-71,-65,-30,-25
-45,15,60,15,-53,37,14,-68,-70,-65,-30,-25
-40,15,55,12,-48,35,11,-65,-69,-65,-30,-25
-35,15,50,10,-43,32,9,-63,-71,-65,-30,-26
-32,15,47,8,-40,31,21,-59,-69,-65,-33,-29
-26,15,41,5,-34,27,28,-58,-70,-65,-37,-30
-23,15,38,4,-31,26,24,-54,-70,-65,-40,-29
-12,15,27,-2,-20,21,25,-55,-70,-65,-44,-33
-24,15,39,4,-32,27,25,-55,-70,-65,-44,-35
-41,15,56,13,-49,36,25,-55,-70,-65,-40,-35
-40,15,55,12,-48,35,25,-56,-70,-65,-40,-38
-38,15,54,11,-47,34,25,-59,-75,-70,-40,-41
-36,14,50,11,-43,32,25,-64,-75,-70,-40,-39
-33,16,49,8,-42,32,25,-63,-76,-70,-40,-36
-41,12,53,14,-47,32,25,-59,-80,-69,-40,-34
-39,16,55,11,-47,35,26,-60,-80,-73,-40,-39
-24,32,55,-4,-40,43,22,-60,-78,-77,-40,-45
-26,28,54,-2,-40,41,20,-60,-74,-75,-40,-45
-31,25,56,2,-44,40,20,-59,-72,-75,-40,-45
-31,23,54,3,-43,38,16,-56,-69,-75,-39,-45
-38,19,56,9,-47,37,15,-53,-66,-75,-31,-45
-34,24,59,5,-47,41,15,-50,-64,-75,-24,-43
-28,38,66,-6,-47,52,23,-48,-57,-66,-14,-33
-35,62,97,-14,-66,79,29,-44,-42,-52,-8,-22
-27,81,108,-27,-68,95,35,-48,-36,-47,3,-15
-17,80,97,-32,-57,89,40,-54,-34,-50,18,-15
-15,73,87,-29,-51,80,14,-62,-37,-53,-6,-15
-8,69,78,-31,-43,73,-25,-80,-57,-56,-24,-15
-2,62,64,-31,-33,63,-35,-80,-65,-60,-25,-15
9,57,49,-33,-20,53,-24,-79,-66,-68,-29,-18
9,52,43,-31,-18,47,-18,-77,-77,-76,-33,-27
-10,33,43,-12,-27,38,-8,-72,-91,-91,-47,-42
-27,21,48,3,-38,34,-4,-79,-91,-92,-46,-46
-34,7,40,13,-37,23,2,-70,-88,-98,-70,-66
-38,14,51,12,-44,32,2,-81,-94,-102,-68,-64
-32,6,38,13,-35,22,8,-69,-85,-89,-58,-60
-50,6,56,22,-54,31,8,-81,-94,-95,-64,-60
-39,6,45,17,-43,25,12,-71,-69,-74,-42,-51
-45,6,51,19,-48,28,18,-70,-78,-89,-67,-59
-54,61,115,-4,-85,88,46,-45,-25,-43,-13,-24
-20,55,74,-18,-47,64,114,137,153,102,96,43
333,210,-122,-271,227,44,-36,351,473,518,584,525
841,195,-646,-518,743,-225,-199,685,866,868,881,810
563,-37,-600,-263,581,-318,-213,266,396,299,217,242
134,35,-99,-85,116,-32,-260,-455,-322,-253,-171,-95
86,61,-25,-73,55,18,-138,-246,-225,-180,-103,-67
1,26,25,-14,-12,26,-3,-34,-60,-112,-105,-79
1,35,34,-18,-16,34,16,-31,-64,-98,-71,-63
-5,19,24,-7,-15,21,34,-4,-51,-98,-73,-73
-10,26,37,-8,-24,31,28,-24,-52,-93,-62,-62
-12,14,26,-1,-19,20,31,-8,-41,-86,-66,-66
-18,17,35,1,-27,25,30,-20,-41,-86,-62,-68
-7,19,26,-6,-17,23,30,-12,-33,-83,-58,-69
-10,20,30,-5,-20,24,31,-13,-36,-86,-62,-71
-2,22,24,-11,-13,22,29,-9,-32,-84,-66,-72
0,25,25,-13,-13,25,31,-5,-29,-85,-72,-77
-4,25,30,-11,-17,27,30,-4,-31,-85,-69,-74
-17,27,44,-5,-31,35,30,1,-26,-81,-71,-71
-14,31,45,-9,-30,38,31,0,-20,-80,-70,-70
-7,33,40,-13,-24,36,35,17,-15,-80,-70,-69
-3,36,39,-17,-21,37,35,32,-9,-75,-65,-65
4,39,35,-22,-15,37,35,49,-4,-75,-65,-65
7,41,34,-24,-14,37,35,60,0,-74,-66,-65
15,45,30,-30,-8,37,35,71,14,-66,-65,-65
23,50,27,-37,-2,38,39,102,19,-59,-65,-65
31,53,23,-42,4,38,40,126,34,-52,-62,-65
37,58,21,-47,7,39,40,152,62,-46,-60,-65
46,60,14,-53,16,37,46,186,73,-42,-57,-65
57,63,7,-60,25,35,41,208,82,-39,-54,-59
73,66,-7,-69,40,29,34,230,89,-36,-51,-53
81,71,-10,-76,45,31,28,224,95,-31,-49,-48
76,84,8,-80,34,46,21,183,84,-31,-43,-42
58,87,30,-73,14,58,15,141,67,-35,-32,-37
26,81,54,-54,-14,68,10,77,49,-35,-29,-34
15,74,59,-45,-22,66,10,27,20,-34,-24,-29
-7,68,75,-30,-41,71,9,5,-2,-41,-22,-27
-17,61,78,-22,-48,69,5,-31,-18,-59,-17,-22
-10,55,65,-23,-37,60,4,-37,-29,-65,-14,-21
-13,50,63,-19,-38,56,14,-33,-42,-69,-43,-37
-7,45,52,-20,-30,49,21,-41,-52,-76,-59,-41
-9,41,50,-16,-30,46,13,-40,-56,-79,-52,-40
-25,36,61,-6,-44,49,9,-40,-60,-84,-51,-45
-28,35,62,-4,-46,48,6,-40,-60,-85,-47,-45
-18,35,53,-9,-36,44,-2,-40,-60,-85,-45,-44
-17,35,52,-9,-35,43,16,-40,-60,-90,-45,-40
-5,35,40,-15,-23,38,33,-42,-60,-90,-45,-40
-10,35,44,-13,-28,39,29,-46,-57,-90,-45,-40
-35,36,70,-1,-53,53,26,-45,-52,-90,-45,-40
-34,39,73,-3,-54,56,24,-40,-49,-90,-45,-40
-17,44,62,-14,-40,53,20,-40,-46,-90,-45,-40
-18,43,60,-13,-39,51,17,-39,-41,-90,-45,-40
-48,40,88,4,-68,63,27,-35,-41,-90,-45,-40
-48,40,88,4,-68,64,29,-36,-45,-89,-45,-40
-35,40,75,-3,-55,57,23,-34,-50,-91,-45,-40
-29,40,68,-6,-48,54,21,-41,-45,-89,-44,-41
-22,41,63,-10,-42,52,16,-53,-48,-93,-49,-50
-37,42,79,-3,-58,60,14,-55,-60,-105,-51,-55
-31,40,71,-5,-51,55,9,-56,-60,-103,-50,-55
-32,40,72,-4,-52,56,3,-59,-63,-97,-50,-55
-25,40,65,-8,-45,52,0,-60,-66,-94,-50,-55
-12,40,52,-14,-32,45,-5,-56,-65,-89,-49,-55
-36,40,76,-2,-56,58,-10,-53,-65,-84,-53,-56
-36,40,76,-2,-56,58,-6,-49,-65,-98,-62,-60
-26,40,66,-7,-46,53,-5,-47,-65,-110,-61,-60
-22,40,62,-9,-42,51,-2,-40,-65,-111,-60,-60
-13,40,53,-14,-33,46,-1,-44,-65,-115,-59,-60
-10,40,50,-15,-30,45,3,-61,-60,-117,-55,-60
-20,40,60,-10,-40,50,16,-59,-59,-120,-55,-64
-30,40,70,-5,-50,55,11,-54,-53,-120,-57,-65
-22,40,62,-9,-42,51,6,-53,-60,-120,-64,-65
-19,40,59,-11,-39,49,3,-46,-81,-120,-60,-65
-15,40,55,-13,-35,47,-4,-46,-79,-119,-60,-64
-12,40,52,-14,-32,46,-4,-55,-76,-116,-59,-66
-7,40,46,-17,-27,43,0,-55,-73,-114,-54,-70
-7,40,47,-17,-27,43,4,-51,-70,-116,-56,-70
-28,39,68,-6,-48,54,6,-49,-69,-114,-53,-70
-31,41,72,-5,-51,56,10,-46,-63,-116,-48,-70
-29,39,68,-5,-48,53,9,-45,-56,-112,-45,-71
-27,46,73,-10,-50,60,11,-38,-49,-103,-42,-60
1,65,64,-33,-32,64,17,-29,-43,-95,-37,-37
-3,80,83,-38,-44,81,23,-20,-32,-86,-35,-30
-21,94,115,-36,-69,104,30,-12,-13,-90,-40,-28
-9,96,105,-43,-58,100,23,-5,6,-90,-41,-24
0,94,94,-47,-48,94,2,-29,-8,-90,-46,-23
14,92,79,-53,-33,85,-36,-59,-48,-89,-46,-18
30,89,59,-59,-14,74,-56,-53,-51,-93,-51,-24
34,91,57,-63,-11,73,-47,-57,-43,-109,-47,-27
23,72,49,-48,-13,60,-38,-70,-63,-116,-46,-30
2,47,45,-25,-22,46,-17,-77,-92,-136,-75,-55
4,43,39,-23,-18,41,-1,-72,-84,-133,-73,-56
-2,32,33,-15,-18,32,1,-65,-79,-131,-85,-70
-18,31,49,-6,-34,40,-1,-70,-77,-129,-84,-68
-29,17,45,6,-37,31,6,-52,-63,-123,-85,-72
-44,19,63,12,-54,41,3,-68,-72,-129,-84,-69
-28,22,50,3,-40,36,9,-34,-41,-107,-73,-68
-32,42,74,-5,-53,58,13,-54,-57,-123,-94,-75
-44,55,100,-6,-72,77,61,21,37,-41,-10,-22
37,73,36,-55,0,55,102,224,233,147,178,119
535,219,-316,-377,426,-48,-98,496,603,600,688,644
898,160,-738,-529,818,-289,-241,764,878,755,732,695
443,63,-380,-253,411,-158,-234,70,253,119,67,99
89,112,23,-100,33,68,-230,-500,-280,-233,-146,-64
32,52,20,-43,6,36,-97,-169,-133,-167,-110,-70
-27,31,58,-3,-43,44,-7,-41,-26,-116,-82,-90
-7,31,38,-13,-23,34,10,-10,-17,-94,-42,-71
-26,22,48,2,-37,35,29,0,-20,-101,-56,-83
-23,23,45,-1,-34,34,27,-11,-26,-100,-47,-69
-30,13,43,8,-37,28,32,1,-41,-129,-77,-78
-30,13,42,8,-36,27,31,-11,-38,-124,-74,-67
-31,0,31,15,-31,15,36,0,-32,-123,-68,-71
-34,-3,31,19,-32,14,35,-4,-31,-121,-66,-70
-17,5,21,6,-19,13,31,6,-23,-119,-59,-69
-9,7,17,1,-14,12,30,5,-30,-119,-55,-71
-21,2,24,9,-23,13,29,12,-29,-113,-65,-65
-38,-1,38,19,-38,18,26,13,-23,-116,-74,-65
-33,-4,29,18,-30,12,24,28,-20,-111,-68,-65
-36,-9,26,22,-31,8,27,52,-14,-110,-66,-65
-29,-9,21,19,-25,6,30,59,-11,-110,-64,-65
-18,-1,17,10,-18,8,34,65,-5,-104,-60,-65
9,17,8,-13,0,13,35,64,5,-99,-60,-74
56,27,-29,-41,43,-1,35,81,14,-94,-81,-81
70,24,-46,-47,58,-11,34,117,34,-88,-87,-75
70,25,-45,-47,57,-10,37,144,38,-82,-83,-70
70,26,-44,-48,57,-9,41,167,53,-78,-87,-64
90,40,-50,-64,70,-5,40,195,64,-72,-82,-58
112,48,-64,-80,88,-8,40,206,79,-68,-79,-54
107,54,-53,-80,80,0,35,224,101,-63,-70,-46
107,61,-46,-84,77,7,35,232,88,-59,-69,-38
96,65,-31,-80,63,17,34,187,81,-55,-45,-30
61,80,19,-70,21,49,26,129,71,-50,-4,-22
34,77,43,-56,-5,60,19,85,54,-51,-8,-20
9,62,53,-36,-22,57,12,46,38,-47,-10,-19
-14,53,67,-20,-40,60,4,5,21,-63,-21,-24
-21,42,63,-11,-42,52,-3,-24,4,-97,-39,-36
-27,33,60,-3,-44,46,-1,-31,-7,-98,-26,-25
-35,22,57,6,-47,39,8,-30,-11,-99,-30,-31
-35,20,55,7,-45,37,14,-30,-18,-113,-49,-50
-32,20,53,6,-43,36,19,-30,-21,-115,-51,-50
-32,16,48,8,-41,32,15,-30,-34,-110,-49,-49
-29,15,44,7,-37,30,10,-30,-41,-109,-51,-45
-28,15,43,7,-36,28,14,-30,-35,-105,-49,-45
-20,16,36,2,-29,26,20,-30,-33,-106,-52,-44
-24,14,37,4,-31,26,26,-30,-28,-110,-55,-40
-34,20,54,7,-44,36,29,-30,-25,-109,-55,-39
-25,31,56,-4,-41,43,25,-30,-29,-113,-55,-49
-24,30,54,-4,-39,41,25,-30,-30,-115,-55,-61
-21,30,51,-4,-36,40,25,-30,-30,-115,-55,-55
-19,30,49,-6,-34,40,25,-30,-30,-119,-51,-50
-21,30,51,-5,-36,40,25,-30,-30,-120,-50,-47
-20,30,49,-5,-35,39,22,-30,-31,-120,-49,-40
-25,26,50,0,-38,38,17,-31,-35,-120,-46,-43
-26,23,50,2,-38,36,14,-36,-37,-119,-44,-50
-30,20,50,5,-40,35,11,-41,-40,-120,-47,-50
-33,17,50,8,-42,33,6,-46,-43,-119,-50,-51
-31,15,46,8,-39,31,4,-50,-45,-120,-51,-55
-32,12,44,9,-38,28,0,-47,-48,-120,-54,-54
-31,10,40,10,-35,25,0,-44,-51,-120,-55,-57
-29,10,39,10,-34,24,-2,-45,-54,-132,-58,-63
-27,7,33,9,-30,20,-6,-45,-57,-135,-61,-67
-36,4,40,15,-38,22,-5,-45,-60,-129,-60,-70
-49,6,55,21,-52,30,-9,-46,-63,-127,-60,-70
-46,9,55,18,-51,32,-10,-52,-65,-122,-60,-70
-43,12,55,15,-49,33,-10,-59,-68,-119,-60,-70
-40,15,55,12,-48,35,-10,-56,-70,-129,-61,-70
-42,13,55,14,-49,34,-10,-55,-70,-145,-65,-70
-45,8,53,18,-49,30,-9,-55,-70,-145,-65,-67
-44,5,49,20,-47,27,-5,-55,-70,-144,-65,-64
-45,2,47,21,-46,24,-5,-55,-70,-141,-65,-65
-47,-3,44,24,-45,20,-3,-56,-70,-140,-64,-65
-45,-5,40,25,-42,17,1,-61,-68,-139,-68,-65
-41,0,40,20,-40,20,0,-65,-65,-134,-70,-65
-44,0,44,22,-44,22,-3,-70,-65,-135,-71,-60
-45,1,45,22,-45,23,-12,-66,-65,-133,-76,-60
-42,6,48,18,-45,27,-14,-60,-64,-129,-75,-60
-48,3,52,23,-50,27,-5,-54,-66,-132,-75,-60
-38,12,50,13,-44,30,5,-49,-54,-122,-75,-61
-29,39,67,-5,-48,53,15,-44,-27,-105,-57,-58
-30,64,93,-17,-62,78,17,-39,-19,-105,-41,-55
-14,75,88,-31,-51,81,14,-41,-19,-105,-39,-52
-9,68,77,-29,-44,72,14,-38,-13,-107,-36,-49
-7,60,67,-27,-37,63,-20,-58,-26,-110,-34,-46
-1,55,56,-27,-29,55,-55,-79,-53,-110,-29,-44
5,47,42,-26,-19,44,-49,-80,-60,-109,-32,-51
8,43,35,-26,-14,38,-42,-88,-68,-114,-45,-52
1,28,27,-15,-13,27,-32,-88,-86,-141,-74,-59
-14,19,33,-2,-24,26,-27,-92,-93,-148,-82,-64
-21,7,28,7,-25,17,-19,-81,-86,-141,-77,-75
-31,0,30,16,-31,15,-16,-85,-95,-146,-84,-87
-39,-6,33,22,-35,13,-11,-75,-85,-133,-74,-76
-36,-21,15,28,-25,-3,-6,-75,-94,-147,-87,-86
-45,-10,35,27,-40,13,-3,-74,-81,-127,-66,-72
-34,-11,23,22,-28,5,14,-59,-75,-143,-85,-90
-52,27,79,12,-66,53,17,-74,-60,-115,-54,-62
-60,13,72,23,-66,42,100,109,118,25,39,-20
168,107,-61,-137,114,23,32,290,362,332,402,326
719,252,-467,-485,593,-107,-195,641,841,854,940,872
732,106,-626,-419,679,-260,-234,536,714,585,523,511
200,61,-139,-130,169,-39,-268,-329,-116,-130,-105,-20
47,80,33,-64,7,56,-208,-397,-271,-241,-123,-57
-11,16,27,-3,-19,21,-37,-65,-80,-150,-92,-96
-46,11,57,17,-52,34,-3,-44,-39,-109,-58,-80
-21,0,21,11,-22,10,-1,-24,-29,-118,-69,-84
-38,-1,37,19,-37,18,9,-36,-41,-122,-72,-81
-25,-9,16,17,-20,3,25,-23,-32,-120,-70,-78
-29,-15,15,22,-22,0,33,-26,-40,-129,-79,-80
-22,-11,11,16,-16,0,28,-22,-31,-119,-75,-72
-42,-11,32,26,-37,10,31,-15,-31,-119,-83,-77
-40,-9,31,24,-35,11,29,-14,-28,-113,-78,-69
-34,-6,28,20,-31,10,30,-5,-23,-111,-81,-71
-31,-4,27,17,-29,12,26,-4,-32,-106,-80,-71
-30,-7,23,18,-26,8,23,3,-35,-103,-79,-75
-38,-12,26,25,-31,6,20,6,-27,-99,-74,-75
-31,-18,14,24,-22,-2,18,15,-21,-93,-68,-77
-30,-24,7,27,-18,-8,14,20,-14,-90,-65,-81
-14,-22,-8,18,-3,-14,21,27,-8,-85,-60,-80
-22,-16,6,19,-13,-5,40,54,-2,-81,-56,-77
-38,-13,25,25,-31,6,40,74,6,-77,-58,-75
-8,-8,0,8,-4,-4,41,83,16,-71,-62,-75
20,-5,-25,-7,23,-15,39,102,23,-66,-64,-70
40,-5,-45,-17,43,-25,42,146,39,-63,-65,-70
48,-1,-49,-24,49,-25,54,181,68,-57,-65,-69
33,11,-22,-21,27,-6,50,199,77,-54,-65,-62
51,19,-32,-35,41,-6,42,219,79,-49,-65,-56
95,31,-64,-63,79,-16,36,210,71,-44,-62,-49
88,42,-46,-65,67,-1,29,181,64,-39,-58,-42
31,38,7,-35,12,23,24,137,58,-35,-33,-36
3,32,29,-18,-13,30,18,88,48,-30,-10,-31
-12,28,39,-8,-26,33,12,46,35,-29,-10,-30
-33,21,54,6,-44,37,7,4,4,-46,-5,-30
-28,17,45,5,-37,31,1,-23,-23,-61,-6,-30
-34,11,45,11,-40,28,-4,-42,-36,-73,-17,-29
-31,10,41,10,-36,25,-2,-48,-40,-86,-28,-32
-28,10,38,9,-33,24,1,-46,-44,-90,-41,-43
-56,5,61,25,-59,33,4,-43,-49,-90,-42,-46
-63,5,69,29,-67,37,7,-40,-45,-90,-39,-45
-54,4,58,25,-56,30,9,-38,-45,-90,-40,-45
-53,0,53,27,-53,26,12,-34,-43,-90,-40,-45
-46,0,46,22,-46,23,15,-38,-39,-87,-40,-45
-39,0,39,20,-39,19,15,-41,-40,-82,-38,-41
-51,0,51,25,-51,25,15,-40,-43,-79,-35,-37
-56,0,56,28,-56,27,15,-40,-46,-76,-33,-34
-47,4,51,22,-50,27,15,-40,-44,-71,-30,-31
-44,5,49,20,-47,27,11,-40,-45,-71,-27,-26
-40,5,45,17,-43,25,10,-42,-44,-75,-25,-26
-36,10,45,13,-40,27,10,-46,-46,-78,-25,-31
-28,10,38,8,-33,24,5,-44,-50,-81,-25,-29
-32,9,40,11,-36,24,5,-49,-50,-79,-25,-32
-42,5,47,18,-45,25,4,-49,-52,-81,-25,-35
-44,0,45,21,-45,22,-1,-52,-55,-79,-24,-35
-46,-2,44,24,-44,20,-4,-64,-55,-81,-26,-39
-47,-7,40,27,-43,16,-7,-66,-51,-105,-30,-40
-50,-10,39,30,-45,15,-12,-64,-50,-120,-30,-40
-49,-6,43,28,-46,18,-15,-61,-50,-121,-32,-40
-53,-5,48,29,-50,21,-12,-59,-50,-127,-35,-39
-51,-5,46,28,-48,20,-6,-60,-50,-130,-35,-42
-49,-5,44,27,-46,20,-1,-60,-51,-130,-32,-45
-50,-5,46,27,-47,21,2,-60,-59,-132,-29,-45
-51,-6,44,28,-47,19,8,-60,-61,-136,-30,-45
-56,-10,46,33,-51,17,9,-60,-59,-135,-30,-45
-52,-10,42,31,-47,16,5,-60,-61,-132,-30,-45
-50,-10,40,30,-45,15,5,-63,-59,-129,-30,-41
-50,-10,40,30,-45,15,5,-66,-62,-126,-30,-40
-50,-10,40,30,-45,15,5,-64,-65,-123,-30,-40
-47,-6,41,27,-44,17,5,-65,-65,-120,-30,-40
-43,-5,38,24,-40,16,1,-64,-67,-120,-30,-40
-54,-5,50,29,-51,22,-6,-66,-70,-120,-30,-41
-56,-1,55,28,-56,27,-19,-70,-70,-120,-30,-45
-48,1,49,24,-49,25,-22,-70,-67,-120,-30,-45
-49,-1,48,25,-48,23,-16,-72,-64,-120,-30,-45
-47,-5,42,26,-44,18,-12,-76,-65,-120,-30,-45
-45,-5,40,25,-42,17,-7,-75,-65,-117,-30,-45
-40,-5,35,22,-37,15,-3,-72,-65,-114,-29,-42
-39,-4,34,21,-36,15,2,-64,-64,-111,-25,-36
-35,-6,29,21,-31,11,6,-58,-58,-108,-23,-32
-30,3,32,13,-31,17,12,-51,-53,-105,-20,-27
-32,21,53,5,-43,36,15,-43,-47,-104,-17,-23
-32,36,68,-2,-50,51,20,-43,-41,-97,-15,-18
-39,62,101,-12,-70,81,26,-37,-43,-98,-10,-15
-27,70,97,-22,-62,83,17,-27,-46,-101,5,-15
-20,61,81,-21,-50,71,-1,-37,-44,-100,13,-12
-34,57,90,-12,-62,73,-35,-72,-46,-105,6,-10
-15,50,65,-18,-40,58,-53,-89,-55,-105,-1,-9
-4,39,43,-18,-24,41,-45,-86,-60,-105,-12,-15
-11,31,42,-11,-27,36,-44,-95,-62,-105,-16,-19
11,17,6,-14,2,12,-37,-92,-80,-112,-30,-29
-17,-1,17,9,-17,8,-27,-94,-89,-117,-42,-40
-68,-27,40,47,-54,6,-10,-82,-77,-107,-38,-37
-70,-31,39,50,-55,4,-2,-87,-84,-112,-44,-37
-62,-28,34,44,-48,3,1,-77,-71,-98,-35,-32
-61,-32,28,46,-44,-2,4,-76,-79,-106,-47,-40
-50,-17,33,33,-41,8,3,-75,-67,-106,-30,-28
-50,-37,13,43,-31,-12,6,-50,-72,-117,-38,-42
-81,8,89,36,-85,48,16,-64,-58,-85,-2,-13
-69,23,93,23,-81,58,91,98,117,34,72,24
185,146,-38,-165,111,54,20,290,375,365,457,383
723,239,-484,-481,603,-123,-183,642,872,896,1002,905
708,2,-706,-355,707,-352,-233,497,674,558,523,510
224,-16,-241,-104,232,-128,-291,-333,-211,-214,-117,-4
77,44,-33,-60,55,5,-209,-341,-286,-258,-101,-25
22,-4,-26,-9,23,-15,-11,-25,-45,-115,-70,-67
-2,5,7,-1,-4,6,5,-21,-45,-98,-25,-50
-2,-13,-11,7,4,-11,7,0,-35,-100,-42,-55
-26,-10,17,18,-21,4,17,-29,-44,-101,-49,-51
-31,-20,11,25,-21,-4,18,-19,-38,-98,-40,-48
-39,-24,15,31,-27,-4,26,-17,-41,-101,-50,-51
-21,-24,-4,22,-8,-14,34,-12,-36,-94,-41,-41
-17,-26,-9,22,-4,-17,41,-3,-33,-94,-47,-48
-31,-24,7,27,-19,-8,30,-3,-31,-90,-37,-39
-55,-26,29,40,-42,1,30,12,-26,-87,-42,-41
-48,-25,23,36,-35,0,23,21,-26,-85,-37,-40
-15,-24,-9,20,-3,-16,20,29,-22,-83,-34,-45
-30,-20,10,25,-20,-5,35,31,-16,-78,-36,-53
-53,-18,35,35,-44,9,41,35,-9,-72,-37,-53
-34,-15,19,24,-26,2,40,41,-3,-69,-35,-49
-26,-11,15,18,-20,1,40,44,4,-64,-30,-45
-25,-10,15,17,-20,2,40,61,9,-60,-29,-42
-16,-6,10,11,-13,1,40,80,19,-55,-23,-37
-10,1,11,4,-10,6,44,98,31,-48,-20,-35
4,7,4,-6,0,5,52,134,47,-43,-24,-40
24,14,-10,-19,17,2,54,163,66,-37,-25,-40
49,21,-28,-34,38,-3,49,185,77,-32,-25,-40
64,26,-37,-45,50,-5,46,214,92,-28,-25,-40
65,31,-34,-48,49,-1,43,235,93,-22,-26,-40
67,35,-31,-51,49,2,38,242,83,-19,-23,-37
68,40,-28,-54,48,6,35,207,77,-13,-21,-25
39,36,-3,-38,21,16,31,158,67,-10,-8,-12
8,30,21,-19,-7,25,25,111,62,-17,15,-5
-3,25,29,-11,-16,27,20,46,38,-27,15,-5
-11,19,30,-4,-21,24,14,9,7,-34,8,-5
-16,14,30,1,-23,22,9,-3,-11,-45,5,-5
-21,9,30,6,-26,19,3,-12,-32,-57,0,-7
-26,4,30,11,-28,17,0,-17,-41,-61,-4,-13
-29,1,30,14,-30,15,0,-24,-39,-64,-5,-16
-29,-2,26,15,-27,12,0,-31,-41,-65,-5,-22
-31,-7,25,19,-28,9,0,-34,-39,-66,-5,-25
-35,-10,25,22,-30,7,0,-30,-41,-70,-5,-21
-32,-6,26,19,-29,9,3,-30,-37,-70,-5,-18
-28,-4,23,16,-25,10,6,-30,-35,-68,-3,-15
-36,-5,31,20,-33,13,9,-30,-35,-61,0,-12
-50,-5,46,27,-47,21,12,-30,-31,-56,3,-10
-51,-6,45,28,-47,20,15,-33,-30,-51,5,-7
-48,-3,45,25,-46,21,14,-36,-31,-45,9,-5
-45,0,45,22,-45,22,10,-35,-35,-41,10,-5
-45,0,45,22,-45,22,10,-35,-35,-45,7,-5
-43,0,43,21,-43,21,10,-35,-36,-53,2,-5
-39,0,39,20,-39,20,10,-36,-40,-56,-1,-6
-41,0,41,20,-41,20,10,-40,-40,-59,-4,-9
-43,-4,39,23,-41,18,7,-42,-42,-63,-9,-12
-46,-6,40,26,-43,17,4,-45,-46,-65,-10,-15
-44,-5,39,24,-41,17,1,-48,-49,-65,-10,-17
-41,-5,35,23,-37,15,-1,-50,-53,-65,-10,-21
-40,-4,35,22,-37,15,-6,-54,-55,-65,-10,-17
-40,-6,33,23,-36,13,-3,-55,-60,-65,-10,-14
-40,-10,30,25,-35,10,0,-56,-60,-65,-10,-15
-39,-10,29,24,-34,9,0,-60,-61,-67,-6,-15
-49,-10,39,29,-44,14,0,-60,-65,-70,-5,-15
-57,-10,46,33,-52,18,-1,-60,-64,-70,-5,-15
-54,-10,44,32,-49,17,15,-64,-67,-70,-5,-15
-55,-10,45,32,-50,17,18,-65,-70,-70,-5,-15
-55,-10,45,32,-50,17,8,-66,-70,-70,-7,-15
-55,-10,45,32,-50,17,3,-69,-70,-70,-10,-15
-51,-10,41,30,-46,15,-4,-71,-70,-70,-13,-15
-44,-10,35,27,-40,12,-4,-68,-70,-70,-15,-17
-42,-11,30,26,-36,9,1,-65,-70,-70,-18,-21
-39,-15,24,27,-31,4,4,-65,-70,-70,-21,-20
-33,-15,18,24,-25,1,2,-63,-70,-68,-16,-24
-31,-15,16,22,-23,0,-2,-59,-70,-64,-15,-25
-48,-15,32,31,-40,8,-3,-60,-70,-65,-15,-25
-64,-15,49,39,-56,17,-7,-63,-67,-65,-10,-30
-62,-12,50,37,-56,19,-9,-66,-64,-65,-10,-30
-55,-6,49,30,-52,21,-6,-64,-65,-64,-9,-30
-53,-2,51,27,-52,24,-3,-59,-65,-61,-3,-30
-45,3,48,21,-47,25,-6,-56,-65,-58,3,-31
-46,7,53,19,-50,30,-5,-52,-64,-54,7,-27
-42,12,54,15,-48,33,10,-49,-59,-52,14,-15
-33,35,68,-1,-51,51,13,-45,-46,-46,18,-2
-42,56,97,-7,-70,76,5,-41,-29,-29,25,9
-27,58,85,-16,-56,71,0,-29,-5,-6,39,22
-19,54,74,-18,-47,64,-4,-23,2,1,39,28
-24,49,73,-13,-49,61,-28,-61,-35,-17,30,20
-18,46,63,-14,-41,54,-52,-83,-60,-37,25,15
5,40,35,-23,-15,37,-51,-78,-65,-39,17,7
28,35,7,-32,10,21,-55,-87,-76,-42,9,1
27,21,-6,-24,16,7,-46,-85,-78,-61,-5,-4
4,9,5,-6,-1,6,-34,-92,-87,-68,-32,-12
-35,-16,20,25,-27,2,-22,-88,-92,-63,-48,-14
-48,-44,4,46,-26,-20,-4,-82,-94,-70,-55,-25
-39,-33,6,36,-23,-13,2,-87,-87,-59,-45,-24
-71,-49,22,60,-46,-13,8,-71,-78,-61,-51,-32
-63,-34,29,48,-45,-2,4,-88,-80,-55,-39,-14
-44,-58,-14,51,-14,-35,14,-59,-62,-49,-43,-17
-83,-26,58,54,-70,16,10,-68,-70,-52,-35,-2
-72,21,92,25,-82,56,74,41,48,36,21,19
66,69,3,-68,31,36,89,213,261,264,264,227
579,234,-345,-406,462,-55,-139,513,693,787,844,807
781,39,-742,-410,762,-351,-240,654,808,769,690,668
309,-91,-400,-109,355,-245,-274,-140,-5,-3,-42,72
71,19,-53,-45,62,-17,-256,-450,-358,-247,-175,-11
29,-6,-35,-11,32,-20,-68,-84,-93,-86,-74,-31
-41,-18,22,30,-31,2,-8,-39,-53,-55,-44,-31
-53,-44,8,48,-30,-18,19,-3,-34,-48,-42,-18
-56,-39,17,48,-37,-11,36,-13,-30,-50,-49,-27
-46,-39,8,43,-27,-16,25,-22,-31,-41,-41,-10
-49,-42,7,45,-28,-17,34,-21,-28,-41,-48,-20
-43,-38,6,40,-25,-15,27,-19,-32,-36,-46,-29
-28,-39,-11,33,-8,-24,31,-5,-28,-34,-52,-40
-30,-33,-2,32,-13,-17,24,-6,-31,-36,-49,-31
-48,-36,12,42,-30,-12,25,6,-22,-34,-50,-30
-34,-29,5,32,-19,-12,24,9,-19,-36,-50,-26
-31,-31,1,31,-16,-14,19,18,-14,-33,-48,-21
-46,-29,17,37,-32,-5,20,24,-10,-30,-46,-20
-39,-25,14,32,-26,-5,23,31,-6,-30,-42,-19
-34,-23,12,28,-23,-6,27,35,0,-30,-40,-20
-29,-20,9,24,-19,-5,24,44,5,-30,-36,-20
-22,-17,5,19,-13,-6,25,49,10,-31,-35,-20
-21,-15,6,17,-13,-4,25,73,17,-26,-32,-21
-4,-11,-8,8,2,-9,24,96,19,-17,-29,-16
17,-4,-22,-6,20,-12,29,115,36,-11,-30,-15
17,2,-14,-9,16,-6,28,137,60,-4,-30,-14
14,9,-5,-11,9,2,37,169,77,2,-30,-11
40,16,-24,-27,32,-4,43,203,91,9,-29,-9
63,22,-41,-42,51,-9,34,213,98,16,-24,-12
51,24,-27,-37,39,-2,27,211,97,22,-20,-21
45,33,-12,-39,28,10,19,199,88,29,-15,-12
38,36,-2,-37,20,17,12,160,84,26,-11,5
7,27,20,-17,-6,23,7,99,69,19,-6,14
-19,21,41,-1,-30,31,2,62,42,13,-2,24
-28,13,40,7,-34,27,-1,20,23,6,3,28
-34,6,39,14,-37,22,-4,-13,2,-1,4,23
-38,-1,37,19,-38,18,-9,-26,-17,-7,-1,17
-38,-5,33,21,-35,14,-9,-40,-31,-13,-7,12
-44,-7,37,25,-40,15,-4,-48,-39,-18,-10,6
-50,-10,40,30,-45,14,-6,-54,-40,-24,-15,1
-54,-13,41,34,-47,13,-2,-52,-40,-29,-20,0
-55,-16,39,35,-46,11,0,-49,-40,-27,-17,0
-47,-11,36,29,-41,12,0,-46,-40,-22,-14,0
-44,-10,34,26,-39,12,3,-43,-39,-19,-15,0
-47,-10,37,28,-42,13,6,-41,-35,-16,-15,0
-50,-10,40,30,-45,15,9,-38,-35,-11,-16,0
-51,-11,40,31,-46,15,12,-35,-35,-10,-13,0
-48,-8,40,28,-44,16,15,-35,-35,-10,-10,0
-46,-5,40,26,-42,17,14,-35,-35,-10,-10,0
-42,-2,39,22,-40,18,10,-35,-39,-10,-10,4
-45,0,45,22,-45,22,8,-36,-40,-10,-10,5
-51,3,54,23,-53,29,5,-34,-40,-10,-10,5
-48,6,54,21,-52,30,1,-36,-45,-14,-10,5
-48,1,49,23,-49,25,0,-33,-45,-20,-10,5
-46,0,46,23,-46,23,-4,-42,-45,-25,-10,4
-43,0,42,21,-42,21,-8,-61,-45,-32,-10,-4
-43,-5,39,24,-41,17,-13,-60,-45,-35,-10,-11
-40,-5,35,22,-37,15,-14,-60,-53,-35,-11,-18
-43,-5,38,24,-40,16,-10,-60,-56,-35,-15,-17
-58,-5,53,31,-55,23,-10,-61,-54,-35,-18,-14
-57,-5,52,31,-54,23,-10,-57,-55,-35,-22,-15
-51,-5,46,28,-48,20,-10,-55,-55,-32,-25,-10
-46,-5,41,25,-43,18,-10,-68,-55,-29,-25,-10
-43,-9,34,25,-38,12,-7,-71,-58,-26,-25,-9
-42,-10,31,26,-36,10,-4,-74,-62,-23,-25,-5
-40,-10,30,25,-35,10,-1,-74,-65,-20,-25,-5
-35,-10,25,22,-30,7,2,-69,-68,-21,-26,-5
-29,-9,19,19,-24,5,5,-70,-72,-28,-23,-5
-50,-11,39,31,-44,13,4,-70,-75,-34,-20,-5
-67,-15,52,41,-59,18,-1,-69,-75,-35,-20,-5
-60,-15,45,37,-52,15,-4,-71,-75,-35,-18,-5
-58,-15,43,36,-50,14,-7,-64,-75,-35,-14,-5
-53,-15,38,34,-45,11,-12,-65,-75,-35,-15,-5
-50,-15,35,32,-42,10,-15,-76,-72,-34,-18,-5
-44,-12,32,28,-37,10,-12,-75,-69,-30,-21,-6
-34,-7,27,20,-31,10,-9,-75,-66,-28,-30,-12
-29,-5,24,16,-26,10,-12,-75,-64,-25,-32,-18
-21,0,21,11,-21,10,-24,-75,-59,-21,-24,-24
-13,4,16,4,-15,10,-24,-73,-62,-20,-18,-21
-10,6,16,1,-13,11,-15,-65,-73,-16,-11,-10
-23,20,43,1,-33,31,-9,-60,-65,-5,-5,0
-34,33,66,0,-50,49,-2,-53,-51,5,1,6
-35,50,85,-8,-60,67,5,-46,-48,15,7,11
-36,61,97,-13,-66,79,-1,-51,-50,29,12,15
-27,52,79,-13,-53,65,-28,-56,-50,29,20,20
-26,46,72,-10,-49,58,-56,-71,-50,10,15,25
-11,39,50,-14,-31,44,-78,-89,-55,-4,7,21
16,29,13,-23,2,21,-78,-88,-57,-14,1,11
14,26,12,-20,1,18,-69,-97,-68,-22,-7,7
-1,6,7,-3,-4,6,-67,-89,-80,-29,-14,-2
-28,-9,20,18,-24,5,-41,-89,-88,-39,-22,-10
-36,-16,21,26,-28,2,-19,-83,-82,-35,-33,-12
-43,-24,20,34,-31,-2,-19,-80,-86,-36,-39,-12
-48,-26,22,37,-35,-2,-22,-79,-78,-33,-26,-7
-54,-39,15,47,-34,-12,-17,-67,-80,-32,-33,-13
-49,-20,30,34,-39,5,-23,-76,-79,-29,-18,2
-36,-32,5,34,-20,-14,-17,-40,-55,-26,-25,-13
-61,5,66,28,-64,35,4,-74,-60,7,-8,14
-60,12,71,24,-66,41,64,52,62,89,56,41
104,89,-15,-96,59,37,23,235,285,348,347,306
666,227,-439,-446,552,-106,-180,551,716,835,868,826
779,20,-759,-399,769,-370,-237,596,715,667,575,560
257,-40,-297,-108,277,-169,-278,-246,-91,-31,-65,9
78,48,-30,-63,53,9,-254,-435,-339,-185,-121,-30
24,-8,-32,-7,28,-20,-75,-69,-90,-49,-73,-26
-29,-16,13,22,-21,-1,-21,-58,-57,3,-44,-19
-30,-33,-2,31,-14,-17,-7,-28,-47,3,-32,-15
-48,-29,18,38,-33,-5,-1,-32,-50,-8,-32,-17
-35,-29,5,32,-20,-12,-3,-20,-42,-7,-27,-7
-48,-31,17,40,-33,-7,6,-18,-40,-16,-33,-13
-43,-28,15,35,-29,-6,2,-19,-37,-18,-27,-12
-44,-31,13,37,-28,-9,9,-10,-33,-19,-32,-19
-36,-24,12,30,-23,-6,9,-14,-37,-14,-29,-19
-32,-26,6,28,-18,-10,10,-6,-34,-15,-31,-23
-31,-25,6,27,-18,-9,13,-6,-36,-11,-30,-26
-25,-25,0,25,-12,-12,15,3,-33,-9,-30,-22
-25,-25,0,25,-12,-12,15,4,-29,-10,-30,-20
-27,-23,5,25,-16,-9,15,11,-23,-5,-29,-20
-26,-18,8,22,-17,-5,15,14,-20,-2,-26,-17
-17,-15,2,16,-9,-6,15,22,-15,1,-25,-15
-11,-12,0,12,-5,-6,15,43,-11,5,-26,-16
-3,-7,-4,6,1,-6,16,54,-4,9,-25,-15
4,-4,-9,0,7,-6,12,74,9,14,-25,-15
11,0,-11,-5,11,-6,10,101,19,25,-23,-15
32,5,-27,-19,29,-11,10,132,37,38,-19,-15
46,9,-36,-27,41,-13,10,157,50,44,-20,-16
52,14,-38,-33,44,-11,10,183,64,47,-20,-12
59,18,-40,-39,49,-11,10,209,74,49,-20,-6
54,23,-31,-38,43,-4,22,200,65,53,-20,1
60,32,-27,-46,43,2,23,188,59,54,-11,7
55,36,-19,-45,37,8,7,152,51,59,6,15
39,28,-11,-33,25,8,-2,98,44,69,28,29
18,21,3,-19,7,12,-12,62,35,56,30,27
-25,14,39,5,-33,26,-18,12,8,38,23,21
-41,6,47,17,-44,26,-16,-25,-10,28,19,16
-45,-1,44,22,-44,21,-15,-36,-24,21,13,10
-54,-8,46,30,-50,19,-14,-38,-40,14,8,5
-54,-10,44,32,-49,16,-9,-45,-40,6,2,0
-56,-10,46,33,-51,18,-11,-52,-39,-1,0,0
-50,-10,40,29,-45,15,-7,-50,-41,-3,-3,0
-43,-10,33,27,-38,11,-5,-50,-39,2,-6,0
-34,-9,25,22,-29,7,-5,-46,-41,5,-10,0
-26,-6,20,15,-22,7,-5,-45,-47,8,-10,2
-11,-3,7,7,-9,2,-5,-45,-47,13,-6,5
-16,0,16,8,-16,8,-5,-40,-44,15,-3,5
-39,2,42,18,-41,22,-10,-39,-41,10,0,5
-33,6,39,13,-36,22,-10,-35,-38,10,2,5
-33,2,35,15,-34,18,-11,-34,-35,10,6,4
-44,-11,33,28,-38,10,-16,-28,-36,10,2,1
-41,-11,30,26,-35,9,-14,-35,-40,11,0,0
-33,-10,23,22,-28,7,-18,-55,-40,7,0,0
-47,-9,38,28,-42,14,-20,-55,-45,5,0,0
-52,-4,48,28,-50,22,-20,-55,-45,2,0,0
-46,-6,40,26,-43,17,-20,-55,-42,-1,0,3
-43,-2,42,23,-42,20,-20,-54,-39,-5,16,5
-35,0,34,17,-34,17,-20,-56,-41,-5,21,9
-37,1,38,18,-37,19,-14,-56,-38,0,13,10
-26,-2,25,14,-26,11,-12,-55,-48,-1,9,5
-38,-9,29,23,-33,10,-4,-55,-67,2,2,5
-50,5,55,22,-53,30,-18,-56,-63,4,-3,4
-42,7,49,17,-46,28,-38,-53,-60,7,-3,0
-42,0,43,21,-43,21,-30,-60,-58,0,5,0
-39,-1,39,20,-39,19,-29,-70,-54,-5,10,0
-38,-6,32,22,-34,12,-24,-64,-55,3,5,0
-32,-9,24,21,-28,7,-20,-58,-55,-6,5,0
-51,-13,38,32,-44,12,-18,-54,-55,-14,4,0
-63,-15,48,38,-55,16,-13,-45,-55,-10,0,0
-59,-15,44,36,-51,14,-10,-52,-55,-10,0,0
-61,-18,43,40,-52,12,-6,-65,-56,-8,-2,5
-61,-21,40,41,-50,10,-3,-65,-59,-5,-5,5
-58,-19,39,39,-48,10,1,-64,-60,-5,-8,5
-62,-16,46,39,-53,15,-13,-66,-60,-8,-11,5
-67,-13,54,40,-60,20,-26,-64,-60,-10,-15,5
-52,-10,42,31,-47,16,-25,-67,-60,-10,-15,2
-49,-8,41,28,-45,16,-25,-70,-58,-10,-11,0
-27,-4,23,15,-24,9,-25,-70,-55,-10,-8,0
-34,-10,24,21,-29,7,-25,-73,-55,-9,-6,-4
-82,-21,60,51,-71,19,-25,-75,-52,-6,-2,-6
-76,-13,63,44,-69,25,-18,-76,-49,-1,0,-5
-67,-3,64,34,-66,31,-10,-69,-51,1,2,2
-60,12,71,24,-66,41,-5,-55,-42,6,13,11
-36,32,68,2,-52,50,9,-42,-33,9,14,19
-29,43,72,-7,-51,57,13,-31,-19,15,22,30
-22,60,82,-19,-52,71,0,-13,7,48,37,40
-2,71,74,-35,-38,72,-5,4,9,51,35,40
6,67,61,-37,-28,64,-29,-29,-3,29,35,40
7,64,58,-36,-26,61,-67,-61,-12,25,36,40
15,61,46,-38,-15,53,-69,-59,-22,17,35,40
17,56,39,-37,-11,47,-62,-61,-33,10,35,40
13,39,26,-26,-7,33,-57,-63,-52,5,27,30
-21,3,25,9,-23,13,-48,-77,-68,-4,12,13
-51,-24,26,37,-39,1,-37,-70,-62,-5,5,5
-47,-29,18,38,-32,-5,-24,-63,-59,-16,-7,-3
-45,-20,25,33,-34,3,-20,-67,-57,-16,-5,0
-42,-30,13,36,-27,-8,-12,-48,-48,-26,-19,-10
-48,-13,35,30,-41,10,-12,-66,-55,-20,-6,-5
-40,-27,13,33,-27,-7,-3,-41,-52,-8,-10,-13
-50,-10,40,30,-45,15,-4,-73,-54,-4,7,10
-63,7,71,28,-67,39,40,30,64,78,74,39
42,30,-12,-36,27,9,64,235,253,264,250,191
571,200,-371,-385,471,-85,-139,511,634,719,768,711
865,94,-771,-479,818,-338,-251,755,853,769,695,669
352,9,-343,-180,347,-167,-245,14,220,186,100,125
46,113,67,-80,-11,90,-247,-506,-252,-98,-39,-10
29,36,7,-33,11,21,-107,-149,-119,-63,-55,-30
-14,6,20,4,-18,13,-26,-28,-53,-17,-44,-31
18,0,-18,-9,18,-9,-11,-15,-41,-12,-26,-18
-9,-17,-7,13,-1,-12,4,-13,-33,-18,-29,-22
-19,-29,-10,24,-4,-19,2,-14,-23,-6,-10,-7
-29,-39,-10,35,-9,-24,13,-2,-18,-12,-19,-9
-26,-27,-1,27,-12,-14,16,-8,-19,-11,-7,-3
-18,-27,-9,23,-4,-18,20,6,-12,-16,-11,-6
-31,-21,11,26,-21,-5,14,6,-12,-15,-4,-5
-20,-16,5,18,-12,-5,15,18,-8,-15,-6,-26
-19,-19,1,19,-10,-9,13,21,-6,-15,-11,-32
-27,-36,-9,31,-9,-22,10,30,-4,-14,-11,-25
-8,-37,-29,23,11,-33,10,30,-5,-11,-17,-25
4,-32,-36,14,20,-33,11,30,-5,-6,-10,-20
0,-30,-30,15,15,-30,6,28,-5,-4,-11,-20
2,-25,-28,12,16,-26,-5,34,-3,1,-27,-20
1,-23,-24,11,13,-23,3,62,7,4,-33,-20
0,-17,-18,8,9,-17,11,74,17,8,-30,-20
25,-12,-37,-6,31,-24,19,89,28,10,-29,-20
49,-9,-58,-20,54,-33,24,113,36,17,-24,-20
38,-4,-41,-17,40,-22,20,137,44,26,-21,-20
53,0,-52,-26,52,-26,18,163,51,28,-18,-20
95,7,-89,-51,92,-41,15,190,68,25,-13,-20
104,15,-89,-60,97,-37,11,211,81,25,-11,-20
97,23,-74,-59,85,-26,11,215,76,26,-5,-19
106,32,-74,-68,90,-21,4,205,74,23,5,-21
100,33,-67,-66,83,-17,-3,175,69,45,16,5
59,24,-35,-41,47,-5,-14,134,66,63,42,38
36,18,-18,-27,27,0,-17,85,61,68,66,44
9,10,1,-9,3,5,10,40,47,74,72,44
-24,2,26,11,-25,14,15,9,33,52,51,40
-18,-4,14,11,-15,5,4,-8,23,36,29,35
2,-13,-15,5,9,-13,1,-18,12,24,23,31
-1,-21,-20,11,10,-20,-10,-31,4,14,15,26
-19,-30,-11,25,-4,-21,-2,-32,-12,16,8,19
-25,-33,-8,29,-8,-20,13,-27,-27,13,0,13
-29,-29,-1,29,-14,-15,10,-24,-24,10,-4,11
-30,-27,3,28,-16,-12,10,-21,-20,10,5,7
-36,-24,12,29,-23,-6,8,-15,-17,10,15,5
-44,-21,23,32,-33,1,4,-18,-12,10,24,1
-39,-19,20,29,-30,1,5,-31,-9,10,25,0
-33,-16,17,24,-25,1,1,-29,-12,9,25,3
-29,-14,15,21,-22,0,-4,-26,0,11,25,7
-27,-16,11,21,-18,-2,-9,-24,13,7,25,10
-25,-14,11,20,-17,-1,-12,-19,8,24,44,14
-19,-16,3,17,-11,-6,-18,-22,6,40,56,14
-5,-12,-8,9,2,-10,-19,-28,2,30,50,1
-6,-8,-2,7,-2,-4,-14,-37,0,24,47,-2
-12,-4,9,8,-10,2,-9,-39,-2,18,42,6
-2,1,3,1,-3,2,-5,-35,-7,12,34,10
-16,-24,-7,20,-4,-15,0,-35,-10,8,27,17
-36,-38,-2,37,-17,-19,5,-32,-13,3,20,19
-46,-29,18,37,-32,-5,0,-30,-18,-1,12,15
-52,-26,26,39,-39,0,-2,-30,-20,-6,7,10
-41,-21,20,31,-30,-1,1,-36,-15,-9,10,8
-31,-16,15,23,-22,0,-1,-48,-15,-13,19,3
-27,-17,10,22,-18,-4,0,-50,-15,-16,14,0
-25,-22,3,23,-14,-9,-1,-50,-16,-19,-8,3
-28,-27,1,28,-14,-12,1,-50,-14,-23,-10,6
-35,-30,5,32,-20,-12,5,-50,-22,-25,-3,10
-34,-25,8,29,-21,-8,5,-55,-39,-25,1,9
-37,-25,11,31,-23,-7,5,-58,-40,-25,7,5
-39,-23,16,31,-27,-4,5,-63,-40,-25,13,3
-31,-20,10,25,-20,-5,5,-65,-40,-25,13,0
-21,-18,2,19,-12,-8,2,-65,-40,-30,6,-3
-23,-27,-4,25,-9,-16,-3,-65,-40,-30,-1,-5
-33,-42,-9,38,-12,-25,-4,-65,-40,-30,-7,-9
-42,-38,4,40,-23,-16,0,-65,-40,-30,-15,-10
-55,-35,19,45,-36,-8,0,-65,-40,-28,-19,-10
-54,-32,22,43,-38,-5,0,-65,-40,-22,-15,-10
-49,-30,20,39,-34,-5,0,-65,-40,-18,-10,-10
-48,-28,20,38,-34,-4,0,-64,-37,-13,-7,-9
-39,-18,20,28,-29,1,4,-66,-29,-9,-2,-3
-31,-12,19,21,-25,4,7,-62,-21,-5,5,0
-25,-2,22,14,-24,10,11,-53,-13,1,13,5
-20,4,23,8,-22,13,14,-43,-6,10,17,8
-25,17,42,4,-34,29,20,-32,5,18,32,18
-28,37,65,-5,-47,51,19,-31,22,25,45,32
-16,41,56,-13,-36,48,7,-28,27,37,46,30
-7,39,46,-17,-27,43,-12,-44,19,35,55,30
-5,35,40,-15,-23,37,-44,-70,3,19,49,28
17,28,10,-23,3,18,-56,-64,-9,8,40,24
27,19,-8,-23,17,5,-48,-64,-24,-3,30,25
18,-3,-21,-7,19,-12,-44,-75,-40,-23,26,22
-1,-22,-21,12,10,-21,-33,-85,-48,-43,20,8
-31,-47,-16,39,-7,-31,-9,-80,-44,-39,19,5
-38,-74,-36,56,-1,-54,7,-70,-44,-40,10,-11
-37,-65,-28,51,-5,-46,3,-74,-48,-38,6,-11
-40,-68,-29,54,-5,-48,7,-55,-40,-31,2,-11
-44,-58,-14,51,-15,-36,3,-67,-50,-41,-9,-10
-41,-60,-19,51,-11,-39,6,-40,-23,-28,-2,-2
-50,-53,-3,52,-23,-27,9,-57,-40,-37,-5,-12
-59,-48,12,53,-35,-18,60,15,57,55,54,21
2,-33,-36,16,19,-34,104,225,271,245,237,155
447,162,-285,-304,366,-61,-93,430,623,724,815,752
755,158,-597,-456,676,-219,-222,637,946,979,952,899
338,24,-314,-181,326,-144,-218,45,327,287,185,215
32,51,19,-42,6,35,-227,-509,-291,-168,-133,-34
-3,20,23,-9,-13,21,-97,-196,-128,-63,-38,-22
-41,-10,31,25,-35,10,-20,-27,-10,-10,-10,-14
-30,-50,-19,40,-5,-34,-1,-13,-1,20,15,21
-35,-74,-40,55,3,-57,36,-4,1,1,-8,-9
-19,-67,-48,44,14,-57,33,-9,2,3,6,1
-27,-72,-45,50,9,-58,32,7,12,-2,-5,-18
-27,-64,-37,46,6,-50,24,1,6,-9,-5,-20
-25,-65,-40,46,8,-52,22,14,7,-7,-4,-23
-37,-66,-29,52,-4,-47,16,16,3,-6,-11,-20
-44,-79,-35,62,-5,-57,16,27,6,-4,-12,-19
-27,-79,-52,53,13,-65,24,32,4,-4,-12,-18
-18,-73,-55,46,19,-64,25,39,5,1,-9,-13
-25,-72,-47,48,11,-59,32,45,9,-1,-11,-16
-17,-66,-49,42,16,-57,34,45,19,4,-9,-10
-26,-64,-38,45,7,-51,31,44,25,8,-10,-10
-17,-60,-43,38,13,-51,29,52,24,10,-22,-10
-5,-58,-53,32,24,-55,30,70,34,14,-27,-10
-3,-55,-51,29,25,-53,30,74,32,18,-21,-10
23,-52,-75,14,49,-63,30,91,46,21,-21,-13
34,-50,-84,8,59,-67,28,127,73,28,-24,-15
30,-47,-77,8,54,-62,20,146,79,31,-25,-15
41,-41,-82,0,62,-61,34,169,85,29,-25,-19
70,-37,-107,-16,89,-72,47,207,94,39,-25,-20
89,-32,-121,-28,106,-77,39,230,109,49,-26,-20
89,-27,-116,-31,103,-72,33,240,114,51,-21,-15
89,-24,-113,-32,102,-68,26,222,105,49,-7,-16
74,-11,-85,-31,80,-48,18,174,99,53,8,-9
44,-2,-46,-21,45,-24,10,126,89,68,25,25
9,5,-3,-7,6,1,5,89,84,63,51,43
-9,2,12,3,-11,7,5,51,65,55,69,39
-3,-28,-24,16,11,-26,5,10,28,50,62,34
-13,-49,-36,31,12,-42,5,-11,15,42,54,29
-24,-51,-26,38,1,-38,2,-23,9,38,46,23
-18,-50,-32,34,7,-41,6,-31,0,32,39,18
-22,-50,-28,36,3,-39,10,-31,0,26,35,12
-27,-51,-23,39,-2,-37,12,-32,-1,21,31,10
-45,-49,-5,47,-20,-27,16,-30,-4,23,28,10
-52,-61,-9,56,-21,-35,15,-30,-5,26,23,10
-31,-65,-34,48,2,-50,15,-31,-5,29,20,10
-19,-55,-36,37,9,-45,15,-28,-5,32,19,10
-21,-55,-34,38,7,-45,15,-36,-5,35,27,15
-20,-55,-35,38,8,-45,15,-45,-5,35,33,20
-19,-54,-35,37,8,-45,14,-39,-5,37,29,24
-51,-55,-5,53,-23,-30,9,-34,-5,40,30,29
-63,-54,8,58,-35,-23,5,-28,-1,40,30,34
-36,-50,-13,43,-11,-31,3,-22,0,36,30,33
-27,-43,-16,36,-5,-30,-2,-22,0,35,31,28
-26,-39,-13,32,-6,-25,-5,-26,5,35,34,25
-26,-33,-7,30,-9,-20,-2,-31,5,30,39,22
-22,-26,-4,25,-9,-15,1,-34,3,30,38,17
-30,-28,1,29,-15,-13,4,-39,0,29,34,14
-39,-34,5,36,-22,-14,7,-38,-3,25,29,11
-40,-40,0,40,-20,-20,9,-35,-5,25,27,10
-48,-51,-3,50,-22,-27,12,-35,-9,25,21,10
-43,-50,-7,47,-18,-28,15,-31,-10,25,21,10
-35,-45,-10,40,-12,-27,15,-30,-15,25,30,10
-30,-44,-14,38,-7,-29,15,-30,-24,29,23,12
-21,-39,-17,30,-2,-28,15,-39,-25,30,12,20
-22,-42,-20,32,-1,-31,15,-46,-25,30,-1,24
-32,-52,-20,42,-6,-35,12,-44,-25,30,-19,21
-35,-51,-15,43,-10,-32,9,-45,-25,30,-32,18
-34,-50,-15,43,-10,-32,10,-45,-25,30,-36,15
-37,-50,-14,44,-12,-32,10,-45,-29,30,-34,13
-40,-50,-10,45,-15,-30,10,-45,-30,30,-39,9
-41,-50,-10,45,-15,-30,9,-45,-30,30,-40,13
-37,-50,-12,44,-12,-31,4,-45,-30,30,-40,15
-35,-50,-15,43,-10,-32,1,-45,-30,30,-45,15
-32,-50,-18,41,-7,-34,-2,-45,-29,26,-45,15
-29,-50,-21,39,-4,-36,-7,-46,-25,25,-45,15
-26,-50,-24,38,-1,-36,-10,-50,-25,25,-45,15
-25,-51,-26,38,1,-38,-7,-50,-23,21,-45,10
-39,-58,-18,49,-10,-38,-3,-52,-20,20,-43,10
-37,-64,-26,51,-5,-45,-7,-55,-20,21,-39,10
-21,-62,-41,42,10,-51,1,-55,-25,26,-41,10
-16,-55,-39,36,12,-47,-1,-52,-33,28,-36,10
-13,-52,-39,32,14,-45,1,-46,-39,35,-35,12
-13,-47,-33,31,10,-40,9,-43,-36,34,-35,19
-6,-43,-37,25,16,-40,9,-38,-29,36,-30,23
-14,-37,-23,26,5,-30,25,-33,-23,37,-21,31
-32,-7,24,20,-28,8,8,-22,2,63,-3,33
-16,28,44,-6,-30,35,26,-9,24,84,19,44
3,38,36,-21,-17,37,-4,-1,29,85,28,57
-8,30,39,-12,-24,34,26,12,25,119,22,55
-4,22,26,-9,-15,23,-54,33,7,-20,19,55
21,15,-7,-18,14,4,-256,54,-7,-73,13,51
32,6,-26,-19,29,-10,-142,37,-22,19,10,49
29,-11,-39,-9,34,-25,-80,6,-38,10,16,51
45,-38,-83,-3,64,-60,-100,10,-30,27,23,57
107,-64,-171,-22,139,-117,-48,24,-15,8,29,64
