I,II,III,aVR,aVL,aVF,V1,V2,V3,V4,V5,V6
200,280,80,-240,60,180,365,522,1786,644,300,-224
209,287,78,-249,65,182,377,575,1826,706,332,-201
228,300,72,-264,78,186,391,654,1892,807,411,-159
248,316,68,-282,90,192,384,699,1984,881,466,-121
271,336,64,-304,103,200,377,737,1994,929,519,-79
295,353,58,-324,118,205,371,726,1967,936,534,-64
295,367,72,-331,111,220,349,674,1909,898,519,-57
262,379,117,-320,72,248,311,543,1743,777,476,-56
209,376,167,-292,21,271,270,366,1517,597,372,-100
174,365,191,-269,-9,278,231,220,1330,430,270,-148
159,349,190,-254,-15,269,204,108,1114,297,185,-200
136,326,190,-231,-27,258,198,49,976,209,122,-240
115,302,186,-209,-36,244,195,11,888,152,93,-252
101,286,184,-194,-42,235,191,-3,818,124,77,-266
94,279,185,-187,-46,232,187,-4,809,116,68,-264
93,272,180,-183,-44,226,184,-11,751,111,57,-261
85,266,180,-175,-48,223,185,-14,734,105,52,-258
81,259,178,-170,-49,219,185,-12,724,100,56,-255
79,253,175,-166,-48,214,185,-6,723,95,54,-254
74,250,175,-162,-50,212,185,-1,716,91,59,-248
78,250,173,-164,-47,211,185,2,695,88,60,-244
78,247,169,-163,-46,208,182,8,716,85,60,-239
74,244,170,-159,-48,207,179,9,703,82,65,-235
75,245,170,-160,-48,207,180,1,688,79,65,-230
72,241,169,-156,-49,205,176,-6,669,82,68,-226
68,239,171,-154,-51,205,175,-13,679,89,71,-221
74,235,162,-155,-45,198,174,-21,680,95,69,-216
65,234,169,-149,-52,201,170,-28,637,100,70,-212
48,229,181,-139,-67,205,166,-27,626,99,69,-208
51,231,179,-141,-64,205,164,-24,627,101,70,-203
50,236,186,-144,-68,211,160,-24,619,106,70,-196
50,232,182,-142,-67,207,155,-25,596,104,70,-188
53,258,205,-156,-76,232,157,-23,588,108,86,-180
54,293,239,-174,-93,266,153,-28,598,113,93,-172
70,305,235,-188,-83,270,153,-28,578,117,106,-165
79,317,238,-199,-80,278,130,-45,550,111,116,-155
66,329,263,-198,-99,296,87,-82,534,98,114,-145
72,305,233,-189,-81,269,71,-81,487,95,121,-134
79,254,175,-167,-48,214,84,-64,476,81,118,-121
78,230,151,-154,-37,190,95,-65,472,85,110,-129
60,195,135,-128,-37,165,110,-62,447,38,63,-165
37,158,121,-98,-42,139,132,-56,443,29,60,-173
33,149,116,-91,-42,132,128,-60,410,22,46,-170
31,137,107,-84,-38,122,148,-47,406,24,42,-169
36,134,98,-85,-31,116,135,-55,387,31,38,-156
20,120,99,-70,-40,109,156,-22,408,11,17,-171
23,124,101,-74,-39,112,171,-37,417,47,31,-188
-10,97,107,-44,-59,102,293,157,614,204,92,-166
144,191,47,-168,49,119,312,329,1014,1125,844,247
247,461,214,-354,16,338,-314,-769,96,606,786,427
-109,452,560,-172,-335,506,-702,-1966,-1514,-1384,-450,-114
-230,258,488,-15,-359,373,-526,-1590,-1496,-1442,-657,-333
-66,150,217,-42,-141,183,-284,-748,-610,-721,-350,-248
-13,88,101,-38,-57,94,-31,-309,-58,-330,-150,-209
-6,76,82,-35,-45,79,128,-52,284,-29,3,-149
-14,67,82,-27,-48,75,201,47,426,26,34,-153
-7,64,71,-29,-39,67,205,82,491,103,85,-137
-9,58,67,-25,-38,62,215,108,531,103,65,-136
-8,51,59,-22,-34,55,221,111,554,126,84,-127
-4,50,55,-23,-29,52,218,124,581,139,90,-120
2,49,48,-26,-23,48,224,139,602,156,111,-117
10,50,41,-30,-15,45,228,166,629,180,131,-105
15,50,34,-33,-9,42,236,197,654,205,134,-100
22,50,27,-36,-3,38,240,235,702,251,159,-84
28,51,22,-40,3,36,248,283,750,292,179,-73
38,54,16,-46,10,35,257,347,814,357,210,-53
76,57,-19,-66,47,19,267,430,900,424,252,-27
143,59,-84,-101,114,-12,265,494,991,496,288,-8
194,63,-131,-128,162,-33,258,566,1088,582,343,20
224,65,-159,-144,191,-47,255,635,1167,662,403,57
248,68,-181,-158,214,-56,247,665,1210,719,433,87
264,77,-187,-170,226,-55,244,678,1239,728,468,107
261,83,-178,-172,219,-47,232,642,1237,710,466,115
248,92,-156,-170,202,-32,197,540,1120,645,424,106
227,103,-124,-165,175,-10,152,384,929,485,346,75
180,89,-91,-134,135,-1,105,200,739,308,233,23
150,66,-83,-108,116,-8,70,58,547,162,135,-37
139,49,-90,-94,115,-20,52,-34,428,63,57,-88
107,14,-93,-61,100,-39,45,-98,360,-7,8,-123
80,-17,-98,-31,89,-57,37,-127,276,-62,-27,-147
73,-31,-104,-21,89,-67,29,-137,237,-87,-57,-163
69,-41,-110,-14,90,-75,23,-129,226,-100,-63,-165
59,-60,-118,1,89,-89,12,-137,211,-109,-79,-172
41,-85,-126,22,84,-105,5,-150,194,-125,-94,-183
21,-111,-132,46,77,-121,-6,-145,181,-134,-93,-187
-15,-155,-141,85,63,-148,-13,-169,169,-145,-111,-205
-53,-198,-145,126,46,-171,-26,-184,159,-158,-124,-221
-83,-228,-145,156,31,-186,-35,-184,167,-167,-131,-221
-105,-249,-144,178,20,-197,-35,-191,164,-184,-150,-225
-124,-270,-146,198,11,-208,-50,-193,162,-187,-150,-227
-143,-296,-153,220,5,-225,-58,-208,156,-189,-151,-230
-160,-317,-157,239,-1,-237,-61,-223,154,-194,-156,-230
-173,-333,-160,253,-7,-246,-66,-225,152,-194,-154,-230
-179,-342,-164,261,-7,-253,-72,-227,136,-198,-158,-240
-186,-350,-164,269,-11,-257,-83,-230,129,-202,-162,-241
-197,-354,-157,276,-20,-255,-89,-250,119,-207,-165,-239
-215,-367,-153,291,-31,-260,-95,-263,101,-210,-173,-241
-239,-386,-147,313,-46,-267,-97,-258,88,-206,-178,-239
-255,-397,-141,326,-57,-269,-103,-263,78,-202,-171,-241
-249,-386,-137,317,-56,-261,-104,-265,70,-201,-164,-237
-221,-349,-128,285,-46,-238,-106,-263,77,-196,-157,-228
-209,-326,-118,268,-45,-222,-111,-273,76,-196,-151,-217
-220,-322,-102,271,-59,-212,-108,-274,78,-195,-145,-209
-227,-322,-94,275,-67,-208,-150,-290,63,-207,-151,-204
-245,-313,-68,279,-88,-190,-185,-316,7,-221,-155,-198
-220,-324,-104,272,-58,-214,-182,-305,-18,-226,-155,-191
-187,-361,-175,274,-6,-268,-175,-287,15,-231,-150,-173
-213,-389,-176,301,-18,-283,-170,-290,27,-231,-157,-184
-239,-433,-194,336,-22,-313,-154,-285,-39,-271,-196,-227
-254,-462,-208,358,-23,-335,-131,-280,-48,-260,-190,-229
-263,-472,-208,367,-27,-339,-130,-284,-45,-291,-213,-237
-266,-479,-213,372,-26,-346,-115,-270,-48,-271,-200,-235
-264,-469,-205,367,-29,-336,-123,-282,-42,-281,-206,-232
-263,-484,-221,374,-20,-352,-100,-249,-40,-275,-213,-244
-307,-508,-200,408,-53,-354,-83,-249,-4,-225,-224,-253
-290,-518,-228,404,-31,-373,71,20,287,29,-72,-193
-62,-362,-301,212,120,-332,30,118,608,923,701,249
-77,-122,-44,99,-16,-83,-623,-1142,-531,24,361,293
-455,-158,298,306,-376,70,-936,-2224,-2037,-1798,-824,-259
-513,-318,195,416,-354,-62,-749,-1718,-1837,-1591,-850,-388
-329,-419,-90,374,-119,-254,-515,-897,-1006,-939,-555,-316
-260,-467,-208,364,-26,-337,-266,-474,-471,-537,-350,-275
-239,-465,-226,353,-6,-346,-136,-242,-152,-284,-227,-219
-239,-464,-225,352,-7,-344,-74,-148,-19,-227,-201,-217
-232,-456,-224,344,-3,-340,-59,-114,69,-155,-138,-195
-226,-451,-226,339,0,-338,-50,-102,112,-151,-142,-193
-222,-446,-224,335,1,-335,-41,-89,123,-105,-118,-178
-214,-440,-226,328,7,-333,-35,-56,128,-97,-116,-170
-204,-435,-231,320,14,-332,-26,-28,168,-73,-108,-162
-194,-430,-236,312,21,-332,-19,4,200,-45,-97,-152
-185,-424,-239,305,27,-331,-9,39,224,-7,-62,-144
-174,-418,-244,296,35,-331,-2,84,260,43,-32,-129
-163,-414,-251,289,44,-332,11,140,313,86,-9,-115
-142,-402,-259,272,59,-330,25,190,399,140,28,-102
-115,-391,-276,253,81,-333,39,254,479,215,69,-80
-80,-377,-297,229,109,-336,54,333,585,311,133,-41
-50,-358,-308,204,129,-332,68,413,680,402,190,-1
-21,-337,-316,179,147,-326,73,494,777,483,253,45
4,-318,-323,157,164,-320,67,533,838,545,301,81
15,-304,-320,145,168,-312,61,534,849,571,334,110
36,-273,-309,119,173,-291,56,509,861,548,341,129
10,-257,-267,124,138,-262,36,411,745,474,299,119
-54,-260,-206,157,76,-233,4,262,563,339,223,87
-89,-260,-170,175,41,-215,-35,110,403,176,128,44
-114,-260,-147,187,17,-203,-63,-13,226,38,42,-11
-134,-268,-134,201,0,-201,-70,-90,128,-56,-29,-71
-145,-281,-135,214,-5,-208,-70,-133,79,-118,-85,-96
-154,-289,-134,222,-9,-212,-72,-153,-8,-152,-112,-104
-167,-303,-135,235,-16,-219,-75,-165,-34,-166,-123,-111
-167,-301,-135,235,-16,-218,-76,-165,-27,-172,-128,-109
-158,-294,-135,226,-11,-214,-72,-164,-43,-170,-124,-110
-151,-290,-140,220,-5,-215,-66,-165,-47,-170,-125,-110
-143,-282,-140,213,-1,-211,-61,-165,-47,-168,-125,-110
-139,-280,-141,210,1,-211,-56,-163,-46,-164,-125,-109
-135,-280,-145,207,5,-212,-49,-157,-44,-165,-125,-104
-135,-280,-145,208,5,-212,-46,-152,-31,-162,-120,-99
-137,-280,-143,209,3,-211,-49,-149,-26,-158,-115,-95
-142,-280,-137,211,-2,-208,-50,-143,-27,-154,-110,-90
-148,-281,-132,215,-8,-206,-50,-141,-28,-151,-106,-86
-144,-273,-128,209,-8,-201,-50,-144,-41,-146,-101,-81
-134,-258,-124,196,-5,-190,-51,-146,-59,-146,-100,-80
-126,-245,-119,186,-3,-182,-47,-144,-42,-150,-100,-80
-117,-237,-120,177,2,-178,-45,-150,-41,-150,-100,-75
-111,-231,-120,171,5,-175,-45,-160,-65,-150,-100,-75
-104,-224,-120,164,8,-172,-41,-160,-92,-150,-100,-74
-97,-218,-120,157,12,-169,-40,-160,-122,-150,-100,-68
-91,-211,-120,151,14,-165,-40,-159,-135,-146,-95,-60
-86,-204,-118,145,16,-161,-45,-159,-162,-141,-91,-55
-93,-189,-96,141,2,-142,-44,-160,-156,-135,-88,-47
-76,-156,-80,116,2,-118,-46,-164,-154,-133,-84,-41
-63,-125,-63,94,0,-94,-43,-166,-145,-127,-81,-51
-54,-109,-54,82,0,-81,-53,-166,-139,-124,-79,-46
-50,-98,-47,74,-1,-72,-97,-195,-194,-144,-82,-32
-51,-96,-45,74,-3,-70,-110,-193,-217,-149,-77,-23
6,-110,-116,52,62,-113,-98,-169,-221,-149,-83,-14
11,-141,-152,66,82,-146,-90,-175,-218,-145,-78,-14
-38,-180,-142,109,52,-160,-81,-179,-232,-190,-106,-47
-56,-201,-145,129,44,-173,-53,-170,-224,-191,-119,-67
-56,-217,-161,137,53,-189,-50,-180,-223,-189,-117,-64
-42,-234,-191,138,75,-212,-39,-163,-231,-222,-150,-75
-37,-227,-191,132,77,-209,-52,-177,-229,-200,-147,-64
-43,-231,-188,137,72,-209,-33,-156,-233,-243,-170,-76
-47,-238,-191,143,72,-215,-3,-120,-190,-162,-136,-84
-80,-255,-175,168,48,-215,75,0,-73,-118,-139,-93
56,-175,-231,60,144,-203,211,319,390,691,490,233
222,92,-130,-157,176,-19,-274,-439,-83,783,823,562
-77,159,236,-42,-157,197,-815,-1894,-1800,-1224,-343,122
-296,-28,268,162,-282,120,-743,-1909,-2277,-1824,-875,-225
-157,-152,5,155,-81,-74,-522,-1032,-1461,-1078,-563,-159
-56,-188,-131,122,38,-159,-258,-478,-784,-640,-359,-120
-22,-202,-180,112,79,-191,-76,-168,-382,-276,-177,-67
-23,-203,-180,113,78,-191,1,-31,-172,-184,-144,-66
2,-171,-173,85,87,-171,33,0,-54,-94,-100,-52
8,-162,-171,77,90,-166,49,29,-5,-78,-85,-42
-2,-166,-164,84,81,-164,65,63,54,-66,-64,-34
-2,-163,-161,83,80,-162,68,86,102,-42,-49,-20
2,-161,-163,80,82,-162,82,110,138,-23,-47,-18
11,-154,-166,72,89,-160,87,144,215,27,-25,-7
15,-152,-166,69,91,-159,95,172,255,49,-19,-3
25,-146,-171,61,98,-158,105,212,303,91,4,19
29,-141,-170,56,100,-155,117,266,385,139,39,33
53,-124,-177,36,115,-150,131,323,465,196,71,50
73,-108,-181,18,127,-144,139,388,565,271,112,75
97,-95,-192,-1,145,-143,156,475,673,359,162,94
138,-82,-219,-28,179,-150,178,569,797,457,222,136
158,-73,-231,-42,194,-152,177,654,906,544,275,173
184,-51,-234,-66,209,-142,169,724,982,615,332,211
213,-20,-233,-96,224,-126,163,749,1049,655,377,248
228,6,-222,-118,225,-107,155,744,1071,652,376,262
219,33,-186,-126,202,-76,151,672,990,606,362,268
185,46,-138,-115,161,-46,122,504,827,481,305,246
138,45,-93,-91,115,-24,80,326,661,320,213,204
90,41,-49,-65,69,-4,50,175,447,169,115,151
74,40,-34,-57,54,3,33,65,302,52,37,107
64,28,-36,-45,49,-4,29,6,236,-23,-15,83
43,9,-35,-25,38,-13,24,-32,159,-76,-61,47
36,1,-35,-18,35,-17,18,-41,136,-97,-77,26
30,-6,-35,-11,33,-20,12,-54,109,-107,-86,24
20,-13,-33,-3,27,-22,12,-55,115,-116,-103,21
9,-19,-28,5,18,-23,17,-47,128,-114,-105,19
8,-15,-22,4,15,-18,20,-76,100,-116,-107,14
10,-9,-19,-1,15,-14,23,-77,124,-113,-111,17
11,-2,-13,-4,12,-8,28,-68,154,-108,-109,18
13,2,-11,-7,11,-4,30,-66,116,-102,-103,30
25,11,-14,-18,19,-1,25,-56,130,-99,-96,42
49,32,-17,-40,33,8,25,-58,165,-94,-90,39
56,36,-20,-46,37,8,25,-58,152,-90,-82,40
56,34,-22,-45,39,6,24,-65,156,-99,-84,40
62,36,-26,-48,44,5,26,-63,155,-101,-85,40
56,34,-21,-45,38,6,22,-73,153,-100,-85,36
50,35,-15,-43,32,10,20,-96,139,-100,-90,29
41,37,-5,-39,23,16,20,-114,129,-100,-90,22
41,42,1,-42,20,21,20,-141,133,-100,-89,17
34,45,11,-40,11,28,20,-147,124,-93,-85,7
36,49,13,-43,11,31,20,-142,113,-85,-85,8
52,56,4,-55,24,30,26,-146,113,-79,-83,33
29,78,49,-54,-10,63,23,-142,101,-72,-79,36
42,129,88,-86,-23,109,36,-118,109,-66,-80,34
51,156,106,-104,-28,131,34,-102,105,-69,-76,34
63,176,113,-120,-25,144,-11,-106,99,-76,-74,54
81,213,131,-147,-25,172,-44,-130,90,-81,-72,69
85,217,132,-151,-24,174,-44,-137,27,-65,-67,62
87,164,78,-126,4,121,-24,-97,56,-56,-66,81
38,93,55,-65,-9,73,-10,-107,51,-77,-69,73
19,53,35,-36,-8,44,-6,-122,-27,-138,-106,27
23,35,12,-29,5,24,12,-103,-28,-128,-115,22
18,32,14,-25,2,23,11,-103,-11,-125,-146,18
22,22,0,-22,10,11,27,-71,18,-129,-162,7
21,24,2,-22,9,13,17,-72,18,-97,-143,11
19,8,-11,-12,15,-2,43,-26,29,-141,-174,-9
39,21,-18,-30,29,1,71,-5,58,-70,-128,-6
3,14,12,-9,-5,13,158,125,201,4,-115,-15
127,62,-65,-94,96,-2,218,334,605,920,588,355
276,349,73,-313,101,210,-368,-678,-102,807,803,639
-55,394,450,-170,-253,422,-875,-2079,-1861,-1318,-447,147
-234,197,431,18,-333,314,-730,-1830,-2079,-1679,-815,-132
-45,104,149,-30,-97,127,-461,-877,-1140,-887,-488,-66
20,36,16,-28,2,25,-188,-361,-538,-489,-319,-57
16,-1,-16,-7,16,-8,-5,-67,-150,-156,-148,-13
36,13,-23,-24,29,-5,73,67,24,-80,-122,-18
71,58,-14,-64,42,22,96,95,115,-3,-66,-4
71,62,-9,-66,40,27,110,106,164,4,-88,-3
56,57,1,-56,27,29,112,133,180,46,-65,10
51,63,11,-57,20,37,105,158,202,54,-46,34
61,57,-4,-59,33,26,127,194,222,74,-45,32
82,62,-20,-72,51,21,141,237,253,114,-26,43
85,48,-37,-67,61,5,141,255,270,122,-22,44
100,45,-55,-72,77,-5,138,294,325,164,-12,49
130,76,-54,-103,92,11,148,339,386,212,20,71
140,85,-56,-112,98,14,165,409,481,285,83,87
150,94,-56,-121,102,19,185,493,588,365,117,109
185,109,-75,-147,130,17,211,592,685,456,152,131
189,101,-89,-145,138,6,229,700,780,556,202,158
212,130,-83,-171,147,23,247,790,881,653,273,209
275,170,-105,-222,189,32,248,853,968,717,314,241
275,163,-112,-219,194,25,234,857,977,739,334,258
286,186,-101,-236,194,42,232,853,1006,749,362,278
276,207,-69,-241,172,69,198,768,923,696,333,288
217,212,-5,-214,111,103,144,575,714,564,271,265
190,236,46,-213,72,141,108,382,527,398,189,204
163,231,68,-197,47,149,70,207,327,235,87,158
142,218,76,-180,33,146,45,103,188,128,22,130
84,168,83,-126,0,125,45,45,119,55,-34,88
42,140,98,-91,-28,118,45,-2,72,9,-69,70
45,149,104,-97,-30,127,40,-11,-12,-12,-81,69
44,139,95,-92,-26,117,40,-21,-50,-29,-93,65
45,140,95,-93,-25,117,38,-29,-43,-41,-96,63
38,133,95,-86,-29,114,35,-25,-77,-40,-116,59
37,131,94,-85,-29,112,35,-19,-58,-33,-111,62
34,130,95,-82,-31,112,33,-14,-29,-29,-100,65
54,149,94,-102,-20,121,30,-9,-54,-23,-88,68
76,173,96,-125,-10,134,29,-1,-77,-18,-95,71
68,169,100,-119,-16,135,47,-9,-46,-13,-122,74
68,167,99,-117,-16,133,57,-17,-39,-9,-116,75
62,164,103,-113,-21,133,49,-15,-40,-6,-110,70
60,165,105,-113,-23,135,51,-16,8,-3,-108,70
60,165,105,-113,-23,135,48,-15,-24,1,-97,69
54,165,110,-110,-28,137,45,-20,-37,13,-77,64
58,165,108,-112,-26,136,45,-25,-30,10,-77,66
62,164,103,-113,-21,133,47,-26,-46,1,-82,62
68,165,98,-117,-15,131,51,-24,-45,-4,-78,62
62,157,95,-110,-17,126,49,-26,-77,-15,-77,84
64,150,86,-107,-12,118,54,-23,-71,-16,-73,84
53,153,100,-103,-24,126,55,-25,-81,-12,-76,76
60,207,147,-134,-43,177,55,-17,-63,16,-60,105
70,243,173,-157,-52,208,70,-17,-31,32,-53,100
83,263,180,-173,-49,221,58,-28,-50,49,-37,94
116,301,185,-209,-34,243,13,-30,-73,48,-33,131
62,275,213,-169,-75,243,-31,-89,-120,-7,-68,136
80,264,184,-172,-53,224,-49,-105,-107,7,-53,126
114,241,127,-178,-7,184,-29,-53,-124,19,-37,116
72,191,119,-132,-24,154,-12,-58,-150,14,-46,110
70,164,95,-117,-13,129,3,-67,-154,-29,-84,95
67,144,77,-106,-5,110,19,-66,-168,-32,-97,88
54,131,78,-93,-12,104,15,-63,-167,-50,-114,74
55,123,68,-89,-7,95,41,-45,-161,-48,-111,73
57,125,68,-92,-5,96,26,-58,-150,-39,-118,64
55,116,61,-86,-3,88,57,3,-146,-49,-123,55
59,122,63,-90,-3,92,79,7,-99,3,-119,56
14,104,90,-59,-39,97,204,227,178,209,-20,75
190,212,21,-201,84,116,183,298,528,1217,798,522
275,482,207,-379,34,344,-511,-1068,-547,543,638,651
-66,523,589,-228,-328,555,-850,-2264,-2199,-1491,-585,140
-176,309,485,-66,-331,396,-647,-1684,-2054,-1418,-710,-34
-37,152,189,-58,-114,170,-425,-764,-1165,-734,-470,-24
53,132,79,-92,-14,106,-130,-280,-596,-347,-271,-9
84,130,46,-107,19,87,25,-18,-245,-64,-126,46
66,130,64,-99,1,97,87,88,-100,-14,-134,55
77,149,72,-113,3,111,98,135,15,65,-79,64
84,150,66,-117,9,107,115,151,46,65,-81,72
86,150,64,-119,11,107,134,175,91,118,-52,80
91,150,59,-120,16,104,129,188,82,110,-49,75
94,150,56,-123,19,103,138,220,101,130,-39,67
96,149,53,-123,22,100,136,257,161,177,-22,76
97,144,47,-121,24,96,144,281,180,209,-6,115
103,146,43,-125,29,94,158,334,247,247,1,114
102,142,40,-122,31,90,177,397,313,295,36,127
117,141,24,-129,47,82,188,476,408,357,86,142
138,138,0,-138,69,68,201,560,498,419,116,151
199,163,-36,-181,117,63,222,659,611,514,166,184
244,195,-49,-220,147,73,240,764,735,596,211,204
252,197,-55,-224,153,71,247,845,833,669,268,244
286,223,-63,-255,174,80,246,907,910,745,309,276
276,218,-58,-247,167,79,244,920,938,764,332,290
320,263,-56,-291,188,103,248,908,972,767,346,308
342,333,-9,-337,175,162,224,802,879,720,309,322
229,282,53,-256,88,167,160,579,673,557,251,313
164,278,114,-221,24,195,113,383,473,407,183,263
144,291,148,-218,-2,219,90,221,300,272,93,205
118,264,146,-191,-14,205,82,111,157,154,18,158
102,257,155,-180,-27,206,76,60,36,94,-30,130
89,243,154,-167,-33,199,68,20,-15,49,-50,120
81,237,155,-159,-37,196,60,9,-37,35,-62,110
80,234,155,-157,-38,194,56,8,-54,29,-85,103
80,235,155,-158,-38,195,60,4,-58,26,-86,99
82,235,153,-159,-36,194,60,2,-66,26,-84,94
84,234,150,-159,-34,192,60,-1,-69,-5,-86,90
89,237,148,-163,-30,192,60,4,-67,-3,-85,85
96,239,144,-168,-24,191,59,8,-73,27,-85,88
74,241,166,-158,-46,203,65,13,-65,32,-81,97
61,239,178,-150,-59,208,73,14,-53,35,-79,101
68,241,173,-155,-52,206,69,9,-55,35,-75,100
61,238,177,-150,-58,207,65,10,-40,34,-73,100
70,243,173,-157,-52,208,63,7,-49,35,-69,100
77,253,176,-165,-50,214,58,4,-63,34,-73,99
94,259,165,-177,-36,212,55,5,-2,30,-76,108
124,277,153,-201,-15,215,51,1,2,30,-75,112
91,282,191,-186,-50,236,49,-6,-48,29,-75,110
76,278,202,-177,-63,240,50,-10,-28,24,-75,109
83,281,198,-182,-58,240,50,-15,-11,26,-75,110
77,278,201,-178,-62,239,50,-22,-5,27,-66,110
85,284,199,-185,-57,242,52,-23,-3,42,-53,110
72,311,239,-192,-83,275,70,-19,-4,64,-42,121
79,333,255,-206,-88,294,83,-9,43,70,-35,126
124,361,237,-243,-57,299,46,-24,54,70,-26,140
109,378,269,-244,-80,323,-6,-60,30,59,-23,162
76,371,295,-224,-110,332,-24,-66,4,62,-13,173
132,357,225,-245,-47,291,-18,-51,-6,50,-17,172
142,316,174,-229,-17,245,-4,-41,-12,52,-12,168
83,264,181,-174,-49,222,-3,-50,-86,27,-26,144
54,223,169,-139,-58,196,22,-40,-114,-16,-63,110
53,219,166,-136,-57,192,30,-51,-93,-18,-60,111
54,223,169,-139,-58,196,37,-40,-100,-51,-74,107
57,226,169,-142,-56,197,35,-46,-123,-15,-53,114
59,231,172,-145,-57,201,31,-36,-139,-60,-79,104
59,225,166,-142,-54,195,69,-5,-133,-5,-64,111
46,224,178,-135,-66,200,102,35,-80,4,-97,74
120,230,110,-175,5,170,288,408,378,676,370,283
327,449,122,-388,102,285,-60,-110,264,1268,969,709
132,666,534,-399,-202,600,-761,-1772,-1431,-505,59,457
-220,550,771,-165,-496,660,-805,-2193,-2411,-1659,-736,43
-114,367,481,-127,-298,424,-566,-1244,-1689,-1008,-513,28
34,280,245,-157,-106,263,-281,-509,-935,-542,-314,37
80,261,181,-170,-51,220,-37,-138,-510,-166,-132,78
110,257,147,-184,-19,201,80,58,-278,-34,-89,100
67,240,173,-154,-53,206,112,82,-183,19,-63,99
77,249,172,-163,-48,210,99,122,-101,53,-45,101
102,242,140,-172,-19,191,116,144,-85,57,-45,99
112,245,133,-179,-11,189,115,143,-102,87,-26,98
75,248,173,-162,-49,210,139,198,-73,115,-15,115
43,235,192,-139,-74,213,137,226,-30,151,9,122
107,266,159,-187,-26,212,137,241,3,159,35,140
8,163,155,-86,-74,159,124,252,11,178,30,163
61,213,152,-137,-46,183,138,301,68,225,46,161
186,334,148,-260,18,241,176,376,160,294,93,169
140,284,144,-212,-2,213,162,430,219,333,108,165
230,317,87,-274,71,202,191,557,368,428,187,204
172,228,55,-200,58,141,170,622,415,488,212,201
209,265,56,-237,76,160,213,705,481,568,273,242
285,336,52,-311,116,194,269,826,581,677,371,327
277,320,43,-299,117,181,215,813,574,685,366,327
291,330,38,-311,126,184,199,807,603,694,349,314
278,353,75,-316,101,214,199,761,552,677,354,326
182,295,113,-238,34,204,123,593,398,553,303,295
23,195,172,-109,-75,183,61,418,155,401,207,226
181,440,258,-311,-39,349,141,294,15,315,211,270
221,500,278,-361,-29,389,88,160,-107,203,146,244
110,383,273,-247,-81,327,6,39,-306,62,23,146
-17,270,287,-127,-153,279,7,-11,-429,-12,-32,134
10,288,278,-149,-135,283,18,-32,-481,-12,-60,139
154,415,262,-285,-55,338,65,-26,-479,-3,-42,127
57,303,246,-180,-95,274,48,-23,-559,-41,-41,95
36,290,254,-163,-109,272,41,-18,-589,-59,-33,104
8,297,289,-153,-141,293,32,-14,-546,-58,-22,103
-67,218,286,-76,-177,252,34,-52,-574,-82,-65,112
-51,223,274,-86,-163,248,13,-72,-571,-83,-81,110
91,351,261,-221,-85,306,28,-10,-528,-26,-9,125
168,424,257,-296,-45,340,87,45,-491,22,44,185
67,354,286,-211,-110,320,54,18,-511,-1,18,147
58,345,287,-202,-114,316,43,-2,-561,-42,3,119
78,356,278,-218,-100,317,45,0,-578,-43,13,129
75,352,277,-214,-101,314,37,-6,-567,-34,28,122
91,357,266,-224,-88,311,39,-8,-564,-31,38,131
72,343,271,-208,-100,307,33,-10,-613,-30,26,129
55,336,280,-196,-113,308,40,-14,-636,-27,17,131
45,326,280,-185,-118,303,40,-31,-648,-40,18,127
48,324,276,-186,-114,300,41,-30,-676,-46,24,124
78,352,274,-215,-98,312,45,-24,-714,-41,28,125
89,367,279,-228,-95,323,45,-20,-729,-38,33,128
101,395,294,-248,-97,344,45,-17,-708,-36,37,134
111,443,332,-278,-110,387,46,-9,-737,-35,44,136
92,439,348,-266,-128,393,29,-19,-775,-28,55,154
112,457,345,-285,-117,401,-21,-68,-823,-57,60,168
131,473,342,-302,-105,407,-46,-76,-838,-64,68,173
139,432,293,-286,-78,362,-32,-51,-843,-71,71,174
145,385,241,-265,-48,313,-22,-55,-863,-68,75,161
124,335,212,-230,-44,273,-19,-81,-901,-89,27,132
105,299,195,-202,-45,247,12,-65,-942,-106,-1,114
67,252,185,-160,-59,218,6,-69,-954,-110,-7,101
68,224,156,-146,-44,190,13,-59,-1000,-156,-40,82
114,251,137,-183,-11,193,20,-55,-993,-114,-14,85
92,225,133,-159,-21,179,11,-66,-1022,-162,-52,58
61,199,138,-130,-39,168,33,-28,-997,-92,-24,77
91,211,121,-152,-15,166,88,55,-893,-67,-60,39
197,222,25,-210,86,123,279,432,-448,695,487,280
368,483,115,-426,126,299,-112,-46,-633,1064,988,689
156,673,517,-415,-181,595,-787,-1553,-2375,-929,-104,332
-143,530,674,-194,-409,602,-785,-1846,-3123,-1804,-772,-80
-18,375,392,-178,-205,383,-538,-1012,-2338,-1048,-487,-66
94,264,170,-179,-39,217,-277,-439,-1693,-623,-295,-40
115,225,111,-171,2,168,-73,-136,-1269,-249,-103,13
138,211,73,-175,32,142,7,13,-1072,-143,-79,18
136,202,66,-169,34,134,48,51,-980,-80,-34,44
141,199,58,-170,41,129,59,93,-865,-44,-8,54
134,187,53,-161,41,119,64,116,-831,-14,2,46
138,184,46,-161,46,114,58,126,-837,19,19,53
143,183,40,-163,51,111,78,148,-815,26,25,63
169,198,30,-184,69,114,86,168,-756,68,53,82
202,206,4,-204,99,104,85,196,-717,85,54,75
198,204,7,-201,95,105,90,222,-688,133,80,91
200,205,5,-203,97,105,108,256,-632,174,114,110
233,204,-29,-219,130,88,126,310,-557,225,144,124
241,205,-36,-223,138,84,130,371,-447,304,186,152
246,209,-37,-227,141,85,144,446,-360,391,243,184
278,210,-68,-244,173,71,155,519,-280,483,307,213
306,234,-72,-270,189,81,165,586,-159,570,361,247
322,256,-66,-288,194,94,167,642,-78,630,406,273
319,256,-63,-287,191,96,154,677,-56,664,447,297
327,269,-57,-298,192,106,146,681,-27,681,462,325
343,290,-53,-316,197,118,134,613,-46,641,446,327
304,315,11,-310,146,163,101,485,-175,513,392,305
260,320,60,-290,100,189,63,321,-337,344,291,255
215,304,89,-260,63,196,38,172,-510,189,202,199
174,290,115,-232,29,202,27,97,-622,79,136,148
160,266,105,-213,27,185,23,49,-714,-5,65,98
156,261,105,-209,25,183,17,20,-802,-80,18,65
148,248,101,-198,24,174,11,12,-804,-100,-5,59
129,224,96,-177,16,160,6,3,-826,-92,-15,61
130,225,94,-178,18,159,8,-2,-803,-97,-24,60
136,225,89,-181,23,156,11,-9,-759,-110,-36,59
138,225,86,-182,26,155,14,-16,-768,-117,-31,62
143,225,82,-184,30,153,17,-20,-736,-114,-17,53
147,225,78,-186,34,151,20,-20,-727,-112,3,64
146,222,76,-184,35,148,20,-20,-733,-110,13,86
145,216,70,-181,37,143,20,-20,-720,-110,7,77
147,213,66,-180,40,139,20,-20,-690,-106,6,71
148,207,59,-178,44,133,20,-20,-673,-104,3,63
148,204,56,-176,46,130,20,-16,-696,-100,-2,65
151,199,47,-175,52,123,20,-15,-670,-98,8,75
152,196,44,-174,53,120,20,-15,-659,-93,17,68
128,192,65,-160,31,128,20,-15,-645,-104,11,63
115,188,73,-152,21,131,20,-14,-584,-117,10,58
125,185,60,-155,32,123,20,-17,-514,-109,7,51
130,186,56,-158,37,120,20,-35,-455,-105,4,56
127,213,85,-170,21,149,20,-35,-425,-99,11,70
135,242,107,-189,14,174,10,-29,-379,-92,24,76
133,271,138,-202,-3,204,4,-46,-353,-92,32,82
120,286,166,-203,-24,226,-14,-74,-334,-96,29,89
122,293,171,-207,-24,232,-57,-112,-352,-124,18,92
136,291,155,-213,-10,223,-70,-115,-367,-124,18,96
151,252,101,-202,24,177,-61,-83,-347,-116,3,84
135,216,81,-176,27,148,-53,-78,-380,-125,5,76
88,165,77,-127,5,121,-49,-84,-369,-172,-9,65
81,117,36,-99,23,76,-31,-71,-343,-179,-17,56
109,112,3,-110,53,57,-27,-81,-362,-176,-27,51
112,99,-13,-105,62,43,-8,-68,-363,-197,-46,37
112,100,-12,-106,62,44,-6,-83,-382,-165,-18,40
107,81,-26,-94,66,28,9,-62,-383,-214,-53,12
104,78,-25,-91,64,26,24,-38,-352,-130,-13,23
55,53,-2,-54,28,25,98,52,-236,-87,-40,-8
157,73,-84,-114,120,-6,263,400,238,689,523,276
321,366,45,-343,137,205,-185,-198,-152,847,897,635
69,506,436,-288,-184,471,-773,-1551,-1830,-1144,-253,195
-150,336,487,-93,-319,411,-716,-1671,-2344,-1797,-816,-175
-53,171,224,-59,-139,197,-479,-901,-1573,-1045,-501,-106
26,83,57,-55,-16,69,-254,-406,-971,-639,-314,-76
91,71,-19,-81,55,26,-79,-150,-587,-272,-114,-19
140,69,-71,-104,106,-1,18,-8,-408,-167,-60,-11
145,69,-76,-107,111,-3,55,38,-289,-92,-21,6
127,53,-74,-90,101,-10,57,63,-259,-67,-16,19
106,34,-72,-70,89,-19,70,83,-266,-46,-7,11
100,31,-69,-65,84,-19,74,95,-220,-8,15,28
91,21,-71,-56,81,-25,76,111,-200,5,27,41
94,17,-77,-56,85,-29,76,131,-158,37,42,47
95,7,-87,-51,91,-40,84,156,-126,67,61,49
99,8,-91,-54,95,-41,99,195,-102,121,93,53
129,35,-94,-82,111,-30,109,233,-65,169,111,72
168,48,-120,-108,144,-35,115,275,24,233,145,89
185,49,-136,-117,161,-43,142,337,114,315,197,112
194,55,-139,-125,166,-42,158,423,215,407,255,139
221,58,-163,-139,192,-52,165,498,331,503,320,170
233,60,-174,-146,203,-57,182,562,435,601,390,221
245,80,-166,-162,205,-43,189,619,537,679,446,259
254,93,-161,-173,208,-34,180,615,581,717,473,281
251,95,-155,-173,203,-30,168,600,609,721,472,279
245,113,-132,-178,188,-9,141,561,555,661,450,262
226,135,-91,-180,159,22,104,434,386,517,378,250
185,139,-45,-162,115,47,71,282,215,337,275,204
145,122,-24,-133,84,49,48,148,21,177,172,134
130,106,-25,-118,77,40,32,56,-95,59,90,83
107,88,-19,-98,63,34,17,-1,-170,-11,35,53
95,73,-22,-84,58,25,14,-37,-258,-60,1,32
111,78,-33,-94,71,22,12,-48,-249,-94,-8,22
107,65,-42,-85,74,11,9,-54,-280,-96,-25,16
78,25,-53,-52,66,-14,6,-52,-281,-94,-52,9
74,14,-60,-44,67,-22,5,-46,-241,-101,-55,2
89,30,-60,-60,74,-15,10,-42,-244,-98,-46,-4
93,32,-61,-63,77,-14,15,-38,-228,-103,-45,-2
86,21,-65,-53,76,-22,18,-32,-234,-105,-38,1
107,42,-65,-74,86,-11,26,-30,-210,-80,-36,0
113,48,-65,-80,88,-8,32,-30,-210,-67,-41,0
100,35,-65,-67,82,-15,28,-31,-207,-65,-38,-1
110,46,-64,-78,87,-9,25,-30,-199,-58,-32,1
102,36,-66,-68,83,-15,23,-31,-210,-56,-29,5
97,33,-64,-64,80,-15,19,-30,-180,-49,-24,7
94,27,-66,-60,79,-19,23,-27,-177,-48,-20,10
81,17,-64,-49,72,-23,25,-19,-161,-38,-16,13
115,47,-68,-81,92,-10,26,-13,-181,-37,-10,15
116,34,-81,-75,98,-23,24,-48,-182,-61,-5,18
90,38,-52,-63,71,-7,26,-62,-128,-49,-2,22
119,96,-23,-107,70,37,14,-59,-126,-37,6,27
127,112,-15,-120,71,48,5,-68,-147,-43,-5,29
118,119,2,-119,58,60,-15,-61,-145,-34,-14,35
115,138,23,-127,46,81,-62,-96,-173,-59,-5,36
139,137,-2,-138,70,68,-73,-101,-200,-67,4,44
158,99,-59,-129,108,20,-56,-70,-172,-53,10,50
116,52,-63,-84,89,-5,-36,-69,-175,-47,10,44
78,18,-60,-48,69,-21,-26,-72,-209,-89,-30,22
59,-29,-88,-15,74,-58,-14,-67,-205,-105,-52,-7
44,-47,-91,2,67,-69,-16,-72,-195,-92,-54,-16
35,-54,-88,10,62,-71,2,-77,-211,-113,-69,-28
38,-56,-93,9,66,-74,-4,-80,-218,-81,-47,-25
42,-59,-100,9,71,-79,14,-41,-197,-126,-77,-46
29,-87,-117,29,73,-102,46,-34,-154,-67,-55,-34
-14,-110,-97,62,42,-103,125,57,-25,-18,-67,-35
108,-47,-156,-30,132,-102,238,339,392,761,493,249
286,236,-50,-261,168,93,-288,-367,-43,948,886,610
14,333,319,-174,-153,326,-856,-1763,-1719,-1050,-218,187
-221,118,340,51,-281,229,-760,-1764,-2153,-1743,-802,-187
-88,-13,75,50,-82,31,-498,-882,-1212,-955,-495,-116
-10,-80,-70,45,30,-75,-230,-385,-502,-534,-317,-94
9,-98,-107,45,58,-102,-38,-93,-28,-172,-117,-34
12,-92,-104,41,58,-98,65,53,239,-73,-71,-26
10,-95,-105,43,58,-100,91,86,375,-3,-37,-19
8,-97,-105,45,57,-101,93,105,460,21,-26,-12
3,-101,-105,49,54,-102,108,127,515,38,-16,-11
4,-102,-106,49,56,-104,113,157,573,67,14,1
5,-107,-112,52,59,-110,127,176,618,83,27,0
23,-96,-119,37,71,-108,134,203,686,122,40,19
36,-88,-124,26,80,-106,143,227,743,139,40,24
81,-43,-125,-18,104,-84,151,286,815,201,80,46
68,-60,-127,-4,98,-93,155,325,892,236,103,55
44,-102,-146,29,96,-124,161,353,974,282,121,58
111,-62,-173,-24,142,-117,184,438,1085,367,174,89
136,-49,-185,-43,161,-117,207,524,1191,450,222,113
146,-43,-189,-51,168,-116,224,616,1313,554,288,156
175,-31,-207,-72,191,-119,232,698,1444,649,352,195
180,-26,-206,-77,193,-115,229,757,1558,721,403,226
187,-10,-197,-89,192,-103,225,778,1636,766,437,255
191,-1,-192,-95,191,-96,226,752,1663,755,437,263
191,29,-162,-110,176,-66,208,687,1616,708,430,265
174,56,-118,-114,145,-31,163,532,1458,581,369,240
117,47,-70,-82,93,-12,119,348,1272,405,271,197
76,28,-48,-51,61,-10,87,213,1091,250,166,145
55,9,-46,-32,50,-18,71,119,959,121,92,95
26,-14,-40,-6,33,-27,55,57,882,47,48,61
7,-30,-37,12,22,-33,49,19,814,10,4,42
-14,-45,-31,30,8,-37,51,-3,801,-11,-9,35
-34,-66,-32,51,-1,-49,47,-10,794,-20,-16,27
-33,-72,-39,53,3,-55,45,-10,790,-33,-23,18
-27,-67,-40,47,7,-54,45,-10,801,-43,-31,17
-26,-66,-40,46,7,-52,49,-10,792,-46,-38,20
-20,-60,-40,40,10,-50,56,-10,807,-45,-37,20
-20,-60,-40,40,10,-50,60,-8,801,-45,-31,20
-12,-53,-40,32,15,-46,60,-5,794,-45,-27,20
-20,-60,-39,40,10,-49,60,-2,834,-45,-22,25
-47,-88,-41,68,-3,-64,60,1,866,-41,-18,25
-35,-88,-53,62,9,-70,60,4,1033,-31,-13,26
-25,-80,-55,53,16,-67,60,5,1206,-25,-10,30
-23,-79,-55,51,16,-66,56,0,1267,-15,-10,29
-12,-71,-59,42,24,-65,54,-2,1356,-12,-8,32
-10,-71,-61,40,26,-65,50,-5,1399,-16,-5,35
-22,-80,-58,51,18,-68,49,-7,1390,-14,-5,34
-37,-89,-52,63,8,-71,44,-10,1408,-20,-13,35
-48,-74,-26,61,-11,-50,48,-12,1454,-9,-14,35
-65,-51,14,58,-39,-19,51,-17,1486,-7,-6,36
-74,-45,29,59,-51,-8,44,-23,1506,-17,-3,41
-72,-43,29,57,-50,-7,38,-22,1480,4,6,41
-88,-51,37,69,-62,-7,-15,-61,1461,-26,-4,32
-82,-64,18,73,-49,-23,-55,-92,1441,-69,-19,30
-64,-105,-42,85,-11,-73,-48,-77,1423,-77,-20,22
-101,-176,-75,139,-13,-125,-39,-72,1443,-75,-15,18
-151,-236,-85,194,-33,-160,-37,-79,1433,-89,-39,10
-219,-305,-86,262,-66,-195,-24,-71,1405,-124,-93,-32
-236,-332,-96,285,-70,-214,-25,-78,1386,-110,-102,-42
-246,-354,-107,300,-69,-230,-16,-73,1381,-153,-123,-54
-256,-369,-113,313,-71,-241,-10,-84,1378,-130,-104,-49
-249,-376,-127,312,-61,-251,-12,-96,1365,-162,-131,-63
-282,-415,-133,349,-75,-273,23,-49,1340,-129,-116,-74
-288,-406,-118,347,-85,-261,46,-14,1396,-98,-139,-87
-252,-420,-168,336,-42,-294,223,308,1804,421,208,61
-60,-225,-165,142,53,-195,-64,30,1796,1102,883,513
-189,6,195,91,-192,100,-755,-1445,274,-458,101,320
-534,-131,403,332,-468,136,-853,-2032,-817,-1825,-854,-202
-469,-307,162,388,-315,-72,-617,-1225,-198,-1224,-653,-210
-351,-405,-54,378,-148,-229,-354,-558,563,-703,-420,-150
-319,-455,-136,387,-92,-295,-129,-243,1010,-325,-224,-106
-302,-458,-156,381,-73,-307,-13,-42,1278,-148,-143,-88
-309,-462,-153,386,-78,-307,28,20,1378,-85,-112,-85
-304,-456,-152,380,-76,-304,37,50,1451,-35,-82,-68
-309,-457,-147,383,-81,-301,57,69,1472,-45,-88,-72
-307,-453,-146,381,-80,-299,56,94,1477,-10,-64,-59
-317,-462,-145,389,-85,-303,68,112,1482,5,-64,-58
-311,-464,-152,388,-79,-307,61,125,1523,38,-47,-50
-285,-457,-172,371,-56,-314,75,152,1546,57,-26,-44
-270,-453,-182,362,-44,-317,94,184,1570,98,0,-31
-267,-446,-179,356,-44,-312,99,237,1630,145,27,-19
-259,-441,-182,351,-39,-311,118,288,1687,196,57,-7
-232,-435,-203,334,-14,-319,122,349,1746,256,84,11
-201,-427,-225,314,12,-326,140,439,1813,338,135,36
-184,-421,-237,303,27,-329,157,528,1908,432,190,62
-166,-413,-248,290,41,-330,171,609,2003,516,245,96
-149,-406,-257,278,54,-331,179,673,2086,601,307,143
-131,-388,-257,259,63,-322,167,702,2138,654,348,173
-114,-358,-244,236,65,-300,165,704,2167,664,363,179
-125,-341,-217,233,46,-279,142,658,2146,640,344,166
-155,-330,-175,242,10,-252,99,526,1972,528,299,159
-200,-331,-131,266,-34,-230,64,352,1768,369,223,139
-240,-328,-89,284,-75,-208,33,201,1584,212,123,88
-265,-334,-69,299,-98,-201,8,83,1419,81,41,38
-288,-359,-71,323,-108,-215,-1,2,1295,-5,-24,-6
-299,-367,-68,333,-115,-217,-4,-27,1205,-65,-66,-35
-318,-384,-66,352,-126,-224,-7,-38,1191,-85,-82,-50
-328,-392,-64,360,-132,-227,-12,-49,1143,-102,-100,-56
-319,-389,-70,354,-124,-229,-15,-52,1132,-113,-110,-55
-311,-387,-76,349,-117,-231,-12,-54,1142,-107,-103,-53
-310,-384,-74,348,-117,-229,-9,-50,1117,-120,-112,-61
-298,-385,-87,342,-105,-236,-6,-50,1110,-129,-125,-71
-294,-384,-90,339,-102,-237,-3,-50,1101,-122,-117,-70
-319,-403,-84,362,-117,-243,-1,-50,1095,-118,-112,-68
-312,-394,-82,353,-115,-238,1,-51,1070,-111,-107,-65
-300,-377,-77,339,-112,-227,7,-50,1086,-106,-101,-65
-307,-382,-75,345,-116,-228,7,-51,1065,-101,-97,-62
-304,-375,-70,340,-117,-222,4,-50,1054,-90,-93,-59
-306,-376,-70,341,-117,-222,5,-51,1051,-84,-92,-61
-302,-372,-70,337,-116,-221,5,-49,1031,-72,-88,-60
-297,-367,-70,332,-114,-218,5,-53,1028,-74,-86,-60
-294,-364,-71,329,-111,-217,6,-65,997,-86,-84,-59
-290,-357,-67,324,-111,-212,13,-63,1016,-81,-77,-52
-298,-357,-59,328,-119,-207,18,-68,1004,-78,-72,-48
-284,-319,-35,302,-125,-176,24,-75,945,-74,-67,-42
-279,-288,-9,284,-135,-149,30,-74,948,-70,-61,-36
-279,-274,4,277,-142,-135,17,-68,992,-73,-56,-32
-257,-248,9,252,-133,-120,-18,-80,946,-78,-50,-24
-268,-244,24,256,-145,-110,-53,-115,891,-88,-45,-18
-282,-253,29,267,-155,-112,-64,-121,866,-97,-36,-5
-245,-256,-11,251,-117,-133,-53,-112,842,-101,-32,-4
-190,-252,-62,221,-63,-157,-40,-118,872,-76,-28,-6
-246,-332,-87,289,-79,-209,-36,-128,796,-117,-88,-39
-326,-411,-85,369,-120,-248,-21,-114,760,-142,-122,-76
-301,-404,-103,352,-98,-253,-27,-116,763,-135,-115,-73
-280,-410,-130,345,-75,-270,-10,-98,729,-150,-129,-79
-284,-414,-130,349,-77,-272,-15,-104,746,-124,-114,-69
-283,-412,-129,347,-76,-270,-1,-81,734,-163,-141,-84
-294,-423,-129,359,-82,-276,32,-49,720,-110,-112,-91
-306,-424,-118,365,-94,-270,113,57,847,-53,-120,-110
-174,-360,-186,267,7,-273,251,372,1311,754,471,193
-22,-108,-86,65,32,-97,-244,-353,849,853,810,534
-276,50,326,113,-302,188,-805,-1807,-862,-1101,-315,114
-540,-143,397,341,-469,127,-742,-1874,-1391,-1750,-869,-255
-409,-306,103,357,-255,-101,-521,-981,-594,-1026,-567,-199
-295,-346,-50,320,-122,-198,-242,-409,47,-575,-358,-148
-271,-390,-120,331,-76,-255,-59,-121,436,-214,-172,-100
-251,-389,-138,320,-56,-263,19,13,610,-127,-135,-101
-236,-365,-129,301,-53,-247,53,58,685,-56,-101,-87
-199,-363,-164,281,-18,-263,57,85,746,-33,-95,-82
-194,-377,-182,286,-5,-279,69,97,759,-24,-83,-79
-185,-371,-186,278,0,-278,68,112,768,2,-70,-72
-180,-368,-188,274,4,-278,72,118,768,14,-66,-70
-163,-364,-201,264,19,-282,68,149,816,48,-48,-63
-149,-360,-211,255,31,-286,78,174,844,73,-37,-59
-144,-357,-214,251,35,-285,90,201,866,119,-4,-47
-127,-348,-221,238,47,-284,103,248,930,163,31,-37
-102,-341,-240,222,69,-290,110,300,988,217,55,-19
-67,-329,-262,198,98,-295,124,379,1051,285,87,-3
-49,-315,-266,182,109,-290,145,463,1130,364,134,20
-18,-301,-282,160,132,-291,161,550,1236,472,198,61
6,-285,-291,140,149,-288,166,622,1319,552,253,94
10,-271,-281,131,146,-276,165,671,1373,612,293,125
2,-272,-274,135,138,-273,158,702,1420,663,335,153
24,-242,-266,109,145,-254,149,686,1453,653,348,150
57,-201,-258,72,158,-229,130,614,1387,592,313,134
13,-202,-215,95,114,-208,83,455,1210,470,246,128
-29,-206,-176,118,74,-191,45,283,1012,314,163,97
-41,-204,-163,123,62,-183,24,144,822,160,50,41
-54,-205,-151,130,49,-178,13,36,680,40,-34,-6
-76,-226,-150,151,37,-187,8,-19,565,-36,-92,-51
-91,-241,-150,166,30,-195,0,-52,488,-81,-142,-81
-96,-246,-150,171,27,-198,-8,-65,462,-103,-158,-96
-105,-253,-148,179,22,-201,-13,-78,434,-116,-175,-108
-81,-249,-168,165,43,-208,-27,-83,390,-126,-183,-105
-64,-247,-183,155,60,-215,-36,-79,371,-139,-179,-105
-68,-244,-176,156,55,-210,-35,-80,392,-134,-181,-105
-65,-241,-175,154,55,-207,-35,-75,387,-128,-179,-105
-68,-239,-172,154,52,-205,-35,-75,348,-123,-180,-105
-67,-235,-168,151,51,-201,-35,-74,337,-117,-179,-102
-56,-231,-176,144,60,-203,-33,-69,369,-113,-176,-100
-47,-228,-182,138,68,-205,-30,-66,362,-109,-175,-97
-43,-224,-181,134,69,-202,-27,-62,359,-111,-175,-94
-44,-220,-177,132,67,-198,-24,-59,361,-106,-175,-91
-43,-217,-175,131,66,-196,-21,-54,355,-105,-176,-90
-42,-214,-172,128,65,-193,-20,-60,362,-106,-172,-90
-47,-216,-169,131,61,-192,-26,-69,349,-110,-170,-90
-36,-211,-175,124,70,-193,-33,-70,332,-111,-171,-90
-32,-210,-178,121,73,-194,-37,-76,317,-109,-166,-90
-27,-210,-183,119,78,-197,-41,-97,313,-117,-164,-90
-28,-187,-159,108,66,-173,-39,-105,296,-110,-165,-86
-23,-144,-121,83,49,-132,-44,-92,290,-95,-159,-71
-1,-106,-105,54,52,-106,-46,-96,282,-104,-157,-59
-4,-98,-94,52,45,-96,-44,-92,291,-100,-152,-60
-10,-99,-89,55,39,-94,-82,-114,254,-110,-151,-63
-30,-102,-72,66,21,-87,-109,-155,183,-117,-145,-58
20,-95,-115,38,67,-105,-101,-135,208,-107,-142,-52
59,-113,-172,27,116,-143,-88,-109,207,-109,-141,-53
14,-155,-169,70,92,-161,-82,-120,179,-122,-153,-68
-19,-215,-196,117,89,-205,-69,-109,161,-163,-204,-105
-35,-253,-218,145,91,-235,-65,-113,136,-160,-218,-116
-36,-248,-211,142,88,-229,-59,-109,116,-176,-235,-125
-34,-253,-219,144,93,-236,-45,-110,109,-140,-214,-114
-35,-245,-209,141,87,-227,-44,-124,118,-166,-243,-125
-31,-258,-227,145,98,-242,-9,-66,104,-128,-218,-121
8,-233,-241,113,125,-236,12,-52,121,-124,-223,-120
43,-225,-269,92,156,-247,194,275,487,333,92,-10
238,-39,-277,-100,258,-158,0,141,596,1075,792,443
162,234,72,-198,45,153,-686,-1264,-828,-357,79,305
-244,130,374,57,-309,251,-873,-2009,-2062,-1817,-907,-222
-207,-44,163,125,-185,59,-651,-1320,-1559,-1282,-729,-239
-48,-143,-96,96,24,-119,-383,-604,-797,-735,-499,-206
-30,-215,-185,123,78,-200,-161,-264,-352,-365,-309,-175
10,-214,-225,102,118,-219,-50,-59,-89,-177,-210,-130
22,-202,-225,90,124,-213,-1,10,6,-119,-177,-120
30,-192,-222,81,126,-206,9,39,73,-62,-141,-101
23,-196,-219,87,122,-207,27,57,104,-63,-146,-105
7,-208,-215,101,111,-211,33,73,84,-25,-125,-92
1,-215,-216,107,109,-215,42,99,100,-14,-123,-92
15,-203,-218,94,117,-210,46,118,165,22,-102,-82
28,-195,-223,84,126,-209,50,138,138,38,-92,-72
35,-187,-223,77,129,-205,54,163,157,73,-73,-63
46,-184,-230,69,138,-206,61,210,202,117,-45,-52
52,-182,-234,65,143,-207,78,267,252,166,-12,-43
69,-176,-246,54,158,-211,94,335,319,232,34,-28
88,-176,-264,44,177,-220,106,409,370,300,80,-1
116,-151,-267,18,192,-208,112,489,472,391,140,39
172,-112,-284,-30,228,-198,123,572,562,487,212,80
196,-97,-293,-50,245,-195,127,633,641,560,261,115
220,-83,-303,-68,262,-193,119,667,688,612,313,146
231,-70,-301,-80,266,-186,115,668,704,637,331,165
218,-53,-272,-82,245,-162,106,626,685,609,313,180
188,-15,-203,-86,195,-109,71,521,537,505,285,160
127,-4,-131,-61,130,-68,30,374,349,344,202,101
94,-20,-114,-37,105,-67,-1,231,158,178,93,53
60,-24,-84,-17,72,-53,-13,127,-9,50,0,12
29,-48,-77,10,53,-62,-17,65,-123,-36,-59,-44
22,-71,-92,24,57,-82,-23,28,-222,-95,-97,-84
15,-73,-88,29,52,-80,-29,18,-265,-121,-124,-86
19,-74,-93,28,57,-83,-34,14,-302,-137,-141,-90
35,-60,-95,13,65,-77,-32,9,-322,-143,-132,-93
16,-79,-95,32,56,-87,-29,5,-325,-153,-139,-111
-12,-102,-90,57,39,-96,-26,0,-344,-165,-161,-130
-12,-92,-81,52,35,-86,-23,3,-347,-159,-152,-122
-17,-89,-73,53,28,-81,-20,8,-353,-154,-146,-116
-18,-82,-65,50,24,-73,-21,10,-365,-148,-140,-109
-12,-77,-65,45,27,-71,-25,15,-366,-142,-132,-102
-7,-72,-65,40,29,-69,-25,18,-364,-140,-126,-100
-5,-69,-65,38,30,-66,-25,22,-370,-140,-119,-100
-5,-70,-65,38,30,-67,-25,27,-361,-141,-113,-100
-2,-66,-64,35,32,-65,-28,25,-357,-140,-106,-100
-2,-64,-62,33,30,-63,-31,20,-360,-140,-100,-100
-12,-66,-54,40,21,-60,-29,18,-360,-140,-95,-96
-23,-74,-51,48,15,-62,-31,13,-383,-135,-90,-92
-35,-78,-43,57,5,-61,-29,10,-402,-129,-86,-89
-22,-61,-39,41,9,-50,-32,14,-411,-123,-81,-84
-12,-45,-33,29,11,-39,-35,18,-420,-118,-77,-81
-2,-2,0,2,-1,-1,-35,24,-428,-110,-73,-77
30,55,24,-43,3,39,-35,22,-430,-115,-77,-71
16,58,42,-38,-13,50,-45,5,-455,-125,-73,-64
4,68,64,-36,-30,65,-89,-31,-509,-144,-77,-57
7,88,80,-48,-37,84,-109,-65,-513,-165,-91,-52
29,66,37,-48,-4,51,-102,-70,-491,-153,-99,-43
41,9,-32,-25,36,-11,-91,-55,-494,-152,-104,-54
29,-9,-38,-10,34,-23,-86,-52,-500,-187,-103,-83
-2,-55,-53,29,26,-54,-76,-34,-532,-230,-118,-108
-10,-84,-74,47,32,-79,-71,-27,-554,-217,-115,-116
15,-79,-94,32,55,-87,-66,-26,-548,-237,-136,-124
-21,-118,-97,70,38,-107,-53,-21,-551,-200,-113,-116
-45,-119,-73,82,14,-96,-61,-34,-590,-224,-136,-122
-30,-124,-94,77,32,-108,-17,6,-604,-191,-118,-125
-30,-111,-81,71,25,-95,11,20,-565,-182,-132,-154
7,-119,-126,56,66,-122,187,322,-201,236,135,-35
212,90,-121,-151,166,-15,24,254,-48,1033,874,423
121,362,240,-242,-60,301,-665,-1026,-1419,-305,230,316
-239,281,521,-21,-380,401,-852,-1772,-2642,-1817,-800,-213
-191,143,335,24,-263,239,-626,-1168,-2181,-1315,-639,-277
-64,7,70,28,-67,38,-398,-525,-1471,-798,-436,-230
-46,-84,-38,65,-4,-61,-181,-203,-1052,-438,-242,-179
-4,-90,-86,48,41,-88,-52,-7,-803,-227,-125,-140
-13,-99,-86,57,37,-93,0,66,-697,-169,-110,-139
-9,-91,-82,51,37,-87,1,119,-606,-102,-67,-120
-15,-98,-83,57,35,-90,13,130,-600,-105,-73,-124
-23,-100,-77,61,27,-88,25,138,-607,-68,-43,-109
-15,-99,-84,57,34,-92,42,166,-577,-71,-41,-105
-13,-97,-84,55,36,-90,39,173,-563,-36,-21,-94
-7,-92,-85,50,39,-88,41,197,-570,-14,-4,-85
21,-92,-113,36,67,-103,39,221,-523,19,19,-75
22,-86,-108,32,65,-97,46,262,-457,74,58,-58
28,-80,-108,26,68,-93,61,301,-408,111,73,-49
80,-66,-145,-7,112,-105,62,359,-362,181,125,-25
68,-75,-143,4,106,-108,94,431,-289,262,179,-5
90,-58,-149,-16,120,-103,116,495,-188,362,237,31
175,13,-162,-94,168,-74,109,575,-92,465,324,98
172,-1,-173,-85,172,-87,101,612,-24,529,371,121
160,-20,-179,-70,170,-99,92,641,15,586,422,146
179,13,-166,-96,173,-77,83,644,33,607,446,177
181,37,-144,-109,162,-53,74,600,11,569,427,168
172,80,-92,-126,132,-6,58,507,-136,461,375,136
147,105,-43,-126,95,31,28,364,-333,294,273,94
98,85,-13,-91,55,36,-19,222,-520,123,162,37
84,85,1,-85,41,43,-42,112,-686,-5,72,-21
69,82,13,-76,28,47,-39,53,-775,-89,8,-54
2,10,8,-6,-3,9,-56,3,-878,-152,-45,-94
-28,-18,10,22,-18,-4,-62,-13,-923,-194,-72,-115
-45,-11,34,28,-39,12,-59,-10,-949,-216,-86,-121
-57,-21,36,38,-46,7,-61,-18,-978,-220,-85,-127
-55,-21,33,38,-44,5,-60,-12,-983,-220,-84,-124
-56,-25,30,41,-43,2,-60,-20,-1000,-220,-97,-125
-49,-19,29,34,-39,5,-55,-30,-996,-220,-100,-125
-38,-8,31,23,-34,11,-55,-30,-998,-220,-94,-125
-35,-5,30,20,-32,12,-55,-30,-997,-219,-93,-125
-20,11,31,5,-26,20,-55,-26,-989,-214,-86,-124
-27,-1,26,13,-26,12,-55,-25,-991,-211,-87,-126
-29,-4,25,16,-27,10,-57,-25,-998,-208,-99,-124
14,39,25,-27,-6,32,-61,-25,-1000,-204,-92,-127
-13,13,25,-1,-19,19,-64,-25,-1012,-200,-85,-140
-25,0,25,12,-25,12,-68,-25,-1016,-196,-85,-138
-20,7,26,6,-23,16,-70,-26,-1035,-195,-86,-134
-38,-8,30,23,-34,11,-66,-25,-1056,-195,-85,-131
-29,0,29,15,-29,15,-63,-29,-1068,-197,-85,-126
-32,3,35,14,-34,19,-60,-29,-1091,-200,-97,-123
-27,31,58,-2,-43,44,-57,-32,-1100,-200,-84,-120
-35,62,97,-14,-66,79,-54,-36,-1104,-193,-77,-115
-14,109,124,-48,-69,116,-58,-37,-1111,-197,-84,-113
7,138,131,-73,-62,134,-87,-58,-1134,-185,-84,-109
15,157,142,-86,-64,149,-129,-97,-1173,-198,-91,-103
26,146,121,-86,-48,133,-154,-125,-1214,-234,-86,-116
23,99,76,-61,-27,87,-164,-122,-1219,-242,-80,-131
29,82,53,-56,-12,67,-139,-106,-1226,-240,-70,-132
0,44,43,-23,-22,43,-120,-110,-1250,-236,-94,-126
-36,-13,23,24,-29,5,-99,-100,-1261,-264,-141,-143
-53,-50,3,51,-28,-23,-90,-102,-1286,-257,-131,-148
-44,-52,-8,48,-18,-30,-79,-95,-1269,-274,-149,-153
-29,-43,-15,36,-7,-29,-73,-91,-1253,-246,-131,-142
-8,-27,-19,18,5,-23,-79,-88,-1280,-271,-147,-146
-20,-52,-32,36,6,-42,-49,-46,-1276,-243,-136,-167
-93,-104,-12,99,-40,-58,-28,-36,-1234,-230,-172,-196
-41,-97,-56,69,8,-76,161,255,-886,217,130,-61
187,156,-31,-171,109,62,-82,77,-856,953,862,408
66,365,300,-216,-117,332,-755,-1220,-2287,-471,158,240
-285,198,483,43,-384,341,-865,-1824,-3385,-1935,-877,-303
-222,45,266,88,-244,155,-637,-1130,-2806,-1350,-675,-309
-91,-35,56,63,-74,11,-392,-509,-2078,-799,-439,-270
-80,-87,-7,83,-36,-47,-186,-226,-1676,-449,-257,-224
-41,-81,-40,62,0,-61,-64,-38,-1419,-239,-133,-177
-36,-83,-47,60,6,-65,-9,15,-1284,-179,-106,-177
-31,-73,-42,52,6,-58,-11,54,-1213,-122,-71,-157
-32,-73,-41,52,5,-57,6,82,-1224,-111,-73,-159
-29,-66,-37,48,4,-51,9,95,-1171,-68,-46,-144
-27,-63,-35,45,4,-49,19,115,-1115,-65,-41,-143
-20,-56,-36,38,8,-46,24,121,-1095,-27,-21,-136
-6,-48,-42,27,19,-45,31,142,-1063,4,-9,-134
1,-44,-45,22,23,-44,37,177,-994,45,11,-122
18,-34,-52,8,35,-43,47,218,-925,94,40,-107
30,-33,-63,2,46,-48,60,266,-837,151,68,-88
29,-31,-60,1,45,-45,69,330,-745,224,115,-68
55,-19,-74,-18,65,-46,95,398,-652,307,161,-46
87,-4,-91,-41,89,-47,113,484,-522,409,223,-3
108,3,-105,-56,106,-50,125,560,-416,512,303,32
135,25,-111,-80,123,-43,134,614,-302,610,369,78
158,63,-95,-110,126,-15,126,647,-224,675,423,122
146,63,-83,-104,114,-9,120,643,-231,685,441,130
141,78,-63,-109,102,7,100,603,-236,648,413,118
131,111,-20,-121,75,45,61,489,-353,533,359,107
77,102,25,-89,26,63,20,331,-560,356,272,80
35,96,61,-65,-14,79,-17,188,-728,182,160,13
8,88,81,-48,-37,84,-37,80,-874,51,74,-41
-31,49,79,-9,-56,64,-51,-2,-972,-45,3,-89
-60,21,81,20,-71,51,-62,-53,-1073,-110,-50,-130
-66,19,85,23,-75,52,-60,-62,-1122,-137,-71,-135
-70,16,85,26,-78,51,-60,-53,-1095,-156,-90,-136
-69,14,82,27,-76,48,-60,-59,-1101,-155,-90,-140
-71,9,80,31,-75,44,-59,-76,-1098,-154,-89,-140
-65,14,80,25,-73,47,-61,-72,-1077,-156,-90,-135
-46,31,77,7,-61,54,-55,-68,-1100,-154,-90,-135
-44,30,74,6,-59,51,-51,-65,-1096,-154,-88,-134
-50,27,77,11,-64,52,-44,-60,-1057,-147,-85,-130
-70,26,96,22,-84,61,-40,-61,-1062,-143,-85,-130
-81,21,102,30,-92,61,-32,-60,-1049,-138,-82,-127
-54,45,99,5,-77,72,-31,-60,-1032,-134,-79,-125
-46,60,106,-7,-76,83,-56,-60,-1042,-130,-81,-122
-57,47,104,4,-81,75,-62,-60,-1033,-126,-88,-119
-64,43,107,10,-85,75,-59,-61,-1025,-125,-74,-115
-67,43,110,12,-89,76,-61,-64,-1020,-124,-58,-116
-65,45,110,10,-88,77,-60,-66,-1020,-121,-57,-121
-70,45,115,12,-93,80,-59,-63,-1012,-119,-49,-117
-67,46,113,10,-90,80,-65,-66,-1002,-118,-47,-110
-62,69,130,-4,-96,99,-63,-63,-992,-105,-41,-105
-78,97,176,-10,-127,136,-69,-69,-1006,-99,-36,-100
-66,132,198,-33,-132,165,-68,-69,-996,-88,-26,-95
-28,172,200,-72,-114,186,-74,-81,-996,-84,-10,-87
-32,176,208,-72,-120,192,-122,-128,-1060,-122,-43,-81
-37,167,204,-65,-121,185,-135,-131,-1055,-130,-66,-74
-17,145,162,-64,-90,153,-122,-113,-1016,-122,-70,-66
-28,92,120,-32,-74,105,-118,-115,-1047,-122,-73,-71
-56,48,105,4,-81,76,-105,-117,-1054,-165,-77,-105
-83,11,95,36,-89,53,-71,-112,-1041,-190,-86,-128
-99,-6,92,52,-96,43,-73,-119,-1065,-174,-91,-121
-103,-6,97,54,-100,45,-66,-109,-1032,-192,-101,-130
-107,-9,98,58,-102,44,-72,-125,-1010,-152,-82,-112
-124,-21,103,72,-113,41,-72,-122,-1018,-183,-141,-130
-142,-38,104,89,-123,33,-40,-96,-1006,-133,-96,-149
-148,-49,99,98,-123,25,27,-11,-900,-123,-103,-163
-35,-16,19,25,-28,2,166,284,-470,554,358,69
169,251,82,-210,44,166,-302,-295,-753,970,900,480
-52,398,450,-174,-251,424,-928,-1726,-2381,-864,-93,155
-353,190,544,81,-449,367,-888,-1916,-3066,-1832,-829,-284
-227,46,272,90,-250,159,-618,-1032,-2250,-1090,-545,-243
-111,-9,102,60,-107,46,-335,-469,-1582,-635,-360,-208
-114,-53,61,83,-87,4,-137,-173,-1179,-283,-168,-159
-121,-61,61,91,-91,0,-42,-17,-948,-155,-120,-150
-94,-32,63,63,-78,15,-8,19,-856,-94,-82,-140
-78,-20,58,49,-67,19,-4,45,-788,-53,-58,-130
-105,-48,57,76,-81,4,7,47,-755,-31,-62,-134
-118,-65,52,91,-85,-6,7,66,-726,-10,-40,-123
-123,-72,51,97,-87,-10,24,104,-727,-6,-37,-125
-110,-62,48,86,-79,-6,35,128,-676,42,-14,-118
-95,-52,43,73,-69,-5,38,153,-651,49,-7,-112
-77,-41,36,59,-56,-3,46,189,-598,95,25,-95
-45,-15,30,30,-37,7,66,236,-531,148,60,-82
-49,-27,22,38,-36,-2,73,291,-457,194,83,-68
-25,-8,16,16,-20,4,92,360,-351,271,129,-53
2,12,10,-7,-4,11,113,446,-255,358,179,-31
