I,II,III,aVR,aVL,aVF,V1,V2,V3,V4,V5,V6
36,195,160,-115,-62,177,-114,220,306,395,110,-40
34,194,160,-114,-63,176,-107,232,318,396,114,-36
40,201,161,-121,-60,180,-94,262,344,400,119,-29
58,217,158,-137,-50,187,-70,296,371,410,126,-23
46,213,167,-130,-61,190,-40,340,398,419,145,-15
46,221,175,-134,-65,198,-13,390,433,431,155,-11
56,236,180,-146,-62,207,12,440,479,456,174,3
69,258,189,-163,-60,223,33,478,514,489,200,13
79,275,196,-178,-59,236,32,495,546,517,233,29
90,299,209,-194,-60,254,18,493,559,538,274,71
109,319,210,-214,-51,264,2,442,537,544,291,95
100,303,203,-202,-52,253,-63,331,484,515,274,84
89,289,200,-189,-56,244,-122,221,393,460,232,50
84,279,195,-182,-56,236,-146,176,351,413,207,32
73,262,190,-167,-59,226,-152,172,358,394,212,35
80,280,200,-180,-60,239,-135,166,353,399,209,36
96,320,224,-208,-64,271,-128,162,357,418,212,50
117,340,223,-229,-53,281,-119,157,362,419,235,71
120,332,212,-227,-46,272,-140,154,341,409,242,71
84,287,203,-186,-60,245,-160,149,317,399,225,55
52,246,193,-149,-71,219,-141,149,301,359,186,29
37,234,197,-136,-80,215,-134,142,299,344,178,11
28,220,192,-124,-82,205,-128,144,300,345,182,11
15,214,199,-115,-92,206,-120,137,293,336,176,8
24,214,190,-119,-84,202,-122,137,297,343,185,14
8,207,199,-108,-96,203,-108,135,293,325,172,5
13,209,197,-111,-92,203,-117,130,304,348,193,17
1,201,200,-101,-100,200,-101,145,311,331,175,8
5,208,203,-107,-99,205,-121,118,323,364,197,27
18,218,200,-118,-92,209,-97,169,333,354,201,26
19,288,269,-154,-125,278,-40,296,566,599,386,135
345,430,85,-387,130,257,-316,112,627,858,674,394
299,416,116,-358,91,266,-892,-1008,-416,69,155,164
-38,397,435,-179,-237,415,-1166,-1591,-1038,-349,-215,-73
-33,432,465,-200,-250,448,-716,-698,-389,59,67,54
-54,330,383,-138,-219,356,-246,-100,87,223,153,47
-27,241,268,-107,-148,254,-112,97,260,320,189,23
-8,228,236,-110,-122,232,-50,203,337,332,203,27
-16,217,233,-101,-124,224,-42,186,341,343,206,22
-14,220,234,-103,-124,227,-17,223,356,361,233,39
-41,219,261,-89,-151,240,-8,209,345,349,225,47
-39,221,261,-91,-150,241,3,233,370,360,234,53
-33,234,266,-101,-150,250,18,234,377,351,237,58
-27,241,268,-107,-148,254,27,253,380,356,239,60
-35,250,285,-108,-161,267,32,272,393,367,247,62
-30,255,286,-113,-158,271,48,294,415,379,258,65
-28,255,283,-114,-156,269,71,337,448,393,260,67
-33,254,288,-111,-161,271,89,377,473,407,268,71
-34,265,299,-116,-167,282,125,432,508,425,290,84
-25,285,310,-131,-167,297,157,478,559,469,310,98
-26,302,327,-138,-177,314,181,518,595,494,327,102
-20,316,336,-148,-179,325,181,538,624,516,359,126
1,344,344,-173,-172,344,170,532,647,548,392,152
1,363,362,-182,-180,362,152,486,634,563,416,183
1,351,350,-176,-175,351,97,378,561,545,411,177
3,339,336,-171,-167,337,37,270,471,475,358,139
-20,309,329,-145,-175,319,10,210,412,417,329,109
-43,287,329,-122,-186,308,11,188,376,406,340,100
-27,307,334,-140,-181,321,20,190,388,425,336,120
-6,356,362,-175,-184,359,33,207,421,460,352,148
6,399,393,-203,-194,396,34,214,424,485,377,179
20,391,371,-206,-176,381,27,202,410,476,373,180
-7,353,360,-173,-184,356,22,181,394,469,374,180
-58,304,362,-123,-210,333,15,170,365,435,339,156
-87,269,356,-91,-222,313,13,169,353,410,317,123
-86,264,349,-89,-218,306,7,170,356,419,338,128
-88,259,347,-86,-217,302,14,170,353,409,329,121
-80,258,338,-89,-209,298,5,168,357,423,335,129
-91,250,341,-79,-216,295,17,176,352,405,320,120
-88,253,340,-82,-214,297,19,169,359,426,329,130
-85,251,336,-83,-211,293,36,186,359,421,313,124
-85,261,346,-88,-216,303,27,170,367,447,346,136
-72,267,340,-98,-206,304,21,184,364,452,371,158
-87,342,429,-127,-258,385,111,333,589,664,526,258
198,488,290,-343,-46,389,-98,247,746,1034,904,549
213,442,229,-328,-8,336,-651,-798,-238,306,421,354
-133,390,524,-129,-329,457,-1016,-1564,-1058,-327,-115,37
-170,422,591,-126,-380,506,-675,-808,-499,67,159,161
-147,363,510,-108,-329,437,-173,-119,63,315,314,214
-105,303,408,-100,-257,355,-34,87,258,435,388,227
-104,281,385,-89,-245,333,38,209,355,479,428,257
-117,286,403,-85,-261,345,49,186,354,468,412,252
-104,284,388,-91,-246,336,59,214,367,483,432,259
-111,289,400,-89,-256,344,71,207,362,483,449,279
-84,308,392,-113,-238,350,67,219,370,496,466,292
-89,312,401,-111,-245,356,76,221,369,485,455,291
-86,316,403,-116,-245,359,90,235,369,489,462,309
-83,324,407,-121,-245,365,99,249,373,482,459,310
-80,332,413,-126,-247,373,104,268,399,494,459,309
-76,340,415,-132,-246,377,124,317,442,540,474,319
-81,337,418,-128,-250,377,142,349,462,563,489,343
-79,352,431,-136,-255,391,175,401,495,578,516,357
-67,372,439,-153,-253,405,204,451,546,621,542,372
-61,379,440,-159,-251,409,219,483,580,653,570,400
-52,414,466,-181,-259,440,222,500,604,676,592,403
-32,454,486,-211,-259,470,223,495,624,711,620,435
-19,470,489,-225,-254,479,201,453,607,725,650,489
-10,471,481,-231,-245,476,142,353,549,705,634,491
-25,452,477,-214,-251,464,81,246,447,642,589,459
-68,409,477,-171,-273,443,52,178,363,582,538,421
-102,379,481,-139,-292,430,47,147,346,580,498,406
-88,396,483,-155,-286,439,46,144,336,580,478,401
-47,440,486,-197,-267,463,62,148,351,580,507,416
-30,477,507,-224,-269,492,63,149,368,586,537,451
-25,481,506,-228,-266,493,55,141,348,578,525,449
-33,454,487,-210,-261,470,53,131,335,573,518,439
-64,408,472,-173,-268,440,42,123,317,548,486,416
-86,370,456,-142,-271,413,44,115,298,522,456,386
-85,355,439,-135,-262,397,41,114,295,526,459,385
-90,342,432,-127,-261,387,51,117,294,510,442,374
-88,339,427,-126,-257,383,46,112,296,519,446,377
-88,329,417,-120,-253,372,53,119,293,501,429,365
-93,323,416,-115,-255,370,52,110,296,508,433,367
-85,315,400,-116,-242,357,53,119,288,493,430,369
-102,314,417,-106,-260,365,62,114,289,486,426,368
-80,322,402,-121,-241,361,26,106,275,502,438,376
-84,372,456,-144,-271,414,127,235,430,599,462,370
104,512,409,-308,-152,460,34,282,719,1063,857,616
227,513,286,-370,-30,399,-444,-520,-6,575,596,540
-87,427,514,-170,-301,470,-901,-1524,-1073,-354,-169,117
-201,436,637,-118,-419,536,-753,-1089,-779,-123,-72,106
-170,386,556,-108,-363,470,-206,-259,-112,212,134,156
-164,297,460,-67,-312,378,9,8,153,329,176,140
-125,263,388,-69,-257,325,88,164,284,401,218,145
-140,253,393,-57,-267,323,117,178,293,393,202,127
-122,249,370,-64,-246,309,119,201,317,427,225,130
-124,244,369,-60,-247,306,155,202,318,413,207,117
-117,240,357,-61,-237,298,151,199,320,424,212,122
-112,235,347,-62,-230,291,158,221,321,418,205,119
-108,238,346,-65,-227,291,153,224,320,419,200,119
-101,243,344,-71,-223,293,167,244,335,422,203,121
-98,246,343,-74,-221,294,180,266,352,414,205,117
-86,253,339,-83,-213,296,196,296,375,424,219,132
-81,258,339,-89,-210,298,222,336,400,440,230,145
-85,263,348,-89,-217,305,244,382,433,455,235,148
-99,266,365,-84,-232,315,269,419,465,469,238,148
-92,275,367,-92,-229,321,293,459,498,491,255,160
-78,291,369,-106,-224,330,300,487,529,508,272,181
-67,307,373,-120,-220,340,293,490,540,521,288,188
-44,333,377,-145,-211,354,282,450,531,538,301,206
-25,344,368,-160,-197,356,228,362,490,521,293,208
-41,320,361,-140,-201,340,157,248,388,446,247,181
-64,274,338,-105,-201,306,116,164,296,373,187,145
-61,247,309,-93,-185,278,109,132,257,340,160,114
-53,263,316,-105,-185,290,113,128,246,340,164,120
-42,300,342,-129,-192,321,119,133,263,346,170,147
-37,324,361,-144,-199,342,118,130,272,344,184,160
-18,328,346,-155,-182,336,107,116,259,336,184,154
-18,303,322,-143,-170,312,101,97,248,323,179,141
-52,252,304,-100,-179,278,94,86,213,293,158,135
-79,211,291,-66,-185,251,91,79,168,260,118,132
-84,192,276,-54,-180,234,80,72,165,260,124,138
-77,188,265,-56,-171,226,78,68,164,239,116,132
-70,191,261,-61,-166,226,66,56,161,240,123,138
-68,184,252,-58,-160,218,64,58,160,225,118,133
-68,186,254,-59,-162,220,57,42,158,231,119,138
-51,185,236,-67,-144,210,45,48,157,233,131,147
-67,184,251,-59,-159,217,51,33,145,220,121,141
-42,192,234,-75,-139,213,16,25,141,248,164,177
-66,217,283,-76,-174,250,107,124,232,280,187,193
104,363,259,-234,-77,311,13,182,521,739,573,451
296,425,129,-361,84,277,-526,-521,-54,433,474,494
50,371,321,-211,-136,346,-1014,-1566,-1180,-514,-233,147
-71,404,476,-167,-274,440,-827,-1203,-957,-339,-153,141
-71,342,414,-136,-243,378,-279,-371,-279,-2,43,173
-81,219,300,-70,-190,259,-52,-114,-43,82,53,129
-58,180,238,-61,-148,208,45,58,109,168,114,142
-83,173,256,-45,-170,214,73,65,113,154,90,126
-61,176,237,-58,-150,206,76,88,141,184,118,133
-64,174,239,-55,-152,206,104,103,150,166,102,123
-55,175,230,-60,-143,202,105,107,150,169,102,125
-54,175,229,-61,-142,202,124,128,160,162,98,121
-61,171,231,-55,-146,201,120,122,156,156,90,119
-58,170,228,-56,-143,199,125,139,171,157,93,121
-62,169,231,-53,-147,200,133,157,179,166,94,118
-58,171,229,-57,-143,200,147,194,200,182,107,121
-63,169,231,-53,-147,200,169,231,230,190,117,117
-64,172,236,-54,-150,203,187,271,258,203,122,110
-49,189,239,-70,-144,214,219,317,297,223,136,123
-39,206,245,-84,-142,225,250,358,329,247,157,139
-36,225,261,-95,-149,242,255,377,358,263,167,148
-27,241,268,-107,-148,254,262,384,378,293,200,177
-10,265,275,-128,-143,270,240,352,369,306,222,191
-12,264,277,-126,-145,270,169,268,331,289,206,178
-12,250,262,-119,-137,256,105,168,239,246,188,169
-9,231,240,-111,-125,236,62,90,157,184,143,142
-28,190,219,-81,-124,204,45,78,112,151,101,118
-23,201,224,-90,-123,212,55,83,104,152,107,125
-10,244,255,-117,-133,249,80,85,141,178,130,138
5,270,265,-138,-130,267,77,90,161,194,152,151
20,273,254,-147,-117,263,59,70,148,182,151,148
5,251,246,-128,-121,248,55,52,128,168,138,130
-16,217,234,-101,-125,225,49,50,102,147,117,117
-48,172,220,-63,-134,196,49,43,67,122,77,107
-57,145,202,-44,-130,174,41,37,60,127,77,108
-53,137,189,-42,-121,163,42,34,60,114,74,100
-50,136,187,-43,-119,161,35,27,59,119,75,100
-46,131,177,-43,-112,154,35,34,62,109,77,94
-51,127,178,-38,-115,152,36,15,57,109,83,107
-37,127,163,-45,-100,145,26,25,61,122,101,121
-45,126,171,-41,-108,148,39,6,49,106,82,109
-21,146,167,-62,-95,156,10,3,57,149,121,136
-44,159,203,-58,-123,181,80,84,113,155,128,137
107,300,193,-204,-43,246,21,161,420,597,488,377
306,385,79,-346,113,232,-471,-377,32,452,501,458
86,319,234,-203,-74,276,-995,-1469,-1145,-523,-228,143
-75,333,408,-129,-241,370,-868,-1283,-1088,-472,-250,97
-87,284,371,-99,-229,327,-317,-424,-378,-100,-6,115
-82,185,267,-52,-175,226,-65,-142,-125,-12,-3,74
-50,133,183,-42,-116,158,14,18,21,76,56,61
-63,113,176,-25,-120,144,57,40,41,58,36,39
-52,115,167,-31,-110,141,69,73,64,90,51,44
-62,109,170,-24,-116,140,78,85,64,82,42,29
-57,108,165,-26,-112,137,79,85,68,90,41,28
-60,104,164,-22,-113,134,98,100,77,91,40,19
-58,107,165,-25,-111,136,103,102,77,88,33,15
-48,111,159,-32,-103,135,112,130,100,93,35,16
-50,109,159,-30,-104,133,116,140,107,87,27,14
-42,111,154,-35,-98,132,132,175,128,95,36,16
-39,113,152,-37,-96,132,149,204,151,101,48,14
-31,118,149,-44,-90,133,174,248,185,113,56,18
-27,126,154,-50,-91,140,196,293,217,128,68,31
-23,135,158,-57,-90,146,210,330,248,155,91,39
-5,155,160,-75,-83,157,222,352,280,175,110,53
11,176,165,-94,-77,170,223,343,294,193,134,74
40,198,158,-120,-59,178,208,340,297,216,157,92
60,207,147,-134,-44,177,143,269,261,205,156,86
60,198,138,-129,-39,168,73,146,173,153,123,72
47,164,117,-106,-35,140,29,71,95,103,80,50
21,116,95,-69,-37,105,14,49,45,92,73,13
24,121,96,-73,-36,108,15,45,35,94,79,18
49,163,113,-106,-32,138,18,37,69,87,79,35
83,196,112,-140,-15,154,25,29,82,87,85,35
103,201,98,-153,2,149,15,23,69,84,85,27
78,170,92,-124,-8,131,6,16,53,68,84,17
52,124,72,-88,-11,98,-3,14,33,46,58,9
34,82,48,-58,-7,65,-9,11,15,7,16,-14
24,61,37,-42,-7,49,-19,7,14,-3,18,-29
21,52,30,-37,-5,41,-22,8,9,-15,9,-40
25,51,26,-38,0,38,-26,-1,5,-15,10,-40
32,47,14,-40,8,30,-25,5,3,-24,7,-39
26,41,15,-34,5,28,-28,-14,-3,-26,0,-43
41,42,1,-42,20,21,-35,-3,11,-10,21,-35
19,29,10,-24,4,19,-21,-20,0,-28,8,-47
39,41,2,-40,19,21,-57,-24,16,13,51,-11
21,60,39,-41,-9,49,0,50,60,5,40,-10
169,184,15,-177,76,99,-51,148,364,399,364,189
411,290,-121,-350,266,85,-515,-325,90,324,427,300
202,245,43,-223,79,144,-1050,-1464,-1066,-571,-236,-24
15,245,230,-130,-108,238,-971,-1371,-1106,-563,-273,-73
1,200,200,-101,-100,200,-426,-487,-417,-200,-44,-2
10,91,81,-51,-36,86,-153,-181,-164,-132,-49,-67
28,26,-1,-27,14,13,-72,-25,-20,-61,-7,-75
-9,3,12,3,-11,8,-29,-2,-2,-64,-24,-92
10,4,-7,-7,8,-1,-24,28,18,-43,-5,-88
9,-1,-10,-3,10,-6,-8,39,30,-51,-8,-91
8,-5,-12,-1,11,-8,-6,33,31,-43,-2,-90
8,-2,-11,-3,10,-6,7,50,40,-41,4,-90
14,6,-9,-10,11,-1,14,51,40,-40,3,-90
26,14,-11,-20,18,1,26,77,59,-44,11,-83
31,22,-9,-26,19,6,34,86,69,-46,9,-86
40,30,-11,-35,25,9,48,123,94,-28,15,-82
40,35,-5,-37,22,15,66,157,122,-21,15,-80
34,34,0,-34,16,16,82,191,148,-11,19,-80
37,42,5,-40,16,23,101,231,183,-4,26,-75
47,55,9,-51,19,32,125,272,216,22,40,-65
59,73,14,-66,22,43,137,307,251,48,60,-55
76,93,17,-85,29,55,121,307,276,63,84,-45
86,110,24,-98,30,67,109,290,268,86,108,-39
105,126,21,-115,42,73,75,222,246,81,115,-39
98,107,10,-103,44,58,10,105,173,37,85,-32
72,70,-1,-71,36,34,-37,27,92,-17,33,-57
68,43,-25,-55,46,9,-56,-15,79,-64,0,-88
62,39,-24,-50,43,7,-53,-26,80,-68,-5,-85
85,81,-3,-83,44,39,-52,-17,80,-45,14,-76
108,113,4,-111,52,58,-46,-10,87,-44,36,-58
123,118,-6,-121,64,56,-48,-8,76,-45,36,-44
124,104,-20,-114,72,42,-68,-36,58,-44,33,-45
87,54,-33,-71,59,11,-72,-48,43,-60,17,-69
65,12,-53,-38,59,-20,-68,-46,23,-102,-26,-106
55,-10,-65,-22,60,-37,-72,-55,20,-109,-34,-117
59,-17,-75,-21,67,-46,-68,-45,21,-110,-41,-125
57,-14,-71,-21,65,-42,-72,-56,14,-111,-41,-120
65,-18,-84,-23,75,-51,-76,-44,18,-109,-32,-118
53,-22,-75,-15,64,-48,-72,-55,11,-114,-40,-125
62,-18,-80,-22,71,-48,-81,-48,25,-90,-17,-112
47,-20,-67,-14,58,-43,-64,-46,23,-109,-41,-131
56,-10,-66,-22,61,-38,-94,-67,32,-68,7,-99
56,-13,-69,-22,63,-41,-53,-8,48,-86,-14,-110
124,92,-32,-108,78,30,-63,75,331,248,244,59
438,235,-203,-337,321,16,-443,-230,269,366,440,247
301,182,-119,-242,210,31,-1032,-1368,-855,-490,-180,-40
49,184,135,-116,-43,159,-1113,-1588,-1182,-676,-352,-148
61,194,133,-128,-36,163,-548,-660,-487,-275,-105,-72
11,53,42,-32,-15,47,-198,-258,-166,-184,-94,-122
47,-31,-78,-7,63,-55,-112,-87,-21,-118,-45,-134
27,-53,-80,13,54,-66,-57,-35,15,-113,-49,-144
32,-51,-83,10,58,-67,-48,-35,28,-94,-30,-133
49,-39,-88,-4,69,-63,-23,-5,59,-91,-29,-134
40,-37,-77,-2,59,-56,-23,-18,56,-86,-29,-130
51,-31,-82,-10,67,-56,-10,10,64,-75,-21,-128
43,-29,-72,-6,58,-50,-5,7,56,-73,-24,-126
52,-24,-76,-14,64,-50,4,26,74,-59,-17,-119
47,-21,-68,-13,58,-45,16,40,87,-56,-17,-119
54,-17,-71,-18,62,-44,27,73,111,-45,-6,-112
59,-9,-67,-25,63,-38,42,106,131,-40,-2,-111
63,-1,-64,-30,64,-32,61,145,162,-23,6,-105
73,7,-66,-40,69,-29,92,196,200,-3,16,-95
75,14,-60,-44,67,-23,117,240,238,24,42,-85
77,25,-51,-51,64,-13,133,279,282,56,66,-76
90,43,-47,-66,68,-2,133,285,310,78,87,-57
118,69,-49,-94,84,9,126,265,318,103,112,-29
137,86,-51,-111,94,17,81,210,295,108,117,-9
121,73,-48,-97,84,12,9,99,216,68,99,-20
108,45,-62,-76,85,-8,-44,-2,124,8,49,-58
102,15,-87,-58,94,-35,-68,-52,102,-41,21,-89
77,5,-72,-41,75,-34,-57,-62,107,-43,16,-89
100,40,-59,-70,79,-9,-54,-59,105,-25,12,-67
145,84,-60,-114,102,12,-44,-61,102,-24,34,-59
165,106,-59,-135,112,23,-43,-58,87,-26,45,-58
155,94,-61,-124,108,16,-77,-69,73,-24,30,-53
115,56,-59,-86,87,-2,-88,-83,64,-29,21,-65
87,7,-80,-47,83,-36,-83,-77,58,-64,3,-102
62,-22,-84,-19,73,-53,-83,-83,50,-72,-13,-116
64,-25,-89,-19,77,-57,-79,-76,46,-72,-24,-113
62,-33,-95,-14,79,-64,-80,-83,34,-80,-29,-118
73,-37,-109,-18,91,-73,-87,-75,41,-68,-19,-109
77,-33,-110,-22,94,-71,-81,-74,37,-81,-31,-116
91,-21,-112,-35,102,-66,-91,-80,43,-58,-8,-100
82,-22,-104,-30,93,-63,-77,-64,37,-84,-34,-111
84,-5,-89,-39,87,-46,-97,-97,40,-55,4,-92
91,-13,-104,-39,98,-58,-83,-49,52,-71,1,-90
85,39,-46,-62,65,-3,-45,44,268,164,171,20
396,200,-196,-298,296,2,-333,-124,388,454,488,267
394,190,-204,-292,298,-7,-947,-1207,-604,-294,-21,60
89,175,86,-133,1,131,-1179,-1765,-1231,-709,-371,-130
64,204,140,-134,-39,172,-668,-864,-597,-309,-111,-46
24,73,49,-49,-12,61,-238,-312,-172,-170,-66,-82
41,-36,-77,-2,60,-56,-120,-136,-16,-99,-25,-96
49,-50,-99,1,74,-74,-48,-36,48,-84,-13,-101
33,-52,-85,10,59,-68,-44,-50,46,-76,-3,-96
39,-56,-95,8,68,-75,-23,-9,79,-65,10,-92
34,-51,-85,9,60,-68,-24,-26,74,-68,0,-92
47,-46,-94,-1,71,-70,-16,-3,84,-53,10,-87
45,-43,-88,-1,66,-65,-10,-4,79,-56,2,-86
52,-37,-89,-7,71,-63,-6,18,95,-45,7,-79
49,-34,-83,-7,66,-58,15,40,107,-40,16,-79
52,-28,-80,-12,66,-54,29,63,119,-32,29,-72
55,-22,-77,-16,66,-49,45,106,146,-26,29,-71
55,-16,-71,-19,63,-43,72,143,176,-13,37,-65
59,-12,-71,-24,65,-41,99,193,210,7,51,-57
59,-3,-62,-28,61,-32,121,236,245,31,64,-49
74,18,-56,-46,65,-19,144,278,285,54,88,-34
80,37,-43,-59,61,-3,152,304,318,88,120,-12
85,63,-23,-74,54,19,147,295,334,117,149,16
102,82,-20,-92,61,31,109,248,318,115,158,37
109,82,-27,-95,68,27,39,128,248,84,138,26
112,62,-49,-87,80,6,-16,21,146,26,90,-16
102,25,-77,-63,89,-26,-52,-30,89,-21,47,-51
78,2,-75,-39,76,-36,-52,-63,84,-53,28,-66
65,14,-50,-39,57,-18,-34,-65,87,-31,35,-51
94,60,-35,-77,64,12,-31,-64,95,0,62,-29
126,97,-29,-112,77,34,-22,-66,95,3,72,-26
139,97,-42,-118,91,27,-42,-64,91,3,71,-18
111,60,-51,-86,80,5,-68,-66,88,-17,67,-18
66,4,-62,-35,64,-29,-65,-68,56,-42,31,-57
53,-30,-83,-11,68,-56,-63,-76,40,-63,-2,-82
54,-38,-93,-8,74,-65,-62,-77,47,-55,4,-78
44,-49,-94,3,70,-71,-57,-79,37,-68,-9,-91
43,-54,-97,6,70,-75,-66,-88,39,-60,-1,-90
43,-60,-103,9,73,-81,-62,-78,31,-65,-15,-97
39,-52,-91,7,66,-72,-68,-95,29,-52,-6,-86
49,-53,-102,2,76,-77,-67,-73,39,-52,0,-81
29,-50,-79,10,54,-64,-69,-98,29,-51,0,-81
74,-30,-104,-22,89,-67,-77,-79,40,-28,40,-52
42,-11,-53,-15,47,-32,4,0,139,34,68,-31
238,137,-101,-187,170,18,-144,12,437,461,440,214
453,205,-247,-329,350,-21,-696,-717,-142,97,272,204
159,145,-14,-152,86,66,-1163,-1777,-1221,-694,-336,-101
8,162,154,-85,-73,158,-896,-1290,-933,-460,-196,-54
8,107,99,-57,-46,102,-328,-430,-293,-176,-45,-22
9,-14,-23,2,16,-18,-124,-201,-99,-119,-48,-85
38,-69,-107,16,73,-88,-38,-35,17,-60,1,-81
15,-72,-86,29,51,-79,-5,-45,27,-61,1,-89
27,-69,-97,21,62,-83,-1,-15,60,-39,21,-79
20,-66,-86,23,54,-76,21,-9,55,-50,10,-82
25,-62,-87,19,56,-74,24,0,60,-37,18,-79
25,-59,-85,17,55,-72,27,16,61,-39,13,-77
26,-54,-79,14,53,-66,35,25,68,-33,23,-71
19,-57,-76,19,48,-66,55,57,85,-26,31,-66
5,-64,-69,29,38,-66,70,80,102,-20,42,-63
10,-57,-67,24,39,-62,86,114,126,-12,52,-57
12,-49,-61,19,36,-54,106,147,146,-6,52,-54
17,-41,-58,12,37,-49,127,196,179,7,56,-45
18,-33,-51,8,35,-42,153,242,213,28,63,-39
35,-11,-46,-12,40,-28,184,295,265,65,95,-24
58,17,-41,-37,49,-11,197,324,298,91,111,-2
64,37,-27,-50,45,5,193,321,312,118,141,17
73,59,-15,-65,44,22,174,299,317,133,168,40
64,49,-14,-56,39,17,122,211,272,113,154,45
65,34,-32,-49,48,1,49,89,179,64,118,25
66,10,-57,-38,61,-23,17,3,94,-1,68,-19
43,-27,-70,-8,57,-48,18,-40,70,-34,58,-43
48,-11,-59,-18,53,-34,10,-39,70,-27,62,-28
61,16,-45,-38,53,-15,14,-25,73,-16,58,-18
94,49,-45,-71,69,2,33,-13,99,-2,71,-7
125,79,-46,-101,85,16,31,-2,98,15,76,1
101,57,-44,-78,72,7,20,-15,80,14,74,10
62,13,-49,-37,55,-18,7,-34,65,-7,70,8
35,-33,-68,-1,52,-50,-2,-38,41,-51,29,-38
27,-52,-79,13,54,-66,-6,-43,33,-61,15,-57
31,-58,-89,14,60,-73,-5,-36,33,-62,15,-61
19,-62,-81,22,50,-71,-4,-45,24,-71,7,-67
23,-67,-90,22,57,-78,-7,-36,27,-64,13,-55
12,-69,-80,29,46,-74,-1,-41,15,-71,-4,-56
32,-56,-88,12,61,-72,-12,-36,29,-44,19,-34
23,-57,-79,17,51,-68,5,-25,36,-65,7,-45
36,-41,-77,2,57,-59,-20,-49,47,-24,48,-10
43,-44,-86,1,65,-65,27,17,67,-37,39,-5
59,35,-24,-47,42,6,53,86,309,250,265,121
373,175,-198,-273,285,-12,-326,-177,328,453,520,327
299,143,-156,-221,227,-6,-933,-1312,-769,-379,-68,81
16,139,123,-77,-54,131,-1070,-1696,-1261,-683,-333,-71
10,159,150,-85,-70,154,-528,-731,-545,-266,-63,18
-35,39,74,-2,-55,56,-126,-230,-155,-141,-21,10
-7,-56,-49,31,21,-52,-10,-58,-3,-55,34,16
-10,-67,-57,39,24,-62,58,14,59,-37,31,-4
-10,-61,-51,36,20,-56,57,25,68,-17,53,-6
0,-56,-56,28,28,-55,86,67,108,-6,75,-4
-14,-50,-36,32,11,-43,90,48,106,-15,78,1
-8,-45,-37,27,15,-41,97,71,115,-16,90,6
-17,-38,-21,28,2,-29,102,67,113,-19,81,9
-11,-30,-19,21,5,-25,112,94,115,-5,88,15
-10,-22,-12,16,1,-17,127,116,126,-3,83,15
-7,-15,-8,11,1,-11,133,145,147,7,85,15
-5,-7,-1,6,-2,-4,155,182,165,20,79,16
-2,1,3,0,-3,2,182,223,202,32,86,27
-1,11,13,-5,-7,12,216,281,246,58,108,37
-12,18,30,-3,-21,23,245,332,298,98,141,59
-17,33,51,-8,-34,42,271,367,332,125,173,75
3,67,64,-35,-31,65,277,388,356,151,184,90
11,88,77,-50,-33,82,269,378,380,181,213,126
14,102,89,-58,-38,95,230,313,356,199,230,139
25,102,78,-64,-27,90,159,205,284,161,212,130
6,72,66,-39,-30,69,111,105,188,98,170,100
-14,41,56,-14,-35,48,84,48,135,70,137,64
-12,32,44,-10,-28,38,80,34,124,70,142,60
-14,46,61,-16,-38,53,94,34,115,69,138,61
-4,91,96,-44,-50,93,110,42,140,74,145,79
12,124,112,-68,-50,118,119,54,161,93,165,110
15,119,104,-67,-45,111,107,47,150,85,160,106
-2,95,96,-47,-49,95,105,36,139,68,152,101
-35,48,83,-7,-59,65,104,29,115,60,126,76
-58,19,77,19,-68,48,103,25,101,40,104,42
-57,16,74,20,-66,45,97,24,108,38,115,48
-67,3,70,32,-69,36,103,28,107,24,105,43
-71,-1,71,36,-71,35,102,20,113,36,114,47
-71,-11,60,40,-65,24,112,31,115,25,108,45
-87,-14,73,50,-80,30,109,22,116,33,109,43
-70,-10,60,40,-65,25,108,44,123,41,114,44
-94,-9,85,52,-89,38,117,29,120,35,104,32
-70,9,79,30,-74,44,91,28,137,86,147,56
-97,42,139,27,-118,90,170,118,215,128,180,78
73,192,119,-133,-23,155,68,142,501,568,568,339
319,255,-64,-287,191,95,-424,-511,16,298,473,371
43,179,136,-111,-46,157,-922,-1600,-1127,-615,-238,-7
-123,201,324,-39,-224,262,-771,-1279,-971,-463,-170,0
-124,159,283,-18,-204,221,-200,-369,-254,-102,84,108
-152,54,205,49,-178,129,35,-108,-11,-7,113,92
-92,34,126,29,-110,80,122,63,123,79,175,106
-101,35,136,33,-119,85,154,80,134,77,169,92
-101,27,128,37,-115,77,152,94,153,99,197,98
-111,25,136,42,-124,80,174,102,155,92,193,94
-119,18,138,50,-128,78,170,96,153,103,195,100
-127,23,150,52,-138,86,187,118,163,101,196,102
-112,46,158,32,-135,101,191,126,165,105,193,104
-101,51,152,24,-127,101,202,158,184,107,198,108
-106,51,157,27,-132,104,218,173,195,108,206,109
-96,57,153,19,-125,105,233,205,224,118,214,111
-106,53,159,26,-133,106,250,245,249,126,215,109
-109,58,167,25,-138,113,275,289,283,155,222,125
-106,71,177,17,-142,124,305,336,324,177,235,126
-97,93,190,2,-144,141,338,382,361,204,265,139
-88,119,207,-16,-148,162,347,415,398,237,289,162
-88,139,227,-26,-158,183,336,409,418,263,311,173
-60,169,229,-54,-144,198,327,388,422,289,338,198
-33,184,217,-75,-125,200,274,311,379,269,334,200
-50,158,207,-54,-129,182,213,185,285,209,290,169
-84,119,202,-18,-143,160,176,112,197,144,230,131
-117,88,206,14,-162,147,163,74,169,99,195,95
-127,77,204,25,-166,140,169,57,170,95,195,79
-103,103,206,-1,-154,154,170,63,163,99,195,89
-67,144,210,-39,-139,177,181,81,176,107,194,109
-45,160,205,-57,-125,182,181,82,183,110,203,118
-47,150,196,-52,-122,173,175,69,166,96,189,115
-80,113,192,-17,-136,152,170,57,148,85,154,110
-103,68,171,17,-137,119,164,49,117,45,123,124
-100,49,150,25,-125,99,160,43,95,21,112,196
-105,35,139,35,-122,87,151,46,94,23,111,308
-117,20,137,48,-127,79,153,44,87,7,95,406
-112,16,129,48,-121,72,145,43,87,16,99,491
-120,3,123,59,-122,62,154,49,80,-9,78,525
-115,-1,114,58,-115,56,137,32,79,14,98,560
-118,-17,101,67,-109,42,153,47,76,-6,82,566
-103,-2,101,52,-102,49,132,15,72,15,97,578
-76,14,90,31,-83,51,121,44,76,20,107,597
-85,67,152,9,-119,109,206,143,246,170,220,674
185,210,25,-197,80,117,-39,28,409,545,593,932
241,190,-51,-215,146,69,-599,-913,-486,-142,141,736
-35,155,191,-60,-114,172,-934,-1650,-1311,-791,-396,421
-101,171,273,-35,-187,221,-550,-906,-757,-402,-142,519
-130,76,205,27,-168,140,-45,-233,-216,-188,-33,525
-101,-9,93,55,-97,42,85,-50,-46,-104,6,500
-89,-48,40,68,-64,-4,159,73,45,-64,38,496
-92,-50,42,70,-67,-3,163,63,49,-70,29,480
-71,-44,27,57,-49,-8,179,101,74,-59,42,479
-78,-43,35,60,-56,-4,189,89,59,-71,28,462
-61,-36,24,48,-42,-6,181,105,72,-60,34,460
-62,-35,27,48,-44,-4,189,105,69,-68,26,446
-52,-30,22,41,-37,-4,189,114,70,-57,34,441
-46,-27,20,36,-32,-3,205,145,82,-53,34,430
-41,-24,17,32,-29,-3,211,163,92,-46,36,422
-33,-19,14,25,-23,-2,217,194,104,-38,41,419
-27,-16,11,22,-19,-2,235,231,128,-34,39,414
-22,-12,10,17,-15,-1,258,278,165,-23,47,412
-18,-3,15,10,-16,6,285,325,200,-2,68,407
-15,5,20,5,-18,12,309,367,237,22,87,405
-8,15,23,-4,-16,19,316,388,266,42,107,415
4,33,29,-19,-12,30,311,377,277,66,135,429
26,53,27,-40,0,40,274,340,266,80,147,431
38,49,11,-44,13,30,208,249,210,61,132,419
20,19,0,-19,10,9,144,135,116,2,85,383
12,-19,-30,4,21,-24,109,76,44,-66,31,334
15,-43,-57,14,36,-50,105,42,10,-97,14,301
4,-40,-43,18,24,-41,104,32,7,-86,17,293
21,-12,-33,-4,27,-23,113,49,26,-70,23,303
47,23,-24,-34,35,-1,127,61,45,-69,37,314
55,27,-28,-41,41,0,118,53,41,-69,36,312
76,20,-56,-48,66,-18,109,43,30,-70,20,303
40,-24,-64,-8,52,-44,96,31,11,-81,16,282
1,-81,-81,40,41,-81,85,27,-28,-121,-14,239
3,-96,-99,47,51,-98,76,22,-37,-136,-39,211
2,-105,-107,52,55,-106,74,27,-33,-134,-38,197
-14,-115,-101,65,44,-108,77,16,-38,-138,-44,186
-9,-123,-114,67,52,-118,71,23,-27,-129,-40,186
-5,-122,-117,64,56,-119,81,17,-33,-144,-51,170
-1,-117,-116,59,58,-116,66,11,-28,-123,-24,176
-13,-121,-108,67,48,-114,80,25,-37,-139,-44,156
-14,-109,-95,62,41,-102,57,-6,-37,-92,-8,166
-9,-116,-107,62,50,-111,84,52,-12,-107,-8,162
34,-27,-62,-4,48,-44,118,123,214,147,181,281
348,115,-234,-231,291,-59,-234,-98,250,377,446,493
311,71,-239,-191,275,-84,-829,-1167,-782,-430,-113,241
26,63,37,-45,-6,50,-997,-1620,-1316,-776,-406,71
13,90,77,-52,-33,83,-488,-713,-652,-353,-130,177
-29,-35,-6,32,-12,-20,-74,-208,-244,-230,-101,128
-10,-130,-120,70,55,-125,39,-33,-90,-150,-65,97
-1,-136,-135,69,67,-135,105,60,-33,-128,-65,76
-5,-134,-129,70,62,-131,96,43,-29,-121,-59,72
6,-135,-141,65,74,-138,112,80,-6,-112,-47,73
-10,-135,-125,72,58,-130,120,65,-14,-113,-48,65
-3,-135,-132,70,65,-133,129,86,4,-100,-34,68
-11,-132,-121,72,55,-126,137,88,3,-102,-37,61
-5,-126,-121,65,58,-123,140,101,20,-88,-26,61
2,-122,-124,60,63,-122,150,125,32,-83,-26,54
12,-117,-129,53,70,-123,160,156,53,-73,-19,53
10,-113,-123,51,67,-118,184,189,74,-63,-16,48
7,-108,-115,51,61,-111,203,227,98,-48,-9,45
9,-101,-110,46,60,-105,227,274,136,-35,4,45
12,-89,-102,39,57,-95,257,322,172,-18,15,45
16,-80,-97,32,57,-88,278,361,210,7,32,58
22,-69,-91,24,56,-80,289,374,243,39,52,74
54,-35,-90,-9,72,-62,277,368,254,67,77,92
81,-9,-90,-36,86,-50,234,318,241,74,97,93
76,-13,-88,-31,82,-51,171,210,184,50,81,83
60,-43,-104,-9,82,-73,117,113,83,-6,30,66
45,-87,-132,22,88,-109,92,50,20,-64,-23,22
41,-104,-145,32,93,-124,90,16,8,-95,-49,-10
33,-94,-127,30,80,-110,90,22,-3,-91,-44,-16
58,-54,-112,-2,85,-83,85,35,6,-80,-31,1
77,-25,-102,-25,90,-63,86,45,31,-78,-26,26
79,-25,-105,-27,93,-65,83,41,25,-70,-23,20
97,-26,-123,-35,111,-75,80,22,-2,-73,-31,2
49,-76,-126,14,88,-100,72,10,-23,-92,-58,-19
20,-129,-149,55,85,-138,71,9,-32,-123,-93,-59
33,-136,-169,51,101,-152,63,1,-29,-126,-108,-64
17,-155,-172,69,94,-163,61,6,-29,-134,-122,-66
6,-161,-166,77,86,-163,68,-10,-32,-130,-120,-81
17,-159,-176,71,96,-167,68,2,-27,-124,-117,-83
14,-156,-170,71,92,-163,65,-4,-33,-129,-127,-89
38,-145,-183,53,111,-164,52,8,-20,-109,-109,-78
35,-145,-179,55,107,-162,65,14,-30,-132,-133,-95
56,-128,-184,36,120,-156,30,-17,-24,-86,-84,-69
49,-132,-182,42,116,-157,92,54,11,-91,-91,-71
128,-15,-143,-56,136,-79,78,121,281,253,183,107
425,118,-306,-271,365,-94,-362,-252,161,317,339,272
275,59,-216,-167,246,-79,-961,-1404,-978,-558,-292,-20
22,66,44,-44,-11,55,-978,-1539,-1247,-700,-428,-111
19,61,42,-40,-12,52,-385,-568,-521,-304,-188,-29
-23,-76,-53,50,15,-64,-62,-192,-220,-222,-186,-103
8,-159,-167,76,87,-163,25,-23,-86,-155,-142,-127
0,-172,-171,86,86,-171,83,29,-43,-146,-156,-136
1,-167,-169,83,85,-168,87,32,-27,-130,-141,-134
6,-164,-171,79,89,-167,112,61,-13,-133,-138,-135
0,-161,-161,81,81,-160,101,43,-20,-130,-134,-135
9,-156,-165,74,87,-160,112,65,-2,-124,-125,-134
3,-154,-156,75,80,-155,120,64,-7,-127,-127,-136
10,-149,-159,70,84,-154,128,83,7,-117,-123,-134
7,-146,-152,70,80,-149,138,101,20,-114,-123,-131
9,-143,-152,67,81,-147,150,139,37,-104,-118,-129
10,-138,-148,64,79,-143,169,170,61,-100,-121,-131
9,-136,-145,64,78,-140,194,210,86,-91,-110,-129
16,-128,-144,57,80,-136,225,264,124,-72,-96,-131
18,-117,-135,50,76,-126,244,309,167,-53,-79,-126
21,-104,-125,42,74,-115,259,340,195,-29,-63,-115
25,-89,-114,33,69,-101,262,347,216,-8,-43,-96
42,-65,-107,12,75,-86,252,332,226,15,-24,-82
66,-35,-101,-15,84,-68,206,271,214,20,-16,-79
63,-41,-104,-11,84,-72,132,157,127,-27,-31,-81
54,-74,-127,11,91,-101,74,63,31,-89,-80,-115
38,-116,-154,39,96,-134,51,8,-20,-135,-127,-153
27,-135,-162,54,94,-148,49,-16,-38,-163,-149,-164
33,-110,-144,39,89,-127,53,-4,-22,-160,-133,-155
63,-74,-138,5,101,-106,74,8,-12,-137,-115,-147
105,-37,-142,-33,123,-90,77,20,7,-133,-115,-150
113,-32,-145,-40,129,-88,63,16,1,-139,-110,-151
83,-61,-144,-11,114,-102,60,-5,-23,-138,-111,-148
39,-117,-156,39,98,-137,52,-19,-37,-158,-134,-166
15,-157,-171,71,93,-164,52,-30,-62,-198,-171,-200
13,-155,-167,71,90,-161,43,-32,-69,-197,-166,-206
3,-173,-175,85,89,-174,43,-26,-68,-205,-179,-215
4,-176,-180,86,93,-178,34,-37,-65,-198,-180,-215
15,-173,-189,79,102,-181,35,-22,-58,-200,-174,-213
3,-186,-189,91,96,-187,36,-41,-61,-201,-178,-210
21,-182,-203,81,112,-193,25,-28,-50,-186,-158,-197
-10,-189,-179,100,85,-184,40,-41,-68,-210,-181,-204
9,-179,-187,85,99,-183,8,-50,-60,-167,-126,-180
2,-158,-160,78,81,-158,72,25,-12,-168,-133,-187
106,-31,-136,-37,121,-83,20,64,284,222,168,12
412,89,-322,-250,367,-116,-462,-381,51,183,250,126
223,26,-197,-125,210,-85,-1028,-1532,-1113,-705,-404,-177
-7,43,50,-18,-29,46,-949,-1494,-1217,-722,-460,-239
8,30,22,-20,-7,26,-363,-526,-502,-348,-229,-166
-38,-127,-89,82,26,-108,-72,-204,-244,-283,-234,-224
-4,-190,-186,98,91,-188,21,-34,-104,-208,-191,-238
-16,-197,-181,107,82,-188,62,-6,-78,-203,-207,-243
-16,-200,-184,108,84,-191,65,0,-60,-183,-189,-237
-13,-193,-180,103,84,-186,85,23,-52,-190,-189,-236
-18,-192,-174,105,78,-182,81,16,-55,-183,-182,-235
-12,-185,-174,99,81,-179,92,41,-41,-180,-176,-232
-18,-184,-166,101,74,-174,98,32,-46,-181,-175,-230
-12,-179,-167,96,78,-173,111,61,-33,-172,-168,-226
-12,-173,-161,93,75,-167,125,84,-20,-170,-168,-224
-9,-170,-161,90,76,-165,140,112,4,-162,-161,-220
-8,-164,-156,87,74,-160,154,148,23,-157,-160,-219
-6,-161,-155,84,75,-158,176,191,50,-137,-152,-213
-2,-153,-150,78,74,-151,206,241,90,-111,-143,-201
2,-138,-140,68,72,-139,233,288,128,-85,-129,-193
8,-124,-133,58,71,-128,247,324,165,-58,-107,-181
23,-102,-125,40,74,-113,240,333,192,-29,-80,-169
39,-86,-125,24,82,-105,237,311,203,6,-54,-168
47,-79,-125,16,86,-102,190,246,173,6,-44,-172
48,-76,-124,14,86,-100,110,127,87,-42,-71,-174
33,-103,-136,36,85,-119,61,34,-1,-101,-124,-181
14,-147,-160,67,87,-153,35,-16,-61,-152,-167,-212
18,-157,-176,70,97,-166,29,-41,-84,-168,-178,-226
16,-136,-152,60,84,-144,42,-28,-67,-157,-163,-212
38,-93,-131,28,84,-112,60,-14,-55,-134,-150,-197
55,-72,-127,9,91,-100,62,-5,-55,-112,-143,-191
46,-78,-125,17,86,-101,56,2,-55,-120,-134,-185
57,-80,-137,12,97,-108,54,-17,-55,-137,-145,-189
24,-131,-155,54,90,-143,46,-38,-73,-159,-180,-221
-3,-175,-172,89,85,-173,45,-48,-104,-191,-209,-250
-3,-179,-176,92,87,-178,37,-54,-105,-190,-209,-255
-17,-201,-184,109,84,-192,36,-43,-104,-204,-214,-262
-14,-200,-186,107,86,-193,29,-51,-107,-197,-208,-258
-10,-206,-195,108,93,-200,29,-37,-102,-194,-209,-260
-16,-210,-194,113,89,-202,27,-50,-109,-197,-209,-262
-4,-209,-206,107,101,-208,18,-33,-93,-181,-197,-256
-25,-221,-196,123,86,-208,29,-41,-105,-203,-217,-266
11,-192,-203,90,107,-197,0,-56,-90,-158,-172,-232
-2,-179,-177,90,88,-178,68,9,-46,-153,-184,-230
107,-54,-162,-26,135,-108,13,46,237,217,121,-36
409,59,-350,-234,379,-145,-467,-395,10,177,199,78
200,-18,-218,-91,209,-118,-1039,-1544,-1138,-691,-441,-219
-30,13,43,9,-37,28,-963,-1512,-1240,-706,-490,-259
-6,14,21,-5,-14,18,-364,-542,-527,-333,-259,-178
-45,-137,-92,92,24,-114,-82,-219,-263,-271,-264,-248
-15,-212,-197,114,91,-204,11,-50,-127,-201,-222,-267
-35,-221,-186,128,75,-203,60,-19,-105,-201,-238,-272
-31,-216,-186,124,78,-201,59,-8,-84,-180,-221,-264
-28,-213,-185,121,79,-199,87,13,-72,-186,-223,-264
-33,-210,-177,121,72,-194,75,5,-74,-180,-217,-260
-25,-205,-180,115,78,-192,85,28,-58,-176,-211,-258
-31,-203,-172,118,71,-187,95,27,-60,-177,-208,-255
-22,-197,-175,110,77,-185,108,63,-47,-170,-199,-250
-25,-193,-168,109,72,-180,119,77,-41,-164,-198,-248
-21,-189,-167,105,73,-178,130,110,-17,-151,-188,-242
-20,-183,-164,102,72,-173,154,144,5,-143,-186,-241
-19,-180,-160,100,71,-170,182,191,32,-128,-177,-236
-14,-174,-160,94,73,-166,209,245,68,-107,-168,-229
-16,-168,-153,92,69,-160,230,285,101,-88,-154,-222
-16,-158,-143,87,64,-150,250,322,138,-59,-128,-204
1,-131,-132,65,67,-131,257,330,165,-33,-102,-177
27,-100,-127,36,77,-113,242,313,173,-23,-84,-154
49,-84,-132,18,91,-108,187,245,146,-11,-69,-139
46,-89,-135,22,90,-111,116,123,61,-45,-91,-152
29,-120,-149,45,89,-134,67,27,-28,-109,-148,-193
6,-162,-168,78,88,-165,42,-22,-86,-151,-186,-224
4,-173,-177,85,91,-175,37,-44,-103,-172,-205,-239
23,-149,-172,64,97,-160,36,-45,-87,-162,-203,-230
28,-114,-142,44,85,-127,56,-44,-78,-141,-173,-201
32,-84,-116,26,74,-100,68,-45,-80,-119,-158,-185
62,-70,-133,4,98,-101,57,-45,-80,-113,-160,-185
59,-94,-152,18,106,-123,54,-45,-79,-137,-162,-186
7,-148,-155,71,82,-152,46,-47,-95,-164,-191,-215
-16,-191,-176,104,80,-183,44,-53,-123,-197,-231,-247
-9,-199,-190,104,91,-194,34,-59,-125,-197,-233,-243
-12,-205,-193,109,90,-199,33,-50,-124,-206,-242,-260
-22,-214,-192,119,85,-203,25,-62,-123,-213,-236,-264
-19,-217,-198,118,90,-207,24,-48,-115,-212,-229,-256
-40,-222,-182,131,71,-202,27,-62,-120,-210,-232,-256
-16,-214,-198,115,91,-205,19,-47,-107,-190,-212,-241
-34,-217,-183,126,75,-200,34,-46,-115,-207,-234,-251
-6,-200,-194,103,94,-197,9,-63,-110,-165,-188,-223
-10,-190,-180,100,85,-185,69,6,-77,-172,-205,-232
75,-73,-148,-1,112,-111,16,53,194,190,81,-31
399,44,-355,-221,377,-155,-450,-373,-6,182,184,100
192,-43,-235,-75,214,-139,-1025,-1531,-1141,-685,-449,-198
-36,-15,21,26,-29,4,-989,-1563,-1300,-736,-520,-275
-6,-2,4,4,-5,1,-397,-583,-585,-355,-288,-243
-67,-155,-88,111,11,-121,-86,-227,-296,-280,-287,-270
-20,-221,-200,121,90,-210,5,-58,-160,-209,-236,-247
-48,-233,-185,141,69,-209,56,-18,-131,-205,-242,-259
-51,-236,-184,144,67,-210,59,-8,-115,-180,-218,-246
-45,-230,-184,138,69,-207,76,15,-104,-187,-221,-249
-56,-229,-174,143,59,-201,75,1,-106,-184,-217,-244
-47,-224,-178,136,66,-201,93,26,-89,-178,-212,-242
-57,-224,-168,141,56,-196,92,27,-93,-183,-213,-238
-47,-217,-171,132,62,-194,104,58,-75,-175,-207,-231
-47,-211,-164,130,59,-187,122,78,-59,-170,-206,-230
-41,-204,-163,123,61,-183,136,112,-37,-160,-197,-223
-38,-197,-160,118,61,-178,152,144,-15,-153,-193,-220
-33,-190,-157,112,62,-173,170,185,6,-146,-187,-213
-32,-182,-149,107,59,-165,203,238,40,-127,-181,-202
-32,-174,-142,103,55,-157,231,286,83,-100,-164,-193
-11,-148,-137,79,64,-142,249,323,125,-74,-142,-181
16,-123,-139,54,78,-131,254,314,147,-47,-115,-165
30,-111,-141,41,86,-126,235,300,157,-30,-93,-140
29,-111,-140,41,84,-125,185,257,141,-21,-87,-117
32,-109,-141,38,87,-125,115,137,56,-58,-105,-133
20,-123,-143,52,81,-133,60,40,-41,-130,-156,-168
0,-161,-160,81,80,-160,38,-14,-110,-185,-198,-201
3,-169,-171,83,87,-170,42,-45,-127,-202,-216,-209
-6,-155,-149,81,72,-152,44,-33,-109,-183,-209,-192
23,-120,-143,49,84,-131,61,-20,-109,-174,-181,-180
61,-85,-146,12,104,-115,74,-11,-109,-175,-165,-174
65,-78,-144,7,104,-110,42,-9,-112,-168,-163,-175
49,-97,-146,24,98,-121,33,-34,-115,-174,-170,-173
-4,-147,-143,76,70,-145,34,-35,-115,-198,-196,-187
-21,-190,-169,106,75,-180,26,-38,-130,-228,-236,-214
7,-178,-185,85,96,-181,25,-41,-122,-228,-230,-202
6,-169,-175,82,91,-172,18,-12,-111,-218,-216,-197
24,-131,-155,54,90,-143,16,17,-78,-161,-164,-152
77,37,-40,-57,59,-2,42,101,66,-14,-7,-12
82,220,138,-152,-28,179,147,297,292,206,189,163
46,408,363,-227,-158,385,289,497,545,440,399,352
-34,609,643,-287,-339,626,331,521,737,651,586,515
-99,795,894,-348,-497,845,285,387,822,841,775,688
-154,958,1113,-402,-634,1035,132,-51,722,910,880,812
12,1267,1255,-640,-622,1261,-338,-637,642,1348,1350,1209
217,1346,1129,-781,-456,1237,-695,-764,481,1356,1416,1295
26,517,490,-272,-232,503,-428,-546,-96,266,314,349
-83,-254,-171,168,44,-213,-68,-234,-371,-329,-323,-290
-44,-375,-331,210,144,-353,17,-77,-310,-381,-362,-339
-71,-426,-354,249,142,-390,26,-100,-340,-445,-427,-396
-55,-455,-400,255,173,-427,24,-76,-319,-436,-425,-402
-47,-462,-415,255,184,-438,29,-88,-326,-475,-459,-427
-60,-489,-429,274,185,-459,34,-85,-330,-472,-461,-431
-64,-506,-442,285,189,-474,25,-83,-354,-501,-488,-448
-64,-532,-469,298,203,-500,20,-88,-388,-534,-510,-466
-54,-565,-511,310,229,-538,10,-82,-415,-569,-543,-491
-39,-608,-569,324,265,-588,4,-95,-467,-631,-594,-535
-41,-667,-626,354,293,-646,-3,-100,-525,-704,-661,-594
-33,-726,-693,380,330,-709,-13,-108,-590,-785,-738,-660
-14,-786,-772,400,380,-779,-22,-113,-651,-862,-805,-707
-4,-835,-830,420,413,-832,-33,-108,-708,-935,-873,-747
-4,-846,-842,425,419,-843,-26,-101,-741,-983,-902,-774
-16,-843,-826,430,405,-834,-9,-93,-742,-991,-901,-764
-30,-799,-768,415,369,-783,20,-72,-706,-961,-884,-730
-41,-718,-677,380,319,-697,65,-35,-632,-899,-826,-683
-63,-617,-554,340,246,-585,102,4,-521,-782,-722,-596
-76,-495,-419,286,171,-457,115,30,-375,-627,-591,-488
-82,-377,-295,229,106,-335,100,28,-261,-455,-438,-368
-80,-277,-197,178,58,-236,83,7,-196,-314,-300,-258
-73,-227,-154,150,41,-190,80,-5,-154,-233,-227,-193
-80,-207,-127,143,24,-167,80,-10,-142,-196,-194,-162
-83,-197,-114,140,16,-155,81,-18,-132,-178,-172,-148
-73,-161,-87,117,7,-124,78,-10,-118,-158,-152,-133
-39,-97,-58,68,10,-77,89,15,-98,-128,-117,-94
-11,-64,-53,38,21,-59,101,19,-89,-109,-103,-74
-5,-55,-50,30,23,-52,93,10,-82,-109,-111,-72
-22,-91,-69,57,24,-79,92,5,-75,-111,-116,-71
-72,-155,-83,114,6,-119,86,-6,-101,-135,-140,-109
-94,-183,-89,139,-2,-136,85,-9,-118,-172,-171,-149
-92,-193,-101,143,4,-146,79,-17,-113,-165,-170,-152
-94,-202,-108,149,7,-155,84,-1,-108,-158,-163,-153
-106,-204,-98,155,-4,-150,87,-6,-111,-158,-164,-150
-102,-204,-102,153,1,-153,81,8,-100,-140,-147,-138
-112,-205,-93,159,-10,-148,91,9,-108,-155,-158,-144
-98,-193,-96,146,-1,-144,76,11,-88,-114,-132,-122
-111,-199,-88,155,-11,-143,97,21,-88,-128,-146,-137
-115,-182,-67,149,-24,-124,60,-22,-76,-72,-106,-105
-107,-179,-72,143,-17,-125,114,60,-36,-67,-108,-112
-90,-83,7,87,-49,-38,142,85,128,166,83,13
242,122,-120,-182,181,1,-248,-115,250,536,490,350
236,113,-123,-174,179,-6,-859,-1097,-705,-206,-1,160
-97,55,152,21,-125,103,-1012,-1581,-1339,-674,-410,-92
-143,34,177,54,-160,105,-447,-671,-680,-275,-164,-45
-178,-93,85,135,-131,-4,-41,-164,-274,-150,-134,-66
-168,-171,-3,170,-82,-87,63,-21,-133,-63,-80,-48
-144,-168,-24,156,-60,-96,134,65,-72,-34,-52,-49
-149,-163,-13,156,-68,-88,133,63,-76,-26,-58,-44
-139,-157,-18,149,-60,-87,160,111,-47,-15,-43,-38
-146,-153,-7,149,-69,-80,153,85,-57,-21,-46,-40
-137,-146,-9,142,-64,-77,169,119,-35,-5,-30,-32
-139,-141,-2,140,-68,-71,181,123,-37,-8,-31,-33
-153,-152,2,152,-77,-75,185,145,-17,17,-15,-29
-158,-150,8,154,-82,-71,196,169,2,20,-9,-24
-155,-141,14,148,-85,-63,210,194,27,37,3,-4
-150,-132,18,141,-84,-57,223,235,49,65,17,8
-149,-123,26,136,-87,-48,249,269,77,85,38,19
-152,-110,42,131,-97,-34,285,316,117,105,59,36
-148,-95,53,121,-100,-21,304,359,158,135,80,54
-148,-65,83,106,-115,9,329,403,204,190,125,91
-139,-25,114,82,-126,44,336,410,238,221,151,118
-127,4,130,61,-128,67,342,390,256,255,181,140
-114,38,152,38,-133,95,316,373,252,285,216,184
-107,38,145,34,-126,91,238,288,195,257,206,185
-96,10,106,43,-101,58,175,168,82,197,154,146
-117,-42,74,79,-95,16,137,95,-1,114,99,105
-123,-81,42,102,-82,-19,113,78,-46,76,93,80
-109,-61,48,85,-78,-6,127,81,-49,87,100,98
-117,-26,90,71,-103,32,152,79,-28,112,99,119
-75,15,90,29,-83,53,158,81,-20,119,94,124
-54,22,75,16,-65,48,139,73,-36,103,85,119
-77,-10,67,43,-72,28,115,55,-65,89,73,104
-110,-57,53,83,-81,-2,119,40,-82,57,50,97
-149,-102,47,125,-98,-27,121,35,-108,26,29,88
-153,-115,38,134,-95,-38,112,34,-109,35,30,87
-153,-124,30,138,-91,-47,115,35,-110,25,15,76
-152,-125,27,138,-89,-49,107,25,-111,28,14,76
-149,-136,13,142,-81,-61,109,36,-109,24,3,69
-155,-138,16,146,-85,-61,101,19,-125,21,-1,69
-126,-129,-3,128,-62,-66,90,31,-113,27,20,75
-130,-123,8,127,-69,-58,96,22,-129,21,16,61
-115,-104,11,109,-63,-46,63,17,-108,77,72,89
-145,-106,39,125,-92,-33,126,74,-71,61,57,88
1,27,26,-14,-13,27,57,80,159,479,430,352
219,123,-96,-171,157,13,-398,-493,-202,374,478,462
-12,65,78,-27,-45,71,-912,-1561,-1357,-597,-275,134
-172,82,254,45,-214,168,-819,-1349,-1324,-567,-308,87
-165,22,187,71,-176,104,-274,-441,-588,-175,-41,126
-179,-100,79,139,-129,-10,-27,-147,-337,-96,-30,102
-148,-146,2,147,-75,-72,56,14,-200,-9,16,105
-153,-151,2,152,-77,-74,94,36,-188,-22,-1,80
-142,-150,-8,147,-67,-79,99,51,-177,-2,6,75
-169,-161,8,165,-88,-76,111,71,-171,-15,-27,52
-170,-160,10,164,-90,-74,110,77,-169,-22,-40,40
-160,-160,0,159,-80,-80,138,98,-145,-26,-47,17
-162,-160,2,161,-82,-79,146,106,-137,-26,-70,-12
-150,-160,-9,156,-71,-84,155,133,-117,-23,-97,-49
-153,-159,-6,156,-73,-83,159,152,-106,-22,-115,-67
-156,-153,3,155,-80,-75,180,193,-81,-18,-118,-75
-150,-149,1,149,-76,-74,205,231,-56,-20,-125,-93
-138,-144,-6,142,-66,-75,229,281,-24,-6,-116,-99
-130,-140,-10,135,-60,-75,251,323,10,8,-108,-95
-118,-135,-17,127,-50,-76,277,371,42,27,-101,-87
-112,-132,-20,122,-46,-76,292,395,78,53,-92,-82
-108,-128,-20,118,-44,-74,278,380,79,76,-86,-68
-105,-125,-20,115,-42,-72,269,371,74,89,-75,-49
-104,-123,-19,114,-42,-71,219,304,55,70,-65,-44
-84,-118,-34,101,-25,-76,151,188,-44,17,-105,-60
-80,-142,-62,112,-9,-101,109,100,-138,-46,-165,-97
-93,-183,-90,138,-1,-136,89,68,-192,-98,-206,-126
-99,-193,-94,146,-2,-143,91,72,-216,-115,-219,-122
-96,-173,-77,135,-10,-124,90,68,-203,-104,-202,-108
-66,-133,-67,100,1,-100,90,65,-197,-100,-191,-97
-53,-107,-54,80,1,-80,90,65,-182,-100,-190,-95
-28,-103,-75,66,24,-89,78,62,-191,-99,-189,-95
-30,-133,-103,82,37,-118,62,41,-224,-107,-197,-96
-77,-190,-113,134,18,-152,46,30,-239,-139,-231,-123
-83,-229,-146,157,31,-187,43,29,-264,-178,-260,-145
-73,-241,-168,157,48,-204,32,23,-265,-178,-249,-136
-81,-253,-172,167,46,-213,30,26,-265,-189,-263,-143
-87,-264,-177,176,45,-220,18,14,-265,-186,-267,-138
-70,-266,-195,168,63,-230,17,25,-270,-199,-265,-140
-77,-265,-188,171,56,-227,8,4,-291,-196,-261,-141
-53,-263,-210,159,79,-236,-4,17,-278,-182,-247,-130
-68,-275,-206,172,70,-240,1,-1,-291,-195,-259,-141
-33,-259,-226,146,97,-242,-36,-6,-282,-154,-221,-106
-49,-237,-188,143,70,-212,44,66,-217,-150,-217,-98
50,-130,-181,40,116,-155,-42,81,43,235,119,124
317,-51,-368,-133,343,-209,-545,-428,-304,96,118,210
122,-107,-229,-7,176,-168,-1075,-1496,-1408,-779,-540,-113
-40,-64,-23,52,-8,-43,-949,-1336,-1392,-734,-547,-140
-40,-86,-46,63,4,-66,-362,-446,-699,-382,-328,-85
-87,-237,-149,162,31,-193,-112,-162,-466,-313,-327,-145
-43,-299,-255,171,106,-277,-38,-2,-348,-241,-288,-145
-61,-305,-244,183,92,-274,0,3,-326,-243,-305,-154
-53,-306,-252,179,100,-278,4,30,-308,-229,-288,-147
-52,-302,-249,177,99,-275,17,46,-303,-239,-292,-152
-46,-300,-254,173,104,-277,17,40,-300,-233,-285,-149
-37,-299,-263,168,113,-281,44,65,-287,-235,-282,-147
-43,-300,-257,172,107,-279,37,61,-288,-235,-280,-144
-46,-308,-262,177,108,-285,45,95,-271,-226,-273,-141
-49,-307,-258,178,105,-282,54,105,-262,-222,-273,-138
-37,-298,-261,168,112,-279,58,140,-243,-213,-266,-135
-37,-293,-256,165,109,-274,83,179,-223,-209,-265,-134
-34,-285,-251,160,109,-268,105,217,-193,-197,-257,-126
-34,-280,-246,157,106,-263,130,264,-159,-179,-248,-118
-26,-268,-242,148,108,-255,156,304,-121,-158,-234,-109
-9,-247,-238,128,115,-242,166,340,-92,-134,-209,-103
5,-228,-233,112,119,-230,167,346,-74,-111,-186,-88
4,-223,-227,109,116,-225,160,321,-61,-103,-170,-69
-12,-227,-215,120,102,-221,111,260,-82,-93,-154,-52
2,-229,-230,114,116,-229,32,152,-161,-115,-174,-60
23,-238,-261,108,142,-249,-22,58,-261,-187,-232,-103
17,-272,-288,128,153,-280,-52,14,-311,-236,-276,-137
13,-287,-300,137,157,-293,-59,-9,-334,-244,-284,-149
26,-259,-285,117,156,-272,-46,-11,-320,-236,-277,-139
69,-217,-285,75,177,-251,-36,4,-291,-234,-280,-127
90,-194,-285,53,188,-240,-23,16,-288,-236,-280,-125
91,-193,-284,52,188,-239,-56,10,-304,-234,-285,-116
75,-223,-298,75,186,-260,-94,-9,-333,-234,-284,-118
26,-283,-310,129,168,-296,-87,-23,-342,-258,-299,-156
4,-318,-322,157,163,-320,-85,-31,-360,-291,-330,-184
13,-320,-333,154,173,-326,-84,-31,-359,-288,-320,-179
2,-333,-335,166,169,-334,-77,-26,-360,-297,-332,-191
2,-336,-338,167,170,-337,-83,-30,-360,-283,-327,-189
8,-343,-352,168,180,-347,-78,-18,-358,-290,-337,-197
-16,-360,-344,188,164,-352,-81,-33,-363,-280,-328,-189
-2,-355,-353,179,176,-354,-83,-8,-349,-277,-314,-181
-10,-345,-335,178,163,-339,-81,-31,-361,-286,-321,-185
40,-315,-356,138,198,-335,-102,-28,-331,-250,-277,-152
32,-302,-334,136,183,-318,-72,32,-276,-227,-272,-148
191,-165,-356,-13,274,-260,-195,47,-1,184,84,92
416,-76,-492,-170,454,-283,-698,-574,-439,-57,2,127
129,-161,-290,16,209,-225,-1210,-1643,-1529,-867,-613,-169
-20,-105,-85,63,32,-95,-972,-1287,-1351,-707,-527,-150
0,-144,-144,72,73,-144,-394,-414,-703,-415,-362,-130
-37,-312,-274,175,119,-292,-181,-177,-498,-358,-371,-198
1,-357,-358,178,180,-358,-95,-19,-374,-293,-336,-212
-17,-366,-349,192,166,-357,-73,-16,-378,-303,-353,-218
-6,-363,-356,185,175,-359,-66,8,-355,-281,-332,-207
-11,-359,-348,185,168,-353,-53,10,-351,-290,-339,-211
-11,-357,-347,184,168,-352,-51,11,-340,-277,-328,-204
-8,-353,-345,182,169,-349,-38,26,-329,-276,-326,-204
-12,-352,-341,182,164,-347,-35,35,-325,-271,-320,-200
-7,-345,-338,176,166,-341,-21,65,-311,-260,-314,-200
-9,-342,-333,176,162,-337,-11,78,-300,-255,-310,-198
-6,-337,-331,172,163,-334,14,121,-272,-245,-302,-194
-6,-332,-326,170,160,-329,31,156,-252,-239,-299,-196
-5,-329,-324,167,159,-326,44,199,-222,-230,-287,-190
2,-313,-315,155,159,-314,72,243,-190,-213,-275,-180
14,-292,-307,139,161,-299,91,283,-158,-192,-263,-170
20,-278,-298,130,159,-288,104,315,-122,-164,-241,-153
29,-265,-294,118,162,-279,106,314,-100,-145,-217,-135
36,-259,-295,112,165,-277,79,292,-89,-135,-200,-132
37,-258,-295,111,166,-276,25,209,-128,-126,-191,-126
43,-253,-296,106,170,-274,-42,90,-224,-173,-228,-129
41,-271,-312,115,177,-291,-98,10,-309,-239,-286,-164
26,-305,-331,140,178,-318,-118,-44,-360,-277,-320,-196
17,-310,-328,147,173,-319,-107,-57,-373,-293,-317,-197
44,-284,-327,120,186,-305,-102,-55,-354,-275,-300,-182
88,-243,-331,77,210,-287,-93,-54,-327,-243,-298,-177
104,-224,-329,60,217,-276,-85,-52,-322,-232,-300,-180
111,-225,-336,57,224,-280,-116,-47,-334,-248,-299,-180
79,-254,-333,88,206,-294,-133,-56,-348,-270,-304,-179
12,-324,-336,156,174,-330,-129,-69,-373,-300,-333,-203
-2,-348,-346,176,172,-347,-127,-69,-389,-322,-358,-224
5,-347,-351,171,178,-349,-127,-64,-382,-316,-356,-221
-13,-363,-350,188,169,-356,-122,-64,-387,-340,-367,-231
-17,-365,-348,191,166,-356,-134,-69,-384,-333,-349,-220
0,-365,-365,183,183,-365,-135,-58,-384,-337,-355,-225
3,-362,-365,180,184,-364,-145,-76,-387,-323,-341,-215
18,-359,-377,170,198,-368,-137,-57,-380,-322,-338,-216
-2,-361,-360,181,179,-360,-140,-90,-393,-320,-341,-215
30,-354,-384,162,207,-369,-162,-71,-375,-293,-300,-193
52,-310,-362,130,207,-336,-85,-9,-275,-225,-268,-168
195,-206,-401,5,298,-303,-249,-20,-7,180,88,93
358,-156,-513,-101,435,-334,-820,-725,-581,-198,-93,68
117,-169,-285,26,201,-226,-1282,-1757,-1623,-958,-689,-224
-18,-127,-109,72,46,-118,-983,-1253,-1331,-720,-542,-173
-23,-193,-170,108,74,-181,-417,-430,-714,-446,-390,-159
-48,-341,-293,194,123,-317,-223,-190,-522,-385,-394,-225
-14,-378,-365,196,176,-371,-145,-29,-405,-329,-359,-223
-32,-382,-351,207,160,-366,-114,-78,-410,-340,-374,-220
-27,-388,-361,208,168,-374,-108,-38,-386,-312,-345,-204
-34,-377,-343,206,155,-359,-97,-11,-394,-326,-356,-204
