I,II,III,aVR,aVL,aVF,V1,V2,V3,V4,V5,V6
10,0,-10,-5,10,-5,90,40,-5,45,25,-45
11,1,-9,-6,10,-4,90,44,-5,45,26,-44
17,5,-12,-11,14,-3,90,50,-5,45,30,-40
33,8,-25,-20,29,-8,86,55,-5,50,35,-37
38,13,-25,-25,32,-6,85,55,-5,50,35,-32
40,15,-25,-27,32,-5,85,55,-5,51,36,-29
46,20,-25,-33,35,-2,80,55,0,55,50,-26
49,24,-25,-36,37,0,75,55,8,54,61,-21
53,29,-24,-40,38,2,71,55,14,58,64,-19
52,32,-20,-42,36,6,66,55,21,60,71,-14
57,39,-18,-48,37,10,61,66,28,71,77,-11
70,56,-15,-62,43,20,57,70,32,80,83,-6
72,60,-11,-66,41,24,51,81,40,86,92,8
81,71,-10,-76,45,30,44,101,46,104,105,22
88,82,-6,-84,47,38,37,118,62,113,136,36
108,108,0,-108,54,54,31,133,79,144,161,49
130,135,5,-133,62,70,25,144,94,177,177,74
139,149,11,-144,64,80,15,162,121,193,212,101
169,186,17,-178,76,101,-1,179,142,229,253,129
204,223,19,-214,92,121,-12,193,167,268,292,165
237,251,14,-244,112,132,-23,195,191,298,324,193
234,260,26,-248,104,143,-33,188,211,315,341,207
209,255,46,-232,81,150,-28,183,215,310,347,217
210,251,41,-231,85,146,-15,178,200,302,339,210
186,218,32,-202,77,125,17,169,182,268,288,157
129,153,23,-141,53,88,48,147,146,198,208,97
86,101,15,-94,35,58,68,122,103,138,141,49
44,49,5,-47,19,27,89,95,59,87,81,-3
13,8,-5,-10,9,1,90,68,23,47,38,-34
3,-12,-15,5,9,-13,90,54,5,26,20,-52
-2,-31,-29,17,14,-30,95,48,-9,19,3,-65
-2,-34,-32,18,16,-32,95,41,-19,16,-5,-65
-11,-40,-29,25,10,-34,94,34,-24,9,-7,-64
-21,-51,-30,36,5,-41,89,27,-27,4,-10,-66
-15,-45,-30,30,8,-37,83,25,-32,-2,-13,-64
-10,-40,-30,25,10,-35,80,25,-35,-6,-16,-67
-7,-37,-30,22,12,-33,75,25,-35,-5,-13,-71
-1,-31,-30,16,15,-30,70,25,-37,-5,-10,-70
-2,-32,-30,17,14,-31,73,25,-41,-1,-7,-70
-10,-40,-30,25,11,-35,75,25,-40,0,-4,-70
-15,-45,-30,30,8,-37,75,19,-44,-1,-1,-70
-15,-45,-30,30,8,-37,75,12,-45,-6,0,-71
-12,-45,-33,29,11,-39,75,6,-45,-9,-5,-75
-9,-45,-36,28,14,-40,74,-1,-45,-12,-9,-75
-6,-45,-39,26,17,-42,70,-7,-46,-17,-12,-75
-4,-44,-40,24,19,-42,70,-13,-53,-20,-16,-75
-7,-47,-40,27,17,-43,68,-15,-55,-23,-20,-71
-3,-43,-40,23,19,-41,64,-15,-55,-26,-20,-70
-11,-51,-40,31,15,-45,66,-19,-55,-29,-20,-70
-26,-66,-40,46,7,-53,61,-20,-55,-32,-20,-70
-25,-65,-40,45,8,-52,60,-20,-55,-34,-20,-70
-25,-65,-40,45,8,-52,60,-25,-57,-37,-20,-71
-25,-65,-40,45,8,-52,55,-25,-60,-40,-20,-75
-25,-65,-40,45,8,-52,55,-26,-63,-40,-25,-75
-26,-65,-40,46,8,-52,54,-30,-65,-40,-25,-77
-24,-65,-40,44,9,-52,50,-30,-69,-40,-25,-80
-27,-65,-39,46,6,-52,50,-30,-70,-40,-25,-80
-30,-64,-35,48,3,-50,50,-30,-67,-40,-25,-76
-30,-66,-35,48,3,-50,50,-30,-64,-40,-25,-75
-29,-64,-35,47,3,-49,50,-30,-61,-40,-25,-75
-26,-61,-35,44,5,-48,54,-30,-58,-40,-25,-71
-24,-58,-35,41,6,-46,55,-30,-55,-40,-25,-69
-16,-55,-39,36,12,-46,55,-30,-55,-40,-25,-72
-13,-53,-40,33,14,-46,60,-30,-55,-40,-24,-75
-9,-48,-40,29,15,-44,59,-31,-55,-40,-21,-75
-10,-55,-46,33,18,-50,62,-29,-55,-40,-19,-75
-18,-62,-44,41,13,-53,65,-31,-55,-40,-16,-75
-8,-53,-46,31,19,-49,68,-27,-55,-41,-12,-75
-6,-41,-36,24,15,-38,73,-17,-48,-34,-10,-69
-1,-34,-33,18,17,-34,73,-8,-33,-21,-7,-55
11,-5,-15,-3,13,-10,89,8,-19,-10,2,-47
15,29,13,-22,1,21,85,21,-16,8,24,-50
38,10,-29,-24,33,-10,59,31,-12,6,21,-52
37,-20,-57,-8,48,-38,33,-5,-35,-24,-4,-56
30,-35,-65,2,48,-50,17,-47,-61,-38,-10,-58
-3,-59,-56,31,27,-57,37,-44,-60,-42,-18,-61
-38,-69,-31,54,-3,-50,41,-46,-60,-46,-25,-63
-33,-71,-38,53,2,-54,39,-40,-59,-48,-32,-65
-37,-70,-33,54,-2,-51,41,-42,-62,-49,-40,-67
-32,-70,-37,51,2,-53,38,-38,-56,-38,-33,-69
-39,-72,-33,56,-3,-52,43,-47,-59,-41,-37,-74
-30,-66,-36,48,3,-51,43,-43,-49,-27,-24,-72
-42,-68,-27,55,-7,-47,55,-41,-63,-33,-32,-79
-23,-65,-42,44,10,-53,72,38,-20,-19,-13,-68
-8,-88,-80,48,37,-84,130,188,78,38,39,-43
203,200,-3,-201,102,98,-100,133,324,375,392,230
453,568,115,-511,169,341,-498,-81,555,739,805,568
63,261,198,-162,-68,229,-519,-564,40,241,336,287
-232,-170,62,201,-146,-54,-393,-757,-437,-288,-187,-114
-97,-198,-101,148,2,-149,-209,-362,-270,-199,-132,-130
-80,-113,-33,97,-24,-73,-34,-128,-123,-101,-80,-95
-62,-64,-2,63,-29,-33,21,-37,-64,-49,-37,-82
-49,-54,-4,52,-22,-29,67,3,-49,-44,-28,-72
-52,-48,4,50,-28,-22,69,2,-44,-43,-28,-63
-49,-47,3,47,-25,-22,70,18,-35,-31,-20,-54
-56,-43,12,49,-34,-15,73,13,-36,-32,-22,-51
-46,-40,6,43,-26,-17,75,27,-26,-21,-12,-45
-45,-39,6,41,-25,-16,76,27,-26,-22,-14,-42
-39,-34,5,36,-21,-15,71,35,-19,-19,-5,-36
-33,-31,2,32,-17,-15,67,35,-21,-21,-2,-33
-27,-28,-1,27,-13,-14,61,37,-19,-20,3,-28
-24,-23,1,24,-12,-11,58,41,-14,-20,8,-25
-24,-20,4,22,-14,-8,52,40,-16,-16,11,-22
-22,-16,7,19,-14,-4,49,46,-12,-6,19,-17
-14,-5,9,9,-12,2,43,44,-3,-2,27,-15
-8,5,13,1,-11,9,37,52,7,7,35,-8
1,15,15,-8,-7,15,33,70,18,21,42,2
12,30,17,-21,-3,23,26,80,24,39,52,12
16,40,24,-28,-4,31,22,93,37,54,68,26
30,59,29,-45,0,43,15,111,56,72,93,47
54,88,34,-71,9,61,5,123,80,107,125,72
80,120,40,-101,20,80,-5,142,109,137,159,99
107,153,46,-131,31,99,-15,160,138,169,199,137
137,188,51,-163,43,119,-25,171,162,207,232,167
153,223,70,-188,41,146,-33,178,180,231,265,191
150,241,90,-196,30,165,-43,171,192,258,295,218
142,236,94,-190,24,165,-38,163,186,274,288,227
136,229,93,-183,21,161,-23,155,183,256,276,214
125,207,82,-166,21,144,-9,148,177,223,250,180
74,147,73,-111,0,110,20,133,141,165,184,124
35,83,48,-59,-7,65,48,102,96,92,107,59
13,31,18,-23,-3,24,56,75,54,40,41,10
-23,-10,13,16,-18,2,55,53,9,-4,-5,-25
-48,-41,7,45,-28,-17,55,32,-20,-39,-39,-53
-66,-62,4,63,-35,-28,55,18,-30,-59,-56,-66
-64,-65,-1,65,-31,-33,54,7,-35,-65,-64,-65
-60,-65,-5,63,-27,-35,57,-5,-35,-65,-66,-65
-65,-65,0,65,-32,-32,60,-7,-35,-65,-61,-65
-65,-65,0,65,-32,-32,60,-4,-35,-65,-59,-65
-65,-65,0,65,-32,-32,60,-1,-35,-65,-54,-65
-64,-64,0,64,-32,-32,60,2,-35,-65,-51,-65
-61,-60,0,60,-30,-30,60,5,-31,-61,-47,-65
-58,-60,-2,59,-28,-31,56,4,-30,-60,-45,-65
-53,-59,-6,56,-24,-32,55,-2,-30,-60,-45,-65
-50,-55,-5,53,-22,-30,55,-6,-30,-56,-45,-66
-49,-55,-5,52,-21,-30,50,-11,-30,-55,-45,-62
-53,-58,-5,56,-24,-31,50,-15,-31,-56,-45,-60
-55,-60,-5,58,-25,-32,49,-20,-40,-65,-53,-60
-49,-60,-11,55,-19,-35,45,-24,-49,-70,-58,-57
-44,-60,-16,52,-14,-38,45,-25,-50,-70,-54,-54
-38,-61,-23,49,-7,-42,45,-25,-50,-70,-55,-56
-41,-64,-23,53,-9,-43,45,-25,-50,-70,-51,-60
-46,-65,-19,55,-13,-42,45,-27,-50,-69,-50,-60
-48,-69,-20,58,-14,-44,49,-30,-50,-71,-50,-62
-50,-70,-20,60,-15,-45,50,-33,-50,-87,-50,-65
-52,-72,-20,62,-16,-46,50,-35,-50,-89,-50,-65
-56,-76,-20,66,-18,-47,50,-38,-50,-81,-50,-65
-59,-75,-15,67,-21,-45,50,-41,-50,-80,-50,-65
-64,-79,-15,72,-24,-46,50,-36,-50,-73,-50,-64
-65,-81,-15,73,-25,-47,50,-35,-50,-71,-50,-60
-64,-79,-15,72,-25,-47,50,-35,-50,-80,-50,-60
-61,-76,-15,69,-22,-45,50,-35,-50,-80,-50,-60
-60,-75,-15,68,-22,-45,50,-36,-50,-76,-50,-60
-60,-75,-15,68,-22,-45,50,-33,-50,-74,-50,-61
-60,-75,-15,68,-22,-45,46,-30,-48,-71,-49,-57
-60,-76,-15,69,-22,-45,44,-30,-45,-69,-45,-55
-57,-72,-15,65,-21,-43,45,-30,-42,-66,-45,-55
-54,-70,-16,62,-19,-42,45,-30,-40,-65,-45,-55
-51,-70,-19,60,-16,-45,45,-30,-36,-65,-45,-55
-50,-70,-20,60,-15,-45,44,-30,-35,-65,-45,-55
-50,-70,-20,60,-15,-45,40,-30,-35,-65,-45,-55
-50,-70,-20,60,-15,-45,40,-30,-35,-67,-45,-55
-55,-75,-20,65,-17,-47,40,-30,-35,-70,-45,-55
-55,-75,-20,65,-17,-47,40,-30,-35,-70,-45,-55
-55,-75,-20,65,-17,-47,40,-29,-35,-70,-45,-55
-55,-75,-20,65,-17,-47,43,-25,-34,-70,-44,-53
-55,-76,-20,66,-17,-48,47,-22,-28,-70,-40,-48
-53,-73,-19,63,-17,-46,48,-20,-21,-64,-32,-45
-41,-62,-21,52,-10,-41,53,-15,-15,-55,-26,-42
-41,-53,-12,47,-14,-32,54,-16,-7,-50,-19,-37
-25,-32,-7,29,-9,-19,60,-4,-2,-41,-13,-35
-12,-6,6,8,-9,0,67,17,9,-29,-7,-35
10,19,10,-15,0,14,51,32,24,-16,7,-35
30,-4,-34,-12,32,-19,36,17,6,-16,-8,-35
-1,-47,-47,24,23,-47,35,-36,-33,-46,-38,-34
-20,-56,-36,39,8,-46,34,-51,-46,-60,-43,-39
-40,-72,-32,56,-4,-51,36,-49,-45,-62,-51,-51
-47,-70,-23,59,-12,-46,34,-52,-41,-66,-50,-49
-52,-70,-19,61,-17,-44,36,-47,-38,-69,-50,-50
-55,-70,-15,63,-20,-42,38,-54,-37,-69,-51,-50
-46,-70,-24,58,-11,-47,40,-42,-31,-58,-48,-49
-55,-71,-16,63,-20,-44,42,-46,-34,-57,-51,-52
-45,-70,-25,57,-10,-47,45,-24,-18,-43,-40,-51
-65,-80,-14,73,-25,-47,44,-37,-30,-46,-51,-63
-25,-65,-40,45,7,-52,80,50,15,-30,-39,-52
13,-54,-66,21,40,-60,114,165,106,43,32,-4
274,300,26,-287,124,163,-253,38,367,421,440,318
502,622,120,-562,190,371,-679,-192,516,678,755,596
30,183,153,-107,-61,168,-628,-667,-84,97,213,231
-200,-207,-8,203,-96,-107,-424,-730,-426,-314,-226,-120
-69,-151,-82,110,7,-116,-172,-270,-174,-164,-137,-94
-101,-91,10,96,-56,-40,8,-83,-69,-96,-81,-67
-70,-61,9,65,-40,-25,50,-15,-19,-59,-44,-59
-79,-53,27,66,-53,-13,80,3,-7,-50,-43,-53
-79,-48,31,63,-55,-8,81,5,-6,-46,-40,-46
-70,-42,28,56,-49,-7,82,18,3,-35,-34,-38
-69,-37,32,53,-50,-2,79,15,2,-33,-34,-34
-58,-30,28,44,-43,-1,80,29,12,-23,-26,-29
-59,-27,32,43,-45,2,80,27,11,-22,-27,-31
-49,-24,25,36,-37,1,80,40,20,-19,-21,-30
-50,-26,25,38,-37,0,78,44,23,-20,-21,-30
-45,-25,21,35,-33,-1,74,47,28,-14,-16,-30
-43,-25,18,34,-30,-3,76,50,33,-16,-15,-26
-40,-24,15,31,-27,-4,71,52,36,-12,-10,-20
-31,-17,15,24,-23,-1,70,59,41,-3,-1,-14
-27,-12,16,19,-21,1,70,68,43,6,7,-9
-19,-5,15,12,-17,5,65,76,53,13,16,-3
-11,5,15,3,-13,10,62,87,62,28,25,7
1,15,15,-8,-7,15,59,106,73,42,40,20
17,32,15,-25,1,23,54,122,90,51,55,30
30,50,19,-40,5,34,51,137,108,74,77,41
49,77,28,-63,10,52,47,160,131,106,108,66
71,104,34,-88,18,69,41,181,156,141,142,92
99,140,41,-120,29,90,36,202,192,180,183,128
127,177,50,-152,38,114,29,222,217,216,222,161
143,201,58,-172,42,129,26,229,240,245,261,188
153,226,74,-190,39,150,28,225,263,266,287,211
150,225,75,-188,38,149,33,218,259,276,288,207
146,210,64,-178,41,137,33,214,253,275,285,203
133,190,57,-162,38,123,46,203,242,242,250,180
89,139,49,-114,20,94,73,172,204,181,179,124
36,76,40,-56,-2,57,83,135,154,119,107,69
1,14,13,-7,-6,13,88,99,106,58,41,9
-27,-32,-5,30,-11,-18,87,65,65,12,-1,-28
-35,-57,-22,46,-7,-39,83,43,31,-18,-26,-42
-38,-75,-37,57,0,-56,82,26,14,-32,-42,-57
-48,-82,-34,66,-7,-58,78,17,15,-43,-51,-58
-44,-80,-35,62,-4,-57,76,20,15,-47,-55,-54
-49,-80,-31,65,-9,-56,73,20,15,-45,-55,-56
-47,-76,-30,62,-8,-53,70,20,15,-45,-55,-51
-45,-75,-30,60,-7,-52,70,20,13,-42,-55,-50
-50,-75,-25,63,-12,-50,70,19,10,-39,-55,-50
-49,-75,-25,63,-12,-50,70,16,10,-41,-55,-45
-51,-75,-24,64,-13,-49,70,11,10,-44,-51,-45
-55,-75,-20,65,-17,-47,66,9,10,-45,-50,-45
-55,-75,-20,65,-17,-47,65,4,10,-45,-50,-45
-52,-75,-22,64,-14,-48,65,1,7,-45,-50,-45
-52,-77,-25,65,-13,-51,65,-2,4,-45,-51,-47
-52,-80,-28,66,-12,-54,65,-8,1,-47,-47,-51
-53,-83,-31,68,-10,-57,63,-13,-2,-51,-45,-54
-51,-86,-35,69,-8,-60,60,-16,-4,-54,-45,-58
-54,-89,-35,72,-10,-62,57,-21,-7,-58,-45,-60
-60,-90,-30,75,-15,-60,55,-25,-10,-60,-45,-55
-55,-85,-30,70,-12,-57,51,-30,-10,-60,-45,-55
-56,-85,-29,71,-13,-56,50,-30,-12,-60,-53,-54
-60,-85,-25,73,-17,-55,50,-31,-16,-60,-58,-50
-60,-85,-25,73,-17,-55,50,-35,-15,-60,-55,-50
-58,-85,-28,72,-15,-56,50,-34,-12,-60,-55,-52
-52,-82,-30,67,-11,-56,50,-38,-9,-62,-55,-55
-50,-80,-30,65,-10,-55,50,-40,-10,-65,-55,-55
-47,-77,-30,62,-8,-53,48,-40,-10,-65,-56,-59
-44,-74,-30,59,-6,-52,45,-40,-11,-65,-59,-60
-41,-70,-29,56,-6,-50,42,-40,-9,-65,-60,-60
-45,-70,-25,58,-10,-47,40,-40,-5,-65,-60,-60
-50,-75,-25,63,-12,-50,37,-36,-5,-65,-60,-60
-50,-75,-25,63,-12,-50,34,-35,-5,-65,-60,-60
-50,-75,-25,63,-12,-50,39,-35,-5,-65,-58,-60
-50,-75,-26,63,-11,-50,40,-35,-5,-65,-54,-60
-53,-75,-22,64,-15,-48,40,-35,-9,-65,-55,-58
-55,-75,-20,65,-17,-47,44,-37,-10,-63,-51,-53
-55,-75,-20,65,-17,-47,46,-41,-10,-60,-50,-50
-55,-75,-20,65,-17,-47,43,-40,-10,-57,-50,-47
-55,-75,-19,65,-18,-47,40,-40,-10,-54,-45,-42
-54,-75,-21,65,-16,-47,40,-40,-9,-50,-45,-40
-51,-75,-24,64,-13,-49,40,-40,-5,-50,-45,-40
-48,-75,-27,62,-10,-51,40,-45,-5,-54,-45,-40
-45,-75,-30,60,-7,-52,40,-44,-5,-56,-46,-40
-47,-75,-28,61,-9,-51,43,-47,-5,-60,-42,-40
-51,-75,-24,64,-13,-50,46,-50,-5,-62,-40,-40
-50,-75,-25,63,-12,-50,45,-51,-2,-66,-40,-38
-46,-72,-25,60,-10,-48,50,-46,6,-61,-40,-31
-28,-53,-24,41,-2,-38,50,-31,10,-49,-40,-24
11,-32,-43,11,27,-37,51,-19,17,-38,-41,-17
23,-15,-38,-4,30,-26,73,3,41,-29,-44,-11
43,13,-30,-28,36,-8,71,16,52,-27,-45,-15
55,-3,-58,-26,57,-31,40,13,44,-19,-48,-23
18,-40,-57,11,38,-48,9,-23,9,-29,-51,-29
0,-50,-50,25,25,-50,-9,-61,-12,-41,-49,-35
-19,-68,-49,44,15,-58,-3,-60,-10,-40,-51,-44
-35,-76,-41,56,3,-58,1,-57,-10,-40,-50,-43
-38,-81,-43,59,2,-62,6,-53,-5,-40,-50,-38
-36,-79,-43,58,3,-60,10,-53,-6,-41,-51,-32
-34,-83,-48,59,7,-65,13,-46,-2,-36,-47,-28
-45,-86,-40,66,-2,-63,21,-50,-3,-34,-49,-24
-33,-84,-51,59,9,-67,19,-39,5,-20,-40,-19
-45,-83,-38,64,-4,-60,29,-46,-8,-22,-51,-37
-23,-81,-57,53,17,-69,62,50,39,-6,-32,-44
-2,-82,-80,42,39,-81,109,174,130,53,36,-1
270,264,-5,-267,137,129,-193,92,374,406,410,318
507,606,99,-556,204,352,-617,-122,548,700,758,620
55,236,181,-146,-63,208,-594,-610,13,178,270,301
-204,-183,21,194,-112,-81,-429,-727,-380,-271,-196,-75
-74,-173,-99,124,13,-136,-207,-308,-178,-155,-133,-78
-72,-97,-25,85,-23,-61,-24,-101,-55,-68,-86,-40
-52,-63,-12,58,-20,-37,21,-28,-8,-32,-50,-31
-54,-52,2,53,-28,-25,59,-2,11,-23,-46,-26
-48,-48,0,48,-24,-24,52,1,11,-22,-44,-22
-41,-42,-1,41,-20,-21,56,15,19,-16,-35,-14
-38,-37,2,37,-20,-17,55,14,18,-15,-35,-12
-29,-31,-1,30,-14,-16,54,27,26,-8,-26,-14
-24,-26,-3,25,-10,-15,56,28,26,-8,-27,-16
-13,-25,-11,19,-1,-17,50,35,31,0,-19,-14
-10,-25,-15,18,3,-20,51,36,29,3,-19,-15
0,-20,-20,10,10,-20,49,39,34,8,-13,-15
-6,-20,-14,14,4,-17,50,43,35,12,-10,-12
-3,-19,-16,12,6,-17,50,44,36,17,-5,-4
2,-11,-13,5,8,-11,49,49,39,24,4,3
8,-1,-9,-3,9,-5,43,52,44,33,12,8
16,6,-10,-11,13,-2,36,63,58,42,21,23
25,18,-7,-21,16,6,30,71,67,49,29,34
37,34,-2,-35,19,16,22,85,81,66,51,39
42,43,0,-43,21,22,17,112,96,77,72,52
57,62,5,-60,26,33,10,123,111,92,83,68
77,85,9,-81,34,47,3,134,128,120,109,93
96,107,11,-102,42,59,-4,164,151,156,144,116
120,140,20,-130,50,80,-12,190,182,194,187,150
150,179,29,-165,60,104,-20,200,210,225,225,184
163,206,43,-185,59,125,-24,210,231,256,260,207
179,232,53,-206,63,143,-16,213,245,282,294,231
185,246,60,-216,62,153,-9,205,253,291,299,233
169,235,67,-202,51,151,1,203,245,291,294,223
159,213,54,-186,52,133,6,197,241,273,270,206
119,161,43,-140,38,102,23,171,208,209,200,158
68,99,32,-84,18,65,49,133,151,137,122,95
20,37,16,-29,2,26,51,98,110,80,60,39
-14,-11,4,12,-9,-3,50,67,71,31,16,4
-28,-34,-6,31,-10,-20,48,43,43,-1,-19,-14
-42,-54,-12,48,-14,-33,44,28,34,-19,-39,-26
-37,-56,-19,46,-8,-37,45,15,28,-24,-40,-38
-28,-54,-26,41,0,-40,48,9,20,-27,-41,-43
-28,-55,-28,42,1,-41,51,10,12,-33,-44,-40
-30,-55,-25,43,-2,-40,50,10,6,-34,-46,-37
-31,-53,-22,42,-5,-37,50,10,5,-30,-44,-34
-30,-49,-19,40,-5,-34,50,10,5,-27,-40,-31
-35,-50,-15,43,-10,-32,49,7,5,-25,-40,-30
-35,-50,-15,43,-10,-32,45,2,5,-22,-40,-30
-31,-50,-19,40,-6,-35,45,-1,5,-20,-40,-30
-29,-51,-22,40,-4,-36,45,-4,2,-24,-40,-30
-29,-54,-25,43,-2,-40,45,-9,-1,-26,-40,-30
-30,-55,-25,43,-2,-40,45,-11,0,-25,-40,-30
-30,-55,-25,43,-2,-40,41,-17,-4,-25,-40,-32
-30,-55,-25,43,-2,-40,40,-23,-5,-25,-40,-39
-30,-54,-25,43,-2,-40,40,-28,-6,-26,-40,-40
-32,-58,-26,45,-3,-41,40,-34,-9,-30,-42,-40
-36,-60,-24,49,-6,-42,40,-39,-12,-30,-45,-40
-39,-60,-21,49,-9,-40,39,-44,-15,-30,-48,-40
-42,-60,-18,51,-12,-39,35,-45,-18,-30,-50,-41
-45,-60,-15,53,-15,-37,35,-45,-20,-30,-53,-37
-47,-60,-13,54,-17,-36,35,-45,-22,-34,-56,-35
-51,-60,-9,55,-21,-34,35,-45,-25,-35,-51,-35
-46,-60,-14,53,-16,-37,35,-44,-25,-35,-50,-35
-39,-60,-21,50,-9,-40,32,-40,-25,-39,-50,-35
-40,-60,-20,50,-10,-40,27,-40,-25,-40,-45,-36
-40,-60,-20,50,-10,-40,24,-40,-25,-39,-45,-39
-38,-58,-20,48,-9,-39,21,-40,-25,-34,-44,-40
-32,-52,-20,42,-6,-36,16,-40,-25,-28,-40,-40
-30,-47,-18,39,-6,-33,16,-43,-25,-25,-41,-40
-29,-44,-14,37,-7,-29,20,-45,-25,-20,-37,-40
-23,-38,-15,31,-4,-27,19,-45,-26,-15,-34,-37
-21,-35,-15,29,-3,-25,22,-45,-22,-19,-35,-35
-24,-39,-15,32,-4,-27,25,-45,-20,-29,-31,-35
-30,-44,-15,37,-7,-29,25,-45,-20,-33,-30,-35
-32,-43,-10,38,-11,-26,25,-45,-20,-30,-30,-35
-29,-39,-10,34,-10,-25,25,-45,-20,-30,-25,-36
-32,-40,-9,36,-12,-24,25,-45,-20,-27,-25,-39
-31,-36,-5,34,-13,-20,25,-45,-25,-25,-25,-40
-30,-35,-5,33,-12,-20,25,-45,-25,-25,-25,-40
-27,-35,-7,31,-10,-21,26,-42,-26,-22,-25,-40
-19,-30,-11,24,-4,-20,31,-39,-30,-19,-25,-40
-14,-23,-9,19,-2,-16,30,-41,-31,-21,-25,-38
-14,-20,-5,17,-4,-12,30,-39,-27,-20,-25,-29
-15,-12,4,13,-9,-4,31,-41,-19,-20,-19,-21
-16,-8,8,12,-12,0,28,-38,-11,-19,-6,-13
-16,2,18,7,-17,10,49,-13,0,8,5,-6
23,34,11,-29,6,23,56,12,17,21,10,-11
62,31,-31,-46,46,0,29,22,20,12,16,-16
45,6,-39,-25,42,-17,0,-29,-7,4,8,-21
15,-11,-27,-2,21,-19,-22,-69,-32,-2,-7,-27
-14,-33,-18,24,2,-26,-13,-62,-37,-8,-20,-33
-23,-34,-12,29,-5,-23,-6,-62,-31,-13,-25,-37
-27,-36,-9,32,-9,-22,2,-54,-28,-18,-24,-41
-33,-34,-2,34,-15,-18,11,-56,-25,-26,-26,-40
-33,-35,-2,34,-15,-18,12,-45,-18,-19,-23,-39
-45,-35,9,40,-27,-13,21,-51,-25,-20,-28,-41
-23,-34,-11,29,-5,-22,16,-35,-23,-9,-21,-38
-19,-36,-18,28,0,-27,29,-43,-35,-11,-30,-51
6,-43,-49,19,28,-45,39,27,16,-2,-21,-49
0,-63,-63,31,32,-63,86,182,105,66,40,-16
228,264,36,-246,95,150,-129,152,379,429,423,287
448,602,154,-525,147,378,-512,-69,589,745,776,592
8,268,260,-138,-126,264,-511,-578,54,236,290,271
-230,-131,100,180,-165,-16,-389,-728,-380,-230,-181,-102
-78,-160,-82,119,2,-121,-226,-348,-217,-143,-131,-102
-66,-85,-19,75,-23,-51,-57,-136,-83,-76,-77,-66
-48,-33,15,40,-31,-9,-6,-36,-28,-24,-30,-51
-57,-25,32,41,-44,3,39,-6,-20,-11,-25,-43
-52,-20,32,36,-42,6,39,-3,-16,-10,-24,-32
-46,-18,28,32,-37,5,40,6,-5,0,-18,-25
-45,-14,31,29,-37,8,41,1,-3,1,-19,-22
-32,-10,23,20,-27,6,39,12,7,11,-13,-18
-34,-7,27,20,-30,10,42,8,8,12,-13,-15
-23,-2,21,12,-22,10,35,15,11,20,-4,-10
-20,0,20,10,-20,10,36,20,11,23,-1,-8
-15,4,20,5,-18,12,34,25,16,28,6,-1
-11,9,20,1,-16,14,30,31,15,32,11,6
-9,11,20,-1,-15,15,30,36,18,38,15,12
7,27,20,-17,-7,23,29,41,26,38,14,20
15,40,25,-28,-5,32,23,47,34,46,22,25
15,41,25,-29,-5,32,16,54,39,65,33,29
25,50,25,-38,0,37,9,59,44,73,43,34
34,59,25,-47,4,42,3,71,47,75,68,37
56,81,24,-69,16,52,-4,84,61,90,80,57
74,101,28,-88,23,64,-9,106,85,115,97,82
90,124,34,-107,28,79,-21,126,106,140,134,102
111,153,42,-133,34,98,-29,137,126,176,169,126
126,174,48,-150,39,111,-43,152,144,203,205,154
155,207,51,-181,52,129,-58,168,173,233,238,185
182,238,56,-211,63,146,-60,171,196,269,274,212
200,264,64,-232,67,164,-72,162,209,289,308,239
189,277,88,-233,50,182,-72,156,219,294,318,243
181,277,97,-230,42,187,-64,148,207,280,314,228
164,253,89,-209,37,171,-47,141,197,264,283,213
106,189,83,-148,11,136,-14,133,171,214,215,154
64,126,63,-95,0,95,11,111,120,144,135,86
27,71,45,-49,-9,58,28,82,80,94,67,40
-6,30,35,-12,-21,32,37,53,47,42,17,3
-28,-1,27,14,-27,13,40,35,19,5,-15,-22
-37,-19,17,28,-27,-1,40,22,8,-2,-24,-41
-31,-21,10,26,-20,-5,43,11,6,-5,-29,-45
-35,-25,10,30,-22,-7,46,10,3,-9,-36,-45
-39,-29,10,34,-24,-9,44,10,-2,-12,-35,-45
-39,-29,10,34,-24,-9,40,10,-5,-16,-34,-45
-34,-24,10,29,-22,-7,40,10,-10,-19,-30,-45
-31,-21,10,26,-20,-5,39,9,-19,-20,-30,-41
-24,-18,6,21,-15,-6,35,3,-23,-20,-33,-40
-18,-13,5,15,-11,-4,35,-3,-26,-20,-36,-40
-15,-10,5,12,-10,-2,33,-8,-29,-20,-39,-40
-19,-14,5,16,-11,-4,30,-14,-34,-21,-42,-40
-20,-16,5,17,-12,-6,27,-19,-35,-19,-46,-41
-21,-15,6,17,-13,-4,24,-24,-35,-21,-49,-45
-26,-15,10,21,-17,-2,21,-25,-35,-30,-52,-45
-25,-15,10,20,-17,-2,20,-25,-35,-31,-55,-47
-26,-16,10,21,-18,-3,25,-25,-35,-30,-58,-51
-30,-20,10,25,-20,-5,25,-26,-35,-31,-60,-50
-30,-20,10,25,-20,-5,25,-34,-39,-30,-60,-50
-34,-20,14,26,-24,-3,25,-35,-40,-31,-60,-50
-36,-20,15,27,-25,-2,25,-37,-40,-34,-60,-50
-34,-20,15,26,-24,-2,23,-40,-45,-35,-60,-50
-39,-24,15,31,-27,-4,19,-41,-45,-35,-60,-50
-39,-25,14,32,-26,-5,17,-45,-46,-35,-60,-50
-42,-25,17,33,-29,-4,14,-44,-51,-34,-60,-50
-49,-29,20,39,-34,-5,11,-47,-54,-38,-60,-50
-53,-31,23,42,-38,-4,10,-51,-59,-45,-60,-50
-54,-29,25,41,-39,-1,10,-50,-60,-45,-60,-50
-53,-25,28,39,-40,1,10,-50,-60,-45,-60,-50
-56,-25,31,41,-43,2,10,-50,-64,-45,-60,-54
-49,-23,26,35,-37,1,10,-50,-66,-45,-60,-55
-44,-19,25,31,-34,2,10,-50,-63,-45,-60,-55
-45,-20,25,32,-35,2,8,-49,-60,-45,-60,-55
-36,-16,20,26,-28,2,5,-51,-60,-45,-60,-55
-35,-15,20,25,-27,2,5,-55,-60,-45,-60,-54
-34,-15,19,25,-26,1,5,-55,-60,-45,-65,-50
-29,-15,14,21,-21,0,5,-55,-60,-46,-73,-50
-31,-15,16,23,-23,0,6,-55,-60,-42,-73,-48
-26,-14,12,20,-19,0,9,-55,-60,-40,-69,-44
-18,-8,10,13,-13,1,12,-51,-60,-40,-71,-46
-11,0,10,5,-10,5,14,-44,-60,-36,-66,-41
-9,5,14,2,-12,9,18,-37,-60,-35,-65,-35
-13,13,26,-1,-20,19,19,-30,-59,-34,-65,-29
-16,18,33,-1,-25,25,24,-25,-45,-31,-56,-23
-11,37,48,-13,-30,42,38,-17,-31,-27,-42,-19
29,69,40,-49,-6,54,42,-17,-21,-26,-37,-11
52,55,3,-54,25,29,26,-7,-16,-18,-44,-2
24,25,1,-25,11,13,-6,-33,-50,-28,-50,-6
1,11,10,-7,-5,11,-27,-79,-68,-48,-61,-18
-13,1,14,6,-14,8,-22,-80,-64,-51,-71,-29
-27,-3,24,15,-26,11,-16,-77,-66,-50,-70,-41
-38,-12,27,25,-32,7,-9,-73,-59,-50,-69,-45
-47,-17,30,31,-38,6,-2,-73,-62,-51,-71,-45
-41,-24,17,33,-29,-3,2,-66,-59,-47,-68,-47
-43,-22,21,32,-32,0,9,-70,-70,-50,-71,-51
-26,-18,8,22,-17,-5,0,-61,-71,-38,-60,-49
-28,-17,11,22,-19,-3,14,-64,-65,-47,-66,-46
-17,-17,-1,17,-7,-9,49,25,-14,-22,-57,-40
6,-33,-40,14,23,-36,96,174,72,60,15,-5
225,285,60,-255,83,172,-167,86,323,405,393,293
432,630,198,-531,116,414,-574,-159,514,724,755,603
27,292,265,-160,-119,278,-570,-628,-28,200,267,289
-226,-127,99,177,-162,-14,-435,-772,-459,-296,-229,-92
-90,-134,-44,112,-23,-88,-242,-357,-268,-182,-157,-84
-79,-47,32,63,-55,-7,-53,-133,-131,-98,-101,-60
-44,0,44,22,-44,22,0,-55,-66,-56,-67,-51
-37,11,48,13,-43,29,39,-16,-53,-42,-57,-39
-45,10,55,18,-50,32,36,-15,-55,-44,-56,-31
-51,10,61,20,-56,35,36,-2,-42,-35,-47,-23
-54,10,64,22,-59,37,35,-4,-44,-36,-48,-27
-41,10,51,15,-46,30,34,8,-32,-28,-38,-21
-39,14,53,12,-46,33,36,8,-33,-28,-38,-20
-20,20,40,0,-31,30,34,16,-27,-19,-29,-20
-19,25,44,-4,-32,34,33,19,-26,-16,-26,-16
-28,32,60,-2,-44,45,26,23,-22,-9,-19,-9
-24,36,60,-6,-42,47,25,28,-20,-3,-13,-2
-14,42,56,-14,-35,48,20,34,-18,1,-9,4
-9,45,54,-19,-31,49,17,41,-11,7,-1,11
1,50,50,-25,-25,50,13,45,-6,13,6,16
-2,49,50,-24,-26,50,10,53,0,17,12,24
5,54,49,-29,-22,51,11,58,5,30,23,35
25,76,51,-51,-13,63,8,73,15,48,39,44
39,87,48,-63,-4,67,5,91,31,64,56,57
46,104,58,-76,-6,81,6,107,45,83,79,76
66,131,65,-99,0,98,0,126,72,115,110,100
90,157,67,-124,11,112,-9,139,100,152,141,128
104,190,86,-147,9,138,-17,158,122,184,179,157
131,224,94,-177,19,159,-27,176,156,222,225,190
151,253,102,-202,24,177,-39,179,181,254,258,222
165,280,115,-223,25,197,-40,174,195,279,284,242
158,284,126,-221,16,205,-33,169,204,279,302,250
154,276,122,-215,16,199,-33,165,207,267,296,252
149,257,108,-203,20,182,-15,161,191,253,258,225
94,196,102,-145,-4,148,22,149,149,205,195,158
49,131,82,-91,-17,106,41,117,97,140,120,93
26,79,54,-53,-14,66,45,81,49,70,48,36
-14,26,39,-6,-27,32,45,47,13,17,-4,-5
-45,-15,30,30,-38,7,45,23,-22,-9,-42,-25
-45,-24,21,34,-32,-2,45,14,-45,-19,-59,-39
-49,-29,20,39,-34,-4,45,11,-45,-25,-60,-42
-54,-35,20,45,-37,-7,45,8,-45,-35,-60,-39
-46,-30,15,37,-30,-7,45,3,-45,-38,-60,-40
-45,-30,15,37,-30,-7,45,0,-45,-35,-60,-40
-45,-30,15,37,-30,-7,45,0,-44,-35,-60,-40
-45,-30,15,37,-30,-7,45,0,-40,-35,-60,-39
-45,-30,15,37,-30,-7,45,0,-40,-35,-60,-35
-47,-32,15,39,-31,-9,45,0,-40,-35,-60,-35
-50,-35,15,42,-32,-10,45,0,-40,-35,-60,-35
-53,-35,19,44,-35,-8,45,-1,-40,-35,-60,-35
-55,-35,20,45,-37,-7,45,-6,-40,-35,-61,-35
-55,-35,20,45,-37,-7,45,-9,-40,-35,-65,-39
-55,-35,20,45,-37,-7,44,-12,-40,-35,-65,-41
-51,-31,20,41,-35,-5,40,-17,-52,-36,-67,-40
-48,-30,19,39,-34,-6,40,-20,-56,-41,-71,-41
-45,-30,15,37,-30,-7,40,-24,-54,-45,-70,-39
-43,-30,13,36,-28,-9,40,-25,-52,-45,-67,-42
-39,-30,10,35,-25,-10,40,-25,-49,-45,-64,-45
-39,-32,6,35,-22,-13,36,-25,-51,-45,-65,-45
-44,-39,5,41,-24,-17,35,-24,-54,-45,-65,-45
-47,-45,1,46,-24,-21,35,-27,-57,-45,-65,-45
-49,-50,0,49,-24,-25,35,-30,-60,-46,-64,-45
-50,-50,0,50,-25,-25,35,-31,-62,-50,-60,-41
-46,-50,-4,48,-21,-27,35,-29,-66,-50,-60,-40
-44,-50,-6,48,-19,-27,35,-35,-62,-52,-60,-40
-47,-50,-3,49,-22,-27,35,-46,-59,-56,-60,-35
-47,-47,0,47,-23,-24,35,-43,-60,-55,-60,-35
-47,-45,3,46,-24,-21,35,-40,-60,-52,-60,-34
-50,-45,5,47,-27,-20,35,-38,-60,-49,-60,-30
-50,-41,8,46,-29,-17,31,-34,-60,-46,-60,-30
-50,-39,11,45,-30,-14,30,-35,-55,-43,-60,-30
-47,-41,6,43,-26,-17,30,-35,-55,-40,-59,-30
-49,-44,5,46,-26,-20,30,-35,-54,-40,-61,-30
-50,-45,5,47,-27,-20,31,-35,-50,-40,-65,-30
-45,-45,0,45,-22,-22,28,-35,-50,-40,-65,-30
-46,-45,0,45,-22,-22,25,-35,-50,-40,-65,-30
-43,-45,-1,44,-21,-23,22,-35,-50,-40,-65,-30
-40,-45,-5,43,-17,-25,20,-35,-50,-40,-65,-30
-40,-45,-5,43,-17,-25,17,-35,-50,-40,-61,-30
-40,-45,-5,43,-17,-25,14,-35,-50,-40,-60,-30
-40,-45,-5,43,-17,-25,19,-35,-50,-40,-60,-30
-40,-45,-5,43,-17,-25,20,-33,-45,-40,-55,-30
-44,-45,-2,45,-21,-23,21,-26,-40,-40,-55,-30
-41,-38,4,39,-22,-17,25,-21,-36,-39,-54,-31
-38,-29,9,33,-23,-10,25,-16,-31,-33,-46,-25
-32,-20,12,26,-22,-4,26,-9,-27,-27,-38,-17
-29,-11,18,20,-23,3,35,-6,-21,-21,-29,-11
-12,7,19,3,-16,13,48,7,-14,-15,-23,-4
27,34,7,-31,10,20,41,27,2,-5,-15,1
24,16,-8,-20,16,4,26,18,4,2,-7,5
12,-12,-24,0,18,-18,21,-14,-35,-18,-22,2
25,-14,-38,-5,32,-26,19,-31,-51,-33,-38,-4
-1,-34,-32,18,16,-33,21,-37,-49,-38,-48,-9
-28,-54,-26,41,-1,-40,19,-35,-52,-40,-54,-12
-42,-62,-20,53,-11,-41,21,-34,-54,-40,-55,-18
-47,-59,-11,53,-18,-35,21,-38,-57,-41,-56,-22
-49,-61,-12,55,-19,-36,26,-30,-50,-38,-53,-25
-53,-60,-7,57,-23,-34,25,-40,-54,-42,-58,-25
-44,-58,-15,51,-15,-37,25,-17,-44,-37,-51,-26
-63,-66,-3,64,-29,-34,25,-32,-58,-34,-46,-32
-30,-66,-36,48,4,-50,62,66,1,-2,-29,-29
2,-51,-53,25,28,-52,105,185,92,62,35,12
288,307,20,-298,134,163,-270,45,336,423,435,341
500,626,126,-563,187,376,-699,-170,495,694,761,630
42,215,173,-128,-66,194,-654,-644,-85,134,235,279
-194,-195,-1,195,-96,-98,-457,-729,-452,-295,-227,-83
-79,-156,-77,118,-1,-116,-192,-263,-206,-149,-130,-70
-73,-72,1,72,-37,-35,-11,-73,-83,-73,-72,-39
-46,-40,5,43,-25,-17,34,-7,-40,-43,-60,-21
-45,-32,13,39,-29,-10,62,22,-33,-33,-52,-14
-36,-28,9,32,-22,-9,59,26,-30,-33,-45,-11
-34,-24,10,29,-22,-6,67,34,-18,-25,-38,-3
-29,-19,10,24,-20,-4,64,30,-17,-26,-38,0
-25,-15,10,20,-17,-2,65,51,-6,-18,-31,6
-30,-20,10,25,-20,-5,65,49,-7,-18,-30,4
-34,-20,14,27,-24,-3,64,55,-4,-11,-24,5
-47,-20,27,33,-37,3,62,58,-6,-10,-22,5
-44,-20,24,31,-34,2,57,60,-5,-6,-14,5
-46,-20,25,33,-36,2,55,61,-5,-1,-7,5
-42,-17,25,29,-33,4,50,59,-1,1,-1,9
-30,-4,25,16,-27,10,46,64,8,9,6,15
-15,7,23,4,-19,15,44,80,13,17,11,21
-2,17,19,-8,-11,18,39,94,21,25,19,25
6,26,20,-16,-7,23,36,101,34,33,27,40
14,34,20,-24,-3,27,33,115,50,41,36,59
25,45,20,-35,2,32,28,131,65,64,61,66
43,63,20,-53,11,41,25,149,82,86,83,83
58,88,30,-73,13,59,22,172,106,106,103,101
72,112,40,-92,15,76,17,197,128,138,134,122
97,141,44,-119,26,92,14,217,151,168,172,157
131,183,52,-157,40,117,11,234,178,205,220,190
162,218,57,-190,52,137,6,249,207,244,255,224
175,245,69,-210,53,157,6,246,223,266,280,243
171,250,79,-211,46,165,15,236,216,264,282,234
167,240,72,-204,47,156,25,227,208,259,269,230
158,222,64,-190,47,142,35,219,204,244,252,222
109,166,56,-138,26,111,45,201,182,195,187,180
54,102,48,-78,3,75,58,160,134,126,115,117
15,40,25,-28,-5,33,63,120,82,64,59,60
-18,-14,5,16,-11,-5,58,80,34,19,8,17
-38,-37,0,38,-19,-18,56,43,-2,-16,-26,-12
-50,-55,-5,53,-23,-30,53,33,-12,-36,-45,-24
-51,-61,-11,56,-20,-36,50,29,-16,-50,-55,-26
-43,-59,-17,52,-13,-38,49,24,-21,-52,-61,-30
-40,-60,-20,50,-10,-40,45,20,-25,-49,-59,-30
-40,-60,-20,50,-10,-40,45,15,-30,-51,-62,-32
-40,-60,-20,50,-10,-40,43,19,-26,-50,-65,-36
-36,-55,-20,45,-7,-37,39,20,-25,-50,-65,-35
-31,-51,-20,41,-6,-36,40,20,-25,-52,-62,-32
-29,-49,-20,39,-4,-34,40,20,-25,-56,-60,-29
-25,-45,-20,35,-2,-32,40,20,-25,-55,-60,-30
-20,-40,-20,30,0,-30,40,19,-26,-59,-55,-30
-23,-43,-20,33,-1,-31,40,14,-30,-60,-55,-30
-30,-50,-20,40,-5,-35,41,9,-33,-60,-56,-30
-33,-52,-20,43,-6,-36,38,5,-37,-65,-60,-30
-34,-56,-21,45,-6,-38,35,0,-40,-65,-60,-30
-35,-60,-25,48,-5,-42,32,-5,-44,-66,-60,-30
-33,-58,-25,46,-4,-41,30,-9,-45,-70,-61,-30
-29,-54,-25,42,-2,-40,26,-14,-45,-70,-58,-30
-30,-55,-25,43,-2,-40,24,-17,-45,-68,-78,-34
-30,-55,-25,43,-2,-40,29,-22,-45,-65,-97,-35
-30,-55,-25,43,-2,-40,30,-25,-45,-65,-99,-35
-30,-54,-25,43,-2,-40,30,-25,-45,-65,-104,-35
-25,-50,-25,38,0,-37,30,-25,-45,-65,-108,-35
-25,-50,-25,38,0,-37,30,-25,-45,-65,-110,-34
-25,-50,-26,38,1,-37,29,-25,-45,-65,-110,-30
-27,-50,-23,39,-2,-36,24,-29,-45,-65,-110,-30
-29,-49,-20,39,-5,-35,21,-30,-41,-65,-110,-30
-33,-53,-20,43,-7,-36,18,-30,-40,-65,-109,-30
-36,-56,-20,46,-7,-38,13,-30,-39,-65,-106,-30
-31,-51,-20,41,-6,-36,10,-30,-36,-63,-101,-30
-28,-48,-20,38,-4,-34,14,-29,-34,-60,-99,-30
-22,-45,-24,34,2,-34,15,-25,-39,-60,-94,-30
-14,-39,-25,27,6,-32,15,-25,-46,-60,-91,-30
-19,-44,-25,32,3,-34,20,-25,-45,-60,-87,-30
-30,-55,-25,43,-2,-40,20,-25,-44,-60,-85,-30
-30,-55,-25,43,-2,-40,19,-25,-40,-60,-85,-30
-31,-55,-24,43,-3,-39,15,-29,-40,-60,-85,-30
-35,-55,-20,45,-7,-37,15,-30,-40,-60,-85,-30
-35,-55,-20,45,-7,-37,15,-30,-40,-60,-86,-30
-35,-53,-17,44,-9,-35,15,-30,-40,-59,-89,-30
-35,-49,-15,43,-10,-31,15,-30,-40,-63,-90,-30
-32,-47,-15,40,-8,-31,11,-29,-40,-65,-90,-30
-29,-44,-15,37,-6,-30,9,-25,-39,-65,-90,-30
-26,-41,-14,34,-6,-27,6,-25,-36,-65,-90,-30
-24,-39,-16,32,-4,-27,4,-25,-33,-65,-88,-30
-22,-36,-15,29,-3,-25,0,-25,-31,-65,-81,-29
-18,-33,-15,26,-1,-24,2,-25,-27,-58,-74,-21
-17,-31,-14,24,-1,-22,15,-19,-25,-47,-68,-13
-16,-24,-7,20,-4,-15,28,-4,-21,-37,-60,-5
8,1,-7,-4,7,-3,43,4,-9,-31,-56,2
36,40,5,-38,15,22,47,22,7,-37,-59,10
61,29,-32,-45,47,-2,38,39,9,-33,-61,14
57,-14,-71,-21,64,-42,6,-5,-16,-38,-65,0
25,-29,-54,2,40,-41,-23,-42,-44,-56,-67,-13
1,-47,-48,24,25,-47,-18,-38,-56,-62,-74,-26
-13,-55,-42,34,15,-48,-14,-43,-54,-64,-81,-27
-17,-55,-37,36,11,-46,-10,-35,-49,-66,-78,-24
-27,-56,-29,41,2,-42,-4,-38,-49,-72,-82,-26
-18,-53,-36,36,10,-44,-3,-32,-42,-67,-77,-24
-25,-58,-33,42,4,-45,8,-34,-48,-76,-83,-27
-12,-52,-39,32,14,-46,11,-27,-41,-72,-77,-23
-31,-70,-39,50,4,-54,25,-29,-49,-79,-80,-39
-25,-66,-41,46,8,-54,35,18,-9,-59,-71,-29
-2,-76,-74,39,36,-75,94,177,69,-2,-29,-14
169,155,-14,-162,91,70,-96,142,255,257,252,205
507,591,84,-549,211,337,-571,-41,527,667,718,596
198,390,193,-294,2,291,-657,-476,152,337,426,426
-210,-120,90,165,-150,-15,-492,-766,-382,-244,-165,-22
-118,-202,-84,160,-16,-143,-293,-405,-269,-227,-179,-94
-80,-111,-31,96,-24,-71,-75,-122,-95,-116,-104,-50
-59,-61,-2,60,-28,-31,-7,-48,-46,-67,-75,-34
-48,-49,-1,48,-24,-25,36,6,-17,-41,-61,-22
-49,-49,0,49,-24,-24,46,6,-18,-49,-68,-20
-35,-44,-9,40,-13,-26,43,21,-4,-41,-65,-13
-35,-42,-7,39,-14,-25,47,17,-4,-42,-86,-11
-29,-39,-10,34,-10,-24,43,27,8,-39,-86,-5
-34,-37,-3,36,-15,-20,47,29,8,-39,-84,-2
-28,-34,-6,32,-10,-20,41,34,5,-33,-77,0
-31,-35,-4,33,-13,-20,38,41,5,-30,-73,0
-25,-30,-5,28,-10,-17,34,46,5,-27,-69,4
-25,-30,-5,28,-10,-17,31,50,5,-22,-64,5
-25,-29,-5,27,-10,-17,27,52,4,-20,-59,5
-17,-22,-5,20,-6,-13,23,56,10,-14,-49,13
-13,-18,-5,16,-4,-11,19,59,18,-8,-42,19
-6,-11,-5,9,0,-8,13,71,26,-3,-34,26
-2,-7,-5,5,2,-6,10,79,33,3,-26,32
5,2,-3,-3,4,-1,5,92,43,11,-14,39
21,23,2,-22,9,12,1,108,59,34,8,47
38,43,5,-41,16,23,-4,124,79,57,26,51
58,66,8,-62,24,37,-11,149,94,69,48,70
79,92,13,-86,33,52,-18,160,114,102,83,96
107,123,16,-115,45,69,-24,184,145,144,125,130
135,154,19,-145,58,86,-32,211,174,177,165,165
152,183,31,-168,60,107,-34,218,201,203,194,189
166,212,46,-189,60,129,-28,216,221,232,223,216
167,225,58,-196,54,141,-22,209,228,247,247,226
163,227,65,-195,49,146,-16,202,225,238,257,231
160,216,56,-188,52,136,-12,197,227,228,236,215
132,175,43,-153,44,109,1,187,207,191,184,168
77,108,31,-93,23,70,28,151,154,132,111,113
26,41,15,-34,5,27,41,111,108,66,36,47
-4,-5,-1,4,-2,-3,42,84,64,7,-11,3
-21,-38,-18,30,-1,-27,39,51,26,-31,-48,-22
-28,-63,-34,46,3,-48,36,31,11,-52,-76,-42
-35,-76,-40,55,3,-58,33,26,8,-61,-81,-45
-37,-77,-40,57,2,-58,30,22,2,-68,-80,-45
-34,-74,-40,54,3,-57,30,17,-4,-68,-80,-45
-35,-75,-40,55,3,-57,30,13,-9,-64,-80,-45
-35,-75,-40,55,3,-56,30,8,-14,-62,-80,-45
-33,-76,-43,55,5,-59,30,5,-15,-59,-80,-47
-28,-73,-45,51,9,-59,30,5,-15,-55,-80,-51
-25,-70,-45,48,10,-57,30,3,-15,-55,-80,-50
-25,-70,-45,48,10,-57,27,-1,-15,-59,-80,-50
-25,-70,-45,48,10,-57,24,0,-16,-62,-80,-50
-25,-70,-45,48,10,-57,21,-3,-21,-64,-81,-51
-29,-70,-41,50,6,-55,18,-8,-20,-68,-84,-55
-34,-74,-40,54,3,-56,15,-11,-23,-72,-87,-55
-35,-76,-40,56,3,-57,15,-15,-25,-77,-90,-55
-40,-80,-40,60,0,-60,15,-18,-25,-79,-93,-55
-38,-79,-41,59,1,-60,15,-22,-29,-76,-95,-55
-37,-75,-37,56,1,-56,15,-25,-30,-75,-95,-55
-41,-75,-35,58,-3,-55,15,-28,-30,-74,-95,-55
-40,-75,-35,58,-2,-55,15,-32,-30,-70,-95,-55
-40,-75,-35,58,-2,-55,11,-35,-30,-69,-95,-55
-39,-75,-35,57,-2,-55,10,-39,-28,-76,-95,-55
-46,-81,-34,64,-6,-57,10,-40,-25,-81,-94,-55
-55,-86,-31,71,-12,-58,10,-40,-22,-79,-91,-50
-55,-84,-30,69,-12,-56,10,-44,-20,-80,-86,-50
-55,-85,-30,70,-12,-57,10,-46,-16,-80,-84,-50
-55,-85,-30,70,-12,-57,10,-44,-15,-80,-79,-50
-55,-85,-30,70,-12,-57,10,-40,-18,-84,-75,-51
-57,-89,-32,73,-12,-60,10,-40,-21,-85,-75,-47
-53,-90,-37,72,-8,-63,10,-38,-24,-85,-75,-45
-51,-90,-39,70,-6,-65,10,-34,-27,-85,-75,-45
-54,-90,-36,72,-9,-62,10,-35,-30,-85,-75,-45
-56,-90,-35,73,-10,-62,10,-31,-29,-84,-75,-45
-53,-89,-35,72,-9,-62,10,-30,-25,-79,-75,-45
-50,-85,-35,68,-7,-60,10,-30,-23,-76,-70,-45
-50,-85,-35,68,-7,-60,10,-30,-20,-73,-70,-45
-47,-85,-37,66,-5,-61,9,-30,-17,-68,-69,-45
-45,-85,-41,65,-2,-62,5,-31,-15,-65,-64,-45
-45,-85,-40,65,-2,-62,5,-36,-12,-65,-66,-45
-42,-82,-40,62,-1,-61,5,-35,-9,-65,-62,-42
-39,-79,-40,59,1,-59,5,-35,-10,-66,-59,-39
-36,-76,-40,56,2,-58,5,-35,-10,-66,-60,-40
-39,-73,-35,56,-2,-54,9,-35,-11,-65,-60,-36
-42,-70,-28,56,-7,-49,15,-38,-9,-65,-60,-35
-45,-70,-25,58,-10,-47,21,-30,0,-59,-59,-35
-54,-70,-16,62,-19,-43,26,-25,9,-62,-52,-26
-44,-58,-14,51,-15,-36,33,-6,16,-53,-37,-12
-1,-9,-8,5,3,-9,42,19,31,-26,-29,-8
34,2,-31,-18,33,-15,33,29,49,-17,-23,-13
41,-40,-81,0,61,-60,1,5,26,-34,-27,-20
31,-55,-87,13,59,-71,-28,-37,-15,-58,-34,-25
-11,-78,-66,45,28,-72,-27,-40,-25,-68,-37,-30
-50,-95,-45,73,-2,-70,-11,-41,-26,-74,-57,-38
-52,-99,-46,76,-3,-72,-7,-36,-23,-70,-60,-40
-58,-101,-43,80,-7,-72,-2,-37,-27,-71,-61,-41
-53,-99,-47,76,-3,-73,-8,-33,-22,-68,-58,-43
-64,-108,-44,86,-10,-76,-1,-34,-24,-73,-62,-48
-57,-102,-45,80,-5,-74,-8,-22,-7,-67,-58,-42
-54,-106,-53,80,0,-79,-3,-21,-2,-71,-61,-57
-40,-92,-52,66,6,-72,20,-5,12,-61,-62,-55
-21,-128,-107,75,43,-117,67,140,90,-20,-28,-39
93,35,-58,-64,75,-11,-19,173,275,209,216,134
414,487,73,-451,170,280,-412,56,615,673,711,532
186,391,205,-289,-10,298,-554,-366,337,440,518,443
-234,-92,142,163,-188,25,-432,-746,-280,-193,-114,-17
-131,-212,-81,172,-25,-146,-307,-480,-266,-247,-193,-132
-63,-137,-74,100,6,-106,-107,-170,-98,-133,-116,-86
-54,-82,-27,68,-13,-54,-12,-70,-21,-77,-78,-59
-48,-73,-25,60,-11,-48,27,-12,22,-59,-49,-42
-58,-74,-15,66,-21,-44,33,-3,20,-62,-55,-39
-44,-67,-24,55,-10,-45,27,10,32,-51,-41,-29
-50,-67,-17,59,-16,-42,33,9,27,-55,-44,-25
-42,-63,-21,52,-10,-42,28,18,35,-45,-34,-16
-41,-62,-20,52,-10,-41,32,22,34,-46,-34,-17
-30,-56,-25,44,-2,-41,25,27,39,-40,-28,-25
-29,-54,-25,42,-1,-39,23,31,41,-35,-25,-29
-25,-49,-25,38,0,-36,19,29,39,-31,-22,-25
-20,-46,-25,34,3,-36,16,31,41,-26,-17,-18
-18,-42,-25,30,4,-33,12,29,39,-22,-15,-14
-12,-34,-22,23,5,-27,8,35,41,-17,-8,-7
-7,-26,-19,16,7,-22,5,50,46,-8,1,-3
2,-18,-20,8,11,-19,0,58,49,3,10,3
4,-11,-15,4,10,-13,-2,62,55,12,18,12
16,1,-15,-8,15,-7,-7,64,64,25,28,23
37,23,-14,-30,25,4,-8,81,82,35,44,31
48,40,-8,-44,27,16,-16,97,100,53,71,51
58,58,-1,-58,29,28,-22,111,110,76,96,71
76,82,6,-79,35,44,-31,134,131,101,117,88
92,105,13,-99,40,58,-51,147,151,131,154,117
122,141,19,-132,52,80,-58,166,178,171,201,151
151,175,24,-163,63,99,-67,182,203,207,234,184
169,201,32,-185,68,116,-65,180,219,225,267,209
184,219,35,-202,74,127,-57,172,227,249,281,225
174,222,47,-198,63,134,-51,164,215,256,266,227
158,212,54,-185,52,133,-45,157,203,234,254,210
123,164,41,-144,41,102,-33,147,192,197,216,170
76,105,29,-91,23,67,4,128,162,135,146,113
47,54,7,-51,20,30,28,103,119,68,77,52
9,1,-9,-5,9,-4,36,77,80,19,24,4
-20,-30,-11,25,-4,-20,36,43,44,-18,-20,-28
-39,-53,-14,46,-12,-33,34,20,19,-45,-46,-51
-45,-61,-17,53,-14,-39,36,20,14,-54,-52,-56
-38,-58,-20,48,-9,-38,34,20,12,-56,-54,-54
-50,-71,-22,60,-14,-46,36,20,9,-60,-51,-59
-50,-75,-25,63,-12,-50,32,20,6,-58,-49,-60
-44,-69,-25,57,-10,-46,30,19,4,-55,-50,-60
-40,-67,-27,54,-6,-47,30,14,1,-55,-50,-55
-31,-62,-31,46,0,-46,26,11,0,-55,-50,-55
-30,-60,-30,45,0,-45,25,8,0,-55,-52,-54
-33,-60,-27,47,-3,-43,25,3,0,-56,-56,-50
-38,-60,-22,49,-8,-41,25,0,0,-60,-59,-50
-41,-60,-19,50,-11,-40,25,-3,-2,-60,-63,-50
-44,-60,-16,53,-14,-37,25,-8,-6,-64,-65,-50
-49,-60,-11,55,-19,-36,25,-11,-8,-65,-65,-50
-51,-60,-8,56,-21,-34,26,-15,-11,-67,-65,-50
-55,-60,-5,58,-25,-32,22,-18,-14,-71,-65,-50
-55,-60,-5,58,-25,-32,20,-22,-16,-69,-65,-51
-55,-60,-5,58,-25,-32,20,-25,-19,-74,-65,-54
-55,-60,-5,58,-25,-32,17,-25,-21,-75,-65,-55
-56,-61,-5,59,-25,-33,14,-27,-19,-75,-65,-55
-63,-64,-1,64,-30,-32,16,-30,-24,-82,-65,-55
-67,-67,0,67,-33,-33,19,-30,-26,-81,-65,-55
-70,-70,0,70,-35,-35,20,-26,-25,-76,-65,-53
-72,-72,0,72,-36,-36,20,-25,-24,-74,-65,-49
-76,-76,0,76,-38,-37,20,-25,-20,-69,-65,-47
-71,-72,-1,72,-35,-37,20,-21,-20,-66,-65,-44
-64,-69,-5,67,-29,-37,18,-19,-23,-65,-65,-41
-66,-71,-5,69,-30,-37,14,-22,-25,-65,-65,-40
-61,-66,-5,64,-28,-35,15,-25,-25,-65,-65,-40
-60,-65,-5,63,-27,-35,15,-25,-29,-65,-62,-40
-64,-65,-1,64,-31,-33,15,-27,-30,-65,-60,-40
-60,-60,0,60,-30,-30,15,-31,-30,-65,-60,-40
-60,-60,0,60,-30,-30,10,-30,-35,-69,-56,-40
-59,-59,0,59,-29,-29,10,-30,-35,-70,-55,-40
-55,-55,0,55,-27,-27,10,-30,-35,-70,-55,-40
-55,-55,0,55,-27,-27,10,-30,-35,-70,-55,-40
-53,-53,0,53,-26,-26,11,-30,-35,-70,-55,-40
-48,-48,0,48,-24,-24,7,-29,-35,-68,-55,-40
-45,-45,0,45,-22,-22,5,-32,-35,-64,-55,-40
-42,-42,0,42,-21,-21,5,-35,-35,-65,-55,-35
-37,-37,0,37,-18,-18,1,-38,-35,-65,-53,-35
-39,-35,3,36,-21,-15,0,-40,-35,-65,-46,-35
-33,-28,5,30,-19,-11,0,-43,-35,-65,-42,-35
-26,-21,5,23,-15,-7,7,-47,-28,-59,-36,-36
-20,-11,9,16,-15,-1,18,-32,-20,-54,-30,-32
-16,-5,11,11,-13,3,27,-4,-14,-47,-25,-24
-3,7,10,-2,-6,8,41,12,-7,-47,-18,-15
5,45,41,-25,-18,43,52,16,1,-51,-8,-11
7,44,36,-26,-15,39,43,30,9,-49,-4,-8
22,10,-12,-16,17,-1,5,11,-8,-50,-14,-5
8,-4,-12,-2,10,-7,-23,-33,-40,-50,-26,-7
-19,-22,-3,21,-8,-12,-20,-35,-48,-50,-37,-13
-38,-33,5,35,-21,-13,-15,-36,-53,-57,-46,-18
-51,-38,12,44,-31,-13,-11,-33,-53,-61,-44,-21
-60,-47,12,53,-36,-17,-5,-37,-60,-65,-47,-27
-55,-46,9,51,-32,-19,-3,-34,-58,-55,-43,-29
-65,-55,10,60,-38,-23,5,-32,-59,-55,-47,-32
-56,-50,6,53,-31,-22,8,-25,-47,-47,-44,-28
-65,-63,2,63,-33,-30,20,-18,-37,-44,-50,-34
-63,-54,9,58,-36,-22,23,-10,-30,-41,-45,-40
-16,-65,-49,41,17,-57,87,151,39,-1,-16,-38
95,85,-10,-90,52,37,-23,151,191,203,201,138
429,543,114,-486,157,329,-476,-30,509,669,714,553
296,499,204,-397,46,351,-654,-395,283,508,594,513
-166,-25,141,95,-154,58,-523,-778,-364,-175,-71,39
-153,-195,-42,174,-56,-118,-337,-513,-360,-254,-202,-112
-78,-103,-26,91,-26,-64,-104,-155,-140,-107,-91,-55
-59,-39,21,49,-40,-9,0,-60,-74,-73,-60,-33
-39,-20,19,29,-29,0,35,5,-33,-40,-43,-19
-52,-17,35,35,-43,9,42,12,-37,-44,-43,-18
-39,-13,26,26,-32,6,43,30,-24,-30,-28,-13
-42,-10,32,26,-37,11,47,33,-26,-28,-26,-10
-34,-5,29,20,-31,11,38,44,-18,-18,-16,-6
-33,-3,30,18,-31,13,39,45,-15,-14,-13,-3
-32,1,33,15,-32,16,32,45,-11,-11,-8,0
-32,3,35,14,-34,19,30,51,-9,-7,-1,3
-29,6,36,11,-33,21,33,49,-10,-4,3,6
-25,9,34,8,-30,21,35,55,-4,0,10,10
-25,11,36,7,-30,23,35,58,-6,4,15,10
-18,17,34,0,-26,25,35,63,-3,14,23,17
-4,27,31,-12,-18,28,35,69,4,20,29,25
5,35,30,-19,-13,32,34,76,8,30,37,33
10,39,30,-25,-10,34,29,83,14,35,40,41
21,51,30,-36,-5,41,24,96,20,44,42,47
32,61,29,-47,1,45,20,108,24,63,58,60
49,82,33,-66,8,57,15,126,50,81,80,74
73,108,35,-91,19,72,11,148,72,106,106,99
96,130,35,-113,30,82,6,171,89,138,140,127
117,163,46,-140,35,104,-1,197,122,172,179,153
137,193,56,-165,40,125,-8,211,147,207,211,184
151,227,76,-189,37,151,-14,217,174,245,245,209
173,260,87,-217,43,173,-22,213,193,273,281,243
187,282,95,-235,46,188,-24,205,203,286,304,264
184,291,106,-238,39,198,-13,200,212,298,314,254
173,272,99,-223,37,185,-1,191,205,285,299,247
131,233,102,-182,15,167,16,188,176,245,255,220
72,165,93,-119,-11,129,38,170,128,178,178,154
31,92,61,-62,-16,76,51,130,77,107,102,89
13,42,29,-28,-8,35,52,90,31,58,47,42
-2,2,4,-1,-3,3,49,61,0,16,3,6
-20,-22,-2,21,-9,-12,50,45,-29,-11,-16,-15
-33,-38,-5,36,-14,-21,50,39,-49,-23,-31,-26
-39,-47,-8,43,-15,-28,50,34,-50,-32,-43,-33
-33,-46,-13,39,-9,-29,49,30,-50,-31,-45,-29
-28,-42,-15,35,-6,-28,45,25,-50,-30,-45,-23
-29,-40,-11,34,-9,-25,45,20,-50,-29,-45,-20
-28,-36,-8,32,-10,-22,45,23,-51,-25,-45,-15
-29,-35,-5,32,-11,-20,45,25,-54,-25,-45,-10
-30,-32,-2,31,-14,-17,45,25,-55,-27,-42,-18
-29,-29,0,29,-14,-14,42,25,-55,-31,-40,-20
-27,-27,0,27,-13,-13,39,25,-56,-30,-40,-13
-22,-23,0,23,-11,-11,36,24,-54,-30,-40,-10
-22,-21,0,21,-11,-11,33,17,-58,-30,-40,-5
-17,-17,0,17,-8,-9,30,12,-59,-31,-40,0
-27,-27,0,27,-13,-13,28,7,-65,-34,-45,-7
-44,-44,0,44,-21,-22,25,1,-76,-37,-45,-13
-40,-45,-5,43,-17,-25,25,-4,-75,-40,-46,-7
-40,-45,-5,43,-17,-25,25,-9,-75,-42,-50,-5
-39,-45,-6,42,-16,-26,25,-10,-75,-46,-50,0
-35,-45,-10,40,-12,-27,25,-10,-74,-42,-50,4
-34,-44,-10,39,-11,-27,21,-15,-78,-40,-50,6
-32,-40,-8,36,-12,-23,20,-15,-80,-40,-50,11
-36,-40,-5,38,-16,-22,20,-15,-80,-40,-50,15
-35,-40,-5,38,-15,-22,15,-15,-80,-40,-50,20
-35,-40,-5,38,-15,-22,15,-15,-80,-40,-50,24
-35,-40,-5,38,-15,-22,14,-15,-80,-40,-50,30
-32,-36,-4,34,-13,-20,10,-15,-84,-40,-50,35
-34,-35,-1,35,-16,-18,10,-15,-85,-40,-50,42
-36,-34,2,35,-19,-16,10,-19,-84,-40,-50,56
-35,-31,5,32,-20,-13,10,-20,-85,-41,-50,60
-37,-29,8,33,-22,-11,10,-20,-84,-37,-47,60
-42,-32,11,37,-26,-10,14,-20,-88,-35,-45,60
-46,-38,8,42,-27,-15,15,-20,-97,-35,-45,60
-51,-47,4,49,-28,-21,15,-20,-96,-31,-45,60
-51,-49,2,50,-26,-23,15,-20,-91,-29,-45,61
-43,-44,-1,44,-21,-22,15,-20,-89,-31,-45,70
-36,-41,-4,39,-16,-22,14,-20,-85,-35,-49,79
-32,-38,-5,35,-13,-21,10,-20,-80,-35,-50,80
-29,-34,-5,32,-12,-19,10,-20,-82,-36,-50,80
-24,-29,-5,27,-9,-16,10,-20,-86,-40,-50,80
-32,-37,-5,35,-13,-21,10,-20,-85,-39,-49,80
-41,-46,-5,44,-18,-25,10,-20,-89,-42,-53,79
-39,-44,-5,42,-17,-25,10,-20,-90,-45,-55,75
-41,-45,-5,43,-17,-25,10,-20,-90,-45,-55,75
-39,-45,-5,42,-17,-25,10,-20,-90,-45,-58,75
-41,-45,-5,44,-17,-25,10,-20,-90,-45,-61,75
-39,-44,-5,42,-17,-24,9,-20,-90,-45,-59,75
-33,-38,-5,36,-14,-21,12,-20,-90,-41,-56,78
-28,-32,-5,30,-11,-18,17,-20,-91,-37,-53,81
-30,-27,4,28,-17,-11,23,-20,-88,-34,-51,83
-38,-21,17,29,-28,-1,29,-13,-80,-29,-47,88
-25,-14,12,19,-18,-1,33,6,-75,-26,-44,88
-11,10,21,0,-16,15,46,30,-69,-22,-47,94
26,40,14,-33,6,27,45,50,-71,-20,-50,107
53,21,-32,-37,42,-5,19,53,-67,-18,-53,99
27,-9,-36,-8,32,-23,-6,4,-76,-35,-56,84
14,-20,-34,4,24,-27,-17,-37,-95,-57,-61,76
-6,-36,-30,21,12,-33,-13,-41,-104,-62,-71,67
-22,-44,-22,33,0,-33,-16,-37,-101,-69,-80,67
-38,-55,-17,47,-10,-36,-14,-34,-100,-81,-91,61
-47,-54,-7,51,-19,-30,-16,-32,-100,-81,-92,59
-47,-56,-9,52,-19,-32,-13,-27,-98,-85,-95,55
-50,-59,-10,55,-20,-34,-6,-30,-103,-88,-101,50
-39,-60,-21,50,-9,-40,-6,-16,-94,-88,-95,50
-49,-62,-13,55,-18,-37,4,-28,-100,-89,-97,37
-32,-69,-37,51,3,-53,47,78,-50,-48,-85,47
8,-38,-47,15,28,-43,83,194,36,28,-5,90
310,343,33,-327,139,188,-285,79,313,419,415,451
493,646,153,-570,170,399,-681,-176,416,636,685,690
8,190,182,-100,-87,186,-633,-630,-160,64,146,329
-293,-164,129,228,-210,-17,-443,-710,-500,-347,-302,106
