I,II,III,aVR,aVL,aVF,V1,V2,V3,V4,V5,V6
-109,-74,35,91,-71,-19,60,210,-3,-579,-70,213
-161,-83,78,122,-119,-3,60,210,-10,-574,-70,223
-230,-87,143,158,-186,27,58,209,13,-571,-70,241
-191,-76,116,133,-153,20,52,213,26,-565,-70,290
-206,-101,105,153,-156,2,71,214,23,-562,-71,304
-184,-78,106,131,-145,14,87,216,22,-555,-60,328
-169,-82,86,125,-127,2,77,208,17,-542,-52,350
-198,-111,87,154,-142,-12,75,197,16,-528,-46,402
-158,-109,48,133,-103,-30,70,186,12,-515,-23,364
-107,-110,-3,108,-52,-56,65,193,-8,-523,-57,332
-172,-106,66,138,-118,-20,77,213,15,-499,-86,397
-176,-104,72,140,-124,-16,79,195,34,-503,-74,352
-167,-106,61,136,-114,-22,73,191,23,-536,-54,403
-113,-97,15,105,-64,-41,69,194,21,-528,-74,342
-21,-103,-81,62,30,-92,65,186,14,-538,-81,342
-75,-98,-23,87,-26,-60,59,184,8,-519,-47,515
-88,-91,-2,90,-43,-46,53,170,4,-480,-81,489
-91,-123,-33,107,-28,-78,46,157,-12,-481,-96,442
-22,-110,-88,66,33,-99,39,145,-35,-498,-98,396
56,-95,-151,19,104,-123,32,136,-41,-510,-113,379
43,-106,-149,32,96,-127,27,128,-51,-507,-113,385
29,-103,-132,37,81,-117,18,119,-58,-502,-135,401
12,-112,-124,51,68,-118,-5,111,-71,-500,-149,421
47,-112,-159,33,103,-135,-6,103,-86,-494,-136,432
56,-109,-164,27,110,-136,6,95,-77,-494,-136,471
54,-105,-159,25,107,-131,5,90,-70,-493,-152,485
47,-102,-149,28,99,-126,0,85,-66,-494,-151,492
55,-97,-152,21,104,-124,0,79,-55,-487,-138,476
63,-96,-159,16,112,-127,0,75,-62,-475,-151,465
41,-105,-146,32,94,-125,-1,65,-81,-463,-169,462
31,-101,-133,35,82,-117,7,90,-79,-433,-157,454
27,-98,-124,36,76,-111,1,105,-86,-452,-148,454
42,-92,-134,25,88,-112,12,92,-80,-463,-145,444
47,-93,-140,23,94,-116,21,88,-64,-449,-139,454
42,-102,-143,30,93,-122,8,78,-63,-452,-134,477
45,-99,-144,27,94,-121,8,73,-55,-440,-128,474
55,-99,-155,22,105,-127,-2,77,-54,-430,-124,475
54,-94,-148,21,102,-121,-3,79,-45,-414,-116,474
64,-96,-159,16,112,-127,12,68,-49,-401,-114,482
61,-90,-151,15,106,-120,37,98,-37,-382,-96,502
65,-62,-127,-1,96,-94,58,125,5,-363,-92,475
109,-50,-160,-29,135,-105,60,131,12,-363,-114,476
106,-44,-150,-31,129,-96,58,153,20,-344,-85,522
109,-45,-154,-32,132,-99,-6,112,37,-310,-65,534
189,-22,-210,-83,199,-116,-43,84,4,-337,-89,515
154,-21,-175,-67,165,-98,1,85,-42,-364,-99,497
60,-88,-148,14,104,-117,22,70,-56,-368,-104,447
77,-89,-166,7,121,-127,24,71,-62,-422,-124,418
45,-95,-139,25,92,-117,17,54,-77,-446,-148,427
3,-127,-130,62,67,-128,14,58,-57,-414,-146,401
8,-122,-130,57,69,-126,8,41,-66,-436,-153,377
21,-129,-150,54,86,-139,7,44,-51,-413,-130,373
15,-120,-135,53,75,-127,23,64,-50,-406,-141,404
-14,-129,-115,72,51,-122,20,82,-45,-373,-135,400
-29,-87,-58,59,14,-72,42,105,76,-263,-52,438
147,-66,-212,-40,179,-139,-7,200,252,147,287,641
615,5,-610,-310,613,-302,-111,433,604,761,837,969
512,180,-332,-346,422,-76,-219,-254,66,-100,397,974
16,169,153,-93,-69,161,-439,-1351,-964,-1341,-406,651
-160,60,220,49,-190,139,-459,-1323,-1033,-1333,-523,511
-182,-58,124,120,-153,33,-308,-814,-782,-1074,-452,451
-4,-98,-95,51,46,-96,-188,-338,-433,-712,-259,442
69,-68,-137,0,103,-102,-39,-29,-144,-452,-155,456
42,-75,-116,17,79,-95,-6,44,-83,-378,-104,440
70,-48,-118,-11,95,-83,-5,105,-33,-326,-82,448
92,-11,-103,-40,98,-56,9,106,-28,-318,-99,437
95,-9,-104,-43,100,-56,23,125,-8,-287,-73,442
92,5,-87,-49,90,-41,31,151,-11,-282,-76,468
129,43,-86,-86,107,-21,21,160,21,-260,-55,468
103,31,-72,-67,87,-20,16,163,52,-247,-49,467
129,48,-81,-88,105,-16,7,167,48,-223,-37,485
184,73,-111,-128,148,-19,30,206,79,-218,-26,496
161,45,-116,-103,138,-35,14,214,74,-212,-19,478
149,57,-92,-103,120,-17,1,211,71,-169,-1,491
151,57,-94,-104,122,-18,2,221,96,-141,6,539
149,38,-111,-94,130,-36,-7,234,113,-105,39,545
214,90,-124,-152,168,-17,-7,261,145,-78,92,581
280,137,-143,-209,211,-3,-33,288,165,-48,109,594
280,143,-137,-212,208,3,-46,304,192,2,131,605
275,141,-134,-208,204,4,-55,336,231,42,180,647
339,171,-168,-255,253,2,-63,360,259,70,211,679
375,208,-168,-291,271,19,-77,347,269,90,237,717
352,213,-139,-283,245,37,-94,338,264,113,258,714
378,244,-134,-310,256,55,-112,327,253,118,268,735
371,246,-125,-308,248,60,-134,308,258,124,281,758
342,195,-147,-268,244,24,-122,269,242,97,250,738
296,161,-135,-228,215,13,-108,219,189,47,188,681
199,128,-70,-163,135,29,-77,187,156,1,139,613
147,82,-65,-114,106,8,-37,154,116,-63,86,569
137,60,-78,-98,107,-9,-18,127,78,-107,41,538
75,14,-61,-44,68,-23,2,110,69,-139,1,511
53,1,-52,-27,52,-25,14,93,46,-149,-27,462
36,7,-29,-21,32,-11,28,85,24,-170,-45,435
-12,-35,-23,24,6,-29,33,79,15,-204,-80,432
29,-39,-69,5,50,-54,31,77,10,-214,-92,422
0,-54,-54,27,27,-53,29,70,2,-215,-90,417
-20,-70,-50,45,16,-60,30,68,-4,-215,-96,408
10,-62,-72,26,41,-67,24,63,-11,-215,-94,403
-12,-67,-55,40,22,-61,25,67,-25,-215,-96,398
1,-63,-64,31,33,-63,31,63,-23,-212,-92,406
-8,-59,-51,34,22,-55,15,40,-19,-203,-88,429
-19,-50,-31,34,7,-40,47,78,-13,-194,-82,422
28,-44,-72,8,51,-58,62,87,-11,-189,-79,415
35,-47,-82,6,59,-64,39,59,-21,-182,-73,403
-25,-43,-18,34,-3,-30,35,57,-19,-178,-70,398
-18,-48,-30,33,6,-39,33,47,-17,-172,-76,418
9,-33,-42,13,26,-37,36,45,-11,-166,-87,412
-7,-41,-34,25,13,-37,34,37,-25,-162,-99,403
-6,-82,-77,44,36,-79,35,32,-43,-155,-90,359
-43,-79,-35,61,-4,-57,35,33,-39,-151,-108,333
-74,-67,7,71,-41,-30,37,34,-40,-142,-104,356
-18,-58,-40,38,11,-49,41,43,-41,-150,-84,362
-4,-51,-48,28,22,-49,39,38,-38,-175,-110,354
-34,-57,-23,46,-5,-40,40,29,-45,-170,-108,357
-20,-54,-34,37,7,-44,40,19,-55,-164,-103,396
-48,-60,-12,54,-18,-36,40,13,-49,-160,-102,419
-71,-61,10,66,-40,-25,38,24,-43,-152,-95,420
-49,-57,-7,54,-21,-32,32,20,-39,-152,-96,414
-49,-82,-34,65,-7,-58,28,11,-30,-157,-100,399
-26,-84,-59,55,17,-71,23,7,-38,-155,-109,390
-20,-72,-52,47,16,-62,19,-3,-44,-152,-107,382
-42,-69,-27,55,-7,-48,15,-1,-53,-150,-100,376
-45,-71,-26,58,-9,-48,29,6,-67,-146,-98,371
-39,-69,-30,55,-4,-50,41,7,-63,-145,-92,367
-60,-48,12,54,-36,-18,39,22,-59,-137,-90,363
-87,-80,6,84,-46,-37,40,28,-56,-145,-116,355
-76,-94,-18,86,-29,-56,39,13,-54,-150,-127,345
-70,-73,-3,71,-33,-38,41,4,-55,-142,-118,343
-69,-72,-2,71,-33,-37,37,-12,-55,-139,-117,335
-66,-56,10,61,-38,-23,36,-15,-53,-134,-117,337
-52,-61,-10,57,-21,-35,34,-7,-63,-129,-123,344
-33,-74,-41,54,4,-57,33,-2,-72,-117,-117,299
-36,-66,-30,51,-3,-47,28,9,-69,-111,-118,267
-27,-53,-26,40,0,-40,32,3,-51,-102,-97,292
3,-22,-25,9,15,-23,51,20,-22,-91,-72,307
14,1,-13,-7,13,-5,52,51,-12,-76,-78,302
17,-20,-37,2,27,-28,72,67,8,-61,-58,298
25,-10,-35,-8,30,-22,62,72,42,-57,-46,310
47,20,-27,-33,36,-3,30,34,15,-63,-39,321
71,4,-67,-37,69,-32,32,23,-18,-62,-28,306
56,-9,-65,-24,61,-37,25,6,-28,-66,-61,290
17,-37,-54,10,36,-45,21,-26,-48,-70,-77,277
-1,-66,-65,33,32,-65,17,-19,-50,-74,-90,266
3,-68,-71,33,37,-69,12,-39,-76,-97,-103,254
-4,-57,-54,31,25,-55,23,-48,-70,-88,-96,255
-13,-54,-41,33,14,-47,25,-52,-82,-106,-130,245
-37,-45,-8,42,-15,-27,25,-34,-61,-81,-111,225
-74,-38,36,56,-55,-1,37,-35,-78,-112,-131,213
-28,-54,-26,41,0,-40,26,-4,-43,-64,-104,219
-40,-3,36,21,-38,16,15,9,75,78,-13,250
193,29,-164,-110,178,-68,-44,171,334,620,422,476
653,145,-509,-399,581,-182,-134,302,645,1102,882,811
415,263,-152,-339,283,55,-323,-713,-224,-84,218,690
-28,181,208,-77,-118,194,-547,-1647,-1158,-1117,-442,413
-167,64,231,51,-199,147,-484,-1359,-1045,-956,-475,297
-155,-26,129,90,-142,51,-331,-826,-771,-705,-417,193
28,-19,-48,-4,38,-33,-171,-330,-363,-312,-202,209
12,-27,-39,8,25,-32,-23,-75,-142,-134,-126,232
-31,-23,8,27,-19,-8,-15,-33,-102,-88,-97,232
50,34,-16,-42,33,9,2,6,-52,-44,-72,230
58,32,-26,-45,42,3,18,31,-32,-24,-53,223
33,27,-6,-30,20,10,30,71,-2,9,-39,223
72,25,-47,-48,59,-11,35,74,-5,17,-46,219
50,17,-33,-33,42,-8,23,88,12,42,-33,227
45,18,-27,-31,35,-5,24,103,16,54,-38,223
121,43,-78,-82,99,-17,12,98,30,68,-17,225
110,44,-66,-77,87,-11,13,104,46,71,2,228
119,56,-62,-87,90,-3,18,129,49,87,22,233
188,97,-91,-142,139,3,13,145,63,115,41,255
210,95,-115,-152,162,-9,3,166,92,140,47,262
193,92,-101,-142,146,-4,-3,188,109,153,63,258
199,106,-93,-153,146,7,-11,196,123,171,82,277
198,112,-86,-154,141,13,-24,245,174,218,133,307
218,132,-86,-174,152,22,-23,274,196,243,170,312
271,162,-109,-216,190,26,-46,276,205,266,198,322
311,183,-128,-247,219,27,-61,317,262,336,258,356
334,211,-123,-272,229,43,-61,326,283,364,284,390
339,225,-115,-282,227,55,-87,303,269,358,295,399
338,229,-109,-283,223,60,-100,295,269,364,291,387
311,218,-93,-264,202,62,-105,268,246,350,273,384
312,201,-111,-256,211,45,-107,203,204,311,251,366
292,194,-98,-243,195,48,-98,148,160,257,217,320
200,126,-73,-163,136,26,-72,106,117,203,162,268
134,77,-57,-105,96,10,-38,56,70,164,87,221
91,57,-35,-74,63,11,-15,35,53,134,51,174
67,11,-55,-39,61,-22,-5,26,26,95,27,130
53,10,-43,-32,48,-16,0,13,-18,71,-8,107
18,8,-10,-12,14,-1,9,8,-18,63,-36,92
23,-1,-24,-10,23,-12,13,-11,-13,52,-46,86
-3,-17,-15,10,6,-16,24,-24,-3,43,-38,79
-48,-33,15,40,-31,-8,40,-29,-26,36,-30,71
-13,-18,-4,16,-4,-11,32,-37,-53,31,-29,65
22,-16,-38,-2,30,-27,26,-28,-41,26,-56,54
26,-7,-33,-9,30,-20,33,-45,-57,19,-68,67
29,0,-29,-15,29,-14,32,-52,-62,16,-63,74
11,-21,-32,5,21,-26,29,-32,-49,20,-62,62
-14,-31,-17,23,2,-24,26,-29,-42,28,-59,59
8,-26,-34,10,22,-30,24,-20,-39,38,-58,50
-23,-21,2,22,-13,-9,19,-23,-41,40,-51,46
-33,-22,11,28,-22,-5,25,-43,-39,41,-50,37
8,-9,-17,0,13,-13,36,-46,-41,45,-63,28
-10,-25,-15,18,3,-20,35,-44,-37,46,-66,20
2,-26,-28,13,15,-27,34,-46,-43,55,-63,10
5,10,5,-7,0,7,30,-44,-52,52,-62,2
2,-28,-30,14,16,-29,30,-47,-48,46,-58,-12
6,-42,-48,18,28,-45,28,-50,-47,43,-64,-6
2,-28,-30,13,16,-29,24,-50,-43,37,-73,3
2,-26,-27,12,15,-26,26,-50,-60,34,-80,-8
-8,-17,-9,13,1,-13,21,-51,-66,30,-77,-14
-22,-11,11,16,-17,0,20,-53,-64,28,-76,-24
-30,1,31,14,-31,16,20,-70,-87,25,-98,-34
-13,-5,8,9,-10,2,13,-76,-86,21,-92,-33
-19,-9,10,14,-15,0,3,-71,-78,20,-76,-28
-39,-37,2,38,-20,-17,-8,-70,-81,19,-78,-25
-66,-43,23,54,-45,-10,-12,-65,-79,23,-83,-55
-61,-37,24,49,-42,-7,4,-65,-81,21,-82,-61
-37,-61,-24,49,-6,-42,16,-64,-80,10,-72,-60
-50,-60,-11,55,-19,-35,16,-68,-78,-4,-71,-63
-52,-50,2,51,-27,-24,14,-71,-74,-7,-60,-21
-60,-45,14,52,-37,-15,15,-69,-75,2,-58,-22
-65,-37,28,51,-46,-5,15,-70,-75,11,-82,-42
-75,-36,39,55,-57,1,14,-63,-74,19,-81,-47
-50,-25,25,37,-37,0,24,-67,-77,13,-70,-51
-44,-25,19,34,-31,-3,19,-59,-62,3,-68,-38
-87,-15,72,51,-80,29,20,-65,-66,-10,-57,-31
-84,-6,79,45,-81,36,25,-87,-81,-8,-60,-24
-85,-37,47,61,-66,5,17,-83,-82,-11,-82,-18
-75,-30,45,52,-60,7,16,-79,-77,-25,-79,-11
-57,-12,44,34,-50,16,7,-76,-88,-16,-65,-5
-48,2,50,22,-49,26,25,-68,-68,-1,-56,10
-26,25,51,1,-39,38,39,-40,-17,32,-55,22
-2,48,50,-23,-27,49,48,-19,-30,58,-52,15
8,44,36,-27,-14,40,65,-10,-18,51,-15,19
16,37,22,-27,-3,29,33,-2,6,66,7,43
56,70,14,-63,20,42,-2,-33,-15,90,11,51
34,64,29,-49,2,46,-7,-44,-16,83,26,39
-9,50,60,-21,-35,55,-6,-66,-52,33,-1,26
17,12,-5,-15,11,3,-15,-85,-81,7,-36,15
8,-7,-15,-1,12,-11,-12,-70,-67,-2,-40,2
-30,-17,13,23,-22,-2,-3,-92,-91,-37,-51,-40
-62,-25,38,43,-50,7,1,-106,-91,-41,-65,-75
-95,-14,81,55,-88,33,11,-99,-68,-32,-68,-76
-115,-34,81,74,-98,24,13,-85,-57,-13,-55,-66
-103,-25,78,64,-90,26,16,-88,-89,-43,-70,-58
-78,7,85,35,-81,45,15,-49,-20,32,-40,-49
-33,69,102,-18,-68,85,7,-32,95,219,86,14
341,83,-258,-212,299,-88,-56,207,405,836,607,301
604,176,-427,-390,515,-125,-160,148,497,930,811,532
206,283,77,-244,64,180,-353,-995,-483,-390,51,339
-161,205,366,-23,-264,286,-524,-1662,-1122,-1028,-397,119
-215,100,315,57,-266,208,-427,-1268,-933,-818,-400,-22
-125,35,160,45,-143,97,-278,-746,-666,-573,-305,-102
-52,7,58,22,-55,32,-138,-302,-284,-196,-113,-61
-64,10,74,26,-69,42,-28,-114,-117,-79,-72,-56
-20,34,54,-7,-38,44,-11,-49,-59,-16,-28,-50
-19,36,55,-9,-37,46,3,-20,-31,25,-22,-74
-27,18,45,5,-37,31,18,3,-35,32,-7,-67
-46,-7,39,26,-42,16,39,38,-16,51,7,-52
-21,17,37,2,-30,27,32,22,-9,64,23,-64
20,49,29,-35,-5,38,29,32,34,77,46,-57
13,42,30,-28,-9,36,26,53,34,89,36,-62
29,46,17,-38,5,32,21,80,32,106,41,-59
37,45,9,-41,13,27,19,79,43,96,52,-38
52,59,7,-56,22,33,11,88,60,118,105,10
62,60,-2,-61,31,29,2,109,74,146,114,20
62,50,-12,-56,37,19,-4,114,79,163,107,15
78,80,1,-79,38,40,-13,152,128,204,130,9
117,104,-13,-110,65,45,-17,173,145,214,141,24
153,107,-46,-129,99,30,-10,207,171,250,191,67
173,137,-37,-155,105,50,-45,236,206,295,229,81
220,171,-49,-195,134,61,-59,248,220,312,248,105
257,193,-64,-225,160,64,-62,272,246,339,278,125
295,218,-77,-256,185,71,-75,278,269,358,313,158
304,229,-75,-266,189,77,-81,279,286,374,336,187
300,233,-67,-266,183,82,-114,240,269,363,348,189
307,224,-83,-265,195,70,-104,201,244,348,342,182
252,204,-48,-228,150,78,-94,154,201,322,294,145
173,162,-11,-167,92,75,-93,99,164,273,251,102
104,102,-2,-103,53,50,-62,69,126,214,180,41
52,60,8,-56,22,33,-44,29,80,167,123,-25
16,37,21,-27,-2,29,-15,2,67,149,82,-58
-20,31,51,-6,-35,41,13,-14,32,114,42,-104
-47,28,75,9,-61,51,17,-30,9,83,34,-122
-48,27,75,11,-62,50,8,-37,5,79,14,-129
-42,20,62,11,-52,41,14,-53,-18,81,5,-148
-43,9,53,17,-48,31,40,-55,-23,79,11,-144
-78,-13,65,45,-71,26,41,-49,-13,82,6,-157
-90,-25,65,57,-77,20,39,-47,-10,89,1,-178
-76,-1,75,38,-75,36,36,-42,-32,83,-2,-189
-105,-11,94,58,-99,41,35,-40,-37,75,-8,-184
-129,-45,83,87,-105,19,34,-36,-29,69,-9,-174
-108,-35,73,72,-90,18,30,-34,-30,59,-4,-171
-97,-26,72,61,-84,23,28,-30,-21,58,1,-159
-50,-2,47,26,-49,22,23,-28,-22,67,4,-167
-51,13,64,19,-58,38,38,-24,-13,91,10,-182
-136,-27,109,81,-122,41,47,-29,-12,98,5,-180
-121,-30,91,75,-106,30,44,-48,-30,86,6,-177
-137,-31,105,83,-121,37,43,-50,-31,97,12,-175
-107,-43,64,75,-85,10,39,-50,-27,94,11,-175
-89,-53,36,71,-62,-9,41,-50,-25,87,8,-175
-125,-39,86,81,-105,23,35,-50,-26,93,4,-175
-84,-14,70,49,-76,27,27,-49,-31,87,-1,-174
-120,-57,63,88,-92,3,21,-44,-49,76,-5,-169
-139,-69,70,104,-105,1,13,-40,-57,71,-9,-171
-156,-48,109,102,-132,31,5,-34,-55,62,-16,-169
-156,-48,108,102,-132,30,1,-59,-50,62,-22,-179
-147,-61,87,104,-117,13,7,-73,-52,76,-20,-184
-154,-59,95,107,-125,18,15,-64,-45,79,-5,-168
-108,-47,60,77,-84,6,19,-64,-46,95,-23,-193
-129,-46,83,87,-106,19,30,-58,-66,97,-26,-187
-109,-39,70,74,-90,15,22,-55,-48,83,1,-165
-115,-57,58,86,-86,1,16,-59,-48,82,-13,-191
-162,-68,94,114,-127,13,31,-58,-57,79,-28,-195
-139,-66,73,102,-105,3,30,-55,-49,81,-34,-190
-161,-73,88,117,-125,8,30,-52,-48,79,-34,-185
-138,-50,89,94,-113,19,30,-50,-43,82,-27,-177
-109,-31,78,70,-93,24,30,-46,-40,94,-23,-170
-98,-18,80,58,-89,31,29,-44,-44,95,-18,-169
-89,-19,70,54,-79,25,25,-50,-44,90,-14,-197
-122,-49,73,85,-97,11,25,-49,-34,89,-10,-211
-105,-51,54,78,-79,1,23,-45,-48,84,-21,-209
-116,-37,79,76,-97,20,19,-39,-55,88,-27,-213
-160,-41,119,100,-139,39,20,-51,-44,117,-19,-215
-130,-36,94,83,-111,29,33,-63,-42,122,-19,-216
-117,-12,105,64,-111,46,42,-42,-17,118,-2,-209
-114,-5,109,59,-111,52,58,-20,13,130,38,-197
-79,6,85,36,-81,45,83,15,28,135,41,-184
-92,14,105,39,-99,59,79,34,37,147,39,-180
-50,35,85,7,-68,60,49,22,32,148,59,-177
3,65,62,-34,-30,64,8,-12,10,137,58,-174
-25,54,79,-15,-52,66,-11,-43,-3,138,70,-172
-44,40,85,1,-65,62,0,-54,-17,124,59,-167
-70,25,94,22,-82,59,6,-57,-32,128,25,-191
-133,-27,106,80,-120,39,21,-60,-49,106,-4,-217
-158,-65,93,111,-125,14,36,-66,-52,93,1,-215
-157,-57,101,107,-129,22,35,-67,-50,83,9,-213
-159,-63,96,110,-127,16,36,-61,-61,72,9,-223
-147,-57,90,102,-119,16,34,-49,-36,95,40,-228
-153,-65,88,109,-121,11,36,-61,-70,52,5,-234
-121,-29,93,74,-107,32,36,-33,21,139,46,-220
-72,27,99,22,-86,63,12,-7,150,366,230,-123
297,57,-240,-177,268,-91,-50,272,533,1115,839,200
559,218,-341,-388,450,-62,-157,54,524,1058,966,418
124,268,143,-196,-10,205,-388,-1169,-641,-462,53,171
-209,171,380,19,-295,275,-509,-1625,-1164,-985,-365,-91
-236,49,286,93,-261,167,-391,-1162,-919,-728,-334,-203
-209,-51,158,130,-183,53,-249,-643,-606,-427,-208,-241
-118,-21,97,69,-107,38,-82,-223,-200,-40,-18,-220
-61,20,81,20,-71,50,-1,-93,-102,44,-12,-229
-69,28,97,20,-83,62,18,-29,-26,118,60,-219
-112,-12,100,62,-106,44,42,10,14,143,84,-220
-99,-24,75,62,-87,25,39,36,19,160,100,-224
-81,-10,70,45,-75,30,49,51,39,160,108,-221
-67,-13,54,40,-60,20,43,57,45,182,103,-217
-50,-3,46,26,-48,21,46,56,75,194,111,-210
-44,1,45,21,-44,22,45,71,74,192,116,-209
-25,21,46,1,-36,33,45,111,70,231,149,-201
-10,33,43,-12,-27,38,39,112,78,221,151,-199
-23,27,50,-3,-36,38,27,112,104,243,149,-210
21,50,29,-36,-4,39,22,119,109,255,162,-196
65,70,5,-68,30,37,8,151,132,270,179,-173
96,66,-30,-81,63,18,11,171,163,306,195,-165
142,86,-56,-113,99,14,14,190,175,331,223,-147
132,109,-23,-120,77,43,5,236,210,377,262,-116
137,123,-13,-130,75,55,-3,262,247,398,282,-94
179,137,-42,-158,110,48,-19,270,265,415,319,-81
219,172,-48,-195,133,62,-30,289,283,451,364,-64
226,199,-26,-212,126,86,-59,287,298,469,377,-40
256,217,-39,-236,147,89,-83,274,308,477,401,-27
285,261,-25,-273,155,118,-87,256,285,462,415,-27
225,247,22,-236,101,135,-93,207,244,443,401,-17
187,194,7,-190,90,100,-78,165,227,419,369,-34
171,161,-10,-166,90,75,-59,122,184,360,305,-111
76,118,42,-97,16,80,-47,75,124,288,236,-180
16,84,69,-50,-27,76,-36,36,79,223,181,-228
-6,53,58,-24,-33,55,-18,16,49,188,135,-276
-42,8,49,17,-46,28,18,8,40,175,98,-308
-53,-4,49,28,-51,22,27,-7,30,162,81,-334
-88,4,92,42,-90,48,24,-15,20,151,68,-334
-83,-5,78,44,-80,36,26,-26,11,139,58,-338
-85,-6,79,45,-82,36,24,-27,4,131,53,-356
-107,-14,93,60,-100,39,26,-31,0,118,45,-354
-103,-13,91,57,-96,39,23,-43,-8,115,39,-356
-82,12,94,35,-89,53,34,-33,-8,120,32,-353
-65,-14,52,39,-59,19,46,-21,-5,115,29,-364
-93,-24,69,58,-80,23,45,-17,-5,110,33,-371
-117,-22,95,69,-106,36,43,-32,-6,106,34,-364
-133,-42,91,87,-111,24,40,-37,-5,102,42,-369
-113,-24,89,69,-101,32,39,-34,-5,97,52,-370
-100,-17,83,58,-91,33,43,-36,-6,95,46,-375
-76,3,79,37,-77,40,45,-35,-1,90,45,-372
-86,-10,76,48,-81,33,45,-34,-2,92,41,-379
-120,-53,67,86,-93,6,58,-30,-3,109,39,-393
-115,-45,70,80,-92,12,60,-28,-4,105,55,-388
-115,-41,73,78,-94,16,54,-24,-3,97,44,-386
-90,-35,55,62,-72,10,52,-22,-12,91,28,-384
-93,-29,64,61,-79,18,47,-18,-13,84,31,-382
-123,-44,79,83,-101,18,44,-33,-13,79,28,-377
-140,-53,87,96,-113,17,41,-48,-39,81,25,-374
-142,-63,78,102,-110,7,46,-44,-41,94,25,-370
-123,-57,67,90,-95,5,44,-45,-39,96,22,-366
-107,-47,60,77,-83,7,41,-45,-41,94,20,-364
-101,-41,60,71,-80,10,38,-44,-39,95,20,-350
-104,-20,85,62,-94,32,35,-48,-40,95,20,-351
-137,-39,99,88,-118,30,35,-51,-35,94,20,-366
-155,-59,96,107,-125,18,44,-49,-34,86,20,-361
-153,-51,102,102,-127,25,55,-44,-30,77,15,-353
-134,-50,84,92,-109,17,55,-43,-28,83,8,-367
-117,-47,70,82,-93,11,55,-39,-25,84,4,-374
-132,-42,89,86,-110,24,55,-40,-23,77,-5,-379
-98,-50,48,74,-73,-1,55,-54,-29,74,3,-370
-124,-64,60,94,-92,-2,53,-54,-27,69,21,-365
-137,-44,94,90,-116,25,45,-49,-21,64,17,-394
-116,-37,79,76,-97,21,40,-46,-18,65,10,-396
-125,-35,90,79,-107,27,32,-41,-12,65,7,-394
-106,-26,80,66,-93,26,25,-40,-11,65,-1,-396
-128,-44,84,86,-106,19,22,-55,-31,65,-4,-394
-90,-32,58,61,-74,13,27,-63,-36,63,5,-395
-105,-25,80,65,-93,28,50,-46,-18,69,27,-388
-105,-6,98,55,-101,46,52,-36,-6,74,46,-387
-39,30,70,4,-55,50,67,-2,25,104,53,-379
-82,1,83,40,-83,41,86,31,44,119,65,-371
-45,19,64,13,-55,42,68,48,44,123,73,-359
-3,61,64,-29,-34,62,22,12,47,136,79,-348
-10,40,51,-16,-31,45,-21,-35,32,123,69,-335
-18,32,50,-7,-34,41,7,-28,23,119,62,-325
-49,-3,46,26,-48,21,21,-49,8,101,63,-320
-73,-19,54,46,-63,17,20,-45,0,97,51,-311
-99,-27,72,63,-85,22,37,-61,-29,68,35,-353
-112,-72,40,91,-76,-16,34,-78,-38,55,37,-378
-133,-74,58,103,-95,-8,36,-67,-29,57,29,-374
-127,-77,50,102,-88,-13,31,-68,-35,58,23,-380
-153,-72,81,112,-117,4,46,-57,-17,57,8,-379
-155,-79,75,117,-114,-2,44,-52,-30,19,-12,-376
-108,-30,78,69,-93,24,50,3,72,136,62,-341
-41,42,83,-1,-62,63,29,34,204,390,263,-239
370,78,-291,-224,330,-106,-63,301,580,1098,849,105
561,208,-353,-384,457,-73,-171,-28,450,876,845,252
133,234,101,-184,16,168,-431,-1294,-702,-581,-33,-29
-173,123,296,25,-234,209,-547,-1645,-1138,-978,-375,-228
-209,14,223,97,-216,119,-396,-1120,-873,-719,-343,-355
-130,-31,99,81,-114,34,-244,-590,-524,-396,-194,-368
-103,-35,68,69,-85,17,-56,-180,-153,-50,-3,-307
-107,-34,74,70,-90,20,16,-61,-56,8,12,-315
-65,-10,54,37,-59,22,27,-9,24,90,57,-303
-71,-18,53,44,-62,18,58,15,37,108,65,-306
-61,-21,40,41,-50,9,55,43,43,117,73,-300
-47,-16,30,31,-38,7,63,48,61,122,81,-300
-9,10,18,-1,-14,14,59,56,68,136,89,-302
11,20,9,-16,1,14,65,76,81,163,94,-289
11,25,14,-19,-2,19,65,80,82,157,114,-278
14,27,14,-21,0,21,64,111,116,168,134,-269
17,5,-12,-11,15,-4,56,123,127,180,146,-266
16,26,10,-21,3,18,48,135,130,187,149,-261
51,39,-12,-45,31,13,40,145,135,192,143,-258
90,53,-37,-71,63,8,32,180,165,224,179,-250
94,58,-35,-76,64,11,36,194,191,257,184,-246
139,76,-63,-107,101,7,13,212,204,279,209,-216
148,117,-30,-132,89,43,-1,252,236,305,242,-178
183,131,-52,-157,118,39,-13,268,255,329,261,-163
236,154,-82,-195,159,36,-31,296,299,367,307,-138
244,181,-62,-212,153,59,-33,295,315,399,329,-104
268,213,-55,-241,161,79,-57,284,310,411,347,-64
297,220,-76,-258,187,72,-65,277,325,410,362,-56
299,222,-76,-260,187,73,-76,259,318,407,387,-72
272,221,-51,-246,161,85,-93,231,305,401,386,-72
244,179,-65,-211,154,57,-82,178,259,344,336,-72
181,141,-40,-161,110,50,-69,125,190,273,265,-115
112,99,-13,-105,63,42,-39,75,144,229,193,-196
38,46,8,-43,15,27,-12,35,115,193,147,-243
-2,24,26,-11,-15,25,-2,15,85,167,110,-273
-1,13,14,-6,-8,13,10,4,62,137,95,-302
-55,-18,37,36,-46,9,28,-6,47,113,94,-303
-101,-32,68,66,-84,18,37,-21,32,102,80,-316
-97,-29,68,63,-82,19,34,-26,26,89,66,-327
-103,-38,65,70,-83,13,35,-27,19,83,56,-336
-103,-42,60,72,-82,9,31,-22,13,76,52,-346
-93,-37,56,65,-74,9,28,-29,6,69,49,-353
-100,-44,56,71,-78,5,33,-40,0,63,45,-372
-67,-34,34,50,-50,0,31,-31,12,54,41,-366
-87,-36,51,61,-69,7,42,-48,16,63,38,-361
-131,-59,72,94,-101,6,57,-42,15,67,35,-361
-118,-57,61,87,-89,2,50,-27,13,73,34,-359
-114,-56,58,85,-86,1,48,-33,10,87,36,-361
-86,-40,46,63,-66,3,44,-27,9,84,33,-358
-76,-34,42,55,-59,4,39,-26,15,86,38,-362
-66,-35,31,50,-48,-2,42,-24,29,84,24,-364
-84,-37,46,60,-65,4,39,-28,21,89,18,-363
-101,-46,55,73,-78,4,42,-31,12,94,40,-354
-101,-55,46,78,-73,-5,55,-29,4,85,36,-351
-116,-72,43,94,-80,-14,53,-41,-8,80,29,-374
-101,-69,32,85,-67,-18,48,-45,-3,70,25,-382
-110,-70,40,90,-75,-14,46,-45,2,64,18,-379
-93,-70,22,81,-57,-24,40,-45,9,61,14,-380
-106,-69,37,88,-71,-16,42,-45,13,74,9,-381
-142,-79,63,110,-102,-7,46,-51,12,72,7,-377
-125,-81,44,102,-84,-18,43,-55,4,61,4,-386
-116,-79,37,97,-76,-21,41,-47,1,83,-2,-403
-121,-77,44,99,-82,-17,37,-40,-9,84,9,-394
-99,-73,26,86,-62,-24,35,-62,-33,75,9,-406
-96,-76,19,86,-57,-29,32,-59,-25,70,-11,-413
-123,-68,54,96,-88,-7,24,-52,-21,80,-6,-403
-115,-70,44,92,-79,-13,17,-62,-28,97,4,-398
-123,-75,48,99,-86,-13,10,-50,-23,94,11,-391
-128,-56,72,92,-99,8,2,-54,-27,97,13,-389
-152,-83,69,117,-110,-7,-4,-68,-35,101,-6,-386
-171,-102,69,136,-119,-17,11,-71,-34,100,-21,-383
-150,-89,62,119,-106,-13,32,-69,-31,96,-17,-381
-146,-87,58,116,-102,-14,35,-66,-28,89,-10,-378
-131,-78,53,104,-91,-12,35,-65,-26,81,1,-385
-123,-73,50,98,-86,-11,35,-65,-24,77,19,-406
-109,-65,44,87,-76,-11,34,-59,-16,66,-2,-404
-109,-61,48,85,-78,-7,36,-56,-8,74,-17,-407
-110,-68,43,89,-76,-12,40,-43,3,89,4,-412
-109,-67,42,88,-75,-12,61,-11,18,101,36,-382
-126,-58,68,92,-96,4,88,3,39,134,58,-384
-110,-54,56,82,-82,1,81,21,46,140,43,-384
-44,-21,24,32,-34,1,32,11,31,145,62,-369
-13,9,22,2,-18,16,1,-27,19,142,81,-362
-68,-19,49,44,-58,15,17,-37,13,113,57,-367
-69,-56,13,63,-41,-22,28,-67,1,97,36,-402
-58,-82,-23,70,-17,-52,18,-70,1,92,20,-401
-112,-95,18,103,-65,-38,17,-72,-13,73,-2,-418
-147,-115,32,130,-89,-41,11,-86,-13,83,-7,-441
-160,-100,60,129,-110,-20,4,-92,-23,64,-14,-440
-136,-99,38,117,-87,-30,20,-90,-38,72,-3,-438
-155,-110,45,132,-99,-32,38,-87,-26,55,-2,-435
-167,-94,73,131,-120,-11,35,-72,-26,48,-1,-436
-115,-85,30,100,-73,-27,34,-30,61,152,37,-425
-30,-53,-23,41,-3,-38,14,16,195,435,280,-292
394,8,-387,-201,390,-189,-72,292,556,1121,878,62
475,148,-328,-311,401,-90,-185,-134,285,629,663,118
-57,179,236,-61,-146,207,-388,-1309,-771,-713,-178,-152
-285,88,373,98,-329,230,-465,-1531,-1027,-896,-381,-330
-275,-1,274,138,-275,136,-333,-1043,-788,-671,-350,-455
-160,-72,89,116,-124,8,-208,-561,-493,-362,-204,-440
-80,-59,21,69,-51,-18,-61,-187,-151,-42,-32,-405
-90,-56,34,73,-62,-11,-9,-64,-69,18,7,-414
-58,-52,6,55,-32,-23,6,-14,-15,84,38,-406
-55,-39,16,47,-36,-11,41,3,15,96,50,-412
-23,-38,-15,31,-4,-26,37,21,30,113,70,-408
-36,-13,23,25,-30,5,42,43,47,132,62,-410
-32,-43,-10,37,-11,-26,40,53,61,118,65,-395
-14,-56,-43,35,15,-49,38,57,74,136,72,-382
-39,-24,16,31,-27,-4,45,69,89,171,93,-376
-2,-20,-18,11,8,-18,49,83,102,185,119,-392
46,-11,-57,-17,52,-34,29,95,86,169,116,-379
33,-15,-48,-8,40,-31,22,101,92,171,129,-332
63,17,-47,-40,55,-15,20,102,122,220,151,-323
88,30,-58,-59,73,-14,12,129,132,225,164,-312
86,39,-46,-62,66,-3,11,150,144,230,170,-303
126,79,-47,-102,86,16,-9,191,182,275,195,-279
133,67,-66,-100,99,1,-26,209,199,289,236,-245
180,85,-95,-132,137,-5,-41,230,232,324,258,-236
240,121,-120,-180,179,0,-57,258,270,361,296,-197
255,142,-113,-198,183,14,-64,247,281,377,326,-166
290,173,-117,-231,203,28,-87,239,299,401,355,-146
291,178,-113,-234,202,32,-110,231,293,404,379,-108
290,172,-118,-231,204,26,-106,217,283,400,364,-103
265,170,-95,-217,180,38,-99,181,257,366,339,-127
198,136,-62,-167,130,37,-93,135,214,313,299,-167
135,95,-40,-114,88,27,-73,90,187,266,245,-216
62,53,-9,-57,35,22,-48,45,137,207,189,-278
23,9,-14,-16,18,-3,-18,22,104,167,145,-330
-15,-18,-3,17,-6,-10,-2,7,89,135,88,-372
-61,-39,22,50,-42,-8,8,-2,51,94,49,-403
-95,-53,42,74,-68,-6,34,-16,37,70,41,-405
-116,-63,53,89,-84,-5,41,-37,34,59,29,-426
-113,-66,47,89,-80,-10,41,-41,25,47,20,-436
-82,-64,18,73,-49,-23,50,-36,19,41,14,-425
-81,-60,21,71,-51,-19,50,-34,9,34,11,-425
-114,-61,53,87,-84,-4,50,-31,9,28,7,-418
-91,-57,34,73,-62,-11,45,-28,16,21,4,-414
-93,-72,21,82,-57,-26,45,-37,10,15,-1,-418
-104,-87,16,95,-59,-36,44,-39,14,16,7,-402
-99,-59,40,79,-69,-10,39,-32,23,20,17,-412
-102,-62,39,82,-70,-12,36,-29,16,21,15,-421
-113,-97,17,105,-65,-40,32,-24,11,16,20,-396
-156,-100,57,128,-106,-21,29,-20,6,33,11,-388
-146,-92,54,119,-99,-19,23,-26,-1,46,3,-399
-125,-86,39,105,-82,-24,36,-36,-4,31,-9,-420
-102,-78,24,90,-63,-27,39,-33,0,23,-22,-418
-69,-74,-5,72,-32,-40,30,-31,-8,19,-17,-413
-81,-62,19,71,-50,-21,49,-25,-12,17,-17,-412
-111,-74,36,92,-73,-19,57,-28,-5,15,-11,-405
-136,-86,49,111,-92,-18,54,-50,-6,9,-13,-405
-132,-85,47,108,-89,-18,52,-50,1,12,-2,-404
-120,-85,35,102,-77,-25,49,-50,-3,-3,-8,-405
-133,-79,54,106,-93,-12,51,-50,-14,4,-45,-405
-132,-98,34,115,-83,-32,50,-50,-5,16,-44,-405
-105,-92,13,98,-58,-39,50,-49,-8,-6,-39,-405
-121,-82,39,101,-80,-21,51,-42,-15,-17,-38,-401
-135,-80,55,107,-95,-12,49,-38,-20,-33,-31,-400
-130,-74,56,101,-92,-9,52,-30,-25,-16,-31,-399
-123,-71,52,97,-88,-9,44,-41,-20,-1,-35,-395
-115,-63,52,89,-83,-5,38,-61,-20,-27,-42,-395
-125,-78,47,102,-86,-15,56,-59,-20,-31,-40,-394
-121,-66,56,93,-88,-5,60,-55,-20,-30,-40,-389
-129,-77,52,102,-90,-12,49,-54,-19,-29,-40,-390
-153,-95,58,124,-105,-19,52,-48,-23,-25,-40,-386
-128,-81,47,104,-87,-17,37,-57,-29,-24,-40,-377
-105,-82,24,94,-64,-29,27,-70,-25,-32,-48,-395
-132,-70,62,101,-97,-4,52,-64,-18,-32,-49,-401
-120,-59,60,89,-90,1,58,-57,-15,-22,-43,-383
-106,-52,54,79,-80,1,51,-54,-7,-12,-40,-374
-96,-47,48,71,-72,0,51,-42,-3,-5,-30,-356
-100,-42,58,71,-79,8,52,-17,9,17,-18,-349
-85,-33,52,59,-68,10,76,21,56,48,-7,-349
-56,-29,27,42,-41,-1,87,39,63,50,18,-351
-56,-13,42,34,-49,14,56,31,54,63,35,-349
-16,10,26,2,-21,18,33,-7,37,60,26,-350
-21,-8,13,14,-17,2,35,-45,8,56,34,-357
-49,-39,9,44,-29,-15,30,-51,2,35,16,-348
-101,-57,44,79,-72,-7,22,-70,-8,10,-3,-371
-151,-69,82,110,-116,7,42,-71,-17,14,-4,-391
-137,-76,61,106,-99,-7,53,-72,-31,16,-40,-394
-159,-83,76,121,-117,-4,49,-99,-45,9,-55,-418
-160,-92,68,126,-114,-12,50,-95,-53,-10,-48,-416
-132,-82,50,106,-91,-15,50,-72,-21,5,-32,-415
-130,-78,53,104,-91,-12,49,-74,-45,-21,-54,-428
-108,-80,28,94,-67,-26,51,-22,35,63,-26,-385
-119,-34,85,77,-102,25,36,1,158,255,132,-300
243,-10,-252,-116,247,-131,-38,240,510,967,718,22
566,155,-412,-360,489,-128,-138,101,573,1041,920,272
173,250,77,-211,47,163,-355,-1088,-539,-444,45,27
-165,133,298,16,-232,215,-510,-1649,-1161,-1076,-437,-228
-266,34,300,116,-283,167,-399,-1205,-922,-824,-407,-342
-205,-63,142,133,-173,39,-242,-692,-613,-533,-299,-377
-87,-63,24,75,-55,-19,-83,-257,-219,-147,-97,-344
-90,-47,43,68,-66,-2,-2,-87,-76,-62,-73,-345
-54,-35,19,44,-36,-8,19,-36,-16,26,-20,-331
-111,-40,71,76,-91,15,62,-18,8,49,1,-332
-122,-55,68,88,-95,6,56,3,31,74,9,-328
-104,-33,71,68,-87,19,71,54,75,106,21,-317
-47,-30,17,39,-32,-6,82,71,78,111,36,-308
14,-15,-29,1,21,-22,72,70,82,131,62,-298
-21,-26,-5,23,-7,-15,71,70,79,116,51,-293
-17,-6,11,12,-14,2,64,76,91,144,57,-285
-5,26,31,-10,-18,28,61,90,106,164,60,-274
-6,8,14,-2,-10,11,55,106,108,177,85,-259
18,21,3,-19,7,12,45,119,110,187,99,-244
73,52,-21,-63,47,16,35,141,139,211,110,-222
67,46,-21,-57,44,12,25,169,163,242,143,-203
83,57,-26,-70,54,15,16,189,195,269,143,-183
113,95,-18,-104,65,38,8,218,220,297,172,-151
144,115,-29,-129,86,42,1,236,230,312,212,-127
195,132,-63,-163,129,34,-11,252,265,346,235,-105
216,160,-56,-188,136,52,-19,288,310,383,279,-75
260,185,-75,-222,167,55,-53,275,320,405,303,-51
270,202,-67,-236,168,67,-81,268,310,403,316,-37
285,218,-67,-251,175,76,-95,244,304,391,316,-21
286,204,-82,-244,184,61,-95,195,280,372,298,-9
230,163,-67,-196,149,48,-73,168,236,336,270,-31
173,127,-46,-149,109,40,-70,120,184,288,213,-83
110,85,-25,-97,68,29,-53,75,137,234,145,-159
54,48,-6,-51,30,21,-15,35,101,191,90,-188
2,22,20,-13,-10,21,18,6,81,137,54,-204
-57,-4,54,30,-55,25,33,-17,77,113,27,-226
-82,-21,61,51,-72,20,58,-21,73,114,9,-235
-82,-39,43,60,-62,2,78,-27,44,89,-7,-268
-58,-34,23,46,-40,-5,67,-48,19,77,-32,-276
-69,-20,49,44,-59,15,65,-42,20,81,-48,-282
-106,-54,52,80,-79,-1,60,-39,13,78,-50,-271
-100,-73,27,86,-63,-23,55,-34,15,55,-51,-265
-121,-61,59,91,-90,-1,52,-44,0,35,-48,-284
-125,-61,64,93,-95,1,46,-56,-9,35,-44,-278
-105,-54,51,80,-78,-1,42,-47,11,30,-46,-279
-101,-51,50,76,-76,0,38,-42,7,29,-41,-275
-89,-50,39,69,-64,-5,32,-34,6,24,-40,-274
-84,-49,35,66,-60,-7,33,-28,0,26,-39,-279
-105,-44,60,74,-82,8,51,-23,1,42,-36,-276
-107,-43,65,75,-86,11,46,-33,7,41,-34,-271
-114,-58,55,86,-85,-1,34,-41,-6,31,-41,-260
-130,-65,66,97,-98,1,56,-39,-15,26,-54,-260
-133,-64,69,98,-101,2,60,-52,-22,16,-34,-252
-150,-76,74,113,-111,-1,51,-56,-18,13,-45,-262
-138,-81,57,109,-98,-12,50,-50,5,32,-77,-296
-120,-79,41,100,-81,-19,42,-50,2,35,-74,-292
-149,-77,72,113,-110,-2,42,-45,-24,26,-75,-286
-154,-74,80,114,-117,3,40,-46,-27,25,-75,-282
-122,-75,46,98,-84,-14,51,-59,-23,18,-75,-273
-123,-75,49,99,-86,-13,62,-60,-27,15,-73,-268
-129,-75,53,101,-91,-11,59,-62,-38,22,-68,-260
-127,-75,52,101,-89,-11,58,-67,-33,30,-65,-255
-106,-75,31,90,-68,-21,54,-63,-24,31,-62,-262
-127,-75,51,101,-89,-12,55,-60,-15,36,-57,-273
-157,-73,85,115,-121,6,64,-58,-14,32,-56,-272
-126,-66,60,96,-93,-3,65,-54,-32,19,-58,-266
-123,-59,63,91,-93,2,62,-61,-40,8,-69,-258
-92,-66,27,79,-59,-19,59,-66,-45,-7,-74,-292
-94,-67,26,80,-60,-20,56,-60,-46,2,-66,-313
-93,-53,40,72,-66,-6,54,-58,-43,14,-63,-299
-87,-61,26,74,-56,-17,51,-53,-41,9,-56,-298
-135,-67,68,101,-101,1,48,-49,-39,10,-51,-296
-118,-63,55,91,-86,-3,45,-62,-39,10,-60,-303
-134,-68,66,101,-99,-1,43,-65,-32,9,-67,-297
-138,-59,78,98,-108,9,38,-67,-31,11,-64,-305
-93,-74,20,83,-56,-27,41,-72,-49,1,-65,-314
-117,-75,42,96,-80,-16,46,-62,-46,2,-71,-295
-127,-62,65,94,-95,1,63,-47,-13,26,-58,-287
-90,-33,58,62,-74,12,77,-27,12,46,-42,-272
-69,-8,61,38,-65,27,83,11,31,64,-32,-262
-58,-8,51,33,-55,21,102,44,53,89,-24,-252
-30,25,55,2,-42,40,62,11,44,92,-6,-240
-9,12,21,-1,-15,16,34,-41,3,71,8,-229
-23,-18,5,21,-14,-7,44,-32,-4,56,-2,-216
-18,-28,-10,23,-4,-19,35,-52,-28,19,-26,-212
-42,-21,21,31,-31,0,36,-76,-51,11,-44,-201
-94,-40,53,67,-73,7,34,-74,-51,-6,-68,-245
-104,-82,22,93,-62,-30,35,-84,-69,-14,-89,-286
-120,-62,58,91,-89,-2,47,-85,-65,-10,-98,-281
-93,-65,28,78,-60,-18,51,-78,-62,-32,-90,-269
-87,-52,35,69,-61,-8,46,-59,-33,-7,-74,-253
-117,-48,69,82,-92,10,45,-63,-43,-20,-83,-265
-108,-51,57,79,-82,3,62,-15,35,61,-40,-254
-97,-23,74,60,-85,25,36,13,157,280,124,-162
316,25,-291,-170,303,-133,-42,277,523,971,712,166
583,178,-406,-380,494,-114,-136,72,505,906,810,369
156,219,63,-188,46,141,-392,-1185,-627,-523,-53,113
-131,140,271,-5,-202,206,-539,-1677,-1177,-1052,-457,-121
-217,13,230,101,-223,121,-397,-1169,-912,-792,-403,-215
-157,-68,89,112,-123,11,-241,-641,-591,-490,-290,-252
-70,-25,45,47,-57,10,-81,-215,-216,-140,-129,-239
-130,-47,84,88,-107,18,11,-59,-89,-49,-75,-235
-88,-41,47,64,-67,3,30,-26,-37,10,-38,-210
-70,-30,41,50,-55,6,54,6,-3,37,-27,-201
-52,-19,33,35,-43,7,63,38,16,65,-10,-201
-23,-12,10,17,-16,-1,62,59,39,76,-18,-196
-22,-42,-20,32,-1,-30,75,77,52,93,-16,-196
-46,-29,18,37,-32,-6,83,90,63,111,-3,-192
-49,-14,35,32,-42,11,69,91,49,100,-3,-180
-1,-10,-10,6,5,-10,65,96,55,106,20,-163
15,-22,-37,4,26,-30,58,115,89,139,34,-148
30,12,-18,-21,24,-3,53,127,98,148,38,-132
47,26,-20,-36,33,3,48,139,94,147,57,-112
63,15,-48,-39,56,-16,41,178,130,183,61,-91
103,61,-41,-82,72,10,26,200,151,197,85,-68
113,73,-41,-93,77,16,16,224,168,223,120,-64
130,99,-32,-114,81,33,15,247,196,256,147,-32
200,145,-55,-172,127,45,4,279,232,293,184,7
249,155,-94,-202,172,30,-4,315,275,345,206,37
248,169,-79,-208,163,45,-27,317,278,355,219,70
259,197,-63,-228,161,67,-53,324,287,363,250,85
296,211,-85,-253,190,62,-59,315,299,379,284,111
276,201,-76,-238,176,62,-84,280,288,371,278,103
249,188,-61,-218,155,63,-96,236,271,354,267,92
230,161,-69,-195,149,46,-71,185,227,311,232,78
176,126,-49,-151,112,38,-59,137,167,238,171,25
117,98,-18,-107,67,40,-38,95,122,181,120,-18
78,69,-8,-74,43,30,-17,63,89,135,49,-84
42,30,-12,-36,26,9,2,31,51,98,20,-119
-28,-3,25,15,-27,11,36,22,37,73,-12,-132
-55,-16,39,35,-47,11,42,16,31,40,-47,-171
-61,-30,31,45,-46,1,52,3,19,42,-28,-168
-97,-46,51,71,-73,2,67,-9,11,43,-57,-163
-106,-52,55,78,-81,1,59,-21,4,30,-92,-162
-104,-49,55,76,-80,3,56,-18,-3,24,-85,-154
-110,-55,55,82,-82,0,51,-13,-11,15,-82,-157
-109,-54,55,81,-81,1,46,-12,-24,10,-78,-168
-107,-56,51,82,-78,-2,47,-5,-33,4,-71,-171
-102,-54,49,78,-75,-2,59,-9,-25,-2,-74,-170
-115,-56,59,86,-87,2,64,-33,-16,-5,-86,-175
-108,-54,54,81,-81,0,56,-35,-3,13,-80,-175
-98,-36,62,66,-80,13,51,-28,-19,14,-75,-174
-136,-63,73,99,-104,5,50,-27,-44,4,-72,-167
-116,-55,61,85,-88,3,50,-23,-38,10,-64,-161
-99,-45,54,72,-76,5,45,-21,-36,3,-76,-154
-102,-58,45,80,-73,-6,45,-17,-34,-5,-82,-147
-79,-45,34,62,-56,-5,44,-16,-29,-9,-69,-142
-78,-45,32,61,-55,-6,48,-11,-33,-26,-59,-134
-72,-37,34,54,-53,-1,57,-17,-33,-38,-79,-149
-84,-36,48,60,-65,5,53,-30,-42,-50,-111,-146
-106,-43,63,75,-84,10,50,-30,-56,-71,-104,-135
-119,-61,59,90,-89,-1,48,-31,-50,-67,-90,-143
-104,-44,60,74,-82,8,44,-45,-45,-62,-89,-138
-104,-28,76,66,-90,24,45,-56,-43,-62,-92,-143
-117,-44,73,80,-95,15,45,-55,-34,-51,-104,-148
-90,-27,64,58,-77,18,45,-55,-46,-71,-106,-142
-98,-49,49,74,-73,-1,45,-55,-56,-78,-104,-139
-119,-51,68,85,-94,8,45,-55,-47,-73,-105,-141
-131,-40,90,85,-110,25,45,-52,-45,-97,-105,-149
-140,-60,80,100,-109,10,40,-46,-40,-97,-105,-150
-119,-47,71,83,-95,12,35,-41,-35,-88,-105,-150
-121,-52,69,86,-95,9,30,-39,-40,-86,-105,-150
-139,-48,91,93,-115,21,28,-30,-47,-77,-105,-150
-119,-45,75,82,-97,15,19,-36,-58,-78,-105,-150
-113,-46,67,79,-89,10,23,-53,-68,-94,-106,-143
-127,-42,85,84,-106,21,42,-49,-71,-101,-104,-140
-125,-39,86,82,-105,23,39,-44,-67,-100,-99,-134
-116,-33,83,74,-99,24,29,-43,-65,-98,-97,-132
-112,-34,78,73,-95,21,25,-36,-62,-94,-91,-123
-100,-23,77,61,-88,27,13,-37,-60,-96,-92,-113
-101,-33,68,67,-84,17,18,-51,-56,-90,-99,-128
-123,-49,74,86,-99,12,52,-43,-44,-82,-93,-120
-89,-37,52,62,-70,7,58,-27,-36,-76,-85,-108
-50,23,73,14,-62,48,62,-8,-24,-69,-80,-99
-32,38,70,-3,-51,54,81,27,-12,-70,-69,-99
-34,25,60,4,-47,42,76,51,7,-73,-68,-86
2,67,65,-35,-31,65,39,16,26,-75,-70,-53
53,41,-11,-47,32,15,-5,-29,-2,-78,-70,-68
3,16,14,-10,-6,15,-10,-22,-25,-79,-71,-78
-29,2,30,13,-29,16,1,-38,-47,-83,-74,-92
-44,-12,32,28,-38,10,4,-48,-61,-88,-83,-101
-76,-14,62,44,-69,24,14,-59,-77,-123,-104,-100
-93,-38,55,65,-74,9,17,-60,-79,-117,-102,-100
-150,-50,100,100,-125,25,14,-60,-69,-121,-116,-99
-155,-62,93,108,-124,15,24,-62,-74,-120,-117,-114
-139,-42,97,90,-117,27,42,-56,-50,-106,-109,-121
-154,-47,107,100,-130,30,48,-68,-73,-131,-128,-128
-102,-20,82,60,-92,31,61,-11,9,-42,-69,-80
-3,9,13,-3,-8,11,19,36,146,220,159,42
413,50,-363,-231,387,-156,-82,309,501,902,739,376
533,210,-323,-371,428,-57,-176,-58,307,536,623,510
51,251,200,-151,-75,226,-397,-1281,-785,-851,-235,215
-214,143,357,35,-286,250,-492,-1562,-1109,-1109,-477,34
-259,33,293,113,-276,163,-351,-1075,-864,-877,-441,-77
-141,-9,132,75,-137,61,-219,-578,-569,-583,-302,-103
-75,-14,62,44,-68,24,-69,-185,-221,-257,-137,-45
-89,-12,77,50,-83,32,-12,-62,-129,-180,-109,-49
-52,1,53,25,-52,27,5,4,-58,-110,-64,-31
-48,13,61,17,-55,37,38,23,-35,-103,-76,-28
-11,26,38,-8,-25,32,41,48,-10,-64,-59,-20
-23,16,39,3,-31,27,50,69,0,-62,-55,-18
-27,32,59,-3,-43,45,43,85,0,-56,-47,-15
-6,27,33,-11,-20,29,40,96,18,-45,-32,-10
-5,16,22,-6,-14,19,33,89,27,-42,-30,-8
-2,49,51,-23,-27,49,29,109,34,-27,-29,14
0,27,27,-13,-14,27,21,114,27,-25,-10,30
17,28,11,-22,3,19,28,133,70,-10,14,48
75,85,10,-80,32,47,27,154,86,-6,26,65
100,92,-8,-96,54,42,5,160,92,23,46,68
124,89,-35,-106,79,27,11,187,113,37,63,78
120,108,-13,-114,66,47,4,211,131,60,90,102
136,129,-8,-132,72,60,-12,243,162,99,134,141
220,165,-55,-192,137,55,-37,268,175,112,163,176
237,185,-51,-211,144,67,-50,293,214,157,189,203
265,188,-77,-226,171,55,-58,308,244,186,221,241
320,230,-90,-275,205,70,-84,303,254,197,244,265
321,250,-71,-286,196,90,-93,308,251,203,274,295
303,232,-71,-267,187,80,-107,284,226,195,275,312
299,228,-71,-263,185,78,-114,229,202,178,226,270
274,204,-70,-239,172,67,-111,181,166,124,188,239
228,171,-58,-199,143,56,-86,128,122,81,155,213
135,129,-6,-132,70,61,-57,76,71,9,79,147
64,91,27,-78,18,59,-30,63,41,-47,25,92
-6,50,56,-22,-32,53,9,47,10,-70,-24,63
-79,13,92,33,-86,52,24,20,-15,-114,-70,41
-59,26,85,16,-72,55,41,24,-21,-126,-72,18
-53,28,81,12,-67,54,47,22,-37,-150,-102,-3
-57,18,75,19,-66,46,44,15,-49,-165,-118,-7
-62,13,76,24,-69,44,46,14,-48,-156,-113,-1
-44,5,49,19,-47,27,45,6,-42,-155,-116,2
-55,-3,51,28,-53,24,44,7,-55,-169,-114,5
-93,-22,70,57,-81,24,40,12,-63,-178,-115,-2
-85,-34,51,59,-68,8,38,12,-58,-173,-118,12
-84,-28,55,55,-69,13,35,15,-58,-176,-120,22
-72,-4,68,38,-70,31,32,15,-54,-174,-120,12
-83,-25,58,54,-71,16,29,14,-56,-177,-120,21
-63,-10,52,36,-57,21,35,12,-55,-180,-122,27
-56,17,73,19,-65,45,40,8,-55,-180,-125,24
-79,-19,61,49,-70,21,41,14,-55,-176,-125,25
-68,-15,53,41,-60,19,42,21,-55,-175,-125,25
-91,-35,56,63,-73,11,39,20,-56,-175,-124,24
-104,-50,54,77,-79,2,41,19,-52,-170,-126,33
-97,-41,55,68,-76,7,40,14,-50,-171,-123,41
-98,-48,50,73,-73,0,40,16,-50,-168,-131,40
-100,-41,60,70,-79,9,54,12,-50,-166,-147,38
-110,-58,52,83,-80,-3,55,-2,-49,-163,-143,35
-103,-64,39,83,-71,-12,51,11,-51,-167,-140,35
-85,-52,34,68,-59,-9,48,16,-54,-162,-137,38
-94,-50,43,72,-68,-4,46,10,-67,-170,-135,39
-91,-38,53,64,-72,7,43,6,-85,-187,-133,41
-75,-35,40,54,-57,3,39,9,-85,-163,-126,36
-89,-44,45,67,-67,0,53,18,-85,-152,-121,35
-102,-50,53,76,-77,2,56,14,-85,-150,-117,57
-90,-35,56,62,-73,10,50,15,-85,-143,-108,67
-75,-40,35,57,-55,-2,49,12,-85,-141,-109,65
-78,-50,28,64,-53,-11,45,9,-85,-134,-136,71
-91,-24,66,57,-78,20,44,11,-85,-140,-142,70
-95,-45,51,70,-73,3,46,2,-85,-139,-138,75
-111,-55,56,83,-84,1,43,-5,-84,-144,-144,91
-80,-43,38,61,-59,-3,46,-16,-81,-149,-144,88
-36,-37,-1,37,-18,-18,55,-18,-78,-147,-158,80
-74,-33,41,53,-57,4,56,-7,-75,-151,-167,80
-70,-20,50,44,-60,15,55,2,-74,-150,-164,80
-73,-13,60,43,-66,23,55,13,-68,-150,-166,80
-71,-47,23,59,-47,-12,56,-8,-78,-150,-165,74
-45,-32,12,38,-28,-10,52,-10,-76,-132,-153,90
-71,-5,66,38,-68,30,67,35,-47,-106,-133,115
-61,4,65,28,-63,34,79,63,-37,-88,-126,110
-51,4,56,23,-54,30,90,79,-30,-69,-115,124
-20,13,33,3,-27,23,67,71,-24,-50,-98,161
57,56,-1,-56,29,27,2,40,-23,-60,-90,161
67,39,-28,-53,48,5,-1,35,-20,-47,-73,151
-21,-23,-3,22,-9,-13,8,15,-50,-82,-98,146
-71,-36,35,54,-53,-1,17,-6,-77,-125,-120,136
-74,-32,42,53,-58,5,39,-12,-73,-125,-128,132
-103,-47,56,75,-80,5,41,-9,-73,-127,-151,133
-74,-56,18,65,-46,-19,39,-16,-76,-119,-145,136
-86,-70,16,78,-51,-27,37,-28,-88,-135,-160,138
-109,-64,44,86,-76,-10,32,6,-55,-108,-142,150
-68,-55,13,62,-41,-21,41,6,-72,-134,-151,135
-89,-54,35,72,-62,-9,56,52,2,-51,-123,149
-65,-11,54,38,-59,22,32,51,91,95,1,208
267,18,-249,-143,258,-115,-37,271,377,721,537,522
588,148,-440,-368,513,-145,-124,270,546,950,834,831
237,266,29,-252,104,147,-316,-843,-432,-419,29,610
-206,168,375,19,-291,271,-475,-1542,-1144,-1168,-518,347
-257,45,301,106,-279,173,-390,-1179,-981,-964,-516,221
-180,-30,150,105,-165,60,-253,-669,-696,-699,-409,172
-49,-40,10,45,-29,-15,-99,-216,-290,-306,-195,234
-29,-29,1,29,-15,-14,3,-30,-127,-180,-166,236
-42,-23,19,32,-30,-2,14,29,-75,-112,-125,243
-13,-14,-1,14,-6,-7,49,85,-45,-93,-98,257
5,-7,-12,1,9,-9,51,100,-31,-68,-96,273
-3,-6,-2,4,0,-4,55,126,11,-33,-85,277
-16,6,22,5,-19,14,55,129,11,-27,-81,267
10,31,21,-21,-5,26,48,143,33,-8,-65,274
32,-1,-33,-15,32,-17,48,145,26,-6,-62,293
56,10,-47,-33,51,-18,41,146,29,4,-50,315
92,45,-47,-68,69,-1,41,180,61,9,-45,307
70,24,-47,-47,58,-12,34,197,67,35,-37,315
66,42,-23,-54,44,10,29,202,81,56,-23,360
113,69,-45,-91,79,12,24,205,88,63,-14,375
144,61,-83,-102,113,-11,17,246,117,97,14,392
156,77,-79,-116,117,0,13,268,157,134,56,413
174,105,-70,-139,121,17,7,289,176,161,82,435
208,142,-65,-175,136,38,-2,330,210,182,113,479
236,150,-86,-193,161,32,-14,339,225,205,147,511
307,162,-146,-234,226,8,-27,359,247,238,177,547
326,203,-123,-265,224,40,-51,354,268,260,207,569
301,197,-104,-249,202,47,-68,339,270,272,232,597
347,226,-121,-287,234,52,-76,325,264,268,243,623
338,221,-117,-280,228,52,-76,291,246,251,220,618
291,182,-109,-236,200,36,-59,257,212,207,178,584
230,158,-72,-194,151,43,-53,208,169,157,125,531
145,74,-70,-109,107,3,-38,156,131,116,46,478
90,50,-40,-70,64,5,-3,133,85,58,-5,436
77,46,-31,-62,54,8,20,106,35,7,-46,406
78,25,-52,-51,65,-13,45,92,21,-14,-85,377
39,9,-30,-24,34,-10,57,100,19,-34,-99,365
5,-24,-29,9,17,-26,54,81,7,-41,-118,364
-36,-24,13,30,-24,-5,55,72,-3,-42,-122,360
-50,-45,6,47,-28,-19,55,76,-15,-66,-136,358
-9,-54,-45,32,18,-49,61,74,-25,-79,-143,354
-18,-33,-15,26,-1,-24,60,79,-35,-86,-137,358
-64,-55,8,60,-36,-23,60,80,-32,-84,-149,360
-44,-68,-23,56,-10,-45,70,79,-28,-80,-155,361
-17,-51,-35,34,9,-43,71,76,-25,-78,-155,365
-25,-39,-14,33,-5,-26,70,73,-20,-74,-155,364
-17,-37,-20,27,2,-28,68,70,-22,-77,-155,370
-20,-26,-6,23,-7,-15,64,68,-30,-82,-155,368
-27,-36,-9,32,-9,-22,65,64,-35,-93,-151,373
-34,-73,-39,54,3,-56,68,71,-36,-96,-150,391
-23,-62,-40,43,9,-51,71,75,-32,-95,-150,388
-16,-45,-29,30,6,-36,74,68,-30,-95,-145,385
-45,-64,-19,54,-12,-41,75,64,-31,-95,-145,383
-40,-85,-44,63,2,-64,75,58,-29,-94,-144,378
-34,-80,-46,57,6,-63,75,51,-32,-90,-146,383
-45,-75,-30,60,-7,-52,75,58,-26,-90,-147,385
-51,-81,-30,67,-11,-56,83,63,-34,-90,-156,385
-63,-75,-12,69,-25,-44,86,53,-46,-90,-165,385
-58,-75,-17,67,-20,-46,81,48,-38,-90,-158,384
-94,-74,21,84,-57,-26,79,38,-35,-94,-155,400
-92,-70,23,81,-58,-23,75,33,-30,-99,-150,413
-38,-69,-30,54,-4,-49,75,41,-26,-92,-145,407
-92,-63,29,77,-60,-17,75,47,-34,-80,-149,409
-54,-64,-10,59,-22,-37,75,67,-55,-103,-172,430
0,-57,-57,28,29,-57,75,70,-62,-122,-178,437
-51,-68,-17,59,-17,-42,75,63,-49,-109,-159,433
-14,-57,-43,36,15,-50,75,61,-42,-104,-155,437
-20,-52,-32,36,7,-42,73,56,-39,-98,-154,432
-42,-79,-38,61,-1,-58,69,53,-41,-89,-155,440
-32,-74,-42,54,5,-58,71,49,-39,-98,-154,464
-45,-80,-35,63,-4,-58,75,43,-45,-110,-159,465
-6,-52,-47,29,21,-49,73,40,-56,-113,-166,465
-22,-51,-29,37,4,-40,68,35,-51,-115,-161,465
-37,-69,-32,53,-2,-51,66,30,-49,-116,-159,465
3,-49,-51,23,27,-50,61,43,-45,-123,-155,464
-25,-69,-45,47,11,-57,60,40,-41,-119,-150,454
-42,-71,-30,57,-6,-50,71,39,-41,-108,-154,449
-17,-29,-12,23,-2,-21,79,48,-39,-104,-171,432
-1,-5,-4,3,2,-4,101,79,-21,-85,-151,468
4,-16,-20,6,12,-18,116,117,20,-46,-108,511
-1,-32,-31,17,15,-32,118,132,35,-34,-105,500
55,0,-55,-28,55,-27,92,119,26,-34,-105,516
111,46,-64,-78,87,-9,62,77,17,-29,-106,528
72,5,-67,-39,70,-31,67,73,9,-48,-104,524
38,-44,-82,3,60,-62,65,64,-7,-56,-111,516
25,-42,-67,8,46,-54,65,61,-25,-71,-115,510
-14,-50,-37,32,12,-43,65,55,-50,-114,-141,503
-52,-90,-38,72,-7,-64,77,49,-53,-119,-167,498
-76,-101,-25,88,-25,-63,89,55,-45,-123,-162,502
-51,-85,-34,69,-9,-59,81,39,-53,-133,-172,494
-28,-87,-60,58,16,-73,90,56,-34,-99,-151,498
-44,-71,-27,58,-8,-49,79,34,-60,-128,-174,489
-55,-76,-21,65,-17,-48,94,87,0,-63,-136,498
-51,-35,16,43,-34,-9,77,87,106,83,-30,551
255,10,-245,-132,249,-117,27,328,440,710,489,841
601,104,-497,-352,548,-196,-84,316,575,985,835,1130
