I,II,III,aVR,aVL,aVF,V1,V2,V3,V4,V5,V6
-35,84,119,-24,-78,101,1674,898,1217,214,36,104
-40,78,118,-19,-79,98,1585,732,1189,191,50,100
3,120,118,-62,-58,119,1468,727,1143,163,55,114
51,134,83,-92,-16,108,1437,640,1116,161,42,113
-42,8,50,17,-46,29,1409,648,1076,153,37,83
-75,-77,-2,76,-36,-40,1397,608,1066,151,23,63
-67,-111,-44,89,-11,-77,1344,475,1061,141,-15,46
-64,-136,-72,100,4,-104,1318,495,1057,143,-30,39
-25,-173,-148,99,62,-161,1315,456,1060,143,-37,20
-72,-215,-143,144,36,-179,1269,445,1036,146,-35,22
-58,-214,-155,136,49,-184,1263,451,1020,145,-48,6
-29,-165,-136,97,54,-150,1231,392,1004,142,-43,18
-69,-176,-107,123,19,-141,1198,415,1031,152,-54,-1
-89,-185,-96,137,4,-140,1171,362,956,139,-20,13
19,-6,-26,-7,22,-16,1097,444,1076,335,197,196
195,418,223,-306,-14,320,569,-459,587,510,814,827
360,921,560,-641,-100,740,-305,-1824,-731,171,1237,1427
178,501,324,-340,-73,412,-349,-1759,-1086,-645,191,536
-154,-109,45,132,-99,-32,383,-772,-323,-811,-620,-341
-150,-83,67,116,-108,-8,952,134,617,-82,-174,-95
-108,-179,-70,144,-19,-124,1067,387,973,200,-2,-1
-36,-168,-132,102,48,-150,1033,375,964,184,17,29
8,-94,-102,43,55,-98,1042,413,1012,228,59,65
-47,-158,-110,103,32,-133,1018,386,1004,227,44,60
1,-114,-114,57,58,-114,992,398,1008,264,75,81
21,-83,-104,31,62,-93,962,430,1037,254,61,73
-44,-135,-90,90,23,-112,957,442,1043,267,79,94
-38,-123,-85,81,24,-104,951,482,1016,280,97,92
-44,-117,-73,81,15,-95,941,508,1043,309,114,114
-26,-99,-73,63,24,-86,937,481,1077,336,132,113
-10,-75,-65,43,27,-69,927,534,1113,361,145,126
-17,-76,-59,47,21,-68,923,570,1151,396,172,179
65,8,-56,-36,60,-24,917,603,1175,440,192,185
7,4,-3,-5,5,0,907,671,1223,515,258,208
-9,-14,-5,11,-2,-9,930,745,1304,576,325,258
50,110,61,-80,-6,85,960,797,1345,622,327,280
36,179,143,-107,-54,161,951,800,1381,663,393,319
92,232,140,-162,-24,186,936,842,1389,675,434,358
97,283,186,-190,-44,234,916,826,1370,693,440,383
76,264,188,-170,-56,226,847,801,1359,661,437,385
59,264,206,-162,-74,235,816,764,1258,605,394,372
7,207,200,-108,-96,203,814,626,1155,542,336,323
-17,155,171,-69,-94,163,772,527,1057,426,269,246
-1,130,130,-65,-66,130,744,511,984,379,221,205
-15,88,103,-37,-59,95,688,425,914,320,130,159
-4,90,95,-43,-50,92,658,361,796,219,51,112
-10,-3,8,6,-9,3,659,346,744,178,4,70
-103,-51,52,77,-77,0,646,268,739,175,-24,30
-88,-35,54,61,-71,9,654,279,713,182,-14,3
-80,-82,-2,81,-38,-42,634,311,696,186,-11,-18
-83,-23,61,53,-72,19,655,358,768,195,0,0
-27,28,56,-1,-42,42,676,412,807,195,0,28
9,0,-9,-4,9,-5,687,460,840,244,46,58
24,-5,-29,-9,26,-16,689,458,860,279,90,86
-44,-83,-39,64,-3,-61,600,338,763,225,51,69
-75,-155,-80,115,3,-117,578,376,751,194,34,53
-57,-128,-71,93,8,-100,566,368,718,173,30,48
-60,-127,-67,94,4,-97,522,302,650,159,22,36
-49,-149,-100,99,25,-124,491,284,615,125,9,29
-84,-175,-90,130,3,-132,465,249,606,98,-25,21
-86,-119,-33,103,-27,-76,475,234,577,102,-52,17
-62,-105,-43,84,-9,-74,463,237,539,96,-83,15
-129,-213,-84,171,-22,-148,480,267,574,106,-87,0
-102,-162,-60,132,-21,-111,465,183,529,90,-69,-7
1,-104,-105,52,53,-104,485,235,587,114,-65,-13
-13,-87,-74,50,31,-80,454,197,511,75,-40,3
-22,-32,-10,27,-6,-21,352,232,624,218,120,125
174,468,293,-321,-60,380,-51,-335,401,573,866,866
382,1080,698,-731,-158,889,-901,-1760,-961,185,1181,1375
123,558,436,-341,-156,496,-955,-1844,-1504,-796,-37,348
-157,-90,68,123,-113,-11,-177,-730,-649,-843,-673,-393
-110,-87,24,99,-67,-31,327,96,243,-150,-235,-125
-88,-83,5,85,-46,-39,408,267,498,37,-126,-49
-62,-86,-24,74,-19,-54,376,282,518,56,-100,-43
-75,-131,-56,103,-9,-93,384,359,568,102,-93,-33
-64,-144,-80,104,8,-112,368,320,541,60,-94,-33
-30,-120,-90,76,31,-105,364,342,564,102,-54,-18
-57,-133,-76,95,10,-104,362,330,554,129,-37,-22
-41,-116,-75,79,18,-95,365,358,564,130,-3,-5
-68,-136,-68,102,0,-101,365,372,555,134,-5,-5
-29,-94,-65,62,19,-79,364,403,569,167,7,10
12,-52,-64,20,39,-58,366,457,570,172,8,13
-37,-98,-60,67,12,-79,364,468,575,198,34,34
12,-48,-60,18,36,-54,372,522,661,258,78,69
31,-17,-48,-7,40,-33,365,554,695,304,119,93
-4,-40,-35,22,16,-37,398,623,745,362,165,130
-1,-6,-4,4,1,-5,435,658,775,386,185,142
43,104,60,-74,-9,82,433,713,808,425,237,182
67,132,65,-100,1,98,438,766,839,450,267,221
77,175,98,-126,-11,136,443,739,825,437,259,209
23,261,238,-142,-108,250,444,721,824,429,254,208
-23,237,260,-108,-142,248,459,722,799,426,254,208
39,266,227,-153,-94,247,434,694,739,395,227,182
31,259,228,-145,-99,243,339,520,597,285,139,123
40,230,191,-135,-76,211,280,422,477,204,81,64
4,109,105,-57,-50,107,266,375,421,150,27,16
-35,45,80,-5,-58,62,260,324,359,89,-43,-39
-27,4,31,12,-29,18,259,292,311,46,-96,-103
-49,-175,-126,112,39,-150,254,271,267,15,-140,-150
-51,-175,-125,113,37,-150,250,283,248,14,-156,-167
-53,-203,-150,128,49,-176,248,303,246,19,-150,-165
-37,-226,-189,131,77,-207,243,409,231,21,-135,-152
-99,-193,-94,146,-2,-143,239,431,230,25,-131,-153
-54,-140,-86,97,17,-113,238,397,216,21,-120,-138
6,-108,-114,51,61,-111,230,421,200,9,-119,-144
-63,-184,-120,124,29,-152,233,462,188,2,-113,-145
-33,-150,-116,91,42,-133,220,440,147,-12,-108,-143
8,-119,-127,56,68,-123,231,438,146,-14,-109,-158
28,-97,-125,35,77,-111,218,427,131,-21,-102,-136
-80,-163,-82,122,2,-122,231,444,163,-26,-126,-180
-87,-65,22,76,-54,-21,221,433,138,28,-52,-143
33,124,91,-79,-29,107,120,471,332,334,284,122
222,575,353,-398,-66,463,-212,-31,101,694,1125,963
427,1058,631,-743,-102,844,-901,-1354,-1347,17,1063,1165
148,456,309,-302,-81,383,-865,-1381,-1843,-1051,-343,-58
-117,-38,79,78,-98,20,-141,-261,-879,-827,-667,-541
-67,-90,-24,79,-21,-57,198,346,-170,-194,-210,-286
-20,-185,-165,103,73,-174,242,506,10,-104,-139,-278
-30,-108,-79,69,25,-93,222,482,-6,-98,-122,-248
-42,-117,-75,80,17,-96,212,492,-2,-90,-147,-256
-37,-129,-92,83,28,-111,204,486,-6,-86,-121,-239
-27,-146,-119,87,46,-133,194,481,-12,-75,-117,-236
5,-126,-131,60,68,-128,193,490,-8,-74,-113,-231
-72,-145,-73,109,0,-109,184,485,-31,-62,-101,-223
-72,-148,-75,110,2,-111,180,497,-22,-59,-91,-221
-6,-127,-120,67,57,-123,176,489,5,-50,-65,-212
-6,-120,-114,64,54,-117,182,507,39,-40,-55,-209
74,-42,-115,-15,95,-78,214,534,89,-12,-14,-180
116,24,-92,-70,104,-34,238,570,107,35,25,-144
53,8,-45,-30,48,-18,236,605,133,82,67,-109
13,-27,-40,7,27,-33,241,638,175,131,120,-86
31,14,-17,-23,24,-1,243,656,167,144,128,-71
56,69,13,-63,21,41,252,684,198,162,135,-60
53,130,77,-92,-13,103,257,711,229,198,192,-51
99,193,94,-146,2,143,279,726,247,192,200,-41
127,223,96,-175,15,159,316,767,251,183,188,-40
96,223,127,-160,-16,175,319,742,229,174,188,-41
145,221,76,-183,34,148,316,687,203,118,143,-38
99,161,62,-130,18,111,267,559,55,39,90,-62
27,64,36,-46,-5,50,219,435,-68,-37,25,-124
-6,-3,3,5,-4,0,208,389,-131,-121,-48,-180
2,-40,-42,19,23,-41,189,334,-174,-151,-77,-190
21,-51,-72,15,47,-61,162,311,-190,-145,-81,-185
-31,-102,-72,67,21,-87,145,294,-214,-170,-80,-183
-15,-68,-54,42,20,-61,128,270,-215,-187,-80,-177
-21,-35,-14,28,-4,-24,123,265,-220,-184,-81,-176
-23,-80,-57,52,17,-69,161,251,-224,-185,-79,-170
-42,-75,-32,59,-5,-53,165,242,-232,-184,-76,-166
1,-57,-58,28,30,-57,141,232,-223,-200,-64,-159
-12,-71,-59,42,24,-65,140,203,-249,-208,-74,-155
-69,-43,26,56,-48,-8,142,214,-265,-200,-105,-147
3,34,31,-19,-14,32,136,191,-291,-212,-112,-148
5,-4,-9,-1,7,-7,147,237,-243,-194,-96,-156
2,-6,-8,2,5,-7,122,189,-220,-167,-50,-92
53,94,41,-74,6,67,79,269,-10,155,304,189
259,497,238,-378,11,367,-101,130,24,568,1052,931
415,803,388,-610,13,595,-579,-939,-1211,-102,906,1004
154,425,271,-290,-58,348,-775,-1399,-2061,-1263,-421,-138
-130,73,203,29,-167,138,-279,-615,-1296,-1097,-781,-586
-59,-71,-12,65,-24,-42,146,111,-492,-383,-240,-262
5,-113,-118,55,61,-115,113,196,-332,-271,-147,-203
-19,-72,-53,46,17,-62,84,135,-311,-243,-145,-180
-11,-80,-70,46,30,-75,60,161,-288,-223,-132,-176
8,-33,-41,12,25,-37,24,141,-288,-228,-134,-173
44,-62,-106,9,75,-83,27,151,-274,-210,-117,-165
30,-80,-110,25,71,-95,13,141,-264,-214,-121,-165
50,-33,-83,-8,67,-58,10,148,-242,-199,-106,-155
53,-34,-87,-9,70,-61,-1,169,-233,-198,-111,-158
50,-22,-72,-14,61,-47,-5,183,-222,-189,-93,-149
4,-67,-71,32,38,-69,-42,182,-217,-176,-106,-156
-26,-89,-63,58,19,-76,-52,198,-199,-134,-80,-100
54,0,-54,-27,54,-26,-12,237,-144,-100,-46,-65
117,46,-70,-81,94,-12,-3,280,-98,-69,-38,-60
177,79,-99,-127,138,-10,2,311,-63,-30,6,-21
169,90,-79,-129,124,5,8,310,-32,7,22,-13
116,66,-50,-91,83,8,13,344,-23,25,35,-5
139,77,-61,-108,100,8,20,352,-15,10,34,0
134,85,-49,-109,91,18,16,333,-4,-6,22,9
95,131,36,-113,29,83,12,326,-36,-40,7,4
86,150,64,-119,11,107,7,299,-73,-79,-24,-8
70,73,3,-71,33,38,3,253,-108,-81,-38,-23
91,45,-46,-68,69,-1,-3,199,-163,-97,-74,-57
98,59,-39,-79,68,10,-22,156,-213,-161,-108,-55
65,82,17,-74,24,49,-40,118,-239,-165,-123,-75
-2,58,60,-29,-31,59,-45,95,-258,-167,-131,-87
56,77,20,-67,18,48,-52,87,-289,-202,-129,-76
69,43,-26,-56,47,9,-55,79,-284,-191,-132,-76
-21,-39,-18,30,-2,-28,-54,71,-273,-186,-135,-67
81,70,-12,-76,47,29,-62,64,-273,-179,-135,-63
115,81,-34,-98,74,23,-55,53,-256,-173,-133,-39
62,3,-59,-33,60,-27,-84,40,-277,-167,-128,-57
51,23,-28,-37,39,-2,-127,30,-317,-162,-125,-97
47,33,-15,-39,31,9,-124,21,-318,-155,-121,-96
55,64,9,-59,23,37,-125,13,-323,-151,-118,-99
37,38,1,-38,18,20,-126,2,-332,-197,-112,-103
27,-41,-68,8,48,-55,-124,-16,-347,-217,-124,-104
97,10,-87,-53,92,-39,-129,-44,-363,-217,-146,-104
99,4,-95,-51,97,-45,-141,-57,-365,-227,-151,-98
38,-58,-96,11,67,-77,-151,-57,-374,-228,-160,-104
59,-42,-101,-8,80,-72,-154,-64,-376,-231,-166,-123
51,-52,-104,1,78,-78,-159,-62,-385,-229,-171,-126
62,-42,-105,-10,84,-73,-163,-74,-389,-231,-187,-120
55,-41,-96,-7,75,-68,-167,-100,-389,-227,-205,-119
17,-81,-98,32,58,-89,-173,-104,-419,-225,-206,-114
63,-26,-89,-19,76,-57,-176,-106,-427,-225,-199,-116
106,18,-88,-62,97,-35,-181,-111,-424,-225,-196,-121
69,-17,-86,-26,78,-51,-185,-114,-425,-224,-188,-124
22,-62,-85,20,54,-73,-203,-115,-425,-226,-185,-128
62,-74,-136,6,99,-105,-215,-116,-424,-224,-178,-131
18,-59,-77,21,48,-68,-203,-112,-419,-232,-197,-135
33,-76,-110,22,72,-93,-218,-134,-421,-250,-227,-131
100,-69,-168,-15,134,-118,-233,-158,-416,-210,-224,-118
31,-104,-135,37,83,-120,-223,-154,-416,-213,-226,-118
9,-128,-137,60,73,-132,-200,-153,-411,-255,-224,-103
3,-102,-105,49,55,-103,-208,-158,-430,-242,-227,-107
36,-46,-83,5,60,-64,-210,-169,-441,-225,-216,-123
12,-9,-21,-2,17,-15,-168,-126,-416,-185,-182,-72
41,27,-14,-34,27,7,-164,-70,-414,-162,-151,-26
60,96,36,-78,12,66,-158,-89,-416,-168,-148,-43
-19,59,79,-20,-49,69,-208,-151,-414,-161,-128,-51
45,84,39,-64,3,61,-270,-193,-416,-163,-133,-51
71,112,41,-92,15,76,-270,-204,-414,-156,-198,-49
-45,-78,-33,61,-6,-55,-270,-197,-407,-183,-204,-52
-91,-181,-90,136,0,-135,-270,-228,-448,-232,-215,-80
-25,-139,-114,82,44,-126,-271,-257,-459,-228,-201,-104
-36,-183,-147,110,55,-164,-266,-269,-450,-231,-206,-106
-37,-204,-167,121,65,-185,-259,-272,-463,-225,-235,-66
-44,-227,-183,135,70,-204,-217,-255,-440,-223,-225,-67
-19,-170,-151,95,66,-161,-207,-273,-413,-228,-216,-43
25,-142,-167,59,96,-155,-147,-235,-312,-208,-208,-32
-21,-136,-115,79,47,-125,-108,-280,-312,-210,-196,-23
21,-59,-80,19,50,-69,-151,-215,-135,34,75,196
259,376,117,-318,70,246,-478,-768,-383,285,763,910
413,797,384,-605,15,590,-1099,-1958,-1553,-103,994,1312
134,277,143,-206,-5,209,-1144,-2073,-2017,-978,-97,343
-124,-119,5,121,-64,-57,-575,-1282,-1325,-1108,-768,-358
-92,-146,-54,119,-19,-100,-40,-482,-426,-416,-319,-123
48,-116,-164,34,106,-140,94,-235,-72,-175,-142,10
10,-133,-142,62,76,-137,74,-294,-48,-203,-131,59
-37,-193,-156,115,59,-174,103,-258,12,-162,-124,27
25,-54,-78,15,52,-66,103,-287,56,-113,-103,43
-42,-145,-103,94,31,-124,147,-275,135,-93,-72,114
-60,-170,-109,115,25,-139,143,-281,125,-133,-90,120
-22,-145,-123,84,51,-134,138,-274,162,-74,-49,124
63,-105,-167,21,115,-136,137,-264,232,-38,-54,121
32,-107,-139,38,86,-123,130,-266,233,-20,-48,111
52,-87,-139,18,96,-113,129,-238,264,-10,-41,134
6,-88,-95,41,50,-91,126,-203,306,-7,-14,167
-28,-140,-112,84,42,-126,123,-166,337,21,37,142
83,-44,-127,-19,105,-85,136,-153,395,69,84,161
-7,-97,-90,53,42,-93,171,-139,464,137,126,211
94,-2,-96,-46,95,-49,172,-83,518,156,159,225
95,18,-76,-56,86,-29,174,-43,574,191,206,252
-9,-57,-48,33,20,-52,179,-26,634,267,238,308
67,31,-36,-49,51,-2,181,13,673,289,273,336
69,97,27,-83,21,62,176,38,706,304,315,341
70,117,47,-94,11,82,147,33,703,303,309,345
104,192,88,-148,8,140,122,-1,674,289,292,332
130,267,137,-198,-4,202,96,-61,648,258,271,327
81,138,57,-110,12,97,80,-116,587,217,252,328
33,89,56,-61,-12,72,65,-170,524,182,229,287
-16,97,113,-41,-65,104,17,-257,461,129,155,235
-5,79,84,-37,-45,81,-24,-341,409,80,103,207
14,8,-6,-11,10,1,-29,-361,361,15,82,172
-40,-54,-14,47,-13,-33,-44,-401,310,-6,55,134
-25,-74,-49,49,12,-61,-79,-453,319,-27,34,110
-27,-115,-88,72,31,-101,-80,-443,328,-70,21,99
-5,-86,-81,46,38,-83,-62,-428,329,-65,12,93
29,-137,-165,54,97,-151,-64,-424,334,-60,18,94
-73,-218,-145,145,37,-181,-69,-418,340,-35,32,103
-53,-190,-137,121,42,-163,-70,-413,402,9,35,101
39,-133,-172,48,106,-152,-77,-406,454,51,67,121
13,-107,-120,47,67,-113,-78,-407,455,91,94,138
-35,-144,-109,89,37,-126,-84,-410,461,92,86,110
-22,-161,-139,91,59,-149,-111,-410,477,85,85,135
2,-113,-115,56,59,-114,-117,-410,449,61,81,156
-59,-133,-73,96,7,-103,-116,-436,401,29,80,129
-35,-141,-106,88,36,-123,-142,-457,378,23,73,120
-12,-112,-101,62,45,-106,-169,-460,358,12,59,106
-43,-115,-72,79,15,-93,-175,-485,342,-3,42,96
-58,-144,-87,101,15,-115,-197,-515,331,-11,25,85
-55,-156,-101,106,23,-128,-226,-535,323,-47,-2,71
-42,-167,-125,105,42,-146,-242,-523,322,-58,0,64
-69,-206,-137,138,34,-171,-244,-539,325,-66,-7,64
-65,-164,-99,115,17,-131,-224,-545,327,-80,-15,66
-61,-123,-61,92,1,-92,-207,-493,322,-50,30,64
-27,-91,-65,59,20,-78,-173,-463,330,-51,43,66
-29,-47,-19,38,-5,-33,-192,-471,326,-59,39,65
-36,20,56,8,-46,37,-278,-569,280,-62,38,73
-23,8,32,7,-28,20,-322,-628,239,-64,68,87
-44,-85,-41,65,-1,-63,-320,-613,225,-96,66,70
-28,-110,-81,69,27,-95,-306,-626,202,-134,19,35
-49,-173,-124,111,38,-148,-315,-613,170,-117,-6,-5
-61,-225,-164,143,52,-194,-349,-625,119,-124,-46,-50
-59,-255,-197,157,69,-226,-352,-619,108,-141,-63,-89
-75,-241,-166,158,46,-203,-341,-613,102,-149,-54,-89
-70,-284,-214,178,72,-249,-336,-573,112,-123,-51,-91
-54,-277,-224,166,85,-250,-348,-593,56,-118,-45,-88
-69,-273,-203,171,67,-238,-339,-578,30,-98,-37,-81
-100,-338,-238,219,69,-288,-331,-528,26,-79,-37,-93
-49,-232,-183,141,67,-207,-349,-513,13,-19,35,-48
55,-74,-129,10,92,-102,-409,-500,178,321,476,323
282,502,220,-392,31,361,-1010,-1589,-684,340,1162,1127
340,632,292,-486,24,462,-1589,-2604,-1912,-421,755,911
2,-17,-19,8,10,-18,-1300,-2092,-1775,-1087,-460,-254
-157,-251,-93,204,-32,-172,-646,-1115,-864,-711,-524,-452
-70,-235,-164,153,47,-199,-290,-492,-202,-133,-92,-211
-42,-233,-192,138,76,-212,-299,-450,-121,-74,-73,-192
-31,-254,-223,143,96,-238,-290,-418,-108,-25,-33,-148
-66,-248,-181,157,58,-214,-275,-367,-93,-10,-27,-153
-77,-217,-140,148,32,-178,-277,-374,-107,-4,-14,-139
-44,-242,-198,143,77,-220,-261,-329,-85,9,-5,-139
-50,-225,-174,138,62,-200,-264,-318,-97,32,12,-131
-20,-178,-158,99,69,-167,-251,-266,-80,46,48,-125
-16,-158,-142,87,63,-150,-250,-270,-84,32,55,-123
-28,-235,-207,132,90,-221,-242,-252,-72,95,83,-115
5,-197,-202,96,103,-199,-238,-207,-70,114,100,-116
-10,-176,-167,93,78,-171,-232,-171,-63,136,124,-109
-12,-176,-164,94,76,-169,-227,-116,-55,173,146,-107
4,-85,-89,41,47,-87,-214,-76,-39,186,150,-102
22,-100,-122,39,72,-110,-192,-5,31,228,196,-63
46,-83,-129,19,88,-106,-184,64,76,274,254,-28
61,-3,-65,-29,63,-34,-185,104,77,294,283,-14
25,72,46,-49,-11,59,-184,110,64,308,315,8
18,60,42,-39,-12,50,-184,117,69,302,311,44
102,73,-29,-88,66,22,-185,136,70,301,306,51
1,88,87,-44,-43,87,-186,87,14,285,299,26
-59,70,129,-5,-94,99,-196,30,-49,224,259,8
33,93,60,-63,-14,77,-188,-24,-120,151,223,-29
16,77,60,-47,-23,68,-211,-100,-206,77,186,-66
-1,56,56,-28,-29,56,-252,-178,-290,38,139,-99
-56,-53,4,55,-30,-25,-252,-235,-376,-43,92,-153
-87,-63,24,75,-55,-19,-260,-281,-425,-92,65,-194
-68,-64,4,66,-36,-30,-261,-311,-441,-91,53,-223
-56,-150,-94,103,19,-122,-256,-304,-485,-157,39,-234
-24,-152,-128,89,52,-140,-256,-299,-496,-171,-15,-241
-82,-205,-122,144,20,-163,-250,-294,-481,-166,-32,-263
-117,-231,-113,174,-2,-172,-250,-287,-480,-146,7,-245
-110,-217,-107,164,-1,-162,-249,-282,-468,-108,16,-233
-126,-223,-97,175,-15,-160,-251,-278,-467,-103,38,-229
-114,-207,-94,161,-10,-150,-248,-270,-463,-89,51,-174
-136,-209,-73,173,-31,-141,-252,-267,-463,-98,50,-156
-113,-202,-89,158,-12,-145,-248,-263,-457,-93,56,-149
-69,-136,-67,103,-1,-101,-255,-272,-470,-98,57,-156
-72,-99,-27,86,-22,-63,-295,-310,-513,-141,60,-172
-54,-163,-109,109,27,-135,-302,-308,-516,-149,68,-136
-19,-147,-129,83,55,-138,-298,-305,-513,-153,66,-149
16,-97,-113,41,65,-105,-301,-330,-545,-156,47,-169
-75,-192,-117,134,21,-154,-299,-347,-567,-170,33,-176
-107,-213,-106,160,0,-159,-300,-372,-565,-201,16,-203
-72,-180,-107,126,18,-143,-292,-365,-562,-212,0,-197
-95,-187,-92,141,-1,-139,-285,-354,-578,-214,-6,-188
-103,-186,-83,145,-9,-134,-279,-343,-559,-179,-10,-179
-116,-174,-58,145,-28,-116,-271,-322,-530,-153,1,-165
-49,-88,-39,69,-5,-63,-276,-299,-536,-155,36,-152
-64,-29,35,47,-50,3,-280,-277,-534,-155,56,-146
-94,11,104,41,-99,57,-300,-340,-534,-155,40,-153
-102,-32,70,67,-86,19,-327,-395,-558,-155,34,-146
-155,-59,96,106,-125,18,-324,-394,-594,-204,16,-154
-91,-17,74,54,-83,29,-324,-413,-611,-227,-1,-146
-91,-171,-80,132,-5,-125,-319,-410,-607,-221,-35,-154
-101,-223,-122,162,10,-172,-321,-434,-620,-263,-70,-169
-90,-230,-139,160,25,-184,-317,-434,-617,-270,-53,-152
-160,-274,-114,217,-22,-194,-314,-434,-639,-271,-97,-185
-147,-246,-99,196,-24,-173,-316,-439,-643,-269,-109,-181
-129,-267,-138,199,4,-202,-312,-426,-621,-269,-84,-153
-135,-206,-71,171,-32,-138,-320,-450,-634,-273,-82,-137
-137,-292,-155,215,9,-223,-314,-388,-570,-247,-65,-127
-94,-212,-118,154,12,-165,-342,-412,-562,-226,-25,-66
-39,-78,-39,58,0,-58,-333,-334,-370,21,214,133
128,231,102,-180,13,166,-643,-873,-667,288,892,840
338,638,300,-488,19,469,-1331,-2101,-1908,-145,1062,1202
55,200,145,-127,-45,172,-1445,-2241,-2394,-1074,-108,160
-216,-160,56,188,-136,-52,-781,-1311,-1605,-1076,-656,-451
-147,-211,-64,179,-41,-137,-261,-512,-744,-372,-177,-141
-118,-256,-137,187,10,-196,-247,-353,-493,-217,-90,-66
-101,-179,-78,140,-11,-128,-257,-360,-457,-201,-84,-58
-89,-197,-108,143,10,-152,-237,-318,-419,-162,-56,-55
-125,-179,-54,152,-35,-116,-246,-333,-423,-174,-58,-45
-146,-177,-31,162,-57,-104,-226,-305,-404,-139,-30,-24
-53,-178,-126,116,37,-152,-242,-307,-393,-135,-40,-12
-45,-162,-117,104,36,-139,-253,-290,-348,-114,-25,6
-107,-196,-89,152,-9,-143,-250,-284,-326,-113,-30,9
-99,-185,-86,142,-6,-136,-243,-268,-319,-102,-21,25
-84,-181,-96,133,6,-138,-238,-230,-302,-95,-19,42
-75,-207,-131,141,28,-169,-232,-191,-277,-70,0,70
-53,-108,-55,81,1,-81,-227,-150,-228,-18,61,67
-42,-105,-62,73,10,-83,-223,-120,-168,16,92,77
-55,-113,-58,84,2,-85,-220,-85,-112,66,126,117
-9,-55,-46,32,19,-50,-216,-44,-71,117,172,159
-7,-7,0,7,-4,-4,-212,-6,-34,148,195,197
-10,51,61,-21,-36,56,-210,26,-16,194,230,211
10,20,9,-15,0,14,-215,42,-8,199,241,239
1,84,83,-43,-41,83,-223,25,2,180,229,255
13,110,96,-62,-42,103,-226,10,-1,171,226,237
12,61,49,-36,-19,55,-244,-18,-39,144,221,221
1,88,88,-45,-44,88,-262,-73,-104,99,174,204
2,79,78,-41,-38,78,-289,-131,-169,49,113,171
-7,41,48,-17,-28,44,-323,-207,-249,8,63,120
-52,-6,46,29,-49,20,-336,-273,-321,-55,-4,70
-63,-75,-11,69,-26,-43,-343,-318,-374,-104,-44,22
-79,-131,-52,105,-14,-91,-352,-345,-418,-131,-82,-5
-106,-140,-34,123,-35,-87,-374,-361,-434,-159,-126,-32
-56,-138,-83,97,14,-110,-378,-366,-427,-159,-129,-65
-70,-150,-79,111,5,-114,-368,-354,-415,-147,-131,-72
-96,-192,-96,144,1,-144,-362,-345,-376,-123,-131,-93
-72,-196,-124,135,26,-160,-357,-329,-361,-92,-109,-93
-76,-175,-99,126,11,-136,-346,-291,-386,-76,-145,-86
-81,-187,-106,134,13,-146,-353,-302,-385,-64,-155,-85
-96,-216,-120,156,12,-167,-390,-311,-384,-40,-122,-59
-96,-241,-145,169,25,-193,-394,-279,-386,-13,-126,-48
-77,-204,-128,141,26,-166,-395,-297,-384,-10,-120,-51
-64,-193,-129,128,33,-160,-402,-313,-387,-9,-119,-50
-68,-201,-132,134,32,-166,-401,-325,-392,-5,-115,-55
-75,-201,-127,138,26,-164,-414,-341,-386,-4,-116,-55
-79,-213,-133,146,27,-173,-430,-355,-408,-30,-121,-56
-77,-202,-125,140,24,-164,-439,-380,-442,-61,-121,-80
-79,-205,-125,142,23,-165,-447,-374,-426,-57,-127,-94
-71,-190,-119,130,24,-154,-462,-376,-421,-31,-127,-94
-51,-149,-98,100,24,-123,-429,-355,-409,3,-132,-89
-59,-118,-59,88,0,-88,-412,-336,-397,6,-118,-76
-40,-86,-46,63,4,-66,-397,-335,-383,12,-99,-72
-41,-55,-14,48,-13,-34,-372,-336,-369,19,-102,-76
-33,19,52,7,-42,36,-475,-420,-440,-19,-107,-75
-27,-19,8,23,-17,-5,-526,-464,-478,-34,-115,-75
-39,-116,-77,77,19,-96,-507,-453,-464,-34,-117,-76
-20,-127,-107,74,44,-117,-521,-468,-475,-49,-124,-73
-65,-201,-136,133,36,-168,-510,-460,-477,-45,-127,-97
-74,-233,-160,154,43,-196,-519,-477,-521,-75,-163,-129
-73,-266,-193,170,61,-229,-509,-456,-530,-99,-196,-149
-67,-258,-190,163,62,-224,-504,-453,-541,-101,-164,-145
-90,-274,-185,182,48,-229,-499,-432,-523,-86,-149,-139
-108,-321,-213,214,53,-266,-486,-425,-521,-81,-145,-134
-73,-280,-208,177,68,-244,-492,-430,-519,-77,-133,-127
-88,-313,-225,201,68,-269,-446,-390,-447,-31,-129,-115
-54,-209,-156,132,51,-182,-457,-411,-453,-13,-104,-80
2,-74,-76,36,39,-75,-548,-391,-312,254,230,214
226,333,107,-280,60,219,-1052,-1297,-1008,362,922,959
306,528,222,-417,42,374,-1709,-2411,-2280,-356,649,896
-14,-6,9,10,-12,2,-1534,-2085,-2304,-1103,-516,-189
-148,-276,-127,212,-10,-201,-825,-1078,-1351,-762,-649,-474
-97,-241,-144,169,24,-193,-444,-411,-595,-106,-224,-174
-67,-222,-155,145,45,-188,-432,-331,-447,-44,-161,-123
-39,-244,-204,142,83,-223,-420,-314,-405,-7,-107,-97
-51,-259,-208,155,79,-233,-405,-271,-372,44,-98,-96
-47,-240,-194,143,74,-217,-406,-277,-382,27,-87,-87
-48,-250,-202,149,78,-226,-392,-239,-350,66,-79,-80
-52,-243,-190,148,69,-217,-392,-234,-340,72,-77,-76
-41,-239,-198,140,79,-218,-380,-201,-305,93,-56,-66
-26,-218,-192,122,84,-205,-378,-177,-283,121,-51,-58
-14,-202,-188,108,87,-195,-368,-146,-256,140,-28,-39
-19,-200,-181,110,81,-190,-362,-117,-239,165,-15,-29
-11,-185,-173,98,81,-179,-351,-71,-193,205,28,-12
-9,-177,-168,93,80,-172,-344,-30,-137,239,57,0
5,-149,-155,72,80,-152,-325,16,-98,277,75,15
20,-103,-123,41,72,-113,-282,97,-41,350,142,48
4,-87,-91,42,48,-88,-264,136,5,393,165,64
7,1,-6,-4,6,-2,-285,160,36,410,205,102
-24,34,58,-5,-41,45,-301,206,70,449,247,134
61,41,-19,-51,40,11,-299,214,81,441,255,144
129,75,-55,-101,92,10,-300,205,68,427,261,163
27,74,47,-51,-10,60,-299,194,36,432,247,141
45,124,79,-85,-17,101,-301,124,-28,356,204,92
51,88,37,-69,7,62,-301,47,-120,281,142,57
6,42,36,-24,-15,39,-317,-8,-199,232,103,27
-10,-3,6,6,-8,1,-346,-101,-289,157,40,-25
-43,-83,-40,64,-1,-61,-368,-166,-370,108,-20,-64
5,-12,-16,4,10,-14,-349,-165,-376,105,-46,-73
22,83,61,-53,-20,72,-319,-155,-372,76,-53,-70
11,44,33,-27,-11,38,-316,-153,-377,71,-47,-89
32,-11,-43,-11,38,-27,-270,-134,-371,100,-52,-112
14,-93,-107,40,61,-100,-287,-140,-387,67,-49,-109
-30,-159,-130,95,50,-144,-354,-198,-434,37,-73,-142
-58,-146,-88,102,15,-117,-362,-206,-442,-1,-125,-181
-58,-246,-188,152,65,-217,-366,-203,-438,25,-104,-170
-53,-281,-228,167,88,-254,-372,-209,-439,71,-77,-135
-54,-239,-185,147,66,-212,-373,-199,-430,49,-89,-128
-47,-236,-189,142,72,-212,-382,-213,-442,48,-83,-125
-33,-200,-167,117,67,-183,-377,-188,-432,41,-92,-123
-43,-233,-190,139,73,-211,-382,-231,-477,29,-89,-116
-39,-237,-198,139,80,-218,-379,-244,-479,25,-88,-116
-54,-202,-147,128,46,-174,-379,-249,-491,-9,-86,-126
-82,-212,-130,148,24,-171,-382,-233,-475,11,-79,-155
-83,-209,-126,146,22,-167,-357,-225,-481,-1,-85,-164
-38,-168,-131,103,47,-149,-396,-242,-451,67,8,-81
150,154,4,-152,73,79,-564,-317,-258,524,630,477
361,794,433,-578,-36,613,-1155,-1404,-1177,543,1351,1311
278,706,429,-492,-76,567,-1591,-2225,-2353,-450,528,726
-17,62,78,-23,-48,70,-1075,-1468,-1947,-1000,-612,-393
-97,-161,-65,129,-16,-113,-465,-510,-954,-397,-349,-349
-31,-219,-187,125,78,-203,-350,-183,-527,-1,-78,-194
-41,-250,-210,146,85,-230,-357,-212,-494,-6,-95,-192
-42,-243,-201,143,80,-222,-347,-192,-458,49,-46,-148
-21,-229,-207,125,94,-218,-343,-183,-447,42,-68,-156
-31,-248,-217,140,93,-232,-337,-183,-439,60,-41,-127
-33,-269,-235,151,101,-252,-332,-166,-424,59,-47,-132
-47,-267,-220,157,87,-243,-326,-168,-419,64,-33,-115
-80,-272,-192,176,56,-232,-321,-155,-395,72,-26,-113
-46,-219,-173,133,64,-196,-315,-146,-381,106,-14,-103
-43,-206,-164,125,61,-185,-310,-119,-349,138,1,-89
-53,-259,-206,156,77,-232,-305,-55,-294,162,38,-60
-11,-256,-245,133,118,-250,-294,-18,-246,210,88,-21
7,-208,-215,100,112,-211,-272,19,-194,251,127,-4
30,-176,-206,73,119,-191,-258,78,-138,294,153,3
6,-151,-158,73,82,-154,-243,112,-95,336,178,29
-8,-120,-112,64,52,-116,-218,163,-54,383,226,74
25,-47,-72,11,49,-59,-192,183,-17,401,235,90
40,28,-12,-34,26,9,-153,234,29,428,264,120
77,71,-6,-74,41,32,-133,267,37,427,287,150
72,124,52,-99,10,88,-102,241,17,391,260,123
64,136,72,-100,-4,104,-161,130,-77,318,213,75
63,97,35,-80,14,66,-283,-28,-212,240,142,32
43,20,-23,-31,33,-2,-292,-89,-284,182,87,6
46,-95,-141,25,94,-118,-291,-142,-352,94,37,-30
38,-149,-187,55,113,-167,-309,-198,-417,53,-18,-97
10,-198,-208,95,109,-203,-314,-221,-455,41,-51,-143
-50,-280,-231,165,90,-255,-300,-221,-453,27,-80,-152
-37,-281,-244,160,103,-262,-288,-218,-449,18,-78,-148
-45,-271,-226,158,91,-248,-273,-229,-445,9,-75,-141
-46,-298,-253,172,104,-275,-259,-268,-442,16,-100,-133
-3,-281,-278,142,138,-279,-255,-269,-438,42,-71,-129
-42,-315,-273,179,116,-294,-233,-271,-449,44,-54,-120
-16,-323,-307,169,146,-314,-253,-270,-449,35,-65,-120
19,-255,-274,119,146,-265,-271,-267,-455,30,-55,-121
-15,-304,-289,160,137,-296,-266,-277,-462,19,-70,-116
-48,-287,-239,167,96,-263,-254,-263,-458,18,-83,-134
-22,-224,-202,123,91,-213,-263,-277,-477,1,-74,-132
-48,-327,-280,188,116,-303,-241,-222,-406,7,-51,-133
-95,-267,-172,181,39,-219,-263,-268,-435,48,21,-88
19,-94,-113,38,66,-104,-341,-238,-213,370,350,191
281,459,178,-370,51,318,-747,-934,-623,664,1165,1038
417,912,495,-665,-39,703,-1473,-2255,-2107,-43,1090,1224
101,258,157,-180,-28,207,-1338,-2044,-2343,-987,-248,34
-111,-214,-103,163,-4,-158,-598,-916,-1313,-724,-560,-452
-20,-217,-197,119,88,-207,-281,-326,-577,-100,-118,-180
-47,-324,-277,186,115,-300,-250,-229,-402,-5,-88,-168
-73,-310,-237,192,82,-273,-257,-239,-409,26,-50,-147
-82,-320,-237,201,78,-278,-246,-208,-376,39,-51,-153
-42,-282,-240,162,100,-261,-245,-220,-380,40,-47,-144
10,-258,-269,124,140,-263,-239,-201,-356,55,-35,-140
7,-220,-227,107,117,-223,-234,-201,-336,54,-39,-136
4,-246,-250,122,127,-248,-229,-192,-301,104,-23,-118
9,-309,-318,150,164,-313,-223,-164,-263,124,-23,-112
16,-272,-288,128,152,-280,-218,-131,-227,132,-1,-99
-28,-305,-277,167,125,-291,-212,-89,-202,156,13,-81
20,-252,-272,116,146,-262,-204,-51,-169,206,69,-42
42,-225,-267,92,155,-246,-174,12,-103,249,119,-31
-2,-264,-262,133,130,-263,-155,86,-37,280,135,-12
28,-225,-254,99,141,-239,-144,143,26,331,171,15
64,-191,-255,64,160,-223,-132,196,61,350,179,15
36,-156,-192,60,115,-174,-129,218,67,361,186,7
30,-130,-159,50,95,-144,-123,214,57,366,206,6
87,-81,-168,-2,128,-124,-123,232,78,350,187,-3
65,-98,-163,17,114,-130,-114,212,69,318,157,-1
58,-109,-168,26,113,-138,-119,142,-15,251,127,-21
52,-108,-160,28,106,-134,-140,85,-74,204,83,-57
37,-138,-175,51,106,-156,-152,29,-139,168,58,-67
25,-156,-180,66,103,-168,-180,-30,-219,104,21,-105
-9,-210,-200,109,96,-205,-188,-94,-258,56,-1,-122
-27,-233,-206,130,89,-219,-182,-125,-293,39,20,-147
-36,-266,-230,151,97,-248,-186,-117,-308,33,-23,-174
3,-276,-279,137,141,-278,-201,-123,-303,26,-49,-152
8,-265,-272,129,140,-268,-207,-126,-306,25,-17,-147
-36,-262,-226,149,95,-244,-203,-124,-304,17,-10,-142
-64,-267,-203,165,70,-235,-201,-127,-305,17,-10,-138
10,-239,-249,115,130,-243,-199,-122,-309,49,-7,-137
47,-200,-247,77,147,-223,-200,-132,-309,46,-3,-129
-3,-237,-234,120,116,-236,-192,-171,-311,19,0,-133
6,-231,-237,112,122,-234,-212,-179,-308,-7,4,-134
27,-196,-223,85,125,-209,-225,-180,-318,-21,4,-136
13,-213,-226,101,119,-219,-216,-190,-346,-33,-1,-139
-19,-236,-217,128,99,-226,-213,-196,-347,-52,-5,-140
-48,-268,-220,158,86,-244,-205,-219,-353,-56,-7,-159
18,-249,-267,116,143,-258,-202,-227,-373,-96,-13,-167
69,-229,-298,80,184,-263,-202,-224,-376,-119,-13,-164
-5,-285,-280,145,138,-283,-222,-226,-372,-113,-28,-162
-37,-323,-286,180,125,-304,-226,-223,-369,-117,-54,-160
-21,-297,-277,159,128,-287,-215,-226,-368,-113,-56,-160
-18,-213,-195,116,89,-204,-201,-207,-338,-116,-52,-155
-7,-175,-168,91,81,-171,-187,-189,-312,-117,-50,-149
-6,-176,-170,91,82,-172,-190,-176,-293,-122,-47,-146
1,-163,-164,81,83,-163,-189,-170,-287,-123,-40,-141
12,-145,-158,67,85,-151,-217,-223,-338,-128,-40,-137
6,-149,-155,72,81,-152,-234,-253,-366,-135,-29,-136
57,-163,-220,53,139,-192,-227,-255,-377,-153,-40,-143
27,-232,-259,103,143,-245,-236,-265,-402,-199,-96,-164
-50,-328,-278,189,114,-303,-233,-255,-391,-199,-104,-160
-29,-296,-267,162,119,-281,-236,-271,-391,-203,-103,-179
-27,-290,-263,159,118,-276,-228,-258,-376,-236,-132,-227
-73,-330,-257,202,92,-293,-225,-271,-378,-249,-122,-211
-79,-347,-268,213,95,-307,-217,-260,-368,-232,-92,-188
-44,-329,-285,187,121,-307,-212,-266,-375,-241,-100,-191
-46,-307,-260,177,107,-283,-206,-270,-381,-213,-78,-166
-41,-301,-260,171,110,-281,-165,-246,-346,-195,-87,-148
-41,-243,-201,142,80,-222,-159,-280,-303,-163,-49,-92
47,-126,-173,40,110,-149,-242,-203,-102,146,326,193
309,387,78,-348,115,232,-696,-988,-707,281,1056,984
390,567,178,-479,106,372,-1286,-2100,-1964,-370,933,1064
99,44,-55,-71,76,-5,-1192,-1906,-2111,-1213,-363,-143
-115,-249,-134,182,10,-191,-491,-901,-1155,-919,-625,-528
-80,-309,-229,194,75,-268,-95,-231,-401,-269,-145,-194
-46,-270,-224,158,89,-247,-130,-207,-279,-226,-142,-176
-56,-254,-198,155,72,-226,-122,-195,-229,-165,-63,-114
-48,-259,-211,154,82,-235,-117,-154,-188,-138,-57,-108
-51,-251,-199,151,75,-225,-119,-159,-183,-136,-69,-95
-44,-259,-215,152,86,-237,-108,-132,-152,-116,-33,-83
19,-192,-211,87,115,-201,-112,-137,-133,-120,-45,-101
13,-204,-218,96,116,-211,-100,-113,-104,-100,-35,-82
-21,-244,-222,132,101,-233,-97,-102,-92,-104,-30,-51
-5,-216,-211,111,103,-213,-88,-86,-64,-77,-16,-32
-2,-221,-219,112,109,-220,-83,-69,-51,-50,-4,-29
-2,-213,-211,108,105,-212,-76,-36,-17,-1,17,-17
46,-169,-215,62,131,-192,-69,-14,12,18,37,-10
40,-169,-209,65,125,-189,-61,30,42,32,61,7
21,-101,-122,40,71,-111,-52,83,118,104,97,27
28,-153,-181,63,104,-167,-44,105,167,140,165,90
19,-133,-151,57,85,-142,-40,139,201,165,204,131
55,-17,-72,-19,64,-44,-37,149,224,192,204,125
69,-21,-89,-24,79,-55,-34,158,216,207,244,167
94,49,-45,-71,69,2,-31,158,206,232,256,191
133,72,-61,-103,97,6,-30,124,194,214,227,175
121,65,-56,-93,88,4,-24,96,179,180,210,158
68,21,-46,-44,56,-12,-26,42,149,128,159,127
2,-20,-22,9,12,-21,-42,-22,86,55,96,90
-2,-50,-48,26,23,-49,-54,-69,24,11,56,55
8,-87,-95,40,51,-91,-72,-126,-31,-30,26,29
-11,-140,-128,76,59,-134,-83,-161,-84,-76,-23,-5
-7,-129,-122,68,58,-125,-80,-197,-132,-109,-69,-41
-33,-129,-96,81,32,-112,-77,-225,-156,-123,-92,-66
-21,-212,-191,117,85,-201,-75,-215,-144,-113,-106,-76
10,-192,-202,91,106,-196,-71,-210,-131,-102,-98,-70
-18,-202,-184,110,83,-193,-71,-199,-120,-92,-94,-68
-26,-211,-186,119,80,-198,-62,-177,-90,-79,-90,-63
-35,-259,-224,147,94,-241,-47,-169,-51,-68,-85,-60
-36,-292,-256,165,110,-274,-49,-170,-23,-47,-81,-56
-28,-243,-215,136,94,-229,-53,-169,-19,-23,-72,-50
-44,-247,-203,146,80,-225,-55,-171,-26,-20,-66,-45
-46,-241,-196,144,75,-219,-59,-169,-29,-20,-61,-39
-10,-183,-173,97,81,-178,-60,-174,-35,-16,-66,-33
-16,-184,-167,100,76,-175,-64,-190,-38,-15,-71,-31
10,-215,-225,103,118,-219,-73,-203,-43,-15,-75,-35
23,-213,-236,95,130,-224,-80,-219,-50,-34,-80,-35
-29,-249,-220,139,96,-234,-96,-229,-53,-62,-84,-37
-14,-237,-223,126,105,-230,-106,-249,-92,-65,-85,-41
8,-201,-209,97,109,-205,-97,-267,-114,-64,-87,-40
-15,-232,-217,123,102,-224,-95,-264,-101,-67,-90,-44
-79,-310,-231,194,76,-270,-90,-265,-101,-61,-91,-45
-62,-291,-229,177,84,-260,-85,-264,-94,-79,-103,-47
-27,-258,-230,143,102,-244,-101,-265,-90,-91,-115,-51
-38,-268,-230,153,96,-248,-102,-267,-109,-73,-114,-48
-20,-247,-227,133,104,-237,-96,-272,-124,-67,-116,-43
-21,-286,-265,154,122,-275,-90,-267,-116,-63,-114,-37
-27,-288,-262,158,118,-275,-85,-272,-123,-61,-116,-31
-45,-239,-193,142,74,-215,-79,-265,-86,-57,-111,-27
-25,-214,-189,120,82,-201,-63,-231,-44,-26,-71,-14
35,-184,-219,75,127,-201,-39,-200,-35,13,-32,8
24,-189,-213,83,119,-201,-41,-195,-21,28,-35,39
32,-179,-211,74,122,-195,-122,-278,-77,-4,-72,51
59,-142,-201,42,130,-171,-149,-311,-109,-36,-90,42
15,-176,-190,81,103,-183,-129,-294,-125,-34,-85,33
-35,-235,-200,135,83,-217,-132,-298,-138,-37,-95,3
-27,-279,-252,153,112,-265,-117,-286,-133,-65,-122,-49
-5,-313,-308,159,152,-310,-119,-291,-136,-76,-123,-76
-57,-361,-304,209,123,-332,-104,-273,-129,-60,-115,-67
-60,-395,-336,228,138,-365,-102,-282,-172,-41,-114,-60
-40,-384,-343,212,152,-363,-88,-252,-138,-33,-106,-55
-34,-347,-313,191,140,-330,-78,-268,-166,-60,-107,-51
2,-365,-367,182,185,-366,-71,-245,-122,-27,-102,-68
-35,-332,-297,184,131,-315,-45,-220,-84,-14,-91,-33
-3,-289,-285,146,141,-287,-59,-162,33,160,75,105
199,8,-191,-103,195,-91,-312,-424,-84,460,687,691
362,451,88,-407,137,269,-1000,-1568,-1330,115,1056,1238
167,138,-29,-152,99,54,-1340,-1995,-2140,-834,80,431
-115,-338,-222,227,54,-280,-792,-1132,-1486,-1051,-729,-422
-73,-373,-300,223,114,-337,-141,-192,-469,-314,-318,-180
-19,-289,-270,154,125,-279,-8,156,-52,-3,-110,-42
-38,-311,-273,175,118,-292,-43,128,-50,8,-115,-66
-20,-386,-366,203,173,-376,7,155,19,112,-39,-11
-25,-350,-325,187,151,-337,20,139,22,89,-45,-8
-26,-379,-353,203,164,-366,35,161,53,114,-22,11
-14,-301,-287,157,137,-293,38,156,55,98,-32,17
-15,-257,-242,137,114,-249,39,185,70,122,-17,25
-33,-368,-335,201,152,-351,47,225,121,158,6,45
8,-340,-348,166,178,-344,46,240,126,185,39,78
17,-315,-332,149,175,-324,53,281,156,205,78,85
-2,-310,-308,157,153,-309,56,272,173,177,82,80
0,-299,-299,150,150,-299,63,335,224,245,97,96
1,-285,-287,142,144,-286,70,376,274,303,130,107
36,-217,-252,90,144,-234,72,387,312,334,148,108
37,-241,-278,102,158,-260,116,460,386,411,205,164
37,-177,-214,70,126,-195,122,483,417,443,239,189
90,-85,-175,-3,133,-130,127,530,471,483,285,224
49,-131,-180,41,115,-155,161,577,507,509,340,275
26,-111,-136,42,81,-123,147,565,498,492,327,257
120,-18,-138,-50,129,-78,140,550,486,478,316,257
84,20,-64,-52,74,-22,131,500,441,433,276,242
33,-67,-100,18,67,-84,120,441,403,392,226,212
56,-59,-115,2,86,-87,104,379,328,342,182,167
19,-65,-84,24,52,-74,71,312,239,273,144,123
2,-172,-174,85,88,-173,44,253,175,218,113,103
-1,-189,-188,95,94,-189,38,197,122,163,68,71
-8,-171,-163,90,77,-167,35,160,69,107,20,29
-21,-208,-187,115,83,-197,32,154,27,79,-26,-10
0,-234,-234,117,117,-234,28,156,24,72,-50,-20
17,-206,-223,95,120,-214,23,154,27,77,-58,-32
-33,-269,-236,152,102,-253,43,160,22,88,-60,-40
-27,-246,-219,136,97,-232,74,187,69,118,-25,-17
4,-180,-184,89,94,-182,120,246,154,179,25,2
54,-149,-203,48,129,-175,136,287,197,221,63,31
85,-113,-198,14,142,-155,166,339,248,242,102,74
97,-150,-247,27,172,-198,130,286,196,238,107,55
79,-199,-278,60,179,-238,54,177,83,191,82,18
22,-250,-272,115,147,-261,69,166,76,148,49,15
-2,-281,-279,142,139,-280,58,131,31,121,13,8
2,-282,-284,140,143,-282,41,127,6,106,-25,0
-3,-286,-282,145,140,-284,-1,79,-19,84,-52,-5
-35,-318,-283,176,125,-300,-11,72,-26,73,-46,-13
-11,-278,-267,145,129,-272,-3,67,-37,43,-74,-43
-39,-307,-268,174,115,-287,0,71,-51,42,-92,-65
-74,-319,-245,197,85,-282,12,74,-70,36,-73,-54
-42,-279,-237,161,97,-258,0,57,-77,30,-66,-53
-38,-270,-232,155,97,-251,7,99,-27,41,-43,-48
-47,-207,-160,127,57,-183,-42,21,-58,19,-40,-36
49,-85,-134,18,92,-109,-74,97,175,393,385,350
330,506,176,-418,77,341,-566,-782,-494,567,1192,1220
320,613,293,-467,14,453,-1190,-1932,-1874,-309,727,969
-10,14,24,-2,-17,19,-923,-1469,-1793,-1064,-549,-216
-131,-229,-98,180,-17,-163,-236,-440,-772,-596,-541,-369
-96,-278,-181,187,43,-229,103,137,-104,-37,-128,-107
-24,-196,-172,110,74,-184,84,177,8,-1,-119,-100
-27,-193,-166,110,70,-179,48,166,-2,48,-69,-70
-108,-221,-114,165,3,-167,64,185,15,55,-84,-81
-72,-225,-153,149,40,-189,96,166,43,97,-72,-65
-12,-207,-195,109,92,-201,104,179,92,112,-71,-65
-10,-148,-139,80,65,-143,98,188,88,106,-67,-38
-11,-194,-183,103,86,-188,108,225,103,122,-52,-11
-24,-170,-146,98,61,-158,102,227,122,137,-21,-4
-5,-149,-144,77,70,-146,107,279,159,174,18,13
-27,-114,-87,71,31,-101,103,293,185,174,21,24
-12,-109,-97,61,42,-103,107,348,239,239,78,58
-9,-83,-74,46,33,-78,101,395,288,266,107,85
-40,-51,-11,46,-14,-31,128,434,345,302,133,103
45,-58,-104,7,75,-81,177,533,430,396,187,137
59,51,-8,-55,33,21,174,554,456,417,211,158
88,128,40,-108,24,84,176,560,459,413,215,156
112,161,48,-137,31,104,175,554,457,402,207,148
73,169,96,-121,-12,133,176,540,446,389,208,139
25,147,122,-86,-49,134,199,537,419,356,186,134
7,178,171,-93,-82,174,192,507,371,319,145,115
37,153,116,-96,-39,134,173,449,312,261,98,75
-30,80,110,-25,-70,94,159,374,229,185,64,38
-34,62,96,-14,-65,79,144,307,158,134,7,2
-5,51,56,-23,-31,53,133,251,101,63,-84,-61
-61,-21,39,41,-50,9,125,211,55,20,-117,-106
-34,2,36,16,-35,18,120,198,45,-6,-148,-133
-82,-13,69,47,-76,28,111,196,44,-36,-163,-146
-110,-84,26,97,-68,-29,108,192,43,-14,-149,-134
6,33,27,-19,-11,30,95,188,36,4,-149,-127
-81,27,108,27,-95,68,105,185,51,6,-132,-119
-146,-28,118,86,-131,45,111,180,80,41,-109,-112
-53,0,54,26,-54,27,77,170,61,57,-93,-110
-17,50,68,-17,-43,59,74,159,47,46,-89,-110
-35,50,85,-8,-60,67,76,145,42,39,-74,-109
-54,33,87,10,-71,60,74,131,35,31,-96,-112
-28,83,112,-27,-70,97,76,120,31,22,-145,-107
-36,61,98,-13,-67,79,74,112,-1,-15,-145,-119
-40,64,104,-12,-72,83,71,104,-40,-39,-145,-139
-59,18,76,20,-68,47,70,96,-51,-30,-145,-146
-50,55,104,-3,-77,79,69,88,-49,-29,-145,-169
-59,70,129,-6,-94,99,65,84,-46,-21,-146,-169
-73,30,103,21,-88,66,65,78,-22,-23,-153,-163
-19,93,111,-37,-65,102,63,75,-37,-62,-190,-162
-35,114,150,-40,-93,132,59,70,-73,-89,-196,-155
-18,100,117,-41,-68,108,57,65,-67,-82,-189,-156
-36,28,63,4,-50,45,53,91,-62,-82,-189,-168
-71,48,119,12,-96,83,51,97,-59,-78,-184,-179
-40,116,156,-38,-98,136,49,86,-53,-75,-184,-180
-61,106,167,-23,-114,136,46,81,-51,-75,-179,-180
-72,92,165,-11,-119,128,45,71,-55,-58,-180,-180
-97,67,165,14,-131,116,43,67,-70,-86,-180,-180
-76,89,165,-7,-121,127,41,58,-84,-120,-179,-179
-33,133,166,-50,-100,149,37,54,-78,-112,-181,-174
-42,130,172,-45,-107,151,50,48,-70,-111,-184,-169
-51,127,178,-38,-115,152,74,43,-65,-108,-202,-167
-63,121,184,-29,-124,152,70,37,-57,-103,-203,-157
-53,118,171,-33,-113,145,58,36,-53,-111,-210,-185
-30,111,142,-41,-86,126,84,74,-48,-115,-209,-218
-8,111,119,-52,-63,114,108,98,-45,-115,-173,-202
-61,98,159,-19,-110,129,97,82,-41,-116,-177,-190
-66,117,184,-25,-125,150,96,82,-37,-114,-184,-183
-7,174,181,-84,-94,177,90,72,-33,-116,-175,-176
-20,154,173,-67,-97,163,85,66,-27,-107,-172,-169
-44,162,207,-59,-126,184,92,97,-6,-94,-167,-162
-30,220,249,-95,-140,234,123,130,27,-79,-162,-156
-15,245,259,-115,-137,252,149,148,36,-75,-160,-151
-43,267,311,-112,-177,289,114,112,21,-73,-167,-147
-17,319,335,-151,-177,327,82,76,18,-67,-162,-141
28,349,321,-188,-147,335,54,51,3,-98,-168,-139
9,282,273,-145,-132,277,53,46,-18,-87,-160,-131
-21,207,228,-93,-124,217,93,87,-24,-114,-172,-160
-35,185,220,-75,-128,203,81,72,-65,-163,-198,-217
-72,124,196,-26,-134,159,81,83,-58,-151,-198,-238
-54,144,198,-45,-126,170,72,64,-66,-199,-227,-234
-23,170,193,-74,-109,182,66,77,-45,-187,-222,-235
-42,151,194,-55,-118,172,72,67,-52,-192,-215,-237
-45,155,200,-56,-123,177,81,78,-27,-179,-204,-232
-64,120,184,-28,-124,152,130,115,19,-145,-200,-224
-47,169,216,-61,-132,192,124,129,45,-93,-133,-142
56,327,271,-192,-108,299,8,75,204,242,343,257
313,857,545,-585,-117,701,-616,-1088,-678,292,1102,1086
335,916,581,-626,-123,748,-1231,-2093,-1881,-453,759,930
30,330,300,-180,-135,314,-971,-1585,-1743,-1206,-555,-303
-103,140,243,-19,-174,191,-264,-563,-786,-862,-674,-536
-80,163,243,-42,-162,203,133,117,-49,-243,-203,-249
-52,175,227,-62,-140,201,158,184,76,-193,-192,-246
-48,191,240,-72,-144,215,181,203,112,-175,-147,-197
-36,206,242,-85,-139,224,179,227,143,-178,-169,-210
-19,139,157,-60,-88,148,212,269,201,-141,-148,-194
-51,134,184,-42,-118,159,230,305,236,-98,-108,-177
-37,202,238,-83,-138,220,192,291,199,-103,-108,-165
6,239,233,-123,-114,236,211,321,240,-77,-82,-155
-7,220,227,-107,-118,224,236,315,269,-83,-91,-154
-21,211,231,-95,-126,221,242,361,290,-56,-68,-141
-25,291,315,-133,-170,303,241,363,276,-66,-83,-139
-31,272,303,-121,-167,287,244,389,326,-10,-34,-130
-17,245,261,-114,-139,253,248,455,387,67,32,-116
28,309,280,-168,-126,294,240,467,392,51,7,-105
-6,324,330,-160,-168,326,261,519,467,134,95,-63
-1,316,317,-157,-159,316,295,585,532,181,138,-10
72,434,362,-253,-145,398,286,613,569,204,161,32
76,460,384,-269,-154,422,323,663,622,275,250,97
85,458,373,-272,-144,415,332,669,648,291,249,117
80,556,476,-319,-198,516,304,650,657,308,243,117
101,551,450,-326,-175,500,296,640,649,301,236,127
98,576,478,-337,-190,527,275,612,639,286,226,117
52,590,537,-321,-243,563,262,577,594,244,222,112
70,590,520,-331,-225,555,249,514,515,172,191,97
37,558,521,-298,-242,539,238,459,458,128,126,61
1,451,450,-227,-225,450,228,409,390,50,51,14
55,410,355,-233,-151,383,228,344,329,-29,7,-26
18,369,352,-193,-167,360,234,295,286,-54,-27,-80
-22,377,399,-178,-211,388,235,283,253,-93,-78,-118
2,357,354,-179,-176,355,241,285,250,-122,-111,-122
4,318,314,-161,-155,316,243,286,249,-114,-129,-141
10,314,303,-162,-147,308,248,290,252,-111,-145,-147
-7,288,295,-141,-151,291,253,290,247,-106,-137,-144
-43,252,295,-105,-169,273,267,291,262,-101,-130,-142
-41,241,283,-100,-162,262,278,297,297,-98,-125,-139
-11,274,285,-132,-148,280,270,322,312,-94,-116,-141
-19,259,278,-120,-149,268,301,357,353,-92,-118,-123
-23,288,311,-133,-167,299,319,359,369,-89,-120,-103
-36,313,350,-139,-193,331,295,337,354,-86,-120,-96
-62,272,334,-105,-198,303,286,320,350,-84,-120,-91
-8,296,304,-144,-156,299,275,305,332,-78,-120,-86
11,320,310,-166,-150,315,267,289,307,-96,-119,-80
-16,328,344,-156,-181,336,258,277,288,-120,-116,-75
-9,317,326,-154,-168,321,248,258,271,-111,-114,-81
5,343,338,-174,-167,340,244,232,255,-119,-122,-78
-17,329,346,-156,-182,337,238,220,245,-149,-155,-87
-3,292,295,-145,-149,293,235,213,239,-164,-192,-114
-26,297,323,-136,-174,310,230,204,232,-164,-196,-116
-97,243,340,-73,-218,291,225,198,223,-166,-190,-114
-25,268,293,-122,-160,281,229,190,218,-164,-189,-111
-7,268,274,-131,-141,271,230,190,209,-166,-184,-110
-18,267,285,-125,-152,276,230,190,207,-165,-186,-109
-35,278,313,-122,-174,295,235,191,196,-157,-191,-99
-50,247,297,-99,-174,272,235,190,208,-149,-189,-84
-34,297,331,-132,-183,314,236,192,261,-138,-193,-84
-6,370,377,-183,-192,373,246,209,278,-136,-194,-85
33,383,350,-208,-159,366,229,200,272,-109,-197,-85
4,425,421,-215,-208,423,202,170,266,-133,-169,-83
65,486,421,-276,-178,453,180,148,258,-181,-95,-21
41,419,378,-230,-169,398,140,137,253,-173,-124,-9
12,398,386,-205,-187,392,170,128,245,-176,-191,-62
9,312,303,-160,-147,307,201,122,222,-174,-194,-99
-80,200,280,-60,-180,239,175,108,189,-176,-203,-114
-25,242,267,-109,-146,254,165,111,200,-176,-210,-113
-10,217,227,-103,-119,222,169,112,198,-198,-239,-129
-16,194,210,-89,-113,201,219,150,227,-187,-246,-132
7,204,197,-106,-95,201,231,168,242,-157,-237,-118
7,190,183,-99,-88,186,209,143,220,-164,-223,-99
-12,208,219,-98,-116,213,222,175,246,-152,-209,-93
-65,250,315,-93,-190,282,234,181,251,-116,-166,-66
15,289,274,-152,-130,282,174,248,456,157,143,164
279,716,437,-498,-79,576,-265,-433,15,403,893,966
413,1022,609,-718,-98,815,-855,-1552,-1245,-153,907,1138
109,546,437,-328,-164,491,-856,-1516,-1582,-1079,-363,-11
-108,260,368,-77,-238,314,-192,-557,-700,-914,-733,-457
-23,260,283,-118,-154,271,317,214,122,-231,-234,-162
29,225,196,-127,-84,210,320,327,304,-122,-184,-135
13,254,241,-134,-114,247,316,335,315,-87,-146,-105
25,269,244,-147,-110,256,325,365,346,-64,-135,-103
13,245,231,-129,-109,238,315,333,358,-72,-129,-93
-53,169,223,-58,-138,196,324,379,380,-37,-109,-81
15,229,214,-122,-100,221,312,388,398,-14,-110,-82
42,262,220,-153,-89,241,317,413,431,17,-74,-58
-24,240,264,-108,-144,251,310,446,464,35,-63,-31
-29,253,282,-112,-156,267,309,445,469,63,-43,-10
-28,241,269,-107,-149,255,313,473,482,62,-36,-2
-37,243,280,-103,-159,261,338,530,546,111,-7,13
18,289,271,-154,-127,280,340,554,584,161,22,23
44,322,278,-184,-117,300,343,602,610,188,43,48
29,311,281,-170,-127,296,374,685,676,250,102,94
50,322,272,-186,-112,297,385,723,719,289,146,122
82,400,318,-241,-118,359,395,737,739,321,159,142
145,478,333,-312,-94,405,403,791,806,349,191,184
140,490,350,-316,-105,420,399,814,834,339,197,193
141,478,337,-310,-98,407,401,811,831,332,191,185
115,516,401,-316,-143,458,399,783,802,325,192,184
61,522,460,-292,-200,491,400,723,736,296,185,181
79,453,374,-266,-148,413,400,685,702,254,171,162
79,452,373,-266,-147,412,378,620,628,176,93,110
67,438,371,-252,-152,404,347,545,540,101,16,75
28,382,354,-206,-164,368,327,480,476,55,-30,35
24,365,342,-195,-159,353,314,425,410,-1,-83,-13
32,348,315,-190,-142,332,305,393,369,-40,-101,-31
-55,257,313,-101,-184,285,305,390,354,-56,-114,-35
-72,218,290,-73,-181,254,287,372,333,-83,-157,-53
-17,246,263,-115,-140,255,311,377,350,-85,-170,-69
-66,185,251,-60,-159,218,353,413,386,-52,-146,-58
-77,180,258,-52,-168,219,360,427,409,-43,-135,-51
-17,242,259,-112,-139,250,380,445,441,-33,-104,-38
-20,241,262,-111,-141,251,374,439,435,-20,-78,-6
-44,223,267,-90,-156,245,366,432,429,-4,-81,17
13,274,260,-144,-124,267,364,429,428,25,-80,23
40,295,255,-168,-108,274,355,421,419,29,-83,18
20,260,239,-140,-110,249,345,417,419,18,-86,15
11,247,236,-129,-113,241,333,400,410,11,-85,12
-14,204,218,-95,-116,211,321,388,404,-2,-85,7
5,222,217,-113,-106,219,314,377,398,-23,-86,4
-8,234,241,-113,-125,237,307,367,389,-39,-82,0
10,228,218,-119,-104,223,303,361,387,-64,-106,0
-24,235,259,-106,-142,247,323,348,363,-75,-129,0
-49,219,268,-85,-159,243,306,348,345,-66,-123,0
-13,232,245,-110,-129,238,278,348,343,-63,-126,0
-43,209,252,-83,-148,230,296,353,347,-56,-125,1
40,239,199,-139,-80,219,331,354,351,-50,-125,10
-2,240,242,-119,-122,241,338,356,348,-47,-122,14
-15,267,282,-127,-149,275,347,398,395,-40,-118,35
40,328,288,-185,-124,308,396,431,413,-40,-120,57
30,357,327,-194,-149,342,396,426,431,-30,-83,51
91,438,347,-265,-128,393,336,376,412,-36,-65,44
57,396,339,-227,-141,367,295,352,347,-74,-108,38
36,332,297,-184,-130,314,289,349,353,-90,-127,30
-8,249,257,-120,-133,253,298,332,335,-87,-128,10
-29,168,197,-70,-114,183,315,346,327,-105,-145,-29
-46,152,198,-53,-122,175,306,335,321,-134,-165,-54
-80,99,179,-9,-130,139,313,353,330,-125,-161,-57
-32,145,177,-56,-105,161,309,340,319,-130,-186,-53
-13,173,186,-80,-99,179,307,356,330,-118,-202,-56
-17,161,178,-72,-98,169,327,345,321,-124,-167,-54
-29,167,196,-70,-113,182,314,335,313,-115,-183,-55
-35,127,161,-46,-98,144,354,381,349,-95,-197,-28
-8,169,177,-81,-92,173,351,396,394,-49,-129,31
92,341,250,-217,-79,295,192,292,489,282,342,415
342,891,549,-617,-103,720,-441,-896,-457,304,1096,1264
376,990,614,-683,-119,802,-1044,-1875,-1674,-517,628,1016
28,307,278,-168,-125,292,-702,-1255,-1420,-1195,-634,-179
-101,58,159,21,-130,108,45,-194,-374,-717,-635,-322
-14,156,170,-71,-92,163,405,435,323,-126,-188,-67
-11,203,214,-96,-113,208,391,454,407,-87,-164,-64
-17,186,203,-85,-110,194,395,460,428,-34,-112,-13
3,132,129,-68,-63,130,429,522,492,-33,-123,-19
11,143,132,-78,-60,137,429,524,492,-29,-116,3
-6,131,137,-63,-72,134,437,541,511,-14,-111,-1
9,157,147,-83,-69,152,437,530,531,-12,-114,0
0,213,214,-107,-107,214,442,566,548,8,-104,3
-43,189,232,-73,-138,210,454,597,571,28,-98,42
11,219,208,-116,-98,214,453,640,611,71,-69,76
39,254,214,-147,-88,234,459,664,641,91,-45,76
14,210,195,-112,-91,202,490,712,686,128,-4,112
15,214,199,-115,-93,206,500,783,753,192,34,143
38,231,193,-135,-78,212,517,825,805,233,61,165
77,267,190,-172,-57,228,531,874,854,267,101,164
69,325,256,-198,-94,291,548,936,926,334,148,187
115,392,277,-254,-81,335,572,989,985,393,207,244
122,407,285,-265,-82,346,595,1020,1020,433,271,278
92,403,311,-248,-110,356,598,1020,1020,435,275,288
86,405,319,-245,-116,361,581,1006,1002,419,262,275
91,428,337,-259,-123,382,569,976,979,384,244,268
99,455,356,-277,-129,406,546,919,921,330,207,262
54,431,377,-243,-161,403,529,827,823,242,133,224
64,416,352,-240,-144,384,508,733,717,144,61,175
41,379,338,-210,-148,358,488,667,636,83,23,124
27,325,298,-176,-136,311,483,596,560,-11,-66,76
27,289,261,-158,-117,275,480,560,504,-60,-117,24
12,270,258,-141,-123,264,476,561,477,-87,-144,2
8,189,181,-99,-86,184,472,552,447,-130,-184,-35
-25,147,171,-61,-98,159,469,548,445,-127,-204,-63
-3,159,161,-78,-82,160,477,541,453,-143,-217,-87
-4,138,142,-67,-74,140,494,538,456,-132,-210,-70
-7,178,186,-86,-97,182,492,565,494,-109,-189,-51
-11,176,187,-83,-100,182,486,572,508,-107,-153,-72
43,203,160,-123,-58,181,483,559,499,-93,-156,20
69,240,171,-155,-51,206,477,554,500,-93,-141,-197
-3,140,143,-69,-73,141,473,544,495,-96,-121,-186
-7,145,153,-69,-80,149,463,536,494,-94,-113,45
65,241,177,-153,-56,209,451,523,486,-99,-103,-18
174,225,51,-200,62,137,440,513,473,-100,-92,7
220,202,-18,-211,119,92,430,498,459,-101,-84,-3
