I,II,III,aVR,aVL,aVF,V1,V2,V3,V4,V5,V6
-98,-93,5,95,-52,-44,53,120,65,0,-127,210
-101,-96,5,98,-53,-45,44,120,65,-8,-137,210
-72,-67,5,69,-38,-30,45,119,65,-17,-134,209
-67,-62,5,64,-36,-28,41,115,69,-16,-131,204
-62,-57,5,59,-33,-26,45,115,70,-15,-129,206
-46,-47,-1,47,-23,-23,69,126,69,-15,-124,219
-41,-47,-6,44,-17,-27,71,131,66,-15,-127,221
-64,-76,-12,70,-26,-44,69,129,61,-16,-129,216
-68,-81,-14,75,-27,-47,66,130,58,-12,-131,214
-76,-83,-7,79,-34,-45,65,130,54,-10,-144,210
-83,-89,-6,86,-38,-47,65,130,51,-6,-146,209
-86,-86,-1,86,-43,-43,60,134,48,-4,-144,206
-104,-102,2,103,-53,-50,61,135,43,-16,-145,202
-111,-105,6,107,-58,-49,60,135,40,-31,-145,200
-127,-118,10,122,-68,-54,60,139,36,-38,-144,193
-79,-81,-2,80,-38,-41,60,140,33,-33,-138,203
-54,-54,0,54,-27,-27,75,139,29,-36,-135,216
-109,-98,10,104,-59,-44,81,133,25,-34,-130,213
-115,-100,15,107,-64,-42,72,127,29,-35,-134,210
-86,-81,5,83,-46,-37,71,121,56,-36,-139,207
-77,-81,-5,79,-36,-43,53,116,65,-25,-131,205
-78,-73,5,75,-41,-34,55,117,53,-25,-128,202
-83,-69,15,76,-49,-27,34,120,70,-4,-117,201
-106,-89,18,97,-62,-35,39,115,47,-15,-116,199
-49,-16,33,32,-41,8,83,158,75,16,-109,226
-49,-20,30,34,-39,5,76,171,52,-1,-122,223
-104,-56,48,80,-76,-4,101,142,70,9,-117,224
-216,-101,114,158,-165,6,257,319,111,3,-154,211
-146,-149,-2,148,-72,-75,444,722,405,153,-83,225
542,167,-374,-354,458,-103,-278,254,587,602,320,517
1118,346,-772,-732,945,-213,-1640,-1464,-667,75,260,615
1108,118,-991,-613,1049,-436,-1829,-2008,-1544,-794,-323,248
738,-125,-863,-306,800,-494,-1038,-1095,-1062,-769,-527,-11
303,-162,-465,-71,384,-313,-426,-373,-519,-431,-359,39
59,-64,-124,3,92,-94,-84,125,-84,-127,-187,155
-66,-52,14,59,-39,-19,60,289,51,-20,-132,196
-86,-50,36,68,-61,-7,87,319,79,-4,-126,199
-107,-33,74,70,-90,20,119,361,114,35,-108,215
-115,-9,106,61,-110,48,137,354,129,52,-105,226
-115,-23,91,69,-103,34,163,388,140,59,-98,225
-141,-58,83,100,-112,12,170,385,135,52,-95,225
-107,-31,77,69,-92,23,161,385,156,60,-90,225
-114,-45,69,79,-91,12,157,396,149,69,-85,224
-134,-67,67,100,-100,0,150,413,161,78,-81,228
-111,-54,56,82,-83,1,157,426,160,71,-70,233
-120,-49,72,84,-96,11,158,457,184,81,-60,243
-121,-24,97,72,-109,36,172,481,213,115,-50,255
-72,12,83,30,-77,47,183,493,228,132,-40,270
-68,4,72,32,-70,37,178,510,251,131,-34,280
-83,-19,64,51,-73,22,181,531,253,141,-24,279
-46,6,51,20,-49,28,180,550,258,161,-19,285
-3,42,44,-20,-24,43,180,577,280,176,-1,310
68,88,20,-78,24,54,170,609,303,203,30,337
89,79,-9,-84,49,35,150,605,286,203,27,339
106,69,-37,-87,72,16,140,595,273,185,18,330
169,100,-69,-134,119,15,128,585,268,184,10,324
162,80,-82,-121,121,-1,129,576,239,175,2,317
165,79,-87,-122,126,-4,115,568,227,162,-6,311
185,103,-82,-144,133,10,111,539,206,148,-27,304
153,84,-68,-118,110,8,133,502,171,127,-27,297
104,44,-61,-74,82,-8,113,457,143,96,-43,291
66,38,-28,-52,47,5,106,417,126,67,-67,284
40,41,1,-40,19,21,129,359,107,48,-75,268
10,32,22,-21,-7,27,141,302,73,29,-100,248
-21,35,55,-7,-38,45,134,277,55,14,-109,237
-47,15,62,16,-55,38,121,233,42,4,-115,224
-57,1,59,28,-58,30,118,205,30,0,-130,216
-76,-19,57,47,-66,19,114,203,30,-5,-131,209
-60,-6,54,33,-57,24,107,199,29,-9,-128,202
-31,25,55,3,-43,40,118,196,26,-12,-135,194
-88,-24,64,55,-76,20,154,190,24,-27,-150,187
-105,-34,71,69,-88,18,151,191,27,-33,-150,188
-104,-35,69,70,-87,17,134,207,41,-24,-147,190
-119,-41,79,80,-99,19,162,232,53,-17,-139,192
-118,-39,79,78,-98,20,158,237,51,-12,-131,196
-101,-30,71,66,-86,21,136,242,60,-5,-122,208
-67,2,69,32,-68,36,171,250,63,-4,-117,207
-43,20,63,11,-53,41,177,240,68,6,-130,211
-33,27,61,3,-47,44,152,229,68,19,-129,228
-111,-47,65,79,-88,9,147,214,39,11,-142,221
-137,-72,65,104,-101,-3,133,197,30,1,-157,213
-114,-49,65,81,-89,8,127,185,27,-6,-153,207
-118,-53,65,85,-91,6,114,177,19,-18,-158,197
-81,-16,65,48,-73,24,118,169,16,-34,-160,197
-92,-26,67,59,-79,20,136,161,8,-39,-160,204
-114,-38,76,76,-94,19,123,154,5,-33,-156,204
-145,-60,85,102,-114,13,110,147,-4,-29,-150,198
-119,-40,80,79,-99,20,102,139,-2,-24,-145,197
-60,15,75,22,-68,45,98,132,-1,-21,-140,188
-72,-3,69,37,-71,33,91,130,-14,-14,-133,196
-56,8,64,23,-60,36,88,131,-14,-22,-131,215
-96,-36,60,66,-77,12,83,131,-9,-45,-149,210
-99,-38,60,69,-79,11,93,130,-7,-45,-154,204
-100,-25,75,62,-87,25,129,131,-2,-45,-146,200
-124,-43,82,84,-103,19,126,128,0,-45,-143,192
-86,-7,79,46,-83,36,122,125,-10,-44,-135,192
-133,-56,76,94,-104,10,127,124,-19,-45,-132,196
-135,-60,75,97,-105,8,123,124,-12,-35,-137,201
-121,-47,74,84,-97,13,127,118,-15,-36,-153,198
-123,-31,92,77,-107,30,126,121,-5,-24,-158,201
-96,-10,86,53,-91,38,131,123,-10,-25,-156,198
-110,-36,74,73,-92,19,118,124,-1,-12,-146,201
-137,-32,105,85,-121,36,118,129,-13,-21,-142,199
-132,-23,109,77,-120,43,107,123,-15,-32,-134,190
-126,-27,99,76,-112,36,109,141,-7,-20,-127,200
-100,-5,95,53,-98,45,122,113,3,-19,-125,201
-149,6,155,71,-152,81,168,214,65,10,-118,192
-269,-117,152,193,-210,17,486,580,202,32,-139,165
210,41,-170,-125,190,-64,165,503,547,436,142,360
1000,380,-620,-690,810,-119,-1196,-944,-230,340,336,611
1188,261,-927,-724,1058,-333,-1860,-2136,-1510,-596,-134,381
865,-59,-923,-403,894,-491,-1297,-1500,-1356,-881,-535,18
419,-135,-554,-142,487,-344,-536,-610,-745,-565,-458,-20
100,-53,-153,-23,127,-103,-71,-54,-253,-207,-234,117
-42,7,49,17,-46,28,97,262,20,-22,-117,203
-66,29,95,18,-81,62,142,278,39,5,-106,210
-107,-6,101,57,-104,47,174,310,75,39,-90,226
-157,-36,120,97,-139,42,171,306,70,38,-88,237
-132,-13,119,73,-126,53,182,326,94,63,-83,234
-129,-9,120,69,-125,56,215,337,98,61,-75,235
-101,18,120,42,-110,69,216,355,122,77,-73,245
-90,31,121,30,-106,76,214,360,131,94,-61,251
-104,21,125,41,-115,73,216,379,137,90,-45,249
-100,27,127,36,-113,77,214,409,158,106,-37,250
-114,17,131,48,-123,74,214,420,169,117,-32,249
-87,38,125,25,-106,81,228,462,198,136,-28,266
-60,55,115,2,-88,85,235,491,214,152,-20,278
-72,33,105,20,-89,69,227,498,226,147,-18,277
-51,44,95,3,-73,69,224,513,229,156,-7,281
-36,47,82,-6,-59,64,220,549,234,171,10,283
-12,51,64,-20,-38,57,220,584,250,183,24,300
36,73,37,-55,-1,55,227,610,264,204,44,325
52,59,8,-56,22,33,220,629,262,211,48,331
161,142,-18,-151,89,62,203,649,248,226,69,352
161,126,-34,-143,97,46,190,622,237,207,74,352
144,101,-44,-122,94,28,189,588,225,190,50,331
219,158,-61,-188,140,48,183,583,211,196,57,333
158,101,-57,-129,107,21,181,572,196,179,51,331
123,87,-36,-105,79,25,177,531,184,163,36,325
61,44,-17,-52,38,14,170,451,150,126,18,306
45,52,7,-49,19,29,189,399,104,96,-22,291
20,46,25,-33,-3,35,151,331,71,58,-58,265
-73,-13,60,43,-66,23,148,253,47,28,-77,244
-34,34,68,0,-51,50,197,217,31,41,-85,247
-55,11,66,22,-61,39,180,192,17,32,-91,240
-105,-6,99,55,-102,46,184,178,3,12,-96,233
-73,28,100,23,-87,64,178,172,-11,6,-95,230
-100,-1,100,51,-100,49,158,175,-8,4,-95,221
-108,-8,100,58,-104,46,155,175,8,9,-95,214
-59,41,101,9,-80,71,153,172,14,26,-95,236
-71,49,121,11,-96,85,150,191,16,31,-91,240
-83,24,107,29,-95,65,150,203,27,29,-90,232
-127,-16,112,71,-119,48,171,197,31,35,-89,232
-163,-33,130,98,-147,48,163,220,30,34,-92,225
-153,-42,111,98,-132,34,173,237,29,37,-105,226
-139,-41,98,90,-118,28,196,226,22,22,-106,230
-84,9,93,37,-89,51,187,222,18,12,-104,230
-113,-22,90,68,-101,34,180,213,12,-8,-106,230
-100,-14,86,57,-93,36,177,209,6,-34,-103,230
-62,21,84,20,-73,52,169,197,1,-48,-98,225
-103,-27,76,65,-89,24,124,161,-4,-85,-90,223
-83,-5,78,43,-80,36,83,144,-16,-97,-85,214
-52,48,100,2,-77,74,116,144,-23,-109,-77,223
-94,27,121,33,-108,74,134,139,-19,-117,-71,240
-140,-7,133,74,-137,63,114,138,-14,-134,-73,236
-120,6,126,57,-123,66,148,135,-10,-133,-76,229
-92,26,118,33,-106,72,170,130,-21,-109,-74,228
-104,5,109,49,-106,57,155,140,-32,-136,-75,220
-115,-12,103,64,-109,45,153,140,-20,-142,-75,220
-88,4,92,42,-90,48,164,121,-18,-143,-75,238
-62,17,78,22,-70,47,147,115,-40,-146,-84,223
-60,5,65,27,-62,35,113,115,-31,-136,-84,209
-98,-40,58,69,-78,9,122,112,-34,-132,-79,200
-104,-20,84,62,-94,32,113,103,-61,-123,-76,215
-130,-35,94,82,-112,29,95,93,-54,-110,-71,244
-110,-27,83,68,-96,28,129,90,-47,-104,-67,228
-34,42,76,-5,-55,59,125,82,-42,-105,-61,218
-88,9,96,39,-92,52,99,79,-34,-100,-56,208
-123,19,142,52,-133,80,141,71,-28,-101,-50,198
-105,47,152,29,-128,99,177,75,-20,-92,-46,194
-86,45,131,20,-109,87,167,83,-31,-84,-49,184
-87,46,132,20,-110,89,155,73,-37,-64,-50,178
-60,61,122,-1,-91,91,159,91,-15,-58,-50,170
-64,37,101,13,-83,68,148,78,-25,-79,-51,161
-90,5,95,43,-93,50,96,43,-68,-84,-48,144
-59,33,92,13,-76,62,92,40,-76,-104,-56,117
-90,5,95,42,-93,50,129,36,-72,-114,-69,105
-114,-18,96,65,-105,39,96,27,-73,-106,-66,102
-52,42,93,4,-73,67,122,26,-63,-97,-52,102
-107,-2,105,54,-105,51,177,18,-71,-102,-48,95
-139,-19,120,79,-129,50,167,29,-60,-89,-31,97
-82,35,116,23,-99,75,176,36,-77,-97,-29,91
-92,21,113,35,-103,67,169,38,-49,-85,-16,90
-83,21,105,31,-94,63,123,47,-60,-86,-16,91
-120,-6,113,62,-117,53,116,25,-32,-69,-37,83
-155,15,171,70,-163,93,222,160,38,-46,-36,91
-163,-50,113,106,-138,32,432,540,233,27,-10,72
363,140,-223,-251,293,-41,138,235,551,472,346,309
1030,457,-573,-743,801,-58,-1114,-1593,-544,150,457,528
998,233,-765,-615,881,-266,-1776,-2539,-1717,-819,-116,199
693,-59,-752,-317,722,-405,-1126,-1526,-1302,-945,-476,-170
305,-128,-433,-88,369,-281,-423,-656,-697,-594,-342,-165
64,-32,-96,-15,80,-64,-57,-139,-228,-236,-102,-20
-41,25,66,8,-54,45,100,110,-17,-71,0,53
-97,4,102,46,-100,53,143,135,-1,-57,21,76
-51,46,97,3,-74,71,169,184,49,-21,53,91
-63,34,97,14,-80,65,167,160,57,-16,52,84
-60,30,90,15,-75,60,157,176,86,4,58,80
-58,32,90,13,-74,61,149,169,92,12,72,77
-64,19,83,22,-74,51,150,194,105,19,73,70
-52,27,79,13,-66,53,140,195,108,27,81,70
-66,10,76,28,-71,42,134,188,116,32,86,70
-59,11,70,24,-65,40,130,203,121,36,86,71
-37,29,65,4,-51,47,129,212,144,61,109,80
-16,39,56,-12,-36,47,129,253,166,72,116,80
-35,19,53,8,-44,36,123,267,171,71,117,82
-47,-7,40,27,-44,17,125,285,197,88,131,92
29,76,47,-53,-9,61,143,334,228,111,153,112
6,57,50,-32,-22,53,145,342,236,133,179,130
37,41,5,-39,16,23,133,339,236,139,187,129
80,61,-19,-71,49,21,99,344,234,137,188,132
102,47,-55,-74,78,-4,60,361,238,151,197,136
196,112,-84,-153,139,14,58,397,241,156,208,133
190,99,-91,-145,141,4,72,397,229,151,201,130
224,98,-126,-160,174,-14,65,376,214,151,193,125
242,109,-133,-175,187,-12,47,364,199,141,188,123
217,90,-127,-153,172,-19,45,348,196,127,175,118
202,88,-114,-145,157,-12,36,329,178,113,189,116
165,79,-87,-122,126,-4,33,297,140,100,188,102
111,49,-62,-79,86,-6,27,250,119,93,150,57
90,51,-39,-70,64,6,28,200,129,93,153,56
102,81,-21,-91,61,30,53,150,112,71,151,64
50,46,-4,-48,27,21,50,100,65,31,105,18
11,27,16,-19,-3,21,43,56,44,-5,84,-10
-39,-3,36,21,-38,16,41,32,32,-27,67,-17
-71,-32,39,52,-55,3,33,20,20,-31,62,-41
-68,-24,44,46,-56,9,48,16,15,-28,67,-42
-48,-14,35,31,-41,10,67,35,29,-20,46,-34
-62,-18,44,40,-53,13,67,57,45,-41,63,-52
-91,-30,61,60,-76,15,52,58,34,-28,73,-57
-44,18,63,13,-54,40,65,75,52,20,89,-53
-86,-3,83,45,-85,39,54,95,84,28,101,-57
-102,-30,72,66,-86,21,20,76,73,19,74,-53
-82,-11,71,46,-76,30,40,63,65,5,90,-58
-119,-51,68,85,-93,8,46,60,58,8,86,-77
-114,-59,55,86,-84,-2,33,61,52,5,79,-82
-126,-68,57,96,-91,-5,21,41,46,-4,79,-79
-104,-55,50,79,-77,-2,17,13,39,-7,68,-81
-96,-45,51,70,-73,3,26,3,36,-32,78,-79
-81,-37,44,59,-62,3,0,-8,23,-34,77,-82
-55,-7,48,31,-51,20,-14,7,28,-29,88,-85
-101,-48,53,74,-77,2,6,4,39,-25,95,-85
-56,-7,50,31,-53,21,29,-9,40,-23,86,-88
-40,33,73,3,-57,53,-10,-27,32,-18,83,-89
-72,15,87,28,-80,51,-28,-44,5,-14,76,-92
-89,-5,84,47,-87,39,-14,-64,-5,-22,70,-86
-132,-47,85,89,-108,19,-50,-79,-11,-25,67,-101
-94,-9,85,51,-90,38,-35,-80,-21,-50,76,-104
-87,-3,84,45,-86,40,-55,-88,-3,-28,98,-108
-112,-30,82,70,-97,26,-55,-90,-49,-51,82,-122
-115,-43,72,79,-94,14,-42,-74,26,-19,87,-127
-222,-98,124,159,-172,13,109,176,98,-30,34,-189
-35,-41,-6,39,-14,-24,309,397,482,265,190,-84
590,226,-364,-408,477,-69,-390,-593,358,655,619,271
904,334,-570,-619,737,-118,-1590,-2290,-1206,-135,459,335
831,120,-711,-476,771,-295,-1718,-2265,-1710,-893,-132,-69
503,-111,-614,-195,559,-362,-942,-1138,-1000,-736,-340,-375
138,-109,-246,-14,192,-177,-383,-474,-454,-370,-145,-307
12,-23,-35,6,24,-29,-152,-45,-33,-59,50,-175
-101,-56,45,78,-73,-5,-42,56,35,10,90,-147
-118,-33,85,76,-102,26,-30,91,80,42,115,-139
-121,-27,94,74,-107,33,-7,112,105,55,115,-143
-130,-35,95,82,-112,30,29,106,112,73,135,-155
-141,-46,95,93,-118,24,-13,134,120,95,159,-148
-141,-46,95,93,-118,25,1,112,108,74,153,-143
-99,-5,95,52,-97,45,16,140,133,92,156,-137
-109,-13,95,61,-102,41,3,163,147,117,159,-132
-52,43,95,4,-74,69,37,192,185,150,181,-128
-83,7,90,38,-87,48,21,195,180,164,188,-125
-57,17,75,20,-66,46,22,213,191,156,180,-122
-1,69,70,-34,-36,69,10,240,229,170,199,-117
-56,7,63,24,-60,35,-46,243,248,188,223,-114
4,38,34,-21,-15,36,-52,284,253,182,219,-108
31,44,12,-38,9,27,-43,322,263,193,221,-99
45,21,-24,-33,34,-1,-35,348,275,209,219,-93
96,25,-72,-60,84,-23,-29,380,279,216,216,-83
174,79,-95,-126,134,-8,-22,431,304,239,247,-82
207,81,-126,-144,166,-22,0,456,307,236,254,-85
183,32,-151,-107,167,-59,-12,460,296,225,243,-85
232,76,-156,-154,194,-40,-31,458,288,223,242,-85
246,88,-157,-167,201,-35,-89,422,250,210,231,-84
228,80,-148,-153,188,-34,-104,386,213,197,222,-86
209,72,-137,-140,173,-32,-87,338,182,157,180,-89
187,58,-128,-122,157,-35,-105,293,155,120,139,-120
145,51,-94,-98,120,-22,-47,243,121,109,129,-143
78,34,-44,-56,61,-5,-52,166,75,71,86,-138
75,24,-51,-50,63,-13,-75,107,42,32,54,-156
35,-24,-60,-5,47,-42,-58,68,18,8,28,-174
-30,-74,-44,52,7,-59,-71,50,0,-10,-3,-185
-37,-82,-45,60,5,-63,-52,33,-11,-23,4,-185
-43,-84,-41,64,-1,-62,-47,25,-22,-27,3,-184
-40,-79,-38,60,-1,-58,-38,52,-16,-23,-14,-185
-34,-69,-35,52,1,-52,-41,57,-2,-20,-20,-184
-34,-70,-36,52,1,-52,-77,53,13,-17,-27,-187
-42,-85,-43,64,1,-64,-70,72,29,-12,-35,-185
-36,-82,-45,59,5,-63,-68,75,30,-11,-35,-186
-35,-80,-45,58,5,-62,-62,75,30,-20,-35,-182
-35,-80,-46,58,5,-62,-61,79,30,-21,-35,-180
-36,-80,-44,58,4,-62,-84,80,29,-19,-36,-180
-19,-64,-45,42,13,-54,-36,94,31,-16,-34,-176
1,-45,-46,22,24,-45,-40,84,25,-14,-37,-175
-14,-69,-55,42,21,-62,-72,65,16,-16,-50,-175
3,-65,-69,31,36,-67,-32,63,3,-13,-51,-176
-6,-71,-65,39,30,-68,-42,59,0,-23,-49,-170
7,-50,-57,22,32,-53,-54,56,-2,-28,-46,-181
29,-24,-53,-2,41,-38,-77,51,-12,-17,-44,-180
3,-46,-49,21,27,-47,-82,48,-3,-8,-46,-159
12,-37,-50,12,31,-43,-91,43,-2,-4,-52,-156
9,-61,-70,26,39,-65,-125,37,-23,-27,-68,-150
29,-54,-83,12,56,-68,-98,33,-32,-38,-71,-144
55,-23,-78,-16,67,-50,-110,25,-27,-34,-69,-139
42,-39,-81,-2,62,-60,-117,22,-24,-35,-70,-133
22,-57,-80,17,51,-68,-117,27,-21,-29,-70,-130
49,-31,-79,-9,64,-55,-126,32,-15,-30,-70,-125
21,-55,-76,17,48,-65,-116,25,-20,-33,-76,-123
-4,-68,-64,36,31,-66,-114,27,-32,-35,-86,-118
74,-6,-80,-34,77,-42,-100,46,-24,-29,-84,-115
24,-55,-79,15,52,-67,-115,42,-21,-23,-81,-115
9,-59,-67,25,38,-63,-131,27,-16,-19,-79,-115
46,-26,-71,-10,58,-48,-146,18,-11,-10,-74,-115
21,-49,-70,14,45,-59,-157,9,-17,-21,-77,-115
17,-58,-75,21,47,-67,-155,7,-22,-35,-80,-115
5,-69,-74,33,39,-71,-153,3,-44,-42,-85,-114
33,-43,-76,6,54,-59,-156,1,-45,-44,-87,-108
13,-45,-58,16,36,-51,-151,-6,-34,-36,-82,-101
-25,-79,-54,52,15,-66,-100,2,-31,-31,-79,-97
7,-74,-81,34,44,-77,-90,39,-20,-23,-73,-92
13,-66,-79,27,46,-72,-107,47,-16,-20,-68,-89
-7,-68,-60,38,27,-64,-120,44,-6,-11,-62,-81
25,-35,-60,5,43,-47,-117,46,-3,-9,-56,-73
60,-10,-69,-25,65,-39,-112,44,8,1,-51,-65
4,-50,-53,23,29,-51,-140,47,11,2,-53,-57
-17,-72,-56,45,20,-64,-155,43,19,12,-56,-59
-1,-58,-58,30,29,-58,-146,60,31,32,-54,-59
-24,-65,-41,45,8,-52,-154,29,5,1,-56,-61
-26,-56,-30,41,2,-43,-160,14,-2,-10,-56,-58
-21,-52,-31,36,5,-42,-121,11,-10,-30,-68,-62
-27,-53,-26,40,0,-39,-144,-4,17,-3,-55,-58
-9,-35,-26,23,9,-30,-150,25,-22,-4,-54,-43
5,-14,-20,5,13,-17,-96,10,22,16,-63,-47
-157,-100,58,128,-107,-21,50,215,81,-17,-110,-99
-27,-74,-47,51,10,-60,194,565,486,243,32,-11
698,334,-364,-516,531,-15,-570,-23,691,821,543,399
1157,457,-700,-807,928,-122,-1853,-1560,-705,217,490,520
1126,182,-944,-654,1035,-381,-1911,-1877,-1502,-678,-123,130
787,-31,-817,-378,802,-424,-1103,-995,-951,-656,-363,-155
305,-119,-424,-93,365,-272,-536,-395,-474,-381,-271,-161
78,-32,-110,-23,94,-71,-212,30,-51,-72,-108,-62
21,30,9,-25,6,19,-95,167,70,30,-54,0
-21,8,30,6,-26,19,-63,184,111,48,-56,19
-66,-29,37,47,-51,4,-80,216,134,73,-36,27
-55,-30,25,42,-39,-3,-86,197,115,53,-37,24
-11,13,24,-1,-18,18,-82,210,141,69,-27,25
32,44,12,-38,10,28,-89,219,173,97,-21,36
24,54,29,-39,-2,41,-44,232,197,115,-10,42
-25,43,68,-10,-47,56,-41,246,191,112,7,37
-17,47,64,-16,-41,55,-47,276,224,133,26,44
-28,35,64,-4,-46,49,-38,278,239,148,31,49
-13,64,77,-26,-45,71,-6,314,273,166,45,73
-39,38,77,0,-59,58,-49,322,282,172,53,80
-54,17,71,19,-63,43,-49,318,278,168,47,81
-25,40,64,-8,-45,52,-1,325,290,189,61,85
-48,13,61,17,-55,37,-72,334,297,209,79,89
25,65,41,-45,-8,53,-95,383,333,226,91,129
55,67,12,-61,21,39,-83,408,340,234,94,138
70,65,-6,-67,38,29,-70,441,357,250,115,159
130,101,-29,-115,79,36,-78,470,380,280,142,187
138,87,-51,-112,95,17,-70,483,371,272,143,180
186,105,-81,-145,133,12,-40,499,379,272,148,188
237,142,-96,-189,166,22,-47,497,381,288,156,204
228,142,-86,-185,157,28,-57,476,352,261,144,201
229,147,-81,-188,155,33,-62,424,310,234,129,193
196,118,-77,-157,136,20,-67,369,266,198,100,189
117,54,-63,-85,90,-5,-125,321,220,167,71,177
117,80,-37,-98,77,21,-141,268,183,163,56,163
85,79,-6,-82,46,36,-130,206,154,128,40,142
45,61,16,-53,14,38,-136,158,132,101,26,130
29,58,29,-44,0,44,-125,121,112,80,16,114
4,43,38,-23,-18,40,-137,82,102,51,9,87
7,48,41,-27,-17,44,-136,75,107,45,3,80
-2,37,39,-18,-21,38,-106,69,108,39,-4,78
2,42,40,-22,-19,41,-86,77,111,47,-11,74
-10,53,62,-22,-36,57,-84,112,124,60,-17,72
-20,61,81,-21,-51,71,-58,109,123,54,-20,69
-42,37,79,3,-61,58,-45,96,119,48,-30,67
-61,15,76,23,-69,46,-88,88,116,45,-42,64
-48,25,73,11,-60,49,-96,79,111,42,-45,66
-77,-7,71,42,-74,32,-85,81,109,40,-40,64
-92,-24,68,58,-80,22,-84,78,103,36,-38,66
-85,-23,62,54,-73,19,-73,74,117,34,-33,63
-55,-9,47,32,-51,19,-92,75,133,39,-30,60
-52,6,58,23,-56,32,-115,74,128,40,-38,60
-72,11,83,31,-78,46,-104,75,131,40,-34,60
-62,16,78,23,-70,47,-100,75,129,41,-21,60
-51,23,75,13,-63,49,-91,75,130,50,-14,59
-11,63,74,-26,-42,68,-74,89,144,64,2,80
-23,45,68,-11,-46,56,-93,82,136,56,-6,78
-36,34,70,1,-54,52,-98,63,121,42,-28,68
-43,14,58,14,-51,36,-97,60,116,40,-29,56
-56,4,60,26,-58,32,-86,52,106,31,-40,43
-60,24,84,18,-72,54,-97,43,99,28,-45,68
-114,-39,75,77,-95,18,-131,31,92,22,-39,64
-55,4,60,25,-57,32,-106,16,89,12,-35,48
-35,26,61,5,-48,44,-106,7,91,4,-41,52
-120,-60,60,90,-90,0,-134,3,89,-9,-60,49
-44,15,59,14,-51,37,-134,0,91,14,-56,51
-43,25,67,9,-55,46,-130,-4,89,18,-51,50
-77,-7,70,42,-73,31,-129,-10,93,13,-49,49
-50,31,81,9,-66,56,-119,-9,103,24,-41,48
-108,-20,88,63,-97,34,-112,-27,92,0,-42,41
-59,29,88,14,-73,58,-98,-9,107,27,-44,56
-76,22,98,27,-87,60,-108,18,117,41,-51,74
-114,-25,89,70,-102,32,-142,7,119,34,-45,70
-65,15,80,25,-73,47,-115,5,108,27,-45,61
-29,48,77,-9,-53,62,-82,-9,108,22,-46,58
-43,20,63,11,-53,42,-93,-5,103,22,-38,52
-93,-18,75,55,-84,29,-73,-31,93,15,-45,41
-56,21,76,17,-66,48,-86,-4,112,29,-31,37
-125,-39,86,82,-106,23,-99,-9,80,6,-46,19
-157,1,158,78,-157,79,1,26,155,47,-27,26
-221,-65,157,143,-189,46,233,372,271,41,-46,-10
60,-7,-67,-26,63,-37,86,443,703,454,195,161
840,387,-453,-613,646,-33,-1115,-707,258,659,574,529
1152,341,-811,-746,981,-235,-2063,-2036,-1216,-278,213,406
946,36,-910,-491,928,-437,-1631,-1693,-1332,-810,-324,-20
487,-134,-621,-176,554,-378,-851,-796,-711,-581,-376,-182
144,-79,-223,-32,184,-150,-356,-267,-242,-248,-198,-88
-2,32,33,-15,-18,32,-128,111,113,16,-34,19
-106,-9,97,57,-102,44,-81,168,162,58,-5,36
-88,12,100,38,-94,56,-16,205,209,100,2,54
-83,35,117,23,-100,76,-21,210,206,99,14,56
-61,40,101,10,-81,70,-48,219,227,95,23,56
-101,33,134,34,-118,83,22,231,247,118,27,72
-141,3,144,69,-142,73,37,210,239,106,24,69
-108,33,142,37,-125,87,13,224,244,107,25,70
-121,26,147,47,-134,86,22,247,266,121,33,71
-105,30,135,38,-121,82,8,262,274,128,36,65
-79,54,132,12,-106,93,18,283,292,148,52,75
-108,15,123,46,-116,69,31,309,304,151,69,87
-115,3,118,56,-117,60,20,312,301,149,62,84
-68,42,110,13,-90,76,17,350,339,185,75,85
-31,75,106,-22,-69,91,27,384,354,195,82,86
5,98,93,-52,-44,95,60,423,389,223,100,107
37,112,75,-75,-19,93,53,490,413,251,125,126
57,97,40,-78,8,68,23,516,406,256,132,132
119,120,1,-120,59,60,22,526,430,280,156,156
138,134,-4,-136,71,65,31,528,424,288,158,160
151,133,-19,-142,85,56,17,519,407,282,148,152
180,144,-36,-162,108,54,-41,497,382,251,143,149
177,137,-40,-157,109,48,-54,453,340,224,136,144
178,133,-45,-156,112,44,-47,417,314,205,124,136
134,96,-38,-115,85,29,-48,371,283,182,107,124
124,107,-17,-115,70,45,-32,316,249,161,88,108
104,122,18,-113,43,70,-27,259,211,119,50,76
58,81,23,-70,17,52,-5,207,180,92,22,56
38,72,34,-55,2,53,-2,158,158,78,11,49
-15,51,66,-19,-41,59,-16,107,140,60,-4,40
-27,42,69,-8,-48,55,-30,69,130,46,-15,29
-26,33,59,-4,-42,45,-48,44,111,28,-28,7
-31,27,58,2,-44,42,-57,35,97,19,-50,-8
-74,10,84,32,-79,46,-78,29,93,13,-57,-17
-95,-3,92,49,-93,44,-55,23,98,5,-61,-28
-80,10,90,35,-85,49,-27,16,105,1,-69,-37
-118,-29,90,74,-104,31,-34,10,106,-11,-70,-41
-110,-19,91,64,-100,36,-6,27,100,0,-70,-39
-76,13,89,32,-82,50,9,43,100,7,-70,-44
-46,32,78,7,-62,55,8,38,127,12,-70,-45
-115,-11,104,63,-109,46,-6,38,129,26,-70,-45
-162,-55,106,108,-134,25,-19,33,124,24,-65,-38
-98,-6,92,52,-95,43,22,32,123,16,-58,-30
-114,-20,94,67,-104,37,37,29,115,14,-54,-23
-125,-33,92,79,-109,30,13,20,119,10,-45,-12
-115,-13,103,64,-109,45,10,5,101,2,-51,-16
-94,11,105,42,-100,58,2,-18,110,35,-58,-21
-106,8,114,49,-110,60,-3,-41,83,30,-63,-21
-119,-12,107,65,-113,47,-23,-47,99,42,-57,-19
-110,2,112,54,-111,56,-11,-54,66,27,-63,-22
-114,-3,111,59,-113,53,-11,-68,92,42,-57,-22
-210,-76,134,143,-172,29,75,102,156,29,-66,-64
-221,-127,95,174,-158,-16,360,390,384,133,-16,-49
392,114,-278,-253,335,-82,-207,-213,562,588,358,257
1030,387,-643,-708,836,-128,-1564,-1927,-675,157,425,453
1026,202,-824,-614,925,-311,-1907,-2436,-1629,-761,-148,112
646,-104,-750,-271,698,-427,-1152,-1414,-1101,-802,-473,-235
249,-113,-362,-67,306,-237,-466,-613,-489,-408,-304,-199
5,-52,-57,24,32,-55,-138,-126,-31,-74,-97,-77
-82,-3,79,42,-80,37,-4,53,129,45,-21,-22
-99,6,106,46,-103,56,36,52,149,73,-12,-18
-141,-28,113,85,-127,42,53,57,162,90,1,-22
-152,-42,110,97,-131,33,49,32,153,82,-6,-18
-142,-44,98,93,-120,27,50,29,163,85,-16,-17
-93,3,96,45,-95,50,50,39,172,106,25,-5
-119,-34,85,77,-102,25,49,55,200,128,37,-11
-126,-35,91,80,-108,28,51,57,194,126,33,-17
-97,-30,68,63,-82,19,49,80,199,122,28,-14
-78,-31,47,55,-63,8,50,105,212,127,27,-9
-39,19,59,10,-49,39,50,144,242,151,56,0
-62,2,64,29,-63,33,49,167,260,180,75,23
-5,51,56,-24,-31,53,56,209,292,221,115,57
-1,53,54,-26,-28,53,62,243,315,227,121,62
-3,27,30,-13,-16,28,57,267,326,239,124,59
63,59,-4,-61,34,27,55,305,345,254,140,62
67,51,-17,-59,41,17,52,331,351,260,144,78
87,63,-25,-75,56,19,50,357,359,281,167,93
155,89,-67,-122,111,11,45,360,342,283,174,95
194,85,-109,-139,151,-12,31,363,335,293,165,89
179,76,-103,-127,141,-13,20,338,326,271,160,83
182,73,-108,-127,145,-17,-14,291,278,226,151,77
175,55,-120,-115,147,-32,-57,262,247,205,134,58
156,71,-85,-114,121,-7,-68,208,211,190,121,47
92,42,-50,-67,70,-3,-69,130,173,160,87,12
60,42,-18,-51,38,12,-62,73,152,145,72,-12
38,72,33,-55,2,52,-47,1,117,113,52,-26
-84,-33,51,58,-67,10,-39,-89,67,59,21,-56
-130,-74,56,102,-93,-9,-32,-140,38,39,1,-74
-138,-76,62,107,-99,-7,-32,-169,41,2,-50,-102
-131,-78,53,104,-92,-12,-4,-175,40,-16,-60,-108
-91,-36,55,63,-73,10,43,-168,40,4,-45,-99
-99,-54,45,77,-72,-5,47,-172,40,12,-42,-102
-128,-67,61,97,-94,-3,41,-168,40,32,-31,-93
-143,-64,80,103,-111,8,66,-164,41,38,-28,-97
-126,-59,67,92,-97,4,56,-153,40,40,-19,-119
-123,-65,58,94,-90,-4,12,-147,42,41,-15,-126
-117,-67,51,92,-84,-8,-34,-140,35,38,-6,-118
-84,-12,72,48,-78,30,-38,-130,54,56,13,-111
-83,-3,79,43,-81,38,-16,-135,71,67,14,-118
-135,-68,67,101,-101,0,-38,-138,55,59,7,-127
-133,-69,64,101,-98,-2,-38,-158,44,50,2,-145
-109,-55,55,82,-82,0,-19,-172,7,27,-3,-157
-139,-88,51,113,-95,-18,-18,-189,-2,17,-10,-155
-124,-69,54,96,-89,-7,-2,-196,5,25,-16,-166
-124,-69,55,96,-90,-7,18,-196,-9,11,-21,-166
-127,-72,55,99,-91,-8,16,-194,29,43,3,-150
-122,-67,55,94,-88,-6,4,-195,23,50,2,-154
-152,-97,56,124,-104,-20,-2,-209,36,58,-7,-177
-139,-88,50,113,-94,-19,35,-192,-5,25,-8,-188
-112,-60,52,86,-81,-4,-6,-190,32,34,-1,-177
-235,-103,132,169,-184,15,103,-12,93,30,-23,-190
-154,-113,41,133,-97,-36,364,273,369,213,51,-155
466,156,-310,-311,388,-77,-278,-470,469,682,489,178
925,356,-569,-641,747,-106,-1548,-2213,-919,104,477,336
867,120,-747,-493,807,-313,-1795,-2527,-1758,-800,-149,-62
511,-172,-683,-169,597,-427,-1043,-1440,-1135,-771,-432,-405
132,-204,-337,36,235,-270,-408,-698,-572,-412,-293,-377
-51,-125,-74,88,12,-99,-87,-246,-125,-71,-62,-227
-139,-102,37,120,-88,-32,36,-88,28,43,34,-172
-147,-85,62,116,-104,-11,47,-69,61,61,41,-176
-113,-58,54,85,-83,-2,55,-33,84,70,40,-161
-120,-55,65,87,-92,5,32,-44,82,84,46,-155
-116,-20,96,68,-105,38,31,-23,123,122,86,-147
-130,-46,84,88,-107,19,18,-27,111,116,81,-135
-105,-29,77,67,-91,23,21,-16,125,125,73,-138
-69,-7,62,37,-65,27,64,-17,134,130,93,-167
-108,-50,59,79,-83,4,70,-24,132,139,94,-174
-98,-16,82,57,-90,33,65,11,132,165,98,-144
-113,-62,51,87,-82,-5,20,36,144,158,110,-137
-84,-35,49,59,-67,7,35,66,175,173,121,-148
-45,-1,44,23,-44,21,92,106,205,205,129,-138
-83,-59,24,71,-53,-17,74,131,221,205,127,-126
-61,-50,11,55,-36,-19,58,184,250,241,171,-114
-12,-38,-26,25,7,-32,49,212,266,251,181,-103
33,-12,-45,-10,39,-28,46,251,277,261,183,-77
82,24,-58,-52,69,-17,16,295,315,301,223,-60
124,59,-65,-91,94,-4,30,285,313,302,218,-74
130,56,-74,-92,102,-9,57,278,281,282,208,-65
178,83,-95,-130,136,-6,30,267,256,271,201,-66
211,96,-116,-153,163,-10,29,258,231,257,193,-81
156,38,-118,-97,137,-40,23,215,207,210,161,-101
102,-10,-112,-45,107,-61,20,167,161,177,134,-140
67,-25,-92,-20,80,-59,22,119,114,160,134,-147
10,-39,-49,15,30,-44,7,44,72,120,90,-172
-22,-39,-17,31,-2,-28,23,-19,29,76,47,-195
-32,-24,8,28,-20,-8,19,-81,1,45,23,-205
-104,-78,25,91,-64,-26,17,-127,-19,31,5,-230
-134,-95,39,115,-86,-28,-4,-163,-37,20,-4,-232
-94,-55,38,74,-66,-8,-6,-177,-52,14,-16,-235
-104,-71,33,87,-68,-19,1,-173,-53,1,-24,-235
-112,-83,30,97,-71,-26,-43,-182,-65,-23,-46,-256
-49,-26,23,37,-35,-2,36,-175,-63,-17,-53,-264
-85,-40,45,62,-65,3,30,-147,-45,-2,-38,-247
-126,-87,39,106,-82,-24,12,-118,-36,18,-33,-247
-68,-69,-1,68,-33,-34,26,-106,-25,34,-27,-244
-64,-74,-10,70,-27,-42,-37,-101,-24,26,-27,-246
-80,-82,-1,81,-39,-42,-22,-103,-10,25,-20,-258
-77,-73,4,74,-40,-34,-15,-106,-10,20,-22,-261
-96,-100,-5,98,-45,-52,21,-107,-21,17,-50,-259
-101,-115,-15,108,-43,-65,26,-111,-20,13,-58,-256
-78,-103,-25,91,-26,-64,-3,-111,-31,8,-53,-255
-77,-107,-29,92,-24,-68,-9,-117,-48,1,-56,-254
-79,-99,-20,89,-29,-59,-29,-138,-64,-8,-55,-250
-77,-92,-15,85,-31,-53,-38,-140,-63,-9,-55,-250
-77,-85,-7,81,-35,-46,-6,-151,-72,-27,-64,-251
-68,-69,0,69,-34,-34,-2,-156,-66,-19,-61,-248
-58,-68,-11,63,-23,-39,-27,-152,-87,-32,-70,-252
-47,-63,-16,55,-15,-39,-40,-171,-67,-26,-55,-243
-70,-85,-16,78,-27,-50,-15,-177,-96,-47,-65,-237
-68,-60,8,64,-38,-26,-7,-169,-59,-16,-83,-227
-191,-107,85,149,-138,-11,97,11,5,-16,-105,-274
-162,-174,-12,168,-75,-93,371,331,278,127,-43,-251
462,106,-356,-284,409,-125,-260,-212,509,649,389,90
1031,362,-669,-697,850,-153,-1603,-1845,-759,206,456,290
1052,188,-864,-620,957,-337,-1846,-2320,-1724,-734,-124,-48
641,-155,-796,-243,719,-476,-1090,-1374,-1211,-805,-469,-418
242,-208,-450,-16,347,-329,-461,-656,-660,-481,-361,-422
53,-93,-146,20,100,-119,-139,-188,-208,-150,-149,-293
-24,-49,-26,37,1,-37,3,-24,-58,-29,-78,-235
-29,-25,4,27,-16,-10,48,-5,-32,-9,-73,-215
-87,-77,10,82,-48,-34,47,24,-3,16,-55,-204
-64,-69,-5,67,-29,-37,41,14,-3,27,-39,-194
-60,-46,14,53,-37,-16,34,39,38,41,-29,-195
-37,-14,23,25,-30,4,33,43,30,32,-30,-192
-9,2,11,3,-10,7,49,65,58,55,-22,-187
-95,-83,11,89,-52,-36,46,42,45,66,-40,-205
-75,-74,1,74,-37,-37,44,68,60,75,-47,-209
-77,-78,-1,78,-38,-39,33,100,85,71,-35,-196
-34,-46,-12,40,-10,-29,59,124,103,86,-22,-175
11,-21,-32,5,22,-27,62,164,126,103,-10,-144
-39,-63,-24,52,-7,-44,54,183,132,111,13,-128
26,3,-23,-14,24,-10,86,232,176,148,46,-121
19,-25,-44,3,32,-34,69,235,181,150,45,-116
31,-26,-56,-2,44,-41,54,264,202,174,71,-81
120,53,-67,-86,93,-6,52,326,243,208,97,-57
139,46,-93,-92,116,-23,41,336,232,200,93,-55
173,51,-122,-112,147,-35,43,353,226,195,96,-48
179,45,-134,-112,156,-45,56,357,216,187,95,-43
192,44,-148,-117,169,-52,49,354,203,181,95,-37
209,65,-144,-137,176,-39,31,334,180,169,96,-41
141,8,-133,-74,137,-62,27,288,139,148,83,-54
143,16,-127,-80,136,-55,41,240,103,121,52,-72
146,28,-118,-87,132,-45,33,177,67,80,28,-79
83,-25,-108,-29,96,-66,11,106,21,40,-3,-94
60,-28,-88,-16,74,-58,-7,19,-24,0,-43,-127
33,-30,-63,-1,48,-46,-34,-53,-69,-27,-60,-138
23,-29,-52,4,37,-40,-18,-81,-96,-40,-68,-138
-18,-64,-47,41,15,-55,-39,-110,-114,-75,-98,-160
-21,-59,-38,40,9,-49,-52,-126,-125,-87,-111,-171
-46,-80,-34,63,-6,-57,-29,-114,-115,-80,-99,-162
-63,-87,-24,75,-19,-55,-24,-110,-109,-79,-95,-160
-23,-58,-34,41,6,-46,-12,-103,-104,-74,-86,-154
-51,-93,-41,72,-4,-67,-1,-89,-87,-83,-82,-150
-66,-82,-17,74,-24,-49,26,-63,-68,-68,-79,-151
-76,-84,-8,81,-34,-46,26,-59,-70,-53,-81,-156
-89,-109,-19,99,-35,-64,14,-69,-68,-60,-99,-163
-82,-109,-27,96,-27,-68,8,-70,-62,-60,-100,-166
-60,-82,-22,71,-18,-52,-7,-70,-61,-60,-95,-164
-22,-42,-20,32,-1,-31,-16,-66,-53,-55,-94,-161
-18,-35,-17,27,-1,-25,-28,-66,-60,-55,-90,-160
-42,-57,-14,50,-14,-35,-28,-62,-66,-54,-90,-159
-44,-68,-24,56,-10,-46,-22,-72,-76,-59,-91,-161
-61,-83,-22,72,-19,-52,-22,-95,-92,-70,-89,-158
-83,-97,-13,90,-35,-55,-13,-115,-98,-81,-100,-169
-81,-89,-9,85,-36,-49,-17,-127,-102,-86,-111,-175
-72,-71,1,71,-36,-35,-1,-124,-95,-78,-99,-159
-57,-54,2,55,-29,-26,-5,-125,-103,-78,-85,-165
-80,-73,7,76,-43,-33,-6,-125,-107,-71,-76,-164
-101,-85,16,93,-58,-34,18,-125,-103,-70,-88,-159
-71,-64,7,67,-39,-28,9,-132,-108,-83,-97,-158
-66,-62,4,64,-35,-28,-14,-135,-110,-84,-94,-154
-46,-54,-8,51,-19,-31,-80,-135,-110,-89,-93,-154
-25,-50,-26,38,1,-38,-74,-134,-105,-95,-89,-148
-33,-55,-22,44,-6,-38,-41,-136,-105,-92,-91,-148
-39,-52,-13,45,-12,-32,-40,-133,-97,-83,-92,-141
-80,-89,-9,85,-36,-48,-32,-145,-112,-100,-105,-156
-104,-104,0,104,-52,-51,-47,-162,-130,-115,-111,-169
-109,-105,4,107,-56,-50,-33,-155,-117,-96,-93,-151
-74,-78,-5,76,-34,-41,-8,-150,-114,-95,-88,-147
-64,-66,-1,65,-31,-33,1,-147,-109,-91,-94,-141
-102,-109,-7,105,-47,-57,-11,-139,-107,-89,-100,-136
-87,-109,-22,99,-33,-66,0,-146,-102,-86,-100,-129
-79,-100,-22,90,-28,-61,2,-155,-100,-85,-103,-127
-66,-89,-23,78,-21,-56,-24,-158,-114,-104,-106,-135
-70,-82,-12,76,-29,-47,-58,-169,-115,-103,-102,-135
-94,-77,18,85,-56,-29,-73,-167,-113,-101,-97,-135
-82,-54,28,68,-55,-13,-68,-158,-106,-95,-90,-134
-94,-71,23,82,-58,-24,-77,-153,-110,-94,-87,-136
-124,-98,26,111,-75,-36,-72,-146,-100,-87,-78,-133
-118,-100,18,109,-68,-41,-47,-140,-103,-87,-76,-130
-109,-88,22,99,-65,-33,-54,-130,-83,-81,-85,-125
-114,-97,17,105,-66,-40,-41,-131,-87,-77,-91,-123
-91,-85,6,88,-48,-39,30,-151,-91,-79,-90,-118
-95,-61,34,78,-64,-13,11,-114,-65,-62,-83,-114
-106,-63,43,84,-74,-10,19,-123,-89,-82,-89,-121
-129,-49,80,89,-105,16,102,-85,-12,-64,-90,-123
-234,-152,83,193,-158,-34,326,233,91,-56,-128,-159
145,19,-127,-82,136,-54,165,327,601,442,195,67
889,410,-479,-649,683,-34,-1086,-772,198,668,611,453
1132,304,-828,-718,980,-262,-1971,-2063,-1303,-305,213,316
961,18,-943,-490,952,-462,-1500,-1726,-1427,-852,-327,-116
552,-126,-679,-213,616,-402,-766,-880,-852,-638,-385,-264
146,-156,-302,6,224,-229,-310,-392,-431,-358,-257,-207
-45,-89,-44,67,0,-66,-65,-34,-83,-119,-111,-133
-108,-51,57,79,-82,3,13,14,-41,-65,-75,-104
-77,-8,69,42,-73,30,74,60,20,-41,-65,-94
-124,-50,74,87,-99,12,73,70,33,-34,-52,-79
-158,-89,69,123,-113,-9,85,67,49,-24,-50,-71
-158,-88,70,123,-113,-9,115,84,69,-18,-41,-62
-127,-60,66,93,-96,3,102,99,70,-9,-41,-54
-95,-32,63,63,-79,15,135,127,96,12,-32,-45
-110,-41,69,75,-90,14,137,139,116,31,-24,-37
-98,-14,83,56,-91,34,119,150,125,40,-16,-28
-132,-51,82,92,-107,15,115,151,136,43,-6,-19
-114,-42,73,78,-93,15,101,178,160,56,8,-6
-67,3,70,32,-68,36,90,194,174,64,22,5
-26,36,62,-5,-45,49,67,228,221,93,43,19
-65,-3,61,34,-63,29,52,254,236,95,45,27
-72,-14,59,43,-65,22,99,286,249,115,59,49
16,79,63,-47,-24,70,158,341,299,161,106,98
-7,34,41,-14,-24,37,155,365,300,157,118,108
50,42,-9,-46,29,17,141,390,307,173,113,109
114,91,-23,-102,68,34,134,407,318,188,126,122
80,46,-34,-63,57,5,120,406,310,177,134,125
107,51,-56,-78,81,-2,109,394,301,170,129,134
154,93,-61,-123,107,16,93,383,283,160,122,132
201,113,-88,-156,144,12,55,369,257,154,118,124
190,96,-94,-143,141,1,43,329,220,139,111,118
132,60,-73,-96,102,-6,28,286,180,111,94,111
94,23,-71,-59,82,-23,1,232,141,74,64,91
46,10,-35,-28,41,-13,30,162,117,39,38,74
51,50,-1,-50,26,24,59,121,99,20,23,66
13,35,22,-24,-5,28,74,85,76,10,14,47
-78,-34,44,56,-61,5,86,48,59,-21,-12,32
-95,-58,37,76,-66,-10,82,32,42,-48,-43,13
-119,-77,43,98,-81,-17,78,18,31,-43,-47,-5
-105,-72,33,88,-69,-19,90,5,29,-56,-44,-1
-43,-5,38,24,-41,17,104,-5,26,-66,-37,11
-103,-36,67,69,-85,16,91,-19,22,-65,-48,12
-125,-65,60,95,-92,-3,76,-22,21,-64,-60,6
-123,-52,71,87,-97,9,61,-15,18,-59,-51,1
-152,-69,83,111,-117,7,47,-5,25,-61,-47,-2
-103,-24,79,63,-91,27,59,1,42,-57,-40,-8
-147,-46,101,96,-123,27,93,18,52,-48,-44,-9
-149,-38,111,94,-130,36,116,41,64,-39,-45,-1
-142,-36,106,89,-124,35,96,34,62,-37,-46,5
-119,-18,101,68,-110,42,122,28,56,-29,-49,13
-107,-23,85,65,-96,31,150,21,53,-33,-50,9
-150,-80,70,115,-109,-5,122,14,47,-48,-49,-3
-115,-47,69,81,-92,10,123,9,43,-50,-32,-15
-139,-68,71,104,-105,1,117,-19,33,-76,-44,-23
-113,-43,70,78,-91,13,109,-24,20,-92,-58,-18
-126,-56,70,91,-98,7,72,-29,8,-89,-46,-11
-152,-82,71,117,-111,-5,31,-56,-13,-89,-46,-4
-148,-81,67,114,-107,-7,26,-72,-38,-97,-40,2
-120,-54,66,87,-92,6,31,-82,-38,-102,-34,10
-89,-28,60,58,-74,16,72,-79,-23,-89,-48,6
-130,-67,63,98,-96,-2,77,-76,-17,-81,-56,1
-86,-7,79,47,-82,35,74,-71,-2,-77,-48,15
-98,-4,94,51,-96,44,94,-65,1,-74,-45,12
-139,-47,92,93,-115,22,94,-64,1,-71,-40,4
-144,-59,85,101,-114,13,97,-55,7,-66,-35,-2
-155,-48,107,101,-130,29,100,-61,-2,-65,-39,-11
-147,-52,95,99,-120,21,93,-79,-15,-77,-39,-17
-151,-82,69,117,-110,-7,72,-84,-27,-85,-34,-24
-139,-68,71,103,-104,1,85,-89,-30,-90,-44,-25
-148,-78,70,113,-109,-4,78,-116,-36,-96,-60,-26
-145,-75,70,110,-107,-2,41,-127,-46,-82,-54,-29
-137,-67,70,102,-103,2,49,-124,-56,-84,-51,-31
-131,-61,70,96,-100,4,41,-114,-42,-68,-44,-30
-135,-54,81,94,-108,13,57,-103,-58,-70,-38,-37
-146,-48,98,96,-122,25,41,-109,-43,-78,-38,-34
-142,-55,87,98,-114,16,60,-91,-49,-104,-51,-41
-156,-51,105,104,-130,27,99,-105,-17,-101,-45,-39
-254,-84,170,169,-212,43,213,44,42,-88,-64,-53
-280,-175,105,227,-193,-34,497,386,282,35,-38,-53
344,131,-213,-237,278,-41,-81,64,631,579,395,265
1058,443,-615,-750,836,-86,-1431,-1416,-437,287,534,500
1088,188,-900,-638,994,-356,-1791,-2166,-1563,-710,-56,161
770,-94,-863,-338,816,-478,-1070,-1378,-1183,-851,-414,-199
300,-183,-483,-58,392,-333,-443,-656,-652,-558,-326,-220
1,-113,-115,56,58,-114,-113,-189,-201,-245,-140,-110
-64,6,71,29,-67,38,80,65,19,-64,-35,-39
-121,-8,113,64,-117,52,114,77,36,-51,-15,-18
-137,-26,111,82,-124,42,107,107,86,-22,-1,-8
-167,-44,123,105,-145,39,118,99,79,-31,-3,-7
-167,-41,125,103,-146,42,141,100,104,-18,4,2
-185,-60,126,122,-155,32,165,99,99,-19,4,4
-184,-61,122,122,-153,30,178,136,120,-7,28,16
-151,-32,120,92,-135,44,204,178,147,23,41,37
-143,-23,120,83,-132,48,224,192,157,41,43,41
-120,-4,116,61,-117,56,216,198,173,54,55,39
-141,-31,110,86,-125,39,204,207,183,56,57,39
-95,10,105,43,-100,57,195,228,180,61,73,50
-48,51,100,-2,-74,75,178,243,193,77,82,61
-81,12,92,34,-87,52,157,260,209,93,91,68
-91,1,93,45,-92,47,149,289,220,100,103,76
-42,47,88,-2,-65,67,130,329,255,128,121,93
17,75,58,-46,-21,66,135,366,272,155,143,111
17,57,40,-37,-11,48,182,396,282,172,162,124
43,71,28,-57,7,49,189,418,280,176,169,138
81,88,7,-85,37,47,190,417,267,164,158,147
90,77,-13,-83,51,31,198,405,263,157,154,145
114,62,-52,-88,83,5,192,397,251,146,145,132
133,65,-68,-99,100,-1,192,391,233,140,140,119
120,60,-60,-90,89,0,186,354,194,119,133,101
95,45,-50,-69,72,-3,169,289,146,82,119,87
57,36,-21,-46,39,7,140,198,94,38,90,74
-22,-11,11,16,-17,0,108,103,52,6,51,58
-66,-29,37,47,-51,4,91,51,23,-21,28,42
-82,-26,55,54,-68,14,95,10,-13,-55,14,27
-114,-46,69,79,-91,11,98,-23,-30,-56,-3,18
-88,-27,61,57,-74,17,80,-54,-42,-73,-22,9
-115,-57,58,85,-86,1,98,-58,-39,-82,-26,1
-177,-102,75,139,-126,-13,127,-49,-33,-72,-24,-11
-122,-57,65,89,-94,4,155,-44,-38,-74,-25,-19
-111,-37,75,73,-93,19,189,-32,-17,-66,-25,-12
-139,-36,103,87,-120,33,190,-23,-2,-66,-25,-6
-128,-26,102,77,-115,38,213,-12,10,-68,-25,-12
-174,-63,110,118,-142,23,228,-4,11,-73,-26,-20
-153,-31,121,92,-137,45,236,5,1,-73,-24,-19
-166,-48,119,107,-142,35,233,-15,-8,-83,-30,-25
-225,-111,114,167,-169,1,240,-18,-15,-105,-41,-36
-218,-96,122,156,-169,12,244,-16,-15,-106,-41,-35
-214,-88,126,150,-169,19,160,-48,-37,-107,-38,-35
-187,-58,130,122,-158,36,116,-77,-55,-112,-36,-36
-203,-66,137,134,-170,36,113,-95,-56,-105,-33,-34
-218,-92,126,154,-172,17,92,-109,-61,-108,-40,-39
-178,-63,115,120,-146,26,108,-122,-79,-126,-53,-49
-168,-58,111,113,-139,26,129,-113,-75,-114,-42,-40
-181,-80,101,130,-140,10,120,-98,-68,-100,-29,-29
-142,-46,95,94,-118,24,155,-97,-65,-94,-25,-25
-131,-45,86,88,-108,20,165,-93,-56,-87,-17,-20
-169,-86,83,127,-126,-1,129,-95,-59,-87,-16,-19
-184,-82,102,133,-142,9,171,-87,-44,-76,-8,-12
-177,-82,95,129,-136,6,202,-93,-53,-81,-7,-11
-170,-69,101,119,-135,16,202,-88,-35,-68,-12,-17
-183,-64,119,124,-150,27,213,-92,-57,-84,-30,-30
-180,-61,119,120,-150,29,202,-122,-57,-75,-21,-20
-190,-82,108,136,-149,13,189,-123,-83,-103,-27,-35
-212,-95,117,153,-164,11,165,-147,-81,-106,-30,-39
-308,-115,193,211,-250,38,243,-23,-15,-72,-32,-50
-315,-172,143,243,-229,-15,484,296,173,-5,-35,-73
272,75,-197,-173,234,-61,34,-22,487,479,345,205
930,338,-592,-634,761,-127,-1296,-1622,-550,216,497,443
1014,182,-832,-597,923,-325,-1818,-2458,-1703,-761,-49,149
702,-94,-796,-304,750,-445,-1101,-1556,-1320,-912,-419,-214
284,-160,-445,-62,365,-302,-392,-701,-709,-565,-309,-234
3,-84,-87,41,45,-85,0,-188,-229,-218,-84,-99
-159,-73,86,116,-122,7,202,61,-21,-55,-2,-22
-185,-66,119,125,-152,26,218,69,-10,-58,-4,-13
-196,-85,111,140,-153,13,237,89,10,-43,20,-8
-228,-104,125,166,-176,10,240,73,13,-48,38,0
-219,-76,143,147,-181,34,245,84,47,-32,38,6
-227,-81,146,153,-186,32,260,79,39,-12,45,9
-232,-80,152,156,-192,36,253,78,59,-13,55,4
-236,-78,158,157,-197,39,252,81,54,-9,57,9
-228,-84,144,156,-186,30,235,96,58,-2,52,19
-208,-73,136,140,-172,31,238,124,82,25,58,37
-215,-83,132,149,-173,25,203,142,88,47,80,42
-165,-39,126,101,-145,44,159,178,116,58,93,47
-107,17,124,44,-115,70,217,238,159,98,123,70
-87,30,117,28,-102,73,269,281,186,128,149,85
-64,31,95,16,-80,63,288,299,197,143,152,103
-78,10,89,34,-84,49,287,328,202,148,150,107
-33,21,54,6,-44,38,276,371,219,170,169,103
2,22,20,-12,-9,21,273,386,222,187,184,110
28,38,10,-33,9,24,263,387,206,177,182,113
51,42,-9,-47,30,16,258,381,203,171,188,125
80,55,-25,-67,53,14,219,375,189,161,184,127
124,82,-43,-103,83,19,197,360,181,155,178,114
103,71,-33,-86,68,19,201,321,153,144,169,106
83,65,-18,-73,50,23,199,267,111,115,161,94
48,56,8,-52,20,32,201,203,84,93,153,86
1,49,48,-25,-24,48,198,134,45,68,121,74
-35,38,73,-1,-54,55,202,57,19,19,87,60
-76,12,89,32,-83,50,193,1,-31,-12,62,28
-136,-45,91,90,-113,23,204,-75,-94,-49,37,-6
-144,-56,88,100,-116,16,235,-125,-103,-77,18,-32
-148,-61,87,104,-118,12,230,-132,-113,-86,8,-50
-163,-80,83,121,-122,1,221,-152,-126,-101,-5,-46
-156,-68,88,112,-122,10,217,-149,-125,-100,-13,-65
-176,-79,97,128,-136,9,207,-153,-125,-100,-9,-75
-170,-67,103,118,-136,18,207,-156,-125,-101,-5,-70
-161,-35,126,98,-143,45,226,-146,-126,-99,1,-64
-181,-43,138,112,-160,48,232,-143,-121,-104,-12,-69
-209,-77,132,143,-170,27,231,-133,-107,-100,-20,-84
-196,-57,139,126,-167,41,237,-128,-92,-83,5,-72
-148,10,158,69,-153,84,234,-118,-86,-78,28,-64
-137,24,161,57,-149,92,235,-106,-82,-80,35,-50
-210,-51,160,131,-185,54,235,-128,-98,-81,35,-61
-196,-36,159,116,-177,61,231,-132,-102,-85,35,-87
-126,17,143,54,-135,80,244,-144,-101,-85,35,-84
-166,-36,129,101,-147,46,243,-176,-125,-91,35,-86
-155,-35,120,95,-137,42,239,-175,-117,-87,32,-90
-132,-20,112,76,-122,46,258,-175,-124,-87,19,-90
-156,-54,102,105,-129,24,261,-185,-143,-103,9,-87
-177,-81,96,128,-137,8,259,-200,-146,-112,-4,-99
-180,-77,103,128,-141,13,256,-209,-157,-114,-15,-107
-171,-61,110,116,-141,25,254,-214,-157,-116,-12,-104
-168,-54,114,111,-140,29,259,-226,-154,-114,-5,-106
-207,-69,138,138,-172,34,276,-230,-155,-116,-2,-105
-243,-82,161,162,-202,39,272,-233,-158,-115,7,-105
-208,-59,149,134,-179,45,212,-269,-184,-111,7,-110
-196,-56,140,125,-168,42,172,-284,-188,-106,8,-104
-171,-39,132,104,-151,46,169,-265,-172,-95,14,-111
-149,-16,133,82,-141,58,171,-285,-183,-107,16,-131
-190,-54,135,121,-162,40,168,-293,-191,-115,11,-129
-149,-14,134,81,-141,60,176,-297,-189,-108,9,-132
-129,7,136,61,-132,71,181,-294,-168,-91,35,-134
-171,-37,134,104,-152,48,177,-293,-184,-104,30,-137
-129,6,136,61,-133,71,201,-301,-158,-82,32,-135
-127,-19,107,73,-117,44,224,-278,-174,-96,19,-144
-126,-11,115,68,-120,52,214,-287,-143,-78,25,-135
-242,-44,198,143,-219,76,340,-127,-94,-72,1,-162
-279,-131,147,205,-213,8,597,167,127,30,35,-160
323,129,-194,-226,259,-32,88,-313,415,551,456,156
926,388,-538,-657,731,-75,-1221,-1931,-734,191,549,368
953,221,-733,-587,843,-256,-1631,-2584,-1806,-783,-13,49
632,-90,-722,-271,677,-406,-892,-1642,-1366,-894,-372,-320
211,-161,-372,-24,292,-266,-256,-863,-802,-577,-286,-339
-14,-60,-46,38,16,-53,32,-398,-350,-242,-68,-216
-109,-23,85,66,-97,31,176,-194,-173,-87,47,-149
-163,-18,145,90,-154,63,191,-178,-149,-83,59,-133
-176,-21,155,98,-165,67,180,-135,-105,-58,78,-130
-193,-37,157,114,-175,60,213,-151,-125,-53,89,-121
-182,-30,152,105,-167,61,246,-132,-81,-24,88,-112
-152,1,153,75,-152,77,258,-112,-57,2,91,-108
-126,36,162,45,-145,99,286,-84,-54,3,104,-124
-163,-10,153,86,-158,72,290,-83,-56,1,112,-122
-190,-49,141,119,-165,45,265,-79,-47,5,108,-115
-133,9,142,62,-137,75,300,-47,-27,25,109,-113
-119,15,134,52,-127,74,327,-24,-9,35,101,-107
-119,0,119,60,-119,59,314,-8,6,43,120,-104
-121,-8,113,64,-116,52,345,20,23,64,139,-90
-129,-23,106,75,-117,41,324,49,34,74,145,-76
-48,50,98,-1,-73,74,291,70,63,112,173,-65
-20,71,91,-26,-56,81,288,85,76,127,184,-55
-9,74,83,-33,-46,78,273,116,89,132,200,-45
44,107,63,-76,-10,85,262,160,109,168,231,-35
40,81,42,-61,-1,61,245,188,98,174,243,-32
53,78,25,-66,14,51,237,176,85,165,245,-36
95,86,-10,-90,53,37,227,159,75,155,238,-34
124,82,-42,-103,83,20,228,144,66,145,234,-49
127,80,-47,-103,87,16,253,127,46,129,222,-55
105,68,-37,-86,71,16,271,107,14,97,187,-61
81,62,-19,-71,50,21,256,55,-36,68,161,-77
72,71,-1,-71,36,35,265,13,-57,32,152,-77
23,39,16,-32,4,27,292,-63,-96,-9,130,-116
-66,-9,57,37,-61,24,298,-140,-148,-31,90,-140
-78,21,99,28,-88,60,320,-169,-153,-54,80,-152
-69,41,110,13,-90,75,297,-208,-169,-65,73,-164
-93,34,127,30,-110,80,249,-234,-182,-83,52,-168
-98,29,127,34,-113,78,230,-265,-198,-112,45,-187
-116,2,118,57,-117,60,221,-291,-220,-119,37,-193
-129,-14,115,71,-122,51,229,-298,-237,-129,31,-218
-93,14,108,39,-101,61,221,-293,-237,-125,25,-220
-110,-5,105,57,-107,50,229,-282,-227,-117,16,-212
-164,-59,105,111,-134,23,221,-258,-224,-111,19,-213
-150,-45,104,97,-127,29,192,-234,-216,-104,20,-204
-142,-36,106,88,-123,35,244,-233,-212,-98,22,-208
-131,-27,104,79,-118,38,266,-224,-206,-97,36,-210
-146,-40,105,93,-125,32,262,-225,-202,-110,40,-205
-150,-36,114,92,-131,39,274,-214,-199,-99,31,-200
-132,-24,108,78,-119,42,254,-221,-199,-97,33,-198
-128,-8,120,68,-124,56,247,-239,-200,-101,41,-189
-87,42,128,22,-108,85,239,-246,-200,-99,34,-197
-113,3,116,55,-115,59,241,-288,-224,-120,19,-223
-148,-39,108,93,-128,34,238,-281,-226,-121,13,-231
-149,-48,101,98,-125,26,235,-285,-226,-122,24,-237
-145,-51,94,98,-120,21,233,-327,-244,-139,22,-238
-130,-43,87,87,-108,21,229,-323,-236,-132,17,-233
-126,-44,82,85,-104,19,222,-322,-256,-138,10,-232
-107,-36,71,71,-89,17,193,-320,-252,-131,6,-227
-108,-30,78,69,-92,24,227,-314,-254,-138,-1,-225
-104,-30,75,67,-89,22,257,-318,-248,-130,-6,-227
-139,-59,80,99,-109,10,240,-316,-244,-128,-7,-252
-138,-33,105,85,-122,36,241,-333,-251,-135,4,-257
-135,-27,108,81,-121,40,188,-329,-239,-121,9,-253
-166,-60,106,113,-135,22,171,-343,-267,-160,-16,-268
-152,-22,129,87,-140,53,234,-286,-181,-102,2,-249
-263,-121,142,192,-202,11,477,7,-92,-119,-56,-299
50,-32,-82,-9,66,-57,452,45,324,271,190,-142
780,315,-465,-548,623,-75,-684,-1184,-136,471,571,217
1063,304,-759,-683,911,-227,-1709,-2561,-1630,-477,215,116
849,-7,-856,-421,853,-432,-1322,-2145,-1746,-1010,-331,-307
447,-177,-624,-135,536,-400,-548,-1162,-1098,-768,-401,-468
128,-121,-250,-3,189,-185,-55,-591,-595,-420,-194,-366
-56,-51,5,53,-30,-23,226,-228,-247,-150,-33,-268
-93,-11,82,51,-87,35,269,-160,-203,-101,2,-223
-105,-24,81,64,-93,29,269,-120,-145,-70,19,-207
-110,-28,82,69,-96,27,256,-139,-151,-69,12,-212
-71,2,74,34,-73,38,251,-144,-138,-63,10,-206
-120,-47,73,83,-96,13,258,-128,-132,-57,9,-205
-140,-75,65,107,-102,-5,263,-127,-128,-55,2,-205
-128,-61,67,94,-97,3,266,-121,-118,-49,12,-201
-104,-28,76,66,-90,24,264,-107,-116,-51,31,-194
-96,-13,84,54,-90,35,276,-81,-106,-51,37,-188
-102,-26,76,64,-89,25,262,-64,-100,-43,39,-181
-114,-30,85,72,-99,27,264,-31,-74,-11,47,-174
-101,-26,75,64,-87,24,304,9,-44,17,65,-168
-70,14,84,28,-77,49,323,59,0,48,94,-154
-9,58,68,-25,-39,63,320,105,36,58,119,-130
