I,II,III,aVR,aVL,aVF,V1,V2,V3,V4,V5,V6
-61,-55,6,58,-33,-24,45,35,65,11,1,-15
-69,-54,15,61,-42,-19,45,35,65,20,11,-15
-66,-50,17,57,-41,-16,45,32,65,21,17,-15
-61,-47,14,53,-37,-16,45,29,65,14,9,-11
-57,-42,14,49,-35,-14,45,26,65,11,6,-10
-48,-39,9,44,-29,-15,45,25,65,6,1,-10
-71,-60,11,65,-40,-24,42,20,56,2,-3,-15
-73,-66,7,69,-39,-29,40,12,43,-3,-8,-23
-65,-72,-7,69,-29,-40,40,6,33,-11,-16,-29
-104,-95,9,99,-56,-43,40,-1,26,-17,-22,-36
-115,-93,22,104,-68,-35,40,-8,21,-25,-30,-42
-108,-89,19,98,-63,-35,40,-17,14,-33,-38,-46
-107,-86,21,97,-63,-32,40,-23,11,-39,-44,-44
-100,-80,19,90,-59,-30,40,-33,8,-45,-45,-49
-102,-81,21,92,-61,-30,40,-38,6,-45,-45,-60
-102,-85,18,93,-59,-33,40,-42,2,-45,-45,-60
-102,-88,14,95,-58,-37,40,-54,0,-45,-45,-61
-101,-91,10,96,-55,-41,38,-56,2,-45,-45,-65
-102,-96,7,99,-54,-44,33,-55,6,-43,-43,-65
-92,-90,2,91,-47,-44,30,-55,4,-40,-39,-63
-82,-82,-1,82,-40,-41,27,-55,5,-37,-37,-57
-97,-74,23,86,-60,-25,22,-54,5,-34,-34,-53
-110,-66,44,88,-76,-11,21,-48,4,-31,-31,-48
-96,-59,37,77,-67,-11,24,-40,45,-29,-30,-44
-84,-43,41,64,-63,-1,34,-40,91,-23,-23,-40
-74,-19,56,46,-65,18,45,-40,118,-11,-12,-29
-49,5,54,21,-51,29,29,-40,129,-4,-3,-15
-18,25,43,-4,-31,34,8,-40,124,11,1,-2
8,43,36,-26,-14,39,-1,-40,125,16,-2,-1
12,44,31,-28,-10,37,-24,-59,119,9,5,3
26,44,19,-35,3,31,-44,-61,122,-1,4,3
19,42,23,-31,-2,32,-35,-61,105,-8,6,8
-29,-23,6,26,-17,-9,-7,-58,66,-26,-18,-20
-77,-64,13,70,-45,-25,22,-56,42,-52,-60,-60
-96,-100,-5,98,-45,-52,32,-55,29,-53,-64,-72
-108,-112,-4,110,-52,-58,41,-52,17,-54,-70,-85
-89,-105,-16,98,-37,-60,43,-46,23,-40,-54,-72
-103,-122,-19,112,-42,-70,54,-31,16,-50,-69,-93
-116,-62,54,89,-84,-4,67,-8,43,-18,-31,-44
-26,-138,-113,82,44,-125,99,170,217,71,47,-8
459,184,-275,-321,367,-46,-170,198,566,495,544,464
1094,531,-563,-812,828,-16,-655,-173,708,872,1096,1073
597,192,-405,-395,501,-107,-466,-545,78,239,446,546
-198,-37,161,117,-179,62,32,-587,-509,-402,-277,-136
-256,-193,63,225,-159,-65,167,-379,-401,-373,-274,-219
-192,-244,-52,218,-70,-148,147,-176,-163,-229,-199,-175
-104,-128,-24,116,-40,-75,105,-18,38,-73,-75,-77
-77,-112,-35,95,-21,-73,93,63,117,-27,-33,-49
-62,-78,-16,70,-23,-47,78,83,121,-11,-21,-30
-39,-72,-33,56,-3,-52,71,113,155,7,-2,-23
-41,-60,-20,51,-10,-40,69,137,160,13,-10,-20
-18,-46,-28,33,5,-37,62,158,178,41,9,-7
-8,-35,-27,22,10,-31,60,185,204,51,30,-3
25,-18,-43,-3,34,-30,54,213,230,65,47,13
39,-12,-50,-13,45,-31,50,245,244,74,61,35
54,0,-54,-27,54,-26,42,285,270,106,88,66
84,18,-66,-50,74,-24,36,333,321,139,112,77
105,47,-59,-76,82,-6,29,389,366,163,147,107
145,72,-73,-108,109,-1,23,439,411,204,184,145
191,97,-94,-144,143,1,17,483,465,240,208,157
206,123,-83,-164,145,20,15,516,501,266,240,183
212,137,-75,-174,143,30,15,539,514,286,267,218
218,150,-67,-184,142,41,12,538,516,309,277,243
215,158,-57,-186,135,50,9,489,511,317,284,246
201,153,-48,-177,124,52,12,429,475,285,259,217
156,130,-27,-142,91,51,36,347,382,228,205,172
83,80,-3,-81,43,38,47,260,290,168,160,126
36,42,6,-39,14,24,49,199,221,118,114,77
10,24,14,-18,-2,19,50,142,150,55,54,31
-39,-8,31,23,-35,11,50,108,94,15,18,0
-60,-23,37,41,-49,6,55,97,67,3,7,-17
-49,-18,31,33,-40,6,55,86,63,-13,-4,-20
-50,-21,29,36,-40,4,55,74,62,-15,-16,-21
-43,-19,24,31,-34,2,51,69,58,-14,-22,-26
-41,-20,20,31,-31,0,50,63,56,-19,-21,-25
-36,-18,18,27,-27,0,50,60,53,-20,-17,-25
-18,-13,6,15,-12,-3,56,55,48,-21,-15,-25
-30,-11,19,20,-24,4,70,50,42,-25,-12,-24
-32,-6,26,19,-29,10,68,62,38,-25,-9,-26
-33,-3,29,18,-31,13,63,66,31,-29,-18,-29
-53,2,55,25,-54,28,62,61,27,-30,-30,-32
-69,-14,55,41,-62,21,55,59,20,-32,-41,-35
-78,-23,54,50,-66,15,57,55,10,-36,-45,-35
-51,5,56,23,-53,30,73,55,0,-35,-47,-35
-44,11,55,16,-50,33,76,48,-10,-42,-60,-35
-51,2,53,24,-52,28,75,40,-20,-50,-60,-36
-46,0,46,23,-46,23,75,34,-29,-56,-60,-34
-49,-8,41,28,-45,16,75,26,-30,-63,-60,-36
-49,-12,37,31,-43,12,74,19,-31,-65,-60,-45
-44,-15,28,29,-35,6,69,12,-35,-65,-59,-46
-44,-15,29,29,-36,7,71,10,-37,-65,-55,-44
-63,-15,48,39,-55,16,67,7,-40,-65,-55,-42
-67,-15,52,41,-59,18,65,4,-43,-65,-55,-39
-63,-15,49,39,-55,17,64,1,-46,-65,-56,-42
-67,-16,51,41,-59,17,73,0,-40,-59,-55,-50
-58,-9,49,34,-54,20,81,6,-31,-50,-62,-47
-60,-8,51,34,-55,21,80,13,-22,-42,-67,-41
-62,5,67,28,-64,35,80,18,-15,-34,-58,-36
-33,46,78,-7,-56,62,76,27,-15,-26,-46,-29
-17,67,83,-25,-50,75,73,26,-15,-26,-31,-26
-12,75,87,-32,-50,80,40,9,-15,-24,-27,-23
-11,83,95,-36,-53,89,14,-5,-15,-24,-32,-27
6,89,84,-48,-40,86,11,-31,-18,-17,-30,-23
19,80,61,-50,-21,70,4,-45,-22,-24,-38,-27
0,66,66,-33,-33,65,1,-46,-29,-41,-31,-23
-38,14,52,12,-45,32,16,-44,-43,-56,-48,-29
-78,-7,70,42,-74,31,42,-46,-62,-83,-88,-70
-82,-33,49,57,-65,8,34,-44,-52,-90,-94,-95
-115,-44,71,80,-93,13,42,-43,-50,-88,-96,-99
-95,-46,49,70,-72,1,55,-34,-39,-71,-80,-87
-114,-65,50,89,-82,-7,76,-20,-35,-81,-93,-108
-96,3,98,46,-97,50,82,13,-22,-43,-61,-67
24,-69,-93,23,58,-81,98,216,159,52,20,-5
485,279,-207,-382,346,36,-190,222,514,523,585,536
1041,603,-439,-822,740,82,-648,-160,625,885,1098,1102
467,247,-220,-356,343,13,-388,-481,-40,171,351,473
-220,17,237,101,-229,126,77,-489,-593,-437,-344,-200
-251,-142,109,196,-180,-16,208,-297,-446,-381,-320,-238
-246,-182,64,214,-155,-59,191,-139,-244,-263,-243,-198
-126,-69,57,97,-91,-6,94,-25,-71,-120,-104,-107
-89,-50,39,69,-64,-5,83,42,5,-74,-65,-70
-84,-40,45,62,-64,2,70,71,23,-51,-51,-51
-67,-43,24,55,-45,-10,65,99,62,-34,-33,-46
-63,-33,31,48,-47,-1,63,110,75,-22,-28,-44
-42,-29,13,35,-27,-8,52,134,101,-2,-13,-26
-37,-23,14,30,-26,-4,53,158,118,5,-1,-5
-13,-17,-3,15,-5,-10,42,193,154,31,29,12
6,-12,-18,3,12,-15,40,230,179,48,39,18
29,-4,-32,-12,30,-18,33,261,211,74,54,38
52,12,-40,-32,46,-14,28,304,257,102,76,55
84,38,-47,-61,66,-4,23,360,306,139,115,86
126,64,-62,-95,94,0,17,408,355,170,148,115
162,82,-80,-121,120,1,11,446,402,212,182,151
170,83,-87,-126,128,-2,4,482,446,251,214,177
172,98,-74,-135,122,12,-2,477,457,266,234,189
185,122,-63,-153,124,29,-9,461,461,276,264,208
170,133,-38,-151,104,47,-15,437,445,272,265,194
134,126,-8,-130,71,58,3,362,389,252,234,179
99,96,-3,-97,51,46,27,281,317,198,186,151
55,55,0,-55,28,27,37,199,234,129,127,100
12,15,3,-14,4,9,46,125,160,74,72,60
-31,-23,8,27,-19,-8,53,86,102,29,23,21
-60,-49,10,55,-35,-19,55,59,65,-6,-10,-11
-79,-59,19,69,-48,-20,55,37,55,-28,-16,-21
-99,-66,33,82,-65,-16,55,26,52,-32,-14,-19
-99,-63,35,81,-67,-14,55,19,45,-30,-15,-23
-95,-60,35,77,-65,-12,55,12,40,-30,-15,-25
-96,-58,39,77,-67,-9,50,4,35,-30,-15,-25
-95,-55,40,75,-67,-7,50,-3,28,-30,-18,-28
-93,-53,41,73,-67,-6,49,-9,20,-31,-22,-31
-90,-46,44,68,-67,-1,45,-14,12,-35,-26,-34
-89,-41,48,65,-68,3,45,-19,4,-35,-36,-37
-86,-36,50,61,-68,7,43,-23,-3,-40,-36,-49
-79,-29,50,54,-64,10,39,-28,-11,-50,-38,-56
-82,-26,56,54,-69,15,40,-32,-17,-58,-54,-58
-87,-29,58,58,-73,14,40,-37,-25,-63,-61,-63
-85,-31,54,57,-70,11,40,-45,-33,-68,-70,-66
-85,-29,55,57,-70,13,40,-50,-39,-75,-76,-71
-86,-31,55,58,-70,11,35,-63,-52,-80,-77,-75
-84,-29,55,56,-70,13,35,-70,-60,-79,-81,-75
-89,-34,55,61,-72,10,34,-73,-61,-83,-79,-75
-95,-45,50,70,-72,2,30,-85,-65,-95,-80,-75
-95,-45,50,70,-72,2,30,-89,-68,-95,-80,-76
-96,-46,50,71,-72,2,32,-87,-70,-95,-80,-74
-101,-51,50,76,-76,0,35,-85,-72,-95,-92,-78
-99,-50,49,74,-74,0,35,-84,-75,-97,-96,-90
-101,-48,53,75,-77,2,35,-86,-78,-101,-94,-90
-114,-42,72,78,-93,14,35,-84,-81,-100,-95,-90
-114,-38,76,75,-94,19,34,-88,-85,-104,-95,-90
-109,-34,75,71,-91,20,32,-102,-85,-105,-95,-91
-103,-27,75,65,-89,24,28,-97,-76,-105,-86,-89
-102,-27,75,64,-87,24,26,-83,-61,-86,-73,-76
-94,-3,91,48,-93,44,21,-78,-47,-67,-63,-61
-81,14,95,33,-88,54,21,-61,-33,-71,-59,-51
-67,28,96,19,-81,62,14,-72,-35,-70,-57,-46
-36,51,87,-8,-62,69,-8,-100,-38,-73,-53,-41
-19,59,78,-20,-49,68,-26,-118,-45,-76,-52,-38
-2,68,71,-33,-37,69,-50,-143,-65,-73,-48,-32
1,59,58,-30,-28,58,-46,-145,-74,-83,-52,-30
-9,47,57,-19,-33,52,-32,-146,-81,-85,-53,-33
-42,-1,41,21,-41,20,-20,-143,-85,-97,-80,-73
-78,-26,52,51,-65,13,-9,-148,-104,-119,-104,-96
-96,-69,27,83,-61,-21,-2,-140,-115,-133,-111,-111
-114,-67,46,90,-80,-10,10,-140,-115,-130,-105,-113
-83,-66,18,75,-50,-24,2,-125,-99,-123,-87,-103
-112,-62,50,86,-81,-6,33,-116,-103,-127,-97,-122
-93,-28,65,60,-79,19,48,-64,-59,-71,-58,-79
55,-67,-122,6,89,-94,40,135,187,87,69,20
630,384,-246,-507,438,69,-319,39,570,667,778,704
1054,551,-503,-802,778,24,-711,-352,545,867,1138,1140
346,138,-208,-242,277,-35,-349,-614,-222,-7,197,337
-252,-47,206,149,-229,79,70,-585,-667,-533,-385,-247
-244,-201,42,222,-143,-79,130,-376,-455,-406,-307,-252
-199,-174,26,186,-112,-74,116,-184,-216,-237,-213,-185
-112,-83,28,97,-70,-28,73,-39,-50,-102,-96,-91
-93,-71,22,82,-57,-25,70,0,-17,-82,-77,-82
-70,-45,25,57,-47,-10,54,21,15,-58,-46,-57
-60,-53,7,56,-33,-22,44,47,43,-44,-41,-55
-53,-37,16,45,-34,-11,40,69,53,-25,-25,-41
-45,-39,6,42,-25,-16,32,106,90,-13,-13,-33
-33,-27,6,30,-19,-10,31,129,110,1,0,-19
0,-13,-13,7,7,-13,24,161,136,41,38,16
28,0,-28,-14,28,-14,21,192,162,57,47,25
56,17,-39,-36,47,-11,28,241,216,90,83,51
91,34,-57,-62,74,-11,31,290,256,122,110,76
123,42,-81,-82,101,-19,25,339,307,161,142,113
135,50,-86,-92,110,-18,21,390,366,203,188,147
156,69,-87,-112,121,-9,14,425,404,233,215,163
181,99,-82,-140,131,8,8,453,448,277,258,192
211,130,-81,-171,146,25,1,453,467,300,279,222
216,143,-73,-179,144,34,-6,445,464,306,284,231
173,139,-34,-156,104,52,-10,406,427,305,287,223
109,96,-14,-102,61,41,-11,329,368,275,259,206
75,59,-16,-66,45,21,-3,262,288,212,208,162
32,20,-13,-26,22,3,11,183,199,137,137,109
-24,-32,-8,28,-8,-20,26,110,123,72,73,59
-29,-34,-5,32,-11,-20,37,66,54,17,26,10
-39,-40,-1,39,-18,-20,35,34,6,-20,-15,-17
-66,-64,2,65,-34,-31,35,15,-23,-42,-31,-31
-74,-67,6,70,-40,-30,33,5,-36,-53,-38,-38
-67,-64,3,65,-34,-31,29,-3,-40,-59,-46,-33
-46,-61,-14,54,-16,-37,30,-12,-41,-56,-41,-30
-44,-58,-13,51,-15,-35,27,-24,-39,-49,-37,-27
-46,-54,-9,50,-18,-31,22,-35,-41,-45,-32,-22
-44,-50,-6,47,-19,-27,19,-53,-39,-38,-28,-20
-43,-44,-1,43,-20,-22,16,-62,-42,-36,-24,-27
-39,-38,1,38,-19,-18,11,-59,-45,-44,-28,-38
-50,-33,17,41,-33,-8,11,-61,-45,-53,-40,-40
-51,-27,23,39,-37,-2,19,-60,-52,-59,-45,-40
-59,-43,16,51,-38,-13,28,-61,-66,-67,-49,-41
-67,-52,15,59,-41,-18,27,-64,-73,-69,-50,-45
-60,-50,10,55,-35,-20,25,-68,-67,-64,-50,-47
-73,-66,7,69,-39,-30,25,-74,-81,-74,-50,-51
-62,-58,4,60,-33,-27,20,-83,-92,-86,-50,-49
-43,-56,-12,50,-15,-34,21,-88,-89,-84,-50,-52
-61,-83,-22,72,-20,-52,18,-84,-91,-85,-50,-64
-81,-92,-11,87,-35,-51,15,-85,-90,-85,-60,-66
-84,-89,-5,87,-40,-47,12,-85,-95,-85,-61,-64
-95,-90,5,92,-50,-42,10,-85,-100,-88,-59,-60
-100,-92,9,96,-55,-41,7,-85,-103,-90,-61,-60
-90,-87,4,88,-47,-41,4,-80,-108,-93,-59,-59
-104,-101,3,103,-53,-49,10,-80,-112,-96,-61,-55
-55,-76,-20,66,-17,-48,13,-78,-117,-100,-57,-55
-22,-63,-41,43,10,-52,36,-75,-120,-100,-53,-55
-73,-103,-30,88,-21,-66,48,-74,-127,-95,-47,-55
-94,-95,-1,95,-46,-48,39,-82,-136,-90,-45,-55
-83,-96,-13,90,-35,-55,41,-83,-132,-86,-38,-64
-46,-90,-44,68,0,-67,34,-78,-123,-82,-38,-62
-57,-81,-24,70,-16,-52,36,-71,-112,-76,-51,-49
-98,-87,11,92,-54,-38,40,-67,-103,-73,-39,-40
-81,-49,31,65,-56,-9,55,-61,-104,-62,-24,-30
-52,-22,29,37,-40,3,51,-54,-108,-53,-20,-20
-4,0,4,2,-4,2,2,-74,-110,-41,-12,-10
10,24,14,-17,-3,19,-12,-88,-114,-28,-11,1
-14,23,37,-4,-26,30,-28,-106,-117,-47,-3,-2
24,39,15,-32,5,27,-32,-115,-122,-67,-2,-11
48,30,-18,-39,32,6,-13,-104,-128,-64,-5,4
2,-53,-55,26,29,-54,-2,-102,-128,-70,-28,-20
-45,-81,-35,63,-4,-58,31,-95,-144,-91,-64,-57
-29,-82,-54,56,13,-68,43,-89,-143,-112,-85,-79
-73,-107,-33,90,-20,-70,55,-95,-139,-116,-88,-85
-89,-131,-42,110,-24,-86,48,-86,-130,-102,-78,-74
-81,-129,-47,105,-17,-88,59,-75,-126,-116,-94,-90
-123,-111,12,117,-67,-49,69,-36,-100,-61,-31,-34
-5,-157,-152,81,73,-154,77,150,98,48,55,16
545,246,-299,-396,422,-26,-196,163,470,524,619,554
1120,533,-587,-826,853,-27,-679,-216,570,879,1131,1123
569,181,-388,-375,478,-103,-439,-577,-100,160,392,513
-181,-42,139,112,-160,48,61,-600,-665,-461,-326,-168
-216,-199,18,207,-117,-91,174,-393,-525,-405,-318,-229
-159,-229,-71,194,-44,-150,170,-184,-282,-257,-200,-164
-74,-110,-36,92,-19,-73,110,-27,-95,-101,-74,-63
-50,-90,-40,71,-5,-65,108,42,-27,-60,-49,-45
-38,-81,-43,60,2,-61,102,66,-6,-42,-23,-27
-12,-57,-46,35,17,-51,94,93,36,-20,8,-9
-2,-35,-34,19,16,-34,95,118,40,5,26,-2
32,-31,-63,0,48,-47,85,138,58,33,43,8
44,-22,-66,-11,55,-43,86,170,65,34,38,20
75,-14,-89,-30,82,-51,76,203,92,42,40,41
91,-8,-98,-41,95,-53,72,227,132,63,59,51
106,-1,-107,-52,106,-53,63,269,173,84,82,68
153,28,-124,-91,138,-48,51,312,204,109,107,87
203,67,-136,-135,169,-34,40,366,234,149,152,123
227,86,-140,-156,183,-27,33,418,286,188,186,159
280,112,-168,-196,224,-28,30,464,328,223,213,184
340,143,-197,-241,269,-27,25,493,362,252,250,209
348,164,-184,-255,265,-10,22,484,387,281,268,225
367,192,-174,-279,270,9,16,467,394,288,290,233
369,202,-167,-285,268,17,13,447,374,275,290,231
321,177,-144,-249,232,16,7,381,316,260,250,225
261,152,-109,-207,185,21,6,284,237,207,209,193
214,116,-98,-165,156,9,30,202,152,140,157,136
156,55,-102,-105,129,-24,50,131,63,85,103,88
95,2,-93,-49,94,-45,52,80,5,23,52,38
57,-23,-81,-17,69,-52,59,44,-29,-21,8,7
32,-41,-73,4,53,-57,58,19,-61,-37,-7,5
25,-47,-72,11,49,-59,55,13,-66,-38,-2,5
21,-44,-65,12,43,-54,55,10,-65,-31,1,5
19,-42,-61,12,40,-52,54,6,-64,-24,4,5
14,-39,-53,13,33,-46,69,3,-60,-18,9,4
11,-40,-51,15,31,-46,76,-1,-60,-10,11,1
20,-35,-55,8,38,-45,75,-4,-62,-6,27,0
7,-33,-41,13,24,-37,74,-5,-66,-10,32,0
8,-31,-39,11,23,-35,77,-6,-64,-16,23,0
15,-26,-41,5,28,-33,89,-11,-66,-19,18,0
-17,-53,-36,35,10,-44,91,-10,-64,-24,10,-2
-37,-68,-32,53,-2,-50,89,-8,-67,-28,4,-7
-37,-63,-26,51,-5,-44,86,-20,-84,-31,-2,-10
-47,-69,-23,58,-12,-46,85,-29,-85,-29,-5,-14
-53,-70,-17,62,-18,-43,84,-31,-86,-31,-5,-18
-56,-70,-14,64,-21,-41,78,-36,-92,-40,-8,-21
-67,-75,-8,71,-29,-41,72,-40,-89,-41,-11,-25
-76,-78,-2,77,-37,-40,68,-40,-86,-40,-10,-25
-83,-80,2,81,-42,-39,61,-40,-84,-41,-14,-26
-95,-86,9,90,-52,-38,56,-45,-80,-53,-26,-30
-82,-69,14,75,-48,-27,67,-45,-81,-70,-30,-30
-67,-55,12,61,-39,-21,71,-45,-85,-69,-30,-27
-84,-75,9,79,-46,-33,69,-45,-84,-66,-35,-25
-92,-82,11,87,-52,-35,70,-45,-86,-63,-35,-25
-85,-76,9,80,-47,-33,70,-44,-83,-60,-32,-21
-85,-75,11,80,-48,-31,70,-40,-91,-59,-27,-20
-79,-70,8,75,-44,-31,69,-40,-96,-53,-24,-20
-67,-70,-3,68,-32,-36,71,-40,-100,-48,-21,-14
-76,-81,-5,78,-35,-43,68,-39,-111,-43,-17,-9
-89,-77,12,83,-50,-32,80,-41,-96,-36,-14,-4
-95,-63,33,79,-64,-15,91,-35,-83,-32,-5,3
-92,-50,41,71,-66,-4,89,-36,-77,-23,5,7
-91,-25,66,58,-78,20,100,-33,-63,-10,16,14
-98,-13,84,55,-91,35,97,-37,-62,2,23,27
-63,16,79,23,-71,47,56,-33,-51,16,34,35
-35,58,93,-12,-65,75,16,-41,-56,14,37,26
-10,63,73,-26,-42,67,5,-83,-88,3,33,20
32,56,24,-45,4,40,6,-85,-90,-11,22,8
28,37,9,-33,9,23,-3,-86,-90,-19,19,3
-15,-20,-5,17,-5,-12,23,-83,-104,-39,4,-13
-73,-61,12,66,-42,-24,52,-88,-130,-66,-23,-36
-86,-89,-2,87,-42,-45,56,-82,-141,-81,-39,-50
-99,-74,25,86,-62,-24,79,-81,-138,-82,-45,-53
-78,-77,2,77,-39,-37,83,-82,-125,-64,-28,-44
-101,-77,25,89,-63,-26,98,-58,-120,-75,-47,-61
-98,-57,40,78,-69,-9,105,-19,-90,-29,-8,-26
68,-87,-155,10,112,-121,106,184,122,102,106,45
619,315,-305,-467,462,5,-233,141,490,605,712,642
1109,544,-565,-826,837,-11,-661,-289,497,854,1115,1116
454,186,-268,-320,361,-41,-357,-606,-231,72,293,417
-215,-32,183,123,-199,76,97,-586,-701,-466,-320,-184
-214,-189,25,201,-119,-82,186,-375,-522,-378,-276,-219
-165,-192,-27,179,-69,-109,159,-185,-303,-232,-184,-158
-62,-70,-8,66,-27,-39,114,-16,-117,-72,-47,-49
-51,-53,-2,52,-24,-28,107,45,-55,-38,-21,-42
-49,-43,7,46,-27,-18,97,55,-31,-17,-9,-24
-43,-43,0,42,-22,-21,95,88,-9,-8,-5,-18
-49,-36,13,43,-31,-11,91,102,-2,-9,8,-15
-36,-29,7,32,-21,-10,85,131,43,11,30,0
-14,-8,6,11,-10,-1,81,154,68,22,38,4
21,9,-12,-15,16,-1,71,181,104,55,61,27
48,12,-35,-30,41,-11,67,223,142,82,77,40
85,31,-54,-57,69,-12,57,264,191,100,106,57
111,49,-62,-80,86,-6,51,314,237,129,132,84
136,63,-73,-99,104,-5,44,367,280,164,157,108
180,98,-82,-138,131,8,35,413,335,197,195,144
235,132,-103,-183,168,14,25,452,381,233,226,177
248,147,-101,-197,174,23,16,489,423,265,253,200
275,181,-94,-227,184,43,15,501,428,291,280,228
293,206,-87,-249,190,59,14,477,417,309,298,239
234,193,-40,-213,137,76,6,432,400,294,290,227
190,187,-3,-188,96,92,-6,348,334,255,255,214
144,171,26,-158,59,98,0,249,240,202,204,174
80,121,41,-100,19,81,23,166,148,132,143,113
34,82,49,-58,-8,65,31,90,67,74,93,63
-11,60,71,-25,-41,65,37,27,3,26,49,21
-33,36,69,-2,-51,53,44,-5,-37,-14,15,-4
-45,25,70,10,-57,47,42,-25,-57,-36,3,-19
-52,20,72,16,-62,45,39,-44,-77,-35,-3,-33
-60,7,66,27,-63,36,36,-43,-84,-31,-13,-37
-69,8,77,30,-73,43,33,-35,-79,-30,-19,-35
-49,-1,48,25,-48,23,30,-34,-81,-25,-16,-35
-21,27,48,-4,-34,37,28,-25,-78,-26,-15,-32
-6,71,77,-33,-42,74,25,-27,-74,-29,-14,-29
-26,59,85,-16,-56,71,22,-43,-76,-32,-10,-31
-40,58,98,-9,-69,78,20,-47,-74,-34,-10,-34
-37,54,91,-9,-64,72,16,-43,-77,-38,-12,-38
-40,49,89,-5,-64,69,15,-51,-83,-44,-23,-41
-39,47,87,-5,-63,67,18,-76,-91,-45,-30,-44
-40,44,83,-2,-62,63,23,-82,-116,-63,-30,-47
-36,46,81,-5,-59,63,24,-77,-129,-72,-29,-54
-34,40,74,-3,-54,56,20,-90,-127,-72,-34,-60
-30,40,71,-5,-50,56,17,-107,-134,-76,-47,-66
-28,39,67,-6,-48,53,15,-118,-134,-80,-52,-72
-26,33,59,-4,-43,46,11,-120,-136,-88,-58,-78
-41,30,71,6,-56,50,10,-120,-150,-91,-60,-80
-62,25,87,18,-75,56,14,-120,-143,-95,-61,-80
-63,20,84,21,-74,52,15,-115,-128,-95,-65,-80
-71,17,88,27,-80,52,15,-115,-130,-95,-65,-81
-80,11,91,35,-85,51,15,-114,-130,-95,-77,-81
-82,7,89,38,-86,48,15,-110,-131,-95,-81,-80
-86,2,87,42,-87,44,16,-110,-135,-95,-79,-80
-82,-1,81,42,-82,40,20,-108,-135,-95,-77,-80
-92,-12,80,52,-86,34,19,-104,-132,-107,-74,-80
-101,-26,75,63,-88,24,23,-102,-130,-108,-75,-79
-92,-20,72,56,-82,26,26,-99,-130,-101,-70,-73
-84,-16,69,50,-76,26,25,-96,-130,-97,-71,-68
-73,-11,62,42,-68,25,26,-94,-129,-89,-65,-62
-82,-7,75,44,-78,34,24,-90,-130,-86,-66,-56
-91,1,92,45,-91,46,29,-90,-134,-72,-58,-51
-77,31,108,23,-93,69,33,-82,-135,-54,-21,-46
-70,46,116,12,-93,80,12,-93,-135,-48,-9,-35
-41,61,102,-11,-72,81,-23,-115,-135,-45,-10,-25
-13,90,103,-38,-58,96,-36,-131,-135,-42,-10,-26
5,86,82,-46,-39,84,-52,-157,-132,-36,-11,-23
16,78,63,-47,-24,70,-61,-161,-130,-37,-24,-28
-7,55,62,-24,-35,58,-49,-160,-130,-39,-28,-21
-46,5,51,20,-49,28,-35,-159,-146,-69,-40,-48
-89,-25,64,56,-76,19,-22,-162,-169,-103,-63,-82
-107,-69,37,88,-72,-16,-9,-156,-178,-124,-84,-97
-113,-47,67,80,-90,10,6,-154,-184,-117,-80,-96
-92,-56,36,74,-64,-10,13,-136,-165,-102,-75,-91
-133,-40,93,86,-112,26,31,-128,-158,-108,-92,-105
-121,-34,87,77,-104,27,39,-51,-97,-45,-30,-60
82,-37,-119,-22,101,-78,20,152,146,124,132,68
727,426,-300,-576,513,63,-381,27,517,674,810,736
1076,540,-536,-808,805,2,-716,-412,402,756,1020,1032
265,162,-103,-213,184,29,-302,-690,-383,-100,96,230
-287,-23,265,155,-276,121,94,-615,-728,-494,-370,-240
-256,-172,84,214,-170,-44,150,-382,-503,-372,-310,-234
-229,-135,94,182,-161,-20,120,-175,-269,-218,-209,-171
-119,-50,70,84,-94,10,84,-19,-115,-87,-82,-79
-96,-30,66,62,-80,18,91,26,-81,-77,-73,-84
-67,-4,63,35,-65,30,76,57,-42,-45,-44,-63
-60,-6,54,33,-57,24,74,75,-19,-39,-43,-57
-43,18,60,12,-52,39,66,97,3,-22,-29,-43
-30,18,47,6,-39,32,64,133,21,-3,-19,-31
-27,20,47,3,-38,33,66,162,51,6,-15,-14
11,42,32,-27,-11,36,64,197,97,30,-8,0
27,56,28,-42,-1,42,66,238,131,62,-7,17
56,67,12,-62,22,39,65,290,179,89,3,42
75,74,-1,-75,39,36,64,336,220,117,23,68
112,88,-24,-100,68,32,48,398,276,153,58,104
166,120,-46,-143,106,37,34,444,324,186,78,118
183,144,-40,-163,111,52,25,495,384,237,121,150
195,165,-30,-180,112,67,17,526,430,277,159,189
218,194,-24,-206,121,85,7,520,445,292,177,213
223,208,-15,-215,119,97,1,509,453,291,181,221
224,220,-5,-222,114,107,7,460,421,286,162,221
190,209,18,-199,85,113,13,366,348,250,141,200
117,170,53,-143,31,111,18,260,243,183,80,145
58,124,66,-92,-4,95,24,175,136,116,13,88
-1,81,82,-40,-42,81,25,99,40,47,-39,37
-39,53,93,-7,-66,73,26,37,-32,-1,-94,-6
-55,33,88,11,-72,61,29,8,-68,-42,-128,-43
-71,20,91,25,-81,55,31,-18,-94,-59,-147,-61
-82,8,90,37,-86,48,29,-40,-108,-67,-151,-63
-87,2,90,42,-89,46,23,-40,-122,-72,-150,-60
-87,-1,86,44,-86,42,17,-40,-124,-64,-149,-53
-90,-5,85,47,-87,39,12,-45,-116,-61,-144,-50
-83,3,85,39,-84,44,6,-45,-114,-56,-146,-45
-74,11,85,31,-80,47,1,-47,-108,-52,-142,-40
-64,21,85,21,-75,52,5,-50,-105,-51,-140,-47
-64,23,87,20,-76,55,19,-53,-111,-62,-140,-61
-73,19,93,27,-83,56,29,-55,-118,-71,-140,-65
-76,21,97,27,-86,58,30,-59,-123,-69,-148,-67
-84,16,100,34,-92,58,30,-61,-133,-77,-151,-71
-81,15,95,32,-89,55,30,-60,-140,-86,-150,-73
-77,14,91,31,-85,53,30,-60,-141,-90,-150,-76
-78,11,88,34,-83,49,30,-60,-139,-90,-161,-74
-76,8,85,33,-81,46,26,-61,-151,-91,-176,-77
-75,5,80,35,-78,42,25,-68,-170,-88,-183,-88
-80,2,82,38,-81,42,25,-74,-172,-96,-185,-91
-87,0,87,43,-87,43,20,-76,-176,-115,-187,-89
-88,2,90,43,-89,46,20,-74,-180,-115,-191,-90
-91,10,100,40,-96,55,19,-79,-180,-116,-188,-90
-87,14,101,36,-94,57,15,-86,-180,-121,-185,-90
-86,10,96,38,-91,52,15,-85,-180,-120,-183,-90
-90,4,94,43,-92,49,15,-85,-180,-118,-179,-90
-91,-2,89,47,-90,43,15,-85,-180,-114,-177,-95
-92,-6,86,48,-88,40,15,-85,-180,-112,-173,-96
-87,-4,82,45,-84,39,19,-83,-175,-109,-183,-94
-84,-6,78,45,-81,36,21,-79,-171,-106,-198,-96
-76,-4,72,40,-74,34,20,-80,-166,-104,-190,-94
-73,-1,73,37,-73,36,20,-80,-162,-99,-180,-96
-73,12,86,30,-80,49,21,-79,-154,-92,-170,-84
-69,44,113,13,-91,78,18,-81,-132,-86,-161,-56
-62,63,125,-1,-94,94,15,-78,-124,-79,-158,-50
-50,65,115,-7,-83,90,-5,-88,-126,-72,-153,-47
-27,82,109,-28,-68,95,-44,-101,-123,-70,-151,-45
-3,101,103,-49,-54,102,-57,-118,-132,-69,-146,-42
-6,89,95,-42,-51,92,-51,-135,-140,-64,-143,-38
-7,76,84,-35,-46,80,-44,-135,-140,-66,-138,-47
-20,29,48,-4,-34,38,-41,-137,-145,-82,-143,-52
-70,-19,51,44,-61,16,-31,-139,-164,-121,-189,-86
-103,-45,58,73,-80,6,-32,-143,-168,-141,-207,-109
-124,-75,49,99,-86,-13,-20,-132,-157,-156,-220,-127
-119,-51,68,85,-93,9,-23,-131,-156,-140,-202,-113
-127,-84,43,106,-85,-20,-14,-104,-140,-145,-208,-127
-121,-34,87,78,-104,27,-5,-92,-132,-133,-198,-113
-60,-83,-23,71,-18,-53,19,61,17,-23,-119,-62
263,53,-210,-158,236,-78,-76,220,358,305,240,257
916,535,-381,-725,648,77,-580,-76,629,896,1014,1046
708,352,-356,-530,532,-2,-608,-425,234,559,709,843
-106,-19,87,62,-96,33,-95,-502,-527,-365,-311,-97
-290,-136,154,212,-222,9,112,-398,-627,-501,-477,-300
-246,-238,8,242,-127,-115,151,-253,-407,-357,-380,-257
-166,-155,11,160,-88,-72,67,-137,-241,-213,-267,-172
-88,-85,3,86,-45,-41,-1,-36,-103,-96,-167,-88
-92,-68,25,80,-58,-21,-3,-18,-85,-80,-154,-82
-78,-55,23,66,-50,-15,-22,0,-61,-54,-124,-56
-72,-36,36,54,-54,0,-21,15,-32,-51,-129,-60
-52,-24,28,37,-39,2,-36,26,-10,-28,-108,-43
-43,-26,17,34,-29,-4,-37,49,9,-20,-105,-36
-24,-15,9,19,-17,-3,-41,84,51,4,-89,-19
-11,-17,-5,14,-3,-11,-40,116,72,20,-58,-7
10,-7,-17,-1,14,-12,-40,143,102,41,-35,12
28,-5,-33,-11,31,-19,-52,182,152,72,-5,40
56,12,-45,-34,50,-16,-59,230,195,102,33,64
103,40,-63,-71,83,-11,-61,289,255,150,69,101
114,39,-75,-76,94,-18,-77,329,302,183,102,127
159,80,-79,-120,119,1,-88,364,352,222,136,154
189,112,-77,-150,132,17,-94,377,376,254,162,184
180,115,-64,-147,122,25,-94,376,370,270,184,196
175,122,-52,-148,113,35,-100,355,366,269,190,200
143,109,-33,-126,88,38,-106,291,331,246,167,201
102,99,-3,-100,52,48,-92,203,255,202,123,165
49,71,21,-60,14,46,-86,124,162,136,59,103
-10,30,40,-11,-25,35,-79,51,70,70,-1,40
-65,-15,51,40,-58,18,-73,-25,-2,-1,-53,-6
-77,-27,50,52,-63,11,-65,-55,-52,-44,-102,-40
-74,-27,47,50,-60,10,-60,-80,-83,-58,-124,-66
-89,-45,45,66,-67,0,-53,-103,-84,-67,-131,-72
-102,-57,45,79,-74,-6,-53,-103,-91,-75,-137,-79
-108,-66,41,87,-74,-12,-68,-107,-106,-77,-137,-80
-101,-62,40,81,-70,-11,-70,-103,-104,-74,-132,-79
-96,-56,40,76,-68,-7,-72,-110,-105,-75,-129,-80
-93,-53,40,73,-66,-7,-76,-115,-105,-70,-126,-80
-87,-47,41,67,-64,-3,-73,-118,-105,-70,-121,-80
-85,-46,39,65,-62,-3,-70,-130,-107,-71,-121,-80
-115,-63,52,89,-83,-6,-70,-130,-115,-75,-126,-80
-133,-72,61,103,-97,-5,-68,-130,-130,-80,-131,-81
-129,-69,60,99,-94,-5,-64,-129,-136,-84,-134,-94
-129,-71,58,100,-93,-6,-66,-139,-138,-96,-139,-106
-124,-69,54,96,-89,-7,-64,-147,-141,-100,-146,-108
-126,-71,55,98,-91,-7,-65,-144,-150,-100,-150,-113
-117,-66,51,92,-84,-7,-65,-141,-162,-104,-153,-114
-111,-61,50,86,-80,-6,-66,-139,-167,-112,-162,-120
-108,-58,50,83,-78,-4,-86,-159,-171,-115,-165,-130
-99,-54,45,76,-72,-4,-90,-167,-170,-116,-168,-130
-123,-79,45,100,-84,-17,-81,-164,-170,-119,-170,-131
-139,-93,46,116,-93,-23,-80,-162,-170,-120,-173,-135
-136,-86,50,111,-93,-18,-72,-159,-170,-120,-175,-135
-135,-85,50,110,-92,-17,-71,-160,-170,-120,-171,-133
-131,-82,50,106,-90,-16,-63,-155,-165,-121,-166,-129
-130,-79,51,104,-90,-14,-63,-155,-165,-118,-161,-130
-130,-81,49,105,-90,-16,-83,-154,-165,-125,-158,-130
-127,-79,48,103,-87,-15,-85,-150,-165,-136,-151,-130
-123,-81,42,102,-83,-19,-81,-149,-166,-136,-154,-130
-132,-90,41,111,-86,-24,-79,-158,-163,-131,-161,-125
-118,-83,35,100,-76,-24,-76,-163,-158,-131,-152,-118
-105,-68,37,86,-71,-15,-74,-151,-155,-124,-144,-114
-119,-53,67,86,-93,7,-81,-146,-148,-90,-136,-107
-107,-31,76,69,-91,22,-82,-135,-137,-74,-129,-103
-81,-5,76,42,-78,35,-89,-134,-130,-75,-123,-97
-80,-8,73,44,-76,32,-127,-162,-130,-75,-119,-91
-85,-6,79,45,-81,36,-135,-178,-130,-76,-115,-87
-59,2,61,28,-60,31,-130,-178,-130,-74,-109,-80
-48,-14,35,31,-41,10,-123,-180,-130,-79,-107,-77
-63,-39,24,50,-43,-7,-123,-174,-141,-82,-109,-67
-105,-86,19,96,-62,-34,-106,-171,-171,-111,-151,-102
-126,-102,24,114,-75,-39,-80,-170,-184,-131,-167,-126
-127,-124,2,125,-64,-61,-82,-160,-190,-142,-171,-134
-129,-103,26,116,-78,-38,-70,-166,-191,-133,-159,-127
-89,-113,-24,101,-32,-68,-44,-140,-158,-131,-153,-131
-142,-83,59,112,-100,-12,-36,-155,-163,-121,-154,-133
-140,-121,19,130,-79,-51,-12,-32,-59,-35,-96,-95
141,-27,-168,-57,154,-97,-71,144,255,244,191,142
797,493,-305,-645,551,94,-557,-97,606,881,1004,953
887,412,-476,-649,681,-32,-757,-510,328,722,951,1010
42,0,-42,-21,42,-21,-259,-701,-522,-267,-135,50
-325,-147,178,235,-251,16,58,-573,-720,-531,-469,-319
-234,-269,-34,252,-100,-151,79,-352,-440,-353,-344,-265
-166,-187,-21,177,-73,-103,31,-165,-227,-195,-219,-183
-92,-123,-31,107,-30,-76,4,-44,-80,-77,-111,-99
-97,-113,-16,105,-40,-64,8,-24,-56,-75,-119,-88
-73,-93,-19,83,-27,-56,-10,-1,-18,-51,-91,-66
-75,-92,-17,84,-29,-54,-17,22,-1,-41,-86,-70
-65,-77,-11,71,-27,-44,-27,57,31,-16,-61,-57
-38,-75,-36,57,0,-55,-24,89,63,3,-43,-43
-18,-61,-43,40,12,-52,-27,120,88,26,-28,-25
-4,-53,-49,29,23,-51,-31,150,118,47,-8,-13
22,-43,-65,11,44,-54,-29,189,154,72,21,9
53,-30,-84,-11,69,-57,-34,242,207,104,46,33
70,-14,-84,-27,77,-49,-42,291,242,138,71,57
122,22,-101,-72,111,-39,-42,353,299,186,121,98
180,54,-127,-117,153,-36,-53,409,361,233,168,143
186,72,-114,-129,150,-20,-62,448,411,277,207,174
197,99,-98,-148,148,1,-59,469,449,311,234,196
224,126,-98,-175,161,14,-60,478,457,335,266,225
221,133,-88,-177,154,22,-60,452,446,332,284,226
195,127,-67,-161,131,30,-60,383,413,320,268,212
162,110,-52,-136,107,29,-54,294,330,276,216,192
117,72,-46,-94,81,13,-48,195,219,191,141,136
64,28,-36,-46,50,-4,-43,119,128,111,65,71
11,-19,-30,4,21,-24,-37,48,50,54,6,23
-43,-65,-21,54,-11,-43,-32,8,-20,15,-35,-21
-58,-76,-18,68,-20,-47,-29,-12,-59,-22,-56,-56
-72,-74,-2,73,-34,-38,-31,-40,-76,-48,-64,-69
-81,-87,-6,84,-37,-47,-26,-45,-88,-52,-76,-66
-55,-91,-36,73,-10,-63,-25,-59,-92,-44,-75,-64
-54,-90,-35,73,-10,-62,-25,-67,-89,-40,-71,-61
-55,-87,-31,71,-12,-58,-21,-58,-85,-34,-70,-59
-55,-84,-29,70,-12,-56,-19,-58,-86,-28,-65,-55
-60,-85,-25,73,-17,-55,-15,-51,-90,-27,-65,-55
-56,-80,-25,68,-15,-52,-13,-50,-90,-29,-61,-55
-60,-80,-20,70,-20,-50,-9,-66,-90,-51,-60,-54
-60,-80,-20,70,-20,-50,-14,-72,-90,-62,-61,-61
-60,-80,-20,70,-20,-50,-31,-69,-90,-59,-58,-65
-61,-81,-20,71,-20,-51,-36,-71,-93,-65,-69,-75
-60,-77,-17,69,-21,-47,-35,-69,-98,-65,-81,-81
-60,-75,-15,68,-22,-45,-39,-71,-101,-66,-85,-80
-63,-75,-11,69,-26,-43,-40,-68,-111,-69,-88,-79
-62,-72,-10,67,-26,-41,-40,-77,-117,-74,-94,-89
-64,-69,-5,67,-29,-37,-35,-94,-126,-80,-100,-106
-66,-72,-6,70,-30,-38,-35,-96,-140,-80,-100,-105
-65,-84,-19,75,-23,-51,-34,-98,-140,-79,-94,-105
-65,-82,-17,74,-24,-49,-30,-103,-140,-84,-97,-105
-65,-75,-11,70,-27,-42,-30,-105,-140,-95,-116,-104
-67,-74,-6,71,-30,-40,-33,-105,-140,-95,-118,-108
-66,-66,1,66,-33,-32,-35,-104,-138,-96,-110,-110
-72,-68,4,70,-38,-32,-35,-101,-134,-100,-106,-113
-75,-74,0,75,-37,-37,-38,-99,-135,-100,-100,-116
-71,-76,-5,74,-32,-40,-41,-102,-135,-98,-94,-119
-66,-74,-8,70,-28,-40,-39,-105,-134,-93,-108,-120
-63,-78,-15,71,-24,-46,-36,-105,-137,-90,-121,-115
-77,-88,-11,83,-33,-50,-29,-101,-143,-87,-112,-111
-81,-81,1,81,-41,-40,-26,-100,-137,-82,-106,-106
-81,-69,13,75,-47,-28,-21,-99,-126,-79,-100,-102
-70,-39,30,54,-50,-4,-16,-102,-122,-70,-91,-97
-41,-11,29,26,-35,9,-20,-104,-124,-53,-77,-89
-25,5,31,10,-28,18,-46,-106,-126,-48,-64,-81
0,29,29,-15,-15,29,-82,-103,-124,-50,-63,-74
4,33,30,-18,-13,31,-91,-108,-126,-50,-67,-73
-9,23,32,-7,-20,27,-98,-129,-125,-53,-64,-66
8,7,-1,-7,5,2,-102,-129,-128,-56,-73,-67
25,-2,-28,-11,27,-15,-101,-132,-138,-54,-66,-58
-5,-40,-36,23,16,-38,-80,-127,-137,-70,-77,-67
-47,-69,-21,58,-13,-45,-54,-134,-159,-99,-109,-107
-66,-103,-38,85,-14,-70,-43,-125,-164,-116,-115,-128
-89,-100,-11,95,-38,-56,-34,-125,-166,-110,-118,-123
-64,-102,-38,83,-13,-70,-29,-108,-165,-96,-108,-113
-125,-100,24,112,-74,-38,-11,-106,-157,-97,-126,-121
-130,-78,51,104,-90,-13,-11,-63,-98,-43,-87,-92
46,-106,-152,30,99,-129,3,159,158,107,63,4
623,341,-282,-481,452,29,-361,56,531,665,742,657
1084,555,-529,-819,806,13,-772,-370,510,883,1121,1102
388,158,-230,-273,309,-36,-425,-657,-254,18,208,336
-253,-58,195,155,-224,69,22,-621,-716,-517,-409,-267
-226,-201,25,213,-125,-88,92,-388,-496,-396,-332,-264
-164,-186,-22,175,-71,-104,57,-194,-268,-242,-242,-215
-95,-101,-6,98,-44,-53,27,-28,-99,-91,-113,-131
-76,-79,-3,77,-36,-40,21,19,-69,-68,-92,-108
-47,-50,-3,49,-22,-26,6,33,-52,-46,-66,-87
-50,-58,-8,54,-21,-33,5,63,-22,-37,-53,-78
-43,-42,1,43,-22,-21,5,78,-13,-29,-45,-69
-38,-44,-6,41,-16,-25,1,106,18,-6,-25,-55
-25,-32,-6,29,-9,-19,0,131,41,13,-13,-41
15,-19,-34,2,25,-26,-1,173,83,44,9,-22
32,-5,-37,-13,35,-21,-6,207,111,56,25,-11
54,12,-41,-33,47,-14,-15,253,156,85,54,7
90,31,-59,-61,74,-13,-20,304,199,113,78,39
127,64,-63,-95,95,0,-29,360,255,156,122,71
168,94,-75,-131,121,9,-35,419,317,203,174,105
212,126,-85,-169,148,21,-43,462,363,245,212,150
218,142,-76,-179,147,33,-45,506,411,287,243,175
234,162,-72,-198,152,45,-45,510,442,314,274,200
246,188,-59,-217,153,64,-55,482,446,317,283,210
233,207,-26,-220,129,90,-55,444,413,306,270,200
197,194,-3,-196,100,95,-47,349,333,274,248,186
155,152,-2,-153,78,75,-41,235,234,200,184,138
115,116,2,-116,56,59,-34,153,134,124,113,83
57,82,24,-70,16,53,-28,83,46,53,56,27
3,51,48,-27,-23,50,-23,22,-20,1,6,-19
-29,19,48,5,-39,33,-20,-18,-62,-33,-35,-50
-32,8,40,12,-36,24,-17,-34,-85,-55,-60,-72
-30,7,37,11,-34,22,-12,-44,-104,-65,-68,-71
-28,1,29,13,-29,15,-10,-48,-106,-71,-78,-70
-25,0,25,12,-25,12,-17,-51,-109,-70,-72,-69
-40,-6,34,23,-37,14,-29,-56,-109,-70,-61,-65
-42,0,42,21,-42,21,-32,-59,-104,-70,-57,-65
-30,9,39,10,-34,24,-30,-62,-106,-70,-59,-67
-31,9,40,11,-36,25,-30,-65,-104,-72,-63,-71
-31,24,55,3,-43,40,-30,-68,-106,-76,-65,-73
-28,30,58,-1,-44,44,-30,-70,-104,-75,-69,-76
-29,21,50,4,-40,36,-30,-74,-112,-75,-70,-79
-29,17,46,6,-38,32,-30,-75,-125,-75,-73,-81
-29,11,40,9,-34,25,-30,-82,-126,-75,-78,-84
-29,7,35,11,-32,21,-30,-92,-133,-86,-82,-89
-43,1,44,21,-44,22,-30,-98,-138,-91,-85,-92
-58,-4,55,31,-56,26,-30,-101,-142,-93,-90,-97
-62,-8,55,34,-58,23,-32,-106,-154,-96,-100,-100
-69,-13,56,40,-62,21,-35,-110,-163,-93,-108,-105
-69,-17,53,42,-61,18,-35,-108,-169,-100,-114,-105
-79,-20,59,49,-69,19,-35,-117,-170,-110,-119,-105
-93,-23,70,58,-81,23,-35,-121,-170,-110,-120,-105
-89,-27,62,58,-75,17,-34,-119,-170,-110,-120,-104
-87,-30,57,58,-72,13,-31,-125,-170,-110,-120,-108
-86,-34,52,60,-69,9,-28,-124,-169,-110,-120,-110
-82,-38,44,60,-63,2,-40,-126,-173,-111,-120,-111
-96,-43,53,69,-74,5,-51,-130,-181,-116,-120,-115
-105,-44,61,74,-82,8,-50,-130,-180,-119,-120,-115
-99,-39,60,69,-80,10,-50,-130,-180,-118,-120,-120
-95,-36,60,66,-77,12,-50,-130,-180,-111,-120,-120
-93,-33,60,63,-77,14,-50,-130,-180,-114,-120,-122
-89,-29,60,59,-74,16,-47,-126,-179,-119,-116,-125
-84,-24,59,54,-71,17,-43,-119,-171,-110,-107,-126
-109,-30,80,69,-95,25,-47,-112,-164,-101,-99,-121
-120,-27,93,74,-107,33,-49,-106,-157,-95,-91,-104
-90,-1,89,45,-89,44,-51,-99,-150,-86,-84,-91
-53,38,90,8,-72,64,-55,-94,-139,-74,-80,-84
-23,68,91,-23,-57,79,-54,-90,-134,-63,-75,-71
-11,70,82,-30,-47,76,-72,-97,-133,-57,-73,-68
-15,67,82,-27,-49,74,-92,-136,-145,-69,-68,-71
-10,58,69,-24,-40,63,-83,-151,-159,-84,-65,-73
-18,53,71,-18,-45,62,-71,-149,-164,-96,-62,-80
-26,34,61,-4,-44,47,-65,-152,-167,-90,-64,-76
-76,-16,60,46,-68,22,-50,-147,-178,-106,-103,-98
-110,-50,60,80,-85,5,-50,-155,-204,-133,-128,-122
-103,-60,42,81,-72,-9,-35,-139,-201,-141,-147,-137
-119,-51,68,85,-93,8,-36,-145,-202,-125,-130,-123
-106,-97,9,101,-58,-43,-24,-118,-189,-124,-136,-130
-122,-34,88,78,-105,27,-3,-114,-184,-117,-130,-121
-60,-64,-3,62,-28,-34,17,10,-71,-47,-64,-93
222,48,-175,-135,199,-63,-81,173,248,247,252,182
918,553,-365,-735,641,94,-582,-116,542,842,1010,957
928,445,-482,-686,705,-19,-695,-539,195,584,819,877
2,52,50,-27,-24,51,-192,-697,-596,-331,-171,-18
-309,-115,195,212,-252,40,80,-555,-720,-509,-409,-306
-257,-227,30,242,-143,-98,111,-318,-447,-354,-305,-265
-202,-138,65,170,-133,-36,68,-142,-244,-194,-173,-168
-109,-80,29,94,-69,-25,47,-19,-103,-85,-90,-97
-106,-59,47,82,-76,-6,49,10,-91,-82,-92,-93
-70,-47,23,59,-46,-12,33,38,-44,-49,-59,-68
-58,-45,12,51,-35,-16,33,67,-30,-48,-59,-70
-30,-31,-1,30,-14,-16,18,87,-5,-27,-39,-49
-6,-31,-25,19,10,-28,27,117,27,-16,-30,-39
13,-18,-30,2,22,-24,25,150,44,9,5,-23
11,-18,-29,3,21,-23,4,178,77,32,29,-8
50,8,-41,-29,46,-16,-2,218,112,54,42,11
94,36,-57,-65,75,-10,-9,273,170,101,76,37
105,41,-64,-73,84,-11,-17,322,208,126,100,54
138,54,-84,-96,111,-14,-24,381,268,163,141,90
168,70,-98,-119,133,-14,-32,435,334,209,182,127
208,106,-102,-157,155,2,-33,479,381,254,220,164
223,127,-96,-175,159,16,-47,509,415,282,255,193
242,149,-92,-195,167,28,-56,505,429,294,272,208
258,170,-88,-214,172,41,-50,482,433,309,266,212
223,164,-60,-193,141,52,-48,415,390,287,247,204
181,150,-32,-165,106,59,-43,318,306,242,223,180
123,104,-19,-113,70,43,-40,224,206,174,159,125
63,58,-5,-61,33,27,-36,133,109,97,88,72
21,22,0,-22,10,11,-29,69,32,41,33,20
-3,-3,0,3,-1,-2,-24,22,-25,-9,-18,-24
-32,-32,0,32,-16,-16,-19,-12,-58,-42,-43,-39
-58,-58,0,58,-28,-28,-16,-29,-80,-55,-51,-52
-52,-52,0,52,-26,-26,-13,-36,-90,-54,-49,-58
-43,-47,-4,45,-19,-26,-8,-40,-88,-51,-45,-53
-30,-44,-14,37,-8,-28,-5,-40,-84,-49,-44,-50
-20,-38,-19,29,0,-28,-1,-40,-81,-45,-39,-47
-21,-35,-14,29,-3,-25,0,-41,-76,-46,-42,-42
-29,-40,-11,35,-9,-25,0,-39,-76,-50,-45,-40
-37,-45,-8,41,-14,-26,5,-46,-83,-49,-46,-44
-46,-49,-3,48,-21,-26,5,-52,-89,-53,-49,-49
-48,-48,0,48,-24,-24,5,-51,-94,-56,-51,-52
-48,-44,4,46,-26,-20,5,-49,-95,-55,-49,-56
-56,-45,10,50,-33,-17,5,-55,-98,-60,-53,-58
-57,-41,15,49,-36,-13,5,-70,-111,-70,-69,-61
-61,-39,22,50,-42,-9,5,-75,-117,-79,-71,-64
-64,-41,24,52,-44,-8,5,-78,-123,-80,-69,-65
-64,-45,20,54,-41,-12,1,-83,-126,-80,-71,-68
-65,-45,20,55,-42,-12,-1,-89,-125,-79,-69,-70
-65,-47,18,56,-41,-14,0,-96,-136,-82,-72,-72
-67,-53,14,59,-40,-19,0,-99,-146,-93,-76,-76
-73,-57,16,64,-44,-20,1,-100,-144,-98,-75,-83
-70,-60,11,65,-40,-24,-1,-100,-146,-100,-75,-86
-66,-56,10,61,-38,-22,-5,-100,-150,-100,-75,-85
-64,-55,9,59,-36,-22,-5,-100,-149,-100,-74,-85
-61,-55,6,58,-33,-24,-5,-98,-153,-100,-77,-85
-59,-55,4,56,-31,-26,-5,-95,-155,-100,-80,-85
-63,-55,8,58,-35,-23,-5,-92,-155,-100,-84,-80
-86,-57,28,71,-57,-14,-1,-89,-158,-96,-85,-80
-91,-60,31,75,-61,-15,0,-85,-161,-95,-85,-78
-82,-60,22,71,-52,-18,0,-85,-159,-95,-89,-75
-84,-63,20,73,-52,-21,5,-90,-156,-95,-90,-74
-81,-66,15,73,-47,-25,5,-90,-155,-95,-89,-78
-74,-64,10,69,-42,-26,6,-88,-154,-94,-84,-87
-73,-59,14,66,-43,-22,10,-83,-149,-90,-79,-85
-61,-46,15,53,-38,-15,12,-80,-151,-87,-75,-78
-56,-39,18,47,-37,-10,16,-76,-146,-83,-70,-73
-62,-23,39,42,-50,7,18,-72,-128,-81,-66,-67
-42,10,52,16,-47,31,22,-69,-118,-73,-59,-60
-32,20,53,6,-42,36,7,-75,-109,-60,-47,-56
1,47,46,-24,-23,46,-27,-78,-107,-54,-34,-49
36,75,39,-56,-2,56,-47,-81,-110,-56,-30,-48
32,70,38,-51,-3,54,-60,-109,-110,-52,-37,-41
25,49,24,-38,1,36,-56,-112,-112,-50,-53,-42
12,38,26,-25,-7,31,-52,-106,-118,-50,-45,-33
-2,3,5,-1,-4,4,-49,-101,-111,-61,-48,-41
-55,-44,11,49,-33,-16,-23,-98,-135,-98,-85,-83
-57,-63,-7,60,-25,-35,-8,-93,-151,-108,-93,-94
-67,-64,4,66,-35,-30,10,-87,-142,-109,-100,-100
-80,-78,2,79,-41,-38,9,-84,-140,-91,-87,-86
-88,-99,-12,94,-38,-55,33,-64,-125,-99,-106,-111
-117,-62,56,89,-86,-3,49,-44,-99,-69,-58,-80
6,-119,-126,56,66,-122,80,151,84,49,35,-14
476,205,-271,-340,373,-33,-167,182,441,482,527,465
1097,582,-514,-839,805,34,-682,-220,580,901,1145,1119
668,274,-394,-471,531,-60,-517,-563,-30,275,500,607
-170,-14,156,92,-163,71,-11,-597,-667,-455,-321,-167
-227,-154,73,190,-150,-40,147,-409,-569,-437,-332,-266
-153,-208,-55,180,-49,-131,137,-196,-329,-278,-244,-214
-92,-105,-13,99,-39,-58,84,-30,-146,-121,-114,-104
-58,-68,-11,64,-23,-39,81,49,-53,-66,-61,-66
-48,-56,-8,53,-20,-32,67,73,-46,-41,-44,-56
-6,-48,-42,27,18,-45,60,111,-10,-13,-25,-43
-5,-38,-33,22,14,-35,56,129,2,-5,-25,-38
17,-26,-43,5,30,-34,46,154,34,19,2,-17
25,-19,-44,-3,35,-31,41,165,49,18,8,-10
37,-7,-44,-14,41,-25,36,193,76,44,28,10
43,-5,-48,-19,46,-26,49,231,114,53,38,19
80,10,-70,-45,75,-30,41,259,145,70,57,40
138,55,-83,-96,110,-14,32,316,203,118,109,74
170,70,-99,-120,134,-14,25,369,260,158,143,100
191,83,-108,-137,149,-12,14,420,318,198,161,125
219,120,-100,-169,160,10,7,473,372,239,204,165
247,147,-100,-197,173,23,-3,506,412,275,245,199
261,166,-95,-213,178,35,-11,521,456,304,269,223
279,184,-95,-231,187,44,-24,511,468,336,293,249
262,184,-78,-223,169,53,-28,477,451,335,307,252
235,186,-50,-210,142,68,-13,408,406,302,290,237
210,184,-27,-197,118,78,-1,307,311,251,234,194
140,126,-14,-132,77,55,11,207,206,176,157,137
95,85,-10,-90,53,37,33,125,118,102,99,78
60,53,-7,-56,33,23,42,67,45,41,54,25
14,12,-1,-13,7,5,39,29,-9,8,-3,-6
-4,7,11,-2,-8,9,39,2,-46,-25,-32,-21
1,1,0,-1,0,1,32,-13,-67,-51,-42,-27
4,-4,-8,0,6,-6,41,-27,-75,-46,-55,-38
-8,-10,-2,10,-3,-6,60,-35,-70,-41,-48,-36
-13,-14,-1,14,-6,-7,60,-36,-65,-38,-40,-30
-14,-10,3,12,-8,-3,60,-40,-62,-32,-35,-25
-14,-10,4,12,-9,-3,60,-43,-56,-30,-26,-20
-22,-9,14,15,-18,2,60,-45,-55,-30,-28,-12
-26,-5,21,15,-23,8,58,-47,-55,-30,-30,-13
-20,-5,15,12,-17,5,54,-51,-55,-30,-31,-33
-16,-3,13,9,-14,5,52,-53,-55,-30,-35,-36
-4,4,9,0,-7,6,49,-56,-55,-29,-35,-35
-16,-12,4,13,-9,-4,45,-59,-55,-46,-41,-40
-48,-27,21,38,-34,-3,46,-61,-67,-58,-48,-39
-56,-24,32,40,-44,3,48,-65,-83,-58,-52,-42
-55,-25,29,40,-41,1,61,-66,-87,-63,-63,-45
-55,-25,31,40,-43,2,70,-71,-92,-64,-70,-45
-55,-25,29,40,-41,2,62,-69,-96,-69,-70,-45
-55,-25,31,40,-43,3,58,-72,-99,-83,-70,-48
-46,-20,25,33,-36,2,52,-92,-100,-85,-69,-52
-37,-17,20,27,-28,2,45,-96,-100,-85,-73,-57
-28,-13,14,20,-21,0,54,-94,-100,-85,-75,-60
-20,-10,10,15,-15,0,60,-95,-100,-85,-76,-62
-7,-5,2,6,-4,-1,53,-95,-97,-84,-80,-65
-12,-7,4,9,-8,-1,49,-94,-95,-81,-81,-68
-55,-12,44,33,-49,15,46,-89,-95,-78,-84,-71
-68,-15,53,42,-60,18,39,-91,-92,-75,-87,-66
-65,-20,46,42,-56,13,49,-87,-89,-73,-89,-65
-66,-20,46,43,-56,12,57,-84,-92,-68,-93,-65
-60,-20,40,40,-50,10,51,-85,-104,-75,-95,-60
-59,-18,41,39,-50,11,51,-81,-106,-86,-93,-60
-44,-11,34,27,-39,11,45,-78,-105,-85,-88,-61
-33,-5,28,18,-30,12,46,-73,-106,-85,-86,-71
-11,2,14,4,-13,8,39,-72,-105,-85,-82,-71
-11,10,21,1,-17,15,46,-64,-104,-85,-77,-62
-23,14,37,5,-31,25,67,-71,-87,-82,-75,-56
-17,28,44,-6,-31,36,63,-90,-70,-69,-53,-49
-30,35,65,-3,-47,50,73,-90,-62,-58,-23,-43
-6,53,58,-24,-32,55,44,-90,-54,-55,-20,-34
36,85,49,-61,-7,67,9,-89,-49,-55,-20,-21
55,101,46,-78,4,73,9,-99,-51,-56,-17,-13
48,85,36,-67,6,60,2,-117,-49,-53,-13,-18
51,80,29,-66,10,54,-3,-128,-50,-57,-17,-31
68,58,-10,-63,39,24,-8,-126,-56,-55,-30,-33
19,0,-19,-9,19,-10,27,-116,-77,-77,-58,-51
-18,-10,8,14,-12,-1,44,-117,-105,-103,-73,-59
-39,-45,-6,42,-17,-25,46,-102,-109,-114,-103,-78
-60,-30,30,45,-44,0,37,-108,-109,-109,-99,-79
-61,-49,12,55,-37,-18,44,-82,-97,-108,-97,-91
-38,-7,30,22,-34,12,74,-86,-108,-115,-109,-89
-19,-46,-27,33,4,-37,88,32,5,-24,-28,-42
208,-27,-235,-91,222,-130,52,241,321,234,232,163
900,509,-391,-705,645,59,-395,-2,665,856,1036,977
947,470,-477,-708,712,-4,-598,-355,448,791,1064,1096
147,31,-116,-89,131,-42,-107,-459,-366,-197,-40,107
-224,-96,128,160,-176,16,201,-391,-624,-533,-436,-306
-193,-216,-24,205,-84,-120,221,-231,-394,-376,-312,-245
-112,-150,-38,132,-37,-94,177,-117,-199,-217,-174,-151
-54,-72,-18,63,-17,-45,125,-14,-33,-77,-55,-58
-47,-56,-8,52,-19,-32,116,23,3,-55,-50,-57
11,-19,-30,4,21,-24,103,47,40,-20,-17,-36
33,-10,-43,-11,38,-26,102,71,53,-19,-24,-37
40,1,-38,-21,39,-18,89,84,77,-3,2,-10
48,8,-41,-28,44,-16,86,112,117,2,30,15
64,15,-49,-39,56,-17,75,127,132,13,45,29
90,30,-60,-60,75,-15,66,165,165,49,49,33
91,41,-50,-66,71,-4,78,198,202,89,84,46
105,36,-69,-70,87,-17,73,232,244,119,116,80
133,68,-66,-100,99,1,65,276,287,146,128,104
154,72,-82,-113,118,-5,58,326,357,193,170,118
204,79,-126,-141,165,-23,50,380,415,225,209,121
254,126,-128,-190,191,-1,44,410,456,271,258,124
258,138,-120,-197,188,9,39,433,500,309,284,127
272,157,-116,-214,194,20,41,447,508,326,305,147
269,165,-104,-217,187,30,37,426,498,334,314,166
259,185,-74,-222,166,55,35,361,467,319,291,154
224,199,-26,-211,125,86,34,276,398,282,257,123
147,149,2,-148,72,75,43,195,298,216,206,76
94,105,11,-99,41,58,54,122,193,134,144,35
59,72,13,-66,22,43,56,64,115,63,69,-36
36,43,7,-40,15,25,65,13,53,12,12,-88
-8,26,34,-10,-21,30,64,-32,20,-18,-23,-103
-18,15,33,1,-26,24,70,-51,10,-32,-56,-131
1,10,9,-6,-4,10,81,-50,5,-50,-64,-127
-17,5,21,5,-19,13,74,-52,-3,-60,-55,-118
-26,0,26,13,-26,13,71,-57,-9,-60,-49,-114
-31,-7,24,19,-27,8,66,-60,-16,-60,-43,-105
-31,-9,22,20,-27,6,61,-60,-29,-60,-34,-101
-21,-3,18,12,-20,8,58,-60,-31,-61,-42,-111
-19,3,22,8,-21,12,53,-60,-30,-57,-60,-121
-22,7,30,7,-26,18,50,-61,-27,-55,-59,-121
-14,14,28,-1,-21,21,47,-59,-25,-54,-53,-125
-2,19,20,-9,-11,19,42,-64,-25,-56,-52,-127
0,17,17,-9,-9,17,40,-69,-38,-54,-45,-130
2,11,9,-7,-4,10,44,-71,-53,-56,-46,-130
2,7,5,-5,-2,6,47,-82,-53,-66,-75,-130
-19,5,23,7,-21,14,54,-90,-63,-67,-88,-130
-46,-14,33,30,-39,9,59,-95,-74,-85,-83,-130
-41,-13,29,27,-35,8,55,-95,-75,-92,-86,-135
-28,3,31,12,-29,17,51,-102,-75,-89,-84,-135
-33,-4,29,18,-31,13,49,-113,-75,-96,-86,-138
-43,-12,31,28,-37,9,44,-119,-75,-94,-90,-140
-47,-20,27,33,-37,4,40,-124,-74,-95,-94,-142
-52,-28,24,40,-38,-2,42,-120,-77,-95,-85,-141
-68,-42,26,54,-46,-8,46,-120,-81,-95,-81,-139
-65,-44,21,54,-43,-12,44,-120,-78,-95,-105,-140
-58,-38,20,48,-39,-9,41,-120,-75,-95,-112,-140
-54,-35,19,44,-36,-7,40,-120,-72,-95,-105,-140
-44,-29,16,36,-30,-6,39,-116,-70,-98,-105,-137
-40,-26,13,33,-26,-6,35,-113,-68,-101,-100,-134
-33,-23,10,28,-21,-6,34,-109,-64,-100,-100,-135
-29,-21,8,24,-18,-6,44,-106,-62,-100,-105,-135
-21,-17,4,18,-12,-6,51,-100,-59,-100,-105,-135
-25,-15,9,20,-16,-3,45,-104,-56,-100,-107,-135
-38,-12,26,25,-32,7,43,-111,-55,-101,-110,-130
-39,-7,32,23,-35,12,39,-110,-50,-100,-111,-123
-26,2,28,12,-27,15,33,-109,-42,-101,-106,-116
-35,6,41,15,-39,23,44,-104,-35,-92,-94,-109
-41,17,58,11,-49,37,50,-106,-30,-75,-77,-102
-6,48,53,-21,-30,50,46,-102,-21,-65,-63,-97
8,69,62,-39,-27,65,33,-100,-21,-55,-56,-91
8,66,58,-37,-25,62,3,-119,-19,-49,-49,-85
13,78,66,-46,-27,72,-9,-137,-21,-51,-43,-81
12,84,72,-48,-31,78,-16,-152,-41,-48,-34,-74
18,49,31,-34,-6,39,-22,-155,-55,-52,-32,-67
29,32,3,-30,13,17,-21,-157,-62,-49,-32,-54
-5,-15,-10,10,3,-12,-3,-157,-63,-74,-68,-96
-43,-40,3,42,-22,-18,7,-164,-88,-110,-98,-138
-66,-78,-11,72,-28,-44,19,-154,-96,-124,-106,-145
-81,-64,17,72,-49,-23,32,-155,-95,-127,-102,-149
-81,-83,-1,82,-40,-42,24,-136,-76,-107,-101,-146
-104,-78,26,91,-65,-26,48,-125,-82,-124,-120,-148
-52,-38,14,45,-33,-11,66,-54,-33,-50,-43,-101
106,-58,-164,-24,135,-111,60,158,263,186,159,43
655,422,-233,-538,444,94,-315,26,635,823,952,838
938,484,-454,-711,696,15,-606,-309,545,968,1240,1208
255,-17,-272,-119,264,-144,-195,-459,-241,-65,102,195
-223,-149,74,186,-148,-37,139,-441,-656,-591,-499,-402
-201,-234,-34,217,-83,-134,184,-294,-434,-412,-343,-315
-151,-186,-35,169,-58,-110,156,-165,-212,-243,-223,-230
-73,-92,-19,83,-27,-55,91,-59,-39,-72,-81,-129
-44,-70,-26,57,-9,-48,84,-21,9,-52,-73,-112
-41,-39,2,40,-21,-18,71,-18,37,-32,-47,-85
-50,-36,14,43,-32,-10,65,2,51,-17,-34,-80
-21,-18,3,20,-12,-7,57,28,66,0,-26,-63
10,-21,-30,6,20,-25,75,49,103,27,-9,-45
16,-16,-31,0,24,-23,82,64,123,34,3,-30
31,-12,-44,-9,38,-27,78,100,164,60,41,-8
41,10,-31,-26,36,-10,81,126,201,93,75,2
60,42,-19,-51,39,11,79,151,244,111,98,22
114,60,-55,-87,85,2,80,197,288,144,112,51
145,77,-68,-112,106,4,74,257,346,201,156,90
175,99,-76,-137,126,11,70,300,405,245,206,130
200,129,-71,-164,135,29,62,342,470,291,247,170
224,148,-76,-186,149,36,61,372,515,331,287,199
238,176,-62,-207,150,57,46,392,530,362,311,218
235,189,-45,-212,140,72,70,380,531,367,310,236
269,191,-78,-229,173,56,53,321,501,353,304,240
224,191,-32,-207,128,79,-13,248,432,320,281,216
