I,II,III,aVR,aVL,aVF,V1,V2,V3,V4,V5,V6
-5,-31,-27,18,11,-28,-5,20,35,20,-15,20
-5,-35,-30,20,13,-32,-1,26,35,24,-13,20
-11,-24,-14,18,2,-19,6,34,39,30,-7,23
-4,2,6,1,-6,4,13,42,40,35,-4,27
8,38,31,-23,-12,34,18,49,55,38,1,28
22,68,46,-45,-12,56,15,44,65,44,6,37
33,78,45,-56,-6,61,3,34,61,58,10,56
26,71,44,-49,-9,57,-33,27,59,63,11,69
18,64,47,-42,-15,55,-58,16,55,59,13,71
36,56,20,-46,8,38,-85,14,53,61,17,60
61,50,-11,-55,36,19,-90,7,49,59,12,48
44,38,-6,-40,24,15,-37,5,48,50,9,38
0,1,1,0,0,1,-7,17,43,31,1,29
-29,-36,-7,33,-11,-21,2,20,36,17,-1,26
-39,-51,-12,45,-14,-31,9,22,37,16,-6,20
-31,-50,-20,41,-6,-35,2,10,24,12,-11,16
-23,-50,-26,37,1,-38,7,20,31,19,-2,12
-19,-50,-31,35,6,-40,3,0,17,9,-10,10
-14,-51,-36,33,11,-43,7,22,34,23,3,19
-24,-48,-24,36,0,-36,5,8,17,12,-8,13
-11,-48,-37,29,14,-42,10,18,30,35,9,27
-14,-40,-26,27,6,-33,20,28,25,29,-9,17
-2,-45,-43,24,20,-44,6,-6,16,42,8,34
-55,-35,21,45,-38,-7,119,249,151,41,-38,-20
-195,-121,74,158,-135,-24,470,100,-188,-345,-367,-186
-252,-192,60,222,-155,-66,538,-661,-851,-817,-646,-214
-181,1,182,90,-182,92,-293,-1574,-1549,-1326,-921,-80
69,55,-14,-62,41,21,-911,-1672,-1559,-1263,-764,173
103,-70,-174,-16,139,-122,-539,-791,-714,-572,-316,146
-15,-74,-59,45,22,-66,-153,-232,-200,-185,-142,0
18,-55,-72,19,45,-63,-50,-21,29,23,17,41
12,-46,-57,17,35,-51,-22,45,102,91,57,36
20,-34,-54,7,37,-44,-14,70,115,112,73,52
21,-29,-50,4,36,-40,2,105,150,142,100,55
20,-23,-43,2,32,-33,-2,98,141,141,100,55
38,-20,-58,-9,48,-39,1,122,175,166,118,62
43,-14,-58,-14,51,-36,-1,113,173,165,115,60
51,-11,-62,-20,57,-36,0,122,181,175,126,68
49,-10,-59,-20,54,-34,0,123,183,176,127,61
50,-10,-60,-20,55,-35,0,125,184,181,133,61
50,-10,-60,-20,55,-35,0,126,190,186,134,60
49,-10,-59,-19,54,-34,0,124,189,189,129,60
43,-10,-53,-16,48,-31,0,125,187,187,126,60
38,-9,-47,-14,43,-28,0,117,179,179,122,59
41,-1,-41,-20,41,-21,4,111,175,175,119,54
48,11,-37,-29,42,-13,5,104,169,169,116,45
46,19,-27,-32,37,-4,5,98,163,163,108,40
39,30,-9,-35,24,10,6,85,142,142,89,30
14,31,18,-23,-2,24,5,61,110,109,57,25
-6,37,42,-16,-24,39,6,26,72,72,19,14
-8,51,59,-22,-33,55,11,-11,24,25,-21,-9
-31,48,79,-9,-55,63,17,-50,-19,-23,-65,-21
-51,40,91,5,-72,66,20,-62,-54,-66,-106,-34
-55,35,90,10,-73,62,25,-50,-66,-86,-121,-39
-54,26,80,14,-67,53,30,-43,-55,-79,-110,-30
-40,22,62,9,-52,42,27,-33,-45,-71,-100,-24
-30,13,43,8,-37,28,21,-23,-33,-63,-90,-18
-34,-6,27,20,-30,10,16,-10,-20,-56,-72,-11
-23,-5,18,13,-20,6,13,-1,-11,-49,-55,-7
-11,9,20,1,-15,14,7,4,-6,-44,-47,-4
-4,16,20,-6,-13,18,6,9,-1,-38,-39,-1
0,16,16,-9,-9,16,10,12,2,-33,-30,2
-2,9,11,-4,-7,10,12,17,8,-27,-25,5
0,6,6,-3,-4,6,15,22,9,-21,-25,4
-2,1,3,0,-2,2,18,25,5,-16,-25,-1
-1,-4,-3,3,1,-3,21,25,5,-11,-25,-6
-1,-8,-6,5,3,-7,16,25,5,-5,-25,-10
-2,-14,-12,8,6,-13,15,25,5,-1,-25,-15
0,-19,-19,10,10,-19,15,25,5,-5,-22,-20
0,-26,-26,13,13,-26,10,25,8,-5,-19,-17
4,-29,-33,13,19,-31,10,25,11,-6,-20,-14
7,-25,-32,10,20,-28,9,25,10,-10,-20,-11
7,-20,-27,6,18,-23,5,25,10,-10,-20,-8
9,-16,-24,4,17,-20,6,25,10,-8,-19,-6
9,-12,-21,1,15,-16,2,25,11,-4,-15,-3
10,-6,-16,-2,14,-11,0,25,16,-5,-15,0
7,-7,-15,0,11,-11,0,25,19,-1,-13,3
5,-11,-15,3,10,-12,-4,25,22,0,-9,5
5,-10,-15,3,10,-12,-5,25,27,0,-10,9
5,-10,-15,3,10,-12,-5,25,30,5,-10,10
5,-10,-15,3,10,-12,-10,29,26,4,-10,10
5,-10,-15,3,10,-12,-10,30,24,7,-10,10
5,-10,-15,3,10,-12,-8,30,25,10,-10,10
5,-10,-15,3,10,-12,-5,30,25,10,-10,10
5,-10,-15,3,10,-12,-2,30,25,12,-9,10
7,-8,-15,1,11,-11,0,29,25,16,-4,11
15,-1,-15,-7,15,-8,4,24,25,18,1,15
19,6,-14,-12,16,-4,5,26,25,21,5,17
13,13,0,-13,7,6,10,24,24,25,10,20
4,18,13,-11,-5,15,20,36,36,24,14,23
3,29,26,-16,-12,27,31,56,56,39,20,25
21,72,50,-47,-15,61,36,61,63,55,30,29
29,96,67,-63,-19,82,15,65,60,60,41,41
31,94,62,-63,-16,78,-21,60,61,67,46,54
67,111,44,-89,11,77,-57,39,60,59,39,50
95,109,14,-102,41,61,-84,29,61,56,33,41
87,76,-10,-81,49,33,-66,33,59,49,26,32
50,32,-18,-41,34,7,-21,42,58,44,19,24
9,-14,-23,3,16,-18,-4,39,50,38,15,15
-6,-39,-33,23,14,-36,2,39,46,35,21,9
-14,-53,-39,34,13,-46,13,43,44,36,24,0
-12,-56,-44,34,17,-50,18,34,34,33,26,-8
-10,-50,-40,30,15,-45,22,49,39,39,34,-6
-10,-49,-39,29,15,-44,18,35,21,29,31,-6
-3,-46,-43,24,20,-44,23,57,41,47,38,-2
-7,-42,-35,25,14,-38,29,32,18,30,21,-5
9,-38,-47,14,28,-42,36,56,42,54,41,7
3,-23,-27,10,15,-25,37,36,20,34,17,-9
14,-22,-36,5,25,-29,25,36,41,58,44,1
-73,-25,47,49,-60,11,171,292,135,24,-51,-67
-266,-129,137,197,-201,4,572,5,-286,-388,-399,-225
-309,-159,149,234,-229,-5,526,-819,-943,-838,-651,-215
-153,55,208,49,-181,131,-417,-1660,-1566,-1287,-874,-48
114,91,-23,-102,68,34,-915,-1565,-1416,-1107,-659,168
111,-26,-137,-42,124,-81,-469,-649,-595,-456,-263,88
-22,-52,-30,37,4,-41,-123,-167,-156,-122,-109,-52
-4,-54,-50,29,23,-52,-37,36,56,79,47,6
-13,-42,-29,28,8,-36,-4,96,109,121,77,14
-5,-38,-33,22,14,-36,3,120,141,141,96,23
-10,-31,-20,21,5,-25,7,152,168,169,113,25
4,-24,-29,10,17,-26,3,142,166,186,116,28
31,-21,-53,-5,42,-37,6,160,191,197,134,32
30,-18,-47,-6,39,-33,4,153,191,195,148,29
28,-16,-44,-6,37,-30,6,163,209,202,157,30
46,-12,-57,-16,52,-34,19,163,211,201,158,40
60,-10,-70,-25,65,-40,21,160,216,218,160,54
-16,-7,8,12,-12,1,23,179,222,223,166,59
12,-4,-16,-3,14,-10,30,191,227,236,192,68
63,-5,-68,-28,66,-37,22,179,218,209,163,42
20,-1,-21,-9,21,-11,14,170,205,185,141,23
22,0,-22,-11,22,-11,6,160,195,185,141,21
20,0,-20,-10,20,-10,-2,144,182,174,131,15
16,7,-9,-11,12,-1,-5,129,164,172,130,12
11,15,4,-13,3,9,-4,108,132,158,118,7
-18,23,41,-3,-30,32,-7,78,104,132,91,1
-36,30,66,3,-51,48,-10,40,65,76,48,-16
-42,39,81,1,-62,60,-11,1,16,24,0,-40
-60,38,98,11,-79,68,-5,-33,-25,-13,-39,-52
-92,28,119,32,-106,73,2,-39,-53,-56,-79,-59
-106,20,126,42,-116,72,13,-27,-58,-76,-89,-63
-91,10,102,40,-97,56,33,-18,-47,-83,-77,-52
-61,2,63,29,-62,32,36,-7,-38,-66,-68,-45
-44,-3,41,23,-42,19,34,1,-28,-45,-57,-45
-63,-10,53,36,-58,21,36,30,-17,-39,-48,-38
-43,-14,29,29,-36,7,34,52,-9,-27,-37,-28
-25,-10,15,17,-20,2,35,49,0,-18,-29,-17
-40,-10,30,24,-35,9,32,51,7,-11,-24,-15
-29,-9,20,19,-24,5,27,49,14,-4,-19,-15
-26,-5,21,15,-23,7,24,50,20,2,-13,-11
-21,-5,17,13,-18,6,20,48,20,10,-7,-10
-21,-7,14,14,-17,3,17,44,24,14,-7,-10
-24,-13,12,18,-18,0,13,45,25,11,-13,-16
-25,-16,8,21,-16,-4,10,41,27,6,-16,-22
-28,-21,7,24,-18,-7,10,40,31,4,-21,-26
-25,-26,-1,25,-12,-13,10,40,29,-1,-25,-32
-36,-29,7,33,-22,-11,10,40,34,-5,-19,-38
-52,-30,22,41,-37,-4,10,40,35,-3,-14,-38
-50,-30,20,40,-35,-5,13,40,35,2,-9,-31
-50,-30,20,40,-35,-5,18,40,40,5,-3,-24
-51,-30,20,41,-36,-5,19,40,40,8,2,-18
-47,-28,19,37,-33,-4,15,40,40,13,8,-10
-46,-25,21,35,-33,-1,15,40,40,15,10,-6
-35,-25,10,30,-22,-7,15,40,39,27,13,-19
-22,-22,0,22,-11,-11,15,40,43,36,16,-17
-1,-19,-18,10,8,-18,15,40,45,34,19,-8
10,-21,-31,6,21,-26,12,39,45,35,20,-3
0,-13,-13,7,7,-13,9,36,48,35,15,5
16,-10,-25,-3,21,-17,6,34,51,35,15,9
18,-3,-21,-7,20,-12,3,36,49,37,13,5
14,3,-12,-8,13,-4,-1,34,46,41,10,5
20,6,-13,-13,16,-3,1,36,44,44,9,4
-5,9,15,-2,-10,12,-2,35,39,48,13,-1
-17,-43,-26,30,5,-34,16,48,46,50,18,1
13,-13,-26,0,19,-19,38,74,52,50,17,-3
49,44,-5,-46,27,19,33,71,49,50,13,-3
34,19,-16,-26,25,1,30,64,48,50,23,6
25,55,30,-40,-3,43,27,60,43,51,43,14
34,100,66,-67,-16,83,22,53,55,50,46,22
34,113,79,-74,-23,96,-8,49,67,49,45,30
72,124,52,-98,10,88,-48,45,65,43,46,42
81,128,47,-105,17,87,-70,45,65,40,63,47
101,120,20,-111,40,70,-84,44,66,54,74,54
138,85,-53,-111,95,16,-61,38,64,52,65,57
103,41,-62,-72,82,-11,-16,42,63,46,49,33
57,3,-54,-30,55,-25,-3,43,54,39,16,3
21,-36,-57,8,39,-46,1,46,53,37,10,-3
1,-53,-53,26,27,-52,6,43,48,33,10,-10
7,-49,-56,22,32,-52,9,36,40,30,7,-14
4,-50,-55,24,29,-52,17,43,43,30,6,-21
4,-49,-54,23,29,-51,8,24,27,19,2,-20
7,-51,-58,22,33,-54,8,45,44,35,7,-19
-1,-47,-47,25,23,-47,-7,13,14,19,-10,-23
3,-37,-41,17,22,-39,-5,48,44,44,13,-14
-8,-19,-11,14,1,-15,-19,12,5,13,-17,-29
10,-12,-22,2,16,-17,-17,53,53,50,22,-7
-56,-25,31,40,-43,3,166,289,115,-43,-111,-122
-215,-138,77,176,-146,-30,514,-32,-336,-458,-442,-257
-238,-123,115,180,-176,-4,411,-800,-965,-882,-667,-202
-88,143,231,-28,-160,187,-474,-1565,-1560,-1311,-871,22
105,144,40,-125,32,92,-824,-1353,-1273,-1002,-566,240
80,-23,-103,-28,92,-63,-369,-494,-466,-374,-199,45
6,-54,-60,24,34,-57,-97,-126,-119,-113,-83,-76
23,-62,-84,20,54,-73,-26,26,69,70,61,5
16,-53,-69,19,43,-61,-10,59,83,77,63,-18
27,-51,-78,13,52,-64,-2,99,114,110,100,-6
29,-45,-74,9,52,-60,5,124,132,134,122,-1
36,-35,-71,0,54,-53,7,119,133,141,129,23
43,-28,-71,-7,57,-49,17,131,160,163,141,40
47,-20,-67,-13,57,-44,17,127,156,153,140,39
36,-28,-64,-3,50,-46,17,147,180,169,156,46
38,-34,-72,-2,55,-53,11,139,174,171,158,45
59,-31,-90,-14,75,-60,9,141,176,178,165,51
55,-25,-79,-15,67,-51,4,140,175,181,163,48
55,-17,-72,-19,64,-44,0,135,170,177,158,43
53,-12,-64,-20,59,-38,2,136,171,175,155,38
54,-3,-57,-25,56,-30,5,134,168,170,151,32
50,-1,-51,-24,51,-26,8,125,159,167,148,26
37,-8,-45,-14,41,-26,11,115,146,162,145,21
42,8,-34,-25,38,-13,14,106,136,144,135,14
25,15,-9,-20,17,3,16,89,118,117,112,1
7,26,20,-17,-7,23,19,57,87,82,77,-11
-11,44,55,-17,-34,49,22,13,43,40,40,-22
-45,37,82,3,-64,60,24,-29,-4,-5,-2,-43
-50,32,83,9,-67,58,28,-62,-46,-62,-49,-65
-47,26,74,10,-61,50,30,-71,-81,-98,-81,-79
-45,21,66,12,-56,43,30,-60,-84,-93,-81,-76
-41,16,58,12,-50,37,30,-50,-72,-82,-69,-64
-42,9,51,16,-46,30,30,-36,-63,-73,-61,-56
-37,6,43,16,-40,24,30,-21,-52,-62,-50,-44
-33,-1,32,17,-33,15,30,-11,-43,-50,-41,-36
-29,-6,23,17,-25,8,29,-6,-32,-37,-33,-27
-24,-11,12,17,-18,0,26,-2,-23,-29,-24,-21
-24,-16,8,20,-16,-4,25,3,-12,-23,-19,-25
-23,-21,2,21,-12,-9,25,7,-3,-16,-13,-25
-24,-25,-1,24,-11,-13,25,11,3,-9,-10,-25
-15,-22,-6,19,-4,-14,25,20,7,-3,-5,-25
-6,-16,-11,11,3,-13,23,29,11,3,0,-25
-20,-11,9,16,-14,-1,17,33,16,5,-4,-21
-25,-8,17,16,-21,4,13,38,20,5,-6,-20
-16,-2,14,9,-15,6,9,41,25,5,-5,-20
-15,-1,14,8,-15,6,4,45,33,5,-5,-15
-15,-6,9,10,-12,1,-1,48,35,5,-5,-15
-15,-4,10,10,-12,2,-4,52,35,5,-4,-14
-15,-8,8,11,-11,0,-5,55,39,5,1,-10
-8,-10,-3,9,-2,-6,-5,55,40,4,4,-11
2,-10,-12,4,7,-11,-5,55,40,6,7,-7
0,-10,-11,5,6,-10,-5,55,46,3,12,-5
0,-10,-10,5,5,-10,-5,55,53,12,15,-5
-1,-11,-10,6,4,-10,-5,55,55,36,18,-1
3,-9,-12,3,8,-11,-5,54,55,41,23,1
4,-11,-15,4,10,-13,-5,50,55,39,26,0
7,-8,-15,1,11,-11,-5,50,55,41,29,5
10,-6,-15,-1,13,-11,-4,50,55,40,34,4
10,-4,-14,-2,13,-9,-1,50,55,40,37,7
38,-5,-43,-16,41,-24,0,50,55,40,40,17
52,-6,-58,-23,56,-31,-1,50,55,40,40,15
42,-2,-44,-19,43,-23,1,51,55,40,40,15
22,-32,-54,6,38,-43,-1,55,55,40,43,13
14,-25,-39,6,26,-31,3,55,54,40,46,10
15,-3,-18,-6,17,-10,13,54,57,42,45,10
18,-3,-21,-7,19,-12,22,57,64,45,45,15
20,18,-2,-19,10,8,36,55,70,48,45,25
35,50,14,-43,10,32,30,48,75,51,46,32
59,84,25,-72,16,55,15,40,73,62,60,42
58,91,33,-75,12,62,-1,35,70,66,66,45
81,100,20,-91,30,60,-35,23,67,58,67,49
98,106,8,-102,45,57,-61,27,64,55,71,54
107,90,-16,-98,61,37,-66,45,60,49,65,42
84,47,-37,-65,61,5,-35,49,59,45,60,30
26,-8,-34,-8,30,-21,9,49,61,42,52,20
-3,-37,-34,20,16,-35,25,42,58,38,45,15
-16,-47,-31,31,8,-38,26,49,63,42,41,10
-24,-52,-28,38,2,-40,24,39,55,37,31,3
-23,-59,-36,41,7,-47,26,51,66,44,34,0
-17,-56,-39,37,11,-47,24,39,52,36,25,-6
-13,-50,-37,32,12,-43,25,44,57,50,36,3
-17,-41,-24,29,4,-32,26,40,45,42,24,-3
-14,-39,-24,27,5,-31,22,33,42,45,34,3
-14,-25,-11,20,-1,-18,31,59,48,49,24,-3
-21,-29,-8,25,-6,-18,13,-1,13,33,11,2
-50,-22,29,36,-39,4,78,219,136,52,9,-26
-193,-95,98,144,-145,2,404,162,-116,-254,-282,-198
-297,-198,100,248,-198,-49,611,-481,-705,-685,-559,-256
-183,8,191,88,-187,99,-86,-1355,-1376,-1165,-807,-125
68,147,80,-107,-6,113,-889,-1679,-1567,-1247,-751,156
132,17,-115,-74,124,-49,-653,-897,-813,-626,-323,181
13,-53,-66,21,39,-59,-192,-258,-233,-197,-137,-43
-29,-65,-36,48,3,-50,-54,-32,10,20,12,-22
-38,-59,-21,49,-8,-39,-9,70,108,116,82,3
3,-52,-56,25,30,-54,-3,80,110,125,89,1
12,-47,-59,18,36,-53,2,119,150,163,114,18
7,-30,-37,12,22,-34,0,116,141,157,108,15
33,-20,-52,-6,43,-36,6,138,168,177,132,30
29,-18,-48,-5,39,-33,5,135,168,182,135,29
30,-26,-56,-2,44,-41,2,139,180,189,148,37
24,-28,-52,2,38,-39,0,144,188,197,153,34
31,-35,-66,2,49,-50,0,150,189,207,158,40
32,-32,-64,0,48,-48,-3,153,196,207,157,41
39,-12,-50,-13,45,-31,-6,148,190,201,152,39
46,0,-46,-23,46,-23,-4,151,185,199,151,41
38,4,-34,-21,36,-15,-1,149,177,194,147,39
36,6,-30,-20,32,-12,0,151,171,192,146,41
28,12,-17,-20,22,-2,-1,146,164,184,142,34
17,12,-4,-14,10,4,1,134,158,162,129,22
11,24,13,-17,-2,18,-1,111,134,139,107,11
-2,50,51,-24,-27,50,3,80,101,114,79,-1
-24,45,69,-11,-47,56,5,45,67,75,39,-15
-56,35,92,10,-74,63,6,15,17,28,4,-28
-90,29,119,30,-105,73,10,-16,-32,-22,-38,-46
-94,20,114,37,-104,67,10,-54,-66,-70,-71,-61
-88,16,104,36,-97,60,29,-68,-68,-80,-69,-61
-86,11,97,37,-92,54,36,-58,-57,-69,-64,-55
-66,9,75,28,-71,42,27,-34,-50,-62,-62,-49
-44,4,48,20,-46,26,25,-16,-42,-54,-49,-44
-38,1,39,19,-39,20,17,-10,-35,-46,-27,-35
-35,-2,32,18,-33,14,12,0,-26,-29,-18,-25
-33,-7,26,20,-29,9,10,7,-18,-20,-14,-16
-28,-12,16,19,-22,2,10,12,-9,-17,-9,-15
-29,-15,14,22,-21,0,10,15,-4,-13,-5,-15
-47,-15,32,31,-39,8,10,18,-1,-10,0,-10
-44,-15,29,29,-36,7,10,23,2,-6,-4,-10
-35,-15,20,25,-27,2,9,26,6,-3,-6,-11
-29,-15,14,22,-21,0,5,29,10,0,-5,-15
-19,-15,4,17,-11,-5,0,30,13,0,-6,-15
-17,-15,2,16,-9,-6,-5,34,15,0,-4,-15
-26,-15,12,20,-19,-1,-8,35,15,0,-7,-15
-41,-15,26,28,-33,5,-14,37,15,1,-10,-15
-42,-15,27,28,-34,6,-13,41,15,4,-10,-27
-36,-15,21,26,-28,3,-9,40,16,7,-14,-30
-31,-15,16,22,-23,1,-11,43,20,10,-15,-24
-23,-10,13,16,-18,1,-6,46,20,13,-11,-22
-17,-10,7,14,-12,-1,-5,44,20,15,-10,-17
-12,-9,4,10,-8,-2,-5,41,20,17,-10,-14
-4,-5,-1,5,-1,-2,0,38,20,20,-10,-11
0,-5,-5,3,3,-5,0,35,23,20,-10,-6
-1,-7,-7,4,3,-7,1,33,26,20,-9,-4
2,-10,-13,4,7,-11,5,29,29,20,-5,1
0,-13,-13,7,7,-13,5,33,32,20,-5,4
13,-15,-28,1,21,-22,3,35,35,25,-5,8
27,-15,-42,-6,35,-28,-2,35,40,28,-5,10
19,-15,-34,-2,27,-24,-5,42,44,33,-5,10
15,-15,-30,0,23,-23,-8,46,45,35,-2,14
10,-14,-24,3,17,-19,-13,45,45,35,4,15
3,-16,-18,7,11,-17,-15,45,45,35,8,15
2,-12,-14,6,8,-13,-10,45,45,35,13,19
0,-9,-9,5,4,-9,-7,45,46,35,18,22
1,-11,-11,5,6,-11,-3,50,52,41,21,25
12,14,2,-13,5,7,0,48,65,48,35,28
18,50,32,-34,-7,41,6,41,76,54,45,34
29,78,49,-54,-10,63,-2,37,79,61,55,51
51,94,44,-73,3,69,-39,32,76,60,69,63
57,92,35,-75,11,63,-75,25,70,53,64,60
54,80,26,-68,14,53,-90,21,66,50,71,63
60,76,16,-68,22,46,-91,25,62,45,82,57
44,48,4,-46,20,26,-61,27,55,40,76,40
4,-3,-7,0,5,-5,-24,35,57,37,62,32
-1,-24,-23,13,12,-23,-18,32,52,33,47,26
11,-32,-43,11,27,-38,-12,39,59,38,47,22
8,-46,-54,19,31,-50,-9,31,51,31,42,17
5,-47,-52,21,29,-49,-4,38,59,39,48,13
2,-40,-42,19,22,-41,1,34,53,31,41,9
7,-38,-45,16,27,-41,-1,37,60,37,48,17
1,-30,-31,15,16,-30,2,51,64,35,41,15
8,-30,-38,11,23,-34,-4,29,52,30,35,22
-7,-22,-15,15,4,-18,6,79,87,46,35,22
-14,-34,-20,24,3,-27,-9,-5,20,15,10,25
-7,-25,-18,16,5,-21,37,183,157,81,39,11
-131,-58,73,94,-101,7,342,272,28,-174,-209,-152
-227,-176,51,201,-139,-62,621,-347,-604,-654,-534,-246
-216,-47,168,131,-192,61,52,-1301,-1331,-1159,-802,-178
-17,88,105,-36,-61,96,-838,-1809,-1674,-1384,-835,54
161,4,-157,-82,159,-76,-741,-1105,-994,-792,-402,167
53,-29,-81,-12,67,-55,-248,-347,-303,-261,-134,-3
6,-26,-32,10,19,-29,-80,-77,-24,-14,27,-19
20,-20,-40,1,30,-30,-30,50,109,105,118,29
16,-14,-29,-1,23,-21,-21,60,114,109,111,32
31,-10,-41,-10,36,-25,-12,109,158,160,149,45
27,-2,-30,-12,29,-16,-9,101,150,161,145,41
39,-1,-40,-19,40,-20,-3,114,165,186,165,51
43,3,-40,-23,41,-18,4,123,172,192,165,50
63,5,-58,-33,60,-26,2,133,187,199,177,56
73,9,-64,-41,69,-27,0,148,196,201,182,59
66,10,-56,-38,61,-23,0,148,195,199,179,60
67,14,-53,-40,60,-19,0,152,201,208,192,61
60,15,-45,-37,52,-15,0,149,192,204,190,64
59,18,-42,-38,50,-12,0,151,192,206,185,66
55,20,-35,-38,45,-7,0,146,187,205,177,64
46,21,-25,-33,35,-2,0,139,183,205,171,55
51,36,-15,-43,33,10,0,132,181,206,163,46
42,41,-2,-41,22,19,0,127,174,194,143,38
33,41,8,-37,12,24,0,119,160,170,120,28
16,45,30,-31,-8,38,2,109,144,148,95,18
-19,45,64,-13,-42,54,8,84,112,110,56,2
-28,46,74,-9,-52,60,12,47,64,64,11,-9
-35,45,80,-5,-58,62,16,1,16,26,-32,-29
-59,45,103,7,-81,74,21,-35,-33,-16,-72,-35
-68,40,108,14,-88,74,25,-33,-51,-50,-98,-34
-42,40,82,0,-61,60,33,-26,-45,-54,-99,-39
-20,39,59,-10,-40,49,37,-19,-39,-45,-87,-30
-23,25,48,-1,-36,36,33,-13,-34,-40,-78,-22
-29,12,41,9,-36,26,31,-4,-28,-31,-67,-14
-40,0,39,20,-39,19,28,8,-18,-17,-58,-12
-37,-3,34,19,-35,15,24,20,-5,-3,-47,-16
-30,0,29,15,-30,14,28,36,3,5,-40,-14
-25,1,25,12,-25,13,30,41,9,9,-37,-16
-24,-4,20,14,-22,7,31,40,12,8,-33,-15
-24,-9,15,16,-19,3,35,38,18,4,-30,-16
7,7,0,-7,3,4,35,59,37,16,-25,-20
24,16,-8,-20,15,4,30,78,49,23,-27,-20
19,14,-4,-16,11,5,30,78,53,19,-33,-20
20,14,-6,-17,13,4,29,77,52,20,-37,-19
11,8,-3,-9,7,2,24,72,47,20,-40,-23
16,2,-14,-8,15,-6,26,69,45,20,-40,-25
12,-2,-14,-5,13,-8,22,66,40,20,-40,-29
-28,-17,11,23,-19,-3,19,60,36,15,-40,-30
-42,-34,8,38,-25,-13,21,62,36,15,-40,-25
-32,-30,2,31,-17,-14,16,66,37,15,-40,-20
-9,-12,-4,11,-2,-8,16,71,34,15,-42,-15
-7,-16,-9,12,1,-12,14,74,38,15,-45,-13
-3,-16,-13,10,5,-14,11,71,55,12,-49,-4
-2,-21,-19,12,9,-20,-1,65,51,10,-50,-14
-21,-40,-19,31,-1,-29,11,59,46,10,-46,-36
3,-36,-39,17,21,-38,40,56,43,11,-43,-35
-19,-34,-15,26,-2,-24,28,45,36,9,-41,-35
-44,-25,19,34,-31,-3,18,53,35,6,-37,-35
-21,-45,-25,33,2,-35,6,49,0,3,-35,-34
-28,-61,-33,45,2,-47,7,50,8,13,-32,-31
-22,-41,-19,31,-1,-30,27,83,44,31,-30,-26
10,-35,-44,12,27,-39,23,68,33,30,-30,-23
7,-28,-34,11,21,-31,17,57,29,27,-26,-20
19,-5,-24,-7,22,-14,14,61,24,24,-25,-15
31,-3,-34,-14,33,-18,8,59,26,21,-25,-18
7,-29,-36,11,22,-32,6,66,23,19,-32,-32
18,-14,-31,-2,25,-22,13,64,34,18,-24,-25
11,14,3,-12,3,9,34,69,68,49,-3,-9
-2,40,41,-19,-22,40,57,74,68,69,4,3
2,69,67,-36,-32,68,45,63,61,65,9,16
32,97,65,-65,-17,81,2,51,58,66,14,27
75,125,50,-100,12,87,-37,41,50,64,21,46
72,117,46,-95,13,81,-55,37,45,60,23,53
79,108,29,-94,25,68,-49,32,40,61,34,58
48,75,27,-61,10,50,-22,26,34,57,41,44
18,22,4,-20,7,13,7,25,37,52,36,19
4,-21,-25,9,15,-23,21,17,31,44,32,10
-34,-83,-49,58,8,-66,41,60,47,43,30,1
-13,-97,-84,55,36,-90,47,60,39,32,23,-12
-11,-67,-56,40,23,-61,44,37,28,33,24,-18
-49,-53,-4,51,-22,-28,47,45,15,33,18,-33
-94,-56,38,74,-65,-9,43,31,5,39,20,-30
-68,-54,14,61,-41,-19,48,49,42,41,17,-28
-8,-56,-49,33,21,-53,46,15,21,27,9,-21
-9,-54,-45,32,19,-50,59,62,49,47,26,-15
12,-55,-67,22,40,-61,54,5,-4,17,13,-18
-9,-58,-50,34,21,-54,67,119,90,82,38,-5
-138,-69,69,104,-103,0,267,318,78,-90,-181,-158
-246,-172,74,209,-160,-49,574,-140,-451,-524,-487,-253
-254,-60,194,156,-223,67,271,-1024,-1150,-1016,-763,-151
-45,184,229,-69,-138,206,-626,-1706,-1650,-1369,-919,115
170,132,-38,-151,103,47,-780,-1242,-1148,-891,-513,261
56,-1,-57,-28,56,-28,-281,-399,-373,-289,-179,44
-11,-49,-38,30,13,-43,-67,-103,-82,-48,-32,-7
14,-52,-66,19,40,-58,-33,38,61,85,86,10
-20,-37,-17,29,-2,-26,-3,66,82,107,90,-11
4,-33,-38,15,21,-35,12,102,121,147,131,14
-9,-33,-24,21,8,-28,26,116,134,160,141,3
18,-36,-54,9,37,-45,26,121,140,172,153,18
46,-35,-81,-5,64,-58,20,140,154,178,153,16
29,-41,-71,7,50,-55,14,137,164,182,155,23
43,-39,-82,-2,63,-60,9,139,178,187,161,26
35,-42,-77,4,56,-60,5,133,173,187,158,27
36,-46,-82,5,59,-64,2,136,176,192,166,32
43,-30,-73,-6,58,-51,0,130,179,194,172,33
55,-21,-76,-17,66,-48,-4,130,180,195,169,38
53,-14,-67,-20,61,-40,-4,129,180,195,164,39
61,-8,-69,-27,65,-38,-16,123,179,194,162,42
92,0,-92,-46,92,-46,-36,116,181,197,156,46
28,7,-20,-17,23,-6,-34,113,178,186,156,39
-12,18,30,-3,-21,24,-28,95,138,138,133,18
9,38,29,-24,-10,33,-25,57,98,100,102,-9
-12,39,51,-14,-32,45,-19,31,71,67,83,-31
-39,31,70,4,-55,51,-17,9,29,17,46,-46
-72,28,101,22,-87,64,-7,-32,-21,-29,2,-67
-86,21,107,33,-97,64,7,-64,-65,-76,-44,-76
-80,16,96,32,-88,56,20,-61,-68,-103,-73,-70
-64,26,89,19,-77,57,34,-49,-58,-100,-68,-65
-53,14,67,19,-60,40,34,-46,-54,-90,-58,-58
-31,-8,23,19,-27,8,27,-33,-43,-79,-46,-54
4,-3,-7,-1,6,-5,23,-9,-31,-52,-28,-48
-19,-6,12,12,-15,3,16,6,-22,-30,-7,-41
-34,-19,15,26,-24,-2,11,9,-16,-25,12,-34
-30,-24,5,27,-17,-9,14,15,-9,-17,26,-27
-29,-26,4,27,-16,-11,19,19,-3,-11,37,-21
-18,-24,-6,22,-5,-15,15,23,5,-4,41,-16
-18,-26,-8,22,-4,-17,13,28,13,1,40,-15
13,-24,-37,6,26,-30,10,30,21,7,40,-15
-14,-16,-3,15,-5,-9,6,44,30,14,40,-10
-37,3,40,16,-39,21,5,49,33,11,39,-10
4,2,-2,-3,3,0,2,40,30,10,42,-11
-15,-16,-1,15,-6,-9,-3,35,30,10,47,-20
-24,-13,10,18,-17,-1,-6,25,30,5,52,-31
-29,-8,21,18,-25,6,-9,43,30,5,55,-32
-16,-4,12,9,-13,4,-14,58,30,6,50,-29
17,0,-17,-9,17,-8,-14,53,26,10,45,-26
2,12,9,-7,-4,10,-10,55,25,10,40,-23
-3,10,14,-4,-9,12,-10,49,25,12,37,-20
12,-15,-27,2,19,-21,-8,51,26,16,30,-19
0,-25,-25,12,13,-25,-4,47,24,14,34,-13
0,-12,-12,6,7,-12,-6,42,28,22,45,-5
29,2,-28,-15,28,-13,0,54,45,33,46,1
28,1,-27,-14,28,-13,-8,52,43,30,50,8
18,0,-18,-9,18,-9,-24,44,37,25,48,14
10,-1,-11,-4,11,-6,-25,38,34,23,44,12
7,-5,-12,0,10,-8,-25,31,29,18,46,9
27,-5,-32,-11,30,-18,-25,25,25,15,44,10
45,-5,-50,-19,48,-27,-25,32,25,21,46,10
11,-3,-14,-4,13,-8,-26,58,56,34,58,10
3,3,0,-2,1,2,-21,67,68,44,71,11
29,7,-22,-18,25,-7,-14,67,63,45,75,17
55,12,-43,-33,49,-16,-8,71,69,45,75,23
57,16,-41,-36,49,-12,-1,74,70,46,77,27
26,21,-5,-23,15,8,6,75,70,44,81,34
24,26,3,-25,10,14,33,69,76,49,80,39
21,51,29,-36,-4,40,41,64,90,54,84,44
52,90,38,-71,7,64,14,59,90,64,85,45
85,118,33,-102,26,75,-5,53,86,71,85,46
100,137,37,-119,31,86,-41,48,84,63,85,67
129,140,11,-135,59,76,-80,42,78,60,85,76
139,111,-28,-124,83,42,-87,33,73,55,84,78
117,66,-51,-92,84,8,-49,50,65,50,67,83
71,25,-46,-47,58,-10,9,71,63,48,51,42
30,-14,-44,-8,37,-29,23,56,53,40,43,10
6,-28,-34,11,20,-30,26,63,54,42,39,11
33,-22,-55,-5,45,-39,24,49,41,32,28,4
55,-21,-76,-17,65,-48,25,55,43,35,28,6
48,-17,-65,-15,57,-41,25,43,31,26,15,-3
55,-14,-70,-20,63,-42,23,46,31,41,24,4
34,-21,-55,-6,45,-38,17,63,45,36,17,4
24,-38,-62,7,44,-50,2,29,27,25,24,13
10,-33,-43,11,27,-38,5,67,66,36,34,14
34,-34,-68,0,51,-50,-25,-23,19,-5,7,8
9,-12,-21,1,15,-17,50,197,152,86,48,5
-166,-42,125,104,-145,41,346,304,34,-136,-190,-134
-225,-149,76,186,-150,-36,601,-321,-584,-622,-527,-217
-186,15,202,85,-194,109,103,-1229,-1279,-1120,-802,-113
4,206,202,-105,-99,204,-784,-1744,-1626,-1340,-842,169
192,108,-84,-150,138,12,-739,-1088,-990,-776,-431,232
99,10,-89,-54,94,-40,-238,-321,-298,-259,-164,35
56,-24,-80,-16,69,-52,-67,-65,-40,-30,-26,34
37,-32,-69,-2,53,-51,-19,69,97,97,73,32
24,-23,-47,-1,36,-35,-8,87,117,111,80,14
67,-19,-86,-23,76,-52,-3,116,147,141,102,25
41,-9,-51,-15,46,-30,3,123,146,138,110,26
53,-5,-58,-24,56,-32,7,127,150,151,117,29
45,1,-45,-23,45,-22,16,143,169,169,138,17
40,-18,-58,-11,49,-37,3,155,173,169,147,14
20,-49,-69,15,45,-59,-15,161,169,171,145,13
4,-40,-44,18,25,-42,-14,170,200,202,168,46
82,-24,-106,-29,94,-64,-9,144,191,207,171,52
80,-22,-102,-29,91,-62,-5,134,172,200,169,44
64,-8,-72,-28,68,-39,-11,153,174,200,167,43
60,-12,-72,-24,66,-41,-23,141,167,195,164,35
25,-29,-54,2,40,-42,-19,134,165,196,166,33
28,-22,-50,-2,39,-36,-14,125,161,186,157,27
22,-14,-36,-4,29,-25,-10,116,157,174,149,23
3,-5,-8,1,6,-7,-5,109,140,158,133,19
-29,5,34,12,-32,19,0,93,125,122,97,3
-20,15,35,2,-28,25,3,57,89,78,55,-13
-36,29,65,4,-50,46,9,20,37,27,13,-34
-73,31,104,21,-89,67,12,-15,-10,-27,-32,-55
-76,29,105,23,-91,66,18,-41,-48,-66,-63,-58
-90,24,114,33,-103,69,38,-46,-73,-86,-82,-63
-64,26,90,19,-78,58,42,-38,-73,-84,-91,-64
-85,0,85,42,-85,42,37,-34,-66,-75,-82,-55
-99,-32,68,65,-83,18,35,-23,-53,-67,-74,-45
-87,-28,59,57,-73,15,31,15,-26,-59,-58,-36
-44,-25,19,35,-31,-3,30,15,-27,-51,-41,-29
-12,-25,-13,18,1,-19,27,12,-25,-37,-39,-23
-78,-25,53,52,-65,13,25,41,-11,-23,-33,-20
-50,-24,26,37,-37,1,25,40,-4,-15,-26,-16
-17,-29,-11,23,-3,-20,21,37,6,-15,-19,-12
1,-17,-18,9,9,-17,19,34,9,-15,-12,-9
19,-9,-28,-5,24,-18,21,32,26,-8,-10,-3
-14,-34,-21,24,4,-27,0,27,34,-13,-10,-17
-13,-28,-15,20,1,-21,3,38,35,1,-10,-27
-41,-13,29,27,-35,8,35,60,40,31,-10,-25
-56,-23,34,39,-45,5,34,53,30,30,-10,-25
-41,-33,9,37,-25,-12,28,45,24,26,-11,-25
-56,-40,16,47,-36,-12,25,40,17,24,-17,-25
-12,-44,-32,28,11,-38,20,28,6,20,-24,-25
-7,-43,-36,25,14,-39,16,33,19,20,-22,-38
-81,-39,41,59,-61,1,9,44,37,15,-17,-24
-61,-40,20,50,-41,-10,-4,39,32,15,-14,-8
-28,-36,-8,32,-10,-22,-14,33,28,13,-11,-12
-33,-35,-2,34,-15,-18,3,28,26,11,-6,-8
-4,-35,-31,20,14,-33,7,22,18,8,-3,-12
-7,-30,-23,19,8,-26,2,21,26,21,1,-8
-20,-30,-10,25,-5,-20,-3,40,34,38,17,-18
11,-30,-41,10,26,-35,-28,51,30,33,19,-33
-37,-30,8,33,-22,-11,-31,42,47,30,11,-8
-40,-30,10,35,-25,-10,-25,40,52,28,9,6
13,-28,-41,8,28,-34,-23,35,41,23,6,5
7,-24,-31,9,20,-28,-18,30,41,34,4,5
12,-26,-38,8,25,-32,-15,26,34,47,0,5
9,-24,-33,8,21,-29,-11,24,31,44,1,5
4,-26,-30,11,18,-28,-5,25,47,45,7,7
-6,-24,-18,16,7,-21,4,24,58,45,13,18
-4,-18,-14,12,5,-16,7,29,53,43,16,14
1,-4,-4,2,3,-4,19,47,56,62,26,12
11,37,26,-24,-7,31,15,54,74,56,26,4
8,60,52,-34,-22,56,25,66,92,72,34,17
-10,77,87,-34,-49,81,20,80,105,115,63,63
5,83,79,-44,-37,81,-43,60,100,108,64,73
46,106,59,-76,-7,82,-69,48,84,98,56,72
115,128,14,-121,50,71,-88,52,76,92,54,81
104,91,-12,-97,57,39,-92,49,67,83,47,88
34,42,8,-38,13,25,-40,49,61,76,36,59
10,-12,-22,1,16,-17,0,52,55,65,16,6
13,-25,-38,6,26,-31,9,50,45,54,6,-13
-13,-42,-29,27,8,-35,11,61,45,48,5,-25
-34,-76,-42,55,4,-59,9,53,34,42,-1,-25
-12,-57,-44,35,16,-50,11,68,46,49,2,-6
-17,-47,-30,32,7,-38,9,59,34,36,-9,0
-18,-52,-33,35,7,-42,10,69,44,44,-2,-2
-31,-44,-14,38,-8,-28,21,72,40,38,-14,-9
-16,-41,-25,29,4,-32,25,60,41,45,2,7
3,-31,-33,14,18,-32,25,93,62,53,9,-11
-9,-27,-18,18,5,-22,0,28,22,37,5,6
-42,-22,20,32,-31,-2,74,257,165,64,-13,-15
-182,-94,89,138,-136,-2,382,223,-62,-240,-314,-187
-277,-172,105,224,-191,-33,584,-451,-672,-683,-589,-223
-195,57,252,69,-224,154,-39,-1337,-1349,-1176,-854,-62
25,220,195,-123,-85,207,-820,-1675,-1554,-1270,-808,234
116,77,-39,-96,77,19,-635,-904,-809,-647,-366,227
48,-2,-50,-23,49,-26,-185,-252,-225,-207,-163,-12
17,-27,-44,5,31,-35,-41,-31,18,19,-1,-4
3,-42,-45,20,24,-43,-8,60,112,100,57,3
29,-37,-66,4,48,-52,-7,78,116,109,71,14
33,-42,-75,5,54,-59,8,132,172,159,116,43
26,-38,-64,6,45,-51,8,112,155,149,99,36
30,-41,-71,6,50,-56,24,130,177,172,124,45
21,-39,-60,9,40,-49,31,140,188,180,136,51
49,-22,-72,-13,61,-47,26,150,195,180,142,57
66,-19,-85,-23,76,-52,24,152,196,183,141,54
35,-26,-61,-4,49,-44,19,147,193,202,146,56
28,-25,-52,-1,40,-39,16,146,196,207,145,55
32,-25,-56,-3,44,-40,12,144,194,203,144,54
27,-23,-50,-2,39,-36,10,144,194,206,146,48
39,-11,-50,-14,44,-30,7,131,182,204,145,42
33,-16,-50,-9,42,-33,4,124,175,204,144,37
12,-24,-36,6,24,-30,0,115,165,171,129,31
11,-19,-30,4,21,-24,0,106,157,142,114,25
21,-8,-29,-7,25,-18,5,90,134,131,91,17
18,23,6,-21,6,14,5,65,99,95,51,-2
0,31,31,-16,-16,31,5,43,71,55,17,-22
-58,19,77,19,-67,48,5,3,24,16,-32,-36
-88,16,104,36,-97,60,5,-45,-26,-32,-76,-55
-98,5,103,47,-101,53,7,-67,-62,-79,-108,-70
-122,0,122,61,-122,61,14,-60,-75,-99,-129,-86
-109,-4,105,56,-107,50,21,-44,-66,-91,-123,-87
-77,10,87,33,-82,48,28,-32,-58,-82,-113,-78
-23,35,57,-6,-40,46,33,-12,-49,-74,-81,-64
-28,0,27,14,-28,13,31,2,-40,-65,-53,-41
-57,-36,21,47,-39,-7,28,7,-30,-55,-48,-30
-41,-34,7,37,-24,-13,26,15,-21,-45,-39,-29
-27,-36,-9,31,-8,-22,22,20,-13,-35,-30,-41
-2,-34,-32,18,15,-33,20,30,-4,-25,-27,-52
-21,-29,-9,25,-6,-19,17,39,0,-20,-30,-49
-71,-31,40,50,-55,5,15,42,3,-21,-30,-50
-43,-27,15,35,-29,-6,15,45,7,-18,-30,-50
-1,-25,-23,13,11,-24,15,48,10,-15,-30,-50
-34,-25,9,30,-21,-8,15,50,14,-16,-38,-50
-42,-21,21,31,-32,0,15,50,24,-11,-41,-50
-24,-20,4,22,-14,-8,27,50,28,-10,-39,-50
-17,-14,3,15,-9,-6,32,50,24,-10,-40,-50
10,-20,-30,5,20,-24,29,51,18,-5,-40,-51
-3,-37,-33,20,15,-35,29,53,15,-5,-40,-49
-38,-33,4,36,-21,-14,24,48,10,-4,-36,-45
-46,-30,16,37,-31,-7,26,45,5,0,-34,-45
-43,-27,16,35,-29,-5,23,42,8,2,-35,-45
-33,-23,10,28,-21,-6,19,37,11,5,-34,-45
-22,-17,5,19,-13,-6,21,34,14,8,-36,-45
-10,-8,2,9,-6,-3,16,30,17,11,-34,-42
1,-4,-4,2,3,-4,15,30,20,13,-30,-39
13,9,-5,-10,9,2,14,30,19,16,-31,-36
17,12,-5,-14,11,3,11,30,15,19,-27,-33
15,10,-5,-12,10,2,8,29,16,22,-25,-30
15,10,-5,-12,10,2,5,33,12,24,-25,-29
16,12,-5,-14,11,3,3,35,10,27,-22,-24
30,25,-5,-27,17,10,-1,35,10,30,-19,-18
37,32,-5,-34,21,13,3,39,14,30,-16,-15
33,29,-4,-30,18,12,5,40,21,32,-13,-10
40,31,-9,-35,25,11,5,39,28,36,-10,-5
38,29,-8,-33,23,10,9,35,34,35,-9,-2
27,29,3,-28,12,16,10,35,42,34,0,5
40,52,13,-46,13,32,10,34,44,52,6,8
68,94,26,-81,21,59,-1,30,41,62,19,14
76,130,54,-103,10,92,-14,30,38,59,33,16
80,142,62,-111,9,102,-33,29,36,65,38,24
107,147,40,-127,33,93,-67,24,31,65,53,52
85,123,38,-104,23,80,-81,25,30,65,57,56
66,94,28,-80,18,61,-72,25,30,59,54,48
60,55,-5,-57,32,24,-33,23,29,53,56,46
29,-19,-48,-5,39,-33,3,41,32,50,55,40
11,-58,-68,24,40,-63,12,43,27,41,53,36
-16,-60,-44,38,14,-52,27,48,34,40,52,30
-16,-56,-40,36,12,-47,29,41,25,28,45,21
9,-53,-62,22,36,-57,28,49,35,34,48,18
10,-47,-57,19,34,-52,24,42,26,22,38,6
4,-46,-51,21,28,-48,26,48,30,28,43,9
-10,-40,-29,25,10,-34,26,56,40,19,39,7
-3,-41,-37,22,17,-39,23,36,36,18,38,13
2,-33,-35,16,19,-34,30,75,70,38,47,13
6,-33,-39,14,22,-36,-3,4,24,13,36,15
10,-30,-40,10,25,-35,54,189,159,75,41,2
-153,-77,76,115,-114,0,335,221,-3,-199,-227,-170
-268,-191,78,229,-173,-56,606,-325,-580,-640,-514,-252
-202,8,210,97,-206,109,61,-1169,-1237,-1115,-768,-115
-27,205,232,-89,-130,218,-798,-1636,-1547,-1295,-787,176
119,87,-33,-103,76,27,-678,-965,-874,-697,-351,242
30,-5,-35,-13,33,-20,-214,-288,-248,-229,-133,-11
-12,-50,-38,31,14,-44,-60,-56,-8,-15,0,-30
35,-33,-68,-1,52,-50,-14,48,114,85,77,23
29,-15,-45,-7,37,-30,-8,62,123,96,83,32
23,-30,-53,3,39,-41,1,110,172,149,125,51
16,-22,-38,3,28,-30,0,100,161,136,114,37
8,-27,-36,10,22,-31,6,123,175,165,142,65
32,-24,-56,-4,45,-40,10,122,183,174,145,62
62,-25,-88,-18,76,-56,10,124,189,174,151,57
64,-19,-84,-22,74,-52,11,138,192,178,164,54
47,-16,-63,-16,56,-39,9,139,188,183,173,48
59,-11,-70,-24,65,-40,11,141,192,189,178,46
62,-8,-69,-27,66,-38,10,139,189,182,178,44
37,3,-34,-20,36,-15,10,141,191,182,183,46
48,33,-16,-40,31,8,15,140,190,177,185,44
38,36,-3,-37,20,16,15,138,179,176,182,49
69,34,-35,-51,51,0,16,129,162,174,167,42
76,36,-40,-55,58,-2,20,122,147,167,154,26
46,34,-12,-40,28,11,20,103,129,147,139,14
26,35,10,-31,8,22,23,75,108,113,117,1
-22,29,51,-3,-37,40,26,45,77,76,82,-10
-43,24,67,10,-55,45,28,12,31,30,44,-19
-76,19,95,28,-85,57,31,-20,-16,-20,6,-46
-86,13,98,36,-92,55,34,-47,-58,-66,-37,-70
-77,8,84,34,-81,46,36,-50,-76,-88,-57,-71
-81,2,84,39,-83,43,40,-40,-68,-81,-51,-64
-74,-2,71,38,-72,34,38,-35,-57,-74,-46,-57
-53,-8,45,30,-49,19,34,-26,-44,-69,-40,-51
-37,-11,26,24,-32,7,32,-12,-29,-57,-29,-44
-44,-17,28,30,-36,5,29,1,-18,-40,-15,-38
-32,-20,12,26,-22,-3,26,18,-11,-31,-3,-31
-7,-15,-8,11,1,-11,25,30,-7,-23,4,-24
-2,-11,-9,7,3,-10,30,30,-1,-15,9,-17
-7,-9,-2,8,-2,-5,30,30,5,-8,14,-15
-8,-4,4,6,-6,0,30,30,10,0,20,-15
0,-1,-1,0,1,-1,30,29,17,8,24,-12
21,2,-18,-11,19,-8,30,33,28,16,20,-9
33,7,-26,-20,29,-10,28,35,37,20,20,-11
29,10,-19,-19,24,-4,23,35,40,20,19,-14
10,13,3,-12,3,8,20,35,43,20,15,-17
-9,18,27,-5,-18,22,16,40,46,20,15,-20
-5,20,25,-8,-15,22,12,48,49,20,13,-18
3,13,10,-8,-4,11,9,50,50,24,10,-14
-3,2,5,0,-4,4,6,50,45,25,7,-12
4,-8,-12,2,8,-10,5,50,45,26,4,-9
-14,-15,-1,15,-6,-8,5,50,44,29,1,-6
-47,-15,32,31,-39,8,5,50,40,31,0,-4
-22,-15,7,19,-14,-4,5,50,40,28,5,0
2,-15,-16,7,9,-15,8,50,43,25,7,0
4,-10,-14,3,9,-12,10,50,45,25,11,1
5,-10,-15,3,10,-12,10,50,45,23,14,5
6,-9,-15,2,11,-12,10,50,45,19,18,5
10,-5,-15,-2,13,-10,10,50,46,20,20,7
8,-5,-14,-1,12,-10,10,47,49,32,19,12
-3,-3,1,3,-2,-1,5,45,54,36,24,15
-27,1,28,13,-28,14,5,45,57,34,25,15
-11,0,10,5,-10,5,5,45,61,36,25,15
8,0,-8,-4,8,-4,5,45,60,35,30,15
3,0,-3,-1,3,-1,4,45,60,35,35,16
-1,0,1,1,-1,0,8,50,60,41,38,14
5,6,1,-6,2,3,17,53,59,47,44,19
-4,13,17,-5,-10,14,27,59,74,56,63,31
-14,34,48,-11,-31,41,38,61,83,62,78,43
26,69,43,-48,-9,56,17,56,78,60,88,52
32,92,60,-62,-14,76,-22,52,76,61,93,55
30,102,72,-66,-21,86,-54,48,73,60,90,56
51,97,46,-74,2,71,-77,43,69,61,89,59
77,82,4,-79,36,43,-81,47,69,58,85,69
63,47,-16,-55,39,15,-49,42,58,48,84,45
-8,0,9,4,-8,5,-2,49,57,44,82,10
-19,-39,-20,29,0,-29,5,41,44,33,78,1
-42,-52,-10,47,-16,-31,16,39,46,30,83,3
-43,-48,-5,45,-19,-26,33,56,62,18,74,16
10,-54,-64,22,38,-59,29,65,69,22,74,6
-16,-54,-38,35,12,-46,18,54,56,19,63,-14
-29,-57,-28,43,0,-42,6,43,48,19,63,-7
-9,-50,-41,29,16,-45,3,51,49,24,55,-12
5,-50,-55,23,30,-52,-9,17,22,11,46,-10
0,-44,-44,22,23,-44,-1,57,51,38,53,-6
-8,-42,-34,25,13,-37,-24,-14,-13,0,21,-20
-13,-41,-28,27,8,-34,15,129,103,66,64,-6
-133,-72,61,102,-97,-5,271,293,62,-120,-162,-149
-225,-201,23,213,-124,-89,570,-182,-499,-592,-498,-283
-228,-74,154,151,-191,40,157,-1067,-1203,-1089,-774,-206
-57,127,184,-35,-121,155,-762,-1694,-1644,-1389,-875,74
136,47,-89,-91,113,-21,-785,-1140,-1064,-854,-436,250
49,-37,-86,-5,67,-61,-291,-364,-339,-293,-155,42
8,-58,-66,26,37,-62,-112,-91,-66,-61,-40,-36
15,-28,-42,7,29,-35,-48,73,98,95,82,14
4,-16,-21,6,13,-19,-37,84,107,99,81,14
44,-31,-75,-7,60,-53,-35,124,136,139,113,33
45,-20,-65,-13,56,-42,-34,136,142,148,114,27
51,-22,-73,-14,62,-48,-31,136,154,165,125,40
51,-16,-68,-18,60,-42,-29,144,174,173,135,43
57,-15,-72,-21,65,-43,-29,144,187,175,145,56
50,-17,-67,-16,59,-42,-23,157,197,187,147,55
36,-23,-59,-6,48,-41,-26,150,197,182,142,48
21,-21,-42,1,31,-31,-24,151,200,190,141,55
32,-17,-49,-7,41,-33,-25,150,193,199,139,59
56,-14,-71,-21,64,-42,-25,150,196,197,138,56
36,-11,-47,-12,41,-29,-20,150,195,192,135,49
33,-6,-40,-13,37,-23,-20,148,194,188,134,44
42,12,-30,-26,36,-9,-19,141,196,183,130,39
40,15,-24,-27,32,-4,-15,133,176,173,130,31
31,17,-14,-24,22,2,-15,119,148,153,114,19
35,27,-7,-31,21,10,-12,86,128,123,81,11
6,35,29,-21,-12,32,-6,64,96,86,40,-8
-27,44,71,-8,-50,57,-1,31,56,45,-6,-36
-31,39,70,-4,-51,54,4,-15,12,-6,-42,-52
-79,30,109,25,-94,69,11,-36,-30,-52,-77,-56
-79,22,101,28,-91,61,14,-54,-54,-84,-110,-50
-67,14,81,26,-74,47,22,-49,-51,-87,-116,-45
-69,8,77,31,-73,42,22,-32,-45,-71,-108,-39
-63,5,68,29,-66,36,16,-25,-39,-58,-104,-33
-48,2,50,23,-49,26,11,-17,-26,-46,-89,-29
-36,-1,35,18,-35,17,6,-12,-12,-33,-64,-25
-57,-4,53,30,-54,24,0,-3,3,-25,-47,-22
-34,-5,28,19,-30,11,-5,0,3,-25,-40,-18
-32,1,33,15,-33,17,17,16,16,-18,-32,-15
-42,3,45,19,-44,24,28,32,32,-8,-23,-11
-33,-2,32,17,-32,14,20,29,29,3,-22,-10
-35,-5,29,20,-31,12,19,30,30,8,-25,-10
-28,-8,19,18,-23,6,14,30,30,4,-25,-5
-34,-13,21,24,-27,4,11,29,30,5,-25,-5
-29,-15,14,21,-21,-1,10,33,28,1,-25,-6
-27,-8,19,17,-23,5,10,35,24,-1,-25,-13
-26,4,30,11,-28,16,10,35,25,1,-19,-19
-6,16,22,-5,-14,19,10,39,25,4,-13,-16
0,16,16,-8,-8,16,10,40,25,7,-9,-15
3,11,8,-7,-3,9,10,40,25,9,-3,-15
8,9,0,-9,4,4,10,45,30,13,3,-16
8,4,-4,-6,5,0,10,45,30,15,5,-13
0,0,1,0,0,0,10,45,30,17,5,-21
-2,2,4,0,-4,3,10,45,30,21,5,-23
6,8,2,-7,2,5,9,45,29,24,5,-4
25,11,-14,-18,20,-2,13,47,33,28,5,5
28,17,-11,-22,19,3,15,50,35,31,4,-3
-11,20,30,-5,-21,25,16,53,35,34,3,-8
14,16,2,-15,6,9,21,56,35,35,7,-4
42,14,-28,-27,35,-7,19,60,35,35,10,-6
6,10,5,-8,1,7,16,59,35,35,13,-1
17,8,-9,-12,13,-1,14,56,35,34,18,0
19,5,-14,-12,16,-5,15,53,35,38,21,1
-3,3,6,0,-5,4,15,51,35,40,24,14
-12,-3,9,7,-10,3,15,47,35,40,27,16
14,-7,-21,-3,18,-14,17,45,35,44,31,14
34,-10,-44,-12,39,-27,20,47,37,45,34,12
-2,-18,-15,10,7,-16,24,50,48,45,37,9
24,11,-13,-17,18,-1,25,60,55,49,48,11
30,43,12,-37,9,27,48,61,59,53,54,19
26,65,39,-46,-6,51,42,52,59,62,59,32
64,92,28,-78,17,60,1,46,55,69,73,41
63,108,45,-85,9,76,-22,40,53,65,71,40
78,117,39,-97,19,78,-45,31,48,58,64,32
95,99,4,-97,45,51,-42,34,47,54,61,26
104,74,-30,-89,67,22,-38,41,43,47,55,18
60,31,-29,-45,44,1,-17,42,42,44,53,11
-1,-20,-19,11,9,-19,23,39,39,36,46,4
9,-43,-52,17,31,-47,23,40,39,36,43,0
9,-46,-55,19,32,-51,17,42,36,31,35,-7
11,-44,-55,17,34,-49,12,36,32,28,31,-10
16,-39,-55,12,35,-47,7,47,38,29,26,-15
16,-38,-54,12,35,-46,0,29,21,19,17,-20
24,-34,-58,6,41,-46,5,53,42,39,31,-15
11,-37,-48,13,30,-43,3,25,16,27,25,-17
12,-42,-55,15,33,-48,9,54,45,55,48,-5
-3,-36,-33,20,15,-34,11,28,15,32,31,-13
19,-36,-55,9,37,-45,5,46,46,70,66,4
-52,-14,38,33,-45,12,151,278,125,6,-56,-83
-210,-134,76,172,-142,-29,529,-17,-304,-412,-397,-229
-222,-139,83,180,-152,-28,487,-759,-920,-835,-627,-208
-105,117,222,-6,-164,169,-429,-1565,-1523,-1273,-822,-2
109,107,-1,-108,55,53,-886,-1455,-1334,-1044,-562,245
128,-18,-146,-55,137,-82,-433,-575,-526,-404,-200,102
10,-41,-52,15,31,-46,-113,-158,-136,-114,-83,-63
2,-55,-56,27,29,-55,-32,32,62,77,66,0
14,-42,-57,14,36,-49,6,77,104,110,82,0
35,-43,-78,4,57,-60,11,93,124,140,109,13
34,-39,-73,3,54,-56,17,127,142,159,128,14
38,-40,-77,1,58,-58,17,117,149,163,133,18
46,-36,-82,-5,64,-58,24,131,177,184,154,25
44,-34,-78,-5,62,-56,24,131,169,177,147,27
47,-35,-82,-6,64,-58,21,149,183,198,153,33
50,-28,-79,-11,65,-54,16,146,182,199,148,28
55,-26,-81,-14,68,-53,13,151,186,204,151,31
57,-22,-79,-17,68,-51,10,154,185,207,150,29
62,-18,-81,-22,72,-49,5,155,185,210,150,30
60,-15,-75,-22,68,-45,7,151,185,206,148,28
55,-11,-66,-21,60,-38,10,139,184,196,138,22
49,-9,-57,-20,53,-33,9,132,185,192,133,18
44,-5,-49,-20,47,-26,10,123,174,183,126,13
16,-2,-18,-7,17,-9,10,114,157,164,109,9
-2,2,4,0,-3,3,11,100,140,137,85,5
13,25,13,-19,0,19,15,70,118,101,56,-13
3,37,35,-20,-16,36,19,29,77,59,20,-38
-22,29,51,-4,-37,40,22,-15,21,8,-18,-57
-52,25,77,14,-65,51,25,-54,-32,-44,-61,-70
-59,18,78,20,-69,48,30,-60,-60,-79,-95,-81
-50,14,63,18,-57,38,28,-49,-65,-91,-100,-80
-47,10,56,18,-51,33,25,-42,-58,-85,-96,-76
-40,5,44,17,-42,24,25,-34,-47,-76,-91,-71
-37,1,37,18,-37,19,25,-27,-38,-68,-87,-68
-34,-5,29,19,-31,11,25,-15,-27,-54,-81,-58
-36,-12,24,24,-30,5,25,-2,-18,-32,-64,-27
-38,-19,19,29,-28,0,30,6,-7,-19,-53,-18
-39,-25,14,31,-26,-5,30,11,2,-13,-49,-22
-36,-25,10,30,-22,-7,31,16,6,-6,-43,-19
-30,-25,5,27,-17,-10,35,23,10,1,-39,-21
-27,-25,2,26,-14,-11,35,27,13,8,-31,-19
-24,-25,-1,25,-11,-12,33,33,18,10,-36,-23
-21,-25,-4,23,-8,-15,26,35,20,10,-42,-25
-15,-22,-6,19,-4,-14,21,35,15,10,-39,-25
-7,-17,-10,12,2,-14,16,38,15,10,-40,-29
-6,-14,-9,10,2,-11,10,41,15,10,-40,-30
-6,-10,-5,9,-1,-7,6,39,15,10,-40,-30
-1,-7,-5,4,3,-6,5,36,15,10,-38,-25
-1,-3,-3,2,1,-3,5,31,17,10,-34,-25
0,0,0,0,0,0,5,28,21,10,-36,-24
0,0,0,0,0,0,5,25,20,10,-31,-20
3,0,-3,-1,3,-1,5,20,20,10,-30,-20
6,0,-6,-2,6,-2,3,23,20,12,-30,-18
5,0,-5,-2,5,-2,-1,25,20,18,-24,-15
9,4,-5,-6,7,-1,0,25,25,23,-17,-12
10,6,-5,-7,7,0,0,28,25,26,-11,-9
11,5,-6,-7,8,-1,0,31,26,32,-4,-6
20,5,-14,-12,16,-4,0,29,30,35,3,-5
27,5,-22,-15,24,-9,-5,25,29,30,5,-10
29,6,-22,-17,25,-8,-5,25,32,26,5,-10
29,10,-18,-20,24,-4,-5,24,36,23,5,-10
26,9,-16,-17,21,-3,-5,20,35,20,5,-10
26,13,-13,-19,19,0,-5,20,35,15,5,-10
25,15,-10,-20,17,2,-3,23,35,17,5,-8
25,15,-9,-20,17,3,8,25,36,28,11,-1
11,11,0,-11,5,5,17,25,40,37,17,5
8,13,5,-11,1,9,28,27,51,48,25,13
23,49,26,-36,-2,37,19,23,64,56,30,18
29,88,59,-59,-15,73,4,17,62,59,42,35
50,108,57,-79,-4,82,-9,15,60,65,60,51
76,123,48,-100,14,85,-38,8,60,63,68,53
80,125,45,-103,17,85,-65,6,55,56,73,58
87,108,21,-98,33,64,-84,8,56,52,82,51
102,84,-18,-93,60,33,-58,20,52,45,83,38
72,45,-27,-58,49,9,-13,39,51,41,71,28
25,2,-23,-13,24,-11,-6,32,42,33,50,22
12,-15,-27,2,20,-20,5,37,41,32,43,19
5,-17,-23,7,14,-20,16,35,34,25,35,12
11,-27,-39,8,25,-33,20,33,29,24,36,10
8,-31,-39,12,24,-35,21,38,37,21,31,4
-6,-40,-34,24,14,-37,20,20,29,11,24,10
-10,-43,-33,26,12,-38,29,44,45,24,31,10
-21,-45,-24,33,2,-35,20,11,25,15,21,8
-17,-46,-29,32,7,-38,27,53,59,49,45,14
-28,-42,-14,35,-7,-28,12,1,17,21,17,3
-28,-50,-21,39,-3,-35,22,78,87,77,58,19
-96,-41,55,68,-75,7,225,272,83,-58,-98,-104
-240,-155,85,197,-162,-34,584,-103,-396,-499,-428,-234
-248,-115,133,181,-191,10,366,-891,-1040,-945,-668,-189
-65,139,204,-37,-135,171,-591,-1640,-1604,-1347,-843,45
130,102,-28,-116,79,37,-844,-1309,-1218,-969,-490,266
92,-5,-98,-43,95,-51,-347,-457,-437,-357,-157,79
25,-5,-31,-10,28,-18,-90,-114,-105,-89,-34,-44
31,-24,-55,-3,43,-39,-23,49,80,90,113,17
12,-25,-38,7,25,-31,-11,72,99,106,117,15
27,-26,-53,0,40,-39,-10,109,128,136,148,38
28,-20,-48,-4,38,-34,-9,119,146,139,152,33
32,-18,-50,-7,42,-34,-11,121,154,158,175,40
45,-13,-58,-15,52,-35,-9,138,171,160,187,43
53,-10,-62,-21,57,-36,-10,132,173,172,187,45
50,-7,-56,-21,54,-32,-4,160,192,175,197,51
46,-4,-51,-21,49,-27,-3,149,194,188,193,46
40,-5,-45,-17,43,-25,1,161,194,189,197,45
29,0,-28,-14,28,-14,2,153,207,186,200,45
55,-1,-55,-27,55,-28,7,167,183,202,201,42
65,2,-63,-33,64,-30,-8,149,198,167,196,40
47,6,-41,-27,44,-17,-35,14,167,228,191,40
52,14,-38,-33,45,-12,-36,-8,182,130,177,36
31,17,-14,-24,23,1,-35,7,169,267,180,33
11,26,14,-19,-2,20,-35,-5,-99,-12,156,30
2,27,25,-15,-12,26,-34,5,-63,-304,192,28
-1,43,44,-21,-23,43,-36,-4,45,26,103,24
-8,45,53,-19,-31,49,-28,4,-37,-6,-66,29
