I,II,III,aVR,aVL,aVF,V1,V2,V3,V4,V5,V6
-71,69,140,1,-105,104,245,180,160,120,45,16
-66,63,129,1,-98,96,249,203,175,123,44,15
-63,74,138,-6,-101,106,264,265,222,149,58,14
-77,101,178,-12,-127,139,281,322,277,180,83,24
-67,122,189,-28,-128,155,295,384,326,215,97,30
-56,150,206,-47,-131,178,334,452,391,272,130,54
-34,188,222,-77,-129,205,359,519,457,325,165,77
-3,259,262,-128,-133,260,343,580,525,386,214,108
11,326,315,-169,-152,320,334,588,571,435,268,150
33,364,331,-199,-149,348,315,574,560,473,307,186
91,395,305,-243,-107,350,271,553,549,495,341,216
126,366,240,-246,-57,303,211,472,513,466,335,206
101,275,173,-188,-36,224,150,363,420,404,296,189
74,188,114,-131,-20,150,106,233,291,289,214,143
48,132,84,-90,-19,108,63,121,158,182,129,82
13,89,76,-51,-32,82,44,55,88,120,80,47
-9,55,63,-23,-36,59,44,1,45,73,44,9
-20,41,61,-11,-40,51,39,-26,14,55,33,-8
-22,35,57,-7,-40,46,38,-35,8,39,25,-14
-31,24,55,3,-43,39,34,-35,1,30,15,-24
-35,17,52,9,-44,34,37,-35,-7,29,11,-30
-29,19,49,5,-39,34,50,-36,-14,24,6,-39
-55,15,70,19,-62,43,49,-33,-21,23,4,-45
-49,27,76,11,-63,51,46,-45,-25,19,-1,-45
-38,37,75,0,-57,56,43,-52,-25,23,-5,-45
-57,16,73,20,-65,44,40,-46,-27,32,-5,-45
-37,40,76,-2,-57,58,38,-45,-31,31,-5,-45
-29,75,105,-23,-67,90,35,-41,-30,30,-5,-45
-41,65,106,-12,-74,85,30,-40,-27,29,-5,-41
-43,60,103,-9,-74,82,28,-46,-21,24,-5,-39
-38,69,107,-16,-73,88,23,-55,-18,25,-5,-41
-36,65,101,-15,-68,83,20,-45,-13,26,-5,-39
-48,72,120,-12,-84,95,34,-37,-8,36,-6,-42
-12,128,140,-58,-76,134,46,-41,3,68,1,-36
10,139,129,-75,-60,134,46,-39,21,78,35,-29
1,128,127,-65,-63,127,7,-41,18,72,53,1
32,136,103,-84,-36,119,-49,-45,-2,80,53,27
19,78,58,-49,-19,68,-77,-75,-38,60,51,-19
41,47,7,-44,17,27,-78,-102,-49,41,45,19
34,6,-28,-19,31,-11,-62,-99,-37,23,47,79
-90,-56,33,73,-61,-12,-55,-98,-62,-11,12,39
-105,-35,69,70,-87,17,-51,-96,-72,-30,-22,25
-90,-36,54,63,-72,9,-48,-94,-69,-33,-45,20
-114,-47,67,80,-90,10,-49,-95,-68,0,-46,17
-109,-46,63,77,-86,9,-42,-85,-65,-43,-51,12
-106,-41,65,73,-85,12,-46,-88,-65,-59,-48,4
-77,-32,45,54,-61,7,-37,-79,-62,-25,-27,-4
-50,-34,17,42,-33,-8,-42,-79,-56,-11,-25,-13
-68,-16,52,42,-60,18,-40,-75,-53,-30,-21,-18
-68,-27,41,48,-54,7,-38,-72,-49,-49,-35,-39
-68,8,77,30,-72,42,-46,-88,-37,15,8,11
-104,105,209,0,-157,156,-7,-76,4,100,95,69
-11,288,299,-139,-155,293,8,37,255,526,417,233
237,190,-47,-214,142,72,100,424,525,613,562,335
558,-341,-899,-108,729,-620,-204,126,87,-126,110,109
571,-766,-1338,98,954,-1052,-740,-928,-953,-1000,-560,-284
306,-939,-1245,317,776,-1092,-772,-1322,-1480,-1476,-1035,-611
207,-865,-1071,329,639,-968,-731,-1163,-1334,-1328,-1006,-611
79,-779,-857,350,468,-818,-562,-847,-1026,-1045,-831,-516
-40,-651,-612,345,286,-631,-301,-545,-724,-780,-656,-430
-70,-384,-313,227,122,-349,-175,-332,-446,-463,-393,-252
-77,-135,-58,106,-9,-96,-18,-66,-119,-143,-128,-105
-65,0,65,32,-64,32,27,42,20,10,-6,-43
-81,8,89,36,-86,48,31,67,32,8,-6,-38
-71,42,113,14,-92,77,51,91,67,49,15,-31
-88,50,138,19,-113,94,63,107,80,45,17,-26
-93,55,148,19,-121,101,72,142,106,42,27,-10
-99,45,144,27,-122,94,85,172,128,66,34,8
-95,55,150,20,-123,103,111,213,167,112,50,11
-40,111,150,-35,-95,130,116,249,202,133,67,11
-47,101,148,-27,-98,124,136,302,246,143,69,9
-70,109,179,-20,-125,144,167,361,291,167,69,12
-64,129,192,-33,-128,160,207,430,354,203,98,61
-57,170,228,-57,-143,199,242,487,404,254,125,107
-40,250,290,-105,-165,270,252,545,461,305,169,139
-20,280,301,-130,-161,290,256,604,537,371,246,209
15,320,305,-167,-145,312,237,598,574,419,274,261
76,382,306,-229,-115,344,201,569,580,447,303,288
112,390,277,-251,-83,333,154,529,554,455,337,311
112,332,220,-223,-54,276,89,439,497,427,327,294
108,239,131,-173,-12,184,38,301,362,325,263,252
81,162,81,-121,-1,121,8,168,217,209,180,194
40,107,67,-74,-13,87,-14,81,122,132,113,139
9,74,64,-42,-28,69,-29,22,48,70,68,119
16,76,60,-46,-22,68,-31,-14,4,31,41,121
-9,52,61,-22,-36,56,-27,-31,-4,11,16,131
-61,28,88,16,-74,58,-26,-40,-6,4,4,125
-39,31,69,4,-54,50,-21,-44,-31,-5,-1,101
-26,30,56,-2,-41,43,-20,-47,-36,-11,-7,73
-42,37,79,2,-61,58,-32,-50,-34,-9,-12,50
-44,41,85,1,-65,63,-36,-52,-39,-11,-18,51
-41,43,83,-1,-62,63,-34,-60,-40,-10,-18,44
-32,46,79,-7,-56,62,-32,-65,-40,-11,-11,47
-29,49,78,-11,-53,63,-30,-65,-35,-9,-6,80
-22,51,73,-15,-48,62,-30,-65,-35,-6,-1,93
-24,56,80,-16,-53,68,-25,-66,-36,-3,5,98
-28,55,83,-14,-56,69,-18,-65,-35,-1,10,114
-13,63,77,-25,-45,70,-16,-66,-36,3,17,122
-49,54,102,-3,-76,78,-5,-62,-32,5,25,118
-60,61,120,-1,-90,90,-6,-46,-16,8,33,112
-30,101,131,-36,-81,116,14,-35,-4,28,41,107
-40,105,145,-33,-93,125,44,-19,9,49,47,101
-18,111,129,-47,-73,120,0,-25,11,50,52,96
16,116,100,-66,-42,108,-45,-49,-4,50,55,99
21,117,96,-69,-38,106,-82,-66,-22,50,49,94
23,88,65,-55,-22,76,-112,-85,-40,40,37,71
53,74,21,-64,16,47,-92,-86,-48,36,31,55
30,66,36,-49,-3,51,-77,-82,-48,14,19,23
-37,17,54,10,-46,35,-68,-82,-50,-20,13,-30
-38,10,48,14,-44,29,-57,-77,-56,-26,9,-66
-37,2,39,18,-38,20,-48,-88,-54,-25,6,-71
-41,-3,38,22,-39,17,-41,-102,-56,-24,6,-77
-37,-15,22,26,-29,4,-28,-98,-55,-28,-2,-99
-58,-16,42,37,-49,12,-28,-102,-55,-20,4,-100
-77,-17,60,47,-68,21,-30,-90,-68,-28,-12,-106
-67,-8,59,38,-63,26,-37,-101,-66,-7,-4,-97
-67,0,67,33,-67,33,-21,-88,-64,-17,-26,-98
-62,-7,55,34,-59,24,-27,-86,-50,3,-7,-96
-66,53,119,6,-93,86,-15,-112,-78,3,20,-61
-95,173,268,-39,-182,221,-12,-117,-17,139,127,5
23,345,321,-185,-149,333,-6,68,272,561,470,212
294,59,-235,-177,265,-88,60,384,426,412,440,229
523,-503,-1026,-10,775,-764,-389,-210,-186,-357,-62,-67
463,-852,-1315,194,889,-1084,-832,-1116,-1135,-1160,-723,-470
256,-958,-1213,351,735,-1085,-752,-1198,-1353,-1410,-1012,-694
217,-792,-1008,288,614,-900,-685,-977,-1116,-1133,-858,-628
106,-712,-819,303,463,-765,-469,-684,-843,-911,-737,-579
-48,-563,-516,306,234,-539,-237,-437,-561,-631,-534,-471
-73,-274,-201,174,64,-237,-95,-207,-275,-299,-262,-278
-83,-67,17,75,-50,-25,41,-6,-21,-61,-58,-155
-90,3,94,43,-92,48,69,33,25,2,-8,-115
-79,13,92,33,-86,52,84,66,46,16,-3,-101
-38,46,84,-4,-61,65,93,90,79,48,16,-80
-53,38,92,7,-73,65,108,120,103,54,15,-70
-75,48,123,13,-100,86,118,148,129,70,33,-53
-64,43,107,10,-86,75,137,166,148,93,40,-24
-91,51,142,19,-116,96,151,207,188,105,41,1
-100,67,166,16,-133,116,179,260,223,128,62,4
-97,72,168,12,-133,120,219,307,264,171,98,11
-65,103,167,-19,-116,135,232,372,318,193,106,16
-47,139,186,-46,-116,162,268,449,383,237,120,21
-48,193,241,-73,-145,217,303,506,437,286,154,39
-21,242,263,-110,-142,252,307,560,495,341,198,75
-3,304,307,-151,-156,306,297,581,552,401,247,121
46,364,318,-205,-137,341,272,573,560,445,293,161
76,382,306,-229,-116,344,217,534,542,466,326,209
97,369,272,-233,-88,320,143,462,519,463,331,240
118,300,182,-210,-32,241,86,364,438,413,314,231
80,192,111,-136,-16,151,39,233,297,298,234,198
56,113,57,-84,-1,84,3,127,175,197,150,147
46,76,30,-61,8,53,-10,61,89,123,99,107
3,35,32,-19,-15,33,-16,15,28,59,58,85
-40,11,51,14,-46,30,-23,-6,-5,22,40,76
-49,4,53,23,-51,28,-22,-22,-22,11,24,70
-51,-5,46,28,-48,20,-14,-35,-32,9,19,60
-55,-16,39,35,-47,11,-8,-35,-31,3,20,57
-55,-18,37,36,-46,9,-1,-35,-30,-1,20,60
-50,-13,37,31,-44,12,6,-35,-29,-5,20,60
-68,-8,60,38,-64,25,9,-35,-24,0,20,62
-73,-5,69,39,-70,32,4,-34,-26,6,17,66
-47,2,49,23,-48,25,0,-30,-21,6,14,64
-65,24,88,20,-77,56,11,-30,-3,22,34,76
-56,32,88,12,-72,60,16,-38,-1,16,42,81
-45,29,73,8,-59,51,12,-41,-14,6,39,79
-69,30,99,18,-84,64,9,-34,-19,17,40,81
-64,30,94,17,-79,62,8,-34,-32,12,40,79
-54,29,83,12,-68,56,2,-27,-29,8,39,93
-43,68,111,-12,-78,89,17,-27,0,22,43,103
-4,103,107,-50,-56,105,57,-19,5,37,46,92
-8,113,120,-53,-64,116,39,-13,14,35,55,108
2,126,124,-64,-61,124,-2,-34,17,27,65,130
39,110,71,-75,-16,90,-37,-45,-12,27,59,133
5,76,72,-41,-33,74,-83,-76,-44,19,54,135
33,41,8,-37,12,25,-80,-97,-61,17,48,137
35,53,18,-44,8,36,-57,-87,-59,23,43,129
-12,49,61,-18,-37,55,-50,-85,-60,-3,37,102
-32,5,37,13,-35,20,-41,-78,-60,-16,29,84
-57,-6,51,31,-54,22,-33,-72,-60,-15,16,67
-47,-2,44,24,-45,21,-29,-69,-60,-14,10,56
-58,-14,44,35,-51,15,-19,-63,-60,-17,2,50
-59,-20,38,40,-48,9,-16,-67,-60,-14,7,44
-52,-11,41,32,-46,14,-8,-63,-60,-15,5,39
-42,-13,28,27,-35,7,-11,-66,-61,-18,3,32
-42,4,46,19,-44,25,-9,-66,-58,-23,11,23
-54,-8,47,31,-51,19,0,-67,-70,-41,-8,-3
-54,28,82,13,-68,54,-14,-92,-72,-6,16,9
-102,107,209,-3,-156,158,23,-122,-76,13,39,34
-47,297,344,-125,-196,320,9,-81,83,367,319,192
155,308,153,-232,1,230,81,274,406,623,548,344
416,-185,-601,-116,509,-392,-138,148,210,138,290,217
496,-705,-1202,105,849,-953,-699,-752,-701,-725,-326,-161
327,-961,-1288,317,808,-1125,-787,-1144,-1261,-1330,-915,-524
263,-860,-1122,299,693,-991,-700,-963,-1117,-1197,-880,-539
198,-740,-938,271,568,-839,-525,-705,-874,-927,-721,-476
11,-668,-679,329,345,-674,-259,-479,-654,-740,-625,-394
-62,-415,-353,238,146,-384,-127,-301,-400,-439,-373,-204
-85,-163,-78,124,-3,-120,18,-77,-115,-147,-142,-33
-101,-24,77,62,-89,26,58,10,7,-7,-18,57
-74,-3,71,39,-73,33,83,45,22,-7,-14,61
-84,27,110,28,-97,68,103,77,63,38,2,62
-72,43,115,14,-94,79,104,91,70,53,12,51
-69,41,110,14,-90,75,134,130,108,65,22,46
-75,52,127,11,-101,90,139,142,131,79,37,39
-98,45,143,27,-120,93,163,194,165,88,42,33
-134,49,183,42,-159,115,186,234,195,100,39,20
-93,78,171,7,-132,124,213,275,233,132,53,2
-50,101,152,-26,-101,126,251,352,299,174,74,-1
-57,120,178,-32,-118,149,279,413,346,206,100,10
-58,166,224,-54,-141,194,309,469,406,245,130,20
-48,223,271,-88,-160,247,327,526,466,289,157,29
-58,279,337,-111,-198,308,330,576,526,356,212,62
-7,330,338,-162,-173,334,313,567,557,409,260,87
53,376,322,-215,-135,349,276,547,555,449,304,118
73,386,313,-230,-121,349,224,517,527,447,323,143
108,342,234,-225,-63,288,157,414,460,404,318,137
85,253,168,-170,-41,210,105,296,358,337,262,104
47,158,111,-102,-32,135,58,178,219,231,178,38
43,105,61,-74,-9,83,19,88,119,145,111,-18
5,66,60,-36,-28,63,11,40,59,94,62,-37
-28,29,57,-1,-42,42,4,-13,13,51,42,-58
-16,19,35,-1,-26,27,-2,-24,-6,24,16,-73
-39,13,52,13,-46,32,-9,-22,-29,20,19,-77
-65,5,69,30,-67,37,-15,-48,-37,20,23,-98
-60,-2,58,31,-59,28,-10,-46,-34,16,8,-102
-62,-9,52,35,-57,21,-5,-36,-36,14,1,-98
-48,-4,44,26,-46,20,0,-32,-35,11,-3,-101
-35,1,36,17,-36,19,3,-23,-35,10,1,-99
-38,6,44,16,-42,25,9,-22,-37,10,0,-98
-43,12,55,15,-49,34,8,-26,-41,10,0,-94
-40,17,58,11,-49,37,4,-15,-40,10,0,-92
-57,19,76,19,-67,47,5,-24,-40,11,1,-89
-83,12,95,36,-90,53,2,-46,-40,9,6,-86
-65,20,85,23,-76,52,-1,-39,-40,13,11,-85
-70,27,96,22,-83,61,1,-31,-31,15,15,-78
-73,51,124,11,-99,88,15,-23,-18,16,20,-67
-49,74,123,-13,-86,98,40,-17,-9,38,24,-58
-24,85,110,-31,-67,97,40,-12,0,48,29,-48
2,106,104,-54,-51,105,0,-27,-8,45,34,-44
2,95,93,-49,-45,94,-36,-43,-12,40,28,-41
16,77,60,-47,-22,69,-69,-58,-33,34,23,-36
-5,48,53,-22,-29,51,-81,-86,-70,28,17,-36
-41,21,62,10,-52,41,-71,-85,-69,23,12,-39
-51,9,61,21,-56,35,-62,-84,-71,16,6,-45
-68,-10,58,39,-63,24,-54,-86,-69,11,-1,-48
-90,-26,64,58,-77,18,-45,-85,-71,4,-20,-49
-84,-30,54,57,-69,12,-34,-83,-69,-3,-33,-43
-87,-35,52,61,-69,8,-28,-80,-66,-7,-29,-40
-102,-26,76,64,-88,24,-20,-79,-88,-19,-45,-67
-81,3,84,39,-82,43,-23,-82,-81,-17,-22,-64
-89,-16,74,52,-81,29,-11,-78,-79,-31,-22,-59
-89,-14,75,51,-82,30,-17,-83,-80,-18,-17,-50
-98,-21,77,59,-87,28,-3,-83,-85,-36,-23,-43
-65,-9,56,37,-60,23,-5,-88,-83,-26,-16,-35
-54,69,123,-8,-88,95,8,-110,-95,-9,7,-7
-112,164,276,-26,-194,220,18,-148,-67,109,84,39
-20,345,364,-163,-192,355,11,28,207,525,423,243
219,118,-101,-168,160,8,78,338,413,492,478,305
476,-448,-923,-14,700,-685,-366,-196,-155,-226,10,42
415,-862,-1277,224,846,-1069,-799,-1024,-1066,-1075,-676,-381
251,-949,-1200,349,726,-1075,-727,-1090,-1267,-1328,-986,-601
246,-779,-1025,267,635,-901,-647,-860,-1024,-1043,-812,-528
102,-729,-831,314,466,-779,-410,-612,-802,-846,-721,-499
-24,-587,-564,306,270,-575,-206,-421,-571,-608,-555,-392
-66,-309,-243,188,89,-276,-82,-214,-293,-285,-281,-202
-74,-74,-1,74,-36,-37,8,-23,-58,-47,-102,-74
-70,4,75,33,-72,39,32,12,-11,9,-48,-44
-88,2,90,43,-89,46,72,46,25,31,-39,-42
-92,30,122,30,-107,76,78,72,62,67,-15,-26
-95,30,125,32,-110,77,102,90,74,71,0,-29
-94,38,131,28,-113,84,109,115,99,89,15,-22
-100,25,125,38,-113,75,120,149,124,102,17,-20
-78,56,134,11,-106,95,140,179,151,120,24,-16
-87,75,162,5,-124,118,166,218,183,135,30,-11
-73,75,148,-1,-111,111,201,277,235,162,30,0
-54,129,183,-38,-119,156,241,342,291,206,61,13
-65,152,217,-44,-141,185,281,412,351,253,96,36
-58,185,243,-64,-151,214,297,476,418,301,120,69
-67,249,316,-91,-192,282,319,524,481,355,167,95
-16,306,323,-145,-170,315,319,556,530,401,214,144
15,352,337,-184,-161,344,297,565,541,453,274,201
40,380,340,-210,-150,360,251,520,528,485,304,230
103,383,281,-243,-89,332,181,451,505,478,299,215
119,312,193,-216,-37,253,118,353,425,429,277,189
96,216,120,-156,-12,168,64,233,300,322,217,181
46,132,86,-89,-20,109,40,125,169,207,139,135
11,64,54,-38,-22,59,33,45,82,136,84,75
-6,39,45,-17,-26,42,30,5,47,90,48,51
-8,27,35,-10,-22,31,27,-24,24,57,13,51
-13,14,27,-1,-20,20,22,-35,16,52,15,58
-16,7,24,4,-20,15,20,-39,7,49,13,60
-18,-4,14,11,-16,4,15,-38,-3,40,-4,66
-39,-6,34,22,-36,14,11,-34,-11,34,-11,73
-51,5,56,23,-54,31,9,-32,-25,25,-12,75
-29,6,35,11,-32,20,4,-29,-31,21,-6,75
-33,-2,31,17,-32,14,1,-26,-30,32,-4,75
-62,7,69,27,-65,38,-3,-25,-30,40,1,75
-43,30,73,6,-58,51,-6,-35,-30,32,5,75
-38,25,63,6,-51,44,-11,-43,-30,27,3,81
-42,19,61,11,-51,40,-13,-44,-27,23,-2,87
-39,13,53,13,-46,33,-18,-40,-21,19,-5,93
-38,12,50,13,-44,31,-20,-34,-18,17,0,115
-29,43,72,-8,-50,57,-3,-27,-14,12,8,144
-35,73,108,-19,-72,90,24,-27,-7,10,13,188
-25,88,113,-32,-69,101,37,-30,2,22,22,247
-7,93,101,-43,-54,97,16,-31,10,26,26,318
2,87,85,-45,-41,86,-17,-28,19,24,39,407
35,90,55,-62,-11,72,-66,-46,14,27,51,452
44,67,24,-56,9,45,-101,-75,-5,3,46,442
30,42,12,-36,9,27,-93,-74,-17,-26,41,386
6,39,33,-23,-14,36,-79,-76,-41,-36,36,299
-24,17,42,3,-33,29,-65,-90,-66,-52,6,248
-26,10,37,8,-32,23,-53,-87,-64,-71,-30,212
-34,-1,33,17,-33,16,-48,-79,-56,-78,-32,167
-33,-3,30,18,-31,13,-52,-81,-55,-72,-13,126
-38,-12,26,25,-32,7,-47,-69,-47,-84,-12,93
-30,-11,19,20,-24,3,-53,-74,-47,-76,-8,91
-44,-20,24,32,-34,2,-47,-77,-67,-82,-27,58
-60,-20,40,40,-50,10,-47,-88,-71,-72,-26,34
-42,-1,41,21,-41,20,-45,-85,-77,-68,-17,27
-58,-36,23,47,-40,-7,-38,-79,-75,-72,-17,15
-66,34,100,15,-83,67,-48,-110,-92,-36,14,23
-89,140,229,-26,-159,184,-21,-133,-82,31,78,23
-20,319,339,-149,-180,329,-37,-49,143,434,412,203
211,168,-43,-190,127,62,53,316,384,456,492,273
459,-433,-892,-13,676,-662,-210,-60,-102,-334,-35,-32
420,-866,-1286,223,854,-1076,-688,-1057,-1103,-1192,-716,-442
205,-1000,-1206,398,706,-1103,-682,-1293,-1470,-1555,-1091,-716
144,-871,-1014,364,580,-942,-635,-1095,-1251,-1310,-957,-676
71,-764,-836,347,454,-800,-464,-756,-926,-997,-768,-573
-27,-610,-584,319,279,-597,-211,-456,-614,-721,-592,-482
-79,-331,-252,205,87,-291,-79,-247,-328,-384,-316,-293
-72,-93,-22,82,-25,-57,41,-27,-59,-123,-88,-138
-65,2,67,32,-66,34,56,21,22,-25,-14,-105
-71,0,71,35,-72,36,87,67,48,-9,-10,-112
-41,46,88,-3,-65,67,95,90,85,14,13,-101
-65,50,116,7,-91,83,99,114,99,28,19,-100
-65,39,104,13,-85,71,111,146,130,60,41,-94
-59,47,107,6,-83,77,118,173,166,82,49,-90
-73,73,146,-1,-109,109,142,215,191,91,50,-83
-51,87,138,-18,-94,112,146,244,215,97,54,-78
-47,95,141,-24,-95,118,168,311,273,139,89,-72
-42,123,165,-41,-104,143,188,361,324,193,126,-67
-33,162,195,-65,-115,178,214,423,384,235,145,-57
-20,204,224,-93,-122,214,245,496,445,270,186,-48
-14,265,280,-126,-147,272,245,539,492,330,228,-37
0,330,330,-166,-165,330,236,574,556,397,272,-14
52,378,326,-215,-137,351,224,579,576,442,325,21
79,421,341,-250,-131,381,192,548,553,473,365,46
103,400,297,-251,-97,348,151,488,543,464,370,46
127,335,208,-231,-41,272,106,384,460,411,335,20
92,245,153,-169,-31,199,60,263,322,304,261,-42
49,154,105,-102,-28,129,31,164,210,190,175,-107
29,111,82,-70,-27,96,20,81,102,108,106,-168
-20,55,75,-18,-48,65,20,27,47,63,65,-214
-36,31,67,3,-52,49,20,2,28,48,46,-228
-39,25,64,7,-52,44,20,-3,9,37,39,-235
-52,14,66,19,-59,40,20,-5,-3,28,33,-242
-30,33,64,-2,-47,48,20,-10,-11,22,26,-245
-40,28,68,5,-54,48,20,-13,-10,18,19,-238
-52,31,84,10,-68,57,20,-17,-10,13,13,-234
-54,28,83,13,-69,55,20,-21,-10,9,10,-228
-43,32,75,5,-59,53,20,-19,-10,4,10,-222
-48,26,74,11,-61,49,20,-25,-10,1,10,-218
-52,13,66,19,-59,39,20,-37,-10,-2,10,-210
-34,32,66,0,-50,49,20,-34,-10,-5,10,-206
-71,15,87,28,-79,51,20,-36,-10,-3,14,-193
-48,42,91,3,-70,66,20,-34,-10,3,23,-176
-14,78,92,-32,-53,85,21,-37,-11,10,30,-164
-27,68,95,-21,-61,82,17,-29,-5,13,28,-154
-23,74,97,-26,-60,85,35,-1,5,38,45,-121
-26,98,124,-36,-76,111,77,3,22,61,66,-81
-8,112,120,-52,-64,115,66,-12,28,54,65,-56
-1,100,100,-50,-51,100,4,-22,22,47,64,-39
-4,94,98,-45,-51,96,-33,-32,19,42,75,-17
15,79,64,-48,-24,71,-61,-55,-11,31,77,19
24,52,27,-38,-2,39,-58,-57,-45,29,68,38
30,35,5,-32,12,20,-50,-64,-51,28,54,57
-9,17,26,-4,-18,22,-46,-81,-49,2,27,68
-57,-1,57,29,-57,28,-19,-75,-51,-5,19,64
-70,-23,47,46,-58,12,-10,-69,-60,-5,16,69
-84,-33,51,59,-68,9,-8,-68,-58,-7,13,70
-76,-26,50,51,-62,12,0,-59,-52,-11,9,70
-76,-26,50,51,-63,12,5,-59,-49,-11,3,85
-57,-12,45,34,-51,17,8,-50,-43,-4,5,94
-65,-19,46,42,-55,13,8,-45,-41,-9,-5,98
-72,3,75,34,-73,39,0,-65,-55,9,7,124
-43,-24,19,34,-31,-3,9,-50,-53,-10,-9,118
-48,-15,33,31,-40,9,-11,-70,-51,25,9,134
-97,87,184,4,-140,135,19,-103,-77,28,31,162
-94,221,315,-64,-205,267,29,-75,75,294,254,291
102,281,180,-192,-39,230,81,236,373,591,528,454
410,-156,-567,-127,488,-361,-35,248,206,64,214,294
558,-690,-1248,66,904,-969,-583,-669,-712,-834,-458,-106
360,-947,-1307,294,834,-1127,-786,-1282,-1428,-1427,-985,-457
212,-919,-1131,354,672,-1025,-711,-1165,-1352,-1372,-1020,-522
161,-777,-938,308,550,-858,-595,-885,-1046,-1049,-833,-442
-14,-695,-681,355,333,-688,-317,-577,-748,-810,-680,-352
-86,-448,-362,268,138,-405,-140,-346,-454,-482,-417,-170
-73,-174,-101,124,14,-137,-12,-96,-151,-162,-154,31
-96,-33,62,64,-79,15,38,31,11,2,-21,126
-111,-8,103,59,-106,47,68,50,22,25,-10,150
-101,3,103,48,-102,53,93,84,63,60,6,189
-92,16,108,38,-101,62,91,104,78,67,15,187
-94,19,112,37,-103,65,111,134,109,85,35,193
-74,38,112,18,-93,74,124,152,136,109,56,196
-62,65,126,-2,-94,95,136,192,156,116,57,195
-67,83,150,-8,-109,116,145,230,193,140,65,201
-56,88,144,-16,-100,115,177,287,240,172,78,199
-85,115,199,-15,-142,157,193,345,293,205,99,216
-74,130,204,-28,-139,167,215,398,344,235,121,228
-34,184,217,-75,-126,200,253,466,414,295,157,249
-24,258,282,-117,-153,270,266,515,478,354,198,286
9,299,290,-154,-140,294,263,569,540,420,255,329
30,362,331,-196,-151,346,257,581,579,476,304,367
64,393,329,-229,-133,361,239,562,577,499,347,389
89,386,297,-237,-104,341,190,524,552,509,358,399
123,353,230,-238,-53,292,133,437,502,467,321,384
147,266,119,-207,14,192,86,324,392,374,269,326
90,169,79,-130,6,124,49,198,255,264,198,261
46,105,59,-76,-6,82,35,108,151,169,123,208
22,74,52,-48,-15,62,30,41,75,102,67,161
26,55,28,-41,-1,41,25,-5,38,71,41,131
4,41,38,-23,-17,39,22,-15,21,60,28,114
-44,34,79,5,-62,56,16,-29,12,33,17,108
-24,35,59,-6,-42,47,17,-37,7,19,10,112
-24,35,59,-5,-42,46,20,-34,-3,21,-1,126
-28,36,64,-4,-47,49,20,-36,-9,19,-3,133
-30,33,64,-2,-47,49,20,-35,-15,20,1,136
-41,29,70,6,-56,49,20,-35,-15,20,3,145
-45,24,69,10,-57,46,20,-39,-15,18,6,157
-51,20,71,15,-61,46,15,-40,-15,14,9,173
-34,33,68,1,-51,51,12,-40,-15,15,10,184
-32,42,75,-5,-54,58,8,-40,-15,15,10,187
-41,38,80,1,-60,59,5,-41,-11,15,10,192
-40,41,81,0,-61,61,0,-38,-10,15,10,195
-39,40,79,-1,-59,59,2,-34,-8,21,9,195
-40,38,78,1,-59,58,6,-26,-4,33,13,200
-18,77,95,-30,-57,85,25,-22,-5,41,18,199
-30,99,129,-35,-80,114,63,-14,5,54,27,204
-45,102,147,-29,-96,124,46,-7,16,70,44,226
6,121,115,-64,-55,118,10,-21,17,65,41,238
14,107,92,-61,-39,99,-18,-35,9,59,35,237
24,90,66,-57,-21,78,-61,-69,-24,51,30,219
34,75,41,-55,-3,58,-59,-94,-50,39,23,197
7,58,50,-33,-22,54,-46,-86,-55,31,20,179
-6,43,49,-19,-27,46,-38,-84,-61,21,9,139
-29,32,61,-2,-45,46,-29,-82,-59,18,2,108
-51,19,71,16,-61,45,-23,-75,-61,6,-8,87
-51,12,64,19,-58,38,-20,-77,-59,2,-17,75
-56,7,63,25,-60,34,-12,-79,-61,-7,-17,66
-56,-3,53,29,-54,25,-7,-80,-59,-11,-15,57
-59,-4,55,31,-57,26,-4,-81,-61,-11,-13,49
-66,-20,46,42,-55,13,7,-77,-59,-21,-19,44
-67,-4,63,35,-65,29,3,-85,-60,-5,-9,57
-58,-17,41,37,-49,12,22,-73,-62,-29,-22,48
-44,12,56,16,-50,34,10,-91,-57,7,4,66
-92,85,176,3,-134,130,38,-111,-74,31,31,58
-68,235,303,-84,-186,269,31,-62,105,326,276,160
107,266,159,-186,-26,212,80,254,394,582,515,309
433,-201,-634,-116,534,-417,-27,261,182,-13,138,101
571,-705,-1275,67,924,-990,-598,-704,-767,-916,-534,-315
327,-937,-1264,305,795,-1100,-795,-1346,-1483,-1460,-1028,-647
189,-906,-1095,358,642,-1000,-712,-1207,-1374,-1366,-1039,-692
108,-804,-912,348,510,-858,-615,-939,-1078,-1055,-848,-621
-47,-701,-654,374,304,-677,-325,-620,-779,-822,-694,-555
-105,-460,-355,282,125,-407,-152,-374,-467,-487,-427,-383
-106,-197,-91,152,-7,-144,-28,-119,-156,-164,-153,-193
-103,-29,74,65,-88,23,32,17,13,-6,-27,-110
-100,1,101,49,-101,51,55,25,14,2,-29,-121
-92,14,106,39,-99,60,83,67,60,41,11,-102
-88,27,115,30,-102,71,77,78,68,48,22,-93
-75,43,118,16,-97,80,98,100,92,59,20,-72
-73,52,125,10,-99,88,113,143,130,90,37,-51
-62,64,126,-1,-94,95,117,167,145,105,36,-58
-52,69,121,-9,-87,95,134,205,177,133,62,-56
-57,85,142,-14,-100,113,153,258,210,143,79,-63
-52,105,157,-27,-105,131,185,319,269,186,98,-62
-42,115,157,-37,-100,136,218,393,328,223,118,-69
-54,172,226,-59,-140,199,234,451,377,258,136,-90
-45,235,280,-95,-162,257,248,505,446,330,188,-74
-12,282,294,-135,-153,288,238,550,498,382,230,-44
18,321,303,-170,-143,312,226,581,543,440,297,-30
57,375,318,-216,-131,346,214,559,555,469,339,-22
74,386,311,-230,-119,348,171,516,535,472,339,-19
119,345,226,-232,-54,285,120,445,478,444,330,-34
107,253,146,-180,-20,199,74,317,363,350,273,-70
49,150,101,-100,-26,125,36,198,240,240,195,-141
50,101,51,-76,-1,75,21,99,127,137,106,-208
22,61,38,-42,-8,49,18,34,64,71,54,-225
-23,30,52,-4,-38,41,12,-12,27,31,31,-247
-40,13,53,13,-46,33,6,-33,3,17,19,-261
-31,9,41,11,-36,24,1,-30,-4,17,18,-270
-45,3,48,21,-47,25,0,-31,-23,12,10,-282
-80,-2,78,41,-78,38,0,-29,-36,9,5,-283
-90,-9,81,49,-85,36,0,-31,-34,4,1,-298
-72,-4,68,37,-70,32,0,-30,-30,2,-12,-309
-33,29,62,2,-48,45,0,-30,-27,-3,-9,-307
-13,36,49,-12,-31,42,1,-30,-22,-4,9,-298
-25,26,51,-1,-38,38,6,-30,-20,2,17,-287
-52,22,73,15,-63,47,9,-31,-21,7,16,-278
-63,13,76,25,-70,45,13,-29,-20,13,15,-268
-47,8,55,19,-51,31,16,-32,-21,19,14,-264
-47,1,48,22,-47,24,21,-20,-19,24,10,-257
-76,10,86,33,-81,47,15,-26,-22,29,9,-253
-58,35,93,11,-76,64,7,-36,-13,32,13,-244
-30,50,80,-10,-55,65,40,-12,18,36,21,-218
-32,79,111,-24,-72,95,52,-2,25,40,29,-203
-18,103,120,-43,-69,111,23,-5,14,36,37,-194
-7,89,96,-41,-51,92,-12,-15,12,27,44,-192
-2,78,81,-38,-42,79,-59,-50,-2,22,41,-195
30,66,37,-48,-4,51,-80,-79,-34,12,36,-196
43,52,9,-47,17,30,-69,-81,-46,7,35,-200
-5,39,44,-17,-25,41,-47,-79,-45,-2,29,-200
-39,11,51,14,-45,31,-31,-81,-43,-12,26,-222
-67,-24,43,45,-55,10,-28,-80,-55,-23,22,-249
-60,-22,38,41,-49,7,-24,-80,-66,-37,12,-261
-48,-14,34,31,-41,10,-22,-78,-65,-34,5,-257
-68,-43,25,56,-46,-9,-14,-72,-65,-38,-4,-254
-66,-37,29,51,-48,-3,-16,-79,-64,-30,5,-247
-79,-43,36,61,-58,-3,-7,-71,-67,-37,-7,-246
-73,-38,35,55,-54,-1,-11,-79,-66,-22,8,-237
-76,-41,35,58,-55,-3,-2,-72,-75,-37,-8,-235
-59,-34,25,47,-42,-5,-3,-75,-68,-18,13,-226
-79,38,117,20,-99,78,-2,-94,-83,0,43,-204
-116,129,245,-7,-181,187,19,-76,8,158,144,-132
31,297,266,-164,-118,281,28,104,288,555,485,62
304,20,-284,-162,293,-132,66,387,354,315,392,39
547,-546,-1092,0,820,-819,-347,-218,-295,-502,-177,-282
459,-856,-1315,198,887,-1085,-780,-1146,-1208,-1224,-782,-661
221,-936,-1157,358,689,-1046,-733,-1248,-1414,-1423,-1026,-830
127,-834,-961,354,544,-897,-662,-1035,-1176,-1163,-891,-763
25,-752,-776,364,401,-764,-439,-724,-888,-924,-766,-687
-70,-561,-490,316,210,-525,-204,-442,-576,-629,-534,-526
-98,-288,-190,193,46,-238,-61,-202,-270,-280,-251,-297
-88,-71,17,79,-52,-27,39,-1,-19,-40,-62,-131
-105,5,109,50,-107,57,53,31,19,5,-17,-88
-95,7,102,44,-98,54,87,71,44,25,-1,-71
-60,56,116,2,-89,86,86,101,75,62,27,-35
-58,53,111,2,-85,82,101,119,87,69,33,-4
-63,56,119,3,-91,87,110,151,120,83,53,21
-79,60,139,10,-109,99,114,175,145,95,53,26
-78,63,141,8,-110,101,138,209,173,121,63,38
-72,67,140,3,-107,103,157,254,204,135,74,54
-70,70,141,0,-106,105,183,314,255,165,89,82
-66,107,173,-21,-120,140,204,375,304,205,113,122
-51,148,199,-49,-125,173,233,437,365,251,142,168
-26,199,225,-87,-126,212,263,504,432,309,187,221
-11,261,272,-125,-142,267,267,558,494,363,231,273
15,325,310,-171,-148,317,254,584,546,423,283,311
57,376,319,-217,-131,347,244,586,554,473,339,346
81,385,304,-233,-112,344,206,552,544,484,348,366
100,360,260,-230,-80,310,152,478,523,467,339,357
119,288,169,-204,-25,229,107,375,437,403,318,328
101,198,97,-150,2,147,52,249,299,287,233,267
64,128,64,-97,0,96,27,138,177,187,145,199
22,72,50,-47,-14,60,25,69,94,123,95,153
6,43,38,-25,-16,40,18,25,40,69,56,124
-5,25,30,-10,-18,27,14,-10,14,33,31,117
-31,12,43,9,-37,27,5,-26,8,24,19,113
-49,-2,47,25,-48,22,15,-25,5,21,14,108
-54,-11,43,32,-48,15,26,-21,2,18,9,104
-47,1,49,23,-48,25,18,-19,-3,13,3,100
-51,17,68,17,-60,42,13,-16,-6,10,-3,105
-40,31,71,4,-56,51,9,-15,-11,14,-3,105
-40,25,64,7,-52,44,0,-25,-21,24,1,104
-50,15,65,17,-58,39,11,-33,-23,28,3,105
-19,39,58,-10,-39,48,27,-30,-19,25,6,104
-12,50,62,-19,-37,56,21,-29,-21,25,9,108
-31,36,67,-3,-49,51,19,-25,-20,25,11,114
-33,31,63,1,-48,47,14,-24,-21,24,16,122
-36,19,54,8,-45,36,10,-40,-20,26,26,133
-40,25,65,7,-53,45,10,-37,-11,19,30,141
-26,83,110,-28,-68,96,31,-21,6,25,30,161
-12,115,127,-52,-70,121,66,-11,31,39,45,189
-14,109,123,-47,-69,115,49,-6,35,48,59,220
3,120,117,-61,-58,118,15,-22,22,56,65,259
0,98,98,-49,-50,98,-26,-41,13,56,63,301
9,68,60,-39,-26,64,-74,-72,0,49,56,314
45,71,26,-59,9,48,-79,-97,-11,37,51,331
17,54,37,-36,-10,45,-66,-92,-23,25,46,356
-5,33,39,-14,-22,36,-53,-89,-51,-4,33,344
-7,23,30,-8,-19,27,-44,-87,-57,-20,21,338
-24,9,34,8,-29,21,-37,-79,-54,-21,6,327
-30,11,41,10,-36,26,-32,-84,-55,-18,7,319
-32,5,37,13,-35,21,-22,-81,-50,-22,4,305
-28,2,31,13,-30,17,-19,-82,-50,-19,2,291
-27,3,30,12,-29,16,-14,-78,-49,-19,1,276
-41,-6,35,23,-38,14,-15,-81,-45,-15,-4,248
-63,1,64,31,-64,33,-18,-82,-44,-1,3,250
-47,-27,20,37,-33,-4,-10,-75,-48,-12,-22,235
-54,11,65,22,-60,38,-24,-102,-47,18,19,248
-94,104,198,-5,-147,151,17,-120,-55,39,58,258
-37,275,312,-119,-175,293,16,-52,143,393,323,406
163,240,77,-201,43,158,83,312,438,561,518,539
495,-272,-767,-112,632,-519,-139,131,88,-120,87,299
570,-742,-1312,86,941,-1027,-702,-881,-903,-990,-581,-115
316,-950,-1266,317,791,-1108,-796,-1326,-1458,-1466,-1048,-460
199,-874,-1072,338,636,-973,-715,-1145,-1300,-1308,-992,-469
114,-767,-881,326,498,-824,-556,-855,-997,-1002,-796,-374
-48,-689,-641,369,297,-665,-278,-558,-709,-771,-661,-319
-106,-405,-299,255,97,-352,-132,-328,-415,-439,-378,-138
-95,-143,-48,119,-23,-95,-8,-73,-122,-133,-125,33
-106,-33,73,69,-89,20,43,29,15,3,-14,108
-114,-6,108,59,-111,51,73,50,34,12,0,104
-83,34,117,24,-100,75,77,85,71,51,15,122
-63,52,115,5,-89,83,89,98,83,60,21,132
-67,46,113,10,-90,79,117,135,109,71,38,135
-81,38,119,21,-100,78,117,166,135,88,48,141
-78,29,107,24,-93,68,133,202,154,95,53,141
-75,44,119,15,-97,81,146,233,190,119,63,146
-69,70,139,-1,-104,104,166,286,240,149,70,148
-64,98,161,-17,-113,129,199,356,290,187,97,151
-68,124,192,-28,-130,157,233,415,348,227,128,153
-49,175,224,-63,-137,200,260,485,422,273,159,177
-28,220,249,-96,-139,235,273,548,482,331,206,213
-7,279,286,-136,-146,282,281,593,539,394,259,251
25,339,314,-182,-145,326,268,600,579,446,311,294
70,369,298,-220,-115,333,222,572,570,465,352,332
107,386,279,-246,-87,332,168,517,540,465,352,334
132,321,189,-227,-29,254,115,420,479,432,321,322
111,222,111,-167,-1,166,58,296,356,324,256,290
62,154,92,-108,-15,122,15,169,217,203,172,230
45,94,49,-70,-2,72,9,78,123,126,105,190
13,52,39,-32,-13,45,11,25,62,69,57,161
-11,31,42,-10,-26,36,9,-12,18,36,32,146
-15,22,37,-4,-26,29,10,-22,5,24,20,143
-39,9,49,15,-44,29,10,-20,-7,17,12,139
-58,1,58,28,-58,29,16,-36,-17,11,6,136
-54,-3,51,28,-52,23,26,-42,-15,4,-2,131
-52,-8,44,30,-48,18,28,-39,-10,-2,-10,129
-45,-9,36,27,-41,13,22,-41,-5,-6,-13,121
-31,-2,29,16,-29,13,17,-39,-2,-5,-10,114
-36,-4,31,20,-33,13,14,-41,4,-5,-7,108
-62,-7,56,34,-59,24,9,-45,3,-5,-5,100
-74,4,77,35,-76,40,5,-45,-2,-5,-1,95
-65,8,74,28,-70,41,10,-47,-5,-5,0,86
-61,17,77,22,-69,47,9,-50,-8,2,-3,82
-45,36,81,4,-63,58,11,-52,-13,9,-12,72
-38,40,78,-1,-58,58,9,-44,-16,19,-14,75
-35,59,93,-12,-64,76,16,-23,-3,25,-1,100
-12,94,106,-41,-59,100,56,-1,13,34,14,108
-5,106,111,-51,-58,108,48,11,22,39,25,109
-17,103,120,-43,-69,112,5,0,14,41,36,118
9,88,79,-49,-35,84,-35,-11,-3,51,49,133
32,75,44,-54,-6,59,-71,-39,-21,24,46,133
21,60,39,-41,-9,49,-65,-76,-41,1,37,123
23,47,24,-36,-1,35,-55,-81,-45,1,33,119
-27,33,60,-3,-43,46,-44,-79,-48,-12,17,110
-64,22,86,20,-75,54,-37,-85,-51,-12,3,105
-61,9,70,25,-65,39,-30,-84,-54,-31,-14,98
-77,-6,71,41,-74,32,-28,-87,-55,-33,-15,94
-87,-22,66,54,-76,22,-22,-89,-55,-25,-14,88
-88,-30,57,59,-72,13,-18,-90,-55,-21,-20,82
-78,-16,62,46,-69,22,-15,-92,-55,-9,-17,79
-67,-24,44,45,-55,9,-5,-92,-56,-12,-26,72
-61,-3,57,32,-59,27,-8,-100,-54,5,-16,78
-49,-19,30,33,-39,5,11,-85,-57,-14,-37,65
-52,11,64,21,-58,37,-2,-101,-53,19,-3,74
-109,82,191,13,-150,136,28,-105,-58,35,28,90
-79,220,299,-71,-189,259,10,-75,82,313,246,205
113,285,172,-199,-30,228,68,244,387,598,513,353
429,-161,-590,-134,509,-375,-33,271,206,29,154,160
575,-671,-1246,48,911,-958,-612,-698,-762,-880,-523,-285
349,-917,-1266,284,808,-1091,-801,-1359,-1492,-1444,-1043,-656
185,-890,-1076,353,631,-983,-742,-1242,-1417,-1387,-1068,-738
101,-778,-879,339,490,-828,-637,-951,-1095,-1058,-844,-673
-52,-690,-637,371,293,-663,-331,-635,-799,-818,-706,-599
-121,-454,-334,288,107,-394,-167,-397,-501,-493,-441,-432
-119,-181,-61,150,-28,-121,-10,-125,-179,-168,-158,-234
-93,1,94,45,-93,47,58,17,-14,4,-24,-133
-88,27,114,30,-102,70,65,37,7,20,-11,-128
-78,47,125,15,-101,85,92,76,49,44,9,-118
-72,54,126,9,-99,90,105,96,72,76,23,-117
-90,45,135,22,-112,90,119,128,101,84,31,-115
-82,71,153,5,-117,111,113,155,127,101,47,-110
-72,88,161,-8,-117,124,140,185,150,122,47,-110
-70,91,161,-10,-116,126,151,221,183,135,55,-103
-70,88,157,-9,-114,122,172,276,230,162,80,-92
-70,117,186,-24,-128,151,200,335,275,198,102,-83
-54,147,201,-47,-128,174,225,400,338,235,126,-71
-44,188,231,-72,-138,209,258,471,404,286,159,-54
-33,247,280,-107,-157,263,282,532,466,340,205,-29
-15,293,308,-139,-162,300,294,582,528,404,255,8
19,347,328,-183,-155,337,279,594,565,455,296,41
66,393,327,-230,-131,360,258,572,575,491,349,80
102,394,292,-248,-95,343,204,527,554,493,365,85
135,354,218,-245,-42,286,137,444,499,446,338,71
119,251,132,-186,-7,191,92,326,378,356,276,46
69,153,84,-111,-8,118,54,200,253,246,194,-23
28,103,75,-66,-24,89,40,100,145,151,129,-72
8,72,65,-40,-29,68,37,41,72,89,81,-82
-10,49,59,-20,-35,54,33,4,44,58,48,-94
-35,26,61,5,-48,43,30,-9,24,39,31,-112
-49,10,59,19,-54,35,25,-18,18,34,27,-119
-60,0,61,30,-61,30,25,-36,12,31,24,-122
-50,8,59,21,-55,34,25,-35,7,27,21,-125
-43,15,58,14,-50,36,25,-35,1,24,15,-117
-56,-10,46,33,-51,18,25,-36,-4,19,20,-112
-65,-13,52,38,-58,20,25,-34,-9,24,31,-106
-60,21,81,19,-70,51,25,-38,-10,25,30,-101
-59,19,78,20,-68,48,25,-40,-10,25,28,-96
-52,21,73,15,-63,47,25,-40,-15,30,25,-89
-24,48,72,-12,-48,60,25,-40,-16,30,24,-83
-15,49,64,-17,-40,56,24,-40,-14,31,28,-76
-14,54,68,-20,-41,61,25,-40,-6,35,30,-69
-14,52,66,-19,-41,58,27,-31,4,38,30,-64
-33,68,100,-18,-67,84,32,-17,11,39,35,-56
-31,100,131,-35,-81,115,60,-9,23,51,42,-48
-11,106,117,-48,-64,111,77,4,40,63,51,-39
-1,109,110,-54,-56,109,42,7,38,59,56,-33
-5,98,103,-47,-54,100,-16,-13,32,61,67,-25
5,87,82,-47,-39,84,-58,-49,24,60,74,-20
38,78,40,-59,-1,59,-67,-76,6,60,62,-14
55,74,19,-65,17,47,-48,-79,-10,60,54,-11
17,77,60,-47,-22,68,-36,-83,-36,24,42,-56
-33,45,78,-6,-56,61,-32,-86,-54,1,34,-90
-55,4,59,25,-57,31,-23,-84,-56,-4,25,-90
-67,-8,60,38,-63,26,-18,-86,-54,-9,15,-90
-72,-11,61,41,-66,25,-15,-85,-56,-11,10,-92
-68,-15,53,41,-61,18,-14,-84,-54,-21,-3,-103
-57,0,57,28,-57,29,-18,-87,-55,-15,-1,-91
-67,-12,56,39,-61,22,-10,-77,-56,-18,-11,-94
-61,10,71,26,-66,40,-22,-85,-53,7,10,-77
-55,-5,50,30,-53,22,-6,-74,-59,-7,4,-69
-27,23,51,2,-40,37,-14,-91,-49,25,29,-33
-55,101,156,-23,-106,128,10,-114,-69,25,45,-13
-90,208,298,-59,-194,253,21,-86,66,249,216,54
91,311,220,-201,-65,266,66,202,362,598,531,254
415,-99,-514,-158,465,-307,34,352,273,145,271,133
631,-612,-1242,-9,937,-927,-513,-492,-562,-727,-361,-248
412,-907,-1320,248,866,-1113,-808,-1291,-1395,-1360,-908,-599
211,-909,-1120,349,666,-1014,-714,-1259,-1428,-1415,-1029,-739
145,-763,-909,309,528,-836,-644,-1002,-1151,-1121,-862,-683
-4,-719,-715,361,356,-717,-372,-681,-848,-878,-731,-597
-84,-502,-418,293,167,-460,-174,-419,-531,-547,-471,-411
-88,-208,-120,148,16,-164,-38,-158,-216,-220,-193,-200
22,66,43,-44,-11,54,81,44,1,-13,0,-86
-77,16,93,30,-85,54,87,47,-4,11,6,-90
-99,1,100,49,-100,50,91,75,51,49,12,-81
-78,28,106,25,-92,67,108,113,89,82,59,-74
-142,-38,104,90,-123,33,116,114,87,68,39,-57
-28,78,105,-26,-67,91,117,150,121,86,47,-28
-84,23,107,30,-95,65,123,184,138,83,59,-33
-76,45,121,15,-99,83,147,220,176,122,79,-18
-30,91,121,-30,-76,105,177,274,221,168,100,-10
-83,57,141,12,-112,98,191,325,256,173,93,18
-13,155,168,-71,-90,161,219,400,321,215,112,47
-26,169,195,-72,-111,182,278,484,399,291,176,108
-50,201,251,-75,-151,225,297,527,439,321,200,156
10,285,275,-148,-133,280,266,563,489,362,238,151
38,343,305,-191,-134,324,274,605,550,441,305,211
67,386,319,-226,-127,353,256,595,569,472,343,243
109,389,280,-250,-86,334,194,544,560,477,363,266
111,332,221,-222,-55,276,146,462,504,448,337,282
100,252,152,-177,-26,202,87,348,393,367,288,221
88,172,85,-130,1,128,46,219,263,256,214,172
37,72,35,-55,1,53,22,108,153,153,136,131
-5,41,45,-18,-25,43,13,49,98,99,81,90
-12,45,57,-17,-35,51,24,17,49,64,31,47
-30,14,43,8,-37,28,19,-3,2,41,17,30
-51,-3,47,26,-49,22,2,-18,-11,30,13,28
-55,-21,35,38,-45,7,-6,-26,-13,30,7,18
-57,-17,40,37,-49,11,-6,-24,-6,29,2,14
-52,-9,43,30,-47,17,-5,-26,-17,24,-6,4
-58,-24,34,41,-46,5,6,-24,-26,25,12,17
-74,3,77,35,-76,40,1,-27,-20,23,18,14
-31,58,89,-14,-60,73,2,-23,-20,19,8,1
-50,32,82,9,-66,57,-5,-21,-20,16,4,-10
-148,-60,87,104,-118,13,-26,-52,-38,12,-12,-41
-134,-51,83,92,-108,16,-25,-60,-30,10,-11,-36
-62,24,86,18,-74,55,-22,-49,-11,20,0,-22
-47,37,84,4,-66,60,-18,-46,-6,22,-1,-19
-77,8,86,34,-82,47,-17,-40,2,18,2,-14
-42,42,85,-1,-64,63,1,-30,13,32,23,-4
-59,37,96,11,-78,67,22,-16,6,55,38,-23
-51,72,122,-11,-87,97,51,11,14,47,48,-47
23,141,118,-82,-47,129,56,3,37,48,65,-37
18,116,98,-68,-40,107,8,-43,19,67,60,-28
40,120,79,-80,-20,99,-47,-43,6,54,53,4
4,57,53,-31,-24,54,-84,-70,-25,41,46,10
11,30,18,-21,-4,24,-86,-104,-56,34,39,-3
12,30,19,-21,-4,24,-72,-94,-55,21,34,-13
-45,4,49,20,-47,26,-55,-93,-54,14,26,-28
-39,10,48,14,-43,28,-45,-87,-51,6,20,-23
-77,-40,37,58,-57,-1,-41,-82,-49,-2,11,-23
-95,-51,44,73,-69,-4,-36,-81,-52,-7,6,-17
-80,-45,35,63,-58,-5,-28,-72,-55,-20,-6,-18
-74,-36,38,55,-56,1,-34,-79,-55,-13,2,-12
-64,-31,33,47,-48,1,-25,-68,-59,-18,-4,-12
-54,-21,33,37,-43,6,-35,-74,-59,-2,3,-4
-67,-38,29,52,-48,-5,-25,-68,-63,-8,-2,-1
-63,-51,12,57,-37,-19,-34,-71,-55,2,-2,-1
-70,40,110,15,-90,75,-24,-108,-81,11,15,27
-103,142,245,-19,-174,193,20,-108,-22,123,116,71
6,303,297,-155,-145,300,17,65,267,540,459,268
272,78,-194,-175,233,-58,87,397,406,391,427,279
554,-460,-1014,-47,784,-737,-331,-141,-209,-413,-120,-30
496,-817,-1314,161,905,-1065,-828,-1125,-1177,-1165,-736,-414
244,-936,-1180,347,712,-1058,-780,-1289,-1458,-1436,-1038,-643
164,-808,-972,323,568,-890,-708,-1079,-1228,-1191,-911,-587
22,-771,-793,375,407,-782,-488,-781,-943,-946,-777,-538
-98,-622,-524,360,213,-573,-246,-502,-642,-673,-583,-419
-88,-311,-223,199,68,-266,-100,-245,-320,-315,-283,-201
-85,-82,3,83,-43,-39,38,-17,-53,-49,-71,-72
-98,10,107,44,-103,58,46,26,4,13,-8,-31
-99,13,111,42,-105,62,60,57,38,26,1,1
-61,55,116,3,-89,85,80,78,61,56,13,24
-53,51,104,1,-79,78,83,100,81,62,17,31
-74,46,120,14,-98,83,92,129,112,85,29,49
-81,31,112,25,-97,71,103,160,129,96,32,56
-63,63,127,0,-95,95,116,198,167,122,43,78
-37,109,146,-37,-91,127,137,241,203,141,59,91
-58,89,147,-15,-103,118,166,296,251,165,70,108
-63,123,186,-30,-125,155,196,357,308,202,86,131
-38,167,205,-65,-122,186,224,436,374,241,121,157
-69,193,262,-62,-166,227,242,480,421,286,148,185
-40,261,300,-111,-170,280,256,541,489,342,198,235
17,327,310,-173,-147,319,246,586,546,404,260,300
47,377,330,-213,-142,353,232,588,574,463,312,352
83,398,315,-240,-117,356,208,556,572,480,346,379
88,361,273,-225,-93,317,157,485,538,459,335,367
122,313,192,-218,-35,252,96,392,462,396,309,352
120,246,126,-183,-4,186,48,261,327,284,238,298
71,166,94,-119,-12,130,26,154,206,186,157,229
22,103,81,-63,-29,92,25,75,115,107,101,184
-10,60,70,-25,-41,65,25,22,57,57,61,152
-12,50,62,-19,-37,56,21,-2,25,33,43,136
-13,45,58,-17,-36,51,19,-19,-4,22,32,120
-12,40,52,-14,-32,46,22,-38,-9,18,28,114
-8,39,47,-16,-27,43,25,-52,-5,12,23,111
-5,35,40,-15,-23,37,25,-46,-5,6,16,108
-21,32,53,-6,-37,43,25,-44,-5,1,11,103
-31,30,62,0,-47,46,25,-40,-5,3,13,101
-37,27,64,5,-51,45,25,-36,-5,9,16,87
-45,20,65,12,-55,42,25,-33,-5,14,19,53
-54,9,63,22,-58,36,25,-30,-5,17,22,22
-21,34,55,-7,-38,45,25,-30,-5,23,25,-1
9,58,49,-33,-21,53,25,-30,-5,24,24,-10
-31,42,73,-6,-53,58,25,-30,-6,20,18,-21
-21,69,90,-25,-56,80,25,-30,-4,18,15,-28
-11,79,90,-34,-51,84,16,-24,7,13,9,-25
-43,51,94,-4,-69,72,28,-18,20,26,17,-25
-31,82,113,-25,-73,97,71,-11,33,47,32,-25
-7,116,123,-55,-66,120,78,6,32,61,45,-25
-6,108,114,-51,-60,111,41,3,20,61,53,-25
9,103,95,-56,-43,99,-2,-20,16,50,52,-21
35,94,59,-65,-12,77,-43,-53,-9,40,49,-19
47,65,17,-57,15,41,-69,-88,-46,27,46,-21
26,38,11,-32,7,24,-54,-96,-51,18,43,-19
-17,19,35,-1,-26,27,-28,-89,-47,4,22,-38
-28,7,35,10,-32,21,-24,-89,-45,-3,7,-75
-36,-5,31,21,-33,12,-13,-82,-41,-10,2,-92
-53,-26,27,39,-39,1,-11,-82,-39,-12,-1,-92
-55,-31,25,43,-40,-3,-8,-75,-45,-14,-3,-95
-50,-32,17,41,-34,-7,-4,-75,-45,-11,-11,-100
-50,-23,26,36,-38,1,-4,-76,-45,-4,-6,-98
-53,-28,26,40,-39,-1,4,-73,-45,-11,-8,-101
-75,-41,35,58,-55,-3,-2,-79,-44,8,10,-89
-84,-47,36,65,-59,-6,14,-70,-47,-13,0,-102
-38,1,39,18,-39,20,-10,-94,-46,28,22,-85
-83,85,168,-2,-126,127,9,-100,-67,37,40,-55
-89,225,314,-68,-202,269,31,-75,87,302,252,65
108,294,186,-201,-40,240,102,249,409,614,535,237
415,-133,-549,-141,482,-341,-7,287,241,70,209,68
588,-663,-1250,38,919,-956,-583,-685,-705,-830,-461,-315
366,-911,-1277,273,822,-1094,-804,-1362,-1453,-1416,-979,-652
195,-903,-1098,354,647,-1000,-737,-1253,-1393,-1387,-1034,-721
176,-763,-939,294,558,-851,-632,-959,-1086,-1064,-846,-631
4,-704,-708,350,356,-705,-324,-640,-793,-841,-713,-560
-100,-501,-401,301,150,-450,-163,-407,-504,-527,-463,-382
-71,-187,-116,129,23,-151,-18,-130,-176,-188,-174,-187
-50,1,51,24,-50,26,67,28,19,0,-20,-84
-62,28,90,17,-76,58,66,52,32,22,-9,-79
-60,2,62,29,-61,32,97,90,67,43,6,-71
-76,13,89,32,-83,51,103,109,80,54,23,-63
-48,71,119,-12,-84,95,105,131,107,73,24,-59
-6,106,113,-51,-59,109,112,151,127,94,24,-49
-22,100,122,-39,-72,110,142,190,145,105,44,-44
-8,108,117,-50,-63,112,159,228,187,136,59,-32
-27,110,137,-41,-82,123,171,279,233,148,63,-26
-53,113,165,-30,-109,139,204,339,279,173,79,-20
-39,131,170,-46,-105,151,234,402,329,226,95,-9
-37,166,204,-65,-121,185,261,473,398,266,130,15
-30,222,252,-96,-142,237,282,534,461,319,179,59
-20,276,295,-128,-158,285,284,590,520,387,232,103
26,331,304,-179,-139,317,268,607,565,436,270,139
86,373,286,-230,-100,329,242,585,576,464,305,180
79,363,284,-221,-103,323,196,536,547,464,325,203
111,326,216,-219,-53,271,142,456,494,445,310,193
141,251,110,-196,15,181,95,345,394,367,262,156
97,169,72,-134,12,120,47,210,256,246,185,106
98,117,20,-108,39,68,31,98,147,155,109,74
58,59,0,-59,29,29,27,39,78,103,64,64
-13,25,39,-7,-26,32,18,2,34,69,38,65
-26,19,45,3,-36,32,13,-16,19,51,20,66
-36,12,49,12,-43,30,5,-20,15,39,4,64
-62,6,68,28,-66,37,9,-28,10,29,-17,67
-78,-2,76,39,-77,37,10,-26,6,31,-22,63
-78,-4,74,40,-76,35,10,-25,1,29,-16,68
-66,9,75,28,-71,42,15,-25,-3,24,-14,73
-50,25,74,12,-62,49,15,-25,-6,26,-9,68
-50,26,76,12,-63,51,15,-26,-5,22,-6,102
-52,21,73,15,-63,46,15,-25,-5,18,-3,124
-69,13,82,27,-76,48,15,-26,-5,12,4,133
-77,12,89,33,-83,50,14,-25,-1,9,11,148
-95,-2,94,48,-95,46,15,-26,0,4,18,151
-93,18,111,38,-102,64,15,-25,0,-1,24,160
-41,68,110,-13,-76,89,15,-25,0,23,30,155
-56,54,110,1,-83,82,15,-28,-1,41,34,147
-49,61,110,-6,-80,85,17,-17,5,42,35,140
-22,92,113,-35,-68,102,59,-6,30,46,34,132
-39,97,135,-29,-87,116,76,2,43,44,36,126
-34,112,146,-39,-90,129,38,3,32,53,41,119
-17,107,124,-45,-71,116,-13,-6,21,58,39,116
11,93,82,-52,-36,87,-64,-35,10,48,35,111
3,62,59,-33,-28,60,-69,-76,3,37,32,108
-4,44,48,-20,-26,46,-55,-81,-4,30,28,98
-18,46,63,-14,-41,54,-45,-72,-11,19,23,75
-93,-5,88,48,-90,41,-37,-71,-17,15,16,33
-119,-39,79,79,-99,20,-32,-63,-24,6,-6,0
-88,-18,69,53,-78,25,-30,-62,-28,7,-11,15
-101,-28,73,65,-86,22,-25,-63,-37,0,-11,17
-97,-37,60,67,-78,11,-22,-67,-41,-3,-7,13
-71,-21,51,45,-61,15,-20,-73,-55,-3,-1,16
-96,-26,71,61,-83,22,-10,-80,-61,-29,-31,1
-88,-5,83,46,-85,39,-12,-94,-59,-21,-12,7
-64,-15,49,39,-56,17,4,-85,-63,-30,-17,-13
-67,19,85,24,-76,52,-4,-106,-63,15,-4,-2
-95,95,190,-1,-143,143,18,-101,-64,43,35,28
-64,245,308,-91,-186,276,22,-23,138,371,299,166
133,272,139,-202,-3,205,109,313,433,625,552,339
444,-197,-641,-123,542,-419,-21,314,229,47,203,157
585,-671,-1256,43,921,-963,-623,-661,-699,-812,-435,-229
347,-897,-1244,275,796,-1070,-825,-1310,-1431,-1395,-972,-554
183,-875,-1058,346,620,-966,-738,-1200,-1378,-1359,-1030,-630
117,-773,-890,329,504,-832,-627,-948,-1108,-1068,-841,-562
-46,-716,-670,381,313,-693,-341,-631,-813,-837,-703,-506
-97,-468,-371,282,138,-419,-173,-390,-516,-526,-453,-354
-97,-178,-81,138,-8,-129,-21,-125,-205,-205,-178,-168
-82,-8,75,45,-78,33,41,17,-16,-21,-25,-61
-92,19,111,37,-102,64,52,40,0,-25,-15,-55
-81,42,122,20,-102,82,109,94,43,7,6,-55
-64,56,119,4,-92,88,109,100,51,27,18,-54
-74,45,120,14,-97,82,119,131,82,42,32,-56
-68,54,122,7,-95,88,118,157,106,60,37,-54
-86,48,133,19,-109,90,127,182,125,72,35,-60
-63,50,114,6,-89,82,154,231,171,108,64,-53
-72,51,123,10,-98,87,168,277,206,125,76,-42
-80,89,169,-5,-125,129,215,337,262,171,93,-25
-52,128,181,-38,-117,154,242,391,302,202,105,2
-52,151,203,-49,-128,176,259,457,358,224,127,38
-37,215,251,-89,-144,233,290,526,435,300,180,85
-17,282,299,-133,-158,290,286,572,499,366,224,119
29,337,308,-183,-139,322,281,598,543,409,272,162
77,370,294,-224,-109,332,250,586,558,450,327,217
100,384,284,-242,-92,334,195,528,535,441,344,228
125,351,225,-238,-50,288,140,432,468,402,337,218
125,250,125,-188,-1,187,87,321,366,336,288,184
103,180,77,-142,12,128,44,196,237,224,187,123
60,120,61,-90,-1,90,13,96,127,128,111,63
17,73,55,-45,-19,64,9,45,59,67,64,24
9,64,55,-37,-24,59,11,6,31,38,41,24
4,51,47,-28,-22,49,6,-25,7,28,31,32
-9,39,48,-16,-29,44,5,-32,-15,15,24,23
-17,21,39,-2,-28,29,4,-28,-14,6,26,10
-39,7,46,15,-43,27,0,-35,-28,5,22,2
-69,1,71,34,-70,36,0,-45,-37,5,19,12
-76,-6,70,41,-72,31,0,-45,-29,5,21,25
-56,14,70,21,-63,42,0,-46,-28,5,16,34
-38,31,70,3,-54,50,0,-50,-23,2,10,38
-40,30,70,5,-55,50,2,-50,-19,-2,4,41
-41,26,67,7,-55,47,6,-48,-33,4,-2,53
-35,24,59,5,-47,41,4,-44,-42,13,-5,47
-32,21,53,5,-42,37,6,-45,-39,1,-25,41
-27,17,44,4,-35,30,4,-39,-44,-8,-22,36
-19,20,39,-1,-30,29,6,-42,-46,1,11,37
-32,-4,28,18,-30,12,-7,-46,-45,16,25,79
-20,40,61,-11,-40,50,-6,-29,-29,12,29,85
-2,105,107,-51,-55,106,39,-23,-8,10,39,67
-13,100,113,-44,-63,107,47,-27,-2,28,36,74
-1,106,108,-53,-55,107,20,-29,5,39,36,99
-13,111,124,-49,-69,117,-10,-31,10,54,70,132
9,104,95,-57,-43,99,-63,-57,-1,55,80,128
44,71,27,-57,8,49,-88,-92,-17,39,61,108
19,54,35,-37,-8,44,-67,-96,-35,28,45,105
8,45,37,-27,-14,40,-54,-93,-44,17,33,104
-10,22,32,-6,-21,26,-50,-100,-58,-4,-10,99
-31,0,30,16,-30,15,-38,-98,-76,-29,-48,89
-62,-33,30,47,-46,-1,-42,-101,-75,-21,-10,83
-64,-44,20,54,-41,-12,-36,-94,-75,-21,-11,74
-57,-37,20,46,-38,-8,-35,-95,-75,-17,-12,69
-77,-31,47,54,-62,8,-35,-97,-76,-10,-16,72
-63,-42,21,52,-41,-10,-25,-83,-72,-14,-36,66
-64,-24,40,44,-52,8,-32,-100,-71,-21,0,75
-55,-49,6,52,-30,-21,-13,-78,-68,-53,-48,63
-33,-9,24,21,-28,7,-30,-117,-73,-7,0,78
-84,80,164,2,-125,122,0,-118,-75,5,24,93
-63,241,303,-89,-183,272,-23,-92,85,355,304,239
127,264,137,-196,-5,200,63,275,449,688,594,422
382,-163,-545,-109,464,-354,-1,340,312,188,352,307
