I,II,III,aVR,aVL,aVF,V1,V2,V3,V4,V5,V6
115,166,50,-141,32,108,21,256,378,263,113,101
100,174,74,-137,13,124,21,261,409,285,138,108
128,187,59,-157,34,122,6,258,424,312,176,126
134,188,55,-161,39,121,-6,255,413,324,194,151
122,177,55,-150,33,116,-34,232,407,314,183,151
114,168,54,-141,29,111,-48,185,372,311,178,144
100,156,56,-128,22,106,-42,132,312,276,139,121
86,138,53,-113,16,95,-41,83,237,209,73,70
35,105,70,-70,-18,87,-37,31,165,155,8,22
-15,71,86,-29,-51,79,-35,-11,101,98,-53,-18
-21,57,78,-18,-50,67,-33,-34,49,54,-88,-47
-30,43,73,-6,-52,58,-29,-40,25,34,-112,-61
-32,34,67,-1,-50,51,-30,-46,16,22,-123,-69
-29,30,59,-1,-44,44,-30,-61,13,15,-128,-81
-26,25,51,0,-39,38,-30,-62,8,6,-137,-81
-23,21,44,1,-34,32,-30,-60,4,-1,-149,-80
-24,16,41,4,-33,28,-25,-60,-1,-6,-149,-79
-22,12,34,5,-29,23,-25,-55,-5,-12,-143,-76
-23,10,33,7,-28,21,-24,-55,-10,-17,-141,-75
-14,10,24,2,-19,17,-20,-57,-15,-24,-136,-75
-22,6,28,7,-25,17,-20,-60,-18,-23,-134,-87
-42,4,46,18,-44,25,-18,-63,-25,-16,-130,-88
-31,6,36,12,-34,21,-14,-65,-23,-11,-128,-80
-22,4,26,8,-24,15,-16,-62,-20,-6,-125,-77
-19,6,24,6,-22,15,-14,-57,-20,0,-122,-69
-10,3,13,3,-12,8,-16,-56,-22,4,-120,-67
-19,12,31,3,-25,21,-34,-50,-30,0,-117,-71
-38,26,64,6,-52,45,-36,-54,-30,0,-114,-69
-42,24,66,8,-55,45,-31,-74,-30,-2,-111,-66
-35,26,62,4,-49,44,-29,-76,-31,-5,-108,-63
-30,30,60,0,-45,45,-26,-74,-29,-6,-105,-60
-26,30,56,-3,-41,43,-24,-75,-32,-1,-106,-61
-27,28,55,-1,-41,41,-26,-75,-35,17,-113,-68
-30,25,55,2,-43,40,-42,-74,-35,22,-115,-74
-30,25,55,2,-43,40,-45,-69,-35,16,-116,-72
-29,25,55,2,-43,40,-36,-65,-35,14,-113,-69
-31,24,55,3,-44,40,-33,-63,-35,9,-120,-71
-28,26,54,1,-41,40,-26,-58,-32,6,-131,-69
-20,29,49,-5,-35,39,-21,-55,-26,5,-126,-71
-12,31,43,-9,-28,37,-39,-71,-22,5,-123,-87
-11,30,40,-10,-25,35,-41,-73,-17,5,-120,-88
-4,30,34,-13,-19,32,-30,-63,-13,5,-115,-80
0,30,30,-15,-15,30,-24,-59,-9,5,-113,-77
-8,30,38,-11,-23,34,-15,-50,-3,11,-103,-69
-16,56,72,-21,-44,64,-23,-47,4,20,-97,-66
-24,71,95,-24,-60,83,-30,-49,11,29,-88,-55
-4,92,96,-44,-50,93,-40,-51,17,57,-82,-42
13,133,120,-73,-54,126,-46,-48,25,74,-84,-33
27,135,108,-81,-41,122,-60,-56,21,66,-85,-22
52,111,60,-82,-4,85,-81,-71,16,59,-84,-20
52,70,18,-62,17,44,-74,-70,13,49,-86,-19
41,52,12,-46,14,32,-66,-70,6,44,-84,-23
12,30,18,-21,-3,23,-58,-69,4,27,-89,-44
-15,-6,9,10,-12,2,-50,-71,-28,-1,-115,-66
-12,-11,1,11,-6,-4,-43,-66,-44,-13,-141,-86
-18,-23,-4,21,-7,-14,-36,-66,-46,-14,-138,-83
-19,-33,-14,27,-3,-23,-35,-64,-45,-22,-144,-88
-12,-23,-11,18,0,-17,-35,-66,-47,-23,-154,-104
-26,-24,2,25,-13,-11,-34,-65,-46,-31,-155,-105
-14,-18,-4,16,-5,-11,-36,-63,-38,-33,-156,-107
-15,-13,2,14,-7,-6,-34,-75,-48,-34,-153,-107
-20,-15,5,17,-12,-5,-30,-60,-28,-37,-159,-115
-59,17,76,21,-68,46,-2,-78,-106,-32,-165,-100
-84,16,100,34,-92,57,112,114,100,29,-130,-86
186,158,-28,-172,107,65,139,499,748,598,330,165
602,276,-326,-439,464,-25,-123,522,1270,1093,799,535
596,92,-504,-344,550,-205,-415,-13,762,530,430,425
258,-75,-333,-91,296,-203,-347,-369,-198,-140,-111,80
86,-81,-167,-2,127,-124,-128,-168,-172,-134,-184,-48
44,-14,-59,-15,52,-36,-54,-62,-9,-24,-123,-53
5,7,3,-6,1,5,-17,-50,-61,-25,-121,-70
-45,2,47,21,-46,24,-5,-23,-17,-10,-129,-84
-57,10,67,24,-62,38,-5,-35,-43,-11,-136,-82
-41,8,50,16,-45,29,4,-18,-19,-6,-137,-81
-42,15,57,14,-50,36,4,-23,-28,-2,-132,-79
-30,15,45,8,-38,30,12,-12,-16,0,-130,-80
-27,20,46,3,-37,33,14,-12,-10,5,-126,-80
-39,20,59,9,-49,39,15,-9,-6,4,-124,-80
-47,15,62,16,-55,38,17,-10,5,9,-126,-77
-36,16,51,10,-44,33,20,-10,8,9,-124,-73
-33,13,46,10,-40,29,23,-10,20,13,-129,-79
-26,10,37,8,-31,23,26,-8,24,21,-135,-86
-23,9,32,7,-27,20,30,14,36,28,-127,-79
-29,14,43,7,-36,28,30,27,37,34,-118,-72
-14,31,45,-9,-30,38,30,52,55,40,-112,-66
-5,41,46,-18,-26,43,31,68,74,48,-103,-59
-4,38,42,-18,-23,40,29,79,81,50,-101,-53
-7,49,57,-21,-32,53,36,106,105,74,-93,-47
-8,64,72,-28,-40,68,42,124,132,93,-72,-43
7,72,65,-40,-29,68,39,156,167,108,-53,-27
27,90,63,-59,-18,76,41,190,205,138,-25,1
60,119,59,-90,1,88,39,215,246,168,13,23
97,151,54,-125,21,103,41,251,300,216,50,44
108,167,59,-138,24,113,36,279,346,255,88,75
119,179,59,-149,30,119,22,277,384,295,125,92
154,196,42,-175,56,119,8,262,392,316,154,110
156,188,33,-172,61,110,0,254,385,302,165,121
136,172,36,-155,50,104,-5,226,361,297,162,114
119,153,34,-137,42,93,-9,185,297,279,130,107
88,123,35,-106,26,79,-14,134,227,229,76,62
56,91,35,-74,10,63,-19,72,145,165,17,15
28,71,43,-50,-8,57,-18,30,88,106,-46,-17
15,63,48,-39,-17,56,-14,9,47,63,-84,-53
1,52,51,-27,-25,51,-12,-3,7,44,-99,-74
-21,42,64,-11,-43,53,-9,-24,-1,27,-127,-77
-26,34,60,-4,-43,46,-6,-32,-14,9,-141,-82
-24,26,50,-1,-37,37,-4,-25,-34,3,-139,-99
-27,18,45,4,-36,31,0,-24,-36,0,-141,-101
-26,11,37,7,-31,23,0,-19,-31,-4,-140,-99
-25,4,30,10,-28,16,1,-15,-29,-7,-140,-101
-23,-1,22,12,-23,10,5,-17,-26,-11,-140,-99
-26,-6,20,16,-23,7,5,-21,-25,-14,-138,-98
-32,-12,20,22,-26,4,2,-20,-31,-16,-132,-93
-38,-18,20,28,-29,1,0,-20,-37,-15,-127,-90
-39,-18,20,28,-29,1,0,-20,-43,-15,-124,-87
-32,-13,19,23,-25,3,-4,-20,-45,-15,-119,-82
-30,-10,20,20,-25,5,-6,-25,-45,-13,-115,-80
-17,-7,10,11,-13,1,-4,-25,-49,-7,-110,-75
-27,-2,25,15,-26,11,-1,-26,-51,-4,-103,-70
-60,0,61,30,-61,30,4,-30,-49,0,-98,-65
-29,6,35,11,-32,20,3,-30,-46,16,-92,-62
-7,6,13,0,-10,9,-1,-30,-45,19,-88,-55
-35,4,40,15,-38,22,-4,-30,-45,10,-84,-55
-38,5,43,16,-41,24,-8,-30,-45,4,-82,-73
-28,4,32,11,-31,18,-11,-30,-45,-4,-79,-74
-23,6,29,9,-27,17,-14,-30,-47,-11,-76,-68
-17,2,19,7,-18,11,-15,-30,-50,-15,-74,-67
-21,-4,18,12,-19,7,-15,-26,-50,-15,-70,-59
-38,-9,29,23,-34,10,-15,-25,-50,-15,-70,-63
-44,-14,31,29,-37,8,-15,-25,-50,-15,-69,-71
-50,-20,30,35,-39,4,-12,-24,-49,-15,-64,-70
-55,-24,31,40,-42,3,-10,-26,-45,-15,-66,-70
-47,-18,29,33,-38,5,-10,-22,-40,-10,-62,-70
-38,-8,30,22,-34,11,-10,-20,-36,-5,-56,-70
-17,3,20,7,-19,11,-10,-20,-31,-1,-51,-69
-23,12,36,5,-30,24,-9,-16,-27,4,-45,-61
-28,34,62,-3,-45,47,-6,-15,-23,8,-38,-54
-26,34,60,-4,-43,47,0,-14,-20,14,-28,-44
-39,44,83,-3,-61,63,-4,-16,-21,32,-18,-39
-23,91,115,-34,-69,103,-15,-12,-19,52,-7,-23
-13,99,112,-43,-63,105,-35,-24,-20,55,9,-4
7,74,68,-41,-31,71,-66,-46,-19,48,21,-9
24,35,11,-30,7,23,-71,-42,-15,43,19,-17
18,7,-10,-12,14,-1,-65,-44,-15,36,7,-25
-2,-16,-15,9,7,-15,-55,-45,-20,19,-2,-31
-43,-47,-4,45,-19,-25,-45,-45,-51,-7,-15,-49
-55,-67,-11,61,-22,-39,-35,-45,-68,-39,-42,-74
-56,-85,-28,71,-14,-56,-29,-47,-80,-50,-55,-75
-65,-86,-21,76,-22,-53,-31,-51,-88,-50,-58,-74
-60,-84,-24,72,-17,-54,-27,-48,-81,-51,-64,-79
-47,-95,-48,71,1,-71,-25,-53,-91,-60,-64,-80
-62,-105,-43,83,-9,-74,-25,-45,-76,-62,-67,-81
-63,-87,-24,75,-19,-55,-21,-57,-97,-55,-62,-79
-62,-89,-28,76,-17,-58,-11,-37,-72,-58,-68,-81
-106,-59,47,83,-76,-6,-3,-49,-117,-53,-63,-82
-73,-32,42,52,-58,5,73,63,-12,-45,-48,-95
76,40,-36,-58,56,2,159,433,563,398,311,107
471,194,-277,-332,374,-41,-28,552,1141,1010,879,520
621,70,-551,-345,586,-241,-337,99,859,675,677,497
239,-149,-388,-44,314,-268,-346,-342,-130,-97,60,139
55,-136,-190,41,123,-163,-155,-217,-298,-214,-92,8
0,-76,-76,38,38,-76,-48,-50,-47,-59,-22,-5
-67,-58,9,63,-37,-25,-6,-32,-92,-61,-4,-27
-55,-55,0,54,-27,-27,12,-1,-52,-53,-5,-40
-86,-55,31,71,-58,-12,12,-14,-64,-44,-4,-47
-80,-51,29,66,-55,-11,17,-1,-49,-41,0,-44
-79,-50,30,65,-55,-10,20,-3,-44,-31,0,-46
-81,-50,31,65,-56,-9,24,0,-43,-32,0,-44
-73,-45,28,59,-50,-8,28,6,-30,-26,0,-46
-77,-45,32,61,-54,-6,35,13,-33,-26,-1,-43
-66,-44,22,55,-44,-11,36,24,-19,-21,6,-39
-61,-40,21,50,-41,-9,34,30,-20,-19,18,-41
-80,-40,39,60,-59,-1,41,38,-11,-25,31,-36
-78,-38,40,58,-59,1,46,40,-5,-33,35,-35
-57,-32,25,45,-41,-3,45,44,3,-26,34,-35
-49,-28,22,38,-35,-3,45,51,9,-18,36,-29
-40,-23,17,32,-28,-3,45,56,26,-10,33,-23
-34,-19,15,26,-24,-1,45,74,44,-2,45,-17
-25,-15,10,20,-17,-2,49,83,51,4,56,-8
-17,-4,14,10,-16,5,57,104,80,17,62,7
-17,15,31,1,-24,23,59,135,113,36,91,31
-4,25,29,-11,-17,27,52,159,144,62,108,49
18,38,20,-28,-1,29,46,187,172,81,123,54
47,62,15,-55,16,38,39,209,209,112,152,69
72,78,5,-75,33,41,32,245,266,159,201,106
99,98,-1,-98,49,48,26,266,298,192,234,125
129,121,-7,-124,68,56,20,278,333,229,262,154
150,135,-15,-142,82,60,12,279,365,269,327,203
155,137,-18,-146,86,60,6,266,363,288,343,226
156,124,-33,-140,94,45,-1,240,340,276,334,220
144,109,-35,-126,89,37,-14,184,282,237,310,187
98,86,-12,-92,55,37,-17,135,216,182,240,143
51,58,6,-54,22,32,-9,85,137,118,175,91
17,33,16,-25,0,24,-3,36,58,55,109,43
-4,20,24,-8,-14,22,4,15,9,11,73,14
-18,14,32,2,-25,22,11,1,-23,-19,53,2
-37,3,40,17,-38,21,15,-9,-39,-37,32,-9
-47,-7,40,27,-43,16,15,-12,-55,-43,30,-20
-60,-20,41,40,-50,10,15,-17,-61,-38,30,-27
-64,-30,34,47,-49,2,15,-20,-59,-42,26,-34
-32,-38,-6,35,-13,-21,15,-20,-63,-61,25,-32
-28,-44,-16,36,-5,-30,19,-20,-65,-66,25,-29
-30,-42,-12,36,-9,-27,25,-20,-66,-64,20,-31
-33,-37,-4,35,-14,-21,31,-20,-61,-66,20,-30
-53,-34,19,44,-36,-7,34,-17,-61,-65,18,-31
-43,-31,13,37,-28,-9,30,-14,-59,-65,15,-29
-53,-26,27,39,-40,1,28,-17,-62,-60,14,-25
-58,-26,32,42,-44,3,25,-38,-74,-60,18,-26
-37,-30,7,33,-22,-11,21,-46,-76,-60,27,-23
-36,-35,2,35,-19,-16,20,-47,-74,-60,37,-20
-52,-35,16,43,-33,-9,17,-51,-78,-61,48,-20
-53,-31,21,42,-37,-5,14,-46,-89,-57,49,-17
-46,-29,17,37,-31,-6,15,-44,-80,-55,58,-12
-34,-26,9,30,-21,-8,15,-41,-72,-55,65,-9
5,-25,-30,11,18,-27,15,-39,-75,-52,56,-6
-18,-30,-12,24,-3,-21,14,-34,-77,-49,53,-1
-52,-30,22,40,-37,-4,10,-36,-81,-51,46,-1
-33,-31,1,32,-17,-15,10,-43,-80,-55,41,-6
-19,-35,-17,27,-1,-26,10,-40,-80,-55,44,-9
-14,-34,-21,24,4,-27,10,-40,-80,-56,45,-12
-31,-38,-7,35,-12,-22,10,-40,-80,-60,45,-17
-22,-40,-18,32,-2,-29,13,-40,-80,-60,45,-20
-1,-40,-39,21,19,-39,18,-40,-81,-57,45,-16
-7,-40,-33,24,13,-36,19,-44,-85,-55,44,-15
-3,-40,-37,22,17,-38,14,-45,-85,-55,39,-15
-11,-40,-29,26,9,-34,11,-45,-85,-51,36,-15
-32,-35,-4,34,-14,-19,8,-50,-85,-50,32,-15
-45,-32,13,38,-29,-9,3,-50,-84,-50,29,-14
-49,-27,21,38,-35,-3,0,-49,-85,-44,24,-10
-49,-21,28,35,-38,3,4,-44,-84,-37,31,-5
-48,2,50,23,-50,25,11,-46,-75,-31,54,-3
-40,33,73,4,-57,53,15,-42,-67,-24,61,2
-32,34,66,-2,-49,50,22,-40,-58,-18,59,4
-10,52,62,-22,-36,57,23,-40,-52,-12,59,12
5,89,84,-47,-40,86,1,-39,-45,-8,77,32
6,80,74,-44,-34,77,-24,-52,-42,-2,87,43
9,63,54,-36,-23,58,-31,-45,-37,1,79,46
18,43,25,-31,-4,34,-24,-32,-33,6,74,37
21,12,-9,-16,15,1,-19,-22,-29,11,69,28
-4,-14,-10,9,3,-12,-14,-22,-33,-22,57,17
1,-50,-51,25,26,-51,-9,-56,-81,-66,21,-1
-2,-79,-76,41,37,-77,-5,-60,-95,-78,-5,-23
-29,-78,-49,54,10,-63,0,-60,-101,-74,-7,-45
-33,-81,-48,57,7,-64,5,-64,-104,-76,-18,-45
-47,-82,-34,64,-6,-58,2,-64,-108,-73,-23,-46
-46,-85,-40,66,-2,-62,-3,-67,-112,-77,-32,-50
-56,-87,-30,72,-13,-58,-3,-55,-97,-73,-35,-50
-47,-78,-31,62,-8,-54,-11,-63,-115,-74,-34,-50
-30,-79,-49,55,10,-64,-5,-40,-79,-82,-37,-50
-80,-31,49,55,-64,9,27,-58,-151,-94,-40,-57
-78,-20,58,49,-68,19,119,106,40,-29,-17,-45
146,108,-38,-127,92,35,157,476,679,548,463,220
572,248,-324,-409,448,-38,-73,485,1145,1081,969,592
582,22,-561,-301,571,-269,-327,1,665,549,558,451
206,-160,-366,-23,287,-263,-262,-325,-252,-189,-23,79
60,-108,-167,24,114,-137,-88,-156,-246,-194,-84,8
-4,-70,-66,37,31,-68,-22,-40,-70,-76,-26,11
-45,-60,-16,53,-14,-38,21,-25,-116,-98,-20,-27
-35,-52,-16,44,-9,-34,35,3,-62,-79,-25,-31
-45,-46,0,46,-22,-23,38,-6,-84,-80,-29,-31
-49,-42,7,45,-28,-17,51,12,-59,-72,-34,-30
-49,-37,12,43,-30,-12,50,12,-62,-67,-33,-30
-42,-33,9,37,-25,-12,49,21,-52,-62,-29,-30
-54,-29,25,41,-39,-2,56,20,-45,-53,-31,-30
-51,-24,27,38,-38,1,66,20,-44,-49,-26,-25
-36,-21,16,28,-26,-2,65,20,-36,-40,-25,-25
-29,-18,12,23,-20,-3,65,20,-37,-35,-24,-24
-15,-13,2,14,-8,-6,65,19,-30,-30,-21,-19
-6,-10,-4,8,-1,-7,65,25,-29,-28,-25,-21
-36,-7,29,21,-32,11,63,42,-22,-26,-20,-17
-58,-4,54,31,-55,24,59,57,-16,-22,-12,-11
-50,-1,48,26,-49,24,60,72,-9,-21,-6,-6
-48,2,50,23,-49,26,60,74,14,-16,1,-1
-47,4,51,22,-50,27,60,85,40,1,5,5
-39,9,48,15,-44,28,61,108,56,22,15,10
-31,25,56,3,-44,40,66,128,88,31,25,16
-9,53,63,-22,-36,58,63,161,121,49,34,37
16,69,53,-42,-19,60,57,194,158,87,57,54
47,89,42,-68,2,65,54,214,202,120,91,74
84,117,33,-101,26,75,48,244,250,162,132,108
105,129,24,-117,40,76,45,271,295,199,166,130
128,145,17,-137,55,80,38,273,317,234,197,147
140,152,12,-146,64,82,27,260,331,266,237,177
177,168,-9,-172,93,79,17,248,330,263,246,185
183,167,-16,-174,99,75,15,222,302,251,230,176
121,136,15,-129,53,75,15,178,247,231,219,162
67,105,38,-87,14,71,15,134,170,188,156,119
19,70,51,-44,-16,60,15,82,97,116,64,61
3,53,51,-28,-24,52,10,35,43,48,11,13
2,49,47,-26,-23,48,10,4,0,11,-26,-12
-2,43,45,-21,-24,44,9,-9,-41,-12,-59,-29
-9,36,45,-14,-27,40,5,-12,-63,-35,-83,-44
-16,25,41,-5,-29,32,4,-19,-65,-53,-90,-55
-18,14,32,2,-25,22,8,-24,-65,-56,-92,-64
-24,2,26,11,-25,14,16,-25,-65,-59,-96,-65
-24,-6,18,15,-21,5,23,-26,-65,-62,-98,-66
-21,-11,10,16,-16,0,28,-24,-64,-65,-107,-63
-23,-16,7,19,-15,-5,26,-30,-73,-64,-109,-71
-32,-22,10,27,-20,-6,25,-41,-82,-60,-105,-86
-39,-28,11,34,-25,-9,24,-35,-79,-58,-106,-83
-36,-28,8,32,-22,-10,20,-30,-80,-55,-102,-79
-50,-21,29,35,-39,4,20,-28,-80,-52,-100,-76
-70,-17,53,43,-61,18,20,-19,-80,-50,-100,-72
-61,-11,50,36,-56,20,20,-29,-85,-47,-97,-67
-52,-5,47,28,-49,21,20,-38,-87,-41,-91,-60
-41,0,41,20,-41,20,20,-34,-83,-36,-87,-55
-33,5,37,14,-35,21,20,-35,-79,-33,-83,-50
-23,10,33,6,-28,21,19,-35,-77,-27,-77,-46
-11,15,26,-2,-19,20,16,-35,-70,-26,-75,-45
-32,18,51,7,-42,34,13,-36,-73,-30,-74,-45
-41,24,65,8,-53,44,11,-45,-88,-33,-82,-45
-29,23,52,3,-41,37,7,-51,-91,-37,-93,-45
-32,16,48,8,-40,32,5,-49,-89,-40,-99,-48
-28,12,39,8,-34,25,2,-50,-90,-44,-104,-57
-26,6,31,10,-29,18,0,-50,-90,-46,-106,-67
-43,0,43,21,-43,21,0,-50,-90,-50,-109,-67
-49,-5,45,26,-47,20,0,-54,-96,-49,-112,-65
-51,-5,46,28,-48,20,0,-55,-101,-44,-115,-64
-49,-5,44,26,-46,20,0,-55,-100,-46,-115,-66
-51,-5,46,28,-48,20,8,-55,-100,-42,-115,-64
-62,-5,58,33,-59,26,13,-55,-100,-40,-115,-68
-31,-6,26,18,-28,10,9,-54,-100,-40,-115,-83
-19,-2,16,10,-17,7,11,-50,-97,-36,-115,-81
-21,0,21,10,-21,10,6,-50,-94,-35,-115,-74
-28,0,28,14,-28,13,5,-50,-91,-35,-114,-69
-44,4,48,20,-46,26,5,-50,-88,-35,-116,-65
-39,5,45,16,-42,25,0,-50,-85,-35,-114,-63
-39,5,43,17,-42,24,0,-47,-86,-36,-117,-60
-41,0,41,21,-41,20,-1,-43,-90,-44,-136,-56
-46,-7,39,26,-42,16,-5,-39,-92,-45,-141,-54
-49,-12,38,31,-43,13,-5,-36,-95,-45,-133,-61
-42,-18,24,30,-33,3,-3,-30,-98,-50,-133,-66
-30,-18,12,24,-21,-3,0,-33,-101,-50,-126,-64
-56,-12,44,34,-50,16,3,-41,-96,-48,-127,-65
-69,-7,62,38,-65,27,6,-40,-95,-61,-146,-81
-49,-4,45,26,-47,21,10,-39,-95,-66,-152,-85
-37,1,39,18,-38,20,10,-36,-95,-61,-148,-79
-24,5,29,9,-27,17,5,-34,-95,-59,-153,-77
-31,0,31,16,-31,15,5,-37,-96,-56,-155,-72
-33,-5,28,19,-30,11,5,-40,-100,-54,-155,-69
-38,-5,33,21,-35,14,5,-40,-100,-51,-154,-65
-48,-6,41,27,-44,17,5,-40,-100,-48,-150,-65
-45,-10,35,27,-40,12,8,-40,-100,-46,-150,-64
-44,-10,33,27,-38,11,10,-40,-99,-42,-149,-60
-36,-8,28,22,-31,10,10,-37,-104,-40,-145,-60
-30,-5,25,17,-27,10,14,-31,-104,-40,-142,-64
-23,-2,21,12,-22,10,16,-26,-100,-40,-140,-66
-19,1,20,9,-20,10,14,-23,-100,-40,-136,-65
-15,4,19,5,-17,11,11,-17,-100,-40,-134,-65
-21,5,25,8,-23,15,10,-16,-100,-40,-139,-65
-37,0,37,18,-37,18,10,-24,-100,-39,-140,-65
-16,-4,12,10,-14,4,10,-32,-100,-35,-140,-61
-21,-3,18,12,-19,8,11,-32,-99,-25,-139,-60
-54,1,54,26,-54,27,7,-28,-102,-33,-142,-60
-40,0,40,20,-40,20,5,-27,-113,-59,-146,-56
-24,0,24,12,-24,12,5,-22,-115,-59,-145,-54
-19,0,19,9,-19,10,5,-22,-115,-54,-145,-57
-24,-1,23,12,-24,11,5,-16,-115,-52,-140,-60
-36,8,45,14,-41,26,6,-21,-115,-47,-140,-60
-29,14,43,7,-36,28,10,-35,-114,-45,-139,-60
-21,17,38,2,-30,27,10,-26,-106,-38,-132,-60
-15,19,34,-2,-25,26,10,-18,-98,-31,-128,-60
-2,26,28,-12,-15,27,9,-9,-90,-22,-121,-55
6,56,49,-31,-22,52,18,-1,-83,-15,-117,-46
16,69,53,-43,-19,61,25,6,-73,-5,-107,-38
29,73,44,-51,-8,59,14,12,-55,10,-88,-28
37,72,35,-55,1,53,7,27,-37,28,-77,-6
49,69,19,-59,15,44,-1,50,-28,47,-76,1
66,69,2,-67,32,35,-9,22,-32,33,-68,-8
69,24,-45,-47,57,-10,-20,-13,-73,-7,-89,-16
24,-11,-35,-6,29,-22,-32,-31,-105,-41,-121,-30
-33,-14,19,24,-26,2,-30,-44,-106,-51,-124,-42
-49,-26,23,37,-36,-1,-25,-43,-119,-49,-142,-68
-37,-30,8,34,-22,-11,-20,-53,-140,-58,-155,-75
-30,-42,-12,37,-9,-27,-17,-43,-134,-71,-160,-76
-38,-45,-7,42,-15,-26,-10,-48,-140,-68,-159,-79
-35,-49,-13,42,-11,-31,-14,-42,-126,-79,-161,-81
-33,-34,-1,34,-16,-18,-27,-42,-128,-76,-159,-84
-23,-33,-9,28,-7,-21,-23,-41,-124,-83,-160,-84
-43,-24,19,34,-31,-2,-21,-37,-115,-78,-163,-91
-89,10,99,39,-94,54,29,-55,-196,-78,-177,-89
-56,22,78,17,-67,50,148,207,117,62,-83,-48
243,197,-46,-220,145,75,124,548,807,725,466,273
621,261,-360,-440,490,-50,-176,469,1222,1038,801,581
525,42,-484,-283,504,-221,-402,-67,548,351,314,379
233,-94,-326,-69,280,-210,-280,-327,-331,-210,-157,48
88,-53,-141,-17,114,-97,-87,-99,-213,-146,-183,-47
2,0,-2,0,2,-1,-24,-37,-107,-71,-136,-41
-4,-14,-10,10,3,-12,-4,-38,-139,-86,-152,-56
-33,-7,26,20,-29,10,7,-17,-113,-66,-157,-63
-67,-4,63,35,-65,29,14,-23,-142,-70,-158,-65
-63,-7,57,35,-60,25,22,-9,-115,-63,-162,-65
-60,0,60,29,-59,29,29,-13,-130,-61,-164,-66
-49,2,52,23,-51,27,35,-2,-116,-57,-165,-71
-43,10,52,16,-48,31,35,-2,-118,-53,-158,-70
-38,11,49,13,-44,30,36,6,-115,-50,-154,-70
-37,18,56,9,-47,37,34,7,-110,-45,-149,-70
-60,19,79,20,-70,49,41,20,-106,-44,-145,-70
-67,14,80,26,-74,47,51,42,-95,-37,-140,-70
-51,9,59,21,-55,34,53,39,-93,-36,-137,-70
-50,4,55,23,-53,29,57,39,-82,-30,-134,-69
-47,0,48,23,-47,24,60,48,-63,-25,-131,-63
-45,-5,40,25,-42,17,64,65,-43,-20,-128,-58
-35,1,35,17,-35,18,68,76,-28,-13,-125,-51
-14,14,28,-1,-21,21,73,77,-16,-10,-125,-47
-33,24,58,4,-46,41,74,106,22,1,-114,-40
-50,43,94,3,-72,68,70,133,39,8,-106,-32
-38,54,92,-8,-65,72,68,151,54,35,-86,-24
-20,64,84,-22,-52,73,65,186,110,71,-53,-9
16,94,78,-55,-31,86,61,223,155,95,-25,18
44,115,71,-80,-14,93,60,253,206,133,2,47
68,126,58,-97,4,92,55,272,260,165,30,62
98,140,42,-119,28,91,45,290,321,206,77,99
129,155,26,-142,51,90,35,280,345,227,109,121
140,166,26,-153,57,96,26,257,326,217,107,122
132,152,20,-142,56,86,19,231,321,215,97,136
113,134,20,-123,46,77,12,186,299,202,88,119
107,122,15,-115,46,68,4,133,254,167,61,80
84,99,14,-92,35,56,-3,82,187,113,3,43
5,63,58,-35,-26,61,-5,39,115,57,-51,12
-9,26,34,-9,-22,30,-5,8,63,17,-104,-33
-4,9,12,-3,-8,10,-5,-10,30,-17,-139,-66
-35,7,43,14,-39,25,-5,-24,22,-42,-150,-74
-47,3,50,21,-49,26,-5,-36,18,-53,-158,-86
-48,0,48,24,-48,23,-5,-36,13,-60,-167,-90
-41,-4,37,22,-39,16,-5,-35,9,-74,-171,-89
-36,-8,28,22,-32,10,-5,-35,4,-81,-170,-93
-33,-10,23,21,-28,6,-5,-31,1,-79,-175,-95
-26,-11,15,19,-20,2,-5,-30,-2,-80,-175,-95
-25,-15,10,20,-17,-3,-9,-31,-5,-80,-174,-91
-18,-15,3,16,-10,-6,-11,-37,-8,-80,-169,-90
-4,-10,-7,7,1,-8,-10,-44,-11,-75,-166,-90
-35,-7,29,21,-32,11,-10,-45,-8,-75,-163,-85
-58,-3,55,31,-56,25,-9,-46,-3,-74,-158,-85
-47,0,48,24,-48,24,-12,-44,0,-69,-155,-84
-46,5,51,21,-49,28,-15,-47,3,-71,-152,-79
-47,3,49,22,-48,26,-15,-50,8,-68,-149,-76
-51,-1,50,26,-51,25,-15,-49,10,-63,-146,-73
-46,0,46,23,-46,23,-15,-56,5,-57,-143,-68
-41,0,41,21,-41,20,-15,-62,0,-54,-140,-65
-36,0,36,18,-36,18,-11,-59,-5,-49,-139,-68
-33,0,33,16,-33,16,-9,-57,-8,-44,-134,-73
-27,0,27,13,-27,13,-10,-54,-14,-57,-146,-76
-24,0,24,11,-24,11,-10,-55,-15,-65,-161,-82
-28,0,28,14,-28,14,-10,-60,-15,-67,-160,-89
-31,0,31,15,-31,15,-10,-59,-15,-69,-160,-94
-30,0,30,15,-30,15,-10,-61,-15,-73,-160,-95
-28,-2,25,15,-26,11,-10,-59,-16,-75,-160,-95
-36,-9,27,22,-32,9,-10,-62,-14,-73,-159,-95
-35,-16,19,25,-27,2,-10,-55,-17,-58,-154,-95
-55,-22,32,38,-43,5,-9,-39,-3,-50,-155,-95
-70,-30,40,49,-55,5,-29,-67,11,-83,-170,-107
-61,-34,27,48,-44,-4,-35,-76,3,-90,-173,-109
-62,-29,33,45,-47,1,-26,-65,-1,-79,-165,-101
-48,-24,24,35,-36,0,-25,-65,-7,-77,-162,-100
-35,-19,16,27,-26,-1,-18,-57,-13,-69,-154,-93
-23,-13,10,18,-16,-1,-15,-56,-15,-66,-151,-91
-8,-7,2,7,-5,-2,-20,-55,-15,-60,-156,-94
-12,-7,5,10,-8,-1,-24,-55,-15,-60,-158,-96
-49,-14,36,31,-42,11,-29,-55,-15,-60,-154,-100
-77,-20,58,48,-67,19,-34,-55,-15,-60,-152,-98
-67,-24,43,46,-55,9,-33,-55,-15,-61,-149,-94
-51,-21,31,36,-41,5,-29,-52,-10,-57,-146,-92
-35,-20,16,27,-25,-2,-27,-50,-10,-71,-145,-89
-26,-20,6,23,-16,-7,-24,-47,-10,-75,-145,-86
-45,-20,25,32,-35,3,-21,-44,-10,-69,-145,-85
-59,-20,39,39,-49,10,-20,-40,-10,-67,-145,-90
-53,-22,30,37,-41,4,-25,-40,-10,-62,-145,-90
-50,-25,24,37,-37,0,-25,-44,-10,-60,-145,-91
-40,-25,15,32,-27,-4,-25,-49,-10,-60,-142,-95
-35,-25,10,30,-22,-7,-25,-48,-10,-60,-139,-95
-22,-25,-3,24,-9,-14,-25,-44,-10,-60,-140,-95
-16,-25,-9,20,-3,-17,-23,-45,-10,-60,-136,-95
-20,-20,0,20,-10,-10,-19,-41,-10,-60,-135,-95
-28,-17,11,22,-19,-3,-20,-40,-10,-58,-135,-95
-49,-13,36,31,-42,11,-20,-40,-10,-53,-130,-95
-51,-10,41,30,-46,16,-20,-35,-10,-50,-130,-95
-36,-5,31,21,-33,13,-20,-35,-11,-47,-129,-90
-31,-3,28,17,-30,12,-14,-34,-7,-42,-124,-86
-10,6,17,2,-14,11,-9,-30,2,-40,-126,-81
5,12,8,-9,-2,10,-4,-31,10,-33,-122,-77
-16,18,34,-2,-25,26,2,-27,18,-24,-109,-71
-1,45,47,-22,-24,46,9,-14,31,-16,-93,-56
24,57,34,-41,-5,45,7,-3,42,-3,-71,-44
30,60,31,-45,-1,45,-5,10,57,17,-46,-44
41,63,22,-52,9,43,-17,26,77,34,-40,-47
50,56,6,-53,21,31,-27,10,71,35,-39,-49
66,31,-35,-49,50,-2,-42,-23,34,6,-45,-53
49,-4,-53,-22,51,-28,-55,-41,-2,-39,-83,-55
-5,-15,-9,10,2,-12,-55,-52,-23,-53,-92,-58
-25,-28,-3,27,-11,-15,-55,-48,-23,-59,-95,-65
-31,-41,-10,36,-10,-26,-55,-63,-47,-73,-111,-77
-24,-50,-26,37,1,-38,-55,-66,-56,-83,-116,-94
-27,-50,-23,39,-2,-37,-54,-59,-52,-77,-115,-95
-37,-49,-12,43,-13,-30,-49,-63,-61,-82,-110,-94
-31,-52,-22,42,-4,-37,-44,-49,-45,-79,-112,-97
-30,-47,-16,39,-7,-31,-42,-65,-71,-79,-106,-92
-39,-50,-12,44,-13,-31,-33,-46,-31,-74,-116,-99
-77,-6,71,41,-74,32,-17,-73,-98,-53,-103,-98
-70,11,81,29,-75,46,81,76,38,-27,-77,-85
127,112,-15,-119,70,48,155,476,665,463,298,133
545,249,-295,-397,420,-23,-65,585,1235,976,808,501
629,96,-533,-362,580,-218,-395,99,900,538,532,449
289,-88,-377,-100,333,-232,-384,-377,-113,-141,-18,119
88,-90,-178,1,133,-133,-153,-220,-236,-201,-126,-5
21,-33,-54,7,38,-44,-54,-62,-32,-83,-93,-26
-14,-18,-4,16,-4,-11,-17,-63,-97,-93,-90,-56
-37,-19,19,28,-28,0,3,-26,-39,-76,-83,-52
-62,-9,53,36,-57,21,9,-39,-66,-74,-76,-51
-49,-5,44,27,-46,19,18,-19,-47,-73,-75,-75
-41,-1,39,21,-40,19,9,-20,-50,-67,-75,-82
-52,-22,31,37,-41,4,8,-10,-48,-68,-70,-79
-40,-21,19,30,-29,-2,0,-6,-41,-63,-70,-77
-53,-9,44,31,-48,17,2,-3,-43,-61,-69,-74
-80,-5,75,42,-77,35,9,2,-26,-53,-64,-75
-60,7,66,26,-63,36,14,3,-25,-50,-61,-70
-42,23,64,9,-53,43,21,10,-11,-42,-58,-70
-34,27,61,4,-48,43,24,10,-4,-38,-53,-69
-35,21,56,7,-46,38,31,28,8,-32,-50,-64
-34,20,54,7,-44,37,38,35,18,-26,-45,-66
-33,15,48,9,-41,32,40,37,26,-21,-36,-61
-29,15,44,7,-37,29,43,57,38,-15,-28,-50
-17,23,40,-3,-29,31,46,71,45,-10,-19,-38
-4,31,35,-14,-20,32,51,97,64,-3,-8,-27
10,40,31,-25,-11,35,56,122,97,11,4,-18
5,45,40,-25,-18,43,55,146,124,33,22,-6
-6,56,63,-25,-35,59,55,181,164,62,52,10
10,83,73,-47,-31,78,55,201,197,83,71,26
32,100,68,-66,-18,83,54,227,239,116,99,49
54,126,72,-90,-10,99,56,266,294,170,158,86
107,152,45,-130,31,98,37,272,322,196,181,109
144,157,13,-151,65,85,13,259,345,217,204,132
159,168,9,-164,75,88,6,251,347,227,249,159
164,168,3,-167,80,85,0,234,328,217,248,166
128,158,30,-143,49,94,-4,209,299,219,237,162
91,131,40,-111,25,85,-29,153,245,188,205,122
60,94,34,-77,13,64,-42,95,163,122,138,69
46,72,26,-60,10,49,-32,46,77,65,79,21
24,54,29,-39,-3,41,-30,9,21,17,32,-11
1,40,38,-21,-19,39,-22,-14,-23,-26,-8,-34
-4,28,32,-12,-18,30,-17,-39,-52,-50,-29,-55
-36,18,54,8,-45,36,-15,-41,-59,-62,-31,-55
-11,13,24,-2,-17,18,-15,-35,-71,-82,-49,-66
-4,4,8,0,-6,6,-15,-34,-81,-91,-62,-71
-8,-2,6,5,-6,2,-15,-28,-80,-93,-59,-69
-8,-10,-2,9,-3,-6,-15,-25,-79,-97,-61,-68
-50,-20,29,35,-40,4,-15,-37,-81,-100,-59,-64
-40,-20,20,30,-30,0,-20,-41,-79,-97,-61,-66
-38,-20,18,29,-28,-1,-20,-40,-83,-95,-55,-61
-29,-17,12,22,-20,-2,-21,-53,-102,-95,-47,-59
-29,-15,14,22,-21,0,-26,-55,-106,-90,-41,-61
-47,-15,32,31,-39,8,-24,-55,-104,-90,-34,-59
-24,-10,14,17,-19,2,-28,-66,-106,-89,-29,-61
-25,-10,15,17,-20,2,-31,-67,-105,-85,-24,-58
-40,-10,29,25,-35,9,-29,-63,-104,-85,-21,-55
-42,-10,32,25,-37,11,-34,-59,-100,-85,-15,-55
-27,-11,17,19,-22,3,-35,-57,-98,-85,-12,-53
-22,-7,15,14,-18,3,-35,-50,-94,-85,-2,-50
-48,-5,43,26,-44,18,-40,-54,-92,-88,23,-50
-41,-5,36,23,-38,16,-40,-70,-89,-91,22,-53
-29,-6,23,17,-25,9,-40,-70,-94,-89,9,-55
-30,-4,26,17,-27,11,-40,-73,-99,-91,1,-55
-32,-6,25,18,-28,10,-40,-75,-101,-89,-6,-55
-32,-9,23,20,-28,7,-40,-77,-109,-92,-10,-56
-39,-10,29,24,-34,9,-40,-81,-109,-103,-16,-62
-36,-23,13,30,-24,-5,-40,-79,-117,-105,-22,-69
-29,-26,3,28,-16,-11,-40,-84,-126,-105,-24,-67
-53,-24,29,38,-40,2,-40,-86,-124,-110,-19,-62
-51,-25,26,38,-38,0,-39,-84,-125,-110,-13,-60
-39,-25,14,32,-26,-5,-35,-81,-125,-109,-10,-55
-19,-24,-5,22,-6,-15,-35,-78,-125,-105,-5,-52
-1,-19,-19,10,9,-18,-35,-75,-121,-105,-1,-48
-10,-16,-6,13,-2,-10,-35,-72,-120,-103,4,-45
-7,-13,-5,10,-1,-9,-35,-69,-120,-99,5,-45
-18,-8,10,13,-14,1,-38,-73,-115,-100,5,-45
-60,-5,56,32,-58,25,-40,-75,-115,-103,5,-45
-60,-9,51,34,-55,21,-40,-75,-116,-106,5,-44
-33,-10,23,21,-28,6,-44,-79,-122,-103,3,-49
-37,-10,27,23,-32,8,-46,-81,-129,-109,0,-54
-33,-15,18,24,-25,1,-44,-79,-126,-116,0,-50
-40,-15,25,28,-32,5,-40,-76,-124,-115,0,-50
-51,-15,36,32,-43,11,-40,-75,-125,-114,0,-50
-50,-15,34,32,-42,10,-39,-75,-125,-110,0,-50
-50,-15,35,32,-42,10,-35,-75,-125,-110,4,-50
-50,-15,35,32,-42,10,-35,-75,-124,-108,10,-50
-50,-15,36,32,-42,10,-35,-75,-119,-104,16,-50
-47,-15,32,31,-39,8,-35,-75,-116,-105,19,-50
-48,-18,30,33,-39,6,-35,-75,-113,-105,15,-50
-47,-21,26,34,-37,2,-35,-75,-108,-105,15,-50
-49,-24,25,36,-36,0,-35,-75,-104,-106,15,-49
-44,-26,18,35,-31,-4,-35,-74,-109,-107,15,-43
-38,-31,7,34,-23,-11,-30,-70,-114,-105,15,-35
-26,-29,-3,27,-11,-16,-26,-65,-109,-105,19,-29
-14,-21,-7,18,-3,-14,-24,-60,-103,-105,26,-23
-25,-13,12,19,-18,-1,-19,-56,-100,-105,32,-15
-19,-5,14,11,-17,5,-16,-52,-95,-105,39,-26
-20,2,21,9,-21,11,-12,-48,-91,-94,45,-27
-20,14,33,3,-27,23,-10,-41,-86,-76,52,-14
2,28,27,-15,-13,27,-8,-36,-74,-69,55,-6
15,56,41,-35,-14,48,-5,-30,-68,-58,75,5
54,62,8,-58,23,35,-4,-34,-69,-56,91,10
82,50,-32,-65,57,9,-24,-36,-72,-51,90,16
65,31,-34,-48,49,-1,-53,-31,-75,-52,84,19
39,-11,-49,-14,44,-30,-58,-63,-89,-92,44,7
-18,-30,-12,24,-3,-20,-54,-95,-123,-95,22,-4
-56,-44,12,50,-34,-16,-52,-86,-122,-102,15,-17
-53,-54,-1,53,-25,-27,-49,-98,-137,-132,7,-40
-54,-61,-7,58,-23,-34,-46,-101,-153,-141,3,-51
-60,-65,-5,62,-27,-35,-44,-95,-141,-139,-3,-50
-73,-56,17,65,-45,-19,-41,-97,-146,-135,-6,-48
-82,-55,27,68,-54,-14,-37,-83,-128,-135,-13,-47
-58,-42,16,50,-37,-13,-35,-95,-143,-127,-13,-43
-46,-48,-2,47,-22,-25,-31,-72,-115,-135,-10,-47
-96,-19,77,57,-86,29,-16,-103,-171,-132,-6,-49
-101,-20,81,60,-91,31,74,35,-38,-95,-12,-47
110,76,-34,-93,72,21,138,408,551,384,386,162
515,236,-279,-375,396,-21,-66,482,1079,975,934,553
569,63,-506,-315,537,-221,-334,51,768,587,654,494
234,-125,-360,-54,297,-242,-320,-364,-189,-165,58,127
64,-97,-162,17,113,-129,-158,-244,-341,-283,-76,9
2,-49,-52,24,28,-50,-66,-93,-115,-147,-15,3
-45,-24,20,34,-32,-2,-33,-86,-142,-129,1,-16
-73,-26,47,49,-59,10,-19,-53,-99,-124,-1,-31
-85,-25,60,54,-72,18,-8,-62,-124,-120,0,-42
-79,-25,54,52,-66,14,-1,-45,-111,-119,-5,-39
-88,-26,62,57,-75,18,4,-44,-115,-112,-5,-41
-84,-23,60,53,-72,18,10,-36,-117,-111,-6,-36
-93,-21,73,57,-83,26,21,-30,-106,-105,-11,-35
-87,-17,70,52,-78,26,27,-26,-107,-100,-10,-35
-78,-15,63,46,-70,24,25,-19,-95,-95,-13,-30
-72,-11,61,41,-66,24,24,-15,-95,-89,-16,-30
-64,-10,54,36,-59,22,21,-8,-86,-83,-15,-30
-65,-13,51,39,-57,19,18,-4,-78,-79,-11,-30
-63,-18,45,40,-54,13,35,5,-67,-72,-2,-30
-60,-19,41,39,-50,11,52,13,-58,-66,4,-28
-45,-13,33,29,-39,10,49,22,-48,-59,10,-17
-40,-6,35,23,-37,14,50,31,-41,-53,22,-8
-45,0,45,22,-45,22,50,50,-29,-47,32,-1
-31,8,39,11,-35,23,50,72,0,-40,40,5
-19,13,33,3,-26,23,51,90,29,-28,49,14
-8,22,30,-7,-20,26,49,118,56,-8,67,28
22,40,18,-31,2,29,51,151,93,17,86,42
33,62,29,-48,2,45,49,179,131,48,110,62
55,83,28,-69,13,55,51,206,176,87,144,85
61,107,46,-85,8,76,48,241,227,130,181,121
69,125,56,-97,6,90,28,254,257,156,213,142
133,125,-8,-128,70,58,10,243,273,183,237,156
157,129,-29,-143,93,50,2,236,271,206,263,188
144,125,-19,-134,81,53,-6,223,261,195,259,194
125,109,-16,-117,70,46,-15,185,236,183,242,189
103,97,-6,-99,54,45,-19,134,177,155,220,164
80,78,-2,-78,40,38,-15,82,111,100,163,109
31,50,19,-41,6,34,-15,35,36,46,105,66
-18,23,42,-3,-30,32,-15,-5,-23,0,53,24
-37,14,51,12,-45,32,-15,-41,-74,-41,5,-2
-39,6,45,16,-42,26,-16,-45,-117,-63,-22,-13
-43,-2,40,22,-41,19,-11,-50,-139,-76,-38,-26
-41,-9,32,25,-37,12,-10,-62,-165,-91,-53,-33
-43,-21,23,32,-33,1,-9,-58,-173,-90,-55,-38
-57,-36,21,47,-39,-7,-6,-69,-178,-93,-55,-39
-59,-42,16,50,-37,-13,-4,-76,-182,-96,-55,-35
-57,-40,17,47,-37,-11,-6,-75,-192,-92,-55,-33
-40,-40,-1,40,-20,-20,-10,-73,-207,-88,-55,-30
-21,-36,-16,29,-2,-26,-10,-69,-213,-82,-49,-27
-45,-35,10,40,-27,-12,-12,-70,-218,-79,-42,-25
-50,-35,15,42,-32,-10,-15,-70,-220,-74,-36,-22
-54,-30,24,41,-38,-3,-15,-70,-220,-70,-29,-19
-66,-30,35,48,-50,2,-19,-70,-220,-65,-22,-21
-48,-29,20,38,-34,-4,-29,-70,-220,-59,-20,-20
-31,-25,6,28,-18,-9,-33,-70,-220,-54,-20,-21
-19,-25,-6,23,-6,-15,-29,-71,-220,-48,-20,-19
-37,-23,14,29,-25,-4,-23,-75,-216,-41,-20,-15
-49,-18,31,34,-40,6,-20,-75,-214,-50,-20,-15
-39,-15,24,27,-31,5,-16,-75,-215,-62,-21,-12
-32,-12,20,22,-26,4,-9,-75,-215,-59,-19,-10
-21,-7,14,14,-18,3,-22,-75,-215,-60,-24,-10
-13,-5,8,9,-10,1,-32,-72,-216,-60,-35,-14
-15,-11,4,12,-9,-3,-29,-69,-220,-60,-35,-14
-16,-16,0,16,-8,-8,-30,-70,-222,-64,-35,-18
-20,-21,-1,21,-10,-11,-25,-70,-225,-65,-35,-31
-24,-27,-3,26,-10,-15,-25,-70,-228,-65,-35,-29
-25,-33,-9,29,-8,-21,-24,-69,-230,-65,-33,-26
-50,-33,18,42,-34,-7,-20,-65,-230,-65,-29,-24
-59,-30,30,44,-45,0,-18,-65,-230,-63,-30,-19
-43,-30,13,36,-28,-8,-15,-65,-230,-60,-30,-22
-21,-30,-9,26,-6,-19,-12,-65,-230,-57,-30,-25
-15,-30,-15,23,0,-22,-9,-65,-230,-55,-30,-25
-40,-30,10,35,-25,-10,-14,-65,-228,-52,-35,-25
-42,-35,7,38,-24,-14,-19,-65,-225,-49,-38,-25
-35,-35,0,35,-17,-17,-23,-64,-222,-54,-43,-25
-31,-36,-5,34,-13,-21,-25,-66,-220,-55,-45,-25
-54,-40,14,47,-34,-13,-25,-63,-216,-55,-45,-25
-74,-40,33,57,-54,-3,-25,-70,-215,-59,-49,-25
-45,-38,7,41,-26,-15,-25,-81,-211,-60,-51,-25
-25,-35,-10,30,-7,-22,-25,-75,-210,-59,-49,-25
-21,-35,-14,29,-3,-25,-25,-70,-210,-55,-45,-26
-15,-31,-16,24,1,-23,-21,-66,-205,-55,-45,-30
-16,-30,-13,23,-1,-21,-20,-61,-205,-55,-44,-30
-13,-30,-17,22,2,-23,-20,-57,-204,-55,-40,-30
-19,-30,-10,25,-5,-20,-15,-55,-199,-55,-40,-30
-50,-30,20,40,-35,-5,-15,-55,-201,-51,-42,-30
-56,-30,27,43,-41,-1,-14,-56,-197,-50,-45,-26
-50,-30,19,40,-35,-5,-9,-54,-194,-50,-45,-25
-48,-30,19,39,-33,-5,-6,-57,-195,-50,-45,-25
-43,-30,13,36,-28,-8,-3,-69,-191,-50,-45,-20
-40,-30,10,35,-25,-10,2,-71,-189,-49,-45,-20
-37,-30,7,33,-22,-11,5,-69,-190,-43,-50,-19
-45,-30,15,37,-30,-7,1,-66,-190,-37,-48,-15
-36,-30,6,33,-21,-12,-9,-65,-190,-32,-40,-13
-33,-30,3,32,-18,-14,-14,-64,-189,-26,-35,-10
-44,-13,31,29,-37,8,-8,-55,-174,-22,-27,-7
-25,7,33,9,-29,20,1,-45,-159,-16,-22,-5
2,23,20,-13,-9,21,14,-35,-150,-8,-8,2
21,36,15,-29,3,25,23,-24,-118,11,9,23
26,28,2,-27,12,15,13,-17,-96,38,23,40
28,17,-11,-22,19,3,1,-6,-94,45,37,38
35,9,-26,-21,30,-9,-10,-3,-100,26,20,26
45,-14,-58,-15,52,-36,-20,-40,-144,-15,-13,10
-2,-37,-36,20,17,-36,-27,-67,-178,-35,-21,2
-48,-53,-5,51,-21,-29,-35,-63,-173,-34,-33,-14
-18,-58,-40,38,11,-49,-39,-81,-204,-57,-64,-45
-11,-60,-49,36,19,-54,-34,-87,-218,-74,-79,-52
-39,-61,-22,50,-8,-41,-28,-82,-204,-63,-73,-46
-32,-58,-26,45,-3,-41,-26,-89,-212,-63,-79,-45
-38,-65,-27,52,-6,-46,-19,-79,-190,-60,-81,-42
-47,-66,-19,57,-14,-43,-17,-94,-209,-50,-77,-39
-27,-61,-35,44,4,-48,-7,-79,-177,-67,-85,-38
-85,-20,65,52,-75,22,16,-93,-223,-44,-73,-33
-108,-19,89,63,-99,35,103,41,-114,-18,-72,-41
113,87,-26,-100,69,30,172,421,482,446,306,157
517,252,-265,-384,391,-6,-38,544,1096,1050,852,555
620,102,-518,-361,569,-208,-355,93,828,651,619,536
294,-95,-388,-99,341,-241,-358,-363,-192,-92,41,192
79,-105,-184,13,132,-144,-139,-230,-376,-192,-104,53
-4,-57,-53,31,25,-55,-29,-76,-125,-54,-67,24
-58,-33,25,46,-41,-4,-5,-80,-174,-44,-69,-9
-24,-32,-9,28,-7,-20,15,-43,-145,-50,-62,-20
-20,-23,-3,22,-8,-13,26,-47,-160,-42,-56,-25
-30,-21,9,25,-19,-6,36,-27,-145,-41,-51,-28
-40,-12,27,26,-33,7,34,-27,-141,-34,-53,-34
-54,-11,43,33,-49,16,37,-20,-139,-31,-56,-33
-46,-17,29,31,-37,6,45,-14,-135,-25,-54,-28
-64,-24,40,44,-51,7,49,-10,-141,-20,-68,-25
-91,-19,72,55,-82,26,53,-4,-131,-15,-71,-21
-61,5,66,28,-64,35,56,-17,-134,-10,-66,-18
-37,16,53,10,-46,35,59,-14,-127,-3,-64,-14
-41,11,52,15,-46,32,62,-8,-121,-2,-61,-11
-43,9,52,17,-47,30,65,2,-109,-5,-60,-10
-51,5,56,23,-54,30,68,9,-100,-5,-53,-9
-55,0,55,27,-55,27,71,17,-90,-6,-45,-4
-53,2,55,25,-54,28,74,40,-73,0,-37,-6
-44,11,55,16,-50,33,75,59,-50,9,-30,-2
-38,17,55,10,-47,36,75,82,-24,25,-20,8
-24,24,48,-1,-36,36,75,99,-4,36,-7,17
-6,35,41,-14,-24,38,78,132,30,52,8,33
17,50,33,-34,-8,41,82,168,68,81,25,45
48,76,28,-62,9,52,76,190,101,109,53,67
72,87,15,-80,28,51,71,230,155,149,91,94
78,104,26,-92,26,65,68,261,201,189,130,121
82,122,40,-103,21,81,62,280,244,218,177,148
122,130,9,-126,56,69,58,278,266,248,208,171
160,142,-17,-151,88,62,46,267,255,264,222,190
146,133,-13,-139,79,60,31,254,254,253,217,181
130,120,-9,-125,69,55,28,221,229,237,202,172
138,104,-34,-121,86,35,30,169,174,208,176,163
68,76,8,-72,30,42,30,114,102,160,124,131
-3,52,55,-25,-29,53,30,64,19,107,62,85
-7,34,41,-14,-24,37,30,12,-39,51,14,36
-23,16,39,3,-31,27,28,-6,-82,11,-23,1
-19,13,32,3,-26,22,25,-10,-114,-12,-50,-19
-22,6,27,8,-24,16,25,-19,-127,-25,-55,-20
-46,-22,24,33,-34,1,25,-25,-135,-37,-71,-20
-45,-26,19,36,-32,-3,25,-33,-140,-44,-83,-25
-41,-24,18,32,-29,-3,25,-31,-140,-50,-82,-25
-48,-37,12,42,-30,-12,29,-30,-140,-55,-87,-24
-55,-45,10,50,-32,-17,30,-30,-140,-55,-89,-20
-50,-45,6,47,-28,-20,30,-30,-140,-58,-90,-20
-50,-46,4,48,-27,-21,30,-30,-140,-60,-85,-20
-57,-50,7,53,-32,-21,30,-31,-142,-60,-81,-20
-51,-50,1,50,-26,-24,29,-38,-147,-60,-79,-20
-74,-48,26,61,-50,-11,25,-37,-150,-60,-74,-17
-88,-42,45,65,-66,2,25,-34,-146,-60,-71,-14
-68,-38,30,53,-49,-3,23,-36,-141,-56,-67,-11
-61,-34,28,47,-44,-3,19,-34,-138,-51,-65,-9
-42,-29,13,35,-27,-8,20,-36,-135,-49,-65,-5
-62,-24,38,43,-50,7,24,-32,-130,-44,-65,-6
-68,-21,47,44,-58,13,26,-34,-133,-41,-65,-19
-17,-20,-3,18,-7,-11,25,-45,-137,-40,-65,-22
-24,-20,4,22,-14,-8,23,-45,-135,-40,-65,-19
-39,-20,19,29,-29,0,19,-45,-135,-40,-65,-20
-49,-20,29,34,-39,4,20,-45,-135,-40,-65,-20
-75,-22,52,48,-63,15,24,-45,-135,-40,-65,-20
-45,-25,20,35,-32,-3,25,-43,-136,-41,-64,-20
-22,-29,-7,25,-8,-17,25,-39,-139,-44,-68,-20
-42,-30,12,36,-27,-9,25,-37,-140,-45,-70,-20
-48,-37,11,43,-29,-13,25,-34,-140,-45,-70,-20
-51,-45,6,48,-28,-20,23,-31,-140,-45,-70,-20
-51,-46,5,48,-27,-21,20,-30,-140,-47,-70,-20
-48,-51,-2,50,-23,-26,20,-35,-138,-51,-70,-24
-46,-47,-1,47,-22,-24,20,-35,-133,-53,-65,-25
-24,-44,-21,34,-1,-33,20,-37,-130,-56,-65,-25
-9,-45,-37,27,14,-41,20,-41,-127,-59,-64,-25
-22,-41,-19,32,-2,-30,24,-40,-122,-60,-60,-25
-32,-40,-8,36,-12,-24,25,-40,-119,-60,-59,-24
-35,-40,-5,38,-15,-22,25,-40,-115,-60,-63,-19
-35,-40,-5,38,-15,-22,25,-40,-115,-61,-68,-16
-34,-40,-6,38,-14,-22,25,-40,-114,-57,-66,-13
-36,-40,-4,39,-16,-22,24,-40,-110,-55,-64,-8
-34,-40,-6,37,-14,-23,20,-40,-110,-55,-65,-5
-49,-40,8,44,-29,-16,20,-40,-109,-52,-65,-9
-55,-38,17,46,-36,-10,20,-40,-112,-49,-65,-15
-33,-32,1,33,-17,-16,20,-38,-115,-51,-65,-21
-17,-27,-10,23,-3,-19,20,-34,-115,-55,-65,-24
-13,-23,-10,19,-1,-17,24,-35,-115,-55,-65,-19
-22,-19,4,21,-13,-8,25,-35,-115,-56,-65,-21
-8,-14,-6,11,0,-10,25,-35,-115,-60,-65,-17
8,-27,-35,10,22,-31,25,-35,-112,-60,-64,-15
-14,-46,-32,30,10,-39,25,-30,-109,-58,-61,-15
-19,-41,-22,30,2,-31,25,-30,-106,-51,-59,-12
-16,-36,-20,26,2,-28,25,-29,-103,-46,-60,-7
-26,-33,-7,30,-9,-20,25,-25,-100,-41,-59,-5
-15,-27,-12,21,-1,-19,24,-25,-99,-35,-61,0
1,-24,-25,12,14,-25,36,-23,-90,-30,-57,3
7,11,4,-9,1,7,48,-19,-80,-24,-50,6
21,36,14,-29,3,25,58,-15,-70,-15,-42,15
31,36,5,-33,12,20,50,-12,-61,-7,-36,24
23,50,27,-37,-2,39,27,-7,-59,-4,-39,39
31,46,15,-39,8,30,10,-5,-58,-1,-40,43
71,35,-36,-53,53,-1,-2,-14,-53,2,-41,32
76,19,-56,-47,66,-18,-1,-26,-58,6,-39,25
42,-14,-57,-14,49,-35,1,-36,-78,-13,-45,18
18,-37,-55,10,37,-45,-1,-48,-93,-38,-53,8
-6,-62,-55,35,24,-58,1,-51,-102,-50,-62,-12
-24,-79,-55,52,16,-67,-1,-54,-123,-71,-92,-30
-26,-80,-54,53,14,-67,3,-52,-128,-82,-102,-31
-25,-81,-56,53,16,-68,6,-46,-120,-79,-99,-30
-25,-78,-53,52,14,-65,3,-56,-133,-79,-100,-29
-25,-83,-58,55,16,-70,8,-41,-114,-82,-100,-26
-24,-76,-52,51,14,-63,1,-62,-139,-77,-100,-25
-37,-80,-43,58,3,-61,12,-32,-91,-90,-82,-23
-65,-53,12,59,-38,-20,22,-62,-128,-87,-72,-23
-91,-53,39,72,-65,-7,89,-12,-119,-79,-110,-49
36,12,-23,-24,30,-5,202,387,418,283,157,86
466,200,-266,-333,365,-32,57,625,1091,906,733,475
687,124,-563,-405,625,-219,-296,265,1043,704,674,558
384,-83,-467,-150,426,-275,-395,-318,44,-34,92,242
125,-127,-252,1,189,-189,-175,-294,-357,-225,-124,57
51,-76,-126,13,89,-101,-34,-69,-93,-87,-88,24
-16,-40,-24,28,5,-32,-6,-65,-117,-53,-85,-10
-39,-35,4,37,-21,-15,29,-25,-97,-46,-81,-22
-51,-22,29,37,-40,3,46,-35,-104,-44,-76,-20
-57,-26,31,42,-44,2,57,-24,-101,-47,-72,-20
-68,-24,44,46,-55,9,54,-21,-90,-44,-67,-20
-72,-37,35,54,-53,-1,55,-18,-96,-46,-62,-20
-47,-42,5,44,-26,-18,55,-10,-82,-40,-56,-19
-29,-35,-7,32,-11,-21,55,-10,-85,-40,-52,-15
-31,-35,-4,34,-13,-19,51,0,-71,-39,-44,-15
-34,-30,4,31,-19,-13,50,-1,-70,-35,-41,-15
-38,-31,8,34,-23,-11,50,8,-59,-35,-44,-15
-44,-29,15,36,-30,-7,53,9,-56,-34,-39,-16
-46,-36,10,41,-28,-12,71,27,-43,-25,-27,-11
-46,-41,5,43,-26,-17,77,47,-23,-14,-18,-4
-27,-31,-4,29,-11,-17,78,53,-13,-8,-12,2
-20,-27,-7,24,-6,-16,81,61,-2,2,-5,10
0,-19,-19,9,10,-18,78,64,5,7,-2,14
2,-13,-15,5,9,-14,85,92,35,18,14,30
-4,-5,-1,4,-2,-2,93,113,67,29,29,33
45,23,-22,-34,34,0,88,129,89,40,48,39
44,36,-8,-40,26,14,85,163,123,62,66,54
32,58,26,-46,3,42,82,195,168,97,94,77
50,88,38,-69,6,63,77,240,210,143,157,112
66,106,39,-86,13,72,75,263,251,174,181,121
87,130,43,-109,22,87,68,284,303,209,223,160
115,134,19,-125,48,76,60,291,331,239,271,187
140,127,-13,-133,76,57,55,283,340,256,283,204
157,122,-35,-139,96,43,47,270,338,268,310,228
176,113,-63,-144,119,25,41,218,310,255,290,214
163,110,-53,-136,108,28,36,167,259,223,255,203
128,86,-42,-107,85,22,31,118,196,168,216,167
74,41,-33,-57,53,4,25,71,114,110,163,119
42,19,-23,-30,33,-2,19,30,45,60,109,77
17,7,-10,-12,14,-1,16,-7,1,21,63,33
3,-6,-8,2,6,-7,13,-27,-42,-21,50,11
-12,-12,0,12,-6,-6,28,-35,-57,-45,39,6
-27,-19,8,23,-17,-6,42,-37,-54,-45,26,2
2,-27,-29,13,16,-28,39,-41,-55,-44,21,-2
4,-34,-38,15,21,-36,40,-45,-56,-48,18,-8
-8,-41,-34,25,13,-37,40,-43,-53,-63,16,-9
-12,-45,-33,29,11,-39,40,-40,-61,-65,13,-5
-14,-42,-28,28,7,-35,36,-40,-80,-67,9,-3
-12,-39,-26,26,7,-32,34,-40,-80,-71,14,0
-13,-37,-24,25,6,-30,35,-40,-80,-68,25,3
-12,-33,-21,23,5,-26,30,-40,-80,-66,30,5
-16,-31,-15,24,-1,-22,30,-48,-81,-62,31,8
-18,-28,-11,23,-3,-19,29,-53,-90,-60,49,14
-19,-25,-6,22,-6,-15,25,-50,-87,-56,67,17
-23,-25,-2,24,-10,-14,25,-47,-82,-55,64,23
-33,-22,11,28,-22,-5,25,-44,-78,-52,68,25
-35,-20,15,27,-25,-3,25,-40,-73,-50,71,25
-20,-19,1,19,-10,-8,25,-41,-69,-50,69,25
-17,-29,-11,23,-3,-19,29,-46,-63,-46,74,25
-37,-42,-4,40,-16,-23,30,-46,-60,-44,75,25
-29,-40,-10,35,-10,-25,30,-44,-55,-47,76,25
1,-40,-41,20,21,-40,35,-46,-50,-50,79,22
6,-40,-46,17,26,-42,35,-44,-54,-50,81,19
-3,-40,-37,22,17,-39,33,-47,-55,-50,78,16
-10,-38,-28,24,9,-33,30,-55,-55,-50,75,13
-18,-34,-17,26,0,-25,27,-56,-59,-50,75,10
-23,-35,-12,29,-5,-23,25,-55,-61,-53,72,11
-16,-35,-19,26,2,-27,21,-52,-58,-58,70,17
-9,-35,-25,23,9,-30,20,-50,-55,-59,70,24
-34,-35,-2,35,-16,-19,16,-50,-55,-55,75,21
-53,-40,13,46,-33,-13,15,-58,-55,-55,84,20
-43,-40,3,41,-23,-18,15,-63,-55,-55,85,20
-42,-40,1,41,-21,-19,15,-59,-55,-55,84,16
-36,-39,-4,38,-16,-21,14,-60,-51,-55,86,14
-31,-41,-10,36,-11,-25,17,-56,-44,-51,84,16
-29,-36,-7,33,-11,-21,20,-54,-38,-45,86,31
-16,-18,-3,17,-6,-10,20,-55,-31,-40,87,36
-30,-10,20,20,-25,5,29,-55,-24,-34,99,37
-31,-7,23,19,-27,8,27,-55,-19,-29,107,42
-11,1,12,5,-12,7,18,-55,-11,-23,101,41
-8,43,51,-17,-30,47,10,-55,-4,0,132,66
-13,70,83,-28,-48,76,3,-54,9,13,158,93
-1,60,61,-30,-32,61,-11,-57,16,3,148,91
26,48,22,-37,2,35,-31,-55,16,2,143,88
61,29,-32,-45,46,-2,-22,-55,12,-8,135,85
34,1,-33,-18,34,-16,-8,-50,10,-9,126,81
-5,-34,-29,20,12,-31,4,-49,8,-22,122,79
17,-61,-78,23,47,-69,13,-67,-36,-66,102,45
-32,-83,-50,58,9,-66,10,-70,-61,-72,78,15
-28,-90,-62,60,17,-76,11,-68,-62,-80,75,16
-9,-92,-83,51,37,-88,7,-61,-56,-88,74,13
-39,-93,-53,66,8,-73,5,-65,-61,-82,77,12
-35,-98,-63,67,15,-81,5,-55,-48,-89,72,8
-43,-91,-48,67,3,-70,9,-58,-61,-81,78,12
-21,-100,-78,61,29,-89,16,-42,-41,-90,62,-1
-55,-84,-28,70,-13,-55,23,-40,-53,-74,50,0
-77,-38,39,57,-58,1,86,-25,-55,-86,56,-2
44,9,-35,-26,40,-13,182,298,394,182,261,92
400,180,-221,-289,310,-20,94,556,1036,853,856,478
654,139,-515,-397,584,-188,-198,259,1066,859,939,635
384,-118,-502,-132,443,-310,-315,-271,154,70,295,291
82,-172,-254,46,168,-213,-157,-309,-318,-280,0,47
24,-104,-128,40,77,-116,-21,-75,-37,-124,92,63
-13,-63,-50,39,19,-57,36,-59,-29,-94,108,62
-43,-60,-17,51,-13,-38,58,-46,-25,-102,96,46
-26,-61,-35,44,5,-47,56,-37,-14,-85,95,46
-44,-59,-15,52,-15,-37,61,-33,-24,-89,87,37
-52,-61,-9,57,-22,-35,63,-23,-7,-82,83,34
-30,-59,-29,45,0,-44,65,-22,-18,-87,80,26
-40,-56,-16,48,-11,-36,65,-11,1,-84,94,28
-46,-54,-8,50,-19,-31,69,-11,-1,-86,101,29
-68,-56,12,61,-39,-22,71,-1,11,-85,95,32
-67,-54,13,60,-39,-21,69,2,15,-83,93,26
-54,-56,-2,55,-25,-29,71,10,21,-76,88,29
-41,-52,-11,47,-15,-31,69,13,28,-69,85,46
-21,-48,-27,34,3,-37,73,20,33,-63,90,44
-12,-43,-31,28,10,-37,75,30,38,-55,89,38
-11,-39,-28,25,9,-33,75,36,55,-50,100,48
-19,-35,-17,27,0,-26,74,56,77,-43,127,61
-15,-24,-9,19,-3,-16,69,64,86,-36,133,59
-32,-12,21,22,-26,4,71,77,101,-30,141,61
-28,16,44,6,-36,30,70,93,121,-19,143,59
11,38,27,-25,-9,33,71,112,146,7,151,68
17,33,16,-26,0,24,80,149,185,27,172,94
36,45,9,-40,14,26,76,172,225,47,190,113
77,78,1,-77,38,39,69,198,265,84,233,136
104,106,2,-105,51,54,63,227,311,125,274,167
105,127,22,-116,42,74,56,249,365,169,318,206
120,135,15,-128,53,74,45,256,392,197,354,226
143,128,-16,-135,79,55,28,256,392,219,383,251
156,120,-36,-138,96,42,23,238,386,233,409,269
171,115,-56,-143,113,29,25,188,355,222,387,252
129,103,-26,-116,78,38,27,143,309,187,343,230
83,65,-18,-74,51,23,30,95,241,125,284,184
56,32,-24,-44,40,3,31,46,152,58,218,133
5,13,8,-9,-2,10,34,5,90,0,161,90
-29,-1,28,15,-29,13,37,-24,51,-39,115,50
-51,-13,38,32,-45,13,39,-41,20,-68,94,33
-62,-39,23,50,-42,-8,43,-46,-1,-94,77,28
-52,-47,6,49,-29,-20,45,-45,-9,-95,66,21
-51,-44,7,47,-28,-19,40,-45,-13,-96,63,14
-49,-46,3,47,-26,-21,40,-45,-19,-106,59,8
-52,-44,8,47,-29,-18,39,-44,-25,-104,56,2
-66,-40,26,53,-46,-7,35,-50,-30,-108,51,0
-69,-33,36,51,-52,2,35,-59,-34,-123,49,0
-72,-29,43,50,-57,7,33,-63,-39,-132,50,0
-49,-22,26,35,-37,2,29,-66,-38,-134,50,0
-44,-18,26,31,-35,4,31,-71,-34,-129,50,0
-70,-13,57,41,-63,22,30,-74,-36,-123,50,5
-64,-8,56,36,-60,24,29,-75,-35,-120,49,13
-56,-6,50,31,-53,22,32,-75,-35,-115,55,14
-40,0,40,20,-40,20,27,-75,-35,-111,65,19
-40,1,40,19,-40,20,34,-75,-30,-106,75,19
-5,8,12,-2,-9,10,25,-76,-30,-99,80,27
-14,-5,9,9,-12,2,36,-73,-29,-93,80,31
-8,-6,3,7,-5,-2,23,-70,-24,-86,84,37
-43,-20,23,31,-33,2,39,-68,-26,-80,85,39
-30,-11,20,20,-25,4,26,-64,-22,-80,85,50
