I,II,III,aVR,aVL,aVF,V1,V2,V3,V4,V5,V6
170,249,79,-210,45,164,30,282,329,259,230,215
165,239,74,-203,45,156,29,242,301,245,219,203
136,204,68,-170,34,136,25,172,234,201,181,173
91,151,61,-121,15,106,22,123,168,146,126,138
61,110,49,-86,5,79,17,84,111,93,74,101
35,69,34,-52,0,52,15,57,66,51,29,70
11,34,23,-23,-6,28,20,41,38,23,-7,48
4,23,19,-14,-8,21,23,28,20,6,-24,38
1,18,17,-10,-8,17,28,20,10,-6,-37,33
-4,9,14,-3,-9,11,30,15,-4,-22,-46,25
-9,2,11,3,-10,7,30,10,-10,-30,-45,17
-13,-5,9,9,-11,2,30,6,-12,-30,-47,11
-16,-10,6,13,-11,-2,30,1,-21,-30,-51,10
-13,-10,3,11,-8,-3,30,2,-18,-30,-54,10
-12,-11,0,12,-6,-5,35,8,-14,-31,-56,10
-13,-15,-2,14,-5,-9,35,12,-11,-28,-55,10
-10,-15,-6,13,-1,-11,36,16,-6,-25,-55,10
-10,-13,-2,12,-4,-8,40,21,-5,-26,-55,10
-10,-10,1,10,-5,-5,40,25,-5,-21,-55,10
-6,-7,-1,7,-3,-3,38,25,-5,-20,-55,10
-8,-4,4,6,-5,0,34,25,-5,-20,-55,10
-6,-1,5,3,-6,2,35,25,-5,-21,-55,9
-5,0,5,2,-5,2,35,25,-5,-19,-55,11
-10,0,10,5,-10,5,35,25,-9,-25,-56,20
-10,0,10,5,-10,5,35,23,-15,-40,-60,19
-10,0,10,5,-10,5,30,16,-20,-40,-60,15
-10,0,10,5,-10,5,30,11,-26,-40,-64,12
-9,0,9,4,-9,5,29,6,-31,-40,-65,7
-15,-2,13,9,-14,5,25,0,-37,-43,-67,4
-21,-6,15,13,-17,5,25,-5,-40,-48,-70,1
-20,-5,15,12,-17,5,25,-10,-40,-45,-70,-2
-24,-9,15,16,-19,3,25,-10,-44,-45,-70,-5
-26,-10,15,17,-21,2,25,-11,-45,-45,-70,-7
-24,-10,14,17,-19,2,25,-15,-45,-45,-70,-11
-26,-15,11,20,-18,-1,25,-15,-45,-46,-65,-7
-23,-15,8,19,-15,-3,24,-12,-45,-49,-65,-5
-20,-15,5,17,-12,-5,21,-10,-45,-50,-64,-5
-18,-15,3,16,-10,-6,20,-10,-45,-50,-60,-5
-14,-15,-1,15,-6,-7,20,-10,-46,-50,-60,-5
-18,-15,3,16,-10,-6,20,-10,-50,-52,-62,-5
-20,-15,5,17,-12,-5,19,-10,-49,-56,-66,-10
-20,-15,5,17,-12,-5,26,-10,-53,-62,-69,-10
-24,-15,9,19,-16,-3,31,-10,-55,-66,-70,-10
-26,-15,10,21,-17,-2,25,-10,-55,-65,-70,-10
-24,-14,10,19,-17,-2,23,-10,-59,-65,-70,-10
-26,-11,15,18,-20,1,18,-10,-60,-65,-70,-10
-28,-8,20,18,-24,6,15,-7,-60,-66,-71,-10
-28,-6,22,17,-25,8,18,-3,-60,-63,-70,-10
-31,-2,29,16,-29,13,22,1,-60,-56,-70,-10
-29,0,29,15,-29,14,23,3,-59,-51,-69,-9
-30,3,32,13,-31,17,29,8,-54,-46,-66,-6
-21,12,33,4,-27,22,25,10,-51,-39,-64,-1
10,22,12,-17,-1,17,13,5,-48,-37,-66,2
28,33,4,-31,12,18,9,0,-43,-37,-64,5
21,26,5,-24,8,15,10,-5,-41,-46,-66,10
13,15,1,-14,6,8,11,-8,-42,-53,-63,7
4,2,-2,-3,3,0,8,-15,-48,-61,-59,1
-12,-7,5,9,-9,0,24,-15,-54,-70,-72,-7
-16,-13,3,14,-9,-4,29,-24,-73,-83,-82,-12
-25,-18,7,21,-16,-6,32,-16,-71,-82,-91,-20
-29,-20,9,24,-19,-5,28,-17,-71,-77,-92,-25
-39,-29,10,34,-24,-9,32,-8,-61,-77,-99,-30
-36,-26,11,31,-24,-7,28,-7,-58,-62,-96,-34
-46,-65,-19,56,-13,-42,65,39,-40,-77,-104,-36
-11,-4,7,7,-9,2,165,282,161,50,-37,-4
317,420,103,-369,106,261,-148,64,309,445,484,387
525,980,455,-753,35,717,-727,-750,161,851,1076,776
235,914,679,-574,-222,796,-851,-1196,-370,490,705,456
-60,315,376,-128,-218,345,-481,-863,-630,-190,-40,8
-78,58,136,9,-107,97,-118,-275,-255,-177,-131,-57
-43,27,69,8,-56,48,2,-41,-60,-76,-65,-33
-40,-16,24,27,-32,4,49,1,-40,-80,-84,-20
-35,-9,26,22,-30,8,65,45,0,-50,-71,-14
-37,-22,15,29,-26,-4,70,59,-1,-65,-80,-11
-35,-20,14,27,-24,-2,77,83,22,-46,-68,-6
-34,-29,5,31,-19,-12,77,87,22,-52,-71,-1
-31,-29,1,30,-16,-14,82,91,30,-42,-65,-2
-24,-24,0,24,-11,-11,79,103,34,-38,-64,-9
-13,-22,-9,17,-2,-15,80,111,45,-31,-60,-2
-9,-17,-8,13,0,-13,80,125,55,-23,-51,2
-12,-14,-2,13,-4,-8,79,136,66,-18,-47,7
-11,-10,1,10,-6,-4,86,155,81,-10,-38,11
-12,-6,6,8,-9,0,96,179,101,-4,-33,16
-6,5,11,0,-9,8,99,198,127,17,-27,20
1,15,14,-9,-7,15,108,229,150,38,-18,27
8,24,16,-16,-4,20,115,273,187,58,3,43
27,41,13,-34,6,27,113,320,229,86,27,57
48,69,21,-59,13,45,108,361,273,117,53,80
69,104,35,-86,17,69,101,398,312,153,90,105
100,145,45,-123,27,95,97,420,351,189,133,138
119,178,60,-149,29,119,87,414,366,223,174,170
139,209,70,-174,34,139,69,390,355,246,206,185
150,231,80,-191,35,155,42,347,343,241,215,191
142,227,85,-185,28,156,20,282,305,227,206,191
130,205,75,-168,28,140,20,209,248,202,182,176
100,165,65,-133,17,115,20,149,184,158,134,136
64,119,55,-91,4,87,15,104,122,107,85,95
30,75,46,-53,-8,60,15,67,72,59,35,56
-5,34,39,-15,-22,36,16,37,32,21,-9,23
-20,12,32,4,-27,22,21,24,8,-11,-37,12
-21,5,26,7,-24,16,24,18,-7,-29,-56,7
-22,-3,19,12,-20,8,29,11,-19,-36,-62,3
-26,-11,15,18,-20,2,30,4,-28,-43,-65,-4
-33,-18,15,25,-24,-1,30,-3,-34,-49,-70,-9
-36,-20,15,27,-25,-2,30,-3,-36,-50,-70,-6
-35,-20,15,27,-25,-2,29,1,-35,-50,-70,-16
-35,-20,15,27,-25,-2,31,-1,-35,-54,-70,-21
-35,-20,15,27,-25,-2,35,4,-35,-56,-70,-19
-32,-20,12,26,-22,-4,35,5,-35,-53,-70,-20
-29,-20,9,24,-19,-6,35,5,-35,-51,-69,-20
-26,-20,6,23,-16,-7,35,10,-32,-47,-66,-20
-23,-20,3,21,-13,-8,35,10,-29,-45,-65,-16
-20,-20,0,20,-10,-10,35,13,-26,-42,-65,-13
-20,-20,0,20,-10,-10,35,16,-24,-39,-65,-10
-21,-21,0,21,-10,-10,35,12,-19,-44,-65,-8
-25,-25,0,25,-12,-12,35,8,-22,-45,-67,-4
-25,-25,0,25,-12,-12,35,2,-24,-46,-70,-9
-25,-25,0,25,-12,-12,34,-1,-28,-51,-73,-23
-25,-25,0,25,-12,-12,30,-6,-40,-58,-75,-25
-24,-27,-4,26,-10,-15,30,-11,-40,-64,-75,-25
-25,-31,-5,28,-10,-17,27,-14,-43,-66,-75,-25
-25,-30,-5,28,-10,-17,24,-17,-45,-69,-75,-25
-25,-30,-5,28,-10,-17,25,-19,-51,-70,-75,-26
-25,-30,-5,28,-10,-17,21,-23,-56,-70,-74,-29
-26,-30,-4,29,-11,-16,20,-25,-54,-70,-77,-30
-30,-30,0,30,-15,-15,20,-27,-56,-70,-80,-30
-30,-30,0,30,-15,-15,20,-30,-55,-70,-80,-30
-30,-30,0,30,-15,-15,20,-30,-55,-70,-84,-29
-30,-30,0,30,-15,-15,20,-30,-54,-74,-85,-33
-30,-31,0,30,-15,-15,20,-30,-58,-75,-85,-35
-28,-27,0,27,-14,-13,20,-30,-65,-75,-85,-39
-25,-25,0,25,-12,-12,20,-35,-65,-75,-85,-40
-25,-25,0,25,-12,-12,20,-35,-65,-75,-85,-35
-25,-25,0,25,-12,-12,20,-35,-65,-75,-85,-35
-25,-25,0,25,-12,-12,20,-35,-65,-75,-85,-35
-24,-25,-1,25,-11,-13,20,-35,-65,-75,-85,-35
-24,-30,-5,27,-10,-17,20,-35,-65,-75,-85,-35
-25,-30,-5,28,-10,-17,20,-35,-65,-75,-85,-37
-25,-30,-5,28,-10,-17,19,-35,-65,-75,-85,-44
-25,-30,-5,28,-10,-17,21,-35,-65,-77,-85,-40
-25,-30,-5,28,-10,-17,25,-35,-64,-75,-85,-40
-24,-32,-9,28,-7,-20,25,-35,-60,-75,-85,-39
-20,-37,-17,29,-2,-27,25,-31,-60,-73,-85,-35
-21,-40,-19,31,-1,-30,25,-30,-59,-70,-85,-35
-21,-35,-15,28,-3,-25,25,-27,-55,-70,-85,-38
-18,-31,-13,24,-3,-21,29,-23,-55,-67,-86,-40
-19,-26,-7,23,-6,-17,31,-32,-59,-64,-82,-34
-14,-21,-7,18,-4,-14,28,-35,-56,-61,-76,-27
-23,-20,4,21,-14,-8,35,-28,-44,-58,-69,-21
-37,-20,17,28,-27,-1,26,-25,-35,-56,-63,-14
-25,-20,6,23,-16,-7,8,-20,-31,-53,-55,-7
-6,-20,-14,13,4,-17,12,-15,-26,-49,-51,-7
2,-20,-22,9,12,-21,19,-17,-38,-59,-69,-16
1,-18,-20,9,11,-19,20,-41,-56,-75,-79,-22
-16,-32,-16,25,0,-24,27,-46,-56,-79,-81,-28
-33,-44,-11,39,-11,-27,30,-44,-64,-80,-94,-42
-38,-49,-11,44,-14,-30,29,-53,-74,-102,-105,-52
-52,-53,-1,53,-25,-27,32,-46,-65,-107,-104,-57
-45,-60,-15,52,-15,-37,26,-51,-76,-114,-108,-53
-46,-64,-19,55,-13,-41,36,-38,-63,-105,-110,-58
-28,-66,-39,47,6,-52,23,-47,-77,-116,-109,-51
-38,-77,-39,58,0,-58,123,119,17,-75,-123,-67
97,105,8,-101,45,56,104,271,246,178,102,82
465,644,178,-555,143,411,-410,-281,298,643,778,580
445,1025,580,-735,-68,803,-849,-1051,-25,807,1047,707
68,639,571,-354,-252,605,-725,-1155,-556,156,336,202
-91,124,215,-16,-154,169,-300,-623,-497,-258,-160,-100
-56,23,79,16,-68,51,-41,-150,-127,-113,-93,-62
-52,-27,25,39,-38,-1,9,-40,-65,-90,-89,-50
-60,-49,11,54,-35,-19,50,3,-27,-65,-84,-51
-38,-42,-3,40,-17,-22,66,38,-16,-63,-84,-48
-32,-48,-16,41,-7,-32,71,51,-7,-62,-87,-46
-29,-42,-13,36,-8,-27,76,59,8,-51,-83,-44
-30,-47,-17,39,-6,-32,78,66,10,-55,-86,-44
-30,-43,-13,37,-8,-28,83,78,24,-42,-76,-39
-26,-43,-16,35,-5,-29,83,80,31,-42,-77,-41
-21,-35,-14,29,-3,-25,89,92,44,-30,-70,-36
-20,-32,-12,26,-4,-22,89,102,56,-27,-68,-35
-18,-28,-9,23,-4,-18,91,118,73,-19,-64,-35
-12,-22,-10,17,-1,-16,94,139,87,-5,-56,-28
-9,-19,-10,14,0,-14,98,155,105,8,-43,-19
0,-10,-10,5,6,-10,107,186,131,24,-31,-11
8,-1,-9,-4,9,-5,110,222,163,39,-13,-1
17,17,0,-17,8,8,120,261,198,63,14,13
32,41,10,-37,11,25,123,309,241,93,37,27
48,69,20,-59,14,44,113,349,282,128,73,53
75,104,29,-90,23,66,105,380,320,169,113,84
104,147,43,-126,30,95,98,388,353,204,152,110
125,187,62,-156,31,125,83,377,353,235,187,137
142,215,73,-179,34,144,57,345,346,241,214,155
145,217,73,-181,36,145,23,288,330,238,225,149
140,204,64,-172,38,134,1,221,279,231,209,144
131,187,56,-159,37,121,0,156,218,197,181,130
104,152,48,-128,28,100,-5,99,157,147,132,87
62,103,41,-83,10,72,-4,50,99,91,78,44
19,52,33,-35,-7,42,1,17,50,50,30,12
-2,21,23,-10,-13,21,4,-2,10,17,-7,-6
-6,6,12,-1,-9,9,7,-11,-8,-5,-27,-20
-6,-1,5,3,-6,2,11,-17,-17,-10,-49,-34
-12,-8,5,10,-8,-1,15,-25,-28,-18,-61,-39
-19,-14,5,16,-12,-4,14,-33,-38,-23,-59,-43
-26,-21,5,23,-15,-8,25,-38,-40,-33,-60,-45
-30,-24,5,26,-17,-9,31,-36,-35,-40,-60,-45
-21,-17,5,19,-13,-6,29,-33,-35,-40,-60,-45
-31,-30,0,30,-15,-15,34,-31,-35,-40,-59,-45
-37,-37,0,37,-18,-18,35,-27,-35,-40,-62,-44
-29,-30,-1,30,-14,-15,34,-25,-35,-40,-66,-41
-25,-30,-5,28,-10,-17,30,-23,-35,-40,-65,-40
-20,-25,-5,23,-7,-15,30,-20,-35,-40,-65,-40
-20,-25,-5,23,-7,-15,29,-20,-35,-40,-65,-40
-20,-25,-5,23,-7,-15,25,-20,-35,-40,-65,-40
-20,-25,-5,23,-7,-15,25,-20,-35,-40,-66,-42
-20,-25,-5,23,-7,-15,25,-21,-35,-40,-70,-45
-20,-25,-5,23,-7,-15,25,-24,-35,-45,-70,-45
-20,-25,-6,23,-7,-15,25,-29,-36,-48,-70,-45
-15,-25,-10,20,-2,-17,25,-33,-34,-53,-70,-45
-10,-25,-15,18,3,-20,25,-35,-39,-55,-70,-45
-14,-34,-20,24,3,-26,24,-38,-50,-55,-74,-45
-17,-40,-23,29,3,-31,21,-41,-50,-60,-81,-45
-10,-40,-29,25,9,-35,20,-45,-52,-60,-85,-45
-12,-40,-28,26,8,-34,20,-45,-57,-62,-84,-45
-15,-40,-25,28,5,-32,20,-48,-60,-65,-88,-45
-15,-40,-25,28,5,-32,20,-50,-65,-65,-90,-47
-18,-40,-21,29,2,-31,20,-50,-65,-64,-90,-51
-24,-44,-19,34,-2,-31,20,-55,-65,-71,-94,-55
-25,-45,-21,35,-1,-33,20,-55,-64,-82,-95,-55
-21,-45,-24,33,2,-35,20,-59,-68,-78,-95,-56
-20,-45,-25,33,3,-35,20,-60,-70,-75,-95,-60
-20,-45,-25,33,3,-35,20,-62,-71,-73,-95,-59
-19,-44,-25,32,3,-34,20,-66,-75,-68,-94,-62
-14,-40,-25,28,6,-32,20,-65,-75,-78,-90,-65
-18,-40,-22,29,2,-31,20,-65,-75,-86,-90,-65
-18,-38,-20,28,1,-28,20,-65,-75,-85,-90,-65
-14,-34,-20,24,4,-27,20,-64,-75,-85,-90,-65
-19,-35,-16,27,-1,-26,18,-61,-75,-85,-90,-64
-24,-38,-14,31,-5,-26,15,-60,-75,-85,-93,-61
-26,-42,-16,35,-5,-28,15,-60,-73,-82,-95,-58
-25,-45,-20,35,-2,-32,15,-60,-70,-79,-95,-55
-26,-45,-20,35,-2,-32,15,-61,-70,-77,-95,-53
-22,-45,-23,34,1,-34,16,-57,-66,-73,-96,-50
-11,-42,-30,27,10,-36,19,-51,-64,-71,-94,-48
-4,-34,-30,19,13,-32,23,-44,-65,-68,-88,-43
0,-30,-30,15,15,-30,23,-38,-60,-64,-80,-40
8,-23,-30,8,19,-26,34,-31,-57,-61,-75,-37
9,-20,-29,6,19,-25,34,-25,-53,-57,-67,-31
14,-20,-34,3,24,-27,8,-32,-50,-54,-62,-31
34,-19,-54,-7,44,-36,-1,-35,-45,-48,-63,-29
29,-30,-59,1,44,-44,4,-38,-46,-60,-72,-33
15,-39,-54,12,35,-46,9,-57,-63,-81,-86,-34
2,-55,-57,27,29,-56,13,-62,-66,-88,-92,-38
-21,-71,-51,46,15,-60,19,-58,-64,-81,-89,-58
-27,-78,-52,52,13,-65,20,-63,-81,-91,-98,-61
-34,-82,-48,58,7,-65,29,-56,-77,-88,-108,-68
-23,-77,-55,50,16,-66,21,-63,-86,-91,-109,-72
-27,-84,-57,56,15,-70,30,-40,-82,-84,-114,-78
-28,-89,-61,58,17,-75,22,-40,-87,-79,-111,-71
-42,-115,-73,79,16,-93,90,52,-21,-86,-126,-84
36,-5,-41,-16,38,-23,158,268,207,109,10,-3
403,467,65,-435,169,266,-249,-68,345,554,621,461
525,972,447,-749,38,709,-775,-861,144,892,1110,752
178,785,607,-482,-214,696,-803,-1195,-439,381,556,325
-65,196,261,-66,-164,228,-420,-797,-594,-230,-112,-92
-58,-10,48,34,-53,19,-81,-260,-204,-132,-106,-92
-30,-42,-12,36,-8,-27,14,-69,-65,-67,-84,-59
-28,-78,-50,54,11,-64,49,-24,-37,-67,-94,-61
-31,-82,-51,57,10,-66,64,7,-9,-47,-79,-54
-34,-92,-58,64,12,-75,70,25,-11,-55,-87,-55
-24,-78,-54,51,15,-65,76,38,5,-34,-75,-49
-16,-78,-62,47,23,-70,77,43,4,-40,-80,-49
-11,-68,-57,40,23,-62,82,50,16,-24,-66,-44
-13,-67,-54,40,21,-60,83,60,27,-22,-64,-46
-19,-70,-51,44,17,-61,88,84,45,-11,-55,-42
-20,-65,-45,43,13,-55,89,91,49,-4,-50,-39
-13,-60,-47,37,17,-53,91,96,59,2,-43,-41
-8,-54,-46,31,19,-50,94,112,79,13,-33,-35
-4,-49,-45,27,21,-47,95,130,93,16,-21,-25
2,-43,-45,21,24,-44,99,159,119,39,-8,-15
10,-30,-40,10,25,-35,110,184,142,51,5,-5
34,-6,-40,-14,37,-23,109,219,173,70,37,10
47,8,-39,-27,42,-15,103,269,225,110,58,22
60,33,-28,-47,44,3,98,305,263,139,87,46
82,70,-12,-76,47,29,91,339,303,176,124,76
110,116,6,-114,52,61,87,354,337,221,171,112
131,160,28,-146,51,93,73,344,345,256,214,139
145,189,44,-167,50,116,47,320,343,270,237,154
162,207,45,-186,58,126,16,273,330,263,252,170
148,198,50,-173,49,124,-4,211,284,248,239,159
135,182,46,-159,44,114,-11,140,222,225,223,133
102,136,34,-119,33,85,-14,88,164,186,174,96
48,74,26,-61,10,50,-6,55,100,137,106,55
21,33,12,-28,4,22,2,20,54,91,60,24
4,2,-1,-3,2,1,10,0,25,49,27,3
-10,-25,-15,18,3,-20,17,-11,-1,25,7,-10
-20,-45,-26,33,3,-35,23,-22,-19,14,-8,-26
-32,-55,-23,44,-4,-39,30,-34,-33,3,-18,-40
-45,-64,-19,55,-13,-41,30,-41,-39,-10,-31,-45
-49,-65,-16,58,-16,-41,30,-40,-37,-17,-32,-45
-55,-65,-10,60,-22,-37,30,-39,-35,-15,-29,-45
-52,-65,-13,59,-19,-38,29,-35,-35,-15,-31,-45
-40,-65,-25,53,-7,-45,33,-35,-35,-11,-29,-45
-38,-63,-25,51,-6,-44,35,-33,-35,-10,-31,-43
-36,-60,-25,49,-6,-42,39,-28,-34,-10,-29,-38
-32,-57,-26,45,-3,-41,40,-25,-30,-5,-25,-35
-32,-55,-23,44,-4,-39,35,-22,-30,-6,-26,-32
-16,-51,-36,33,10,-43,35,-17,-30,-4,-23,-27
-10,-50,-40,30,15,-44,35,-15,-30,0,-20,-25
-31,-62,-31,47,0,-46,35,-19,-30,0,-20,-20
-37,-66,-30,52,-3,-48,35,-20,-33,-2,-20,-20
-41,-64,-23,53,-9,-43,37,-20,-36,-7,-20,-18
-45,-66,-21,55,-11,-43,41,-20,-39,-10,-20,-15
-40,-65,-24,53,-8,-44,40,-27,-42,-13,-20,-14
-40,-65,-25,53,-7,-45,40,-31,-45,-18,-19,-19
-38,-71,-33,55,-2,-52,40,-34,-45,-21,-22,-30
-39,-75,-36,57,-1,-56,40,-36,-44,-24,-33,-30
-42,-76,-34,59,-3,-55,40,-38,-46,-26,-36,-30
-48,-80,-32,64,-8,-56,40,-41,-44,-24,-34,-30
-51,-81,-29,66,-11,-55,40,-37,-48,-26,-36,-30
-49,-79,-30,64,-9,-54,40,-35,-60,-29,-34,-31
-44,-84,-40,64,-1,-62,40,-34,-60,-32,-36,-35
-44,-90,-46,68,1,-68,38,-37,-60,-40,-40,-40
-46,-90,-44,69,-1,-67,35,-49,-60,-38,-40,-37
-43,-88,-46,66,2,-67,32,-51,-60,-34,-40,-34
-41,-85,-45,64,2,-65,29,-49,-61,-36,-40,-31
-38,-84,-46,62,4,-65,25,-51,-60,-34,-40,-28
-39,-89,-50,64,6,-69,25,-49,-60,-36,-40,-25
-42,-92,-50,67,4,-71,30,-52,-60,-34,-39,-24
-40,-90,-50,65,5,-70,30,-55,-60,-42,-41,-26
-40,-90,-50,65,5,-70,30,-55,-59,-51,-38,-24
-40,-90,-50,65,5,-70,31,-52,-65,-50,-46,-29
-42,-90,-48,66,3,-69,30,-47,-70,-50,-55,-35
-47,-90,-43,69,-2,-66,30,-44,-70,-50,-49,-29
-43,-83,-40,63,-1,-61,25,-40,-66,-50,-43,-24
-39,-76,-37,58,-1,-56,25,-37,-62,-46,-38,-18
-37,-69,-32,53,-2,-50,40,-33,-57,-35,-32,-12
-33,-62,-29,48,-2,-46,38,-30,-53,-25,-30,-8
-25,-60,-35,43,5,-47,33,-28,-49,-17,-30,-1
-10,-59,-49,35,20,-54,27,-24,-39,-12,-29,5
-27,-78,-51,53,12,-64,22,-37,-47,-37,-31,-1
-42,-87,-45,65,2,-66,15,-54,-61,-61,-28,-8
-44,-90,-46,68,1,-68,18,-56,-65,-61,-33,-14
-61,-99,-37,80,-12,-68,37,-58,-72,-61,-53,-22
-58,-102,-44,80,-7,-73,32,-62,-82,-69,-66,-26
-58,-98,-40,79,-9,-69,40,-49,-73,-63,-65,-32
-51,-101,-50,77,-1,-75,36,-54,-79,-75,-65,-27
-59,-99,-41,80,-9,-70,45,-41,-66,-67,-67,-33
-58,-109,-51,84,-3,-80,36,-36,-72,-69,-61,-25
-71,-142,-71,107,0,-106,112,78,3,-38,-75,-40
18,39,21,-28,-2,30,137,243,248,217,113,69
359,582,222,-471,68,402,-331,-147,352,743,787,526
402,1018,616,-710,-107,817,-767,-858,73,1060,1147,675
65,696,631,-381,-283,663,-722,-1097,-539,331,440,209
-107,124,231,-9,-169,177,-372,-697,-604,-280,-147,-99
-102,-49,53,75,-77,2,-53,-199,-170,-90,-75,-62
-73,-89,-16,81,-28,-52,20,-43,-61,-49,-44,-20
-70,-109,-39,90,-15,-73,56,-4,-29,-27,-43,-10
-72,-113,-42,93,-15,-77,79,24,-5,-16,-40,-7
-60,-113,-53,86,-3,-83,80,35,-2,-26,-42,-5
-58,-105,-47,82,-5,-76,87,54,16,-7,-33,-1
-53,-106,-53,79,0,-79,83,61,18,-18,-36,0
-54,-98,-45,76,-5,-71,86,66,34,-2,-28,4
-52,-98,-46,76,-3,-72,84,71,29,-3,-30,8
-47,-91,-44,70,-1,-68,86,83,46,10,-22,11
-49,-90,-40,70,-5,-65,85,92,64,13,-17,15
-45,-86,-40,65,-2,-63,85,99,78,22,-12,18
-42,-81,-39,62,-2,-60,84,117,85,29,-3,22
-44,-79,-34,62,-5,-56,87,137,102,47,8,24
-36,-67,-31,51,-2,-48,94,162,131,70,22,32
-26,-54,-28,40,1,-40,97,188,155,86,38,46
-16,-39,-23,28,4,-31,101,220,192,112,58,59
7,-14,-21,3,14,-17,99,266,233,141,92,82
32,20,-12,-26,22,4,95,301,272,181,124,99
54,59,5,-57,24,31,93,327,313,215,160,128
75,98,23,-87,26,60,87,328,344,250,206,164
97,138,41,-118,28,89,69,318,356,283,243,182
111,171,60,-141,25,115,42,300,347,284,268,196
110,185,75,-148,17,130,14,249,312,279,278,206
102,181,79,-142,11,130,0,188,262,267,262,201
75,151,76,-113,-1,113,-5,128,204,231,218,165
38,104,65,-71,-13,84,-13,78,134,170,165,121
8,60,53,-34,-23,56,-11,44,71,114,115,79
-17,19,36,-2,-27,27,-5,21,30,76,64,47
-38,-18,20,28,-29,1,0,8,2,35,27,31
-56,-42,14,48,-34,-14,6,-3,-17,13,8,15
-72,-64,9,68,-40,-27,11,-12,-38,-3,-1,10
-76,-72,5,73,-41,-33,16,-23,-46,-17,-2,8
-69,-69,0,69,-34,-34,20,-30,-44,-22,-5,4
-67,-71,-4,69,-31,-37,20,-30,-48,-25,-9,2
-69,-74,-5,72,-31,-40,20,-30,-50,-21,-9,-1
-71,-75,-5,74,-32,-40,20,-30,-50,-20,-18,-3
-70,-75,-5,73,-32,-40,20,-30,-47,-20,-22,-6
-70,-75,-5,73,-32,-40,20,-28,-42,-20,-19,-10
-71,-75,-4,73,-33,-40,20,-25,-39,-20,-20,-9
-57,-75,-18,66,-19,-47,20,-22,-36,-22,-15,-5
-48,-75,-27,62,-10,-51,20,-19,-31,-26,-15,-6
-51,-75,-24,63,-13,-50,20,-16,-31,-25,-15,-3
-50,-75,-26,63,-12,-50,20,-15,-35,-25,-15,0
-50,-75,-25,63,-12,-50,20,-20,-35,-25,-15,0
-50,-75,-25,63,-12,-50,20,-20,-35,-25,-15,0
-53,-78,-25,66,-14,-51,20,-23,-35,-30,-15,0
-56,-81,-25,69,-15,-52,20,-26,-35,-33,-15,0
-54,-79,-25,67,-14,-52,20,-25,-39,-38,-19,0
-57,-82,-25,70,-16,-53,20,-25,-40,-40,-20,-1
-60,-85,-25,73,-17,-55,20,-24,-40,-43,-22,1
-60,-85,-25,73,-17,-55,20,-26,-40,-51,-25,5
-63,-88,-25,76,-19,-56,20,-24,-41,-54,-26,5
-67,-92,-25,80,-21,-58,20,-27,-45,-59,-30,5
-70,-95,-25,83,-22,-60,19,-35,-45,-60,-30,5
-70,-95,-25,83,-22,-60,15,-35,-45,-60,-30,5
-69,-95,-25,82,-21,-60,15,-35,-45,-65,-30,1
-66,-95,-30,81,-18,-62,15,-36,-45,-65,-30,0
-61,-91,-30,76,-15,-60,15,-34,-49,-65,-30,0
-60,-90,-30,75,-15,-60,15,-37,-50,-64,-30,-5
-60,-90,-30,75,-15,-60,15,-40,-50,-69,-30,-5
-60,-90,-30,75,-15,-60,15,-40,-50,-76,-30,-5
-60,-90,-30,75,-15,-60,15,-42,-50,-75,-30,-5
-61,-91,-30,76,-15,-60,15,-46,-49,-74,-29,-5
-68,-98,-30,83,-18,-64,15,-45,-45,-70,-25,-5
-67,-97,-30,82,-18,-63,17,-41,-46,-70,-26,-5
-59,-89,-31,74,-14,-60,20,-36,-42,-69,-25,-5
-53,-83,-29,68,-12,-56,23,-31,-39,-60,-25,-1
-50,-76,-26,63,-12,-51,25,-28,-40,-71,-25,6
-45,-69,-24,58,-10,-46,30,-21,-36,-69,-22,9
-45,-63,-18,54,-13,-40,32,-21,-34,-52,-19,16
-33,-60,-27,47,-3,-43,26,-25,-31,-56,-16,21
-10,-54,-44,32,17,-48,21,-25,-28,-54,-14,27
-18,-70,-52,44,17,-61,18,-24,-25,-56,-10,34
-38,-88,-50,63,7,-69,12,-31,-27,-60,-11,26
-33,-84,-51,58,10,-67,11,-54,-42,-60,-19,18
-50,-99,-49,74,0,-73,35,-55,-38,-68,-26,9
-71,-117,-46,95,-13,-81,35,-55,-44,-84,-32,3
-77,-122,-45,100,-16,-83,36,-55,-47,-93,-33,-5
-75,-120,-45,98,-15,-82,33,-54,-43,-85,-28,-11
-75,-128,-53,102,-11,-90,28,-56,-49,-97,-32,-17
-73,-123,-49,98,-12,-86,32,-47,-39,-82,-30,-25
-68,-143,-75,106,4,-109,40,-23,-46,-98,-43,-26
-81,-127,-46,105,-17,-86,157,187,109,-22,-31,-34
160,183,23,-172,69,103,-36,128,280,318,344,238
466,787,320,-627,73,553,-631,-547,230,866,1037,686
320,1002,683,-662,-182,843,-938,-1132,-192,814,991,570
2,440,438,-222,-218,439,-680,-1020,-639,-57,178,85
-95,-4,91,49,-93,43,-220,-436,-370,-275,-106,-66
-69,-54,15,61,-42,-19,-6,-93,-49,-71,-14,-18
-65,-105,-40,85,-12,-72,37,-31,-32,-98,-40,-17
-61,-102,-42,82,-9,-72,62,18,13,-58,-20,-11
-55,-106,-51,80,-1,-78,62,29,15,-69,-26,-10
-47,-103,-55,75,4,-78,67,43,34,-52,-20,-6
-46,-97,-52,72,3,-74,74,53,40,-47,-18,-5
-47,-98,-51,73,2,-74,81,59,48,-45,-15,-2
-44,-92,-49,68,3,-70,80,69,57,-34,-7,1
-52,-103,-51,78,0,-77,79,79,62,-37,-7,0
-52,-102,-49,77,-1,-75,82,91,75,-26,2,5
-47,-96,-50,72,2,-73,92,112,82,-27,3,4
-43,-89,-46,66,1,-67,97,126,99,-13,11,7
-39,-82,-43,61,2,-63,103,140,120,0,17,10
-35,-76,-40,56,3,-58,106,165,143,13,25,15
-28,-65,-37,47,5,-51,110,192,164,33,29,23
-14,-50,-35,33,11,-42,126,228,197,47,43,31
9,-23,-32,7,21,-28,139,274,240,76,69,47
24,1,-23,-13,24,-11,136,320,284,110,99,62
34,26,-8,-30,21,9,128,358,325,142,133,86
56,67,11,-62,22,39,124,382,368,187,174,111
83,117,33,-100,25,75,113,381,394,225,218,139
106,156,50,-131,28,103,86,365,386,247,247,162
116,178,62,-147,26,120,51,323,373,243,268,170
124,186,61,-155,31,123,24,255,344,236,273,168
123,173,49,-148,37,111,18,186,287,221,250,153
95,135,41,-115,27,88,15,123,221,173,204,132
58,85,27,-72,15,56,12,74,151,118,149,98
25,34,9,-30,8,22,7,37,96,59,100,59
1,-4,-4,2,3,-4,5,11,55,11,60,27
-17,-36,-19,27,1,-27,10,-1,24,-20,26,9
-27,-56,-29,42,1,-42,10,-6,5,-42,4,-6
-30,-60,-30,45,0,-45,14,-11,-4,-49,-4,-17
-41,-72,-31,56,-5,-51,15,-18,-13,-57,-8,-22
-43,-75,-32,59,-5,-53,17,-22,-19,-61,-14,-28
-40,-69,-29,55,-6,-49,21,-32,-25,-59,-20,-30
-41,-67,-26,55,-7,-47,20,-35,-32,-61,-25,-34
-39,-62,-23,50,-8,-42,20,-28,-27,-64,-29,-35
-40,-60,-20,50,-10,-40,20,-25,-25,-65,-33,-30
-45,-65,-20,55,-12,-42,20,-20,-22,-65,-35,-30
-45,-65,-20,55,-12,-42,20,-15,-20,-65,-35,-30
-37,-65,-28,51,-4,-46,20,-19,-17,-65,-35,-30
-34,-65,-31,50,-1,-48,20,-21,-15,-65,-35,-30
-35,-65,-29,50,-3,-46,20,-20,-15,-60,-35,-32
-37,-67,-31,52,-3,-49,20,-20,-11,-60,-35,-36
-41,-71,-29,56,-6,-50,20,-20,-10,-59,-35,-40
-39,-70,-31,54,-4,-50,20,-20,-11,-55,-35,-40
-36,-70,-34,53,-1,-52,20,-20,-17,-55,-36,-41
-35,-70,-35,53,0,-52,20,-19,-24,-57,-34,-46
-32,-70,-38,51,3,-54,20,-26,-28,-63,-42,-44
-33,-75,-41,54,4,-57,19,-31,-31,-69,-51,-48
-38,-75,-37,57,0,-56,16,-29,-34,-75,-49,-50
-40,-75,-35,58,-2,-55,15,-34,-35,-75,-50,-50
-40,-75,-35,58,-2,-55,15,-35,-35,-75,-50,-50
-43,-75,-32,59,-5,-53,15,-35,-35,-77,-50,-50
-48,-77,-29,63,-9,-53,15,-40,-40,-80,-54,-50
-50,-81,-31,66,-10,-56,18,-40,-46,-83,-55,-45
-43,-85,-42,64,0,-64,20,-40,-45,-86,-55,-45
-38,-90,-52,64,7,-71,20,-40,-45,-89,-55,-44
-35,-90,-55,63,10,-72,20,-39,-45,-90,-55,-40
-35,-90,-55,63,10,-72,20,-46,-45,-90,-55,-40
-35,-90,-55,63,10,-72,20,-51,-45,-90,-55,-43
-35,-90,-55,63,10,-72,15,-47,-44,-89,-55,-45
-32,-87,-55,60,12,-71,15,-45,-47,-92,-55,-45
-33,-84,-51,59,10,-67,14,-41,-55,-95,-55,-48
-36,-85,-50,60,7,-67,9,-40,-55,-95,-55,-51
-31,-81,-50,56,9,-65,10,-37,-55,-95,-55,-49
-35,-80,-45,57,5,-62,10,-35,-55,-95,-55,-45
-35,-80,-45,58,5,-62,10,-35,-55,-95,-56,-45
-31,-75,-44,54,7,-59,10,-30,-54,-90,-54,-44
-30,-71,-40,51,5,-56,11,-30,-49,-85,-48,-40
-29,-66,-38,48,5,-52,10,-29,-43,-82,-43,-40
-27,-61,-35,44,4,-48,10,-24,-40,-75,-37,-38
-26,-58,-32,42,3,-44,27,-26,-35,-78,-31,-33
-25,-54,-29,40,2,-41,25,-22,-30,-80,-26,-30
-12,-56,-44,34,16,-49,1,-20,-33,-80,-29,-27
5,-54,-58,25,32,-56,-15,-20,-37,-83,-30,-22
3,-57,-60,27,32,-58,-16,-19,-42,-86,-31,-20
0,-60,-59,30,30,-59,-6,-32,-53,-85,-35,-25
0,-61,-61,31,30,-61,-4,-49,-55,-77,-34,-27
-21,-80,-59,51,19,-69,4,-42,-58,-80,-45,-39
-35,-96,-61,65,14,-78,3,-47,-82,-101,-58,-54
-35,-94,-59,65,13,-76,10,-44,-74,-100,-61,-62
-34,-96,-62,66,14,-79,11,-45,-70,-97,-63,-59
-36,-103,-67,70,16,-84,17,-48,-64,-105,-68,-64
-31,-96,-65,64,17,-80,14,-36,-51,-94,-64,-66
-55,-131,-76,93,10,-103,46,15,-56,-109,-86,-64
-42,-84,-42,63,0,-62,156,230,117,8,-40,-47
262,300,38,-281,112,169,-137,42,260,381,426,294
521,905,384,-713,68,644,-762,-745,140,881,1079,707
294,941,647,-618,-177,794,-958,-1228,-347,624,841,484
-13,317,330,-153,-172,324,-581,-926,-651,-184,43,3
-64,-7,57,35,-61,25,-153,-315,-294,-227,-119,-104
-37,-37,0,37,-18,-18,-18,-55,-72,-81,-44,-55
-35,-79,-44,57,5,-61,29,-9,-55,-104,-72,-56
-33,-72,-39,53,3,-55,60,35,-14,-63,-58,-55
-32,-78,-46,56,8,-62,57,44,-21,-83,-70,-56
-35,-74,-38,54,2,-55,63,67,8,-62,-62,-51
-33,-73,-41,53,4,-57,63,73,11,-67,-63,-48
-32,-70,-38,51,3,-54,67,82,24,-59,-59,-45
-36,-70,-34,53,-1,-51,64,90,32,-52,-60,-40
-31,-67,-36,50,2,-51,67,102,37,-47,-54,-38
-20,-59,-39,39,10,-49,78,113,50,-35,-44,-32
-13,-56,-43,35,15,-49,87,119,60,-31,-38,-28
-12,-48,-36,31,12,-42,90,138,77,-20,-28,-24
-9,-44,-35,27,13,-39,95,160,97,-4,-23,-18
-8,-39,-30,23,11,-34,104,184,119,8,-14,-15
1,-25,-26,12,14,-25,111,219,146,19,-6,-8
11,-12,-24,1,18,-18,124,260,184,46,7,2
19,7,-13,-13,16,-3,129,306,223,72,29,13
34,33,-1,-34,17,16,121,349,266,102,60,32
55,66,11,-61,21,39,114,386,308,142,94,52
88,113,25,-101,31,69,108,409,349,181,137,84
112,153,42,-133,35,97,97,403,372,217,179,114
124,188,63,-156,30,125,77,382,359,241,216,137
144,212,69,-178,37,140,40,336,345,237,231,151
156,216,60,-186,48,138,15,267,309,232,215,139
143,195,52,-169,45,123,10,193,244,211,199,128
110,154,45,-132,32,99,4,124,175,159,166,101
69,105,36,-87,16,70,-2,79,109,104,116,60
37,59,22,-49,7,41,-4,48,61,51,64,26
13,21,8,-17,2,14,0,27,20,13,19,2
-11,-11,0,11,-5,-5,4,12,-9,-18,-15,-12
-24,-29,-5,27,-9,-17,7,0,-26,-42,-38,-32
-25,-35,-10,30,-7,-22,12,-9,-44,-52,-46,-43
-27,-40,-13,34,-6,-26,15,-15,-50,-63,-44,-45
-22,-42,-19,32,-1,-31,15,-20,-51,-65,-46,-44
-22,-39,-18,31,-2,-28,15,-27,-49,-66,-62,-47
-26,-40,-14,34,-6,-27,15,-29,-52,-70,-66,-58
-24,-40,-15,33,-4,-27,15,-25,-59,-70,-65,-61
-29,-40,-11,35,-9,-26,15,-23,-56,-70,-70,-65
-29,-39,-10,34,-10,-24,15,-20,-53,-70,-70,-64
-24,-35,-10,29,-7,-22,15,-17,-51,-70,-70,-59
-21,-31,-10,26,-5,-20,15,-15,-48,-70,-70,-60
-18,-28,-10,23,-4,-19,15,-15,-45,-70,-70,-60
-13,-23,-10,18,-1,-16,15,-15,-48,-70,-70,-60
-11,-20,-10,15,0,-15,15,-15,-51,-70,-70,-60
-18,-28,-11,23,-3,-19,12,-15,-50,-72,-70,-60
-22,-31,-9,26,-6,-20,9,-15,-54,-75,-73,-60
-18,-29,-11,24,-3,-20,6,-16,-55,-75,-76,-60
-7,-27,-20,17,7,-23,4,-23,-55,-75,-74,-59
-4,-24,-20,14,9,-22,-1,-29,-55,-75,-76,-63
-6,-26,-20,16,7,-22,3,-30,-57,-75,-80,-70
-13,-29,-17,21,2,-23,12,-30,-61,-75,-80,-70
-16,-30,-14,24,-1,-22,8,-29,-58,-74,-80,-70
-15,-30,-15,23,0,-22,5,-35,-66,-77,-80,-70
-15,-30,-15,23,0,-22,2,-40,-76,-88,-80,-70
-15,-30,-15,23,0,-22,0,-42,-75,-91,-84,-70
-15,-30,-15,23,0,-22,-2,-45,-75,-89,-85,-71
-15,-31,-15,23,0,-22,-5,-45,-75,-90,-85,-76
-15,-29,-14,23,0,-21,-5,-45,-75,-90,-85,-75
-14,-31,-18,23,2,-24,-5,-45,-75,-90,-85,-75
-23,-44,-20,33,-1,-31,-5,-45,-75,-90,-85,-75
-26,-46,-20,36,-2,-32,-4,-45,-75,-90,-85,-75
-25,-45,-20,35,-2,-32,-1,-45,-74,-90,-85,-75
-25,-45,-20,35,-2,-32,2,-45,-76,-90,-85,-70
-17,-45,-28,31,6,-36,5,-45,-80,-90,-85,-70
-13,-44,-31,28,9,-37,7,-45,-80,-86,-89,-69
-10,-40,-30,25,10,-35,11,-45,-82,-84,-90,-65
-14,-40,-27,27,6,-33,7,-45,-85,-85,-90,-65
-16,-40,-25,28,5,-32,4,-42,-85,-85,-90,-63
-15,-40,-25,28,5,-32,6,-38,-82,-86,-91,-60
-20,-41,-21,30,0,-31,1,-36,-76,-84,-89,-60
-16,-35,-20,25,2,-27,1,-33,-73,-78,-83,-60
-5,-25,-20,15,8,-22,-1,-30,-67,-72,-77,-60
5,-15,-20,5,13,-17,11,-29,-66,-67,-72,-60
11,-8,-20,-2,16,-14,13,-24,-70,-61,-66,-55
18,-5,-23,-6,21,-14,-19,-33,-70,-56,-61,-52
25,0,-24,-12,25,-12,-26,-41,-69,-58,-63,-49
30,-4,-34,-12,32,-19,-18,-40,-71,-67,-71,-44
31,-14,-44,-8,38,-29,-12,-40,-68,-74,-75,-41
21,-19,-41,-1,31,-30,-8,-40,-75,-81,-79,-41
-6,-36,-30,21,13,-33,-3,-47,-80,-84,-93,-71
-24,-52,-28,38,2,-40,-4,-63,-92,-97,-104,-86
-33,-49,-16,41,-8,-32,3,-63,-96,-103,-105,-84
-28,-49,-21,39,-3,-35,3,-62,-95,-103,-104,-88
-25,-68,-43,46,9,-55,6,-60,-90,-110,-105,-89
-26,-62,-36,44,6,-49,17,-47,-78,-96,-107,-92
-22,-69,-47,45,13,-58,39,-10,-78,-120,-121,-81
-10,-32,-22,21,6,-27,141,209,94,-7,-85,-68
269,309,39,-289,115,174,-100,79,264,356,344,249
547,908,361,-728,93,634,-705,-701,154,819,1010,694
318,979,660,-649,-172,819,-933,-1240,-335,605,816,495
-4,383,387,-189,-196,384,-588,-983,-666,-155,12,-14
-43,54,98,-6,-71,76,-174,-371,-333,-228,-168,-130
-16,19,35,-2,-26,27,-18,-81,-91,-84,-80,-81
-18,-17,1,17,-9,-8,26,-34,-75,-103,-105,-87
-11,-10,1,11,-6,-4,42,6,-28,-65,-88,-84
-10,-29,-19,20,4,-24,47,28,-29,-84,-99,-84
-5,-32,-27,18,12,-29,53,46,-4,-66,-93,-80
0,-31,-31,16,15,-31,56,49,3,-70,-95,-80
0,-30,-30,15,15,-30,65,60,15,-64,-90,-78
-4,-30,-26,17,11,-27,64,61,23,-57,-85,-73
-5,-31,-25,18,10,-27,68,77,29,-49,-84,-71
-6,-30,-24,18,9,-26,70,85,39,-35,-77,-66
-7,-28,-21,18,7,-24,71,92,50,-29,-77,-63
2,-18,-20,8,11,-18,75,111,70,-16,-68,-59
9,-10,-19,0,15,-14,79,131,88,-8,-57,-53
13,-1,-14,-5,14,-7,84,161,108,2,-45,-44
27,11,-16,-18,21,-2,91,191,135,18,-30,-35
37,25,-12,-31,24,6,103,228,170,36,-18,-26
43,41,-2,-42,22,19,109,276,211,67,4,-7
64,71,7,-68,29,38,104,326,253,98,35,17
87,110,22,-99,32,66,93,361,295,131,67,40
116,152,36,-135,40,94,86,377,334,172,111,71
141,191,50,-166,45,120,73,372,359,207,153,100
160,227,67,-194,46,147,49,356,358,233,185,123
185,255,70,-220,57,162,19,319,337,240,196,131
190,255,65,-223,63,160,-6,252,302,233,190,124
180,237,57,-209,61,147,-18,174,248,202,181,117
148,199,51,-174,48,125,-27,111,180,155,140,86
105,149,44,-127,31,96,-25,65,109,102,76,39
69,102,33,-86,18,67,-18,25,54,48,27,7
41,62,22,-52,9,42,-14,-4,17,6,-19,-25
30,40,10,-36,10,25,-8,-18,-12,-22,-51,-46
25,30,5,-28,10,17,-2,-28,-28,-39,-65,-51
17,22,5,-20,6,13,0,-33,-41,-51,-74,-62
8,13,5,-11,1,9,0,-40,-54,-57,-79,-68
-1,4,5,-2,-4,4,0,-51,-61,-62,-89,-71
-5,0,5,2,-5,2,0,-50,-65,-65,-93,-75
-5,0,5,2,-5,2,0,-50,-65,-60,-94,-75
-5,0,5,2,-5,2,0,-50,-65,-60,-97,-75
-5,0,5,2,-5,2,0,-50,-65,-60,-100,-75
-5,0,5,2,-5,2,0,-48,-65,-60,-100,-75
-1,3,5,-2,-3,4,0,-45,-61,-61,-95,-71
7,12,5,-10,1,8,0,-45,-60,-57,-95,-70
9,14,5,-12,1,9,0,-42,-60,-55,-95,-70
5,10,5,-8,0,7,-3,-39,-56,-55,-95,-70
2,7,5,-5,-2,6,-5,-41,-54,-55,-95,-70
0,5,5,-3,-3,5,-5,-44,-57,-55,-98,-71
-4,1,5,1,-5,3,-5,-45,-60,-55,-100,-75
-4,0,4,2,-4,1,-5,-45,-61,-62,-100,-75
-4,-4,0,4,-1,-2,-5,-45,-64,-66,-104,-75
-5,-5,0,5,-2,-2,-5,-47,-65,-68,-105,-75
-5,-5,0,5,-2,-2,-5,-50,-68,-71,-105,-75
-9,-9,0,9,-5,-5,-5,-54,-73,-74,-105,-75
-11,-11,0,11,-6,-5,-5,-55,-76,-79,-105,-75
-8,-8,0,8,-4,-4,-5,-55,-80,-83,-105,-75
-5,-5,0,5,-2,-2,-8,-54,-79,-85,-105,-75
-5,-5,0,5,-2,-2,-10,-59,-82,-85,-104,-75
-3,-3,0,3,-2,-1,-10,-70,-85,-85,-108,-75
1,1,-1,-1,1,0,-10,-70,-85,-85,-110,-75
-2,0,2,1,-2,0,-10,-70,-85,-85,-110,-75
-8,-3,5,5,-6,1,-9,-70,-85,-85,-110,-75
-11,-6,5,8,-8,0,-6,-70,-85,-85,-110,-75
-14,-9,5,11,-9,-2,-5,-70,-85,-85,-109,-75
-17,-11,5,13,-11,-3,-5,-70,-85,-85,-105,-79
-20,-15,5,17,-12,-5,-5,-70,-86,-85,-105,-80
-15,-14,1,14,-8,-6,-5,-70,-90,-82,-105,-80
-9,-10,0,9,-4,-5,-7,-70,-90,-80,-105,-84
-11,-11,0,11,-5,-5,-10,-70,-90,-80,-105,-86
-7,-7,0,7,-4,-3,-10,-74,-90,-80,-105,-83
-5,-5,0,5,-2,-2,-10,-75,-90,-80,-105,-80
-6,-5,1,5,-3,-1,-10,-75,-94,-80,-105,-80
-14,-9,5,11,-9,-2,-10,-75,-95,-84,-105,-78
-19,-14,5,16,-12,-4,-10,-75,-95,-85,-105,-74
-15,-10,5,12,-10,-2,-10,-75,-99,-85,-105,-75
-15,-10,5,12,-10,-2,-10,-75,-100,-85,-109,-79
-15,-10,5,12,-10,-2,-10,-75,-99,-85,-110,-80
-12,-10,2,11,-7,-4,-10,-75,-95,-85,-110,-80
-9,-10,-1,10,-4,-6,-10,-75,-95,-85,-110,-84
-6,-10,-4,8,-1,-6,-10,-75,-93,-85,-110,-86
-4,-10,-7,7,2,-8,-10,-70,-89,-85,-108,-84
0,-10,-10,5,5,-10,-10,-64,-91,-85,-103,-78
-1,-10,-9,6,4,-10,-10,-60,-85,-85,-100,-72
-6,-10,-4,9,-1,-7,-9,-56,-77,-85,-97,-68
-2,-9,-7,6,2,-7,-5,-51,-70,-83,-92,-61
-5,-3,2,4,-3,0,4,-52,-66,-79,-90,-56
-9,3,12,3,-11,7,2,-56,-70,-80,-90,-58
7,8,2,-7,2,5,-5,-54,-72,-80,-90,-61
30,15,-15,-22,22,0,-14,-55,-76,-80,-89,-59
33,8,-25,-20,28,-8,-17,-63,-78,-80,-91,-61
23,-2,-25,-10,24,-14,-17,-71,-80,-84,-89,-60
6,-19,-26,7,16,-22,-13,-70,-80,-86,-96,-61
-15,-35,-20,25,3,-27,-10,-71,-88,-86,-112,-72
-22,-44,-22,33,0,-33,-9,-81,-103,-104,-119,-75
-27,-44,-17,35,-4,-30,-2,-82,-96,-90,-121,-76
-22,-46,-24,34,1,-35,-7,-85,-104,-91,-118,-74
-29,-44,-15,36,-6,-29,15,-71,-96,-78,-123,-77
-18,-57,-39,38,10,-48,6,-75,-93,-75,-116,-78
-38,-87,-49,63,6,-68,96,85,4,-67,-116,-102
104,103,-1,-103,52,51,76,223,213,163,81,51
481,648,168,-565,156,408,-433,-312,264,635,750,546
477,1045,568,-761,-45,806,-888,-1083,-51,815,1046,688
106,666,560,-387,-227,613,-777,-1199,-582,165,341,191
-65,133,198,-34,-132,165,-329,-651,-523,-267,-167,-123
-34,26,61,4,-48,43,-64,-173,-142,-100,-99,-81
-26,-18,8,22,-17,-5,-9,-66,-77,-78,-98,-65
-39,-37,2,38,-20,-17,28,-20,-37,-66,-97,-64
-30,-32,-2,31,-13,-17,36,10,-25,-62,-93,-59
-24,-38,-15,31,-4,-26,47,23,-18,-65,-97,-59
-16,-32,-16,24,1,-24,45,36,-1,-52,-87,-53
-9,-38,-28,24,10,-33,48,38,1,-58,-93,-58
-5,-33,-29,19,12,-30,52,52,18,-44,-86,-55
-2,-33,-31,17,15,-32,55,61,22,-44,-84,-52
3,-28,-32,13,18,-30,60,74,33,-32,-77,-48
10,-26,-36,9,23,-31,63,88,38,-29,-74,-44
12,-23,-35,6,24,-29,72,104,56,-19,-69,-41
11,-20,-32,5,21,-26,75,121,71,-6,-64,-37
7,-19,-26,6,17,-22,79,141,93,5,-55,-28
16,-6,-22,-5,19,-13,85,169,118,23,-39,-20
27,10,-17,-18,22,-4,95,208,146,36,-26,-11
31,19,-13,-25,22,3,99,252,187,60,-10,2
51,43,-8,-47,29,17,94,299,227,96,20,20
73,74,2,-74,35,38,90,341,274,128,53,45
98,113,15,-106,41,63,85,372,311,162,92,71
129,159,30,-144,49,94,81,381,345,200,137,100
149,193,44,-171,52,119,69,367,361,234,170,123
170,227,57,-199,56,142,41,347,348,245,197,143
185,239,53,-212,66,145,10,290,317,246,211,153
185,227,42,-206,71,134,-19,220,273,242,199,143
167,202,35,-185,65,119,-32,155,219,204,167,121
134,159,25,-147,54,92,-28,94,154,152,123,88
93,110,17,-101,38,63,-20,50,96,102,73,50
54,63,9,-59,22,36,-14,13,49,59,19,13
30,33,3,-32,14,18,-7,-8,13,24,-16,-12
17,12,-5,-14,10,3,-1,-17,-6,-3,-40,-28
12,-1,-13,-6,13,-6,-3,-28,-22,-13,-61,-42
14,-5,-19,-4,17,-11,-5,-36,-38,-19,-66,-50
11,-10,-20,-1,16,-15,-5,-40,-46,-26,-69,-54
6,-14,-20,4,13,-16,-5,-43,-41,-32,-74,-56
1,-19,-20,9,11,-19,-5,-48,-40,-39,-75,-60
-1,-20,-20,10,9,-20,-4,-49,-40,-37,-75,-58
1,-20,-21,9,11,-20,0,-43,-40,-34,-75,-54
-3,-20,-17,12,7,-19,0,-36,-41,-36,-75,-55
-5,-20,-15,13,5,-17,2,-30,-38,-35,-75,-55
-5,-20,-15,13,5,-17,5,-22,-35,-36,-75,-55
-8,-20,-12,14,2,-16,5,-16,-33,-34,-70,-54
-11,-20,-9,16,-1,-15,1,-18,-30,-30,-70,-51
-8,-20,-12,14,2,-16,0,-21,-27,-30,-69,-50
0,-20,-20,10,10,-20,0,-20,-25,-30,-65,-50
0,-20,-21,10,11,-20,-5,-20,-29,-30,-64,-50
0,-20,-19,10,9,-20,-5,-20,-33,-30,-74,-50
-2,-22,-20,12,10,-21,-5,-19,-36,-35,-82,-50
-7,-27,-20,17,7,-23,-5,-28,-41,-41,-79,-51
-10,-30,-20,20,5,-25,-5,-36,-44,-39,-80,-49
-8,-35,-27,21,10,-31,-5,-35,-49,-42,-80,-51
-4,-35,-31,20,14,-32,-5,-35,-50,-48,-80,-64
-5,-35,-30,20,13,-32,-5,-35,-52,-52,-84,-66
-5,-35,-30,20,13,-32,-1,-38,-57,-55,-91,-64
-5,-35,-30,20,13,-32,0,-41,-55,-55,-95,-65
-7,-37,-31,22,12,-34,0,-39,-55,-55,-95,-65
-13,-41,-27,27,7,-34,4,-40,-55,-55,-95,-65
-15,-40,-25,28,5,-32,6,-40,-55,-54,-95,-65
-15,-40,-25,28,5,-32,3,-40,-55,-57,-95,-65
-15,-40,-25,28,5,-32,0,-45,-58,-60,-95,-65
-15,-40,-25,28,5,-32,0,-46,-61,-60,-95,-65
-28,-53,-25,41,-1,-39,0,-45,-60,-60,-95,-65
-21,-56,-35,39,7,-45,0,-43,-60,-60,-95,-65
-14,-51,-37,33,12,-43,0,-39,-59,-60,-95,-65
-16,-50,-34,33,9,-41,4,-40,-61,-56,-96,-65
-10,-45,-35,28,13,-40,5,-40,-65,-54,-100,-65
-10,-45,-35,28,13,-40,5,-40,-65,-55,-100,-65
-15,-50,-34,33,10,-42,5,-40,-65,-54,-100,-66
-13,-50,-37,32,12,-43,5,-40,-65,-56,-100,-70
-11,-50,-40,30,15,-45,5,-40,-65,-54,-100,-70
-8,-48,-41,28,17,-44,5,-39,-62,-50,-97,-70
-5,-41,-36,23,16,-38,5,-33,-56,-50,-91,-70
1,-35,-36,17,19,-35,5,-27,-51,-50,-87,-70
26,-27,-53,1,40,-40,6,-23,-48,-50,-82,-66
42,-21,-62,-10,52,-41,2,-16,-42,-50,-77,-56
48,-15,-63,-16,56,-39,22,-12,-40,-53,-74,-50
57,-10,-66,-23,62,-38,30,-9,-40,-56,-69,-40
52,-11,-64,-20,58,-37,2,-12,-39,-54,-71,-36
63,-3,-66,-29,64,-34,-16,-20,-41,-55,-67,-34
47,-17,-65,-15,56,-41,-10,-19,-39,-55,-65,-36
6,-59,-65,27,36,-62,0,-33,-50,-53,-65,-33
-5,-71,-66,39,30,-68,10,-42,-57,-50,-70,-41
-6,-69,-63,38,29,-65,20,-38,-59,-57,-85,-61
-8,-76,-68,43,30,-72,19,-43,-66,-73,-93,-59
-13,-74,-61,44,24,-67,23,-37,-56,-61,-97,-61
-5,-76,-70,41,33,-73,16,-44,-64,-70,-92,-59
-17,-75,-58,46,21,-67,27,-31,-48,-60,-100,-62
-16,-91,-75,54,30,-83,23,-32,-63,-69,-94,-65
-35,-121,-86,78,26,-104,117,125,21,-52,-82,-88
108,69,-38,-88,73,16,107,279,267,204,119,68
492,616,124,-554,184,370,-395,-242,336,683,791,578
494,1010,516,-752,-11,763,-851,-1022,1,852,1077,713
113,635,522,-375,-204,578,-742,-1156,-544,194,357,200
-67,103,170,-18,-119,136,-304,-620,-493,-230,-141,-104
-44,-20,24,32,-34,2,-37,-139,-120,-68,-70,-61
-28,-65,-37,46,5,-51,15,-31,-61,-59,-75,-56
-14,-73,-58,44,22,-66,62,12,-28,-45,-76,-59
-10,-75,-65,43,27,-70,69,48,-6,-32,-70,-52
-9,-84,-76,47,34,-80,70,65,2,-30,-71,-48
0,-73,-73,37,37,-73,83,76,18,-15,-62,-43
0,-77,-77,39,39,-77,87,86,30,-17,-63,-40
4,-69,-72,33,38,-70,92,102,44,-2,-56,-33
0,-71,-70,35,35,-70,94,105,48,-2,-56,-32
6,-64,-70,29,38,-67,95,116,62,8,-51,-28
9,-58,-67,25,39,-63,95,124,72,13,-49,-26
10,-55,-65,23,38,-60,99,138,86,22,-45,-22
18,-47,-64,15,41,-55,106,155,97,31,-45,-20
19,-44,-62,12,41,-53,112,176,115,37,-34,-17
23,-35,-58,6,40,-46,119,210,140,48,-20,-8
35,-22,-57,-6,47,-40,125,241,170,67,-4,3
44,-8,-52,-18,48,-30,132,282,208,96,17,11
63,12,-51,-37,57,-20,136,332,252,129,45,29
91,43,-47,-67,69,-2,125,370,296,159,84,58
116,91,-26,-103,71,32,115,400,334,200,127,84
143,130,-13,-136,78,58,104,403,368,241,172,119
148,161,13,-155,67,87,89,386,377,266,205,142
171,198,26,-185,72,112,66,369,364,287,236,162
172,202,30,-188,71,116,33,318,348,295,235,162
151,189,38,-170,57,113,24,250,307,282,217,148
150,172,23,-161,63,98,26,188,246,247,195,131
117,129,11,-123,53,70,24,130,178,191,144,87
77,72,-5,-74,40,33,25,86,113,132,92,44
44,22,-22,-32,32,0,24,53,70,91,46,11
26,-9,-36,-8,31,-22,29,34,31,55,5,-14
10,-32,-42,11,26,-37,30,17,-1,33,-17,-31
-3,-46,-44,25,21,-45,31,6,-15,17,-33,-43
-2,-48,-46,26,22,-47,35,1,-23,2,-48,-52
-8,-52,-44,30,18,-48,34,-4,-32,0,-50,-56
-9,-55,-46,33,19,-51,37,-7,-39,-3,-50,-55
-10,-52,-42,32,16,-47,40,-13,-40,-6,-49,-55
-10,-50,-40,30,15,-45,40,-14,-41,-9,-55,-59
-10,-50,-40,30,15,-45,36,-9,-44,-10,-61,-61
-14,-50,-36,32,11,-43,35,-6,-46,-5,-60,-60
-15,-50,-34,33,10,-42,35,-3,-44,-2,-60,-60
-14,-50,-35,33,10,-42,35,1,-40,2,-60,-60
-15,-61,-45,38,15,-53,35,5,-35,5,-60,-60
-15,-67,-51,41,19,-58,36,1,-33,10,-56,-56
-15,-64,-49,40,18,-56,40,0,-28,8,-55,-55
-15,-66,-51,40,19,-58,40,0,-25,1,-55,-55
-10,-65,-54,38,23,-59,40,-5,-28,-4,-50,-51
-10,-65,-55,38,23,-60,40,-5,-31,-9,-50,-49
-7,-65,-58,36,26,-61,40,-5,-38,-15,-51,-52
-3,-64,-61,34,29,-62,39,-5,-40,-20,-55,-55
-15,-72,-57,44,21,-65,35,-5,-41,-25,-55,-56
-21,-76,-55,49,17,-65,35,-6,-49,-25,-55,-59
-19,-74,-55,47,18,-65,33,-4,-53,-24,-55,-60
-20,-75,-55,48,18,-65,29,-10,-55,-29,-55,-60
-20,-75,-55,48,18,-65,30,-18,-55,-31,-55,-60
-20,-75,-55,48,18,-65,33,-15,-54,-30,-54,-60
-25,-80,-55,53,15,-67,35,-15,-60,-30,-57,-61
-25,-80,-55,53,15,-67,35,-15,-65,-30,-61,-61
-25,-80,-55,53,15,-67,35,-15,-65,-29,-60,-60
-25,-80,-55,53,15,-67,35,-15,-65,-33,-60,-60
-22,-77,-55,50,17,-66,34,-15,-65,-42,-60,-60
-34,-86,-52,60,10,-69,30,-15,-65,-46,-60,-60
-42,-91,-49,67,4,-70,30,-15,-69,-45,-60,-62
-39,-89,-50,64,6,-70,30,-15,-70,-45,-60,-65
-41,-87,-46,64,3,-66,30,-15,-70,-45,-60,-65
-40,-85,-45,63,3,-65,30,-17,-70,-45,-60,-65
-39,-85,-45,62,4,-65,33,-17,-70,-45,-60,-65
-32,-81,-50,57,9,-65,36,-14,-69,-45,-60,-65
-17,-78,-61,48,22,-69,34,-15,-62,-45,-56,-61
-9,-77,-67,43,30,-72,36,-14,-56,-45,-52,-58
-1,-71,-70,36,34,-70,35,-15,-49,-45,-48,-56
-7,-72,-64,40,28,-68,35,-14,-43,-42,-45,-52
-5,-66,-61,35,29,-63,48,-8,-36,-32,-40,-50
7,-59,-66,27,37,-63,38,-5,-32,-23,-40,-47
18,-49,-67,15,43,-58,25,1,-29,-12,-40,-45
30,-42,-72,6,51,-57,24,4,-32,-17,-40,-45
-8,-82,-74,45,34,-78,26,2,-47,-28,-40,-46
-26,-98,-73,62,24,-85,23,-7,-59,-34,-39,-44
-28,-94,-66,61,19,-80,27,-12,-59,-39,-41,-46
-39,-99,-61,69,11,-80,35,-19,-67,-50,-45,-50
-46,-102,-56,74,5,-79,34,-28,-72,-58,-61,-58
-59,-107,-48,83,-6,-77,37,-28,-67,-50,-70,-61
-56,-114,-58,85,1,-85,31,-34,-75,-62,-71,-59
-64,-105,-42,84,-11,-73,41,-25,-64,-46,-69,-62
-51,-132,-80,92,15,-106,38,-12,-70,-66,-71,-57
-63,-133,-70,98,4,-101,159,185,76,8,-59,-71
140,174,34,-157,53,104,52,250,319,352,281,161
468,762,294,-615,87,527,-495,-342,322,893,996,634
340,1006,667,-674,-163,837,-788,-994,-118,886,1014,557
-2,509,511,-253,-257,510,-625,-1020,-649,37,175,37
-104,35,139,34,-122,86,-247,-500,-465,-246,-146,-123
-82,-51,31,66,-56,-10,-3,-94,-105,-48,-46,-60
-71,-97,-25,84,-23,-61,42,-21,-63,-57,-71,-56
-54,-101,-47,77,-3,-74,69,31,-13,-15,-46,-47
-48,-109,-62,79,7,-85,73,56,-6,-28,-49,-45
-46,-112,-66,80,10,-89,84,67,2,-20,-39,-40
-43,-107,-64,76,10,-85,85,81,11,-16,-33,-35
-42,-108,-65,75,12,-86,84,84,13,-18,-31,-31
-33,-103,-70,69,19,-86,89,91,27,-9,-24,-24
-28,-105,-77,67,25,-91,90,99,31,-7,-25,-21
-25,-99,-74,62,25,-86,91,116,41,6,-17,-13
-25,-98,-73,62,24,-85,94,123,56,11,-16,-9
-26,-95,-69,60,22,-82,95,130,68,19,-10,-3
-20,-91,-70,56,25,-81,95,148,86,29,0,4
-25,-91,-66,58,21,-78,95,171,108,47,10,14
-23,-83,-60,53,19,-71,95,196,124,55,20,21
-9,-63,-54,36,23,-59,105,224,159,76,38,31
5,-43,-48,19,27,-46,105,261,195,108,59,48
28,-17,-44,-5,36,-30,99,299,238,136,87,63
46,17,-29,-31,37,-6,93,334,277,168,124,95
73,61,-11,-67,42,25,88,356,315,214,169,127
94,100,5,-97,44,52,78,358,345,248,212,154
105,136,31,-121,37,83,58,350,338,269,247,179
121,170,49,-145,35,109,27,318,327,283,257,186
114,164,49,-139,32,106,-2,259,300,270,248,176
111,151,40,-131,35,95,-12,193,243,254,243,162
99,130,31,-115,34,80,-18,140,179,208,197,140
56,78,23,-67,16,50,-14,94,117,145,137,100
17,30,13,-23,1,21,-3,59,66,101,93,67
-14,-9,5,11,-10,-2,4,37,25,59,49,38
-37,-37,0,37,-18,-18,14,25,-8,24,14,12
-50,-55,-5,53,-22,-30,15,19,-36,-1,-11,4
-53,-63,-10,58,-21,-37,15,12,-46,-9,-20,1
-50,-67,-17,59,-16,-42,14,4,-48,-13,-25,-2
-55,-74,-19,65,-18,-46,10,-3,-51,-19,-25,-7
-63,-78,-15,71,-24,-46,10,-2,-54,-25,-27,-10
-62,-77,-15,70,-23,-46,10,1,-54,-30,-30,-10
-62,-75,-13,69,-24,-43,10,-1,-49,-30,-25,-10
-65,-75,-10,70,-28,-42,10,0,-46,-30,-25,-10
-62,-72,-10,67,-26,-41,12,-1,-43,-30,-25,-10
-56,-69,-14,63,-21,-41,11,1,-38,-30,-25,-11
-56,-71,-15,64,-20,-42,10,5,-35,-30,-25,-8
-59,-74,-15,67,-21,-45,10,4,-41,-33,-25,-5
-56,-75,-19,65,-18,-47,10,7,-46,-35,-25,-2
-55,-76,-21,66,-17,-48,10,10,-45,-35,-25,0
-62,-80,-18,71,-22,-49,10,10,-45,-35,-25,3
-65,-80,-15,73,-25,-47,10,6,-45,-36,-25,5
-65,-80,-15,73,-25,-47,10,5,-44,-40,-26,1
-65,-80,-15,73,-25,-47,10,5,-50,-43,-30,-1
-65,-80,-15,73,-25,-47,10,0,-59,-51,-30,0
-65,-80,-15,73,-25,-47,9,0,-61,-55,-30,-1
-58,-80,-22,69,-18,-50,6,-1,-64,-61,-30,1
-54,-81,-26,68,-14,-53,3,-6,-67,-65,-32,-2
-60,-84,-24,73,-17,-54,1,-9,-73,-72,-39,-5
-60,-85,-26,73,-17,-55,-3,-12,-76,-81,-45,-5
-60,-85,-25,73,-17,-55,-5,-17,-74,-79,-45,-7
-59,-85,-26,73,-16,-55,-8,-20,-76,-80,-46,-10
-56,-85,-29,71,-13,-57,-10,-24,-80,-80,-50,-10
-52,-83,-30,67,-11,-56,-10,-25,-85,-79,-50,-6
-50,-79,-30,64,-10,-55,-10,-25,-85,-84,-50,-5
-50,-80,-30,65,-10,-55,-10,-25,-85,-85,-50,-5
-46,-76,-30,61,-8,-53,-10,-25,-85,-87,-50,0
-47,-75,-28,61,-9,-51,-5,-25,-85,-90,-50,0
-50,-75,-24,63,-12,-50,-5,-25,-84,-92,-50,0
-48,-70,-22,59,-13,-46,-5,-25,-86,-95,-50,0
-51,-70,-19,60,-16,-45,-5,-25,-90,-91,-50,0
-55,-70,-16,63,-20,-42,-5,-25,-90,-90,-50,0
-55,-70,-16,63,-19,-43,-2,-25,-90,-91,-50,0
-54,-70,-16,62,-19,-43,0,-25,-90,-90,-50,0
-57,-72,-15,65,-21,-43,2,-25,-90,-90,-50,4
-61,-76,-15,69,-22,-45,5,-25,-86,-89,-48,10
-49,-64,-15,57,-17,-39,6,-25,-80,-80,-43,15
-35,-49,-15,43,-10,-32,-12,-25,-75,-70,-40,21
-21,-38,-17,30,-2,-27,-31,-25,-70,-68,-37,27
5,-26,-31,10,19,-29,-31,-26,-62,-72,-31,29
-13,-46,-33,30,11,-40,-23,-25,-66,-77,-30,23
-34,-60,-26,47,-4,-43,-19,-25,-84,-79,-22,17
-37,-61,-25,49,-6,-43,-13,-25,-87,-86,-28,13
-61,-77,-16,69,-22,-46,-6,-33,-81,-89,-47,5
-71,-88,-17,80,-27,-53,-5,-50,-93,-110,-58,3
-76,-83,-6,79,-35,-44,5,-40,-84,-107,-62,-9
-71,-89,-19,81,-26,-54,-1,-49,-85,-112,-57,-17
-80,-92,-12,86,-34,-51,15,-41,-70,-110,-65,-23
-67,-85,-19,76,-24,-52,1,-32,-72,-106,-61,-16
-78,-120,-42,99,-18,-81,67,84,-18,-106,-75,-27
21,49,29,-35,-4,39,91,248,205,139,96,83
373,572,198,-473,87,385,-384,-180,272,630,738,523
424,1064,640,-744,-108,852,-875,-906,11,982,1146,710
98,779,680,-439,-291,729,-851,-1138,-559,313,499,276
-84,165,248,-41,-166,206,-439,-703,-621,-328,-118,-52
-81,2,83,39,-82,42,-89,-182,-178,-134,-60,-28
