I,II,III,aVR,aVL,aVF,V1,V2,V3,V4,V5,V6
15,77,62,-46,-24,70,70,-135,3379,175,-199,224
63,71,8,-67,27,40,71,-157,3347,172,-195,219
80,16,-64,-48,72,-24,69,-152,3329,166,-190,212
65,65,1,-65,32,33,73,-149,3324,161,-185,205
71,74,3,-73,34,38,93,-145,3313,154,-181,197
60,66,6,-64,27,36,91,-141,3302,151,-176,191
61,64,3,-63,29,33,84,-138,3284,153,-172,185
58,55,-3,-56,30,25,80,-134,3269,158,-170,184
57,53,-4,-54,30,24,72,-128,3253,160,-167,186
61,52,-9,-56,35,21,72,-125,3236,160,-164,181
83,60,-22,-72,52,19,76,-119,3227,164,-161,204
69,61,-8,-65,38,26,84,-117,3220,164,-159,228
58,69,11,-63,23,40,87,-101,3215,166,-156,223
103,70,-33,-86,68,19,98,-60,3206,173,-149,228
123,77,-46,-99,84,15,102,-38,3202,207,-148,230
126,81,-45,-102,85,17,94,-6,3196,232,-135,229
123,83,-40,-103,81,21,121,33,3215,247,-94,231
135,126,-9,-130,71,58,137,61,3258,290,-62,230
139,130,-10,-134,74,60,126,103,3276,314,-41,253
165,150,-15,-158,89,67,126,121,3285,334,-9,279
222,242,20,-233,101,131,119,116,3277,361,7,291
201,227,26,-214,87,126,117,110,3257,367,10,323
171,190,19,-181,76,105,101,90,3208,363,19,333
202,220,18,-211,92,118,68,51,3139,341,16,305
169,191,23,-180,73,107,55,0,3087,296,5,279
97,163,66,-130,15,115,50,-36,3014,271,-20,257
102,112,10,-107,46,61,42,-93,2944,253,-49,238
88,84,-4,-86,46,40,35,-128,2904,235,-79,221
2,79,77,-41,-38,78,27,-118,2857,220,-119,205
-10,58,68,-25,-39,63,22,-138,2819,188,-121,180
28,82,54,-55,-13,67,19,-165,2778,173,-119,160
24,72,48,-48,-12,59,16,-183,2740,176,-120,160
9,66,57,-38,-24,62,13,-163,2730,174,-120,159
26,63,37,-45,-5,49,10,-126,2710,175,-120,155
51,54,3,-53,24,28,11,-139,2694,174,-111,155
48,61,13,-54,17,36,18,-181,2662,176,-133,155
26,58,32,-42,-3,45,24,-183,2632,180,-139,155
18,62,44,-41,-13,53,31,-165,2627,180,-127,155
70,57,-14,-64,42,21,38,-160,2615,180,-124,155
23,75,51,-49,-14,62,34,-153,2605,180,-115,155
20,83,63,-52,-22,73,18,-150,2590,180,-111,155
68,71,3,-69,32,37,6,-142,2577,180,-110,152
27,67,40,-47,-7,54,-3,-138,2562,180,-110,149
70,52,-18,-61,43,17,-7,-132,2548,180,-110,146
46,92,45,-69,0,69,-13,-130,2532,180,-110,143
30,124,94,-77,-32,109,-19,-145,2492,180,-110,141
59,108,49,-83,4,78,-24,-151,2468,179,-108,138
46,106,60,-77,-7,83,-29,-149,2458,175,-103,135
59,99,41,-79,9,70,-29,-154,2446,173,-100,132
51,94,44,-73,3,68,-31,-156,2432,170,-97,130
44,89,45,-67,-1,67,-33,-154,2393,166,-92,127
33,83,50,-58,-9,66,-38,-165,2360,165,-90,123
25,80,55,-53,-15,67,-30,-173,2343,162,-90,136
20,79,59,-50,-20,69,-42,-167,2331,185,-90,147
24,81,57,-52,-17,68,-76,-163,2327,199,-90,145
25,79,54,-53,-15,66,-75,-157,2288,186,-90,143
25,80,56,-53,-15,67,-76,-155,2243,180,-90,139
29,83,54,-56,-13,69,-81,-146,2230,172,-88,140
30,86,56,-58,-14,71,-80,-159,2222,165,-84,136
37,89,52,-63,-8,70,-78,-180,2196,160,-85,135
28,91,63,-60,-17,77,-74,-169,2167,154,-85,135
80,99,18,-89,31,58,-75,-162,2156,150,-85,131
132,100,-32,-116,82,34,-71,-155,2148,142,-85,129
91,100,9,-95,41,54,-69,-147,2139,141,-80,131
40,105,65,-73,-12,85,-70,-144,2117,145,-75,135
35,104,70,-70,-18,87,-80,-139,2085,147,-70,135
67,106,40,-87,13,73,-91,-137,2069,153,-67,139
75,110,35,-93,20,72,-89,-131,2053,152,-61,140
63,112,48,-88,7,80,-93,-130,2039,170,-58,144
49,139,90,-94,-21,114,-96,-131,2028,198,-54,155
86,198,112,-142,-14,154,-95,-127,2017,185,-53,165
143,225,82,-184,31,153,-150,-143,1999,182,-49,163
121,216,95,-168,13,155,-202,-153,1969,174,-45,152
86,203,117,-145,-16,160,-186,-159,1934,167,-46,145
111,137,26,-124,42,81,-149,-149,1936,161,-41,136
102,78,-24,-89,63,26,-114,-161,1895,115,-56,122
77,63,-15,-70,46,24,-98,-150,1881,111,-69,93
36,37,1,-37,18,18,-113,-154,1840,88,-85,80
15,39,24,-27,-5,31,-137,-141,1847,101,-71,95
6,31,25,-19,-10,28,-97,-119,1836,75,-95,88
-14,53,67,-20,-41,60,-60,-112,1798,81,-69,104
17,76,59,-47,-21,67,57,74,1958,204,18,118
295,276,-19,-285,156,128,-64,152,2348,737,479,442
1101,475,-627,-788,864,-76,-566,199,3113,1276,1012,844
876,196,-680,-535,778,-242,-763,-276,2372,421,359,483
-64,-27,38,46,-51,5,-562,-730,1155,-346,-302,47
-85,-14,71,50,-78,28,-262,-321,1507,-131,-194,47
-43,-4,39,23,-41,18,-117,-156,1644,-88,-166,55
-45,25,70,10,-58,47,-106,-139,1609,-75,-127,65
-20,14,34,3,-27,24,-82,-100,1678,-74,-121,67
-25,28,53,-2,-39,40,-86,-127,1621,-76,-118,72
-23,33,56,-5,-40,45,-76,-98,1623,-64,-101,75
-34,22,56,6,-46,39,-71,-115,1584,-78,-104,68
21,49,28,-35,-4,39,-67,-99,1593,-72,-90,69
-43,32,75,5,-59,53,-63,-103,1568,-84,-94,64
-38,19,56,9,-47,37,-67,-91,1564,-81,-85,62
-30,28,58,1,-44,43,-62,-83,1551,-89,-85,59
-61,-6,54,33,-58,24,-72,-77,1537,-90,-79,63
-20,28,48,-4,-34,38,-85,-67,1539,-84,-77,67
-21,25,46,-2,-34,35,-80,-62,1538,-79,-71,68
-7,12,19,-3,-14,15,-75,-53,1540,-74,-66,73
23,83,59,-53,-18,71,-72,-38,1543,-68,-63,74
-4,78,82,-37,-44,79,-66,-13,1544,-63,-57,78
-20,53,73,-17,-46,63,-63,24,1544,-56,-54,100
-1,68,69,-34,-35,68,-52,41,1543,-38,-39,98
52,115,64,-84,-6,89,-43,66,1552,-10,-13,107
78,133,55,-106,11,94,-44,121,1581,20,14,137
65,123,58,-95,3,91,-46,148,1606,47,45,158
93,153,60,-123,16,107,-44,157,1627,83,85,181
119,176,57,-148,31,116,-46,179,1657,109,102,206
117,215,97,-166,10,156,-44,202,1657,109,96,229
124,223,99,-174,12,161,-47,161,1608,104,91,218
127,191,64,-159,31,127,-75,94,1548,102,85,197
116,179,63,-148,26,121,-109,31,1465,85,81,179
117,164,46,-141,35,105,-132,-25,1392,47,52,156
92,126,34,-109,29,79,-153,-57,1346,-1,9,141
32,112,79,-73,-24,95,-181,-90,1294,-37,-24,124
16,100,84,-58,-34,92,-187,-113,1254,-50,-41,90
21,72,51,-47,-16,62,-180,-126,1226,-59,-39,65
19,74,55,-47,-18,64,-180,-129,1210,-67,-41,66
31,72,41,-52,-5,56,-175,-132,1195,-74,-46,64
22,65,43,-43,-11,54,-175,-137,1176,-75,-44,60
-17,69,86,-26,-52,77,-175,-140,1159,-75,-48,60
-22,56,78,-17,-51,66,-175,-137,1149,-75,-49,60
14,37,24,-25,-5,30,-175,-133,1140,-76,-51,60
4,55,51,-30,-24,53,-175,-152,1125,-96,-63,60
-29,82,110,-27,-70,96,-174,-157,1117,-99,-61,60
-14,42,55,-14,-35,48,-178,-143,1094,-91,-51,60
-1,22,23,-11,-12,22,-180,-141,1077,-89,-47,60
-10,69,79,-29,-45,74,-180,-128,1065,-83,-48,56
-19,77,96,-29,-58,86,-183,-128,1029,-79,-52,55
-17,76,94,-30,-56,85,-185,-123,1006,-76,-54,55
-6,32,38,-13,-23,35,-184,-124,992,-73,-58,50
14,44,30,-29,-8,37,-179,-133,985,-71,-60,50
20,87,67,-54,-23,76,-174,-105,979,-67,-60,49
15,58,43,-37,-14,51,-168,-120,970,-65,-60,45
24,60,35,-42,-6,47,-163,-136,964,-65,-60,45
14,48,34,-31,-10,40,-156,-125,953,-65,-60,45
-1,46,46,-23,-24,46,-161,-134,915,-65,-60,45
-18,37,55,-10,-37,46,-176,-126,896,-65,-60,45
-76,15,91,30,-84,53,-179,-133,924,-65,-55,45
-61,23,83,19,-72,53,-184,-118,922,-65,-55,45
8,64,57,-36,-25,60,-183,-127,892,-65,-54,45
18,93,74,-56,-28,83,-179,-156,868,-65,-50,45
25,70,45,-48,-10,57,-180,-115,853,-65,-50,45
0,59,59,-29,-30,59,-180,-130,843,-65,-50,44
-56,36,92,10,-75,64,-179,-169,827,-64,-50,39
-37,52,89,-8,-63,70,-181,-160,811,-67,-50,36
-8,73,81,-33,-44,77,-183,-159,797,-70,-50,33
-47,39,86,4,-67,62,-188,-154,788,-70,-50,28
-30,37,66,-4,-48,51,-188,-150,781,-74,-49,25
2,49,47,-26,-22,48,-194,-148,772,-76,-46,29
8,44,36,-26,-14,40,-194,-143,766,-75,-45,30
13,37,24,-26,-6,31,-197,-140,756,-70,-46,30
-49,29,78,10,-63,53,-215,-137,748,-63,-44,30
-43,19,63,12,-53,41,-210,-130,739,-59,-46,30
2,20,19,-12,-9,19,-209,-132,730,-52,-41,31
-23,50,73,-13,-48,61,-200,-120,722,-48,-29,37
-9,105,114,-48,-62,109,-200,-115,717,-39,-12,47
3,137,134,-71,-65,135,-174,-97,753,-5,2,59
30,161,131,-96,-51,146,-167,-77,768,11,-5,79
78,169,91,-124,-7,130,-262,-130,742,18,-8,89
87,173,86,-130,0,130,-273,-141,726,17,-15,75
73,162,90,-118,-8,126,-259,-142,702,2,-20,70
30,87,57,-58,-14,72,-239,-133,702,-15,-24,53
-2,62,64,-30,-33,63,-195,-140,660,-47,-33,27
-37,10,47,13,-42,28,-199,-130,651,-58,-44,21
-68,-24,44,46,-56,10,-189,-137,600,-85,-76,16
-38,6,44,15,-41,25,-202,-138,608,-65,-64,18
-46,-31,15,38,-30,-8,-185,-116,610,-84,-83,8
-44,39,83,3,-64,61,-159,-97,581,-68,-60,13
-19,44,63,-13,-41,53,-47,111,757,65,44,32
306,211,-94,-258,200,58,-166,201,1174,580,489,335
1123,420,-704,-771,913,-142,-661,287,1934,1038,942,679
851,139,-712,-495,781,-286,-872,-230,1157,217,315,350
-66,-11,55,38,-60,22,-674,-740,-35,-456,-295,-45
-107,-8,99,57,-103,45,-356,-286,327,-232,-189,-68
-85,-41,44,63,-64,1,-201,-140,470,-143,-142,-66
-68,-4,64,36,-66,30,-172,-133,458,-97,-110,-53
-24,-9,15,16,-19,2,-151,-75,488,-92,-108,-48
-47,-15,32,31,-39,8,-153,-103,444,-88,-109,-45
-35,-10,25,22,-30,8,-138,-65,478,-64,-99,-45
-84,-10,74,47,-79,31,-136,-83,441,-87,-104,-46
-47,10,58,18,-53,34,-127,-59,460,-108,-95,-44
-41,0,41,20,-41,20,-122,-64,435,-110,-98,-46
-78,-25,53,52,-65,13,-118,-52,437,-101,-93,-45
-42,-3,39,23,-40,17,-110,-45,425,-101,-94,-45
-67,-64,3,65,-35,-30,-107,-38,420,-94,-89,-44
-100,-48,52,74,-75,2,-100,-28,427,-93,-90,-64
-43,0,43,21,-43,21,-92,-22,425,-82,-86,-69
-51,-5,45,28,-48,20,-84,-9,434,-72,-74,-60
-72,12,84,30,-78,48,-76,1,432,-59,-66,-57
-73,-9,64,40,-68,28,-68,30,441,-37,-55,-49
-42,21,63,10,-52,41,-61,61,442,-25,-49,-46
-21,27,48,-3,-35,38,-42,92,456,-7,-38,-27
-7,38,45,-16,-26,41,-13,130,482,12,-16,-2
45,80,35,-62,5,57,16,169,489,33,12,17
39,105,66,-72,-14,86,34,194,522,71,44,40
28,136,109,-82,-41,122,38,226,555,100,67,64
69,166,97,-118,-15,131,40,246,567,120,99,80
107,200,93,-154,7,146,23,237,561,128,117,93
106,196,90,-151,8,143,9,229,555,145,122,101
109,188,79,-149,15,133,-15,201,537,154,138,102
102,184,81,-143,10,132,-47,143,470,118,98,91
104,161,57,-133,23,109,-67,65,392,73,43,45
65,118,53,-91,5,85,-103,21,324,47,20,23
1,68,67,-35,-33,67,-113,2,279,28,6,14
-7,26,33,-10,-21,30,-112,-32,245,-2,-1,-25
-28,20,48,4,-38,33,-118,-57,218,-41,-10,-41
-80,-11,69,45,-75,29,-119,-61,208,-58,-18,-39
-119,-57,63,88,-91,3,-120,-60,202,-54,-26,-42
-43,-33,10,38,-26,-11,-112,-60,178,-55,-33,-45
25,22,-3,-24,14,10,-108,-60,147,-55,-35,-45
-13,42,55,-15,-34,48,-102,-60,134,-55,-35,-47
-76,-2,74,39,-75,36,-96,-55,123,-54,-38,-51
-87,-25,62,56,-74,18,-91,-47,112,-49,-41,-50
-29,19,48,4,-39,33,-87,-41,106,-51,-39,-54
-18,14,32,2,-25,22,-81,-35,99,-47,-35,-56
-9,-1,8,5,-9,4,-77,-26,91,-45,-30,-54
-13,40,54,-14,-34,47,-72,-36,84,-45,-26,-51
-32,-9,23,21,-27,7,-68,-47,78,-41,-21,-50
-25,-2,24,13,-25,11,-63,-44,70,-38,-16,-50
9,61,53,-35,-23,57,-57,-43,64,-34,-15,-50
34,52,18,-43,8,35,-49,-40,58,-31,-15,-50
-12,53,66,-21,-40,59,-42,-40,50,-25,-15,-48
-32,32,64,0,-48,47,-73,-44,46,-28,-15,-44
-80,-32,48,56,-64,8,-85,-45,21,-43,-15,-46
-58,-13,45,36,-52,16,-71,-46,-13,-46,-15,-44
0,31,32,-16,-16,31,-69,-49,-22,-49,-15,-46
-31,-22,9,26,-20,-6,-59,-51,-30,-52,-15,-44
-31,-22,9,26,-20,-7,-56,-49,-41,-55,-15,-41
-60,-14,46,37,-53,16,-59,-43,-47,-54,-15,-36
-81,-27,53,54,-67,13,-60,-38,-65,-47,-15,-33
-85,-39,46,62,-65,3,-60,-32,-79,-41,-12,-61
-83,-28,55,55,-68,13,-60,-27,-106,-33,-10,-73
-50,-21,29,35,-39,4,-60,-20,-135,-29,-10,-68
-18,-50,-32,34,7,-41,-57,-25,-139,-19,-10,-71
11,-19,-30,4,20,-24,-54,-35,-142,-35,-10,-69
-28,-30,-2,29,-13,-16,-56,-41,-148,-72,-9,-71
-38,-8,30,23,-35,11,-51,-40,-142,-76,-6,-74
10,-5,-14,-2,12,-9,-50,-39,-151,-75,-3,-75
-13,-20,-7,17,-3,-13,-50,-63,-214,-74,-1,-75
11,-1,-12,-5,12,-7,-44,-65,-235,-69,3,-75
8,-51,-59,21,34,-55,-38,-51,-232,-71,4,-75
-62,-41,21,51,-41,-10,-30,-43,-238,-65,10,-72
-47,-25,23,36,-35,-1,-26,-30,-242,-56,25,-62
-23,-16,8,19,-15,-4,-15,-13,-265,-44,51,-53
-2,40,43,-20,-22,41,-20,-4,-273,-30,55,-42
5,92,87,-49,-41,89,-33,9,-271,5,62,-31
-4,118,122,-57,-64,120,-56,17,-279,46,73,-17
31,145,114,-89,-41,129,-92,-18,-278,48,72,-12
48,141,94,-95,-23,117,-86,-44,-281,33,89,-23
59,94,35,-76,12,64,-75,-34,-307,31,67,-32
61,18,-43,-39,52,-13,-64,-27,-325,15,28,-47
-1,1,2,0,-1,2,-51,-33,-346,6,19,-66
-12,-50,-38,31,13,-44,-36,-11,-359,-20,6,-100
-40,-114,-74,77,17,-94,-25,-30,-406,-59,9,-107
-36,-91,-55,63,10,-73,-18,15,-369,-47,18,-104
-70,-101,-31,86,-20,-65,-7,-6,-418,-43,11,-115
-103,-40,63,71,-83,11,67,75,-337,18,29,-102
-36,10,45,13,-41,27,202,291,-125,232,204,4
534,267,-267,-400,400,0,-83,366,439,874,799,408
1221,337,-884,-779,1052,-273,-576,270,861,898,904,551
468,13,-454,-241,461,-220,-619,-383,-372,-81,110,92
-193,-99,94,146,-143,-2,-358,-517,-1029,-360,-212,-176
-12,-74,-62,43,26,-68,-105,-87,-575,-146,-77,-150
-91,-63,29,77,-60,-17,5,0,-536,-88,-20,-142
-51,-112,-60,82,5,-86,43,58,-514,-36,19,-130
-43,-88,-45,66,1,-66,58,38,-573,-53,2,-127
-67,-62,4,65,-36,-29,51,66,-560,-40,7,-119
-95,-69,26,81,-60,-21,50,91,-563,-43,-1,-111
-121,-100,21,110,-71,-39,45,80,-576,-40,-4,-114
-6,-78,-72,43,33,-75,41,89,-567,-38,-3,-119
38,-19,-56,-9,47,-37,41,82,-603,-36,0,-140
-8,-80,-72,45,32,-75,45,85,-609,-29,5,-161
-35,-54,-20,44,-7,-37,37,78,-641,-29,6,-153
-83,-66,17,74,-49,-25,59,110,-624,-22,13,-149
-100,-109,-9,104,-45,-59,98,119,-623,-22,14,-143
-33,-72,-38,53,3,-55,101,109,-634,-15,19,-137
-31,-79,-48,56,9,-63,106,127,-624,-10,21,-132
-25,-68,-43,47,9,-55,115,155,-623,-1,26,-130
-14,-60,-46,37,16,-53,114,162,-614,3,28,-129
-10,-54,-44,32,17,-49,137,183,-611,13,31,-124
6,-39,-46,17,26,-42,157,224,-604,43,50,-126
13,-28,-41,7,27,-34,161,250,-589,74,86,-106
99,66,-32,-82,65,17,180,294,-565,110,123,-77
97,101,4,-99,46,53,181,349,-554,132,140,-63
63,98,35,-81,14,67,175,351,-538,155,160,-43
118,103,-14,-111,66,44,177,345,-513,179,190,-23
135,112,-23,-123,79,44,168,343,-525,205,222,-16
126,181,55,-154,35,118,136,297,-542,211,218,-11
145,146,1,-146,71,74,117,249,-621,164,179,-5
139,100,-39,-119,89,30,115,212,-701,125,144,-26
74,81,7,-77,33,44,107,165,-750,103,123,-81
12,-3,-15,-5,14,-9,104,122,-815,80,101,-116
-11,2,13,4,-12,8,96,94,-856,54,73,-123
-4,17,21,-6,-13,19,94,81,-907,29,63,-137
-86,-48,38,67,-62,-5,84,77,-938,52,51,-139
-88,-93,-5,90,-41,-49,83,68,-941,43,44,-142
-51,-72,-21,62,-14,-46,73,63,-938,16,27,-155
-49,-26,22,37,-36,-2,62,55,-970,26,32,-155
-30,-59,-29,45,-1,-44,121,52,-985,30,65,-155
-71,-71,0,71,-35,-36,138,49,-963,36,63,-155
-33,-60,-27,47,-3,-43,123,50,-1004,41,52,-154
-40,-76,-37,58,-1,-56,126,73,-1035,45,50,-158
-20,-58,-37,39,9,-47,116,75,-1034,16,38,-160
10,-30,-40,11,25,-35,117,63,-1038,32,40,-164
-57,-58,-1,57,-28,-29,119,62,-1050,75,75,-165
-18,-46,-28,32,6,-37,144,86,-1067,65,83,-169
5,6,1,-6,2,3,155,105,-1064,62,78,-170
-47,-38,8,43,-27,-15,144,93,-1064,58,81,-169
2,-29,-32,14,17,-30,140,87,-1065,51,79,-188
89,19,-70,-54,80,-26,131,79,-1064,52,82,-197
44,-24,-68,-10,56,-46,128,72,-1069,55,85,-194
1,-53,-54,27,28,-54,119,67,-1078,55,85,-196
2,-42,-44,21,23,-43,117,62,-1083,57,87,-194
-17,-52,-35,35,8,-43,106,60,-1076,61,91,-195
-26,-44,-18,35,-4,-31,112,55,-1065,60,90,-190
-35,-47,-12,41,-11,-29,155,52,-1090,56,80,-190
-27,-35,-8,31,-9,-21,163,49,-1126,49,45,-190
-43,-20,23,32,-33,1,163,43,-1102,43,45,-190
-33,-85,-52,59,10,-69,168,40,-1107,35,85,-191
-25,-101,-76,63,26,-88,169,33,-1156,30,85,-190
-21,-89,-69,55,24,-79,170,32,-1165,24,80,-207
-29,-93,-64,61,17,-78,171,22,-1171,38,79,-214
-60,-89,-28,75,-16,-58,168,33,-1173,61,74,-205
-51,-89,-38,71,-7,-63,179,63,-1193,59,76,-199
-66,-94,-27,80,-20,-60,211,58,-1211,61,80,-192
-24,-55,-31,40,3,-43,217,50,-1209,59,79,-186
-18,-35,-17,27,0,-26,213,43,-1214,61,80,-179
-46,-66,-20,56,-13,-42,217,37,-1214,57,79,-173
-33,-52,-19,43,-7,-36,212,27,-1224,55,80,-165
-29,-79,-50,54,10,-64,223,67,-1186,56,81,-160
-16,-49,-32,33,8,-40,252,121,-1181,53,77,-152
-45,13,58,16,-52,36,255,111,-1227,87,105,-144
-3,61,64,-29,-34,62,264,119,-1229,90,117,-119
31,116,85,-74,-27,100,256,103,-1243,99,121,-92
57,119,62,-88,-3,90,207,67,-1243,137,139,-88
68,103,35,-85,16,68,179,33,-1247,113,126,-92
34,60,26,-47,4,43,179,32,-1257,101,126,-91
48,25,-23,-37,36,1,227,77,-1249,89,122,-96
-51,-60,-9,55,-20,-34,276,70,-1273,61,105,-95
-58,-107,-49,82,-4,-78,297,81,-1251,42,84,-96
-20,-83,-63,52,22,-73,298,63,-1296,8,55,-107
-15,-81,-66,49,26,-73,301,79,-1260,36,68,-97
-23,-73,-50,48,14,-62,303,60,-1282,-12,28,-120
-79,-64,15,71,-47,-24,361,138,-1239,48,67,-92
-31,-12,19,22,-25,3,508,325,-1045,262,233,-8
418,271,-147,-344,282,62,267,367,-554,936,855,416
1052,377,-675,-714,863,-149,-150,325,12,1293,1229,734
462,15,-447,-238,454,-216,-170,-220,-1051,201,339,204
-218,-150,68,184,-143,-41,0,-415,-1855,-364,-195,-186
-4,-100,-96,52,46,-97,217,-50,-1434,-106,-13,-138
-48,-118,-70,84,11,-94,324,18,-1403,-87,21,-124
-47,-116,-69,82,11,-92,334,94,-1339,-25,55,-103
-20,-110,-89,66,35,-99,371,106,-1337,-24,43,-106
-118,-96,22,107,-70,-37,384,105,-1348,-3,57,-94
-132,-102,30,117,-81,-36,386,113,-1326,3,57,-89
-92,-114,-22,104,-35,-68,384,122,-1345,7,70,-87
-73,-118,-45,96,-14,-81,385,174,-1324,22,100,-89
-85,-135,-50,110,-18,-92,385,155,-1338,24,90,-91
-1,-76,-75,39,37,-75,384,158,-1320,37,92,-89
11,-54,-66,22,39,-60,386,151,-1324,27,87,-90
-49,-97,-48,74,0,-72,384,146,-1316,27,84,-90
-53,-91,-37,72,-8,-64,386,146,-1311,21,88,-83
-42,-102,-59,72,9,-80,383,144,-1309,20,89,-62
-87,-98,-11,93,-37,-55,388,164,-1299,12,92,-53
-76,-46,30,61,-52,-8,390,186,-1291,36,88,-49
1,-39,-40,19,21,-39,396,196,-1283,70,94,-44
-49,-96,-47,73,0,-71,433,222,-1268,75,129,-40
-59,-58,1,59,-30,-28,445,246,-1242,81,143,-36
9,-35,-44,13,27,-39,444,257,-1203,91,144,-27
35,13,-22,-24,29,-4,450,288,-1165,123,164,-9
82,90,7,-86,37,48,453,323,-1123,166,207,35
121,72,-49,-96,85,11,454,357,-1092,217,251,73
111,80,-31,-95,70,25,438,368,-1066,244,275,92
109,92,-17,-100,63,37,418,353,-1058,255,298,108
127,146,19,-137,54,82,397,320,-1100,253,301,98
86,106,20,-96,33,62,377,262,-1137,210,267,85
69,77,8,-73,30,42,363,205,-1206,170,220,75
59,90,31,-75,14,60,345,158,-1285,134,192,40
13,-20,-34,4,24,-27,333,128,-1332,105,174,12
-26,-56,-31,41,3,-43,334,112,-1352,78,145,-1
-58,-41,17,49,-37,-12,335,103,-1372,61,128,-15
-34,-45,-12,40,-11,-28,335,105,-1406,55,123,-20
-39,-71,-32,55,-3,-51,335,105,-1405,42,115,-20
-48,-78,-29,63,-9,-53,335,105,-1408,39,109,-20
-44,-73,-29,58,-7,-51,331,105,-1412,16,103,-21
-73,-76,-3,75,-35,-39,329,104,-1414,26,97,-18
-77,-74,3,76,-39,-35,330,109,-1415,27,94,-33
-59,-75,-15,67,-22,-45,325,110,-1413,-15,89,-59
-62,-66,-4,64,-28,-35,325,110,-1415,-5,88,-60
-101,-97,4,99,-52,-47,324,114,-1413,6,81,-55
-90,-104,-14,97,-37,-59,319,116,-1415,21,81,-53
-76,-85,-9,80,-33,-47,320,113,-1413,55,115,-48
-92,-91,0,91,-46,-45,320,109,-1411,65,128,-45
-47,-90,-43,69,-2,-66,320,106,-1408,65,126,-49
-56,-96,-40,76,-8,-68,320,102,-1408,65,132,-50
-73,-96,-23,85,-25,-60,316,99,-1400,65,134,-50
-40,-101,-61,71,10,-81,315,92,-1416,65,135,-55
-54,-98,-44,76,-5,-71,315,108,-1432,63,136,-56
-58,-89,-31,74,-13,-60,310,120,-1388,59,140,-54
-48,-88,-40,68,-4,-64,310,110,-1388,57,140,-50
-44,-71,-27,58,-8,-49,309,105,-1429,54,137,-50
-43,-86,-43,65,1,-65,304,97,-1435,51,135,-50
-40,-40,0,40,-19,-20,301,91,-1430,49,135,-50
-41,-17,24,29,-32,4,297,90,-1428,46,132,-50
-76,-111,-34,94,-21,-72,293,90,-1424,41,129,-46
-57,-101,-44,79,-6,-72,290,90,-1425,39,131,-41
-12,-44,-32,28,10,-38,286,90,-1428,34,134,-36
-28,-81,-53,54,13,-67,284,90,-1432,31,135,-33
-27,-93,-66,60,20,-79,285,90,-1432,28,136,-27
-2,-62,-61,32,30,-61,280,90,-1438,23,140,-25
-31,-87,-56,60,13,-71,279,90,-1437,44,139,-25
-37,-89,-52,63,8,-70,281,90,-1450,57,142,-25
-35,-73,-37,54,1,-55,278,89,-1461,46,145,-25
-75,-93,-18,84,-28,-55,295,91,-1425,45,144,-25
-63,-108,-45,85,-8,-76,307,91,-1442,39,145,-25
-41,-106,-65,74,12,-86,302,105,-1464,36,145,-20
-44,-74,-30,59,-7,-52,300,124,-1451,37,145,-12
-61,-62,-1,61,-29,-31,296,127,-1438,54,151,-3
-36,-29,7,33,-22,-11,296,122,-1412,82,157,20
-22,17,39,2,-30,28,284,129,-1399,87,159,41
-11,61,72,-25,-42,66,262,113,-1386,83,153,43
34,102,68,-68,-18,85,223,64,-1411,84,154,53
48,70,22,-59,13,46,196,48,-1455,77,147,52
111,62,-49,-86,80,7,208,47,-1447,82,147,42
73,-8,-81,-32,77,-44,239,67,-1440,68,144,26
-19,-79,-60,49,21,-69,262,75,-1451,42,135,13
-31,-110,-78,71,24,-94,268,89,-1424,16,128,4
-87,-141,-54,114,-16,-97,261,69,-1460,-3,106,-13
-26,-96,-70,61,22,-83,268,101,-1423,28,112,-13
-74,-118,-44,97,-15,-81,262,67,-1464,3,83,-13
-112,-70,43,91,-78,-13,326,127,-1390,49,105,16
-26,-12,14,19,-20,1,447,325,-1163,262,292,98
462,239,-223,-350,342,8,132,382,-595,942,903,508
1139,321,-819,-730,979,-249,-323,336,-52,1120,1110,710
454,-76,-531,-189,492,-303,-358,-263,-1222,46,258,205
-215,-185,30,200,-122,-78,-107,-438,-1965,-366,-143,-69
-96,-145,-49,121,-24,-96,160,-16,-1516,-90,-4,-32
-129,-137,-8,133,-60,-72,241,62,-1508,-67,22,-37
-41,-118,-77,80,18,-97,268,107,-1430,-42,74,-18
-88,-105,-17,97,-35,-61,280,89,-1413,-50,59,-23
-97,-124,-27,111,-35,-75,275,107,-1409,-35,65,-10
-54,-156,-103,105,25,-129,285,137,-1393,-31,59,-8
-54,-108,-55,81,1,-81,282,123,-1409,-28,58,-5
-70,-139,-69,105,0,-104,287,136,-1386,-22,84,-5
-107,-150,-43,129,-32,-96,284,125,-1402,-24,90,-6
-79,-128,-48,104,-15,-88,285,135,-1384,-16,90,-4
-86,-123,-37,105,-25,-80,285,123,-1384,-17,86,-6
-86,-113,-27,99,-29,-70,285,136,-1372,-12,85,-4
-47,-111,-65,79,9,-88,285,155,-1365,-11,85,0
-33,-104,-71,68,19,-87,288,140,-1358,-7,85,7
-64,-99,-34,82,-15,-66,293,160,-1346,-3,85,10
-57,-94,-37,76,-10,-65,295,178,-1336,-1,85,18
-67,-85,-18,76,-24,-52,299,192,-1317,11,83,21
-68,-75,-7,72,-31,-41,304,227,-1291,37,110,32
-56,-60,-4,57,-26,-31,306,248,-1259,55,134,56
-33,-25,8,29,-20,-8,305,281,-1224,62,150,67
25,-12,-36,-6,31,-24,305,311,-1183,91,179,89
54,28,-26,-41,40,1,305,339,-1146,122,194,112
76,69,-8,-72,42,30,305,363,-1107,155,228,144
87,86,-1,-86,44,42,306,381,-1073,190,262,179
110,120,10,-116,50,65,298,379,-1060,187,259,178
103,123,21,-113,41,72,277,340,-1079,182,261,171
71,100,28,-86,21,64,240,289,-1123,178,257,168
35,54,19,-44,7,36,207,229,-1175,146,218,162
29,43,14,-36,7,28,187,186,-1244,105,177,138
31,-6,-37,-12,34,-21,159,144,-1300,73,153,114
-71,-67,4,69,-37,-32,140,112,-1333,42,121,108
-94,-63,31,78,-62,-16,135,96,-1360,20,101,100
-65,-41,24,52,-44,-8,130,80,-1382,13,96,93
-68,-47,22,57,-45,-12,125,74,-1385,6,91,85
-28,-76,-49,52,11,-62,118,76,-1379,-1,88,81
-29,-69,-40,50,6,-55,116,72,-1378,-18,82,85
-35,-61,-26,48,-4,-43,122,70,-1373,-31,81,87
-50,-57,-8,54,-21,-32,128,70,-1375,-30,85,91
-114,-96,18,105,-66,-39,134,66,-1380,-30,87,93
-123,-110,13,116,-68,-48,139,64,-1383,-30,90,94
-116,-97,19,106,-67,-38,142,65,-1386,-30,93,115
-107,-101,5,104,-56,-48,146,64,-1391,-29,95,128
-98,-93,5,95,-51,-44,149,66,-1394,-23,98,128
-92,-95,-3,94,-44,-48,154,64,-1391,-16,100,133
-74,-88,-13,81,-30,-50,154,80,-1388,-9,100,136
-106,-82,24,93,-64,-29,149,96,-1385,-2,104,139
-112,-77,35,95,-73,-20,143,91,-1382,5,105,140
-94,-70,24,82,-59,-23,139,88,-1379,15,103,140
-95,-74,21,85,-58,-26,135,85,-1379,23,100,140
-95,-80,15,87,-55,-32,130,80,-1379,18,97,140
-83,-84,-1,84,-41,-42,133,78,-1379,11,95,138
-79,-98,-19,89,-30,-59,136,70,-1379,4,91,161
-102,-112,-9,107,-46,-60,134,64,-1379,-3,89,172
-86,-99,-13,93,-37,-56,136,58,-1379,-9,93,168
-85,-85,0,86,-43,-42,134,50,-1375,-14,96,175
-50,-86,-36,68,-7,-60,136,47,-1369,-16,94,173
-15,-43,-28,29,7,-35,133,35,-1364,-19,97,178
-80,-46,34,63,-57,-6,139,51,-1358,-22,92,158
-51,-82,-31,67,-10,-57,156,75,-1353,-24,103,165
-59,-47,11,53,-35,-18,152,65,-1348,-27,119,197
-108,-57,51,82,-79,-3,148,59,-1344,-29,107,188
-22,-72,-50,47,14,-60,145,52,-1345,-33,97,183
22,-50,-72,15,47,-61,140,43,-1342,-35,88,179
15,-46,-60,16,38,-53,142,42,-1339,-39,84,171
-14,-63,-49,39,18,-56,147,45,-1340,-41,85,173
-43,-83,-39,63,-2,-61,143,45,-1336,-37,81,174
-38,-72,-34,55,-2,-52,150,45,-1331,-29,80,177
-75,-63,12,69,-43,-25,149,45,-1328,-26,80,180
-78,-53,26,65,-52,-13,150,45,-1325,-19,87,179
-28,-33,-5,30,-11,-19,158,51,-1319,-14,95,191
14,52,37,-33,-12,44,158,51,-1322,-8,106,218
55,115,61,-85,-3,88,211,67,-1322,34,112,232
21,87,66,-54,-22,76,178,46,-1327,54,103,235
60,131,71,-96,-6,101,112,19,-1321,43,103,255
43,113,70,-78,-14,91,137,11,-1327,27,94,261
-16,34,49,-10,-33,41,132,-2,-1323,21,94,250
21,-20,-41,-1,31,-30,168,-4,-1322,3,82,240
-113,-114,-1,113,-56,-57,212,-3,-1329,-9,62,217
-81,-140,-59,111,-11,-100,211,17,-1319,-44,50,175
-28,-118,-90,73,31,-104,201,-17,-1367,-76,38,160
-62,-125,-63,94,1,-93,196,8,-1313,-48,45,161
-70,-88,-17,79,-26,-52,196,-31,-1360,-74,15,144
-50,-21,29,36,-39,4,281,85,-1273,-4,58,167
25,-1,-26,-12,25,-14,361,256,-1048,234,266,287
589,282,-307,-435,448,-13,9,322,-373,891,854,695
1172,268,-905,-720,1038,-318,-402,252,22,871,904,782
353,-116,-468,-118,411,-292,-416,-457,-1309,-185,58,316
-191,-121,70,156,-131,-25,-149,-511,-1818,-386,-184,132
-27,-103,-76,65,25,-89,134,-53,-1347,-142,-29,148
-121,-110,10,116,-65,-50,196,-29,-1356,-120,-19,127
-62,-94,-32,78,-15,-63,204,21,-1281,-75,19,142
-72,-105,-33,89,-19,-69,207,3,-1311,-98,2,158
-73,-90,-17,81,-27,-53,207,18,-1287,-74,17,166
-78,-98,-20,88,-28,-59,213,23,-1281,-79,13,153
-114,-100,14,107,-64,-42,208,23,-1283,-69,16,154
-142,-143,0,142,-71,-71,211,37,-1262,-69,22,147
-122,-134,-12,128,-55,-73,209,33,-1271,-72,23,143
-63,-82,-19,73,-22,-50,210,47,-1250,-68,29,140
-91,-99,-8,95,-41,-53,210,47,-1255,-72,30,140
-66,-100,-34,83,-15,-67,210,51,-1242,-69,37,138
-53,-84,-31,69,-11,-57,209,49,-1237,-67,29,134
-96,-116,-21,106,-37,-68,211,52,-1228,-76,22,136
-100,-117,-17,109,-41,-67,206,43,-1220,-94,12,137
-92,-100,-8,97,-42,-54,232,83,-1213,-65,7,142
-98,-95,2,96,-50,-46,259,112,-1187,-44,32,138
-68,-76,-8,72,-29,-42,253,121,-1157,-30,55,144
-40,-49,-8,45,-16,-28,258,151,-1137,2,73,162
-43,-18,25,30,-34,3,260,195,-1096,17,95,179
-25,-8,17,17,-21,4,260,242,-1036,41,113,200
4,18,14,-11,-5,16,256,270,-995,72,140,226
10,56,46,-33,-18,51,245,294,-983,102,181,249
17,85,68,-52,-26,77,238,285,-970,115,191,250
42,106,64,-75,-11,85,227,274,-970,139,181,244
41,106,64,-74,-12,85,185,255,-957,148,174,242
30,81,51,-56,-11,66,146,216,-959,120,166,237
38,26,-12,-32,25,7,128,159,-1043,94,158,209
5,76,71,-41,-33,73,99,90,-1101,58,110,184
-36,74,110,-20,-73,92,81,56,-1127,32,89,180
-21,-47,-26,34,2,-36,76,25,-1174,13,67,172
-44,-90,-46,67,1,-68,71,-2,-1206,-22,22,166
-68,-97,-29,83,-19,-63,68,-5,-1176,-44,46,159
-117,-88,29,103,-73,-30,62,-5,-1161,-46,62,153
-140,-91,49,115,-95,-20,58,-9,-1183,-49,51,148
-72,-82,-10,77,-30,-46,55,-10,-1182,-52,47,142
-54,-87,-33,71,-10,-60,52,-10,-1188,-55,37,137
-36,-75,-38,56,1,-56,50,-16,-1193,-54,31,131
-40,-38,1,39,-20,-18,47,-26,-1192,-50,23,126
-85,-62,24,73,-54,-19,44,-28,-1186,-50,20,121
-97,-71,27,84,-62,-22,42,-25,-1180,-50,20,120
-100,-57,43,78,-72,-7,39,-25,-1176,-50,20,120
-86,-49,37,67,-61,-6,36,-21,-1169,-50,20,120
-97,-78,19,87,-57,-30,33,-20,-1165,-46,20,120
-138,-130,8,134,-72,-61,30,-20,-1159,-39,20,119
-116,-136,-20,126,-48,-77,29,-20,-1154,-32,20,115
-60,-53,7,56,-33,-23,23,-20,-1150,-26,35,115
-72,-75,-3,73,-34,-39,15,-20,-1146,-19,42,115
-82,-119,-37,101,-22,-78,9,-20,-1141,-13,39,115
-44,-49,-5,47,-19,-27,2,-20,-1137,-10,37,115
-54,-60,-5,57,-24,-32,-4,-22,-1133,-6,34,112
-78,-88,-10,83,-34,-48,-2,-26,-1129,-5,36,109
-74,-92,-19,84,-27,-55,1,-24,-1126,2,39,106
-102,-78,23,90,-62,-28,0,-29,-1122,-16,40,103
-99,-85,14,92,-57,-35,0,-30,-1119,-50,40,100
-67,-125,-58,96,-4,-91,-1,-30,-1115,-48,40,101
-79,-126,-47,102,-15,-86,2,-35,-1114,-40,40,105
-143,-122,21,132,-82,-50,5,-33,-1115,-35,38,105
-174,-115,59,144,-116,-28,7,-46,-1114,-27,33,105
-102,-105,-3,103,-49,-53,10,-57,-1115,-21,30,105
-86,-99,-13,92,-36,-56,13,-49,-1112,-23,27,105
-103,-90,13,96,-58,-39,16,-48,-1107,-26,22,105
-54,-78,-24,66,-15,-51,11,-43,-1102,-24,20,105
-26,-61,-35,43,5,-48,4,-40,-1098,-26,25,105
-83,-97,-14,91,-34,-56,-3,-38,-1093,-24,30,105
-97,-110,-12,104,-42,-61,-9,-33,-1088,-27,34,105
-70,-60,10,65,-40,-25,-16,-60,-1086,-30,39,103
-109,-99,10,104,-59,-44,-19,-76,-1082,-30,43,100
-35,-65,-30,51,-2,-47,-10,-68,-1080,-30,49,100
-38,-53,-15,46,-11,-34,-4,-65,-1076,-30,49,99
-79,-99,-20,89,-29,-59,6,-61,-1076,-30,52,101
17,-29,-46,6,31,-37,11,-54,-1067,-23,48,98
-13,-8,5,10,-9,-1,30,-41,-1042,-2,53,113
-39,-2,37,20,-38,17,57,-32,-1029,37,74,149
-46,40,86,3,-66,62,19,-34,-1040,54,72,151
26,98,72,-62,-23,85,-31,-56,-1035,43,68,147
124,101,-24,-112,74,38,-39,-89,-1045,28,61,166
84,59,-26,-71,55,16,-32,-84,-1044,23,60,169
56,4,-52,-30,54,-24,-18,-83,-1040,-9,23,126
-11,-59,-49,35,19,-54,-12,-91,-1042,-27,0,95
-72,-116,-45,94,-13,-80,3,-75,-1018,-60,-9,80
-101,-119,-18,110,-41,-68,7,-97,-1043,-59,-22,71
-48,-108,-60,79,6,-84,24,-55,-995,-21,-3,70
-96,-106,-10,101,-43,-58,31,-91,-1045,-40,-17,49
-108,-54,54,81,-81,-1,119,28,-943,37,35,73
-15,-15,0,15,-7,-7,230,227,-707,248,221,192
596,281,-314,-438,454,-16,-118,304,-67,891,800,609
1198,258,-940,-727,1068,-341,-570,173,256,836,829,704
335,-103,-438,-116,387,-270,-588,-524,-1052,-187,-15,200
-252,-136,116,194,-184,-10,-323,-549,-1518,-357,-234,14
-105,-156,-51,131,-27,-103,-57,-139,-1056,-115,-60,49
-161,-159,1,160,-80,-79,29,-126,-1076,-93,-62,41
-74,-149,-74,112,0,-111,51,-59,-996,-60,-66,59
-91,-162,-71,126,-9,-116,59,-65,-1012,-70,-75,49
-85,-150,-65,117,-9,-107,60,-44,-988,-51,-66,62
-78,-155,-77,116,0,-115,70,-33,-977,-58,-73,58
-80,-144,-64,112,-8,-104,69,-29,-979,-49,-69,58
-65,-137,-72,101,3,-104,76,-11,-957,-46,-67,49
-99,-139,-40,119,-29,-89,78,-7,-964,-47,-59,40
-92,-92,0,92,-45,-46,80,13,-941,-49,-52,66
-120,-101,19,111,-69,-41,80,34,-931,-51,-47,83
-80,-111,-31,96,-24,-71,79,45,-912,-49,-38,79
-53,-73,-20,63,-16,-46,82,23,-909,-51,-34,80
-100,-138,-38,119,-30,-87,77,49,-898,-50,-26,80
-85,-119,-34,102,-25,-76,95,86,-893,-47,-19,80
-88,-89,-1,89,-44,-45,126,95,-878,-38,-14,84
-86,-98,-12,92,-36,-55,124,97,-846,-7,2,87
-89,-80,9,85,-49,-35,129,123,-802,30,31,92
-63,-96,-33,79,-15,-64,131,162,-763,43,46,96
-32,-87,-55,60,11,-71,132,193,-740,69,50,105
-87,-52,36,69,-61,-8,157,220,-697,91,71,116
-22,8,30,7,-26,19,162,257,-651,110,103,142
87,71,-16,-79,51,28,153,287,-603,156,149,185
65,98,34,-82,15,66,144,270,-573,175,188,195
78,96,18,-87,30,56,139,265,-551,167,183,193
82,86,4,-84,39,45,116,244,-565,161,189,188
34,97,63,-66,-14,80,66,194,-632,155,189,182
16,64,48,-40,-17,56,43,141,-657,142,145,166
-7,29,36,-11,-22,32,28,80,-725,94,93,125
-58,-21,37,39,-48,8,15,44,-810,73,60,103
-84,-76,8,80,-46,-34,14,10,-815,52,55,88
-60,-37,23,48,-41,-6,9,-22,-808,-9,51,74
-61,-73,-12,67,-24,-42,6,-19,-810,-32,44,71
-51,-88,-37,70,-7,-62,3,-13,-799,-29,39,64
-70,-48,21,59,-45,-13,-2,-51,-819,-28,33,60
-92,-57,34,74,-63,-12,-5,-51,-832,-23,20,54
-104,-95,9,99,-56,-43,-2,-22,-791,-22,2,48
-107,-109,-2,108,-52,-55,1,-37,-799,-19,-2,46
-99,-35,65,67,-82,15,0,-47,-809,-14,3,43
-106,-37,69,72,-87,16,0,-46,-788,0,6,62
-94,-57,38,75,-66,-9,0,-44,-781,-1,9,78
-44,-25,19,35,-31,-3,1,-40,-769,-30,14,71
-65,-76,-11,71,-26,-44,25,-38,-760,-36,16,70
-129,-106,23,117,-75,-41,20,-35,-750,-26,21,66
-46,-59,-13,52,-16,-36,-17,-33,-742,-22,24,64
-14,-52,-38,33,12,-45,-21,-30,-736,-14,28,62
-78,-44,34,61,-56,-5,-17,-27,-728,-8,31,57
-74,-52,22,63,-47,-15,-15,-24,-722,-5,35,55
-48,-59,-10,53,-19,-34,-11,-20,-715,-2,49,50
-67,-30,37,48,-52,4,-9,-20,-711,1,47,47
-56,-73,-17,65,-19,-45,-14,-26,-706,4,32,43
-69,-106,-36,88,-16,-71,-15,-31,-700,5,23,40
-102,-80,22,91,-62,-29,-16,-38,-699,0,25,40
-76,-81,-6,78,-35,-43,-14,-41,-689,-2,32,40
-51,-46,5,49,-28,-20,-18,-54,-700,-6,37,40
-54,-33,21,44,-38,-6,-45,-66,-726,-9,44,40
-114,-119,-5,116,-54,-62,-50,-64,-721,-13,43,43
-142,-135,7,139,-74,-64,-39,-65,-718,-23,36,46
-128,-101,27,114,-78,-37,-35,-65,-714,-29,29,49
-97,-74,23,85,-59,-26,-27,-65,-710,-41,22,51
-71,-99,-28,85,-21,-63,-21,-68,-708,-15,16,55
-152,-144,8,148,-80,-67,-15,-71,-700,17,10,54
-173,-144,29,158,-101,-57,-7,-74,-696,7,17,49
-80,-115,-35,97,-22,-74,1,-76,-689,3,26,44
-95,-92,3,93,-49,-44,6,-81,-686,-13,34,39
-87,-74,13,81,-50,-31,5,-78,-678,-20,43,36
-94,-95,-1,95,-46,-48,7,-75,-670,-31,45,27
-91,-128,-37,110,-27,-82,12,-72,-661,-32,46,44
8,-29,-37,11,22,-33,7,-71,-655,4,44,61
-12,-43,-31,28,10,-37,15,-65,-641,5,47,61
-26,-23,3,25,-14,-10,2,-61,-606,15,41,58
-30,53,82,-12,-57,67,28,-59,-585,46,65,72
-19,18,37,0,-28,27,24,-59,-594,70,94,108
0,105,106,-53,-54,105,-86,-81,-586,79,76,111
31,110,79,-71,-25,94,-92,-99,-591,58,57,104
64,18,-46,-41,55,-14,-60,-93,-591,61,52,104
-1,-16,-15,9,7,-15,-40,-86,-583,46,39,64
-64,-79,-15,71,-25,-46,3,-93,-592,15,26,31
-159,-139,20,149,-89,-59,19,-75,-562,-17,15,21
-181,-137,44,159,-112,-46,22,-92,-594,-50,-14,2
-41,-127,-86,84,22,-106,17,-48,-542,-2,-14,11
-105,-126,-20,116,-42,-73,28,-63,-594,-48,-48,-3
-166,-99,67,132,-116,-16,102,30,-506,13,-7,-3
-59,-23,37,41,-48,7,205,220,-263,267,202,112
484,261,-223,-372,354,19,-80,274,319,945,832,558
1099,320,-779,-709,939,-230,-514,190,777,1072,1008,748
350,-38,-388,-156,369,-213,-524,-430,-457,-45,85,187
-252,-170,81,211,-166,-45,-297,-513,-1055,-383,-269,-104
-44,-121,-77,83,16,-99,-78,-118,-579,-121,-89,-29
-142,-124,18,133,-80,-53,3,-110,-607,-119,-88,-37
-125,-116,10,120,-68,-53,30,-47,-521,-60,-54,-24
-123,-123,0,123,-61,-61,50,-52,-507,-54,-46,-35
-157,-138,19,148,-88,-59,41,-43,-488,-33,-32,-33
-107,-145,-38,126,-34,-91,48,-28,-476,-66,-67,-36
-86,-111,-25,98,-30,-68,43,-32,-486,-45,-40,-33
-59,-91,-32,75,-14,-61,46,-12,-462,-30,-26,-28
-70,-134,-64,103,-3,-99,47,-15,-474,-41,-32,-32
-66,-123,-57,95,-4,-90,54,2,-455,-28,-21,-29
-68,-74,-6,71,-31,-40,60,3,-458,-34,-25,-31
-85,-92,-7,89,-39,-50,63,15,-447,-27,-17,-29
-60,-82,-22,71,-18,-52,98,20,-443,-29,-18,-26
-68,-75,-7,72,-30,-41,113,30,-418,-22,-5,-24
-90,-98,-8,94,-41,-53,108,36,-391,-22,-24,-25
-95,-101,-6,98,-44,-54,115,44,-373,-17,-26,-19
-67,-72,-5,70,-31,-38,115,56,-352,-16,-15,-22
-51,-20,30,35,-40,5,115,70,-323,-13,-6,-16
-38,-41,-3,40,-17,-23,123,129,-278,20,32,3
15,-55,-70,20,42,-62,130,162,-231,40,43,19
19,2,-17,-10,17,-7,130,172,-178,71,75,46
5,46,41,-26,-18,43,130,214,-138,119,120,71
15,27,12,-21,2,19,130,250,-111,161,165,114
88,106,18,-97,35,62,130,240,-79,172,189,130
143,164,21,-154,61,92,130,235,-52,159,174,114
102,110,8,-106,47,59,119,215,-62,153,174,108
34,97,63,-66,-14,80,95,138,-120,142,158,98
40,85,45,-63,-3,65,72,89,-172,132,131,83
37,75,38,-56,0,56,59,50,-201,91,100,53
-26,-5,21,15,-24,8,53,13,-263,51,67,26
-52,-23,29,37,-40,3,46,-21,-310,37,49,10
-119,-43,76,80,-97,16,39,-59,-306,19,36,-4
-115,-54,61,84,-88,4,33,-61,-316,8,33,-13
-57,-12,45,34,-51,16,27,-58,-316,-4,18,-26
-77,-43,34,60,-55,-5,24,-70,-324,-16,-5,-39
-64,-33,30,48,-47,-1,20,-82,-334,-23,-6,-41
-92,-82,10,87,-51,-36,17,-77,-304,-33,-5,-40
-123,-80,43,101,-83,-18,12,-75,-291,-38,-5,-38
-75,-65,10,70,-42,-27,10,-72,-287,-35,-5,-34
-98,-93,5,95,-51,-44,16,-69,-278,-35,-6,-36
-117,-76,40,96,-78,-18,21,-70,-273,-35,-1,-31
-60,-74,-14,67,-22,-44,27,-70,-266,-35,0,-25
-92,-57,35,74,-63,-10,31,-70,-260,-36,0,-20
-106,-52,54,79,-80,1,39,-70,-250,-31,5,-15
-105,-60,45,83,-75,-7,37,-71,-240,-25,5,-8
-103,-62,42,82,-72,-10,34,-68,-230,-20,5,-6
-41,-14,27,27,-34,6,27,-62,-223,-15,5,-14
-74,-37,36,55,-55,0,26,-45,-217,-8,5,-21
-32,-39,-8,36,-12,-23,56,-57,-213,-6,5,-28
-4,1,4,1,-4,3,53,-82,-206,-14,5,-36
-100,-58,42,79,-71,-8,32,-81,-201,-22,5,-43
-147,-92,56,120,-101,-18,26,-85,-196,-30,1,-42
-158,-98,60,128,-109,-19,23,-88,-193,-38,-5,-39
-127,-75,52,100,-89,-11,18,-90,-192,-43,-10,-40
-85,-65,20,75,-52,-22,17,-90,-182,-46,-16,-40
-72,-62,10,67,-41,-26,8,-90,-195,-49,-21,-40
-109,-48,62,78,-85,7,-15,-90,-163,-52,-27,-42
-106,-54,53,80,-79,-1,-28,-89,-142,-55,-30,-44
-62,-12,50,37,-56,19,-54,-91,-169,-54,-30,-48
-60,2,62,29,-61,32,-74,-90,-163,-49,-30,-49
-63,-23,40,42,-51,9,-79,-97,-167,-51,-30,-55
-104,-53,51,78,-77,-1,-67,-96,-171,-47,-30,-53
-119,-76,43,97,-81,-16,-84,-115,-169,-45,-27,-59
-95,-56,39,75,-67,-8,-122,-141,-167,-46,-24,-75
-92,-56,36,74,-64,-10,-119,-131,-154,-41,-22,-69
-79,-49,29,64,-54,-10,-120,-126,-146,-35,-18,-64
-82,-56,26,69,-54,-15,-120,-118,-133,-30,-15,-58
-91,-81,10,86,-50,-36,-120,-113,-113,-24,-13,-52
-99,-52,48,76,-74,-2,-117,-106,-95,-18,10,-48
-45,22,68,12,-57,45,-108,-100,-96,-14,30,-37
5,86,81,-45,-38,83,-96,-93,-93,9,39,-28
-11,118,129,-54,-70,124,-115,-83,-97,27,43,-17
34,130,96,-82,-31,113,-186,-122,-94,31,36,-10
47,118,70,-83,-12,94,-214,-151,-94,19,25,-9
22,88,66,-55,-22,77,-181,-144,-81,19,19,-16
9,22,13,-16,-2,17,-151,-143,-58,2,9,-39
-29,-15,15,22,-22,0,-142,-151,-72,-36,-15,-64
-80,-75,5,77,-42,-35,-125,-136,-39,-53,-54,-95
-147,-127,21,136,-84,-53,-119,-157,-70,-71,-67,-94
-115,-101,14,107,-64,-43,-106,-132,-20,-51,-48,-82
-132,-114,18,123,-74,-48,-99,-155,-65,-88,-68,-90
-113,-70,43,92,-78,-13,-30,-58,-19,-37,-20,-69
-31,25,55,3,-43,40,71,107,195,162,110,-13
442,304,-138,-373,290,83,-238,153,772,841,716,399
1112,324,-789,-718,950,-232,-669,178,1383,1065,975,627
464,-61,-525,-201,494,-293,-713,-450,195,-21,109,129
-249,-122,127,185,-188,3,-481,-652,-569,-437,-287,-163
-112,-94,17,103,-64,-38,-208,-201,-77,-186,-143,-124
-122,-93,29,107,-75,-32,-112,-163,-75,-178,-141,-125
-104,-90,14,96,-58,-38,-101,-116,7,-117,-104,-115
-53,-94,-41,73,-6,-67,-96,-112,8,-130,-112,-124
-39,-49,-10,44,-14,-30,-97,-113,10,-113,-96,-118
-126,-104,22,115,-74,-41,-89,-93,39,-109,-99,-121
-150,-102,48,126,-99,-27,-91,-102,23,-105,-96,-122
-107,-79,28,93,-67,-26,-85,-82,49,-92,-90,-125
-114,-83,31,98,-72,-26,-85,-88,35,-93,-92,-129
-91,-69,21,80,-56,-24,-85,-72,62,-79,-84,-130
-80,-68,11,74,-45,-29,-80,-72,63,-79,-87,-135
-41,-75,-34,58,-3,-54,-80,-61,74,-70,-83,-134
-26,-63,-37,45,5,-50,-79,-57,91,-67,-81,-131
-55,-54,2,54,-28,-26,-72,-49,102,-61,-80,-126
-116,-79,38,97,-77,-20,-67,-41,131,-57,-79,-123
-124,-70,54,97,-89,-8,-61,-29,187,-53,-70,-119
-87,-41,46,64,-66,2,-57,-20,192,-48,-60,-116
-95,-47,47,71,-71,0,-47,14,198,-39,-51,-112
-77,-36,41,56,-59,3,-28,68,247,-18,-33,-98
-20,21,41,-1,-31,31,-24,83,278,7,-8,-78
8,47,39,-27,-16,43,-25,133,340,43,25,-55
30,72,41,-51,-6,56,-24,166,387,65,43,-28
72,141,69,-107,2,105,-26,173,417,87,64,-9
57,134,76,-96,-10,105,-23,190,465,122,98,6
82,149,67,-116,7,108,-37,177,456,128,109,12
110,175,65,-143,22,120,-53,161,453,124,109,3
70,132,61,-101,4,96,-80,114,434,103,84,-8
73,124,51,-99,10,88,-133,46,363,57,55,-20
34,110,76,-73,-21,93,-168,-23,325,24,22,-48
1,103,102,-52,-51,102,-178,-84,285,-23,-28,-95
-46,52,98,-3,-72,74,-187,-109,253,-49,-52,-112
-82,4,86,39,-84,45,-188,-114,249,-50,-52,-108
-57,21,78,18,-68,50,-196,-115,239,-79,-60,-111
-59,9,68,25,-64,38,-211,-115,235,-88,-71,-110
-49,5,54,22,-52,29,-210,-115,224,-87,-70,-108
-87,-2,85,44,-85,41,-209,-114,223,-93,-70,-124
-99,-10,88,54,-93,39,-205,-116,259,-93,-67,-132
-90,-14,76,52,-83,31,-204,-119,267,-97,-64,-125
-63,-25,38,44,-51,6,-208,-122,263,-99,-66,-125
-72,-26,46,49,-59,10,-210,-125,266,-102,-70,-120
-139,-41,99,90,-119,29,-211,-127,264,-106,-77,-120
-111,-31,79,71,-95,24,-208,-131,266,-107,-81,-125
-123,-45,79,84,-101,17,-212,-127,268,-113,-90,-132
-102,-44,58,73,-80,7,-206,-125,273,-102,-87,-136
-55,29,85,13,-70,57,-223,-125,271,-107,-93,-144
-62,40,102,11,-82,71,-252,-121,296,-127,-112,-159
-50,12,62,19,-56,37,-237,-119,324,-112,-98,-154
-114,-40,75,77,-94,17,-229,-121,321,-107,-91,-148
-119,-45,74,81,-96,14,-223,-124,328,-116,-99,-143
-96,-19,77,57,-86,29,-216,-127,327,-124,-100,-136
-88,-7,81,48,-85,37,-219,-129,336,-130,-107,-138
-51,24,76,13,-64,50,-221,-133,356,-131,-110,-140
-80,-18,62,49,-71,22,-225,-135,354,-135,-110,-140
-34,14,48,10,-41,31,-227,-135,356,-137,-110,-140
-3,47,50,-22,-26,48,-231,-134,352,-141,-110,-140
-62,-4,58,33,-60,27,-227,-136,365,-137,-110,-140
-55,4,58,25,-57,31,-224,-133,390,-131,-110,-144
-55,-5,50,29,-52,23,-225,-142,393,-126,-112,-145
-79,-7,72,43,-75,32,-221,-156,396,-121,-115,-145
-74,-6,68,39,-71,31,-220,-151,401,-114,-118,-145
-54,-19,35,36,-44,8,-220,-148,403,-111,-121,-145
-18,32,50,-7,-34,41,-215,-145,406,-115,-125,-145
-45,42,87,1,-67,64,-214,-140,404,-132,-124,-145
-64,5,70,29,-67,37,-210,-138,405,-145,-121,-145
-57,26,83,15,-70,54,-207,-134,405,-138,-118,-145
-61,24,85,18,-73,55,-205,-135,402,-134,-116,-145
-19,-13,6,16,-12,-3,-201,-131,418,-128,-112,-145
-39,14,53,12,-46,34,-197,-129,421,-122,-111,-136
-7,89,96,-42,-52,92,-186,-131,447,-116,-106,-123
53,110,57,-81,-2,83,-187,-111,489,-101,-91,-113
-4,94,98,-45,-51,96,-169,-94,493,-89,-79,-107
15,131,116,-73,-51,123,-193,-105,487,-70,-60,-106
63,164,101,-114,-20,132,-257,-127,492,-71,-66,-100
62,149,87,-106,-13,118,-254,-152,488,-111,-101,-99
66,128,62,-97,2,95,-254,-148,489,-102,-89,-92
27,66,39,-47,-6,52,-226,-139,493,-102,-87,-111
-22,32,54,-5,-39,43,-206,-147,478,-138,-138,-147
-29,-8,21,18,-25,6,-203,-125,496,-162,-172,-168
-104,-57,48,80,-76,-4,-199,-145,474,-176,-174,-177
-73,-75,-1,74,-36,-38,-200,-101,533,-159,-158,-179
-71,-88,-17,80,-27,-52,-185,-120,485,-195,-177,-189
-87,-2,85,44,-86,42,-168,-49,539,-130,-150,-163
-15,54,70,-20,-43,62,-85,141,749,60,0,-89
486,347,-139,-417,312,104,-344,238,1363,703,588,299
1167,363,-805,-765,986,-221,-792,219,1906,861,785,486
444,-59,-503,-193,474,-281,-871,-461,717,-187,-35,26
-193,-76,117,134,-155,21,-625,-642,26,-526,-391,-225
-53,-74,-21,64,-16,-47,-340,-209,470,-259,-260,-212
-165,-81,84,122,-124,1,-262,-175,499,-249,-246,-227
-77,-27,51,52,-64,12,-231,-112,592,-210,-206,-218
-78,-63,15,70,-46,-24,-208,-111,579,-219,-220,-229
-76,-71,5,74,-41,-33,-210,-109,581,-202,-204,-223
-40,-64,-23,52,-8,-43,-198,-91,604,-202,-202,-230
-85,-31,54,58,-69,12,-200,-98,586,-199,-197,-231
-98,-58,40,78,-69,-9,-191,-78,620,-190,-189,-234
-64,-59,5,62,-34,-27,-189,-85,650,-194,-192,-239
-50,-40,11,45,-30,-15,-184,-69,672,-193,-188,-239
-112,-41,71,76,-92,15,-185,-67,663,-197,-187,-243
-82,-39,44,60,-63,3,-183,-59,670,-194,-184,-245
-50,-57,-8,54,-21,-32,-179,-50,678,-195,-185,-245
-92,-58,34,75,-63,-11,-181,-35,681,-195,-179,-245
-90,-40,51,65,-70,5,-175,2,697,-190,-176,-245
-91,-35,56,63,-73,10,-165,31,742,-182,-173,-245
-98,-23,75,61,-86,25,-155,39,748,-174,-168,-238
-54,-22,32,38,-43,5,-144,51,761,-161,-167,-228
-70,-12,58,40,-64,23,-122,76,803,-147,-154,-221
-14,70,84,-29,-49,77,-106,122,850,-128,-126,-208
63,130,67,-97,-2,98,-102,159,888,-97,-94,-187
58,121,62,-90,-3,91,-99,190,940,-64,-66,-167
79,128,50,-104,14,89,-95,213,992,-37,-50,-151
69,164,95,-117,-13,129,-91,203,1006,-23,-32,-150
78,190,112,-134,-17,150,-90,199,1040,-11,-24,-150
105,168,63,-137,20,116,-109,200,1043,19,-35,-150
107,161,54,-134,26,108,-142,149,996,11,-46,-151
101,176,76,-138,12,126,-176,76,943,-33,-54,-148
39,106,67,-73,-14,86,-208,31,890,-84,-92,-177
-16,55,71,-20,-43,63,-224,-20,853,-115,-118,-203
21,90,69,-55,-24,79,-224,-71,826,-150,-154,-223
36,50,14,-44,11,32,-226,-92,811,-204,-211,-247
-22,-5,18,13,-20,6,-230,-89,815,-202,-210,-244
-32,11,43,10,-37,27,-230,-90,818,-193,-205,-245
-41,33,74,3,-58,53,-230,-90,822,-191,-205,-245
-40,3,43,18,-42,23,-230,-90,826,-182,-199,-244
-17,-22,-5,20,-6,-13,-230,-88,830,-181,-201,-248
-24,67,91,-21,-58,79,-226,-84,829,-198,-199,-253
-51,58,109,-4,-80,83,-219,-86,829,-208,-200,-260
-69,-20,48,44,-58,14,-215,-81,852,-200,-200,-262
-67,-13,54,39,-60,20,-209,-80,858,-200,-200,-277
-91,-7,84,49,-87,38,-203,-79,847,-195,-200,-286
-78,13,91,33,-85,52,-200,-77,843,-195,-203,-280
-72,21,92,25,-82,56,-190,-73,834,-200,-208,-277
-59,26,84,16,-71,55,-201,-83,830,-200,-211,-274
-50,49,100,0,-75,74,-222,-96,850,-200,-214,-268
-50,20,70,15,-61,45,-218,-78,892,-199,-219,-273
-63,-25,38,44,-50,7,-215,-73,921,-201,-219,-290
-103,-12,91,57,-97,40,-213,-76,924,-197,-214,-287
-56,27,83,14,-69,55,-209,-74,919,-195,-215,-282
-18,60,78,-21,-48,69,-210,-79,916,-195,-215,-281
-35,53,88,-9,-62,70,-210,-80,912,-191,-215,-272
-47,28,74,9,-61,51,-210,-80,908,-190,-215,-287
-50,25,76,12,-63,50,-210,-80,918,-189,-211,-301
-67,7,74,30,-71,41,-210,-81,925,-186,-210,-300
-46,1,48,22,-47,24,-210,-79,940,-179,-205,-299
-46,0,46,23,-46,23,-210,-81,974,-179,-205,-302
-97,-10,87,53,-91,38,-209,-78,984,-167,-197,-297
-87,19,106,34,-97,62,-210,-87,983,-179,-208,-303
-45,-33,12,39,-29,-10,-209,-109,990,-220,-244,-337
-26,-52,-27,39,1,-39,-211,-105,992,-218,-242,-341
-30,16,46,7,-38,30,-207,-97,996,-213,-235,-334
-26,9,35,8,-31,21,-204,-92,1000,-212,-234,-335
-59,-41,18,49,-38,-11,-202,-84,1004,-205,-227,-329
-79,-70,9,74,-44,-30,-196,-79,1010,-204,-224,-329
-68,-23,45,45,-56,11,-220,-74,1010,-198,-217,-322
-71,-14,57,42,-64,22,-215,-71,1035,-195,-212,-316
-43,10,53,16,-48,32,-200,-67,1071,-190,-206,-309
3,101,98,-53,-48,100,-209,-64,1072,-186,-201,-302
61,137,76,-99,-8,107,-186,-58,1077,-184,-195,-295
44,124,81,-84,-19,102,-216,-66,1083,-186,-195,-292
53,124,71,-89,-9,98,-270,-73,1102,-179,-189,-289
86,148,62,-117,12,105,-265,-100,1069,-181,-190,-289
35,104,69,-70,-18,86,-250,-96,1065,-178,-184,-283
1,37,37,-19,-18,37,-218,-71,1114,-170,-184,-288
-34,31,66,1,-50,48,-205,-77,1103,-196,-226,-326
-16,-49,-32,33,8,-40,-195,-55,1092,-262,-276,-358
-60,-36,23,48,-41,-6,-193,-73,1059,-262,-272,-354
-21,4,26,8,-23,15,-183,-37,1114,-252,-257,-347
-51,-81,-30,66,-11,-55,-171,-67,1065,-272,-272,-355
-137,-21,115,79,-126,47,-94,31,1163,-163,-223,-349
14,103,89,-59,-38,96,22,217,1418,73,-37,-246
665,354,-311,-509,488,22,-317,343,2110,714,560,190
1193,293,-900,-743,1047,-303,-757,198,2394,613,557,273
334,-12,-346,-161,340,-179,-759,-543,1028,-403,-290,-252
-193,-45,149,119,-171,52,-485,-534,624,-554,-491,-431
18,-51,-70,17,44,-60,-215,-111,1109,-335,-361,-377
-73,-11,62,42,-67,25,-151,-109,1107,-300,-335,-394
-48,-23,25,35,-36,1,-128,-39,1192,-271,-307,-403
-73,-42,32,57,-52,-5,-116,-53,1153,-289,-330,-411
-74,-46,27,60,-50,-9,-116,-36,1178,-264,-313,-395
-70,-56,14,63,-42,-21,-103,-26,1178,-273,-325,-400
-49,-35,14,42,-31,-11,-102,-25,1186,-259,-317,-387
-64,-72,-8,68,-28,-39,-92,-4,1207,-260,-316,-396
-96,-54,43,75,-69,-5,-89,-7,1217,-261,-312,-416
-4,-32,-27,18,12,-29,-80,5,1261,-255,-307,-414
-26,-5,21,15,-23,8,-74,1,1259,-256,-306,-415
-54,-26,29,40,-41,1,-67,8,1275,-254,-299,-415
-36,-98,-61,67,13,-79,-61,15,1293,-250,-298,-415
-30,-62,-32,47,1,-47,-56,24,1311,-245,-287,-413
-38,-27,11,32,-24,-8,-50,36,1322,-241,-280,-409
-53,-6,47,29,-50,20,-44,49,1307,-237,-271,-407
-36,21,57,7,-47,39,-38,87,1349,-228,-260,-404
-53,2,55,25,-54,28,-13,115,1392,-201,-249,-401
-55,-2,53,28,-54,25,14,122,1403,-178,-236,-399
5,71,66,-39,-30,68,22,164,1461,-170,-229,-389
62,127,65,-94,-2,95,57,217,1507,-149,-199,-367
88,127,39,-108,24,83,74,245,1574,-111,-165,-345
80,117,37,-99,21,77,58,246,1603,-97,-158,-324
94,157,63,-126,16,110,52,273,1631,-102,-157,-323
96,192,96,-145,0,144,33,292,1651,-98,-153,-327
113,153,39,-133,37,95,13,237,1602,-101,-150,-331
142,167,24,-155,58,95,-7,176,1576,-99,-151,-338
28,114,85,-71,-29,99,-21,127,1540,-99,-152,-335
8,94,86,-51,-40,90,-27,49,1500,-120,-198,-379
46,118,73,-82,-14,95,-52,26,1452,-155,-248,-410
4,69,65,-37,-30,67,-73,27,1424,-216,-271,-426
29,69,40,-49,-5,54,-69,-10,1418,-245,-293,-434
-20,61,82,-21,-51,71,-77,-22,1408,-236,-292,-415
-38,53,91,-8,-65,72,-81,-21,1400,-251,-301,-449
34,57,23,-46,5,40,-47,-33,1391,-245,-308,-478
