I,II,III,aVR,aVL,aVF,V1,V2,V3,V4,V5,V6
-5,-45,-40,25,18,-42,-5,-40,-65,-55,-90,-45
-5,-45,-40,25,18,-42,-5,-40,-65,-55,-90,-45
-5,-45,-40,25,18,-42,-5,-40,-62,-55,-90,-45
-2,-42,-40,22,19,-41,-5,-40,-59,-51,-86,-41
2,-39,-40,19,21,-40,-5,-40,-56,-50,-85,-40
-3,-42,-39,22,18,-40,-4,-40,-54,-50,-85,-40
-19,-55,-36,37,9,-45,-1,-35,-50,-45,-80,-40
-22,-55,-33,39,6,-44,0,-35,-50,-45,-80,-40
-20,-50,-30,35,5,-40,0,-34,-49,-44,-80,-40
-21,-49,-28,35,4,-38,0,-30,-45,-40,-80,-40
-22,-45,-23,34,1,-34,0,-30,-45,-40,-80,-40
-8,-44,-36,26,14,-40,0,-30,-45,-40,-77,-37
8,-40,-47,16,28,-43,0,-30,-45,-40,-74,-35
1,-40,-41,20,21,-40,0,-30,-45,-40,-75,-35
0,-40,-41,20,20,-41,0,-30,-45,-40,-75,-35
-4,-40,-36,22,16,-37,0,-30,-46,-41,-76,-36
-6,-41,-36,24,15,-38,1,-29,-44,-39,-75,-35
-4,-32,-29,18,13,-30,7,-23,-39,-34,-68,-28
4,-13,-16,4,10,-14,15,-13,-26,-22,-57,-20
31,26,-5,-29,18,11,20,-6,-19,-13,-47,-15
39,49,10,-44,15,29,28,4,-4,0,-38,-6
47,51,5,-49,21,28,31,12,23,32,-16,7
64,47,-17,-56,40,15,6,21,34,49,-9,22
89,35,-54,-62,71,-9,-27,31,42,65,12,39
84,17,-67,-50,75,-24,-23,7,20,44,5,29
63,-3,-66,-30,64,-34,-16,-6,5,28,-13,26
31,-30,-61,0,46,-45,-17,-31,-30,-13,-41,4
-1,-63,-62,32,30,-62,-4,-25,-42,-35,-76,-31
0,-58,-58,29,30,-58,-12,-38,-52,-48,-74,-31
-14,-75,-61,45,24,-68,11,-23,-49,-70,-99,-55
9,-51,-60,21,35,-55,-1,-34,-31,-29,-72,-32
-28,-85,-57,57,15,-71,39,-12,-54,-93,-126,-65
-9,-111,-103,60,48,-107,96,109,51,1,-107,-90
70,-33,-104,-18,87,-68,109,185,180,115,-21,-24
490,304,-185,-397,337,59,23,625,982,1219,931,576
901,766,-135,-833,518,315,-404,176,938,1727,1709,1258
412,514,102,-463,155,308,-552,-888,-596,-23,554,775
21,106,86,-64,-33,96,-305,-667,-718,-534,-160,156
16,13,-3,-15,9,5,-109,-187,-177,-108,-95,16
-39,-63,-25,51,-7,-43,1,-53,-108,-132,-175,-72
-26,-66,-40,46,7,-52,21,2,-29,-54,-115,-66
-59,-100,-41,80,-9,-70,45,-7,-57,-106,-156,-89
-52,-106,-54,79,1,-79,47,17,-28,-66,-131,-86
-50,-103,-54,77,2,-78,57,10,-38,-82,-143,-91
-52,-107,-56,80,3,-82,66,26,-28,-73,-141,-91
-48,-103,-55,76,4,-79,65,27,-23,-63,-136,-88
-52,-107,-55,80,2,-81,71,34,-21,-67,-145,-92
-42,-98,-56,70,7,-76,71,42,-7,-50,-136,-88
-44,-94,-51,69,4,-72,76,45,-5,-54,-144,-90
-38,-88,-50,63,6,-69,74,56,8,-42,-131,-82
-33,-83,-49,58,8,-66,75,64,13,-40,-127,-76
-32,-78,-46,55,7,-62,75,78,31,-27,-115,-69
-28,-72,-44,51,8,-58,75,90,47,-17,-101,-63
-20,-66,-47,43,14,-56,75,99,57,2,-89,-55
-8,-61,-53,35,23,-57,75,118,78,22,-75,-47
1,-55,-56,27,29,-55,80,129,100,34,-64,-39
8,-51,-59,21,34,-55,80,148,115,50,-52,-31
19,-43,-61,12,40,-52,80,182,143,74,-33,-24
37,-32,-70,-2,54,-51,80,207,181,105,-12,-11
57,-22,-80,-17,69,-51,80,236,212,133,8,4
70,-13,-83,-28,77,-47,78,262,238,152,23,16
81,-7,-88,-36,85,-47,72,280,263,166,37,29
86,-2,-89,-42,88,-45,67,291,278,173,45,40
86,1,-85,-43,86,-42,64,288,271,166,41,46
89,6,-82,-47,85,-38,58,282,259,155,36,49
90,10,-80,-50,85,-35,55,269,251,145,34,47
81,4,-76,-42,78,-36,43,240,230,134,29,39
73,-1,-75,-36,74,-38,23,191,189,119,26,36
65,-6,-71,-29,68,-38,17,135,140,98,23,29
47,-12,-60,-17,54,-36,13,85,91,73,12,24
33,-18,-50,-7,42,-34,8,39,50,43,-6,19
17,-22,-40,3,29,-31,4,3,17,16,-31,5
5,-30,-34,13,20,-32,0,-6,-6,2,-46,-8
1,-34,-36,17,19,-35,0,-7,-13,-4,-54,-23
-4,-37,-32,21,14,-34,0,-11,-23,-8,-66,-35
-10,-40,-30,25,10,-35,0,-13,-29,-12,-65,-35
-12,-42,-30,27,9,-36,0,-15,-25,-18,-61,-35
-12,-45,-33,29,11,-39,0,-18,-25,-20,-60,-35
-9,-45,-35,28,14,-40,3,-20,-25,-20,-55,-35
-10,-45,-35,28,13,-40,5,-20,-25,-20,-55,-34
-10,-45,-35,28,13,-40,5,-25,-25,-20,-60,-30
-11,-45,-35,29,12,-40,5,-25,-25,-20,-60,-31
-13,-50,-36,32,12,-43,5,-26,-25,-20,-64,-27
-10,-50,-40,30,15,-45,5,-31,-25,-24,-65,-25
-10,-50,-40,30,15,-45,5,-29,-24,-31,-67,-25
-10,-50,-40,30,15,-45,5,-33,-38,-36,-75,-29
-9,-50,-40,30,15,-45,5,-36,-47,-43,-80,-36
-13,-52,-40,33,14,-46,5,-35,-51,-49,-86,-42
-12,-55,-44,34,17,-49,5,-39,-63,-54,-92,-49
-13,-58,-45,36,16,-51,5,-40,-66,-59,-98,-47
-16,-61,-45,39,15,-53,5,-43,-71,-62,-100,-44
-14,-64,-50,39,18,-56,5,-45,-75,-67,-100,-45
-17,-67,-50,42,17,-58,5,-46,-75,-70,-100,-45
-19,-70,-51,44,16,-60,5,-50,-75,-70,-100,-45
-15,-70,-55,43,20,-62,5,-50,-75,-70,-100,-46
-15,-70,-55,43,20,-62,0,-54,-75,-70,-104,-54
-15,-70,-55,43,20,-62,0,-55,-75,-70,-105,-62
-15,-70,-55,43,20,-62,0,-58,-75,-74,-105,-64
-15,-70,-55,43,20,-62,0,-61,-75,-75,-105,-60
-18,-70,-52,44,17,-60,0,-60,-75,-77,-105,-60
-18,-65,-47,42,15,-56,0,-60,-75,-81,-102,-58
-21,-65,-45,43,13,-55,0,-60,-75,-78,-100,-54
-23,-64,-40,44,9,-52,0,-59,-75,-75,-100,-55
-23,-60,-37,42,7,-48,0,-55,-75,-75,-100,-55
-27,-60,-33,44,3,-46,0,-55,-75,-75,-100,-55
-30,-60,-30,45,0,-45,1,-53,-75,-75,-100,-55
-30,-60,-30,45,0,-45,4,-49,-75,-75,-100,-55
-30,-60,-30,45,0,-45,5,-51,-72,-71,-100,-55
-30,-60,-30,45,0,-45,5,-46,-70,-69,-100,-55
-30,-60,-29,45,0,-45,5,-45,-70,-70,-100,-55
-26,-60,-35,43,5,-47,5,-44,-66,-70,-100,-55
-20,-65,-44,43,12,-54,2,-41,-64,-70,-97,-55
-20,-65,-45,43,13,-55,0,-39,-66,-69,-95,-55
-20,-65,-45,43,13,-55,0,-41,-69,-65,-95,-55
-20,-65,-45,43,13,-55,0,-45,-71,-65,-95,-51
-20,-65,-45,43,13,-55,0,-45,-67,-65,-95,-50
-18,-63,-45,41,14,-54,1,-49,-65,-65,-95,-50
-15,-59,-45,37,15,-52,4,-50,-65,-65,-99,-50
-15,-60,-45,38,15,-52,5,-50,-65,-61,-100,-50
-15,-60,-45,38,15,-52,5,-55,-65,-60,-100,-50
-15,-60,-45,38,15,-52,5,-55,-66,-60,-100,-50
-14,-59,-45,37,16,-52,5,-53,-69,-60,-100,-50
-12,-55,-44,34,16,-49,2,-50,-70,-60,-97,-50
-15,-55,-40,35,13,-47,0,-48,-70,-59,-94,-50
-15,-55,-40,35,13,-47,0,-45,-70,-55,-95,-50
-15,-55,-40,35,13,-47,0,-42,-70,-55,-91,-46
-15,-55,-40,35,13,-47,0,-39,-68,-53,-90,-45
-17,-57,-41,37,12,-49,0,-37,-64,-49,-90,-45
-25,-61,-36,43,6,-48,5,-34,-66,-51,-86,-40
-28,-60,-31,44,2,-45,5,-31,-65,-46,-82,-41
-33,-61,-28,47,-3,-44,7,-28,-64,-37,-79,-39
-37,-59,-22,49,-8,-40,10,-25,-65,-29,-74,-31
-15,-33,-19,24,2,-26,11,-23,-53,-21,-72,-24
7,14,6,-10,0,10,11,-16,-29,-13,-65,-17
22,36,14,-29,3,25,30,-3,-8,-3,-50,-10
35,32,-3,-33,19,15,33,13,14,18,-27,5
39,23,-16,-31,27,3,-4,21,27,36,-21,13
73,18,-55,-45,63,-18,-18,16,40,54,-5,35
89,11,-78,-49,83,-33,-13,-4,20,30,-4,34
71,-7,-78,-31,75,-43,-9,-7,1,14,-10,6
42,-28,-70,-7,56,-48,-11,-33,-35,-13,-29,-9
14,-53,-67,20,41,-60,0,-35,-52,-35,-70,-36
9,-50,-59,20,35,-54,-8,-48,-48,-35,-71,-36
-23,-77,-54,50,16,-66,10,-46,-57,-80,-104,-58
-9,-67,-58,38,25,-63,5,-39,-17,-32,-69,-45
-33,-81,-48,58,8,-64,16,-44,-58,-96,-116,-73
-23,-103,-80,63,29,-91,94,88,31,-22,-108,-99
16,-50,-66,17,41,-58,109,143,111,41,-64,-64
416,228,-188,-321,301,20,51,602,857,966,701,417
982,695,-286,-838,634,204,-340,388,1141,1764,1627,1154
574,532,-42,-553,308,244,-593,-807,-374,214,707,836
72,130,58,-101,6,94,-366,-767,-758,-543,-113,204
15,17,2,-16,6,10,-131,-210,-188,-118,-62,39
-61,-56,5,59,-33,-25,-5,-77,-124,-134,-134,-53
-53,-62,-9,57,-22,-35,27,-6,-34,-55,-90,-62
-84,-94,-10,89,-36,-52,46,-16,-61,-94,-148,-102
-77,-97,-20,87,-28,-59,51,9,-40,-64,-134,-101
-76,-100,-24,88,-26,-62,50,6,-42,-63,-129,-98
-75,-107,-33,91,-21,-70,58,19,-40,-67,-132,-103
-60,-98,-38,79,-11,-68,56,24,-30,-59,-113,-96
-68,-102,-34,86,-17,-67,62,26,-33,-67,-123,-103
-63,-99,-36,81,-13,-67,62,33,-14,-49,-115,-94
-67,-101,-34,84,-16,-67,67,36,-14,-54,-118,-91
-64,-100,-36,83,-14,-67,69,45,2,-40,-105,-84
-58,-97,-39,78,-9,-68,72,45,12,-41,-102,-79
-48,-88,-40,68,-4,-64,75,66,28,-24,-94,-74
-40,-79,-40,60,0,-59,74,79,35,-12,-85,-69
-29,-71,-42,50,7,-56,70,83,51,3,-75,-63
-17,-62,-46,40,15,-54,70,102,72,20,-65,-55
-10,-54,-44,33,18,-49,68,118,97,36,-53,-50
0,-46,-45,23,23,-45,65,136,120,57,-33,-42
9,-36,-45,14,27,-40,65,162,139,73,-14,-37
23,-22,-45,0,35,-33,65,186,170,97,-3,-28
48,-8,-55,-20,52,-31,65,210,197,125,18,-7
61,0,-61,-31,61,-31,65,240,229,150,45,5
63,4,-59,-33,60,-27,65,270,259,168,52,13
69,6,-63,-37,65,-28,65,283,270,167,48,22
82,11,-71,-46,76,-30,63,279,263,163,59,32
82,13,-68,-48,75,-27,53,273,254,159,73,46
97,22,-74,-59,85,-26,41,263,245,154,67,53
113,32,-81,-72,97,-24,30,236,236,150,58,46
94,28,-66,-61,80,-19,20,181,208,139,50,38
77,26,-52,-51,64,-13,10,123,161,118,43,30
61,22,-38,-41,49,-8,-1,80,113,92,33,22
49,20,-28,-34,39,-4,-5,41,63,54,15,16
42,18,-24,-29,33,-3,-8,9,23,23,-1,4
28,9,-19,-18,23,-5,-10,-17,3,16,-17,-4
15,3,-13,-9,14,-5,-13,-32,-5,9,-36,-18
3,-5,-7,1,5,-6,-16,-35,-8,3,-51,-31
-9,-13,-4,12,-2,-9,-11,-35,-12,-1,-52,-30
-12,-18,-6,16,-3,-11,-10,-35,-16,-8,-50,-30
-12,-16,-4,15,-4,-10,-10,-35,-19,-12,-50,-31
-6,-13,-7,10,1,-10,-10,-35,-23,-18,-50,-29
9,-11,-20,1,14,-15,-10,-35,-25,-20,-50,-32
10,-7,-17,-1,13,-12,-10,-36,-25,-20,-51,-35
6,-5,-11,-1,9,-7,-10,-35,-25,-24,-55,-36
3,-5,-8,1,6,-6,-10,-35,-25,-25,-55,-39
-4,-5,-1,5,-1,-3,-10,-35,-25,-25,-55,-40
-4,-5,-2,4,0,-3,-10,-35,-33,-30,-55,-43
0,-5,-4,3,2,-5,-10,-51,-40,-35,-55,-47
1,-5,-6,2,4,-6,-6,-55,-40,-38,-59,-50
-12,-5,7,8,-9,1,-5,-61,-52,-44,-66,-53
-18,0,17,9,-17,8,-4,-71,-64,-43,-72,-57
-14,0,14,7,-14,7,-7,-72,-68,-49,-79,-60
-15,0,15,7,-15,7,-17,-75,-67,-66,-80,-60
-11,0,10,5,-10,5,-15,-78,-62,-65,-82,-62
-9,0,10,5,-10,5,-15,-80,-59,-65,-85,-66
-12,-3,9,7,-10,3,-15,-76,-56,-66,-85,-65
-13,-9,4,10,-8,-2,-15,-74,-50,-64,-85,-62
-15,-14,1,14,-8,-6,-15,-75,-54,-68,-85,-59
-18,-20,-2,19,-7,-11,-11,-75,-70,-70,-85,-56
-13,-20,-7,17,-3,-13,-10,-75,-70,-70,-85,-53
-11,-21,-10,16,0,-15,-10,-75,-70,-70,-85,-50
-12,-19,-7,16,-3,-12,-10,-75,-70,-70,-85,-51
-23,-24,-1,24,-11,-12,-10,-75,-70,-69,-85,-56
-38,-36,2,36,-19,-17,-11,-75,-70,-65,-84,-59
-43,-35,8,39,-25,-13,-18,-75,-70,-65,-87,-57
-43,-34,9,38,-26,-12,-24,-75,-75,-65,-95,-54
-29,-30,0,30,-15,-15,-22,-71,-75,-65,-95,-55
-25,-30,-5,28,-10,-17,-19,-70,-75,-65,-95,-55
-23,-28,-5,26,-9,-16,-16,-69,-75,-65,-95,-54
-19,-24,-5,22,-7,-15,-14,-66,-74,-65,-95,-57
-21,-26,-5,24,-7,-15,-9,-63,-78,-65,-93,-61
-16,-21,-5,19,-5,-13,-13,-70,-80,-65,-89,-60
-15,-20,-5,18,-5,-12,-22,-81,-80,-65,-90,-59
-15,-20,-5,18,-5,-12,-19,-78,-80,-65,-86,-55
-23,-28,-5,26,-9,-16,-16,-75,-80,-70,-84,-54
-20,-33,-13,26,-3,-23,-14,-72,-79,-70,-86,-58
-13,-29,-17,22,2,-23,-10,-70,-76,-71,-89,-60
-19,-30,-12,25,-3,-21,-11,-68,-73,-75,-91,-60
-16,-26,-10,21,-3,-18,-15,-65,-70,-75,-87,-59
-18,-24,-6,22,-5,-15,-14,-65,-67,-73,-85,-56
-21,-26,-5,24,-8,-15,-18,-65,-65,-69,-82,-54
-21,-29,-8,25,-6,-19,-20,-65,-62,-70,-79,-56
-19,-30,-11,25,-4,-20,-20,-65,-60,-66,-75,-54
-17,-31,-14,24,-1,-22,-23,-70,-56,-65,-75,-54
-19,-35,-17,27,0,-26,-26,-70,-55,-65,-76,-59
-16,-35,-20,25,3,-27,-29,-72,-50,-60,-70,-58
-13,-33,-20,23,4,-26,-32,-75,-51,-54,-66,-52
-13,-23,-10,19,-2,-16,-34,-75,-51,-47,-59,-48
-11,-11,-1,11,-5,-6,-35,-72,-44,-43,-54,-43
-9,4,13,2,-11,8,-17,-53,-35,-31,-49,-36
8,39,31,-24,-12,35,-1,-38,-19,-15,-35,-23
32,57,25,-45,3,41,9,-21,6,11,-23,-17
54,70,15,-62,19,42,12,-18,29,36,-1,6
75,80,5,-78,35,42,-18,-10,39,52,17,32
73,66,-7,-69,40,29,-40,-4,44,69,23,34
64,39,-25,-51,44,7,-33,-18,26,30,4,16
66,28,-38,-47,52,-5,-36,-25,-3,21,8,15
38,7,-31,-22,34,-12,-31,-52,-43,-15,-36,-12
19,-11,-30,-4,25,-21,-27,-44,-39,-24,-62,-47
5,-13,-18,5,12,-16,-35,-63,-67,-53,-70,-54
-13,-35,-22,24,5,-28,-13,-27,-45,-45,-80,-67
-16,-19,-3,18,-6,-11,-30,-52,-61,-30,-59,-53
-32,-68,-36,50,2,-51,26,-10,-39,-63,-106,-83
-6,-52,-47,29,21,-49,75,75,77,42,-73,-91
69,33,-36,-51,52,-2,71,217,280,240,87,19
588,446,-142,-517,365,152,-95,611,1115,1507,1269,789
808,867,59,-838,374,463,-471,-103,622,1479,1682,1323
223,491,267,-357,-22,379,-458,-938,-777,-340,275,604
-16,129,145,-56,-81,137,-234,-557,-587,-461,-186,65
-10,54,64,-22,-37,59,-93,-185,-157,-116,-115,-24
-39,-26,13,32,-26,-7,-4,-46,-79,-125,-172,-84
-33,-42,-9,38,-12,-25,7,-14,-45,-65,-114,-79
-63,-70,-7,67,-28,-38,25,-13,-61,-112,-156,-107
-47,-65,-18,56,-14,-41,22,1,-27,-63,-117,-99
-52,-69,-17,60,-17,-43,32,-8,-41,-89,-137,-120
-39,-64,-25,52,-6,-44,37,8,-17,-64,-121,-112
-37,-65,-28,51,-4,-46,38,2,-19,-67,-123,-110
-35,-66,-31,50,-2,-48,36,13,-7,-61,-122,-109
-34,-64,-30,49,-2,-46,34,17,0,-52,-113,-103
-35,-65,-30,50,-2,-47,36,24,7,-52,-118,-105
-26,-57,-30,42,2,-43,34,31,18,-41,-108,-94
-23,-53,-30,38,3,-41,35,38,21,-38,-102,-90
-17,-47,-30,32,7,-39,38,54,34,-26,-89,-82
-11,-41,-30,26,9,-35,40,68,45,-19,-81,-76
-6,-36,-30,21,12,-33,40,76,69,4,-72,-70
-1,-31,-30,16,15,-30,40,96,79,17,-67,-64
6,-24,-30,9,18,-27,40,114,93,34,-55,-59
12,-18,-30,3,21,-23,39,122,126,58,-32,-53
22,-11,-32,-5,27,-21,35,151,153,76,-13,-46
35,-4,-39,-15,38,-21,35,178,182,114,7,-28
47,1,-45,-24,46,-21,33,194,206,138,28,-8
59,9,-50,-34,54,-20,29,223,236,154,47,4
65,17,-48,-41,56,-15,31,241,260,171,59,19
69,25,-44,-47,57,-9,25,241,266,170,57,32
78,33,-46,-55,62,-6,17,235,256,161,55,40
77,36,-41,-56,59,-2,9,233,243,148,55,45
73,34,-40,-54,56,-2,1,221,233,138,55,39
79,39,-40,-59,59,0,-6,176,209,125,55,34
77,45,-32,-61,54,6,-11,130,171,111,54,28
62,37,-24,-49,43,6,-14,90,123,94,39,23
46,31,-15,-38,30,7,-17,51,73,60,22,16
32,24,-7,-28,19,8,-22,16,33,24,4,1
20,17,-3,-18,12,6,-25,-22,12,8,-18,-11
15,15,0,-15,7,7,-22,-41,-7,-6,-35,-27
12,15,3,-14,4,9,-16,-40,-24,-29,-46,-43
3,11,8,-7,-3,10,-11,-37,-25,-38,-46,-45
0,10,9,-5,-4,9,-8,-34,-25,-33,-45,-45
-13,10,23,1,-18,16,-2,-31,-24,-27,-45,-45
-28,5,33,11,-31,19,-1,-30,-20,-24,-40,-45
-24,5,29,10,-27,16,-5,-35,-20,-18,-40,-45
-25,5,30,10,-28,17,-7,-35,-23,-16,-41,-40
-25,5,30,10,-28,17,-10,-36,-25,-20,-45,-40
-25,5,30,10,-28,17,-13,-40,-25,-20,-48,-39
-27,3,30,12,-29,16,-16,-40,-25,-22,-52,-35
-26,-2,24,13,-25,11,-11,-42,-25,-25,-55,-35
-24,-5,19,14,-21,6,-10,-46,-32,-32,-59,-37
-22,-8,14,15,-18,3,-10,-48,-43,-38,-60,-44
-21,-13,8,17,-14,-3,-6,-51,-53,-52,-61,-51
-17,-15,2,16,-9,-6,-4,-54,-59,-65,-71,-54
-17,-15,2,16,-9,-6,-7,-57,-62,-66,-74,-57
-23,-15,8,19,-15,-3,-10,-59,-64,-70,-82,-59
-26,-15,11,20,-18,-1,-13,-63,-71,-72,-87,-63
-31,-15,16,23,-23,0,-15,-65,-81,-75,-84,-65
-34,-15,20,24,-26,2,-11,-65,-80,-75,-85,-65
-38,-18,20,28,-29,1,-10,-65,-80,-75,-81,-69
-40,-20,20,30,-30,0,-10,-65,-80,-80,-79,-70
-40,-20,20,30,-30,0,-10,-65,-79,-80,-82,-70
-40,-20,20,30,-30,0,-10,-65,-83,-81,-84,-75
-37,-20,18,28,-28,-1,-11,-65,-85,-85,-88,-75
-35,-21,14,27,-25,-3,-15,-65,-85,-85,-90,-75
-36,-24,12,30,-24,-6,-15,-65,-85,-82,-86,-75
-38,-29,9,34,-23,-10,-15,-66,-85,-80,-85,-75
-34,-28,6,30,-20,-11,-15,-62,-84,-80,-85,-73
-29,-25,4,26,-16,-10,-15,-60,-80,-80,-85,-68
-26,-25,1,26,-13,-12,-15,-60,-80,-80,-85,-65
-21,-21,0,21,-10,-11,-15,-56,-80,-80,-86,-62
-20,-19,0,19,-10,-10,-15,-54,-80,-80,-90,-57
-20,-21,0,21,-10,-10,-15,-56,-80,-80,-90,-55
-25,-24,1,25,-12,-11,-15,-60,-78,-80,-92,-60
-23,-25,-3,24,-10,-14,-15,-60,-73,-80,-96,-68
-19,-25,-5,23,-6,-15,-15,-61,-70,-80,-95,-68
-20,-25,-5,23,-7,-15,-15,-65,-67,-77,-92,-64
-20,-25,-5,23,-7,-15,-15,-65,-62,-75,-87,-65
-20,-25,-5,23,-7,-15,-15,-63,-59,-75,-84,-65
-20,-25,-5,23,-7,-15,-15,-59,-56,-75,-81,-65
-20,-25,-5,23,-7,-15,-11,-60,-55,-75,-76,-65
-20,-25,-5,23,-7,-15,-9,-56,-55,-76,-76,-60
-19,-25,-5,23,-7,-15,-10,-55,-55,-79,-80,-60
-15,-20,-5,18,-5,-12,-10,-55,-54,-80,-80,-60
-15,-20,-6,18,-5,-12,-10,-50,-58,-80,-80,-60
-16,-19,-2,18,-7,-10,-9,-50,-60,-80,-80,-60
-15,-15,0,15,-7,-7,-5,-49,-60,-80,-80,-57
-14,-15,0,14,-6,-7,-5,-45,-64,-78,-77,-54
-18,-18,0,18,-9,-8,-5,-45,-65,-73,-74,-55
-23,-23,-1,23,-11,-12,-5,-43,-65,-70,-76,-51
-18,-17,1,17,-9,-8,-5,-37,-60,-68,-75,-50
-20,-14,6,17,-13,-4,-1,-32,-52,-62,-76,-51
-28,-9,19,18,-24,5,6,-28,-45,-60,-73,-43
-20,5,25,7,-23,15,13,-24,-40,-51,-61,-36
-13,30,43,-9,-29,36,19,-19,-30,-37,-45,-26
-16,57,73,-21,-45,65,26,-10,-14,-27,-34,-21
-1,58,59,-29,-30,58,31,12,10,5,-12,-10
21,50,29,-36,-5,39,22,19,25,18,5,5
41,44,3,-43,19,23,9,23,37,39,29,19
48,42,-5,-45,26,18,-6,18,35,38,30,23
39,25,-13,-32,26,6,-20,-1,5,-1,2,3
28,10,-18,-18,23,-4,-35,-40,-26,-23,-11,-1
-12,-27,-16,20,2,-21,-22,-41,-49,-62,-57,-38
-20,-35,-16,28,-2,-25,-21,-40,-45,-52,-53,-53
-39,-51,-13,45,-12,-32,-14,-58,-69,-99,-87,-67
-22,-42,-20,32,0,-31,1,-32,-28,-59,-61,-54
-34,-40,-6,38,-14,-23,-2,-69,-71,-106,-86,-61
-53,-95,-42,74,-5,-68,76,48,-8,-74,-112,-105
-23,-59,-37,41,7,-48,103,110,66,-17,-92,-93
237,147,-90,-192,163,29,74,467,631,648,449,245
837,665,-172,-750,504,246,-252,547,1269,1831,1608,1055
674,688,14,-681,330,351,-614,-607,-29,660,1079,1004
104,219,115,-162,-6,166,-455,-908,-865,-592,-29,296
-7,39,46,-16,-27,42,-180,-298,-272,-195,-69,58
-55,-41,14,48,-34,-13,-30,-95,-120,-150,-137,-42
-51,-55,-4,53,-23,-29,19,-23,-42,-85,-115,-71
-75,-72,3,73,-39,-34,33,-27,-40,-97,-123,-95
-80,-84,-4,82,-38,-44,41,-3,-43,-107,-132,-111
-71,-76,-5,74,-33,-40,41,6,-27,-78,-115,-103
-85,-89,-4,87,-40,-46,60,10,-41,-102,-135,-109
-57,-82,-25,70,-16,-53,59,21,-21,-70,-116,-101
-58,-87,-29,73,-14,-58,64,20,-33,-88,-132,-108
-59,-80,-21,70,-18,-51,66,32,-15,-66,-118,-103
-61,-80,-19,71,-21,-50,69,33,-18,-71,-119,-106
-66,-79,-13,73,-27,-46,73,43,-7,-61,-110,-99
-65,-76,-10,71,-27,-42,75,47,2,-56,-105,-92
-58,-74,-16,66,-21,-45,79,55,15,-53,-101,-86
-49,-70,-21,60,-14,-46,82,72,33,-41,-88,-79
-40,-67,-27,54,-6,-47,85,81,51,-23,-75,-73
-33,-65,-32,49,0,-49,85,92,72,-2,-62,-67
-25,-63,-38,44,7,-50,85,111,85,17,-50,-59
-13,-53,-40,33,14,-46,85,133,109,37,-38,-50
-2,-42,-40,22,19,-41,85,158,129,50,-24,-41
7,-33,-40,13,24,-36,85,183,161,74,1,-30
15,-25,-40,5,27,-32,85,212,194,102,22,-19
24,-17,-41,-3,33,-29,85,237,220,126,39,-6
34,-9,-43,-12,39,-26,85,266,253,148,53,8
49,-2,-51,-23,50,-27,86,283,272,157,59,23
59,4,-55,-31,57,-25,81,276,282,152,64,38
57,9,-48,-33,52,-19,70,266,273,142,60,42
58,14,-44,-36,51,-15,59,259,260,135,55,42
58,20,-38,-39,48,-8,47,241,244,127,53,37
57,24,-32,-40,44,-4,34,207,211,119,48,31
46,18,-28,-32,37,-5,20,153,169,104,46,26
31,9,-22,-19,26,-7,8,96,120,78,38,19
18,1,-18,-9,18,-8,5,49,75,47,23,16
5,-8,-14,2,10,-11,5,13,26,18,11,8
-8,-17,-9,13,0,-13,1,-3,-5,-2,-8,-2
-23,-28,-5,26,-9,-16,-1,-13,-10,-23,-25,-10
-32,-37,-5,35,-13,-21,1,-26,-15,-35,-35,-20
-31,-36,-5,34,-12,-20,4,-27,-20,-35,-41,-27
-30,-35,-5,33,-12,-20,7,-25,-27,-35,-39,-32
-29,-34,-5,32,-11,-19,9,-25,-29,-35,-43,-35
-25,-30,-4,28,-10,-16,13,-25,-25,-35,-45,-30
-23,-30,-8,27,-8,-19,15,-25,-25,-35,-45,-30
-17,-27,-10,22,-3,-19,17,-26,-25,-35,-45,-30
-15,-25,-10,20,-2,-17,20,-30,-25,-35,-45,-30
-15,-25,-10,20,-2,-17,20,-33,-25,-35,-45,-30
-15,-25,-10,20,-2,-17,20,-35,-29,-35,-45,-32
-15,-24,-10,20,-2,-17,20,-39,-36,-35,-45,-36
-16,-26,-10,21,-2,-17,19,-40,-42,-40,-46,-35
-14,-24,-10,19,-1,-16,16,-43,-49,-50,-55,-39
-20,-30,-10,25,-4,-19,11,-49,-53,-58,-60,-41
-30,-40,-10,35,-10,-25,8,-52,-57,-64,-62,-40
-30,-40,-10,35,-10,-25,5,-57,-61,-69,-65,-48
-31,-44,-12,38,-9,-28,0,-60,-59,-76,-70,-55
-29,-44,-15,37,-6,-30,2,-60,-71,-80,-72,-55
-37,-53,-16,45,-10,-35,6,-62,-81,-80,-69,-55
-41,-62,-20,52,-11,-41,4,-65,-79,-80,-70,-55
-40,-59,-20,50,-10,-39,9,-65,-80,-80,-70,-55
-43,-58,-15,51,-14,-36,10,-61,-80,-80,-69,-56
-39,-54,-16,47,-11,-35,10,-60,-80,-80,-72,-59
-42,-55,-13,49,-14,-34,15,-60,-77,-80,-75,-60
-47,-58,-11,53,-18,-34,15,-56,-74,-80,-75,-60
-54,-63,-8,58,-23,-35,15,-54,-75,-80,-75,-60
-49,-65,-17,57,-15,-41,15,-56,-74,-80,-75,-60
-31,-65,-34,48,2,-49,15,-60,-75,-79,-75,-58
-30,-65,-35,48,3,-50,15,-60,-74,-75,-72,-52
-30,-65,-35,48,3,-50,15,-60,-70,-75,-69,-47
-30,-65,-35,48,3,-50,15,-60,-70,-75,-70,-44
-30,-65,-35,48,3,-50,15,-60,-68,-75,-70,-38
-27,-62,-34,45,4,-48,14,-64,-64,-75,-70,-35
-28,-59,-31,44,1,-45,10,-65,-65,-71,-69,-40
-28,-56,-28,42,1,-42,10,-65,-61,-70,-65,-40
-28,-53,-25,41,-1,-39,10,-65,-60,-70,-65,-41
-27,-50,-23,39,-2,-36,10,-65,-60,-65,-63,-45
-32,-51,-18,41,-7,-34,10,-64,-55,-65,-59,-45
-34,-60,-26,47,-3,-43,13,-60,-55,-65,-61,-42
-33,-69,-36,51,2,-52,15,-58,-55,-65,-56,-40
-36,-70,-35,54,-1,-52,15,-55,-55,-65,-55,-40
-35,-70,-35,53,0,-52,18,-51,-55,-65,-55,-37
-35,-70,-35,53,0,-52,21,-50,-55,-65,-51,-34
-34,-69,-35,52,1,-51,19,-46,-55,-65,-49,-36
-33,-65,-32,49,0,-48,16,-45,-55,-61,-52,-39
-37,-66,-29,51,-4,-47,15,-45,-59,-60,-55,-40
-36,-62,-26,50,-4,-44,15,-40,-60,-60,-55,-40
-37,-60,-23,49,-7,-41,15,-40,-60,-55,-55,-40
-40,-60,-21,50,-9,-40,15,-40,-65,-55,-55,-40
-39,-57,-18,48,-10,-37,17,-40,-66,-55,-56,-38
-36,-51,-15,44,-10,-33,21,-40,-64,-50,-51,-31
-35,-48,-13,42,-11,-30,20,-39,-55,-47,-42,-24
-33,-43,-9,38,-11,-26,24,-40,-46,-43,-37,-18
-15,-21,-5,18,-5,-13,25,-40,-39,-41,-28,-11
-7,4,11,1,-9,7,25,-30,-20,-29,-15,-5
6,22,16,-14,-5,18,31,0,18,2,-2,4
25,35,10,-30,7,22,30,21,35,23,18,17
41,21,-20,-31,31,0,20,26,40,40,41,32
74,13,-62,-43,68,-24,4,26,65,56,57,40
57,-8,-65,-24,61,-36,-8,9,33,31,25,26
30,-32,-62,1,46,-47,-26,-26,-3,19,14,26
12,-42,-54,15,33,-48,-26,-48,-27,-32,-11,11
-3,-56,-53,30,26,-54,-15,-34,-30,-33,-29,-4
-26,-66,-40,46,7,-53,-15,-66,-62,-66,-55,-18
-34,-79,-45,57,6,-62,2,-34,-43,-60,-60,-31
-36,-63,-27,49,-4,-45,-3,-68,-60,-50,-46,-27
-60,-100,-41,80,-9,-70,58,-7,-41,-85,-89,-74
-38,-107,-70,73,16,-88,110,88,74,15,-61,-77
64,-11,-74,-26,69,-42,119,256,306,244,124,54
660,396,-263,-528,461,66,-65,686,1175,1485,1242,779
893,728,-166,-810,529,281,-472,-95,641,1360,1538,1226
280,386,106,-333,87,246,-498,-986,-793,-355,267,575
4,69,65,-37,-30,66,-243,-537,-540,-395,-109,107
-32,-14,17,23,-24,1,-69,-145,-119,-92,-76,0
-61,-62,-1,62,-30,-31,6,-47,-71,-103,-124,-59
-55,-67,-12,61,-21,-39,22,-19,-20,-48,-77,-60
-87,-100,-13,94,-37,-56,56,-15,-48,-93,-114,-89
-66,-92,-27,79,-19,-59,60,9,-17,-47,-84,-74
-67,-96,-29,81,-19,-62,60,4,-35,-73,-111,-88
-54,-91,-37,73,-8,-63,61,20,-16,-49,-93,-84
-55,-89,-34,73,-11,-61,64,16,-21,-55,-97,-82
-55,-90,-35,73,-9,-63,66,26,-10,-50,-93,-78
-47,-82,-35,65,-6,-59,64,27,2,-43,-88,-73
-45,-80,-35,63,-5,-57,66,34,8,-44,-90,-72
-38,-74,-36,56,-1,-55,65,41,23,-35,-78,-65
-31,-70,-39,51,4,-55,64,52,32,-30,-76,-64
-25,-65,-40,45,8,-52,70,70,46,-13,-66,-57
-22,-61,-40,41,9,-50,76,80,56,-7,-62,-51
-14,-54,-40,34,14,-47,75,96,71,2,-52,-45
-8,-48,-39,28,16,-43,75,118,95,22,-43,-37
0,-41,-41,21,20,-41,75,132,111,43,-30,-33
5,-34,-39,15,22,-36,75,147,133,67,-7,-19
13,-28,-42,7,28,-35,72,182,173,100,11,3
21,-16,-37,-3,29,-26,69,205,203,124,41,15
45,-1,-46,-22,46,-24,70,224,228,145,61,25
80,9,-71,-45,75,-31,70,252,256,170,76,35
85,16,-69,-51,77,-27,70,268,283,177,94,47
93,23,-70,-58,82,-24,69,269,293,173,96,61
97,29,-68,-63,82,-19,60,260,283,171,108,73
101,36,-64,-68,82,-14,50,255,275,167,112,76
104,39,-65,-71,84,-12,40,243,267,165,109,75
91,32,-58,-62,74,-13,30,211,242,161,111,73
90,28,-62,-59,76,-17,23,168,197,143,110,69
57,22,-35,-39,45,-6,12,113,147,113,100,72
24,16,-8,-20,15,4,6,64,100,80,76,58
20,11,-9,-15,14,1,10,27,61,57,44,28
10,6,-4,-8,7,1,10,1,33,31,19,17
10,4,-6,-7,7,-1,10,-11,19,8,12,11
2,1,-1,-1,2,0,10,-16,13,5,4,4
-2,-1,1,2,-1,0,10,-21,6,2,-5,-2
-5,-5,-1,5,-2,-3,7,-27,-2,-1,-8,-9
-23,-4,19,13,-20,7,4,-33,-3,-4,-5,-14
-27,0,27,13,-27,13,5,-35,0,-6,-5,-15
-23,0,23,11,-23,11,5,-35,0,-9,-3,-15
-18,2,21,8,-20,11,6,-35,3,-12,1,-20
-12,6,17,3,-15,11,3,-35,5,-15,0,-20
-10,5,15,2,-13,10,0,-35,4,-18,-3,-21
-13,2,15,5,-15,8,0,-36,-2,-20,-9,-25
-16,-1,15,8,-15,6,0,-39,-10,-22,-13,-25
-19,-4,15,11,-17,6,0,-42,-15,-26,-18,-25
-21,-7,15,13,-17,4,0,-45,-25,-25,-22,-25
-20,-10,10,15,-16,0,0,-48,-30,-25,-27,-25
-19,-9,10,14,-15,0,0,-50,-39,-41,-30,-29
-8,0,9,4,-9,4,0,-50,-50,-46,-33,-30
-3,2,5,0,-4,3,0,-50,-49,-46,-38,-35
-9,-4,5,6,-6,0,0,-50,-51,-50,-40,-34
-16,-9,8,12,-12,0,-1,-50,-49,-50,-54,-30
-22,-12,10,17,-16,-1,-5,-50,-54,-55,-62,-30
-29,-18,11,24,-20,-3,-5,-50,-66,-55,-59,-29
-34,-19,15,26,-25,-1,-7,-55,-65,-56,-60,-31
-29,-15,14,22,-21,0,-10,-60,-64,-61,-60,-28
-23,-13,11,18,-17,-1,-10,-60,-60,-59,-60,-35
-18,-10,9,14,-14,0,-6,-60,-60,-63,-55,-46
-12,-7,5,8,-8,-1,-5,-60,-60,-65,-55,-45
-7,-4,3,6,-5,-1,-5,-60,-60,-65,-54,-44
-8,-9,-1,8,-3,-5,-5,-57,-60,-65,-49,-40
-17,-14,4,15,-10,-5,-5,-55,-60,-65,-51,-40
-33,-17,16,25,-25,0,-6,-51,-60,-64,-47,-38
-39,-23,16,31,-27,-3,-12,-50,-60,-61,-45,-34
-38,-24,14,31,-26,-5,-18,-45,-65,-58,-45,-35
-35,-19,16,26,-25,-1,-24,-47,-65,-56,-45,-31
-30,-16,14,23,-22,-1,-22,-59,-66,-52,-45,-30
-28,-13,16,20,-22,1,-19,-61,-70,-50,-45,-30
-21,-8,12,14,-16,2,-20,-59,-70,-52,-50,-37
-15,-5,10,10,-12,2,-15,-56,-68,-56,-50,-36
-12,-1,10,6,-11,4,-16,-55,-64,-58,-50,-35
-6,0,6,2,-6,3,-13,-54,-65,-61,-50,-34
-5,0,5,2,-5,2,-10,-49,-65,-64,-50,-29
-5,0,5,2,-5,2,-10,-45,-65,-65,-48,-31
-11,0,11,5,-11,5,-8,-43,-65,-65,-44,-27
-16,1,17,7,-17,9,-4,-38,-60,-65,-45,-25
-17,5,23,6,-21,14,-5,-34,-60,-65,-41,-25
-20,5,25,7,-23,15,-17,-54,-59,-63,-40,-25
-20,5,25,7,-23,15,-21,-62,-55,-59,-40,-25
-20,5,25,7,-23,15,-19,-59,-55,-57,-35,-25
-21,4,25,8,-23,15,-17,-57,-53,-54,-32,-26
-16,9,25,3,-21,17,-14,-54,-46,-52,-29,-24
-16,14,30,1,-23,22,-15,-55,-39,-49,-24,-32
-17,22,38,-3,-28,30,-10,-48,-32,-43,-21,-34
-13,26,40,-6,-27,32,-4,-39,-26,-35,-17,-23
-8,52,61,-22,-35,56,-1,-30,-18,-25,-7,-15
2,88,86,-45,-43,87,4,-22,-6,-10,2,-6
22,97,75,-60,-27,85,9,-7,24,24,22,12
42,105,63,-74,-11,84,6,-1,41,39,43,33
61,101,40,-81,10,70,-11,18,48,62,60,45
72,84,12,-78,30,47,-34,8,43,66,48,40
56,64,8,-60,24,36,-32,-14,16,34,30,26
42,54,12,-48,15,33,-34,-32,-23,2,17,26
1,10,8,-5,-4,9,-24,-38,-44,-42,-27,-4
-31,-5,26,18,-28,10,-29,-47,-39,-33,-17,-15
-57,-25,31,41,-44,3,-20,-48,-57,-74,-58,-38
-43,-25,18,33,-30,-3,-21,-28,-27,-25,-34,-27
-51,-22,29,37,-39,4,-16,-62,-68,-76,-65,-39
-34,-65,-32,50,-1,-48,70,67,27,-29,-67,-78
0,-12,-12,6,6,-12,84,111,93,33,-42,-67
246,190,-56,-218,151,66,56,463,660,724,538,292
803,724,-79,-763,441,322,-270,475,1187,1863,1745,1175
583,770,187,-677,198,478,-546,-628,-123,607,1112,1090
44,271,227,-158,-91,248,-367,-857,-867,-631,-68,292
-28,88,115,-30,-72,101,-171,-316,-306,-206,-65,55
-61,6,67,27,-64,36,-35,-103,-130,-138,-79,-32
-46,-28,17,37,-31,-6,6,-16,-47,-84,-54,-51
-68,-40,28,54,-47,-6,8,-17,-49,-97,-93,-79
-68,-50,18,59,-43,-15,21,3,-41,-98,-102,-97
-58,-40,18,49,-37,-11,21,2,-28,-77,-86,-83
-64,-49,15,56,-39,-17,34,11,-32,-96,-103,-96
-56,-42,14,48,-34,-14,34,19,-13,-69,-80,-85
-63,-46,17,54,-39,-15,42,20,-19,-85,-98,-93
-50,-37,13,43,-31,-11,44,29,-6,-65,-81,-83
-47,-31,16,39,-32,-7,49,28,-10,-71,-83,-80
-38,-25,14,31,-26,-5,51,40,-4,-57,-74,-76
-33,-17,16,24,-24,0,50,43,2,-37,-68,-71
-31,-12,19,21,-25,4,50,52,17,-23,-65,-67
-26,-6,20,16,-23,7,50,67,31,-13,-56,-61
-22,-2,20,12,-20,9,50,79,43,-6,-53,-54
-17,2,20,8,-19,11,50,91,55,4,-38,-44
-13,7,20,3,-17,14,50,101,73,21,-13,-36
-7,11,18,-2,-12,14,50,126,103,44,5,-28
9,21,12,-15,-2,16,50,148,127,69,18,-17
26,34,7,-30,9,20,50,166,154,90,32,-8
41,45,4,-44,19,24,46,191,188,114,53,6
53,51,-1,-52,27,25,45,224,218,145,78,32
51,45,-6,-47,28,19,45,247,250,165,95,46
57,48,-9,-53,33,19,40,257,263,176,105,43
67,54,-13,-60,39,20,40,262,268,176,107,53
77,62,-15,-69,46,23,39,255,267,166,104,72
90,70,-20,-80,55,25,28,246,254,158,101,71
89,71,-17,-80,53,27,17,226,238,149,98,62
91,80,-11,-85,51,34,5,184,201,133,95,56
73,75,2,-74,35,38,-4,132,155,108,94,48
45,67,22,-56,11,44,-11,80,110,82,79,41
34,61,28,-48,3,45,-14,40,59,53,57,34
7,54,47,-30,-20,50,-10,9,18,23,37,23
-13,49,62,-18,-38,55,-10,-10,-7,-2,9,12
-14,45,59,-15,-37,51,-10,-21,-27,-16,-9,-1
-18,45,63,-14,-41,54,-10,-28,-38,-22,-10,-5
-20,45,65,-13,-43,55,-10,-25,-37,-33,-15,-5
-20,45,65,-13,-43,55,-6,-25,-33,-31,-14,-5
-17,45,62,-14,-40,53,-5,-25,-29,-25,-10,-5
-18,42,59,-12,-39,50,-5,-25,-26,-20,-8,-5
-22,39,61,-9,-41,50,-1,-25,-20,-14,-5,-6
-23,36,60,-6,-42,47,0,-29,-22,-8,-2,-10
-27,33,61,-3,-44,46,-1,-30,-33,-6,1,-9
-28,30,59,-1,-43,44,-7,-30,-37,-15,-4,-13
-26,29,55,-2,-41,41,-14,-35,-39,-23,-11,-15
-31,25,55,2,-44,40,-21,-35,-42,-32,-18,-15
-27,25,53,1,-40,39,-28,-36,-45,-39,-24,-18
-27,23,49,2,-38,36,-27,-40,-45,-46,-32,-21
-31,19,50,6,-41,35,-22,-42,-55,-52,-35,-24
-26,20,46,2,-36,33,-20,-45,-69,-59,-35,-27
-28,16,45,6,-37,30,-15,-48,-73,-66,-35,-29
-34,11,45,11,-39,28,-12,-51,-76,-70,-35,-32
-34,6,40,14,-37,23,-8,-50,-75,-82,-50,-35
-37,3,40,17,-39,21,-5,-50,-75,-86,-57,-35
-43,-3,40,23,-41,18,-5,-49,-75,-84,-54,-37
-44,-4,40,24,-42,18,-3,-51,-74,-82,-52,-40
-40,0,40,20,-40,20,0,-55,-76,-79,-49,-40
-40,0,40,20,-40,20,0,-55,-80,-81,-51,-36
-40,0,40,20,-40,20,-4,-55,-80,-84,-54,-35
-40,0,40,20,-40,20,-5,-55,-82,-85,-55,-35
-40,0,40,20,-40,20,-5,-55,-86,-85,-55,-31
-40,0,40,20,-40,20,-10,-51,-85,-85,-53,-29
-40,0,40,20,-40,20,-10,-50,-82,-85,-50,-31
-40,0,40,20,-40,20,-10,-50,-79,-83,-50,-38
-40,0,40,20,-40,20,-10,-46,-80,-80,-50,-37
-39,0,39,20,-39,19,-10,-44,-80,-77,-50,-34
-33,1,35,16,-34,18,-10,-47,-80,-74,-50,-35
-30,5,35,12,-33,20,-10,-50,-80,-70,-50,-35
-30,5,35,12,-33,20,-10,-46,-80,-70,-50,-35
-30,5,35,12,-33,20,-10,-44,-80,-75,-50,-36
-30,5,35,12,-33,20,-10,-45,-80,-75,-50,-40
-35,5,40,15,-38,22,-10,-45,-80,-75,-50,-40
-44,5,49,19,-47,27,-10,-45,-80,-75,-47,-40
-45,5,50,20,-48,27,-10,-46,-76,-75,-45,-40
-45,5,50,20,-48,27,-11,-50,-75,-75,-45,-40
-45,5,50,20,-48,27,-15,-50,-75,-75,-41,-36
-44,5,50,19,-48,27,-15,-50,-75,-75,-40,-35
-47,3,50,22,-49,27,-15,-50,-75,-75,-40,-35
-46,0,46,23,-46,23,-15,-50,-75,-75,-40,-30
-45,0,45,22,-45,22,-15,-50,-75,-75,-40,-30
-44,0,45,22,-45,22,-11,-50,-75,-75,-40,-29
-41,0,40,20,-41,20,-10,-49,-75,-79,-40,-25
-40,0,40,20,-40,20,-10,-45,-75,-80,-40,-25
-37,3,40,17,-39,21,-5,-46,-75,-80,-38,-25
-34,6,40,14,-37,22,-5,-43,-71,-80,-35,-25
-31,9,40,11,-36,25,-4,-40,-65,-81,-36,-26
-29,11,40,9,-34,26,1,-40,-60,-78,-32,-21
-25,15,40,5,-33,27,2,-35,-54,-67,-29,-14
-29,17,46,6,-38,31,8,-26,-49,-58,-31,-8
-26,41,67,-8,-47,54,9,-17,-43,-46,-19,0
-8,82,90,-37,-49,86,18,-10,-30,-35,-10,5
11,91,80,-51,-35,85,33,4,-2,-12,8,12
15,83,68,-49,-27,75,7,12,16,10,30,26
29,74,46,-52,-9,60,-17,31,32,29,55,48
58,72,13,-66,22,42,-24,22,24,38,62,52
55,56,1,-56,27,28,-16,-7,-18,8,27,37
46,37,-9,-41,27,14,-18,-33,-32,-12,21,33
11,13,3,-12,4,8,-12,-46,-57,-55,-16,-5
-15,14,29,0,-22,21,-10,-31,-63,-46,-22,-17
-36,3,40,16,-38,21,-12,-53,-97,-93,-53,-37
-35,-8,28,21,-31,10,4,-22,-59,-65,-35,-36
-50,0,50,25,-50,25,-10,-64,-90,-88,-39,-30
-69,-54,15,62,-42,-20,59,27,-46,-89,-80,-77
-22,-36,-15,29,-3,-25,96,108,44,-19,-62,-77
157,124,-33,-140,95,45,113,384,458,441,301,159
765,607,-157,-686,461,225,-149,663,1288,1739,1482,947
795,760,-35,-777,415,362,-594,-384,275,1000,1308,1108
169,311,142,-240,13,226,-513,-971,-896,-523,111,408
-7,93,100,-43,-54,97,-217,-371,-378,-257,-42,88
-51,21,72,15,-61,46,-45,-107,-126,-118,-85,-17
-71,-16,55,44,-63,19,16,-24,-77,-105,-86,-52
-63,-17,46,39,-54,15,24,-9,-50,-83,-73,-59
-85,-41,44,63,-64,1,45,-6,-67,-111,-100,-86
-75,-38,37,57,-56,0,47,9,-38,-74,-71,-78
-78,-44,35,61,-57,-4,58,5,-57,-104,-97,-91
-67,-38,29,52,-48,-4,53,23,-33,-74,-76,-78
-76,-41,35,58,-56,-3,58,24,-43,-89,-91,-80
-78,-39,39,59,-59,0,61,38,-26,-75,-78,-74
-78,-40,38,59,-58,-1,59,35,-24,-75,-75,-71
-71,-36,35,53,-53,-1,65,41,-16,-72,-71,-68
-64,-29,35,46,-49,2,64,50,-5,-65,-63,-60
-57,-26,32,41,-44,3,68,59,5,-53,-60,-57
-48,-19,29,33,-38,5,70,74,22,-37,-52,-50
-45,-14,31,29,-38,8,71,87,43,-24,-43,-45
-43,-9,34,25,-38,12,75,107,56,-10,-30,-40
-39,-3,36,20,-37,16,75,121,63,6,-17,-33
-28,4,32,12,-31,18,77,141,94,26,-1,-24
-16,11,26,2,-21,18,81,168,120,44,19,-16
-4,18,21,-7,-13,19,80,183,146,68,33,-5
8,24,16,-16,-4,20,77,219,177,95,53,10
20,30,10,-25,5,20,74,250,203,121,68,29
35,40,5,-38,15,22,71,272,241,138,85,41
48,48,0,-48,24,24,68,296,264,148,104,49
54,54,0,-54,26,27,65,290,257,150,99,63
63,61,-1,-62,32,30,64,281,253,144,100,65
70,65,-5,-67,37,30,56,272,245,138,98,59
71,65,-5,-67,38,30,48,264,243,133,94,53
63,60,-2,-62,32,29,37,240,221,124,97,46
46,52,6,-49,19,29,20,184,169,103,88,39
31,44,14,-38,8,29,12,138,125,73,73,33
9,36,27,-23,-9,31,7,89,85,42,60,27
-14,29,42,-8,-28,36,2,36,45,24,47,17
-20,24,44,-3,-32,34,-4,14,8,2,35,9
-26,21,46,2,-36,33,-9,-3,-17,-22,27,0
-32,18,50,7,-42,34,-7,-14,-30,-29,21,-9
-37,13,51,12,-44,32,-4,-18,-36,-35,13,-17
-40,10,49,15,-44,30,-1,-19,-35,-40,6,-28
-34,14,47,10,-41,30,2,-15,-35,-40,-1,-33
-28,15,44,6,-36,30,5,-15,-35,-41,-5,-28
-32,15,47,8,-40,31,4,-13,-35,-45,-8,-22
-45,15,60,15,-53,37,0,-10,-35,-45,-10,-19
-45,15,60,15,-53,37,0,-10,-35,-47,-14,-13
-42,14,56,13,-49,35,0,-13,-35,-51,-15,-10
-44,9,53,17,-49,31,0,-16,-35,-50,-15,-15
-44,6,50,19,-48,28,0,-16,-34,-50,-20,-19
-46,3,49,21,-48,25,0,-25,-38,-50,-20,-24
-47,-2,45,24,-45,21,0,-34,-52,-50,-21,-25
-50,-5,45,27,-47,20,0,-39,-63,-55,-25,-25
-51,-9,43,30,-47,17,0,-43,-65,-60,-27,-24
-50,-10,39,30,-45,15,0,-46,-65,-63,-31,-27
-50,-10,40,30,-45,15,-1,-51,-70,-67,-30,-40
-54,-10,43,32,-48,16,-5,-56,-78,-74,-30,-40
-55,-10,46,32,-51,17,-5,-60,-80,-80,-30,-36
-56,-11,45,33,-50,16,-5,-56,-80,-80,-30,-33
-61,-16,45,38,-53,14,-5,-55,-80,-80,-30,-30
-66,-22,44,43,-55,11,-5,-55,-80,-80,-30,-28
-72,-25,46,48,-59,11,-5,-51,-80,-80,-30,-25
-80,-30,50,55,-65,10,-5,-49,-80,-80,-30,-25
-85,-35,50,60,-67,7,-5,-52,-85,-80,-30,-25
-82,-32,50,57,-66,9,-5,-55,-85,-80,-30,-25
-76,-26,50,51,-63,12,-5,-55,-86,-79,-30,-25
-71,-22,50,46,-60,14,-4,-55,-90,-91,-42,-41
-65,-18,47,41,-56,15,0,-55,-90,-93,-46,-46
-56,-12,44,33,-49,16,0,-55,-88,-85,-41,-39
-52,-11,41,31,-47,15,0,-51,-84,-81,-39,-38
-57,-19,38,38,-47,9,0,-50,-85,-75,-36,-31
-63,-27,36,45,-49,4,0,-50,-85,-70,-34,-30
-60,-27,33,43,-47,3,-4,-46,-85,-65,-31,-35
-53,-24,29,39,-41,2,-6,-44,-85,-65,-28,-35
-49,-25,23,37,-36,-1,-5,-47,-80,-65,-25,-35
-44,-25,19,34,-31,-2,-5,-50,-80,-65,-22,-35
-41,-25,15,33,-28,-5,-5,-50,-80,-65,-19,-35
-33,-24,9,28,-21,-7,-5,-50,-80,-67,-22,-32
-41,-19,21,30,-31,1,-5,-50,-80,-71,-26,-30
-52,-16,36,33,-43,10,-5,-50,-82,-70,-24,-30
-47,-12,34,29,-40,11,-5,-46,-85,-70,-29,-30
-44,-9,35,26,-39,13,-5,-45,-85,-70,-30,-30
-39,-4,35,21,-37,15,-5,-44,-85,-70,-30,-31
-44,-9,35,26,-40,12,-1,-41,-85,-76,-35,-34
-49,-14,35,31,-42,11,0,-39,-84,-78,-35,-35
-45,-10,35,27,-40,12,1,-41,-81,-71,-35,-35
-45,-10,35,27,-40,12,4,-40,-79,-66,-35,-35
-43,-8,35,25,-39,13,6,-40,-81,-62,-35,-35
-40,-4,35,21,-37,16,3,-52,-79,-54,-33,-33
-41,-6,35,23,-37,14,0,-53,-81,-52,-27,-27
-38,1,39,18,-39,20,0,-45,-75,-54,-21,-21
-31,14,44,8,-38,29,0,-40,-63,-50,-15,-15
-29,26,55,1,-42,40,5,-35,-47,-42,-9,-10
-21,58,79,-19,-50,68,14,-24,-37,-19,5,-5
-9,75,84,-33,-47,79,34,-1,-17,9,35,4
9,77,69,-43,-30,73,28,10,19,26,63,22
38,83,45,-61,-3,63,-10,22,30,42,69,41
66,77,11,-72,28,44,-33,22,34,65,68,47
66,56,-10,-61,38,22,-22,11,16,25,45,35
41,35,-6,-38,23,14,-19,-19,-20,-5,48,32
-5,1,6,2,-5,3,-11,-52,-58,-42,16,-2
-30,-26,5,28,-17,-10,-2,-37,-47,-39,4,-17
-65,-42,23,53,-44,-9,-3,-56,-71,-67,-15,-26
-68,-51,17,59,-42,-17,13,-23,-43,-48,-17,-36
-53,-33,20,43,-36,-6,-9,-52,-55,-44,-8,-18
-69,-70,-1,69,-33,-35,49,17,-38,-73,-53,-55
-38,-54,-15,46,-11,-34,94,96,61,10,-24,-70
91,57,-34,-74,62,11,112,298,329,286,192,79
691,476,-215,-583,452,130,-80,705,1215,1560,1333,810
863,762,-101,-812,482,330,-502,-154,563,1282,1506,1183
253,400,147,-327,52,273,-506,-976,-834,-411,250,541
-4,103,107,-50,-56,105,-246,-490,-500,-356,-27,121
-50,16,66,17,-58,41,-66,-135,-120,-93,-18,9
-68,-27,40,47,-54,6,6,-35,-72,-101,-55,-45
-60,-32,28,46,-44,-2,22,-8,-26,-53,-20,-42
-82,-53,29,67,-56,-12,46,-6,-52,-98,-75,-77
-69,-50,18,59,-43,-16,44,13,-18,-52,-40,-66
-78,-61,17,69,-47,-22,55,10,-38,-84,-64,-73
-70,-61,9,65,-39,-26,55,27,-16,-58,-44,-69
-71,-60,11,66,-41,-25,55,25,-22,-66,-53,-70
-66,-57,10,62,-38,-23,56,36,-10,-56,-48,-71
-64,-54,10,59,-36,-21,54,36,-3,-51,-41,-67
-61,-51,10,56,-36,-21,56,41,0,-50,-43,-62
-59,-49,10,54,-34,-19,59,51,14,-41,-34,-56
-54,-46,8,50,-30,-19,61,54,25,-35,-34,-51
-45,-41,4,43,-25,-18,60,66,41,-18,-28,-44
-44,-39,5,41,-25,-16,60,84,54,-10,-20,-40
-39,-34,5,36,-21,-15,60,91,65,6,-4,-33
-36,-31,5,33,-21,-12,60,103,85,20,8,-24
-31,-27,5,29,-18,-11,60,129,113,39,23,-16
-15,-15,1,15,-8,-7,60,149,131,62,36,-7
1,-2,-4,1,3,-3,60,168,159,84,53,2
13,7,-6,-10,9,1,60,191,187,110,75,12
29,18,-11,-23,20,3,61,219,216,132,90,27
41,27,-13,-34,27,7,62,248,252,156,115,44
57,37,-20,-47,38,9,54,272,276,177,134,61
73,42,-31,-57,52,5,48,286,290,187,139,72
72,45,-27,-58,49,9,40,279,290,181,141,68
76,55,-21,-66,49,17,32,271,285,169,139,79
73,57,-16,-64,44,20,26,252,283,161,149,92
60,51,-9,-55,35,21,19,215,251,147,146,84
55,49,-6,-51,30,21,13,168,206,131,127,77
42,44,2,-43,19,23,6,108,164,114,114,71
31,41,10,-36,11,25,-1,59,118,88,99,63
19,38,18,-29,0,27,-8,25,71,58,75,43
6,31,25,-19,-10,28,-8,-6,31,33,52,22
-8,26,34,-9,-21,30,-4,-21,16,12,36,9
-24,21,45,1,-35,33,-5,-28,13,-4,20,-5
-30,15,45,7,-38,30,-5,-28,7,-5,14,-10
-35,10,45,12,-40,27,-5,-24,1,-5,15,-10
-41,5,46,17,-43,25,-5,-25,-4,-10,15,-10
-38,5,44,16,-42,25,0,-21,-2,-10,15,-10
-47,4,51,21,-49,27,0,-20,3,-9,15,-10
-57,-1,56,28,-57,28,1,-20,6,-5,15,-6
-50,1,51,25,-51,26,5,-21,9,-1,15,-5
-51,-3,49,27,-50,23,5,-19,14,1,15,-5
-50,-6,44,27,-47,19,3,-27,14,6,15,-5
-45,-4,41,25,-43,18,-1,-41,7,0,15,-5
-46,-9,37,28,-42,14,0,-40,1,-8,14,-6
-44,-10,35,27,-40,12,0,-40,-6,-17,9,-11
-46,-11,35,28,-41,12,0,-40,-13,-37,6,-14
-45,-14,31,30,-38,8,0,-42,-18,-40,3,-17
-46,-17,30,32,-38,6,-5,-50,-25,-41,-2,-22
-50,-20,30,35,-40,5,-5,-55,-23,-38,-5,-25
-52,-23,30,37,-41,3,-6,-60,-33,-44,-1,-21
-56,-26,30,41,-42,2,-10,-60,-55,-61,0,-20
-52,-23,30,38,-41,3,-10,-60,-55,-60,0,-20
-50,-19,30,35,-40,5,-7,-60,-54,-58,0,-16
-46,-17,30,32,-38,6,-5,-60,-55,-55,0,-14
-46,-14,32,30,-39,9,-5,-60,-55,-55,-1,-16
-46,-11,36,28,-41,12,-2,-60,-53,-53,-5,-20
-44,-10,35,26,-39,12,1,-60,-49,-49,-5,-20
-46,-10,35,27,-41,12,-1,-60,-47,-50,-7,-20
-44,-10,34,26,-39,12,-4,-60,-44,-50,-10,-19
-44,-10,34,27,-39,12,-5,-59,-41,-50,-10,-22
-46,-10,35,27,-40,12,-5,-55,-40,-50,-10,-26
-44,-10,35,27,-40,12,-5,-55,-45,-55,-10,-23
-47,-12,35,29,-41,11,-5,-55,-45,-55,-10,-19
-50,-16,35,32,-42,10,-5,-55,-45,-56,-10,-16
-50,-15,35,32,-42,10,-5,-55,-45,-60,-10,-11
-47,-15,31,31,-39,8,-5,-55,-45,-60,-8,-11
-44,-15,29,30,-36,7,-5,-55,-45,-58,-5,-18
-46,-15,30,31,-38,7,-5,-55,-45,-55,-2,-20
-49,-20,30,34,-39,5,-6,-55,-40,-52,0,-20
-50,-20,30,35,-40,5,-9,-55,-40,-49,3,-20
-50,-21,29,35,-39,4,-10,-55,-39,-46,6,-20
-50,-25,24,37,-37,0,-10,-50,-35,-45,1,-20
-46,-25,21,35,-33,-2,-10,-50,-35,-45,0,-20
-40,-23,18,31,-29,-2,-10,-49,-38,-45,0,-20
-33,-20,13,26,-23,-3,-8,-45,-40,-45,0,-20
-26,-17,9,22,-17,-3,-4,-45,-40,-45,0,-20
-31,-14,17,22,-23,1,-5,-45,-44,-45,1,-20
-43,-11,32,26,-38,11,-5,-45,-46,-43,5,-20
-54,-10,45,32,-49,17,-5,-45,-45,-40,4,-17
-55,-4,51,30,-53,23,-4,-45,-40,-41,7,-14
-49,1,50,24,-49,25,-1,-45,-34,-41,10,-12
-42,7,50,18,-46,28,4,-44,-28,-39,9,-8
-39,12,51,13,-45,31,6,-38,-23,-40,15,-6
-32,21,53,5,-43,36,11,-30,-17,-33,25,-3
-20,61,80,-21,-50,70,14,-25,-9,-19,36,7
-8,83,91,-38,-50,87,18,-17,13,6,43,20
13,88,74,-51,-31,81,32,-14,41,39,69,35
37,96,60,-67,-12,78,5,-12,52,51,96,59
52,85,33,-69,9,59,-33,-5,62,78,116,70
37,61,24,-50,6,43,-26,-8,46,56,103,56
17,42,25,-30,-4,33,-18,-11,25,31,81,45
-19,7,26,5,-22,16,-16,-45,-21,-14,40,15
-52,-29,23,40,-37,-3,-1,-43,-27,-33,17,-6
-51,-24,27,37,-39,2,-7,-57,-42,-39,12,-6
-60,-39,21,50,-40,-9,13,-44,-44,-62,-11,-29
-30,-12,18,21,-23,3,-5,-52,-29,-24,14,-18
-54,-44,10,49,-32,-17,26,-32,-54,-95,-40,-51
-69,-65,4,67,-36,-30,94,82,71,15,6,-54
-10,5,15,2,-13,10,101,176,208,140,80,-4
442,358,-84,-400,263,136,-13,591,1008,1260,1070,631
835,838,3,-837,416,420,-398,126,921,1737,1841,1342
332,565,233,-448,49,398,-508,-883,-604,-60,617,800
-46,144,191,-49,-119,167,-286,-655,-689,-542,-95,166
-34,61,95,-14,-65,78,-104,-197,-162,-106,-12,39
-80,-20,60,50,-70,20,3,-63,-80,-127,-68,-38
-77,-43,34,59,-55,-4,19,-6,-5,-48,-13,-29
-95,-62,33,78,-64,-15,41,-11,-36,-103,-70,-73
-85,-60,26,72,-55,-17,40,12,-4,-60,-45,-67
-88,-65,23,76,-55,-21,43,5,-19,-78,-53,-64
-79,-61,18,70,-48,-22,49,21,-6,-67,-47,-64
-66,-53,13,59,-39,-20,51,22,-5,-58,-39,-54
-63,-52,11,58,-37,-21,58,29,-3,-59,-44,-58
-54,-45,9,49,-31,-17,57,37,11,-42,-30,-53
-53,-43,10,48,-31,-16,64,40,13,-46,-31,-51
-62,-37,25,49,-43,-5,64,49,26,-31,-19,-41
-67,-35,32,51,-49,-1,61,53,30,-30,-15,-37
-61,-32,29,46,-45,-1,60,58,45,-16,-8,-28
-60,-29,31,44,-45,1,60,68,60,-8,-1,-28
-56,-26,30,41,-42,1,60,79,71,5,12,-34
-55,-24,30,39,-42,2,59,98,93,36,28,-21
-42,-19,23,30,-32,2,63,119,116,51,33,-10
-24,-8,16,16,-19,3,68,138,138,60,43,-1
-10,-1,9,5,-10,4,65,154,170,86,66,12
8,9,1,-8,3,5,65,176,192,107,79,17
21,15,-6,-18,13,4,65,214,221,137,101,37
36,25,-10,-30,23,7,65,237,262,169,129,54
52,42,-10,-47,31,16,65,254,275,172,140,60
57,47,-10,-52,33,18,59,259,268,166,140,69
65,55,-10,-60,37,22,52,250,264,162,140,74
71,61,-10,-66,40,26,46,242,257,157,140,88
69,59,-10,-64,40,25,39,234,253,152,140,93
64,60,-3,-62,33,28,32,216,243,148,141,85
51,60,8,-56,22,34,26,173,205,125,136,80
44,61,17,-53,14,38,19,121,160,105,121,72
26,55,30,-41,-2,42,13,71,120,99,108,66
8,47,40,-27,-16,43,5,33,80,70,88,60
-1,41,42,-20,-22,41,1,12,41,38,67,49
-16,33,49,-8,-33,41,5,3,14,13,53,31
-29,26,55,1,-43,41,5,-1,7,2,44,22
-41,19,60,11,-50,39,5,-5,3,-2,39,25
-45,15,60,15,-53,37,5,-10,-1,-8,33,25
-45,15,60,15,-53,37,5,-15,-7,-13,29,25
-45,15,60,15,-53,37,8,-12,-10,-19,20,25
-45,15,60,15,-53,37,10,-9,-6,-16,29,24
-45,15,60,15,-53,37,13,-6,-3,-15,42,21
-49,11,61,19,-55,36,16,-3,0,-15,39,18
-56,10,66,23,-61,37,19,0,2,-10,40,16
-55,10,65,22,-60,37,20,-1,6,-10,36,12
-55,10,65,22,-60,37,15,-8,2,-11,35,10
-55,10,65,22,-60,37,15,-14,-6,-19,35,8
-56,9,65,23,-61,37,15,-21,-12,-26,30,4
-60,4,64,27,-63,34,15,-28,-20,-33,30,5
-60,1,61,30,-61,31,16,-34,-28,-41,29,1
-61,-2,58,31,-59,28,12,-39,-34,-47,24,0
-62,-7,55,34,-58,24,10,-40,-42,-54,19,0
-63,-10,53,36,-58,21,10,-40,-53,-55,14,-5
-56,-6,49,31,-52,21,6,-41,-55,-56,10,-5
-57,-5,53,31,-54,24,5,-45,-55,-60,5,-5
-61,-5,55,32,-58,25,5,-45,-59,-60,2,-5
-60,-5,55,32,-57,25,5,-47,-60,-60,-1,-5
-64,-5,59,34,-61,26,5,-50,-60,-64,-4,-7
-66,-6,60,36,-63,27,5,-50,-60,-65,-7,-12
-70,-11,59,40,-65,24,5,-50,-60,-66,-9,-14
-65,-10,56,37,-60,23,5,-50,-60,-67,-12,-11
-62,-10,51,36,-56,20,7,-50,-60,-64,-15,-8
-59,-10,49,34,-54,19,10,-50,-60,-61,-15,-6
-54,-10,44,31,-49,17,13,-50,-57,-59,-15,-2
-63,-22,41,42,-52,9,16,-49,-55,-54,-15,0
-64,-26,37,45,-50,5,20,-45,-55,-57,-15,0
-59,-24,35,41,-46,5,20,-45,-55,-61,-12,0
-57,-22,35,39,-46,6,15,-45,-55,-60,-9,0
-54,-19,35,36,-44,7,15,-45,-55,-60,-6,0
-56,-21,35,38,-46,7,15,-45,-60,-60,-3,0
-59,-24,34,41,-46,5,15,-41,-60,-60,0,0
-56,-25,30,41,-43,2,15,-40,-61,-61,0,-5
-54,-25,30,40,-42,2,18,-39,-65,-66,1,-9
-56,-25,30,40,-42,2,20,-35,-65,-64,-2,-14
-54,-24,30,39,-41,2,20,-35,-63,-66,2,-13
-58,-28,30,43,-44,1,23,-35,-58,-63,-3,-7
-60,-30,30,45,-45,0,26,-34,-55,-67,3,-2
-60,-30,30,45,-45,0,24,-35,-52,-59,1,1
-63,-33,30,48,-46,-1,21,-34,-47,-59,10,7
-65,-36,30,50,-47,-2,20,-35,-45,-54,15,10
-65,-34,30,50,-47,-2,20,-34,-45,-48,12,5
-60,-30,29,45,-44,0,20,-35,-45,-53,33,5
-56,-30,26,43,-41,-2,20,-35,-45,-33,8,4
-53,-28,24,40,-38,-2,22,-34,-46,-57,50,0
-51,-25,26,38,-38,0,26,-37,-44,-17,-7,0
-48,-24,24,36,-36,0,24,-32,-45,-69,62,2
-49,-23,26,36,-37,1,29,-38,-34,-7,-13,9
-30,-4,26,17,-28,11,30,-21,-34,-77,47,14
-39,1,40,18,-39,20,30,-30,-21,-286,434,20
-102,-39,63,70,-82,11,35,-2,-25,-14,215,25
-104,-45,59,74,-81,7,44,-122,-43,140,33,30
