I,II,III,aVR,aVL,aVF,V1,V2,V3,V4,V5,V6
-27,-99,-72,63,23,-85,29,-263,-493,-183,-208,-118
-35,-110,-75,73,20,-92,41,-242,-463,-160,-186,-102
-37,-112,-75,75,19,-93,31,-213,-441,-169,-190,-112
-116,-241,-125,179,4,-183,132,-264,-670,-383,-400,-278
-54,-329,-275,192,111,-302,282,134,-640,-586,-606,-445
269,82,-187,-176,228,-53,104,450,92,92,72,21
398,1258,860,-828,-231,1058,-421,231,1976,2205,2191,1554
244,1127,883,-686,-320,1004,-691,-1127,755,1948,1943,1690
30,158,127,-94,-48,142,-547,-1949,-1621,69,65,500
-54,-55,-1,55,-26,-28,-304,-966,-993,-213,-216,36
-36,-125,-89,81,27,-107,-60,-344,-599,-195,-203,-82
-70,-119,-49,95,-11,-83,30,-199,-528,-165,-175,-100
-57,-118,-61,88,2,-89,38,-108,-425,-149,-158,-107
8,-113,-121,53,65,-116,49,-112,-472,-163,-173,-112
8,-101,-109,47,59,-104,43,-70,-397,-130,-140,-100
20,-100,-119,40,70,-109,44,-87,-447,-149,-159,-109
4,-100,-104,48,55,-101,42,-56,-396,-125,-130,-102
-8,-121,-113,65,52,-117,62,-43,-417,-155,-167,-133
3,-70,-73,34,38,-72,55,0,-386,-142,-158,-125
-28,-82,-55,55,14,-68,49,43,-378,-140,-150,-112
17,-98,-116,41,67,-107,48,67,-358,-136,-145,-100
18,-92,-110,37,64,-100,39,86,-319,-126,-133,-84
0,-99,-99,49,50,-98,47,130,-290,-126,-132,-72
39,-68,-107,15,73,-88,51,153,-247,-108,-126,-53
43,-47,-90,2,67,-68,47,193,-213,-98,-118,-32
19,-51,-70,16,45,-60,45,250,-169,-72,-88,-12
22,-15,-37,-3,29,-25,42,266,-120,-22,-36,21
71,38,-34,-54,52,2,40,305,-63,22,16,48
34,42,8,-38,12,25,37,334,-3,104,95,86
4,81,77,-43,-37,79,34,345,46,182,171,133
38,110,72,-74,-17,91,36,341,76,239,228,149
32,114,81,-73,-25,97,34,315,82,298,285,179
28,143,115,-86,-44,128,36,280,61,372,361,190
30,124,94,-78,-32,109,33,215,0,439,447,176
12,107,95,-59,-42,101,20,123,-70,428,457,176
30,105,75,-68,-23,90,2,36,-142,414,433,148
32,72,41,-52,-5,56,-10,-50,-235,405,397,97
-28,30,57,-1,-43,43,-20,-112,-297,376,372,54
-19,6,25,6,-23,15,-28,-149,-358,356,359,22
27,4,-23,-15,25,-9,-20,-171,-382,352,345,6
-11,-26,-14,19,2,-20,-10,-171,-383,347,342,-11
-62,-73,-11,68,-25,-41,5,-189,-410,346,341,-37
-28,-79,-51,54,12,-65,29,-200,-408,376,360,-60
-17,-87,-71,52,27,-79,42,-192,-421,381,356,-59
-16,-86,-70,51,27,-77,61,-187,-436,379,351,-60
-22,-92,-70,57,24,-81,84,-182,-458,377,348,-70
-57,-126,-69,92,6,-97,83,-174,-468,374,342,-69
-56,-135,-80,96,12,-107,77,-193,-477,376,340,-101
-49,-132,-82,90,17,-107,74,-219,-502,368,332,-121
-64,-120,-55,92,-4,-87,68,-212,-483,373,345,-108
-74,-109,-35,92,-19,-72,65,-211,-480,365,350,-103
-36,-105,-69,71,17,-87,58,-207,-461,385,378,-93
-24,-105,-81,65,29,-92,48,-205,-432,399,394,-89
-35,-104,-69,69,17,-86,40,-207,-427,401,400,-79
-31,-98,-68,65,18,-83,29,-212,-414,336,333,-96
-42,-101,-59,72,8,-80,27,-241,-406,172,174,-129
-48,-104,-56,76,4,-80,31,-246,-394,112,121,-130
-54,-117,-63,85,5,-89,30,-245,-385,104,116,-130
-14,-95,-80,55,33,-87,30,-250,-374,96,115,-130
12,-59,-72,24,42,-65,30,-250,-366,130,130,-129
-41,-107,-66,74,13,-86,29,-248,-358,141,134,-130
-52,-111,-58,82,3,-84,36,-226,-334,139,136,-120
-18,-52,-33,35,8,-42,76,-203,-303,138,131,-111
-35,-36,-1,35,-17,-18,88,-196,-273,153,151,-100
-72,-34,39,52,-55,3,49,-180,-262,162,162,-91
-45,-37,9,41,-26,-14,38,-164,-260,158,156,-89
-14,-33,-19,24,3,-25,9,-202,-252,162,157,-83
21,-38,-59,9,41,-48,-19,-249,-254,156,148,-86
29,-31,-60,1,45,-45,-13,-240,-240,166,155,-69
-44,-59,-15,52,-14,-37,-16,-250,-248,136,125,-106
-25,-115,-89,70,32,-102,-14,-241,-233,97,81,-168
-18,-123,-105,71,43,-114,-16,-252,-243,71,59,-166
-61,-117,-56,89,-2,-87,-14,-284,-233,77,67,-154
-14,-131,-117,72,52,-124,-8,-266,-228,66,58,-180
-15,-141,-126,79,56,-134,0,-276,-216,57,53,-189
-20,-140,-120,80,51,-130,3,-244,-149,68,64,-178
-6,-141,-135,74,65,-138,12,-271,-226,31,37,-196
-23,-129,-106,77,42,-117,15,-228,-115,77,81,-169
-52,-214,-162,134,55,-188,45,-271,-255,-69,-63,-265
-123,-311,-188,217,33,-249,181,-150,-312,-236,-242,-430
67,-333,-400,133,234,-366,218,289,-244,-321,-337,-501
349,506,157,-427,96,331,-101,400,1285,1145,1137,504
340,1412,1073,-876,-367,1242,-499,-329,2487,2755,2750,1791
117,705,588,-412,-236,646,-525,-1730,-178,1256,1260,1086
-69,-75,-6,72,-32,-40,-378,-1669,-1215,-26,-70,22
-54,-180,-125,117,36,-152,-204,-643,-266,56,29,-161
-39,-203,-164,122,62,-183,-12,-288,-169,7,22,-214
-37,-166,-129,102,46,-147,10,-152,72,101,96,-209
-24,-181,-157,103,67,-169,18,-140,27,51,53,-242
-20,-157,-136,89,58,-146,41,-90,105,80,82,-238
-14,-165,-151,90,68,-158,44,-72,92,97,88,-239
-33,-174,-141,104,54,-157,46,-55,95,103,89,-242
-8,-164,-156,86,74,-160,38,-30,142,111,99,-237
26,-150,-176,62,101,-162,40,-25,139,105,92,-243
34,-141,-175,54,105,-158,32,-5,162,114,112,-233
39,-134,-173,48,106,-153,43,38,182,115,117,-228
52,-127,-179,38,116,-153,57,94,214,120,133,-218
9,-151,-160,71,85,-155,53,82,198,112,132,-211
-7,-129,-121,68,57,-125,51,126,279,151,152,-204
45,-97,-142,26,94,-119,47,158,328,173,168,-190
45,-84,-130,20,87,-107,45,193,374,193,179,-177
45,-52,-97,4,72,-74,43,248,438,220,214,-156
75,-11,-86,-32,81,-48,38,283,514,263,252,-123
66,2,-64,-34,65,-31,35,331,593,319,307,-85
40,40,0,-40,20,20,32,343,631,361,350,-52
46,86,40,-66,2,63,27,353,652,381,369,-33
55,91,36,-74,10,63,24,315,643,374,388,-14
41,104,63,-73,-11,83,20,276,630,367,387,-3
12,95,83,-54,-35,89,20,237,590,362,372,15
36,97,61,-67,-13,79,20,154,533,351,347,26
16,80,64,-48,-25,72,20,94,462,308,298,-2
-26,42,68,-8,-48,55,21,20,373,245,237,-52
-19,11,30,4,-24,20,17,-46,301,183,182,-95
-43,-28,15,35,-29,-6,15,-82,238,129,129,-109
-49,-38,12,43,-30,-13,11,-116,194,85,81,-135
-39,-57,-17,48,-11,-37,11,-141,179,46,47,-159
-69,-87,-17,78,-26,-52,25,-155,169,21,22,-172
-101,-126,-25,114,-38,-76,33,-151,157,0,5,-199
-83,-143,-61,113,-11,-102,25,-146,148,-33,-31,-211
-86,-132,-46,109,-20,-89,42,-140,140,-56,-51,-215
-76,-133,-57,105,-9,-95,59,-113,129,-58,-52,-212
-51,-126,-75,89,12,-101,48,-108,100,-68,-78,-208
-58,-125,-67,91,5,-95,40,-141,83,-76,-84,-205
-48,-120,-72,84,12,-96,30,-151,86,-83,-98,-201
-44,-113,-69,79,13,-91,22,-144,84,-82,-105,-196
-39,-110,-70,74,16,-90,17,-142,84,-73,-82,-182
-37,-102,-65,70,14,-83,11,-137,95,-68,-72,-168
-37,-98,-62,67,13,-79,6,-134,114,-61,-66,-159
-34,-92,-58,63,13,-75,-1,-131,133,-55,-58,-154
-33,-88,-55,61,11,-71,-4,-128,144,-50,-54,-149
-33,-83,-50,58,9,-67,-1,-126,152,-50,-44,-143
-31,-79,-48,55,9,-63,0,-122,146,-49,-46,-137
-32,-75,-43,54,6,-59,1,-120,136,-45,-55,-133
-29,-69,-40,49,6,-54,6,-118,128,-45,-52,-127
-27,-65,-38,46,5,-51,3,-111,118,-43,-48,-122
-26,-56,-30,41,3,-43,9,-104,116,-35,-45,-118
-22,-55,-33,39,5,-44,19,-98,112,-30,-41,-114
-43,-41,2,42,-23,-19,35,-90,109,-23,-39,-110
-33,-8,25,20,-30,8,59,-85,107,-16,-33,-99
10,45,35,-27,-13,39,52,-83,105,-10,-27,-75
22,69,46,-46,-12,57,12,-81,101,-3,-24,-45
26,22,-4,-24,15,9,-31,-77,91,8,-17,-34
33,-5,-38,-13,35,-21,-42,-99,78,17,-17,-47
24,-18,-43,-3,34,-30,-36,-105,73,21,-6,-38
16,-17,-33,1,25,-25,-34,-105,31,-8,-20,-36
-36,-58,-23,47,-6,-40,-29,-106,0,-41,-50,-68
-68,-139,-71,104,1,-105,-26,-114,-46,-75,-78,-100
-62,-123,-62,93,0,-92,-22,-118,-56,-65,-73,-92
-69,-125,-56,97,-6,-90,-17,-103,-65,-59,-72,-95
-43,-124,-81,83,19,-102,-8,-120,-75,-75,-82,-98
-20,-108,-88,64,35,-98,-4,-88,-58,-82,-87,-88
-29,-127,-98,78,35,-113,6,-125,-168,-121,-126,-106
-10,-84,-74,47,32,-79,8,-69,-68,-68,-73,-69
-40,-157,-117,98,39,-137,55,-104,-233,-180,-185,-137
-115,-286,-171,201,28,-228,189,-3,-330,-383,-387,-317
69,-338,-407,134,239,-372,230,471,-285,-494,-500,-405
317,508,191,-413,63,350,-88,620,1296,978,976,624
351,1456,1106,-904,-378,1281,-549,-120,2499,2585,2590,1921
154,748,594,-451,-221,671,-609,-1587,-285,1124,1127,1262
-88,-31,57,59,-72,13,-429,-1565,-1392,-208,-208,219
-80,-116,-36,98,-22,-76,-204,-487,-431,-145,-150,-6
-67,-145,-78,106,5,-111,2,-119,-350,-160,-196,-59
-101,-118,-17,110,-42,-67,39,-5,-139,-83,-131,-39
-43,-139,-96,91,27,-117,50,19,-211,-140,-161,-86
-3,-124,-121,63,59,-122,45,66,-171,-125,-133,-81
-17,-138,-121,77,53,-129,36,52,-217,-130,-133,-89
13,-99,-113,43,63,-106,36,74,-238,-134,-129,-106
35,-72,-107,19,71,-90,24,133,-207,-124,-114,-90
14,-89,-104,38,59,-96,28,139,-225,-136,-118,-85
21,-75,-96,27,59,-85,39,156,-181,-113,-101,-70
19,-76,-96,29,58,-86,41,166,-182,-101,-98,-64
21,-69,-91,24,56,-80,35,205,-155,-82,-77,-54
25,-65,-89,20,57,-77,34,241,-146,-74,-69,-46
23,-63,-85,21,54,-74,30,258,-118,-58,-57,-28
33,-51,-85,10,59,-68,31,299,-85,-46,-48,0
25,-51,-75,13,50,-63,36,366,-42,-28,-23,14
55,-9,-64,-23,59,-36,39,403,14,8,7,46
112,62,-50,-87,81,6,37,438,74,38,26,85
91,56,-35,-73,63,10,29,472,133,49,40,99
74,76,1,-75,36,38,23,518,204,98,95,136
93,131,39,-112,26,85,16,500,229,187,185,182
68,130,62,-99,2,96,9,481,219,240,238,199
71,152,81,-112,-5,116,3,471,212,279,278,199
79,160,81,-119,-2,120,-2,388,170,300,297,190
50,123,73,-87,-12,97,-8,315,97,300,302,182
32,95,62,-64,-15,78,-14,220,-3,299,306,175
14,90,76,-52,-32,83,-9,143,-77,302,306,160
11,59,48,-35,-18,53,8,86,-152,323,325,118
-39,-13,27,26,-33,7,17,34,-230,326,325,67
-31,-13,18,22,-24,3,15,14,-261,324,324,27
-3,-40,-36,22,17,-38,15,-19,-294,326,326,-2
-34,-75,-41,54,4,-58,13,-41,-321,324,323,-11
-13,-49,-35,31,11,-42,10,-37,-330,325,328,-25
-50,-88,-38,70,-6,-63,10,-27,-333,318,329,-47
-80,-107,-27,93,-26,-67,14,-44,-352,322,331,-52
-58,-93,-35,75,-11,-63,23,-62,-391,318,328,-53
-66,-93,-27,80,-19,-60,28,-50,-405,322,331,-60
-40,-83,-44,62,2,-63,39,-48,-410,318,329,-75
-65,-81,-16,73,-25,-48,39,-39,-426,317,323,-75
-120,-73,48,96,-84,-12,21,-43,-440,343,355,-75
-29,-62,-33,46,2,-48,8,-79,-459,328,368,-86
-12,-56,-45,34,17,-50,2,-77,-454,345,363,-74
-71,-49,22,60,-46,-13,-2,-66,-438,374,372,-60
-69,-43,26,56,-48,-8,-7,-69,-432,367,370,-54
-22,-36,-14,29,-4,-25,-11,-48,-421,363,368,-51
14,-29,-43,7,29,-36,-16,-84,-414,379,383,-48
-72,-50,22,61,-46,-14,-9,-127,-404,405,407,-43
-40,-69,-29,54,-5,-48,-6,-101,-395,405,414,-40
-18,-63,-45,41,14,-54,0,-90,-385,404,406,-36
-52,-67,-15,60,-18,-41,2,-85,-374,406,397,-35
-46,-63,-18,54,-14,-40,15,-73,-361,402,391,-35
-70,-2,68,36,-69,33,54,-70,-346,431,431,-36
-1,49,50,-25,-26,49,39,-56,-339,464,470,-35
-3,35,37,-16,-20,36,14,-58,-340,445,449,-35
-16,56,72,-20,-44,64,10,-80,-340,470,476,-24
33,57,24,-45,4,40,-22,-71,-338,383,388,-16
72,31,-41,-52,57,-5,-45,-67,-343,207,211,-3
52,34,-18,-43,35,8,-49,-93,-335,163,164,14
-20,-11,9,15,-14,-1,-18,-114,-346,94,91,-30
-26,-53,-28,40,1,-40,-9,-100,-346,40,40,-70
-26,-77,-51,52,12,-64,-26,-111,-364,-1,5,-80
-26,-63,-37,45,5,-49,-28,-123,-336,-3,1,-69
-18,-78,-61,48,22,-69,-48,-123,-340,-28,-18,-98
-16,-72,-56,44,20,-63,-28,-131,-343,-34,-24,-109
-13,-74,-61,43,25,-67,-13,-107,-325,-20,-29,-108
-42,-107,-65,74,12,-85,-5,-140,-374,-34,-41,-117
-35,-81,-46,58,5,-63,-17,-93,-296,10,6,-95
-63,-174,-111,119,25,-143,25,-167,-441,-151,-156,-211
-138,-276,-138,207,0,-206,201,22,-460,-351,-354,-371
69,-265,-334,98,201,-299,175,458,-261,-337,-347,-367
366,733,367,-550,-1,550,-192,531,1413,1378,1376,839
362,1479,1116,-921,-377,1297,-577,-349,1967,2567,2571,1893
104,555,450,-330,-173,502,-597,-1732,-739,798,803,943
-92,-40,51,66,-71,5,-412,-1397,-1237,-192,-190,65
-57,-53,4,55,-30,-25,-208,-420,-388,-79,-91,-79
-52,-98,-46,76,-3,-72,-49,-145,-327,-135,-138,-123
-69,-89,-20,79,-25,-54,-31,-24,-129,-62,-65,-108
-14,-110,-96,62,41,-103,-8,-19,-202,-100,-109,-159
-8,-95,-87,52,40,-91,0,43,-125,-58,-67,-150
-12,-110,-98,61,44,-104,2,31,-144,-73,-81,-164
-15,-102,-87,58,36,-94,11,54,-112,-60,-67,-159
-28,-116,-88,73,30,-101,14,86,-87,-55,-61,-159
-26,-111,-85,69,30,-98,21,100,-88,-56,-59,-157
-36,-119,-83,77,23,-100,15,130,-39,-44,-45,-153
9,-95,-104,43,57,-99,15,128,-30,-45,-46,-156
23,-73,-96,25,60,-84,9,173,4,-31,-33,-146
29,-59,-87,15,58,-73,16,197,32,-30,-29,-142
59,-21,-80,-19,69,-50,21,229,80,-17,-20,-134
36,-34,-69,-1,53,-51,14,268,119,2,-12,-128
30,-38,-68,4,49,-53,11,298,184,41,30,-114
25,-5,-29,-10,27,-17,6,366,245,70,70,-86
61,58,-3,-60,32,27,2,413,323,107,110,-52
26,47,20,-37,3,33,-2,445,405,165,166,-7
13,81,67,-47,-27,74,-7,477,448,200,203,39
110,150,41,-130,34,95,-10,464,492,233,238,50
61,135,74,-98,-7,104,-13,452,500,268,266,55
21,132,111,-77,-45,121,-18,404,491,266,264,57
45,123,78,-84,-17,100,-20,306,444,248,252,46
23,116,93,-69,-36,104,-16,247,379,221,227,42
22,108,86,-65,-32,97,-11,175,307,174,182,19
31,100,68,-66,-19,84,-9,90,235,121,136,-17
27,43,16,-34,5,29,-4,33,203,72,84,-52
-15,-27,-12,22,-1,-20,0,-12,156,24,26,-101
-44,-37,7,40,-25,-15,-2,-47,142,-10,-9,-133
-55,-59,-3,57,-26,-31,-12,-57,147,-32,-31,-138
-55,-74,-20,65,-18,-47,-23,-81,144,-59,-64,-158
-55,-78,-23,67,-16,-50,-14,-97,152,-75,-81,-188
-39,-76,-37,58,-1,-56,-1,-81,149,-91,-81,-194
-42,-69,-28,56,-7,-48,19,-79,148,-86,-91,-199
-76,-64,11,70,-43,-26,45,-70,156,-91,-114,-225
-44,-59,-15,52,-14,-37,45,-64,140,-107,-127,-229
-87,-51,36,69,-61,-7,39,-59,120,-102,-114,-201
-70,3,73,33,-72,38,38,-53,139,-93,-100,-160
5,50,45,-28,-21,48,31,-48,168,-61,-94,-130
-21,67,87,-23,-54,77,30,-41,180,-55,-90,-127
-2,70,72,-35,-37,71,40,-41,183,-68,-89,-121
15,39,24,-28,-5,31,14,-40,193,-65,-82,-124
19,-9,-28,-5,24,-18,-9,-56,171,-75,-81,-155
-25,-52,-27,39,1,-39,-10,-63,163,-82,-84,-165
-85,-107,-22,97,-31,-64,-22,-78,152,-118,-111,-180
-52,-118,-66,85,7,-92,-23,-120,131,-130,-118,-200
-36,-110,-74,73,20,-92,-35,-103,142,-117,-111,-196
-50,-123,-73,87,12,-97,-32,-116,97,-138,-132,-206
-48,-104,-56,76,5,-80,-27,-91,151,-112,-106,-191
-57,-130,-74,94,9,-102,-22,-104,83,-161,-162,-212
-63,-99,-36,81,-13,-67,-12,-84,159,-113,-124,-185
-65,-150,-85,108,10,-117,-17,-72,72,-175,-179,-207
-148,-250,-102,199,-23,-176,102,-92,-58,-355,-353,-343
-74,-374,-300,224,113,-337,207,293,-124,-626,-628,-546
221,140,-81,-181,151,30,21,599,804,257,254,78
315,1347,1033,-831,-359,1190,-379,105,2677,2333,2341,1611
112,1115,1002,-614,-446,1059,-547,-1328,825,1670,1683,1528
-102,145,247,-21,-175,196,-434,-1789,-1179,-98,-90,330
-74,-57,17,66,-45,-20,-296,-802,-349,-243,-233,-81
-42,-100,-58,71,8,-78,-108,-220,-76,-232,-227,-148
-67,-125,-58,96,-5,-92,-32,-30,116,-193,-188,-141
-34,-133,-99,83,32,-116,-35,24,127,-206,-201,-158
-41,-130,-89,86,24,-110,-25,59,147,-205,-205,-165
-40,-128,-88,84,24,-108,-34,90,200,-192,-191,-154
-42,-134,-92,88,25,-113,-27,97,148,-208,-208,-156
-7,-120,-113,64,53,-117,-32,128,192,-176,-179,-143
23,-88,-111,33,67,-99,-27,139,149,-178,-182,-144
27,-67,-94,20,61,-81,-25,175,177,-154,-160,-132
33,-71,-104,19,69,-88,-25,167,161,-149,-158,-120
28,-67,-95,20,62,-81,-21,227,179,-134,-144,-92
35,-61,-96,14,66,-78,-20,281,198,-124,-135,-70
17,-78,-95,31,57,-86,-20,289,201,-116,-126,-69
21,-70,-91,25,56,-80,-25,335,197,-104,-114,-61
57,-27,-84,-15,71,-55,-25,374,221,-91,-99,-33
78,1,-78,-39,78,-38,-25,416,279,-63,-65,11
45,11,-34,-28,39,-11,-25,482,331,-28,-24,48
58,36,-23,-47,40,6,-25,523,382,16,20,77
101,71,-30,-85,65,20,-23,524,383,52,49,110
84,86,2,-85,41,44,-19,521,367,76,76,122
119,120,2,-120,58,61,-17,491,358,104,103,118
104,117,13,-111,45,65,-14,443,326,103,95,116
48,87,40,-68,4,63,-11,392,260,85,78,109
38,86,48,-63,-6,67,-9,320,178,65,52,107
14,77,63,-46,-24,70,-6,236,71,14,3,90
-10,46,56,-18,-33,50,-1,156,-35,-40,-44,50
-30,14,45,8,-38,29,1,104,-115,-90,-94,10
-24,5,29,10,-27,16,6,66,-175,-135,-144,-18
-44,-30,14,37,-29,-8,9,29,-207,-159,-173,-36
-41,-53,-12,48,-14,-32,13,13,-244,-175,-182,-54
-35,-46,-10,40,-12,-28,22,-2,-268,-183,-184,-64
-114,-87,27,100,-70,-30,33,-29,-310,-191,-194,-85
-63,-87,-24,75,-19,-55,42,-32,-330,-193,-197,-102
-31,-66,-35,49,2,-51,40,-4,-323,-182,-188,-102
-113,-137,-24,125,-44,-80,33,5,-369,-175,-180,-115
-52,-122,-70,87,9,-96,29,-27,-388,-168,-173,-116
-34,-87,-53,61,10,-70,22,-39,-383,-158,-162,-104
-57,-103,-45,80,-5,-74,18,-25,-388,-143,-145,-95
-20,-59,-39,40,10,-49,12,-27,-390,-130,-130,-86
-31,-47,-16,39,-7,-31,10,-12,-389,-120,-117,-85
-26,-60,-34,43,5,-47,10,-26,-391,-110,-105,-84
-11,-65,-53,38,21,-59,10,-64,-400,-100,-97,-81
-7,-57,-50,32,21,-53,11,-33,-394,-90,-89,-79
-20,-58,-38,39,10,-47,9,-21,-388,-80,-81,-82
-52,-90,-38,71,-7,-63,6,-52,-383,-70,-74,-85
-69,-89,-19,79,-25,-54,3,-36,-377,-64,-67,-85
-81,-92,-10,87,-35,-51,0,-29,-373,-61,-63,-85
-42,-83,-41,62,0,-62,-3,-61,-369,-57,-57,-85
-34,-88,-54,61,11,-71,-6,-58,-371,-54,-51,-85
-40,-79,-38,60,-1,-58,-3,-43,-369,-50,-46,-82
-6,-48,-41,27,18,-44,2,-41,-371,-47,-41,-79
-46,-101,-55,74,5,-77,5,-39,-380,-44,-40,-76
-73,-104,-31,89,-20,-67,-1,-38,-380,-41,-40,-73
-104,-114,-10,109,-47,-62,-7,-34,-380,-38,-40,-70
-95,-95,0,95,-47,-48,-11,-36,-375,-35,-40,-69
-37,-45,-8,41,-14,-26,-19,-29,-376,-35,-40,-58
-35,-85,-50,61,7,-67,-16,-16,-373,-26,-23,-46
3,-60,-63,29,33,-62,-9,-4,-347,-13,-5,-39
22,-37,-60,8,41,-49,5,21,-324,-2,-6,-41
45,-55,-100,5,73,-77,-31,27,-320,10,-1,-39
35,-86,-121,26,78,-103,-90,-43,-380,1,0,-41
-9,-107,-98,59,45,-103,-74,-87,-407,-3,0,-40
5,-95,-100,45,52,-97,-47,-33,-398,-11,-8,-38
-29,-86,-57,58,14,-71,-37,-48,-403,-19,-18,-37
-57,-69,-13,63,-22,-41,-24,-80,-379,-21,-16,-30
-38,-75,-38,57,0,-56,-19,-86,-402,-26,-43,-56
-4,-53,-49,29,23,-51,-21,-65,-355,2,-36,-61
-20,-79,-60,50,20,-69,-19,-75,-413,-58,-58,-72
-53,-85,-32,69,-10,-58,-20,-59,-390,-54,-30,-57
-38,-89,-51,64,7,-70,-21,-55,-423,-73,-58,-72
-61,-83,-22,72,-19,-53,-11,-88,-387,-52,-37,-61
-21,-55,-34,38,7,-45,4,-17,-378,-47,-38,-49
-99,-160,-61,130,-19,-111,108,-76,-595,-205,-206,-176
-115,-303,-188,210,36,-245,259,239,-627,-420,-424,-377
228,38,-190,-133,209,-76,118,624,-31,90,86,-30
430,1199,769,-815,-170,984,-410,485,2174,2174,2182,1470
316,1256,939,-786,-312,1097,-716,-750,1272,2224,2235,1827
68,247,179,-158,-56,213,-590,-1781,-1511,281,292,637
-72,-24,47,48,-60,12,-335,-895,-995,-113,-105,108
-54,-70,-16,62,-19,-43,-74,-180,-512,-74,-73,15
-16,-73,-57,45,21,-65,5,-46,-444,-84,-84,-20
-6,-54,-47,30,21,-50,25,73,-320,-66,-66,-31
4,-55,-60,25,32,-57,51,57,-389,-105,-105,-59
-18,-55,-37,37,10,-46,41,130,-308,-89,-89,-49
-45,-99,-55,73,5,-77,48,102,-368,-129,-128,-60
-38,-76,-37,58,0,-57,43,107,-317,-94,-91,-42
-15,-80,-65,48,25,-72,45,144,-334,-105,-101,-47
1,-66,-67,33,34,-67,36,170,-289,-91,-86,-37
-79,-68,11,74,-45,-29,65,193,-261,-74,-69,-33
-3,-72,-69,37,33,-70,93,221,-243,-87,-86,-62
46,-82,-128,19,87,-105,80,223,-224,-92,-90,-65
-20,-88,-68,54,24,-78,77,260,-189,-76,-72,-47
9,-40,-48,16,29,-44,69,296,-135,-59,-52,-34
-14,-21,-7,17,-3,-14,62,323,-90,-34,-26,-13
35,-6,-41,-15,38,-23,58,391,-35,-9,-9,14
61,26,-35,-44,48,-4,53,429,34,20,23,47
11,26,15,-18,-2,20,51,461,106,37,48,77
49,64,15,-57,17,40,47,480,161,42,50,96
60,116,56,-88,2,86,43,468,235,71,83,124
85,120,36,-103,24,78,39,464,253,102,109,158
33,136,104,-85,-36,120,35,442,252,109,107,163
22,171,149,-97,-64,160,30,388,209,98,94,152
95,161,66,-129,14,113,26,342,147,83,85,145
2,111,109,-57,-54,110,21,254,103,52,64,138
-10,98,108,-44,-60,103,17,165,14,5,8,117
8,64,56,-37,-24,60,12,118,-46,-70,-66,74
-30,20,51,5,-41,35,10,51,-120,-135,-131,46
-18,9,27,4,-23,18,16,10,-178,-188,-183,15
-7,-6,2,6,-4,-2,28,-11,-160,-239,-229,-25
-43,-32,11,38,-27,-10,32,-30,-166,-256,-259,-49
-61,-64,-3,63,-29,-33,55,-34,-197,-278,-278,-65
-36,-71,-35,54,-1,-53,85,-47,-203,-298,-297,-85
-50,-73,-23,62,-13,-48,85,-53,-217,-310,-318,-106
-55,-75,-20,65,-17,-47,84,-52,-222,-328,-331,-116
-79,-95,-15,87,-32,-55,86,-39,-218,-341,-340,-125
-102,-108,-6,105,-47,-57,84,-72,-233,-357,-356,-125
-93,-103,-10,99,-41,-57,87,-119,-245,-373,-363,-117
-90,-106,-16,98,-37,-61,95,-107,-250,-370,-356,-132
-71,-104,-33,88,-18,-68,82,-104,-231,-355,-348,-151
-39,-105,-66,73,14,-86,64,-99,-203,-346,-343,-146
-35,-99,-64,68,14,-81,60,-91,-196,-334,-332,-141
-28,-94,-66,62,19,-80,55,-94,-183,-326,-318,-138
-23,-88,-66,56,22,-77,53,-94,-142,-307,-305,-131
-21,-83,-62,53,20,-72,48,-97,-109,-280,-297,-132
0,-77,-77,39,39,-77,45,-91,-101,-283,-291,-135
-38,-73,-35,56,-1,-54,41,-100,-89,-290,-284,-138
-2,-65,-63,34,31,-64,40,-105,-77,-282,-277,-140
45,-61,-106,9,75,-83,40,-99,-59,-276,-271,-143
-14,-101,-87,58,37,-93,35,-98,-37,-269,-264,-146
-10,-102,-92,56,41,-97,35,-90,-20,-263,-257,-144
-10,-96,-86,53,38,-91,36,-93,-7,-257,-251,-146
-6,-89,-83,48,39,-86,40,-74,8,-249,-244,-144
1,-86,-87,43,44,-87,40,-76,26,-241,-239,-147
-43,-126,-83,85,20,-104,40,-102,51,-233,-236,-150
-9,-96,-87,53,39,-91,48,-96,75,-226,-233,-155
7,-77,-84,35,46,-80,51,-93,89,-219,-228,-167
3,-82,-84,40,44,-83,48,-90,119,-213,-225,-171
20,-65,-85,23,53,-75,48,-85,125,-208,-221,-169
-21,-59,-39,40,9,-49,42,-82,133,-203,-210,-164
-12,-39,-26,26,7,-32,51,-77,184,-197,-201,-168
-29,-14,15,21,-22,1,78,-47,219,-178,-189,-138
-47,18,64,14,-56,41,67,-26,233,-175,-185,-112
-21,39,61,-9,-41,50,29,-32,253,-174,-184,-120
17,36,20,-27,-2,28,0,-56,247,-176,-184,-110
111,33,-78,-72,94,-22,-25,-68,240,-175,-179,-93
105,13,-92,-59,98,-39,-33,-58,231,-172,-179,-89
33,-42,-75,5,54,-58,-7,-59,217,-191,-190,-124
-16,-90,-74,53,30,-82,3,-50,221,-213,-208,-152
-46,-113,-67,80,11,-90,9,-105,192,-238,-238,-158
-58,-110,-53,84,-2,-81,17,-98,218,-226,-225,-148
-62,-119,-57,91,-2,-88,20,-97,168,-245,-245,-154
-37,-100,-62,69,13,-81,33,-87,207,-213,-213,-135
-44,-116,-72,81,14,-94,19,-76,159,-242,-242,-148
-91,-94,-3,93,-43,-49,35,-88,179,-210,-210,-127
-27,-107,-81,67,27,-94,25,-38,177,-245,-247,-148
-73,-220,-148,147,38,-184,102,-80,-2,-453,-453,-300
-102,-352,-250,228,74,-301,255,287,6,-667,-664,-480
209,-9,-218,-100,213,-113,116,615,557,-128,-129,-88
357,1188,830,-773,-237,1008,-351,258,2566,1971,1974,1422
226,1239,1014,-733,-394,1126,-619,-1004,1603,1952,1964,1719
0,213,213,-107,-106,213,-490,-1830,-1016,-22,-16,506
-135,-108,26,122,-80,-41,-317,-946,-479,-382,-380,-31
-79,-146,-67,113,-6,-106,-95,-218,7,-297,-290,-105
-62,-132,-70,97,4,-100,1,-7,154,-258,-255,-91
-30,-123,-93,76,32,-107,-24,89,257,-260,-259,-115
-4,-127,-123,66,60,-125,17,58,177,-320,-315,-155
2,-107,-109,53,56,-108,29,138,293,-267,-262,-121
-9,-114,-105,62,48,-109,38,124,221,-286,-281,-124
-40,-96,-56,68,9,-76,34,137,265,-253,-251,-104
21,-98,-119,39,70,-108,35,141,228,-258,-260,-104
45,-86,-131,21,88,-108,36,168,237,-240,-245,-91
24,-84,-107,30,66,-95,34,210,233,-232,-241,-87
31,-76,-107,23,69,-91,33,215,230,-224,-232,-74
21,-68,-89,24,55,-78,29,234,242,-210,-217,-59
11,-65,-75,27,43,-70,31,275,227,-204,-206,-46
44,-50,-95,3,70,-72,30,322,259,-191,-177,-16
46,-34,-80,-6,63,-56,28,340,282,-168,-149,6
73,19,-54,-46,63,-17,41,382,322,-123,-113,44
107,43,-64,-75,85,-10,51,421,343,-88,-94,54
68,50,-18,-58,43,16,45,455,372,-50,-54,69
103,90,-13,-96,58,38,43,496,438,-8,-2,113
52,103,52,-78,0,77,38,497,464,54,57,152
17,106,88,-62,-36,97,35,482,464,108,117,195
69,122,54,-96,7,88,32,460,433,119,130,202
65,173,107,-119,-21,140,27,424,387,132,136,214
70,150,79,-110,-5,114,24,343,318,116,117,217
35,110,75,-72,-20,92,22,275,230,81,82,205
10,118,108,-64,-49,112,15,209,143,36,44,175
-20,72,92,-26,-56,81,18,142,43,-21,-15,124
-51,35,87,8,-69,61,27,96,-16,-55,-55,91
-56,18,74,19,-65,46,32,54,-56,-86,-80,62
-30,-3,27,16,-28,12,28,40,-115,-94,-91,35
-19,-20,0,20,-9,-10,32,17,-141,-88,-90,9
-21,-33,-12,28,-4,-22,48,20,-160,-88,-87,-13
-60,-47,13,53,-36,-17,53,-9,-214,-83,-84,-30
-102,-62,40,82,-71,-11,92,-19,-234,-81,-81,-28
-43,-75,-32,59,-5,-53,103,18,-257,-80,-79,-49
-24,-87,-63,55,20,-74,86,4,-278,-73,-73,-77
-41,-89,-48,65,4,-69,83,6,-286,-62,-62,-69
-42,-56,-15,49,-13,-35,69,-1,-311,-53,-52,-65
-25,-43,-18,34,-3,-30,66,-3,-328,-41,-38,-60
-22,-84,-62,54,20,-73,61,-8,-336,-23,-18,-53
-16,-61,-44,39,14,-52,59,-10,-328,5,2,-50
-21,-38,-18,30,-1,-28,54,-2,-325,19,23,-43
-46,-58,-12,52,-17,-35,51,-29,-320,45,51,-40
-46,-46,1,46,-23,-22,47,-42,-315,70,74,-35
-59,-47,13,53,-36,-17,38,-41,-319,61,79,-29
5,-35,-40,15,23,-37,31,-36,-320,72,83,-51
40,-35,-75,-2,58,-55,18,-52,-321,99,104,-62
5,-24,-29,9,17,-26,47,-66,-319,130,132,-52
-15,-13,3,14,-9,-5,67,-61,-324,155,153,-51
-42,-54,-12,48,-14,-33,57,-57,-335,162,165,-44
-24,-35,-10,29,-6,-22,51,-53,-335,164,170,-41
-17,-5,12,11,-15,4,45,-51,-334,161,169,-35
6,-9,-15,2,11,-12,36,-37,-336,153,162,-27
6,1,-5,-3,5,-2,40,-53,-333,158,164,-20
-32,49,80,-9,-56,64,96,-26,-323,196,197,-11
-11,89,100,-39,-56,95,110,11,-311,214,214,-4
2,79,77,-41,-38,78,73,-12,-303,207,207,20
0,76,76,-38,-38,76,37,-16,-294,210,212,33
33,74,41,-54,-4,57,-1,-35,-294,202,209,29
73,61,-12,-67,43,24,-11,-53,-297,206,209,28
22,44,22,-33,0,32,-8,-33,-288,214,224,25
-47,-1,46,23,-47,22,-3,-50,-316,188,200,22
-27,-19,7,23,-17,-6,-2,-61,-317,177,178,1
-22,-30,-7,26,-7,-18,5,-70,-341,162,164,-30
-22,-39,-18,31,-2,-28,5,-60,-328,172,173,-18
-44,-57,-13,51,-16,-35,13,-75,-365,149,150,-33
-67,-75,-9,71,-29,-42,19,-85,-341,160,162,-33
-25,-72,-47,49,11,-60,21,-62,-354,144,144,-44
-62,-45,17,53,-39,-14,45,-92,-374,159,165,-38
-27,-60,-33,44,3,-46,20,-32,-326,175,177,-23
-72,-139,-68,106,-2,-103,95,-99,-511,16,18,-129
-134,-265,-131,200,-1,-198,253,149,-536,-131,-142,-319
177,-142,-319,-17,248,-230,191,563,-264,80,76,-206
404,973,570,-689,-83,771,-245,590,1834,2021,2021,1155
352,1433,1081,-893,-365,1257,-647,-425,1840,2754,2766,1929
122,491,369,-307,-124,430,-594,-1756,-1173,862,881,882
-73,21,94,26,-84,57,-376,-1184,-1182,233,163,152
-41,-4,37,22,-39,17,-120,-260,-452,309,255,19
-15,-30,-15,23,0,-22,22,-65,-410,227,226,-15
-13,-58,-45,36,16,-51,29,48,-228,281,280,-15
-8,-74,-65,41,29,-69,61,44,-323,224,214,-45
-15,-54,-39,35,12,-46,58,91,-236,202,194,-34
-19,-66,-47,43,14,-56,61,102,-286,103,127,-43
-5,-51,-46,29,21,-48,60,96,-250,110,117,-41
-61,-57,4,59,-32,-27,59,122,-238,94,95,-69
-46,-47,-2,46,-22,-25,61,185,-204,93,93,-58
31,-40,-71,5,51,-55,58,187,-178,94,93,-41
1,-36,-38,18,20,-37,56,204,-163,82,86,-36
14,-22,-36,4,25,-29,54,241,-109,90,87,-26
11,-5,-16,-3,13,-10,55,277,-93,87,84,-25
17,20,3,-18,7,11,55,309,-49,97,92,-14
47,20,-28,-33,37,-4,54,329,-4,98,94,0
48,50,2,-49,23,26,58,384,51,134,132,34
38,73,35,-56,1,54,63,429,132,165,171,65
53,60,7,-57,23,33,60,461,193,206,213,99
77,120,44,-99,16,82,57,509,255,258,256,132
41,134,92,-88,-26,113,54,532,320,287,290,150
61,158,96,-110,-18,127,51,517,350,341,342,185
115,222,107,-169,4,164,49,498,365,366,365,190
84,208,125,-146,-21,166,46,438,339,350,351,179
49,199,150,-124,-51,174,39,383,298,339,339,177
55,188,133,-122,-39,160,36,318,236,328,336,169
29,156,127,-93,-49,141,31,208,135,236,240,148
11,116,105,-64,-47,111,26,137,60,125,128,101
17,84,67,-50,-26,75,23,93,-4,84,82,61
11,64,52,-38,-21,58,15,37,-63,26,18,19
4,46,42,-25,-20,44,30,-3,-97,-20,-22,-13
4,33,29,-19,-13,31,48,-33,-107,-47,-53,-31
-10,18,29,-4,-20,23,49,-39,-105,-106,-103,-55
-22,11,33,5,-28,21,54,-44,-105,-130,-126,-61
-40,-5,34,22,-37,14,64,-46,-107,-144,-149,-67
-64,-9,55,37,-60,23,70,-48,-133,-177,-174,-86
-73,-29,44,50,-58,8,64,-67,-135,-185,-187,-107
-68,-50,19,59,-43,-15,58,-61,-137,-202,-204,-124
-45,-48,-3,47,-21,-25,54,-89,-158,-223,-206,-136
-93,-73,20,83,-57,-26,45,-110,-147,-222,-204,-141
-112,-47,65,79,-89,9,52,-93,-133,-217,-206,-140
-48,-29,19,38,-34,-5,62,-96,-113,-210,-204,-140
-20,-47,-27,34,4,-36,49,-88,-84,-206,-206,-140
-79,-32,47,55,-63,8,37,-84,-63,-199,-205,-140
-78,-26,51,52,-64,12,28,-96,-44,-195,-205,-145
4,-21,-25,8,15,-22,20,-83,-30,-182,-205,-145
-62,-28,35,45,-48,4,17,-84,-15,-186,-205,-145
-98,-43,55,71,-76,6,10,-112,9,-208,-205,-145
-78,-45,34,61,-56,-5,6,-103,34,-200,-200,-145
-67,-47,20,57,-44,-13,-1,-99,65,-190,-191,-143
-3,-56,-53,30,25,-54,7,-93,67,-179,-182,-137
0,-31,-31,15,15,-30,10,-88,55,-175,-173,-132
-5,30,34,-13,-20,31,26,-81,110,-150,-145,-129
-22,57,78,-18,-50,67,75,-66,173,-114,-120,-124
-6,74,80,-34,-43,77,64,-53,190,-120,-120,-120
11,77,67,-44,-28,72,44,-41,204,-120,-120,-125
-4,87,92,-42,-48,89,27,-70,218,-114,-114,-125
63,83,21,-73,21,52,-17,-96,216,-114,-116,-126
72,57,-15,-64,43,20,-25,-83,239,-109,-114,-131
25,49,24,-38,0,36,-18,-65,255,-108,-108,-128
4,2,-3,-3,3,0,-13,-86,244,-125,-123,-139
-7,-47,-40,28,17,-43,-6,-91,259,-151,-155,-178
-46,-71,-24,59,-11,-47,11,-119,237,-166,-166,-188
-56,-66,-11,61,-23,-38,12,-119,267,-153,-146,-182
-27,-78,-51,52,12,-64,6,-112,247,-181,-164,-194
-48,-69,-21,59,-13,-44,7,-104,285,-155,-137,-163
8,-83,-91,38,50,-86,-4,-90,254,-195,-188,-210
2,-76,-78,37,40,-76,9,-100,302,-186,-161,-209
-13,-92,-78,53,33,-85,11,-78,291,-189,-175,-204
-65,-171,-106,118,21,-138,119,-84,130,-341,-345,-321
-100,-315,-215,208,57,-265,257,266,121,-588,-586,-522
216,-20,-236,-98,226,-128,130,593,622,-107,-113,-178
359,1213,854,-786,-248,1033,-298,268,2650,2029,2029,1368
208,1322,1114,-765,-453,1217,-565,-1012,1766,2096,2103,1724
-8,266,274,-129,-141,270,-446,-1844,-891,72,76,477
-133,-80,54,106,-93,-13,-303,-1016,-418,-340,-335,-90
-37,-83,-46,60,5,-64,-115,-265,116,-247,-241,-161
-22,-60,-38,41,8,-49,8,-49,245,-241,-236,-158
-46,-72,-27,59,-9,-49,15,35,362,-211,-204,-146
-34,-85,-51,60,8,-68,38,68,318,-238,-229,-176
-27,-80,-53,54,13,-66,25,118,402,-199,-191,-177
14,-68,-81,27,48,-74,32,99,336,-223,-212,-179
27,-36,-63,5,45,-49,29,127,388,-196,-187,-161
17,-50,-67,17,42,-58,30,144,360,-206,-198,-160
13,-42,-55,15,34,-49,36,160,372,-197,-188,-146
11,-42,-53,16,33,-48,34,168,377,-194,-187,-140
6,-40,-46,18,26,-43,36,209,390,-193,-186,-131
0,-39,-39,20,20,-39,35,240,405,-184,-180,-120
-2,-35,-33,19,16,-34,34,260,394,-176,-171,-109
11,-15,-26,3,19,-20,43,308,443,-144,-156,-94
45,26,-19,-35,32,4,51,350,487,-108,-137,-68
50,34,-16,-42,33,9,43,390,516,-94,-101,-36
46,35,-11,-40,28,12,40,425,571,-59,-56,3
75,69,-5,-72,40,32,35,470,603,-9,-10,36
70,102,31,-86,19,66,30,518,644,38,37,65
35,129,94,-82,-30,111,30,519,683,92,92,112
43,150,107,-97,-32,128,29,494,672,113,116,138
53,159,106,-107,-26,132,31,476,646,121,115,143
65,166,101,-116,-18,133,28,436,605,133,127,153
40,176,137,-108,-49,156,37,390,553,118,120,173
-1,154,155,-77,-78,155,51,304,446,68,61,160
4,116,111,-60,-54,113,50,218,334,17,6,109
-20,99,119,-40,-70,109,49,175,264,-34,-39,76
-17,90,107,-37,-62,98,45,94,170,-88,-96,46
33,74,40,-54,-4,57,45,38,87,-130,-135,14
8,41,33,-25,-13,37,47,21,49,-162,-156,-5
-59,-3,57,31,-58,27,52,0,13,-166,-161,-30
-70,-29,41,49,-55,6,55,-7,-19,-164,-159,-62
-57,-23,34,40,-45,5,60,-12,-58,-165,-160,-69
-53,-25,28,39,-40,1,64,-14,-94,-165,-160,-68
-106,-71,35,88,-70,-18,67,-15,-111,-164,-160,-80
-113,-86,27,99,-70,-29,89,-8,-142,-157,-169,-82
-21,-64,-42,43,11,-53,78,-1,-176,-151,-173,-73
-41,-46,-5,44,-18,-26,77,1,-199,-144,-166,-64
-93,-8,85,50,-89,38,105,13,-209,-140,-155,-60
-65,18,83,23,-74,50,106,-9,-217,-123,-133,-41
-40,41,80,0,-60,60,104,-8,-209,-93,-100,-9
18,93,75,-56,-29,84,101,43,-169,-64,-68,6
41,119,79,-81,-19,99,99,46,-160,-48,-56,14
11,112,101,-62,-45,106,100,28,-181,-53,-50,26
13,95,81,-54,-34,88,92,23,-169,-45,-33,18
7,40,32,-24,-13,36,86,6,-198,-75,-76,-29
-35,-10,25,22,-30,7,80,-5,-217,-91,-96,-57
-18,-9,9,13,-13,0,72,-35,-232,-90,-91,-61
-10,-29,-18,20,4,-23,67,-66,-257,-95,-93,-62
-25,-70,-45,48,10,-57,60,-59,-272,-102,-113,-71
12,-32,-43,10,28,-37,61,-74,-294,-114,-137,-81
-41,-44,-3,42,-18,-23,59,-43,-266,-88,-107,-65
-54,-83,-29,68,-12,-55,60,-75,-341,-129,-151,-90
-33,-30,3,32,-18,-13,61,-30,-243,-71,-90,-56
-45,-125,-81,85,18,-103,72,-74,-368,-157,-164,-116
-114,-220,-107,167,-3,-163,218,-27,-505,-343,-346,-270
-32,-307,-275,170,122,-291,310,426,-471,-511,-514,-408
274,378,103,-326,85,241,32,701,830,730,731,431
359,1457,1099,-909,-370,1278,-428,132,2228,2562,2571,1843
195,919,724,-558,-265,822,-574,-1417,-96,1392,1402,1404
-45,83,128,-19,-87,105,-414,-1630,-1524,-100,-88,317
-70,-7,64,38,-66,28,-188,-545,-580,-78,-60,46
-41,-80,-39,61,0,-59,2,-136,-428,-131,-100,-28
-69,-67,1,68,-35,-33,47,19,-266,-76,-46,-25
-3,-80,-77,42,38,-79,54,64,-290,-100,-85,-60
-7,-85,-78,46,36,-81,57,103,-264,-85,-74,-54
-8,-80,-72,44,32,-76,52,148,-242,-78,-71,-69
-6,-79,-73,43,34,-76,57,133,-258,-84,-82,-77
-12,-69,-58,41,23,-63,53,145,-216,-63,-67,-61
-8,-71,-62,40,27,-67,56,139,-237,-71,-81,-63
-12,-61,-48,37,18,-54,54,179,-187,-51,-56,-49
-6,-58,-52,32,23,-55,55,210,-174,-56,-55,-49
2,-47,-49,22,26,-47,55,254,-143,-36,-31,-37
7,-40,-47,17,27,-43,54,306,-124,-27,-13,-28
12,-33,-45,11,28,-39,56,336,-91,-7,4,-12
27,-18,-45,-4,36,-31,53,379,-46,17,23,5
44,9,-36,-26,40,-13,60,420,16,61,70,34
79,58,-21,-68,50,18,71,464,86,119,121,57
57,54,-2,-56,29,26,57,517,140,149,153,80
52,68,16,-60,17,41,40,555,202,218,226,124
110,147,37,-129,36,92,35,580,252,277,281,147
103,156,53,-130,25,105,36,551,255,306,312,163
48,143,95,-96,-24,119,32,546,248,345,352,189
12,142,131,-77,-60,136,31,517,250,369,375,207
14,129,115,-72,-50,122,28,433,213,379,381,201
10,130,120,-70,-55,125,41,385,147,356,356,188
9,103,94,-56,-43,98,61,271,44,314,314,161
5,52,47,-29,-21,49,60,145,-58,258,258,111
1,34,33,-18,-16,33,60,95,-129,201,201,70
-5,25,30,-10,-18,27,60,49,-164,163,163,41
-14,16,30,-1,-23,23,60,20,-179,137,138,27
-27,-9,18,18,-22,4,57,13,-199,121,124,9
-89,-59,31,74,-60,-14,55,2,-207,104,100,4
-55,-72,-17,63,-19,-44,54,-23,-236,82,77,-2
-59,-69,-10,64,-25,-39,60,-25,-229,65,64,-3
-92,-76,16,84,-54,-30,71,-29,-251,55,49,-16
-21,-74,-53,48,17,-63,70,-87,-311,47,42,-62
-32,-73,-41,53,5,-57,70,-102,-306,38,33,-68
-36,-67,-31,52,-2,-49,70,-93,-301,27,29,-60
-34,-65,-32,50,0,-48,70,-93,-298,-1,6,-49
-44,-63,-19,54,-13,-40,68,-86,-292,-52,-55,-66
-27,-54,-26,41,0,-40,64,-85,-289,-78,-83,-97
-35,-81,-45,58,5,-63,62,-81,-281,-73,-78,-88
-12,-62,-51,37,20,-56,59,-101,-263,-69,-75,-84
1,-38,-39,19,20,-38,56,-66,-233,-69,-74,-78
-13,-55,-42,34,15,-48,55,-58,-222,-61,-67,-72
-30,-31,-1,30,-14,-16,55,-109,-218,-85,-88,-70
-45,-45,0,45,-23,-22,55,-119,-211,-134,-137,-70
-37,-74,-37,56,0,-56,55,-127,-204,-144,-143,-69
-30,-68,-38,49,4,-53,55,-105,-191,-166,-163,-75
-38,-71,-33,55,-2,-52,55,-122,-180,-191,-192,-81
-46,-70,-24,59,-11,-47,53,-150,-170,-188,-187,-73
-42,-68,-26,55,-8,-47,46,-140,-160,-190,-192,-74
-80,-81,0,81,-40,-41,39,-130,-150,-182,-188,-65
-57,-70,-13,63,-22,-41,33,-118,-140,-185,-189,-70
-19,-51,-33,35,7,-42,25,-154,-131,-203,-219,-106
-72,-73,-1,73,-35,-37,20,-164,-123,-220,-227,-107
-59,-82,-22,71,-19,-52,20,-154,-113,-236,-225,-97
-14,-79,-65,47,25,-72,20,-157,-93,-235,-233,-97
-65,-80,-16,73,-24,-48,19,-153,-75,-234,-225,-84
-80,-80,0,80,-40,-40,20,-165,-70,-244,-245,-95
-16,-79,-63,48,23,-71,20,-174,-62,-241,-265,-116
-19,-64,-44,42,13,-54,18,-185,-40,-234,-260,-104
-19,-31,-12,25,-4,-21,13,-153,-11,-228,-253,-89
-8,13,21,-3,-14,17,24,-121,-3,-222,-247,-84
-13,53,66,-20,-40,59,63,-105,34,-214,-238,-76
-4,55,60,-26,-32,57,61,-85,81,-211,-213,-73
27,54,27,-40,0,40,10,-127,88,-210,-196,-66
49,81,32,-65,8,56,-45,-159,87,-208,-201,-61
18,53,35,-36,-9,44,-73,-151,91,-206,-194,-61
-14,0,14,7,-14,7,-67,-132,102,-200,-187,-55
-49,-49,0,49,-24,-24,-64,-154,117,-230,-224,-93
-57,-81,-24,69,-16,-52,-61,-171,129,-259,-262,-141
-31,-78,-48,54,9,-63,-55,-177,105,-264,-271,-156
-14,-90,-76,52,32,-83,-55,-153,140,-263,-250,-146
-21,-129,-108,75,44,-118,-47,-165,95,-296,-272,-165
-33,-114,-81,74,25,-97,-43,-143,149,-263,-237,-160
-81,-132,-51,107,-15,-92,-36,-143,119,-295,-264,-176
-101,-126,-24,114,-38,-75,-31,-166,158,-271,-245,-157
-1,-107,-105,54,52,-105,-15,-96,191,-276,-264,-157
-99,-221,-122,160,12,-171,93,-157,16,-443,-445,-306
-92,-352,-260,222,84,-306,189,209,52,-667,-672,-518
229,5,-224,-117,227,-110,56,514,606,-132,-139,-128
354,1191,836,-773,-241,1012,-357,130,2619,2015,2015,1411
225,1250,1025,-738,-400,1138,-610,-1072,1739,2003,2009,1715
-18,195,214,-89,-116,205,-518,-1885,-901,-22,-20,453
-70,-107,-38,88,-16,-72,-350,-1018,-383,-396,-396,-106
-47,-136,-89,92,21,-112,-139,-309,121,-336,-335,-172
-60,-130,-71,96,6,-100,-44,-108,233,-316,-318,-169
3,-111,-114,54,59,-112,-43,-7,357,-281,-287,-164
-10,-123,-112,67,51,-117,-18,-67,277,-319,-324,-182
-10,-96,-86,53,38,-91,-14,-3,358,-282,-291,-178
-12,-110,-97,61,43,-103,6,16,288,-314,-325,-183
-40,-122,-82,81,21,-102,20,58,336,-289,-299,-166
-27,-128,-101,78,38,-115,20,70,302,-301,-312,-167
-8,-104,-96,56,44,-100,17,81,323,-292,-300,-156
-7,-102,-96,55,44,-99,8,103,332,-294,-301,-152
-39,-97,-57,68,9,-77,22,123,332,-290,-298,-143
-32,-87,-55,60,12,-71,46,177,362,-289,-293,-134
31,-78,-109,24,70,-93,45,188,385,-288,-294,-126
17,-69,-85,26,51,-77,44,221,434,-267,-276,-109
-30,-72,-43,51,6,-58,41,276,457,-249,-260,-84
-7,-55,-48,31,21,-52,39,280,484,-223,-231,-64
6,11,4,-9,1,7,40,330,545,-187,-186,-29
31,63,32,-47,-1,47,34,381,592,-145,-150,7
48,81,33,-65,7,57,31,398,634,-100,-120,53
55,125,71,-90,-8,98,28,413,678,-65,-79,96
92,148,56,-120,18,102,23,388,658,-58,-68,100
42,138,96,-90,-27,117,20,361,630,-61,-71,123
-1,124,125,-61,-63,124,16,338,612,-62,-69,130
41,143,102,-92,-31,122,9,291,561,-67,-78,118
48,153,105,-101,-29,129,2,218,492,-64,-71,117
24,113,88,-69,-33,100,-4,137,413,-82,-84,109
17,104,87,-61,-35,95,-11,78,339,-109,-114,93
13,75,62,-44,-24,69,-14,24,258,-165,-169,57
-16,38,54,-11,-35,45,-9,-24,189,-221,-221,27
-71,-13,58,42,-64,23,-6,-43,136,-245,-247,-6
-45,-46,-2,45,-21,-24,-3,-60,90,-297,-297,-36
0,-33,-33,17,16,-33,2,-75,49,-334,-326,-51
-28,-61,-33,45,3,-46,4,-69,2,-347,-341,-76
-41,-69,-28,55,-7,-48,10,-59,-16,-344,-342,-82
-51,-72,-21,62,-15,-47,20,-57,-52,-332,-330,-78
-73,-83,-9,78,-32,-46,31,-44,-78,-327,-327,-82
-85,-75,10,80,-47,-32,38,-47,-101,-318,-318,-87
-47,-75,-28,61,-9,-51,33,-66,-150,-304,-304,-85
-8,-69,-61,38,26,-64,25,-67,-168,-282,-282,-80
-7,-66,-59,37,26,-62,19,-94,-175,-265,-262,-78
-2,-62,-61,32,30,-61,12,-100,-177,-248,-245,-73
0,-60,-60,30,30,-60,6,-89,-184,-232,-231,-70
0,-60,-60,30,30,-60,5,-90,-181,-218,-220,-67
3,-56,-59,27,31,-57,5,-81,-174,-205,-211,-64
-4,-55,-51,30,24,-53,0,-81,-170,-196,-203,-61
-11,-54,-43,33,16,-48,0,-80,-163,-188,-194,-58
-16,-51,-35,34,10,-43,2,-80,-160,-180,-188,-56
-19,-45,-27,32,4,-36,5,-80,-171,-172,-181,-54
-25,-46,-21,36,-2,-33,8,-80,-180,-166,-174,-56
-34,-37,-2,36,-16,-19,10,-79,-187,-159,-167,-53
-33,-39,-6,36,-13,-22,14,-81,-212,-152,-161,-57
-17,-28,-11,23,-2,-20,15,-78,-211,-146,-154,-65
-20,-29,-9,24,-5,-19,19,-85,-224,-139,-147,-57
-24,-62,-38,43,7,-50,20,-99,-255,-134,-141,-51
-9,-50,-42,30,17,-46,20,-95,-251,-125,-133,-44
-11,-34,-23,23,6,-28,20,-87,-246,-119,-121,-37
13,-16,-29,2,21,-22,20,-81,-243,-108,-106,-33
25,24,0,-24,12,12,49,-74,-238,-94,-96,-25
-1,53,54,-26,-28,53,54,-67,-232,-79,-84,-16
1,50,49,-26,-25,49,35,-66,-231,-71,-76,-8
45,84,39,-65,3,61,20,-40,-226,-59,-64,0
50,83,33,-67,8,58,-10,-52,-225,-50,-53,6
46,41,-5,-44,25,18,-34,-79,-223,-40,-42,19
99,53,-46,-75,72,3,-32,-51,-213,-19,-25,20
51,5,-46,-27,48,-20,-19,-91,-261,-59,-64,-9
-4,-46,-42,25,20,-44,-10,-111,-294,-104,-104,-32
-1,-51,-50,27,25,-51,-1,-117,-310,-106,-108,-40
9,-29,-38,10,24,-33,4,-102,-280,-85,-86,-29
13,-57,-70,22,42,-64,7,-105,-307,-101,-105,-39
-26,-65,-39,45,7,-52,15,-100,-277,-71,-74,-21
-16,-76,-60,47,22,-68,14,-81,-319,-89,-95,-39
-42,-65,-24,53,-9,-44,27,-119,-324,-61,-70,-16
-40,-71,-31,56,-5,-51,26,-77,-271,-64,-72,-30
-59,-180,-121,120,31,-151,94,-145,-502,-247,-259,-184
-97,-289,-192,193,48,-240,249,160,-513,-450,-447,-360
170,-102,-272,-34,221,-187,175,568,-74,-128,-133,-155
374,1035,662,-705,-145,848,-287,538,1863,1916,1912,1286
300,1340,1040,-820,-370,1190,-657,-582,1531,2387,2398,1908
123,359,236,-241,-57,297,-589,-1817,-1249,440,439,776
-71,-18,53,44,-62,18,-355,-1070,-1049,-138,-122,132
-61,-74,-13,67,-24,-43,-107,-236,-392,-68,-48,19
8,-74,-82,33,45,-78,7,-90,-386,-79,-77,-33
-3,-66,-63,35,30,-64,14,48,-222,-31,-35,-37
-6,-96,-90,51,42,-93,47,38,-301,-77,-87,-59
-2,-71,-69,36,33,-69,47,93,-213,-38,-44,-43
10,-83,-93,37,52,-87,44,89,-255,-68,-71,-56
2,-66,-68,33,35,-67,36,117,-210,-46,-47,-46
-19,-69,-50,44,16,-59,29,153,-213,-49,-54,-52
-8,-61,-54,35,23,-57,24,175,-187,-38,-47,-47
-9,-52,-43,31,17,-47,15,176,-157,-28,-37,-38
3,-43,-46,20,25,-44,16,207,-147,-25,-29,-32
46,-32,-78,-7,62,-55,21,232,-104,-11,-17,-22
55,-19,-74,-18,65,-46,28,277,-79,1,3,-17
52,-5,-57,-23,55,-31,32,335,-34,16,19,-3
57,10,-47,-33,52,-18,37,337,-3,58,42,16
55,25,-30,-40,42,-2,44,401,40,97,88,28
63,47,-16,-55,39,15,40,438,81,116,115,48
48,68,20,-58,13,44,32,478,155,169,172,89
60,108,47,-84,6,77,26,529,232,235,236,127
89,152,63,-121,13,107,19,523,283,311,316,164
74,160,87,-117,-7,123,13,519,314,365,372,190
78,170,92,-124,-7,131,10,483,302,378,381,188
82,180,98,-131,-9,139,7,447,289,374,384,182
69,203,134,-136,-33,168,5,375,238,365,376,179
39,198,159,-118,-61,178,2,302,171,351,359,173
33,158,125,-95,-47,141,-1,240,93,304,300,170
6,110,103,-58,-49,106,-3,117,-8,243,232,149
-11,80,91,-35,-51,85,-7,84,-62,193,182,113
16,67,51,-43,-18,59,-3,30,-109,145,129,76
-3,4,7,0,-5,5,-10,-38,-164,106,88,46
-21,-35,-14,28,-3,-25,-8,-25,-188,75,62,33
-22,-35,-13,28,-4,-23,12,-29,-185,46,32,13
3,-14,-17,6,10,-15,25,-14,-182,22,9,-7
-37,-23,14,30,-25,-4,28,-42,-206,4,-3,-16
-100,-68,32,84,-66,-18,32,-84,-216,-10,-13,-25
-70,-67,2,69,-36,-32,61,-78,-227,-28,-28,-32
-54,-62,-8,58,-23,-35,70,-83,-252,-33,-46,-44
-64,-61,3,62,-33,-29,59,-85,-251,-39,-47,-47
-72,-80,-8,76,-32,-43,55,-85,-261,-51,-59,-62
-45,-76,-31,61,-7,-53,47,-84,-265,-41,-57,-74
-18,-47,-29,33,5,-38,41,-77,-250,-31,-41,-62
-61,-61,-1,61,-30,-31,36,-87,-237,-28,-25,-53
-64,-66,-2,65,-30,-34,31,-88,-222,-30,-4,-43
-22,-64,-42,43,11,-53,26,-83,-208,-55,-42,-36
-25,-63,-38,45,7,-51,23,-56,-198,-56,-60,-29
-43,-59,-16,51,-13,-37,17,-57,-189,-47,-51,-45
-22,-60,-38,42,8,-49,16,-92,-181,-38,-43,-62
-4,-57,-53,31,24,-55,20,-82,-168,-29,-32,-51
-4,-51,-47,28,21,-49,20,-75,-140,-23,-26,-46
-35,-55,-20,45,-7,-37,22,-70,-121,-1,3,-39
-36,-64,-28,50,-3,-46,26,-61,-116,-87,-82,-31
4,-55,-59,26,32,-57,24,-62,-106,-165,-156,-37
-1,-50,-49,26,24,-49,26,-78,-100,-154,-144,-55
-8,-38,-30,24,11,-34,24,-102,-88,-162,-163,-55
-15,-2,13,8,-14,6,28,-85,-57,-167,-160,-40
0,48,47,-24,-24,47,66,-46,-25,-168,-160,-27
28,71,44,-50,-8,57,81,-28,4,-160,-165,-11
14,58,44,-37,-15,51,53,-22,14,-157,-181,0
29,84,55,-57,-13,69,17,-29,30,-141,-176,18
85,78,-6,-81,45,36,-8,-68,44,-162,-173,15
66,26,-40,-46,53,-7,-23,-78,43,-180,-166,-5
32,16,-17,-24,24,0,-34,-49,38,-176,-166,-13
17,-23,-40,3,29,-31,-25,-60,32,-206,-209,-44
-2,-53,-51,28,25,-52,-20,-88,37,-217,-222,-62
6,-63,-68,29,37,-65,-11,-97,19,-255,-259,-77
-5,-94,-90,50,43,-92,-7,-74,45,-279,-284,-102
15,-89,-104,38,60,-97,1,-84,27,-291,-302,-106
-6,-88,-82,47,39,-85,9,-63,119,-259,-272,-86
-21,-131,-110,77,45,-120,21,-66,78,-285,-302,-98
-16,-96,-79,56,32,-87,33,-60,105,-251,-268,-76
-15,-124,-109,70,47,-116,14,-49,93,-315,-319,-141
-67,-207,-139,137,36,-173,109,-78,-61,-482,-488,-273
-70,-356,-286,213,109,-321,245,285,-56,-688,-700,-443
246,25,-221,-136,234,-98,145,596,564,-104,-115,-18
389,1212,823,-801,-217,1016,-331,273,2595,1999,1998,1499
245,1199,955,-722,-355,1077,-618,-1018,1496,1885,1889,1725
25,206,181,-115,-78,193,-464,-1780,-1027,-61,-61,508
-78,-120,-42,100,-18,-81,-310,-924,-439,-408,-410,-39
-4,-100,-96,53,46,-98,-89,-213,37,-322,-326,-106
-6,-102,-95,54,45,-98,17,-27,189,-297,-305,-96
-17,-145,-128,81,56,-136,15,34,289,-273,-291,-104
-21,-146,-125,83,53,-135,37,92,264,-286,-309,-130
-7,-143,-136,75,65,-139,12,110,343,-275,-280,-149
-33,-145,-111,89,39,-128,38,122,313,-301,-301,-161
-1,-136,-135,69,67,-135,45,190,393,-275,-276,-141
45,-143,-188,49,117,-165,45,166,366,-288,-291,-142
12,-128,-140,58,77,-134,45,172,405,-274,-280,-129
13,-120,-133,54,74,-127,39,181,411,-276,-281,-124
11,-106,-117,47,64,-111,41,220,445,-268,-280,-116
2,-93,-95,46,49,-94,39,245,469,-257,-276,-109
33,-82,-115,25,74,-98,41,258,487,-252,-270,-103
57,-64,-122,4,90,-93,40,305,549,-239,-261,-88
19,-83,-101,32,60,-91,40,346,576,-227,-257,-80
32,-61,-93,15,63,-77,40,381,621,-213,-231,-50
79,3,-76,-41,77,-36,40,426,692,-187,-194,-14
89,27,-62,-58,75,-17,47,475,747,-144,-157,18
42,52,10,-47,16,31,48,515,809,-106,-121,70
46,92,47,-69,-1,69,41,528,842,-67,-77,105
86,124,38,-106,23,81,36,496,830,-50,-44,125
52,140,88,-97,-18,114,30,471,841,-50,-18,150
76,133,57,-105,9,95,25,439,811,-56,-40,170
90,130,40,-110,25,85,21,366,742,-59,-72,178
63,138,75,-101,-6,106,18,289,687,-71,-81,170
37,99,61,-68,-12,80,15,213,591,-144,-150,129
4,49,45,-27,-21,47,10,148,502,-208,-218,79
29,38,9,-34,10,23,12,102,446,-267,-273,49
31,21,-10,-26,20,5,18,58,407,-311,-315,28
4,-25,-29,11,16,-27,23,36,374,-347,-358,7
-13,-61,-48,38,17,-54,26,32,346,-393,-394,-20
-33,-77,-44,55,5,-60,32,25,337,-406,-411,-39
-26,-77,-51,52,12,-64,35,25,308,-432,-448,-48
-28,-77,-49,52,11,-62,47,13,284,-450,-456,-54
3,-64,-67,31,35,-65,66,26,283,-446,-468,-55
8,-70,-77,32,43,-73,65,48,266,-455,-480,-63
-56,-129,-73,93,9,-101,60,17,231,-484,-491,-78
-50,-129,-79,89,15,-104,58,13,213,-501,-492,-73
-10,-90,-80,50,35,-85,53,36,215,-501,-483,-63
7,-73,-80,33,44,-76,50,14,209,-496,-481,-57
13,-61,-74,24,44,-68,46,3,207,-485,-472,-49
3,-65,-67,31,35,-66,44,10,205,-480,-469,-45
4,-57,-61,27,32,-58,41,0,198,-470,-462,-41
-2,-57,-55,30,27,-56,39,-6,208,-454,-456,-37
-10,-54,-44,32,18,-49,35,-12,207,-442,-449,-34
30,-37,-67,4,49,-52,34,-19,192,-435,-442,-28
23,-66,-89,21,56,-77,29,-17,183,-427,-436,-33
-16,-82,-66,49,25,-74,25,-13,168,-418,-434,-44
-9,-70,-61,40,26,-66,41,-9,152,-414,-435,-38
-28,-66,-39,47,6,-52,44,-6,134,-403,-430,-30
-19,-62,-43,41,12,-53,39,-2,112,-410,-430,-25
23,-52,-75,14,50,-63,32,2,99,-424,-429,-16
-10,-44,-34,27,12,-39,48,11,92,-413,-421,-9
-11,-26,-15,19,2,-20,84,27,85,-403,-413,2
-13,-3,11,8,-12,4,82,25,79,-393,-403,12
-5,33,38,-14,-21,35,69,33,73,-389,-395,25
47,101,54,-74,-4,77,58,54,65,-388,-385,66
6,75,70,-41,-32,72,48,47,51,-382,-375,74
55,21,-34,-38,44,-7,45,34,23,-384,-383,71
83,3,-81,-43,82,-39,38,31,8,-374,-380,82
45,-21,-65,-12,55,-43,33,15,-19,-392,-396,46
38,-22,-60,-8,49,-40,28,6,-18,-421,-415,24
-6,-67,-61,37,28,-64,25,-19,-74,-434,-429,4
-41,-74,-33,57,-4,-53,41,-29,-82,-418,-412,6
-70,-72,-2,71,-34,-37,49,-19,-88,-418,-414,5
-31,-68,-36,50,3,-52,53,-36,-127,-414,-408,-2
7,-60,-67,27,37,-63,50,-4,-100,-403,-392,6
4,-67,-71,32,37,-69,60,-42,-165,-434,-408,-12
5,-45,-50,21,28,-48,59,17,-75,-386,-330,1
-38,-136,-98,88,30,-116,89,-30,-233,-467,-445,-80
-106,-245,-139,176,16,-192,236,90,-295,-639,-647,-244
67,-275,-343,104,205,-309,273,549,-232,-696,-701,-307
382,633,251,-508,65,442,-72,684,1445,875,865,776
398,1495,1097,-947,-350,1296,-533,-66,2497,2385,2385,2003
158,709,551,-434,-197,630,-584,-1547,-370,851,851,1271
-39,19,58,10,-48,38,-393,-1432,-1285,-385,-385,277
-26,-39,-13,33,-6,-26,-174,-383,-328,-277,-279,75
-33,-98,-65,66,16,-81,9,-80,-283,-305,-311,16
-75,-76,0,76,-37,-38,52,100,-77,-239,-243,27
4,-87,-90,42,47,-88,73,97,-149,-265,-270,6
26,-70,-96,22,61,-83,66,120,-86,-236,-240,12
29,-69,-98,20,64,-83,62,135,-106,-239,-244,0
7,-70,-77,32,42,-74,61,146,-103,-233,-238,-4
1,-77,-78,38,40,-77,54,195,-79,-219,-224,-30
-14,-70,-56,42,21,-63,55,181,-109,-225,-230,-61
47,-55,-102,4,75,-78,47,220,-27,-204,-209,-26
55,-52,-107,-1,81,-79,52,244,-5,-209,-214,2
