I,II,III,aVR,aVL,aVF,V1,V2,V3,V4,V5,V6
10,35,25,-23,-8,30,-47,-40,-30,-53,-36,10
10,33,23,-22,-7,28,-55,-40,-30,-68,-40,8
11,28,17,-20,-3,23,-55,-40,-30,-70,-39,2
10,24,14,-17,-2,19,-56,-41,-29,-70,-44,-1
11,20,9,-16,1,14,-54,-38,-34,-69,-44,-7
-3,1,4,0,-4,3,-59,-52,-46,-72,-49,-10
-28,-28,-1,28,-13,-14,-66,-62,-45,-75,-60,-6
-15,-15,-1,15,-7,-8,-65,-59,-45,-75,-60,-3
8,21,13,-15,-3,17,-65,-60,-45,-74,-60,0
20,28,8,-24,5,18,-65,-60,-45,-70,-60,3
14,22,8,-18,3,15,-65,-60,-45,-70,-60,5
-22,-1,21,11,-21,10,-63,-58,-45,-68,-58,7
-3,8,12,-3,-8,10,-58,-53,-45,-63,-53,10
4,11,7,-8,-1,8,-55,-50,-45,-60,-50,13
-36,-38,-2,37,-17,-20,-52,-47,-45,-57,-47,16
-41,-40,1,41,-21,-19,-47,-42,-45,-52,-42,20
-48,-31,17,39,-32,-7,-45,-40,-45,-50,-40,20
-40,-32,9,36,-24,-11,-51,-49,-45,-65,-50,15
-23,-22,1,22,-12,-10,-51,-51,-45,-71,-51,12
-12,-19,-7,16,-2,-12,-49,-49,-45,-70,-50,8
19,4,-15,-11,17,-5,-50,-51,-45,-76,-49,5
9,13,4,-11,2,8,-50,-49,-45,-74,-44,0
-37,-15,21,26,-29,3,-50,-50,-45,-71,-46,2
-33,-19,15,26,-24,-1,-53,-53,-45,-70,-42,8
-18,-12,6,14,-12,-2,-55,-58,-45,-70,-40,11
-5,-2,3,3,-4,1,-51,-59,-45,-70,-40,15
11,-6,-16,-2,14,-11,-48,-54,-45,-71,-41,14
14,-18,-32,2,23,-25,-46,-50,-43,-68,-39,15
6,-24,-31,9,19,-27,-42,-45,-34,-59,-43,13
9,-29,-38,11,24,-33,-40,-41,-26,-51,-51,25
35,8,-28,-22,32,-10,-40,-33,-18,-44,-39,48
44,9,-35,-26,39,-13,-41,-12,-11,-27,-23,50
97,42,-56,-69,76,-7,-29,22,8,8,-4,63
139,88,-51,-113,94,18,-14,30,40,30,23,89
125,81,-44,-103,84,19,-69,0,18,26,25,94
132,89,-43,-110,87,23,-124,-23,-25,7,-4,81
95,60,-35,-77,65,12,-114,-45,-29,-10,-20,72
27,-4,-31,-11,29,-17,-103,-80,-60,-39,-33,58
-4,-68,-64,36,31,-66,-80,-85,-72,-53,-54,30
-3,-88,-85,46,41,-86,-56,-85,-71,-57,-65,5
-16,-93,-78,55,31,-85,-54,-85,-80,-61,-73,-1
-45,-121,-75,83,15,-97,-56,-84,-80,-50,-82,-3
-49,-126,-77,88,14,-101,-52,-86,-87,-62,-96,-16
-28,-127,-99,77,36,-113,-60,-54,-61,-52,-84,-10
-22,-161,-139,91,59,-149,2,17,-45,-52,-112,-49
-3,-71,-69,37,33,-70,120,167,81,34,-65,-27
237,167,-71,-202,154,48,78,336,322,305,221,202
599,653,54,-626,272,353,-47,633,845,919,856,724
373,857,484,-616,-55,670,36,717,990,1069,999,896
-247,344,591,-49,-419,467,359,496,423,356,235,283
-465,10,474,228,-470,241,651,630,364,169,-85,-79
-493,-81,412,287,-452,165,831,797,475,257,-37,-89
-522,-173,349,347,-435,88,981,710,358,135,-131,-144
-497,-168,329,332,-413,80,1054,609,303,96,-130,-131
-439,-168,271,303,-355,51,906,382,150,3,-138,-129
-284,-153,131,218,-207,-11,519,96,1,-49,-120,-88
-158,-147,11,153,-84,-68,186,-33,-80,-86,-91,-58
-100,-133,-33,117,-34,-83,33,-75,-88,-91,-69,-48
-81,-149,-68,115,-6,-108,-30,-101,-93,-95,-69,-33
-60,-136,-76,98,8,-106,-44,-93,-91,-102,-72,-29
-25,-100,-74,63,25,-87,-47,-96,-87,-100,-68,-20
-37,-113,-76,75,20,-94,-60,-107,-105,-108,-72,-15
-49,-120,-70,85,11,-95,-85,-125,-115,-99,-67,-7
-34,-99,-65,67,16,-82,-94,-136,-116,-93,-48,-1
-28,-87,-59,57,16,-73,-96,-134,-113,-84,-31,3
-32,-86,-54,59,11,-70,-99,-138,-110,-76,-29,8
-31,-79,-48,55,9,-64,-100,-141,-110,-69,-26,11
-31,-76,-45,54,8,-61,-116,-140,-108,-64,-23,14
-28,-70,-42,50,7,-56,-130,-144,-105,-61,-21,18
-19,-60,-41,39,11,-50,-130,-147,-102,-58,-19,21
-15,-50,-35,33,10,-42,-136,-150,-99,-53,-11,25
-2,-40,-37,22,18,-38,-152,-154,-96,-50,-3,28
-4,-30,-26,18,11,-28,-164,-156,-94,-46,5,44
5,-20,-24,8,15,-22,-188,-166,-91,-35,12,68
51,-5,-56,-23,53,-30,-214,-173,-90,-25,23,77
91,26,-65,-58,78,-19,-232,-184,-89,-15,35,89
121,59,-61,-90,91,-1,-257,-190,-84,-7,52,106
141,69,-73,-105,106,-2,-283,-182,-86,2,76,117
134,69,-65,-102,99,2,-303,-174,-81,13,90,126
133,63,-70,-97,101,-4,-310,-166,-66,30,106,135
178,56,-122,-116,150,-33,-303,-157,-54,53,119,140
190,49,-141,-120,165,-45,-276,-119,-21,61,113,131
185,42,-142,-113,163,-49,-231,-68,19,76,103,119
170,37,-133,-103,151,-47,-176,-2,43,87,96,111
141,22,-119,-81,130,-48,-124,54,63,79,88,92
132,5,-127,-68,129,-60,-81,71,72,73,75,73
77,-36,-113,-20,96,-75,-36,96,74,66,57,56
32,-67,-100,18,66,-83,3,98,66,59,45,40
30,-65,-95,18,63,-80,11,90,58,54,37,32
27,-63,-90,18,59,-77,9,87,50,49,31,26
27,-61,-88,17,58,-74,11,79,42,46,23,19
25,-59,-83,18,54,-71,10,76,36,43,16,13
16,-64,-79,24,48,-71,10,69,30,39,9,6
8,-76,-84,34,47,-80,6,63,25,35,4,5
11,-74,-84,32,48,-79,5,56,19,32,6,5
16,-70,-86,27,51,-77,5,50,14,27,3,5
17,-66,-83,25,51,-75,5,42,9,24,-1,5
19,-63,-82,22,51,-73,6,43,4,21,1,5
44,-59,-103,8,74,-80,4,44,1,16,-5,4
44,-61,-104,9,74,-83,-1,35,-2,14,-10,-2
37,-60,-97,11,67,-79,-6,30,-7,5,-16,-7
45,-52,-98,4,72,-75,-10,21,-10,-4,-19,-13
3,-86,-89,42,46,-88,-15,14,-14,-12,-15,-19
-8,-102,-94,55,43,-97,-20,7,-26,-23,-16,-24
15,-86,-101,36,58,-94,-20,-1,-32,-22,-12,-25
7,-92,-99,42,53,-96,-20,-9,-30,-17,-10,-25
11,-90,-101,39,56,-95,-19,-18,-30,-14,-9,-25
11,-87,-98,38,55,-93,-22,-23,-30,-11,-21,-26
-8,-111,-103,59,47,-107,-30,-41,-38,-6,-41,-39
-4,-98,-95,51,46,-96,-30,-52,-41,-6,-39,-39
15,-81,-96,33,56,-88,-30,-49,-39,-12,-33,-32
24,-87,-111,32,68,-99,-30,-50,-41,-18,-30,-28
0,-85,-84,43,42,-84,-30,-50,-40,-24,-25,-21
-31,-103,-72,67,21,-87,-29,-50,-41,-29,-20,-16
-32,-104,-72,68,20,-88,-25,-46,-45,-30,-23,-19
-30,-96,-66,63,18,-81,-23,-45,-45,-30,-25,-25
-30,-95,-65,63,17,-80,-19,-45,-46,-35,-25,-30
-29,-87,-59,58,15,-73,-17,-45,-50,-35,-30,-35
-22,-86,-64,54,22,-75,-13,-44,-50,-36,-30,-42
-22,-89,-67,56,22,-78,-20,-48,-48,-40,-30,-43
-17,-90,-73,54,28,-82,-31,-56,-44,-40,-30,-40
-1,-90,-89,46,44,-89,-28,-53,-45,-40,-30,-37
0,-90,-90,45,45,-90,-25,-50,-41,-40,-30,-35
0,-90,-90,45,45,-90,-23,-48,-40,-40,-33,-32
7,-88,-95,41,51,-91,-19,-44,-40,-40,-36,-29
11,-84,-95,37,54,-90,-20,-48,-35,-40,-33,-35
8,-86,-94,39,51,-90,-20,-57,-35,-40,-46,-43
6,-84,-90,39,48,-86,-20,-56,-34,-40,-56,-40
3,-87,-90,42,47,-88,-20,-55,-30,-40,-54,-37
-12,-100,-88,56,38,-93,-20,-54,-29,-39,-56,-35
-16,-100,-84,58,34,-92,-20,-50,-39,-31,-55,-31
3,-83,-86,40,45,-84,-13,-51,-38,-22,-56,-31
11,-70,-80,30,46,-75,-6,-47,-21,-14,-47,-23
17,-59,-76,21,46,-67,3,-28,-8,-2,-30,-4
42,-26,-68,-8,55,-47,8,-10,13,15,-17,11
80,15,-65,-47,73,-25,15,3,33,32,-3,28
116,51,-65,-83,91,-7,-3,22,35,44,12,36
93,29,-64,-60,78,-17,-63,-8,19,28,23,30
69,-15,-84,-27,76,-49,-79,-59,-15,9,8,24
80,-10,-91,-35,86,-50,-76,-74,-41,1,-12,19
53,-38,-91,-8,72,-64,-84,-98,-68,-34,-30,3
19,-69,-88,25,53,-79,-53,-106,-75,-48,-43,-21
-41,-133,-92,87,26,-112,-32,-105,-76,-61,-61,-43
-58,-146,-88,102,15,-116,-41,-103,-74,-66,-66,-51
-8,-105,-98,57,45,-101,-41,-98,-75,-62,-64,-51
-58,-160,-101,109,22,-130,-39,-103,-87,-62,-68,-58
-57,-167,-111,112,27,-139,-25,-72,-71,-51,-61,-57
-14,-154,-140,84,63,-147,70,35,-24,-53,-71,-87
-33,-104,-71,69,19,-87,153,194,112,48,2,-47
308,209,-98,-258,203,55,112,396,414,366,351,253
637,754,118,-696,259,436,17,690,940,984,986,780
217,746,529,-481,-156,637,105,677,893,919,909,775
-337,214,551,61,-444,383,451,497,383,219,133,155
-476,-12,463,244,-469,225,730,669,408,162,-73,-102
-521,-126,395,323,-458,135,885,790,458,201,-57,-117
-576,-216,360,396,-468,72,1018,690,352,86,-143,-167
-556,-206,350,381,-453,72,1076,571,286,53,-142,-143
-446,-185,262,315,-354,38,894,350,133,-29,-146,-136
-280,-164,116,222,-198,-23,492,72,-17,-90,-124,-110
-167,-167,1,167,-84,-83,168,-57,-102,-122,-107,-76
-114,-139,-25,127,-44,-82,28,-89,-105,-111,-82,-50
-85,-126,-41,106,-22,-84,-9,-113,-105,-116,-71,-44
-96,-151,-55,124,-20,-103,-31,-116,-106,-115,-57,-38
-99,-152,-54,126,-22,-103,-46,-123,-103,-114,-52,-31
-87,-137,-50,112,-18,-93,-70,-129,-115,-117,-66,-24
-64,-111,-47,88,-8,-79,-71,-130,-121,-112,-64,-22
-32,-78,-45,56,7,-61,-55,-130,-120,-108,-61,-32
-28,-71,-43,50,7,-56,-64,-130,-120,-103,-58,-28
-27,-65,-38,46,6,-51,-64,-130,-120,-99,-55,-25
-21,-56,-35,39,7,-45,-72,-132,-120,-95,-54,-23
-21,-53,-32,37,5,-42,-86,-142,-117,-100,-42,-20
-15,-43,-28,29,7,-35,-88,-139,-112,-100,-31,-19
-20,-43,-24,32,2,-33,-99,-144,-106,-101,-19,-8
-17,-39,-22,28,2,-30,-132,-169,-104,-96,-10,-2
22,5,-17,-14,20,-6,-136,-166,-96,-82,0,13
49,32,-17,-40,33,7,-146,-176,-100,-68,13,32
39,29,-10,-34,25,9,-180,-205,-112,-57,19,38
54,41,-12,-47,33,14,-194,-211,-106,-49,37,50
55,52,-4,-54,29,24,-229,-230,-104,-41,39,53
56,68,12,-62,21,40,-269,-262,-99,-30,64,78
121,107,-13,-114,67,47,-283,-264,-97,-14,98,108
152,125,-27,-138,89,49,-285,-233,-88,19,108,118
174,119,-55,-146,114,32,-287,-203,-61,46,130,125
202,116,-86,-158,144,15,-292,-171,-29,53,133,115
216,107,-109,-161,163,-1,-273,-126,-3,65,131,109
233,104,-129,-168,180,-12,-230,-73,18,85,123,103
189,70,-119,-130,154,-24,-162,-7,50,90,115,95
158,44,-114,-101,136,-35,-100,44,63,83,109,85
148,47,-101,-97,124,-27,-58,74,73,79,79,54
97,8,-89,-52,93,-41,-26,78,70,73,53,28
87,14,-74,-50,81,-30,-16,68,51,68,42,17
43,-8,-51,-17,47,-29,-13,63,46,61,30,5
-9,-49,-40,30,15,-44,-10,55,41,50,22,-1
9,-14,-23,2,16,-18,-8,50,39,39,16,-4
-6,-27,-22,17,8,-24,-4,43,34,27,9,-7
9,-35,-44,14,26,-39,-7,36,31,20,3,-11
34,-12,-46,-10,40,-29,-11,30,27,15,-4,-15
32,-12,-44,-10,38,-27,-14,21,19,10,-5,-11
40,-7,-47,-16,43,-27,-18,14,11,6,-5,-10
39,-3,-43,-17,42,-23,-20,7,5,1,-5,-10
30,-18,-49,-6,40,-33,-25,5,1,-3,-5,-6
15,-32,-47,8,31,-39,-22,5,-1,-5,-5,-5
21,-30,-52,5,36,-41,-20,1,-6,-8,-6,-6
31,-31,-62,0,46,-46,-20,0,-9,-11,-10,-10
13,-52,-65,20,40,-59,-16,0,-13,-15,-13,-13
18,-55,-73,19,46,-64,-15,-5,-27,-20,-17,-17
11,-63,-73,26,42,-68,-15,-5,-35,-23,-20,-20
-2,-92,-90,47,44,-91,-26,-4,-35,-28,-24,-24
41,-57,-98,8,70,-77,-32,-8,-35,-30,-25,-25
43,-48,-92,3,68,-70,-29,-12,-36,-30,-25,-25
34,-57,-91,12,63,-74,-30,-17,-33,-30,-25,-29
27,-62,-89,18,58,-75,-30,-19,-42,-30,-24,-31
4,-82,-86,39,45,-84,-30,-17,-55,-31,-27,-28
14,-66,-79,26,47,-72,-33,-9,-55,-34,-30,-25
17,-58,-76,21,47,-67,-35,-17,-55,-35,-30,-25
17,-55,-71,19,45,-63,-30,-37,-55,-35,-30,-25
11,-55,-66,22,39,-60,-25,-34,-55,-35,-30,-25
7,-55,-63,24,36,-59,-20,-30,-53,-35,-30,-25
3,-55,-58,26,31,-56,-17,-27,-49,-35,-27,-21
0,-55,-55,28,28,-55,-10,-22,-47,-35,-24,-20
2,-50,-52,24,27,-50,-13,-20,-44,-35,-21,-20
5,-42,-47,19,26,-44,-27,-20,-41,-35,-18,-20
9,-36,-45,14,27,-40,-30,-20,-40,-35,-15,-20
10,-30,-40,10,25,-35,-30,-19,-49,-35,-16,-21
21,-19,-40,-1,31,-29,-30,-26,-55,-41,-23,-25
1,-39,-39,19,20,-39,-30,-32,-55,-46,-29,-27
-20,-53,-34,37,7,-43,-29,-28,-55,-44,-36,-30
-3,-40,-37,22,18,-38,-35,-25,-55,-47,-43,-33
1,-27,-28,13,15,-27,-43,-23,-55,-62,-45,-35
-8,-45,-36,26,15,-40,-40,-19,-55,-66,-45,-35
-16,-67,-50,42,17,-58,-40,-24,-58,-66,-45,-35
-16,-56,-40,36,12,-48,-40,-30,-67,-71,-45,-35
-17,-52,-34,35,9,-43,-39,-38,-69,-68,-46,-34
-19,-46,-28,33,5,-37,-41,-48,-62,-62,-44,-30
-15,-36,-21,26,3,-28,-34,-41,-53,-53,-41,-27
-17,-32,-15,25,-1,-23,-31,-41,-45,-45,-37,-23
-3,-23,-20,13,9,-21,-26,-30,-38,-38,-35,-20
30,-10,-40,-10,36,-25,-23,-7,-25,-24,-28,-14
72,24,-47,-48,59,-11,-19,0,-1,-1,-7,11
81,70,-11,-75,45,29,-13,6,23,23,13,38
92,80,-12,-86,51,34,-63,-7,25,32,23,39
119,69,-50,-94,84,10,-95,-38,-11,17,16,26
63,59,-4,-61,33,27,-82,-75,-55,-5,-1,26
36,35,0,-36,18,17,-84,-109,-77,-48,-32,5
3,-43,-46,20,25,-44,-76,-110,-87,-61,-53,-26
-60,-116,-56,88,-1,-86,-74,-110,-96,-58,-58,-38
-14,-68,-54,42,20,-61,-68,-110,-88,-76,-71,-49
-11,-66,-55,39,22,-60,-64,-109,-82,-82,-72,-50
-55,-111,-56,84,1,-83,-59,-112,-85,-96,-81,-52
-47,-99,-52,73,3,-75,-38,-91,-68,-68,-66,-38
-16,-115,-98,66,41,-106,15,-14,-57,-63,-87,-83
22,-21,-43,0,33,-32,120,164,95,39,-32,-65
248,200,-47,-224,148,76,118,371,369,340,278,197
606,704,97,-655,254,400,-15,638,859,924,891,703
361,902,541,-632,-90,722,25,646,950,1028,1006,857
-229,370,600,-71,-415,485,334,445,391,327,243,259
-418,41,459,188,-438,249,616,581,331,135,-93,-120
-468,-65,404,266,-436,169,778,733,426,207,-57,-136
-507,-159,347,333,-427,94,922,690,342,122,-148,-196
-505,-162,343,333,-424,90,1025,590,301,90,-159,-190
-446,-149,297,298,-371,74,920,402,144,-16,-188,-186
-319,-118,201,218,-260,42,578,125,15,-70,-164,-141
-209,-126,82,167,-145,-22,236,-56,-81,-112,-132,-107
-137,-119,18,128,-78,-50,29,-92,-106,-115,-113,-98
-111,-113,-2,112,-54,-57,-31,-124,-105,-113,-104,-83
-71,-99,-28,85,-21,-63,-51,-134,-107,-119,-99,-80
-53,-84,-31,68,-10,-57,-57,-138,-102,-118,-91,-72
-49,-77,-28,63,-10,-52,-54,-140,-110,-122,-89,-70
-42,-68,-26,56,-8,-47,-71,-143,-115,-115,-82,-65
-41,-63,-22,53,-9,-43,-75,-146,-116,-115,-79,-61
-35,-55,-20,45,-7,-37,-74,-141,-114,-111,-74,-56
-33,-50,-17,42,-8,-34,-78,-140,-116,-108,-71,-49
-30,-44,-15,37,-7,-29,-93,-140,-114,-105,-66,-43
-23,-39,-15,32,-4,-27,-97,-141,-119,-104,-64,-36
-14,-25,-11,20,-1,-18,-110,-151,-126,-100,-60,-30
-2,-12,-10,7,4,-11,-135,-164,-125,-96,-56,-21
11,1,-10,-6,11,-5,-154,-170,-124,-93,-52,-13
10,10,0,-10,4,5,-162,-180,-126,-88,-43,-5
18,34,15,-26,1,24,-169,-191,-124,-86,-34,2
28,57,28,-43,0,42,-191,-207,-127,-78,-26,12
18,49,31,-34,-7,40,-216,-228,-137,-59,-14,31
36,65,29,-51,3,47,-248,-250,-133,-53,0,41
83,109,25,-97,29,67,-268,-271,-125,-47,16,61
96,121,25,-109,35,73,-282,-275,-119,-42,39,82
94,108,14,-101,39,61,-308,-275,-113,-27,56,97
152,132,-20,-141,86,56,-309,-252,-99,8,85,113
186,134,-52,-159,118,41,-313,-206,-71,21,103,107
201,116,-86,-158,143,15,-295,-162,-36,42,94,94
224,126,-97,-175,160,14,-229,-103,-2,72,90,84
187,97,-90,-142,138,3,-184,-49,21,66,83,71
134,46,-88,-90,111,-21,-135,-11,44,59,72,60
109,50,-59,-79,84,-4,-71,26,56,53,54,42
61,16,-46,-38,53,-15,-46,47,51,44,32,24
-2,-43,-41,23,19,-42,-25,43,49,38,20,12
25,13,-12,-19,18,0,15,37,44,30,10,3
48,36,-12,-42,30,12,28,34,41,25,1,-8
3,7,4,-5,-1,5,22,29,38,20,-12,-26
-16,13,29,1,-23,21,21,25,31,14,-22,-32
-9,9,18,0,-14,13,17,18,26,9,-20,-28
-1,15,16,-7,-9,16,16,11,21,4,-20,-25
23,34,11,-29,6,23,12,4,15,-2,-20,-23
35,41,6,-38,15,23,2,-4,10,-7,-20,-19
29,36,7,-33,10,21,-7,-11,5,-13,-20,-24
13,30,16,-22,-2,23,-29,-15,2,-19,-23,-36
5,29,24,-17,-10,26,-42,-15,-2,-24,-26,-35
1,20,19,-11,-9,19,-37,-15,-5,-29,-25,-35
9,20,10,-15,-1,14,-33,-15,-9,-30,-25,-32
22,27,5,-25,9,16,-27,-15,-13,-30,-25,-29
4,-1,-6,-1,5,-3,-24,-15,-15,-30,-26,-30
14,-15,-29,1,22,-22,-18,-20,-18,-30,-30,-25
2,-22,-24,10,13,-23,-15,-28,-21,-31,-30,-26
-18,-42,-24,30,4,-33,-22,-34,-24,-37,-30,-23
3,-41,-44,19,24,-42,-34,-42,-25,-44,-30,-20
-5,-38,-33,22,14,-35,-37,-43,-20,-41,-26,-20
-6,-47,-41,27,17,-44,-32,-38,-20,-40,-24,-21
-2,-62,-60,32,30,-61,-26,-32,-19,-40,-21,-33
-22,-80,-58,52,18,-68,-20,-29,-15,-35,-18,-36
-27,-81,-54,54,14,-67,-15,-23,-15,-35,-15,-35
-18,-68,-50,43,16,-59,-4,-20,-15,-36,-15,-40
-2,-49,-47,26,23,-48,-6,-31,-15,-40,-27,-40
-1,-44,-42,23,21,-43,-16,-37,-15,-42,-31,-39
-31,-73,-42,52,6,-57,-22,-34,-15,-45,-29,-35
-40,-77,-37,58,-1,-56,-26,-35,-15,-49,-30,-35
-21,-74,-53,48,16,-63,-24,-57,-34,-50,-30,-35
-10,-76,-67,43,29,-71,-25,-68,-42,-54,-31,-35
-21,-75,-54,48,17,-64,-24,-64,-39,-55,-29,-35
-40,-82,-42,61,1,-61,-26,-66,-44,-58,-35,-31
-41,-79,-37,60,-2,-58,-14,-65,-45,-60,-41,-30
-21,-83,-62,52,21,-72,-11,-65,-44,-61,-40,-30
-12,-85,-74,48,32,-79,-33,-60,-41,-65,-40,-25
-20,-84,-64,53,22,-74,-36,-55,-38,-65,-40,-25
-32,-98,-66,65,18,-82,-29,-52,-36,-65,-40,-24
-37,-97,-59,67,11,-78,-26,-47,-32,-62,-36,-20
-29,-89,-60,59,16,-74,-21,-45,-30,-56,-35,-20
0,-83,-84,42,42,-83,-17,-45,-28,-52,-35,-20
14,-78,-92,32,53,-85,-12,-45,-23,-48,-30,-20
17,-72,-89,27,54,-80,-10,-46,-21,-43,-31,-21
27,-64,-91,18,59,-77,-10,-44,-17,-39,-29,-16
35,-55,-90,10,63,-72,-7,-41,-13,-30,-21,-9
45,-45,-90,0,68,-67,-4,-30,-9,-24,-9,-2
52,-31,-83,-10,68,-57,-7,-21,6,-8,-1,4
84,14,-69,-49,76,-27,9,12,28,23,14,12
85,41,-44,-62,64,-1,11,30,38,31,27,12
101,61,-40,-81,71,10,-35,-11,18,24,22,9
127,73,-54,-100,90,9,-79,-42,-10,-4,10,5
114,61,-54,-87,84,3,-88,-55,-26,-24,5,2
93,37,-56,-64,74,-9,-74,-79,-56,-38,-9,-2
29,-26,-55,-1,42,-40,-63,-102,-67,-39,-27,-17
-11,-89,-78,50,34,-83,-43,-105,-70,-52,-38,-39
-7,-88,-81,47,37,-84,-31,-100,-72,-64,-45,-54
3,-75,-78,36,40,-76,-30,-97,-65,-49,-45,-58
-32,-116,-84,74,26,-100,-17,-95,-82,-75,-59,-69
-32,-109,-76,70,23,-92,-24,-78,-59,-61,-48,-62
-9,-147,-138,78,65,-142,39,18,-27,-54,-72,-93
2,-82,-83,41,43,-82,139,195,121,58,-19,-61
262,229,-33,-245,147,97,136,410,413,393,318,216
568,750,182,-659,192,465,8,630,883,976,940,742
313,916,603,-614,-145,759,-6,573,908,1022,1000,862
-207,344,550,-69,-379,447,295,410,361,306,217,229
-348,13,360,167,-354,186,598,605,343,133,-104,-131
-366,-80,286,223,-325,102,773,768,432,211,-62,-142
-462,-218,244,340,-353,13,928,669,305,92,-163,-215
-484,-201,283,342,-384,41,1034,563,250,44,-164,-210
-426,-181,245,303,-335,32,916,368,116,-37,-164,-196
-290,-137,153,214,-221,8,552,93,-14,-90,-142,-145
-147,-104,44,125,-95,-30,226,-46,-101,-122,-123,-109
-83,-86,-3,85,-40,-44,50,-84,-114,-113,-108,-93
-59,-76,-18,68,-20,-47,-15,-102,-115,-108,-96,-82
-29,-65,-35,47,3,-50,-34,-114,-116,-106,-89,-77
-53,-89,-36,71,-8,-62,-55,-121,-114,-98,-79,-65
-47,-83,-36,65,-5,-59,-59,-120,-116,-97,-81,-66
-40,-67,-28,54,-6,-48,-64,-125,-116,-105,-79,-64
-62,-85,-23,74,-19,-54,-78,-127,-122,-111,-80,-65
-52,-72,-20,62,-16,-45,-81,-130,-118,-100,-80,-65
-65,-72,-7,69,-29,-39,-88,-132,-125,-101,-80,-65
-42,-78,-36,60,-3,-57,-93,-135,-124,-92,-74,-59
-2,-70,-68,37,34,-69,-109,-135,-128,-93,-68,-53
4,-44,-48,20,27,-46,-136,-134,-132,-98,-61,-47
12,-26,-38,7,25,-32,-125,-137,-115,-78,-47,-28
20,-9,-29,-5,25,-19,-124,-133,-115,-67,-33,-10
32,12,-20,-22,26,-4,-150,-144,-122,-63,-22,1
34,20,-14,-27,24,3,-164,-161,-124,-56,-14,16
25,21,-4,-23,15,8,-184,-176,-129,-51,-6,39
48,46,-2,-47,25,22,-215,-193,-132,-42,4,50
69,71,2,-70,33,36,-244,-211,-137,-37,18,61
64,58,-7,-61,35,25,-272,-231,-139,-28,32,72
120,84,-36,-102,78,24,-292,-230,-130,-15,52,86
172,127,-45,-150,108,41,-289,-215,-121,5,78,107
164,123,-40,-143,102,41,-277,-211,-101,20,97,121
179,113,-65,-146,122,24,-273,-189,-59,47,119,131
204,106,-98,-155,151,3,-261,-148,-32,55,126,129
219,96,-123,-157,170,-13,-238,-98,-3,56,118,132
201,76,-125,-138,163,-24,-184,-11,41,102,118,121
147,47,-100,-97,123,-26,-120,43,58,105,99,80
100,28,-72,-63,86,-22,-76,61,51,81,64,44
72,12,-60,-42,66,-23,-34,79,43,70,43,18
49,2,-47,-26,48,-22,-10,73,35,50,29,3
21,-7,-28,-7,25,-17,-10,65,27,38,7,-6
-23,-29,-6,26,-8,-17,-10,57,21,27,-14,-24
-50,-15,35,32,-42,9,-10,51,20,18,-16,-36
-26,5,31,11,-29,18,-10,44,20,9,-14,-34
-23,-20,4,21,-13,-8,-9,37,15,4,-16,-29
-7,-3,4,5,-5,1,4,31,15,-1,-15,-27
24,22,-2,-23,13,10,7,25,14,-7,-15,-22
18,14,-4,-15,11,5,-2,20,9,-13,-15,-20
16,8,-9,-12,12,0,-7,12,4,-15,-15,-21
10,0,-10,-5,10,-5,-14,6,0,-15,-15,-19
-7,-8,-1,8,-3,-5,-21,-1,-5,-15,-15,-27
-2,-13,-11,8,4,-11,-26,-7,-9,-15,-15,-36
6,-11,-17,3,11,-14,-33,-11,-14,-15,-16,-37
4,-8,-13,2,9,-10,-36,-9,-14,-16,-22,-40
14,-4,-18,-4,17,-11,-39,-10,-16,-19,-25,-44
-11,-9,2,10,-6,-4,-42,-10,-14,-23,-30,-45
-41,-25,16,32,-28,-4,-45,-8,-18,-23,-35,-42
-62,-57,5,60,-33,-26,-44,-30,-45,-37,-32,-39
-55,-62,-7,59,-24,-34,-27,-31,-52,-39,-28,-36
-10,-38,-28,24,10,-33,-16,-17,-49,-24,-24,-33
-1,-33,-31,17,15,-32,-14,-21,-48,-26,-21,-30
13,-16,-29,2,21,-23,-11,-19,-44,-24,-16,-31
-2,-32,-31,17,15,-31,-8,-21,-46,-21,-15,-35
-32,-62,-29,47,-1,-45,-5,-19,-45,-18,-33,-37
-35,-66,-30,51,-2,-48,-6,-22,-45,-25,-41,-40
-35,-67,-33,51,-1,-50,-15,-24,-45,-40,-42,-43
-28,-72,-44,51,8,-58,-32,-28,-45,-41,-46,-46
-47,-92,-45,70,0,-68,-38,-39,-46,-45,-41,-41
-39,-79,-40,59,1,-60,-34,-42,-43,-47,-40,-40
-24,-62,-38,43,7,-50,-36,-45,-40,-51,-40,-40
-27,-60,-33,44,3,-46,-34,-48,-40,-47,-40,-35
-23,-52,-30,37,4,-41,-36,-51,-38,-45,-41,-35
-19,-49,-30,34,6,-39,-34,-47,-34,-62,-38,-34
-11,-41,-30,26,10,-35,-30,-45,-35,-66,-35,-30
-17,-47,-30,32,7,-38,-30,-42,-38,-64,-35,-30
-30,-61,-30,46,0,-45,-28,-39,-43,-66,-33,-30
-30,-60,-29,45,-1,-45,-24,-36,-47,-64,-29,-30
-29,-60,-30,45,1,-45,-25,-34,-50,-66,-31,-30
-41,-59,-18,50,-11,-38,-28,-42,-51,-69,-33,-33
-31,-45,-13,38,-9,-29,-37,-45,-48,-71,-38,-36
-36,-42,-6,39,-15,-24,-39,-60,-59,-67,-39,-34
-42,-48,-7,45,-17,-27,-32,-56,-69,-59,-33,-29
-30,-67,-37,49,3,-51,-26,-51,-59,-52,-28,-24
-12,-54,-41,33,15,-47,-19,-53,-51,-43,-21,-20
25,-15,-40,-5,33,-27,-13,-27,-41,-37,-17,-15
50,3,-47,-26,48,-22,-6,-11,-26,-27,-7,-11
55,12,-43,-33,49,-15,-2,0,-15,-18,10,-6
41,10,-31,-25,36,-10,9,25,11,-3,28,1
77,73,-5,-75,41,34,10,38,28,29,36,9
72,73,2,-73,34,37,-50,-1,7,21,25,18
56,27,-29,-42,42,-1,-88,-34,-17,-16,15,16
86,49,-37,-67,61,6,-83,-49,-41,-26,5,7
81,48,-33,-64,57,7,-88,-79,-66,-44,-8,1
50,20,-30,-35,40,-5,-72,-80,-63,-60,-19,-6
6,-22,-27,8,17,-24,-45,-82,-76,-66,-36,-36
-17,-42,-25,30,4,-33,-32,-86,-87,-89,-66,-54
-19,-42,-24,31,3,-33,-48,-84,-89,-91,-67,-47
-11,-39,-28,25,8,-33,-54,-87,-106,-101,-65,-53
-31,-62,-31,47,0,-46,-39,-79,-86,-88,-65,-49
-26,-120,-94,74,34,-107,0,-21,-82,-88,-80,-92
-21,-75,-54,49,17,-64,126,146,36,-9,-57,-84
158,122,-36,-140,97,43,131,309,254,224,159,104
558,633,75,-595,241,354,-26,557,733,809,764,598
442,962,520,-702,-39,741,-18,691,1018,1127,1077,910
-159,500,659,-171,-409,579,256,482,483,492,374,378
-394,99,493,148,-444,296,587,559,292,176,-101,-94
-437,-35,402,236,-420,184,794,787,437,236,-62,-128
-539,-154,385,346,-462,115,934,711,334,118,-159,-190
-520,-146,373,333,-446,113,1039,603,286,86,-161,-185
-449,-150,299,299,-374,75,934,422,155,5,-156,-165
-293,-96,198,194,-245,51,578,131,1,-54,-147,-126
-155,-79,76,117,-116,-1,221,-30,-93,-103,-132,-94
-117,-103,14,110,-66,-44,27,-71,-97,-113,-126,-84
-79,-85,-6,82,-36,-46,-29,-90,-101,-106,-107,-72
-41,-58,-17,50,-12,-37,-33,-102,-125,-116,-104,-73
-45,-68,-23,57,-11,-45,-46,-109,-117,-112,-98,-62
-56,-86,-30,71,-13,-58,-57,-112,-122,-117,-102,-60
-31,-64,-33,48,1,-49,-54,-117,-119,-109,-99,-53
-31,-64,-33,48,1,-49,-55,-121,-120,-106,-100,-48
-49,-74,-26,62,-11,-50,-73,-126,-117,-100,-99,-43
-52,-73,-21,63,-15,-47,-82,-129,-111,-95,-92,-36
-54,-68,-14,61,-20,-40,-87,-134,-107,-88,-88,-32
-31,-43,-12,37,-9,-27,-90,-138,-102,-86,-81,-25
-38,-35,3,37,-20,-16,-101,-142,-98,-93,-78,-15
-62,-42,20,52,-41,-11,-113,-145,-96,-88,-67,-5
-50,-32,18,40,-33,-7,-121,-145,-100,-80,-50,5
-41,-28,13,34,-27,-7,-138,-150,-100,-75,-40,17
3,15,12,-9,-4,13,-149,-161,-100,-67,-28,30
59,64,5,-62,27,35,-173,-177,-101,-62,-17,42
59,66,6,-63,26,36,-194,-195,-98,-55,-3,57
55,65,10,-60,22,37,-226,-219,-106,-47,6,62
94,84,-9,-89,51,37,-259,-232,-113,-38,37,83
121,119,-2,-120,62,58,-264,-228,-102,-32,63,107
129,134,5,-132,61,70,-291,-226,-92,-22,58,102
168,145,-23,-156,95,60,-307,-218,-80,-3,84,119
198,140,-58,-169,127,41,-298,-181,-49,16,96,128
204,117,-86,-160,145,15,-276,-152,-30,22,86,114
202,107,-95,-154,148,6,-233,-124,-14,31,84,103
191,94,-97,-142,144,-1,-183,-50,26,52,75,85
173,79,-94,-126,133,-7,-130,3,41,53,72,70
125,45,-80,-85,102,-17,-85,26,48,43,62,54
66,-1,-67,-32,66,-33,-36,51,55,38,46,38
48,-7,-56,-20,53,-31,-5,52,46,30,30,23
52,-1,-53,-25,53,-27,-5,44,43,25,22,11
16,-34,-50,9,33,-41,0,37,36,19,18,0
10,-34,-44,12,28,-39,1,29,31,12,11,-18
27,-17,-44,-5,36,-30,5,22,26,6,6,-26
21,-8,-30,-6,26,-19,4,16,25,-1,1,-25
40,0,-39,-20,39,-19,-12,14,25,-8,0,-25
25,-29,-54,2,40,-41,-18,11,20,-10,-5,-25
11,-31,-42,10,27,-36,-13,8,20,-10,-4,-25
10,-25,-35,7,23,-29,-11,5,19,-10,0,-25
4,-24,-28,10,17,-26,-8,4,15,-10,-3,-25
3,-17,-20,7,11,-18,-5,-2,12,-10,-6,-25
6,-17,-23,6,15,-20,-6,-8,8,-10,-9,-25
52,2,-50,-26,51,-24,-15,-12,5,-15,-12,-25
43,-16,-59,-13,51,-37,-25,-19,1,-18,-14,-26
-3,-54,-51,29,24,-52,-27,-23,-6,-23,-17,-32
-9,-58,-50,33,21,-54,-24,-26,-13,-29,-20,-35
-4,-51,-46,28,21,-48,-20,-24,-18,-30,-20,-40
-5,-45,-39,25,17,-42,-19,-28,-29,-30,-20,-44
11,-37,-48,13,30,-42,-14,-40,-36,-31,-19,-46
34,-31,-65,-1,50,-48,-18,-40,-35,-29,-21,-49
25,-33,-59,4,42,-46,-38,-39,-34,-34,-15,-51
-2,-55,-53,29,26,-54,-41,-42,-31,-41,-18,-55
-2,-51,-49,27,24,-50,-39,-46,-29,-40,-35,-54
24,-16,-40,-4,32,-28,-38,-45,-33,-40,-36,-50
18,-28,-47,5,33,-37,-34,-44,-42,-39,-35,-48
-3,-59,-56,32,26,-57,-34,-46,-41,-41,-33,-44
3,-51,-55,25,29,-53,-43,-43,-40,-37,-30,-42
18,-39,-57,10,38,-48,-51,-50,-40,-35,-29,-38
20,-40,-60,10,40,-50,-45,-61,-40,-43,-38,-49
20,-40,-60,10,40,-50,-42,-60,-39,-46,-47,-57
15,-41,-56,13,36,-48,-39,-57,-45,-45,-42,-52
15,-37,-53,11,34,-45,-32,-53,-50,-45,-40,-50
-1,-50,-49,26,24,-49,-47,-64,-57,-55,-37,-46
-19,-65,-46,42,14,-55,-63,-72,-76,-62,-34,-45
5,-35,-41,15,23,-38,-57,-69,-58,-59,-39,-42
12,-27,-39,8,25,-33,-54,-70,-36,-59,-40,-37
-20,-49,-29,35,4,-39,-50,-70,-50,-54,-41,-34
-30,-42,-12,36,-9,-27,-46,-70,-60,-55,-45,-30
2,-47,-49,23,26,-48,-44,-67,-60,-53,-44,-27
18,-52,-70,17,44,-61,-40,-63,-62,-48,-48,-23
27,-28,-55,1,41,-41,-40,-62,-66,-45,-50,-20
3,-46,-48,22,26,-47,-40,-58,-65,-42,-51,-17
-18,-59,-41,38,12,-50,-41,-56,-61,-38,-46,-15
-4,-32,-28,18,12,-30,-39,-53,-50,-34,-36,-11
9,-18,-27,4,18,-22,-41,-42,-40,-26,-28,-11
45,-5,-50,-20,48,-27,-39,-26,-29,-13,-18,-3
58,16,-42,-37,49,-13,-42,-14,-3,-2,4,12
85,72,-13,-78,49,29,-38,3,21,19,29,25
100,91,-9,-96,55,41,-44,11,15,28,28,40
102,50,-52,-76,76,-1,-88,-30,-15,0,11,30
79,13,-66,-46,72,-26,-105,-67,-38,-31,-6,11
22,-9,-31,-6,27,-20,-107,-97,-68,-58,-18,0
38,10,-28,-24,33,-9,-94,-111,-89,-74,-35,-17
45,-15,-60,-15,52,-37,-78,-89,-72,-65,-45,-30
-6,-78,-72,42,34,-75,-82,-90,-86,-82,-63,-49
-36,-91,-56,64,10,-73,-77,-106,-101,-93,-79,-64
-42,-103,-60,73,10,-81,-74,-117,-116,-103,-94,-72
-43,-87,-44,65,1,-66,-70,-115,-106,-89,-90,-63
-8,-96,-88,52,40,-92,-37,-66,-84,-91,-92,-78
-36,-105,-69,71,17,-87,77,73,-14,-61,-105,-118
83,53,-30,-68,56,12,144,238,172,122,58,9
498,482,-16,-490,257,233,0,473,568,597,570,433
576,931,355,-754,110,643,-75,707,1020,1128,1095,886
49,671,623,-360,-287,647,186,571,683,691,638,573
-391,142,533,124,-462,338,535,518,287,129,-41,-38
-472,-27,446,249,-459,209,763,756,447,212,-55,-135
-549,-152,397,351,-473,122,920,748,391,141,-113,-178
-544,-177,367,360,-455,95,1029,639,302,79,-149,-205
-484,-161,323,322,-403,81,1004,501,214,34,-131,-169
-388,-168,220,278,-304,26,694,198,28,-63,-144,-142
-227,-152,75,189,-151,-38,290,-17,-86,-109,-126,-106
-135,-120,15,127,-75,-52,79,-69,-113,-126,-109,-98
-62,-76,-14,69,-24,-44,17,-96,-109,-116,-76,-77
-60,-93,-33,77,-13,-63,-16,-111,-120,-121,-82,-74
-72,-101,-29,86,-22,-65,-47,-114,-125,-113,-75,-67
-72,-100,-28,86,-22,-64,-57,-119,-127,-116,-73,-62
-62,-100,-39,81,-11,-69,-60,-120,-122,-111,-71,-57
-36,-95,-58,66,11,-76,-65,-119,-120,-106,-68,-51
-42,-96,-54,69,7,-75,-68,-122,-117,-102,-65,-46
-39,-93,-55,66,9,-74,-74,-125,-114,-97,-58,-39
-34,-90,-56,63,11,-72,-77,-126,-112,-93,-55,-36
-36,-91,-54,64,9,-72,-82,-130,-109,-88,-50,-29
-33,-84,-51,59,10,-67,-87,-130,-107,-83,-46,-24
-26,-67,-41,47,8,-54,-97,-134,-103,-76,-41,-19
-22,-56,-34,39,7,-45,-113,-141,-101,-69,-32,-11
10,-19,-29,5,20,-23,-123,-146,-99,-63,-24,-3
18,-3,-20,-7,19,-11,-141,-152,-95,-55,-16,4
17,-3,-21,-7,19,-12,-159,-169,-96,-47,-8,11
28,37,9,-32,9,23,-179,-184,-92,-39,2,26
20,40,20,-31,0,30,-208,-179,-90,-33,26,58
67,65,-2,-66,35,31,-225,-186,-90,-24,50,80
104,102,-2,-103,53,50,-258,-204,-90,-16,55,87
123,99,-24,-110,73,37,-286,-198,-89,-4,67,104
156,126,-29,-141,92,48,-285,-187,-73,11,93,115
185,138,-48,-161,116,45,-279,-174,-48,32,101,113
209,126,-83,-167,146,21,-266,-148,-22,53,93,109
203,105,-98,-154,150,3,-249,-112,-4,56,90,103
203,88,-115,-145,159,-13,-212,-54,32,66,84,101
171,66,-104,-118,137,-19,-154,9,63,70,81,76
137,37,-101,-87,119,-32,-102,50,68,60,73,41
105,19,-86,-62,96,-33,-59,66,70,55,54,25
19,-35,-54,8,37,-44,-34,59,62,47,43,9
-20,-50,-29,35,5,-39,-24,54,56,42,32,-1
35,2,-33,-19,34,-15,-11,49,49,36,20,1
42,0,-42,-21,42,-21,3,42,42,30,11,-2
17,-11,-28,-2,23,-20,16,38,36,25,4,-5
55,15,-39,-35,47,-11,16,32,29,19,-2,-5
33,-6,-39,-13,36,-22,11,30,23,14,-9,-7
13,-20,-33,4,23,-26,9,30,16,9,-16,-11
-2,-33,-31,18,15,-32,5,30,10,3,-22,-9
-14,-40,-26,27,6,-32,0,30,6,-2,-25,-14
27,4,-23,-15,25,-9,3,30,1,-8,-25,-15
41,21,-20,-31,30,0,8,23,-1,-14,-25,-15
37,19,-18,-27,27,1,1,15,-6,-19,-29,-20
21,7,-14,-13,17,-3,-3,7,-9,-23,-30,-22
39,1,-38,-20,38,-18,-9,-1,-13,-27,-30,-26
36,-11,-47,-12,42,-29,-15,-9,-22,-30,-35,-29
28,-16,-43,-5,36,-29,-19,-25,-33,-34,-35,-33
19,-27,-46,5,33,-36,-27,-41,-42,-35,-36,-35
-9,-54,-44,32,18,-49,-30,-46,-41,-35,-40,-35
-3,-48,-45,26,21,-46,-30,-45,-39,-35,-40,-35
-12,-52,-40,32,14,-46,-30,-45,-40,-35,-52,-30
12,-28,-40,8,26,-34,-30,-45,-40,-35,-56,-30
16,-22,-39,3,28,-30,-30,-45,-40,-35,-51,-28
-3,-37,-35,20,17,-36,-30,-47,-42,-35,-49,-25
0,-35,-35,18,18,-35,-30,-51,-46,-35,-46,-24
-4,-41,-38,23,17,-39,-30,-50,-45,-35,-44,-29
3,-37,-40,17,22,-38,-30,-50,-45,-35,-41,-40
7,-34,-41,14,24,-37,-30,-50,-45,-35,-40,-40
17,-28,-46,6,31,-37,-30,-50,-45,-36,-40,-40
-6,-51,-45,29,20,-48,-30,-56,-50,-40,-40,-40
-18,-63,-45,41,14,-54,-30,-58,-53,-42,-40,-40
-27,-73,-45,50,9,-58,-30,-69,-61,-54,-42,-38
-38,-83,-45,61,4,-63,-30,-68,-66,-61,-46,-35
-8,-53,-44,31,18,-48,-30,-55,-62,-60,-45,-35
-10,-48,-39,29,14,-44,-30,-55,-60,-58,-45,-35
-8,-49,-41,28,17,-45,-30,-54,-57,-54,-44,-35
-3,-41,-38,22,18,-39,-30,-50,-54,-55,-46,-35
-6,-45,-38,26,16,-41,-30,-50,-59,-58,-49,-40
23,-35,-58,6,41,-47,-30,-51,-60,-61,-52,-40
24,-40,-63,8,44,-51,-31,-58,-60,-64,-55,-41
34,-31,-65,-1,50,-48,-29,-64,-64,-66,-57,-45
35,-36,-71,0,53,-53,-35,-61,-65,-70,-61,-45
-22,-89,-67,55,23,-78,-46,-52,-64,-69,-57,-43
-2,-64,-62,33,30,-62,-42,-44,-51,-53,-45,-37
22,-32,-54,5,38,-42,-35,-36,-37,-33,-32,-31
11,-37,-48,13,30,-42,-33,-29,-23,-22,-25,-25
28,-13,-41,-7,35,-27,-23,-22,-8,-9,-15,-20
33,-2,-35,-15,34,-18,-24,-3,4,15,-3,-9
72,31,-41,-52,56,-5,-16,14,23,35,14,17
122,81,-41,-101,81,20,-38,9,21,46,42,36
126,69,-57,-97,91,6,-92,-16,-10,24,31,32
103,36,-66,-69,84,-15,-102,-52,-42,-17,5,17
79,27,-52,-53,65,-12,-95,-82,-71,-45,0,4
66,15,-50,-40,58,-17,-85,-96,-80,-64,-29,-19
27,-22,-49,-2,38,-35,-77,-94,-80,-73,-59,-48
14,-38,-53,12,34,-45,-72,-96,-97,-87,-70,-58
-13,-59,-46,36,17,-52,-68,-94,-92,-80,-60,-54
-50,-106,-56,78,3,-81,-60,-97,-96,-91,-70,-62
-37,-83,-47,61,5,-65,-58,-98,-87,-79,-74,-59
-47,-121,-74,84,14,-98,-35,-63,-86,-89,-70,-74
-44,-99,-55,72,5,-76,87,81,-6,-48,-73,-96
100,70,-30,-85,65,20,153,261,191,147,82,36
501,463,-37,-482,268,213,25,507,592,620,595,454
593,921,329,-757,132,625,-41,739,1035,1134,1107,898
7,631,624,-319,-309,627,199,572,671,677,629,574
-431,127,559,152,-495,343,543,515,281,138,-39,-30
-479,2,481,239,-480,241,768,752,439,219,-48,-128
-557,-117,440,337,-498,161,901,738,377,139,-115,-178
-562,-140,422,351,-492,141,1024,628,288,73,-167,-215
-487,-114,373,300,-430,129,1014,504,208,28,-152,-191
-387,-121,266,254,-326,72,708,212,33,-68,-156,-167
-249,-127,122,188,-185,-3,319,-21,-84,-119,-136,-126
-183,-138,45,160,-114,-46,72,-90,-119,-123,-127,-109
-118,-102,17,110,-67,-42,0,-122,-119,-112,-105,-79
-60,-63,-3,61,-28,-33,-13,-120,-122,-117,-105,-70
-67,-75,-8,71,-29,-41,-50,-119,-119,-108,-95,-63
-85,-92,-8,89,-39,-49,-62,-122,-121,-110,-89,-59
-98,-89,9,93,-53,-40,-69,-118,-119,-104,-83,-53
-78,-90,-13,84,-33,-51,-72,-123,-123,-105,-77,-47
-53,-88,-34,71,-9,-61,-77,-134,-126,-105,-72,-43
-79,-84,-6,82,-36,-45,-79,-136,-125,-104,-64,-36
-101,-82,19,91,-60,-31,-90,-134,-125,-106,-58,-32
-98,-79,18,88,-58,-30,-116,-136,-125,-100,-51,-26
-66,-53,12,59,-38,-20,-121,-135,-125,-92,-45,-20
-15,-8,7,12,-11,-1,-119,-136,-126,-84,-38,-16
6,8,1,-7,2,4,-120,-134,-124,-76,-30,-7
-8,-12,-5,11,-1,-8,-136,-146,-128,-69,-24,2
1,0,0,-1,1,0,-166,-162,-130,-63,-17,14
46,53,8,-50,19,30,-171,-171,-130,-57,-7,28
43,57,14,-50,14,35,-192,-192,-130,-51,2,42
43,62,19,-52,12,40,-237,-217,-130,-47,13,56
91,104,13,-98,39,59,-256,-228,-130,-38,31,77
110,119,10,-114,50,64,-274,-229,-118,-23,56,97
114,120,6,-118,54,62,-301,-220,-101,-10,73,107
130,125,-5,-128,67,60,-319,-205,-82,3,94,122
158,121,-37,-139,97,42,-322,-189,-58,18,117,126
193,112,-81,-152,137,15,-310,-164,-34,37,113,120
204,103,-100,-153,152,1,-271,-112,-6,52,105,116
196,93,-103,-144,149,-5,-219,-51,27,62,97,112
169,73,-96,-121,132,-11,-163,-5,46,57,90,104
129,45,-84,-87,107,-19,-97,33,45,49,79,78
88,12,-76,-50,81,-31,-61,57,45,43,53,60
55,-10,-65,-22,60,-38,-41,59,42,34,37,49
53,-5,-58,-24,56,-31,-9,52,39,28,31,37
39,-10,-49,-14,44,-29,9,49,40,21,24,28
10,-33,-42,12,26,-37,15,44,34,15,16,19
3,-35,-38,16,21,-36,15,40,29,10,9,10
-4,-35,-31,19,14,-33,15,35,24,5,2,1
-15,-43,-29,29,7,-36,15,30,18,-2,0,-5
-29,-46,-17,38,-5,-31,15,27,13,-3,0,-9
-14,-42,-28,28,7,-35,15,21,7,0,-4,-14
-20,-40,-20,30,0,-30,10,18,4,1,-5,-19
-26,-37,-11,31,-7,-23,5,15,0,-8,-5,-18
17,-35,-52,9,35,-43,1,12,-3,-19,-9,-14
20,-32,-52,6,36,-42,-4,9,-8,-20,-12,-15
12,-27,-39,8,26,-33,-8,6,-10,-19,-14,-15
15,-24,-39,5,28,-32,-12,4,-16,-22,-18,-15
4,-21,-26,9,15,-23,-17,0,-37,-32,-19,-16
15,-15,-30,1,23,-22,-20,-5,-41,-43,-25,-19
29,-19,-49,-5,39,-34,-28,-9,-40,-48,-32,-24
1,-49,-50,24,26,-50,-33,-14,-39,-46,-30,-25
-14,-59,-45,37,16,-52,-29,-18,-34,-44,-30,-27
2,-41,-43,20,23,-42,-24,-23,-35,-45,-30,-30
-5,-46,-41,25,18,-43,-22,-25,-35,-45,-30,-30
-10,-48,-38,29,14,-43,-16,-26,-35,-45,-31,-30
6,-40,-47,17,27,-43,-17,-29,-35,-47,-35,-30
24,-36,-60,6,42,-48,-33,-32,-35,-50,-35,-30
22,-29,-52,4,37,-40,-36,-34,-35,-50,-36,-30
26,-26,-52,0,39,-39,-30,-38,-35,-50,-40,-30
25,-31,-56,4,41,-43,-30,-40,-36,-50,-40,-30
-8,-62,-55,35,24,-58,-25,-42,-34,-50,-42,-30
-19,-74,-55,47,19,-64,-25,-47,-39,-55,-50,-30
-21,-76,-55,49,18,-65,-35,-51,-46,-63,-54,-29
-27,-81,-55,54,14,-67,-36,-54,-45,-65,-50,-24
4,-45,-49,21,27,-47,-35,-55,-45,-65,-50,-21
23,-21,-44,-1,34,-32,-34,-55,-45,-69,-49,-18
9,-29,-38,10,24,-34,-30,-55,-45,-71,-45,-14
-1,-35,-34,19,17,-34,-30,-55,-44,-69,-45,-9
-6,-30,-24,18,10,-27,-32,-55,-47,-66,-48,-18
0,-43,-43,22,22,-43,-35,-55,-59,-65,-50,-27
-6,-70,-64,38,29,-66,-35,-55,-57,-65,-50,-22
-3,-59,-56,31,27,-57,-39,-55,-50,-64,-53,-19
2,-54,-55,26,29,-54,-41,-55,-49,-66,-56,-16
0,-52,-52,26,26,-51,-39,-56,-41,-62,-54,-10
23,-27,-49,2,36,-38,-35,-60,-43,-57,-50,-14
0,-54,-54,28,27,-54,-28,-70,-52,-49,-43,-25
0,-57,-57,29,29,-57,-24,-63,-43,-43,-38,-15
30,-29,-60,0,45,-44,-15,-32,-27,-35,-31,-4
29,-26,-55,-1,42,-40,-11,1,-8,-19,-14,5
64,11,-53,-37,58,-20,11,28,8,6,1,37
104,53,-51,-78,77,1,5,31,20,34,16,52
111,66,-45,-88,78,10,-61,0,15,29,22,45
73,26,-48,-49,60,-11,-87,-44,-20,-6,4,39
47,11,-37,-29,42,-13,-79,-68,-40,-18,-10,34
45,10,-35,-28,40,-12,-71,-96,-61,-38,-37,29
-28,-41,-13,35,-8,-27,-59,-116,-83,-67,-69,14
-60,-90,-30,75,-15,-60,-52,-105,-84,-77,-79,-2
-1,-99,-98,50,49,-98,-43,-104,-81,-76,-82,-16
18,-78,-96,30,58,-87,-42,-98,-74,-72,-76,-23
13,-75,-88,31,51,-81,-31,-93,-77,-81,-86,-15
-7,-97,-91,52,42,-94,-32,-93,-63,-66,-73,-35
-20,-153,-133,87,57,-142,16,-12,-39,-59,-88,-116
19,-78,-97,30,58,-87,130,172,98,44,-47,-120
192,141,-51,-166,121,45,124,357,350,313,232,90
522,643,121,-582,200,382,-21,581,811,890,836,600
377,929,552,-653,-88,741,-37,606,935,1054,1027,827
-167,421,588,-128,-378,504,257,418,411,380,296,256
-372,-8,364,190,-368,178,558,539,305,146,-117,-176
-418,-105,314,261,-366,104,734,740,444,227,-77,-196
-460,-159,301,310,-380,70,904,721,367,132,-152,-250
-496,-206,290,351,-393,42,1035,626,308,86,-162,-252
-434,-186,249,309,-341,31,969,437,175,3,-161,-238
-280,-108,172,194,-226,32,622,146,31,-63,-142,-205
-182,-141,41,162,-111,-50,264,-40,-65,-110,-128,-164
-80,-117,-37,99,-21,-77,58,-79,-96,-103,-109,-132
-46,-89,-43,68,-1,-65,-3,-103,-94,-100,-97,-110
-33,-78,-45,56,7,-62,-26,-109,-99,-100,-95,-111
-20,-67,-47,44,14,-57,-58,-122,-99,-93,-84,-109
-28,-98,-71,63,22,-85,-52,-128,-102,-95,-82,-110
-28,-88,-60,58,17,-74,-56,-122,-114,-88,-75,-110
-35,-83,-48,59,7,-65,-79,-127,-115,-91,-74,-110
-37,-85,-48,61,6,-67,-85,-123,-110,-89,-69,-104
-44,-86,-42,65,-1,-64,-86,-128,-109,-90,-66,-99
-41,-82,-41,62,0,-61,-82,-150,-104,-90,-62,-94
-28,-62,-35,46,4,-48,-90,-162,-107,-87,-53,-89
3,-31,-34,14,19,-32,-101,-162,-111,-84,-45,-81
18,-9,-27,-4,23,-18,-111,-166,-113,-81,-36,-85
-19,-43,-24,31,3,-33,-131,-169,-118,-78,-29,-92
-3,-23,-20,13,9,-21,-140,-170,-118,-75,-23,-78
27,15,-12,-21,19,1,-185,-198,-132,-74,-16,-64
31,25,-5,-28,18,9,-219,-233,-146,-66,-9,-40
35,43,8,-39,14,25,-227,-228,-137,-58,-2,-13
63,62,-1,-62,31,30,-244,-236,-131,-50,15,9
84,84,0,-84,42,42,-272,-255,-124,-43,25,36
72,76,4,-74,34,40,-290,-247,-118,-29,43,57
119,114,-5,-116,61,54,-290,-241,-109,-2,76,77
159,139,-19,-149,89,60,-313,-232,-83,13,97,108
180,116,-64,-148,121,26,-313,-196,-63,29,111,119
182,105,-77,-143,129,13,-280,-151,-40,56,108,107
155,88,-67,-121,111,11,-242,-98,-18,71,103,98
146,82,-64,-114,105,9,-193,-33,21,80,102,87
129,73,-56,-101,92,8,-129,26,62,75,93,74
116,63,-53,-89,84,4,-78,71,63,66,73,62
92,43,-49,-68,70,-3,-42,72,55,58,52,55
68,24,-43,-46,55,-9,-5,60,50,51,38,50
54,22,-32,-38,43,-5,16,54,42,44,27,45
38,12,-26,-25,32,-7,15,42,36,38,19,41
37,15,-22,-26,29,-3,11,36,30,31,10,36
30,15,-15,-22,23,0,10,30,26,13,1,32
0,-10,-10,5,5,-10,5,22,25,-6,4,30
-29,-33,-4,31,-12,-18,6,17,25,-12,9,30
6,-22,-28,9,17,-25,-8,7,25,-10,11,30
56,14,-42,-34,48,-14,-22,11,25,-6,16,30
40,14,-26,-26,32,-6,-16,25,23,-4,20,30
40,0,-39,-20,40,-19,-11,15,16,0,18,25
35,-5,-40,-15,38,-22,-6,7,9,0,12,25
-1,-27,-26,14,13,-26,1,-2,3,-5,8,24
2,-31,-34,15,18,-32,4,-12,-5,-8,4,20
24,-16,-41,-4,33,-28,0,-18,-9,-13,-2,20
6,-36,-41,15,24,-38,-4,-28,-22,-18,-5,18
-12,-48,-37,30,13,-42,-9,-27,-38,-17,-6,11
13,-22,-35,5,24,-28,-12,-24,-40,-12,-3,6
11,-20,-31,5,22,-25,-17,-21,-40,-24,-13,1
5,-24,-29,10,17,-27,-29,-19,-40,-45,-26,-5
27,-15,-42,-6,35,-29,-29,-15,-40,-42,-25,-10
27,-18,-46,-4,37,-32,-23,-16,-41,-35,-25,-15
-1,-45,-45,23,22,-45,-22,-31,-44,-34,-26,-15
-3,-48,-45,26,21,-46,-15,-36,-46,-26,-24,-15
8,-37,-45,15,27,-41,-17,-35,-44,-27,-28,-15
13,-31,-45,9,29,-38,-27,-35,-48,-46,-37,-14
19,-21,-40,1,30,-30,-25,-35,-54,-53,-36,-18
10,-25,-35,8,22,-30,-23,-34,-63,-54,-35,-24
4,-26,-30,11,17,-28,-17,-40,-68,-59,-34,-30
-21,-49,-27,35,3,-38,-30,-48,-63,-61,-30,-34
-44,-62,-19,53,-12,-40,-47,-45,-60,-65,-29,-30
-18,-49,-31,34,7,-40,-36,-42,-57,-65,-33,-25
14,-33,-47,10,31,-40,-37,-40,-52,-65,-34,-21
12,-33,-45,11,28,-39,-41,-36,-50,-65,-39,-16
-17,-61,-44,39,14,-52,-40,-35,-55,-68,-50,-11
-14,-54,-40,34,13,-47,-40,-38,-55,-71,-50,-12
-9,-48,-39,28,16,-43,-40,-43,-56,-70,-51,-23
0,-44,-44,22,22,-43,-40,-46,-60,-70,-56,-31
10,-34,-44,12,27,-38,-35,-53,-60,-70,-55,-40
-25,-59,-34,43,5,-46,-34,-55,-58,-69,-53,-49
-10,-59,-49,35,20,-54,-30,-55,-55,-63,-49,-45
21,-47,-68,14,45,-57,-28,-55,-52,-56,-47,-39
23,-38,-60,8,42,-49,-24,-55,-50,-50,-44,-34
31,-28,-59,-1,45,-43,-23,-56,-45,-41,-41,-27
24,-30,-55,4,39,-42,-31,-52,-46,-38,-40,-23
58,8,-50,-33,54,-21,-20,-17,-21,-22,-23,-13
90,42,-48,-66,69,-3,-2,23,17,5,4,7
103,65,-38,-84,70,14,-16,17,20,30,21,29
90,58,-33,-74,61,12,-73,-21,-3,21,16,37
38,17,-21,-27,29,-1,-103,-55,-34,-19,-11,24
38,18,-20,-28,28,-1,-97,-71,-47,-23,-17,12
30,9,-21,-19,25,-5,-93,-94,-74,-39,-31,-1
-20,-40,-21,30,1,-30,-68,-94,-87,-50,-49,-29
-19,-83,-64,51,23,-73,-44,-68,-90,-51,-57,-52
4,-65,-69,31,37,-67,-46,-77,-95,-52,-59,-50
-16,-86,-70,51,27,-78,-42,-89,-97,-65,-63,-46
-33,-103,-70,68,18,-86,-39,-79,-105,-74,-74,-46
-23,-115,-91,69,34,-103,-39,-67,-88,-53,-62,-63
-28,-164,-135,96,54,-149,58,52,-28,-43,-84,-99
38,-31,-69,-3,54,-50,147,236,145,90,6,-33
331,281,-50,-306,190,115,80,421,455,460,414,293
567,827,260,-697,153,543,-57,624,941,1066,1038,828
211,854,643,-533,-216,748,30,540,818,917,883,764
-271,233,504,19,-388,368,378,448,306,206,84,97
-361,-24,338,192,-350,157,648,669,381,167,-85,-143
-422,-121,301,271,-361,90,821,775,424,189,-72,-160
-477,-199,278,338,-377,39,982,682,331,89,-160,-220
-474,-207,267,340,-370,29,1035,545,256,44,-147,-196
-402,-188,213,295,-307,12,837,314,99,-46,-152,-177
-233,-112,121,173,-177,4,471,51,-17,-80,-128,-126
-145,-106,40,125,-92,-33,163,-62,-96,-115,-123,-99
-92,-93,0,92,-46,-46,11,-83,-103,-107,-93,-83
-61,-87,-26,75,-17,-56,-21,-100,-105,-107,-76,-70
-56,-83,-27,70,-14,-55,-29,-105,-111,-105,-76,-65
-25,-70,-45,48,10,-57,-42,-113,-115,-99,-74,-65
-33,-76,-44,55,5,-60,-71,-119,-116,-101,-76,-63
-64,-100,-36,83,-14,-68,-78,-115,-113,-103,-74,-59
-73,-108,-35,90,-18,-71,-78,-114,-111,-106,-74,-60
-75,-102,-27,88,-23,-64,-85,-120,-109,-104,-68,-57
-54,-81,-26,68,-14,-53,-86,-122,-114,-106,-64,-54
-68,-64,4,66,-36,-29,-100,-133,-125,-104,-60,-51
-79,-64,15,71,-46,-24,-115,-147,-136,-109,-55,-49
-36,-35,2,35,-19,-16,-122,-149,-136,-106,-51,-34
0,-8,-9,4,5,-8,-130,-155,-135,-95,-45,-15
18,-4,-22,-7,20,-13,-139,-166,-135,-85,-37,-10
17,9,-8,-13,12,1,-156,-171,-135,-76,-29,-3
25,24,0,-24,12,12,-184,-194,-136,-69,-22,11
32,36,4,-34,14,19,-200,-200,-130,-63,-12,23
72,78,6,-75,32,42,-218,-213,-133,-56,6,40
90,100,10,-95,39,55,-254,-242,-141,-49,25,50
83,98,16,-91,33,57,-284,-249,-135,-44,47,71
109,117,7,-113,51,62,-308,-258,-129,-35,66,91
106,109,3,-107,51,56,-325,-250,-123,-26,82,97
162,137,-25,-149,93,56,-313,-215,-94,-6,109,120
217,162,-55,-189,136,53,-293,-177,-63,34,124,120
195,116,-79,-155,136,18,-270,-140,-42,59,112,106
184,101,-83,-142,133,9,-229,-83,-12,66,102,99
166,96,-70,-130,118,12,-167,-26,16,69,93,76
136,68,-67,-102,101,0,-111,16,39,65,78,53
98,39,-58,-68,78,-9,-70,53,46,62,58,40
69,18,-51,-43,60,-17,-31,67,40,58,44,29
43,-2,-44,-20,43,-23,-14,71,35,56,33,17
14,-24,-37,5,26,-30,-6,68,29,50,22,9
6,-22,-28,8,18,-25,5,64,23,41,16,4
-2,-14,-12,8,5,-13,9,62,20,33,9,-1
-4,-7,-3,6,0,-5,17,60,20,24,1,-7
4,-12,-16,4,10,-14,19,53,20,19,-7,-13
3,-20,-23,9,13,-22,15,35,20,16,-7,-13
1,-5,-6,2,4,-5,16,20,20,13,-5,-10
12,3,-9,-7,11,-3,13,15,20,8,-5,-10
14,-12,-26,-1,20,-19,10,13,17,5,-5,-6
3,-21,-24,10,13,-22,10,10,14,1,-10,-4
0,-19,-20,10,10,-20,7,6,11,-5,-15,-6
-2,-20,-18,11,8,-19,1,5,8,-10,-18,-9
-7,-20,-13,14,3,-16,-3,1,5,-16,-21,-14
-1,-20,-19,11,9,-19,-8,-8,4,-21,-20,-16
12,-19,-31,4,22,-25,-12,-14,-4,-27,-21,-21
19,-12,-31,-3,25,-22,-17,-22,-11,-29,-33,-24
24,-6,-30,-9,27,-17,-22,-29,-17,-25,-39,-28
15,-15,-30,0,23,-22,-28,-35,-30,-25,-34,-30
-22,-53,-31,38,5,-42,-34,-35,-36,-33,-35,-30
-48,-77,-28,62,-9,-52,-32,-35,-35,-36,-35,-34
-38,-74,-36,56,0,-55,-29,-35,-35,-35,-35,-35
-19,-74,-55,47,18,-64,-30,-35,-35,-35,-35,-35
-12,-65,-52,39,20,-58,-30,-35,-35,-35,-39,-35
-18,-63,-45,41,14,-53,-30,-30,-38,-35,-47,-35
-10,-54,-45,32,18,-49,-31,-50,-42,-40,-50,-35
-16,-51,-35,34,9,-43,-35,-63,-45,-45,-53,-35
-5,-44,-39,25,18,-41,-34,-59,-49,-48,-55,-35
33,-31,-64,0,49,-47,-37,-60,-51,-53,-59,-38
-10,-74,-64,42,27,-68,-41,-60,-55,-59,-60,-41
-34,-93,-58,64,12,-76,-39,-59,-48,-65,-56,-37
-33,-89,-56,61,12,-72,-44,-56,-51,-65,-54,-35
-38,-88,-51,63,7,-69,-45,-53,-68,-66,-51,-31
-31,-82,-51,57,10,-66,-45,-50,-66,-70,-48,-29
-23,-78,-55,51,16,-66,-45,-48,-59,-70,-45,-34
-16,-74,-58,45,22,-66,-45,-43,-56,-70,-45,-32
-9,-70,-61,39,26,-65,-44,-56,-47,-70,-45,-29
15,-52,-67,19,41,-59,-40,-67,-47,-70,-44,-30
-24,-89,-65,56,21,-77,-40,-62,-57,-70,-45,-30
-31,-110,-80,70,25,-94,-38,-60,-53,-70,-45,-30
-41,-102,-62,72,11,-82,-35,-56,-46,-70,-46,-32
-59,-107,-47,83,-6,-77,-35,-56,-40,-64,-41,-31
-17,-76,-59,47,21,-68,-39,-48,-32,-52,-31,-21
26,-37,-63,6,44,-50,-40,-30,-28,-44,-25,-15
47,-22,-69,-12,59,-45,-41,-20,-13,-31,-14,-6
34,-8,-42,-13,39,-24,-38,-13,12,-26,-11,-2
96,64,-32,-79,64,15,-48,0,29,-21,11,7
105,62,-43,-83,74,9,-88,-18,-7,-21,12,26
54,10,-45,-32,49,-17,-103,-59,-44,-47,-20,16
55,25,-30,-40,43,-2,-108,-83,-54,-57,-27,8
-5,-28,-23,17,9,-25,-116,-106,-92,-86,-46,-16
-36,-83,-47,60,6,-65,-90,-113,-98,-105,-68,-43
-21,-79,-58,50,18,-68,-58,-106,-105,-107,-87,-64
-59,-102,-43,81,-8,-72,-52,-106,-103,-103,-84,-78
-68,-117,-50,93,-9,-83,-46,-100,-109,-106,-89,-81
-61,-94,-34,78,-13,-64,-39,-102,-112,-107,-93,-81
-58,-147,-88,102,15,-117,-37,-82,-88,-93,-87,-79
-76,-192,-116,134,20,-154,52,54,-36,-74,-106,-129
16,-34,-50,9,33,-42,157,227,138,75,14,-30
404,332,-71,-368,237,130,44,430,477,488,457,344
583,839,256,-711,163,547,-91,670,987,1095,1071,841
138,736,598,-437,-230,667,101,640,792,834,801,688
-353,170,523,91,-438,346,452,518,290,157,21,26
-478,-49,429,263,-453,190,714,692,401,189,-67,-147
-525,-142,383,333,-454,120,888,763,398,175,-84,-175
-566,-193,373,380,-470,90,1012,626,305,83,-174,-234
-541,-207,334,374,-437,63,1027,520,232,56,-156,-201
-431,-187,245,309,-338,29,753,248,54,-47,-168,-176
-275,-169,106,222,-190,-31,333,-17,-76,-105,-133,-142
-163,-152,11,157,-87,-70,84,-88,-135,-126,-108,-138
-96,-102,-6,100,-45,-54,13,-104,-120,-108,-87,-103
-83,-96,-13,90,-35,-54,-16,-105,-120,-108,-82,-89
-70,-78,-8,74,-31,-43,-47,-120,-109,-99,-70,-87
-58,-69,-11,63,-23,-39,-52,-120,-106,-92,-60,-80
-43,-53,-10,48,-16,-31,-53,-119,-104,-93,-61,-78
-46,-67,-21,57,-13,-44,-57,-116,-100,-96,-59,-72
-61,-80,-19,71,-21,-50,-59,-114,-99,-94,-60,-70
-58,-72,-14,66,-22,-43,-61,-116,-93,-90,-60,-66
-52,-65,-12,58,-20,-38,-51,-114,-99,-88,-59,-62
-59,-65,-7,62,-26,-35,-71,-124,-98,-85,-63,-60
-38,-42,-5,40,-16,-23,-73,-126,-98,-83,-51,-51
-14,-14,0,14,-7,-7,-76,-125,-92,-74,-42,-39
-17,-15,2,16,-9,-7,-103,-125,-99,-66,-22,-25
28,35,7,-32,10,21,-114,-133,-92,-58,-11,0
18,25,8,-22,5,16,-135,-148,-97,-50,9,9
11,30,19,-21,-4,24,-151,-155,-94,-42,24,27
61,103,42,-82,9,72,-192,-178,-83,-35,30,44
66,104,38,-85,14,70,-213,-191,-103,-27,75,50
72,105,33,-89,19,69,-232,-195,-70,-18,46,71
92,122,31,-107,30,76,-268,-221,-119,-7,112,81
118,124,6,-121,55,64,-283,-207,-49,1,68,98
169,143,-26,-156,97,58,-299,-218,-285,-7,183,107
222,158,-64,-189,142,47,-290,-115,-361,-12,257,117
264,153,-111,-209,187,21,-279,65,29,-9,-11,127
