I,II,III,aVR,aVL,aVF,V1,V2,V3,V4,V5,V6
70,110,40,-90,15,75,-5,-35,944,30,40,-50
67,110,42,-89,12,76,-11,-33,944,30,40,-46
56,110,54,-83,1,82,-19,-29,945,30,40,-39
49,110,61,-80,-6,86,-9,-23,943,30,41,-33
53,109,56,-81,-2,82,4,-21,953,29,38,-25
76,129,53,-103,11,91,22,-2,978,47,60,-21
83,135,51,-109,16,93,42,21,988,57,76,-18
87,125,38,-106,24,81,48,27,991,55,80,-15
111,119,8,-116,51,64,43,25,987,44,86,-13
117,111,-6,-113,61,52,-7,-16,960,26,78,-9
116,104,-12,-110,64,45,-60,-48,942,15,67,-13
121,98,-23,-109,72,37,-65,-55,939,3,58,-15
107,92,-15,-99,61,38,-75,-76,933,-11,48,-16
78,88,10,-83,34,48,-75,-80,926,-22,36,-20
48,84,36,-66,5,59,-60,-71,923,-18,34,-19
32,78,46,-55,-7,62,-55,-80,915,-23,34,-21
32,76,45,-55,-7,60,-41,-66,912,-16,37,-19
21,72,50,-47,-15,61,-39,-74,919,-24,32,-21
33,94,61,-64,-14,77,-24,-67,948,-15,37,-19
73,122,49,-98,12,85,-22,-63,945,-8,38,-21
78,134,57,-106,10,95,-10,-60,950,0,40,-18
92,135,42,-114,25,88,-2,-36,962,19,46,-12
95,144,49,-120,23,97,1,-60,948,3,53,-11
95,143,48,-119,23,95,40,18,992,45,76,0
89,212,123,-151,-17,168,101,179,1175,180,115,27
261,412,150,-337,55,281,356,892,1865,849,493,166
535,424,-112,-479,323,156,21,536,1706,827,598,255
218,230,11,-224,103,120,-876,-1479,221,-495,8,120
-121,-27,94,73,-107,34,-1124,-2041,-408,-1081,-363,-63
1,-107,-107,53,54,-107,-829,-1274,-9,-780,-315,-115
51,55,3,-53,24,29,-330,-521,580,-313,-104,-61
65,123,59,-94,3,91,-15,-64,932,-22,11,-30
77,134,57,-105,10,96,26,-21,963,-7,17,-24
83,147,64,-115,9,105,66,50,1010,41,60,-27
88,143,55,-116,16,99,72,75,1030,49,56,-31
80,145,65,-113,8,104,98,102,1054,72,67,-33
82,139,56,-111,13,97,96,117,1058,77,85,-36
68,140,73,-104,-2,106,94,111,1074,72,84,-31
72,142,70,-107,0,106,96,122,1094,79,86,-28
77,146,68,-112,4,107,89,129,1097,71,84,-24
84,149,66,-117,9,107,91,143,1119,88,86,-21
90,152,62,-121,14,106,90,141,1127,102,82,-16
95,156,61,-126,17,108,93,158,1140,106,73,-14
102,159,57,-131,22,108,88,170,1161,109,92,-15
105,160,55,-133,25,107,112,176,1168,114,114,-15
108,163,55,-136,26,109,133,188,1181,124,122,-15
110,165,55,-138,27,110,129,206,1199,141,130,-15
112,167,55,-140,28,111,131,222,1203,146,134,-16
117,171,55,-144,31,112,130,233,1217,156,137,-5
126,177,50,-152,38,113,130,257,1233,188,153,20
137,182,45,-160,46,113,127,279,1244,197,164,23
163,203,41,-183,61,122,124,312,1265,213,172,38
185,221,36,-203,74,128,121,337,1285,239,205,58
191,222,31,-206,79,126,118,353,1299,255,216,65
198,226,28,-212,85,126,115,366,1295,275,226,88
197,220,23,-209,87,122,114,357,1284,279,236,93
190,210,20,-200,85,114,108,354,1277,271,225,83
183,200,17,-192,83,108,101,343,1267,268,223,78
177,189,12,-183,83,100,94,305,1258,250,209,70
148,158,10,-153,69,84,87,254,1225,210,181,54
124,139,14,-132,55,76,82,200,1186,177,158,33
120,138,19,-129,51,78,73,148,1157,145,133,23
96,117,21,-107,37,69,63,105,1119,107,103,15
72,97,26,-85,23,61,50,67,1082,79,76,6
54,83,30,-69,12,56,42,39,1057,60,61,0
40,70,30,-55,5,50,45,31,1044,50,56,-5
33,63,30,-48,1,46,45,24,1035,42,51,-9
27,57,30,-42,-2,43,45,18,1024,32,48,-14
22,53,30,-38,-4,41,45,10,1014,25,42,-18
16,46,30,-31,-7,38,45,5,1008,25,41,-23
11,41,31,-26,-10,36,41,9,1004,25,45,-25
9,43,34,-26,-13,38,40,10,998,25,47,-20
9,47,38,-28,-15,42,40,10,993,25,50,-20
10,50,40,-30,-15,45,40,10,988,25,46,-19
10,50,40,-30,-15,45,40,10,982,21,44,-15
6,50,43,-28,-19,46,42,8,977,15,45,-15
4,50,46,-28,-21,47,46,4,972,10,45,-17
6,50,44,-28,-19,46,44,5,965,4,45,-21
5,47,41,-26,-18,44,41,5,961,-2,46,-24
3,41,38,-22,-18,39,38,5,954,-5,50,-28
1,37,36,-19,-18,36,35,4,946,-5,52,-30
0,32,32,-17,-16,32,34,0,938,-5,55,-25
-3,27,30,-12,-17,29,30,-4,930,-9,59,-22
-4,24,28,-10,-16,25,28,-7,923,-15,60,-18
-8,16,24,-4,-17,20,25,-10,915,-20,60,-15
-16,9,25,3,-21,17,22,-15,908,-27,60,-10
-19,2,21,8,-20,12,19,-15,902,-30,60,-12
-26,-6,20,16,-22,6,17,-15,893,-30,59,-19
-32,-12,20,22,-26,4,14,-15,882,-32,53,-24
-34,-19,14,26,-24,-3,11,-15,870,-36,46,-30
-28,-20,9,24,-19,-5,8,-14,859,-35,39,-35
-24,-20,4,22,-14,-8,5,-16,852,-32,33,-40
-18,-20,-2,19,-8,-11,6,-29,847,-29,25,-40
-12,-20,-8,17,-2,-14,10,-29,842,-26,36,-40
-35,-43,-8,39,-13,-25,12,-22,836,-24,47,-40
-48,-53,-4,51,-22,-28,15,-19,831,-18,44,-40
-43,-49,-5,47,-19,-26,18,-13,825,-25,45,-40
-46,-51,-5,49,-20,-28,21,-10,819,-41,45,-40
-45,-49,-4,48,-20,-26,16,-16,812,-40,45,-40
-45,-51,-6,48,-19,-28,15,-26,805,-40,45,-40
-54,-47,8,50,-31,-19,15,-28,799,-40,45,-40
-56,-34,22,45,-39,-6,10,-24,793,-40,45,-41
-42,-23,20,33,-31,-1,10,-22,787,-40,45,-44
-40,-19,20,29,-30,0,9,-19,782,-40,46,-45
-37,-21,16,29,-27,-2,5,-16,777,-40,43,-45
-33,-19,15,25,-24,-2,5,-15,771,-40,40,-45
-41,-26,15,33,-28,-5,5,-15,766,-40,38,-45
-41,-31,10,36,-26,-11,5,-15,760,-39,35,-43
-40,-29,10,35,-25,-10,5,-15,754,-36,32,-38
-40,-30,10,35,-25,-10,9,-15,750,-33,29,-35
-40,-30,10,35,-25,-10,10,-15,744,-30,35,-32
-40,-30,10,35,-25,-10,10,-15,738,-27,38,-27
-43,-30,13,36,-28,-8,15,-15,733,-24,35,-25
-57,-30,27,43,-42,-1,15,-15,726,-27,35,-30
-65,-30,35,47,-50,2,16,-15,717,-30,35,-29
-65,-30,35,47,-50,2,20,-15,709,-30,35,-32
-65,-30,35,47,-50,2,22,-15,702,-30,35,-35
-64,-30,35,46,-50,2,25,-20,696,-41,38,-36
-61,-25,36,43,-48,5,29,-19,691,-53,47,-28
-57,-25,32,40,-44,4,30,-22,685,-55,50,4
-56,-26,30,41,-42,2,33,-25,683,-58,50,22
-50,-24,26,37,-38,1,36,-26,676,-61,50,26
-51,-27,25,38,-37,-1,40,-22,675,-52,50,32
-38,-18,20,28,-29,1,43,-2,684,-43,50,37
-19,1,20,9,-19,10,47,22,696,-33,53,42
-2,32,34,-15,-18,33,65,49,715,-23,80,51
25,55,29,-40,-2,42,80,48,714,-13,92,69
34,45,11,-40,11,28,63,47,714,-1,89,73
29,35,6,-32,11,20,11,23,695,-23,88,68
33,26,-7,-29,20,9,-37,-36,646,-65,84,65
54,14,-40,-34,46,-13,-45,-50,631,-81,86,61
46,7,-40,-26,43,-16,-38,-50,628,-84,78,58
15,-3,-18,-5,16,-10,-34,-56,611,-89,57,54
-1,-11,-11,6,5,-11,-28,-62,597,-93,44,51
-16,-23,-7,20,-4,-14,-22,-59,591,-94,36,46
-41,-40,1,40,-21,-19,-19,-58,582,-101,23,43
-56,-52,4,54,-30,-24,-13,-46,580,-97,25,40
-74,-51,23,62,-48,-14,-18,-52,566,-109,23,34
-88,-49,40,68,-64,-4,-8,-36,569,-100,28,38
-79,-50,29,64,-54,-10,-13,-42,555,-105,21,41
-84,-41,43,62,-63,1,-8,-33,563,-95,17,47
-75,-50,25,62,-50,-12,0,-28,558,-93,4,44
-79,-34,45,56,-62,6,14,-41,559,-98,-8,52
-52,-21,30,36,-41,4,43,39,605,-57,19,49
-39,78,117,-20,-78,97,154,294,865,155,143,97
189,262,73,-225,58,167,382,1028,1518,820,528,269
429,214,-215,-321,322,0,-94,354,1076,510,478,297
34,4,-29,-19,31,-12,-979,-1629,-319,-752,-113,147
-243,-224,18,234,-130,-103,-1146,-1941,-725,-1115,-380,2
-129,-249,-120,190,-4,-185,-765,-1131,-290,-778,-293,-28
-87,-95,-8,91,-39,-51,-253,-399,272,-324,-92,49
-82,-61,21,71,-51,-19,-4,-29,525,-110,7,72
-103,-59,45,81,-74,-7,30,2,551,-92,11,68
-81,-51,30,66,-56,-10,73,74,593,-52,31,71
-74,-48,27,61,-50,-10,75,90,596,-50,35,72
-64,-40,24,52,-44,-8,90,114,624,-18,47,77
-50,-37,12,43,-31,-12,99,125,628,-14,52,78
-62,-28,34,44,-48,3,102,136,637,-5,62,82
-49,-17,32,33,-41,7,105,152,648,1,68,85
-34,-6,28,19,-30,11,107,153,651,7,71,84
-26,-3,23,14,-24,10,111,163,658,14,76,78
-18,1,19,9,-18,10,109,173,659,22,82,72
-10,5,15,2,-13,10,110,183,665,39,85,68
-17,8,25,4,-21,17,110,190,664,41,86,61
-20,11,31,4,-26,21,110,200,668,44,83,56
-12,18,29,-3,-21,23,110,210,670,45,91,52
-7,24,31,-8,-19,27,109,225,671,52,101,48
3,32,29,-17,-14,30,111,245,692,83,116,65
10,36,26,-23,-8,31,110,275,710,100,124,68
27,50,23,-39,2,36,112,299,723,111,134,89
48,69,20,-58,14,44,127,318,734,139,176,131
55,72,17,-64,19,45,137,348,742,145,188,135
68,83,15,-77,26,49,138,374,758,163,183,142
86,98,12,-92,36,55,135,398,765,193,191,149
115,122,7,-119,54,64,132,416,764,217,212,165
136,136,0,-136,68,68,130,416,761,234,244,174
133,129,-4,-130,68,62,126,415,757,224,235,162
139,121,-18,-130,78,52,125,409,755,210,218,150
141,109,-32,-125,86,38,119,365,734,194,196,126
110,82,-28,-96,69,26,107,299,696,165,155,113
64,39,-25,-51,44,7,96,238,655,131,151,99
34,12,-22,-23,28,-5,85,177,615,88,131,69
11,-6,-17,-3,14,-11,75,121,573,37,81,53
-17,-32,-15,25,-1,-23,67,80,525,11,65,48
-32,-41,-9,37,-11,-25,58,62,501,3,58,41
-36,-39,-4,38,-16,-21,51,55,493,-8,51,34
-43,-40,3,41,-23,-18,49,47,482,-18,46,27
-43,-40,3,41,-23,-18,46,39,472,-38,41,25
-39,-39,-1,39,-19,-20,43,32,464,-46,38,25
-44,-43,0,43,-22,-21,40,29,457,-44,32,25
-47,-47,0,47,-23,-23,40,30,451,-46,28,25
-45,-45,0,45,-22,-22,40,30,443,-45,25,25
-41,-41,0,41,-20,-21,40,30,435,-46,25,20
-35,-40,-5,38,-15,-22,40,29,429,-43,23,20
-30,-35,-5,33,-12,-20,40,25,421,-36,19,19
-30,-36,-6,33,-11,-21,40,25,414,-31,20,15
-35,-45,-10,40,-12,-27,36,25,407,-26,24,15
-36,-45,-10,41,-12,-27,35,25,399,-20,25,13
-35,-45,-10,40,-12,-27,35,25,391,-16,27,9
-32,-42,-10,37,-11,-26,35,22,380,-21,31,7
-29,-39,-10,34,-10,-25,35,19,369,-31,29,4
-31,-41,-10,36,-10,-25,36,20,357,-32,24,1
-30,-39,-10,35,-10,-25,40,16,347,-30,21,-1
-30,-41,-10,35,-10,-25,40,15,337,-30,18,-4
-36,-39,-4,38,-16,-21,40,15,327,-26,13,-9
-26,-41,-15,34,-6,-27,40,9,317,-25,10,-11
-12,-39,-27,26,8,-33,40,4,304,-25,6,-16
-18,-42,-24,31,3,-32,37,-1,289,-36,1,-20
-29,-54,-26,42,-1,-40,31,-7,277,-46,-2,-18
-31,-56,-25,44,-3,-40,27,-12,271,-45,-8,-14
-29,-54,-25,42,-1,-40,22,-18,266,-45,-10,-15
-33,-56,-23,44,-5,-39,17,-20,260,-45,-11,-15
-38,-54,-16,47,-11,-35,16,-20,255,-44,-8,-15
-45,-56,-11,51,-16,-34,21,-20,246,-48,-23,-37
-59,-65,-6,62,-26,-35,24,-20,233,-53,-40,-48
-71,-71,0,71,-36,-35,22,-21,223,-62,-30,-43
-74,-70,5,71,-39,-32,19,-25,216,-71,-25,-46
-68,-70,-2,69,-33,-36,16,-25,211,-59,-17,-44
-58,-70,-11,64,-23,-40,13,-25,206,-44,-9,-46
-51,-70,-19,61,-16,-45,10,-25,200,-41,-3,-43
-40,-69,-28,55,-6,-48,11,-25,195,-39,5,-36
-35,-65,-30,49,-2,-47,15,-23,187,-44,-15,-31
-35,-65,-30,50,-2,-47,15,-16,178,-51,-37,-26
-33,-63,-30,48,-1,-46,19,-11,170,-50,-34,-20
-29,-59,-30,44,0,-45,29,-6,160,-50,-35,-15
-31,-61,-30,46,-1,-45,33,1,152,-50,-35,-31
-31,-56,-25,44,-2,-41,30,4,144,-50,-37,-53
-30,-55,-25,43,-2,-40,27,16,137,-48,-41,-56
-31,-55,-24,43,-3,-39,25,23,131,-43,-40,-55
-31,-50,-19,41,-6,-35,22,16,122,-37,-40,-55
-29,-50,-21,40,-4,-35,19,9,114,-34,-40,-54
-33,-50,-17,42,-8,-33,24,3,105,-27,-40,-56
-36,-50,-14,43,-11,-32,25,-4,97,-27,-40,-52
-35,-50,-15,43,-10,-32,25,-10,91,-38,-40,-50
-39,-50,-11,45,-14,-30,30,0,86,-33,-38,-50
-40,-50,-10,45,-15,-30,30,8,81,-37,-31,-47
-40,-50,-10,45,-15,-30,31,5,75,-45,-26,-44
-48,-53,-5,51,-21,-29,36,5,71,-41,-21,-46
-58,-58,0,58,-28,-29,41,6,74,-38,-14,-55
-64,-60,5,61,-35,-27,43,4,75,-34,-12,-54
-58,-50,8,54,-33,-21,51,6,74,-31,-15,-49
-55,-40,14,47,-34,-13,53,15,76,-26,-30,-47
-39,-27,12,33,-26,-7,69,39,74,-24,-37,-42
-2,-9,-7,6,3,-8,84,66,78,-15,-31,-39
-8,-5,2,7,-5,-2,92,77,78,-6,-16,-36
-17,-4,13,10,-14,4,107,86,84,8,29,-35
7,-2,-9,-2,8,-5,68,54,81,24,36,-32
29,3,-26,-16,27,-11,34,9,37,-9,11,-29
29,-12,-41,-8,35,-26,31,-2,-5,-40,4,-33
17,-31,-48,7,33,-39,21,-12,-23,-45,-9,-50
7,-35,-42,14,25,-38,17,-19,-34,-51,-21,-64
-22,-60,-39,41,9,-49,8,-29,-45,-65,-39,-69
-38,-70,-32,55,-3,-51,6,-26,-51,-71,-52,-72
-39,-70,-31,55,-4,-50,13,-23,-64,-69,-55,-75
-48,-70,-22,59,-13,-46,16,-29,-66,-72,-59,-78
-48,-70,-22,59,-13,-46,25,-19,-65,-67,-59,-87
-56,-70,-14,64,-21,-42,26,-33,-84,-75,-67,-91
-62,-71,-10,67,-26,-40,38,-14,-74,-60,-62,-88
-66,-75,-9,71,-28,-42,30,-28,-87,-61,-63,-93
-64,-60,4,62,-34,-28,40,-9,-73,-39,-50,-86
-57,-63,-5,60,-26,-34,31,-16,-87,-40,-51,-94
-76,-45,31,60,-54,-6,38,-13,-73,-27,-41,-83
-61,-46,15,53,-38,-15,71,73,-29,11,-26,-82
-34,63,96,-15,-65,79,217,399,323,325,136,-10
240,232,-8,-236,124,112,380,1039,929,947,520,151
365,183,-183,-274,274,0,-251,-70,167,341,343,151
-80,-1,79,40,-79,39,-1006,-1868,-1181,-870,-238,6
-250,-264,-14,257,-118,-139,-996,-1764,-1370,-1072,-467,-142
-116,-274,-158,195,21,-216,-622,-953,-880,-696,-347,-143
-72,-88,-16,80,-28,-52,-157,-263,-314,-236,-131,-90
-47,-65,-18,56,-14,-41,32,17,-122,-91,-70,-90
-57,-60,-3,59,-27,-31,62,39,-106,-76,-37,-72
-51,-58,-6,55,-22,-32,109,118,-52,-15,-16,-69
-52,-54,-2,53,-24,-28,116,127,-48,-9,-19,-57
-52,-50,2,51,-27,-24,132,159,-34,13,-7,-51
-45,-44,1,44,-23,-21,128,151,-40,14,-9,-48
-43,-24,19,33,-30,-3,131,166,-31,29,0,-43
-46,-26,20,36,-33,-3,129,173,-31,47,1,-42
-46,-24,22,35,-33,-1,130,179,-29,59,9,-35
-44,-25,19,35,-31,-2,129,190,-24,63,14,-36
-43,-25,18,34,-30,-3,124,189,-23,63,19,-50
-39,-25,15,32,-27,-5,126,202,-17,71,26,-58
-36,-21,15,28,-25,-3,125,207,-16,73,29,-55
-28,-9,19,18,-23,5,125,218,-8,82,36,-53
-23,-1,21,12,-22,10,125,229,6,95,33,-50
-13,12,25,0,-20,18,125,246,20,98,48,-47
-14,16,29,-1,-22,22,125,273,34,101,69,-45
-17,11,28,3,-23,20,125,293,47,99,67,-41
-16,25,41,-5,-28,33,125,307,52,120,82,-29
-6,38,45,-16,-26,41,125,330,67,149,100,-2
18,54,36,-36,-10,45,124,359,88,157,104,21
42,76,34,-59,3,55,119,373,102,175,129,30
56,84,28,-70,13,56,121,382,120,187,140,40
66,91,25,-79,21,57,117,393,128,202,151,55
76,96,19,-86,28,57,115,397,125,225,179,63
81,94,13,-87,33,53,115,401,124,237,172,56
88,97,9,-93,39,53,112,387,127,227,158,47
77,80,2,-79,37,41,109,342,107,192,144,39
46,43,-3,-44,24,20,106,272,64,147,102,24
11,8,-3,-9,7,2,103,216,29,107,67,1
-16,-14,2,15,-9,-6,80,171,-4,78,51,-6
-25,-21,5,22,-15,-7,60,125,-38,44,35,-24
-25,-25,0,25,-12,-12,55,84,-66,18,19,-54
-29,-33,-4,32,-12,-18,47,55,-79,5,8,-54
-47,-56,-9,52,-19,-32,42,49,-96,-3,-12,-47
-54,-62,-8,58,-23,-35,33,42,-110,-9,-30,-43
-57,-59,-2,58,-27,-31,31,36,-109,-16,-30,-36
-61,-59,2,60,-31,-29,37,29,-111,-22,-30,-30
-60,-54,6,57,-33,-24,35,26,-110,-34,-30,-44
-66,-56,11,61,-38,-22,30,30,-110,-36,-30,-53
-79,-52,26,66,-52,-13,28,29,-109,-30,-30,-45
-81,-50,31,65,-56,-9,23,32,-105,-28,-27,-44
-76,-47,29,61,-52,-8,20,35,-105,-24,-23,-39
-75,-44,30,59,-52,-6,32,35,-105,-19,-21,-35
-70,-41,30,55,-50,-5,36,32,-105,-28,-15,-37
-70,-40,30,55,-50,-5,31,29,-105,-44,-18,-44
-67,-44,23,56,-45,-10,30,30,-109,-51,-42,-50
-62,-47,16,54,-39,-15,25,30,-110,-55,-40,-54
-59,-50,9,54,-34,-20,24,30,-110,-58,-30,-55
-53,-52,1,53,-27,-25,21,29,-115,-60,-36,-55
-49,-56,-7,53,-21,-31,16,20,-115,-63,-39,-55
-46,-53,-7,49,-19,-29,14,11,-116,-66,-44,-55
-58,-49,9,53,-33,-20,9,3,-130,-64,-43,-53
-72,-51,21,61,-47,-14,6,-8,-136,-68,-40,-50
-66,-46,21,56,-43,-12,2,-13,-134,-76,-37,-47
-60,-45,15,52,-37,-15,0,-17,-135,-75,-34,-44
-55,-44,10,49,-32,-17,-3,-19,-135,-75,-31,-41
-48,-41,7,44,-27,-16,-6,-24,-135,-75,-30,-40
-39,-38,0,38,-19,-19,-9,-24,-139,-74,-38,-45
-39,-35,3,37,-20,-15,-11,-20,-140,-76,-47,-45
-54,-33,21,43,-38,-5,-14,-20,-140,-80,-49,-46
-55,-29,26,41,-40,-1,-17,-17,-140,-80,-45,-50
-57,-33,25,44,-41,-4,-19,-15,-140,-82,-45,-50
-67,-39,29,53,-48,-5,-23,-14,-139,-86,-45,-52
-66,-35,30,51,-48,-2,-25,-27,-134,-85,-45,-60
-64,-35,29,49,-46,-2,-27,-37,-136,-85,-45,-65
-61,-35,26,47,-43,-5,-30,-34,-132,-85,-41,-65
-56,-35,21,46,-38,-6,-33,-35,-130,-85,-40,-65
-53,-35,19,44,-35,-8,-36,-35,-130,-85,-40,-65
-52,-37,15,44,-33,-11,-39,-34,-126,-85,-40,-65
-53,-44,9,48,-31,-17,-40,-37,-124,-85,-40,-63
-59,-40,18,49,-38,-11,-35,-40,-121,-85,-41,-59
-67,-40,27,53,-47,-6,-35,-40,-119,-85,-42,-60
-63,-39,24,51,-44,-7,-34,-40,-114,-85,-39,-60
-57,-34,23,46,-40,-6,-30,-40,-120,-85,-36,-60
-55,-36,19,45,-37,-8,-30,-40,-131,-85,-33,-60
-52,-32,20,42,-36,-6,-30,-36,-129,-82,-30,-55
-53,-30,24,41,-38,-3,-30,-35,-130,-79,-31,-55
-55,-30,25,42,-40,-2,-30,-34,-130,-76,-38,-55
-55,-30,25,42,-40,-2,-30,-31,-129,-73,-44,-55
-55,-30,25,42,-40,-2,-30,-29,-132,-70,-49,-55
-56,-30,25,42,-40,-2,-30,-33,-135,-71,-50,-52
-58,-35,23,46,-40,-6,-35,-40,-138,-75,-50,-49
-60,-40,20,50,-40,-10,-35,-40,-141,-77,-50,-50
-57,-40,17,48,-37,-11,-35,-40,-144,-80,-50,-46
-55,-40,15,47,-35,-12,-35,-40,-145,-76,-49,-45
-51,-40,11,45,-31,-14,-35,-40,-140,-71,-43,-45
-50,-40,10,45,-30,-15,-32,-37,-136,-67,-38,-40
-54,-40,13,46,-33,-13,-24,-29,-134,-62,-32,-40
-59,-39,19,49,-39,-10,-16,-21,-129,-58,-26,-39
-62,-41,21,51,-42,-10,-8,-13,-126,-53,-21,-34
-40,-10,31,25,-35,11,0,-6,-122,-46,-16,-36
-7,31,39,-12,-23,35,7,4,-114,-36,-9,-32
12,43,31,-28,-10,37,19,19,-114,-29,-3,-30
25,49,24,-38,1,36,17,36,-117,-18,5,-30
38,54,16,-46,11,35,-28,13,-111,-7,8,-30
43,51,8,-47,17,30,-81,-40,-129,-40,-13,-30
32,40,8,-36,12,23,-107,-64,-155,-62,-22,-25
20,31,10,-25,5,20,-94,-66,-162,-59,-19,-25
3,14,10,-9,-4,12,-69,-64,-164,-55,-15,-25
-22,-13,9,17,-15,-2,-66,-65,-171,-59,-16,-27
-37,-25,11,31,-24,-7,-59,-65,-172,-82,-28,-32
-43,-35,8,39,-25,-13,-53,-64,-178,-91,-40,-34
-64,-45,19,54,-41,-13,-50,-64,-180,-90,-48,-46
-65,-44,22,54,-43,-11,-43,-55,-172,-88,-43,-52
-68,-48,19,58,-43,-14,-48,-66,-179,-93,-47,-58
-77,-55,22,66,-49,-17,-41,-49,-167,-86,-42,-58
-69,-56,13,62,-41,-21,-50,-61,-175,-94,-49,-57
-63,-44,19,53,-41,-12,-40,-50,-164,-75,-42,-53
-53,-44,8,48,-30,-18,-46,-46,-171,-76,-44,-56
-52,-35,17,43,-34,-8,-27,-45,-150,-63,-37,-56
-25,-11,15,18,-20,2,11,26,-102,-33,-25,-41
-27,89,116,-31,-72,102,156,348,215,249,112,28
223,247,23,-235,100,135,353,1022,821,868,504,175
386,192,-194,-289,290,-1,-244,50,165,353,344,166
-48,-36,12,42,-30,-12,-1063,-1831,-1187,-844,-253,6
-236,-239,-3,238,-116,-121,-1111,-1878,-1430,-1067,-458,-114
-93,-224,-131,159,19,-177,-717,-1040,-941,-698,-337,-118
-39,-71,-33,55,-3,-52,-230,-333,-385,-241,-107,-52
-23,-35,-12,29,-5,-23,-24,-36,-181,-55,-32,-27
-55,-32,23,43,-39,-4,5,-21,-167,-56,-39,-24
-52,-23,29,37,-40,3,42,59,-124,-15,-24,-36
-48,-19,29,34,-39,5,46,71,-121,-10,-26,-36
-41,-9,32,25,-36,11,63,98,-103,8,-15,-26
-47,-19,28,33,-37,4,64,99,-103,13,-14,-22
-58,-26,32,42,-45,3,73,114,-93,33,-5,-14
-43,-15,28,29,-35,6,78,128,-89,43,1,-8
-36,-5,31,21,-34,13,80,135,-86,49,7,-6
-28,1,29,14,-29,15,81,154,-82,61,15,-13
-26,4,30,11,-29,17,79,156,-79,65,19,-17
-23,7,30,8,-26,18,80,164,-75,70,25,-21
-18,12,30,3,-24,21,80,173,-70,73,24,-27
-16,13,29,1,-23,21,85,180,-61,83,27,-30
-6,30,36,-12,-21,33,85,192,-53,95,34,-25
4,55,51,-30,-24,53,85,206,-44,108,40,-18
12,61,49,-36,-19,54,85,222,-32,125,49,-14
16,66,50,-41,-18,58,85,240,-20,141,51,-3
22,85,63,-54,-20,74,87,262,-3,154,73,16
34,90,56,-63,-11,73,95,290,24,182,100,38
48,95,46,-72,1,70,105,318,35,203,115,51
72,110,38,-91,17,74,103,344,48,221,136,58
97,125,28,-112,34,77,99,357,58,254,134,76
114,138,24,-126,44,81,101,361,59,261,147,93
112,130,18,-121,47,74,96,358,71,268,171,112
106,121,15,-114,45,67,95,356,67,265,171,113
103,113,10,-108,46,61,95,346,53,251,164,98
98,103,5,-101,46,54,86,305,39,239,148,92
84,93,9,-89,38,50,74,256,-1,198,117,73
61,71,10,-66,25,41,63,202,-41,155,90,48
37,47,10,-42,13,28,52,153,-76,123,61,34
18,28,10,-23,4,19,46,103,-117,91,28,25
3,13,10,-8,-4,11,39,63,-147,70,12,15
-9,0,9,4,-9,4,33,45,-168,61,2,3
-20,-15,5,17,-12,-5,26,28,-182,53,-10,-12
-34,-29,5,31,-19,-11,20,20,-197,44,-21,-24
-35,-32,2,33,-19,-15,20,19,-211,39,-22,-25
-28,-29,0,28,-14,-15,19,15,-210,33,-20,-25
-26,-26,0,26,-13,-13,15,13,-210,30,-19,-25
-26,-23,3,24,-14,-10,15,9,-210,25,-16,-25
-29,-20,9,25,-19,-6,17,12,-210,21,-13,-25
-31,-19,12,24,-21,-3,20,18,-212,16,-18,-22
-33,-15,18,23,-25,2,20,21,-216,15,-15,-19
-29,-10,19,20,-24,4,20,27,-219,15,-14,-16
-23,-8,15,15,-18,3,20,30,-220,16,-38,-13
-18,-3,15,10,-16,6,20,24,-220,39,-39,-11
-15,0,15,7,-15,7,19,17,-220,43,-31,-8
-18,-3,15,10,-16,6,16,11,-220,24,-28,-5
-24,-9,15,16,-19,3,13,4,-222,16,-21,-2
-20,-9,11,14,-15,1,11,-2,-230,9,-16,0
-15,-5,10,10,-12,2,7,-8,-234,2,-18,4
-15,-6,10,10,-12,2,5,-11,-237,-6,-33,5
-9,-4,5,6,-7,1,2,-14,-239,-13,-36,9
-22,-17,5,19,-13,-6,0,-18,-241,-18,-31,10
-31,-27,4,29,-17,-12,0,-21,-253,-28,-30,10
-24,-24,0,24,-12,-12,-3,-24,-256,-35,-25,14
-23,-25,-2,24,-10,-13,-6,-25,-254,-35,-25,16
-15,-20,-5,18,-5,-12,-4,-25,-256,-35,-32,14
-11,-19,-8,15,-1,-14,0,-25,-254,-35,-43,9
-11,-21,-10,16,0,-16,5,-25,-257,-35,-52,3
-10,-20,-10,15,0,-15,9,-25,-259,-33,-56,0
-10,-20,-10,15,0,-15,14,-25,-263,-30,-55,-5
-10,-20,-10,15,0,-15,19,-25,-265,-27,-55,-10
-10,-20,-10,15,0,-15,22,-25,-268,-24,-55,-7
-10,-20,-11,15,0,-15,26,-25,-270,-20,-55,-4
-9,-17,-8,13,0,-13,29,-26,-266,-20,-57,-5
-10,-15,-5,13,-2,-10,33,-30,-265,-25,-60,-5
-10,-15,-5,13,-2,-10,35,-30,-265,-25,-63,-5
-7,-12,-5,10,-1,-8,35,-34,-265,-28,-66,-6
-4,-9,-5,7,0,-6,35,-35,-263,-31,-69,-14
-6,-11,-5,9,-1,-7,35,-37,-270,-27,-70,-26
-11,-20,-9,16,-1,-14,35,-41,-281,-25,-65,-27
-27,-41,-14,34,-6,-27,35,-40,-280,-25,-62,-21
-26,-44,-18,35,-4,-30,33,-44,-278,-25,-59,-17
5,-16,-20,5,13,-18,29,-46,-275,-25,-54,-13
8,-12,-20,2,14,-16,27,-44,-274,-24,-51,-8
-9,-29,-20,19,6,-24,24,-41,-277,-21,-47,-5
-12,-32,-20,22,4,-26,21,-36,-284,-18,-43,-5
-10,-30,-20,20,5,-25,19,-33,-290,-15,-37,-3
-9,-30,-20,20,5,-25,15,-30,-290,-13,-34,1
-11,-27,-16,19,3,-22,15,-25,-290,-9,-28,0
-9,-24,-15,17,3,-19,13,-29,-290,-13,-25,-4
-12,-26,-15,20,2,-21,10,-35,-290,-23,-45,-5
-20,-30,-11,25,-4,-20,9,-35,-289,-32,-63,-7
-21,-30,-9,25,-6,-20,14,-35,-292,-31,-63,-11
-18,-30,-12,24,-3,-21,29,-35,-295,-26,-55,-9
-11,-25,-14,19,2,-20,30,-35,-295,-24,-49,-5
-7,-25,-18,16,6,-21,30,-33,-295,-19,-50,-5
-4,-24,-19,14,8,-21,30,-29,-295,-16,-50,-5
8,-16,-24,4,17,-20,30,-27,-295,-12,-50,-5
16,-8,-24,-4,21,-16,31,-24,-289,-7,-50,-4
23,0,-23,-11,23,-12,34,-20,-284,0,-50,-10
35,7,-27,-21,31,-10,41,-20,-278,4,-44,-18
38,21,-17,-29,28,2,42,-9,-273,24,-37,8
36,32,-4,-34,20,14,50,5,-266,42,-31,30
28,37,10,-32,9,23,54,18,-265,32,-24,30
33,43,10,-38,11,26,57,38,-265,44,-17,34
52,57,6,-55,23,31,13,20,-264,45,-16,36
63,57,-6,-60,34,25,-57,-34,-308,26,-21,40
74,37,-37,-55,56,0,-61,-64,-334,13,-18,39
73,19,-55,-46,64,-18,-56,-65,-334,-6,-22,30
51,-3,-54,-23,53,-29,-55,-58,-338,-20,-36,20
20,-33,-53,7,37,-43,-50,-58,-347,-43,-50,11
-7,-54,-47,31,20,-50,-50,-52,-363,-51,-62,-3
-10,-59,-49,35,19,-53,-39,-49,-366,-55,-67,-18
-21,-62,-41,42,10,-51,-25,-48,-369,-61,-69,-15
-21,-65,-43,43,12,-54,-12,-37,-370,-53,-71,-15
-24,-59,-35,42,5,-47,-9,-45,-378,-56,-79,-13
-27,-60,-33,44,3,-46,0,-26,-369,-39,-72,-8
-25,-59,-33,42,4,-46,-2,-40,-376,-52,-79,-12
-36,-52,-16,44,-9,-34,11,-18,-359,-27,-68,-11
-14,-59,-45,37,16,-52,5,-21,-370,-45,-74,-19
-21,-45,-24,33,2,-34,26,-2,-355,-35,-67,-16
3,-34,-37,16,20,-35,49,63,-322,-1,-54,-22
14,93,79,-54,-33,86,204,431,57,338,125,51
311,242,-69,-276,190,86,355,1060,595,929,489,208
443,200,-243,-322,343,-22,-260,-117,-206,228,245,210
-71,19,90,26,-80,54,-992,-1872,-1419,-870,-290,73
-223,-248,-26,236,-98,-137,-1035,-1774,-1578,-985,-453,-90
-84,-243,-158,164,37,-200,-647,-964,-1126,-658,-362,-122
-39,-83,-44,61,3,-63,-168,-273,-587,-212,-142,-48
0,-65,-65,32,33,-65,11,-16,-416,-68,-76,-24
-18,-48,-30,33,6,-39,45,20,-389,-42,-79,-18
-4,-45,-41,25,19,-43,79,95,-349,10,-61,-24
-14,-41,-27,28,7,-34,100,98,-351,12,-61,-26
-10,-35,-25,23,8,-30,120,127,-332,35,-48,-23
-14,-33,-20,23,3,-26,112,126,-332,26,-46,-31
-12,-26,-14,19,1,-20,117,138,-319,32,-36,-35
8,-24,-32,8,20,-28,114,152,-313,46,-32,-19
11,-18,-28,3,20,-23,115,166,-314,57,-34,-12
17,-14,-31,-1,25,-23,119,168,-323,53,-38,-21
18,-9,-27,-4,22,-18,119,171,-332,51,-46,-29
21,-3,-24,-8,23,-14,121,174,-329,48,-48,-36
30,5,-26,-17,28,-10,124,182,-315,62,-23,-29
31,10,-21,-20,26,-5,126,200,-302,101,9,-23
36,21,-15,-29,25,3,123,210,-297,116,11,-16
53,43,-10,-48,31,16,120,227,-290,117,9,-9
55,50,-5,-52,30,23,120,242,-284,125,12,-2
48,50,2,-49,23,26,120,258,-280,125,7,11
56,60,4,-58,26,32,120,276,-269,132,31,13
76,76,0,-76,38,38,120,304,-254,170,84,48
99,100,0,-100,49,50,124,329,-242,199,102,82
111,109,-2,-110,56,53,124,345,-238,209,98,80
115,109,-6,-112,61,51,119,366,-234,210,102,79
126,122,-4,-124,65,59,121,374,-232,211,98,86
148,138,-10,-143,79,64,117,371,-227,237,110,119
165,147,-18,-155,91,64,114,360,-224,244,123,122
168,142,-26,-155,97,58,115,347,-235,231,118,101
162,120,-42,-141,102,39,111,317,-243,231,124,84
128,80,-48,-104,87,16,104,262,-280,195,91,57
94,51,-43,-72,69,4,98,199,-333,128,21,20
75,34,-41,-55,58,-3,91,147,-360,83,-25,-10
60,22,-38,-41,49,-8,84,100,-394,60,-32,-16
46,13,-33,-29,39,-10,78,63,-432,52,-22,-27
25,-2,-27,-12,26,-14,75,46,-446,30,-52,-40
-1,-23,-22,12,11,-23,75,33,-463,1,-74,-49
-19,-35,-16,27,-1,-26,73,25,-480,-1,-68,-50
-24,-35,-11,29,-6,-23,69,22,-480,4,-71,-53
-29,-35,-7,32,-11,-21,70,18,-480,6,-70,-62
-33,-35,-2,34,-15,-18,66,15,-479,10,-70,-59
-36,-35,1,36,-18,-17,65,10,-484,6,-71,-61
-39,-34,4,36,-21,-15,65,10,-493,2,-78,-60
-40,-31,9,35,-25,-11,60,10,-507,-1,-84,-60
-37,-28,9,32,-23,-10,60,10,-512,-4,-86,-59
-31,-26,5,28,-17,-10,59,10,-509,-9,-84,-53
-25,-22,3,23,-13,-10,54,10,-510,-9,-89,-72
-20,-20,0,20,-10,-10,49,10,-510,-3,-96,-77
-14,-17,-3,16,-5,-10,44,4,-509,-5,-90,-57
-9,-15,-5,13,-1,-10,40,-3,-512,-8,-90,-53
-10,-15,-5,13,-2,-10,35,-9,-522,-10,-90,-59
-10,-15,-5,13,-2,-10,32,-16,-529,-14,-90,-66
-10,-15,-5,13,-2,-10,29,-23,-542,-15,-90,-69
-9,-14,-5,12,-2,-10,26,-28,-547,-19,-90,-70
-23,-28,-5,26,-9,-16,23,-31,-550,-20,-93,-70
-37,-42,-5,40,-16,-23,20,-34,-563,-21,-96,-68
-35,-39,-5,37,-15,-22,19,-39,-568,-25,-99,-65
-35,-40,-5,38,-15,-22,14,-40,-572,-25,-102,-62
-35,-40,-5,38,-15,-22,11,-40,-573,-28,-105,-59
-35,-40,-5,38,-15,-22,8,-50,-579,-31,-105,-55
-35,-40,-5,38,-15,-22,3,-58,-585,-29,-105,-55
-34,-35,-1,35,-16,-18,0,-59,-585,-30,-105,-59
-35,-35,0,35,-17,-17,-3,-60,-584,-30,-105,-61
-35,-35,0,35,-17,-17,-8,-60,-585,-30,-105,-65
-35,-35,0,35,-17,-17,-11,-60,-585,-35,-105,-63
-36,-36,0,36,-18,-17,-15,-60,-581,-41,-102,-58
-31,-32,-1,32,-14,-17,-18,-60,-594,-40,-99,-55
-25,-30,-5,28,-10,-17,-22,-63,-602,-40,-96,-52
-22,-30,-8,26,-7,-18,-25,-65,-595,-52,-94,-47
-20,-30,-10,25,-5,-20,-25,-65,-594,-54,-89,-45
-16,-30,-13,23,-1,-21,-27,-65,-590,-47,-91,-50
-15,-31,-16,23,0,-23,-31,-65,-589,-44,-95,-48
-23,-34,-11,29,-6,-22,-30,-64,-585,-39,-91,-44
-29,-35,-6,32,-11,-21,-30,-61,-584,-34,-89,-45
-32,-35,-3,34,-14,-19,-30,-60,-585,-30,-86,-45
-38,-35,3,36,-20,-16,-30,-60,-584,-25,-84,-45
-41,-35,5,38,-22,-15,-30,-60,-585,-21,-79,-44
-37,-32,5,34,-21,-14,-30,-61,-587,-16,-82,-40
-35,-30,5,32,-20,-12,-29,-57,-586,-11,-93,-40
-35,-30,5,32,-20,-12,-24,-55,-581,-12,-96,-40
-35,-30,5,32,-20,-12,-21,-55,-578,-22,-94,-40
-35,-30,5,32,-20,-12,-18,-51,-574,-28,-97,-40
-32,-30,1,31,-16,-14,-14,-50,-570,-26,-100,-40
-34,-35,0,34,-17,-17,-9,-50,-567,-25,-100,-40
-35,-35,0,35,-17,-17,-15,-50,-564,-25,-100,-40
-30,-35,-5,33,-12,-20,-24,-50,-565,-25,-100,-40
-30,-35,-5,33,-12,-20,-25,-50,-564,-25,-100,-40
-29,-35,-6,33,-11,-21,-25,-50,-565,-22,-97,-40
-22,-33,-11,27,-6,-21,-25,-50,-564,-19,-93,-35
-21,-27,-6,25,-7,-17,-25,-48,-560,-20,-92,-30
-24,-24,0,24,-12,-11,-25,-40,-558,-20,-88,-26
-23,-18,5,20,-13,-6,-19,-35,-553,-20,-86,-21
-27,-16,11,21,-19,-2,-6,-27,-551,-20,-83,-16
-12,4,16,4,-14,10,5,-21,-543,-4,-76,-12
1,23,22,-12,-11,22,12,-13,-519,18,-67,-9
10,34,24,-22,-7,29,3,-5,-513,26,-58,-5
25,41,16,-33,4,28,-10,2,-521,39,-66,-2
27,35,8,-32,9,21,-17,15,-520,38,-72,3
33,33,0,-33,16,16,-63,-32,-535,1,-69,5
36,28,-7,-32,21,10,-104,-82,-555,-17,-70,-1
40,26,-15,-33,27,5,-99,-88,-560,-22,-70,-6
31,12,-19,-22,25,-3,-85,-91,-562,-30,-70,-13
5,-22,-27,9,16,-24,-72,-90,-568,-35,-77,-17
-24,-52,-28,38,3,-40,-66,-97,-575,-44,-88,-24
-37,-62,-25,50,-6,-43,-58,-93,-569,-43,-96,-42
-41,-64,-23,53,-8,-43,-54,-96,-572,-48,-102,-47
-49,-67,-18,58,-15,-42,-44,-82,-567,-42,-98,-43
-52,-71,-19,62,-17,-45,-42,-82,-572,-48,-106,-47
-53,-63,-10,59,-21,-37,-50,-71,-568,-42,-104,-43
-43,-67,-24,55,-9,-45,-57,-64,-566,-46,-105,-47
-49,-63,-15,56,-17,-38,-49,-63,-557,-40,-100,-50
-40,-65,-25,53,-7,-45,-47,-38,-535,-22,-86,-46
-51,-67,-16,59,-17,-41,-48,-59,-547,-33,-92,-45
-32,-50,-18,41,-7,-33,-10,8,-503,13,-59,-32
-32,11,44,10,-38,27,63,158,-329,125,-9,2
109,192,83,-151,13,137,300,850,320,773,338,143
418,225,-193,-321,305,16,29,604,220,804,462,222
137,56,-81,-96,109,-12,-810,-1346,-1175,-456,-96,104
-249,-195,54,222,-151,-70,-1132,-2043,-1855,-1079,-471,-59
-147,-297,-150,222,1,-223,-878,-1329,-1523,-822,-439,-134
-53,-131,-77,92,12,-104,-388,-555,-922,-348,-236,-67
-26,-65,-39,46,7,-52,-78,-90,-579,-51,-93,-21
-24,-63,-39,43,8,-50,-37,-39,-563,-36,-91,-27
-22,-44,-22,33,0,-33,14,36,-498,9,-74,-23
-20,-47,-27,34,4,-37,37,66,-475,29,-73,-26
-27,-37,-10,33,-9,-23,46,90,-453,55,-64,-25
-20,-39,-19,30,0,-29,45,103,-444,58,-57,-23
-19,-31,-12,26,-3,-21,44,105,-441,59,-52,-16
-13,-30,-16,22,1,-23,46,117,-430,70,-45,-11
-11,-26,-15,19,2,-20,44,113,-428,71,-46,-6
-6,-21,-15,14,4,-17,49,132,-418,81,-44,1
-7,-19,-12,13,3,-15,50,139,-414,88,-41,4
-6,-14,-8,10,2,-10,54,151,-404,90,-40,1
-4,-11,-7,8,1,-9,57,160,-396,92,-39,0
-4,-6,-2,5,-1,-4,60,172,-390,107,-27,0
7,7,-1,-7,4,3,60,185,-379,118,-12,0
16,18,1,-17,7,9,60,200,-357,140,6,0
17,26,10,-22,3,18,60,219,-341,157,19,3
16,34,18,-25,-1,26,60,234,-333,159,21,19
24,51,27,-38,-2,39,61,252,-325,173,41,32
46,72,26,-59,9,49,59,274,-315,195,61,43
66,80,14,-73,26,47,67,302,-304,210,60,54
93,101,8,-97,42,54,73,326,-286,227,78,68
123,120,-3,-122,63,59,68,343,-277,252,107,94
131,120,-11,-125,71,54,66,361,-280,271,126,103
137,120,-17,-128,77,51,63,363,-279,287,137,110
158,119,-38,-138,98,40,60,352,-283,288,132,120
168,121,-46,-144,107,37,59,350,-285,280,123,111
152,113,-40,-132,96,37,53,324,-284,275,119,98
117,82,-35,-99,76,23,46,270,-300,247,101,88
74,44,-30,-59,52,7,39,213,-333,202,68,62
36,13,-23,-24,29,-5,32,156,-376,156,29,33
24,3,-21,-13,22,-9,26,106,-417,120,-2,22
31,-5,-36,-13,34,-20,21,65,-445,98,-13,13
27,-14,-41,-6,34,-27,18,43,-467,77,-26,4
14,-26,-39,6,27,-32,14,28,-477,59,-45,-2
-4,-45,-41,24,19,-42,11,16,-487,44,-55,-9
-13,-52,-39,33,13,-46,6,13,-500,35,-59,-15
-9,-50,-41,29,16,-45,6,9,-500,35,-60,-23
-15,-50,-36,33,11,-43,10,5,-499,35,-60,-23
-20,-50,-30,35,5,-40,10,2,-500,35,-60,-17
-29,-50,-22,40,-4,-36,12,-2,-499,35,-60,-12
-33,-50,-17,42,-8,-33,15,-5,-502,34,-58,-9
-43,-50,-7,47,-18,-28,15,-5,-505,30,-55,-3
-41,-50,-9,46,-16,-29,12,-8,-505,30,-55,-1
-26,-50,-24,38,-1,-37,7,-10,-505,30,-52,-4
-31,-50,-19,41,-6,-34,4,-11,-505,30,-49,-7
-21,-50,-28,36,3,-39,0,-4,-505,30,-51,-10
-22,-53,-31,37,5,-42,-3,8,-509,28,-54,-13
-33,-55,-23,44,-4,-39,-7,3,-512,22,-57,-15
-37,-58,-22,48,-7,-40,-11,-5,-516,17,-59,-15
-47,-61,-13,55,-17,-37,-17,-10,-519,14,-63,-15
-38,-64,-26,52,-5,-45,-20,-19,-522,9,-65,-15
-12,-65,-53,39,21,-59,-25,-23,-526,4,-68,-15
1,-60,-61,30,31,-60,-30,-28,-530,0,-70,-15
-1,-60,-60,30,30,-60,-26,-39,-535,-5,-70,-15
2,-58,-60,29,31,-59,-21,-41,-540,-9,-69,-20
5,-55,-60,25,33,-57,-16,-38,-539,-14,-66,-20
6,-55,-60,24,34,-57,-13,-37,-540,-19,-63,-20
-2,-58,-56,30,27,-56,-7,-33,-539,-23,-61,-20
-10,-60,-50,35,20,-55,-5,-40,-540,-25,-57,-19
-11,-55,-44,33,17,-50,-22,-55,-547,-25,-55,-23
-15,-55,-40,35,13,-48,-31,-55,-550,-25,-57,-25
-22,-54,-31,38,5,-43,-32,-56,-553,-25,-61,-25
-14,-50,-36,32,11,-43,-36,-61,-556,-25,-64,-25
0,-50,-50,25,25,-50,-38,-60,-559,-32,-68,-25
-4,-50,-46,27,21,-48,-41,-58,-560,-31,-70,-24
-11,-50,-39,31,14,-44,-36,-54,-559,-29,-66,-21
-14,-50,-36,32,11,-43,-29,-52,-560,-31,-61,-18
-23,-50,-27,37,2,-38,-22,-49,-560,-29,-59,-16
-22,-50,-28,37,3,-39,-16,-46,-559,-31,-55,-12
5,-49,-55,22,30,-52,-9,-44,-560,-27,-50,-9
17,-45,-62,14,40,-54,-6,-40,-564,-25,-52,-12
14,-45,-58,16,36,-51,-13,-40,-566,-25,-56,-15
16,-45,-61,15,39,-53,-19,-39,-569,-25,-55,-18
10,-45,-55,17,33,-50,-20,-35,-572,-25,-55,-21
5,-46,-51,21,28,-48,-20,-35,-575,-25,-55,-24
2,-42,-44,20,24,-43,-20,-37,-574,-33,-55,-25
0,-40,-40,20,20,-40,-20,-41,-576,-40,-63,-20
-4,-37,-33,21,15,-34,-19,-40,-580,-40,-68,-20
-2,-34,-32,18,15,-33,-22,-40,-580,-40,-64,-19
13,-31,-44,9,29,-37,-25,-45,-579,-40,-62,-15
17,-29,-46,6,31,-37,-25,-45,-576,-40,-59,-15
0,-44,-45,22,23,-44,-25,-46,-574,-41,-56,-13
-9,-52,-43,31,17,-47,-25,-50,-576,-44,-54,-8
-7,-46,-39,26,17,-42,-25,-50,-591,-40,-50,-5
-4,-44,-40,24,19,-42,-21,-47,-591,-40,-50,-2
4,-39,-43,18,24,-41,-20,-45,-579,-39,-49,3
10,-35,-46,13,28,-40,-20,-42,-576,-35,-45,5
8,-37,-45,15,27,-41,-20,-39,-574,-34,-45,0
0,-45,-45,23,23,-45,-20,-36,-578,-38,-47,0
-4,-49,-45,27,21,-47,-21,-35,-588,-45,-51,0
-2,-46,-44,24,21,-44,-25,-40,-590,-46,-49,0
-7,-45,-38,26,16,-41,-25,-39,-590,-50,-50,0
-12,-44,-32,29,10,-38,-25,-41,-589,-48,-49,2
-11,-39,-28,25,9,-33,-22,-39,-582,-40,-51,9
-21,-41,-20,32,-1,-31,-19,-41,-577,-35,-51,13
-15,-33,-18,24,2,-25,-20,-33,-570,-27,-39,19
8,4,-3,-6,5,1,-1,4,-567,-22,-28,25
12,23,11,-18,0,17,13,22,-557,-2,-17,30
30,32,3,-31,13,17,27,27,-547,9,-10,35
39,38,-1,-39,20,18,27,23,-530,-2,2,33
36,27,-9,-31,22,8,-32,-22,-545,-19,-1,29
39,20,-20,-29,29,0,-93,-71,-596,-33,-25,30
43,10,-34,-26,38,-12,-98,-77,-610,-37,-32,30
54,1,-53,-27,53,-25,-69,-75,-612,-33,-19,30
38,-18,-56,-9,47,-36,-56,-74,-618,-39,-26,30
12,-42,-55,15,34,-48,-53,-72,-619,-71,-70,20
3,-52,-55,25,29,-53,-42,-69,-613,-76,-75,10
-8,-64,-56,37,24,-60,-39,-70,-616,-75,-69,-4
-13,-65,-52,39,20,-58,-30,-64,-611,-72,-68,-7
-13,-65,-52,39,20,-58,-27,-59,-610,-68,-61,-5
-17,-65,-48,41,16,-56,-24,-62,-610,-73,-61,-5
-14,-64,-50,40,18,-57,-24,-46,-611,-71,-68,-1
-24,-67,-42,46,9,-54,-27,-60,-629,-84,-75,-1
-19,-65,-47,42,14,-56,-21,-34,-604,-59,-59,2
-28,-68,-40,48,7,-54,-30,-58,-616,-81,-71,-13
-40,-61,-21,51,-9,-41,17,-19,-580,-43,-41,-11
-30,-29,1,29,-16,-14,51,78,-484,31,-6,25
67,137,70,-102,-2,103,260,623,24,504,241,134
392,236,-156,-314,274,40,233,957,318,861,484,234
339,108,-231,-223,285,-61,-581,-648,-776,-113,88,164
-119,-128,-9,124,-55,-68,-1158,-2008,-1780,-1008,-381,6
-186,-293,-106,240,-40,-199,-1020,-1582,-1693,-952,-459,-91
-57,-182,-125,120,34,-153,-542,-763,-1132,-522,-280,-64
-34,-73,-39,54,3,-56,-119,-173,-676,-132,-102,-10
-24,-61,-37,42,7,-49,-21,-37,-600,-78,-76,5
-20,-44,-24,32,2,-34,23,16,-557,-37,-54,6
-13,-51,-38,32,13,-44,59,74,-526,-6,-52,4
-9,-42,-33,26,13,-37,72,78,-520,-2,-45,6
-1,-42,-41,22,20,-41,78,104,-507,10,-36,3
1,-39,-40,19,20,-39,72,104,-507,4,-32,10
0,-34,-35,18,18,-35,77,116,-494,25,-23,18
5,-28,-32,12,19,-30,73,120,-493,37,-19,15
7,-20,-28,7,18,-24,77,134,-485,42,-10,12
11,-15,-25,3,18,-20,80,140,-482,43,-5,9
13,-7,-20,-3,17,-13,83,147,-477,45,2,6
16,-1,-18,-7,17,-9,86,158,-472,38,7,5
15,4,-11,-9,13,-3,84,165,-468,50,13,11
14,10,-4,-12,9,3,85,175,-460,69,17,16
18,20,2,-19,8,11,85,186,-452,76,24,21
26,36,10,-31,8,23,86,198,-443,84,28,28
33,47,14,-40,9,30,93,212,-433,94,36,32
40,51,10,-45,15,30,95,240,-421,117,57,43
53,58,5,-56,24,31,96,267,-408,133,60,68
73,74,1,-74,36,37,94,288,-387,147,65,80
101,97,-4,-99,53,46,98,310,-367,172,92,92
124,116,-8,-120,66,53,106,330,-352,190,124,115
149,136,-13,-142,81,61,101,352,-342,199,137,112
175,155,-21,-165,98,67,96,366,-345,216,134,121
182,154,-28,-168,104,63,93,372,-348,225,136,139
190,156,-35,-173,112,60,87,359,-352,216,134,124
196,153,-43,-174,119,55,84,336,-354,213,136,108
173,125,-49,-149,111,38,78,301,-363,195,122,92
137,93,-45,-115,91,24,71,243,-400,157,86,75
105,67,-38,-86,72,14,64,182,-443,112,44,61
75,41,-34,-58,54,3,58,126,-476,73,13,42
54,27,-28,-40,40,-1,50,79,-509,51,2,26
43,21,-22,-32,33,-1,42,41,-538,27,-9,20
34,17,-17,-25,25,0,36,24,-553,7,-21,15
27,12,-14,-19,20,-1,28,20,-554,-9,-24,8
20,8,-12,-14,16,-2,20,12,-567,-25,-37,4
12,3,-9,-8,10,-2,16,4,-584,-30,-54,-4
5,-1,-6,-1,6,-3,24,-3,-585,-29,-55,-12
-2,-6,-4,4,2,-5,32,-2,-585,-33,-55,-12
-9,-10,-1,9,-4,-5,32,1,-585,-35,-55,-9
-7,-7,0,7,-3,-3,29,4,-585,-35,-55,-11
-4,-5,0,5,-1,-2,26,7,-591,-32,-55,-9
-4,-4,0,4,-2,-2,23,10,-595,-28,-55,-11
1,0,0,0,0,0,20,9,-599,-24,-55,-22
3,3,0,-3,1,1,18,5,-603,-21,-55,-9
7,7,0,-7,3,3,15,3,-605,-16,-55,-3
10,10,0,-10,5,5,12,0,-607,-16,-55,-11
10,10,0,-10,5,5,10,-4,-610,-32,-55,-13
10,10,0,-10,5,5,6,-5,-610,-44,-56,-20
10,10,0,-10,5,5,5,-9,-609,-45,-60,-18
16,10,-6,-12,11,2,5,-18,-614,-44,-60,-13
23,10,-12,-16,18,-1,5,-24,-614,-47,-65,-10
28,9,-19,-18,24,-5,5,-31,-622,-41,-65,-7
29,4,-25,-16,27,-11,5,-35,-632,-47,-61,-2
32,-1,-33,-15,33,-17,5,-35,-634,-66,-60,0
29,-4,-33,-12,31,-18,4,-35,-639,-65,-58,-7
12,-11,-23,0,18,-17,0,-34,-645,-65,-54,-16
15,-2,-17,-6,16,-9,-2,-43,-663,-65,-57,-25
18,15,-3,-17,10,6,-5,-47,-671,-65,-73,-28
5,6,2,-6,1,4,-8,-44,-668,-63,-74,-24
-5,-10,-4,8,0,-7,-11,-45,-670,-58,-67,-22
-9,-15,-6,12,-1,-10,-10,-45,-669,-55,-64,-19
-4,-15,-11,10,4,-13,-10,-44,-670,-52,-59,-16
-1,-15,-14,8,7,-14,-10,-47,-674,-47,-54,-14
3,-15,-18,7,11,-16,-10,-50,-675,-45,-51,-11
5,-15,-20,5,13,-17,-10,-53,-678,-50,-48,-6
5,-15,-20,5,13,-17,-11,-55,-680,-58,-55,-8
8,-15,-23,4,16,-19,-19,-51,-682,-57,-71,-28
11,-15,-26,3,19,-20,-20,-50,-685,-55,-69,-41
9,-15,-24,3,17,-20,-20,-50,-684,-55,-64,-39
6,-15,-21,5,14,-17,-25,-50,-685,-55,-62,-42
5,-15,-20,5,13,-17,-25,-50,-692,-54,-56,-45
2,-19,-20,9,11,-19,-23,-51,-702,-56,-55,-45
0,-20,-20,10,10,-20,-20,-55,-706,-65,-60,-43
0,-20,-20,10,10,-20,-17,-55,-709,-63,-60,-38
2,-20,-22,9,12,-21,-15,-55,-713,-59,-61,-32
9,-20,-29,6,19,-25,-11,-55,-715,-56,-65,-29
16,-19,-35,2,26,-27,-10,-55,-714,-50,-65,-23
21,-14,-35,-3,28,-24,-10,-51,-715,-51,-62,-20
26,-9,-35,-8,31,-21,-10,-50,-715,-55,-60,-30
31,-5,-35,-12,33,-20,-10,-50,-714,-55,-60,-32
34,0,-35,-17,35,-17,-10,-46,-718,-55,-56,-29
41,5,-36,-22,38,-15,-10,-44,-723,-55,-55,-31
33,1,-32,-16,32,-16,-10,-47,-728,-55,-55,-29
22,-8,-30,-7,26,-19,-10,-50,-729,-52,-50,-31
14,-16,-30,1,22,-23,-10,-50,-725,-49,-50,-27
6,-20,-27,7,16,-23,-10,-50,-725,-46,-49,-25
5,-20,-24,8,15,-21,-10,-50,-725,-43,-44,-25
5,-20,-25,8,15,-22,-10,-50,-726,-40,-46,-25
15,-20,-35,2,25,-27,-10,-50,-724,-38,-42,-25
16,-21,-37,3,27,-28,-10,-49,-731,-35,-39,-25
19,-15,-34,-1,26,-24,-10,-42,-731,-35,-40,-19
30,-6,-36,-12,33,-21,-10,-36,-725,-33,-36,-14
36,2,-34,-19,35,-16,-10,-29,-721,-29,-35,-9
48,12,-36,-29,41,-12,-9,-22,-713,-31,-35,-3
51,19,-32,-35,41,-6,5,-17,-711,-23,-30,3
57,31,-26,-44,41,3,18,-10,-701,-8,-27,8
57,38,-20,-47,38,9,30,-7,-698,5,-24,10
62,58,-4,-60,32,27,36,14,-673,13,-20,13
76,74,-3,-75,39,35,-21,-15,-695,-8,-16,16
74,52,-22,-63,48,15,-79,-70,-728,-24,-13,19
86,37,-49,-61,67,-6,-80,-83,-758,-25,-8,21
83,26,-57,-54,70,-15,-70,-92,-699,-25,-5,12
65,12,-53,-38,59,-21,-62,-89,-340,-28,-16,3
49,-7,-57,-21,53,-32,-58,-91,-33,-53,-37,-8
32,-21,-53,-5,43,-37,-52,-91,158,-56,-47,-17
33,-25,-58,-4,46,-41,-47,-88,349,-54,-55,-27
16,-34,-50,10,33,-42,-41,-89,475,-57,-55,-33
0,-48,-48,24,25,-48,-36,-79,597,-52,-54,-30
-9,-46,-37,28,14,-41,-36,-86,688,-60,-57,-24
-9,-42,-34,26,13,-38,-29,-71,782,-46,-52,-18
-16,-42,-26,30,5,-34,-32,-84,824,-57,-57,-14
-17,-34,-17,25,0,-25,-21,-64,897,-37,-37,-6
4,-41,-45,18,25,-42,-28,-77,938,-50,-39,-5
15,-22,-37,4,27,-30,-4,-54,978,-35,-16,8
26,-16,-42,-5,34,-29,26,20,1055,-8,-4,6
26,101,75,-64,-25,88,184,389,1467,333,158,68
337,255,-83,-296,210,86,332,1008,2048,935,519,213
436,190,-246,-312,341,-28,-258,-129,1278,259,293,220
-68,-5,63,36,-66,29,-975,-1862,63,-866,-262,72
-205,-222,-17,214,-94,-119,-1030,-1798,-94,-1002,-436,-76
-54,-203,-149,128,48,-175,-645,-999,382,-649,-312,-86
-16,-57,-42,37,13,-50,-165,-305,951,-193,-120,-21
17,-35,-52,10,35,-44,16,-48,1113,-48,-60,1
6,-34,-40,15,23,-37,44,-26,1133,-36,-40,7
14,-33,-48,10,31,-40,78,50,1181,-1,-30,4
15,-29,-44,8,30,-36,81,63,1183,-4,-28,3
14,-30,-44,9,29,-37,101,88,1209,17,-17,0
15,-27,-42,6,29,-34,107,92,1203,15,-14,0
19,-19,-38,0,29,-29,114,114,1205,32,-1,4
25,-16,-41,-4,33,-28,115,117,1198,41,5,9
24,-9,-33,-7,29,-21,115,123,1196,50,11,14
32,-4,-36,-14,35,-20,115,132,1192,55,18,17
34,1,-32,-17,33,-15,115,132,1188,60,22,23
37,7,-30,-22,33,-11,115,143,1186,68,30,27
45,14,-30,-30,37,-8,115,154,1184,78,42,30
50,21,-30,-35,39,-4,119,157,1185,85,48,30
58,28,-30,-43,44,-1,120,170,1184,94,52,30
63,34,-29,-48,46,2,120,192,1184,107,55,30
64,39,-25,-51,44,6,120,212,1187,111,63,29
72,47,-25,-59,48,11,120,224,1190,128,73,35
82,59,-23,-70,53,17,120,239,1189,153,96,47
102,82,-20,-92,61,31,120,270,1193,169,122,70
109,90,-20,-99,64,35,120,292,1195,182,124,89
120,97,-23,-108,71,37,120,313,1194,201,133,96
145,113,-32,-129,88,40,120,323,1187,219,144,109
156,120,-36,-138,95,42,120,317,1177,225,159,116
165,129,-37,-147,101,46,117,314,1167,226,169,110
173,120,-53,-147,113,34,114,308,1154,217,158,100
186,114,-71,-150,128,21,111,305,1131,211,151,92
174,104,-70,-139,122,17,108,275,1097,203,141,83
138,75,-63,-106,100,6,105,220,1050,175,123,73
112,53,-59,-82,85,-3,104,168,997,140,92,60
89,37,-52,-63,71,-7,95,118,954,107,62,43
69,21,-48,-45,58,-13,85,74,905,64,42,28
47,5,-42,-26,45,-18,75,37,854,32,24,18
28,-11,-40,-9,34,-25,66,11,816,16,10,5
17,-23,-40,3,29,-31,64,1,786,0,-2,-3
10,-30,-40,10,25,-35,61,-2,767,-6,-8,0
10,-30,-40,10,25,-35,58,-5,752,-9,-13,0
10,-30,-40,10,25,-35,55,-7,733,-12,-16,0
5,-30,-35,13,20,-32,53,-11,712,-17,-21,0
5,-30,-35,13,20,-32,50,-8,699,-20,-25,0
4,-30,-34,13,19,-31,50,-5,688,-17,-20,0
5,-25,-30,10,18,-27,50,-5,666,-14,-20,0
5,-25,-30,10,18,-27,50,-1,642,-11,-19,0
6,-24,-30,9,19,-26,50,0,632,-8,-15,0
10,-20,-30,5,20,-25,46,-1,622,-5,-15,0
10,-20,-30,5,20,-25,45,-5,610,-6,-17,-1
7,-23,-30,8,19,-26,45,-12,594,-10,-21,-5
5,-25,-30,10,18,-27,40,-16,564,-12,-20,-5
5,-25,-30,10,18,-27,40,-23,546,-15,-20,-5
7,-28,-35,11,21,-32,39,-27,537,-18,-20,-5
13,-31,-43,9,28,-37,35,-33,517,-20,-20,-5
13,-30,-43,8,28,-36,33,-35,497,-24,-24,-5
9,-30,-39,11,24,-35,30,-35,475,-25,-27,-5
10,-30,-40,10,25,-35,27,-49,451,-26,-30,-5
10,-30,-40,10,25,-35,25,-49,435,-33,-33,-5
10,-30,-40,10,25,-35,25,-55,419,-39,-36,-4
11,-29,-40,9,26,-34,25,-66,393,-40,-39,-7
7,-38,-45,16,26,-41,25,-64,373,-40,-41,-10
6,-47,-53,21,30,-50,25,-65,360,-40,-44,-12
11,-42,-53,16,32,-47,25,-65,346,-40,-45,-15
10,-40,-50,15,30,-45,24,-65,331,-41,-45,-11
10,-36,-47,14,29,-42,20,-63,318,-45,-45,-9
10,-34,-44,13,28,-39,20,-59,304,-45,-45,-10
5,-35,-40,15,23,-37,20,-60,290,-45,-43,-9
6,-35,-40,14,24,-37,20,-56,276,-45,-39,-11
4,-35,-39,16,22,-37,20,-55,261,-45,-37,-8
7,-35,-42,14,25,-38,20,-55,249,-45,-34,-5
19,-35,-54,9,37,-45,20,-60,233,-45,-30,-5
22,-34,-56,7,39,-45,20,-68,212,-45,-30,-3
25,-29,-54,3,40,-41,20,-70,195,-45,-34,1
25,-26,-51,1,38,-38,20,-70,179,-45,-39,0
27,-22,-50,-3,39,-36,20,-70,162,-46,-38,-3
30,-19,-49,-5,40,-34,20,-70,146,-53,-35,-6
31,-14,-44,-8,38,-29,20,-70,130,-55,-35,-9
23,-23,-45,1,34,-34,20,-69,114,-55,-32,-11
6,-39,-45,17,25,-42,20,-66,98,-55,-29,-15
5,-40,-45,18,25,-42,20,-63,82,-55,-32,-14
5,-40,-45,18,25,-42,16,-60,66,-55,-40,-10
9,-40,-49,16,29,-44,15,-58,55,-55,-41,-10
15,-40,-55,13,35,-47,14,-54,44,-55,-39,-10
15,-40,-55,13,35,-47,11,-60,32,-55,-36,-10
19,-36,-55,9,37,-45,9,-68,19,-55,-34,-10
26,-29,-55,2,41,-42,15,-62,1,-55,-35,-14
33,-22,-55,-5,44,-38,26,-57,-13,-55,-35,-15
39,-16,-55,-11,47,-35,23,-54,-25,-51,-35,-15
50,-8,-59,-21,55,-33,20,-48,-36,-50,-35,-15
54,-6,-60,-24,57,-33,18,-46,-48,-49,-35,-15
49,-11,-60,-19,55,-36,14,-49,-61,-46,-35,-14
49,-16,-64,-16,57,-40,18,-50,-71,-44,-32,-10
46,-19,-66,-13,56,-42,26,-50,-79,-46,-29,-10
46,-17,-63,-14,55,-40,33,-50,-90,-50,-26,-8
49,-10,-59,-19,54,-34,31,-50,-106,-50,-23,-4
46,-7,-53,-19,50,-30,25,-47,-110,-50,-20,-5
48,-2,-50,-23,49,-25,22,-39,-124,-49,-20,-1
47,2,-45,-24,46,-21,15,-32,-137,-51,-31,4
48,8,-40,-28,44,-16,21,-27,-134,-39,-24,9
91,47,-44,-69,67,2,56,-15,-135,-19,3,12
119,74,-45,-96,81,14,69,-6,-135,-22,11,18
115,67,-47,-91,81,10,73,11,-136,-28,15,19
117,67,-50,-92,83,8,55,14,-136,-33,20,14
114,63,-51,-88,82,5,-11,-30,-176,-38,17,16
130,61,-69,-95,99,-4,-57,-67,-233,-46,14,13
135,58,-77,-96,106,-9,-53,-80,-255,-57,11,9
103,30,-73,-66,88,-22,-28,-82,-258,-55,8,11
78,1,-76,-39,77,-37,-24,-80,-262,-55,-14,6
58,-16,-74,-21,66,-45,-23,-83,-299,-73,-40,0
39,-36,-75,-1,57,-56,-18,-80,-328,-87,-47,-4
31,-41,-72,5,52,-56,-18,-79,-338,-93,-56,-11
29,-39,-67,5,48,-53,-12,-74,-345,-86,-50,-16
32,-42,-74,5,53,-58,-13,-68,-360,-98,-54,-20
27,-38,-65,5,46,-51,-7,-72,-364,-92,-43,-13
34,-42,-76,4,55,-59,-11,-57,-380,-95,-48,-16
28,-34,-62,3,45,-48,-3,-67,-384,-91,-41,-15
34,-33,-67,0,50,-50,-5,-49,-392,-82,-36,-14
20,-27,-47,4,34,-37,-2,-62,-396,-97,-45,-19
22,-22,-44,0,34,-33,35,-35,-365,-42,-13,2
61,28,-33,-45,47,-2,100,184,-231,65,0,20
193,202,9,-198,91,106,366,809,384,668,366,148
488,223,-264,-355,376,-21,112,769,306,695,429,209
271,54,-217,-162,244,-81,-760,-1228,-998,-477,-33,103
-127,-175,-48,151,-39,-111,-1155,-1964,-1723,-1101,-428,-29
-77,-242,-164,160,44,-203,-859,-1378,-1406,-841,-362,-98
-38,-143,-105,91,34,-124,-387,-481,-865,-414,-45,-52
