I,II,III,aVR,aVL,aVF,V1,V2,V3,V4,V5,V6
19,26,7,-23,5,16,23,-60,24,11,-64,-50
-1,31,32,-15,-17,31,36,-60,43,21,-58,-43
-31,40,71,-5,-51,55,46,-60,49,35,-49,-34
-30,74,104,-22,-67,89,50,-60,68,54,-41,-27
7,118,110,-63,-52,114,6,-59,67,52,-32,-16
22,95,73,-59,-26,84,-15,-61,46,31,-23,-9
24,63,39,-44,-8,51,-47,-72,31,15,-18,-1
12,47,34,-30,-11,40,-70,-97,-1,-13,-46,-25
-63,-24,39,43,-51,7,-48,-85,-13,-17,-56,-44
-95,-68,27,81,-60,-20,-45,-106,-36,-42,-84,-69
-62,-71,-9,67,-27,-40,-38,-117,-43,-61,-104,-93
-85,-103,-18,94,-33,-61,-37,-122,-51,-71,-106,-93
-125,-129,-4,127,-60,-67,-27,-136,-68,-83,-126,-108
-43,-94,-52,68,5,-73,-31,-99,-64,-79,-87,-74
-50,-123,-72,87,11,-97,1,-119,-85,-101,-131,-112
-86,-116,-30,101,-27,-73,38,85,50,35,-81,-89
181,214,33,-198,74,124,-132,308,344,327,248,178
680,832,152,-756,264,492,-701,384,630,612,802,661
725,961,236,-843,244,598,-1157,-47,269,255,879,806
208,395,187,-301,10,291,-841,-659,-289,-302,263,338
-13,69,82,-28,-48,75,-352,-437,-182,-198,-39,32
-37,-11,26,23,-31,8,-108,-198,-84,-109,-92,-52
-93,-90,3,92,-48,-43,23,-152,-73,-91,-122,-96
-41,-75,-34,59,-3,-55,56,-65,-19,-36,-93,-88
-72,-89,-18,81,-27,-53,77,-62,-23,-37,-108,-101
-133,-107,26,120,-79,-40,71,-33,-24,-26,-89,-91
-84,-115,-31,100,-26,-73,97,-40,-33,-46,-94,-97
-73,-115,-42,95,-15,-79,97,-23,-18,-32,-93,-94
-125,-110,15,118,-70,-47,78,-19,-5,-31,-94,-91
-131,-92,39,112,-85,-26,122,5,40,-21,-89,-84
-68,-71,-3,69,-32,-37,130,17,34,-7,-82,-77
-26,-37,-11,31,-7,-23,132,39,26,12,-82,-72
-69,-29,40,49,-54,6,150,89,50,38,-58,-63
-61,-43,18,51,-39,-12,152,127,70,63,-41,-57
-84,-26,57,54,-70,15,160,172,100,84,-34,-48
-90,-36,54,63,-71,8,152,186,103,86,-27,-44
-12,32,44,-11,-28,38,168,224,134,110,-4,-26
-24,86,109,-31,-67,97,178,268,157,148,21,6
-30,65,95,-18,-63,80,159,257,152,148,35,29
-28,61,88,-17,-58,74,153,242,169,140,53,35
-8,62,70,-27,-39,65,136,226,159,137,46,27
32,115,83,-74,-26,99,124,194,142,122,39,21
2,80,78,-42,-38,79,108,140,126,101,30,14
-26,14,40,5,-33,27,80,81,81,64,-6,2
-32,12,44,10,-38,27,51,53,56,48,-23,-8
-28,6,34,11,-31,19,35,30,45,33,-32,-29
-67,-27,40,46,-53,6,20,-13,15,7,-63,-63
-104,-59,44,82,-74,-7,1,-40,16,-6,-77,-76
-105,-72,33,88,-69,-19,4,-32,15,-15,-74,-74
-64,-66,-2,65,-31,-34,-8,-32,-2,-12,-76,-76
-34,-5,29,19,-31,12,3,-49,2,-24,-75,-71
-51,-27,24,39,-37,-1,29,-50,1,-30,-75,-65
-96,-71,25,83,-60,-23,18,-45,3,-16,-71,-60
-114,-46,68,80,-91,11,16,-44,18,-15,-70,-55
-37,-36,1,37,-19,-17,9,-40,14,-3,-69,-48
-28,-7,20,17,-24,7,3,-41,5,-3,-66,-46
-97,-33,64,65,-80,15,-1,-50,-2,-26,-64,-54
-111,-73,38,92,-74,-18,-14,-50,-10,-29,-71,-56
-54,-15,39,34,-47,12,-17,-45,-15,-20,-79,-55
-22,32,54,-5,-38,42,-13,-44,-4,-15,-67,-50
-38,15,53,11,-45,33,13,-40,3,-11,-58,-50
-28,18,46,5,-37,32,36,-39,10,-1,-46,-50
0,49,49,-25,-25,48,35,-32,23,1,-31,-51
6,77,72,-42,-33,74,17,-26,42,26,-19,-38
-5,108,113,-52,-60,111,-8,-24,53,44,-6,0
0,90,89,-45,-45,89,-49,-29,24,8,-6,7
13,47,34,-30,-10,40,-78,-60,-4,-21,-27,-10
15,32,17,-24,-1,24,-47,-65,-30,-44,-58,-37
-50,-23,27,36,-38,2,-20,-50,-35,-45,-59,-52
-68,-77,-9,73,-29,-43,-28,-76,-55,-64,-85,-67
-34,-110,-77,72,22,-93,-55,-98,-73,-93,-110,-87
-88,-143,-55,116,-16,-99,-55,-128,-68,-92,-117,-90
-88,-126,-38,107,-24,-81,-56,-97,-80,-90,-116,-91
-103,-153,-50,128,-26,-102,-40,-105,-95,-108,-127,-108
-91,-141,-51,116,-20,-96,30,8,-21,-39,-105,-102
54,18,-36,-36,45,-9,-12,249,148,134,52,20
429,523,93,-476,168,308,-412,377,467,457,512,410
835,1031,197,-933,319,614,-1008,254,489,476,953,837
470,673,203,-572,133,438,-1039,-441,-127,-134,545,587
13,172,158,-93,-73,165,-540,-599,-313,-317,27,129
-19,64,83,-23,-51,73,-190,-215,-112,-121,-40,8
-103,-90,13,96,-58,-38,-57,-155,-114,-124,-114,-82
-108,-144,-36,126,-36,-90,5,-72,-76,-86,-102,-93
-102,-133,-32,118,-35,-82,56,-63,-67,-76,-98,-84
-119,-144,-26,132,-46,-85,83,-51,-55,-63,-98,-89
-111,-113,-2,112,-54,-58,77,-21,-49,-55,-86,-90
-102,-84,18,93,-59,-33,74,-2,-44,-50,-90,-82
-115,-88,27,101,-70,-31,94,27,-25,-35,-78,-59
-112,-91,21,101,-66,-35,107,18,-21,-29,-79,-63
-102,-72,30,87,-66,-21,103,49,-4,-7,-71,-50
-120,-90,30,105,-75,-30,97,66,0,5,-69,-51
-54,-49,4,52,-29,-22,114,97,18,20,-64,-38
-24,-21,4,23,-14,-8,172,125,45,39,-76,-46
-99,-64,35,81,-67,-14,180,164,69,65,-55,-52
-152,-69,84,110,-118,8,171,221,84,81,-10,-16
-88,-51,38,69,-63,-6,167,236,89,82,-11,-21
30,54,24,-42,2,39,160,253,115,104,-9,-10
16,92,76,-54,-30,84,180,271,137,131,35,26
-23,58,82,-18,-53,70,170,264,136,132,39,34
1,75,73,-38,-36,74,141,243,129,124,29,26
7,82,75,-45,-34,78,126,214,122,117,39,13
-5,66,70,-31,-38,68,125,186,116,111,22,10
-27,27,54,0,-40,40,101,134,87,82,20,10
-35,11,46,12,-40,28,66,73,46,39,-10,-19
-80,-35,45,57,-62,5,55,29,31,19,-50,-46
-24,-21,3,23,-14,-9,43,9,11,-16,-55,-52
4,-8,-12,2,8,-10,32,-5,-25,-42,-78,-74
-86,-44,42,65,-64,-1,26,-24,-32,-39,-88,-83
-74,-54,19,64,-46,-18,23,-35,-29,-40,-83,-78
-94,-74,20,83,-57,-26,20,-35,-28,-40,-83,-78
-59,-43,16,51,-37,-13,18,-35,-24,-40,-78,-74
-53,-76,-23,65,-15,-49,14,-35,-26,-40,-81,-76
-84,-58,26,70,-55,-16,17,-35,-25,-35,-84,-75
-70,-35,35,52,-52,0,16,-37,-24,-34,-85,-75
-91,-87,4,89,-48,-41,-17,-47,-34,-41,-89,-79
1,-17,-18,8,10,-18,-13,-49,-37,-44,-87,-78
1,-21,-22,10,12,-21,25,-43,-28,-36,-79,-73
-63,-70,-8,67,-27,-39,30,-37,-20,-29,-72,-65
-62,-61,1,62,-31,-30,30,-33,-13,-24,-68,-70
-106,-67,39,86,-72,-14,31,-23,-11,-13,-62,-69
-82,-65,17,73,-49,-24,29,-35,-26,-24,-72,-76
-54,-41,13,47,-33,-14,31,-32,-14,-28,-75,-72
-65,-1,63,33,-64,31,49,7,25,-17,-64,-41
-35,40,75,-3,-55,57,74,16,35,0,-51,-36
-23,40,63,-9,-43,51,37,-15,27,4,-38,-32
12,56,44,-35,-16,50,15,-31,20,13,-35,-19
32,105,73,-69,-21,88,4,-14,21,21,-31,-17
20,44,24,-32,-2,33,-50,-58,-10,-38,-56,-43
-5,-14,-8,9,2,-11,-33,-57,-40,-42,-64,-54
-110,-94,16,102,-62,-39,-29,-70,-73,-68,-90,-83
-136,-151,-15,144,-61,-83,-24,-99,-88,-99,-121,-116
-47,-92,-45,70,-1,-68,-1,-81,-84,-88,-111,-102
-68,-128,-60,98,-4,-93,-13,-85,-75,-85,-118,-105
-143,-168,-25,156,-59,-96,-54,-64,-71,-79,-125,-96
-108,-137,-30,123,-39,-83,0,-69,-78,-86,-127,-98
-43,-127,-84,85,21,-105,92,125,27,21,-66,-82
134,98,-36,-116,85,31,-57,319,238,233,163,99
654,743,90,-699,282,416,-558,403,551,541,730,598
830,985,155,-908,337,570,-1061,42,298,291,902,822
277,436,159,-357,59,297,-849,-620,-282,-285,299,369
-54,61,115,-4,-85,88,-379,-481,-246,-251,-46,21
-46,21,66,12,-56,43,-138,-176,-121,-127,-86,-54
-33,-57,-24,45,-4,-41,23,-93,-99,-102,-116,-93
-82,-129,-47,106,-18,-87,45,-17,-60,-61,-92,-94
-152,-158,-6,155,-73,-82,75,-45,-64,-67,-107,-107
-115,-145,-30,130,-42,-88,102,13,-30,-36,-85,-85
-106,-114,-8,110,-48,-61,98,19,-34,-38,-88,-91
-66,-88,-22,77,-21,-55,103,23,-28,-33,-87,-92
-41,-98,-57,70,8,-77,97,53,-18,-25,-75,-80
-32,-74,-41,53,5,-57,105,47,-13,-20,-73,-78
-66,-77,-11,72,-27,-44,124,57,-2,-15,-62,-68
-108,-104,4,106,-56,-50,140,91,17,-5,-59,-63
-36,-26,11,31,-23,-8,154,127,35,17,-47,-57
-30,-21,9,26,-20,-6,166,161,48,44,-35,-51
-59,-73,-14,66,-22,-43,161,190,62,60,-23,-43
-48,-5,44,27,-46,19,165,245,98,94,-2,-22
-3,39,42,-19,-23,40,169,278,118,116,10,-9
6,17,11,-12,-2,13,174,277,120,116,22,-2
-48,57,104,-5,-76,80,204,300,156,156,60,29
-27,65,92,-19,-60,78,182,278,157,146,67,37
10,61,51,-36,-21,56,158,242,136,116,54,25
32,91,59,-62,-13,75,157,217,120,109,43,14
57,74,17,-66,20,46,125,167,96,95,29,8
-23,27,50,-2,-37,39,101,112,72,84,13,-4
-76,-8,68,42,-72,30,77,63,55,55,-8,-28
-22,-1,21,11,-21,10,59,21,43,20,-31,-34
-42,-57,-15,50,-14,-35,54,3,5,-11,-60,-61
-74,-92,-18,83,-28,-54,42,-8,-18,-22,-64,-74
-107,-62,46,84,-76,-8,59,-7,-2,-8,-47,-68
-100,-64,36,82,-68,-14,51,-2,-1,-5,-46,-70
-61,-80,-19,71,-21,-50,20,-46,-33,-39,-79,-80
-92,-83,9,87,-50,-37,31,-53,-34,-39,-85,-86
-82,-54,28,68,-55,-12,29,-39,-14,-24,-63,-68
-74,-45,30,59,-52,-7,34,-27,-18,-27,-65,-68
-57,-54,3,55,-30,-25,48,-14,-10,-15,-65,-71
-57,-57,0,57,-28,-28,42,-41,4,-30,-65,-69
-94,-56,38,75,-66,-9,42,-44,-18,-31,-66,-71
-62,-49,13,55,-38,-17,36,-37,-31,-28,-64,-68
-62,-43,19,52,-40,-12,36,-48,-35,-42,-69,-75
-89,-79,9,84,-48,-35,35,-53,-47,-45,-75,-79
-63,-107,-44,85,-9,-75,32,-43,-42,-42,-67,-70
-36,-75,-40,56,2,-57,29,-32,-35,-36,-61,-62
-67,-61,7,64,-37,-27,31,-23,-20,-19,-54,-54
-58,-5,54,31,-56,24,60,-11,7,-3,-47,-47
-13,32,45,-10,-30,38,63,-4,24,8,-38,-38
-49,20,69,15,-59,44,40,10,34,29,-28,-28
-12,78,90,-33,-51,84,25,7,36,21,-32,-25
44,90,46,-68,-1,68,-9,-11,19,4,-27,-15
16,34,18,-26,-1,26,-42,-55,-23,-14,-40,-23
-26,-42,-16,34,-5,-28,-41,-73,-41,-36,-60,-48
-29,-55,-27,42,-1,-41,-31,-67,-55,-57,-75,-64
-36,-83,-47,60,6,-65,-18,-74,-76,-76,-100,-82
-78,-162,-84,120,3,-122,-18,-56,-74,-73,-97,-76
-89,-164,-75,127,-7,-119,-5,-77,-76,-78,-105,-89
-52,-134,-82,93,15,-108,-8,-44,-64,-70,-93,-102
-66,-146,-80,106,8,-113,7,-57,-77,-79,-110,-109
-84,-141,-57,112,-13,-98,71,73,1,-1,-90,-97
92,56,-36,-74,64,10,7,311,200,198,117,57
545,576,31,-560,257,303,-436,429,502,498,628,506
830,950,120,-890,354,535,-1029,181,389,387,939,841
404,542,137,-473,133,339,-960,-558,-217,-217,418,478
23,102,79,-63,-29,91,-464,-570,-295,-296,-13,71
-20,45,65,-13,-42,54,-177,-195,-128,-125,-54,-18
-100,-80,20,90,-60,-30,-26,-138,-116,-119,-116,-100
-86,-145,-59,115,-13,-102,27,-35,-56,-62,-97,-103
-75,-130,-55,103,-10,-92,68,-35,-52,-56,-102,-94
-60,-107,-47,84,-6,-77,98,-16,-41,-47,-96,-91
-73,-114,-41,94,-16,-78,92,0,-42,-46,-90,-80
-81,-119,-38,100,-21,-78,98,13,-39,-44,-91,-79
-63,-115,-51,89,-6,-83,111,41,-30,-35,-79,-71
-75,-125,-50,100,-12,-87,119,34,-22,-25,-76,-81
-62,-110,-48,86,-7,-79,111,51,-13,-16,-67,-88
-26,-81,-55,54,15,-68,132,90,2,2,-59,-71
-23,-44,-21,33,-1,-32,147,121,25,26,-47,-66
-115,-79,36,96,-75,-21,141,153,49,40,-33,-53
-58,-36,22,46,-40,-7,162,193,76,64,-12,-23
-3,21,24,-9,-14,22,177,236,100,89,8,-15
-90,-25,64,57,-77,19,185,278,129,112,22,-11
-69,4,74,33,-71,39,186,282,141,119,31,-2
-33,35,67,-1,-50,51,184,277,137,126,43,7
0,71,71,-36,-36,71,192,268,126,130,61,17
14,92,77,-53,-32,84,173,249,137,137,61,31
-5,65,70,-31,-38,68,158,241,135,129,49,27
0,69,69,-34,-35,68,140,211,126,118,51,10
-38,23,60,8,-49,41,111,143,100,91,26,-1
-55,-19,36,37,-45,8,97,89,45,42,-21,-14
-5,-6,0,5,-3,-3,80,50,22,30,-33,-26
-2,-16,-14,9,6,-15,67,24,9,13,-40,-43
-46,-53,-7,50,-20,-30,56,21,1,-4,-61,-61
-107,-83,24,95,-66,-29,45,15,-12,-10,-66,-66
-84,-80,4,82,-44,-37,41,9,-25,-21,-58,-65
-29,-64,-35,47,3,-49,31,4,-25,-22,-54,-65
-66,-57,9,62,-38,-24,28,-1,-25,-20,-49,-65
-106,-71,35,88,-70,-18,16,-9,-24,-20,-42,-65
-74,-57,17,65,-46,-20,21,-27,-31,-31,-38,-60
-65,-38,27,51,-46,-5,47,-14,-36,-19,-33,-60
-61,-44,17,53,-39,-13,28,3,-28,-6,-48,-60
-8,-38,-30,23,11,-33,14,-27,-29,-36,-69,-60
-59,-30,29,44,-43,-1,33,-14,-21,-46,-61,-58
-91,-27,64,59,-77,18,39,-1,-20,-44,-61,-53
-71,-39,31,55,-50,-4,32,-37,-31,-47,-57,-66
-60,-51,9,55,-34,-21,28,-33,-33,-41,-54,-71
-47,-69,-22,58,-12,-45,18,-31,-40,-47,-73,-69
-35,-5,30,19,-32,13,44,-22,-1,-8,-41,-63
-1,45,46,-22,-24,45,73,-13,10,16,-23,-52
-23,31,54,-4,-38,42,52,-1,9,12,-38,-43
-27,69,96,-21,-62,83,28,17,37,21,-33,-33
40,98,58,-69,-9,77,-10,8,25,-7,-23,-28
61,73,12,-67,24,42,-41,-12,-11,-16,-10,-26
-35,-16,20,26,-28,2,-29,-64,-52,-50,-53,-43
-54,-43,11,49,-32,-16,-15,-63,-51,-80,-81,-51
-65,-92,-28,79,-18,-60,-28,-76,-79,-89,-97,-78
-135,-166,-30,151,-52,-98,-34,-88,-96,-93,-120,-98
-102,-154,-52,128,-24,-103,-24,-88,-97,-99,-121,-90
-57,-148,-91,103,17,-119,-10,-81,-92,-87,-120,-90
-81,-147,-66,114,-7,-106,-3,-71,-97,-94,-119,-81
-85,-132,-48,109,-18,-90,61,-45,-86,-79,-118,-88
-16,-78,-62,47,23,-70,92,193,70,74,-19,-39
232,238,6,-235,113,122,-150,380,328,327,306,223
758,835,77,-797,340,456,-760,422,531,531,844,720
724,843,119,-784,302,481,-1116,-136,96,96,771,744
162,288,126,-225,17,207,-736,-672,-345,-340,167,247
-41,23,63,9,-52,43,-300,-361,-202,-195,-39,21
-69,-68,1,68,-35,-33,-77,-162,-133,-129,-85,-55
-88,-117,-29,103,-29,-73,40,-99,-94,-95,-120,-106
-104,-124,-21,114,-41,-73,68,-33,-61,-61,-107,-94
-116,-149,-33,133,-41,-91,96,-35,-59,-60,-110,-99
-107,-143,-36,125,-36,-89,88,-4,-39,-42,-96,-88
-107,-144,-37,125,-34,-90,89,-13,-42,-51,-98,-90
-133,-126,6,129,-69,-60,94,17,-24,-48,-88,-81
-110,-136,-26,123,-42,-81,111,35,-19,-51,-83,-85
-70,-131,-61,101,-4,-96,122,48,-7,-32,-76,-93
-121,-108,13,115,-67,-47,130,58,4,1,-69,-83
-97,-110,-12,104,-42,-61,130,74,9,11,-63,-78
-80,-82,-3,81,-38,-42,139,115,36,30,-56,-70
-71,-77,-6,74,-32,-41,153,146,50,49,-44,-60
-30,-42,-13,36,-8,-27,144,177,60,60,-33,-50
-47,-14,33,30,-40,9,170,235,111,116,-12,-22
-54,-1,53,27,-53,26,191,264,131,145,16,-12
-89,5,94,42,-91,49,190,273,141,141,35,0
-64,25,89,19,-77,57,188,271,166,169,60,34
-11,65,76,-27,-44,70,178,264,170,169,72,35
-29,45,75,-8,-52,60,168,256,170,156,70,16
-28,29,57,-1,-43,43,136,194,151,137,47,2
-9,6,15,1,-12,10,89,135,120,103,9,-15
13,-1,-15,-6,14,-8,66,93,90,93,-16,-32
-56,-56,-1,56,-27,-28,67,44,67,79,-33,-28
-115,-111,4,113,-59,-53,62,13,52,56,-44,-33
-91,-92,-2,92,-44,-47,49,-13,44,49,-49,-57
-118,-93,24,105,-71,-34,41,-22,36,44,-63,-53
-121,-87,34,103,-77,-26,31,-19,28,41,-77,-47
-89,-102,-13,96,-38,-58,24,-40,21,43,-74,-62
-87,-118,-31,103,-27,-75,13,-53,13,46,-75,-71
-86,-112,-26,99,-29,-69,3,-48,10,45,-75,-73
-80,-113,-33,96,-24,-73,-10,-59,-1,45,-75,-75
-72,-107,-36,89,-18,-71,-19,-62,12,45,-80,-81
-92,-124,-32,108,-30,-78,-5,-60,39,44,-73,-82
-118,-118,0,118,-59,-58,-8,-60,42,38,-63,-69
-116,-103,13,109,-64,-44,-5,-56,36,29,-51,-62
-100,-84,15,92,-57,-34,15,-55,48,45,-45,-58
-85,-78,7,81,-46,-35,-1,-54,48,57,-57,-54
-113,-117,-5,115,-54,-61,-37,-73,36,47,-80,-75
-103,-94,9,98,-56,-42,-13,-78,35,48,-87,-86
-56,-82,-26,70,-15,-54,10,-60,17,36,-79,-86
-35,-64,-29,50,-3,-47,-9,-58,41,34,-62,-74
-80,-32,48,56,-64,8,23,-62,79,77,-45,-48
-79,6,85,36,-82,45,27,-58,88,95,-44,-44
6,66,60,-37,-27,63,-14,-63,82,80,-45,-45
18,62,43,-40,-13,52,-48,-57,64,71,-45,-46
-21,9,30,6,-26,20,-68,-65,39,40,-42,-42
-71,-78,-7,75,-32,-43,-64,-91,15,15,-65,-64
-101,-139,-38,120,-31,-88,-74,-91,1,1,-84,-91
-122,-173,-51,147,-35,-112,-67,-103,-7,-7,-95,-95
-57,-158,-101,108,22,-129,-73,-111,-17,-17,-125,-110
-92,-181,-90,137,-1,-135,-68,-113,-33,-34,-136,-112
-164,-187,-23,176,-70,-105,-60,-83,-14,-14,-119,-106
-90,-163,-72,127,-9,-117,-28,-99,-18,-18,-132,-119
-73,-193,-119,133,23,-156,47,48,62,61,-102,-105
81,29,-52,-55,66,-11,-47,274,262,257,94,34
530,589,58,-560,236,323,-485,396,586,581,632,495
804,991,188,-898,308,590,-1060,190,518,512,1000,869
414,619,206,-517,104,412,-988,-517,-98,-103,495,524
22,65,43,-44,-11,55,-481,-572,-225,-231,-2,79
-49,-53,-3,51,-23,-28,-199,-227,-75,-85,-67,-27
-99,-126,-27,113,-36,-76,-31,-179,-66,-74,-119,-92
-66,-137,-72,102,3,-104,26,-80,-3,-11,-114,-110
-93,-126,-33,110,-29,-80,54,-60,2,-6,-114,-99
-125,-184,-59,155,-33,-121,67,-48,12,7,-106,-96
-83,-172,-89,128,3,-130,64,-34,24,15,-99,-86
-57,-147,-90,103,16,-118,77,-41,37,27,-111,-82
-74,-153,-79,114,2,-116,53,-22,30,40,-105,-84
-76,-149,-73,112,-1,-110,56,5,36,41,-93,-85
-89,-128,-38,109,-25,-83,96,34,80,69,-79,-80
-93,-119,-26,106,-33,-72,113,43,84,79,-76,-78
-51,-111,-60,81,5,-85,128,77,107,95,-66,-74
-40,-110,-70,75,15,-90,144,101,130,110,-62,-66
-43,-103,-60,73,9,-82,131,127,127,113,-53,-51
-56,-70,-15,63,-21,-42,151,188,177,166,-9,-44
-82,-53,29,67,-55,-11,172,214,209,196,-2,-34
-76,-72,4,74,-40,-34,169,226,203,191,-10,-27
-40,-7,33,23,-36,13,172,239,221,212,29,-1
-27,64,91,-19,-59,77,167,223,223,213,57,39
-6,37,43,-16,-24,40,147,204,215,205,51,36
9,39,30,-25,-10,34,116,179,210,200,32,17
-48,5,54,21,-51,29,99,152,206,196,13,-1
-41,-22,19,31,-30,-2,81,92,181,171,-13,-19
45,2,-43,-24,44,-20,47,44,140,134,-24,-28
-12,-60,-47,36,18,-53,29,21,113,112,-37,-40
-93,-123,-30,109,-31,-76,19,-20,98,97,-72,-50
-59,-99,-40,79,-9,-69,13,-39,94,90,-76,-63
-86,-111,-24,99,-30,-67,6,-56,87,82,-74,-71
-94,-123,-29,108,-32,-76,-1,-57,83,74,-76,-70
-55,-103,-48,79,-3,-76,-8,-53,77,69,-73,-68
-46,-103,-58,75,6,-80,-9,-75,74,71,-92,-65
-27,-90,-63,59,18,-76,1,-78,67,68,-90,-65
-86,-127,-41,107,-22,-84,-14,-67,69,74,-68,-62
-106,-131,-25,119,-40,-78,-11,-64,97,98,-63,-58
-80,-110,-30,95,-25,-70,-13,-55,96,96,-55,-57
-84,-113,-29,98,-27,-70,-40,-49,87,87,-50,-53
-57,-106,-49,82,-4,-77,-34,-76,86,84,-75,-68
-56,-126,-70,92,7,-98,-21,-93,79,76,-87,-77
-49,-94,-45,72,-2,-70,-12,-82,78,73,-77,-69
-93,-85,8,89,-50,-38,5,-80,73,66,-76,-70
-67,-102,-35,84,-16,-68,2,-75,69,60,-68,-60
-82,-111,-29,97,-27,-70,-15,-70,77,72,-68,-64
-92,-43,49,67,-71,3,-11,-74,100,99,-52,-44
57,32,-25,-44,41,3,-1,-75,128,131,-34,-29
-25,13,38,6,-32,26,1,-77,143,135,-28,-21
-51,50,100,0,-76,75,-8,-82,136,129,-1,18
17,17,0,-17,8,8,-53,-78,111,102,-7,-3
-18,-44,-25,31,4,-34,-63,-98,67,55,-44,-26
-58,-105,-47,82,-6,-76,-46,-107,50,45,-76,-44
-98,-148,-51,123,-23,-99,-45,-112,37,25,-82,-54
-67,-154,-88,111,11,-121,-41,-109,34,20,-86,-55
-57,-186,-129,121,36,-157,-52,-109,29,9,-105,-76
-85,-178,-93,131,4,-135,-34,-113,29,2,-100,-69
-48,-168,-119,108,36,-143,-60,-107,35,-3,-112,-84
-70,-191,-122,130,27,-156,-3,-101,17,-9,-132,-107
-81,-182,-101,132,10,-141,76,134,137,138,-53,-46
178,150,-28,-164,103,61,-92,322,402,397,227,178
606,779,172,-693,217,475,-636,379,701,694,790,660
714,961,247,-838,234,603,-1148,-11,387,385,919,854
292,453,161,-372,65,306,-871,-626,-215,-217,334,418
31,50,18,-41,6,34,-384,-451,-182,-183,-30,76
-50,-79,-30,65,-10,-54,-154,-186,-49,-53,-102,-4
-107,-137,-30,122,-38,-83,3,-122,-21,-25,-131,-44
-62,-151,-88,107,13,-119,31,-60,0,-6,-118,-51
-132,-184,-52,158,-39,-118,81,-77,9,4,-124,-61
-87,-134,-47,110,-20,-90,111,-47,56,51,-106,-47
-43,-117,-74,80,16,-95,100,-49,35,30,-104,-44
-45,-138,-93,92,24,-115,95,-7,45,44,-93,-44
-48,-131,-83,90,18,-107,85,14,64,59,-92,-25
-90,-109,-19,100,-35,-64,79,31,45,66,-97,-1
-54,-114,-59,84,3,-86,82,46,49,71,-99,-24
-55,-119,-64,87,5,-91,132,67,85,83,-83,-33
-54,-105,-52,80,-1,-78,146,108,111,111,-56,-18
-72,-110,-37,91,-17,-73,149,133,131,123,-40,-4
-57,-66,-9,62,-24,-37,182,180,157,153,-22,35
-19,-42,-23,30,2,-32,189,221,183,179,0,46
-24,-7,16,15,-20,5,189,254,207,203,36,68
-16,28,44,-6,-31,36,181,255,209,216,44,92
-1,41,43,-20,-22,42,169,240,217,215,52,89
34,50,16,-43,9,33,160,231,230,215,65,90
-13,42,55,-15,-34,48,146,220,235,214,68,90
5,81,76,-43,-36,78,136,208,228,218,80,97
13,53,40,-34,-13,46,124,160,190,188,57,85
5,20,15,-13,-5,17,91,91,144,144,21,49
53,17,-36,-35,44,-9,62,40,109,107,-9,15
-16,-33,-17,24,0,-24,52,-2,89,77,-38,6
-45,-86,-42,66,-1,-64,39,-29,74,64,-50,3
-19,-58,-39,39,11,-48,34,-22,63,58,-49,-2
-58,-47,11,52,-35,-17,31,-31,60,54,-53,-6
-86,-122,-36,104,-25,-79,27,-61,52,47,-58,-11
-54,-95,-41,74,-6,-68,24,-67,48,43,-54,-15
-20,-54,-34,38,7,-44,19,-68,42,37,-55,-24
-36,-71,-35,54,0,-52,15,-72,39,34,-51,-28
-59,-88,-29,73,-15,-58,-5,-77,38,36,-50,-38
-50,-80,-30,65,-10,-55,-8,-77,32,33,-49,-33
-50,-70,-19,60,-15,-44,22,-70,49,45,-46,-6
-30,-42,-12,36,-9,-26,30,-61,60,57,-44,2
-43,-29,15,36,-29,-7,5,-58,40,54,-43,-6
-60,-70,-10,65,-25,-40,-12,-46,38,55,-38,-8
-14,-56,-42,35,15,-49,8,-52,54,55,-41,-7
21,-33,-53,6,37,-43,0,-80,55,54,-60,-28
3,-45,-48,21,26,-46,-8,-80,55,56,-57,-37
-71,-63,9,67,-40,-27,7,-66,54,53,-43,-35
-42,-43,-1,42,-20,-22,13,-41,58,60,-36,-11
10,14,4,-12,3,9,45,-13,85,86,-22,25
-8,66,74,-30,-41,70,29,-17,92,88,-10,37
46,105,59,-76,-7,82,-7,-53,73,72,0,45
68,106,37,-87,15,71,-16,-52,69,69,9,52
47,49,2,-48,23,25,-39,-74,39,43,-19,35
24,-17,-41,-3,33,-29,-56,-89,2,8,-41,-4
-36,-83,-47,59,6,-65,-55,-97,-34,-30,-63,-37
-46,-128,-82,87,18,-105,-47,-118,-56,-45,-93,-46
-78,-158,-80,118,1,-118,-52,-102,-53,-49,-86,-50
-104,-183,-79,144,-12,-130,-40,-110,-65,-67,-103,-71
-83,-167,-83,125,0,-125,-45,-80,-55,-50,-101,-66
-120,-186,-66,153,-27,-126,5,-113,-60,-60,-113,-70
-19,-133,-114,76,48,-123,67,49,34,31,-70,-55
163,111,-52,-137,107,29,-41,275,267,263,160,126
513,652,139,-583,187,395,-507,373,599,594,690,586
725,962,237,-844,244,599,-1119,127,413,412,972,878
346,512,167,-429,89,339,-1008,-576,-240,-243,431,507
80,107,27,-94,26,67,-466,-536,-271,-271,15,120
12,11,-1,-12,6,5,-159,-191,-95,-98,-23,39
-56,-89,-33,73,-11,-61,-15,-148,-82,-89,-88,-28
-62,-135,-74,99,6,-104,15,-66,-44,-48,-87,-53
-88,-145,-58,117,-15,-101,51,-73,-60,-65,-103,-57
-95,-147,-52,121,-21,-99,88,-43,-40,-44,-90,-51
-104,-141,-37,123,-33,-89,82,-44,-39,-45,-88,-50
-59,-123,-64,91,3,-93,74,-19,-31,-36,-75,-45
-15,-96,-80,56,33,-88,106,4,-18,-24,-61,-47
-12,-74,-62,44,25,-68,135,-11,-6,-14,-84,-54
-47,-104,-56,76,5,-80,138,29,12,-1,-57,-32
-50,-90,-40,70,-5,-65,141,67,32,18,-45,-23
-58,-83,-25,71,-16,-54,140,94,41,49,-40,-15
-74,-110,-36,92,-18,-73,140,112,42,49,-28,-10
-32,-71,-39,51,4,-55,142,146,67,62,-26,-1
-6,-27,-22,17,8,-24,160,189,95,96,0,2
-35,11,46,12,-41,29,188,245,140,141,36,20
-50,43,93,3,-72,68,200,280,170,170,61,56
52,73,21,-63,15,47,191,274,164,164,64,44
48,76,29,-62,9,52,188,267,156,156,74,60
-44,72,116,-15,-80,94,174,262,148,148,82,93
5,97,92,-52,-44,95,146,225,140,140,65,77
-2,52,54,-25,-29,53,114,169,125,125,50,59
-53,10,63,21,-58,36,83,118,98,98,14,33
9,26,18,-18,-5,22,63,68,68,68,-4,7
33,20,-14,-26,23,3,42,25,30,30,-15,-11
-12,-29,-17,21,3,-23,26,-12,13,13,-41,-28
-63,-87,-24,75,-19,-55,24,-26,14,12,-34,-32
-68,-84,-17,76,-25,-50,21,-25,5,2,-48,-27
-45,-74,-29,60,-8,-51,18,-24,0,-4,-63,-24
-50,-73,-22,62,-14,-47,15,-33,-9,-14,-56,-21
-49,-74,-25,62,-11,-50,14,-41,-5,-9,-56,-15
-58,-75,-16,66,-20,-45,8,-40,-10,-11,-51,-18
-50,-73,-23,61,-13,-48,0,-38,-31,-30,-50,-25
-67,-78,-11,73,-28,-45,-5,-35,-27,-27,-47,-25
-82,-54,28,68,-55,-13,-13,-34,-21,-20,-42,-25
-55,-58,-3,57,-26,-30,-19,-41,-19,-19,-40,-25
-81,-68,13,74,-47,-27,-17,-51,-11,-11,-35,-26
-45,-55,-10,50,-17,-33,-14,-50,-14,-14,-32,-22
-23,-42,-19,33,-2,-31,-13,-50,-27,-27,-28,-21
-77,-31,47,54,-62,8,-9,-50,-24,-17,-26,-16
-23,-52,-29,38,3,-40,-11,-50,-28,-21,-41,-17
0,-60,-61,30,31,-60,-24,-47,-37,-39,-52,-26
-78,-27,50,52,-64,12,4,-28,-12,-12,-32,-9
-83,6,90,38,-87,48,35,-25,18,18,-4,16
-33,53,86,-10,-60,69,24,-25,36,32,13,34
12,103,91,-58,-39,96,-2,-25,36,30,19,38
16,105,90,-61,-37,97,-36,-26,31,26,12,33
25,55,30,-40,-2,43,-59,-26,6,9,6,33
5,-27,-32,11,19,-29,-69,-72,-54,-53,-36,17
-68,-77,-8,73,-30,-43,-74,-83,-73,-78,-64,0
-67,-116,-48,92,-9,-82,-54,-90,-88,-87,-75,-40
-65,-148,-83,106,9,-116,-46,-79,-96,-95,-87,-60
-79,-156,-76,118,-1,-116,-42,-91,-98,-100,-94,-59
-47,-116,-69,82,11,-92,-28,-81,-79,-80,-83,-54
-62,-102,-40,83,-11,-71,-43,-69,-86,-90,-85,-48
-89,-148,-59,118,-15,-103,13,-16,-63,-65,-94,-65
16,-64,-80,24,48,-72,13,224,95,93,26,15
369,380,11,-374,178,195,-280,384,402,396,418,341
747,948,201,-848,273,574,-887,361,558,550,953,825
554,765,211,-660,172,488,-1156,-271,-18,-24,717,719
158,253,95,-206,31,174,-702,-649,-372,-371,115,229
23,72,49,-48,-13,60,-260,-266,-160,-162,-5,68
-83,-65,18,74,-50,-23,-75,-140,-139,-145,-79,-27
-73,-116,-43,95,-15,-79,10,-78,-100,-104,-98,-68
-58,-134,-76,96,9,-105,57,-11,-55,-62,-69,-47
-83,-122,-39,103,-22,-81,92,5,-45,-54,-71,-40
-70,-136,-66,104,-2,-101,79,5,-56,-60,-76,-50
-54,-128,-74,91,10,-101,83,-10,-64,-68,-93,-63
-41,-83,-43,62,1,-63,75,39,-41,-50,-71,-50
-51,-97,-46,74,-3,-71,76,41,-47,-57,-69,-57
-58,-98,-41,78,-8,-69,72,49,-44,-55,-59,-55
-88,-119,-31,103,-28,-74,68,56,-43,-51,-50,-52
-10,-48,-38,29,14,-42,134,103,-13,-18,-45,-16
-20,-22,-3,21,-8,-12,182,166,33,29,-33,9
-88,-71,17,79,-52,-27,159,181,46,40,-27,-8
-29,-41,-13,35,-8,-27,159,206,48,41,-5,-9
-15,-6,9,10,-12,2,194,267,97,93,37,24
0,14,14,-7,-8,14,201,290,133,128,57,53
-20,24,44,-2,-33,34,194,277,129,124,45,48
-8,29,37,-11,-23,33,191,269,129,125,51,53
40,73,33,-57,3,53,186,262,137,132,81,80
-1,90,91,-45,-46,91,172,245,130,125,78,81
-26,47,73,-11,-50,60,138,205,118,109,66,70
-30,46,76,-8,-53,60,118,158,88,81,45,58
-60,7,67,26,-64,37,102,91,37,36,6,40
-27,-46,-19,37,-4,-32,82,44,19,17,-18,26
-32,-50,-18,41,-6,-33,72,34,15,7,-35,14
-80,-33,46,56,-62,6,67,10,-2,-4,-39,8
-52,-40,12,46,-32,-14,60,-31,-36,-31,-57,-24
-36,-82,-47,59,6,-64,53,-46,-45,-53,-62,-36
-49,-66,-17,57,-15,-41,45,-45,-30,-45,-36,-8
-103,-60,43,81,-73,-8,39,-45,-39,-44,-47,-13
-55,-63,-7,59,-24,-35,29,-45,-48,-40,-59,-34
-37,-54,-17,45,-10,-35,32,-59,-46,-34,-52,-35
-110,-57,53,83,-81,-2,46,-59,-36,-42,-44,-30
-74,-50,24,62,-49,-13,40,-53,-32,-52,-35,-29
-64,-47,17,55,-40,-14,36,-48,-22,-49,-31,-21
-74,-43,31,58,-52,-6,33,-42,-24,-46,-37,-14
-41,-35,6,38,-23,-14,25,-38,-48,-43,-45,-7
-25,-43,-18,34,-3,-30,20,-31,-50,-41,-45,-2
-34,-55,-21,44,-6,-38,11,-26,-53,-39,-47,3
-22,-29,-8,26,-7,-18,8,-28,-54,-34,-43,9
4,-47,-51,22,28,-49,-7,-48,-60,-55,-51,-16
-31,-89,-59,60,14,-73,-5,-46,-47,-57,-46,-29
-71,-50,21,60,-46,-14,42,-21,-11,-29,-17,10
-31,14,45,8,-38,29,69,-13,-8,-21,-8,23
2,49,47,-26,-23,48,63,2,0,-1,0,17
-26,32,58,-3,-42,45,35,12,4,14,9,34
-5,84,89,-40,-47,86,1,-1,11,5,19,40
115,132,18,-124,48,75,-35,-27,-23,-20,6,26
69,10,-59,-39,64,-24,-44,-72,-69,-60,-29,16
-92,-93,-1,93,-45,-46,-36,-79,-42,-53,-30,-1
-49,-114,-65,82,9,-90,-29,-86,-78,-77,-54,-28
-24,-94,-70,59,23,-82,-16,-88,-107,-106,-75,-43
-62,-109,-46,86,-8,-78,-18,-100,-120,-123,-94,-56
-61,-126,-65,94,2,-96,4,-106,-122,-123,-110,-62
-73,-115,-42,94,-15,-78,-31,-79,-108,-112,-99,-58
-79,-172,-93,125,7,-132,8,-79,-113,-117,-113,-62
-49,-116,-67,83,9,-91,98,153,30,26,-18,-5
187,218,31,-202,78,124,-50,382,301,299,287,235
697,802,106,-750,295,454,-631,405,527,524,809,703
763,922,159,-843,302,540,-1124,-70,162,160,855,828
241,387,146,-315,47,266,-818,-650,-333,-334,267,381
5,79,74,-42,-35,76,-357,-424,-244,-249,-18,84
-67,-27,40,47,-53,7,-133,-175,-156,-162,-63,14
-120,-128,-8,124,-56,-68,21,-105,-132,-136,-106,-49
-106,-116,-10,111,-48,-63,77,-9,-70,-72,-94,-53
-113,-129,-16,121,-48,-72,109,-28,-77,-84,-110,-57
-69,-142,-73,106,2,-107,100,-11,-89,-95,-101,-57
-85,-118,-33,102,-26,-76,97,-11,-92,-90,-99,-55
-43,-95,-52,69,5,-73,92,7,-74,-71,-93,-53
-21,-102,-80,62,30,-91,89,19,-71,-66,-84,-46
-92,-131,-39,112,-26,-85,79,24,-62,-61,-85,-48
-103,-98,4,100,-53,-47,115,73,-54,-54,-62,-29
-59,-43,17,50,-38,-13,163,111,-31,-31,-36,4
-33,-47,-13,40,-10,-30,142,122,-19,-19,-33,6
-56,-53,4,54,-30,-24,152,147,-7,-6,-21,4
-76,-29,48,52,-62,9,186,197,37,36,-6,11
-42,-6,37,24,-39,16,199,244,55,56,11,24
-26,-11,16,18,-21,2,192,261,61,63,27,35
-16,31,47,-8,-32,39,196,282,90,91,50,56
11,80,70,-46,-30,74,210,283,108,112,74,84
-8,53,61,-23,-35,57,200,247,95,102,70,81
31,89,58,-60,-14,73,184,229,91,90,64,74
68,113,45,-90,11,79,153,212,80,73,59,69
16,71,55,-44,-20,63,142,169,58,59,53,63
-9,52,61,-22,-35,56,123,106,36,35,31,50
-10,18,29,-4,-20,23,92,65,5,-4,3,32
-20,5,25,7,-23,15,87,39,-9,-9,-17,18
-29,-22,7,25,-18,-7,74,11,-33,-30,-33,0
-50,-67,-17,59,-16,-42,69,-12,-65,-62,-44,-13
-50,-79,-29,65,-10,-54,64,-41,-80,-74,-57,-25
-55,-87,-32,72,-11,-60,59,-40,-79,-75,-60,-23
-92,-83,10,88,-51,-36,56,-32,-68,-62,-54,-21
-84,-57,27,70,-56,-15,49,-20,-57,-54,-50,-7
-29,-37,-8,33,-10,-22,54,-27,-63,-60,-42,2
8,-25,-33,9,21,-29,54,-56,-80,-74,-35,-12
-42,-37,5,40,-24,-15,50,-53,-80,-76,-30,-9
-53,-29,24,41,-39,-2,50,-49,-80,-74,-21,2
14,0,-14,-7,14,-7,48,-47,-80,-76,-24,2
-13,-50,-37,31,12,-43,44,-40,-82,-74,-43,-2
-36,-70,-35,53,0,-52,46,-41,-86,-77,-46,-7
-35,-57,-21,46,-7,-39,48,-50,-84,-79,-41,-11
-16,-53,-37,35,11,-45,53,-57,-80,-72,-41,-16
-66,-53,13,60,-39,-20,56,-49,-80,-68,-34,-15
-95,-65,30,80,-62,-17,41,-45,-75,-60,-37,-12
43,6,-37,-24,40,-16,64,-39,-76,-57,-44,-3
2,16,14,-9,-7,15,93,-33,-68,-58,-35,6
-3,27,31,-12,-17,29,71,-31,-31,-32,-19,12
57,87,30,-72,13,58,37,-26,-12,-12,4,30
24,91,68,-58,-22,79,12,-26,-20,-17,18,37
59,78,19,-69,20,48,-9,-37,-50,-47,16,24
23,40,17,-32,2,28,-15,-72,-81,-84,-11,8
-32,-3,29,17,-30,13,16,-57,-77,-81,-31,-1
-120,-117,3,119,-61,-57,2,-65,-99,-99,-54,-31
-90,-150,-60,121,-15,-105,-26,-114,-146,-143,-100,-75
-8,-110,-102,59,48,-106,16,-114,-141,-138,-95,-62
-42,-102,-59,72,9,-80,14,-82,-121,-114,-61,-36
-40,-107,-67,73,14,-86,1,-93,-128,-119,-77,-47
-68,-166,-98,117,15,-131,60,-52,-88,-89,-97,-63
16,-71,-87,27,51,-79,71,200,47,49,19,1
331,337,5,-334,163,171,-170,399,332,339,400,326
797,893,96,-845,350,494,-803,369,481,487,917,799
720,869,149,-795,285,509,-1069,-227,21,30,759,754
162,293,131,-228,16,212,-630,-662,-340,-342,151,263
7,36,29,-22,-11,32,-265,-345,-217,-208,-36,41
-37,-17,20,27,-28,1,-52,-167,-156,-139,-71,-2
-90,-116,-26,103,-32,-71,68,-114,-124,-117,-82,-41
-57,-127,-70,93,7,-98,79,-79,-109,-102,-84,-56
-81,-97,-17,89,-32,-56,118,-84,-112,-104,-108,-80
-77,-109,-32,93,-22,-70,115,-61,-108,-93,-95,-78
-80,-148,-68,115,-6,-108,104,-60,-106,-95,-99,-77
-66,-138,-72,102,3,-104,101,-22,-89,-80,-85,-67
-72,-138,-66,105,-3,-102,86,-21,-80,-74,-82,-60
-85,-116,-31,101,-27,-73,113,0,-48,-51,-74,-55
-54,-67,-13,61,-20,-40,163,30,-32,-30,-57,-37
-72,-80,-8,76,-32,-44,164,58,-8,-10,-45,-26
-56,-62,-6,59,-25,-34,157,96,23,18,-34,-14
-9,-48,-39,29,15,-43,156,105,17,14,-25,-6
-2,-9,-7,6,3,-8,183,145,37,39,2,7
-16,33,50,-9,-33,41,222,214,88,94,45,43
-29,2,31,14,-30,16,215,227,96,101,57,52
3,54,50,-29,-24,52,204,233,107,110,55,49
-12,70,82,-29,-48,76,193,243,121,132,60,50
-30,44,74,-7,-52,59,196,228,113,129,60,50
-38,49,87,-6,-62,68,204,214,108,130,69,63
10,62,53,-36,-22,57,176,186,104,130,68,66
66,81,15,-73,25,48,150,128,90,102,40,43
-30,-6,24,18,-27,8,116,62,50,61,4,13
-24,-31,-7,28,-8,-19,90,20,23,37,-13,3
-9,-38,-29,24,10,-33,83,-8,14,23,-33,-12
-74,-88,-14,81,-30,-50,68,-23,1,15,-35,-28
-63,-78,-15,71,-24,-46,69,-37,-5,7,-37,-29
-37,-79,-42,59,2,-60,72,-61,-16,-6,-59,-37
-27,-41,-14,34,-6,-27,74,-65,-24,-17,-60,-41
-54,-30,23,42,-38,-3,82,-66,-20,-15,-56,-39
-24,-19,5,21,-15,-6,77,-70,-13,-8,-54,-37
-47,-37,10,42,-28,-13,65,-70,-9,-4,-51,-34
-67,-87,-21,77,-23,-54,55,-75,-3,3,-49,-36
-10,-41,-31,26,11,-36,47,-75,3,7,-45,-39
-40,-40,1,40,-20,-20,50,-77,2,13,-45,-40
-45,-61,-17,53,-14,-39,50,-80,1,13,-45,-40
-24,-51,-28,38,3,-39,50,-81,0,6,-45,-40
-3,-51,-49,28,23,-50,50,-77,-8,0,-45,-40
-3,-53,-50,28,23,-51,49,-75,-9,-4,-48,-42
-35,-32,3,33,-19,-14,61,-75,4,5,-50,-47
-62,-62,0,62,-30,-31,78,-72,14,14,-51,-50
-65,-59,6,62,-35,-27,74,-69,2,2,-55,-50
-28,-4,25,16,-27,10,75,-70,20,21,-50,-45
-31,9,40,10,-36,24,92,-76,65,63,-19,-18
10,81,72,-46,-31,76,57,-76,64,50,8,2
74,106,31,-90,21,68,29,-87,60,35,4,6
48,72,24,-60,12,47,18,-81,48,33,25,28
-4,9,13,-3,-8,11,9,-98,14,11,9,16
-30,-67,-37,49,4,-52,-5,-115,-25,-24,-45,-39
-31,-107,-76,70,22,-91,-25,-120,-54,-50,-75,-78
-53,-144,-91,99,20,-117,-17,-133,-41,-37,-95,-82
-60,-141,-80,101,10,-110,-17,-144,-61,-64,-102,-98
-42,-140,-97,91,28,-118,24,-134,-58,-59,-99,-109
-68,-126,-58,97,-5,-92,-4,-129,-62,-44,-100,-101
-74,-159,-85,117,6,-122,32,-108,-44,-45,-110,-111
18,-149,-167,66,93,-158,105,124,92,87,-29,-60
246,231,-15,-239,130,108,-110,315,349,356,291,206
627,831,204,-730,211,517,-665,365,627,626,883,729
636,920,284,-779,176,602,-1056,-147,239,242,889,812
193,390,197,-292,-2,293,-724,-700,-281,-280,226,296
13,36,23,-25,-5,29,-288,-434,-201,-199,-53,14
-38,-60,-22,50,-8,-41,-92,-218,-122,-117,-83,-53
-113,-159,-47,136,-33,-102,33,-160,-70,-82,-116,-93
-103,-177,-73,140,-15,-125,62,-103,-38,-55,-107,-85
-90,-153,-63,121,-13,-108,113,-100,-64,-62,-110,-115
-61,-122,-61,92,0,-91,140,-68,-47,-41,-93,-107
-102,-136,-34,119,-34,-84,139,-75,-48,-43,-92,-98
-63,-133,-70,98,4,-101,142,-43,-10,-5,-81,-92
-32,-96,-65,64,17,-80,144,-30,-6,8,-76,-83
-73,-100,-26,87,-23,-63,146,-13,-7,23,-71,-80
-79,-119,-41,100,-19,-80,146,-2,5,34,-63,-74
-86,-114,-28,100,-28,-71,150,15,9,31,-63,-71
-69,-100,-30,84,-20,-65,151,52,38,46,-69,-73
-62,-92,-30,77,-16,-61,163,79,57,58,-65,-74
-62,-66,-5,64,-28,-35,199,128,91,92,-37,-50
-13,-25,-13,19,0,-19,214,162,126,120,-10,-27
26,17,-9,-22,18,4,208,189,144,144,16,-10
-21,19,40,0,-31,29,202,202,151,162,35,-5
-34,29,62,2,-48,45,189,186,151,159,37,-3
1,52,52,-27,-26,52,178,183,166,160,44,0
9,52,43,-31,-18,48,167,167,156,161,44,4
-14,17,31,-2,-23,24,146,136,136,157,33,6
-28,-8,20,18,-24,6,136,103,126,134,26,-2
-33,3,36,15,-34,19,128,66,113,101,14,-5
-43,-42,1,42,-22,-20,90,19,75,74,-16,-33
-38,-77,-39,58,0,-57,77,-34,44,56,-54,-60
-64,-66,-2,65,-31,-34,87,-45,54,47,-63,-49
-42,-72,-30,57,-6,-51,61,-52,43,35,-62,-55
-13,-81,-68,48,28,-74,37,-97,16,25,-83,-85
-57,-102,-44,80,-6,-73,44,-105,16,26,-91,-84
-74,-123,-48,99,-12,-85,47,-94,18,22,-85,-72
-25,-66,-41,46,8,-53,59,-93,29,33,-81,-81
-22,-55,-33,39,6,-44,74,-88,48,54,-70,-77
-74,-94,-20,85,-27,-56,62,-91,42,47,-63,-74
-82,-56,26,69,-54,-15,53,-89,28,36,-54,-71
-104,-77,28,90,-66,-25,42,-91,26,32,-49,-66
-72,-84,-11,79,-30,-47,34,-89,30,34,-46,-64
-24,-69,-45,47,11,-57,28,-80,29,35,-42,-57
-23,-87,-64,56,20,-75,20,-76,24,34,-41,-54
-22,-71,-49,47,13,-59,13,-63,24,35,-30,-43
-54,-76,-22,65,-16,-49,5,-83,18,38,-54,-59
-52,-61,-8,57,-22,-34,35,-107,26,41,-71,-78
-48,-28,19,38,-33,-4,60,-84,39,49,-47,-60
-36,4,40,16,-38,21,63,-70,48,74,-33,-49
-16,47,62,-16,-40,54,59,-62,82,95,-25,-39
41,81,40,-61,0,60,10,-64,71,75,-25,-40
68,64,-4,-66,36,29,-29,-92,33,40,-23,-34
-3,-15,-12,9,5,-13,-25,-119,18,22,-39,-33
-23,-46,-23,35,1,-34,-10,-109,9,15,-48,-58
-53,-94,-42,74,-5,-68,-6,-105,-7,-1,-57,-65
-66,-153,-86,110,10,-119,11,-126,-24,-11,-88,-88
-48,-150,-102,99,27,-126,14,-121,-36,-24,-87,-91
-86,-188,-102,137,8,-144,23,-143,-55,-58,-107,-87
-121,-204,-83,163,-19,-143,20,-113,-37,-39,-86,-73
-128,-199,-71,164,-28,-135,14,-130,-48,-44,-100,-93
-46,-213,-166,130,60,-189,70,-6,15,18,-110,-117
101,-14,-115,-43,108,-64,9,227,221,222,86,33
456,580,123,-518,166,351,-378,330,576,580,608,469
727,1048,321,-887,202,684,-969,138,555,559,1029,875
387,680,293,-534,47,486,-943,-536,-105,-96,563,570
50,144,94,-97,-22,119,-432,-606,-302,-289,15,96
-31,-18,13,25,-22,-3,-154,-256,-132,-125,-66,-31
-98,-143,-45,120,-26,-93,2,-189,-107,-91,-113,-89
-129,-168,-39,149,-45,-103,69,-72,-32,-30,-100,-63
-86,-149,-63,118,-11,-106,126,-69,-40,-34,-109,-80
-16,-165,-148,91,66,-156,147,-80,-64,-19,-123,-112
-55,-160,-105,108,25,-132,134,-61,-48,-13,-112,-105
-38,-135,-97,86,30,-116,145,-46,-25,-8,-92,-90
-35,-125,-90,80,28,-108,136,-22,-2,8,-80,-75
-59,-132,-73,96,7,-103,144,-18,6,13,-88,-83
-31,-119,-88,76,28,-103,165,14,25,31,-82,-81
-22,-125,-103,74,40,-114,172,15,15,34,-87,-87
-40,-115,-75,77,17,-94,169,46,23,50,-81,-82
-26,-76,-49,51,12,-62,170,107,78,88,-66,-74
-29,-93,-64,61,17,-78,151,117,87,96,-55,-67
-73,-105,-32,89,-20,-68,158,152,98,109,-25,-43
-29,-23,6,26,-17,-9,185,202,137,140,10,-10
22,41,20,-32,1,30,193,225,154,155,34,14
23,23,0,-23,11,11,193,241,158,165,57,18
10,34,23,-22,-7,28,185,232,153,161,60,29
-3,69,73,-33,-38,71,184,205,147,151,52,35
27,49,22,-38,2,35,170,179,147,145,54,32
27,19,-8,-23,17,5,123,134,112,121,34,16
38,16,-22,-27,30,-3,85,84,73,80,-1,-17
55,4,-51,-29,53,-23,64,37,77,69,-23,-26
-17,-58,-41,38,12,-49,53,-16,49,64,-36,-34
-52,-81,-29,66,-11,-54,49,-44,26,41,-41,-46
-50,-78,-29,64,-10,-53,39,-34,25,27,-60,-54
-43,-54,-11,48,-16,-32,33,-26,10,16,-67,-57
-53,-63,-10,58,-21,-37,25,-52,0,5,-63,-52
-53,-88,-35,71,-9,-61,21,-78,-7,1,-66,-67
-39,-46,-7,43,-16,-26,15,-83,-15,-7,-64,-72
-44,-70,-26,58,-9,-48,19,-64,-17,-7,-65,-60
-38,-57,-19,47,-9,-38,42,-60,-1,10,-57,-56
-59,-68,-9,64,-25,-38,26,-81,-6,10,-53,-51
-42,-81,-39,62,-1,-60,6,-80,-21,5,-47,-47
-24,-47,-23,35,0,-35,19,-79,-28,4,-41,-43
-20,-54,-34,37,7,-44,19,-81,-32,-3,-37,-39
-42,-29,13,35,-28,-7,22,-79,-28,-2,-31,-41
-72,-71,1,71,-36,-35,14,-78,-35,-21,-42,-48
-43,-73,-30,58,-6,-52,15,-74,-34,-35,-53,-59
-45,-36,9,41,-27,-13,32,-72,-21,-17,-45,-50
-42,-26,16,34,-29,-5,14,-69,-3,-4,-46,-52
-19,63,82,-22,-51,73,38,-66,22,21,-32,-50
20,100,81,-60,-31,90,41,-64,42,54,16,2
85,126,41,-106,22,83,-8,-58,39,46,29,17
95,123,27,-109,34,75,-44,-78,-12,9,11,0
44,43,-1,-44,22,21,-54,-113,-40,-13,-7,-18
-16,-19,-3,18,-7,-10,-35,-98,-31,-21,-17,-32
-55,-120,-65,87,6,-92,-41,-121,-76,-69,-66,-71
-64,-184,-121,124,29,-152,-35,-122,-97,-88,-97,-101
-21,-128,-107,75,43,-118,-29,-116,-114,-98,-87,-91
5,-104,-109,50,57,-106,-16,-115,-119,-107,-95,-100
-21,-122,-101,72,40,-111,-26,-98,-114,-96,-80,-88
-55,-155,-100,105,22,-127,3,-116,-130,-113,-113,-121
-45,-145,-100,96,27,-122,73,110,22,29,-41,-77
170,200,30,-185,70,115,-72,305,310,323,275,180
628,819,190,-724,219,504,-636,337,595,597,814,645
726,978,252,-852,237,615,-1124,-85,235,241,901,805
261,435,173,-348,44,304,-819,-656,-350,-332,301,356
24,57,33,-41,-5,45,-327,-445,-273,-255,-17,29
0,-9,-9,5,4,-9,-81,-190,-150,-138,-66,-55
-119,-155,-35,137,-41,-95,42,-134,-128,-121,-105,-100
-90,-169,-79,130,-5,-124,54,-68,-112,-88,-95,-105
-44,-112,-67,78,12,-89,131,-79,-114,-96,-107,-112
-52,-120,-68,86,8,-93,154,-64,-90,-74,-90,-101
5,-103,-108,49,57,-105,142,-67,-95,-75,-92,-103
-20,-105,-85,62,33,-95,146,-47,-77,-60,-83,-96
-83,-130,-47,106,-18,-88,135,-33,-76,-55,-78,-94
-62,-126,-64,95,1,-95,137,-16,-60,-46,-71,-87
-74,-135,-61,105,-6,-98,151,22,-46,-35,-60,-78
-75,-120,-45,97,-15,-82,174,54,-34,-26,-55,-74
-21,-84,-63,53,21,-73,180,81,-19,-12,-41,-62
-40,-73,-33,57,-4,-53,194,124,-4,6,-23,-49
-63,-66,-4,65,-29,-35,202,154,29,31,-9,-35
-11,-43,-32,27,11,-37,199,186,54,55,-2,-28
22,5,-16,-13,19,-5,200,220,52,64,5,-21
-31,26,57,3,-44,41,208,244,73,89,29,-14
-5,38,43,-17,-24,40,215,255,105,118,65,3
54,45,-8,-49,31,18,192,233,100,113,65,13
-8,41,50,-17,-29,45,172,221,91,116,65,24
23,58,36,-41,-7,47,171,196,79,112,77,41
39,50,11,-45,14,30,142,142,55,74,47,19
-21,2,23,9,-22,13,104,92,28,28,17,-10
-35,-36,-2,36,-16,-19,83,35,0,-5,-5,-30
-16,-42,-26,30,5,-34,69,-25,-50,-36,-45,-54
16,-65,-81,25,48,-73,59,-27,-80,-36,-56,-45
-64,-107,-44,86,-10,-75,46,-22,-72,-38,-47,-54
-65,-78,-13,72,-26,-46,40,-63,-85,-70,-41,-76
15,-51,-65,18,40,-58,37,-70,-89,-74,-35,-70
-12,-67,-54,40,21,-60,33,-59,-81,-65,-25,-65
-16,-56,-40,37,13,-48,31,-55,-78,-60,-35,-60
-6,-48,-42,27,19,-45,23,-47,-71,-52,-46,-52
-42,-59,-16,51,-13,-37,36,-41,-66,-45,-45,-52
-65,-68,-3,67,-31,-35,38,-45,-71,-54,-45,-55
-23,-67,-45,45,11,-56,27,-65,-89,-75,-45,-60
-10,-89,-79,50,35,-84,30,-74,-103,-86,-57,-76
-47,-46,2,46,-24,-22,33,-72,-103,-88,-58,-78
-24,-11,13,17,-19,1,43,-67,-99,-81,-50,-70
6,-54,-60,24,33,-57,48,-58,-92,-74,-45,-65
-7,-58,-51,32,22,-54,41,-57,-92,-72,-41,-61
-40,-45,-5,43,-17,-25,53,-46,-79,-62,-33,-52
-40,-20,21,30,-30,1,53,-42,-71,-56,-25,-45
13,22,9,-18,1,15,47,-30,-54,-51,-17,-37
40,85,45,-63,-3,65,25,-23,-39,-56,-8,-27
36,85,50,-61,-7,67,-6,-53,-52,-59,-5,-20
64,53,-10,-58,37,21,-15,-60,-65,-57,8,-3
8,-24,-32,8,21,-28,-41,-85,-113,-96,-22,-34
-13,-66,-54,40,21,-60,-27,-72,-121,-99,-39,-51
2,-69,-71,33,37,-70,-33,-107,-162,-144,-80,-89
-64,-160,-96,112,17,-128,-53,-126,-191,-168,-107,-119
-82,-173,-91,128,5,-132,-11,-101,-163,-142,-79,-85
-106,-171,-64,139,-21,-117,-9,-101,-158,-145,-84,-93
-56,-162,-107,109,25,-134,-29,-105,-176,-157,-85,-99
-75,-187,-112,131,19,-150,27,-82,-171,-151,-111,-122
-16,-128,-113,73,49,-120,50,159,-12,6,-15,-59
301,279,-21,-290,161,129,-159,339,295,312,348,241
689,878,189,-784,250,533,-778,344,509,517,895,732
672,872,200,-772,236,536,-1147,-209,20,34,814,752
209,305,96,-257,56,200,-728,-682,-436,-421,185,253
7,62,55,-35,-24,58,-271,-353,-276,-255,-9,22
-58,-67,-9,62,-24,-38,-47,-175,-213,-196,-58,-61
-95,-148,-52,122,-21,-100,51,-115,-183,-158,-91,-98
-104,-140,-36,122,-34,-88,76,-50,-155,-121,-71,-87
-66,-167,-102,117,18,-134,102,-80,-156,-160,-105,-117
-30,-146,-117,88,44,-131,103,-37,-143,-130,-74,-86
-72,-150,-78,111,3,-113,112,-20,-146,-127,-72,-79
-66,-140,-74,103,4,-107,110,-6,-126,-123,-70,-81
-95,-133,-38,114,-29,-85,142,-5,-122,-114,-61,-79
-99,-131,-32,115,-33,-81,148,25,-114,-108,-58,-82
-64,-119,-55,92,-4,-87,147,64,-112,-97,-47,-78
-34,-120,-85,78,26,-103,152,60,-112,-93,-45,-82
-59,-106,-47,83,-6,-76,158,90,-95,-65,-35,-56
-47,-79,-32,63,-7,-55,179,135,-64,-29,-34,-37
10,-32,-42,11,26,-37,200,179,-31,-7,-8,-36
-24,-10,14,17,-19,2,219,220,-9,9,10,-24
-27,-33,-6,30,-10,-19,217,239,-15,9,12,-15
56,41,-15,-48,36,13,213,258,8,26,46,-6
53,68,15,-60,19,41,205,261,35,46,60,1
7,31,24,-19,-8,27,203,275,47,52,72,28
37,62,25,-50,6,43,192,249,28,46,73,42
61,57,-4,-59,33,26,177,199,-2,26,62,31
17,25,8,-22,4,16,156,147,-2,8,60,24
-22,-13,9,18,-16,-2,97,82,-59,-42,6,-18
-22,-22,0,22,-11,-11,69,46,-95,-73,-31,-59
-29,-46,-16,38,-6,-31,64,8,-101,-79,-31,-66
-34,-80,-46,57,6,-63,48,-22,-134,-112,-43,-65
-29,-63,-33,46,2,-48,42,-36,-141,-122,-46,-72
-30,-72,-42,52,6,-57,39,-33,-139,-122,-52,-67
-44,-70,-26,57,-9,-48,40,-41,-134,-127,-52,-64
-35,-29,6,32,-20,-12,35,-61,-129,-128,-48,-68
-30,-36,-6,33,-12,-21,35,-60,-120,-132,-47,-41
4,-40,-44,18,24,-42,35,-60,-131,-135,-42,-50
12,-52,-64,21,38,-58,35,-58,-154,-133,-41,-76
-38,-86,-48,62,5,-67,35,-53,-147,-128,-37,-70
-20,-82,-62,52,21,-72,35,-51,-146,-125,-44,-69
-34,-88,-53,61,10,-70,35,-46,-142,-122,-56,-65
-46,-79,-32,63,-7,-55,36,-43,-141,-117,-60,-62
-34,-74,-40,54,4,-57,34,-40,-137,-115,-61,-61
-4,-63,-59,34,28,-61,39,-44,-130,-129,-60,-55
-28,-56,-28,42,0,-42,57,-57,-148,-143,-58,-63
-50,-49,1,49,-26,-23,58,-52,-145,-132,-47,-63
38,-4,-42,-17,40,-23,47,-46,-138,-118,-38,-56
13,11,-2,-12,7,5,41,-51,-123,-98,-23,-54
18,78,59,-48,-21,68,30,-48,-111,-82,-3,-26
103,107,3,-105,50,55,14,-53,-120,-88,3,-9
109,85,-23,-97,66,31,-18,-46,-117,-96,12,-12
66,37,-29,-51,48,4,-31,-68,-153,-135,-15,-38
11,-56,-68,23,40,-62,-28,-84,-175,-155,-48,-73
-56,-99,-43,78,-6,-71,-24,-89,-178,-162,-55,-79
-32,-127,-95,80,32,-111,-16,-98,-203,-190,-78,-100
-71,-139,-67,105,-2,-103,-18,-105,-210,-200,-86,-109
-77,-135,-58,106,-9,-96,-3,-107,-201,-191,-80,-101
32,-89,-120,29,76,-104,-35,-91,-211,-195,-95,-111
-92,-159,-67,126,-12,-113,-3,-99,-222,-199,-122,-143
-25,-177,-152,101,64,-164,61,102,-116,-93,-61,-102
203,152,-51,-178,127,51,-54,328,143,162,219,126
633,748,115,-691,258,432,-562,409,458,478,780,619
801,962,161,-882,320,562,-1094,-30,143,167,893,809
283,449,166,-367,58,307,-851,-672,-428,-402,304,351
62,96,33,-79,14,64,-365,-470,-363,-338,-17,26
2,-6,-9,2,5,-7,-136,-189,-244,-219,-69,-65
-51,-121,-70,86,10,-95,-7,-132,-221,-196,-105,-117
-59,-122,-63,91,2,-92,48,-43,-185,-164,-77,-95
-79,-132,-53,106,-13,-92,71,-48,-197,-179,-85,-104
-46,-147,-101,97,28,-124,66,-11,-171,-159,-69,-93
-73,-137,-65,105,-4,-101,89,-9,-164,-161,-67,-92
-35,-116,-81,76,23,-98,96,-3,-150,-149,-69,-89
-46,-114,-68,80,11,-91,110,4,-147,-144,-73,-83
-70,-106,-36,89,-17,-71,119,25,-139,-131,-67,-82
-46,-98,-53,72,4,-76,111,47,-132,-115,-56,-76
12,-86,-98,37,55,-92,118,63,-123,-105,-51,-74
21,-79,-100,29,61,-89,128,103,-103,-88,-41,-69
-19,-66,-47,42,15,-56,156,142,-81,-60,-34,-67
-27,-66,-39,47,7,-53,184,188,-59,-34,-20,-61
-34,-40,-6,38,-14,-23,178,218,-53,-30,-2,-57
55,57,2,-56,26,29,181,242,-43,-23,-2,-53
61,23,-39,-42,50,-8,199,268,-18,2,15,-21
4,-3,-7,0,5,-5,190,266,5,22,45,6
42,71,30,-57,6,50,181,256,3,27,54,8
37,68,32,-53,2,50,176,232,-24,13,45,2
39,62,24,-51,7,43,163,189,-31,4,40,-7
39,57,19,-48,10,38,136,141,-35,-13,29,-10
18,24,6,-22,6,15,111,93,-65,-48,-6,-24
-11,-3,9,7,-10,3,94,60,-88,-59,-13,-44
-11,-25,-14,18,2,-19,83,30,-111,-87,-28,-54
16,-36,-51,10,34,-43,77,7,-117,-99,-40,-58
-42,-88,-46,65,2,-66,69,-27,-144,-121,-68,-88
-44,-85,-41,64,-1,-62,64,-47,-173,-151,-85,-102
-4,-39,-35,22,16,-37,59,-36,-152,-130,-56,-77
-2,-62,-59,32,29,-60,52,-33,-144,-128,-63,-81
-5,-63,-58,35,26,-60,48,-21,-134,-131,-65,-79
-3,-57,-54,30,26,-55,42,-33,-148,-136,-66,-81
28,-51,-79,12,53,-64,38,-59,-169,-144,-73,-93
15,-57,-72,21,43,-64,35,-42,-152,-130,-57,-81
2,-55,-57,27,29,-56,31,-32,-142,-123,-47,-70
25,-30,-55,3,40,-42,28,-30,-138,-124,-44,-65
1,-31,-32,15,16,-31,23,-30,-150,-133,-50,-65
-30,-61,-31,45,1,-46,23,-36,-162,-141,-63,-77
28,-60,-88,17,58,-74,13,-40,-154,-140,-66,-81
44,-40,-84,-2,64,-61,23,-45,-153,-137,-65,-80
-15,-61,-46,38,16,-53,40,-37,-143,-128,-65,-80
-7,-31,-24,19,9,-27,51,-30,-116,-116,-46,-64
26,13,-14,-19,20,0,65,-29,-107,-101,-18,-43
84,66,-18,-75,51,24,27,-31,-112,-88,-7,-39
85,84,-1,-85,42,42,-4,-29,-106,-77,1,-38
43,35,-8,-39,25,13,-26,-36,-130,-109,-3,-32
70,21,-48,-45,59,-13,-32,-60,-169,-150,-39,-50
24,-24,-48,0,36,-36,-6,-57,-169,-147,-58,-66
-12,-91,-79,52,34,-85,-17,-83,-210,-188,-99,-107
-36,-127,-91,81,28,-109,-31,-88,-236,-210,-121,-133
-44,-128,-84,87,20,-106,-29,-92,-242,-217,-120,-129
-15,-142,-126,79,56,-134,-18,-85,-233,-209,-122,-132
-50,-159,-109,104,30,-134,-30,-83,-225,-204,-115,-126
-35,-161,-126,99,46,-144,17,-64,-219,-203,-136,-143
15,-106,-120,46,68,-113,73,182,-70,-50,-33,-71
301,268,-33,-284,167,117,-144,379,232,251,337,230
824,884,61,-854,381,472,-749,356,427,446,870,720
728,874,145,-801,292,509,-1062,-220,-19,3,758,727
180,287,107,-234,36,197,-669,-676,-434,-410,144,218
30,51,22,-41,4,36,-276,-358,-308,-280,-56,-15
-5,-47,-42,26,19,-45,-64,-158,-239,-210,-89,-79
-51,-144,-93,98,21,-118,46,-100,-214,-185,-108,-121
-39,-117,-79,78,20,-98,58,-52,-202,-175,-104,-106
-68,-132,-64,100,-1,-98,106,-43,-202,-178,-106,-108
-28,-149,-121,88,47,-135,95,-25,-173,-154,-98,-95
-8,-135,-127,72,60,-131,94,-25,-142,-170,-102,-92
-32,-99,-67,66,18,-83,135,28,-111,-107,-88,-84
89,50,-39,-69,64,5,139,34,-111,-138,-84,-79
