I,II,III,aVR,aVL,aVF,V1,V2,V3,V4,V5,V6
-145,-195,-50,170,-47,-122,145,-43,-60,70,-119,-84
-129,-194,-65,162,-32,-129,144,-57,-57,70,-114,-79
-106,-188,-82,147,-12,-135,138,-54,-51,69,-107,-74
-112,-185,-72,149,-20,-128,135,-51,-46,71,-101,-68
-110,-180,-69,145,-20,-124,130,-48,-40,73,-94,-62
-113,-176,-62,145,-25,-119,125,-45,-35,83,-88,-57
-113,-170,-57,142,-27,-113,121,-45,-30,92,-82,-48
-106,-162,-56,134,-25,-109,115,-45,-26,88,-74,-37
-76,-154,-77,115,1,-115,110,-45,-24,106,-66,-28
-59,-146,-87,103,14,-116,104,-45,-19,120,-58,-17
-55,-138,-84,97,15,-111,98,-45,-16,126,-48,-12
-41,-127,-86,84,23,-106,94,-45,-11,144,-34,2
-32,-114,-83,73,26,-98,85,-41,3,163,-9,24
-2,-105,-103,54,50,-104,75,-35,18,183,31,44
25,-94,-120,35,73,-107,65,-30,33,214,60,83
79,-70,-148,-4,114,-109,55,-25,52,254,88,120
132,-42,-174,-45,153,-107,38,-17,69,288,128,158
176,3,-173,-89,174,-85,17,-19,89,316,170,203
194,19,-175,-106,184,-78,-2,-30,99,340,197,230
194,15,-179,-104,186,-82,-16,-31,104,366,220,261
211,35,-176,-123,193,-70,-22,-29,107,376,240,284
206,36,-169,-121,187,-66,-34,-33,94,375,236,282
193,43,-150,-118,171,-53,-25,-40,83,369,230,275
166,54,-111,-109,138,-28,-2,-40,72,340,202,247
111,18,-93,-65,102,-37,16,-44,56,299,150,192
36,-48,-84,6,60,-66,50,-45,44,254,94,129
-7,-74,-66,41,30,-70,72,-47,20,215,37,72
-34,-91,-57,63,12,-74,85,-50,-7,176,-5,32
-47,-100,-54,74,4,-77,97,-50,-21,148,-42,0
-53,-109,-56,82,1,-82,99,-55,-32,144,-59,-23
-77,-143,-66,110,-5,-104,111,-55,-31,142,-54,-26
-74,-139,-65,107,-5,-102,114,-55,-24,139,-56,-25
-82,-132,-51,107,-15,-91,107,-55,-21,136,-68,-24
-80,-126,-46,104,-17,-86,104,-55,-17,134,-71,-20
-75,-119,-44,97,-16,-81,99,-53,-10,143,-70,-21
-78,-117,-39,97,-19,-77,94,-48,-20,150,-67,-17
-60,-109,-49,85,-6,-78,101,-45,-32,150,-64,-15
-68,-124,-55,96,-6,-89,111,-42,-29,150,-65,-15
-89,-137,-48,113,-20,-92,109,-37,-30,148,-60,-15
-90,-134,-44,113,-22,-89,113,-34,-30,144,-60,-15
-91,-133,-41,112,-25,-87,116,-49,-30,142,-59,-15
-98,-130,-32,114,-33,-81,114,-56,-30,138,-63,-17
-81,-128,-47,105,-17,-88,115,-55,-30,136,-77,-22
-89,-148,-59,118,-14,-104,114,-55,-30,134,-73,-30
-134,-163,-29,149,-52,-96,116,-56,-32,130,-80,-37
-142,-158,-16,150,-63,-87,114,-64,-36,130,-95,-45
-112,-159,-48,136,-32,-103,116,-58,-33,128,-90,-43
-86,-152,-66,120,-9,-109,112,-48,-29,126,-85,-39
-92,-158,-66,126,-13,-112,118,-42,-27,122,-80,-37
-79,-137,-57,108,-11,-97,135,-33,-21,133,-74,-30
-69,-90,-21,80,-24,-55,135,-24,-10,149,-69,-34
-86,-77,9,82,-48,-34,141,-8,15,156,-60,-29
-67,-32,35,49,-51,2,101,-19,29,166,-50,-7
-52,9,61,21,-57,35,52,-60,-1,163,-39,2
-37,18,55,9,-46,36,55,-72,-29,158,-39,12
-12,3,15,4,-14,9,56,-64,-32,158,-41,24
-23,-73,-50,48,14,-61,54,-63,-37,147,-50,3
-54,-145,-91,100,19,-118,78,-56,-50,128,-73,-31
-71,-160,-89,116,9,-125,116,-43,-56,112,-93,-55
-84,-169,-85,127,1,-127,131,-36,-55,110,-104,-65
-135,-219,-85,177,-25,-152,141,-33,-53,104,-130,-89
-140,-219,-78,179,-31,-148,141,-32,-53,96,-139,-88
-132,-214,-82,173,-25,-147,138,-25,-42,95,-140,-90
-136,-215,-79,176,-28,-147,142,-27,-58,82,-143,-102
-120,-200,-80,161,-20,-140,136,-20,-63,92,-133,-113
-150,-219,-69,185,-40,-143,147,-14,-48,75,-153,-125
-141,-197,-56,170,-42,-127,185,47,25,138,-98,-80
-15,-105,-90,61,38,-97,202,202,281,428,153,114
605,309,-296,-457,451,7,20,368,698,1131,999,961
1006,541,-467,-774,737,37,-201,228,594,1246,1247,1225
413,235,-177,-324,295,29,-191,-237,-288,43,67,218
-64,-37,27,51,-45,-5,13,-186,-522,-478,-529,-306
-136,-210,-74,173,-30,-142,169,48,-155,-120,-331,-250
-135,-217,-82,176,-26,-150,141,-49,-108,-6,-215,-173
-107,-186,-79,147,-14,-132,137,-30,-51,88,-129,-104
-133,-209,-75,172,-29,-142,144,-16,-24,91,-135,-107
-125,-194,-69,160,-28,-131,136,-14,-24,93,-118,-87
-134,-200,-66,168,-34,-133,144,-2,-10,112,-113,-89
-120,-193,-73,157,-23,-133,135,-8,-14,113,-107,-78
-117,-195,-79,156,-18,-137,135,5,1,124,-96,-72
-111,-179,-68,146,-21,-123,129,1,-2,126,-93,-72
-96,-158,-62,127,-17,-110,127,7,10,141,-80,-68
-93,-164,-71,129,-11,-117,122,4,11,137,-76,-66
-64,-166,-101,115,18,-133,119,6,18,146,-66,-58
-39,-139,-99,89,30,-119,115,5,24,146,-58,-57
-35,-131,-96,84,30,-113,107,5,28,157,-47,-44
-50,-144,-94,97,22,-119,101,5,34,177,-34,-22
-40,-129,-89,85,25,-109,94,5,36,181,-20,-10
-12,-104,-91,58,40,-97,88,11,45,200,-4,7
1,-98,-99,49,50,-98,82,16,57,224,21,36
26,-90,-115,32,71,-102,62,21,72,251,55,65
58,-62,-121,2,90,-91,45,27,93,285,90,98
104,-32,-136,-36,120,-84,29,33,113,326,135,144
150,4,-146,-77,148,-71,3,33,130,363,177,183
183,35,-148,-109,165,-57,-15,27,144,388,210,224
213,48,-165,-130,189,-58,-33,23,144,409,240,255
230,53,-178,-141,204,-62,-40,19,140,417,253,267
237,62,-174,-149,205,-56,-41,14,137,411,246,275
203,58,-145,-130,174,-43,-44,9,132,397,233,261
162,52,-109,-107,135,-28,-30,6,130,389,224,241
116,37,-80,-76,98,-21,5,3,113,348,184,195
66,3,-64,-34,65,-30,29,1,84,294,125,126
26,-35,-61,5,43,-48,46,-3,55,253,71,72
-20,-77,-56,49,18,-66,76,-5,34,205,17,23
-40,-92,-52,66,7,-72,81,-7,23,170,-21,-16
-63,-106,-43,85,-10,-74,85,-11,17,149,-40,-33
-85,-117,-32,102,-26,-74,93,-10,12,144,-45,-36
-86,-111,-25,99,-30,-68,86,-14,9,145,-45,-34
-85,-110,-25,98,-30,-67,86,-15,3,145,-45,-36
-81,-106,-25,94,-28,-65,81,-15,1,145,-57,-40
-80,-105,-25,93,-27,-65,79,-20,4,145,-60,-40
-77,-102,-25,90,-26,-63,84,-20,7,150,-54,-40
-74,-99,-25,87,-24,-62,85,-20,9,148,-53,-37
-71,-96,-25,84,-23,-60,85,-20,13,143,-47,-34
-68,-93,-25,81,-21,-59,85,-20,15,140,-45,-36
-65,-90,-25,78,-20,-57,86,-20,13,136,-50,-34
-66,-91,-25,79,-21,-57,83,-20,7,132,-53,-36
-79,-105,-25,92,-27,-65,80,-20,3,129,-58,-33
-89,-108,-19,99,-35,-63,80,-21,-2,124,-64,-42
-99,-116,-17,108,-41,-66,77,-20,-6,118,-70,-56
-113,-121,-9,117,-52,-65,75,-20,-10,114,-69,-55
-100,-119,-19,109,-41,-69,75,-20,-15,108,-71,-55
-91,-133,-41,112,-25,-87,79,-20,-14,102,-75,-55
-96,-132,-36,114,-29,-84,80,-21,-17,102,-75,-55
-92,-123,-31,108,-30,-77,81,-16,-19,106,-75,-53
-92,-118,-26,105,-33,-72,85,-12,-21,104,-70,-47
-90,-110,-20,100,-35,-65,89,-7,-16,105,-71,-44
-92,-106,-14,99,-39,-60,96,-3,1,111,-69,-39
-76,-84,-8,80,-33,-46,103,2,17,124,-55,-35
-67,-47,20,56,-44,-13,116,13,40,144,-41,-28
-69,0,69,34,-69,34,82,-19,39,151,-31,-17
-52,32,84,10,-68,58,35,-56,23,152,-29,-8
-30,34,64,-2,-47,48,35,-54,12,156,-31,2
-12,13,26,-1,-19,19,35,-47,1,148,-29,10
-16,-46,-31,31,8,-39,35,-41,-12,127,-34,-8
-37,-107,-70,72,17,-89,48,-34,-36,107,-58,-34
-92,-138,-45,115,-23,-91,82,-27,-47,90,-74,-51
-109,-143,-34,127,-37,-89,106,-25,-44,84,-76,-67
-118,-153,-35,136,-42,-93,112,-24,-45,71,-108,-97
-129,-170,-41,150,-44,-105,109,-27,-46,54,-115,-98
-131,-206,-75,169,-28,-141,108,-23,-42,50,-114,-101
-133,-201,-67,167,-33,-134,104,-28,-45,39,-121,-101
-134,-194,-61,164,-36,-127,104,-24,-29,53,-114,-94
-144,-195,-51,170,-47,-123,119,-12,-33,36,-131,-115
-96,-136,-39,116,-28,-87,151,49,50,98,-71,-85
28,-41,-69,7,49,-55,176,226,333,424,208,142
701,393,-308,-547,505,42,-9,402,737,1110,1024,951
1094,614,-480,-854,787,66,-263,174,535,1113,1175,1140
425,224,-201,-324,312,12,-259,-332,-406,-120,7,151
-22,-62,-41,43,10,-51,-48,-296,-584,-578,-528,-322
-90,-168,-78,129,-5,-123,86,-84,-218,-213,-310,-248
-132,-189,-57,161,-37,-123,85,-83,-115,-95,-204,-180
-101,-170,-69,136,-16,-120,107,-15,-27,0,-125,-123
-111,-174,-63,143,-24,-118,112,-8,-34,-15,-117,-130
-96,-159,-63,128,-16,-111,107,-2,-17,-6,-102,-106
-111,-158,-47,135,-32,-103,108,2,-8,2,-96,-109
-95,-158,-63,127,-16,-110,101,2,-8,-1,-88,-101
-78,-155,-78,117,0,-116,102,6,7,13,-79,-97
-83,-145,-62,114,-10,-104,98,-6,5,5,-76,-94
-76,-138,-62,108,-7,-100,93,2,19,14,-66,-87
-80,-130,-50,105,-15,-90,87,-1,16,7,-62,-82
-78,-125,-47,102,-15,-86,83,2,24,12,-52,-71
-71,-120,-48,96,-11,-84,76,5,23,8,-45,-64
-66,-118,-51,92,-7,-84,71,4,30,19,-36,-53
-59,-108,-49,84,-5,-78,65,8,39,24,-23,-41
-37,-89,-52,63,8,-70,55,17,42,30,-3,-30
-15,-86,-71,51,29,-78,45,21,61,53,17,-13
8,-69,-77,31,43,-73,35,23,68,57,41,12
36,-46,-81,5,59,-63,19,26,77,79,68,37
74,-17,-90,-28,82,-53,4,29,98,111,103,73
111,11,-100,-61,105,-44,-18,34,116,139,141,109
146,29,-117,-88,131,-43,-36,33,136,181,184,153
194,58,-136,-126,164,-39,-54,29,159,207,226,193
209,66,-143,-137,176,-38,-77,30,164,226,250,216
219,86,-132,-152,175,-23,-83,26,158,233,265,240
230,108,-122,-168,176,-7,-88,25,155,223,264,238
211,97,-113,-154,162,-8,-81,25,149,217,260,228
174,86,-87,-130,130,-1,-67,18,147,192,238,211
126,69,-58,-97,92,5,-46,11,131,146,192,163
77,41,-37,-59,57,2,-17,4,98,88,142,110
24,-1,-24,-11,24,-12,-5,-4,64,33,84,58
-12,-32,-20,22,4,-26,8,-11,37,-10,32,10
-40,-55,-15,48,-12,-35,26,-18,21,-46,2,-17
-60,-71,-11,66,-24,-41,31,-21,5,-67,-18,-34
-65,-71,-6,68,-29,-38,30,-20,-1,-82,-26,-45
-67,-72,-5,70,-31,-38,30,-21,1,-90,-24,-45
-63,-68,-5,66,-29,-36,25,-24,-3,-96,-28,-45
-60,-65,-5,63,-27,-35,25,-25,-5,-101,-31,-45
-58,-63,-5,61,-26,-34,25,-25,-5,-100,-29,-45
-54,-59,-5,57,-25,-31,25,-25,-8,-105,-30,-45
-58,-63,-5,61,-26,-34,26,-24,-11,-105,-30,-45
-75,-70,5,72,-40,-32,22,-28,-14,-108,-30,-45
-83,-70,13,77,-48,-29,20,-35,-15,-116,-34,-45
-76,-67,8,71,-42,-29,20,-35,-15,-114,-34,-44
-70,-65,5,67,-37,-30,20,-35,-15,-123,-39,-51
-66,-64,2,65,-34,-31,20,-35,-15,-135,-50,-61
-70,-73,-3,71,-33,-38,20,-35,-20,-139,-50,-63
-71,-76,-5,74,-32,-40,20,-35,-26,-145,-49,-71
-70,-75,-5,73,-32,-40,20,-30,-29,-149,-53,-75
-70,-76,-6,73,-31,-41,20,-30,-34,-161,-59,-74
-72,-74,-2,73,-35,-37,20,-30,-36,-168,-61,-80
-74,-83,-9,79,-32,-46,21,-30,-34,-169,-59,-88
-76,-85,-9,81,-33,-47,17,-30,-37,-178,-65,-94
-72,-86,-13,79,-29,-49,15,-30,-39,-184,-75,-95
-58,-83,-25,70,-16,-54,15,-30,-42,-187,-75,-96
-68,-85,-16,77,-26,-50,12,-30,-46,-194,-74,-100
-88,-100,-13,94,-37,-56,9,-30,-45,-199,-76,-100
-94,-100,-6,97,-44,-53,11,-31,-45,-202,-74,-104
-98,-98,-1,98,-48,-49,15,-29,-40,-200,-76,-106
-86,-95,-8,91,-38,-51,20,-27,-40,-196,-74,-101
-90,-95,-5,93,-42,-50,23,-22,-38,-194,-78,-94
-93,-90,3,91,-48,-43,27,-23,-28,-191,-78,-88
-72,-63,8,67,-40,-27,36,-12,-15,-190,-58,-81
-63,-33,30,48,-46,-1,41,5,-3,-185,-47,-74
-56,-2,54,28,-55,26,49,20,13,-177,-41,-65
-59,13,72,22,-65,42,5,-1,20,-171,-34,-55
-63,27,90,18,-76,58,-54,-70,-15,-164,-27,-44
-37,51,88,-7,-62,69,-50,-72,-39,-157,-25,-41
0,48,48,-24,-24,47,-40,-52,-33,-158,-24,-38
-9,2,11,3,-10,7,-34,-49,-37,-179,-27,-44
-53,-54,-1,54,-26,-27,-18,-38,-56,-208,-47,-67
-70,-86,-16,78,-27,-51,14,-31,-67,-225,-73,-99
-80,-100,-19,90,-30,-59,35,-27,-65,-236,-88,-107
-104,-129,-24,117,-39,-76,40,-29,-64,-247,-103,-126
-110,-134,-24,123,-43,-79,39,-31,-67,-259,-110,-138
-105,-134,-29,120,-38,-81,43,-30,-70,-261,-109,-141
-97,-138,-40,118,-28,-89,52,-37,-74,-269,-113,-142
-97,-130,-32,114,-32,-81,44,-35,-54,-251,-104,-135
-113,-144,-31,129,-40,-87,50,-17,-57,-260,-120,-150
-89,-98,-9,94,-40,-53,86,39,5,-209,-77,-122
12,-9,-21,-2,16,-15,131,214,280,88,161,55
639,381,-258,-509,448,61,-25,410,697,761,944,819
1160,678,-481,-919,820,98,-324,192,539,870,1218,1143
588,301,-287,-445,437,7,-360,-341,-401,-315,104,210
18,-42,-59,12,39,-50,-139,-328,-642,-875,-527,-349
-87,-122,-35,105,-26,-78,-12,-99,-273,-512,-321,-279
-134,-147,-12,141,-61,-79,10,-89,-153,-372,-202,-216
-116,-127,-11,122,-52,-69,51,-17,-46,-263,-117,-153
-119,-133,-14,126,-52,-74,47,-15,-41,-249,-113,-160
-96,-122,-26,110,-35,-74,52,-5,-33,-244,-100,-147
-96,-121,-26,109,-35,-73,56,6,-20,-225,-93,-144
-96,-115,-19,106,-38,-67,45,0,-23,-228,-90,-139
-92,-111,-18,102,-37,-64,46,4,-6,-209,-78,-129
-94,-107,-14,101,-40,-60,37,-8,-9,-210,-77,-126
-93,-101,-8,97,-42,-54,36,-6,3,-196,-66,-116
-95,-97,-2,97,-47,-49,43,-10,3,-192,-66,-113
-76,-88,-12,82,-32,-50,46,-2,10,-181,-56,-104
-67,-84,-17,76,-25,-50,43,-1,14,-173,-53,-98
-49,-74,-25,62,-12,-50,39,3,18,-164,-46,-91
-43,-72,-29,57,-7,-50,37,8,24,-151,-32,-84
-32,-63,-31,47,0,-47,31,9,24,-139,-18,-76
3,-25,-28,11,16,-26,17,18,34,-115,1,-59
34,0,-33,-17,33,-16,3,24,53,-89,25,-36
59,11,-48,-35,53,-18,-11,29,68,-67,53,-11
75,22,-53,-48,64,-15,-25,35,85,-37,90,20
129,49,-80,-88,104,-15,-43,40,104,-5,128,61
175,81,-94,-128,134,-6,-64,42,119,35,167,99
194,100,-93,-147,143,3,-82,37,135,73,205,136
228,126,-102,-177,165,12,-94,34,145,95,231,168
245,145,-99,-195,171,23,-101,31,145,111,251,187
253,154,-100,-203,176,27,-110,26,137,105,251,190
253,151,-102,-202,177,24,-104,24,131,96,244,191
218,145,-73,-182,145,36,-98,16,125,93,237,176
170,116,-55,-143,112,30,-88,9,114,60,193,135
114,72,-41,-93,77,15,-56,2,89,13,138,89
66,53,-13,-59,39,20,-38,-6,55,-39,85,32
38,32,-6,-35,22,13,-34,-12,20,-95,39,-16
8,13,5,-11,1,9,-28,-26,-3,-133,3,-50
-7,6,13,0,-10,9,-23,-31,-16,-156,-27,-77
-20,-1,19,10,-19,9,-17,-29,-21,-165,-37,-82
-33,-7,26,20,-30,10,-12,-31,-27,-171,-40,-84
-47,-15,32,30,-39,8,-10,-29,-33,-171,-40,-88
-59,-19,39,39,-49,10,-7,-31,-35,-169,-40,-90
-55,-15,40,35,-47,12,-4,-34,-35,-169,-40,-86
-56,-15,40,36,-47,12,0,-37,-35,-164,-40,-85
-53,-13,40,33,-46,13,0,-40,-35,-165,-40,-85
-50,-10,40,30,-45,15,-5,-42,-35,-167,-40,-85
-49,-10,40,30,-45,15,-5,-45,-34,-170,-40,-85
-50,-8,41,29,-45,16,-6,-45,-36,-173,-41,-87
-54,-4,51,29,-52,23,-10,-45,-34,-175,-51,-98
-54,-7,48,30,-50,20,-10,-45,-40,-182,-48,-101
-75,-31,44,52,-59,6,-8,-45,-55,-185,-56,-99
-85,-43,41,64,-63,-1,-4,-50,-55,-188,-75,-102
-73,-37,36,55,-54,-1,-2,-50,-56,-190,-75,-105
-79,-43,37,61,-58,-3,1,-50,-60,-184,-75,-110
-88,-49,40,68,-64,-4,4,-48,-61,-177,-75,-106
-88,-42,46,65,-67,2,5,-40,-56,-171,-76,-99
-76,-33,43,54,-59,4,12,-36,-42,-164,-72,-93
-47,6,53,20,-50,29,22,-26,-28,-158,-60,-86
-38,34,72,2,-55,53,34,-23,-16,-152,-47,-79
-47,48,95,-1,-72,72,31,-15,-1,-146,-38,-70
-55,85,140,-15,-98,112,-19,-38,-2,-141,-30,-59
-50,111,161,-30,-106,136,-66,-91,-38,-136,-24,-50
-22,116,137,-47,-80,126,-70,-96,-58,-130,-17,-40
-5,75,80,-35,-43,77,-63,-86,-51,-124,-2,-35
-1,38,39,-19,-21,39,-63,-82,-68,-149,-31,-56
-28,2,30,13,-29,16,-42,-73,-89,-175,-68,-82
-72,-46,26,59,-49,-10,0,-68,-90,-180,-74,-105
-92,-66,26,78,-59,-19,13,-65,-90,-190,-89,-125
-111,-91,20,101,-65,-35,18,-64,-89,-204,-110,-147
-102,-81,22,91,-62,-29,24,-67,-93,-205,-108,-149
-114,-88,26,101,-70,-31,24,-62,-93,-197,-112,-162
-120,-90,29,105,-75,-30,29,-68,-94,-201,-109,-158
-118,-99,19,108,-68,-40,28,-62,-80,-186,-102,-166
-127,-114,13,120,-69,-51,37,-38,-81,-198,-113,-165
-107,-49,58,78,-82,4,65,30,9,-126,-64,-121
59,68,9,-63,24,38,67,225,317,235,248,126
794,480,-315,-637,554,82,-120,396,701,925,1050,916
1108,624,-483,-866,795,70,-362,83,357,746,1014,947
399,223,-176,-311,287,23,-333,-417,-567,-484,-144,-28
-44,-15,29,30,-37,7,-124,-300,-597,-745,-505,-372
-126,-95,30,110,-78,-32,-18,-100,-244,-365,-267,-271
-148,-106,42,127,-95,-32,-11,-107,-167,-263,-189,-221
-116,-90,26,103,-71,-31,7,-40,-74,-170,-116,-172
-120,-91,29,105,-74,-31,17,-44,-80,-172,-109,-170
-100,-80,20,90,-60,-30,30,-39,-61,-148,-95,-157
-114,-94,19,104,-66,-38,32,-39,-58,-140,-92,-159
-103,-81,23,92,-63,-29,29,-42,-53,-133,-85,-150
-104,-70,34,86,-68,-18,31,-38,-41,-120,-76,-147
-96,-63,33,79,-64,-15,29,-42,-42,-118,-74,-139
-82,-56,25,69,-53,-16,31,-38,-32,-104,-62,-129
-77,-54,24,65,-50,-15,27,-42,-38,-102,-57,-122
-62,-45,17,53,-39,-14,21,-39,-31,-89,-47,-112
-56,-42,14,49,-35,-14,17,-41,-30,-83,-41,-103
-43,-35,8,39,-25,-13,11,-39,-30,-74,-32,-92
-32,-26,6,29,-19,-10,5,-35,-25,-58,-22,-83
-17,-20,-2,18,-7,-11,1,-32,-15,-43,-13,-74
-3,9,12,-3,-8,11,-17,-28,-5,-21,1,-67
10,20,10,-15,0,15,-25,-25,9,2,26,-44
52,24,-28,-37,40,-2,-28,-20,24,28,59,-8
102,57,-45,-80,73,6,-44,-22,43,62,90,23
132,85,-47,-108,89,19,-60,-25,61,95,127,61
163,104,-60,-133,111,22,-77,-25,71,131,163,101
203,122,-82,-162,142,20,-91,-25,89,161,195,136
220,139,-81,-179,150,29,-103,-25,96,180,219,167
220,150,-70,-185,144,40,-110,-25,90,181,227,172
223,160,-64,-191,143,48,-109,-32,84,180,219,160
211,155,-56,-183,133,50,-101,-41,79,180,202,148
179,153,-26,-166,102,64,-98,-47,73,153,181,138
121,136,16,-129,52,76,-80,-58,41,106,140,101
53,82,28,-68,12,55,-44,-67,8,59,91,47
13,44,31,-29,-9,38,-30,-74,-20,3,37,0
-13,28,41,-7,-27,34,-24,-85,-54,-40,-8,-38
-16,17,33,-1,-24,24,-14,-90,-65,-54,-38,-64
-26,9,34,9,-30,21,-8,-90,-69,-58,-55,-83
-65,-5,60,35,-62,27,-8,-89,-73,-65,-56,-86
-76,-16,60,46,-68,22,-11,-100,-81,-75,-70,-84
-75,-15,60,45,-67,22,-10,-107,-87,-75,-76,-86
-75,-15,60,45,-67,22,-10,-104,-82,-74,-74,-85
-71,-11,59,41,-65,24,-10,-103,-80,-75,-80,-85
-70,-9,60,39,-65,25,-9,-99,-76,-75,-80,-85
-58,-11,47,34,-53,18,-5,-100,-74,-76,-80,-85
-64,3,67,31,-66,35,-5,-103,-83,-79,-80,-85
-75,4,79,35,-77,42,-5,-106,-91,-80,-82,-85
-63,0,63,32,-63,31,-5,-109,-89,-80,-96,-85
-66,-10,57,38,-61,23,-5,-110,-90,-81,-102,-88
-54,-5,49,30,-52,22,-1,-110,-102,-79,-103,-91
-47,-5,42,26,-44,18,1,-110,-114,-84,-109,-89
-56,-19,37,37,-46,9,-1,-110,-119,-90,-115,-84
-52,-24,28,38,-40,2,1,-110,-121,-90,-116,-91
-72,-45,27,58,-50,-9,-1,-109,-119,-90,-113,-96
-82,-36,45,59,-63,4,2,-114,-116,-91,-122,-94
-79,-21,58,50,-68,18,5,-114,-115,-89,-130,-95
-91,-33,59,62,-74,13,7,-109,-116,-83,-130,-95
-112,-50,63,81,-87,6,12,-104,-124,-80,-129,-95
-116,-52,64,84,-90,6,1,-101,-118,-75,-128,-91
-84,-18,66,51,-75,24,0,-95,-100,-72,-126,-80
-55,16,72,19,-64,44,23,-91,-82,-62,-114,-70
-55,27,82,14,-69,54,44,-82,-72,-47,-101,-59
-66,47,113,9,-90,80,22,-75,-78,-50,-84,-46
-51,94,145,-22,-98,119,-38,-120,-81,-50,-73,-30
-35,127,161,-46,-98,144,-65,-153,-93,-50,-73,-22
-6,111,117,-53,-62,114,-57,-145,-97,-50,-63,-17
0,52,52,-26,-26,52,-51,-143,-103,-49,-71,-25
-41,-4,37,22,-39,17,-43,-139,-135,-61,-101,-45
-67,-37,30,52,-49,-3,-11,-134,-146,-73,-130,-75
-88,-63,25,75,-56,-19,19,-132,-144,-67,-130,-81
-110,-93,16,101,-63,-38,40,-127,-147,-79,-152,-104
-116,-104,12,110,-64,-45,47,-124,-151,-107,-186,-138
-106,-101,4,103,-55,-49,43,-119,-149,-98,-183,-140
-96,-101,-5,99,-45,-53,48,-116,-147,-97,-189,-143
-97,-109,-12,103,-42,-60,42,-114,-143,-86,-179,-138
-130,-133,-2,131,-64,-67,48,-102,-135,-85,-194,-156
-127,-100,27,113,-77,-36,71,-55,-88,-53,-167,-125
-77,-67,11,72,-44,-28,104,69,95,117,-38,-39
458,229,-229,-343,343,0,-4,259,465,689,594,584
1120,564,-556,-842,838,4,-248,254,588,1087,1097,1088
649,398,-251,-524,450,74,-313,-257,-178,161,261,378
-15,124,139,-55,-77,131,-171,-453,-703,-648,-523,-265
-112,-69,43,91,-77,-13,-1,-133,-371,-376,-431,-276
-141,-113,28,127,-84,-42,51,-114,-202,-176,-282,-199
-110,-79,30,94,-70,-24,40,-106,-146,-97,-202,-128
-141,-128,13,134,-77,-57,52,-63,-100,-54,-190,-124
-139,-126,13,132,-75,-56,54,-85,-111,-57,-182,-108
-117,-121,-4,119,-56,-62,56,-67,-93,-38,-174,-105
-116,-115,0,116,-58,-57,53,-80,-102,-43,-174,-99
-96,-109,-13,103,-41,-62,50,-72,-89,-26,-162,-89
-105,-104,0,104,-52,-52,51,-75,-91,-28,-163,-88
-104,-95,10,99,-57,-42,47,-68,-85,-18,-151,-89
-100,-90,10,95,-55,-40,39,-65,-81,-13,-146,-86
-92,-81,10,87,-51,-35,32,-62,-79,-6,-136,-77
-87,-77,10,82,-48,-34,25,-56,-73,1,-129,-71
-79,-70,10,74,-44,-30,17,-55,-72,8,-122,-59
-59,-67,-7,63,-26,-37,11,-49,-66,22,-108,-52
-22,-44,-22,33,0,-33,5,-51,-59,30,-98,-43
-12,-27,-15,20,2,-21,-3,-48,-49,47,-84,-21
10,-26,-36,9,23,-31,-5,-45,-42,68,-63,8
47,-15,-62,-16,55,-38,-19,-44,-28,91,-33,32
63,4,-59,-33,61,-28,-38,-47,-10,128,1,61
106,45,-61,-75,83,-8,-62,-50,3,158,30,92
142,55,-87,-98,114,-15,-91,-50,16,183,66,126
171,51,-120,-111,145,-34,-99,-53,33,220,105,174
214,92,-122,-153,168,-15,-107,-56,36,241,125,195
237,128,-110,-182,173,9,-128,-54,31,248,144,210
239,129,-110,-184,175,9,-138,-50,29,251,158,232
234,131,-103,-183,168,14,-132,-50,26,246,162,230
208,138,-70,-173,139,34,-118,-49,25,245,153,217
154,107,-47,-130,100,30,-95,-45,18,225,117,182
93,63,-29,-78,61,17,-59,-45,8,185,73,128
24,30,6,-27,9,18,-25,-47,-5,146,22,73
-15,17,33,-1,-24,25,-15,-51,-32,104,-32,30
-37,7,45,15,-41,26,-10,-51,-58,70,-77,-10
-81,-31,51,56,-66,10,-2,-50,-66,64,-94,-29
-92,-44,49,68,-70,2,4,-50,-65,62,-91,-29
-88,-44,45,65,-66,1,10,-50,-65,59,-90,-39
-82,-39,43,60,-62,1,10,-50,-65,55,-89,-40
-65,-26,39,46,-52,6,10,-51,-65,56,-86,-34
-60,-19,41,40,-50,11,10,-55,-65,65,-84,-33
-57,-11,46,33,-51,17,10,-55,-66,65,-87,-26
-55,-11,45,32,-50,17,10,-55,-70,65,-90,-26
-48,-1,47,24,-47,23,10,-55,-70,65,-91,-29
-58,-7,51,33,-55,22,10,-51,-70,65,-94,-32
-77,-29,48,53,-63,9,10,-50,-70,64,-96,-36
-76,-31,45,53,-61,7,10,-50,-70,59,-93,-34
-72,-29,43,50,-57,7,10,-50,-74,56,-104,-42
-72,-32,39,52,-55,3,11,-50,-76,53,-116,-43
-85,-43,43,64,-64,0,15,-49,-80,48,-114,-47
-100,-48,52,74,-76,2,22,-45,-79,44,-120,-61
-107,-51,56,78,-81,2,27,-45,-73,49,-121,-59
-110,-55,55,82,-82,0,33,-50,-67,49,-119,-64
-119,-61,59,90,-89,-1,36,-46,-63,53,-128,-64
-110,-49,61,80,-85,6,34,-40,-56,54,-124,-55
-81,-21,60,51,-70,19,37,-31,-51,56,-110,-50
-66,3,68,31,-67,35,39,-28,-53,71,-98,-42
-65,23,87,21,-76,55,53,-21,-55,80,-86,-33
-63,63,126,-1,-94,94,10,-36,-57,90,-75,-17
-40,115,155,-38,-98,135,-59,-85,-60,90,-67,-6
-20,120,140,-50,-80,130,-53,-89,-60,91,-63,1
2,93,91,-47,-45,92,-42,-77,-52,100,-54,5
-7,20,27,-7,-17,24,-33,-75,-69,89,-67,-8
-68,-46,22,56,-44,-12,-14,-61,-96,59,-105,-41
-96,-50,45,73,-70,-2,11,-46,-94,34,-131,-71
-107,-81,26,94,-66,-27,32,-39,-97,32,-136,-76
-140,-124,16,132,-78,-54,37,-40,-99,26,-156,-104
-139,-115,25,127,-82,-45,34,-39,-102,22,-160,-102
-141,-126,15,133,-78,-55,35,-33,-95,20,-166,-108
-145,-120,25,133,-85,-47,36,-37,-91,10,-160,-104
-144,-127,16,135,-79,-55,31,-29,-77,15,-153,-102
-142,-125,17,133,-79,-54,49,-23,-74,8,-158,-120
-130,-88,42,109,-86,-23,79,40,-12,80,-119,-98
8,-15,-23,4,16,-19,90,197,239,369,130,114
678,403,-275,-540,476,64,-94,358,643,1069,969,949
1010,578,-432,-794,721,73,-293,195,495,1086,1079,1075
356,287,-70,-322,213,109,-266,-284,-386,-110,-57,106
-79,60,138,9,-109,99,-86,-234,-563,-516,-533,-304
-114,-97,17,105,-65,-40,76,22,-209,-163,-340,-258
-146,-112,34,129,-90,-39,55,-40,-149,-52,-224,-171
-123,-100,23,111,-73,-38,36,-25,-71,30,-153,-117
-126,-104,22,115,-74,-41,44,-14,-66,23,-153,-130
-113,-91,22,102,-67,-34,36,-16,-62,48,-135,-103
-107,-94,13,100,-60,-40,43,-12,-48,53,-134,-106
-102,-84,18,92,-60,-33,38,-19,-51,47,-126,-91
-92,-83,9,87,-50,-37,40,-11,-35,61,-118,-89
-87,-76,11,81,-49,-32,31,-18,-40,64,-107,-81
-82,-72,10,77,-46,-31,28,-12,-30,73,-90,-73
-77,-68,9,72,-43,-29,24,-11,-32,70,-82,-70
-78,-63,15,70,-46,-23,18,-10,-26,87,-71,-61
-82,-56,25,69,-53,-15,15,-8,-25,95,-67,-58
-72,-46,26,58,-48,-10,9,-5,-23,105,-58,-47
-63,-39,24,50,-43,-7,4,-5,-14,112,-43,-38
-55,-28,27,41,-40,-1,-3,-1,-8,126,-19,-23
-34,-16,18,25,-26,1,-7,5,-1,145,4,1
9,-5,-15,-2,12,-10,-16,10,10,170,26,29
53,22,-31,-37,41,-4,-38,16,26,199,56,60
82,36,-45,-59,63,-4,-52,22,37,221,86,91
120,59,-61,-89,91,-1,-62,24,56,260,126,127
165,94,-71,-129,118,11,-94,19,72,290,161,164
203,108,-95,-155,149,6,-114,13,83,312,192,204
226,129,-97,-177,162,15,-121,10,93,337,220,230
226,141,-85,-183,155,27,-128,5,88,343,228,237
227,147,-80,-187,153,33,-121,1,81,338,230,232
198,138,-60,-168,129,39,-111,-4,74,335,232,222
146,125,-21,-135,83,52,-104,-5,68,317,212,212
119,115,-5,-117,62,55,-88,-5,58,281,164,172
75,88,13,-82,31,50,-62,-10,36,237,111,117
8,56,48,-33,-20,52,-36,-9,12,194,62,66
-32,23,55,4,-44,39,-22,-12,-8,157,20,21
-47,14,62,16,-55,38,-19,-17,-25,124,-17,-2
-58,13,71,23,-65,42,-16,-15,-37,109,-27,-17
-60,9,69,25,-64,39,-13,-15,-41,110,-26,-30
-64,7,70,28,-67,38,-10,-15,-40,110,-40,-33
-66,4,70,31,-68,36,-11,-15,-40,110,-37,-29
-56,10,66,22,-62,38,-16,-15,-40,109,-31,-26
-53,11,65,20,-59,38,-14,-18,-40,113,-28,-22
-43,22,65,10,-54,43,-18,-21,-45,118,-21,-19
-35,25,61,5,-49,43,-20,-20,-45,116,-22,-14
-40,19,59,11,-49,39,-20,-20,-45,113,-25,-16
-47,17,64,15,-56,40,-16,-21,-45,110,-28,-15
-58,12,70,23,-64,40,-15,-18,-45,107,-30,-16
-72,10,82,31,-77,45,-15,-16,-47,105,-34,-26
-83,3,86,39,-85,45,-10,-14,-51,103,-34,-22
-89,-5,84,46,-86,39,-10,-22,-56,99,-39,-33
-97,-11,86,53,-91,37,-9,-30,-56,97,-46,-46
-103,-19,84,60,-93,32,-3,-31,-50,93,-45,-46
-114,-27,87,70,-100,30,5,-27,-45,91,-44,-51
-114,-24,89,69,-101,33,11,-25,-39,88,-40,-44
-96,-3,93,49,-94,44,18,-24,-34,94,-41,-38
-67,29,96,18,-82,62,25,-2,-28,112,-37,-31
-52,51,102,0,-77,76,24,16,-15,123,-21,-24
-63,75,138,-6,-101,106,24,31,10,136,-9,-17
-48,112,160,-32,-104,136,-32,-7,2,151,4,-8
-28,147,175,-60,-102,160,-84,-61,-38,149,8,-2
-14,147,160,-67,-87,153,-69,-42,-47,146,18,20
-1,89,90,-44,-46,89,-53,-29,-42,143,12,13
-18,38,56,-10,-37,47,-41,-30,-63,110,-23,-15
-53,5,58,24,-55,31,-23,-24,-80,80,-46,-42
-83,-27,56,54,-69,14,10,-24,-81,74,-56,-57
-100,-49,51,74,-75,1,25,-19,-79,72,-75,-74
-118,-70,48,94,-83,-11,27,-23,-80,62,-98,-96
-117,-71,46,93,-81,-13,29,-26,-83,60,-94,-84
-116,-78,38,97,-77,-20,30,-23,-84,53,-105,-97
-104,-59,45,81,-75,-7,22,-28,-92,45,-97,-83
-117,-76,41,96,-78,-17,26,-21,-85,41,-109,-96
-114,-63,51,88,-83,-5,51,10,-58,42,-102,-94
-98,-16,82,57,-90,33,95,126,102,188,3,-36
245,196,-49,-221,147,73,58,335,468,680,499,424
1018,640,-378,-829,698,131,-203,405,738,1273,1244,1169
915,567,-348,-740,631,110,-369,-26,122,655,726,745
155,170,15,-162,69,92,-250,-391,-653,-474,-355,-164
-104,-11,92,57,-98,40,-52,-167,-459,-415,-429,-290
-169,-94,74,131,-121,-10,20,-46,-196,-114,-233,-206
-165,-83,82,124,-123,0,11,-43,-118,-36,-135,-135
-141,-77,64,109,-103,-6,39,17,-53,29,-97,-109
-142,-73,69,107,-106,-1,42,9,-71,21,-106,-105
-124,-62,62,92,-93,0,46,24,-40,50,-80,-89
-127,-61,66,94,-96,2,46,17,-49,34,-83,-89
-128,-69,59,99,-93,-5,40,21,-36,47,-64,-74
-137,-77,61,107,-98,-8,41,20,-33,44,-59,-74
-133,-75,58,104,-95,-8,39,19,-28,45,-51,-65
-108,-56,52,82,-80,-2,34,21,-21,51,-44,-62
-86,-38,48,62,-67,4,25,20,-18,50,-39,-57
-88,-44,44,65,-65,0,20,28,-7,56,-30,-52
-77,-39,38,58,-57,-1,10,35,-4,56,-21,-49
-64,-28,36,46,-50,4,4,44,6,61,-3,-38
-49,-5,44,27,-46,19,-3,45,9,59,7,-25
-38,-2,36,20,-37,16,-13,44,17,69,23,-13
-17,10,26,3,-22,18,-22,46,27,86,50,9
18,37,18,-28,0,27,-33,52,37,106,71,37
48,56,8,-52,20,32,-41,60,51,134,107,66
88,82,-6,-85,47,38,-60,60,67,161,142,99
131,103,-29,-117,80,37,-80,62,94,194,178,142
181,136,-44,-158,112,46,-97,67,108,227,223,185
206,150,-56,-178,131,47,-117,64,114,247,247,208
231,165,-66,-197,148,49,-122,61,128,260,273,234
252,192,-61,-222,156,65,-129,58,125,254,278,242
230,182,-48,-205,138,67,-128,55,115,244,262,236
192,168,-23,-180,107,72,-118,54,108,236,255,228
145,154,10,-150,67,82,-104,48,101,207,235,191
90,128,38,-109,26,82,-78,41,79,161,188,138
38,96,58,-67,-10,77,-52,34,43,102,126,82
-17,63,80,-23,-49,71,-34,27,6,50,75,35
-60,36,97,11,-79,66,-28,21,-16,16,40,1
-67,25,91,21,-79,58,-26,20,-26,-7,18,-22
-63,25,88,19,-76,56,-21,20,-35,-20,5,-35
-60,25,85,17,-73,55,-18,20,-35,-33,-7,-48
-54,25,79,15,-67,52,-14,20,-35,-40,-11,-50
-59,25,84,17,-72,54,-11,20,-35,-40,-9,-49
-66,25,91,20,-79,57,-10,19,-34,-40,-11,-54
-66,25,91,20,-79,57,-10,15,-36,-40,-10,-55
-61,25,86,18,-74,55,-10,16,-39,-40,-11,-55
-60,25,85,17,-73,55,-10,12,-42,-43,-15,-60
-55,25,79,15,-68,52,-12,9,-44,-45,-15,-60
-56,25,82,15,-70,53,-15,10,-48,-45,-15,-60
-74,20,94,27,-85,57,-15,6,-50,-51,-14,-60
-78,12,90,33,-84,51,-15,5,-51,-58,-18,-63
-79,6,85,36,-82,45,-15,5,-54,-64,-20,-65
-81,-2,79,41,-80,39,-14,5,-59,-71,-21,-65
-83,-10,73,47,-78,31,-11,5,-60,-78,-32,-73
-82,-13,69,48,-75,27,-9,6,-60,-80,-36,-76
-71,-6,64,38,-67,29,-10,11,-59,-83,-33,-75
-63,2,65,30,-65,34,-3,16,-61,-86,-38,-75
-54,10,64,21,-59,37,-7,20,-64,-78,-40,-75
-61,17,78,22,-70,47,-1,25,-50,-69,-31,-75
-73,27,99,23,-86,63,3,30,-31,-60,-20,-66
-68,48,116,9,-92,82,9,38,-14,-56,-10,-53
-65,78,143,-7,-104,110,16,39,4,-63,-1,-43
-74,101,175,-14,-125,138,-47,1,-19,-63,7,-33
-49,128,176,-40,-113,152,-89,-36,-55,-61,14,-28
-14,124,137,-55,-76,130,-74,-35,-62,-46,25,-15
-10,70,79,-30,-45,74,-69,-34,-63,-55,13,-19
-12,32,44,-10,-29,38,-58,-36,-66,-92,-12,-46
-73,-12,62,42,-67,25,-29,-17,-70,-108,-31,-78
-120,-44,76,82,-98,16,-5,1,-71,-122,-46,-97
-124,-64,61,94,-93,-1,-3,7,-71,-133,-61,-111
-134,-78,56,106,-95,-11,5,7,-83,-153,-76,-125
-126,-81,45,103,-85,-18,5,11,-69,-147,-82,-132
-135,-98,38,116,-87,-30,16,6,-69,-157,-89,-139
-125,-80,45,103,-85,-18,11,-2,-58,-156,-78,-134
-137,-103,34,120,-86,-34,16,13,-52,-152,-85,-146
-132,-73,59,102,-95,-7,52,48,-40,-133,-50,-107
-73,1,73,36,-73,37,74,199,176,81,95,-19
425,293,-131,-359,278,81,-11,418,599,681,745,603
1112,672,-440,-892,776,116,-282,338,647,1041,1280,1165
732,418,-314,-575,522,52,-392,-194,-216,42,379,415
63,40,-23,-51,43,8,-223,-362,-697,-801,-483,-316
-67,-71,-4,69,-31,-37,-76,-86,-351,-504,-343,-295
-153,-125,28,139,-90,-49,-25,-45,-185,-296,-191,-223
-148,-103,45,125,-96,-29,14,-8,-86,-208,-109,-156
-141,-106,36,124,-88,-35,38,33,-51,-175,-82,-151
-139,-97,43,118,-91,-27,34,24,-55,-181,-80,-142
-122,-91,32,106,-77,-29,36,35,-33,-158,-65,-131
-125,-88,37,106,-80,-25,31,26,-41,-166,-67,-128
-116,-79,37,97,-76,-21,30,33,-22,-147,-52,-115
-123,-76,46,99,-84,-15,30,29,-24,-149,-51,-113
-113,-69,45,91,-79,-12,24,35,-15,-135,-39,-100
-110,-65,45,87,-77,-10,19,35,-11,-131,-35,-95
-102,-57,45,79,-74,-6,14,38,-7,-125,-27,-86
-96,-51,45,73,-70,-3,8,41,-2,-114,-17,-79
-87,-44,43,65,-65,0,2,39,2,-106,-9,-68
-73,-38,35,55,-54,-1,-2,41,7,-94,8,-54
-61,-31,30,46,-45,-1,-9,55,28,-84,22,-46
-35,-13,22,24,-29,4,-16,62,36,-69,37,-38
-8,7,16,0,-12,11,-23,59,41,-43,62,-16
8,18,10,-13,-2,14,-29,61,56,-18,89,13
42,42,-1,-42,21,20,-40,60,70,4,118,43
85,69,-16,-77,50,27,-59,60,96,39,157,80
118,90,-28,-104,73,31,-75,60,109,77,196,117
154,116,-38,-134,95,39,-94,60,131,111,232,153
186,136,-49,-161,117,43,-109,60,141,134,260,186
212,153,-59,-182,135,47,-114,60,133,147,277,202
211,154,-57,-182,133,49,-113,60,133,144,286,207
192,143,-49,-168,120,46,-104,57,127,135,279,204
161,131,-31,-146,96,50,-95,47,126,123,261,185
111,121,11,-116,50,66,-86,39,113,85,234,144
67,100,33,-84,17,66,-67,30,82,38,181,92
27,63,36,-45,-5,49,-52,20,56,-13,111,44
-21,31,52,-6,-37,41,-43,16,26,-55,63,6
-45,11,56,16,-51,33,-33,13,-6,-85,33,-26
-50,6,56,21,-53,31,-22,11,-20,-110,13,-54
-57,1,58,27,-58,30,-20,7,-27,-115,8,-61
-71,-2,69,37,-70,33,-20,5,-27,-120,2,-63
-90,-8,82,49,-86,37,-17,2,-24,-126,-1,-66
-83,-7,76,45,-80,34,-14,0,-21,-124,-7,-60
-72,2,74,35,-73,38,-16,0,-18,-125,-10,-60
-70,-1,69,36,-70,34,-19,-4,-15,-125,-5,-60
-70,-4,66,36,-67,31,-20,-6,-16,-125,-5,-60
-69,-7,62,38,-65,28,-20,-5,-24,-129,-5,-60
-70,-10,60,40,-65,25,-18,-5,-30,-130,-5,-62
-71,-11,60,41,-66,24,-15,-5,-30,-130,-5,-70
-75,-15,60,45,-67,22,-15,-5,-29,-131,-8,-69
-86,-17,68,51,-77,25,-15,-5,-35,-140,-11,-74
-91,-20,71,56,-81,25,-15,-5,-41,-146,-16,-85
-93,-23,70,58,-81,23,-16,-8,-40,-144,-23,-85
-95,-25,70,60,-82,22,-19,-10,-44,-146,-28,-87
-103,-33,70,68,-86,18,-20,-10,-45,-143,-30,-92
-105,-36,70,70,-87,16,-20,-14,-45,-150,-30,-95
-100,-35,66,67,-82,16,-20,-16,-45,-165,-33,-95
-99,-35,63,67,-81,14,-20,-15,-47,-165,-36,-95
-95,-35,60,65,-77,12,-18,-15,-51,-165,-34,-95
-93,-36,58,64,-75,11,-14,-15,-50,-165,-31,-95
-94,-39,55,66,-74,7,-12,-15,-50,-165,-30,-94
-99,-45,55,72,-77,5,-9,-15,-50,-162,-29,-99
-98,-42,56,69,-76,7,-6,-15,-50,-153,-24,-96
-91,-37,54,64,-72,8,-5,-14,-49,-145,-26,-85
-81,-11,70,46,-76,29,5,-1,-24,-136,-22,-75
-67,27,94,20,-81,60,22,8,-5,-130,-13,-65
-61,57,117,2,-89,87,24,24,6,-125,-7,-57
-52,75,127,-12,-90,101,-15,20,11,-122,3,-51
-31,82,114,-26,-73,98,-72,-31,-25,-115,7,-44
-2,102,103,-50,-53,102,-78,-47,-49,-119,24,-33
-9,79,88,-36,-48,83,-63,-37,-42,-118,29,-18
-15,36,51,-11,-34,44,-51,-35,-49,-121,7,-28
-23,4,27,9,-25,16,-40,-27,-73,-156,-17,-68
-94,-46,47,70,-70,1,-10,-22,-83,-167,-37,-88
-122,-66,56,94,-89,-5,25,-23,-79,-167,-48,-97
-125,-82,44,103,-84,-19,32,-29,-78,-187,-77,-127
-136,-92,44,114,-90,-24,28,-35,-75,-184,-79,-120
-140,-109,31,125,-85,-39,31,-30,-73,-183,-85,-131
-132,-101,31,116,-81,-35,30,-26,-82,-184,-85,-125
-124,-108,17,116,-70,-45,28,-10,-76,-173,-76,-134
-122,-102,20,112,-71,-40,47,-11,-69,-189,-76,-130
-107,-41,66,73,-86,13,70,58,41,-90,-22,-86
79,63,-16,-71,48,23,65,253,344,277,303,185
842,489,-353,-666,598,68,-129,391,692,926,1071,956
1089,618,-471,-853,780,73,-369,49,296,662,929,885
335,224,-111,-279,223,56,-319,-429,-583,-526,-187,-50
-64,2,66,31,-65,34,-105,-284,-558,-698,-471,-335
-116,-83,33,99,-75,-24,5,-104,-222,-344,-249,-245
-129,-95,34,111,-81,-30,17,-104,-145,-245,-171,-175
-105,-86,19,95,-62,-33,35,-34,-74,-165,-113,-134
-124,-91,34,107,-79,-28,41,-46,-86,-187,-113,-135
-102,-81,21,91,-61,-30,38,-37,-61,-157,-97,-119
-108,-88,20,98,-64,-33,36,-37,-61,-150,-96,-121
-93,-77,16,85,-54,-30,32,-36,-56,-136,-87,-110
-83,-74,9,79,-46,-32,30,-33,-47,-123,-81,-109
-77,-69,8,73,-42,-30,28,-33,-46,-120,-77,-100
-64,-62,2,63,-33,-30,25,-24,-36,-105,-68,-94
-68,-58,10,63,-39,-24,22,-25,-36,-102,-64,-88
-70,-51,19,60,-44,-16,19,-18,-27,-88,-55,-80
-57,-44,13,50,-35,-15,16,-16,-26,-81,-50,-76
-39,-34,5,36,-21,-15,15,-18,-19,-69,-42,-65
-26,-26,0,26,-13,-13,8,-21,-16,-61,-37,-54
-6,-18,-13,12,4,-15,0,-20,-10,-43,-24,-39
2,-7,-9,3,6,-8,-9,-18,-1,-17,4,-17
15,-4,-19,-5,17,-11,-14,-15,12,14,28,7
47,20,-27,-33,37,-4,-28,-15,29,34,43,28
88,52,-37,-70,62,7,-46,-15,44,56,72,63
136,63,-73,-99,104,-5,-61,-15,61,91,104,100
168,80,-88,-124,128,-4,-82,-15,72,119,142,134
208,106,-102,-157,155,2,-93,-15,83,153,179,175
232,121,-111,-176,172,5,-107,-15,91,177,198,198
236,130,-106,-183,171,12,-111,-14,88,189,207,207
242,142,-100,-191,170,21,-108,-17,83,186,199,198
241,150,-91,-196,166,30,-117,-25,79,175,195,187
219,147,-71,-183,145,38,-109,-33,75,164,187,179
147,108,-39,-127,93,34,-83,-35,58,131,149,141
76,71,-5,-74,41,33,-57,-35,30,85,98,88
28,53,24,-41,2,38,-32,-44,4,36,46,40
-10,26,36,-8,-23,31,-16,-55,-17,-5,5,6
-27,11,38,8,-33,25,-15,-58,-37,-35,-29,-20
-37,4,41,17,-40,23,-15,-55,-50,-54,-53,-44
-41,-3,38,22,-39,17,-10,-55,-50,-55,-56,-45
-52,-9,43,30,-47,17,-10,-55,-50,-55,-55,-45
-68,-17,51,42,-59,17,-9,-55,-50,-60,-55,-45
-67,-18,49,43,-58,15,-4,-54,-50,-59,-55,-44
-72,-15,57,44,-64,21,-6,-60,-49,-62,-56,-45
-71,-14,57,43,-64,21,-2,-65,-44,-65,-59,-44
-80,-16,64,47,-71,24,0,-65,-46,-65,-61,-46
-91,-14,77,52,-83,31,0,-69,-44,-65,-59,-44
-83,-15,67,49,-75,26,3,-71,-45,-65,-63,-46
-80,-15,65,47,-72,25,6,-66,-67,-69,-65,-44
-73,-13,60,43,-66,23,9,-65,-71,-72,-72,-48
-76,-21,55,48,-65,17,12,-64,-69,-78,-82,-62
-76,-24,52,50,-64,14,15,-60,-71,-75,-81,-61
-83,-34,49,59,-66,7,16,-60,-70,-80,-78,-54
-92,-42,50,67,-71,3,20,-61,-70,-91,-76,-51
-81,-39,42,59,-61,1,20,-69,-60,-87,-73,-47
-67,-13,54,39,-60,20,20,-60,-51,-81,-70,-41
-47,28,74,9,-61,51,21,-49,-36,-67,-68,-42
-50,29,78,10,-64,53,38,-35,-23,-52,-60,-36
-52,54,106,-1,-79,80,30,-29,-25,-45,-54,-17
-23,121,144,-49,-84,133,-49,-82,-42,-51,-47,-20
5,144,139,-74,-68,141,-81,-103,-57,-63,-41,-31
33,110,76,-72,-22,93,-64,-87,-59,-57,-34,-30
11,45,35,-28,-12,40,-49,-84,-72,-63,-40,-28
-21,10,30,5,-26,20,-24,-73,-96,-103,-84,-48
-45,-26,19,35,-31,-3,4,-67,-106,-117,-111,-79
-94,-80,14,87,-53,-33,31,-65,-105,-118,-115,-85
-109,-103,6,106,-57,-48,41,-64,-104,-143,-145,-110
-103,-98,5,100,-54,-46,40,-66,-109,-147,-152,-116
-96,-100,-4,98,-46,-52,39,-64,-112,-147,-159,-120
-98,-101,-3,100,-47,-52,42,-66,-116,-166,-164,-123
-105,-118,-13,111,-46,-65,37,-72,-99,-160,-153,-116
-134,-138,-4,136,-65,-71,50,-64,-88,-166,-171,-126
-126,-101,25,114,-75,-38,82,-8,-47,-108,-133,-94
-58,-67,-9,62,-24,-38,117,126,143,83,6,-16
518,252,-266,-385,392,-7,-11,324,528,676,666,638
1113,543,-570,-828,841,-14,-259,281,590,994,1078,1061
592,355,-237,-473,414,59,-307,-244,-216,-11,186,298
-6,115,122,-55,-64,118,-164,-383,-659,-725,-512,-276
-112,-72,40,91,-76,-16,0,-93,-315,-427,-394,-274
-171,-142,29,156,-100,-56,48,-75,-169,-248,-262,-211
-121,-121,0,121,-60,-61,45,-65,-117,-175,-192,-145
-116,-124,-8,120,-54,-66,43,-50,-83,-156,-174,-138
-117,-107,10,111,-63,-48,44,-53,-84,-152,-166,-122
-104,-102,1,102,-52,-51,63,-37,-66,-132,-162,-121
-94,-88,5,91,-49,-41,55,-42,-67,-134,-160,-112
-78,-82,-4,80,-37,-43,54,-30,-53,-119,-150,-103
-74,-76,-2,76,-36,-39,49,-31,-62,-122,-145,-97
-64,-71,-7,68,-28,-39,46,-23,-54,-111,-134,-87
-58,-67,-10,63,-24,-38,41,-21,-50,-108,-128,-82
-50,-63,-13,56,-18,-38,45,-20,-45,-102,-120,-72
-50,-58,-8,54,-21,-33,54,-20,-38,-95,-114,-66
-35,-48,-12,41,-11,-30,45,-20,-35,-91,-109,-56
-27,-34,-7,31,-10,-20,40,-20,-26,-78,-95,-42
-16,-31,-15,23,0,-23,30,-18,-22,-61,-82,-28
4,-35,-40,16,22,-37,26,-13,-14,-49,-64,-7
8,-24,-32,8,20,-28,13,-10,-2,-27,-36,18
55,-9,-64,-23,59,-36,-6,-7,11,-1,-13,37
109,32,-77,-70,92,-23,-26,-2,29,28,14,71
135,54,-81,-94,108,-13,-46,0,42,58,48,104
180,63,-117,-122,148,-27,-56,-5,60,89,86,145
234,113,-121,-174,177,-4,-93,-9,74,123,123,193
244,119,-125,-181,184,-3,-102,-11,72,139,147,209
242,116,-126,-178,183,-5,-100,-16,66,145,165,228
271,148,-124,-209,197,12,-106,-19,62,142,158,240
253,145,-108,-199,180,19,-95,-23,57,134,143,223
196,123,-73,-159,134,25,-84,-25,53,115,129,200
152,106,-46,-128,99,30,-54,-25,48,77,97,171
87,74,-12,-80,49,31,-26,-25,34,45,48,119
20,41,21,-30,-1,30,-8,-25,17,6,-3,63
-6,17,24,-6,-15,20,5,-25,-3,-39,-46,21
-33,2,36,15,-35,19,10,-20,-31,-74,-81,-21
-68,-16,52,42,-60,18,17,-17,-42,-90,-98,-36
-87,-38,49,63,-68,5,30,-13,-39,-94,-97,-37
-89,-39,50,64,-69,6,36,-10,-36,-93,-95,-42
-78,-28,50,53,-64,11,35,-5,-33,-89,-95,-38
-71,-21,50,46,-60,14,35,-8,-30,-90,-92,-35
-58,-11,46,34,-52,17,35,-17,-30,-90,-89,-33
-55,-11,45,32,-50,16,34,-16,-30,-90,-91,-29
-54,-9,45,31,-50,17,31,-15,-30,-91,-94,-33
-48,-7,40,27,-44,16,30,-15,-30,-94,-98,-43
-43,-3,40,23,-41,18,30,-15,-34,-98,-100,-46
-47,-7,40,27,-43,16,30,-16,-36,-100,-100,-49
-71,-31,40,51,-55,4,30,-12,-35,-104,-100,-52
-77,-37,40,57,-58,1,32,-10,-35,-106,-107,-54
-82,-34,48,58,-64,7,35,-10,-35,-110,-118,-63
-87,-36,51,61,-69,7,35,-10,-34,-116,-125,-66
-83,-34,49,59,-66,7,35,-10,-41,-111,-125,-65
-83,-35,48,59,-65,6,37,-10,-41,-104,-125,-65
-67,-24,43,45,-55,9,47,0,-32,-98,-125,-65
-50,-2,48,25,-49,22,52,16,-23,-91,-125,-65
-40,2,42,19,-42,22,63,27,-13,-85,-114,-58
-37,32,69,3,-53,50,71,35,6,-79,-99,-47
-26,92,118,-34,-72,105,44,13,17,-74,-87,-37
-17,109,125,-46,-71,117,-4,-34,-14,-68,-73,-27
-7,134,142,-64,-75,138,-35,-44,-39,-64,-65,-18
29,143,114,-86,-43,128,-25,-22,-33,-54,-44,3
22,77,55,-50,-17,65,-13,-13,-37,-68,-48,11
-35,8,43,13,-39,26,19,-9,-61,-116,-98,-32
-68,-37,31,52,-50,-3,61,-4,-73,-143,-131,-75
-72,-48,25,60,-48,-11,58,-1,-67,-148,-127,-78
-110,-97,13,103,-61,-42,72,6,-64,-151,-150,-105
-129,-120,9,124,-69,-55,85,7,-63,-158,-168,-107
-111,-114,-2,113,-54,-58,85,18,-57,-166,-159,-118
-100,-108,-8,105,-45,-58,86,18,-68,-169,-166,-132
-81,-101,-20,91,-30,-61,82,28,-59,-156,-147,-116
-111,-132,-21,122,-45,-76,93,30,-58,-155,-169,-138
-106,-70,36,88,-71,-17,112,59,-25,-118,-150,-108
-24,-40,-15,32,-4,-27,165,207,181,83,16,-4
511,293,-218,-401,364,38,25,382,595,728,760,737
1054,608,-445,-831,749,81,-207,339,679,1070,1240,1212
565,374,-191,-469,378,91,-227,-107,-123,34,238,349
-2,135,137,-67,-69,136,-56,-178,-531,-700,-524,-281
-75,-65,10,70,-42,-28,135,109,-188,-397,-387,-280
-144,-141,2,143,-73,-69,122,60,-117,-242,-266,-210
-128,-102,26,115,-77,-38,101,49,-74,-161,-178,-125
-92,-110,-18,101,-37,-64,113,58,-28,-139,-172,-136
-89,-96,-7,93,-41,-51,98,41,-43,-147,-158,-117
-93,-88,6,91,-49,-41,105,52,-28,-132,-148,-118
-79,-94,-15,87,-32,-54,96,40,-36,-142,-144,-111
-71,-115,-44,93,-13,-79,94,55,-26,-130,-131,-102
-73,-99,-26,86,-24,-62,85,47,-31,-134,-131,-97
-66,-89,-24,78,-21,-56,79,48,-19,-120,-118,-85
-63,-83,-20,73,-21,-51,73,44,-10,-117,-116,-81
-52,-71,-19,61,-16,-45,66,45,1,-109,-107,-70
-44,-66,-21,55,-11,-43,62,46,15,-100,-101,-64
-28,-46,-19,37,-4,-32,54,44,26,-95,-87,-54
-10,-31,-21,21,6,-26,51,46,32,-75,-73,-47
14,-24,-38,5,27,-31,44,63,51,-44,-53,-26
38,-8,-46,-14,42,-27,39,77,67,-32,-26,3
56,10,-47,-33,51,-18,34,74,69,-20,-10,16
86,37,-48,-62,67,-5,19,76,90,15,20,48
114,61,-53,-87,83,4,2,75,103,39,57,88
138,75,-62,-106,99,6,-14,75,119,73,95,123
173,84,-88,-128,130,-2,-30,77,140,118,143,173
207,108,-99,-157,153,4,-51,75,153,147,176,208
253,157,-96,-204,174,30,-70,73,159,166,211,245
284,173,-111,-228,197,31,-84,70,152,177,238,273
258,168,-90,-213,174,38,-87,67,146,175,240,268
243,170,-73,-206,158,48,-74,64,138,177,241,274
204,172,-32,-188,118,69,-67,62,131,156,204,240
145,152,8,-148,68,79,-48,59,124,105,149,175
105,125,20,-115,42,73,-23,56,108,55,108,134
51,95,44,-73,4,70,-3,53,92,10,48,78
18,56,38,-37,-10,47,24,50,73,-33,-7,28
-4,41,45,-19,-24,43,37,51,63,-62,-29,-2
-22,39,61,-8,-42,50,42,55,59,-80,-53,-20
-28,31,60,-1,-44,45,46,55,54,-89,-66,-34
-32,27,59,2,-46,43,45,57,50,-85,-57,-44
-35,20,55,7,-45,37,42,61,45,-82,-51,-41
-30,24,55,3,-43,39,40,60,48,-78,-44,-38
-18,35,53,-9,-36,44,40,57,51,-75,-37,-34
-17,18,35,-1,-26,26,35,54,48,-69,-37,-31
-25,28,53,-2,-40,40,35,51,45,-73,-40,-26
-32,50,82,-9,-57,66,34,48,45,-90,-40,-26
-31,40,71,-4,-52,55,30,45,45,-90,-40,-30
-32,34,66,-1,-49,50,30,46,45,-94,-40,-30
-33,26,59,3,-46,42,32,46,45,-95,-40,-35
-33,19,52,7,-43,35,36,44,41,-97,-46,-35
-35,13,48,11,-42,30,41,46,40,-104,-53,-39
-37,7,44,14,-40,25,44,44,40,-100,-55,-41
-43,4,47,19,-45,26,46,45,40,-95,-50,-40
-42,-1,41,21,-42,19,44,47,40,-91,-47,-49
-36,20,57,8,-47,38,47,51,39,-87,-44,-46
-25,48,73,-12,-49,61,60,67,54,-82,-39,-35
-20,51,72,-16,-46,61,69,86,79,-77,-36,-25
-32,62,94,-15,-63,78,78,86,92,-73,-32,-16
-20,121,141,-51,-81,131,37,56,76,-70,-26,-8
-19,153,172,-68,-96,162,-30,38,55,-66,-20,-7
-15,142,157,-64,-86,150,-44,36,52,-64,-15,4
16,127,111,-72,-48,119,-30,32,48,-57,-6,17
-7,81,88,-37,-48,84,-12,25,43,-78,-11,-14
-46,37,83,4,-65,59,6,30,37,-123,-51,-42
-64,9,72,27,-68,40,32,53,28,-132,-71,-56
-81,-17,64,49,-72,23,57,55,23,-136,-73,-77
-106,-63,43,84,-74,-10,67,55,14,-149,-101,-97
-105,-70,35,87,-70,-17,63,54,6,-152,-99,-99
-103,-69,34,86,-68,-17,66,56,6,-158,-100,-115
-102,-63,38,82,-69,-12,64,53,4,-161,-102,-108
-81,-61,19,71,-50,-21,65,56,28,-147,-102,-109
-92,-64,28,78,-60,-18,79,65,26,-157,-117,-118
-87,-28,59,58,-73,15,106,134,106,-82,-64,-84
68,84,16,-76,26,50,110,307,402,258,251,169
745,530,-215,-637,480,157,-85,466,809,975,1113,1035
1065,690,-375,-878,720,157,-294,247,575,905,1159,1123
375,304,-71,-340,223,117,-252,-194,-328,-337,-43,86
-52,52,104,0,-79,78,-41,-100,-436,-701,-505,-330
-87,-37,50,62,-68,6,91,101,-93,-346,-281,-252
-132,-60,72,96,-102,6,76,61,-56,-247,-175,-175
-106,-59,48,82,-77,-5,80,83,27,-151,-102,-122
-113,-62,51,87,-82,-5,76,72,40,-165,-102,-134
-101,-59,41,80,-71,-9,73,75,48,-146,-83,-109
-100,-61,39,81,-70,-11,76,78,65,-136,-80,-110
-94,-52,41,73,-67,-5,67,78,63,-135,-72,-98
-85,-50,35,67,-60,-7,67,83,67,-122,-62,-96
-78,-42,35,60,-56,-3,61,77,63,-125,-58,-90
-73,-37,36,55,-54,-1,59,86,75,-111,-45,-83
-78,-33,45,55,-61,6,55,84,75,-113,-40,-80
-65,-26,39,45,-52,6,51,86,74,-101,-29,-67
-51,-19,32,35,-41,6,44,89,76,-94,-23,-56
-39,-13,26,26,-33,6,37,90,92,-85,-14,-42
-24,-5,19,14,-21,7,31,91,102,-77,3,-23
-10,4,14,3,-12,9,23,95,106,-68,19,-4
-1,33,35,-16,-18,34,14,97,115,-53,39,6
27,54,27,-40,-1,40,1,100,132,-33,64,28
56,48,-8,-52,32,20,-9,103,146,-2,96,57
93,76,-17,-84,55,29,-22,106,159,36,137,97
140,114,-26,-127,83,43,-46,110,183,70,182,143
178,144,-35,-161,106,54,-70,109,198,107,228,183
209,164,-45,-186,127,59,-87,104,210,131,257,220
230,167,-63,-198,146,52,-97,105,212,148,285,246
247,182,-65,-214,156,58,-102,103,203,164,298,260
246,198,-47,-222,146,75,-100,99,198,158,293,259
215,190,-25,-202,120,83,-96,101,190,148,291,255
173,173,0,-173,86,86,-84,96,185,115,260,223
125,146,21,-135,52,83,-57,90,177,61,206,162
65,111,46,-88,9,79,-29,85,159,14,151,104
10,84,74,-47,-32,79,-10,79,132,-39,98,52
-12,63,75,-26,-44,69,-5,73,103,-81,50,14
-27,48,75,-11,-51,61,0,70,93,-111,28,-12
-45,35,80,5,-63,57,6,70,91,-134,26,-32
-44,35,80,5,-63,57,11,70,87,-140,20,-35
-46,35,81,6,-64,57,15,70,84,-148,17,-35
-58,30,88,13,-73,59,15,70,80,-151,11,-35
-66,30,96,18,-81,63,15,70,76,-155,12,-35
-63,31,93,16,-78,61,15,73,75,-159,18,-35
-43,47,90,-2,-67,68,15,76,75,-161,21,-35
-32,55,87,-12,-60,71,15,73,75,-165,25,-34
-38,47,85,-5,-61,65,15,70,75,-165,20,-36
-44,41,85,1,-65,63,15,67,73,-165,15,-34
-51,34,85,8,-68,59,15,65,70,-175,11,-37
-57,28,85,14,-71,56,15,61,68,-190,6,-52
-63,22,85,20,-74,53,15,60,65,-200,1,-57
-65,19,85,22,-75,52,15,60,61,-208,-3,-59
-65,20,85,22,-75,52,15,60,60,-211,-7,-61
-74,16,90,29,-82,52,15,60,57,-216,-13,-59
-75,15,90,30,-83,52,15,60,54,-235,-16,-60
-76,14,90,31,-84,52,15,60,55,-241,-22,-68
-77,11,88,33,-82,49,15,60,55,-252,-25,-71
-76,8,85,34,-81,46,19,60,55,-262,-20,-69
-79,6,85,36,-83,45,20,60,54,-262,-20,-70
-80,2,82,39,-81,42,20,60,50,-267,-19,-70
-79,0,79,40,-79,40,25,60,50,-268,-14,-70
-79,1,81,39,-80,41,25,60,50,-274,-16,-64
-75,11,86,32,-81,48,25,63,50,-272,-12,-57
-73,19,92,27,-82,56,25,68,49,-264,-4,-51
-72,16,88,28,-80,51,24,71,56,-256,4,-44
-51,48,99,2,-76,73,32,87,79,-248,12,-38
-43,96,139,-27,-91,118,44,104,102,-240,19,-32
-43,112,155,-35,-99,134,36,85,107,-240,25,-29
-25,120,145,-48,-85,133,-12,60,81,-240,25,-24
-6,132,138,-63,-72,134,-61,61,63,-238,36,-22
11,139,128,-75,-59,133,-55,60,60,-244,45,-16
6,105,99,-56,-47,102,-39,60,53,-252,35,-15
-7,68,75,-31,-41,72,-35,60,47,-283,25,-30
-57,18,75,19,-66,46,-3,60,42,-306,-2,-64
-63,12,75,25,-69,43,18,68,35,-311,-21,-79
-94,-24,70,59,-81,22,31,70,32,-323,-27,-91
-103,-32,71,68,-86,19,35,71,24,-340,-42,-107
-99,-30,69,64,-83,19,26,69,21,-348,-49,-104
-116,-53,63,84,-89,5,35,72,26,-355,-50,-109
-65,1,66,31,-65,34,16,69,26,-364,-39,-97
-133,-80,53,107,-93,-14,38,69,34,-359,-43,-119
-40,41,81,-1,-60,61,57,113,52,-343,-28,-107
-128,-36,91,82,-110,27,129,254,277,-129,106,-15
504,408,-96,-456,300,156,30,502,679,444,733,583
1031,643,-389,-837,710,127,-238,442,795,890,1341,1203
942,663,-279,-802,610,191,-353,-58,6,-7,546,552
793,822,29,-808,382,425,-265,-327,-625,-993,-421,-266
