I,II,III,aVR,aVL,aVF,V1,V2,V3,V4,V5,V6
-121,-138,-17,130,-52,-77,-4,57,-11,6,-7,-48
-102,-138,-37,121,-33,-87,5,53,-12,2,-13,-46
-144,-156,-13,151,-65,-84,39,54,-2,5,-19,-38
-179,-176,3,177,-90,-86,84,62,-16,20,-50,-70
-223,-211,12,217,-117,-100,85,73,-32,-6,-63,-79
-267,-235,32,250,-149,-101,78,40,-26,-36,-71,-81
-199,-189,10,193,-104,-89,79,88,-6,-18,-58,-57
-211,-177,34,194,-122,-71,71,23,-5,-14,-71,-78
-145,-259,-115,202,-15,-187,151,506,191,38,-75,-147
-113,-80,33,96,-73,-24,269,1113,739,389,29,-202
193,545,352,-369,-80,448,-74,176,568,695,624,480
642,1027,385,-835,129,706,-575,-1360,-588,427,1099,1396
240,506,267,-373,-14,386,-514,-1789,-1203,-268,310,729
-158,-193,-35,176,-61,-114,-233,-1002,-899,-602,-368,-140
-193,-210,-17,202,-88,-113,-57,-249,-366,-345,-229,-129
-213,-180,34,196,-123,-73,17,14,-28,-103,-110,-88
-144,-185,-42,165,-51,-113,37,125,11,-46,-75,-73
-160,-173,-13,167,-73,-93,69,122,30,-25,-76,-89
-119,-152,-33,136,-43,-92,73,150,44,-3,-47,-55
-161,-177,-17,169,-72,-97,93,160,32,-2,-64,-77
-219,-240,-21,229,-98,-130,91,166,37,-17,-74,-94
-163,-183,-20,173,-71,-102,80,165,36,-8,-46,-58
-150,-174,-24,162,-63,-99,78,164,54,3,-48,-65
-147,-181,-35,165,-56,-108,67,166,57,12,-35,-52
-140,-174,-34,157,-53,-104,67,165,59,23,-33,-51
-133,-176,-43,154,-45,-109,70,170,65,23,-23,-43
-125,-153,-29,139,-48,-91,67,180,63,36,-19,-38
-145,-188,-44,167,-50,-116,59,192,61,52,-31,-54
-113,-182,-69,148,-22,-125,53,189,59,48,-19,-44
-74,-137,-63,106,-5,-99,46,193,58,57,3,-22
-63,-134,-71,99,4,-102,39,205,54,72,23,-1
-41,-113,-72,78,16,-93,27,217,55,89,39,28
-27,-93,-66,61,20,-79,16,228,65,100,72,43
31,-78,-109,24,70,-93,-2,258,71,116,110,69
94,-30,-124,-31,109,-77,-32,289,78,163,147,128
147,13,-134,-80,140,-60,-64,300,77,193,192,189
191,19,-171,-105,181,-76,-126,299,64,213,240,246
241,63,-178,-152,210,-58,-164,269,53,233,294,301
322,131,-191,-226,256,-30,-163,257,32,252,335,362
327,146,-181,-236,254,-17,-178,237,-2,252,357,383
287,124,-163,-205,225,-19,-173,183,-17,222,336,368
257,121,-136,-189,197,-7,-148,132,-9,204,302,352
166,78,-88,-122,127,-5,-103,89,-2,160,229,254
38,-14,-52,-12,45,-32,-51,57,3,96,120,139
-35,-24,11,29,-23,-6,20,43,13,68,65,83
-99,-50,49,74,-74,0,91,30,27,44,7,25
-198,-148,49,173,-123,-49,95,23,23,5,-45,-44
-235,-173,62,203,-148,-55,107,22,22,-13,-56,-72
-231,-167,64,199,-147,-51,111,15,16,-21,-76,-77
-221,-166,56,193,-138,-55,111,17,18,-23,-74,-73
-239,-184,55,211,-147,-64,109,3,11,-14,-72,-78
-177,-130,47,154,-112,-41,112,36,13,-7,-59,-72
-132,-86,46,109,-89,-20,117,59,23,18,-47,-55
-261,-200,61,230,-160,-70,80,15,-18,22,-92,-94
-268,-207,61,237,-164,-73,82,34,-24,-1,-100,-101
-205,-154,52,179,-128,-51,78,51,-9,-7,-85,-83
-207,-161,46,184,-126,-57,83,50,-9,-5,-89,-84
-191,-132,59,161,-125,-36,108,62,4,-5,-89,-83
-200,-134,66,167,-132,-34,106,61,11,-2,-91,-89
-235,-179,55,207,-145,-62,115,70,9,0,-92,-89
-196,-140,56,167,-125,-42,113,68,1,0,-96,-94
-190,-143,47,166,-118,-48,110,65,-2,-10,-95,-95
-232,-186,46,209,-139,-70,111,65,-9,-21,-92,-91
-226,-172,54,198,-140,-59,109,62,-14,-20,-90,-80
-233,-185,48,209,-141,-68,111,61,-9,-20,-90,-74
-203,-181,23,192,-113,-79,107,58,8,-21,-91,-61
-214,-189,25,201,-119,-82,117,68,17,-19,-89,-60
-213,-150,63,181,-138,-43,125,73,5,-22,-91,-82
-190,-131,59,160,-124,-36,120,55,-8,-11,-88,-77
-239,-181,59,210,-149,-61,115,55,-22,-18,-95,-76
-195,-126,69,160,-132,-28,111,60,-15,-34,-110,-68
-191,-125,66,158,-128,-29,121,53,-10,-38,-111,-78
-217,-165,52,190,-134,-56,107,57,-27,-50,-105,-111
-178,-139,39,158,-108,-50,71,52,-27,-33,-90,-93
-204,-137,67,171,-135,-35,61,64,6,-22,-73,-78
-176,-97,79,137,-128,-9,43,77,21,-10,-66,-66
-108,-47,61,77,-84,7,20,73,-7,21,-64,-36
-112,-65,46,88,-79,-10,25,73,-16,26,-66,-40
-115,-82,33,98,-74,-24,49,41,-37,8,-64,-48
-129,-112,17,120,-73,-47,83,42,-45,-4,-70,-49
-203,-165,38,184,-120,-63,99,21,-23,-29,-90,-90
-200,-135,65,168,-132,-35,113,34,-33,-43,-76,-85
-207,-136,72,171,-139,-32,117,14,-63,-38,-111,-104
-238,-191,47,215,-142,-72,102,21,-62,-40,-118,-107
-233,-148,85,190,-159,-31,99,18,-46,-22,-92,-81
-198,-210,-13,204,-92,-111,133,178,18,-43,-134,-140
-152,-228,-76,190,-38,-151,281,955,492,174,-124,-262
-14,274,288,-130,-151,281,184,739,793,598,224,-4
403,945,542,-674,-70,743,-373,-783,-120,620,1002,1100
401,895,493,-648,-46,694,-607,-1747,-1186,14,760,1202
-61,113,174,-27,-117,144,-332,-1400,-1193,-588,-247,106
-230,-244,-15,237,-107,-129,-102,-502,-655,-537,-383,-221
-229,-163,66,196,-148,-48,-7,-83,-180,-221,-214,-151
-171,-176,-5,173,-83,-90,34,63,-11,-71,-145,-123
-137,-160,-23,149,-56,-91,68,101,-7,-48,-132,-117
-197,-206,-9,202,-94,-108,98,116,34,-46,-142,-146
-209,-223,-14,216,-97,-118,109,156,26,-37,-120,-127
-196,-197,-1,197,-98,-99,104,138,9,-32,-129,-130
-193,-197,-4,195,-94,-100,99,149,23,-20,-113,-112
-214,-200,15,207,-114,-92,96,143,30,-16,-112,-110
-205,-190,14,197,-109,-88,89,145,24,-2,-100,-99
-187,-179,8,183,-97,-85,87,150,20,11,-93,-92
-192,-191,1,192,-96,-95,81,148,14,10,-87,-85
-144,-157,-13,151,-65,-85,78,154,27,20,-72,-76
-99,-134,-35,117,-32,-84,73,175,56,32,-58,-75
-84,-127,-43,106,-20,-85,66,183,60,38,-47,-68
-98,-117,-19,108,-39,-68,56,183,59,38,-40,-64
-127,-147,-20,137,-53,-83,48,189,60,43,-30,-49
-79,-133,-54,106,-12,-93,38,192,59,64,-15,-23
-16,-74,-58,46,21,-65,20,196,61,79,12,1
3,-47,-51,22,27,-49,6,226,56,108,48,41
23,-61,-84,20,53,-72,-32,246,45,136,87,79
102,-8,-110,-47,106,-58,-62,252,37,156,134,140
208,90,-118,-149,163,-14,-106,262,28,187,180,197
254,96,-158,-175,206,-31,-161,243,19,200,223,249
272,106,-166,-188,219,-30,-178,223,5,199,267,306
331,164,-168,-247,249,-2,-195,190,-12,208,300,341
362,198,-164,-279,262,17,-189,134,-31,197,297,340
268,165,-103,-216,185,31,-172,81,-51,165,269,296
181,109,-72,-144,126,18,-141,37,-47,133,214,242
117,99,-18,-108,67,40,-84,7,-21,103,137,174
29,55,26,-42,1,41,-36,-16,-4,67,73,87
-108,-78,30,93,-69,-24,5,-41,-14,25,-12,-9
-212,-143,70,177,-141,-36,50,-58,-26,-3,-63,-64
-207,-130,77,168,-142,-26,73,-53,-9,-13,-77,-85
-231,-143,88,186,-159,-27,67,-50,-17,-30,-93,-98
-255,-160,95,207,-175,-32,66,-48,-45,-43,-92,-106
-247,-164,83,205,-165,-40,62,-45,-42,-38,-113,-112
-228,-145,83,186,-155,-30,60,-44,-35,-31,-123,-108
-208,-135,73,171,-140,-31,58,-35,-30,-24,-111,-106
-198,-127,72,162,-135,-27,54,-30,-24,-17,-104,-105
-210,-136,74,172,-141,-31,52,-22,-21,-11,-95,-104
-206,-130,75,167,-140,-27,49,-16,-16,-14,-90,-100
-182,-103,78,142,-130,-12,46,-10,-13,-21,-82,-100
-205,-124,81,165,-142,-21,44,-4,-10,-25,-77,-100
-188,-110,77,149,-132,-16,41,-13,-4,-25,-68,-100
-167,-94,73,130,-119,-10,39,-6,-10,-25,-68,-100
-155,-88,67,121,-111,-10,41,8,-18,-25,-83,-97
-162,-98,64,130,-113,-17,40,5,-15,-25,-89,-91
-172,-113,59,143,-115,-27,40,3,-12,-26,-89,-87
-166,-112,54,139,-110,-29,43,-11,-9,-20,-98,-82
-194,-123,71,158,-133,-26,57,-20,-6,-16,-104,-79
-130,-55,75,92,-102,10,65,-11,-4,-8,-97,-72
-160,-91,69,125,-114,-11,39,-9,-18,-10,-92,-85
-179,-111,68,145,-123,-21,48,0,-32,-26,-87,-106
-122,-61,61,91,-91,0,69,2,-30,-24,-80,-105
-164,-103,62,134,-113,-21,45,2,-30,-21,-95,-104
-133,-89,45,111,-89,-22,53,16,-26,-19,-102,-100
-142,-92,50,117,-96,-21,67,18,-20,-15,-100,-101
-143,-74,69,108,-105,-3,62,25,-19,-14,-100,-98
-142,-81,61,111,-101,-10,58,25,-13,-5,-99,-90
-145,-85,60,115,-102,-12,56,18,-12,2,-101,-85
-116,-60,56,88,-86,-2,48,19,-6,11,-80,-76
-146,-92,55,119,-100,-18,30,13,1,17,-54,-73
-105,-50,55,77,-80,2,14,44,15,23,-44,-58
-73,-17,56,45,-64,19,-46,66,38,36,-41,-54
-55,-2,52,28,-53,25,-73,65,20,33,-23,-53
-46,-24,22,35,-34,-1,-18,25,-1,17,-31,-59
-70,-89,-19,80,-25,-54,16,15,-10,-2,-62,-83
-97,-88,10,93,-53,-39,30,30,-23,-7,-57,-82
-100,-64,35,82,-67,-14,42,1,-29,-20,-46,-78
-109,-49,59,79,-84,5,52,14,-17,-17,-48,-79
-165,-96,69,130,-117,-13,48,-28,-14,-42,-91,-112
-128,-93,35,110,-81,-28,52,14,1,-31,-80,-91
-147,-72,75,109,-111,2,47,-19,-3,-18,-86,-101
-98,-167,-69,132,-14,-118,119,440,163,5,-106,-178
-41,-12,30,27,-36,9,253,1143,741,351,-20,-245
199,580,382,-390,-92,481,-53,243,633,670,539,352
640,1075,436,-858,102,755,-588,-1435,-631,447,1114,1340
403,610,206,-507,98,408,-600,-1918,-1345,-284,365,803
-46,-175,-129,111,41,-152,-313,-1122,-998,-691,-430,-149
-97,-161,-64,129,-17,-112,-127,-333,-411,-388,-269,-166
-69,-42,27,55,-48,-7,-44,-15,-16,-130,-140,-132
-128,-139,-11,133,-58,-75,-9,80,37,-84,-108,-123
-155,-138,17,146,-85,-61,30,59,27,-51,-94,-123
-82,-91,-10,87,-36,-50,34,92,28,-26,-66,-118
-56,-49,7,53,-31,-21,69,124,56,18,-48,-105
-140,-149,-9,145,-65,-79,76,136,74,13,-98,-107
-135,-164,-29,149,-53,-96,32,102,26,-26,-82,-92
-75,-104,-29,90,-23,-66,26,98,33,-19,-62,-94
-80,-112,-32,96,-24,-72,44,131,52,21,-60,-88
-73,-100,-28,86,-22,-64,66,160,71,47,-53,-89
-75,-108,-33,91,-21,-70,47,162,73,44,-48,-84
-62,-89,-27,76,-17,-58,32,156,74,46,-43,-84
-41,-70,-29,56,-6,-49,23,157,80,44,-36,-76
-37,-81,-44,60,4,-62,13,153,80,46,-18,-65
-48,-90,-42,69,-3,-66,5,159,85,45,-1,-61
-16,-62,-46,39,15,-54,-4,176,85,60,3,-37
15,-52,-68,19,42,-60,-23,192,91,85,18,-18
54,-34,-88,-10,72,-61,-58,204,89,91,53,0
115,20,-96,-67,105,-38,-71,232,85,110,84,41
162,50,-112,-106,137,-31,-83,262,86,134,129,91
208,73,-135,-140,171,-31,-119,289,84,165,174,144
265,111,-154,-187,209,-21,-160,291,86,194,227,207
362,184,-178,-273,269,3,-187,280,74,209,273,275
387,199,-189,-293,287,5,-222,253,46,210,296,313
382,197,-185,-289,283,6,-241,203,19,206,330,339
395,214,-181,-304,288,16,-238,139,-15,201,321,346
343,174,-169,-258,256,2,-221,64,-25,167,273,295
282,169,-114,-225,198,27,-150,20,-19,118,224,223
160,99,-61,-130,110,19,-85,-26,-2,67,158,144
43,4,-39,-23,41,-18,-52,-56,21,27,75,57
29,13,-17,-21,23,-2,-9,-48,20,1,19,8
-85,-80,5,82,-45,-37,25,-79,20,-28,-26,-36
-152,-130,22,141,-87,-54,31,-97,21,-40,-54,-82
-123,-85,38,104,-80,-23,29,-87,20,-41,-35,-85
-137,-95,42,116,-89,-26,31,-85,18,-38,-42,-85
-153,-115,38,134,-95,-38,30,-77,8,-45,-69,-95
-181,-139,42,160,-111,-48,30,-73,3,-56,-66,-96
-131,-93,38,112,-84,-27,31,-66,-3,-38,-58,-89
-109,-72,37,90,-72,-17,27,-55,0,-27,-55,-85
-154,-106,48,129,-100,-28,44,-42,26,-23,-54,-82
-142,-111,31,127,-86,-40,27,-35,20,-17,-56,-74
-156,-127,29,141,-92,-48,2,-32,0,-12,-55,-86
-171,-127,44,149,-107,-41,24,-28,10,-6,-55,-95
-145,-110,35,127,-90,-37,26,-25,8,-24,-55,-85
-144,-107,37,125,-90,-35,20,-19,7,-33,-52,-82
-134,-104,30,119,-81,-37,12,-26,17,-28,-47,-80
-137,-106,32,121,-84,-36,7,-31,15,-31,-40,-75
-132,-105,27,118,-79,-39,-2,-30,15,-29,-39,-75
-96,-94,2,95,-48,-46,-3,-28,14,-30,-29,-68
-156,-122,34,139,-95,-43,6,-26,8,-41,-38,-74
-164,-116,49,139,-106,-33,0,-23,13,-40,-55,-96
-156,-113,42,134,-99,-35,25,-30,3,-33,-47,-100
-158,-112,45,135,-102,-33,31,-40,5,-25,-41,-91
-134,-98,36,116,-85,-31,23,-40,18,-20,-34,-89
-175,-130,45,152,-110,-42,21,-43,18,-10,-28,-85
-95,-73,22,83,-58,-25,14,-44,12,-19,-27,-74
-135,-118,18,126,-76,-50,12,-60,-30,-69,-71,-100
-211,-157,54,184,-132,-51,-5,-55,-24,-76,-93,-113
-137,-86,51,111,-94,-18,10,-28,9,-58,-73,-88
-164,-124,40,144,-102,-42,15,-29,2,-51,-67,-86
-181,-138,43,159,-112,-47,12,-26,10,-41,-58,-79
-134,-110,25,122,-79,-42,-19,-19,8,-38,-54,-73
-118,-80,38,99,-77,-21,-53,-22,17,-26,-31,-70
-98,-70,28,84,-63,-20,-56,12,48,-22,-18,-58
-45,-58,-13,51,-16,-36,-108,29,36,18,6,-52
-52,-39,13,45,-33,-13,-93,8,4,26,29,-36
-122,-107,15,115,-68,-46,-44,-26,-23,-48,-34,-60
-119,-132,-14,126,-52,-73,-30,-34,-35,-75,-48,-80
-88,-92,-3,90,-42,-47,-9,-22,-26,-68,-27,-63
-161,-131,30,146,-95,-50,-4,-46,-22,-79,-61,-94
-151,-97,54,124,-102,-21,22,-53,-14,-75,-47,-114
-117,-89,28,103,-73,-30,39,-76,-18,-84,-67,-124
-127,-107,21,117,-74,-43,23,-26,-6,-75,-89,-114
-132,-103,28,117,-80,-37,10,-50,-10,-71,-97,-124
-114,-218,-104,167,-5,-161,102,442,170,-25,-113,-181
-65,-27,38,46,-51,5,233,1107,743,330,-3,-222
250,606,357,-428,-54,481,-96,180,603,658,600,441
652,1031,379,-842,136,705,-620,-1495,-612,377,1061,1323
365,550,184,-458,90,367,-563,-1924,-1233,-314,300,715
-94,-174,-80,134,-7,-127,-281,-1090,-909,-670,-398,-170
-162,-209,-46,186,-58,-127,-132,-329,-380,-410,-261,-177
-149,-123,26,135,-87,-48,-48,-33,-30,-128,-109,-119
-115,-132,-17,123,-49,-74,-38,57,-15,-113,-89,-121
-108,-110,-3,109,-52,-56,-15,69,-5,-107,-94,-126
-164,-185,-21,175,-72,-103,-5,94,14,-94,-82,-132
-130,-159,-29,145,-50,-94,30,78,16,-85,-79,-123
-75,-107,-32,91,-21,-70,53,93,43,-71,-75,-126
-111,-134,-23,123,-44,-78,48,88,48,-71,-68,-124
-108,-146,-38,127,-34,-92,52,104,51,-52,-67,-112
-83,-126,-43,105,-20,-84,48,129,50,-35,-62,-103
-101,-138,-36,119,-32,-87,51,123,49,-26,-58,-91
-85,-129,-45,107,-20,-87,48,128,59,-28,-57,-91
-100,-135,-35,117,-32,-84,42,132,62,-18,-46,-94
-42,-89,-48,66,3,-68,34,128,48,-22,-30,-73
-30,-74,-45,52,8,-59,28,146,78,-6,-7,-63
-115,-163,-48,139,-33,-106,41,152,92,16,1,-57
-8,-73,-65,40,29,-69,43,163,79,11,-16,-35
8,-58,-66,25,38,-62,2,212,81,27,3,-6
22,-81,-103,30,63,-91,-24,213,73,49,44,22
99,-19,-118,-39,108,-68,-36,230,72,85,84,48
121,-6,-127,-57,124,-66,-67,259,85,106,121,90
219,71,-148,-145,183,-38,-92,266,81,132,166,138
292,114,-177,-203,234,-31,-132,272,78,158,222,196
332,133,-199,-232,266,-33,-168,247,72,176,268,257
359,154,-205,-257,282,-25,-191,215,34,187,282,294
402,181,-221,-291,311,-20,-216,185,23,168,310,334
387,190,-197,-288,291,-3,-211,144,31,159,326,339
319,144,-175,-231,246,-15,-172,75,21,135,262,284
248,114,-134,-181,190,-9,-117,20,18,96,207,213
147,79,-67,-113,107,6,-44,-10,11,50,148,127
21,-16,-37,-2,29,-26,5,-50,5,1,59,42
-115,-93,22,104,-69,-35,30,-71,17,-41,-7,-10
-140,-89,51,114,-95,-19,68,-71,27,-64,-47,-48
-132,-90,42,110,-86,-24,87,-68,24,-67,-57,-81
-174,-127,47,150,-111,-39,83,-65,25,-70,-71,-106
-204,-165,40,184,-122,-62,80,-62,25,-70,-77,-112
-183,-142,41,162,-111,-50,77,-60,25,-69,-74,-105
-145,-105,40,125,-92,-32,72,-57,21,-71,-76,-106
-157,-117,40,137,-98,-38,71,-49,20,-69,-75,-99
-176,-137,39,156,-107,-49,75,-41,20,-71,-74,-102
-185,-150,35,167,-110,-57,76,-33,15,-66,-73,-114
-172,-140,33,156,-103,-53,68,-26,15,-58,-75,-105
-148,-118,29,133,-88,-44,77,-20,17,-56,-71,-96
-114,-87,27,100,-70,-30,96,-12,40,-34,-67,-78
-148,-125,23,136,-85,-51,92,-6,47,-49,-64,-88
-197,-164,33,180,-115,-65,79,1,35,-68,-60,-107
-167,-126,41,146,-103,-43,68,8,28,-56,-57,-97
-147,-114,33,130,-90,-40,60,8,17,-61,-49,-101
-135,-105,30,120,-82,-38,60,5,11,-60,-45,-100
-148,-122,26,135,-87,-48,60,2,10,-60,-66,-100
-134,-116,18,125,-76,-49,60,-1,9,-60,-76,-101
-131,-100,31,116,-81,-34,59,-4,2,-59,-68,-99
-144,-103,41,123,-92,-31,62,-6,13,-55,-65,-96
-151,-119,32,134,-91,-43,66,-3,29,-55,-60,-93
-161,-130,31,145,-96,-50,64,-16,21,-55,-55,-90
-123,-99,24,111,-73,-38,69,-25,13,-55,-58,-87
-119,-97,22,108,-70,-37,70,-15,7,-56,-63,-85
-137,-124,13,130,-74,-56,70,-10,-4,-50,-63,-81
-129,-115,14,122,-71,-50,66,-1,3,-65,-75,-99
-125,-94,31,109,-78,-31,59,4,26,-68,-79,-105
-149,-119,29,134,-89,-45,56,3,32,-58,-74,-97
-132,-105,28,118,-80,-39,50,-2,30,-52,-68,-95
-112,-90,22,101,-67,-34,48,3,37,-47,-66,-88
-99,-59,40,79,-69,-10,37,7,34,-31,-44,-81
-98,-55,43,76,-71,-6,20,18,31,-24,-28,-63
-137,-107,30,122,-83,-39,-19,34,47,-33,-37,-52
-34,-12,22,23,-28,5,-30,40,44,10,18,-19
-18,-5,14,11,-16,4,37,44,19,-4,0,-13
-130,-128,2,129,-66,-63,52,8,-14,-62,-67,-69
-96,-113,-17,105,-39,-65,36,-13,-8,-47,-56,-78
-98,-109,-11,104,-44,-60,69,-30,18,-47,-75,-76
-118,-131,-13,125,-52,-72,97,-6,26,-50,-70,-79
-174,-156,17,165,-95,-69,94,-27,15,-66,-83,-113
-176,-162,14,169,-95,-74,96,3,7,-66,-79,-104
-124,-84,40,104,-82,-22,93,-24,17,-53,-76,-93
-122,-181,-59,151,-31,-120,115,203,85,-68,-105,-146
-94,-175,-82,135,-6,-128,271,984,574,191,-70,-261
91,369,278,-230,-93,323,129,607,786,602,335,98
584,1045,462,-815,61,753,-442,-948,-173,578,1077,1207
444,828,385,-636,29,606,-596,-1817,-1117,-62,663,1078
-89,14,102,38,-95,58,-302,-1351,-1059,-620,-287,4
-167,-202,-34,185,-66,-118,-89,-465,-526,-516,-317,-206
-188,-156,31,172,-109,-62,17,-85,-99,-213,-168,-154
-151,-173,-22,162,-64,-98,42,58,16,-91,-98,-107
-127,-150,-23,139,-52,-86,60,83,31,-66,-75,-106
-148,-172,-24,160,-62,-97,85,98,70,-65,-83,-131
-131,-166,-35,148,-48,-100,97,124,62,-64,-67,-110
-151,-196,-45,174,-53,-120,100,116,70,-53,-76,-124
-100,-147,-47,124,-26,-97,92,122,69,-49,-61,-105
-63,-106,-43,85,-10,-74,93,120,77,-44,-64,-113
-145,-192,-47,169,-48,-120,84,117,80,-38,-74,-101
-136,-179,-43,158,-46,-111,92,131,79,-32,-72,-102
-78,-132,-54,106,-12,-93,100,135,71,-27,-59,-94
-83,-139,-56,111,-13,-97,81,136,82,-18,-50,-63
-106,-160,-54,134,-26,-106,68,186,110,-7,-41,-75
-79,-154,-75,117,-2,-114,64,192,92,1,-29,-65
-54,-130,-75,92,11,-102,65,188,88,19,-22,-39
-79,-144,-66,112,-6,-105,65,196,92,22,0,-34
-35,-128,-93,82,29,-110,48,194,93,44,39,-23
18,-90,-108,37,64,-99,22,197,96,68,54,7
58,-52,-110,-3,84,-81,9,215,102,91,88,62
109,-19,-128,-45,119,-73,-23,242,105,117,129,103
138,-17,-155,-60,146,-86,-66,244,87,122,157,143
203,35,-167,-119,185,-66,-81,239,76,162,224,215
314,121,-193,-217,253,-35,-108,236,58,197,294,284
347,145,-202,-246,274,-28,-147,223,39,195,319,335
351,151,-199,-251,275,-24,-168,184,33,186,334,348
387,176,-211,-281,299,-17,-168,145,25,177,347,348
326,163,-163,-244,244,0,-138,98,20,172,304,338
213,90,-122,-151,167,-16,-101,36,14,136,231,267
130,50,-80,-90,105,-15,-49,10,15,82,168,175
67,42,-26,-54,46,8,23,-5,30,39,96,87
5,-8,-13,2,9,-10,72,-24,34,1,36,18
-98,-100,-1,99,-48,-50,88,-35,24,-36,-27,-54
-157,-142,14,149,-85,-64,105,-36,22,-50,-62,-88
-171,-141,30,156,-101,-55,112,-35,14,-51,-68,-95
-168,-138,30,153,-99,-54,108,-32,10,-50,-76,-100
-158,-133,25,145,-91,-54,126,-30,34,-44,-68,-87
-184,-160,24,172,-104,-68,133,-30,42,-60,-93,-118
-172,-151,21,161,-96,-64,123,-27,29,-57,-104,-111
-161,-148,13,155,-87,-67,118,-16,12,-46,-96,-97
-175,-153,22,164,-98,-65,111,19,27,-51,-93,-101
-191,-154,37,172,-114,-58,104,23,52,-49,-80,-102
-186,-159,27,172,-107,-65,98,7,41,-50,-75,-109
-107,-83,24,94,-65,-29,91,11,36,-50,-63,-90
-118,-100,18,109,-68,-41,84,17,32,-50,-66,-90
-177,-166,11,171,-93,-77,80,16,25,-47,-76,-90
-163,-144,19,154,-91,-62,88,12,22,-44,-75,-90
-164,-132,33,148,-98,-49,94,10,17,-41,-75,-90
-156,-130,27,143,-91,-51,91,7,13,-38,-75,-90
-145,-121,24,132,-84,-48,87,4,9,-36,-74,-94
-119,-96,23,107,-71,-36,79,10,0,-32,-78,-99
-137,-132,5,135,-71,-63,81,10,-5,-51,-87,-113
-175,-164,11,169,-93,-76,68,-10,-14,-62,-90,-115
-166,-137,28,151,-97,-54,80,1,1,-59,-93,-115
-151,-106,45,128,-98,-30,101,17,19,-61,-96,-119
-202,-143,59,173,-130,-42,71,-15,-15,-60,-99,-121
-222,-177,45,200,-133,-66,81,-22,-21,-60,-100,-119
-214,-165,48,189,-131,-58,82,-17,-11,-53,-94,-115
-207,-166,42,186,-124,-62,72,-24,-16,-45,-88,-106
-149,-121,28,135,-88,-47,86,8,16,-36,-82,-108
-179,-139,40,159,-109,-49,48,41,43,-30,-77,-111
-85,-76,8,81,-46,-34,-14,26,25,-20,-78,-76
-64,-58,6,61,-35,-26,-44,13,8,-19,-83,-57
-115,-120,-5,117,-54,-62,-6,9,-1,-27,-82,-72
-60,-110,-50,85,-5,-80,30,-10,-28,-49,-91,-89
-116,-125,-10,121,-53,-67,29,-2,-41,-41,-86,-87
-174,-135,39,154,-106,-47,64,-42,-37,-42,-93,-108
-210,-156,54,183,-132,-51,77,-39,-30,-77,-107,-120
-166,-121,45,143,-105,-37,64,-52,-29,-71,-120,-120
-143,-155,-12,149,-65,-83,65,-17,-21,-64,-113,-105
-188,-145,43,166,-115,-50,50,-34,-20,-50,-112,-102
-146,-188,-41,167,-52,-114,88,153,47,-59,-130,-157
-129,-214,-86,171,-21,-150,251,953,535,166,-113,-276
24,306,282,-165,-129,293,135,676,811,598,266,28
511,983,473,-747,18,727,-440,-896,-155,613,1060,1131
472,852,380,-662,45,616,-645,-1839,-1212,-15,746,1153
-37,35,73,1,-55,54,-365,-1413,-1163,-633,-270,57
-198,-268,-70,234,-64,-169,-151,-524,-609,-556,-371,-232
-244,-207,36,225,-139,-85,-34,-124,-155,-223,-192,-149
-167,-201,-34,184,-66,-117,2,31,-6,-90,-116,-117
-113,-170,-56,142,-28,-113,43,79,14,-72,-101,-103
-167,-219,-52,194,-57,-135,59,83,43,-83,-122,-148
-137,-196,-59,167,-39,-127,59,95,30,-61,-99,-130
-131,-182,-51,157,-40,-116,73,97,39,-61,-114,-128
-127,-187,-59,158,-34,-123,58,104,32,-58,-96,-117
-125,-174,-49,150,-38,-111,56,100,40,-44,-87,-116
-128,-179,-51,154,-38,-115,47,105,49,-36,-72,-114
-146,-189,-43,168,-51,-116,41,119,58,-20,-58,-105
-106,-149,-43,128,-31,-96,40,138,74,-18,-55,-111
-110,-146,-36,128,-36,-91,40,132,66,-4,-55,-81
-129,-165,-36,148,-47,-100,35,142,77,-1,-66,-59
-59,-128,-69,94,5,-98,27,155,90,10,-38,-79
-52,-143,-91,98,20,-117,20,139,91,25,-19,-65
-15,-111,-95,63,40,-103,12,151,86,23,-24,-46
-18,-114,-97,66,40,-105,6,188,94,66,3,-44
-19,-126,-107,72,44,-116,-13,190,108,71,29,-15
21,-91,-111,36,66,-101,-44,204,95,87,70,48
43,-87,-130,22,87,-108,-57,221,85,123,109,90
148,-8,-155,-70,151,-81,-85,239,77,130,137,116
216,40,-176,-128,196,-68,-130,251,66,169,197,184
275,71,-204,-172,239,-66,-166,230,61,182,239,248
322,113,-208,-217,265,-47,-199,213,41,204,283,301
365,144,-221,-254,293,-39,-186,175,27,204,308,338
410,209,-201,-309,305,4,-198,137,1,168,286,327
306,152,-153,-229,229,-1,-196,91,-34,162,271,307
223,99,-124,-161,173,-12,-132,36,-26,120,213,236
155,69,-86,-112,120,-8,-84,2,-16,74,133,142
15,-29,-44,7,30,-36,-24,-32,-12,34,68,71
-55,-68,-14,62,-20,-41,37,-53,2,6,4,12
-87,-97,-10,92,-38,-53,66,-75,4,-13,-27,-35
-147,-136,11,141,-79,-62,59,-77,9,-52,-62,-82
-207,-173,35,190,-121,-69,53,-66,9,-55,-86,-91
-200,-170,30,185,-115,-70,49,-62,2,-59,-84,-98
-188,-170,19,179,-104,-75,39,-53,-1,-59,-85,-112
-200,-165,35,183,-118,-65,54,-49,-7,-51,-85,-121
-177,-128,49,152,-113,-39,67,-43,-10,-49,-85,-120
-164,-132,33,148,-98,-49,65,-37,-5,-40,-85,-106
-150,-114,36,131,-92,-39,64,-32,3,-38,-81,-98
-122,-87,35,104,-78,-26,67,-25,9,-29,-75,-87
-117,-82,35,99,-76,-23,61,-21,15,-34,-69,-80
-96,-61,35,78,-65,-13,73,1,24,-20,-64,-69
-76,-47,29,61,-52,-8,80,11,23,-7,-58,-73
-45,-23,23,34,-34,0,77,10,33,-21,-51,-79
-7,8,15,-1,-11,11,93,17,45,-10,-42,-67
10,22,12,-17,-1,17,85,13,38,-4,-33,-62
57,49,-8,-53,33,20,74,23,34,-3,-26,-59
32,48,16,-40,8,32,68,32,28,2,-23,-60
-1,44,46,-22,-24,45,64,29,22,5,-43,-60
8,44,36,-26,-14,40,62,30,23,1,-49,-60
-6,30,36,-13,-21,32,59,31,24,-4,-37,-60
29,62,33,-46,-2,48,55,29,16,2,-34,-50
6,33,28,-19,-11,30,57,31,13,5,-24,-46
3,39,36,-21,-17,37,74,19,6,10,-21,-35
27,70,43,-49,-8,56,75,15,1,-1,-30,-45
17,52,35,-35,-9,44,70,23,10,-12,-37,-73
33,68,35,-51,-1,51,69,36,20,-1,-34,-57
37,60,23,-48,7,41,65,52,32,4,-36,-52
47,70,23,-59,12,46,65,45,29,9,-35,-71
26,33,8,-30,9,20,56,32,25,6,-30,-67
26,40,14,-33,6,26,46,37,24,-12,-39,-58
72,122,51,-97,10,86,40,51,34,15,-23,-49
57,99,42,-78,7,71,20,37,37,23,-20,-42
83,118,36,-101,23,77,7,76,54,39,-20,-27
184,178,-6,-181,95,86,-44,98,73,86,12,-7
169,167,-2,-168,85,82,-51,75,41,64,27,24
77,107,30,-93,23,68,25,59,28,45,9,-1
70,51,-18,-60,44,16,17,56,10,43,0,-43
66,63,-2,-65,34,30,0,36,-28,23,2,-28
37,69,32,-54,3,50,47,23,-26,15,-10,-45
30,92,62,-61,-17,77,70,40,-16,12,-41,-62
37,87,50,-62,-7,68,68,11,-8,-10,-75,-62
65,97,32,-81,16,64,69,64,34,22,-57,-51
15,69,55,-42,-20,62,56,7,15,-4,-80,-78
47,-58,-105,6,76,-81,142,517,204,32,-87,-155
78,131,53,-104,12,92,263,1140,806,402,23,-201
466,856,391,-661,37,623,-77,123,603,732,678,540
854,1258,405,-1056,224,831,-607,-1538,-690,442,1131,1405
424,601,177,-513,124,389,-561,-1897,-1294,-321,265,691
130,11,-118,-70,124,-53,-252,-1008,-884,-622,-384,-138
73,30,-42,-51,57,-6,-102,-287,-333,-318,-212,-130
63,110,47,-87,8,78,-23,-13,-29,-71,-78,-80
125,120,-5,-123,64,57,24,93,17,-44,-65,-56
-29,-17,12,23,-20,-3,75,104,66,-48,-93,-102
-1,14,15,-7,-8,14,75,128,66,-26,-81,-113
118,135,17,-126,50,76,79,122,68,15,-86,-97
46,53,6,-50,20,29,92,140,90,17,-87,-95
45,45,0,-45,22,22,80,130,82,12,-79,-63
104,77,-27,-90,65,25,78,116,86,8,-72,-74
135,93,-42,-114,88,26,67,126,78,8,-59,-93
161,122,-38,-142,99,42,65,164,82,30,-31,-51
58,15,-42,-36,50,-13,54,174,78,4,-37,-51
94,49,-45,-71,69,2,64,171,93,47,-44,-65
189,145,-45,-166,117,50,67,180,108,78,-26,-58
143,95,-48,-119,95,23,46,177,98,64,-2,-34
152,102,-50,-127,101,26,36,184,100,74,38,-8
145,95,-50,-120,97,22,23,183,92,72,39,-17
168,114,-54,-141,111,30,19,205,90,96,60,23
222,145,-77,-183,150,34,-4,222,115,127,94,59
265,160,-104,-212,184,28,-23,241,132,157,109,85
322,202,-120,-262,221,41,-56,296,148,183,159,133
344,211,-133,-277,238,39,-93,295,138,175,213,179
448,293,-155,-370,301,69,-115,283,117,217,256,243
522,326,-196,-424,359,65,-166,281,89,243,294,301
544,352,-192,-448,368,79,-190,234,51,221,317,336
584,406,-178,-494,381,113,-192,210,66,251,355,383
557,386,-171,-471,363,107,-184,160,28,220,330,361
554,419,-135,-487,344,142,-152,100,0,196,290,314
406,305,-100,-355,253,102,-103,38,33,151,229,244
235,176,-59,-205,147,58,-68,-46,10,81,145,137
228,197,-30,-212,129,83,-26,-51,32,80,102,102
140,140,0,-140,69,70,31,-50,61,22,32,41
66,102,37,-84,14,69,76,-72,47,-11,6,-13
35,82,47,-59,-6,64,110,-73,50,-18,-16,-42
43,91,49,-67,-3,70,111,-63,42,-34,-33,-76
29,80,51,-54,-11,66,102,-59,41,-29,-49,-67
11,59,49,-35,-19,54,95,-50,36,-31,-63,-65
58,110,52,-84,3,81,87,-44,32,-22,-52,-83
0,64,64,-32,-32,64,80,-68,29,-37,-54,-88
-8,49,57,-21,-33,53,75,-49,26,-37,-44,-77
22,73,51,-48,-15,62,62,-44,20,-22,-49,-75
61,104,42,-83,9,73,66,-56,23,0,-18,-68
46,82,36,-64,5,59,94,-41,46,20,-32,-65
9,38,29,-24,-10,33,102,-40,52,6,-54,-61
77,90,12,-84,32,51,90,-29,43,-12,-29,-57
78,115,37,-97,21,76,92,-27,44,-26,-43,-55
57,109,52,-83,3,80,82,-42,39,-40,-32,-46
24,62,38,-43,-7,50,81,-42,34,-30,-33,-63
48,86,38,-67,5,62,84,-15,36,-19,-22,-42
78,108,30,-93,24,69,53,-46,17,-17,-29,-42
62,85,23,-74,20,54,84,-85,48,17,-71,-89
7,51,45,-30,-19,48,68,-67,23,-25,-63,-81
-38,18,56,10,-47,37,64,-58,17,-20,-57,-73
-12,38,50,-13,-31,43,100,-51,59,25,-53,-70
25,71,46,-48,-11,58,74,-45,33,-1,-45,-71
23,67,44,-45,-11,56,66,-37,39,-4,-39,-68
-5,31,36,-13,-21,33,76,-31,21,-23,-26,-74
14,53,39,-33,-13,46,63,-14,24,-16,-18,-62
10,61,51,-36,-21,56,25,-44,21,-34,-40,-56
1,46,44,-24,-22,45,64,-77,16,-65,-65,-92
20,73,53,-47,-17,63,88,-45,36,-30,-41,-64
40,88,48,-64,-5,68,61,-45,28,-18,-26,-53
-35,22,57,6,-46,39,64,-44,25,-39,-50,-78
-29,32,61,-2,-45,46,66,-39,18,-44,-63,-80
38,92,54,-65,-9,73,49,-41,54,-38,-63,-79
20,74,54,-47,-17,64,27,-16,53,-34,-49,-63
84,106,22,-95,31,63,-8,18,37,-14,-26,-49
117,128,11,-123,53,69,-54,10,33,13,-15,-51
103,123,19,-113,42,71,-37,-9,1,11,-1,-44
74,91,16,-82,29,53,22,-25,8,-10,-33,-45
69,41,-29,-55,49,6,37,-27,9,-18,-46,-39
71,79,8,-75,31,43,50,-47,6,-31,-23,-38
-43,-1,42,22,-43,21,87,-73,15,-66,-69,-80
-46,-2,44,24,-45,21,85,-77,2,-75,-93,-89
-55,3,58,26,-57,31,84,-80,-21,-73,-93,-95
-70,-20,50,44,-60,15,85,-40,-15,-64,-91,-81
27,63,36,-45,-4,49,73,-59,-2,-69,-100,-100
20,-89,-109,35,65,-99,162,534,236,11,-116,-197
42,125,83,-83,-21,104,247,1052,794,398,28,-191
480,853,373,-667,53,613,-137,-82,484,691,718,632
770,1156,386,-963,192,770,-613,-1676,-765,328,1033,1369
334,520,186,-427,74,353,-492,-1884,-1235,-393,138,548
29,-81,-109,26,69,-95,-208,-966,-821,-631,-407,-182
-2,-11,-9,7,4,-11,-64,-291,-288,-328,-227,-145
-2,40,42,-19,-23,41,11,-51,-5,-106,-108,-146
-25,-31,-6,28,-10,-18,34,25,2,-78,-81,-110
-105,-85,20,94,-62,-32,55,31,35,-73,-97,-118
-35,-42,-7,39,-14,-24,62,59,33,-63,-76,-105
-11,-21,-10,16,0,-15,81,61,42,-72,-82,-103
18,-39,-57,11,37,-48,71,66,57,-39,-63,-92
42,-13,-55,-14,48,-33,84,80,63,-24,-55,-80
37,-17,-54,-9,45,-35,104,104,85,-56,-85,-120
62,5,-57,-33,59,-26,91,99,73,-23,-63,-101
59,6,-54,-32,57,-24,94,100,74,-18,-71,-83
54,-1,-55,-26,54,-28,78,100,67,-8,-60,-81
57,8,-49,-33,53,-20,57,101,66,15,-35,-67
46,-6,-51,-20,48,-28,46,98,60,6,-40,-66
74,27,-47,-50,60,-10,35,110,68,23,-29,-44
102,55,-46,-78,74,5,54,137,92,49,-21,-26
41,-1,-42,-19,42,-21,48,133,85,68,-7,-36
87,17,-70,-52,79,-26,15,144,79,62,14,-19
186,103,-83,-144,134,10,5,180,80,78,45,21
208,109,-99,-158,154,5,-14,201,66,101,81,60
282,161,-120,-221,201,21,-46,236,86,133,127,115
378,244,-134,-311,256,54,-71,257,98,173,181,169
387,210,-177,-298,281,17,-129,238,66,177,219,222
448,265,-183,-356,315,41,-179,240,65,212,269,283
475,279,-196,-377,335,41,-170,212,50,215,303,319
478,287,-191,-382,334,47,-187,148,24,202,324,359
479,321,-158,-399,318,81,-193,95,35,200,319,364
382,256,-126,-319,254,65,-151,36,25,151,249,302
350,265,-85,-308,218,89,-111,-17,14,102,194,231
257,197,-60,-226,158,68,-38,-57,32,59,119,137
132,118,-14,-125,73,52,14,-88,31,34,30,54
55,77,22,-66,16,49,19,-78,21,2,5,3
3,37,33,-20,-15,35,78,-74,39,-7,-39,-47
-33,14,47,9,-40,30,128,-101,63,-25,-86,-107
-39,16,55,11,-47,35,124,-113,62,-50,-101,-126
-65,6,71,29,-68,39,123,-99,38,-50,-91,-115
-87,-15,72,51,-79,28,120,-66,29,-71,-71,-113
-55,5,60,25,-57,32,112,-71,49,-49,-94,-97
-76,-18,59,47,-67,20,105,-55,48,-49,-101,-100
-36,10,46,12,-41,28,92,-35,37,-63,-89,-99
-47,2,49,22,-48,25,88,-32,42,-63,-81,-101
-91,-31,59,61,-75,14,75,-37,18,-82,-72,-105
-14,39,52,-13,-33,45,88,-35,22,-42,-92,-104
-38,26,63,6,-50,45,108,-3,36,-43,-92,-105
-54,11,64,21,-59,37,89,-39,21,-43,-83,-57
-26,21,46,2,-36,33,102,-38,41,-2,-79,-70
-39,8,47,15,-43,27,81,-25,19,-37,-74,-100
-67,-4,63,35,-65,30,74,-56,-6,-64,-91,-89
-76,-12,64,44,-70,26,97,-54,-6,-64,-90,-88
8,62,54,-36,-23,58,80,-45,-18,-66,-78,-83
-28,27,55,0,-42,41,76,-36,-1,-64,-73,-81
-59,-14,45,36,-52,15,75,-50,8,-65,-83,-71
-15,34,49,-10,-32,41,74,-55,-14,-66,-85,-93
-31,41,72,-5,-52,56,77,-46,-6,-51,-60,-88
-55,17,72,18,-63,45,98,-45,2,-61,-82,-94
-117,-54,63,85,-90,5,92,-38,-36,-79,-104,-126
-82,-21,61,51,-71,20,87,-36,-16,-65,-88,-112
-5,47,52,-21,-28,49,76,-38,-6,-63,-84,-108
-47,4,51,22,-49,27,61,-42,-19,-68,-86,-114
-32,42,75,-5,-54,58,104,-36,35,-61,-76,-87
-46,27,73,10,-60,49,96,-47,14,-72,-86,-82
-99,-39,59,69,-79,10,70,-59,-25,-77,-93,-130
-34,22,56,6,-45,39,56,-31,15,-42,-57,-101
23,62,39,-43,-8,50,16,13,27,-21,-34,-60
59,98,38,-79,10,68,-10,20,48,-10,-20,-45
7,47,39,-27,-16,43,-30,-14,18,-20,-35,-38
-54,-28,26,40,-40,-1,9,-57,-40,-48,-61,-76
-9,-16,-7,12,-1,-11,56,-56,-39,-69,-60,-60
-33,-11,22,22,-27,5,83,-64,-41,-97,-73,-68
-66,-14,52,40,-59,19,95,-65,-9,-108,-67,-79
-82,-25,57,54,-69,15,75,-66,-25,-96,-84,-93
-114,-71,43,93,-78,-14,85,-71,-56,-104,-114,-132
-141,-96,45,118,-93,-25,72,-45,-24,-79,-91,-117
-106,-72,34,89,-69,-19,85,-26,-16,-86,-104,-132
-45,-143,-98,94,27,-120,226,632,303,15,-127,-212
-43,91,134,-24,-88,112,253,942,782,419,30,-201
390,841,450,-616,-31,645,-211,-308,306,634,772,724
636,1101,465,-868,85,782,-636,-1648,-868,231,999,1361
176,448,272,-312,-48,359,-436,-1726,-1245,-456,31,410
-112,-110,2,111,-57,-54,-147,-856,-815,-657,-430,-226
-115,-95,20,105,-68,-37,-34,-236,-307,-347,-252,-173
-83,-43,40,63,-62,-1,59,-50,-11,-134,-147,-144
-161,-150,10,155,-85,-70,80,15,-6,-117,-124,-114
-138,-119,19,128,-78,-50,80,27,-17,-107,-143,-157
-100,-98,2,99,-51,-48,92,55,2,-93,-121,-148
-160,-152,8,155,-83,-72,90,37,1,-87,-126,-147
-115,-119,-4,117,-55,-61,83,56,16,-74,-116,-136
-132,-135,-3,134,-64,-69,74,74,16,-76,-111,-121
-89,-114,-25,101,-32,-69,69,75,33,-74,-109,-118
-83,-124,-41,103,-20,-82,58,76,26,-74,-91,-108
-87,-127,-41,107,-23,-84,69,72,9,-67,-82,-107
-61,-106,-45,85,-8,-75,78,88,38,-56,-92,-93
-46,-94,-48,70,1,-70,67,91,53,-52,-87,-88
-4,-53,-49,29,23,-51,65,83,40,-21,-91,-94
-89,-143,-54,116,-17,-98,50,69,29,-27,-95,-86
-42,-95,-54,69,6,-74,49,90,37,-7,-53,-73
11,-47,-58,19,34,-52,35,146,57,41,-27,-58
-18,-91,-73,55,27,-81,26,146,51,36,-3,-19
63,-16,-79,-23,71,-47,17,155,49,67,38,28
87,-23,-111,-31,99,-67,-31,183,44,77,67,55
110,-16,-126,-47,118,-70,-64,184,41,85,108,109
192,57,-135,-124,164,-39,-97,192,34,125,168,171
262,110,-151,-186,206,-20,-124,179,5,145,219,224
286,130,-156,-208,220,-12,-160,152,-16,158,252,289
326,159,-166,-242,246,-3,-194,129,-33,170,292,335
317,168,-149,-243,233,10,-185,92,-51,166,299,347
313,178,-135,-245,224,21,-192,43,-67,144,275,324
331,228,-104,-279,217,62,-143,-3,-62,132,264,288
150,93,-57,-121,103,18,-57,-54,-52,75,152,178
26,-8,-34,-9,30,-21,-32,-94,-44,9,42,59
-49,-40,9,44,-29,-15,12,-114,-35,-24,-4,-5
-120,-87,33,103,-76,-26,55,-122,-27,-64,-60,-70
-125,-74,50,99,-87,-12,82,-120,-17,-79,-88,-99
-191,-113,78,151,-134,-17,105,-120,-48,-102,-133,-126
-196,-121,75,158,-135,-22,100,-121,-64,-117,-147,-146
-169,-97,72,133,-120,-12,94,-119,-57,-105,-137,-132
-194,-115,79,154,-136,-18,88,-115,-59,-105,-138,-143
-224,-137,87,180,-155,-25,80,-108,-53,-98,-131,-153
-199,-119,80,159,-139,-20,75,-104,-57,-95,-130,-140
-186,-115,71,150,-129,-22,70,-96,-59,-100,-124,-134
-164,-99,65,131,-114,-17,77,-78,-60,-104,-118,-128
-165,-108,56,136,-111,-26,79,-75,-67,-103,-110,-120
-206,-147,60,176,-133,-43,58,-76,-74,-100,-105,-115
-145,-76,69,111,-107,-3,58,-74,-61,-99,-96,-108
-173,-104,69,139,-121,-18,40,-76,-55,-95,-100,-113
-210,-145,65,177,-137,-40,30,-74,-50,-95,-124,-129
-109,-46,63,77,-86,8,77,-82,-25,-103,-124,-129
-167,-108,59,137,-113,-24,86,-82,-59,-107,-118,-123
-217,-159,58,187,-137,-50,70,-77,-70,-102,-117,-122
-127,-75,51,100,-89,-12,61,-67,-53,-93,-110,-115
-137,-82,55,109,-96,-13,57,-65,-62,-89,-108,-115
-190,-122,68,155,-128,-27,63,-54,-63,-80,-118,-107
-199,-140,59,169,-129,-40,64,-53,-81,-76,-126,-102
-168,-117,51,143,-109,-33,69,-63,-63,-81,-107,-97
-130,-83,46,106,-88,-18,70,-38,-36,-85,-93,-87
-171,-139,32,155,-101,-53,71,-76,-70,-112,-126,-138
-189,-136,54,162,-122,-40,69,-94,-84,-110,-130,-150
-149,-68,81,108,-115,6,71,-61,-59,-78,-113,-116
-158,-91,67,124,-113,-12,69,-80,-74,-90,-117,-121
-172,-110,62,140,-117,-23,61,-76,-73,-88,-109,-113
-124,-69,55,96,-89,-7,30,-48,-38,-56,-108,-113
-110,-65,45,87,-77,-10,-3,-41,-37,-59,-101,-107
-120,-65,55,93,-88,-5,-39,-61,-52,-40,-61,-75
-89,-38,51,63,-70,7,-61,-44,-41,-29,-32,-54
-94,-50,44,72,-69,-3,-7,-37,-34,-63,-74,-68
-114,-108,6,111,-60,-50,17,-64,-70,-85,-91,-84
-148,-129,19,138,-83,-55,23,-80,-91,-94,-88,-98
-190,-121,69,155,-129,-26,44,-74,-76,-91,-110,-107
-184,-115,69,150,-126,-23,61,-55,-71,-81,-100,-102
-175,-102,74,139,-124,-14,87,-73,-67,-84,-130,-100
-216,-153,63,184,-139,-45,78,-27,-55,-70,-118,-78
-208,-155,53,181,-130,-51,63,-90,-62,-98,-130,-138
-149,-223,-74,186,-37,-148,137,382,146,-68,-159,-208
-107,-59,48,83,-78,-5,269,1032,731,300,-69,-263
267,660,394,-463,-64,527,-43,129,599,658,552,410
626,1093,467,-860,79,780,-602,-1461,-668,399,1094,1357
299,543,244,-421,28,393,-593,-1905,-1366,-349,284,726
-100,-159,-59,130,-21,-109,-281,-1122,-1000,-718,-450,-160
-174,-181,-6,178,-84,-93,-90,-368,-430,-446,-301,-195
-115,-87,28,101,-71,-29,0,-90,-64,-163,-184,-151
-140,-153,-14,146,-63,-83,20,13,-12,-120,-146,-112
-198,-176,21,187,-109,-77,47,19,-7,-121,-146,-140
-161,-178,-17,170,-72,-97,62,50,18,-108,-137,-134
-167,-150,16,158,-91,-67,79,33,31,-104,-131,-133
-153,-148,5,150,-79,-71,81,45,33,-93,-127,-134
-142,-164,-22,153,-59,-93,81,76,19,-78,-113,-118
-102,-135,-33,119,-34,-84,87,84,23,-67,-106,-119
-102,-141,-39,122,-31,-90,83,88,5,-75,-97,-109
-83,-115,-31,99,-25,-73,86,91,32,-77,-98,-114
-76,-114,-38,95,-19,-76,84,97,49,-64,-81,-95
-78,-111,-33,95,-22,-72,86,98,37,-56,-84,-94
-32,-68,-36,50,2,-52,79,127,74,-44,-87,-94
-48,-104,-55,76,4,-79,50,137,81,-36,-75,-90
-50,-120,-70,85,10,-94,32,134,70,-22,-59,-78
-37,-108,-71,73,18,-89,26,135,70,-2,-36,-41
21,-54,-74,17,48,-64,13,136,62,16,-5,-18
65,-34,-100,-15,83,-67,-13,165,61,36,28,7
100,-14,-114,-43,107,-64,-39,183,65,46,48,40
124,18,-105,-71,114,-43,-67,193,64,69,86,80
193,62,-131,-128,162,-34,-100,230,69,108,146,147
327,170,-157,-248,242,6,-119,233,64,147,209,229
320,139,-181,-229,250,-21,-176,193,17,164,229,272
315,111,-205,-212,260,-47,-225,172,-14,155,249,297
386,192,-194,-289,290,-1,-209,159,-7,158,291,339
383,196,-187,-290,285,4,-208,107,-15,139,271,336
338,182,-155,-260,246,13,-194,33,-23,102,224,304
229,135,-95,-181,162,20,-134,-10,-15,59,170,219
121,63,-58,-92,90,2,-73,-51,-10,24,105,114
79,46,-33,-62,56,6,-13,-81,-1,-5,40,49
16,17,1,-16,7,9,26,-83,0,-45,-17,-9
-75,-45,30,60,-52,-7,52,-96,5,-65,-65,-51
-195,-144,51,169,-123,-46,70,-120,0,-106,-104,-98
-192,-141,51,167,-122,-45,62,-117,-16,-124,-110,-114
-153,-111,42,132,-97,-34,57,-95,0,-111,-100,-108
-183,-126,57,154,-120,-34,52,-93,9,-111,-101,-111
-172,-121,51,146,-111,-35,43,-88,-9,-104,-91,-105
-178,-127,50,152,-114,-38,54,-84,2,-101,-94,-104
-174,-113,61,143,-117,-26,63,-81,11,-96,-117,-109
-199,-146,52,172,-125,-47,53,-75,3,-89,-116,-106
-157,-118,39,137,-98,-39,48,-65,0,-85,-107,-98
-94,-56,38,75,-66,-9,48,-55,-6,-77,-102,-90
-100,-68,32,84,-66,-18,51,-46,-8,-77,-91,-82
-96,-98,-2,97,-46,-50,49,-32,-35,-100,-83,-102
-161,-151,10,156,-86,-70,42,-60,-25,-106,-102,-107
-176,-138,38,156,-107,-49,37,-78,-24,-98,-112,-96
-162,-117,45,139,-103,-36,28,-57,-46,-98,-103,-92
-145,-104,41,124,-93,-31,24,-53,-25,-91,-103,-94
-81,-51,30,66,-55,-10,14,-48,-25,-91,-96,-98
-81,-55,26,68,-53,-14,20,-45,-25,-72,-95,-100
-73,-59,14,66,-44,-22,34,-44,-26,-63,-102,-106
-130,-100,30,115,-80,-35,22,-32,-32,-97,-109,-97
-163,-108,55,135,-109,-26,28,-56,-40,-107,-93,-101
-138,-83,55,110,-96,-14,17,-74,-53,-104,-85,-104
-203,-143,60,173,-131,-41,13,-65,-49,-103,-101,-92
-182,-122,60,152,-120,-31,18,-65,-47,-99,-100,-92
-186,-137,50,161,-118,-43,12,-60,-44,-101,-99,-86
-166,-121,46,143,-106,-37,23,-60,-45,-104,-101,-80
-97,-61,35,79,-66,-13,10,-55,-38,-107,-100,-87
-135,-103,31,119,-83,-36,24,-51,-25,-110,-97,-89
-110,-91,20,100,-65,-35,22,-47,-34,-112,-94,-95
-134,-120,14,127,-73,-53,6,-45,-43,-116,-96,-103
-217,-171,46,194,-131,-63,-13,-40,-30,-109,-93,-92
-117,-74,43,95,-80,-15,-17,-35,-13,-83,-81,-83
-23,3,25,10,-24,14,-18,-12,2,-69,-65,-62
-81,-60,21,70,-51,-19,-101,20,18,-72,-64,-50
-66,-63,3,64,-34,-30,-105,1,-11,-78,-65,-46
-37,-32,5,35,-21,-14,-53,-17,-51,-80,-64,-33
-25,-41,-16,33,-4,-29,-24,-23,-50,-88,-67,-55
-23,-28,-5,26,-9,-16,-7,-45,-49,-88,-62,-84
-80,-71,9,76,-44,-31,-4,-48,-52,-96,-78,-89
-138,-119,19,128,-79,-49,20,-47,-47,-105,-91,-95
-166,-132,35,149,-100,-48,29,-68,-53,-112,-100,-107
-106,-92,15,99,-60,-38,22,-8,-38,-88,-68,-75
-110,-76,34,92,-72,-21,4,-57,-26,-96,-88,-98
-78,-188,-110,134,16,-149,83,414,154,-67,-126,-168
-40,-15,25,27,-33,5,214,1100,730,293,-28,-219
300,656,355,-478,-28,505,-90,200,617,647,580,441
738,1113,375,-926,181,744,-629,-1479,-623,394,1089,1365
396,581,185,-489,105,382,-616,-1948,-1301,-340,303,744
-18,-123,-106,70,44,-114,-300,-1120,-945,-689,-409,-144
-63,-115,-52,89,-5,-83,-147,-359,-388,-422,-282,-153
-93,-60,33,76,-63,-14,-80,-86,-58,-174,-166,-123
-82,-99,-18,91,-32,-58,-36,26,-6,-120,-95,-104
-71,-78,-7,74,-32,-42,14,44,16,-107,-94,-105
-107,-132,-26,120,-40,-79,26,77,23,-105,-105,-96
-107,-116,-9,112,-49,-62,19,69,16,-90,-88,-87
-78,-97,-20,88,-29,-58,15,75,27,-73,-78,-86
-71,-112,-41,92,-15,-76,27,81,38,-68,-69,-75
-54,-100,-46,78,-4,-73,36,78,47,-63,-66,-73
-61,-105,-45,84,-7,-75,26,77,47,-62,-56,-62
-29,-73,-45,51,9,-59,16,86,51,-58,-53,-60
14,-31,-45,9,30,-38,15,107,51,-55,-44,-40
-1,-47,-46,25,22,-46,34,129,71,-54,-36,-52
-9,-61,-52,35,21,-56,12,139,67,-45,-28,-70
-11,-67,-55,40,22,-61,11,134,70,-39,-15,-52
40,-20,-60,-10,50,-40,7,160,88,-26,-14,-45
78,15,-63,-47,70,-23,-32,181,83,-10,-13,-29
65,-17,-82,-24,74,-49,-38,180,87,15,5,5
112,12,-99,-62,105,-43,-51,186,83,36,32,30
171,63,-108,-117,139,-22,-58,223,91,71,90,77
181,55,-125,-118,153,-35,-98,262,106,107,128,128
231,75,-157,-153,194,-41,-145,273,92,112,157,159
347,168,-179,-257,263,-6,-162,272,74,147,217,232
385,189,-196,-287,291,-4,-207,250,47,166,253,289
383,163,-220,-273,301,-28,-244,220,24,157,273,315
459,245,-214,-352,337,15,-236,203,10,163,304,361
465,263,-202,-364,333,30,-234,145,5,153,306,358
403,222,-181,-312,292,20,-239,69,-22,112,272,315
320,194,-126,-257,223,34,-186,32,-41,65,211,247
157,70,-88,-113,122,-9,-118,-22,-36,8,118,147
95,53,-43,-74,69,5,-57,-43,-11,-20,59,78
0,0,0,0,0,0,-11,-65,17,-26,-6,2
-57,-52,4,54,-30,-24,27,-80,8,-73,-33,-23
-39,-23,16,31,-27,-4,68,-64,36,-89,-38,-38
-92,-73,19,82,-55,-27,66,-90,44,-84,-85,-89
-111,-72,39,91,-75,-16,56,-82,29,-81,-74,-78
-120,-67,53,93,-86,-7,52,-72,28,-74,-69,-73
-116,-78,39,97,-77,-19,41,-70,15,-73,-69,-69
-139,-99,40,118,-89,-29,38,-59,13,-64,-58,-60
-123,-94,29,108,-75,-32,33,-57,2,-73,-70,-67
-54,-26,29,40,-41,1,37,-45,18,-84,-80,-70
-18,-2,16,10,-17,7,51,-34,39,-72,-85,-66
-60,-58,2,59,-31,-27,48,-23,32,-63,-81,-63
-50,-16,34,33,-42,9,45,-17,31,-55,-75,-58
-45,-2,42,23,-44,20,43,-15,26,-55,-71,-55
-122,-84,38,103,-80,-22,32,-8,15,-72,-64,-67
-94,-54,40,73,-67,-7,24,-6,3,-75,-59,-71
-64,-32,32,47,-48,0,-1,-26,-12,-66,-54,-64
-97,-58,39,77,-68,-9,9,-40,-16,-65,-56,-63
-57,-34,23,45,-40,-5,33,-31,-7,-58,-55,-57
-65,-42,22,53,-43,-10,29,-32,-3,-55,-54,-53
-76,-30,46,53,-61,8,30,-26,0,-74,-78,-66
-16,29,44,-7,-30,36,26,-13,0,-83,-83,-69
-76,-37,39,57,-58,1,24,-29,-17,-77,-76,-65
-98,-59,39,78,-68,-10,25,-23,-15,-76,-70,-60
-64,-30,34,46,-49,2,31,-13,0,-74,-67,-59
-26,0,27,13,-26,13,33,-2,17,-71,-56,-50
-43,9,53,17,-48,31,27,28,36,-68,-60,-48
-115,-53,62,84,-88,4,22,21,28,-66,-87,-72
-52,-3,48,27,-50,22,19,15,19,-63,-82,-68
-40,21,61,9,-51,41,13,12,11,-59,-78,-65
-86,-30,56,58,-71,13,11,-8,5,-66,-75,-63
-100,-51,49,76,-75,-1,17,-20,5,-70,-70,-59
-83,-53,30,68,-56,-11,28,-21,-2,-63,-68,-59
-16,2,18,7,-17,10,31,-11,5,-56,-58,-51
-36,19,56,8,-46,37,-3,-7,19,-46,-53,-50
-52,4,57,24,-54,30,-16,11,34,-31,-45,-42
44,81,37,-62,3,59,-44,49,38,-23,-30,-34
62,95,33,-79,15,64,-78,68,28,-1,-3,6
40,54,14,-47,13,33,-44,58,7,-13,8,8
33,2,-31,-17,32,-15,-12,24,-23,-83,-29,-57
66,29,-37,-47,51,-3,-6,9,-19,-89,-41,-66
63,75,13,-69,25,44,30,1,6,-91,-46,-51
-71,-39,31,55,-51,-4,76,13,2,-98,-76,-57
-52,7,59,22,-56,33,81,-33,-6,-80,-94,-82
-39,-18,21,29,-30,1,70,-19,7,-87,-82,-74
-118,-58,60,88,-89,1,63,-19,9,-61,-60,-58
-14,-45,-31,29,9,-38,86,137,49,-75,-90,-90
15,-97,-112,42,64,-104,221,920,476,120,-94,-210
155,388,233,-272,-39,310,166,827,853,567,256,42
634,1036,402,-835,116,719,-388,-731,6,600,990,1106
656,988,331,-822,163,659,-639,-1850,-1076,30,787,1239
210,262,52,-236,78,157,-341,-1482,-1092,-552,-173,185
-44,-141,-98,93,27,-119,-138,-583,-617,-554,-361,-182
-73,-44,29,58,-50,-7,-24,-126,-146,-237,-169,-97
-38,-31,6,34,-22,-12,35,62,41,-94,-94,-73
-20,-20,0,20,-10,-10,52,97,31,-72,-90,-64
-23,-55,-32,39,5,-43,52,101,40,-49,-101,-74
-3,-55,-51,29,24,-52,68,99,45,-41,-87,-59
44,5,-39,-24,42,-17,100,109,74,-48,-87,-69
29,-21,-50,-4,40,-36,87,150,85,-48,-70,-60
23,-17,-40,-2,31,-28,87,148,94,-41,-60,-59
60,11,-50,-35,55,-19,81,139,86,-40,-46,-57
48,9,-38,-28,43,-14,76,133,80,-33,-30,-49
18,-35,-53,9,36,-44,73,151,73,-33,-41,-56
56,-22,-79,-17,68,-50,62,158,63,-18,-35,-61
102,29,-74,-65,88,-22,55,152,49,8,-6,-48
81,6,-75,-43,78,-35,44,164,74,8,-30,-38
52,-9,-61,-21,57,-35,37,180,106,26,-23,-15
87,8,-80,-47,83,-36,28,162,78,22,-6,-4
166,77,-89,-122,127,-6,39,194,100,46,41,47
197,102,-95,-150,146,4,24,251,133,97,78,84
201,70,-131,-136,166,-30,0,245,124,92,71,83
258,130,-128,-194,193,1,-7,258,123,116,132,137
385,216,-169,-301,277,23,-59,283,116,147,165,171
420,227,-193,-323,306,17,-99,277,102,161,212,231
435,234,-201,-334,318,16,-123,271,88,193,279,311
510,290,-220,-400,364,35,-143,262,73,214,327,378
501,296,-205,-399,353,45,-175,224,57,227,361,411
503,293,-211,-397,357,40,-196,174,42,214,352,399
487,304,-183,-395,335,60,-164,127,40,193,336,383
439,287,-151,-363,295,68,-125,83,40,159,286,333
369,255,-114,-312,241,70,-66,54,36,105,216,257
234,163,-71,-198,152,46,0,15,34,51,114,143
136,84,-52,-110,94,16,53,-26,36,11,38,61
88,61,-27,-74,57,17,91,-31,39,-2,17,30
74,67,-7,-70,40,30,113,-22,42,-26,-25,-4
18,47,29,-33,-5,37,127,-20,45,-47,-47,-30
-45,1,46,22,-46,23,125,-15,47,-39,-43,-50
3,14,12,-9,-5,13,125,-10,51,-35,-54,-53
27,29,1,-28,13,15,126,-24,47,-33,-60,-49
13,45,33,-29,-10,39,124,-32,45,-22,-48,-38
-10,13,23,-2,-16,18,122,-25,54,-41,-63,-57
-64,-49,15,56,-40,-17,118,-19,55,-55,-75,-70
-31,-6,25,19,-28,9,117,4,55,-36,-56,-51
15,9,-6,-12,10,1,113,20,55,-35,-53,-48
61,38,-24,-49,42,7,111,20,54,-36,-47,-42
63,50,-14,-56,38,18,109,18,56,-31,-44,-39
26,8,-18,-17,22,-5,100,13,62,-31,-39,-34
75,51,-24,-63,49,14,106,28,70,-30,-34,-30
31,18,-13,-24,22,2,112,42,63,-37,-51,-38
-20,-27,-7,24,-6,-17,108,35,42,-50,-56,-40
23,4,-19,-14,21,-7,108,29,34,-48,-55,-40
45,21,-24,-33,34,-1,103,25,36,-44,-55,-40
61,49,-12,-55,36,18,106,25,32,-41,-55,-40
49,40,-10,-44,29,15,110,26,30,-36,-54,-42
24,31,7,-27,8,19,116,24,28,-34,-56,-46
29,54,25,-42,1,39,131,27,39,-21,-54,-28
49,72,23,-60,13,47,111,6,50,-30,-53,-32
34,51,17,-43,9,34,108,-17,42,-36,-71,-63
52,62,10,-57,20,36,131,13,37,-25,-68,-58
30,54,24,-42,3,39,120,17,33,-27,-66,-55
-10,18,28,-4,-19,23,120,3,23,-14,-61,-53
39,59,20,-49,9,39,129,38,45,-21,-62,-48
30,50,20,-40,5,34,113,48,67,-15,-51,-61
80,91,11,-85,34,50,88,36,56,-1,-25,-62
130,138,8,-134,61,73,79,39,52,-13,-32,-33
103,105,1,-104,51,53,81,50,47,17,-3,1
105,101,-5,-103,55,48,85,42,39,36,17,3
113,104,-9,-108,61,47,90,11,32,-12,-18,-7
48,20,-27,-34,37,-4,84,16,21,-46,-44,-22
2,-3,-5,1,3,-3,103,0,19,-43,-77,-63
53,50,-3,-52,28,23,145,-3,36,-48,-76,-60
22,46,24,-34,-1,35,153,-10,40,-41,-71,-57
32,50,18,-41,7,34,143,-6,19,-52,-83,-67
10,24,14,-17,-3,19,138,30,23,-33,-63,-48
4,12,9,-8,-3,10,140,8,19,-40,-94,-78
57,-68,-125,6,91,-97,257,650,328,68,-85,-153
62,174,111,-118,-24,142,316,980,835,469,68,-156
470,897,428,-684,21,662,-142,-256,359,692,782,739
710,1182,471,-946,119,826,-571,-1580,-846,295,1060,1427
278,583,305,-431,-14,444,-387,-1676,-1250,-403,95,512
-25,15,40,5,-33,27,-109,-820,-806,-602,-374,-149
-33,-3,31,18,-32,14,25,-197,-277,-309,-214,-101
28,52,24,-40,2,38,92,7,18,-105,-141,-71
20,24,4,-23,8,14,101,76,59,-72,-102,-60
11,10,-1,-11,6,5,119,64,55,-54,-114,-99
70,40,-30,-54,50,5,131,100,63,-33,-68,-63
64,43,-21,-53,42,10,128,85,61,-27,-63,-57
64,36,-28,-49,46,4,123,91,73,-14,-58,-55
71,47,-24,-59,48,11,141,96,74,-10,-54,-53
102,77,-25,-89,63,26,146,120,76,-6,-54,-52
104,77,-26,-90,65,25,128,128,74,-3,-48,-48
77,59,-18,-68,47,20,122,123,75,2,-49,-50
85,68,-17,-76,51,25,116,131,75,5,-37,-39
70,61,-10,-65,40,25,113,128,74,11,-28,-37
102,86,-16,-94,59,35,109,132,85,28,-18,-15
167,121,-46,-144,106,37,99,134,90,38,-5,11
143,111,-33,-127,88,38,92,141,91,50,9,19
167,116,-51,-142,109,32,78,134,88,69,36,37
191,130,-61,-160,126,34,78,157,93,87,59,61
229,140,-89,-184,158,26,46,171,87,97,76,80
265,177,-88,-220,176,44,25,195,91,124,113,124
300,179,-121,-239,210,29,-26,224,97,154,156,169
310,221,-89,-265,199,66,-39,227,88,180,214,227
