I,II,III,aVR,aVL,aVF,V1,V2,V3,V4,V5,V6
495,-28,-522,-233,508,-275,-1738,-3136,-2890,-3019,-659,36
425,-84,-509,-170,467,-296,-1620,-2975,-2779,-2895,-741,13
256,-273,-529,9,393,-401,-1278,-2456,-2339,-2482,-703,-54
331,-325,-656,-3,494,-490,-934,-1677,-1605,-1840,-614,-78
364,-238,-602,-63,483,-419,-591,-955,-936,-1189,-577,-124
222,-138,-360,-42,291,-249,-268,-411,-419,-627,-453,-111
69,-51,-120,-9,95,-85,3,90,92,-74,-204,17
-66,-46,21,56,-43,-13,215,437,435,286,-45,80
-116,-39,77,77,-97,18,286,544,538,390,-23,93
-124,-31,93,77,-108,31,313,600,590,443,4,103
-119,-23,95,71,-107,36,347,663,649,505,45,113
-117,-16,100,66,-108,42,357,723,702,546,44,118
-121,-15,106,67,-113,45,381,793,763,594,59,111
-125,9,134,58,-130,71,405,869,837,674,94,121
-148,15,163,66,-156,89,440,980,936,771,128,141
-137,28,166,54,-152,97,483,1091,1038,874,147,148
-120,53,173,33,-147,113,527,1216,1155,1000,188,155
-112,94,205,9,-159,149,563,1347,1279,1128,246,184
-104,128,232,-12,-169,180,605,1477,1407,1252,297,213
-88,142,231,-27,-160,186,630,1608,1539,1384,351,223
-49,173,222,-62,-136,197,624,1686,1628,1481,423,254
-28,189,216,-81,-122,203,610,1681,1643,1501,491,294
-5,192,197,-94,-101,194,550,1569,1558,1421,498,290
27,187,161,-107,-67,174,462,1367,1383,1259,491,282
54,172,117,-113,-32,144,354,1109,1132,1018,454,277
85,151,66,-118,9,108,243,827,850,733,370,247
83,109,25,-96,29,67,154,587,601,477,274,202
61,76,15,-69,22,45,94,397,401,280,184,160
45,54,10,-50,17,32,64,274,273,151,112,113
27,29,2,-28,12,15,54,221,203,83,57,74
22,18,-4,-20,13,7,53,175,151,30,26,62
24,13,-11,-19,17,1,49,156,129,0,15,54
20,5,-16,-12,18,-5,47,148,117,-8,10,45
12,-3,-14,-4,13,-8,44,133,105,-14,2,36
2,-9,-11,3,7,-10,49,126,102,-22,-4,30
1,-8,-8,4,5,-8,50,124,95,-35,-10,25
-5,-10,-5,8,0,-7,50,125,93,-30,-15,20
-10,-13,-4,12,-2,-8,50,120,86,-22,-17,16
-20,-16,4,18,-12,-6,49,119,86,-17,-16,11
-36,-20,16,27,-26,-2,58,121,89,-9,-10,7
-36,-20,16,27,-26,-1,60,124,95,-4,-6,5
-31,-21,10,26,-20,-6,60,125,110,2,-2,5
-23,-18,5,20,-14,-6,60,127,116,9,4,1
-25,-26,-1,26,-12,-13,60,132,123,15,7,0
-28,-36,-7,32,-10,-21,58,130,125,23,22,0
-27,-35,-9,31,-9,-22,55,125,121,28,29,-7
-31,-34,-3,33,-13,-18,55,120,120,27,32,-15
-33,-29,4,31,-18,-12,51,115,116,25,47,-20
-39,-32,7,36,-24,-12,50,109,116,26,51,-28
-37,-22,16,29,-26,-3,55,107,111,26,50,-35
-19,6,24,6,-22,15,78,115,121,25,50,-25
5,44,38,-24,-17,41,62,117,115,28,60,-8
13,56,43,-35,-15,50,27,114,95,21,66,-5
38,89,52,-64,-7,70,19,119,116,47,95,20
86,145,59,-115,13,102,-17,105,125,66,115,57
118,146,28,-132,45,86,-62,74,92,37,103,54
124,136,12,-130,56,74,-89,23,43,-7,94,40
75,92,17,-84,29,54,-74,-7,25,-46,87,24
10,26,16,-18,-3,21,-24,-7,15,-54,69,0
-30,-43,-13,37,-8,-28,27,32,13,-57,18,-52
-44,-92,-48,68,2,-70,33,26,2,-69,-7,-95
-39,-82,-43,61,2,-62,38,30,-3,-65,-2,-98
-49,-95,-46,73,-1,-70,32,35,-4,-73,9,-98
-61,-106,-45,84,-7,-75,37,14,5,-77,13,-88
-13,-84,-71,48,30,-77,26,105,121,36,57,-63
103,-33,-136,-35,120,-84,-188,-317,-192,-175,164,21
180,18,-162,-99,171,-72,-623,-1428,-1164,-1087,98,67
261,64,-197,-163,229,-66,-1326,-2700,-2309,-2256,-81,55
371,97,-274,-233,323,-89,-1749,-3348,-2961,-2961,-186,73
428,45,-383,-236,405,-169,-1732,-3200,-3003,-3102,-351,27
373,-52,-425,-160,399,-239,-1640,-2998,-2909,-3007,-546,-35
208,-257,-466,25,337,-361,-1313,-2578,-2555,-2646,-593,-123
229,-362,-591,67,410,-476,-960,-1819,-1842,-2004,-471,-157
298,-273,-571,-12,435,-422,-637,-1065,-1103,-1287,-380,-172
174,-187,-361,7,268,-274,-287,-474,-549,-680,-322,-213
26,-115,-140,45,83,-127,-10,7,-58,-127,-98,-134
-68,-110,-42,89,-13,-75,200,376,311,269,81,-86
-96,-104,-8,100,-43,-56,276,502,427,399,104,-70
-121,-92,30,106,-75,-31,307,552,484,460,116,-54
-121,-90,32,105,-76,-29,330,615,538,519,123,-50
-128,-77,51,102,-89,-13,345,665,587,576,142,-29
-148,-74,74,111,-110,0,366,731,657,633,171,-20
-133,-65,68,99,-100,1,395,810,729,707,183,-6
-134,-54,80,94,-106,13,426,905,816,807,205,2
-129,-29,100,79,-114,35,463,1008,917,913,233,12
-118,0,118,59,-118,58,504,1122,1026,1032,269,28
-115,24,138,46,-127,81,542,1256,1158,1160,313,44
-104,39,144,33,-124,91,586,1386,1294,1295,361,67
-90,68,158,11,-124,112,616,1509,1421,1430,419,96
-69,100,169,-16,-120,135,625,1582,1515,1532,490,137
-34,123,157,-45,-95,140,603,1581,1529,1550,554,180
-9,135,144,-63,-77,139,545,1488,1466,1487,564,196
6,123,116,-64,-55,119,456,1295,1299,1324,548,198
39,117,78,-78,-20,97,349,1041,1042,1072,520,191
59,100,41,-80,9,70,246,770,774,789,437,161
51,53,2,-52,24,27,169,533,527,527,329,120
48,21,-27,-34,37,-3,117,351,332,326,239,80
43,3,-40,-23,42,-18,91,236,208,197,164,41
25,-15,-40,-5,33,-27,86,170,133,127,118,9
9,-32,-40,12,25,-36,79,136,83,78,91,-2
0,-40,-40,20,20,-40,71,125,52,50,63,-6
-7,-47,-40,27,17,-43,63,117,36,42,48,-11
-23,-60,-38,42,8,-49,62,111,20,35,44,-15
-25,-59,-34,43,5,-46,66,104,14,28,38,-20
-27,-63,-36,45,5,-49,65,97,15,20,33,-23
-34,-65,-31,50,-1,-48,65,97,14,16,27,-31
-35,-65,-30,50,-2,-47,65,100,15,20,25,-36
-45,-75,-30,60,-7,-52,64,100,14,20,25,-31
-48,-74,-26,61,-11,-49,72,103,20,20,25,-29
-42,-67,-24,55,-9,-45,81,115,26,19,25,-24
-39,-65,-26,52,-6,-45,80,120,31,23,24,-21
-34,-58,-23,46,-5,-40,80,120,37,30,26,-17
-26,-56,-30,42,2,-43,80,124,43,38,24,-15
-22,-67,-45,45,12,-55,79,119,54,43,26,-15
-28,-73,-45,51,9,-59,77,113,47,37,36,-15
-29,-74,-45,52,8,-59,73,109,38,31,35,-15
-34,-79,-45,57,5,-62,71,102,32,23,35,-16
-35,-80,-45,58,5,-62,68,98,24,16,32,-19
-37,-79,-42,58,3,-60,66,96,20,10,30,-15
-50,-84,-33,67,-9,-58,65,96,14,5,29,-12
-54,-77,-24,66,-15,-50,57,97,11,7,35,-8
-43,-60,-17,52,-13,-38,75,94,6,4,34,-5
-13,-17,-4,15,-4,-11,95,99,1,9,37,0
-14,-9,5,12,-9,-2,59,96,4,1,40,3
-7,15,22,-5,-14,18,28,88,7,29,40,17
31,76,45,-54,-7,60,5,77,4,58,81,59
61,83,21,-72,20,52,-37,65,4,45,89,82
89,89,0,-89,44,45,-72,39,-20,3,65,81
67,62,-5,-64,36,28,-66,-2,-49,-42,64,56
36,19,-17,-27,26,1,-6,-7,-66,-48,48,28
-29,-51,-23,40,-3,-37,47,35,-67,-45,10,4
-73,-116,-43,95,-15,-79,48,47,-59,-68,-29,-33
-60,-111,-50,85,-5,-80,54,25,-69,-102,-43,-43
-64,-125,-61,94,-1,-93,58,51,-46,-53,-30,-33
-55,-119,-64,87,5,-91,49,2,-80,-106,-32,-35
-51,-113,-62,82,6,-87,62,94,11,28,-4,-17
44,-57,-102,7,73,-79,-86,-53,-43,-34,123,74
161,45,-116,-103,138,-35,-416,-974,-789,-816,144,154
205,73,-132,-138,168,-29,-1062,-2272,-1953,-1842,-20,129
315,83,-231,-199,273,-74,-1689,-3225,-2845,-2787,-130,139
418,45,-373,-231,395,-163,-1750,-3254,-3021,-3086,-224,150
412,-5,-417,-203,415,-211,-1676,-3033,-2951,-3022,-414,81
257,-148,-406,-54,332,-276,-1441,-2765,-2756,-2808,-576,-4
185,-355,-540,86,362,-447,-1053,-2093,-2152,-2228,-520,-70
265,-376,-641,55,453,-508,-742,-1313,-1387,-1530,-380,-99
217,-301,-519,42,368,-410,-382,-676,-792,-915,-386,-174
73,-209,-281,68,177,-245,-101,-196,-321,-386,-272,-164
-63,-150,-87,106,12,-118,134,234,121,109,-63,-76
-116,-141,-25,128,-45,-83,275,460,341,354,23,-41
-133,-126,6,130,-70,-60,304,523,409,415,57,-28
-141,-122,19,132,-80,-51,340,579,463,480,61,-34
-133,-111,22,121,-77,-44,351,630,511,542,71,-19
-160,-103,57,131,-108,-23,368,697,575,605,79,-10
-152,-92,60,122,-106,-16,395,766,641,677,104,-1
-146,-80,66,113,-106,-7,426,849,718,760,122,10
-153,-67,86,110,-119,10,465,947,813,858,134,13
-151,-47,104,99,-128,28,505,1064,930,977,176,39
-150,-28,122,89,-136,47,543,1187,1050,1105,217,58
-142,-5,137,73,-139,66,578,1307,1173,1230,249,70
-135,17,152,59,-144,84,624,1432,1300,1358,298,93
-116,45,161,35,-138,103,644,1540,1423,1488,364,128
-93,76,169,8,-131,122,635,1596,1487,1559,419,164
-65,89,154,-12,-110,121,600,1551,1465,1549,474,196
-43,85,129,-21,-86,106,525,1406,1364,1448,495,228
-14,77,92,-32,-53,84,426,1186,1159,1239,472,227
22,71,50,-47,-14,60,309,920,902,970,431,218
41,52,10,-47,15,31,208,649,630,682,345,197
41,19,-23,-30,32,-2,146,432,400,443,241,149
29,-1,-30,-14,29,-15,106,287,245,279,161,110
13,-26,-39,7,27,-33,91,202,141,166,103,82
-8,-55,-47,32,19,-50,86,147,82,99,62,62
-18,-62,-45,41,13,-53,78,109,41,64,33,47
-29,-73,-44,51,8,-58,73,93,13,42,19,37
-36,-76,-40,56,2,-57,65,89,6,32,11,25
-34,-74,-40,54,3,-56,68,83,-1,26,3,15
-40,-84,-44,62,2,-64,80,77,-8,19,-8,10
-41,-86,-45,64,2,-65,80,72,-14,12,-14,5
-43,-81,-38,62,-2,-59,80,69,-24,5,-21,0
-45,-80,-35,63,-5,-57,80,70,-24,9,-39,-7
-45,-75,-30,60,-7,-52,79,69,-20,18,-39,-9
-50,-75,-25,63,-12,-50,82,82,-15,25,-32,-3
-54,-83,-29,69,-12,-56,85,92,-12,34,-29,3
-56,-86,-30,71,-12,-57,85,88,-3,40,-24,7
-54,-85,-30,69,-11,-57,84,94,17,46,-20,14
-52,-82,-30,67,-11,-56,91,95,22,50,-16,19
-48,-79,-31,64,-9,-55,95,94,18,53,-13,17
-42,-81,-39,62,-1,-60,90,107,17,64,-11,12
-45,-85,-40,65,-2,-62,88,105,12,59,-7,10
-46,-85,-39,66,-3,-62,84,97,11,53,-5,5
-49,-85,-35,67,-6,-60,80,91,9,46,-7,2
-51,-86,-35,69,-7,-61,81,83,6,38,-15,-3
-49,-81,-33,65,-8,-57,80,78,6,33,-19,-6
-40,-45,-5,42,-17,-25,95,74,3,29,-14,10
-23,1,24,11,-23,12,100,83,1,48,-2,29
-21,9,30,6,-26,19,71,82,-1,36,3,28
11,34,24,-23,-7,29,55,70,6,41,20,40
57,77,20,-67,18,48,21,60,7,68,51,72
81,96,15,-89,33,55,-32,41,3,53,52,84
85,96,11,-91,37,53,-58,1,-21,13,39,83
53,57,4,-55,24,30,-55,-25,-61,-33,28,69
10,2,-8,-6,9,-3,10,-18,-89,-58,9,44
-43,-62,-19,53,-12,-40,62,16,-84,-54,-34,5
-73,-105,-32,89,-20,-69,57,17,-85,-58,-65,-31
-66,-111,-46,89,-10,-78,68,6,-98,-72,-62,-35
-62,-115,-52,89,-5,-83,65,23,-74,-51,-49,-36
-51,-107,-56,80,3,-82,60,-14,-102,-71,-48,-33
-32,-96,-64,64,16,-79,61,91,25,48,-10,2
64,-44,-109,-10,87,-76,-107,-159,-100,-4,98,88
175,37,-137,-106,156,-49,-498,-1193,-978,-790,75,132
241,81,-159,-161,200,-39,-1209,-2524,-2166,-1997,-96,118
350,78,-272,-214,311,-97,-1769,-3347,-2944,-2846,-194,139
461,37,-424,-249,442,-193,-1791,-3268,-3019,-3036,-278,116
447,-19,-466,-214,457,-243,-1694,-3060,-2959,-2983,-492,53
264,-193,-457,-35,361,-325,-1410,-2756,-2739,-2720,-640,-55
225,-370,-595,73,410,-483,-1025,-2033,-2076,-2127,-552,-114
302,-366,-669,32,486,-517,-693,-1252,-1327,-1435,-479,-135
231,-283,-515,26,373,-399,-340,-643,-769,-853,-474,-217
72,-183,-255,56,164,-219,-57,-160,-288,-306,-296,-159
-61,-127,-67,94,3,-97,181,262,148,169,-85,-76
-92,-107,-14,100,-39,-61,300,464,343,374,-18,-56
-119,-92,28,105,-73,-32,331,522,397,439,5,-32
-131,-84,47,108,-89,-18,353,586,462,500,33,-27
-133,-71,62,102,-98,-4,377,646,522,562,41,-14
-137,-63,73,100,-105,5,404,709,578,621,50,-5
-138,-52,86,95,-112,17,419,785,651,693,74,4
-140,-39,101,90,-121,31,456,872,737,781,93,12
-124,-17,106,70,-114,44,497,976,839,890,122,31
-142,1,143,70,-143,72,534,1095,952,1002,153,50
-122,28,151,47,-137,89,574,1217,1075,1121,184,63
-104,56,160,23,-132,108,613,1346,1206,1256,231,86
-104,75,179,14,-141,127,645,1474,1337,1379,288,109
-71,111,182,-20,-127,146,661,1576,1453,1498,349,141
-49,139,187,-45,-118,163,652,1618,1505,1555,409,176
-7,159,166,-76,-87,162,614,1560,1474,1522,456,210
23,166,143,-95,-61,154,537,1404,1358,1416,472,240
49,161,112,-105,-32,136,428,1165,1144,1202,446,240
78,147,70,-113,4,108,312,880,868,924,380,217
82,112,30,-98,26,71,218,618,604,648,286,181
74,79,5,-77,34,42,154,406,379,422,177,134
46,47,2,-47,21,24,109,259,224,260,96,90
22,18,-4,-20,13,7,98,174,139,158,40,51
13,5,-7,-9,10,-1,93,122,79,105,-9,31
12,-1,-13,-6,13,-7,85,99,43,66,-37,23
6,-8,-14,1,11,-11,77,90,23,44,-54,12
-7,-16,-9,11,2,-12,71,84,12,42,-73,3
-12,-23,-11,17,0,-17,74,77,5,34,-75,-3
-14,-22,-7,18,-3,-14,75,70,-4,26,-75,-8
-15,-20,-5,18,-5,-12,77,65,-11,20,-96,-11
-15,-20,-5,18,-5,-12,81,65,-19,10,-101,-16
-18,-20,-2,19,-8,-11,84,64,-15,19,-99,-20
-22,-20,2,21,-12,-9,85,65,-9,30,-100,-15
-26,-21,5,23,-15,-8,84,64,-5,32,-101,-15
-34,-25,9,30,-21,-8,87,68,2,41,-105,-14
-34,-25,9,29,-21,-8,94,75,7,53,-100,-10
-28,-25,2,26,-15,-11,95,74,12,60,-92,-11
-22,-25,-3,24,-9,-13,90,75,15,60,-86,-7
-18,-25,-8,22,-5,-16,88,75,19,64,-79,-5
-14,-28,-14,21,0,-20,83,75,22,62,-75,-4
-12,-31,-19,22,3,-25,81,74,18,53,-76,0
-12,-29,-17,21,2,-23,76,66,10,49,-74,1
-17,-31,-14,24,-1,-22,76,59,4,39,-78,-11
-15,-30,-15,23,0,-23,74,53,-3,37,-79,-16
-16,-26,-9,21,-3,-17,72,45,-11,35,-84,-17
-20,-31,-11,26,-5,-21,70,39,-12,36,-95,-24
-12,-19,-7,15,-2,-13,74,36,-8,36,-89,-17
6,21,14,-14,-4,17,100,54,-3,34,-82,-7
23,56,34,-40,-6,45,86,53,-2,45,-75,1
17,58,41,-38,-12,49,65,41,4,37,-69,8
47,85,38,-66,4,61,57,61,5,65,-44,40
86,134,48,-110,19,91,4,65,15,90,-26,75
113,161,48,-137,33,104,-49,36,19,66,-23,91
126,158,32,-142,47,95,-63,-17,-36,19,-29,87
81,104,23,-93,29,63,-42,-47,-65,-28,-65,45
28,37,10,-33,9,23,2,-59,-74,-25,-80,11
-17,-17,0,17,-8,-8,50,-43,-66,-23,-117,-9
-30,-42,-13,36,-8,-27,47,-45,-72,-55,-157,-22
-24,-48,-23,36,0,-35,54,-36,-71,-42,-141,-28
-14,-48,-35,32,11,-41,47,-24,-64,-32,-147,-43
-1,-37,-36,19,18,-36,36,-19,-75,-41,-134,-32
35,-19,-53,-8,44,-36,24,79,58,75,-82,2
151,32,-119,-91,135,-43,-173,-376,-254,-144,-36,56
223,84,-139,-154,181,-27,-620,-1568,-1281,-1076,-94,93
297,91,-207,-193,252,-58,-1351,-2899,-2465,-2256,-308,89
431,97,-333,-264,381,-118,-1782,-3519,-3085,-2932,-395,77
509,81,-428,-295,469,-174,-1761,-3333,-3061,-3017,-508,33
475,2,-473,-238,474,-236,-1657,-3116,-2965,-2902,-725,-41
285,-182,-467,-52,376,-324,-1314,-2668,-2604,-2543,-733,-127
269,-317,-586,24,428,-451,-954,-1888,-1884,-1928,-658,-161
352,-284,-635,-34,494,-459,-631,-1141,-1178,-1272,-618,-211
237,-200,-437,-18,337,-318,-292,-571,-656,-726,-547,-258
71,-105,-176,17,124,-140,-22,-89,-172,-186,-335,-163
-45,-62,-17,53,-14,-39,203,311,237,245,-110,-73
-77,-50,28,63,-52,-11,292,467,386,399,-51,-39
-100,-34,66,67,-83,16,322,523,443,457,-30,-24
-105,-26,79,65,-92,26,341,586,507,521,-6,-13
-101,-14,87,57,-93,36,360,644,566,578,3,2
-109,-6,103,57,-105,48,385,713,634,641,25,11
-102,8,110,47,-106,59,410,792,710,719,49,24
-97,25,122,36,-110,74,442,878,792,804,67,31
-88,51,139,18,-113,95,471,986,898,908,95,50
-91,72,163,9,-127,117,518,1107,1014,1028,138,76
-80,87,167,-4,-124,127,551,1228,1124,1149,174,95
-83,112,195,-14,-139,153,589,1363,1260,1280,224,118
-87,141,228,-27,-158,185,629,1491,1392,1407,297,160
-41,173,213,-66,-127,193,622,1575,1494,1510,356,198
0,200,200,-100,-100,200,613,1597,1543,1545,408,225
18,210,192,-114,-87,201,577,1537,1500,1507,443,260
31,201,170,-116,-70,185,489,1370,1364,1387,449,268
64,193,129,-129,-33,161,387,1120,1134,1163,416,250
98,183,84,-141,7,133,279,843,859,896,336,235
104,152,48,-128,28,99,196,585,602,635,234,201
95,115,19,-105,38,67,135,376,383,415,135,155
70,84,14,-78,28,49,99,239,234,264,50,107
53,69,15,-61,19,42,93,166,152,174,-21,63
47,62,15,-55,16,38,85,120,104,121,-57,43
37,52,15,-45,10,34,78,80,68,91,-78,36
28,43,15,-36,7,29,70,64,45,76,-97,23
24,36,12,-30,6,23,66,62,41,69,-102,12
26,35,9,-30,8,22,70,58,36,62,-111,5
23,34,11,-29,5,22,70,54,32,56,-119,5
9,31,22,-20,-7,26,70,50,27,48,-128,4
3,29,26,-17,-11,27,70,52,25,46,-131,0
8,31,23,-20,-8,27,69,55,30,50,-126,0
4,35,31,-20,-14,33,77,54,30,49,-124,2
0,35,35,-18,-18,35,80,57,29,56,-119,6
7,35,28,-21,-11,31,83,68,36,71,-116,10
10,35,25,-23,-8,30,86,75,50,79,-113,13
15,35,20,-25,-3,27,82,82,62,79,-108,18
20,35,15,-28,2,25,80,84,63,73,-105,19
17,35,18,-27,-1,27,76,75,57,70,-102,16
13,33,21,-23,-4,27,75,69,52,65,-97,13
10,30,20,-20,-5,25,72,63,46,60,-95,10
8,28,20,-18,-6,24,70,57,42,64,-103,8
2,24,21,-13,-10,22,67,53,40,66,-113,3
14,32,18,-23,-2,25,64,51,43,67,-113,9
29,66,38,-47,-5,51,82,52,39,64,-105,16
45,109,64,-77,-10,86,82,61,53,68,-96,30
51,118,68,-85,-9,93,70,59,54,62,-90,46
56,127,71,-91,-8,98,52,65,58,77,-78,55
110,180,70,-145,20,125,8,64,74,112,-55,85
146,216,70,-181,38,143,-37,40,64,108,-30,99
131,201,70,-166,30,135,-75,6,37,66,-29,104
97,167,70,-132,14,118,-69,-31,-16,18,-69,82
54,120,66,-87,-6,93,-31,-56,-23,0,-94,51
17,71,54,-44,-19,62,19,-54,-15,-8,-119,22
-20,26,46,-3,-33,35,45,-38,-38,-16,-166,-24
-23,11,34,6,-29,22,46,-47,-60,-31,-181,-36
-16,10,26,3,-21,18,51,-17,-22,-3,-165,-23
-17,-3,14,10,-16,5,27,-45,-49,-21,-165,-23
25,18,-7,-21,16,5,38,45,28,35,-137,-3
112,49,-64,-80,88,-8,-55,-68,9,40,-52,52
223,99,-125,-161,174,-13,-370,-982,-759,-597,-93,56
278,111,-167,-194,222,-28,-991,-2356,-1978,-1753,-334,6
357,114,-243,-236,300,-64,-1633,-3422,-2939,-2722,-518,-27
463,132,-331,-297,397,-99,-1783,-3530,-3166,-3021,-597,-37
471,77,-394,-274,432,-158,-1726,-3271,-3053,-2951,-779,-80
327,-58,-385,-134,357,-222,-1494,-2967,-2834,-2718,-891,-151
237,-236,-473,0,356,-354,-1113,-2278,-2221,-2197,-778,-180
367,-247,-614,-60,491,-430,-796,-1476,-1462,-1538,-666,-200
333,-176,-510,-78,422,-343,-441,-814,-853,-942,-620,-248
156,-101,-257,-27,207,-179,-141,-300,-354,-401,-458,-199
15,-17,-32,1,23,-24,114,171,123,115,-203,-75
-75,9,83,33,-79,46,264,429,378,381,-70,-18
-69,34,103,17,-86,68,295,490,445,445,-40,5
-95,33,128,31,-112,80,326,558,510,509,-19,13
-102,43,145,29,-124,93,349,616,571,572,-7,19
-103,43,146,30,-125,94,371,676,628,628,11,26
-107,55,162,25,-135,108,387,749,697,693,36,42
-87,83,170,2,-129,126,414,837,783,771,59,60
-93,92,185,0,-140,139,449,937,878,870,89,68
-91,122,213,-16,-152,167,481,1049,984,981,128,99
-89,138,227,-25,-158,182,526,1174,1103,1095,161,112
-78,163,240,-43,-159,201,565,1304,1239,1228,217,132
-71,185,255,-57,-163,220,598,1434,1370,1349,281,160
-46,211,257,-83,-152,233,617,1542,1490,1465,339,189
-8,236,244,-114,-126,240,612,1595,1554,1521,398,225
12,248,236,-130,-112,242,580,1551,1529,1494,439,245
57,273,216,-165,-79,244,511,1417,1428,1415,449,266
95,270,175,-182,-40,222,411,1187,1221,1218,419,257
111,246,135,-179,-13,190,300,902,960,959,358,239
115,218,103,-167,6,160,207,631,691,693,257,200
94,171,78,-133,8,124,137,406,455,452,153,143
58,127,69,-93,-5,97,95,246,290,285,69,104
31,97,66,-65,-17,81,82,153,186,184,-5,58
22,85,63,-53,-21,73,74,104,123,128,-55,35
27,85,58,-56,-16,72,65,69,72,86,-74,25
29,84,55,-57,-13,69,56,58,56,54,-84,12
21,80,59,-50,-19,69,54,53,53,39,-107,3
21,80,59,-50,-19,70,55,44,46,36,-117,-3
16,80,63,-48,-23,71,55,38,41,33,-114,-7
9,80,71,-45,-31,76,55,30,35,29,-116,-12
10,79,69,-45,-29,74,55,30,38,25,-120,-16
18,81,63,-50,-23,71,57,29,40,25,-118,-21
6,78,72,-43,-33,75,63,31,39,24,-114,-26
0,80,80,-40,-40,80,65,44,41,25,-108,-23
6,86,81,-46,-38,83,65,45,46,31,-105,-19
4,82,78,-43,-37,80,65,42,57,42,-88,-16
5,80,75,-43,-35,77,65,39,72,49,-62,-12
1,76,76,-39,-38,76,65,36,73,45,-68,-9
7,75,68,-41,-31,72,63,34,65,39,-77,-5
-10,70,80,-30,-45,75,58,30,59,34,-75,-5
-25,63,88,-19,-57,75,55,29,52,28,-72,-5
-21,55,76,-17,-48,65,52,26,46,23,-70,-6
-22,49,71,-14,-47,60,47,22,42,21,-68,-4
-24,39,63,-8,-43,51,45,19,39,17,-75,-16
-18,36,53,-9,-36,44,53,16,38,17,-82,-36
-12,64,76,-26,-44,70,72,11,33,11,-63,-31
1,111,110,-56,-55,110,84,10,33,13,-48,-23
15,137,121,-76,-53,129,47,3,28,9,-41,-15
17,139,122,-78,-53,131,9,8,36,15,-29,-8
68,182,114,-125,-23,148,-24,15,52,41,-14,6
121,228,107,-175,7,168,-59,12,45,36,15,41
146,245,99,-196,23,172,-78,-23,19,16,34,45
128,221,92,-175,18,156,-84,-83,-23,-40,-3,23
69,154,85,-112,-9,120,-46,-96,-50,-83,-34,2
20,97,76,-59,-28,86,3,-93,-54,-80,-48,-33
-17,55,72,-19,-45,63,26,-79,-47,-86,-96,-75
-18,43,61,-13,-40,52,36,-92,-65,-107,-110,-94
-15,43,58,-14,-37,50,44,-63,-36,-77,-100,-98
-9,37,46,-14,-28,41,33,-87,-64,-90,-89,-101
-9,36,45,-14,-27,40,50,-16,1,-46,-56,-70
38,43,4,-40,17,23,-46,-63,30,-7,-12,-31
176,102,-74,-138,125,13,-342,-881,-627,-543,3,-4
262,149,-112,-205,187,18,-916,-2172,-1764,-1624,-149,-18
334,160,-174,-247,253,-7,-1603,-3292,-2778,-2632,-347,-52
437,169,-268,-303,352,-49,-1790,-3540,-3118,-3037,-452,-64
466,112,-354,-289,409,-120,-1742,-3310,-3047,-3038,-635,-118
330,-39,-369,-145,349,-204,-1572,-3054,-2873,-2859,-762,-195
233,-227,-460,-3,347,-343,-1181,-2426,-2319,-2380,-665,-228
334,-249,-583,-43,459,-416,-862,-1640,-1576,-1722,-565,-247
335,-136,-470,-99,403,-303,-503,-949,-930,-1076,-510,-288
171,-36,-207,-67,189,-121,-190,-414,-407,-503,-329,-231
14,32,18,-23,-2,25,71,58,69,14,-98,-130
-55,51,106,1,-80,78,254,342,344,301,23,-100
-80,56,136,11,-108,96,291,412,420,381,54,-77
-102,54,156,23,-129,105,321,477,485,449,70,-69
-108,55,163,26,-136,109,342,531,532,501,77,-61
-117,60,177,28,-147,119,363,593,593,559,89,-52
-112,79,191,17,-151,134,378,662,663,630,118,-46
-115,84,199,15,-157,141,405,740,729,693,124,-33
-116,94,210,11,-164,152,439,835,820,794,158,-13
-121,125,246,-2,-184,186,468,945,932,908,202,7
-128,131,260,-1,-194,195,512,1077,1060,1030,238,21
-101,163,264,-31,-183,213,559,1201,1188,1160,293,45
-100,195,295,-47,-198,245,596,1329,1316,1284,350,76
-89,212,300,-62,-194,256,620,1444,1444,1415,416,107
-47,238,285,-96,-166,262,621,1500,1511,1485,462,127
-39,238,277,-99,-158,257,594,1479,1504,1486,505,152
-24,231,255,-104,-140,243,534,1353,1417,1407,518,166
7,224,217,-115,-105,220,436,1139,1226,1214,484,150
37,218,181,-128,-72,200,323,870,979,960,442,145
61,202,141,-132,-40,171,224,596,705,693,362,125
72,167,96,-120,-12,131,151,369,463,450,257,73
56,140,84,-98,-14,112,96,195,283,267,171,32
31,114,83,-72,-27,98,71,89,162,147,102,-1
13,92,79,-52,-33,85,66,33,101,82,50,-28
4,81,77,-42,-37,78,59,-4,60,48,23,-51
1,74,74,-38,-37,74,51,-30,28,19,9,-56
-19,67,86,-24,-53,76,43,-51,12,3,-1,-49
-32,59,91,-14,-62,75,40,-49,2,-3,-13,-70
-37,51,89,-7,-63,70,43,-54,-11,-21,-21,-77
-35,55,91,-10,-63,73,53,-70,-20,-30,-21,-73
-28,61,89,-16,-59,75,61,-67,-17,-23,-17,-76
-31,59,90,-14,-60,75,59,-61,-11,-16,-11,-74
-33,61,94,-14,-63,77,60,-56,-6,-10,-8,-76
-36,59,95,-12,-65,76,60,-50,0,-3,-2,-71
-38,61,99,-12,-68,79,59,-46,4,3,-1,-70
-43,56,100,-7,-72,78,65,-41,16,18,-8,-70
-33,60,93,-14,-63,77,65,-41,26,31,-7,-64
-17,72,89,-28,-53,81,61,-39,20,31,1,-66
-20,65,85,-23,-53,75,59,-35,14,24,7,-63
-15,65,80,-25,-48,72,56,-35,7,21,14,-62
-23,58,81,-18,-52,70,55,-38,1,15,20,-75
-41,56,97,-8,-69,76,51,-42,-5,13,27,-74
-47,54,102,-4,-75,77,51,-56,-9,7,29,-71
-44,54,98,-5,-72,76,49,-62,-8,7,31,-68
-29,74,103,-22,-66,88,59,-63,-11,5,29,-66
-2,103,104,-51,-53,103,80,-56,-14,7,31,-63
7,138,132,-73,-63,134,68,-52,-15,14,35,-49
-7,146,153,-69,-80,149,49,-46,-12,14,48,-23
38,179,141,-109,-52,160,22,-39,-2,35,61,3
81,218,137,-150,-28,177,-34,-59,7,36,72,18
109,238,129,-174,-10,183,-78,-86,-8,12,106,43
104,226,122,-165,-9,174,-84,-125,-55,-35,83,12
31,149,118,-90,-43,133,-47,-138,-77,-59,41,-29
-9,99,108,-45,-59,103,3,-138,-85,-51,23,-37
-58,46,104,6,-81,75,35,-122,-76,-71,-16,-76
-85,8,93,38,-90,50,40,-132,-100,-103,-33,-103
-81,8,89,36,-85,48,52,-108,-76,-88,-23,-103
-83,-4,79,44,-81,37,33,-119,-90,-95,-22,-102
-53,0,54,26,-53,27,49,-77,-67,-61,-10,-87
16,24,7,-20,4,15,-4,-44,32,36,68,-34
137,110,-28,-123,82,41,-275,-683,-459,-348,148,55
210,169,-41,-189,125,64,-784,-1888,-1531,-1372,40,70
283,197,-86,-239,184,55,-1503,-3073,-2597,-2461,-127,66
385,219,-166,-302,275,26,-1792,-3469,-3051,-2986,-200,85
434,164,-270,-299,352,-53,-1730,-3256,-3026,-3046,-394,19
320,33,-287,-176,303,-127,-1586,-3039,-2905,-2914,-576,-74
178,-178,-357,0,268,-267,-1212,-2499,-2439,-2471,-537,-130
262,-236,-498,-13,381,-367,-876,-1718,-1696,-1800,-441,-150
279,-150,-429,-64,354,-289,-530,-1004,-1016,-1130,-406,-208
139,-70,-209,-35,175,-139,-205,-462,-505,-553,-294,-211
-14,-14,0,14,-7,-7,56,8,-25,-20,-79,-131
-106,-20,86,63,-96,33,242,325,282,300,23,-98
-117,-8,109,62,-113,51,298,415,370,397,66,-77
-133,-2,131,68,-132,64,323,469,425,457,87,-74
-131,3,135,63,-133,69,339,524,478,516,91,-70
-135,18,152,58,-144,85,365,586,538,575,119,-61
-140,19,160,60,-150,89,384,653,592,632,119,-59
-141,37,178,52,-160,108,411,732,664,711,137,-50
-136,55,191,41,-164,123,443,831,756,801,165,-41
-134,72,206,31,-170,139,479,942,862,911,189,-26
-130,92,222,19,-176,156,516,1066,983,1036,224,-15
-122,115,237,3,-180,176,555,1194,1112,1164,279,12
-126,141,267,-8,-197,204,597,1323,1242,1289,330,34
-103,171,275,-34,-189,223,622,1435,1359,1412,381,53
-85,200,284,-58,-185,242,629,1510,1442,1498,447,99
-60,213,273,-76,-167,243,604,1495,1443,1506,484,119
-21,212,233,-95,-127,222,548,1381,1369,1444,512,138
2,201,199,-102,-98,199,455,1190,1203,1265,493,145
31,195,164,-113,-67,179,337,928,951,1010,443,135
44,175,131,-109,-44,153,234,656,685,744,378,121
39,138,99,-88,-30,118,157,424,439,478,266,73
23,109,86,-66,-32,97,114,256,256,292,186,29
6,90,84,-49,-39,87,94,151,141,177,127,-3
6,82,76,-44,-35,78,79,94,74,106,74,-21
2,74,73,-38,-36,73,69,56,33,56,47,-37
2,65,63,-34,-31,64,70,39,3,25,17,-67
-9,60,69,-26,-39,64,70,35,-10,19,4,-76
-27,60,86,-17,-57,72,70,26,-16,12,-1,-74
-24,60,84,-18,-54,72,70,19,-23,6,-7,-75
-25,60,85,-18,-55,72,69,12,-31,-1,-12,-75
-25,59,85,-18,-55,72,71,13,-38,-5,-19,-76
-20,64,84,-22,-52,73,68,17,-37,2,-19,-71
-25,65,90,-20,-58,77,71,23,-29,9,-25,-70
-28,60,88,-17,-58,74,75,26,-23,15,-30,-70
-26,58,84,-16,-55,71,75,33,-16,22,-22,-65
-28,53,81,-13,-55,67,73,48,-9,28,-16,-65
-27,50,76,-12,-51,63,69,49,-5,36,-10,-65
-20,53,73,-17,-47,63,71,43,-5,39,-2,-65
-16,54,70,-19,-43,62,66,39,-5,32,-2,-65
-20,45,65,-13,-43,55,65,35,-5,26,-9,-65
-24,40,63,-8,-44,51,64,30,-5,19,-14,-65
-25,32,57,-4,-41,44,60,27,-9,12,-19,-64
-31,25,56,2,-44,40,60,25,-18,8,-25,-72
-37,28,66,4,-52,47,60,21,-25,5,-29,-74
-38,28,66,5,-52,47,68,21,-33,7,-24,-67
-29,46,74,-9,-52,60,64,14,-38,2,-18,-63
-31,80,111,-24,-71,95,87,22,-31,0,-14,-56
-26,113,139,-44,-83,126,69,28,-27,3,-7,-51
-15,118,133,-52,-74,125,34,19,-22,4,-4,-44
26,152,125,-89,-50,138,24,10,-15,34,8,-29
84,204,120,-145,-18,162,-41,0,-13,54,37,-14
99,212,112,-156,-7,162,-73,-10,-12,32,54,10
96,203,107,-150,-6,155,-84,-54,-73,-34,25,1
46,143,97,-95,-26,120,-53,-81,-97,-63,-3,-40
-17,70,87,-27,-53,79,20,-87,-79,-52,-23,-59
-62,16,77,23,-70,46,42,-67,-98,-73,-67,-91
-82,-15,67,48,-74,26,35,-75,-118,-98,-94,-119
-74,-15,59,44,-66,22,49,-54,-104,-80,-88,-112
-64,-13,51,38,-57,19,38,-60,-98,-84,-85,-112
-48,-10,38,28,-43,14,48,-50,-98,-78,-86,-106
-3,8,11,-3,-7,10,12,37,-21,37,3,-56
101,82,-19,-91,60,31,-233,-519,-384,-255,83,35
194,156,-38,-174,116,59,-732,-1741,-1434,-1250,-20,55
279,182,-97,-230,188,42,-1472,-2973,-2546,-2385,-172,35
382,174,-208,-278,295,-17,-1821,-3450,-3049,-2971,-251,68
455,140,-314,-297,384,-87,-1762,-3240,-3036,-3036,-386,39
375,31,-344,-203,359,-156,-1636,-3036,-2923,-2914,-585,-50
201,-177,-378,-12,290,-277,-1274,-2554,-2522,-2522,-619,-130
245,-273,-518,14,382,-395,-916,-1768,-1789,-1870,-484,-156
298,-220,-518,-39,408,-369,-581,-1046,-1106,-1217,-456,-219
175,-127,-302,-24,239,-214,-254,-505,-605,-668,-416,-257
31,-33,-64,1,48,-48,11,-31,-115,-129,-199,-168
-82,-5,77,43,-80,36,219,322,234,245,-65,-122
-119,-10,109,64,-114,50,286,437,347,365,-26,-98
-137,-14,123,75,-130,55,314,493,403,419,2,-87
-153,-10,143,81,-148,67,330,553,458,478,6,-88
-148,1,149,74,-149,75,357,614,515,543,23,-76
-160,4,164,78,-162,84,377,684,580,610,44,-76
-159,14,173,72,-166,93,401,760,653,676,67,-67
-146,28,174,59,-160,101,443,855,742,765,83,-59
-166,39,205,63,-186,122,473,965,848,873,106,-45
-155,63,217,46,-186,140,515,1080,960,986,136,-33
-149,84,233,32,-191,158,553,1209,1087,1113,175,-14
-153,109,262,21,-208,185,595,1338,1217,1245,233,15
-128,141,269,-7,-199,205,620,1461,1345,1370,289,46
-112,168,280,-28,-196,223,622,1539,1441,1474,352,80
-73,194,266,-61,-170,230,603,1535,1457,1508,399,106
-43,204,247,-81,-145,225,553,1459,1405,1451,428,133
-20,202,222,-92,-121,212,466,1270,1253,1292,438,144
12,198,186,-105,-88,192,347,1006,1012,1052,401,131
37,180,143,-109,-53,161,241,730,740,775,326,119
36,143,106,-90,-35,124,162,479,480,511,222,86
18,112,94,-65,-38,103,99,290,280,304,129,41
4,84,80,-44,-38,82,65,171,158,172,60,-6
-15,57,72,-21,-44,64,60,111,88,102,11,-42
-25,43,68,-9,-47,55,55,66,44,54,-26,-57
-30,32,62,-1,-46,46,49,49,10,18,-56,-65
-37,20,56,8,-47,38,43,45,-18,-8,-61,-66
-40,11,51,14,-46,31,41,36,-25,-16,-73,-78
-43,10,53,16,-47,31,45,30,-35,-11,-86,-87
-50,9,60,20,-55,34,45,21,-41,-10,-88,-84
-66,6,72,30,-69,38,45,23,-35,-10,-94,-83
-65,4,69,30,-67,36,45,25,-32,-6,-96,-79
-61,7,68,27,-64,37,45,25,-29,-5,-94,-81
-75,9,84,32,-79,46,59,25,-25,-5,-101,-85
-69,13,82,28,-76,47,66,32,-21,2,-106,-85
-61,15,75,23,-69,45,64,47,-18,7,-101,-85
-62,11,73,26,-68,42,65,54,-12,12,-99,-81
-60,7,67,26,-63,37,64,54,-7,18,-95,-80
-60,4,64,28,-62,34,65,55,-1,23,-91,-80
-60,0,60,30,-60,30,68,53,5,30,-88,-75
-57,3,60,27,-59,31,71,50,10,28,-85,-75
-51,9,60,21,-56,35,70,52,16,23,-85,-75
-49,11,60,19,-54,35,71,48,15,18,-81,-75
-41,19,60,11,-51,40,71,47,17,16,-79,-75
-47,19,67,14,-57,43,70,45,15,9,-80,-72
-46,49,95,-2,-70,72,84,43,17,21,-72,-64
-23,64,87,-21,-56,76,59,31,13,23,-62,-57
-16,59,75,-22,-46,66,36,27,-2,15,-53,-52
5,111,106,-58,-51,108,25,51,8,57,-39,-28
44,150,106,-97,-31,128,-40,38,20,56,-14,2
68,164,96,-116,-15,130,-83,-5,6,27,12,24
54,145,91,-100,-19,118,-77,-46,-45,-20,-22,11
14,96,82,-56,-34,89,-56,-63,-82,-56,-61,-18
-39,38,76,0,-58,57,-8,-63,-89,-48,-76,-50
-83,-19,64,51,-74,22,40,-47,-74,-62,-123,-100
-95,-45,49,70,-72,2,43,-53,-84,-88,-149,-116
-96,-58,38,77,-67,-10,49,-32,-65,-63,-152,-121
-90,-62,28,76,-59,-17,34,-38,-75,-71,-144,-122
-58,-57,1,58,-29,-28,49,9,-50,-48,-118,-91
6,-30,-36,13,21,-33,-5,27,43,60,-43,-57
114,45,-69,-79,91,-12,-272,-631,-446,-319,21,15
193,100,-93,-146,143,4,-832,-1912,-1565,-1376,-101,34
295,118,-177,-206,236,-29,-1579,-3126,-2646,-2479,-273,19
418,120,-298,-268,357,-89,-1850,-3476,-3060,-2968,-328,39
479,71,-408,-274,443,-168,-1789,-3249,-3004,-3001,-485,-7
393,-46,-439,-173,416,-242,-1631,-3037,-2893,-2866,-672,-84
219,-252,-470,17,345,-361,-1244,-2490,-2437,-2426,-657,-159
265,-345,-610,40,438,-477,-902,-1692,-1692,-1780,-594,-197
288,-284,-572,-2,431,-428,-554,-979,-1034,-1148,-548,-256
142,-189,-331,23,237,-260,-227,-439,-531,-600,-443,-265
-17,-103,-85,60,34,-94,36,34,-47,-66,-232,-165
-133,-77,56,105,-94,-11,238,367,284,281,-71,-111
-152,-63,90,107,-121,13,298,472,386,387,-52,-81
-158,-56,102,107,-129,22,322,529,437,446,-39,-73
-163,-48,115,106,-138,33,348,592,496,509,-22,-69
-170,-40,130,105,-150,45,366,653,553,568,-4,-59
-158,-32,127,95,-142,47,387,722,619,634,21,-55
-164,-18,147,91,-155,65,421,806,701,717,40,-41
-171,-7,164,89,-167,78,453,906,793,809,61,-32
-156,12,168,71,-162,90,490,1018,896,919,88,-17
-166,26,191,70,-179,108,533,1142,1016,1038,124,3
-158,52,210,53,-184,130,572,1276,1148,1170,177,41
-138,90,228,24,-183,159,610,1403,1274,1297,232,66
-124,110,234,7,-179,172,639,1524,1402,1418,289,89
-99,129,228,-15,-164,178,650,1597,1487,1511,353,132
-65,148,213,-41,-139,180,616,1577,1497,1521,398,157
-36,157,193,-61,-115,175,552,1479,1427,1454,425,182
-12,154,166,-71,-89,160,462,1277,1251,1289,419,188
16,141,126,-78,-55,133,347,1002,1000,1040,376,179
37,120,83,-79,-24,102,239,719,722,755,283,157
42,81,38,-62,2,60,163,482,469,502,171,94
20,39,19,-29,0,28,110,299,275,308,80,48
-12,5,17,3,-15,11,78,180,162,186,4,17
-20,-7,13,13,-16,3,69,127,97,120,-44,-9
-22,-11,11,17,-16,0,66,85,47,65,-66,-22
-24,-21,3,22,-13,-8,63,69,24,41,-86,-38
-43,-27,16,34,-29,-6,58,65,12,33,-103,-49
-68,-35,33,51,-50,-1,55,56,1,24,-106,-51
-62,-34,27,48,-44,-3,51,49,-11,15,-116,-49
-64,-38,25,50,-44,-6,50,42,-16,6,-130,-54
-73,-50,23,61,-48,-13,50,39,-18,5,-129,-66
-69,-50,18,60,-44,-16,49,40,-14,4,-132,-65
-76,-50,26,63,-51,-12,63,39,-7,5,-136,-65
-82,-51,31,66,-56,-10,71,42,-3,15,-133,-70
-76,-49,27,62,-52,-11,78,57,4,31,-131,-67
-78,-53,25,65,-51,-14,82,68,7,41,-127,-61
-76,-55,21,66,-48,-17,79,70,17,46,-125,-56
-75,-55,20,65,-47,-17,79,65,27,44,-123,-50
-71,-55,16,63,-43,-19,74,62,22,45,-120,-46
-66,-55,11,61,-38,-22,75,58,20,48,-120,-50
-61,-55,6,58,-33,-24,76,55,17,41,-120,-49
-53,-50,3,51,-28,-23,74,56,15,29,-120,-53
-48,-51,-3,50,-22,-27,77,55,18,17,-120,-59
-47,-49,-2,48,-22,-25,73,57,22,22,-114,-50
-81,-45,36,63,-58,-5,82,54,20,19,-109,-42
-60,-2,58,31,-59,28,94,59,22,27,-102,-35
-16,35,51,-10,-34,43,78,51,19,39,-97,-26
-11,40,50,-14,-31,45,64,46,22,34,-90,-22
36,81,45,-59,-5,63,17,51,42,69,-58,5
65,107,42,-86,11,74,-43,28,28,77,-46,38
97,135,38,-116,29,86,-69,-1,3,45,-42,35
88,121,33,-105,27,77,-77,-39,-32,0,-58,11
31,57,26,-44,2,41,-33,-60,-57,-38,-98,-12
-20,-1,19,10,-19,9,26,-59,-54,-41,-118,-41
-81,-68,13,74,-47,-27,55,-43,-61,-54,-159,-72
-92,-90,2,91,-47,-43,53,-54,-90,-86,-173,-77
-82,-88,-6,85,-38,-47,57,-27,-59,-65,-162,-70
-71,-93,-22,82,-24,-57,47,-45,-76,-62,-166,-73
-58,-84,-26,71,-16,-55,53,20,-39,-36,-146,-50
16,-52,-68,18,42,-60,-15,18,19,26,-115,-11
132,4,-129,-68,130,-62,-300,-747,-552,-412,-71,39
204,39,-165,-121,184,-63,-887,-2065,-1698,-1493,-187,54
318,67,-251,-192,284,-92,-1609,-3227,-2739,-2551,-369,51
429,72,-357,-250,393,-142,-1845,-3503,-3096,-2980,-428,41
461,20,-441,-240,451,-210,-1773,-3266,-3027,-2975,-608,-28
332,-95,-428,-118,380,-262,-1596,-3033,-2887,-2806,-749,-110
202,-292,-494,46,348,-393,-1205,-2430,-2376,-2357,-690,-174
288,-369,-657,40,473,-513,-861,-1616,-1608,-1698,-630,-195
295,-298,-593,2,444,-445,-518,-929,-979,-1084,-602,-256
148,-200,-348,27,248,-273,-196,-403,-482,-550,-483,-245
-12,-114,-102,64,45,-108,66,82,16,-12,-232,-135
-114,-93,21,103,-67,-36,248,394,323,303,-93,-92
-143,-84,58,113,-100,-13,306,481,408,393,-67,-66
-160,-79,81,120,-120,1,327,538,462,456,-42,-57
-164,-74,90,119,-127,8,348,600,525,516,-34,-49
-172,-68,104,119,-138,18,370,665,588,579,-16,-36
-161,-55,106,107,-133,25,392,739,659,640,2,-29
-169,-36,133,102,-151,48,422,819,736,719,28,-16
-172,-25,148,98,-160,61,451,919,828,815,49,-4
-162,-8,154,85,-158,73,486,1026,933,916,75,16
-166,15,182,75,-174,98,532,1151,1056,1037,119,35
-152,44,197,54,-175,120,574,1289,1190,1170,174,64
-143,73,217,35,-180,145,606,1412,1314,1290,233,91
-117,98,215,9,-166,156,634,1534,1443,1411,289,117
-79,122,201,-22,-141,162,632,1591,1528,1502,355,154
-47,152,199,-53,-123,175,600,1565,1517,1499,404,188
-26,160,186,-67,-106,173,541,1465,1437,1426,422,206
-12,146,159,-67,-86,152,441,1243,1255,1250,412,203
22,133,112,-78,-45,122,329,962,995,990,366,197
43,106,63,-75,-10,84,230,685,723,719,266,153
32,70,38,-51,-3,53,155,439,472,464,158,106
16,40,23,-28,-4,31,105,267,292,276,82,87
6,16,10,-11,-2,13,81,159,175,159,0,35
-9,1,10,4,-10,5,73,87,107,89,-53,-3
-19,-8,10,14,-14,1,65,44,64,43,-80,-21
-25,-16,9,20,-17,-3,54,29,39,18,-100,-36
-39,-24,15,31,-27,-4,52,25,30,5,-96,-30
-53,-32,20,42,-36,-6,56,20,22,-8,-108,-39
-56,-36,20,46,-37,-7,55,16,12,-21,-116,-44
-66,-35,31,51,-48,-2,55,11,5,-32,-121,-44
-71,-34,38,52,-54,2,55,9,5,-30,-131,-52
-61,-30,31,45,-46,0,55,10,5,-24,-123,-49
-74,-30,44,52,-59,6,60,10,5,-20,-119,-50
-86,-30,56,57,-71,13,59,8,4,-13,-115,-50
-78,-30,48,54,-63,8,62,16,11,-8,-110,-49
-74,-29,44,51,-59,7,65,32,27,-3,-106,-53
-76,-39,37,57,-56,-1,64,34,40,0,-101,-55
-73,-40,33,56,-53,-3,65,30,44,3,-98,-55
-68,-41,27,54,-47,-7,65,25,39,5,-94,-55
-86,-64,21,75,-53,-21,65,19,36,-1,-91,-55
-74,-58,16,66,-45,-21,60,14,33,-5,-86,-55
-57,-48,9,52,-33,-19,61,10,29,-11,-84,-50
-72,-36,36,54,-54,0,60,4,26,-16,-78,-42
-71,-20,52,45,-61,16,65,-2,27,-23,-72,-36
-53,7,60,23,-57,33,90,-7,38,-21,-66,-29
-23,44,67,-11,-45,55,59,-14,25,-13,-62,-23
-8,51,59,-21,-34,55,32,-11,25,-7,-47,-16
14,93,80,-54,-33,86,14,-6,45,10,-11,2
44,128,83,-86,-20,105,-53,-8,37,19,13,30
64,137,72,-101,-4,104,-85,-43,18,7,17,47
43,112,69,-78,-13,90,-78,-89,4,-53,-17,20
-8,51,60,-22,-34,55,-45,-102,-3,-85,-45,4
-47,8,56,19,-51,32,11,-107,-27,-76,-55,-8
-97,-50,48,73,-72,-1,46,-88,-45,-96,-86,-58
-103,-66,37,85,-70,-14,39,-103,-66,-124,-109,-73
-105,-80,25,92,-65,-27,43,-76,-41,-112,-108,-67
-89,-95,-5,92,-42,-50,23,-95,-65,-129,-101,-79
-58,-79,-21,69,-18,-50,38,-50,-11,-77,-78,-58
7,-43,-50,18,29,-46,-26,-53,49,7,13,6
121,14,-107,-68,114,-46,-328,-789,-528,-456,51,74
192,57,-134,-124,163,-38,-899,-2061,-1636,-1521,-79,67
300,106,-194,-203,247,-44,-1610,-3196,-2655,-2563,-236,59
391,86,-305,-238,347,-109,-1840,-3496,-3044,-3025,-322,70
445,40,-405,-242,425,-182,-1770,-3275,-2996,-3051,-483,29
338,-111,-449,-113,394,-280,-1602,-3044,-2842,-2904,-644,-65
199,-327,-525,64,362,-426,-1216,-2463,-2344,-2443,-596,-147
285,-346,-631,31,458,-488,-877,-1669,-1590,-1767,-487,-152
279,-265,-543,-7,411,-404,-526,-980,-943,-1128,-443,-208
129,-150,-279,10,204,-214,-202,-437,-428,-548,-328,-188
-37,-98,-61,68,12,-79,69,40,59,-16,-107,-101
-142,-107,35,124,-88,-36,253,330,340,285,12,-92
-163,-91,73,127,-118,-9,296,410,418,367,14,-76
-173,-89,83,131,-128,-3,323,470,474,433,34,-72
-181,-80,100,131,-140,10,338,528,531,499,53,-61
-195,-76,120,135,-157,22,360,583,584,546,70,-49
-188,-65,124,126,-156,29,389,661,657,615,91,-39
-185,-55,130,120,-157,37,410,736,736,695,117,-23
-195,-44,151,119,-173,54,448,834,825,787,141,-11
-184,-21,163,103,-173,71,488,946,933,895,160,4
-163,9,172,77,-168,90,531,1071,1055,1022,200,21
-174,28,202,73,-189,115,578,1206,1186,1156,248,39
-165,50,215,57,-190,132,610,1329,1314,1284,309,62
-133,88,221,22,-177,154,630,1446,1434,1412,361,91
-109,108,217,1,-163,162,627,1495,1513,1492,421,120
-71,130,201,-30,-136,165,597,1465,1510,1488,475,158
-36,146,182,-55,-110,164,543,1356,1418,1407,489,177
-1,139,140,-69,-70,139,447,1136,1230,1222,479,180
-2,108,109,-53,-56,108,324,865,972,961,428,174
9,64,55,-37,-23,59,221,598,700,682,342,141
24,48,24,-36,-1,36,154,367,455,443,259,104
-13,21,34,-4,-24,27,109,210,291,268,173,66
-22,-31,-9,27,-6,-20,88,118,189,146,106,24
-27,-50,-23,39,-2,-36,84,63,119,73,71,-1
-37,-56,-19,46,-9,-37,79,33,81,30,31,-8
-51,-66,-15,59,-18,-40,73,24,59,16,15,-16
-90,-65,25,77,-57,-19,67,17,50,8,34,-24
-101,-65,37,83,-68,-14,65,10,37,-5,38,-32
-92,-66,26,79,-59,-20,65,2,30,-15,28,-41
-90,-64,26,76,-57,-19,65,-4,30,-18,23,-39
-77,-68,9,73,-43,-29,64,0,30,-11,13,-43
-76,-84,-7,80,-34,-45,73,7,29,-7,9,-53
-105,-86,19,95,-61,-33,82,14,30,-3,-3,-49
-111,-84,27,97,-68,-29,78,20,30,2,-12,-37
-101,-85,16,93,-58,-35,76,28,29,7,-2,-33
-97,-85,12,91,-54,-36,73,29,47,30,15,-21
-88,-84,4,86,-45,-40,78,31,56,41,14,-27
-77,-79,-3,78,-37,-41,91,34,62,39,9,-59
-77,-81,-4,79,-37,-42,86,28,71,45,35,-56
-82,-77,5,79,-43,-36,83,24,64,42,42,-49
-79,-75,4,76,-41,-35,81,18,57,36,35,-46
-84,-75,9,80,-46,-33,74,13,52,33,35,-37
-79,-71,8,74,-43,-31,81,9,43,24,28,-35
-64,-60,5,62,-34,-27,74,5,44,24,38,-26
-83,-49,33,66,-58,-8,85,18,48,24,51,-22
-84,-26,58,55,-71,16,103,33,57,29,50,-13
-58,3,62,27,-60,32,84,29,38,23,51,-9
-42,25,67,8,-55,46,71,32,40,31,64,6
-6,73,78,-34,-42,75,26,33,79,67,99,36
28,106,78,-67,-26,92,-30,22,76,75,129,52
42,109,67,-76,-13,88,-53,-18,34,44,123,71
16,74,58,-45,-21,66,-42,-52,-10,-14,96,35
-29,18,47,5,-38,32,-1,-52,-2,-22,84,10
-70,-36,34,52,-52,-1,46,-50,4,-18,56,-4
-120,-97,23,108,-71,-37,65,-32,-18,-50,11,-60
-109,-108,1,108,-55,-53,54,-44,-40,-74,-3,-72
-85,-116,-31,100,-27,-73,68,-10,-6,-41,10,-67
-84,-119,-34,102,-25,-76,56,-43,-35,-63,1,-66
-84,-102,-18,93,-33,-60,73,38,33,4,25,-59
-17,-74,-57,45,20,-65,-34,-29,59,63,154,31
115,19,-96,-67,106,-38,-359,-859,-596,-503,198,121
174,85,-89,-129,131,-2,-962,-2091,-1698,-1607,93,122
252,130,-122,-191,186,4,-1646,-3109,-2624,-2593,-1,171
344,121,-223,-232,283,-50,-1778,-3286,-2930,-2993,-116,170
374,42,-332,-208,353,-145,-1685,-3072,-2891,-3025,-300,104
250,-99,-349,-75,300,-224,-1488,-2837,-2737,-2836,-475,19
137,-309,-446,86,292,-377,-1103,-2221,-2193,-2307,-462,-73
223,-344,-567,61,395,-455,-772,-1435,-1422,-1597,-325,-94
174,-258,-433,42,304,-345,-401,-764,-790,-944,-309,-175
44,-161,-206,59,125,-184,-100,-263,-307,-392,-199,-180
-62,-98,-35,80,-13,-67,136,170,137,110,18,-110
-148,-116,32,132,-90,-42,284,416,373,364,85,-108
-157,-111,46,134,-101,-32,321,474,430,427,101,-90
-177,-106,71,141,-123,-17,346,535,486,502,119,-84
-174,-102,72,137,-123,-14,369,592,535,548,102,-73
-177,-93,84,135,-130,-5,396,648,587,602,131,-63
-192,-92,101,142,-147,5,411,724,663,678,157,-58
-171,-73,98,122,-134,12,437,803,737,744,157,-46
-167,-52,115,109,-141,31,476,902,832,851,185,-43
-177,-33,144,105,-160,55,515,1010,939,962,213,-27
-164,-4,160,84,-162,77,549,1130,1053,1082,255,-11
-158,11,169,73,-164,90,591,1262,1185,1215,294,1
-140,35,175,52,-157,105,631,1386,1310,1338,340,25
-138,62,200,37,-169,131,655,1499,1434,1473,402,52
-115,88,203,13,-159,145,654,1553,1506,1544,465,83
-60,120,181,-30,-121,150,614,1508,1476,1515,510,109
-45,124,169,-39,-107,146,544,1370,1385,1435,533,138
-18,127,145,-55,-82,136,446,1154,1195,1246,516,160
7,105,98,-57,-46,102,331,892,933,968,460,144
5,53,48,-29,-22,50,236,633,675,686,381,110
8,22,15,-15,-4,18,171,417,440,446,278,71
6,7,0,-7,3,4,129,270,283,284,203,35
-13,-7,5,10,-9,-1,108,181,186,178,147,6
-31,-18,13,24,-21,-2,103,135,119,113,103,-16
-35,-25,10,30,-22,-8,96,98,82,68,81,-34
-41,-36,6,38,-23,-15,89,75,66,50,69,-43
-45,-43,3,44,-24,-20,83,75,61,47,58,-50
-51,-53,-1,52,-24,-27,77,70,54,38,47,-55
-61,-66,-6,64,-27,-36,75,68,47,33,41,-59
-64,-64,0,64,-31,-32,75,64,41,26,36,-66
-70,-61,9,65,-40,-25,85,66,43,24,31,-65
-81,-59,22,70,-52,-18,91,70,46,25,25,-65
-94,-55,40,74,-66,-7,89,69,44,24,19,-66
-95,-56,38,75,-66,-9,90,70,45,27,16,-64
-93,-62,30,77,-61,-16,90,75,45,32,13,-63
-85,-60,25,72,-55,-17,89,82,52,37,19,-69
-71,-54,17,62,-44,-18,101,86,73,46,24,-67
-80,-68,12,74,-45,-28,106,93,83,52,29,-60
-82,-77,5,79,-43,-36,100,92,83,54,47,-59
-75,-74,1,74,-37,-36,98,83,79,50,49,-51
-67,-73,-7,70,-30,-40,94,79,73,41,41,-53
-60,-69,-9,65,-26,-39,90,70,70,37,38,-56
-70,-71,-1,71,-35,-36,88,67,61,29,31,-52
-76,-65,11,71,-44,-27,84,71,65,24,25,-48
-71,-53,19,62,-45,-16,97,70,63,30,37,-45
-51,-16,35,33,-43,9,110,76,73,44,51,-41
-38,21,59,8,-49,39,81,70,67,50,55,-39
-40,19,58,10,-49,38,69,63,54,47,58,-42
3,54,51,-29,-24,52,38,51,89,65,86,-3
54,98,44,-76,5,70,-20,45,93,65,119,45
53,91,39,-72,7,64,-46,22,56,38,105,39
32,61,29,-47,1,45,-43,-21,13,-5,68,26
-15,19,34,-2,-25,26,11,-12,9,-25,55,20
-85,-45,40,65,-62,-3,58,4,4,-15,30,-27
-115,-107,8,111,-61,-49,66,15,-12,-34,-18,-81
-103,-122,-20,113,-41,-71,68,-8,-28,-70,-33,-91
-106,-137,-32,122,-37,-85,71,8,-11,-40,-20,-92
-101,-132,-31,116,-35,-81,57,-24,-30,-50,-18,-89
-79,-101,-22,90,-28,-61,64,32,19,-18,-7,-68
-26,-77,-52,52,14,-65,-9,55,94,88,96,-2
90,-4,-93,-43,92,-48,-273,-648,-423,-349,166,94
161,75,-85,-118,123,-5,-839,-1892,-1523,-1436,62,115
251,118,-134,-185,192,-8,-1563,-3019,-2544,-2510,-58,121
362,101,-261,-231,311,-79,-1784,-3307,-2914,-2981,-123,156
403,42,-361,-222,382,-159,-1705,-3085,-2883,-3016,-286,111
298,-80,-378,-109,338,-229,-1540,-2885,-2765,-2866,-493,12
156,-295,-451,70,304,-373,-1155,-2337,-2287,-2397,-505,-69
212,-384,-595,86,404,-489,-819,-1551,-1528,-1706,-376,-96
213,-310,-523,49,368,-417,-473,-866,-879,-1061,-361,-176
71,-207,-278,68,175,-242,-154,-355,-395,-508,-299,-216
-54,-143,-89,99,18,-116,95,106,79,16,-98,-140
-135,-141,-6,138,-64,-73,276,394,364,323,19,-108
-165,-136,29,150,-97,-53,322,477,443,416,59,-95
-186,-129,57,157,-121,-36,345,538,504,479,68,-89
-191,-123,68,157,-130,-27,364,589,555,539,68,-83
-181,-115,65,148,-123,-25,383,647,610,592,79,-74
-182,-108,74,144,-128,-17,411,716,679,658,98,-71
-185,-97,88,141,-136,-4,435,796,755,735,108,-60
-202,-88,114,145,-158,13,472,895,851,836,136,-49
-198,-74,124,136,-161,24,509,1000,951,946,175,-34
-185,-48,136,116,-160,44,547,1121,1066,1064,200,-12
-189,-27,161,108,-175,67,592,1253,1198,1198,247,12
-176,-6,170,91,-173,82,623,1375,1322,1325,290,33
-156,26,183,65,-170,104,649,1489,1454,1456,349,59
-136,43,179,46,-157,111,640,1554,1533,1542,412,92
-105,77,182,14,-144,129,603,1533,1526,1547,464,129
-68,95,162,-14,-115,129,552,1411,1451,1469,495,160
-42,77,119,-18,-81,98,451,1193,1270,1286,486,173
-16,65,81,-25,-48,73,340,934,1012,1025,441,159
-14,38,52,-12,-33,45,239,658,741,735,355,136
-34,7,41,13,-37,24,161,427,500,488,268,101
-26,-22,4,24,-15,-9,119,269,324,304,175,48
-37,-56,-19,47,-8,-37,98,165,211,178,91,9
-59,-83,-24,71,-18,-53,93,112,151,115,44,-18
-58,-88,-31,73,-14,-59,86,83,117,77,19,-31
-73,-96,-23,85,-25,-60,79,70,89,48,12,-40
-91,-111,-20,101,-36,-65,72,64,70,37,4,-54
-94,-109,-15,102,-39,-62,71,56,66,32,-4,-56
-110,-120,-10,115,-50,-64,76,49,61,27,-11,-48
-113,-126,-14,120,-49,-70,74,42,57,21,-28,-55
-97,-124,-27,111,-34,-75,75,40,52,16,-33,-64
-97,-126,-29,111,-33,-77,74,39,47,17,-37,-66
-103,-124,-22,114,-40,-73,75,40,45,26,-51,-75
-106,-125,-19,116,-43,-72,83,38,43,32,-48,-75
-111,-125,-14,118,-48,-69,85,42,52,40,-45,-74
-116,-125,-10,120,-53,-67,85,49,60,55,-43,-76
-119,-125,-5,122,-56,-65,85,52,63,54,-40,-74
-120,-125,-5,123,-57,-65,85,66,82,59,-38,-76
-122,-127,-5,125,-58,-66,84,69,94,65,-34,-75
-131,-136,-5,134,-63,-70,81,60,95,58,-36,-75
-131,-139,-8,136,-61,-74,80,55,96,55,-31,-75
-113,-137,-24,125,-44,-80,78,49,95,48,-30,-75
-105,-140,-36,123,-34,-88,73,41,97,42,-29,-75
-93,-118,-25,106,-34,-72,85,47,95,49,-23,-66
-82,-80,2,81,-42,-39,100,56,97,63,-13,-51
-102,-73,29,88,-65,-22,76,45,94,47,-6,-33
-94,-56,38,75,-66,-9,61,38,96,54,7,-12
-49,-2,47,25,-48,23,18,28,107,99,40,7
-23,28,50,-3,-37,39,-47,17,101,96,55,23
-10,34,44,-12,-28,39,-69,-19,66,59,63,43
-33,2,34,15,-33,18,-69,-56,17,2,27,20
-68,-48,20,58,-44,-13,-26,-67,18,-17,-4,-9
-99,-96,3,98,-51,-46,26,-70,16,-3,-10,-27
-141,-158,-17,150,-62,-87,45,-50,-2,-34,-67,-72
-142,-177,-34,160,-54,-105,43,-62,-21,-69,-91,-91
-135,-183,-47,160,-44,-115,50,-30,6,-44,-75,-82
-137,-188,-51,163,-43,-119,50,-56,-22,-52,-81,-76
-122,-179,-57,150,-32,-117,63,13,38,11,-63,-69
-51,-139,-88,95,19,-113,-33,-15,97,85,56,4
66,-63,-129,-1,98,-96,-333,-818,-520,-425,107,98
133,-5,-138,-63,135,-71,-954,-2127,-1676,-1561,-26,94
235,36,-199,-135,216,-81,-1672,-3200,-2643,-2590,-130,122
354,31,-323,-193,338,-146,-1827,-3378,-2925,-2974,-186,154
390,-28,-418,-181,404,-223,-1731,-3141,-2875,-2975,-356,96
259,-185,-445,-37,352,-315,-1542,-2913,-2736,-2795,-553,-9
125,-407,-532,141,329,-469,-1136,-2310,-2209,-2312,-549,-97
194,-456,-649,131,422,-552,-807,-1522,-1453,-1623,-417,-116
180,-377,-558,99,369,-467,-459,-856,-831,-1002,-425,-197
37,-285,-322,125,179,-303,-150,-350,-346,-458,-347,-211
-115,-223,-108,169,-3,-165,97,108,126,69,-116,-124
-203,-216,-13,210,-95,-114,272,385,392,348,-24,-93
-209,-203,5,206,-107,-99,307,457,464,431,0,-78
-217,-197,19,207,-118,-89,339,514,519,486,21,-85
-228,-189,39,209,-133,-75,355,569,573,549,28,-78
-229,-181,48,204,-138,-66,371,634,637,612,46,-67
-223,-175,48,199,-135,-63,405,703,702,676,51,-63
-226,-164,61,195,-143,-51,429,784,779,757,67,-52
-226,-150,76,188,-150,-37,460,890,879,853,98,-44
