I,II,III,aVR,aVL,aVF,V1,V2,V3,V4,V5,V6
174,159,-15,-166,95,71,-254,413,349,318,208,-27
167,141,-26,-154,96,57,-249,376,320,296,187,-44
140,99,-42,-119,91,28,-244,297,263,266,154,-67
101,55,-45,-78,73,5,-239,223,213,251,128,-103
73,25,-48,-49,60,-12,-233,151,162,235,107,-122
46,-5,-51,-20,48,-28,-227,111,125,218,83,-131
21,-33,-54,6,38,-44,-222,77,103,210,63,-160
7,-48,-55,21,31,-51,-216,48,89,206,56,-164
-10,-60,-50,35,20,-55,-209,39,79,203,51,-171
-23,-73,-50,48,14,-61,-202,31,66,199,45,-194
-27,-75,-49,51,12,-61,-196,22,60,196,40,-198
-31,-75,-45,53,8,-60,-190,16,60,192,34,-203
-33,-78,-45,56,6,-61,-185,19,59,189,31,-206
-38,-81,-43,60,2,-62,-185,20,54,187,28,-223
-40,-79,-39,60,-1,-59,-183,19,55,184,25,-270
-40,-80,-41,60,0,-60,-180,20,52,181,22,-283
-41,-81,-39,61,-1,-60,-179,20,49,179,20,-278
-34,-74,-40,54,3,-57,-182,18,50,176,20,-281
-52,-92,-40,72,-6,-66,-185,13,46,173,20,-279
-65,-100,-34,83,-15,-67,-185,10,45,171,20,-280
-34,-87,-53,60,10,-70,-185,7,45,167,20,-275
-23,-84,-61,54,19,-72,-185,2,40,165,20,-275
-24,-74,-50,50,13,-62,-184,0,40,162,20,-275
-21,-72,-51,47,15,-61,-180,4,40,160,26,-274
-39,-80,-41,60,1,-60,-173,11,40,160,32,-276
-36,-80,-44,58,4,-62,-169,14,40,159,39,-270
-27,-77,-51,52,12,-64,-162,18,43,179,45,-258
-9,-38,-30,24,11,-34,-157,24,58,200,52,-243
12,-3,-15,-5,14,-9,-157,22,72,212,55,-234
19,5,-14,-11,16,-5,-175,27,81,222,59,-217
62,57,-5,-59,33,26,-206,49,113,247,96,-192
93,92,-1,-92,47,45,-216,78,142,271,128,-181
95,79,-15,-87,55,32,-226,72,128,261,122,-188
82,61,-22,-71,51,19,-230,64,119,252,120,-189
62,1,-61,-31,62,-30,-232,36,88,227,93,-194
24,-61,-85,19,55,-73,-204,-4,43,185,38,-246
-28,-103,-76,65,24,-89,-174,-5,44,158,6,-277
-52,-142,-90,97,19,-116,-168,-30,11,124,-32,-307
-50,-129,-79,90,15,-104,-164,-11,29,143,-13,-291
-67,-162,-95,114,14,-128,-160,-55,-15,107,-46,-311
-60,-143,-84,101,13,-113,-152,-17,16,128,-22,-290
-67,-163,-95,115,14,-129,-156,-63,-22,98,-34,-304
-67,-154,-87,111,10,-120,-137,-33,-16,100,-36,-305
-56,-144,-88,100,17,-115,-149,-43,1,107,-8,-278
-97,-188,-91,143,-3,-139,-112,-107,-104,35,-105,-385
-72,-98,-26,85,-22,-62,-92,41,112,243,31,-273
-39,-47,-8,43,-15,-28,104,855,1058,846,464,94
577,755,178,-666,199,466,-10,2456,3001,2146,1692,1265
827,628,-199,-727,513,214,-811,421,1298,1067,1130,885
152,-377,-529,112,341,-453,-991,-1995,-1615,-923,-571,-686
39,-122,-161,41,100,-141,-639,-832,-753,-358,-232,-468
32,-72,-104,20,68,-88,-341,-338,-263,-50,-62,-336
-71,-152,-81,112,6,-117,-128,-153,-156,-4,-129,-365
-47,-101,-54,74,4,-77,-114,-33,4,103,-45,-260
-88,-157,-69,123,-9,-113,-82,-97,-95,33,-115,-322
-66,-114,-48,90,-8,-81,-82,-8,30,116,-44,-256
-86,-155,-70,120,-8,-113,-75,-77,-41,64,-92,-299
-76,-128,-52,102,-11,-90,-65,-13,25,112,-66,-262
-71,-136,-65,103,-3,-100,-64,-48,-3,91,-94,-277
-66,-123,-57,94,-4,-90,-53,-17,21,110,-86,-262
-59,-116,-57,88,-1,-86,-52,-17,29,113,-79,-246
-64,-113,-49,89,-7,-81,-41,-9,37,115,-80,-239
-61,-102,-42,82,-9,-72,-33,17,61,128,-68,-223
-65,-102,-37,84,-14,-69,-21,44,67,126,-71,-224
-71,-99,-28,85,-21,-63,-8,73,93,143,-61,-211
-76,-97,-21,86,-27,-58,5,87,102,147,-50,-209
-70,-79,-9,75,-30,-44,16,129,138,167,-27,-194
-57,-57,0,57,-28,-28,33,193,172,186,-10,-171
-47,-38,9,42,-28,-14,39,260,206,208,5,-141
-14,0,14,7,-14,7,28,319,253,232,35,-104
27,45,18,-36,4,31,20,375,299,255,65,-68
42,62,20,-52,11,41,11,415,331,267,90,-39
71,83,12,-77,29,47,-2,455,364,263,127,-17
102,109,7,-106,47,58,-20,469,370,260,155,3
127,125,-2,-126,64,61,-55,468,357,257,167,23
140,116,-24,-128,81,46,-93,466,352,252,155,32
153,101,-51,-127,102,25,-119,418,334,229,138,23
159,82,-77,-120,117,3,-124,353,289,195,116,-8
127,46,-81,-86,104,-17,-117,281,232,163,74,-51
85,6,-79,-46,82,-37,-113,204,184,136,35,-88
45,-36,-80,-5,63,-58,-106,153,150,120,2,-119
18,-62,-80,22,49,-70,-101,106,120,112,-26,-147
-2,-82,-80,42,39,-81,-96,70,97,106,-40,-168
-20,-95,-75,58,28,-85,-90,48,77,98,-51,-183
-25,-101,-75,64,25,-88,-85,29,60,90,-64,-195
-29,-103,-74,66,23,-88,-79,14,44,85,-65,-203
-41,-111,-70,76,15,-90,-73,4,35,85,-65,-206
-55,-126,-70,90,8,-97,-71,5,35,85,-65,-212
-56,-126,-70,91,8,-97,-75,5,35,85,-65,-219
-53,-123,-70,88,9,-96,-75,5,35,85,-65,-223
-51,-120,-70,86,10,-95,-75,6,35,85,-61,-227
-49,-119,-70,84,11,-95,-75,2,37,82,-60,-232
-53,-123,-70,88,9,-96,-75,-4,41,79,-60,-236
-55,-125,-70,90,9,-97,-75,-9,39,76,-60,-240
-54,-128,-74,92,10,-101,-75,-14,40,73,-60,-244
-56,-131,-75,94,10,-103,-75,-20,40,70,-60,-247
-56,-134,-78,95,12,-106,-74,-25,40,71,-60,-252
-55,-136,-81,95,13,-108,-76,-24,45,75,-60,-255
-51,-128,-77,90,13,-102,-73,-31,45,75,-60,-251
-56,-124,-68,90,6,-95,-71,-34,49,80,-60,-244
-55,-112,-57,84,1,-84,-69,-26,50,80,-61,-238
-29,-77,-48,53,9,-62,-71,-20,52,85,-54,-231
-13,-52,-39,33,14,-45,-69,-13,67,103,-38,-225
8,-28,-35,10,22,-31,-69,-5,76,113,-24,-218
53,24,-30,-38,41,-3,-90,0,101,140,2,-186
86,59,-27,-72,57,15,-102,16,129,161,32,-159
76,57,-19,-66,47,18,-118,22,126,160,36,-160
79,49,-29,-64,54,10,-130,8,117,159,29,-161
88,16,-72,-52,81,-28,-136,-12,104,135,20,-161
35,-62,-97,14,66,-79,-111,-59,53,84,-32,-209
-14,-109,-94,62,40,-101,-77,-66,28,57,-67,-245
-44,-153,-109,99,33,-130,-72,-97,-15,20,-95,-275
-42,-152,-110,97,34,-130,-64,-78,4,30,-93,-268
-41,-163,-121,102,40,-142,-65,-101,-15,12,-115,-269
-55,-169,-114,112,30,-141,-49,-85,-14,7,-121,-272
-52,-159,-107,105,28,-133,-57,-85,0,14,-105,-249
-74,-190,-116,132,21,-153,-35,-119,-46,-27,-147,-285
-50,-138,-88,95,19,-113,-41,-47,52,26,-85,-222
-93,-217,-124,155,16,-171,-21,-167,-95,-79,-187,-324
-92,-136,-44,114,-23,-90,-1,-55,16,69,-98,-256
-90,-127,-38,108,-26,-82,125,414,587,463,163,-46
378,482,103,-430,137,292,227,2148,2571,1752,1265,969
889,885,-4,-887,446,441,-461,1424,2327,1666,1541,1364
326,-170,-496,-77,411,-333,-917,-1709,-1128,-651,-291,-300
-8,-285,-277,146,135,-280,-636,-1288,-1205,-746,-526,-600
34,-49,-83,7,59,-66,-335,-365,-276,-139,-112,-226
-65,-185,-120,126,27,-152,-77,-276,-277,-171,-234,-349
-35,-100,-65,68,15,-82,-26,-21,2,16,-99,-208
-72,-162,-90,118,9,-126,-10,-141,-118,-62,-185,-278
-62,-117,-55,90,-3,-86,7,-31,-11,9,-129,-226
-72,-138,-66,105,-3,-102,7,-86,-55,-24,-153,-248
-74,-127,-53,100,-10,-89,28,-46,-24,-4,-145,-239
-72,-122,-49,97,-11,-85,32,-50,-15,1,-138,-230
-83,-128,-45,106,-19,-87,50,-48,-25,-5,-145,-242
-73,-110,-36,92,-18,-73,54,-28,6,15,-126,-220
-78,-114,-36,96,-21,-75,55,-38,-6,5,-136,-232
-72,-99,-27,86,-23,-62,59,2,26,25,-119,-214
-72,-98,-26,85,-23,-62,76,5,31,19,-112,-220
-70,-89,-19,80,-25,-54,85,43,60,35,-83,-202
-64,-80,-16,72,-24,-47,94,85,80,51,-56,-183
-53,-65,-11,59,-21,-38,112,129,108,72,-23,-162
-42,-49,-7,46,-17,-28,116,178,137,88,11,-139
-21,-24,-4,23,-8,-14,116,227,174,103,44,-116
4,8,4,-6,0,6,114,286,220,133,76,-70
25,38,12,-32,6,25,110,345,266,153,120,-27
50,69,20,-60,15,44,110,388,304,167,170,-2
67,96,29,-81,19,62,89,424,334,179,217,15
96,119,23,-108,36,71,55,446,347,179,285,64
126,128,2,-127,62,65,27,450,344,168,354,103
136,119,-17,-127,76,51,6,449,346,162,374,92
149,111,-38,-130,94,36,-32,415,314,145,367,84
153,99,-54,-126,103,22,-58,346,262,105,373,75
133,72,-61,-102,96,5,-49,274,213,76,362,66
95,29,-65,-61,79,-18,-47,202,162,58,327,37
61,-4,-65,-28,63,-34,-42,133,119,44,301,-5
35,-30,-65,-2,50,-47,-37,78,81,34,284,-32
14,-51,-65,20,40,-58,-33,44,56,21,275,-65
5,-60,-65,28,35,-62,-27,18,43,16,269,-93
-7,-73,-65,41,29,-69,-24,7,34,13,262,-104
-15,-76,-62,46,24,-69,-18,1,26,10,256,-114
-16,-73,-57,45,21,-65,-15,-6,17,7,250,-124
-39,-94,-54,67,8,-74,-10,-12,15,5,255,-132
-61,-111,-50,86,-5,-81,-2,-19,15,3,261,-140
-58,-104,-47,82,-5,-75,4,-20,11,-1,267,-140
-57,-101,-43,79,-7,-72,11,-20,10,0,273,-140
-57,-96,-40,76,-8,-68,18,-20,10,0,275,-140
-51,-91,-40,71,-5,-66,18,-20,5,0,275,-140
-50,-88,-37,69,-6,-63,14,-20,1,0,275,-137
-50,-84,-35,68,-7,-59,12,-21,-1,-5,275,-134
-50,-86,-35,68,-7,-60,9,-27,-6,-5,275,-136
-50,-81,-32,65,-9,-56,6,-35,-10,-5,280,-134
-52,-80,-28,66,-12,-54,5,-40,-8,-4,284,-135
-55,-80,-25,68,-15,-52,12,-49,-2,-6,289,-134
-54,-76,-22,65,-16,-48,21,-43,3,-1,292,-126
-50,-68,-18,59,-15,-43,27,-25,5,13,303,-118
-20,-32,-12,26,-3,-21,38,-17,11,26,322,-109
-4,-7,-3,6,0,-5,33,-7,15,38,332,-94
15,17,2,-16,6,9,-4,3,35,51,348,-64
78,81,3,-80,37,42,-33,22,63,80,390,-39
103,101,-2,-101,52,49,-45,57,67,97,420,-31
89,86,-3,-87,46,41,-56,37,60,86,409,-22
69,60,-9,-64,39,25,-51,10,54,79,399,-17
45,-6,-51,-20,49,-28,-37,-25,16,40,367,-43
7,-55,-63,24,35,-59,-24,-47,-22,-7,327,-95
-43,-96,-53,70,5,-74,-19,-60,-46,-36,304,-125
-68,-124,-56,96,-6,-90,-7,-82,-66,-54,279,-140
-62,-106,-44,84,-9,-75,-6,-61,-38,-32,299,-118
-79,-129,-50,105,-14,-90,1,-96,-83,-67,266,-145
-54,-99,-45,77,-4,-72,2,-47,-35,-30,296,-109
-59,-130,-70,95,6,-100,5,-107,-93,-73,259,-139
-59,-105,-46,82,-6,-75,15,-44,-48,-40,289,-118
-62,-116,-54,89,-4,-84,11,-105,-78,-61,277,-128
-123,-147,-24,136,-50,-85,57,-114,-132,-83,217,-199
-112,-92,20,102,-66,-36,82,50,124,132,377,-64
-15,74,89,-29,-52,81,295,1098,1312,899,944,425
656,913,257,-785,199,585,40,2418,3049,2072,2129,1583
748,491,-257,-619,503,117,-742,-201,652,515,1126,792
81,-387,-468,153,274,-427,-783,-2005,-1751,-1113,-328,-602
54,-18,-72,-17,63,-45,-431,-676,-625,-387,185,-185
5,-48,-53,22,29,-50,-143,-387,-350,-221,219,-147
-85,-96,-11,91,-36,-54,33,-126,-173,-124,230,-147
-59,-68,-9,64,-25,-39,42,-85,-84,-78,279,-88
-91,-104,-13,98,-39,-58,66,-99,-136,-108,232,-131
-68,-62,5,65,-37,-28,61,-32,-51,-42,290,-80
-90,-95,-6,92,-42,-50,80,-83,-117,-79,245,-126
-81,-68,14,74,-47,-27,85,-18,-47,-30,287,-90
-85,-80,6,82,-45,-37,90,-58,-85,-57,258,-115
-83,-64,19,73,-51,-22,95,-18,-41,-32,279,-98
-81,-63,18,72,-49,-22,88,-25,-42,-38,274,-99
-83,-57,26,70,-54,-16,91,-1,-29,-31,273,-96
-78,-49,29,64,-53,-10,88,19,-20,-23,287,-89
-77,-47,30,62,-54,-8,110,35,-18,-20,295,-90
-69,-34,35,51,-52,0,130,60,15,-6,323,-83
-64,-28,36,46,-50,3,135,88,38,0,338,-76
-63,-18,44,40,-53,13,146,133,67,23,354,-59
-46,15,61,15,-54,38,159,177,98,45,371,-45
-35,41,76,-4,-56,58,159,231,137,69,394,-16
-4,73,77,-35,-41,75,153,288,184,97,429,18
49,119,71,-84,-11,95,149,332,226,118,458,49
70,136,67,-103,1,101,145,374,255,127,492,91
93,155,62,-125,15,109,122,408,285,126,532,130
120,178,58,-149,31,117,80,414,301,124,564,153
125,179,53,-153,36,116,51,411,305,127,572,170
134,173,39,-153,47,106,19,406,282,111,566,172
152,171,18,-162,67,94,-7,359,232,78,559,162
150,147,-3,-148,76,72,-21,284,173,39,530,126
114,104,-11,-109,62,47,-32,210,115,8,490,88
78,66,-12,-72,45,27,-28,136,70,-4,450,67
39,24,-16,-31,27,4,-17,84,39,-15,415,29
12,-6,-18,-3,15,-12,-8,47,17,-33,393,-1
6,-14,-21,4,14,-17,3,11,-1,-41,376,-9
-4,-21,-16,13,6,-18,12,-16,-13,-40,362,-18
-17,-28,-11,22,-3,-19,23,-29,-24,-40,358,-26
-27,-34,-7,31,-10,-20,29,-35,-35,-40,355,-31
-38,-40,-2,39,-18,-21,31,-46,-45,-40,351,-34
-52,-50,2,51,-27,-24,35,-53,-47,-41,347,-38
-59,-52,7,55,-33,-22,37,-51,-44,-45,345,-41
-57,-48,9,52,-33,-19,41,-50,-45,-45,349,-46
-58,-46,13,52,-35,-16,38,-49,-45,-45,350,-34
-57,-42,15,49,-36,-13,34,-45,-45,-45,350,-12
-58,-40,18,49,-38,-11,36,-45,-46,-45,350,-4
-61,-40,21,50,-41,-10,31,-47,-51,-49,349,-5
-56,-40,16,48,-36,-12,30,-52,-55,-50,352,-5
-55,-40,15,47,-35,-12,30,-55,-57,-50,355,-5
-55,-41,14,47,-35,-13,25,-58,-62,-50,355,-5
-50,-39,11,45,-30,-14,26,-63,-65,-49,355,-1
-50,-41,9,45,-30,-16,23,-65,-60,-42,355,8
-44,-32,12,38,-27,-10,21,-59,-52,-36,355,17
-48,-24,24,35,-36,0,18,-54,-46,-29,361,39
-45,-6,39,25,-42,17,28,-48,-41,-23,377,69
-9,39,49,-15,-29,44,46,-44,-27,-18,400,81
3,54,51,-29,-24,52,40,-35,-17,-7,414,83
35,89,55,-62,-10,72,10,-19,6,10,430,107
82,136,54,-109,14,95,-22,3,39,45,461,147
87,137,50,-112,18,93,-37,17,40,61,471,166
78,128,50,-103,14,89,-35,-3,29,40,461,165
61,105,44,-83,8,74,-32,-11,20,33,453,158
22,48,26,-36,-2,37,-27,-51,-27,-8,400,106
-37,-20,17,28,-27,-1,-17,-74,-51,-41,361,66
-84,-78,5,81,-44,-36,-10,-105,-89,-68,327,33
-76,-74,2,75,-38,-36,6,-99,-91,-75,319,27
-71,-76,-5,74,-33,-40,8,-106,-89,-78,323,34
-73,-89,-16,81,-28,-52,28,-118,-111,-98,297,10
-46,-58,-12,52,-16,-34,20,-92,-67,-64,326,41
-66,-97,-31,82,-17,-64,29,-149,-136,-120,272,-7
-32,-37,-5,35,-14,-21,24,-68,-41,-51,340,58
-82,-119,-36,101,-23,-77,20,-188,-163,-136,260,-17
-104,-71,32,88,-68,-19,66,-97,-114,-56,284,1
-109,-52,57,80,-83,3,143,159,277,243,469,161
181,354,173,-268,4,263,326,1718,2013,1353,1365,972
854,1033,179,-944,337,606,-202,1984,2765,1902,2119,1790
510,129,-381,-319,445,-126,-856,-1302,-587,-327,452,339
9,-292,-301,142,155,-296,-669,-1728,-1584,-1025,-275,-402
79,80,1,-79,39,41,-324,-507,-409,-249,265,93
-35,-65,-29,50,-3,-47,-45,-436,-401,-275,126,1
-69,-23,46,46,-57,11,57,-124,-103,-74,223,123
-85,-69,15,77,-50,-27,71,-214,-172,-124,162,84
-88,-47,41,67,-64,-3,93,-136,-116,-85,175,102
-89,-44,45,66,-67,1,86,-141,-112,-83,170,112
-94,-51,43,72,-68,-5,104,-131,-126,-94,146,97
-79,-30,49,54,-64,9,100,-105,-83,-65,161,123
-94,-54,40,73,-67,-7,108,-127,-115,-88,120,105
-109,-40,69,74,-89,15,108,-85,-73,-58,132,122
-122,-46,76,83,-99,15,111,-94,-95,-71,119,116
-116,-35,81,76,-98,23,108,-55,-65,-50,134,150
-117,-34,83,75,-99,24,124,-46,-57,-52,133,148
-114,-26,88,70,-101,31,144,-25,-31,-41,139,154
-106,-15,91,61,-98,37,158,-4,2,-29,147,158
-94,-10,84,52,-89,36,173,32,30,-18,159,167
-82,10,91,35,-87,51,178,84,60,3,168,189
-54,42,95,6,-75,68,179,130,96,30,172,202
-32,71,103,-20,-68,87,171,183,137,57,180,237
-15,106,120,-46,-68,113,161,241,183,77,190,285
17,134,117,-76,-50,125,154,291,216,106,207,332
54,163,108,-109,-27,135,143,334,253,113,219,358
88,187,100,-138,-6,143,130,370,290,102,239,380
110,201,90,-156,10,145,104,384,288,95,250,417
123,202,79,-163,22,140,65,374,281,85,249,434
132,189,57,-160,37,123,36,354,266,76,252,441
133,173,40,-154,46,107,22,311,221,58,231,438
124,153,30,-139,47,91,19,233,171,29,178,406
93,110,17,-102,38,63,20,140,116,0,118,364
51,63,12,-57,19,37,20,70,62,-19,63,326
29,45,16,-37,6,30,20,19,19,-27,23,312
11,29,18,-20,-4,23,21,-19,-8,-35,2,309
-6,15,21,-4,-14,18,29,-50,-28,-45,-17,304
-19,5,24,6,-22,14,36,-81,-43,-53,-43,300
-34,-8,26,20,-30,9,42,-96,-45,-57,-65,294
-46,-17,29,32,-37,6,49,-99,-54,-60,-74,300
-52,-21,32,36,-42,5,50,-104,-68,-63,-86,310
-54,-20,35,36,-44,7,50,-103,-70,-68,-101,326
-61,-24,37,42,-49,6,50,-100,-70,-70,-119,335
-66,-25,41,46,-53,7,50,-97,-74,-70,-148,334
-62,-25,38,43,-50,6,49,-94,-75,-70,-161,335
-58,-25,33,41,-45,4,45,-91,-75,-70,-165,334
-55,-25,30,40,-42,2,46,-89,-80,-70,-170,335
-51,-26,26,38,-38,0,42,-91,-80,-70,-174,336
-48,-24,24,36,-36,0,40,-89,-80,-67,-181,363
-42,-26,16,34,-29,-4,40,-97,-80,-65,-195,385
-51,-22,30,36,-40,4,37,-107,-80,-65,-218,387
-68,-20,47,44,-58,13,34,-104,-78,-65,-229,394
-63,-19,44,40,-53,12,36,-105,-70,-65,-243,400
-60,-14,46,37,-53,16,34,-105,-65,-65,-260,405
-59,-16,44,37,-51,14,38,-106,-57,-66,-273,407
-39,14,54,12,-46,34,58,-104,-52,-60,-280,418
-26,45,71,-9,-49,58,54,-96,-45,-37,-271,434
-16,54,69,-19,-43,61,41,-90,-35,-18,-264,449
27,102,75,-65,-24,89,27,-72,-18,8,-258,469
65,166,101,-116,-19,133,13,-50,20,55,-252,507
62,171,110,-117,-24,140,14,-50,31,67,-248,538
70,170,100,-120,-15,135,19,-52,17,61,-244,545
49,138,90,-94,-21,114,21,-46,10,49,-262,542
-25,31,56,-3,-41,43,26,-90,-48,-29,-341,485
-64,-24,40,44,-52,8,28,-117,-79,-67,-393,451
-85,-63,22,73,-53,-20,23,-144,-113,-94,-434,426
-72,-62,10,67,-41,-26,36,-126,-101,-90,-444,432
-72,-62,10,67,-41,-25,55,-142,-109,-91,-445,440
-77,-78,-1,77,-38,-39,66,-141,-120,-109,-475,432
-66,-57,9,62,-38,-24,51,-130,-88,-79,-454,462
-82,-98,-16,91,-33,-57,71,-165,-147,-134,-510,426
-59,-48,11,54,-35,-18,48,-111,-55,-60,-443,493
-120,-118,2,119,-61,-58,77,-211,-183,-161,-548,402
-81,-45,36,63,-58,-4,105,-124,-94,-59,-523,454
-66,-41,25,54,-46,-8,198,222,385,324,-291,625
296,431,135,-364,81,283,354,1909,2412,1698,784,1590
823,1082,259,-953,282,670,-210,1648,2772,2098,1427,2328
323,133,-190,-228,257,-29,-726,-1499,-861,-439,-450,694
-48,-271,-223,160,88,-247,-554,-1476,-1515,-1050,-1115,-5
20,31,10,-25,5,21,-269,-468,-433,-305,-653,396
-70,-87,-17,78,-26,-52,1,-371,-418,-302,-793,310
-47,-10,36,28,-41,13,93,-86,-101,-75,-665,457
-77,-56,20,66,-49,-18,101,-190,-210,-149,-734,413
-79,-34,44,56,-61,5,107,-86,-113,-87,-692,454
-86,-38,48,62,-67,5,116,-118,-126,-100,-699,450
-88,-38,49,63,-68,5,130,-96,-124,-93,-701,449
-78,-20,58,48,-68,19,120,-86,-99,-70,-691,485
-85,-30,55,58,-70,12,122,-93,-124,-86,-714,477
-74,-9,65,41,-69,27,117,-61,-88,-56,-689,500
-80,-17,63,48,-71,23,113,-73,-105,-70,-708,488
-73,-2,71,37,-72,34,124,-43,-68,-48,-694,505
-72,1,73,35,-72,37,139,-39,-65,-50,-702,504
-70,12,82,29,-76,47,144,-5,-41,-30,-699,512
-67,19,86,24,-77,53,158,24,-24,-19,-690,519
-72,26,98,22,-85,62,172,52,3,4,-677,521
-55,53,108,1,-82,80,182,86,39,34,-657,546
-40,79,119,-20,-80,99,195,139,75,49,-633,577
-34,95,129,-31,-82,112,204,197,124,79,-604,607
-3,133,136,-65,-69,134,198,252,164,99,-579,642
28,171,143,-100,-58,157,188,295,204,116,-539,671
57,192,135,-125,-39,164,175,334,246,133,-498,684
95,222,126,-159,-16,174,145,377,273,128,-477,689
117,237,120,-177,-2,178,106,390,292,120,-473,701
117,228,111,-173,3,169,64,383,296,115,-475,697
121,219,98,-170,11,159,33,363,267,104,-474,689
123,212,89,-168,17,151,15,304,213,75,-477,686
90,176,85,-133,2,130,3,231,148,47,-500,661
48,128,80,-88,-16,104,7,159,92,26,-542,617
31,108,77,-70,-23,92,15,74,43,-2,-585,574
17,87,71,-52,-27,79,20,16,-1,-17,-623,540
-4,67,72,-32,-38,69,28,-20,-33,-22,-641,510
-30,47,77,-9,-54,62,32,-51,-57,-28,-649,480
-47,33,80,7,-63,56,42,-72,-73,-30,-652,461
-55,28,83,13,-69,56,55,-82,-80,-30,-648,453
-68,20,88,23,-78,54,57,-81,-80,-30,-646,444
-75,15,90,30,-83,52,60,-78,-80,-30,-643,435
-79,7,85,35,-82,46,65,-75,-80,-30,-640,426
-74,7,81,34,-78,44,63,-73,-80,-30,-638,414
-66,13,79,27,-73,46,59,-69,-80,-30,-632,402
-57,17,74,19,-66,46,60,-78,-80,-30,-625,392
-49,21,71,14,-60,46,60,-86,-80,-30,-619,386
-41,26,67,7,-55,46,60,-84,-81,-29,-612,379
-34,30,65,2,-50,47,60,-85,-84,-33,-606,371
-40,25,65,7,-53,45,55,-85,-89,-35,-601,364
-39,26,65,6,-53,45,50,-85,-91,-35,-599,357
-42,23,65,9,-54,44,45,-89,-95,-35,-596,352
-45,20,65,12,-55,42,41,-99,-100,-35,-593,347
-50,20,70,15,-60,45,36,-104,-98,-35,-590,343
-53,21,75,15,-64,48,36,-98,-92,-28,-588,338
-47,31,78,8,-63,55,45,-92,-88,-21,-581,334
-52,32,84,10,-68,58,49,-88,-85,-15,-573,342
-26,66,92,-20,-59,79,59,-82,-77,-7,-560,351
-14,103,117,-44,-66,110,60,-77,-64,5,-535,356
9,122,112,-66,-52,117,30,-69,-50,19,-513,361
76,180,104,-128,-14,142,13,-61,-35,40,-485,389
77,219,142,-148,-33,180,9,-52,-21,76,-445,423
81,219,138,-150,-29,178,2,-58,-22,75,-440,423
90,207,117,-149,-14,162,-2,-52,-9,65,-439,420
35,142,107,-89,-36,124,-4,-67,-19,44,-455,389
-18,71,89,-27,-53,80,20,-114,-69,-5,-517,329
-44,35,79,4,-61,56,29,-128,-91,-26,-541,303
-73,-20,54,46,-64,17,34,-144,-130,-67,-573,265
-70,-16,54,43,-62,19,41,-125,-102,-53,-553,276
-73,-35,37,54,-54,1,55,-159,-142,-86,-577,242
-61,-16,45,38,-53,14,58,-118,-108,-56,-555,250
-58,-30,28,44,-42,-1,48,-161,-143,-78,-568,238
-56,-28,28,42,-42,0,66,-125,-125,-74,-572,227
-44,-10,34,27,-39,12,38,-140,-95,-47,-529,260
-114,-76,38,95,-76,-19,101,-202,-208,-142,-635,161
-123,7,130,58,-126,68,115,-93,-21,68,-505,260
-41,71,112,-15,-77,91,301,686,933,737,-56,613
551,895,345,-723,103,620,223,2298,3083,2264,1296,1878
750,856,106,-803,322,481,-577,400,1472,1222,845,1605
118,-231,-350,57,234,-290,-772,-1961,-1685,-1107,-1004,-127
42,-35,-77,-4,60,-56,-427,-897,-912,-620,-763,10
56,78,22,-68,17,50,-140,-428,-377,-247,-564,188
-74,-27,47,50,-61,10,70,-263,-297,-206,-618,110
-62,28,90,17,-76,59,87,-141,-115,-66,-519,195
-95,-25,70,60,-83,22,106,-196,-212,-135,-597,111
-78,19,97,28,-87,58,103,-105,-98,-50,-524,170
-89,-14,76,51,-83,30,114,-164,-170,-106,-571,117
-83,8,91,37,-87,49,128,-99,-97,-55,-532,142
-82,0,82,41,-83,41,133,-128,-118,-75,-546,129
-88,9,96,39,-92,52,139,-95,-91,-56,-531,135
-90,14,104,37,-97,59,139,-91,-85,-51,-521,138
-93,15,107,39,-100,61,145,-76,-86,-49,-520,131
-89,25,114,32,-102,69,147,-59,-67,-36,-504,138
-87,30,116,28,-102,72,156,-60,-58,-36,-497,134
-76,47,122,14,-99,84,165,-28,-28,-20,-474,141
-72,54,126,9,-99,90,169,7,-14,-11,-457,140
-62,72,134,-5,-99,103,184,56,22,21,-432,138
-57,83,140,-14,-98,111,199,90,52,40,-407,148
-40,119,159,-40,-100,139,204,139,96,61,-373,181
-19,151,170,-66,-95,161,203,201,146,82,-342,210
7,169,162,-88,-78,165,193,258,196,111,-312,247
56,213,156,-135,-50,184,179,308,239,132,-281,281
80,229,149,-155,-34,189,157,347,273,138,-238,311
109,251,143,-180,-17,197,131,381,301,145,-214,336
138,275,137,-206,0,205,98,394,296,135,-215,347
139,267,128,-204,5,198,61,386,290,129,-215,351
145,257,113,-201,16,185,31,349,264,110,-214,350
146,239,93,-193,26,166,19,281,210,72,-218,327
118,204,86,-161,16,145,20,203,152,35,-252,285
69,150,81,-110,-7,115,21,117,88,9,-296,241
39,114,76,-77,-19,95,25,45,45,3,-332,205
10,80,70,-45,-30,74,24,-11,5,-6,-367,180
-11,55,66,-22,-39,60,37,-53,-31,-14,-393,150
-10,59,70,-25,-40,64,50,-70,-46,-21,-410,131
-17,53,70,-18,-44,61,51,-77,-53,-28,-420,125
-26,45,71,-10,-49,58,55,-91,-57,-36,-427,114
-35,40,75,-3,-55,57,57,-105,-68,-43,-434,112
-44,31,75,6,-60,53,60,-112,-77,-42,-435,115
-40,33,73,3,-56,52,60,-113,-78,-39,-435,115
-34,35,69,0,-52,52,60,-108,-75,-36,-434,115
-35,35,70,0,-53,52,60,-107,-75,-33,-436,115
-35,34,70,1,-53,52,60,-103,-75,-30,-443,115
-39,31,70,4,-55,50,60,-100,-75,-31,-452,122
-43,26,70,9,-57,48,59,-99,-75,-36,-458,130
-42,23,65,9,-54,44,55,-94,-78,-38,-462,138
-42,20,62,11,-52,40,55,-96,-81,-42,-474,147
-43,15,58,14,-51,36,54,-93,-79,-45,-485,156
-37,18,55,9,-46,36,50,-105,-82,-41,-495,159
-29,21,50,4,-39,36,50,-122,-85,-40,-497,164
-34,18,52,7,-43,35,53,-119,-86,-39,-494,166
-43,15,58,14,-51,36,55,-120,-89,-44,-495,182
-47,13,61,17,-54,36,55,-120,-91,-56,-490,215
-59,8,67,25,-63,37,55,-120,-86,-55,-490,226
-49,19,69,15,-59,44,55,-118,-80,-53,-489,234
-19,66,84,-24,-52,75,55,-108,-73,-32,-480,244
-12,95,106,-42,-59,100,47,-100,-66,-5,-471,271
-1,114,115,-57,-58,114,33,-90,-57,10,-452,308
50,166,115,-108,-33,140,23,-74,-30,42,-424,343
91,205,114,-148,-12,159,14,-51,0,69,-411,390
79,210,131,-145,-26,170,6,-49,10,72,-411,412
84,203,119,-144,-18,160,-2,-36,23,65,-403,415
65,142,77,-104,-6,109,-10,-59,-7,26,-421,384
1,64,63,-33,-31,63,8,-108,-67,-14,-481,327
-32,20,52,6,-42,36,26,-125,-93,-48,-525,296
-47,-14,33,31,-40,9,45,-137,-118,-82,-564,274
-48,-7,41,27,-44,16,45,-116,-92,-54,-545,298
-64,-40,24,52,-44,-8,51,-150,-129,-88,-577,267
-62,-25,37,43,-49,6,52,-105,-76,-51,-549,292
-75,-56,19,65,-47,-18,44,-157,-120,-86,-579,271
-67,-40,28,53,-47,-6,73,-102,-79,-62,-568,272
-84,-48,36,66,-60,-6,68,-129,-85,-65,-556,271
-87,-58,28,72,-57,-15,107,-180,-182,-111,-660,214
-52,40,92,6,-72,65,127,-65,33,119,-515,346
7,111,104,-60,-49,107,334,889,1165,881,17,780
627,975,348,-801,140,661,154,2347,3235,2389,1379,2086
714,755,42,-734,336,398,-605,87,1137,995,634,1554
87,-274,-361,94,224,-317,-703,-1920,-1745,-1177,-1143,-85
33,-48,-81,8,57,-65,-398,-755,-783,-551,-797,152
19,-9,-28,-5,24,-18,-121,-420,-405,-279,-685,249
-46,-26,20,36,-33,-3,80,-203,-240,-180,-702,251
-48,11,59,18,-53,35,87,-138,-104,-74,-645,328
-79,-36,43,57,-60,4,113,-163,-186,-140,-715,264
-65,4,70,30,-67,37,114,-75,-79,-60,-642,336
-82,-29,53,55,-67,12,131,-129,-156,-114,-693,290
-67,6,72,30,-69,39,144,-67,-81,-59,-646,328
-94,-31,64,62,-79,17,143,-100,-121,-85,-665,309
-100,-27,73,64,-87,23,147,-66,-91,-60,-662,322
-90,-16,73,53,-81,28,142,-72,-98,-59,-673,322
-85,-10,75,47,-80,33,148,-56,-87,-55,-665,322
-69,5,75,32,-72,40,147,-42,-58,-39,-654,332
-69,10,79,29,-74,44,157,-23,-47,-32,-652,328
-60,25,85,17,-73,55,181,12,-16,-12,-632,337
-56,33,89,12,-73,60,189,40,3,-2,-624,338
-45,56,102,-6,-74,79,193,74,27,14,-610,350
-35,80,115,-22,-75,97,200,119,58,31,-594,367
-27,92,118,-33,-73,105,204,175,113,57,-567,400
-4,124,128,-60,-66,126,199,228,156,84,-537,437
17,157,141,-87,-62,149,192,290,207,107,-506,467
44,174,129,-109,-43,151,188,332,253,123,-472,505
80,203,123,-142,-22,163,178,374,279,124,-439,532
107,217,110,-162,-2,163,158,408,304,115,-407,558
95,207,112,-151,-9,159,120,413,302,109,-388,582
88,200,112,-144,-12,155,75,409,294,103,-383,572
108,189,81,-149,13,135,41,367,272,89,-389,561
115,182,67,-149,24,124,33,294,213,66,-419,541
103,156,53,-130,25,105,35,217,149,40,-457,507
71,115,44,-94,13,79,35,140,91,18,-499,471
43,89,46,-66,-2,67,34,78,50,6,-538,429
18,61,43,-40,-13,52,39,20,15,-5,-567,393
-2,39,40,-18,-21,39,53,-19,-13,-11,-596,361
-9,31,40,-11,-25,35,56,-42,-28,-14,-610,338
-16,24,40,-4,-28,32,53,-60,-42,-18,-616,327
-22,17,40,3,-31,28,59,-65,-53,-22,-620,315
-29,11,40,9,-35,25,74,-65,-63,-25,-624,304
-35,5,40,15,-38,22,76,-65,-65,-28,-622,296
-39,0,40,20,-40,20,74,-65,-65,-31,-619,289
-40,0,41,20,-40,20,75,-65,-65,-30,-620,282
-45,-1,44,23,-45,21,75,-64,-65,-30,-619,274
-53,-5,48,29,-50,21,74,-60,-65,-30,-620,267
-56,-5,50,31,-52,22,70,-60,-61,-31,-621,261
-53,-3,50,28,-51,23,70,-60,-60,-35,-625,259
-50,0,50,25,-50,25,70,-60,-60,-35,-629,256
-50,0,50,25,-50,25,70,-60,-60,-35,-632,253
-49,0,49,25,-49,24,70,-65,-60,-35,-637,250
-46,0,46,22,-46,23,66,-73,-62,-38,-639,248
-43,-1,43,22,-43,21,65,-81,-67,-43,-637,241
-46,-5,41,26,-43,18,65,-85,-70,-46,-633,234
-49,-12,36,30,-42,12,65,-85,-73,-49,-631,227
-52,-16,36,33,-44,10,65,-85,-78,-54,-628,219
-58,-25,33,41,-45,4,66,-84,-80,-54,-625,212
-54,-15,38,34,-46,11,73,-86,-71,-46,-624,214
-36,25,60,5,-48,42,76,-80,-58,-30,-615,225
-26,53,79,-14,-53,66,86,-72,-44,-2,-607,231
-4,75,78,-35,-42,76,67,-60,-33,24,-584,243
41,120,79,-81,-20,99,26,-58,-5,38,-548,274
45,158,113,-102,-34,135,20,-58,26,55,-512,300
41,157,116,-99,-38,136,19,-61,24,61,-496,294
49,149,100,-100,-25,124,21,-65,24,59,-505,280
19,110,91,-65,-36,101,18,-62,6,42,-502,277
-39,22,61,9,-50,41,29,-88,-53,-4,-547,233
-61,-32,29,47,-44,-2,44,-103,-69,-33,-569,198
-72,-76,-3,74,-34,-39,55,-124,-104,-72,-583,154
-73,-72,2,73,-37,-35,62,-100,-84,-47,-565,152
-79,-95,-16,88,-31,-56,67,-134,-124,-73,-583,123
-65,-80,-15,73,-24,-48,75,-103,-103,-58,-571,120
-56,-83,-27,70,-14,-55,62,-133,-117,-64,-569,113
-65,-97,-33,81,-16,-65,87,-117,-129,-78,-588,79
-53,-58,-5,56,-23,-32,59,-108,-77,-34,-530,124
-120,-149,-29,134,-45,-89,98,-193,-206,-132,-641,-10
-101,-54,47,77,-74,-3,121,-78,-33,66,-518,67
-77,-23,54,50,-65,15,287,517,723,594,-157,344
429,745,316,-587,56,530,287,2205,2924,2162,1168,1557
782,916,135,-849,324,525,-488,826,1922,1566,1091,1618
200,-241,-441,21,320,-341,-797,-1835,-1514,-983,-868,-179
-2,-196,-194,100,96,-195,-475,-1008,-1052,-741,-840,-256
-3,-43,-40,23,19,-41,-169,-392,-348,-238,-538,-15
-98,-138,-40,118,-29,-89,69,-276,-331,-238,-639,-120
-77,-52,26,64,-52,-13,99,-100,-100,-60,-506,7
-116,-117,0,116,-58,-58,128,-181,-215,-149,-587,-71
-100,-63,37,81,-68,-13,125,-77,-91,-54,-509,-8
-116,-95,21,106,-69,-37,125,-137,-162,-103,-544,-54
-108,-73,35,90,-71,-19,140,-79,-108,-58,-510,-35
-111,-81,29,96,-70,-26,139,-97,-123,-66,-511,-46
-112,-77,35,94,-73,-21,145,-75,-111,-60,-508,-45
-107,-71,36,89,-71,-18,148,-65,-94,-46,-491,-32
-113,-78,35,96,-74,-21,159,-62,-99,-53,-490,-40
-105,-62,44,83,-74,-9,165,-41,-69,-33,-467,-26
-103,-60,44,81,-73,-8,174,-38,-64,-31,-445,-29
-98,-46,52,72,-75,3,179,-5,-34,-12,-398,-23
-96,-39,57,68,-76,8,192,26,-16,1,-374,-34
-89,-26,63,57,-76,18,205,72,20,26,-353,-25
-83,-14,68,48,-75,27,222,106,51,49,-327,0
-66,16,82,25,-74,49,234,156,94,81,-285,23
-44,42,87,0,-66,64,233,214,145,114,-249,49
-15,66,81,-26,-48,73,223,269,195,143,-220,84
20,99,79,-59,-30,89,213,323,232,163,-190,115
42,116,74,-79,-16,95,199,359,266,179,-149,139
70,142,71,-106,-1,106,165,394,297,184,-104,147
91,156,66,-124,12,111,137,395,301,173,-71,137
95,145,49,-120,23,97,107,381,299,161,-63,129
109,134,25,-121,42,79,56,368,272,150,-66,121
124,123,-2,-123,63,60,33,308,218,137,-66,105
97,92,-6,-94,51,43,36,231,156,120,-91,65
55,51,-4,-52,29,23,34,150,92,104,-129,21
26,20,-6,-22,16,7,36,74,43,88,-157,-22
-4,-7,-3,6,0,-5,34,15,1,75,-186,-69
-7,-28,-21,18,7,-24,39,-23,-26,70,-219,-118
-10,-43,-32,27,11,-37,56,-42,-37,62,-248,-159
-25,-52,-27,39,1,-39,65,-61,-52,56,-265,-193
-32,-58,-25,46,-3,-41,59,-72,-67,49,-271,-223
-40,-61,-22,51,-9,-41,65,-80,-72,44,-270,-240
-46,-66,-20,56,-13,-42,76,-85,-78,39,-270,-250
-52,-69,-17,61,-18,-43,75,-86,-80,33,-270,-256
-58,-72,-14,65,-22,-42,75,-90,-80,30,-270,-274
-63,-75,-11,69,-26,-42,75,-92,-84,25,-263,-291
-69,-78,-8,74,-30,-43,74,-96,-85,20,-255,-302
-75,-80,-5,78,-35,-42,76,-92,-85,17,-247,-322
-76,-82,-6,79,-35,-44,80,-90,-90,12,-239,-335
-73,-87,-14,80,-29,-50,80,-91,-90,9,-232,-348
-69,-90,-21,80,-24,-55,82,-86,-90,5,-223,-360
-66,-93,-27,80,-19,-60,86,-85,-90,2,-203,-368
-63,-98,-34,81,-14,-66,85,-85,-89,-2,-182,-376
-60,-100,-40,80,-10,-70,89,-90,-93,-5,-162,-385
-60,-100,-40,80,-10,-70,90,-95,-95,-5,-137,-395
-60,-100,-40,80,-10,-70,90,-98,-98,-5,-111,-405
-60,-101,-40,80,-10,-70,90,-104,-100,-5,-94,-412
-59,-99,-40,79,-10,-69,90,-103,-94,-5,-77,-417
-61,-101,-41,81,-10,-71,89,-99,-89,0,-58,-424
-61,-96,-35,79,-13,-66,82,-97,-84,10,-43,-421
-59,-84,-25,72,-17,-54,76,-95,-78,20,-18,-409
-42,-57,-15,49,-13,-36,69,-89,-73,28,14,-401
-8,-17,-8,13,0,-12,62,-81,-72,48,38,-389
-2,-5,-4,4,1,-4,57,-67,-76,63,56,-378
37,38,1,-37,18,19,51,-45,-50,83,93,-355
79,83,4,-81,37,43,51,-31,-21,114,140,-317
61,72,12,-67,24,42,48,-39,-32,111,150,-317
65,57,-8,-60,36,24,48,-30,-39,104,137,-323
69,20,-49,-44,59,-14,41,-44,-53,87,129,-344
17,-47,-63,15,40,-55,52,-95,-97,43,103,-404
-51,-107,-56,79,2,-81,76,-105,-114,18,84,-434
-83,-148,-66,116,-8,-107,82,-132,-159,-25,58,-475
-76,-133,-57,105,-10,-95,79,-108,-134,-5,83,-467
-91,-164,-73,128,-8,-118,80,-144,-167,-40,64,-493
-80,-147,-66,114,-6,-106,82,-106,-136,-19,84,-484
-83,-158,-76,120,-3,-116,76,-139,-156,-34,86,-494
-90,-161,-70,125,-9,-115,94,-122,-158,-37,82,-506
-80,-137,-57,109,-11,-97,72,-110,-114,-6,117,-470
-118,-201,-83,160,-17,-142,115,-195,-245,-107,19,-586
-107,-98,9,102,-57,-44,140,-57,-58,88,157,-486
-94,-57,37,75,-66,-10,321,592,732,641,537,-185
482,765,283,-624,99,523,264,2286,2826,2072,1815,1014
830,768,-62,-798,445,353,-553,723,1594,1269,1516,875
207,-379,-586,86,397,-482,-820,-1924,-1637,-994,-318,-816
0,-195,-195,98,97,-195,-445,-972,-1002,-595,-120,-712
4,-83,-87,39,46,-85,-129,-403,-398,-200,134,-515
-94,-186,-92,140,-1,-139,90,-281,-367,-196,49,-602
-93,-114,-21,103,-36,-67,113,-111,-154,-56,154,-493
-133,-175,-42,154,-45,-108,140,-182,-260,-135,74,-568
-108,-119,-10,114,-49,-64,147,-66,-134,-44,142,-491
-117,-153,-36,135,-40,-94,149,-132,-210,-93,108,-533
-108,-125,-17,117,-45,-71,161,-65,-150,-48,160,-503
-105,-134,-29,120,-38,-81,157,-90,-170,-63,148,-512
-105,-127,-21,116,-42,-74,163,-63,-147,-47,153,-508
-106,-121,-15,114,-45,-68,176,-56,-128,-34,162,-500
-112,-123,-11,118,-51,-66,190,-53,-130,-33,161,-507
-112,-113,-1,112,-55,-56,190,-38,-105,-12,179,-494
-117,-114,3,115,-59,-55,196,-37,-108,-13,183,-500
-106,-95,11,100,-58,-42,202,6,-77,7,210,-490
-99,-84,15,92,-57,-34,213,39,-61,16,229,-492
-91,-68,23,79,-57,-22,232,74,-33,34,259,-487
-78,-49,29,63,-53,-10,242,115,3,49,276,-482
-60,-24,36,42,-48,6,238,172,44,78,299,-460
-41,-2,38,21,-40,18,236,227,92,112,334,-420
-11,21,32,-5,-22,26,232,281,131,126,363,-397
26,54,28,-40,-1,40,231,327,166,140,399,-373
55,79,24,-67,16,51,223,365,201,140,435,-342
79,98,19,-88,30,58,187,389,221,134,468,-316
93,108,15,-101,39,61,150,388,230,131,495,-308
104,102,-2,-103,53,50,114,386,220,125,501,-313
123,94,-29,-108,76,32,76,364,191,115,498,-317
126,77,-48,-101,87,14,64,300,147,85,492,-322
106,43,-63,-74,84,-10,65,232,93,63,461,-326
70,3,-67,-36,69,-32,65,163,44,38,420,-354
36,-28,-64,-4,50,-46,65,102,0,8,388,-388
11,-54,-65,22,39,-60,65,49,-40,0,361,-410
-12,-76,-65,44,27,-70,67,8,-58,-2,347,-432
-19,-84,-65,52,24,-75,71,-15,-71,-6,342,-444
-27,-91,-64,59,19,-77,75,-28,-88,-8,339,-455
-40,-100,-60,70,10,-80,80,-37,-95,-10,335,-463
-49,-109,-60,79,6,-85,84,-48,-103,-13,331,-467
-53,-110,-58,82,2,-84,88,-56,-105,-16,328,-470
-56,-110,-55,84,-1,-82,93,-66,-105,-15,325,-474
-59,-115,-55,87,-2,-85,95,-68,-105,-15,325,-478
-57,-116,-58,87,1,-87,95,-65,-105,-15,325,-481
-53,-114,-61,83,4,-87,95,-65,-105,-16,325,-485
-50,-110,-60,80,5,-85,90,-62,-110,-23,325,-484
-50,-110,-60,80,5,-85,90,-59,-115,-27,328,-487
-51,-110,-59,80,4,-85,89,-61,-119,-33,330,-490
-49,-110,-61,80,6,-85,84,-64,-124,-39,330,-490
-43,-110,-67,76,12,-88,85,-68,-128,-44,330,-486
-41,-114,-73,77,16,-93,85,-71,-130,-49,330,-484
-40,-118,-79,79,20,-99,85,-74,-130,-50,330,-485
-42,-123,-80,83,19,-101,85,-78,-130,-50,330,-480
-45,-124,-80,84,18,-102,85,-80,-130,-50,330,-480
-37,-117,-80,77,22,-98,85,-80,-130,-51,329,-479
-33,-112,-80,73,24,-96,84,-80,-124,-48,330,-473
-27,-107,-80,67,26,-93,81,-80,-117,-43,329,-470
-21,-101,-80,61,29,-90,70,-79,-111,-37,337,-464
-35,-97,-62,66,14,-79,77,-74,-104,-32,349,-461
-37,-83,-46,60,5,-64,86,-62,-99,-23,360,-453
-2,-46,-44,25,22,-45,79,-53,-91,-8,373,-439
34,-11,-45,-11,39,-28,73,-40,-79,6,388,-423
80,34,-46,-57,63,-6,48,-24,-52,33,424,-385
123,73,-50,-98,86,12,24,-16,-27,48,448,-362
114,62,-52,-88,82,5,16,-24,-44,44,435,-371
86,40,-46,-63,66,-3,5,-23,-49,42,431,-375
55,-33,-87,-11,71,-60,-3,-31,-66,8,425,-381
13,-103,-116,45,65,-110,31,-72,-110,-40,386,-421
-26,-131,-105,79,39,-118,54,-90,-127,-64,371,-451
-57,-172,-116,115,30,-144,61,-107,-165,-92,350,-485
-48,-152,-103,100,28,-127,66,-84,-133,-66,364,-470
-65,-183,-118,124,27,-150,69,-118,-169,-95,333,-490
-68,-166,-99,118,16,-132,73,-72,-132,-67,350,-475
-78,-186,-108,132,15,-147,64,-116,-162,-96,329,-488
-88,-182,-94,135,3,-138,80,-83,-151,-85,323,-492
-76,-166,-90,121,7,-128,56,-89,-129,-69,350,-466
-121,-219,-98,170,-11,-159,99,-165,-250,-164,248,-561
-97,-118,-20,108,-38,-69,125,-36,-62,41,389,-447
-56,-43,12,49,-34,-16,315,755,867,654,824,-77
545,777,233,-661,156,505,205,2379,2875,2005,2081,1125
830,647,-183,-739,506,232,-620,443,1255,958,1556,783
175,-402,-578,114,377,-490,-822,-1980,-1717,-1105,-165,-803
49,-137,-187,44,118,-162,-442,-867,-902,-556,154,-580
53,-76,-129,12,91,-102,-139,-394,-409,-243,293,-438
-80,-181,-101,131,11,-141,70,-221,-332,-221,212,-491
-67,-127,-60,97,-3,-93,89,-95,-159,-101,297,-383
-103,-181,-78,142,-12,-129,109,-169,-247,-165,217,-442
-84,-134,-50,109,-16,-92,123,-45,-129,-90,286,-370
-101,-171,-70,136,-15,-120,131,-101,-202,-142,231,-404
-95,-144,-49,120,-23,-96,134,-40,-138,-95,261,-350
-93,-152,-60,123,-16,-106,135,-72,-167,-115,233,-343
-90,-140,-49,115,-20,-94,140,-46,-143,-98,236,-316
-85,-133,-48,109,-18,-90,139,-47,-140,-93,229,-299
-85,-130,-45,108,-20,-87,149,-31,-137,-91,218,-292
-79,-118,-39,99,-20,-79,161,-2,-109,-77,226,-273
-80,-118,-38,99,-21,-77,174,9,-103,-77,231,-271
-70,-103,-33,87,-18,-68,184,47,-74,-58,254,-255
-70,-96,-26,83,-22,-61,187,63,-58,-48,258,-245
-70,-84,-14,77,-27,-49,194,105,-28,-32,278,-222
-64,-69,-6,67,-29,-37,217,157,5,-12,291,-191
-52,-45,7,48,-30,-19,219,201,43,21,295,-152
-30,-7,22,18,-26,8,213,258,89,46,309,-102
-12,21,33,-4,-23,27,210,314,139,67,323,-55
16,42,26,-30,-5,34,204,355,172,81,344,-15
47,67,19,-57,14,43,195,397,209,72,366,25
74,87,13,-81,30,50,165,430,221,64,386,54
104,107,3,-106,50,54,119,424,209,55,394,80
122,104,-18,-113,70,43,73,411,206,46,380,108
139,90,-49,-115,94,20,43,390,192,33,364,111
128,69,-60,-98,94,4,21,331,156,1,329,100
103,22,-80,-62,92,-29,9,255,98,-28,277,87
93,0,-93,-46,93,-46,2,176,43,-47,228,69
53,-32,-85,-10,69,-58,2,116,0,-63,180,45
22,-63,-85,21,54,-74,12,69,-39,-70,140,15
10,-71,-80,30,45,-75,18,19,-64,-72,105,-1
-17,-96,-79,57,31,-88,40,-3,-76,-76,82,1
-24,-100,-76,62,26,-87,56,-10,-84,-79,61,0
-41,-110,-69,75,14,-89,58,-18,-102,-83,36,0
-57,-123,-66,90,5,-94,62,-27,-118,-85,24,0
-58,-119,-61,88,2,-90,65,-37,-120,-85,17,3
-63,-119,-56,91,-3,-87,70,-36,-120,-89,11,5
-57,-114,-57,86,1,-85,68,-35,-123,-90,4,5
-55,-116,-61,85,3,-88,63,-34,-126,-90,-3,5
-52,-115,-63,84,6,-89,60,-30,-124,-95,-8,5
-49,-115,-66,83,9,-90,56,-30,-121,-95,-13,5
-45,-115,-69,80,13,-92,52,-32,-120,-96,-18,0
-45,-115,-70,80,13,-92,49,-38,-120,-100,-21,-8
-49,-115,-65,83,8,-90,45,-41,-120,-100,-27,-14
-52,-116,-65,85,7,-91,45,-46,-120,-102,-30,-21
-63,-128,-65,96,1,-96,44,-50,-122,-108,-40,-28
-66,-131,-65,99,0,-97,40,-50,-125,-111,-53,-28
-65,-129,-64,98,0,-96,40,-50,-128,-117,-55,-22
-63,-131,-68,97,2,-99,43,-50,-131,-120,-58,-17
-59,-129,-70,94,5,-100,45,-50,-134,-114,-61,-14
-67,-130,-63,98,-2,-96,46,-50,-135,-108,-65,-8
-61,-113,-52,87,-4,-82,50,-48,-126,-103,-65,-6
-44,-87,-42,66,-1,-64,50,-43,-113,-97,-59,18
-25,-53,-28,39,2,-40,39,-39,-104,-81,-47,53
5,-15,-19,5,12,-17,25,-33,-96,-69,-38,61
34,16,-18,-25,26,-1,11,-20,-70,-42,-21,91
71,65,-7,-68,39,29,-6,5,-42,-14,20,136
76,85,10,-81,33,47,-29,15,-46,-4,31,144
55,68,13,-62,21,40,-37,23,-55,-2,18,126
71,32,-39,-51,54,-3,-28,10,-48,-19,10,125
14,-52,-66,19,40,-59,-13,-46,-99,-68,-47,95
-48,-109,-61,79,7,-85,0,-49,-126,-105,-88,66
-48,-155,-107,101,30,-130,12,-78,-159,-149,-127,42
-55,-158,-103,107,24,-130,19,-62,-155,-142,-129,44
-54,-159,-105,107,25,-132,16,-82,-169,-152,-134,36
-53,-166,-113,109,30,-139,29,-78,-173,-155,-143,20
-44,-147,-103,96,29,-125,20,-79,-153,-135,-118,37
-59,-181,-122,120,31,-152,39,-99,-198,-178,-163,-3
-40,-132,-92,86,27,-112,15,-32,-112,-107,-94,59
-75,-209,-134,142,30,-171,46,-144,-248,-225,-204,-32
-92,-156,-64,124,-13,-110,76,-56,-138,-106,-148,23
-85,-148,-62,117,-11,-105,182,344,413,309,112,233
346,434,88,-390,128,261,303,2057,2503,1733,1264,1291
826,950,124,-888,351,537,-335,1495,2503,1867,1722,1864
308,-78,-386,-115,347,-232,-805,-1577,-1116,-688,-191,182
-16,-331,-315,174,150,-323,-570,-1296,-1431,-1032,-622,-295
45,-76,-121,16,83,-98,-286,-385,-436,-332,-173,108
-72,-201,-129,137,28,-165,-10,-299,-440,-358,-307,8
-68,-116,-48,92,-10,-82,60,-55,-149,-157,-170,164
-101,-178,-76,140,-12,-126,66,-155,-264,-231,-250,111
-95,-144,-49,119,-23,-96,75,-53,-158,-161,-199,158
-96,-156,-60,127,-17,-108,80,-94,-195,-187,-217,145
-94,-145,-51,119,-21,-98,96,-46,-174,-171,-213,150
-78,-127,-49,103,-14,-88,85,-50,-159,-158,-200,174
-80,-131,-50,106,-15,-90,97,-48,-173,-167,-211,168
-74,-112,-38,93,-18,-75,93,-28,-141,-141,-187,193
-81,-119,-39,100,-21,-79,96,-37,-160,-153,-197,186
-76,-104,-28,90,-24,-65,99,-11,-131,-131,-180,200
-78,-105,-27,92,-26,-66,104,-2,-136,-136,-177,192
-78,-95,-17,87,-30,-56,108,34,-110,-121,-158,196
-77,-85,-7,81,-35,-46,118,51,-83,-103,-147,195
-75,-73,2,73,-38,-35,139,86,-46,-85,-127,195
-66,-53,13,59,-39,-19,147,126,-10,-72,-104,210
-45,-24,22,34,-33,-1,158,176,20,-53,-79,233
-17,13,31,2,-24,22,155,232,65,-23,-47,261
0,39,39,-20,-20,39,143,292,113,-2,-8,291
21,56,35,-39,-7,45,137,338,152,15,24,311
55,82,27,-69,13,55,123,375,180,20,59,336
95,116,21,-105,36,68,100,411,209,26,112,361
118,133,14,-126,52,73,70,420,216,30,143,375
123,129,6,-126,58,67,38,426,207,13,154,386
135,124,-11,-129,73,56,4,405,198,-7,147,380
138,113,-25,-125,81,44,-34,340,148,-39,131,370
116,82,-35,-99,75,23,-42,265,81,-70,114,352
88,40,-48,-64,68,-4,-36,190,30,-90,81,316
56,4,-52,-30,54,-24,-34,109,-20,-103,40,275
31,-18,-50,-6,41,-34,-29,44,-68,-112,7,236
15,-35,-50,10,33,-42,-26,8,-93,-131,-9,208
-4,-54,-50,29,23,-52,-22,-20,-110,-138,-25,191
-14,-64,-50,39,18,-57,-20,-43,-134,-140,-36,179
-16,-66,-50,41,17,-58,-20,-55,-139,-147,-37,162
-18,-63,-45,41,14,-54,-14,-60,-144,-150,-34,147
-26,-71,-45,49,10,-58,-7,-60,-151,-150,-31,139
-41,-84,-44,63,2,-64,-5,-60,-150,-150,-28,131
-38,-78,-40,58,1,-59,-2,-60,-150,-150,-25,123
-30,-70,-40,50,6,-55,1,-60,-150,-150,-24,116
-28,-65,-38,47,5,-51,4,-60,-150,-149,-18,108
-22,-56,-35,39,7,-45,5,-63,-153,-153,-12,100
-25,-56,-32,41,4,-44,0,-66,-155,-155,-8,92
-43,-72,-29,57,-6,-50,-4,-69,-155,-155,-1,84
-51,-76,-26,64,-12,-51,-6,-72,-159,-159,3,77
-49,-74,-25,62,-11,-50,-11,-74,-160,-160,9,71
-46,-75,-30,61,-8,-52,-14,-77,-160,-160,10,64
-45,-75,-30,60,-7,-52,-18,-80,-165,-164,10,58
-44,-74,-30,59,-7,-51,-20,-83,-168,-169,15,50
-39,-69,-31,54,-4,-50,-20,-85,-172,-168,14,45
-38,-65,-27,52,-5,-46,-24,-89,-175,-162,17,50
-44,-63,-19,54,-12,-41,-25,-90,-180,-157,20,50
-47,-58,-11,52,-18,-34,-25,-86,-177,-154,23,51
-53,-56,-3,55,-25,-29,-19,-82,-169,-149,24,55
-46,-42,4,43,-24,-19,-14,-78,-162,-146,33,54
-14,1,16,6,-15,8,-6,-73,-153,-134,58,57
-4,27,31,-11,-18,29,-11,-66,-146,-112,64,64
25,67,42,-46,-8,54,-44,-59,-120,-93,88,85
70,118,48,-94,11,83,-67,-42,-92,-83,129,111
74,124,50,-99,12,87,-78,-38,-98,-87,145,121
66,116,50,-91,8,83,-80,-22,-106,-83,152,103
66,88,22,-77,22,54,-81,-25,-106,-93,141,93
34,10,-24,-22,29,-7,-76,-96,-154,-150,90,44
-23,-46,-23,35,0,-34,-62,-104,-173,-170,59,-2
-54,-87,-33,70,-11,-59,-48,-134,-209,-208,27,-45
-53,-90,-37,71,-8,-63,-38,-123,-205,-202,39,-62
-62,-103,-40,82,-11,-71,-42,-143,-218,-209,35,-77
-59,-104,-45,81,-7,-74,-30,-133,-220,-209,33,-95
-50,-88,-39,70,-6,-63,-39,-128,-202,-185,56,-82
-65,-121,-56,93,-4,-88,-22,-157,-258,-225,15,-138
-51,-68,-17,60,-17,-42,-35,-94,-175,-152,85,-87
-104,-154,-49,129,-27,-102,0,-212,-314,-283,-34,-192
-90,-70,20,80,-55,-25,18,-112,-196,-157,49,-148
-92,-65,26,78,-59,-19,129,253,321,238,313,32
311,513,202,-412,54,357,263,1948,2365,1621,1437,1041
837,1018,181,-928,328,599,-409,1491,2426,1751,1908,1594
378,-52,-430,-163,404,-241,-927,-1602,-1154,-783,34,-76
8,-263,-271,128,140,-267,-662,-1370,-1467,-1080,-354,-543
17,10,-7,-13,12,1,-343,-433,-454,-372,118,-167
-68,-126,-57,97,-5,-91,-82,-370,-490,-429,-22,-304
-48,-33,16,41,-32,-8,-23,-124,-212,-232,116,-190
-82,-100,-18,91,-32,-59,-7,-223,-319,-306,32,-269
-83,-62,21,72,-51,-20,11,-111,-216,-236,89,-229
-91,-78,14,84,-52,-32,6,-155,-249,-262,89,-251
-99,-70,29,84,-64,-20,23,-119,-225,-246,99,-254
-95,-60,35,77,-64,-12,18,-117,-210,-233,120,-258
-95,-68,27,82,-61,-21,32,-117,-222,-242,112,-280
-84,-51,33,67,-58,-8,28,-93,-189,-216,139,-260
-87,-60,27,74,-56,-16,32,-103,-206,-228,130,-278
-82,-44,37,63,-59,-3,43,-73,-177,-206,152,-265
-75,-42,33,58,-54,-5,45,-72,-180,-211,158,-273
-93,-31,63,62,-78,16,62,-45,-156,-192,183,-280
-104,-23,81,64,-92,28,74,-18,-135,-172,212,-287
-87,-7,79,47,-83,36,84,19,-98,-155,242,-279
-79,9,88,35,-84,48,94,60,-70,-142,269,-277
-62,27,89,18,-76,58,98,109,-39,-124,293,-269
-38,58,97,-10,-68,77,97,168,13,-93,327,-240
-8,90,98,-41,-53,94,86,220,55,-75,363,-207
26,119,94,-73,-34,106,83,269,97,-73,397,-174
55,147,91,-101,-18,119,71,310,132,-76,434,-152
87,174,87,-131,0,130,47,343,161,-79,471,-132
104,190,85,-147,9,137,3,363,179,-81,505,-117
128,201,73,-164,27,137,-42,356,167,-86,525,-115
143,195,52,-169,45,123,-63,341,154,-84,525,-115
137,172,35,-155,51,103,-100,286,115,-105,514,-142
128,146,19,-137,54,82,-120,208,51,-141,480,-181
95,105,9,-100,43,57,-113,134,-2,-160,435,-218
58,68,11,-63,23,39,-110,53,-53,-182,400,-262
39,48,8,-44,15,28,-102,-6,-97,-196,372,-297
22,27,5,-25,8,16,-98,-51,-125,-202,354,-327
4,9,4,-7,0,7,-92,-82,-150,-212,342,-353
-5,3,8,1,-7,5,-87,-99,-163,-215,334,-372
-16,0,16,8,-16,8,-82,-116,-172,-215,325,-386
-27,-3,24,15,-25,10,-79,-122,-185,-217,316,-394
-38,-8,30,23,-34,11,-74,-132,-191,-220,319,-400
-40,-10,30,25,-35,10,-70,-136,-196,-220,320,-405
-41,-10,31,25,-36,11,-74,-134,-200,-223,321,-411
-45,-10,35,27,-40,12,-77,-136,-200,-228,325,-419
-45,-10,35,27,-40,12,-81,-134,-200,-230,324,-427
-45,-10,35,27,-40,12,-84,-136,-200,-235,327,-436
-44,-10,35,27,-40,12,-88,-140,-200,-238,330,-450
-48,-13,35,30,-41,11,-90,-148,-203,-242,330,-455
-50,-15,35,32,-42,10,-90,-153,-206,-245,330,-455
-50,-15,35,32,-42,10,-90,-155,-209,-245,330,-460
-53,-18,35,35,-44,8,-90,-158,-210,-245,330,-460
-51,-21,30,36,-41,5,-90,-161,-210,-245,325,-463
-49,-19,30,34,-40,6,-94,-164,-210,-245,325,-469
-44,-16,29,30,-36,6,-99,-165,-210,-241,323,-472
-34,-9,25,21,-30,8,-98,-160,-210,-240,320,-478
-30,-6,24,18,-27,9,-92,-156,-210,-239,320,-478
-29,-1,29,15,-29,14,-87,-153,-209,-236,322,-471
-38,3,41,17,-40,22,-84,-149,-211,-234,330,-463
-43,12,55,15,-49,33,-79,-146,-209,-236,334,-455
-24,50,74,-13,-50,62,-75,-143,-194,-224,344,-448
1,78,77,-40,-38,77,-92,-132,-167,-217,358,-437
41,113,71,-77,-16,92,-123,-122,-149,-190,376,-416
78,161,83,-120,-3,122,-151,-115,-151,-148,407,-383
77,164,87,-121,-6,125,-164,-113,-154,-147,412,-366
67,150,83,-109,-8,116,-154,-111,-163,-157,392,-372
57,123,66,-90,-4,94,-148,-109,-158,-172,391,-388
5,52,47,-29,-22,50,-137,-163,-181,-220,360,-436
-37,5,42,15,-39,23,-131,-182,-204,-241,330,-472
-53,-42,11,47,-32,-15,-129,-209,-245,-277,307,-511
-69,-53,16,61,-42,-18,-122,-204,-243,-277,304,-517
-71,-55,16,63,-44,-19,-125,-219,-244,-282,302,-518
-83,-70,14,76,-48,-28,-111,-227,-264,-300,278,-542
-73,-44,29,59,-51,-7,-121,-205,-229,-270,306,-512
-94,-88,6,91,-50,-41,-108,-258,-294,-323,249,-564
-82,-35,47,58,-64,7,-121,-181,-196,-256,312,-502
-121,-102,19,111,-70,-41,-98,-296,-323,-345,222,-591
-113,-34,79,73,-96,22,-60,-204,-247,-241,261,-570
-114,-17,97,66,-105,39,32,86,173,63,474,-404
201,464,262,-333,-31,363,189,1679,2005,1268,1448,472
850,1099,249,-975,300,674,-422,1754,2570,1714,2132,1225
473,89,-384,-280,429,-148,-1029,-1446,-873,-639,379,-321
4,-249,-253,123,129,-251,-792,-1663,-1646,-1204,-238,-972
76,124,48,-100,14,86,-442,-541,-512,-435,307,-500
-57,-50,7,53,-32,-22,-177,-487,-542,-491,156,-651
-68,24,92,21,-79,58,-97,-188,-258,-299,276,-542
-73,-26,47,49,-61,10,-79,-279,-343,-366,214,-589
-89,-9,81,48,-85,36,-52,-191,-267,-316,246,-565
-99,-15,84,57,-91,34,-60,-212,-271,-318,247,-565
-110,-27,83,68,-97,27,-44,-190,-271,-319,237,-580
-95,-6,89,50,-92,42,-46,-169,-234,-290,263,-558
-112,-19,94,65,-103,37,-35,-184,-259,-309,242,-581
-103,2,105,51,-104,53,-33,-150,-218,-279,268,-558
-103,-6,97,55,-100,45,-30,-167,-236,-293,254,-571
-113,7,120,53,-117,63,-26,-135,-207,-274,270,-561
-119,8,126,55,-123,67,-25,-128,-208,-276,266,-566
-109,24,133,43,-121,78,-13,-93,-188,-260,278,-565
-101,37,138,32,-120,87,4,-65,-166,-243,300,-564
-95,49,144,23,-120,97,16,-36,-139,-231,314,-560
-87,64,151,11,-119,107,27,-5,-103,-216,336,-550
-81,84,165,-2,-123,124,42,40,-68,-199,357,-536
-56,117,172,-31,-114,144,45,99,-23,-171,380,-505
-34,146,180,-56,-107,163,34,152,26,-147,408,-468
2,182,180,-92,-89,181,32,202,63,-134,438,-429
41,208,167,-125,-63,187,16,236,86,-123,462,-404
56,226,170,-141,-57,197,-17,263,112,-124,483,-389
93,243,150,-168,-29,196,-46,285,127,-131,509,-367
82,237,154,-160,-36,195,-80,284,123,-131,509,-363
130,229,99,-180,15,164,-122,254,101,-145,496,-365
104,215,111,-160,-4,163,-165,201,52,-177,483,-367
130,205,75,-168,27,139,-173,131,0,-205,443,-390
297,152,-145,-224,220,3,-169,60,-49,-228,400,-422
321,124,-197,-223,259,-36,-169,-20,-98,-246,368,-449
132,91,-40,-111,86,25,-163,-53,-130,-251,337,-472
