I,II,III,aVR,aVL,aVF,V1,V2,V3,V4,V5,V6
-71,-31,40,51,-56,5,-35,196,42,62,199,100
-84,-29,55,56,-69,13,-36,160,13,31,188,95
-106,-24,83,65,-94,29,-34,124,-30,-16,162,82
-113,-64,50,88,-81,-7,-38,90,-86,-69,144,69
-116,-98,18,107,-66,-40,-56,58,-129,-97,138,54
-139,-93,46,116,-92,-24,-47,54,-130,-98,137,43
-135,-92,43,113,-89,-24,-34,52,-129,-105,131,39
-140,-87,53,113,-96,-16,-28,49,-132,-96,131,36
-185,-111,74,148,-129,-18,-22,46,-140,-115,99,32
-185,-129,55,157,-120,-37,-18,45,-143,-122,68,30
-173,-122,50,147,-111,-36,-11,39,-136,-108,62,24
-160,-122,38,141,-99,-42,-6,47,-135,-102,66,18
-159,-119,41,138,-100,-39,-8,67,-130,-94,81,10
-185,-121,64,153,-125,-28,-13,64,-126,-105,78,5
-178,-119,59,149,-119,-30,-17,65,-124,-102,74,-4
-163,-120,42,141,-103,-39,-20,65,-117,-95,69,1
-158,-118,40,138,-99,-39,-22,64,-111,-94,86,30
-141,-107,34,123,-87,-36,-25,68,-104,-86,122,37
-128,-99,29,113,-78,-35,-28,74,-98,-84,131,34
-132,-82,50,107,-91,-16,-31,80,-91,-68,123,27
-106,-72,34,89,-69,-19,-34,85,-84,-51,146,48
-101,-53,47,77,-74,-3,-36,85,-99,-68,174,74
-154,-73,81,113,-117,4,-40,86,-103,-74,168,68
-169,-98,72,133,-120,-13,-39,90,-93,-63,171,74
-149,-72,77,110,-112,3,-27,90,-88,-58,170,75
-160,-86,74,122,-116,-6,-16,91,-81,-51,170,75
-123,-46,77,84,-99,16,-4,105,-80,-54,173,78
-82,-26,56,53,-69,15,-7,124,-80,-56,175,80
-77,-71,6,74,-41,-32,-19,116,-79,-54,174,85
-61,-63,-2,62,-29,-32,-45,105,-80,-56,175,82
-52,-36,16,43,-34,-9,-68,95,-82,-53,179,95
-33,-34,-2,34,-15,-18,-68,67,-108,-62,164,90
-89,-94,-5,92,-42,-49,-94,45,-147,-96,150,68
-91,-109,-18,100,-36,-63,-91,45,-157,-108,139,62
-104,-103,1,103,-52,-50,-66,44,-153,-106,129,52
-161,-113,48,137,-105,-32,-58,40,-160,-113,116,44
-112,-109,3,111,-58,-52,-44,40,-159,-112,113,37
-125,-127,-2,126,-61,-64,-40,40,-161,-117,102,27
-126,-120,6,123,-66,-57,-36,48,-149,-104,99,20
-167,-117,49,142,-108,-34,-32,46,-142,-87,91,12
-176,-114,62,145,-119,-26,-29,43,-148,-96,82,9
-123,-105,18,114,-70,-43,-24,40,-155,-124,87,11
-152,-109,43,130,-97,-33,-30,36,-147,-126,65,8
-115,-91,24,103,-69,-33,-29,35,-122,-88,96,12
-104,-108,-4,106,-50,-56,-33,86,-98,-79,72,11
17,-34,-52,9,35,-43,-57,235,72,151,257,85
224,154,-70,-188,146,42,-185,106,166,459,795,372
445,479,35,-462,205,257,-566,-491,-125,729,1725,944
452,527,75,-490,188,301,-848,-1128,-813,294,2057,1195
-30,-22,9,26,-19,-7,-634,-1237,-1312,-862,668,556
-267,-295,-28,281,-119,-161,-264,-744,-982,-961,-332,-31
-190,-211,-21,201,-85,-116,-90,-233,-445,-437,-181,-80
-161,-143,17,152,-89,-63,-19,44,-166,-197,-77,-48
-140,-97,43,118,-92,-27,33,143,-57,-84,-23,-44
-140,-99,41,119,-90,-28,48,155,-38,-89,-39,-83
-104,-82,22,93,-63,-30,43,174,-5,-55,-35,-86
-135,-108,27,121,-81,-40,47,194,-3,-56,-10,-78
-165,-111,53,138,-109,-29,43,209,11,-42,-13,-82
-131,-109,22,120,-77,-43,52,213,19,-30,-15,-78
-126,-108,18,117,-71,-45,78,221,13,-26,-21,-87
-144,-105,39,124,-91,-33,73,225,29,-9,-12,-83
-136,-103,33,119,-84,-35,66,237,61,-4,-17,-79
-98,-105,-7,102,-45,-56,52,252,81,19,-10,-74
-99,-123,-25,111,-37,-74,74,275,100,42,-10,-70
-104,-118,-14,111,-45,-66,113,309,135,59,-10,-65
-99,-117,-18,109,-40,-68,109,335,166,92,-3,-70
-95,-100,-4,97,-45,-52,110,374,203,135,6,-78
-48,-77,-28,63,-10,-52,110,424,239,167,14,-71
-40,-63,-23,52,-8,-43,112,472,283,204,25,-60
-34,-60,-26,47,-4,-42,121,533,346,269,62,-51
-8,-46,-37,27,15,-41,130,594,408,328,99,-38
-6,-19,-13,13,4,-16,131,626,450,378,139,-17
69,24,-45,-47,57,-10,129,649,457,398,177,-2
72,41,-31,-57,51,5,131,631,449,384,184,9
34,25,-9,-29,22,8,106,555,418,365,180,22
46,49,3,-47,21,25,69,479,356,314,170,32
13,56,43,-35,-15,49,48,389,277,263,163,50
0,49,49,-25,-24,49,27,284,171,184,157,59
5,26,21,-16,-8,23,12,182,85,86,114,47
-10,-5,5,8,-8,0,4,107,21,22,75,27
-64,-36,28,50,-45,-4,-2,78,-34,-25,63,15
-86,-40,46,62,-66,3,-9,59,-50,-41,45,11
-61,-24,37,43,-49,6,-19,44,-71,-60,29,-5
-102,-78,23,90,-62,-27,-32,29,-91,-83,19,-22
-114,-89,25,101,-69,-32,-38,22,-89,-82,15,-37
-103,-80,22,91,-62,-29,-31,28,-74,-72,12,-31
-141,-96,45,118,-93,-25,-27,41,-77,-73,5,-34
-119,-83,36,101,-78,-23,-20,46,-114,-107,-9,-63
-88,-97,-9,92,-39,-53,-15,41,-117,-117,-28,-62
-38,-44,-6,41,-16,-25,-9,39,-104,-108,-17,-55
-44,-37,7,40,-26,-15,4,36,-100,-108,-10,-52
-129,-119,11,124,-70,-54,-1,34,-89,-101,-37,-44
-120,-85,35,102,-77,-25,-11,31,-87,-100,-37,-41
-114,-65,49,89,-81,-8,-19,27,-83,-95,-22,-34
-106,-64,42,85,-74,-11,-30,42,-81,-87,-13,-29
-77,-51,27,64,-52,-12,-29,49,-77,-78,-3,-23
-41,-47,-6,44,-17,-26,-31,42,-75,-70,1,-19
-37,-36,0,37,-18,-18,-30,38,-73,-61,10,-11
-36,-28,9,32,-22,-9,-30,31,-70,-65,25,-14
-47,-20,27,33,-37,4,-30,26,-70,-70,31,-26
-105,-62,43,83,-74,-10,-32,25,-67,-74,29,-25
-22,-39,-17,30,-2,-28,-57,25,-64,-74,30,-25
2,-9,-11,3,7,-9,-49,25,-65,-61,31,-25
-41,-10,31,25,-36,11,-33,27,-65,-55,28,-25
30,45,14,-38,8,29,-37,47,-67,-27,48,-18
20,25,5,-23,7,15,-32,68,-71,-15,67,-7
15,-5,-21,-5,18,-13,-41,65,-68,-29,66,2
32,-9,-41,-11,37,-24,-54,57,-72,-31,71,12
7,-3,-10,-1,8,-7,-79,37,-65,-27,66,19
53,15,-38,-34,46,-11,-97,14,-81,-42,61,21
70,-5,-74,-32,72,-39,-86,5,-119,-86,58,17
64,6,-58,-35,61,-26,-81,0,-121,-91,51,12
16,-27,-43,6,29,-35,-74,-8,-119,-84,49,9
-4,-37,-33,20,15,-35,-67,-14,-121,-83,21,-19
24,-32,-56,4,40,-44,-63,-5,-119,-80,1,-38
-42,-80,-39,61,-1,-59,-56,-16,-120,-105,-5,-43
-50,-68,-18,59,-16,-42,-50,-33,-114,-102,-11,-52
-64,-75,-11,70,-26,-43,-46,-29,-116,-95,-13,-49
-61,-80,-19,70,-20,-49,-43,-30,-115,-96,-26,-51
-22,-64,-42,43,10,-53,-41,-31,-113,-81,-17,-48
-37,-69,-32,53,-2,-50,-36,-27,-118,-96,-19,-52
-40,-53,-13,47,-13,-33,-36,-35,-94,-81,15,-46
-32,-56,-24,44,-4,-40,-35,16,-51,-48,5,-45
92,-18,-110,-37,101,-64,-59,122,85,134,124,3
275,188,-87,-232,181,50,-191,-28,168,427,614,275
467,541,75,-504,196,307,-569,-632,-135,709,1519,833
516,615,99,-565,208,356,-919,-1305,-821,364,1986,1162
196,108,-88,-152,142,10,-728,-1398,-1301,-761,799,647
-118,-266,-148,192,15,-206,-322,-921,-1016,-999,-345,-5
-125,-189,-64,157,-30,-126,-121,-403,-465,-471,-291,-133
-46,-100,-54,73,5,-77,-19,-108,-150,-213,-156,-106
-21,-60,-39,40,9,-49,43,-7,-23,-72,-115,-86
-30,-74,-44,53,7,-59,65,22,-14,-59,-112,-97
-31,-72,-41,52,5,-56,67,34,1,-52,-123,-130
-57,-64,-7,61,-24,-36,69,36,21,-48,-121,-128
-55,-73,-19,64,-17,-46,73,37,26,-49,-129,-125
-37,-80,-44,58,4,-62,76,59,49,-38,-120,-118
-18,-51,-33,35,8,-42,70,81,73,-28,-122,-113
50,9,-41,-29,45,-16,82,97,99,3,-119,-107
-32,-70,-38,51,3,-53,68,118,123,1,-119,-107
-67,-97,-30,82,-19,-63,43,109,119,4,-107,-111
-42,-62,-20,52,-11,-41,69,116,135,47,-98,-110
-60,-68,-8,64,-25,-38,80,153,170,89,-87,-110
23,-57,-79,17,51,-68,80,180,190,90,-78,-110
31,-59,-90,14,61,-74,81,210,220,113,-67,-110
12,-51,-63,20,38,-57,93,271,276,175,-58,-104
13,-50,-63,19,38,-56,111,335,337,226,-48,-92
4,-51,-55,24,29,-53,123,390,395,279,-28,-84
21,-44,-65,12,43,-55,141,445,447,333,1,-69
38,-21,-59,-8,49,-40,141,481,494,391,44,-40
58,3,-56,-30,57,-26,131,478,514,421,73,-23
97,46,-51,-71,74,-3,124,466,512,421,95,-19
133,86,-47,-109,90,19,105,435,485,395,100,-14
120,82,-38,-101,79,22,67,337,408,327,86,-7
116,104,-12,-110,64,45,31,217,310,258,79,-3
98,88,-10,-93,53,39,-4,104,205,163,65,3
53,33,-20,-43,37,6,-18,24,123,84,50,-2
21,23,1,-22,10,12,-21,-29,62,36,23,-12
39,20,-20,-29,29,0,-43,-90,6,-25,-10,-23
41,-9,-49,-15,45,-29,-51,-128,-33,-63,-36,-51
-24,-41,-18,33,-3,-29,-62,-152,-66,-94,-71,-63
-6,-34,-28,20,12,-31,-63,-157,-72,-108,-82,-58
5,-25,-30,10,18,-27,-45,-146,-68,-103,-78,-59
-13,-33,-21,23,4,-26,-42,-142,-72,-111,-81,-53
12,-8,-19,-2,15,-13,-38,-145,-68,-108,-79,-56
-18,-17,1,18,-10,-8,-36,-154,-74,-114,-81,-72
-35,-60,-26,48,-4,-43,-32,-153,-92,-131,-95,-77
-16,-65,-48,41,16,-56,-30,-144,-86,-121,-105,-74
-33,-61,-29,47,-2,-45,-28,-136,-76,-113,-109,-71
-39,-43,-4,41,-17,-23,-24,-128,-72,-110,-113,-69
-31,-52,-21,42,-5,-36,-25,-120,-64,-104,-115,-72
-34,-79,-45,57,6,-62,-25,-116,-58,-101,-120,-75
-23,-49,-27,36,2,-38,-25,-109,-51,-95,-118,-75
-18,-34,-16,26,-1,-25,-25,-108,-46,-92,-107,-75
-18,-26,-8,22,-5,-16,-19,-98,-45,-89,-99,-75
7,-15,-22,4,15,-18,-24,-112,-45,-90,-93,-75
51,-3,-54,-24,53,-28,-42,-143,-45,-90,-87,-79
64,13,-51,-39,57,-19,-52,-140,-45,-90,-83,-80
28,-17,-45,-5,37,-31,-53,-152,-44,-89,-77,-79
7,-31,-38,13,22,-34,-50,-155,-40,-83,-74,-72
7,-20,-28,7,18,-24,-49,-144,-37,-80,-68,-66
5,-12,-17,4,11,-14,-45,-141,-33,-74,-65,-59
4,-4,-8,0,7,-6,-45,-131,-30,-71,-60,-53
-2,23,26,-11,-14,25,-48,-127,-20,-58,-56,-39
16,59,43,-38,-14,51,-51,-127,17,-30,-52,-18
83,51,-32,-67,57,9,-54,-131,17,-35,-46,-27
103,30,-73,-66,88,-22,-56,-128,-13,-41,-48,-19
98,31,-67,-65,82,-17,-72,-143,-13,-40,-50,6
97,23,-74,-60,85,-25,-87,-187,-41,-75,-55,3
76,11,-65,-44,71,-26,-84,-200,-66,-92,-56,-4
81,1,-80,-41,80,-39,-85,-206,-73,-101,-63,-11
84,1,-84,-42,84,-41,-85,-220,-86,-114,-51,-16
54,-6,-60,-23,57,-33,-66,-214,-86,-117,-57,-26
-43,-55,-12,49,-16,-33,-59,-208,-82,-112,-97,-16
-50,-66,-16,58,-17,-40,-59,-200,-98,-127,-100,-24
2,-44,-46,21,24,-45,-52,-195,-115,-147,-101,-45
-21,-37,-16,29,-2,-26,-43,-187,-101,-129,-91,-30
-23,-29,-5,26,-9,-17,-38,-186,-94,-132,-100,-32
40,49,9,-45,15,29,-38,-183,-85,-109,-82,0
15,5,-10,-10,13,-3,-41,-181,-100,-121,-96,-10
-81,-89,-8,85,-36,-49,-65,-181,-90,-104,-89,-47
-47,-61,-14,54,-16,-37,-78,-161,-80,-97,-78,-49
87,-18,-104,-34,96,-61,-80,-72,10,-9,-54,-24
270,127,-142,-198,206,-7,-122,-5,196,293,292,154
455,408,-47,-431,251,180,-396,-412,62,558,1029,607
629,692,63,-661,283,377,-842,-1169,-504,563,1936,1182
370,363,-7,-366,188,178,-876,-1570,-1198,-409,1321,952
-56,-151,-96,104,20,-123,-470,-1257,-1214,-1130,-199,157
-86,-171,-85,128,0,-128,-161,-629,-612,-661,-437,-120
-87,-137,-51,112,-18,-94,-54,-252,-225,-296,-267,-128
-66,-76,-10,72,-28,-43,7,-74,-52,-128,-217,-131
-28,-22,6,25,-17,-8,38,-9,0,-71,-167,-121
-57,-53,4,55,-30,-24,45,2,24,-74,-183,-125
-63,-66,-3,65,-30,-34,48,13,53,-39,-159,-117
-64,-65,-2,65,-30,-33,50,33,52,-43,-170,-119
-47,-60,-12,54,-18,-36,54,53,65,-20,-155,-112
-54,-60,-7,57,-23,-34,58,48,68,-22,-156,-111
-26,-59,-32,43,3,-45,64,62,73,-13,-150,-106
-31,-55,-24,43,-3,-39,62,77,85,9,-145,-106
-80,-54,26,67,-52,-14,62,115,116,54,-145,-111
-16,-66,-50,41,17,-58,64,120,122,68,-138,-114
41,-44,-85,2,63,-64,58,125,131,62,-137,-112
48,-11,-59,-18,54,-35,55,167,169,78,-132,-104
33,-25,-58,-4,45,-41,74,225,211,116,-123,-98
6,-46,-52,20,30,-49,100,289,260,164,-109,-91
17,-39,-56,11,36,-47,110,338,302,202,-88,-85
56,-17,-73,-19,64,-45,120,402,348,248,-66,-76
84,-10,-94,-37,89,-52,126,446,390,292,-45,-67
99,23,-76,-61,88,-26,124,503,441,349,-13,-58
140,77,-64,-108,102,6,118,529,481,394,14,-48
131,78,-53,-104,92,12,107,513,469,394,33,-36
129,85,-44,-106,87,20,97,504,458,396,55,-17
121,79,-43,-100,82,18,78,442,423,371,71,5
128,99,-29,-113,78,34,57,363,354,326,77,35
127,110,-17,-118,72,46,38,239,255,245,54,38
55,58,2,-57,26,30,19,139,144,136,23,28
28,66,38,-48,-5,51,5,85,82,77,-3,14
-8,29,38,-11,-23,33,-9,3,18,25,-54,-25
-18,1,20,8,-19,10,-16,-28,-32,-27,-101,-36
-9,-2,7,5,-8,2,-27,-32,-54,-43,-110,-31
-1,3,4,-1,-3,4,-22,-26,-54,-41,-93,-23
5,36,31,-21,-13,33,-3,-45,-63,-64,-114,-45
-24,-11,13,18,-19,1,-27,-66,-82,-79,-137,-83
14,11,-3,-13,9,4,-38,-44,-53,-66,-108,-81
-3,-2,1,2,-2,-1,-29,-45,-56,-71,-115,-86
-71,-62,9,66,-40,-26,-28,-46,-77,-71,-146,-89
-58,-28,30,42,-43,1,-22,-44,-67,-75,-146,-92
-39,-20,19,29,-28,-1,-19,-47,-64,-75,-153,-96
-54,-33,20,43,-37,-6,-14,-43,-58,-70,-162,-94
-68,-54,13,61,-40,-20,-13,-42,-52,-71,-160,-95
-47,-35,11,41,-29,-12,-6,-39,-53,-70,-155,-95
-54,-46,8,50,-31,-19,-7,-42,-53,-71,-153,-95
-21,-26,-5,24,-8,-15,16,-36,-50,-68,-148,-90
-26,22,48,2,-37,35,30,-19,-50,-61,-145,-90
-108,-56,52,82,-80,-2,-10,-26,-47,-54,-141,-89
-54,-38,16,46,-35,-11,-22,-32,-44,-48,-135,-84
-46,-27,19,36,-33,-4,-18,-24,-45,-41,-129,-85
-30,-20,10,25,-20,-5,-21,-21,-39,-34,-123,-83
44,57,13,-51,15,35,-19,-16,-34,-27,-117,-76
-19,23,42,-3,-31,32,-21,-12,-28,-21,-108,-69
-55,13,67,21,-61,40,-17,-7,-22,-14,-104,-62
-32,17,49,7,-41,33,-12,-2,-15,-7,-88,-56
-14,19,32,-3,-23,25,-9,20,10,13,-71,-50
9,39,30,-24,-11,34,-4,37,25,31,-70,-41
25,33,8,-29,8,21,-28,30,15,22,-71,-28
40,27,-14,-33,27,6,-69,0,-14,6,-73,-17
20,14,-7,-17,13,3,-74,-34,-51,-25,-76,-15
-8,3,12,2,-10,8,-67,-51,-69,-33,-77,-11
33,-9,-42,-12,38,-25,-61,-61,-81,-37,-83,-10
38,-19,-57,-9,48,-38,-56,-60,-86,-62,-99,-20
-15,-40,-25,27,5,-32,-49,-60,-85,-73,-117,-46
-27,-60,-33,44,3,-46,-35,-60,-84,-72,-127,-72
-72,-70,2,71,-37,-34,-27,-60,-81,-70,-130,-83
-105,-70,35,88,-70,-18,-22,-56,-79,-63,-124,-89
-88,-69,19,78,-54,-25,-16,-55,-81,-58,-116,-93
-56,-72,-16,64,-20,-44,-14,-56,-86,-59,-120,-97
-84,-65,19,74,-51,-22,-16,-54,-83,-44,-103,-91
-123,-62,62,92,-92,0,-13,-57,-93,-62,-115,-105
-66,-42,23,54,-44,-9,-20,-53,-85,-45,-104,-92
-53,-67,-14,60,-19,-40,-23,-47,-77,-65,-138,-117
54,-20,-74,-17,64,-47,-5,106,68,94,-32,-83
249,139,-110,-194,179,14,-67,150,242,404,373,158
473,425,-48,-449,260,188,-411,-361,59,659,1182,659
593,638,45,-616,274,341,-821,-1097,-529,572,1985,1153
193,213,20,-203,86,117,-752,-1424,-1175,-499,1010,726
-196,-244,-47,220,-74,-145,-352,-1061,-1085,-1031,-399,-31
-167,-201,-35,184,-66,-117,-78,-454,-490,-492,-420,-173
-47,-82,-35,65,-6,-59,19,-107,-139,-176,-264,-157
-56,-77,-21,67,-18,-49,48,15,-4,-47,-224,-158
-102,-106,-4,104,-49,-55,69,51,26,-16,-196,-146
-62,-64,-2,63,-30,-33,83,84,51,-5,-199,-146
-95,-67,28,81,-61,-20,90,98,56,12,-166,-138
-156,-113,42,134,-99,-35,97,115,68,21,-170,-149
-129,-93,36,111,-82,-29,108,142,98,51,-161,-149
-95,-80,15,87,-54,-32,101,139,82,38,-166,-155
-108,-69,39,88,-74,-15,122,165,114,69,-158,-167
-83,-64,19,74,-51,-22,132,200,152,92,-161,-165
-60,-101,-41,81,-9,-71,107,191,154,88,-155,-156
-70,-99,-29,85,-20,-64,115,207,159,102,-127,-149
-64,-89,-25,76,-19,-56,114,230,163,119,-115,-151
-55,-82,-27,69,-14,-55,126,257,206,160,-115,-148
-63,-84,-21,74,-20,-52,148,299,226,167,-115,-155
-61,-91,-29,76,-16,-60,150,336,246,187,-110,-167
-43,-62,-19,53,-12,-40,151,406,311,258,-86,-153
-53,-56,-3,55,-25,-29,149,444,345,289,-60,-141
20,-2,-22,-8,21,-12,174,509,412,363,-22,-94
67,7,-60,-36,63,-26,189,565,457,407,11,-79
42,-30,-71,-6,57,-50,172,543,451,407,22,-100
44,-2,-46,-21,45,-24,164,539,468,440,53,-67
52,24,-28,-38,40,-2,148,519,459,431,85,-40
59,39,-20,-49,40,9,124,455,421,410,108,-28
55,44,-10,-49,32,17,102,341,339,342,107,-18
82,108,26,-95,28,67,87,240,257,269,99,-11
-9,58,67,-25,-38,62,69,148,171,196,68,-38
-117,-60,58,88,-87,-1,39,59,86,105,8,-72
-109,-58,51,83,-80,-3,24,31,67,90,-22,-70
-108,-59,49,83,-79,-4,25,-4,31,56,-45,-69
-100,-63,37,81,-68,-13,26,-37,-4,20,-66,-97
-95,-55,40,75,-68,-7,22,-40,-11,8,-70,-127
-84,-67,17,75,-50,-25,36,-38,-27,-10,-66,-124
-79,-59,20,69,-49,-20,46,-54,-28,18,-60,-125
-101,-45,56,73,-79,5,37,-63,-34,13,-64,-120
-104,-96,8,100,-56,-44,40,-49,-47,-31,-89,-120
-80,-83,-3,82,-38,-43,40,-40,-42,-41,-112,-120
-62,-51,11,56,-36,-20,39,-31,-32,-40,-112,-105
-82,-67,15,74,-48,-25,51,-18,-25,-40,-119,-116
-142,-60,83,101,-112,11,64,-16,-17,-40,-133,-122
-138,-88,50,113,-94,-19,66,-45,-11,-41,-131,-119
-95,-103,-8,99,-43,-55,62,-49,-4,-35,-121,-120
-109,-93,16,100,-62,-38,60,-37,2,-25,-117,-114
-109,-84,25,96,-66,-29,56,-34,9,-15,-108,-115
-134,-79,55,107,-95,-12,55,-25,20,-6,-87,-113
-124,-63,61,93,-92,-1,51,-20,27,3,-83,-108
-72,-42,30,57,-51,-6,46,-13,21,12,-83,-106
-47,-33,13,40,-30,-9,41,-8,20,20,-73,-101
-74,-22,51,48,-62,14,38,-3,17,20,-68,-98
-132,-62,71,97,-102,5,32,5,13,24,-60,-93
-87,-60,27,73,-57,-16,31,7,31,27,-56,-91
-54,-23,30,38,-42,3,46,23,54,34,-44,-78
-51,-14,37,33,-44,11,66,49,80,76,-30,-59
-64,-10,55,37,-59,22,72,51,83,86,-16,-63
-12,20,32,-4,-22,26,27,25,67,70,9,-56
44,39,-5,-42,25,17,-22,-10,46,54,-3,-46
-37,-33,4,35,-20,-14,-32,-44,5,23,-33,-51
-37,-39,-2,38,-18,-20,-28,-67,-16,14,-35,-49
-19,-30,-11,25,-3,-21,-33,-63,-28,9,-42,-55
-96,-79,17,87,-56,-31,-22,-60,-32,7,-37,-54
-131,-69,62,99,-96,-3,13,-58,-26,-2,-52,-66
-118,-66,52,92,-85,-7,28,-54,-21,-12,-87,-88
-139,-98,41,118,-90,-28,25,-54,-18,-26,-90,-89
-125,-84,41,105,-83,-21,26,-45,-11,-33,-87,-85
-98,-71,27,84,-62,-22,37,-43,-11,-28,-82,-81
-98,-69,29,83,-63,-20,41,-35,-27,-34,-85,-79
-70,-53,17,62,-43,-18,41,-31,-31,-22,-74,-73
-87,-60,27,74,-56,-16,44,-25,-21,-32,-82,-83
-98,-25,74,61,-86,24,61,-31,-19,-17,-68,-80
-92,-75,17,84,-54,-29,50,-15,-8,-14,-72,-88
14,-37,-51,12,32,-43,2,139,147,178,52,-49
227,175,-52,-200,139,61,-99,80,264,494,501,210
433,475,42,-454,195,258,-435,-460,52,772,1382,750
501,648,147,-575,177,397,-776,-1116,-570,550,1993,1144
132,166,34,-149,49,100,-650,-1335,-1165,-586,884,669
-178,-225,-48,202,-65,-136,-263,-913,-970,-956,-384,-30
-165,-175,-10,170,-78,-92,-43,-373,-422,-431,-378,-163
-178,-135,43,157,-110,-46,48,-55,-89,-146,-222,-148
-158,-88,70,123,-113,-9,116,81,61,9,-175,-148
-101,-72,28,86,-64,-22,128,86,64,14,-169,-137
-108,-64,44,86,-76,-10,122,116,97,45,-151,-137
-119,-65,55,92,-87,-5,137,149,117,54,-131,-128
-116,-84,32,100,-73,-26,140,160,118,45,-160,-129
-152,-103,49,127,-100,-27,140,164,122,55,-153,-123
-121,-78,43,99,-82,-17,135,164,124,52,-151,-121
-111,-58,53,85,-82,-2,133,175,154,97,-128,-117
-131,-61,70,96,-100,4,156,202,172,104,-136,-111
-79,-50,29,64,-53,-10,148,220,183,106,-159,-104
-100,-47,53,73,-76,3,118,205,172,107,-159,-97
-117,-42,75,79,-96,17,122,230,189,124,-144,-91
-101,-34,68,67,-84,17,171,291,243,172,-106,-85
-101,-47,54,74,-77,4,201,318,266,197,-93,-81
-61,-61,-1,61,-30,-30,192,360,305,235,-91,-79
-31,-24,8,27,-19,-8,198,417,358,281,-65,-74
-21,-3,18,12,-19,7,193,464,411,332,-39,-72
-45,-5,40,25,-42,17,195,529,476,402,-12,-61
2,31,29,-16,-14,30,216,571,510,433,19,-19
29,31,2,-30,13,16,211,587,526,461,40,4
10,38,29,-24,-10,33,195,567,527,475,68,11
42,77,35,-59,3,56,178,531,515,458,91,19
-40,62,101,-11,-71,81,159,469,469,427,93,36
-11,72,83,-31,-47,77,117,336,355,343,89,55
69,106,37,-87,16,71,74,235,256,261,67,40
1,76,75,-39,-38,76,62,153,173,185,38,27
-39,33,72,3,-56,52,53,70,91,100,-18,15
-61,24,85,18,-73,54,45,32,50,63,-48,5
-64,20,84,22,-75,52,37,7,13,25,-56,-5
-65,12,78,26,-72,44,29,-2,-11,-2,-79,-21
-86,-10,76,48,-81,33,25,-15,-20,-9,-82,-14
-90,-23,68,56,-79,23,25,-24,-28,-22,-89,-22
-95,-26,69,60,-82,21,25,-15,-37,-26,-91,-37
-67,-17,50,42,-58,16,24,-11,-45,-24,-90,-25
-32,36,68,-2,-50,52,49,1,-19,-8,-88,-15
-85,0,85,42,-85,43,58,-24,-33,-41,-111,-38
-134,-63,72,98,-103,4,44,-53,-63,-85,-137,-69
-121,-53,69,87,-95,8,35,-39,-51,-75,-127,-63
-109,-48,60,78,-84,6,33,-31,-47,-73,-124,-61
-97,-40,57,68,-77,8,35,-13,-39,-69,-118,-59
-88,-36,52,62,-69,8,35,0,-35,-38,-112,-24
-85,-33,52,59,-68,9,34,6,-33,-24,-108,-4
-113,-32,80,72,-97,24,28,9,-29,-25,-102,-13
-106,-19,87,62,-96,34,22,5,-27,-22,-99,-20
-69,8,77,30,-73,42,18,3,-24,-19,-94,-23
-86,-2,83,44,-85,40,11,0,-22,-16,-88,-20
-79,-16,64,47,-72,24,6,-4,-13,-15,-80,-13
-77,4,81,36,-79,42,13,-5,-9,6,-74,-13
-68,28,96,20,-83,61,15,-1,1,17,-67,3
-44,25,69,9,-57,47,4,5,4,2,-58,30
-34,45,78,-6,-56,61,17,10,14,4,-50,28
-2,66,68,-32,-36,67,27,18,33,21,-41,23
-36,23,59,6,-48,41,18,46,33,40,-30,13
-18,32,51,-7,-35,42,14,46,41,51,-10,36
28,69,41,-49,-7,55,-20,5,15,34,-2,56
-5,29,34,-12,-20,31,-54,-25,-24,8,-23,33
-19,7,26,6,-23,16,-49,-48,-45,2,-30,38
30,48,18,-39,6,32,-42,-56,-61,-9,-30,35
51,64,13,-57,19,38,-36,-54,-54,-16,-32,21
-42,21,63,11,-53,41,-29,-56,-45,-30,-57,11
-79,1,79,39,-79,40,-23,-54,-54,-54,-87,-2
-85,-25,61,55,-73,18,-15,-56,-76,-58,-83,-24
-100,-42,58,71,-79,8,-10,-52,-76,-62,-88,-39
-61,-12,50,36,-55,19,-2,-46,-73,-57,-87,-27
-84,-22,63,53,-73,20,4,-40,-78,-64,-93,-28
-120,-36,84,77,-101,24,4,-31,-72,-56,-84,-16
-107,-38,68,72,-87,15,14,-28,-76,-58,-87,-16
-56,12,68,21,-62,40,20,-27,-55,-24,-80,-8
-21,50,70,-15,-46,60,17,-28,-53,-19,-79,-22
-20,-1,19,10,-20,9,-4,89,34,47,-37,-14
127,104,-23,-115,74,40,-59,152,228,368,290,154
357,395,38,-376,159,217,-312,-242,124,658,975,560
483,711,228,-597,127,469,-749,-944,-392,749,1899,1156
326,481,154,-404,86,317,-839,-1380,-1086,-121,1524,1064
-37,-94,-56,66,10,-75,-472,-1134,-1218,-1020,1,293
-181,-206,-25,194,-77,-116,-156,-556,-663,-673,-446,-73
-133,-109,24,121,-78,-42,-16,-141,-211,-241,-249,-93
-86,-27,59,56,-72,16,80,73,8,-60,-197,-98
-83,-23,60,53,-72,19,107,103,54,-8,-163,-92
-108,-43,65,75,-86,11,105,115,59,-5,-182,-98
-107,-19,88,63,-97,35,103,151,98,42,-164,-92
-119,-43,76,81,-97,16,118,166,101,29,-167,-100
-112,-36,76,74,-94,19,132,182,103,39,-158,-109
-104,-38,67,71,-85,14,122,182,109,31,-153,-100
-95,-32,63,63,-78,15,121,189,131,47,-149,-90
-101,-44,58,72,-79,7,114,187,131,40,-141,-80
-109,-57,52,83,-81,-2,112,210,162,84,-143,-70
-102,-53,49,78,-75,-2,112,231,175,111,-141,-63
-72,-28,44,50,-57,8,132,266,202,123,-138,-51
-27,12,39,7,-33,26,155,313,256,165,-136,-69
-37,-2,36,19,-36,17,156,319,261,163,-128,-81
-29,0,29,14,-29,14,155,370,305,206,-101,-71
-33,-7,26,19,-29,10,155,438,364,254,-77,-68
-44,-24,21,34,-32,-2,175,483,412,299,-67,-61
-3,13,16,-5,-10,14,174,543,478,360,-45,-57
69,81,12,-75,28,47,200,605,540,424,-5,-51
75,66,-9,-70,42,28,216,623,566,459,20,-43
17,49,32,-33,-8,40,185,625,574,475,55,-1
14,91,76,-53,-31,83,163,595,555,475,77,23
42,99,57,-71,-8,78,140,513,499,429,75,16
62,132,70,-97,-4,101,127,422,416,370,91,43
30,120,90,-75,-30,105,92,309,310,296,81,65
-7,81,88,-37,-48,84,47,210,219,212,45,62
-18,65,83,-24,-51,74,15,121,121,108,6,23
-17,65,81,-24,-49,73,8,54,52,49,-31,-8
-4,72,76,-35,-40,74,22,33,27,38,-59,-3
-24,51,75,-14,-50,63,18,27,-5,-1,-63,-16
-54,35,89,9,-72,62,38,38,5,-8,-52,-5
-73,-19,54,45,-63,18,28,15,-6,-19,-85,-14
-91,-46,46,68,-68,0,-10,-32,-41,-51,-105,-53
-43,5,48,19,-46,27,7,-28,-34,-49,-98,-54
-16,7,22,4,-19,14,15,-16,-28,-42,-98,-56
-89,-20,69,54,-79,24,15,-1,-20,-42,-92,-52
-91,-33,59,62,-75,13,15,6,-45,-55,-109,-50
-46,5,52,20,-49,28,20,7,-60,-58,-105,-49
-35,38,73,-2,-54,56,43,26,-42,-44,-104,-38
-102,-26,76,64,-89,25,39,30,-37,-46,-142,-60
-138,-63,75,100,-106,6,32,30,-27,-61,-141,-63
-70,-41,29,55,-49,-6,35,29,-21,-60,-131,-53
-61,-19,42,40,-51,11,36,31,-14,-47,-127,-51
-48,-11,37,30,-42,12,32,27,0,-43,-118,-43
-6,47,53,-21,-30,50,45,36,14,-31,-112,-40
-68,15,83,26,-76,49,41,30,17,-28,-103,-43
-130,-70,61,100,-95,-5,9,-1,11,-41,-95,-52
-93,-23,70,58,-81,23,13,4,8,-38,-87,-48
-88,-13,75,50,-81,31,23,15,3,-35,-80,-45
-57,13,70,22,-64,41,32,27,0,-33,-70,-42
-46,54,100,-5,-73,77,39,33,15,-23,-60,-34
-49,48,97,0,-73,72,27,29,16,-18,-54,-27
-4,50,55,-23,-30,52,22,30,17,6,-39,-22
-4,52,55,-24,-29,53,12,45,46,25,-18,-13
-2,45,47,-21,-24,46,6,59,41,34,-16,-6
15,71,55,-43,-20,63,-11,41,23,29,-14,7
64,96,31,-80,16,63,-42,0,1,-14,-16,35
18,38,20,-29,-1,29,-20,-14,-30,-24,-14,40
-38,-15,23,26,-30,4,-25,5,-47,-15,-7,26
7,-14,-20,4,14,-17,-39,-1,-60,-50,-33,18
-22,-17,5,19,-13,-6,-2,-18,-54,-72,-52,4
-47,-14,33,30,-39,9,1,-25,-48,-70,-58,-26
-52,-2,50,27,-51,23,-2,-34,-43,-69,-59,-40
-90,-39,50,65,-70,5,2,-32,-36,-72,-68,-43
-59,-16,43,37,-51,14,-3,-30,-40,-67,-62,-52
-65,-21,44,43,-55,12,4,-30,-47,-71,-68,-51
-56,-19,37,38,-47,9,20,-27,-42,-56,-60,-42
-50,1,51,24,-50,26,28,-25,-39,-52,-58,-36
-108,-46,62,77,-85,8,23,-25,-37,-44,-65,-30
-82,-23,60,52,-71,18,26,-9,-22,-30,-28,-20
-60,-32,29,46,-44,-1,21,82,44,3,-25,-17
75,53,-22,-63,48,15,-35,165,190,270,226,92
326,332,7,-329,159,169,-237,-117,178,582,860,463
545,675,130,-610,208,402,-681,-825,-253,756,1836,1067
378,508,130,-443,124,319,-876,-1372,-980,47,1773,1123
-70,-77,-7,74,-32,-42,-538,-1242,-1247,-985,222,368
-219,-241,-21,230,-99,-131,-191,-667,-760,-801,-458,-100
-161,-110,50,135,-105,-30,-6,-177,-248,-295,-239,-110
-97,-38,58,67,-77,10,71,54,-6,-102,-188,-119
-163,-76,87,119,-125,5,90,107,62,-30,-157,-113
-188,-81,107,134,-147,13,115,124,68,-34,-157,-116
-130,-55,75,92,-102,10,109,149,98,-4,-133,-115
-130,-55,74,92,-102,9,117,165,97,-5,-125,-112
-113,-46,68,79,-90,11,114,176,102,20,-111,-104
-91,-27,64,59,-78,18,115,184,116,23,-104,-91
-103,11,114,46,-109,62,151,228,163,67,-86,-86
-143,-26,117,84,-130,45,129,253,175,91,-85,-83
-157,-62,96,110,-126,17,102,252,154,81,-114,-81
-151,-49,102,100,-126,26,115,254,178,87,-97,-77
-154,-55,99,105,-126,22,131,270,206,98,-87,-75
-148,-45,103,96,-126,29,141,304,237,145,-80,-73
-154,-48,106,100,-129,29,145,332,264,162,-71,-68
-143,-40,104,91,-123,32,168,383,298,187,-67,-65
-82,24,106,29,-94,65,185,443,354,252,-58,-62
-115,-11,104,63,-110,46,192,500,402,300,-44,-57
-146,-42,104,93,-125,31,189,546,452,334,-20,-55
-105,-7,98,56,-101,45,202,603,510,397,25,-45
-85,3,88,41,-87,46,218,643,561,457,63,-34
-37,64,101,-13,-69,82,203,633,576,466,98,-17
-6,85,91,-40,-49,88,190,615,548,453,125,18
-37,71,107,-17,-72,89,174,558,508,417,126,46
-75,86,161,-6,-118,123,141,466,447,374,130,64
-70,95,165,-13,-117,129,101,356,344,314,123,68
-96,71,166,12,-131,118,84,255,261,245,115,58
-132,52,184,40,-158,118,75,180,196,182,99,47
-134,42,175,46,-155,108,66,125,116,105,55,38
-171,-8,163,89,-167,77,64,73,69,49,8,25
-225,-23,201,124,-213,89,66,40,50,15,-8,15
-259,-37,222,148,-241,93,64,40,37,1,-23,-4
-233,-23,210,127,-221,93,67,38,29,12,-35,-27
-191,18,209,87,-200,113,62,33,21,16,-25,-24
-198,2,201,98,-199,101,59,38,12,15,-15,-21
-220,-24,196,121,-208,86,82,65,7,13,-7,-17
-248,-50,198,149,-223,74,87,72,-6,7,-39,-16
-251,-51,200,151,-226,75,84,69,-12,2,-74,-34
-248,-46,202,147,-225,78,86,76,-4,-1,-75,-32
-250,-44,206,147,-228,81,85,74,4,-7,-75,-23
-249,-45,204,146,-226,79,84,77,17,-10,-71,-19
-250,-32,218,141,-233,92,80,80,21,-6,-70,-10
-254,-38,217,146,-235,89,78,80,19,-3,-70,-7
-259,-70,189,164,-224,60,74,79,20,-1,-65,-19
-230,-38,192,134,-210,77,72,80,20,4,-62,-20
-220,-33,187,126,-203,77,69,79,19,3,-59,-14
-239,-45,194,141,-216,74,71,77,23,13,-54,-12
-245,-33,212,139,-228,89,69,74,25,21,-51,-7
-246,-38,209,142,-227,85,70,73,25,20,-46,-5
-226,-15,211,120,-218,98,70,69,25,20,-31,5
-211,-2,208,106,-209,103,69,68,24,21,-18,22
-214,-3,212,108,-213,104,71,88,46,41,-9,26
-176,31,207,72,-192,119,56,93,57,55,-6,15
-158,56,214,51,-186,135,74,103,66,67,-1,4
-143,69,212,37,-178,141,68,105,65,73,2,-9
-118,64,181,27,-149,122,32,90,51,58,10,13
-104,68,173,18,-139,120,23,72,31,53,38,55
-67,81,148,-7,-108,115,13,37,-8,29,22,49
-121,24,145,48,-133,84,10,30,-33,-6,-16,35
-149,-4,144,76,-147,70,1,29,-43,-10,-28,35
-158,-12,145,84,-151,66,6,27,-37,2,-33,35
-166,-20,145,92,-155,62,26,23,-37,3,-47,34
-103,22,125,40,-114,73,57,34,-29,16,-30,36
-201,-34,167,117,-184,67,73,38,-35,0,-30,33
-260,-78,182,169,-221,52,41,4,-57,-36,-55,8
-214,-46,168,130,-191,60,38,0,-50,-30,-45,-15
-221,-53,168,137,-194,57,49,9,-48,-31,-56,-23
-188,-29,159,108,-173,65,57,11,-40,-11,-43,-27
-187,-32,155,109,-171,62,65,19,-42,-23,-58,-37
-149,-3,146,76,-148,71,61,23,-27,6,-42,-2
-143,-13,131,78,-137,59,52,28,-18,-11,-57,-15
-155,-24,131,89,-143,54,24,147,82,96,1,-19
29,158,129,-93,-50,143,-28,196,266,431,411,193
317,448,131,-383,93,289,-347,-286,115,732,1220,699
482,667,185,-575,148,426,-776,-1044,-487,680,2064,1202
177,303,126,-240,25,214,-721,-1373,-1144,-374,1238,871
-276,-202,74,239,-175,-64,-326,-1033,-1104,-1014,-253,111
-373,-209,163,291,-268,-23,-39,-436,-523,-531,-405,-118
-284,-114,169,199,-227,27,78,-62,-148,-187,-215,-87
-222,-65,157,143,-189,46,124,85,14,-43,-163,-76
-196,-48,148,122,-172,50,146,134,68,-1,-153,-73
-175,-48,126,111,-150,38,159,153,87,21,-169,-78
-188,-33,156,110,-172,61,175,180,99,54,-152,-72
-187,-37,150,112,-168,56,170,186,92,50,-167,-80
-188,-56,132,122,-160,38,165,184,97,59,-152,-89
-190,-63,127,126,-158,32,160,186,101,52,-141,-85
-187,-58,129,122,-158,35,153,200,121,55,-129,-77
-186,-61,124,123,-155,31,151,206,132,60,-125,-70
-176,-59,117,117,-147,29,159,210,139,79,-123,-65
-163,-62,102,112,-132,20,177,243,168,101,-114,-56
-173,-65,108,119,-140,21,181,268,198,128,-101,-57
-200,-65,135,132,-167,34,191,301,229,166,-104,-78
-163,-65,98,114,-130,16,186,331,233,188,-89,-77
-152,-60,92,106,-122,16,181,371,253,197,-66,-68
-125,-46,80,85,-103,17,207,437,311,246,-49,-65
-124,-35,89,79,-106,27,223,496,371,314,-28,-58
-82,-12,70,47,-76,29,242,550,431,356,-17,-52
23,23,0,-23,11,11,247,591,470,406,30,-32
4,46,43,-25,-20,44,234,611,505,453,67,-4
-28,51,79,-12,-54,65,229,604,509,466,84,16
-52,48,100,2,-76,73,221,584,500,459,101,28
-13,70,83,-29,-48,76,197,512,454,405,90,37
6,73,67,-39,-31,70,155,394,358,345,84,60
-13,82,95,-35,-55,88,132,288,276,283,79,66
-14,79,93,-33,-54,86,118,194,193,199,60,46
-50,46,96,2,-74,71,107,122,118,130,24,33
-89,1,90,44,-89,45,101,62,56,63,4,24
-86,5,91,41,-89,48,89,34,29,33,-6,16
-63,25,88,19,-76,56,83,21,23,15,-46,4
-145,-59,86,102,-115,13,79,-8,-11,-18,-70,-15
-138,-71,67,104,-102,-2,80,-9,-16,-26,-61,-24
-141,-65,76,102,-108,5,73,-15,-8,-34,-68,-26
-146,-22,124,84,-134,50,77,-13,-8,-41,-62,-23
-93,11,105,41,-99,58,104,7,7,-39,-60,-28
-178,-86,92,132,-135,3,83,-23,8,-43,-103,-49
-180,-83,97,131,-138,7,73,-39,2,-50,-114,-47
-154,-59,95,106,-124,17,92,-31,-4,-50,-112,-41
-162,-68,94,115,-128,12,89,-32,-8,-52,-133,-38
-183,-82,101,132,-142,9,90,-26,-18,-56,-133,-32
-177,-80,96,129,-136,8,90,-27,-27,-54,-127,-29
-167,-57,109,112,-138,26,90,-21,-24,-51,-124,-25
-179,-62,117,121,-148,27,89,-30,-21,-46,-118,-20
-125,-58,67,92,-96,5,83,-43,-18,-44,-115,-18
-115,-61,54,88,-84,-3,77,-39,-16,-39,-110,-14
-106,-58,48,82,-77,-5,73,-41,-13,-36,-107,-9
-137,-55,82,96,-109,13,65,-39,-7,-33,-102,-27
-151,-50,101,100,-126,25,63,-41,2,-25,-93,-33
-130,-45,84,88,-107,19,61,-38,6,-21,-82,-18
-118,-25,93,72,-105,34,72,-27,23,10,-75,-12
-59,28,87,15,-74,58,104,-18,49,41,-76,-5
-85,19,104,33,-95,61,100,-2,46,34,-75,0
-110,-18,92,64,-101,37,81,13,35,27,-76,6
-81,-15,66,48,-73,25,54,17,28,20,-70,11
-40,-1,38,20,-39,18,10,-14,18,12,-39,23
15,19,4,-17,5,11,2,-51,8,7,-35,39
17,10,-7,-13,12,1,10,-63,-7,-13,-43,37
-48,-42,7,45,-28,-17,-7,-71,-19,-37,-60,24
-116,-71,45,93,-80,-13,1,-70,-20,-40,-77,16
-121,-71,50,97,-86,-10,30,-70,-20,-39,-73,-2
-128,-77,51,102,-89,-13,42,-78,-25,-52,-100,-28
-134,-78,56,105,-95,-10,35,-91,-24,-59,-120,-35
-136,-82,53,109,-94,-14,36,-92,-16,-65,-122,-36
-137,-85,53,111,-94,-16,76,-83,-16,-62,-117,-33
-143,-96,46,120,-94,-25,78,-79,-41,-66,-122,-46
-138,-83,55,110,-96,-13,60,-68,-35,-45,-104,-48
-118,-76,42,97,-80,-17,55,-68,-31,-53,-105,-41
-121,-50,72,85,-96,11,43,-52,-21,-32,-91,-35
-71,-16,55,43,-63,19,42,-47,-6,-37,-86,-26
-20,-62,-42,41,11,-51,26,33,62,23,-87,-14
103,56,-47,-79,75,5,-15,106,250,349,248,130
314,339,25,-327,144,182,-255,-246,202,659,950,560
497,625,128,-561,184,376,-677,-942,-304,754,1870,1142
310,399,89,-354,110,243,-763,-1390,-1018,-119,1507,1043
-183,-174,8,178,-95,-83,-420,-1179,-1168,-1010,-43,278
-276,-245,31,260,-153,-106,-97,-621,-647,-694,-506,-99
-186,-152,34,168,-110,-59,18,-210,-211,-282,-301,-86
-104,-66,37,85,-70,-14,88,6,12,-91,-228,-73
-31,-12,19,21,-25,4,156,82,99,-28,-199,-88
-168,-123,45,145,-106,-39,152,98,105,-36,-238,-112
-178,-128,50,153,-114,-39,147,96,104,-14,-218,-102
-78,-92,-14,85,-32,-53,149,102,106,-20,-221,-96
-110,-91,19,101,-64,-36,139,104,102,6,-213,-90
-108,-65,44,86,-76,-10,139,104,109,17,-205,-81
-139,-84,55,112,-97,-15,131,129,133,33,-211,-82
-127,-81,46,104,-86,-18,129,128,125,24,-224,-89
-44,-12,33,28,-39,11,144,159,171,76,-225,-86
-106,-71,35,88,-70,-18,135,159,169,72,-217,-79
-158,-123,36,140,-97,-43,128,159,169,64,-215,-75
-174,-99,75,136,-124,-12,152,216,230,125,-209,-68
-83,-99,-16,91,-33,-58,167,234,240,128,-203,-66
-28,-85,-57,57,15,-71,171,281,278,159,-196,-71
-62,-84,-22,74,-20,-52,174,335,330,208,-184,-66
-58,-77,-19,68,-20,-47,188,394,396,265,-159,-56
-54,-61,-8,58,-23,-34,201,464,461,332,-120,-48
-14,-42,-28,28,7,-35,204,508,500,382,-74,-37
30,-16,-46,-7,38,-31,205,522,535,410,-50,-16
16,-8,-23,-4,20,-15,206,520,547,434,-29,9
-49,-3,47,26,-48,22,196,504,528,450,-27,16
28,29,1,-29,13,15,154,446,486,415,0,36
70,65,-5,-68,37,30,120,359,409,342,31,64
25,56,31,-41,-3,43,89,237,294,241,-7,58
0,12,12,-6,-6,12,51,126,190,161,-26,48
-65,-20,46,42,-55,13,47,49,107,90,-59,26
-51,-10,41,31,-46,16,41,-4,51,31,-108,4
-24,4,27,10,-26,15,29,-33,6,2,-125,3
-52,-28,24,40,-38,-2,21,-51,-35,-42,-136,-3
-71,-73,-2,72,-34,-37,14,-47,-40,-60,-147,-7
-67,-68,-1,68,-33,-34,11,-50,-45,-66,-164,-12
-97,-67,30,82,-63,-18,7,-65,-61,-83,-165,-35
-93,-65,27,79,-60,-19,3,-63,-55,-79,-162,-48
-58,-34,24,46,-41,-5,0,-59,-50,-82,-178,-44
-93,-80,13,87,-53,-33,3,-56,-48,-97,-187,-43
-123,-106,17,114,-69,-44,7,-52,-39,-101,-184,-40
-118,-80,38,99,-77,-21,9,-48,-52,-99,-185,-39
-70,-95,-24,83,-23,-59,14,-42,-61,-101,-185,-32
-44,-91,-47,67,2,-69,14,-39,-55,-107,-184,-20
-96,-87,9,92,-53,-39,10,-33,-53,-115,-199,-42
-110,-80,30,95,-70,-25,8,-31,-48,-111,-200,-57
-101,-75,25,88,-63,-25,4,-22,-45,-100,-178,-38
-87,-70,17,78,-52,-26,2,-17,-41,-90,-167,-28
-71,-63,7,67,-39,-28,-1,-6,-40,-80,-159,-24
-45,-56,-10,51,-17,-33,-3,-16,-40,-71,-152,-25
-14,-40,-26,27,6,-33,-15,-45,-39,-70,-146,-22
-40,-72,-32,56,-4,-52,-32,-42,-41,-70,-139,-19
-54,-82,-28,68,-13,-55,-30,-33,-39,-65,-131,-21
-42,-65,-24,54,-9,-44,-19,-28,-55,-65,-116,-11
-20,-48,-28,34,4,-38,-12,-20,-49,-63,-103,-5
-53,-41,12,47,-32,-14,-16,-15,-20,-53,-94,12
-64,-42,22,53,-43,-9,-28,-22,-21,-39,-89,11
-28,-14,14,21,-21,0,-33,-18,-8,-33,-84,-14
-34,-22,12,28,-23,-5,-23,1,5,-25,-79,-3
17,-33,-50,8,34,-41,-42,-15,-20,-29,-72,13
52,-21,-73,-15,63,-47,-75,-50,-38,-40,-72,17
22,-24,-46,1,34,-35,-75,-73,-62,-59,-76,15
49,-10,-59,-19,54,-34,-74,-82,-75,-73,-73,11
17,-44,-60,14,39,-52,-76,-85,-80,-81,-79,8
-88,-111,-23,99,-32,-67,-68,-85,-108,-107,-91,5
-79,-109,-30,94,-24,-69,-53,-84,-103,-111,-118,-11
-59,-95,-36,77,-11,-65,-40,-89,-93,-100,-122,-33
-59,-84,-24,72,-17,-54,-34,-91,-88,-104,-120,-40
-33,-52,-19,43,-7,-35,-36,-89,-78,-93,-120,-42
-39,-54,-15,47,-12,-34,-32,-91,-82,-98,-119,-45
-86,-81,5,84,-46,-38,-30,-88,-77,-99,-123,-49
-73,-84,-11,79,-31,-47,-30,-93,-92,-105,-114,-49
-5,-71,-66,39,31,-68,-27,-79,-94,-124,-120,-49
7,-69,-77,31,42,-73,-23,-74,-80,-92,-84,-36
-28,-95,-67,62,20,-81,-28,-37,-45,-75,-110,-36
51,-16,-67,-17,59,-41,-54,99,133,171,77,43
279,217,-61,-247,170,78,-199,-59,204,524,633,337
506,578,72,-542,217,324,-613,-718,-141,771,1558,921
487,623,136,-556,175,380,-930,-1352,-853,328,1929,1225
111,71,-39,-91,75,16,-705,-1382,-1310,-831,604,616
-139,-279,-140,210,0,-209,-301,-867,-957,-988,-464,-16
-112,-214,-102,163,-5,-158,-98,-343,-401,-445,-361,-109
-73,-129,-55,101,-9,-92,-4,-62,-107,-200,-242,-96
-71,-106,-36,89,-17,-71,49,37,28,-87,-190,-88
-70,-115,-46,93,-12,-80,64,69,52,-83,-198,-104
-74,-107,-34,91,-20,-70,70,89,70,-61,-193,-104
-45,-109,-65,77,10,-87,74,77,69,-61,-176,-97
-88,-113,-25,101,-31,-69,70,100,75,-52,-174,-98
-112,-110,2,111,-57,-54,85,150,90,-45,-160,-89
35,-52,-87,9,61,-69,84,163,97,-27,-162,-92
-3,-85,-81,44,39,-83,61,163,91,-10,-152,-96
-78,-153,-75,115,-1,-114,68,169,90,-18,-151,-105
-29,-114,-85,71,29,-99,77,170,122,14,-145,-105
-26,-103,-78,65,26,-90,87,180,145,36,-141,-105
37,-52,-89,8,63,-70,96,219,183,70,-135,-105
28,-57,-85,15,57,-70,97,259,215,100,-130,-105
-45,-113,-68,79,12,-90,111,291,246,121,-123,-104
13,-78,-91,33,52,-84,113,330,282,148,-109,-98
93,-21,-114,-36,104,-68,135,416,348,213,-81,-91
63,-30,-93,-16,79,-61,164,482,427,292,-42,-80
5,-76,-81,36,43,-78,158,506,452,319,-34,-70
42,-49,-90,4,66,-69,161,550,496,356,-9,-59
72,-19,-91,-26,81,-55,158,561,535,403,36,-36
77,8,-69,-42,73,-31,163,557,526,416,67,-11
92,27,-65,-59,78,-19,146,513,493,381,73,0
93,33,-59,-63,76,-13,92,408,418,328,76,19
105,50,-55,-77,80,-3,54,289,312,255,95,36
123,61,-61,-92,92,0,38,181,221,165,84,29
79,20,-59,-50,69,-19,21,86,119,91,53,24
12,-49,-61,19,36,-55,-21,-7,24,11,-2,10
2,-58,-60,28,31,-59,-42,-53,-15,-51,-34,-4
1,-60,-60,30,30,-60,-39,-70,-42,-84,-45,-15
-12,-61,-48,37,18,-54,-41,-67,-44,-87,-63,-25
-55,-54,1,54,-27,-26,-39,-78,-57,-99,-62,-35
-50,-56,-5,53,-22,-30,-41,-118,-89,-115,-86,-60
-2,-55,-53,29,26,-54,-38,-121,-90,-115,-98,-67
21,-35,-56,7,39,-45,-34,-119,-90,-124,-93,-64
-12,-65,-54,39,21,-59,-36,-121,-90,-128,-100,-66
-54,-104,-49,79,-2,-76,-22,-119,-90,-131,-99,-64
-46,-92,-46,69,0,-69,-10,-120,-90,-114,-101,-65
-72,-91,-19,81,-26,-54,-9,-115,-85,-113,-105,-65
-48,-83,-35,66,-6,-59,-6,-112,-80,-144,-105,-65
4,-93,-97,44,51,-95,-3,-109,-75,-141,-106,-65
-25,-110,-84,68,30,-97,0,-104,-72,-133,-110,-65
-49,-104,-55,77,3,-79,0,-101,-66,-130,-111,-65
-42,-92,-50,67,4,-71,0,-97,-67,-120,-107,-65
-37,-96,-59,67,11,-77,-1,-95,-71,-111,-94,-65
-18,-68,-51,44,17,-59,2,-95,-70,-100,-79,-65
-3,-56,-54,30,26,-55,-3,-96,-70,-101,-65,-65
30,-28,-58,0,44,-43,-2,-94,-70,-99,-56,-65
26,-25,-52,0,39,-38,-14,-97,-70,-102,-66,-65
-39,-85,-45,62,3,-65,-46,-114,-63,-105,-68,-56
7,-33,-40,13,23,-36,-40,-115,-54,-98,-47,-42
-6,-44,-37,25,16,-40,-35,-110,-48,-94,-37,-36
-81,-78,3,79,-42,-37,-29,-109,-38,-86,-30,-29
15,-44,-59,15,37,-51,-23,-104,-35,-83,-20,-23
86,-35,-121,-26,104,-78,-18,-105,-34,-59,-11,-17
68,-33,-101,-17,85,-67,-9,-94,-36,-38,0,-9
104,-3,-106,-50,105,-54,-44,-106,-33,-40,9,14
149,51,-98,-100,124,-24,-77,-144,-37,-45,34,47
67,-29,-95,-18,81,-62,-75,-173,-79,-93,14,28
-1,-95,-94,48,46,-94,-67,-197,-105,-126,-33,-3
35,-75,-110,20,73,-92,-59,-192,-97,-122,-33,-2
48,-67,-114,10,81,-90,-51,-189,-94,-119,-30,-19
26,-74,-100,24,63,-86,-44,-178,-78,-113,-24,-34
-2,-98,-96,50,47,-97,-40,-184,-87,-133,-31,-42
-2,-85,-83,44,41,-84,-40,-216,-122,-160,-81,-67
-9,-88,-78,49,35,-83,-40,-214,-119,-151,-78,-63
-18,-90,-73,55,28,-81,-40,-216,-121,-157,-73,-59
-29,-99,-70,64,21,-84,-40,-214,-120,-154,-71,-56
-37,-113,-75,75,19,-93,-44,-217,-120,-153,-59,-51
-6,-79,-73,43,33,-76,-45,-209,-118,-155,-69,-51
-4,-93,-88,49,42,-90,-45,-213,-100,-116,-42,-40
18,-106,-124,44,72,-115,-47,-150,-64,-101,-58,-55
165,7,-158,-86,161,-75,-57,12,123,146,148,40
358,243,-115,-301,236,64,-213,-183,185,460,677,340
570,567,-3,-569,286,282,-657,-865,-193,685,1637,935
570,559,-11,-565,290,274,-950,-1497,-895,232,1968,1215
194,50,-145,-122,170,-48,-685,-1520,-1325,-917,554,547
-120,-254,-134,187,7,-193,-291,-978,-953,-995,-422,-75
-100,-162,-62,132,-19,-112,-101,-443,-398,-448,-276,-146
10,-99,-109,45,59,-104,-30,-186,-150,-253,-208,-123
6,-85,-91,40,49,-88,14,-103,-49,-145,-162,-112
9,-58,-66,25,38,-62,47,-66,-15,-129,-161,-117
-1,-44,-43,23,21,-44,61,-37,10,-96,-151,-114
-18,-39,-21,29,1,-30,76,-23,16,-91,-142,-115
38,-57,-95,9,66,-76,74,-11,22,-81,-149,-116
15,-69,-84,27,50,-76,76,-1,30,-68,-137,-110
9,-67,-76,29,43,-71,81,1,36,-59,-143,-100
10,-62,-72,26,41,-67,79,21,59,-41,-135,-91
-29,-55,-25,42,-2,-39,82,55,92,-28,-132,-100
29,-49,-78,10,54,-64,86,43,83,-21,-123,-102
54,-46,-101,-4,78,-73,88,49,86,-16,-117,-99
52,-35,-87,-8,70,-61,94,101,138,28,-111,-100
57,-38,-95,-9,77,-66,93,125,155,52,-103,-100
95,17,-78,-56,86,-30,100,181,201,101,-100,-99
128,22,-106,-74,116,-41,111,231,239,138,-92,-103
73,-50,-124,-11,99,-86,96,250,254,145,-90,-100
83,-15,-98,-34,90,-56,110,334,330,211,-71,-85
119,11,-107,-65,113,-47,133,406,398,279,-16,-72
166,59,-107,-112,136,-24,130,447,437,325,20,-52
166,71,-95,-119,131,-12,126,461,453,344,40,-38
149,68,-81,-108,115,-7,127,451,460,351,73,-24
228,133,-95,-180,162,19,115,420,432,337,92,1
226,124,-102,-175,164,11,76,316,352,278,83,24
175,108,-67,-141,121,20,33,195,259,206,69,32
162,108,-54,-135,107,27,4,81,157,121,60,24
159,110,-49,-135,104,30,-5,-12,78,46,36,17
144,96,-48,-120,96,24,-11,-75,19,-10,15,12
120,58,-61,-88,90,-2,-17,-127,-31,-64,-14,-2
121,44,-77,-82,99,-16,-25,-165,-66,-102,-47,-22
124,56,-68,-90,96,-6,-15,-160,-74,-98,-47,-32
77,22,-55,-49,66,-16,-21,-169,-87,-116,-70,-45
37,-17,-54,-10,46,-35,-50,-201,-104,-150,-88,-63
51,3,-47,-27,49,-22,-45,-196,-96,-144,-78,-66
72,33,-39,-52,55,-3,-37,-191,-95,-134,-74,-63
103,61,-42,-81,72,9,-31,-185,-92,-127,-91,-69
66,62,-5,-64,35,28,-25,-180,-89,-137,-114,-84
65,46,-18,-55,41,14,-26,-179,-99,-143,-122,-80
120,43,-77,-82,99,-17,-24,-175,-99,-144,-131,-73
124,68,-56,-96,90,6,-20,-173,-92,-151,-127,-67
99,53,-46,-76,72,4,-21,-170,-88,-146,-142,-57
75,29,-47,-51,61,-9,-17,-168,-81,-141,-145,-50
88,46,-42,-67,65,2,3,-164,-77,-136,-122,-42
117,58,-59,-87,88,0,5,-162,-70,-133,-115,-36
114,56,-58,-85,86,-1,-2,-159,-74,-128,-106,-33
107,45,-62,-76,85,-9,-6,-156,-86,-123,-98,-29
123,51,-72,-87,97,-10,-12,-154,-77,-120,-91,-26
122,54,-68,-88,95,-7,-19,-151,-74,-120,-80,-20
134,78,-56,-106,95,11,-14,-149,-66,-120,-68,-21
185,126,-59,-155,122,33,8,-151,-53,-120,-61,-25
162,94,-67,-128,114,13,11,-149,-76,-120,-57,-25
72,34,-39,-53,55,-2,8,-151,-85,-114,-50,-29
131,81,-50,-106,90,15,5,-145,-70,-99,-45,-25
211,135,-77,-173,144,29,8,-117,-41,-75,-40,-16
204,136,-68,-170,136,34,27,-104,-22,-56,-36,-9
206,132,-74,-169,140,29,19,-88,-15,-43,-35,-1
203,111,-91,-157,147,10,-2,-98,-21,-43,-35,7
292,175,-118,-233,205,28,-13,-134,-70,-62,-35,19
296,165,-130,-230,212,18,-21,-147,-90,-83,-35,22
190,99,-91,-145,141,4,-30,-165,-94,-97,-35,13
214,113,-101,-163,157,5,-39,-166,-105,-107,-35,2
242,104,-137,-173,189,-16,-31,-163,-103,-117,-53,-7
228,113,-115,-170,171,-1,-18,-162,-108,-121,-78,-18
210,105,-105,-157,157,0,-7,-158,-109,-113,-72,-23
214,110,-104,-161,159,3,1,-161,-110,-118,-78,-33
215,121,-94,-168,154,13,8,-153,-101,-112,-72,-32
164,68,-96,-116,130,-13,13,-155,-104,-117,-76,-30
181,96,-86,-138,133,5,27,-148,-93,-115,-74,-31
197,121,-75,-159,136,23,31,-146,-99,-109,-61,-24
155,98,-58,-126,106,20,27,-147,-104,-110,-70,-29
161,128,-33,-144,97,47,25,-128,-79,-78,-40,-18
204,101,-103,-152,153,-1,19,-90,-64,-91,-72,-9
348,192,-155,-270,251,18,19,69,129,155,147,86
560,405,-155,-482,357,125,-155,-77,205,456,651,351
807,701,-106,-754,456,297,-579,-753,-148,676,1602,924
776,701,-75,-738,425,313,-856,-1395,-824,268,2000,1197
336,212,-123,-274,229,44,-615,-1467,-1280,-860,572,537
100,-7,-107,-46,103,-56,-211,-938,-936,-957,-440,-54
130,34,-96,-82,113,-31,-20,-401,-400,-425,-300,-117
190,98,-92,-144,141,3,66,-132,-133,-199,-209,-105
206,118,-88,-162,147,15,97,-48,-38,-97,-141,-96
194,103,-92,-149,143,5,111,-22,-16,-93,-148,-105
206,118,-88,-162,147,15,117,9,13,-54,-140,-104
199,108,-91,-153,145,8,118,7,14,-57,-138,-105
198,109,-89,-153,143,10,126,35,31,-41,-143,-106
166,80,-86,-122,126,-3,124,45,29,-32,-136,-104
223,140,-83,-181,153,28,154,65,61,-26,-143,-106
218,130,-88,-173,152,21,138,86,91,-15,-140,-104
164,84,-80,-124,122,2,102,86,92,-13,-141,-105
210,110,-100,-160,155,5,111,82,94,9,-132,-105
158,96,-62,-127,109,17,138,101,104,36,-126,-105
197,144,-54,-170,125,44,167,158,147,70,-119,-105
257,137,-120,-197,188,9,163,163,141,73,-112,-105
229,129,-100,-178,164,14,170,199,164,95,-109,-106
220,111,-109,-165,164,0,168,251,211,125,-112,-95
260,125,-135,-192,198,-5,176,326,281,193,-81,-67
321,196,-125,-258,223,35,203,402,340,263,-53,-60
319,170,-148,-244,233,11,203,410,346,266,-32,-71
318,164,-154,-241,236,5,196,454,402,312,-2,-59
265,177,-87,-221,176,45,194,482,439,362,32,-31
262,185,-77,-223,169,54,186,470,437,351,52,-14
328,208,-120,-267,224,44,157,428,409,344,47,-7
380,277,-103,-328,241,87,139,371,380,332,87,31
337,247,-90,-291,213,78,98,249,277,251,78,48
248,162,-86,-205,167,38,55,94,146,150,28,28
225,157,-68,-191,146,44,51,44,91,89,13,17
208,141,-67,-174,137,37,49,-24,19,15,-31,5
188,139,-49,-163,118,45,50,-81,-29,-40,-57,-8
176,131,-45,-153,110,42,51,-76,-47,-41,-52,-15
219,123,-97,-171,158,13,41,-119,-76,-78,-80,-45
173,92,-81,-132,126,5,28,-148,-107,-130,-123,-76
145,70,-75,-107,110,-2,29,-144,-113,-131,-126,-75
170,92,-79,-131,124,6,31,-144,-108,-128,-123,-74
130,81,-50,-105,90,15,33,-139,-112,-133,-127,-76
163,81,-82,-122,123,0,37,-141,-108,-127,-122,-73
158,66,-92,-112,124,-13,28,-137,-112,-136,-130,-75
151,67,-84,-109,117,-8,37,-131,-117,-129,-137,-64
151,69,-83,-110,116,-7,53,-124,-124,-119,-146,-63
98,21,-77,-60,88,-28,22,-118,-140,-156,-164,-94
137,61,-76,-99,106,-7,13,-110,-129,-159,-161,-96
143,74,-69,-109,106,2,39,-107,-113,-139,-154,-83
139,70,-69,-104,104,0,40,-120,-116,-138,-150,-77
170,110,-60,-140,115,25,36,-120,-113,-132,-143,-74
160,94,-66,-127,113,14,32,-116,-110,-131,-139,-76
169,95,-74,-131,121,10,30,-113,-110,-127,-125,-74
137,87,-50,-112,94,18,22,-111,-112,-125,-111,-76
115,88,-27,-101,70,30,39,-106,-120,-123,-117,-72
178,119,-59,-148,118,30,43,-119,-125,-119,-117,-66
205,120,-85,-162,145,17,10,-152,-114,-121,-109,-61
192,120,-72,-156,132,23,7,-145,-99,-111,-103,-55
191,115,-76,-152,133,19,17,-128,-87,-104,-92,-50
190,115,-75,-152,132,20,42,-123,-68,-88,-82,-46
188,114,-74,-151,131,19,46,-126,-64,-58,-78,-45
184,109,-76,-146,130,16,16,-133,-74,-58,-82,-44
198,123,-75,-160,136,23,-10,-132,-72,-55,-82,-38
171,91,-80,-131,125,5,-48,-158,-97,-81,-87,-36
153,76,-77,-114,115,-1,-64,-186,-138,-119,-87,-32
198,92,-106,-145,152,-7,-53,-192,-147,-125,-93,-29
199,74,-124,-136,161,-25,-39,-198,-162,-142,-98,-38
166,67,-100,-116,133,-16,-17,-194,-172,-157,-103,-53
143,57,-86,-100,114,-15,-9,-189,-164,-155,-128,-74
132,51,-81,-91,106,-15,-8,-187,-163,-154,-126,-80
115,40,-75,-77,95,-17,0,-182,-159,-158,-123,-74
103,38,-65,-70,83,-13,3,-180,-154,-150,-113,-68
105,39,-66,-72,86,-14,10,-176,-154,-158,-114,-67
72,40,-33,-56,53,3,21,-174,-136,-135,-101,-58
87,62,-25,-74,56,18,25,-176,-146,-155,-124,-68
133,56,-77,-94,104,-10,13,-173,-161,-161,-148,-102
93,24,-68,-58,81,-22,6,-169,-157,-144,-124,-100
131,39,-91,-85,111,-26,1,-60,-53,-63,-97,-75
289,173,-116,-231,202,28,-46,6,141,257,228,75
436,416,-20,-426,228,198,-280,-352,85,575,904,478
641,714,72,-678,284,393,-727,-1063,-419,668,1807,1058
517,515,-1,-516,259,256,-861,-1553,-1152,-188,1529,1018
90,-25,-116,-32,103,-70,-504,-1344,-1315,-1118,-1,257
-42,-148,-105,95,32,-126,-166,-763,-784,-819,-519,-138
35,-74,-109,20,72,-91,-16,-340,-323,-372,-320,-150
73,-6,-79,-34,76,-42,55,-144,-123,-207,-275,-158
56,17,-40,-36,48,-11,80,-92,-65,-138,-220,-147
56,21,-35,-38,45,-7,81,-75,-47,-138,-231,-150
-5,12,17,-3,-11,14,79,-65,-30,-116,-221,-143
45,-2,-47,-21,46,-24,80,-49,-26,-125,-223,-144
26,28,2,-27,11,15,80,-33,-17,-109,-219,-138
-33,-13,20,23,-26,3,78,-35,-11,-110,-218,-141
98,15,-83,-56,91,-34,90,-27,-2,-100,-221,-135
87,19,-68,-53,77,-24,101,-28,13,-82,-217,-135
58,-5,-63,-27,61,-33,93,-14,25,-64,-223,-134
85,34,-51,-59,68,-8,91,24,66,-37,-209,-131
