I,II,III,aVR,aVL,aVF,V1,V2,V3,V4,V5,V6
42,49,7,-46,17,28,-79,-10,-1968,45,6,5
35,38,3,-37,16,20,-73,-10,-1958,43,12,1
70,23,-47,-47,59,-12,-65,-7,-1947,38,4,-6
72,1,-72,-36,72,-35,-56,-4,-1942,34,-18,-12
34,-13,-47,-10,40,-29,-46,-1,-1932,29,-36,-19
2,-31,-33,15,18,-32,-31,1,-1908,25,-41,-25
-4,-54,-50,29,23,-51,-17,5,-1887,25,-44,-29
-10,-57,-47,34,19,-52,-3,10,-1874,23,-48,-34
-15,-63,-48,39,17,-56,7,15,-1858,20,-49,-33
5,-44,-49,20,27,-46,23,18,-1832,19,-60,-29
-9,-41,-32,25,12,-37,52,24,-1806,23,-63,-31
-11,-38,-27,25,8,-32,56,27,-1786,25,-53,-26
0,-15,-15,8,8,-15,65,35,-1767,26,-48,-25
-26,-21,5,24,-15,-8,83,55,-1734,47,-40,-25
-39,-8,31,23,-34,11,95,74,-1698,57,-35,-20
-36,-2,34,19,-35,16,139,101,-1669,60,-35,-20
-22,16,38,3,-30,26,167,132,-1640,79,-34,-16
-16,65,81,-25,-49,72,178,128,-1617,86,-30,-15
-55,36,91,9,-73,63,160,82,-1607,84,-30,-13
-46,28,73,9,-60,50,103,41,-1599,86,-28,-6
17,64,48,-41,-16,56,64,21,-1590,84,-21,-1
5,61,56,-33,-25,58,11,13,-1583,97,-14,4
-30,53,83,-12,-56,68,-60,8,-1576,100,-8,10
-11,50,61,-20,-36,55,-98,0,-1570,80,-1,14
-1,42,43,-21,-22,42,-98,-5,-1563,68,5,4
-7,11,18,-3,-12,14,-83,-14,-1557,60,-11,-14
30,0,-30,-15,30,-15,-76,-22,-1551,54,-33,-27
22,-11,-33,-5,28,-22,-83,-17,-1537,47,-37,-31
-7,-24,-17,16,5,-21,-79,-14,-1527,41,-37,-34
-10,-17,-8,14,-1,-12,-62,-11,-1515,35,-32,-38
-24,-21,3,22,-14,-8,-42,-6,-1498,34,-46,-40
-2,-28,-26,15,12,-27,-18,-4,-1484,36,-69,-34
-5,-32,-27,19,11,-29,-8,2,-1474,33,-61,-29
-16,-7,9,11,-12,1,-3,5,-1457,40,-49,-24
-21,-10,10,16,-15,-1,5,12,-1425,37,-46,-18
-36,-50,-14,43,-11,-32,20,13,-1393,46,-44,-12
-44,-44,0,44,-22,-21,44,23,-1364,67,-46,-8
-61,-12,49,36,-55,18,58,42,-1341,63,-45,-3
-31,13,44,9,-38,28,77,53,-1312,84,-35,0
-15,30,46,-8,-31,38,130,90,-1279,104,-12,3
-11,63,74,-26,-42,68,157,98,-1249,115,9,8
-24,68,92,-22,-58,79,144,85,-1232,127,7,10
-54,48,103,3,-79,75,106,62,-1227,124,5,6
-42,56,98,-7,-71,77,49,20,-1220,125,-11,0
-44,58,101,-7,-73,79,5,4,-1214,125,-28,3
-21,78,99,-28,-60,88,-48,-4,-1206,125,-22,5
-1,81,82,-40,-42,81,-110,-16,-1201,122,-19,8
-2,51,53,-25,-28,52,-139,-29,-1192,104,-16,11
-7,50,57,-22,-32,53,-128,-40,-1188,89,-11,2
-14,11,25,1,-20,18,-110,-46,-1179,89,-10,-6
1,-15,-15,7,8,-15,-111,-48,-1174,90,-43,-21
4,9,6,-6,-1,7,-108,-70,-1172,90,-41,-11
110,58,-53,-84,82,2,-204,-239,-1202,97,36,59
266,194,-71,-230,168,61,-363,-581,-1386,122,130,196
363,254,-109,-308,236,72,-480,-948,-1716,79,148,288
373,248,-125,-310,248,61,-573,-1143,-1953,-25,68,291
303,228,-75,-265,189,76,-472,-842,-1763,-43,3,232
209,88,-121,-148,165,-16,-242,-366,-1398,-40,-94,57
35,-31,-65,-2,50,-48,-68,-128,-1175,-21,-131,-57
-59,-41,17,50,-37,-12,43,26,-1018,51,-76,-57
-71,-1,70,36,-70,34,84,82,-952,84,-59,-55
-85,17,102,33,-93,59,112,104,-915,91,-43,-49
-87,17,104,35,-96,60,142,134,-877,108,-39,-45
-93,39,133,27,-113,86,182,164,-843,124,-34,-40
-90,66,157,12,-124,111,204,190,-824,138,-27,-36
-99,76,175,11,-137,125,168,152,-827,146,-23,-30
-91,68,159,11,-125,113,124,94,-817,143,-19,-22
-85,65,150,10,-118,107,84,52,-817,140,-21,-17
-81,60,141,10,-111,100,11,24,-807,137,-19,-8
-75,56,131,9,-103,93,-59,10,-787,135,-20,-6
-77,48,125,14,-102,86,-88,5,-774,133,-20,-14
-89,29,118,29,-103,74,-84,-3,-764,123,-21,-26
-85,32,117,26,-101,74,-86,-11,-755,117,-25,-33
-96,12,107,42,-101,59,-83,-18,-742,103,-33,-36
-119,-28,91,73,-105,31,-50,-17,-727,83,-34,-34
-103,-28,75,65,-89,23,-39,-14,-714,79,-37,-36
-89,-21,68,55,-78,23,-27,-15,-705,81,-54,-49
-78,-16,62,47,-70,23,-6,-14,-698,76,-56,-48
-68,-10,58,39,-63,24,-6,-15,-687,75,-54,-44
-56,-5,51,30,-53,23,3,-14,-673,75,-51,-41
-46,0,46,23,-46,23,6,-9,-659,70,-48,-36
-34,7,41,13,-38,24,14,-17,-647,67,-51,-34
-31,7,39,12,-35,23,11,-27,-635,63,-39,-29
-47,-6,42,26,-44,18,-7,-22,-623,60,-50,-25
-27,10,37,8,-32,23,0,-10,-602,54,-58,-20
-30,14,44,8,-37,29,23,-6,-584,62,-33,-15
-14,19,33,-3,-23,25,61,21,-551,77,-29,-11
27,65,38,-46,-6,51,89,59,-505,74,-31,-9
6,55,49,-31,-22,52,97,49,-494,75,-26,-10
-13,24,37,-6,-25,30,64,8,-495,76,-25,-10
2,37,35,-20,-17,36,28,-34,-496,73,-24,-10
13,41,28,-27,-7,34,19,-42,-480,83,-21,-10
-15,51,67,-18,-41,59,-49,-38,-442,94,-16,-10
-31,53,85,-11,-58,69,-102,-41,-414,104,-14,-10
-35,42,77,-4,-56,59,-95,-39,-393,110,-9,-10
-46,40,86,3,-66,63,-90,-41,-380,103,-6,-14
-56,28,84,14,-70,56,-82,-36,-363,100,-3,-18
-57,29,85,13,-72,57,-74,-32,-342,95,2,-24
-79,-1,78,40,-78,38,-60,-29,-325,90,5,-23
-85,-14,71,49,-77,28,-50,-26,-310,96,9,-24
-56,5,61,25,-59,33,-40,-21,-297,102,12,-35
-62,-1,61,31,-61,30,-28,-19,-283,105,16,-35
-63,-15,48,39,-56,17,-17,-12,-270,110,19,-35
-98,-41,57,69,-77,8,-4,-6,-253,115,22,-35
-107,-35,72,71,-89,18,9,1,-232,118,25,-35
-78,-24,55,51,-66,16,25,8,-218,124,27,-33
-71,-6,65,39,-68,29,33,13,-204,124,31,-26
-86,-13,73,49,-79,29,51,27,-174,132,31,-21
-102,1,103,50,-102,52,63,39,-143,148,38,-16
-58,42,100,8,-79,71,80,64,-115,139,39,-10
-52,32,84,10,-68,58,124,101,-75,144,43,-5
-63,64,127,0,-95,95,155,138,-41,160,67,1
-50,77,126,-14,-88,101,172,141,-38,175,71,21
-70,45,115,12,-93,80,129,82,-60,183,69,31
-74,39,113,17,-93,76,70,35,-69,173,71,23
-41,62,102,-11,-72,82,28,17,-49,167,70,21
-26,74,100,-24,-63,87,-43,12,-34,159,69,16
-23,63,87,-20,-55,75,-96,9,-30,153,63,15
-24,53,77,-15,-51,65,-122,3,-26,144,57,15
-16,48,64,-16,-40,56,-125,-1,-21,132,51,15
-26,30,57,-2,-41,43,-119,-5,-16,121,46,16
-55,-1,54,27,-54,26,-110,-10,-12,109,41,13
-32,19,51,6,-42,35,-94,-14,-2,106,36,10
-24,24,48,0,-37,36,-80,-12,6,102,31,7
-40,5,45,17,-43,25,-56,-5,35,100,28,5
-51,-5,45,27,-48,20,-43,-3,52,97,22,2
-65,-21,44,43,-55,11,-32,4,51,94,21,-1
-81,-35,46,58,-64,5,-24,6,57,92,18,4
-85,-43,42,63,-64,-1,-8,14,61,82,25,5
-92,-35,58,63,-75,11,17,33,90,104,41,5
-113,-36,78,74,-95,21,46,36,105,123,40,10
-102,-26,77,64,-89,25,61,47,114,118,40,9
-97,-14,83,55,-90,35,65,62,137,121,39,12
-80,3,83,38,-81,43,103,87,150,118,47,24
-43,50,93,-4,-68,71,145,120,188,129,75,32
-61,57,118,2,-90,87,154,117,193,135,88,25
-73,43,116,14,-95,80,109,75,169,129,82,26
-46,47,93,-1,-70,70,51,28,165,125,83,19
-44,41,85,1,-65,62,-8,-22,146,120,75,23
39,86,47,-62,-4,66,-148,-174,95,134,121,103
185,217,32,-202,77,124,-362,-504,-83,163,235,236
302,304,2,-303,150,153,-539,-879,-405,133,255,335
400,280,-120,-340,260,80,-627,-1101,-663,38,199,352
396,251,-145,-324,271,53,-602,-921,-575,-7,124,317
275,137,-139,-206,207,-1,-424,-477,-254,-33,41,156
74,-42,-116,-16,95,-79,-216,-195,-27,-40,-9,-3
-53,-104,-51,79,-1,-77,-85,-28,130,13,-11,-19
-72,-90,-18,81,-26,-54,-18,50,214,51,19,-22
-99,-77,22,88,-60,-28,1,56,229,61,21,-18
-124,-98,26,110,-75,-36,19,73,232,60,19,-15
-116,-95,21,106,-68,-37,38,81,227,57,21,-13
-88,-68,20,78,-54,-24,40,91,236,55,19,-9
-79,-64,15,71,-47,-24,56,94,248,54,21,-9
-76,-61,15,68,-45,-23,75,105,274,59,21,0
-90,-57,33,73,-61,-12,85,114,284,62,36,5
-108,-54,54,81,-80,0,101,131,293,66,51,13
-83,-40,43,61,-63,1,126,163,327,87,63,19
-74,-16,58,44,-66,21,159,194,343,97,71,27
-100,-11,90,55,-95,40,170,202,339,95,80,31
-98,-11,86,54,-92,37,148,169,322,94,86,29
-75,-44,31,59,-52,-7,105,119,307,87,78,31
-89,-49,40,69,-64,-5,60,86,299,83,75,29
-83,-6,77,44,-80,35,23,69,293,76,70,36
-84,-33,51,58,-68,9,-36,48,285,72,65,41
-91,-40,51,66,-71,6,-91,28,277,64,61,36
-64,-45,19,54,-41,-12,-101,9,271,52,54,34
-78,-82,-3,80,-38,-42,-98,-3,258,41,48,29
-68,-80,-12,74,-28,-46,-96,-12,238,29,41,25
-28,-78,-51,53,11,-64,-92,-23,217,15,34,25
-26,-87,-61,57,18,-74,-90,-32,202,1,26,25
-28,-94,-66,61,19,-80,-87,-43,193,-10,19,25
-21,-93,-72,57,26,-82,-79,-48,185,-20,12,25
8,-83,-90,38,49,-86,-71,-42,175,-27,3,26
11,-97,-108,43,60,-102,-63,-38,166,-38,-2,24
-9,-117,-109,63,51,-113,-55,-33,166,-43,-7,21
3,-109,-113,53,58,-111,-44,-29,160,-41,-3,18
3,-123,-125,60,64,-124,-22,-24,160,-37,-11,16
-10,-129,-118,70,54,-123,7,-11,179,-35,-20,12
-8,-110,-102,59,48,-106,31,19,214,-29,4,10
-22,-99,-76,61,27,-87,52,50,234,-16,9,12
-37,-75,-39,56,1,-57,86,100,268,-4,23,19
-21,-32,-10,27,-5,-21,124,153,332,26,58,41
-14,-8,6,11,-10,-1,132,153,342,50,65,52
-23,-31,-8,27,-7,-19,112,113,334,51,65,49
-31,-45,-14,38,-8,-29,77,68,334,55,64,51
-38,-32,6,35,-22,-13,32,44,327,59,72,49
-42,-28,14,34,-28,-7,-20,34,326,59,85,51
-27,-11,16,19,-21,2,-85,27,320,53,91,45
12,-3,-15,-4,14,-9,-120,20,310,46,94,37
8,-39,-47,16,28,-43,-119,12,302,39,85,31
-14,-57,-43,36,15,-49,-114,7,293,32,75,23
-12,-64,-52,38,20,-58,-112,-6,283,26,65,16
-22,-81,-59,52,18,-70,-107,-12,280,21,56,10
-15,-81,-66,48,26,-74,-86,-7,277,18,52,10
-6,-87,-81,46,38,-83,-61,0,275,14,46,10
-22,-103,-81,62,30,-91,-49,5,271,11,43,10
-35,-109,-75,72,20,-92,-35,10,269,6,37,10
-25,-102,-77,64,26,-89,-22,17,274,6,36,10
-26,-96,-70,61,22,-82,-8,23,281,12,41,10
-34,-90,-55,62,11,-72,8,42,287,19,39,11
-23,-82,-58,53,18,-70,17,59,298,26,47,20
-19,-78,-59,48,20,-68,37,78,316,33,59,31
-11,-63,-52,38,21,-58,59,94,319,39,62,35
-34,-43,-8,39,-13,-25,89,119,332,46,66,35
-46,-33,13,39,-29,-10,123,148,358,55,75,35
-51,-34,17,42,-34,-8,139,141,353,56,80,35
-71,-26,45,49,-58,9,113,107,336,54,80,34
-63,-27,35,45,-48,4,52,58,317,55,80,37
-49,-14,35,31,-42,11,10,38,303,55,80,39
-24,6,30,9,-27,18,-42,33,299,54,80,45
-45,-18,26,31,-35,4,-81,22,293,59,76,53
-34,-12,22,23,-28,5,-113,17,288,56,69,49
15,-29,-44,7,29,-36,-138,15,283,49,63,44
19,-54,-74,18,47,-64,-131,15,277,33,56,41
6,-55,-61,25,33,-58,-124,11,275,3,49,36
-29,-89,-60,59,16,-74,-95,9,275,-8,43,34
-39,-88,-50,64,6,-69,-73,12,271,-12,40,31
-25,-80,-55,52,15,-67,-64,18,269,-18,37,28
-25,-108,-83,66,29,-95,-51,28,270,-23,35,25
-41,-115,-74,78,17,-94,-47,31,264,-30,32,25
-36,-77,-41,57,3,-59,-34,29,272,-26,29,25
-32,-91,-59,62,14,-75,-33,35,296,-20,34,25
-35,-102,-68,69,17,-85,-22,50,303,-14,37,25
-34,-86,-52,60,9,-69,14,51,313,-10,42,25
-41,-81,-39,61,-1,-60,33,51,329,-3,49,24
-46,-69,-23,58,-11,-46,35,85,338,3,61,31
-56,-71,-16,64,-20,-43,69,103,356,23,69,36
-22,-42,-20,33,0,-31,107,136,391,50,77,52
0,-9,-9,5,4,-8,111,130,385,41,79,60
48,41,-7,-44,27,17,30,-57,314,45,112,87
221,161,-60,-191,140,50,-178,-401,130,75,219,219
360,255,-105,-307,233,74,-388,-819,-206,54,248,323
419,261,-158,-339,288,51,-540,-1061,-471,-43,202,343
410,250,-160,-330,285,45,-550,-858,-361,-90,163,335
284,134,-150,-209,217,-8,-410,-442,-35,-81,83,195
112,-22,-134,-45,123,-78,-248,-175,177,-70,17,48
-10,-87,-77,48,34,-82,-120,-24,324,-32,20,8
-67,-128,-61,98,-3,-94,-64,44,382,-29,33,-4
-77,-125,-48,101,-14,-86,-25,58,371,-31,26,-6
-56,-122,-66,90,5,-94,2,71,376,-28,25,-15
-58,-137,-78,98,10,-107,9,66,382,-31,21,-21
-75,-144,-69,110,-2,-106,31,62,391,-29,16,-27
-77,-147,-71,112,-2,-109,50,74,391,-26,14,-35
-71,-135,-64,104,-3,-100,59,88,392,-24,8,-31
-70,-136,-66,103,-2,-101,73,83,401,-24,17,-25
-90,-135,-45,113,-22,-90,89,85,421,-19,31,-20
-94,-119,-25,106,-34,-72,97,92,415,-20,30,-12
-82,-115,-33,98,-24,-74,110,106,425,-18,28,-14
-87,-119,-32,104,-28,-75,126,126,453,-10,26,-20
-98,-101,-3,99,-47,-51,130,129,452,-6,23,-10
-94,-62,31,77,-62,-15,159,165,476,13,37,1
-101,-58,43,79,-71,-7,187,208,518,36,63,12
-113,-54,60,83,-86,3,174,205,522,35,65,10
-118,-55,63,87,-90,4,163,167,493,32,60,9
-114,-88,27,101,-70,-30,131,110,459,30,58,11
-84,-55,29,69,-56,-13,74,69,444,26,53,8
-64,-44,20,54,-42,-12,27,35,435,26,51,31
-51,-40,11,45,-31,-15,-44,5,425,20,51,42
-44,-38,6,41,-25,-16,-91,-6,412,13,47,36
-3,-69,-65,36,31,-67,-99,-30,394,2,41,34
13,-79,-92,33,53,-86,-117,-51,369,-8,35,30
13,-115,-128,51,71,-121,-114,-61,348,-33,31,26
53,-113,-167,30,110,-140,-102,-83,335,-53,18,19
19,-138,-158,59,89,-148,-90,-83,327,-57,-2,12
19,-141,-159,61,89,-150,-68,-76,329,-68,-9,6
34,-131,-165,48,100,-148,-61,-73,330,-77,-14,-1
30,-155,-185,63,108,-170,-49,-68,329,-94,-20,-10
50,-127,-177,39,114,-152,-15,-43,329,-91,-24,-20
4,-159,-163,78,83,-161,0,-20,331,-81,-37,-30
11,-144,-154,67,83,-149,22,-9,348,-77,-35,-35
32,-97,-129,33,81,-113,48,15,373,-69,-24,-35
-41,-142,-101,92,30,-121,62,37,397,-53,-17,-35
-66,-142,-76,104,5,-109,92,71,430,-36,-4,-35
-45,-104,-59,74,8,-81,115,95,454,-33,10,-34
-39,-83,-45,61,3,-64,148,138,486,-13,23,-25
-9,-41,-32,25,12,-36,176,182,529,5,32,-16
3,-20,-23,8,14,-21,187,172,539,9,35,-11
-23,-35,-12,29,-5,-23,176,144,515,16,35,-6
-31,-35,-4,33,-13,-19,131,105,500,20,34,-3
-51,-45,6,48,-29,-19,80,70,497,27,39,3
-43,-36,7,39,-24,-14,24,49,488,28,38,4
7,-3,-9,-2,8,-6,-44,41,482,18,28,-2
-17,-37,-20,27,2,-28,-85,37,476,6,20,-10
-7,-52,-45,30,19,-49,-81,31,470,-5,10,-15
19,-52,-71,17,45,-61,-75,25,460,-17,1,-23
9,-88,-97,40,53,-92,-64,20,450,-28,-13,-28
25,-89,-114,32,70,-101,-41,21,440,-43,-27,-34
3,-116,-119,56,61,-117,-27,19,433,-55,-35,-47
-11,-130,-120,71,55,-125,-12,22,431,-56,-38,-51
-16,-124,-108,70,46,-116,-4,17,427,-60,-44,-52
-38,-141,-103,90,33,-122,12,26,424,-62,-47,-57
-35,-131,-95,83,30,-113,31,38,419,-66,-45,-64
-27,-117,-90,72,32,-103,52,43,425,-62,-45,-63
-47,-129,-82,88,18,-105,80,64,434,-53,-42,-55
-49,-126,-77,87,15,-101,88,70,435,-45,-39,-52
-31,-91,-60,61,15,-75,108,86,456,-35,-41,-44
-35,-87,-52,62,8,-69,130,101,461,-31,-44,-41
-35,-96,-60,66,13,-78,152,122,461,-28,-45,-56
-38,-63,-25,51,-6,-43,193,154,482,-26,-45,-60
-43,-47,-4,45,-20,-25,208,165,481,-22,-45,-54
-42,-48,-6,45,-18,-27,175,129,461,-20,-45,-53
-32,-43,-11,38,-10,-27,119,78,450,-17,-42,-46
-34,-46,-12,40,-10,-29,78,70,444,-15,-26,-45
-22,-43,-21,33,0,-32,40,61,437,-15,-14,-50
10,-19,-28,5,19,-23,-17,49,431,-11,-14,-50
8,-9,-17,1,12,-13,-63,38,424,-10,-15,-50
8,-20,-27,6,18,-23,-67,25,413,-10,-17,-50
11,-33,-43,11,27,-38,-56,17,401,-22,-26,-50
6,-66,-72,31,39,-69,-49,15,390,-38,-34,-49
3,-74,-76,36,40,-75,-38,15,381,-48,-41,-51
-1,-75,-75,38,37,-75,-25,11,376,-53,-48,-55
-8,-95,-87,52,40,-90,-17,10,371,-49,-50,-56
-25,-94,-69,60,23,-81,-12,11,368,-47,-54,-54
-31,-96,-64,64,17,-80,1,20,361,-44,-55,-56
-29,-94,-66,62,19,-80,23,25,361,-41,-50,-54
-31,-95,-64,64,17,-80,42,32,365,-39,-50,-56
-34,-94,-60,64,14,-77,45,48,367,-62,-49,-76
-34,-69,-35,52,1,-51,56,43,373,-73,-44,-76
-21,-52,-30,37,5,-41,87,50,372,-43,-46,-65
-23,-38,-14,31,-4,-26,108,86,389,-25,-43,-60
-38,-47,-9,43,-14,-28,135,102,410,-12,-36,-51
1,-16,-17,7,9,-16,178,124,422,0,-39,-48
-5,51,55,-23,-30,53,207,130,419,-1,-42,-43
-27,33,60,-3,-44,47,216,115,410,2,-45,-47
-21,8,29,6,-26,18,172,87,389,-6,-51,-42
35,32,-4,-33,19,14,29,-46,335,-11,-30,-17
180,142,-39,-161,109,51,-170,-314,218,38,86,93
308,282,-26,-295,166,128,-361,-677,-41,62,189,246
438,288,-150,-363,294,69,-551,-1022,-382,-38,137,281
437,273,-164,-355,300,54,-617,-1025,-468,-96,72,273
327,199,-128,-263,227,35,-466,-603,-177,-87,-20,174
194,17,-178,-105,186,-80,-254,-261,81,-115,-123,-24
30,-72,-102,21,66,-86,-89,-74,230,-93,-108,-88
-21,-85,-64,53,22,-74,-4,59,337,-47,-93,-89
-54,-87,-33,71,-10,-60,33,64,338,-22,-93,-108
-70,-72,-1,71,-34,-36,57,63,341,-19,-87,-102
-70,-74,-4,72,-33,-39,68,58,339,-21,-86,-101
-78,-95,-17,87,-30,-56,103,79,348,-14,-79,-98
-53,-71,-18,62,-17,-44,123,93,358,-16,-78,-94
-71,-56,15,63,-43,-20,125,89,353,-13,-70,-99
-70,-62,8,65,-38,-27,129,90,357,-8,-67,-100
-68,-50,18,59,-43,-15,130,92,354,0,-61,-95
-103,-49,55,76,-79,3,147,115,355,5,-54,-90
-102,-41,61,71,-82,10,164,132,355,13,-50,-87
-94,-36,57,65,-75,10,185,150,353,27,-44,-81
-101,-22,78,61,-89,28,224,184,367,57,-46,-78
-92,20,112,36,-102,66,243,201,366,90,-43,-74
-86,33,118,26,-102,75,211,159,346,96,-40,-72
-69,26,95,21,-82,60,171,108,335,94,-40,-69
-91,14,105,38,-99,59,137,74,325,96,-38,-66
-122,-10,112,66,-117,51,66,46,314,94,-34,-64
-64,34,98,15,-81,65,-6,29,293,96,-30,-61
-48,44,91,2,-70,67,-44,12,272,90,-30,-58
-56,24,79,16,-68,51,-57,1,253,80,-22,-55
-41,14,55,13,-49,34,-50,-14,215,69,-35,-53
-20,5,25,7,-23,15,-44,-23,182,48,-53,-48
-1,8,9,-4,-5,8,-39,-40,168,27,-63,-57
5,-12,-17,4,11,-15,-30,-61,155,11,-84,-71
11,-37,-48,13,30,-42,-21,-69,139,-5,-89,-70
6,-62,-68,29,37,-65,-7,-67,122,-12,-100,-73
28,-41,-69,7,49,-54,6,-59,117,-18,-100,-76
26,-35,-61,5,44,-48,21,-49,121,-24,-101,-72
9,-50,-58,20,34,-54,29,-42,119,-21,-115,-67
19,-53,-72,17,46,-62,38,-28,125,-11,-105,-58
8,-52,-60,22,35,-56,62,-8,125,-2,-95,-54
-38,-48,-11,43,-13,-29,90,14,127,6,-85,-44
-28,-45,-17,37,-5,-31,126,63,173,33,-68,-43
-22,-19,3,20,-12,-8,131,76,189,51,-49,-53
-50,21,71,14,-61,46,159,100,207,68,-27,-46
-18,61,79,-22,-49,70,203,153,257,97,-15,-34
-27,68,95,-21,-61,82,210,153,260,109,-8,-25
-49,66,115,-9,-82,90,201,127,249,120,1,-19
-46,54,99,-5,-73,76,147,80,236,119,7,-16
-29,73,102,-22,-66,87,99,53,234,127,18,-13
3,97,94,-50,-46,95,42,39,227,137,35,-7
-9,80,88,-36,-49,84,-28,28,225,131,34,-7
-30,77,107,-23,-69,91,-43,10,219,127,25,3
-11,74,85,-31,-49,79,-38,0,206,126,21,17
19,82,63,-50,-22,72,-40,23,210,133,10,-6
25,80,55,-53,-15,67,-35,76,257,138,35,-8
34,103,69,-68,-18,85,-33,117,342,159,91,36
139,215,76,-177,32,145,-46,158,459,244,202,131
224,392,168,-308,27,280,-51,219,645,395,420,325
101,505,404,-303,-151,454,-47,66,484,459,519,484
-120,475,595,-177,-358,535,35,-67,189,420,439,496
-327,468,796,-71,-562,632,85,-133,79,410,373,453
-403,362,765,21,-584,563,131,-82,46,355,234,286
-319,132,451,94,-385,291,311,295,272,230,48,32
-261,34,295,113,-278,164,435,515,410,177,-33,-97
-236,11,248,112,-242,129,463,544,441,172,-51,-109
-189,-7,182,98,-185,87,432,537,439,154,-50,-88
-138,-8,130,73,-134,60,370,417,308,128,-48,-84
-55,29,84,13,-70,57,274,229,223,97,-45,-86
-24,37,61,-7,-42,49,194,94,162,84,-45,-84
-42,5,47,19,-45,26,159,42,121,73,-47,-85
-20,-16,4,18,-12,-6,97,-11,81,62,-51,-85
-13,-17,-4,16,-4,-11,64,-44,56,53,-49,-80
-28,-2,26,15,-27,12,25,-66,47,42,-54,-76
5,4,0,-4,3,2,-27,-82,38,32,-56,-71
22,-13,-35,-4,29,-24,-49,-90,34,23,-54,-69
23,-34,-57,6,41,-45,-43,-114,0,0,-89,-100
38,-41,-79,1,59,-60,-34,-127,-32,-27,-104,-115
31,-76,-107,23,69,-91,-26,-137,-52,-45,-105,-116
33,-95,-128,31,81,-111,-22,-135,-72,-61,-111,-121
49,-136,-185,44,117,-160,-25,-145,-93,-82,-127,-132
84,-157,-241,37,163,-199,-26,-178,-124,-110,-169,-160
96,-136,-232,20,165,-184,-29,-195,-157,-136,-180,-170
80,-164,-244,43,162,-204,-30,-225,-184,-157,-182,-168
110,-174,-284,33,197,-229,-46,-242,-204,-166,-195,-163
149,-167,-317,9,233,-242,-59,-254,-235,-183,-196,-155
156,-160,-316,2,237,-238,-53,-275,-257,-192,-189,-149
169,-160,-329,-5,249,-244,-57,-287,-269,-189,-179,-143
206,-133,-339,-36,273,-236,-65,-286,-281,-183,-174,-128
201,-101,-302,-50,252,-201,-62,-283,-271,-173,-158,-97
188,-86,-274,-51,231,-180,-47,-271,-251,-156,-127,-64
186,-22,-208,-82,197,-114,-28,-249,-238,-110,-79,-33
155,31,-124,-93,139,-46,-2,-250,-231,-69,-42,-8
119,41,-78,-80,99,-18,12,-254,-224,-47,-32,3
61,30,-31,-45,46,0,-3,-256,-218,-41,-19,9
25,42,17,-33,4,29,-19,-245,-210,-29,-7,16
25,63,38,-44,-7,50,-60,-235,-200,0,4,22
47,54,8,-51,19,31,-106,-218,-176,6,18,30
29,52,23,-40,3,37,-108,-198,-160,5,26,25
-10,47,57,-19,-33,52,-96,-177,-139,4,27,15
-12,41,53,-15,-33,47,-92,-158,-135,17,19,7
-17,41,58,-13,-37,49,-74,-132,-118,38,22,-2
-25,32,57,-4,-41,44,-33,-69,-79,20,10,-9
-40,24,64,8,-52,44,1,-5,-39,31,38,12
-12,41,53,-14,-33,47,18,70,71,83,108,52
110,144,34,-127,38,89,26,119,184,147,205,133
295,196,-99,-246,197,48,10,262,421,186,290,194
243,206,-37,-224,140,84,13,292,404,166,250,179
-43,242,285,-100,-164,263,108,113,50,158,164,168
-223,71,294,76,-259,183,194,94,-36,91,8,6
-310,-76,234,192,-272,79,290,258,82,46,-83,-154
-294,-73,221,183,-257,74,412,557,292,84,-31,-115
-235,-74,160,154,-197,43,449,689,381,90,5,-76
-238,-43,195,140,-216,76,466,674,349,90,30,-37
-211,-14,197,112,-204,91,456,672,323,80,33,-12
-151,42,193,54,-172,118,397,558,219,75,50,6
-113,72,185,20,-149,129,290,346,101,64,59,27
-77,48,125,14,-101,86,149,77,-43,34,52,23
-63,42,105,10,-85,73,70,-39,-102,19,50,27
-80,25,105,27,-92,64,33,-54,-102,13,44,22
-62,36,98,12,-80,67,-22,-81,-114,9,41,37
-46,61,107,-8,-77,84,-99,-99,-123,2,35,50
-30,39,70,-5,-50,54,-134,-121,-142,-2,38,39
-23,17,41,3,-32,29,-132,-130,-161,-9,31,32
-22,9,31,6,-26,19,-137,-148,-191,-17,24,23
7,12,5,-9,1,8,-133,-158,-211,-29,17,20
19,8,-11,-13,15,-1,-137,-176,-239,-46,9,19
20,-11,-31,-4,25,-20,-140,-190,-254,-52,3,21
0,-30,-30,15,15,-30,-140,-204,-272,-65,-1,17
20,-27,-48,4,34,-37,-140,-238,-300,-83,0,26
38,-21,-59,-9,49,-40,-140,-270,-325,-97,0,46
55,-17,-71,-19,63,-44,-144,-291,-351,-101,0,45
96,-9,-105,-43,101,-57,-152,-314,-377,-99,0,44
103,-6,-110,-48,107,-58,-156,-331,-396,-100,1,48
112,6,-106,-59,109,-50,-154,-329,-389,-100,9,52
119,17,-101,-68,110,-42,-150,-332,-382,-99,17,66
173,52,-121,-112,147,-34,-147,-325,-377,-88,26,77
194,78,-116,-136,154,-18,-143,-294,-367,-75,32,74
140,68,-71,-104,105,-2,-110,-235,-331,-65,43,79
92,64,-28,-78,59,18,-78,-190,-296,-56,54,85
72,87,15,-79,28,50,-67,-185,-285,-47,55,80
92,93,0,-93,46,46,-55,-177,-268,-39,55,75
67,71,4,-69,31,38,-49,-172,-267,-30,59,69
17,58,41,-38,-12,49,-46,-163,-252,-20,61,64
-2,43,45,-21,-24,44,-42,-160,-224,-11,60,58
-15,30,46,-8,-31,38,-39,-148,-205,-4,72,56
-26,17,43,4,-35,30,-35,-140,-197,-1,74,51
-41,7,48,16,-45,27,-29,-113,-179,10,77,52
-31,-6,24,18,-27,9,-3,-56,-149,2,73,44
-10,-19,-9,15,0,-14,38,7,-111,5,77,44
13,19,6,-16,3,12,38,69,-17,56,132,81
100,121,21,-111,39,71,12,165,118,132,233,150
297,201,-96,-249,196,52,6,312,362,165,330,231
312,209,-102,-261,207,53,-20,252,275,143,285,230
-4,196,200,-96,-102,198,58,143,-75,141,198,208
-207,81,288,63,-248,184,188,162,-72,93,92,84
-236,-73,164,154,-200,45,294,345,85,48,-26,-90
-247,-109,138,178,-193,15,426,652,265,52,-11,-85
-239,-100,138,169,-188,19,456,699,298,42,20,-56
-232,-90,143,161,-187,27,484,683,234,39,36,-38
-192,-55,137,123,-165,41,484,662,200,33,47,-6
-151,-19,133,84,-142,57,425,541,99,26,45,10
-85,16,101,34,-93,58,354,371,10,12,52,35
-37,37,74,0,-56,55,233,139,-104,-3,49,40
-35,35,70,0,-53,52,153,37,-155,-10,50,35
-28,35,63,-4,-46,49,82,-15,-179,-19,45,33
-19,35,54,-8,-37,45,24,-51,-206,-23,45,28
-18,34,52,-8,-35,42,-53,-69,-205,-33,45,25
-2,26,28,-12,-15,26,-107,-95,-214,-36,34,29
16,15,-2,-16,9,6,-111,-103,-227,-48,26,26
3,0,-3,-1,3,-1,-144,-137,-263,-70,17,17
12,-39,-51,14,32,-45,-141,-142,-276,-78,8,11
19,-61,-80,21,50,-71,-131,-165,-307,-101,0,3
32,-53,-85,11,58,-68,-127,-179,-330,-112,-10,-5
51,-49,-100,-1,76,-75,-117,-185,-335,-124,-18,-8
64,-43,-107,-10,86,-74,-90,-212,-359,-139,-27,-6
84,-36,-120,-24,102,-78,-72,-237,-382,-146,-37,-2
67,-45,-112,-11,90,-78,-87,-272,-412,-160,-47,0
80,-67,-147,-6,114,-106,-82,-287,-428,-162,-44,4
107,-81,-188,-13,148,-135,-103,-305,-442,-164,-39,5
104,-71,-175,-16,140,-123,-133,-306,-443,-155,-36,10
122,-46,-168,-38,146,-107,-124,-289,-432,-146,-28,20
131,-29,-160,-51,146,-94,-121,-275,-420,-139,-17,30
128,-7,-135,-61,132,-71,-111,-245,-395,-127,-4,40
114,20,-94,-67,104,-37,-77,-194,-362,-108,4,49
68,20,-47,-44,57,-13,-34,-127,-314,-68,21,63
63,43,-20,-53,41,11,1,-101,-267,-53,48,66
78,54,-24,-66,51,15,-3,-113,-249,-54,56,54
63,30,-33,-46,48,-2,-20,-115,-244,-46,55,46
35,22,-12,-28,23,5,-22,-107,-234,-42,55,45
1,18,17,-10,-8,17,-62,-101,-228,-36,54,50
-16,17,32,-1,-25,24,-115,-94,-217,-39,60,48
3,12,10,-8,-4,11,-119,-88,-200,-40,58,42
8,12,5,-10,2,8,-110,-79,-194,-42,50,39
-30,2,32,13,-31,17,-106,-57,-191,-46,45,33
-22,-8,15,15,-18,3,-85,-40,-185,-45,37,30
-20,-22,-2,21,-9,-12,-58,-29,-176,-55,31,23
-40,-36,4,39,-22,-16,-43,-16,-167,-64,26,16
-1,-33,-33,17,16,-33,-34,1,-159,-65,25,9
1,-48,-50,24,26,-49,-9,24,-147,-65,25,1
-26,-46,-20,36,-2,-33,15,48,-136,-65,20,-7
-29,-38,-9,34,-10,-23,30,55,-122,-66,20,-8
-41,-35,6,38,-23,-14,34,69,-108,-63,21,-2
-34,-24,9,29,-21,-7,48,97,-95,-58,25,3
-42,-18,24,30,-33,3,70,104,-80,-52,25,6
-29,-5,23,17,-26,9,81,116,-66,-48,29,11
-27,-23,3,25,-15,-10,110,151,-54,-41,41,16
-84,-49,35,66,-59,-7,120,160,-41,-36,44,2
-83,-13,71,48,-77,29,147,178,-32,-46,52,-7
-58,52,110,3,-84,81,187,211,-35,-35,64,8
-59,65,124,-3,-92,94,178,194,-40,-23,65,22
-57,46,103,5,-80,75,148,148,-43,-26,65,30
-45,52,97,-4,-71,74,102,120,-46,-24,65,31
-36,57,93,-11,-65,74,56,114,-50,-26,64,35
-20,69,88,-24,-55,78,7,98,-53,-24,58,33
-4,79,83,-38,-44,81,-59,65,-57,-28,52,26
-13,67,80,-27,-47,73,-91,50,-59,-29,46,22
7,58,51,-33,-22,54,-85,47,-66,-32,41,15
10,44,34,-27,-12,39,-75,45,-93,-56,37,10
-7,15,22,-4,-15,18,-65,38,-103,-68,32,5
-14,-2,12,8,-13,5,-53,52,-99,-69,30,0
-28,3,32,12,-30,17,-41,67,-100,-73,25,-5
-42,-16,26,29,-34,5,-30,64,-99,-75,22,-10
-48,-31,18,39,-33,-6,-20,66,-100,-79,18,-14
-17,-12,5,14,-11,-3,-11,63,-100,-80,15,-19
-26,-18,8,22,-17,-5,3,80,-97,-76,15,-18
-37,-32,5,34,-21,-13,19,96,-91,-69,15,-13
-37,-22,15,29,-25,-4,38,98,-88,-62,15,-11
-47,-8,39,28,-43,15,51,98,-84,-56,14,-6
-33,14,47,9,-40,31,73,116,-68,-49,27,-3
-53,29,82,12,-68,55,96,141,-52,-40,37,1
-57,22,79,17,-69,51,127,155,-34,-30,34,7
-40,59,99,-10,-69,79,173,193,-27,-23,44,16
-32,85,117,-27,-75,101,190,199,-13,-26,46,26
-33,73,106,-20,-70,89,169,158,-20,-23,43,26
-34,66,100,-16,-67,83,101,121,-53,-30,41,27
-26,56,83,-15,-55,69,37,75,-56,-35,38,21
30,100,71,-65,-21,85,-43,-3,-73,-10,64,45
146,193,47,-169,49,120,-248,-244,-184,-3,143,133
278,320,42,-300,118,181,-445,-618,-444,18,232,265
392,323,-69,-357,230,127,-556,-928,-764,-47,217,338
385,260,-126,-322,255,67,-594,-967,-882,-136,130,298
287,232,-56,-259,171,88,-445,-587,-633,-121,54,211
142,54,-88,-98,115,-17,-226,-216,-349,-144,-24,44
14,-36,-50,11,33,-43,-68,-33,-198,-138,-62,-61
-28,-36,-8,32,-9,-22,10,96,-95,-106,-61,-56
-66,-80,-14,73,-26,-47,36,113,-83,-108,-53,-62
-78,-44,34,61,-56,-5,66,123,-77,-98,-44,-61
-73,-28,45,50,-59,8,87,135,-66,-96,-38,-60
-90,-44,47,66,-68,1,102,143,-52,-88,-30,-60
-79,-37,42,57,-60,2,117,152,-39,-83,-25,-57
-87,-29,58,57,-72,14,131,156,-35,-80,-19,-55
-86,-16,70,51,-77,27,138,165,-22,-72,-15,-55
-80,-9,71,45,-76,31,157,185,-20,-74,-7,-49
-82,8,90,37,-86,48,180,206,1,-53,-5,-34
-45,44,89,0,-67,66,191,238,34,-32,6,-30
-70,61,132,4,-101,96,193,257,28,-31,19,-30
-91,60,150,15,-120,104,184,217,12,-39,-3,-28
-78,60,138,9,-108,99,164,165,-4,-60,-13,-24
-80,61,141,9,-110,101,115,126,-19,-61,-9,-25
-75,58,134,8,-105,95,49,103,-28,-62,-8,-28
-64,59,123,2,-93,91,5,89,-33,-67,-4,-31
-45,35,80,5,-63,57,-36,72,-39,-65,-8,-34
-27,27,54,0,-41,40,-66,56,-66,-76,-17,-37
-22,1,22,10,-22,11,-58,40,-81,-79,-22,-39
-14,-54,-40,34,13,-47,-47,35,-108,-103,-38,-42
15,-38,-53,12,34,-45,-37,33,-127,-138,-63,-45
-17,-52,-35,35,9,-43,-30,30,-133,-140,-66,-45
-35,-66,-30,51,-2,-48,-27,26,-150,-142,-77,-48
8,-48,-56,20,32,-52,-23,25,-148,-151,-84,-50
12,-48,-60,18,36,-54,-20,28,-153,-152,-90,-51
17,-39,-57,11,37,-47,-16,32,-159,-156,-104,-45
45,-34,-79,-5,62,-56,-13,28,-159,-171,-107,-43
43,-32,-75,-5,59,-53,-2,33,-149,-171,-102,-34
42,-24,-67,-9,55,-45,7,23,-157,-160,-111,-43
38,-24,-62,-7,50,-43,39,23,-165,-149,-126,-61
38,-16,-54,-11,46,-34,69,72,-121,-126,-109,-34
36,-12,-48,-12,42,-30,74,93,-101,-109,-104,-23
15,-25,-40,6,27,-33,111,128,-77,-86,-95,-27
22,36,14,-29,4,25,150,185,-30,-63,-61,-24
17,72,55,-45,-19,64,154,194,0,-56,-55,-26
12,61,49,-37,-19,55,138,153,-4,-51,-52,-25
-9,67,76,-29,-43,71,104,97,-34,-46,-50,-22
-23,58,80,-18,-52,69,65,68,-36,-40,-47,-20
-4,62,66,-29,-35,64,13,54,-33,-36,-44,-20
-3,55,58,-26,-31,57,-55,42,-32,-39,-50,-16
0,45,45,-23,-23,45,-87,36,-27,-44,-55,-14
-20,9,29,5,-25,19,-77,31,-45,-46,-66,-17
-8,-18,-11,13,2,-14,-65,29,-58,-61,-69,-27
14,-18,-32,2,23,-24,-55,24,-63,-81,-76,-40
2,-51,-53,25,28,-52,-47,20,-71,-97,-94,-49
16,-57,-73,21,45,-65,-39,22,-68,-99,-101,-57
16,-48,-64,17,40,-56,-25,29,-64,-92,-107,-59
17,-44,-61,14,39,-52,-12,36,-61,-89,-110,-55
19,-30,-50,6,35,-40,7,37,-57,-84,-112,-55
-6,-45,-39,26,17,-42,32,48,-53,-79,-115,-55
-26,-57,-32,42,3,-44,43,58,-51,-76,-111,-55
-37,-54,-17,46,-9,-36,49,68,-46,-73,-104,-55
-31,-45,-15,38,-8,-29,60,78,-46,-68,-98,-50
-54,-35,19,44,-37,-8,77,91,-34,-67,-91,-43
-51,-19,32,35,-41,6,102,112,-11,-58,-84,-33
-22,-12,9,17,-15,-1,127,131,2,-35,-78,-28
-13,6,19,3,-16,12,135,139,19,-15,-57,-15
71,82,11,-77,30,46,56,-13,-46,-18,-27,13
238,205,-34,-221,136,85,-114,-341,-238,-2,46,125
379,266,-113,-322,246,76,-293,-725,-565,-27,66,218
414,255,-158,-334,286,48,-435,-958,-834,-131,-7,206
394,266,-128,-329,261,68,-459,-754,-711,-151,-62,187
255,157,-97,-206,176,30,-348,-377,-386,-141,-132,51
105,33,-72,-69,88,-19,-202,-134,-167,-119,-158,-78
34,10,-24,-22,29,-7,-110,16,-56,-72,-134,-78
-17,4,21,6,-19,12,-66,62,-14,-69,-136,-81
-24,-2,22,13,-23,9,-31,82,0,-60,-134,-80
-69,-60,9,64,-39,-25,-4,94,4,-54,-135,-79
-88,-89,-1,88,-43,-44,22,94,9,-50,-135,-81
-88,-81,7,85,-47,-37,24,96,8,-50,-134,-86
-91,-70,21,80,-56,-24,32,94,4,-48,-131,-87
-61,-67,-7,64,-27,-37,66,102,5,-44,-130,-80
-31,-51,-19,41,-6,-35,84,107,5,-46,-129,-79
-28,-34,-5,31,-11,-19,92,115,13,-40,-124,-74
-58,-60,-2,59,-28,-30,102,118,19,-32,-125,-71
-71,-42,29,56,-50,-7,114,126,30,-26,-123,-67
-91,-34,57,62,-74,11,117,135,37,-19,-115,-59
-98,-42,56,69,-77,7,141,159,56,-8,-109,-51
-77,-29,48,53,-62,9,173,184,81,5,-102,-42
-59,3,62,28,-60,32,192,205,100,17,-97,-37
-66,41,107,12,-87,74,219,242,111,39,-99,-39
-75,38,112,18,-94,75,205,220,91,46,-100,-40
-68,30,99,19,-84,64,158,159,76,45,-101,-40
-66,25,91,20,-79,57,115,115,60,43,-105,-40
-62,17,80,22,-71,48,68,72,43,40,-105,-41
-59,10,69,24,-64,40,-5,54,29,39,-107,-37
-4,35,39,-15,-22,37,-65,36,6,27,-115,-35
37,55,18,-46,9,36,-67,8,-10,8,-119,-35
17,9,-8,-13,13,1,-58,-3,-35,-17,-129,-32
17,-39,-56,11,37,-47,-53,-14,-62,-28,-130,-29
22,-45,-67,12,45,-56,-46,-26,-79,-33,-130,-30
24,-46,-70,11,47,-57,-40,-25,-90,-51,-155,-57
59,-41,-101,-9,80,-71,-31,-20,-85,-53,-158,-68
58,-39,-97,-9,78,-68,-16,-12,-77,-45,-148,-63
41,-42,-83,0,62,-62,3,-7,-71,-40,-143,-76
41,-36,-78,-2,59,-57,26,1,-64,-35,-136,-82
2,-51,-54,25,28,-52,54,25,-52,-28,-129,-78
4,-56,-59,26,32,-57,60,25,-42,-18,-138,-76
2,-57,-59,28,31,-57,81,47,-16,-3,-138,-69
-21,-31,-10,26,-5,-20,100,73,29,16,-106,-47
-11,-6,5,9,-8,-1,118,85,54,44,-96,-33
-4,-11,-8,8,2,-9,129,114,72,63,-89,-28
-18,-5,12,11,-15,4,148,124,84,62,-75,-20
-35,10,46,12,-40,28,183,156,103,77,-69,-15
-3,59,62,-29,-33,61,183,137,100,85,-45,-6
42,60,18,-52,12,39,124,-11,28,76,-33,-2
144,98,-47,-121,95,25,-73,-259,-91,73,8,57
243,223,-20,-233,131,101,-285,-680,-415,65,85,187
326,361,35,-344,145,198,-487,-1095,-792,63,160,330
443,368,-75,-406,259,146,-617,-1071,-781,36,154,372
472,255,-217,-363,344,19,-593,-744,-545,-31,31,276
389,173,-215,-281,302,-21,-449,-435,-299,-60,-49,151
206,14,-192,-109,199,-89,-223,-151,-90,-42,-120,-4
35,-61,-96,13,66,-78,-60,38,52,-4,-122,-82
-32,-41,-9,37,-11,-25,17,118,127,43,-74,-71
-38,-48,-10,43,-14,-29,56,144,135,61,-84,-77
-40,-39,1,39,-20,-19,81,163,163,60,-73,-74
-55,-36,19,45,-36,-9,89,167,167,59,-75,-75
-60,-36,25,48,-42,-5,113,164,163,56,-69,-75
-97,-64,33,80,-65,-15,126,165,167,54,-74,-69
-122,-48,74,85,-98,13,138,169,165,59,-86,-64
-103,-25,78,63,-90,26,165,194,184,73,-77,-58
-77,-22,55,49,-66,17,163,200,181,63,-75,-53
-69,-12,57,40,-63,23,189,218,201,79,-67,-47
-94,-2,92,48,-93,45,212,253,233,101,-63,-43
-114,-8,106,61,-110,49,234,275,246,98,-57,-39
-93,2,95,45,-94,49,275,321,284,124,-47,-37
-73,61,134,6,-103,97,299,351,309,141,-34,-34
-78,73,151,2,-115,111,305,336,309,156,-19,-31
-69,68,137,0,-103,102,280,308,307,161,-8,-29
-82,72,153,5,-118,112,239,278,302,153,-1,-26
-89,68,158,10,-123,113,180,259,299,153,4,-25
-76,71,147,2,-112,109,107,243,295,146,9,-24
-66,62,129,2,-98,95,60,227,291,145,15,-20
-53,54,107,-1,-80,80,58,211,279,134,19,-20
-40,45,85,-3,-63,65,67,194,253,116,14,-18
-13,37,49,-12,-31,43,64,173,221,100,5,-13
2,32,30,-17,-14,31,68,148,187,73,-2,-10
8,24,16,-16,-4,19,71,117,162,57,-13,-7
20,20,0,-20,9,10,69,91,138,51,-22,-2
2,8,7,-5,-3,8,74,77,108,44,-33,0
-3,3,6,0,-5,5,81,73,98,37,-41,-7
6,-8,-14,1,10,-11,97,71,101,27,-40,-14
9,-18,-27,5,18,-22,118,65,96,36,-40,-21
8,-12,-19,2,14,-15,134,69,96,52,-37,-29
-64,-28,36,46,-50,4,160,81,94,53,-34,-36
-55,-24,31,40,-43,3,171,98,103,56,-36,-38
-41,-28,13,34,-27,-7,170,112,132,65,-27,-30
-96,-22,74,58,-85,26,179,125,141,75,-18,-26
-70,22,93,24,-82,57,210,163,164,86,-4,-7
-56,53,109,2,-83,81,228,189,188,91,22,17
-34,74,108,-20,-71,90,211,174,180,90,36,20
-41,67,108,-14,-75,87,192,132,177,90,34,20
-60,65,125,-3,-93,95,139,93,172,85,37,20
-47,64,111,-8,-79,87,87,69,167,85,40,20
-46,57,103,-6,-75,80,47,57,164,84,40,20
-23,70,92,-24,-58,81,-14,50,156,75,38,15
-35,52,88,-9,-62,70,-48,40,149,65,31,10
-33,50,83,-9,-58,66,-54,35,142,55,24,5
-14,67,80,-27,-47,73,-54,32,137,43,18,1
-16,43,58,-14,-37,50,-43,28,132,28,11,-4
-18,10,28,4,-23,18,-30,26,130,15,5,-5
-44,-20,25,32,-34,2,-18,19,125,9,2,-5
-52,-26,25,38,-38,0,-2,23,122,10,-2,-5
-38,-16,22,27,-30,2,9,29,119,10,-5,-5
-32,-14,19,23,-25,2,20,25,109,10,-10,-5
-31,-8,23,19,-27,7,28,32,113,10,-8,-5
-30,-7,23,18,-26,8,36,41,119,6,-1,-1
-63,-2,62,32,-62,30,61,54,129,-1,4,2
-100,0,100,50,-100,50,73,61,136,-4,9,6
-76,17,93,29,-84,55,76,81,157,5,15,9
-54,42,96,6,-75,68,91,91,172,11,20,14
-59,37,95,11,-77,65,120,109,176,27,27,29
-27,67,94,-20,-61,80,157,151,204,45,41,41
-10,90,100,-40,-55,95,174,143,209,46,46,41
-22,77,98,-28,-60,87,158,117,201,45,45,38
-36,68,104,-16,-70,86,103,80,194,43,45,36
-43,61,104,-10,-74,83,42,52,187,39,46,32
-21,84,105,-32,-63,94,6,43,178,41,49,30
-18,89,107,-36,-62,98,-50,25,173,43,51,28
-1,79,80,-40,-41,80,-84,11,160,46,41,22
56,75,19,-66,18,47,-127,-82,128,45,46,41
162,132,-30,-147,96,51,-272,-323,23,45,128,138
284,244,-40,-264,162,102,-402,-673,-250,44,210,272
362,244,-118,-303,240,63,-497,-981,-580,-42,184,337
383,225,-158,-304,270,33,-540,-1026,-685,-120,108,323
331,200,-131,-266,231,34,-416,-660,-433,-112,38,232
179,30,-149,-105,164,-60,-188,-262,-126,-117,-38,72
1,-83,-84,41,43,-83,-31,-62,50,-111,-60,-36
-38,-71,-33,55,-2,-52,49,80,170,-69,-42,-48
-58,-72,-14,65,-22,-43,104,103,208,-48,-27,-37
-120,-69,52,94,-86,-8,113,108,215,-41,-22,-30
-122,-54,68,88,-94,7,131,128,227,-30,-21,-22
-108,-44,64,76,-86,10,151,147,236,-24,-11,-16
-96,-24,71,60,-83,23,160,164,259,-18,-8,-10
-95,-25,70,60,-82,22,181,175,270,-11,11,-5
-72,-3,69,37,-70,33,215,208,280,-4,20,0
-75,31,106,22,-91,68,233,224,285,3,23,7
-105,24,129,40,-118,76,223,204,269,9,30,9
-100,17,117,42,-109,67,196,143,258,6,25,5
-130,-20,110,75,-120,44,150,108,251,-3,20,5
-110,-26,85,68,-97,29,98,84,244,-9,15,5
-57,4,61,26,-59,32,36,62,238,-17,11,1
-43,2,45,20,-44,24,-9,55,231,-24,7,-4
-36,-8,27,22,-31,9,-29,47,221,-31,2,-9
-44,-16,27,30,-35,5,-25,41,209,-38,-6,-12
-32,-30,3,31,-17,-13,-15,33,198,-45,-13,-18
-15,-68,-53,42,19,-60,-8,26,186,-56,-20,-19
-14,-74,-60,44,23,-67,0,21,170,-69,-28,-15
-3,-64,-61,34,29,-62,5,18,153,-78,-34,-15
-4,-62,-58,33,27,-60,5,15,142,-84,-34,-15
11,-54,-65,22,38,-59,6,13,132,-91,-41,-15
34,-49,-83,8,58,-66,11,9,127,-95,-51,-15
9,-68,-77,29,44,-72,9,13,131,-97,-49,-11
7,-89,-96,42,52,-92,14,21,129,-101,-47,-4
22,-73,-95,25,59,-84,25,31,131,-103,-41,3
39,-80,-120,21,80,-100,35,38,129,-106,-37,9
46,-78,-124,17,85,-101,40,47,130,-98,-33,16
39,-37,-76,-1,58,-56,50,51,144,-83,-27,20
40,-24,-64,-8,52,-44,78,66,155,-70,-23,8
41,-2,-43,-19,42,-22,111,121,207,-35,2,16
49,27,-22,-37,35,2,137,149,246,-9,25,43
54,39,-15,-46,34,12,127,128,240,-5,28,51
52,47,-5,-49,28,21,92,84,238,3,33,53
23,33,10,-28,6,21,75,51,230,9,35,57
14,50,36,-32,-11,43,37,41,226,16,44,60
11,50,39,-31,-14,44,-24,26,219,19,51,57
1,27,26,-15,-13,26,-74,15,215,14,47,53
15,39,23,-27,-4,31,-97,3,226,12,42,50
32,18,-13,-25,22,2,-87,-7,218,3,38,46
50,-1,-50,-24,50,-26,-84,-18,202,-9,33,44
44,-6,-50,-19,47,-28,-74,-23,200,-24,23,27
23,-26,-49,2,36,-38,-48,-14,200,-33,11,11
15,-32,-47,9,31,-39,-32,-6,199,-41,-7,8
-1,-45,-44,24,21,-44,-22,3,201,-58,-18,4
-11,-57,-46,35,18,-51,-14,9,199,-56,-13,1
0,-51,-51,26,26,-51,0,16,203,-46,-12,-5
-3,-48,-45,25,21,-46,9,19,208,-42,-8,-3
-3,-46,-43,25,21,-44,26,28,217,-33,-6,0
-10,-39,-29,25,10,-34,51,44,242,-26,-4,1
-3,-34,-31,19,15,-33,71,68,256,-19,4,4
1,-24,-25,12,14,-24,91,99,264,-13,14,6
-35,-20,16,27,-25,-2,104,107,277,-2,21,8
-15,11,26,2,-21,18,139,136,303,15,32,19
1,47,46,-24,-23,46,157,148,317,30,50,42
-18,25,43,-4,-30,34,147,111,293,30,56,47
2,29,27,-16,-12,28,112,77,279,25,54,44
-6,38,44,-16,-26,41,56,47,277,23,55,46
-11,43,54,-17,-33,49,15,31,273,18,55,44
0,55,54,-28,-27,55,-43,18,270,15,55,46
13,42,29,-27,-8,35,-98,9,265,9,51,41
32,34,2,-33,15,18,-110,6,263,-3,48,34
33,30,-3,-31,18,13,-100,0,255,-14,45,28
23,4,-19,-13,21,-7,-90,-3,250,-25,42,21
-15,-40,-25,28,5,-32,-80,-9,242,-35,38,14
-24,-48,-23,37,0,-35,-72,-7,236,-44,27,8
1,-41,-42,20,22,-41,-67,-4,230,-51,16,5
11,-41,-51,15,31,-46,-61,-1,223,-54,-2,2
6,-37,-43,15,25,-40,-55,4,238,-50,-13,0
4,-33,-36,15,20,-34,-45,4,248,-47,-7,-3
0,-48,-48,24,24,-47,-27,29,240,-45,-5,-6
-3,-58,-55,31,26,-56,-9,52,240,-41,0,-1
-5,-44,-38,25,17,-40,18,49,256,-40,4,6
-5,-38,-32,22,14,-35,35,53,277,-33,6,12
-6,-31,-25,19,9,-28,43,69,284,-18,15,20
-15,-22,-6,19,-4,-14,74,87,293,-6,25,23
0,14,14,-7,-7,14,115,123,320,5,36,19
3,55,52,-29,-25,53,133,138,321,12,37,13
4,54,49,-29,-23,51,117,116,303,11,34,10
7,53,47,-30,-20,50,75,75,292,-6,36,5
18,47,28,-33,-5,37,6,22,298,-12,34,0
20,45,26,-33,-4,35,-21,5,289,-3,49,11
48,58,10,-53,19,34,-102,-79,246,13,71,47
204,130,-74,-167,139,28,-318,-348,128,34,140,141
316,266,-50,-291,183,107,-479,-716,-147,25,232,266
398,264,-134,-331,266,65,-580,-1020,-464,-34,220,316
425,241,-184,-333,305,28,-619,-1040,-560,-117,117,301
325,204,-121,-264,223,41,-484,-666,-305,-144,44,226
198,20,-177,-109,188,-78,-259,-284,-14,-143,-4,61
56,-90,-146,17,101,-117,-92,-86,154,-118,-41,-47
-20,-92,-72,56,26,-82,-22,39,262,-78,-28,-55
-36,-87,-51,61,8,-68,13,59,274,-75,-26,-55
-41,-84,-43,62,2,-63,51,87,285,-72,-32,-55
-46,-79,-33,63,-7,-56,68,93,295,-69,-25,-55
-48,-78,-30,63,-9,-53,75,86,296,-66,-23,-56
-51,-72,-21,62,-15,-46,98,109,317,-64,-20,-50
-39,-62,-23,51,-8,-42,115,118,338,-57,-8,-42
-14,-45,-30,30,8,-37,112,131,340,-42,11,-34
-56,-37,19,46,-37,-9,132,151,343,-33,24,-30
-62,-43,19,52,-40,-12,161,192,360,-29,27,-30
-23,6,30,8,-27,18,176,208,361,-31,24,-27
-50,16,66,16,-58,41,178,188,349,-30,19,-25
-70,-18,52,44,-61,17,139,156,340,-29,17,-25
-89,-38,51,63,-69,6,94,105,331,-43,12,-22
-82,-39,43,60,-62,2,35,58,325,-45,9,-17
-44,-4,40,24,-42,18,-27,43,320,-31,23,-14
-55,-8,47,31,-51,19,-62,36,313,-25,27,-11
-53,-23,30,37,-41,4,-89,17,291,-32,16,-6
-23,-33,-9,28,-7,-21,-91,5,267,-47,8,-6
17,-39,-56,11,37,-48,-86,0,251,-61,0,-12
26,-50,-76,12,51,-62,-84,-5,235,-73,-5,-17
11,-66,-77,28,44,-71,-80,-10,225,-82,-10,-23
15,-70,-85,27,50,-77,-76,-17,215,-91,-16,-29
20,-53,-73,16,47,-63,-65,-19,202,-98,-21,-34
26,-69,-95,21,61,-82,-55,-10,182,-108,-27,-32
27,-96,-123,35,75,-110,-45,-11,174,-116,-39,-29
39,-65,-103,13,71,-84,-36,-28,175,-122,-48,-30
29,-89,-118,30,74,-103,-29,-37,174,-128,-54,-30
38,-92,-130,27,84,-111,-23,-26,175,-125,-51,-31
54,-70,-124,8,89,-96,-12,-12,174,-118,-40,-28
50,-68,-118,9,85,-93,1,6,186,-114,-33,-25
52,-58,-110,4,81,-84,17,28,207,-105,-23,-25
31,-73,-104,21,67,-88,46,58,236,-89,-19,-26
21,-43,-63,11,42,-53,99,118,285,-66,-4,-14
17,-19,-36,1,27,-27,123,156,329,-43,23,7
16,-7,-23,-4,20,-15,109,144,336,-37,31,10
-6,-27,-21,16,8,-23,100,111,330,-32,30,10
23,-25,-48,1,35,-36,66,72,325,-29,30,10
82,32,-51,-57,66,-9,21,48,319,-24,30,10
82,30,-52,-56,66,-11,-26,31,313,-19,25,12
69,12,-56,-40,62,-22,-85,17,309,-37,15,7
57,3,-54,-30,56,-25,-114,4,303,-51,7,-1
34,-34,-68,0,51,-51,-115,-11,296,-56,-2,-8
12,-63,-75,26,44,-69,-114,-16,294,-71,-12,-16
32,-69,-101,19,67,-85,-105,-14,284,-85,-15,-24
45,-84,-130,20,88,-107,-79,0,284,-80,-18,-20
7,-83,-90,38,49,-87,-55,0,275,-76,-22,-26
9,-94,-104,43,57,-99,-37,20,287,-69,-22,-45
91,-94,-185,1,139,-139,-50,-18,288,-64,-27,-39
176,-1,-178,-87,177,-89,-168,-194,235,-57,47,40
313,139,-174,-226,244,-17,-341,-468,107,-8,162,170
419,300,-119,-359,269,90,-465,-848,-195,27,279,342
404,347,-57,-375,230,144,-476,-1000,-401,-2,273,414
302,251,-51,-276,176,99,-395,-757,-327,-70,139,336
125,174,49,-150,38,111,-272,-436,-101,-81,94,265
33,30,-3,-32,18,13,-96,-157,134,-83,17,94
7,-88,-95,41,51,-91,65,74,289,-88,-55,-41
-6,-71,-65,39,30,-68,163,202,408,-51,-50,-50
-4,-68,-64,36,31,-66,194,210,441,-50,-52,-65
-4,-62,-58,33,27,-60,151,163,411,-50,-41,-57
9,-53,-61,22,35,-57,105,131,400,-46,-39,-61
7,-51,-59,22,33,-55,60,111,399,-44,-31,-60
-7,-69,-62,38,28,-65,-2,105,396,-46,-32,-59
-40,-96,-56,68,8,-76,-53,95,395,-49,-40,-67
-23,-97,-74,60,26,-85,-78,87,392,-53,-44,-71
30,-80,-110,25,70,-95,-76,83,382,-73,-55,-79
5,-111,-116,53,61,-113,-63,78,372,-73,-53,-79
-15,-154,-139,84,63,-147,-50,74,363,-92,-75,-81
-7,-145,-139,76,66,-142,-33,69,364,-109,-89,-85
3,-140,-143,69,73,-141,-18,93,365,-106,-85,-94
5,-140,-145,68,76,-143,-5,117,364,-112,-98,-112
-26,-128,-102,78,38,-115,12,119,365,-114,-101,-116
-24,-138,-114,81,45,-126,28,124,364,-115,-99,-115
-6,-170,-165,88,80,-167,49,126,366,-111,-101,-115
-5,-171,-166,88,81,-168,54,124,364,-108,-99,-115
1,-158,-159,78,81,-158,64,140,377,-106,-101,-114
3,-157,-160,77,82,-158,86,161,390,-102,-110,-105
16,-138,-153,61,85,-145,90,160,390,-100,-107,-95
29,-128,-157,50,93,-143,91,158,392,-97,-92,-85
30,-139,-169,54,100,-154,107,182,409,-95,-83,-76
26,-110,-135,42,81,-122,123,199,433,-95,-78,-72
32,-82,-114,26,73,-98,102,174,416,-91,-75,-68
80,-76,-156,-2,118,-116,50,113,360,-89,-72,-62
98,-62,-160,-18,129,-111,9,39,329,-90,-67,-59
76,-59,-135,-8,106,-97,-30,-13,334,-83,-65,-42
74,-53,-127,-10,101,-90,-98,-32,335,-76,-70,-26
65,-51,-116,-7,91,-83,-136,-28,335,-69,-70,-25
70,-48,-119,-11,95,-83,-135,-24,334,-63,-71,-26
81,-42,-123,-19,102,-82,-128,-21,340,-59,-75,-24
49,-74,-123,13,86,-99,-117,-16,347,-62,-75,-27
14,-103,-118,45,66,-110,-99,-14,343,-75,-73,-38
0,-99,-99,49,50,-99,-73,-9,346,-72,-67,-41
29,-100,-130,36,79,-115,-53,-3,343,-65,-62,-39
22,-100,-122,40,72,-111,-39,0,351,-64,-59,-40
4,-99,-104,48,54,-101,-31,5,363,-56,-54,-40
27,-98,-125,36,76,-111,-19,10,369,-58,-49,-39
17,-75,-92,30,55,-84,-15,14,376,-59,-45,-34
17,-65,-82,25,49,-74,-15,27,385,-51,-40,-31
19,-82,-101,32,60,-91,-4,29,396,-39,-35,-28
19,-76,-95,29,57,-85,3,42,402,-31,-31,-23
4,-57,-61,27,33,-59,34,67,426,-38,-26,-20
-8,-40,-32,24,12,-36,56,76,446,-27,-23,-17
-9,-32,-23,21,7,-27,77,100,461,-11,-16,-13
-15,-24,-9,20,-3,-16,129,138,475,-3,-11,-10
-7,-12,-5,10,-1,-8,146,142,476,19,-6,-7
-2,-2,0,2,-1,-1,147,128,481,32,0,-5
14,16,2,-15,6,9,116,99,478,30,4,-2
7,14,7,-11,0,10,42,47,475,30,17,0
23,33,10,-28,6,21,-10,25,472,30,20,4
57,58,0,-57,28,29,-65,19,470,30,13,14
56,52,-4,-54,30,24,-142,2,466,29,9,18
47,43,-4,-45,25,19,-171,7,455,14,2,15
75,35,-40,-55,57,-2,-157,-2,443,-9,-3,10
75,10,-64,-43,69,-26,-151,-30,433,-16,-8,8
16,-35,-51,10,34,-43,-140,-26,434,-15,-14,3
31,-40,-71,5,51,-55,-127,-21,436,-15,-15,0
45,-33,-78,-6,62,-55,-113,-18,434,-15,-15,4
36,-35,-71,0,54,-53,-103,-12,435,-15,-16,5
25,-26,-51,0,38,-38,-89,-9,435,-16,-14,5
18,-39,-58,11,38,-49,-60,-3,436,-22,-16,5
16,-60,-76,23,46,-68,-43,2,445,-27,-13,5
4,-44,-48,20,27,-46,-39,9,442,-35,-18,4
23,-28,-51,3,37,-39,-28,12,452,-25,-31,0
16,-22,-37,3,27,-29,-8,33,475,-2,-19,0
5,-7,-12,1,9,-9,8,47,483,6,-5,0
4,2,-2,-3,3,0,21,57,490,4,5,0
11,21,10,-16,0,15,60,86,509,16,11,10
5,45,39,-25,-17,42,107,117,534,44,25,35
13,66,53,-39,-21,59,118,116,525,50,31,50
34,60,27,-47,3,43,73,65,514,51,28,55
11,30,19,-21,-4,24,-5,19,506,54,21,42
28,66,39,-48,-5,52,-75,-20,490,56,23,44
131,125,-6,-128,68,59,-231,-174,451,66,101,104
267,243,-24,-254,145,109,-456,-511,270,99,201,234
411,355,-56,-383,233,149,-609,-875,-46,76,231,340
475,295,-180,-385,327,57,-706,-1113,-341,-40,165,338
416,251,-165,-333,290,42,-664,-927,-276,-75,75,307
298,130,-167,-214,232,-19,-449,-463,66,-80,-11,153
128,-25,-153,-51,140,-89,-252,-201,288,-94,-72,-3
27,-34,-61,4,45,-48,-123,-41,436,-54,-48,-26
-11,-52,-41,32,16,-46,-59,34,503,-17,-36,-33
-32,-38,-6,35,-13,-22,-40,51,508,-8,-26,-28
-24,-31,-7,28,-8,-19,-16,66,518,-12,-25,-31
-24,-30,-6,27,-9,-18,-3,53,510,-7,-84,-29
-37,-27,10,32,-23,-8,10,75,508,-16,-89,-31
-64,-38,26,51,-45,-6,21,85,519,4,-99,-39
-71,-33,37,52,-54,2,41,84,546,120,-76,-72
-85,-42,43,63,-64,0,51,98,553,234,-92,-114
-108,-39,69,73,-88,15,64,114,553,-32,-69,-110
-115,-40,75,77,-95,17,83,127,569,-325,-97,-102
