I,II,III,aVR,aVL,aVF,V1,V2,V3,V4,V5,V6
466,424,-42,-444,253,191,-345,-990,-502,296,1284,695
38,203,165,-121,-64,184,-314,-1436,-1185,-523,587,381
-206,-62,144,134,-175,41,-417,-1567,-1464,-1016,42,47
-79,-28,51,54,-65,11,-369,-854,-721,-478,201,18
-101,-37,63,68,-82,13,-110,-335,-304,-234,237,-34
-40,-39,1,39,-20,-19,-8,-96,-101,-98,264,-55
-15,-28,-13,22,-1,-20,33,15,-12,-40,282,-55
-48,-51,-3,49,-22,-27,63,43,6,-34,240,-47
-10,-88,-79,49,35,-84,81,96,72,33,256,-29
-33,-68,-36,51,2,-52,109,119,98,55,258,-26
-39,-42,-3,41,-18,-22,91,144,108,79,237,1
9,-62,-71,27,40,-66,87,146,98,65,193,-28
1,-49,-50,24,26,-49,81,160,134,86,153,-30
-13,-46,-33,30,10,-40,75,171,147,97,105,-1
18,-20,-39,1,29,-29,71,182,168,108,80,5
34,-12,-46,-11,40,-29,64,207,193,135,70,21
61,-1,-61,-30,61,-31,59,221,210,161,68,32
83,38,-45,-60,63,-3,53,243,239,187,67,61
97,67,-30,-82,64,18,44,262,270,232,62,93
119,96,-23,-107,71,36,22,274,293,270,70,108
166,137,-29,-151,97,54,-3,298,325,313,114,152
219,195,-24,-207,121,85,-33,304,359,363,161,197
216,228,12,-222,102,120,-48,295,375,406,201,231
213,263,50,-238,81,156,-58,291,373,428,227,267
236,285,50,-260,93,167,-65,278,356,412,215,270
228,266,38,-247,95,151,-55,251,339,413,203,261
218,249,31,-234,93,140,-50,220,314,389,171,241
190,210,20,-200,84,115,-43,190,273,322,98,196
125,138,13,-132,56,75,-35,165,221,249,-11,145
60,64,4,-62,28,34,-25,128,169,174,-119,73
30,25,-5,-27,17,10,3,109,125,131,-178,41
23,10,-12,-16,17,-1,24,94,85,72,-231,27
4,-16,-20,6,12,-17,26,68,44,24,-295,-17
12,-32,-45,10,29,-38,23,61,19,17,-322,-25
-10,-66,-55,38,23,-60,31,50,10,1,-340,-27
-47,-80,-33,64,-7,-56,40,41,2,-7,-368,-22
-35,-77,-42,57,3,-59,35,46,-8,-18,-376,-36
-20,-81,-61,51,21,-71,30,49,-13,-28,-384,-42
-24,-62,-38,43,7,-50,27,51,8,-23,-369,-16
-13,-48,-35,31,11,-41,20,50,24,-13,-359,-28
-9,-32,-24,21,7,-28,22,50,32,-2,-328,-27
-5,-23,-18,14,7,-20,38,73,42,3,-268,-18
0,-25,-25,13,13,-25,43,84,49,10,-197,-17
-20,-25,-6,22,-7,-15,33,73,55,14,1,-5
25,-20,-45,-2,35,-32,28,68,48,34,203,-12
1,-10,-12,5,7,-11,19,59,40,52,339,-30
-22,1,23,10,-22,12,11,53,34,45,449,-28
12,5,-7,-8,9,-1,24,45,23,31,528,-20
-33,-24,8,28,-20,-8,32,34,26,13,605,-19
7,-27,-34,10,20,-30,29,28,36,4,651,-10
36,-4,-40,-15,38,-22,28,16,33,-13,714,-15
-13,-42,-29,28,8,-35,24,14,23,-40,709,-42
-36,-61,-25,49,-5,-43,25,26,16,-40,662,-54
-48,-50,-2,49,-23,-26,21,22,10,-40,649,-54
-20,-47,-27,34,4,-37,17,19,5,-40,616,-53
-26,-38,-13,32,-6,-25,14,16,1,-39,605,-47
-10,-37,-27,24,9,-32,11,10,-5,-41,606,-48
8,-23,-32,8,20,-27,6,10,-6,-38,607,-40
-69,-64,5,67,-37,-29,6,-9,-26,-54,625,-54
-38,-72,-34,56,-2,-53,22,-8,-47,-67,595,-81
-5,-38,-33,22,14,-35,28,8,-45,-57,468,-80
-51,-53,-1,52,-25,-27,21,0,-44,-55,352,-80
-33,-49,-17,41,-8,-33,17,-3,-40,-50,298,-80
-24,-51,-28,38,2,-39,13,-7,-40,-44,248,-80
-71,-59,12,65,-41,-23,7,-13,-38,-62,195,-78
-82,-60,23,71,-53,-18,6,-16,-34,-72,143,-74
-39,-67,-28,54,-5,-47,10,-29,-35,-69,102,-75
-54,-73,-19,64,-17,-46,13,-36,-35,-71,89,-75
-63,-76,-13,70,-24,-45,17,-35,-34,-69,64,-75
-34,-73,-39,54,3,-56,19,-36,-43,-66,48,-76
-39,-69,-30,55,-5,-49,24,-34,-56,-65,-14,-79
-50,-71,-21,61,-14,-46,25,-37,-53,-64,-128,-80
-31,-68,-37,50,3,-53,26,-32,-49,-60,-122,-83
-30,-73,-42,52,6,-57,24,-31,-47,-60,-94,-86
-28,-55,-27,42,0,-41,28,-10,-39,-59,-93,-81
16,-8,-24,-4,20,-16,63,12,-18,-46,-96,-67
-9,-6,2,7,-5,-2,67,23,16,-39,-114,-53
-38,-5,33,21,-36,14,52,60,51,-9,-98,-43
0,36,36,-18,-18,35,50,53,54,18,-85,-32
-10,37,47,-14,-29,42,6,31,36,7,-80,-29
17,18,1,-18,8,9,-41,4,11,-13,-99,-24
77,23,-55,-49,66,-16,-45,-39,-40,-48,-121,-38
17,7,-10,-12,13,-1,-12,-28,-45,-47,-140,-63
18,-5,-23,-6,21,-14,8,-44,-55,-58,-139,-60
4,-56,-60,26,32,-57,4,-59,-85,-99,-138,-73
-62,-101,-39,81,-11,-69,11,-61,-85,-97,-150,-78
-41,-79,-38,61,-1,-58,23,-61,-86,-105,-160,-78
-43,-73,-30,58,-6,-51,26,-56,-86,-111,-179,-100
-56,-82,-26,70,-15,-54,22,-68,-96,-121,-210,-125
-102,-115,-13,109,-44,-64,30,-44,-74,-105,-179,-118
-117,-138,-21,128,-48,-79,18,-65,-97,-101,-180,-119
-95,-125,-30,110,-32,-77,73,48,-21,-96,-229,-134
-143,-100,44,121,-93,-28,141,165,104,-6,-185,-121
53,-32,-85,-11,69,-58,214,597,546,443,103,-12
675,252,-423,-463,549,-85,12,838,1089,1292,1067,568
718,471,-247,-594,482,112,-329,-304,249,931,1203,867
39,224,185,-132,-74,204,-275,-1442,-1169,-543,3,359
-208,-46,161,127,-184,57,-349,-1515,-1392,-954,-470,37
-101,-44,57,72,-78,6,-377,-936,-785,-533,-336,-6
-74,-5,69,39,-71,32,-124,-352,-315,-242,-274,-55
-72,-35,37,53,-54,1,-6,-118,-118,-102,-209,-64
-72,-75,-3,74,-35,-39,32,-1,-21,-76,-214,-74
-48,-65,-18,57,-15,-41,44,44,20,-42,-196,-69
-30,-58,-27,44,-1,-42,59,54,35,-18,-207,-78
-29,-76,-47,53,9,-61,53,68,32,-4,-186,-72
-21,-58,-37,40,8,-47,62,94,69,12,-156,-50
15,-40,-55,13,36,-47,76,117,100,31,-119,-30
12,-44,-56,17,34,-50,60,148,123,50,-52,-18
6,-38,-43,16,25,-40,58,156,130,73,-13,-13
37,-34,-71,-1,54,-52,50,155,135,94,52,6
39,-25,-64,-7,52,-44,47,170,163,92,117,19
39,-19,-57,-10,48,-38,43,172,164,113,145,19
46,-8,-55,-19,51,-31,37,184,183,144,206,38
111,65,-45,-88,78,10,34,218,221,189,273,74
156,113,-44,-134,100,34,19,230,242,224,294,103
133,109,-24,-121,78,42,4,236,267,260,341,132
180,165,-15,-172,97,74,-17,260,303,318,439,179
205,208,3,-206,101,105,-42,259,324,351,501,216
208,226,19,-217,94,122,-56,252,321,366,515,243
254,257,3,-256,125,130,-70,229,307,365,524,245
221,267,46,-244,87,156,-67,200,293,358,524,236
186,266,80,-226,53,173,-56,185,262,332,502,237
119,205,86,-162,16,145,-49,153,217,270,401,204
89,137,48,-113,20,92,-34,124,175,205,236,140
111,119,7,-115,52,63,-12,101,135,152,114,84
13,67,54,-40,-21,61,-2,69,93,91,16,44
13,20,7,-17,3,13,2,42,46,37,-69,-3
36,-10,-46,-12,41,-28,9,23,17,-5,-138,-44
-45,-41,3,43,-24,-19,12,14,3,-41,-186,-45
-37,-35,2,36,-19,-17,31,11,-16,-47,-209,-44
-38,-60,-22,50,-8,-41,42,8,-38,-56,-231,-39
-47,-65,-18,56,-14,-41,39,3,-41,-61,-229,-42
7,-34,-40,14,24,-37,41,0,-35,-53,-231,-74
-14,-62,-47,38,17,-54,39,-1,-31,-49,-236,-65
-28,-58,-29,43,1,-43,40,1,-27,-43,-234,-46
-1,-28,-27,15,13,-27,36,10,-22,-37,-237,-46
-8,-29,-21,18,7,-24,30,13,-13,-37,-227,-37
-2,-21,-19,12,9,-19,25,8,-2,-45,-213,-34
-7,-22,-15,15,4,-18,19,12,7,-41,-200,-26
-16,-25,-9,20,-3,-17,13,26,4,-34,-191,-27
-15,-28,-13,22,-1,-20,11,22,-5,-31,-184,-35
-18,-36,-17,27,0,-26,16,8,-11,-20,-178,-34
-24,-40,-15,32,-4,-27,11,-3,-19,-29,-171,-40
-25,-41,-16,33,-5,-28,10,-10,-26,-49,-170,-50
-2,-35,-33,19,16,-34,9,-10,-33,-47,-169,-45
-21,-38,-17,30,-2,-27,6,-11,-37,-42,-166,-35
-28,-53,-26,41,-1,-39,4,-16,-40,-57,-164,-48
-21,-57,-37,39,9,-47,7,-14,-44,-79,-167,-68
-52,-50,2,51,-27,-23,19,-18,-47,-81,-174,-69
-39,-68,-29,54,-5,-48,21,-34,-53,-83,-178,-66
-23,-73,-50,48,13,-61,14,-36,-56,-87,-170,-65
-15,-47,-31,31,8,-39,14,-33,-61,-89,-172,-64
-44,-75,-31,60,-6,-53,8,-32,-65,-90,-191,-61
-66,-88,-23,77,-21,-55,5,-28,-59,-83,-196,-58
-79,-61,17,70,-48,-22,20,-33,-52,-87,-194,-63
-77,-62,15,70,-46,-24,27,-33,-46,-83,-195,-72
-55,-68,-13,61,-20,-40,24,-39,-38,-87,-205,-77
-67,-62,5,64,-35,-28,25,-38,-40,-83,-211,-72
-63,-68,-5,66,-29,-36,25,-37,-60,-78,-229,-80
-67,-86,-19,77,-24,-52,25,-59,-83,-107,-267,-106
-59,-70,-11,65,-24,-41,20,-59,-84,-109,-272,-102
-54,-70,-16,62,-19,-43,17,-53,-78,-101,-268,-88
-61,-78,-18,69,-21,-48,13,-52,-76,-100,-267,-86
-73,-63,10,68,-41,-27,10,-46,-71,-94,-263,-85
-40,-59,-19,50,-11,-38,3,-43,-69,-96,-267,-83
2,-51,-53,25,28,-52,16,-40,-65,-92,-269,-79
-22,-39,-17,31,-3,-28,32,-37,-60,-89,-270,-80
-67,-58,10,62,-38,-24,29,-35,-58,-91,-270,-85
-58,-88,-30,73,-14,-59,30,-31,-53,-92,-267,-86
-43,-86,-43,65,0,-64,30,-31,-51,-86,-262,-80
-58,-75,-17,67,-21,-46,30,-24,-45,-75,-259,-74
-41,-61,-20,51,-10,-40,34,-2,-35,-68,-256,-69
-26,-34,-8,30,-9,-20,47,-1,-23,-58,-250,-64
-2,-21,-19,11,9,-19,51,35,16,-25,-252,-48
17,14,-2,-15,9,6,35,60,37,3,-254,-37
37,45,8,-41,14,26,-1,25,23,-4,-256,-42
62,29,-33,-45,47,-2,-45,-19,-8,-32,-260,-38
55,-1,-56,-27,56,-29,-48,-61,-45,-65,-279,-42
39,-27,-66,-6,53,-46,-30,-59,-54,-73,-290,-54
17,-33,-51,8,34,-42,-21,-62,-67,-82,-287,-55
-33,-68,-35,51,2,-52,-3,-57,-68,-101,-286,-78
-55,-92,-37,73,-8,-64,1,-67,-74,-107,-284,-93
-65,-106,-41,85,-12,-73,8,-81,-95,-135,-365,-113
-72,-112,-40,93,-16,-76,14,-68,-92,-136,-401,-115
-68,-104,-35,87,-16,-69,15,-73,-100,-134,-449,-114
-49,-104,-55,77,3,-80,30,-48,-81,-121,-462,-113
-69,-134,-65,102,-2,-100,10,-64,-103,-120,-381,-98
-137,-158,-21,148,-58,-89,68,43,-22,-113,-375,-137
-120,-102,18,111,-69,-42,128,134,84,-37,-307,-160
68,-45,-114,-11,91,-79,194,563,512,404,15,-38
680,247,-433,-463,556,-93,5,843,1103,1291,1004,563
779,479,-299,-629,539,90,-367,-306,289,958,1191,869
45,240,195,-143,-75,218,-315,-1464,-1151,-522,15,375
-162,48,210,57,-186,128,-343,-1524,-1391,-953,-455,67
-87,14,101,37,-95,57,-369,-950,-801,-544,-311,4
-148,-10,138,78,-143,64,-136,-372,-332,-268,-264,-55
-72,-10,63,41,-67,26,-35,-149,-142,-138,-208,-73
-51,-51,0,51,-25,-25,23,-18,-40,-97,-187,-85
-67,-63,3,65,-35,-29,53,37,-8,-64,-156,-70
-63,-52,11,57,-36,-21,55,45,14,-45,-160,-71
-15,-45,-30,30,8,-38,56,66,43,-32,-152,-60
-12,-37,-25,25,7,-31,50,100,60,-13,-140,-55
-50,-32,18,41,-34,-7,51,112,76,1,-127,-47
-43,-27,16,34,-30,-5,49,113,89,24,-105,-41
-13,-21,-8,17,-2,-15,44,135,107,38,-67,-30
28,23,-5,-25,17,9,35,142,120,41,-37,-19
35,62,28,-49,3,45,29,158,140,65,-24,-4
69,60,-10,-64,39,25,21,172,157,81,9,18
71,47,-23,-59,47,12,14,180,168,102,52,31
65,82,17,-74,24,50,7,211,209,158,114,72
89,108,19,-98,34,63,-11,236,241,191,157,106
125,116,-9,-120,67,53,-26,254,258,224,212,124
197,187,-10,-192,103,88,-36,265,293,286,283,172
197,221,25,-209,86,123,-54,262,320,323,321,210
224,244,20,-234,102,132,-67,250,312,337,352,224
241,271,31,-256,105,151,-64,247,307,340,358,244
174,254,80,-214,47,167,-63,217,289,342,348,244
150,252,103,-201,23,177,-91,180,250,319,292,220
131,220,89,-176,21,155,-69,177,224,258,222,197
100,169,69,-134,15,118,-25,145,170,184,159,143
80,130,50,-105,15,89,-17,103,114,113,81,73
19,76,57,-48,-19,66,-2,70,68,60,21,33
-19,37,55,-9,-37,46,9,46,27,13,-38,-1
-38,-8,30,22,-34,11,32,38,4,-2,-73,-34
-45,-24,22,34,-33,-1,42,24,-11,-29,-85,-42
-31,-31,-1,31,-15,-16,39,-3,-19,-63,-111,-59
-53,-51,2,52,-27,-25,41,-11,-27,-58,-130,-67
-38,-35,3,36,-20,-16,39,-8,-38,-63,-132,-64
-18,-37,-19,28,1,-28,40,-27,-45,-74,-121,-65
-38,-38,0,38,-19,-19,34,-16,-38,-65,-113,-65
-34,-28,6,31,-20,-11,29,14,-27,-55,-122,-65
-46,-24,22,35,-34,0,24,22,-20,-49,-125,-45
-57,-15,43,36,-50,14,18,8,-10,-46,-120,-62
-28,-10,18,19,-23,4,10,-1,-2,-43,-97,-58
-41,-2,38,21,-39,18,20,15,0,-38,-54,-35
-78,-16,62,47,-70,23,32,22,3,-36,-22,-45
-74,-18,57,46,-65,19,24,19,6,-30,-21,-46
-53,-2,51,27,-52,24,20,14,9,-28,-17,-51
-31,9,40,11,-36,24,17,9,11,-19,-1,-50
-7,21,27,-7,-17,23,10,5,-3,-30,-19,-50
-30,-16,14,23,-22,-1,15,0,-18,-61,-39,-50
-74,-43,31,58,-52,-6,26,-3,-21,-61,-41,-50
-65,-26,40,45,-52,7,25,-10,-35,-58,-39,-49
-35,-36,-2,36,-16,-19,21,-11,-42,-67,-42,-54
-25,-63,-38,45,7,-50,19,-19,-40,-70,-42,-74
-79,-74,6,77,-42,-34,16,-19,-40,-66,-22,-76
-115,-66,49,90,-82,-8,14,-6,-35,-59,-14,-74
-110,-77,33,93,-71,-21,21,-23,-34,-58,-12,-76
-94,-76,19,85,-56,-28,16,-31,-29,-48,-9,-73
-73,-57,16,65,-45,-20,13,-23,-32,-57,-3,-71
-30,-47,-18,38,-6,-32,4,-13,-51,-82,-18,-67
-1,-46,-46,24,23,-46,3,-19,-56,-89,-29,-65
-93,-74,19,83,-56,-27,45,-40,-55,-99,-9,-62
-124,-71,53,97,-88,-9,49,-34,-55,-96,-32,-59
-92,-61,31,76,-61,-14,31,-28,-55,-89,-60,-64
-85,-58,27,71,-55,-15,25,-24,-55,-88,-60,-65
-62,-47,15,54,-38,-16,23,-16,-53,-78,-58,-66
-41,-45,-4,43,-18,-24,26,-18,-45,-92,-54,-80
-47,-32,15,40,-31,-9,28,-27,-41,-107,-53,-86
-75,-50,25,62,-50,-12,30,-37,-61,-104,-47,-88
-72,-71,1,72,-37,-35,23,-36,-72,-105,-45,-92
-92,-59,34,75,-63,-12,20,-33,-68,-105,-56,-95
-72,-55,17,64,-44,-19,15,-31,-74,-105,-116,-91
-42,-47,-5,45,-18,-25,10,-27,-74,-102,-153,-84
-69,-37,31,53,-50,-3,14,-26,-77,-98,-178,-78
-49,-29,20,39,-34,-4,23,-21,-64,-94,-241,-71
-45,-15,30,30,-37,7,31,-8,-31,-80,-235,-64
-59,-8,51,33,-55,21,52,14,-18,-67,-255,-59
-12,35,47,-12,-30,40,65,49,1,-54,-317,-50
8,40,33,-24,-13,36,14,34,9,-56,-347,-40
13,30,18,-22,-3,24,-38,4,-3,-48,-371,-30
15,25,10,-20,3,17,-59,-27,-41,-59,-409,-31
-3,-24,-20,14,9,-22,-51,-64,-66,-101,-457,-54
-1,-31,-31,16,15,-31,-18,-69,-62,-105,-458,-46
-23,-44,-22,34,0,-33,-13,-73,-93,-105,-489,-58
-52,-72,-20,62,-16,-46,-6,-62,-93,-96,-517,-92
-74,-92,-19,83,-27,-56,-5,-68,-98,-126,-504,-97
-79,-108,-29,94,-25,-68,4,-48,-92,-134,-452,-103
-66,-113,-47,89,-9,-80,1,-68,-100,-129,-363,-93
-80,-115,-35,97,-22,-74,12,-68,-112,-155,-317,-101
-88,-93,-4,91,-42,-49,20,-67,-88,-121,-254,-80
-75,-106,-32,90,-21,-69,41,-25,-58,-135,-287,-117
-85,-106,-21,96,-32,-63,99,94,25,-91,-243,-172
-89,-89,0,89,-45,-44,165,288,239,134,-78,-129
320,79,-241,-200,281,-81,144,806,938,976,698,259
808,463,-345,-635,576,59,-201,395,943,1573,1720,900
335,467,132,-402,101,300,-333,-924,-520,312,960,744
-209,139,348,35,-279,243,-271,-1508,-1511,-1014,-231,137
-142,28,170,57,-156,99,-368,-1239,-1196,-841,-235,-41
-118,26,145,46,-132,85,-236,-627,-573,-393,-35,-61
-83,7,91,38,-87,49,-56,-222,-231,-199,112,-74
-78,-25,53,51,-65,14,11,-69,-88,-112,179,-71
-96,-52,44,74,-70,-4,38,0,-32,-73,189,-65
-83,-49,34,66,-58,-7,45,43,-3,-28,190,-58
-75,-50,25,63,-50,-12,68,67,33,-11,168,-55
-28,-45,-17,37,-5,-31,72,68,47,5,184,-48
-1,-45,-44,23,22,-44,68,87,44,10,212,-41
1,-44,-45,22,24,-45,61,104,74,36,270,-30
13,-30,-42,9,28,-36,55,104,106,42,309,-20
34,-17,-51,-8,43,-34,47,111,111,62,303,-9
35,-11,-46,-12,41,-29,39,149,132,108,293,5
46,-1,-47,-22,46,-24,31,158,157,122,287,14
53,14,-39,-33,46,-12,24,160,167,140,277,34
79,26,-54,-52,66,-14,16,167,186,164,278,51
100,53,-48,-76,74,3,9,193,222,214,337,84
129,112,-17,-120,73,47,2,228,267,282,427,144
155,139,-17,-147,86,61,-9,237,303,322,460,175
162,157,-5,-159,83,76,-42,229,315,358,509,209
198,204,6,-201,95,105,-76,219,321,404,576,236
221,251,29,-236,96,140,-78,215,307,415,592,260
216,283,67,-250,75,175,-82,196,292,406,593,275
218,269,51,-244,83,160,-98,164,275,388,566,244
189,220,31,-205,79,125,-81,146,248,343,515,207
99,165,65,-132,17,115,-48,137,222,288,435,161
98,136,38,-118,30,87,-27,115,161,215,313,108
87,73,-14,-80,50,29,-8,84,111,136,213,58
25,26,0,-25,12,13,7,69,78,82,143,15
-8,4,12,2,-10,8,12,59,30,35,92,-25
-51,-47,4,49,-27,-21,9,42,6,-12,72,-58
-53,-67,-14,60,-19,-40,29,30,1,-12,76,-61
-51,-84,-32,68,-9,-58,43,25,-9,-21,74,-58
-41,-78,-37,60,-1,-57,38,23,-17,-54,74,-56
-43,-65,-23,54,-10,-44,41,20,-28,-51,77,-53
-47,-61,-14,54,-16,-37,39,16,-37,-44,66,-60
-9,-38,-29,24,10,-33,41,16,-30,-38,95,-62
-32,-53,-21,42,-5,-37,39,10,-14,-31,112,-53
-49,-61,-12,55,-18,-36,34,15,-3,-25,122,-46
2,-28,-30,13,17,-28,36,31,8,-20,142,-42
-25,-19,6,22,-15,-7,32,27,17,-17,145,-36
-45,-11,34,27,-39,11,30,21,16,-13,167,-33
-13,-29,-16,21,2,-22,30,18,11,-11,170,-28
-48,-50,-2,49,-22,-26,27,11,9,-3,189,-22
-75,-44,31,59,-53,-6,24,11,3,-12,193,-36
-26,-38,-12,32,-7,-25,21,20,3,-16,172,-39
18,-34,-52,9,35,-43,18,22,-14,-29,161,-34
11,-26,-37,8,24,-31,15,13,-27,-53,133,-28
-7,-27,-20,18,7,-24,14,8,-19,-49,106,-26
-37,-66,-29,52,-4,-47,10,1,-36,-50,89,-54
-27,-52,-25,39,-1,-38,10,-6,-50,-50,79,-62
-11,-47,-36,29,13,-41,10,-11,-46,-55,62,-59
-38,-69,-31,54,-3,-50,9,-24,-57,-77,46,-57
-73,-67,7,70,-40,-30,21,-30,-66,-86,30,-54
-115,-84,31,99,-73,-26,33,-30,-61,-85,19,-56
-70,-66,4,68,-37,-31,19,-30,-57,-85,12,-53
-23,-60,-37,42,7,-49,20,-30,-54,-86,2,-65
-53,-76,-23,65,-14,-49,50,-30,-48,-83,-5,-77
-31,-71,-40,52,4,-55,55,-29,-58,-98,-23,-77
-67,-72,-5,69,-31,-38,45,-23,-65,-112,-29,-69
-71,-64,7,68,-39,-28,43,-14,-66,-109,-23,-87
-28,-76,-47,52,10,-61,35,-36,-69,-115,-9,-79
-76,-85,-9,81,-33,-47,32,-47,-70,-115,-15,-63
-86,-80,6,83,-46,-37,27,-37,-81,-112,-44,-89
-41,-75,-35,58,-3,-55,25,-36,-76,-109,-47,-89
-51,-75,-24,63,-13,-49,38,-29,-62,-106,-37,-83
-85,-65,20,75,-52,-23,45,-26,-54,-103,-46,-82
-68,-67,1,67,-34,-33,40,-21,-66,-100,-53,-74
-74,-101,-26,88,-23,-63,33,-17,-76,-102,-53,-77
-20,-71,-51,46,16,-60,34,-12,-66,-105,-68,-79
-17,-58,-41,37,12,-49,14,-9,-64,-112,-61,-81
-64,-69,-5,67,-29,-37,29,-1,-47,-96,-43,-74
-59,-40,19,49,-39,-11,77,16,-18,-64,-30,-57
-66,-9,57,37,-62,24,66,37,1,-41,-14,-47
-38,25,63,6,-50,44,34,41,15,-38,-10,-27
-5,28,34,-12,-20,31,-3,-6,7,-50,-2,-42
41,5,-36,-23,39,-15,-36,-38,-34,-67,5,-62
-5,-28,-23,17,9,-25,-37,-25,-55,-82,8,-59
-48,-40,8,43,-28,-16,-22,-34,-54,-87,2,-65
-15,-51,-35,33,11,-43,-15,-72,-87,-108,-27,-63
-46,-88,-41,67,-2,-64,-5,-72,-99,-101,-31,-83
-57,-120,-64,89,4,-92,-7,-79,-107,-116,-37,-90
-91,-129,-39,110,-26,-84,5,-71,-90,-147,-66,-95
-122,-115,7,118,-64,-54,27,-78,-92,-130,-68,-93
-88,-117,-29,103,-29,-73,39,-75,-110,-139,-104,-92
-72,-113,-42,93,-15,-77,30,-64,-93,-124,-97,-85
-96,-115,-20,106,-37,-67,27,-65,-99,-131,-102,-88
-112,-120,-8,116,-52,-64,96,70,-9,-118,-144,-134
-101,-91,10,96,-55,-40,148,186,109,-3,-112,-142
122,10,-113,-66,117,-51,215,712,718,609,341,69
699,329,-370,-514,534,-21,-52,716,1154,1492,1370,675
618,465,-153,-542,385,156,-388,-658,-51,776,1180,820
-49,155,204,-53,-127,179,-371,-1609,-1424,-772,-79,292
-168,-30,138,98,-152,53,-463,-1431,-1354,-938,-402,38
-118,-25,93,72,-105,33,-368,-784,-686,-474,-299,-8
-128,-47,81,87,-104,17,-108,-300,-300,-244,-274,-57
-106,-32,75,69,-90,21,-32,-104,-119,-147,-233,-67
-91,-53,38,72,-64,-8,15,-18,-46,-120,-229,-81
-55,-85,-30,70,-12,-57,36,19,-24,-78,-205,-66
-46,-73,-27,60,-9,-50,43,68,23,-71,-211,-64
-14,-66,-52,40,19,-58,40,70,39,-53,-213,-63
-34,-56,-22,46,-6,-39,38,100,42,-28,-206,-65
-27,-50,-23,38,-2,-36,46,108,57,1,-178,-64
-5,-42,-37,23,17,-39,55,107,91,24,-170,-33
-29,-37,-7,33,-11,-22,54,134,102,31,-161,-10
7,-25,-32,9,20,-28,49,145,124,61,-148,-5
27,-14,-41,-6,35,-28,48,149,153,81,-129,1
41,2,-39,-21,40,-18,45,174,158,95,-97,8
66,41,-24,-53,44,9,42,211,197,135,-54,54
86,61,-25,-73,55,17,30,215,221,166,-34,77
117,90,-27,-103,72,31,16,249,249,218,-7,93
99,138,39,-119,30,88,1,293,305,289,51,143
157,206,49,-182,54,127,-44,282,331,337,77,172
210,248,38,-229,85,143,-68,273,335,369,101,212
232,252,20,-242,105,136,-79,263,328,381,113,242
238,273,35,-255,101,154,-104,252,325,380,110,241
189,264,74,-227,57,169,-96,247,319,379,104,239
153,218,65,-186,43,141,-83,226,294,354,67,219
117,199,82,-159,17,140,-52,193,242,278,-2,181
90,165,75,-128,8,120,-16,158,181,197,-83,115
30,76,45,-53,-8,60,2,108,121,116,-138,45
14,29,15,-22,-1,22,32,69,57,40,-182,5
14,-24,-38,5,26,-30,41,40,15,-11,-216,-24
-36,-41,-5,38,-15,-22,41,15,-3,-27,-227,-43
-58,-30,27,44,-42,-1,58,22,-9,-38,-234,-49
-37,-76,-39,57,1,-58,61,9,-16,-73,-237,-61
-42,-63,-21,53,-10,-42,56,-7,-24,-80,-233,-68
-59,-65,-6,62,-27,-35,55,-5,-32,-82,-231,-74
-45,-66,-21,56,-12,-43,50,-12,-33,-83,-227,-80
-36,-33,3,34,-20,-14,50,-7,-24,-71,-225,-80
-75,-56,19,65,-47,-18,46,1,-18,-66,-223,-80
-66,-58,8,62,-37,-24,41,8,-11,-57,-216,-80
-55,-45,10,50,-32,-17,40,29,-5,-51,-215,-78
-86,-38,48,61,-67,5,33,37,0,-50,-216,-70
-38,-14,24,26,-31,4,33,31,2,-45,-214,-65
-50,-26,24,38,-37,-1,22,29,12,-45,-216,-57
-59,-42,17,50,-37,-12,31,24,21,-38,-213,-51
-36,-47,-11,42,-13,-29,56,20,15,-43,-223,-45
-103,-32,71,67,-87,20,44,18,12,-45,-251,-36
-67,-21,46,44,-56,12,37,7,6,-42,-266,-41
-1,-45,-43,23,21,-44,29,-2,-7,-59,-283,-51
-38,-38,0,38,-19,-18,21,-12,-21,-63,-308,-66
-43,-30,13,36,-28,-8,14,-27,-48,-87,-328,-55
-39,-45,-6,42,-16,-25,5,-30,-62,-103,-296,-55
-61,-67,-6,64,-28,-36,34,-24,-59,-98,-239,-81
-104,-78,25,91,-64,-26,47,-15,-61,-102,-221,-59
-116,-76,40,96,-78,-17,36,-28,-59,-99,-216,-48
-70,-81,-11,76,-30,-46,32,-49,-61,-101,-205,-63
-54,-80,-26,67,-14,-53,23,-50,-59,-99,-198,-69
-54,-70,-16,62,-18,-43,23,-55,-62,-104,-189,-67
-52,-70,-18,62,-17,-43,27,-52,-80,-111,-180,-77
-15,-50,-35,32,11,-42,32,-48,-86,-109,-169,-79
-48,-41,7,45,-28,-17,35,-47,-84,-110,-134,-56
-111,-49,61,80,-86,6,31,-43,-86,-110,-120,-70
-55,-35,21,45,-38,-7,26,-40,-84,-110,-120,-97
-48,-68,-21,58,-13,-44,23,-40,-86,-108,-81,-100
-85,-80,5,83,-45,-38,20,-50,-89,-104,-45,-100
-109,-70,39,89,-74,-15,14,-59,-92,-106,-34,-104
-82,-79,3,80,-42,-38,22,-61,-95,-104,-35,-105
-57,-79,-22,68,-17,-50,31,-64,-93,-106,-35,-104
-81,-82,0,81,-40,-41,25,-66,-86,-104,-28,-98
-98,-88,10,93,-54,-38,20,-71,-81,-99,-30,-92
-106,-75,31,91,-68,-22,18,-69,-77,-115,-21,-88
-66,-46,20,56,-42,-13,9,-61,-69,-118,-34,-81
-64,-51,12,57,-38,-19,17,-54,-68,-109,-56,-77
-66,-41,25,53,-45,-8,37,-42,-51,-95,-31,-70
-15,4,19,5,-17,11,53,-22,-36,-69,29,-60
-34,20,54,7,-44,37,63,28,-5,-43,86,-55
-15,26,41,-6,-28,33,33,46,30,-29,66,-53
28,51,24,-40,2,37,-10,14,-11,-30,33,-50
19,29,10,-24,4,20,-38,-25,-42,-37,21,-46
49,4,-45,-26,47,-20,-47,-67,-60,-59,-21,-46
39,1,-39,-20,39,-19,-34,-62,-75,-74,-47,-40
-1,-26,-26,14,13,-26,-35,-75,-87,-88,-65,-47
-40,-60,-20,50,-10,-40,-16,-89,-105,-100,-105,-71
-69,-74,-5,72,-32,-39,3,-88,-106,-109,-109,-75
-68,-75,-7,71,-30,-40,6,-84,-103,-128,-126,-91
-66,-98,-31,82,-17,-64,8,-77,-115,-118,-120,-98
-67,-103,-35,85,-16,-69,15,-82,-123,-117,-88,-106
-83,-111,-29,97,-27,-70,24,-61,-98,-111,-60,-108
-85,-107,-22,96,-31,-64,17,-70,-114,-106,-25,-98
-96,-117,-20,107,-38,-68,73,37,-42,-101,-65,-131
-110,-102,8,107,-58,-47,121,136,51,-27,-36,-138
65,2,-64,-33,65,-31,199,593,528,413,264,-23
639,254,-384,-446,511,-65,16,831,1107,1303,1235,516
768,461,-307,-614,537,77,-354,-354,248,1018,1482,849
97,210,114,-154,-9,162,-372,-1533,-1240,-528,308,387
-214,-49,165,131,-189,57,-441,-1586,-1476,-995,-182,50
-137,-53,84,95,-110,15,-416,-952,-816,-533,-24,23
-85,-28,57,56,-71,14,-146,-358,-342,-259,20,-32
-53,-8,45,30,-49,18,-35,-119,-148,-122,87,-51
-95,-54,41,74,-68,-7,13,-5,-55,-91,74,-56
-68,-69,-1,69,-33,-35,21,25,-26,-65,74,-45
-43,-61,-19,53,-12,-40,32,67,1,-42,78,-46
-37,-69,-32,53,-2,-50,45,89,26,-24,89,-37
-26,-61,-35,44,5,-48,34,84,41,-1,69,-37
-63,-69,-6,66,-28,-37,55,111,61,23,49,-55
-36,-49,-13,43,-11,-31,63,141,94,53,44,-46
31,-22,-53,-4,42,-37,44,139,97,52,27,-39
-11,-18,-7,15,-2,-12,35,149,120,66,28,-4
-23,-7,15,15,-19,4,33,176,142,91,17,15
57,16,-42,-36,49,-13,25,194,166,102,18,-5
99,66,-34,-82,66,16,21,211,205,132,56,41
87,75,-11,-81,48,32,14,216,215,164,80,66
78,80,1,-79,38,40,12,246,250,215,122,99
165,137,-28,-151,96,54,3,275,280,258,164,149
198,171,-27,-184,112,72,-29,280,309,296,208,169
147,226,78,-187,34,152,-41,287,343,370,269,233
147,247,100,-197,23,173,-63,283,334,384,288,254
161,239,78,-201,42,158,-83,255,330,369,312,258
213,299,85,-256,64,192,-88,220,323,366,300,276
210,282,73,-246,68,177,-90,192,300,344,248,258
149,210,61,-180,44,135,-59,169,260,307,182,210
116,168,52,-142,32,110,-41,143,198,225,77,131
71,116,45,-94,13,80,-32,107,130,133,-18,65
48,65,17,-57,16,41,-19,75,81,77,-78,28
22,30,8,-26,7,18,-12,53,59,29,-92,4
-33,-6,27,19,-30,10,-2,33,28,-10,-92,-24
-33,-38,-5,36,-13,-22,6,21,-4,-28,-123,-41
-29,-63,-34,46,3,-48,14,9,-20,-39,-137,-39
-85,-82,3,83,-44,-39,25,-1,-34,-41,-132,-40
-66,-80,-13,73,-26,-46,36,-15,-40,-64,-140,-40
-24,-75,-51,50,14,-63,35,-24,-42,-73,-147,-39
-67,-76,-9,72,-28,-42,34,-13,-29,-58,-172,-53
-84,-69,14,76,-49,-27,30,3,-14,-51,-184,-52
-75,-55,20,65,-48,-18,29,13,-6,-40,-172,-45
-87,-50,37,68,-62,-7,33,34,8,-32,-170,-50
-86,-60,26,73,-56,-17,30,54,17,-26,-171,-49
-51,-43,8,47,-29,-18,31,48,13,-19,-167,-52
-17,-23,-6,20,-5,-14,28,40,5,-13,-128,-55
-50,-45,5,48,-27,-20,37,34,0,-6,-92,-56
-89,-59,31,74,-60,-14,51,25,-8,-11,-83,-52
-70,-45,25,57,-48,-10,46,20,-13,-37,-69,-50
-47,-42,6,44,-26,-18,43,14,-13,-56,-63,-50
-21,-27,-6,24,-7,-16,40,11,-7,-55,-55,-50
-42,-40,3,41,-22,-18,35,8,-6,-55,-49,-50
-82,-50,32,66,-57,-9,33,2,-13,-56,-43,-49
-37,-15,22,26,-30,4,29,2,-17,-53,-33,-67
-17,-41,-25,29,4,-33,30,-13,-35,-66,-59,-77
-58,-68,-11,63,-24,-39,30,-35,-52,-84,-78,-74
-114,-74,40,94,-77,-17,30,-35,-53,-81,-74,-75
-54,-45,9,50,-31,-18,30,-35,-55,-80,-73,-75
1,-10,-11,4,6,-10,24,-35,-57,-80,-69,-75
-74,-41,33,57,-53,-4,22,-34,-60,-80,-71,-71
-68,-56,12,62,-40,-21,14,-36,-60,-80,-66,-66
-52,-72,-20,62,-16,-46,24,-40,-59,-81,-65,-63
-47,-64,-17,56,-14,-41,50,-43,-61,-86,-65,-60
-76,-71,5,73,-40,-33,47,-47,-59,-89,-60,-54
-97,-87,10,92,-53,-39,40,-50,-60,-94,-60,-65
-37,-76,-39,56,2,-57,37,-46,-69,-95,-59,-75
-11,-47,-36,29,13,-41,29,-44,-70,-95,-54,-59
-7,-35,-28,21,11,-31,26,-41,-72,-95,-48,-71
-38,-63,-25,51,-6,-44,29,-38,-76,-95,-45,-96
-87,-74,13,80,-50,-30,30,-35,-78,-95,-40,-94
-96,-72,24,84,-60,-24,32,-34,-81,-95,-35,-91
-82,-65,18,73,-50,-23,36,-41,-85,-95,-32,-88
-57,-82,-25,69,-15,-53,35,-32,-85,-96,-27,-85
-55,-60,-5,58,-25,-33,34,-24,-68,-89,-25,-84
-43,-23,20,33,-31,-2,45,-10,-35,-66,-8,-71
17,2,-15,-10,16,-6,68,4,-23,-53,10,-55
-5,18,24,-7,-15,21,71,34,-4,-32,38,-56
-39,27,66,6,-53,46,43,69,35,-17,69,-61
0,36,36,-18,-18,36,-3,19,8,-46,63,-59
28,20,-8,-24,18,6,-50,-31,-30,-66,55,-61
7,5,-3,-6,5,1,-45,-45,-52,-65,50,-59
0,-16,-15,8,8,-15,-27,-48,-75,-85,25,-62
-10,-40,-30,26,10,-35,-32,-68,-92,-103,14,-58
-64,-87,-23,76,-21,-55,1,-75,-101,-99,0,-65
-73,-98,-25,86,-24,-61,10,-75,-104,-110,-22,-92
-51,-100,-49,76,-1,-74,7,-76,-110,-137,-54,-109
-37,-100,-62,68,13,-81,2,-79,-119,-149,-63,-104
-38,-100,-62,69,12,-81,1,-94,-131,-142,-71,-103
-29,-96,-67,63,20,-82,28,-68,-108,-111,-73,-118
-60,-91,-31,76,-14,-61,6,-101,-129,-136,-60,-111
-122,-123,-1,123,-60,-61,69,19,-44,-137,-89,-135
-119,-76,43,98,-81,-17,124,137,65,-37,-69,-145
62,-18,-81,-22,72,-50,198,547,477,370,206,-39
633,232,-401,-433,517,-84,30,854,1078,1227,1153,491
757,457,-300,-607,528,79,-343,-251,317,989,1404,857
88,217,130,-153,-21,173,-308,-1468,-1161,-490,246,402
-176,9,185,83,-181,97,-376,-1587,-1460,-993,-291,45
-90,-2,88,46,-89,43,-403,-987,-846,-559,-123,9
-109,-29,81,69,-95,26,-152,-387,-360,-266,-50,-38
-73,-48,24,60,-48,-12,-50,-140,-163,-130,3,-46
-65,-60,5,62,-35,-28,2,-17,-67,-86,12,-62
-29,-39,-10,34,-10,-24,22,16,-28,-54,31,-57
-55,-44,11,50,-33,-17,49,66,6,-20,49,-53
-129,-86,43,107,-85,-21,58,82,22,-2,87,-48
-105,-77,28,90,-66,-24,46,100,45,5,83,-40
-70,-50,20,59,-45,-15,51,128,63,14,98,-38
-20,-42,-22,31,1,-31,39,118,82,33,110,-33
24,-27,-51,2,37,-39,43,137,97,49,111,-32
25,-18,-43,-3,34,-30,48,155,116,68,166,-27
34,4,-30,-19,32,-13,41,164,147,85,169,4
55,46,-10,-50,32,18,32,178,161,117,175,37
41,21,-20,-30,30,1,23,202,176,144,233,46
74,49,-25,-62,49,12,14,219,202,162,285,80
128,113,-14,-120,71,49,-1,228,234,202,341,106
128,118,-10,-123,69,54,-16,249,263,260,418,129
173,170,-2,-171,87,84,-45,254,288,304,477,181
199,215,16,-207,91,115,-71,243,309,334,505,209
203,264,62,-234,70,163,-70,236,334,378,564,239
202,272,70,-237,66,171,-79,225,331,382,609,267
180,255,75,-218,52,165,-85,214,302,367,597,274
179,256,77,-218,51,166,-77,192,276,342,584,255
207,226,20,-217,93,123,-68,173,227,281,529,197
138,162,24,-150,57,93,-48,149,175,210,443,146
35,76,40,-56,-3,58,-24,111,135,127,361,95
22,50,29,-36,-4,39,-2,81,95,81,291,46
-21,7,28,7,-24,18,8,58,56,53,245,5
-44,-36,8,39,-25,-14,13,43,24,7,209,-24
-47,-33,14,40,-31,-9,18,29,4,-32,205,-42
-68,-55,13,61,-41,-21,22,14,-7,-46,201,-55
-79,-79,0,79,-40,-39,26,2,-24,-47,199,-58
-63,-69,-6,66,-29,-37,25,-11,-38,-68,196,-63
-29,-57,-28,43,0,-42,25,-22,-33,-78,195,-64
-75,-54,21,64,-48,-16,25,-15,-25,-57,231,-58
-74,-44,30,59,-52,-7,25,1,-20,-41,205,-52
-32,-40,-8,36,-12,-24,25,10,-12,-37,149,-47
-53,-33,20,43,-36,-7,25,10,-6,-31,105,-41
-40,-29,11,34,-25,-9,25,11,0,-29,44,-36
-53,-24,29,38,-41,3,25,21,9,-21,12,-38
-56,-14,42,35,-49,13,25,19,14,-23,-22,-41
-59,-32,27,45,-42,-2,25,14,8,-38,-42,-40
-71,-43,28,57,-49,-7,30,12,0,-41,-40,-40
-52,-34,18,43,-35,-8,30,7,-5,-40,-40,-40
-27,-26,1,27,-13,-13,31,5,-13,-40,-40,-40
-37,-36,1,36,-18,-17,35,0,-18,-40,-41,-41
-104,-51,53,77,-78,2,35,-5,-27,-40,-38,-38
-63,-52,11,57,-37,-20,32,-9,-40,-60,-54,-46
-64,-64,0,64,-32,-32,30,-14,-45,-80,-67,-57
-102,-66,36,84,-69,-15,27,-19,-49,-82,-65,-54
-35,-50,-15,43,-10,-33,24,-23,-51,-84,-62,-55
-30,-44,-14,37,-7,-29,21,-25,-57,-88,-61,-55
-95,-47,48,71,-71,1,19,-25,-47,-90,-57,-55
-84,-48,37,66,-60,-6,33,-20,-50,-88,-67,-59
-24,-71,-47,48,12,-59,42,-20,-71,-77,-90,-60
-92,-80,11,86,-51,-34,39,-19,-65,-67,-86,-60
-84,-66,18,75,-51,-24,40,-26,-60,-83,-81,-60
-3,-65,-62,35,30,-63,40,-48,-57,-92,-78,-60
-38,-53,-15,46,-12,-33,40,-40,-51,-84,-68,-60
-73,-53,20,63,-47,-16,37,-16,-51,-84,-62,-60
-62,-39,23,50,-42,-8,32,-22,-66,-77,-52,-60
-43,-45,-3,44,-20,-24,29,-32,-75,-76,-46,-60
-77,-87,-10,82,-33,-48,26,-28,-65,-74,-50,-57
-73,-85,-12,79,-30,-48,21,-25,-60,-80,-49,-53
-33,-77,-44,55,6,-60,19,-24,-52,-91,-55,-61
-53,-78,-24,66,-14,-51,22,-17,-45,-89,-54,-71
-85,-99,-14,93,-36,-56,20,-29,-57,-91,-58,-70
-86,-81,5,84,-45,-38,21,-35,-61,-90,-61,-70
-63,-41,22,52,-43,-9,18,-34,-60,-91,-67,-71
-67,-36,30,51,-48,-3,25,-22,-61,-85,-87,-67
-24,-20,4,21,-14,-7,40,8,-37,-53,-71,-51
-17,-16,1,17,-9,-7,48,19,-5,-40,-66,-39
-37,2,39,17,-38,20,34,41,24,-39,-70,-28
11,-1,-13,-5,12,-7,-22,18,11,-38,-87,-25
25,20,-5,-22,14,8,-49,-14,-20,-33,-120,-16
22,16,-6,-19,14,5,-55,-30,-42,-41,-153,-20
2,-49,-51,24,27,-50,-49,-55,-73,-80,-218,-48
-7,-38,-30,23,12,-34,-20,-62,-89,-94,-251,-48
-45,-48,-4,47,-21,-26,8,-56,-87,-86,-276,-64
-65,-85,-20,75,-22,-52,22,-55,-92,-101,-315,-81
-65,-132,-67,99,2,-99,12,-79,-132,-140,-371,-102
-49,-127,-78,88,15,-102,10,-62,-121,-140,-370,-113
-59,-94,-34,77,-12,-64,6,-73,-119,-138,-338,-102
-129,-106,23,118,-76,-41,31,-42,-104,-143,-363,-107
-100,-118,-18,109,-41,-67,16,-66,-114,-135,-360,-93
-96,-155,-58,126,-19,-106,39,-11,-83,-147,-421,-131
-89,-116,-28,103,-30,-72,97,103,23,-86,-427,-154
-46,-75,-28,60,-9,-51,173,346,294,185,-264,-94
397,103,-294,-250,346,-95,137,861,1022,1101,615,351
823,441,-382,-632,602,30,-265,220,788,1470,1412,910
264,397,132,-331,66,264,-350,-1098,-734,55,417,642
-230,74,304,77,-268,189,-288,-1548,-1533,-1036,-634,117
-147,-28,119,87,-133,45,-383,-1192,-1113,-758,-608,-23
-118,-17,100,67,-109,41,-191,-547,-498,-350,-509,-52
-116,-52,64,84,-90,5,-45,-199,-207,-181,-450,-59
-48,-54,-6,51,-21,-30,0,-64,-89,-127,-446,-79
6,-59,-65,27,35,-61,45,4,-45,-85,-446,-77
-28,-78,-50,54,11,-64,49,43,3,-46,-442,-68
-40,-86,-46,64,3,-66,51,61,40,-22,-449,-64
-34,-67,-32,51,-1,-49,51,74,48,-4,-440,-54
-19,-62,-43,41,12,-52,70,108,75,4,-454,-51
20,-61,-81,21,51,-71,64,101,84,15,-462,-42
38,-26,-65,-6,52,-45,57,111,94,26,-454,-36
7,-36,-43,15,25,-39,52,133,111,49,-445,-25
-8,-34,-26,21,9,-29,43,131,114,51,-434,-21
59,4,-55,-32,57,-26,40,155,153,98,-409,-8
54,7,-47,-30,50,-20,30,179,185,144,-388,3
64,38,-27,-51,45,6,25,175,195,161,-326,34
110,90,-20,-100,65,35,5,202,237,218,-262,80
128,127,-1,-127,64,63,-32,219,256,239,-205,114
151,155,4,-153,73,79,-50,214,288,284,-106,162
174,175,1,-175,86,88,-67,208,324,354,-6,191
219,233,14,-226,102,124,-84,201,324,379,76,238
194,248,54,-221,70,151,-92,195,313,378,126,263
193,255,61,-224,65,158,-94,188,300,365,141,247
190,265,75,-228,57,170,-81,175,284,361,135,248
153,217,64,-185,44,140,-70,158,255,329,96,225
128,172,45,-150,41,108,-53,138,208,249,10,154
58,111,53,-85,2,82,-29,107,152,165,-87,85
-2,50,52,-24,-27,50,-7,80,100,93,-151,47
-26,14,40,6,-33,27,8,53,55,35,-204,4
-32,-8,24,20,-28,8,19,27,22,-9,-245,-29
-49,-45,5,47,-27,-20,31,19,-7,-52,-274,-53
-19,-46,-27,33,4,-37,38,16,-27,-67,-295,-79
-10,-22,-12,16,2,-17,35,13,-21,-64,-279,-80
-70,-64,5,67,-37,-29,34,8,-23,-74,-239,-79
-53,-61,-8,57,-23,-34,54,6,-40,-76,-208,-80
-39,-45,-6,42,-16,-25,58,-1,-40,-75,-194,-80
-59,-64,-5,61,-27,-34,47,2,-34,-75,-190,-79
-75,-59,16,66,-45,-21,44,14,-31,-75,-187,-72
-52,-58,-7,55,-22,-32,34,16,-26,-75,-185,-66
-11,-55,-44,33,17,-49,33,26,-16,-67,-180,-60
-96,-55,40,75,-68,-7,33,19,-14,-58,-173,-52
-69,-51,19,60,-44,-16,45,29,5,-47,-165,-48
-28,-42,-14,35,-7,-27,61,50,27,-39,-162,-39
-83,-34,49,58,-66,7,44,39,14,-31,-165,-37
-29,-31,-2,30,-14,-16,33,32,2,-30,-168,-26
-48,-27,20,37,-34,-3,27,24,-2,-22,-173,-33
-85,-24,61,54,-72,18,23,17,-9,-22,-173,-74
-60,-39,21,49,-40,-9,19,15,-23,-60,-186,-74
-77,-60,17,68,-46,-21,14,11,-27,-73,-179,-67
-91,-56,35,73,-63,-10,39,9,-24,-68,-180,-66
-40,-42,-1,41,-19,-22,52,6,-57,-72,-206,-63
-28,-72,-44,50,8,-58,49,5,-70,-68,-214,-68
-85,-85,1,85,-43,-42,49,-6,-59,-77,-231,-60
-96,-76,20,86,-58,-28,44,-26,-77,-98,-238,-84
-79,-83,-4,81,-38,-43,45,-35,-69,-98,-232,-93
-93,-77,15,85,-54,-31,43,-32,-48,-83,-238,-78
-81,-64,17,72,-48,-23,39,-28,-65,-93,-252,-85
-54,-50,4,52,-29,-23,37,-24,-71,-101,-271,-76
-41,-49,-8,45,-17,-28,34,-21,-68,-99,-275,-73
-42,-47,-5,45,-18,-26,31,-18,-64,-104,-248,-67
-61,-40,21,51,-40,-9,30,-29,-60,-105,-211,-60
-79,-68,11,73,-45,-28,34,-36,-57,-100,-167,-83
-113,-81,32,97,-73,-24,37,-35,-53,-95,-128,-92
-73,-70,3,72,-38,-34,40,-33,-80,-92,-101,-86
-33,-68,-36,51,2,-52,43,-29,-92,-84,-56,-84
-66,-55,12,61,-39,-22,45,-31,-89,-91,-8,-81
-88,-72,17,80,-52,-27,45,-25,-91,-121,26,-79
-74,-71,3,72,-38,-34,45,-30,-90,-126,81,-75
-78,-60,18,69,-48,-20,45,-39,-90,-108,145,-75
-94,-59,35,76,-64,-11,46,-31,-74,-111,163,-72
-58,-21,37,39,-47,8,49,-23,-52,-112,160,-70
-26,29,55,-1,-41,42,60,-15,-33,-74,169,-68
14,63,50,-39,-18,56,66,20,-20,-52,174,-62
32,61,29,-46,1,45,39,35,-7,-56,197,-64
-23,52,75,-15,-50,64,2,-5,-7,-59,220,-66
-8,40,48,-16,-28,43,-24,-41,-43,-61,200,-64
42,24,-18,-33,30,3,-32,-56,-79,-80,170,-66
2,24,23,-13,-11,23,-20,-61,-92,-95,142,-65
-29,16,45,6,-37,30,-17,-72,-100,-95,135,-61
-22,-20,2,21,-12,-9,-2,-73,-107,-117,122,-89
-53,-70,-17,62,-18,-44,2,-92,-129,-119,120,-119
-142,-99,43,121,-92,-28,16,-88,-128,-116,150,-128
-124,-92,32,108,-78,-29,18,-95,-133,-137,160,-119
-90,-97,-7,94,-41,-52,8,-97,-137,-146,138,-123
-120,-92,28,106,-74,-32,28,-70,-115,-141,149,-113
-128,-79,48,103,-88,-15,28,-74,-131,-156,142,-118
-137,-106,31,122,-84,-37,76,40,-40,-135,95,-133
-98,-93,6,96,-52,-43,124,139,74,-13,117,-135
96,12,-84,-54,90,-36,191,636,652,599,561,38
659,346,-313,-502,486,17,-65,720,1151,1550,1674,704
613,537,-77,-575,345,230,-413,-544,39,956,1610,911
-49,261,310,-106,-180,285,-359,-1531,-1401,-723,230,317
-159,49,208,54,-183,128,-406,-1453,-1445,-1022,-171,14
-108,39,148,34,-128,93,-361,-844,-764,-517,1,-26
-111,-2,109,56,-110,53,-129,-338,-324,-266,32,-59
-83,-30,53,57,-68,11,-39,-125,-140,-130,89,-57
-33,3,35,15,-34,19,15,-23,-54,-101,83,-92
-64,-44,20,54,-42,-12,44,11,-11,-52,100,-78
-103,-84,19,93,-61,-32,53,49,23,-23,102,-57
-12,-48,-36,30,13,-42,49,60,30,-23,112,-42
-18,-54,-36,36,9,-45,43,85,55,-9,109,-37
-32,-45,-13,39,-10,-28,40,97,76,18,110,-36
-30,-43,-13,37,-8,-28,34,98,77,36,110,-30
-2,-32,-31,17,15,-31,31,113,101,42,111,-30
-21,-13,8,17,-14,-2,35,134,122,66,116,-13
-27,0,27,13,-27,13,32,145,135,83,125,2
45,49,4,-47,20,26,24,162,173,123,148,16
71,63,-8,-67,40,28,18,198,195,154,166,47
90,80,-10,-85,49,35,9,207,222,177,209,72
99,110,11,-104,44,60,7,222,258,222,250,96
117,115,-2,-116,59,57,-19,251,290,277,297,136
184,173,-10,-178,97,81,-41,269,326,338,362,180
195,212,17,-204,89,114,-60,276,351,382,414,228
162,238,76,-200,43,157,-71,263,360,410,431,258
226,272,46,-249,90,159,-74,247,332,401,414,261
229,258,29,-243,100,143,-96,239,291,366,412,255
143,235,92,-189,25,163,-79,220,273,337,382,239
117,183,65,-150,26,124,-57,173,234,272,282,181
101,121,21,-111,40,71,-34,133,168,188,187,111
49,81,32,-66,8,57,1,108,120,120,124,77
10,41,32,-26,-11,36,-7,89,80,49,80,40
15,-15,-30,0,22,-22,-2,63,41,-4,34,-14
-21,-50,-29,36,4,-40,27,33,21,-22,-3,-45
-86,-59,27,72,-56,-16,35,28,4,-44,-9,-46
-52,-45,7,49,-29,-19,35,23,-17,-68,-25,-42
10,-57,-66,24,38,-61,35,19,-40,-83,-47,-42
-48,-91,-42,70,-3,-66,35,14,-50,-92,-51,-37
-92,-86,5,89,-48,-40,36,5,-41,-87,-49,-59
-50,-87,-37,69,-6,-62,32,-13,-37,-86,-51,-81
-45,-81,-35,63,-5,-58,30,-13,-25,-78,-51,-69
-48,-84,-36,67,-6,-60,30,18,0,-57,-49,-43
-103,-95,9,99,-56,-42,31,28,20,-49,-45,-24
-112,-91,21,102,-66,-35,30,22,21,-51,-42,-49
-33,-84,-51,59,9,-67,30,32,19,-47,-38,-58
-27,-71,-44,49,9,-57,42,50,20,-45,-26,-50
-23,-64,-41,44,9,-52,43,49,19,-45,-11,-51
-62,-53,9,57,-35,-22,36,44,21,-48,-1,-44
-80,-61,19,71,-49,-21,29,42,15,-51,6,-46
-35,-80,-45,58,5,-62,27,38,5,-48,9,-43
-47,-80,-33,64,-7,-56,15,33,-6,-55,-18,-40
-49,-80,-32,65,-8,-56,19,26,-19,-69,-37,-39
-79,-80,-1,79,-39,-40,41,19,-22,-71,-34,-43
-99,-86,13,93,-55,-36,35,13,-17,-67,-32,-52
-24,-69,-45,47,11,-57,27,5,-33,-81,-29,-56
-42,-65,-22,53,-9,-43,21,-3,-47,-90,-26,-62
-65,-93,-28,79,-18,-60,11,-9,-44,-90,-25,-69
-34,-78,-44,56,5,-60,7,-17,-45,-89,-40,-68
-43,-72,-29,58,-6,-50,13,-25,-52,-90,-46,-65
-62,-82,-20,73,-21,-51,28,-29,-63,-90,-45,-65
-98,-86,12,92,-55,-37,32,-30,-69,-77,-50,-65
-49,-85,-36,67,-6,-60,26,-32,-67,-107,-57,-65
-19,-73,-54,46,18,-63,22,-31,-64,-120,-70,-65
-24,-72,-48,48,12,-60,15,-27,-65,-97,-68,-68
-8,-58,-50,33,22,-54,11,-25,-61,-96,-69,-73
-17,-68,-51,43,17,-59,4,-21,-59,-94,-99,-75
-56,-100,-44,79,-6,-72,16,-20,-61,-112,-95,-82
-91,-100,-9,96,-41,-54,22,-25,-48,-126,-79,-77
-54,-99,-46,77,-4,-73,2,-34,-65,-129,-97,-84
-98,-100,-2,99,-48,-51,23,-28,-79,-120,-91,-93
-141,-100,41,120,-91,-29,38,-25,-66,-111,-120,-84
-72,-97,-25,84,-23,-61,34,-20,-73,-116,-142,-76
-55,-84,-29,70,-13,-56,35,-15,-77,-114,-129,-65
-88,-61,27,74,-57,-17,35,-29,-81,-116,-156,-74
-51,-40,11,45,-31,-14,40,-7,-57,-87,-143,-61
6,-29,-35,12,21,-32,46,23,-17,-47,-113,-42
-38,-27,11,32,-24,-7,54,33,-10,-45,-117,-45
-44,-19,25,31,-34,3,21,32,-1,-44,-113,-33
-10,-17,-7,14,-1,-12,-7,16,3,-46,-116,-21
-7,-12,-5,9,-1,-8,-38,14,-10,-44,-114,-15
27,3,-25,-15,26,-11,-64,-11,-29,-45,-115,-31
-14,-60,-46,37,17,-53,-42,-48,-61,-76,-143,-31
-69,-92,-24,80,-22,-58,-35,-68,-84,-88,-161,-28
-71,-92,-22,82,-24,-57,-22,-62,-82,-84,-179,-40
-78,-126,-48,102,-15,-87,-17,-73,-97,-106,-198,-67
-86,-128,-42,107,-22,-85,-6,-63,-96,-141,-240,-109
-91,-117,-26,104,-32,-71,10,-57,-84,-137,-238,-86
-62,-113,-51,88,-6,-82,18,-60,-88,-144,-243,-79
-75,-129,-54,102,-10,-92,37,-34,-64,-136,-247,-70
-85,-136,-51,110,-17,-93,28,-75,-83,-143,-236,-75
-62,-119,-57,91,-3,-88,77,38,-25,-136,-281,-123
-135,-99,35,117,-85,-32,129,156,76,-26,-235,-117
49,-11,-60,-19,55,-35,223,643,608,474,98,5
658,265,-393,-461,525,-64,27,823,1158,1394,1070,567
685,415,-270,-550,477,72,-387,-486,158,982,1216,836
28,174,146,-102,-59,160,-421,-1613,-1306,-597,45,360
-151,-17,135,84,-143,59,-490,-1558,-1439,-969,-408,69
-59,-29,30,44,-44,0,-422,-902,-775,-492,-270,9
-87,-57,30,72,-58,-13,-124,-330,-318,-232,-228,-47
-87,-59,28,73,-57,-15,-18,-126,-137,-110,-170,-56
-101,-54,47,77,-74,-4,26,-28,-29,-59,-171,-60
-86,-78,9,82,-47,-34,56,26,-14,-36,-153,-49
-100,-87,13,94,-56,-37,81,74,6,-30,-153,-50
-75,-83,-8,79,-33,-46,74,80,41,-6,-145,-42
-26,-80,-54,54,14,-67,67,96,57,20,-134,-40
4,-64,-68,30,37,-66,65,123,68,43,-147,-34
-20,-71,-51,46,16,-61,54,132,83,44,-154,-32
-20,-43,-23,32,2,-33,61,145,114,48,-141,-19
21,-16,-37,-2,29,-26,66,150,126,75,-125,8
-32,-21,11,26,-21,-5,55,181,158,111,-113,15
-1,18,19,-9,-10,18,41,212,196,140,-96,21
39,17,-22,-28,30,-2,49,211,199,139,-32,41
62,45,-16,-53,39,15,41,229,224,178,78,63
121,108,-13,-115,67,47,24,248,252,227,133,101
113,133,19,-124,47,76,10,270,282,266,160,142
151,179,27,-165,62,103,-17,286,321,328,281,174
197,230,33,-214,82,131,-39,275,346,387,422,229
215,270,55,-243,80,162,-66,270,355,413,509,257
210,271,62,-241,74,166,-83,251,339,403,563,254
200,257,57,-229,71,157,-75,217,318,389,544,256
199,258,59,-229,70,158,-66,188,287,380,498,251
171,214,43,-193,64,128,-59,157,238,305,416,204
128,165,37,-147,45,101,-24,128,187,210,316,126
64,118,54,-91,4,86,6,108,134,159,267,90
60,53,-7,-57,34,23,-2,82,86,79,193,19
66,46,-19,-56,42,13,12,54,45,15,149,-26
-30,6,36,11,-33,21,36,31,13,-13,128,-3
-36,-39,-2,37,-17,-20,48,16,-6,-40,86,-35
3,-48,-51,23,27,-50,52,-5,-30,-47,79,-62
-87,-73,14,80,-50,-29,48,-24,-49,-40,73,-70
-59,-72,-13,66,-23,-43,41,-18,-42,-56,70,-74
5,-75,-79,35,42,-77,34,-8,-34,-65,65,-61
-50,-75,-26,63,-12,-50,27,-2,-26,-54,60,-60
-72,-75,-3,74,-34,-39,24,8,-19,-51,63,-48
-63,-75,-12,69,-25,-43,25,27,-14,-45,66,-49
-62,-76,-14,69,-23,-45,24,36,-8,-38,69,-66
-61,-68,-7,64,-27,-37,26,34,-5,-31,70,-58
-83,-60,23,71,-53,-18,22,36,1,-24,64,-44
-115,-77,38,96,-76,-19,31,36,3,-22,65,-40
-87,-67,20,77,-54,-23,40,33,17,-26,83,-40
-75,-56,18,65,-46,-18,29,27,25,-31,63,-38
-77,-61,15,68,-46,-23,25,24,12,-34,42,-34
-68,-59,9,63,-39,-25,16,18,0,-41,41,-35
-52,-61,-9,56,-21,-35,13,15,-10,-42,35,-39
-19,-59,-40,39,10,-49,4,9,-28,-53,32,-46
-82,-61,21,72,-51,-20,9,3,-44,-70,26,-51
-104,-54,50,79,-77,-2,17,-1,-47,-70,23,-54
-19,-49,-30,35,6,-39,-1,-8,-50,-71,15,-59
-24,-56,-32,41,4,-44,8,-11,-54,-68,11,-60
-37,-49,-12,44,-13,-30,16,-27,-56,-84,-10,-62
-39,-48,-9,44,-15,-28,15,-42,-60,-102,-32,-66
-76,-39,37,57,-56,-1,15,-39,-63,-99,-28,-65
-87,-50,37,68,-62,-6,17,-40,-67,-101,-23,-72
-99,-78,21,88,-60,-28,35,-40,-69,-100,-22,-72
-30,-64,-33,47,2,-48,34,-44,-70,-104,-34,-79
-31,-67,-36,49,3,-51,27,-45,-75,-105,-35,-89
-78,-75,3,77,-40,-36,23,-45,-70,-105,-30,-83
-48,-64,-16,56,-16,-40,16,-45,-65,-110,-29,-76
-74,-61,13,67,-43,-24,12,-45,-62,-110,-22,-76
-42,-50,-8,46,-17,-29,13,-43,-55,-109,-16,-74
-42,-60,-19,51,-12,-39,16,-40,-58,-104,-11,-72
-79,-71,9,75,-44,-31,19,-35,-60,-98,-10,-69
-36,-70,-34,54,-1,-52,21,-33,-62,-95,-20,-71
-53,-69,-16,61,-19,-42,19,-29,-70,-90,-30,-91
-107,-71,35,89,-71,-18,24,-23,-71,-85,-44,-97
-92,-69,24,80,-58,-22,26,-37,-67,-93,-68,-91
-82,-71,11,76,-46,-30,31,-39,-65,-92,-81,-90
-60,-68,-8,65,-26,-38,33,-27,-63,-79,-86,-85
-48,-37,11,43,-29,-13,36,-7,-43,-71,-79,-85
-82,-26,55,54,-68,15,67,5,-22,-61,-84,-75
-3,15,18,-6,-11,16,77,7,-4,-56,-109,-59
6,39,33,-22,-14,35,75,41,31,-51,-113,-48
-7,35,41,-14,-24,38,28,23,40,-47,-110,-40
58,23,-35,-40,46,-6,-41,-28,-11,-44,-130,-36
10,1,-8,-5,9,-4,-53,-33,-38,-38,-143,-39
9,12,3,-10,3,7,-43,-43,-48,-72,-172,-43
-19,-28,-8,24,-5,-18,-31,-71,-83,-110,-204,-49
-79,-65,14,72,-46,-25,-17,-79,-84,-109,-233,-63
-38,-72,-35,55,-1,-53,-2,-71,-80,-115,-279,-81
-51,-103,-52,77,1,-77,4,-78,-105,-132,-294,-104
-68,-120,-52,94,-7,-86,15,-77,-112,-150,-328,-115
-55,-109,-54,82,0,-81,12,-101,-129,-158,-330,-104
-100,-118,-18,109,-41,-67,27,-74,-114,-153,-350,-117
-88,-100,-12,95,-38,-56,23,-79,-113,-140,-374,-102
-85,-116,-31,101,-27,-73,40,-51,-94,-144,-418,-120
-87,-138,-51,113,-18,-94,101,74,4,-112,-460,-132
-51,-65,-14,58,-18,-39,161,253,177,58,-388,-106
259,63,-196,-161,227,-66,204,828,847,767,185,156
798,365,-432,-581,615,-34,-138,502,956,1380,1087,765
515,428,-87,-471,301,170,-353,-924,-399,364,575,730
-124,108,231,8,-178,169,-311,-1646,-1472,-932,-558,190
-152,-31,121,91,-136,44,-456,-1381,-1240,-867,-690,22
-83,-37,46,60,-64,5,-296,-689,-597,-424,-590,-22
-107,-53,54,80,-81,1,-54,-244,-244,-208,-538,-56
-79,-29,50,54,-64,10,2,-68,-94,-123,-521,-52
-71,-54,17,62,-44,-18,38,10,-44,-96,-541,-52
-30,-65,-36,47,3,-50,35,18,-20,-63,-536,-42
2,-58,-59,28,31,-58,53,79,14,-67,-553,-42
-22,-55,-33,39,6,-44,56,92,39,-52,-556,-56
-22,-46,-24,34,2,-35,54,95,62,-29,-561,-53
-26,-45,-19,36,-3,-31,51,105,69,-2,-497,-34
-40,-34,6,37,-23,-14,50,131,93,24,-434,-30
-15,-38,-23,26,5,-30,47,148,95,28,-390,-9
32,-21,-53,-5,42,-37,45,168,132,47,-281,31
35,-13,-49,-11,42,-30,46,180,159,66,-186,36
30,8,-22,-19,26,-6,36,179,154,92,-109,42
35,72,37,-54,-1,54,33,206,204,131,-21,71
59,98,39,-79,10,68,10,209,232,158,54,86
89,121,32,-105,28,76,7,249,254,217,136,121
131,171,40,-151,45,105,5,271,276,268,217,169
202,244,43,-223,79,143,-42,251,309,308,313,210
205,259,54,-233,75,156,-67,244,325,347,378,238
208,273,64,-241,72,168,-68,224,303,369,419,266
222,308,86,-265,68,197,-87,210,298,373,430,274
207,290,84,-249,61,187,-104,187,275,357,412,256
196,273,77,-235,59,174,-85,160,242,322,394,230
123,206,83,-164,19,144,-55,134,195,242,306,168
87,136,48,-112,19,92,-33,107,129,153,233,109
95,99,4,-97,45,51,-19,86,76,89,222,70
3,55,53,-29,-26,54,4,61,39,40,210,18
-50,10,59,20,-55,34,24,39,16,-4,196,-16
-15,-9,6,12,-10,-2,26,17,-7,-37,181,-24
-5,-24,-19,15,7,-21,24,0,-36,-55,179,-36
-34,-44,-10,39,-11,-27,27,-16,-60,-55,180,-43
-5,-24,-20,15,8,-22,40,-39,-74,-60,184,-61
-46,-60,-14,53,-15,-37,37,-32,-56,-88,183,-63
-150,-86,64,117,-107,-10,31,-22,-39,-101,189,-39
-113,-54,59,83,-86,3,27,-30,-39,-88,202,-41
-90,-38,51,64,-70,6,23,-16,-32,-77,221,-46
-61,-24,37,42,-48,6,20,-12,-26,-68,227,-45
-47,-11,36,29,-42,12,29,-4,-21,-57,218,-45
-73,-27,46,49,-59,10,45,25,-16,-48,247,-40
-56,-39,16,47,-36,-11,29,28,-13,-40,252,-40
-79,-19,60,49,-69,20,30,18,-9,-37,237,-40
-57,-6,51,31,-54,22,38,13,-1,-37,234,-42
-32,0,32,16,-32,16,33,5,7,-41,216,-46
-21,9,30,6,-26,19,33,0,6,-43,202,-43
-9,3,11,3,-10,7,29,-5,-4,-45,184,-41
-65,-16,49,41,-57,16,30,-10,-7,-41,170,-37
-50,-9,41,29,-45,16,25,-12,-21,-34,157,-35
-51,-32,19,41,-35,-6,20,-22,-47,-47,155,-35
-85,-44,41,64,-63,-2,15,-30,-52,-62,136,-35
-66,-28,38,47,-52,5,12,-36,-55,-59,84,-45
-81,-47,34,64,-57,-7,5,-48,-59,-59,74,-53
-49,-60,-11,55,-19,-35,8,-54,-61,-70,38,-53
-53,-40,13,47,-32,-14,26,-52,-65,-76,6,-52
-75,-48,28,61,-51,-10,26,-49,-65,-75,9,-48
-55,-62,-7,59,-24,-34,25,-45,-69,-75,-24,-45
-65,-42,23,54,-44,-9,22,-46,-70,-75,-47,-47
