I,II,III,aVR,aVL,aVF,V1,V2,V3,V4,V5,V6
245,45,-200,-145,222,-77,-99,-111,-135,-170,-149,-224
244,44,-200,-144,222,-78,-95,-115,-136,-172,-145,-220
239,40,-200,-139,220,-80,-95,-112,-134,-169,-142,-216
232,35,-197,-133,214,-81,-94,-109,-135,-166,-138,-213
227,33,-194,-130,210,-80,-89,-110,-135,-164,-135,-209
224,28,-196,-126,210,-83,-91,-110,-134,-159,-130,-206
225,24,-201,-125,213,-88,-87,-110,-137,-162,-131,-202
232,32,-201,-132,216,-84,-78,-110,-136,-161,-135,-195
240,52,-188,-145,214,-68,-67,-104,-127,-151,-126,-187
252,88,-164,-170,208,-37,-60,-93,-121,-143,-115,-182
256,103,-153,-179,204,-25,-59,-86,-113,-133,-105,-172
270,112,-157,-191,213,-22,-53,-73,-98,-119,-89,-163
283,112,-172,-197,227,-30,-64,-50,-73,-91,-77,-148
312,117,-194,-214,253,-38,-90,-43,-49,-64,-56,-109
344,142,-202,-243,273,-30,-114,-46,-50,-52,-25,-89
335,127,-208,-231,271,-40,-119,-47,-53,-61,-25,-89
347,107,-240,-227,293,-66,-108,-51,-61,-75,-33,-95
338,82,-256,-210,297,-87,-101,-68,-76,-79,-42,-106
283,45,-238,-164,261,-96,-92,-86,-105,-117,-80,-131
245,25,-220,-134,233,-98,-88,-103,-122,-130,-94,-155
223,13,-211,-118,216,-99,-82,-126,-151,-162,-128,-181
224,14,-210,-118,217,-98,-79,-138,-187,-187,-140,-185
212,10,-202,-111,207,-95,-74,-130,-179,-179,-137,-184
210,4,-206,-107,208,-100,-69,-141,-195,-196,-147,-189
199,9,-190,-104,194,-91,-50,-129,-170,-168,-128,-178
170,8,-161,-89,165,-76,7,-135,-207,-231,-196,-233
179,50,-129,-114,154,-39,43,-44,-81,-90,-96,-189
386,142,-244,-264,315,-51,-44,307,389,422,360,134
905,463,-442,-684,673,11,-408,355,827,1233,1214,804
961,498,-463,-729,712,18,-707,-362,309,998,1149,925
581,-90,-671,-245,626,-380,-640,-1044,-884,-428,-19,263
506,-246,-752,-130,629,-499,-507,-857,-919,-663,-274,32
405,-11,-415,-197,410,-213,-324,-431,-424,-291,-104,17
285,35,-250,-160,268,-107,-141,-232,-272,-233,-140,-91
254,35,-220,-144,237,-92,-78,-134,-162,-145,-104,-126
214,13,-200,-113,207,-93,-33,-115,-157,-164,-131,-166
213,7,-206,-110,209,-99,-12,-88,-120,-135,-113,-161
199,2,-197,-101,197,-97,-2,-80,-120,-138,-123,-177
197,-2,-199,-97,198,-100,7,-65,-108,-127,-114,-167
190,-3,-193,-93,192,-98,23,-53,-95,-119,-109,-160
194,-10,-204,-92,199,-107,37,-44,-94,-117,-109,-156
197,-8,-205,-94,201,-106,34,-34,-83,-104,-100,-144
196,-4,-201,-96,199,-102,36,-31,-83,-104,-98,-150
202,2,-200,-102,200,-99,35,-21,-73,-92,-87,-149
200,5,-195,-102,197,-95,35,-17,-72,-84,-84,-143
206,10,-195,-107,200,-92,39,-3,-57,-70,-75,-136
208,14,-195,-111,201,-90,39,10,-41,-58,-68,-129
214,19,-195,-116,204,-88,35,22,-27,-43,-58,-123
219,26,-194,-122,206,-84,30,36,-13,-30,-47,-117
226,25,-201,-125,213,-88,28,49,-2,-24,-43,-115
229,24,-205,-126,217,-91,23,69,7,-19,-46,-115
229,29,-200,-129,214,-85,20,87,19,-14,-45,-111
233,35,-197,-134,215,-81,28,107,35,-10,-45,-110
224,31,-194,-127,209,-81,31,123,48,-4,-45,-110
213,24,-189,-118,201,-82,30,133,46,-16,-44,-117
223,21,-203,-122,213,-91,27,138,35,-34,-54,-116
239,11,-228,-125,233,-108,24,130,26,-48,-69,-119
252,16,-236,-133,244,-110,25,122,8,-89,-105,-152
268,30,-237,-149,252,-103,19,113,-21,-129,-140,-172
271,30,-241,-151,256,-105,14,99,-45,-149,-150,-169
249,29,-221,-139,235,-96,9,70,-72,-160,-148,-172
217,26,-191,-121,203,-82,3,22,-112,-160,-142,-164
220,24,-196,-121,207,-86,-3,-18,-128,-151,-128,-135
222,27,-195,-124,208,-83,-3,-43,-121,-117,-92,-107
208,30,-178,-119,193,-74,1,-64,-120,-78,-54,-89
207,31,-177,-118,192,-73,0,-71,-114,-54,-30,-79
200,30,-170,-115,185,-70,0,-67,-111,-39,-17,-72
198,30,-167,-114,183,-68,0,-64,-111,-32,-8,-62
192,30,-163,-111,178,-66,-1,-65,-110,-23,2,-56
193,36,-158,-115,176,-61,12,-60,-105,-14,18,-50
213,42,-172,-127,192,-65,17,-60,-103,-7,31,-47
215,38,-177,-127,196,-69,13,-60,-98,4,30,-43
211,42,-169,-126,190,-63,17,-51,-95,10,29,-39
196,37,-159,-116,177,-60,12,-49,-86,21,32,-36
204,53,-151,-128,177,-49,19,-27,-53,40,39,-27
258,74,-184,-166,221,-54,2,6,-18,77,79,8
327,54,-273,-190,300,-109,-50,93,69,180,185,97
437,103,-334,-270,385,-116,-131,180,192,346,341,222
570,176,-394,-373,481,-109,-200,307,354,525,499,349
735,279,-456,-507,595,-88,-276,513,619,795,747,534
932,395,-537,-663,734,-71,-387,690,876,1082,1012,736
1185,350,-835,-767,1010,-242,-426,1014,1275,1475,1350,970
1426,289,-1137,-858,1281,-423,-373,1348,1722,1951,1736,1196
1660,60,-1600,-860,1630,-770,-248,1466,1892,2253,2036,1391
1932,-315,-2247,-808,2090,-1281,-342,1438,1928,2435,2217,1515
1716,-428,-2144,-643,1930,-1286,-480,929,1181,1490,1362,970
987,-291,-1278,-347,1132,-784,-277,192,91,216,265,268
387,-97,-484,-145,436,-290,-65,-61,-126,46,60,55
147,-20,-166,-63,157,-93,22,-112,-170,-37,-53,-67
96,-8,-104,-44,100,-56,57,-177,-266,-129,-126,-112
69,15,-54,-42,61,-19,58,-202,-291,-150,-152,-130
59,11,-48,-35,53,-19,62,-270,-378,-246,-219,-162
25,-23,-48,0,37,-35,59,-284,-396,-260,-241,-188
-10,-50,-40,31,15,-45,60,-294,-415,-295,-273,-209
-30,-73,-43,52,7,-58,77,-301,-416,-295,-268,-201
-24,-88,-64,56,21,-76,103,-284,-408,-281,-257,-185
5,-58,-64,27,35,-61,97,-272,-398,-266,-239,-164
11,-12,-23,0,17,-17,107,-254,-385,-259,-236,-156
8,40,32,-25,-12,36,142,-248,-361,-259,-231,-147
-32,61,94,-15,-63,77,141,-261,-382,-278,-247,-160
-86,63,149,11,-117,105,130,-312,-445,-332,-294,-182
-102,94,196,4,-149,145,126,-375,-491,-379,-328,-198
-134,115,248,9,-191,181,121,-412,-539,-426,-370,-226
-173,115,289,29,-232,202,119,-458,-584,-478,-409,-251
-192,143,334,24,-263,238,114,-505,-631,-525,-444,-269
-224,170,394,27,-309,281,111,-543,-677,-581,-483,-289
-262,184,446,39,-354,314,108,-584,-721,-634,-523,-311
-294,198,492,47,-393,345,103,-610,-751,-664,-554,-312
-314,205,520,54,-417,363,100,-615,-757,-684,-562,-304
-315,203,518,56,-417,360,96,-592,-759,-700,-564,-304
-285,187,472,49,-379,329,92,-546,-723,-680,-549,-292
-232,167,399,32,-315,283,89,-479,-652,-640,-523,-276
-185,139,324,23,-255,231,86,-384,-570,-593,-485,-259
-121,103,224,9,-173,163,85,-284,-459,-505,-416,-216
-39,67,106,-14,-73,86,85,-191,-353,-398,-326,-157
42,53,11,-47,15,32,85,-123,-263,-309,-247,-117
104,56,-48,-80,76,4,85,-79,-196,-230,-169,-73
128,54,-74,-91,101,-10,87,-50,-155,-163,-100,-28
162,56,-106,-109,134,-25,90,-40,-121,-119,-61,19
181,53,-127,-116,153,-37,90,-30,-104,-95,-38,62
184,60,-124,-121,153,-32,90,-24,-99,-89,-25,66
197,71,-126,-134,161,-27,90,-25,-100,-83,-12,64
192,68,-125,-129,158,-28,90,-25,-96,-79,-10,66
189,64,-125,-126,157,-31,94,-25,-94,-74,-7,77
184,61,-123,-122,153,-31,95,-25,-96,-69,-4,95
175,56,-119,-116,147,-31,92,-28,-99,-66,-16,95
176,55,-120,-116,148,-32,89,-31,-100,-58,-20,95
186,66,-120,-126,153,-27,90,-33,-100,-69,-20,95
189,69,-120,-129,154,-25,90,-37,-100,-81,-20,95
180,60,-120,-120,150,-30,90,-39,-100,-79,-20,95
169,54,-114,-111,141,-30,90,-41,-98,-80,-18,95
165,46,-119,-105,142,-36,85,-44,-105,-80,-26,94
173,39,-134,-106,153,-47,85,-45,-115,-80,-41,105
168,32,-136,-100,152,-51,84,-48,-115,-80,-40,111
160,26,-134,-93,147,-54,80,-50,-113,-80,-39,109
154,22,-132,-88,143,-55,80,-51,-111,-80,-41,114
144,15,-128,-80,136,-56,82,-55,-108,-80,-39,115
143,10,-133,-77,138,-61,86,-55,-116,-80,-44,115
149,4,-144,-76,146,-70,84,-55,-130,-80,-49,121
156,14,-142,-85,149,-64,80,-56,-130,-80,-54,128
160,25,-135,-92,147,-55,80,-50,-130,-80,-57,130
154,20,-134,-87,143,-56,79,-49,-130,-80,-55,130
141,15,-126,-78,133,-56,75,-56,-130,-80,-55,130
136,10,-126,-72,130,-58,75,-53,-130,-80,-52,130
146,3,-143,-74,145,-70,75,-50,-130,-76,-49,130
154,1,-153,-78,154,-76,75,-48,-129,-71,-50,130
159,13,-146,-86,152,-66,75,-43,-131,-66,-66,130
165,18,-147,-91,156,-65,75,-53,-140,-63,-77,129
167,12,-156,-89,161,-72,75,-61,-136,-56,-75,139
161,10,-152,-85,156,-71,74,-60,-131,-57,-74,144
149,5,-143,-77,146,-69,70,-60,-128,-71,-70,135
139,1,-138,-70,138,-68,70,-60,-122,-68,-70,129
131,1,-130,-66,131,-65,70,-60,-118,-64,-73,123
130,5,-125,-67,127,-60,70,-57,-115,-61,-82,115
141,6,-136,-73,138,-65,70,-54,-115,-56,-86,118
142,-6,-148,-68,145,-77,68,-51,-114,-54,-84,130
139,-11,-150,-64,145,-81,63,-48,-122,-49,-85,130
140,-9,-150,-65,145,-79,57,-45,-131,-51,-85,129
140,-10,-150,-65,145,-80,54,-46,-124,-47,-85,126
140,-10,-150,-65,145,-80,48,-46,-120,-44,-83,125
137,-10,-147,-63,142,-78,46,-45,-117,-45,-79,124
150,-7,-156,-71,154,-81,55,-44,-110,-41,-81,119
150,-4,-154,-72,152,-79,54,-40,-117,-38,-80,120
138,-6,-144,-66,142,-75,51,-39,-126,-34,-80,120
141,-4,-146,-68,144,-75,48,-44,-124,-31,-80,120
139,-6,-145,-66,142,-75,45,-46,-125,-26,-75,120
141,-4,-145,-68,144,-74,44,-45,-125,-26,-76,116
145,0,-145,-72,145,-72,40,-45,-125,-35,-73,115
146,-1,-147,-72,146,-73,40,-45,-121,-31,-86,115
153,1,-152,-77,153,-75,40,-45,-120,-19,-102,115
143,-12,-154,-65,149,-82,40,-43,-120,-10,-100,115
125,-26,-151,-49,138,-88,40,-39,-115,-7,-99,114
125,-25,-150,-50,138,-87,37,-37,-114,-15,-95,107
125,-25,-150,-50,138,-87,34,-34,-117,-19,-95,103
125,-25,-150,-50,138,-87,31,-31,-120,-14,-93,97
125,-25,-150,-50,138,-87,28,-30,-120,-8,-87,91
126,-24,-150,-51,138,-87,26,-38,-120,-4,-83,86
131,-19,-150,-56,140,-84,23,-52,-120,4,-78,81
137,-13,-150,-62,144,-81,20,-55,-120,-2,-74,75
140,-10,-150,-65,145,-80,20,-50,-117,-12,-69,69
145,-5,-150,-70,148,-77,20,-48,-114,-4,-74,66
150,0,-150,-75,150,-75,20,-43,-111,-1,-72,56
133,-9,-142,-62,138,-75,20,-40,-108,4,-63,61
132,-1,-133,-65,133,-67,23,-36,-105,8,-55,69
146,25,-121,-85,133,-47,33,-26,-104,15,-48,75
156,37,-119,-96,137,-41,46,-18,-90,42,-48,94
161,43,-119,-102,140,-38,42,-8,-76,47,-51,96
176,55,-121,-115,149,-33,38,5,-59,44,-47,95
193,69,-123,-130,158,-27,32,19,-37,69,-18,95
220,93,-126,-156,173,-16,-5,32,-35,92,23,121
256,101,-155,-178,205,-27,-36,36,-34,109,41,145
255,96,-159,-176,207,-31,-44,30,-36,102,30,131
256,77,-179,-166,217,-50,-40,27,-34,101,20,119
227,31,-196,-129,211,-82,-26,18,-45,92,11,105
182,6,-175,-94,178,-84,-14,-20,-79,45,-8,78
160,-9,-169,-75,165,-89,-10,-38,-87,33,-37,44
122,-40,-162,-40,142,-101,-2,-54,-119,-14,-85,20
115,-36,-151,-40,133,-93,-2,-62,-112,-25,-74,20
104,-45,-149,-29,126,-97,8,-56,-121,-34,-86,-3
96,-35,-131,-30,113,-82,6,-68,-132,-33,-88,-13
81,-43,-124,-19,103,-83,30,-45,-121,-59,-104,-40
63,-33,-96,-15,80,-64,90,-30,-114,-60,-104,-43
146,41,-106,-94,126,-32,86,180,174,242,124,86
515,180,-335,-347,425,-77,-110,498,653,865,755,555
935,523,-412,-729,673,55,-507,196,784,1439,1444,1160
686,343,-343,-514,514,0,-626,-712,-225,499,725,824
350,-190,-540,-80,445,-365,-479,-1057,-1080,-657,-289,190
310,-208,-518,-51,415,-363,-357,-649,-692,-436,-208,107
185,-78,-264,-53,225,-171,-181,-318,-342,-206,-126,27
156,-38,-194,-58,175,-116,-69,-143,-181,-107,-92,2
131,-38,-169,-46,150,-103,-21,-75,-111,-65,-74,-30
113,-46,-160,-33,137,-103,8,-53,-113,-82,-101,-80
97,-59,-155,-19,126,-107,14,-23,-77,-48,-75,-70
73,-73,-146,1,109,-110,31,-25,-87,-62,-88,-78
74,-67,-142,-3,108,-104,39,-11,-67,-41,-71,-80
63,-72,-135,5,99,-103,41,-9,-74,-50,-74,-99
80,-69,-148,-5,114,-108,40,0,-65,-39,-72,-93
76,-71,-147,-2,112,-109,40,6,-63,-38,-76,-98
75,-69,-143,-3,109,-105,40,12,-60,-35,-76,-101
79,-63,-142,-8,111,-102,39,20,-53,-29,-72,-98
82,-56,-137,-13,110,-96,35,25,-48,-31,-70,-111
86,-49,-136,-18,111,-92,35,34,-40,-28,-70,-116
93,-42,-136,-25,115,-89,35,34,-35,-26,-67,-115
104,-36,-140,-34,123,-88,35,36,-27,-24,-65,-115
105,-47,-152,-29,129,-99,35,57,-24,-29,-66,-115
102,-51,-154,-25,128,-102,32,65,-20,-30,-66,-115
97,-49,-147,-24,122,-98,29,59,-16,-34,-65,-120
96,-47,-143,-24,120,-95,26,61,-12,-34,-67,-135
95,-44,-140,-25,118,-92,23,57,-9,-31,-75,-146
86,-46,-132,-20,110,-89,20,55,-21,-46,-87,-150
92,-50,-142,-21,117,-96,19,55,-38,-69,-115,-172
103,-53,-156,-24,130,-105,13,52,-55,-100,-138,-190
97,-58,-155,-19,126,-106,8,47,-80,-138,-171,-207
93,-67,-160,-13,127,-113,2,44,-108,-176,-217,-238
92,-66,-159,-13,126,-112,-4,40,-132,-208,-236,-240
94,-73,-167,-10,131,-120,-9,37,-139,-222,-240,-229
104,-77,-181,-13,143,-129,-14,34,-123,-202,-224,-222
110,-64,-174,-22,142,-119,-21,28,-102,-164,-185,-200
113,-53,-166,-29,140,-109,-35,22,-84,-125,-144,-168
120,-38,-158,-41,139,-98,-37,17,-57,-69,-88,-137
125,-25,-150,-50,138,-87,-44,11,-32,-5,-27,-109
127,-19,-145,-54,136,-82,-53,6,-18,29,-2,-87
126,-13,-140,-56,133,-76,-50,9,-5,53,27,-77
126,-10,-135,-58,131,-72,-50,10,1,78,55,-73
126,-5,-131,-61,129,-68,-48,10,4,80,55,-67
126,0,-126,-62,126,-62,-44,14,7,80,55,-62
124,-4,-128,-59,126,-66,-46,16,12,80,55,-55
116,-16,-131,-50,124,-73,-41,14,15,80,59,-59
103,-24,-127,-39,115,-75,-40,10,12,80,60,-64
100,-25,-125,-37,113,-75,-40,10,9,75,60,-60
96,-25,-121,-36,109,-73,-35,8,6,70,60,-58
95,-25,-120,-35,108,-72,-35,4,4,66,60,-53
98,-25,-123,-36,111,-74,-35,5,0,61,59,-60
101,-25,-127,-37,115,-76,-35,1,-1,57,52,-70
114,-21,-135,-46,124,-77,-35,-4,-6,52,48,-72
112,-20,-132,-46,122,-76,-35,-9,-14,44,43,-84
105,-20,-126,-42,116,-73,-35,-13,-26,36,36,-85
103,-20,-123,-41,113,-71,-35,-17,-45,28,32,-79
85,-32,-117,-27,101,-74,-35,-22,-45,20,26,-78
80,-36,-116,-22,99,-76,-35,-25,-46,15,25,-71
88,-35,-123,-26,106,-79,-35,-28,-51,15,25,-70
85,-33,-117,-26,101,-75,-35,-32,-50,15,25,-84
81,-30,-111,-26,96,-70,-35,-35,-48,15,25,-87
74,-30,-104,-22,89,-67,-34,-35,-41,15,23,-79
71,-26,-96,-22,84,-61,-27,-35,-34,17,20,-75
94,-14,-108,-40,101,-61,-21,-31,-28,21,18,-70
126,10,-116,-67,121,-53,-14,-20,-20,25,35,-62
146,32,-114,-89,130,-41,-7,-10,-16,39,52,-64
167,52,-114,-109,140,-31,0,1,-7,45,56,-64
172,57,-116,-114,144,-30,-10,13,2,58,70,-43
178,64,-113,-121,145,-24,-47,27,25,89,98,-23
215,84,-130,-149,172,-23,-71,35,48,103,115,-8
212,85,-127,-149,169,-21,-78,30,38,97,113,-4
195,60,-135,-127,165,-38,-73,25,23,82,104,8
197,9,-188,-103,193,-90,-63,17,9,74,102,17
143,-22,-165,-60,154,-93,-52,-3,-4,58,87,-13
102,-26,-128,-38,115,-77,-32,-31,-28,35,65,-37
77,-52,-128,-13,103,-90,-19,-49,-65,-3,26,-73
57,-68,-125,6,91,-96,-13,-65,-86,-32,12,-90
66,-53,-119,-6,92,-86,-9,-56,-73,-16,30,-82
63,-56,-119,-3,91,-87,0,-56,-88,-37,2,-99
70,-38,-108,-16,89,-73,2,-52,-73,-10,16,-78
36,-44,-81,4,59,-62,41,-43,-81,-48,-29,-115
2,-26,-28,12,16,-27,90,-9,-28,8,11,-108
153,53,-100,-103,126,-23,50,282,328,394,332,107
640,306,-333,-473,487,-14,-242,488,836,1172,1140,730
859,518,-341,-688,600,88,-612,-86,624,1347,1472,1107
495,46,-448,-270,471,-201,-621,-936,-598,-5,363,509
335,-310,-645,-12,490,-477,-482,-950,-984,-651,-225,112
268,-132,-400,-67,334,-266,-331,-485,-461,-247,-11,127
102,-73,-175,-14,139,-124,-132,-220,-219,-125,-9,29
69,-68,-136,0,103,-102,-44,-86,-86,-23,32,-12
53,-60,-113,3,84,-86,0,-50,-58,-17,15,-61
68,-56,-124,-6,96,-90,35,-22,-30,-4,15,-60
72,-45,-117,-14,95,-81,55,-3,-18,6,19,-65
73,-49,-121,-12,97,-85,59,1,-17,4,32,-65
62,-57,-120,-3,91,-88,62,21,1,21,40,-54
46,-71,-118,13,82,-94,66,31,1,16,42,-57
50,-64,-114,8,82,-89,64,39,16,29,61,-46
49,-60,-109,6,79,-85,74,50,21,22,51,-46
53,-54,-107,1,81,-81,74,63,36,36,58,-38
53,-48,-101,-2,78,-74,78,69,48,42,57,-34
56,-44,-100,-6,79,-72,86,77,65,45,62,-29
60,-40,-100,-10,80,-70,81,93,71,55,74,-22
62,-38,-100,-12,81,-69,78,101,88,54,74,-18
65,-35,-99,-15,83,-66,75,117,104,68,87,-12
72,-32,-104,-20,88,-68,70,130,111,80,100,-10
86,-30,-115,-27,100,-72,74,143,125,78,102,-7
92,-27,-118,-32,105,-72,76,169,144,84,113,-4
94,-24,-118,-35,106,-71,75,178,163,84,108,-1
88,-21,-109,-33,98,-65,74,196,167,75,100,1
82,-19,-101,-32,92,-59,70,211,173,70,95,-8
107,-15,-122,-46,115,-68,70,220,170,58,86,-17
117,-15,-132,-51,125,-74,68,214,153,34,69,-27
104,-25,-129,-40,117,-76,61,201,134,-6,36,-41
104,-25,-129,-39,117,-76,54,193,106,-50,-5,-53
103,-21,-123,-41,113,-72,48,171,72,-89,-45,-62
108,-18,-126,-44,117,-72,40,136,43,-108,-47,-53
99,-15,-114,-42,107,-65,36,95,12,-98,-34,-40
78,-13,-91,-32,85,-52,39,56,-14,-86,-18,-27
75,-10,-85,-32,80,-47,44,28,-16,-74,13,-10
75,-7,-83,-34,79,-44,47,14,-15,-50,48,6
75,-5,-80,-35,78,-42,51,2,-15,-30,90,33
75,-1,-76,-37,76,-38,50,-5,-15,-21,107,47
75,0,-75,-37,75,-37,50,-9,-15,-13,109,44
68,-3,-71,-32,70,-37,55,-8,-10,-3,120,45
61,-8,-70,-27,66,-39,55,-1,-2,8,132,45
61,-9,-70,-26,65,-39,56,4,4,10,138,45
61,-5,-66,-28,64,-35,60,9,11,15,141,59
59,-5,-64,-27,62,-35,60,15,27,31,153,71
61,-5,-67,-28,64,-36,57,19,32,35,155,69
65,-5,-70,-30,68,-37,55,15,29,35,155,73
65,-5,-70,-30,68,-37,55,15,30,37,163,75
69,-1,-70,-34,69,-35,55,14,25,40,169,75
67,0,-67,-33,67,-33,55,10,25,40,167,72
64,0,-64,-31,64,-31,55,10,24,36,164,66
67,-1,-68,-33,67,-34,55,8,20,29,165,61
60,-10,-70,-25,66,-40,55,4,18,23,160,58
55,-15,-70,-20,63,-42,56,2,15,16,160,52
55,-15,-70,-20,63,-42,55,-1,11,9,160,50
55,-15,-70,-20,63,-42,55,-4,10,5,160,58
54,-15,-69,-20,62,-41,55,-6,6,5,160,61
58,-15,-73,-21,66,-44,55,-10,5,5,160,60
62,-14,-75,-23,69,-44,55,-15,5,4,160,60
65,-10,-75,-27,70,-42,58,-19,1,6,160,61
66,-9,-75,-28,71,-41,61,-18,-1,4,163,59
56,-19,-74,-18,66,-46,58,-8,1,10,171,69
62,-14,-76,-23,69,-45,65,-1,9,20,179,80
69,18,-50,-43,59,-16,80,7,20,29,191,81
72,55,-17,-63,45,18,83,15,30,41,203,88
91,76,-15,-83,52,30,85,18,39,45,204,89
111,77,-33,-94,72,22,86,38,60,74,227,116
125,86,-38,-105,81,24,55,59,91,99,251,136
164,108,-56,-135,110,26,14,70,104,118,262,145
188,107,-82,-147,135,12,7,65,98,136,268,162
170,92,-77,-131,123,7,3,48,88,122,258,154
176,65,-111,-120,143,-23,0,33,73,112,248,146
142,17,-124,-80,133,-53,16,22,62,104,246,138
85,-6,-90,-39,88,-48,38,8,33,79,223,130
66,-11,-76,-27,71,-44,49,-17,3,55,197,108
21,-43,-64,11,43,-53,58,-41,-29,13,156,67
14,-38,-51,12,33,-44,52,-43,-33,17,149,66
21,-31,-52,5,37,-41,58,-30,-33,6,142,64
0,-39,-39,20,19,-39,60,-34,-42,1,144,64
-9,-52,-44,31,17,-48,74,-11,-21,8,150,69
-48,-54,-7,51,-20,-30,140,-28,-56,-25,117,55
-17,31,47,-7,-32,38,159,121,155,192,251,115
344,155,-189,-249,266,-17,18,502,668,769,792,503
857,467,-390,-662,624,38,-395,385,984,1488,1580,1162
755,348,-408,-551,581,-30,-635,-500,162,846,1147,1032
395,-218,-613,-88,504,-415,-527,-1068,-932,-488,68,385
337,-216,-553,-60,445,-384,-404,-736,-715,-449,-5,266
184,-31,-214,-76,199,-122,-200,-323,-270,-130,103,228
85,-21,-107,-32,96,-64,-23,-118,-113,-49,110,144
61,-22,-83,-19,72,-53,36,-29,-16,19,130,109
12,-52,-64,21,38,-58,82,-6,-13,6,104,78
17,-48,-65,16,41,-56,102,28,26,41,121,87
5,-52,-57,23,31,-54,111,30,18,23,100,75
3,-54,-58,26,31,-56,124,52,39,43,109,77
-5,-55,-50,30,23,-52,126,59,50,44,108,69
-5,-54,-49,29,23,-51,128,70,56,56,118,72
-5,-49,-44,28,19,-46,131,77,55,61,121,76
-9,-48,-39,29,16,-44,127,84,64,62,119,74
9,-44,-53,18,32,-48,125,109,87,83,121,75
20,-42,-62,11,41,-52,125,117,92,86,119,75
22,-37,-59,7,41,-48,125,119,98,98,121,73
26,-34,-60,4,44,-47,125,126,109,108,124,86
29,-31,-60,1,45,-45,125,137,123,115,127,102
33,-27,-60,-3,47,-43,121,153,130,123,129,99
33,-24,-57,-4,46,-40,117,168,136,132,132,100
30,-20,-50,-5,40,-35,114,178,146,143,135,100
29,-20,-49,-4,39,-34,109,198,169,149,135,100
20,-20,-39,0,29,-29,106,217,184,144,125,96
27,-20,-48,-4,38,-34,102,227,179,138,114,89
59,-20,-78,-19,68,-49,96,241,167,129,98,83
64,-17,-81,-23,73,-49,91,242,156,101,61,51
73,-11,-84,-30,79,-47,86,234,143,60,21,20
79,-6,-85,-36,82,-45,80,228,123,21,-8,8
56,-19,-75,-18,66,-47,75,218,97,-12,-39,-13
41,-28,-70,-6,56,-49,69,195,68,-39,-55,-24
39,-24,-62,-7,51,-43,64,151,33,-39,-50,-10
37,-19,-56,-9,47,-37,59,100,14,-17,-42,6
36,-14,-50,-11,43,-32,53,61,15,5,-13,37
34,-11,-45,-11,40,-27,47,46,15,38,29,64
35,-4,-40,-15,38,-22,44,43,15,70,60,75
21,-12,-33,-4,28,-22,49,37,25,89,80,93
7,-23,-30,8,19,-26,51,32,40,105,97,102
10,-20,-30,5,20,-25,47,25,39,114,99,99
9,-21,-30,6,20,-25,45,30,44,128,108,100
21,-17,-39,-2,30,-28,41,39,56,137,126,100
24,-15,-39,-4,32,-26,40,40,57,134,121,100
17,-15,-32,-1,25,-23,37,40,64,135,116,100
18,-12,-29,-3,24,-20,34,40,69,138,113,100
14,-9,-23,-2,18,-16,35,39,70,141,106,100
12,-9,-20,-2,16,-14,35,34,69,136,106,98
16,-3,-19,-6,18,-11,35,31,71,133,107,93
16,-7,-23,-4,20,-15,34,28,72,129,104,90
13,-18,-31,2,22,-24,30,23,64,126,101,87
21,-9,-30,-6,26,-19,30,20,57,122,98,82
5,-21,-26,8,16,-23,30,17,50,119,95,79
-8,-32,-25,21,8,-28,30,13,42,120,94,75
-4,-24,-20,14,8,-22,30,12,35,120,88,70
-3,-23,-21,13,9,-22,26,8,31,120,80,66
16,-18,-34,1,25,-26,25,6,28,120,75,61
21,-14,-36,-3,29,-25,25,2,26,115,67,57
11,-20,-31,5,21,-26,21,-13,22,108,61,52
9,-20,-29,6,19,-25,19,-16,20,105,63,50
6,-20,-26,7,16,-22,22,-13,22,97,67,50
-7,-32,-24,20,9,-28,25,-8,26,93,71,50
-6,-24,-19,15,7,-21,27,0,24,86,57,49
-4,-10,-6,7,1,-8,31,5,26,86,68,51
5,6,1,-5,2,3,30,13,47,113,103,54
19,34,15,-27,2,24,32,18,55,115,106,56
23,49,26,-36,-2,37,36,23,62,116,109,54
43,54,11,-49,16,32,22,34,81,126,113,58
72,73,0,-72,36,36,-7,61,111,149,140,87
112,81,-31,-96,71,25,-41,68,131,180,176,108
115,69,-46,-92,80,12,-56,47,112,163,172,104
100,54,-46,-76,72,4,-44,30,99,147,157,94
98,20,-78,-59,88,-28,-41,16,88,134,149,86
59,-11,-71,-24,65,-41,-31,4,57,98,133,69
9,-36,-46,14,28,-41,-12,-12,24,77,106,42
-19,-49,-29,34,5,-39,1,-36,7,45,66,0
-32,-55,-22,44,-5,-38,8,-62,-10,19,38,-26
-42,-60,-18,51,-12,-39,9,-57,-1,31,46,-21
-51,-66,-15,59,-18,-40,23,-63,-23,0,24,-45
-39,-47,-8,43,-16,-27,7,-58,-12,24,39,-42
-71,-56,15,63,-43,-20,39,-41,-30,-24,9,-76
-114,-35,79,74,-96,22,100,-15,11,31,45,-78
36,40,4,-38,16,22,69,257,353,378,331,107
514,257,-257,-385,385,0,-213,509,871,1131,1114,708
768,509,-259,-638,513,125,-605,-3,749,1409,1514,1133
418,95,-323,-256,371,-114,-629,-938,-512,66,430,550
210,-330,-540,60,375,-435,-478,-1020,-1002,-688,-248,87
164,-170,-335,3,250,-252,-339,-530,-456,-282,-41,91
40,-56,-96,9,68,-76,-150,-243,-179,-113,3,13
6,-52,-57,23,32,-54,-46,-85,-20,0,64,-21
-34,-69,-35,52,1,-52,2,-51,1,5,45,-76
-39,-78,-39,59,1,-59,23,-22,24,18,50,-89
-41,-72,-31,57,-4,-51,32,-8,43,31,54,-103
-46,-78,-31,62,-7,-54,44,-3,44,38,44,-109
-45,-73,-27,59,-9,-50,45,14,65,55,58,-101
-53,-77,-24,66,-14,-51,45,22,61,39,50,-109
-54,-80,-26,68,-14,-53,45,34,78,62,59,-101
-55,-79,-24,68,-16,-51,45,26,73,65,61,-109
-50,-76,-26,64,-12,-51,45,39,83,71,73,-117
-49,-73,-24,61,-12,-49,45,50,89,83,74,-121
-45,-70,-25,58,-10,-47,45,59,97,89,75,-120
-44,-69,-25,57,-10,-47,42,70,110,95,78,-120
-33,-53,-20,43,-6,-36,37,70,117,104,81,-122
-20,-41,-20,30,0,-30,34,85,131,111,83,-125
-20,-40,-19,30,0,-30,31,104,143,117,87,-125
-15,-36,-20,26,3,-28,27,122,154,124,90,-125
-14,-33,-19,24,3,-26,24,137,175,131,82,-125
-9,-30,-21,19,6,-25,19,141,185,123,76,-126
6,-31,-37,13,22,-34,14,158,178,113,68,-124
6,-35,-41,15,24,-38,10,162,168,102,61,-135
4,-35,-39,16,22,-37,5,156,160,89,52,-156
6,-34,-40,14,24,-37,1,151,150,65,16,-180
-5,-45,-40,25,18,-42,-5,145,141,17,-23,-208
-12,-51,-39,32,14,-45,-13,140,123,-13,-45,-218
-14,-45,-31,30,9,-38,-21,129,97,-30,-67,-224
-19,-43,-24,31,3,-33,-29,101,70,-35,-69,-219
-20,-38,-18,30,-1,-28,-37,52,40,-37,-56,-207
-24,-35,-10,30,-6,-22,-36,16,29,-27,-37,-198
-26,-32,-5,30,-11,-18,-35,-1,31,7,-2,-178
-29,-29,0,29,-15,-14,-35,-10,30,38,36,-159
-31,-26,5,28,-18,-10,-30,-13,30,69,67,-151
-35,-23,12,29,-23,-5,-30,-20,29,84,74,-144
-35,-20,15,27,-25,-2,-29,-25,33,93,78,-137
-33,-18,15,25,-24,-1,-25,-30,35,101,86,-131
-42,-27,15,34,-28,-5,-25,-34,39,99,85,-125
-45,-31,14,38,-30,-8,-25,-30,40,102,84,-125
-50,-29,21,39,-36,-4,-25,-25,42,117,89,-124
-52,-27,25,40,-38,-1,-25,-21,55,131,106,-120
-42,-24,18,33,-29,-3,-33,-16,55,130,105,-120
-41,-26,15,33,-27,-6,-36,-11,55,130,100,-120
-36,-25,10,30,-23,-7,-34,-12,55,130,99,-120
-30,-26,5,28,-17,-10,-35,-18,55,130,95,-127
-53,-43,10,48,-32,-16,-35,-21,54,129,94,-136
-71,-53,18,62,-44,-17,-35,-26,47,124,87,-133
-69,-54,15,61,-42,-20,-35,-29,43,121,82,-130
-70,-55,15,62,-42,-20,-35,-33,37,118,77,-128
-73,-55,19,64,-46,-17,-35,-39,31,113,71,-124
-74,-55,19,65,-46,-18,-35,-40,26,110,66,-128
-74,-55,19,64,-46,-18,-35,-50,21,106,65,-133
-76,-55,21,66,-48,-17,-32,-57,20,105,65,-131
-72,-52,20,62,-46,-16,-29,-54,20,105,65,-128
-66,-49,17,57,-42,-16,-30,-56,20,105,65,-139
-65,-50,14,57,-40,-17,-26,-54,20,105,66,-146
-62,-46,15,53,-38,-16,-25,-55,22,105,64,-145
-59,-44,15,51,-37,-15,-25,-62,25,105,60,-143
-62,-46,16,54,-39,-14,-19,-55,27,105,58,-139
-65,-17,48,41,-56,15,-13,-40,30,105,52,-141
-47,23,70,12,-59,46,-8,-26,33,104,66,-134
-38,22,61,8,-50,41,-2,-12,50,111,87,-121
-31,22,53,4,-43,38,8,3,63,119,95,-109
6,51,45,-29,-20,48,-12,15,83,131,107,-87
34,71,37,-53,-2,54,-57,32,109,156,129,-71
46,73,27,-59,9,50,-74,35,99,159,137,-69
55,62,8,-59,23,35,-80,20,85,146,125,-70
63,31,-32,-47,47,0,-78,4,71,126,111,-69
25,-20,-45,-3,35,-32,-59,-13,60,94,105,-74
-29,-51,-22,40,-3,-37,-46,-26,47,63,94,-85
-43,-50,-6,47,-19,-28,-39,-55,16,51,65,-110
-73,-70,3,71,-38,-33,-26,-81,-28,-7,10,-158
-88,-69,19,79,-54,-25,-20,-84,-38,-25,9,-159
-89,-63,27,76,-58,-18,-9,-74,-29,-23,-1,-161
-97,-80,18,88,-57,-31,-6,-83,-46,-34,-12,-168
-99,-80,19,89,-59,-30,10,-65,-18,-24,-2,-157
-137,-73,64,105,-101,-4,66,-78,-64,-99,-63,-203
-125,-8,117,66,-121,55,93,31,92,69,64,-145
168,102,-66,-135,117,17,-20,390,575,598,558,210
641,412,-228,-526,434,91,-404,361,968,1387,1404,892
608,374,-234,-490,421,70,-671,-429,311,960,1168,899
273,-205,-479,-34,376,-342,-591,-1061,-864,-471,-19,222
204,-286,-490,42,347,-388,-461,-801,-766,-571,-179,53
89,-73,-162,-8,125,-117,-266,-372,-279,-223,-24,17
-18,-45,-28,32,5,-36,-89,-180,-131,-164,-53,-77
-55,-58,-3,56,-25,-30,-22,-83,-31,-89,-19,-101
-98,-81,17,90,-57,-32,20,-60,-34,-114,-44,-155
-99,-72,27,85,-62,-22,43,-28,11,-83,-21,-137
-106,-74,32,90,-69,-21,52,-19,14,-96,-36,-142
-100,-70,30,85,-65,-20,55,-10,25,-82,-27,-135
-106,-68,37,87,-71,-15,63,0,37,-80,-30,-130
-105,-75,31,90,-68,-22,65,12,46,-78,-31,-132
-108,-80,28,94,-68,-25,65,29,56,-72,-28,-127
-101,-76,26,88,-63,-25,70,37,51,-77,-32,-136
-87,-69,18,78,-52,-26,69,43,54,-68,-26,-137
-99,-67,32,83,-65,-18,73,51,75,-72,-24,-130
-105,-60,46,82,-75,-7,75,63,89,-68,-16,-120
-104,-66,37,85,-70,-14,75,74,91,-63,-14,-112
-98,-67,30,82,-64,-18,79,80,103,-58,-9,-110
-84,-58,25,71,-54,-16,81,96,113,-52,-5,-107
-69,-53,16,61,-42,-18,80,117,126,-47,-17,-105
-64,-46,19,55,-41,-13,76,132,136,-40,-20,-100
-76,-45,31,60,-53,-7,75,145,154,-45,-21,-100
-74,-45,29,59,-51,-7,74,162,166,-55,-25,-105
-66,-40,26,52,-46,-6,69,184,163,-64,-26,-105
-64,-41,23,52,-43,-8,71,189,159,-77,-37,-105
-59,-39,20,49,-40,-9,67,181,154,-109,-66,-114
-63,-44,18,53,-40,-13,59,174,139,-154,-106,-142
-76,-61,15,68,-45,-23,53,164,114,-191,-138,-159
-81,-68,13,74,-46,-27,45,159,89,-228,-171,-162
-72,-64,8,68,-40,-28,37,141,59,-258,-187,-164
-81,-59,22,69,-51,-18,31,99,34,-270,-183,-155
-83,-54,30,68,-56,-12,30,68,27,-271,-162,-144
-86,-48,38,67,-62,-5,30,35,22,-246,-133,-119
-94,-42,52,68,-73,4,30,8,19,-206,-101,-92
-87,-37,49,62,-68,6,30,10,13,-174,-68,-74
-83,-34,50,58,-66,8,29,5,10,-157,-52,-65
-84,-29,55,57,-69,12,33,0,15,-147,-40,-60
-92,-27,64,59,-77,18,42,-3,20,-140,-31,-52
-86,-21,65,53,-75,22,46,-10,24,-140,-29,-46
-87,-22,65,54,-76,21,44,-7,25,-140,-26,-40
-104,-34,70,69,-86,17,46,-2,30,-140,-23,-35
-106,-36,70,71,-88,17,49,4,37,-140,-20,-35
-103,-34,69,68,-85,17,50,10,34,-140,-20,-33
-97,-32,65,64,-81,16,53,15,35,-140,-20,-30
-94,-29,65,61,-80,18,56,21,47,-140,-20,-29
-94,-31,62,62,-78,15,55,19,48,-140,-20,-33
-102,-43,59,72,-80,8,55,15,40,-139,-20,-35
-106,-46,60,76,-83,7,55,12,36,-146,-20,-30
-101,-45,56,73,-79,6,55,7,30,-151,-23,-30
-104,-50,54,76,-79,2,55,4,25,-150,-28,-30
-106,-50,56,78,-81,2,55,0,20,-149,-31,-30
-103,-49,54,75,-78,2,55,-3,15,-159,-36,-30
-102,-45,58,73,-79,6,55,-7,11,-166,-39,-33
-114,-45,69,80,-91,11,55,-10,6,-164,-44,-33
-113,-43,71,78,-92,14,55,-15,2,-163,-49,-29
-109,-40,69,74,-89,15,55,-12,-3,-159,-50,-30
-111,-40,71,75,-91,16,53,-10,-5,-160,-50,-30
-113,-45,68,79,-90,12,49,-17,-5,-163,-54,-30
-125,-51,74,88,-100,12,51,-10,-8,-165,-55,-29
-129,-49,80,89,-105,15,49,-22,-11,-170,-53,-26
-126,-51,75,88,-100,12,51,-34,-9,-169,-50,-23
-120,-49,70,84,-95,10,49,-27,-6,-163,-47,-21
-117,-51,66,83,-91,7,51,-24,1,-159,-45,-17
-110,-48,62,79,-86,7,62,-18,4,-155,-41,-15
-94,-35,60,64,-77,12,68,-16,9,-151,-41,-12
-100,-10,90,55,-94,39,78,-4,13,-146,-35,3
-89,20,110,34,-100,65,83,10,19,-134,-26,16
-72,25,97,23,-85,61,86,24,44,-110,-14,27
-54,32,86,10,-70,59,83,39,63,-88,-3,32
-11,58,68,-24,-40,63,44,54,81,-75,20,55
7,58,51,-32,-22,54,19,69,100,-70,50,87
10,54,44,-33,-17,49,20,61,90,-69,48,84
13,41,28,-27,-7,34,20,53,80,-71,42,73
1,-8,-9,4,5,-9,20,42,68,-69,25,66
-33,-25,8,29,-20,-9,21,19,41,-77,-11,56
-80,-32,49,56,-64,8,41,-14,5,-101,-34,36
-117,-64,53,90,-85,-5,57,-31,-20,-128,-68,15
-137,-81,55,109,-96,-13,62,-43,-47,-169,-94,2
-131,-76,55,103,-93,-10,57,-44,-34,-150,-75,4
-143,-88,55,115,-99,-16,63,-40,-44,-173,-88,-14
-157,-86,71,122,-114,-7,55,-34,-42,-158,-79,-7
-173,-92,82,132,-127,-5,85,-11,-48,-169,-122,-28
-225,-70,155,147,-189,42,158,-25,-62,-180,-131,-40
-135,4,139,66,-137,71,155,204,236,113,99,90
337,184,-153,-260,245,15,-71,544,773,797,757,591
716,441,-276,-578,496,82,-487,212,886,1328,1385,1163
477,126,-350,-301,413,-112,-619,-729,-214,266,574,773
228,-320,-547,46,388,-433,-491,-1055,-1022,-794,-320,218
167,-184,-351,9,259,-267,-350,-601,-570,-478,-175,219
-2,-55,-53,29,25,-53,-134,-257,-227,-265,-114,134
-96,-64,32,80,-64,-16,13,-89,-94,-192,-91,71
-126,-71,55,98,-90,-7,77,-30,-29,-161,-86,47
-156,-92,63,124,-109,-14,105,-8,-18,-170,-99,26
-165,-82,83,123,-123,1,103,22,11,-140,-92,27
-163,-80,83,121,-123,2,123,26,-1,-149,-106,13
-158,-73,85,115,-121,6,135,56,16,-128,-87,16
-155,-67,89,111,-122,11,135,60,11,-135,-96,4
-155,-65,90,110,-122,12,135,63,21,-122,-82,2
-162,-74,88,117,-124,7,135,66,24,-119,-90,4
-157,-73,84,114,-120,5,134,78,37,-114,-95,15
-151,-65,85,107,-118,10,137,97,52,-107,-88,26
-148,-63,85,105,-116,10,145,102,56,-102,-85,30
-142,-57,85,99,-113,14,140,112,66,-94,-77,30
-140,-54,86,96,-112,16,134,118,74,-88,-73,30
-137,-49,87,93,-112,19,130,134,84,-82,-67,30
-130,-46,84,88,-107,19,123,153,94,-79,-65,30
-124,-43,81,83,-102,19,122,157,106,-77,-66,26
-116,-39,77,77,-97,19,125,175,119,-73,-61,19
-109,-34,75,71,-91,20,125,189,122,-70,-60,13
-109,-40,69,75,-89,14,125,207,132,-71,-60,5
-116,-54,63,85,-89,4,125,225,136,-77,-76,0
-112,-56,56,83,-83,0,125,228,124,-101,-104,-8
-103,-54,49,78,-76,-2,125,227,109,-129,-125,-16
-99,-57,43,78,-71,-7,124,216,84,-173,-167,-37
-103,-65,38,84,-70,-13,113,209,52,-222,-214,-70
-112,-65,47,88,-79,-8,102,194,20,-256,-238,-80
-98,-61,37,79,-68,-11,89,161,-3,-272,-234,-70
-112,-59,53,85,-83,-2,81,120,-29,-259,-221,-60
-147,-55,92,101,-119,19,79,79,-36,-248,-214,-49
-132,-54,78,93,-105,12,76,54,-26,-214,-166,-7
-132,-48,85,90,-108,18,74,48,-22,-165,-119,22
-147,-42,104,94,-125,31,70,41,-14,-143,-97,19
-136,-37,99,87,-117,30,71,33,-8,-116,-67,42
-131,-31,100,81,-116,34,75,25,-3,-93,-55,53
-126,-26,100,76,-113,36,75,21,2,-88,-50,46
-127,-27,100,77,-113,36,75,25,5,-82,-45,46
-137,-37,100,87,-119,31,75,25,9,-79,-41,41
-149,-38,110,93,-129,36,75,24,12,-73,-36,40
-148,-32,116,90,-132,42,71,32,16,-70,-32,45
-143,-27,115,85,-129,44,69,36,20,-74,-30,46
-142,-22,121,82,-131,50,70,34,20,-75,-30,45
-135,-15,119,75,-127,52,69,35,20,-75,-30,45
-135,-20,116,77,-125,47,71,35,16,-75,-30,45
-135,-20,115,77,-125,47,68,35,15,-75,-30,45
-129,-14,115,71,-122,50,65,33,15,-73,-35,42
-143,-28,115,85,-129,43,62,27,10,-69,-40,39
-154,-40,115,96,-134,37,60,23,5,-70,-43,36
-149,-32,117,90,-133,42,57,18,0,-80,-48,33
-152,-31,121,91,-136,45,54,14,-3,-87,-50,31
-165,-46,119,106,-142,36,60,9,-9,-89,-50,28
-174,-51,122,113,-148,35,60,6,-12,-85,-50,25
-183,-49,134,116,-159,42,60,5,-16,-85,-60,22
-186,-50,136,118,-161,42,58,5,-14,-84,-60,20
-184,-50,134,116,-159,41,54,5,-17,-89,-61,16
-181,-50,131,115,-156,41,55,5,-33,-109,-74,15
-174,-45,129,110,-151,41,51,3,-36,-110,-75,11
-177,-45,132,111,-154,43,50,0,-35,-109,-75,0
-178,-44,135,111,-156,45,50,0,-35,-110,-75,-10
-175,-40,135,107,-155,47,51,0,-35,-110,-76,-21
-177,-40,137,108,-157,48,49,0,-34,-109,-76,-27
-179,-38,141,108,-159,51,52,0,-27,-102,-70,-21
-161,-21,140,91,-150,59,54,5,-23,-97,-65,-17
-151,-13,138,82,-144,62,59,12,-16,-89,-59,-13
-149,13,162,68,-156,87,81,16,-13,-84,-54,-7
-120,55,175,33,-148,114,86,30,2,-67,-42,-8
-97,62,159,17,-128,111,85,45,21,-39,-31,-13
-69,66,135,2,-102,100,56,58,40,-24,-13,8
-39,69,108,-15,-74,88,11,76,72,-17,19,43
-18,85,103,-34,-61,94,-5,71,72,-14,25,50
-21,78,99,-28,-60,88,-21,68,64,-10,19,40
-60,34,94,13,-77,64,-19,63,47,-13,7,35
-87,-5,82,45,-84,38,-5,34,17,-32,-10,22
-119,-26,93,73,-106,33,8,7,-9,-72,-47,-23
-163,-36,128,99,-145,46,32,-11,-26,-89,-70,-47
-185,-61,124,122,-154,31,47,-22,-45,-121,-96,-66
-181,-56,125,118,-153,34,44,-38,-63,-133,-105,-75
-196,-74,121,135,-158,23,44,-33,-56,-125,-103,-74
-203,-85,118,144,-160,16,47,-35,-65,-139,-110,-78
-185,-59,127,122,-156,34,43,-13,-29,-122,-101,-72
-221,-60,161,140,-190,50,87,-17,-65,-184,-164,-132
-245,-3,243,124,-244,120,130,56,45,-49,-68,-94
10,76,67,-43,-29,71,41,400,479,413,354,202
552,357,-195,-454,373,81,-325,474,921,1200,1189,880
588,421,-167,-504,377,127,-628,-299,372,938,1110,997
182,-95,-277,-44,230,-186,-561,-1078,-877,-517,-108,277
76,-286,-362,105,219,-323,-431,-875,-909,-759,-388,34
-3,-110,-108,57,53,-109,-256,-406,-382,-359,-184,46
-109,-31,78,70,-94,23,-80,-167,-179,-255,-181,-42
-145,-34,112,89,-129,39,-3,-48,-59,-162,-122,-79
-177,-68,108,122,-142,20,52,-27,-55,-171,-143,-120
-185,-63,122,124,-153,29,55,11,-11,-136,-119,-115
-200,-66,134,133,-166,34,62,15,-13,-144,-125,-134
-189,-62,127,125,-158,33,70,28,4,-131,-113,-128
-191,-59,132,125,-161,36,70,38,19,-125,-111,-129
-190,-61,129,125,-159,34,76,46,22,-121,-122,-137
-190,-60,130,125,-160,35,72,52,30,-110,-115,-140
-191,-61,130,126,-160,34,69,59,26,-110,-116,-141
-184,-54,130,119,-157,37,65,74,39,-99,-109,-137
-180,-50,130,115,-155,40,62,74,38,-98,-107,-135
-174,-44,130,109,-152,42,57,82,49,-89,-103,-135
-168,-38,130,103,-149,46,54,93,59,-82,-98,-138
-165,-35,130,100,-147,47,50,102,74,-72,-93,-141
-161,-35,126,98,-143,46,50,114,89,-67,-87,-153
-160,-35,125,97,-142,45,49,130,93,-70,-83,-156
-168,-43,125,106,-146,40,45,148,113,-70,-74,-154
-165,-45,120,105,-142,38,45,157,120,-71,-77,-155
-159,-39,120,99,-140,41,43,168,114,-76,-94,-155
-156,-38,118,97,-137,40,37,180,113,-74,-99,-156
-146,-31,115,88,-130,41,33,175,107,-79,-105,-165
-143,-31,113,87,-128,41,28,170,107,-102,-132,-184
-138,-29,109,84,-124,40,24,164,93,-140,-171,-210
-141,-34,107,87,-124,37,19,159,63,-186,-208,-232
-153,-49,104,100,-128,27,15,152,34,-216,-246,-250
-158,-47,110,102,-134,31,7,134,13,-240,-259,-261
-159,-40,119,99,-139,39,1,106,-8,-242,-252,-249
-170,-36,135,103,-152,49,-6,73,-25,-228,-242,-233
-179,-29,150,104,-164,60,-13,41,-26,-211,-203,-211
-176,-26,150,101,-162,61,-15,21,-22,-169,-160,-183
-176,-23,152,99,-164,64,-15,17,-20,-137,-129,-163
-175,-20,155,97,-165,67,-15,14,-16,-119,-117,-153
-178,-17,161,97,-169,71,-15,11,-15,-107,-108,-149
-181,-15,166,97,-173,76,-15,6,-12,-100,-93,-144
-178,-13,165,95,-171,75,-15,5,-6,-90,-80,-140
-172,-9,163,90,-167,77,-15,12,-2,-83,-74,-135
-171,-11,160,91,-165,74,-15,15,3,-75,-76,-131
-183,-24,159,104,-171,67,-15,20,7,-67,-72,-130
-186,-24,162,105,-174,69,-15,25,12,-63,-70,-130
-182,-17,165,99,-173,74,-15,25,22,-57,-70,-130
-180,-14,166,96,-172,76,-15,30,20,-54,-75,-130
-171,-8,163,89,-167,77,-15,28,15,-48,-84,-130
-166,-6,160,86,-163,77,-15,22,13,-46,-85,-130
-169,-10,159,89,-164,75,-22,19,8,-50,-85,-130
-185,-23,162,104,-173,69,-26,14,5,-64,-85,-130
-201,-31,170,116,-185,69,-25,9,1,-77,-84,-130
-200,-30,170,115,-185,70,-25,6,-4,-79,-87,-130
-200,-30,170,115,-185,70,-25,1,-9,-84,-94,-126
-200,-30,170,115,-185,70,-26,-1,-12,-85,-96,-125
-200,-30,170,115,-185,70,-29,-5,-18,-85,-94,-124
-197,-27,170,112,-183,71,-30,-10,-21,-89,-96,-121
-194,-24,170,109,-182,73,-30,-8,-27,-90,-94,-119
-191,-21,169,106,-180,74,-30,-4,-34,-89,-99,-121
-187,-18,169,102,-178,75,-27,-5,-35,-85,-109,-137
-190,-15,175,102,-182,80,-25,-5,-40,-85,-110,-140
-190,-15,175,102,-182,80,-25,-5,-40,-85,-109,-134
-193,-15,178,103,-185,81,-25,-6,-40,-85,-110,-132
-197,-15,182,106,-189,83,-25,-9,-40,-85,-110,-127
-193,-16,176,104,-184,80,-25,-13,-40,-89,-110,-125
-187,-11,175,99,-181,82,-18,-15,-45,-94,-118,-119
-174,-6,169,90,-171,81,-10,-21,-41,-82,-114,-113
-176,0,176,88,-176,88,-2,-16,-32,-71,-102,-108
-189,16,205,86,-197,110,7,-5,-23,-58,-94,-102
-171,45,216,63,-194,130,8,9,-15,-39,-82,-93
-153,54,207,49,-180,130,4,32,-5,-27,-73,-82
-143,61,205,41,-175,133,6,43,6,-7,-59,-74
-102,90,192,6,-148,141,-19,60,28,21,-33,-45
-78,93,170,-8,-124,131,-54,78,56,37,-18,-13
-89,78,167,5,-128,122,-68,70,45,41,-16,-9
-76,72,148,2,-112,110,-76,59,31,36,-10,-11
-71,49,121,11,-96,85,-72,46,26,34,-17,-9
-110,11,122,49,-116,66,-56,35,5,26,-48,-33
-163,-6,157,84,-160,76,-45,9,-20,-4,-65,-61
-205,-31,174,118,-190,72,-40,-15,-42,-26,-89,-83
-223,-56,167,139,-195,55,-31,-22,-78,-59,-131,-107
-217,-45,172,131,-195,63,-28,-21,-72,-42,-114,-92
-227,-59,168,143,-197,54,-16,-16,-76,-57,-123,-99
-222,-52,170,137,-196,59,-13,-20,-78,-45,-104,-84
-237,-53,184,145,-210,65,14,-6,-65,-50,-128,-107
-295,-36,259,165,-277,111,72,-23,-92,-80,-169,-152
-227,29,256,98,-242,142,83,184,174,189,42,-24
184,185,1,-185,91,93,-102,538,700,847,675,454
605,490,-115,-547,360,187,-522,272,888,1470,1379,1057
401,235,-166,-318,283,34,-683,-631,-112,548,682,749
123,-265,-389,71,256,-327,-564,-1027,-1035,-628,-320,140
72,-171,-243,50,158,-207,-433,-618,-641,-386,-221,103
-95,-22,73,59,-84,25,-211,-248,-249,-127,-143,48
-162,-15,147,88,-154,66,-61,-76,-117,-46,-137,-22
-189,-16,173,102,-181,79,-10,-5,-49,10,-112,-60
-219,-42,177,130,-198,68,27,5,-45,4,-129,-80
-227,-39,188,133,-208,74,43,25,-9,33,-111,-77
-238,-41,197,139,-218,78,56,37,-16,17,-127,-96
-228,-35,192,131,-209,79,63,57,8,45,-115,-81
-233,-33,199,133,-215,83,66,62,6,44,-123,-83
-229,-30,199,130,-214,84,66,70,20,61,-114,-75
-229,-28,201,129,-215,86,73,71,25,75,-107,-71
-221,-25,196,123,-208,85,75,88,32,82,-100,-68
-217,-25,192,121,-204,84,75,95,45,94,-90,-64
-212,-23,189,117,-200,83,75,101,48,104,-85,-63
-205,-19,186,112,-195,83,75,114,69,122,-78,-58
-201,-21,180,111,-191,80,75,122,81,133,-74,-57
-199,-16,183,108,-191,83,75,140,84,139,-70,-54
-206,-15,192,111,-198,88,75,144,93,151,-65,-51
-203,-15,188,109,-195,86,75,166,108,174,-61,-49
-200,-15,185,107,-192,85,75,184,120,182,-63,-45
-198,-15,183,106,-190,84,75,191,128,183,-66,-43
-195,-15,180,105,-187,82,75,212,140,182,-69,-39
-193,-15,178,104,-185,81,72,218,134,169,-72,-44
-189,-15,174,101,-181,80,69,227,120,155,-93,-52
-188,-16,172,101,-179,78,66,226,111,129,-122,-66
-182,-13,169,98,-175,77,63,214,92,90,-156,-97
-190,-24,166,106,-177,71,60,206,64,53,-195,-110
-198,-33,164,115,-181,65,59,189,42,22,-219,-111
-193,-28,165,110,-179,68,54,166,18,12,-227,-104
-197,-26,170,111,-183,72,48,131,-12,0,-218,-94
-206,-23,183,114,-194,79,45,89,-30,16,-196,-87
-213,-20,193,116,-203,86,40,54,-32,53,-162,-67
-215,-19,196,117,-206,88,35,41,-24,91,-117,-40
-217,-13,204,115,-210,95,35,36,-18,145,-82,-13
-209,-6,203,107,-206,99,35,29,-11,158,-63,2
-209,1,210,104,-210,105,34,23,-4,170,-50,6
-213,8,221,103,-218,114,37,15,1,187,-40,11
-201,14,215,93,-208,114,45,21,8,191,-31,17
-201,12,213,94,-207,112,45,29,12,202,-24,23
-199,9,209,95,-204,109,45,36,18,210,-17,23
-193,10,204,91,-199,107,45,41,24,216,-11,19
-200,10,210,95,-205,110,44,39,29,210,-4,20
-213,10,223,101,-218,117,47,40,35,208,-1,20
-216,10,226,102,-221,117,50,40,33,203,-6,20
-211,10,221,100,-216,115,50,40,26,200,-9,20
-209,10,220,99,-214,115,50,37,19,196,-12,15
-209,6,215,101,-212,110,50,32,13,189,-17,18
-210,5,215,102,-213,110,50,30,5,185,-20,21
-215,4,219,105,-218,112,47,25,6,179,-24,20
-219,1,220,109,-220,110,42,22,2,174,-25,19
-220,-1,220,111,-220,110,39,18,-18,168,-25,15
-218,2,220,108,-219,111,36,15,-20,165,-29,15
-215,5,220,105,-218,112,30,15,-22,162,-31,17
-218,2,220,108,-219,111,32,13,-26,160,-28,21
-226,-7,220,117,-223,106,36,9,-26,156,-25,24
-229,-9,220,119,-225,105,35,11,-30,155,-25,25
-219,8,227,106,-223,117,34,6,-30,151,-25,25
-213,17,230,98,-222,124,31,5,-30,149,-25,25
-216,13,230,101,-223,121,29,5,-30,150,-25,25
-219,11,230,104,-224,121,32,0,-32,145,-30,27
-222,8,230,107,-226,119,43,0,-39,145,-31,31
-224,5,230,109,-227,117,46,1,-45,143,-30,30
-227,4,230,112,-229,117,45,5,-45,140,-27,34
-230,0,229,115,-229,115,50,5,-44,140,-25,35
-236,-5,230,121,-233,112,50,7,-40,140,-24,35
-228,1,229,113,-229,115,51,11,-40,140,-33,40
-218,13,231,102,-225,122,55,8,-38,138,-35,39
-220,27,247,97,-234,137,63,17,-28,150,-20,43
-217,45,262,86,-239,153,66,28,-23,162,-8,57
-197,71,268,63,-233,170,58,41,0,174,-4,67
-175,91,267,42,-221,179,58,62,17,185,-7,62
-163,88,251,37,-207,169,40,80,34,204,26,77
-135,102,236,16,-186,169,3,108,70,248,62,116
-117,107,224,5,-171,165,-12,103,66,249,57,120
-103,95,199,4,-151,147,-26,76,52,222,54,111
-103,72,175,16,-139,123,-23,60,32,203,49,107
-140,26,166,57,-153,96,-5,44,5,192,31,94
-193,2,195,95,-194,98,13,28,-19,159,-10,70
-245,-18,226,131,-235,104,30,11,-34,136,-35,46
-279,-53,226,166,-252,86,41,-1,-61,116,-67,24
-282,-52,230,167,-256,88,39,-9,-72,109,-68,21
-283,-51,232,166,-257,90,38,-4,-68,101,-76,14
-285,-45,240,165,-262,97,52,-20,-85,89,-95,6
-283,-39,244,161,-263,102,60,-6,-66,105,-78,9
-324,-45,279,184,-301,117,110,-12,-98,63,-119,-23
-310,20,330,145,-320,175,149,109,74,225,3,29
3,125,122,-64,-60,124,28,490,550,740,471,366
583,422,-161,-502,372,130,-371,477,947,1473,1254,1014
569,377,-193,-473,381,92,-661,-374,244,1006,988,999
151,-180,-330,15,241,-255,-580,-1067,-958,-374,-154,342
80,-241,-321,81,201,-281,-451,-793,-838,-447,-285,195
-61,-30,31,45,-46,1,-248,-337,-330,-73,-108,177
-187,-4,183,95,-185,89,-52,-119,-153,3,-105,81
-206,5,211,100,-208,107,19,-13,-43,87,-63,69
-243,-8,235,126,-239,113,68,20,-43,80,-94,29
-234,-8,226,121,-230,109,78,59,-5,110,-76,29
-248,-16,232,132,-240,108,91,62,-11,105,-91,16
-255,-22,234,138,-244,106,98,68,6,120,-82,15
-268,-26,242,147,-255,108,97,76,10,121,-82,8
-271,-33,239,152,-255,103,103,84,19,126,-81,1
-268,-28,240,148,-254,106,104,90,36,137,-78,3
-267,-27,240,147,-253,106,106,108,45,145,-77,6
-261,-23,239,142,-250,108,108,120,60,153,-70,11
-265,-21,245,143,-255,112,111,126,60,147,-70,3
-267,-19,248,143,-257,115,110,140,77,157,-64,15
-257,-13,245,135,-251,116,109,145,87,166,-60,27
-253,-8,245,130,-249,118,105,159,100,161,-62,21
-245,-2,243,123,-243,120,102,173,118,158,-66,18
-236,3,239,117,-238,121,100,181,122,155,-61,15
-231,10,240,110,-236,125,97,197,129,149,-59,9
-233,4,237,114,-235,120,95,216,140,155,-54,15
-240,-8,232,124,-236,112,92,227,143,149,-58,22
-233,-4,229,118,-231,112,90,242,133,135,-84,6
-225,1,226,112,-225,113,90,242,124,118,-99,-5
-216,4,221,106,-219,112,85,233,116,82,-128,-34
-219,2,221,108,-220,111,85,228,103,38,-171,-60
-230,-4,226,117,-227,111,84,218,76,-13,-208,-73
-231,-7,224,118,-227,109,75,214,52,-58,-250,-100
-239,-13,225,126,-232,106,66,196,35,-91,-270,-97
-238,-14,224,126,-231,105,58,163,11,-96,-266,-85
-237,-8,229,122,-233,110,48,124,0,-84,-247,-80
-246,-1,246,123,-246,122,41,93,-4,-68,-211,-62
-237,6,243,115,-240,124,40,83,-3,-36,-170,-37
-241,13,253,114,-247,132,39,70,7,-2,-130,-11
-253,19,272,117,-263,146,36,62,13,28,-99,4
-252,16,268,118,-261,142,34,65,28,42,-86,16
-256,15,271,120,-264,142,38,65,41,39,-83,22
-260,9,269,125,-264,139,45,65,39,40,-77,20
-254,15,269,119,-262,141,45,65,42,40,-71,20
-249,32,280,108,-265,156,45,64,49,40,-66,20
-250,29,279,111,-265,154,45,71,60,48,-61,20
-250,26,275,111,-263,151,45,79,69,47,-60,20
-250,24,274,113,-262,149,43,75,70,38,-60,16
-249,20,269,115,-259,145,39,75,68,34,-60,11
-251,19,270,116,-261,144,40,74,65,25,-59,6
-254,15,270,120,-263,142,40,69,62,22,-62,2
-258,13,270,122,-264,141,40,70,60,22,-65,-2
-260,10,269,125,-264,140,40,68,57,3,-70,-7
-265,6,271,129,-268,138,35,63,52,-10,-82,-11
-277,5,282,136,-280,143,35,60,49,-18,-86,-21
-280,5,285,137,-283,145,34,56,46,-27,-85,-14
-280,5,285,137,-283,145,30,52,41,-36,-85,-15
-280,5,285,137,-283,145,30,49,41,-45,-85,-22
-280,5,285,137,-283,145,27,45,45,-46,-84,-14
-280,5,284,137,-282,144,25,45,45,-59,-96,-40
-275,5,281,135,-278,142,21,45,45,-80,-107,-52
-276,4,279,136,-278,141,20,45,45,-90,-104,-52
-283,-2,280,143,-281,139,15,45,45,-91,-106,-57
-282,-2,279,142,-280,138,16,43,44,-88,-103,-53
-279,1,280,139,-279,141,25,39,40,-104,-112,-57
-293,-2,291,147,-292,145,25,37,40,-117,-122,-60
-302,-6,296,153,-299,145,24,34,40,-114,-117,-60
-305,-11,294,157,-299,141,21,30,40,-115,-115,-60
-310,-15,295,162,-302,140,19,31,41,-120,-112,-60
-305,-10,295,157,-299,142,21,33,39,-125,-109,-60
-295,-1,294,147,-295,147,25,37,42,-125,-107,-60
-279,12,290,134,-285,151,24,32,36,-121,-98,-61
-275,17,292,129,-284,154,30,44,50,-116,-94,-60
-275,40,316,117,-296,178,47,60,75,-109,-86,-61
-262,64,326,98,-294,195,57,58,75,-103,-79,-58
-246,76,322,85,-284,198,59,83,99,-99,-73,-48
-243,73,316,85,-280,194,38,97,123,-82,-44,-28
-221,81,301,70,-261,191,-1,116,144,-69,-24,-4
-178,111,289,33,-234,200,-32,126,153,-71,-25,-10
-173,98,272,37,-223,185,-48,105,139,-69,-25,-19
-179,75,254,51,-216,164,-41,92,128,-71,-23,-28
-186,44,229,71,-208,136,-38,74,115,-88,-34,-36
-247,-1,246,124,-247,122,-27,60,89,-123,-69,-43
-305,-17,288,161,-296,135,-8,40,57,-147,-88,-75
-319,-36,282,177,-300,123,1,30,30,-186,-129,-116
-321,-40,282,180,-301,121,0,28,20,-192,-142,-123
-309,-32,278,170,-293,122,-1,33,29,-187,-137,-126
-308,-33,275,170,-291,120,3,26,9,-210,-156,-128
-297,-19,278,158,-287,129,-3,34,29,-188,-135,-127
-352,-30,322,191,-337,146,52,27,-1,-242,-186,-182
-389,17,405,185,-397,211,101,86,101,-132,-110,-146
-164,83,246,40,-205,164,37,417,498,274,260,97
335,339,4,-337,165,171,-300,563,972,1054,1086,759
465,491,26,-478,219,259,-642,-145,559,966,1162,977
67,11,-56,-38,61,-23,-602,-1002,-740,-486,-43,279
-71,-259,-187,165,58,-223,-473,-888,-906,-881,-436,-25
-141,-107,34,124,-87,-37,-304,-400,-347,-466,-212,-23
-302,-61,241,181,-272,90,-124,-146,-122,-335,-206,-109
-331,-50,280,191,-305,115,-51,-19,11,-221,-155,-138
-347,-47,300,196,-323,126,-2,13,19,-239,-170,-184
-332,-39,292,185,-312,126,12,57,64,-213,-149,-175
-327,-31,296,178,-311,132,23,65,68,-214,-157,-197
-330,-36,295,183,-313,129,33,78,82,-208,-155,-196
-334,-40,294,186,-314,127,42,92,96,-196,-153,-193
-342,-41,301,191,-322,130,46,92,84,-197,-158,-194
-345,-39,306,192,-325,133,44,99,96,-184,-148,-186
-343,-40,303,192,-323,131,46,109,103,-184,-147,-193
-339,-40,299,189,-319,130,45,114,114,-173,-138,-201
-333,-36,297,184,-315,130,44,118,120,-169,-135,-205
-322,-29,293,175,-307,132,42,135,132,-158,-128,-196
-321,-22,299,171,-310,138,37,138,138,-150,-123,-194
-322,-17,305,169,-314,144,37,151,147,-143,-120,-189
-307,-7,300,157,-303,146,30,165,162,-138,-115,-184
-305,-9,295,157,-300,143,32,170,169,-133,-114,-181
-310,-18,291,164,-300,136,26,184,174,-128,-108,-180
-293,-7,286,149,-289,139,27,199,188,-123,-105,-180
-279,6,285,136,-282,145,22,211,197,-119,-110,-180
