I,II,III,aVR,aVL,aVF,V1,V2,V3,V4,V5,V6
-36,-19,18,27,-27,0,40,0,-34,-25,-25,-74
-43,-28,15,35,-28,-7,49,14,-36,-25,-25,-98
-55,-7,49,31,-52,21,65,29,3,-21,-25,-101
-34,5,39,15,-37,22,67,2,6,-19,-23,-98
-54,16,70,19,-62,43,82,-5,5,-16,-27,-102
-30,16,46,7,-38,31,106,-1,5,-14,-22,-97
-52,5,57,24,-55,31,117,4,5,-21,-29,-104
-73,-13,60,43,-66,23,115,9,4,-19,-21,-96
-65,-6,59,35,-62,26,134,12,16,-21,-28,-103
-79,17,96,31,-88,56,143,18,21,-21,-26,-99
-62,-14,49,38,-55,17,142,19,-9,-26,-41,-97
-93,-39,54,66,-73,7,155,11,-8,-26,-53,-115
-87,-58,29,72,-58,-14,126,-2,-23,-39,-43,-103
-47,-74,-27,61,-10,-50,93,-5,-61,-74,-83,-130
-41,-44,-3,42,-19,-23,16,-40,-67,-65,-39,-71
-113,-12,101,62,-107,44,52,8,-6,-16,-74,-175
-47,332,379,-143,-214,356,109,173,359,450,520,256
677,546,-130,-612,403,208,-136,204,691,786,1094,1139
984,250,-734,-616,859,-242,-265,93,367,227,351,843
256,26,-231,-141,244,-102,-29,37,-347,-474,-427,-35
-155,-135,20,145,-87,-57,72,-167,-751,-727,-626,-376
-108,-99,10,104,-59,-44,-35,-310,-510,-459,-395,-269
-120,-7,113,63,-116,53,41,-114,-151,-142,-122,-177
-152,-76,75,114,-113,-1,125,-31,-87,-97,-107,-190
-167,-68,99,118,-133,15,127,-36,-69,-75,-83,-170
-157,-72,85,114,-121,6,151,-14,-46,-72,-89,-173
-158,-66,92,112,-125,13,143,-16,-41,-65,-79,-160
-145,-58,87,101,-116,14,141,7,-39,-63,-72,-160
-140,-72,68,106,-104,-2,131,4,-40,-61,-74,-160
-150,-93,57,121,-103,-18,126,-7,-48,-66,-85,-159
-165,-126,39,145,-102,-43,118,-22,-60,-70,-93,-161
-143,-104,39,123,-91,-32,97,-20,-46,-48,-63,-159
-82,-56,26,69,-53,-15,78,-13,-38,-47,-30,-143
-62,-38,25,50,-43,-7,59,-10,-33,-43,-25,-117
-37,-28,9,33,-23,-9,55,-2,-30,-48,-36,-108
-45,-19,26,32,-36,4,55,2,-27,-64,-37,-97
-86,-18,68,51,-76,25,54,10,-22,-65,-43,-88
-78,-13,64,45,-71,25,56,43,-21,-66,-45,-73
-63,-10,52,36,-57,21,54,48,-23,-65,-50,-54
-52,-5,47,28,-49,21,59,4,-34,-65,-49,-46
-42,-8,34,25,-38,13,59,-15,-39,-63,-40,-39
-51,-23,28,36,-39,3,54,-15,-32,-58,-30,-33
-54,-17,37,35,-46,10,61,-16,-27,-41,-12,-25
-41,-10,31,25,-35,10,54,-12,-22,-10,1,-22
-52,1,54,25,-53,27,66,-11,-15,-19,6,-17
-50,-1,49,25,-50,24,82,-8,-26,-34,-9,-32
-20,-40,-21,30,1,-30,70,-23,-46,-44,-35,-69
-12,-39,-27,25,8,-33,69,-38,-44,-46,-34,-78
-35,-20,15,27,-24,-3,61,-33,-35,-18,0,-49
-43,-9,34,26,-38,12,55,-32,-36,-19,-8,-53
-19,21,40,-1,-30,30,60,-27,-34,-11,12,-37
-16,12,28,2,-23,20,58,-27,-36,-14,-1,-36
-28,15,43,6,-36,29,69,-21,-35,-7,14,-29
-4,25,29,-11,-17,27,60,-16,-33,-1,23,-14
-11,59,69,-24,-40,64,78,4,-13,23,37,-25
43,67,25,-55,9,46,59,16,19,43,77,38
-84,57,141,13,-113,99,130,98,115,103,24,-104
73,433,360,-253,-144,396,107,190,575,736,888,527
905,639,-266,-771,586,186,-244,73,785,899,1281,1465
710,318,-393,-514,551,-38,-208,-85,-22,-112,58,769
-22,119,141,-48,-82,130,-67,-331,-736,-692,-562,-108
-39,41,80,-1,-59,60,-148,-411,-573,-471,-369,-164
-94,-32,62,63,-78,15,-10,-185,-253,-213,-198,-184
-141,-78,63,109,-102,-7,77,-97,-145,-121,-134,-188
-134,-122,11,128,-72,-55,97,-67,-116,-101,-136,-176
-146,-106,40,126,-93,-33,125,-24,-91,-81,-102,-168
-135,-88,47,111,-91,-20,103,-10,-77,-74,-94,-168
-163,-107,57,135,-110,-25,94,2,-68,-65,-77,-172
-145,-105,41,125,-93,-32,88,1,-57,-57,-68,-167
-131,-89,42,110,-86,-23,107,9,-55,-50,-61,-173
-114,-80,34,97,-74,-23,110,12,-51,-42,-53,-167
-86,-59,27,72,-56,-16,103,14,-50,-33,-48,-174
-95,-62,32,78,-63,-15,103,10,-39,-25,-40,-185
-129,-85,44,107,-86,-20,96,10,-25,-16,-34,-177
-118,-78,39,98,-78,-19,96,10,-10,-10,-29,-171
-100,-67,33,83,-66,-17,97,15,20,-6,-23,-165
-93,-64,29,79,-61,-17,89,30,26,-2,-19,-158
-69,-49,21,59,-45,-14,83,38,21,4,-10,-153
-89,-64,24,76,-56,-20,74,23,19,2,-19,-149
-93,-72,21,82,-57,-25,68,14,15,-19,-41,-152
-50,-37,13,44,-31,-12,60,16,10,-13,-11,-121
-35,-28,6,31,-20,-11,56,14,14,4,10,-87
-24,-22,1,23,-12,-10,53,16,27,7,11,-93
-11,-9,3,10,-7,-3,50,13,20,16,34,-91
-10,-1,9,5,-10,4,48,9,15,17,26,-101
-15,21,35,-3,-25,28,42,4,7,17,26,-96
-33,15,47,9,-40,31,58,1,2,5,8,-115
-65,-15,50,40,-58,17,52,-7,-7,7,13,-121
-77,-43,34,60,-55,-5,71,3,-21,-7,-3,-118
-78,-34,44,56,-60,5,101,18,14,0,-6,-125
-51,-27,23,39,-37,-2,91,14,20,6,-3,-110
-82,-29,53,55,-67,12,104,15,34,11,-13,-137
-76,-7,70,41,-73,31,92,2,32,44,43,-96
-83,29,112,27,-98,70,149,71,125,107,3,-190
-61,349,409,-144,-235,379,192,216,570,686,761,258
626,549,-77,-588,351,236,-117,135,822,995,1368,1269
884,298,-586,-590,735,-144,-252,-35,351,216,398,1024
156,43,-113,-99,135,-35,23,-83,-393,-563,-510,-1
-145,-85,59,115,-102,-13,1,-257,-625,-648,-560,-309
-96,-75,21,85,-59,-27,-66,-246,-315,-309,-269,-239
-132,-65,67,99,-100,1,44,-58,-91,-97,-102,-218
-126,-74,52,100,-89,-11,54,-43,-56,-78,-99,-207
-139,-67,72,103,-105,2,63,-23,-36,-55,-81,-211
-138,-78,60,107,-98,-9,59,-17,-42,-55,-90,-210
-141,-73,68,107,-104,-3,76,-15,-37,-44,-79,-209
-142,-79,63,110,-103,-7,88,-1,-34,-40,-81,-213
-146,-81,65,113,-106,-7,82,1,-36,-33,-78,-228
-156,-90,65,122,-110,-12,103,2,-28,-27,-70,-231
-163,-99,64,130,-113,-17,124,4,-17,-25,-65,-228
-150,-88,62,119,-106,-13,128,13,-4,-21,-57,-221
-146,-94,52,119,-99,-20,118,9,2,-20,-52,-209
-161,-128,33,144,-97,-47,113,9,8,-16,-43,-201
-142,-127,15,134,-78,-56,104,5,13,-14,-32,-190
-119,-112,7,115,-63,-52,98,4,22,-8,-23,-184
-82,-80,2,81,-42,-38,89,10,43,2,-12,-153
-64,-39,24,51,-44,-7,76,22,50,9,-3,-131
-48,-26,21,37,-34,-2,65,26,55,19,7,-128
-25,-15,10,20,-18,-2,58,25,72,43,35,-89
-2,6,8,-2,-5,7,54,24,59,51,44,-61
49,9,-41,-29,45,-16,49,31,40,36,34,-59
22,-1,-23,-11,23,-12,45,35,36,24,18,-55
-22,-7,15,14,-18,4,40,21,29,18,15,-59
-65,-49,16,57,-40,-17,45,9,22,11,-10,-90
-85,-39,46,62,-65,3,54,2,17,20,-6,-101
-64,-39,25,51,-44,-7,73,0,8,5,-34,-139
-58,-19,39,38,-48,10,95,7,5,16,-32,-139
-42,-35,7,38,-24,-14,80,5,-3,2,-46,-114
-102,-74,29,88,-65,-22,82,14,-8,0,-51,-140
-51,-70,-19,61,-15,-44,64,-2,-5,-2,-26,-101
-107,-21,86,64,-96,32,123,37,87,64,-39,-185
68,390,323,-229,-128,356,91,163,543,721,841,456
836,611,-225,-723,530,193,-284,42,681,821,1196,1379
732,364,-367,-548,549,-2,-346,-159,-114,-219,-23,786
139,122,-17,-130,78,52,-217,-323,-721,-744,-641,-38
77,16,-61,-46,69,-22,-237,-388,-545,-486,-410,-111
-14,-4,11,9,-12,4,-60,-140,-226,-204,-230,-160
-93,-65,29,79,-61,-18,54,-14,-100,-104,-182,-207
-117,-108,9,112,-62,-49,74,-16,-73,-92,-171,-230
-136,-108,28,122,-82,-40,96,12,-60,-75,-157,-246
-135,-87,47,111,-91,-20,102,8,-60,-81,-155,-243
-161,-96,65,129,-113,-16,126,26,-54,-80,-142,-247
-172,-122,50,147,-111,-36,134,23,-55,-79,-139,-243
-174,-120,54,147,-114,-33,151,35,-55,-82,-126,-247
-165,-117,47,141,-106,-35,139,39,-55,-77,-146,-265
-134,-133,2,134,-68,-65,134,20,-55,-90,-161,-272
-129,-141,-12,135,-58,-76,127,15,-56,-98,-148,-265
-142,-147,-5,144,-68,-76,109,-2,-48,-88,-148,-266
-92,-134,-42,113,-25,-88,95,-4,-12,-74,-122,-249
-38,-81,-42,60,2,-61,77,32,20,-40,-93,-227
-41,-71,-30,56,-6,-50,62,58,41,-23,-83,-213
-29,-55,-26,42,-1,-40,47,57,46,-19,-72,-200
-15,-23,-8,19,-3,-15,39,50,44,-13,-65,-184
-47,-22,25,34,-36,2,32,45,49,-6,-46,-150
-21,-17,4,19,-13,-6,28,28,50,12,-30,-120
29,19,-10,-23,19,4,32,9,51,28,-5,-95
22,36,14,-29,4,24,27,0,43,37,-9,-95
-7,23,29,-8,-18,26,38,-4,40,38,-23,-107
-33,13,45,10,-39,29,61,3,33,20,-30,-116
-63,-16,47,40,-55,15,77,19,28,9,-55,-137
-54,-18,35,36,-44,8,91,21,22,5,-50,-128
-53,-46,7,49,-30,-19,96,20,17,-9,-81,-154
-69,-84,-15,77,-27,-50,95,19,17,-4,-61,-130
-52,-90,-38,71,-7,-63,90,14,10,-32,-90,-135
-57,-46,12,52,-34,-17,93,18,24,-6,-26,-101
-13,-22,-8,17,-2,-15,84,30,38,-4,-50,-104
-59,175,234,-58,-147,204,140,167,319,332,252,-46
342,576,234,-459,54,404,-28,232,810,998,1215,836
999,518,-481,-758,740,18,-354,84,705,689,916,1282
565,202,-363,-383,463,-80,-213,-43,-148,-322,-272,394
0,30,30,-15,-16,30,-89,-237,-722,-722,-632,-252
18,-36,-54,9,36,-45,-183,-304,-519,-473,-416,-228
-60,-10,51,35,-55,20,-59,-132,-205,-188,-208,-210
-111,-36,75,73,-93,19,32,-64,-115,-121,-172,-244
-149,-82,67,115,-107,-7,54,-45,-97,-112,-154,-249
-162,-96,66,128,-113,-14,76,-36,-79,-103,-153,-265
-148,-95,54,121,-101,-20,72,-42,-72,-98,-149,-269
-156,-101,55,128,-105,-23,95,-31,-81,-92,-142,-263
-157,-125,32,140,-94,-46,95,-33,-76,-89,-141,-259
-168,-148,20,158,-94,-64,94,-27,-69,-83,-135,-255
-146,-136,10,141,-78,-63,96,-24,-59,-80,-130,-248
-147,-104,43,125,-94,-30,94,-21,-52,-71,-107,-241
-135,-88,47,111,-90,-21,112,-8,-28,-54,-88,-228
-120,-82,38,101,-79,-22,127,21,4,-32,-66,-208
-110,-67,43,89,-76,-12,124,36,37,-19,-41,-181
-101,-64,37,82,-69,-13,128,43,68,-21,-40,-161
-100,-56,44,78,-72,-6,130,46,71,-18,-39,-160
-84,-66,18,75,-51,-24,130,44,73,-27,-44,-168
-61,-91,-30,77,-15,-61,123,65,77,-29,-58,-172
-21,-57,-36,39,7,-46,63,78,80,-7,-27,-134
10,-17,-27,3,19,-22,30,57,80,3,-1,-95
21,-5,-26,-8,24,-15,33,37,67,5,-3,-84
12,-7,-19,-2,16,-13,27,19,57,11,6,-86
16,1,-15,-8,16,-7,23,6,37,0,-1,-82
-3,-34,-30,19,14,-32,20,-4,9,-31,-36,-89
-23,-53,-29,38,3,-41,23,-33,-24,-40,-39,-112
-24,-44,-20,35,-2,-32,26,-39,-36,-33,-38,-118
-42,-52,-11,47,-15,-31,26,-34,-26,-22,-29,-98
-18,-5,13,12,-16,3,31,-31,-20,-18,-29,-97
-47,-2,45,24,-46,21,31,-27,-6,-7,-18,-90
-51,-15,36,33,-43,10,36,-26,2,-1,-9,-81
-13,19,32,-3,-23,25,47,-15,27,8,0,-90
10,44,35,-27,-13,39,43,-12,25,20,22,-60
-5,34,39,-15,-22,36,90,9,21,10,-23,-110
-15,7,22,4,-19,15,86,2,10,5,17,-86
-10,-3,7,7,-8,2,114,81,47,0,-56,-175
-117,247,363,-65,-240,304,167,278,432,469,469,70
460,493,34,-476,213,263,-60,335,852,936,1179,937
960,281,-679,-620,819,-199,-250,192,577,382,468,855
300,-10,-310,-145,305,-160,-48,15,-262,-455,-457,-45
-64,-126,-61,95,-1,-93,18,-209,-732,-719,-631,-413
-34,-120,-86,77,26,-103,-151,-332,-528,-481,-418,-328
-120,-100,19,110,-69,-40,-42,-159,-215,-207,-183,-275
-106,-99,6,103,-56,-46,50,-75,-120,-138,-158,-278
-131,-82,49,106,-90,-16,44,-67,-103,-93,-122,-268
-127,-77,49,102,-88,-14,81,-28,-73,-74,-89,-268
-129,-64,65,97,-97,1,76,-51,-44,-73,-75,-259
-109,-47,62,78,-85,7,87,-30,-25,-62,-66,-266
-109,-39,71,74,-90,16,86,-21,-30,-65,-59,-276
-123,-41,83,82,-103,21,90,-18,-30,-65,-49,-278
-106,-49,57,78,-81,3,96,-15,-29,-65,-51,-282
-108,-47,61,77,-84,7,122,-9,-31,-65,-49,-285
-127,-73,53,100,-89,-10,128,19,-30,-65,-46,-280
-149,-107,42,127,-95,-32,118,46,-24,-63,-45,-272
-130,-83,47,106,-88,-18,97,39,-7,-56,-44,-266
-115,-72,42,93,-78,-15,46,23,4,-49,-38,-259
-103,-70,33,86,-68,-18,32,25,13,-44,-32,-251
-78,-64,14,71,-45,-25,31,19,26,-34,-28,-243
-44,-60,-16,52,-14,-37,24,26,31,-34,-21,-240
-20,-57,-38,39,9,-47,23,29,29,-45,-18,-220
12,-39,-51,14,32,-44,16,20,30,-29,-3,-182
3,-6,-9,1,7,-8,17,15,49,-5,20,-156
-20,-6,14,13,-17,3,22,7,56,8,21,-145
13,6,-7,-9,10,0,30,1,47,17,17,-144
14,21,6,-18,4,13,34,3,45,18,15,-146
-2,27,29,-13,-16,28,25,6,39,16,11,-160
-19,26,45,-4,-32,36,45,9,36,12,9,-167
-23,13,36,5,-30,24,71,11,25,10,7,-162
-30,-7,22,18,-26,8,83,0,1,5,1,-180
-50,-36,14,43,-31,-11,101,14,-5,-5,-3,-190
-33,-41,-8,37,-13,-24,88,45,-5,-12,-7,-180
-46,-39,7,42,-27,-15,48,33,-10,-23,-14,-178
-82,-41,41,61,-62,0,11,15,-9,-29,-13,-169
-68,-38,30,53,-49,-4,-4,10,-21,-31,-18,-167
-56,-48,8,52,-32,-20,14,2,-25,-28,-12,-158
-61,-60,1,60,-31,-29,35,-4,-20,-32,-19,-156
-44,-41,3,43,-23,-19,42,-10,-18,-28,-12,-147
-26,-46,-20,36,-2,-33,45,-17,-13,-31,-16,-143
-51,-43,8,47,-29,-17,45,-20,-10,-26,-27,-143
-53,-9,44,31,-48,17,53,-20,-6,-18,-25,-134
-34,6,40,14,-38,23,64,-22,-3,-20,-31,-149
-52,3,55,25,-53,29,55,-26,5,-1,-2,-118
-72,-12,60,42,-66,24,66,-25,3,-16,-35,-158
-28,24,52,2,-40,38,50,-9,20,21,28,-101
-53,20,73,16,-63,47,99,48,61,39,-34,-184
-107,260,367,-76,-237,313,194,206,359,402,412,81
538,514,-24,-526,280,245,-46,246,736,818,1107,1025
967,266,-701,-616,834,-217,-266,119,439,302,471,892
284,11,-272,-147,278,-130,-62,43,-356,-466,-398,-18
-143,-114,30,128,-86,-42,-10,-208,-790,-726,-604,-371
-97,-134,-37,116,-30,-86,-162,-340,-553,-490,-406,-309
-93,-79,14,86,-53,-32,-69,-128,-202,-181,-170,-221
-115,-118,-3,117,-56,-61,20,-46,-132,-125,-159,-230
-150,-114,36,131,-93,-38,16,-45,-100,-99,-97,-212
-98,-88,10,93,-54,-38,50,-24,-63,-86,-77,-208
-96,-77,19,87,-58,-29,61,-24,-51,-54,-66,-199
-137,-64,74,100,-105,5,80,-11,-43,-31,-55,-188
-116,-51,65,83,-90,6,80,-9,-29,-43,-52,-182
-84,-35,49,59,-66,7,79,0,-4,-38,-30,-173
-90,-45,45,67,-67,0,81,6,-1,-41,-30,-176
-96,-51,45,73,-70,-3,79,20,6,-39,-29,-174
-90,-50,40,70,-65,-5,82,20,9,-40,-30,-175
-90,-50,40,70,-65,-5,87,14,0,-42,-31,-175
-98,-65,33,82,-66,-16,114,23,-8,-57,-37,-173
-110,-95,15,102,-62,-39,115,48,-18,-74,-53,-168
-85,-81,3,83,-44,-39,63,58,-24,-77,-57,-166
-72,-61,11,66,-41,-25,0,15,-32,-78,-55,-162
-80,-60,20,70,-49,-20,-37,2,-38,-86,-56,-157
-37,-49,-12,43,-12,-30,-36,14,-31,-106,-54,-156
1,-46,-47,23,25,-47,-24,-6,-22,-98,-56,-131
16,-31,-47,8,32,-39,-11,-20,-10,-66,-32,-88
43,12,-30,-27,36,-9,1,-18,23,-31,8,-43
33,16,-17,-24,25,-1,12,-9,45,-5,15,-30
21,24,2,-22,10,13,27,1,46,5,30,-29
55,41,-14,-48,34,14,32,7,51,8,23,-30
20,32,12,-26,3,22,55,17,46,16,19,-30
-14,29,44,-8,-29,36,59,22,32,20,15,-31
-1,31,32,-15,-16,31,63,22,17,9,2,-60
-26,7,34,9,-30,20,92,19,7,0,11,-55
-73,-32,41,52,-57,4,101,13,-11,-26,-24,-80
-81,-44,37,62,-59,-3,79,21,-18,-27,-4,-48
-67,-59,8,63,-38,-25,62,28,-23,-42,-32,-58
-52,-16,36,34,-43,10,23,27,-5,2,49,-41
-21,-24,-3,23,-9,-14,-12,5,-3,-22,-16,-73
-105,148,253,-22,-179,200,68,104,215,250,250,42
467,506,39,-486,214,272,-175,114,683,825,1125,1028
999,425,-574,-712,787,-74,-421,-103,362,326,619,1213
421,174,-247,-297,334,-37,-273,-257,-528,-609,-451,242
73,59,-14,-66,43,23,-246,-392,-681,-627,-466,-91
20,18,-2,-19,10,8,-141,-285,-316,-281,-214,-64
-88,-15,74,51,-81,29,15,-67,-91,-102,-110,-104
-73,-71,2,72,-37,-34,55,-30,-43,-62,-88,-116
-133,-77,57,104,-95,-10,95,-3,-41,-64,-77,-125
-126,-68,57,97,-91,-5,96,-2,-39,-65,-72,-116
-106,-64,42,85,-74,-10,125,9,-41,-66,-73,-123
-131,-98,33,114,-82,-32,106,9,-39,-64,-94,-118
-127,-109,19,118,-72,-45,97,13,-40,-66,-96,-119
-136,-102,34,119,-85,-34,93,36,-36,-63,-80,-113
-167,-104,63,135,-115,-20,62,31,-31,-60,-73,-110
-169,-98,71,134,-120,-13,67,26,-29,-60,-65,-107
-162,-101,61,131,-111,-20,64,20,-23,-55,-63,-101
-112,-94,18,103,-65,-38,65,15,-22,-56,-62,-101
-83,-84,-1,83,-41,-42,66,10,-13,-43,-52,-83
-107,-62,44,84,-75,-9,63,10,6,-14,-17,-63
-103,-47,56,75,-80,4,61,7,17,1,2,-42
-83,-36,47,59,-65,5,57,4,40,6,1,-28
-48,-7,41,27,-44,16,55,8,58,19,12,-12
-15,21,36,-3,-25,28,52,18,58,29,44,34
19,44,25,-32,-3,34,49,27,51,45,50,47
16,54,38,-35,-11,46,56,25,46,47,38,37
0,36,36,-18,-18,36,62,17,26,18,31,34
11,19,9,-15,1,14,50,12,-2,10,21,25
-27,5,32,11,-30,18,27,4,-11,6,18,25
-64,-17,47,40,-55,15,8,-3,-18,-5,6,17
-54,-8,46,30,-50,19,-23,-3,-23,-6,7,24
-46,-9,37,28,-41,13,-28,0,-22,-20,-9,13
-77,-32,45,55,-61,6,-9,2,-16,-13,-6,17
-63,-39,24,51,-43,-7,4,3,-19,-16,-32,15
-34,-22,12,28,-23,-5,21,9,-8,-2,-27,13
-3,-20,-17,12,7,-18,26,-13,-16,-2,-14,21
2,-10,-12,4,7,-11,46,-8,3,5,-22,15
-25,0,25,12,-25,13,40,0,14,24,28,73
-69,39,108,15,-89,73,109,74,113,87,11,-18
-36,376,412,-170,-224,394,177,277,588,665,725,440
664,548,-116,-606,389,216,-46,300,942,976,1222,1266
976,273,-703,-624,839,-215,-181,171,525,294,337,953
212,28,-184,-120,198,-78,70,55,-317,-455,-438,69
-174,-108,66,141,-119,-21,107,-215,-706,-670,-574,-242
-125,-107,18,116,-71,-44,-68,-303,-465,-418,-359,-130
-127,-52,75,89,-100,12,-1,-94,-173,-164,-157,-69
-159,-86,73,122,-115,-7,38,-52,-97,-114,-135,-74
-178,-118,61,148,-119,-28,15,-63,-77,-95,-100,-62
-136,-117,19,126,-77,-49,20,-38,-49,-92,-99,-64
-122,-120,2,121,-62,-59,22,-41,-46,-86,-89,-55
-102,-116,-14,110,-44,-65,53,-27,-44,-82,-84,-53
-109,-109,0,109,-55,-54,47,-29,-41,-78,-80,-44
-104,-103,1,103,-52,-51,39,-21,-41,-72,-72,-36
-106,-82,24,94,-65,-29,51,-18,-29,-41,-41,-24
-118,-49,69,83,-93,10,71,-13,3,-7,-22,0
-87,-24,63,55,-74,19,67,-3,37,2,-5,26
-75,-17,58,46,-66,21,62,9,55,16,19,36
-76,-7,69,41,-72,31,63,21,66,28,31,33
-53,-1,51,27,-52,25,51,27,71,24,32,40
-68,-13,55,40,-61,21,74,35,70,22,28,46
-87,-32,55,59,-71,11,90,40,61,8,27,44
-67,-37,31,52,-49,-3,77,58,49,-17,10,46
-55,-34,22,44,-38,-6,60,59,37,-27,10,43
-34,-33,1,34,-18,-16,8,37,33,-30,16,64
6,-27,-33,11,20,-30,-38,26,36,-28,28,100
19,-34,-53,8,37,-44,-38,13,29,-35,23,84
7,-38,-44,16,26,-41,-13,3,32,-32,6,77
-2,-39,-36,21,17,-37,5,-7,28,-40,-32,56
-40,-48,-9,44,-15,-28,19,-12,31,-25,-34,57
-66,-56,10,61,-37,-23,31,-14,29,-25,-40,55
-54,-18,36,35,-45,9,53,-3,30,-6,-4,46
-16,-24,-8,20,-4,-16,46,4,42,-3,1,59
-59,-11,48,35,-53,19,60,16,53,6,0,44
-24,32,56,-4,-40,43,63,27,82,55,65,123
-66,61,128,2,-97,94,89,39,115,77,12,25
43,409,366,-226,-162,387,130,165,532,642,748,532
824,578,-245,-701,534,166,-225,94,750,820,1136,1386
842,337,-505,-589,673,-84,-340,-95,-9,-129,58,880
167,102,-65,-134,116,19,-153,-212,-653,-716,-573,96
6,-21,-26,8,16,-23,-247,-339,-528,-506,-389,-3
-79,-19,60,49,-69,20,-122,-166,-201,-196,-179,-28
-127,-74,53,100,-90,-10,28,-12,-62,-117,-118,-55
-138,-117,22,127,-80,-47,36,-9,-31,-115,-113,-74
-147,-113,34,130,-90,-40,71,11,-11,-94,-114,-88
-121,-110,11,115,-66,-49,67,-17,-15,-96,-127,-81
-118,-98,20,108,-69,-39,64,-18,-9,-88,-109,-70
-118,-98,19,108,-68,-39,69,-21,-5,-81,-101,-60
-120,-99,21,109,-70,-39,105,-9,4,-64,-84,-54
-132,-101,31,116,-82,-34,106,-1,18,-53,-73,-48
-157,-96,61,127,-109,-17,104,5,42,-46,-64,-45
-152,-94,58,123,-104,-18,106,16,48,-41,-57,-40
-171,-92,79,131,-125,-6,121,18,42,-37,-52,-36
-149,-88,61,118,-105,-13,133,37,47,-30,-44,-31
-130,-86,44,108,-86,-21,102,47,43,-25,-38,-22
-130,-82,48,106,-89,-17,77,33,47,-18,-28,-14
-99,-63,36,81,-67,-14,29,22,44,-7,-17,-6
-80,-42,38,61,-59,-2,-21,17,47,1,-9,1
-53,-25,28,39,-40,2,-29,11,83,15,9,25
-56,-25,31,41,-43,2,-20,6,86,31,25,49
-51,-25,27,38,-39,1,-11,0,96,56,60,76
13,-25,-38,6,26,-31,-6,-5,113,61,63,89
14,-25,-39,6,27,-32,7,2,109,58,44,79
-12,-24,-12,18,1,-18,27,11,110,55,40,85
-6,-24,-18,15,6,-20,48,20,110,50,28,70
-7,-7,1,7,-4,-3,50,25,111,53,45,82
-32,-14,18,23,-25,2,50,34,104,41,17,70
-19,17,37,1,-28,27,51,36,105,52,46,89
23,23,1,-23,11,12,52,33,92,35,12,78
-43,23,66,10,-55,44,85,37,101,59,49,89
-47,-9,38,28,-43,14,97,34,76,26,14,95
-80,117,197,-18,-139,157,181,209,331,300,231,84
266,542,276,-404,-5,409,47,346,864,961,1172,894
947,514,-433,-730,690,40,-333,125,771,732,976,1402
567,178,-389,-372,478,-105,-235,13,48,-143,-118,559
-114,13,127,50,-120,70,-44,-122,-571,-602,-530,-152
-150,-91,60,120,-105,-15,-145,-329,-568,-514,-434,-185
-127,-90,37,108,-82,-26,-63,-158,-213,-214,-183,-117
-105,-111,-6,108,-49,-58,32,-52,-104,-122,-126,-120
-136,-148,-12,143,-62,-79,41,-65,-89,-101,-106,-111
-141,-134,7,137,-74,-63,66,-24,-47,-85,-83,-103
-137,-121,16,129,-77,-52,75,-23,-33,-58,-80,-98
-159,-115,45,136,-102,-35,112,-6,-17,-27,-55,-80
-127,-102,26,114,-76,-38,116,-4,-6,-29,-50,-70
-113,-78,34,96,-73,-22,110,7,23,-9,-33,-69
-118,-83,36,100,-77,-23,111,12,41,0,-37,-70
-142,-94,48,118,-95,-23,103,22,41,8,-34,-71
-100,-79,20,89,-60,-29,108,19,40,2,-30,-75
-88,-106,-19,97,-34,-62,128,42,39,-7,-31,-76
-119,-132,-13,126,-53,-72,117,103,35,-12,-29,-72
-81,-119,-37,100,-22,-78,66,98,34,-22,-23,-65
-60,-111,-52,85,-4,-81,26,54,38,-28,-18,-56
-49,-99,-50,74,1,-75,12,21,40,-26,-13,-48
-44,-92,-48,68,2,-69,8,15,41,-15,-7,-41
-24,-80,-56,52,16,-68,2,19,45,-5,-1,-19
8,-76,-84,34,46,-79,-3,14,46,5,7,15
23,-53,-76,15,49,-64,-11,12,49,22,28,41
33,-23,-56,-5,45,-39,8,9,69,47,47,46
-8,-25,-17,16,5,-21,47,22,88,56,49,54
-4,-19,-16,11,6,-17,52,27,83,49,53,50
1,-13,-14,6,8,-13,41,19,88,45,46,25
-44,-5,39,24,-41,17,64,17,90,55,56,35
-37,0,37,19,-37,18,96,10,90,62,43,27
-24,4,29,9,-27,16,96,7,79,55,40,49
-33,-36,-3,35,-15,-19,98,8,48,25,12,55
-42,-67,-25,55,-8,-46,110,41,54,34,24,41
-29,-71,-42,50,7,-57,73,72,60,33,21,49
-33,-64,-31,49,-1,-47,42,58,69,37,8,16
-33,-47,-14,40,-9,-31,20,31,41,41,74,55
-71,-18,53,45,-62,17,37,66,122,97,25,-42
3,344,341,-174,-169,342,92,236,587,710,801,427
661,524,-137,-592,399,193,-164,211,859,1002,1348,1355
789,212,-578,-500,683,-183,-290,5,318,173,295,982
77,-18,-94,-30,86,-56,-34,-108,-464,-599,-579,8
-99,-108,-9,104,-45,-58,-85,-299,-636,-622,-554,-193
-60,-105,-44,83,-8,-75,-120,-255,-311,-282,-244,-75
-132,-103,29,117,-80,-37,43,-45,-79,-77,-99,-55
-125,-108,16,116,-70,-46,64,-31,-32,-46,-94,-52
-122,-101,21,111,-71,-40,98,-20,-20,-27,-69,-50
-113,-109,4,111,-58,-53,119,-16,-3,-15,-76,-46
-118,-93,25,105,-71,-34,116,-20,-2,-22,-62,-44
-114,-126,-13,120,-50,-69,126,1,-21,-54,-61,-64
-123,-142,-19,133,-51,-81,125,51,-3,-49,-55,-67
-113,-126,-13,120,-50,-69,109,75,19,-36,-49,-54
-145,-144,1,145,-73,-71,68,58,19,-29,-47,-50
-151,-125,26,138,-89,-49,46,53,29,-16,-40,-39
-123,-103,20,113,-71,-41,42,37,31,-11,-38,-37
-78,-103,-26,91,-26,-64,39,27,40,0,-29,-29
-50,-100,-50,76,0,-75,36,20,59,25,6,0
-43,-78,-34,61,-4,-56,31,19,73,31,13,20
-25,-48,-23,37,-1,-35,31,28,101,53,31,38
-49,-57,-9,53,-20,-33,35,35,122,87,59,44
-9,-49,-40,29,16,-44,38,41,118,89,52,56
33,-26,-59,-3,46,-43,41,46,126,94,61,89
54,2,-53,-28,54,-25,44,45,145,98,70,127
72,22,-50,-47,61,-14,46,45,144,107,89,148
52,9,-43,-30,47,-16,52,45,119,98,85,130
18,-18,-36,0,27,-27,62,45,91,66,49,120
-36,-61,-25,49,-5,-43,50,42,69,39,20,89
-64,-77,-12,71,-25,-44,32,39,61,26,4,59
-84,-74,10,79,-46,-32,37,41,57,22,0,68
-107,-76,32,91,-69,-22,38,38,49,14,-8,73
-99,-74,25,86,-61,-25,30,18,46,8,-16,66
-68,-76,-7,72,-30,-41,26,0,49,0,-23,58
-61,-71,-10,67,-25,-40,20,-4,52,7,-19,89
-24,-57,-32,41,4,-44,15,-11,54,27,-2,119
-9,-43,-34,26,13,-38,34,-14,59,47,9,115
-21,-35,-14,29,-3,-24,62,-7,72,60,18,115
-27,-31,-4,29,-11,-18,66,-3,83,60,24,115
-31,-29,2,30,-16,-14,64,2,79,65,22,115
2,-23,-25,11,14,-24,70,9,76,64,16,116
-31,-23,8,27,-19,-7,69,13,70,59,13,113
-33,-15,18,23,-25,2,72,20,67,62,7,100
-19,-25,-6,22,-6,-16,72,27,58,46,3,85
-52,-71,-18,62,-17,-45,46,37,26,13,-21,76
-39,-81,-42,60,1,-61,26,40,21,0,-50,71
-30,-68,-38,49,4,-53,19,45,33,-10,-55,68
-25,-66,-42,45,9,-54,10,49,46,-13,-53,61
-17,-56,-39,37,11,-47,-1,16,47,-7,-47,60
-10,-51,-41,31,15,-46,-3,-1,34,-4,-47,54
-28,-67,-39,48,6,-53,-4,-3,26,1,-38,55
-32,-66,-34,49,1,-50,-7,-4,19,-1,-49,56
1,-45,-46,22,24,-45,-1,5,23,2,-63,53
-17,-43,-25,30,4,-34,5,8,32,6,-56,60
-35,-43,-8,39,-14,-25,19,16,29,3,-66,45
-13,-32,-18,23,3,-25,19,8,26,4,-51,59
-31,-40,-10,36,-10,-25,38,13,24,-3,-71,39
-42,-20,22,31,-32,1,37,6,19,10,-44,61
-78,-34,44,56,-61,5,43,8,22,7,-67,39
-83,-11,71,47,-77,30,37,2,24,18,-44,56
-26,-14,12,20,-19,-1,50,12,37,19,-61,21
-129,115,243,7,-186,179,166,149,227,243,130,53
256,490,234,-373,11,361,-16,207,587,760,989,979
886,402,-483,-644,684,-40,-306,79,553,609,899,1400
509,107,-402,-308,455,-147,-238,2,-26,-155,-131,542
-100,-108,-8,104,-46,-58,-89,-84,-621,-689,-673,-162
-129,-223,-94,177,-17,-158,-144,-302,-716,-685,-648,-234
-55,-103,-48,79,-3,-75,-153,-250,-341,-285,-292,-58
-52,-95,-43,74,-4,-69,-33,-68,-105,-94,-152,-6
-47,-82,-34,65,-6,-58,4,-57,-80,-66,-129,11
-31,-51,-20,41,-5,-35,15,-37,-57,-31,-97,20
-60,-80,-20,70,-19,-50,16,-33,-53,-36,-106,20
-75,-77,-2,77,-37,-39,25,-27,-31,-21,-87,34
-67,-64,3,65,-35,-31,38,-18,-15,-19,-90,35
-87,-58,29,73,-58,-15,39,-14,-6,-14,-82,38
-103,-61,42,82,-72,-10,53,-5,6,-15,-86,28
-107,-59,48,83,-78,-5,68,4,17,-16,-84,26
-75,-63,13,69,-44,-25,88,18,12,-14,-86,19
-66,-83,-17,75,-25,-49,92,33,3,-32,-92,13
-71,-107,-37,90,-17,-72,81,64,-2,-56,-89,11
-60,-94,-34,77,-12,-64,27,59,-11,-61,-90,20
-52,-92,-40,72,-6,-66,-39,15,-18,-59,-90,30
-21,-74,-53,48,16,-64,-64,-25,-17,-60,-90,39
3,-45,-48,21,25,-46,-59,-24,-9,-50,-91,50
5,-49,-54,22,30,-51,-46,3,-3,-42,-83,48
25,-28,-53,2,40,-41,-41,27,20,-33,-76,71
69,-6,-75,-31,72,-40,-36,37,42,-19,-62,108
74,17,-57,-45,65,-20,-34,31,49,3,-26,146
69,30,-39,-49,54,-4,-29,28,66,23,-3,165
81,40,-41,-60,60,0,-27,25,77,39,10,155
82,55,-27,-68,54,13,-19,20,75,54,23,150
83,50,-33,-66,58,8,6,19,75,62,31,141
11,36,24,-23,-7,30,28,13,76,65,37,129
-41,18,60,11,-51,39,52,10,64,41,10,105
-64,-33,31,48,-47,-1,74,32,42,22,-23,88
-62,-56,6,59,-34,-24,58,37,27,20,-26,90
-10,-24,-14,17,3,-19,33,26,17,13,-20,90
-7,-24,-18,16,6,-21,-15,-1,-2,9,-19,91
-5,-13,-8,9,2,-10,-82,-55,-20,-1,-15,88
0,-2,-2,1,1,-1,-87,-84,-18,12,-9,110
46,6,-41,-26,44,-17,-75,-61,6,29,-8,129
91,26,-66,-58,78,-20,-53,-35,40,48,36,136
88,48,-40,-68,64,4,-11,-29,58,59,43,131
112,72,-40,-91,75,16,-18,-23,67,64,43,129
110,62,-49,-85,79,6,-21,-15,64,63,36,122
81,71,-11,-76,46,30,-3,-10,65,70,33,117
79,72,-7,-75,43,32,2,-1,75,70,34,119
25,60,35,-43,-5,47,17,13,87,68,14,100
10,49,40,-30,-15,44,35,11,84,76,24,104
-6,12,18,-3,-12,15,75,39,86,60,-30,39
-3,22,24,-10,-14,23,65,44,84,86,33,100
-54,-10,44,32,-48,17,99,105,103,56,-54,-27
-107,247,354,-70,-231,300,158,273,436,446,436,268
644,532,-112,-588,378,209,-170,220,790,860,1162,1288
1036,279,-756,-657,896,-238,-418,54,426,281,447,1126
286,11,-275,-148,280,-132,-195,-83,-423,-535,-453,174
-55,-118,-62,87,4,-90,-142,-328,-784,-751,-617,-167
-8,-90,-82,49,37,-86,-193,-306,-422,-408,-365,-96
-49,-25,24,37,-36,0,-59,-80,-90,-109,-116,-20
-38,-75,-36,57,0,-55,1,-42,-35,-64,-115,-33
-57,-64,-7,61,-25,-36,32,-33,8,-37,-89,-20
-95,-69,26,82,-60,-21,61,-22,28,-39,-82,-21
-113,-63,50,88,-81,-6,55,-18,27,-24,-56,-15
-76,-32,44,53,-60,6,64,-5,38,-15,-46,-17
-76,-32,44,53,-60,5,65,-4,46,0,-45,-29
-75,-27,48,50,-61,10,60,15,45,9,-35,-24
-84,-36,48,60,-66,6,79,11,44,2,-33,-23
-122,-70,52,96,-87,-8,88,22,46,1,-25,-18
-112,-68,45,90,-78,-11,60,31,44,-4,-21,-15
-96,-50,46,72,-70,-2,44,15,45,-8,-11,-10
-78,-42,36,60,-57,-3,-18,-1,45,-9,-7,-7
-45,-23,22,33,-33,-1,-90,-40,45,-19,2,1
-18,-4,15,11,-16,5,-92,-48,45,-24,12,8
-22,-16,7,19,-14,-4,-82,-32,44,-15,10,12
-9,-7,2,8,-5,-3,-76,-24,56,-10,6,35
23,12,-11,-18,17,0,-69,-15,62,-1,4,38
70,36,-33,-53,51,2,-63,-10,60,3,-1,46
80,54,-26,-67,53,14,-55,-2,60,15,6,74
47,27,-19,-37,33,4,-50,4,66,36,18,83
40,31,-9,-35,24,11,-40,10,87,44,31,84
13,31,18,-22,-3,24,-25,4,80,44,31,75
-13,18,31,-3,-23,25,2,1,59,32,21,66
-31,10,41,10,-36,25,37,-5,58,22,13,55
-86,-37,49,62,-67,6,86,1,37,17,-20,42
-98,-62,36,80,-67,-13,98,27,8,-9,-52,24
-52,-56,-4,54,-24,-30,61,42,2,-40,-50,3
-11,-52,-42,32,16,-47,12,36,-13,-52,-41,-4
-2,-48,-45,25,22,-46,-46,-23,-37,-47,-35,1
-13,-43,-31,28,9,-37,-68,-58,-37,-37,-24,10
-14,-38,-23,26,5,-30,-45,-28,1,-29,-21,23
-28,-31,-3,30,-13,-17,-13,-1,35,-5,-5,51
-11,-23,-12,17,1,-18,8,25,54,19,3,63
4,-21,-25,9,15,-23,4,42,71,32,11,75
7,-8,-15,1,11,-11,5,37,70,30,11,73
-13,-13,0,13,-6,-7,13,37,69,29,6,59
-8,-20,-12,14,2,-16,5,30,64,32,17,71
25,11,-14,-18,19,-2,25,34,66,26,-2,43
16,26,11,-21,2,18,16,23,61,36,25,69
1,26,24,-13,-12,25,51,22,61,22,-17,27
-9,56,65,-24,-37,60,68,30,57,39,26,61
-42,12,54,15,-48,33,42,63,61,24,-27,2
-136,197,333,-30,-235,264,132,211,330,340,300,114
450,550,100,-500,175,325,-115,228,723,845,1125,1093
1046,393,-653,-719,850,-130,-436,67,529,458,681,1235
447,76,-371,-261,409,-147,-244,-56,-301,-400,-315,272
-91,-101,-10,96,-40,-56,-98,-271,-805,-738,-582,-191
-73,-130,-57,102,-8,-94,-184,-373,-560,-490,-405,-153
-68,-23,45,45,-56,11,-107,-155,-175,-148,-124,-67
-69,-49,20,59,-45,-14,-15,-50,-53,-65,-82,-62
-80,-65,16,72,-48,-24,-6,-63,-42,-49,-61,-53
-101,-59,42,80,-71,-8,16,-45,-26,-37,-34,-42
-94,-57,37,76,-65,-10,24,-43,-10,-31,-33,-43
-86,-42,44,64,-65,1,48,-15,14,-19,-22,-36
-96,-60,35,78,-65,-12,53,-1,25,-17,-26,-36
-92,-48,44,70,-68,-2,43,12,27,-10,-15,-43
-87,-52,35,69,-60,-9,38,24,21,-10,-17,-45
-88,-72,16,80,-52,-28,28,37,20,-4,-17,-36
-120,-73,47,97,-83,-13,24,39,14,-1,-4,-33
-97,-59,37,78,-67,-11,11,26,20,6,11,-26
-81,-41,41,60,-61,0,-2,20,48,36,19,-21
-47,-31,16,39,-31,-8,-26,9,62,51,26,-15
-1,-21,-20,11,10,-20,-44,2,60,50,39,-5
-8,-17,-9,13,1,-13,-48,-12,54,50,52,4
29,19,-10,-24,19,4,-58,-16,71,52,57,15
44,69,26,-57,9,47,-50,-8,83,56,67,30
45,69,24,-57,10,46,-42,-4,90,55,73,50
50,56,6,-54,22,31,-36,3,104,56,74,63
58,62,4,-60,27,33,-29,8,98,54,81,73
72,62,-9,-67,40,26,-19,12,105,68,77,73
38,58,21,-48,8,39,5,23,117,89,72,60
16,52,36,-35,-10,44,29,32,110,77,60,41
-3,51,53,-24,-28,52,39,30,94,66,55,26
-38,23,60,7,-49,41,61,18,53,43,33,10
-44,-27,17,36,-30,-5,74,20,17,-5,-15,-34
-78,-46,32,62,-55,-7,63,49,14,-28,-27,-47
-77,-39,37,58,-57,-1,35,46,16,-25,-35,-45
-60,-29,30,45,-45,1,-19,1,5,-11,-13,-23
-55,-33,21,44,-38,-6,-36,-19,-4,-16,-26,-27
-30,-11,19,21,-24,4,-34,-26,8,6,13,-6
-16,-35,-18,26,1,-26,-35,-44,10,-6,11,-12
-3,-10,-8,7,3,-9,-26,-35,36,28,50,-1
16,23,8,-20,3,16,-34,-22,63,43,41,11
-88,158,246,-35,-168,202,68,89,217,227,178,-6
319,557,237,-438,41,397,-63,208,715,863,1084,840
1089,547,-542,-818,815,3,-400,101,760,725,1006,1383
645,197,-448,-421,546,-125,-239,-44,-105,-250,-147,481
20,82,62,-51,-21,71,-117,-282,-660,-622,-484,-131
49,68,19,-59,15,43,-218,-364,-423,-359,-264,-118
-57,35,93,11,-76,64,-58,-132,-125,-119,-91,-133
-93,-26,67,60,-80,20,26,-45,-50,-64,-54,-128
-116,-90,25,103,-70,-32,46,-16,-46,-56,-51,-136
-107,-84,23,96,-65,-31,67,11,-31,-62,-56,-134
-107,-92,15,100,-61,-38,39,25,-29,-65,-64,-130
-134,-113,21,123,-77,-46,41,32,-25,-55,-57,-127
-98,-90,8,94,-52,-41,31,-5,-21,-54,-63,-123
-117,-104,14,111,-65,-45,33,-11,-18,-48,-58,-120
-92,-107,-15,100,-39,-61,28,-18,-14,-44,-61,-115
-52,-73,-21,63,-15,-47,25,-24,-16,-40,-51,-113
-54,-61,-7,58,-23,-34,26,-34,-9,-21,-33,-103
-83,-55,28,69,-55,-14,24,-15,19,8,-1,-96
-68,-15,53,42,-60,18,26,4,53,24,35,-78
-37,19,56,9,-47,37,17,8,65,36,51,-58
-23,23,46,0,-34,34,4,17,79,55,64,-48
6,38,32,-22,-13,35,-12,18,83,57,66,-37
-8,36,44,-14,-27,40,-26,11,67,42,57,-30
-7,29,36,-11,-22,32,-16,9,58,33,54,-26
-8,25,33,-9,-21,29,-11,18,54,28,48,-20
15,18,3,-17,6,11,-45,6,56,25,42,-17
38,14,-24,-25,30,-5,-62,2,55,22,48,-10
-7,8,15,-1,-12,12,-49,11,55,18,59,-13
-2,0,2,1,-2,1,-33,17,55,14,42,-26
15,-5,-19,-5,17,-12,-19,22,50,12,25,-36
-23,-14,9,18,-16,-2,-13,19,43,8,18,-62
-49,-17,32,33,-40,7,-4,17,39,6,21,-62
-43,-29,14,36,-28,-7,4,14,33,3,19,-55
-64,-55,9,59,-36,-23,12,11,25,-1,19,-53
-64,-16,48,39,-56,16,25,8,39,4,23,-41
-52,19,72,17,-62,45,32,5,52,9,18,-46
-41,31,71,5,-56,51,28,5,45,28,38,-27
-20,39,60,-10,-40,49,32,15,42,40,13,-45
-31,38,69,-4,-50,54,27,20,40,48,39,-23
-31,18,49,6,-40,33,33,32,33,30,10,-47
-40,22,61,9,-51,41,19,37,35,41,40,-23
-37,8,46,14,-42,27,-4,34,25,20,13,-53
-147,133,280,7,-214,206,74,157,243,252,206,-45
158,464,306,-311,-75,385,11,346,755,837,1028,726
926,351,-576,-638,751,-112,-259,264,777,642,808,1092
712,28,-684,-370,698,-328,-239,80,72,-180,-160,384
-13,-104,-91,59,40,-98,-25,-83,-612,-628,-533,-244
-97,-139,-42,118,-27,-90,-102,-326,-671,-578,-494,-305
-48,-34,14,41,-30,-10,-131,-223,-280,-238,-181,-158
-91,-29,62,59,-76,16,9,-31,-70,-69,-62,-141
-108,-52,56,80,-81,1,39,-33,-47,-48,-56,-133
-99,-37,62,68,-80,12,48,-7,-22,-30,-31,-134
-92,-44,48,68,-70,2,53,-12,-25,-35,-31,-137
-91,-34,57,62,-74,11,52,-6,-12,-26,-10,-132
-77,-36,41,56,-59,3,67,12,-9,-27,-9,-138
-132,-58,74,94,-103,8,84,21,6,-20,8,-128
-157,-63,94,110,-125,15,85,18,27,-18,-6,-122
-133,-54,79,93,-105,12,86,13,-7,-14,-6,-109
-123,-46,76,84,-99,15,80,30,-19,-11,6,-104
-113,-45,68,79,-90,11,41,26,-18,-6,11,-96
-108,-44,64,76,-86,10,-26,-17,-38,-6,19,-93
-72,-15,58,44,-65,21,-91,-65,-28,-20,34,-76
-35,2,37,17,-36,19,-87,-58,-13,-11,52,-43
-28,7,35,10,-32,21,-70,-24,0,3,64,-30
-15,17,32,-1,-24,24,-67,-12,25,21,70,-24
19,37,18,-28,1,27,-62,-8,30,40,69,-15
38,47,9,-43,14,28,-62,-2,26,40,74,-7
56,47,-9,-51,32,19,-56,3,51,46,76,-1
72,52,-20,-62,46,16,-56,9,61,42,75,12
63,53,-10,-58,36,21,-48,16,61,51,69,15
37,58,21,-48,7,39,-9,28,71,62,69,-7
-18,32,50,-8,-34,41,17,39,50,42,56,-42
-25,23,48,1,-37,35,30,33,19,38,37,-65
-17,20,37,-1,-27,28,38,26,-2,27,4,-80
-65,-27,38,46,-51,5,28,19,-18,-4,-16,-86
-71,-51,20,61,-45,-15,23,13,-33,-23,-29,-83
-50,-28,22,39,-36,-2,-37,3,-28,-9,-10,-74
-25,-21,4,22,-14,-8,-103,-35,-22,2,20,-48
-19,-3,17,11,-18,7,-90,-42,-17,6,19,-47
23,48,25,-35,-2,36,-78,-22,-7,41,75,-12
27,46,18,-37,4,32,-57,-16,5,36,38,-29
-3,62,65,-30,-34,63,-45,-3,23,70,106,24
29,52,23,-41,3,37,-16,19,36,53,28,-58
-73,278,351,-103,-212,315,92,174,341,426,424,109
504,595,91,-550,206,343,-120,273,861,1010,1274,1072
1030,414,-616,-722,823,-101,-317,152,607,495,650,1083
315,93,-222,-204,269,-65,-77,-17,-359,-457,-395,83
-52,-29,23,41,-37,-3,-71,-278,-723,-636,-510,-238
13,-16,-29,1,21,-22,-119,-271,-408,-331,-272,-169
-123,-36,86,79,-104,25,-6,-70,-187,-131,-126,-188
-144,-99,45,122,-94,-27,-17,-69,-144,-106,-120,-190
-169,-104,65,136,-116,-19,-27,-59,-142,-93,-98,-191
-123,-81,41,102,-82,-19,-69,-51,-126,-76,-91,-188
-106,-62,44,84,-74,-9,-73,-49,-103,-56,-62,-176
-97,-63,34,80,-65,-14,-44,-36,-95,-51,-52,-161
-83,-54,29,68,-56,-12,-41,-36,-82,-42,-44,-159
-102,-49,52,75,-77,1,-24,-23,-73,-34,-30,-155
-77,-44,33,61,-55,-5,-21,-21,-63,-28,-27,-145
-64,-38,25,51,-44,-6,-12,-10,-52,-18,-22,-138
-54,-33,21,43,-37,-6,-9,0,-43,-12,-22,-127
-65,-27,38,46,-51,5,2,12,-30,7,-15,-118
-67,-21,46,44,-56,12,19,25,-14,26,1,-107
-64,-4,60,33,-62,28,19,32,19,35,30,-101
-35,24,59,5,-47,42,21,30,40,43,45,-93
-29,16,45,6,-37,30,19,29,24,46,30,-86
-9,5,15,2,-12,10,22,31,10,21,13,-77
0,-26,-26,13,14,-26,-15,8,-21,-20,5,-70
-29,-50,-21,40,-3,-36,-61,-22,-47,-29,1,-61
29,-14,-43,-7,37,-29,-72,-28,-37,-16,3,-42
-12,-27,-15,19,2,-21,-103,-20,-27,-8,7,-35
-11,10,21,0,-15,15,-102,-15,-17,8,14,-34
34,47,13,-40,10,29,-74,-8,-15,26,13,-37
-3,27,31,-12,-17,29,-62,0,-15,33,25,-31
-2,15,17,-7,-10,16,-43,4,-15,24,-4,-44
-7,-9,-2,8,-2,-5,-33,-4,-14,26,-19,-48
-11,8,19,1,-15,13,-19,4,-16,18,-17,-61
-30,9,39,10,-35,24,-10,18,-12,15,-10,-71
-16,7,23,5,-20,15,0,21,-3,21,3,-52
-47,25,72,10,-60,49,25,46,7,40,-7,-63
-44,50,93,-4,-69,71,30,55,23,57,35,-34
-26,48,74,-11,-50,61,58,49,19,40,5,-72
-48,40,88,4,-68,64,48,22,1,48,55,-18
-66,24,90,21,-79,57,72,24,11,34,-5,-96
-83,281,364,-99,-224,322,111,183,335,439,440,128
553,556,2,-555,275,279,-121,274,755,878,1139,1042
1043,302,-741,-672,892,-219,-335,169,535,394,503,991
358,51,-307,-204,332,-128,-183,57,-227,-351,-351,65
-118,-38,80,78,-98,20,-107,-196,-735,-633,-534,-327
-44,-63,-18,53,-13,-40,-226,-337,-558,-420,-354,-220
-78,-24,54,51,-66,14,-136,-136,-220,-147,-123,-139
-92,-48,44,70,-67,-2,-39,-51,-142,-100,-115,-157
-107,-56,50,81,-79,-3,-42,-53,-114,-80,-89,-144
-101,-59,42,79,-71,-8,-17,-30,-97,-78,-87,-147
-93,-53,40,73,-66,-6,-11,-26,-87,-63,-75,-144
-83,-49,34,66,-58,-7,14,-9,-66,-42,-60,-143
-95,-46,48,70,-71,1,31,3,-57,-41,-53,-140
-122,-42,81,82,-101,19,26,16,-53,-39,-37,-136
-100,-39,61,70,-80,11,15,-4,-52,-37,-36,-134
-87,-34,53,60,-70,9,-1,-38,-48,-34,-22,-131
-83,-32,50,58,-66,9,-5,-35,-46,-35,-27,-129
-87,-27,60,57,-74,16,11,-10,-44,-31,-28,-124
-81,-24,57,52,-68,16,7,9,-39,-28,-9,-108
-60,-11,49,36,-55,19,-29,22,-34,-26,17,-71
-18,25,43,-4,-31,34,-91,-2,-30,-22,31,-54
7,45,38,-26,-16,41,-133,-41,-25,-21,29,-55
-2,36,37,-17,-20,37,-127,-56,-21,-16,34,-50
-1,27,28,-13,-15,27,-118,-39,-14,-2,34,-45
21,39,18,-30,1,28,-91,-11,10,11,39,-21
47,50,3,-48,22,26,-54,-2,38,40,48,-10
48,40,-8,-44,28,16,-42,17,35,52,37,-10
31,35,4,-33,13,20,-31,41,21,42,30,-14
8,27,20,-18,-6,23,-17,43,11,36,20,-43
1,21,19,-11,-9,20,-10,27,-1,29,11,-49
-2,13,16,-6,-9,14,6,17,-9,23,4,-58
-14,5,19,4,-17,12,7,5,-19,17,-9,-78
-39,0,39,19,-39,19,32,-9,-26,15,-15,-65
-55,-16,39,35,-47,11,31,14,-38,8,-27,-67
-63,-28,35,45,-49,3,-12,24,-57,9,-8,-54
-32,-26,6,29,-18,-10,-29,7,-57,-1,-12,-55
-12,5,17,4,-14,11,-82,-3,-45,3,7,-48
-28,14,43,7,-36,28,-95,-19,-43,3,7,-50
-22,24,45,-1,-34,34,-69,-23,-31,14,14,-54
12,34,21,-23,-5,27,-69,-16,-23,20,22,-41
20,30,9,-25,5,19,-35,11,-3,21,2,-66
28,45,16,-37,5,30,-34,20,-1,43,49,-22
-58,49,107,4,-83,78,42,76,67,90,-4,-144
-70,309,379,-120,-225,343,103,260,450,588,638,261
681,478,-204,-580,442,137,-180,267,768,863,1104,1091
927,239,-689,-583,808,-224,-310,96,339,186,243,772
205,50,-154,-127,179,-52,-114,-82,-516,-522,-467,-56
-23,-49,-26,36,2,-37,-148,-337,-765,-617,-521,-280
-34,-46,-12,40,-11,-28,-166,-302,-412,-300,-271,-212
-85,-18,67,51,-76,25,-51,-92,-191,-113,-123,-182
-88,-65,24,76,-55,-20,-58,-59,-154,-94,-139,-180
-127,-66,61,96,-94,-2,-52,-38,-133,-65,-98,-174
-117,-61,56,89,-86,-3,-63,-38,-123,-68,-96,-171
-115,-48,66,81,-90,9,-77,-35,-110,-56,-75,-164
-99,-45,54,72,-76,4,-58,-29,-97,-49,-69,-158
-116,-64,53,90,-84,-5,-46,-29,-80,-35,-61,-156
-109,-60,48,84,-78,-6,-17,-6,-71,-28,-53,-160
-97,-55,42,76,-70,-6,-5,7,-64,-25,-49,-165
-87,-47,40,67,-63,-3,-5,13,-54,-21,-40,-160
-102,-51,52,76,-77,1,-4,-1,-49,-9,-36,-150
-112,-43,69,77,-90,13,-6,-12,-33,13,-19,-133
-63,-3,60,33,-62,28,-5,-5,-8,26,6,-115
-42,20,61,11,-52,40,-3,11,14,34,40,-111
-26,26,52,0,-39,39,7,23,10,21,32,-104
-23,12,36,5,-30,24,14,24,-19,3,1,-99
-7,13,20,-3,-14,16,-8,12,-31,-5,-5,-94
11,-4,-15,-3,13,-9,-50,3,-45,-9,-13,-79
29,-5,-33,-12,31,-19,-102,-11,-61,-14,-18,-50
23,35,13,-29,5,24,-121,-40,-57,-13,-15,-21
-33,3,36,15,-34,19,-102,-34,-49,-5,-3,-40
-19,-27,-8,23,-5,-17,-84,-7,-42,0,-6,-59
-27,-26,1,26,-13,-12,-52,2,-44,6,-27,-62
-53,-20,34,36,-43,7,-24,13,-45,13,-30,-66
-63,-21,42,42,-52,10,-17,11,-44,13,-31,-74
-82,-46,35,64,-58,-5,-14,5,-45,10,-34,-86
-87,-52,35,69,-61,-8,-8,3,-45,10,-36,-84
-80,-25,55,52,-67,15,-6,-6,-43,10,-35,-72
-40,3,43,18,-41,23,14,0,-38,10,-41,-66
-30,-7,23,18,-26,8,30,13,-35,9,-40,-62
12,-13,-25,1,18,-19,6,28,-32,-5,-35,-56
11,1,-10,-6,11,-4,-17,40,-27,11,-22,-48
-11,13,24,-1,-18,18,-59,18,-25,30,8,-24
1,25,24,-13,-11,24,-102,-9,-20,25,2,-47
-14,47,61,-17,-37,53,-97,-15,-13,49,47,-19
-13,27,40,-7,-26,33,-67,-1,-9,39,12,-53
-27,34,61,-4,-44,47,-68,11,-1,53,49,-11
-24,16,40,4,-32,28,-23,49,13,50,2,-54
-122,192,314,-35,-218,253,114,211,293,361,294,16
284,526,242,-405,21,384,-3,328,732,907,1116,896
948,384,-564,-666,755,-89,-282,190,609,598,751,1132
542,88,-454,-315,498,-183,-184,75,-58,-190,-213,296
-29,-54,-25,41,-2,-40,12,-75,-636,-604,-566,-296
-68,-103,-36,85,-16,-69,-101,-318,-664,-547,-496,-310
-112,-66,46,89,-79,-10,-101,-193,-305,-211,-192,-168
-117,-74,43,95,-80,-15,-18,-29,-141,-88,-108,-171
-127,-79,48,103,-87,-15,-52,-45,-132,-78,-100,-157
-114,-78,36,96,-75,-21,-41,-32,-112,-47,-79,-152
-77,-46,31,61,-54,-7,-76,-59,-109,-43,-77,-147
-64,-39,25,52,-44,-7,-83,-50,-96,-35,-58,-138
-76,-55,22,65,-49,-16,-63,-36,-92,-36,-57,-141
-114,-48,66,81,-90,9,-63,-33,-84,-30,-44,-133
-103,-60,43,81,-73,-8,-46,-22,-78,-27,-39,-134
-91,-44,47,67,-69,1,-26,-4,-55,-8,-30,-129
-74,-18,56,46,-64,18,-7,30,-35,12,-24,-128
-85,-45,40,65,-62,-2,-12,34,-34,17,-18,-118
-99,-58,41,78,-70,-8,-9,22,-28,15,-11,-112
-51,-23,28,37,-40,3,-15,13,-26,11,-4,-98
-21,2,23,9,-22,12,-46,9,-21,9,3,-78
-7,-1,6,4,-6,2,-60,7,-19,5,5,-68
-8,2,10,3,-9,6,-66,3,-37,4,8,-60
-11,34,46,-12,-29,40,-67,2,-48,0,11,-52
28,43,15,-35,7,29,-76,-3,-45,-9,15,-32
65,35,-31,-50,48,2,-98,-10,-43,-4,15,-9
76,35,-41,-55,58,-3,-96,4,-38,17,25,-3
61,30,-31,-45,46,-1,-86,23,-15,39,33,-2
38,29,-9,-33,24,10,-82,27,-3,48,26,-8
39,40,1,-39,19,20,-73,22,-9,44,21,-46
12,40,28,-26,-8,33,-44,19,0,40,16,-65
-18,25,43,-4,-31,34,-26,16,11,37,9,-69
-17,22,39,-2,-28,30,-32,11,11,32,6,-87
-22,18,40,2,-31,29,-29,9,5,30,-9,-87
-17,19,36,-2,-27,28,-30,4,-1,36,-4,-75
-22,11,33,5,-28,22,-30,1,-7,42,3,-67
-16,21,37,-3,-27,29,-29,-3,-9,50,18,-36
10,36,26,-23,-8,31,-25,-6,-1,45,33,-20
9,43,33,-26,-12,38,-22,-10,6,45,52,-22
13,39,26,-26,-7,32,-20,-7,12,43,53,-14
10,34,24,-23,-7,29,-27,7,20,36,41,-32
10,40,30,-26,-10,35,-54,11,20,51,66,-11
13,24,11,-19,0,17,-35,38,34,44,26,-44
58,73,16,-66,21,44,-37,30,24,58,89,-16
26,49,23,-38,1,36,-7,59,43,67,4,-116
-95,246,340,-76,-217,293,70,226,363,472,449,104
447,523,76,-486,186,299,-120,293,734,925,1222,1059
941,312,-629,-626,784,-158,-350,147,499,441,608,1106
350,81,-269,-215,310,-94,-217,-33,-280,-398,-387,148
-66,-39,27,52,-47,-6,-128,-250,-762,-721,-652,-325
-35,-91,-57,63,11,-74,-229,-342,-549,-454,-424,-239
-117,-61,55,88,-86,-3,-136,-153,-210,-128,-156,-176
-102,-60,41,81,-71,-9,-44,-57,-112,-51,-115,-184
-86,-46,40,66,-63,-3,-50,-54,-91,-20,-86,-166
-85,-52,33,68,-59,-9,-31,-36,-80,-19,-88,-167
-105,-47,58,76,-82,6,-33,-65,-75,-17,-74,-156
-117,-44,73,80,-94,14,-23,-55,-67,-12,-70,-148
-102,-45,56,73,-78,5,-18,-43,-60,-12,-70,-138
-109,-49,60,78,-84,5,-11,-43,-56,-7,-64,-127
-101,-54,47,77,-74,-3,-3,-17,-36,19,-61,-121
-97,-50,47,73,-72,-1,1,32,-8,51,-29,-118
-88,-48,40,68,-64,-4,13,53,1,45,-24,-116
-88,-48,40,68,-63,-4,38,52,9,35,-26,-112
-76,-40,36,58,-55,-2,50,59,3,25,-24,-110
-57,-60,-3,58,-27,-31,33,51,-8,16,-29,-109
-50,-66,-16,58,-17,-41,-4,56,-15,15,-30,-111
-36,-22,14,29,-25,-4,-69,48,-24,15,-31,-99
-25,-9,16,17,-20,3,-108,11,-37,15,-29,-86
-11,8,19,1,-15,13,-102,-2,-48,15,-25,-70
11,32,21,-22,-5,26,-100,-8,-46,14,-25,-40
42,26,-17,-34,29,4,-97,-23,-41,10,-26,-28
53,21,-32,-37,43,-5,-91,-42,-40,6,-33,-31
18,19,1,-18,8,10,-90,-41,-35,4,-35,-28
-11,10,21,0,-17,15,-82,-31,-35,-3,-41,-39
14,14,-1,-14,7,6,-73,-27,-50,-4,-54,-62
8,12,3,-10,2,7,-62,-18,-51,-3,-63,-72
-18,17,34,0,-26,25,-53,-11,-38,7,-58,-69
-16,23,39,-4,-27,30,-43,1,-32,9,-58,-69
-29,11,40,9,-35,25,-20,9,-34,19,-55,-72
-38,-6,31,22,-35,13,8,23,-34,35,-53,-66
-42,-46,-4,44,-19,-25,27,31,-41,11,-71,-68
7,-43,-50,18,29,-46,2,22,-54,1,-50,-49
23,-26,-49,2,36,-37,-39,16,-49,5,-63,-51
14,-8,-22,-3,18,-14,-92,9,-45,19,-28,-14
41,1,-40,-21,41,-20,-128,1,-45,15,-52,-16
37,45,8,-41,14,27,-101,-6,-35,49,-12,-7
57,43,-14,-50,36,14,-70,-7,-27,33,-33,-15
-101,162,263,-31,-182,213,14,112,179,262,138,-32
239,539,300,-389,-31,419,-96,243,654,904,1074,781
986,485,-501,-735,743,-8,-389,143,695,756,979,1347
637,149,-488,-393,562,-169,-320,-31,-107,-216,-201,507
26,-18,-44,-4,35,-31,-187,-238,-765,-704,-663,-190
22,-40,-63,9,42,-51,-254,-356,-603,-475,-467,-188
-4,29,32,-13,-18,30,-157,-155,-256,-162,-206,-149
-62,11,73,25,-68,42,-51,-18,-128,-58,-142,-136
-80,-28,53,54,-66,13,-28,-17,-87,-26,-130,-134
-94,-65,29,79,-61,-17,-3,-1,-92,-31,-128,-136
-100,-87,13,93,-56,-37,4,-28,-103,-37,-131,-134
-77,-72,4,74,-40,-34,23,-19,-99,-48,-121,-136
-69,-85,-16,77,-26,-50,8,5,-99,-59,-129,-133
-66,-90,-25,78,-20,-57,-22,36,-94,-45,-112,-130
-40,-62,-22,51,-8,-42,-59,22,-96,-31,-93,-125
-44,-53,-9,49,-17,-31,-77,-13,-92,-20,-79,-123
-60,-50,10,55,-35,-20,-76,-6,-78,-11,-71,-118
-95,-50,45,72,-70,-2,-82,-4,-66,-7,-64,-115
-78,-38,40,57,-59,2,-83,2,-49,3,-58,-111
-31,3,34,14,-33,19,-86,5,-27,30,-37,-102
-11,19,30,-4,-21,24,-84,15,-14,37,-21,-94
-21,1,22,9,-22,11,-88,23,-11,33,-20,-87
-26,-7,19,16,-22,6,-107,14,-5,35,-16,-78
21,-1,-23,-10,22,-12,-112,7,-2,35,-13,-73
47,10,-37,-28,41,-13,-107,2,4,34,0,-44
61,37,-24,-49,42,6,-116,-19,8,49,14,-8
73,52,-22,-62,47,14,-112,-29,16,70,24,3
73,69,-3,-71,38,33,-102,-21,24,65,19,12
59,76,16,-68,21,46,-81,-6,6,55,0,-6
16,22,6,-19,5,14,-54,1,-21,46,-14,-39
18,-7,-24,-5,21,-16,-42,19,-37,28,-46,-58
29,3,-26,-16,27,-11,-32,71,-30,14,-67,-63
-6,-31,-24,19,9,-28,-85,31,-55,-4,-56,-60
-26,-50,-24,38,-1,-37,-122,-28,-85,-18,-55,-78
-8,-25,-17,17,5,-21,-102,-22,-61,-5,-45,-70
14,-10,-23,-2,19,-16,-94,3,-54,7,-44,-59
14,3,-11,-8,12,-4,-80,30,-56,33,-39,-54
19,14,-5,-17,12,4,-71,26,-54,42,-39,-44
4,16,12,-10,-4,14,-69,14,-56,34,-40,-48
15,4,-11,-9,13,-3,-71,6,-54,36,-27,-28
-1,2,3,0,-3,2,-63,-8,-51,24,-47,-42
15,37,22,-26,-4,29,-68,-24,-39,30,-10,-35
64,38,-26,-50,44,6,-60,-14,-31,25,-41,-81
21,53,32,-37,-6,42,-66,-12,-18,53,16,-37
-2,51,53,-25,-28,52,-34,20,14,56,-25,-89
-86,261,347,-88,-217,304,65,177,286,398,319,38
426,552,127,-489,149,339,-75,283,699,885,1085,929
1043,338,-705,-690,874,-183,-349,166,538,483,603,1056
528,59,-469,-293,498,-205,-239,47,-219,-318,-324,190
-6,-70,-64,39,29,-66,-97,-143,-782,-689,-622,-312
-7,-71,-64,39,29,-67,-283,-328,-674,-521,-474,-289
-56,7,63,24,-60,35,-252,-179,-292,-165,-171,-164
-97,-52,46,74,-71,-3,-108,-56,-174,-69,-133,-252
-93,-55,39,74,-66,-8,-98,-44,-191,-58,-107,-185
-96,-52,44,74,-69,-4,-70,-20,-197,-41,-108,3
-102,-70,31,86,-66,-19,-66,-30,-197,-43,-116,2
-98,-69,29,83,-63,-20,-98,-14,-191,-55,-97,-4
-79,-53,27,66,-53,-13,-136,-20,-188,-103,-72,5
-78,-36,42,57,-59,3,-132,-47,-186,-132,-41,-4
