I,II,III,aVR,aVL,aVF,V1,V2,V3,V4,V5,V6
-18,-354,-337,186,160,-345,-716,-2133,-1928,-1493,-840,-297
-57,-461,-404,260,174,-432,-473,-1707,-1623,-1349,-865,-398
-14,-401,-386,208,186,-393,-191,-892,-906,-863,-628,-321
64,-210,-274,73,170,-242,-96,-424,-352,-389,-303,-152
13,-171,-184,79,99,-177,-4,-237,-129,-201,-211,-96
49,-148,-197,50,123,-172,23,-188,-91,-178,-181,-74
48,-141,-189,47,119,-164,42,-154,-56,-156,-167,-69
37,-138,-175,51,106,-157,53,-130,-32,-132,-166,-67
43,-126,-170,42,107,-148,52,-124,-26,-127,-154,-59
37,-125,-162,44,100,-143,69,-103,-12,-124,-152,-58
52,-115,-167,32,109,-141,63,-94,-6,-121,-143,-51
49,-115,-164,33,107,-139,71,-77,8,-116,-141,-50
57,-109,-166,27,111,-137,70,-69,14,-114,-139,-49
57,-107,-164,25,111,-135,72,-59,32,-107,-140,-50
57,-102,-159,23,108,-130,78,-46,43,-98,-139,-50
55,-99,-154,22,104,-126,80,-27,57,-90,-140,-50
52,-96,-148,22,101,-122,92,-7,76,-81,-138,-45
50,-93,-143,21,97,-118,106,20,96,-72,-132,-45
46,-91,-137,23,91,-114,116,53,128,-61,-127,-44
46,-87,-133,21,90,-109,120,74,144,-53,-123,-40
43,-85,-128,21,86,-106,130,105,164,-37,-118,-40
43,-82,-125,20,84,-103,150,148,197,-18,-115,-37
48,-74,-121,13,85,-97,172,193,231,-7,-114,-34
51,-66,-117,8,84,-91,200,253,280,2,-115,-32
57,-58,-115,1,86,-86,216,303,316,13,-115,-29
54,-51,-105,-2,80,-78,241,350,348,22,-115,-26
54,-41,-95,-6,74,-67,274,400,380,18,-115,-24
48,-28,-77,-10,63,-52,276,414,380,8,-116,-21
31,-17,-48,-7,40,-32,282,416,382,-1,-123,-16
-7,-8,-1,7,-2,-5,285,413,371,-7,-121,-14
-28,1,29,13,-29,15,264,362,330,-35,-137,-9
-7,9,16,-1,-12,12,226,293,279,-68,-151,-6
20,18,-2,-19,10,8,178,207,218,-78,-146,-3
56,23,-33,-39,45,-5,134,108,158,-82,-133,2
90,19,-71,-55,81,-26,95,35,107,-80,-103,5
98,21,-76,-59,87,-27,56,-33,58,-80,-91,8
67,-4,-71,-31,69,-37,32,-87,10,-76,-88,13
69,-41,-111,-14,90,-76,17,-125,-18,-75,-82,15
95,-45,-140,-24,118,-93,2,-141,-34,-74,-77,10
89,-44,-133,-22,111,-89,0,-133,-43,-69,-71,10
86,-49,-135,-18,111,-92,0,-131,-36,-66,-66,9
86,-50,-136,-18,111,-92,-4,-128,-31,-62,-59,5
82,-51,-133,-15,108,-91,-6,-123,-26,-58,-52,5
80,-54,-134,-13,107,-94,-4,-121,-20,-55,-46,7
58,-56,-114,-1,86,-84,0,-116,-16,-51,-38,12
54,-54,-109,0,82,-81,5,-110,-8,-44,-36,17
87,-55,-143,-16,115,-99,9,-105,2,-37,-48,20
89,-55,-143,-17,117,-99,14,-100,13,-32,-50,16
82,-52,-134,-14,108,-93,19,-93,18,-23,-50,11
89,-43,-132,-23,111,-88,18,-92,13,-21,-55,9
93,-30,-124,-31,109,-77,14,-95,10,-25,-55,4
67,-54,-121,-6,94,-87,12,-95,7,-25,-54,1
42,-73,-115,16,79,-94,9,-97,2,-30,-50,-3
44,-69,-112,13,78,-90,6,-100,0,-30,-49,-7
42,-68,-110,13,76,-89,4,-100,-8,-34,-46,-13
39,-64,-103,13,71,-83,1,-95,-16,-40,-43,-16
52,-65,-117,7,85,-91,-2,-108,-35,-53,-61,-22
69,-69,-138,0,104,-103,-4,-121,-56,-70,-78,-25
60,-70,-130,5,95,-100,-8,-122,-55,-70,-72,-20
60,-70,-130,5,95,-100,-10,-125,-55,-70,-71,-20
53,-70,-123,9,88,-96,-12,-129,-57,-70,-67,-19
52,-70,-122,9,87,-96,-15,-139,-73,-70,-65,-14
46,-70,-116,12,81,-93,-15,-140,-87,-68,-63,-16
29,-70,-98,21,63,-84,-19,-139,-84,-64,-59,-12
60,-70,-130,5,95,-100,-20,-141,-88,-66,-60,-9
70,-70,-140,0,105,-105,-20,-139,-90,-61,-60,-10
59,-70,-129,6,94,-99,-20,-142,-90,-60,-60,-10
49,-79,-127,15,88,-103,-20,-145,-94,-60,-60,-11
39,-79,-119,20,79,-99,-20,-145,-95,-55,-55,-9
41,-74,-116,17,79,-95,-20,-145,-95,-55,-50,-6
38,-72,-110,17,74,-91,-21,-145,-95,-54,-46,-3
43,-67,-110,12,77,-88,-17,-145,-95,-49,-41,0
44,-65,-109,10,77,-86,-15,-142,-95,-51,-37,3
44,-60,-105,9,74,-82,-15,-139,-86,-49,-33,6
45,-60,-105,8,75,-82,-11,-136,-91,-56,-42,3
46,-59,-105,7,75,-81,-9,-133,-107,-66,-56,-1
50,-55,-105,3,78,-80,-11,-130,-103,-64,-55,-3
50,-55,-105,3,78,-80,-15,-130,-100,-68,-55,-6
50,-55,-105,3,78,-80,-15,-130,-98,-70,-55,-9
50,-55,-105,3,78,-80,-16,-130,-94,-70,-55,-10
50,-55,-104,3,77,-80,-20,-130,-95,-66,-53,-10
45,-55,-100,5,73,-77,-20,-130,-95,-65,-49,-10
37,-55,-92,9,65,-73,-18,-130,-95,-65,-47,-10
31,-55,-86,12,59,-70,-14,-127,-95,-60,-44,-10
24,-55,-79,16,52,-67,-15,-124,-95,-60,-41,-10
18,-55,-72,19,45,-63,-11,-121,-94,-59,-39,-8
13,-55,-68,22,41,-61,-10,-118,-90,-54,-35,-4
8,-55,-63,24,36,-59,-10,-116,-85,-51,-35,-2
15,-56,-71,20,44,-63,-5,-113,-81,-48,-34,1
22,-52,-73,15,48,-62,0,-108,-76,-43,-30,4
15,-39,-54,12,35,-47,5,-101,-71,-40,-30,6
20,-27,-47,4,34,-37,8,-96,-66,-33,-27,9
31,-6,-37,-12,34,-22,15,-97,-53,-17,-18,13
30,25,-6,-28,18,9,12,-101,-43,-5,-9,22
4,30,26,-17,-11,27,4,-98,-33,0,-1,33
-3,22,25,-10,-14,23,-26,-105,-43,4,6,42
-15,14,29,1,-22,21,-56,-127,-58,5,8,54
-26,6,31,10,-29,18,-55,-119,-50,13,16,64
65,0,-66,-33,66,-33,-65,-130,-84,-4,11,52
88,-30,-118,-29,103,-74,-71,-137,-99,-19,4,40
39,-46,-86,4,62,-66,-37,-130,-91,-43,-8,31
39,-55,-94,8,67,-74,-11,-132,-103,-56,-18,18
21,-55,-76,17,49,-65,-12,-121,-94,-46,-18,18
15,-72,-87,28,52,-79,-22,-132,-109,-56,-36,2
10,-61,-71,25,41,-65,-12,-110,-91,-31,-26,5
0,-76,-76,39,38,-75,-9,-129,-112,-60,-56,-14
-30,-70,-40,50,5,-55,54,15,13,2,-28,4
-28,79,107,-26,-68,93,242,449,485,296,103,78
132,280,148,-206,-8,213,180,664,902,997,679,412
203,387,184,-295,9,285,-100,-69,196,735,916,741
74,20,-54,-47,64,-17,-369,-1334,-1352,-924,-149,269
-85,-299,-214,192,65,-256,-477,-1714,-1784,-1478,-820,-246
-172,-329,-157,250,-7,-243,-262,-1312,-1404,-1176,-766,-336
-99,-322,-222,211,62,-272,-112,-717,-899,-815,-586,-289
-49,-160,-111,105,31,-135,-36,-207,-280,-273,-236,-95
-35,-112,-77,74,21,-95,40,-69,-97,-122,-145,-34
-8,-98,-90,54,41,-93,45,-27,-72,-77,-120,-19
-27,-90,-63,59,18,-77,67,3,-25,-61,-103,-10
-28,-99,-72,64,22,-85,63,10,-9,-56,-100,-15
-33,-85,-51,59,9,-68,65,22,6,-38,-87,-5
-36,-95,-59,66,11,-76,69,27,6,-38,-91,-8
-32,-85,-53,59,11,-69,69,49,16,-22,-79,-4
-31,-83,-52,57,11,-68,71,60,27,-24,-79,-12
-26,-75,-50,50,12,-62,73,67,40,-14,-73,-9
-22,-71,-49,47,14,-60,79,81,52,-10,-84,-12
-18,-65,-46,42,14,-55,82,106,67,-5,-82,-16
-17,-61,-44,39,14,-52,87,121,74,3,-75,-14
-21,-66,-45,44,12,-55,90,125,89,12,-72,-12
-25,-64,-39,45,7,-51,94,143,101,23,-64,-9
-20,-61,-41,41,11,-51,98,169,123,35,-61,-7
-21,-58,-37,40,8,-48,107,207,150,45,-55,-3
-24,-55,-31,40,4,-43,119,236,173,52,-55,0
-27,-54,-27,41,0,-40,126,273,209,65,-55,0
-28,-45,-17,37,-5,-31,148,334,258,87,-55,0
10,-35,-45,12,28,-39,166,376,293,96,-55,0
29,-25,-54,-2,42,-40,176,428,332,99,-57,0
22,-13,-34,-4,28,-23,212,488,386,97,-62,0
23,2,-20,-12,21,-9,226,530,418,87,-65,0
5,14,10,-10,-3,12,230,548,424,80,-74,-3
-1,24,24,-12,-13,24,234,543,412,72,-95,-12
-22,28,51,-3,-37,39,222,536,410,65,-104,-13
-29,46,74,-9,-52,60,213,494,386,57,-99,-1
-2,61,63,-30,-33,62,186,430,334,51,-92,14
1,56,56,-29,-28,56,148,340,268,43,-89,24
7,54,46,-31,-20,50,112,244,201,35,-77,26
16,50,33,-33,-8,41,79,165,151,32,-41,50
32,46,13,-39,9,29,53,97,97,35,-21,63
50,43,-7,-46,28,18,35,46,49,35,-14,59
50,36,-14,-43,32,11,19,16,11,35,-2,61
52,32,-21,-42,36,5,9,13,-2,35,7,60
53,26,-28,-39,40,-1,10,9,2,34,13,60
53,20,-34,-36,43,-6,10,5,-4,48,17,55
56,15,-41,-36,48,-12,10,1,-4,57,22,55
47,15,-32,-31,39,-8,9,0,-7,54,26,55
42,15,-27,-28,34,-6,13,10,6,56,31,55
26,15,-11,-20,18,2,22,20,29,72,29,55
16,15,-1,-15,8,7,21,30,43,92,32,57
55,15,-40,-34,47,-12,19,40,66,97,44,61
70,17,-53,-44,61,-18,20,43,70,101,45,60
70,25,-45,-47,57,-10,20,39,63,106,53,60
74,30,-45,-52,59,-7,20,33,59,103,55,60
69,30,-38,-49,54,-4,18,30,54,97,49,59
67,30,-37,-48,52,-3,13,25,50,94,47,56
62,30,-32,-45,47,-1,10,21,45,89,42,53
57,30,-27,-44,42,1,7,16,40,84,40,51
47,28,-20,-37,33,4,2,10,32,80,35,47
41,25,-16,-32,28,4,-1,5,26,75,35,45
33,25,-8,-29,20,8,-5,-1,18,71,35,42
44,25,-19,-34,31,3,-5,-6,10,66,35,40
70,25,-45,-47,57,-9,-6,-11,4,61,35,40
63,25,-38,-44,50,-7,-11,-22,-3,58,33,36
47,20,-27,-34,37,-3,-9,-35,-9,53,28,35
35,17,-18,-25,26,-1,-12,-44,-16,50,25,35
28,13,-14,-20,20,0,-16,-45,-23,47,22,30
25,9,-15,-17,20,-2,-14,-45,-29,42,17,27
21,6,-15,-13,17,-5,-19,-50,-34,39,15,23
17,3,-14,-9,15,-6,-20,-50,-35,36,20,20
19,0,-19,-9,19,-9,-20,-51,-35,35,20,15
27,-3,-30,-12,29,-16,-25,-60,-35,35,20,15
24,-6,-30,-9,28,-18,-25,-66,-35,35,20,15
21,-9,-30,-6,25,-19,-25,-65,-34,35,19,15
19,-11,-30,-4,25,-21,-25,-65,-30,32,23,15
16,-14,-30,-1,23,-22,-25,-65,-30,29,25,15
12,-16,-28,2,21,-22,-23,-65,-30,30,25,15
9,-15,-24,3,17,-19,-20,-69,-30,30,25,10
10,-15,-26,3,18,-21,-20,-70,-30,30,25,5
6,-15,-21,5,14,-18,-20,-70,-30,30,25,1
6,-13,-19,3,13,-16,-20,-75,-30,25,20,-4
12,-9,-21,-1,17,-15,-21,-75,-30,22,20,-9
-8,-7,1,7,-4,-3,-19,-76,-30,18,20,-13
-27,-4,23,15,-24,9,-24,-81,-29,15,20,-17
-37,0,36,18,-36,18,-35,-84,-32,9,20,-20
-45,0,45,23,-45,22,-35,-89,-35,14,22,-23
-24,10,35,7,-30,22,-39,-90,-35,27,39,-28
-12,18,29,-3,-21,23,-40,-91,-35,24,44,-30
-10,13,23,-1,-17,18,-42,-94,-35,20,35,-25
-8,7,15,0,-12,11,-46,-96,-35,17,30,-25
-16,4,20,6,-18,11,-44,-94,-31,12,22,-24
-20,-1,19,11,-19,9,-46,-88,-25,10,16,-19
-30,-6,24,18,-26,8,-44,-80,-17,17,11,-21
-16,8,24,3,-20,16,-45,-74,-12,29,10,-16
-7,22,29,-8,-18,25,-38,-67,-2,37,29,-2
6,58,52,-32,-24,55,-27,-60,6,54,45,12
31,97,66,-64,-18,81,-19,-58,29,79,54,20
25,104,80,-65,-28,92,-5,-53,43,85,72,21
28,103,75,-66,-24,89,-49,-68,16,61,70,26
16,86,70,-51,-27,78,-102,-102,-3,42,58,22
21,80,59,-51,-19,70,-98,-98,-7,47,56,16
44,48,4,-46,19,26,-92,-98,-23,37,43,9
68,23,-44,-45,56,-10,-92,-93,-27,40,41,2
80,25,-56,-53,68,-15,-64,-91,-30,33,33,-3
32,-13,-45,-10,39,-29,-34,-91,-32,33,30,-15
-4,-20,-16,13,6,-18,-28,-81,-24,29,32,-19
-20,-48,-28,34,5,-38,-31,-86,-40,14,16,-37
-13,-23,-10,18,-1,-16,-22,-60,-14,27,32,-33
2,-13,-16,6,9,-14,-30,-93,-36,-7,-9,-37
-16,-26,-11,21,-2,-18,27,42,79,60,-12,-63
-18,104,123,-43,-71,113,198,449,522,314,105,-19
132,323,190,-228,-29,256,144,683,971,1064,736,368
196,423,227,-310,-16,325,-139,-86,234,795,969,691
47,57,9,-52,19,33,-469,-1463,-1437,-953,-114,233
-75,-271,-196,173,61,-233,-607,-1847,-1899,-1525,-792,-279
-170,-353,-183,262,7,-268,-368,-1324,-1413,-1188,-763,-416
-88,-298,-211,193,62,-254,-181,-657,-807,-750,-535,-337
-21,-101,-80,61,30,-90,-92,-213,-231,-233,-187,-154
-64,-88,-24,77,-20,-56,-4,-84,-59,-108,-109,-125
-31,-75,-44,53,7,-59,13,-28,-14,-45,-68,-110
-38,-60,-22,50,-8,-41,24,-11,6,-26,-62,-103
-40,-65,-25,53,-8,-45,17,4,16,-19,-63,-98
-42,-51,-9,46,-16,-29,23,15,35,-12,-53,-86
-47,-56,-9,52,-19,-32,24,24,42,-15,-56,-87
-42,-43,-1,43,-20,-22,28,36,53,-4,-46,-78
-45,-44,0,45,-22,-22,30,44,60,-8,-49,-79
-43,-39,4,40,-24,-17,32,56,77,4,-41,-72
-50,-41,9,45,-29,-16,50,67,84,9,-41,-71
-51,-40,11,45,-31,-14,50,84,96,19,-37,-66
-55,-40,15,47,-35,-12,50,94,112,26,-35,-60
-58,-40,18,49,-38,-11,50,113,125,33,-33,-55
-56,-34,22,45,-38,-6,52,129,143,38,-30,-50
-54,-29,25,41,-39,-2,72,152,168,50,-31,-43
-58,-24,34,40,-46,5,92,193,209,77,-26,-41
-39,-18,21,28,-30,2,96,201,223,87,-24,-57
3,-12,-15,4,9,-13,94,229,236,84,-25,-59
6,-7,-13,1,10,-10,115,292,281,94,-25,-51
-5,7,13,-1,-9,10,138,342,320,100,-25,-49
-10,15,25,-3,-18,20,158,397,363,91,-25,-43
-10,29,40,-10,-25,35,185,448,404,84,-24,-40
9,58,50,-34,-21,54,199,487,429,77,-29,-35
-14,60,73,-23,-43,66,199,501,428,69,-42,-35
-35,64,99,-15,-67,81,192,484,421,63,-57,-34
-25,88,113,-32,-69,100,186,470,405,53,-63,-29
-16,119,135,-52,-75,127,183,429,362,40,-56,-30
-6,128,134,-61,-71,131,162,347,308,14,-51,-28
-22,113,136,-46,-79,124,113,256,249,3,-44,-21
-28,106,134,-39,-82,120,70,170,186,6,-41,-14
-41,95,136,-27,-89,115,29,94,135,7,-20,-7
-43,87,130,-22,-87,109,-7,37,93,11,7,-1
8,79,71,-44,-31,74,-36,-12,45,9,14,5
27,71,44,-49,-8,57,-54,-51,18,4,21,10
21,64,43,-43,-12,53,-57,-63,5,0,28,10
27,60,32,-43,-3,46,-60,-72,-3,-5,34,10
32,61,29,-46,2,44,-59,-79,3,0,40,10
37,57,20,-48,8,38,-77,-73,8,8,45,10
34,55,20,-45,7,37,-85,-65,11,16,45,8
30,55,25,-43,2,40,-74,-57,17,24,46,5
26,59,33,-42,-4,45,-70,-49,20,30,51,5
27,60,33,-44,-3,46,-62,-43,31,42,49,5
20,60,40,-41,-10,49,-56,-36,46,53,53,5
5,60,55,-32,-25,57,-52,-29,46,59,55,5
6,61,55,-34,-25,57,-49,-23,45,57,55,5
4,59,55,-32,-25,56,-51,-16,44,54,59,5
8,63,55,-36,-24,59,-50,-11,39,55,60,5
20,75,55,-48,-18,65,-50,-16,41,55,60,5
18,70,53,-44,-18,61,-64,-25,37,55,54,5
15,65,49,-40,-17,56,-72,-29,29,54,48,3
9,60,51,-35,-21,55,-69,-42,21,48,44,0
7,53,46,-30,-20,49,-71,-53,13,41,38,-3
7,51,45,-30,-19,48,-69,-64,6,34,32,-6
10,55,45,-33,-18,50,-70,-76,-1,27,30,-9
15,55,40,-35,-13,47,-75,-75,-8,21,30,-10
15,55,40,-35,-13,47,-75,-79,-14,20,30,-10
16,55,39,-36,-12,47,-76,-80,-21,20,30,-10
20,54,34,-37,-8,44,-80,-83,-27,20,30,-10
24,60,35,-43,-6,47,-80,-91,-33,20,29,-10
23,60,37,-42,-7,48,-80,-95,-35,20,26,-10
31,72,41,-52,-5,56,-80,-93,-36,19,25,-10
21,61,39,-41,-10,49,-80,-107,-40,13,25,-10
-12,28,40,-8,-26,34,-80,-122,-40,7,25,-10
0,41,41,-20,-21,41,-80,-119,-44,2,25,-10
14,51,37,-33,-12,44,-81,-120,-45,-4,25,-10
-19,44,63,-13,-41,53,-84,-120,-45,-9,25,-10
-16,41,57,-12,-37,49,-85,-120,-46,-10,25,-10
1,36,35,-19,-17,35,-85,-124,-44,-10,25,-10
-17,30,47,-7,-32,38,-85,-125,-48,-10,25,-10
-11,33,45,-11,-28,39,-85,-125,-50,-10,25,-10
-12,33,45,-11,-29,39,-82,-125,-50,-11,25,-11
-6,36,43,-15,-25,39,-80,-124,-54,-9,25,-7
13,51,39,-32,-13,45,-80,-126,-55,-5,25,-5
7,48,41,-28,-17,45,-76,-130,-55,-5,25,-5
9,45,35,-27,-14,40,-74,-130,-55,-5,25,-2
6,43,37,-25,-16,40,-76,-130,-55,-5,22,1
-3,39,41,-18,-22,40,-79,-130,-55,-5,20,-1
7,43,36,-25,-15,39,-83,-130,-55,-8,16,-4
11,45,34,-29,-12,39,-85,-130,-55,-11,14,-7
15,44,29,-30,-8,36,-89,-130,-55,-14,10,-9
25,49,25,-37,0,37,-90,-129,-55,-17,11,-13
19,49,30,-35,-6,39,-90,-131,-55,-20,24,-16
9,52,43,-31,-17,47,-90,-126,-55,-20,26,-13
-7,59,67,-27,-37,63,-90,-132,-55,-11,21,-8
-17,61,78,-22,-48,69,-90,-141,-55,-22,20,-5
-14,59,73,-23,-44,65,-90,-133,-50,-32,15,-2
-20,56,76,-19,-48,66,-88,-130,-42,-20,15,3
-21,54,75,-17,-48,65,-82,-124,-36,-10,13,5
-18,55,74,-19,-46,64,-78,-120,-28,7,27,11
-21,89,110,-34,-66,99,-73,-112,-22,25,48,24
3,130,126,-67,-62,128,-69,-98,-14,30,50,31
25,139,114,-82,-45,126,-64,-83,13,37,61,45
22,133,111,-78,-44,122,-67,-87,20,45,79,47
25,125,101,-75,-38,113,-107,-120,-3,38,77,51
20,120,99,-70,-40,109,-129,-140,-19,30,70,69
36,109,73,-73,-19,91,-117,-137,-27,26,68,63
50,83,33,-67,8,58,-117,-145,-46,14,57,52
38,67,28,-53,5,47,-111,-145,-52,16,58,48
15,59,44,-37,-15,51,-106,-155,-64,-1,41,38
9,48,39,-29,-15,43,-104,-146,-57,2,29,31
-12,43,55,-16,-34,49,-94,-153,-61,-12,11,20
-20,28,48,-4,-34,38,-94,-150,-63,-19,9,8
-3,35,38,-16,-20,36,-80,-145,-50,-17,14,2
1,17,16,-9,-8,16,-81,-151,-71,-22,3,-23
-37,53,90,-8,-64,71,46,94,129,72,36,-19
-26,194,220,-85,-123,207,205,517,604,407,207,88
175,395,220,-285,-23,307,86,649,966,1113,829,485
155,381,226,-269,-36,303,-230,-449,-110,456,752,626
36,4,-33,-20,35,-14,-672,-1912,-1779,-1180,-311,114
-69,-290,-221,180,76,-256,-719,-1968,-1926,-1459,-782,-319
-172,-344,-172,258,0,-258,-355,-1204,-1279,-1064,-685,-388
-50,-189,-139,120,45,-164,-190,-525,-603,-538,-360,-210
-41,-59,-17,50,-12,-38,-92,-182,-175,-158,-115,-82
-65,-46,19,55,-41,-14,-32,-98,-81,-107,-95,-76
-64,-21,43,42,-53,11,-23,-61,-32,-52,-56,-52
-88,-29,58,58,-72,14,-3,-40,-24,-61,-65,-62
-87,-20,68,53,-77,24,-6,-23,-4,-42,-53,-52
-103,-18,86,61,-94,34,5,-19,4,-39,-52,-52
-91,-15,76,53,-83,30,7,-7,15,-31,-47,-50
-91,-8,83,50,-87,37,15,0,24,-21,-41,-44
-83,-5,78,44,-80,36,14,10,42,-15,-42,-46
-78,2,81,38,-80,41,17,22,53,0,-35,-43
-74,6,80,34,-77,43,38,42,59,6,-35,-41
-66,14,80,26,-73,47,40,63,74,18,-30,-40
-66,14,80,26,-73,47,41,78,88,23,-30,-38
-64,16,80,24,-73,47,48,98,113,33,-25,-34
-66,14,80,26,-73,46,54,115,126,38,-20,-32
-68,13,81,28,-74,46,68,143,149,48,-16,-29
-60,19,79,21,-70,49,80,173,173,56,-11,-26
-55,26,81,15,-68,53,95,208,200,62,-6,-24
-46,33,79,7,-63,56,111,256,234,86,-2,-20
-43,38,82,2,-63,60,127,304,271,104,0,-12
-59,48,107,5,-83,78,152,361,313,117,1,-6
-56,56,111,0,-84,83,178,410,346,121,5,1
-47,74,121,-14,-84,98,206,462,386,115,5,7
-47,86,133,-20,-90,109,226,498,413,113,-4,12
-68,88,156,-10,-113,122,235,516,407,110,-16,17
-83,108,191,-13,-137,149,232,517,394,89,-28,20
-72,110,182,-19,-128,145,217,477,378,57,-33,24
-47,129,176,-41,-112,152,196,426,339,39,-25,27
-20,148,168,-65,-94,158,156,340,284,30,-19,31
-30,130,161,-50,-96,145,113,241,215,27,-13,34
-39,115,154,-39,-97,134,69,154,147,23,-5,38
-43,100,143,-29,-93,122,31,82,97,20,-1,45
-30,86,116,-28,-73,101,7,23,53,15,13,48
3,76,73,-40,-35,74,-12,-28,25,15,25,53
1,69,69,-35,-34,69,-24,-46,17,28,42,55
-6,65,71,-30,-38,68,-39,-61,11,30,51,55
-10,59,69,-25,-40,64,-46,-79,3,32,50,59
-18,53,71,-17,-45,62,-44,-80,-5,36,55,61
-17,52,68,-17,-43,60,-45,-70,-9,34,55,59
-23,54,77,-16,-50,65,-45,-54,-1,44,59,56
-17,61,78,-22,-48,70,-45,-48,7,55,60,55
-8,64,72,-28,-40,68,-41,-42,15,59,60,55
-12,55,68,-22,-40,61,-35,-38,23,63,65,55
-11,49,61,-19,-36,55,-31,-31,27,64,65,56
-14,42,57,-14,-36,49,-24,-26,42,73,64,52
-15,36,50,-11,-33,43,-19,-28,49,82,60,49
-11,39,50,-14,-31,45,-14,-31,41,77,58,50
-3,41,44,-20,-23,42,-10,-30,38,75,55,46
-12,37,49,-13,-31,42,-13,-30,31,71,52,45
-39,35,74,1,-57,55,-19,-31,26,70,49,44
-42,31,73,5,-58,52,-23,-29,20,67,51,41
-38,30,68,4,-53,49,-28,-44,10,59,49,38
-34,32,66,0,-51,49,-32,-51,3,53,51,35
-20,41,61,-11,-41,50,-37,-50,-8,46,67,33
-10,48,59,-19,-35,54,-40,-65,-15,39,69,29
-14,41,54,-14,-34,47,-40,-70,-14,33,62,33
-17,34,51,-9,-34,42,-42,-86,-17,30,59,35
-22,26,48,-2,-35,37,-45,-98,-23,30,53,35
-24,19,43,2,-34,31,-45,-93,-26,30,50,35
-27,13,40,8,-34,26,-41,-96,-31,30,50,35
-34,9,43,12,-39,26,-40,-94,-35,30,50,35
-35,10,45,12,-40,27,-40,-96,-35,34,50,35
-39,6,45,16,-42,25,-40,-99,-36,35,50,36
-40,5,44,17,-43,24,-40,-100,-34,35,49,34
-46,5,51,20,-49,28,-41,-100,-35,40,56,42
-44,11,56,16,-50,33,-45,-99,-44,40,61,51
-27,24,50,1,-39,37,-45,-101,-46,38,57,49
-20,27,48,-4,-34,37,-47,-99,-44,35,55,50
-23,21,44,1,-34,32,-51,-104,-41,32,51,50
-25,14,38,5,-32,26,-49,-115,-39,30,50,50
-41,8,49,16,-45,28,-54,-115,-42,26,47,46
-61,0,61,30,-61,31,-55,-115,-45,25,44,45
-59,-4,54,31,-56,25,-55,-115,-45,21,45,45
-51,-1,50,26,-51,25,-55,-115,-45,20,40,40
-47,0,47,23,-47,23,-55,-113,-45,20,40,40
-37,3,40,17,-39,21,-55,-109,-45,20,39,40
-37,6,42,15,-40,24,-55,-110,-41,20,34,40
-43,3,45,20,-44,24,-56,-106,-40,21,36,40
-47,-2,45,24,-46,21,-54,-104,-40,25,32,40
-53,-8,45,30,-49,19,-56,-106,-41,25,30,40
-56,-11,45,33,-50,16,-53,-99,-38,25,29,40
-62,-16,45,39,-53,14,-58,-104,-45,25,31,43
-70,-20,50,45,-60,15,-71,-116,-56,25,47,45
-74,-25,49,50,-62,12,-66,-111,-50,29,52,45
-76,-24,52,50,-64,14,-64,-109,-45,30,55,45
-88,-27,61,57,-74,17,-59,-105,-42,30,60,45
-89,-29,60,59,-74,15,-56,-101,-36,29,63,44
-91,-32,60,61,-76,14,-52,-97,-32,31,66,45
-81,-21,60,51,-71,19,-44,-90,-22,29,65,44
-41,21,62,10,-52,41,-34,-83,-12,38,78,53
-50,43,93,3,-72,68,-27,-78,1,53,88,63
-46,56,102,-5,-74,78,-13,-70,27,63,92,70
-22,72,94,-25,-58,82,-13,-66,28,83,104,84
-48,67,114,-9,-81,90,-74,-92,-1,80,106,83
-26,62,88,-18,-58,75,-109,-114,-20,66,103,75
15,59,44,-37,-14,51,-92,-106,-25,64,102,72
18,29,11,-24,3,20,-91,-115,-44,46,97,64
0,-2,-2,1,1,-2,-79,-117,-42,49,102,61
-47,-22,25,35,-36,2,-49,-119,-48,33,81,51
-85,-43,43,64,-64,0,-35,-110,-44,34,71,39
-106,-58,48,82,-77,-5,-28,-107,-43,24,66,30
-102,-78,24,90,-63,-27,-30,-108,-52,13,56,14
-102,-60,42,80,-72,-9,-17,-85,-29,23,62,18
-90,-90,1,90,-45,-44,-19,-101,-45,-12,36,2
-117,-41,76,79,-97,17,85,117,140,89,70,12
-110,119,228,-5,-169,173,242,559,603,437,255,114
78,314,237,-197,-80,275,105,663,917,1078,846,487
114,310,196,-213,-41,253,-189,-368,-77,463,777,628
-36,-112,-77,74,20,-94,-554,-1742,-1632,-1111,-291,88
-179,-369,-190,274,5,-279,-616,-1878,-1814,-1385,-742,-323
-225,-395,-170,310,-28,-282,-289,-1188,-1256,-1027,-632,-365
-123,-287,-164,205,21,-225,-147,-512,-616,-543,-346,-225
-89,-134,-45,111,-22,-89,-45,-157,-167,-146,-87,-75
-110,-134,-24,122,-43,-79,18,-60,-72,-100,-65,-65
-104,-109,-5,107,-49,-57,4,-20,-22,-38,-26,-49
-105,-106,-1,105,-52,-53,29,-6,-12,-29,-32,-48
-105,-101,4,103,-55,-48,25,20,14,-9,-20,-39
-107,-94,14,100,-60,-40,38,32,23,-6,-13,-31
-117,-94,24,105,-70,-35,39,40,34,-1,-10,-34
-123,-84,39,103,-81,-23,39,59,44,10,0,-34
-117,-84,33,100,-74,-26,43,66,48,11,-2,-36
-115,-78,36,96,-76,-21,45,66,62,18,5,-38
-115,-81,34,98,-75,-23,45,82,65,12,5,-41
-115,-80,35,97,-75,-22,49,94,79,21,10,-39
-115,-80,35,97,-75,-22,60,116,101,35,10,-36
-115,-80,35,97,-75,-22,60,139,113,43,15,-35
-109,-75,34,92,-71,-20,61,153,125,52,19,-35
-109,-70,39,89,-74,-15,75,179,152,66,23,-35
-111,-66,45,88,-78,-10,85,207,175,82,29,-36
-107,-61,46,83,-76,-7,96,248,206,96,32,-32
-100,-57,43,78,-72,-6,112,294,237,105,40,-29
-98,-51,48,74,-72,-2,123,344,268,117,37,-30
-78,-37,41,57,-59,2,145,403,320,137,31,-26
-81,-23,58,52,-70,17,170,460,358,143,28,-25
-117,-13,104,64,-110,45,188,513,398,132,22,-25
-107,-2,105,54,-106,51,202,550,427,124,19,-19
-100,8,108,46,-104,57,218,557,422,115,7,-14
-104,17,121,43,-112,68,220,547,413,106,-4,-9
-100,35,135,32,-118,85,205,533,397,87,-17,-3
-100,55,155,22,-128,105,189,483,368,63,-28,2
-85,63,148,10,-117,105,161,406,318,60,-20,8
-81,56,137,12,-109,96,118,314,255,60,-10,12
-77,47,124,15,-101,85,70,209,187,56,6,18
-62,38,100,12,-81,69,31,136,125,54,28,21
-45,29,74,8,-60,51,2,85,81,56,42,27
-28,24,52,2,-40,38,-17,42,46,59,60,30
-22,18,40,2,-31,29,-28,18,25,62,66,25
-20,15,34,2,-27,25,-38,8,20,65,72,25
-17,10,27,3,-22,18,-40,6,15,67,79,24
-13,6,19,4,-17,12,-40,2,9,72,75,20
-12,0,12,6,-12,6,-40,-2,3,75,75,20
-25,-9,16,16,-20,3,-40,-5,1,80,75,23
-59,-18,41,38,-50,11,-40,0,12,78,75,25
-73,-24,49,48,-61,12,-35,9,33,90,75,25
-58,-18,40,38,-49,11,-35,17,46,102,77,25
-47,-12,35,29,-40,11,-35,25,48,99,81,25
-33,-8,25,20,-29,9,-35,37,56,109,95,24
-21,-1,20,11,-20,9,-35,40,68,111,102,21
-7,3,10,1,-9,6,-33,34,67,106,99,20
0,2,2,-1,-1,2,-29,32,61,105,100,20
-13,-1,11,7,-12,5,-30,27,56,100,100,20
-22,-4,19,13,-20,7,-30,25,49,100,100,20
-22,-7,15,14,-18,4,-30,19,46,94,95,22
-18,-9,8,13,-13,0,-48,12,38,87,90,26
-15,-12,4,13,-9,-3,-57,6,28,81,86,25
-13,-15,-2,14,-5,-8,-54,-1,20,74,81,25
-7,-15,-8,11,1,-11,-59,-7,10,68,76,25
-9,-17,-8,13,0,-12,-60,-13,3,62,75,25
-18,-21,-3,20,-7,-12,-59,-15,-2,60,75,25
-19,-19,0,19,-10,-10,-56,-19,-5,60,75,25
-20,-17,3,18,-11,-7,-54,-21,-9,60,75,26
-22,-13,8,17,-14,-2,-56,-25,-12,60,75,24
-21,-12,9,17,-15,-1,-54,-25,-17,60,75,31
-26,-7,18,16,-22,5,-59,-26,-24,55,70,36
-32,-6,26,19,-28,10,-70,-39,-26,55,70,32
-20,-3,17,11,-18,7,-70,-41,-24,55,70,30
-16,0,15,7,-15,7,-70,-39,-22,55,70,27
-10,0,10,5,-10,5,-70,-41,-18,55,70,24
5,10,5,-8,0,7,-70,-39,-23,53,69,25
-25,-9,16,17,-20,3,-70,-42,-42,50,77,37
-39,-29,10,34,-24,-9,-70,-45,-46,47,77,39
-26,-18,8,22,-17,-5,-70,-45,-44,44,68,32
-29,-16,13,22,-21,-1,-70,-45,-46,41,63,29
-25,-10,15,17,-20,2,-70,-45,-44,40,55,24
-21,-1,20,11,-20,9,-70,-45,-45,40,51,19
-27,-3,24,15,-26,10,-73,-49,-45,40,54,16
-32,29,60,1,-46,44,-79,-50,-45,40,57,13
-25,37,62,-7,-43,49,-80,-50,-45,40,60,10
-25,3,28,10,-27,15,-80,-50,-45,40,63,7
-26,5,31,10,-29,17,-80,-50,-45,40,65,4
-24,6,30,9,-28,17,-80,-50,-41,40,65,7
-29,4,33,12,-31,18,-80,-50,-40,40,65,11
-31,6,36,12,-34,21,-80,-46,-40,40,65,10
-29,4,33,12,-31,19,-80,-44,-35,40,65,14
-22,10,32,6,-27,21,-80,-46,-35,40,65,16
-17,11,27,3,-22,19,-80,-45,-34,34,64,14
-18,15,33,1,-26,24,-80,-46,-28,36,65,21
-10,15,25,-3,-18,20,-77,-43,-22,32,64,18
-27,14,41,7,-34,27,-74,-33,-16,45,69,24
-44,33,77,5,-61,55,-71,-20,-11,73,91,42
-30,55,85,-13,-58,70,-68,-9,-3,78,96,47
-32,77,109,-23,-71,93,-65,4,9,91,95,49
-8,104,112,-48,-60,107,-67,11,18,94,106,51
22,119,96,-71,-37,107,-106,-25,4,83,105,67
8,104,96,-56,-44,100,-141,-53,-16,78,100,73
-4,73,76,-35,-40,74,-129,-47,-17,72,101,63
4,42,38,-23,-17,40,-121,-53,-28,62,92,53
-15,25,41,-5,-28,33,-109,-46,-27,65,98,50
-29,12,41,9,-36,26,-101,-54,-41,49,92,36
-37,-1,36,19,-37,17,-94,-45,-35,57,77,30
-49,-1,47,25,-47,23,-84,-47,-36,41,48,14
-44,-17,28,30,-36,5,-79,-45,-35,43,54,5
-59,-8,51,33,-55,21,-68,-41,-21,45,48,-5
-40,-29,11,34,-26,-10,-67,-38,-42,32,33,-27
-70,43,112,13,-91,77,77,268,236,164,74,5
-7,191,198,-92,-103,194,185,681,775,671,358,122
181,393,212,-288,-16,302,2,553,839,1247,1093,628
113,342,229,-228,-59,285,-261,-535,-430,132,708,669
-69,-119,-50,94,-9,-85,-492,-1526,-1688,-1365,-512,-13
-195,-274,-79,235,-58,-176,-446,-1491,-1618,-1348,-778,-333
-207,-280,-73,243,-67,-176,-229,-1024,-1212,-1052,-692,-392
-101,-214,-113,158,6,-163,-144,-420,-607,-541,-390,-262
-68,-64,4,66,-36,-29,-66,-54,-119,-101,-97,-117
-53,-58,-5,56,-24,-31,-24,3,-39,-51,-76,-108
-48,-31,18,39,-33,-7,-14,52,17,7,-31,-76
-55,-38,17,46,-35,-11,-5,62,27,15,-41,-87
-51,-32,20,41,-35,-6,-5,73,48,35,-24,-73
-55,-26,30,40,-42,2,6,88,54,31,-22,-71
-54,-28,26,41,-40,-1,7,99,67,36,-15,-66
-56,-27,28,41,-42,1,15,108,77,40,-9,-71
-55,-33,22,43,-39,-5,15,115,77,39,-22,-82
-55,-28,27,41,-41,0,15,128,94,49,-20,-78
-55,-31,24,43,-39,-3,20,136,106,52,-18,-81
-55,-29,26,42,-40,-1,19,141,122,56,-14,-79
-51,-28,22,39,-36,-2,22,156,126,59,-11,-81
-43,-23,20,33,-31,-1,24,173,138,61,-7,-77
-39,-20,19,29,-29,-1,30,203,165,73,-3,-75
-32,-17,15,24,-23,-1,38,222,180,92,-1,-75
-26,-12,14,19,-19,0,44,244,203,98,0,-75
-45,-9,36,27,-41,13,64,287,234,104,2,-75
-57,-5,52,31,-54,23,75,325,267,119,6,-75
-50,0,50,25,-50,25,87,377,308,133,5,-79
-51,3,54,23,-53,29,108,424,347,138,2,-80
-48,8,56,19,-52,32,125,478,395,135,-4,-80
-36,21,57,7,-47,39,147,525,435,125,-7,-80
-49,32,81,8,-65,56,164,564,465,117,-12,-80
-61,48,108,6,-85,78,165,584,477,107,-38,-78
-43,65,107,-12,-75,86,159,563,464,99,-53,-74
-45,75,120,-15,-83,97,157,533,448,83,-44,-72
-63,85,148,-12,-106,117,142,480,410,66,-41,-69
-57,91,148,-18,-103,120,106,403,350,63,-34,-66
-42,90,132,-24,-87,111,63,292,274,59,-29,-64
-25,89,113,-32,-69,101,22,192,203,56,-23,-60
18,98,80,-59,-31,89,-6,133,151,51,9,-55
16,80,64,-49,-24,72,-27,76,103,51,39,-51
-10,55,64,-23,-37,59,-49,35,73,55,49,-46
-5,55,60,-25,-33,57,-56,14,62,54,69,-41
-7,51,58,-22,-32,54,-54,-3,50,57,76,-42
-6,49,55,-22,-31,51,-59,-7,41,61,74,-47
-8,45,53,-19,-31,49,-60,-2,40,59,79,-50
-2,46,48,-22,-25,46,-59,0,40,64,80,-55
8,51,42,-30,-17,46,-55,4,39,67,80,-55
11,50,39,-30,-14,44,-55,8,45,71,84,-55
17,50,33,-34,-8,41,-54,11,59,87,89,-55
20,50,30,-35,-5,40,-50,24,70,92,90,-54
13,50,37,-32,-12,43,-50,39,79,97,90,-58
11,47,36,-29,-13,41,-52,42,80,111,90,-60
13,44,31,-28,-10,37,-55,36,80,108,90,-60
12,41,29,-27,-8,35,-55,31,80,104,90,-64
14,38,24,-26,-5,31,-55,27,80,101,90,-65
15,36,21,-25,-4,28,-55,22,79,96,85,-65
16,33,17,-25,-1,25,-55,18,72,94,85,-70
15,30,15,-23,0,22,-55,11,67,87,85,-70
15,30,15,-23,0,22,-55,3,62,83,85,-70
13,28,15,-21,-1,21,-55,-5,56,77,85,-70
9,24,15,-17,-3,20,-55,-13,52,71,83,-70
10,25,15,-18,-3,20,-55,-19,46,66,79,-70
6,21,15,-14,-4,18,-53,-26,40,61,77,-70
5,19,15,-13,-5,17,-49,-35,35,57,74,-70
5,20,15,-13,-5,17,-50,-41,29,54,71,-70
5,20,15,-13,-5,17,-50,-43,24,50,69,-70
5,21,16,-13,-5,18,-50,-53,19,47,66,-69
6,19,12,-13,-3,15,-50,-61,15,43,65,-65
4,15,10,-10,-3,12,-50,-59,13,40,65,-65
-1,15,16,-8,-9,15,-50,-63,10,37,65,-65
0,15,15,-8,-8,15,-49,-65,6,35,66,-65
4,15,11,-10,-4,13,-56,-65,5,31,62,-66
5,14,9,-10,-3,11,-60,-69,1,29,60,-62
12,18,6,-16,3,12,-53,-70,0,34,60,-60
23,27,4,-25,9,15,-50,-70,0,35,60,-60
5,23,18,-14,-7,20,-45,-70,-5,35,60,-56
-11,21,32,-5,-21,26,-40,-70,-5,35,60,-55
-9,17,26,-4,-18,22,-45,-70,-6,35,60,-55
-6,15,21,-5,-14,18,-54,-70,-11,34,59,-55
-4,13,17,-4,-10,14,-55,-70,-14,30,61,-55
1,9,9,-5,-4,9,-55,-70,-17,30,59,-55
20,27,7,-24,6,16,-55,-70,-22,30,61,-55
37,31,-6,-34,22,12,-55,-70,-25,30,70,-55
33,22,-11,-27,22,5,-54,-74,-29,30,65,-55
11,16,6,-14,2,11,-50,-75,-30,27,60,-55
3,9,6,-6,-2,7,-50,-75,-30,24,56,-55
-2,2,5,-1,-4,3,-48,-75,-30,21,51,-55
-3,2,4,0,-4,2,-43,-74,-30,18,47,-55
7,6,-1,-7,3,2,-47,-75,-29,15,44,-55
4,4,0,-4,1,2,-39,-68,-23,15,46,-49
12,9,-3,-10,7,3,-40,-74,-18,14,41,-44
27,10,-17,-18,22,-3,-54,-84,-12,15,40,-39
21,10,-11,-15,16,-1,-47,-75,-6,15,39,-33
24,29,6,-27,9,17,-39,-64,0,20,52,-27
44,58,14,-51,15,35,-30,-55,7,43,73,-22
54,98,44,-76,4,71,-27,-46,24,50,76,-16
50,111,61,-80,-6,86,-30,-36,31,41,82,-11
53,101,48,-77,2,74,-55,-60,9,37,82,-4
57,97,40,-77,9,68,-91,-93,-16,28,71,0
55,92,37,-73,9,64,-87,-95,-21,24,67,5
82,77,-5,-79,44,35,-80,-98,-24,16,57,3
92,34,-58,-63,75,-12,-78,-111,-45,10,50,-9
71,21,-49,-46,60,-14,-68,-113,-53,8,64,-14
64,12,-52,-38,58,-19,-67,-118,-60,-5,59,-39
48,6,-43,-27,45,-18,-59,-102,-48,2,58,-50
34,-2,-37,-16,36,-19,-55,-115,-64,-22,42,-55
25,-12,-37,-6,31,-24,-54,-95,-46,-2,47,-55
6,-13,-19,4,13,-16,-41,-103,-52,-20,30,-53
-5,-36,-31,21,14,-33,-14,-47,-13,20,32,-65
-56,40,97,8,-76,68,167,301,309,162,60,-48
78,222,144,-150,-33,183,220,694,844,742,454,180
252,405,153,-329,49,279,-15,373,712,1126,1026,600
126,208,82,-167,22,145,-366,-1054,-878,-288,359,426
17,-204,-221,94,119,-212,-692,-2005,-1992,-1502,-643,-165
-115,-377,-262,246,74,-319,-522,-1619,-1667,-1336,-797,-436
-126,-360,-233,243,54,-296,-214,-849,-1012,-909,-608,-409
-31,-179,-148,105,58,-163,-124,-298,-378,-353,-247,-194
-102,-103,-1,102,-50,-52,-30,-85,-105,-136,-98,-116
-64,-98,-34,81,-14,-66,1,-33,-62,-97,-81,-128
-28,-73,-44,51,8,-58,13,-18,-29,-54,-56,-113
-38,-76,-37,57,0,-56,29,-1,-18,-54,-73,-119
-24,-56,-32,40,4,-44,40,17,1,-33,-57,-107
-35,-57,-23,46,-6,-40,44,25,4,-41,-63,-110
-56,-54,2,55,-28,-26,44,41,20,-26,-58,-102
-74,-55,19,64,-46,-18,49,58,26,-26,-58,-100
-68,-55,13,61,-40,-21,50,64,37,-18,-54,-97
-67,-55,12,61,-39,-21,54,73,53,-10,-51,-92
-60,-52,8,56,-33,-22,56,91,67,-1,-49,-90
-55,-49,6,52,-30,-21,64,106,79,11,-45,-85
-55,-50,4,52,-29,-23,71,127,93,19,-44,-82
-66,-45,21,55,-43,-12,78,152,119,31,-38,-78
-63,-45,18,54,-40,-14,82,166,127,33,-31,-75
-60,-44,16,52,-38,-14,102,196,155,46,-25,-71
-36,-36,0,36,-18,-18,119,231,187,64,-17,-70
-39,-28,11,33,-25,-8,125,266,209,69,-11,-70
-62,-20,42,41,-51,11,134,314,252,86,-13,-70
-12,-12,0,12,-6,-5,159,364,286,100,-16,-70
-15,-4,11,10,-13,4,196,432,339,104,-19,-70
-24,22,46,1,-35,34,214,479,373,98,-22,-69
-26,37,62,-6,-44,49,238,519,399,90,-24,-66
-41,36,77,2,-59,56,251,555,416,85,-27,-63
-18,63,81,-23,-49,72,248,563,401,76,-40,-61
-35,69,104,-17,-70,86,245,550,399,58,-55,-57
-35,83,117,-24,-76,100,241,503,364,32,-59,-55
-2,109,112,-54,-57,110,223,434,318,14,-54,-52
-4,97,101,-47,-53,99,178,340,267,9,-49,-43
-8,85,93,-39,-51,89,133,251,194,10,-46,-32
-8,75,83,-34,-45,79,90,163,138,6,-34,-23
4,64,60,-34,-28,62,59,86,89,4,-12,-14
19,57,38,-38,-10,47,37,46,54,6,0,-9
19,47,28,-34,-4,37,21,10,44,9,9,-4
23,38,15,-31,3,27,14,-9,38,12,36,2
26,30,5,-28,10,17,7,-17,30,14,47,8
32,30,-1,-31,16,15,1,-29,22,18,44,13
36,29,-7,-32,21,11,-6,-32,17,19,49,15
36,26,-10,-31,23,8,-9,-23,19,24,50,15
40,24,-15,-32,27,4,-4,-12,24,36,51,15
45,25,-19,-35,32,3,1,-3,27,42,54,15
42,25,-17,-33,29,4,5,11,34,48,57,15
43,29,-14,-35,28,8,10,24,51,53,59,21
60,49,-12,-55,36,18,15,44,71,71,66,23
60,53,-8,-56,34,22,15,49,75,81,70,19
49,43,-6,-46,27,19,15,41,68,72,63,17
41,37,-3,-39,22,17,15,38,65,70,60,14
29,29,0,-29,15,14,15,31,60,65,55,11
21,21,0,-21,10,10,15,27,56,60,50,9
23,23,0,-23,12,12,14,20,50,56,47,6
35,31,-4,-33,19,13,9,10,40,49,42,5
35,25,-10,-29,22,7,6,2,32,43,39,5
36,20,-16,-28,26,2,3,-8,22,36,36,5
36,17,-19,-26,27,-1,-2,-16,14,29,31,5
25,10,-15,-17,20,-2,-5,-25,5,25,30,7
26,14,-13,-20,19,1,-9,-33,-4,25,30,10
38,28,-10,-33,24,9,-10,-39,-12,25,30,13
48,42,-6,-45,27,17,-10,-40,-22,25,30,16
43,39,-5,-40,24,17,-14,-40,-29,25,30,19
39,30,-8,-35,23,11,-16,-45,-30,25,30,20
36,24,-12,-30,24,6,-14,-45,-30,21,34,20
30,16,-15,-23,22,1,-10,-45,-35,20,35,20
28,9,-19,-18,23,-5,-10,-45,-35,20,35,20
24,5,-19,-14,21,-7,-8,-45,-36,15,35,20
19,5,-14,-12,16,-4,-4,-45,-41,15,35,19
13,5,-8,-9,10,-1,-5,-44,-39,14,34,23
10,5,-5,-7,7,0,-5,-46,-43,10,30,25
5,5,0,-5,2,2,-5,-40,-45,10,30,25
1,6,5,-4,-2,5,-5,-44,-45,10,30,29
7,9,2,-8,3,5,-5,-57,-49,10,30,30
14,11,-3,-13,8,4,-5,-53,-50,10,30,30
21,15,-6,-18,13,5,-7,-50,-50,6,26,30
22,13,-9,-18,16,2,-10,-48,-50,5,25,30
21,7,-14,-14,17,-3,-12,-44,-50,5,25,30
17,3,-14,-9,15,-6,-16,-48,-50,0,25,30
6,-2,-7,-2,7,-4,-11,-50,-50,0,25,30
-5,-6,-1,6,-2,-3,-10,-50,-50,-1,25,27
-16,-10,6,13,-11,-2,-10,-54,-50,-5,26,25
-23,-10,13,16,-18,1,-9,-55,-50,-7,24,25
-29,-10,19,19,-24,4,-11,-55,-50,-10,29,25
-31,-10,21,20,-26,5,-8,-60,-47,-13,36,25
-29,-10,19,19,-24,5,-5,-60,-44,-16,31,25
-31,-11,21,21,-26,5,-2,-62,-41,-11,29,30
-27,-7,19,17,-23,6,0,-65,-38,-5,25,30
-22,-2,20,12,-21,9,3,-66,-36,-1,20,30
-14,5,20,5,-17,12,6,-62,-33,6,20,30
-13,9,22,2,-17,15,9,-54,-26,11,20,30
-24,28,52,-2,-38,40,22,-45,-13,17,32,33
-14,47,61,-17,-38,54,28,-38,-6,29,46,49
-3,66,69,-32,-36,67,43,-30,14,42,58,68
12,95,82,-54,-35,88,41,-24,38,54,70,71
26,91,65,-59,-20,78,-11,-44,16,51,69,75
26,83,58,-55,-16,70,-47,-70,-13,40,63,74
41,79,38,-60,2,58,-48,-67,-17,39,63,65
39,46,7,-42,16,27,-39,-73,-33,26,54,56
42,15,-27,-28,34,-6,-31,-68,-38,26,55,48
40,4,-35,-22,37,-15,-20,-71,-58,15,45,38
-6,-20,-14,13,4,-17,-15,-71,-63,8,38,30
-40,-30,10,35,-25,-10,1,-62,-50,7,36,26
-47,-40,8,43,-27,-16,4,-73,-65,-14,17,14
-63,-30,33,46,-48,2,25,-47,-34,1,28,15
-50,-39,11,44,-30,-14,29,-82,-74,-28,-3,-2
-53,-28,25,40,-38,-2,82,76,51,43,25,7
-56,113,169,-29,-113,141,267,487,472,284,135,62
110,311,201,-211,-45,255,214,768,938,969,670,370
149,380,231,-265,-41,305,-58,22,317,807,907,658
59,54,-5,-57,32,24,-464,-1541,-1400,-815,-67,239
-52,-309,-257,181,103,-283,-661,-2001,-1970,-1482,-766,-277
-198,-393,-195,296,-1,-294,-347,-1340,-1427,-1154,-741,-392
-96,-277,-181,187,43,-229,-131,-604,-754,-675,-461,-273
-51,-122,-70,87,10,-96,-40,-168,-233,-218,-146,-85
-95,-93,2,94,-49,-45,52,-40,-95,-126,-94,-58
-78,-68,10,73,-44,-29,55,0,-39,-69,-62,-55
-102,-63,39,82,-70,-12,71,14,-21,-57,-60,-48
-94,-57,37,75,-65,-10,72,45,-4,-42,-57,-47
-89,-45,44,67,-66,0,81,54,8,-28,-46,-38
-76,-43,33,59,-54,-5,82,63,18,-28,-47,-46
-66,-32,34,49,-50,1,92,69,33,-14,-36,-44
-57,-29,28,43,-42,-1,102,82,42,-14,-37,-46
-44,-20,24,31,-34,2,99,108,63,-2,-29,-45
-44,-15,29,29,-36,7,99,111,69,3,-29,-45
-48,-9,38,28,-43,14,108,131,89,14,-23,-44
-61,-11,50,36,-56,20,120,154,103,22,-20,-40
-76,-28,48,52,-62,10,122,160,112,30,-17,-40
-80,-36,43,57,-61,3,124,181,130,42,-11,-40
-68,-27,41,47,-55,7,131,213,154,55,-7,-40
-54,-19,35,36,-45,8,146,242,178,65,-3,-40
-48,-11,37,29,-42,13,152,270,200,76,3,-36
-44,-3,40,24,-42,18,168,315,236,92,4,-35
-35,9,44,13,-40,26,195,365,274,106,0,-35
-27,25,52,0,-39,38,212,417,313,122,0,-30
-38,32,70,3,-55,51,238,476,357,134,0,-30
-35,47,82,-6,-59,64,270,535,398,126,0,-29
-3,64,68,-31,-36,66,290,576,422,119,0,-24
-18,68,86,-25,-53,77,299,589,417,113,-4,-19
-47,66,114,-10,-80,90,298,584,410,99,-15,-15
-51,90,141,-20,-96,116,288,572,406,77,-22,-10
-39,130,170,-46,-105,150,273,530,375,49,-33,-5
-24,128,153,-52,-89,140,235,445,319,31,-39,-2
-37,107,143,-35,-90,125,190,346,255,29,-27,3
-34,95,129,-31,-82,112,150,254,187,26,-16,6
-17,83,100,-34,-58,91,111,175,133,23,-2,9
-5,72,77,-34,-41,75,79,108,84,20,11,14
6,64,58,-35,-27,61,54,64,49,21,26,15
5,58,53,-31,-24,55,48,50,41,26,38,15
4,51,47,-28,-22,49,45,39,34,29,41,15
0,44,44,-22,-22,44,41,27,28,34,44,15
-1,38,38,-19,-20,38,37,25,20,37,47,15
-1,34,35,-17,-18,34,35,25,16,41,50,15
6,36,30,-21,-12,33,40,26,14,48,50,11
11,34,23,-23,-6,28,40,23,15,49,52,10
19,39,20,-29,-1,29,40,31,25,55,56,10
39,46,7,-42,16,26,40,44,34,65,55,12
-2,40,41,-19,-21,40,39,53,51,73,55,24
-36,36,72,0,-54,53,43,61,62,82,55,26
-26,31,57,-3,-41,44,45,59,59,79,54,22
-26,27,53,-1,-40,40,45,60,58,80,61,20
-23,21,44,1,-33,32,45,60,54,80,65,16
-12,26,37,-7,-25,31,45,60,56,80,60,15
5,36,31,-21,-14,33,45,56,50,76,58,11
0,29,29,-15,-15,29,40,45,40,65,53,10
-5,25,30,-10,-18,27,40,35,32,57,50,10
-3,22,25,-10,-14,23,39,25,22,47,47,5
-10,15,25,-3,-18,20,35,17,14,39,44,5
-6,18,24,-6,-15,21,35,13,6,35,45,5
1,21,19,-11,-9,20,33,7,-1,35,45,5
11,27,16,-20,-3,21,29,1,-8,33,46,5
22,34,12,-28,5,23,27,-4,-16,29,44,5
22,31,9,-27,6,20,24,-9,-22,31,40,5
20,24,4,-23,7,14,21,-10,-29,26,40,5
18,20,2,-19,8,11,20,-10,-30,25,40,9
15,13,-2,-14,8,5,20,-10,-31,25,40,10
15,11,-5,-12,10,3,20,-10,-34,20,40,10
30,21,-9,-25,19,6,20,-11,-36,20,37,10
28,19,-9,-23,18,5,20,-15,-34,19,34,10
0,25,26,-13,-13,25,20,-15,-39,15,31,10
-12,35,48,-12,-30,41,20,-15,-50,13,28,10
-14,25,38,-6,-26,31,20,-15,-50,10,25,10
-13,20,33,-3,-23,26,20,-15,-50,7,24,10
-13,12,26,0,-20,19,20,-15,-50,5,20,10
-13,6,19,4,-17,12,20,-15,-50,2,20,9
-4,9,14,-3,-9,11,19,-15,-50,0,18,15
15,20,6,-18,4,13,16,-15,-50,0,14,23
29,28,-1,-28,14,14,15,-15,-50,0,16,18
32,24,-8,-27,20,8,15,-15,-50,0,11,12
34,19,-16,-26,25,1,15,-15,-50,1,10,8
38,15,-23,-26,30,-4,15,-15,-50,5,10,1
32,10,-22,-21,27,-6,15,-15,-50,5,5,-4
21,5,-16,-13,18,-5,15,-15,-50,5,4,-2
16,5,-12,-10,13,-3,15,-15,-50,5,6,1
13,5,-7,-9,10,-1,15,-12,-50,5,10,0
7,5,-3,-6,4,1,15,-6,-50,8,15,0
3,5,2,-5,0,3,15,-2,-48,11,17,0
1,4,3,-3,-2,4,15,2,-43,13,22,1
13,6,-6,-9,9,0,15,7,-37,17,24,7
36,14,-22,-25,29,-3,15,12,-34,20,22,13
37,26,-12,-31,24,7,15,19,-27,20,20,17
12,34,22,-23,-5,28,16,28,-25,32,20,25
-18,45,63,-14,-40,53,33,46,-13,52,43,27
-5,74,78,-35,-42,76,53,67,8,57,54,39
24,86,62,-55,-20,74,33,51,0,52,48,51
23,78,55,-51,-16,66,-23,15,-22,46,46,45
39,73,34,-56,2,54,-51,8,-30,40,41,40
68,62,-7,-65,37,27,-44,13,-34,37,39,37
71,18,-53,-45,62,-18,-38,3,-61,27,32,30
57,-3,-60,-27,58,-31,-31,9,-63,30,32,28
36,-12,-48,-12,43,-30,-24,1,-68,15,16,8
24,-25,-49,1,36,-36,-10,18,-65,20,19,-5
3,-27,-30,12,17,-29,8,22,-73,8,2,-17
-10,-51,-41,30,16,-45,8,13,-70,6,1,-24
-21,-34,-13,28,-3,-24,25,19,-65,14,-4,-25
-22,-62,-40,42,10,-51,19,17,-76,12,-11,-44
-55,12,67,22,-61,39,143,283,180,129,49,-16
-18,170,188,-76,-103,178,274,707,681,544,262,113
207,362,155,-285,26,258,101,676,854,1153,930,553
178,316,138,-247,19,227,-171,-424,-324,240,656,594
-16,-123,-107,69,46,-115,-454,-1563,-1671,-1267,-505,-16
-130,-311,-182,221,26,-246,-433,-1553,-1671,-1333,-815,-353
-173,-345,-172,259,-1,-259,-167,-988,-1210,-1008,-704,-390
-63,-235,-172,149,55,-203,-69,-340,-583,-511,-400,-232
-39,-87,-48,63,5,-67,20,4,-138,-119,-142,-101
-37,-99,-62,68,12,-80,55,59,-76,-82,-122,-97
-22,-70,-48,46,13,-59,47,110,-31,-25,-79,-69
-39,-82,-43,60,3,-62,68,119,-22,-30,-92,-77
-31,-72,-41,52,6,-56,72,142,0,-3,-77,-66
-40,-70,-31,55,-5,-50,77,148,8,0,-77,-64
-41,-71,-30,56,-5,-50,73,156,28,7,-72,-60
-22,-64,-42,43,10,-53,76,166,42,16,-65,-72
-5,-65,-60,36,28,-63,75,170,42,18,-67,-76
-7,-59,-52,33,22,-55,75,185,54,30,-63,-68
2,-59,-60,29,31,-59,75,197,61,31,-63,-68
5,-54,-59,24,33,-56,85,208,72,36,-59,-61
7,-53,-60,23,34,-56,93,231,87,52,-60,-60
16,-49,-65,17,40,-57,95,249,100,63,-55,-55
14,-50,-65,19,39,-57,100,268,116,65,-50,-55
15,-50,-66,18,41,-57,102,292,133,69,-46,-54
14,-50,-64,18,39,-57,113,328,164,82,-42,-50
16,-50,-66,18,41,-57,125,369,200,105,-35,-49
21,-41,-62,10,42,-51,135,407,231,111,-37,-59
26,-28,-54,2,40,-41,153,466,274,132,-40,-64
30,-17,-46,-6,38,-31,168,517,316,148,-41,-55
33,-4,-37,-14,35,-20,188,570,361,140,-46,-50
39,7,-32,-23,36,-12,213,626,404,135,-43,-42
19,20,1,-19,9,10,231,665,435,127,-54,-36
-8,31,39,-12,-24,35,240,679,446,121,-67,-31
4,43,39,-24,-18,41,233,668,443,114,-82,-24
20,61,42,-41,-11,51,228,650,430,97,-90,-18
16,65,49,-41,-17,57,218,594,391,80,-80,-11
15,58,43,-37,-14,50,180,511,325,72,-74,-4
20,55,35,-38,-8,45,140,419,252,66,-68,1
21,50,29,-35,-4,39,104,323,187,58,-57,5
41,46,4,-44,18,25,66,242,123,50,-38,10
59,41,-19,-50,39,11,47,182,68,47,-17,12
71,35,-36,-53,53,0,41,138,36,50,0,17
65,30,-35,-47,50,-2,33,119,27,61,10,19
44,24,-19,-34,31,3,27,121,26,67,20,25
78,19,-59,-48,68,-20,18,119,21,64,36,39
101,13,-88,-57,94,-37,17,121,18,66,41,40
93,11,-82,-52,88,-36,20,119,14,63,39,40
87,8,-78,-47,82,-35,20,124,23,76,44,40
85,8,-77,-46,80,-34,24,142,30,103,45,40
71,0,-71,-35,71,-35,25,145,38,106,46,40
87,24,-63,-56,75,-19,24,156,61,104,49,40
99,26,-73,-62,86,-23,20,161,66,107,54,40
42,-12,-54,-15,48,-32,20,159,64,106,53,40
55,-10,-65,-22,60,-37,19,161,65,104,49,40
71,-9,-80,-30,75,-44,15,159,64,101,51,40
56,-11,-67,-22,62,-39,15,160,65,98,46,37
62,-9,-71,-26,66,-40,13,154,59,95,45,34
53,-11,-64,-20,59,-37,9,148,52,94,45,31
51,-15,-65,-18,58,-40,7,144,46,88,40,28
50,-22,-73,-14,62,-47,4,137,39,82,40,25
46,-26,-71,-9,59,-48,1,133,33,78,39,25
48,-33,-80,-7,65,-56,-1,127,27,71,35,25
39,-38,-77,0,58,-57,-4,119,18,67,35,25
38,-38,-76,0,58,-57,-9,113,9,61,33,25
71,-33,-104,-18,88,-68,-11,105,0,55,28,25
74,-30,-104,-22,89,-67,-16,97,-9,50,25,25
71,-27,-98,-22,85,-62,-20,91,-16,44,22,25
75,-22,-97,-26,86,-59,-18,85,-23,39,17,25
70,-21,-91,-25,81,-56,-15,85,-29,34,15,25
69,-19,-88,-25,79,-53,-12,85,-35,30,20,25
62,-24,-86,-18,74,-55,-9,85,-43,30,20,24
48,-35,-83,-6,66,-59,-6,85,-45,30,20,26
47,-35,-82,-6,65,-58,-5,85,-46,30,20,30
42,-35,-77,-4,60,-56,-10,85,-44,30,20,30
46,-35,-81,-5,64,-58,-10,85,-47,30,20,30
68,-35,-103,-16,86,-69,-10,85,-59,30,20,30
52,-33,-85,-9,69,-59,-10,85,-56,30,20,30
43,-29,-72,-6,57,-50,-9,84,-49,30,20,26
47,-31,-77,-8,62,-53,-13,80,-45,30,20,25
47,-26,-73,-10,61,-50,-15,80,-37,30,20,25
51,-25,-76,-13,64,-50,-15,80,-37,30,15,21
49,-25,-74,-11,62,-50,-15,80,-40,30,15,19
47,-25,-72,-11,60,-48,-15,80,-40,30,14,21
42,-25,-67,-8,55,-46,-15,77,-42,30,10,25
39,-25,-64,-7,52,-44,-10,74,-46,30,10,25
36,-25,-61,-5,49,-43,-10,75,-45,27,12,25
31,-25,-55,-3,44,-40,-9,71,-45,24,17,25
31,-25,-56,-2,44,-41,-5,70,-45,21,25,25
35,-25,-60,-5,48,-42,-5,70,-45,18,26,25
31,-25,-56,-3,44,-40,-3,70,-45,15,24,25
25,-41,-66,8,46,-54,1,70,-45,16,21,25
40,-40,-80,0,60,-60,3,69,-44,19,18,25
47,-26,-73,-10,60,-49,7,71,-36,23,22,25
39,-20,-59,-10,49,-39,9,68,-27,24,24,24
52,9,-43,-30,48,-17,11,80,-19,37,33,34
63,35,-28,-49,45,3,16,90,-12,46,45,47
63,47,-16,-55,39,15,26,101,-5,52,52,49
68,62,-6,-65,36,28,24,115,1,78,64,54
55,61,6,-58,24,33,-16,78,5,75,66,59
47,47,0,-47,23,24,-43,51,-11,61,59,52
67,43,-24,-55,46,9,-37,59,-22,58,61,48
78,20,-58,-49,68,-19,-33,51,-35,42,53,42
89,-8,-97,-40,93,-52,-30,51,-49,42,55,36
78,-10,-88,-33,84,-49,-23,50,-60,30,46,33
79,-25,-103,-26,91,-64,-20,45,-64,25,36,22
69,-15,-84,-26,77,-49,-5,50,-52,23,39,22
37,-59,-97,11,67,-78,0,37,-79,6,14,3
17,-70,-87,27,52,-78,16,59,-44,19,32,8
24,-60,-84,19,54,-71,29,22,-69,-10,-9,-14
24,-60,-83,18,54,-71,84,155,41,60,12,-30
-23,74,97,-26,-60,85,251,591,520,331,134,16
198,270,72,-234,63,171,190,789,931,1056,749,377
229,387,157,-308,36,272,-73,76,249,829,1075,767
94,53,-41,-74,68,6,-345,-1205,-1331,-899,-53,299
-30,-243,-213,137,92,-228,-481,-1628,-1812,-1522,-775,-256
-86,-331,-245,209,80,-288,-265,-1202,-1422,-1218,-774,-396
-74,-323,-249,199,88,-286,-81,-579,-852,-809,-540,-337
-442,-145,297,294,-370,76,-4,-57,-315,-259,-208,-135
-440,-142,299,291,-369,78,86,-144,-347,-147,-223,-107
