I,II,III,aVR,aVL,aVF,V1,V2,V3,V4,V5,V6
-133,-30,103,81,-118,36,34,-60,-53,-71,-58,-74
-153,-63,90,108,-121,13,34,-75,-64,-93,-63,-76
-155,-68,86,112,-120,9,54,-64,-55,-78,-56,-74
-134,-37,97,86,-115,30,48,-66,-71,-69,-71,-75
-137,-60,78,99,-107,9,47,-35,-55,-72,-84,-87
-117,-35,82,76,-99,23,138,170,47,-44,-65,-108
7,21,14,-14,-4,18,129,365,297,168,109,-7
371,410,39,-391,166,224,-53,27,781,726,682,432
167,601,434,-385,-133,517,-227,-1056,381,512,612,575
-306,352,657,-23,-482,504,-341,-1539,-119,-23,85,252
-277,220,497,28,-387,358,-334,-1002,-110,-65,-31,63
-171,89,260,41,-216,175,-137,-378,-177,-120,-81,-21
-110,24,134,43,-122,79,-8,-73,-55,-69,-56,-60
-117,-14,103,65,-110,45,13,-8,-47,-65,-50,-58
-122,-40,81,81,-101,20,44,52,-40,-67,-55,-62
-100,-18,82,59,-91,31,44,74,-22,-47,-41,-58
-87,-12,75,49,-81,31,45,83,-31,-54,-48,-62
-94,-23,71,58,-82,24,47,75,-8,-42,-35,-58
-102,-35,67,68,-84,16,50,87,-17,-55,-38,-53
-44,17,62,13,-53,39,51,109,1,-39,-29,-46
-45,12,57,16,-51,34,46,114,2,-38,-27,-39
-57,-6,50,31,-53,22,45,131,14,-28,-22,-32
-22,22,45,0,-34,33,45,152,21,-22,-16,-26
-2,39,41,-18,-22,40,45,186,27,-13,-5,-20
13,44,30,-29,-9,37,45,207,31,-2,8,-12
6,42,36,-24,-15,39,43,233,42,7,18,-6
-3,54,57,-26,-30,55,30,260,57,21,26,0
7,64,57,-36,-25,60,12,305,77,34,53,18
34,84,50,-59,-8,67,0,345,85,57,74,34
78,125,47,-102,15,86,-9,369,95,74,83,48
92,134,42,-113,25,87,-21,406,120,93,112,77
115,153,37,-134,39,95,-27,424,132,116,141,102
148,183,35,-166,56,109,-47,427,147,139,161,113
174,208,34,-191,70,120,-64,418,165,157,179,127
159,226,67,-192,45,147,-56,407,197,172,207,136
131,214,84,-172,23,149,-54,398,207,169,207,134
138,216,78,-177,29,147,-38,365,198,156,187,130
92,209,117,-151,-12,162,-17,305,190,149,162,107
29,152,123,-91,-47,137,1,232,160,121,119,68
3,110,107,-57,-53,108,33,168,125,80,80,36
-21,109,130,-44,-76,119,41,118,90,41,42,14
-59,88,147,-15,-103,118,39,85,62,24,13,3
-85,65,150,10,-118,107,40,79,50,21,4,-6
-91,59,150,16,-121,104,39,81,48,15,5,-13
-103,47,150,28,-127,98,59,76,46,11,5,-19
-108,38,146,35,-128,92,60,75,42,7,5,-15
-100,33,133,33,-117,83,48,75,40,2,5,-15
-98,30,127,34,-112,78,41,68,37,-7,1,-13
-84,27,111,28,-98,69,29,58,29,-15,-6,-10
-90,21,111,35,-101,66,26,50,23,-24,-9,-9
-104,22,126,41,-115,74,23,40,15,-30,0,-14
-84,29,113,28,-99,70,21,32,7,-32,0,-32
-86,22,108,32,-97,65,17,23,1,-37,-14,-37
-93,12,105,40,-99,58,15,12,-7,-38,-25,-34
-95,4,99,45,-98,51,14,3,-18,-45,-36,-34
-98,-3,96,50,-97,46,16,-12,-25,-57,-43,-30
-97,-7,89,52,-93,41,37,-25,-26,-61,-39,-29
-101,-13,88,56,-94,37,41,-27,-35,-64,-41,-37
-98,-19,79,58,-88,30,39,-31,-43,-68,-38,-35
-107,-24,83,65,-95,29,41,-40,-44,-70,-47,-37
-117,-22,95,69,-106,36,40,-42,-42,-65,-70,-47
-107,-17,90,62,-99,36,40,-38,-38,-65,-68,-43
-99,-14,84,56,-91,35,36,-36,-36,-64,-64,-40
-94,-11,83,52,-88,36,33,-33,-33,-60,-61,-38
-79,-5,74,42,-76,34,31,-29,-28,-60,-56,-34
-92,-9,83,50,-87,37,27,-33,-39,-62,-54,-38
-134,-21,113,77,-123,46,25,-43,-47,-73,-50,-44
-118,-15,103,66,-110,44,27,-50,-44,-80,-50,-45
-92,-9,82,50,-87,36,30,-50,-46,-79,-50,-45
-108,-9,99,58,-103,45,41,-50,-45,-82,-50,-45
-103,3,106,49,-104,55,51,-50,-46,-85,-49,-45
-122,-18,104,70,-113,43,50,-47,-46,-85,-59,-45
-118,-16,102,67,-110,42,50,-42,-40,-82,-63,-43
-87,12,99,38,-93,55,57,-37,-32,-74,-51,-37
-88,13,101,37,-94,57,52,-36,-27,-66,-44,-34
-55,51,105,2,-80,77,66,-10,-12,-48,-32,-30
-39,93,132,-27,-86,112,75,18,2,-30,-12,-25
-44,96,141,-26,-93,118,31,7,-3,-31,-2,-25
-39,104,143,-33,-91,123,18,-2,-10,-29,5,-23
-39,100,138,-31,-89,119,22,-28,-13,-31,-2,-21
-34,53,87,-10,-60,70,18,-65,-22,-42,-19,-18
-55,15,70,20,-62,42,22,-62,-30,-56,-28,-31
-127,-56,71,91,-99,8,18,-75,-65,-89,-63,-55
-128,-72,56,99,-92,-8,22,-72,-66,-87,-69,-65
-130,-60,71,95,-100,5,17,-91,-82,-99,-79,-83
-145,-79,66,112,-105,-7,23,-71,-70,-90,-75,-83
-124,-50,74,87,-99,11,16,-73,-76,-86,-80,-86
-127,-81,47,104,-87,-17,29,-70,-78,-94,-82,-93
-119,-59,60,88,-89,1,111,121,15,-62,-56,-94
-44,-18,26,31,-35,4,113,301,176,53,11,-59
361,312,-49,-336,204,131,-48,107,640,569,524,325
332,591,259,-462,36,425,-231,-875,466,572,637,583
-196,345,541,-75,-368,442,-339,-1511,-88,28,118,293
-248,176,424,36,-336,300,-342,-1052,-152,-103,-48,69
-139,54,193,42,-166,123,-177,-430,-191,-142,-87,3
-83,-12,71,48,-77,29,-34,-105,-97,-110,-92,-55
-63,-22,41,43,-52,9,-3,-42,-62,-87,-73,-66
-75,-64,11,69,-42,-26,29,4,-73,-101,-84,-67
-55,-48,6,52,-30,-21,29,24,-50,-77,-65,-57
-54,-64,-10,60,-22,-37,30,42,-66,-87,-73,-55
-37,-58,-20,48,-8,-39,36,66,-45,-70,-58,-48
-39,-61,-22,50,-9,-41,34,65,-54,-73,-56,-42
-44,-61,-17,52,-13,-39,36,86,-42,-63,-47,-43
-44,-59,-15,52,-15,-36,31,93,-38,-61,-40,-43
-52,-62,-10,57,-21,-36,30,113,-31,-57,-36,-36
-40,-48,-7,44,-16,-28,29,133,-23,-51,-27,-31
-20,-23,-3,22,-8,-13,26,141,-19,-48,-20,-26
-29,-8,20,18,-24,6,21,152,-11,-37,-10,-19
3,-2,-5,0,4,-4,19,181,-4,-27,-2,-16
28,20,-8,-24,18,6,14,215,4,-18,4,-2
28,30,1,-29,14,15,12,248,17,3,23,13
58,44,-14,-51,36,15,3,278,36,26,48,23
77,59,-18,-68,47,20,-34,308,44,36,63,45
118,70,-48,-94,83,11,-51,326,61,60,85,67
162,113,-48,-137,105,32,-52,343,89,82,112,92
171,137,-34,-154,103,52,-58,368,102,101,142,122
184,153,-31,-168,107,61,-64,369,122,128,163,136
201,183,-18,-192,109,82,-70,354,138,141,158,136
195,181,-14,-187,104,83,-58,337,147,144,149,126
175,174,0,-174,87,87,-40,320,158,139,140,118
126,167,40,-147,43,104,-25,261,137,123,132,108
68,131,63,-100,2,97,-6,181,104,90,106,76
23,86,64,-55,-21,75,8,135,78,63,66,38
-36,45,81,-5,-59,63,29,99,57,39,38,17
-62,24,86,18,-74,55,51,66,32,1,12,-1
-72,12,84,30,-78,48,49,35,8,-22,-14,-23
-86,0,86,42,-86,43,46,29,5,-29,-25,-32
-89,-5,84,47,-86,39,43,31,5,-31,-25,-30
-100,-13,86,56,-93,36,40,29,5,-29,-25,-30
-80,-18,62,49,-71,22,39,42,5,-31,-25,-26
-75,-28,47,51,-61,9,34,39,5,-29,-24,-24
-100,-27,73,63,-86,23,31,28,-2,-31,-27,-26
-77,-32,45,54,-60,6,28,21,-12,-33,-31,-32
-88,-52,36,70,-62,-8,23,10,-19,-39,-36,-39
-123,-49,74,86,-98,12,20,4,-32,-52,-39,-43
-93,-48,45,70,-68,-1,24,-6,-46,-57,-43,-47
-70,-42,28,56,-49,-7,29,-9,-44,-60,-46,-50
-77,-53,24,65,-50,-14,25,-27,-49,-66,-49,-54
-82,-72,11,77,-47,-30,23,-49,-62,-72,-53,-55
-99,-69,29,84,-64,-20,20,-44,-70,-77,-55,-55
-106,-71,35,88,-71,-18,17,-56,-75,-81,-59,-55
-93,-68,25,81,-59,-21,15,-67,-78,-84,-59,-55
-107,-81,26,94,-66,-27,12,-64,-83,-86,-69,-55
-106,-90,17,98,-61,-37,10,-66,-85,-91,-81,-55
-99,-82,17,90,-58,-32,10,-65,-88,-87,-79,-60
-101,-77,24,89,-63,-26,10,-67,-91,-84,-80,-61
-79,-72,7,76,-43,-32,10,-65,-95,-85,-80,-60
-93,-64,29,78,-61,-17,12,-62,-95,-85,-80,-58
-124,-73,51,98,-87,-11,15,-59,-91,-85,-77,-54
-138,-101,36,119,-87,-32,19,-56,-89,-85,-71,-55
-121,-97,24,109,-72,-36,20,-54,-85,-90,-66,-58
-120,-82,38,101,-79,-22,20,-51,-83,-89,-63,-63
-129,-81,48,105,-88,-16,25,-50,-78,-92,-57,-65
-112,-84,28,98,-70,-27,25,-50,-85,-105,-56,-65
-106,-80,27,93,-66,-26,26,-50,-93,-103,-68,-65
-75,-73,2,74,-38,-35,30,-51,-89,-99,-71,-65
-80,-69,11,75,-45,-29,30,-47,-90,-96,-69,-65
-110,-59,51,84,-80,-4,27,-45,-90,-91,-71,-65
-100,-74,26,87,-63,-24,24,-45,-90,-88,-69,-62
-97,-92,6,94,-52,-43,26,-41,-89,-86,-72,-59
-98,-91,6,94,-52,-42,24,-39,-86,-82,-75,-56
-85,-96,-11,90,-36,-53,27,-41,-84,-80,-75,-53
-62,-91,-29,77,-17,-59,22,-44,-91,-76,-75,-51
-74,-90,-16,82,-29,-52,24,-48,-96,-74,-75,-48
-100,-90,10,95,-55,-40,44,-51,-94,-91,-75,-46
-111,-85,26,98,-68,-29,44,-55,-96,-94,-71,-43
-111,-85,25,98,-67,-30,38,-53,-95,-87,-65,-55
-105,-84,21,94,-63,-31,37,-47,-96,-84,-60,-64
-95,-75,20,85,-57,-27,30,-43,-92,-78,-54,-55
-79,-65,14,72,-47,-25,32,-40,-79,-75,-48,-46
-71,-55,16,63,-43,-19,57,-23,-67,-68,-44,-40
-41,-38,3,39,-22,-17,57,-4,-48,-54,-28,-30
-20,2,21,9,-20,11,36,1,-32,-31,-19,-18
-8,40,48,-16,-28,44,26,-1,-38,-20,-20,-2
6,37,31,-22,-12,34,21,1,-42,-19,-20,16
-14,8,22,3,-18,15,18,-21,-44,-25,-19,12
-30,-35,-4,32,-13,-19,12,-54,-63,-43,-22,-19
-71,-77,-7,74,-32,-42,10,-51,-81,-66,-53,-51
-99,-132,-33,116,-32,-83,20,-64,-103,-93,-82,-64
-96,-149,-53,122,-22,-101,31,-53,-85,-77,-72,-57
-129,-150,-21,140,-54,-86,38,-64,-107,-96,-85,-62
-106,-145,-39,126,-33,-92,43,-41,-100,-96,-80,-59
-96,-139,-43,117,-26,-91,34,-54,-106,-97,-87,-59
-97,-149,-52,123,-22,-101,64,-31,-87,-96,-85,-66
-135,-116,19,125,-77,-48,136,164,-3,-53,-64,-77
12,-82,-94,35,53,-87,113,364,184,111,67,-5
477,308,-168,-392,322,70,-78,150,589,574,573,409
282,523,241,-402,20,381,-190,-819,366,480,581,591
-266,215,480,25,-373,347,-188,-1304,-46,35,106,266
-283,76,359,104,-321,217,-217,-870,-112,-63,-28,74
-154,-17,137,85,-146,60,-112,-334,-183,-122,-77,11
-115,-93,23,104,-69,-35,11,-43,-88,-73,-67,-33
-120,-126,-6,123,-56,-66,27,-17,-81,-66,-52,-33
-67,-140,-73,104,3,-106,51,41,-82,-76,-55,-38
-47,-119,-72,83,13,-95,75,63,-69,-63,-37,-28
-61,-128,-68,95,4,-98,83,75,-79,-76,-44,-31
-51,-114,-62,83,6,-88,79,89,-64,-65,-33,-48
-59,-115,-56,87,-1,-85,81,88,-73,-68,-36,-54
-53,-103,-50,78,-1,-77,79,111,-58,-55,-30,-43
-36,-87,-51,61,8,-69,70,117,-58,-52,-30,-38
-33,-103,-70,68,19,-86,60,147,-49,-44,-26,-31
-41,-113,-71,77,15,-92,50,161,-45,-37,-19,-25
-32,-99,-67,65,18,-83,41,171,-46,-33,-18,-23
-12,-90,-78,51,33,-84,35,194,-40,-23,-10,-15
-1,-80,-78,41,39,-79,29,210,-30,-18,6,0
4,-70,-74,33,39,-72,24,241,-11,-2,28,19
44,-53,-97,5,71,-75,18,266,5,16,39,35
64,-33,-98,-15,81,-65,12,298,19,39,58,51
86,-7,-93,-40,90,-50,3,336,26,51,76,70
118,27,-91,-72,104,-32,-1,349,48,69,97,85
133,49,-85,-91,109,-18,-17,370,80,98,124,108
147,71,-76,-109,111,-3,-40,392,91,110,141,126
171,89,-82,-129,127,3,-40,413,122,148,181,150
192,104,-89,-148,140,8,-36,425,143,167,206,165
191,123,-68,-156,129,27,-28,428,159,179,206,170
207,150,-57,-178,132,46,-8,398,183,199,210,179
181,143,-38,-162,109,52,13,335,163,171,192,149
123,104,-19,-113,71,42,29,278,144,143,156,110
67,55,-12,-60,39,21,43,212,115,110,114,78
15,-5,-21,-4,18,-13,60,159,78,72,78,48
2,-27,-29,13,16,-27,68,122,66,55,60,37
-11,-43,-32,28,11,-37,73,107,58,37,44,31
-70,-75,-6,73,-32,-40,76,106,50,26,34,24
-56,-78,-22,67,-17,-50,79,100,43,22,30,18
-31,-71,-40,51,5,-55,82,96,35,19,25,11
-75,-66,9,70,-41,-28,85,87,27,16,21,8
-42,-60,-18,51,-11,-39,84,79,19,11,16,4
-31,-55,-23,43,-4,-39,79,71,11,9,13,1
-37,-63,-26,51,-5,-44,81,64,4,1,8,-4
-31,-69,-38,51,3,-53,77,55,-4,-6,5,-6
-43,-70,-27,57,-8,-49,75,45,-11,-13,2,-4
-46,-72,-26,59,-9,-49,75,35,-17,-21,-3,-16
-59,-78,-19,68,-19,-48,72,26,-31,-27,-5,-26
-50,-107,-57,79,3,-82,67,19,-35,-34,-15,-24
-63,-97,-34,80,-14,-65,64,7,-46,-35,-32,-26
-63,-80,-17,72,-22,-49,60,-5,-64,-35,-37,-21
-36,-86,-51,61,8,-68,56,-15,-65,-36,-35,-20
-48,-99,-51,74,2,-75,55,-21,-65,-36,-35,-20
-73,-113,-41,93,-16,-77,55,-27,-65,-35,-35,-20
-80,-112,-32,96,-24,-71,60,-30,-65,-35,-35,-20
-90,-117,-26,104,-31,-71,61,-30,-66,-35,-36,-21
-99,-119,-20,109,-40,-70,60,-42,-69,-35,-40,-30
-73,-120,-48,97,-12,-84,58,-46,-70,-37,-40,-35
-50,-114,-64,82,7,-89,54,-44,-70,-40,-44,-37
-61,-108,-48,85,-6,-78,56,-46,-70,-40,-45,-40
-61,-104,-44,83,-8,-74,51,-45,-70,-40,-47,-43
-64,-97,-33,81,-15,-65,50,-45,-67,-43,-50,-46
-64,-93,-29,78,-17,-60,50,-50,-65,-46,-45,-45
-66,-91,-25,79,-20,-57,45,-55,-65,-45,-45,-45
-82,-101,-19,92,-31,-60,46,-58,-65,-45,-43,-44
-70,-87,-18,79,-26,-52,43,-63,-65,-45,-40,-47
-98,-90,8,94,-53,-40,39,-65,-65,-44,-40,-50
-120,-118,2,119,-61,-57,33,-69,-72,-48,-42,-52
-100,-113,-13,106,-43,-63,30,-70,-77,-50,-49,-55
-112,-110,2,111,-57,-54,24,-75,-82,-54,-46,-58
-115,-108,7,111,-61,-50,20,-74,-84,-55,-45,-61
-108,-104,3,106,-55,-50,42,-70,-82,-51,-44,-56
-98,-104,-5,101,-46,-54,53,-64,-77,-48,-39,-49
-97,-91,5,94,-51,-43,48,-62,-77,-46,-41,-42
-98,-70,28,84,-63,-21,50,-53,-67,-41,-37,-36
-70,-34,36,52,-53,1,63,-15,-37,-23,-17,-29
-60,-21,38,40,-49,8,55,-5,-26,-7,-4,-25
-46,17,63,14,-54,39,38,-17,-33,-5,-5,-25
-5,40,46,-18,-26,43,41,-35,-28,3,-2,-23
-25,-18,7,21,-16,-5,39,-68,-33,3,2,-19
-57,-51,6,54,-32,-22,34,-72,-47,-21,-8,-20
-64,-87,-23,75,-20,-55,36,-79,-72,-43,-37,-35
-78,-129,-51,104,-13,-90,32,-97,-99,-62,-61,-55
-79,-122,-43,101,-18,-83,30,-85,-78,-66,-57,-62
-96,-135,-38,116,-29,-86,28,-98,-98,-86,-71,-73
-91,-128,-37,110,-27,-82,25,-81,-69,-60,-59,-70
-122,-134,-12,128,-54,-73,24,-98,-93,-82,-69,-76
-109,-140,-31,125,-38,-86,43,-45,-66,-56,-67,-80
-123,-120,3,121,-62,-58,136,158,27,-8,-59,-100
59,-13,-73,-23,66,-43,87,357,301,217,155,27
451,394,-57,-423,254,168,-100,-7,723,723,691,476
133,481,348,-307,-108,414,-168,-1060,296,455,549,563
-288,241,529,23,-409,385,-283,-1431,-95,12,76,222
-216,177,393,19,-305,285,-301,-919,-92,-15,22,62
-149,13,163,68,-156,88,-110,-349,-179,-88,-35,-1
-93,-65,27,79,-60,-19,-5,-80,-62,-31,-41,-43
-78,-62,16,70,-46,-23,29,-46,-63,-35,-34,-49
-64,-91,-26,78,-19,-58,43,15,-51,-35,-38,-45
-43,-92,-49,68,3,-71,38,23,-37,-24,-25,-38
-50,-115,-65,83,8,-90,40,48,-41,-32,-30,-37
-59,-115,-55,87,-1,-84,47,65,-21,-19,-19,-29
-37,-113,-76,75,20,-94,57,72,-27,-25,-18,-28
-19,-93,-74,56,28,-83,49,96,-9,-12,-7,-22
-31,-74,-43,53,6,-58,46,96,-11,-14,-4,-20
3,-66,-68,32,36,-67,41,115,1,-5,5,-15
28,-55,-83,13,56,-68,36,136,4,-3,9,-12
37,-45,-82,4,60,-63,32,155,13,8,20,-8
51,-36,-87,-7,69,-61,24,178,19,27,33,4
61,-28,-89,-16,75,-58,16,209,38,48,53,19
66,-25,-90,-21,78,-57,8,252,63,63,71,29
89,-1,-90,-44,89,-45,1,273,67,65,71,37
126,37,-89,-81,107,-26,-6,315,85,86,96,51
128,33,-95,-81,112,-31,-13,356,97,107,118,67
168,63,-104,-115,136,-20,-19,376,118,138,146,95
205,112,-93,-158,149,10,-25,401,146,168,176,124
208,121,-87,-164,147,17,-36,399,155,181,192,138
216,143,-73,-180,144,35,-41,394,182,209,222,156
192,147,-45,-169,119,50,-33,394,200,231,227,164
174,136,-38,-155,106,49,-29,385,200,229,220,158
152,131,-21,-142,86,55,-19,349,191,227,223,156
90,121,31,-106,30,76,10,284,178,207,201,134
53,117,64,-85,-6,91,27,205,167,164,155,99
49,95,47,-72,1,71,45,143,149,129,115,71
18,67,49,-43,-15,58,69,97,124,96,82,41
-2,54,57,-27,-30,55,70,44,84,63,53,19
-13,43,56,-15,-35,49,70,25,63,54,43,10
-34,34,67,0,-51,50,70,27,66,53,39,5
-23,28,51,-3,-37,39,70,25,63,49,35,-1
-15,20,35,-3,-25,27,70,24,60,47,30,-8
-14,15,29,0,-22,22,64,30,60,44,26,-8
-19,6,25,6,-22,16,58,37,57,42,29,-2
-15,8,23,3,-20,16,51,24,51,36,25,1
10,28,17,-19,-4,22,44,13,45,32,17,7
13,30,16,-22,-2,23,38,1,40,27,11,10
15,24,9,-19,2,16,32,-16,24,22,2,4
7,17,10,-12,-2,13,30,-34,2,18,-4,-2
-5,14,20,-5,-13,17,30,-47,-5,15,-5,-10
-37,-2,36,19,-36,17,30,-48,-14,15,-6,-15
-67,-30,37,49,-52,3,30,-58,-17,12,-3,-27
-52,-30,21,41,-36,-4,30,-71,-26,9,-15,-36
-58,-30,28,43,-43,-1,35,-79,-41,10,-28,-38
-63,-31,33,47,-48,1,35,-83,-40,6,-23,-42
-56,-29,26,42,-41,-1,36,-88,-40,0,-20,-45
-51,-31,21,41,-36,-5,40,-89,-41,-5,-18,-49
-46,-30,17,38,-32,-6,40,-84,-39,-11,-13,-50
-39,-30,8,34,-23,-11,38,-81,-41,-17,-20,-50
-38,-30,8,33,-23,-11,34,-77,-39,-19,-31,-54
-52,-30,22,41,-37,-4,32,-74,-42,-15,-28,-55
-51,-30,21,40,-36,-4,29,-69,-54,-13,-21,-54
-39,-33,7,36,-23,-13,26,-75,-56,-10,-20,-50
-40,-33,6,37,-23,-13,25,-80,-53,-6,-12,-50
-64,-28,36,46,-50,4,25,-80,-52,-5,-12,-50
-69,-25,43,47,-55,8,25,-103,-48,-10,-23,-50
-57,-22,35,39,-46,6,25,-110,-56,-30,-27,-51
-54,-17,37,35,-46,10,25,-102,-59,-35,-23,-46
-47,-14,32,30,-39,9,28,-99,-45,-20,-21,-40
-65,-10,55,38,-60,22,48,-95,-31,-6,-20,-34
-82,4,86,39,-83,44,61,-73,-17,4,-9,-29
-37,50,87,-7,-62,68,53,-47,-4,20,10,-23
0,88,89,-44,-45,88,42,-54,11,39,26,-20
-6,76,82,-36,-44,79,28,-61,17,31,23,-20
-4,79,83,-37,-44,81,7,-79,12,24,13,-20
-13,60,73,-23,-43,67,-11,-116,-9,11,1,-20
-15,24,39,-5,-27,32,-4,-118,-39,-6,-7,-26
-42,-17,26,29,-34,4,15,-123,-76,-35,-27,-53
-60,-52,8,56,-34,-21,25,-122,-68,-35,-40,-55
-39,-40,-1,40,-19,-20,27,-140,-86,-52,-50,-63
-39,-50,-12,45,-13,-31,19,-147,-90,-62,-54,-80
-57,-52,5,54,-31,-23,17,-140,-65,-45,-51,-70
-70,-74,-4,72,-33,-39,24,-133,-84,-60,-68,-80
-45,-30,15,37,-30,-7,107,33,-16,-21,-55,-89
10,6,-4,-8,7,1,153,256,129,66,8,-75
365,279,-86,-322,225,96,-12,169,652,592,513,268
421,613,191,-517,115,402,-199,-770,589,712,752,605
-90,446,535,-178,-313,490,-332,-1611,-68,130,249,375
-226,277,503,-26,-365,390,-383,-1289,-141,-30,11,111
-96,148,244,-26,-170,196,-211,-605,-182,-74,-32,23
-40,36,76,2,-58,55,-40,-183,-129,-67,-54,-30
-6,18,24,-6,-15,21,5,-66,-50,-24,-26,-39
-1,-32,-30,17,15,-31,36,-31,-82,-54,-41,-51
-9,-24,-15,17,3,-19,38,-5,-52,-27,-21,-43
5,-25,-30,10,17,-27,48,8,-71,-42,-27,-43
37,-17,-54,-10,46,-35,57,34,-54,-32,-18,-39
33,-10,-43,-11,38,-26,47,35,-60,-32,-18,-36
34,-9,-42,-12,38,-25,46,57,-44,-22,-15,-35
45,9,-37,-27,41,-14,40,62,-31,-15,-10,-30
57,28,-29,-42,43,-1,35,79,-27,-10,-11,-25
62,33,-30,-47,46,2,32,103,-21,-2,-4,-21
75,21,-54,-48,64,-16,29,122,-22,3,4,-16
94,50,-44,-71,69,3,31,138,-15,8,13,-12
118,74,-44,-95,81,14,29,164,1,19,21,-5
150,75,-76,-112,113,0,31,197,23,31,29,8
175,80,-95,-127,135,-7,28,234,39,43,47,23
172,85,-87,-128,129,-1,-4,282,52,70,74,48
173,108,-65,-140,119,21,-30,308,64,79,87,59
212,113,-99,-162,155,7,-36,336,77,100,109,76
249,144,-106,-196,177,19,-40,365,91,124,137,102
253,159,-93,-206,173,33,-60,375,114,149,163,125
238,176,-62,-207,150,57,-74,373,141,173,186,153
282,237,-45,-260,164,95,-62,362,157,182,201,159
299,239,-60,-269,179,90,-51,361,167,199,217,150
255,227,-28,-241,141,100,-34,329,163,198,209,144
213,196,-18,-204,115,89,-11,270,157,179,177,128
181,175,-6,-178,93,84,12,214,144,147,141,97
151,149,-1,-150,76,74,34,141,111,112,105,54
56,93,37,-75,9,65,44,85,69,88,74,25
38,83,45,-61,-4,64,48,54,40,56,44,15
79,70,-10,-74,44,30,49,42,33,36,26,5
45,56,11,-51,17,34,52,39,26,33,21,-6
22,68,46,-46,-12,57,64,34,19,29,16,-10
15,67,52,-41,-19,59,60,30,11,26,13,-12
8,51,43,-30,-18,46,52,25,4,21,7,-15
9,45,36,-27,-14,40,46,27,-3,19,3,-18
22,45,24,-34,-2,34,39,26,-11,14,0,-20
25,45,20,-35,2,32,34,17,-17,8,0,-20
13,45,32,-29,-10,38,28,1,-24,5,-2,-20
22,44,21,-33,0,32,22,-15,-27,-1,-6,-20
51,39,-12,-45,31,14,18,-24,-32,-3,-3,-21
42,36,-6,-39,23,15,11,-38,-44,-13,-17,-28
-12,30,43,-9,-28,37,6,-53,-53,-29,-34,-34
-21,19,41,1,-31,30,24,-66,-59,-36,-41,-39
-21,11,32,5,-27,21,30,-78,-66,-41,-44,-40
-42,-1,41,22,-42,20,21,-84,-70,-45,-40,-40
-38,-5,32,21,-35,13,20,-89,-70,-45,-38,-45
-1,0,1,0,-1,0,13,-90,-70,-45,-33,-45
18,-10,-27,-4,23,-18,10,-90,-74,-50,-45,-45
-1,-21,-20,11,9,-20,26,-94,-83,-55,-61,-45
-18,-28,-10,23,-4,-19,32,-96,-89,-56,-59,-45
-39,-45,-6,42,-16,-25,29,-93,-87,-50,-60,-45
-61,-57,4,58,-32,-26,31,-90,-85,-55,-60,-45
-51,-55,-4,53,-23,-29,29,-87,-85,-66,-59,-45
-57,-53,4,55,-30,-24,31,-85,-85,-65,-63,-48
-86,-50,36,67,-61,-6,27,-81,-85,-65,-65,-51
-35,-50,-15,42,-10,-32,25,-79,-86,-65,-65,-50
-31,-55,-24,43,-3,-39,25,-84,-84,-65,-65,-50
-40,-54,-14,47,-13,-34,21,-86,-87,-67,-65,-50
-30,-49,-19,40,-5,-34,19,-91,-99,-66,-65,-51
-63,-45,18,54,-40,-14,21,-89,-101,-60,-65,-55
-44,-48,-4,46,-20,-26,24,-94,-99,-66,-65,-55
-74,-50,23,62,-48,-14,25,-115,-96,-81,-65,-57
-90,-50,40,69,-65,-5,25,-114,-95,-79,-65,-61
-70,-50,20,59,-45,-15,25,-111,-94,-81,-65,-60
-59,-51,8,55,-34,-21,25,-108,-88,-86,-63,-57
-54,-52,2,53,-28,-25,23,-105,-82,-85,-57,-52
-81,-43,38,62,-59,-3,20,-103,-78,-83,-53,-50
-70,-29,41,50,-55,6,20,-92,-70,-72,-48,-45
-46,-7,39,27,-43,16,35,-77,-67,-63,-44,-41
-30,16,46,7,-38,30,49,-58,-54,-48,-40,-38
-7,38,45,-16,-27,41,44,-49,-34,-27,-28,-15
18,57,39,-38,-11,48,23,-50,-37,-26,-12,5
21,65,44,-43,-11,54,-9,-62,-44,-23,-10,8
15,54,39,-35,-12,46,-15,-87,-51,-33,-31,-4
-1,-18,-17,10,8,-18,-5,-98,-68,-59,-45,-19
-21,-63,-42,42,11,-52,3,-100,-87,-75,-60,-37
-32,-79,-47,56,8,-63,10,-111,-107,-92,-77,-68
-59,-99,-40,80,-10,-70,18,-102,-100,-95,-85,-68
-82,-122,-40,102,-21,-81,22,-114,-116,-118,-122,-72
-68,-131,-64,100,-1,-97,22,-86,-88,-102,-109,-69
-102,-140,-38,121,-32,-89,17,-103,-97,-116,-119,-70
-133,-150,-17,142,-58,-83,34,-69,-82,-109,-115,-83
-123,-110,13,116,-67,-48,121,140,-19,-76,-94,-108
79,-18,-96,-30,88,-56,89,302,234,147,92,-4
474,374,-99,-424,286,138,-108,-71,633,645,617,440
223,499,276,-361,-27,387,-243,-1124,262,427,511,541
-258,214,472,21,-365,343,-329,-1488,-164,-43,31,199
-215,91,306,62,-261,198,-311,-916,-177,-100,-56,39
-101,-15,85,58,-93,35,-126,-363,-216,-147,-104,-40
-70,-82,-12,76,-28,-47,-12,-105,-114,-105,-94,-63
-82,-125,-43,104,-20,-84,11,-67,-105,-109,-90,-62
-67,-132,-65,100,0,-98,33,-20,-96,-110,-94,-76
-46,-117,-71,82,13,-94,34,-10,-83,-98,-86,-65
-51,-123,-73,87,11,-98,35,1,-87,-106,-91,-68
-44,-110,-66,78,11,-88,35,24,-68,-94,-76,-61
-52,-111,-59,82,4,-85,35,41,-76,-95,-78,-61
-25,-103,-78,64,27,-90,35,51,-73,-80,-67,-58
-4,-101,-97,53,47,-99,29,59,-70,-77,-64,-52
-7,-95,-88,51,41,-91,22,82,-56,-70,-59,-48
-6,-91,-85,49,40,-87,16,98,-48,-64,-50,-43
0,-81,-81,41,41,-81,9,117,-37,-59,-42,-39
1,-74,-75,37,39,-75,3,140,-30,-53,-33,-35
13,-62,-75,25,44,-68,-3,166,-21,-41,-22,-28
35,-51,-87,8,61,-69,-12,188,-15,-26,-9,-18
69,-31,-100,-19,85,-65,-18,223,-5,-14,6,-7
96,9,-87,-52,91,-39,-29,248,10,-6,20,4
95,-1,-96,-47,96,-48,-30,287,34,32,49,38
150,21,-129,-85,140,-54,-43,310,56,57,80,63
179,76,-103,-127,141,-13,-65,315,61,68,96,70
184,87,-97,-135,140,-4,-69,337,79,100,116,97
215,101,-114,-158,164,-6,-82,343,97,118,142,119
223,129,-94,-176,158,18,-78,351,118,142,167,128
233,151,-82,-192,157,35,-75,331,132,152,168,121
185,137,-48,-160,116,44,-69,282,121,145,147,114
119,93,-26,-106,72,34,-35,231,117,129,121,104
90,59,-31,-75,60,14,-7,176,107,97,88,64
63,37,-25,-49,44,6,18,128,71,61,51,32
23,0,-22,-11,23,-11,34,78,32,22,22,11
-12,-31,-19,22,4,-25,35,39,4,-6,3,-13
-42,-55,-13,49,-14,-34,35,29,-9,-25,-14,-31
-51,-68,-17,60,-17,-42,35,23,-12,-30,-27,-36
-27,-57,-30,42,2,-44,35,15,-18,-30,-35,-35
-26,-55,-29,40,2,-42,35,7,-23,-30,-35,-35
-22,-46,-24,34,1,-35,30,2,-29,-30,-35,-35
-25,-51,-25,38,1,-38,30,4,-31,-30,-35,-35
-52,-77,-25,65,-13,-50,30,6,-28,-31,-34,-37
-57,-81,-25,69,-16,-53,30,2,-36,-44,-39,-42
-53,-78,-26,66,-13,-52,30,-8,-35,-53,-41,-44
-59,-82,-23,71,-18,-52,28,-16,-41,-59,-41,-41
-45,-76,-31,61,-7,-53,23,-40,-48,-64,-38,-38
-45,-91,-46,68,1,-68,20,-54,-60,-67,-54,-51
-71,-113,-41,92,-15,-77,17,-61,-85,-71,-72,-62
-71,-109,-38,90,-17,-73,12,-81,-88,-69,-71,-60
-77,-113,-36,95,-21,-74,10,-88,-93,-76,-76,-58
-87,-116,-29,101,-29,-72,15,-90,-95,-82,-78,-55
-77,-114,-37,96,-19,-75,15,-90,-88,-78,-80,-55
-61,-111,-50,86,-5,-80,15,-90,-99,-86,-83,-59
-40,-94,-54,67,7,-74,15,-90,-111,-90,-86,-66
-38,-90,-53,64,8,-71,14,-102,-105,-83,-89,-72
-38,-88,-50,62,6,-69,18,-116,-100,-79,-91,-87
-51,-100,-49,75,-1,-74,20,-118,-97,-73,-95,-90
-69,-114,-45,92,-12,-79,20,-121,-91,-65,-94,-84
-60,-105,-44,83,-8,-74,20,-120,-93,-75,-89,-82
-61,-101,-40,81,-10,-70,20,-120,-96,-87,-86,-77
-55,-88,-33,72,-11,-60,19,-120,-92,-84,-83,-75
-66,-96,-30,81,-18,-62,16,-120,-90,-85,-78,-75
-91,-113,-22,102,-35,-67,13,-120,-87,-85,-75,-75
-91,-109,-18,100,-36,-64,11,-115,-84,-85,-79,-75
-91,-106,-15,99,-38,-60,7,-115,-94,-89,-80,-75
-75,-100,-25,88,-25,-62,5,-114,-95,-90,-80,-75
-41,-91,-50,66,5,-70,7,-109,-90,-90,-84,-75
-45,-88,-43,67,-1,-65,14,-111,-88,-90,-86,-75
-48,-76,-29,62,-9,-52,19,-107,-83,-91,-84,-75
-46,-69,-23,58,-11,-46,25,-99,-80,-89,-78,-75
-69,-85,-15,77,-26,-50,31,-90,-76,-82,-70,-75
-46,-55,-9,51,-18,-32,23,-83,-70,-76,-65,-75
-28,-32,-3,30,-12,-17,33,-75,-64,-68,-57,-59
-24,-13,12,18,-18,0,44,-59,-58,-64,-51,-36
-5,25,30,-10,-18,28,35,-37,-34,-48,-53,-19
3,32,29,-18,-13,30,23,-28,-23,-30,-56,-14
27,47,20,-37,3,33,-9,-66,-37,-28,-55,-16
-2,13,15,-6,-9,14,-17,-104,-48,-41,-55,-13
-42,-54,-11,48,-15,-32,-8,-108,-70,-63,-58,-22
-45,-73,-29,59,-8,-51,-7,-120,-93,-84,-73,-54
-66,-98,-31,82,-17,-64,0,-131,-107,-104,-93,-74
-77,-105,-28,92,-25,-66,2,-119,-106,-103,-88,-67
-93,-115,-22,105,-35,-68,4,-133,-127,-124,-104,-72
-79,-105,-26,93,-27,-66,-8,-110,-92,-105,-94,-69
-100,-112,-12,106,-44,-62,-13,-132,-111,-124,-112,-68
-78,-121,-43,100,-18,-82,31,-79,-82,-110,-96,-81
-82,-123,-40,103,-20,-81,111,147,3,-65,-79,-105
105,-15,-120,-45,113,-68,67,298,275,189,125,25
509,413,-96,-461,302,158,-130,-152,652,660,647,481
163,465,302,-314,-70,383,-234,-1191,232,380,482,545
-277,186,463,46,-371,324,-310,-1458,-166,-57,7,186
-193,80,274,56,-234,177,-288,-866,-173,-105,-62,53
-121,-42,79,81,-100,19,-108,-326,-200,-147,-110,-24
-66,-91,-25,79,-20,-58,-25,-99,-98,-86,-90,-62
-65,-111,-46,89,-10,-78,15,-63,-113,-98,-89,-52
-38,-112,-74,75,18,-93,34,-14,-103,-96,-88,-58
-32,-109,-77,71,22,-93,26,-17,-102,-87,-76,-48
-44,-119,-75,82,16,-97,22,3,-92,-95,-81,-51
-40,-111,-71,76,16,-91,25,35,-70,-84,-67,-44
-43,-115,-71,79,14,-93,60,46,-75,-84,-69,-44
-12,-106,-95,59,42,-100,59,59,-58,-69,-61,-40
-19,-102,-83,61,32,-92,54,75,-59,-65,-58,-37
-4,-89,-85,47,41,-86,53,102,-47,-55,-53,-36
26,-80,-107,28,67,-93,47,106,-39,-52,-45,-30
33,-69,-101,18,67,-85,44,112,-25,-47,-35,-31
42,-56,-98,7,70,-76,31,153,-15,-43,-25,-23
50,-46,-96,-2,73,-71,19,170,-5,-38,-15,-8
54,-33,-87,-11,71,-60,4,194,2,-25,-5,4
71,-28,-99,-21,85,-63,-7,237,12,-5,13,19
116,-3,-120,-56,118,-62,-19,260,26,10,29,26
136,22,-114,-79,125,-46,-30,304,35,35,58,53
167,58,-108,-112,137,-25,-40,322,58,58,87,79
196,93,-103,-144,149,-5,-53,328,70,70,105,94
197,100,-97,-148,146,2,-67,351,98,100,133,122
224,131,-93,-177,158,19,-80,357,121,122,148,133
222,139,-83,-180,152,28,-67,352,132,138,167,150
215,138,-77,-176,146,30,-62,345,146,139,170,153
188,125,-63,-156,125,31,-53,305,131,126,155,132
156,113,-43,-134,99,35,-10,236,124,116,138,102
149,109,-40,-129,94,34,17,178,108,90,102,69
86,48,-39,-67,62,4,32,124,71,57,64,41
45,10,-35,-27,40,-12,44,77,42,21,31,16
29,-5,-34,-11,32,-19,45,60,24,-6,2,5
8,-23,-31,8,20,-27,45,55,18,-18,-10,2
-3,-31,-28,17,13,-29,45,47,15,-24,-10,-2
-21,-46,-26,34,3,-36,45,39,12,-25,-13,-5
-22,-45,-22,34,0,-33,44,32,7,-25,-15,-10
-25,-45,-19,35,-2,-31,39,26,5,-30,-17,-12
-23,-46,-23,34,0,-34,36,20,-2,-30,-22,-16
-15,-44,-29,30,7,-36,33,15,-9,-31,-25,-18
-2,-48,-45,25,22,-46,28,9,-16,-36,-29,-21
-2,-51,-49,27,23,-50,25,4,-24,-39,-32,-24
-3,-56,-52,29,25,-54,22,-2,-32,-43,-36,-26
7,-60,-66,27,36,-62,19,-12,-36,-50,-39,-29
1,-60,-61,30,31,-61,16,-25,-46,-60,-44,-30
-1,-59,-58,30,29,-59,13,-43,-60,-68,-48,-33
-9,-64,-55,37,23,-59,10,-56,-60,-73,-50,-35
-15,-65,-50,40,18,-57,11,-58,-60,-76,-57,-37
-18,-66,-48,42,15,-57,16,-63,-61,-79,-61,-45
-19,-63,-44,41,13,-54,19,-63,-58,-82,-66,-50
-33,-79,-45,56,6,-62,22,-73,-68,-88,-68,-50
-55,-99,-45,78,-5,-72,27,-86,-76,-91,-64,-50
-46,-91,-45,69,0,-68,30,-85,-75,-89,-65,-50
-37,-82,-45,60,4,-63,26,-84,-75,-90,-65,-53
-31,-76,-45,54,7,-60,25,-80,-75,-90,-65,-55
-39,-84,-45,62,3,-64,25,-80,-75,-90,-66,-56
-50,-95,-45,73,-2,-70,25,-78,-79,-94,-67,-60
-49,-94,-45,72,-2,-70,25,-74,-80,-95,-65,-59
-51,-95,-45,74,-3,-70,25,-72,-80,-95,-65,-55
-47,-94,-47,71,0,-71,25,-68,-80,-95,-65,-55
-45,-95,-51,70,4,-72,25,-66,-80,-95,-65,-55
-45,-94,-49,69,3,-71,25,-64,-79,-94,-66,-55
-44,-89,-46,67,1,-67,25,-72,-75,-90,-69,-55
-47,-91,-43,69,-2,-67,25,-76,-76,-90,-74,-53
-48,-87,-40,67,-4,-63,28,-72,-73,-90,-73,-48
-46,-85,-38,66,-3,-61,31,-70,-69,-90,-66,-45
-52,-85,-34,69,-9,-60,30,-65,-70,-90,-59,-42
-40,-78,-38,59,-1,-58,29,-66,-65,-85,-52,-37
-18,-58,-40,38,11,-49,45,-52,-54,-74,-46,-35
5,-27,-33,11,19,-30,47,-25,-48,-52,-45,-24
33,10,-23,-21,28,-7,31,-8,-49,-42,-45,-11
32,23,-10,-27,21,6,18,-27,-51,-50,-46,11
21,6,-15,-13,18,-4,9,-61,-48,-51,-44,21
-13,-37,-24,25,6,-30,2,-85,-55,-57,-46,-3
-46,-93,-47,70,1,-70,2,-81,-65,-68,-48,-23
-59,-116,-57,88,-1,-86,9,-89,-101,-100,-80,-52
-87,-121,-33,104,-27,-77,20,-91,-105,-110,-90,-70
-109,-130,-21,120,-44,-75,29,-102,-108,-115,-87,-74
-62,-135,-73,99,6,-104,17,-118,-130,-131,-104,-78
-23,-109,-87,66,32,-98,15,-105,-103,-109,-98,-70
-60,-133,-74,97,7,-103,2,-121,-115,-125,-116,-83
-73,-134,-61,104,-5,-98,62,22,-46,-80,-92,-82
-68,-130,-62,99,-3,-96,139,251,59,-27,-68,-90
327,132,-195,-229,261,-32,-32,294,459,383,351,210
497,512,15,-505,241,263,-181,-463,542,626,680,592
-83,337,419,-127,-251,378,-189,-1354,-1,129,229,381
-304,123,427,90,-366,274,-267,-1195,-144,-97,-45,87
-160,39,199,60,-179,119,-214,-612,-188,-136,-71,3
-95,-73,22,83,-58,-25,-60,-196,-172,-152,-105,-49
-61,-108,-47,84,-7,-77,-12,-80,-89,-97,-78,-53
-48,-139,-91,94,21,-115,10,-46,-118,-123,-98,-58
-36,-125,-89,81,27,-107,24,0,-86,-97,-85,-53
-51,-151,-100,101,25,-125,16,5,-101,-106,-92,-56
-28,-140,-112,84,43,-126,15,26,-85,-95,-82,-55
-23,-119,-96,71,37,-107,10,27,-85,-92,-75,-55
-17,-116,-99,66,41,-107,7,59,-80,-87,-71,-52
-13,-100,-87,57,37,-93,4,61,-72,-79,-61,-45
-10,-94,-84,52,37,-89,-2,86,-70,-78,-58,-42
23,-83,-106,31,64,-94,-9,115,-60,-68,-49,-37
26,-78,-103,26,65,-90,-16,122,-54,-66,-42,-33
23,-71,-94,25,58,-82,-23,140,-42,-57,-34,-28
23,-62,-84,20,54,-73,-29,157,-32,-49,-26,-16
35,-53,-88,10,62,-70,-34,183,-21,-41,-19,0
85,-39,-125,-23,105,-82,-40,211,-8,-31,-11,10
119,-13,-132,-53,126,-72,-47,239,3,-17,7,28
132,6,-126,-69,129,-59,-52,267,11,-4,26,46
153,26,-127,-89,140,-50,-60,293,40,21,58,67
161,42,-119,-102,140,-38,-80,309,55,46,87,93
199,77,-122,-138,160,-22,-94,325,71,70,108,112
212,98,-114,-155,163,-8,-101,339,94,96,136,134
223,112,-111,-167,167,1,-107,331,109,120,158,140
239,138,-101,-188,170,18,-97,318,119,136,163,134
201,136,-65,-169,133,36,-96,310,128,136,157,127
185,118,-67,-151,126,25,-75,270,142,122,140,106
144,95,-49,-119,96,23,-25,202,113,87,100,74
98,81,-17,-89,57,32,-5,143,74,54,59,35
40,32,-8,-36,23,12,6,92,48,21,24,7
-24,-9,15,16,-19,3,18,68,27,-12,-3,-12
-43,-18,25,31,-34,3,27,53,20,-25,-15,-28
-55,-29,25,41,-40,-2,33,40,17,-31,-23,-30
-61,-36,25,48,-43,-6,28,41,15,-38,-32,-30
-65,-44,20,54,-42,-11,25,39,11,-44,-39,-34
-66,-46,20,56,-42,-12,22,35,10,-45,-40,-35
-67,-49,18,58,-43,-15,17,35,5,-45,-40,-35
-49,-52,-3,50,-22,-27,15,34,-3,-50,-45,-30
-36,-55,-18,46,-9,-36,19,23,-12,-50,-45,-30
-34,-55,-21,45,-6,-38,20,11,-18,-51,-46,-30
-37,-55,-19,46,-8,-36,20,0,-27,-57,-52,-29
-31,-55,-23,43,-4,-39,20,-11,-37,-62,-55,-31
-9,-56,-47,33,19,-51,20,-21,-43,-70,-60,-25
-10,-57,-48,34,19,-52,18,-37,-57,-69,-59,-37
-39,-77,-38,59,0,-58,15,-39,-62,-71,-63,-52
-60,-92,-32,76,-13,-62,15,-46,-59,-91,-75,-49
-51,-77,-27,64,-12,-52,15,-65,-61,-96,-76,-50
-52,-68,-17,60,-17,-42,15,-65,-64,-94,-73,-50
-37,-63,-26,50,-5,-44,16,-66,-65,-95,-84,-50
-37,-78,-41,58,2,-59,19,-70,-60,-95,-92,-47
-60,-91,-31,76,-15,-61,22,-70,-57,-94,-87,-44
-63,-90,-28,77,-18,-59,25,-68,-54,-90,-85,-46
-69,-88,-19,79,-25,-53,25,-64,-48,-90,-82,-44
-51,-85,-35,68,-8,-60,25,-66,-60,-90,-79,-46
-32,-85,-52,59,11,-68,25,-61,-76,-90,-80,-43
-35,-85,-49,60,7,-66,25,-60,-75,-90,-80,-40
-52,-101,-49,76,-1,-75,25,-60,-74,-87,-80,-38
-50,-94,-44,72,-3,-69,25,-53,-70,-79,-80,-35
-41,-87,-46,65,3,-67,30,-49,-71,-76,-80,-31
-44,-86,-42,65,-1,-64,29,-42,-67,-69,-79,-30
-26,-64,-38,45,6,-51,33,-38,-53,-64,-70,-27
19,-10,-29,-4,24,-19,52,-31,-32,-57,-58,-22
43,16,-27,-29,35,-5,44,-13,-7,-38,-44,-18
73,57,-17,-65,45,20,27,3,6,-27,-14,11
89,69,-19,-79,54,25,9,1,16,-31,-8,36
73,39,-34,-55,54,2,-13,-15,11,-29,-13,32
94,61,-33,-77,63,13,-13,-30,-18,-30,-17,23
-14,-68,-54,41,20,-61,-2,-63,-59,-69,-65,7
-108,-139,-31,124,-38,-84,7,-82,-92,-102,-109,-38
-35,-81,-46,58,5,-63,25,-66,-79,-88,-97,-61
-77,-129,-51,103,-13,-90,35,-103,-102,-117,-108,-64
-91,-139,-49,115,-21,-94,15,-89,-89,-115,-108,-71
-73,-126,-53,100,-10,-89,18,-74,-76,-104,-106,-64
-95,-150,-55,123,-20,-102,26,-67,-80,-119,-122,-68
-62,-113,-51,88,-5,-82,86,89,-8,-78,-99,-86
-6,-82,-76,45,35,-79,120,302,137,31,-24,-64
415,245,-170,-330,292,37,-52,242,580,519,465,314
400,544,144,-472,128,343,-160,-680,467,568,624,599
-192,297,489,-53,-341,393,-184,-1397,-23,44,137,318
-278,113,391,82,-334,252,-252,-1074,-100,-76,-50,81
-140,17,157,61,-148,86,-165,-489,-182,-110,-99,14
-101,-105,-4,103,-49,-54,-34,-120,-110,-103,-105,-35
-65,-117,-52,91,-6,-85,12,-65,-72,-80,-79,-43
-43,-116,-73,80,15,-94,55,-8,-85,-98,-95,-48
-52,-138,-86,96,17,-112,64,25,-57,-74,-76,-40
-45,-138,-93,92,24,-115,52,25,-70,-87,-83,-37
-47,-121,-74,84,14,-97,48,49,-47,-71,-72,-31
-14,-120,-106,68,46,-113,38,64,-52,-68,-73,-27
8,-123,-131,58,69,-126,33,78,-38,-57,-68,-23
14,-108,-122,47,68,-115,31,80,-35,-49,-65,-18
49,-75,-124,13,87,-100,27,100,-28,-44,-62,-15
43,-76,-119,16,81,-97,18,108,-21,-39,-58,-15
68,-52,-120,-8,94,-86,13,151,-16,-35,-48,-9
75,-49,-124,-12,100,-86,5,172,-6,-31,-36,-12
113,-18,-131,-48,122,-74,2,182,1,-23,-22,2
123,-13,-136,-54,130,-74,3,205,8,-13,-9,22
137,-7,-144,-65,141,-75,10,231,18,3,6,40
180,47,-132,-113,155,-42,6,265,32,16,19,61
210,62,-148,-136,179,-43,-10,271,53,29,32,72
250,76,-174,-163,212,-48,-25,300,76,69,73,100
239,71,-169,-155,204,-49,-56,318,77,100,88,114
289,114,-175,-201,232,-31,-71,319,97,110,120,140
305,130,-175,-217,240,-23,-87,328,120,120,154,169
325,160,-165,-242,244,-3,-81,320,131,145,158,175
345,203,-141,-274,243,31,-50,322,149,157,163,183
307,183,-124,-245,215,29,-35,301,142,143,146,168
274,175,-99,-224,187,37,-19,249,132,129,128,136
195,132,-63,-163,129,34,5,197,124,96,91,102
148,96,-52,-122,100,22,44,149,100,63,51,77
115,69,-46,-92,81,11,56,111,74,43,25,52
78,36,-41,-57,60,-3,56,78,47,24,11,36
67,30,-37,-49,52,-3,61,65,36,8,7,30
64,29,-35,-46,50,-2,64,65,30,-4,-2,22
60,30,-29,-45,45,1,69,65,22,-7,-6,16
58,30,-28,-44,43,1,64,65,15,-11,-19,9
51,29,-22,-40,36,3,65,65,6,-15,-31,4
63,39,-24,-51,44,7,65,64,13,-18,-29,0
99,38,-61,-69,80,-11,65,56,21,-22,-30,0
103,31,-72,-67,87,-21,65,48,14,-24,-30,-2
93,24,-69,-58,80,-22,61,37,7,-26,-30,-6
91,17,-74,-54,82,-28,54,23,3,-23,-32,-4
88,12,-76,-49,82,-32,48,10,-11,-31,-39,-9
73,1,-72,-37,73,-35,41,-2,-29,-45,-52,-9
74,4,-70,-39,72,-33,33,-14,-32,-46,-56,-13
54,6,-47,-30,50,-20,30,-25,-34,-44,-58,-14
50,-6,-55,-22,53,-30,14,-35,-38,-47,-61,-18
59,-22,-82,-18,71,-52,29,-52,-42,-59,-64,-38
23,-27,-50,2,37,-38,53,-57,-47,-61,-65,-41
36,-14,-51,-11,44,-32,46,-53,-50,-59,-65,-40
49,-5,-54,-22,52,-29,45,-61,-50,-56,-63,-40
47,3,-44,-24,45,-20,41,-70,-50,-55,-59,-40
46,1,-44,-23,45,-21,36,-62,-50,-55,-61,-39
25,-12,-37,-6,31,-24,36,-56,-51,-49,-56,-34
17,-17,-34,0,26,-25,43,-49,-55,-48,-55,-33
25,-5,-30,-10,27,-17,52,-43,-45,-42,-55,-27
49,19,-31,-34,39,-6,66,-34,-34,-42,-44,-27
74,47,-27,-60,51,10,68,-9,-26,-27,-29,-13
107,82,-25,-94,66,28,54,12,-6,0,-20,7
136,113,-24,-124,80,44,49,15,1,-3,-19,24
146,101,-45,-124,95,28,13,-14,-11,-13,-21,39
122,72,-50,-97,86,11,-4,-49,-19,-19,-19,24
80,35,-45,-57,62,-5,13,-57,-30,-28,-21,2
71,4,-67,-37,69,-31,24,-61,-40,-39,-43,-20
23,-40,-62,9,43,-51,39,-90,-66,-68,-79,-48
-1,-69,-68,35,34,-68,39,-82,-59,-65,-77,-52
-5,-66,-61,36,28,-64,41,-96,-69,-72,-88,-55
1,-65,-66,32,34,-65,38,-87,-61,-71,-92,-57
15,-51,-66,18,41,-58,42,-89,-54,-65,-92,-51
39,-69,-108,16,74,-88,36,-97,-69,-81,-108,-62
36,-54,-89,9,63,-71,98,78,-4,-46,-75,-71
69,-37,-106,-16,88,-71,134,310,138,57,-11,-50
533,297,-236,-415,385,30,-66,265,552,509,451,301
488,588,100,-538,194,344,-169,-620,471,574,625,592
-117,349,466,-116,-292,407,-154,-1356,21,75,145,316
-198,187,385,5,-291,285,-220,-1039,-76,-48,-38,83
-72,67,139,2,-106,103,-153,-476,-176,-73,-64,26
11,-24,-35,7,23,-30,-40,-145,-132,-90,-85,-36
32,-40,-72,5,53,-56,-1,-71,-99,-70,-68,-42
46,-80,-126,17,86,-103,25,-22,-109,-89,-83,-48
70,-56,-126,-6,98,-91,25,-1,-86,-73,-64,-43
63,-59,-123,-2,93,-91,25,1,-98,-82,-70,-46
79,-49,-128,-15,104,-88,31,18,-76,-66,-59,-45
82,-39,-121,-21,102,-80,28,24,-78,-64,-57,-42
70,-59,-129,-5,100,-94,25,54,-64,-56,-53,-36
57,-70,-128,6,93,-99,21,69,-60,-47,-49,-29
80,-55,-135,-12,108,-95,18,98,-50,-40,-48,-23
90,-46,-135,-22,113,-90,14,109,-39,-29,-43,-15
95,-45,-140,-25,118,-92,11,126,-32,-23,-41,-10
104,-40,-144,-32,124,-91,5,139,-23,-16,-39,-4
106,-39,-145,-33,125,-91,2,154,-18,-11,-30,2
137,-14,-151,-61,144,-83,-4,183,-10,-5,-14,7
150,4,-146,-77,147,-70,-23,209,-5,11,-2,16
174,6,-167,-90,170,-80,-41,243,5,32,18,37
223,39,-184,-131,203,-72,-62,267,14,41,38,46
244,66,-178,-155,211,-56,-68,288,28,57,59,58
261,79,-182,-170,221,-52,-80,303,49,77,87,92
283,106,-177,-194,230,-35,-96,318,71,101,110,112
308,123,-185,-215,246,-31,-90,325,91,126,132,126
299,142,-157,-220,228,-8,-86,312,114,135,148,132
281,151,-130,-216,206,10,-83,308,120,128,146,123
242,134,-108,-187,175,12,-72,286,106,117,136,111
189,109,-79,-149,134,15,-54,221,99,108,115,93
131,70,-61,-100,95,4,-28,152,84,89,77,67
69,34,-35,-51,52,-1,9,111,63,65,40,37
72,14,-59,-43,65,-22,27,68,42,42,12,12
46,0,-46,-23,46,-23,23,40,24,27,-7,-7
25,-24,-48,0,37,-36,29,40,19,18,-21,-16
26,-36,-62,5,45,-49,31,40,17,10,-25,-19
28,-17,-44,-5,36,-30,26,40,14,0,-25,-22
8,-38,-47,15,28,-42,24,40,11,-8,-25,-27
-16,-47,-31,32,8,-39,20,40,10,-15,-25,-30
13,-23,-35,5,25,-29,15,28,3,-26,-25,-34
-22,-27,-5,25,-8,-15,17,12,-7,-15,-26,-41
-9,-23,-15,16,3,-19,20,-4,-15,-24,-40,-46
37,-28,-65,-4,52,-46,20,-18,-24,-40,-46,-51
11,-51,-62,20,36,-56,20,-33,-34,-27,-50,-54
-12,-46,-35,29,12,-40,20,-43,-39,-16,-46,-56
-34,-48,-14,41,-10,-30,19,-47,-42,-17,-48,-53
-1,-68,-67,35,33,-68,16,-68,-54,-49,-65,-61
-2,-72,-69,37,33,-70,13,-73,-55,-67,-65,-80
-29,-68,-39,49,5,-54,10,-70,-55,-64,-65,-80
-23,-67,-44,46,11,-55,7,-69,-54,-70,-64,-80
-22,-63,-41,43,10,-52,5,-75,-60,-70,-70,-81
-13,-69,-56,41,22,-62,3,-95,-76,-70,-81,-80
-22,-80,-57,51,18,-68,-5,-95,-75,-70,-79,-78
-20,-80,-60,50,20,-70,-10,-94,-75,-70,-80,-74
-21,-81,-61,51,20,-71,-3,-96,-75,-70,-80,-72
-12,-75,-62,44,25,-68,4,-94,-75,-70,-79,-69
-16,-82,-67,50,26,-74,11,-98,-75,-69,-83,-66
-33,-97,-63,66,15,-80,13,-100,-75,-65,-85,-64
-26,-87,-61,57,18,-74,7,-100,-75,-65,-85,-60
-29,-85,-56,58,14,-70,4,-101,-75,-65,-85,-60
-28,-80,-53,54,13,-66,-1,-99,-75,-65,-85,-59
-31,-75,-44,54,7,-60,-6,-101,-75,-65,-85,-55
-35,-71,-36,53,1,-53,13,-91,-70,-63,-78,-55
-19,-59,-41,39,11,-50,27,-84,-68,-58,-70,-59
-15,-49,-33,32,9,-41,18,-68,-57,-56,-61,-57
1,-10,-11,5,6,-11,7,-31,-28,-43,-43,-43
9,31,22,-20,-7,26,-2,-18,1,-29,-38,-32
-4,36,40,-16,-23,38,-13,-20,4,-31,-41,-30
14,36,22,-25,-4,28,-22,-56,-10,-29,-42,-29
0,17,17,-9,-9,17,-34,-86,-34,-31,-47,-25
-28,-35,-7,31,-10,-21,-34,-71,-46,-29,-42,-24
-38,-87,-49,63,6,-68,-6,-97,-60,-51,-61,-53
-43,-107,-65,75,11,-86,3,-111,-87,-87,-96,-82
-38,-90,-52,64,7,-71,-7,-99,-86,-80,-93,-83
-46,-101,-55,74,5,-78,1,-114,-104,-95,-102,-95
-36,-85,-48,61,6,-66,-5,-93,-69,-74,-87,-86
-52,-94,-42,74,-5,-67,-2,-120,-87,-91,-103,-93
-49,-96,-47,73,-1,-71,32,-44,-47,-73,-90,-94
-76,-81,-6,79,-35,-43,124,173,48,-28,-76,-100
199,55,-145,-127,172,-45,60,361,392,289,205,77
553,499,-54,-526,303,222,-131,-135,718,743,719,529
138,515,377,-327,-120,446,-197,-1216,218,361,445,513
-246,276,523,-15,-384,399,-300,-1432,-90,-24,19,170
-142,208,350,-33,-246,279,-288,-862,-98,-33,8,61
-55,41,96,6,-76,68,-105,-297,-159,-107,-54,6
14,15,0,-15,7,8,-22,-64,-58,-53,-40,-18
53,6,-47,-29,50,-20,17,-34,-81,-65,-59,-29
74,-7,-81,-33,77,-43,55,8,-54,-52,-64,-23
42,-7,-49,-18,46,-28,52,7,-44,-45,-48,-30
16,-52,-68,18,42,-59,43,46,-40,-47,-47,-53
59,-36,-95,-12,77,-65,39,50,-26,-31,-32,-40
56,-43,-99,-7,78,-71,29,59,-32,-36,-34,-37
57,-32,-90,-12,74,-61,28,76,-18,-22,-24,-29
101,14,-87,-57,94,-36,44,98,-21,-22,-24,-22
121,42,-79,-81,100,-18,45,125,-11,-13,-17,-20
125,49,-76,-86,100,-14,43,138,-4,-8,-13,-14
130,42,-88,-86,109,-22,39,179,18,13,-6,-14
169,78,-91,-123,129,-6,40,225,52,51,7,-8
161,69,-92,-115,126,-11,29,233,64,55,13,5
171,74,-96,-122,134,-10,20,259,62,56,36,27
203,110,-93,-156,148,8,28,334,92,77,70,55
173,83,-91,-128,132,-4,-23,365,115,82,83,67
221,131,-90,-176,155,21,-51,377,117,106,97,86
255,164,-91,-209,172,36,-41,402,127,128,126,100
283,193,-90,-238,186,51,-50,417,147,158,156,120
325,244,-81,-284,202,81,-49,431,172,192,185,143
318,263,-55,-290,186,104,-50,443,195,200,213,155
303,272,-31,-287,167,120,-44,440,209,220,214,159
298,278,-20,-287,159,128,-26,426,225,235,219,158
286,286,0,-286,143,143,-17,367,235,231,219,155
251,264,13,-257,118,138,12,295,208,204,171,111
218,257,39,-237,89,148,39,237,177,164,130,69
137,202,65,-170,36,133,32,151,145,126,90,37
85,151,66,-119,10,108,55,116,108,93,53,2
77,137,60,-107,8,98,63,99,95,77,41,-13
48,100,52,-74,-2,76,50,81,90,65,34,-25
31,76,45,-54,-7,60,47,68,82,56,27,-28
44,80,35,-62,4,57,36,58,74,55,19,-23
64,118,54,-91,4,86,33,85,67,55,13,-17
64,127,63,-96,0,95,32,92,61,50,12,-11
70,119,49,-95,10,84,47,89,55,50,21,-10
73,121,49,-97,12,85,55,88,50,49,30,-10
68,111,43,-90,12,77,45,83,44,42,22,-10
63,105,42,-84,11,73,39,86,39,37,16,-10
53,88,35,-71,8,62,33,66,34,32,10,-10
56,91,35,-74,10,63,25,43,27,26,2,-11
30,83,53,-57,-12,68,33,36,22,21,-2,-15
17,67,50,-42,-17,58,46,29,17,16,-8,-15
44,86,41,-65,1,63,39,22,11,9,-12,-15
35,72,37,-54,-1,54,32,16,7,2,-17,-16
26,54,28,-40,-1,41,26,10,-2,-4,-22,-14
31,58,27,-45,2,42,19,5,-20,-11,-25,-22
-2,35,38,-16,-20,36,14,0,-34,-20,-38,-32
-61,-8,53,35,-57,22,10,-4,-35,-30,-47,-30
-82,-27,56,54,-69,14,10,-9,-35,-36,-45,-26
-86,-34,51,60,-68,8,10,-14,-40,-34,-43,-22
-87,-38,49,62,-68,5,9,-13,-40,-36,-40,-19
-79,-34,46,56,-62,6,17,-9,-40,-34,-39,-13
-81,-36,45,58,-62,5,27,-11,-40,-37,-48,-29
-80,-29,51,54,-65,10,25,-22,-40,-49,-55,-38
-89,-31,58,60,-73,13,24,-26,-41,-45,-55,-20
-87,-29,58,58,-72,15,24,-24,-40,-37,-55,-9
-75,-23,52,48,-63,15,18,-25,-41,-32,-55,-16
-63,-15,48,39,-55,16,22,-24,-39,-23,-55,-36
-42,3,45,19,-43,23,23,-25,-42,-21,-51,-33
-28,8,36,10,-33,22,27,-8,-33,-26,-43,-26
-2,55,56,-27,-29,55,42,24,5,-14,-10,-18
13,106,94,-60,-41,100,29,31,17,11,8,1
12,107,95,-60,-42,101,11,10,6,9,-7,5
34,121,87,-77,-27,104,5,-3,1,4,-12,7
16,122,106,-69,-46,114,-4,-18,-5,3,-22,12
-15,76,90,-31,-53,83,-20,-33,-19,-14,-32,-3
-29,34,64,-3,-47,49,-30,-43,-50,-34,-44,-26
-57,5,62,26,-59,33,-19,-60,-78,-60,-76,-53
-60,-8,52,34,-56,22,-13,-56,-65,-58,-69,-63
-82,-30,52,56,-67,10,-8,-79,-84,-76,-80,-70
-82,-41,40,61,-61,-1,-2,-60,-58,-73,-82,-83
-113,-62,51,87,-82,-5,-3,-80,-76,-89,-110,-99
-107,-62,45,84,-76,-8,38,-47,-61,-73,-93,-94
-124,-71,53,97,-88,-8,103,177,12,-47,-71,-108
2,-18,-20,8,11,-19,74,347,280,176,93,-10
413,397,-16,-404,214,190,-110,-31,708,703,637,427
164,520,356,-342,-96,437,-287,-1134,293,471,529,546
-275,284,560,-5,-418,422,-366,-1535,-162,-25,34,227
-221,171,392,24,-307,282,-329,-927,-157,-81,-54,55
-154,19,173,67,-164,96,-160,-347,-199,-131,-98,-17
-92,-33,59,62,-75,13,-32,-71,-93,-81,-61,-37
-83,-52,31,67,-57,-10,7,-20,-92,-83,-71,-60
-88,-82,5,85,-46,-38,13,29,-79,-79,-90,-78
-63,-61,2,62,-32,-29,14,38,-66,-64,-73,-64
-40,-50,-10,45,-15,-30,19,63,-71,-68,-78,-63
-35,-62,-28,49,-3,-45,21,87,-51,-52,-63,-52
-74,-79,-5,77,-34,-42,25,79,-57,-57,-65,-49
-62,-75,-13,69,-24,-44,25,100,-41,-44,-52,-43
1,-43,-43,21,22,-43,25,114,-42,-46,-47,-40
21,-18,-39,-1,30,-29,25,125,-31,-38,-38,-37
16,-24,-39,4,28,-31,25,139,-27,-35,-30,-32
29,-7,-36,-11,33,-21,18,162,-19,-25,-24,-30
44,10,-34,-27,39,-12,3,190,-10,-12,-12,-21
56,20,-37,-38,46,-8,-10,217,-2,-9,-7,-8
89,27,-62,-58,75,-17,-16,238,7,-5,8,3
102,23,-78,-62,89,-27,-14,281,17,10,33,23
106,33,-73,-69,89,-20,-26,315,37,34,43,38
164,87,-77,-125,120,5,-58,333,50,49,64,45
171,97,-74,-134,123,11,-67,351,61,71,84,65
184,108,-76,-146,130,15,-75,358,74,90,107,88
199,135,-64,-167,131,35,-91,367,89,106,131,106
189,147,-42,-168,115,53,-90,367,101,125,142,124
201,187,-14,-194,107,86,-89,356,128,145,159,130
182,186,4,-184,89,95,-92,353,146,155,165,124
164,180,16,-172,74,97,-83,319,130,137,138,112
110,166,57,-138,26,111,-45,251,124,119,115,99
43,123,80,-84,-19,101,-11,194,106,95,95,71
10,86,76,-48,-33,80,5,132,61,62,49,27
-12,63,75,-26,-44,69,15,74,36,33,20,9
-17,58,75,-21,-46,66,21,50,29,14,8,-2
-20,55,75,-18,-48,65,31,44,20,0,0,-18
-28,48,76,-10,-52,61,33,46,10,-19,-2,-20
-32,41,73,-5,-53,57,29,45,1,-30,-9,-20
-34,33,67,0,-51,50,27,45,-12,-30,-11,-20
-31,27,58,2,-45,42,24,45,-15,-30,-18,-20
-36,17,54,9,-45,35,19,36,-15,-30,-27,-20
-21,21,43,0,-32,32,14,23,-17,-29,-25,-22
5,43,39,-24,-17,41,8,12,-26,-33,-25,-26
-12,36,49,-12,-31,42,4,3,-47,-35,-25,-25
-34,19,52,7,-43,35,-5,-6,-55,-35,-32,-29
-32,7,39,12,-36,23,2,-14,-56,-41,-46,-30
-15,6,21,4,-18,13,17,-34,-64,-58,-55,-30
-64,-11,53,37,-58,21,11,-63,-75,-73,-61,-34
-86,-18,68,52,-76,25,6,-64,-75,-75,-59,-38
-63,-12,51,37,-57,19,1,-66,-76,-75,-63,-41
-84,-29,54,56,-69,12,-6,-64,-84,-79,-72,-45
-65,-26,39,45,-52,6,-9,-66,-86,-81,-69,-43
-65,-16,48,40,-56,16,-6,-66,-84,-79,-66,-39
-76,-11,64,43,-70,27,-5,-62,-86,-81,-64,-40
-79,-28,52,53,-65,12,-4,-78,-84,-76,-59,-40
-63,-12,51,37,-56,19,1,-87,-87,-77,-62,-41
-58,-23,35,40,-47,6,-2,-96,-103,-97,-66,-39
-96,-49,46,72,-71,-1,5,-73,-106,-102,-65,-36
-75,-16,59,46,-67,21,12,-100,-104,-98,-65,-33
-47,-30,18,38,-32,-6,8,-56,-105,-102,-65,-31
-50,-31,19,40,-34,-6,3,-102,-105,-98,-65,-27
-51,-14,37,32,-43,11,1,-185,-104,-104,-65,-25
-44,-27,17,35,-30,-5,9,-95,-99,-142,-65,-26
