I,II,III,aVR,aVL,aVF,V1,V2,V3,V4,V5,V6
0,-36,-36,18,19,-36,61,-27,-49,-76,-55,-46
-11,-46,-35,29,12,-40,60,-29,-50,-81,-61,-50
-28,-61,-33,45,3,-46,63,-42,-56,-91,-69,-50
-22,-60,-38,42,8,-49,67,-32,-40,-83,-60,-51
-29,-60,-31,45,1,-45,56,-55,-70,-96,-70,-55
-10,-67,-58,39,25,-62,62,-38,-63,-71,-61,-56
-12,-63,-51,38,20,-57,48,-55,-62,-69,-67,-52
-2,-56,-54,30,27,-55,113,77,12,-35,-44,-61
19,21,2,-20,8,11,119,71,96,35,10,-47
120,184,64,-153,28,124,-226,-398,-51,73,174,181
471,501,30,-486,220,265,-810,-662,118,530,797,779
450,592,142,-521,153,367,-1031,-938,-231,182,642,865
127,127,0,-127,63,64,-577,-824,-674,-523,-140,256
51,-78,-129,14,90,-103,-158,-247,-232,-231,-140,15
24,10,-14,-17,19,-1,-24,-77,-64,-97,-53,9
25,-20,-45,-2,35,-32,48,-16,-41,-88,-62,-30
26,-6,-32,-9,29,-19,56,12,4,-47,-37,-19
22,-12,-34,-5,28,-22,73,9,-20,-74,-55,-41
27,-11,-39,-8,33,-25,76,29,8,-42,-32,-40
10,-18,-28,4,20,-23,75,25,-8,-60,-44,-44
-1,-33,-32,17,16,-32,75,42,10,-39,-30,-39
-11,-29,-18,20,4,-24,71,41,4,-44,-32,-40
-8,-30,-22,19,7,-26,70,54,15,-34,-27,-41
-10,-22,-11,16,1,-17,70,62,19,-29,-21,-39
-12,-23,-11,17,0,-17,75,72,25,-25,-21,-40
1,-14,-14,7,8,-14,75,77,48,-17,-14,-33
-5,-20,-15,13,5,-18,76,79,51,-8,-13,-31
-10,-26,-15,18,3,-20,80,94,65,4,-8,-27
15,1,-15,-7,15,-7,79,119,80,25,-1,-23
9,-7,-16,-1,12,-11,83,131,87,49,10,-20
3,-9,-12,4,8,-11,86,149,112,61,22,-13
23,19,-4,-20,13,7,85,180,138,82,42,2
24,27,4,-26,10,15,85,202,155,108,68,14
29,41,12,-35,8,26,85,238,195,143,97,32
58,77,19,-68,19,48,85,270,238,182,128,53
79,106,27,-92,25,66,79,298,270,213,156,65
76,113,37,-95,19,75,73,339,307,251,190,92
83,128,44,-106,19,86,69,367,334,285,225,118
105,154,49,-130,27,102,63,377,355,303,240,135
124,177,53,-151,35,115,57,394,382,341,273,168
131,197,66,-164,32,131,52,399,401,358,294,185
121,198,78,-160,21,138,47,364,380,334,277,175
96,166,70,-131,13,118,42,296,304,287,239,145
54,115,60,-85,-3,88,38,202,213,191,169,95
36,79,44,-58,-4,61,34,125,118,100,94,49
28,46,17,-37,5,31,29,71,37,29,27,13
6,13,7,-10,-1,10,26,27,-8,-19,-4,-13
0,1,1,-1,-1,1,23,3,-35,-43,-27,-41
-7,-13,-6,10,0,-9,21,-8,-48,-62,-50,-56
8,-4,-12,-2,10,-8,17,-12,-54,-67,-49,-54
7,-13,-19,3,13,-16,15,-18,-56,-70,-50,-55
-7,-22,-16,14,5,-19,12,-24,-55,-70,-50,-55
-4,-11,-7,8,2,-9,10,-29,-55,-70,-50,-55
-30,-32,-1,31,-14,-16,10,-27,-55,-71,-49,-55
-42,-36,6,39,-24,-15,10,-25,-55,-69,-45,-55
-44,-34,10,39,-27,-11,10,-25,-53,-66,-43,-55
-45,-36,10,41,-27,-13,10,-20,-48,-65,-40,-55
-47,-35,13,41,-29,-11,14,-20,-45,-65,-37,-55
-50,-35,15,42,-32,-10,15,-21,-42,-65,-34,-55
-54,-39,15,46,-35,-12,15,-25,-37,-65,-39,-59
-51,-39,11,45,-31,-14,15,-29,-35,-68,-42,-60
-51,-41,10,46,-30,-16,14,-32,-36,-70,-45,-60
-49,-39,10,44,-29,-14,18,-36,-49,-74,-49,-60
-47,-42,5,44,-26,-18,23,-31,-61,-75,-50,-60
-60,-54,5,56,-32,-25,30,-30,-65,-75,-50,-58
-37,-33,4,34,-20,-14,34,-29,-65,-75,-50,-55
-59,-59,0,59,-29,-29,31,-26,-61,-75,-58,-52
-84,-84,0,84,-42,-42,28,-24,-60,-76,-61,-50
-67,-67,0,67,-33,-33,26,-28,-59,-74,-60,-46
-72,-72,0,72,-36,-36,22,-45,-56,-80,-58,-44
-68,-68,0,68,-34,-34,21,-47,-54,-88,-54,-49
-58,-61,-3,60,-27,-32,17,-44,-57,-84,-55,-50
-46,-55,-9,50,-18,-31,16,-45,-60,-79,-58,-50
-33,-46,-14,40,-9,-30,14,-40,-61,-77,-62,-50
-32,-50,-17,41,-7,-33,18,-40,-64,-71,-67,-49
-30,-53,-23,42,-3,-38,34,-41,-65,-71,-70,-51
-26,-50,-24,38,-1,-37,36,-45,-61,-82,-70,-55
-31,-50,-19,41,-6,-35,34,-45,-60,-86,-70,-55
-32,-48,-16,40,-8,-31,36,-45,-60,-84,-70,-55
-32,-44,-13,38,-9,-28,34,-45,-60,-85,-70,-55
-37,-45,-8,41,-14,-26,35,-45,-60,-85,-70,-55
-37,-42,-5,40,-16,-23,35,-41,-59,-84,-70,-52
-29,-38,-9,34,-10,-23,35,-34,-54,-79,-70,-47
-16,-35,-19,26,2,-27,35,-28,-51,-74,-70,-44
-8,-32,-23,20,8,-27,36,-20,-48,-70,-71,-41
-11,-28,-16,20,2,-22,35,-14,-43,-65,-69,-37
-11,-9,2,10,-6,-4,42,-7,-39,-60,-60,-33
-5,27,32,-11,-19,30,57,-2,-44,-64,-50,-23
13,56,43,-34,-15,49,54,19,-45,-65,-44,-10
21,60,39,-40,-9,49,39,18,-46,-66,-46,-8
29,49,20,-39,4,34,17,-11,-49,-69,-44,-12
53,34,-18,-44,36,8,1,-24,-50,-70,-45,-18
29,-7,-36,-10,32,-21,0,-35,-52,-72,-46,-27
11,-24,-35,7,23,-29,1,-47,-58,-78,-44,-31
-2,-37,-35,20,17,-36,10,-50,-74,-100,-75,-47
-45,-81,-36,63,-4,-58,18,-52,-89,-111,-89,-60
-54,-87,-33,71,-10,-60,26,-60,-105,-129,-91,-70
-45,-84,-39,65,-2,-61,29,-48,-87,-113,-78,-69
-49,-85,-37,67,-6,-61,17,-69,-102,-123,-79,-70
-42,-86,-44,64,2,-64,23,-48,-84,-109,-71,-71
-48,-84,-36,66,-6,-60,9,-73,-96,-113,-62,-68
-62,-106,-44,84,-9,-75,63,42,-51,-83,-67,-79
-48,-50,-2,49,-23,-26,102,118,88,37,-9,-58
60,94,34,-77,13,64,-154,-288,-1,110,168,141
402,380,-22,-391,212,178,-715,-605,162,595,827,768
435,554,119,-494,157,336,-1012,-937,-163,319,780,963
74,124,51,-99,12,87,-630,-890,-711,-518,-99,307
-35,-159,-124,97,45,-141,-220,-313,-331,-310,-186,-19
-29,-52,-24,41,-2,-38,-65,-96,-104,-107,-72,-12
-54,-72,-18,64,-18,-45,11,-30,-85,-105,-88,-54
-56,-85,-29,71,-13,-57,29,16,-28,-59,-48,-37
-62,-90,-28,76,-17,-59,62,22,-47,-85,-75,-56
-59,-92,-33,75,-13,-62,59,30,-15,-49,-50,-53
-66,-88,-22,77,-22,-54,60,19,-27,-63,-62,-51
-64,-93,-28,79,-18,-60,61,36,-8,-40,-52,-48
-66,-87,-21,77,-22,-54,59,38,-8,-37,-51,-42
-63,-84,-21,73,-20,-52,62,45,1,-25,-45,-41
-56,-75,-19,66,-18,-47,59,50,8,-15,-39,-36
-50,-71,-20,61,-15,-45,58,61,11,-9,-38,-35
-42,-62,-20,52,-11,-41,53,70,23,3,-30,-31
-34,-54,-20,44,-7,-37,52,72,32,9,-28,-28
-31,-47,-17,39,-7,-32,48,83,41,20,-17,-25
-29,-43,-14,36,-7,-28,45,102,54,42,-10,-24
-19,-35,-15,27,-2,-25,44,118,69,65,-1,-18
-19,-34,-15,27,-2,-24,40,132,88,71,16,-11
-7,-22,-15,15,4,-19,40,153,114,98,38,-4
-15,-29,-14,22,0,-22,40,176,141,133,59,1
8,1,-7,-4,8,-3,40,214,180,166,87,13
80,78,-2,-79,41,38,40,249,210,198,122,31
80,82,2,-81,39,42,36,274,243,229,143,51
68,77,9,-73,29,43,29,295,277,264,174,76
79,92,12,-86,33,52,22,315,307,294,207,95
92,119,27,-106,32,73,16,342,338,329,237,129
98,135,37,-117,30,86,9,342,358,353,261,157
92,126,34,-109,28,80,6,338,368,360,274,170
100,135,35,-118,32,85,12,313,349,345,276,180
81,112,30,-97,26,71,18,254,293,286,229,150
26,56,30,-41,-2,43,24,181,204,204,164,95
10,39,29,-24,-10,34,29,106,123,111,90,42
0,20,21,-10,-10,20,26,54,56,39,26,-1
-46,-31,14,38,-30,-8,21,8,-3,2,-14,-26
-55,-49,7,52,-31,-20,16,-10,-31,-36,-48,-38
-49,-50,-1,50,-24,-25,13,-13,-48,-57,-57,-42
-47,-55,-8,52,-19,-31,7,-22,-53,-60,-56,-46
-48,-55,-7,52,-20,-30,6,-27,-47,-58,-50,-45
-57,-62,-5,60,-26,-33,22,-27,-45,-54,-45,-45
-52,-57,-5,55,-23,-31,28,-21,-41,-51,-42,-45
-54,-55,0,54,-27,-27,23,-17,-36,-46,-35,-45
-44,-44,0,44,-22,-22,22,-13,-36,-45,-39,-45
-42,-41,1,41,-21,-20,18,-7,-40,-45,-40,-45
-38,-32,6,34,-22,-13,16,-6,-40,-45,-36,-45
-9,3,11,3,-10,7,13,-13,-40,-45,-30,-45
-29,-14,15,21,-23,1,10,-18,-40,-45,-37,-45
-40,-20,20,30,-30,0,10,-23,-40,-45,-54,-45
-48,-23,25,35,-36,1,10,-29,-44,-48,-57,-48
-71,-50,21,60,-45,-14,10,-34,-49,-51,-60,-52
-59,-45,15,52,-37,-15,10,-39,-52,-54,-64,-55
-61,-52,10,56,-35,-21,10,-44,-57,-57,-66,-58
-56,-53,3,54,-29,-25,10,-48,-60,-60,-70,-62
-55,-55,0,55,-27,-27,10,-49,-65,-60,-70,-65
-69,-68,0,68,-34,-34,10,-43,-68,-60,-70,-68
-65,-68,-3,67,-31,-35,10,-35,-71,-59,-82,-70
-62,-67,-5,65,-28,-36,10,-48,-74,-71,-86,-74
-46,-51,-5,49,-20,-28,19,-57,-76,-82,-81,-75
-37,-46,-8,42,-14,-27,22,-54,-80,-79,-79,-72
8,-3,-11,-2,9,-7,28,-55,-79,-80,-75,-69
23,9,-14,-16,19,-2,46,-55,-75,-80,-75,-66
-36,-52,-17,44,-9,-34,44,-55,-75,-80,-75,-63
-16,-36,-20,26,2,-28,40,-55,-75,-76,-75,-60
-14,-33,-19,24,3,-26,38,-55,-75,-74,-75,-60
-33,-47,-14,41,-9,-31,34,-55,-75,-75,-75,-60
-12,-28,-16,21,2,-21,38,-55,-79,-74,-75,-60
-8,-20,-12,14,2,-16,40,-55,-80,-76,-77,-60
-11,-21,-10,16,-1,-16,41,-56,-80,-73,-80,-60
-8,-17,-9,12,1,-13,39,-60,-80,-70,-80,-60
1,-16,-17,8,9,-16,41,-60,-80,-70,-80,-56
-22,-50,-28,36,3,-39,39,-60,-79,-70,-80,-50
-14,-35,-21,25,3,-28,36,-55,-70,-70,-80,-46
-19,-29,-9,24,-5,-18,35,-47,-62,-71,-71,-39
-9,-8,1,8,-5,-4,37,-37,-52,-63,-58,-34
26,52,26,-39,-1,39,65,-19,-53,-53,-48,-29
20,56,35,-38,-8,45,77,5,-55,-55,-37,-24
49,81,32,-65,8,57,59,0,-55,-55,-34,-21
55,78,23,-67,16,51,30,-23,-56,-55,-36,-17
47,37,-10,-42,28,13,2,-38,-53,-55,-33,-14
62,28,-34,-45,48,-3,10,-42,-59,-56,-41,-9
59,10,-49,-34,54,-19,14,-36,-56,-65,-49,-23
8,-27,-35,10,22,-31,26,-53,-76,-90,-72,-58
-24,-48,-23,36,0,-35,44,-57,-81,-99,-88,-64
-7,-37,-30,22,12,-33,36,-66,-91,-116,-95,-68
0,-37,-37,19,19,-37,44,-53,-86,-100,-86,-69
-24,-57,-33,41,4,-45,35,-63,-94,-105,-86,-74
-40,-76,-36,58,-2,-56,45,-49,-98,-99,-85,-75
-30,-65,-35,48,3,-50,35,-57,-82,-90,-74,-78
-39,-74,-35,57,-2,-54,58,5,-58,-90,-85,-84
-19,-28,-9,24,-5,-18,120,125,98,52,-11,-54
49,92,43,-71,3,67,-80,-211,42,95,123,77
378,369,-9,-373,193,180,-589,-524,184,563,760,677
497,625,127,-561,185,376,-980,-857,-19,482,900,997
131,227,96,-179,17,162,-717,-959,-686,-455,-2,389
-4,-151,-147,78,71,-149,-262,-400,-417,-371,-225,-14
-41,-89,-48,65,3,-68,-82,-124,-113,-104,-79,-28
-96,-98,-2,97,-47,-50,14,-67,-113,-116,-93,-65
-58,-82,-24,70,-16,-53,30,-20,-41,-45,-45,-49
-51,-71,-20,61,-15,-45,49,-5,-51,-74,-70,-58
-39,-69,-31,55,-4,-50,55,32,-14,-36,-46,-54
-40,-55,-15,48,-12,-35,55,24,-25,-44,-53,-55
-33,-56,-23,45,-5,-39,64,44,-11,-28,-44,-54
-31,-43,-12,38,-9,-27,63,46,-7,-24,-39,-48
-23,-41,-18,32,-2,-29,66,51,-5,-20,-37,-52
-31,-50,-20,40,-5,-35,66,54,7,-8,-28,-49
-41,-61,-20,51,-10,-40,71,55,6,-8,-28,-51
-34,-54,-20,44,-7,-37,70,54,18,4,-20,-49
-29,-49,-20,39,-4,-34,67,61,36,11,-18,-43
-27,-47,-20,37,-4,-33,65,73,42,25,-7,-32
-18,-39,-21,29,2,-30,65,97,60,38,3,-22
-19,-36,-17,27,-1,-26,65,120,89,56,17,-13
-10,-27,-17,19,4,-22,65,132,102,73,35,-3
35,1,-34,-18,34,-16,64,161,127,98,58,9
32,6,-27,-19,29,-10,60,180,157,127,74,21
38,21,-17,-29,27,2,61,204,183,152,95,35
69,59,-10,-64,39,24,57,241,218,193,127,52
83,84,1,-83,41,42,55,274,265,233,152,73
83,92,9,-88,37,50,55,299,300,267,179,104
107,129,22,-118,42,75,51,328,331,303,211,133
153,173,20,-163,66,96,46,346,357,323,232,149
155,181,26,-168,64,103,41,359,378,349,258,170
144,185,41,-165,51,113,38,374,399,373,287,191
141,175,34,-158,53,104,32,347,378,359,280,188
126,157,31,-142,47,93,31,289,322,304,229,158
101,127,26,-114,37,76,35,210,237,221,166,107
80,102,21,-91,29,61,35,135,152,134,109,64
56,73,17,-65,19,45,35,81,85,59,47,29
5,14,9,-9,-2,11,32,37,23,12,-1,2
-42,-39,3,40,-22,-18,29,13,-8,-23,-31,-12
-51,-56,-5,54,-23,-30,26,4,-22,-38,-46,-23
-35,-48,-13,42,-11,-30,23,6,-31,-34,-45,-36
-33,-51,-18,42,-7,-34,21,2,-40,-36,-45,-37
-56,-72,-16,65,-20,-44,19,-1,-43,-35,-45,-35
-53,-66,-13,60,-20,-39,15,0,-33,-36,-45,-35
-46,-57,-11,51,-18,-34,15,-4,-28,-32,-43,-31
-55,-62,-7,59,-24,-34,13,-5,-21,-30,-39,-29
-54,-59,-5,57,-24,-31,9,-5,-15,-27,-40,-31
-58,-61,-3,60,-28,-32,10,-5,-16,-24,-40,-35
-59,-59,0,59,-30,-29,6,-5,-13,-21,-41,-35
-66,-63,3,64,-35,-30,5,-4,-10,-20,-39,-35
-71,-65,6,68,-38,-30,5,0,-10,-26,-36,-35
-74,-65,10,69,-41,-27,5,5,-13,-23,-33,-35
-79,-69,10,74,-44,-29,5,1,-23,-39,-44,-38
-75,-70,5,72,-40,-32,6,-6,-31,-57,-60,-41
-70,-70,0,70,-35,-35,10,-13,-40,-56,-59,-44
-64,-69,-5,67,-30,-36,10,-19,-50,-61,-67,-47
-70,-79,-8,75,-31,-43,10,-26,-56,-63,-86,-59
-72,-87,-14,80,-28,-50,10,-31,-59,-67,-90,-66
-72,-84,-13,78,-29,-48,10,-29,-52,-70,-89,-64
-76,-85,-9,80,-33,-47,10,-47,-52,-73,-92,-65
-75,-85,-10,80,-32,-47,10,-57,-72,-77,-95,-65
-75,-85,-10,80,-32,-47,10,-54,-76,-80,-95,-65
-79,-89,-10,84,-34,-49,10,-59,-75,-80,-99,-69
-89,-99,-10,94,-39,-54,10,-60,-80,-80,-100,-70
-85,-101,-16,93,-35,-58,11,-60,-80,-80,-100,-70
-77,-100,-23,89,-27,-61,15,-56,-79,-80,-104,-74
-75,-100,-25,88,-25,-62,15,-51,-75,-80,-105,-76
-75,-100,-25,88,-25,-62,15,-49,-72,-80,-104,-73
-75,-100,-25,88,-25,-62,15,-45,-70,-80,-100,-70
-70,-95,-25,83,-22,-60,15,-40,-66,-80,-100,-70
-68,-93,-26,81,-21,-59,15,-40,-65,-81,-98,-70
-57,-89,-31,73,-13,-60,15,-40,-61,-79,-94,-70
-62,-88,-26,76,-18,-57,15,-40,-55,-75,-96,-71
-61,-82,-22,72,-19,-52,15,-40,-50,-75,-90,-65
-64,-81,-17,73,-23,-49,15,-39,-45,-70,-80,-56
-46,-58,-12,52,-17,-35,16,-41,-38,-72,-71,-48
-8,-17,-8,12,0,-12,25,-19,-36,-57,-59,-39
-32,-7,25,20,-29,9,35,1,-40,-31,-55,-30
-19,22,41,-2,-30,31,26,-3,-39,-28,-55,-20
37,63,26,-50,5,44,6,-10,-41,-31,-54,-10
51,65,14,-58,18,39,-3,-12,-39,-29,-48,-1
26,20,-7,-23,17,6,-12,-22,-40,-31,-51,0
46,18,-28,-31,37,-5,-14,-23,-37,-30,-44,0
40,8,-32,-24,36,-12,-8,-27,-34,-28,-38,-1
-22,-51,-29,37,4,-40,-1,-50,-66,-61,-77,-32
-19,-50,-31,35,6,-41,7,-47,-71,-66,-81,-54
-20,-43,-23,32,2,-33,11,-55,-79,-74,-78,-59
-19,-46,-28,33,5,-37,22,-43,-72,-67,-74,-60
-15,-37,-21,26,3,-29,13,-59,-82,-71,-70,-60
-14,-43,-29,29,7,-35,13,-39,-80,-72,-69,-66
-17,-38,-21,28,2,-29,3,-45,-74,-61,-58,-64
-6,-41,-35,24,14,-38,53,30,-31,-37,-58,-69
-9,-18,-10,14,1,-14,96,117,87,65,-1,-77
35,115,80,-76,-23,97,-127,-233,-14,90,129,72
362,413,51,-387,155,232,-631,-492,149,538,735,654
433,620,187,-527,123,403,-1037,-821,-76,415,832,931
121,221,100,-171,10,160,-756,-932,-716,-455,-35,342
-8,-155,-146,82,69,-150,-279,-386,-415,-340,-216,-31
-40,-77,-37,59,-2,-56,-102,-109,-109,-68,-37,-5
-42,-61,-19,52,-11,-40,-3,-42,-99,-76,-65,-52
-26,-49,-23,38,-2,-36,22,0,-32,-21,-33,-57
-39,-39,0,39,-19,-19,38,-1,-49,-49,-50,-61
-28,-36,-8,32,-10,-22,44,19,-16,-21,-32,-62
-36,-24,12,29,-23,-6,50,14,-21,-32,-36,-64
-53,-55,-2,53,-25,-28,53,30,-3,-19,-31,-67
-56,-53,3,54,-29,-25,47,30,5,-18,-25,-61
-49,-50,-1,49,-24,-26,52,39,12,-12,-26,-57
-48,-51,-3,50,-22,-27,48,44,21,-2,-17,-48
-41,-46,-5,44,-18,-25,51,50,25,1,-18,-43
-40,-46,-6,44,-17,-26,46,58,41,11,-11,-35
-34,-43,-9,38,-12,-25,45,66,47,14,-5,-30
-29,-39,-10,34,-9,-24,45,64,54,34,4,-25
-38,-49,-11,44,-13,-30,40,83,66,45,12,-21
2,-13,-15,6,9,-14,39,113,86,62,19,-16
32,17,-15,-24,23,1,42,123,103,75,32,-12
4,-9,-12,3,8,-10,48,151,132,82,52,-6
4,0,-4,-1,4,-2,46,175,150,101,74,10
27,30,3,-29,12,16,42,204,173,133,101,34
44,53,9,-49,17,31,40,236,216,172,133,57
51,68,17,-59,16,42,36,264,253,206,163,77
64,91,28,-78,18,59,35,295,276,236,189,101
74,112,37,-93,18,74,32,311,304,262,215,117
96,141,46,-119,25,93,29,343,335,303,251,147
132,176,44,-154,44,110,26,357,357,332,283,179
116,163,47,-140,34,105,23,343,364,328,274,172
98,156,58,-127,19,107,20,326,342,313,262,166
89,141,52,-115,19,96,20,264,289,258,236,150
50,92,42,-71,4,67,20,181,207,177,163,104
10,44,34,-28,-12,39,20,105,120,91,87,49
-22,0,22,11,-22,11,20,47,49,23,22,2
-41,-30,12,35,-26,-9,20,15,0,-23,-20,-28
-36,-37,-1,37,-17,-18,20,-8,-24,-61,-41,-42
-24,-33,-9,29,-7,-21,32,-22,-41,-66,-54,-47
-19,-29,-10,24,-4,-20,34,-23,-56,-64,-59,-49
-26,-36,-10,31,-8,-23,26,-19,-55,-66,-61,-46
-32,-42,-10,37,-11,-26,24,-20,-53,-65,-60,-45
-29,-39,-10,34,-9,-25,18,-16,-50,-65,-60,-44
-32,-41,-9,36,-12,-24,16,-15,-50,-60,-60,-40
-35,-40,-5,38,-15,-22,19,-15,-48,-55,-58,-40
-36,-41,-5,39,-15,-22,24,-10,-44,-51,-55,-42
-33,-38,-5,36,-13,-21,23,-10,-46,-46,-52,-45
-28,-33,-5,31,-11,-18,19,-9,-41,-41,-49,-45
-22,-28,-5,25,-8,-16,20,-5,-40,-40,-46,-45
-18,-23,-5,21,-6,-14,20,-5,-40,-40,-45,-45
-15,-20,-5,18,-5,-12,20,-7,-46,-40,-50,-44
-8,-13,-5,11,-1,-9,20,-13,-53,-40,-50,-41
-24,-29,-5,27,-9,-17,24,-17,-56,-47,-50,-40
-37,-42,-5,40,-16,-23,25,-21,-59,-55,-50,-40
-36,-39,-4,38,-16,-21,25,-26,-63,-60,-49,-40
-38,-38,0,38,-19,-19,25,-30,-65,-60,-59,-40
-34,-34,0,34,-17,-17,24,-30,-60,-62,-67,-42
-35,-35,0,35,-17,-17,28,-30,-59,-70,-64,-53
-38,-38,0,38,-19,-19,30,-31,-61,-74,-65,-60
-43,-43,0,43,-21,-21,30,-28,-58,-77,-65,-59
-42,-46,-4,44,-18,-24,30,-41,-73,-80,-64,-62
-34,-44,-10,39,-11,-27,30,-57,-87,-82,-76,-65
-31,-46,-15,38,-7,-30,30,-54,-84,-86,-86,-66
-24,-44,-21,34,-1,-32,25,-55,-85,-85,-84,-62
-19,-46,-27,33,4,-36,25,-55,-85,-85,-88,-60
-14,-44,-30,29,8,-37,24,-55,-85,-85,-90,-60
-20,-50,-30,35,5,-39,20,-59,-89,-86,-90,-60
-38,-68,-30,53,-4,-49,20,-61,-90,-94,-86,-77
-37,-67,-30,52,-3,-48,18,-64,-90,-95,-85,-80
-29,-59,-30,44,1,-45,14,-66,-90,-95,-85,-74
-26,-55,-30,41,2,-42,16,-70,-90,-95,-80,-72
-28,-55,-27,42,0,-41,14,-69,-89,-95,-80,-67
-30,-52,-22,41,-4,-37,17,-63,-84,-94,-79,-65
-28,-48,-20,38,-4,-34,13,-57,-80,-90,-72,-60
-42,-57,-15,50,-13,-36,13,-51,-78,-90,-68,-55
-53,-64,-11,58,-20,-37,28,-47,-73,-85,-63,-51
-33,-42,-9,37,-12,-25,19,-34,-71,-86,-56,-46
6,24,19,-15,-7,21,37,-12,-62,-77,-51,-42
5,42,38,-24,-17,40,53,-3,-47,-62,-46,-37
-8,46,54,-19,-32,50,29,0,-49,-65,-45,-33
24,61,37,-43,-7,49,19,5,-53,-66,-45,-30
39,30,-9,-34,24,10,13,0,-54,-65,-44,-26
40,16,-24,-27,31,-4,11,-19,-60,-73,-46,-24
41,-1,-42,-20,41,-21,8,-26,-59,-66,-45,-17
-12,-50,-38,31,14,-44,3,-44,-79,-81,-74,-39
-54,-83,-29,69,-13,-55,23,-51,-95,-100,-99,-76
-34,-55,-21,45,-7,-37,25,-65,-100,-107,-97,-77
-49,-64,-15,57,-17,-40,25,-64,-102,-110,-105,-84
-60,-86,-27,73,-16,-56,19,-63,-97,-98,-93,-83
-59,-84,-25,72,-17,-54,18,-70,-113,-115,-109,-90
-48,-88,-40,68,-3,-64,15,-55,-95,-93,-90,-89
-36,-70,-34,53,-1,-51,17,-65,-106,-114,-107,-92
-80,-82,-2,81,-39,-42,101,112,31,-5,-70,-107
-38,29,67,4,-53,48,5,-85,11,23,-4,-44
223,231,8,-227,107,119,-431,-486,27,274,393,352
518,513,-5,-516,262,254,-980,-661,215,726,1008,960
337,426,89,-381,124,257,-963,-953,-384,-1,455,741
36,-58,-93,11,64,-75,-426,-637,-590,-489,-210,92
10,-91,-101,41,56,-96,-131,-165,-162,-135,-97,-28
-38,-25,13,32,-25,-6,-19,-79,-104,-103,-97,-51
-48,-55,-6,51,-21,-30,29,-16,-51,-67,-72,-70
-39,-27,12,33,-26,-7,37,-23,-47,-66,-67,-68
-38,-41,-3,39,-17,-22,57,-1,-41,-61,-71,-87
-24,-24,0,24,-12,-12,61,2,-25,-45,-55,-72
-51,-56,-4,54,-23,-30,68,10,-28,-51,-63,-78
-54,-62,-8,58,-23,-34,63,21,-10,-31,-47,-69
-37,-55,-17,46,-10,-36,66,25,-11,-37,-50,-71
-33,-56,-23,45,-5,-39,65,39,6,-22,-36,-67
-31,-49,-17,40,-7,-33,65,47,9,-19,-34,-60
-29,-51,-22,40,-4,-37,65,55,26,-10,-25,-57
-25,-44,-19,35,-3,-31,65,59,32,-4,-19,-52
-25,-46,-21,36,-1,-33,65,77,42,3,-14,-48
-27,-42,-16,35,-5,-29,65,90,61,22,-2,-43
-29,-38,-10,33,-9,-24,64,104,67,41,2,-33
-30,-36,-6,33,-12,-21,63,128,94,57,16,-21
-24,-23,1,23,-12,-11,52,152,120,75,28,-8
-11,-5,6,7,-9,1,57,181,153,105,44,3
15,26,11,-21,2,19,80,214,190,137,79,17
27,45,17,-36,5,31,75,241,211,168,102,37
54,76,23,-65,15,49,67,274,261,213,134,58
86,115,29,-100,28,72,61,306,297,250,168,85
98,131,33,-115,32,82,54,332,327,283,197,108
102,143,41,-123,30,92,49,368,361,324,230,132
124,174,50,-149,37,112,45,389,394,367,265,166
165,215,50,-190,57,132,42,392,422,387,292,193
166,214,48,-190,59,130,40,385,418,392,298,201
160,201,41,-181,60,121,36,336,374,361,284,183
133,167,34,-150,50,100,34,254,288,281,229,137
96,124,28,-110,34,76,47,172,205,200,161,85
72,93,21,-83,25,57,48,97,126,108,88,40
35,48,13,-42,11,30,40,43,54,39,18,4
10,16,6,-13,2,10,37,14,10,2,-16,-24
3,2,-1,-2,2,0,29,2,-10,-22,-25,-38
7,-2,-9,-2,8,-5,26,-10,-21,-32,-28,-41
-1,-17,-17,9,8,-17,29,-18,-34,-42,-40,-44
-3,-21,-18,12,8,-19,30,-15,-34,-41,-42,-47
-9,-20,-11,15,1,-15,30,-15,-37,-36,-36,-50
-33,-40,-6,37,-13,-23,30,-15,-40,-34,-34,-49
-33,-34,-1,33,-16,-17,30,-15,-35,-30,-29,-43
-23,-18,5,20,-14,-6,27,-15,-33,-24,-25,-36
-22,-13,10,17,-16,-1,25,-11,-28,-33,-30,-29
-19,-3,16,11,-17,6,25,-10,-25,-42,-36,-22
-21,2,23,9,-22,12,22,-10,-21,-39,-34,-16
-42,-13,29,28,-36,8,19,-10,-20,-39,-35,-26
-42,-6,36,24,-39,15,21,-10,-20,-34,-35,-32
-19,19,38,0,-29,28,24,-11,-20,-37,-35,-29
-13,20,33,-4,-23,26,27,-18,-20,-29,-39,-31
-10,20,30,-5,-20,25,29,-24,-22,-29,-39,-29
-6,20,27,-7,-16,23,33,-31,-31,-47,-43,-31
-3,20,22,-9,-12,21,36,-38,-28,-54,-45,-34
-2,17,19,-8,-11,18,33,-44,-38,-60,-47,-35
-12,4,16,4,-14,10,27,-49,-55,-58,-58,-39
-20,-7,13,13,-16,3,23,-51,-56,-71,-61,-40
-33,-22,10,27,-21,-6,18,-54,-60,-87,-64,-42
-43,-35,8,39,-25,-13,14,-57,-62,-84,-67,-50
-28,-24,4,26,-16,-9,9,-60,-66,-90,-70,-54
-51,-44,7,47,-29,-18,6,-61,-64,-100,-73,-56
-72,-61,12,67,-42,-24,3,-65,-66,-105,-77,-60
-77,-61,15,68,-46,-23,1,-67,-64,-105,-80,-62
-89,-70,18,79,-53,-26,-3,-70,-67,-107,-81,-66
-88,-66,23,77,-55,-21,-5,-73,-86,-111,-79,-68
-94,-69,25,81,-60,-22,-5,-76,-92,-109,-83,-71
-75,-57,18,66,-46,-20,-5,-83,-93,-114,-95,-74
-85,-74,11,80,-48,-32,0,-81,-97,-115,-99,-77
-104,-100,4,102,-53,-48,0,-82,-100,-115,-104,-80
-94,-97,-3,96,-45,-50,1,-86,-99,-120,-103,-78
-90,-102,-12,96,-39,-57,6,-86,-95,-120,-99,-74
-86,-99,-13,93,-37,-55,5,-84,-93,-119,-101,-72
-98,-101,-2,100,-48,-51,7,-87,-89,-112,-96,-69
-107,-100,7,103,-57,-46,17,-102,-87,-106,-95,-66
-108,-89,19,98,-63,-35,23,-89,-85,-99,-96,-65
-90,-67,23,78,-56,-22,34,-72,-79,-93,-89,-59
-77,-31,45,54,-61,7,38,-68,-65,-82,-83,-50
-70,-11,60,40,-65,24,48,-66,-47,-64,-77,-42
-50,-3,47,27,-49,21,40,-71,-43,-65,-75,-34
-31,4,35,13,-33,19,-11,-71,-52,-70,-75,-29
-26,-22,4,24,-15,-9,-28,-75,-63,-73,-71,-30
-32,-43,-11,38,-10,-26,-18,-76,-66,-87,-71,-30
-34,-47,-13,41,-10,-30,-16,-78,-72,-88,-69,-30
-60,-78,-17,69,-21,-47,-11,-91,-96,-110,-88,-54
-79,-100,-21,89,-28,-60,-5,-87,-100,-122,-106,-78
-83,-101,-19,92,-32,-60,-4,-105,-123,-138,-115,-91
-63,-84,-21,73,-20,-52,5,-89,-125,-139,-116,-98
-71,-89,-19,80,-25,-54,4,-91,-109,-123,-113,-92
-91,-112,-21,102,-35,-66,14,-80,-120,-132,-126,-95
-45,-71,-25,59,-10,-48,14,-72,-90,-101,-112,-86
-62,-90,-28,76,-16,-58,40,-65,-96,-112,-122,-94
-77,-88,-10,82,-33,-49,100,89,48,6,-53,-101
-12,59,71,-24,-42,65,-52,-201,22,35,32,6
275,256,-20,-266,147,118,-536,-542,110,431,571,521
516,526,10,-521,253,268,-1043,-767,153,700,1026,1032
241,305,64,-273,88,184,-874,-1006,-545,-217,241,597
-15,-151,-136,84,61,-144,-348,-545,-529,-455,-250,36
-18,-99,-80,59,31,-89,-124,-149,-124,-110,-93,-11
-45,-57,-12,51,-16,-35,-12,-85,-114,-127,-121,-52
-61,-89,-27,76,-17,-58,28,-17,-33,-53,-82,-65
-55,-61,-5,59,-25,-33,28,-31,-51,-74,-90,-69
-70,-91,-21,81,-24,-56,32,-9,-34,-54,-79,-73
-91,-96,-5,93,-43,-50,45,-14,-33,-50,-70,-67
-80,-92,-13,86,-33,-52,59,0,-32,-48,-70,-73
-69,-81,-12,75,-29,-46,52,12,-21,-34,-57,-68
-59,-74,-15,67,-22,-44,57,23,-22,-36,-61,-68
-52,-68,-16,60,-17,-42,54,44,-4,-15,-51,-58
-50,-63,-13,57,-18,-38,55,38,1,-15,-53,-56
-43,-60,-17,52,-13,-38,55,44,6,10,-45,-49
-29,-57,-28,43,0,-42,55,73,10,19,-44,-44
-23,-52,-28,38,3,-39,55,89,39,22,-30,-39
-31,-51,-20,41,-6,-35,54,88,43,41,-16,-33
-12,-29,-17,20,3,-23,56,101,57,55,-4,-27
-4,-13,-9,9,3,-11,52,121,79,75,9,-22
-11,-17,-6,15,-2,-11,50,146,92,99,21,-13
-1,-1,1,1,-1,0,50,183,129,121,42,5
9,11,2,-10,3,6,50,207,159,147,60,22
26,38,12,-32,6,25,50,237,195,182,91,38
29,65,36,-47,-4,50,50,270,232,217,122,53
47,88,41,-67,3,64,44,304,268,251,151,79
79,122,43,-101,18,82,38,343,316,294,199,107
91,138,47,-115,22,92,34,357,341,324,229,131
116,169,53,-142,31,111,27,376,368,353,257,156
113,183,71,-148,21,127,23,388,397,389,287,183
104,177,73,-141,16,125,19,370,382,379,288,191
118,184,66,-151,26,125,21,315,339,332,258,161
93,154,60,-124,17,106,20,225,261,251,191,116
45,95,50,-71,-3,73,20,148,161,153,111,75
12,51,39,-31,-14,45,40,82,79,78,48,35
19,28,9,-24,5,18,47,31,23,17,-4,1
28,13,-15,-21,21,-1,44,7,-9,-21,-35,-30
8,-7,-15,0,11,-11,46,4,-37,-43,-49,-47
-2,-17,-15,10,7,-15,44,5,-42,-51,-51,-43
10,-6,-16,-2,14,-11,45,0,-35,-50,-50,-40
20,1,-20,-11,20,-9,39,1,-36,-50,-48,-37
17,-5,-23,-6,20,-14,34,-1,-29,-46,-44,-32
27,2,-25,-14,26,-11,28,-5,-32,-45,-46,-29
40,11,-29,-25,34,-9,23,-5,-35,-45,-41,-26
56,25,-30,-40,43,-3,16,-8,-35,-40,-40,-23
50,25,-26,-37,38,0,18,-10,-34,-40,-40,-20
28,12,-17,-20,22,-2,38,-10,-31,-39,-35,-18
38,26,-12,-32,24,7,39,-7,-29,-35,-35,-13
35,32,-3,-34,19,14,34,-5,-32,-36,-36,-24
18,25,7,-22,5,16,32,-5,-35,-32,-40,-32
21,24,3,-23,9,14,27,-5,-35,-30,-40,-29
24,19,-5,-21,14,7,25,-5,-35,-30,-40,-31
25,14,-10,-19,17,1,20,-5,-35,-34,-40,-30
42,24,-18,-33,30,3,15,-5,-35,-35,-40,-30
52,28,-24,-40,38,2,10,-5,-38,-37,-44,-30
48,23,-25,-35,37,-1,7,-5,-43,-44,-45,-30
35,10,-25,-22,30,-7,-1,-6,-46,-46,-47,-30
38,12,-25,-24,31,-6,11,-4,-51,-53,-50,-30
26,1,-25,-13,25,-12,27,-13,-54,-57,-51,-39
-18,-44,-25,32,4,-35,21,-29,-56,-62,-60,-40
-22,-46,-24,34,1,-35,19,-30,-53,-70,-69,-40
-24,-44,-20,34,-1,-31,15,-30,-60,-66,-70,-40
-27,-47,-20,37,-3,-33,10,-35,-71,-65,-70,-40
-21,-41,-20,31,0,-30,10,-35,-70,-65,-70,-55
-41,-61,-20,51,-10,-40,10,-34,-69,-65,-71,-61
-37,-58,-20,48,-8,-39,10,-30,-65,-65,-68,-59
-30,-49,-19,39,-5,-34,10,-31,-65,-66,-64,-60
-42,-66,-24,54,-9,-45,9,-27,-63,-70,-58,-60
-42,-73,-31,58,-6,-52,11,-25,-59,-72,-55,-60
-54,-84,-30,69,-12,-57,15,-25,-60,-75,-50,-55
-56,-86,-30,71,-13,-57,25,-21,-60,-78,-45,-55
-53,-84,-31,69,-11,-57,47,-19,-59,-81,-57,-55
-72,-101,-29,86,-21,-65,51,-21,-62,-76,-60,-55
-74,-106,-32,90,-20,-69,49,-19,-69,-69,-54,-56
-69,-98,-28,84,-20,-63,56,-20,-66,-63,-52,-53
-46,-73,-27,60,-9,-50,54,-18,-56,-56,-47,-47
-9,-20,-10,15,1,-15,59,-7,-53,-49,-44,-41
-16,12,28,1,-22,20,65,3,-36,-45,-41,-35
6,33,27,-20,-11,30,55,24,-23,-45,-33,-30
11,34,23,-23,-6,29,44,24,-26,-43,-32,-29
-12,-11,1,12,-6,-5,40,-1,-24,-39,-25,-25
17,-25,-42,5,29,-33,40,-15,-45,-41,-21,-23
7,-39,-46,16,27,-42,38,-17,-51,-45,-27,-19
-18,-60,-42,40,12,-51,34,-27,-59,-69,-37,-24
-47,-87,-39,67,-4,-63,36,-32,-81,-90,-74,-57
-73,-110,-38,92,-17,-74,32,-37,-78,-87,-84,-71
-67,-99,-32,84,-17,-65,28,-44,-96,-106,-89,-71
-59,-103,-43,81,-8,-72,28,-33,-78,-92,-80,-69
-48,-94,-46,71,0,-70,19,-50,-88,-109,-91,-71
-36,-96,-60,67,12,-78,26,-26,-59,-86,-80,-69
-65,-122,-56,94,-4,-89,14,-56,-75,-104,-85,-74
-75,-126,-51,101,-12,-88,82,78,-4,-60,-76,-89
-13,-36,-23,25,5,-29,83,57,70,26,-9,-58
114,114,0,-114,57,56,-247,-346,-8,146,230,198
432,412,-20,-422,226,196,-806,-521,258,698,931,846
415,514,99,-465,158,306,-1047,-855,-183,257,713,906
58,21,-37,-39,47,-8,-615,-799,-706,-539,-152,226
-3,-172,-170,88,84,-171,-194,-250,-263,-247,-156,-28
-35,-60,-26,48,-4,-43,-59,-84,-90,-95,-73,-35
-72,-103,-32,88,-20,-67,9,-19,-64,-89,-69,-65
-38,-72,-34,56,-1,-53,34,-3,-27,-55,-41,-47
-61,-94,-33,78,-14,-63,60,-1,-44,-73,-63,-73
-63,-101,-38,83,-12,-69,52,13,-13,-41,-39,-64
-62,-93,-31,78,-15,-62,56,11,-25,-53,-53,-63
-57,-96,-39,77,-9,-67,55,27,-2,-31,-39,-55
-59,-88,-30,74,-14,-59,54,26,-4,-32,-40,-50
-57,-89,-32,73,-13,-60,56,43,11,-22,-32,-46
-53,-78,-25,66,-13,-51,54,51,22,-15,-27,-39
-48,-73,-25,61,-11,-49,56,63,33,-7,-22,-40
-45,-66,-20,55,-12,-43,54,65,49,9,-15,-32
-50,-69,-19,60,-15,-44,56,76,57,16,-11,-49
-31,-45,-15,38,-8,-30,54,93,66,25,1,-51
-31,-39,-8,35,-11,-23,50,105,80,44,9,-33
-35,-39,-4,37,-15,-22,50,124,93,64,21,-27
-24,-22,3,23,-13,-9,50,135,115,91,35,-14
-25,-18,7,21,-16,-5,50,167,147,117,50,-3
0,13,14,-7,-7,13,51,197,171,142,69,17
9,29,20,-19,-6,24,48,225,209,183,100,42
28,59,31,-44,-1,45,42,258,249,224,135,62
70,103,32,-87,18,67,38,289,288,257,164,77
62,102,40,-82,11,70,34,330,327,288,202,104
104,152,48,-128,28,100,29,342,361,329,228,151
112,172,59,-142,26,115,24,354,386,357,248,165
66,149,84,-108,-9,116,20,359,406,369,279,175
107,185,78,-146,14,131,20,348,406,376,294,176
115,182,68,-149,23,124,19,325,365,355,279,159
71,133,62,-103,4,98,15,248,299,289,232,142
44,96,53,-70,-5,74,15,165,201,198,155,95
6,55,49,-31,-21,52,15,96,103,82,77,50
-29,5,34,12,-31,19,15,41,41,8,15,11
-35,-23,12,29,-23,-6,15,0,0,-8,-26,-17
-47,-43,5,44,-26,-19,15,-32,-34,-35,-40,-33
-80,-77,3,78,-41,-37,15,-35,-51,-53,-56,-56
-94,-94,0,94,-46,-47,14,-30,-50,-55,-62,-61
-86,-89,-3,88,-41,-46,11,-30,-50,-55,-59,-59
-77,-83,-6,81,-35,-44,8,-30,-50,-54,-65,-60
-74,-75,-1,74,-36,-37,6,-30,-50,-56,-65,-60
-75,-70,5,72,-40,-32,2,-30,-49,-53,-64,-59
-73,-62,11,68,-42,-25,0,-28,-43,-49,-60,-55
-73,-57,16,64,-44,-20,-3,-25,-37,-43,-57,-55
-68,-46,21,57,-44,-12,-5,-22,-33,-40,-53,-50
-63,-38,25,50,-44,-6,-5,-19,-26,-35,-50,-50
-74,-50,25,61,-49,-12,-8,-16,-21,-29,-46,-47
-63,-38,25,50,-44,-6,-10,-15,-32,-47,-45,-45
-68,-43,25,55,-46,-9,-10,-22,-37,-57,-45,-45
-77,-52,25,64,-51,-13,6,-33,-34,-55,-45,-40
-68,-46,21,57,-44,-12,17,-40,-32,-55,-45,-40
-57,-43,14,50,-35,-15,14,-40,-29,-56,-46,-42
-50,-42,7,45,-29,-17,16,-40,-31,-72,-52,-45
-38,-37,1,38,-20,-18,14,-40,-39,-76,-59,-45
-12,-18,-6,15,-3,-12,16,-40,-48,-77,-60,-45
-36,-47,-11,42,-12,-29,12,-40,-53,-81,-60,-45
-42,-58,-16,50,-13,-37,6,-41,-59,-78,-71,-45
-25,-45,-19,35,-3,-32,1,-39,-60,-74,-74,-50
-33,-50,-17,42,-8,-33,-5,-44,-60,-76,-80,-61
-23,-37,-14,30,-4,-25,-9,-50,-60,-73,-91,-65
-40,-51,-11,45,-14,-31,-21,-50,-60,-79,-90,-65
-60,-69,-9,64,-25,-38,-27,-54,-61,-96,-89,-65
-53,-57,-4,55,-24,-30,-23,-55,-65,-93,-85,-65
-41,-48,-7,45,-17,-27,-21,-58,-70,-90,-85,-65
-26,-44,-18,35,-4,-31,-17,-61,-71,-88,-83,-62
-25,-45,-21,35,-1,-33,-15,-60,-70,-84,-79,-59
-26,-44,-18,35,-3,-31,-13,-60,-70,-85,-77,-56
-31,-46,-15,39,-7,-30,-6,-60,-70,-85,-74,-53
-29,-44,-15,37,-6,-30,-2,-59,-70,-85,-71,-50
-28,-41,-13,35,-8,-27,4,-55,-70,-85,-70,-48
-29,-39,-9,34,-10,-24,10,-55,-70,-85,-77,-45
-23,-34,-11,28,-6,-22,15,-55,-70,-84,-87,-45
-42,-47,-5,45,-18,-26,20,-55,-69,-93,-88,-45
-49,-46,3,48,-26,-21,19,-55,-71,-93,-82,-45
-30,-22,8,26,-19,-6,22,-49,-68,-75,-76,-46
-27,-11,17,19,-22,3,18,-36,-56,-66,-70,-40
-13,18,31,-3,-22,24,29,-25,-41,-64,-65,-32
12,59,47,-36,-18,53,39,-17,-31,-61,-61,-25
14,62,49,-38,-18,55,12,-10,-30,-58,-58,-25
28,55,27,-42,0,41,3,-22,-31,-56,-56,-25
25,36,11,-31,7,23,-1,-57,-48,-54,-51,-24
9,8,-1,-9,5,4,-6,-66,-64,-65,-51,-27
19,-4,-24,-7,22,-14,-9,-63,-60,-65,-51,-22
-2,-38,-36,21,17,-37,-17,-69,-74,-88,-77,-43
-22,-58,-36,41,7,-47,-8,-60,-83,-107,-93,-67
-19,-52,-33,36,8,-43,-8,-71,-100,-112,-96,-69
-24,-58,-34,41,5,-45,4,-55,-92,-104,-96,-71
-25,-53,-27,39,1,-39,1,-66,-96,-102,-92,-64
-25,-57,-32,41,4,-44,16,-50,-98,-105,-101,-68
-29,-51,-23,40,-2,-37,12,-61,-89,-88,-86,-60
-9,-37,-28,23,10,-32,30,-21,-75,-89,-98,-74
-5,-6,0,6,-3,-3,95,105,65,23,-42,-78
28,119,92,-74,-32,105,-106,-242,-49,26,48,33
314,376,63,-345,125,219,-624,-502,118,478,623,571
513,622,109,-568,201,365,-1081,-718,117,635,981,1020
274,311,37,-293,118,174,-828,-933,-579,-282,158,522
73,-79,-152,3,113,-115,-290,-459,-453,-384,-227,20
44,-5,-49,-19,46,-27,-85,-120,-104,-83,-61,-23
-3,-1,2,3,-3,1,18,-64,-97,-102,-84,-76
13,7,-6,-10,9,0,42,-10,-25,-33,-51,-77
8,15,7,-11,0,11,56,-5,-44,-62,-74,-81
-6,-33,-27,20,11,-30,63,22,-21,-37,-60,-81
23,-5,-28,-9,26,-16,60,12,-24,-40,-60,-78
29,-3,-32,-13,30,-17,69,24,-17,-33,-62,-83
23,-6,-29,-8,26,-17,66,23,-8,-24,-55,-76
26,-5,-30,-11,28,-17,73,28,-4,-23,-54,-74
38,8,-30,-23,34,-11,73,34,10,-7,-42,-67
51,27,-24,-39,37,1,76,46,15,-8,-40,-65
54,36,-18,-45,35,9,76,53,20,0,-29,-59
45,34,-10,-39,27,12,80,61,33,3,-22,-53
41,36,-5,-38,22,16,80,87,52,23,-6,-45
29,32,3,-31,13,17,82,94,59,39,6,-37
34,46,12,-41,11,29,86,108,80,54,21,-29
51,71,20,-61,15,45,84,131,106,72,35,-21
49,79,30,-64,10,54,90,152,132,94,50,-9
43,78,34,-61,5,55,90,178,159,121,75,13
58,96,38,-77,10,66,90,217,203,160,103,37
95,135,41,-115,27,88,103,265,250,210,143,60
97,146,49,-122,24,97,102,296,279,237,168,82
98,172,73,-135,12,122,93,322,314,270,197,102
128,213,86,-171,21,149,88,349,352,315,240,128
151,239,87,-195,32,163,81,373,379,347,262,155
151,240,89,-195,30,165,70,395,404,377,290,178
130,228,98,-179,16,162,57,393,419,393,318,202
120,221,101,-170,9,161,55,366,404,380,323,205
121,210,90,-166,16,150,55,308,348,329,286,178
100,183,82,-142,9,132,51,217,249,237,205,127
63,136,73,-100,-5,104,50,134,152,143,141,67
21,84,63,-53,-22,74,50,76,80,70,85,30
-10,43,53,-17,-32,48,45,34,22,20,31,3
-9,31,40,-12,-25,35,45,13,-8,-8,9,-17
-15,15,30,0,-23,22,44,4,-23,-27,-8,-31
-28,-8,20,18,-24,6,39,-1,-38,-41,-20,-42
-29,-19,10,24,-19,-5,41,-6,-40,-43,-29,-41
-30,-26,4,28,-17,-11,37,-12,-40,-49,-34,-38
-29,-23,6,25,-17,-8,33,-18,-43,-52,-30,-35
-21,-18,2,19,-12,-8,27,-20,-46,-50,-30,-33
-18,-18,0,18,-8,-9,24,-20,-44,-50,-28,-28
-13,-13,0,13,-6,-6,18,-20,-41,-47,-25,-38
-16,-12,3,14,-9,-4,16,-20,-38,-44,-25,-46
-44,-39,6,41,-25,-16,28,-20,-36,-46,-29,-44
-44,-39,5,41,-24,-17,31,-20,-33,-49,-31,-45
-43,-33,10,38,-26,-11,29,-27,-29,-51,-30,-45
-41,-32,9,37,-25,-11,30,-36,-38,-50,-30,-45
-36,-25,11,31,-24,-6,30,-45,-46,-50,-30,-45
-51,-26,25,38,-37,-1,30,-53,-45,-50,-31,-46
-39,-15,24,27,-31,4,25,-55,-44,-52,-29,-43
-55,-40,15,48,-35,-12,20,-58,-56,-66,-38,-51
-63,-53,10,58,-36,-22,16,-61,-66,-76,-47,-66
-68,-65,2,66,-34,-31,11,-64,-68,-78,-50,-65
-83,-87,-4,85,-39,-45,6,-65,-76,-82,-55,-65
-70,-75,-5,73,-32,-40,7,-65,-82,-85,-55,-65
-67,-72,-5,70,-31,-38,15,-65,-85,-88,-56,-65
-59,-64,-5,62,-27,-34,19,-65,-85,-92,-52,-65
-80,-86,-5,83,-37,-45,16,-65,-88,-94,-77,-65
-105,-110,-5,108,-50,-57,11,-65,-91,-98,-109,-65
-95,-102,-6,99,-44,-54,9,-65,-89,-100,-109,-65
-95,-108,-12,102,-41,-60,5,-64,-91,-104,-110,-66
-85,-103,-18,94,-33,-60,0,-61,-89,-105,-110,-65
-78,-102,-24,90,-27,-62,2,-59,-92,-101,-110,-65
-89,-118,-29,103,-30,-73,13,-55,-95,-100,-111,-64
-70,-103,-34,87,-18,-68,22,-53,-95,-100,-108,-66
-46,-82,-35,65,-5,-58,21,-48,-95,-100,-105,-63
-65,-100,-35,83,-15,-67,18,-54,-95,-100,-105,-60
-90,-125,-35,108,-27,-80,16,-60,-95,-99,-102,-58
-86,-121,-35,104,-25,-78,12,-60,-91,-95,-100,-54
-82,-115,-34,99,-24,-74,10,-72,-90,-95,-100,-71
-82,-112,-30,97,-26,-71,7,-69,-90,-93,-102,-77
-79,-106,-27,93,-25,-67,5,-59,-85,-89,-106,-71
-77,-102,-25,91,-26,-63,5,-51,-85,-91,-103,-70
-74,-95,-21,84,-26,-57,5,-45,-84,-85,-101,-65
-71,-92,-21,81,-25,-56,6,-44,-76,-77,-97,-65
-56,-68,-13,62,-21,-40,4,-38,-68,-67,-95,-58
-43,-35,8,38,-25,-13,26,-43,-57,-61,-91,-47
-44,-9,35,26,-39,13,45,-45,-37,-65,-73,-37
-20,14,34,2,-27,24,30,-46,-29,-67,-67,-30
-11,-9,2,10,-7,-3,-1,-51,-31,-71,-74,-31
-38,-53,-16,46,-11,-34,-26,-49,-45,-71,-72,-29
-49,-82,-33,66,-8,-57,-19,-57,-67,-78,-81,-31
-47,-84,-38,66,-4,-61,-6,-55,-67,-75,-77,-28
-43,-77,-34,61,-5,-55,0,-67,-84,-88,-87,-49
-79,-115,-36,97,-21,-75,18,-74,-98,-104,-116,-79
-107,-136,-29,121,-38,-82,25,-83,-105,-107,-120,-79
-104,-135,-31,119,-36,-83,33,-78,-110,-114,-123,-81
-107,-135,-28,122,-39,-81,28,-83,-104,-104,-118,-82
-108,-134,-25,121,-41,-79,34,-89,-123,-119,-134,-88
-119,-138,-19,129,-50,-78,38,-76,-103,-104,-114,-82
-92,-122,-29,107,-31,-75,27,-59,-116,-123,-127,-94
-74,-91,-18,83,-28,-54,95,97,19,-12,-70,-97
-66,1,68,32,-67,34,-23,-160,-8,9,2,-27
216,206,-11,-211,113,97,-505,-505,67,349,468,419
512,500,-12,-506,262,244,-1046,-670,255,782,1081,1028
278,337,59,-308,110,198,-956,-963,-412,-57,412,714
-13,-109,-96,61,42,-102,-401,-592,-554,-480,-230,83
-36,-120,-84,78,24,-101,-128,-149,-138,-120,-93,-10
-78,-83,-5,81,-36,-44,-27,-84,-113,-120,-95,-46
-88,-103,-14,96,-36,-58,13,-18,-37,-67,-57,-64
-71,-81,-10,77,-31,-46,39,-26,-43,-75,-66,-59
-68,-93,-25,81,-21,-58,62,1,-30,-63,-67,-74
-63,-80,-17,72,-23,-48,50,5,-17,-48,-54,-75
-63,-84,-22,74,-20,-53,61,16,-21,-51,-66,-77
-54,-73,-19,63,-17,-46,58,22,-6,-31,-52,-66
-50,-70,-20,60,-15,-45,61,29,-14,-35,-56,-65
-45,-65,-20,55,-12,-42,56,52,-1,-17,-43,-56
-50,-65,-15,58,-17,-39,54,51,-3,-17,-42,-53
-45,-61,-16,53,-14,-38,51,56,4,-5,-34,-48
-28,-43,-15,36,-7,-28,48,61,16,1,-30,-45
-22,-38,-15,31,-3,-26,45,57,26,6,-26,-42
-5,-20,-15,13,5,-17,48,70,46,23,-15,-36
2,-11,-13,4,8,-11,64,106,82,41,-3,-36
14,8,-6,-10,10,1,65,124,99,63,13,-24
32,30,-1,-31,17,14,65,140,114,87,35,-11
54,58,4,-57,25,31,65,167,147,111,58,4
83,94,11,-88,36,52,65,196,179,135,74,22
62,76,14,-69,24,45,64,225,212,158,96,41
89,117,28,-103,30,72,58,270,249,203,132,67
119,162,42,-141,38,102,52,304,280,236,157,85
122,177,55,-150,33,116,47,338,330,287,203,129
153,215,62,-184,45,138,41,371,370,331,241,162
157,222,66,-189,45,143,36,376,391,353,264,177
170,242,71,-206,49,156,38,376,415,393,296,205
177,246,69,-212,53,157,40,367,410,394,303,198
174,245,71,-210,52,157,40,332,371,362,286,186
143,212,69,-178,37,141,40,252,292,285,214,163
90,161,71,-126,9,116,40,165,195,184,139,117
71,129,58,-100,6,94,39,104,113,103,77,65
52,79,27,-66,12,53,35,57,53,39,12,18
37,53,16,-45,10,34,35,20,13,-2,-17,-5
33,41,8,-37,12,25,32,1,-12,-32,-33,-15
21,25,4,-23,8,14,30,-11,-26,-40,-38,-26
43,28,-16,-35,29,6,29,-17,-26,-33,-32,-32
48,-1,-49,-24,49,-25,37,-8,-19,-29,-28,-30
15,-36,-51,11,33,-43,50,5,-12,-24,-23,-25
0,-47,-47,24,24,-46,56,10,-6,-20,-18,-23
11,-34,-45,12,28,-40,59,15,0,-16,-16,-18
8,-33,-41,12,25,-37,55,23,7,-9,-17,-15
12,-28,-40,8,26,-34,55,23,10,-5,-25,-10
50,14,-36,-31,43,-11,64,49,28,13,1,20
7,-28,-35,11,22,-31,65,47,23,5,8,12
2,-33,-35,16,19,-33,58,13,-3,-23,-26,-22
34,4,-31,-19,33,-13,55,19,0,-19,-25,-20
22,-8,-30,-7,26,-18,50,16,0,-20,-25,-20
37,6,-31,-21,34,-13,45,10,-1,-21,-26,-17
38,3,-35,-20,36,-16,49,10,-4,-19,-24,-14
47,12,-35,-29,41,-11,50,3,-11,-21,-26,-16
41,6,-35,-23,38,-14,50,3,-11,-18,-29,-19
24,-11,-35,-6,30,-23,55,-11,-27,-27,-33,-25
48,13,-35,-30,41,-11,55,-21,-45,-35,-35,-28
50,11,-39,-30,44,-13,54,-20,-45,-35,-39,-34
25,-16,-41,-5,33,-28,49,-19,-48,-34,-42,-38
24,-21,-45,-1,34,-32,46,-15,-51,-43,-47,-40
28,-16,-44,-5,36,-30,43,-15,-47,-51,-50,-40
26,-14,-40,-6,33,-26,38,-18,-45,-49,-55,-40
29,-9,-38,-9,33,-23,35,-20,-45,-52,-55,-40
28,-6,-34,-11,32,-20,31,-20,-42,-56,-56,-40
30,-2,-32,-14,31,-17,30,-20,-39,-55,-60,-45
36,7,-29,-22,32,-11,30,-20,-41,-52,-60,-45
45,18,-27,-31,36,-4,30,-21,-44,-49,-60,-45
50,26,-24,-38,37,1,30,-24,-48,-50,-60,-45
48,27,-21,-38,34,2,31,-27,-53,-50,-60,-45
41,23,-18,-32,29,2,32,-30,-55,-48,-59,-47
36,21,-15,-28,26,2,29,-33,-56,-58,-73,-50
32,18,-15,-25,23,1,31,-35,-60,-68,-82,-50
29,14,-15,-21,22,-1,30,-38,-60,-70,-77,-50
37,22,-15,-29,25,3,30,-41,-60,-75,-75,-51
34,19,-14,-26,24,2,29,-44,-59,-74,-72,-48
24,-2,-26,-11,25,-14,24,-45,-64,-76,-69,-59
-1,-31,-29,16,14,-30,26,-40,-71,-80,-75,-73
-30,-52,-22,42,-4,-37,22,-40,-66,-80,-79,-75
-32,-48,-16,40,-8,-32,21,-39,-61,-78,-73,-80
-31,-43,-13,37,-9,-28,18,-34,-56,-71,-67,-76
-43,-41,3,42,-23,-19,30,-35,-53,-64,-63,-69
-75,-44,31,59,-52,-6,40,-32,-47,-58,-56,-62
-91,-43,47,67,-69,2,26,-29,-45,-50,-52,-56
-57,-20,37,38,-47,8,13,-30,-44,-45,-45,-48
-47,-44,3,46,-25,-20,-28,-42,-54,-57,-47,-46
-69,-77,-8,74,-30,-42,-53,-69,-84,-74,-71,-66
-60,-72,-12,66,-23,-42,-38,-73,-92,-77,-83,-74
-79,-99,-20,89,-29,-59,-31,-77,-94,-88,-83,-75
-112,-127,-15,120,-48,-71,-24,-84,-113,-116,-101,-96
-116,-133,-17,125,-49,-75,-20,-82,-115,-118,-106,-101
-121,-133,-12,127,-54,-72,-19,-96,-125,-135,-120,-98
-130,-148,-19,139,-55,-84,-11,-82,-108,-125,-116,-106
-142,-152,-11,148,-65,-81,-14,-99,-121,-133,-117,-115
-134,-153,-19,144,-58,-85,-9,-79,-110,-130,-113,-117
-138,-142,-4,140,-67,-73,-19,-102,-120,-122,-107,-111
-134,-138,-4,136,-65,-71,43,1,-70,-96,-101,-128
-110,-78,32,94,-71,-22,83,64,50,14,-33,-117
-9,78,87,-35,-48,82,-184,-369,-60,64,125,88
346,318,-29,-332,187,144,-753,-642,146,596,817,721
416,495,79,-456,168,287,-1075,-935,-99,420,860,977
70,122,53,-96,8,88,-692,-941,-688,-485,-56,332
-64,-175,-111,119,24,-142,-252,-364,-364,-326,-201,-47
-75,-75,0,75,-37,-37,-88,-132,-118,-107,-71,-39
-82,-89,-7,86,-37,-47,4,-55,-97,-115,-90,-87
-83,-86,-3,84,-39,-44,20,-19,-45,-61,-48,-75
-109,-97,12,103,-60,-43,45,-24,-63,-91,-75,-83
-104,-99,5,101,-54,-47,45,3,-28,-53,-50,-79
-107,-85,23,96,-65,-31,45,-1,-41,-68,-61,-80
-103,-88,15,95,-59,-36,42,18,-24,-46,-52,-80
-99,-75,24,87,-61,-26,39,24,-24,-46,-50,-71
-93,-75,18,84,-55,-29,41,29,-18,-38,-46,-67
-85,-64,21,74,-53,-21,41,35,-5,-28,-39,-58
-80,-60,20,70,-50,-20,59,69,-4,-23,-38,-53
-67,-52,16,59,-41,-18,55,79,14,-10,-30,-46
-62,-46,16,54,-39,-15,46,71,24,-5,-27,-41
-52,-38,14,45,-33,-12,42,81,39,11,-11,-35
-48,-36,11,42,-29,-12,32,91,54,22,2,-30
-46,-37,9,41,-27,-13,33,104,66,37,12,-24
-44,-31,12,37,-28,-9,45,132,97,53,23,-19
-60,-28,32,44,-46,2,46,150,117,72,33,-14
-63,-22,41,42,-51,9,45,175,136,99,59,2
-43,-4,40,24,-42,18,45,214,173,133,88,21
-1,44,45,-22,-24,44,45,247,214,176,117,43
23,67,44,-46,-11,55,44,284,256,218,152,67
41,97,56,-69,-8,76,37,311,293,257,186,98
68,135,67,-102,0,101,32,338,330,301,224,133
80,149,68,-115,6,108,26,366,362,336,260,164
120,195,75,-158,23,135,21,380,400,375,300,201
143,222,78,-183,32,150,20,374,405,405,325,222
128,201,73,-165,27,137,20,344,375,386,314,213
113,178,65,-146,24,121,20,288,320,321,269,187
76,135,60,-106,8,97,21,211,225,229,195,138
26,78,52,-53,-13,65,31,131,129,134,115,79
-15,32,47,-9,-31,39,33,71,51,60,56,31
-24,13,37,5,-31,25,29,30,3,14,11,-5
-15,5,20,5,-17,12,30,0,-23,-19,-30,-24
-18,-3,15,10,-16,5,30,-23,-35,-42,-45,-25
-22,-9,13,16,-17,2,30,-39,-43,-47,-58,-25
-37,-27,9,32,-23,-9,30,-40,-51,-52,-67,-25
-30,-23,7,26,-18,-8,25,-40,-50,-64,-64,-26
-29,-25,4,27,-17,-10,25,-40,-47,-60,-63,-31
-27,-18,9,22,-18,-4,24,-40,-45,-52,-59,-30
-8,7,15,0,-12,11,20,-40,-45,-46,-61,-30
-8,12,20,-2,-15,16,20,-37,-42,-39,-56,-30
-8,20,27,-6,-18,23,23,-34,-39,-35,-55,-30
-5,24,29,-9,-17,26,25,-31,-36,-35,-55,-30
-6,18,25,-7,-16,21,25,-29,-34,-35,-50,-30
-17,8,25,4,-21,16,29,-25,-30,-35,-50,-30
4,27,23,-16,-9,25,30,-26,-31,-35,-51,-30
20,40,19,-30,0,29,30,-31,-35,-35,-56,-30
18,38,20,-28,-1,29,30,-30,-37,-39,-61,-30
3,23,20,-13,-9,21,30,-31,-41,-46,-64,-33
22,42,20,-32,1,31,30,-29,-36,-52,-69,-36
37,57,20,-47,8,38,30,-31,-35,-59,-70,-39
1,21,20,-11,-9,20,30,-29,-34,-63,-70,-41
20,40,20,-30,-1,30,28,-33,-38,-66,-71,-47
-7,12,19,-3,-12,15,22,-48,-53,-69,-75,-54
-25,-10,15,17,-20,2,17,-51,-56,-72,-74,-55
-9,3,13,3,-11,8,14,-50,-58,-75,-78,-55
-8,2,10,3,-9,5,8,-50,-62,-76,-80,-60
2,8,6,-5,-3,7,5,-50,-64,-80,-80,-60
7,11,5,-10,1,8,10,-50,-67,-80,-80,-61
24,26,2,-25,11,13,10,-50,-70,-82,-80,-65
3,0,-3,-1,3,-1,10,-50,-70,-86,-81,-65
3,-3,-7,0,5,-5,10,-50,-72,-85,-79,-65
12,2,-10,-7,11,-3,9,-50,-75,-89,-82,-65
26,15,-10,-20,18,2,13,-49,-75,-90,-76,-65
10,0,-10,-5,10,-5,15,-55,-78,-90,-79,-69
-8,-19,-10,13,1,-14,15,-57,-82,-90,-96,-70
24,14,-10,-19,17,2,15,-54,-84,-90,-95,-70
7,0,-7,-3,7,-3,15,-55,-89,-90,-93,-74
17,9,-8,-13,12,1,20,-55,-89,-90,-90,-75
12,1,-11,-7,12,-5,20,-55,-84,-90,-90,-74
-7,-17,-9,12,1,-13,20,-54,-86,-90,-88,-70
-14,-25,-11,20,-2,-18,20,-49,-82,-90,-84,-70
-37,-46,-9,42,-14,-27,20,-44,-80,-90,-86,-68
-28,-31,-2,30,-13,-16,18,-40,-80,-86,-81,-64
-25,-23,2,24,-13,-10,12,-34,-76,-85,-80,-66
-12,-1,10,6,-11,4,9,-31,-70,-83,-81,-61
4,15,11,-10,-4,13,4,-23,-64,-79,-72,-55
5,38,33,-22,-14,35,28,-8,-58,-80,-64,-49
10,74,64,-42,-27,68,52,4,-43,-62,-55,-44
43,104,61,-74,-9,82,46,17,-36,-52,-51,-38
61,110,49,-86,5,79,16,9,-45,-57,-56,-36
43,67,25,-55,9,46,-22,-12,-44,-54,-54,-33
42,42,-1,-42,21,20,-26,-27,-54,-67,-56,-32
40,30,-11,-35,25,9,-16,-33,-62,-73,-54,-28
1,5,3,-3,-1,4,-15,-42,-78,-90,-66,-42
-48,-35,13,41,-30,-11,-6,-45,-95,-110,-89,-77
-49,-45,4,47,-26,-21,-7,-58,-98,-108,-87,-86
-49,-51,-2,50,-24,-26,0,-51,-110,-123,-95,-90
-54,-64,-11,59,-21,-37,2,-41,-89,-107,-82,-85
-52,-88,-36,70,-8,-62,5,-47,-103,-123,-91,-86
-26,-114,-88,70,31,-100,12,-20,-74,-98,-79,-83
-48,-129,-81,89,16,-105,14,-45,-84,-110,-79,-87
-82,-163,-81,123,0,-122,107,129,33,-20,-44,-79
-11,-47,-35,29,12,-41,56,11,92,47,20,-21
184,131,-53,-158,118,39,-316,-395,57,252,371,329
467,402,-65,-434,266,168,-873,-598,254,761,1048,974
346,399,53,-373,146,226,-979,-945,-309,103,597,843
52,-88,-139,18,96,-114,-490,-702,-643,-523,-194,170
-5,-210,-205,107,100,-207,-165,-188,-192,-163,-109,4
-58,-136,-79,97,11,-107,-17,-78,-95,-94,-74,-22
-74,-165,-91,120,8,-128,49,-3,-38,-52,-67,-61
-73,-138,-66,106,-3,-102,51,1,-31,-43,-48,-49
-73,-148,-75,111,1,-112,72,38,-37,-50,-60,-60
-69,-136,-67,103,-1,-102,58,48,-15,-24,-39,-51
-59,-123,-64,92,3,-94,63,41,-24,-37,-50,-58
-49,-115,-66,82,8,-90,59,49,2,-15,-33,-52
-57,-114,-58,85,1,-86,60,42,0,-22,-37,-51
-56,-116,-60,86,2,-88,60,58,18,-8,-27,-48
-61,-114,-53,88,-4,-84,59,67,18,-8,-25,-44
-62,-115,-53,88,-4,-83,61,74,27,1,-20,-42
-68,-117,-49,92,-9,-82,59,81,31,5,-15,-39
-52,-99,-47,76,-2,-73,61,96,36,14,-11,-37
-58,-100,-42,79,-8,-71,60,93,47,27,-4,-29
-78,-117,-39,97,-19,-78,60,113,65,39,3,-26
-64,-99,-35,82,-14,-67,61,137,90,50,8,-19
-41,-73,-32,57,-4,-53,59,144,83,62,19,-14
-29,-56,-27,42,0,-41,63,176,129,89,43,-9
-33,-58,-25,46,-4,-41,57,197,143,115,57,2
-24,-37,-13,30,-5,-25,63,220,189,144,91,23
10,-2,-12,-4,11,-7,57,259,228,185,127,51
20,19,0,-19,10,9,55,281,253,221,158,72
42,46,4,-44,19,25,49,307,326,263,193,98
89,103,14,-96,37,58,35,328,306,305,222,126
37,67,30,-52,4,48,44,353,420,322,264,159
-42,-13,29,27,-36,8,15,363,326,373,291,185
-57,2,59,27,-58,30,49,349,473,356,310,189
104,1,-103,-53,103,-51,-89,319,285,369,290,190
143,-3,-146,-70,144,-74,-117,248,361,262,228,142
-10,3,13,3,-11,8,-178,209,253,215,156,153
-44,-3,41,24,-43,19,-271,209,-341,305,106,247
