I,II,III,aVR,aVL,aVF,V1,V2,V3,V4,V5,V6
21,30,9,-25,6,19,65,15,65,42,73,313
8,23,15,-16,-4,19,65,11,61,28,55,300
-38,-5,33,21,-35,14,65,-2,48,28,39,293
-64,-35,29,50,-46,-3,65,-13,37,26,37,290
-64,-34,30,49,-46,-2,65,-20,30,18,33,282
-60,-36,24,47,-41,-6,65,-20,30,14,29,276
-60,-35,26,47,-43,-4,70,-20,29,8,26,269
-59,-35,24,47,-41,-6,70,-18,25,5,22,263
-61,-35,26,47,-43,-4,71,-14,25,2,20,260
-58,-36,22,46,-40,-7,75,-16,23,0,16,260
-72,-50,21,61,-46,-14,75,-11,19,-4,15,257
-77,-44,33,60,-54,-5,73,-10,21,-5,10,254
-36,-27,9,31,-22,-8,69,-10,19,-2,10,254
-47,-20,27,33,-37,3,71,-5,22,1,17,264
-71,-15,57,43,-64,20,66,-5,34,3,15,277
-51,-10,41,30,-46,15,65,-4,36,7,26,278
-42,-7,35,24,-38,14,65,-7,34,9,26,273
-35,1,36,17,-35,18,59,3,31,12,31,282
-41,-8,33,24,-37,12,69,10,30,22,48,296
-64,-26,38,45,-51,6,74,3,29,20,40,291
-65,-22,44,43,-54,10,67,-1,24,15,39,288
-61,-15,46,38,-53,15,62,-7,25,13,34,285
-51,-11,40,31,-45,15,57,-14,25,8,30,279
-43,-5,38,24,-41,16,50,-12,24,4,30,283
-33,5,39,13,-36,22,60,-2,37,12,29,285
12,34,22,-23,-5,27,70,8,55,27,48,303
26,69,43,-48,-8,56,60,24,69,40,60,322
16,76,60,-46,-23,68,55,21,68,38,54,317
5,74,69,-40,-32,71,43,-18,53,28,50,314
22,76,54,-50,-17,65,15,-43,40,20,46,311
51,73,22,-62,14,47,-14,-56,16,10,40,304
55,78,23,-67,16,50,-23,-74,2,3,38,308
34,44,10,-39,12,27,-2,-68,-4,-8,30,306
-11,10,21,0,-16,16,22,-63,-4,-14,26,298
-40,-15,25,27,-32,5,41,-49,-5,-25,9,273
-98,-37,61,68,-79,11,46,-53,-15,-36,4,269
-114,-51,63,82,-88,6,49,-66,-28,-53,-14,259
-116,-52,64,84,-90,5,58,-59,-15,-45,-23,258
-106,-45,61,76,-84,8,46,-43,-11,-40,-23,255
-111,-44,66,77,-88,11,68,-27,-2,-40,-19,241
-198,76,274,61,-236,174,210,151,183,112,75,295
37,287,250,-162,-107,268,360,568,555,522,415,526
1078,792,-286,-935,682,253,15,455,737,1068,1314,1329
2025,898,-1127,-1462,1576,-114,-793,-573,-23,532,1201,1474
1386,155,-1230,-770,1308,-537,-1090,-1443,-1004,-719,-159,484
399,-203,-601,-98,500,-402,-685,-1154,-891,-815,-479,112
145,-118,-263,-14,204,-190,-237,-418,-338,-332,-168,239
-59,-77,-18,69,-20,-47,6,-89,-61,-98,-86,243
-111,-57,53,84,-82,-2,100,22,24,-19,-22,256
-107,-61,45,83,-76,-8,122,52,35,-24,-24,245
-122,-43,79,82,-100,18,137,77,67,1,-6,253
-99,-41,58,69,-78,9,142,98,69,1,-7,248
-91,-29,62,60,-76,17,137,107,73,17,4,252
-82,-20,62,51,-72,20,136,120,84,25,9,257
-107,-14,93,60,-100,39,132,122,88,34,16,258
-83,-1,82,42,-82,40,130,141,96,47,32,258
-75,2,76,36,-76,39,126,148,105,50,39,270
-59,14,73,22,-66,43,124,156,119,73,50,288
-25,37,62,-6,-43,49,137,178,140,92,65,300
-4,57,61,-27,-32,59,140,210,166,121,98,318
42,89,47,-66,-2,68,134,239,191,147,117,333
57,108,51,-83,3,80,132,271,224,186,155,363
92,138,46,-116,23,92,127,304,256,229,197,398
164,194,31,-179,66,112,125,321,279,254,223,426
191,223,32,-207,79,127,116,329,286,284,262,464
205,231,25,-218,89,128,104,315,279,285,272,483
253,242,-11,-247,132,115,93,289,272,270,270,472
253,231,-22,-242,138,104,82,248,241,248,253,460
202,190,-12,-196,106,89,76,187,191,202,207,425
158,140,-18,-149,87,61,69,134,150,149,161,387
76,90,14,-83,30,52,63,81,109,93,110,358
6,50,44,-28,-20,47,55,39,71,53,65,323
-29,15,44,7,-37,29,51,17,46,28,36,300
-61,-15,46,38,-53,15,55,5,35,12,21,292
-86,-36,49,61,-68,6,55,5,33,1,15,284
-101,-41,60,70,-80,9,56,5,30,-14,10,276
-105,-39,66,71,-85,13,60,5,27,-22,4,269
-105,-41,63,73,-84,11,60,5,25,-19,-1,264
-99,-38,60,68,-79,11,57,5,22,-16,-8,261
-102,-45,57,73,-80,6,55,5,20,-13,-16,257
-114,-60,55,87,-84,-2,55,5,20,-10,-14,253
-118,-60,57,89,-87,-1,55,5,17,-9,-11,250
-118,-60,59,89,-89,0,55,5,14,-5,-9,246
-108,-60,47,84,-78,-6,54,5,15,-5,-5,245
-102,-60,42,81,-72,-9,61,10,23,-3,-6,245
-90,-58,32,74,-61,-13,64,10,26,1,-19,240
-80,-53,27,66,-53,-13,57,10,24,-1,-22,240
-113,-50,62,81,-88,6,53,10,25,4,-14,241
-116,-47,69,81,-92,11,46,11,25,5,-7,248
-102,-42,59,72,-80,8,41,7,25,5,-1,256
-95,-40,56,67,-75,8,44,5,25,9,7,253
-86,-35,51,61,-68,7,45,5,24,10,17,250
-101,-36,65,68,-83,15,45,1,28,8,15,247
-96,-31,65,63,-81,17,50,0,36,5,14,244
-94,-31,63,62,-79,16,50,0,34,5,15,247
-83,-24,60,53,-71,18,52,18,40,11,15,251
-51,9,60,20,-56,34,48,31,51,24,15,256
-43,29,72,7,-58,50,37,16,59,33,20,257
-49,30,78,9,-64,54,28,4,54,26,18,252
-67,31,97,18,-82,63,16,-13,37,18,13,251
-57,30,87,13,-72,58,-2,-30,21,10,8,246
-17,33,49,-9,-33,41,-24,-54,4,0,4,245
13,27,14,-20,-1,20,-33,-60,-8,-9,0,243
-33,-1,32,17,-33,15,-30,-65,-15,-26,-8,231
-73,-16,57,45,-64,20,-7,-60,-25,-41,-14,228
-84,-41,43,62,-63,1,29,-27,-26,-38,-28,211
-121,-67,54,94,-87,-7,30,-39,-18,-39,-33,211
-127,-93,33,109,-80,-30,30,-38,-22,-58,-54,188
-143,-71,72,107,-107,0,31,-36,-10,-41,-35,189
-129,-82,47,105,-88,-17,31,-32,-20,-61,-60,169
-185,-65,120,124,-152,28,90,16,36,-9,-30,178
-225,84,308,70,-267,196,256,281,275,205,92,237
252,353,101,-303,75,227,313,656,661,723,635,638
1448,876,-573,-1162,1010,151,-213,286,626,1089,1477,1474
1902,719,-1183,-1310,1542,-232,-924,-831,-334,163,812,1171
867,14,-853,-440,860,-419,-960,-1394,-1000,-804,-380,261
145,-159,-304,7,225,-231,-513,-888,-680,-611,-369,160
-12,-128,-116,70,52,-121,-146,-277,-235,-239,-157,160
-146,-92,54,119,-99,-19,46,-26,-34,-68,-85,149
-146,-84,61,115,-103,-11,98,63,11,-29,-54,154
-173,-96,78,134,-126,-9,103,69,32,-19,-57,133
-155,-85,71,120,-113,-7,119,92,47,-4,-38,139
-162,-91,71,127,-116,-10,120,94,51,-5,-43,121
-171,-81,90,126,-130,4,123,105,61,14,-26,133
-160,-87,73,124,-116,-7,126,119,60,16,-28,130
-149,-73,76,111,-112,1,129,122,79,35,-16,144
-124,-60,64,91,-94,2,131,142,87,47,-9,145
-110,-47,62,78,-86,7,129,155,90,55,4,144
-86,-30,55,58,-70,12,130,162,109,76,16,145
-69,-20,50,44,-59,15,130,185,123,93,28,149
-36,10,45,13,-41,27,128,211,139,117,62,174
15,49,34,-33,-10,42,119,233,172,149,91,193
72,77,5,-74,33,41,113,264,199,188,125,212
111,113,2,-112,55,57,105,293,228,221,162,235
145,147,2,-146,72,74,97,303,249,249,204,267
212,175,-37,-193,124,69,92,293,241,264,233,286
248,198,-50,-222,149,73,83,282,232,253,236,277
232,190,-42,-210,136,73,73,261,223,247,224,271
199,163,-36,-181,117,63,63,220,211,222,192,257
156,126,-29,-141,93,48,52,163,176,180,157,227
103,82,-21,-92,62,30,50,103,123,137,110,180
35,31,-4,-33,20,13,50,63,84,87,60,131
-29,-10,19,20,-24,4,46,33,57,49,20,100
-76,-35,41,56,-58,3,44,7,39,27,-8,77
-103,-49,54,76,-79,2,46,-1,22,14,-23,58
-114,-55,60,84,-87,2,49,1,11,9,-38,44
-112,-59,53,85,-82,-3,50,-3,10,4,-45,32
-114,-69,45,91,-79,-12,50,-5,10,-2,-45,23
-122,-81,41,101,-81,-20,50,-5,10,-8,-45,15
-112,-82,29,97,-70,-26,50,-9,10,-8,-48,6
-126,-86,40,106,-83,-22,52,-11,11,-4,-50,0
-141,-85,56,112,-98,-14,57,-9,15,-6,-46,-10
-142,-86,55,113,-98,-16,59,-5,15,-1,-43,-19
-145,-92,53,118,-99,-19,56,-1,15,0,-41,-26
-137,-87,50,112,-94,-18,53,2,15,0,-37,-36
-134,-85,50,109,-91,-17,50,7,15,4,-35,-35
-130,-81,50,105,-90,-15,47,10,18,8,-33,-35
-133,-76,57,105,-95,-9,45,13,21,17,-30,-41
-135,-74,61,104,-98,-6,45,16,18,28,-30,-46
-129,-69,60,99,-94,-5,45,14,15,35,-26,-45
-128,-68,60,98,-93,-4,45,16,12,34,-25,-47
-123,-62,61,93,-92,0,45,14,9,38,-26,-63
-121,-62,59,92,-90,-2,46,19,25,41,-15,-62
-100,-44,56,72,-78,6,50,37,46,38,2,-46
-56,-11,45,33,-50,17,42,44,53,53,7,-43
-62,-11,51,36,-57,20,36,38,46,55,5,-53
-94,-8,85,51,-89,38,29,13,36,46,4,-61
-70,5,75,32,-73,40,14,-4,28,43,3,-59
-48,6,54,20,-51,30,-3,-13,18,35,-2,-66
-31,23,54,4,-43,39,-23,-36,12,32,2,-62
-38,2,40,18,-39,21,-22,-43,2,18,-8,-80
-67,-28,39,47,-53,6,-14,-39,-4,11,-18,-103
-77,-52,25,64,-51,-13,-6,-41,-13,-1,-23,-113
-137,-98,39,117,-88,-29,27,-38,-18,-16,-51,-145
-168,-106,62,136,-115,-22,41,-42,-30,-30,-74,-170
-170,-125,45,147,-107,-40,39,-37,-37,-48,-89,-181
-193,-124,69,158,-131,-27,42,-33,-22,-41,-63,-167
-171,-133,38,152,-104,-47,34,-20,-36,-56,-93,-202
-235,-61,174,148,-204,56,98,50,57,31,-51,-170
-241,67,308,86,-274,187,290,371,336,269,92,-119
391,427,36,-409,177,232,249,638,721,885,830,449
1568,926,-642,-1247,1105,142,-403,64,519,1108,1584,1248
1650,554,-1096,-1102,1373,-271,-998,-997,-514,-25,589,657
554,-88,-642,-233,598,-365,-873,-1310,-982,-810,-462,-215
33,-178,-211,73,122,-195,-440,-716,-585,-518,-331,-272
-99,-148,-49,124,-25,-99,-116,-200,-200,-200,-190,-285
-207,-127,80,167,-144,-23,38,-21,-40,-57,-124,-278
-163,-127,36,145,-99,-45,74,53,-8,-34,-106,-279
-201,-122,78,161,-139,-22,84,69,9,-16,-102,-283
-196,-112,83,154,-139,-14,87,90,15,-7,-88,-276
-187,-114,73,150,-130,-20,90,85,19,1,-90,-283
-197,-125,72,161,-135,-26,89,105,30,14,-75,-278
-200,-129,70,164,-135,-29,82,111,31,15,-73,-293
-201,-118,84,159,-142,-17,78,109,42,27,-58,-285
-181,-111,71,146,-126,-20,73,121,46,28,-51,-282
-165,-94,71,129,-117,-11,68,128,61,47,-39,-277
-147,-82,65,114,-106,-8,66,153,81,67,-23,-272
-121,-63,58,92,-89,-3,68,171,90,84,-5,-269
-95,-30,65,62,-79,17,77,201,120,118,26,-253
-57,8,65,24,-61,36,77,228,146,150,53,-227
-6,43,49,-18,-28,46,68,251,172,184,99,-198
43,68,25,-56,9,46,60,283,212,225,148,-166
102,101,-1,-101,51,49,50,284,217,250,180,-140
138,129,-9,-133,73,60,40,271,205,265,196,-115
152,122,-31,-137,91,45,30,255,194,260,189,-110
148,107,-41,-127,95,32,15,220,182,231,181,-135
128,91,-37,-110,83,27,-4,173,152,197,153,-157
73,51,-21,-62,47,15,-6,120,100,153,105,-200
-5,8,13,-2,-9,10,-8,68,62,106,56,-246
-50,-19,32,34,-40,6,-21,33,18,60,16,-285
-125,-66,59,95,-92,-3,-20,8,-10,20,-19,-322
-158,-106,52,132,-105,-27,-19,-13,-13,-9,-59,-350
-158,-114,44,136,-100,-35,-16,-32,-33,-25,-72,-363
-185,-127,58,156,-121,-35,-14,-37,-45,-30,-76,-366
-189,-137,52,162,-120,-42,-17,-32,-46,-30,-93,-382
-185,-134,51,160,-117,-41,-20,-31,-49,-29,-96,-396
-182,-135,47,158,-114,-44,-17,-27,-59,-40,-95,-399
-181,-136,45,158,-113,-45,-15,-24,-66,-44,-95,-400
-174,-133,40,153,-107,-46,-15,-31,-58,-37,-95,-421
-197,-145,52,171,-124,-47,-11,-34,-55,-33,-94,-437
-212,-156,56,184,-134,-50,-9,-25,-50,-26,-90,-433
-209,-154,54,181,-131,-50,-12,-20,-45,-21,-88,-436
-220,-163,56,191,-138,-54,-15,-13,-42,-17,-85,-434
-215,-163,52,188,-133,-55,-15,-5,-37,-14,-82,-436
-223,-155,68,189,-145,-43,-15,-17,-34,-11,-80,-448
-197,-151,47,174,-122,-52,-15,-27,-31,-9,-77,-450
-206,-145,62,175,-134,-41,-19,-24,-25,-4,-74,-444
-237,-142,94,189,-165,-24,-20,-26,-28,-9,-71,-442
-209,-138,71,173,-140,-33,-20,-25,-36,-16,-68,-436
-205,-135,69,170,-136,-33,-19,-25,-35,-15,-65,-435
-198,-130,69,164,-133,-31,-15,-22,-36,-14,-64,-447
-203,-128,76,165,-139,-26,-16,-17,-35,-10,-58,-446
-206,-135,71,170,-138,-32,-12,-15,-35,-10,-53,-435
-182,-113,69,147,-125,-21,-10,-9,-32,-8,-47,-428
-178,-86,93,132,-136,4,-9,-7,-17,-2,-41,-421
-172,-84,89,128,-130,2,-15,-1,-11,2,-36,-413
-176,-83,93,130,-134,5,-22,-8,-5,6,-35,-408
-184,-77,107,130,-145,14,-34,-36,-9,11,-37,-399
-165,-73,92,119,-128,10,-62,-60,-25,4,-51,-395
-140,-71,69,105,-104,-1,-74,-85,-43,-2,-43,-386
-103,-61,42,81,-72,-9,-69,-99,-59,-10,-42,-389
-122,-81,41,101,-81,-20,-63,-98,-60,-35,-70,-420
-166,-105,61,135,-114,-22,-56,-99,-71,-43,-56,-411
-180,-131,49,155,-114,-40,-50,-89,-84,-51,-74,-433
-228,-149,79,188,-154,-34,-42,-88,-76,-49,-95,-456
-243,-175,68,209,-155,-53,-37,-79,-82,-62,-112,-472
-239,-173,66,206,-152,-54,-29,-74,-71,-57,-118,-479
-219,-162,57,190,-138,-52,-19,-74,-79,-63,-121,-482
-249,-179,70,214,-159,-55,15,-47,-58,-53,-115,-490
-341,-46,295,193,-318,124,139,131,135,100,-39,-447
-118,152,271,-17,-195,211,291,532,527,534,312,-221
834,699,-135,-766,484,282,-49,405,774,1215,1380,705
1688,887,-800,-1287,1244,44,-840,-565,67,791,1433,1000
1109,127,-982,-618,1046,-427,-1106,-1345,-934,-541,-15,-29
188,-274,-463,43,326,-368,-739,-1125,-925,-801,-519,-524
-57,-222,-165,140,54,-193,-315,-450,-410,-352,-253,-493
-197,-196,1,196,-99,-97,-65,-118,-121,-131,-171,-527
-240,-168,72,204,-156,-47,9,-20,-47,-67,-135,-504
-230,-177,52,203,-141,-62,30,14,-33,-53,-148,-518
-245,-164,81,204,-163,-41,44,29,-18,-31,-130,-504
-246,-167,79,206,-162,-44,45,49,-12,-25,-130,-507
-249,-160,89,204,-169,-35,45,56,-1,-15,-117,-502
-239,-157,82,198,-161,-37,48,66,2,-11,-107,-499
-232,-148,84,190,-158,-32,50,77,14,-6,-98,-499
-212,-136,75,174,-143,-30,50,94,28,5,-79,-487
-197,-129,69,163,-133,-30,55,105,40,15,-70,-483
-177,-114,64,145,-120,-25,55,119,52,34,-52,-475
-160,-105,55,132,-107,-25,57,141,70,57,-41,-465
-137,-87,50,112,-93,-18,61,164,96,82,-23,-449
-104,-57,47,81,-75,-5,59,202,130,118,14,-419
-89,-12,77,51,-83,32,53,239,169,155,54,-394
-39,23,62,8,-51,42,45,260,197,198,94,-366
19,52,33,-36,-7,42,37,275,228,235,134,-325
51,93,42,-73,4,67,30,263,230,253,169,-313
119,109,-9,-114,64,50,22,257,216,263,180,-316
120,111,-9,-115,64,51,8,240,210,249,170,-314
76,91,16,-84,30,53,-12,188,189,221,158,-314
54,57,3,-56,26,29,-33,141,148,170,121,-322
-13,8,21,2,-17,14,-38,80,96,107,60,-358
-68,-42,26,55,-47,-8,-35,30,51,55,5,-405
-119,-67,52,93,-85,-7,-35,-14,15,7,-39,-438
-179,-106,72,142,-125,-17,-32,-46,-7,-27,-71,-465
-202,-133,69,168,-135,-32,-29,-45,-23,-43,-89,-488
-208,-138,69,173,-138,-34,-31,-55,-41,-53,-101,-497
-203,-138,64,170,-133,-37,-35,-63,-46,-61,-119,-507
-197,-132,65,164,-131,-33,-32,-64,-45,-59,-127,-511
-193,-131,62,162,-128,-34,-26,-61,-44,-64,-124,-509
-178,-124,54,151,-115,-35,-24,-56,-56,-71,-126,-507
-174,-129,45,151,-109,-42,-16,-54,-67,-70,-124,-503
-210,-144,66,177,-138,-39,-20,-49,-65,-70,-126,-506
-227,-145,82,186,-154,-31,-31,-46,-63,-71,-127,-510
-217,-145,73,181,-144,-36,-25,-45,-60,-69,-123,-509
-211,-142,69,176,-140,-36,-20,-46,-60,-75,-120,-504
-206,-139,66,172,-136,-36,-17,-45,-57,-85,-116,-502
-198,-140,57,169,-127,-41,-11,-45,-54,-77,-113,-497
-199,-133,66,166,-132,-33,-10,-46,-52,-71,-109,-494
-216,-125,91,170,-153,-17,-10,-44,-48,-65,-123,-506
-206,-117,89,161,-148,-13,-10,-46,-46,-57,-137,-510
-193,-110,83,151,-138,-13,-10,-41,-44,-57,-124,-503
-186,-101,85,143,-135,-8,-10,-35,-33,-54,-110,-499
-162,-85,78,124,-120,-3,-9,-29,-20,-45,-98,-489
-142,-57,85,99,-113,14,-5,-22,-10,-36,-77,-466
-113,-28,85,70,-99,28,-4,-20,-7,-19,-54,-455
-110,-18,92,64,-101,37,2,-1,-2,-7,-41,-453
-130,-12,118,71,-123,53,-7,-12,-1,-16,-56,-450
-101,-2,99,51,-100,48,-39,-59,-17,-12,-69,-451
-77,3,80,37,-79,41,-58,-77,-30,-26,-71,-456
-62,16,78,22,-70,47,-63,-80,-50,-43,-64,-453
-55,10,65,22,-60,37,-56,-84,-63,-50,-66,-459
-94,-20,74,57,-84,27,-44,-90,-59,-65,-83,-461
-118,-41,77,79,-97,18,-36,-86,-60,-63,-88,-456
-151,-74,77,113,-114,1,-26,-78,-63,-82,-111,-479
-176,-90,86,133,-131,-2,-22,-80,-87,-91,-120,-496
-176,-108,69,142,-123,-20,-13,-67,-100,-105,-137,-506
-188,-91,97,140,-143,3,-8,-74,-88,-101,-136,-491
-163,-109,53,136,-108,-28,0,-67,-106,-111,-157,-513
-224,-59,165,141,-194,53,60,-15,-14,-60,-120,-482
-257,92,350,82,-304,221,238,282,248,152,-10,-446
267,419,152,-343,57,285,269,611,664,767,669,61
1399,1002,-397,-1201,898,303,-347,84,584,1184,1606,983
1725,710,-1014,-1217,1370,-152,-1039,-1010,-459,128,805,568
765,-62,-827,-352,796,-444,-975,-1389,-1084,-887,-453,-408
140,-170,-309,16,225,-240,-509,-818,-699,-640,-413,-527
-17,-106,-88,62,36,-97,-163,-249,-254,-262,-207,-515
-173,-80,93,127,-133,7,7,-43,-78,-113,-156,-514
-157,-71,86,114,-121,7,58,35,-41,-90,-138,-499
-170,-67,103,118,-136,18,79,47,-25,-79,-139,-503
-170,-57,113,113,-142,28,87,61,-14,-57,-120,-486
-155,-60,95,107,-124,17,85,75,-7,-55,-123,-488
-150,-50,100,99,-125,25,91,80,3,-41,-107,-472
-133,-51,82,91,-107,16,89,83,5,-41,-104,-470
-129,-43,85,86,-106,21,90,107,23,-26,-87,-459
-115,-35,80,75,-97,22,90,121,40,-16,-77,-451
-106,-8,98,57,-102,45,90,134,49,1,-63,-439
-99,11,110,44,-105,60,91,154,68,24,-43,-423
-72,31,103,20,-88,67,88,173,89,44,-21,-403
-37,62,98,-13,-68,80,99,209,119,77,8,-375
-4,86,91,-41,-48,88,105,240,154,118,37,-344
52,132,80,-92,-14,106,98,270,189,158,86,-305
112,179,67,-145,22,122,95,297,216,197,127,-265
149,209,60,-179,44,134,90,315,238,231,166,-229
186,246,60,-216,62,153,86,310,243,250,194,-196
209,267,59,-238,75,163,78,293,226,250,180,-178
199,254,55,-227,72,155,61,252,208,226,168,-184
176,230,54,-204,61,142,45,193,163,175,142,-212
139,198,59,-169,40,128,40,135,110,122,94,-246
92,147,56,-120,17,101,38,85,71,70,41,-287
29,95,66,-62,-19,80,34,46,30,21,-2,-320
-21,56,77,-18,-49,66,32,3,-10,-21,-35,-346
-41,32,73,4,-57,52,29,-15,-36,-51,-65,-369
-47,21,68,13,-58,44,30,-19,-39,-59,-80,-374
-68,14,82,26,-75,48,30,-35,-40,-70,-88,-377
-96,7,103,44,-100,55,30,-36,-49,-74,-93,-380
-83,1,84,41,-84,42,30,-34,-57,-67,-93,-379
-82,-6,76,44,-79,35,29,-38,-63,-80,-100,-383
-97,-10,86,53,-91,37,32,-45,-66,-87,-110,-385
-93,-10,83,51,-88,36,35,-40,-65,-84,-110,-384
-90,-10,80,50,-85,35,35,-35,-65,-86,-110,-381
-91,-14,78,52,-84,32,35,-32,-65,-84,-110,-378
-90,-15,74,52,-82,29,35,-25,-64,-86,-110,-375
-89,-15,74,51,-81,29,35,-31,-61,-87,-108,-372
-108,-16,92,62,-99,37,31,-36,-58,-85,-104,-370
-113,-17,96,64,-104,39,29,-35,-56,-85,-102,-368
-107,-12,95,59,-101,41,30,-33,-52,-82,-99,-361
-109,-9,100,59,-104,45,30,-30,-50,-79,-96,-356
-106,-6,100,56,-103,46,31,-30,-52,-81,-94,-351
-100,0,99,50,-99,49,28,-34,-60,-84,-97,-345
-92,-2,89,47,-90,43,25,-38,-64,-85,-105,-340
-87,-4,83,45,-85,40,25,-35,-67,-88,-100,-335
-78,-8,69,43,-73,30,25,-35,-70,-91,-92,-330
-75,12,87,31,-81,49,25,-43,-68,-87,-87,-327
-78,36,115,21,-97,75,26,-39,-57,-74,-79,-321
-72,36,108,18,-90,71,28,-28,-47,-62,-74,-302
-50,69,119,-10,-85,94,21,-23,-38,-59,-75,-286
-37,88,125,-26,-81,107,10,-11,-25,-61,-74,-279
-35,78,114,-22,-74,96,0,-32,-28,-59,-76,-269
-32,79,111,-24,-72,95,-12,-54,-43,-64,-74,-266
-28,72,101,-22,-65,86,-35,-69,-65,-80,-76,-271
-25,70,95,-22,-60,82,-44,-96,-90,-83,-79,-270
-13,68,80,-28,-47,74,-35,-98,-101,-91,-78,-269
-15,56,71,-21,-43,63,-27,-102,-105,-102,-88,-271
-41,39,80,1,-61,60,-20,-94,-105,-97,-88,-267
-68,3,71,32,-70,37,-12,-81,-105,-104,-106,-278
-106,-7,99,56,-102,46,-6,-81,-106,-120,-115,-285
-126,-36,90,81,-108,27,-2,-67,-116,-139,-139,-311
-134,-32,103,83,-118,35,7,-68,-114,-121,-128,-299
-104,-32,72,68,-88,19,4,-55,-114,-122,-130,-304
-163,-22,142,92,-152,60,50,-30,-63,-97,-123,-297
-232,122,354,55,-294,238,233,231,169,91,-16,-226
165,401,237,-283,-36,319,321,595,576,610,499,148
1280,983,-296,-1131,788,343,-220,169,590,1097,1453,1035
1933,843,-1089,-1388,1510,-123,-1031,-930,-379,261,972,885
1101,-12,-1114,-544,1107,-563,-1100,-1481,-1184,-927,-398,-145
318,-210,-528,-54,423,-368,-605,-977,-870,-811,-507,-364
104,-90,-194,-7,149,-142,-202,-325,-346,-344,-233,-285
-110,-52,58,81,-83,3,2,-83,-130,-168,-167,-275
-121,-29,92,75,-107,32,66,2,-70,-115,-130,-250
-134,-34,100,84,-117,33,92,22,-51,-109,-136,-260
-138,-19,118,79,-128,49,104,60,-26,-78,-108,-240
-123,-21,102,72,-112,40,111,72,-23,-77,-110,-243
-123,-10,113,66,-118,51,117,73,-15,-64,-94,-231
-108,-9,99,58,-103,45,114,86,-10,-58,-90,-227
-107,2,109,52,-108,55,116,86,-6,-51,-81,-218
-100,7,108,46,-104,57,114,101,8,-37,-73,-207
-96,15,111,41,-104,62,117,123,26,-18,-69,-194
-75,37,111,19,-93,73,120,141,39,3,-52,-179
-65,49,114,8,-90,81,122,169,59,21,-28,-164
-36,80,116,-23,-76,98,125,199,87,48,3,-135
-2,109,111,-54,-57,110,130,239,123,91,34,-103
34,134,100,-84,-34,117,128,282,167,137,77,-65
98,186,88,-142,4,137,121,312,192,174,119,-27
148,226,78,-187,35,151,114,325,216,209,156,1
182,246,64,-215,59,155,109,321,229,229,190,42
218,265,47,-242,85,156,93,311,217,232,193,73
231,265,34,-248,98,149,63,267,198,215,176,65
200,237,36,-219,82,136,47,201,157,168,159,52
161,194,33,-178,64,113,37,139,105,114,119,29
110,149,39,-130,35,93,24,70,43,50,66,-7
42,94,52,-68,-5,73,23,17,-9,-7,15,-44
-8,46,54,-20,-31,50,27,-7,-35,-43,-36,-72
-44,21,66,11,-55,43,32,-25,-57,-74,-64,-93
-65,9,74,28,-70,41,35,-42,-68,-90,-75,-101
-63,3,66,30,-64,34,34,-50,-73,-93,-85,-99
-80,-5,75,42,-77,34,38,-52,-82,-99,-89,-100
-73,-9,63,41,-68,27,40,-55,-85,-102,-93,-100
-66,-21,45,44,-55,12,40,-55,-90,-100,-93,-100
-127,-40,87,83,-107,23,36,-50,-97,-100,-88,-98
-126,-40,86,83,-106,23,35,-50,-92,-100,-85,-94
-101,-40,61,70,-81,11,34,-49,-90,-100,-100,-92
-103,-40,62,71,-82,11,31,-45,-87,-101,-106,-89
-98,-40,58,69,-78,9,30,-46,-84,-104,-105,-86
-100,-38,62,69,-80,11,30,-42,-88,-106,-103,-84
-91,-32,58,61,-74,13,40,-40,-89,-103,-105,-80
-90,-28,62,59,-75,17,47,-40,-84,-100,-115,-72
-77,-23,53,50,-65,15,44,-37,-79,-97,-108,-66
-71,-19,52,45,-62,16,47,-34,-73,-94,-102,-59
-80,-14,66,47,-73,26,50,-36,-67,-91,-97,-53
-76,-11,65,43,-70,27,48,-39,-63,-89,-91,-47
-68,-4,64,36,-65,29,44,-40,-59,-85,-86,-39
-61,-1,60,31,-60,29,41,-38,-57,-78,-80,-31
-56,4,60,26,-59,32,35,-30,-54,-71,-76,-23
-54,8,62,23,-58,34,39,-25,-51,-64,-68,-16
-53,18,71,17,-62,44,58,-16,-49,-57,-57,-5
-23,57,80,-17,-52,68,55,-11,-39,-53,-48,8
-2,78,81,-38,-42,79,55,-3,-22,-49,-44,28
-6,73,79,-34,-43,76,63,0,-28,-51,-45,40
-4,76,80,-36,-43,78,32,-42,-46,-50,-45,40
-4,75,79,-35,-42,76,11,-70,-52,-50,-44,40
31,75,44,-53,-7,59,6,-80,-70,-80,-47,39
55,71,16,-63,19,43,-3,-93,-85,-96,-49,42
23,41,18,-33,2,30,-12,-104,-97,-100,-65,35
-29,17,46,6,-38,31,-9,-109,-104,-108,-65,27
-49,-16,33,33,-41,8,24,-78,-107,-113,-71,11
-84,-32,52,58,-68,10,42,-76,-102,-106,-93,4
-125,-50,75,87,-100,13,41,-78,-114,-130,-113,-18
-144,-63,81,103,-112,9,50,-81,-121,-141,-111,-20
-143,-54,89,98,-116,17,47,-81,-108,-127,-104,-5
-141,-65,75,103,-108,5,63,-62,-90,-126,-114,-8
-210,60,270,75,-240,165,199,105,80,10,-46,32
-15,263,278,-124,-147,270,353,501,444,405,267,233
980,786,-193,-883,587,296,26,399,671,1020,1213,1058
1978,969,-1008,-1473,1494,-20,-800,-575,-31,614,1280,1337
1468,189,-1279,-828,1374,-545,-1147,-1443,-1068,-710,-112,343
476,-232,-708,-122,592,-470,-727,-1196,-1018,-927,-579,-116
170,-123,-293,-23,232,-208,-262,-464,-449,-426,-259,16
-30,-63,-33,46,2,-48,-5,-125,-158,-185,-172,7
-105,-37,68,70,-86,15,95,-5,-64,-96,-107,20
-116,-50,66,83,-90,8,107,31,-48,-92,-108,7
-126,-36,90,81,-108,27,132,49,-25,-71,-93,9
-106,-39,67,72,-86,14,129,67,-17,-70,-90,26
-112,-32,80,71,-96,24,130,78,-4,-58,-84,45
-102,-29,73,65,-87,21,130,91,1,-47,-72,47
-99,-24,75,61,-86,25,130,105,10,-37,-64,50
-90,-11,79,50,-84,34,130,119,18,-22,-47,59
-98,-4,94,51,-96,44,130,120,27,-11,-39,64
-71,10,81,30,-76,45,143,150,57,17,-17,85
-52,19,72,16,-63,45,141,179,74,33,6,108
-29,48,77,-10,-53,63,152,198,98,60,28,133
0,73,73,-37,-36,73,155,237,128,92,49,153
28,104,76,-66,-25,90,149,280,160,131,89,182
81,155,74,-118,3,114,148,309,198,178,135,218
123,193,69,-158,27,131,142,329,218,203,164,244
181,231,50,-207,66,140,141,334,227,232,203,286
215,252,37,-233,89,144,128,316,221,233,217,309
216,244,28,-230,94,136,107,280,207,216,211,307
194,219,25,-207,84,122,87,241,183,192,193,301
159,180,21,-170,68,101,74,180,135,138,148,273
129,130,1,-130,64,65,70,112,79,88,101,238
56,80,24,-68,16,52,65,54,21,33,51,200
-7,45,53,-19,-30,49,62,8,-12,-20,6,168
-36,17,53,9,-45,35,56,-13,-33,-50,-17,147
-62,-11,51,36,-57,20,57,-19,-58,-68,-32,138
-89,-26,63,57,-75,18,61,-26,-60,-74,-52,134
-100,-24,76,61,-88,26,60,-34,-62,-70,-56,129
-102,-34,68,68,-85,17,60,-42,-66,-70,-55,125
-107,-41,66,74,-86,12,60,-43,-65,-76,-63,120
-94,-35,60,64,-77,12,60,-39,-65,-81,-66,124
-94,-33,60,64,-77,13,60,-40,-67,-80,-65,125
-87,-28,59,58,-73,15,60,-40,-71,-80,-66,125
-88,-25,63,56,-75,19,60,-40,-70,-80,-71,129
-107,-36,71,71,-89,17,60,-40,-70,-80,-70,130
-105,-41,64,73,-85,11,59,-35,-70,-77,-67,128
-101,-40,61,70,-81,11,64,-35,-70,-71,-64,125
-95,-40,55,68,-75,7,71,-34,-68,-66,-62,125
-93,-40,53,66,-73,6,72,-30,-64,-63,-58,129
-83,-40,44,61,-63,2,70,-30,-62,-56,-58,142
-90,-35,54,62,-72,9,70,-33,-59,-58,-69,151
-112,-30,82,71,-97,26,67,-35,-56,-66,-66,150
-105,-26,79,65,-91,26,65,-36,-54,-65,-59,150
-101,-21,80,61,-91,30,65,-40,-51,-65,-55,155
-97,-17,80,57,-88,31,62,-40,-45,-65,-48,164
-92,-12,80,52,-86,34,59,-34,-41,-66,-45,164
-83,-5,78,44,-81,37,74,-28,-36,-62,-35,165
-62,6,68,28,-66,37,87,-19,-31,-53,-25,173
-33,32,64,0,-49,48,85,-16,-27,-37,-15,193
5,59,54,-32,-25,56,86,-4,-17,-26,-9,214
-24,63,87,-20,-55,74,74,-3,-8,-32,-11,215
-56,58,114,-1,-85,86,51,-38,-15,-28,-9,215
-32,64,96,-16,-64,80,22,-67,-41,-40,-13,215
9,61,53,-35,-22,57,4,-83,-63,-49,-23,214
35,54,20,-45,7,37,5,-87,-71,-54,-17,216
18,39,21,-29,-2,30,5,-91,-84,-77,-26,204
12,32,20,-22,-4,25,7,-98,-88,-83,-32,197
-21,16,37,2,-29,27,32,-87,-92,-95,-40,180
-89,-9,80,49,-84,35,57,-89,-87,-91,-62,175
-104,-41,63,72,-83,11,55,-77,-96,-103,-85,164
-119,-43,77,81,-98,17,57,-81,-100,-111,-79,161
-116,-39,77,77,-96,18,50,-64,-91,-105,-79,157
-138,-64,75,101,-106,5,69,-35,-83,-101,-80,143
-213,74,286,69,-249,180,218,126,91,41,-4,192
5,276,271,-141,-133,273,378,537,462,444,321,420
1020,789,-231,-905,625,279,28,400,655,1025,1254,1243
2009,945,-1064,-1476,1536,-60,-819,-635,-92,544,1227,1448
1433,157,-1276,-795,1354,-559,-1130,-1479,-1093,-747,-157,445
460,-217,-677,-122,569,-447,-699,-1187,-993,-900,-553,31
172,-115,-286,-28,229,-200,-247,-455,-428,-402,-227,163
-41,-73,-32,57,-5,-52,14,-120,-139,-169,-145,157
-100,-32,68,65,-83,18,112,-3,-44,-81,-83,171
-116,-42,75,79,-95,16,126,25,-46,-77,-82,161
-130,-26,104,78,-117,39,144,46,-27,-56,-68,165
-111,-27,85,69,-98,29,149,62,-18,-52,-65,172
-113,-18,96,65,-104,39,156,63,-8,-39,-58,180
-92,-14,79,53,-85,33,155,82,3,-30,-48,188
-89,-6,83,47,-85,38,152,88,11,-25,-38,202
-69,4,73,32,-71,38,150,101,24,-11,-23,207
-61,11,72,25,-67,41,149,111,30,6,-19,215
-36,29,65,3,-51,46,154,129,55,30,-3,227
-19,45,64,-13,-42,55,155,153,81,43,18,244
-22,70,92,-24,-57,80,155,182,101,66,41,264
3,102,99,-53,-48,101,154,215,133,100,67,281
41,137,97,-89,-28,117,160,254,167,141,108,316
93,173,80,-133,7,126,159,290,200,187,148,353
161,213,52,-187,55,132,146,310,226,221,188,393
213,238,25,-226,94,131,136,313,237,239,219,421
244,256,12,-250,116,134,123,302,228,242,229,428
240,251,11,-246,114,131,102,273,208,229,228,417
228,233,5,-231,111,118,87,215,169,195,197,406
205,205,-1,-205,103,102,77,147,120,143,152,393
141,149,8,-145,66,79,64,95,75,93,110,361
76,96,20,-87,28,58,60,46,26,42,62,324
13,52,40,-33,-14,46,60,1,-7,-7,17,286
-25,28,53,-1,-39,40,60,-18,-30,-39,-13,269
-30,18,48,6,-39,33,60,-29,-45,-53,-25,265
-35,13,48,10,-41,30,60,-47,-51,-60,-40,256
-33,10,43,11,-38,26,60,-51,-56,-70,-46,250
-44,4,48,20,-46,26,60,-50,-55,-70,-46,241
-55,3,58,26,-57,30,60,-50,-55,-70,-55,244
-70,-16,53,43,-61,18,60,-50,-55,-70,-55,248
-82,-37,45,60,-63,4,60,-50,-55,-72,-54,245
-73,-34,39,53,-56,2,60,-45,-52,-76,-56,245
-64,-35,29,50,-46,-3,64,-45,-49,-74,-54,245
-58,-30,29,44,-43,0,65,-45,-50,-77,-56,244
-84,-31,53,57,-69,11,65,-45,-45,-85,-54,245
-92,-29,63,60,-77,17,69,-45,-45,-81,-53,248
-78,-21,57,49,-67,18,71,-43,-44,-74,-64,251
-78,-15,63,46,-70,24,68,-40,-40,-69,-64,254
-62,-5,56,33,-59,25,65,-37,-41,-63,-58,255
-84,-27,56,55,-70,14,62,-34,-37,-60,-56,264
-103,-21,82,62,-92,30,60,-31,-35,-58,-51,272
-70,7,77,31,-74,42,56,-30,-35,-55,-49,268
-64,4,67,30,-66,35,55,-34,-39,-51,-44,274
-58,5,64,26,-62,34,59,-39,-39,-50,-41,281
-36,13,49,11,-43,31,61,-37,-34,-50,-38,284
-58,12,70,23,-64,41,59,-32,-29,-51,-33,289
-83,4,87,39,-85,45,66,-23,-25,-49,-31,288
-90,-4,85,46,-87,40,64,-19,-20,-54,-33,293
-75,8,83,33,-79,45,67,-8,-15,-48,-29,294
-38,42,80,-2,-59,61,75,-9,-8,-30,-24,299
-16,65,81,-24,-49,72,81,-15,12,-30,-19,319
-13,64,77,-26,-45,70,84,7,21,-30,-15,320
-42,60,102,-9,-72,81,51,-26,1,-30,-10,319
-31,57,88,-13,-60,72,27,-63,-20,-30,-6,321
5,51,46,-28,-21,48,24,-74,-32,-30,-5,324
18,52,33,-35,-7,42,15,-92,-52,-50,-6,323
19,37,17,-28,1,27,9,-83,-66,-63,-30,308
-15,17,32,-1,-24,24,11,-79,-64,-53,-34,307
-45,-17,28,31,-36,5,45,-70,-66,-61,-39,291
-82,-30,52,56,-66,11,62,-64,-64,-74,-56,293
-90,-42,48,66,-69,3,57,-63,-66,-93,-80,280
-98,-49,49,74,-73,-1,67,-74,-63,-89,-80,275
-96,-38,58,67,-76,10,60,-79,-66,-97,-83,274
-124,-56,68,90,-96,6,82,-49,-32,-86,-88,252
-209,73,282,67,-245,177,223,147,145,70,5,311
51,302,251,-177,-100,277,372,550,508,485,367,546
1092,811,-281,-952,687,265,-3,389,667,1032,1274,1371
2033,917,-1116,-1475,1574,-99,-835,-659,-132,477,1156,1493
1394,121,-1273,-758,1334,-575,-1112,-1464,-1084,-780,-220,499
441,-221,-662,-110,552,-441,-676,-1136,-947,-871,-550,208
182,-97,-279,-42,231,-188,-223,-414,-383,-368,-218,284
-79,-78,1,79,-40,-38,15,-98,-111,-147,-135,252
-103,-49,55,76,-79,3,112,4,-34,-77,-79,284
-107,-52,55,79,-81,2,131,48,-15,-69,-92,259
-154,-38,116,95,-135,39,143,75,3,-38,-75,277
-117,-38,78,77,-97,20,149,83,14,-30,-64,270
-124,-32,92,78,-108,30,149,94,31,-16,-53,286
-100,-27,73,63,-86,23,152,110,37,-7,-41,289
-100,-24,76,62,-88,26,155,118,45,5,-35,295
-87,-11,76,49,-81,32,160,134,49,17,-19,304
-75,-2,73,38,-74,35,164,146,64,20,-6,307
-56,21,77,17,-67,49,165,169,89,44,12,325
-28,45,73,-9,-51,59,167,186,101,61,24,337
-15,62,78,-24,-47,70,171,214,129,90,51,357
7,87,80,-47,-37,83,169,255,163,130,86,385
50,123,73,-87,-12,98,161,290,191,164,122,416
103,159,56,-131,23,107,153,321,223,202,164,446
160,199,39,-179,60,119,145,337,247,234,202,481
214,232,19,-223,97,125,138,339,261,255,232,514
255,248,-7,-251,131,121,128,325,262,266,249,531
265,240,-25,-252,145,107,107,299,244,252,251,531
254,231,-23,-242,138,104,92,257,209,215,221,518
220,205,-16,-212,118,94,82,193,157,165,171,494
147,138,-9,-142,78,64,69,132,108,111,123,455
80,94,14,-87,33,54,61,79,64,65,79,415
19,56,36,-38,-9,46,59,35,32,25,45,381
-10,21,30,-6,-20,25,61,10,14,-7,18,361
-18,11,29,3,-24,20,59,0,4,-35,2,356
-25,-5,21,15,-23,8,62,-3,-2,-55,-4,351
-39,-15,24,27,-31,4,74,-12,-9,-55,-11,347
-70,-15,55,42,-62,19,73,-24,-16,-55,-19,342
-66,-15,51,40,-58,18,68,-21,-23,-55,-26,338
-63,-15,47,39,-54,16,67,-15,-23,-55,-32,334
-68,-16,52,42,-59,18,60,-10,-19,-53,-36,328
-73,-24,49,49,-61,12,63,-3,-20,-49,-34,324
-91,-40,51,65,-71,6,75,-1,-20,-51,-36,320
-89,-40,49,65,-69,5,75,-5,-20,-50,-41,315
-86,-35,51,61,-68,7,75,-5,-20,-50,-38,318
-84,-34,49,59,-66,7,75,-2,-15,-50,-34,324
-80,-30,50,55,-65,10,75,1,-15,-44,-32,325
-80,-30,50,55,-65,10,74,4,-14,-39,-25,324
-80,-30,50,55,-65,10,71,7,-10,-34,-28,326
-80,-30,50,55,-65,10,68,10,-10,-28,-37,335
-83,-39,44,60,-63,2,65,9,-8,-21,-33,340
-82,-39,43,60,-62,1,63,5,-5,-23,-30,342
-67,-35,32,50,-49,-1,59,3,-2,-26,-27,345
-79,-32,48,55,-63,8,62,0,1,-25,-25,348
-102,-27,75,65,-88,23,65,-4,4,-24,-23,350
-82,-25,58,53,-70,16,66,-5,5,-20,-17,349
-58,-20,38,39,-48,8,71,1,6,-20,-11,350
-57,-8,49,32,-53,20,69,18,14,-17,-5,350
-44,24,68,10,-56,46,64,37,30,3,-1,362
-22,43,64,-11,-43,53,55,50,43,22,3,374
-27,37,64,-6,-46,50,50,36,33,16,5,368
-35,45,79,-5,-57,62,38,1,20,5,10,364
-16,44,59,-14,-38,51,1,-15,8,-8,8,359
13,46,33,-30,-10,39,-13,-32,-12,-17,1,355
6,34,28,-20,-12,31,-7,-51,-30,-31,-5,351
-23,7,30,8,-27,18,-6,-47,-31,-42,-14,352
-39,-7,31,23,-35,12,-1,-42,-29,-43,-16,343
-77,-56,22,66,-49,-17,10,-33,-31,-51,-28,319
-92,-62,30,76,-61,-15,23,-29,-34,-52,-44,318
-109,-89,21,99,-65,-34,32,-19,-48,-66,-69,296
-145,-92,53,118,-98,-19,37,-25,-27,-53,-63,303
-110,-96,14,103,-62,-41,31,-26,-29,-68,-72,277
-162,-64,99,113,-130,17,75,22,13,-28,-26,289
-216,85,302,65,-259,193,241,274,241,169,72,357
214,330,116,-272,49,223,305,643,629,673,591,742
1411,877,-534,-1143,972,171,-220,276,616,1066,1443,1580
1970,724,-1246,-1347,1608,-260,-972,-855,-358,153,821,1315
976,-32,-1008,-471,992,-520,-1022,-1422,-1069,-873,-408,348
233,-185,-418,-24,326,-301,-551,-909,-733,-680,-416,209
58,-135,-192,39,125,-163,-174,-278,-261,-269,-177,277
-133,-126,7,129,-70,-60,30,-32,-44,-90,-110,271
-130,-108,22,118,-76,-42,88,55,9,-44,-73,280
-162,-109,53,136,-108,-27,97,73,24,-38,-77,270
-159,-94,65,127,-112,-14,108,102,35,-24,-58,279
-148,-98,50,122,-99,-23,109,114,37,-26,-62,272
-145,-85,60,114,-102,-12,111,113,47,-14,-47,276
-128,-84,43,106,-85,-20,109,125,53,-9,-45,278
-127,-76,51,101,-89,-13,110,134,67,3,-35,285
-110,-71,39,90,-74,-16,110,143,68,13,-30,287
-100,-64,36,82,-68,-14,110,157,80,38,-21,297
-87,-60,27,73,-56,-17,110,165,95,50,-3,301
-66,-46,20,56,-43,-13,110,182,112,72,16,316
-16,-3,13,9,-14,5,110,212,140,101,41,336
21,25,4,-23,8,14,110,236,164,127,69,349
46,61,15,-54,15,38,109,266,196,169,107,386
112,97,-15,-105,63,41,100,288,223,202,144,416
179,134,-45,-157,112,44,90,306,246,242,186,453
198,162,-36,-180,116,63,78,313,248,259,215,474
227,173,-54,-200,140,59,61,299,233,257,211,475
236,175,-61,-205,148,57,45,270,227,251,208,486
179,136,-42,-157,110,47,40,213,201,207,186,457
140,94,-46,-117,93,24,38,156,154,154,139,414
95,49,-47,-72,71,1,34,105,107,106,90,377
24,0,-24,-11,24,-12,32,56,68,60,44,334
-32,-28,3,30,-17,-12,29,26,42,20,8,300
-59,-45,15,51,-37,-14,30,11,24,-8,-31,272
-64,-70,-6,67,-29,-38,31,4,7,-27,-51,253
-83,-85,-3,84,-40,-44,28,-3,-4,-30,-53,242
-116,-92,24,103,-70,-33,35,-9,-9,-27,-62,234
-131,-108,23,119,-76,-42,41,-17,-12,-43,-58,225
-115,-103,12,108,-63,-45,40,-19,-18,-46,-65,216
-113,-106,7,109,-59,-49,38,-12,-19,-44,-76,208
-112,-120,-8,116,-52,-64,35,-25,-15,-46,-75,199
-119,-120,-1,119,-59,-61,35,-28,-16,-45,-75,191
-145,-120,25,132,-85,-47,39,-18,-13,-44,-75,184
-142,-120,22,131,-82,-48,40,-14,-9,-39,-75,179
-136,-120,15,128,-76,-52,41,-5,-11,-34,-75,173
-129,-118,12,123,-70,-52,44,-1,-6,-30,-70,168
-117,-113,4,114,-60,-54,46,1,-5,-25,-70,162
-108,-107,1,108,-54,-53,44,-1,-5,-20,-69,157
-120,-104,16,112,-67,-44,38,4,0,-16,-65,154
-121,-98,22,109,-71,-38,32,16,0,-13,-65,152
-113,-95,18,104,-65,-38,27,14,0,-9,-63,149
-128,-113,15,120,-71,-49,21,11,0,-6,-59,146
-131,-115,16,123,-73,-49,15,9,0,0,-60,145
-154,-115,38,134,-95,-38,21,5,0,-4,-56,145
-155,-115,40,135,-97,-37,26,4,0,-11,-55,144
-141,-116,26,128,-83,-45,24,-1,0,-2,-56,144
-133,-113,20,123,-76,-47,31,5,6,7,-42,145
-88,-79,8,83,-47,-35,26,14,19,14,-29,145
-93,-81,12,87,-52,-34,16,20,29,22,-30,143
-126,-86,40,106,-83,-23,8,33,42,27,-30,138
-120,-71,50,95,-85,-10,-2,12,34,22,-30,135
-96,-63,33,80,-64,-15,-12,-22,13,14,-29,133
-83,-64,19,73,-50,-22,-30,-36,4,8,-32,126
-75,-66,9,71,-42,-28,-43,-50,-2,-1,-33,126
-46,-70,-23,58,-11,-47,-36,-50,-10,-18,-41,114
-51,-77,-27,64,-12,-52,-24,-40,-27,-28,-40,100
-83,-101,-18,92,-32,-59,-16,-25,-39,-37,-51,76
-140,-150,-10,145,-65,-80,-9,-16,-32,-33,-66,52
-179,-179,0,179,-89,-89,-3,-31,-44,-48,-93,36
-184,-185,-1,184,-92,-92,5,-37,-49,-62,-112,20
-178,-171,7,175,-92,-82,10,-26,-34,-36,-89,29
-176,-187,-11,181,-82,-98,18,-2,-31,-50,-111,-5
-245,-87,159,166,-202,36,106,94,96,56,-43,19
-162,64,226,48,-194,145,289,460,416,366,160,126
606,477,-129,-541,368,173,149,625,763,1000,1014,830
1718,884,-835,-1301,1276,24,-556,-108,366,977,1516,1452
1507,358,-1150,-932,1328,-396,-1049,-1135,-681,-264,301,653
440,-209,-649,-115,544,-429,-832,-1245,-954,-824,-518,-70
55,-239,-294,93,175,-267,-394,-585,-499,-444,-293,-60
-89,-205,-116,147,14,-160,-99,-136,-140,-154,-182,-83
-154,-171,-17,163,-69,-94,30,29,-6,-33,-116,-64
-133,-185,-52,159,-41,-118,54,82,11,-29,-107,-69
-155,-178,-23,167,-66,-100,66,88,30,-5,-98,-65
-137,-180,-43,159,-47,-111,66,105,37,2,-91,-66
-150,-181,-31,166,-60,-105,64,113,56,11,-90,-68
-142,-178,-37,160,-53,-107,72,132,56,25,-79,-62
-140,-174,-35,157,-52,-104,75,136,53,29,-75,-66
-138,-161,-23,150,-57,-92,71,151,71,49,-60,-57
-135,-153,-18,144,-58,-85,67,156,79,56,-54,-62
-142,-142,0,142,-71,-71,64,169,94,73,-40,-53
-110,-132,-22,122,-44,-77,59,192,109,90,-24,-42
-72,-119,-47,95,-12,-83,68,214,128,110,6,-29
-54,-93,-39,74,-7,-66,77,247,157,137,28,-17
-23,-56,-32,40,5,-44,71,271,182,171,58,3
28,-24,-52,-1,40,-38,68,299,210,209,102,38
90,18,-72,-54,80,-27,63,322,237,246,138,63
122,42,-80,-82,101,-19,51,323,255,272,176,92
146,60,-85,-102,115,-12,37,318,248,267,198,102
172,73,-99,-122,135,-13,26,301,234,260,204,89
157,54,-103,-105,130,-25,19,261,218,256,188,79
118,26,-93,-72,105,-33,12,219,181,221,150,64
73,-16,-89,-28,81,-52,6,168,136,162,104,36
16,-61,-77,23,47,-69,-1,116,90,107,49,-6
-50,-110,-60,80,5,-84,-5,66,53,60,2,-50
-88,-142,-54,116,-16,-98,-5,35,28,20,-43,-90
-109,-165,-56,138,-27,-110,-8,30,15,3,-62,-113
-130,-182,-52,156,-39,-117,-10,25,9,-2,-76,-134
-147,-197,-50,172,-48,-123,-11,19,3,-10,-97,-152
-157,-207,-50,182,-53,-128,1,13,0,-15,-94,-149
-157,-204,-47,181,-54,-125,6,9,-5,-23,-97,-155
-164,-206,-42,185,-61,-124,-2,5,-10,-23,-102,-161
-167,-207,-40,187,-63,-123,-5,0,-6,-19,-98,-158
-167,-216,-50,192,-58,-133,-10,14,-5,-21,-101,-165
-168,-218,-50,193,-59,-133,-15,23,-5,-16,-110,-175
-162,-208,-45,186,-58,-126,-12,16,-5,-15,-111,-175
-159,-203,-44,182,-58,-123,-9,15,-4,-15,-109,-175
-156,-195,-40,175,-58,-117,-10,11,-9,-24,-111,-175
-149,-190,-41,170,-54,-115,-10,9,-16,-36,-110,-176
-160,-206,-46,184,-57,-126,-10,14,-15,-31,-108,-172
-173,-222,-48,198,-62,-135,-10,20,-14,-29,-104,-171
-172,-217,-45,195,-63,-131,1,20,-10,-24,-102,-180
-182,-214,-32,198,-74,-123,1,13,-11,-21,-99,-176
-182,-211,-29,197,-76,-120,-5,15,-8,-18,-96,-171
-175,-207,-32,191,-72,-119,-11,5,-4,-14,-96,-168
-166,-193,-28,180,-69,-110,-14,20,-6,-17,-83,-162
-164,-179,-15,172,-74,-97,-7,35,19,11,-67,-158
-151,-165,-14,158,-68,-89,-13,32,41,36,-65,-154
-117,-152,-35,135,-41,-93,-2,54,43,25,-61,-148
-145,-143,2,144,-73,-71,-17,17,30,12,-60,-145
-153,-131,22,141,-87,-54,-62,-21,2,2,-54,-139
-115,-132,-17,124,-49,-74,-75,-24,-12,-12,-56,-136
-100,-126,-25,113,-38,-75,-78,-44,-23,-21,-64,-145
-95,-145,-50,120,-22,-97,-73,-49,-45,-30,-80,-158
-103,-156,-53,130,-25,-105,-62,-50,-50,-22,-87,-160
-125,-167,-43,146,-41,-105,-53,-46,-51,-20,-91,-177
-176,-221,-45,199,-65,-133,-43,-42,-49,-48,-116,-213
-212,-238,-26,225,-93,-131,-37,-42,-53,-60,-136,-231
-216,-252,-36,234,-89,-144,-27,-35,-63,-73,-157,-255
-231,-237,-5,234,-113,-121,-21,-30,-53,-67,-142,-254
-226,-252,-25,239,-100,-138,0,-8,-56,-77,-161,-274
-282,-179,103,230,-192,-38,61,44,32,-8,-125,-244
-274,-33,241,153,-258,104,244,361,313,240,12,-176
310,342,32,-326,139,186,218,621,738,906,793,425
1411,880,-531,-1146,971,174,-442,36,580,1232,1661,1305
1568,481,-1087,-1024,1327,-303,-1054,-993,-487,80,693,749
581,-226,-807,-177,694,-516,-924,-1291,-1032,-858,-494,-202
39,-307,-345,134,193,-326,-478,-708,-627,-571,-395,-282
-106,-253,-147,180,21,-200,-160,-192,-211,-226,-244,-286
-208,-219,-11,214,-99,-115,1,-17,-42,-95,-195,-289
-181,-217,-37,199,-72,-127,34,49,-22,-61,-167,-296
-208,-214,-6,212,-101,-110,43,58,-12,-49,-169,-304
-195,-204,-9,200,-93,-107,53,78,-1,-37,-152,-288
-200,-204,-4,202,-98,-104,54,83,-1,-34,-156,-295
-199,-194,5,197,-102,-95,56,98,19,-20,-140,-281
-196,-194,2,195,-98,-96,54,103,32,-18,-138,-283
-221,-205,16,213,-118,-94,56,106,40,-8,-123,-273
-201,-180,21,190,-110,-79,55,120,39,-2,-117,-268
-181,-161,20,171,-100,-70,59,130,53,18,-98,-258
-174,-164,9,169,-92,-77,60,151,73,48,-77,-251
-133,-128,5,131,-69,-62,61,171,92,69,-58,-244
-98,-107,-9,103,-45,-58,66,198,122,101,-34,-228
-73,-86,-13,80,-30,-49,70,231,150,139,-9,-200
-35,-44,-9,39,-13,-26,63,264,186,176,50,-159
25,13,-13,-19,19,0,46,284,215,213,92,-130
80,47,-33,-63,56,7,30,286,229,245,135,-101
103,68,-35,-85,69,17,18,279,223,268,168,-69
130,88,-42,-108,85,23,6,261,216,265,158,-48
132,72,-60,-102,96,6,-4,228,208,236,154,-56
84,36,-48,-59,66,-6,-23,170,159,192,117,-90
42,-8,-50,-17,47,-29,-37,104,108,138,56,-135
-7,-58,-51,33,22,-54,-34,57,67,83,13,-177
-69,-104,-35,87,-17,-69,-35,21,24,28,-29,-219
-103,-131,-28,117,-37,-79,-35,-3,-6,-16,-73,-259
-160,-152,8,156,-83,-72,-35,-22,-25,-38,-102,-270
-165,-163,2,164,-84,-80,-34,-39,-38,-52,-114,-289
-173,-172,1,172,-86,-85,-28,-44,-47,-56,-122,-304
-219,-181,38,199,-128,-71,-39,-56,-59,-61,-133,-312
-196,-179,16,187,-106,-81,-46,-65,-66,-72,-141,-320
-184,-185,-1,184,-92,-92,-40,-57,-60,-65,-140,-314
-182,-190,-8,186,-87,-99,-38,-53,-58,-63,-137,-309
-197,-201,-5,199,-95,-103,-33,-46,-53,-58,-135,-314
-222,-205,18,213,-120,-93,-30,-41,-50,-55,-135,-342
-219,-197,21,208,-120,-88,-33,-37,-54,-64,-132,-347
-217,-197,20,207,-118,-89,-36,-34,-56,-65,-129,-343
-199,-189,10,194,-104,-90,-33,-31,-60,-65,-131,-346
-200,-195,5,197,-102,-95,-30,-28,-59,-62,-129,-343
-203,-205,-2,204,-100,-103,-28,-25,-55,-60,-130,-340
-185,-197,-12,192,-86,-105,-24,-26,-52,-60,-130,-339
-180,-190,-10,186,-85,-100,-22,-31,-50,-55,-130,-340
-183,-185,-2,184,-90,-93,-18,-29,-46,-52,-138,-339
-207,-177,30,192,-118,-73,-24,-32,-45,-49,-134,-341
-229,-177,52,203,-140,-62,-36,-37,-42,-45,-123,-336
-233,-182,50,207,-141,-66,-34,-33,-33,-41,-113,-326
-204,-155,49,179,-127,-53,-35,-27,-29,-39,-104,-318
-168,-123,45,145,-106,-39,-34,-26,-12,-40,-100,-308
-172,-107,66,139,-119,-20,-36,-11,3,-39,-94,-305
-176,-101,76,138,-126,-12,-34,-6,9,-41,-93,-303
-159,-92,68,125,-113,-12,-45,-40,7,-39,-84,-298
-139,-89,49,114,-94,-20,-83,-74,-13,-41,-87,-297
-120,-82,39,101,-79,-21,-93,-84,-43,-46,-81,-293
-118,-81,38,99,-78,-21,-87,-82,-59,-57,-85,-302
-139,-117,22,127,-80,-47,-82,-78,-63,-77,-112,-317
-144,-115,29,129,-86,-43,-69,-83,-75,-72,-111,-315
-170,-166,4,168,-87,-81,-42,-77,-71,-76,-122,-342
-206,-178,28,191,-117,-74,-44,-84,-74,-97,-146,-365
-229,-191,38,210,-133,-76,-49,-74,-85,-119,-179,-386
-269,-219,50,243,-159,-84,-36,-66,-74,-110,-171,-375
-232,-204,28,218,-130,-88,-31,-55,-77,-121,-178,-387
-259,-195,65,227,-162,-65,4,-18,-38,-98,-166,-400
-334,-51,283,192,-308,116,147,179,151,66,-87,-367
-30,186,216,-78,-123,201,285,587,582,585,387,-42
961,810,-150,-886,556,330,-151,336,782,1293,1525,959
1682,855,-827,-1268,1254,14,-927,-681,-33,679,1337,1060
979,2,-977,-490,978,-488,-1077,-1309,-981,-681,-166,-24
149,-307,-456,79,303,-381,-671,-985,-870,-801,-518,-438
-45,-228,-183,137,70,-205,-278,-348,-353,-356,-265,-412
-183,-189,-6,187,-88,-98,-67,-71,-114,-166,-220,-436
-217,-185,32,201,-124,-76,6,15,-49,-108,-172,-416
-247,-208,39,228,-143,-84,23,46,-35,-107,-180,-432
-241,-183,58,212,-149,-62,27,55,-22,-84,-162,-419
-226,-181,45,203,-135,-68,33,67,-16,-80,-164,-423
-229,-167,62,197,-145,-52,38,71,-6,-66,-155,-416
-210,-163,47,187,-128,-58,42,89,9,-57,-150,-414
-208,-156,52,182,-130,-52,45,105,21,-49,-140,-411
-190,-145,45,167,-117,-50,45,118,32,-34,-116,-406
-177,-134,43,155,-110,-45,45,122,36,-21,-99,-399
-162,-121,41,141,-101,-40,45,141,50,7,-82,-386
-142,-102,40,122,-91,-31,45,163,74,21,-70,-368
-126,-77,49,101,-88,-14,44,189,102,50,-43,-338
-104,-46,58,75,-81,6,51,231,138,92,-9,-318
-57,-2,56,29,-57,27,52,256,172,125,27,-285
-14,33,47,-10,-31,40,41,285,208,176,79,-249
46,82,37,-64,4,59,34,305,232,212,121,-228
97,118,21,-107,38,69,22,294,238,228,155,-197
114,125,11,-119,51,68,6,285,234,231,174,-168
120,119,-1,-120,60,59,-10,250,221,219,159,-163
102,95,-8,-98,55,43,-20,193,185,184,132,-186
75,73,-3,-74,39,35,-30,137,132,120,83,-220
16,19,3,-18,6,11,-40,76,80,60,22,-267
-52,-35,17,43,-34,-9,-40,23,31,10,-24,-312
-114,-73,41,94,-77,-16,-40,-5,1,-41,-74,-349
-154,-111,43,132,-98,-34,-38,-17,-17,-67,-101,-370
-147,-112,35,129,-91,-38,-35,-35,-39,-85,-116,-385
-177,-126,52,151,-114,-37,-34,-51,-54,-106,-137,-400
-209,-152,57,180,-133,-47,-42,-49,-55,-105,-143,-404
-195,-149,46,172,-120,-51,-51,-52,-56,-105,-145,-414
-186,-146,40,166,-113,-52,-50,-55,-60,-108,-147,-415
-177,-144,33,160,-104,-55,-50,-55,-60,-110,-149,-414
-162,-139,23,150,-92,-58,-50,-53,-56,-110,-151,-415
-178,-142,36,159,-107,-53,-50,-46,-55,-110,-154,-417
-192,-145,47,168,-119,-49,-47,-39,-55,-110,-157,-421
-196,-145,51,170,-123,-47,-44,-33,-56,-110,-160,-419
-213,-145,68,179,-140,-38,-41,-25,-54,-110,-158,-420
-198,-145,53,171,-125,-46,-38,-22,-57,-110,-154,-420
-207,-145,61,176,-134,-42,-35,-30,-70,-119,-152,-422
-215,-140,74,177,-144,-33,-35,-30,-68,-116,-149,-417
-186,-132,54,159,-120,-39,-35,-30,-64,-109,-146,-412
-183,-126,57,154,-120,-34,-35,-30,-61,-105,-144,-409
-170,-119,51,144,-110,-34,-35,-30,-56,-97,-140,-403
-170,-111,59,140,-115,-25,-35,-30,-54,-97,-132,-400
-177,-99,78,138,-127,-11,-43,-22,-47,-95,-127,-395
-166,-92,75,128,-120,-8,-44,-16,-37,-86,-119,-388
-146,-72,74,109,-110,1,-36,-8,-30,-77,-112,-380
-129,-44,85,86,-106,20,-34,-3,-22,-70,-107,-374
-136,-31,104,83,-120,36,-28,6,-16,-70,-104,-366
-123,-27,96,75,-109,35,-25,12,-16,-70,-106,-362
-128,-19,109,73,-118,45,-52,-18,-13,-69,-104,-355
-137,-12,125,74,-131,56,-81,-57,-34,-83,-105,-351
-98,-7,91,52,-94,41,-91,-68,-45,-96,-105,-344
-82,-7,75,44,-78,34,-96,-73,-60,-98,-105,-340
-100,-32,68,66,-83,18,-95,-75,-90,-109,-125,-363
-107,-38,69,72,-88,15,-84,-68,-89,-113,-123,-365
-129,-73,56,101,-93,-9,-53,-55,-91,-116,-128,-373
-173,-111,62,142,-117,-24,-42,-57,-88,-132,-142,-389
-176,-130,46,153,-111,-41,-42,-49,-92,-145,-167,-410
-187,-132,54,160,-120,-39,-31,-44,-86,-132,-169,-410
-183,-135,48,159,-115,-43,-37,-32,-89,-128,-166,-407
-203,-144,59,173,-130,-42,-1,-1,-66,-122,-162,-419
-274,-3,271,138,-272,134,130,164,114,-1,-97,-379
-53,208,261,-77,-158,234,280,578,509,447,266,-138
879,791,-89,-835,484,351,-61,434,760,1147,1347,794
1749,947,-802,-1348,1275,73,-860,-561,35,719,1403,1086
1211,150,-1062,-680,1136,-456,-1131,-1329,-983,-649,-63,48
306,-227,-532,-39,419,-379,-743,-1070,-947,-895,-562,-448
65,-166,-231,51,148,-198,-318,-388,-405,-423,-278,-403
-98,-128,-29,113,-34,-78,-83,-66,-136,-207,-214,-431
-164,-102,62,132,-112,-20,0,48,-59,-132,-169,-406
-161,-121,40,141,-100,-40,30,73,-40,-138,-174,-419
-179,-100,79,140,-129,-10,49,85,-24,-115,-157,-406
-161,-102,59,131,-110,-21,53,101,-15,-106,-153,-408
-155,-92,63,123,-109,-14,56,104,-5,-94,-145,-391
-138,-85,53,112,-96,-16,54,112,5,-80,-136,-377
-128,-80,48,104,-88,-16,56,119,16,-68,-129,-369
-118,-72,46,95,-82,-13,62,140,23,-52,-115,-355
-128,-67,61,98,-95,-3,63,150,41,-40,-100,-348
-115,-47,68,81,-91,10,55,168,56,-24,-76,-332
-77,-17,60,47,-68,21,61,191,81,-9,-58,-319
-60,0,60,30,-60,30,80,222,119,30,-32,-297
-28,28,55,-1,-41,41,81,257,144,64,-1,-260
5,59,54,-33,-25,56,77,292,184,105,40,-222
49,105,56,-77,-4,80,70,317,216,150,80,-189
107,161,54,-135,26,108,62,336,245,190,126,-152
137,183,46,-160,45,114,57,335,257,212,163,-117
172,207,35,-190,68,121,43,320,244,208,172,-88
185,210,25,-197,80,117,26,302,234,206,167,-77
171,185,14,-179,79,99,15,257,197,173,141,-90
155,152,-3,-154,79,74,4,195,141,113,99,-125
84,110,26,-97,29,68,-8,133,89,53,49,-163
12,67,55,-39,-22,61,-14,82,44,8,-3,-200
-27,20,47,3,-37,33,-11,42,12,-43,-46,-237
-57,-1,56,29,-56,27,-8,21,-7,-83,-79,-255
-69,-12,57,40,-63,22,-6,17,-31,-96,-102,-269
-91,-38,53,64,-72,7,-2,14,-49,-111,-114,-281
-102,-46,57,74,-79,5,0,10,-51,-108,-116,-276
-96,-40,55,68,-76,7,1,6,-44,-114,-108,-271
-108,-40,69,74,-88,14,-1,4,-48,-105,-115,-267
-104,-40,64,72,-84,12,0,-2,-65,-116,-134,-262
-80,-40,41,60,-61,0,0,-8,-63,-105,-136,-258
-85,-40,45,62,-65,2,-1,-14,-59,-120,-134,-255
-93,-43,50,68,-71,3,3,-19,-56,-113,-130,-255
-94,-46,49,70,-71,1,1,-17,-51,-122,-131,-255
-97,-52,45,74,-71,-3,14,-11,-49,-251,-127,-255
-84,-42,42,63,-62,0,5,-6,-45,-75,-130,-255
-95,-58,37,76,-66,-10,23,-3,-45,45,-140,-252
-90,-54,36,71,-63,-9,11,3,-45,-9,-134,-249
-92,-32,59,61,-75,13,31,4,-45,33,-127,-246
-95,-41,54,67,-74,7,25,-3,-45,0,-123,-243
