I,II,III,aVR,aVL,aVF,V1,V2,V3,V4,V5,V6
-96,-34,62,65,-79,14,125,85,130,165,-245,750
-84,-60,24,72,-54,-18,123,85,130,165,-251,749
-80,-123,-43,102,-18,-83,119,85,128,165,-232,748
-68,-54,15,61,-42,-19,114,84,139,176,-219,744
-135,-64,71,99,-103,4,110,85,158,197,-229,742
-123,-80,43,101,-83,-18,106,85,154,183,-196,739
-108,-59,49,83,-79,-5,99,84,154,197,-175,735
-137,-49,88,93,-112,19,122,101,179,206,-146,760
-36,-25,11,31,-24,-7,100,94,192,181,-153,776
-18,17,35,0,-27,26,63,75,193,201,-130,757
-61,34,95,13,-78,64,56,69,194,211,-74,778
-80,60,141,9,-111,100,43,64,202,241,-65,837
-50,134,184,-42,-117,159,4,18,175,250,-47,836
-18,133,150,-58,-85,141,-29,-24,159,232,-9,841
-36,137,173,-50,-105,154,-12,-17,176,230,34,878
-50,135,185,-42,-118,159,-32,-28,150,216,30,873
-32,133,165,-51,-99,149,-29,-54,139,209,21,862
-13,157,170,-73,-91,163,2,-61,134,197,19,837
-105,84,189,10,-148,136,2,-48,117,185,-17,795
-92,38,129,27,-110,83,7,-69,107,175,-56,748
-70,17,87,27,-79,52,15,-88,90,167,-88,716
-89,-9,80,49,-84,35,43,-75,82,161,-111,706
-44,3,47,20,-45,25,69,-74,79,154,-117,690
-115,-36,79,75,-96,21,82,-66,80,148,-113,680
-167,-59,108,113,-137,24,79,-61,75,141,-137,668
-153,-43,110,98,-131,33,80,-64,75,137,-113,657
-164,-63,101,113,-132,19,92,-64,74,132,-110,635
-170,-78,92,123,-131,7,92,-71,70,129,-157,608
-164,-77,87,120,-125,5,86,-78,70,126,-134,601
-124,-47,77,85,-101,15,81,-68,67,121,-161,592
-112,-48,64,80,-88,8,75,-57,65,119,-186,582
-118,-35,84,76,-101,24,69,-51,64,112,-174,572
-131,-31,100,80,-115,35,65,-49,66,111,-175,562
-95,-67,28,81,-61,-20,49,-51,62,103,-187,556
-90,-27,63,59,-77,18,55,-50,72,117,-209,549
-140,-33,107,87,-124,37,79,-50,77,153,-200,542
-112,-42,70,76,-91,14,76,-50,73,156,-199,535
-140,-27,113,83,-126,43,68,-38,61,154,-194,530
-136,-30,106,83,-121,37,65,-17,68,155,-190,522
-116,-16,100,66,-107,42,87,2,97,155,-187,512
-84,-19,65,51,-74,23,95,1,74,153,-200,505
-67,-13,55,40,-61,21,81,-17,61,150,-225,495
-95,-42,53,69,-74,5,80,-22,67,144,-225,487
-137,-76,61,106,-99,-7,69,-15,70,150,-223,481
-193,-70,123,131,-158,26,66,-7,73,171,-218,476
-137,-66,71,102,-104,2,70,-2,63,168,-228,471
-153,-55,98,104,-126,21,68,20,58,164,-246,464
-165,-67,99,116,-132,16,79,44,49,161,-244,461
-98,-53,45,75,-71,-4,60,45,42,156,-244,438
-108,-25,83,66,-95,29,42,45,36,153,-246,408
-121,-50,71,85,-96,11,55,45,35,149,-243,399
-114,-45,69,79,-91,12,55,45,34,144,-256,393
-86,-34,52,60,-69,9,55,44,32,139,-265,384
-48,-64,-17,56,-15,-40,51,41,27,136,-271,378
-71,-41,30,56,-50,-5,51,35,40,127,-293,370
-99,-27,73,63,-85,23,48,39,61,143,-294,365
-92,-24,68,57,-80,22,51,55,57,148,-289,365
-122,22,144,50,-134,83,63,55,52,158,-288,363
-160,-19,141,89,-150,61,55,55,50,173,-281,359
-132,2,134,65,-133,68,44,50,45,167,-281,359
-86,76,162,5,-125,119,36,51,43,190,-271,359
-65,60,125,2,-95,93,6,47,78,203,-265,347
-62,50,112,6,-87,81,-15,48,93,201,-253,352
-63,11,74,26,-69,42,18,80,69,185,-252,326
-65,-41,24,53,-44,-8,40,87,59,143,-296,274
-102,-82,20,91,-61,-30,50,84,50,123,-306,265
-123,-65,57,94,-90,-4,68,86,47,135,-295,255
-92,-59,33,75,-62,-13,71,85,40,139,-327,239
-134,-127,7,130,-70,-60,70,84,35,127,-332,221
-123,-129,-6,127,-59,-67,66,80,30,124,-326,212
-109,-124,-15,116,-46,-69,66,80,21,114,-342,201
-213,-123,90,168,-151,-17,63,91,61,110,-310,202
-204,-115,90,159,-147,-12,82,78,75,121,-308,186
-126,-119,8,122,-67,-55,88,62,60,124,-310,188
-131,-96,35,114,-83,-31,84,82,71,129,-309,175
-130,-112,19,121,-74,-46,72,66,48,115,-315,148
-91,-126,-35,108,-27,-80,80,161,125,179,-269,137
4,120,116,-62,-56,117,-7,153,313,469,198,600
280,534,254,-407,13,394,-284,-225,280,669,967,1568
179,425,247,-302,-34,336,-285,-583,-230,174,445,1133
-161,-18,142,89,-152,62,-90,-543,-545,-357,-510,55
-127,-136,-9,132,-58,-73,-16,-148,-194,-139,-419,69
-112,-126,-14,119,-48,-70,83,87,58,110,-313,142
-143,-126,17,134,-80,-54,109,90,71,127,-314,121
-179,-113,66,146,-123,-23,117,119,79,156,-285,129
-205,-112,93,158,-149,-9,140,132,73,156,-305,96
-167,-101,67,134,-117,-17,125,127,84,152,-282,109
-169,-99,71,134,-120,-14,127,125,77,143,-293,87
-145,-94,51,119,-98,-21,119,121,82,138,-279,95
-141,-92,49,116,-95,-21,116,119,75,130,-281,83
-114,-89,24,101,-69,-32,111,131,89,143,-273,82
-70,-86,-16,78,-26,-50,110,132,103,161,-269,78
-132,-84,48,108,-90,-18,110,145,99,159,-266,73
-216,-91,125,153,-170,17,110,162,100,156,-259,76
-180,-92,88,136,-133,-2,110,156,101,154,-257,70
-136,-83,53,109,-94,-15,111,149,98,149,-248,70
-106,-74,33,90,-69,-20,116,158,98,151,-246,70
-6,-70,-64,38,29,-66,114,177,120,164,-239,69
-53,-51,2,52,-27,-24,117,184,129,163,-234,71
-70,-26,44,48,-57,9,112,175,134,175,-228,71
-41,1,42,20,-41,22,121,189,156,208,-196,101
-123,10,133,56,-128,71,86,201,176,227,-166,123
-49,11,60,19,-54,35,20,160,172,228,-147,115
-4,72,76,-34,-40,74,21,156,158,220,-119,155
-21,117,138,-48,-80,127,21,149,151,218,-101,186
53,135,83,-94,-15,109,14,105,133,211,-96,170
47,143,95,-95,-24,118,11,103,124,211,-91,191
-36,127,163,-46,-100,145,6,113,94,220,-87,199
-25,123,147,-50,-86,135,1,108,57,210,-83,162
-9,91,100,-42,-55,96,6,100,48,200,-80,144
-37,50,87,-7,-62,68,40,94,36,190,-114,116
-34,25,59,4,-47,42,59,84,20,173,-151,84
-44,2,47,21,-46,25,82,82,5,145,-169,57
-29,-2,26,15,-27,11,89,78,-7,112,-194,32
-48,-29,19,39,-33,-5,86,82,-11,120,-203,28
-42,-55,-14,49,-14,-34,96,84,-20,98,-207,24
-68,-45,23,56,-45,-11,90,94,-26,104,-195,18
-113,-71,42,92,-77,-15,113,92,-30,127,-185,16
-34,-83,-49,58,8,-66,126,45,-56,75,-214,-15
-33,-75,-42,54,5,-58,113,66,-67,99,-220,-46
-46,-76,-30,61,-7,-52,113,92,-61,132,-211,-45
-38,-69,-32,54,-3,-50,103,79,-59,120,-209,-41
-57,-71,-14,64,-22,-42,103,80,-54,128,-203,-40
-90,-62,28,76,-59,-17,114,98,-51,123,-200,-35
-135,-88,47,111,-91,-21,113,111,-46,126,-194,-35
-133,-98,35,115,-84,-32,108,101,-39,133,-189,-30
-80,-84,-4,82,-38,-44,106,98,-23,133,-180,-20
-51,-84,-33,68,-9,-59,100,91,-40,127,-195,-34
-46,-71,-25,58,-10,-48,102,86,-64,123,-210,-43
-16,-78,-62,48,23,-70,105,81,-56,119,-184,-29
-13,-50,-37,32,12,-43,105,80,-55,114,-154,-21
-21,-46,-25,33,3,-35,105,80,-52,110,-143,-12
-60,-85,-25,73,-18,-55,105,75,-49,110,-139,-3
-63,-76,-13,70,-25,-44,124,75,-47,110,-135,-1
-74,-67,7,70,-40,-30,129,74,-45,110,-130,2
-58,-65,-7,62,-26,-36,120,70,-44,110,-125,-9
5,-53,-59,25,32,-56,117,64,-58,107,-132,-22
-33,-51,-18,42,-8,-34,109,84,-73,99,-118,-3
-90,-71,19,80,-54,-26,104,97,-69,88,-85,22
-76,-77,-1,76,-37,-39,102,90,-70,84,-89,16
1,-56,-57,28,29,-56,93,88,-70,63,-113,1
-9,-44,-36,27,14,-40,107,84,-69,71,-113,19
-77,-81,-4,79,-36,-42,130,79,-67,97,-106,36
-48,-75,-27,62,-10,-51,123,78,-57,88,-103,36
-2,-48,-47,25,23,-47,113,73,-55,84,-98,32
-58,-78,-20,68,-19,-48,113,79,-42,78,-93,46
-54,-73,-19,64,-17,-46,93,83,-50,72,-85,71
1,-69,-71,34,36,-70,100,56,-80,67,-79,70
-8,-57,-49,32,21,-53,132,47,-75,60,-72,70
11,-55,-66,22,38,-60,125,30,-70,48,-66,68
-112,-75,37,93,-74,-19,120,49,-65,63,-62,84
-124,-41,83,82,-104,21,117,61,-58,89,-56,109
17,-25,-42,4,29,-33,112,14,-54,80,-54,99
-34,-27,7,31,-21,-10,101,19,-49,79,-47,97
-22,57,79,-18,-51,67,57,22,-49,76,-17,134
41,91,50,-66,-5,70,23,19,-43,68,15,148
0,35,36,-18,-18,35,34,21,-44,84,18,152
-18,36,53,-9,-36,44,63,19,-34,71,2,161
-69,-5,63,36,-66,29,88,29,-61,43,-16,146
-96,-83,13,89,-54,-35,117,6,-103,36,-45,135
-38,-131,-93,85,28,-112,125,-13,-99,25,-52,123
-39,-141,-102,90,32,-121,118,-17,-100,12,-49,102
-42,-109,-66,76,12,-87,115,-18,-101,1,-51,94
-37,-122,-85,80,24,-103,110,-16,-99,-17,-48,97
-42,-108,-66,75,12,-87,106,-37,-98,-41,-53,91
-45,-115,-70,80,13,-92,101,-32,-87,-38,-44,100
-14,-107,-93,61,40,-100,100,-23,-80,-31,-42,88
16,-54,-70,19,43,-62,100,-26,-71,-24,-25,99
-38,-97,-60,68,11,-78,99,6,-62,-17,-26,82
-78,-131,-53,105,-12,-92,102,-1,-49,-15,5,93
-34,-102,-67,68,17,-84,100,63,33,53,49,85
117,146,29,-132,44,88,-18,28,195,330,513,544
272,510,237,-391,17,373,-245,-342,157,511,1266,1509
139,434,294,-287,-78,363,-249,-670,-359,-14,701,1020
-129,-7,122,67,-125,57,-67,-624,-640,-507,-204,-10
-49,-165,-116,107,34,-140,1,-270,-290,-295,-105,6
18,-105,-123,44,71,-114,45,-68,-70,-91,-11,49
-76,-116,-40,96,-18,-78,108,-70,-39,-62,18,60
-21,-98,-76,60,28,-87,112,-45,-31,-37,55,76
-27,-94,-67,61,20,-80,104,-29,-49,-41,31,51
-61,-86,-25,74,-17,-56,98,-9,-13,-30,39,65
-75,-79,-4,77,-35,-41,90,-7,-17,-28,21,43
-57,-82,-25,70,-16,-53,86,-19,-20,-19,21,49
12,-77,-89,32,51,-83,78,-31,-25,-33,19,50
-8,-77,-69,43,31,-73,75,-36,-21,-42,37,74
-32,-73,-41,52,5,-57,67,-35,-9,-32,26,68
-12,-76,-64,44,26,-69,65,-34,0,-31,22,64
-2,-62,-59,32,29,-60,55,-37,25,-24,13,65
21,-68,-89,23,55,-78,57,-53,24,-21,18,56
-1,-86,-85,44,43,-86,94,-47,41,-14,59,73
-16,-54,-37,35,11,-45,93,-33,58,-1,51,85
35,-31,-65,-2,50,-48,77,-27,58,10,49,87
5,-31,-37,13,21,-34,72,-5,58,19,86,90
31,-14,-45,-9,38,-29,59,-6,55,9,95,80
-3,-14,-12,9,5,-13,55,-26,85,16,107,113
-75,17,92,28,-84,54,37,-16,111,48,137,166
23,88,64,-56,-21,76,-1,-23,105,55,145,173
30,119,89,-75,-29,103,-21,-47,99,55,172,197
48,158,110,-103,-31,134,-49,-63,95,55,167,203
60,154,95,-107,-18,124,-73,-84,101,55,167,202
40,155,115,-98,-38,135,-64,-98,108,66,204,237
52,180,128,-116,-39,154,-61,-97,86,61,196,221
23,121,98,-72,-37,109,-54,-94,64,47,179,189
32,103,71,-68,-20,87,-49,-95,56,34,143,160
21,96,75,-59,-27,85,-44,-96,42,16,110,119
13,77,64,-46,-25,70,-30,-92,33,2,90,80
71,65,-6,-68,38,30,-17,-105,24,-10,43,43
68,34,-34,-51,51,0,-5,-115,17,-22,21,24
46,25,-21,-35,33,2,3,-106,12,-30,11,11
64,3,-60,-33,62,-28,11,-103,-8,-47,-2,-10
-35,-7,29,21,-32,11,19,-96,4,-54,17,-16
-7,-27,-20,17,7,-24,25,-91,28,-45,3,-13
66,-40,-106,-12,86,-73,25,-86,21,-41,-35,-25
27,-35,-61,4,45,-48,25,-79,18,-35,-39,-42
36,-30,-66,-3,51,-48,25,-76,13,-30,-53,-44
16,-29,-45,7,30,-36,25,-69,9,-39,-62,-56
47,-69,-116,11,82,-92,25,-64,5,-50,-68,-84
14,-49,-63,17,39,-56,22,-58,-6,-42,-87,-87
11,-25,-36,7,23,-30,16,-53,0,-34,-88,-83
-2,-30,-28,16,13,-28,12,-47,14,-26,-87,-87
-72,-27,44,49,-58,8,7,-41,38,-19,-104,-84
-4,-58,-54,31,25,-56,3,-37,52,-15,-105,-86
-19,-40,-21,30,1,-31,-1,-27,42,-10,-100,-85
-9,-25,-17,17,4,-21,-7,-38,40,-8,-99,-84
46,-34,-80,-5,63,-56,-14,-44,35,-3,-94,-108
12,-32,-45,10,29,-38,-21,-35,29,0,-97,-117
-25,-50,-25,38,0,-37,-28,-32,37,3,-99,-110
4,-48,-52,22,28,-50,-34,-24,40,9,-109,-110
70,-12,-82,-29,77,-47,-32,-20,36,12,-116,-105
50,-9,-60,-20,55,-35,-27,-16,32,18,-111,-107
24,-50,-74,13,49,-62,-24,-12,29,19,-107,-121
64,-37,-101,-13,83,-69,-20,-29,25,13,-105,-145
66,13,-53,-39,59,-20,-16,-36,25,6,-97,-142
51,18,-33,-34,41,-7,-14,-27,41,-1,-109,-143
53,-31,-83,-11,68,-57,-9,-21,44,-8,-134,-168
23,-69,-92,23,58,-80,-4,-14,36,-14,-136,-171
9,-72,-81,32,45,-77,1,-8,34,-15,-134,-169
-1,-75,-74,38,37,-74,5,-1,28,-20,-134,-171
22,-58,-79,18,51,-68,10,-11,25,-21,-148,-168
0,-58,-58,29,29,-58,18,-17,18,-26,-158,-173
-42,-43,-1,42,-20,-22,15,-14,10,-23,-150,-195
61,-14,-76,-23,69,-45,3,-14,2,-20,-150,-204
53,-66,-119,6,87,-92,-2,-9,-2,-32,-165,-202
-10,-65,-55,38,23,-60,-19,-11,-5,-29,-166,-216
44,-41,-86,-1,66,-63,-31,-7,3,-17,-155,-226
13,-3,-16,-5,14,-10,-23,6,29,5,-148,-225
-7,25,32,-9,-20,28,-13,17,34,27,-141,-222
56,-18,-73,-19,65,-45,4,16,22,25,-134,-220
103,29,-74,-66,88,-22,-21,10,7,22,-128,-220
30,80,49,-55,-10,64,-64,8,26,46,-121,-217
5,75,71,-40,-33,73,-82,0,51,62,-114,-214
76,61,-15,-68,45,23,-70,6,40,44,-108,-215
34,35,0,-34,17,17,-31,28,28,36,-101,-214
54,-29,-83,-12,69,-56,-2,19,7,12,-129,-217
61,-88,-149,14,106,-118,-2,-2,-23,-44,-187,-272
24,-89,-113,33,68,-101,-29,-13,-45,-63,-197,-296
55,-90,-145,18,100,-117,-30,-22,-34,-47,-188,-284
6,-90,-95,42,51,-92,-4,-10,-24,-41,-178,-271
-40,-90,-50,65,5,-70,26,9,-25,-38,-159,-256
26,-90,-115,32,70,-102,4,1,-27,-43,-172,-290
53,-95,-148,21,101,-122,-37,1,-22,-48,-188,-315
-8,-94,-87,51,40,-90,-27,11,-28,-48,-189,-320
16,-99,-115,42,66,-107,-17,2,-21,-36,-170,-305
43,-100,-142,29,92,-121,-6,-17,-11,-36,-182,-329
13,-100,-113,44,64,-106,24,39,21,-6,-155,-290
50,-51,-100,1,75,-75,28,160,153,133,-48,-238
275,298,22,-286,126,160,-160,-11,279,428,602,455
492,591,99,-542,196,345,-399,-446,104,447,1127,1188
225,342,118,-283,53,230,-298,-688,-444,-189,224,292
-44,-30,14,37,-29,-8,-102,-475,-505,-477,-408,-472
23,-111,-134,44,79,-123,-59,-103,-113,-159,-186,-327
37,-83,-120,24,79,-101,-7,10,-13,-39,-193,-334
31,-80,-112,25,72,-96,17,27,2,-31,-172,-337
-7,-78,-71,43,32,-74,10,50,13,-12,-169,-351
-35,-81,-46,58,5,-63,21,57,34,-11,-170,-325
48,-80,-128,16,88,-103,34,70,42,1,-158,-321
57,-80,-137,12,97,-108,35,62,45,1,-165,-331
34,-80,-115,23,75,-97,36,68,79,11,-151,-317
26,-75,-101,25,64,-88,30,62,73,4,-156,-337
7,-67,-74,31,40,-70,31,67,76,-2,-147,-347
31,-59,-90,14,61,-74,28,81,74,-10,-152,-351
23,-52,-75,15,49,-63,25,69,76,-13,-146,-354
9,-43,-52,17,31,-47,49,107,68,12,-144,-360
36,-41,-76,3,56,-58,23,130,82,42,-146,-352
61,-39,-100,-11,81,-70,12,123,86,57,-133,-345
67,-41,-107,-13,87,-74,24,132,70,54,-120,-343
48,-35,-84,-6,66,-59,13,129,99,56,-106,-326
72,-24,-97,-24,85,-60,13,135,103,54,-89,-294
52,-17,-69,-17,60,-43,6,136,109,55,-73,-282
15,-1,-16,-7,15,-8,-1,133,138,79,-52,-283
117,23,-95,-70,106,-36,-30,123,139,85,-33,-260
180,89,-91,-135,135,-1,-49,112,140,101,0,-221
163,138,-25,-150,94,56,-59,99,140,111,35,-196
146,150,4,-148,71,76,-56,85,139,100,51,-182
98,167,69,-133,14,118,-31,69,141,100,71,-179
97,150,53,-124,21,101,-78,36,120,93,76,-180
143,140,-3,-142,72,69,-99,29,93,90,65,-175
111,125,14,-118,48,69,-69,30,73,81,55,-173
89,95,6,-92,41,50,-57,33,61,69,40,-183
118,81,-37,-99,77,22,-34,36,41,58,3,-218
93,52,-41,-72,67,5,-27,34,30,47,-36,-257
50,26,-24,-38,36,1,-20,56,58,42,-54,-281
62,15,-47,-38,54,-16,-13,60,55,33,-82,-319
98,9,-89,-54,93,-39,-12,54,36,28,-90,-314
79,-6,-85,-36,82,-45,-7,52,31,20,-90,-311
35,-35,-70,1,53,-53,-4,47,21,15,-90,-348
5,-34,-39,14,23,-36,1,45,17,11,-90,-347
57,-35,-92,-11,75,-63,3,44,7,5,-91,-341
61,-27,-88,-17,75,-57,17,47,4,10,-86,-336
-9,-48,-38,29,15,-43,27,41,4,22,-98,-331
-32,-103,-71,68,20,-87,46,54,33,43,-77,-322
10,-41,-51,15,31,-46,59,50,49,9,-96,-352
133,18,-114,-75,123,-48,32,21,14,-37,-135,-389
129,6,-123,-67,125,-58,10,22,17,-18,-122,-378
-4,-14,-10,9,4,-12,27,49,36,16,-121,-376
9,-40,-49,16,29,-45,46,64,36,37,-116,-371
83,-37,-120,-23,102,-78,40,53,32,31,-111,-366
78,-35,-112,-21,96,-73,32,47,25,26,-110,-363
128,3,-125,-65,127,-61,27,39,23,23,-109,-359
103,6,-98,-54,101,-46,18,32,16,17,-110,-360
58,-40,-98,-8,78,-69,17,29,16,14,-110,-360
72,-49,-121,-11,96,-85,20,32,17,10,-110,-360
-19,-55,-36,37,9,-45,20,39,14,10,-110,-360
20,-45,-66,13,43,-55,23,41,16,10,-105,-364
111,-30,-141,-41,126,-85,25,39,14,10,-101,-365
89,-33,-122,-28,105,-77,26,41,16,5,-99,-365
62,-56,-118,-3,90,-86,23,38,15,-3,-94,-364
3,-70,-73,34,38,-71,39,44,25,-12,-92,-366
3,-62,-65,29,35,-63,57,67,40,-12,-88,-362
49,-67,-116,9,83,-91,40,64,29,-33,-114,-373
65,-35,-101,-15,83,-68,27,54,15,-52,-140,-396
92,25,-67,-58,79,-21,30,49,-2,-33,-127,-395
60,-28,-88,-16,74,-58,30,39,-7,-26,-117,-394
40,-80,-120,21,80,-100,29,37,1,-24,-113,-395
43,-66,-109,12,76,-87,40,40,5,-27,-115,-394
35,-65,-100,15,68,-82,46,40,11,-45,-115,-393
11,-58,-69,23,41,-63,44,43,17,-45,-115,-389
9,-52,-61,22,36,-57,49,45,19,-41,-115,-387
61,-50,-111,-6,86,-81,50,45,15,-39,-115,-383
17,-69,-86,26,52,-77,50,42,13,-35,-108,-381
-3,-68,-65,36,31,-66,49,38,9,-34,-97,-379
16,-71,-87,28,51,-79,51,38,8,-25,-88,-373
68,2,-66,-35,67,-32,49,27,2,-17,-76,-361
94,65,-29,-79,61,18,51,44,21,-9,-62,-354
77,36,-41,-56,59,-3,57,60,37,3,-48,-339
61,75,14,-68,23,44,16,48,23,21,-29,-317
15,63,47,-40,-16,55,-23,43,49,51,7,-315
156,60,-97,-108,126,-18,-36,34,59,27,3,-322
155,68,-87,-111,121,-9,-43,28,44,2,-37,-327
51,-5,-56,-22,53,-30,-2,21,44,14,-44,-328
45,-79,-124,18,84,-101,25,20,14,-24,-56,-339
3,-110,-113,53,59,-111,36,20,-12,-56,-69,-355
64,-103,-167,20,116,-135,55,20,-5,-63,-57,-356
64,-117,-181,27,123,-148,52,19,-29,-76,-69,-366
33,-116,-148,42,91,-132,56,-4,-63,-94,-94,-357
53,-99,-152,23,102,-125,75,-11,-64,-108,-97,-358
31,-96,-127,33,79,-112,63,-5,-66,-103,-81,-349
67,-67,-134,0,101,-100,48,0,-65,-109,-78,-349
30,-72,-102,21,66,-87,68,5,-65,-111,-68,-343
23,-114,-136,46,80,-125,36,11,-66,-109,-52,-338
109,-85,-194,-11,152,-139,39,21,-22,-79,-29,-304
43,-126,-168,42,106,-147,71,81,60,-14,8,-263
108,-1,-109,-53,108,-55,-1,123,177,151,217,-123
378,426,48,-402,165,237,-191,-125,276,466,1047,864
402,515,113,-459,145,313,-322,-559,-78,242,1117,1103
81,131,50,-106,16,90,-164,-680,-575,-423,46,-46
-45,-140,-95,92,25,-118,-22,-367,-395,-440,-177,-354
54,-116,-170,32,112,-143,12,-66,-73,-170,42,-226
44,-89,-132,23,88,-110,69,-1,-28,-121,14,-258
76,-65,-141,-5,109,-102,74,17,9,-89,50,-205
99,-34,-132,-32,116,-83,98,49,32,-87,40,-229
66,-70,-136,2,101,-103,108,56,42,-77,65,-199
48,-87,-135,20,92,-111,99,54,39,-68,85,-205
61,-80,-141,10,101,-110,101,59,39,-68,82,-189
75,-78,-153,1,115,-115,94,60,41,-69,80,-176
63,-74,-137,6,100,-105,95,61,39,-71,75,-165
74,-68,-142,-2,108,-105,90,64,40,-69,71,-150
54,-69,-122,8,88,-95,86,66,62,-71,99,-145
71,-52,-123,-10,97,-87,84,64,73,-69,107,-131
37,-60,-98,12,67,-79,79,68,68,-65,106,-124
-4,-81,-77,43,37,-79,76,65,68,-60,120,-115
81,-66,-147,-7,114,-106,72,60,63,-56,110,-111
102,-54,-156,-24,129,-104,67,58,68,-52,101,-104
65,-72,-137,4,101,-104,61,47,66,-44,89,-102
39,-54,-93,8,66,-74,55,73,102,-15,148,-77
119,44,-76,-81,97,-16,50,82,123,20,193,-35
137,86,-51,-112,94,18,39,57,101,31,184,4
110,67,-44,-88,76,11,21,47,127,30,214,44
105,83,-22,-93,63,31,4,34,140,30,234,77
80,111,31,-95,24,71,-25,8,126,30,247,99
141,127,-14,-134,77,56,-57,-21,121,30,251,108
125,167,41,-146,42,104,-58,-33,112,31,269,137
100,183,84,-142,8,133,-50,-32,103,46,297,168
101,165,64,-133,18,114,-47,-41,85,46,280,158
76,124,49,-100,13,86,-39,-50,70,28,258,138
53,96,43,-75,5,69,-36,-45,45,4,236,117
122,94,-28,-108,75,33,-23,-40,25,-29,201,69
133,72,-61,-102,97,6,-5,-37,20,-55,159,33
105,65,-40,-85,72,12,9,-31,12,-68,124,18
135,33,-102,-84,118,-34,39,-28,6,-60,112,5
33,-16,-49,-8,41,-32,53,-24,-1,-60,106,-19
52,-19,-71,-16,62,-45,44,-41,-5,-81,99,-41
77,-11,-88,-33,83,-49,44,-46,6,-86,93,-28
64,-8,-72,-28,68,-40,38,-43,3,-81,86,-53
117,1,-116,-59,117,-58,34,-60,-16,-79,81,-80
51,-12,-63,-19,57,-37,58,-61,-15,-76,75,-72
26,-35,-61,5,44,-48,62,-50,-10,-74,70,-79
18,-24,-42,3,30,-33,51,-43,-8,-71,65,-80
15,-1,-16,-6,15,-9,46,-35,-3,-66,58,-79
122,15,-107,-68,114,-46,37,-29,-1,-64,54,-90
159,8,-151,-83,155,-71,31,-23,8,-59,49,-95
120,-14,-134,-52,127,-74,24,-18,25,-55,48,-97
73,-43,-116,-15,95,-79,19,-12,30,-57,44,-109
75,-10,-84,-32,80,-47,13,-3,30,-61,42,-110
120,37,-83,-78,101,-23,8,8,30,-60,40,-105
97,9,-88,-52,92,-40,1,4,30,-60,32,-105
55,13,-42,-33,49,-15,5,3,20,-60,54,-99
67,-3,-70,-32,69,-37,32,17,-6,-60,62,-100
76,-28,-104,-24,90,-65,34,16,-22,-65,45,-91
59,-5,-64,-27,62,-34,25,12,-19,-65,39,-87
112,14,-98,-63,105,-42,20,8,-23,-65,27,-117
101,13,-89,-57,95,-38,11,5,-30,-65,21,-124
69,-27,-96,-21,83,-61,4,0,-30,-65,14,-116
49,-39,-89,-5,69,-64,3,2,-30,-63,6,-107
46,-1,-46,-22,46,-24,16,10,-30,-59,-1,-118
106,25,-82,-65,94,-28,27,-2,-31,-61,-3,-153
62,-23,-85,-19,74,-54,25,7,-27,-56,13,-147
27,-20,-46,-3,37,-33,20,28,-22,-55,2,-145
72,6,-66,-38,69,-30,15,24,-15,-55,-8,-142
80,-44,-124,-18,102,-84,12,22,-11,-54,7,-138
73,-32,-105,-20,89,-68,5,20,-26,-67,5,-164
54,-25,-79,-15,67,-51,8,15,-43,-67,-2,-178
42,-41,-82,0,63,-61,21,16,-35,-59,-9,-173
79,-31,-110,-24,95,-70,21,7,-30,-52,-27,-175
103,-45,-148,-29,126,-96,17,14,-51,-46,-51,-189
76,-27,-103,-24,89,-65,12,36,-35,-39,-32,-194
26,-32,-59,3,43,-45,11,35,-18,-42,-16,-185
55,-45,-100,-5,78,-72,3,35,-27,-60,-31,-181
90,13,-77,-51,83,-32,13,35,3,-33,-3,-176
95,63,-31,-79,63,16,25,35,29,-16,13,-167
76,61,-15,-68,45,23,11,35,24,-31,-8,-183
52,38,-14,-45,33,12,-8,31,9,-7,2,-185
81,100,19,-90,31,59,-54,27,12,30,42,-164
74,77,3,-76,35,40,-54,25,22,34,54,-164
84,41,-42,-62,63,0,-43,21,8,-3,20,-167
61,17,-44,-38,52,-14,-15,19,-24,-41,-5,-176
40,-74,-114,17,77,-94,39,40,-48,-59,-20,-201
65,-35,-100,-15,82,-67,21,46,-32,-51,-29,-208
70,-69,-139,0,105,-104,20,45,-33,-55,-40,-216
59,-64,-122,3,91,-93,29,41,-61,-84,-63,-238
48,-51,-98,2,73,-74,12,41,-49,-75,-49,-227
40,-112,-152,37,96,-132,18,39,-46,-71,-44,-234
11,-94,-105,41,58,-99,26,41,-29,-53,-20,-213
48,-68,-117,10,83,-92,3,31,-34,-62,-32,-237
27,-66,-93,20,60,-79,3,-4,-60,-79,-51,-254
23,-104,-128,41,76,-116,44,52,-24,-48,-43,-227
97,-81,-177,-8,138,-129,35,55,-25,-52,-36,-233
63,-105,-167,21,115,-136,52,104,40,8,13,-238
117,77,-41,-97,79,18,-12,158,240,275,411,135
416,518,101,-467,157,309,-279,-188,274,539,1247,1158
390,511,121,-451,134,316,-345,-608,-203,128,920,933
22,68,46,-45,-12,57,-160,-613,-594,-451,-104,-203
14,-148,-163,67,89,-155,-60,-257,-312,-326,-114,-291
66,-89,-155,12,111,-122,8,-4,-43,-89,39,-206
21,-93,-114,36,68,-103,64,53,-20,-40,36,-228
43,-92,-135,25,89,-113,65,83,-9,-34,66,-208
63,-96,-159,17,111,-127,65,78,-11,-54,42,-230
47,-92,-139,23,93,-115,62,81,1,-39,58,-205
34,-50,-85,8,60,-67,58,80,2,-39,69,-219
23,-107,-130,42,76,-119,62,80,13,-31,77,-205
-28,-106,-78,67,25,-91,76,78,27,-26,78,-209
28,-76,-104,25,66,-90,78,73,37,-29,92,-203
-12,-92,-80,53,34,-86,68,71,34,-31,85,-201
16,-78,-95,31,56,-86,63,66,26,-29,95,-199
53,-92,-146,20,100,-119,58,64,23,-34,108,-194
34,-73,-107,20,71,-90,40,57,12,-33,104,-194
88,-59,-146,-14,117,-102,65,81,40,-36,104,-186
-35,-97,-62,66,14,-79,81,102,76,-17,113,-178
12,-80,-92,34,52,-85,52,92,65,-4,134,-174
125,-52,-177,-36,152,-115,46,90,79,-15,152,-152
95,-41,-136,-27,116,-88,37,85,96,17,162,-111
82,-24,-107,-29,95,-65,27,81,91,30,175,-95
111,14,-98,-62,105,-42,21,76,115,42,195,-72
128,78,-50,-103,89,14,1,65,117,56,227,-23
103,73,-30,-88,66,21,-16,54,106,58,262,14
103,93,-10,-98,57,42,-42,32,101,61,281,57
94,149,55,-121,19,102,-50,14,91,55,311,107
175,160,-15,-167,95,72,-52,1,87,54,317,120
160,184,24,-172,68,103,-72,-10,74,50,326,127
71,134,63,-103,4,98,-62,-19,60,49,332,131
116,91,-25,-103,70,32,-48,-26,47,35,302,103
103,80,-22,-91,62,29,-26,-33,39,17,269,68
69,28,-42,-48,55,-7,-4,-41,33,3,229,33
120,19,-101,-69,110,-40,-1,-47,25,-15,208,9
125,16,-109,-70,117,-46,6,-47,17,-28,193,1
101,6,-94,-53,97,-44,12,-44,11,-47,161,-7
94,-1,-96,-46,95,-48,41,-44,14,-66,170,-16
60,-17,-76,-21,68,-46,58,-38,6,-55,194,-20
57,-35,-92,-11,74,-63,48,-44,-9,-57,179,-20
46,-66,-112,10,79,-89,43,-78,-24,-91,156,-16
11,-64,-76,27,44,-70,36,-81,-41,-90,142,-15
52,-27,-79,-12,66,-53,28,-65,-41,-75,139,-14
95,-14,-108,-40,102,-61,27,-59,-37,-70,136,-16
85,-23,-108,-31,97,-65,29,-48,-33,-55,133,-14
55,-44,-100,-5,78,-71,31,-51,-30,-72,130,-16
18,-67,-84,25,51,-75,44,-49,-25,-92,129,-23
23,-60,-83,19,53,-71,44,-43,-26,-89,122,-15
16,-56,-73,20,45,-64,33,-48,-33,-90,117,-11
22,-52,-73,15,48,-63,39,-38,-26,-90,113,1
15,-47,-62,16,39,-55,14,-61,-38,-90,96,-18
-32,-39,-7,36,-12,-23,1,-31,-1,-87,128,-22
17,-30,-48,7,33,-39,31,0,26,-84,146,23
28,-24,-53,-2,41,-38,31,-54,-11,-85,124,25
46,-13,-59,-16,53,-36,28,-71,-20,-80,112,20
92,-13,-106,-39,99,-59,28,-74,-31,-80,121,19
87,4,-84,-45,86,-40,23,-72,-32,-79,130,12
42,-18,-61,-12,52,-39,27,-64,-23,-74,122,11
24,-32,-56,4,41,-44,17,-63,-25,-76,117,5
41,-24,-65,-8,53,-44,23,-56,-17,-73,112,0
42,-13,-54,-14,48,-33,34,-52,-16,-69,105,-9
114,17,-97,-65,106,-40,6,-51,-26,-71,102,-12
92,-23,-116,-34,104,-69,-12,-47,-24,-69,99,-23
65,-37,-102,-14,84,-69,18,-48,-12,-71,100,-21
99,-6,-104,-46,101,-54,32,-40,-2,-68,99,-25
113,11,-102,-62,107,-45,-8,-46,-24,-76,52,-48
55,-39,-95,-8,75,-67,-23,-72,-57,-95,39,-47
-28,-61,-34,45,3,-47,-14,-35,-52,-90,54,-36
20,-39,-59,10,40,-49,-12,-29,-47,-85,46,-41
52,-41,-93,-5,73,-66,-6,-53,-44,-80,42,-63
26,0,-26,-13,26,-13,-2,-44,-38,-73,39,-67
15,-27,-42,6,29,-34,16,-43,-35,-69,66,-63
47,-48,-96,1,72,-72,14,-37,-29,-63,75,-62
82,-17,-99,-32,91,-58,5,-33,-23,-60,63,-59
62,14,-48,-38,55,-17,-3,-29,-16,-55,63,-60
55,31,-24,-43,39,3,-10,-24,-9,-51,53,-47
88,45,-43,-66,65,1,-19,-26,-2,-38,51,-36
41,86,45,-64,-2,65,-46,-22,13,-7,78,-25
7,95,88,-51,-41,91,-51,-20,20,9,86,-24
127,96,-31,-112,79,32,-60,-20,10,6,69,-31
119,46,-73,-82,96,-14,-64,-16,-3,-24,54,-41
26,-26,-52,0,39,-38,-52,-14,-13,-45,28,-71
69,-51,-120,-9,94,-85,-49,-10,-19,-50,9,-87
76,-67,-143,-4,110,-105,-40,-10,-37,-67,-7,-106
73,-70,-143,-1,109,-106,-36,-3,-46,-65,-7,-117
62,-83,-145,10,104,-114,-28,-8,-40,-79,-17,-134
25,-104,-129,40,78,-116,-18,-13,-38,-93,-41,-152
25,-102,-127,39,76,-114,-5,-23,-34,-89,-41,-148
8,-123,-131,57,70,-127,18,-22,-29,-86,-30,-138
46,-79,-125,16,86,-102,15,-9,-38,-85,-38,-145
83,-63,-145,-10,114,-104,-5,-9,-35,-84,-20,-128
51,-96,-146,23,99,-121,-12,39,-18,-78,-32,-138
30,-89,-119,29,75,-104,-8,34,-20,-64,3,-127
54,-123,-177,35,115,-150,5,99,63,22,49,-142
228,155,-73,-191,150,41,-111,78,245,294,486,314
426,560,133,-493,146,346,-350,-277,237,516,1283,1313
253,417,164,-335,44,290,-343,-611,-272,30,743,850
-7,1,8,3,-8,4,-140,-594,-600,-508,-215,-233
48,-109,-158,31,103,-133,-64,-227,-263,-309,-130,-229
62,-76,-138,8,100,-107,-35,-1,-35,-98,-28,-177
37,-87,-124,25,81,-105,-6,16,-29,-72,-13,-182
69,-59,-128,-4,99,-93,1,59,21,-43,19,-165
44,-77,-121,17,83,-99,18,86,34,-49,8,-185
28,-102,-130,38,79,-116,26,83,19,-37,21,-166
18,-93,-111,38,65,-102,27,58,8,-38,0,-182
58,-92,-150,17,104,-121,24,75,21,-31,8,-170
67,-86,-152,10,110,-118,25,92,28,-27,-7,-178
61,-81,-142,10,101,-111,25,91,30,-20,-8,-173
62,-78,-140,8,101,-109,25,96,39,-11,-6,-175
40,-53,-94,7,67,-73,25,98,46,-8,0,-175
25,-78,-103,27,64,-90,25,112,57,7,38,-168
12,-89,-100,39,56,-94,25,140,80,20,49,-165
60,-49,-109,-5,85,-79,25,146,80,29,43,-158
74,-72,-146,-1,110,-109,25,114,63,18,30,-156
44,-88,-132,22,88,-110,25,121,69,11,30,-150
71,-60,-131,-5,101,-95,14,159,105,33,65,-146
67,-61,-128,-3,97,-94,-5,160,116,31,72,-134
95,-24,-119,-36,107,-71,-10,160,109,51,98,-102
164,52,-113,-108,138,-30,-25,160,126,75,128,-63
96,54,-42,-75,68,6,-29,160,138,75,147,-29
108,81,-27,-94,67,27,-39,158,145,100,187,-11
144,104,-40,-124,92,32,-83,126,131,102,195,-2
61,106,46,-84,8,76,-85,86,111,93,198,15
125,148,22,-137,51,85,-91,54,103,85,210,18
153,131,-23,-142,88,54,-101,42,92,78,202,8
79,101,22,-90,28,62,-83,36,81,69,196,-5
90,84,-7,-87,48,38,-72,29,65,56,188,-16
94,64,-30,-79,62,17,-56,23,49,44,160,-40
45,34,-12,-39,29,11,-43,15,34,17,128,-80
59,3,-56,-31,57,-26,-31,35,16,7,107,-101
59,0,-60,-29,59,-30,-17,48,3,-18,98,-125
5,-28,-34,12,20,-31,-12,43,-1,-44,94,-143
-16,-63,-46,40,15,-54,-16,44,-4,-38,89,-131
5,-71,-76,33,40,-73,-21,39,-8,-41,85,-128
19,-71,-90,26,55,-80,-16,40,-10,-39,80,-135
2,-69,-70,34,36,-69,-11,49,-5,-28,77,-149
28,-72,-100,22,64,-85,-8,47,-7,-42,72,-181
29,-68,-97,20,63,-82,-2,45,-17,-45,69,-187
14,-65,-79,25,47,-72,1,37,-23,-30,67,-179
-18,-51,-33,35,7,-41,7,39,-21,-20,59,-180
0,-43,-43,22,21,-43,13,67,-18,-23,62,-174
34,-32,-65,-1,50,-48,19,66,-16,-43,56,-174
13,8,-5,-10,9,2,24,56,-12,-46,70,-169
40,-50,-90,5,65,-70,22,52,-10,-44,73,-166
40,-65,-105,13,73,-84,19,43,-8,-47,72,-163
21,22,1,-21,9,12,21,40,-1,-43,94,-158
33,-6,-39,-13,36,-22,20,32,6,-50,78,-155
70,-48,-118,-11,95,-83,21,26,13,-65,101,-151
96,-2,-98,-47,97,-50,19,19,19,-66,120,-150
94,15,-80,-54,87,-32,13,13,9,-64,107,-149
83,-5,-89,-38,86,-47,7,6,-13,-66,110,-145
81,-2,-82,-39,82,-42,1,11,-26,-64,102,-145
61,-24,-86,-18,73,-54,4,24,-26,-68,101,-144
37,-56,-93,10,66,-74,11,15,-25,-70,99,-139
24,-55,-79,16,52,-66,15,9,-23,-70,105,-136
4,-47,-51,22,27,-48,21,-1,-20,-71,111,-133
22,-60,-82,19,53,-71,27,-7,-19,-69,103,-128
46,-61,-107,7,77,-83,29,-3,-25,-81,100,-126
82,-33,-114,-25,98,-73,25,-32,-36,-92,96,-120
50,-48,-99,-1,75,-73,22,-43,-33,-86,87,-124
-25,-64,-39,45,7,-51,20,-38,-30,-84,102,-140
-5,-61,-57,33,26,-59,16,-41,-28,-79,117,-140
19,-57,-76,19,48,-66,15,-33,-24,-76,115,-139
39,-51,-90,6,65,-70,11,-37,-26,-74,112,-140
17,-50,-68,17,43,-59,6,-34,-24,-77,110,-140
7,-38,-45,16,26,-41,2,-37,-27,-90,110,-138
6,-70,-76,32,41,-73,-3,-55,-40,-85,110,-127
20,-30,-51,5,36,-40,-7,-53,-40,-77,122,-118
75,75,0,-75,38,37,-11,-51,-36,-72,125,-108
34,80,45,-57,-6,62,11,-43,-33,-63,125,-93
36,79,42,-58,-3,60,-6,-54,-30,-59,135,-74
78,103,25,-91,26,64,-57,-70,-29,-53,160,-51
85,94,9,-90,38,51,-57,-56,-24,-55,167,-51
44,63,18,-54,13,40,-44,-39,-26,-45,158,-46
28,27,0,-27,14,13,-36,-48,-24,-69,137,-67
45,-25,-70,-10,58,-47,-25,-71,-35,-123,89,-115
16,-66,-82,25,49,-74,-19,-69,-49,-128,92,-116
51,-55,-106,3,79,-80,-7,-74,-48,-130,110,-112
48,-54,-102,3,76,-78,20,-91,-60,-145,101,-119
23,-86,-109,32,66,-97,39,-90,-61,-144,106,-111
8,-88,-96,41,52,-92,30,-88,-58,-145,97,-119
-39,-79,-40,59,1,-59,27,-93,-58,-145,102,-101
17,-77,-94,30,56,-85,23,-85,-51,-143,100,-98
27,-67,-95,20,61,-81,17,-94,-60,-147,98,-85
-6,-64,-58,36,26,-61,15,-70,-37,-131,105,-79
24,-81,-105,29,65,-93,6,-76,-46,-137,91,-101
15,-121,-137,53,76,-129,29,-11,14,-77,121,-77
92,84,-8,-88,50,38,-37,36,181,154,418,170
316,499,183,-408,67,341,-278,-278,223,418,1221,1145
297,533,236,-415,31,384,-352,-630,-158,115,1093,1178
-26,135,161,-55,-94,148,-165,-728,-651,-559,-8,-28
-57,-117,-60,87,2,-88,-63,-435,-429,-511,-133,-224
20,-92,-112,36,66,-102,-27,-136,-84,-205,100,-78
-33,-73,-40,54,3,-56,45,-122,-76,-174,101,-134
16,-64,-80,24,49,-72,54,-95,-42,-138,137,-84
14,-60,-75,23,45,-67,45,-93,-47,-145,103,-112
3,-64,-68,31,36,-66,40,-87,-39,-138,115,-83
1,-53,-54,26,27,-53,31,-77,-31,-133,97,-93
18,-50,-69,16,44,-59,27,-75,-30,-132,96,-79
41,-43,-85,1,63,-64,28,-65,-20,-125,96,-76
37,-37,-74,1,56,-55,31,-67,-20,-124,93,-73
42,-34,-75,-4,59,-54,29,-60,-12,-116,98,-62
23,-25,-48,1,36,-36,30,-60,-9,-115,92,-63
-8,-10,-2,9,-2,-6,30,-55,-6,-108,96,-58
-45,-32,12,38,-28,-10,28,-54,27,-104,113,-62
29,-37,-66,4,48,-52,22,-49,25,-101,124,-58
77,-21,-98,-28,88,-59,13,-39,-1,-94,117,-72
48,-20,-68,-14,59,-44,9,-33,37,-93,128,-72
107,9,-97,-58,102,-44,-2,-23,42,-82,120,-65
53,15,-38,-34,45,-12,-8,-18,60,-47,133,-47
-40,-16,24,28,-32,4,-24,-7,106,-38,154,-16
73,34,-39,-53,55,-2,-53,3,100,-39,144,2
130,108,-22,-119,76,43,-54,-4,91,-26,181,40
84,109,25,-97,30,66,-72,-17,88,-18,212,81
61,123,62,-92,-1,93,-94,-28,76,-7,217,95
58,149,91,-103,-16,120,-105,-38,83,0,238,122
52,178,126,-115,-37,152,-96,-62,92,3,252,149
74,200,126,-138,-26,163,-104,-77,69,4,249,146
104,181,77,-142,13,129,-117,-74,50,-7,237,136
62,155,92,-109,-15,123,-90,-71,44,-11,214,108
84,101,16,-93,34,58,-88,-69,15,-20,176,57
99,43,-56,-71,78,-6,-76,-86,-21,-55,134,8
70,24,-46,-47,58,-11,-61,-88,-23,-68,107,-18
23,20,-3,-22,13,8,-61,-78,-11,-60,83,-30
-16,-5,10,11,-13,3,-56,-73,-14,-60,53,-49
5,-46,-51,21,28,-48,-55,-65,-21,-80,40,-67
-16,-25,-8,21,-4,-16,-50,-60,-27,-93,35,-73
13,10,-2,-12,7,4,-50,-55,-35,-89,27,-77
86,-6,-92,-40,89,-49,-46,-50,-39,-91,19,-81
57,-36,-94,-10,76,-65,-45,-46,-52,-90,13,-95
-29,-64,-36,47,4,-50,-45,-41,-66,-90,5,-111
-35,-62,-27,49,-4,-44,-44,-37,-60,-85,0,-105
14,-53,-67,20,41,-60,-46,-32,-55,-77,-6,-100
30,-48,-78,10,54,-63,-42,-26,-52,-71,-10,-97
41,-40,-81,-1,61,-60,-40,-19,-46,-64,7,-90
22,-36,-58,7,40,-47,-40,-13,-43,-58,13,-93
-42,-27,15,35,-29,-6,-37,-6,-37,-52,5,-95
-30,-17,13,23,-21,-2,-34,0,-32,-49,3,-95
47,3,-44,-24,45,-20,-37,5,-29,-51,-4,-95
55,4,-51,-29,53,-24,-44,12,-23,-49,-4,-95
18,-5,-23,-7,21,-14,-46,16,-21,-51,1,-95
18,-17,-35,0,27,-26,-44,20,-12,-49,6,-89
1,-48,-48,24,25,-48,-46,11,-17,-46,9,-91
-35,-38,-3,36,-15,-20,-43,22,-37,-44,7,-88
3,-46,-49,21,26,-47,-49,31,-42,-42,1,-94
-56,-75,-19,66,-18,-47,-64,-5,-62,-61,-4,-118
-14,-61,-46,38,16,-53,-61,10,-66,-67,-7,-119
32,-54,-86,12,59,-70,-54,37,-59,-64,-14,-113
-62,-44,18,53,-39,-13,-49,34,-60,-65,-13,-111
14,-41,-55,13,35,-48,-44,40,-53,-65,-2,-107
22,-30,-52,4,37,-40,-45,43,-57,-63,16,-99
5,-32,-37,14,21,-34,-45,46,-59,-60,6,-114
-2,-69,-68,36,33,-68,-45,29,-63,-54,-25,-124
-7,-53,-46,30,20,-49,-45,17,-65,-54,-31,-114
37,-44,-82,4,60,-63,-45,10,-67,-73,-37,-138
5,-69,-75,33,40,-72,-46,-1,-62,-74,-37,-142
-4,-67,-63,36,30,-65,-44,37,-27,-68,-29,-108
15,-53,-69,19,42,-61,-46,42,-37,-66,-25,-125
-41,-75,-35,58,-3,-55,-43,41,-58,-61,-18,-154
-55,-86,-31,71,-12,-58,-47,69,-49,-58,-16,-142
45,-28,-73,-8,59,-50,-42,53,-48,-51,-36,-140
11,27,16,-19,-2,21,-41,44,-43,-40,-35,-136
-21,-1,20,11,-21,9,-38,32,-41,-30,-21,-130
13,12,-1,-12,7,5,-30,30,-31,-23,-15,-128
5,80,75,-43,-35,78,-92,31,-36,-11,4,-120
-2,54,56,-27,-29,55,-98,29,-27,5,10,-95
-61,35,96,13,-79,65,-55,57,17,45,47,-53
-4,-16,-12,10,4,-14,-54,27,-13,-2,15,-93
35,-56,-91,11,63,-73,-41,-4,-85,-68,-69,-162
-30,-76,-46,54,8,-61,-34,13,-94,-54,-68,-164
-25,-134,-109,80,42,-121,-28,19,-86,-56,-66,-158
-11,-96,-85,54,37,-90,-21,43,-78,-49,-63,-156
-3,-82,-79,43,38,-80,-18,60,-75,-60,-58,-167
30,-74,-105,22,68,-89,-11,61,-63,-73,-55,-195
28,-83,-111,28,70,-97,-5,58,-61,-66,-41,-188
12,-107,-119,48,66,-113,-17,62,-84,-66,-72,-189
24,-90,-114,34,69,-102,-19,59,-87,-60,-71,-193
0,-76,-76,38,38,-76,-19,58,-65,-61,-49,-183
-33,-75,-42,54,5,-58,6,56,-44,-47,-44,-198
-20,-115,-95,67,38,-105,42,93,-12,-19,-9,-174
70,5,-66,-37,68,-31,-6,180,117,133,132,-74
279,342,63,-311,108,202,-222,-30,256,460,888,809
347,528,182,-438,82,355,-386,-453,17,386,1195,1318
61,240,180,-151,-60,209,-247,-653,-546,-281,170,222
-72,-100,-28,86,-22,-64,-115,-412,-521,-468,-282,-334
-56,-125,-69,91,7,-97,-43,-27,-117,-127,-31,-186
-30,-83,-53,57,12,-68,36,65,-64,-53,-38,-223
43,-57,-100,7,72,-78,33,56,-63,-60,-29,-177
5,-60,-65,28,35,-62,36,71,-43,-38,-31,-192
-28,-79,-51,53,12,-64,34,75,-39,-32,-23,-172
-67,-88,-21,78,-23,-54,29,73,-26,-29,-16,-169
-30,-84,-54,57,12,-69,31,69,-25,-48,-14,-167
-14,-74,-60,44,24,-67,29,68,-14,-37,11,-162
-27,-72,-44,50,9,-58,30,63,-10,-35,19,-166
-12,-59,-47,36,18,-53,55,92,-4,-27,30,-156
-57,-74,-17,66,-20,-45,65,101,-6,-23,29,-163
-61,-78,-17,70,-22,-47,54,90,-4,-17,37,-154
-5,-60,-55,33,25,-57,52,90,-10,-11,38,-150
5,-52,-57,24,31,-54,44,83,-3,-4,45,-142
-21,-45,-25,33,2,-35,40,81,10,3,47,-136
-21,-43,-21,32,0,-32,34,99,32,7,60,-129
-6,-36,-30,21,12,-33,27,119,43,26,86,-123
-14,-35,-21,25,4,-28,21,117,33,20,89,-109
-17,-24,-7,20,-5,-15,14,109,65,30,116,-92
14,-6,-20,-4,17,-13,7,103,76,48,133,-72
13,48,35,-31,-11,41,-2,96,86,59,166,-42
73,93,19,-83,27,56,-13,90,84,74,204,-7
57,113,56,-85,0,84,-21,81,82,81,231,50
32,169,137,-101,-53,153,-37,63,96,100,277,98
73,176,102,-125,-15,139,-69,31,48,88,269,102
14,154,140,-84,-63,147,-81,13,48,69,262,98
15,151,136,-83,-61,143,-69,8,56,61,257,106
31,148,117,-89,-43,132,-56,2,32,49,247,93
16,105,90,-61,-37,97,-38,-8,27,41,244,59
4,72,69,-38,-33,70,-10,-16,10,29,194,20
-3,66,69,-31,-36,67,19,-26,2,13,167,-6
13,53,40,-33,-14,46,26,-33,-12,-6,167,-4
3,36,34,-20,-16,35,24,-40,-41,-29,146,-28
-2,-10,-8,6,4,-9,26,-51,-61,-48,137,-52
3,-5,-8,1,6,-6,23,-48,-69,-52,132,-38
-45,22,68,11,-57,45,38,-45,-69,-48,129,-29
-56,4,60,26,-58,32,47,-43,-65,-53,126,-31
-73,-18,55,45,-64,18,44,-39,-61,-66,121,-28
-59,-3,57,31,-58,27,46,-39,-58,-73,119,-25
-18,16,34,1,-26,24,44,-30,-54,-66,113,-25
-44,-5,39,24,-41,17,46,-27,-55,-67,110,-22
-27,-19,8,23,-17,-5,41,-19,-55,-63,103,-10
-42,8,50,17,-46,29,37,-16,-49,-49,101,3
-18,10,28,4,-24,19,31,-49,-61,-67,94,-14
-38,3,41,17,-39,21,28,-51,-56,-58,99,-16
-58,7,65,25,-62,36,23,-30,-34,-35,110,0
-33,-13,20,23,-26,3,17,-27,-34,-39,91,19
-79,19,98,30,-89,58,45,-15,-21,-28,116,68
-26,44,70,-9,-49,57,20,-23,-29,-40,139,83
1,37,37,-19,-18,37,-13,-47,-60,-69,125,75
-30,42,72,-6,-51,56,27,-42,-58,-71,126,75
-30,39,69,-5,-49,54,47,-53,-68,-80,119,69
-26,41,66,-8,-46,53,41,-59,-74,-91,116,66
-5,39,43,-17,-24,41,37,-40,-49,-84,110,62
-40,30,70,5,-55,50,32,-40,-52,-82,99,60
-88,19,108,35,-98,63,28,-40,-70,-75,91,57
-81,12,93,35,-87,52,23,-40,-69,-73,79,54
-118,-10,108,64,-113,49,20,-40,-66,-65,68,51
-88,-13,75,50,-81,31,20,-40,-63,-62,57,49
-32,13,45,9,-39,29,20,-40,-61,-87,44,46
-69,11,80,29,-75,46,19,-40,-58,-92,36,43
-75,-25,50,50,-63,13,21,-40,-53,-88,34,41
-107,-42,65,74,-86,12,14,-40,-47,-86,31,37
-110,-36,74,73,-92,19,8,-40,-43,-84,28,36
-68,-13,55,40,-61,21,0,-38,-36,-85,25,32
-54,-28,26,41,-40,-1,-2,-33,-31,-76,26,30
-56,-23,32,39,-44,4,22,-30,-45,-68,26,29
-19,60,79,-21,-49,69,39,-26,-51,-60,24,28
0,84,84,-42,-42,84,30,-22,-50,-53,20,23
-1,78,79,-39,-40,78,29,-20,-50,-44,18,27
3,78,75,-41,-36,76,22,-25,-50,-31,14,34
-42,107,148,-33,-95,127,-47,-34,-49,-19,17,36
7,141,134,-75,-64,138,-79,-35,-42,-15,37,62
10,113,103,-62,-47,108,-58,-34,-27,-9,36,69
-66,54,119,6,-93,86,-47,-27,-22,-23,25,44
-92,18,110,37,-101,64,-40,-30,-60,-57,5,15
-114,-18,95,66,-104,38,-24,-19,-65,-59,-31,-4
-35,-63,-29,49,-3,-46,-23,-32,-61,-63,-58,-21
2,-56,-57,27,30,-57,-18,-20,-79,-83,-81,-46
-76,-94,-19,85,-28,-56,13,22,-81,-87,-88,-36
-42,-105,-63,74,11,-83,-17,-19,-79,-82,-81,-43
-29,-60,-31,45,1,-45,-35,-35,-81,-82,-90,-73
-88,-63,25,76,-56,-19,-21,-18,-80,-78,-80,-55
-36,-46,-10,41,-13,-28,-24,-3,-78,-80,-88,-65
-7,-63,-56,35,25,-60,-14,-4,-76,-66,-76,-49
-67,-33,34,50,-50,1,-14,5,-61,-47,-74,-54
-55,-25,31,40,-43,3,2,33,-62,-65,-76,-40
-52,-115,-63,84,6,-89,26,127,33,17,-21,-26
82,151,68,-117,7,109,-101,96,201,278,387,355
355,544,189,-449,83,366,-342,-242,224,521,1203,1371
204,463,258,-334,-27,360,-334,-591,-256,85,760,1028
-53,76,129,-12,-91,103,-165,-619,-667,-518,-274,-122
-83,-130,-47,107,-18,-89,-109,-252,-325,-338,-214,-149
-109,-90,19,99,-64,-35,-36,-10,-73,-89,-95,-78
-93,-49,44,70,-68,-2,16,37,-74,-54,-96,-92
-117,-64,53,90,-85,-5,12,84,-34,-29,-65,-60
-115,-60,55,88,-85,-2,18,70,-37,-42,-93,-83
-70,-36,34,52,-52,-1,12,78,-13,-22,-70,-54
-53,-60,-7,56,-23,-33,11,73,-15,-25,-88,-69
-72,-46,25,59,-48,-10,9,76,-8,-5,-74,-51
-59,-43,16,51,-38,-14,13,70,-4,3,-77,-54
-75,-78,-3,77,-36,-41,22,79,-14,-8,-70,-45
-123,-44,80,83,-101,18,20,103,-17,-17,-67,-42
-84,-23,60,53,-72,18,12,98,-7,-28,-65,-38
-68,-8,60,38,-63,25,6,92,2,-22,-58,-32
-80,-27,53,53,-66,13,-1,112,31,-14,-58,-23
-91,-42,49,66,-70,3,-8,138,39,-5,-50,-19
-35,2,37,16,-36,19,-10,134,30,2,-48,-44
-58,-14,44,36,-51,15,-11,136,64,10,-42,-40
-60,17,77,21,-68,47,-16,134,70,13,-38,-20
69,74,5,-72,32,39,-29,146,75,35,-25,-8
38,66,27,-52,5,46,-51,154,94,54,6,28
-24,50,74,-13,-49,62,-58,142,93,46,33,56
-9,62,71,-26,-40,66,-51,139,99,68,75,88
15,121,106,-68,-46,113,-64,128,115,62,104,121
-14,150,164,-69,-89,157,-62,124,115,70,122,141
-41,148,189,-54,-115,169,-54,105,101,96,150,178
7,173,166,-91,-80,170,-103,65,84,74,142,175
38,183,145,-110,-54,163,-111,54,62,61,136,161
71,180,109,-126,-19,144,-90,56,47,50,129,150
39,169,130,-105,-45,150,-76,52,33,41,120,126
-22,102,123,-40,-73,112,-43,49,19,33,114,109
-23,70,93,-24,-58,81,-36,51,5,23,84,77
-27,67,93,-20,-60,80,-30,46,-8,15,59,47
-33,50,83,-9,-58,67,-22,40,-14,7,50,32
-32,44,76,-6,-54,60,-16,35,-21,-1,42,18
-33,35,68,-1,-51,51,-9,29,-13,-10,33,8
-56,21,78,17,-67,49,-11,24,-17,-14,24,0
-112,-25,88,68,-100,31,-10,18,-49,-31,13,-9
-111,-35,77,73,-94,21,-9,12,-57,-43,2,-15
-79,-22,57,50,-67,17,-16,-4,-54,-38,-11,-24
-110,-10,100,60,-105,45,-12,22,-56,-25,-8,-22
-47,20,67,13,-57,44,5,59,-54,-43,11,-30
-20,22,42,-1,-31,32,14,50,-55,-45,1,-46
-112,3,115,54,-114,59,16,47,-55,-13,-2,-40
-133,-25,109,79,-121,42,15,43,-55,-24,-1,-35
-49,-25,24,37,-36,-1,12,37,-55,-42,-24,-32
-64,-2,62,33,-63,30,8,34,-55,-40,-18,-26
-115,12,127,51,-122,70,5,26,-55,-38,-6,-22
-51,20,71,15,-61,45,-1,19,-55,-50,12,-17
-122,27,149,48,-136,88,4,12,-50,-23,40,-7
-117,45,163,36,-140,104,17,4,-47,-27,38,1
-43,50,92,-3,-68,70,14,-3,-43,-69,33,17
-46,34,80,6,-63,57,10,-2,-40,-55,27,32
-31,23,54,3,-43,39,7,2,-35,-50,21,26
-51,18,69,17,-60,44,2,5,-33,-40,17,41
-38,23,62,7,-50,42,0,9,-24,-36,13,46
-69,35,104,17,-87,70,7,9,-16,-42,43,44
-90,19,108,35,-99,63,16,-16,-42,-52,57,46
-70,5,75,32,-73,40,18,-39,-52,-84,47,44
-110,19,129,45,-120,74,7,-40,-49,-91,46,61
-117,7,124,55,-121,66,-2,-40,-50,-89,39,63
-105,-9,96,57,-100,43,11,-40,-51,-94,36,55
-38,9,47,14,-42,28,17,-41,-65,-95,29,52
-30,9,39,10,-34,23,11,-39,-65,-95,16,44
-70,16,86,27,-78,51,9,-43,-65,-90,6,40
-34,28,62,3,-49,45,4,-52,-60,-82,-6,46
-43,17,60,13,-52,38,1,-53,-60,-77,-6,52
-61,6,68,27,-65,37,-6,-40,-59,-68,4,57
-108,-22,86,65,-97,32,-20,-43,-53,-64,-10,60
-133,17,149,58,-141,83,6,-28,-47,-55,-10,65
-95,61,156,17,-126,108,28,-30,-42,-52,-1,81
-28,66,94,-20,-61,80,25,-53,-38,-67,6,86
-57,90,147,-17,-102,119,17,-21,-27,-70,20,85
-83,129,212,-23,-147,170,-51,-71,-45,-60,23,83
-3,165,168,-82,-86,166,-78,-113,-32,-36,42,109
-43,119,162,-39,-103,141,-52,-90,-10,-7,50,128
-84,68,152,8,-118,110,-48,-93,-29,-10,35,98
-109,26,135,42,-122,80,-38,-81,-50,-71,-16,57
-125,5,129,60,-127,67,-33,-75,-76,-103,-58,33
-114,3,116,55,-115,59,-26,-73,-75,-108,-65,35
-132,-47,86,89,-109,19,-17,-56,-75,-122,-75,30
-95,-49,46,72,-70,-1,-1,-70,-82,-119,-78,26
-99,-42,58,70,-78,8,-3,-92,-78,-119,-92,28
-131,-37,93,84,-112,28,-17,-84,-79,-121,-97,18
-124,-29,95,76,-109,33,-15,-71,-68,-119,-80,25
-142,-49,92,95,-117,21,-16,-62,-61,-114,-90,8
-90,1,90,45,-90,45,-13,-48,-55,-98,-70,19
-65,22,87,21,-76,54,-17,-32,-41,-84,-81,1
-119,-42,77,80,-98,18,-11,-46,-32,-81,-83,8
-85,-38,47,61,-66,5,11,61,56,3,-30,20
65,226,162,-146,-49,194,-108,32,198,276,431,472
271,582,311,-427,-20,446,-347,-339,177,474,1194,1450
174,486,312,-331,-69,399,-335,-681,-362,-62,596,941
-120,81,201,19,-161,141,-139,-651,-691,-606,-368,-131
-151,-82,69,117,-110,-7,-71,-255,-300,-344,-224,-37
-77,-39,37,58,-57,-1,-45,-45,-87,-133,-124,10
-126,-23,103,74,-114,40,-18,-20,-66,-123,-135,1
-126,15,141,56,-134,77,15,24,-32,-86,-115,41
-41,49,89,-4,-66,69,2,5,-59,-96,-132,-14
-90,14,104,37,-97,59,-27,18,-33,-78,-126,-3
-143,-6,137,75,-140,65,4,47,-3,-79,-159,-16
-93,3,95,45,-94,49,2,55,8,-72,-144,-6
-59,29,88,15,-73,58,-3,56,-3,-70,-153,-12
-58,28,86,15,-72,56,-22,59,-6,-67,-149,-11
-97,12,109,42,-103,60,-22,60,-13,-62,-149,-3
-145,13,158,66,-152,85,10,76,-13,-59,-148,28
-105,-12,93,58,-98,40,-1,88,-3,-51,-141,43
-40,31,71,4,-55,51,-34,84,5,-48,-141,38
-51,74,125,-11,-88,99,-55,89,14,-40,-135,41
-82,41,123,20,-103,82,-56,91,29,-37,-132,40
-128,16,145,56,-137,80,-55,88,50,-30,-129,50
-103,28,131,38,-118,79,-54,88,59,-15,-113,50
-42,61,103,-10,-72,82,-62,82,56,-6,-93,50
-81,55,136,13,-108,95,-51,92,69,32,-74,80
-93,88,182,2,-138,134,-68,112,102,55,-41,118
-57,134,192,-38,-125,163,-98,93,107,55,-11,146
-20,169,189,-75,-105,179,-106,79,103,55,2,167
-26,174,201,-74,-114,187,-118,73,107,54,14,193
-61,155,217,-47,-139,186,-109,62,102,85,58,231
-2,222,224,-110,-113,222,-141,55,63,59,69,240
12,231,219,-121,-103,224,-163,47,28,33,45,230
-53,189,242,-69,-147,215,-142,41,24,48,36,220
-22,181,203,-80,-113,192,-133,33,13,34,17,191
-42,167,209,-63,-125,188,-118,25,7,33,1,163
-62,135,197,-37,-130,166,-108,21,-2,19,-54,131
-22,92,115,-35,-69,103,-97,18,-11,-10,-104,88
-89,80,169,4,-129,124,-88,25,-24,-24,-111,79
-87,68,156,9,-122,112,-84,36,-35,-11,-112,90
-65,57,122,3,-94,89,-85,31,-36,-2,-118,71
-92,49,142,21,-117,95,-85,29,-52,-28,-154,56
-69,51,120,8,-94,85,-85,24,-56,-46,-162,42
-67,48,115,9,-91,81,-85,21,-55,-45,-160,28
-65,45,110,10,-88,77,-78,18,-53,-43,-157,30
-48,46,94,0,-72,70,-67,13,-64,-52,-165,32
-88,39,127,24,-108,83,-57,49,-61,-51,-182,46
-128,30,158,49,-143,94,-49,70,-33,-24,-157,48
-147,-1,145,74,-146,72,-38,60,-34,-14,-147,30
-117,56,173,30,-145,114,-53,61,-51,-34,-170,20
-53,67,120,-7,-87,94,-64,56,-62,-45,-177,12
-70,44,114,13,-92,79,-66,54,-57,-37,-164,6
-78,49,128,14,-103,88,-81,71,-55,-31,-155,33
-96,27,123,35,-109,74,-75,76,-51,-27,-153,54
-109,89,198,10,-154,143,-69,74,-50,-19,-155,55
-69,67,136,1,-103,101,-68,75,-43,-12,-155,60
-120,27,147,47,-134,87,-60,75,-23,-2,-155,59
-80,69,150,5,-115,109,-59,75,-20,4,-156,74
-15,75,90,-30,-53,83,-70,69,-20,-2,-153,78
-62,71,133,-4,-98,102,-71,64,-27,-8,-150,55
-38,61,99,-12,-69,80,-61,58,-37,-13,-148,47
-95,54,149,20,-122,101,-51,54,-34,-19,-144,42
-95,49,144,22,-119,96,-50,45,-35,-24,-142,41
-98,28,126,35,-112,77,-26,52,-51,-25,-138,36
-149,33,182,58,-165,107,-47,71,-56,-28,-151,35
-83,55,138,14,-111,96,-82,67,-55,-37,-167,57
-121,28,149,46,-135,88,-72,61,-55,-33,-159,57
-134,20,154,57,-144,87,-66,58,-56,-30,-156,41
-71,63,134,4,-103,98,-57,52,-54,-28,-151,29
-75,65,140,5,-108,102,-57,51,-47,-25,-146,33
-72,47,118,12,-95,82,-40,56,-33,-23,-145,49
-89,39,128,25,-109,83,-56,53,-21,-2,-144,42
-107,43,150,32,-129,96,-29,62,-58,-20,-158,48
-63,35,98,14,-81,67,-79,57,-74,-40,-164,42
-129,55,184,37,-156,119,-36,68,-64,-1,-154,47
-112,84,196,14,-154,139,121,84,-67,9,-151,69
-12,77,89,-33,-51,83,102,66,-32,27,-132,62
