I,II,III,aVR,aVL,aVF,V1,V2,V3,V4,V5,V6
94,224,130,-159,-18,177,24,75,215,266,156,71
113,254,141,-184,-14,197,10,75,216,275,167,81
111,261,150,-186,-20,205,-10,74,220,290,194,104
124,256,131,-190,-4,193,-10,79,214,300,219,119
128,241,113,-185,7,177,4,80,208,289,213,111
122,198,76,-160,22,137,36,80,200,273,182,102
94,145,52,-120,21,98,65,106,195,245,127,94
61,99,38,-80,11,68,78,118,183,210,70,60
46,67,21,-57,12,43,85,113,144,179,39,26
29,50,21,-40,4,35,103,127,124,161,21,11
21,40,19,-30,1,29,121,148,122,151,11,-5
11,32,21,-22,-5,26,117,142,119,138,0,-12
3,22,19,-13,-8,21,113,153,114,127,-10,-18
-4,16,20,-6,-12,18,110,182,112,116,-20,-24
-27,12,39,7,-33,25,105,180,106,106,-29,-22
-32,9,41,11,-37,25,107,179,106,111,-30,-19
-52,6,58,23,-55,31,134,181,124,124,-30,-16
-74,1,75,36,-74,38,148,178,132,126,-29,-14
-66,1,67,33,-66,34,143,184,140,112,-50,-9
-63,10,73,27,-69,41,149,184,146,108,-88,-14
-70,21,91,24,-81,55,150,187,164,142,-95,-23
-77,22,99,27,-88,60,150,199,181,167,-79,-8
-81,19,101,31,-91,60,144,201,183,179,-68,5
-86,20,106,32,-96,63,139,199,193,187,-61,10
-89,20,109,35,-99,64,133,196,189,184,-57,13
-91,20,110,35,-100,65,128,194,190,186,-51,15
-93,21,114,36,-104,67,121,195,190,184,-45,19
-90,26,116,32,-104,71,126,195,190,185,-41,20
-81,29,111,26,-96,70,147,195,190,184,-45,23
-83,27,110,28,-97,68,143,195,185,177,-53,26
-81,24,104,28,-93,64,150,195,186,173,-53,25
-86,21,107,32,-96,64,162,194,183,167,-48,25
-108,18,127,45,-118,72,154,198,180,162,-45,24
-116,15,132,51,-125,73,153,206,178,155,-42,26
-120,13,133,53,-127,73,148,203,188,165,-37,30
-127,10,137,58,-132,73,144,200,204,182,-35,30
-130,10,140,60,-135,75,153,198,201,181,-41,34
-128,11,139,58,-133,75,157,194,199,180,-43,36
-126,8,135,59,-130,71,154,198,200,180,-39,35
-112,23,135,44,-124,79,155,207,199,180,-37,35
-97,38,135,29,-117,86,150,206,201,180,-34,34
-101,33,135,33,-119,84,150,201,198,181,-31,37
-104,31,135,36,-119,83,149,199,195,185,-29,40
-110,28,138,41,-124,83,144,194,192,185,-26,40
-115,25,140,45,-128,82,141,191,190,187,-23,40
-115,25,140,45,-128,82,137,187,187,190,-20,40
-115,25,140,45,-128,82,134,183,184,190,-18,40
-115,25,140,45,-128,82,130,177,186,186,-13,43
-114,25,139,44,-127,82,134,174,184,185,-22,46
-109,25,134,42,-122,79,135,168,186,185,-36,44
-103,25,128,39,-116,76,135,165,184,186,-29,46
-96,29,125,33,-111,77,139,181,188,184,-15,44
-75,44,119,15,-98,82,141,194,205,188,-10,47
-30,86,116,-28,-73,100,138,199,215,217,17,70
-16,102,118,-43,-67,109,131,221,246,221,36,76
-38,82,121,-22,-80,101,120,230,260,209,27,77
-52,68,120,-8,-86,94,113,222,245,211,21,66
-70,54,124,8,-97,88,103,180,194,186,-9,46
-78,49,127,14,-103,88,95,133,147,157,-25,44
-81,39,120,20,-101,80,94,130,142,128,-44,20
-75,48,123,13,-99,85,82,118,121,137,-18,31
-75,30,105,22,-90,67,88,125,126,115,-33,9
-70,45,115,13,-93,80,71,106,102,119,-8,21
-65,24,89,20,-77,56,81,117,107,107,-10,4
-58,39,97,9,-77,67,86,124,128,117,-14,5
-29,102,130,-37,-80,116,108,215,302,286,61,54
135,255,120,-195,7,187,-11,143,334,493,317,260
407,502,96,-455,155,299,-358,-341,-301,766,1063,959
213,84,-128,-149,171,-22,-258,-361,-753,45,444,676
-160,-337,-177,249,9,-257,28,-58,-673,-787,-649,-181
-166,-246,-81,206,-42,-163,78,58,-430,-483,-445,-190
-125,-176,-51,151,-37,-113,100,129,-164,-240,-311,-141
-96,-49,47,73,-72,-1,71,104,-22,-65,-167,-80
-68,13,81,27,-74,46,67,87,49,43,-78,-23
-61,39,100,11,-81,69,60,76,79,44,-100,-26
-52,50,102,1,-77,75,54,72,92,79,-53,-2
-57,40,97,8,-78,68,51,70,89,54,-72,-12
-51,49,99,1,-75,74,42,62,90,73,-49,8
-50,43,92,3,-71,67,40,61,90,60,-68,5
-51,45,96,3,-74,71,33,59,89,67,-62,15
-35,55,90,-10,-63,72,36,61,87,68,-68,17
-15,73,87,-29,-51,80,32,59,84,69,-72,20
-17,69,86,-26,-51,77,30,60,85,72,-66,25
-4,73,77,-34,-41,74,30,60,80,75,-60,27
-18,76,93,-29,-56,84,26,58,80,82,-50,33
-30,74,104,-23,-67,89,21,53,81,83,-43,34
-36,79,115,-22,-75,97,17,50,86,90,-36,38
-61,86,147,-13,-104,116,12,47,89,93,-24,40
-51,100,151,-24,-102,125,8,42,106,110,-11,44
-35,120,154,-43,-95,137,2,40,122,129,7,61
-4,150,153,-73,-79,151,-24,28,122,135,31,81
22,188,166,-105,-72,176,-55,12,133,159,52,103
43,221,177,-132,-67,199,-63,10,144,185,91,132
70,236,166,-153,-49,201,-72,10,151,201,120,159
77,238,161,-158,-43,199,-81,10,155,201,123,160
71,226,155,-149,-42,190,-69,10,148,190,113,146
66,209,143,-138,-39,176,-54,10,144,179,100,136
60,171,111,-116,-26,141,-39,26,137,153,89,123
28,119,91,-74,-32,105,-18,47,133,123,66,101
-1,86,87,-43,-44,86,2,57,126,103,37,70
-14,64,78,-25,-47,71,24,56,108,82,9,39
-20,53,73,-17,-47,63,35,55,80,63,-6,27
-24,42,66,-10,-45,54,35,54,53,46,-13,21
-28,33,61,-3,-45,46,35,49,49,30,-23,14
-33,22,55,5,-45,39,35,51,47,22,-32,8
-34,15,49,10,-42,31,34,47,44,18,-39,1
-34,10,45,12,-40,27,37,45,41,12,-46,3
-24,5,29,9,-27,17,40,45,40,6,-53,6
-32,2,34,15,-33,17,40,45,45,1,-59,4
-63,-5,58,34,-60,26,40,45,45,4,-57,6
-64,-2,62,33,-63,29,40,45,45,11,-51,4
-63,7,69,28,-66,38,40,40,44,17,-48,7
-57,16,73,21,-65,44,37,43,49,24,-42,10
-45,23,68,11,-57,45,34,66,56,31,-41,10
-33,34,67,-1,-50,50,31,70,55,37,-45,10
-21,42,63,-10,-42,52,29,64,55,40,-45,10
-23,37,60,-7,-42,48,25,62,55,40,-45,10
-26,35,61,-4,-44,48,25,57,55,40,-45,6
-34,31,65,1,-50,48,25,54,53,40,-46,5
-35,30,65,2,-50,47,25,51,48,40,-44,5
-38,27,65,5,-52,46,37,46,45,37,-50,5
-41,24,65,8,-54,45,41,43,42,31,-61,5
-40,25,65,7,-53,45,39,40,37,26,-60,5
-42,20,62,11,-52,41,37,34,34,23,-60,5
-39,20,59,9,-49,39,34,43,31,17,-60,5
-37,19,56,9,-47,37,35,51,30,16,-60,5
-39,14,53,12,-47,33,35,50,30,20,-58,5
-39,11,50,14,-45,31,35,48,30,22,-52,5
-41,7,48,17,-45,28,35,44,31,25,-48,1
-42,4,45,19,-44,24,35,45,27,29,-43,0
-43,0,42,21,-42,21,36,41,25,30,-39,0
-43,-3,40,23,-41,18,32,39,25,27,-34,0
-42,-6,36,24,-39,15,30,40,21,22,-30,0
-44,-9,35,26,-40,13,30,39,20,19,-30,-2
-42,-11,31,27,-36,9,26,41,20,15,-29,-5
-40,-15,25,28,-32,5,24,38,20,12,-25,-8
-33,-14,20,23,-26,3,25,35,20,8,-25,-10
-25,-10,15,17,-20,2,25,33,20,5,-26,-14
-18,-10,7,14,-13,-1,25,30,20,5,-36,-15
-17,-10,8,13,-12,-1,25,27,19,5,-54,-12
-39,-11,28,25,-34,9,25,25,23,5,-58,-6
-40,-9,30,24,-35,10,26,29,25,5,-51,-2
-30,-6,23,18,-26,8,22,33,30,9,-46,3
-17,4,22,6,-20,13,20,36,30,21,-41,7
-5,7,12,-1,-9,9,19,45,40,27,-34,13
-13,22,34,-5,-24,28,22,57,67,42,-32,25
-6,52,58,-23,-32,55,29,79,88,76,-23,46
6,48,42,-27,-18,45,32,100,119,83,-26,57
11,51,39,-31,-14,45,28,105,124,79,-17,52
-25,13,38,6,-31,25,32,97,105,65,-21,40
-56,-14,42,35,-48,14,28,51,50,36,-35,33
-58,-14,44,35,-50,15,31,43,24,27,-45,25
-78,-34,44,55,-61,5,25,45,14,12,-67,14
-99,-38,61,68,-80,11,19,37,12,19,-44,19
-114,-52,62,83,-88,5,21,42,11,-6,-65,-2
-106,-35,71,70,-88,18,3,23,-7,6,-28,12
-124,-69,55,96,-90,-7,28,43,20,-20,-61,-16
-81,-2,79,41,-80,38,38,52,63,59,-13,9
-47,54,101,-4,-75,78,71,155,286,241,82,41
135,314,179,-225,-22,246,-183,-144,-19,485,528,415
385,446,61,-416,162,253,-491,-605,-746,533,1002,928
132,-162,-294,15,213,-228,-264,-429,-971,-436,22,348
-119,-396,-277,258,79,-336,-52,-181,-824,-880,-621,-208
-133,-288,-156,211,12,-222,17,-29,-434,-432,-335,-138
-122,-213,-91,168,-16,-152,70,58,-152,-251,-263,-141
-57,-68,-12,63,-22,-40,49,22,-34,-84,-116,-64
-55,-54,1,55,-28,-27,42,17,24,-48,-94,-49
-43,-16,27,29,-35,6,22,17,30,-29,-66,-36
-53,-17,36,35,-44,9,27,22,45,-7,-52,-28
-64,-13,51,39,-57,19,24,19,36,-12,-50,-33
-53,-7,46,30,-49,19,20,20,45,3,-52,-20
-48,-10,38,29,-43,14,21,21,44,-6,-72,-25
-38,-1,36,19,-37,17,19,18,45,7,-51,-14
-31,-5,26,18,-29,11,21,14,45,2,-58,-17
-21,5,26,7,-24,16,19,10,44,9,-46,-14
-32,4,36,14,-34,20,20,4,47,16,-46,-12
-31,11,42,10,-36,26,21,29,54,24,-40,-9
-26,13,39,7,-33,26,19,49,64,33,-32,-10
-23,17,40,3,-32,28,15,43,76,37,-27,-3
-16,24,41,-4,-29,32,12,51,99,54,-18,6
-3,36,38,-16,-21,37,7,48,110,71,-15,14
15,67,52,-41,-19,59,5,42,128,95,-4,24
10,78,68,-44,-29,73,-2,38,162,123,8,37
33,114,81,-73,-24,97,-12,31,187,156,30,65
57,155,98,-106,-21,126,-23,27,214,195,73,91
66,175,109,-121,-21,142,-32,20,229,215,110,119
81,200,119,-141,-19,159,-42,16,222,230,120,135
92,202,109,-147,-9,155,-60,9,214,225,110,148
88,189,101,-139,-7,145,-56,6,206,215,102,153
71,152,81,-112,-5,116,-42,22,198,195,93,136
60,98,39,-79,10,69,-28,41,184,158,83,116
39,52,13,-46,13,32,-8,46,160,131,51,83
31,19,-13,-25,22,3,1,44,128,97,16,51
13,-8,-21,-2,17,-15,9,47,89,67,0,30
-9,-30,-21,19,6,-25,17,42,65,52,-23,22
-22,-40,-18,31,-2,-29,24,47,59,38,-39,16
-29,-47,-18,39,-5,-33,31,60,52,30,-40,8
-29,-40,-11,35,-9,-25,38,53,47,28,-45,1
-18,-41,-23,30,2,-31,38,50,43,24,-44,-4
-48,-60,-12,54,-18,-36,34,45,36,21,-40,3
-88,-57,31,72,-59,-12,32,40,31,17,-40,9
-6,-41,-35,23,15,-38,29,36,33,15,-40,7
36,-36,-72,0,55,-54,26,35,38,11,-40,-2
12,-33,-45,11,29,-38,25,35,41,10,-40,-4
11,-31,-41,10,26,-36,30,31,45,15,-36,0
-6,-27,-21,17,8,-24,34,30,45,19,-34,0
-14,-25,-12,20,-1,-18,39,30,45,23,-31,0
-21,-22,-2,22,-9,-12,38,42,50,29,-29,0
-24,-20,4,21,-14,-8,34,43,49,28,-24,0
-22,-20,2,20,-12,-9,35,33,45,24,-28,4
-19,-20,-1,20,-9,-11,35,29,42,25,-44,5
-13,-20,-6,17,-4,-13,35,20,37,25,-45,5
-9,-21,-11,15,1,-16,35,16,34,25,-45,5
-19,-35,-16,27,-2,-25,35,31,30,25,-50,5
-26,-45,-20,36,-3,-32,35,37,25,20,-50,5
-24,-49,-25,37,1,-37,35,34,20,15,-50,5
-33,-54,-21,44,-6,-37,35,36,17,11,-50,5
-35,-55,-20,45,-7,-37,35,34,11,6,-62,5
-40,-55,-15,48,-12,-35,37,36,12,1,-66,5
-39,-55,-16,47,-11,-35,41,33,19,2,-64,5
-18,-55,-37,37,10,-46,40,28,25,7,-65,5
-16,-55,-39,36,12,-47,40,25,29,10,-65,5
-24,-55,-31,40,4,-43,40,22,26,13,-65,5
-30,-60,-29,45,0,-44,41,17,23,18,-59,5
-37,-60,-23,49,-7,-41,44,14,21,20,-53,5
-41,-61,-20,51,-11,-40,45,27,17,27,-49,5
-38,-65,-27,52,-5,-46,45,32,14,35,-42,5
-30,-65,-35,48,3,-50,45,29,17,38,-37,5
-27,-62,-35,45,4,-49,45,31,20,43,-34,5
-25,-60,-35,43,5,-47,42,30,20,45,-35,5
-21,-56,-35,39,7,-46,40,30,20,45,-35,5
-20,-54,-35,38,8,-44,40,32,20,48,-35,8
-15,-51,-35,33,10,-43,40,36,20,50,-35,13
-10,-50,-40,30,15,-45,40,35,16,50,-35,15
-21,-60,-39,41,9,-50,40,35,15,55,-41,20
-17,-59,-42,38,13,-50,45,35,16,58,-42,24
-6,-50,-44,28,20,-47,45,35,14,60,-34,25
2,-44,-46,22,24,-45,46,40,19,65,-23,16
6,-38,-44,16,25,-41,51,41,38,66,-18,26
14,-31,-46,9,30,-38,49,57,64,100,7,56
15,-30,-45,8,31,-37,49,82,92,117,25,50
24,-23,-47,0,36,-35,43,87,104,104,20,41
38,-47,-84,5,61,-65,46,90,88,96,12,33
6,-65,-71,30,39,-68,39,43,27,64,-4,21
-13,-64,-51,39,19,-57,32,10,5,51,-18,20
-31,-85,-54,58,12,-70,28,8,-12,34,-48,7
-37,-77,-40,58,2,-58,15,-3,-28,45,-49,17
-44,-94,-49,69,3,-71,18,4,-17,23,-75,-3
-61,-86,-26,74,-17,-56,3,-18,-27,36,-46,11
-61,-108,-47,85,-7,-77,32,6,13,20,-73,-10
-51,-63,-12,57,-19,-37,23,19,17,63,-24,0
-18,-1,17,9,-17,8,42,121,236,252,58,41
177,215,38,-196,69,127,-146,-95,73,450,399,348
399,395,-3,-397,200,196,-471,-594,-660,552,947,903
149,-134,-284,-7,217,-209,-294,-490,-984,-285,122,434
-146,-431,-285,289,70,-358,-67,-223,-890,-841,-637,-208
-164,-329,-165,246,0,-247,12,-83,-514,-433,-371,-162
-141,-266,-124,204,-8,-194,75,49,-202,-225,-271,-150
-92,-126,-34,109,-28,-80,54,52,-69,-56,-121,-73
-91,-109,-18,100,-36,-63,61,30,2,1,-85,-44
-83,-74,10,78,-46,-31,46,15,-6,20,-81,-36
-88,-61,28,74,-58,-16,43,23,20,50,-60,-17
-87,-59,28,73,-57,-15,36,17,34,39,-68,-25
-78,-48,30,62,-54,-9,37,26,42,57,-45,-15
-90,-51,39,71,-65,-6,42,37,40,46,-52,-24
-77,-39,38,58,-58,0,38,29,44,59,-35,-17
-70,-41,30,55,-50,-5,41,28,46,53,-35,-22
-62,-33,29,47,-45,-1,39,23,44,61,-25,-17
-52,-31,21,41,-36,-5,39,19,46,68,-22,-13
-49,-27,22,38,-35,-3,34,27,45,70,-19,-10
-52,-23,29,37,-40,3,31,37,45,70,-15,-7
-53,-20,33,37,-43,6,28,32,46,72,-14,-2
-34,-15,19,24,-26,2,23,30,47,72,-10,0
-25,-5,20,15,-23,7,21,27,62,85,-10,12
-36,7,42,14,-39,24,15,25,95,112,7,31
-25,27,52,-1,-39,39,6,21,118,135,26,44
-11,58,69,-23,-41,64,-6,9,135,163,50,64
-1,88,89,-44,-45,88,-17,3,157,184,80,87
34,130,96,-82,-31,113,-30,-8,171,214,111,119
71,157,86,-115,-8,121,-47,-14,164,229,135,148
74,146,73,-110,0,109,-51,-7,156,222,131,157
71,135,63,-103,4,99,-48,-3,148,216,121,152
69,118,48,-94,10,83,-45,3,141,202,115,143
42,77,35,-60,3,56,-45,9,129,166,97,129
3,24,21,-14,-9,22,-27,13,108,129,68,106
-23,-18,5,20,-14,-7,-3,26,84,103,37,74
-24,-35,-11,29,-6,-22,2,32,56,82,13,48
-21,-49,-28,35,4,-38,8,27,34,62,-2,37
-25,-61,-36,43,6,-48,11,25,22,43,-15,25
-35,-70,-35,53,0,-52,16,21,15,36,-28,19
-44,-79,-35,62,-4,-57,20,20,5,31,-40,20
-45,-80,-35,63,-5,-57,20,24,-3,26,-42,20
-46,-80,-34,63,-6,-57,20,25,-16,20,-36,20
-41,-80,-39,61,-1,-59,20,25,-22,16,-31,20
-48,-80,-33,64,-8,-56,20,25,-14,19,-28,17
-59,-79,-20,69,-19,-49,19,25,-8,20,-21,12
-55,-70,-15,63,-20,-43,23,23,-1,20,-23,9
-50,-60,-10,55,-20,-35,25,20,5,22,-31,6
-46,-50,-5,48,-20,-27,25,17,7,29,-26,1
-42,-40,2,41,-22,-19,29,15,11,34,-21,1
-45,-41,4,43,-24,-18,31,12,15,30,-18,5
-56,-57,-1,57,-28,-28,29,9,13,30,-12,4
-57,-61,-4,60,-26,-33,26,14,9,30,-11,7
-52,-59,-7,56,-22,-33,25,15,10,30,-17,10
-46,-57,-12,52,-16,-35,25,15,10,30,-23,10
-39,-53,-15,47,-11,-34,25,15,10,27,-28,6
-45,-57,-12,51,-16,-34,25,15,10,25,-34,5
-56,-65,-9,60,-23,-36,25,15,3,25,-39,5
-60,-66,-6,63,-26,-36,25,15,-4,25,-40,0
-61,-64,-3,63,-28,-34,25,15,-11,25,-40,0
-66,-66,0,66,-32,-32,25,12,-19,25,-40,-1
-64,-64,-1,64,-31,-32,25,9,-26,19,-40,-5
-60,-65,-5,63,-27,-35,25,6,-30,14,-40,-5
-65,-72,-7,68,-29,-39,20,3,-30,9,-40,-5
-60,-71,-11,65,-24,-41,20,1,-30,3,-40,-5
-57,-70,-13,64,-22,-41,19,-2,-30,-3,-40,-5
-53,-69,-15,62,-19,-42,15,-5,-30,-3,-40,-8
-37,-65,-28,51,-4,-46,15,-6,-30,1,-40,-11
-34,-65,-31,49,-1,-47,17,-9,-25,0,-40,-14
-59,-68,-9,64,-25,-39,24,-10,-25,0,-36,-16
-71,-71,0,71,-36,-35,29,-6,-24,0,-35,-20
-51,-68,-18,59,-16,-43,35,-5,-20,0,-35,-19
-46,-65,-20,56,-13,-42,39,0,-20,5,-30,-15
-51,-62,-11,57,-20,-37,34,-1,-22,5,-30,-13
-52,-60,-8,56,-22,-34,29,-5,-26,6,-30,-9
-57,-58,-1,58,-28,-29,23,-5,-30,10,-29,-7
-58,-55,3,56,-30,-26,17,-10,-30,10,-31,-4
-60,-51,9,56,-34,-21,13,-10,-32,7,-29,-11
-64,-50,14,56,-39,-18,7,-6,-35,5,-31,-18
-62,-45,17,53,-39,-14,4,1,-35,5,-30,-16
-69,-45,24,57,-46,-11,-2,8,-32,6,-30,-12
-72,-49,23,60,-48,-12,-5,14,-22,5,-40,-10
-65,-54,11,60,-38,-21,1,21,-15,5,-31,-6
-45,-49,-4,47,-20,-26,10,26,-5,16,-11,-5
4,-10,-14,3,10,-12,17,35,10,35,5,1
30,6,-24,-18,26,-9,27,45,48,51,23,24
37,8,-29,-22,33,-10,28,55,68,42,29,27
26,6,-20,-16,23,-7,23,59,62,34,23,19
-23,-38,-14,31,-4,-26,27,28,30,22,-16,2
-45,-48,-3,47,-21,-25,23,-1,-35,8,-31,-4
-61,-60,0,60,-30,-29,28,6,-35,-11,-48,-21
-65,-60,5,62,-34,-27,22,-11,-50,-22,-49,-29
-62,-66,-4,64,-28,-35,20,-3,-50,-19,-46,-39
-63,-67,-4,65,-29,-35,8,-19,-65,-30,-62,-53
-50,-59,-8,55,-21,-33,-1,-12,-59,-7,-39,-31
-66,-79,-12,72,-26,-45,4,2,-38,-27,-80,-44
-49,-2,47,25,-48,22,26,32,53,98,11,-3
-2,82,84,-40,-43,83,30,99,217,260,123,43
288,377,89,-333,100,232,-306,-336,-246,483,703,588
383,261,-121,-322,252,70,-448,-621,-857,204,749,819
-65,-330,-265,198,100,-298,-159,-361,-993,-735,-386,6
-230,-392,-162,311,-34,-276,-20,-163,-776,-763,-589,-281
-149,-279,-131,214,-9,-205,48,-43,-382,-374,-344,-191
-116,-168,-52,142,-32,-110,68,15,-166,-217,-261,-188
-82,-60,22,70,-52,-18,40,72,-54,-62,-110,-100
-99,-53,46,75,-72,-3,36,41,-20,-53,-143,-107
-95,-35,60,65,-77,12,33,17,-4,-6,-98,-78
-103,-42,61,72,-82,9,36,32,7,-8,-88,-83
-110,-28,81,69,-95,26,36,19,13,9,-59,-72
-105,-28,77,66,-91,24,48,29,40,24,-53,-65
-109,-21,88,65,-98,33,50,22,38,24,-51,-62
-123,-14,109,69,-116,47,53,30,41,35,-37,-53
-121,-11,111,66,-116,50,56,33,39,33,-38,-54
-114,-4,110,59,-112,52,59,37,40,41,-26,-47
-110,0,110,55,-110,55,60,42,46,42,-26,-45
-106,5,110,50,-108,57,54,44,52,52,-17,-40
-101,9,109,46,-105,59,49,46,58,62,-15,-38
-97,14,111,42,-104,62,44,45,66,63,-10,-32
-91,18,109,37,-101,63,38,45,82,73,-5,-26
-76,35,111,21,-94,73,33,45,90,92,-1,-21
-87,46,134,20,-111,90,27,42,111,113,11,-9
-71,72,144,-1,-108,108,19,34,139,142,37,12
-40,112,152,-37,-96,132,11,28,151,162,77,31
-16,144,160,-65,-88,152,-1,20,173,189,117,60
28,180,151,-104,-62,165,-24,17,176,213,149,99
45,191,146,-118,-51,169,-37,20,164,217,171,124
37,179,142,-108,-53,160,-31,20,158,211,169,124
42,171,129,-106,-44,149,-26,20,147,204,156,111
51,158,107,-105,-28,132,-20,20,139,182,144,99
39,116,77,-77,-20,96,-16,19,124,139,118,84
19,71,52,-46,-17,62,-4,25,103,104,87,55
11,44,33,-28,-11,38,21,29,77,73,58,18
4,22,19,-13,-8,20,37,23,43,43,39,-1
-18,7,25,5,-22,16,45,17,17,24,23,-13
-37,-13,25,25,-31,6,43,12,1,7,10,-27
-35,-25,10,29,-22,-7,37,6,-14,-4,4,-30
-32,-32,1,32,-16,-15,34,1,-26,-9,-2,-30
-23,-36,-12,30,-5,-24,29,3,-27,-14,-9,-30
-2,-34,-32,18,16,-33,24,9,-25,-17,-16,-30
3,-36,-39,16,21,-37,21,12,-25,-23,-22,-31
-12,-35,-22,23,6,-28,20,17,-20,-24,-27,-29
-25,-36,-11,30,-6,-23,17,22,-20,-19,-35,-34
-31,-34,-3,33,-14,-18,14,25,-19,-14,-49,-41
-28,-28,0,28,-14,-14,19,24,-13,-10,-51,-35
-26,-23,4,24,-15,-9,38,32,-6,-5,-46,-30
-35,-17,17,25,-26,0,51,38,1,-1,-45,-25
-38,-12,26,24,-32,7,52,33,7,4,-40,-17
-30,-5,25,17,-28,10,56,32,15,5,-40,-17
-35,-13,23,24,-29,5,60,28,11,5,-40,-29
-66,-22,44,44,-55,11,58,26,11,5,-40,-32
-83,-19,64,51,-73,22,55,23,8,4,-40,-27
-91,-20,70,55,-80,25,52,30,16,-1,-40,-25
-75,-20,55,48,-65,18,49,41,23,-4,-40,-21
-40,-20,21,30,-30,1,45,38,-7,-7,-38,-20
-41,-21,19,31,-30,-1,45,35,-17,-12,-27,-24
-46,-25,21,35,-33,-2,50,33,-14,-15,-18,-25
-47,-28,19,38,-33,-5,50,30,-18,-19,-33,-25
-52,-32,21,42,-37,-5,50,28,-20,-24,-42,-25
-54,-35,19,45,-36,-7,50,23,-20,-27,-42,-26
-56,-35,21,45,-38,-7,50,17,-16,-33,-47,-34
-54,-35,20,45,-37,-7,50,14,-15,-34,-49,-35
-55,-35,20,45,-37,-7,50,7,-13,-29,-51,-35
-55,-35,20,45,-37,-7,50,7,-9,-26,-50,-35
-56,-36,20,46,-37,-7,50,6,-12,-23,-50,-35
-54,-34,20,44,-36,-6,50,-6,-31,-18,-50,-35
-50,-30,20,40,-35,-5,50,-4,-35,-15,-50,-38
-50,-30,20,40,-35,-5,50,0,-26,-11,-50,-40
-51,-28,24,39,-37,-2,50,3,-25,-10,-52,-40
-50,-24,25,37,-37,0,50,8,-17,-10,-56,-40
-50,-25,25,37,-37,0,50,10,-16,-10,-58,-40
-58,-28,30,43,-44,1,50,15,-29,-10,-61,-39
-60,-30,30,45,-45,0,47,15,-27,-11,-66,-35
-61,-30,31,45,-46,1,45,16,-20,-15,-61,-33
-65,-30,35,47,-50,2,45,12,-17,-15,-54,-30
-65,-30,34,47,-50,2,45,10,-9,-15,-48,-26
-66,-29,38,47,-52,4,45,10,-6,-15,-40,-25
-65,-25,40,45,-52,7,45,10,-10,-15,-35,-22
-65,-25,40,45,-52,7,50,11,-17,-12,-29,-20
-59,-23,36,41,-48,7,50,10,-21,-8,-23,-20
-48,-19,29,33,-39,5,51,18,-28,-5,-15,-20
-47,-21,26,34,-36,2,55,26,-25,-2,-11,-20
-27,-8,19,17,-23,5,55,43,-1,2,3,-19
10,24,14,-17,-2,19,57,54,16,15,21,-11
27,35,9,-31,9,22,61,65,45,46,42,2
28,21,-6,-24,17,7,66,84,73,48,50,13
46,18,-28,-32,37,-5,55,72,71,38,44,25
56,1,-55,-29,56,-26,45,67,54,24,27,7
32,-16,-48,-8,40,-32,31,27,-12,-12,6,-10
8,-26,-35,9,22,-30,30,2,-38,-28,-16,-14
1,-26,-27,13,15,-26,30,-9,-50,-38,-33,-27
-2,-21,-19,12,9,-20,28,-16,-51,-19,-14,-22
-11,-32,-21,22,5,-26,35,-21,-45,-37,-39,-45
-9,-15,-6,12,-1,-10,22,-36,-61,-10,-8,-30
-17,-35,-18,26,1,-26,49,8,-32,-33,-44,-59
10,27,17,-18,-4,22,33,4,-1,10,-5,-40
16,60,44,-38,-14,52,50,112,217,174,79,-11
239,289,50,-264,95,169,-175,-148,-19,390,479,364
492,405,-87,-449,289,159,-466,-622,-714,403,878,858
168,-146,-314,-11,241,-230,-244,-474,-998,-475,-46,260
-123,-367,-245,245,61,-306,-35,-217,-881,-864,-624,-276
-118,-269,-151,194,17,-210,41,-71,-492,-456,-361,-195
-91,-192,-101,142,5,-146,85,25,-206,-276,-291,-190
-48,-52,-3,50,-22,-27,61,25,-79,-104,-130,-92
-62,-32,30,46,-46,-1,74,13,-16,-60,-107,-77
-56,-3,53,30,-55,25,61,6,-7,-30,-87,-64
-54,3,56,25,-55,30,64,17,11,-9,-74,-55
-51,11,62,20,-57,36,59,13,6,-17,-74,-60
-49,15,64,17,-57,40,60,21,19,1,-52,-45
-50,16,66,16,-58,41,61,19,20,-7,-60,-51
-41,22,63,9,-52,42,59,16,27,8,-43,-37
-42,25,67,8,-55,46,61,14,30,5,-47,-38
-38,24,62,7,-50,43,59,16,30,14,-34,-25
-31,37,68,-4,-50,53,59,13,35,17,-34,-23
-34,25,59,4,-47,41,53,18,34,21,-21,-11
-34,11,45,11,-40,28,49,5,39,27,-15,-15
-8,81,89,-37,-49,85,45,-15,41,29,-41,-46
29,93,64,-61,-18,78,40,18,57,46,-18,-17
27,81,55,-54,-14,68,36,27,71,52,7,10
8,74,65,-41,-29,69,29,16,80,69,15,14
7,92,84,-50,-39,88,17,13,106,97,30,25
22,137,116,-80,-47,126,6,3,123,115,46,37
41,150,109,-96,-34,129,-6,-1,149,146,85,68
70,204,134,-137,-32,169,-21,-9,170,182,112,96
90,221,131,-156,-21,176,-38,-10,165,200,134,122
88,208,119,-148,-16,163,-42,-14,159,194,141,125
94,208,114,-151,-11,161,-34,-16,153,181,129,114
74,180,105,-127,-16,142,-30,-4,146,170,126,111
62,144,82,-104,-10,113,-22,10,140,157,113,98
59,105,46,-82,7,75,-3,26,132,137,93,78
34,69,35,-52,-1,52,15,31,105,108,67,57
19,41,22,-30,-2,31,25,30,71,77,42,39
2,16,14,-9,-6,15,33,29,44,48,25,13
-3,5,8,-2,-6,6,29,24,22,35,8,-1
1,2,0,-1,0,1,26,26,11,29,0,-3
4,-2,-5,-1,5,-3,23,22,6,20,-3,-7
8,-5,-13,-1,11,-9,18,20,1,13,-7,-10
3,-10,-13,4,8,-11,15,20,-2,9,-10,-15
2,-8,-9,3,6,-8,11,16,-8,10,-15,-13
8,-2,-10,-3,10,-6,10,15,-9,10,-13,-9
12,3,-10,-7,11,-3,10,15,-1,11,-9,-11
16,6,-10,-11,13,-2,10,26,6,19,-7,-10
21,12,-10,-16,15,1,10,31,12,26,-4,-10
20,15,-5,-17,12,5,9,29,20,33,-1,-9
16,10,-5,-12,10,2,4,30,28,35,0,-6
13,10,-4,-11,9,3,1,30,34,35,-4,-5
10,10,0,-10,5,5,-2,30,29,35,-7,-5
9,10,0,-9,4,5,-7,26,23,35,-10,-5
13,11,-3,-12,8,4,-10,25,20,35,-13,-4
13,7,-5,-10,9,1,-7,25,15,34,-15,-8
10,5,-5,-7,7,0,-4,25,11,28,-18,-10
10,5,-5,-7,7,0,-1,26,6,22,-20,-11
10,5,-5,-7,7,0,2,22,5,17,-24,-15
9,5,-4,-7,6,0,4,19,5,11,-25,-15
6,5,-1,-5,3,1,7,20,0,6,-25,-20
-1,0,2,0,-2,1,10,16,0,8,-25,-20
-5,0,4,2,-5,2,10,15,-1,10,-25,-21
-7,0,8,3,-8,4,12,15,-5,10,-25,-25
-11,0,10,6,-11,5,16,10,-5,10,-25,-25
-7,0,8,3,-7,4,15,10,-7,10,-25,-23
-1,-2,-1,2,0,-2,11,9,-11,9,-25,-20
3,-6,-8,2,6,-7,10,5,-10,5,-25,-20
0,-5,-5,3,3,-5,10,5,-7,5,-25,-20
-8,-5,3,6,-5,-1,10,7,-4,3,-25,-20
-14,-5,9,9,-11,2,9,10,-1,-1,-24,-20
-21,-5,16,13,-18,5,11,10,1,1,-21,-20
-33,-10,23,21,-28,6,15,10,5,-4,-16,-20
-37,-14,23,26,-30,4,14,10,4,-5,-14,-20
-35,-19,16,27,-25,-1,25,10,0,-5,-9,-20
-29,-18,11,24,-20,-3,32,15,0,-10,-7,-20
-19,-13,6,16,-12,-3,26,20,-2,-10,-1,-18
-9,-10,-1,10,-4,-5,25,23,-5,-10,15,-14
-3,-7,-4,5,1,-5,21,29,-5,-10,11,-15
-1,-2,-1,2,0,-2,20,28,-1,-10,-11,-11
-1,1,2,0,-2,1,23,25,0,-10,-13,-10
0,4,4,-2,-3,4,27,25,0,-10,11,-10
-2,6,8,-2,-5,7,30,22,0,-10,17,-5
-6,4,10,1,-8,6,33,19,0,-7,10,-5
-6,6,12,0,-10,9,37,21,-1,-5,9,-4
-16,3,20,6,-18,11,40,24,-6,-6,3,0
-14,10,25,2,-20,17,40,26,-10,-4,2,0
1,20,19,-11,-10,20,42,24,-15,-6,-4,2
-4,9,13,-3,-9,11,46,27,-8,-2,-16,13
13,22,9,-18,2,16,44,48,12,9,-1,19
53,55,2,-54,25,28,52,62,43,33,37,30
69,67,-1,-68,35,33,65,83,78,47,52,32
64,51,-13,-57,38,19,65,99,82,33,37,22
59,28,-31,-43,45,-1,65,89,70,27,28,14
41,16,-25,-28,33,-4,71,56,36,-6,6,-1
25,9,-16,-17,20,-3,68,28,-11,-21,2,-2
3,-10,-14,4,9,-12,72,32,-29,-35,-21,-16
-5,-5,0,5,-2,-2,60,19,-44,-39,-20,-11
-19,-22,-3,20,-7,-12,67,27,-25,-45,-36,-27
-26,-14,12,19,-19,0,54,10,-46,-49,-44,-25
-26,-19,7,22,-17,-6,58,18,-22,-35,-41,-32
-23,4,27,10,-25,15,67,28,-5,-42,-54,-42
4,74,70,-39,-33,72,94,114,142,110,34,10
109,171,62,-141,23,117,27,90,222,271,205,144
439,453,13,-446,212,233,-340,-411,-340,498,811,758
351,152,-199,-251,275,-23,-338,-541,-845,12,491,677
-80,-338,-258,210,89,-298,-46,-251,-909,-823,-542,-149
-151,-300,-149,226,0,-225,48,-89,-645,-640,-495,-269
-119,-231,-111,175,-4,-171,109,33,-297,-343,-315,-197
-66,-90,-24,78,-20,-57,96,58,-124,-183,-200,-140
-55,-17,37,36,-46,10,94,68,-19,-62,-77,-68
-64,-5,59,34,-61,27,94,62,-9,-67,-83,-69
-36,28,64,4,-50,45,84,57,13,-25,-45,-44
-52,20,73,16,-63,46,88,58,23,-41,-68,-52
-48,28,77,10,-63,53,82,51,24,-24,-47,-35
-46,23,69,11,-58,45,87,53,27,-28,-54,-35
-45,25,70,10,-58,47,84,46,23,-22,-49,-29
-35,29,64,2,-49,46,86,46,27,-17,-45,-30
-15,52,67,-19,-41,59,85,42,23,-17,-43,-31
-14,56,70,-21,-43,63,83,39,28,-10,-37,-29
-15,54,69,-20,-43,61,78,43,30,-12,-36,-31
-12,60,73,-24,-43,66,75,45,34,-5,-29,-29
-15,60,75,-23,-45,67,72,45,36,-6,-28,-24
-16,58,75,-21,-46,66,67,45,42,0,-20,-15
-12,67,79,-28,-45,73,65,45,55,10,-16,-7
7,91,84,-49,-38,87,56,45,68,19,-4,0
17,105,88,-61,-35,96,44,38,87,34,21,9
32,124,91,-78,-30,107,33,30,108,59,55,27
50,155,105,-103,-27,129,21,24,125,79,84,46
69,192,122,-131,-27,157,2,16,144,95,113,71
106,225,119,-166,-7,172,-13,9,151,116,149,97
126,235,109,-180,8,172,-23,2,145,116,162,116
120,222,102,-171,9,162,-28,-4,143,106,151,127
120,208,88,-165,16,148,-17,5,138,97,147,117
111,176,65,-143,23,120,-7,21,135,89,138,103
90,129,39,-110,25,83,2,30,129,71,107,89
86,97,11,-91,37,54,23,43,106,37,70,56
75,64,-12,-69,43,26,46,54,83,12,39,23
57,39,-18,-48,37,10,51,53,58,-7,18,3
54,32,-21,-43,37,5,48,47,28,-27,3,-7
53,28,-25,-40,39,1,60,44,17,-52,-11,-9
48,24,-25,-36,36,0,71,38,11,-62,-18,-13
44,19,-25,-31,34,-3,70,35,4,-59,-26,-17
40,15,-25,-27,32,-5,70,40,-2,-61,-34,-20
40,15,-25,-27,32,-5,70,40,-9,-60,-41,-25
40,15,-25,-27,32,-5,70,40,-6,-60,-48,-27
37,15,-22,-26,29,-4,67,40,3,-54,-54,-24
29,15,-14,-22,21,1,62,40,11,-47,-52,-21
21,15,-6,-17,13,4,59,42,19,-41,-46,-18
15,17,2,-16,6,9,56,46,26,-34,-42,-15
19,28,9,-23,5,18,51,49,30,-27,-37,-14
31,37,6,-35,13,21,51,53,33,-25,-33,-10
34,36,1,-35,16,18,57,55,35,-25,-28,-5
33,31,-1,-32,17,15,55,50,35,-25,-25,-3
34,29,-6,-31,20,11,55,46,35,-25,-25,2
33,24,-9,-29,21,7,55,44,35,-25,-25,5
33,21,-13,-27,23,4,55,39,34,-25,-25,2
33,18,-15,-25,24,1,55,36,29,-31,-25,-1
29,14,-15,-21,21,0,55,32,26,-38,-21,-4
27,12,-15,-19,21,-1,55,30,23,-42,-20,-7
24,9,-15,-16,19,-3,55,30,18,-46,-20,-10
21,6,-15,-13,18,-4,55,30,15,-49,-16,-10
26,4,-22,-15,23,-9,55,30,12,-53,-14,-10
34,1,-33,-17,34,-16,54,30,7,-55,-17,-10
37,0,-37,-18,37,-19,50,30,4,-50,-20,-10
35,0,-35,-17,35,-17,50,30,1,-50,-20,-10
35,0,-35,-17,35,-17,50,30,-4,-50,-22,-10
31,0,-32,-15,31,-16,50,30,-6,-50,-26,-14
30,0,-29,-15,29,-14,50,30,-12,-50,-25,-15
30,-1,-31,-15,31,-16,46,28,-18,-50,-22,-15
30,1,-29,-15,29,-14,45,24,-24,-50,-19,-20
30,-1,-31,-14,31,-16,45,22,-29,-50,-20,-20
30,2,-28,-16,29,-13,41,19,-27,-50,-20,-20
50,14,-36,-32,43,-11,39,16,-24,-50,-20,-20
66,11,-55,-38,60,-22,42,15,-21,-49,-19,-20
59,4,-55,-31,57,-25,45,15,-18,-46,-15,-20
56,0,-56,-27,56,-28,45,15,-15,-43,-15,-20
53,-7,-61,-23,57,-33,45,15,-16,-40,-15,-20
50,-10,-60,-20,55,-35,45,15,-20,-37,-15,-16
48,-10,-58,-19,53,-34,45,14,-22,-35,-15,-15
44,-10,-54,-17,49,-31,42,18,-25,-32,-15,-15
46,-10,-56,-17,51,-32,37,20,-37,-30,-15,-15
45,-10,-54,-17,49,-32,35,20,-41,-26,-15,-15
45,-10,-55,-17,50,-32,30,20,-36,-24,-15,-16
48,-6,-55,-21,52,-30,27,20,-35,-20,-16,-20
45,-5,-50,-20,48,-27,24,21,-30,-20,-14,-20
47,-5,-51,-21,49,-28,18,14,-30,-25,-10,-23
46,0,-47,-23,47,-23,13,10,-22,-25,-9,-25
65,0,-65,-32,65,-32,6,1,-14,-23,-5,-26
82,1,-81,-42,81,-39,2,6,-5,-12,-5,-18
97,16,-81,-57,89,-32,-12,34,6,-8,5,-5
120,42,-78,-81,99,-18,-44,52,35,18,39,21
132,54,-78,-93,105,-12,-67,77,65,42,46,31
153,53,-100,-103,126,-23,-88,70,58,23,33,19
123,25,-99,-74,111,-36,-109,64,53,13,28,12
84,-2,-86,-40,85,-44,-157,43,3,-24,10,-3
77,-1,-79,-38,78,-40,-204,-2,-39,-47,15,-6
57,-18,-75,-19,66,-46,-196,-9,-36,-62,-4,-25
53,-12,-65,-21,60,-38,-201,-24,-54,-55,8,-25
35,-34,-70,0,53,-52,-215,-15,-46,-59,-12,-44
32,-21,-54,-6,43,-37,-232,-41,-69,-55,-6,-39
32,-31,-63,0,48,-47,-212,-7,-43,-50,-5,-46
21,-12,-33,-4,27,-22,-209,-5,-41,-60,-12,-58
51,58,6,-55,22,32,-178,71,125,88,92,-14
210,173,-36,-191,123,68,-277,23,158,254,281,161
537,441,-96,-489,316,173,-651,-505,-447,465,873,789
389,65,-324,-226,356,-129,-599,-570,-916,-111,414,601
-23,-383,-360,203,169,-371,-313,-267,-950,-896,-580,-215
-89,-296,-207,193,59,-251,-243,-117,-659,-642,-446,-260
-76,-245,-169,161,47,-206,-179,15,-314,-367,-280,-200
-21,-109,-88,65,34,-98,-177,24,-139,-202,-152,-150
-4,-36,-32,20,14,-33,-175,7,-38,-83,-60,-89
-4,-19,-14,12,5,-16,-173,-8,-33,-93,-72,-93
0,-13,-14,7,7,-13,-177,-5,-13,-59,-33,-61
-5,-21,-17,14,6,-19,-172,-6,-10,-69,-57,-68
13,0,-13,-6,14,-6,-174,-12,-11,-55,-33,-55
23,7,-16,-15,20,-5,-167,-8,-8,-63,-42,-63
38,25,-13,-31,26,5,-167,-8,-12,-55,-32,-59
24,17,-7,-21,16,5,-163,-3,-9,-54,-31,-60
33,22,-11,-27,22,5,-160,-2,-10,-55,-28,-60
42,19,-23,-30,32,-2,-161,2,-3,-48,-22,-53
42,24,-18,-33,30,3,-165,5,1,-47,-21,-52
48,35,-12,-41,29,11,-165,5,5,-42,-14,-47
43,35,-8,-39,25,13,-165,5,10,-38,-13,-44
35,34,-1,-35,18,16,-165,5,14,-36,-2,-40
35,38,4,-37,15,21,-164,5,22,-28,7,-33
49,58,9,-54,20,33,-169,5,42,-10,17,-19
63,80,17,-71,22,48,-173,6,59,4,29,-4
87,106,19,-96,33,62,-178,0,82,21,42,3
103,138,34,-121,34,86,-181,-8,109,52,66,25
121,168,47,-145,37,107,-187,-14,132,85,99,55
160,204,44,-182,57,124,-202,-22,136,104,128,81
167,217,50,-192,58,133,-200,-30,128,110,148,102
170,209,39,-190,65,124,-192,-34,125,104,165,99
173,201,28,-188,72,115,-186,-26,117,94,160,87
164,166,2,-165,81,84,-175,-17,113,87,132,76
149,124,-24,-136,87,50,-158,-8,104,61,103,64
120,86,-34,-102,77,25,-125,0,78,24,72,38
106,44,-62,-75,84,-9,-109,5,53,3,43,8
97,17,-80,-57,88,-31,-105,13,30,-28,18,-13
86,1,-85,-43,85,-42,-100,19,6,-57,2,-29
71,-15,-86,-27,79,-50,-96,27,-6,-61,-9,-36
64,-21,-85,-21,74,-52,-91,29,-11,-64,-23,-40
66,-19,-85,-23,75,-51,-87,25,-17,-67,-32,-40
62,-24,-86,-19,74,-55,-79,25,-22,-69,-28,-40
59,-23,-83,-18,72,-53,-73,23,-29,-73,-27,-41
53,-27,-81,-13,68,-54,-65,20,-27,-75,-23,-39
48,-19,-67,-14,58,-43,-61,20,-22,-74,-21,-41
43,-22,-65,-10,54,-43,-54,23,-15,-67,-19,-36
33,-18,-52,-7,42,-35,-51,26,-11,-66,-13,-35
31,-19,-50,-6,40,-34,-47,29,-3,-54,-6,-35
40,-14,-54,-13,47,-34,-40,32,5,-39,2,-29
45,6,-39,-25,42,-17,-40,35,9,-29,4,-32
46,-37,-83,-4,64,-60,-16,34,22,-15,23,-27
45,34,-11,-40,28,12,-45,0,-12,-52,5,-47
66,46,-20,-56,43,13,-63,-15,-14,-54,-14,-47
82,-31,-113,-25,98,-72,-30,9,20,-17,15,-14
70,-8,-78,-31,75,-43,-38,18,11,-21,16,-27
67,-18,-85,-24,76,-51,-35,15,9,-20,11,-36
64,-15,-79,-25,72,-46,-34,15,4,-25,11,-34
65,-13,-79,-26,73,-46,-33,12,0,-33,5,-37
64,-18,-82,-23,74,-49,-28,10,-16,-42,5,-39
61,-17,-78,-22,69,-47,-31,10,-32,-46,5,-41
58,-24,-82,-17,70,-53,-24,6,-29,-44,5,-37
56,-23,-79,-17,68,-51,-22,5,-31,-49,5,-35
60,-29,-89,-15,75,-59,-18,5,-30,-50,5,-35
57,-29,-86,-14,72,-57,-14,5,-30,-50,5,-35
51,-33,-84,-8,68,-58,-11,5,-30,-50,4,-35
46,-35,-81,-6,64,-58,-7,5,-30,-50,0,-35
43,-35,-78,-4,61,-56,-5,5,-30,-50,0,-39
41,-35,-76,-2,59,-56,-5,5,-30,-50,0,-40
38,-35,-73,-1,56,-54,-1,5,-30,-51,0,-40
35,-35,-70,0,53,-52,0,5,-29,-47,3,-40
40,-30,-70,-5,55,-50,0,5,-26,-45,6,-40
37,-30,-68,-3,52,-49,5,5,-25,-45,9,-37
36,-29,-65,-3,50,-46,5,5,-25,-45,12,-35
40,-24,-65,-7,53,-45,6,5,-25,-45,15,-35
37,-26,-62,-5,50,-44,10,5,-25,-45,15,-35
33,-22,-56,-5,45,-38,10,5,-28,-50,15,-35
41,-20,-60,-10,50,-39,8,4,-30,-50,15,-36
50,-20,-71,-15,61,-46,4,-1,-30,-51,15,-39
54,-16,-70,-19,62,-43,2,-6,-33,-56,15,-40
54,-15,-68,-19,62,-41,-1,-10,-36,-54,15,-40
50,-15,-65,-17,58,-40,-4,-15,-34,-57,15,-40
49,-15,-64,-17,57,-40,-6,-20,-31,-64,15,-40
53,-15,-68,-19,61,-41,1,-17,-29,-60,15,-38
55,-15,-70,-20,63,-42,-2,-12,-30,-60,15,-35
55,-15,-70,-20,63,-42,-19,-10,-29,-59,14,-36
55,-15,-70,-20,63,-42,-15,-5,-30,-54,17,-35
62,-13,-75,-24,69,-44,-6,-2,-27,-55,21,-35
79,-4,-84,-37,82,-44,-2,2,-21,-52,27,-35
96,-1,-98,-47,97,-49,7,9,-15,-50,27,-25
125,20,-105,-72,115,-42,10,27,8,-27,43,-13
150,42,-108,-96,129,-33,18,53,48,10,72,-5
134,25,-109,-79,121,-42,23,65,68,11,59,-3
118,15,-103,-66,110,-43,29,77,61,2,60,7
106,2,-104,-54,104,-51,37,53,46,-27,38,-8
105,8,-97,-57,100,-44,13,-6,-4,-57,2,-18
88,1,-87,-44,87,-42,14,-3,-43,-65,-11,-34
61,1,-60,-31,61,-30,20,-17,-62,-68,-12,-47
63,2,-61,-33,62,-30,19,-21,-48,-58,-6,-40
52,-8,-60,-22,56,-34,16,-27,-67,-76,-27,-57
49,0,-49,-24,49,-25,11,-40,-66,-49,2,-38
30,-37,-66,4,48,-51,13,6,-42,-65,-28,-66
39,47,8,-43,15,27,11,12,29,29,59,-30
110,110,0,-110,54,55,22,71,227,174,150,23
434,364,-70,-399,251,147,-285,-311,-162,400,620,492
590,328,-262,-458,426,32,-499,-705,-820,257,786,814
153,-260,-413,54,283,-336,-210,-438,-1024,-659,-261,58
-74,-336,-263,205,95,-299,-38,-220,-843,-815,-564,-333
-53,-237,-184,145,66,-210,-4,-91,-445,-429,-276,-220
-21,-146,-125,84,52,-135,43,-12,-200,-270,-201,-200
60,-7,-67,-26,63,-37,38,-22,-76,-108,-38,-104
49,0,-49,-24,49,-24,24,-15,-31,-96,-46,-100
47,30,-17,-38,32,6,16,-36,-18,-63,-17,-79
31,15,-17,-23,24,-1,22,-29,-6,-64,-18,-79
27,21,-7,-24,17,7,19,-31,-5,-60,-9,-72
39,34,-5,-36,22,14,25,-30,6,-49,-1,-62
50,50,0,-50,25,25,26,-30,5,-52,-7,-61
48,53,5,-51,21,29,24,-31,10,-38,6,-52
51,53,1,-52,24,26,26,-29,12,-38,-1,-57
61,60,-1,-61,31,30,24,-24,14,-31,11,-54
54,56,2,-55,26,29,26,-15,17,-23,-8,-55
62,68,6,-65,28,37,24,-7,39,-24,1,-56
27,70,43,-49,-8,56,29,1,42,9,9,-50
65,101,36,-84,14,69,59,23,58,19,-1,-47
114,105,-9,-109,61,48,52,7,74,-37,15,-59
70,72,2,-71,33,37,31,-32,67,-37,30,-52
100,98,-2,-99,51,47,22,-33,73,-5,55,-32
141,125,-16,-133,78,54,-8,-41,68,37,75,-7
147,145,-2,-146,75,71,-14,-36,81,44,101,-3
180,175,-4,-177,92,85,-41,-56,97,52,108,-7
229,209,-19,-219,124,95,-78,-78,94,102,101,20
270,234,-36,-252,153,99,-83,-75,95,128,128,57
298,232,-66,-265,182,83,-96,-102,95,151,130,62
323,214,-108,-268,215,53,-94,-107,96,147,116,50
341,185,-156,-263,249,14,-81,-102,91,132,108,39
336,145,-191,-240,263,-23,-75,-81,79,124,88,28
305,96,-209,-200,257,-56,-55,-58,52,100,67,13
269,44,-225,-156,247,-91,-16,-50,24,80,55,-8
224,3,-221,-113,222,-109,15,-27,15,69,42,-20
194,-18,-212,-87,203,-115,25,-7,11,68,35,-32
226,-36,-262,-95,244,-148,26,-1,-19,39,23,-42
255,-43,-298,-106,277,-170,18,-20,-56,7,-14,-58
233,-62,-295,-85,264,-178,17,-32,-65,4,-32,-77
206,-86,-293,-60,250,-189,24,-29,-69,-9,-29,-73
207,-82,-289,-62,248,-186,31,-24,-65,-9,-29,-76
210,-79,-289,-66,250,-184,38,-21,-57,-5,-22,-92
167,-76,-243,-45,206,-160,44,-16,-51,12,-18,-86
172,-71,-243,-51,208,-157,51,-4,-44,28,-14,-74
173,-69,-242,-52,208,-156,47,4,-35,23,-8,-66
127,-63,-191,-32,159,-127,59,17,-8,46,-5,-54
121,-59,-180,-31,151,-119,69,20,7,63,2,-45
113,-55,-168,-29,141,-111,78,36,18,66,10,-35
107,-50,-157,-29,132,-103,85,43,27,76,15,-26
102,-46,-148,-27,125,-97,85,45,38,93,7,-25
101,-43,-144,-29,123,-93,103,70,61,66,15,-24
83,-59,-142,-12,113,-100,78,49,42,63,24,-21
66,-72,-138,3,102,-105,66,36,22,110,3,-19
69,-67,-136,-1,103,-101,90,45,24,104,16,-21
69,-65,-134,-2,102,-99,95,44,17,97,36,-25
67,-62,-129,-3,98,-95,102,51,16,95,34,-25
56,-59,-115,2,86,-87,100,50,9,85,36,-26
50,-60,-111,5,81,-85,99,50,13,89,34,-23
20,-72,-91,26,56,-81,117,52,33,92,36,-32
45,-77,-122,16,84,-99,115,42,30,89,33,-46
94,-70,-164,-11,129,-117,99,31,14,84,30,-45
72,-70,-142,-1,107,-106,100,29,3,82,30,-43
73,-65,-138,-4,106,-101,100,26,-1,77,28,-40
78,-66,-144,-6,112,-105,100,23,1,74,25,-39
80,-71,-150,-4,115,-110,100,20,0,71,25,-43
88,-70,-158,-9,123,-114,99,21,0,68,33,-45
90,-70,-160,-10,125,-115,95,25,-1,66,36,-45
95,-65,-160,-15,128,-112,90,25,-4,62,30,-48
94,-65,-160,-15,128,-112,88,25,-6,60,28,-51
96,-64,-160,-16,129,-112,83,25,-11,61,23,-49
100,-59,-159,-20,130,-109,81,25,-5,71,20,-46
100,-61,-161,-20,130,-111,75,25,3,81,25,-43
91,-57,-148,-16,120,-103,77,25,0,80,35,-41
73,-55,-127,-9,101,-91,88,25,-3,79,41,-37
59,-55,-114,-2,87,-85,91,25,-6,81,39,-35
48,-55,-102,4,76,-78,89,24,-10,79,43,-32
39,-55,-94,8,67,-74,91,26,-10,85,45,-30
33,-55,-88,11,61,-71,100,36,-4,95,44,-30
26,-55,-81,15,54,-68,102,42,3,95,49,-26
18,-55,-74,19,46,-64,99,38,9,94,49,-25
18,-54,-72,18,46,-63,100,38,16,95,52,-25
27,-48,-75,11,52,-61,100,34,23,94,54,-20
38,-40,-78,1,58,-59,100,35,28,96,56,-13
46,-35,-80,-5,63,-57,98,54,31,100,59,-9
46,-26,-73,-10,60,-49,95,58,29,99,61,-2
43,-22,-65,-10,54,-43,89,76,42,107,64,2
48,-9,-58,-19,53,-33,100,104,82,136,81,10
70,20,-50,-45,60,-15,109,134,131,171,124,38
68,23,-45,-46,56,-11,116,163,160,171,123,35
46,10,-36,-28,41,-13,125,165,159,159,120,26
15,-18,-33,2,24,-25,121,156,143,146,80,11
-21,-31,-10,26,-6,-20,114,103,81,129,34,3
-62,-40,22,51,-42,-9,113,85,62,118,38,0
-94,-42,52,68,-73,5,105,71,62,108,29,-10
-97,-35,62,66,-79,13,106,53,55,126,45,0
-102,-45,57,73,-79,6,113,58,59,108,21,-25
-88,-22,66,55,-76,21,107,26,40,137,53,0
-107,-53,55,80,-80,1,125,67,69,109,3,-39
-101,11,112,45,-106,61,105,97,114,153,58,7
-50,53,104,-1,-77,78,125,200,316,272,157,38
263,253,-10,-257,136,121,-124,-69,152,493,560,453
525,345,-180,-435,352,83,-397,-544,-505,530,921,982
75,-191,-266,59,170,-228,-123,-331,-805,-347,-67,243
-239,-379,-140,309,-49,-259,94,-42,-690,-714,-598,-302
-202,-275,-73,239,-65,-174,133,46,-382,-362,-304,-181
-198,-205,-7,202,-95,-106,150,104,-125,-203,-233,-183
-112,-44,67,78,-89,12,114,93,18,-16,-54,-60
-112,-15,97,63,-104,41,116,95,95,25,-24,-46
-107,10,117,49,-112,63,101,73,109,58,8,-13
-108,9,117,49,-113,63,102,70,123,73,-2,-5
-119,17,136,51,-128,76,94,63,118,64,-18,-11
-107,26,134,40,-121,80,88,65,121,73,35,4
-102,27,129,38,-115,78,84,62,120,58,47,-3
-85,44,128,20,-107,86,79,59,120,65,54,10
-77,43,120,16,-99,81,79,61,120,56,46,7
-76,48,123,14,-100,85,74,54,120,58,46,16
-89,49,138,19,-113,94,72,56,120,54,40,18
-91,50,141,20,-116,96,69,53,123,57,38,24
-79,60,139,9,-109,99,66,50,130,77,34,28
-73,67,140,3,-107,103,60,50,135,86,30,31
-78,63,140,8,-110,101,55,47,138,88,30,34
-57,81,138,-12,-97,109,50,39,145,91,30,38
-40,115,155,-38,-98,135,43,33,157,95,30,39
-44,125,169,-41,-107,147,39,25,164,115,61,49
-22,147,169,-62,-96,157,15,17,177,136,97,74
8,190,182,-99,-87,185,-7,12,193,165,132,99
28,216,188,-122,-81,202,-20,2,205,189,168,124
30,235,205,-133,-87,219,-49,-4,211,198,169,149
36,241,205,-139,-85,223,-53,-18,210,209,184,165
40,222,182,-131,-71,202,-42,-28,210,201,190,165
29,192,163,-111,-67,177,-35,-7,213,187,180,163
23,161,138,-93,-57,149,-28,11,208,167,166,131
0,117,117,-59,-59,117,-14,25,201,132,121,92
-42,59,102,-9,-72,80,13,35,188,95,81,72
-64,23,88,20,-76,55,30,35,161,58,53,42
-76,4,80,36,-78,41,35,35,129,32,33,18
-83,-8,75,45,-78,33,35,35,104,18,19,7
-95,-24,70,59,-82,23,34,35,99,6,4,-4
-113,-46,67,79,-89,10,36,34,97,-4,-7,-15
-106,-46,60,76,-83,7,34,31,93,-22,-15,-25
-125,-61,63,93,-94,1,33,28,91,-40,-20,-33
-155,-77,78,115,-116,1,22,25,89,-40,-20,-42
-151,-71,80,111,-115,4,24,22,86,-40,-20,-42
-149,-68,81,108,-115,7,47,20,81,-38,-20,-36
-148,-63,85,105,-116,11,34,18,79,-34,-20,-32
-145,-60,85,102,-115,12,17,12,74,-35,-20,-28
-147,-56,91,102,-119,17,14,7,71,-38,-20,-22
-143,-53,90,98,-116,18,5,4,67,-43,-20,-20
-138,-49,90,93,-114,21,0,-1,64,-47,-20,-20
-137,-47,90,92,-113,21,-8,-6,65,-50,-20,-19
-129,-40,89,84,-108,24,-10,-9,65,-52,-20,-26
-147,-42,105,95,-126,31,-10,-13,65,-57,-21,-31
-180,-71,110,125,-145,19,-10,-17,65,-50,-25,-30
-178,-77,101,127,-139,12,-10,-23,58,-55,-25,-30
-173,-74,99,124,-136,12,-10,-25,50,-76,-25,-30
-174,-81,93,127,-133,6,-10,-33,42,-82,-25,-30
-169,-79,90,124,-129,5,-17,-33,34,-88,-27,-34
-167,-81,85,123,-126,2,-26,-33,28,-91,-31,-43
-169,-88,81,128,-125,-3,-30,-48,23,-90,-30,-48
-169,-90,79,129,-124,-5,-30,-51,20,-90,-30,-51
-164,-90,74,127,-119,-8,-30,-48,17,-90,-30,-54
-161,-90,71,125,-116,-9,-30,-47,12,-90,-31,-57
-159,-90,68,125,-114,-11,-30,-43,9,-97,-34,-60
-166,-90,77,128,-122,-6,-31,-47,5,-107,-37,-60
-172,-90,82,131,-127,-4,-34,-55,0,-111,-40,-60
-185,-105,79,145,-132,-13,-36,-63,-4,-116,-43,-60
-192,-112,80,152,-136,-16,-40,-72,-9,-119,-45,-60
-184,-109,75,146,-130,-16,-40,-75,-13,-122,-45,-60
-186,-111,75,148,-130,-17,-40,-75,-18,-126,-45,-60
-184,-110,74,146,-129,-17,-39,-74,-21,-130,-45,-60
-177,-110,67,143,-122,-21,-41,-82,-26,-130,-45,-60
-168,-106,63,137,-115,-21,-50,-96,-29,-130,-41,-60
-158,-101,57,129,-108,-22,-50,-99,-31,-137,-40,-60
-150,-99,52,124,-101,-23,-50,-104,-35,-144,-39,-60
-140,-94,46,117,-92,-24,-50,-102,-32,-150,-34,-59
-132,-91,41,111,-86,-25,-50,-93,-23,-141,-35,-50
-118,-86,32,102,-74,-27,-50,-82,-11,-128,-31,-40
-95,-69,27,82,-61,-21,-51,-74,-5,-118,-13,-30
-76,-58,18,67,-47,-20,-49,-62,27,-111,10,-27
-62,-65,-3,63,-29,-34,-51,-60,54,-111,18,-33
-72,-84,-12,78,-30,-48,-49,-51,49,-102,9,-26
-102,-110,-8,106,-47,-59,-53,-61,2,-141,-17,-37
-126,-128,-2,127,-61,-65,-70,-115,-72,-173,-27,-56
-138,-142,-4,140,-67,-73,-72,-121,-78,-191,-60,-82
-130,-122,8,126,-69,-57,-79,-130,-97,-180,-41,-74
-137,-137,0,136,-68,-68,-70,-120,-90,-187,-56,-87
-121,-117,4,119,-62,-56,-80,-142,-108,-187,-49,-86
-130,-132,-2,131,-63,-67,-70,-130,-93,-177,-42,-84
-151,-153,-2,152,-74,-77,-76,-123,-62,-198,-66,-109
-130,-87,43,108,-87,-22,-51,-79,53,-49,36,-76
-51,13,64,18,-57,39,-100,-45,190,135,211,73
276,341,64,-308,105,202,-462,-503,-351,480,979,776
203,54,-149,-128,176,-48,-445,-641,-901,-43,656,719
-205,-481,-276,343,36,-378,-135,-321,-897,-1037,-574,-202
-243,-426,-183,335,-30,-304,-68,-201,-677,-859,-523,-333
-227,-366,-139,297,-44,-252,-36,-140,-388,-555,-339,-260
-179,-230,-51,205,-64,-141,-43,-153,-223,-390,-225,-213
-151,-147,3,149,-77,-72,-58,-151,-122,-250,-91,-138
-164,-141,23,153,-93,-59,-82,-152,-95,-246,-102,-148
-140,-112,28,125,-83,-42,-97,-159,-90,-199,-50,-121
-144,-122,23,132,-83,-49,-94,-149,-88,-223,-73,-136
-127,-102,25,114,-76,-38,-102,-153,-92,-203,-42,-119
-122,-104,17,113,-69,-43,-101,-147,-88,-209,-49,-123
-114,-92,22,103,-67,-35,-106,-151,-92,-204,-44,-117
-114,-90,24,102,-69,-33,-104,-150,-89,-200,-42,-114
-117,-91,26,103,-71,-32,-105,-148,-91,-199,-42,-113
-111,-86,25,98,-68,-31,-105,-162,-90,-192,-38,-107
-107,-85,21,96,-64,-32,-105,-177,-90,-192,-40,-107
-104,-85,20,94,-61,-32,-105,-174,-90,-185,-30,-103
-101,-81,20,91,-61,-30,-105,-175,-89,-184,-29,-101
-94,-69,25,81,-59,-22,-104,-175,-83,-176,-23,-95
-89,-60,29,74,-58,-16,-111,-174,-76,-168,-19,-92
-83,-50,33,66,-57,-9,-131,-179,-69,-160,-15,-87
-76,-33,43,54,-59,5,-143,-185,-63,-152,-4,-79
-58,-7,51,32,-54,22,-152,-192,-52,-142,22,-57
-28,31,59,-2,-44,45,-170,-196,-38,-122,59,-28
-7,66,74,-30,-41,69,-181,-206,-25,-91,90,6
8,96,88,-53,-40,92,-193,-228,-19,-75,124,40
22,114,93,-68,-36,103,-208,-232,-21,-74,145,50
19,111,92,-65,-37,101,-211,-219,-17,-76,145,58
19,102,83,-61,-32,92,-207,-208,-15,-73,135,60
15,66,51,-41,-18,58,-184,-192,-14,-78,123,37
-8,21,29,-6,-19,25,-156,-174,-21,-104,96,13
-39,-19,19,29,-29,0,-141,-162,-33,-136,61,-18
-63,-56,7,59,-34,-24,-130,-155,-48,-162,45,-50
-80,-78,2,79,-40,-38,-120,-150,-72,-181,29,-70
-92,-96,-4,95,-44,-50,-110,-145,-97,-201,17,-87
-93,-102,-9,97,-42,-55,-105,-141,-110,-208,11,-97
-89,-104,-15,97,-36,-60,-100,-135,-115,-214,2,-101
-85,-105,-19,95,-33,-62,-94,-137,-125,-223,-6,-106
-83,-99,-15,92,-34,-57,-88,-145,-127,-232,-13,-108
-86,-101,-15,94,-36,-57,-86,-149,-124,-237,-21,-112
-82,-97,-15,90,-33,-56,-90,-153,-125,-234,-29,-115
-80,-95,-15,88,-32,-55,-92,-158,-125,-235,-37,-112
-79,-95,-15,87,-31,-55,-95,-160,-125,-230,-44,-106
-79,-92,-13,86,-33,-52,-98,-161,-126,-230,-39,-102
-74,-84,-10,79,-32,-46,-100,-165,-135,-229,-30,-97
-71,-78,-7,75,-32,-42,-103,-165,-137,-224,-22,-93
-68,-72,-4,70,-31,-38,-106,-169,-131,-221,-15,-88
-61,-62,-1,61,-30,-31,-109,-170,-126,-217,-7,-85
-65,-65,0,65,-32,-32,-111,-169,-123,-213,-3,-85
-56,-61,-5,59,-25,-33,-115,-170,-117,-210,3,-83
-75,-85,-10,80,-32,-47,-113,-169,-116,-214,6,-79
-30,-45,-15,38,-8,-30,-110,-172,-123,-215,10,-80
38,19,-18,-29,28,0,-107,-175,-129,-217,16,-83
145,121,-24,-132,84,48,-105,-174,-134,-220,7,-88
271,246,-25,-258,148,110,-101,-175,-138,-221,8,-91
179,154,-25,-166,102,65,-100,-174,-143,-225,-4,-98
-11,-36,-25,24,7,-31,-100,-175,-144,-228,2,-100
122,97,-25,-109,74,36,-100,-169,-140,-230,-18,-100
228,203,-25,-215,126,89,-99,-163,-140,-229,39,-99
