I,II,III,aVR,aVL,aVF,V1,V2,V3,V4,V5,V6
-155,-80,75,117,-115,-2,-84,-85,100,350,1952,1299
-153,-80,73,116,-113,-3,-80,-85,100,349,1931,1294
-147,-80,67,113,-107,-6,-79,-85,100,345,1907,1282
-140,-76,64,108,-101,-6,-75,-90,100,342,1894,1260
-133,-75,59,104,-95,-8,-73,-90,100,337,1867,1232
-129,-75,54,102,-91,-10,-69,-91,100,334,1847,1223
-133,-83,50,108,-91,-16,-73,-95,98,329,1823,1216
-136,-90,46,113,-91,-21,-75,-95,92,322,1784,1197
-135,-91,43,112,-89,-23,-75,-95,87,316,1761,1177
-135,-95,39,115,-87,-28,-75,-95,84,309,1742,1163
-130,-95,36,112,-83,-30,-75,-95,79,303,1722,1153
-127,-95,32,111,-79,-31,-75,-95,74,297,1689,1127
-125,-95,30,110,-77,-32,-70,-95,79,291,1657,1097
-122,-95,27,108,-74,-34,-70,-95,80,286,1650,1088
-127,-103,24,115,-75,-39,-69,-99,75,281,1628,1080
-126,-105,20,116,-73,-42,-65,-100,73,275,1593,1063
-125,-105,20,115,-72,-42,-65,-100,68,270,1568,1039
-130,-105,25,117,-77,-40,-67,-100,65,265,1546,1012
-130,-105,25,117,-77,-40,-71,-100,62,260,1524,997
-129,-104,25,116,-76,-40,-76,-100,59,255,1500,993
-126,-101,25,113,-76,-37,-75,-100,61,251,1477,983
-122,-97,25,109,-73,-36,-68,-100,59,246,1456,962
-119,-94,25,106,-72,-34,-63,-100,60,246,1437,946
-118,-91,27,104,-72,-32,-57,-100,60,252,1417,937
-122,-86,36,104,-79,-25,-52,-89,67,254,1401,926
-126,-81,45,103,-85,-18,-50,-75,94,255,1385,917
-116,-71,45,93,-80,-12,-45,-59,106,254,1373,914
-114,-69,45,91,-79,-12,-44,-29,108,259,1361,914
-84,-39,45,61,-65,3,-38,-19,117,272,1355,915
-70,-27,43,48,-57,8,-74,-56,108,259,1340,890
-113,-74,38,93,-75,-18,-141,-115,67,230,1291,853
-114,-83,31,99,-73,-26,-130,-145,34,209,1261,835
-103,-76,27,89,-65,-24,-101,-146,26,197,1239,825
-121,-101,20,111,-71,-41,-93,-152,14,187,1199,794
-137,-120,18,128,-77,-51,-78,-152,8,170,1168,760
-138,-127,11,132,-74,-58,-76,-162,2,145,1135,746
-141,-132,9,136,-75,-61,-72,-167,8,146,1125,738
-148,-141,7,144,-77,-67,-69,-167,2,134,1111,727
-139,-140,-1,140,-69,-71,-67,-162,8,136,1085,705
-143,-139,3,141,-73,-68,-63,-151,7,128,1052,684
-136,-151,-16,144,-59,-83,-63,-158,16,123,1035,661
-128,-135,-7,132,-60,-71,-57,-115,24,138,1036,660
-113,-156,-43,135,-35,-99,-63,-68,45,118,987,628
-68,-66,2,67,-35,-32,-60,114,302,323,1109,672
197,202,5,-199,95,103,-200,176,739,793,1533,1004
692,610,-82,-651,387,264,-576,-475,917,1318,2127,1545
548,680,132,-614,208,406,-730,-1539,-65,821,1920,1582
-58,191,249,-66,-154,219,-459,-1698,-996,-204,1063,1010
-173,-2,171,87,-172,84,-192,-803,-541,-144,891,725
-98,3,102,47,-100,52,-112,-244,-115,80,931,633
-100,-69,31,84,-65,-19,-73,-125,-25,81,886,553
-101,-76,25,88,-63,-25,-57,-84,29,113,890,544
-117,-107,10,112,-63,-49,-60,-69,26,78,841,491
-111,-104,7,107,-58,-48,-56,-22,68,96,842,483
-105,-106,-1,106,-51,-53,-50,-30,53,73,815,465
-90,-101,-11,95,-39,-56,-48,-19,66,79,793,453
-84,-96,-12,91,-36,-54,-40,-20,63,79,774,442
-85,-95,-11,90,-37,-53,-30,-15,66,79,773,428
-68,-87,-20,78,-24,-53,-49,-10,71,81,761,417
-68,-95,-27,82,-20,-61,-57,-8,73,78,745,400
-80,-99,-19,89,-30,-59,-46,3,79,82,733,389
-75,-94,-19,85,-28,-56,-46,10,83,79,713,376
-76,-89,-13,83,-31,-50,-40,19,101,81,703,366
-73,-83,-10,78,-31,-46,-34,28,102,79,690,354
-63,-78,-15,70,-24,-46,-48,37,108,80,679,345
-58,-72,-13,65,-22,-42,-62,53,117,80,672,335
-52,-59,-7,56,-22,-33,-64,73,128,80,665,327
-46,-48,-3,47,-21,-25,-61,94,149,85,658,317
-36,-33,4,34,-20,-14,-60,123,160,86,650,310
-25,-16,9,20,-17,-3,-60,157,194,106,645,310
-12,-2,10,7,-11,4,-60,196,226,130,644,309
1,12,11,-7,-5,11,-60,231,244,140,645,306
19,28,9,-24,5,18,-59,262,260,158,645,304
38,51,13,-45,12,32,-71,289,279,160,644,307
46,71,25,-59,10,48,-73,288,290,149,645,305
49,74,25,-62,12,49,-68,268,283,142,640,295
39,66,27,-53,5,46,-58,229,273,132,630,287
24,54,30,-39,-3,42,-77,162,237,123,618,278
25,47,22,-37,1,34,-94,89,195,109,596,267
4,20,16,-12,-6,18,-63,32,155,81,561,226
-37,-28,9,32,-23,-9,-53,-15,115,53,519,181
-54,-52,2,53,-28,-25,-50,-52,86,23,472,154
-67,-67,0,67,-33,-33,-44,-66,63,-2,436,131
-83,-83,0,83,-41,-41,-41,-71,54,-14,420,113
-90,-90,0,90,-45,-45,-35,-79,48,-23,411,92
-90,-90,0,90,-45,-45,-32,-80,40,-20,407,83
-90,-90,0,90,-45,-45,-29,-80,32,-35,393,68
-90,-90,0,90,-45,-45,-30,-80,26,-54,363,38
-95,-90,5,92,-50,-42,-30,-80,29,-52,344,22
-91,-86,5,88,-48,-41,-29,-79,30,-63,332,11
-91,-85,6,87,-48,-39,-32,-75,30,-71,319,-2
-95,-85,10,90,-52,-37,-35,-73,30,-69,312,-13
-90,-80,10,85,-50,-35,-35,-70,29,-71,306,-24
-88,-80,8,84,-48,-36,-35,-67,33,-69,298,-37
-83,-79,4,80,-44,-37,-35,-65,35,-71,291,-51
-80,-75,5,77,-42,-35,-35,-69,35,-72,284,-49
-80,-76,5,77,-42,-35,-31,-70,35,-79,275,-55
-78,-72,5,75,-41,-33,-30,-70,35,-90,267,-71
-74,-70,5,71,-39,-32,-30,-70,35,-90,258,-69
-70,-70,0,70,-35,-35,-30,-70,30,-91,250,-75
-74,-74,0,74,-37,-36,-29,-71,25,-95,240,-86
-71,-75,-4,74,-33,-39,-32,-75,21,-96,230,-93
-70,-75,-5,73,-32,-40,-40,-75,16,-92,220,-98
-72,-80,-7,76,-32,-43,-40,-76,11,-90,211,-109
-70,-80,-11,75,-30,-46,-40,-84,8,-89,204,-124
-69,-79,-10,74,-29,-44,-40,-87,3,-92,198,-125
-61,-75,-14,69,-23,-44,-40,-91,0,-107,190,-134
-59,-75,-16,67,-21,-45,-39,-95,-3,-112,180,-142
-68,-82,-14,75,-26,-48,-35,-94,-8,-113,172,-139
-75,-86,-11,81,-32,-48,-35,-97,-11,-117,162,-141
-75,-84,-10,80,-32,-47,-35,-100,-14,-119,154,-147
-75,-85,-10,80,-32,-47,-35,-100,-15,-121,149,-151
-75,-85,-10,80,-32,-47,-35,-100,-16,-119,146,-153
-76,-85,-10,80,-33,-47,-31,-100,-20,-120,143,-155
-77,-90,-12,84,-32,-51,-30,-100,-20,-120,138,-150
-72,-90,-17,81,-28,-53,-30,-100,-18,-120,135,-144
-69,-90,-22,80,-23,-56,-30,-100,-15,-125,131,-141
-64,-90,-25,77,-20,-57,-30,-99,-11,-124,130,-136
-73,-90,-17,82,-28,-54,-28,-90,-10,-120,130,-132
-79,-87,-8,83,-35,-47,-25,-80,-5,-117,130,-124
-71,-67,4,69,-37,-32,-22,-70,-6,-112,129,-99
-63,-52,11,58,-37,-20,-20,-60,4,-110,131,-82
-54,-43,11,48,-32,-15,-16,-48,16,-101,135,-76
-26,-31,-4,28,-11,-17,-15,-38,29,-88,134,-64
-6,-1,5,4,-6,2,-17,-22,47,-81,143,-35
-10,9,19,0,-15,14,-39,-42,22,-91,144,-19
-3,-30,-27,16,13,-28,-81,-99,-9,-115,125,-21
-17,-48,-31,33,7,-39,-82,-126,-24,-123,110,-17
-41,-41,0,41,-20,-20,-66,-127,-37,-117,94,-14
-59,-57,1,58,-30,-28,-60,-138,-54,-136,76,-19
-81,-80,0,81,-41,-40,-50,-143,-78,-152,59,-20
-86,-98,-12,92,-37,-54,-43,-141,-86,-157,45,-19
-87,-100,-13,94,-37,-56,-36,-140,-76,-153,45,-15
-89,-97,-8,93,-40,-52,-29,-137,-84,-155,36,-12
-83,-96,-13,90,-35,-54,-24,-138,-75,-149,31,-11
-82,-89,-6,86,-38,-47,-14,-130,-74,-148,28,-5
-79,-94,-15,87,-32,-54,-12,-140,-80,-155,15,-9
-82,-87,-5,84,-38,-45,2,-112,-55,-140,20,5
-65,-109,-44,88,-10,-77,-9,-66,-42,-149,-7,-9
-2,-43,-41,23,19,-42,-26,90,184,30,101,58
193,205,12,-199,91,108,-131,169,610,468,502,395
660,624,-35,-642,347,294,-493,-405,882,1063,1143,960
633,736,103,-684,264,419,-700,-1476,-4,708,1075,1104
62,293,232,-178,-85,262,-468,-1769,-1106,-392,241,589
-93,84,177,5,-135,130,-184,-905,-724,-424,15,276
-49,58,106,-5,-78,81,-73,-264,-216,-160,66,202
-53,-18,35,35,-44,8,-32,-122,-123,-160,14,125
-54,-29,26,41,-40,-2,-6,-50,-43,-99,32,120
-63,-57,6,60,-34,-26,11,-32,-53,-125,-7,91
-40,-47,-7,43,-16,-27,23,6,-19,-102,-6,83
-47,-51,-4,50,-21,-27,20,6,-23,-109,-37,70
-40,-47,-6,44,-17,-26,20,14,-9,-101,-51,64
-40,-44,-4,42,-18,-24,18,20,-6,-97,-44,59
-40,-46,-6,44,-16,-26,14,24,-1,-95,-42,49
-35,-39,-4,37,-15,-21,16,32,7,-85,-35,46
-28,-36,-8,32,-10,-22,11,32,9,-85,-33,36
-20,-30,-10,25,-5,-20,10,43,23,-74,-29,32
-17,-27,-10,22,-3,-18,10,52,24,-73,-51,24
-11,-21,-10,16,0,-16,10,60,25,-65,-66,20
-7,-17,-10,12,1,-13,11,72,38,-57,-57,50
-1,-11,-10,6,5,-10,8,88,47,-51,-51,70
1,-4,-5,2,3,-5,5,107,54,-44,-44,81
2,2,0,-2,1,1,3,130,70,-31,-37,103
4,8,5,-7,-1,6,0,159,88,-17,-30,112
19,28,8,-23,5,18,-3,193,113,-1,-22,132
30,44,14,-37,8,29,-6,234,135,14,-17,148
42,59,17,-51,12,38,-1,275,161,32,-2,170
59,84,24,-72,17,54,0,315,191,51,16,188
70,100,30,-85,19,65,0,348,215,66,32,200
89,116,27,-102,31,71,5,372,237,86,44,220
92,134,42,-113,24,88,5,381,247,98,51,231
95,150,55,-122,19,102,4,355,235,100,60,241
97,147,49,-122,24,98,-1,304,223,91,53,233
93,139,45,-116,24,92,-7,239,196,78,42,222
80,120,40,-100,19,80,-10,159,145,69,33,213
46,82,36,-64,5,59,-15,84,97,41,12,193
13,45,31,-29,-9,38,-20,30,54,5,-15,169
-8,19,27,-6,-18,23,-17,0,18,-21,-45,136
-12,13,25,-1,-19,18,-12,-8,0,-38,-68,105
-15,6,21,5,-19,13,-9,-14,-13,-46,-82,86
-22,-2,19,12,-20,8,-6,-22,-26,-53,-86,84
-24,-9,15,16,-20,3,-1,-30,-30,-55,-95,86
-30,-15,15,22,-23,0,1,-34,-32,-55,-99,84
-34,-15,19,24,-26,2,6,-30,-35,-55,-104,85
-37,-15,22,26,-29,3,11,-28,-35,-55,-115,85
-40,-15,25,27,-32,5,15,-25,-34,-55,-118,90
-43,-15,27,29,-35,6,20,-22,-41,-50,-123,101
-45,-15,30,30,-37,7,25,-20,-46,-50,-125,112
-42,-12,30,27,-35,9,29,-17,-45,-49,-125,127
-39,-9,30,24,-35,11,30,-15,-45,-44,-130,135
-41,-6,35,23,-37,14,30,-15,-45,-46,-129,142
-38,-3,35,20,-36,16,30,-15,-45,-42,-131,146
-36,-1,35,18,-35,17,30,-15,-41,-40,-135,148
-33,2,35,15,-34,18,29,-16,-40,-40,-135,151
-30,5,35,12,-33,20,25,-20,-40,-36,-135,147
-28,5,33,11,-31,19,26,-19,-40,-35,-135,145
-23,5,28,9,-26,16,22,-23,-40,-35,-135,141
-20,5,25,7,-23,15,19,-25,-41,-35,-135,140
-17,5,22,6,-20,13,20,-25,-45,-35,-135,136
-15,2,17,7,-16,9,16,-28,-45,-35,-134,124
-18,-3,15,10,-16,6,15,-31,-48,-35,-142,117
-21,-6,15,13,-17,5,15,-34,-57,-35,-145,107
-24,-10,15,16,-20,2,15,-37,-60,-33,-171,99
-29,-13,15,21,-21,1,15,-43,-61,-30,-212,90
-31,-17,15,23,-23,-1,16,-46,-64,-30,-251,81
-36,-20,15,27,-26,-2,20,-44,-65,-30,-299,73
-33,-20,13,26,-23,-3,20,-45,-65,-30,-327,62
-26,-20,6,23,-16,-7,20,-45,-65,-29,-363,63
-21,-20,1,21,-11,-9,20,-45,-65,-26,-378,65
-16,-20,-4,18,-6,-11,20,-45,-65,-23,-357,65
-13,-24,-11,19,-1,-17,20,-45,-64,-20,-334,70
-11,-25,-14,18,2,-19,20,-45,-66,-17,-307,70
-15,-26,-10,21,-2,-18,20,-45,-70,-15,-297,70
-19,-29,-10,24,-4,-20,20,-46,-69,-13,-293,82
-22,-31,-9,27,-7,-20,20,-44,-73,-8,-285,96
-24,-28,-5,26,-9,-16,21,-38,-75,-5,-282,104
-16,-21,-5,19,-5,-13,25,-31,-75,-2,-273,119
-8,-11,-3,10,-2,-7,27,-24,-69,3,-262,124
-7,-4,3,5,-5,0,30,-19,-52,5,-249,134
1,7,6,-5,-2,6,37,-2,-41,13,-238,161
15,26,11,-21,2,18,42,21,-26,28,-225,173
26,23,-3,-24,14,10,32,50,-16,33,-215,178
46,35,-12,-40,29,11,30,62,-8,53,-206,187
37,52,16,-45,10,34,15,27,-7,52,-200,189
51,36,-15,-44,33,10,-29,-24,-50,18,-225,181
73,20,-54,-46,63,-17,-37,-63,-86,6,-238,169
32,5,-28,-18,30,-11,-18,-73,-86,2,-227,161
7,-12,-19,3,13,-16,-9,-78,-92,-8,-239,143
-11,-31,-20,21,5,-25,-1,-83,-106,-11,-257,118
-22,-49,-27,36,3,-38,6,-85,-120,-20,-265,105
-18,-56,-38,37,10,-47,12,-85,-114,-17,-265,95
-26,-54,-28,40,2,-40,20,-76,-115,-9,-263,86
-27,-57,-30,43,2,-43,24,-80,-115,-10,-268,78
-30,-52,-22,42,-3,-37,30,-67,-104,4,-260,74
-38,-57,-19,48,-9,-38,33,-73,-118,-7,-271,63
-27,-56,-28,42,1,-42,35,-55,-94,19,-263,61
-16,-61,-45,38,15,-52,41,-16,-101,-6,-275,30
32,-33,-64,1,48,-48,35,93,33,81,-233,26
165,125,-40,-145,102,42,-20,267,394,416,33,222
596,501,-95,-548,345,202,-315,-61,790,988,610,708
849,783,-66,-816,457,358,-654,-1098,335,1054,877,1052
370,443,73,-407,148,258,-564,-1800,-935,16,178,681
12,122,110,-67,-49,116,-244,-1183,-978,-365,-288,258
18,110,91,-64,-37,100,-66,-324,-325,-37,-215,164
16,30,13,-23,1,21,-4,-78,-178,-14,-253,71
20,8,-12,-14,16,-2,36,8,-91,43,-233,33
-2,-12,-10,7,4,-11,52,32,-84,24,-242,-11
1,-23,-24,11,13,-24,53,64,-64,38,-240,-33
-2,-27,-25,15,12,-26,56,79,-53,57,-232,-31
3,-34,-36,16,19,-34,55,85,-49,54,-239,-39
9,-25,-34,8,22,-29,55,99,-35,71,-231,-32
9,-27,-36,10,23,-31,55,96,-37,60,-238,-38
15,-20,-35,3,25,-27,55,106,-23,73,-233,-46
14,-20,-35,4,24,-27,52,104,-21,68,-233,-54
19,-17,-36,-1,28,-26,49,115,-11,72,-226,-55
22,-11,-33,-5,28,-22,46,119,-6,83,-224,-63
24,-7,-31,-8,27,-18,43,128,1,85,-221,-69
25,-2,-27,-11,27,-14,41,143,8,86,-216,-71
27,2,-25,-14,26,-11,38,156,16,95,-214,-74
28,6,-21,-17,24,-7,36,178,29,104,-208,-77
34,14,-20,-24,27,-2,33,191,41,108,-201,-81
40,23,-17,-31,28,3,30,219,48,116,-195,-77
44,32,-12,-38,28,10,27,253,76,136,-187,-71
51,42,-10,-46,30,16,25,290,104,158,-182,-68
64,59,-5,-61,34,26,25,330,124,171,-172,-62
82,80,-2,-81,41,39,25,368,154,184,-155,-59
94,95,1,-95,46,48,25,404,181,202,-138,-50
113,123,10,-118,51,66,25,436,211,225,-122,-42
123,143,20,-133,51,81,25,454,232,240,-108,-33
128,159,30,-144,49,94,24,446,228,242,-95,-25
139,167,28,-153,55,98,19,414,214,236,-90,-26
131,151,20,-141,55,85,13,351,198,233,-84,-23
119,134,15,-127,52,74,10,275,157,227,-94,-31
98,105,7,-102,45,56,5,195,101,200,-123,-55
68,70,1,-69,33,35,0,130,50,167,-150,-84
43,40,-4,-41,23,18,3,90,13,138,-179,-114
22,16,-5,-18,13,5,9,66,-6,122,-194,-133
11,6,-5,-8,8,1,13,54,-22,110,-207,-149
11,1,-10,-6,10,-4,18,49,-36,101,-220,-168
6,-3,-10,-1,8,-6,22,43,-44,99,-220,-175
4,-7,-11,2,8,-9,27,38,-47,96,-220,-180
3,-13,-15,6,9,-14,30,31,-52,93,-220,-189
-1,-15,-15,9,8,-15,31,33,-55,90,-219,-196
1,-15,-15,8,8,-15,34,38,-55,90,-223,-203
-4,-15,-11,10,4,-13,35,33,-57,90,-225,-209
-5,-15,-10,10,3,-12,38,48,-61,90,-225,-212
-5,-15,-10,10,3,-12,40,62,-60,90,-229,-217
-10,-15,-5,13,-2,-10,41,59,-57,90,-231,-222
-7,-11,-5,9,-1,-7,46,60,-52,90,-227,-231
-4,-10,-6,7,1,-8,49,59,-49,94,-225,-230
1,-10,-10,4,6,-10,47,60,-46,95,-225,-220
4,-6,-10,1,7,-7,44,56,-41,95,-221,-209
8,-5,-12,-1,11,-8,41,55,-40,99,-219,-184
9,-6,-16,-1,13,-11,38,55,-40,100,-220,-149
4,-10,-15,4,9,-12,36,50,-40,98,-220,-112
9,-10,-19,0,14,-14,33,50,-40,95,-220,-80
8,-12,-20,2,14,-16,30,49,-40,95,-220,-44
4,-16,-20,6,13,-17,30,44,-40,93,-220,-8
6,-15,-20,4,13,-17,30,41,-44,89,-220,6
1,-19,-20,9,11,-19,30,38,-45,90,-220,14
0,-20,-20,10,10,-20,30,33,-47,93,-220,26
0,-20,-20,10,10,-20,34,30,-50,99,-220,33
0,-20,-20,10,10,-20,35,26,-51,100,-220,38
-1,-21,-20,11,9,-20,35,25,-55,100,-220,39
-5,-25,-20,15,8,-22,35,25,-54,100,-220,33
-6,-25,-19,15,7,-21,35,25,-57,100,-224,25
-1,-25,-24,13,12,-24,34,26,-61,99,-225,20
6,-25,-31,10,19,-28,30,23,-60,95,-225,12
5,-25,-30,10,18,-27,30,20,-60,95,-225,8
1,-29,-30,14,16,-29,30,18,-60,92,-225,-6
0,-30,-30,15,15,-30,30,15,-60,89,-223,-32
-1,-30,-29,15,14,-30,30,12,-60,90,-219,-54
3,-30,-33,14,18,-31,30,9,-60,93,-217,-84
5,-30,-35,13,20,-32,30,18,-59,96,-214,-101
6,-29,-35,12,21,-32,30,29,-62,94,-211,-109
14,-21,-35,4,25,-28,30,30,-70,96,-209,-121
22,-13,-35,-4,28,-24,30,32,-65,94,-203,-125
30,-5,-35,-12,33,-20,31,36,-59,97,-194,-138
31,2,-29,-17,30,-13,40,35,-54,101,-188,-141
35,12,-23,-23,28,-5,48,57,-38,114,-178,-136
47,32,-15,-39,31,8,46,84,-18,133,-178,-135
36,26,-10,-30,23,7,36,99,-7,133,-180,-144
31,30,0,-30,15,15,27,134,8,148,-181,-153
51,42,-9,-47,30,16,19,121,8,155,-185,-147
79,25,-54,-51,66,-14,-16,58,-40,135,-185,-167
78,13,-65,-45,71,-26,-35,11,-84,121,-194,-192
53,1,-51,-27,52,-25,-17,-15,-87,109,-195,-189
34,-9,-43,-12,39,-26,-6,-21,-91,92,-196,-190
12,-28,-40,8,26,-33,3,-31,-101,73,-214,-190
-6,-46,-40,26,17,-42,8,-39,-114,69,-223,-192
-11,-52,-41,31,15,-46,12,-45,-120,63,-227,-196
-9,-47,-39,28,15,-43,20,-33,-110,65,-223,-194
-17,-58,-42,37,13,-50,22,-34,-116,52,-227,-201
-21,-59,-39,40,9,-49,33,-24,-102,60,-223,-198
-20,-60,-41,40,10,-50,41,-19,-112,57,-226,-203
-21,-61,-41,41,10,-51,39,-19,-97,74,-227,-209
-16,-56,-40,36,12,-48,44,27,-87,73,-231,-215
8,-70,-78,32,43,-74,45,90,-31,80,-225,-226
95,45,-50,-70,73,-3,19,278,250,318,-58,-120
434,350,-84,-391,259,132,-199,202,671,807,414,258
901,740,-161,-820,530,289,-575,-617,635,1180,914,752
683,608,-75,-646,379,266,-638,-1609,-520,436,489,613
86,155,69,-121,8,112,-331,-1444,-1099,-319,-200,121
-15,99,114,-43,-64,107,-93,-491,-476,-75,-215,-33
28,70,42,-50,-7,56,-23,-75,-186,41,-204,-146
9,7,-2,-8,6,3,23,23,-112,71,-211,-196
23,-1,-25,-11,24,-13,48,67,-68,95,-192,-203
19,-20,-39,1,29,-29,53,88,-71,75,-202,-226
20,-17,-37,-2,29,-27,51,117,-44,99,-196,-221
16,-26,-42,5,29,-34,50,114,-51,82,-211,-243
21,-17,-39,-2,30,-28,49,129,-32,99,-201,-237
23,-18,-41,-2,32,-29,44,125,-34,92,-205,-241
26,-14,-40,-6,33,-26,46,130,-22,96,-198,-240
29,-11,-40,-9,34,-25,42,136,-18,96,-200,-241
32,-10,-42,-11,37,-25,40,147,-11,93,-197,-246
39,-6,-45,-16,43,-25,40,157,-4,101,-194,-244
42,-4,-45,-19,44,-24,36,162,2,114,-196,-248
45,0,-45,-22,45,-22,34,174,10,117,-189,-250
48,2,-45,-25,46,-21,36,188,15,120,-191,-250
50,5,-45,-27,47,-20,39,197,22,122,-189,-247
49,7,-42,-28,45,-17,40,221,33,129,-181,-244
55,18,-37,-36,46,-9,40,244,58,141,-174,-241
61,26,-34,-43,47,-4,40,269,77,148,-168,-238
67,36,-31,-52,49,3,40,308,99,168,-158,-235
80,54,-26,-67,53,13,38,345,123,182,-146,-234
97,74,-24,-85,60,25,34,379,145,195,-134,-225
114,98,-16,-106,65,41,35,414,173,206,-120,-215
122,114,-8,-118,65,53,35,447,203,226,-106,-205
130,130,0,-130,65,65,35,468,224,242,-95,-196
142,150,8,-147,67,79,34,471,234,252,-86,-195
148,155,6,-152,71,80,31,450,238,265,-84,-195
149,148,-1,-148,75,73,28,399,212,256,-86,-195
145,137,-8,-141,76,65,25,324,165,243,-84,-194
128,114,-14,-121,71,50,23,246,119,219,-94,-198
101,79,-22,-90,61,28,19,178,82,186,-114,-223
65,41,-24,-53,44,9,23,130,45,159,-140,-258
44,24,-20,-34,32,2,25,97,7,138,-165,-278
40,20,-20,-30,30,0,25,79,-22,123,-179,-294
32,12,-20,-22,26,-4,29,73,-31,110,-190,-305
24,4,-20,-14,21,-8,32,70,-29,108,-195,-312
18,-2,-20,-8,20,-10,36,67,-34,104,-204,-320
14,-10,-23,-2,19,-16,39,62,-36,101,-211,-325
5,-20,-25,8,15,-22,42,60,-39,96,-209,-324
5,-20,-25,8,15,-22,45,64,-41,94,-210,-328
5,-20,-25,8,15,-22,47,67,-40,95,-210,-343
5,-20,-25,8,15,-22,50,70,-40,95,-210,-350
5,-20,-25,8,15,-22,50,70,-40,95,-207,-351
8,-18,-26,5,18,-22,51,69,-40,94,-204,-355
16,-14,-30,-1,24,-22,52,75,-40,95,-205,-355
18,-12,-30,-3,24,-21,50,80,-37,94,-205,-355
21,-9,-30,-6,25,-19,47,80,-34,96,-205,-363
25,-6,-30,-9,28,-17,44,80,-31,105,-205,-365
24,-5,-29,-10,27,-17,41,80,-28,106,-205,-364
22,-10,-33,-6,28,-21,40,80,-25,104,-205,-365
17,-18,-35,1,26,-26,40,77,-26,105,-205,-365
19,-20,-38,1,29,-29,39,74,-30,105,-205,-372
19,-21,-40,1,30,-31,43,71,-32,105,-206,-375
15,-25,-40,5,28,-32,46,68,-35,109,-202,-374
15,-25,-40,5,28,-32,43,65,-39,110,-200,-375
10,-30,-40,10,25,-35,41,64,-40,110,-200,-375
10,-30,-40,10,25,-35,37,60,-40,114,-197,-381
10,-30,-40,10,25,-35,35,55,-39,115,-194,-385
12,-30,-42,9,27,-36,33,53,-42,113,-195,-385
17,-32,-49,8,34,-40,29,48,-50,109,-204,-384
19,-36,-55,9,37,-45,30,45,-50,103,-206,-386
21,-34,-55,7,39,-45,30,45,-50,100,-205,-394
14,-41,-55,14,35,-48,30,45,-50,95,-203,-395
9,-46,-55,19,33,-51,30,45,-51,90,-199,-394
10,-44,-55,18,33,-50,30,45,-57,95,-200,-396
12,-45,-57,17,35,-51,30,45,-54,101,-203,-394
15,-45,-60,15,38,-52,30,43,-51,100,-208,-398
19,-45,-63,13,41,-54,30,40,-48,100,-209,-405
16,-49,-65,17,41,-57,29,37,-45,100,-205,-405
10,-50,-60,20,35,-55,33,35,-46,100,-205,-405
10,-50,-60,20,35,-55,35,32,-52,101,-205,-405
4,-54,-59,25,32,-56,36,29,-55,105,-205,-405
-1,-55,-54,29,27,-55,40,34,-47,105,-205,-402
3,-53,-56,26,30,-54,40,36,-40,105,-201,-399
24,-32,-56,5,40,-44,44,52,-30,108,-191,-400
47,-16,-63,-15,55,-39,41,75,-25,117,-185,-396
41,-15,-56,-13,49,-35,38,91,-14,130,-176,-395
53,-16,-69,-18,62,-42,34,117,-6,131,-169,-395
66,-13,-79,-26,73,-46,32,133,9,148,-161,-394
66,8,-58,-37,62,-24,23,118,22,148,-147,-395
100,14,-86,-57,93,-36,-15,67,-29,118,-170,-394
96,-5,-102,-45,99,-53,-26,18,-69,104,-194,-395
70,-19,-89,-25,80,-54,-17,4,-62,96,-190,-394
55,-32,-87,-11,71,-59,-12,-1,-67,85,-196,-397
22,-63,-84,21,53,-73,4,-8,-84,75,-203,-421
5,-79,-84,38,45,-81,17,-10,-97,76,-211,-438
1,-81,-81,40,41,-81,25,-21,-98,72,-221,-446
-2,-81,-79,41,38,-79,31,-15,-90,75,-217,-443
-7,-87,-81,47,38,-83,28,-15,-95,64,-223,-449
-11,-84,-73,48,31,-79,41,-7,-82,77,-216,-451
-15,-91,-76,53,31,-83,52,-4,-91,70,-223,-452
-16,-91,-75,54,29,-82,48,-3,-76,78,-219,-449
-7,-86,-80,47,36,-82,47,42,-73,75,-227,-450
15,-99,-113,42,64,-106,42,103,-6,79,-230,-469
96,27,-69,-61,83,-21,31,300,292,336,-33,-355
441,324,-117,-382,278,104,-182,237,722,835,437,28
899,723,-176,-811,537,273,-569,-573,690,1216,952,546
665,620,-45,-643,355,287,-625,-1567,-460,480,534,420
64,141,77,-103,-6,108,-301,-1426,-1063,-315,-198,-113
-25,56,80,-16,-53,67,-69,-491,-472,-97,-221,-279
28,23,-5,-25,16,9,-8,-71,-172,35,-215,-385
6,-37,-43,16,25,-40,35,24,-90,61,-230,-424
24,-38,-62,7,43,-50,55,67,-48,74,-217,-426
14,-64,-78,25,46,-71,65,92,-46,54,-233,-456
16,-61,-77,23,47,-69,68,116,-20,83,-215,-444
18,-73,-90,28,54,-81,73,115,-24,75,-223,-454
24,-65,-89,20,57,-77,76,123,-6,95,-210,-447
25,-65,-90,20,58,-77,71,117,-7,86,-213,-451
28,-65,-93,19,61,-79,69,132,4,92,-206,-450
37,-64,-101,14,69,-82,64,130,9,94,-203,-447
37,-66,-103,15,70,-84,61,130,16,95,-200,-444
44,-63,-107,10,76,-85,58,149,23,96,-199,-439
55,-60,-115,3,85,-87,52,156,29,94,-198,-437
60,-55,-115,-2,88,-85,47,155,35,96,-194,-431
62,-53,-115,-4,89,-84,44,171,40,94,-196,-430
67,-48,-115,-9,91,-81,38,179,40,100,-191,-436
69,-46,-115,-11,93,-81,36,197,55,105,-184,-433
75,-38,-114,-18,95,-76,39,223,75,109,-178,-427
87,-23,-110,-32,98,-66,47,245,90,122,-171,-424
96,-11,-107,-42,102,-58,50,277,123,144,-164,-418
109,6,-103,-57,106,-48,43,311,147,156,-159,-414
117,17,-100,-67,108,-41,40,356,175,163,-150,-405
133,38,-95,-85,114,-28,35,389,197,176,-139,-391
146,62,-85,-104,115,-11,30,411,217,187,-130,-383
152,76,-76,-114,114,0,27,433,240,203,-120,-374
171,96,-75,-133,122,10,24,438,249,203,-121,-365
176,101,-75,-138,125,13,21,415,248,193,-119,-360
167,92,-75,-129,121,8,19,365,224,185,-116,-358
159,84,-75,-121,117,4,15,298,187,176,-114,-365
132,58,-74,-95,103,-8,17,228,140,163,-117,-374
106,25,-81,-65,93,-28,25,171,94,136,-149,-398
85,-1,-86,-42,85,-43,26,124,56,106,-176,-422
50,-35,-85,-7,68,-59,38,86,21,83,-193,-437
40,-45,-85,3,63,-65,51,71,1,69,-210,-453
30,-55,-85,13,58,-70,49,68,-3,59,-224,-461
12,-72,-84,31,48,-78,55,62,-5,47,-233,-472
12,-69,-80,29,46,-75,61,56,-10,39,-234,-479
9,-70,-80,31,44,-75,60,51,-14,34,-242,-479
10,-70,-80,30,45,-75,60,53,-15,29,-251,-480
10,-70,-80,30,45,-75,60,62,-23,23,-254,-479
10,-70,-80,30,45,-75,64,65,-23,18,-257,-479
10,-70,-80,30,45,-75,65,65,-15,12,-259,-485
10,-70,-80,30,45,-75,65,69,-12,10,-262,-486
10,-70,-80,30,45,-75,65,70,-4,10,-267,-484
10,-70,-80,30,45,-75,65,66,-1,10,-270,-485
10,-70,-80,30,45,-75,65,65,-7,10,-269,-484
10,-70,-80,30,45,-75,65,65,-14,9,-270,-485
20,-70,-91,25,55,-80,65,60,-21,6,-269,-488
26,-70,-96,22,61,-83,65,60,-23,3,-265,-490
24,-70,-94,23,59,-82,65,59,-17,1,-265,-490
22,-74,-95,26,59,-84,65,55,-12,-3,-265,-490
20,-75,-95,28,58,-85,64,53,-9,-4,-265,-490
18,-77,-95,30,56,-86,60,49,-4,-9,-265,-490
18,-80,-98,31,58,-89,60,47,0,-22,-267,-490
19,-81,-100,31,60,-91,58,44,-10,-26,-271,-490
15,-85,-100,35,58,-92,54,42,-23,-25,-269,-490
15,-85,-100,35,58,-92,56,39,-25,-25,-271,-490
16,-84,-100,34,58,-91,57,36,-25,-32,-274,-489
9,-93,-101,42,55,-97,55,33,-25,-40,-278,-493
4,-101,-105,49,55,-102,55,31,-25,-42,-287,-495
5,-100,-105,48,55,-102,55,28,-25,-46,-290,-497
5,-100,-105,48,55,-102,55,25,-29,-48,-289,-500
5,-100,-105,48,55,-102,55,25,-30,-50,-294,-499
1,-103,-105,52,53,-104,55,25,-30,-60,-295,-500
0,-105,-105,53,53,-105,55,25,-30,-66,-295,-500
0,-105,-104,53,52,-105,55,25,-29,-64,-295,-500
2,-105,-107,52,55,-106,54,25,-33,-66,-295,-500
4,-105,-110,50,58,-107,56,25,-35,-73,-295,-500
7,-104,-111,48,59,-107,53,25,-35,-81,-295,-496
10,-96,-106,44,58,-101,50,24,-35,-85,-295,-489
17,-88,-105,36,61,-96,50,26,-35,-89,-292,-485
25,-80,-105,28,65,-92,49,24,-35,-94,-286,-479
28,-72,-100,22,64,-86,61,39,-24,-94,-279,-473
34,-66,-100,16,68,-83,66,63,-3,-96,-274,-470
40,-60,-100,10,70,-80,62,76,11,-93,-264,-470
59,-54,-113,-2,86,-83,57,100,22,-100,-262,-470
47,-50,-97,2,72,-73,57,115,45,-124,-245,-470
39,-49,-89,5,64,-69,36,80,23,-184,-240,-470
70,-66,-136,-1,103,-101,-7,13,-33,-268,-274,-469
66,-78,-144,6,105,-111,-4,-21,-47,-292,-283,-473
55,-72,-127,9,91,-99,10,-11,-42,-301,-276,-477
32,-91,-123,30,78,-107,22,-21,-55,-328,-295,-481
2,-116,-118,57,60,-116,42,-31,-70,-333,-310,-490
-4,-120,-116,63,56,-118,45,-26,-75,-369,-316,-495
-7,-121,-114,64,53,-117,46,-25,-66,-392,-312,-495
-10,-118,-108,64,49,-113,51,-17,-66,-428,-308,-494
-10,-123,-114,67,52,-118,49,-20,-63,-490,-308,-497
-3,-115,-112,60,54,-113,59,-8,-54,-523,-297,-492
-9,-128,-119,69,55,-123,63,-11,-61,-583,-305,-498
-13,-123,-110,69,49,-116,70,4,-34,-613,-286,-490
-7,-137,-131,72,62,-134,66,44,-33,-683,-306,-503
25,-109,-134,42,80,-121,55,175,140,-607,-242,-483
197,105,-92,-151,144,7,-17,332,544,-264,91,-235
649,506,-143,-578,396,181,-339,-51,928,359,728,312
763,757,-6,-760,384,375,-615,-1089,336,332,913,634
228,380,152,-305,38,266,-450,-1664,-909,-762,111,175
-40,60,100,-10,-70,80,-139,-978,-828,-1045,-318,-256
-6,31,37,-12,-22,34,-3,-214,-234,-730,-236,-338
-2,-59,-57,31,28,-57,40,-12,-100,-703,-278,-441
27,-62,-90,18,59,-76,67,64,-20,-631,-249,-441
1,-86,-87,43,44,-86,71,71,-33,-643,-260,-455
6,-87,-93,41,50,-89,74,100,2,-621,-253,-466
14,-82,-96,34,55,-88,77,109,14,-601,-248,-457
14,-89,-103,37,59,-95,76,114,21,-589,-248,-459
17,-82,-98,32,58,-89,75,117,32,-569,-239,-450
10,-88,-97,39,54,-93,75,129,33,-564,-241,-451
14,-80,-94,33,54,-87,75,150,43,-545,-233,-444
17,-78,-95,31,56,-86,75,142,37,-539,-233,-443
16,-74,-90,29,54,-82,74,147,41,-526,-223,-438
19,-70,-90,26,54,-80,70,144,44,-513,-218,-435
24,-67,-90,22,57,-78,68,146,50,-496,-211,-432
27,-63,-90,18,58,-76,65,160,55,-484,-203,-427
34,-57,-90,11,62,-73,62,170,61,-473,-191,-425
40,-48,-88,4,64,-67,60,187,75,-458,-176,-419
44,-40,-84,-1,65,-62,57,203,87,-437,-165,-413
49,-33,-82,-8,66,-57,55,224,103,-418,-157,-406
57,-22,-79,-17,68,-51,56,255,121,-402,-149,-399
72,-4,-76,-33,74,-40,55,284,138,-383,-141,-391
95,20,-75,-57,84,-27,56,326,168,-362,-134,-379
106,38,-68,-72,86,-15,54,363,190,-337,-122,-367
115,57,-58,-86,86,0,50,393,212,-317,-107,-354
120,73,-47,-96,83,13,50,426,240,-297,-90,-339
130,87,-43,-108,86,22,47,437,244,-284,-75,-332
156,111,-45,-133,101,33,45,426,232,-286,-61,-335
153,108,-45,-130,99,32,45,387,221,-282,-57,-335
141,93,-48,-117,95,22,49,328,208,-281,-63,-334
130,80,-51,-105,90,14,50,255,178,-277,-66,-335
98,49,-49,-74,73,0,52,181,131,-288,-80,-333
64,18,-46,-41,55,-13,56,130,81,-318,-108,-354
42,-2,-44,-19,43,-23,55,91,47,-337,-129,-384
30,-16,-45,-7,38,-30,55,68,22,-350,-145,-394
21,-24,-45,2,33,-34,54,53,6,-354,-154,-405
13,-32,-46,10,30,-39,62,40,3,-363,-155,-411
0,-42,-42,21,22,-42,71,41,-1,-361,-155,-409
-10,-49,-39,29,15,-44,69,39,-4,-354,-156,-410
-10,-50,-40,30,15,-45,73,36,-9,-350,-164,-409
-10,-50,-40,30,15,-45,75,35,-9,-343,-165,-410
-10,-50,-40,30,15,-45,74,36,-5,-339,-165,-410
-11,-50,-39,31,14,-45,79,43,-6,-334,-170,-410
-13,-49,-36,31,12,-42,80,42,-3,-331,-170,-410
-11,-44,-33,28,12,-39,80,39,0,-328,-168,-410
-11,-41,-30,26,10,-36,84,40,0,-323,-165,-410
-10,-37,-27,24,9,-32,86,39,-4,-320,-162,-407
-9,-34,-24,22,8,-29,84,40,-6,-316,-160,-404
-2,-30,-27,16,12,-28,78,38,-5,-309,-156,-401
0,-30,-31,15,16,-30,70,35,-5,-302,-155,-397
3,-30,-33,14,18,-31,64,32,-5,-296,-151,-395
7,-29,-36,11,22,-32,57,30,-5,-289,-149,-375
-8,-47,-39,27,16,-43,51,26,-5,-283,-150,-348
-17,-57,-40,37,12,-48,54,25,-5,-280,-150,-338
-14,-54,-40,34,13,-46,55,21,-5,-277,-150,-327
-16,-56,-40,36,13,-47,56,20,-5,-275,-150,-319
-14,-55,-40,34,13,-47,60,20,-5,-271,-150,-315
-17,-55,-38,36,11,-46,60,15,-8,-270,-150,-310
-24,-59,-34,42,5,-46,60,15,-11,-266,-150,-306
-25,-60,-35,43,5,-47,60,14,-14,-265,-150,-301
-25,-60,-35,43,5,-47,60,9,-17,-265,-150,-297
-24,-60,-35,43,5,-47,60,11,-19,-260,-146,-294
-26,-60,-34,44,4,-47,60,7,-22,-260,-144,-295
-28,-58,-30,43,1,-44,59,5,-25,-259,-145,-291
-25,-55,-30,40,3,-42,55,5,-25,-253,-145,-290
-25,-55,-30,40,3,-42,55,5,-27,-249,-145,-290
-25,-55,-30,40,3,-42,55,5,-31,-244,-145,-285
-25,-55,-30,40,3,-42,55,5,-30,-240,-145,-285
-22,-55,-32,39,6,-43,55,5,-27,-235,-145,-285
-20,-55,-35,38,8,-45,58,5,-25,-231,-145,-285
-20,-55,-35,38,8,-45,61,6,-25,-226,-145,-285
-21,-55,-35,39,8,-45,60,11,-21,-221,-145,-282
-19,-55,-36,37,9,-45,60,17,-19,-218,-140,-276
-21,-55,-34,39,7,-45,60,20,-20,-212,-132,-271
-22,-53,-31,38,5,-42,61,26,-11,-209,-126,-266
-1,-30,-29,15,14,-29,70,28,-8,-197,-119,-260
21,-10,-31,-5,26,-21,76,40,8,-183,-111,-255
28,-1,-29,-13,28,-15,70,64,36,-172,-104,-250
32,1,-31,-17,32,-15,61,86,52,-158,-97,-250
45,18,-27,-31,35,-4,53,107,71,-152,-98,-249
32,20,-12,-26,22,4,43,79,67,-136,-103,-251
29,-16,-45,-6,37,-30,40,7,29,-155,-108,-249
46,-19,-66,-13,56,-42,40,-36,-18,-196,-117,-251
42,-4,-46,-19,44,-25,40,-35,-32,-194,-110,-249
18,-21,-39,2,29,-30,40,-34,-33,-200,-111,-251
-21,-56,-35,39,7,-45,39,-52,-41,-199,-138,-285
-38,-69,-31,54,-3,-50,44,-59,-45,-193,-146,-297
-36,-67,-31,51,-2,-48,48,-58,-46,-198,-146,-294
-41,-64,-23,53,-8,-43,57,-47,-43,-189,-142,-295
-38,-66,-28,53,-5,-47,59,-51,-49,-194,-149,-296
-37,-59,-22,49,-8,-40,61,-36,-39,-184,-146,-294
-33,-61,-28,47,-3,-44,63,-45,-47,-193,-151,-301
-39,-62,-23,51,-8,-42,65,-46,-16,-173,-138,-298
-35,-64,-28,50,-3,-46,73,0,-25,-177,-140,-302
16,-47,-63,15,40,-55,63,86,68,-126,-131,-303
100,86,-14,-93,57,36,26,276,400,155,89,-158
488,425,-63,-456,275,181,-234,66,822,705,630,283
860,778,-82,-819,471,348,-598,-891,578,945,1032,734
494,518,25,-506,235,271,-582,-1751,-698,13,437,464
14,125,111,-70,-48,117,-262,-1327,-1000,-573,-160,1
-37,102,139,-32,-88,120,-54,-401,-320,-254,-86,-109
-22,33,55,-6,-38,44,13,-82,-111,-186,-97,-223
-10,4,14,3,-12,9,60,5,-29,-147,-102,-255
-7,-5,2,6,-4,-1,72,37,-12,-133,-102,-277
-14,-20,-6,18,-4,-13,76,66,-5,-137,-110,-296
-12,-16,-4,14,-4,-9,78,84,18,-117,-99,-284
-18,-31,-13,25,-2,-22,73,86,22,-124,-110,-294
-13,-26,-13,20,0,-19,72,105,40,-105,-101,-286
-8,-26,-18,17,5,-22,67,104,33,-108,-106,-292
6,-17,-23,6,15,-20,66,112,50,-95,-96,-286
16,-15,-31,0,24,-23,63,109,50,-92,-96,-285
15,-10,-25,-2,20,-17,60,110,56,-84,-92,-282
15,-5,-20,-5,18,-12,60,122,61,-78,-87,-278
15,-1,-17,-7,16,-9,60,130,67,-73,-85,-276
17,6,-11,-11,13,-2,60,140,75,-65,-79,-273
17,10,-8,-13,12,1,60,155,79,-60,-73,-271
20,16,-4,-17,12,5,60,165,93,-52,-66,-264
23,21,-2,-22,12,9,60,185,105,-47,-59,-261
25,26,1,-25,11,13,60,210,117,-39,-53,-256
30,35,4,-33,13,19,60,243,138,-24,-46,-252
41,46,5,-44,18,26,60,281,168,1,-34,-247
52,63,11,-58,21,37,59,321,193,20,-23,-238
70,87,17,-79,26,52,55,362,220,35,-8,-227
84,109,24,-97,29,66,55,393,252,58,13,-216
95,126,30,-111,32,78,52,429,275,76,26,-203
105,144,39,-125,32,91,50,442,296,95,43,-192
115,167,52,-141,31,110,50,436,295,109,60,-190
124,172,49,-148,37,110,47,412,291,107,56,-189
118,159,40,-139,39,99,42,350,276,100,49,-190
114,149,34,-132,40,91,39,275,233,96,43,-189
95,121,26,-108,34,73,36,195,186,76,36,-192
65,84,19,-74,23,51,31,128,134,45,16,-214
36,51,15,-44,10,33,31,83,90,15,-13,-239
18,33,15,-26,1,24,35,56,59,-3,-25,-259
13,28,15,-21,-1,21,39,41,44,-9,-38,-271
-5,20,25,-8,-16,23,40,34,37,-16,-52,-283
-17,14,31,1,-24,23,41,28,27,-24,-50,-290
-22,8,29,7,-26,18,45,21,18,-31,-56,-289
-28,2,31,13,-30,16,45,14,11,-38,-61,-290
-30,0,29,15,-30,15,49,11,10,-40,-59,-290
-34,-4,31,19,-32,13,50,16,10,-40,-60,-290
-40,-6,35,22,-37,14,53,19,10,-44,-60,-290
-45,-10,35,27,-40,12,55,24,10,-46,-60,-293
-45,-10,35,27,-40,12,57,25,11,-44,-56,-295
-40,-6,35,22,-37,14,61,25,20,-40,-55,-295
-41,-3,37,22,-39,17,58,29,22,-35,-55,-295
-44,0,44,22,-44,21,55,30,19,-31,-50,-295
-43,3,45,19,-44,24,52,28,20,-26,-50,-294
-40,5,45,17,-43,25,50,24,20,-22,-49,-289
-38,7,45,15,-42,26,47,20,20,-17,-45,-290
-34,10,45,12,-39,27,44,18,21,-15,-46,-287
-32,14,46,9,-39,30,45,13,25,-15,-42,-284
-28,15,42,6,-35,29,45,10,25,-12,-40,-285
-26,10,36,7,-31,23,45,13,25,-9,-40,-285
-23,6,29,8,-26,17,45,12,25,-11,-40,-285
-19,4,23,7,-21,13,45,7,25,-14,-40,-284
-17,-1,16,8,-16,7,45,5,22,-15,-40,-285
-14,-4,10,9,-11,2,45,0,17,-15,-40,-284
-28,-8,20,18,-24,6,45,-3,14,-15,-40,-287
-38,-10,28,24,-33,8,45,-7,10,-15,-41,-295
-34,-10,24,22,-29,7,45,-10,7,-15,-45,-295
-35,-10,25,22,-30,7,45,-10,3,-15,-45,-295
-31,-10,21,21,-26,6,42,-12,0,-15,-45,-295
-29,-10,19,20,-24,5,39,-16,0,-15,-45,-295
-31,-10,21,20,-26,5,36,-14,0,-15,-45,-294
-34,-10,24,22,-29,7,34,-19,0,-15,-49,-290
-35,-10,25,22,-30,7,29,-20,1,-15,-50,-290
-35,-10,25,22,-30,7,32,-21,-4,-16,-50,-290
-36,-10,25,22,-31,7,40,-24,-5,-15,-50,-290
-32,-8,24,20,-28,8,40,-26,-6,-15,-50,-290
-31,-3,28,17,-29,12,40,-24,-9,-16,-49,-287
-30,0,30,15,-30,15,40,-18,-10,-14,-42,-282
-27,3,30,12,-29,16,40,-13,-9,-16,-37,-279
-21,8,29,7,-26,18,42,-5,5,-8,-31,-275
-21,10,31,5,-26,20,49,-4,18,6,-27,-272
-10,26,36,-9,-23,31,45,14,33,20,-20,-268
5,46,42,-26,-19,44,41,39,48,34,-12,-265
13,52,38,-32,-13,45,36,63,57,35,-4,-265
13,55,42,-34,-15,48,32,67,68,42,13,-263
17,48,31,-33,-7,39,23,31,60,38,16,-259
56,38,-18,-47,37,10,-15,-9,25,24,5,-260
45,30,-15,-37,30,7,-23,-51,-11,15,-3,-256
7,21,14,-14,-4,17,-6,-52,-22,5,-11,-249
0,8,8,-4,-4,8,-2,-58,-31,-6,-39,-270
-23,-16,7,19,-15,-4,5,-75,-38,-21,-55,-293
-45,-41,4,42,-24,-18,10,-80,-47,-37,-58,-291
-46,-46,0,46,-22,-23,21,-92,-43,-34,-66,-290
-45,-44,2,45,-23,-21,40,-81,-39,-30,-60,-289
-50,-45,5,47,-27,-20,38,-83,-39,-30,-60,-292
-55,-36,19,45,-37,-8,44,-68,-28,-18,-52,-288
-55,-44,11,49,-33,-16,43,-74,-37,-28,-54,-292
-54,-35,19,44,-36,-8,47,-53,-15,-9,-47,-294
-50,-54,-4,52,-23,-29,50,-11,-21,-33,-50,-296
-15,-32,-17,23,1,-24,29,112,134,72,5,-267
147,154,7,-151,70,81,-37,261,500,417,269,-73
629,537,-92,-582,360,222,-353,-106,850,967,847,425
842,765,-77,-803,459,344,-657,-1142,303,919,1029,730
322,388,66,-355,128,227,-520,-1779,-913,-97,294,321
-57,108,165,-26,-111,136,-200,-1101,-831,-367,-85,-38
-30,110,139,-40,-85,124,-48,-297,-215,-58,19,-123
-10,25,34,-7,-22,29,-1,-85,-93,-43,-26,-227
-17,8,25,4,-21,16,42,-5,-7,13,-16,-232
-35,-17,19,26,-27,1,56,16,-14,3,-39,-256
-41,-28,13,34,-27,-7,61,51,14,15,-37,-256
-36,-24,12,30,-23,-6,60,57,23,21,-33,-253
-28,-25,3,26,-15,-10,60,65,33,22,-38,-258
-24,-17,7,20,-16,-5,61,74,47,34,-27,-252
-22,-19,4,20,-12,-7,59,74,42,31,-33,-257
-19,-13,6,16,-12,-4,61,83,52,38,-26,-249
-17,-13,4,15,-11,-4,57,83,49,32,-27,-248
-14,-9,6,11,-10,-1,55,90,59,37,-22,-243
-15,-11,4,12,-9,-3,55,92,64,33,-20,-240
-9,-9,0,9,-4,-5,51,103,74,40,-16,-236
-11,-11,0,11,-6,-5,50,111,76,50,-15,-232
-9,-9,0,9,-4,-4,50,119,86,50,-11,-226
-1,-1,0,0,0,0,45,139,99,52,0,-221
9,10,0,-9,4,5,45,159,117,62,6,-216
22,25,3,-24,9,14,45,187,137,76,17,-210
22,30,8,-26,7,19,45,222,154,88,24,-206
39,50,10,-44,14,30,46,259,181,106,37,-197
51,66,15,-59,17,40,42,296,204,124,58,-188
61,79,18,-70,21,48,39,334,235,141,71,-176
82,104,22,-93,30,63,40,372,255,153,85,-159
88,120,32,-104,27,76,36,401,280,172,98,-143
99,144,44,-122,27,94,35,418,307,190,112,-130
101,155,54,-128,23,104,35,410,303,187,119,-118
96,145,50,-121,23,97,30,373,297,181,113,-107
95,138,43,-117,26,90,30,309,272,175,105,-100
88,127,39,-108,24,83,30,233,228,171,100,-46
68,100,32,-84,18,66,30,159,177,146,88,23
39,66,27,-53,6,47,30,98,125,109,61,69
14,39,25,-27,-5,31,32,64,87,87,29,97
1,26,25,-14,-12,25,36,42,61,72,4,113
-3,21,25,-10,-14,23,39,25,46,63,-2,129
-11,14,25,-2,-18,19,40,17,39,52,-5,137
-17,8,25,4,-21,16,41,11,32,43,-9,144
-24,1,25,11,-25,13,46,3,26,39,-13,147
-33,-4,29,19,-31,12,44,-5,18,37,-16,157
-35,-5,30,20,-32,12,48,-8,18,34,-20,161
-35,-5,29,20,-32,12,50,-5,26,31,-28,159
-37,-5,32,21,-34,14,50,-5,23,29,-30,161
-44,-6,39,25,-41,16,54,-5,20,26,-29,159
-44,-4,40,24,-42,18,55,-5,18,25,-26,162
-40,0,40,20,-40,20,54,-5,14,24,-25,165
-41,0,40,20,-40,20,51,-2,18,20,-25,165
-37,2,40,18,-39,21,50,1,20,19,-25,170
-35,5,40,15,-38,22,50,4,20,24,-26,170
-33,5,37,14,-36,21,50,7,25,30,-22,173
-33,1,34,15,-34,18,50,10,25,33,-20,179
-36,0,35,18,-35,17,48,9,25,36,-20,180
-35,0,35,17,-35,17,44,4,25,35,-20,199
-35,0,35,17,-35,17,45,1,23,35,-20,221
-35,0,35,17,-35,17,45,-2,19,35,-20,225
-29,1,30,14,-30,16,45,-7,17,35,-24,225
-25,5,30,10,-28,17,45,-10,14,33,-29,221
-25,5,30,10,-28,17,40,-14,11,29,-31,219
-25,5,30,10,-28,17,40,-16,9,27,-29,220
-25,5,31,10,-28,17,39,-19,5,24,-30,219
-22,5,27,9,-25,16,35,-20,0,21,-36,220
-23,2,25,10,-24,13,35,-19,-5,19,-35,218
-29,-4,25,16,-27,10,35,-26,-8,16,-35,215
-34,-9,25,21,-29,8,35,-30,-14,15,-39,215
-37,-12,25,24,-31,6,35,-35,-13,15,-40,215
-44,-18,25,30,-34,4,35,-41,-10,15,-40,215
-48,-19,29,34,-39,5,35,-40,-10,15,-40,215
-45,-15,30,30,-37,7,35,-40,-7,15,-40,211
-45,-15,30,30,-37,7,30,-40,-4,15,-40,209
-45,-15,30,30,-37,7,30,-39,-6,15,-44,210
-44,-15,30,30,-36,7,29,-44,-9,15,-45,210
-46,-15,30,31,-38,7,25,-45,-10,14,-45,210
-41,-11,30,26,-35,9,25,-45,-11,16,-45,209
-35,-5,30,20,-32,12,27,-45,-15,19,-45,210
-29,1,30,14,-30,15,32,-45,-16,20,-44,210
-24,5,30,9,-27,17,35,-44,-11,20,-35,209
-27,15,41,6,-34,28,43,-17,6,22,-25,218
-16,31,47,-8,-32,38,48,8,29,44,-17,234
-21,24,45,-2,-33,34,45,27,40,50,-11,234
-24,18,43,3,-34,30,41,48,51,56,-8,226
9,49,40,-29,-16,44,41,42,54,70,-2,246
20,59,39,-40,-10,49,10,5,29,54,-1,254
6,40,34,-24,-14,37,-21,-61,0,38,-15,242
-4,25,29,-11,-17,27,-13,-87,-28,22,-33,235
-17,9,26,4,-22,17,-2,-81,-33,8,-44,227
-37,-13,24,24,-30,5,12,-91,-46,0,-59,220
-62,-36,26,49,-44,-5,29,-94,-66,-4,-74,213
-72,-47,25,59,-48,-11,30,-110,-70,-15,-82,203
-68,-43,25,55,-46,-9,30,-109,-62,-17,-78,197
-77,-50,27,63,-51,-12,31,-104,-68,-27,-81,189
-81,-60,21,70,-51,-19,29,-104,-59,-24,-81,183
-81,-57,24,69,-53,-17,40,-92,-60,-24,-77,181
-79,-67,12,73,-45,-27,42,-102,-62,-30,-84,170
-81,-59,21,69,-51,-19,49,-55,-47,-16,-65,176
-75,-71,4,73,-39,-33,34,-18,-42,-35,-85,155
-21,-2,19,12,-20,8,21,130,178,135,6,209
240,232,-7,-236,123,112,-93,217,570,538,365,498
760,634,-126,-697,443,254,-472,-351,779,1042,927,1016
758,710,-48,-734,403,331,-675,-1426,-77,670,845,1122
159,263,104,-211,27,183,-432,-1726,-1067,-305,60,633
-83,99,182,-8,-133,140,-141,-854,-665,-283,-121,385
-35,97,132,-31,-84,114,-32,-220,-183,-48,-32,308
-31,20,51,5,-41,35,13,-94,-103,-55,-79,229
-33,12,45,10,-39,28,37,-30,-38,0,-61,235
-52,-23,29,37,-40,3,48,-7,-52,-23,-90,208
-50,-22,28,36,-38,3,59,37,-22,1,-75,211
-44,-26,18,35,-31,-4,52,33,-25,-6,-82,196
-38,-25,13,31,-25,-6,51,40,-8,3,-80,190
-32,-24,8,27,-19,-8,47,48,-5,8,-79,191
-31,-27,4,28,-17,-11,44,43,-1,8,-80,188
-29,-23,6,25,-17,-9,47,53,7,15,-72,192
-26,-22,4,23,-15,-8,45,64,10,13,-77,188
-21,-15,5,18,-13,-5,45,68,18,21,-73,194
-19,-14,5,16,-12,-5,44,73,21,19,-76,205
-19,-9,10,14,-15,0,40,82,26,21,-74,209
-15,-6,10,11,-12,1,40,87,25,19,-69,212
-14,-2,11,8,-12,4,38,101,42,22,-64,213
-9,6,15,1,-13,10,35,123,60,33,-59,220
-3,12,15,-5,-9,13,36,139,66,42,-53,234
2,19,17,-11,-8,18,35,165,88,53,-48,236
13,34,21,-23,-4,27,35,199,106,65,-41,233
28,47,19,-38,4,33,35,231,130,84,-29,240
48,70,22,-59,13,45,30,271,166,107,-17,261
50,87,37,-69,6,62,30,302,183,123,-8,272
60,107,47,-84,6,77,29,339,211,134,3,284
82,135,53,-109,15,93,24,364,232,150,12,295
83,141,59,-112,12,100,26,379,243,166,24,307
94,153,59,-124,17,106,22,368,252,174,28,322
95,149,54,-122,20,101,20,321,234,176,21,316
82,130,48,-106,16,89,20,259,202,159,11,310
70,115,45,-93,12,80,16,174,159,130,6,306
41,81,40,-61,0,60,14,107,103,98,-8,283
10,45,36,-28,-13,40,16,60,51,65,-44,252
-17,14,31,1,-25,22,20,24,12,38,-71,232
-27,2,30,13,-29,16,20,-1,-10,23,-82,219
-31,-1,30,15,-30,15,21,-17,-22,19,-94,214
-36,-6,30,21,-33,12,24,-21,-31,14,-105,209
-39,-9,30,24,-35,10,26,-28,-35,8,-104,202
-45,-15,30,30,-37,7,24,-33,-35,2,-108,197
-48,-15,34,31,-40,9,27,-33,-35,-3,-120,194
-50,-15,35,32,-42,10,34,-30,-35,-5,-121,195
-50,-15,35,32,-42,10,37,-27,-35,-8,-125,195
-50,-15,35,32,-42,10,44,-24,-43,-11,-127,195
-51,-16,35,33,-42,10,45,-21,-46,-15,-131,195
-49,-13,35,31,-42,11,45,-20,-45,-15,-135,195
-50,-10,40,30,-45,15,45,-20,-45,-10,-130,199
-47,-8,40,28,-43,16,45,-20,-45,-10,-131,200
-46,-5,41,25,-43,18,44,-21,-45,-9,-140,200
-52,-2,50,27,-51,24,40,-19,-45,-5,-140,200
-48,1,49,23,-49,25,40,-26,-45,-5,-140,200
-50,-4,46,26,-48,20,40,-36,-45,-7,-140,200
-54,-11,43,32,-49,16,40,-35,-45,-11,-139,200
-50,-10,40,30,-45,15,40,-35,-45,-16,-141,200
-49,-10,39,29,-44,14,36,-35,-47,-19,-145,200
-45,-10,35,27,-40,12,35,-35,-50,-20,-148,200
-42,-10,32,26,-37,11,35,-38,-50,-20,-152,206
-42,-12,30,27,-36,9,35,-41,-56,-20,-157,204
-43,-16,26,29,-34,5,35,-44,-62,-20,-160,199
-43,-19,25,31,-34,2,34,-46,-66,-21,-160,197
-48,-23,25,35,-36,1,30,-52,-71,-33,-160,192
-50,-25,25,37,-37,0,30,-60,-74,-35,-160,190
-45,-20,25,32,-35,2,30,-59,-79,-36,-160,196
-46,-20,25,32,-35,2,30,-62,-82,-44,-160,200
-43,-19,24,30,-34,3,30,-70,-87,-45,-160,199
-41,-15,26,28,-33,6,26,-70,-89,-50,-173,200
-45,-14,30,30,-37,7,25,-70,-94,-49,-189,199
-48,-18,30,33,-39,6,25,-70,-101,-44,-190,201
-55,-25,30,40,-42,2,20,-69,-100,-45,-190,210
-55,-25,30,40,-42,2,20,-71,-100,-45,-190,210
-55,-25,30,40,-42,2,19,-75,-100,-45,-189,209
-55,-25,30,40,-42,2,14,-75,-100,-45,-191,206
-55,-25,30,40,-42,2,15,-72,-104,-48,-188,204
-55,-25,30,40,-42,2,15,-69,-104,-56,-196,206
-46,-16,31,31,-38,7,14,-67,-95,-54,-198,203
-44,-2,43,23,-43,20,29,-62,-79,-40,-177,219
-45,5,50,20,-48,27,39,-44,-57,-30,-168,239
-31,14,44,8,-38,29,35,-16,-45,-20,-162,240
-22,17,39,2,-31,28,34,4,-41,-10,-157,250
-6,48,54,-21,-30,51,37,0,-29,-1,-149,260
19,51,33,-36,-7,42,2,-32,-50,-1,-160,258
18,12,-6,-14,11,3,-35,-82,-101,-31,-191,252
13,19,6,-16,3,12,-22,-115,-117,-55,-197,246
-12,13,25,-1,-19,19,-7,-121,-113,-53,-192,242
-49,-20,28,34,-38,4,-1,-126,-131,-70,-214,235
-67,-35,31,51,-49,-2,6,-130,-147,-94,-241,230
-78,-49,29,63,-53,-9,9,-132,-157,-108,-250,221
-73,-43,30,58,-51,-6,14,-129,-152,-104,-253,217
-75,-43,32,59,-53,-5,19,-130,-160,-114,-252,208
-65,-41,24,53,-45,-8,22,-132,-162,-104,-256,204
-66,-36,30,51,-48,-3,27,-127,-158,-103,-270,208
-68,-50,18,58,-42,-16,22,-133,-152,-104,-273,199
-70,-36,34,53,-52,-1,30,-99,-122,-88,-264,204
-69,-65,4,67,-36,-31,21,-54,-99,-105,-269,186
-21,5,26,7,-23,16,17,115,120,92,-149,260
231,260,29,-246,101,144,-114,198,534,518,226,571
736,668,-67,-702,401,300,-492,-396,747,1051,835,1124
658,773,115,-716,271,444,-659,-1463,-153,652,724,1246
53,301,248,-177,-98,274,-406,-1709,-1135,-370,-112,704
-111,93,203,9,-157,148,-126,-844,-733,-358,-315,416
-49,92,141,-22,-95,116,-19,-236,-274,-131,-257,342
-51,15,66,18,-59,40,17,-114,-184,-140,-297,272
-51,17,68,16,-60,42,34,-58,-119,-95,-267,280
-55,-2,53,28,-55,25,37,-49,-127,-113,-289,256
-48,2,50,23,-49,26,41,-26,-92,-89,-277,259
-51,-8,43,29,-47,18,40,-20,-97,-99,-288,246
-48,-14,34,31,-41,10,40,-7,-83,-89,-284,240
-43,-12,31,27,-37,10,40,3,-83,-86,-284,237
-35,-11,24,23,-30,6,40,23,-78,-85,-287,244
-35,-9,26,21,-30,8,39,26,-71,-78,-282,251
-32,-8,24,19,-28,8,35,26,-70,-79,-283,251
-29,-4,25,16,-26,11,33,32,-61,-73,-277,256
-31,-6,25,18,-28,10,29,29,-59,-73,-276,258
-23,1,24,11,-24,13,27,44,-50,-69,-271,266
-19,7,26,5,-23,16,24,57,-47,-67,-270,271
-23,15,37,4,-30,25,22,59,-38,-59,-268,271
-21,20,41,1,-32,30,19,65,-27,-53,-261,280
-10,29,39,-10,-25,34,16,87,-14,-46,-257,293
-1,40,41,-20,-21,40,13,112,8,-39,-251,298
10,49,39,-29,-15,44,10,143,26,-23,-245,310
23,65,42,-44,-10,53,10,179,54,-2,-240,319
30,83,53,-57,-12,67,10,214,78,11,-231,332
40,98,58,-69,-10,78,10,250,101,25,-218,347
52,113,61,-83,-4,87,10,280,124,43,-206,363
71,138,67,-105,1,103,10,308,141,53,-191,377
83,158,75,-121,4,116,10,315,155,61,-179,391
79,159,80,-119,-1,119,10,300,150,57,-178,400
62,150,88,-106,-13,119,10,260,142,48,-182,393
58,145,87,-102,-15,116,10,198,113,39,-184,387
52,133,81,-93,-14,107,10,127,65,34,-188,383
19,95,76,-57,-29,85,10,63,21,14,-208,373
-3,66,70,-32,-37,68,11,19,-17,-22,-237,352
-14,51,65,-19,-40,58,16,-18,-49,-43,-257,338
-30,35,65,-3,-48,50,21,-44,-74,-60,-272,334
-46,19,65,13,-56,42,25,-55,-83,-69,-283,328
-56,9,65,23,-60,37,30,-55,-93,-74,-293,323
-54,11,65,21,-60,37,35,-56,-101,-79,-296,316
-56,8,65,23,-61,36,31,-60,-100,-82,-294,317
-62,5,67,28,-65,36,30,-60,-100,-86,-296,320
-66,5,71,31,-69,37,30,-58,-100,-85,-293,319
-67,7,74,29,-71,41,30,-53,-100,-85,-297,320
-65,11,75,27,-70,42,45,-47,-100,-85,-309,319
-69,9,78,29,-73,44,51,-44,-100,-85,-311,320
-67,14,81,27,-74,47,45,-38,-100,-85,-309,319
-62,15,77,23,-70,46,43,-35,-101,-85,-305,324
-60,15,75,22,-68,45,38,-40,-105,-85,-305,337
-56,20,75,17,-65,47,34,-43,-104,-85,-304,341
-51,20,71,16,-61,46,41,-48,-108,-83,-300,345
-50,20,70,15,-60,45,46,-50,-110,-79,-298,350
-50,20,70,15,-60,45,42,-50,-110,-77,-294,353
-50,20,70,15,-60,45,40,-50,-114,-74,-292,358
-52,18,70,17,-61,44,37,-51,-115,-71,-289,360
-56,14,70,21,-63,42,34,-54,-114,-70,-294,360
-55,15,70,20,-63,42,35,-57,-116,-70,-295,360
-55,15,70,20,-63,42,35,-64,-120,-70,-295,360
-53,15,68,18,-61,41,35,-70,-124,-69,-300,360
-50,14,64,17,-57,39,35,-69,-129,-71,-300,360
-52,11,63,20,-57,37,35,-71,-134,-68,-300,359
-50,8,58,21,-54,33,36,-75,-137,-79,-300,364
-52,5,57,23,-55,31,40,-75,-142,-120,-300,365
-50,3,53,23,-52,28,43,-75,-145,-149,-300,360
-58,0,58,29,-58,28,47,-75,-147,-166,-300,356
-43,-2,41,22,-42,20,50,-75,-151,-188,-300,357
