I,II,III,aVR,aVL,aVF,V1,V2,V3,V4,V5,V6
-66,8,75,29,-70,41,-35,-84,-74,-73,-31,-98
-71,-6,65,39,-68,29,-31,-109,-100,-99,-48,-118
-67,-19,48,42,-57,15,-24,-117,-108,-105,-68,-121
-68,-28,39,48,-54,5,-17,-113,-107,-92,-62,-123
-91,-50,40,70,-65,-5,-11,-117,-116,-107,-71,-130
-120,-80,40,100,-80,-20,-5,-114,-125,-132,-93,-154
-134,-95,39,114,-86,-27,1,-115,-125,-140,-109,-171
-135,-93,42,114,-88,-25,-2,-112,-126,-140,-116,-168
-132,-97,36,114,-83,-30,3,-106,-123,-140,-114,-172
-131,-94,37,112,-83,-28,-4,-116,-128,-140,-110,-168
-128,-96,32,111,-80,-32,5,-94,-119,-140,-107,-172
-133,-95,38,114,-85,-29,-2,-119,-121,-140,-106,-168
-116,-84,32,99,-74,-26,16,-87,-103,-130,-100,-163
-115,-78,37,96,-76,-20,19,-115,-108,-130,-89,-170
-129,-48,81,88,-105,16,26,-78,-90,-102,-70,-139
-107,-9,98,58,-103,44,67,12,14,1,11,-66
118,155,37,-137,40,96,100,295,404,446,501,367
426,258,-167,-342,296,45,226,792,1020,1094,1168,936
393,157,-237,-275,315,-40,-174,31,579,853,911,754
132,146,14,-139,59,79,-595,-876,-421,-53,31,70
-68,146,214,-40,-141,180,-347,-588,-424,-269,-184,-171
-78,68,146,4,-112,107,-120,-186,-93,-65,-36,-96
-61,8,68,26,-64,38,-11,-20,-28,-41,-52,-108
-88,-23,65,55,-76,21,26,-1,-7,-29,-37,-100
-91,-34,57,63,-74,11,40,19,-2,-33,-35,-98
-100,-39,61,69,-80,11,61,28,7,-29,-28,-97
-88,-35,54,61,-70,9,50,36,12,-25,-27,-92
-89,-33,56,60,-72,11,59,66,19,-25,-36,-91
-82,-30,53,56,-68,11,52,63,25,-19,-23,-82
-75,-26,49,51,-62,11,56,72,32,-20,-18,-81
-73,-25,47,48,-60,11,58,69,43,-9,-8,-74
-64,-21,43,42,-53,11,60,83,51,-1,-3,-71
-57,-15,42,36,-49,13,60,95,58,11,4,-65
-47,-9,38,28,-42,15,59,107,71,19,10,-54
-59,-4,55,31,-57,25,61,132,88,38,26,-46
-64,2,67,30,-65,34,58,155,109,62,47,-32
-40,24,64,7,-52,44,55,187,138,85,72,-15
-19,46,65,-14,-42,56,55,220,174,119,102,20
5,70,65,-38,-30,67,55,269,217,161,142,63
37,102,65,-70,-14,83,55,325,271,215,190,96
73,138,65,-106,4,101,56,380,332,272,245,152
116,181,65,-149,25,123,51,440,395,340,313,218
156,221,65,-189,45,143,45,487,452,402,376,275
190,255,65,-223,62,160,40,510,494,454,431,330
205,271,65,-238,70,168,34,512,519,494,473,373
205,269,64,-237,71,166,29,493,509,490,484,378
201,260,60,-230,70,160,24,425,464,459,452,353
167,228,60,-197,54,144,19,315,387,389,379,290
116,173,58,-145,29,115,16,202,282,283,276,194
58,113,54,-86,2,83,13,109,177,178,172,103
5,60,55,-33,-26,58,8,38,90,89,84,21
-31,20,51,5,-41,35,5,-13,32,30,22,-40
-53,-9,44,31,-48,17,9,-44,-12,-13,-25,-78
-62,-25,38,43,-49,6,11,-60,-39,-39,-58,-98
-71,-41,31,56,-51,-5,10,-68,-45,-54,-67,-111
-77,-53,24,65,-50,-14,10,-70,-49,-63,-78,-116
-75,-56,20,66,-47,-18,9,-70,-52,-68,-81,-114
-74,-54,20,64,-47,-16,12,-73,-54,-71,-80,-115
-81,-61,20,71,-50,-20,15,-76,-61,-70,-85,-115
-86,-66,20,76,-53,-23,15,-74,-65,-70,-85,-115
-82,-62,20,72,-51,-21,15,-71,-58,-70,-84,-110
-80,-60,20,70,-50,-20,15,-70,-55,-69,-80,-110
-80,-57,24,68,-52,-16,15,-69,-50,-65,-77,-109
-80,-55,25,67,-52,-15,11,-65,-45,-62,-75,-104
-77,-52,25,64,-51,-13,10,-65,-49,-60,-72,-106
-75,-46,29,61,-52,-8,10,-68,-50,-56,-70,-102
-72,-41,31,57,-51,-5,5,-70,-50,-55,-74,-100
-67,-38,29,52,-47,-5,5,-72,-55,-55,-76,-100
-57,-32,25,44,-40,-3,4,-75,-55,-56,-75,-97
-57,-31,25,43,-41,-3,-1,-76,-56,-54,-75,-94
-58,-35,22,46,-40,-6,1,-78,-61,-57,-75,-96
-55,-35,20,45,-37,-7,-3,-82,-64,-68,-76,-99
-60,-40,20,50,-40,-10,-5,-84,-69,-76,-81,-102
-56,-39,17,47,-36,-11,-5,-90,-72,-81,-84,-104
-57,-43,14,49,-35,-14,-8,-100,-76,-78,-88,-108
-66,-55,11,61,-38,-21,-11,-99,-81,-89,-92,-110
-63,-55,8,59,-35,-23,-14,-106,-84,-101,-96,-110
-60,-55,6,57,-33,-25,-17,-111,-89,-102,-100,-110
-58,-55,3,56,-30,-26,-19,-109,-90,-106,-100,-110
-55,-55,0,55,-27,-27,-22,-110,-90,-108,-100,-110
-52,-53,0,53,-26,-26,-25,-110,-95,-110,-100,-110
-50,-49,0,50,-25,-25,-25,-110,-95,-110,-100,-110
-47,-47,0,47,-23,-23,-25,-113,-96,-110,-104,-109
-44,-44,0,44,-21,-22,-25,-117,-100,-110,-105,-116
-44,-40,4,42,-24,-18,-25,-122,-99,-109,-107,-121
-49,-40,8,44,-28,-16,-29,-125,-102,-105,-110,-120
-58,-45,13,51,-35,-16,-30,-125,-105,-105,-111,-118
-59,-45,14,52,-36,-15,-30,-125,-105,-105,-115,-115
-58,-48,9,53,-34,-19,-30,-125,-105,-104,-115,-114
-61,-51,10,56,-36,-20,-29,-125,-105,-115,-117,-124
-57,-50,8,53,-32,-21,-31,-121,-105,-121,-120,-131
-55,-50,4,52,-29,-22,-35,-120,-105,-120,-120,-130
-55,-50,6,52,-30,-22,-35,-120,-105,-118,-120,-128
-51,-50,1,51,-26,-24,-35,-120,-106,-114,-120,-124
-50,-50,0,50,-25,-25,-35,-120,-110,-115,-120,-125
-50,-51,0,50,-25,-25,-35,-119,-110,-119,-120,-121
-50,-54,-4,53,-22,-29,-35,-126,-112,-120,-119,-120
-50,-56,-5,53,-22,-31,-35,-131,-116,-120,-121,-120
-51,-54,-4,53,-23,-29,-35,-130,-114,-120,-125,-115
-56,-56,0,56,-27,-27,-35,-128,-119,-120,-125,-115
-54,-54,0,54,-27,-26,-35,-124,-120,-119,-127,-115
-57,-57,0,57,-28,-28,-35,-125,-120,-115,-130,-115
-65,-65,0,65,-32,-32,-35,-121,-125,-115,-130,-115
-60,-60,0,60,-30,-30,-35,-119,-125,-115,-126,-115
-59,-55,4,56,-31,-25,-35,-120,-124,-115,-124,-115
-55,-50,5,51,-30,-22,-35,-119,-119,-115,-125,-115
-48,-43,5,45,-27,-19,-35,-121,-114,-111,-120,-112
-51,-41,10,46,-30,-15,-32,-118,-109,-107,-120,-109
-56,-46,10,51,-32,-17,-27,-111,-105,-102,-119,-106
-61,-50,11,55,-36,-19,-24,-103,-101,-98,-110,-103
-51,-33,17,42,-34,-8,-21,-95,-94,-92,-100,-101
-32,-7,24,19,-28,8,-15,-87,-80,-82,-90,-98
-9,12,21,-2,-16,17,-16,-75,-45,-66,-82,-95
15,29,14,-22,0,21,-2,-50,-24,-56,-76,-96
34,41,8,-38,13,24,-21,-46,-26,-47,-74,-92
36,37,1,-36,17,18,-71,-99,-53,-41,-65,-90
30,24,-6,-27,18,9,-75,-142,-109,-92,-92,-89
25,13,-12,-19,18,1,-68,-151,-135,-129,-122,-94
16,1,-15,-8,15,-6,-66,-150,-135,-123,-120,-94
1,-17,-18,8,10,-17,-59,-150,-140,-126,-125,-98
-30,-49,-20,39,-5,-34,-57,-151,-141,-128,-128,-117
-49,-73,-24,62,-12,-48,-49,-147,-148,-147,-143,-140
-57,-81,-24,70,-16,-53,-51,-151,-157,-151,-150,-152
-64,-86,-23,75,-20,-54,-41,-135,-147,-149,-149,-156
-67,-85,-18,76,-24,-51,-44,-143,-148,-152,-152,-155
-62,-84,-22,73,-20,-53,-34,-125,-139,-148,-147,-154
-68,-87,-19,78,-24,-52,-34,-133,-138,-153,-154,-158
-61,-82,-20,72,-20,-51,-32,-124,-137,-139,-142,-149
-58,-78,-20,68,-19,-49,-21,-131,-139,-137,-139,-156
-35,-27,8,31,-21,-10,-39,-125,-120,-112,-117,-117
-9,4,14,2,-12,9,20,-37,-37,-53,-70,-88
106,125,19,-115,43,72,26,123,226,264,275,209
452,285,-167,-368,309,59,178,716,882,938,992,843
553,210,-343,-381,448,-66,-31,332,801,986,1022,886
296,153,-143,-224,219,5,-575,-805,-234,133,175,227
54,154,99,-104,-23,126,-465,-763,-521,-306,-246,-179
0,98,99,-49,-50,98,-197,-295,-177,-131,-108,-139
32,40,9,-36,11,24,-77,-82,-52,-64,-88,-110
-1,-7,-6,5,2,-6,-17,-32,-28,-54,-93,-116
-5,-11,-6,8,1,-8,-13,-21,-18,-46,-79,-105
-4,-15,-12,9,5,-13,15,5,-13,-53,-83,-108
-6,-18,-12,13,3,-15,14,4,-7,-41,-71,-98
-6,-22,-16,15,5,-19,26,25,-2,-48,-72,-99
-5,-26,-21,16,9,-23,23,27,4,-41,-60,-92
7,-19,-27,7,17,-23,34,42,9,-37,-57,-88
9,-15,-24,4,17,-20,36,49,18,-29,-48,-84
15,-10,-26,-2,21,-17,34,60,24,-22,-43,-78
18,-6,-25,-5,22,-15,36,75,31,-17,-37,-75
24,-2,-25,-11,25,-13,34,90,42,-3,-27,-65
34,4,-30,-19,31,-12,36,106,60,8,-18,-54
48,18,-30,-33,39,-6,35,130,85,28,3,-40
62,32,-30,-47,46,1,35,161,105,56,21,-25
72,42,-30,-57,51,6,35,195,135,82,47,2
100,70,-30,-85,64,20,35,238,179,122,90,36
127,97,-30,-112,78,33,35,289,227,170,136,77
156,126,-30,-141,92,48,31,354,287,228,195,131
198,168,-30,-183,114,69,25,412,351,297,260,186
234,204,-30,-219,132,87,20,461,409,357,325,245
276,246,-30,-261,153,108,14,500,459,416,389,305
297,267,-30,-282,163,118,9,505,486,448,430,351
283,258,-25,-270,154,116,4,485,480,440,424,365
275,249,-25,-262,150,112,0,435,455,428,410,347
265,242,-24,-253,144,109,0,341,398,378,370,297
226,206,-20,-216,123,93,-2,226,294,283,275,207
159,140,-20,-150,89,60,-6,126,189,181,174,110
101,79,-22,-90,62,28,-5,52,95,88,82,26
56,31,-26,-43,40,2,-2,4,30,23,19,-40
27,-5,-32,-11,29,-18,3,-32,-12,-26,-28,-83
16,-28,-44,6,30,-36,6,-51,-44,-68,-66,-112
5,-43,-49,19,27,-46,9,-59,-48,-91,-89,-124
7,-52,-59,23,33,-55,14,-65,-59,-100,-96,-129
5,-62,-66,29,36,-64,16,-65,-72,-105,-94,-140
2,-63,-64,31,33,-63,20,-64,-69,-105,-95,-140
6,-59,-65,27,36,-62,20,-60,-73,-106,-95,-140
4,-61,-65,29,35,-62,20,-60,-75,-110,-95,-140
9,-56,-65,24,37,-60,20,-58,-75,-110,-91,-140
7,-55,-62,24,35,-58,20,-54,-71,-108,-86,-138
2,-55,-57,27,30,-56,32,-52,-65,-103,-84,-134
4,-50,-55,23,30,-52,36,-49,-60,-97,-79,-136
0,-50,-50,25,25,-50,35,-46,-55,-94,-76,-131
-2,-49,-47,26,22,-47,32,-45,-48,-88,-75,-130
-2,-45,-43,24,21,-44,29,-45,-47,-86,-75,-130
-5,-45,-40,25,18,-42,30,-45,-49,-89,-75,-125
-7,-47,-40,27,17,-43,25,-46,-54,-92,-75,-125
-11,-51,-40,30,15,-45,25,-44,-54,-95,-75,-125
-10,-50,-40,30,15,-45,24,-51,-60,-98,-75,-125
-10,-50,-40,30,15,-45,20,-62,-75,-100,-79,-125
-11,-50,-39,30,14,-44,20,-64,-75,-105,-80,-127
-1,-50,-50,26,25,-50,20,-69,-74,-108,-79,-134
2,-55,-56,27,29,-55,20,-70,-78,-113,-82,-141
-4,-58,-54,32,25,-56,20,-71,-87,-119,-89,-148
-4,-63,-59,33,28,-60,20,-75,-91,-126,-95,-150
-5,-65,-60,35,28,-62,20,-74,-90,-133,-95,-150
-5,-65,-59,35,27,-62,20,-78,-95,-135,-99,-150
-10,-65,-56,38,24,-60,15,-80,-94,-138,-100,-150
-10,-65,-55,38,23,-60,14,-80,-96,-140,-99,-150
-10,-65,-55,38,23,-60,9,-80,-100,-140,-111,-154
-15,-70,-55,43,20,-62,12,-80,-100,-140,-116,-155
-14,-70,-56,42,21,-62,29,-80,-102,-140,-114,-155
-19,-71,-52,45,17,-61,28,-80,-107,-140,-115,-155
-26,-75,-50,50,12,-62,24,-80,-110,-140,-115,-157
-24,-75,-50,50,13,-62,21,-80,-110,-142,-115,-160
-27,-77,-50,52,12,-63,16,-80,-110,-145,-110,-160
-31,-81,-50,56,10,-65,14,-80,-110,-145,-110,-164
-29,-80,-50,54,11,-65,10,-80,-110,-145,-110,-165
-26,-80,-55,53,14,-67,10,-80,-110,-145,-110,-165
-24,-80,-55,53,15,-67,11,-80,-110,-145,-110,-165
-26,-80,-55,54,15,-67,9,-80,-110,-145,-112,-165
-29,-85,-55,58,13,-70,22,-80,-110,-145,-115,-165
-30,-85,-54,58,13,-70,32,-80,-110,-145,-115,-165
-29,-86,-58,58,15,-72,27,-80,-110,-145,-115,-165
-30,-90,-60,60,15,-75,24,-80,-110,-145,-115,-167
-30,-90,-60,60,15,-75,21,-78,-110,-147,-114,-170
-28,-87,-60,58,16,-73,16,-75,-110,-150,-110,-170
-24,-85,-60,54,19,-72,15,-72,-110,-150,-110,-170
-26,-85,-59,55,17,-72,15,-70,-110,-150,-110,-170
-29,-85,-56,58,14,-71,15,-66,-110,-150,-110,-169
-31,-85,-53,58,11,-69,15,-65,-108,-149,-110,-166
-35,-85,-50,60,8,-67,15,-61,-104,-146,-108,-161
-32,-79,-47,56,8,-63,15,-54,-102,-141,-102,-159
-31,-76,-45,54,7,-60,18,-51,-99,-139,-97,-154
-26,-71,-45,49,10,-58,21,-44,-96,-134,-94,-151
-22,-67,-45,45,12,-56,25,-39,-94,-131,-88,-147
-12,-57,-45,35,17,-51,23,-32,-79,-124,-86,-137
39,-6,-45,-16,42,-25,42,-13,-58,-99,-75,-128
44,-1,-45,-21,45,-23,54,6,-55,-84,-65,-117
30,-14,-45,-7,38,-29,27,12,-52,-86,-49,-109
66,21,-45,-43,55,-12,-10,-18,-47,-76,-27,-98
47,3,-45,-24,46,-21,-28,-51,-70,-95,-49,-106
6,-37,-44,16,25,-40,-20,-65,-102,-132,-75,-132
17,-40,-58,12,37,-49,-17,-66,-103,-123,-67,-118
24,-46,-71,11,48,-58,-12,-63,-102,-122,-73,-116
-2,-70,-69,36,34,-69,-9,-68,-116,-154,-106,-155
-38,-109,-72,74,17,-90,-2,-62,-120,-166,-125,-179
-48,-121,-73,85,13,-97,0,-67,-127,-173,-133,-190
-42,-118,-76,81,17,-97,7,-54,-123,-175,-135,-195
-51,-125,-73,88,11,-99,11,-59,-126,-175,-136,-196
-54,-122,-69,88,8,-95,12,-50,-121,-171,-130,-193
-65,-129,-65,97,0,-97,25,-45,-118,-170,-131,-198
-56,-113,-57,85,1,-85,15,-52,-124,-170,-129,-192
-49,-108,-59,79,5,-83,38,-25,-104,-161,-123,-195
-38,-83,-44,61,3,-63,8,-67,-111,-156,-114,-173
12,-46,-58,17,36,-52,50,27,-47,-123,-83,-142
85,44,-41,-64,63,2,61,115,128,96,146,44
341,217,-124,-279,232,46,154,606,723,748,858,673
522,180,-342,-351,432,-81,183,704,1018,1117,1222,992
361,98,-263,-229,312,-82,-337,-385,100,414,490,419
89,106,16,-97,36,61,-469,-739,-527,-280,-178,-146
-23,70,93,-24,-58,81,-194,-313,-252,-222,-138,-178
20,21,0,-21,10,10,-62,-36,-47,-106,-42,-129
14,-35,-49,11,32,-42,27,79,-10,-99,-40,-138
-4,-53,-49,28,23,-51,34,75,6,-80,-39,-126
-8,-55,-48,32,20,-51,60,113,10,-84,-53,-128
-12,-56,-43,35,16,-50,60,113,15,-72,-45,-120
-18,-59,-41,38,12,-50,59,126,19,-70,-42,-119
-22,-61,-40,41,9,-50,62,130,23,-63,-37,-113
-13,-58,-45,36,16,-51,58,136,34,-58,-33,-107
-10,-55,-45,33,18,-50,62,150,47,-52,-29,-103
-5,-50,-45,28,20,-47,62,154,50,-46,-18,-95
-3,-49,-45,26,21,-47,66,168,53,-38,-5,-92
3,-42,-45,20,24,-44,65,180,72,-17,5,-83
2,-41,-43,20,22,-42,70,195,91,0,15,-72
7,-33,-39,13,23,-36,70,213,101,13,24,-58
25,-12,-37,-6,31,-24,68,239,128,29,47,-39
40,6,-34,-23,37,-14,65,268,156,54,80,-13
64,33,-31,-49,47,1,65,309,189,89,107,12
87,58,-29,-73,58,14,63,354,235,133,150,47
119,93,-26,-105,72,33,59,412,291,190,207,101
151,130,-21,-141,86,54,61,471,357,255,274,159
189,170,-19,-179,104,76,54,521,418,320,341,220
231,217,-14,-224,122,101,42,568,470,384,407,285
251,240,-11,-245,131,114,30,578,504,430,463,337
250,243,-7,-246,129,117,22,566,519,443,477,360
235,234,-1,-234,118,116,25,527,493,423,462,353
209,215,6,-212,101,110,25,448,432,376,422,305
163,176,12,-170,76,94,24,349,344,299,337,221
105,125,20,-115,43,72,38,254,240,190,232,124
48,73,25,-61,12,49,47,179,149,91,136,34
4,22,18,-13,-7,20,44,120,71,14,57,-40
-27,-16,11,21,-18,-3,45,76,20,-41,6,-88
-45,-41,4,43,-25,-18,45,63,-5,-77,-28,-118
-49,-53,-4,51,-22,-28,45,61,-15,-102,-55,-135
-44,-55,-11,50,-16,-33,50,57,-20,-112,-64,-135
-43,-59,-15,51,-14,-37,50,54,-28,-115,-65,-138
-45,-60,-15,53,-15,-37,50,50,-34,-115,-66,-141
-40,-55,-15,48,-12,-35,50,54,-40,-118,-69,-139
-40,-55,-15,48,-12,-35,49,55,-35,-121,-71,-140
-39,-54,-15,47,-11,-34,53,55,-35,-119,-69,-140
-35,-50,-15,43,-10,-32,55,55,-34,-116,-65,-140
-40,-50,-10,45,-15,-30,55,55,-29,-111,-61,-140
-45,-50,-5,48,-20,-27,55,55,-31,-109,-58,-140
-50,-50,0,50,-25,-25,55,55,-27,-104,-53,-135
-53,-50,3,51,-28,-23,54,55,-25,-100,-50,-135
-59,-50,9,55,-34,-20,51,55,-25,-102,-50,-134
-58,-50,8,54,-33,-21,50,55,-25,-106,-50,-130
-55,-50,4,52,-29,-22,50,55,-25,-105,-50,-130
-60,-55,5,57,-32,-25,50,52,-24,-104,-50,-130
-59,-55,5,56,-31,-25,51,47,-42,-118,-50,-130
-62,-56,5,59,-33,-25,47,44,-52,-127,-51,-130
-65,-60,5,62,-35,-27,45,40,-52,-124,-49,-130
-60,-60,0,60,-30,-30,45,37,-56,-126,-53,-130
-60,-60,0,60,-30,-30,41,33,-61,-124,-66,-130
-59,-60,-1,60,-29,-31,40,29,-76,-126,-73,-141
-55,-60,-5,58,-25,-32,40,23,-81,-129,-75,-146
-54,-59,-5,57,-24,-32,40,20,-79,-132,-75,-144
-65,-67,-3,66,-31,-35,40,15,-84,-135,-75,-145
-71,-70,1,70,-36,-34,40,10,-85,-137,-75,-145
-70,-64,5,67,-37,-29,40,14,-85,-140,-75,-145
-69,-62,8,65,-38,-27,40,15,-90,-140,-80,-145
-72,-58,14,65,-42,-22,40,15,-90,-144,-80,-145
-66,-52,14,58,-40,-19,40,15,-91,-145,-81,-145
-82,-64,17,73,-49,-23,40,15,-95,-145,-85,-145
-105,-76,29,90,-67,-23,40,14,-95,-145,-84,-145
-99,-68,31,83,-64,-18,40,10,-95,-145,-87,-145
-94,-65,29,79,-61,-17,40,10,-95,-145,-90,-145
-86,-60,26,73,-56,-17,35,10,-95,-145,-90,-145
-80,-55,24,67,-52,-15,35,10,-95,-145,-90,-145
-77,-52,25,64,-51,-13,35,10,-95,-142,-90,-145
-74,-49,25,61,-50,-12,35,10,-95,-139,-90,-145
-75,-50,25,62,-50,-12,35,10,-95,-140,-90,-149
-75,-50,25,62,-50,-12,32,10,-95,-140,-90,-150
-75,-50,25,62,-50,-12,30,10,-95,-140,-90,-150
-76,-51,25,63,-50,-13,30,10,-95,-140,-90,-150
-84,-55,28,69,-56,-13,30,9,-95,-140,-90,-150
-86,-55,31,70,-57,-12,30,5,-97,-140,-87,-150
-85,-55,30,70,-57,-12,30,2,-100,-140,-84,-150
-85,-55,30,70,-57,-12,30,0,-100,-140,-85,-150
-85,-55,30,70,-57,-12,30,-4,-100,-140,-81,-150
-82,-51,31,67,-57,-10,30,-5,-100,-140,-80,-150
-85,-50,36,67,-61,-6,30,-5,-99,-140,-80,-149
-89,-50,39,69,-64,-5,30,-5,-96,-140,-75,-146
-89,-45,44,67,-66,-1,28,-5,-93,-140,-75,-143
-90,-45,45,67,-67,0,24,-5,-90,-140,-75,-140
-89,-44,45,66,-67,0,26,-5,-87,-140,-75,-137
-86,-36,50,61,-68,7,24,-4,-85,-133,-75,-135
-78,-29,49,54,-63,10,25,5,-82,-124,-73,-133
-75,-23,52,49,-64,14,47,15,-73,-116,-63,-127
-64,-9,55,36,-59,23,58,28,-61,-105,-57,-122
-52,19,71,17,-62,45,60,40,-57,-93,-59,-119
-53,37,90,7,-72,63,70,48,-52,-78,-61,-114
-42,40,83,1,-63,61,63,40,-51,-76,-59,-110
-23,53,75,-15,-49,64,16,12,-42,-73,-61,-110
-22,46,68,-12,-46,57,-13,1,-54,-86,-59,-109
-42,18,60,12,-51,39,-3,-5,-101,-126,-58,-110
-40,14,55,13,-48,34,1,-14,-112,-131,-50,-110
-33,16,49,9,-42,32,10,-19,-110,-123,-45,-107
-62,-14,49,38,-56,17,15,-31,-118,-139,-76,-129
-96,-52,44,73,-70,-4,21,-23,-116,-156,-103,-159
-110,-68,42,89,-76,-13,19,-28,-123,-163,-107,-166
-117,-77,39,97,-78,-19,20,-22,-118,-159,-114,-164
-120,-81,40,100,-79,-20,21,-26,-120,-161,-121,-167
-111,-69,42,90,-76,-14,16,-26,-121,-157,-117,-162
-109,-72,37,91,-73,-18,26,-21,-117,-155,-123,-168
-105,-60,45,82,-75,-7,11,-41,-125,-156,-116,-158
-95,-63,33,79,-64,-15,41,-12,-99,-148,-124,-163
-84,-31,54,58,-69,11,9,-58,-109,-138,-112,-156
-74,12,85,31,-80,48,46,32,-58,-106,-71,-125
-41,50,92,-5,-67,71,87,116,94,74,96,15
259,256,-3,-257,131,126,171,549,636,666,743,582
504,303,-201,-403,352,50,213,782,1054,1132,1218,992
361,195,-165,-278,263,15,-336,-265,236,565,641,562
83,187,104,-135,-10,145,-540,-773,-510,-226,-122,-57
-94,143,236,-25,-165,189,-229,-352,-285,-218,-136,-171
-57,88,145,-16,-101,116,-67,-48,-45,-52,-14,-104
-44,45,89,-1,-67,67,37,71,-7,-55,-46,-114
-66,27,93,19,-80,60,47,70,-5,-33,-24,-102
-63,24,87,19,-75,55,64,105,5,-44,-31,-103
-78,14,92,32,-85,53,73,102,13,-35,-24,-97
-78,10,88,34,-83,49,74,113,18,-35,-23,-94
-90,1,91,44,-91,46,77,123,27,-36,-17,-90
-87,2,89,43,-89,46,69,124,33,-27,-7,-81
-81,9,90,36,-86,50,71,132,46,-18,-5,-77
-75,15,90,30,-82,52,69,145,51,-7,6,-68
-67,23,90,22,-79,56,76,163,61,3,9,-63
-61,29,90,16,-76,59,74,165,74,19,20,-52
-55,36,91,10,-74,63,76,184,91,32,32,-43
-42,53,95,-6,-69,74,80,201,111,43,41,-32
-36,59,95,-12,-66,77,80,224,133,63,61,-14
-27,72,100,-23,-64,86,78,258,163,95,85,11
-5,96,100,-46,-53,98,74,291,194,124,113,43
17,121,103,-69,-43,112,75,339,246,170,157,79
44,156,111,-100,-34,133,75,394,303,229,210,130
82,196,115,-140,-17,155,75,451,367,293,273,191
124,239,115,-182,4,177,75,506,429,361,339,255
155,272,117,-214,19,195,69,549,479,419,403,313
189,310,121,-249,34,215,62,570,522,468,457,364
215,334,119,-275,48,226,56,555,525,494,485,397
206,332,125,-269,40,228,49,522,503,488,481,394
172,307,135,-240,18,221,43,451,455,446,441,359
142,272,129,-207,6,200,37,342,368,361,362,283
93,215,122,-155,-15,169,35,240,263,249,251,182
32,148,116,-90,-42,132,35,149,165,149,150,94
-7,102,109,-48,-58,105,31,83,89,73,77,20
-45,58,104,-7,-75,81,30,49,32,16,23,-32
-70,30,99,20,-85,64,29,32,-5,-26,-18,-62
-75,20,96,27,-86,58,36,22,-26,-52,-48,-79
-81,12,93,34,-87,52,42,9,-38,-63,-60,-85
-85,3,88,41,-87,45,37,1,-40,-65,-60,-84
-91,-7,85,48,-88,39,35,0,-40,-65,-61,-91
-99,-10,88,54,-94,39,32,0,-40,-65,-64,-94
-100,-10,91,55,-95,41,29,0,-40,-65,-66,-87
-102,-13,89,57,-95,38,34,-1,-40,-64,-63,-83
-106,-15,90,61,-98,37,35,1,-36,-60,-60,-76
-104,-15,89,60,-96,37,35,5,-35,-55,-60,-71
-103,-12,91,57,-97,39,39,5,-35,-51,-60,-66
-102,-7,95,54,-99,44,40,5,-35,-47,-60,-60
-99,-4,95,51,-96,45,39,5,-35,-41,-60,-55
-99,-1,99,50,-99,49,34,5,-38,-42,-60,-50
-97,4,100,47,-99,52,31,2,-41,-46,-60,-43
-94,5,100,45,-98,52,28,-1,-40,-45,-60,-42
-95,5,100,45,-98,52,23,-4,-40,-46,-60,-45
-95,5,100,45,-98,52,20,-7,-40,-44,-60,-48
-95,5,100,45,-98,52,16,-10,-47,-46,-60,-50
-91,5,96,43,-94,51,15,-11,-58,-49,-60,-54
-90,5,95,42,-93,50,15,-19,-65,-52,-64,-55
-93,2,95,45,-94,48,10,-26,-68,-54,-73,-55
-91,-1,90,46,-91,44,10,-33,-72,-59,-78,-55
-94,-4,90,49,-92,43,9,-41,-76,-70,-81,-55
-96,-7,89,51,-92,41,5,-47,-80,-70,-84,-55
-94,-10,84,52,-89,37,5,-54,-84,-74,-87,-55
-96,-10,86,53,-91,37,3,-55,-85,-75,-90,-55
-92,-10,82,51,-87,36,0,-55,-85,-77,-90,-55
-90,-11,79,50,-85,34,0,-60,-85,-81,-89,-55
-90,-9,81,49,-85,36,4,-60,-84,-79,-91,-55
-90,-11,79,51,-84,34,5,-60,-88,-84,-89,-51
-92,-2,90,46,-91,44,5,-60,-90,-85,-95,-50
-84,13,97,35,-91,55,5,-60,-90,-85,-106,-50
-83,9,92,37,-87,50,5,-60,-94,-85,-103,-50
-87,3,90,42,-89,46,4,-60,-95,-85,-99,-50
-87,0,86,43,-86,43,0,-60,-95,-85,-96,-50
-90,-5,85,47,-87,40,0,-64,-95,-85,-91,-50
-91,-9,82,50,-86,36,-2,-65,-95,-85,-91,-50
-90,-14,76,51,-82,31,-6,-65,-95,-85,-97,-50
-87,-15,71,51,-78,28,-5,-65,-95,-85,-104,-50
-83,-15,68,49,-75,26,-5,-65,-95,-85,-105,-50
-77,-15,62,46,-69,23,-5,-66,-95,-85,-105,-47
-76,-15,61,46,-68,23,-5,-70,-95,-85,-105,-42
-80,-15,65,47,-72,25,-5,-70,-95,-85,-104,-39
-80,-15,65,47,-72,25,-5,-70,-95,-85,-106,-36
-80,-15,65,47,-72,25,-6,-70,-95,-85,-110,-32
-80,-15,65,47,-72,25,-10,-70,-95,-85,-110,-28
-80,-15,65,47,-72,25,-10,-74,-95,-85,-112,-25
-77,-15,62,45,-69,23,-12,-75,-95,-85,-115,-22
-78,-19,59,48,-68,20,-15,-75,-95,-82,-115,-20
-76,-20,56,48,-66,18,-15,-79,-95,-80,-111,-17
-74,-20,53,47,-63,16,-15,-81,-95,-80,-109,-15
-74,-24,50,49,-61,12,-15,-78,-93,-80,-110,-12
-77,-25,51,51,-63,12,-15,-75,-89,-80,-110,-7
-81,-24,57,52,-68,16,-15,-75,-87,-80,-110,-4
-82,-18,64,50,-73,23,-15,-75,-84,-75,-109,-1
-83,-12,70,48,-76,29,-14,-75,-81,-71,-104,4
-78,-7,70,43,-74,31,-9,-75,-80,-69,-98,6
-69,-1,68,35,-69,33,-5,-71,-73,-64,-95,14
-62,4,66,29,-64,35,-3,-61,-65,-61,-90,24
-52,11,64,20,-58,37,3,-55,-54,-54,-86,30
-34,36,70,-1,-52,53,3,-45,-28,-32,-79,48
-20,56,76,-18,-48,66,14,-41,-14,-19,-62,67
-17,53,70,-19,-44,61,8,-31,-7,-21,-52,79
-2,63,65,-31,-34,64,-44,-32,-10,-12,-37,87
5,65,60,-36,-27,62,-68,-75,-51,-26,-44,82
-3,50,53,-24,-28,51,-62,-105,-81,-64,-86,79
-8,41,49,-17,-29,45,-62,-111,-87,-72,-99,76
-17,27,44,-5,-30,35,-56,-109,-82,-71,-90,72
-30,9,39,10,-34,23,-55,-111,-88,-78,-109,68
-55,-21,35,38,-45,7,-53,-110,-105,-91,-137,63
-75,-46,29,61,-52,-8,-47,-108,-105,-97,-149,57
-70,-43,26,56,-47,-9,-48,-109,-106,-94,-161,53
-73,-46,27,60,-50,-9,-38,-98,-103,-95,-167,45
-76,-44,32,60,-54,-5,-42,-108,-108,-96,-163,41
-74,-45,29,60,-51,-8,-28,-87,-101,-93,-166,40
-88,-45,42,66,-65,-1,-37,-108,-110,-98,-165,39
-65,-32,33,48,-49,0,-25,-81,-93,-87,-163,43
-59,-31,28,45,-43,-2,-33,-108,-91,-86,-169,35
-64,6,71,29,-67,38,-25,-85,-76,-68,-144,62
-37,40,78,-1,-58,59,37,9,31,31,-62,130
150,189,39,-170,55,114,48,265,390,442,388,529
476,314,-162,-395,319,76,190,789,1016,1093,1071,1124
506,231,-275,-368,390,-22,-181,88,657,922,885,990
231,204,-27,-218,129,88,-645,-883,-360,26,13,339
-1,188,189,-94,-95,189,-400,-617,-407,-231,-245,96
-22,121,143,-50,-83,132,-165,-196,-70,-31,-104,144
-5,64,69,-29,-37,66,-58,-19,6,0,-117,137
-31,29,60,0,-46,44,-17,8,33,6,-105,135
-23,29,52,-3,-38,40,-12,22,34,5,-102,132
-33,23,56,5,-45,40,8,48,39,9,-99,126
-33,21,54,5,-44,37,8,52,40,11,-91,126
-40,16,55,12,-48,35,25,63,47,9,-89,130
-38,16,54,11,-46,35,25,61,58,21,-76,138
-29,21,49,4,-39,35,32,77,67,27,-72,143
-31,20,51,6,-41,35,29,84,76,38,-61,153
-22,25,47,-2,-35,36,30,95,88,45,-55,162
-20,25,45,-3,-33,35,30,111,104,55,-41,177
-16,28,45,-7,-31,36,30,124,109,65,-30,187
-7,42,49,-18,-28,45,35,147,121,83,-13,206
0,50,50,-25,-26,50,35,168,142,102,8,225
16,66,50,-41,-17,58,38,195,170,124,27,248
35,85,50,-60,-8,68,41,236,202,156,60,276
59,110,50,-85,4,79,37,279,245,196,102,304
95,145,50,-120,22,97,31,336,298,249,153,353
120,170,50,-145,35,110,27,394,358,306,211,408
167,216,50,-192,58,133,21,456,424,373,279,473
213,264,50,-239,82,157,15,506,480,437,340,534
240,290,50,-265,95,169,10,540,528,493,393,591
270,320,50,-295,109,185,4,551,537,535,434,636
265,318,53,-292,106,185,-3,528,526,538,438,634
250,306,57,-278,96,181,-9,464,492,508,414,610
214,279,65,-247,74,172,-16,355,407,445,353,560
158,221,64,-190,47,142,-23,236,306,343,258,475
108,163,55,-135,26,109,-23,130,200,239,158,374
56,105,50,-81,3,77,-19,62,113,150,70,299
18,61,42,-40,-12,51,-20,13,45,79,12,243
-7,29,36,-11,-22,32,-20,-25,2,32,-30,208
-21,10,31,6,-27,20,-20,-43,-22,9,-60,197
-27,0,27,14,-27,13,-20,-46,-36,-3,-69,185
-32,-8,24,19,-28,8,-15,-45,-45,-15,-70,174
-39,-18,21,28,-30,1,-15,-50,-51,-15,-71,170
-40,-24,16,31,-27,-4,-15,-50,-50,-15,-74,170
-36,-20,16,27,-26,-1,-15,-49,-50,-20,-76,168
-40,-20,20,30,-30,0,-15,-45,-50,-20,-74,164
-42,-20,22,31,-32,1,-12,-45,-50,-19,-70,165
-45,-20,25,32,-35,2,-10,-45,-46,-15,-66,168
-48,-20,28,34,-38,4,-10,-45,-45,-13,-63,170
-49,-17,32,33,-40,8,-10,-45,-45,-10,-58,171
-51,-14,37,32,-43,11,-10,-49,-41,-7,-55,175
-51,-11,40,31,-46,14,-11,-51,-40,-5,-55,179
-48,-8,40,28,-44,16,-14,-50,-42,-5,-55,176
-45,-6,40,26,-42,17,-17,-50,-45,-5,-55,174
-44,-3,40,23,-41,18,-19,-49,-45,-5,-55,175
-40,0,40,20,-40,20,-23,-52,-44,-5,-55,174
-36,0,37,18,-36,18,-25,-55,-50,-5,-55,175
-35,0,34,17,-34,17,-25,-59,-59,-6,-55,173
-35,0,35,17,-35,17,-25,-65,-66,-12,-54,170
-34,0,35,17,-34,17,-25,-72,-75,-18,-60,170
-39,-4,35,21,-37,16,-25,-73,-83,-22,-66,170
-39,-5,34,22,-36,14,-25,-80,-88,-29,-69,170
-35,-5,30,20,-32,12,-25,-95,-92,-34,-74,170
-40,-10,30,25,-35,10,-30,-95,-96,-39,-75,170
-37,-10,28,23,-33,9,-30,-94,-100,-40,-78,170
-36,-11,24,23,-30,6,-30,-95,-99,-40,-80,170
-40,-15,25,27,-32,5,-30,-95,-102,-45,-81,170
-38,-17,21,28,-30,2,-30,-95,-105,-45,-85,170
-40,-20,20,30,-30,0,-30,-95,-105,-46,-85,169
-43,-23,20,33,-31,-1,-30,-95,-105,-50,-85,165
-40,-25,15,32,-27,-5,-30,-95,-105,-50,-85,165
-44,-29,15,36,-29,-6,-30,-95,-105,-50,-85,162
-44,-30,14,37,-29,-8,-30,-94,-105,-50,-89,159
-40,-30,10,35,-25,-10,-30,-90,-105,-50,-90,160
-45,-35,10,40,-27,-12,-35,-90,-103,-46,-90,156
-45,-35,10,40,-27,-12,-35,-90,-100,-45,-90,155
-45,-35,10,40,-27,-12,-35,-90,-100,-45,-90,155
-45,-35,10,40,-27,-12,-35,-90,-100,-45,-90,150
-45,-35,10,40,-27,-12,-38,-90,-100,-45,-90,150
-45,-35,10,40,-27,-12,-40,-90,-100,-46,-90,150
-45,-35,10,40,-27,-12,-40,-90,-104,-50,-90,150
-45,-35,10,40,-27,-12,-44,-90,-105,-50,-90,150
-45,-35,10,40,-27,-12,-45,-90,-105,-50,-90,150
-44,-35,9,39,-26,-13,-44,-90,-105,-50,-86,150
-40,-35,5,37,-22,-15,-40,-90,-105,-50,-85,150
-40,-35,5,37,-22,-15,-40,-90,-104,-50,-85,146
-38,-35,3,36,-20,-16,-39,-90,-100,-50,-80,145
-33,-34,-1,33,-16,-17,-35,-90,-100,-50,-80,145
-30,-30,0,30,-15,-15,-35,-90,-97,-50,-79,140
-33,-30,3,31,-18,-13,-33,-88,-94,-50,-75,140
-38,-30,8,34,-23,-11,-29,-83,-95,-48,-75,139
-40,-30,10,35,-25,-10,-30,-80,-91,-45,-75,134
-45,-30,15,37,-30,-7,-30,-76,-90,-42,-75,131
-44,-26,18,35,-31,-3,-30,-73,-90,-40,-75,128
-42,-20,22,31,-32,1,-30,-69,-85,-36,-71,123
-39,-14,25,26,-32,5,-23,-64,-84,-35,-62,120
-34,-8,26,21,-29,8,-16,-55,-85,-31,-54,122
-33,-4,29,18,-31,12,-6,-50,-67,-22,-46,135
-8,23,31,-8,-19,26,-1,-40,-57,-14,-39,155
18,45,26,-32,-4,35,11,-13,-53,8,-35,163
26,45,19,-36,3,32,14,-16,-50,17,-32,171
37,50,12,-44,12,31,-38,-32,-46,12,-29,180
38,44,6,-41,16,24,-68,-53,-44,9,-23,179
33,32,-1,-32,17,15,-57,-93,-88,-25,-40,171
30,23,-6,-26,18,8,-54,-103,-115,-51,-62,167
18,8,-10,-13,14,-1,-45,-97,-107,-51,-61,153
2,-8,-10,3,6,-9,-40,-103,-112,-58,-70,122
-15,-24,-10,19,-2,-17,-34,-98,-113,-60,-89,108
-38,-49,-11,43,-13,-30,-29,-100,-119,-75,-100,94
-46,-54,-9,50,-18,-31,-30,-98,-116,-86,-108,87
-48,-56,-9,52,-19,-32,-20,-88,-113,-84,-116,80
-52,-54,-2,54,-25,-28,-27,-99,-119,-86,-108,77
-47,-56,-8,52,-19,-32,-13,-75,-110,-83,-104,73
-54,-56,-2,55,-26,-29,-23,-100,-122,-88,-99,66
-42,-50,-8,47,-17,-29,-9,-65,-102,-74,-90,68
-45,-48,-2,47,-21,-25,-13,-97,-103,-68,-91,58
-35,-3,32,18,-34,15,-10,-73,-76,-41,-61,85
1,33,32,-17,-16,32,43,24,24,47,13,152
206,200,-6,-202,105,97,61,292,391,476,488,573
536,304,-232,-420,384,36,212,822,1020,1119,1155,1157
515,190,-324,-352,419,-67,-150,81,617,893,903,971
221,167,-54,-194,137,57,-587,-877,-377,25,52,294
19,154,135,-86,-59,144,-362,-599,-418,-216,-179,58
14,102,88,-59,-37,95,-147,-187,-96,-37,-42,133
36,50,14,-43,11,31,-31,-11,-21,0,-53,124
3,13,10,-8,-4,11,7,13,-10,17,-46,116
5,11,7,-8,-2,9,10,39,1,20,-42,112
-3,1,3,0,-3,2,26,56,10,21,-43,99
-5,-3,2,4,-3,0,23,63,12,28,-36,98
-10,-12,-2,11,-4,-7,38,82,20,28,-34,93
-10,-14,-4,13,-3,-9,37,81,25,35,-21,96
4,-7,-11,2,8,-9,47,95,29,40,-16,109
12,-2,-14,-4,13,-8,44,100,37,51,-7,117
21,2,-19,-11,20,-8,47,119,40,60,0,114
34,10,-24,-21,29,-7,50,136,57,70,10,115
35,13,-23,-24,29,-5,50,149,71,80,21,125
41,21,-20,-31,30,1,48,163,76,92,29,135
48,28,-20,-38,34,4,44,186,103,108,45,141
58,38,-20,-48,39,9,45,215,131,133,71,163
85,65,-20,-75,52,22,45,252,163,166,99,189
105,85,-20,-95,62,32,45,300,212,207,137,218
141,117,-24,-129,82,46,45,353,259,257,181,259
181,156,-25,-168,103,65,40,416,320,314,240,310
215,191,-25,-202,120,83,35,473,385,380,307,375
251,226,-25,-238,138,100,31,518,438,440,372,433
286,260,-25,-272,155,117,26,558,493,498,434,487
304,281,-23,-293,163,129,21,568,504,529,468,520
293,273,-20,-283,156,127,20,545,496,525,472,522
278,261,-17,-269,147,122,20,475,479,496,452,500
255,241,-14,-248,134,113,20,369,398,436,390,436
200,189,-11,-195,105,89,20,261,289,340,288,341
132,122,-10,-127,71,56,20,164,183,230,182,239
85,69,-16,-77,50,26,21,99,100,144,93,153
45,23,-21,-34,33,1,24,52,38,81,31,92
20,-7,-26,-6,23,-16,25,15,-2,36,-10,54
14,-18,-32,2,23,-24,25,-3,-16,11,-39,37
10,-28,-38,9,25,-33,27,-6,-23,-1,-46,31
3,-37,-40,17,22,-38,32,-9,-29,-7,-54,24
-7,-47,-40,27,17,-43,34,-12,-36,-15,-54,16
-2,-51,-48,27,23,-49,44,-15,-43,-20,-60,9
-3,-50,-47,27,22,-48,51,-14,-43,-29,-72,2
-7,-48,-41,27,17,-44,45,-10,-40,-36,-66,0
-8,-45,-36,27,14,-40,43,-11,-40,-31,-64,0
-16,-45,-29,31,7,-37,38,-8,-40,-28,-59,-4
-16,-42,-26,29,5,-33,35,-5,-40,-25,-56,-6
-14,-39,-25,27,5,-31,32,-5,-40,-20,-53,-5
-11,-36,-25,24,7,-31,29,-5,-45,-23,-50,-5
-8,-33,-25,21,9,-29,31,-5,-45,-26,-51,-5
-5,-30,-25,18,10,-27,30,-5,-46,-25,-46,-5
-7,-31,-25,20,9,-28,31,-5,-51,-25,-45,-5
-8,-35,-27,22,10,-31,29,-5,-49,-25,-46,-5
-6,-37,-32,22,13,-34,25,-6,-53,-32,-49,-7
-5,-40,-35,23,15,-37,25,-12,-59,-43,-54,-12
-4,-44,-40,24,18,-41,25,-18,-65,-49,-57,-15
-5,-45,-40,25,18,-42,25,-23,-68,-56,-62,-18
-5,-45,-40,25,18,-42,25,-29,-74,-62,-65,-23
-9,-49,-40,29,15,-45,22,-34,-92,-69,-70,-26
-10,-51,-40,31,15,-46,19,-35,-96,-75,-76,-29
-11,-48,-38,30,14,-43,16,-35,-94,-75,-83,-34
-11,-45,-34,28,12,-40,13,-35,-96,-79,-85,-37
-9,-45,-35,28,13,-40,10,-35,-94,-80,-85,-42
-10,-45,-35,28,13,-40,11,-35,-97,-82,-89,-45
-10,-45,-35,28,13,-40,15,-35,-100,-87,-90,-50
-11,-45,-34,28,12,-39,15,-35,-100,-90,-90,-53
-18,-49,-31,33,7,-40,15,-35,-100,-95,-90,-58
-22,-50,-28,36,3,-39,15,-35,-100,-95,-90,-60
-25,-50,-25,38,1,-37,15,-35,-100,-95,-90,-61
-33,-55,-22,44,-5,-38,15,-35,-104,-95,-90,-65
-35,-55,-20,45,-7,-37,15,-31,-105,-94,-90,-65
-38,-56,-18,48,-10,-37,15,-30,-105,-98,-92,-69
-47,-60,-13,54,-17,-36,15,-30,-110,-100,-95,-70
-50,-60,-10,55,-20,-35,15,-25,-110,-100,-95,-70
-53,-60,-7,57,-23,-33,13,-25,-110,-103,-95,-70
-58,-60,-2,59,-28,-31,10,-24,-110,-106,-95,-70
-60,-60,0,60,-30,-30,10,-20,-110,-103,-95,-70
-54,-60,-6,57,-24,-33,10,-21,-110,-109,-95,-70
-49,-60,-11,54,-19,-35,10,-18,-110,-120,-95,-70
-44,-60,-16,52,-14,-38,10,-14,-110,-120,-95,-70
-38,-60,-22,49,-8,-41,14,-15,-114,-120,-95,-70
-32,-60,-28,46,-2,-44,15,-11,-115,-120,-95,-71
-30,-60,-30,45,0,-45,15,-10,-115,-119,-95,-74
-30,-60,-30,45,0,-45,15,-10,-120,-123,-95,-77
-30,-60,-30,45,0,-45,15,-5,-120,-125,-95,-79
-30,-60,-30,45,0,-45,15,-5,-119,-125,-95,-83
-22,-60,-38,41,8,-49,15,-4,-114,-125,-95,-85
-19,-60,-41,39,11,-51,15,0,-111,-125,-95,-85
-17,-56,-39,37,11,-47,15,0,-108,-125,-95,-88
-17,-54,-37,36,10,-46,15,0,-103,-130,-95,-91
-21,-55,-34,39,7,-45,15,0,-100,-130,-95,-89
-19,-55,-36,37,9,-45,15,0,-96,-131,-95,-85
-16,-55,-40,36,12,-47,16,4,-95,-135,-95,-85
-14,-54,-39,34,13,-46,21,11,-94,-135,-92,-84
1,-45,-46,22,24,-46,19,17,-91,-131,-84,-79
14,-35,-49,11,32,-42,21,25,-89,-117,-76,-80
19,-23,-42,2,31,-32,18,31,-92,-103,-68,-78
29,-8,-37,-11,34,-22,25,40,-95,-91,-61,-73
36,5,-31,-20,34,-13,58,59,-95,-78,-66,-68
47,22,-25,-34,36,-2,38,57,-97,-68,-64,-64
72,43,-29,-58,51,7,1,36,-101,-57,-67,-59
67,37,-30,-52,48,4,-21,26,-99,-79,-70,-56
38,7,-31,-23,34,-12,-40,23,-97,-123,-70,-66
47,-2,-49,-22,48,-25,-33,18,-94,-131,-71,-65
45,-12,-58,-16,52,-35,-22,18,-96,-129,-67,-65
5,-48,-53,22,29,-50,-13,8,-115,-147,-90,-97
-20,-77,-57,49,19,-67,-5,13,-121,-161,-106,-126
-28,-95,-66,62,19,-80,-1,14,-132,-171,-118,-138
-22,-93,-72,58,26,-82,0,15,-135,-170,-126,-134
-28,-97,-69,63,21,-83,9,17,-124,-170,-125,-136
-22,-92,-70,57,25,-81,4,9,-128,-170,-128,-134
-17,-98,-81,58,32,-89,20,25,-112,-169,-130,-136
-19,-92,-73,56,27,-82,7,1,-124,-171,-130,-135
-6,-80,-73,43,34,-76,23,34,-121,-160,-121,-130
-11,-71,-60,41,25,-65,8,-9,-135,-157,-120,-127
31,-33,-64,2,47,-48,18,49,-101,-129,-90,-110
50,2,-48,-26,49,-23,61,136,32,-1,35,-12
279,202,-77,-241,178,62,97,475,492,535,613,505
540,253,-287,-396,413,-17,218,868,1033,1122,1228,1025
459,124,-335,-291,396,-105,-201,-18,403,699,773,680
220,147,-73,-184,146,37,-535,-742,-484,-154,-69,1
12,119,107,-66,-48,113,-284,-393,-379,-278,-185,-155
38,62,25,-50,6,43,-110,-40,-116,-126,-47,-93
65,10,-56,-37,61,-23,-8,118,-47,-112,-44,-110
39,-22,-61,-8,50,-41,15,125,-20,-89,-41,-97
45,-24,-68,-10,57,-46,31,151,-16,-88,-47,-99
25,-38,-63,7,44,-50,48,161,-9,-77,-44,-95
23,-44,-66,11,45,-55,47,165,-6,-70,-45,-92
15,-50,-65,18,40,-57,53,190,3,-65,-46,-88
21,-41,-63,10,42,-52,50,197,5,-56,-42,-81
21,-38,-59,9,40,-48,58,206,15,-52,-34,-80
20,-34,-54,7,38,-44,53,208,25,-43,-24,-73
24,-28,-53,2,39,-40,56,215,34,-39,-17,-70
21,-25,-46,2,34,-35,55,227,46,-30,-5,-62
31,-15,-47,-7,39,-31,55,242,53,-17,6,-53
51,-4,-55,-23,53,-29,55,263,76,-3,19,-41
62,9,-53,-36,57,-22,55,284,100,12,34,-24
74,25,-49,-49,61,-12,54,314,124,33,60,-3
91,46,-46,-68,68,0,49,352,159,66,91,18
114,73,-41,-93,77,15,46,394,201,106,133,52
142,104,-38,-123,90,32,43,454,256,159,186,99
172,137,-35,-154,103,51,38,511,317,224,244,153
211,176,-35,-193,123,70,35,569,380,288,312,210
251,216,-35,-233,143,90,31,614,429,346,375,267
279,244,-35,-261,157,104,24,634,477,398,430,323
303,269,-35,-285,169,117,17,635,485,429,468,359
316,277,-38,-296,177,119,11,603,467,430,473,361
295,254,-41,-274,167,107,3,538,443,397,443,328
255,215,-40,-235,147,87,1,436,360,318,364,264
210,165,-45,-187,127,60,5,332,251,211,257,171
153,108,-44,-130,98,32,4,250,157,110,158,73
100,53,-46,-76,73,3,7,184,74,22,78,-11
64,14,-50,-39,57,-18,11,141,18,-44,22,-69
41,-8,-49,-17,46,-28,9,121,-17,-81,-21,-103
35,-26,-61,-4,48,-43,14,112,-44,-107,-47,-127
24,-43,-66,10,45,-54,15,99,-55,-121,-57,-137
10,-55,-64,23,38,-59,15,91,-61,-124,-60,-140
10,-55,-65,23,38,-60,15,90,-66,-126,-60,-140
10,-55,-65,23,38,-60,15,90,-65,-125,-60,-140
5,-60,-65,28,35,-62,14,89,-65,-125,-60,-140
-1,-60,-59,31,29,-60,10,91,-65,-125,-60,-140
-6,-59,-52,33,23,-55,11,88,-65,-122,-55,-141
-9,-55,-46,32,19,-50,7,86,-62,-120,-55,-138
-16,-55,-39,36,12,-47,5,83,-59,-120,-54,-135
-21,-53,-31,37,5,-42,5,89,-56,-117,-50,-133
-14,-49,-36,32,11,-43,1,105,-53,-115,-50,-130
-9,-51,-41,30,16,-46,0,101,-51,-115,-50,-127
-7,-46,-39,26,17,-42,0,96,-48,-115,-50,-125
-5,-45,-40,25,18,-42,0,93,-58,-115,-50,-125
-5,-45,-40,25,18,-42,0,87,-67,-115,-50,-125
-1,-41,-40,21,20,-40,-1,84,-64,-114,-50,-125
-3,-39,-36,22,17,-38,-5,77,-66,-119,-50,-125
-7,-41,-34,25,14,-38,-5,73,-75,-133,-49,-125
-10,-45,-35,28,13,-40,-7,67,-82,-140,-52,-126
-10,-45,-35,28,13,-40,-10,61,-97,-143,-60,-130
-12,-47,-35,30,12,-41,-10,56,-101,-148,-60,-130
-16,-50,-35,34,10,-42,-14,51,-102,-149,-60,-132
-15,-50,-35,33,10,-42,-15,49,-106,-151,-60,-136
-15,-50,-35,33,10,-42,-15,46,-106,-155,-60,-134
-15,-50,-35,33,10,-42,-15,44,-110,-155,-59,-139
-15,-50,-35,33,10,-42,-15,40,-112,-160,-55,-140
-15,-50,-35,33,10,-42,-16,41,-115,-160,-55,-140
-15,-50,-35,33,10,-42,-20,45,-119,-161,-55,-145
-15,-50,-35,33,10,-42,-20,45,-120,-165,-55,-145
-15,-50,-35,33,10,-42,-20,45,-120,-164,-56,-146
-14,-49,-35,32,10,-42,-20,45,-120,-167,-57,-150
-16,-51,-35,34,10,-43,-20,45,-120,-170,-64,-150
-14,-48,-34,32,10,-40,-24,41,-120,-169,-70,-150
-26,-53,-27,40,0,-40,-25,40,-120,-174,-70,-150
-23,-39,-16,32,-4,-27,-25,40,-120,-175,-68,-150
-5,-34,-29,20,12,-32,-25,35,-120,-175,-65,-146
-26,-69,-43,48,8,-56,-25,35,-120,-180,-65,-144
-29,-68,-39,48,5,-53,-24,34,-120,-180,-65,-145
-19,-60,-41,40,11,-50,-20,30,-116,-180,-65,-145
-19,-59,-40,39,10,-49,-20,30,-115,-180,-65,-145
-11,-51,-40,31,15,-45,-18,30,-115,-180,-65,-144
-13,-51,-38,32,13,-44,-14,30,-115,-178,-65,-140
-16,-49,-33,33,8,-41,-15,30,-115,-174,-65,-140
-20,-50,-30,35,5,-40,-18,27,-115,-176,-70,-140
-23,-50,-26,37,2,-38,-20,22,-115,-171,-70,-140
-28,-50,-22,39,-3,-36,-20,19,-115,-170,-71,-140
-31,-50,-19,41,-6,-35,-20,16,-115,-170,-75,-136
-31,-46,-16,39,-7,-31,-20,11,-115,-165,-75,-134
-30,-45,-15,38,-7,-30,-20,9,-115,-165,-73,-135
-30,-45,-15,38,-7,-30,-20,4,-115,-163,-70,-135
-31,-45,-15,38,-7,-30,-20,-1,-115,-160,-70,-135
-29,-44,-15,37,-6,-30,-20,-5,-114,-159,-70,-133
-34,-47,-13,41,-10,-29,-20,-10,-120,-166,-70,-130
-40,-50,-9,45,-16,-30,-20,-15,-125,-170,-70,-130
-40,-50,-10,45,-15,-30,-17,-19,-118,-163,-65,-130
-44,-50,-6,47,-19,-28,-14,-20,-115,-160,-61,-130
-45,-50,-4,48,-20,-27,-11,-20,-110,-155,-58,-130
-46,-51,-5,49,-20,-28,-8,-20,-105,-151,-54,-126
-45,-42,3,43,-23,-20,-6,-21,-101,-143,-51,-119
-37,-24,12,30,-24,-6,-3,-18,-93,-123,-47,-113
-13,10,23,1,-19,17,3,-16,-89,-111,-35,-106
4,32,27,-18,-12,29,24,-14,-55,-96,-23,-99
11,30,19,-20,-4,24,28,-12,-38,-86,-14,-95
29,42,13,-36,8,27,-18,-7,-41,-76,-4,-95
31,36,5,-33,13,20,-47,-29,-58,-71,-3,-95
20,17,-3,-18,11,7,-40,-73,-118,-116,-11,-94
14,5,-9,-9,12,-2,-37,-88,-139,-139,-24,-97
10,-5,-15,-2,13,-9,-32,-83,-132,-135,-22,-89
-1,-16,-15,9,8,-16,-27,-91,-137,-142,-35,-96
-31,-45,-14,38,-8,-29,-24,-90,-133,-142,-62,-122
-57,-73,-16,66,-20,-45,-18,-90,-141,-158,-75,-140
-60,-74,-14,68,-23,-44,-20,-104,-147,-170,-84,-149
-61,-76,-14,69,-23,-45,-11,-94,-135,-167,-86,-151
-67,-75,-8,71,-29,-41,-16,-104,-139,-161,-85,-150
-65,-74,-9,70,-28,-41,-6,-84,-125,-157,-84,-149
-75,-78,-3,77,-36,-40,-10,-99,-130,-154,-87,-152
-62,-63,0,63,-31,-31,-4,-83,-121,-147,-78,-143
-63,-66,-2,65,-30,-34,-3,-99,-127,-155,-71,-139
-61,-27,34,44,-48,3,-11,-101,-126,-133,-47,-115
-41,7,48,16,-44,27,55,-5,-19,-59,-1,-76
102,144,42,-123,30,93,67,174,285,313,391,262
441,314,-127,-377,284,93,223,716,940,986,1102,879
510,220,-290,-365,400,-34,-47,249,759,974,1073,882
241,136,-105,-189,173,16,-576,-792,-276,100,217,218
23,149,126,-86,-52,137,-428,-685,-471,-307,-184,-163
-19,105,124,-43,-72,114,-167,-269,-151,-111,-26,-117
-9,38,47,-15,-28,42,-42,-76,-52,-55,-10,-98
-19,8,27,5,-23,17,14,-32,-28,-44,-21,-101
-20,4,24,7,-22,14,23,-24,-20,-34,-10,-92
-38,-12,25,24,-31,6,47,-6,-10,-40,-20,-95
-44,-19,25,31,-34,3,40,-12,-3,-28,-11,-88
-46,-21,25,33,-35,2,57,6,8,-33,-12,-89
-40,-17,24,28,-32,3,53,3,17,-25,2,-80
-34,-14,20,24,-26,2,56,16,28,-22,7,-75
-31,-11,20,21,-26,5,59,21,41,-13,16,-67
-29,-9,20,19,-24,5,59,34,51,-8,23,-61
-24,-4,20,14,-22,8,61,41,68,-1,28,-55
-15,5,20,5,-18,12,63,51,76,9,38,-46
-13,10,24,1,-19,17,67,76,85,25,51,-34
-6,19,25,-7,-16,22,70,92,108,47,70,-19
10,37,27,-24,-9,32,70,117,133,69,91,3
27,58,31,-42,-2,44,70,145,166,96,115,27
47,78,31,-62,8,54,70,186,210,138,150,55
73,109,36,-91,18,72,70,234,260,186,197,99
90,139,49,-114,20,94,70,288,319,243,252,144
127,176,50,-151,38,113,70,347,383,312,317,202
170,221,51,-195,59,136,63,396,439,376,374,260
186,250,64,-218,61,156,53,423,494,434,427,313
207,273,65,-241,71,169,45,420,527,471,465,353
205,270,65,-238,70,167,35,410,529,479,460,350
190,255,65,-223,62,160,27,370,504,465,449,342
171,236,65,-204,53,150,25,273,426,408,416,307
127,191,64,-160,31,127,25,154,327,313,323,224
73,131,57,-102,8,94,21,55,221,212,220,134
26,78,52,-52,-14,65,20,-24,123,118,127,46
-7,41,47,-17,-28,44,20,-84,58,49,62,-14
-36,5,41,15,-38,23,20,-121,10,-1,12,-55
-54,-18,36,36,-45,9,20,-141,-16,-37,-20,-85
-65,-34,31,50,-48,-1,20,-150,-25,-52,-34,-94
-73,-45,28,59,-50,-9,20,-159,-31,-60,-45,-100
-69,-44,24,56,-46,-10,20,-162,-38,-60,-45,-100
-67,-46,20,57,-43,-13,23,-167,-40,-60,-50,-100
-67,-50,17,58,-42,-16,25,-170,-40,-60,-49,-100
-63,-50,13,56,-38,-18,25,-170,-44,-60,-45,-100
-75,-48,28,61,-51,-10,25,-170,-46,-58,-43,-100
-86,-45,42,66,-64,-1,25,-170,-45,-54,-40,-97
-81,-42,39,61,-60,-1,25,-170,-41,-52,-37,-94
-82,-39,43,60,-62,1,20,-170,-40,-49,-35,-91
-81,-36,46,58,-63,5,20,-170,-39,-46,-32,-88
-80,-35,45,57,-62,5,20,-170,-35,-45,-30,-86
-82,-40,42,61,-62,1,20,-170,-35,-45,-30,-83
-79,-40,39,59,-59,-1,20,-169,-38,-45,-30,-80
-76,-40,36,58,-56,-1,18,-172,-40,-45,-30,-80
-73,-40,33,56,-53,-3,15,-174,-40,-45,-31,-80
-70,-40,30,55,-50,-5,12,-180,-40,-44,-35,-80
-71,-42,29,57,-50,-7,9,-189,-40,-48,-37,-80
-70,-45,24,57,-47,-10,6,-196,-47,-57,-41,-83
-65,-45,21,55,-42,-12,5,-205,-56,-65,-43,-87
-66,-49,18,57,-42,-15,5,-211,-63,-69,-47,-92
-64,-51,13,57,-38,-18,5,-214,-65,-70,-58,-95
-60,-49,11,55,-35,-19,5,-219,-71,-69,-60,-99
-61,-56,5,58,-32,-25,5,-226,-76,-73,-60,-100
-54,-56,-2,55,-26,-29,5,-230,-74,-75,-65,-100
-60,-69,-10,65,-25,-39,3,-232,-75,-75,-65,-105
-73,-86,-14,80,-29,-50,-1,-235,-75,-79,-65,-105
-71,-80,-9,75,-31,-44,0,-239,-75,-80,-65,-105
-72,-75,-3,74,-34,-39,0,-240,-79,-80,-65,-105
-72,-72,0,72,-36,-36,0,-240,-80,-80,-65,-105
-70,-65,5,67,-37,-30,0,-244,-80,-80,-65,-105
-77,-68,10,72,-43,-29,-5,-246,-80,-80,-66,-105
-77,-70,6,73,-42,-32,-5,-243,-80,-80,-64,-105
-74,-70,5,71,-39,-32,-5,-240,-80,-80,-69,-105
-79,-74,5,76,-42,-34,-5,-240,-80,-78,-76,-105
-75,-75,0,75,-37,-37,-5,-240,-80,-74,-75,-105
-75,-75,0,75,-37,-37,-5,-240,-80,-75,-75,-105
-78,-80,-1,79,-39,-40,-5,-239,-80,-75,-75,-105
-75,-80,-5,78,-35,-42,-5,-250,-80,-75,-74,-103
-75,-80,-5,78,-35,-42,-5,-261,-84,-75,-78,-100
-75,-80,-5,78,-35,-42,-5,-259,-85,-70,-80,-100
-74,-79,-5,77,-35,-42,-5,-263,-85,-70,-80,-100
-78,-82,-5,81,-36,-43,-5,-265,-85,-69,-80,-100
-77,-85,-9,81,-33,-47,-5,-265,-85,-64,-80,-100
-75,-85,-10,80,-32,-47,-5,-261,-85,-66,-79,-100
-75,-85,-10,80,-32,-47,-5,-259,-85,-62,-76,-100
-70,-85,-15,78,-27,-50,-5,-260,-85,-59,-75,-100
-70,-85,-15,78,-27,-50,-7,-260,-85,-60,-75,-100
-75,-89,-15,83,-30,-52,-10,-259,-85,-56,-75,-100
-75,-90,-15,83,-30,-52,-10,-261,-85,-55,-75,-99
-75,-90,-15,83,-30,-52,-10,-265,-81,-55,-75,-101
-75,-90,-15,83,-30,-52,-10,-265,-80,-50,-75,-110
-75,-90,-15,83,-30,-52,-10,-265,-80,-50,-75,-108
-75,-90,-15,83,-30,-52,-15,-265,-75,-50,-75,-104
-78,-90,-11,84,-34,-50,-23,-265,-75,-50,-75,-101
-80,-90,-10,85,-35,-50,-23,-261,-74,-51,-75,-96
-80,-90,-10,85,-35,-50,-16,-259,-69,-47,-70,-94
-80,-90,-10,85,-35,-50,-11,-260,-63,-41,-63,-88
-80,-91,-10,85,-35,-50,-6,-255,-60,-36,-59,-80
-69,-78,-9,74,-30,-43,0,-255,-55,-29,-52,-75
-54,-58,-4,56,-24,-31,5,-255,-51,-26,-48,-66
-47,-47,-1,47,-23,-24,14,-237,-40,-13,-40,-63
-40,-38,2,39,-21,-18,29,-224,-17,3,-16,-53
-34,-27,7,30,-20,-10,24,-210,-6,12,-5,-43
-28,-18,10,23,-19,-4,2,-205,8,22,5,-29
-15,-10,6,12,-10,-1,-33,-252,-9,10,-5,-24
-1,-7,-6,4,2,-6,-61,-292,-61,-16,-48,-59
-11,-25,-14,19,2,-20,-62,-301,-91,-28,-60,-78
-8,-34,-26,21,9,-30,-53,-299,-95,-18,-38,-75
-12,-50,-39,31,14,-44,-44,-299,-96,-29,-47,-81
-46,-86,-40,66,-3,-62,-39,-301,-101,-53,-87,-95
-62,-103,-41,82,-10,-72,-29,-297,-99,-64,-98,-112
-72,-110,-39,91,-16,-74,-33,-301,-97,-71,-98,-113
-75,-117,-42,96,-16,-79,-27,-288,-93,-70,-100,-116
-82,-119,-37,101,-23,-78,-33,-303,-96,-70,-102,-115
-81,-118,-37,100,-22,-77,-28,-286,-87,-63,-104,-113
-95,-128,-33,112,-30,-80,-29,-302,-92,-67,-107,-118
-86,-117,-31,102,-28,-74,-28,-289,-87,-60,-100,-108
-81,-113,-31,97,-25,-72,-14,-288,-72,-56,-99,-105
-46,-68,-21,57,-12,-44,-36,-303,-71,-45,-88,-81
-3,-29,-25,16,11,-27,36,-200,8,19,-31,-55
67,73,6,-70,30,39,53,-34,274,339,304,237
398,237,-161,-317,279,38,195,529,923,1020,1025,866
532,183,-349,-357,440,-83,-18,170,880,1124,1118,960
278,121,-157,-199,217,-18,-590,-957,-161,272,275,318
55,129,73,-92,-9,101,-479,-934,-478,-213,-181,-105
-19,62,81,-22,-50,71,-191,-466,-120,-22,-57,-75
-13,-5,8,9,-11,2,-55,-249,0,52,-37,-57
-21,-39,-19,30,-1,-29,10,-193,11,39,-41,-58
-36,-59,-23,47,-6,-41,-4,-180,18,50,-27,-47
-47,-80,-32,64,-7,-55,20,-153,32,45,-29,-49
-43,-78,-36,61,-3,-57,14,-159,52,53,-17,-39
-37,-72,-35,55,-1,-53,29,-140,58,48,-17,-39
-34,-69,-35,52,0,-52,29,-140,61,59,-7,-30
-28,-63,-35,46,4,-49,29,-129,67,63,-5,-25
-25,-60,-35,43,5,-47,32,-120,74,72,3,-18
-15,-54,-40,34,13,-47,27,-110,81,79,8,-10
-7,-47,-40,27,17,-44,36,-99,94,90,12,-6
-1,-41,-40,21,20,-40,49,-84,108,106,22,6
6,-34,-40,14,23,-37,50,-66,120,113,27,20
12,-28,-40,8,26,-33,51,-46,141,134,44,34
19,-21,-40,1,30,-30,55,-15,165,158,70,51
37,-2,-40,-18,39,-21,55,24,205,194,96,80
62,22,-40,-42,51,-9,53,64,247,229,129,114
83,44,-40,-63,61,2,46,112,291,269,176,149
120,80,-40,-100,80,19,42,173,354,333,240,203
162,122,-39,-142,100,41,36,236,417,397,298,259
191,156,-36,-173,113,60,30,290,477,460,360,317
226,191,-35,-208,130,78,25,328,527,516,420,376
256,221,-35,-238,145,92,19,349,558,554,465,421
253,218,-35,-235,144,91,14,339,560,552,488,442
243,208,-35,-225,139,86,9,287,537,537,474,436
228,191,-37,-209,132,76,2,192,477,502,424,395
184,143,-41,-163,112,51,-2,70,370,413,327,303
127,88,-40,-108,83,24,-8,-42,261,309,220,205
73,33,-40,-53,56,-3,-10,-127,169,210,134,124
41,-10,-51,-15,46,-30,-10,-184,97,134,58,55
13,-44,-56,16,35,-50,-14,-218,49,81,8,11
-19,-73,-54,47,18,-63,-15,-240,14,49,-22,-12
-22,-88,-66,55,22,-77,-15,-249,2,43,-41,-27
-23,-101,-78,62,28,-89,-15,-250,-2,36,-54,-40
-26,-106,-80,66,27,-93,-15,-251,-8,28,-65,-40
-25,-105,-80,65,28,-92,-15,-254,-14,20,-64,-40
-23,-103,-80,63,28,-91,-15,-256,-19,16,-66,-40
-19,-99,-80,59,31,-90,-16,-253,-17,20,-64,-40
-21,-100,-79,61,29,-90,-14,-250,-14,20,-66,-39
-20,-96,-76,59,28,-86,-16,-250,-15,20,-61,-35
-16,-89,-73,53,29,-81,-14,-250,-15,20,-19,-36
-12,-83,-70,47,29,-76,-17,-250,-14,19,2,-33
-9,-76,-67,43,30,-72,-14,-250,-17,20,-2,-29
-4,-69,-64,37,30,-66,-16,-253,-19,19,1,-31
1,-66,-67,33,35,-67,9,-256,-22,20,-1,-29
0,-70,-71,35,36,-70,105,-259,-18,19,0,-31
-1,-70,-69,35,34,-70,138,-262,-32,21,0,-29
1,-70,-70,35,36,-70,125,-264,-11,19,0,-31
-1,-70,-69,35,34,-70,132,-269,-164,23,0,-27
