I,II,III,aVR,aVL,aVF,V1,V2,V3,V4,V5,V6
368,335,-33,-351,200,151,11,704,949,1277,1056,626
684,419,-265,-551,474,77,-104,956,1260,1669,1390,880
738,82,-656,-410,697,-286,-345,9,178,446,527,532
212,-214,-426,1,319,-320,-329,-1112,-1161,-952,-490,-81
-70,-231,-161,151,45,-196,-141,-784,-913,-793,-507,-223
-129,-202,-73,166,-28,-138,-83,-489,-563,-509,-365,-208
-75,-95,-20,85,-27,-57,-9,-146,-176,-174,-149,-100
-55,-41,13,48,-34,-14,25,1,-16,-42,-62,-50
-68,-32,36,50,-52,1,27,-26,-40,-60,-56,-59
-46,-19,26,32,-36,3,33,37,31,2,-17,-33
-52,-19,33,36,-42,6,27,5,6,-21,-35,-37
-35,-7,29,21,-32,11,32,48,48,21,-12,-26
-35,-5,31,20,-33,13,28,34,34,11,-19,-33
-26,4,30,11,-28,17,27,52,52,31,-5,-25
-25,5,30,10,-28,17,24,51,51,35,-5,-26
-26,5,31,11,-29,17,25,54,55,42,1,-25
-21,9,29,6,-25,19,25,66,63,47,5,-17
-21,10,30,5,-25,20,24,71,70,46,7,-12
-19,10,29,5,-24,19,27,82,86,53,13,-4
-16,17,32,-1,-24,24,30,94,94,53,15,2
-10,25,35,-8,-23,30,30,100,103,57,22,9
-6,33,38,-14,-22,35,30,110,111,64,31,15
0,41,41,-20,-21,41,30,126,128,75,40,25
3,48,45,-26,-21,46,30,140,140,92,48,35
9,54,45,-32,-18,50,27,165,157,107,58,45
22,62,40,-42,-9,51,24,178,170,114,66,52
36,76,40,-56,-2,58,21,192,183,126,75,62
49,88,39,-69,5,63,18,210,187,137,86,81
63,97,35,-80,14,66,15,220,179,131,94,96
72,107,35,-90,18,71,16,221,175,121,98,96
73,106,33,-89,19,69,20,210,168,114,93,90
75,103,28,-89,23,65,20,200,164,99,89,85
73,98,25,-86,24,61,20,189,148,77,84,79
75,97,22,-86,27,59,20,163,127,62,80,74
70,88,17,-79,26,52,20,131,109,51,63,68
37,51,14,-45,11,33,20,98,86,34,34,44
12,22,10,-17,0,16,20,60,56,12,13,12
-7,3,10,2,-9,6,20,21,23,-7,-14,-12
-24,-16,9,20,-16,-3,20,-11,-6,-27,-37,-26
-36,-31,5,33,-20,-13,20,-26,-26,-41,-48,-34
-41,-36,5,38,-22,-16,21,-32,-33,-50,-60,-43
-42,-34,8,38,-24,-13,25,-43,-29,-58,-62,-52
-46,-35,10,41,-28,-12,25,-41,-26,-56,-58,-52
-44,-35,10,40,-27,-12,27,-35,-23,-50,-56,-46
-49,-35,14,42,-31,-11,31,-30,-18,-45,-52,-42
-48,-33,15,40,-32,-8,30,-24,-15,-39,-50,-37
-42,-27,15,34,-28,-6,27,-18,-15,-34,-48,-33
-38,-22,15,30,-26,-3,24,-16,-15,-29,-41,-28
-34,-19,15,26,-24,-1,21,-22,-15,-24,-34,-25
-29,-14,15,21,-21,1,18,-28,-15,-21,-28,-22
-25,-10,15,17,-20,2,15,-34,-15,-18,-21,-20
-30,-15,15,22,-22,0,14,-39,-17,-13,-20,-17
-30,-15,15,22,-22,0,10,-41,-20,-10,-20,-14
-31,-16,15,23,-23,0,10,-44,-23,-13,-20,-19
-35,-21,15,28,-25,-2,8,-46,-25,-19,-20,-20
-35,-19,15,26,-25,-2,4,-52,-28,-23,-20,-20
-37,-23,15,29,-26,-4,5,-59,-34,-28,-22,-21
-41,-25,15,33,-28,-5,1,-64,-37,-32,-25,-26
-44,-25,20,34,-31,-2,0,-65,-42,-37,-25,-31
-49,-29,20,39,-34,-4,0,-67,-45,-40,-25,-34
-50,-30,20,40,-35,-5,0,-70,-48,-43,-31,-39
-50,-30,20,40,-35,-5,0,-71,-52,-47,-38,-40
-51,-30,21,40,-36,-5,0,-75,-54,-50,-40,-40
-47,-30,17,38,-32,-6,0,-74,-59,-54,-40,-44
-45,-30,15,37,-30,-7,0,-77,-60,-55,-40,-45
-45,-30,15,37,-30,-7,0,-80,-61,-55,-40,-44
-42,-30,11,36,-26,-10,1,-80,-64,-55,-40,-38
-37,-27,10,32,-24,-8,-1,-76,-66,-55,-40,-32
-27,-18,9,22,-18,-4,7,-69,-63,-53,-33,-28
-30,-7,23,18,-26,8,18,-63,-43,-42,-23,-21
-33,0,33,16,-33,17,31,-38,-19,-23,-12,-16
-17,4,22,6,-20,13,53,-15,2,-4,-7,-18
-4,9,13,-3,-8,11,58,-14,16,-6,-13,-21
5,8,2,-7,1,5,35,-10,7,-9,-18,-24
8,1,-7,-4,7,-3,-18,-49,-37,-24,-21,-27
10,-4,-14,-3,13,-9,-48,-109,-84,-64,-27,-30
12,-9,-21,-1,17,-15,-40,-112,-92,-76,-30,-32
7,-16,-23,4,15,-19,-38,-96,-88,-73,-30,-34
1,-19,-20,9,10,-19,-34,-89,-92,-77,-30,-38
-16,-33,-16,25,0,-25,-25,-82,-88,-72,-32,-39
-33,-48,-15,41,-8,-31,-16,-88,-92,-78,-53,-45
-34,-43,-9,38,-12,-26,-4,-79,-83,-68,-55,-44
-39,-50,-11,44,-13,-30,3,-81,-83,-72,-60,-49
-47,-50,-3,48,-22,-26,6,-81,-79,-70,-63,-49
-42,-50,-8,46,-17,-28,5,-72,-71,-62,-63,-51
-50,-52,-2,51,-24,-26,5,-78,-78,-72,-65,-57
-46,-47,-1,46,-22,-24,6,-58,-56,-52,-48,-52
-54,-55,-1,54,-26,-28,4,-78,-74,-73,-66,-60
-38,-32,6,35,-22,-13,21,-45,-34,-24,-33,-48
-44,-46,-2,44,-21,-24,22,-72,-68,-68,-67,-65
-109,31,140,39,-125,86,98,63,74,47,-3,-21
-89,133,222,-22,-156,177,154,227,289,269,177,84
216,284,68,-250,74,176,50,530,706,946,818,481
771,386,-385,-578,578,0,-118,996,1222,1598,1351,883
755,-1,-756,-377,756,-378,-345,-119,-19,184,297,395
237,-273,-510,18,374,-391,-324,-1165,-1225,-1055,-619,-168
-61,-258,-197,160,68,-227,-147,-814,-932,-825,-545,-233
-136,-217,-82,177,-27,-149,-83,-485,-555,-520,-378,-201
-72,-83,-11,77,-31,-46,7,-115,-154,-153,-130,-99
-49,-42,7,45,-28,-17,32,3,-33,-68,-74,-53
-54,-35,19,44,-36,-8,27,9,-25,-40,-48,-36
-45,-29,16,37,-30,-6,33,57,18,-11,-29,-32
-48,-26,22,37,-35,-2,27,41,7,-20,-34,-33
-40,-17,24,28,-32,3,32,69,38,9,-18,-25
-41,-16,26,28,-33,5,28,55,30,-2,-23,-27
-37,-7,30,22,-33,11,31,71,43,18,-9,-21
-34,-4,30,19,-32,12,29,69,46,16,-10,-19
-30,1,30,14,-30,16,30,81,56,27,-2,-15
-24,5,29,10,-27,17,30,86,57,31,0,-12
-23,9,33,7,-28,21,29,90,63,35,3,-7
-21,14,35,3,-29,24,32,108,73,40,9,-4
-15,20,35,-3,-25,27,35,107,83,43,9,0
-10,25,35,-8,-23,30,35,122,93,52,18,7
-4,31,35,-14,-20,33,35,139,101,59,27,10
2,36,35,-19,-17,35,35,152,117,71,38,18
3,41,38,-23,-17,39,35,169,120,75,43,22
10,50,40,-30,-16,45,32,183,131,78,39,29
20,60,40,-40,-10,49,29,207,153,95,56,52
33,76,44,-55,-6,60,26,225,171,106,78,71
43,88,45,-66,-2,66,23,237,179,101,90,84
56,101,45,-79,5,72,20,241,173,94,98,96
76,114,38,-95,19,76,18,232,165,87,93,103
91,119,27,-105,32,73,15,223,160,79,87,103
96,116,20,-106,37,68,15,215,151,73,83,92
97,107,9,-102,44,58,15,206,140,64,76,84
91,98,7,-95,42,52,15,194,128,52,72,75
58,76,18,-67,20,47,15,165,104,41,58,66
21,48,27,-35,-3,37,11,126,69,29,28,44
2,28,26,-15,-12,27,10,82,40,14,8,10
-13,7,19,3,-16,13,10,40,11,-2,-12,-13
-25,-10,16,17,-20,3,5,11,-13,-18,-38,-31
-30,-18,11,24,-20,-3,5,-6,-29,-32,-50,-43
-32,-25,6,28,-19,-9,6,-12,-41,-45,-62,-53
-39,-35,5,37,-22,-15,11,-15,-41,-53,-76,-56
-44,-39,5,41,-24,-16,15,-18,-40,-52,-77,-54
-40,-35,5,37,-22,-15,20,-23,-39,-49,-72,-56
-41,-36,5,38,-22,-15,25,-25,-34,-46,-69,-54
-37,-32,5,34,-21,-14,22,-20,-36,-43,-65,-56
-35,-30,5,32,-20,-12,17,-20,-32,-41,-61,-53
-40,-30,9,35,-24,-10,14,-19,-30,-38,-59,-46
-40,-27,14,33,-27,-6,10,-15,-30,-36,-50,-41
-39,-24,15,31,-27,-4,7,-15,-27,-32,-40,-36
-36,-21,15,28,-26,-3,3,-17,-24,-30,-30,-30
-33,-18,15,25,-24,-1,0,-24,-26,-26,-24,-26
-30,-15,15,22,-22,0,-2,-29,-29,-25,-25,-29
-31,-16,15,23,-22,-1,-5,-35,-32,-29,-25,-30
-36,-20,16,28,-26,-2,-8,-41,-35,-32,-25,-30
-39,-20,19,29,-29,0,-11,-47,-37,-35,-25,-30
-40,-20,20,30,-30,0,-13,-53,-44,-38,-26,-30
-40,-20,20,30,-30,0,-16,-55,-50,-42,-31,-32
-40,-20,20,30,-30,0,-19,-55,-53,-45,-36,-37
-44,-24,20,34,-32,-1,-22,-62,-58,-45,-39,-40
-43,-25,18,34,-30,-3,-25,-73,-64,-47,-44,-45
-40,-25,15,32,-27,-5,-24,-75,-70,-50,-45,-45
-45,-29,15,37,-30,-7,-20,-75,-70,-50,-45,-46
-45,-30,15,37,-30,-7,-20,-75,-70,-47,-45,-50
-44,-29,15,36,-29,-7,-20,-75,-69,-41,-45,-50
-38,-23,15,30,-26,-4,-20,-75,-71,-36,-44,-48
-32,-17,15,24,-23,-1,-21,-65,-66,-33,-38,-42
-27,-12,15,19,-21,1,-13,-49,-54,-27,-31,-38
-21,-6,15,13,-18,4,7,-38,-37,-26,-24,-33
-20,-5,15,12,-17,5,29,-34,-22,-30,-17,-29
-20,-4,15,12,-17,5,34,-36,-17,-33,-19,-24
-13,-1,12,7,-13,6,9,-35,-9,-38,-27,-21
-4,1,4,1,-4,2,-47,-59,-44,-38,-32,-20
3,-1,-4,0,4,-2,-85,-109,-92,-57,-39,-20
4,-7,-11,2,7,-8,-78,-123,-96,-72,-46,-21
5,-13,-18,4,12,-15,-65,-115,-94,-70,-49,-18
0,-18,-18,9,9,-18,-56,-117,-94,-77,-54,-27
-14,-27,-14,21,0,-20,-49,-110,-88,-76,-56,-42
-29,-46,-16,38,-6,-31,-43,-110,-92,-82,-61,-54
-40,-50,-10,45,-15,-30,-36,-107,-86,-76,-56,-67
-38,-49,-11,44,-14,-30,-28,-100,-83,-73,-53,-70
-44,-53,-10,49,-17,-31,-26,-104,-90,-80,-58,-70
-44,-53,-10,49,-16,-31,-24,-88,-73,-62,-50,-72
-46,-58,-11,52,-17,-34,-26,-101,-90,-82,-63,-78
-41,-47,-7,44,-17,-27,-24,-77,-67,-55,-45,-70
-39,-54,-15,47,-12,-35,-26,-96,-85,-78,-66,-80
-38,-40,-2,39,-17,-21,-25,-73,-56,-42,-44,-69
-32,-49,-17,40,-7,-33,-9,-87,-71,-63,-64,-81
-87,-10,77,48,-82,33,51,-36,-15,-32,-57,-67
-115,81,196,17,-156,139,148,190,234,170,59,-9
62,209,146,-136,-42,177,89,335,491,628,531,276
608,400,-208,-504,408,96,-90,902,1173,1580,1368,837
815,152,-662,-483,738,-255,-307,284,472,740,736,623
323,-186,-510,-68,417,-348,-326,-995,-998,-844,-444,-52
-55,-234,-179,145,62,-206,-125,-854,-971,-854,-551,-242
-143,-230,-87,187,-28,-158,-73,-570,-649,-606,-435,-235
-98,-114,-17,106,-40,-65,-28,-243,-269,-259,-198,-149
-56,-50,7,53,-32,-21,13,-12,-34,-62,-78,-85
-60,-34,26,46,-42,-4,10,-38,-50,-59,-66,-69
-48,-21,26,34,-37,2,26,22,17,-5,-31,-56
-57,-23,34,40,-45,5,16,-4,1,-26,-43,-55
-44,-11,33,28,-38,10,22,26,29,7,-24,-44
-39,-11,28,25,-33,8,19,22,23,2,-29,-41
-34,-2,32,18,-33,14,21,33,35,17,-16,-33
-28,0,28,14,-28,14,18,44,42,18,-15,-30
-27,4,31,11,-30,18,14,48,48,23,-8,-26
-21,7,28,6,-24,17,16,60,62,32,-2,-23
-14,11,25,1,-19,18,14,62,64,34,2,-18
-10,15,25,-3,-18,20,15,71,73,40,10,-15
-6,18,25,-7,-16,21,15,80,79,43,13,-10
1,26,25,-14,-12,25,20,93,90,57,20,-2
7,32,25,-20,-9,28,20,102,100,68,29,6
10,39,30,-25,-10,34,20,113,115,75,40,14
5,46,41,-25,-18,43,20,130,130,85,48,21
7,52,45,-30,-20,48,20,146,145,98,55,37
12,57,45,-35,-17,51,18,162,160,108,66,53
22,67,45,-45,-12,56,12,188,171,121,81,68
40,85,45,-63,-3,65,7,199,171,119,99,80
50,95,45,-73,2,70,4,192,162,110,102,92
64,106,42,-85,11,73,-2,188,156,105,100,106
69,106,37,-88,16,72,-5,183,148,95,100,106
65,100,34,-83,15,67,-1,179,141,90,95,99
64,94,30,-79,17,62,4,175,134,81,95,93
62,88,27,-76,18,57,6,164,119,65,94,86
60,83,23,-72,18,53,11,139,103,49,79,78
39,58,19,-49,10,38,14,101,83,33,51,49
15,28,13,-22,1,21,15,59,56,20,19,18
-3,7,10,-2,-6,8,15,25,32,6,-3,-3
-13,-8,5,10,-8,-1,15,2,13,-11,-22,-18
-18,-18,0,18,-9,-8,15,-13,-8,-26,-40,-28
-34,-31,3,32,-18,-14,15,-22,-20,-41,-52,-41
-38,-32,6,34,-22,-12,16,-30,-25,-48,-50,-42
-38,-29,9,34,-23,-10,19,-41,-33,-44,-50,-39
-42,-30,12,36,-27,-9,22,-43,-31,-42,-50,-36
-44,-30,14,36,-29,-7,25,-36,-25,-39,-50,-33
-48,-31,18,39,-33,-6,28,-31,-20,-36,-51,-31
-49,-29,20,39,-34,-4,30,-26,-14,-34,-46,-29
-48,-25,23,36,-35,0,28,-20,-8,-30,-39,-25
-46,-21,26,33,-36,2,23,-16,-6,-22,-32,-20
-39,-18,21,28,-30,1,20,-20,-10,-16,-26,-18
-33,-13,20,23,-26,3,16,-25,-13,-9,-19,-13
-30,-10,20,20,-25,5,13,-29,-15,-2,-16,-10
-29,-13,15,20,-22,1,9,-34,-19,-2,-21,-13
-31,-16,15,23,-22,-1,6,-39,-20,-9,-19,-16
-34,-19,15,26,-25,-1,3,-43,-23,-13,-23,-19
-37,-22,15,29,-26,-3,1,-47,-27,-19,-25,-22
-40,-25,15,32,-27,-5,-3,-50,-30,-25,-25,-24
-39,-24,15,31,-26,-4,-5,-55,-33,-30,-28,-27
-35,-20,15,27,-25,-2,-5,-60,-36,-34,-31,-30
-35,-20,15,27,-25,-2,-5,-63,-42,-37,-34,-30
-39,-20,19,29,-29,-1,-5,-68,-49,-40,-37,-30
-40,-20,20,30,-30,0,-5,-70,-53,-43,-40,-30
-40,-20,20,30,-30,0,-5,-70,-56,-45,-40,-30
-48,-23,25,35,-36,1,-5,-73,-59,-47,-40,-34
-53,-29,25,40,-39,-2,0,-75,-62,-50,-40,-35
-55,-29,26,41,-40,-1,0,-75,-65,-50,-40,-35
-55,-25,31,40,-42,2,1,-69,-64,-50,-40,-35
-54,-25,29,39,-41,2,6,-64,-56,-50,-40,-35
-53,-20,33,36,-43,6,4,-57,-49,-50,-36,-34
-56,-21,35,38,-45,6,10,-53,-43,-41,-27,-29
-44,-9,35,26,-40,13,22,-43,-29,-25,-19,-23
-20,11,31,4,-26,21,38,-16,-3,-9,-10,-20
-22,8,30,7,-26,19,49,10,15,15,-7,-15
-28,0,29,14,-28,14,35,12,9,20,-14,-11
-4,-6,-1,5,-1,-3,1,-24,-14,5,-23,-13
5,-13,-18,4,12,-15,-49,-81,-60,-31,-29,-18
-8,-19,-10,14,1,-14,-66,-104,-88,-69,-38,-21
-17,-24,-7,21,-5,-15,-50,-96,-83,-69,-39,-24
-22,-25,-3,24,-9,-14,-41,-97,-86,-70,-41,-29
-29,-25,4,27,-16,-11,-32,-92,-84,-70,-39,-31
-40,-35,4,37,-22,-15,-26,-89,-84,-69,-41,-40
-50,-44,6,47,-28,-19,-19,-90,-86,-72,-55,-50
-49,-44,4,46,-26,-20,-12,-81,-75,-61,-53,-49
-52,-47,5,49,-28,-21,-7,-88,-82,-71,-59,-52
-48,-42,6,45,-27,-18,0,-71,-65,-55,-54,-47
-51,-49,3,49,-26,-23,-1,-84,-77,-69,-67,-53
-53,-40,13,46,-32,-13,2,-66,-57,-51,-51,-47
-53,-44,9,48,-31,-17,-3,-77,-67,-65,-61,-53
-64,-34,30,48,-47,-2,3,-62,-56,-44,-51,-48
-49,-38,11,43,-29,-14,-3,-59,-47,-33,-48,-49
-85,-17,68,51,-76,26,39,-53,-33,-45,-64,-60
-112,91,203,10,-158,147,137,163,200,138,41,-2
12,192,179,-102,-84,185,116,293,420,500,400,217
517,396,-121,-456,318,138,-27,873,1138,1512,1286,764
856,228,-628,-542,742,-200,-283,494,720,1063,980,728
448,-203,-651,-122,550,-427,-378,-961,-974,-761,-337,31
12,-273,-285,131,149,-279,-216,-1056,-1187,-1038,-621,-234
-113,-224,-111,168,-1,-167,-110,-609,-694,-641,-449,-223
-80,-116,-35,98,-23,-75,-17,-224,-270,-270,-207,-137
-39,-35,4,37,-21,-15,40,5,-25,-59,-73,-57
-50,-27,23,38,-37,-2,31,-23,-45,-70,-79,-56
-46,-13,33,29,-39,10,38,36,25,-10,-36,-37
-57,-18,39,37,-47,10,33,16,15,-26,-47,-41
-49,-8,41,29,-45,16,36,44,40,5,-23,-32
-47,-8,39,27,-42,15,35,49,38,3,-23,-29
-44,-3,41,23,-42,19,35,60,42,11,-12,-25
-39,0,39,20,-39,20,35,65,55,18,-8,-20
-38,2,40,18,-40,21,34,67,58,20,-6,-17
-34,6,40,14,-37,22,36,82,68,30,0,-13
-32,8,40,12,-36,24,34,78,63,30,1,-10
-29,11,40,9,-35,25,39,96,81,41,7,-5
-26,13,40,7,-33,26,40,108,93,44,10,-2
-19,21,40,-1,-30,30,40,117,100,52,17,6
-13,27,40,-7,-26,33,45,128,110,62,22,14
-6,34,41,-14,-24,37,46,148,121,72,27,21
1,41,40,-21,-20,40,44,161,134,83,34,30
7,47,41,-27,-17,44,40,176,151,92,49,37
18,57,39,-38,-11,48,38,202,167,107,67,49
31,73,41,-52,-5,57,35,219,182,124,81,66
42,92,50,-67,-4,71,32,232,198,128,94,76
64,108,45,-86,9,76,30,248,207,124,101,89
80,117,37,-99,21,76,27,256,205,122,115,102
85,116,31,-101,27,73,21,250,199,119,122,121
93,115,22,-105,35,68,16,242,192,116,112,142
94,111,16,-103,39,63,13,237,188,115,104,136
96,111,14,-104,41,62,7,227,179,104,95,124
88,103,15,-96,36,59,6,198,150,83,86,106
56,71,15,-64,21,43,10,152,110,59,57,57
22,37,15,-30,3,26,12,102,71,32,17,20
-8,7,15,0,-12,11,15,59,44,13,-2,-2
-23,-10,13,17,-18,1,19,23,12,-8,-23,-16
-35,-26,10,31,-22,-8,20,-7,-17,-27,-41,-27
-44,-37,7,40,-25,-15,24,-18,-32,-44,-53,-46
-46,-42,4,43,-25,-18,25,-24,-40,-55,-62,-50
-49,-48,0,49,-24,-24,25,-22,-41,-55,-72,-53
-50,-50,0,50,-25,-25,29,-19,-45,-56,-79,-55
-55,-50,5,52,-30,-22,31,-20,-43,-61,-75,-50
-58,-50,8,54,-33,-21,28,-20,-38,-58,-67,-49
-62,-50,12,56,-37,-19,25,-20,-35,-52,-61,-45
-65,-50,15,57,-40,-17,25,-21,-32,-49,-54,-42
-64,-44,20,54,-42,-12,25,-26,-27,-44,-48,-40
-55,-37,18,46,-36,-10,25,-24,-25,-40,-42,-38
-45,-31,14,37,-30,-8,25,-28,-29,-35,-39,-33
-40,-24,15,32,-27,-4,22,-30,-32,-35,-35,-27
-28,-17,11,22,-19,-2,16,-30,-35,-34,-32,-24
-27,-17,10,22,-18,-3,12,-33,-38,-30,-27,-18
-31,-21,10,26,-21,-5,7,-36,-40,-30,-25,-15
-29,-19,10,24,-20,-5,3,-39,-42,-32,-30,-21
-34,-24,10,29,-22,-7,-2,-42,-46,-38,-30,-27
-35,-25,10,30,-22,-7,-5,-46,-49,-41,-34,-33
-35,-25,10,30,-22,-7,-5,-51,-52,-45,-35,-35
-40,-30,10,35,-25,-10,-7,-55,-56,-50,-37,-35
-40,-30,10,35,-25,-10,-11,-55,-59,-50,-40,-35
-40,-30,10,35,-25,-10,-10,-55,-62,-51,-40,-35
-40,-30,10,35,-25,-10,-10,-54,-65,-55,-40,-35
-40,-30,10,35,-25,-10,-10,-58,-65,-55,-35,-35
-38,-28,10,33,-24,-9,-10,-66,-64,-53,-35,-35
-33,-23,10,28,-21,-6,-10,-61,-66,-50,-35,-35
-35,-20,15,27,-25,-2,-10,-56,-64,-47,-34,-35
-31,-17,15,23,-22,-1,-10,-52,-65,-44,-36,-35
-28,-12,16,20,-22,1,1,-48,-65,-40,-32,-33
-23,-9,14,16,-18,2,9,-43,-53,-40,-26,-26
-25,-5,20,15,-22,7,27,-30,-34,-28,-21,-21
-36,-5,30,20,-32,12,45,-10,-11,-16,-16,-16
-17,-5,12,11,-14,4,36,2,-17,-23,-10,-10
-4,-6,-1,5,-1,-3,-1,-16,-31,-18,-6,-6
0,-4,-4,3,2,-4,-58,-69,-62,-36,-16,-10
2,-9,-10,4,6,-9,-77,-112,-102,-68,-34,-18
-13,-26,-13,20,0,-19,-64,-108,-100,-71,-47,-23
-11,-31,-20,21,4,-25,-56,-103,-99,-73,-50,-31
-12,-30,-18,21,3,-24,-45,-103,-102,-78,-50,-37
-26,-37,-12,32,-7,-24,-38,-94,-98,-78,-49,-45
-37,-46,-9,41,-14,-27,-34,-96,-102,-81,-57,-61
-46,-48,-2,47,-22,-25,-29,-89,-92,-73,-53,-60
-50,-51,-1,50,-24,-26,-26,-88,-96,-74,-56,-60
-58,-49,8,53,-33,-20,-20,-87,-94,-71,-56,-61
-52,-50,2,50,-27,-24,-17,-77,-85,-62,-52,-58
-59,-51,8,54,-33,-21,-14,-88,-99,-73,-61,-64
-51,-47,4,49,-28,-21,-15,-65,-73,-48,-50,-60
-58,-54,4,55,-31,-25,-16,-89,-96,-72,-74,-71
-49,-39,10,43,-29,-14,-13,-55,-55,-29,-46,-58
-34,-40,-5,36,-14,-22,-17,-84,-90,-64,-87,-70
-101,31,133,35,-117,82,78,50,57,49,-25,-50
-76,110,187,-17,-132,148,139,246,297,270,159,44
199,264,65,-232,67,165,41,485,644,880,768,431
735,380,-355,-558,545,13,-131,953,1167,1537,1331,859
751,52,-698,-401,724,-323,-358,-60,56,239,339,426
177,-200,-378,12,278,-289,-294,-1070,-1094,-945,-560,-150
-96,-238,-141,167,23,-189,-85,-742,-866,-766,-525,-264
-128,-219,-92,174,-18,-155,-70,-513,-595,-554,-413,-248
-84,-84,0,83,-41,-42,-23,-163,-197,-180,-152,-122
-42,-40,2,41,-21,-19,13,-18,-56,-74,-78,-79
-45,-28,17,36,-30,-5,7,-21,-42,-50,-52,-68
-37,-21,16,29,-26,-2,13,27,14,-11,-36,-56
-43,-22,21,32,-32,0,8,2,-2,-22,-43,-56
-33,-13,20,23,-26,3,12,36,28,10,-24,-43
-32,-13,19,23,-26,3,9,25,16,-3,-30,-41
-28,-7,21,18,-25,7,15,43,36,15,-16,-32
-24,-6,18,15,-21,6,15,41,35,13,-18,-30
-27,-5,22,16,-24,8,15,46,43,23,-8,-25
-27,-3,24,14,-25,11,15,61,53,26,-6,-23
-25,1,25,12,-25,12,15,63,60,34,-1,-18
-25,0,25,12,-25,12,15,73,69,43,4,-15
-21,4,25,8,-23,14,15,84,72,44,7,-11
-12,13,25,-1,-19,19,15,91,83,50,16,-2
-4,21,25,-9,-14,22,15,100,92,54,23,6
3,29,26,-17,-12,27,15,115,106,65,33,14
13,36,24,-25,-6,30,15,130,122,72,38,21
14,44,31,-29,-9,37,11,146,133,83,52,30
18,58,40,-38,-11,49,6,159,142,95,65,46
36,70,34,-53,1,51,4,173,141,101,68,59
54,83,29,-69,13,55,-1,177,134,104,85,68
71,94,23,-83,24,58,-4,171,131,96,93,87
84,101,17,-93,33,59,-8,167,126,89,86,93
91,104,13,-98,39,58,-13,162,122,83,82,88
90,96,6,-93,42,51,-20,158,116,69,76,85
88,89,1,-88,43,45,-24,154,102,48,70,81
88,83,-5,-85,46,39,-16,139,88,34,66,78
83,72,-11,-77,46,30,-3,118,73,27,53,56
52,54,3,-53,24,28,7,91,57,17,34,28
13,30,17,-22,-2,23,11,60,39,9,9,8
-7,7,14,-1,-11,11,9,20,13,-3,-14,-13
-22,-7,15,14,-19,4,10,-18,-3,-19,-27,-32
-31,-20,11,25,-21,-4,10,-35,-9,-36,-50,-46
-44,-34,10,39,-26,-12,11,-40,-16,-47,-67,-52
-46,-36,10,41,-27,-13,15,-40,-24,-45,-73,-51
-38,-32,6,34,-21,-13,15,-39,-32,-45,-73,-47
-33,-30,3,31,-18,-13,15,-36,-33,-45,-64,-45
-27,-26,0,27,-13,-13,15,-35,-27,-45,-58,-41
-22,-25,-2,24,-9,-13,15,-34,-22,-45,-51,-40
-16,-22,-6,20,-5,-13,13,-29,-19,-41,-43,-36
-14,-17,-3,16,-6,-9,9,-31,-13,-34,-35,-30
-17,-14,3,15,-9,-5,10,-28,-10,-27,-27,-25
-17,-11,6,14,-12,-2,10,-25,-15,-21,-19,-19
-17,-6,12,11,-14,3,10,-25,-15,-14,-17,-13
-21,-6,15,13,-18,4,9,-28,-15,-11,-21,-11
-25,-10,15,17,-20,2,6,-34,-16,-18,-20,-16
-27,-12,15,20,-21,1,3,-37,-14,-23,-20,-19
-30,-15,15,22,-22,0,1,-41,-18,-28,-20,-22
-33,-19,15,26,-24,-2,-3,-50,-26,-34,-20,-27
-36,-20,15,27,-25,-2,-5,-59,-32,-39,-25,-30
-36,-24,13,30,-24,-5,-7,-60,-40,-44,-25,-34
-35,-25,10,30,-22,-7,-10,-60,-44,-45,-25,-35
-35,-25,10,30,-22,-7,-10,-65,-47,-45,-25,-35
-40,-30,10,35,-25,-10,-10,-65,-50,-50,-24,-35
-40,-30,10,35,-25,-10,-10,-67,-53,-50,-27,-34
-41,-31,10,36,-26,-10,-10,-70,-55,-51,-32,-36
-45,-35,10,40,-27,-12,-10,-72,-55,-55,-37,-40
-45,-35,10,40,-27,-12,-10,-75,-55,-54,-40,-40
-44,-35,9,40,-26,-12,-10,-78,-55,-58,-35,-42
-46,-35,11,40,-28,-11,-10,-81,-54,-60,-31,-45
-45,-36,9,40,-26,-13,-11,-75,-55,-61,-29,-45
-41,-28,13,34,-27,-7,-6,-66,-55,-52,-24,-41
-28,-13,15,20,-22,1,8,-53,-44,-35,-21,-35
-14,0,14,7,-15,7,22,-32,-20,-18,-18,-30
-32,6,37,13,-35,21,33,-5,10,-6,-14,-25
-26,10,36,8,-31,23,44,5,16,1,-11,-18
-6,5,12,0,-9,8,12,-18,3,3,-8,-17
-9,-5,4,7,-6,-1,-44,-58,-37,-22,-4,-20
-7,-15,-8,11,1,-11,-56,-101,-78,-54,-17,-20
-6,-33,-27,19,11,-29,-50,-105,-81,-61,-33,-22
-16,-40,-24,29,4,-32,-45,-94,-78,-58,-34,-26
-40,-42,-3,41,-18,-22,-38,-96,-78,-65,-40,-24
-46,-45,1,45,-23,-22,-34,-86,-73,-63,-39,-32
-48,-49,-1,48,-23,-25,-29,-87,-77,-66,-49,-51
-55,-50,5,52,-30,-22,-24,-89,-75,-69,-52,-55
-57,-53,4,55,-30,-25,-21,-89,-73,-68,-49,-54
-62,-56,6,59,-34,-25,-15,-94,-79,-74,-53,-56
-52,-53,-1,53,-25,-27,-12,-83,-68,-63,-45,-52
-58,-58,1,58,-29,-28,-9,-100,-85,-81,-57,-58
-51,-51,-1,51,-24,-26,-6,-76,-60,-54,-41,-54
-51,-59,-8,56,-22,-33,-4,-92,-77,-73,-61,-66
-41,-41,0,42,-20,-20,1,-60,-44,-36,-38,-54
-42,-49,-7,46,-17,-28,0,-78,-63,-51,-60,-64
-109,-5,104,57,-107,49,71,-5,10,-4,-40,-57
-108,94,202,6,-155,148,143,195,241,181,81,9
76,221,146,-149,-36,183,96,375,531,673,563,306
621,401,-220,-511,421,90,-68,967,1250,1657,1395,854
836,132,-705,-484,771,-286,-333,222,414,730,738,628
354,-239,-593,-57,473,-416,-363,-1098,-1139,-937,-455,-41
-30,-265,-235,148,102,-250,-194,-933,-1058,-922,-560,-226
-129,-215,-86,172,-21,-150,-97,-537,-613,-571,-403,-216
-106,-102,5,104,-55,-48,1,-158,-196,-199,-160,-114
-68,-41,27,54,-47,-7,32,7,-20,-49,-65,-57
-50,-27,23,38,-37,-2,27,-4,-29,-48,-53,-52
-47,-17,30,32,-38,6,33,50,30,6,-20,-36
-58,-18,40,38,-48,10,27,19,8,-13,-31,-41
-50,-9,41,29,-45,16,32,51,42,22,-11,-29
-47,-8,39,28,-43,15,29,42,37,9,-17,-30
-42,-1,41,22,-41,19,31,53,53,25,-3,-22
-39,1,40,19,-39,20,30,61,57,27,-2,-19
-35,5,40,15,-38,22,30,70,61,32,3,-14
-27,8,35,9,-31,21,30,79,71,39,8,-9
-23,13,35,4,-29,24,29,82,73,41,10,-5
-18,16,33,1,-26,25,31,92,84,48,15,0
-10,20,30,-5,-20,25,34,97,92,49,18,4
-2,28,29,-13,-16,28,35,117,111,61,21,11
0,34,34,-17,-17,34,35,133,119,69,29,17
-8,41,49,-17,-29,44,35,141,129,76,39,24
-4,48,51,-22,-28,49,35,158,149,90,46,31
9,58,49,-33,-21,53,33,172,162,102,55,36
16,67,51,-41,-17,58,29,187,176,117,72,46
32,82,50,-57,-9,65,30,213,198,136,90,68
46,96,50,-71,-3,73,26,228,214,136,102,87
56,104,48,-80,4,76,25,239,217,131,118,103
75,118,42,-97,16,80,25,240,209,129,121,119
90,127,38,-109,26,82,20,234,201,124,111,126
90,123,33,-107,28,78,20,230,193,122,107,133
85,113,29,-99,28,71,20,227,185,116,97,126
82,106,24,-94,29,65,20,210,170,99,91,119
73,93,20,-83,26,57,21,171,143,83,83,100
54,69,15,-62,20,42,17,126,107,60,55,60
29,40,10,-34,9,25,15,76,69,33,22,23
6,12,6,-9,-1,9,15,35,32,6,-6,-3
-6,-5,1,6,-3,-2,15,1,-1,-17,-26,-19
-23,-21,2,22,-12,-9,15,-20,-16,-28,-38,-34
-38,-32,6,34,-21,-13,15,-30,-20,-36,-53,-43
-39,-35,5,37,-21,-15,19,-38,-25,-45,-65,-48
-40,-35,5,37,-22,-15,24,-35,-29,-54,-67,-51
-40,-35,5,37,-22,-15,27,-31,-34,-51,-64,-54
-40,-35,5,37,-22,-15,30,-28,-33,-44,-61,-57
-46,-35,11,40,-28,-12,35,-23,-28,-41,-58,-60
-51,-35,16,42,-33,-9,33,-20,-25,-36,-55,-59
-53,-30,22,41,-37,-4,29,-24,-22,-32,-54,-52
-50,-25,26,37,-38,0,30,-25,-17,-27,-48,-46
-45,-20,25,32,-35,2,26,-25,-16,-24,-41,-39
-42,-17,25,29,-33,4,25,-30,-19,-20,-34,-32
-36,-11,25,23,-30,7,25,-30,-22,-17,-27,-30
-37,-12,25,24,-31,6,20,-31,-24,-12,-21,-30
-40,-16,25,28,-32,5,17,-37,-28,-10,-23,-30
-35,-14,20,24,-27,2,14,-41,-30,-17,-29,-30
-39,-19,20,29,-30,1,9,-45,-32,-25,-32,-30
-39,-20,19,29,-29,-1,6,-48,-37,-30,-37,-31
-35,-20,15,27,-25,-2,2,-53,-40,-38,-40,-35
-36,-20,15,27,-25,-2,0,-56,-47,-40,-40,-35
-32,-20,13,26,-22,-3,0,-62,-52,-40,-42,-35
-30,-21,9,25,-20,-6,0,-69,-55,-43,-45,-35
-26,-19,7,22,-16,-6,0,-70,-59,-46,-45,-35
-30,-26,4,27,-17,-11,1,-70,-60,-44,-45,-31
-32,-31,1,32,-17,-15,4,-70,-60,-41,-45,-29
-29,-29,0,29,-14,-15,5,-70,-60,-39,-45,-30
-40,-30,9,35,-25,-10,5,-70,-60,-40,-45,-30
-53,-30,23,41,-38,-3,6,-69,-57,-39,-45,-30
-55,-31,24,42,-40,-3,4,-61,-55,-41,-44,-29
-53,-26,27,39,-40,0,8,-54,-51,-36,-35,-23
-41,-12,29,26,-35,9,17,-48,-51,-21,-27,-17
-29,2,31,14,-30,16,28,-33,-30,-9,-18,-13
-29,10,39,9,-34,24,41,-8,-8,1,-11,-6
-12,14,26,-1,-20,20,49,10,-12,3,-10,-1
5,13,8,-9,-2,10,33,2,-9,10,-5,-3
5,6,1,-6,2,3,-16,-42,-40,0,-7,-6
4,2,-2,-2,3,0,-62,-95,-82,-52,-19,-9
1,-4,-6,2,4,-5,-65,-107,-86,-78,-34,-12
-1,-10,-9,5,5,-10,-49,-96,-84,-73,-43,-14
-6,-15,-8,11,2,-11,-38,-96,-86,-77,-49,-16
-20,-22,-2,21,-8,-12,-31,-89,-85,-74,-52,-24
-31,-32,-1,32,-15,-16,-27,-85,-85,-76,-54,-44
-44,-40,4,42,-24,-17,-21,-84,-83,-74,-51,-52
-57,-50,7,53,-32,-21,-15,-73,-75,-66,-48,-49
-65,-55,10,60,-37,-22,-11,-80,-82,-76,-54,-52
-53,-47,6,49,-30,-20,-9,-63,-66,-62,-44,-48
-53,-50,3,51,-27,-24,-11,-74,-78,-80,-58,-52
-49,-40,9,44,-29,-15,-8,-56,-61,-59,-42,-42
-43,-45,-2,44,-21,-23,-13,-65,-69,-73,-58,-39
-52,-35,17,43,-34,-9,-7,-57,-58,-50,-45,-30
-44,-45,0,44,-22,-22,-14,-50,-52,-49,-50,-23
-90,-23,67,56,-78,22,31,-44,-39,-44,-58,-23
-114,81,195,16,-155,138,142,192,215,165,74,16
8,177,169,-93,-81,173,110,310,416,497,419,240
551,368,-183,-459,367,92,-43,850,1043,1389,1227,757
909,195,-715,-552,812,-260,-295,508,643,890,829,656
450,-197,-647,-126,549,-422,-390,-943,-925,-776,-416,-21
12,-255,-267,121,140,-261,-195,-1010,-1101,-964,-600,-252
-134,-247,-113,191,-10,-180,-100,-635,-732,-677,-491,-246
-124,-154,-30,140,-47,-92,-41,-327,-374,-350,-266,-167
-54,-58,-4,56,-25,-30,31,8,-40,-65,-81,-70
-71,-47,24,59,-47,-11,32,-11,-53,-62,-76,-55
-59,-30,30,44,-44,0,37,38,5,-9,-29,-40
-62,-31,30,47,-46,0,29,27,5,-17,-40,-45
-59,-23,36,40,-47,7,29,48,29,10,-15,-37
-57,-21,36,39,-46,7,25,55,34,11,-18,-36
-57,-15,42,36,-49,13,26,53,33,16,-10,-35
-48,-11,37,29,-42,12,31,62,43,25,-3,-28
-43,-9,34,26,-39,12,29,60,38,26,0,-20
-35,-6,30,21,-32,12,31,81,57,37,8,-12
-30,-4,27,17,-28,11,29,80,61,36,9,-4
-22,0,22,11,-22,11,30,95,70,42,16,3
-19,1,20,9,-19,10,30,106,75,44,16,8
-18,7,26,5,-22,16,30,113,85,46,22,13
-19,14,33,2,-26,23,30,119,94,60,24,16
-14,21,35,-4,-25,28,30,126,96,74,29,21
-8,27,35,-10,-22,31,31,148,110,78,35,25
3,38,35,-21,-16,36,29,162,125,86,47,36
15,51,35,-33,-10,43,23,180,141,95,64,46
25,60,35,-43,-5,47,16,200,154,105,67,54
47,77,30,-62,9,53,9,212,160,116,81,71
69,91,22,-80,23,56,2,215,160,116,97,87
81,97,16,-90,32,56,-4,208,154,107,96,101
85,95,9,-90,38,51,-2,204,150,101,90,114
86,88,2,-87,42,44,0,197,146,94,85,117
83,85,2,-85,40,43,0,193,138,79,79,109
74,79,5,-77,34,42,5,184,117,62,74,101
72,77,5,-75,33,41,5,159,98,49,67,81
57,62,5,-60,26,33,6,125,79,35,48,50
23,28,5,-26,9,16,11,89,56,20,23,24
4,8,4,-6,0,6,14,50,33,7,-8,-3
-9,-8,1,9,-5,-3,15,17,9,-8,-33,-31
-23,-25,-2,24,-10,-13,15,-1,-13,-27,-52,-48
-36,-40,-4,38,-15,-22,15,-9,-28,-49,-66,-57
-40,-48,-8,44,-16,-28,15,-16,-40,-58,-74,-60
-34,-45,-10,39,-11,-27,15,-22,-42,-54,-75,-60
-38,-45,-8,42,-14,-26,14,-30,-39,-55,-75,-60
-38,-43,-4,41,-17,-23,10,-34,-36,-55,-75,-60
-37,-39,-2,39,-18,-21,10,-31,-33,-55,-75,-60
-42,-40,1,41,-21,-20,10,-28,-31,-55,-74,-58
-40,-36,4,38,-22,-16,10,-26,-28,-48,-66,-52
-37,-31,6,34,-21,-12,10,-22,-25,-41,-58,-48
-36,-26,9,31,-22,-8,7,-20,-22,-34,-51,-44
-33,-23,10,28,-21,-6,4,-22,-20,-27,-44,-39
-30,-17,13,23,-22,-2,1,-28,-17,-25,-38,-35
-32,-16,16,23,-23,0,-2,-32,-14,-25,-30,-35
-33,-20,12,27,-23,-4,-4,-35,-19,-21,-27,-35
-28,-20,8,24,-18,-6,-7,-41,-25,-20,-30,-35
-25,-20,5,22,-15,-7,-10,-47,-31,-20,-30,-35
-22,-20,2,21,-12,-9,-10,-53,-36,-25,-32,-35
-17,-20,-3,18,-7,-11,-10,-59,-41,-33,-36,-37
-19,-24,-5,22,-7,-14,-10,-66,-46,-37,-34,-40
-25,-25,0,25,-12,-12,-10,-69,-49,-42,-39,-43
-29,-25,4,27,-16,-11,-10,-72,-54,-47,-40,-46
-36,-29,6,32,-21,-11,-10,-75,-55,-50,-40,-49
-41,-30,11,36,-26,-10,-10,-77,-56,-50,-44,-50
-43,-29,14,35,-28,-7,-10,-81,-59,-50,-45,-45
-41,-23,18,31,-29,-2,-11,-77,-61,-50,-44,-45
-37,-17,20,27,-28,1,-8,-71,-58,-49,-38,-44
-33,-12,21,23,-27,4,-2,-65,-51,-51,-31,-39
-25,-6,19,16,-22,6,7,-60,-41,-46,-24,-41
-24,-1,22,12,-23,10,11,-54,-34,-30,-17,-37
-29,5,33,12,-31,19,24,-40,-23,-11,-11,-31
-14,14,28,0,-21,21,39,-16,-4,-2,-14,-26
-2,19,20,-9,-11,19,34,0,-11,-12,-24,-21
-4,11,15,-4,-9,12,4,-15,-18,-21,-31,-15
-6,3,9,1,-7,6,-50,-71,-42,-28,-39,-10
-9,-5,4,6,-6,-1,-67,-122,-88,-57,-46,-19
-15,-15,0,15,-7,-7,-55,-119,-91,-72,-50,-33
-18,-23,-5,21,-6,-14,-48,-105,-88,-67,-52,-36
-23,-33,-10,28,-6,-21,-39,-100,-89,-75,-56,-40
-35,-41,-6,38,-14,-23,-33,-92,-82,-73,-57,-51
-41,-46,-5,44,-17,-26,-28,-97,-88,-77,-62,-61
-40,-44,-4,42,-18,-24,-22,-94,-78,-69,-62,-61
-46,-48,-2,47,-22,-25,-17,-95,-80,-70,-66,-65
-52,-50,2,51,-27,-24,-10,-98,-81,-72,-65,-68
-47,-49,-2,48,-23,-26,-10,-87,-69,-60,-62,-69
-50,-48,1,49,-25,-23,-10,-95,-84,-74,-71,-70
-40,-40,-1,40,-19,-20,-10,-69,-60,-51,-55,-60
-44,-45,-1,44,-21,-23,-11,-90,-79,-73,-71,-71
-34,-31,3,32,-18,-14,-7,-54,-40,-24,-40,-54
-46,-38,8,42,-27,-15,-13,-81,-70,-59,-67,-67
-98,34,132,32,-115,82,83,30,53,30,-14,-55
-97,107,204,-5,-150,155,163,212,274,220,113,19
141,248,107,-195,17,177,73,436,611,804,692,386
734,412,-322,-573,528,45,-122,957,1219,1614,1393,876
815,81,-734,-448,775,-326,-366,10,157,391,477,493
261,-227,-488,-17,375,-357,-326,-1112,-1168,-994,-547,-122
-66,-238,-172,153,53,-205,-142,-834,-956,-837,-532,-233
-123,-203,-80,163,-21,-141,-86,-518,-583,-546,-394,-217
-76,-80,-4,78,-36,-42,1,-141,-178,-176,-135,-110
-47,-33,14,40,-31,-9,25,-11,-38,-67,-60,-62
-43,-16,28,29,-35,6,16,-12,-32,-58,-45,-55
-37,-10,27,23,-32,9,23,37,30,-12,-23,-41
-43,-11,32,27,-37,10,17,11,15,-14,-32,-44
-38,-2,36,19,-36,17,22,47,43,16,-11,-31
-40,-3,37,21,-39,17,21,34,29,1,-16,-31
-39,4,43,17,-41,23,26,54,47,17,-1,-23
-39,6,44,16,-42,25,24,54,47,14,-1,-19
-35,11,46,12,-40,28,25,65,54,20,7,-13
-31,13,45,9,-38,29,25,75,62,31,13,-9
-27,18,45,4,-37,31,25,75,67,43,17,-5
-24,21,45,1,-35,32,30,86,85,49,24,0
-20,24,45,-2,-33,35,30,94,91,51,25,4
-17,28,45,-6,-31,36,30,105,97,60,25,13
-12,33,45,-11,-29,38,30,114,108,70,36,21
-3,42,45,-20,-24,43,31,130,124,79,46,29
7,53,46,-31,-19,49,28,148,139,92,54,36
19,62,43,-41,-13,53,24,167,157,108,68,44
26,74,48,-50,-12,61,26,187,174,120,79,57
37,88,51,-62,-7,69,21,201,185,131,94,73
52,98,46,-75,3,72,20,214,196,131,108,87
71,115,44,-93,13,79,19,229,202,122,117,107
82,123,41,-102,20,81,16,230,194,116,115,126
74,114,39,-94,17,76,13,217,181,108,108,133
72,108,35,-90,18,71,10,206,171,101,105,126
65,100,35,-83,15,67,7,194,157,94,97,114
58,92,34,-75,12,63,5,180,141,80,93,106
57,86,29,-72,13,58,7,151,124,67,84,86
37,67,30,-52,3,48,11,105,95,53,55,53
12,40,28,-26,-8,34,13,65,60,31,25,25
-10,13,23,-2,-17,18,16,28,28,7,-3,3
-25,-5,20,15,-22,7,19,-2,1,-12,-21,-18
-32,-15,17,23,-24,1,21,-13,-14,-30,-37,-35
-41,-28,12,34,-26,-8,24,-19,-20,-44,-54,-43
-42,-33,10,37,-26,-11,25,-26,-25,-45,-57,-42
-45,-29,16,37,-30,-7,25,-33,-32,-45,-55,-40
-52,-31,21,41,-37,-4,25,-39,-34,-45,-55,-40
-53,-26,27,39,-40,0,25,-37,-29,-45,-51,-40
-58,-25,33,41,-45,4,23,-32,-23,-45,-50,-40
-60,-25,35,42,-47,5,19,-29,-20,-41,-50,-39
-56,-21,35,38,-45,7,20,-26,-15,-34,-44,-34
-53,-18,35,35,-44,8,16,-21,-10,-27,-37,-29
-50,-15,35,32,-42,10,15,-21,-13,-21,-31,-25
-47,-13,34,29,-41,11,14,-25,-16,-14,-24,-20
-40,-9,31,25,-35,10,11,-28,-19,-11,-20,-15
-39,-12,26,25,-32,7,8,-32,-22,-16,-20,-19
-39,-16,24,27,-31,4,5,-35,-24,-19,-20,-20
-34,-14,20,24,-26,2,3,-40,-27,-22,-20,-20
-34,-19,15,26,-25,-2,-1,-50,-29,-27,-20,-25
-35,-20,15,27,-25,-2,3,-56,-33,-30,-20,-25
-35,-20,15,27,-25,-2,6,-54,-35,-33,-25,-26
-40,-25,15,32,-27,-5,5,-58,-39,-37,-28,-30
-40,-25,15,32,-27,-5,5,-60,-46,-40,-33,-32
-44,-29,15,36,-29,-6,5,-60,-52,-44,-35,-35
-45,-30,15,37,-30,-7,5,-64,-55,-45,-35,-38
-42,-32,10,37,-26,-11,5,-65,-55,-45,-35,-40
-46,-35,10,41,-28,-12,5,-65,-55,-45,-35,-40
-43,-35,9,39,-25,-13,5,-70,-55,-45,-34,-40
-40,-35,5,37,-22,-15,5,-70,-55,-45,-30,-40
-40,-35,5,37,-22,-15,5,-69,-51,-45,-30,-40
-42,-35,7,38,-24,-13,7,-64,-45,-41,-30,-40
-46,-28,18,37,-32,-5,12,-59,-40,-35,-30,-39
-42,-17,25,29,-33,3,17,-57,-33,-29,-30,-33
-37,-8,29,22,-32,10,19,-43,-29,-24,-32,-27
-32,-5,28,19,-30,11,39,-19,-4,-8,-36,-22
-22,-4,18,12,-19,7,52,5,6,-3,-35,-16
-10,0,10,4,-10,5,34,0,-6,-6,-36,-11
-2,0,1,1,-1,0,-18,-37,-16,-8,-35,-14
1,-7,-7,3,4,-7,-65,-95,-64,-45,-35,-21
-2,-15,-14,9,6,-14,-61,-122,-94,-75,-40,-26
0,-22,-22,12,11,-22,-51,-107,-88,-73,-39,-31
-6,-26,-20,16,7,-23,-44,-103,-91,-76,-44,-36
-28,-24,4,26,-16,-9,-35,-99,-85,-75,-45,-40
-52,-38,15,45,-33,-11,-30,-93,-84,-74,-46,-43
-67,-49,19,58,-43,-15,-22,-95,-86,-76,-53,-47
-65,-43,22,54,-43,-10,-16,-83,-75,-65,-51,-48
-72,-47,24,59,-48,-11,-9,-90,-86,-77,-62,-54
-74,-42,32,58,-52,-5,-3,-75,-73,-60,-55,-53
-73,-48,25,61,-48,-11,-7,-84,-86,-73,-61,-57
-66,-41,25,54,-45,-8,-2,-72,-76,-59,-46,-47
-52,-43,8,47,-30,-17,-8,-72,-77,-65,-52,-52
-53,-38,15,45,-34,-11,-1,-77,-69,-57,-44,-48
-32,-41,-9,36,-12,-25,-10,-49,-43,-38,-35,-40
-77,-32,45,55,-61,7,18,-56,-55,-65,-49,-55
-125,81,206,22,-165,143,136,148,179,127,56,-1
-36,171,207,-68,-122,188,128,258,363,410,326,172
458,365,-93,-412,276,136,-8,790,996,1327,1156,697
911,257,-654,-584,782,-198,-256,640,821,1118,999,739
548,-188,-736,-179,642,-462,-382,-843,-827,-658,-316,38
42,-299,-341,129,192,-320,-247,-1122,-1221,-1063,-652,-251
-122,-246,-124,184,1,-185,-143,-667,-745,-684,-477,-232
-108,-136,-29,122,-39,-82,-39,-299,-344,-331,-255,-161
-54,-45,9,49,-31,-18,31,-7,-42,-68,-69,-66
-56,-35,21,46,-38,-7,31,-26,-50,-77,-72,-56
-44,-18,26,31,-34,3,39,36,-1,-12,-33,-36
-50,-23,27,37,-39,2,32,26,6,-19,-44,-39
-49,-15,34,32,-41,10,32,46,36,8,-27,-29
-48,-13,35,30,-41,11,29,53,40,14,-25,-25
-51,-10,41,30,-46,16,30,53,39,17,-19,-21
-43,-4,39,24,-41,17,30,73,51,27,-11,-14
-39,1,40,19,-40,20,30,65,45,24,-11,-13
-33,7,40,13,-37,23,31,84,58,35,-3,-8
-28,12,40,8,-34,26,30,91,63,34,-3,-5
-22,18,40,2,-32,29,30,100,75,43,4,0
-17,22,40,-3,-29,31,33,103,78,49,5,2
-14,26,40,-6,-28,33,35,111,87,56,12,9
-11,29,40,-9,-25,34,35,124,98,61,23,14
-8,33,41,-13,-24,36,35,140,111,69,32,19
-4,35,39,-15,-22,36,35,154,124,80,43,26
12,46,35,-29,-12,40,34,168,136,90,45,29
21,56,36,-39,-8,46,29,190,155,105,56,40
32,64,33,-48,-1,48,26,202,168,120,71,64
48,77,29,-62,9,53,23,224,186,121,88,87
60,91,30,-76,15,60,18,246,187,120,103,96
83,109,26,-96,28,67,15,243,176,119,105,102
91,112,21,-102,35,67,15,235,172,114,115,114
91,107,16,-100,37,62,15,226,162,116,115,115
91,104,13,-97,39,58,15,217,156,111,104,108
92,99,7,-96,42,53,15,209,149,95,101,104
89,94,6,-92,41,50,15,190,134,79,88,93
61,80,19,-70,21,49,15,152,106,58,61,70
31,54,22,-42,4,38,15,105,73,37,24,35
4,21,17,-13,-7,19,15,59,42,18,-8,2
-16,-1,14,8,-15,6,15,23,17,-3,-20,-13
-21,-10,11,16,-15,0,15,4,-2,-23,-33,-27
-31,-25,6,27,-18,-9,15,-12,-13,-38,-45,-38
-46,-40,6,43,-26,-17,19,-25,-19,-47,-56,-47
-52,-42,10,47,-31,-16,20,-28,-26,-46,-65,-57
-47,-38,10,43,-28,-14,20,-25,-33,-45,-65,-56
-48,-36,12,42,-29,-12,20,-22,-39,-45,-65,-55
-48,-32,16,40,-32,-8,20,-20,-37,-45,-62,-55
-44,-30,13,36,-29,-8,20,-17,-34,-45,-59,-55
-51,-28,23,39,-37,-2,20,-15,-31,-43,-60,-56
-60,-25,35,42,-47,5,20,-19,-28,-38,-53,-52
-56,-22,35,39,-45,6,20,-23,-25,-35,-45,-46
-54,-19,35,36,-45,7,20,-26,-26,-32,-37,-39
-51,-16,35,33,-42,10,20,-30,-31,-27,-28,-33
-50,-15,35,32,-42,10,16,-33,-29,-25,-27,-25
-54,-20,34,37,-44,7,10,-37,-33,-30,-31,-20
-47,-20,28,33,-37,4,5,-40,-35,-30,-30,-30
-44,-21,23,32,-33,1,0,-43,-35,-31,-34,-36
-43,-26,17,34,-30,-4,-7,-45,-38,-35,-35,-34
-36,-24,11,30,-23,-6,-9,-49,-44,-34,-35,-36
-33,-28,6,30,-19,-10,-5,-50,-45,-37,-40,-35
-39,-30,9,34,-24,-11,-5,-51,-46,-42,-45,-35
-45,-30,15,37,-30,-7,-5,-60,-55,-45,-48,-40
-48,-33,15,40,-31,-9,-5,-69,-64,-50,-53,-40
-51,-36,15,43,-32,-10,-5,-70,-65,-50,-55,-41
-49,-34,15,41,-32,-9,-5,-70,-65,-50,-55,-45
-46,-31,15,38,-30,-8,-5,-70,-69,-50,-55,-45
-44,-28,16,35,-30,-6,-5,-70,-70,-51,-55,-43
-36,-26,11,31,-23,-7,-4,-69,-69,-47,-55,-38
-32,-22,10,27,-21,-6,-6,-64,-64,-39,-48,-35
-30,-20,10,25,-20,-5,-3,-67,-67,-33,-40,-32
-29,-18,11,23,-20,-3,9,-51,-51,-26,-32,-27
-38,-13,25,25,-31,5,24,-19,-19,-25,-30,-25
-31,-10,21,20,-26,5,38,-15,-15,-24,-30,-30
-18,-7,11,12,-14,2,31,-14,-15,-27,-27,-30
-6,-2,4,4,-5,1,-7,-32,-28,-23,-25,-31
5,0,-5,-2,5,-2,-63,-84,-73,-35,-26,-36
4,-6,-9,1,7,-7,-82,-111,-96,-66,-29,-34
4,-12,-17,4,11,-14,-69,-108,-95,-71,-32,-37
0,-19,-19,10,9,-19,-60,-103,-94,-68,-34,-42
-11,-26,-14,19,2,-20,-52,-102,-92,-72,-38,-47
-26,-34,-8,30,-9,-21,-46,-96,-88,-68,-44,-50
-40,-46,-6,43,-17,-26,-40,-94,-91,-71,-59,-55
-46,-44,1,45,-23,-21,-32,-91,-85,-65,-60,-59
-48,-45,3,46,-25,-21,-27,-85,-84,-64,-64,-58
-52,-45,6,48,-29,-20,-21,-89,-87,-68,-68,-55
-48,-44,5,45,-26,-20,-20,-76,-74,-59,-67,-54
-51,-47,4,49,-27,-22,-20,-87,-89,-74,-75,-54
-43,-35,8,39,-25,-13,-14,-68,-68,-51,-55,-45
-38,-39,-1,38,-18,-20,-17,-82,-82,-69,-70,-56
-37,-21,16,28,-26,-2,-12,-65,-55,-38,-43,-49
-36,-31,5,33,-20,-13,-13,-68,-71,-56,-62,-70
-94,5,99,44,-97,52,48,0,5,0,-27,-53
-110,86,197,12,-154,142,156,214,256,199,82,9
100,213,113,-157,-7,163,80,384,528,690,585,320
675,380,-295,-527,484,42,-110,897,1115,1501,1326,841
879,142,-737,-510,808,-297,-327,273,417,623,627,586
338,-161,-498,-88,419,-329,-352,-977,-945,-802,-431,-29
-53,-207,-155,130,51,-180,-124,-876,-967,-841,-539,-227
-125,-209,-84,167,-20,-147,-55,-586,-664,-620,-453,-257
-113,-126,-13,120,-50,-69,-28,-263,-290,-267,-207,-149
-64,-59,5,61,-34,-26,28,-18,-41,-66,-73,-76
-53,-32,20,42,-36,-6,15,-33,-36,-55,-56,-62
-49,-26,23,37,-36,-1,23,25,14,-5,-28,-47
-56,-26,30,41,-42,1,18,3,0,-15,-35,-47
-50,-19,31,34,-40,6,21,30,26,14,-15,-35
-47,-18,29,32,-37,5,20,28,27,7,-16,-32
-44,-12,31,28,-37,9,19,37,40,17,-4,-24
-40,-11,29,25,-34,9,21,46,41,18,-3,-21
-38,-7,31,23,-34,12,19,48,39,22,0,-16
-30,-5,26,17,-28,10,21,61,52,27,5,-13
-27,-2,25,14,-26,11,19,65,58,30,8,-10
-24,0,25,11,-24,12,24,79,71,44,12,-6
-17,3,20,7,-19,12,25,86,80,48,17,-2
-8,11,19,-1,-14,15,25,95,89,57,24,6
-4,17,22,-6,-13,19,25,99,91,61,30,14
-1,24,25,-12,-13,24,25,110,102,69,37,22
5,31,25,-19,-10,28,24,128,116,83,44,29
12,37,25,-25,-7,31,19,144,127,93,50,37
24,49,25,-37,-1,37,16,159,143,102,61,48
36,61,25,-49,5,42,13,178,152,103,75,58
53,75,22,-64,15,48,8,190,146,98,85,68
71,90,19,-81,26,54,5,193,142,95,93,85
79,96,16,-88,31,56,1,202,137,92,91,92
87,100,13,-94,37,56,0,195,133,87,82,84
85,96,11,-91,37,53,0,179,128,85,76,78
78,87,8,-83,35,47,-5,167,116,69,68,70
76,81,5,-79,36,43,-5,148,101,48,61,62
68,73,5,-71,31,39,-4,133,89,38,54,56
46,51,5,-49,20,28,1,109,75,30,38,43
22,27,5,-25,8,16,4,70,58,21,17,20
3,8,4,-6,-1,6,7,32,33,4,-3,-3
-18,-8,9,13,-13,0,12,3,7,-18,-28,-27
-33,-19,14,26,-23,-2,15,-18,-2,-30,-45,-47
-40,-30,10,35,-25,-10,19,-32,-6,-42,-55,-50
-43,-33,10,38,-26,-11,20,-33,-10,-52,-63,-50
-40,-30,10,35,-25,-10,20,-29,-15,-51,-58,-50
-40,-30,10,35,-25,-10,20,-31,-20,-46,-52,-50
-38,-27,10,33,-24,-8,20,-26,-17,-44,-47,-50
-34,-25,10,30,-22,-7,19,-25,-14,-39,-41,-44
-35,-25,10,30,-22,-7,15,-25,-11,-36,-36,-39
-32,-22,10,27,-21,-6,15,-20,-8,-33,-31,-34
-27,-17,10,22,-18,-4,13,-20,-5,-28,-26,-28
-25,-14,10,19,-17,-2,9,-20,-6,-25,-21,-22
-19,-11,9,15,-14,-1,11,-20,-10,-22,-18,-22
-11,-6,5,8,-7,0,6,-20,-12,-17,-12,-26
-11,-6,5,8,-8,0,5,-22,-15,-15,-11,-25
-16,-11,5,13,-10,-2,5,-28,-18,-19,-16,-25
-19,-14,5,16,-12,-5,0,-34,-20,-22,-21,-25
-22,-17,5,19,-14,-6,0,-41,-24,-26,-25,-26
-27,-22,5,24,-16,-8,-1,-47,-31,-29,-30,-29
-30,-25,5,27,-17,-10,-5,-54,-36,-33,-35,-32
-30,-25,5,27,-17,-10,-5,-60,-41,-36,-35,-35
-30,-25,5,27,-17,-10,-5,-60,-46,-39,-35,-38
-29,-25,5,27,-17,-10,-5,-61,-49,-42,-35,-40
-32,-25,6,28,-19,-9,-5,-65,-54,-46,-35,-40
-34,-25,10,30,-22,-7,-9,-65,-55,-49,-35,-40
-39,-26,12,32,-25,-7,-10,-67,-55,-50,-34,-40
-46,-30,15,37,-31,-7,-10,-70,-60,-50,-30,-40
-48,-30,18,39,-33,-6,-10,-70,-60,-50,-30,-40
-51,-30,21,41,-36,-5,-11,-70,-59,-51,-30,-40
-54,-30,24,41,-39,-2,-9,-70,-50,-47,-30,-34
-57,-31,26,44,-42,-2,-1,-70,-44,-39,-30,-28
-53,-23,30,38,-41,3,11,-61,-34,-32,-24,-24
-31,-2,29,17,-30,13,19,-43,-29,-27,-11,-17
-14,7,21,3,-18,14,32,-20,-13,-12,-2,-13
-4,10,14,-3,-9,12,54,6,11,2,-7,-7
8,15,7,-12,0,11,47,10,-1,-1,-15,-5
12,11,-1,-11,6,5,1,-21,-11,1,-21,-5
11,4,-7,-7,9,-2,-52,-76,-47,-30,-28,-5
12,-2,-15,-5,14,-8,-65,-108,-87,-69,-34,-5
16,-9,-25,-3,21,-17,-51,-102,-84,-70,-39,-5
17,-15,-32,0,24,-23,-43,-98,-84,-69,-40,-14
-9,-22,-13,16,2,-17,-32,-97,-86,-72,-41,-26
-38,-34,5,36,-21,-14,-26,-89,-83,-67,-40,-37
-47,-43,4,44,-25,-19,-22,-91,-86,-73,-47,-46
-50,-44,6,47,-28,-19,-15,-83,-77,-62,-43,-44
-55,-51,4,53,-30,-23,-10,-84,-79,-67,-49,-46
-58,-46,12,52,-35,-16,-5,-81,-75,-64,-50,-45
-52,-44,8,48,-29,-18,-10,-73,-68,-57,-48,-44
-58,-47,12,53,-35,-17,-10,-83,-77,-68,-52,-48
-46,-37,9,41,-28,-14,-10,-60,-55,-45,-32,-45
-54,-45,8,50,-31,-18,-11,-83,-77,-71,-49,-56
-46,-31,15,39,-30,-8,-9,-42,-37,-25,-16,-45
-37,-37,0,37,-18,-19,-3,-84,-77,-74,-47,-66
-96,26,122,35,-109,74,93,48,64,39,3,-36
-99,119,218,-10,-159,168,157,216,269,234,148,52
172,269,97,-220,37,183,75,494,668,876,775,438
756,385,-371,-571,563,7,-141,960,1200,1588,1376,886
800,31,-769,-415,784,-369,-369,-153,-34,207,360,435
248,-278,-526,15,388,-402,-321,-1192,-1256,-1078,-588,-153
-72,-272,-200,173,64,-236,-180,-851,-957,-844,-525,-225
-123,-191,-68,157,-27,-129,-92,-478,-533,-505,-352,-187
-65,-60,5,63,-35,-27,1,-95,-129,-138,-113,-91
-51,-31,20,41,-35,-5,21,-16,-34,-67,-68,-57
-54,-21,33,38,-44,6,31,0,-21,-38,-38,-45
-43,-15,28,29,-35,6,31,39,18,-3,-18,-37
-47,-16,31,31,-38,7,29,25,11,-12,-24,-36
-37,-7,30,22,-33,11,31,54,44,13,-9,-25
-37,-8,30,23,-33,11,28,38,34,3,-17,-24
-32,-1,30,16,-31,14,35,58,48,23,-3,-16
-28,2,30,13,-29,15,35,59,50,21,-7,-14
-22,8,30,7,-26,19,35,76,65,37,2,-10
-19,11,30,4,-25,21,35,81,71,40,6,-7
-24,16,41,4,-33,28,35,86,76,39,11,-2
-24,21,45,1,-35,32,34,93,83,40,18,1
-23,25,47,-1,-35,36,30,101,92,46,22,5
-25,25,50,0,-38,37,30,116,106,61,28,13
-28,25,53,1,-41,39,30,124,114,68,34,19
-17,39,56,-11,-37,47,30,142,130,76,39,26
-1,50,51,-25,-26,51,30,158,145,89,48,33
12,62,50,-37,-19,56,26,176,162,102,57,37
26,76,50,-51,-12,62,25,200,181,114,69,51
36,87,50,-62,-7,68,25,220,196,133,86,73
54,103,49,-78,2,76,20,236,211,143,99,89
66,118,52,-92,7,85,20,252,217,136,111,104
68,130,62,-100,3,96,20,262,211,129,110,118
80,138,58,-109,10,98,20,254,201,123,106,127
86,136,50,-111,18,93,20,241,194,115,105,124
80,124,45,-102,17,84,20,231,182,110,100,111
78,115,37,-97,20,76,20,210,164,93,101,104
73,104,31,-88,20,67,20,169,135,72,70,87
45,71,26,-58,9,49,24,123,96,52,25,52
14,37,22,-26,-4,29,25,76,55,28,3,16
-11,9,19,1,-15,14,25,30,18,7,-18,-11
-26,-11,15,18,-21,2,25,-1,-7,-11,-33,-22
-35,-23,12,29,-23,-6,24,-21,-17,-26,-55,-30
-43,-34,8,38,-25,-13,26,-28,-30,-44,-72,-39
-40,-35,5,37,-22,-15,30,-25,-38,-53,-77,-48
-40,-35,5,37,-22,-15,30,-25,-35,-49,-78,-53
-40,-35,5,37,-22,-15,30,-23,-33,-50,-74,-48
-40,-35,5,37,-22,-15,30,-20,-30,-50,-76,-45
-39,-34,5,36,-21,-15,30,-20,-27,-50,-71,-42
-38,-29,10,33,-24,-9,27,-23,-25,-50,-69,-37
-44,-24,20,33,-31,-2,22,-26,-25,-44,-70,-34
-50,-20,30,34,-40,5,20,-25,-25,-38,-62,-31
-50,-15,35,32,-43,10,15,-25,-25,-31,-54,-28
-45,-10,35,27,-40,12,12,-25,-25,-25,-45,-25
-45,-10,35,27,-40,12,8,-26,-25,-17,-37,-22
-45,-10,35,27,-40,12,5,-31,-26,-17,-35,-20
-45,-10,35,27,-40,12,5,-36,-31,-24,-35,-20
-41,-10,31,26,-36,10,2,-39,-36,-29,-35,-20
-34,-10,25,22,-30,7,0,-44,-39,-36,-35,-20
-32,-11,20,21,-26,4,0,-49,-44,-39,-36,-20
-30,-16,14,23,-22,-1,-3,-52,-47,-42,-39,-20
-30,-22,8,26,-19,-7,-6,-57,-52,-45,-43,-20
-30,-25,5,27,-17,-10,-9,-60,-55,-48,-48,-26
-35,-30,5,32,-20,-12,-12,-63,-58,-50,-50,-33
-40,-35,5,37,-22,-15,-15,-65,-60,-52,-53,-36
-36,-32,5,33,-20,-13,-15,-69,-63,-55,-56,-39
-35,-29,6,32,-21,-11,-15,-70,-65,-55,-59,-43
-34,-30,4,32,-19,-13,-15,-66,-61,-55,-60,-45
-42,-30,13,36,-28,-8,-15,-64,-59,-55,-54,-40
-59,-30,29,45,-44,0,-14,-65,-61,-55,-49,-36
-59,-29,30,44,-44,0,-16,-60,-59,-48,-44,-34
-50,-20,30,35,-40,5,-8,-60,-61,-41,-38,-29
-40,-10,30,25,-35,10,7,-58,-58,-34,-32,-26
-30,0,30,15,-30,15,19,-29,-35,-27,-32,-22
-20,9,29,5,-25,19,36,-4,-15,-21,-36,-20
-10,11,20,-1,-15,15,44,6,-16,-16,-34,-20
5,15,10,-10,-3,12,35,10,-14,-10,-39,-20
14,14,0,-14,7,7,-9,-22,-18,-4,-40,-20
15,5,-10,-10,12,-2,-63,-77,-64,-34,-40,-20
13,-1,-15,-6,14,-8,-75,-98,-94,-66,-45,-25
4,-11,-15,4,10,-13,-65,-91,-88,-65,-45,-30
-2,-16,-15,9,7,-15,-55,-89,-87,-61,-45,-33
-13,-28,-15,21,1,-21,-45,-85,-83,-59,-44,-38
-33,-48,-15,41,-9,-31,-35,-80,-80,-55,-48,-44
-40,-55,-15,48,-12,-35,-25,-80,-80,-55,-57,-50
