I,II,III,aVR,aVL,aVF,V1,V2,V3,V4,V5,V6
-83,-45,39,64,-61,-3,15,-94,-155,-205,-210,-115
-104,-55,49,79,-76,-3,15,-95,-156,-207,-210,-119
-142,-73,69,107,-106,-1,15,-114,-160,-212,-210,-125
-121,-68,53,94,-87,-8,15,-122,-164,-215,-210,-125
-116,-73,43,94,-80,-14,15,-119,-168,-220,-210,-126
-108,-75,32,91,-70,-21,15,-120,-171,-228,-210,-130
-104,-75,29,89,-66,-22,10,-120,-174,-228,-215,-130
-99,-72,27,85,-63,-22,10,-120,-177,-224,-220,-127
-92,-69,23,80,-58,-22,9,-120,-180,-225,-219,-125
-88,-66,22,77,-54,-22,5,-120,-179,-221,-221,-121
-82,-63,19,72,-50,-22,5,-120,-175,-220,-225,-119
-87,-60,27,73,-57,-16,7,-120,-175,-220,-225,-115
-88,-60,28,74,-58,-16,11,-120,-173,-215,-223,-116
-106,-72,34,89,-70,-18,15,-118,-168,-215,-216,-120
-116,-71,45,93,-80,-12,20,-110,-173,-211,-209,-115
-102,-59,43,81,-72,-8,23,-105,-153,-211,-202,-109
-89,-57,32,73,-60,-12,28,-89,-123,-204,-197,-104
-60,-52,7,56,-33,-22,32,-63,-110,-182,-182,-99
-21,-52,-31,36,5,-41,40,-27,-85,-165,-170,-87
4,-43,-48,20,26,-46,18,7,-85,-152,-170,-82
13,-23,-36,5,25,-29,-24,-15,-85,-150,-170,-87
3,-24,-28,11,16,-26,-31,-65,-85,-149,-170,-89
1,-45,-46,23,24,-46,-30,-93,-114,-164,-170,-92
7,-52,-58,23,33,-55,-27,-111,-131,-203,-184,-95
9,-51,-60,21,35,-55,-25,-130,-157,-214,-201,-96
-27,-67,-41,47,7,-54,-23,-130,-160,-217,-216,-104
-108,-77,32,93,-70,-22,-11,-126,-161,-222,-225,-120
-127,-84,43,106,-85,-20,4,-115,-158,-224,-226,-135
-124,-86,37,105,-80,-24,16,-113,-161,-227,-226,-136
-126,-83,44,105,-84,-19,29,-102,-160,-224,-222,-132
-119,-85,35,102,-77,-25,39,-102,-152,-235,-230,-139
-122,-75,47,98,-84,-14,32,-122,-163,-224,-218,-128
-127,-86,41,106,-84,-23,39,-97,-141,-240,-235,-135
-152,-68,84,109,-118,8,25,-119,-168,-230,-221,-121
-120,-83,37,101,-78,-23,35,-76,-125,-239,-239,-128
-160,-63,97,111,-128,17,42,-115,-183,-231,-228,-140
-304,23,327,140,-315,175,200,40,-101,-128,-209,-161
-315,112,427,101,-371,269,323,224,40,8,-107,-92
369,99,-270,-234,319,-86,-68,74,268,340,391,306
1149,-223,-1372,-463,1261,-798,-601,-259,465,106,320,418
776,-370,-1146,-203,961,-757,-844,-940,-443,-623,-288,123
182,-237,-419,27,301,-327,-487,-750,-738,-671,-424,-75
15,-133,-148,59,82,-140,-33,-101,-162,-333,-295,-127
-96,-61,35,78,-65,-13,52,-26,-84,-187,-210,-109
-110,-45,65,78,-88,10,97,26,-44,-175,-194,-118
-136,-38,98,86,-117,30,102,34,-39,-167,-184,-114
-154,-40,113,97,-134,36,114,56,-24,-152,-179,-111
-144,-36,108,89,-126,36,113,63,-16,-144,-175,-109
-140,-34,105,87,-122,35,123,85,-2,-133,-165,-103
-131,-35,96,82,-113,30,140,116,21,-127,-160,-102
-120,-25,94,72,-107,34,124,107,33,-113,-152,-95
-104,-18,86,61,-95,34,127,129,71,-100,-145,-95
-96,-10,86,52,-90,38,118,130,68,-86,-135,-87
-86,-1,84,43,-85,41,116,141,93,-75,-125,-81
-77,2,78,37,-78,40,112,165,110,-62,-115,-74
-58,12,70,23,-64,40,109,180,132,-55,-105,-68
-41,21,62,10,-52,41,107,205,162,-41,-99,-58
-32,22,54,5,-43,37,103,237,196,1,-81,-37
12,62,50,-37,-19,56,101,274,241,32,-47,-18
43,93,50,-68,-4,72,99,314,281,53,-21,8
53,97,43,-75,5,70,86,332,322,86,11,35
98,132,34,-116,32,83,72,368,378,136,48,54
135,161,26,-148,54,93,59,406,437,176,84,92
163,177,14,-170,74,95,46,408,465,201,122,120
212,202,-9,-207,110,97,33,402,490,235,156,150
246,204,-42,-225,143,81,-6,383,484,240,164,175
262,202,-61,-232,161,70,-27,336,434,211,157,161
244,186,-58,-215,151,64,-19,246,359,163,137,153
169,143,-26,-156,98,58,-16,149,250,111,76,119
95,100,5,-98,45,52,-9,66,127,37,-2,51
34,49,14,-42,10,31,-4,-12,20,-44,-68,-4
-24,12,36,6,-30,24,1,-52,-52,-107,-125,-50
-60,-8,51,34,-55,21,7,-75,-100,-151,-168,-86
-83,-37,46,60,-64,4,12,-98,-127,-172,-179,-103
-110,-67,43,88,-77,-11,18,-102,-135,-191,-193,-112
-121,-81,40,101,-80,-20,24,-100,-136,-197,-212,-119
-115,-80,35,97,-75,-22,29,-97,-134,-194,-209,-125
-118,-80,37,99,-77,-21,27,-94,-135,-196,-212,-133
-117,-76,41,97,-78,-17,24,-91,-135,-207,-228,-133
-119,-75,44,97,-81,-15,25,-90,-135,-211,-231,-129
-122,-74,47,98,-84,-13,25,-95,-142,-209,-229,-131
-122,-71,51,96,-86,-10,25,-95,-153,-208,-230,-126
-123,-68,54,95,-88,-7,24,-99,-155,-204,-230,-125
-120,-65,55,92,-87,-5,20,-101,-155,-206,-231,-125
-118,-63,55,90,-86,-4,20,-100,-159,-201,-225,-120
-112,-58,55,85,-84,-1,20,-100,-160,-194,-217,-115
-129,-74,56,101,-92,-9,20,-100,-160,-187,-211,-110
-132,-80,52,106,-92,-14,20,-100,-160,-181,-204,-107
-115,-65,50,90,-82,-7,17,-100,-160,-173,-200,-101
-102,-52,50,77,-76,-1,12,-101,-160,-172,-200,-102
-85,-38,47,61,-66,4,9,-104,-160,-179,-200,-110
-90,-46,44,67,-66,-1,6,-107,-160,-182,-200,-115
-112,-65,46,88,-79,-9,1,-114,-157,-189,-200,-115
-127,-70,57,99,-92,-6,1,-120,-155,-190,-200,-115
-125,-64,61,95,-93,-1,6,-119,-151,-190,-200,-115
-121,-62,59,91,-90,-1,9,-123,-150,-190,-200,-115
-118,-58,60,88,-89,1,14,-125,-145,-190,-200,-115
-113,-53,60,83,-86,3,24,-128,-147,-190,-200,-115
-123,-64,59,93,-91,-3,28,-130,-165,-188,-199,-115
-124,-69,55,96,-89,-7,25,-124,-165,-199,-194,-115
-115,-60,55,87,-85,-2,24,-119,-160,-204,-195,-115
-110,-54,56,82,-83,1,26,-114,-159,-197,-195,-115
-101,-47,54,74,-77,3,24,-107,-155,-191,-195,-115
-98,-41,57,69,-78,8,26,-103,-153,-187,-195,-109
-83,-43,39,62,-61,-2,26,-96,-128,-177,-190,-103
-49,-45,4,47,-26,-20,24,-77,-95,-158,-184,-94
-11,-28,-17,20,3,-22,40,-64,-65,-136,-157,-72
12,-15,-26,2,19,-20,18,-65,-44,-125,-136,-59
27,-7,-33,-10,30,-20,-25,-57,-57,-125,-128,-62
13,-3,-16,-5,15,-9,-24,-71,-85,-126,-128,-57
-19,-40,-21,30,1,-30,-22,-108,-123,-159,-165,-71
-9,-70,-62,40,27,-66,-19,-119,-141,-188,-183,-96
-21,-69,-48,46,13,-59,-16,-126,-139,-183,-169,-99
-33,-75,-42,54,5,-58,-14,-121,-149,-188,-180,-103
-82,-76,6,79,-43,-35,-9,-121,-164,-198,-205,-108
-149,-80,68,114,-108,-6,0,-119,-157,-202,-210,-116
-142,-80,62,110,-102,-8,8,-120,-161,-212,-212,-123
-136,-73,63,104,-99,-4,15,-121,-161,-202,-207,-123
-131,-76,55,104,-93,-10,21,-116,-155,-208,-213,-133
-125,-64,61,94,-93,-1,9,-122,-166,-203,-206,-126
-123,-74,49,98,-86,-12,22,-104,-140,-205,-217,-135
-134,-56,78,95,-106,11,7,-127,-175,-208,-214,-132
-127,-77,50,101,-88,-13,24,-90,-131,-194,-211,-137
-156,-62,93,108,-124,16,43,-130,-184,-216,-230,-140
-284,6,289,139,-286,147,177,-8,-136,-166,-266,-207
-310,88,397,111,-354,242,321,170,-25,-84,-227,-198
299,155,-143,-227,221,6,-53,87,188,391,449,319
1035,-131,-1166,-452,1100,-648,-571,-150,556,530,742,660
742,-322,-1064,-209,903,-693,-815,-804,-261,-329,4,339
155,-231,-386,38,271,-308,-511,-730,-719,-658,-382,-20
7,-121,-128,57,68,-124,-49,-133,-172,-314,-270,-106
-72,-31,41,52,-56,5,30,-37,-88,-167,-199,-87
-113,-44,69,79,-91,12,83,22,-54,-157,-199,-103
-126,-32,93,79,-109,30,99,28,-50,-156,-195,-99
-138,-31,108,84,-123,38,94,50,-44,-141,-185,-100
-133,-29,104,81,-118,37,105,72,-19,-133,-183,-101
-127,-21,106,74,-116,42,96,66,-17,-113,-165,-99
-119,-22,96,70,-107,37,102,77,12,-102,-154,-101
-113,-14,98,63,-105,42,106,83,15,-92,-143,-93
-103,-13,90,58,-96,38,116,104,51,-79,-138,-88
-96,-6,89,51,-92,41,106,113,62,-68,-130,-80
-89,-4,85,46,-87,40,103,133,75,-57,-125,-75
-70,12,82,29,-77,47,96,149,100,-45,-113,-65
-44,36,80,4,-63,57,91,170,126,-14,-89,-53
-28,48,76,-11,-52,62,87,187,152,5,-67,-37
-33,42,75,-5,-55,58,79,220,184,21,-57,-31
-12,57,69,-22,-41,63,76,253,224,55,-35,-17
37,94,56,-66,-10,74,69,284,271,93,5,18
73,119,46,-96,13,82,64,324,319,130,34,41
128,164,36,-146,46,100,59,353,363,174,79,77
158,186,28,-172,64,107,47,375,413,225,127,115
179,199,20,-189,80,109,37,396,453,258,165,147
206,219,13,-213,96,116,14,391,460,284,194,171
207,207,-1,-207,104,103,-21,357,434,286,207,186
218,196,-22,-207,120,87,-38,303,393,269,207,200
194,183,-11,-188,102,86,-49,221,316,237,183,183
157,156,-2,-157,79,77,-51,130,199,155,128,144
96,112,16,-104,40,64,-49,43,83,64,46,73
-2,56,58,-27,-30,57,-33,-20,-13,-10,-32,7
-44,16,60,14,-52,38,-16,-63,-84,-67,-96,-43
-51,-7,44,29,-47,18,-13,-93,-133,-117,-140,-89
-64,-28,36,46,-50,4,-8,-96,-158,-146,-166,-103
-72,-42,30,57,-50,-6,-4,-95,-165,-155,-181,-112
-89,-68,21,78,-55,-23,1,-95,-165,-170,-188,-122
-129,-87,42,108,-85,-23,5,-95,-165,-171,-191,-126
-132,-81,52,106,-92,-14,10,-95,-165,-175,-190,-130
-111,-79,33,95,-72,-23,15,-95,-164,-173,-190,-125
-109,-74,35,91,-71,-20,19,-95,-168,-169,-190,-125
-105,-71,34,87,-70,-18,20,-95,-170,-171,-190,-124
-104,-68,36,85,-70,-16,20,-95,-170,-166,-187,-120
-94,-61,33,77,-63,-14,24,-95,-170,-165,-182,-121
-99,-57,43,77,-71,-7,25,-95,-170,-164,-179,-117
-112,-51,62,82,-87,5,24,-95,-170,-161,-176,-115
-101,-45,56,72,-78,6,19,-95,-170,-158,-171,-112
-94,-41,53,67,-74,6,13,-95,-170,-155,-170,-109
-94,-45,50,69,-72,2,10,-95,-170,-153,-170,-106
-91,-45,45,67,-67,0,5,-95,-170,-149,-170,-105
-89,-47,43,68,-66,-2,0,-100,-170,-153,-170,-110
-91,-52,40,72,-65,-6,0,-100,-170,-155,-170,-110
-89,-53,37,71,-63,-8,0,-101,-170,-156,-170,-110
-94,-59,34,76,-64,-12,0,-106,-170,-160,-166,-110
-87,-57,30,72,-59,-14,0,-104,-170,-160,-164,-110
-95,-64,32,79,-63,-16,0,-108,-170,-160,-165,-108
-120,-75,45,97,-82,-15,0,-110,-170,-160,-165,-104
-113,-68,45,90,-79,-11,0,-110,-175,-160,-165,-105
-106,-62,45,83,-75,-8,0,-114,-174,-160,-166,-105
-106,-60,45,82,-76,-7,0,-115,-176,-160,-170,-105
-101,-56,45,78,-72,-6,0,-115,-180,-158,-174,-104
-99,-54,44,76,-71,-5,0,-109,-180,-151,-172,-100
-101,-66,35,83,-67,-15,4,-103,-177,-146,-166,-95
-89,-63,26,76,-57,-18,8,-95,-169,-141,-163,-91
-67,-50,17,58,-42,-16,14,-91,-161,-135,-158,-86
-53,-45,8,49,-30,-18,16,-77,-141,-130,-145,-82
-40,-39,0,39,-20,-20,24,-43,-110,-120,-125,-77
-26,-33,-8,30,-9,-20,22,-9,-83,-107,-114,-68
-12,-27,-15,20,2,-21,-15,-7,-70,-105,-113,-57
1,-23,-24,11,13,-23,-38,-43,-89,-102,-119,-48
16,-14,-30,-1,23,-22,-31,-84,-125,-100,-118,-51
8,-41,-49,17,29,-45,-30,-105,-144,-126,-125,-63
5,-63,-68,29,36,-65,-49,-119,-166,-154,-150,-72
-8,-58,-51,33,21,-54,-45,-126,-181,-155,-158,-79
-42,-62,-19,52,-12,-40,-23,-122,-179,-162,-162,-86
-71,-59,12,65,-42,-23,-17,-121,-182,-163,-164,-94
-94,-75,19,84,-56,-28,-3,-113,-176,-166,-173,-107
-104,-73,31,88,-67,-21,3,-120,-186,-164,-169,-107
-117,-78,40,97,-78,-19,13,-104,-168,-165,-171,-115
-131,-73,58,102,-94,-7,9,-116,-184,-167,-170,-114
-120,-76,44,98,-82,-15,19,-95,-165,-160,-168,-114
-125,-77,49,100,-87,-14,16,-108,-179,-173,-175,-121
-112,-63,49,87,-80,-7,20,-93,-166,-158,-163,-114
-106,-78,28,91,-66,-25,25,-88,-167,-187,-191,-131
-201,-2,199,101,-200,98,76,-77,-195,-133,-173,-128
-343,69,412,137,-378,240,294,172,-16,-48,-187,-165
-50,171,222,-60,-136,196,133,120,61,249,202,124
855,-16,-871,-419,863,-444,-372,-17,482,514,630,517
1083,-360,-1443,-361,1263,-902,-794,-541,148,-154,143,363
456,-303,-759,-76,608,-531,-737,-915,-738,-699,-335,65
96,-174,-270,39,183,-222,-202,-303,-379,-411,-291,-70
-46,-90,-44,68,-1,-67,19,-23,-74,-163,-186,-83
-111,-47,64,78,-87,9,57,0,-91,-115,-148,-85
-104,-36,68,70,-86,15,91,51,-38,-96,-143,-98
-118,-23,95,70,-106,36,81,37,-55,-87,-129,-86
-116,-28,88,72,-102,30,103,78,-5,-79,-128,-93
-132,-18,115,74,-123,48,90,62,-8,-72,-118,-88
-127,-19,108,73,-117,45,97,95,18,-63,-113,-91
-113,-12,101,63,-107,44,89,101,24,-56,-107,-90
-100,-7,94,53,-97,43,89,111,33,-44,-98,-85
-83,1,85,41,-84,43,100,135,58,-35,-90,-75
-73,7,80,32,-77,43,103,150,74,-23,-81,-65
-58,15,73,21,-65,44,98,162,93,-1,-73,-55
-43,25,68,9,-56,46,92,174,115,4,-62,-45
-27,35,62,-4,-45,48,87,212,140,19,-52,-36
-16,42,58,-13,-37,50,80,233,175,50,-32,-29
-1,54,55,-27,-29,54,89,260,212,71,-7,-10
41,93,52,-67,-6,72,87,307,260,112,21,19
63,110,48,-87,7,79,79,334,310,148,54,37
83,128,45,-106,19,86,73,374,356,187,89,70
142,169,28,-156,57,98,66,412,414,231,132,106
188,191,3,-190,92,96,47,426,455,265,170,135
227,219,-8,-223,117,106,21,432,477,299,210,175
258,241,-17,-249,137,112,10,410,467,304,227,196
272,238,-34,-255,153,102,-21,363,454,296,217,189
253,215,-38,-234,145,89,-47,292,401,265,208,181
202,174,-28,-187,115,73,-44,185,278,195,175,153
136,121,-14,-128,75,53,-42,95,157,119,101,105
66,75,9,-71,28,42,-40,27,56,42,23,50
9,42,33,-26,-12,37,-28,-39,-28,-24,-40,-9
-44,-1,43,22,-43,21,-12,-68,-88,-77,-97,-50
-75,-33,42,54,-58,5,-3,-79,-118,-111,-129,-75
-81,-46,35,63,-58,-5,8,-93,-140,-128,-155,-94
-85,-53,32,69,-58,-10,15,-96,-147,-133,-169,-95
-84,-57,27,71,-55,-14,15,-94,-144,-136,-167,-95
-81,-59,22,70,-52,-18,15,-91,-150,-145,-174,-103
-83,-63,20,73,-51,-22,15,-90,-150,-147,-174,-109
-72,-71,1,72,-36,-35,15,-89,-149,-144,-171,-107
-82,-69,13,76,-48,-28,12,-85,-145,-141,-166,-102
-105,-66,39,85,-71,-13,9,-85,-145,-138,-163,-99
-97,-63,33,79,-64,-15,10,-85,-145,-136,-160,-96
-96,-60,36,78,-66,-12,10,-85,-145,-134,-155,-91
-94,-59,35,76,-64,-11,10,-85,-145,-130,-153,-90
-90,-55,34,72,-61,-11,9,-89,-142,-125,-148,-90
-88,-53,36,70,-62,-8,6,-91,-139,-123,-145,-90
-68,-50,18,58,-43,-15,3,-90,-136,-118,-142,-90
-83,-47,36,64,-59,-5,0,-90,-134,-115,-137,-90
-107,-44,63,75,-84,9,-3,-91,-129,-119,-134,-90
-106,-52,53,79,-79,0,-5,-95,-135,-120,-130,-87
-109,-61,48,85,-78,-7,-5,-95,-147,-122,-130,-84
-100,-59,41,79,-71,-9,-4,-94,-143,-126,-129,-81
-94,-61,34,77,-64,-13,-6,-100,-140,-125,-125,-78
-88,-59,28,73,-58,-15,-4,-108,-138,-125,-125,-75
-82,-60,21,71,-52,-19,-6,-114,-133,-125,-127,-76
-77,-59,17,68,-47,-21,-2,-119,-142,-125,-132,-80
-58,-49,9,53,-33,-20,14,-120,-150,-125,-135,-80
-84,-63,22,73,-53,-20,12,-120,-152,-125,-135,-80
-113,-72,40,92,-76,-16,5,-120,-155,-125,-135,-80
-109,-69,40,89,-75,-14,4,-120,-158,-125,-135,-76
-110,-71,40,91,-75,-15,-4,-119,-161,-125,-135,-75
-108,-70,38,88,-73,-15,-4,-113,-156,-125,-135,-74
-104,-70,34,87,-69,-18,0,-107,-152,-125,-133,-71
-98,-63,36,80,-67,-13,0,-103,-147,-124,-127,-68
-85,-54,32,69,-58,-11,4,-95,-143,-115,-123,-74
-74,-45,28,60,-51,-8,10,-92,-136,-109,-119,-79
-72,-37,35,54,-53,-1,15,-79,-119,-99,-113,-66
-27,-29,-2,29,-12,-16,22,-51,-90,-94,-110,-55
23,-22,-45,0,34,-34,23,-42,-61,-79,-92,-47
26,-16,-42,-5,34,-29,-2,-18,-62,-53,-72,-48
40,-8,-48,-15,44,-28,-34,-11,-67,-61,-76,-51
49,1,-48,-25,49,-23,-34,-60,-78,-60,-78,-50
53,0,-53,-26,53,-26,-37,-96,-97,-76,-81,-50
32,-36,-69,2,51,-52,-53,-117,-123,-120,-103,-50
9,-50,-60,21,35,-55,-46,-134,-148,-119,-104,-50
6,-45,-51,20,28,-48,-33,-133,-150,-120,-108,-60
-52,-65,-13,59,-20,-39,-23,-135,-159,-129,-129,-75
-93,-80,13,86,-53,-33,-8,-124,-150,-129,-143,-93
-101,-76,25,88,-63,-25,-7,-132,-160,-133,-141,-96
-113,-85,29,99,-71,-28,2,-118,-149,-152,-147,-98
-144,-85,59,114,-101,-12,4,-126,-160,-154,-152,-95
-148,-77,71,112,-109,-3,12,-118,-153,-135,-148,-89
-132,-78,54,105,-93,-12,17,-114,-145,-145,-164,-95
-140,-56,84,98,-112,14,11,-125,-151,-117,-142,-77
-104,-75,29,89,-66,-23,21,-89,-113,-139,-172,-97
-165,-16,149,90,-157,67,44,-117,-169,-88,-129,-90
-317,69,386,123,-352,228,259,131,-9,-7,-125,-134
-171,185,356,-7,-264,270,220,177,70,196,116,48
656,57,-599,-356,627,-271,-251,-22,356,436,546,419
1174,-359,-1532,-407,1353,-945,-727,-466,266,-137,148,308
657,-355,-1012,-151,836,-684,-830,-982,-649,-705,-347,49
156,-209,-364,27,260,-286,-325,-484,-514,-487,-308,-63
-23,-125,-102,74,40,-113,8,-23,-63,-184,-189,-85
-86,-41,46,63,-66,2,48,5,-56,-92,-118,-67
-95,-40,55,67,-75,7,107,66,8,-88,-116,-81
-114,-20,94,67,-104,37,94,51,-13,-65,-104,-71
-116,-36,79,76,-97,21,109,84,17,-60,-106,-76
-124,-29,94,76,-109,32,102,81,17,-53,-101,-68
-106,-22,84,64,-95,31,100,97,26,-44,-96,-63
-94,-15,79,54,-86,32,99,112,48,-41,-89,-60
-77,2,79,37,-78,40,93,120,71,-28,-76,-54
-67,0,68,33,-68,34,93,134,83,-8,-68,-51
-58,19,76,19,-67,47,88,157,93,9,-57,-45
-49,33,81,8,-65,57,95,173,119,17,-47,-39
-41,37,78,2,-60,57,95,173,135,29,-34,-32
-40,33,73,3,-57,53,95,186,158,43,-23,-26
-29,41,70,-6,-50,55,95,211,188,59,-8,-20
7,71,64,-39,-29,67,95,245,234,86,15,-3
27,85,58,-56,-16,71,94,272,268,112,42,21
55,106,51,-81,2,78,86,306,315,137,62,44
84,129,46,-107,19,88,75,349,367,177,93,68
121,154,32,-138,44,93,66,383,417,220,138,95
190,192,2,-191,94,97,49,400,469,263,179,137
248,216,-31,-232,139,92,27,396,499,289,221,170
274,229,-44,-251,159,92,8,390,519,291,249,192
280,226,-54,-252,167,86,-17,364,503,290,251,200
268,214,-54,-241,161,80,-37,295,452,277,240,202
236,195,-40,-215,138,77,-59,205,355,231,204,186
172,148,-25,-160,98,61,-65,101,225,165,141,125
100,100,-1,-100,50,49,-50,20,105,91,70,71
56,60,5,-58,25,32,-37,-45,13,19,1,31
-8,26,34,-9,-21,30,-18,-93,-46,-31,-48,-11
-71,-10,61,41,-66,25,-9,-109,-90,-77,-87,-48
-84,-39,45,61,-64,3,-5,-118,-118,-109,-109,-68
-83,-48,35,65,-59,-6,0,-121,-132,-110,-114,-77
-81,-51,30,66,-56,-11,3,-120,-136,-114,-116,-82
-73,-44,29,58,-51,-7,9,-120,-135,-117,-114,-78
-81,-48,33,64,-56,-7,11,-115,-132,-119,-118,-84
-104,-64,40,84,-72,-12,9,-115,-130,-126,-126,-91
-100,-60,40,80,-70,-10,11,-115,-130,-126,-124,-88
-91,-51,40,71,-65,-6,9,-115,-125,-125,-121,-84
-87,-47,40,67,-64,-3,12,-115,-125,-125,-119,-81
-77,-38,40,57,-58,1,25,-115,-124,-120,-115,-76
-78,-38,40,58,-59,1,23,-115,-120,-120,-116,-75
-87,-47,40,67,-63,-3,19,-115,-120,-119,-117,-75
-91,-42,49,67,-70,3,16,-119,-122,-114,-114,-75
-89,-39,50,64,-70,5,11,-120,-128,-116,-116,-75
-86,-36,50,61,-68,7,9,-120,-132,-112,-115,-75
-80,-31,49,56,-65,9,4,-120,-135,-110,-116,-75
-82,-29,52,55,-67,12,-1,-120,-140,-110,-114,-72
-92,-23,69,58,-80,23,-5,-119,-140,-106,-110,-69
-102,-35,67,68,-84,16,-10,-114,-141,-104,-110,-66
-107,-47,61,77,-84,7,-15,-109,-145,-106,-107,-64
-102,-44,58,73,-80,7,-11,-104,-144,-104,-105,-59
-97,-45,52,71,-74,3,-10,-100,-147,-107,-105,-62
-93,-45,49,69,-70,1,-10,-94,-150,-114,-109,-66
-90,-45,45,67,-67,0,-5,-102,-150,-115,-110,-65
-88,-45,42,66,-65,-1,-5,-115,-154,-114,-110,-65
-84,-45,40,65,-62,-2,-4,-115,-155,-116,-110,-65
-82,-45,36,63,-59,-4,0,-115,-154,-114,-111,-65
-79,-44,35,61,-56,-5,0,-115,-151,-117,-115,-64
-84,-46,39,65,-61,-3,0,-115,-146,-122,-114,-59
-90,-43,46,66,-68,2,0,-113,-144,-118,-118,-60
-86,-36,50,61,-68,6,0,-106,-139,-112,-120,-57
-77,-28,50,53,-63,11,3,-96,-137,-106,-121,-54
-71,-21,51,46,-61,15,9,-90,-129,-101,-109,-56
-52,-15,37,33,-44,11,12,-69,-104,-94,-87,-50
-9,-7,2,8,-5,-2,18,-36,-76,-81,-75,-40
21,-3,-24,-9,22,-13,18,-35,-62,-73,-65,-30
41,11,-30,-26,35,-9,-20,-39,-59,-75,-62,-25
34,13,-21,-23,27,-4,-46,-46,-60,-82,-70,-23
9,-1,-10,-4,9,-5,-44,-67,-80,-82,-70,-18
22,-27,-49,2,36,-38,-46,-91,-116,-99,-80,-31
-5,-55,-50,30,23,-52,-45,-118,-149,-115,-89,-42
-31,-56,-25,44,-3,-40,-37,-118,-151,-116,-91,-42
-35,-51,-15,43,-10,-33,-32,-122,-157,-131,-107,-60
-87,-50,37,68,-62,-6,-20,-119,-154,-129,-111,-80
-101,-46,55,73,-78,5,-6,-119,-154,-131,-116,-87
-94,-44,50,69,-72,3,0,-123,-159,-128,-117,-86
-95,-58,38,76,-66,-10,13,-110,-148,-131,-122,-93
-104,-52,51,78,-77,0,11,-118,-166,-131,-112,-92
-110,-51,59,80,-84,4,24,-90,-144,-134,-117,-97
-111,-37,74,74,-93,18,1,-112,-179,-139,-115,-87
-75,-37,38,56,-56,0,9,-71,-141,-132,-111,-75
-105,-23,82,64,-94,29,31,-99,-188,-154,-128,-83
-253,34,286,109,-270,160,152,-4,-136,-95,-150,-145
-312,113,425,99,-369,268,320,216,18,-4,-117,-155
229,169,-59,-199,144,55,5,123,189,401,454,298
1075,-72,-1147,-501,1111,-609,-527,-105,585,525,732,637
876,-279,-1155,-298,1016,-717,-837,-786,-190,-266,82,346
213,-208,-422,-3,318,-315,-574,-812,-768,-598,-294,38
29,-112,-141,42,86,-126,-86,-143,-200,-279,-196,-59
-77,-42,34,59,-55,-4,28,-11,-67,-134,-109,-66
-116,-21,95,68,-105,37,80,38,-32,-87,-91,-64
-95,-5,90,50,-92,42,101,51,-18,-69,-91,-67
-90,1,91,44,-90,46,99,75,-20,-61,-78,-63
-98,7,105,46,-102,56,113,99,6,-49,-78,-67
-111,1,113,55,-112,57,105,86,6,-41,-72,-60
-117,-5,112,61,-114,53,107,125,50,-32,-72,-55
-112,12,124,50,-119,68,96,121,42,-26,-66,-50
-94,12,106,41,-100,59,96,126,69,-19,-66,-44
-62,36,98,13,-80,67,89,141,83,-13,-59,-38
-29,66,95,-19,-62,80,85,165,96,-13,-38,-34
-49,43,91,3,-70,67,94,181,119,6,-22,-25
-31,58,89,-13,-60,73,95,205,151,42,-19,-16
16,102,86,-60,-35,93,95,230,179,52,-7,-2
19,100,81,-60,-31,90,91,248,199,75,30,11
19,99,79,-59,-30,89,90,279,240,108,53,25
50,123,74,-87,-12,98,90,315,285,140,83,49
83,155,72,-119,5,113,81,352,337,182,124,82
106,176,71,-141,17,123,68,388,394,226,163,120
130,208,79,-169,25,143,57,401,436,273,204,152
164,241,77,-203,43,159,49,421,485,326,259,196
228,264,35,-246,96,149,15,429,503,350,311,231
268,289,21,-279,123,155,-17,397,488,331,319,254
265,276,11,-271,127,143,-40,345,468,326,323,261
252,242,-9,-247,130,116,-56,260,386,301,293,233
193,210,17,-202,88,113,-47,168,270,233,225,194
95,146,50,-121,22,98,-41,97,157,147,152,131
30,87,57,-59,-14,72,-35,25,50,62,73,60
-4,49,53,-23,-29,51,-26,-25,-20,-4,4,5
-41,16,58,12,-50,37,-13,-50,-71,-71,-55,-34
-78,-12,67,45,-72,27,-4,-66,-100,-99,-93,-59
-97,-33,63,65,-80,15,-2,-66,-119,-112,-110,-73
-82,-27,55,54,-69,14,2,-70,-128,-127,-115,-78
-86,-37,49,61,-68,6,5,-73,-128,-126,-115,-86
-85,-43,42,64,-64,0,10,-75,-132,-131,-114,-86
-69,-34,36,51,-52,1,12,-73,-135,-133,-119,-82
-118,-74,44,95,-80,-14,19,-69,-134,-138,-137,-80
-124,-69,56,96,-90,-6,24,-71,-130,-140,-138,-76
-96,-37,59,66,-77,11,20,-66,-130,-140,-134,-75
-99,-38,61,68,-80,11,16,-65,-130,-140,-136,-79
-86,-28,58,57,-72,15,14,-66,-130,-140,-135,-80
-95,-26,69,61,-82,21,9,-64,-130,-140,-135,-80
-92,-16,75,54,-83,29,6,-72,-130,-141,-135,-79
-89,-21,68,55,-78,23,2,-81,-130,-132,-128,-73
-105,-39,65,72,-85,13,0,-80,-130,-117,-117,-68
-91,-31,59,61,-75,14,0,-80,-130,-122,-115,-62
-79,-22,57,50,-67,17,0,-84,-130,-129,-115,-56
-64,-15,49,39,-56,17,0,-85,-132,-127,-111,-51
-64,-5,58,35,-60,26,0,-85,-135,-124,-110,-55
-91,-17,74,53,-82,28,-5,-85,-138,-121,-110,-64
-100,-34,66,67,-82,16,-5,-86,-140,-118,-110,-65
-94,-36,58,65,-76,11,-5,-83,-144,-115,-110,-65
-96,-39,58,67,-77,9,-5,-80,-145,-115,-110,-65
-102,-42,60,72,-81,9,-5,-79,-142,-115,-110,-64
-105,-45,60,75,-82,7,-7,-81,-139,-115,-110,-66
-105,-44,60,74,-82,8,-11,-79,-136,-115,-110,-70
-96,-37,59,67,-78,11,-9,-80,-133,-115,-110,-69
-93,-31,61,62,-77,15,-6,-95,-130,-115,-110,-73
-70,-24,46,46,-57,11,-1,-95,-129,-110,-110,-75
-66,-18,48,42,-57,15,1,-83,-121,-100,-110,-76
-90,-10,79,50,-84,34,5,-77,-113,-90,-110,-68
-54,-9,46,31,-50,18,10,-63,-99,-80,-93,-47
-17,-19,-1,18,-8,-10,9,-43,-78,-67,-65,-32
4,-3,-7,0,6,-4,12,-40,-75,-59,-38,-20
45,32,-14,-38,29,9,-15,-36,-74,-61,-29,-13
46,25,-20,-35,33,2,-43,-35,-75,-59,-29,-5
19,7,-12,-13,15,-2,-38,-67,-83,-63,-35,-2
22,-8,-30,-7,26,-18,-35,-89,-109,-92,-61,-14
26,-25,-51,0,39,-38,-33,-101,-127,-97,-58,-29
35,-7,-42,-14,38,-24,-26,-104,-112,-87,-54,-38
1,-8,-9,4,5,-8,-26,-107,-142,-102,-79,-43
-87,-48,39,67,-62,-5,-18,-105,-149,-115,-91,-62
-116,-51,66,84,-91,8,-15,-114,-152,-116,-91,-67
-104,-46,58,75,-80,5,-8,-107,-149,-107,-87,-63
-106,-48,59,77,-82,5,-1,-104,-146,-112,-95,-73
-102,-37,65,70,-84,14,-1,-102,-147,-99,-84,-66
-95,-46,49,71,-72,1,12,-85,-129,-112,-95,-75
-116,-35,81,75,-98,23,-2,-104,-153,-107,-74,-74
-103,-58,46,80,-74,-6,24,-58,-104,-109,-78,-78
-143,-11,132,77,-138,60,34,-113,-173,-119,-104,-92
-283,50,334,116,-309,192,206,47,-91,-80,-156,-172
-228,156,384,35,-306,270,256,146,-30,50,2,-61
458,168,-291,-313,374,-61,-177,36,274,615,743,499
1060,-179,-1239,-441,1150,-709,-651,-214,519,545,797,692
689,-282,-971,-203,830,-626,-827,-833,-412,-383,22,327
159,-183,-342,12,250,-262,-412,-568,-594,-521,-243,28
-5,-93,-87,49,41,-90,-25,-46,-88,-167,-116,-63
-63,0,63,32,-63,31,24,-26,-77,-71,-47,-58
-99,-24,75,61,-86,25,91,52,-9,-42,-54,-69
-109,-9,99,59,-104,45,81,39,-19,-35,-49,-69
-110,-11,99,60,-104,43,94,54,2,-26,-43,-65
-127,-11,116,69,-122,52,96,65,17,-18,-43,-62
-117,-6,111,61,-114,52,93,70,24,-11,-35,-58
-107,-3,103,54,-105,50,102,90,44,-2,-33,-55
-97,7,104,45,-101,55,98,102,45,4,-25,-50
-86,8,94,39,-90,50,102,114,66,13,-20,-48
-76,18,94,28,-85,56,99,123,72,21,-15,-41
-68,19,87,24,-78,53,101,146,95,31,2,-36
-52,34,85,8,-69,59,98,164,117,63,23,-31
-41,41,82,0,-62,61,94,195,154,88,43,-18
-22,54,77,-16,-50,65,92,218,187,113,68,3
-9,66,75,-29,-42,70,89,241,217,142,76,16
6,81,75,-44,-35,78,86,273,256,159,94,34
47,121,74,-85,-14,98,85,311,308,206,147,67
53,140,87,-97,-17,114,78,349,359,248,201,98
101,186,85,-144,8,135,71,386,411,302,246,136
152,218,66,-186,43,142,58,408,460,354,307,179
173,234,61,-204,56,147,35,405,488,379,345,212
209,257,48,-234,80,153,-1,395,513,411,374,242
225,250,24,-238,100,137,-31,370,493,407,402,252
255,260,5,-258,125,133,-41,312,444,391,386,242
240,246,6,-243,116,126,-60,225,360,351,348,233
151,183,32,-167,59,107,-57,131,228,255,279,190
73,120,48,-97,12,84,-41,58,115,157,190,116
24,70,46,-48,-11,58,-33,-3,24,78,110,47
-17,26,43,-5,-30,34,-23,-46,-43,18,44,-1
-37,4,40,17,-39,22,-16,-68,-88,-32,-3,-37
-44,-7,37,25,-40,15,-7,-81,-111,-62,-24,-53
-73,-38,35,55,-54,-1,-5,-80,-109,-66,-33,-56
-79,-47,32,62,-55,-7,-5,-82,-110,-64,-46,-72
-75,-45,30,60,-52,-7,-1,-86,-110,-66,-54,-82
-85,-55,30,70,-57,-12,0,-84,-122,-86,-55,-85
-82,-55,27,68,-54,-14,0,-82,-126,-92,-55,-85
-79,-55,24,67,-51,-16,4,-79,-124,-85,-55,-85
-81,-55,26,68,-53,-14,8,-76,-122,-85,-55,-85
-86,-55,31,71,-58,-12,12,-74,-119,-80,-55,-85
-95,-54,41,74,-67,-7,15,-69,-120,-80,-55,-82
-109,-48,61,78,-85,7,20,-72,-115,-75,-55,-76
-109,-43,67,76,-88,12,18,-74,-115,-70,-55,-72
-101,-37,64,69,-82,13,11,-75,-115,-66,-52,-68
-97,-31,66,64,-81,17,6,-84,-115,-61,-46,-63
-91,-26,64,58,-77,19,1,-87,-115,-56,-42,-58
-94,-28,66,61,-80,19,-5,-89,-117,-57,-38,-55
-103,-32,70,67,-87,19,-9,-93,-125,-65,-32,-55
-109,-34,75,71,-91,20,-6,-94,-129,-70,-30,-55
-110,-39,71,74,-90,16,-11,-98,-126,-70,-30,-55
-101,-39,62,69,-81,11,-24,-100,-123,-70,-30,-55
-91,-34,56,62,-73,11,-27,-100,-120,-70,-30,-51
-78,-30,48,54,-63,8,-24,-100,-118,-70,-30,-50
-68,-28,40,48,-54,6,-19,-100,-113,-70,-30,-50
-58,-23,35,40,-46,6,-18,-100,-124,-70,-34,-50
-43,-20,23,31,-33,2,-11,-95,-131,-70,-35,-50
-65,-28,37,47,-51,4,-11,-94,-130,-70,-35,-49
-91,-31,60,60,-75,15,-24,-89,-125,-70,-35,-42
-90,-30,60,60,-75,15,-23,-95,-126,-70,-35,-37
-90,-30,60,60,-75,15,-15,-106,-139,-62,-34,-32
-82,-25,57,53,-69,15,-12,-89,-120,-54,-19,-26
-41,-20,21,30,-31,1,-4,-41,-76,-38,2,-22
12,-17,-29,3,21,-23,0,-11,-51,-19,21,-13
22,-8,-30,-6,26,-19,-16,-24,-50,15,44,6
23,16,-7,-19,14,4,-38,-40,-54,31,48,18
21,23,2,-22,9,12,-55,-63,-75,-2,34,10
41,15,-27,-28,34,-6,-68,-84,-102,-37,19,1
63,7,-56,-35,59,-24,-64,-102,-129,-56,8,-7
38,-8,-46,-14,42,-27,-54,-105,-135,-54,-4,-17
-6,-15,-10,11,2,-12,-50,-107,-137,-57,-15,-26
-73,-44,29,58,-50,-8,-23,-103,-133,-63,-26,-52
-102,-61,41,81,-71,-10,-6,-107,-136,-68,-42,-68
-91,-49,41,70,-66,-4,-5,-105,-135,-61,-36,-62
-88,-55,33,71,-60,-11,2,-97,-126,-65,-45,-69
-83,-43,41,63,-62,0,-3,-102,-137,-56,-35,-61
-94,-59,35,76,-65,-12,11,-78,-111,-62,-45,-69
-108,-40,69,74,-89,14,-2,-104,-142,-66,-36,-64
-89,-61,28,75,-59,-16,20,-57,-95,-58,-34,-75
-118,-36,82,77,-100,23,19,-109,-153,-85,-54,-84
-236,67,303,85,-270,185,156,15,-103,-22,-64,-109
-277,158,435,59,-356,296,267,150,-16,71,-12,-84
263,201,-62,-232,162,69,-84,28,173,518,606,364
991,-173,-1164,-409,1078,-668,-552,-113,569,599,837,649
821,-362,-1183,-229,1002,-772,-840,-719,-204,-258,161,384
260,-209,-469,-25,365,-339,-511,-654,-641,-536,-177,95
37,-118,-156,41,97,-136,-42,-74,-110,-167,-88,-6
-31,-3,29,17,-30,13,20,-9,-45,-31,-22,-6
-71,3,74,33,-73,39,77,49,-7,-8,-21,-38
-98,0,98,48,-98,49,90,56,1,3,-13,-42
-107,-3,104,55,-105,50,97,61,3,9,-2,-36
-115,-5,110,60,-112,52,103,63,24,16,0,-38
-105,7,111,49,-108,59,98,78,26,21,9,-30
-76,8,84,33,-80,46,110,110,66,36,10,-32
-65,16,82,25,-74,48,100,97,49,40,16,-27
-81,14,95,34,-89,54,102,125,79,53,31,-22
-83,19,102,31,-93,60,99,139,101,77,47,-16
-64,21,85,22,-75,52,98,153,114,82,43,-11
-50,30,79,10,-64,54,95,172,137,98,50,-4
-50,25,75,12,-63,50,95,187,153,114,60,-1
-30,45,75,-8,-52,60,95,209,191,137,82,11
2,76,75,-39,-37,75,99,241,231,179,106,25
15,85,70,-50,-28,77,95,274,269,204,125,41
32,102,71,-67,-20,86,87,306,318,240,164,66
71,141,69,-106,1,105,81,345,369,294,213,100
109,170,61,-140,23,115,71,376,414,341,257,138
138,192,54,-165,42,123,68,396,462,378,295,172
184,232,48,-208,68,140,42,403,512,424,350,217
206,243,37,-224,84,140,13,393,525,450,388,247
225,245,20,-236,103,132,-9,373,507,455,407,271
227,239,12,-233,107,125,-38,325,476,449,416,282
215,223,8,-219,104,115,-37,253,395,400,386,255
178,178,0,-178,88,89,-28,156,270,315,308,204
109,115,6,-112,51,60,-24,67,151,212,215,133
50,69,19,-60,15,44,-15,17,53,123,134,67
-6,24,30,-9,-18,26,-10,-19,-17,53,65,19
-34,-2,31,18,-33,14,-5,-50,-59,10,21,-12
-46,-18,28,32,-37,5,-2,-56,-80,-12,-1,-30
-59,-33,26,45,-42,-3,1,-54,-84,-31,-12,-42
-85,-64,22,74,-53,-21,6,-66,-97,-49,-34,-56
-100,-79,21,89,-60,-28,9,-71,-107,-56,-46,-61
-89,-73,17,81,-52,-28,13,-70,-105,-55,-45,-60
-92,-77,15,84,-53,-31,19,-70,-103,-55,-40,-61
-83,-74,9,78,-46,-32,24,-70,-99,-55,-38,-54
-85,-76,9,80,-46,-33,29,-70,-101,-67,-50,-69
-73,-71,2,71,-37,-34,35,-70,-96,-70,-50,-70
-45,-71,-26,58,-9,-48,39,-70,-95,-64,-50,-56
-90,-92,-2,91,-44,-47,33,-70,-95,-62,-51,-60
-100,-89,11,94,-55,-39,26,-70,-90,-57,-50,-60
-72,-76,-5,74,-33,-40,19,-70,-91,-54,-49,-60
-75,-70,4,72,-39,-33,11,-73,-89,-51,-44,-60
-84,-65,19,74,-51,-22,4,-76,-85,-48,-41,-60
-102,-61,41,81,-71,-10,2,-75,-85,-46,-38,-58
-94,-56,38,75,-66,-9,6,-79,-85,-42,-33,-54
-85,-52,33,68,-59,-9,9,-80,-85,-40,-30,-56
-79,-48,32,64,-56,-8,13,-80,-85,-42,-26,-51
-86,-60,26,73,-56,-17,15,-84,-89,-46,-25,-50
-96,-71,24,83,-60,-23,11,-87,-95,-45,-25,-50
-89,-69,19,79,-54,-25,8,-91,-95,-45,-21,-50
-90,-70,20,80,-55,-25,5,-95,-95,-45,-20,-50
-90,-70,20,80,-55,-25,3,-93,-107,-45,-21,-50
-90,-70,19,80,-54,-25,-1,-89,-111,-50,-30,-50
-87,-66,21,77,-54,-22,2,-90,-109,-50,-32,-50
-80,-65,15,72,-47,-25,9,-90,-107,-51,-27,-48
-74,-63,11,68,-43,-25,14,-90,-104,-55,-25,-41
-61,-60,2,60,-32,-29,19,-90,-106,-56,-20,-37
-65,-59,6,62,-35,-27,25,-80,-95,-49,-17,-31
-71,-52,18,61,-44,-17,30,-69,-84,-23,-13,-25
-32,-46,-14,39,-8,-30,23,-51,-68,-3,-3,-21
-2,-39,-37,21,18,-38,13,-2,-30,9,17,-8
15,-32,-48,8,32,-39,0,29,-7,27,40,9
40,-26,-67,-6,54,-47,-27,8,-17,26,34,27
40,-24,-64,-8,53,-44,-47,-37,-50,15,21,29
38,-28,-66,-4,52,-47,-44,-61,-70,-1,10,17
20,-44,-64,13,42,-54,-38,-74,-90,-30,0,10
12,-55,-67,22,40,-60,-30,-82,-103,-45,-10,0
18,-40,-58,11,39,-49,-25,-85,-108,-45,-21,-11
-36,-55,-19,46,-8,-37,-17,-74,-102,-49,-28,-37
-103,-76,27,89,-65,-24,-11,-74,-107,-59,-43,-51
-100,-67,33,83,-66,-17,-5,-68,-105,-51,-38,-49
-99,-74,25,87,-62,-25,5,-60,-102,-58,-44,-58
-107,-64,43,85,-75,-10,5,-66,-118,-52,-35,-54
-100,-77,23,88,-62,-26,21,-37,-99,-56,-39,-64
-112,-63,49,87,-80,-7,6,-64,-135,-59,-32,-58
-63,-73,-10,68,-27,-41,25,-12,-93,-55,-36,-73
-88,-44,43,66,-65,0,15,-63,-152,-73,-58,-74
-232,37,269,97,-251,153,156,33,-79,-20,-81,-111
-285,118,403,84,-344,260,271,175,18,74,-26,-90
264,170,-94,-217,179,38,-79,52,190,521,583,375
1008,-198,-1206,-404,1107,-702,-551,-107,562,567,797,652
808,-420,-1227,-194,1018,-823,-839,-712,-210,-290,122,385
264,-242,-506,-11,385,-374,-501,-640,-624,-538,-198,101
39,-134,-173,48,106,-153,-38,-53,-92,-160,-100,-10
-62,-62,0,61,-31,-30,34,0,-27,-30,-38,-13
-84,-47,37,65,-60,-5,89,61,13,-4,-28,-30
-104,-35,68,69,-86,16,85,71,28,11,-24,-36
-105,-28,77,66,-91,24,97,85,39,19,-16,-34
-107,-24,83,65,-95,29,103,97,54,31,-15,-37
-102,-14,89,57,-95,37,98,88,44,37,-8,-33
-93,-12,82,52,-87,35,110,110,72,44,-5,-37
-92,-4,88,48,-90,42,100,117,67,46,-6,-29
-87,-4,83,45,-85,39,102,142,94,68,1,-21
-86,0,86,42,-86,42,98,148,108,82,30,-12
-77,3,80,37,-79,41,101,163,130,94,47,-4
-73,4,78,34,-76,41,100,184,156,116,44,4
-65,9,74,27,-70,42,100,205,176,123,48,12
-48,23,70,12,-59,47,97,231,210,152,74,26
-30,37,68,-4,-49,52,94,258,244,177,94,47
-2,58,61,-28,-32,59,95,292,284,202,119,66
42,97,54,-70,-6,75,90,328,329,241,154,87
84,133,48,-109,18,90,91,365,381,274,188,112
106,147,41,-127,33,93,89,395,431,322,234,146
150,185,36,-168,57,111,81,421,479,371,283,187
209,232,23,-221,93,127,61,437,527,414,327,223
241,247,7,-244,117,127,29,436,533,445,368,261
239,241,2,-240,118,121,7,426,517,449,377,284
233,228,-5,-230,118,111,-15,382,507,440,364,280
228,218,-9,-223,118,104,-39,288,427,392,342,265
174,169,-5,-171,89,82,-46,185,295,307,276,220
100,102,2,-101,49,52,-39,105,182,214,190,146
50,57,7,-54,21,31,-34,46,78,126,117,83
11,25,14,-18,-2,19,-25,5,11,69,57,33
-41,-15,26,28,-34,5,-15,-29,-35,16,5,-7
-72,-46,26,59,-49,-10,-5,-41,-67,-5,-32,-21
-64,-45,19,54,-41,-12,4,-40,-77,-8,-46,-31
-75,-58,16,66,-45,-21,6,-40,-81,-17,-45,-44
-71,-60,11,65,-41,-24,9,-40,-79,-22,-45,-49
-69,-62,7,65,-38,-27,11,-40,-81,-37,-45,-52
-89,-87,2,88,-45,-43,15,-41,-79,-42,-46,-54
-87,-88,0,88,-43,-44,14,-53,-87,-50,-58,-58
-80,-80,0,80,-40,-40,10,-56,-101,-51,-61,-60
-75,-76,0,75,-37,-38,10,-55,-100,-49,-60,-60
-70,-70,0,70,-35,-34,10,-56,-100,-51,-60,-60
-65,-66,-1,65,-31,-33,10,-55,-100,-50,-60,-60
-76,-63,13,69,-44,-25,10,-55,-100,-50,-60,-60
-84,-59,25,71,-54,-16,14,-55,-98,-45,-55,-55
-84,-57,27,70,-55,-14,15,-55,-95,-40,-50,-49
-82,-52,30,67,-56,-10,15,-55,-95,-35,-46,-44
-80,-50,30,65,-55,-10,20,-56,-95,-32,-41,-38
-79,-50,30,65,-55,-10,20,-54,-95,-25,-37,-32
-72,-46,25,59,-48,-11,19,-60,-95,-29,-32,-30
-69,-45,23,57,-45,-11,15,-67,-100,-38,-30,-30
-61,-43,18,52,-39,-12,11,-65,-100,-34,-30,-30
-74,-56,18,65,-46,-19,8,-65,-100,-35,-30,-30
-60,-53,7,56,-33,-23,3,-62,-100,-35,-30,-30
-66,-76,-10,71,-28,-43,0,-59,-100,-35,-30,-30
-75,-80,-5,78,-35,-43,3,-62,-98,-36,-25,-38
-47,-43,4,45,-25,-19,9,-70,-92,-37,-21,-43
-53,-46,7,49,-29,-19,14,-67,-89,-32,-19,-36
-42,-44,-2,43,-20,-22,17,-62,-83,-25,-14,-31
-48,-39,10,43,-29,-14,23,-58,-81,-21,-12,-25
-40,-34,6,37,-23,-14,24,-30,-58,-7,-5,-15
11,-31,-42,10,27,-36,9,3,-28,10,10,-2
40,-24,-65,-8,53,-44,-7,19,-21,36,37,17
48,-17,-65,-15,57,-41,-23,0,-15,55,55,33
60,-6,-65,-26,63,-35,-39,-30,-31,45,41,29
60,-5,-65,-27,63,-34,-43,-49,-60,15,23,16
35,-45,-81,5,58,-63,-52,-74,-89,-18,13,9
18,-64,-82,23,50,-73,-53,-85,-85,-36,2,-5
-9,-57,-48,34,19,-52,-43,-95,-88,-41,-8,-16
-54,-61,-7,58,-23,-34,-29,-91,-106,-39,-13,-29
-59,-65,-5,62,-27,-35,-20,-89,-111,-40,-21,-42
-28,-64,-36,46,5,-50,-11,-86,-105,-46,-20,-42
-51,-68,-17,60,-16,-43,-2,-78,-98,-60,-35,-52
-93,-59,34,76,-63,-13,-10,-84,-105,-49,-28,-44
-97,-73,25,85,-60,-24,4,-63,-82,-52,-37,-48
-103,-56,47,79,-74,-4,-7,-86,-120,-45,-25,-42
-76,-71,5,74,-41,-33,7,-42,-78,-45,-32,-47
-103,-47,55,75,-79,4,12,-80,-130,-37,-40,-49
-236,40,276,98,-256,158,161,37,-65,27,-43,-96
-285,118,402,83,-344,260,308,208,54,115,4,-69
280,123,-157,-202,218,-17,-42,109,206,453,519,341
1036,-237,-1273,-399,1155,-755,-548,-159,463,328,578,515
825,-401,-1226,-212,1026,-813,-840,-838,-336,-433,-64,242
252,-238,-490,-7,371,-364,-544,-723,-691,-548,-256,35
50,-125,-174,38,112,-149,-68,-93,-118,-162,-100,-14
-36,-28,8,32,-21,-10,20,-10,-34,-2,-17,8
-69,-28,40,48,-54,6,69,60,7,19,-15,-6
-92,-10,82,50,-87,36,83,73,21,31,-7,-7
-82,5,87,38,-85,46,90,77,37,41,2,-12
-64,9,73,28,-69,41,104,102,63,50,6,-16
-81,20,101,30,-91,60,92,109,63,69,29,-7
-83,21,104,31,-94,63,96,123,98,75,40,-7
-65,31,97,17,-81,64,86,132,92,75,49,-1
-56,28,84,14,-70,56,87,150,112,89,50,1
-49,34,83,8,-66,58,80,159,128,99,50,5
-42,35,77,3,-60,55,80,183,145,116,66,9
-39,35,74,2,-57,54,80,188,163,139,84,20
-20,47,67,-14,-44,57,75,205,190,149,90,30
2,63,61,-33,-30,62,75,237,222,167,105,41
22,76,54,-49,-17,65,74,267,255,192,127,62
44,92,47,-68,-2,69,80,289,292,222,149,80
69,126,57,-98,6,91,77,326,338,259,181,104
104,161,56,-133,24,108,71,365,388,299,221,136
133,178,45,-156,44,111,65,398,439,339,262,162
164,194,30,-179,67,111,50,424,485,373,298,187
221,227,6,-224,107,116,23,435,523,411,342,223
256,249,-8,-252,132,120,-14,426,552,431,368,260
281,258,-23,-269,152,117,-32,382,543,423,381,270
295,259,-36,-276,165,111,-50,341,502,420,388,255
242,215,-27,-229,134,94,-55,263,408,371,344,239
179,170,-9,-175,94,80,-47,164,283,284,278,204
123,137,15,-130,54,76,-45,90,175,210,207,140
65,90,25,-78,19,57,-39,26,74,135,137,82
9,41,32,-25,-12,36,-35,-11,17,85,83,42
-45,1,46,22,-45,23,-27,-43,-9,52,44,12
-61,-16,45,38,-53,14,-21,-54,-46,33,22,-1
-68,-24,43,46,-55,9,-14,-47,-67,26,9,-7
-76,-36,40,56,-58,2,-7,-52,-69,19,2,-14
-77,-37,40,57,-58,1,-1,-65,-66,13,-4,-21
-72,-34,38,53,-55,2,5,-65,-65,5,-11,-28
-65,-31,34,47,-50,1,9,-51,-65,0,-18,-28
-64,-29,35,46,-50,3,10,-50,-61,-5,-18,-24
-59,-24,35,41,-46,5,10,-50,-60,-10,-13,-22
-62,-27,35,44,-48,4,10,-50,-60,-14,-10,-19
-68,-32,35,50,-51,1,10,-51,-60,-13,-7,-16
-70,-30,39,50,-55,5,8,-49,-60,-7,-3,-14
-71,-30,41,50,-56,5,3,-53,-60,-3,1,-11
-69,-30,39,50,-54,4,0,-55,-60,1,4,-10
-79,-30,49,54,-64,9,-3,-55,-60,6,7,-10
-86,-30,56,58,-71,12,-8,-59,-64,10,9,-10
-81,-34,48,57,-64,7,-11,-60,-65,5,13,-10
-80,-36,45,57,-62,5,-15,-61,-65,5,15,-10
-75,-35,40,55,-57,2,-15,-64,-70,5,17,-10
-69,-35,34,52,-51,0,-16,-67,-70,5,21,-10
-72,-35,37,53,-54,1,-20,-69,-71,5,19,-10
-65,-34,31,49,-48,-1,-20,-73,-78,3,24,-10
-69,-29,40,49,-55,5,-17,-75,-77,-1,25,-9
-77,-26,51,51,-64,12,-15,-75,-72,-3,25,-6
-67,-23,45,44,-56,11,-15,-78,-69,-6,30,-5
-62,-18,44,40,-53,12,-15,-81,-66,-9,30,-6
-52,-15,37,33,-44,11,-15,-79,-61,-10,34,-4
-48,-11,37,29,-42,13,-9,-65,-59,1,35,-6
-11,-2,9,6,-10,4,-4,-37,-34,32,38,1
50,3,-46,-26,48,-21,4,7,-15,55,56,22
73,13,-60,-43,66,-24,-1,20,-5,70,76,39
90,30,-60,-60,75,-15,-39,-9,3,69,81,42
83,24,-60,-53,71,-18,-57,-37,-24,51,67,36
70,10,-60,-40,65,-25,-57,-60,-38,35,53,28
60,0,-60,-30,60,-30,-66,-84,-61,23,43,23
46,-8,-53,-19,50,-30,-60,-93,-70,12,32,15
16,-17,-33,1,25,-25,-45,-101,-73,-1,22,10
-44,-45,-1,45,-21,-23,-32,-97,-85,-1,14,5
-85,-49,36,66,-60,-6,-24,-94,-84,-1,8,-3
-82,-33,49,57,-66,8,-17,-98,-87,2,10,-4
-71,-32,39,51,-54,3,-4,-86,-80,-3,0,-16
-82,-22,59,52,-70,18,-10,-99,-94,3,6,-13
-80,-43,37,61,-58,-3,1,-77,-74,-4,-6,-27
-98,-39,60,68,-79,11,-12,-101,-106,-5,-2,-25
-94,-49,44,72,-69,-3,3,-68,-68,-15,-17,-39
-103,-22,81,62,-92,30,16,-96,-103,-1,-23,-44
-235,54,290,90,-263,172,136,12,-62,71,-7,-52
-309,140,449,84,-379,295,297,230,81,155,67,-32
261,176,-84,-218,172,46,-13,88,201,444,501,320
1076,-206,-1282,-435,1179,-743,-539,-227,413,230,465,428
900,-420,-1319,-240,1110,-869,-863,-880,-341,-510,-130,150
304,-235,-539,-35,422,-387,-579,-805,-740,-556,-253,39
70,-120,-190,25,130,-154,-79,-129,-144,-166,-78,12
-29,-38,-9,34,-10,-23,24,-2,-17,-1,36,6
-73,-28,45,50,-59,8,77,60,22,35,58,-5
-107,-17,90,62,-98,36,93,65,47,53,51,-15
-99,-1,99,50,-99,49,88,83,43,62,60,-21
-101,1,101,50,-101,51,94,115,77,73,58,-24
-120,1,121,59,-120,61,86,100,69,79,61,-12
-97,11,108,43,-103,59,93,122,94,86,70,-9
-76,30,106,22,-91,68,88,126,100,101,84,0
-65,30,95,17,-80,62,90,141,118,100,89,5
-60,29,89,15,-74,59,84,157,131,117,93,14
-56,29,85,13,-71,57,86,179,146,130,104,22
-37,47,84,-5,-61,65,83,190,169,140,117,31
-36,50,86,-8,-61,68,79,210,197,161,131,37
-10,74,85,-32,-48,79,81,232,225,181,152,52
10,94,84,-52,-38,89,75,261,258,207,167,70
7,94,87,-51,-40,90,67,299,297,231,185,81
60,120,60,-90,0,90,61,330,338,262,215,104
102,153,52,-127,25,102,53,371,387,304,251,129
155,194,39,-174,57,116,47,412,446,345,295,162
212,209,-3,-211,107,103,38,432,489,377,333,199
258,236,-22,-247,140,106,18,437,518,407,360,227
293,263,-30,-278,162,116,-3,436,540,424,390,251
286,252,-35,-269,160,108,-15,414,542,420,406,274
301,243,-58,-272,179,92,-33,360,497,409,406,277
291,228,-63,-259,177,82,-50,271,406,374,384,257
218,197,-21,-207,120,88,-44,166,298,310,328,218
128,144,16,-136,56,80,-34,89,175,229,251,156
41,85,44,-63,-2,64,-26,27,80,159,175,92
-18,47,65,-15,-42,56,-20,-20,5,115,120,49
-34,28,63,3,-49,45,-15,-46,-49,75,80,17
-33,26,59,4,-46,42,-10,-63,-50,43,61,-1
-55,0,56,27,-55,28,-6,-62,-57,26,55,-8
-88,-37,52,63,-70,7,-2,-60,-71,21,50,-11
-89,-41,48,65,-69,3,3,-60,-69,17,45,-16
-85,-40,45,62,-65,2,5,-60,-70,12,38,-20
-83,-38,45,60,-64,3,5,-60,-70,7,37,-20
-79,-34,45,56,-61,5,8,-60,-71,5,40,-20
-81,-36,46,58,-63,5,11,-65,-68,11,40,-20
-73,-31,42,51,-57,6,9,-65,-65,14,45,-20
-82,-22,60,51,-70,19,5,-65,-65,19,45,-20
-94,-17,78,55,-86,30,5,-65,-62,25,50,-18
-78,-9,70,43,-74,30,4,-65,-60,30,59,-14
-71,-4,67,37,-69,31,0,-68,-61,37,61,-12
-65,0,65,32,-65,32,0,-71,-66,38,65,-9
-50,6,56,22,-54,31,-2,-70,-73,35,69,-6
-90,-16,74,52,-82,29,-5,-70,-75,32,69,-4
-91,-16,75,53,-82,29,-8,-70,-75,30,65,-1
-48,7,55,20,-52,31,-11,-70,-79,26,65,0
-44,12,55,15,-50,33,-14,-80,-80,25,65,4
-45,9,53,18,-49,31,-15,-90,-80,21,65,5
-67,2,69,32,-68,35,-10,-94,-85,20,65,7
-77,-3,74,40,-75,35,-10,-91,-85,19,62,11
-74,-10,65,42,-69,27,-9,-90,-86,16,59,10
-68,-6,62,37,-65,28,-5,-89,-90,14,63,11
-59,-5,54,32,-56,24,-5,-84,-90,16,74,14
-55,-4,51,30,-53,23,-3,-86,-88,24,77,16
-60,-6,54,32,-56,24,0,-81,-81,31,81,14
-60,-3,56,31,-58,26,3,-66,-75,39,85,16
-38,12,50,12,-44,31,6,-54,-60,41,87,13
-28,8,36,10,-32,22,9,-28,-33,61,103,24
10,9,-1,-9,6,4,11,3,2,85,129,48
62,33,-28,-47,45,2,-12,17,37,92,138,57
83,57,-26,-70,54,15,-42,-6,22,91,128,58
56,48,-8,-51,31,20,-45,-56,-20,81,117,51
56,30,-26,-43,41,2,-52,-80,-47,61,104,44
78,23,-55,-50,66,-16,-59,-98,-75,29,96,38
57,6,-52,-31,54,-23,-49,-104,-75,18,95,32
16,-11,-27,-2,22,-19,-47,-107,-84,16,94,18
-62,-37,25,49,-44,-6,-27,-103,-91,13,81,-11
-103,-42,61,72,-82,9,-9,-106,-97,7,64,-16
-102,-38,64,69,-83,13,-3,-106,-96,7,66,-13
-103,-40,63,71,-83,11,4,-99,-96,8,61,-19
-100,-29,71,64,-85,21,3,-107,-108,29,71,-10
-98,-43,55,70,-76,6,16,-86,-86,27,58,-21
-110,-30,80,70,-95,24,9,-113,-112,35,72,-12
-99,-51,48,75,-74,-2,22,-71,-65,37,58,-37
-132,-20,112,76,-122,46,19,-99,-116,33,51,-28
-253,73,325,90,-289,199,175,57,-31,90,46,-56
-285,160,445,62,-365,302,295,231,91,212,149,-2
369,137,-232,-253,301,-48,-84,60,258,489,610,390
1167,-226,-1393,-470,1280,-809,-610,-302,404,188,485,445
817,-383,-1199,-217,1008,-791,-873,-967,-459,-526,-109,167
211,-224,-435,6,323,-329,-517,-739,-679,-484,-182,23
56,-93,-149,18,103,-120,-58,-88,-85,-98,-4,-14
-39,-5,34,21,-36,14,18,-7,-15,39,94,11
-65,1,66,32,-66,33,75,59,40,67,94,7
-93,8,100,42,-97,54,87,54,44,83,98,15
-100,4,104,47,-102,54,87,80,60,95,102,17
-107,6,113,51,-111,59,90,92,78,97,108,18
-91,32,123,29,-108,77,81,101,78,111,122,24
-71,40,111,15,-91,75,88,128,104,124,119,23
-78,37,115,20,-97,76,82,124,103,128,126,28
-79,26,105,26,-92,65,87,145,133,139,131,31
-76,30,106,22,-91,68,82,146,149,145,141,37
-45,53,98,-4,-72,75,80,161,167,155,152,40
-29,57,87,-14,-58,72,80,184,179,178,171,48
-7,72,79,-33,-43,75,78,206,208,196,190,59
30,101,71,-66,-21,86,74,231,239,213,203,73
45,113,68,-80,-12,91,75,255,268,235,221,87
50,113,63,-82,-7,88,77,283,308,264,241,104
74,134,59,-104,7,96,71,332,355,299,266,127
108,163,55,-136,26,109,62,364,402,337,300,151
154,191,37,-173,58,114,53,392,449,373,339,184
213,226,13,-220,100,119,44,429,500,408,378,218
238,243,5,-241,116,124,28,425,533,445,416,249
248,250,2,-249,123,126,7,415,544,457,441,275
267,241,-26,-254,146,107,-26,402,538,455,447,280
284,232,-51,-258,167,90,-52,346,504,442,450,281
274,222,-51,-248,162,85,-70,252,410,395,418,271
201,184,-18,-192,109,83,-71,151,286,322,357,220
110,134,25,-122,42,79,-43,78,177,243,284,157
45,86,42,-66,1,64,-32,19,81,175,210,108
-11,44,55,-17,-33,49,-23,-26,9,126,160,64
-34,17,51,8,-42,34,-14,-56,-28,88,127,29
-41,3,44,18,-42,23,-12,-72,-45,63,107,14
-54,-10,43,32,-48,16,-8,-71,-65,52,90,4
-58,-25,33,41,-45,4,-5,-70,-71,39,73,-8
-80,-39,41,59,-60,1,0,-70,-69,34,65,-15
-97,-42,55,69,-76,6,2,-66,-70,36,65,-15
-92,-36,56,63,-73,9,7,-65,-70,32,65,-16
-85,-31,53,58,-69,11,10,-67,-70,30,65,-20
-78,-28,50,53,-64,11,13,-70,-65,28,65,-20
-73,-22,50,47,-61,14,18,-70,-66,40,67,-18
-68,-19,49,44,-58,15,20,-70,-64,51,78,-11
-92,-32,60,62,-76,13,15,-71,-61,49,85,-6
-106,-34,72,70,-89,19,10,-69,-59,50,89,-1
-96,-27,69,61,-82,21,6,-68,-65,50,93,5
-95,-24,70,59,-82,23,1,-63,-76,50,98,9
-88,-18,70,53,-79,26,-3,-73,-75,46,100,10
-85,-15,70,50,-77,27,-7,-91,-74,45,100,10
-76,-10,67,43,-71,28,4,-89,-70,44,100,10
-68,-3,64,35,-66,30,11,-90,-70,41,100,10
-63,2,65,30,-64,33,5,-90,-70,38,99,10
-52,9,60,21,-56,34,3,-90,-69,45,95,10
-52,7,59,22,-56,33,-2,-88,-71,56,95,10
-61,-1,61,31,-61,30,-5,-76,-69,54,94,10
-55,-7,47,31,-50,20,-1,-93,-78,49,89,10
-73,-15,59,44,-66,21,6,-106,-88,48,90,10
-103,-23,81,63,-92,29,12,-97,-80,44,92,10
-98,-29,69,63,-83,20,19,-89,-69,48,97,16
-77,-19,58,48,-68,19,24,-60,-48,72,108,23
-24,3,26,10,-25,14,17,-27,-15,85,123,25
18,12,-7,-15,12,3,12,3,18,105,144,48
48,23,-25,-35,36,0,0,23,38,127,162,69
74,50,-24,-61,49,13,-31,-5,23,132,163,62
41,54,14,-48,14,33,-47,-53,-17,132,153,56
51,24,-26,-37,39,-1,-40,-79,-43,98,142,49
54,-11,-64,-21,59,-37,-40,-99,-60,64,133,41
28,-32,-60,2,44,-46,-34,-111,-80,52,122,34
13,-35,-48,11,31,-41,-32,-118,-92,45,112,27
-57,-38,19,47,-38,-9,-26,-114,-93,41,105,22
-93,-42,51,67,-72,5,-14,-114,-107,30,97,13
-91,-43,48,67,-69,2,-4,-118,-105,29,97,10
-92,-53,39,72,-65,-6,9,-107,-95,26,83,-3
-80,-37,43,58,-61,3,8,-118,-107,42,87,-1
-79,-47,32,62,-55,-7,21,-88,-81,32,77,-10
-112,-28,84,70,-97,28,8,-114,-114,35,90,-1
-98,-41,57,70,-77,7,21,-72,-82,39,82,-8
-110,-37,73,73,-91,18,15,-97,-118,23,84,-9
-259,38,297,110,-278,167,145,-4,-50,97,92,-32
-335,120,455,108,-395,287,317,222,88,196,121,-25
218,166,-53,-192,135,56,5,81,198,491,563,336
1075,-194,-1268,-440,1172,-731,-526,-230,429,297,565,464
934,-427,-1361,-253,1148,-894,-868,-892,-327,-456,-42,183
274,-268,-541,-3,408,-404,-587,-835,-748,-510,-191,32
48,-129,-177,41,113,-153,-78,-137,-145,-119,-10,-3
-37,-27,10,32,-24,-8,24,-12,-12,67,112,12
-96,-19,77,57,-86,28,76,43,28,103,120,10
-118,-13,105,65,-111,46,97,59,55,105,122,13
-134,-6,127,70,-130,60,90,62,44,135,138,18
-126,-3,123,64,-124,60,108,94,86,143,140,17
-116,4,120,56,-118,62,108,88,76,135,151,28
-89,19,108,35,-99,64,111,111,102,143,155,27
-62,43,106,9,-84,74,101,117,115,154,160,36
-59,39,98,10,-78,68,104,128,128,167,164,37
-61,40,100,11,-81,70,97,143,140,180,170,40
-58,41,100,9,-79,70,97,166,166,191,181,7
-62,38,100,12,-81,69,62,174,184,203,188,-33
-56,44,100,6,-78,72,24,195,200,212,197,-26
