I,II,III,aVR,aVL,aVF,V1,V2,V3,V4,V5,V6
-9,100,108,-46,-59,104,-5,-191,-898,-268,-392,-186
-5,96,101,-46,-54,99,-6,-207,-924,-293,-409,-201
6,89,83,-47,-39,86,-10,-217,-944,-301,-416,-212
-1,83,84,-41,-43,83,-6,-214,-951,-299,-420,-209
-37,75,112,-20,-75,93,-2,-219,-955,-300,-434,-214
-16,70,86,-27,-51,78,0,-220,-971,-300,-431,-216
-21,82,102,-31,-62,92,6,-220,-980,-299,-428,-214
-32,86,118,-28,-75,102,-1,-225,-985,-297,-433,-211
-22,84,107,-31,-65,95,-4,-225,-999,-305,-438,-222
-29,82,110,-27,-70,96,6,-225,-1012,-305,-450,-226
-23,79,102,-29,-63,90,5,-222,-1014,-300,-456,-224
-23,80,103,-28,-63,91,5,-220,-1014,-299,-454,-225
-23,75,98,-26,-61,86,3,-220,-1010,-294,-455,-225
-27,75,101,-24,-65,87,-1,-217,-1008,-295,-455,-225
-42,74,117,-16,-80,95,1,-214,-1008,-295,-454,-220
-48,69,117,-11,-83,93,0,-217,-1004,-295,-450,-215
-35,71,106,-18,-70,88,0,-224,-1004,-295,-449,-211
-49,67,116,-10,-82,91,10,-226,-1004,-295,-450,-206
-80,57,137,11,-109,97,9,-224,-1004,-295,-449,-200
-34,74,108,-20,-71,90,-4,-221,-1004,-291,-450,-203
-7,82,90,-38,-48,86,-7,-219,-1002,-286,-447,-206
-46,79,125,-16,-86,102,-5,-222,-996,-282,-444,-205
-55,77,132,-11,-94,104,-1,-225,-990,-277,-445,-203
-43,74,117,-16,-80,95,0,-225,-986,-274,-445,-201
-39,75,114,-18,-77,94,1,-225,-978,-267,-445,-198
-46,70,117,-12,-82,93,-4,-222,-977,-261,-444,-205
-33,69,101,-18,-67,85,-20,-216,-982,-254,-439,-217
-35,64,100,-15,-68,82,-17,-212,-970,-248,-432,-207
-64,67,131,-1,-98,99,-11,-207,-952,-240,-426,-194
-57,88,145,-15,-101,116,-8,-202,-933,-230,-419,-186
-60,91,151,-16,-106,121,-1,-198,-917,-220,-413,-175
-50,100,150,-25,-100,125,-1,-183,-904,-194,-406,-165
-9,119,128,-55,-69,123,-5,-170,-872,-183,-388,-155
7,105,98,-56,-46,101,-4,-170,-857,-185,-379,-155
35,122,87,-79,-26,104,-15,-171,-863,-185,-380,-154
45,127,82,-86,-19,104,-43,-183,-865,-184,-379,-156
25,90,65,-58,-20,77,-50,-211,-884,-189,-404,-155
-6,80,86,-37,-46,83,-25,-218,-889,-205,-432,-163
-41,81,122,-20,-82,101,-22,-222,-888,-207,-428,-169
-61,70,131,-5,-96,100,-16,-218,-881,-209,-431,-180
-70,72,142,-1,-106,107,-16,-221,-881,-209,-429,-190
-78,62,141,8,-110,101,-11,-220,-873,-198,-429,-191
-76,60,137,8,-107,98,-8,-216,-873,-197,-432,-190
-66,80,146,-7,-106,113,-14,-221,-864,-184,-425,-185
-56,74,130,-9,-93,102,-3,-204,-846,-184,-437,-189
-54,87,142,-17,-98,114,-33,-232,-853,-172,-420,-178
-87,55,142,16,-115,98,9,-173,-792,-161,-443,-202
-97,106,203,-5,-150,154,32,-145,-777,-120,-409,-208
0,183,183,-92,-92,183,76,67,-449,161,-234,-129
682,632,-51,-657,366,290,-388,5,-63,681,579,644
1240,1172,-68,-1206,653,552,-1145,-833,-392,778,1228,1404
538,769,231,-653,153,500,-917,-1224,-1174,-62,238,678
-106,322,428,-108,-267,375,-457,-950,-1548,-655,-634,-151
-76,256,332,-90,-204,294,-256,-547,-1180,-446,-554,-233
-85,163,248,-39,-167,205,-79,-288,-864,-255,-477,-225
-80,143,223,-32,-151,183,-51,-217,-758,-177,-406,-190
-72,121,193,-24,-133,157,8,-164,-688,-146,-412,-213
-65,123,188,-29,-127,155,26,-152,-681,-130,-403,-213
-65,116,181,-25,-124,148,32,-128,-646,-110,-393,-201
-43,108,151,-33,-97,130,28,-125,-636,-120,-393,-201
-40,107,147,-34,-94,127,26,-118,-605,-106,-379,-187
-102,106,208,-3,-155,156,48,-110,-588,-84,-381,-189
-98,100,198,-1,-148,149,43,-105,-578,-75,-369,-193
-81,112,193,-16,-137,152,46,-97,-561,-68,-369,-196
-56,133,189,-39,-123,161,45,-91,-547,-54,-360,-194
-52,128,181,-38,-116,154,45,-79,-526,-45,-356,-195
-48,130,178,-41,-113,154,43,-70,-499,-35,-351,-195
-26,130,156,-52,-91,143,36,-60,-460,-25,-346,-193
-46,134,179,-44,-113,156,29,-50,-420,-15,-343,-186
-45,145,190,-50,-117,167,23,-40,-380,-6,-338,-179
-36,144,180,-55,-109,162,15,-22,-343,2,-332,-174
-20,154,174,-67,-97,164,13,1,-306,12,-313,-159
18,187,168,-103,-75,177,17,24,-264,45,-288,-132
49,207,159,-128,-55,183,1,45,-215,75,-267,-117
74,237,163,-156,-45,200,-14,64,-162,106,-242,-96
102,269,167,-186,-33,218,-40,82,-116,135,-207,-62
165,303,138,-234,13,220,-73,83,-76,151,-171,-33
201,348,147,-275,27,247,-99,73,-48,183,-135,4
246,373,128,-310,59,250,-135,65,-42,188,-103,44
286,390,104,-338,90,247,-165,55,-38,178,-94,67
280,396,116,-338,82,256,-178,40,-36,170,-92,83
299,403,104,-351,98,253,-174,13,-59,160,-88,98
271,379,108,-325,81,243,-161,-22,-90,148,-84,85
200,325,125,-262,37,225,-144,-56,-134,111,-102,55
127,282,155,-204,-15,218,-119,-85,-194,71,-154,16
87,249,162,-168,-38,206,-80,-103,-236,29,-190,-26
61,217,156,-140,-48,187,-52,-115,-267,-2,-224,-55
33,188,155,-111,-61,171,-40,-128,-305,-36,-270,-102
20,177,158,-99,-69,167,-27,-140,-326,-73,-288,-125
-12,169,180,-79,-96,174,-21,-138,-322,-75,-290,-127
-19,161,179,-71,-99,170,-14,-134,-319,-76,-298,-148
-26,150,176,-62,-101,162,-7,-131,-315,-77,-301,-151
-27,146,173,-60,-101,159,-1,-126,-311,-74,-299,-149
-26,144,170,-59,-99,157,5,-124,-308,-75,-300,-150
-27,142,169,-58,-98,155,10,-120,-297,-71,-300,-150
-25,140,165,-58,-95,152,15,-120,-282,-69,-299,-149
-33,132,165,-50,-100,148,18,-118,-262,-75,-292,-154
-11,153,164,-72,-88,158,24,-114,-252,-68,-288,-153
-18,163,181,-73,-100,172,23,-115,-239,-53,-282,-137
-25,157,182,-66,-103,169,18,-118,-212,-55,-276,-135
-19,157,176,-69,-98,166,15,-121,-204,-55,-271,-132
-15,153,168,-69,-92,160,12,-120,-206,-54,-266,-129
-13,157,170,-73,-92,163,7,-120,-202,-56,-264,-126
-50,156,207,-53,-129,181,4,-120,-200,-54,-260,-124
-54,154,208,-50,-132,181,6,-121,-200,-56,-259,-133
-50,151,201,-51,-125,176,-1,-125,-204,-55,-254,-135
-50,148,199,-49,-125,173,-7,-125,-205,-59,-259,-136
-48,145,193,-49,-121,169,-3,-125,-205,-70,-275,-140
-52,144,196,-46,-124,170,-1,-128,-210,-79,-275,-140
-55,139,194,-43,-125,166,3,-131,-210,-92,-277,-145
-63,132,195,-35,-129,164,5,-129,-211,-96,-285,-145
-64,131,195,-34,-129,163,7,-130,-215,-101,-289,-144
-72,122,195,-25,-134,158,14,-138,-215,-117,-291,-156
-67,125,192,-29,-130,158,20,-141,-219,-120,-289,-161
-83,102,185,-10,-134,144,25,-139,-220,-120,-293,-159
-85,97,182,-6,-134,139,25,-137,-216,-120,-297,-160
-41,136,177,-48,-109,156,25,-134,-211,-121,-293,-160
-44,129,173,-42,-109,150,25,-135,-206,-126,-287,-160
-45,123,168,-39,-107,145,25,-135,-203,-123,-284,-155
-44,119,163,-38,-104,140,23,-135,-196,-119,-277,-155
-47,111,158,-32,-103,134,19,-135,-196,-116,-277,-155
-39,109,149,-35,-94,129,21,-135,-210,-110,-290,-155
-82,88,170,-3,-127,129,16,-135,-210,-113,-288,-156
-79,106,185,-14,-132,145,15,-132,-205,-127,-283,-152
-46,126,172,-40,-109,149,14,-129,-204,-130,-281,-149
-54,115,168,-31,-111,142,10,-130,-199,-130,-276,-150
-49,109,158,-30,-104,133,24,-130,-202,-130,-273,-146
-49,103,153,-27,-101,128,23,-130,-205,-130,-270,-145
-65,94,159,-15,-112,126,18,-129,-205,-130,-267,-145
-79,96,175,-8,-128,135,16,-126,-204,-130,-265,-140
-64,112,177,-24,-121,145,11,-123,-205,-138,-261,-140
-54,109,163,-28,-109,136,10,-120,-204,-141,-259,-139
-76,97,173,-11,-125,135,1,-117,-205,-136,-265,-135
-79,93,172,-7,-126,133,11,-115,-214,-134,-265,-135
-88,81,168,3,-128,124,26,-113,-213,-131,-265,-133
-82,80,162,0,-122,121,24,-108,-209,-129,-263,-128
-55,105,160,-25,-108,133,25,-105,-206,-125,-259,-125
-46,106,152,-30,-100,129,25,-102,-202,-117,-261,-121
-35,98,133,-31,-85,115,25,-96,-198,-111,-252,-118
-52,113,165,-31,-109,139,25,-95,-184,-104,-235,-115
-36,129,165,-47,-101,147,19,-82,-157,-97,-225,-105
-10,137,147,-64,-79,142,14,-66,-141,-97,-216,-89
-2,136,138,-67,-71,137,11,-64,-138,-100,-204,-82
17,143,126,-80,-55,135,2,-67,-139,-101,-204,-86
23,137,114,-80,-46,126,-10,-81,-163,-98,-210,-84
26,132,106,-80,-40,119,-29,-106,-188,-117,-224,-98
-3,122,126,-60,-65,124,-27,-118,-199,-146,-242,-120
-21,105,127,-42,-74,116,-10,-123,-192,-145,-222,-107
-41,98,140,-29,-90,119,1,-117,-196,-144,-233,-119
-45,102,147,-29,-96,124,1,-123,-231,-145,-255,-134
-50,96,146,-24,-98,121,11,-118,-217,-133,-250,-136
-73,94,167,-11,-121,131,15,-118,-220,-135,-246,-134
-68,98,166,-16,-117,132,17,-111,-211,-122,-236,-129
-76,86,161,-5,-118,123,31,-95,-206,-124,-238,-133
-74,98,172,-12,-124,135,15,-105,-209,-113,-221,-123
-84,66,150,9,-118,108,41,-65,-166,-86,-240,-143
-118,114,232,2,-175,173,80,-54,-146,-34,-211,-119
-5,214,218,-104,-112,216,119,196,213,266,-11,-11
773,670,-103,-721,437,284,-468,33,478,701,748,730
1346,1114,-232,-1230,789,441,-1229,-854,94,657,1225,1357
617,675,58,-646,279,366,-934,-1186,-612,-120,285,634
-59,253,313,-97,-186,283,-427,-835,-909,-565,-435,-63
-94,188,282,-47,-188,235,-203,-406,-543,-344,-338,-128
-100,124,224,-12,-162,174,-42,-189,-289,-178,-276,-127
-83,104,186,-11,-135,145,18,-91,-205,-96,-223,-91
-91,71,162,10,-127,117,61,-32,-148,-79,-219,-105
-87,74,161,6,-125,117,66,-26,-136,-66,-205,-98
-84,63,147,11,-116,105,89,-5,-105,-34,-196,-100
-93,56,149,18,-121,102,84,-6,-108,-31,-192,-102
-93,50,142,21,-118,96,88,9,-89,-22,-179,-96
-94,46,140,24,-117,93,92,17,-85,-23,-179,-96
-80,55,135,12,-108,95,93,26,-76,-13,-168,-88
-67,67,134,0,-101,100,97,39,-62,-2,-163,-88
-73,71,144,1,-109,107,93,44,-48,10,-153,-81
-81,65,146,7,-114,106,96,59,-37,20,-146,-80
-73,63,137,5,-105,100,94,67,-29,27,-139,-87
-90,61,151,14,-120,106,100,79,-13,38,-130,-85
-79,58,137,10,-108,97,97,99,-1,46,-120,-78
-44,66,109,-12,-77,87,89,105,17,48,-110,-73
-26,97,122,-36,-74,109,83,121,48,62,-98,-66
-8,111,119,-51,-64,115,73,149,84,88,-77,-52
-3,115,118,-56,-61,116,69,167,121,109,-58,-38
22,137,114,-80,-46,125,53,189,156,137,-39,-18
51,166,115,-109,-32,140,32,207,197,171,-10,12
76,199,122,-138,-23,160,7,228,238,202,29,36
123,233,110,-178,6,171,-24,239,272,228,65,66
174,259,85,-217,44,172,-48,230,293,249,96,104
235,292,57,-263,88,174,-75,220,297,268,125,132
260,310,50,-285,105,180,-105,208,288,264,144,160
258,299,41,-279,108,170,-124,185,275,252,156,183
259,296,37,-278,111,166,-120,145,263,243,159,187
254,280,26,-267,114,153,-113,105,224,221,155,176
211,233,22,-222,94,127,-99,73,174,187,125,156
157,182,26,-169,65,104,-73,34,126,137,80,123
93,134,42,-114,25,88,-47,9,70,100,50,84
26,97,71,-62,-22,83,-22,0,26,67,11,47
34,68,34,-51,0,50,1,-8,-18,24,-35,1
-17,49,66,-16,-42,57,26,-18,-46,3,-59,-21
-60,34,94,13,-77,64,31,-24,-47,-1,-61,-21
-30,25,55,3,-43,39,29,-19,-51,-7,-58,-39
-38,26,63,6,-51,44,41,-25,-48,-12,-62,-46
-63,-6,58,35,-60,26,46,-36,-44,-17,-74,-44
-84,-22,62,53,-72,20,45,-34,-41,-26,-73,-45
-61,-5,57,33,-59,26,45,-31,-36,-29,-68,-45
-71,0,71,35,-71,35,45,-29,-34,-22,-66,-45
-80,14,94,33,-87,53,45,-25,-28,-18,-61,-46
-73,15,88,29,-80,52,40,-25,-23,-11,-59,-44
-71,20,91,25,-81,55,40,-25,-17,-5,-54,-47
-61,28,89,16,-75,58,39,-25,-12,-20,-48,-53
-75,31,106,22,-91,68,35,-25,-5,-22,-45,-36
-54,51,105,2,-80,78,35,-25,-12,-9,-40,-40
-47,49,96,-1,-71,72,38,-25,-17,-1,-35,-47
-43,44,88,-1,-66,66,40,-21,-14,11,-38,-44
-38,43,81,-3,-60,62,40,-20,-15,11,-41,-51
-55,39,94,8,-74,66,40,-19,-16,4,-39,-49
-51,38,89,6,-70,64,40,-16,-20,0,-41,-51
-41,31,72,5,-57,51,40,-13,-20,-6,-39,-55
-33,27,59,3,-46,43,35,-20,-23,-11,-41,-55
-56,21,77,17,-67,49,36,-35,-28,-17,-45,-54
-60,15,75,22,-68,44,33,-35,-32,-30,-48,-60
-47,11,57,18,-52,34,39,-34,-43,-49,-60,-62
-56,4,60,26,-58,31,60,-36,-45,-56,-66,-59
-71,-1,71,36,-71,34,60,-34,-45,-56,-66,-55
-79,-6,73,43,-76,33,59,-36,-45,-61,-71,-58
-41,-12,29,27,-34,8,61,-34,-45,-59,-69,-81
-65,-17,47,41,-56,15,59,-36,-45,-55,-65,-91
-117,-26,91,71,-104,32,60,-39,-40,-55,-65,-89
-106,-29,77,68,-91,24,60,-40,-40,-55,-65,-93
-98,-21,76,59,-87,27,60,-40,-39,-55,-65,-95
-88,-16,71,52,-79,27,60,-42,-35,-54,-65,-95
-92,-26,65,59,-78,19,60,-52,-36,-58,-63,-98
-95,-32,64,63,-80,16,60,-54,-33,-60,-58,-103
-81,-29,52,55,-66,11,64,-47,-28,-60,-62,-106
-79,-31,48,55,-64,9,65,-42,-25,-64,-74,-110
-64,-29,35,47,-50,2,65,-37,-22,-65,-76,-110
-67,-31,36,49,-52,3,65,-30,-18,-65,-74,-110
-105,-35,71,70,-88,18,65,-38,-14,-59,-71,-110
-107,-35,72,71,-89,18,62,-48,-21,-53,-69,-110
-98,-35,63,67,-80,14,60,-45,-22,-49,-72,-114
-95,-34,62,64,-78,14,60,-42,-14,-42,-75,-115
-93,-43,51,68,-72,4,56,-40,-8,-38,-75,-117
-107,-51,56,79,-82,2,55,-36,-1,-31,-75,-121
-115,-49,65,82,-90,7,55,-35,5,-38,-75,-118
-116,-50,65,82,-91,7,61,-32,10,-46,-71,-115
-112,-50,62,81,-87,6,65,-27,16,-38,-69,-115
-103,-50,53,76,-78,1,65,-24,22,-35,-70,-112
-91,-46,45,69,-68,-1,65,-21,25,-30,-70,-109
-77,-41,36,59,-56,-2,65,-17,38,-26,-70,-110
-66,-38,28,52,-47,-5,65,-13,45,-21,-69,-106
-54,-34,20,43,-36,-7,65,-8,50,-12,-60,-97
-34,-22,12,28,-23,-5,69,4,68,-4,-51,-89
-13,-9,4,11,-8,-2,66,21,81,11,-39,-81
-3,-4,-1,4,-1,-2,55,46,103,35,-32,-75
0,11,11,-6,-6,11,44,48,119,51,-22,-75
27,17,-10,-22,19,3,37,29,94,30,-23,-74
11,-13,-24,2,17,-18,32,19,56,-10,-48,-84
-66,-70,-4,68,-31,-37,42,16,49,-22,-73,-109
-100,-92,9,96,-55,-41,52,6,50,-16,-73,-101
-117,-90,27,103,-72,-31,64,2,50,-13,-80,-113
-134,-91,44,112,-89,-23,77,-5,45,-11,-98,-139
-138,-88,50,113,-94,-19,84,-1,44,-2,-101,-136
-134,-94,41,114,-87,-26,84,-1,47,-13,-100,-133
-124,-81,44,102,-84,-18,71,-17,41,-26,-93,-125
-106,-87,19,96,-63,-33,80,12,51,-19,-99,-127
-98,-63,35,80,-66,-13,57,-11,35,-3,-89,-113
-127,-77,50,102,-88,-14,80,39,65,10,-103,-138
-143,-46,96,94,-119,25,103,59,85,46,-70,-124
-109,-8,101,58,-105,46,169,246,345,268,47,-74
489,327,-163,-408,325,82,-173,332,756,727,657,492
1259,960,-299,-1109,778,330,-1004,-451,568,913,1399,1349
749,732,-17,-741,383,357,-967,-1022,-189,234,732,916
-78,200,278,-62,-178,239,-444,-827,-692,-425,-234,17
-179,85,265,47,-222,175,-221,-408,-439,-318,-263,-153
-171,-3,168,87,-170,82,-33,-114,-106,-103,-177,-158
-126,-39,87,82,-106,24,41,3,-5,-10,-124,-145
-135,-69,65,102,-99,-2,96,84,74,47,-96,-133
-150,-68,82,109,-116,6,113,82,76,64,-98,-129
-130,-69,61,99,-95,-4,107,99,82,67,-88,-118
-118,-85,33,101,-75,-25,112,110,80,61,-93,-119
-105,-82,23,94,-64,-29,115,119,97,77,-83,-110
-137,-84,53,110,-95,-15,128,127,107,85,-86,-109
-125,-96,29,110,-77,-33,123,123,103,86,-80,-102
-127,-99,28,112,-77,-35,126,127,106,83,-79,-100
-129,-94,34,111,-82,-30,125,123,105,92,-75,-95
-119,-99,20,109,-69,-39,122,138,104,114,-72,-93
-107,-90,17,98,-62,-36,118,147,110,122,-70,-88
-91,-87,5,89,-48,-41,114,149,125,118,-70,-86
-101,-80,22,90,-61,-29,111,159,128,121,-71,-79
-94,-75,19,84,-56,-28,106,167,130,133,-67,-72
-72,-66,6,68,-39,-29,104,177,139,144,-59,-61
-47,-48,-1,47,-23,-24,96,194,157,162,-54,-60
-21,-47,-26,34,3,-37,84,210,173,188,-37,-61
-4,-28,-24,16,10,-26,76,238,201,215,-1,-28
31,1,-30,-16,31,-14,58,258,230,241,21,-8
77,30,-47,-53,62,-9,37,256,251,279,50,19
102,64,-38,-83,69,13,3,252,277,310,81,60
129,94,-35,-111,82,29,-26,244,296,336,113,94
180,134,-46,-157,112,44,-46,238,306,364,149,133
217,147,-69,-182,143,39,-79,228,301,364,169,159
239,165,-74,-202,156,45,-93,205,282,350,182,185
226,176,-50,-201,138,62,-95,184,260,341,172,192
194,150,-45,-172,119,52,-92,150,189,320,154,178
199,126,-73,-162,136,26,-76,107,86,280,129,164
143,81,-63,-112,103,9,-57,79,1,244,91,125
48,27,-20,-37,34,4,-24,58,-93,206,50,81
16,-18,-34,1,26,-26,15,44,-180,165,-5,40
-37,-56,-19,47,-8,-38,36,22,-252,134,-44,1
-85,-76,9,80,-47,-33,37,7,-313,115,-77,-22
-80,-93,-13,87,-33,-53,48,10,-360,105,-101,-47
-88,-102,-14,96,-37,-58,64,5,-397,97,-114,-62
-93,-105,-12,99,-40,-58,65,0,-425,87,-126,-59
-96,-104,-8,100,-43,-56,65,-3,-454,80,-124,-60
-122,-109,13,115,-67,-48,64,-10,-493,80,-135,-65
-110,-116,-6,113,-52,-60,71,-7,-528,80,-143,-63
-93,-112,-18,103,-37,-65,74,6,-550,86,-137,-57
-109,-125,-16,117,-46,-71,64,6,-587,97,-136,-52
-100,-129,-29,114,-35,-79,76,-1,-608,100,-132,-46
-113,-119,-6,116,-53,-62,87,-4,-627,100,-130,-41
-127,-118,10,122,-68,-54,79,-9,-657,100,-130,-37
-124,-108,16,115,-69,-46,76,-13,-682,100,-130,-32
-130,-107,23,118,-77,-42,72,-18,-711,112,-129,-29
-112,-94,18,103,-64,-38,66,-20,-727,112,-131,-26
-94,-83,10,88,-52,-36,68,-20,-751,103,-129,-20
-104,-107,-3,106,-51,-55,70,-14,-779,98,-131,-22
-115,-118,-4,117,-55,-61,70,-24,-795,90,-128,-23
-59,-109,-51,84,-4,-80,70,-41,-835,85,-134,-34
-76,-110,-35,93,-20,-72,70,-41,-866,80,-167,-56
-140,-128,12,134,-75,-58,80,-39,-880,75,-171,-55
-107,-147,-40,127,-33,-93,87,-40,-912,71,-171,-56
-107,-144,-38,126,-34,-91,90,-42,-929,66,-176,-60
-110,-140,-29,125,-40,-84,90,-47,-965,62,-173,-60
-107,-164,-57,136,-25,-111,90,-73,-1004,60,-186,-58
-114,-178,-63,146,-25,-120,90,-82,-1016,56,-191,-54
-119,-174,-55,147,-32,-114,90,-73,-1036,54,-189,-56
-124,-175,-50,150,-36,-112,89,-73,-1057,50,-191,-51
-101,-179,-77,140,-12,-128,92,-66,-1074,51,-189,-50
-111,-190,-79,151,-16,-135,100,-66,-1084,60,-191,-50
-119,-190,-71,155,-24,-130,100,-79,-1107,60,-194,-45
-113,-190,-77,152,-18,-133,99,-80,-1122,60,-195,-42
-116,-190,-74,154,-21,-132,96,-80,-1130,60,-194,-38
-110,-190,-80,150,-15,-135,94,-80,-1146,60,-195,-35
-108,-188,-80,148,-13,-134,96,-81,-1151,59,-203,-29
-106,-184,-78,145,-13,-131,94,-95,-1169,54,-206,-41
-110,-186,-76,148,-16,-131,96,-101,-1186,55,-204,-52
-113,-184,-71,149,-20,-127,94,-99,-1186,55,-205,-45
-110,-181,-71,145,-19,-126,99,-100,-1190,55,-204,-43
-115,-179,-65,147,-25,-122,106,-100,-1192,55,-206,-38
-114,-181,-67,148,-24,-123,105,-100,-1195,50,-210,-35
-121,-179,-58,150,-31,-119,104,-96,-1193,63,-210,-32
-127,-182,-55,155,-36,-118,100,-95,-1193,71,-210,-26
-101,-194,-93,148,-4,-144,100,-95,-1194,69,-210,-22
-83,-192,-109,138,13,-150,97,-90,-1188,70,-210,-17
-83,-185,-102,135,10,-143,94,-90,-1182,70,-206,-13
-77,-184,-108,131,16,-146,95,-89,-1177,70,-199,-8
-72,-175,-103,124,16,-139,91,-81,-1172,70,-193,-1
-75,-181,-106,129,16,-144,90,-74,-1155,87,-186,8
-67,-178,-111,123,22,-144,90,-67,-1145,96,-179,15
-69,-152,-83,111,8,-118,98,-61,-1113,115,-168,30
-39,-150,-111,95,36,-131,96,-56,-1082,139,-155,37
3,-146,-148,72,76,-147,74,-57,-1097,132,-152,37
-10,-146,-135,78,63,-140,65,-69,-1097,123,-157,36
-40,-169,-129,105,45,-149,55,-98,-1110,98,-164,24
-83,-207,-124,146,21,-166,59,-105,-1125,68,-189,11
-104,-224,-121,164,9,-172,80,-106,-1124,64,-210,9
-108,-223,-115,166,4,-169,88,-105,-1117,66,-213,1
-100,-217,-117,160,8,-167,83,-104,-1117,60,-217,-1
-104,-214,-111,159,4,-162,85,-108,-1103,62,-223,-6
-99,-213,-114,156,7,-163,87,-99,-1080,58,-223,-12
-111,-209,-98,160,-7,-153,79,-109,-1073,62,-207,0
-135,-244,-109,190,-13,-176,87,-87,-1056,64,-213,-5
-120,-226,-107,173,-6,-166,69,-111,-1059,81,-193,16
-137,-235,-98,186,-19,-166,99,-68,-1002,91,-214,-5
-122,-179,-57,151,-32,-118,112,-53,-985,113,-203,-19
-104,-134,-30,119,-37,-82,179,120,-720,351,-75,20
465,231,-233,-348,349,-1,-172,191,-270,896,650,680
1177,892,-285,-1034,731,303,-991,-578,-440,1169,1510,1599
642,597,-45,-619,343,276,-918,-1102,-1217,389,708,1064
-130,44,174,43,-152,109,-416,-896,-1721,-365,-368,117
-192,-57,135,124,-163,39,-217,-519,-1434,-238,-358,-16
-157,-156,1,157,-79,-77,-34,-232,-1087,-32,-282,-22
-121,-179,-58,150,-31,-118,39,-122,-972,72,-217,-8
-123,-213,-90,168,-16,-151,88,-57,-890,115,-186,-2
-139,-217,-77,178,-31,-147,93,-53,-872,117,-186,-2
-113,-218,-106,166,-4,-162,88,-32,-838,134,-170,14
-120,-228,-108,174,-5,-168,93,-20,-824,139,-175,17
-127,-218,-91,173,-18,-154,84,-15,-804,150,-160,23
-146,-232,-86,189,-30,-159,87,-6,-788,150,-164,17
-115,-217,-103,166,-5,-160,84,-7,-767,150,-154,22
-90,-204,-115,147,13,-159,77,2,-753,138,-154,19
-95,-200,-106,148,6,-153,78,3,-744,154,-149,20
-88,-195,-106,142,9,-151,87,11,-722,176,-145,15
-92,-191,-99,142,4,-145,82,19,-690,177,-143,14
-88,-186,-99,137,6,-142,80,26,-656,174,-135,16
-89,-182,-93,136,2,-137,77,41,-637,184,-129,14
-83,-173,-90,128,3,-131,75,56,-612,201,-123,19
-68,-162,-94,115,14,-128,70,75,-581,219,-116,29
-49,-154,-106,102,29,-130,56,89,-540,236,-105,43
-24,-138,-114,81,45,-125,46,109,-501,258,-81,60
11,-106,-117,48,64,-112,31,137,-469,290,-53,75
49,-72,-121,11,85,-96,18,152,-429,318,-13,100
78,-40,-118,-19,98,-79,-5,172,-385,351,24,130
124,-11,-135,-57,130,-72,-48,171,-345,377,52,159
173,26,-147,-99,160,-60,-80,160,-315,407,97,202
205,61,-144,-132,174,-41,-110,154,-307,430,136,244
232,89,-143,-160,187,-27,-137,145,-311,432,158,273
234,96,-139,-165,186,-21,-160,130,-308,424,168,297
230,88,-141,-159,185,-26,-168,103,-315,416,177,304
208,73,-135,-140,171,-30,-157,67,-346,400,166,296
178,35,-143,-106,160,-53,-143,35,-388,360,135,271
150,-11,-161,-69,155,-85,-124,14,-449,312,96,225
87,-59,-145,-14,116,-102,-92,-7,-498,265,58,189
35,-93,-128,29,82,-110,-44,-18,-528,226,23,155
-10,-128,-118,69,54,-123,-38,-30,-576,194,-25,115
-42,-151,-109,97,34,-130,-36,-44,-597,169,-45,94
-43,-150,-107,97,32,-129,-16,-39,-593,161,-51,77
-52,-155,-103,104,26,-129,-21,-33,-596,157,-56,66
-56,-155,-99,105,22,-127,-15,-28,-593,150,-49,64
-59,-155,-96,107,19,-125,-12,-22,-596,145,-57,61
-74,-166,-92,120,9,-129,-9,-18,-588,139,-62,58
-84,-171,-86,128,1,-128,-3,-15,-567,136,-56,56
-91,-169,-78,131,-7,-124,-14,-12,-547,133,-54,53
-100,-174,-74,137,-13,-123,-21,-9,-530,142,-49,48
-111,-175,-64,144,-23,-119,-20,-5,-515,144,-46,42
-111,-175,-64,143,-23,-119,-20,-6,-474,134,-42,35
-87,-169,-82,128,-2,-126,-20,-15,-423,152,-37,50
-81,-163,-82,123,0,-122,-19,-13,-389,161,-31,67
-86,-159,-73,123,-7,-116,-22,-8,-367,152,-25,64
-80,-152,-72,116,-4,-111,-25,-7,-343,150,-25,65
-89,-149,-60,119,-14,-104,-26,0,-323,144,-25,60
-72,-139,-67,106,-2,-103,-23,-1,-318,141,-25,59
-68,-152,-84,111,8,-118,-35,-16,-315,135,-25,62
-92,-177,-86,135,-3,-131,-47,-21,-311,125,-25,62
-89,-174,-85,132,-2,-129,-41,-19,-307,117,-23,57
-91,-175,-84,133,-3,-129,-39,-20,-304,107,-17,54
-77,-175,-98,126,11,-137,-34,-20,-300,98,-14,51
-68,-174,-106,121,20,-140,-30,-20,-296,95,-9,46
-72,-176,-105,124,17,-141,-32,-24,-294,92,-23,44
-68,-172,-104,121,19,-138,-31,-29,-289,90,-37,39
-81,-188,-106,135,13,-147,-28,-25,-286,86,-33,40
-99,-202,-103,151,2,-152,-25,-20,-282,85,-30,39
-101,-199,-98,150,-2,-148,-23,-18,-276,82,-27,41
-84,-201,-117,142,16,-159,-18,-13,-271,79,-22,39
-76,-199,-123,137,24,-160,-28,-9,-265,76,-19,37
-105,-211,-106,158,1,-158,-36,-21,-260,75,-16,49
-118,-222,-104,170,-7,-163,-34,-27,-254,89,-13,51
-78,-219,-140,149,31,-179,-35,-22,-248,96,-10,49
-77,-221,-144,149,34,-182,-35,-20,-244,90,-7,50
-102,-219,-118,161,8,-168,-35,-16,-238,88,-5,50
-92,-220,-128,156,18,-174,-32,-15,-232,83,-2,49
-69,-225,-156,147,44,-190,-27,-12,-228,79,0,45
-65,-227,-162,146,49,-194,-25,-7,-217,86,4,43
-66,-225,-158,146,47,-191,-20,-5,-208,91,5,39
-63,-224,-161,143,50,-192,-17,0,-196,90,10,37
-70,-229,-158,150,44,-193,-12,3,-192,90,9,33
-72,-236,-164,154,46,-200,-15,7,-203,90,11,48
-93,-262,-170,177,39,-216,-25,10,-196,90,20,62
-87,-266,-178,177,46,-222,-18,15,-184,85,16,59
-66,-251,-185,159,59,-217,-10,19,-176,85,33,60
-82,-257,-175,170,47,-216,-5,21,-164,85,47,60
-81,-253,-172,167,46,-212,4,20,-155,85,44,60
-81,-250,-169,165,44,-209,-2,20,-145,85,46,60
-84,-250,-165,168,40,-207,-12,20,-137,85,43,60
-80,-245,-164,163,42,-204,-8,20,-129,85,59,60
-87,-246,-158,166,36,-201,-5,21,-121,85,66,60
-73,-238,-165,156,46,-201,-3,17,-114,85,66,60
-49,-223,-175,136,63,-199,1,29,-99,83,70,60
-35,-210,-176,123,71,-193,2,49,-78,97,70,70
-29,-202,-174,116,73,-188,7,65,-57,117,89,90
-13,-196,-183,105,85,-189,10,82,-49,115,99,98
17,-189,-207,86,112,-198,-8,74,-49,115,102,102
21,-181,-202,81,112,-191,-39,54,-42,114,98,100
16,-195,-211,90,113,-203,-46,31,-57,80,83,92
-16,-225,-209,120,97,-216,-33,25,-71,54,70,84
-41,-215,-174,129,66,-194,-30,23,-69,48,64,76
-57,-233,-176,145,59,-204,-19,18,-66,41,64,70
-85,-265,-180,175,48,-222,-9,20,-62,33,57,62
-75,-243,-168,159,47,-205,-8,9,-63,25,60,61
-82,-250,-169,166,44,-209,8,24,-55,25,50,51
-86,-244,-158,165,36,-201,2,17,-59,39,63,54
-91,-245,-154,168,32,-199,23,34,-38,42,63,40
-74,-230,-156,153,41,-193,0,16,-44,36,72,54
-71,-230,-159,150,45,-194,20,35,11,43,69,47
-70,-210,-140,140,35,-175,55,59,28,35,41,25
-115,-142,-27,129,-44,-84,99,160,178,192,129,55
198,35,-163,-116,181,-64,-32,389,637,598,540,384
1150,657,-494,-903,822,82,-886,-179,666,930,1413,1302
1140,745,-395,-942,767,174,-1238,-954,91,532,1271,1364
191,156,-35,-173,113,60,-695,-916,-550,-278,155,409
-132,-82,50,107,-91,-16,-339,-498,-515,-388,-127,54
-117,-149,-32,133,-43,-90,-134,-159,-128,-139,-18,62
-107,-185,-79,146,-14,-132,-26,-5,26,-35,45,42
-88,-203,-115,145,14,-158,24,88,120,26,98,54
-96,-210,-114,154,9,-162,49,102,133,32,76,36
-86,-199,-113,143,14,-156,46,117,162,47,97,44
-103,-213,-110,158,4,-161,59,139,173,49,83,38
-107,-213,-105,160,0,-159,55,139,191,55,86,40
-108,-214,-106,161,-1,-159,65,148,223,55,86,43
-103,-207,-104,156,0,-155,64,150,219,66,106,55
-98,-205,-107,152,5,-156,65,158,236,77,113,56
-86,-200,-114,144,14,-157,65,162,258,73,112,54
-64,-198,-134,131,35,-166,65,173,268,88,118,51
-75,-192,-117,134,21,-154,65,190,282,98,118,49
-81,-187,-107,134,13,-147,65,196,297,91,121,51
-33,-184,-151,108,60,-167,61,209,310,107,123,49
-12,-179,-167,96,77,-172,54,235,345,119,143,52
-8,-175,-167,92,80,-171,48,233,357,119,151,42
-28,-164,-136,96,54,-149,41,263,392,155,162,67
-15,-144,-129,79,57,-136,34,296,429,182,176,89
31,-118,-149,44,90,-133,29,312,463,201,200,92
30,-91,-122,31,76,-106,14,345,513,232,237,121
69,-57,-126,-6,98,-91,-9,350,539,257,250,132
93,-24,-117,-35,106,-70,-26,362,582,287,283,162
154,18,-135,-86,144,-58,-56,375,618,319,332,205
203,42,-160,-122,181,-59,-86,365,642,338,368,235
213,66,-146,-139,179,-40,-112,355,655,352,397,271
291,112,-180,-201,235,-34,-139,339,645,358,421,297
287,100,-187,-193,237,-43,-141,311,629,335,419,307
251,86,-164,-168,207,-39,-130,270,599,314,410,304
243,69,-174,-156,208,-52,-123,230,561,279,403,288
191,22,-169,-106,180,-73,-116,197,496,225,363,250
143,-9,-151,-67,147,-80,-96,169,430,189,316,210
77,-57,-133,-10,105,-95,-67,147,386,151,275,170
8,-92,-101,42,54,-96,-51,131,350,110,244,131
15,-109,-124,47,70,-116,-39,125,319,76,223,107
-8,-136,-128,72,60,-132,-27,120,293,56,202,89
-31,-139,-108,86,39,-123,-19,114,289,53,192,80
-2,-131,-129,67,64,-130,-6,108,290,49,186,75
-14,-130,-116,72,51,-123,-7,105,290,45,179,67
-22,-122,-100,73,39,-111,-19,105,290,41,172,61
-22,-121,-99,72,39,-110,-16,105,290,40,166,55
-8,-125,-117,67,55,-121,-9,105,293,47,164,55
-8,-123,-115,66,54,-119,-5,105,299,48,167,54
-22,-117,-95,70,37,-106,3,105,315,55,171,50
-23,-114,-91,68,34,-102,3,109,316,59,166,50
-28,-109,-81,69,27,-95,-8,110,311,51,166,49
-23,-103,-80,63,29,-91,-13,110,330,69,184,51
-22,-102,-80,62,29,-91,-8,110,342,76,191,49
-12,-88,-76,50,32,-82,-7,110,339,76,189,52
-30,-104,-74,68,22,-89,-3,109,340,89,190,64
-56,-132,-76,95,10,-104,0,105,341,82,191,60
-48,-126,-78,87,16,-102,1,105,338,75,188,51
-41,-124,-82,82,21,-103,10,105,341,69,192,47
-47,-119,-73,83,13,-96,12,105,348,59,199,37
-37,-116,-79,77,22,-98,9,105,341,58,190,38
-22,-111,-89,67,34,-99,5,100,334,58,184,49
-31,-117,-86,74,28,-102,7,92,328,51,176,43
-33,-136,-103,85,36,-119,17,86,322,43,169,35
-58,-138,-80,98,11,-109,15,79,318,37,163,29
-53,-138,-85,96,16,-111,15,69,313,27,157,18
-21,-134,-113,78,47,-123,16,69,309,29,153,21
-34,-135,-101,85,34,-118,14,75,304,33,148,29
-19,-135,-116,77,49,-125,16,70,301,26,144,23
-15,-134,-119,75,52,-126,11,65,299,19,138,15
-39,-150,-111,95,36,-130,7,62,297,11,136,11
-47,-156,-109,102,31,-132,1,55,292,3,125,0
-48,-150,-102,99,27,-126,3,58,301,2,131,8
-47,-148,-100,98,27,-124,23,65,320,8,155,26
-49,-144,-95,97,23,-119,26,65,320,11,152,23
-46,-139,-94,93,24,-116,22,63,319,16,146,19
-57,-144,-87,100,15,-115,20,60,321,13,143,16
-60,-147,-87,104,14,-116,16,60,319,22,137,11
-72,-151,-79,112,3,-115,15,60,322,45,135,11
-70,-162,-92,116,11,-127,18,59,326,55,135,15
-53,-158,-106,106,27,-132,24,61,330,74,135,15
-60,-150,-90,105,15,-120,21,63,325,73,135,15
-44,-144,-100,94,28,-122,27,72,315,79,135,16
-52,-140,-88,97,18,-114,36,75,328,95,135,-4
-59,-138,-79,99,10,-108,27,70,342,93,138,-12
-61,-147,-86,104,12,-116,25,68,339,91,140,-5
-79,-156,-78,118,0,-117,20,63,337,90,140,-5
-69,-144,-74,107,3,-109,15,60,335,89,140,0
-65,-132,-67,98,2,-99,18,64,333,84,139,1
-68,-130,-63,99,-2,-96,22,71,343,85,141,4
-69,-130,-60,100,-5,-95,25,76,355,83,145,7
-58,-129,-72,94,7,-100,25,74,357,79,145,-2
-47,-137,-91,92,22,-114,25,78,360,80,145,-5
-43,-129,-86,86,22,-107,25,80,359,79,145,1
-52,-131,-79,92,13,-105,25,80,368,80,144,7
-42,-127,-85,85,22,-106,26,83,378,79,149,12
-6,-91,-85,49,39,-87,25,92,401,104,161,19
27,-81,-108,27,68,-94,31,117,432,133,172,36
12,-90,-102,39,57,-95,26,124,430,135,179,45
-3,-94,-90,49,44,-92,15,99,420,125,171,37
36,-92,-128,29,83,-110,-1,64,409,109,159,29
-2,-119,-116,61,57,-117,-8,53,408,98,148,21
-40,-145,-105,93,32,-125,0,57,411,93,136,11
-42,-136,-94,90,26,-115,3,52,408,91,131,8
-55,-142,-88,99,16,-115,23,58,412,86,120,-1
-61,-131,-69,96,4,-100,24,51,407,83,117,-1
-70,-139,-68,105,0,-103,26,55,415,79,105,-13
-49,-129,-81,89,16,-105,17,37,411,75,103,-12
-57,-113,-55,85,-1,-84,20,65,422,76,101,-10
-81,-132,-51,106,-15,-91,14,66,418,72,97,-18
-94,-137,-44,116,-25,-90,12,51,437,78,106,-17
-75,-120,-45,98,-15,-82,45,89,461,75,88,-26
-77,-44,33,61,-55,-5,89,146,557,184,140,-19
145,68,-77,-107,111,-4,64,417,970,526,439,208
1029,630,-399,-830,714,116,-666,33,1119,904,1243,1062
1266,927,-339,-1096,802,294,-1204,-847,603,648,1346,1350
310,381,71,-345,119,225,-738,-994,-109,-145,308,469
-158,70,228,44,-193,149,-354,-604,-197,-368,-127,-20
-88,22,110,33,-99,66,-168,-206,198,-145,-17,-31
-101,-45,56,73,-78,6,-24,-14,391,-3,43,-49
-72,-70,1,71,-36,-34,17,77,475,63,95,-33
-71,-95,-24,83,-23,-59,47,95,493,61,66,-43
-61,-86,-25,74,-18,-55,58,112,512,84,78,-29
-54,-93,-38,74,-8,-65,69,130,526,85,66,-29
-57,-89,-32,73,-13,-60,63,113,515,95,64,-23
-36,-90,-54,63,9,-72,71,140,524,102,82,-18
-36,-91,-55,64,10,-72,71,150,517,99,88,-16
-46,-94,-48,70,1,-71,78,150,522,100,81,-19
-47,-95,-48,71,1,-71,81,155,519,103,73,-19
-54,-96,-43,76,-5,-70,79,153,520,121,68,-12
-44,-91,-47,68,2,-69,81,169,520,117,60,-11
-51,-95,-43,74,-4,-69,79,176,520,114,72,-6
-48,-84,-37,66,-6,-60,79,174,520,115,77,-2
-2,-59,-57,30,28,-58,72,202,522,134,73,0
-2,-63,-61,33,30,-62,68,211,526,142,77,7
1,-60,-61,30,31,-60,63,226,524,151,71,13
20,-47,-67,14,44,-57,56,253,535,181,93,30
30,-26,-56,-1,43,-41,52,263,553,196,114,52
69,12,-57,-40,63,-22,42,286,570,223,122,64
85,45,-40,-65,62,2,24,296,588,250,154,74
140,68,-72,-104,105,-2,0,304,615,277,178,114
235,106,-129,-170,181,-11,-31,323,635,309,210,156
254,130,-124,-192,189,3,-60,324,633,323,244,180
285,160,-125,-222,205,17,-85,317,647,345,275,227
304,179,-125,-241,214,27,-109,294,635,349,293,256
295,163,-132,-229,213,15,-113,260,591,335,289,259
296,156,-140,-226,217,8,-103,227,557,318,285,260
259,139,-120,-199,189,9,-100,184,495,280,276,254
237,110,-127,-174,182,-8,-80,153,430,258,246,233
198,71,-127,-134,162,-28,-43,140,363,208,196,188
117,30,-87,-73,101,-28,-24,112,287,147,152,151
61,-9,-70,-26,65,-39,-13,90,244,127,109,103
36,-33,-70,-1,54,-51,3,84,206,100,72,64
26,-37,-63,6,45,-50,16,77,160,77,43,52
10,-42,-52,16,32,-47,31,71,120,64,27,43
-10,-51,-41,31,16,-46,39,64,89,49,19,32
1,-60,-61,30,31,-60,41,61,69,44,11,24
20,-62,-83,21,52,-72,44,62,55,39,1,19
-9,-74,-65,41,29,-69,44,59,50,34,-16,13
-33,-72,-39,53,3,-55,58,56,48,31,-16,9
-23,-63,-40,43,9,-51,61,53,44,23,-21,0
-27,-58,-31,43,2,-44,59,49,42,35,-30,9
-13,-50,-37,32,12,-43,61,51,39,47,-23,22
6,-46,-52,20,29,-49,59,55,47,44,-19,23
-2,-43,-41,23,20,-42,60,52,73,56,-13,39
-14,-51,-36,33,11,-43,60,47,82,61,-7,47
-27,-56,-29,41,1,-42,60,44,79,59,-7,43
-26,-49,-22,38,-2,-35,60,41,81,60,-12,46
-19,-48,-28,34,5,-38,60,36,79,60,-15,44
31,-42,-72,6,52,-57,59,35,80,60,-21,47
30,-40,-69,5,50,-55,65,36,73,53,-19,55
-21,-48,-28,35,4,-38,71,30,63,46,-22,53
-2,-56,-54,29,27,-55,69,25,55,39,-36,49
-10,-75,-65,43,28,-70,71,22,45,31,-48,46
-6,-80,-74,43,34,-77,68,15,38,23,-48,41
6,-84,-90,39,48,-86,85,23,31,26,-51,38
-13,-95,-82,55,35,-89,97,31,27,29,-72,35
-8,-95,-87,52,40,-91,94,22,21,22,-76,32
-11,-94,-83,53,37,-89,96,20,15,17,-77,30
-10,-97,-87,54,39,-92,94,14,11,11,-88,26
-26,-110,-84,68,29,-97,96,11,-2,5,-98,25
-28,-109,-81,69,26,-95,90,13,-18,0,-101,29
-23,-121,-99,72,38,-110,93,16,-35,-6,-99,30
-32,-133,-101,83,34,-117,110,25,-44,-12,-101,30
-27,-126,-99,76,36,-112,110,23,-64,-15,-106,30
-30,-126,-96,78,34,-111,105,19,-105,-15,-114,31
-26,-121,-94,74,34,-107,104,16,-130,-15,-115,28
-26,-120,-95,73,34,-107,99,11,-153,-15,-115,39
-29,-116,-87,73,29,-102,103,9,-180,-16,-116,50
-32,-115,-83,73,26,-99,115,5,-206,-14,-114,42
-38,-115,-77,77,20,-95,115,5,-238,-23,-122,35
-38,-110,-72,74,17,-91,115,5,-265,-31,-126,30
-46,-110,-64,78,9,-87,115,5,-289,-30,-125,21
-33,-110,-77,72,22,-93,117,5,-305,-30,-125,24
-42,-130,-88,86,23,-108,121,1,-326,-30,-125,35
-60,-141,-82,101,11,-111,119,0,-347,-30,-137,35
-39,-135,-96,87,29,-115,121,0,-362,-27,-141,35
-43,-133,-90,88,24,-111,119,0,-379,-24,-139,35
-25,-128,-103,77,39,-115,122,0,-390,-26,-137,35
-1,-125,-124,63,62,-124,135,1,-407,-24,-134,34
-4,-122,-118,63,57,-120,135,7,-411,-26,-136,36
1,-120,-121,59,61,-120,135,10,-416,-24,-128,34
1,-118,-119,59,60,-119,135,16,-420,-10,-121,35
25,-96,-121,36,73,-108,135,18,-410,3,-111,56
56,-65,-121,5,89,-93,134,36,-409,23,-105,79
60,-83,-144,12,102,-113,109,43,-415,38,-96,95
62,-106,-167,22,115,-136,98,12,-425,27,-92,84
61,-96,-157,18,109,-127,100,-13,-457,4,-109,70
35,-117,-153,41,95,-135,101,-29,-483,-25,-137,60
19,-128,-147,54,84,-137,105,-40,-482,-31,-141,51
2,-124,-125,61,64,-124,114,-41,-484,-21,-140,44
-24,-141,-117,83,46,-129,130,-38,-503,-50,-164,34
-25,-137,-112,82,44,-124,121,-43,-501,-67,-163,38
-27,-144,-117,85,45,-130,127,-39,-483,-58,-168,26
-24,-131,-106,77,42,-118,131,-56,-492,-54,-158,34
-27,-139,-113,83,43,-126,145,-38,-465,-43,-162,18
-24,-131,-107,77,42,-118,137,-41,-458,-44,-159,32
-36,-123,-87,80,26,-105,139,-34,-425,-41,-151,25
-24,-116,-92,70,34,-104,162,-6,-394,-28,-174,-12
-25,-66,-41,46,9,-54,209,65,-269,109,-124,5
265,100,-165,-182,215,-33,122,301,211,540,309,345
1058,772,-285,-915,671,243,-623,-164,345,1053,1352,1389
995,913,-82,-954,538,416,-980,-938,-301,667,1223,1465
109,307,198,-208,-45,252,-486,-977,-1050,-324,-79,383
-130,86,215,22,-173,150,-189,-627,-1024,-488,-404,5
-56,8,64,23,-60,36,-17,-273,-589,-216,-264,0
-53,-56,-3,54,-25,-29,104,-118,-424,-94,-224,-26
-20,-76,-56,48,18,-65,143,-56,-329,-23,-174,1
-14,-91,-77,52,32,-84,171,-30,-300,-24,-190,-12
6,-71,-77,33,42,-74,171,-28,-275,-11,-168,8
-4,-78,-74,41,36,-76,188,-14,-240,-6,-178,5
4,-63,-67,29,36,-64,182,-14,-230,10,-165,5
2,-63,-65,31,34,-64,187,0,-209,24,-166,-8
-12,-71,-59,42,23,-65,184,6,-195,25,-162,-1
-21,-74,-53,48,16,-63,185,18,-171,25,-158,2
-23,-67,-45,45,11,-56,186,28,-160,25,-161,4
-30,-63,-33,47,2,-48,181,29,-144,25,-154,11
-21,-60,-38,41,9,-49,180,37,-133,26,-156,6
15,-53,-68,19,42,-60,175,45,-110,31,-153,5
19,-52,-72,17,45,-62,174,52,-72,42,-148,4
21,-44,-65,12,43,-54,169,73,-46,49,-142,6
16,-49,-65,17,41,-57,172,77,-17,52,-137,4
15,-45,-60,15,38,-52,184,94,12,79,-124,16
57,-2,-59,-28,58,-30,165,111,48,94,-102,29
89,20,-69,-54,78,-24,144,121,90,118,-83,44
103,31,-72,-67,88,-20,135,145,134,154,-55,71
139,74,-65,-106,102,4,118,150,182,183,-15,94
172,118,-54,-145,113,32,98,165,223,223,26,131
232,148,-84,-190,158,32,59,176,242,237,56,162
302,187,-115,-244,208,36,16,167,257,260,93,202
329,223,-106,-276,218,58,-9,159,281,282,133,248
355,250,-104,-302,229,73,-30,130,275,270,155,272
356,255,-101,-306,229,77,-42,100,250,259,156,275
328,231,-96,-279,212,67,-36,71,220,248,146,260
287,197,-90,-242,188,54,-21,39,184,222,127,251
234,154,-80,-194,157,37,-5,12,145,177,92,226
179,109,-70,-144,124,20,26,-13,95,128,48,173
125,71,-54,-97,89,8,52,-28,49,84,1,114
76,33,-42,-54,59,-4,73,-42,13,47,-46,76
44,7,-37,-25,41,-14,90,-52,-3,18,-81,49
22,-5,-27,-8,24,-16,99,-53,-13,4,-97,22
25,-17,-42,-4,34,-29,108,-50,-26,-2,-117,12
33,-15,-48,-9,41,-31,110,-47,-25,-9,-132,6
22,-8,-30,-7,26,-19,110,-44,-17,-16,-134,-1
29,-5,-34,-12,32,-19,109,-41,-11,-23,-132,-8
28,0,-28,-14,28,-14,113,-40,-4,-23,-127,-14
23,6,-18,-14,20,-6,121,-46,5,-19,-124,-19
-5,-1,5,3,-5,2,117,-53,15,-17,-121,-24
-28,-12,16,19,-22,2,113,-55,31,-14,-116,-19
-22,-7,15,14,-18,4,110,-55,47,-11,-114,-16
-4,11,15,-4,-10,13,105,-55,54,-9,-109,-13
3,17,14,-10,-5,15,103,-55,76,-6,-106,-8
2,22,20,-12,-9,21,100,-55,91,-3,-103,-5
38,44,6,-41,16,24,97,-61,88,0,-98,-1
22,41,19,-32,1,30,94,-63,99,2,-95,6
6,34,28,-21,-11,30,90,-59,104,6,-91,9
22,30,9,-26,6,19,90,-61,95,2,-90,4
16,23,7,-20,4,15,90,-60,89,-6,-90,-1
15,19,4,-18,5,11,90,-60,83,-12,-85,-5
21,14,-7,-17,13,4,90,-72,73,-20,-86,-10
10,15,6,-12,1,11,88,-76,54,-28,-83,-15
-2,15,17,-7,-10,16,98,-74,31,-34,-95,-19
15,15,0,-15,7,7,100,-76,-3,-36,-107,-33
23,15,-8,-19,15,3,94,-74,-44,-47,-104,-49
10,11,2,-11,4,6,92,-76,-67,-51,-105,-50
-8,9,18,-1,-13,13,87,-79,-92,-50,-105,-50
-8,6,14,0,-11,10,84,-80,-121,-59,-105,-50
-8,3,11,2,-10,7,81,-80,-140,-55,-102,-50
-7,1,8,3,-8,4,80,-78,-164,-59,-99,-51
-18,-2,16,10,-17,7,80,-75,-177,-71,-101,-58
-37,-5,32,21,-34,13,80,-75,-195,-69,-99,-56
-33,-11,22,21,-28,6,79,-75,-208,-70,-101,-55
-33,-11,22,22,-27,5,83,-75,-203,-69,-99,-54
-32,-19,13,25,-22,-3,86,-76,-207,-71,-93,-58
-19,-17,2,18,-11,-7,85,-77,-202,-70,-87,-70
-10,-24,-13,17,2,-18,84,-75,-212,-72,-82,-70
4,-46,-49,21,27,-47,80,-72,-237,-85,-76,-70
-10,-30,-20,20,5,-24,80,-69,-241,-85,-70,-70
-16,-23,-8,20,-3,-15,78,-66,-244,-84,-75,-70
19,-26,-46,4,33,-36,73,-64,-246,-80,-77,-69
8,-24,-32,8,21,-28,70,-61,-256,-80,-75,-65
-9,-34,-25,22,9,-30,67,-60,-251,-79,-75,-65
-12,-35,-23,24,6,-29,62,-60,-255,-74,-70,-65
-10,-35,-25,23,8,-30,60,-60,-277,-90,-70,-65
1,-32,-33,15,18,-32,65,-59,-282,-96,-69,-65
-3,-29,-26,16,11,-27,66,-67,-288,-94,-64,-61
-5,-31,-26,19,11,-28,65,-69,-286,-95,-58,-60
-5,-23,-18,14,7,-20,64,-61,-281,-95,-55,-60
6,-20,-26,7,16,-23,61,-54,-279,-95,-49,-60
28,-12,-39,-8,34,-25,59,-48,-274,-85,-47,-61
30,-9,-39,-10,34,-24,63,-38,-271,-69,-35,-59
26,-2,-29,-12,28,-16,60,-24,-269,-60,-12,-54
44,5,-40,-24,42,-17,51,-13,-270,-60,-5,-49
62,-7,-69,-27,66,-38,43,1,-269,-60,-1,-44
96,31,-66,-63,81,-17,33,-6,-270,-60,1,-40
93,37,-56,-65,74,-9,31,-26,-281,-67,6,-35
53,1,-52,-27,53,-25,28,-47,-308,-89,-8,-48
26,-17,-43,-4,35,-30,28,-60,-329,-115,-40,-75
18,-21,-39,2,29,-30,20,-62,-331,-115,-40,-70
16,-18,-34,1,25,-25,37,-53,-329,-117,-38,-79
-16,-39,-23,28,3,-31,51,-56,-352,-133,-34,-103
-4,-48,-44,27,20,-46,46,-49,-346,-129,-31,-112
-17,-35,-17,26,0,-26,45,-47,-341,-131,-31,-109
-39,-23,15,31,-27,-4,35,-50,-336,-128,-23,-109
-25,-27,-2,26,-12,-14,43,-35,-322,-131,-23,-113
-3,-9,-6,6,2,-7,21,-61,-332,-130,-1,-103
6,-25,-31,10,19,-28,49,-6,-286,-118,-4,-125
-51,8,60,21,-55,34,82,4,-257,-71,36,-105
29,76,47,-53,-9,61,123,225,69,194,182,-31
743,525,-218,-634,480,153,-370,150,422,676,939,689
1359,1052,-308,-1205,833,372,-1159,-712,114,742,1550,1423
698,656,-42,-677,369,307,-948,-1090,-611,-42,647,747
-18,187,205,-85,-111,195,-434,-795,-969,-590,-177,-38
-61,101,162,-20,-112,131,-220,-400,-638,-410,-123,-124
-62,29,91,16,-77,60,-57,-145,-344,-230,-55,-143
-18,33,51,-8,-35,42,-1,-44,-247,-145,5,-127
-32,-6,26,19,-29,10,55,12,-179,-109,20,-131
-31,-10,20,20,-25,5,54,24,-160,-103,30,-126
-26,-23,3,25,-14,-10,53,48,-114,-93,30,-123
-67,-37,30,52,-48,-4,68,55,-97,-92,41,-122
-41,-24,17,32,-28,-4,74,72,-75,-82,50,-112
-34,-25,9,29,-21,-8,74,68,-68,-79,37,-113
-36,-15,21,25,-28,3,67,81,-57,-72,64,-105
-23,-11,12,17,-17,0,66,97,-37,-67,81,-102
-23,-18,6,20,-14,-6,59,103,-25,-58,81,-97
-24,-24,-1,24,-11,-12,62,116,2,-49,75,-94
-29,-36,-7,33,-11,-22,60,122,29,-41,79,-96
-21,-35,-14,28,-3,-24,57,136,49,-33,95,-94
-8,-19,-11,13,2,-14,55,143,68,-26,100,-96
22,-13,-36,-5,29,-24,51,156,84,-20,103,-100
24,-2,-27,-11,26,-14,51,176,124,-11,122,-95
0,17,17,-8,-9,17,43,196,166,7,137,-86
51,50,-1,-50,26,24,26,218,197,31,152,-69
108,81,-27,-94,67,27,9,235,246,50,175,-46
114,108,-6,-111,60,51,-5,252,293,84,202,-29
119,137,18,-129,51,77,-33,272,335,114,233,-7
176,178,2,-177,87,90,-74,278,377,132,264,26
240,214,-26,-227,133,94,-100,274,418,155,315,70
276,245,-31,-260,154,106,-134,262,438,166,343,102
336,280,-56,-308,196,112,-168,251,438,168,356,126
344,282,-63,-313,204,109,-177,238,434,157,387,154
317,276,-41,-296,178,117,-183,207,422,148,392,164
324,260,-64,-292,194,98,-178,165,386,133,383,162
280,225,-55,-252,167,85,-154,122,337,95,362,141
210,181,-29,-195,119,76,-126,96,288,45,318,90
170,139,-31,-154,100,53,-100,78,241,-8,267,39
122,103,-19,-112,70,42,-77,57,201,-53,218,-5
82,72,-9,-77,45,31,-62,50,174,-89,184,-45
60,57,-3,-58,31,27,-54,50,169,-116,165,-67
24,43,18,-34,3,30,-45,50,167,-129,156,-78
0,32,32,-16,-17,32,-37,50,163,-128,155,-101
-11,19,30,-4,-20,24,-31,50,161,-143,155,-107
-21,7,28,7,-25,17,-26,46,160,-152,150,-104
-1,24,25,-12,-13,24,-21,44,164,-149,150,-106
7,32,25,-20,-9,28,-15,46,178,-150,150,-105
1,29,28,-15,-14,29,-10,43,186,-150,149,-104
-6,30,37,-12,-22,33,-6,57,200,-150,160,-99
-9,30,39,-10,-24,35,-3,72,221,-145,166,-101
-14,30,43,-8,-28,36,0,69,221,-140,168,-97
-10,34,44,-12,-27,39,2,70,233,-135,171,-95
-8,36,43,-14,-26,39,6,70,246,-132,174,-94
-22,31,53,-5,-38,42,2,70,251,-125,178,-102
-1,45,46,-22,-24,45,0,67,271,-128,180,-112
5,44,39,-25,-17,41,0,61,276,-135,186,-106
3,34,31,-19,-14,32,0,57,286,-136,188,-104
6,29,24,-18,-9,26,0,52,306,-134,182,-98
1,19,18,-10,-9,18,0,48,313,-136,177,-97
8,18,10,-13,-1,14,1,43,318,-146,174,-89
-6,18,24,-6,-15,21,4,40,316,-157,168,-96
-3,24,27,-11,-15,25,7,40,328,-171,166,-121
-18,-3,15,10,-17,6,9,38,340,-169,175,-119
-39,-26,12,32,-25,-7,13,35,352,-176,173,-121
-12,-12,0,12,-6,-6,15,35,363,-191,169,-125
-17,-17,0,17,-8,-8,18,39,361,-192,166,-125
-24,-20,4,22,-14,-7,20,40,374,-203,161,-123
-15,-15,1,15,-8,-7,20,40,390,-205,159,-119
-24,-9,15,16,-20,3,21,44,395,-204,155,-117
-41,-29,12,35,-26,-8,18,46,404,-208,155,-114
-51,-53,-2,53,-25,-28,25,43,417,-211,167,-111
-43,-46,-4,45,-19,-25,32,40,426,-224,171,-110
-54,-44,9,49,-31,-17,29,39,436,-232,169,-118
-36,-41,-4,39,-16,-23,28,41,456,-227,171,-121
-24,-36,-12,30,-5,-24,24,39,465,-231,169,-116
-49,-34,15,42,-32,-10,26,40,474,-245,171,-114
-39,-27,12,33,-26,-7,24,42,486,-245,169,-111
-37,-21,16,29,-27,-2,28,49,500,-244,174,-108
-15,-31,-17,23,1,-24,40,64,525,-245,185,-114
-23,-35,-12,29,-6,-23,38,64,536,-244,185,-126
-53,-26,27,39,-39,1,34,58,544,-248,185,-125
-35,-25,10,30,-22,-7,31,57,551,-250,185,-125
-39,-17,22,28,-31,2,26,50,562,-250,184,-125
-35,-17,18,26,-26,0,24,50,572,-254,187,-125
-45,-29,16,36,-30,-6,35,57,585,-255,190,-125
-41,-32,8,36,-24,-11,41,61,610,-254,190,-125
-8,-36,-28,22,11,-32,43,59,609,-258,189,-125
-7,-34,-27,21,11,-30,46,60,627,-260,190,-125
-41,-38,3,40,-22,-17,45,60,648,-260,189,-125
-49,-46,3,48,-26,-21,45,60,650,-260,187,-124
-34,-39,-5,37,-14,-22,45,61,675,-259,182,-118
-29,-36,-7,33,-11,-21,45,58,672,-265,182,-112
-15,-31,-16,23,1,-23,45,69,692,-266,201,-107
-34,-26,8,30,-21,-9,43,81,719,-257,211,-101
-34,-28,6,30,-19,-11,40,84,730,-247,209,-96
-2,-6,-4,4,1,-5,37,89,752,-251,208,-101
21,14,-7,-17,14,3,34,97,777,-261,227,-100
29,-1,-30,-14,29,-15,32,110,825,-259,247,-84
43,-1,-44,-21,44,-22,28,104,828,-260,244,-77
81,16,-65,-49,73,-24,25,96,830,-261,252,-68
64,-6,-70,-29,67,-38,10,89,841,-258,242,-69
15,-47,-62,17,39,-54,9,82,834,-271,219,-100
3,-57,-60,27,32,-58,26,77,833,-280,220,-112
2,-52,-54,25,29,-53,30,67,827,-269,220,-108
-22,-72,-50,47,14,-60,46,66,825,-284,213,-112
-26,-75,-49,51,12,-62,42,57,829,-293,217,-107
-45,-78,-33,62,-5,-56,49,72,864,-286,211,-113
-41,-71,-30,56,-5,-50,41,57,866,-288,212,-111
-35,-75,-40,55,2,-57,48,72,888,-278,209,-120
-63,-67,-4,65,-30,-35,45,61,890,-286,209,-111
-52,-71,-19,62,-16,-45,39,63,910,-265,213,-117
-73,-72,1,72,-37,-35,79,99,939,-246,209,-119
-110,-8,101,59,-105,46,124,178,1068,-139,269,-97
224,160,-64,-192,144,48,20,426,1495,216,607,159
1141,753,-389,-947,765,182,-788,-57,1577,558,1438,1038
1259,910,-349,-1084,804,280,-1239,-885,1039,223,1391,1188
294,344,50,-319,122,197,-710,-939,391,-564,338,273
-123,70,193,26,-158,131,-337,-517,377,-711,16,-133
-82,19,101,31,-92,59,-124,-134,782,-459,124,-137
-76,-17,58,46,-67,21,2,27,952,-343,176,-136
-45,-50,-5,47,-20,-27,32,117,1042,-289,219,-116
-89,-71,17,80,-53,-27,81,140,1078,-287,207,-132
-98,-64,34,80,-65,-15,75,146,1096,-269,226,-120
-93,-75,18,84,-55,-29,88,165,1121,-264,218,-127
-80,-60,20,70,-50,-20,90,178,1147,-252,238,-118
-86,-78,8,82,-47,-35,90,191,1171,-241,231,-121
-105,-97,8,101,-56,-44,98,196,1182,-234,228,-118
-95,-93,2,94,-48,-45,109,213,1213,-220,244,-113
-94,-97,-3,96,-45,-50,110,226,1237,-217,262,-117
-86,-92,-5,90,-40,-49,102,230,1250,-210,266,-109
-58,-101,-43,80,-7,-71,101,236,1262,-208,266,-112
-51,-103,-52,77,1,-77,94,251,1294,-192,271,-108
-91,-100,-9,96,-41,-54,91,268,1311,-186,270,-103
-89,-107,-19,98,-34,-63,101,280,1335,-196,269,-115
-47,-74,-27,61,-10,-51,97,286,1368,-178,270,-107
-32,-56,-24,45,-4,-39,83,316,1393,-161,277,-94
-15,-37,-22,26,4,-30,73,331,1432,-144,281,-86
24,4,-19,-14,21,-7,62,350,1464,-121,304,-72
39,19,-20,-29,29,0,54,377,1501,-103,326,-54
53,60,8,-57,22,34,38,394,1544,-78,357,-40
99,103,3,-101,48,53,7,409,1584,-52,381,-9
132,125,-8,-128,70,58,-31,409,1620,-22,402,32
197,179,-18,-187,107,80,-63,399,1622,-11,444,62
248,210,-37,-229,142,86,-93,381,1612,-17,458,89
266,215,-51,-240,158,82,-121,364,1608,-10,467,119
289,214,-75,-251,182,69,-135,338,1593,-10,485,139
273,201,-73,-237,173,64,-138,308,1565,-21,478,135
239,181,-58,-210,148,61,-124,272,1515,-38,462,126
189,140,-49,-164,118,45,-95,222,1457,-90,432,102
134,100,-34,-117,84,33,-66,194,1404,-135,386,57
84,60,-25,-72,54,17,-38,185,1355,-167,333,6
33,22,-11,-28,22,6,-22,172,1315,-206,296,-27
-4,-3,1,4,-2,-1,-13,163,1283,-235,276,-53
-30,-19,10,24,-20,-4,-2,159,1265,-253,247,-77
-55,-30,25,43,-40,-2,0,157,1264,-270,233,-87
-56,-33,23,45,-39,-5,3,154,1264,-290,229,-99
-65,-30,35,47,-50,3,6,151,1264,-290,222,-103
-92,-49,43,70,-67,-3,9,150,1264,-289,218,-103
-88,-55,33,72,-60,-11,10,150,1263,-290,212,-105
-70,-45,25,57,-47,-10,4,150,1257,-290,210,-109
-69,-45,24,57,-46,-10,14,149,1274,-288,206,-111
-83,-38,45,60,-64,3,22,151,1288,-282,204,-108
-79,-35,44,56,-61,4,19,149,1280,-279,200,-105
-80,-29,51,54,-65,11,20,153,1300,-274,200,-105
-83,-17,66,50,-74,24,20,160,1313,-269,199,-106
-93,-32,61,62,-76,14,20,156,1317,-266,200,-119
-91,-37,54,63,-72,9,17,153,1323,-261,210,-118
-81,-16,65,48,-73,24,11,149,1332,-259,208,-105
-106,-25,81,66,-94,28,7,145,1350,-254,205,-105
-119,-44,75,81,-96,15,2,143,1348,-250,202,-105
-115,-46,70,80,-92,11,-2,139,1355,-250,200,-105
-112,-45,68,78,-89,11,-7,140,1361,-265,197,-105
-105,-45,60,75,-82,7,-10,140,1356,-288,188,-104
-106,-45,61,76,-83,7,-10,140,1354,-290,180,-98
-103,-44,59,74,-81,7,-10,139,1350,-292,171,-102
-111,-50,61,81,-86,5,-10,136,1349,-294,162,-119
-129,-56,73,92,-101,9,-10,133,1346,-303,152,-131
-100,-50,50,75,-75,0,-14,130,1343,-320,142,-129
-103,-48,56,75,-79,4,-15,127,1340,-320,133,-130
-132,-44,88,88,-109,22,-9,125,1338,-320,126,-135
-118,-38,80,77,-99,21,-11,122,1333,-319,119,-130
-117,-55,62,86,-89,3,-9,120,1336,-329,112,-140
-135,-67,68,100,-101,1,-12,120,1352,-343,106,-152
-150,-60,91,105,-121,16,-8,116,1357,-332,99,-149
-149,-58,91,104,-120,16,-17,114,1355,-335,111,-151
-142,-53,89,98,-115,17,-38,115,1355,-353,114,-149
-141,-50,91,95,-116,21,-34,114,1353,-351,105,-150
-144,-54,90,99,-117,18,-96,116,1357,-342,100,-150
-136,-61,75,98,-106,7,-90,112,1365,-341,92,-151
