I,II,III,aVR,aVL,aVF,V1,V2,V3,V4,V5,V6
-55,-355,-300,205,123,-327,115,60,115,-150,-100,-40
-57,-355,-298,206,121,-326,115,60,114,-150,-100,-40
-59,-351,-293,205,117,-322,115,60,108,-150,-100,-40
-59,-349,-290,204,115,-319,115,57,105,-150,-97,-40
-64,-346,-281,206,109,-313,114,54,100,-150,-94,-40
-55,-344,-289,200,117,-316,115,55,95,-150,-96,-40
-51,-340,-289,196,119,-315,109,51,91,-158,-110,-48
-65,-339,-275,202,105,-307,106,45,85,-160,-116,-53
-79,-340,-261,209,91,-301,101,40,79,-160,-114,-49
-62,-340,-277,201,107,-308,98,35,74,-168,-115,-50
-43,-340,-297,192,127,-318,124,27,68,-171,-115,-50
-54,-340,-285,197,115,-312,131,28,65,-170,-115,-50
-58,-340,-282,199,112,-311,123,36,62,-170,-121,-50
-63,-340,-276,202,107,-308,123,35,60,-180,-123,-57
-70,-340,-270,205,100,-305,117,35,56,-186,-119,-68
-69,-339,-271,204,101,-305,115,36,55,-184,-120,-70
-79,-340,-261,210,91,-301,110,34,52,-185,-120,-70
-78,-344,-266,211,95,-305,110,37,49,-185,-120,-71
-96,-346,-251,221,78,-298,110,40,50,-185,-120,-69
-94,-350,-256,222,81,-303,110,40,49,-190,-125,-70
-65,-348,-282,207,109,-315,110,42,51,-198,-133,-65
-67,-341,-274,204,104,-307,112,46,48,-198,-135,-65
-70,-336,-267,203,99,-301,120,45,45,-194,-135,-66
-76,-331,-255,204,90,-293,125,41,44,-195,-135,-57
-38,-324,-286,181,124,-305,125,40,46,-195,-135,-78
-34,-321,-287,178,126,-303,125,39,45,-195,-135,-87
-59,-314,-255,187,99,-284,125,36,45,-195,-134,-70
-74,-313,-239,194,83,-276,124,33,54,-183,-126,-64
-69,-300,-231,184,81,-265,126,41,61,-167,-113,-53
-27,-257,-230,142,102,-243,121,48,83,-158,-103,-48
-42,-227,-185,135,72,-206,107,38,100,-147,-99,-41
-36,-221,-185,129,74,-203,93,27,98,-137,-97,-34
-34,-219,-185,127,76,-202,81,20,102,-129,-94,-28
-35,-220,-184,128,74,-202,68,21,96,-129,-91,-22
-33,-221,-188,127,78,-204,62,18,95,-123,-90,-19
-28,-217,-188,123,80,-202,70,32,93,-130,-90,-13
-15,-258,-243,136,114,-250,74,40,51,-167,-118,-40
-53,-306,-254,179,101,-280,81,34,28,-188,-148,-72
-62,-314,-252,189,95,-283,87,29,30,-197,-153,-83
-65,-321,-256,193,95,-288,91,26,31,-207,-155,-90
-77,-320,-243,198,83,-281,96,19,34,-216,-164,-99
-78,-319,-241,199,82,-280,87,26,36,-215,-167,-97
-71,-326,-255,199,93,-290,109,40,35,-221,-171,-95
-50,-323,-273,187,112,-298,125,26,24,-221,-171,-95
-65,-328,-263,197,100,-295,117,36,22,-225,-176,-94
-82,-329,-247,205,83,-288,111,12,3,-226,-176,-96
-77,-331,-253,204,88,-292,105,29,11,-208,-171,-92
-80,-320,-240,201,80,-279,125,38,9,-224,-185,-111
-12,-245,-233,129,111,-239,103,120,201,-58,-77,-51
139,-105,-244,-17,192,-174,-89,53,430,355,252,222
300,122,-177,-211,238,-28,-352,-435,297,700,625,591
164,85,-79,-124,121,3,-348,-738,-143,254,392,514
-206,-205,2,206,-104,-101,-119,-769,-603,-508,-186,54
-216,-279,-63,248,-76,-171,49,-422,-406,-447,-255,-92
-85,-266,-181,176,48,-223,97,-15,-20,-211,-165,-67
-73,-269,-196,171,62,-232,89,30,31,-192,-149,-77
-58,-256,-198,157,70,-226,97,66,75,-164,-132,-59
-68,-257,-189,163,61,-222,99,71,68,-167,-148,-63
-56,-247,-191,152,67,-218,98,84,69,-152,-141,-49
-24,-253,-228,139,102,-240,114,111,92,-154,-144,-59
-13,-261,-247,137,117,-254,118,114,100,-146,-137,-74
-44,-252,-208,149,82,-230,111,117,102,-143,-137,-65
-35,-239,-204,137,85,-221,106,113,104,-139,-133,-57
0,-233,-232,117,116,-232,100,117,105,-130,-130,-49
-1,-227,-226,114,113,-226,95,114,108,-121,-128,-42
-8,-221,-213,115,103,-217,90,127,126,-107,-107,-34
-6,-213,-207,110,101,-210,85,136,132,-93,-89,-26
-3,-196,-194,100,96,-195,81,144,143,-80,-76,-18
14,-192,-206,90,110,-198,76,157,150,-70,-64,-11
30,-191,-221,81,126,-206,71,178,163,-54,-50,7
45,-151,-196,53,121,-173,55,207,195,-26,-37,26
83,-121,-204,19,143,-162,39,232,226,15,-19,45
101,-106,-208,3,155,-157,23,271,266,53,15,76
132,-62,-194,-34,163,-128,2,303,308,104,62,113
166,-28,-194,-69,180,-110,-11,320,355,166,117,154
180,-4,-184,-88,182,-93,-36,332,392,218,156,194
208,27,-181,-117,194,-77,-57,330,419,268,184,228
233,63,-169,-148,201,-53,-53,320,437,283,214,253
241,77,-164,-159,203,-44,-48,292,410,267,214,261
196,48,-148,-122,172,-50,-46,237,370,224,168,236
119,-2,-121,-58,120,-62,-21,161,301,126,92,162
83,-64,-147,-9,115,-105,15,100,206,28,15,84
38,-124,-162,43,101,-143,39,61,132,-44,-46,34
11,-148,-159,69,85,-153,41,37,82,-99,-86,3
8,-161,-170,77,89,-165,38,22,66,-137,-118,-6
-13,-179,-166,96,77,-172,52,10,51,-155,-128,-14
0,-174,-174,87,88,-174,58,10,42,-156,-123,-22
-17,-175,-158,96,71,-166,48,10,41,-160,-126,-30
-24,-173,-149,99,63,-161,43,10,34,-156,-132,-40
-27,-169,-142,99,57,-155,34,10,31,-153,-136,-40
-49,-171,-122,110,37,-146,27,10,26,-151,-134,-40
-8,-166,-158,87,75,-162,33,4,24,-147,-135,-37
-1,-162,-161,81,80,-161,36,1,26,-145,-135,-34
-12,-155,-143,84,66,-149,34,8,24,-143,-135,-36
-3,-154,-151,79,74,-152,33,11,26,-139,-131,-39
-15,-144,-129,80,57,-136,29,16,23,-135,-130,-40
-41,-154,-113,98,37,-134,30,20,19,-132,-131,-40
-41,-176,-135,108,47,-155,49,15,39,-126,-129,-40
-30,-167,-137,99,53,-152,57,15,46,-126,-131,-41
-35,-160,-126,98,46,-143,51,14,38,-135,-127,-37
-33,-155,-121,94,44,-138,50,9,38,-135,-125,-35
-28,-146,-118,88,45,-132,45,11,32,-130,-124,-35
-18,-145,-128,82,55,-136,45,7,30,-130,-123,-32
-38,-144,-106,91,34,-125,40,2,25,-123,-118,-28
-44,-146,-102,95,29,-124,40,-4,20,-129,-124,-33
-19,-154,-135,87,58,-144,39,-8,16,-153,-153,-49
-14,-155,-141,85,64,-148,34,-16,11,-156,-154,-51
-13,-154,-141,84,64,-147,36,-18,7,-154,-148,-49
-16,-155,-139,86,62,-147,32,-18,2,-156,-147,-51
-20,-154,-134,88,58,-144,30,-34,-4,-154,-140,-49
-25,-157,-132,91,54,-144,26,-34,-11,-156,-142,-52
-30,-160,-129,95,49,-144,24,-28,-17,-160,-146,-55
-32,-162,-130,97,49,-146,20,-27,-24,-163,-143,-61
-35,-165,-130,100,48,-147,20,-20,-30,-167,-138,-55
-38,-168,-130,103,46,-149,35,-21,-35,-170,-137,-52
-41,-170,-130,105,45,-150,45,-30,-35,-167,-129,-64
-36,-167,-130,102,47,-148,49,-32,-35,-164,-136,-66
-36,-162,-126,99,45,-144,45,-30,-35,-161,-160,-64
-41,-159,-119,100,39,-139,37,-30,-35,-158,-161,-62
-41,-155,-114,99,37,-135,31,-26,-38,-155,-159,-58
-41,-151,-111,96,35,-131,24,-24,-40,-156,-156,-64
-42,-148,-106,96,32,-127,17,-26,-40,-160,-154,-74
-44,-145,-101,94,29,-123,18,-30,-40,-156,-156,-76
-49,-145,-96,97,24,-121,25,-29,-40,-154,-154,-74
-50,-143,-93,97,21,-118,25,-37,-39,-156,-155,-76
-52,-139,-87,95,18,-113,25,-46,-36,-154,-155,-74
-58,-141,-83,100,13,-112,25,-45,-35,-156,-155,-76
-55,-136,-80,95,13,-108,24,-45,-35,-153,-155,-74
-58,-135,-77,97,10,-106,26,-45,-34,-150,-151,-75
-57,-132,-75,95,9,-104,29,-45,-36,-149,-144,-75
-59,-129,-71,94,6,-100,32,-41,-31,-150,-137,-75
-57,-128,-71,92,7,-99,34,-35,-17,-164,-131,-86
-30,-89,-59,60,15,-73,37,-29,-3,-155,-124,-81
-27,-60,-32,44,3,-46,41,-24,10,-127,-119,-67
-28,-50,-22,39,-3,-36,33,-17,26,-109,-112,-56
-26,-42,-16,34,-5,-29,1,-25,32,-105,-106,-43
-31,-45,-15,39,-7,-30,-40,-54,24,-103,-98,-32
-29,-44,-14,37,-7,-29,-49,-67,15,-100,-93,-30
-29,-47,-18,38,-5,-32,-38,-65,6,-99,-84,-27
-12,-41,-29,26,9,-34,-30,-65,-6,-111,-90,-23
-27,-76,-49,51,12,-62,-22,-66,-24,-141,-124,-49
-51,-131,-81,91,15,-106,-13,-64,-36,-161,-146,-73
-50,-142,-92,96,21,-116,-5,-66,-49,-169,-155,-77
-51,-150,-99,101,24,-124,4,-60,-53,-169,-157,-82
-54,-150,-97,102,21,-123,27,-60,-60,-171,-153,-78
-39,-149,-110,94,36,-130,37,-56,-58,-168,-164,-90
-17,-152,-134,85,59,-143,29,-52,-52,-172,-187,-112
-48,-148,-100,98,26,-123,25,-54,-53,-168,-183,-109
-54,-153,-99,104,23,-126,23,-42,-42,-172,-186,-110
-52,-139,-86,96,17,-112,12,-53,-50,-169,-185,-111
-61,-144,-83,102,12,-113,27,-23,-27,-169,-183,-109
-58,-137,-80,98,11,-108,61,-30,-15,-173,-186,-107
-28,-67,-39,48,5,-53,45,85,189,34,-48,-19
181,85,-96,-133,138,-5,-172,-20,393,459,312,281
321,302,-19,-312,170,141,-439,-537,223,740,670,635
112,224,112,-168,0,167,-377,-801,-224,213,364,480
-194,-51,143,122,-168,46,-146,-805,-634,-472,-190,30
-194,-118,76,155,-135,-21,1,-417,-405,-360,-216,-83
-54,-100,-45,77,-4,-72,16,-53,-44,-156,-131,-48
-76,-100,-24,88,-26,-62,19,-38,12,-137,-120,-48
-74,-102,-28,88,-23,-64,56,17,43,-115,-107,-43
-17,-106,-89,62,37,-98,43,26,31,-115,-108,-45
-25,-108,-82,67,28,-95,41,28,37,-96,-94,-38
-44,-112,-67,78,12,-89,35,45,35,-95,-93,-41
-6,-105,-99,56,47,-101,27,60,34,-86,-103,-51
3,-96,-99,47,51,-97,27,65,37,-82,-106,-51
-12,-88,-76,50,32,-81,31,64,42,-77,-91,-40
-2,-79,-77,41,38,-78,49,72,63,-68,-84,-33
1,-70,-71,35,36,-71,47,72,76,-57,-76,-26
4,-62,-66,29,35,-63,41,87,80,-43,-69,-19
11,-53,-64,21,37,-58,35,90,83,-37,-63,-13
9,-45,-54,18,32,-50,25,104,107,-17,-41,-2
18,-34,-53,8,36,-43,16,126,108,7,-29,2
43,-19,-62,-12,53,-40,0,140,129,36,-13,25
46,4,-42,-24,44,-19,4,160,161,57,9,45
71,28,-43,-50,57,-7,-4,179,183,75,32,66
108,58,-50,-83,79,4,-30,213,241,137,82,110
131,96,-35,-113,82,31,-47,242,279,190,129,139
155,123,-32,-139,93,45,-65,272,322,241,171,182
182,159,-23,-170,102,67,-76,296,358,292,211,221
200,199,-1,-199,101,98,-97,307,391,338,256,253
190,219,28,-205,81,124,-114,303,417,375,288,285
185,208,23,-197,81,115,-117,255,389,359,284,295
168,176,9,-172,79,92,-92,187,350,308,241,261
105,135,31,-120,37,83,-50,116,272,208,158,169
36,72,37,-54,-1,54,-30,68,176,104,81,97
-10,22,31,-6,-21,27,-16,38,106,28,19,56
-31,-1,30,16,-30,14,-6,18,61,-18,-24,13
-28,-20,8,23,-18,-5,-4,13,33,-45,-36,-16
-11,-31,-19,21,4,-25,-1,10,17,-73,-54,-25
-4,-31,-27,18,11,-29,2,6,11,-75,-72,-30
-30,-29,1,30,-15,-14,5,4,4,-75,-70,-35
-21,-30,-9,26,-6,-19,7,-5,-4,-74,-70,-35
-35,-30,5,32,-20,-12,30,2,-12,-80,-70,-35
-86,-30,56,58,-71,13,43,22,-13,-90,-70,-35
-34,-28,6,31,-20,-11,35,17,-9,-82,-68,-35
-32,-24,7,28,-19,-8,33,14,-10,-76,-62,-33
-71,-22,49,46,-60,13,28,11,-6,-69,-58,-30
-52,-19,33,35,-42,7,25,5,-5,-63,-53,-30
-41,-16,25,28,-33,4,25,5,-5,-58,-49,-26
-34,-14,19,24,-26,2,23,5,0,-53,-44,-25
-48,-11,37,29,-42,13,20,5,4,-47,-41,-25
-32,-10,22,20,-27,6,20,5,8,-44,-40,-25
-35,-10,25,23,-30,7,24,5,14,-38,-40,-25
-58,-10,49,34,-54,19,25,5,13,-36,-40,-25
-39,-11,29,25,-34,9,25,5,2,-52,-40,-26
-38,-7,31,23,-34,11,25,5,-6,-57,-42,-24
-34,-5,29,19,-31,12,25,5,-15,-58,-46,-28
-38,-5,33,21,-35,14,25,5,-25,-62,-45,-30
-40,-5,35,22,-37,15,29,5,-29,-65,-46,-31
-40,-5,35,22,-37,15,30,3,-30,-65,-44,-40
-58,-5,53,32,-55,23,30,0,-32,-65,-49,-41
-67,-9,58,38,-62,24,35,-3,-36,-65,-56,-39
-55,-10,45,33,-50,17,36,-5,-47,-65,-55,-41
-51,-10,41,30,-46,16,33,-8,-51,-65,-55,-39
-64,-10,54,37,-59,21,31,-11,-49,-65,-55,-41
-44,-10,35,27,-39,12,28,-6,-51,-69,-56,-44
-54,-10,44,32,-49,17,42,1,-49,-70,-52,-45
-71,-10,61,40,-66,25,50,8,-51,-72,-50,-45
-42,-10,32,26,-37,10,40,14,-54,-76,-50,-45
-35,-10,25,22,-30,7,34,22,-55,-73,-46,-45
-68,-10,58,39,-63,24,28,24,-55,-70,-45,-45
-63,-10,53,36,-58,21,20,20,-55,-70,-45,-45
-32,-10,22,21,-27,6,25,18,-55,-68,-51,-55
-68,-10,58,39,-63,24,35,15,-55,-64,-53,-57
-83,-10,73,47,-78,31,35,11,-55,-65,-49,-54
-62,-10,52,35,-57,21,28,10,-55,-65,-50,-56
-67,-11,56,38,-61,22,25,10,-55,-65,-50,-55
-62,-7,54,34,-58,23,20,10,-55,-65,-50,-55
-60,-5,55,32,-57,25,15,10,-55,-65,-50,-55
-60,-5,55,32,-57,25,21,10,-60,-65,-50,-55
-60,-5,56,32,-57,25,34,10,-60,-64,-50,-55
-65,-5,59,35,-61,26,43,11,-61,-60,-50,-55
-66,-4,62,35,-63,28,40,16,-65,-58,-50,-55
-66,-1,65,33,-65,31,40,21,-66,-55,-50,-55
-57,11,67,23,-62,39,41,25,-61,-51,-48,-49
-51,20,71,16,-62,45,39,30,-47,-50,-37,-42
-30,34,65,-2,-48,49,51,35,-33,-43,-28,-36
-23,58,81,-18,-52,70,55,31,-19,-28,-15,-29
-33,84,118,-26,-76,101,57,22,4,-15,-3,-23
-26,112,139,-43,-83,125,37,16,19,-10,9,-17
-24,112,137,-44,-81,124,-9,9,12,-6,30,-15
-24,99,123,-38,-73,110,-22,5,-4,-5,30,-15
-12,100,113,-44,-63,106,-13,4,-10,2,30,-15
-14,79,93,-32,-54,86,0,1,-42,-14,28,-15
-46,26,72,9,-59,49,17,-1,-67,-47,3,-32
-64,-11,53,37,-59,21,34,6,-61,-55,-24,-59
-80,-32,48,56,-64,8,40,8,-78,-75,-41,-72
-82,-37,45,59,-63,4,44,17,-80,-87,-45,-75
-75,-34,41,54,-57,3,51,18,-81,-85,-45,-79
-72,-33,39,53,-56,2,56,29,-75,-84,-44,-80
-61,-30,31,45,-46,0,54,29,-76,-88,-47,-85
-65,-29,36,47,-50,3,57,28,-75,-81,-42,-84
-54,-36,18,44,-36,-9,62,35,-78,-90,-48,-91
-76,-39,38,57,-57,0,56,20,-85,-80,-42,-94
-90,-47,43,68,-66,-2,77,56,-63,-90,-48,-99
-60,-9,51,34,-55,21,91,72,-24,-60,-40,-95
4,73,68,-39,-32,70,44,178,256,243,155,47
213,299,86,-256,63,192,-201,-33,433,775,623,434
263,503,240,-383,11,371,-388,-502,187,922,878,709
-59,296,355,-119,-207,325,-224,-664,-355,119,324,348
-273,43,316,115,-295,179,-34,-606,-684,-442,-158,-76
-172,2,174,85,-173,87,61,-205,-348,-205,-80,-85
-69,23,92,23,-81,57,82,47,-69,-67,-7,-50
-22,41,63,-10,-43,52,70,49,-52,-37,31,-45
-7,28,35,-11,-21,31,75,98,-32,-28,31,-44
-47,30,77,9,-62,53,67,90,-35,-30,27,-43
-60,24,85,18,-73,54,71,105,-19,-19,33,-38
-58,19,77,19,-67,48,64,97,-19,-19,26,-41
-52,25,77,13,-65,50,60,111,-10,-6,34,-33
-44,35,79,4,-62,56,56,124,-7,-5,18,-29
-50,40,90,5,-70,65,51,117,-3,6,25,-24
-44,43,86,0,-65,65,46,122,3,10,50,-18
-36,48,84,-6,-60,66,48,119,6,30,59,-12
-20,57,76,-19,-48,66,51,124,14,38,60,-8
-18,57,74,-20,-46,65,43,143,26,51,67,3
-11,58,69,-24,-40,63,39,153,38,83,71,11
15,76,61,-46,-23,68,32,163,45,91,82,29
16,87,71,-51,-28,79,28,178,61,103,109,42
36,113,77,-74,-21,95,21,194,81,131,130,51
69,142,73,-106,-2,107,7,225,119,173,162,83
89,161,72,-126,8,116,-6,250,156,214,198,114
110,197,88,-154,11,142,-28,278,201,278,245,153
141,230,89,-186,26,159,-53,299,248,337,299,199
158,260,102,-210,28,181,-79,319,277,378,342,238
166,295,129,-231,18,212,-89,321,303,430,378,267
201,317,115,-259,43,216,-84,301,291,438,397,288
204,320,116,-263,44,218,-87,272,280,414,379,279
138,288,150,-213,-6,219,-67,210,247,350,319,225
75,232,157,-154,-42,194,-25,143,158,240,234,146
29,173,144,-102,-58,159,-5,99,77,139,157,71
-24,122,146,-49,-86,134,8,72,6,68,98,21
-43,98,141,-28,-92,119,34,58,-37,23,58,-2
-42,83,125,-21,-84,104,41,51,-61,3,44,-15
-39,70,109,-16,-74,89,39,44,-83,-2,32,-27
-34,71,104,-19,-69,87,40,37,-89,-9,25,-30
-36,69,106,-17,-71,87,40,32,-90,-16,22,-31
-39,66,104,-14,-72,85,40,34,-93,-23,18,-29
-41,64,105,-12,-74,85,36,35,-96,-23,15,-26
-38,66,104,-15,-71,85,31,35,-92,-18,10,-24
-37,70,108,-17,-73,89,28,35,-86,-15,13,-27
-41,69,110,-14,-75,90,25,35,-81,-12,18,-30
-41,72,113,-16,-77,93,19,33,-76,-7,24,-30
-40,75,115,-18,-78,95,28,29,-69,-5,29,-30
-34,75,109,-20,-72,91,37,27,-66,-10,26,-30
-28,75,103,-24,-66,89,34,24,-69,-10,23,-30
-21,75,95,-27,-58,85,36,21,-71,-10,20,-26
-15,75,90,-31,-53,82,35,19,-73,-10,17,-25
-7,75,81,-34,-45,78,35,16,-76,-10,15,-25
-9,75,84,-34,-47,79,35,11,-77,-12,13,-20
-32,74,105,-21,-69,89,35,8,-85,-16,10,-20
-40,70,110,-15,-75,90,35,5,-90,-14,7,-21
-34,70,104,-19,-69,87,35,0,-89,-16,4,-30
-34,67,102,-17,-68,84,36,2,-107,-36,1,-39
-33,65,98,-16,-66,81,33,9,-117,-42,0,-41
-27,65,92,-19,-60,78,31,15,-114,-39,-5,-44
-42,66,108,-12,-76,87,27,19,-116,-41,-9,-47
-67,63,130,1,-99,97,25,12,-114,-39,-12,-49
-50,70,120,-10,-85,95,21,-8,-123,-41,-15,-52
-34,80,113,-23,-74,96,19,-21,-127,-44,-18,-55
-34,74,107,-20,-71,90,29,-19,-124,-46,-20,-55
-28,68,96,-21,-62,82,29,-14,-125,-44,-22,-54
-38,63,101,-13,-70,82,22,-13,-125,-48,-25,-55
-40,56,96,-8,-69,76,18,-6,-125,-55,-25,-55
-53,58,111,-3,-82,84,11,-5,-124,-54,-28,-52
-67,65,131,1,-99,98,5,-15,-121,-57,-31,-49
-53,65,118,-6,-86,91,13,-17,-116,-59,-29,-46
-55,65,120,-5,-88,92,22,-14,-116,-62,-31,-44
-55,65,121,-5,-88,93,19,-8,-107,-53,-28,-38
-51,64,115,-7,-84,90,20,-21,-122,-54,-34,-46
-42,68,110,-13,-76,88,20,-38,-147,-76,-50,-62
-31,70,101,-20,-66,85,20,-32,-141,-70,-45,-58
-28,70,97,-21,-62,83,19,-31,-138,-65,-40,-55
-17,70,87,-27,-52,78,14,-28,-135,-62,-37,-53
-20,70,90,-26,-55,80,11,-24,-130,-55,-31,-49
-30,70,99,-20,-64,85,8,-23,-128,-53,-28,-50
-31,70,101,-20,-66,86,3,-18,-124,-49,-24,-50
-28,70,98,-21,-63,84,0,-21,-126,-50,-25,-50
-34,70,104,-18,-69,87,4,-18,-124,-43,-18,-50
-50,70,120,-10,-85,94,5,-23,-125,-48,-23,-50
-45,70,115,-13,-80,92,5,-39,-125,-68,-43,-50
-25,71,97,-23,-61,84,6,-36,-114,-65,-38,-43
-21,81,102,-30,-62,91,15,-29,-100,-57,-29,-34
-32,123,155,-46,-93,139,25,-23,-87,-36,-13,-25
-38,154,192,-58,-115,173,35,-20,-85,-15,5,-17
-26,160,186,-67,-106,173,31,-18,-84,-11,8,-9
-3,175,178,-87,-91,177,-27,-30,-82,-5,13,-1
8,178,170,-94,-81,173,-66,-50,-78,1,17,6
2,162,160,-82,-80,161,-60,-50,-80,6,22,9
-5,156,161,-75,-83,158,-56,-45,-93,9,15,15
-21,132,153,-56,-87,142,-37,-44,-102,-22,-9,9
-29,86,116,-29,-73,101,-13,-37,-132,-67,-25,-25
-31,60,91,-15,-61,75,-6,-35,-149,-78,-44,-42
-41,50,91,-5,-66,70,1,-39,-144,-73,-54,-44
-36,43,79,-4,-58,61,8,-40,-150,-73,-56,-52
-44,38,83,3,-64,60,14,-48,-152,-70,-55,-54
-40,34,74,3,-58,54,20,-43,-146,-69,-55,-56
-51,24,75,13,-63,49,16,-56,-155,-84,-64,-54
-69,35,104,17,-87,69,12,-47,-144,-75,-66,-63
-46,48,93,-1,-70,71,10,-62,-157,-79,-79,-73
-21,47,67,-13,-44,57,3,-45,-144,-57,-70,-62
-18,31,50,-7,-34,40,19,-24,-151,-71,-93,-75
-38,76,114,-19,-77,95,40,6,-51,-12,-47,-49
58,200,141,-129,-42,170,-76,77,240,321,212,133
273,405,132,-340,71,268,-358,-319,222,766,639,513
267,494,227,-381,20,360,-482,-718,-105,683,706,647
-58,257,316,-100,-187,286,-289,-821,-635,-144,123,248
-204,80,283,62,-244,181,-74,-629,-721,-437,-173,-40
-69,91,160,-11,-115,125,-23,-153,-273,-140,-63,-53
3,120,116,-62,-56,118,-19,-31,-135,-67,-37,-60
-4,104,108,-50,-56,105,15,-12,-105,-48,-25,-47
-12,82,94,-35,-53,88,30,18,-81,-46,-34,-46
5,99,94,-52,-45,96,26,16,-87,-37,-29,-38
8,90,82,-49,-37,86,22,46,-65,-27,-29,-33
11,91,80,-51,-34,85,17,36,-70,-25,-26,-31
21,90,68,-56,-24,79,13,41,-59,-13,-24,-27
-9,89,97,-40,-53,93,8,44,-58,-11,-24,-25
-19,107,126,-44,-73,116,-3,66,-41,-1,-15,-21
8,117,109,-63,-51,113,-8,69,-28,3,-12,-20
18,113,96,-66,-39,104,0,74,-18,11,-4,-15
24,116,92,-70,-35,104,1,71,-8,20,-1,-5
11,114,104,-63,-47,109,9,84,-1,31,12,5
3,114,111,-59,-54,113,8,118,9,44,24,14
24,138,114,-81,-45,126,2,128,28,57,38,27
76,161,85,-119,-5,123,-7,148,47,82,47,31
90,179,88,-135,1,133,-29,183,86,120,78,56
60,199,139,-130,-40,169,-37,214,124,152,116,83
104,237,132,-171,-14,184,-48,242,159,196,146,106
152,273,121,-213,16,196,-73,271,210,254,197,150
185,305,120,-245,32,213,-94,293,255,311,245,195
233,337,104,-285,65,220,-114,311,297,356,284,235
247,363,116,-305,66,239,-118,309,316,386,315,260
231,388,157,-310,37,272,-118,283,313,407,341,286
212,381,169,-297,21,275,-131,229,284,384,325,270
188,335,148,-262,20,241,-111,149,212,301,260,212
142,283,142,-213,0,212,-72,83,129,195,180,140
68,218,150,-143,-41,183,-50,28,49,115,111,73
28,162,134,-95,-53,148,-41,-6,-10,44,56,38
2,148,146,-75,-73,147,-38,-15,-53,-9,12,11
-25,135,161,-55,-93,148,-33,-25,-91,-29,-12,-3
-7,127,134,-60,-71,130,-29,-35,-100,-42,-23,-6
-4,123,128,-60,-66,125,-25,-41,-104,-46,-29,-9
-7,117,124,-55,-65,120,-30,-45,-106,-45,-34,-12
-9,112,121,-51,-65,116,-30,-42,-104,-45,-35,-15
-13,106,119,-46,-66,112,-32,-37,-105,-41,-35,-17
-6,108,114,-52,-60,111,-36,-34,-105,-40,-35,-20
-6,111,117,-53,-61,113,-34,-31,-103,-42,-35,-20
-11,109,120,-49,-65,115,-39,-26,-96,-42,-34,-20
-12,111,123,-50,-68,117,-40,-26,-92,-39,-30,-20
-11,115,126,-52,-69,121,-40,-30,-86,-36,-30,-20
-19,111,130,-46,-75,121,-40,-30,-80,-34,-30,-16
-16,109,126,-47,-71,117,-40,-30,-75,-30,-30,-15
-10,110,120,-50,-65,115,-40,-30,-75,-31,-30,-15
-5,110,115,-52,-60,112,-40,-30,-75,-36,-30,-10
1,110,109,-56,-54,109,-40,-32,-75,-34,-30,-10
6,110,103,-58,-48,106,-37,-35,-76,-38,-30,-9
11,110,99,-61,-44,104,-35,-35,-73,-40,-30,-27
15,110,95,-63,-40,102,-35,-35,-82,-40,-30,-37
16,110,94,-63,-39,101,-31,-35,-95,-44,-31,-33
13,110,97,-62,-42,103,-30,-35,-96,-46,-36,-40
18,110,92,-65,-37,101,-30,-32,-93,-53,-40,-40
6,106,100,-57,-47,103,-30,-29,-102,-51,-40,-40
18,100,81,-59,-32,90,-30,-32,-115,-51,-40,-45
7,95,88,-51,-41,91,-30,-43,-115,-64,-40,-45
-30,90,120,-30,-75,104,-30,-46,-116,-65,-40,-46
-15,83,98,-34,-57,90,-30,-44,-120,-69,-40,-50
-13,81,95,-35,-54,88,-32,-46,-120,-70,-41,-50
-9,85,93,-39,-52,89,-35,-44,-118,-70,-47,-48
-18,85,103,-34,-61,94,-35,-47,-114,-70,-54,-45
-31,85,116,-27,-74,100,-35,-55,-112,-69,-60,-45
-19,85,104,-34,-62,94,-35,-55,-109,-86,-60,-61
-16,85,100,-35,-58,92,-35,-55,-105,-91,-60,-65
-10,82,92,-36,-51,87,-39,-55,-105,-86,-60,-59
-8,79,87,-36,-47,82,-40,-54,-110,-85,-60,-58
-5,76,81,-36,-43,78,-40,-56,-110,-81,-60,-52
-7,73,80,-33,-44,76,-40,-60,-110,-79,-56,-50
-4,69,73,-33,-39,71,-39,-60,-110,-76,-55,-55
-11,72,83,-31,-47,77,-42,-60,-110,-75,-55,-55
-30,76,106,-23,-69,91,-45,-60,-107,-75,-51,-56
-30,75,105,-23,-68,90,-45,-60,-104,-75,-49,-60
-31,74,105,-22,-68,89,-49,-64,-105,-75,-52,-59
-34,71,105,-19,-70,88,-51,-65,-105,-77,-55,-63
-36,69,105,-17,-70,86,-49,-65,-105,-80,-55,-65
-31,72,103,-21,-67,87,-51,-65,-104,-83,-55,-65
-25,74,99,-25,-62,86,-49,-65,-101,-86,-55,-65
-25,76,101,-26,-63,88,-51,-64,-98,-89,-55,-65
-25,79,104,-27,-65,91,-49,-59,-96,-90,-50,-65
-24,81,105,-29,-65,92,-51,-53,-91,-81,-40,-58
-20,85,105,-33,-63,95,-47,-50,-91,-68,-33,-49
-2,106,108,-53,-55,107,-37,-44,-84,-57,-23,-40
6,142,136,-75,-65,139,-28,-41,-56,-37,-16,-32
-25,151,176,-63,-101,163,-15,-42,-47,-24,-7,-26
-12,167,179,-78,-96,173,-62,-54,-54,-26,2,-19
16,188,171,-103,-78,180,-105,-72,-55,-24,10,-13
3,176,172,-89,-85,174,-96,-76,-60,-25,14,-5
43,176,133,-110,-45,154,-94,-75,-62,-24,5,-1
42,155,113,-99,-36,133,-90,-74,-72,-29,-3,-10
-19,97,117,-39,-68,107,-78,-84,-98,-63,-26,-40
-17,54,71,-19,-44,63,-62,-88,-111,-84,-47,-59
-16,39,55,-12,-36,47,-59,-82,-115,-85,-45,-61
-4,41,45,-18,-24,42,-54,-72,-114,-84,-43,-59
-16,38,54,-11,-35,45,-51,-71,-112,-88,-50,-62
-40,36,76,2,-58,56,-48,-58,-105,-96,-62,-81
-12,33,45,-11,-29,38,-45,-64,-106,-103,-69,-88
-19,36,55,-9,-37,46,-42,-59,-97,-97,-61,-82
-20,23,43,-1,-32,33,-39,-53,-116,-103,-69,-87
-9,28,37,-10,-23,32,-38,-59,-123,-99,-61,-83
-34,15,49,9,-41,32,-22,-36,-107,-96,-70,-88
-29,29,58,0,-44,43,-17,-48,-77,-61,-67,-85
60,142,82,-101,-11,112,-71,78,194,192,123,47
252,325,72,-289,89,198,-320,-172,298,620,514,384
354,489,135,-422,109,312,-533,-671,47,732,740,650
68,315,248,-192,-90,281,-399,-848,-437,61,294,369
-186,92,277,47,-232,184,-165,-784,-724,-438,-132,-20
-107,85,192,11,-150,138,-78,-315,-358,-216,-76,-55
-18,97,115,-39,-67,105,-78,-59,-98,-77,-55,-31
14,112,98,-63,-42,105,-56,-65,-73,-68,-43,-31
5,99,94,-52,-45,97,-45,-17,-37,-58,-28,-48
-3,94,97,-46,-50,95,-45,-25,-49,-59,-29,-50
-6,89,95,-42,-51,92,-37,4,-32,-47,-16,-38
-16,77,93,-31,-55,85,-35,7,-36,-47,-18,-41
1,91,91,-46,-45,91,-29,21,-27,-36,-5,-30
12,101,89,-56,-38,95,-35,31,-21,-34,-9,-31
8,100,92,-54,-42,96,-35,35,-12,-26,-18,-38
12,100,88,-56,-38,94,-35,36,-3,-23,-18,-38
8,100,92,-54,-42,96,-38,35,5,-12,-3,-28
23,100,77,-62,-27,88,-40,35,13,-2,3,-23
63,106,43,-85,10,74,-44,39,22,10,23,-15
43,127,84,-86,-21,106,-44,73,49,40,49,-10
26,137,111,-82,-43,124,-53,97,70,56,50,1
56,140,84,-98,-14,112,-50,110,78,68,64,23
90,166,77,-128,6,121,-65,127,107,99,84,37
102,191,89,-147,6,140,-90,165,146,141,115,63
97,213,116,-155,-10,164,-92,191,180,179,152,92
147,253,106,-200,20,179,-102,216,224,225,189,128
198,299,101,-249,48,200,-119,257,271,285,247,173
200,329,129,-265,36,228,-150,266,319,344,295,215
214,354,140,-285,37,247,-166,273,343,378,326,248
236,375,139,-305,48,257,-157,264,351,396,355,271
237,377,140,-307,48,258,-151,206,341,395,365,272
189,355,166,-272,11,260,-138,130,286,329,308,229
123,288,166,-206,-21,227,-118,58,211,230,219,161
70,224,154,-147,-42,189,-91,8,128,142,149,98
57,186,129,-122,-36,157,-68,-27,57,71,82,40
20,151,130,-86,-55,140,-65,-47,10,25,50,4
-24,131,155,-54,-89,143,-65,-63,-18,-3,41,-2
10,126,116,-68,-53,121,-61,-82,-35,-20,29,-9
10,121,112,-66,-51,116,-59,-83,-44,-29,20,-17
-2,118,119,-58,-61,118,-61,-81,-45,-38,12,-25
-15,112,127,-49,-71,119,-64,-80,-45,-44,15,-28
-13,109,122,-49,-67,116,-65,-79,-45,-38,15,-25
3,110,107,-57,-52,108,-65,-75,-45,-32,15,-22
-3,110,113,-53,-58,111,-65,-75,-45,-28,15,-20
3,110,107,-56,-52,109,-65,-73,-42,-21,15,-17
-8,110,118,-51,-63,114,-63,-69,-38,-16,15,-14
-7,110,117,-52,-62,113,-59,-67,-37,-12,15,-19
0,113,113,-57,-57,113,-57,-64,-32,-9,15,-20
17,115,99,-66,-41,107,-54,-61,-32,-11,15,-21
-5,115,119,-55,-62,117,-51,-59,-27,-8,15,-19
-28,115,143,-43,-86,128,-49,-67,-29,-16,16,-23
4,115,111,-59,-54,113,-46,-80,-53,-31,20,-40
2,114,112,-58,-55,112,-45,-80,-56,-30,25,-40
-9,109,118,-51,-63,113,-45,-75,-54,-29,24,-35
-21,106,127,-42,-75,116,-45,-74,-56,-26,20,-34
-37,103,140,-33,-89,121,-45,-69,-54,-24,17,-29
-29,98,128,-35,-79,113,-45,-72,-57,-27,12,-32
-37,95,132,-29,-85,113,-45,-75,-59,-30,9,-35
-50,91,141,-21,-96,116,-45,-75,-63,-34,6,-35
-23,89,113,-34,-68,101,-45,-75,-65,-36,1,-37
-15,90,105,-38,-60,97,-45,-75,-68,-40,-1,-40
-26,90,115,-32,-71,102,-45,-75,-71,-36,-6,-40
-34,90,124,-29,-79,107,-45,-71,-66,-35,-9,-36
-43,89,132,-23,-87,110,-45,-70,-61,-35,-10,-35
-39,85,124,-23,-82,104,-45,-69,-56,-30,-10,-35
-39,85,125,-23,-82,105,-45,-66,-53,-30,-10,-35
-32,82,114,-25,-73,98,-45,-64,-47,-31,-10,-34
-49,80,129,-15,-89,104,-45,-69,-47,-40,-10,-37
-54,80,134,-13,-94,107,-45,-76,-63,-42,-9,-42
-29,80,109,-26,-69,94,-57,-73,-70,-39,-6,-40
-36,79,115,-22,-75,96,-58,-68,-70,-36,-5,-35
-44,84,128,-20,-86,106,-48,-66,-70,-33,-5,-33
-36,91,127,-28,-81,108,-44,-60,-70,-31,-6,-28
-37,86,123,-25,-81,104,-34,-60,-70,-28,-1,-24
-32,83,115,-26,-74,99,-32,-72,-67,-41,-5,-48
-37,80,117,-22,-77,98,-35,-76,-65,-46,-13,-55
-38,75,113,-19,-76,94,-33,-74,-65,-41,-8,-46
-39,78,117,-20,-78,97,-49,-72,-65,-40,-5,-45
-55,80,135,-13,-95,107,-54,-70,-65,-35,-2,-38
-35,81,115,-23,-75,98,-44,-69,-65,-35,3,-35
-32,79,111,-24,-72,95,-41,-66,-59,-29,5,-29
-39,82,120,-22,-80,101,-35,-63,-52,-22,12,-23
-62,78,140,-9,-101,109,-33,-61,-46,-16,21,-19
-69,93,162,-12,-116,127,-29,-57,-39,-9,29,-12
-33,126,159,-46,-97,143,-25,-56,-30,-2,40,-8
-22,143,165,-61,-94,153,-23,-52,-6,11,48,-2
-35,161,197,-63,-116,179,-11,-42,5,20,66,6
-22,185,207,-81,-115,196,-42,-66,9,32,79,14
7,196,189,-102,-91,192,-82,-90,8,38,81,23
-2,183,186,-91,-94,184,-77,-92,-2,28,85,28
23,175,152,-99,-65,164,-73,-88,-7,23,76,27
10,144,134,-77,-62,139,-70,-85,-46,12,59,17
-46,85,131,-19,-89,107,-63,-81,-72,-5,37,-18
-48,59,107,-5,-78,83,-52,-78,-69,-19,24,-47
-53,52,104,0,-79,78,-37,-75,-72,-30,23,-50
-49,42,91,3,-70,67,-23,-69,-74,-30,17,-51
-50,40,90,5,-70,65,-15,-71,-77,-30,16,-45
-50,28,78,11,-65,53,-14,-61,-70,-48,9,-46
-49,27,75,11,-62,51,-16,-69,-70,-44,9,-43
-49,19,68,15,-59,43,-7,-52,-56,-44,1,-41
-37,19,56,9,-46,38,-13,-68,-61,-49,-6,-38
-44,24,67,10,-55,46,-1,-53,-43,-38,-5,-34
-60,4,64,27,-62,34,32,-32,-37,-55,-25,-45
-57,67,124,-5,-90,95,28,30,84,92,70,-2
100,202,102,-151,-1,152,-95,72,371,474,369,212
307,460,153,-384,77,306,-378,-341,372,933,832,634
179,504,325,-342,-73,414,-408,-689,-11,672,738,653
-161,206,367,-23,-264,287,-176,-783,-539,-193,98,153
-223,71,294,76,-259,182,-58,-571,-547,-321,-83,-61
-98,71,168,13,-133,119,-25,-122,-155,-78,8,-14
-54,83,136,-15,-95,109,-18,-24,-27,-19,55,-3
-39,85,124,-23,-81,104,25,12,12,35,78,0
-40,75,115,-18,-77,95,49,44,17,42,64,-8
-36,77,114,-21,-75,95,32,28,12,48,72,-4
-36,68,104,-16,-70,85,32,41,18,43,62,-6
-29,73,103,-22,-66,88,21,30,12,45,66,-5
-21,75,96,-27,-59,86,16,37,17,45,69,1
-16,79,95,-32,-55,87,18,44,20,49,75,6
-7,83,90,-38,-48,86,20,57,39,61,83,11
-3,85,88,-41,-46,86,21,58,48,65,82,18
10,91,80,-51,-35,85,18,58,61,67,94,21
-20,92,112,-36,-66,102,11,73,61,90,99,38
5,103,98,-55,-47,101,3,95,64,115,106,58
36,110,75,-73,-19,92,-5,98,89,118,125,58
21,115,94,-68,-37,104,-12,107,95,130,135,68
51,140,89,-96,-19,114,-27,124,109,155,159,86
70,160,90,-115,-10,125,-36,142,142,191,189,107
91,182,90,-136,0,136,-38,179,174,232,219,134
113,217,104,-165,4,161,-58,206,212,278,264,166
143,256,113,-200,15,184,-80,235,253,335,309,218
181,288,108,-234,36,198,-101,256,293,392,362,258
207,318,111,-263,48,215,-121,267,325,441,405,293
217,343,125,-280,46,234,-120,266,351,472,433,334
196,348,151,-272,22,249,-109,235,350,481,447,345
178,336,158,-257,10,247,-102,194,318,450,417,322
148,298,151,-223,-2,225,-82,138,259,366,354,260
89,233,144,-161,-28,188,-55,88,175,258,263,179
32,169,137,-101,-53,153,-32,39,94,163,180,112
2,134,131,-68,-65,132,-19,4,25,103,140,62
-14,112,126,-49,-70,119,-13,1,-18,67,103,36
-22,101,123,-40,-72,111,-6,-5,-39,44,80,30
-22,97,119,-37,-71,107,1,-11,-51,37,76,25
-25,91,116,-34,-71,103,8,-16,-55,34,69,19
-23,88,111,-33,-67,99,8,-21,-54,31,65,13
-29,82,111,-27,-70,96,4,-26,-62,28,58,10
-36,80,116,-22,-76,97,6,-31,-68,25,55,10
-31,80,111,-25,-71,95,1,-35,-63,25,55,10
-25,80,105,-28,-65,92,0,-31,-61,25,55,10
-19,80,99,-30,-59,89,0,-25,-58,25,55,10
-16,80,95,-32,-56,87,-5,-20,-55,24,54,10
-2,85,86,-42,-44,85,-5,-15,-56,31,66,6
-6,85,92,-40,-49,88,-6,-8,-60,36,76,5
-26,85,111,-29,-69,97,-10,-6,-63,34,74,5
-26,83,109,-28,-68,95,-10,-10,-67,39,75,5
-39,79,118,-20,-78,99,-8,-10,-70,40,75,5
-47,80,127,-17,-87,103,-3,-12,-73,39,75,4
-45,77,121,-16,-83,99,0,-16,-76,34,71,0
-48,72,120,-12,-84,96,3,-14,-74,28,64,-2
-47,69,116,-12,-82,93,8,-20,-77,24,58,-5
-49,65,114,-9,-82,90,10,-28,-80,18,51,-9
-54,62,116,-4,-85,88,5,-34,-79,12,44,-9
-56,58,114,-2,-85,86,5,-40,-93,8,39,-22
-60,55,114,2,-88,84,5,-40,-102,2,41,-32
-52,55,107,-2,-80,81,6,-40,-103,-2,37,-29
-48,53,100,-3,-74,76,3,-40,-106,-6,35,-31
-46,49,95,-2,-71,72,15,-40,-104,-11,35,-30
-34,50,85,-8,-60,67,28,-40,-105,-16,32,-30
-40,46,86,-3,-63,65,23,-36,-105,-19,27,-26
-21,45,65,-12,-44,55,21,-31,-105,-20,24,-25
-29,45,74,-8,-52,59,17,-26,-105,-19,21,-25
-44,40,84,2,-64,62,15,-24,-107,-23,16,-21
-20,41,61,-10,-40,51,15,-16,-110,-25,15,-20
-41,38,79,1,-60,59,15,-20,-110,-25,15,-21
-40,35,75,2,-58,55,15,-36,-110,-25,15,-35
-31,35,66,-2,-49,50,15,-35,-110,-25,15,-40
-32,35,66,-2,-49,50,15,-35,-110,-24,15,-42
-16,36,52,-10,-34,43,16,-35,-105,-21,15,-46
-32,34,66,-1,-50,50,19,-35,-100,-18,19,-48
-47,41,87,3,-67,64,20,-33,-96,-15,20,-51
-53,37,90,8,-72,63,21,-29,-91,-12,22,-43
-26,48,74,-12,-50,61,25,-29,-87,-10,25,-28
-18,75,93,-28,-56,84,25,-24,-81,-7,26,-16
-8,99,107,-46,-58,102,26,-26,-63,7,29,-7
9,124,115,-66,-54,119,37,-17,-52,18,38,-3
-18,130,148,-56,-84,139,-5,-22,-58,22,44,2
-12,141,153,-64,-83,147,-60,-54,-51,14,48,10
-13,139,152,-63,-82,145,-56,-63,-64,0,52,11
19,135,116,-77,-49,125,-45,-56,-78,36,64,27
13,104,91,-59,-39,97,-34,-51,-84,28,46,19
-17,55,72,-20,-44,63,-19,-45,-110,-30,0,-30
-9,32,41,-11,-25,36,3,-39,-117,-41,-10,-48
-22,18,41,2,-32,29,16,-37,-125,-45,-12,-50
-16,10,26,3,-21,18,20,-33,-124,-52,-22,-55
-19,5,23,7,-21,13,23,-38,-127,-56,-22,-59
-11,-4,7,7,-8,1,28,-31,-123,-58,-27,-59
-12,-13,0,12,-6,-6,30,-39,-127,-62,-36,-62
-26,-11,16,18,-21,3,30,-30,-132,-59,-35,-62
-27,-10,17,19,-22,4,31,-23,-147,-82,-54,-68
-39,7,45,16,-42,26,26,-16,-145,-67,-46,-61
-54,-27,27,40,-40,0,40,6,-120,-77,-57,-71
-37,0,37,19,-37,18,40,28,-72,-41,-42,-75
55,113,58,-84,-2,85,-23,124,196,252,159,75
256,302,46,-279,104,174,-276,-195,280,711,573,430
321,458,137,-389,92,297,-469,-650,-3,804,772,669
22,238,216,-130,-97,227,-315,-809,-525,28,264,332
-150,58,208,46,-179,133,-96,-703,-744,-433,-140,-39
-62,72,135,-5,-99,103,-17,-228,-335,-163,-69,-47
-29,46,75,-9,-52,60,-13,-25,-117,-64,-40,-52
-19,46,64,-14,-42,55,22,-13,-89,-42,-27,-50
-19,33,52,-7,-36,42,40,47,-55,-37,-31,-49
-15,36,50,-11,-33,43,30,30,-66,-34,-31,-52
3,34,32,-19,-15,33,46,58,-48,-21,-28,-45
-1,29,29,-14,-15,29,54,72,-52,-21,-32,-44
-13,31,45,-9,-29,38,49,77,-40,-8,-23,-38
20,31,11,-26,4,20,43,80,-38,-7,-22,-37
54,40,-13,-47,33,13,38,79,-29,5,-15,-31
33,44,12,-39,10,28,32,81,-20,14,-12,-29
22,50,28,-36,-3,38,28,82,-14,29,-7,-24
25,52,27,-39,-1,39,23,78,-5,23,-1,-19
20,59,39,-40,-10,49,17,105,6,37,11,-15
41,66,25,-54,8,45,14,131,26,61,25,-11
57,68,11,-63,23,39,8,135,42,65,39,1
53,90,37,-72,8,64,5,158,59,89,55,22
72,105,33,-89,19,69,-2,181,92,118,81,38
98,125,27,-112,35,76,-10,209,133,155,112,62
140,166,26,-153,57,96,-21,252,176,204,154,98
182,199,16,-191,83,107,-55,281,215,253,198,132
190,235,45,-213,72,140,-73,302,261,315,249,177
197,267,70,-232,63,168,-85,316,299,367,296,218
221,292,71,-256,75,181,-109,310,310,391,318,239
247,315,68,-281,89,191,-106,300,319,409,344,265
237,315,78,-276,79,196,-100,249,306,397,337,263
181,277,96,-230,42,186,-81,176,254,333,278,213
129,217,88,-174,20,153,-49,103,165,224,186,138
82,159,77,-121,2,117,-27,44,70,124,108,68
38,107,68,-73,-15,87,-15,13,-2,55,59,19
20,77,57,-49,-19,67,-12,-9,-46,8,13,-13
10,62,52,-36,-21,56,-8,-22,-73,-12,-16,-29
4,47,43,-26,-20,45,-5,-35,-91,-20,-28,-45
6,43,37,-25,-16,40,0,-37,-96,-24,-37,-51
13,40,27,-27,-7,33,-2,-35,-91,-37,-36,-49
6,37,30,-22,-12,33,-6,-35,-88,-50,-35,-53
-14,32,46,-10,-30,39,-4,-31,-85,-50,-34,-55
-14,30,44,-8,-29,36,-1,-29,-79,-50,-29,-55
-9,30,39,-10,-24,35,1,-31,-85,-50,-31,-51
-9,30,39,-11,-24,34,-3,-47,-91,-50,-27,-50
-4,29,33,-13,-18,30,-5,-49,-90,-48,-25,-50
-5,34,39,-15,-22,36,-5,-41,-90,-43,-25,-45
8,47,39,-27,-16,42,-5,-39,-90,-40,-25,-45
6,48,42,-27,-18,45,-5,-33,-90,-37,-25,-45
-18,44,62,-13,-41,53,-5,-30,-87,-32,-26,-45
-3,42,45,-20,-24,43,-5,-26,-84,-30,-30,-45
11,39,28,-25,-8,33,-5,-24,-81,-35,-30,-45
5,36,31,-20,-14,33,-5,-26,-78,-39,-29,-45
5,34,29,-19,-13,31,-4,-24,-75,-42,-33,-45
0,31,30,-16,-15,31,-6,-26,-76,-47,-39,-48
-1,30,30,-14,-15,30,-1,-21,-80,-51,-46,-52
3,30,28,-17,-13,29,11,-22,-82,-54,-49,-55
5,30,24,-18,-10,27,12,-38,-85,-57,-52,-58
5,30,25,-18,-10,27,8,-41,-88,-61,-54,-61
6,28,21,-17,-8,24,6,-39,-90,-64,-58,-64
2,21,20,-11,-9,20,2,-41,-93,-67,-60,-67
-4,16,20,-6,-12,18,-1,-39,-95,-70,-62,-70
-4,11,15,-4,-10,12,3,-41,-95,-73,-65,-70
-7,5,12,1,-10,8,5,-47,-95,-76,-65,-70
-7,0,8,3,-7,4,5,-50,-95,-79,-69,-70
-6,0,6,3,-6,2,5,-50,-93,-81,-70,-70
1,0,-1,-1,1,-1,5,-50,-90,-85,-70,-70
-4,0,4,2,-4,2,5,-50,-90,-85,-75,-70
-11,0,11,5,-11,5,0,-50,-90,-86,-75,-70
-9,0,8,4,-9,4,0,-51,-90,-90,-75,-70
-24,2,26,11,-25,14,-1,-55,-90,-90,-75,-70
-22,5,27,8,-25,16,-5,-55,-93,-87,-75,-71
-14,5,18,4,-16,11,-5,-57,-97,-85,-75,-76
-5,5,9,0,-8,7,-3,-60,-102,-85,-75,-79
15,5,-10,-10,12,-2,2,-60,-105,-81,-75,-80
-4,5,8,-1,-6,6,8,-57,-105,-80,-75,-80
-6,6,12,0,-10,9,11,-54,-105,-80,-75,-80
3,4,2,-4,0,3,16,-56,-105,-74,-75,-80
-17,6,22,5,-20,14,20,-54,-106,-67,-69,-80
0,4,4,-2,-2,4,14,-56,-98,-61,-62,-79
5,12,7,-9,-1,9,16,-53,-79,-54,-56,-68
-4,50,54,-24,-29,52,13,-50,-49,-48,-50,-56
10,74,63,-42,-27,68,18,-50,-32,-45,-42,-45
4,85,80,-45,-38,82,1,-50,-37,-45,-40,-38
7,102,95,-55,-44,99,-60,-62,-34,-45,-36,-30
15,96,81,-56,-33,88,-68,-81,-36,-45,-35,-26
14,89,75,-52,-31,81,-53,-90,-44,-46,-30,-31
27,76,49,-52,-11,62,-47,-84,-56,-43,-29,-33
22,32,10,-27,6,20,-31,-81,-87,-68,-53,-52
-8,-18,-11,13,2,-14,-20,-75,-98,-98,-75,-78
-4,-47,-42,26,19,-44,1,-73,-102,-102,-95,-85
-1,-51,-50,26,25,-51,16,-66,-104,-102,-101,-85
-15,-54,-40,35,13,-47,11,-65,-106,-109,-100,-86
-21,-56,-34,39,7,-45,8,-60,-104,-106,-99,-86
-34,-61,-28,48,-3,-44,5,-55,-105,-115,-101,-93
-18,-58,-41,38,11,-49,-1,-57,-107,-112,-99,-93
-7,-62,-55,34,24,-59,5,-42,-100,-116,-106,-92
-14,-58,-44,36,15,-51,20,-71,-113,-116,-107,-89
-3,-61,-58,32,28,-60,31,-45,-93,-110,-108,-93
-17,-66,-49,42,16,-57,42,-46,-92,-128,-130,-114
18,24,5,-21,7,14,17,62,125,77,12,-30
216,186,-30,-201,123,78,-200,-48,324,492,360,262
376,373,-3,-375,189,185,-464,-561,153,753,691,601
169,296,128,-233,20,212,-419,-829,-285,254,407,457
-156,29,186,64,-171,107,-182,-849,-707,-419,-124,37
-156,-37,119,96,-137,41,-49,-442,-460,-304,-148,-75
-45,-9,35,27,-40,12,-25,-68,-104,-100,-102,-78
-16,10,26,3,-21,18,-4,-50,-68,-86,-101,-81
-4,12,15,-4,-10,13,8,-2,-31,-64,-77,-71
-5,0,5,2,-5,2,17,-7,-37,-65,-84,-75
-1,-2,-1,2,0,-2,24,9,-25,-46,-71,-67
0,-12,-13,6,7,-12,15,19,-24,-47,-75,-69
18,-17,-35,0,26,-26,34,30,-20,-35,-66,-61
25,-19,-44,-3,35,-31,40,43,-13,-32,-65,-60
14,-14,-28,0,22,-21,29,37,-8,-23,-59,-55
8,-12,-20,2,14,-16,25,44,8,-25,-53,-51
19,-9,-28,-5,24,-18,15,55,22,-30,-48,-49
32,-5,-37,-13,35,-21,10,71,41,-10,-42,-44
30,-5,-35,-12,32,-20,2,73,43,-5,-37,-42
38,6,-32,-22,35,-13,-4,88,55,10,-22,-33
50,20,-31,-35,40,-5,-9,106,77,37,-11,-22
64,36,-28,-50,46,4,-14,121,90,51,6,-8
92,56,-35,-74,63,10,-20,145,114,75,31,12
109,71,-37,-90,73,17,-25,179,151,111,60,36
115,95,-21,-104,67,37,-29,219,191,156,95,66
147,135,-11,-141,79,62,-49,252,245,211,137,100
179,171,-7,-175,93,82,-73,280,287,266,188,150
199,195,-4,-196,101,95,-82,305,323,303,225,185
228,228,0,-228,114,113,-102,303,355,347,265,217
252,255,3,-254,125,128,-114,292,367,376,300,242
238,249,10,-244,114,129,-100,259,361,369,300,238
190,216,26,-203,81,121,-87,187,319,331,261,217
142,168,25,-155,58,96,-68,117,251,243,184,154
92,112,20,-102,36,66,-38,55,171,148,105,83
40,56,15,-48,12,35,-20,11,91,75,38,31
2,11,9,-7,-4,10,-6,-8,35,16,-6,-1
-9,-5,3,7,-6,-1,-3,-18,4,-11,-25,-23
-11,-10,1,11,-6,-4,-6,-31,-7,-25,-41,-38
-33,-18,15,25,-24,-2,-5,-32,-11,-36,-46,-41
-39,-26,14,32,-26,-6,-5,-30,-16,-35,-44,-39
-37,-33,5,35,-21,-14,-5,-30,-20,-34,-45,-39
-36,-35,1,36,-18,-17,-4,-30,-25,-31,-45,-54
-24,-35,-11,30,-6,-22,0,-30,-22,-30,-46,-53
-37,-35,1,36,-18,-17,3,-31,-19,-29,-43,-45
-36,-35,1,35,-18,-17,5,-44,-16,-24,-39,-44
-13,-35,-22,24,5,-29,9,-45,-13,-25,-41,-36
-16,-34,-18,25,1,-25,10,-41,-10,-25,-36,-36
-18,-30,-12,24,-3,-21,14,-39,-10,-25,-35,-43
-18,-30,-12,24,-3,-21,15,-35,-10,-25,-35,-42
-33,-28,5,30,-19,-11,15,-34,-10,-21,-30,-40
-31,-24,7,27,-18,-9,19,-29,-10,-20,-30,-40
-25,-26,-1,25,-11,-13,21,-26,-10,-20,-29,-36
-28,-24,4,26,-15,-10,18,-23,-10,-20,-25,-35
-19,-27,-8,23,-5,-17,15,-19,-14,-21,-25,-36
-15,-33,-17,24,2,-25,12,-14,-15,-18,-27,-40
-13,-39,-26,26,6,-32,10,-23,-15,-15,-33,-43
-14,-38,-24,27,5,-31,6,-32,-15,-14,-39,-47
-7,-35,-28,22,11,-32,5,-29,-14,-22,-45,-50
13,-35,-48,11,31,-41,9,-26,-17,-40,-50,-54
12,-34,-46,11,30,-40,14,-24,-20,-45,-50,-55
-13,-51,-39,32,13,-45,18,-19,-23,-45,-51,-55
-26,-62,-36,45,5,-49,19,-22,-25,-45,-55,-60
-35,-62,-27,49,-3,-45,14,-35,-28,-45,-55,-60
-42,-66,-24,54,-8,-45,15,-35,-30,-45,-52,-61
-33,-75,-41,55,4,-58,30,-30,-30,-45,-50,-65
-35,-82,-47,59,6,-64,37,-29,-30,-45,-50,-64
-35,-79,-44,57,5,-61,34,-24,-30,-45,-50,-67
-36,-80,-45,59,4,-62,32,-27,-30,-45,-50,-70
-33,-80,-46,57,7,-63,29,-37,-30,-45,-50,-70
-39,-80,-41,60,1,-60,31,-35,-31,-45,-55,-67
-45,-85,-40,65,-2,-62,35,-35,-35,-45,-55,-64
-25,-84,-59,55,18,-71,35,-33,-35,-45,-56,-65
-32,-87,-55,60,12,-71,36,-29,-35,-45,-60,-65
-43,-90,-47,66,2,-68,40,-31,-35,-45,-60,-65
-45,-91,-45,68,0,-68,41,-26,-35,-45,-58,-64
-54,-87,-33,71,-10,-60,37,-25,-31,-41,-51,-59
-33,-85,-52,59,10,-68,35,-25,-25,-34,-44,-61
-16,-84,-67,51,26,-76,31,-20,-19,-27,-38,-57
-21,-79,-58,51,18,-68,31,-20,-14,-21,-30,-55
-35,-81,-46,58,6,-63,53,-19,-8,-14,-25,-55
-29,-56,-27,43,-1,-42,59,-14,21,-9,-16,-51
2,-21,-22,10,12,-21,45,-15,42,-5,-4,-42
-46,-21,25,33,-35,2,32,-14,39,-1,8,-34
-73,-19,53,46,-63,17,19,-31,41,11,16,-28
-58,-20,38,39,-48,9,12,-49,32,18,23,-20
-39,-20,19,29,-29,0,1,-25,29,10,29,-16
23,-20,-44,-1,34,-32,-2,-24,18,2,10,-3
-6,-75,-70,41,32,-72,17,-48,-20,-25,-29,-33
-72,-125,-53,99,-9,-89,41,-40,-23,-51,-52,-68
-67,-139,-72,103,3,-105,45,-40,-31,-51,-59,-65
-24,-152,-128,89,52,-140,45,-33,-43,-48,-53,-87
-25,-157,-132,91,54,-144,56,-32,-40,-55,-56,-91
-45,-162,-117,104,36,-139,61,-28,-39,-67,-72,-82
-48,-167,-120,108,37,-143,65,-19,-36,-73,-77,-85
-58,-162,-104,110,23,-132,69,-21,-35,-61,-65,-74
-57,-172,-115,115,29,-143,74,-4,-35,-68,-70,-78
-77,-166,-89,122,6,-128,77,-16,-44,-56,-57,-66
-61,-174,-113,117,26,-143,87,15,-26,-64,-64,-79
-70,-165,-95,117,13,-130,97,1,-20,-65,-87,-116
-25,-87,-61,56,18,-74,74,112,197,160,62,-18
181,92,-89,-136,135,2,-125,41,435,614,457,312
288,327,38,-308,125,182,-374,-455,289,928,823,676
67,224,157,-146,-45,190,-301,-722,-176,356,476,484
-229,-60,169,144,-199,54,-72,-737,-609,-368,-102,3
-210,-148,61,179,-135,-43,48,-373,-405,-259,-132,-96
-77,-128,-51,103,-13,-89,61,-24,-51,-50,-47,-54
-34,-107,-73,71,20,-90,62,7,11,-23,-20,-54
-57,-136,-80,96,12,-108,92,73,50,-13,-6,-48
-45,-142,-97,94,26,-119,90,70,43,-12,-13,-47
-8,-138,-130,73,61,-134,89,72,45,0,-8,-40
-35,-142,-107,89,36,-124,87,81,43,3,-11,-39
-34,-139,-104,87,35,-121,83,83,36,14,-11,-34
-24,-140,-116,82,46,-128,87,97,45,20,4,-35
-20,-132,-112,76,46,-122,96,112,68,51,27,-33
-1,-128,-127,65,63,-127,94,125,79,57,24,-29
3,-122,-125,60,64,-124,85,116,71,58,25,-31
4,-116,-120,56,62,-118,79,128,79,63,27,-24
14,-112,-126,49,71,-119,70,123,86,67,39,-18
12,-102,-114,46,63,-108,65,127,95,83,49,-8
1,-88,-89,44,45,-89,57,143,106,90,54,4
38,-75,-113,19,76,-94,51,148,118,122,84,19
80,-58,-138,-11,109,-98,44,173,135,141,93,39
85,-39,-123,-23,104,-81,38,198,165,168,121,63
108,-16,-125,-45,117,-70,28,233,208,225,168,101
138,12,-126,-75,132,-57,11,262,238,265,203,133
164,47,-117,-105,140,-35,-6,274,269,320,252,174
188,79,-109,-133,148,-15,-28,299,309,373,298,216
213,110,-102,-161,157,4,-49,307,342,426,346,259
227,126,-100,-176,163,13,-48,298,344,461,380,271
210,116,-94,-163,152,11,-40,262,336,440,369,255
185,99,-86,-142,135,6,-36,206,317,377,311,231
130,55,-75,-92,102,-10,-5,162,235,286,229,160
55,-6,-62,-24,58,-34,38,109,136,188,146,92
13,-55,-68,21,41,-61,56,64,60,108,78,44
-18,-90,-72,54,27,-81,64,42,9,53,34,-2
-40,-111,-71,76,16,-91,71,29,-21,26,13,-30
-40,-130,-90,85,25,-110,74,24,-41,19,8,-38
-40,-130,-90,85,25,-110,75,19,-43,10,0,-41
-44,-132,-88,88,22,-110,75,13,-48,0,-5,-46
-56,-139,-83,98,14,-111,75,7,-51,-8,-14,-49
-43,-135,-92,90,25,-113,75,7,-50,-12,-31,-50
-22,-135,-113,79,46,-123,75,12,-50,-17,-31,-50
-27,-135,-108,81,41,-121,74,15,-50,-20,-29,-50
-24,-135,-111,80,44,-123,70,18,-49,-15,-31,-50
-32,-134,-102,83,36,-118,70,23,-46,-15,-30,-47
-35,-143,-108,90,37,-126,67,25,-43,-14,-31,-45
-56,-152,-96,105,20,-123,65,20,-41,-9,-28,-45
-84,-147,-63,115,-10,-105,65,20,-37,-11,-23,-42
-43,-145,-102,94,30,-124,68,19,-35,-7,-20,-39
-27,-141,-114,84,44,-127,71,15,-35,-5,-17,-41
-44,-140,-95,92,25,-117,69,15,-35,-5,-12,-45
-45,-144,-99,94,28,-121,71,13,-35,-1,-10,-50
-62,-147,-85,105,12,-116,69,7,-35,0,-17,-53
-63,-152,-89,108,13,-120,74,2,-35,0,-25,-58
-55,-155,-99,105,22,-127,81,-1,-42,-7,-30,-60
-56,-157,-101,107,23,-129,80,-7,-50,-14,-38,-60
-39,-160,-121,100,41,-140,79,-10,-54,-21,-41,-60
-43,-164,-120,104,39,-142,76,-10,-55,-29,-46,-60
-46,-165,-119,106,37,-141,74,-9,-55,-36,-54,-61
-48,-168,-120,108,36,-144,75,-13,-55,-42,-55,-64
-44,-170,-126,108,41,-148,75,-22,-56,-47,-56,-70
-49,-170,-121,110,37,-145,75,-31,-53,-50,-53,-69
-55,-175,-120,115,33,-147,82,-38,-63,-55,-63,-75
-29,-175,-145,102,59,-160,86,-36,-76,-55,-81,-91
-58,-176,-118,118,30,-147,84,-29,-75,-55,-80,-90
-68,-180,-112,124,22,-146,86,-26,-74,-55,-78,-90
-47,-182,-135,115,44,-158,84,-21,-70,-55,-75,-90
-55,-186,-131,120,39,-158,86,-17,-70,-57,-75,-90
-55,-181,-126,118,36,-153,89,-12,-68,-60,-75,-90
-57,-180,-123,119,33,-151,90,-10,-64,-63,-74,-90
-63,-180,-117,122,27,-148,90,-10,-66,-66,-75,-90
-65,-180,-115,123,25,-147,90,-10,-64,-69,-75,-90
-43,-180,-136,112,46,-158,91,-10,-65,-70,-75,-90
-32,-181,-149,107,58,-164,89,-10,-65,-64,-75,-90
-40,-188,-148,114,55,-168,91,-5,-58,-58,-69,-84
-40,-181,-142,111,51,-161,89,-5,-50,-51,-63,-78
-53,-178,-125,116,36,-151,91,-4,-44,-45,-59,-74
-47,-160,-112,104,33,-136,89,1,-37,-37,-52,-67
-26,-124,-98,75,36,-111,90,-2,-18,-30,-48,-63
-24,-109,-85,67,31,-96,97,12,-9,-22,-47,-59
-26,-101,-75,64,24,-87,55,-8,-8,-17,-51,-61
-30,-90,-59,60,15,-75,35,-49,-3,-18,-52,-59
-26,-90,-64,58,19,-76,46,-50,-16,-22,-57,-60
4,-93,-97,45,51,-95,45,-46,-25,-18,-59,-60
5,-122,-127,58,66,-124,50,-45,-43,-27,-60,-58
-59,-200,-141,129,41,-170,56,-40,-70,-67,-96,-86
-60,-230,-171,145,56,-201,71,-39,-77,-85,-115,-108
-36,-226,-190,131,78,-208,79,-37,-74,-82,-107,-108
-50,-233,-183,142,66,-208,89,-30,-74,-89,-112,-115
-50,-227,-176,139,63,-201,103,-35,-78,-90,-110,-117
-73,-252,-179,163,53,-215,106,-22,-70,-88,-113,-120
-81,-262,-181,172,50,-221,99,-31,-90,-93,-119,-125
-66,-261,-195,164,65,-228,101,-20,-81,-85,-115,-125
-81,-269,-188,175,54,-228,93,-40,-85,-97,-127,-135
-80,-264,-184,172,52,-224,97,-38,-67,-82,-110,-134
-83,-278,-195,181,56,-236,108,-2,-70,-97,-139,-142
-61,-216,-155,138,47,-185,97,26,10,-31,-102,-111
75,-98,-172,12,124,-135,10,85,297,299,147,73
260,102,-158,-181,209,-28,-274,-299,283,720,554,436
268,202,-66,-235,167,68,-403,-715,-42,631,628,585
-76,-45,31,61,-53,-7,-212,-839,-560,-167,60,183
-244,-221,24,232,-134,-98,-11,-650,-656,-444,-215,-119
-106,-200,-94,153,-6,-147,78,-167,-219,-156,-124,-107
-31,-190,-159,111,64,-174,76,-29,-66,-85,-141,-120
-9,-205,-196,108,93,-200,81,-10,-31,-64,-120,-112
-56,-218,-163,137,54,-190,94,19,-9,-65,-123,-116
-44,-213,-168,129,62,-190,97,13,-14,-56,-115,-116
-39,-219,-180,130,71,-200,104,41,3,-48,-109,-110
-68,-220,-153,144,42,-186,103,42,-2,-46,-107,-108
-62,-219,-157,141,48,-188,100,59,11,-35,-98,-100
-55,-216,-161,136,53,-188,99,51,15,-35,-98,-99
-31,-209,-178,120,74,-193,100,62,29,-24,-90,-91
-32,-206,-174,119,72,-190,100,80,37,-22,-88,-89
-32,-200,-168,116,68,-184,100,83,49,-15,-83,-83
-18,-197,-179,107,81,-188,95,88,62,-7,-80,-75
3,-191,-193,94,98,-192,87,94,74,1,-73,-70
15,-177,-191,81,103,-184,79,110,85,17,-62,-61
27,-163,-190,68,109,-176,71,131,94,33,-50,-58
36,-153,-189,58,113,-171,64,157,123,56,-27,-43
45,-140,-184,48,115,-162,55,191,151,87,2,-16
76,-110,-185,17,131,-147,45,222,185,120,31,7
96,-82,-178,-7,137,-129,36,255,233,167,69,33
117,-52,-169,-32,143,-110,19,286,274,218,110,65
152,-8,-161,-72,157,-84,-8,315,321,278,159,113
173,22,-151,-97,162,-64,-22,325,357,322,204,147
191,46,-145,-118,167,-49,-35,327,378,348,229,176
182,46,-135,-114,158,-44,-51,304,375,364,247,179
168,39,-129,-103,148,-45,-45,243,350,340,233,167
134,14,-120,-74,127,-53,-31,174,296,263,163,128
63,-53,-116,-5,90,-84,-24,76,206,156,95,44
