I,II,III,aVR,aVL,aVF,V1,V2,V3,V4,V5,V6
153,-79,-232,-37,193,-155,452,-25,-35,8,-35,-116
133,-116,-249,-8,191,-182,473,-16,-34,-14,-60,-147
119,-121,-240,2,180,-180,517,-4,-24,-39,-98,-186
111,-134,-245,11,178,-190,488,23,-28,-32,-87,-178
76,-159,-235,42,155,-197,482,46,-14,-31,-96,-198
64,-172,-235,55,150,-203,476,30,-19,-55,-78,-190
84,-159,-243,38,164,-201,492,20,-21,-32,-89,-199
111,-116,-227,3,169,-172,479,5,-18,-41,-76,-176
137,-186,-323,25,230,-254,505,171,61,44,-130,-243
208,69,-139,-138,173,-35,446,356,359,523,227,16
392,539,147,-466,123,342,226,39,232,953,1232,902
176,589,413,-383,-119,501,193,-667,-523,69,825,733
-125,227,352,-52,-238,289,152,-936,-1099,-1058,-288,-88
47,-139,-187,46,117,-163,231,-292,-744,-659,-315,-221
71,-219,-289,75,180,-254,403,232,-152,-134,-189,-236
26,-195,-221,85,124,-207,426,164,-35,-58,-125,-200
45,-198,-243,77,144,-220,464,120,42,19,-109,-166
88,-154,-242,33,165,-198,436,104,63,11,-112,-193
150,-129,-279,-11,214,-203,432,92,72,28,-101,-190
91,-181,-272,45,182,-226,430,100,88,-10,-136,-200
99,-170,-269,35,184,-219,422,88,78,14,-113,-192
72,-200,-272,64,172,-235,428,109,92,30,-122,-192
84,-192,-276,55,180,-234,381,120,86,28,-111,-173
133,-124,-257,-4,195,-190,377,131,94,38,-111,-170
83,-176,-259,47,171,-217,405,146,94,33,-107,-171
94,-173,-267,40,180,-220,413,139,100,58,-98,-163
123,-155,-278,16,201,-216,395,138,104,50,-97,-169
107,-129,-235,11,171,-182,359,127,110,61,-86,-149
98,-112,-210,7,154,-161,369,147,117,91,-94,-136
100,-140,-240,20,170,-190,364,177,119,106,-72,-135
135,-113,-248,-11,192,-180,295,175,121,132,-47,-121
161,-86,-247,-38,204,-166,309,174,119,144,-42,-119
140,-48,-188,-46,164,-118,327,185,125,184,1,-82
142,-49,-191,-46,167,-120,286,216,127,228,38,-39
164,-36,-199,-64,182,-117,273,207,133,272,74,-1
198,35,-164,-116,181,-64,261,228,134,330,130,36
214,55,-159,-135,187,-52,237,255,115,372,175,77
230,88,-142,-159,186,-27,193,226,114,414,234,130
284,118,-167,-201,225,-24,159,218,91,433,279,171
306,132,-175,-219,240,-21,118,187,63,429,318,220
305,142,-163,-223,233,-10,95,180,41,423,349,242
296,133,-163,-214,229,-15,93,186,28,415,334,265
271,121,-151,-196,211,-15,102,124,34,385,321,264
274,114,-160,-194,217,-23,136,99,23,317,265,175
244,79,-165,-161,204,-43,161,94,17,237,179,102
159,-7,-166,-76,163,-86,205,96,9,151,110,47
116,-48,-164,-33,140,-105,225,59,2,67,37,-24
96,-69,-166,-13,131,-117,240,22,3,18,-12,-72
65,-107,-171,21,118,-139,255,42,6,-17,-42,-90
71,-120,-191,25,131,-155,243,-18,4,-45,-71,-109
80,-114,-194,17,138,-154,246,6,7,-56,-90,-115
59,-109,-168,25,113,-138,239,5,1,-50,-84,-121
80,-122,-202,21,142,-162,241,-7,4,-47,-74,-140
81,-125,-206,22,144,-165,266,90,36,-42,-71,-124
46,-110,-156,33,101,-133,276,71,42,-23,-61,-103
41,-98,-140,29,91,-119,275,53,43,-13,-62,-99
47,-94,-140,24,94,-117,271,52,48,-2,-80,-118
76,-70,-146,-3,111,-108,269,47,49,2,-81,-115
64,-83,-148,10,106,-115,260,53,49,-7,-68,-95
29,-120,-149,46,89,-134,252,48,44,-6,-62,-110
60,-97,-157,19,109,-126,247,66,46,-3,-64,-104
55,-90,-145,18,100,-117,258,66,42,-1,-65,-90
19,-94,-113,38,66,-103,292,56,40,3,-66,-90
37,-72,-109,18,73,-91,283,54,40,5,-70,-85
10,-90,-99,41,55,-94,266,58,43,5,-70,-84
-12,-127,-115,70,52,-121,260,57,47,5,-68,-79
-16,-136,-119,76,52,-127,253,48,49,5,-64,-82
-26,-122,-96,74,35,-108,249,44,54,5,-65,-85
-7,-113,-106,60,49,-109,242,39,54,5,-61,-87
-41,-114,-73,78,16,-93,238,21,49,4,-60,-91
-11,-112,-101,62,45,-106,232,30,43,1,-60,-94
18,-121,-139,52,79,-130,230,42,40,-4,-55,-127
-40,-127,-87,84,24,-107,226,39,34,-6,-50,-147
-20,-120,-100,70,40,-110,225,41,31,-11,-45,-145
-8,-125,-117,67,55,-121,219,38,32,-15,-42,-145
-40,-125,-85,83,23,-105,224,44,38,-15,-33,-146
-2,-114,-112,58,55,-113,251,14,53,-15,-51,-144
15,-119,-134,52,75,-127,248,-8,51,-15,-68,-142
5,-116,-121,56,64,-119,235,-9,44,-15,-59,-140
-6,-121,-115,63,55,-117,231,-28,41,-15,-58,-137
-23,-131,-108,77,43,-119,221,-20,32,-15,-53,-147
-22,-118,-97,70,37,-107,224,-13,31,-15,-49,-123
-20,-117,-97,69,39,-106,210,-11,35,-18,-56,-118
10,-114,-124,52,68,-119,209,20,33,-21,-53,-135
13,-112,-124,50,69,-118,247,9,46,-19,-45,-124
-3,-107,-104,55,51,-106,251,-39,71,-15,-40,-127
-23,-108,-85,66,31,-96,250,-19,73,-12,-31,-119
-37,-70,-33,54,-1,-52,256,29,75,-3,-28,-111
-31,-39,-8,35,-12,-23,260,75,125,30,-12,-99
1,-21,-22,10,11,-21,218,62,157,72,11,-72
33,54,21,-44,6,37,157,-9,126,78,35,-54
37,55,18,-46,9,37,160,-33,68,67,33,-54
64,2,-61,-32,62,-30,163,12,29,54,8,-57
25,-57,-81,16,53,-69,189,4,4,21,3,-51
-20,-78,-58,49,19,-68,207,-48,3,12,-47,-97
-6,-77,-70,42,32,-74,200,-25,-3,3,-62,-107
-43,-117,-73,80,15,-94,188,-19,-9,-1,-58,-105
-60,-116,-56,88,-2,-85,173,-24,-4,-11,-47,-94
-59,-126,-67,93,4,-96,242,-2,-7,-20,-40,-94
-63,-94,-31,78,-16,-62,265,-4,40,-3,-33,-84
-37,-130,-93,84,28,-111,227,74,44,10,-65,-122
9,-25,-34,8,22,-29,247,344,291,309,18,-111
227,447,220,-337,3,333,88,314,444,934,920,684
144,634,489,-389,-173,561,-68,-392,-166,628,1157,1024
-190,393,583,-102,-387,487,-98,-1029,-960,-694,90,253
-101,31,132,35,-117,81,-101,-649,-930,-851,-282,-100
-9,-155,-145,82,69,-150,125,71,-282,-209,-151,-114
-34,-106,-72,70,20,-89,221,131,-33,-78,-117,-132
12,-77,-89,32,50,-83,189,63,5,-2,-62,-107
18,-57,-75,20,47,-66,235,92,58,7,-78,-120
24,-55,-78,16,51,-66,233,69,68,21,-66,-102
-26,-101,-75,64,25,-88,239,91,115,49,-71,-108
-69,-137,-68,103,0,-103,224,97,105,41,-80,-124
-29,-101,-72,65,22,-86,224,85,113,48,-89,-139
-13,-74,-61,44,24,-67,209,107,107,38,-57,-128
-23,-92,-69,58,24,-80,221,101,117,41,-61,-116
-7,-84,-77,46,35,-80,239,97,131,40,-78,-110
-2,-71,-69,37,34,-70,200,126,124,56,-62,-101
-32,-64,-32,48,1,-48,192,117,121,47,-62,-99
-40,-55,-15,47,-13,-35,202,145,116,75,-51,-93
24,-45,-69,11,46,-57,204,122,111,101,-46,-88
23,-41,-64,9,44,-52,204,130,112,95,-34,-86
34,-16,-50,-9,43,-33,209,191,156,117,-11,-65
60,2,-58,-30,59,-28,173,181,183,124,-10,-54
42,5,-37,-24,39,-16,173,189,171,161,12,-39
78,47,-31,-63,54,8,163,190,167,207,59,-15
71,92,21,-82,25,56,94,189,160,227,84,-7
49,78,29,-64,9,53,89,192,150,270,105,29
74,102,28,-89,23,65,84,196,158,312,155,86
143,200,57,-172,43,128,73,238,165,367,229,155
167,223,56,-195,55,139,72,246,146,417,284,214
145,207,63,-176,41,135,11,209,131,422,311,244
162,207,45,-184,58,125,-46,189,119,413,347,288
163,226,63,-194,50,144,-36,172,107,408,361,315
133,218,86,-176,23,152,-32,145,98,410,336,298
121,189,68,-155,26,128,-34,122,90,371,299,269
116,180,64,-149,26,122,-17,103,80,274,231,199
61,114,53,-87,4,83,36,84,71,176,150,111
25,69,44,-47,-10,57,86,59,60,96,76,54
-8,33,41,-13,-25,37,105,39,47,32,24,9
-18,-18,0,18,-9,-9,137,30,45,-5,-7,-45
16,-21,-36,3,26,-28,124,15,45,-34,-41,-80
3,-18,-20,8,12,-19,124,3,45,-45,-58,-80
-28,-19,9,24,-19,-5,162,-14,44,-38,-43,-84
-52,-31,21,41,-36,-5,175,-42,46,-30,-55,-84
-43,-19,23,31,-33,2,166,-44,42,-25,-71,-78
-51,-13,37,32,-44,12,173,-34,39,-16,-55,-75
-59,-38,21,48,-40,-8,166,-31,56,-14,-49,-71
-43,-22,22,32,-32,0,101,-22,61,-7,-50,-63
-34,-7,28,20,-31,10,127,-16,60,-7,-65,-53
-42,-26,16,33,-29,-5,167,-7,56,-31,-65,-37
-66,-27,39,46,-53,6,146,2,56,-30,-53,-41
-22,6,28,7,-25,16,150,2,53,-17,-47,-60
48,27,-21,-37,34,3,143,23,59,-9,-39,-53
50,5,-45,-27,48,-20,135,17,76,-20,-48,-45
-2,-15,-13,8,6,-14,127,-21,54,-41,-56,-41
30,11,-19,-21,24,-3,116,-23,41,-41,-65,-30
77,27,-50,-52,64,-11,109,-20,39,-45,-81,-38
9,-8,-16,0,12,-12,105,-7,31,-48,-97,-38
-30,-32,-2,31,-14,-17,118,-15,27,-50,-102,-40
-2,-41,-39,22,19,-40,129,-48,20,-50,-98,-62
43,-10,-53,-16,48,-31,124,-43,21,-49,-103,-67
39,-3,-41,-18,40,-22,118,-29,18,-51,-110,-68
18,-25,-43,4,31,-35,113,-35,26,-49,-111,-72
22,-11,-33,-5,27,-22,108,-79,35,-51,-109,-74
-10,-39,-30,25,11,-34,101,-78,29,-55,-110,-76
-43,-59,-16,51,-13,-37,95,-27,23,-52,-110,-74
-42,-49,-7,46,-17,-28,85,-45,18,-45,-110,-76
-1,-20,-20,11,10,-20,86,-50,11,-42,-115,-74
8,2,-6,-5,7,-2,125,-52,16,-34,-119,-75
0,-3,-2,2,1,-2,136,-47,38,-32,-124,-75
-18,-28,-9,23,-4,-18,84,-55,40,-53,-123,-78
-37,-56,-19,47,-9,-37,83,-69,33,-57,-119,-93
-10,-32,-22,21,6,-26,124,-20,29,-54,-120,-91
7,-21,-28,7,17,-24,109,-62,22,-54,-116,-84
25,-19,-45,-3,35,-32,97,-74,19,-48,-114,-77
21,-8,-29,-6,25,-18,92,-49,10,-52,-116,-71
1,-15,-16,7,9,-15,98,-41,21,-44,-119,-64
-4,-35,-31,20,14,-33,101,-28,32,-44,-121,-58
-71,-53,18,61,-44,-17,107,-44,30,-63,-118,-77
-87,-32,55,59,-71,11,117,-34,28,-56,-126,-78
-14,-3,11,8,-13,4,107,-68,24,-44,-131,-71
9,10,1,-10,4,6,96,-86,25,-38,-124,-69
-27,-14,13,20,-19,-1,83,-83,21,-30,-121,-62
-34,-37,-3,36,-15,-20,73,-93,14,-25,-115,-59
32,24,-8,-28,20,8,45,-69,12,-17,-112,-50
35,54,18,-45,8,36,68,-44,52,-10,-103,-40
20,68,48,-44,-14,58,101,-40,96,1,-83,-28
59,118,58,-89,0,88,96,-39,126,28,-53,-16
49,136,87,-93,-19,111,29,-60,115,43,-34,-4
53,130,77,-92,-13,103,-47,-82,25,32,-44,1
112,100,-12,-106,62,44,-9,-71,-19,2,-65,15
110,51,-59,-80,85,-4,-5,-71,-29,-29,-93,1
30,37,7,-33,11,22,-3,-56,-15,-39,-100,-37
19,5,-14,-12,17,-5,13,-63,-38,-59,-117,-52
19,-45,-65,14,42,-55,53,-93,-48,-61,-165,-96
-7,-24,-18,16,6,-21,102,-84,-31,-54,-135,-89
11,-49,-61,19,36,-55,107,-83,-34,-50,-145,-94
39,-18,-57,-10,48,-37,110,-77,6,-33,-119,-44
46,-69,-115,12,81,-92,94,53,-5,-27,-149,-86
78,42,-36,-60,57,3,102,320,262,288,-31,-47
293,507,213,-400,40,360,-83,224,380,898,866,785
194,636,442,-415,-124,539,-234,-539,-256,510,938,995
-163,377,540,-107,-351,458,-237,-1154,-991,-710,-31,241
-79,5,84,37,-82,44,-205,-707,-915,-779,-303,-50
50,-122,-172,36,112,-147,14,18,-286,-218,-228,-97
7,-76,-83,34,46,-80,93,88,-67,-98,-179,-79
30,-63,-93,16,62,-78,70,-16,-32,-49,-151,-60
42,-32,-74,-4,58,-53,88,-6,29,-44,-165,-87
-21,-90,-69,56,24,-79,73,40,23,-26,-143,-59
15,-52,-67,19,41,-59,87,56,40,-15,-150,-78
51,-31,-82,-9,67,-57,104,44,50,-17,-134,-74
-2,-104,-101,53,50,-102,106,50,65,-7,-133,-80
3,-89,-93,43,48,-91,94,31,58,-12,-124,-90
-7,-77,-70,42,32,-73,86,54,61,-2,-117,-65
4,-85,-90,40,47,-87,81,65,60,-8,-118,-44
20,-77,-97,29,59,-86,79,73,60,9,-113,-46
14,-76,-90,31,52,-83,81,97,61,30,-105,-40
46,-41,-87,-2,67,-64,79,93,60,33,-97,-33
53,-32,-85,-10,70,-59,81,101,62,38,-89,-29
16,-46,-63,15,40,-54,73,97,61,47,-82,-23
20,-16,-36,-2,28,-26,41,108,49,82,-77,-9
58,-9,-67,-24,63,-38,21,131,63,99,-55,11
92,-2,-94,-45,93,-48,14,136,96,120,-27,20
104,39,-65,-71,84,-13,1,174,95,157,9,52
98,74,-24,-86,61,25,-9,164,95,168,30,85
130,97,-33,-114,82,32,-48,141,95,212,54,100
108,123,14,-115,47,68,-82,204,95,278,113,158
130,157,28,-144,51,93,-98,239,94,316,164,214
181,184,2,-183,90,93,-105,223,79,352,209,248
179,222,44,-201,67,133,-113,209,63,379,247,296
211,252,41,-232,85,146,-148,176,48,374,272,329
217,243,26,-231,95,135,-166,135,36,360,280,343
201,227,26,-214,87,126,-206,105,24,341,263,329
160,186,26,-173,67,106,-214,93,17,302,238,285
136,164,28,-150,54,96,-114,87,7,233,182,228
122,135,13,-129,54,74,-44,51,-1,131,93,158
91,87,-4,-89,47,42,-54,-10,-13,36,23,96
62,64,2,-63,30,33,-48,-55,-21,-34,-45,31
47,46,-1,-47,24,22,-16,-49,-22,-67,-94,-11
55,30,-25,-42,39,3,-21,-40,-40,-86,-96,4
55,-2,-57,-26,56,-29,-15,-72,-40,-114,-101,-12
26,-31,-57,2,42,-44,2,-97,-35,-116,-107,-40
-4,-25,-22,15,9,-23,-12,-102,-34,-114,-115,-29
-11,-2,9,7,-10,4,-11,-103,-30,-116,-115,-33
-30,-10,20,20,-25,5,-33,-108,-29,-114,-116,-52
9,-3,-12,-3,11,-8,-35,-108,-24,-115,-125,-56
31,12,-19,-21,25,-4,0,-111,-26,-107,-126,-54
23,24,1,-23,10,13,1,-63,-22,-101,-123,-56
30,30,0,-30,15,15,0,-47,-20,-94,-120,-55
0,2,2,-1,-1,2,-20,-77,-20,-87,-120,-54
-4,18,22,-7,-13,20,-21,-23,-16,-88,-114,-32
-13,28,42,-8,-28,34,-18,-24,-6,-90,-109,-15
-16,18,34,-1,-25,26,-34,-47,-3,-92,-104,-38
-13,19,32,-3,-22,25,1,-55,-31,-96,-98,-47
-13,14,27,-1,-20,20,-13,-70,-42,-94,-91,-44
-23,-3,20,13,-22,8,-19,-59,-39,-87,-96,-46
-40,-22,19,31,-29,-2,-29,-60,-41,-94,-107,-44
-46,-21,24,33,-35,1,-29,-56,-40,-102,-102,-46
-59,-16,43,37,-51,14,18,-52,-40,-98,-119,-49
-40,-38,2,38,-21,-18,8,-63,-36,-100,-132,-54
-94,-74,19,84,-56,-27,-3,-76,-29,-114,-129,-55
-82,-59,23,70,-53,-18,-45,-74,-25,-115,-131,-55
-39,-68,-29,53,-5,-48,-51,-93,-41,-110,-129,-55
-77,-58,19,67,-48,-20,-9,-89,-46,-109,-130,-56
-49,-33,16,41,-32,-9,-10,-72,-38,-104,-126,-54
-74,-80,-6,77,-34,-42,-55,-75,-38,-107,-122,-57
-55,-66,-11,61,-22,-38,-66,-76,-31,-110,-116,-69
-51,-46,5,49,-28,-20,-45,-89,-31,-110,-114,-71
-65,-44,21,54,-43,-11,-37,-69,-45,-112,-106,-69
-51,-54,-3,53,-24,-28,-40,-64,-45,-115,-106,-66
-90,-97,-6,93,-42,-51,-75,-74,-40,-115,-127,-64
-67,-65,2,66,-35,-31,-69,-68,-39,-112,-139,-67
-89,-47,42,68,-65,-3,-56,-91,-33,-109,-155,-69
-31,-37,-6,34,-12,-21,-62,-86,-40,-106,-153,-73
1,-32,-34,16,18,-33,-51,-75,-42,-104,-139,-75
-72,-66,6,69,-38,-30,-56,-65,-36,-99,-148,-79
-61,-58,4,59,-32,-27,-90,-57,-20,-102,-141,-80
-75,-62,13,69,-44,-25,-97,-76,-36,-119,-138,-77
-50,-71,-20,61,-15,-46,-89,-66,-71,-120,-158,-68
-68,-57,11,63,-39,-23,-90,-87,-70,-115,-157,-66
-66,-58,9,62,-37,-24,-83,-111,-69,-115,-150,-70
-1,-59,-58,31,29,-58,-86,-91,-72,-108,-148,-70
-60,-70,-10,65,-24,-40,-79,-73,-66,-112,-142,-67
-69,-91,-22,81,-23,-57,-81,-65,-54,-110,-137,-59
-66,-79,-12,73,-27,-45,-81,-56,-44,-96,-134,-56
-112,-50,62,81,-86,6,-91,-31,-14,-80,-128,-46
-45,-18,27,32,-36,4,-105,-50,-4,-84,-126,-41
-11,5,16,3,-13,10,-61,-8,24,-75,-93,-14
-39,26,66,6,-53,46,-78,-1,88,-51,-50,0
28,102,74,-65,-23,87,-165,-101,67,-56,-53,9
23,80,57,-52,-17,69,-219,-81,-17,-54,-45,35
53,33,-20,-43,36,6,-205,-49,-64,-65,-66,2
90,26,-64,-58,77,-19,-136,-56,-74,-88,-95,11
-40,-51,-11,46,-14,-30,-107,-50,-66,-111,-109,-2
-40,-94,-54,67,7,-73,-124,-67,-72,-134,-123,-56
-22,-83,-62,53,20,-72,-110,-55,-62,-113,-131,-90
-42,-85,-43,63,1,-64,-139,-59,-66,-116,-140,-80
-13,-100,-87,57,37,-93,-117,-54,-65,-100,-146,-89
18,-41,-59,12,39,-50,-87,-55,-44,-96,-105,-82
-2,-119,-117,61,58,-118,-76,22,-37,-120,-167,-96
57,7,-50,-32,54,-22,-54,327,234,228,-7,-13
301,496,195,-399,53,345,-253,213,317,813,838,782
138,594,456,-366,-159,525,-348,-559,-247,430,855,957
-159,333,491,-87,-325,412,-382,-1177,-938,-741,-60,189
-73,-2,71,37,-72,35,-352,-738,-878,-801,-306,-28
-20,-144,-124,82,52,-134,-147,83,-273,-243,-196,-35
-11,-92,-81,52,35,-86,-97,92,-80,-152,-153,-58
16,-99,-115,42,66,-107,-85,-6,-60,-110,-141,-47
-35,-93,-58,64,12,-75,-92,63,-15,-110,-144,-62
-19,-96,-77,57,30,-86,-74,34,-3,-106,-129,-43
24,-96,-119,36,72,-107,-85,48,10,-97,-128,-71
-52,-91,-38,72,-7,-64,-115,29,2,-99,-142,-62
-44,-109,-64,77,10,-86,-99,31,29,-87,-171,-53
11,-105,-116,48,64,-111,-92,28,24,-87,-159,-59
-23,-100,-77,62,27,-88,-67,47,24,-75,-151,-71
14,-85,-99,35,57,-92,-61,92,18,-72,-134,-47
31,-74,-104,22,68,-89,-55,89,34,-63,-123,-45
-14,-99,-85,57,36,-92,-93,75,54,-53,-122,-65
-33,-98,-65,66,16,-81,-122,68,48,-40,-116,-43
-15,-83,-67,49,26,-75,-113,91,52,-44,-112,-44
8,-76,-85,34,47,-80,-126,102,48,-36,-104,-47
-19,-61,-42,40,12,-51,-122,105,54,2,-95,-8
-21,-52,-32,37,6,-42,-122,109,74,31,-78,28
33,-26,-59,-3,46,-42,-149,113,75,46,-42,29
82,25,-57,-54,70,-16,-153,162,77,74,-12,47
98,42,-56,-70,77,-7,-172,188,83,117,18,76
79,60,-18,-69,48,21,-174,207,87,154,50,100
100,104,3,-102,48,53,-182,221,99,190,88,145
131,123,-8,-127,69,58,-238,217,96,244,152,197
170,167,-3,-168,86,82,-266,225,89,283,188,236
188,188,0,-188,93,94,-285,223,84,311,247,299
124,189,65,-157,30,126,-286,194,78,325,300,358
123,222,99,-173,12,160,-284,170,74,307,294,373
110,201,91,-156,9,146,-287,163,68,303,289,372
87,166,79,-127,4,122,-280,123,65,275,266,328
50,126,76,-88,-13,101,-264,95,60,199,194,272
-31,74,105,-22,-68,89,-213,107,56,127,125,207
-50,27,77,11,-64,52,-169,88,49,39,59,122
-97,-26,71,62,-83,22,-149,32,37,-39,-14,67
-80,-15,65,47,-72,24,-140,3,25,-78,-30,38
-92,-47,45,69,-68,0,-134,-4,17,-112,-56,25
-108,-57,51,82,-79,-3,-129,-19,20,-124,-78,16
-52,-32,19,42,-35,-6,-119,-26,20,-120,-78,-2
-97,-49,48,73,-72,-1,-118,-35,22,-115,-92,-19
-104,-23,81,63,-92,29,-123,-42,26,-111,-89,-7
-121,-48,72,84,-96,12,-121,-34,24,-106,-90,-9
-137,-61,76,98,-106,8,-105,-19,30,-102,-90,-31
-121,-47,74,84,-97,13,-100,-26,35,-97,-89,-1
-104,-27,77,65,-90,24,-129,-25,35,-93,-88,24
-80,-19,61,49,-70,21,-162,1,47,-87,-73,18
-119,-42,77,80,-98,17,-182,17,45,-84,-64,21
-102,-14,88,58,-95,36,-159,12,35,-78,-64,14
-62,8,69,27,-66,38,-181,8,29,-75,-64,15
-103,-39,64,71,-83,12,-221,6,20,-105,-75,13
-97,-39,59,68,-78,10,-226,-36,16,-118,-85,-17
-66,-8,58,37,-62,25,-246,-47,13,-114,-83,-36
-104,-57,48,80,-76,-5,-243,-22,11,-121,-80,-35
-85,-44,40,64,-62,-2,-231,-13,7,-120,-80,-35
-77,-47,30,62,-54,-8,-201,-4,6,-120,-80,-35
-101,-72,30,86,-65,-21,-187,-17,2,-120,-81,-35
-105,-44,61,75,-83,8,-183,-22,1,-120,-79,-34
-137,-64,73,100,-105,5,-171,-15,-3,-120,-79,-29
-141,-81,60,111,-101,-10,-167,-15,-23,-120,-99,-25
-145,-80,65,113,-105,-7,-190,-26,-20,-120,-110,-37
-129,-80,49,104,-89,-15,-244,-37,-13,-120,-108,-41
-118,-77,41,97,-79,-18,-198,-35,-10,-120,-105,-35
-113,-73,41,93,-76,-16,-165,-33,-5,-120,-98,-34
-84,-73,11,78,-47,-30,-206,-48,-3,-115,-94,-28
-105,-66,38,85,-71,-14,-181,-37,2,-112,-91,-48
-99,-68,31,83,-65,-18,-161,-12,5,-108,-83,-59
-74,-59,15,67,-44,-22,-166,-17,8,-105,-95,-46
-103,-48,54,75,-78,3,-169,-14,11,-99,-112,-46
-81,-81,0,81,-40,-40,-178,-15,14,-104,-109,-44
-97,-88,9,92,-53,-39,-170,-15,17,-116,-110,-45
-135,-83,52,109,-93,-15,-150,-16,20,-113,-110,-45
-101,-86,14,93,-57,-36,-176,-42,19,-110,-110,-43
-98,-84,14,91,-56,-35,-166,-50,15,-108,-107,-53
-78,-84,-6,81,-36,-45,-145,-41,13,-104,-104,-46
-82,-80,2,81,-42,-39,-172,-27,9,-103,-105,-27
-84,-80,4,82,-44,-38,-160,-32,7,-99,-100,-30
-72,-80,-8,76,-32,-44,-153,-50,4,-95,-101,-51
-97,-80,17,88,-57,-31,-153,-28,9,-94,-99,-40
-103,-77,26,89,-64,-25,-153,-21,19,-86,-95,-16
-118,-71,47,94,-82,-12,-158,-14,22,-97,-95,-51
-92,-67,25,79,-58,-21,-165,-6,19,-117,-90,-67
-77,-63,14,70,-45,-24,-149,-4,3,-99,-91,-40
-78,-19,60,48,-69,20,-132,12,33,-69,-78,-30
-71,0,71,35,-70,35,-131,9,75,-52,-53,-18
-74,2,76,36,-75,39,-109,37,104,-44,-35,-1
-41,63,104,-11,-73,83,-177,-9,127,-46,-28,17
-13,97,111,-42,-63,104,-286,-77,59,-44,-12,47
36,77,40,-57,-2,58,-259,-49,-5,-46,-16,30
-26,-7,20,16,-23,7,-195,-44,-40,-66,-37,9
-129,-88,41,108,-85,-23,-175,-45,-46,-81,-66,-7
-81,-82,-1,81,-40,-41,-144,-45,-28,-107,-90,-45
-116,-92,25,104,-70,-33,-138,-54,-36,-114,-96,-61
-118,-90,29,104,-73,-30,-143,-49,-10,-102,-97,-60
-22,-69,-46,46,12,-57,-132,-60,-28,-109,-89,-42
-61,-68,-7,65,-26,-38,-124,-47,11,-92,-102,-67
-72,-98,-27,85,-22,-62,-163,-16,-9,-112,-75,-36
-46,-142,-96,95,25,-119,-125,189,78,-19,-140,-141
123,230,107,-176,7,168,-169,404,376,514,373,292
256,595,339,-426,-42,467,-367,-21,183,819,1080,1070
-100,454,555,-177,-328,504,-379,-872,-504,-78,476,637
-264,165,428,49,-346,296,-399,-1056,-947,-875,-205,41
-79,-104,-25,92,-27,-64,-304,-328,-563,-501,-194,-44
-84,-156,-72,120,-6,-113,-139,111,-111,-175,-154,-111
-123,-140,-17,132,-53,-78,-138,42,-62,-134,-100,-70
-96,-142,-46,119,-25,-94,-126,47,-6,-83,-107,-72
-82,-122,-40,103,-21,-81,-148,36,-10,-76,-105,-63
-106,-120,-13,113,-46,-67,-119,41,7,-51,-103,-65
-105,-111,-6,108,-49,-58,-110,58,38,-55,-107,-65
-91,-123,-32,108,-29,-77,-140,65,54,-42,-103,-73
-99,-93,7,96,-53,-43,-129,66,58,-38,-106,-74
-84,-72,12,77,-48,-29,-116,63,52,-31,-94,-54
-101,-96,5,98,-53,-45,-131,68,57,-41,-90,-53
-106,-124,-19,115,-43,-71,-153,60,53,-45,-82,-43
-59,-90,-31,75,-14,-60,-130,80,55,-36,-75,-37
-78,-88,-10,83,-34,-48,-117,88,49,-36,-67,-21
-101,-85,16,93,-59,-34,-121,99,50,-26,-59,-10
-61,-69,-7,65,-27,-38,-130,127,49,-13,-51,10
-41,-79,-38,60,-1,-58,-160,109,43,-3,-45,1
-14,-33,-19,24,3,-26,-204,114,48,20,-35,-6
-1,-13,-12,7,6,-13,-207,176,44,50,-27,29
-26,8,34,9,-30,21,-203,197,58,68,0,52
-23,3,25,10,-24,14,-213,195,86,107,41,76
12,31,20,-22,-4,25,-206,194,77,145,71,102
24,105,81,-65,-29,93,-214,201,70,188,111,135
43,129,86,-86,-22,107,-244,232,65,248,169,188
84,151,67,-118,8,109,-265,241,57,292,227,236
113,180,66,-147,24,123,-299,241,53,321,269,284
127,212,85,-170,21,148,-344,209,42,343,313,329
131,226,96,-179,17,161,-353,185,32,340,345,338
124,213,89,-168,17,151,-367,161,24,317,324,350
100,185,85,-143,7,135,-354,132,17,296,290,340
80,161,81,-121,-1,121,-313,119,11,242,257,290
60,133,73,-97,-7,103,-293,78,3,153,184,221
25,88,63,-57,-19,75,-252,80,-1,80,114,156
-19,31,50,-6,-34,40,-219,56,-12,-5,43,95
-46,-3,42,24,-44,19,-186,22,-39,-79,-14,25
-93,-46,47,69,-70,1,-173,19,-47,-104,-29,5
-58,-3,54,30,-56,25,-176,1,-44,-120,-44,4
-39,13,52,12,-46,33,-174,-16,-44,-125,-36,-3
-112,-67,45,89,-78,-10,-176,-46,-39,-119,-55,-31
-87,-42,45,64,-66,1,-172,-35,-40,-117,-67,-49
-72,-38,34,55,-53,-2,-187,-23,-40,-112,-57,-43
-123,-65,58,93,-90,-4,-164,-27,-40,-110,-80,-46
-129,-55,74,92,-101,9,-165,-16,-40,-105,-83,-45
-91,-46,45,68,-68,-1,-155,-33,-40,-97,-73,-40
-99,-38,62,68,-80,12,-132,-37,-40,-91,-68,-31
-101,-31,70,66,-85,19,-172,-8,-40,-84,-62,-22
-79,-23,56,51,-67,16,-177,-3,-40,-78,-46,-15
-78,-20,58,49,-67,18,-172,2,-40,-76,-38,-5
-52,-6,46,29,-49,20,-177,21,-40,-85,-27,5
-67,-22,45,44,-55,12,-174,-2,-39,-89,-40,6
-108,-54,54,81,-81,0,-182,-19,-42,-86,-71,-4
-116,-54,62,85,-89,4,-183,-8,-61,-85,-71,-8
-98,-39,59,68,-78,10,-185,-30,-66,-84,-69,-5
-57,-67,-9,63,-24,-38,-194,-39,-61,-86,-73,-9
-24,-65,-41,45,9,-53,-156,-31,-59,-83,-82,-9
-44,-52,-8,48,-18,-29,-148,-18,-56,-94,-67,-15
-95,-77,18,86,-56,-29,-168,-22,-54,-109,-62,-28
-91,-68,22,79,-56,-23,-165,-47,-52,-100,-76,-6
-77,-89,-11,83,-33,-50,-167,-45,-45,-92,-69,16
-66,-50,16,58,-40,-17,-116,-45,-52,-90,-65,7
-63,-43,20,52,-41,-11,-114,-46,-65,-90,-62,-2
-95,-93,2,94,-48,-45,-166,-44,-65,-87,-55,-31
-110,-79,31,94,-70,-24,-166,-44,-65,-84,-58,-49
-101,-81,20,91,-61,-30,-156,-38,-65,-86,-67,-36
-54,-77,-22,66,-16,-49,-153,-37,-64,-89,-66,-34
-47,-73,-26,60,-10,-49,-136,-68,-68,-90,-65,-36
-81,-71,10,76,-45,-30,-130,-73,-70,-90,-64,-34
-54,-61,-7,58,-24,-33,-165,-29,-70,-90,-60,-36
-38,-57,-19,48,-9,-38,-184,-28,-70,-90,-60,-34
-35,-49,-14,42,-11,-31,-166,-21,-75,-91,-60,-29
-48,-42,7,45,-27,-17,-158,-22,-75,-87,-60,-40
-36,-49,-12,42,-12,-30,-160,-78,-76,-82,-60,-48
-36,-87,-51,62,8,-69,-160,-62,-80,-76,-60,-31
-105,-113,-8,109,-49,-60,-169,-26,-81,-72,-60,-30
-82,-70,12,76,-47,-29,-156,-62,-77,-63,-60,-45
-35,-62,-27,49,-4,-44,-164,-53,-72,-63,-61,-37
-42,-101,-59,72,9,-80,-179,-24,-62,-81,-59,-41
-56,-90,-35,73,-10,-62,-155,-31,-60,-87,-55,-39
-81,-99,-19,90,-31,-59,-151,-29,-49,-83,-54,-29
-75,-101,-26,88,-24,-63,-151,-21,-47,-87,-49,-31
-47,-91,-44,70,-1,-68,-140,-23,-64,-84,-53,-30
-17,-76,-59,47,21,-68,-148,-50,-75,-85,-61,-29
-42,-75,-33,59,-4,-54,-201,-60,-77,-91,-49,-31
-81,-53,29,67,-55,-12,-165,-45,-37,-48,-41,-22
-45,21,66,12,-55,43,-91,-18,4,-34,-28,-9
-53,7,60,23,-57,33,-120,8,41,-33,-6,7
-34,56,90,-11,-63,73,-175,-23,56,12,23,57
26,124,98,-75,-36,111,-240,-34,1,20,53,84
35,73,38,-54,-2,55,-245,-20,-57,8,38,57
64,19,-44,-41,54,-12,-226,-70,-96,-53,8,38
27,-28,-55,1,41,-41,-215,-59,-93,-91,-35,7
-34,-53,-19,44,-7,-36,-198,-38,-82,-83,-47,6
-57,-102,-45,80,-6,-73,-191,-67,-89,-95,-56,3
-54,-99,-45,77,-4,-71,-170,-63,-68,-80,-74,-12
-36,-117,-81,77,23,-99,-173,-61,-86,-84,-71,0
-73,-112,-39,93,-17,-75,-150,-64,-43,-62,-69,-35
-39,-92,-53,66,7,-72,-166,-61,-57,-76,-43,-25
-13,-140,-127,76,58,-134,-130,190,59,29,-120,-102
148,254,106,-201,21,180,-197,404,333,596,476,408
269,623,354,-446,-43,488,-372,-76,116,831,1124,1114
-95,492,587,-199,-341,539,-367,-928,-553,-119,440,600
-210,159,369,25,-290,264,-420,-1080,-984,-847,-188,47
-43,-129,-87,86,22,-108,-320,-296,-585,-445,-176,-17
-54,-133,-79,94,13,-106,-160,129,-146,-125,-114,-70
-34,-103,-69,69,18,-86,-165,16,-104,-96,-72,-32
-57,-107,-50,82,-3,-78,-137,39,-35,-69,-87,-46
-43,-91,-48,67,3,-70,-122,47,-34,-71,-64,-24
12,-74,-87,31,49,-80,-113,35,-17,-31,-84,-15
-62,-88,-26,75,-18,-57,-113,29,-15,-16,-62,2
-46,-103,-57,75,6,-80,-125,51,-16,-31,-60,-9
-36,-94,-58,65,12,-76,-135,68,-4,-55,-74,-40
-103,-132,-30,118,-36,-81,-111,63,-11,-13,-25,-23
-43,-106,-63,75,10,-85,-93,58,17,-3,-42,-22
-18,-71,-52,45,17,-61,-112,66,36,-33,-63,-11
-20,-83,-63,52,22,-73,-145,113,32,-8,-43,-7
-13,-89,-76,52,32,-83,-142,111,28,7,-23,2
-39,-81,-42,60,2,-61,-129,105,23,-5,-23,7
-42,-59,-17,51,-12,-38,-122,128,40,20,-17,22
-30,-54,-23,42,-3,-38,-126,100,58,49,-12,48
12,-43,-55,16,34,-49,-166,109,53,57,1,48
10,-30,-40,11,25,-35,-163,156,61,95,25,66
-2,-28,-25,15,12,-26,-179,137,69,112,34,82
64,23,-41,-43,52,-9,-200,188,84,158,99,141
72,53,-19,-62,46,16,-214,198,96,212,150,179
101,78,-23,-89,62,27,-224,187,95,240,180,171
136,117,-19,-126,77,48,-231,244,91,291,206,228
129,152,23,-141,53,87,-274,235,90,323,247,284
195,234,39,-215,78,136,-303,213,86,350,311,341
187,242,55,-215,66,148,-316,199,70,377,340,381
149,199,50,-174,49,124,-330,201,54,407,382,416
170,216,46,-193,62,131,-360,158,44,382,389,422
178,218,40,-198,69,129,-330,123,39,346,372,371
135,174,39,-155,48,106,-278,130,34,315,307,341
78,103,25,-91,27,64,-267,107,28,217,226,266
63,59,-4,-61,34,27,-251,101,23,112,173,199
39,48,8,-44,15,28,-227,58,16,29,99,155
4,-2,-6,-1,5,-4,-210,4,5,-20,38,84
-5,-42,-36,24,16,-39,-199,-42,-7,-60,6,66
-45,-71,-27,58,-9,-49,-186,-52,-18,-86,-6,63
-74,-73,1,74,-37,-36,-186,-33,-28,-77,-27,52
-46,-57,-12,51,-17,-34,-174,-21,-25,-70,-30,50
-34,-71,-36,53,1,-53,-163,18,-21,-65,-23,43
-42,-77,-36,60,-3,-56,-159,30,-15,-56,-20,38
-28,-60,-32,44,2,-46,-161,20,-13,-54,-16,32
-32,-45,-13,39,-9,-29,-191,14,-6,-63,-8,30
-28,-42,-14,35,-7,-28,-178,9,-1,-68,-30,41
2,-16,-18,8,10,-17,-163,-3,-16,-70,-46,32
-23,-32,-9,28,-7,-20,-157,22,4,-54,-15,35
-52,-68,-16,60,-18,-42,-164,27,23,-43,-16,61
-60,-65,-5,63,-27,-35,-199,-32,15,-47,-32,55
2,-23,-25,11,14,-24,-202,-25,12,-44,-28,49
-10,-13,-3,12,-3,-8,-220,20,7,-46,-26,48
-54,-41,13,48,-33,-14,-175,23,3,-44,-23,39
-7,-51,-44,29,19,-47,-156,3,-2,-45,-18,43
-41,-79,-37,60,-2,-58,-207,-13,-4,-54,-25,45
-3,-32,-29,18,14,-30,-201,-25,-12,-73,-24,45
-11,-12,-1,12,-5,-6,-205,-26,-21,-82,-30,49
-64,-72,-8,67,-27,-40,-214,-36,-19,-79,-48,50
-23,-55,-32,39,5,-43,-187,-60,-20,-80,-44,50
-34,-41,-7,38,-13,-24,-155,-51,-20,-80,-34,32
-26,-55,-28,41,1,-41,-157,-60,-20,-80,-33,8
-11,-41,-31,26,10,-36,-175,-58,-23,-80,-34,1
-46,-64,-18,55,-14,-41,-178,-62,-26,-80,-39,-5
-75,-87,-12,82,-32,-50,-170,-74,-29,-77,-40,7
-65,-72,-7,69,-29,-39,-205,-6,-30,-69,-40,19
-53,-81,-28,67,-12,-54,-217,8,-24,-62,-54,14
-38,-68,-30,53,-3,-49,-184,-38,-26,-57,-45,16
-43,-53,-9,48,-16,-31,-178,-24,-22,-47,-27,15
-47,-56,-10,52,-18,-33,-182,-28,-20,-48,-33,5
-22,-53,-31,38,5,-42,-176,-45,-21,-53,-27,-8
-30,-78,-48,54,10,-63,-188,-38,-12,-54,-38,-29
-31,-76,-44,54,7,-60,-197,-60,-30,-78,-72,-16
-18,-62,-44,40,13,-53,-191,-36,-40,-84,-76,-2
-38,-60,-22,49,-8,-41,-182,-31,-29,-74,-71,-17
-33,-52,-19,42,-6,-35,-170,-60,-28,-73,-70,-12
13,-50,-64,19,39,-57,-197,-59,-18,-64,-65,-31
25,-38,-63,7,45,-51,-201,-66,-17,-61,-65,-46
6,-44,-50,19,27,-47,-192,-64,-29,-75,-61,-34
7,-42,-49,18,28,-45,-198,-75,-31,-75,-57,-30
-17,-70,-53,44,18,-62,-210,-52,-27,-61,-55,-22
-17,-69,-52,43,18,-60,-226,-34,-24,-56,-51,-17
-3,-48,-45,26,21,-46,-210,-31,-21,-52,-47,-9
-37,-79,-42,58,3,-61,-207,-56,-18,-49,-39,-5
-12,-48,-36,30,12,-42,-196,-70,-7,-46,-31,-34
-19,-37,-18,29,-1,-27,-192,-42,29,-41,-23,-29
-15,-5,10,10,-13,2,-187,-17,67,-22,-16,19
-29,9,38,10,-34,23,-188,25,98,1,-14,11
-16,49,64,-17,-40,56,-260,-38,116,32,25,28
82,131,49,-107,16,90,-302,-99,59,37,65,81
68,67,-1,-67,34,33,-282,-82,-5,5,42,47
61,3,-59,-32,60,-28,-253,-90,-41,-20,15,43
42,-28,-69,-6,56,-48,-237,-88,-47,-54,-39,30
-3,-62,-59,33,28,-60,-233,-91,-38,-85,-65,-18
-7,-79,-73,44,33,-76,-235,-95,-41,-79,-65,-35
4,-51,-55,24,30,-52,-228,-94,-27,-69,-66,-40
4,-74,-78,36,41,-76,-228,-99,-46,-68,-54,-25
-60,-89,-29,75,-15,-58,-244,-76,-28,-44,-70,-51
-17,-82,-65,50,24,-73,-218,-20,-45,-55,-46,-15
33,-78,-111,23,72,-94,-164,222,123,84,-71,-94
177,287,110,-232,34,198,-259,349,351,643,545,427
309,627,318,-468,-5,472,-409,-162,92,806,1108,1117
-51,487,537,-218,-294,512,-430,-984,-558,-197,374,549
-189,138,327,25,-258,233,-474,-1036,-948,-829,-195,18
-9,-84,-75,47,33,-80,-356,-248,-498,-396,-160,-33
-35,-108,-74,72,20,-91,-198,92,-101,-139,-116,-84
-41,-110,-69,76,14,-89,-207,3,-74,-92,-67,-39
-16,-88,-72,52,28,-80,-181,20,3,-54,-85,-64
-16,-85,-69,51,26,-77,-199,23,-9,-57,-66,-52
-35,-115,-79,76,23,-97,-197,51,15,-37,-66,-58
-13,-86,-72,50,30,-79,-166,30,27,-44,-61,-50
2,-81,-83,39,43,-82,-166,20,45,-30,-52,-41
-14,-98,-84,57,35,-91,-155,54,70,-29,-51,-39
-22,-96,-74,59,26,-85,-156,62,62,-22,-42,-26
-40,-95,-55,67,8,-75,-142,90,67,-12,-39,-26
-42,-87,-45,64,2,-66,-166,92,64,-7,-32,-16
-2,-80,-78,41,38,-78,-211,86,66,8,-29,-54
6,-85,-91,40,48,-87,-208,107,68,34,-39,-57
-48,-76,-28,62,-10,-52,-204,111,71,43,-39,-32
-37,-68,-30,53,-4,-49,-202,109,69,37,-26,-32
15,-35,-50,11,33,-42,-198,110,71,42,-13,7
39,-25,-64,-7,52,-44,-202,113,68,60,2,21
30,-23,-54,-3,42,-38,-198,117,77,92,15,22
69,56,-14,-62,41,21,-201,147,92,132,62,54
81,57,-24,-69,52,17,-223,157,87,154,85,64
55,51,-4,-53,29,23,-265,174,85,195,104,97
116,117,1,-116,57,58,-305,186,78,249,168,137
131,144,13,-138,59,78,-331,189,95,295,219,190
143,174,30,-159,56,102,-343,227,83,331,266,237
171,220,48,-195,61,134,-341,216,48,368,317,280
159,223,65,-191,47,144,-390,193,49,399,355,336
172,219,48,-196,62,133,-414,153,43,394,372,342
148,213,65,-181,41,138,-403,126,30,379,366,353
142,210,68,-176,37,139,-414,140,13,346,367,342
160,207,47,-184,56,127,-389,113,-1,284,312,269
135,167,32,-151,51,99,-302,68,-7,198,220,183
57,106,49,-82,4,77,-250,36,-15,117,158,104
7,42,35,-24,-15,38,-277,4,-21,42,89,38
7,27,20,-17,-7,23,-267,-28,-30,-22,29,-20
-34,-22,12,28,-23,-5,-266,-69,-33,-62,-5,-72
-5,-51,-46,28,21,-49,-239,-91,-28,-79,-3,-81
-5,-42,-37,24,16,-39,-160,-79,-22,-69,-18,-81
-45,-69,-24,57,-10,-46,-128,-71,-18,-65,-35,-100
-2,-56,-54,29,27,-55,-118,-68,-11,-77,-24,-99
-41,-54,-13,48,-13,-33,-103,-67,-5,-77,-24,-96
-73,-57,16,65,-44,-20,-93,-61,-20,-68,-17,-94
-51,-52,-1,52,-25,-27,-69,-61,-25,-64,-15,-87
-62,-48,15,55,-38,-16,-34,-52,-15,-60,-15,-81
-2,-25,-24,14,11,-24,-50,-52,-9,-60,-15,-76
-16,-37,-21,26,3,-28,-35,-40,-3,-60,-16,-70
-49,-44,5,46,-27,-19,-18,-42,6,-60,-14,-65
12,-5,-16,-3,14,-10,-15,-83,4,-60,-24,-60
-29,-16,12,22,-20,-2,14,-27,-8,-57,-26,-51
-7,-27,-20,17,7,-23,9,-39,-4,-54,0,-57
31,3,-28,-17,30,-13,31,-80,-6,-54,20,-62
-6,-4,2,5,-4,-1,48,-44,-2,-48,13,-73
4,-4,-8,0,6,-6,66,-52,-22,-55,-4,-87
-20,-19,1,19,-10,-9,85,-50,-35,-78,-20,-85
-39,-24,15,31,-27,-5,78,-57,-9,-76,-26,-83
-14,-6,8,10,-10,1,88,-68,-25,-68,-25,-80
-4,-40,-36,22,17,-38,83,-90,-47,-66,-30,-80
-9,-55,-46,33,19,-50,93,-101,-42,-56,-30,-77
6,-39,-45,17,26,-41,100,-88,-36,-62,-26,-72
-9,-48,-39,29,16,-43,99,-86,-29,-75,-25,-69
-30,-72,-42,51,7,-57,107,-76,-22,-76,-25,-66
-17,-75,-58,47,21,-67,107,-78,-17,-73,-25,-61
-9,-13,-4,11,-2,-9,134,-81,-3,-70,-24,-63
33,16,-17,-24,25,0,138,-79,7,-70,-26,-90
28,-27,-55,0,42,-41,121,-82,-1,-69,-24,-95
-14,-45,-31,30,9,-38,125,-78,-6,-62,-26,-91
13,-43,-56,16,34,-49,126,-85,-14,-62,-24,-88
-10,-66,-56,38,23,-60,123,-105,-23,-75,-25,-83
7,-65,-72,29,40,-68,131,-99,-22,-75,-26,-81
59,-33,-92,-13,76,-63,147,-93,-14,-75,-11,-67
12,-50,-62,19,37,-56,138,-88,-9,-76,-27,-88
15,-50,-65,18,40,-57,124,-81,-3,-74,-33,-102
30,-37,-67,4,49,-52,117,-84,3,-76,-17,-90
44,-25,-68,-9,56,-46,121,-85,8,-58,-4,-90
32,-39,-72,4,52,-55,124,-85,23,-68,-20,-83
-12,-75,-63,44,26,-69,126,-84,20,-92,-45,-79
25,-40,-65,8,45,-52,146,-87,13,-89,-33,-99
2,-56,-58,27,30,-57,143,-80,3,-90,-19,-111
-23,-77,-54,50,16,-65,138,-94,-20,-91,-26,-85
16,-53,-69,19,43,-61,137,-115,-10,-89,-36,-96
20,-48,-67,14,44,-57,130,-90,7,-94,-30,-107
23,-29,-52,4,38,-40,131,-46,12,-94,-28,-87
-28,-82,-54,56,13,-68,112,-50,30,-96,-16,-101
-45,-105,-60,75,8,-82,125,-80,14,-94,-18,-105
-44,-35,9,40,-26,-13,144,-45,26,-56,8,-111
-36,34,70,0,-53,52,149,12,89,-13,52,-102
15,83,69,-49,-27,76,155,10,119,0,40,-54
37,99,62,-68,-13,80,73,-40,121,4,54,-36
91,120,29,-106,31,74,-4,-93,69,11,79,-32
110,76,-34,-92,72,21,4,-100,6,1,55,-37
97,20,-77,-59,87,-28,69,-88,-9,-28,31,-20
20,-24,-44,2,32,-34,137,-104,17,-63,-15,-62
-6,-59,-52,33,23,-55,128,-100,2,-92,-16,-99
11,-60,-71,25,41,-65,118,-82,-29,-96,-21,-101
-17,-74,-57,46,20,-65,114,-100,-14,-91,-31,-101
-16,-105,-89,60,37,-97,108,-86,-29,-102,-23,-96
-52,-88,-36,71,-8,-62,143,-45,-10,-82,-30,-110
12,-88,-99,38,56,-93,158,-12,-26,-69,-12,-87
77,-66,-143,-5,110,-104,178,226,154,101,-43,-167
250,357,107,-304,71,232,32,319,383,687,660,477
264,631,367,-448,-52,498,-92,-244,73,741,1139,1052
-113,429,542,-158,-328,485,-105,-1055,-631,-328,300,383
-136,129,265,3,-201,197,-161,-988,-933,-829,-185,-60
-8,-109,-101,59,47,-105,32,-170,-426,-355,-133,-101
-31,-103,-72,67,21,-87,126,73,-79,-121,-95,-157
-4,-73,-69,39,32,-71,107,18,-59,-73,-32,-138
5,-73,-78,35,42,-75,176,45,12,-52,-55,-148
-6,-76,-70,41,32,-73,149,24,15,-58,-38,-121
-12,-98,-86,55,37,-92,148,22,42,-44,-38,-126
4,-82,-86,39,45,-84,147,-13,38,-50,-29,-116
9,-95,-104,43,57,-99,158,38,57,-38,-22,-114
28,-75,-103,24,66,-89,180,58,69,-40,-16,-109
4,-70,-74,33,39,-71,180,51,61,-23,-25,-104
-34,-70,-36,52,1,-52,180,60,69,0,-38,-110
-2,-60,-58,31,28,-59,174,49,62,2,-23,-114
8,-79,-86,36,47,-82,171,72,69,-6,-17,-112
33,-38,-70,3,52,-54,164,86,91,6,-8,-93
45,-29,-74,-8,60,-51,158,84,97,14,-3,-77
32,-43,-75,6,54,-59,149,109,94,30,5,-74
62,-13,-75,-24,68,-44,152,124,101,50,10,-63
60,-14,-74,-22,67,-44,136,128,99,60,18,-39
7,-34,-40,14,24,-37,103,127,105,86,46,-37
14,-2,-16,-6,15,-8,95,137,116,121,81,-6
110,68,-42,-89,76,13,87,152,116,156,105,22
125,85,-40,-105,82,22,76,173,113,200,138,51
116,131,15,-124,50,72,70,204,129,259,198,117
131,162,30,-147,50,96,45,211,132,306,244,161
144,186,42,-166,51,114,-4,216,112,340,292,207
181,229,48,-205,66,138,-46,195,98,360,328,248
162,203,42,-183,60,122,-76,171,77,378,358,288
198,251,53,-225,72,151,-81,161,69,399,392,318
212,265,53,-239,79,159,-83,130,66,382,381,354
166,224,58,-195,54,141,-59,81,56,338,369,330
125,184,59,-155,33,122,-20,71,50,279,314,230
85,140,55,-113,15,98,-25,67,40,184,208,166
53,105,52,-79,0,78,21,15,32,103,133,105
-9,36,45,-14,-27,40,79,-7,23,39,79,57
3,40,36,-22,-17,38,77,-16,16,-27,37,5
-23,9,32,7,-28,20,91,-52,12,-80,8,-59
-40,-20,20,30,-30,0,105,-72,5,-102,-8,-80
-23,-5,18,14,-20,6,127,-65,4,-96,-20,-80
-33,-24,9,28,-20,-8,136,-61,-4,-94,-22,-81
-31,-30,0,30,-15,-15,125,-56,-1,-89,-20,-79
-72,-52,20,62,-46,-16,126,-52,30,-86,-20,-80
-44,-55,-11,50,-16,-33,116,-46,37,-82,-15,-90
7,-19,-26,7,16,-22,118,-41,31,-73,-15,-89
-26,-19,7,22,-16,-6,101,-30,31,-64,-16,-74
-52,-22,31,37,-41,4,106,-31,26,-57,-29,-76
8,13,5,-10,1,9,136,-29,25,-59,-32,-83
5,-7,-12,1,9,-10,127,-6,21,-62,-27,-55
-10,-12,-2,11,-4,-7,121,12,14,-64,-24,-41
10,2,-8,-6,9,-3,114,-3,8,-68,-21,-63
-29,2,31,13,-30,16,112,-31,1,-71,-17,-80
-43,-13,30,28,-37,8,116,-40,-6,-67,-12,-78
-42,-35,7,39,-24,-14,118,-42,-11,-63,-17,-74
-14,-32,-17,23,2,-24,120,-34,-9,-56,-19,-71
13,-20,-33,4,23,-26,130,-93,-8,-56,-17,-66
9,17,8,-14,1,13,136,-78,-2,-46,-6,-65
-31,-29,2,29,-16,-13,134,-28,-14,-51,-36,-81
-15,-62,-48,39,16,-55,139,-74,-45,-73,-53,-108
22,-42,-65,10,44,-53,139,-48,-43,-53,-12,-111
-58,-94,-37,76,-10,-65,141,-38,-38,-47,-20,-110
-50,-79,-29,65,-10,-54,115,-49,-37,-67,-38,-110
11,-38,-49,14,30,-43,83,-42,-30,-70,-46,-110
-3,-44,-41,23,19,-42,78,-69,-31,-66,-44,-108
-8,-47,-40,27,16,-43,97,-78,-35,-64,-48,-105
2,-34,-36,17,19,-35,113,-46,-34,-60,-56,-105
17,-14,-31,-1,24,-22,104,-71,-36,-61,-54,-103
-9,-35,-26,23,8,-30,105,-109,-34,-52,-56,-99
-30,-34,-5,32,-12,-20,96,-77,-40,-50,-49,-100
-46,-58,-13,52,-16,-35,98,-54,-60,-81,-71,-126
-76,-77,0,77,-38,-38,93,-40,-56,-87,-65,-132
-50,-62,-12,56,-19,-37,111,-62,-42,-73,-45,-120
-25,-62,-36,44,6,-49,131,-70,-27,-72,-53,-103
-37,-58,-22,48,-8,-40,108,-53,-20,-67,-48,-91
-38,-67,-29,53,-4,-48,107,-53,-31,-66,-51,-97
-27,-46,-19,37,-4,-32,86,-44,-30,-62,-50,-94
-25,-34,-9,30,-8,-22,68,-35,-28,-59,-49,-92
-26,-36,-9,31,-8,-22,78,-65,-44,-67,-59,-89
-48,-54,-7,51,-20,-30,92,-105,-61,-68,-66,-98
-45,-56,-11,51,-17,-34,103,-94,-66,-63,-65,-106
-10,-51,-41,31,16,-46,110,-57,-58,-55,-61,-94
-22,-67,-45,45,11,-56,111,-42,-54,-55,-60,-95
-28,-52,-24,40,-2,-38,79,-30,-38,-42,-56,-81
-20,-54,-34,37,8,-44,67,-45,-46,-52,-54,-93
-26,-34,-8,30,-9,-21,97,-91,-74,-79,-49,-113
-25,-39,-14,32,-6,-26,101,-91,-34,-63,-51,-89
-31,-30,1,30,-16,-15,91,-74,-6,-56,-64,-85
-49,18,67,15,-58,42,118,-35,32,-25,-30,-71
-20,42,61,-12,-41,51,109,3,86,10,-8,-52
13,106,92,-60,-40,99,43,-19,112,30,-6,-28
-13,114,127,-51,-70,120,3,-77,71,44,32,6
0,67,67,-34,-34,67,-20,-81,-37,17,19,-15
-12,11,23,1,-18,17,-24,-66,-78,-27,-20,-44
-51,-42,8,46,-29,-17,60,-66,-75,-49,-47,-70
-61,-51,10,56,-35,-20,101,-61,-72,-40,-47,-86
-70,-96,-26,83,-22,-61,81,-59,-76,-62,-62,-87
-52,-87,-35,69,-8,-60,87,-51,-61,-81,-93,-89
-51,-90,-39,71,-6,-64,68,-75,-81,-86,-83,-97
-67,-94,-27,80,-20,-60,72,-61,-46,-66,-96,-139
-35,-85,-50,60,8,-67,72,-43,-70,-79,-70,-97
3,-134,-137,66,70,-135,125,184,29,27,-121,-176
159,260,101,-210,29,180,80,394,326,575,411,280
279,635,356,-458,-38,495,-101,-60,137,847,1122,1032
-60,505,565,-223,-313,535,-117,-875,-517,-49,499,589
-234,190,423,22,-329,306,-166,-1062,-990,-832,-192,-16
-60,-112,-52,86,-3,-82,-89,-313,-617,-467,-180,-114
-38,-105,-67,72,15,-86,106,144,-153,-133,-156,-126
-16,-56,-40,36,12,-47,123,61,-128,-101,-92,-67
-7,-63,-56,36,25,-59,131,63,-63,-57,-92,-129
-64,-93,-29,79,-17,-60,120,44,-63,-72,-96,-129
-75,-118,-43,97,-15,-81,121,42,-48,-54,-84,-120
-29,-51,-22,40,-3,-36,147,31,-32,-55,-87,-124
-25,-79,-54,52,15,-66,143,62,-29,-37,-76,-111
-64,-100,-35,82,-14,-67,132,90,-2,-28,-77,-119
-58,-92,-33,75,-12,-62,153,60,5,-26,-82,-111
-23,-88,-66,56,22,-77,175,91,2,-17,-96,-112
-24,-73,-49,49,13,-61,162,112,1,-10,-88,-109
-48,-85,-37,67,-5,-61,163,105,13,1,-82,-108
-20,-55,-35,38,8,-45,142,105,16,8,-79,-99
-14,-47,-33,31,10,-40,147,97,26,23,-69,-91
-22,-53,-31,38,5,-42,186,117,29,37,-65,-83
-10,-38,-28,24,9,-33,177,129,24,53,-50,-71
-34,-59,-26,47,-4,-42,156,111,10,53,-46,-55
-7,-19,-12,13,2,-15,147,125,14,78,-22,-30
58,38,-20,-48,39,9,141,163,56,139,43,-3
69,54,-15,-61,41,19,117,200,72,162,69,19
40,65,24,-52,8,44,78,186,69,186,79,45
69,98,28,-84,20,63,50,174,74,230,110,76
116,169,53,-143,31,110,26,218,68,285,169,128
88,172,83,-130,2,127,15,223,56,350,231,196
128,203,75,-166,27,138,-9,209,45,380,282,241
177,251,74,-214,51,163,-29,209,36,386,321,284
169,238,69,-203,49,153,-12,168,32,374,333,312
202,266,65,-235,68,165,-15,135,30,364,340,329
172,244,71,-208,50,157,-24,134,25,344,326,313
104,177,73,-141,15,125,19,110,22,302,285,264
59,140,81,-100,-11,110,74,71,18,232,214,209
27,107,80,-68,-27,93,76,49,8,120,115,89
-8,60,68,-26,-39,64,107,37,-6,37,32,12
-46,16,62,15,-54,39,138,18,-12,-16,-15,-13
-27,26,53,0,-40,39,122,-22,-21,-68,-46,-52
-26,23,50,1,-38,36,163,-57,-39,-90,-58,-59
-74,-32,42,53,-57,5,194,-54,-33,-90,-70,-79
-85,-47,38,65,-61,-4,188,-50,-35,-85,-77,-94
-53,-21,32,37,-42,5,192,-50,-39,-84,-81,-87
-70,-43,27,57,-48,-8,189,-43,-17,-79,-79,-92
-88,-46,42,67,-64,-2,191,-52,2,-79,-83,-88
-69,-38,30,53,-49,-4,185,-40,22,-86,-94,-92
-91,-42,49,66,-70,4,180,13,27,-64,-70,-82
-111,-27,85,68,-98,29,175,21,23,-57,-65,-65
-110,-26,85,68,-97,29,169,-41,20,-59,-68,-98
-69,16,85,26,-77,51,165,-58,18,-49,-80,-110
-44,41,85,1,-64,63,155,-37,14,-50,-79,-96
-54,30,84,12,-69,56,178,-34,13,-39,-53,-91
-60,-2,58,31,-59,28,186,-24,-8,-46,-62,-83
-75,-24,51,49,-63,13,172,-26,-19,-47,-61,-74
-56,12,68,22,-63,40,167,-12,-6,-52,-59,-78
-56,0,56,28,-56,28,154,-29,-25,-80,-61,-96
-60,-4,56,31,-58,26,171,-75,-39,-82,-60,-95
-43,7,50,18,-47,28,175,-61,-57,-84,-59,-94
-49,-6,43,27,-46,18,165,-53,-65,-88,-64,-96
-75,-5,69,40,-72,32,169,-55,-53,-90,-80,-94
-109,-32,77,70,-92,22,147,-47,-52,-88,-73,-96
-62,-34,28,48,-44,-4,161,-49,-43,-84,-65,-94
-32,-36,-4,34,-14,-20,182,-42,-51,-85,-60,-96
-66,-5,61,35,-63,28,180,-50,-57,-81,-51,-98
-58,31,89,14,-74,60,179,-58,-54,-80,-59,-102
-79,-11,68,45,-73,28,177,-61,-55,-80,-83,-104
-68,-7,61,38,-65,27,163,-83,-48,-95,-91,-109
-111,-54,57,82,-84,1,140,-60,-52,-99,-85,-123
-122,-81,41,102,-81,-20,169,-41,-46,-89,-83,-101
-43,-3,40,23,-42,19,190,-48,-47,-87,-78,-89
-44,-2,42,23,-42,19,174,-43,-64,-78,-75,-115
-17,-11,6,14,-11,-3,160,-47,-59,-77,-72,-113
-41,-28,12,34,-26,-8,153,-42,-54,-78,-70,-108
-79,-42,38,60,-58,-2,144,-52,-46,-82,-68,-107
-46,0,46,23,-46,23,168,-64,-38,-77,-65,-100
-2,13,15,-5,-9,14,150,-59,-34,-66,-63,-101
-40,-17,23,28,-31,3,129,-53,-36,-97,-81,-98
-92,-36,56,64,-74,10,206,-49,-52,-100,-93,-102
-27,8,35,9,-31,21,200,-41,-51,-82,-89,-98
-21,10,32,5,-27,21,156,-38,-44,-95,-91,-91
-63,-41,22,52,-42,-9,142,-59,-38,-94,-90,-107
-48,-48,0,48,-24,-23,141,-63,-36,-95,-89,-102
-32,0,32,16,-32,15,164,-53,-33,-95,-86,-81
-1,14,16,-7,-9,15,170,-51,-45,-94,-83,-89
-8,-30,-22,19,7,-26,171,-43,-62,-103,-80,-104
-22,8,29,7,-26,18,163,-39,-59,-100,-78,-100
0,30,30,-16,-15,30,153,-49,-61,-81,-75,-92
-2,-12,-10,7,4,-11,139,-53,-58,-77,-72,-89
-23,-33,-10,28,-6,-22,136,-43,-62,-95,-70,-80
-57,-18,38,37,-47,10,157,-29,-42,-85,-59,-70
-40,36,76,2,-59,56,156,-1,1,-44,-46,-57
-46,48,93,-1,-70,70,168,17,27,-12,-28,-45
-26,90,117,-32,-71,103,172,8,73,-5,-5,-29
9,144,135,-77,-63,140,105,-43,65,20,29,11
-6,110,115,-52,-61,112,27,-88,-6,18,23,9
57,70,14,-63,21,41,21,-67,-42,-25,-11,-14
49,4,-45,-27,47,-20,88,-67,-73,-49,-22,-29
-7,-23,-17,15,5,-20,137,-69,-76,-70,-56,-76
0,-9,-9,5,5,-9,130,-72,-74,-92,-49,-74
-33,-54,-21,44,-6,-37,158,-68,-68,-87,-71,-91
-40,-53,-13,47,-13,-33,189,-71,-57,-96,-80,-90
-37,-63,-26,50,-5,-44,184,-69,-66,-110,-89,-106
-99,-67,32,83,-65,-18,197,-33,-35,-84,-83,-87
-42,-107,-65,75,12,-86,187,31,-44,-86,-84,-103
59,13,-47,-36,53,-17,187,332,201,199,4,-127
255,465,210,-360,22,338,44,315,352,786,815,664
213,646,433,-430,-110,539,-104,-386,-86,577,1012,1004
-186,400,586,-107,-386,493,-112,-1110,-773,-537,115,256
-146,59,204,43,-175,132,-104,-846,-901,-800,-222,-96
-12,-109,-97,61,43,-103,69,-15,-332,-270,-140,-167
-48,-101,-52,74,2,-76,172,96,-85,-119,-103,-168
-51,-99,-48,75,-1,-74,167,19,-61,-86,-82,-136
-64,-91,-27,78,-18,-59,185,71,-14,-73,-87,-164
-21,-78,-58,50,19,-68,170,53,-23,-70,-66,-158
-31,-71,-40,51,5,-56,161,41,23,-54,-75,-169
-68,-100,-32,84,-18,-66,174,59,22,-57,-78,-156
-61,-115,-53,88,-4,-84,191,103,36,-42,-79,-160
0,-77,-77,38,39,-77,185,65,57,-42,-74,-150
-18,-91,-73,55,28,-82,179,79,65,-32,-71,-144
-42,-94,-52,68,5,-73,176,81,58,-30,-67,-138
-10,-64,-54,37,23,-59,200,79,53,-24,-63,-131
-15,-80,-64,48,25,-72,193,130,72,-21,-60,-134
-23,-88,-66,56,22,-77,169,142,87,-14,-52,-137
-23,-77,-54,50,15,-65,163,140,83,-8,-53,-127
3,-47,-49,22,26,-48,154,148,91,28,-36,-98
-11,-27,-17,19,3,-22,134,140,94,51,-10,-92
-56,-18,37,37,-46,10,147,145,100,69,12,-93
-83,-12,71,47,-77,30,150,164,117,94,21,-79
-52,3,55,25,-54,28,107,168,113,105,28,-49
15,59,44,-38,-15,51,105,171,126,154,72,-2
5,79,74,-42,-35,76,83,227,135,198,117,22
40,111,71,-76,-16,91,43,268,124,249,161,57
95,166,71,-131,11,119,12,244,121,299,199,122
78,159,81,-119,-2,120,-41,244,111,332,247,170
101,189,88,-145,6,138,-37,240,107,375,303,221
153,241,88,-197,32,164,-24,223,113,394,349,251
177,234,57,-206,60,145,-53,190,95,392,362,282
178,250,71,-214,53,160,-59,162,76,376,354,294
140,224,85,-182,27,154,-77,158,70,344,341,269
85,156,71,-121,7,113,-56,129,60,273,253,227
69,140,71,-104,-1,105,11,95,52,172,172,121
16,85,69,-50,-27,76,76,82,49,92,121,56
-24,28,52,-2,-39,40,95,69,50,24,51,4
-32,11,43,10,-38,27,80,51,38,-30,3,-64
-56,-9,48,32,-52,19,101,37,18,-72,-41,-76
-77,-27,50,52,-63,11,102,23,15,-89,-78,-91
-83,-43,40,63,-61,-2,115,14,11,-87,-86,-110
-101,-67,35,84,-68,-16,121,11,11,-100,-88,-120
-107,-78,29,92,-68,-25,136,6,32,-101,-91,-120
-74,-66,8,70,-41,-29,164,2,35,-97,-94,-120
-74,-65,9,69,-41,-28,157,-16,37,-93,-96,-120
-88,-63,25,75,-56,-19,165,-12,42,-88,-82,-121
-99,-60,40,80,-70,-10,162,10,35,-84,-64,-116
-88,-56,33,72,-60,-11,170,-4,52,-80,-55,-104
-79,-30,49,54,-64,9,145,32,59,-68,-52,-94
-34,3,36,15,-35,19,123,58,49,-53,-44,-92
-64,-55,8,59,-36,-23,113,27,47,-58,-42,-112
-141,-96,44,118,-92,-26,90,35,38,-62,-50,-97
-57,-37,20,46,-38,-9,133,46,38,-65,-33,-93
-58,-54,4,56,-30,-24,131,45,49,-66,-53,-99
-100,-82,18,90,-58,-32,100,43,46,-64,-73,-81
-76,-72,4,74,-40,-34,127,32,39,-66,-57,-86
-54,-64,-11,59,-21,-37,146,26,35,-64,-58,-83
-52,-80,-28,66,-12,-53,137,14,35,-69,-46,-96
-64,-82,-18,73,-23,-50,137,-19,35,-80,-52,-112
-48,-60,-12,54,-18,-36,141,-16,35,-75,-66,-111
-113,-111,3,112,-58,-54,140,9,35,-75,-61,-116
-123,-124,-1,124,-61,-62,140,-7,35,-93,-58,-129
-87,-111,-24,100,-31,-67,140,-16,47,-96,-55,-131
-63,-117,-54,90,-4,-85,131,-3,51,-91,-50,-120
-47,-110,-63,78,8,-86,119,-6,46,-91,-51,-114
-64,-109,-45,86,-9,-77,109,-35,45,-88,-60,-109
-88,-131,-43,110,-22,-86,101,-30,40,-83,-59,-103
-142,-128,14,135,-77,-57,120,-5,40,-75,-56,-99
-104,-117,-13,111,-46,-64,113,-1,47,-70,-53,-90
-65,-120,-55,93,-5,-87,90,17,50,-62,-51,-97
-54,-88,-34,71,-10,-61,91,17,50,-56,-48,-110
-65,-125,-60,95,-2,-92,111,-10,50,-67,-57,-105
-103,-151,-48,127,-27,-99,136,-19,50,-71,-71,-99
-100,-139,-39,120,-30,-89,119,-11,49,-65,-69,-98
-76,-131,-55,104,-11,-92,127,3,54,-63,-67,-90
-59,-131,-72,95,7,-101,152,23,61,-58,-63,-92
-80,-146,-66,113,-7,-105,133,28,59,-55,-65,-115
-90,-114,-25,102,-32,-69,112,-5,61,-60,-56,-111
-106,-126,-20,116,-42,-73,121,-18,59,-66,-61,-107
-94,-142,-48,119,-23,-95,103,-9,61,-64,-50,-102
-45,-118,-73,82,15,-95,117,8,56,-65,-55,-99
-95,-146,-51,121,-22,-98,106,-8,44,-64,-43,-89
