I,II,III,aVR,aVL,aVF,V1,V2,V3,V4,V5,V6
429,419,-10,-424,219,205,-3052,374,354,-109,377,437
417,415,-2,-416,209,206,-3055,371,344,-93,399,453
401,413,12,-407,194,212,-3068,365,330,-84,419,456
404,408,5,-406,199,206,-3067,344,310,-116,422,445
421,406,-15,-413,218,195,-3069,309,266,-167,408,438
423,398,-25,-410,223,186,-3067,275,205,-227,384,431
410,359,-51,-384,230,154,-3070,236,132,-304,347,399
422,340,-82,-381,252,128,-3063,193,55,-411,291,349
432,327,-105,-379,268,111,-3063,158,-3,-498,261,316
389,259,-131,-324,260,64,-3083,149,-52,-566,242,279
364,228,-136,-296,250,46,-3084,138,-94,-633,219,248
350,215,-136,-282,243,39,-3081,116,-107,-652,205,237
308,181,-127,-244,217,27,-3078,117,-90,-679,198,230
351,242,-109,-296,230,66,-3078,120,-89,-684,237,226
442,293,-150,-367,296,71,-3076,140,-71,-671,291,224
428,280,-148,-353,287,66,-3071,163,-46,-669,329,219
392,281,-111,-336,251,85,-3066,159,-28,-624,391,216
395,278,-117,-336,256,80,-3061,160,-13,-591,440,212
385,272,-114,-328,249,79,-3058,161,-54,-587,448,208
395,282,-113,-338,253,85,-3050,159,-12,-580,482,205
386,314,-73,-350,229,120,-3082,157,5,-579,527,200
381,346,-35,-363,208,155,-3090,150,-13,-570,554,199
382,363,-20,-372,201,171,-3078,148,43,-572,556,192
418,443,24,-431,197,233,-3072,142,39,-575,607,249
436,472,36,-454,200,253,-3065,111,14,-572,651,282
398,381,-16,-389,207,182,-3098,85,-56,-596,614,220
421,367,-55,-394,238,156,-3127,82,-111,-606,594,199
410,356,-54,-383,232,151,-3120,84,-95,-618,594,192
389,302,-87,-345,238,108,-3064,98,-117,-611,604,173
365,213,-152,-289,258,30,-3052,104,-181,-659,565,114
369,220,-149,-294,258,35,-2980,94,-171,-657,596,97
379,187,-193,-283,286,-3,-2813,108,-163,-729,564,48
359,203,-157,-281,258,23,-2791,90,-177,-678,590,65
352,190,-161,-271,256,14,-2722,114,-139,-715,584,39
360,209,-151,-284,255,29,-2679,96,-208,-715,585,30
351,361,10,-356,170,185,-2491,104,-112,-611,584,63
414,377,-37,-396,225,169,-2445,29,-81,-117,934,325
823,1085,262,-954,280,673,-3205,-446,-282,1973,2594,1515
865,609,-256,-737,560,177,-3257,-636,-816,1096,2156,1192
470,-568,-1038,49,755,-803,-2522,-481,-1346,-1579,191,-212
354,-265,-619,-45,487,-442,-2105,-222,-887,-1293,142,-252
327,-33,-360,-147,344,-196,-1686,42,-349,-907,305,-159
334,144,-190,-238,261,-23,-1493,94,-156,-713,424,-87
336,227,-109,-281,222,59,-1391,150,-35,-568,514,-29
309,185,-124,-247,216,30,-1223,164,-53,-605,455,-51
304,233,-71,-268,187,81,-1135,154,-11,-487,501,-7
293,199,-94,-245,193,52,-1042,170,13,-546,457,-29
321,260,-61,-290,191,99,-962,183,33,-460,481,0
318,243,-75,-280,196,84,-881,190,61,-470,472,-8
294,234,-60,-264,176,87,-825,208,63,-448,507,6
307,247,-60,-277,183,94,-739,223,96,-414,506,11
339,283,-56,-310,197,114,-663,236,171,-376,500,22
329,287,-42,-308,185,122,-601,271,207,-313,547,37
310,285,-25,-298,167,130,-508,276,246,-269,559,31
340,345,6,-342,167,175,-425,314,311,-171,601,73
345,384,39,-365,153,211,-365,362,419,-62,676,135
353,418,64,-386,144,241,-329,389,490,40,722,166
394,467,73,-431,161,269,-316,398,521,132,777,204
374,492,118,-433,127,304,-309,383,542,180,799,234
372,512,140,-443,116,326,-300,369,518,186,793,230
392,507,115,-449,138,310,-294,358,506,163,787,228
378,486,108,-432,135,296,-295,331,469,114,777,246
380,459,79,-420,150,269,-293,289,419,72,756,217
348,407,59,-378,144,233,-302,241,355,-16,703,162
328,374,46,-351,141,210,-326,203,262,-125,658,127
348,342,-6,-345,177,168,-348,176,192,-210,613,86
338,296,-41,-317,189,127,-370,139,158,-305,579,41
315,253,-63,-284,189,95,-402,126,115,-370,565,-10
326,235,-91,-281,208,71,-427,132,95,-403,563,-39
329,231,-97,-280,213,67,-423,129,76,-432,552,-52
313,229,-84,-270,198,72,-438,127,64,-437,549,-48
300,225,-75,-262,187,75,-450,124,125,-436,541,-51
285,218,-67,-251,176,75,-461,124,146,-433,533,-51
283,226,-57,-254,170,84,-487,133,142,-419,548,-47
279,220,-58,-249,168,81,-513,148,146,-406,566,-52
274,232,-42,-253,158,95,-539,148,156,-341,616,-22
259,235,-24,-247,141,105,-549,165,191,-332,629,-33
280,340,60,-310,109,200,-553,234,333,-111,806,76
325,455,129,-390,98,292,-500,385,602,201,1018,223
374,547,173,-460,100,360,-365,697,1033,635,1347,408
417,786,369,-602,24,577,-180,1016,1655,1395,1788,687
504,1065,562,-785,-29,813,-139,1278,2301,2309,2374,1047
495,1026,530,-761,-18,778,64,1762,3342,3753,2881,1170
163,155,-8,-159,86,74,564,2135,3941,3038,1551,126
-58,-462,-404,260,173,-432,664,1842,2970,349,-34,-826
-75,-408,-333,242,129,-370,342,1225,1558,-723,-180,-808
-57,-378,-321,218,132,-349,38,866,834,-849,-71,-656
0,-214,-214,107,108,-214,-31,714,595,-840,64,-504
-7,-244,-237,126,115,-240,-212,529,146,-883,75,-470
64,-250,-313,94,189,-281,-716,237,-311,-929,147,-380
149,-84,-233,-32,191,-158,-1144,-111,-439,-831,266,-276
171,-36,-207,-67,189,-121,-1351,-247,-501,-847,266,-244
173,-25,-197,-74,185,-111,-1446,-281,-550,-827,267,-217
161,-39,-200,-61,181,-119,-1554,-345,-616,-853,241,-230
165,-36,-201,-64,184,-119,-1639,-380,-697,-870,233,-221
174,-23,-197,-75,186,-110,-1723,-450,-756,-901,213,-218
191,-11,-202,-90,197,-106,-1841,-500,-820,-919,187,-225
203,-22,-225,-90,214,-124,-1949,-549,-898,-924,159,-190
230,4,-226,-116,228,-111,-2056,-600,-962,-917,147,-139
248,38,-210,-143,228,-85,-2171,-671,-1048,-879,138,-108
271,66,-205,-168,238,-69,-2288,-726,-1090,-832,162,-46
291,122,-169,-206,229,-23,-2397,-764,-1098,-747,195,11
294,182,-112,-238,203,35,-2487,-790,-1099,-657,219,77
314,254,-60,-283,186,97,-2554,-782,-1045,-567,239,131
305,286,-19,-295,162,133,-2611,-769,-982,-496,237,148
287,306,19,-297,134,162,-2621,-705,-916,-425,229,163
265,330,65,-298,100,197,-2594,-627,-786,-338,214,196
234,316,82,-275,76,199,-2545,-528,-647,-286,170,187
222,322,100,-272,61,210,-2485,-416,-521,-264,104,142
187,298,111,-243,38,204,-2422,-323,-382,-249,49,122
138,237,100,-188,19,168,-2360,-221,-286,-238,-21,75
146,226,80,-186,33,153,-2314,-130,-182,-237,-79,54
150,178,28,-164,60,103,-2272,-84,-105,-270,-139,29
105,123,18,-114,43,70,-2239,-37,-64,-302,-208,-6
94,110,16,-102,39,62,-2215,6,-11,-306,-238,-9
94,88,-5,-91,49,41,-2228,15,14,-304,-291,-44
85,75,-10,-79,48,32,-2235,21,13,-305,-327,-72
83,62,-21,-72,52,20,-2235,28,4,-304,-350,-70
82,52,-30,-67,55,11,-2266,34,-3,-308,-393,-67
84,43,-41,-63,62,1,-2280,30,-5,-320,-409,-87
65,32,-34,-48,49,-1,-2284,23,-37,-331,-430,-108
52,25,-28,-38,40,-1,-2281,20,-89,-345,-453,-103
38,17,-21,-27,29,-2,-2291,13,-68,-354,-477,-106
26,11,-15,-18,20,-2,-2311,8,-27,-363,-513,-112
41,-6,-47,-18,44,-26,-2307,5,-42,-387,-532,-134
25,-36,-61,5,43,-48,-2301,6,-58,-389,-529,-149
4,-47,-51,22,28,-48,-2322,5,-59,-384,-531,-143
4,-45,-49,21,27,-47,-2346,5,-70,-383,-541,-136
-3,-44,-41,24,19,-42,-2345,5,-67,-376,-545,-127
-21,-58,-36,40,8,-47,-2348,-1,-92,-376,-536,-140
-20,-67,-46,44,14,-56,-2372,-7,-145,-363,-539,-165
-14,-65,-51,39,19,-57,-2387,-14,-124,-364,-557,-174
-22,-65,-43,44,11,-54,-2380,-20,-94,-389,-556,-142
-21,-65,-44,43,12,-54,-2391,-28,-103,-387,-546,-141
-49,-83,-35,66,-7,-59,-2409,-27,-99,-381,-543,-153
-40,-79,-39,60,0,-59,-2422,-21,-101,-376,-532,-152
-18,-61,-44,40,13,-52,-2436,-16,-117,-356,-512,-174
-20,-33,-13,27,-3,-23,-2451,-11,-85,-331,-490,-167
1,26,24,-14,-11,25,-2451,-5,-57,-300,-458,-151
-20,70,90,-25,-55,80,-2438,0,-29,-291,-437,-124
-35,114,149,-40,-92,131,-2472,-22,12,-272,-395,-90
-10,102,112,-46,-61,107,-2539,-54,-26,-278,-395,-96
17,52,35,-35,-9,43,-2596,-73,-74,-310,-442,-114
15,35,20,-25,-3,27,-2609,-66,-71,-309,-455,-123
-25,7,32,8,-28,19,-2608,-66,-90,-296,-444,-122
-62,-68,-7,65,-27,-37,-2610,-60,-96,-319,-462,-159
-65,-119,-54,92,-5,-86,-2603,-55,-101,-364,-514,-190
-63,-104,-41,84,-11,-72,-2632,-57,-125,-332,-507,-179
-93,-179,-86,137,-3,-132,-2656,-41,-168,-422,-589,-252
-74,-114,-41,94,-16,-77,-2695,-54,-126,-326,-532,-179
-88,-170,-82,129,-3,-125,-2693,-19,-122,-394,-585,-250
-88,-88,0,88,-44,-44,-2747,-67,-153,-349,-553,-218
-99,14,113,42,-106,64,-2699,-55,-57,-333,-548,-154
75,235,160,-155,-43,197,-3061,-257,-165,653,171,336
535,962,427,-749,54,694,-3936,-708,-216,2732,1790,1479
409,-10,-419,-200,414,-215,-3846,-710,-788,872,636,611
17,-970,-987,477,502,-978,-3325,-540,-1257,-1409,-1055,-577
-77,-566,-488,322,206,-527,-3080,-286,-692,-856,-866,-413
-122,-388,-266,255,73,-327,-2852,-76,-293,-643,-797,-405
-86,-145,-59,115,-13,-102,-2813,-48,-128,-403,-645,-293
-125,-165,-39,145,-43,-102,-2790,3,-76,-394,-634,-284
-153,-150,3,151,-78,-73,-2777,18,-59,-383,-623,-282
-141,-96,46,118,-93,-25,-2758,32,-21,-305,-579,-254
-149,-125,24,137,-87,-50,-2748,56,-49,-335,-603,-268
-129,-86,44,107,-86,-21,-2750,78,10,-278,-564,-241
-139,-106,33,122,-85,-36,-2739,81,20,-291,-582,-256
-135,-80,55,107,-95,-12,-2740,110,54,-249,-556,-236
-129,-86,44,107,-86,-21,-2729,113,109,-252,-559,-241
-108,-68,40,88,-74,-14,-2723,119,110,-207,-543,-215
-105,-57,49,81,-77,-4,-2713,142,138,-179,-533,-201
-122,-50,72,86,-97,11,-2705,159,185,-144,-520,-198
-96,-31,65,63,-81,17,-2696,207,244,-82,-488,-170
-90,-4,86,47,-88,41,-2685,239,312,-25,-462,-131
-73,45,119,14,-96,82,-2676,281,379,72,-441,-85
-54,81,136,-14,-96,108,-2677,297,437,146,-417,-49
-36,117,153,-41,-95,134,-2678,285,448,176,-401,-16
-7,135,142,-64,-75,138,-2678,284,445,204,-399,14
-18,122,141,-52,-80,131,-2678,275,434,202,-399,39
-20,115,135,-48,-77,125,-2677,273,406,194,-400,46
-25,105,131,-40,-78,118,-2687,256,359,178,-398,41
-27,96,124,-35,-76,110,-2704,213,308,140,-403,37
-15,92,107,-39,-61,99,-2717,170,251,99,-404,36
-29,66,95,-19,-62,80,-2726,129,199,36,-421,10
-43,28,71,7,-57,49,-2742,93,138,-19,-462,-21
-62,-8,54,35,-58,23,-2744,74,97,-88,-500,-34
-89,-52,37,71,-63,-7,-2744,58,55,-152,-537,-82
-93,-67,26,80,-60,-20,-2749,45,-30,-201,-574,-107
-82,-57,26,69,-54,-15,-2748,45,-3,-258,-609,-106
-78,-55,22,66,-50,-16,-2748,41,25,-258,-610,-123
-88,-46,42,67,-64,-2,-2748,38,5,-249,-604,-123
-80,-44,36,62,-58,-3,-2748,36,5,-249,-604,-117
-90,-38,52,64,-72,7,-2747,33,-10,-241,-599,-114
-123,-44,79,83,-101,17,-2750,45,-15,-242,-599,-109
-120,-51,70,85,-95,9,-2745,51,-30,-240,-585,-105
-94,-41,53,67,-73,5,-2757,50,17,-241,-571,-96
-99,-33,66,66,-82,16,-2761,50,22,-223,-554,-83
-88,22,110,33,-99,66,-2768,50,15,-179,-533,-72
-91,25,116,32,-104,71,-2751,49,62,-162,-529,-69
-95,51,146,22,-121,98,-2740,44,65,-149,-532,-71
-31,124,155,-47,-93,140,-2803,26,44,-125,-526,-65
-82,30,113,26,-98,72,-2831,-28,-52,-186,-535,-67
-99,-31,69,65,-84,19,-2859,-51,-84,-219,-523,-63
-79,-38,40,58,-59,1,-2865,-41,-109,-242,-545,-70
-132,-74,58,103,-95,-8,-2856,-49,-156,-230,-563,-96
-139,-133,6,136,-73,-63,-2845,-41,-129,-255,-589,-153
-156,-170,-14,163,-71,-92,-2840,-50,-163,-288,-613,-158
-165,-182,-17,173,-73,-99,-2832,-41,-170,-297,-631,-166
-160,-223,-63,192,-48,-143,-2823,-48,-169,-334,-659,-193
-156,-168,-13,162,-71,-91,-2826,-44,-141,-252,-608,-146
-168,-236,-68,202,-49,-152,-2799,-39,-167,-363,-686,-221
-166,-80,86,123,-126,4,-2831,-74,-168,-284,-611,-109
-188,-69,119,128,-153,25,-2789,-80,-176,-298,-607,-108
114,385,272,-250,-79,328,-3379,-450,-226,1263,578,700
467,742,275,-605,96,508,-4050,-783,-379,2339,1555,1413
181,-529,-710,174,446,-619,-3642,-671,-1088,-278,-237,62
-103,-929,-826,516,362,-877,-3169,-452,-1138,-1277,-1147,-557
-156,-507,-352,332,98,-429,-2899,-186,-489,-618,-816,-318
-206,-368,-162,287,-22,-265,-2731,-71,-241,-525,-790,-331
-218,-202,16,211,-117,-93,-2718,-28,-75,-289,-621,-208
-224,-242,-18,233,-103,-129,-2679,19,-49,-355,-662,-255
-220,-192,28,205,-124,-82,-2676,13,-44,-277,-626,-207
-238,-205,33,222,-135,-86,-2632,33,-9,-287,-621,-216
-232,-191,41,211,-136,-74,-2594,54,-14,-247,-603,-205
-230,-180,49,205,-139,-65,-2561,55,18,-204,-583,-191
-223,-181,43,202,-133,-69,-2540,57,23,-202,-580,-195
-217,-159,58,188,-137,-50,-2501,89,69,-145,-554,-174
-223,-160,62,192,-142,-49,-2451,116,96,-130,-548,-174
-215,-139,77,177,-146,-31,-2424,128,137,-85,-502,-157
-193,-131,62,162,-127,-34,-2407,156,191,-51,-479,-152
-198,-113,86,155,-141,-13,-2399,187,239,29,-445,-144
-199,-82,117,140,-158,17,-2383,223,328,133,-404,-135
-173,-29,144,101,-159,58,-2359,272,387,231,-355,-76
-139,32,171,53,-155,101,-2350,299,469,322,-291,-20
-120,65,185,27,-153,125,-2341,308,519,389,-258,17
-144,69,213,37,-179,141,-2335,299,490,415,-245,45
-109,98,207,5,-158,152,-2360,291,490,429,-233,42
-87,106,194,-10,-140,150,-2329,276,454,413,-223,33
-122,64,186,29,-154,124,-2300,222,377,355,-236,29
-126,46,172,40,-149,108,-2299,181,324,298,-266,12
-147,0,147,73,-147,73,-2262,133,245,222,-292,-16
-161,-62,100,111,-130,19,-2236,75,156,132,-339,-46
-161,-98,63,130,-112,-17,-2216,59,101,66,-394,-89
-170,-129,41,149,-105,-44,-2199,48,62,18,-407,-109
-181,-147,34,164,-108,-56,-2187,33,48,-17,-443,-144
-197,-166,31,181,-114,-67,-2178,11,36,-61,-482,-183
-194,-170,23,182,-108,-73,-2179,-21,21,-91,-484,-180
-189,-169,20,179,-104,-75,-2178,-31,13,-90,-506,-186
-183,-170,13,176,-98,-78,-2178,-30,-1,-114,-511,-185
-182,-170,12,176,-97,-79,-2179,-30,-9,-121,-521,-202
-214,-169,45,191,-130,-62,-2178,-30,-14,-104,-512,-206
-233,-171,61,202,-147,-55,-2180,-31,-9,-87,-491,-178
-213,-168,45,190,-129,-61,-2177,-27,-3,-44,-496,-171
-215,-175,39,195,-127,-68,-2180,-21,-3,-11,-480,-167
-211,-185,26,198,-118,-79,-2176,-16,11,19,-467,-160
-171,-151,21,161,-96,-65,-2182,-9,-15,26,-454,-155
-169,-112,57,140,-112,-27,-2192,-6,8,47,-443,-151
-174,-63,111,118,-142,24,-2157,-15,69,86,-428,-131
-161,-25,136,93,-148,56,-2171,-36,56,95,-422,-116
-116,46,162,35,-139,104,-2215,-42,48,119,-399,-86
-133,19,153,57,-143,86,-2248,-70,11,96,-412,-102
-198,-96,102,147,-149,3,-2305,-119,-17,85,-450,-137
-149,-88,61,118,-105,-13,-2313,-110,-18,74,-457,-134
-163,-115,48,139,-105,-33,-2315,-82,-39,68,-458,-126
-209,-199,10,204,-109,-94,-2315,-71,-35,67,-455,-154
-175,-221,-45,198,-65,-133,-2312,-84,-67,41,-475,-203
-188,-223,-34,205,-76,-128,-2319,-73,-71,71,-480,-199
-213,-270,-57,242,-77,-163,-2306,-78,-99,19,-527,-238
-210,-211,-1,211,-105,-106,-2326,-97,-124,90,-487,-169
-211,-269,-58,240,-77,-163,-2298,-71,-149,27,-568,-224
-204,-154,50,179,-127,-52,-2338,-116,-136,112,-488,-178
-240,-106,134,173,-187,14,-2311,-117,-108,64,-503,-169
-6,167,173,-80,-90,170,-2736,-386,-191,1083,305,389
423,778,355,-601,33,566,-3561,-838,-309,2605,1659,1365
231,-269,-500,19,366,-384,-3350,-833,-965,615,302,336
-104,-1029,-924,567,410,-976,-2760,-567,-1185,-953,-1029,-637
-177,-603,-426,390,125,-515,-2431,-289,-557,-321,-757,-398
-230,-420,-191,325,-19,-305,-2127,-127,-220,-146,-694,-386
-165,-181,-16,174,-75,-98,-2003,-96,-60,120,-506,-276
-218,-229,-11,224,-103,-120,-1884,-64,-27,113,-546,-263
-254,-226,28,240,-141,-99,-1775,-41,-14,136,-536,-248
-236,-181,54,208,-145,-63,-1604,-23,23,159,-488,-242
-260,-198,62,229,-161,-68,-1412,-15,5,150,-498,-251
-252,-174,78,213,-165,-47,-1230,-6,83,215,-463,-233
-251,-189,62,220,-157,-63,-980,9,81,196,-469,-246
-241,-171,71,206,-156,-50,-754,16,49,241,-441,-228
-237,-176,62,206,-149,-57,-580,46,154,275,-429,-224
-219,-152,67,185,-143,-42,-438,76,193,320,-385,-205
-217,-125,91,171,-154,-17,-302,96,212,350,-360,-194
-181,-88,94,134,-137,3,-150,135,276,409,-327,-172
-164,-69,95,116,-129,13,0,177,322,480,-273,-135
-185,-40,146,112,-165,53,161,226,411,576,-226,-96
-147,8,154,69,-151,81,358,246,470,670,-175,-54
-109,58,167,25,-139,112,614,259,533,737,-131,-20
-95,103,198,-5,-147,151,881,283,557,778,-113,-8
-85,106,190,-11,-138,148,1154,279,554,780,-98,-2
-73,105,179,-16,-126,142,1456,254,540,776,-93,20
-92,76,168,8,-130,121,1721,216,484,748,-80,36
-120,33,153,44,-137,93,1951,167,434,695,-90,22
-115,15,130,50,-123,72,2182,121,362,637,-129,7
-90,10,100,40,-95,55,2398,90,285,577,-152,-7
-112,-34,78,73,-95,22,2599,50,208,499,-203,-57
-182,-117,65,150,-123,-26,2784,14,160,416,-248,-112
-193,-141,52,167,-123,-44,2933,2,145,370,-283,-131
-184,-134,50,159,-117,-42,3074,-6,139,329,-304,-138
-219,-169,50,194,-134,-59,3197,-15,120,294,-322,-172
-240,-193,47,216,-143,-73,3290,-24,90,281,-342,-192
-229,-184,44,206,-136,-70,3400,-42,82,276,-330,-179
-229,-183,45,206,-137,-69,3488,-47,92,270,-327,-175
-228,-178,50,203,-139,-64,3543,-40,102,259,-314,-167
-225,-175,49,200,-136,-63,3616,-41,98,300,-291,-161
-221,-170,51,196,-136,-59,3669,-34,103,331,-265,-157
-210,-161,48,185,-129,-56,3710,-37,110,341,-244,-152
-204,-152,52,178,-128,-50,3723,-38,110,348,-237,-150
-195,-147,48,171,-121,-49,3725,-48,62,328,-226,-145
-214,-160,54,187,-134,-52,3763,-51,86,370,-220,-142
-195,-113,82,154,-138,-15,3790,-21,172,392,-203,-137
-153,-68,85,110,-119,8,3806,-12,168,380,-195,-136
-174,-59,114,116,-144,27,3795,-27,175,430,-173,-133
-153,-57,97,105,-125,20,3753,-74,138,404,-166,-132
-158,-105,53,131,-105,-26,3727,-107,87,371,-198,-128
-167,-119,49,143,-108,-35,3710,-114,79,362,-213,-135
-157,-135,22,146,-89,-57,3709,-117,55,336,-210,-149
-186,-180,6,183,-96,-87,3726,-100,27,333,-224,-157
-190,-244,-55,217,-67,-149,3705,-95,-1,280,-275,-204
-193,-244,-51,218,-71,-147,3680,-82,51,325,-248,-201
-208,-278,-70,243,-69,-174,3681,-93,28,264,-296,-247
-167,-231,-64,199,-51,-147,3615,-112,30,323,-254,-207
-175,-252,-76,214,-49,-164,3596,-78,30,260,-292,-223
-202,-234,-32,218,-85,-133,3539,-114,-54,265,-269,-204
-213,-120,93,166,-153,-14,3519,-119,1,254,-282,-181
-123,-53,70,88,-97,8,3214,-298,-98,770,145,103
336,646,310,-492,13,478,2333,-778,-205,2554,1647,1181
349,43,-306,-195,327,-131,2208,-923,-736,1316,897,623
-66,-1058,-992,562,463,-1024,2697,-677,-1149,-770,-753,-608
-183,-746,-563,465,190,-655,2945,-378,-604,-285,-588,-475
-226,-503,-277,365,26,-390,3150,-181,-165,4,-446,-394
-203,-300,-96,252,-53,-198,3168,-112,11,217,-316,-304
-207,-266,-59,237,-74,-163,3148,-83,81,257,-283,-268
-223,-293,-69,258,-77,-181,3134,-73,82,245,-300,-282
-220,-248,-28,234,-95,-138,3091,-52,108,317,-245,-248
-243,-278,-34,261,-104,-156,3062,-27,113,288,-269,-269
-248,-242,6,245,-126,-118,3019,-18,139,353,-231,-238
-237,-254,-17,245,-110,-135,3003,-7,160,328,-246,-252
-198,-224,-26,211,-86,-125,2969,2,158,372,-217,-241
-183,-219,-36,201,-73,-127,2941,21,178,380,-208,-246
-196,-204,-8,200,-93,-106,2922,54,241,410,-188,-247
-203,-191,12,197,-107,-90,2889,71,268,443,-155,-226
-192,-173,19,182,-105,-77,2840,108,316,488,-114,-185
-177,-136,41,156,-108,-48,2791,131,367,558,-64,-157
-163,-102,61,133,-112,-20,2781,155,438,634,-21,-132
-163,-64,99,113,-131,18,2751,200,485,706,23,-97
-160,-41,118,101,-139,38,2699,212,524,746,58,-60
-125,2,127,61,-126,64,2653,214,562,794,78,-35
-101,33,134,34,-118,83,2593,208,563,791,75,-35
-96,22,118,37,-107,70,2558,198,546,763,67,-32
-88,9,97,39,-93,53,2493,167,481,740,61,-30
-107,-26,82,66,-94,28,2408,126,417,683,49,-29
-125,-57,68,91,-96,5,2351,83,351,622,24,-56
-132,-81,52,106,-91,-14,2277,41,288,567,-3,-79
-128,-109,19,118,-73,-45,2223,-2,238,509,-37,-100
-129,-147,-19,138,-55,-83,2182,-33,182,442,-75,-132
-153,-185,-33,169,-60,-109,2137,-38,146,380,-120,-149
-164,-208,-43,187,-60,-125,2116,-71,130,340,-151,-189
-159,-205,-46,183,-57,-125,2112,-76,115,319,-134,-175
-164,-208,-45,187,-59,-126,2104,-78,110,302,-144,-173
-192,-236,-44,215,-74,-140,2098,-106,94,291,-172,-227
-179,-229,-51,205,-64,-140,2091,-101,74,286,-167,-220
-154,-221,-67,188,-43,-144,2083,-96,100,286,-165,-214
-156,-217,-61,186,-47,-138,2106,-93,113,309,-161,-211
-150,-208,-59,179,-45,-133,2109,-87,96,328,-158,-202
-149,-204,-55,177,-46,-130,2091,-84,104,332,-134,-201
-149,-198,-49,174,-50,-123,2078,-78,85,336,-115,-193
-135,-190,-56,163,-39,-123,2064,-74,74,326,-127,-197
-154,-189,-35,172,-59,-112,2049,-70,126,340,-97,-180
-161,-165,-3,163,-79,-84,2036,-65,114,384,-73,-142
-154,-127,27,140,-90,-50,2029,-61,120,382,-93,-135
-151,-101,50,126,-100,-25,1973,-63,164,379,-87,-135
-104,-84,20,93,-61,-31,1925,-97,137,375,-87,-134
-111,-131,-20,122,-45,-76,1893,-139,86,366,-84,-156
-111,-174,-62,143,-24,-118,1872,-138,70,366,-77,-155
-88,-192,-103,140,8,-147,1894,-132,51,331,-86,-155
-134,-219,-85,177,-24,-152,1897,-130,16,290,-96,-175
-180,-289,-109,235,-35,-199,1896,-121,6,242,-142,-219
-184,-306,-122,245,-31,-214,1882,-124,-40,280,-133,-210
-181,-329,-147,255,-17,-238,1891,-133,-61,216,-191,-256
-165,-283,-118,224,-23,-200,1870,-148,-5,265,-142,-216
-192,-316,-124,254,-34,-220,1881,-130,-44,205,-189,-241
-181,-267,-86,224,-47,-176,1847,-156,-72,241,-164,-231
-191,-144,48,167,-119,-48,1849,-150,10,233,-133,-180
-105,-91,14,98,-59,-39,1626,-300,-62,652,226,54
355,612,257,-484,48,435,786,-772,-169,2373,1697,1116
347,40,-307,-193,327,-134,632,-957,-746,1275,1042,633
-31,-1078,-1047,554,509,-1062,1149,-742,-1203,-813,-612,-635
-144,-786,-642,465,250,-714,1469,-438,-647,-389,-467,-532
-215,-545,-330,380,58,-437,1725,-211,-184,-60,-332,-412
-194,-347,-154,271,-20,-250,1794,-128,-43,149,-197,-280
-188,-282,-94,235,-47,-188,1827,-85,63,219,-135,-250
-200,-309,-109,255,-45,-209,1845,-72,87,190,-155,-273
-187,-262,-75,225,-56,-168,1878,-67,137,273,-105,-237
-197,-286,-89,242,-54,-187,1932,-57,155,254,-132,-264
-201,-259,-58,230,-72,-158,1936,-54,141,290,-92,-231
-218,-275,-57,247,-81,-165,1992,-44,177,282,-103,-274
-226,-260,-34,244,-95,-147,2058,-41,186,297,-87,-247
-210,-264,-54,237,-77,-159,2083,-30,192,300,-67,-232
-179,-235,-56,207,-61,-145,2122,30,280,339,-47,-217
-165,-199,-35,182,-65,-117,2187,54,303,384,-38,-185
-141,-169,-28,155,-56,-98,2239,70,355,432,-5,-176
-123,-129,-7,126,-57,-68,2304,116,421,482,55,-140
-125,-95,30,109,-77,-32,2364,152,484,561,106,-95
-127,-57,71,92,-99,7,2429,202,570,639,162,-62
-125,-26,99,75,-112,36,2491,216,601,685,208,-53
-68,24,91,21,-80,57,2545,232,632,727,233,-28
-39,113,152,-37,-96,133,2640,243,669,783,298,40
-33,223,256,-95,-144,239,2706,238,704,831,359,112
-11,233,245,-111,-128,239,2725,242,709,831,376,138
-46,155,200,-55,-123,177,2736,205,624,769,348,111
-69,81,150,-7,-110,115,2763,163,531,681,279,55
-88,6,94,41,-91,50,2795,118,476,601,230,-3
-114,-56,57,85,-85,1,2779,60,410,523,188,-44
-149,-149,0,149,-74,-74,2748,23,328,426,114,-134
-134,-178,-44,156,-44,-111,2733,-17,266,358,68,-165
-141,-234,-93,188,-24,-163,2716,-56,211,285,14,-190
-186,-292,-106,239,-40,-199,2665,-71,163,285,17,-223
-178,-258,-79,218,-49,-168,2678,-78,149,283,15,-213
-183,-290,-107,236,-38,-198,2686,-105,152,264,-1,-233
-172,-232,-60,203,-56,-146,2655,-109,182,295,26,-192
-194,-304,-109,249,-42,-206,2668,-97,164,234,-26,-247
-166,-173,-6,169,-79,-89,2614,-124,174,279,69,-139
-165,-135,30,150,-97,-53,2625,-101,212,298,64,-106
105,127,22,-116,41,75,2082,-423,35,1418,1022,548
407,516,109,-461,148,312,1431,-1025,-669,1549,1475,1034
96,-530,-626,217,361,-578,1751,-1040,-1324,-533,-135,-211
-151,-966,-815,559,332,-890,2162,-622,-909,-754,-598,-696
-201,-512,-311,357,55,-411,2422,-303,-232,-64,-207,-377
-229,-435,-206,332,-11,-320,2592,-162,41,96,-138,-335
-192,-320,-128,256,-32,-223,2599,-122,121,238,-46,-230
-222,-358,-135,290,-43,-246,2638,-100,122,163,-99,-281
-211,-322,-111,267,-50,-216,2619,-97,159,230,-52,-261
-202,-297,-95,250,-53,-196,2624,-89,130,219,-69,-281
-203,-297,-95,250,-54,-196,2618,-82,181,257,-52,-269
-203,-279,-77,241,-63,-178,2611,-69,242,272,-48,-252
-206,-285,-79,245,-63,-182,2628,-57,229,294,-43,-254
-187,-249,-62,218,-62,-155,2647,-40,255,333,-33,-231
-188,-239,-51,214,-68,-145,2663,-12,317,356,-21,-233
-198,-225,-26,212,-86,-125,2672,15,359,431,17,-192
-185,-192,-7,189,-89,-99,2699,69,425,508,64,-165
-173,-149,24,161,-98,-63,2717,113,508,591,122,-170
-164,-119,45,141,-104,-37,2719,144,566,668,151,-124
-153,-86,67,119,-110,-9,2717,160,613,721,193,-83
-153,-67,86,109,-119,10,2718,148,615,740,215,-77
-143,-64,79,103,-110,7,2744,140,605,758,239,-43
-140,-64,76,101,-107,6,2753,132,597,754,243,-40
-132,-58,74,95,-103,7,2742,117,572,741,230,-39
-126,-58,68,92,-97,5,2740,82,524,708,228,-41
-147,-80,67,113,-106,-7,2732,51,471,663,212,-68
-151,-99,51,125,-101,-24,2729,25,424,621,198,-74
-142,-123,18,132,-80,-52,2733,-1,388,590,179,-102
-144,-145,-1,144,-71,-73,2732,-23,359,549,150,-117
-159,-171,-12,165,-73,-91,2735,-37,338,522,134,-122
-149,-179,-29,164,-60,-104,2737,-53,327,525,136,-130
-155,-189,-34,173,-60,-111,2739,-62,315,518,134,-134
-179,-217,-39,198,-70,-128,2738,-57,304,515,130,-152
-175,-214,-39,194,-67,-126,2739,-83,289,510,131,-131
-177,-218,-41,198,-68,-130,2775,-100,272,505,127,-138
-183,-221,-38,202,-72,-130,2785,-98,260,498,117,-179
-178,-220,-42,199,-67,-131,2811,-106,250,482,107,-186
-175,-233,-57,204,-59,-145,2868,-113,242,471,97,-182
-193,-235,-42,214,-75,-138,2901,-113,232,452,88,-195
-170,-232,-62,201,-54,-147,2936,-126,223,433,81,-214
-142,-228,-86,185,-28,-157,2968,-137,212,422,74,-191
-148,-224,-77,186,-35,-150,2999,-134,197,410,66,-176
-162,-244,-82,203,-40,-163,3021,-136,181,399,59,-214
-169,-248,-79,209,-45,-163,3038,-133,165,384,52,-231
-159,-239,-80,200,-39,-159,3038,-153,158,367,49,-219
-141,-236,-96,189,-22,-166,3044,-168,154,356,50,-234
-123,-222,-99,173,-11,-160,3053,-164,149,351,49,-230
-150,-241,-92,196,-29,-166,3042,-164,145,346,51,-201
-164,-253,-89,208,-37,-171,3036,-159,140,342,49,-218
-162,-245,-83,204,-39,-164,3028,-160,136,338,52,-215
-165,-245,-80,205,-42,-162,3019,-160,131,333,71,-206
-156,-240,-85,198,-36,-162,3009,-160,126,320,77,-206
-154,-240,-85,197,-34,-162,2996,-160,123,306,73,-191
-150,-234,-85,193,-32,-159,2986,-159,118,293,77,-220
-143,-228,-85,186,-29,-156,2972,-161,113,282,72,-213
-139,-224,-85,182,-27,-154,2948,-158,111,270,82,-191
-135,-217,-83,176,-26,-150,2922,-156,107,260,96,-220
-133,-213,-79,173,-27,-146,2901,-152,106,259,94,-214
-130,-207,-77,169,-27,-142,2879,-150,100,260,95,-197
-119,-193,-74,156,-22,-133,2848,-146,102,261,94,-188
-132,-185,-53,159,-39,-119,2826,-145,102,259,99,-180
-139,-147,-8,143,-66,-77,2814,-149,108,262,129,-169
-121,-99,22,110,-72,-38,2794,-150,127,260,146,-144
-101,-50,52,75,-76,1,2751,-151,121,270,177,-116
-79,-15,64,47,-71,24,2683,-149,100,257,215,-89
-81,-58,23,69,-52,-17,2606,-186,44,210,230,-82
-72,-94,-22,83,-24,-58,2539,-204,16,160,216,-129
-65,-120,-55,93,-5,-87,2520,-191,13,143,204,-156
-92,-141,-49,117,-22,-95,2510,-183,-11,135,210,-141
-112,-177,-65,145,-23,-121,2456,-174,-46,54,180,-177
-112,-179,-67,146,-22,-123,2388,-185,-93,52,207,-156
-124,-233,-109,179,-8,-170,2362,-173,-112,-25,157,-183
-119,-196,-77,157,-20,-136,2284,-192,-132,13,199,-149
-147,-224,-78,186,-34,-151,2267,-175,-165,-49,146,-217
-122,-163,-41,143,-40,-102,2213,-197,-167,-24,179,-176
-121,-33,89,76,-105,28,2185,-157,-167,-10,211,-103
-28,62,90,-18,-59,76,1991,-230,-177,633,724,207
426,778,352,-602,36,564,1185,-738,-336,2365,2257,1312
366,107,-259,-236,312,-76,1053,-955,-1062,951,1351,670
-35,-994,-959,515,462,-976,1486,-786,-1473,-1184,-368,-599
-108,-656,-548,382,220,-602,1678,-484,-937,-723,-173,-457
-162,-436,-274,299,56,-354,1906,-220,-464,-436,-41,-375
-163,-259,-96,211,-33,-177,1933,-173,-289,-225,145,-243
-164,-211,-47,187,-58,-128,1921,-125,-225,-178,231,-194
-164,-222,-57,193,-53,-139,1897,-108,-209,-203,211,-198
-156,-181,-25,168,-65,-103,1862,-96,-185,-152,232,-164
-165,-211,-46,189,-59,-129,1861,-84,-180,-197,222,-183
-142,-160,-18,151,-62,-89,1832,-81,-160,-150,259,-150
-119,-149,-29,134,-45,-89,1811,-65,-148,-180,235,-161
-88,-101,-13,95,-37,-57,1767,-58,-141,-153,296,-139
-101,-112,-10,107,-45,-61,1746,-36,-129,-150,283,-138
-122,-124,-2,123,-60,-63,1740,-15,-129,-133,305,-128
-95,-86,9,90,-52,-38,1726,9,-111,-105,329,-113
-82,-71,11,76,-46,-29,1690,33,-53,-70,348,-83
-77,-50,27,63,-51,-11,1659,49,-20,-30,399,-55
-52,-12,40,32,-46,14,1648,78,27,15,429,-28
-24,52,76,-14,-51,64,1624,100,47,72,482,2
-30,82,112,-26,-71,97,1584,114,69,125,529,40
-26,81,107,-28,-67,94,1557,136,90,152,571,83
7,111,104,-60,-49,108,1532,143,64,144,590,104
33,134,101,-83,-34,117,1485,139,54,138,595,119
61,157,96,-109,-18,126,1439,130,33,131,590,125
60,154,94,-108,-17,124,1400,121,14,124,578,173
57,142,85,-100,-14,114,1358,103,-19,118,572,189
61,137,77,-99,-8,107,1327,73,-66,89,561,163
59,127,68,-93,-5,97,1295,41,-104,58,548,145
48,108,61,-78,-7,84,1256,18,-154,36,528,118
31,87,57,-59,-13,72,1211,6,-216,-25,489,133
19,71,51,-45,-16,61,1188,-28,-270,-92,455,134
10,57,47,-34,-19,52,1177,-55,-309,-136,392,126
17,61,44,-40,-14,52,1145,-49,-311,-165,330,126
28,62,34,-45,-4,48,1116,-43,-298,-180,302,119
35,92,57,-64,-11,74,1101,-35,-316,-192,258,122
33,116,83,-74,-25,99,1079,-30,-311,-189,250,131
35,110,75,-73,-20,92,1040,-22,-275,-190,241,152
41,110,69,-76,-14,89,1002,-22,-273,-190,217,158
19,105,85,-62,-34,95,975,-50,-302,-189,186,151
8,105,96,-57,-44,100,947,-56,-316,-194,130,162
18,98,79,-58,-31,88,928,-54,-335,-205,107,171
32,104,71,-68,-20,87,908,-52,-343,-225,75,189
42,101,59,-72,-9,80,869,-49,-362,-246,19,203
54,118,64,-86,-5,91,842,-50,-368,-255,-7,203
57,146,89,-102,-16,118,830,-44,-338,-241,-46,242
47,163,116,-105,-35,139,810,-34,-343,-241,-85,244
101,247,147,-174,-23,196,766,-32,-331,-223,-67,278
114,267,153,-191,-20,210,713,-68,-342,-246,-109,317
124,211,88,-168,18,149,665,-111,-425,-321,-197,301
150,185,35,-168,57,110,610,-113,-476,-341,-223,302
79,139,60,-110,10,99,601,-106,-484,-377,-252,280
108,133,25,-120,41,79,591,-105,-497,-382,-287,288
103,73,-31,-88,67,21,565,-92,-522,-442,-364,233
78,68,-9,-73,43,29,539,-97,-536,-442,-380,239
100,35,-65,-67,83,-15,550,-79,-538,-511,-462,221
78,32,-47,-55,62,-7,513,-90,-545,-476,-444,258
57,29,-28,-43,42,1,509,-69,-535,-483,-454,278
39,1,-38,-20,38,-18,481,-87,-571,-553,-519,234
46,168,122,-107,-39,145,466,-115,-524,-476,-483,317
91,185,94,-138,-2,139,434,-138,-499,-184,-282,465
508,868,360,-688,74,613,-291,-592,-666,1661,1250,1585
624,591,-33,-607,328,279,-548,-872,-1231,1117,1046,1478
239,-643,-882,202,561,-762,-8,-703,-1768,-1448,-946,50
120,-466,-587,173,354,-526,270,-435,-1335,-1297,-1069,-6
82,-172,-255,45,169,-213,547,-155,-746,-862,-856,132
103,8,-95,-55,99,-43,706,-71,-530,-691,-771,237
91,93,1,-92,45,47,761,-32,-421,-535,-695,326
67,63,-4,-65,35,30,831,-15,-423,-612,-752,282
106,142,36,-124,35,89,869,-17,-393,-523,-693,328
87,96,9,-92,39,53,935,-2,-385,-573,-733,295
90,114,24,-102,33,68,979,3,-364,-525,-696,351
72,108,35,-90,19,71,1024,20,-333,-526,-739,336
82,166,84,-124,-1,125,1061,44,-307,-484,-740,348
80,157,77,-119,2,117,1081,52,-286,-473,-757,361
96,167,71,-132,12,118,1117,75,-274,-465,-779,383
126,199,73,-162,26,136,1140,106,-242,-440,-757,421
140,201,61,-171,39,131,1142,123,-168,-416,-756,437
177,251,74,-214,51,162,1179,169,-105,-341,-739,494
184,282,98,-233,43,190,1185,191,-58,-267,-734,524
218,349,131,-284,44,240,1175,210,12,-191,-710,554
226,389,163,-308,31,276,1175,233,57,-138,-683,609
240,414,175,-327,32,294,1167,232,58,-105,-680,638
266,433,167,-350,50,300,1165,222,37,-94,-680,661
256,419,163,-338,46,291,1157,203,19,-120,-713,660
263,418,156,-341,53,287,1150,177,-11,-165,-761,654
251,403,152,-327,49,277,1144,159,-49,-201,-773,664
234,377,142,-305,46,259,1135,125,-109,-276,-833,638
223,347,124,-286,49,235,1129,91,-174,-353,-898,610
215,317,102,-266,56,210,1120,76,-235,-430,-929,576
194,279,86,-237,53,182,1106,48,-316,-519,-990,525
203,286,83,-245,60,185,1092,39,-352,-568,-1012,507
207,286,78,-247,64,182,1084,31,-374,-619,-1043,497
179,256,77,-218,51,166,1079,22,-390,-638,-1081,484
199,269,70,-234,64,169,1075,17,-366,-657,-1085,476
201,273,72,-237,65,172,1070,-3,-373,-657,-1108,468
198,266,67,-232,66,166,1066,1,-368,-619,-1118,463
211,280,69,-246,71,175,1061,22,-336,-606,-1075,454
189,294,105,-242,42,199,1052,44,-308,-577,-1046,451
190,296,106,-244,42,201,1042,51,-298,-548,-1063,438
190,294,104,-242,43,199,1034,51,-296,-534,-1053,450
188,296,108,-243,40,202,1035,55,-291,-522,-1045,464
240,340,101,-290,69,220,1034,56,-291,-510,-1036,453
241,365,124,-303,58,244,1035,59,-279,-492,-1029,479
262,398,135,-330,63,266,1028,50,-304,-487,-1028,479
296,477,181,-387,57,329,995,26,-293,-474,-988,528
278,457,180,-368,49,318,954,3,-309,-488,-1004,545
309,416,107,-363,101,261,912,-17,-394,-494,-1016,506
302,375,73,-339,114,224,903,-30,-406,-504,-1020,501
275,334,58,-305,109,196,893,-25,-415,-500,-1022,474
253,293,40,-273,107,167,883,-5,-409,-494,-1018,440
229,231,2,-230,113,117,879,1,-435,-513,-1038,406
238,254,16,-246,111,135,857,2,-471,-481,-999,421
235,202,-34,-218,134,84,852,19,-500,-553,-1018,380
238,247,9,-242,114,128,809,28,-501,-464,-920,419
223,174,-49,-198,136,62,820,47,-501,-544,-965,355
268,284,16,-276,126,150,770,3,-531,-449,-893,412
234,366,131,-300,51,248,776,39,-465,-415,-870,387
395,551,156,-473,119,353,411,-174,-511,646,-29,919
838,1215,377,-1027,230,796,-365,-634,-748,2369,1469,1989
672,230,-442,-451,557,-106,-235,-680,-1438,293,138,999
313,-567,-880,127,597,-723,199,-506,-1701,-1526,-1311,8
281,-107,-388,-86,335,-247,381,-227,-1082,-827,-985,161
220,13,-208,-116,214,-97,590,-13,-683,-621,-889,116
227,237,11,-232,108,124,600,43,-511,-352,-711,295
262,255,-8,-258,135,123,583,67,-454,-344,-701,284
261,272,11,-267,125,141,535,71,-438,-312,-661,285
259,294,35,-277,112,164,493,120,-398,-261,-603,294
253,263,10,-258,121,136,454,113,-401,-267,-580,271
268,306,38,-287,115,172,401,115,-374,-203,-510,291
259,296,37,-278,110,166,360,116,-371,-215,-500,270
235,310,76,-273,79,193,309,126,-344,-160,-457,286
268,328,60,-298,103,194,269,172,-305,-162,-428,277
293,352,59,-322,116,205,214,179,-292,-139,-372,279
295,347,52,-321,122,199,154,190,-257,-83,-319,300
324,383,59,-353,132,220,109,226,-195,-14,-253,332
318,421,104,-370,107,262,60,256,-144,69,-206,330
311,458,147,-384,81,302,-1,282,-70,175,-134,365
348,522,173,-435,87,347,-55,317,-8,293,-27,429
384,563,179,-474,102,371,-103,335,29,372,51,479
361,566,205,-464,78,385,-156,327,33,376,87,496
346,574,228,-461,59,401,-219,322,19,374,106,477
359,572,213,-466,73,392,-262,312,3,357,126,495
364,567,203,-466,81,385,-314,277,-32,329,125,490
364,562,198,-463,82,379,-345,230,-78,266,111,443
327,522,195,-425,65,359,-380,186,-155,150,83,407
317,479,162,-398,77,320,-426,143,-222,62,36,374
333,441,108,-387,112,274,-438,113,-323,-34,-5,336
336,408,72,-372,132,240,-486,95,-405,-115,-26,292
327,378,51,-353,138,214,-497,81,-415,-189,-45,249
309,362,52,-336,128,207,-489,73,-432,-240,-39,217
316,353,37,-334,139,194,-516,70,-422,-244,-5,199
293,352,60,-323,116,206,-496,65,-408,-263,22,188
241,339,98,-290,71,218,-503,58,-395,-255,39,184
256,349,94,-303,81,221,-557,84,-364,-219,67,174
308,411,104,-360,102,257,-569,111,-329,-186,111,168
305,424,118,-365,93,270,-560,110,-287,-156,134,159
304,417,113,-361,96,264,-569,109,-277,-125,146,163
303,424,121,-364,90,272,-578,120,-275,-102,169,198
286,444,158,-365,63,301,-590,127,-246,-68,187,220
309,475,166,-392,71,321,-586,114,-212,-48,201,245
322,542,220,-432,51,381,-595,106,-202,-30,211,256
329,584,255,-457,37,419,-639,88,-193,-7,212,264
317,518,201,-418,58,360,-665,59,-263,-74,183,259
316,516,200,-416,58,357,-701,54,-295,-94,149,252
311,489,178,-400,66,333,-678,55,-298,-120,91,232
274,416,142,-345,66,279,-646,59,-363,-133,70,216
260,345,85,-302,87,215,-638,79,-309,-179,11,181
248,324,75,-286,86,199,-639,67,-294,-184,-14,190
247,304,57,-275,94,180,-630,68,-315,-193,-46,176
247,277,31,-262,108,154,-627,68,-322,-215,-80,133
270,326,56,-299,106,191,-628,87,-302,-151,-56,189
254,244,-10,-249,132,117,-609,82,-334,-249,-152,143
258,416,157,-337,50,286,-634,54,-275,-145,-84,210
270,376,107,-323,81,241,-623,70,-200,-43,-31,258
586,921,335,-753,125,627,-1284,-316,-306,1764,1341,1243
859,1109,250,-985,305,680,-1823,-644,-630,2359,1987,1713
482,-280,-763,-101,623,-521,-1344,-525,-1317,-513,-21,270
254,-430,-683,88,469,-556,-973,-335,-1211,-1163,-725,-201
235,-30,-265,-102,250,-147,-719,-57,-557,-536,-436,-41
192,92,-100,-142,146,-4,-526,74,-305,-418,-403,-2
223,272,49,-248,87,160,-494,108,-173,-137,-273,134
198,202,4,-201,97,103,-454,132,-135,-222,-343,74
220,288,67,-254,76,177,-444,132,-76,-127,-288,146
244,270,26,-258,109,148,-397,148,-51,-141,-311,127
225,282,58,-254,84,170,-374,143,-33,-121,-294,122
199,282,84,-241,57,183,-353,166,-1,-108,-292,112
199,274,76,-236,61,175,-320,161,5,-97,-302,97
202,286,84,-244,59,185,-283,173,52,-69,-301,103
198,274,76,-236,61,175,-263,197,88,-62,-301,127
201,284,83,-243,59,184,-231,209,135,5,-272,164
205,286,80,-246,62,183,-181,239,188,42,-259,149
210,311,100,-261,55,205,-140,276,268,123,-205,162
218,346,127,-282,45,236,-128,303,350,219,-161,206
216,385,170,-301,23,277,-121,331,417,310,-108,230
225,415,190,-320,17,302,-76,354,494,408,-54,260
243,438,195,-341,24,316,-60,349,503,447,-52,308
262,465,204,-364,29,334,-62,341,532,475,-47,325
268,464,196,-366,36,329,-45,332,550,501,-46,320
265,448,183,-357,41,316,-35,327,501,469,-43,317
254,414,160,-334,47,286,-27,285,441,400,-83,308
230,367,137,-299,46,252,-19,227,354,313,-172,271
222,349,127,-286,47,238,-11,201,276,237,-224,229
187,292,105,-239,41,198,-5,152,187,132,-309,192
165,226,61,-196,52,144,5,113,111,35,-378,149
164,196,32,-180,66,114,10,103,64,-32,-431,123
168,184,17,-176,75,100,25,98,42,-85,-479,107
175,180,5,-178,85,92,43,97,40,-100,-501,92
162,172,10,-167,75,91,60,92,25,-118,-523,90
160,166,5,-163,77,85,83,91,44,-117,-516,90
156,159,3,-158,77,81,92,89,89,-101,-529,90
118,170,52,-144,33,111,115,90,104,-91,-530,89
66,155,89,-111,-12,122,115,90,103,-77,-517,91
42,126,84,-84,-22,105,114,90,113,-58,-513,87
59,143,84,-102,-13,114,124,90,118,-30,-502,93
62,150,87,-107,-13,118,121,89,125,-3,-497,86
87,173,86,-130,0,129,144,96,149,6,-488,98
99,214,115,-157,-8,165,166,90,177,15,-479,116
86,254,168,-171,-41,211,160,73,174,46,-483,121
140,312,172,-226,-16,242,128,46,161,42,-475,152
93,224,131,-159,-19,178,102,1,114,-8,-490,98
73,184,111,-129,-19,148,78,-17,74,-30,-504,98
100,189,90,-145,5,139,93,-12,65,-53,-511,108
55,135,80,-95,-13,107,113,-19,12,-42,-529,66
24,66,41,-46,-9,53,113,-11,23,-86,-587,34
25,20,-6,-23,15,7,120,-19,24,-106,-601,1
50,24,-26,-37,38,-1,132,-12,13,-124,-606,-28
41,-18,-59,-11,49,-38,133,-13,-2,-171,-633,-58
38,29,-9,-33,24,10,121,-2,39,-84,-588,-9
-4,-62,-58,34,27,-60,146,7,-2,-184,-675,-59
-3,90,93,-43,-48,91,104,-38,-3,-76,-601,26
1,99,99,-50,-49,99,127,-30,55,-72,-602,14
301,542,240,-422,30,391,-466,-383,-62,1498,584,842
635,921,286,-778,174,603,-1162,-759,-267,2607,1574,1550
359,-386,-745,14,552,-566,-751,-650,-936,-67,-228,226
69,-793,-861,362,465,-827,-308,-427,-1000,-1148,-1193,-422
-46,-372,-325,209,140,-348,-69,-169,-359,-472,-907,-225
-65,-235,-170,150,53,-202,134,-46,-75,-371,-899,-244
-46,-38,8,42,-27,-15,147,-12,51,-130,-751,-121
-69,-77,-8,73,-31,-42,189,31,82,-201,-789,-151
-55,-22,33,38,-44,5,190,41,97,-107,-741,-110
-63,-40,23,51,-43,-8,205,60,97,-97,-746,-122
-54,-30,23,42,-38,-3,222,51,158,-83,-734,-115
-67,-20,47,43,-57,13,232,49,184,-55,-716,-104
-81,-28,53,54,-67,12,244,67,163,-67,-719,-110
-72,-6,66,39,-69,30,256,88,207,-26,-693,-92
-59,-4,55,32,-57,25,257,95,237,-11,-694,-92
-44,19,63,12,-54,41,284,122,278,40,-670,-71
-52,47,99,3,-75,72,312,163,325,76,-647,-50
-43,73,115,-15,-79,94,301,188,385,135,-604,-22
-15,91,106,-38,-61,98,298,227,453,214,-553,10
-11,139,150,-64,-81,144,291,271,533,319,-492,59
31,200,170,-116,-70,185,286,294,603,406,-435,98
42,229,186,-136,-72,207,281,301,635,476,-396,136
36,249,212,-143,-88,230,270,295,639,509,-379,166
65,269,203,-167,-69,236,260,293,632,494,-377,158
81,278,197,-179,-59,237,250,281,611,480,-374,160
64,259,194,-162,-66,226,215,240,542,440,-369,164
19,198,179,-109,-80,189,182,193,479,364,-377,125
26,163,138,-95,-56,150,164,143,390,262,-409,97
30,125,95,-78,-32,110,122,96,258,153,-465,68
0,70,70,-36,-35,70,111,59,206,71,-510,13
-41,19,60,11,-50,39,108,34,151,1,-549,-9
-71,-14,57,42,-64,21,88,26,86,-58,-586,-60
-75,-24,51,49,-62,13,55,21,102,-105,-610,-110
-87,-43,44,65,-65,0,14,16,91,-132,-632,-86
-91,-49,43,70,-67,-3,2,10,63,-142,-631,-92
-75,-33,41,54,-58,4,-5,5,60,-178,-621,-118
-85,-32,52,58,-68,10,-31,15,45,-179,-617,-107
-58,-9,49,33,-54,20,-45,23,41,-156,-608,-88
-42,6,48,18,-45,27,-67,18,40,-158,-596,-94
-121,-36,85,79,-103,24,-104,15,39,-146,-581,-106
-146,-53,93,100,-120,20,-128,12,42,-132,-569,-95
-120,-33,87,77,-104,27,-161,7,37,-115,-555,-94
-75,19,95,28,-85,57,-179,6,54,-98,-547,-76
-71,42,113,14,-92,77,-173,10,54,-86,-549,-59
-83,72,155,6,-119,113,-178,20,56,-95,-552,-39
-47,134,181,-44,-114,157,-224,10,63,-89,-546,1
-35,98,133,-32,-85,115,-272,-37,-29,-105,-554,-31
-47,58,105,-6,-76,82,-327,-65,-111,-132,-545,-52
-88,12,100,38,-94,55,-345,-56,-116,-151,-560,-56
-99,-21,78,60,-88,28,-337,-64,-117,-145,-576,-79
-121,-88,34,104,-77,-27,-333,-53,-142,-166,-601,-125
-134,-155,-21,145,-56,-88,-325,-57,-187,-208,-640,-168
-105,-123,-17,114,-44,-70,-325,-55,-192,-202,-652,-164
-128,-174,-46,152,-41,-110,-309,-47,-215,-252,-694,-195
-110,-107,4,109,-57,-51,-321,-67,-213,-163,-639,-146
-124,-167,-43,146,-40,-105,-289,-51,-237,-266,-716,-212
-136,-77,59,107,-97,-9,-320,-94,-254,-207,-629,-130
-159,-55,103,107,-131,24,-277,-83,-251,-261,-650,-127
88,272,183,-180,-48,227,-755,-372,-338,948,276,509
513,836,323,-675,95,579,-1563,-804,-487,2432,1552,1416
290,-304,-594,7,442,-449,-1286,-748,-1134,178,54,303
-28,-950,-922,490,448,-936,-765,-512,-1322,-1290,-1175,-560
-103,-512,-409,307,153,-460,-519,-248,-714,-635,-873,-349
-171,-358,-188,265,9,-273,-303,-87,-382,-503,-816,-334
-131,-154,-23,143,-54,-88,-281,-44,-233,-252,-663,-205
-152,-198,-47,175,-52,-122,-244,-23,-194,-288,-664,-220
-152,-164,-12,158,-70,-88,-248,-8,-162,-235,-607,-192
-156,-158,-2,157,-77,-79,-240,24,-125,-215,-590,-188
-166,-159,6,162,-86,-76,-232,20,-128,-229,-596,-185
-165,-133,31,149,-98,-51,-231,37,-100,-186,-568,-170
-177,-145,32,161,-104,-56,-220,37,-109,-197,-577,-185
-159,-116,43,137,-101,-36,-223,55,-95,-140,-540,-184
-179,-122,57,150,-118,-33,-215,83,-14,-123,-514,-188
-180,-98,82,138,-131,-7,-254,83,40,-92,-489,-150
-164,-80,83,122,-123,1,-280,119,57,-62,-472,-144
-136,-30,106,83,-121,37,-281,156,134,1,-432,-137
-112,-4,108,58,-110,51,-286,193,221,81,-372,-98
-113,24,137,44,-125,80,-279,236,287,183,-295,-49
-87,92,178,-3,-132,135,-304,270,359,279,-251,-10
-85,109,193,-12,-139,151,-330,285,411,329,-228,29
-63,130,194,-34,-129,162,-344,286,423,354,-199,60
-49,133,182,-42,-116,157,-380,278,426,355,-178,74
-63,112,175,-25,-119,144,-422,247,402,343,-179,67
-57,109,166,-27,-112,138,-430,216,358,298,-184,57
-63,83,146,-10,-105,114,-451,174,274,226,-184,49
-66,49,114,8,-90,81,-493,125,192,155,-208,24
-75,10,85,32,-81,47,-497,81,131,67,-230,0
-85,-24,62,54,-73,19,-505,48,67,-8,-256,-39
-93,-49,44,71,-68,-2,-500,31,11,-80,-296,-81
-130,-94,36,111,-82,-29,-476,22,-30,-143,-320,-96
-146,-117,29,131,-88,-44,-459,14,-53,-173,-336,-113
-150,-128,22,139,-86,-52,-437,6,-110,-214,-331,-145
-161,-145,16,153,-88,-65,-413,-1,-126,-235,-328,-168
-149,-138,10,143,-79,-64,-388,-9,-111,-247,-325,-162
-148,-133,15,140,-81,-59,-367,-16,-110,-259,-320,-160
-148,-129,19,138,-83,-55,-353,-23,-99,-247,-315,-157
-138,-119,18,128,-78,-50,-331,-31,-96,-244,-288,-155
-148,-134,14,140,-81,-60,-315,-38,-89,-233,-271,-152
-159,-144,15,151,-87,-64,-300,-36,-86,-223,-254,-139
-137,-121,16,129,-76,-52,-290,-34,-80,-207,-232,-130
-116,-93,23,104,-69,-35,-298,-35,-75,-190,-214,-119
-121,-47,74,84,-97,13,-277,-30,-32,-165,-199,-113
-113,-14,100,63,-106,43,-258,-31,-15,-151,-186,-92
-97,37,134,30,-116,85,-277,-28,-16,-150,-157,-51
-103,40,142,31,-123,91,-294,-48,-16,-146,-154,-56
-161,-78,83,119,-122,2,-339,-84,-119,-201,-157,-98
-182,-108,75,145,-128,-16,-376,-83,-112,-236,-151,-107
-150,-105,44,127,-97,-30,-349,-77,-75,-244,-161,-118
-183,-163,20,173,-102,-71,-322,-74,-132,-228,-150,-135
-204,-220,-15,212,-94,-117,-305,-63,-170,-259,-180,-182
-166,-198,-32,183,-67,-115,-339,-65,-169,-247,-146,-185
-179,-251,-72,215,-53,-161,-333,-67,-169,-316,-176,-224
-189,-244,-55,217,-67,-149,-349,-89,-174,-273,-144,-187
-182,-248,-66,216,-58,-157,-373,-73,-160,-274,-159,-214
-189,-244,-55,217,-67,-149,-387,-98,-205,-304,-168,-225
-235,-116,119,175,-176,2,-374,-105,-213,-308,-144,-168
-148,-73,75,110,-112,1,-578,-242,-302,54,157,23
298,654,356,-476,-30,505,-1432,-724,-379,1954,1705,1149
366,245,-120,-306,243,62,-1657,-875,-826,1229,1383,873
-17,-969,-951,493,467,-960,-1081,-646,-1310,-1182,-420,-493
-150,-751,-602,451,226,-676,-731,-364,-880,-928,-451,-487
-220,-499,-279,360,30,-389,-489,-149,-388,-551,-255,-373
-259,-326,-67,293,-96,-196,-408,-89,-205,-375,-152,-319
-225,-222,3,224,-114,-109,-402,-30,-109,-270,-79,-253
-246,-249,-3,247,-121,-126,-390,-32,-92,-325,-87,-267
-257,-193,64,224,-160,-64,-393,-16,-86,-225,-12,-232
-252,-220,31,235,-141,-94,-378,13,-68,-265,-35,-255
-236,-186,51,211,-143,-67,-348,10,-18,-196,3,-227
-239,-198,41,218,-140,-78,-312,23,-1,-201,9,-237
-244,-180,63,212,-153,-58,-311,28,19,-165,42,-229
-242,-179,63,210,-152,-57,-274,46,30,-143,55,-245
-250,-169,81,209,-165,-44,-237,71,84,-126,91,-238
-231,-133,98,182,-165,-17,-206,94,149,-75,123,-194
-223,-110,114,166,-168,2,-148,124,225,-16,160,-173
-205,-82,123,143,-164,20,-105,164,296,60,220,-147
-192,-46,145,119,-169,50,-65,214,367,143,281,-101
-181,2,183,90,-182,92,-15,257,453,237,356,-59
-155,32,187,61,-171,109,15,272,496,302,410,-33
-150,59,208,45,-179,133,42,285,523,349,458,-13
-134,80,214,27,-175,147,64,296,545,377,491,-5
-134,71,205,31,-170,138,66,278,538,371,503,4
-141,58,199,41,-170,128,75,241,498,340,496,7
-129,57,186,35,-158,122,71,201,451,289,489,6
-134,36,170,49,-152,103,49,160,382,224,479,-14
-177,-23,154,99,-165,66,46,120,311,168,445,-42
-178,-54,123,116,-150,34,49,86,246,93,417,-62
-159,-88,71,123,-115,-8,41,60,188,11,388,-100
-180,-141,38,160,-109,-51,34,37,141,-35,353,-139
-187,-154,33,170,-110,-60,26,24,97,-84,341,-161
-209,-173,36,191,-123,-68,19,19,89,-130,310,-178
-220,-186,34,202,-127,-76,17,14,90,-144,284,-207
-211,-175,36,193,-123,-70,22,8,90,-158,321,-215
-208,-174,35,190,-121,-69,25,3,90,-158,347,-204
-195,-165,29,180,-112,-68,20,-4,90,-161,340,-202
-220,-162,58,190,-139,-51,20,-20,86,-136,367,-194
-215,-156,59,185,-137,-48,19,-36,95,-91,398,-190
-200,-151,48,175,-124,-51,14,-35,119,-91,418,-185
-189,-148,41,168,-115,-54,17,-28,106,-84,450,-178
-171,-141,30,156,-100,-55,10,-24,123,-64,479,-173
-204,-139,66,171,-135,-36,4,-18,162,-36,494,-166
-195,-96,99,145,-147,2,37,-11,168,-10,525,-147
-183,-57,125,120,-154,34,61,-14,168,-7,546,-123
-155,-22,133,88,-144,56,29,-25,190,15,593,-104
-137,-18,119,77,-127,50,-7,-51,192,-18,618,-107
-138,-82,56,110,-97,-13,-41,-73,130,-63,588,-135
-107,-87,20,97,-63,-33,-61,-68,104,-69,582,-158
-190,-127,62,158,-126,-32,-43,-71,97,-116,573,-168
-235,-182,53,208,-143,-64,-7,-70,103,-94,579,-180
-233,-240,-7,236,-112,-123,23,-69,73,-129,548,-240
-259,-247,12,254,-135,-117,6,-71,65,-129,574,-239
-262,-277,-15,270,-123,-146,25,-59,58,-180,528,-280
-231,-238,-7,234,-111,-122,-1,-69,46,-134,582,-237
-243,-253,-10,248,-116,-131,22,-48,53,-175,551,-255
-243,-241,2,241,-122,-119,-4,-84,14,-166,550,-238
-222,-101,121,161,-171,10,-8,-97,70,-139,588,-197
-173,-82,91,128,-132,4,-174,-242,-39,233,898,-21
258,601,343,-429,-43,471,-1033,-741,-158,1994,2386,1073
303,131,-172,-217,237,-20,-1197,-916,-674,1087,1893,716
-67,-1027,-959,547,446,-993,-614,-658,-1139,-1106,271,-589
-175,-763,-588,469,207,-675,-304,-355,-587,-731,348,-525
-261,-508,-247,385,-7,-377,-41,-141,-136,-388,452,-406
-230,-319,-89,275,-70,-204,40,-72,47,-211,599,-344
-203,-228,-26,216,-88,-127,77,-22,135,-112,666,-300
-227,-258,-31,243,-97,-145,118,3,111,-138,656,-308
-239,-231,8,235,-123,-111,140,14,181,-68,704,-269
-263,-273,-10,268,-126,-141,194,16,167,-109,687,-289
-245,-221,24,233,-135,-98,231,15,171,-51,742,-257
-267,-229,38,248,-152,-95,275,46,165,-63,729,-268
-283,-230,53,256,-167,-88,303,61,156,-29,777,-250
-266,-217,49,241,-158,-83,341,80,196,0,784,-251
-232,-182,49,207,-140,-66,357,110,236,25,809,-241
-211,-152,59,181,-135,-46,382,137,273,65,844,-239
-218,-153,65,185,-141,-44,411,172,302,114,880,-222
-214,-130,84,172,-149,-23,405,211,351,176,954,-161
-201,-86,116,143,-159,15,399,262,423,251,1010,-134
-165,-44,120,105,-143,38,393,293,465,330,1087,-100
-161,-16,144,88,-152,64,353,317,498,394,1156,-64
-166,0,166,83,-166,83,314,330,510,420,1180,-54
-119,32,152,43,-136,92,286,320,502,414,1201,-47
-101,45,146,28,-124,95,246,308,486,399,1204,-36
-111,23,134,44,-123,78,201,272,434,378,1194,-32
-135,-1,134,68,-135,67,150,235,366,350,1189,-18
-153,-30,123,91,-138,47,111,199,307,293,1182,-19
-143,-55,88,99,-116,17,74,160,242,238,1167,-60
-149,-98,51,123,-99,-23,36,112,172,177,1131,-78
-153,-133,21,143,-87,-56,-3,69,112,103,1100,-111
-164,-158,6,160,-85,-75,-29,59,59,45,1063,-152
-183,-184,0,184,-91,-91,-29,53,21,-9,1030,-158
-147,-153,-6,150,-70,-79,-46,45,-3,-49,1033,-166
-162,-171,-9,167,-76,-90,-65,38,-21,-64,1036,-167
-204,-208,-4,206,-100,-106,-86,30,-45,-81,1033,-178
-191,-190,2,190,-96,-94,-98,25,-55,-89,1036,-190
-189,-184,5,186,-97,-89,-100,20,-56,-79,1032,-183
-181,-171,10,176,-95,-80,-116,16,-46,-72,1043,-177
-184,-169,15,176,-99,-77,-112,11,-67,-64,1065,-174
-164,-154,11,159,-87,-71,-113,7,-89,-58,1063,-162
-170,-171,-1,170,-85,-85,-121,2,-65,-51,1064,-163
-170,-177,-6,174,-82,-91,-119,-6,-47,-43,1065,-167
-156,-133,23,144,-89,-55,-120,-13,-2,-40,1085,-136
-173,-111,62,142,-118,-24,-121,-11,41,-27,1122,-115
-149,-84,64,116,-106,-10,-118,0,90,-26,1122,-112
-115,-16,99,65,-107,41,-123,-8,148,0,1162,-75
-95,6,101,44,-98,54,-127,-32,141,-20,1185,-76
-107,-79,28,93,-68,-25,-153,-64,105,-75,1165,-99
-98,-104,-6,101,-46,-54,-178,-75,86,-113,1154,-104
-114,-118,-4,116,-55,-60,-142,-72,63,-154,1140,-140
-163,-161,2,162,-82,-79,-110,-69,50,-141,1147,-181
-157,-220,-64,189,-46,-142,-114,-63,10,-194,1119,-219
-135,-213,-78,175,-28,-145,-114,-64,-3,-190,1142,-191
-142,-244,-102,193,-20,-173,-78,-52,-4,-248,1100,-238
-144,-221,-77,183,-33,-149,-102,-62,-2,-193,1139,-193
-153,-242,-89,198,-32,-165,-77,-38,30,-239,1105,-205
-143,-195,-53,169,-45,-124,-103,-81,-8,-227,1153,-191
-164,-66,97,115,-130,16,-71,-74,61,-234,1148,-154
-97,-18,79,57,-88,30,-228,-200,9,250,1555,95
370,647,276,-509,47,461,-1038,-738,-276,1898,3040,1143
387,42,-344,-214,365,-151,-1132,-937,-898,636,2293,593
-42,-1046,-1004,544,482,-1025,-602,-694,-1219,-1427,660,-646
-134,-701,-567,418,217,-634,-345,-364,-620,-943,853,-482
-169,-449,-280,309,56,-364,-80,-131,-130,-649,1014,-378
-144,-247,-103,196,-20,-175,-14,-73,63,-468,1187,-274
-126,-180,-54,153,-36,-116,4,-22,131,-410,1268,-236
-153,-210,-57,182,-48,-133,29,-6,185,-430,1282,-264
-141,-167,-26,154,-57,-96,31,7,249,-376,1361,-224
-137,-178,-41,158,-47,-109,62,24,216,-417,1335,-250
-127,-140,-13,134,-57,-77,57,30,256,-365,1383,-219
-125,-147,-22,136,-51,-84,62,32,278,-372,1376,-232
-115,-121,-6,118,-54,-64,59,60,316,-328,1402,-214
-107,-113,-6,110,-50,-59,60,77,346,-323,1408,-215
-101,-100,1,100,-51,-49,61,94,371,-294,1440,-202
-102,-95,8,98,-55,-43,57,132,415,-273,1487,-165
-88,-58,31,73,-59,-13,55,146,459,-230,1535,-127
-98,-33,65,65,-81,15,55,178,530,-181,1580,-95
-58,32,91,13,-75,61,52,207,589,-124,1606,-68
-23,85,108,-31,-65,96,49,241,646,-19,1688,-39
-24,100,124,-38,-74,111,51,269,707,25,1738,-3
15,161,146,-89,-66,153,43,273,724,57,1766,31
5,154,149,-80,-72,151,33,278,713,71,1792,13
34,176,141,-105,-54,158,25,258,707,50,1781,-2
67,205,138,-136,-36,171,15,233,701,1,1777,2
65,188,123,-127,-29,155,7,224,698,-36,1768,-2
65,157,92,-111,-14,124,-2,190,695,-82,1733,1
