I,II,III,aVR,aVL,aVF,V1,V2,V3,V4,V5,V6
-49,-44,5,46,-27,-19,20,-44,-69,-70,-55,-45
-39,-34,5,36,-22,-14,20,-38,-63,-66,-54,-45
-33,-28,5,30,-19,-11,20,-30,-53,-59,-50,-45
-45,-36,8,40,-27,-14,20,-20,-42,-53,-47,-41
-52,-41,11,47,-31,-15,20,-15,-35,-46,-42,-39
-46,-37,9,42,-28,-14,20,-15,-35,-40,-40,-41
-40,-35,6,37,-22,-15,20,-15,-34,-40,-45,-44
-36,-32,5,33,-20,-13,20,-15,-29,-39,-45,-45
-34,-29,5,31,-20,-12,20,-15,-30,-35,-45,-45
-39,-34,5,36,-22,-14,20,-17,-32,-35,-45,-45
-45,-41,5,43,-25,-18,20,-21,-36,-37,-45,-44
-54,-46,8,50,-30,-19,17,-35,-47,-41,-45,-47
-61,-50,10,56,-36,-20,15,-42,-56,-46,-44,-51
-59,-50,10,55,-35,-20,15,-43,-64,-49,-46,-49
-64,-50,13,57,-39,-18,15,-47,-75,-52,-43,-54
-65,-50,16,57,-41,-16,15,-49,-84,-57,-56,-55
-64,-50,14,57,-39,-18,15,-53,-85,-62,-72,-55
-64,-53,11,59,-37,-21,19,-55,-87,-65,-69,-60
-64,-56,8,60,-35,-23,20,-57,-90,-60,-70,-60
-60,-55,6,57,-33,-25,20,-60,-91,-61,-70,-61
-57,-55,2,55,-29,-26,20,-60,-95,-78,-70,-65
-71,-71,0,71,-35,-35,20,-64,-95,-81,-70,-65
-72,-74,-3,73,-34,-38,20,-65,-95,-80,-70,-63
-61,-66,-5,64,-28,-36,20,-65,-95,-85,-70,-59
-59,-64,-5,62,-26,-35,20,-65,-95,-85,-70,-60
-54,-58,-5,56,-24,-31,20,-65,-99,-85,-70,-60
-49,-55,-6,53,-21,-30,20,-63,-100,-85,-69,-60
-46,-50,-4,48,-20,-27,20,-59,-100,-85,-65,-60
-50,-51,0,51,-25,-25,20,-60,-100,-85,-65,-55
-46,-48,-2,47,-22,-25,20,-60,-100,-85,-65,-55
-40,-46,-5,44,-17,-25,20,-60,-99,-85,-65,-54
-38,-44,-6,41,-15,-25,20,-60,-94,-81,-65,-50
-47,-50,-2,49,-22,-26,19,-54,-91,-75,-61,-50
-45,-58,-13,52,-16,-36,20,-49,-88,-71,-55,-48
-35,-52,-17,44,-9,-35,20,-44,-83,-64,-50,-41
-51,-52,-1,51,-25,-26,21,-37,-81,-59,-45,-37
-35,-19,16,26,-25,-1,37,-33,-72,-54,-38,-30
-22,16,37,3,-30,26,57,-26,-53,-38,-36,-26
-15,33,48,-9,-32,40,75,-25,-50,-25,-41,-30
-7,53,60,-23,-33,56,66,-16,-50,-25,-38,-29
-24,45,69,-11,-46,57,25,-34,-50,-25,-44,-31
-13,41,54,-14,-34,47,-15,-68,-61,-28,-43,-29
18,21,3,-19,7,12,-27,-77,-79,-53,-49,-32
23,-10,-33,-6,28,-22,-16,-74,-73,-38,-35,-27
-3,-39,-36,21,17,-37,-11,-77,-77,-42,-31,-24
-28,-59,-31,44,2,-45,-4,-84,-101,-79,-60,-49
-49,-77,-28,63,-10,-53,3,-73,-99,-89,-77,-68
-64,-89,-26,77,-19,-57,7,-85,-121,-108,-94,-77
-67,-86,-18,76,-24,-52,15,-57,-96,-89,-80,-74
-81,-104,-23,93,-29,-63,19,-83,-127,-112,-97,-83
-68,-88,-20,78,-24,-54,30,-44,-90,-77,-67,-63
-73,-122,-49,98,-12,-86,28,-72,-131,-112,-99,-81
-62,-90,-28,76,-17,-59,82,101,31,-17,-39,-43
47,16,-32,-31,39,-8,214,682,694,425,239,98
490,469,-21,-479,255,224,-72,351,891,1193,1108,711
970,937,-33,-953,501,452,-798,-760,190,1373,1735,1318
619,475,-144,-547,382,165,-1061,-1569,-1098,-66,582,703
78,114,36,-95,21,75,-754,-1330,-1281,-746,-259,78
-25,92,117,-34,-71,104,-356,-490,-492,-293,-132,-1
-62,-64,-2,63,-29,-33,-67,-143,-215,-215,-184,-113
-68,-89,-22,79,-23,-55,39,-7,-87,-134,-140,-97
-86,-139,-53,113,-16,-96,82,51,-46,-134,-153,-111
-93,-131,-38,112,-27,-85,101,74,-20,-126,-143,-102
-88,-124,-36,106,-25,-80,109,107,14,-102,-130,-99
-90,-125,-35,108,-27,-80,117,114,38,-85,-110,-101
-87,-110,-23,99,-32,-66,114,138,73,-54,-83,-91
-81,-114,-34,98,-23,-74,116,142,72,-54,-93,-96
-56,-99,-44,78,-6,-71,114,170,108,-22,-77,-81
-55,-96,-41,75,-6,-68,115,185,119,-15,-77,-79
-50,-84,-34,67,-8,-59,112,203,155,8,-65,-70
-44,-77,-33,61,-6,-54,107,229,188,40,-54,-61
-32,-58,-26,45,-3,-41,105,258,227,72,-30,-49
-9,-31,-23,20,7,-27,100,294,273,104,-2,-34
14,-5,-19,-4,17,-12,96,338,326,147,22,-9
38,22,-17,-30,27,2,94,397,404,192,56,18
57,42,-15,-49,35,13,79,449,466,225,93,45
87,89,2,-88,42,45,58,478,527,278,125,74
118,146,28,-132,45,86,44,479,566,318,158,98
140,177,37,-159,51,107,30,472,565,317,168,119
136,183,47,-159,44,115,18,450,535,310,160,117
103,173,70,-138,16,121,5,393,473,280,156,104
87,158,72,-123,7,115,-4,301,382,227,124,97
59,120,60,-90,-1,90,-6,207,259,148,74,76
34,87,53,-61,-10,70,-10,134,156,72,37,43
22,65,43,-44,-10,54,-9,67,77,26,4,16
-5,30,35,-13,-20,33,0,18,9,-12,-22,-1
-30,-2,27,16,-28,13,10,-20,-44,-49,-42,-24
-55,-34,21,44,-37,-6,20,-38,-76,-79,-61,-37
-59,-46,13,53,-36,-16,29,-50,-96,-94,-73,-47
-50,-45,6,47,-28,-19,30,-61,-110,-106,-82,-61
-44,-45,-1,45,-21,-23,30,-55,-102,-102,-80,-60
-40,-45,-5,43,-17,-25,30,-51,-96,-98,-73,-60
-38,-45,-7,42,-15,-26,30,-46,-90,-95,-69,-60
-33,-44,-11,39,-11,-27,29,-42,-82,-90,-63,-60
-36,-41,-6,39,-15,-23,25,-37,-78,-88,-57,-58
-32,-38,-5,36,-13,-21,25,-35,-73,-81,-57,-52
-33,-36,-2,35,-15,-19,23,-35,-70,-74,-61,-48
-32,-32,0,32,-16,-15,19,-32,-67,-67,-63,-44
-31,-30,0,31,-16,-15,21,-30,-63,-61,-66,-39
-45,-28,18,36,-31,-5,16,-30,-59,-54,-69,-35
-46,-24,22,35,-34,-1,15,-37,-66,-66,-71,-46
-58,-44,14,51,-36,-15,15,-41,-79,-76,-74,-56
-61,-50,10,55,-35,-20,11,-47,-83,-75,-75,-54
-45,-40,4,42,-24,-18,9,-58,-90,-79,-75,-57
-38,-40,-2,39,-18,-21,11,-62,-100,-81,-75,-60
-29,-32,-3,31,-12,-18,15,-66,-108,-82,-74,-60
-32,-32,0,32,-16,-16,15,-71,-114,-88,-78,-62
-44,-43,1,43,-22,-21,15,-74,-119,-103,-80,-65
-50,-46,4,48,-27,-21,15,-75,-120,-106,-81,-65
-49,-44,5,46,-27,-19,15,-75,-120,-104,-85,-65
-54,-46,8,50,-31,-19,15,-75,-125,-106,-85,-65
-70,-59,11,64,-40,-24,15,-75,-125,-104,-89,-65
-70,-61,9,66,-40,-26,15,-75,-125,-106,-90,-65
-70,-59,10,65,-40,-25,15,-75,-125,-111,-90,-65
-70,-60,10,65,-40,-25,15,-75,-125,-114,-90,-65
-70,-60,10,65,-40,-25,14,-75,-125,-112,-90,-65
-70,-59,11,64,-40,-24,10,-75,-125,-109,-88,-65
-63,-54,8,58,-35,-22,10,-75,-125,-106,-84,-62
-63,-51,13,57,-38,-19,8,-75,-121,-103,-85,-59
-54,-48,6,51,-30,-20,5,-75,-120,-100,-85,-60
-39,-43,-5,41,-16,-24,5,-75,-120,-100,-85,-56
-34,-39,-6,37,-14,-22,8,-75,-115,-100,-84,-55
-39,-44,-5,42,-17,-25,11,-75,-115,-100,-81,-55
-51,-49,3,50,-27,-23,9,-73,-114,-100,-78,-49
-53,-44,9,48,-31,-17,10,-68,-109,-99,-76,-42
-53,-39,15,46,-34,-12,9,-65,-105,-102,-73,-36
-41,-37,3,39,-22,-16,12,-62,-101,-93,-71,-30
-35,-23,12,29,-23,-6,22,-57,-89,-75,-67,-22
-34,7,41,13,-38,24,36,-55,-66,-64,-51,-22
-34,25,59,4,-47,42,44,-59,-59,-63,-39,-26
-29,39,68,-6,-49,53,39,-61,-61,-66,-39,-24
-13,40,53,-14,-33,46,14,-64,-58,-70,-45,-29
-19,26,45,-3,-32,35,-13,-69,-73,-74,-48,-30
-11,15,26,-2,-19,21,-16,-74,-93,-74,-52,-29
-10,-11,-2,11,-4,-6,-14,-77,-98,-77,-57,-31
8,-30,-38,11,23,-34,-11,-71,-94,-71,-52,-27
8,-51,-59,22,34,-55,-10,-80,-109,-83,-60,-36
-56,-86,-30,71,-12,-58,-7,-69,-102,-91,-64,-48
-71,-102,-31,87,-20,-66,0,-80,-124,-109,-91,-67
-64,-92,-28,78,-18,-60,5,-61,-110,-92,-87,-67
-69,-106,-37,88,-16,-72,10,-68,-124,-114,-104,-74
-55,-88,-33,72,-10,-60,18,-57,-107,-99,-89,-60
-78,-108,-30,93,-24,-69,18,-51,-96,-93,-94,-54
-97,-109,-12,103,-42,-61,41,-31,-90,-83,-105,-60
-7,-7,0,7,-4,-3,174,462,471,266,97,18
294,293,-2,-293,148,145,78,490,855,966,789,467
806,913,106,-860,350,509,-582,-408,479,1680,1869,1322
745,740,-5,-742,375,367,-1045,-1344,-691,637,1246,1114
151,148,-3,-150,77,72,-845,-1487,-1429,-757,-141,222
-43,102,145,-30,-94,123,-459,-736,-750,-458,-202,5
-68,-30,38,48,-53,4,-132,-211,-260,-215,-167,-99
-105,-109,-4,107,-50,-56,17,-45,-136,-165,-174,-124
-71,-99,-28,85,-21,-63,57,38,-40,-102,-138,-113
-81,-112,-32,97,-24,-72,91,48,-37,-123,-157,-138
-83,-98,-15,91,-34,-56,93,95,14,-73,-120,-112
-86,-110,-24,98,-30,-67,101,96,10,-89,-136,-119
-99,-104,-6,102,-46,-55,103,112,45,-55,-109,-100
-98,-117,-19,107,-39,-67,105,126,64,-48,-109,-100
-71,-100,-29,86,-21,-64,105,140,93,-19,-91,-88
-59,-90,-31,74,-14,-60,105,161,124,8,-79,-81
-58,-84,-26,71,-16,-54,105,186,149,22,-66,-74
-49,-71,-22,60,-13,-46,105,214,187,45,-47,-65
-37,-60,-23,48,-7,-41,105,237,232,83,-22,-55
-29,-43,-15,36,-7,-29,98,280,285,122,11,-34
8,-30,-38,11,24,-34,91,325,339,157,30,-21
44,2,-42,-22,43,-20,84,373,408,215,66,9
65,36,-28,-50,46,4,76,429,480,262,101,36
102,80,-22,-90,62,28,70,476,549,316,135,60
129,130,0,-130,64,65,61,491,598,373,184,101
146,152,6,-149,69,79,47,482,599,383,199,127
139,175,36,-158,52,105,33,472,595,384,192,131
123,177,54,-150,34,115,25,435,556,353,191,123
112,158,47,-135,32,102,20,360,462,279,167,112
98,145,46,-122,26,95,15,269,353,214,126,93
64,104,41,-84,12,72,11,179,232,140,78,64
28,67,39,-47,-6,53,6,103,133,73,36,36
6,36,30,-21,-12,33,7,46,56,26,6,6
-29,-8,21,18,-25,6,15,6,-8,-16,-19,-17
-42,-29,13,35,-27,-8,20,-17,-50,-46,-40,-27
-47,-45,2,46,-25,-21,28,-32,-79,-76,-59,-43
-58,-62,-3,61,-28,-32,34,-38,-86,-85,-66,-52
-53,-60,-7,57,-23,-33,30,-33,-80,-76,-62,-49
-50,-59,-10,54,-20,-35,30,-32,-78,-73,-60,-50
-47,-61,-14,54,-17,-37,29,-28,-73,-66,-56,-50
-45,-59,-14,52,-16,-36,24,-26,-70,-61,-55,-50
-46,-56,-10,50,-18,-33,26,-24,-67,-56,-52,-47
-32,-40,-8,37,-12,-24,22,-20,-61,-52,-47,-42
-24,-29,-5,27,-10,-16,19,-21,-57,-49,-45,-39
-60,-62,-2,61,-29,-32,20,-18,-52,-46,-40,-36
-64,-63,0,63,-32,-31,16,-15,-48,-42,-37,-31
-41,-38,3,39,-22,-17,15,-15,-43,-38,-33,-31
-42,-37,6,39,-24,-15,15,-19,-41,-35,-31,-37
-27,-18,10,23,-18,-4,15,-28,-38,-29,-28,-41
-38,-29,9,33,-23,-10,15,-34,-49,-40,-39,-44
-66,-65,1,66,-34,-32,15,-42,-69,-52,-55,-49
-54,-61,-8,58,-23,-34,15,-45,-70,-49,-57,-50
-43,-54,-10,49,-16,-32,15,-45,-71,-51,-59,-51
-38,-48,-10,43,-14,-29,18,-50,-79,-68,-63,-54
-31,-39,-9,35,-11,-24,20,-50,-85,-75,-65,-56
-52,-57,-5,55,-23,-31,20,-53,-84,-74,-68,-53
-62,-67,-5,65,-28,-36,20,-58,-96,-91,-70,-50
-60,-65,-5,63,-27,-35,20,-62,-107,-96,-74,-50
-58,-63,-5,61,-26,-34,20,-65,-104,-94,-76,-50
-55,-59,-4,58,-26,-31,20,-65,-108,-95,-80,-50
-49,-60,-12,55,-18,-36,20,-65,-110,-95,-80,-49
-34,-57,-23,45,-5,-39,20,-65,-110,-95,-75,-54
-34,-54,-20,44,-7,-37,20,-65,-110,-90,-75,-61
-36,-55,-20,46,-8,-37,20,-61,-110,-90,-74,-60
-34,-55,-21,44,-6,-37,22,-59,-110,-90,-70,-59
-36,-55,-19,45,-8,-36,26,-60,-110,-90,-70,-55
-35,-56,-21,46,-7,-38,25,-60,-110,-89,-70,-55
-45,-60,-15,53,-15,-38,25,-61,-109,-96,-70,-55
-54,-68,-14,61,-20,-40,25,-58,-105,-101,-70,-55
-57,-65,-9,61,-24,-37,25,-55,-105,-99,-70,-55
-78,-75,3,76,-40,-36,25,-55,-103,-101,-70,-55
-66,-69,-3,68,-31,-36,24,-55,-99,-100,-70,-55
-23,-43,-20,33,-1,-31,26,-55,-101,-101,-64,-55
-17,-29,-12,23,-2,-20,24,-55,-93,-93,-55,-48
-17,10,28,3,-23,19,32,-51,-77,-73,-48,-38
-13,40,53,-14,-33,46,40,-43,-67,-69,-38,-27
-27,40,67,-7,-47,53,41,-41,-70,-71,-37,-23
-35,39,74,-2,-55,56,33,-37,-70,-69,-41,-26
-37,44,81,-3,-59,62,-3,-54,-69,-72,-46,-31
-47,17,64,15,-56,40,-27,-73,-86,-67,-48,-34
-35,-32,3,33,-18,-15,-32,-77,-110,-82,-53,-36
-4,-36,-32,20,14,-33,-24,-73,-102,-85,-55,-38
2,-40,-42,19,22,-41,-16,-77,-105,-84,-58,-39
-21,-60,-39,41,9,-49,-8,-75,-119,-107,-76,-53
-54,-94,-40,74,-7,-67,3,-73,-128,-126,-96,-72
-55,-105,-51,80,-2,-78,12,-80,-137,-129,-100,-74
-47,-101,-54,74,4,-77,22,-66,-117,-116,-94,-71
-59,-117,-59,88,0,-87,27,-89,-149,-140,-114,-86
-50,-99,-49,75,-1,-73,34,-55,-103,-103,-92,-70
-62,-126,-64,94,1,-94,28,-88,-153,-150,-109,-90
-40,-72,-32,56,-4,-52,111,218,159,36,-20,-51
121,106,-15,-113,67,45,196,608,778,608,389,193
570,652,83,-611,243,367,-256,-11,682,1435,1453,971
886,983,97,-934,394,540,-958,-1020,-117,1408,1880,1448
460,398,-62,-429,261,168,-1031,-1554,-1210,-162,523,670
14,90,76,-52,-31,83,-669,-1156,-1179,-703,-246,72
-45,59,104,-7,-75,81,-288,-411,-432,-275,-135,-31
-101,-107,-6,104,-47,-57,-35,-121,-216,-236,-197,-143
-110,-105,5,107,-57,-50,40,6,-85,-141,-149,-115
-84,-126,-41,105,-21,-83,83,46,-45,-141,-167,-131
-85,-128,-42,107,-21,-85,86,67,-16,-115,-145,-123
-80,-119,-39,100,-20,-79,94,90,12,-106,-136,-125
-72,-106,-34,89,-18,-70,108,100,21,-97,-135,-127
-71,-98,-27,85,-22,-62,107,116,48,-71,-121,-121
-77,-100,-23,89,-27,-61,116,130,57,-74,-125,-116
-70,-93,-23,82,-23,-57,112,154,91,-41,-104,-98
-58,-92,-34,75,-12,-63,110,171,118,-16,-90,-90
-63,-90,-27,77,-18,-59,110,196,161,24,-66,-75
-47,-73,-26,60,-10,-49,106,227,202,54,-48,-65
-9,-30,-22,20,7,-26,105,266,243,74,-25,-50
4,-13,-17,5,11,-15,105,301,294,114,2,-36
7,-8,-15,1,11,-11,98,353,357,163,32,-19
29,20,-9,-24,19,5,90,406,426,208,62,4
61,58,-4,-59,32,27,85,458,501,261,95,35
102,104,2,-103,50,53,76,503,567,317,140,68
135,143,9,-139,63,76,61,501,600,348,177,104
144,166,22,-155,60,94,43,489,602,336,178,124
137,175,38,-156,49,106,35,470,564,318,172,115
117,166,49,-141,34,107,30,410,499,286,155,105
106,153,47,-130,29,100,25,320,400,227,117,93
83,122,39,-103,22,80,22,222,276,164,81,70
46,78,32,-62,6,55,16,135,168,99,39,49
20,44,24,-32,-2,34,17,67,75,34,3,20
-6,11,17,-3,-12,14,22,19,1,-18,-27,-17
-29,-18,11,23,-20,-3,25,-19,-43,-48,-42,-35
-44,-37,6,40,-25,-15,30,-47,-79,-72,-60,-47
-43,-42,1,43,-22,-20,30,-52,-97,-90,-77,-59
-45,-47,-2,47,-21,-24,31,-48,-91,-93,-74,-56
-55,-63,-8,59,-23,-35,35,-46,-89,-89,-75,-55
-51,-60,-9,56,-21,-35,34,-42,-84,-83,-75,-55
-47,-52,-4,50,-21,-28,38,-40,-81,-80,-75,-50
-41,-46,-6,44,-17,-26,40,-38,-78,-75,-73,-50
-36,-39,-2,38,-17,-20,40,-35,-71,-71,-69,-49
-35,-34,0,34,-17,-16,40,-32,-66,-66,-67,-45
-31,-31,0,31,-15,-16,40,-29,-61,-60,-64,-45
-31,-27,4,29,-17,-12,40,-26,-55,-55,-61,-45
-30,-24,6,26,-17,-9,34,-25,-51,-50,-59,-45
-24,-20,4,21,-14,-7,29,-30,-55,-43,-56,-45
-26,-20,6,22,-16,-6,24,-31,-56,-41,-55,-45
-43,-39,4,40,-23,-17,18,-29,-61,-50,-55,-45
-55,-47,7,51,-30,-20,12,-34,-57,-59,-55,-45
-60,-44,17,52,-38,-13,12,-46,-57,-62,-55,-45
-61,-46,15,53,-38,-15,22,-53,-81,-66,-57,-45
-60,-45,15,52,-37,-15,21,-58,-90,-72,-61,-46
-57,-44,13,50,-35,-16,19,-60,-91,-79,-60,-52
-51,-42,9,46,-30,-16,20,-63,-97,-85,-65,-59
-44,-34,10,39,-27,-12,19,-66,-99,-94,-80,-60
-53,-46,7,49,-29,-20,21,-69,-104,-95,-86,-60
-64,-61,2,62,-33,-29,17,-70,-106,-95,-84,-60
-61,-62,-1,62,-30,-31,15,-70,-110,-95,-85,-60
-61,-66,-4,64,-28,-35,15,-70,-114,-94,-85,-60
-59,-68,-9,64,-25,-39,15,-70,-115,-107,-85,-61
-62,-71,-9,66,-26,-40,15,-70,-115,-111,-85,-65
-61,-66,-5,64,-28,-35,15,-70,-115,-106,-85,-65
-62,-65,-3,64,-29,-33,15,-68,-115,-104,-85,-65
-65,-65,0,65,-32,-32,15,-64,-114,-101,-85,-65
-64,-60,4,62,-34,-27,15,-65,-109,-99,-85,-65
-65,-61,4,62,-34,-28,15,-65,-106,-96,-83,-62
-66,-57,9,61,-38,-24,14,-65,-103,-95,-78,-57
-73,-66,8,70,-40,-29,18,-65,-98,-95,-75,-55
-85,-68,18,76,-51,-25,32,-60,-95,-89,-72,-51
-86,-51,35,68,-60,-8,40,-53,-89,-91,-67,-47
-67,-32,35,49,-50,2,42,-48,-75,-86,-66,-44
-28,10,38,8,-33,24,45,-41,-66,-67,-53,-38
-4,49,53,-23,-29,51,51,-42,-70,-64,-37,-32
-20,54,74,-17,-47,63,45,-47,-72,-64,-34,-27
-12,42,54,-15,-33,47,19,-50,-77,-69,-36,-22
-8,40,48,-16,-29,44,-10,-63,-80,-70,-31,-15
0,19,20,-9,-10,19,-16,-75,-84,-67,-30,-26
17,-17,-34,0,26,-25,-8,-76,-86,-65,-31,-38
5,-36,-41,15,23,-38,-4,-72,-77,-57,-28,-31
-8,-63,-55,36,24,-58,3,-79,-107,-91,-56,-41
-30,-81,-51,56,11,-66,8,-70,-109,-100,-77,-58
-48,-95,-47,72,0,-71,12,-81,-121,-113,-93,-71
-53,-94,-41,74,-5,-67,18,-63,-110,-96,-81,-59
-73,-112,-39,93,-17,-75,20,-68,-124,-113,-98,-75
-71,-103,-32,87,-20,-67,29,-56,-120,-100,-84,-66
-74,-120,-45,97,-14,-82,26,-51,-112,-104,-91,-69
-71,-117,-47,94,-12,-82,48,-21,-84,-100,-83,-76
0,-26,-25,13,13,-25,172,474,445,230,94,11
281,245,-36,-263,159,104,78,526,831,877,725,428
844,830,-15,-837,429,407,-571,-419,417,1487,1747,1252
809,668,-141,-738,474,263,-1054,-1464,-839,425,1090,1027
187,103,-84,-145,136,9,-857,-1599,-1533,-854,-224,161
-44,72,116,-14,-80,94,-466,-791,-795,-493,-225,-7
-65,-25,40,45,-52,8,-140,-232,-276,-230,-181,-91
-91,-100,-9,95,-40,-54,7,-63,-144,-169,-159,-114
-77,-105,-28,91,-25,-66,51,16,-52,-104,-123,-97
-81,-115,-34,98,-23,-75,91,48,-34,-120,-147,-112
-73,-99,-25,86,-23,-61,90,95,21,-67,-112,-91
-77,-108,-31,93,-23,-69,97,97,21,-76,-133,-103
-75,-96,-21,86,-27,-58,94,117,50,-44,-104,-90
-73,-100,-28,87,-22,-64,95,131,68,-41,-100,-94
-72,-90,-18,81,-27,-54,95,150,103,-18,-80,-78
-64,-86,-22,75,-21,-53,94,166,120,-3,-71,-70
-63,-81,-18,72,-23,-49,92,187,144,17,-58,-60
-47,-62,-16,55,-15,-39,89,213,185,49,-38,-44
-31,-44,-13,38,-9,-28,91,243,222,77,-17,-33
-8,-31,-24,20,8,-27,89,279,273,112,13,-17
22,-24,-46,1,34,-34,91,320,328,149,32,2
32,3,-28,-17,30,-12,88,380,396,204,69,21
69,52,-17,-60,43,17,75,435,472,262,107,48
100,92,-8,-96,54,42,58,484,540,308,141,70
125,121,-3,-122,64,59,43,511,581,344,182,96
160,153,-7,-156,83,72,28,514,599,365,201,132
144,174,30,-159,57,102,15,496,584,355,197,133
127,174,47,-151,39,111,9,437,526,318,177,118
134,170,36,-152,49,103,11,365,441,269,147,109
111,143,32,-127,39,87,7,277,340,203,110,93
75,99,24,-87,25,61,5,182,225,130,71,65
49,67,18,-58,15,42,5,103,134,77,44,38
17,29,12,-24,2,20,9,41,55,29,13,15
-13,-3,10,8,-11,3,15,1,-8,-15,-20,-8
-22,-15,7,18,-14,-4,20,-30,-47,-49,-47,-34
-30,-26,4,27,-17,-11,25,-47,-74,-72,-66,-52
-40,-39,1,39,-20,-19,32,-44,-76,-75,-66,-50
-42,-43,-1,42,-20,-22,34,-42,-75,-77,-63,-50
-58,-56,1,57,-29,-27,30,-39,-73,-75,-61,-46
-63,-65,-2,64,-30,-33,30,-36,-69,-68,-57,-44
-66,-56,10,61,-38,-23,28,-34,-71,-64,-55,-45
-74,-52,22,63,-48,-15,24,-30,-66,-56,-52,-40
-62,-46,16,53,-38,-15,25,-25,-62,-55,-49,-37
-59,-45,14,52,-36,-15,25,-21,-56,-55,-45,-33
-54,-45,9,49,-31,-17,25,-17,-53,-55,-42,-30
-46,-40,5,43,-26,-17,25,-11,-47,-56,-37,-25
-47,-40,7,43,-27,-16,25,-13,-46,-54,-35,-27
-52,-41,11,47,-31,-15,25,-21,-52,-57,-40,-31
-58,-45,13,51,-35,-16,24,-29,-48,-42,-39,-33
-61,-45,16,53,-38,-14,20,-35,-59,-46,-44,-37
-64,-45,19,55,-41,-12,20,-35,-64,-64,-45,-38
-64,-45,19,55,-41,-12,20,-37,-67,-65,-51,-42
-69,-52,17,60,-43,-17,20,-42,-77,-74,-63,-38
-67,-56,10,61,-38,-23,20,-45,-82,-72,-62,-45
-57,-40,17,49,-37,-11,19,-56,-89,-61,-52,-51
-44,-66,-23,55,-10,-44,30,-61,-86,-63,-52,-43
-43,-83,-39,63,-2,-61,37,-59,-104,-90,-81,-60
-45,-51,-5,48,-20,-28,32,-60,-113,-98,-87,-68
-51,-58,-7,55,-22,-32,30,-60,-107,-93,-83,-63
-74,-74,0,74,-37,-37,26,-66,-107,-97,-86,-62
-75,-71,4,73,-40,-33,25,-68,-104,-94,-84,-59
-75,-66,8,70,-41,-29,25,-64,-106,-96,-86,-61
-74,-62,11,68,-42,-25,25,-65,-105,-95,-85,-60
-67,-58,9,62,-37,-24,25,-65,-105,-95,-85,-60
-64,-53,11,59,-37,-21,25,-65,-105,-104,-85,-60
-58,-49,9,54,-34,-20,25,-65,-105,-105,-85,-60
-54,-43,11,48,-32,-16,25,-61,-106,-98,-85,-60
-50,-40,9,45,-29,-15,32,-57,-100,-95,-81,-63
-51,-34,16,42,-33,-9,35,-54,-92,-90,-74,-72
-54,-32,22,43,-38,-5,41,-49,-84,-86,-68,-74
-46,-16,30,31,-38,7,43,-46,-76,-79,-61,-50
-35,15,50,9,-43,33,48,-41,-68,-61,-56,-30
-33,23,56,4,-45,39,71,-40,-66,-53,-60,-31
-22,32,54,-6,-38,43,65,-39,-62,-55,-60,-29
-28,27,55,0,-42,41,32,-41,-59,-62,-60,-26
-29,26,55,1,-42,41,-4,-56,-73,-63,-60,-24
-7,19,25,-6,-16,22,-17,-70,-97,-71,-59,-26
7,-22,-29,7,19,-25,-6,-77,-108,-78,-65,-31
22,-38,-60,9,41,-49,-2,-71,-100,-69,-62,-27
-3,-60,-57,32,28,-59,6,-83,-116,-95,-72,-44
-25,-72,-47,49,11,-59,13,-74,-112,-96,-86,-66
-49,-94,-46,72,-2,-70,17,-87,-132,-125,-103,-78
-77,-109,-32,93,-22,-70,22,-73,-116,-122,-86,-64
-91,-125,-33,108,-29,-79,24,-85,-133,-137,-103,-75
-91,-113,-22,102,-34,-67,31,-79,-121,-117,-90,-66
-93,-131,-38,112,-27,-85,27,-72,-123,-122,-95,-70
-91,-117,-26,105,-32,-71,44,-25,-100,-116,-96,-77
-7,-23,-16,15,5,-19,194,511,484,248,95,11
292,282,-11,-287,151,135,87,494,855,956,785,468
844,910,66,-878,389,488,-627,-481,443,1616,1823,1304
784,699,-85,-742,434,307,-1095,-1400,-732,556,1175,1066
178,133,-45,-156,112,44,-860,-1476,-1395,-717,-126,214
-17,109,126,-46,-72,117,-455,-706,-713,-407,-178,13
-73,-40,33,56,-53,-4,-123,-201,-274,-232,-178,-102
-106,-112,-6,109,-50,-58,18,-54,-160,-186,-180,-124
-81,-121,-39,101,-21,-80,49,26,-67,-118,-150,-124
-100,-144,-44,122,-28,-93,85,45,-57,-139,-167,-148
-94,-127,-33,111,-30,-80,95,83,0,-98,-133,-122
-98,-138,-39,119,-29,-88,108,85,5,-111,-147,-131
-91,-119,-28,105,-32,-73,109,108,33,-76,-121,-113
-89,-121,-32,105,-28,-77,110,121,43,-77,-122,-113
-62,-94,-32,78,-15,-62,110,139,78,-51,-95,-98
-35,-74,-40,55,3,-57,110,164,103,-38,-80,-90
-26,-68,-42,47,8,-55,110,186,132,-14,-68,-81
-13,-57,-44,36,16,-50,110,215,178,39,-52,-69
-14,-53,-38,33,12,-45,109,245,208,52,-41,-65
-7,-41,-35,25,14,-38,102,281,251,81,-14,-47
5,-24,-30,10,18,-27,96,325,305,114,12,-23
35,9,-26,-21,30,-9,89,381,382,168,50,6
70,52,-18,-60,43,17,83,439,464,233,86,26
93,90,-3,-91,48,43,72,487,531,279,126,61
118,128,10,-123,54,69,55,512,580,330,169,100
133,160,27,-147,53,94,38,505,589,338,167,109
144,180,36,-163,54,108,26,478,564,334,156,123
139,182,43,-161,48,112,23,425,509,302,150,124
117,160,42,-139,37,101,19,344,423,246,133,100
92,125,33,-109,29,79,16,251,305,182,102,78
63,91,28,-78,17,59,11,163,193,103,55,53
53,74,20,-64,16,47,11,90,97,52,10,27
19,34,15,-27,2,24,18,32,25,6,-21,-7
-17,-7,10,12,-14,2,22,-8,-27,-38,-33,-29
-23,-16,6,19,-14,-5,28,-34,-80,-77,-60,-37
-47,-43,4,44,-25,-19,34,-48,-102,-99,-79,-51
-57,-58,-1,57,-28,-29,39,-53,-101,-98,-74,-57
-49,-53,-4,52,-22,-29,37,-47,-97,-94,-71,-55
-49,-56,-7,53,-20,-31,35,-43,-93,-89,-67,-55
-40,-54,-14,47,-12,-34,35,-39,-90,-84,-63,-52
-36,-55,-20,46,-8,-37,30,-34,-86,-80,-60,-49
-36,-52,-15,44,-11,-33,30,-30,-83,-75,-57,-50
-32,-47,-15,40,-8,-31,29,-25,-76,-70,-53,-46
-31,-45,-14,38,-8,-29,25,-25,-72,-67,-49,-45
-31,-40,-10,35,-10,-25,25,-24,-66,-60,-46,-45
-27,-37,-10,32,-8,-23,25,-20,-60,-63,-41,-41
-25,-33,-8,29,-8,-20,25,-20,-55,-65,-41,-39
-27,-31,-3,29,-12,-17,25,-23,-61,-66,-46,-42
-30,-30,0,30,-15,-15,21,-33,-74,-70,-49,-45
-33,-30,3,32,-18,-13,20,-41,-79,-70,-54,-46
-38,-30,8,34,-23,-11,20,-47,-86,-75,-61,-49
-39,-30,10,35,-25,-10,15,-53,-91,-78,-67,-50
-40,-35,4,37,-22,-15,15,-56,-97,-83,-70,-53
-38,-39,-2,38,-18,-20,15,-61,-104,-85,-70,-56
-48,-56,-7,52,-20,-31,15,-64,-108,-81,-73,-54
-57,-67,-11,62,-23,-39,15,-65,-112,-79,-77,-55
-54,-64,-10,59,-22,-36,15,-65,-117,-86,-80,-54
-53,-63,-10,58,-21,-36,15,-65,-120,-96,-84,-56
-49,-59,-10,54,-19,-35,15,-65,-120,-95,-85,-60
-51,-60,-9,55,-21,-34,19,-65,-120,-95,-85,-60
-49,-60,-12,54,-18,-36,21,-65,-120,-95,-85,-60
-63,-60,4,61,-34,-28,20,-65,-120,-95,-85,-60
-73,-60,13,67,-43,-24,20,-70,-117,-95,-85,-60
-53,-60,-7,56,-23,-33,19,-70,-114,-95,-85,-64
-48,-60,-12,54,-18,-36,21,-71,-116,-95,-81,-65
-51,-59,-9,55,-21,-34,25,-75,-115,-95,-80,-65
-40,-52,-12,46,-14,-31,25,-76,-116,-96,-78,-65
-44,-48,-4,46,-20,-26,26,-72,-114,-95,-76,-66
-56,-30,26,43,-40,-2,25,-63,-98,-87,-74,-63
-30,10,40,10,-35,24,30,-51,-82,-67,-52,-42
-4,48,52,-22,-28,49,49,-43,-70,-45,-43,-33
-15,61,76,-23,-46,69,58,-45,-64,-36,-47,-35
-21,50,71,-14,-47,60,24,-53,-64,-46,-49,-35
-24,40,64,-8,-44,52,-16,-71,-74,-45,-54,-40
-16,30,46,-7,-31,38,-20,-81,-95,-59,-53,-39
5,2,-3,-4,4,0,-14,-83,-108,-82,-52,-42
3,-33,-37,15,20,-35,-8,-76,-103,-68,-46,-44
-18,-66,-47,43,15,-56,-1,-85,-119,-97,-65,-51
-52,-94,-42,74,-5,-68,5,-75,-111,-99,-78,-55
-69,-128,-60,99,-4,-94,13,-84,-133,-121,-104,-78
-62,-121,-59,91,-1,-90,18,-77,-129,-118,-96,-72
-70,-127,-57,99,-6,-92,24,-69,-127,-119,-106,-76
-70,-126,-56,98,-7,-91,30,-79,-141,-127,-109,-77
-74,-120,-46,97,-13,-83,36,-45,-109,-104,-100,-69
-75,-132,-58,104,-8,-95,42,-74,-160,-145,-130,-98
-27,-53,-26,40,0,-39,162,369,319,149,43,-21
196,164,-32,-179,114,66,173,600,838,755,552,302
743,813,70,-778,337,441,-426,-210,644,1583,1666,1150
863,877,14,-870,424,446,-1028,-1206,-366,1006,1535,1269
302,229,-73,-266,188,78,-933,-1534,-1341,-554,92,385
-21,97,118,-38,-70,107,-540,-888,-888,-532,-203,35
-59,6,64,26,-61,35,-184,-273,-305,-221,-138,-63
-83,-98,-15,91,-34,-56,0,-87,-178,-212,-184,-127
-77,-100,-23,89,-27,-61,49,17,-56,-111,-131,-106
-80,-132,-52,106,-14,-92,91,36,-48,-132,-164,-130
-75,-105,-30,90,-22,-67,99,82,1,-83,-126,-104
-75,-117,-41,97,-17,-79,107,89,8,-97,-139,-113
-73,-102,-29,88,-22,-65,111,94,32,-77,-115,-98
-71,-102,-32,86,-19,-67,109,112,50,-68,-112,-97
-67,-94,-27,81,-20,-61,111,136,77,-43,-98,-91
-62,-86,-24,75,-19,-55,109,156,114,-5,-78,-84
-57,-83,-26,70,-15,-54,111,176,139,12,-69,-81
-48,-72,-24,60,-12,-47,107,204,173,32,-54,-72
-38,-64,-26,52,-6,-45,101,226,203,49,-40,-60
-17,-41,-24,30,4,-32,96,263,253,86,-10,-41
5,-13,-19,4,12,-15,91,301,308,124,13,-22
25,15,-10,-20,17,3,85,354,376,174,47,7
42,40,-2,-41,22,19,81,418,457,232,90,35
68,73,5,-71,31,39,68,465,525,277,126,61
101,117,16,-109,42,66,48,487,575,322,160,88
118,156,38,-137,40,97,27,485,588,341,187,115
135,187,52,-161,41,119,9,461,569,325,186,122
131,186,55,-159,38,120,-6,414,524,310,176,109
109,168,58,-139,25,113,-13,341,444,262,152,101
91,145,54,-119,19,99,-10,249,331,192,108,89
66,107,41,-87,12,74,-7,159,211,121,62,56
41,71,30,-56,5,50,-4,83,114,55,23,23
8,37,29,-22,-11,33,-1,25,35,10,-3,2
-19,8,27,5,-23,17,1,-14,-22,-34,-28,-16
-42,-23,18,32,-30,-2,4,-38,-58,-67,-47,-33
-58,-45,13,51,-35,-15,7,-55,-83,-80,-61,-44
-53,-48,5,50,-29,-21,10,-63,-96,-90,-72,-51
-54,-53,0,53,-27,-26,12,-59,-95,-91,-70,-55
-60,-54,6,57,-32,-24,16,-56,-88,-84,-70,-55
-60,-49,11,54,-35,-19,12,-53,-84,-81,-68,-55
-61,-43,18,52,-39,-13,10,-48,-78,-76,-64,-55
-58,-40,18,48,-38,-11,10,-45,-72,-72,-66,-55
-49,-35,14,42,-31,-10,10,-41,-68,-67,-61,-52
-46,-30,15,37,-30,-7,10,-40,-63,-61,-58,-49
-45,-33,11,39,-28,-11,10,-40,-60,-56,-54,-50
-45,-36,10,40,-27,-13,15,-36,-57,-51,-51,-50
-45,-35,10,40,-27,-12,15,-35,-53,-45,-46,-50
-45,-35,10,40,-27,-12,16,-36,-50,-40,-46,-50
-45,-35,10,40,-27,-12,20,-42,-58,-47,-59,-50
-45,-35,10,40,-27,-12,20,-49,-67,-58,-60,-50
-45,-36,10,40,-27,-12,20,-56,-74,-65,-60,-50
-41,-31,10,36,-26,-10,20,-62,-86,-66,-60,-50
-39,-32,8,35,-23,-12,20,-65,-91,-67,-60,-50
-44,-43,1,44,-22,-20,20,-65,-89,-63,-59,-53
-43,-47,-4,45,-19,-25,20,-65,-94,-70,-65,-57
-41,-50,-9,45,-16,-29,21,-69,-108,-100,-86,-59
-38,-54,-16,46,-11,-35,24,-70,-115,-106,-91,-63
-38,-57,-19,48,-9,-38,25,-72,-114,-98,-89,-65
-46,-62,-16,55,-15,-39,25,-75,-116,-98,-87,-65
-50,-64,-14,58,-17,-39,25,-76,-120,-91,-84,-65
-52,-68,-15,60,-18,-41,25,-80,-120,-90,-86,-65
-55,-70,-15,63,-20,-42,25,-80,-118,-102,-89,-65
-58,-74,-15,66,-21,-44,25,-80,-114,-106,-90,-65
-63,-76,-13,69,-24,-44,25,-80,-115,-104,-90,-64
-65,-70,-5,68,-30,-37,25,-80,-112,-106,-90,-59
-60,-60,0,60,-30,-30,25,-76,-110,-105,-91,-54
-59,-50,9,54,-33,-20,26,-66,-111,-106,-89,-50
-52,-40,12,46,-32,-13,29,-59,-97,-93,-76,-45
-33,-5,29,19,-31,12,38,-50,-86,-76,-60,-40
-19,25,44,-3,-32,34,56,-46,-91,-75,-55,-37
-7,29,36,-11,-22,32,52,-51,-92,-74,-54,-34
-2,24,26,-11,-15,25,23,-53,-96,-75,-55,-35
3,21,18,-13,-8,20,13,-67,-100,-75,-55,-35
2,9,7,-6,-2,8,11,-83,-98,-73,-54,-34
6,-24,-30,9,18,-27,7,-88,-104,-78,-56,-36
29,-31,-61,1,45,-46,4,-81,-94,-69,-45,-26
3,-60,-63,29,33,-61,0,-90,-117,-91,-65,-45
-33,-89,-55,61,11,-72,4,-80,-121,-105,-89,-71
-44,-101,-57,73,6,-79,10,-90,-135,-130,-114,-85
-66,-113,-48,90,-9,-80,15,-78,-122,-119,-104,-79
-80,-129,-49,104,-15,-89,20,-79,-121,-128,-113,-89
-74,-116,-42,95,-16,-78,28,-86,-120,-127,-111,-89
-77,-112,-36,95,-20,-74,29,-65,-94,-115,-103,-85
-84,-117,-32,101,-26,-74,50,-66,-126,-139,-121,-96
-26,-41,-15,34,-6,-28,167,401,353,163,40,-18
227,204,-22,-215,124,91,138,540,793,770,581,331
775,841,67,-808,354,453,-480,-322,527,1551,1682,1178
850,804,-46,-827,448,379,-1060,-1311,-534,834,1398,1188
289,196,-92,-243,190,52,-921,-1572,-1406,-650,-14,300
0,114,113,-57,-57,113,-519,-867,-870,-524,-209,10
-57,-4,53,30,-55,24,-167,-262,-303,-231,-148,-83
-86,-105,-19,96,-33,-62,6,-86,-173,-209,-179,-138
-81,-110,-29,96,-26,-69,53,20,-60,-124,-129,-113
-87,-129,-42,109,-23,-85,91,44,-51,-137,-160,-136
-77,-106,-29,92,-24,-68,93,79,-10,-87,-122,-116
-80,-119,-40,100,-20,-79,112,94,1,-103,-139,-131
-73,-105,-32,90,-21,-68,109,106,29,-77,-121,-120
-74,-110,-37,93,-19,-73,111,119,48,-72,-123,-117
-66,-96,-30,81,-18,-63,116,141,75,-43,-104,-105
-62,-90,-28,76,-17,-59,114,160,107,-16,-81,-94
-55,-80,-26,68,-14,-53,114,189,137,2,-65,-86
-54,-75,-22,65,-16,-48,108,218,171,35,-50,-74
-49,-69,-21,59,-13,-45,108,239,209,56,-35,-63
-18,-35,-17,26,0,-26,104,277,257,93,-8,-50
-2,-13,-12,8,5,-12,101,320,311,130,12,-34
14,8,-6,-10,10,1,100,380,383,177,49,-11
28,27,-1,-28,15,13,89,439,454,233,84,14
69,75,6,-72,31,40,75,493,528,288,122,51
110,119,9,-115,50,64,60,524,586,336,165,90
127,145,18,-136,54,81,37,521,584,344,186,110
147,174,27,-161,60,100,24,505,569,332,183,109
138,176,37,-157,50,106,19,459,540,318,178,101
124,173,48,-149,37,110,13,383,456,271,156,98
99,142,43,-120,27,92,8,283,338,199,104,83
64,100,35,-83,14,67,2,182,220,124,59,52
40,68,28,-54,6,48,2,107,120,63,23,25
10,30,20,-21,-6,25,9,36,41,12,-8,-2
-20,-6,14,13,-17,4,14,-11,-15,-31,-32,-22
-50,-42,9,46,-29,-16,19,-32,-59,-61,-53,-38
-55,-51,4,53,-29,-23,25,-48,-83,-80,-64,-54
-49,-49,0,49,-24,-25,29,-53,-91,-88,-68,-56
-46,-50,-5,48,-20,-27,30,-51,-91,-83,-69,-55
-40,-50,-10,45,-15,-30,30,-45,-84,-80,-64,-55
-40,-47,-6,44,-17,-26,30,-41,-81,-77,-65,-55
-40,-45,-5,43,-17,-25,30,-36,-76,-72,-63,-55
-40,-45,-5,43,-17,-25,30,-32,-72,-69,-59,-51
-40,-40,-1,40,-20,-20,30,-27,-68,-66,-60,-50
-40,-39,1,40,-20,-19,30,-25,-63,-61,-56,-50
-40,-42,-2,41,-19,-22,30,-25,-58,-59,-55,-46
-40,-45,-5,43,-17,-25,30,-25,-54,-55,-55,-45
-40,-45,-5,43,-17,-25,30,-25,-49,-50,-55,-46
-40,-45,-5,43,-17,-25,30,-26,-45,-52,-55,-50
-40,-45,-5,43,-17,-25,30,-30,-52,-56,-56,-50
-40,-45,-5,43,-17,-25,30,-34,-63,-58,-60,-50
-47,-49,-2,48,-22,-25,30,-37,-69,-61,-62,-50
-51,-50,1,51,-26,-24,30,-44,-76,-65,-65,-50
-54,-50,4,52,-29,-22,30,-50,-82,-73,-68,-54
-56,-50,6,53,-31,-21,30,-55,-88,-83,-70,-55
-60,-50,10,55,-35,-20,30,-60,-94,-90,-73,-55
-58,-49,9,54,-33,-20,30,-63,-100,-90,-75,-55
-48,-43,5,45,-26,-19,30,-68,-105,-91,-75,-55
-59,-54,5,56,-32,-24,30,-70,-105,-95,-75,-54
-66,-61,5,63,-35,-28,29,-70,-105,-95,-75,-50
-65,-60,5,62,-35,-27,25,-70,-105,-95,-75,-50
-63,-59,4,61,-34,-27,25,-70,-105,-95,-75,-50
-63,-54,9,59,-36,-22,25,-70,-103,-95,-75,-50
-69,-56,13,62,-40,-22,25,-66,-96,-95,-75,-50
-70,-51,19,60,-44,-16,25,-62,-90,-95,-75,-46
-70,-49,21,59,-45,-14,28,-58,-82,-96,-77,-40
-44,-13,30,28,-37,8,34,-54,-76,-78,-67,-33
-40,13,53,13,-46,33,46,-49,-66,-60,-50,-26
-35,21,56,6,-46,39,55,-52,-61,-60,-49,-19
-3,50,53,-24,-28,51,48,-56,-59,-59,-52,-14
-11,39,50,-14,-31,45,26,-60,-62,-60,-55,-16
-22,28,50,-3,-36,39,-7,-69,-78,-60,-58,-12
-25,-4,21,14,-23,8,-16,-80,-88,-65,-60,-10
-14,-40,-25,27,5,-32,-13,-81,-93,-67,-64,-9
3,-38,-41,18,22,-39,-26,-77,-85,-61,-64,-16
-15,-56,-41,36,13,-48,-11,-84,-109,-84,-70,-39
-46,-81,-35,64,-5,-58,10,-74,-118,-99,-79,-64
-68,-104,-36,86,-15,-70,13,-87,-132,-118,-98,-81
-74,-102,-28,88,-22,-65,19,-68,-118,-107,-87,-69
-76,-109,-33,92,-21,-70,22,-80,-131,-124,-104,-81
-69,-101,-32,85,-18,-67,28,-63,-123,-107,-91,-69
-68,-108,-40,88,-13,-74,29,-71,-118,-120,-106,-80
-39,-77,-39,58,0,-58,56,-27,-78,-98,-81,-75
14,-13,-27,0,20,-20,176,492,473,264,112,21
337,281,-56,-309,196,113,22,450,831,958,844,513
923,827,-96,-875,510,365,-659,-581,269,1376,1741,1265
814,588,-226,-701,520,181,-1044,-1592,-1026,187,884,896
213,94,-119,-153,166,-12,-824,-1652,-1586,-901,-291,116
-14,88,102,-37,-58,94,-460,-812,-815,-508,-235,-16
-83,-27,56,55,-69,14,-122,-249,-299,-247,-200,-107
-106,-96,10,101,-58,-43,14,-71,-154,-170,-167,-117
-98,-114,-16,106,-41,-65,56,16,-61,-123,-142,-113
-108,-132,-24,121,-42,-78,101,43,-48,-124,-150,-119
-96,-107,-11,102,-42,-59,98,79,1,-81,-120,-101
-94,-107,-13,100,-40,-60,102,88,11,-84,-129,-108
-85,-89,-5,87,-40,-47,104,110,41,-52,-105,-92
-86,-87,-1,87,-42,-44,106,119,55,-46,-108,-95
-66,-75,-8,71,-29,-42,104,142,87,-23,-86,-83
-45,-68,-23,57,-11,-45,99,164,110,-9,-72,-76
-44,-58,-14,51,-15,-35,101,186,141,16,-56,-65
-36,-47,-11,42,-12,-29,97,221,184,44,-37,-54
-31,-38,-6,35,-12,-22,95,251,217,60,-19,-46
-22,-23,-1,23,-10,-12,95,290,270,98,4,-29
-17,-14,4,15,-10,-5,89,339,329,137,32,-6
-8,14,21,-3,-15,17,77,391,392,184,68,19
28,54,26,-42,1,40,66,449,465,242,105,50
68,92,24,-81,22,58,55,504,538,293,148,82
99,125,26,-113,37,75,41,530,574,335,180,111
143,162,19,-152,61,90,26,525,570,337,185,128
159,183,25,-171,67,104,16,500,561,324,173,123
129,172,43,-151,42,108,11,449,519,305,167,116
116,162,45,-139,35,103,6,368,429,246,150,113
95,140,45,-118,25,92,3,266,316,174,106,96
57,103,45,-81,6,74,-3,168,203,108,65,63
20,65,45,-43,-12,54,-4,85,106,48,25,32
-16,29,45,-7,-31,37,1,25,38,-2,-9,9
-31,6,37,12,-34,22,4,-11,-6,-31,-23,-5
-40,-10,29,25,-34,9,7,-38,-54,-54,-42,-20
-51,-31,20,41,-35,-5,12,-48,-82,-73,-57,-38
-62,-50,12,56,-37,-18,15,-45,-80,-81,-62,-42
-60,-51,9,55,-35,-21,19,-43,-77,-80,-61,-39
-56,-49,7,52,-32,-21,20,-40,-73,-73,-59,-40
-54,-50,4,52,-29,-23,20,-37,-70,-70,-60,-40
-51,-50,1,50,-26,-24,24,-35,-66,-65,-60,-40
-48,-48,0,48,-23,-24,26,-35,-62,-60,-60,-39
-26,-42,-16,34,-5,-29,23,-35,-60,-57,-57,-35
-18,-37,-19,28,1,-28,20,-35,-57,-54,-52,-35
-26,-34,-8,30,-9,-21,17,-35,-54,-51,-49,-35
-28,-28,-1,28,-13,-14,15,-35,-51,-48,-46,-35
-31,-25,6,28,-18,-10,11,-37,-50,-45,-41,-35
-29,-24,5,26,-16,-10,10,-40,-55,-46,-41,-38
-31,-26,5,28,-17,-10,13,-40,-60,-51,-46,-41
-29,-24,5,26,-17,-10,17,-40,-64,-53,-49,-44
-30,-25,5,27,-17,-10,20,-44,-68,-57,-54,-47
-51,-46,5,48,-28,-20,24,-51,-72,-59,-59,-49
-56,-52,5,54,-31,-23,24,-57,-75,-65,-62,-52
-54,-49,5,51,-30,-21,20,-60,-82,-75,-67,-54
-61,-56,5,58,-32,-25,20,-61,-90,-81,-70,-58
-59,-54,5,56,-32,-25,20,-64,-90,-80,-70,-60
-61,-57,5,59,-33,-26,20,-65,-89,-80,-70,-64
-65,-60,5,62,-35,-27,20,-68,-93,-83,-70,-65
-65,-60,5,62,-35,-27,16,-70,-95,-86,-70,-61
-67,-62,5,64,-36,-29,15,-70,-96,-89,-70,-60
-71,-65,5,68,-38,-30,14,-70,-100,-92,-70,-60
-69,-65,5,66,-36,-30,11,-70,-100,-95,-70,-60
-68,-62,6,64,-37,-28,9,-69,-94,-94,-70,-60
-65,-56,9,61,-37,-23,12,-63,-89,-86,-70,-59
-69,-53,16,60,-42,-18,19,-56,-83,-80,-69,-51
-65,-48,17,56,-41,-15,30,-49,-78,-73,-58,-43
-51,-24,28,38,-39,2,36,-42,-71,-63,-45,-35
-47,9,56,19,-52,32,48,-42,-52,-47,-39,-27
-34,34,67,0,-51,50,64,-47,-45,-38,-40,-29
-26,33,59,-4,-43,46,56,-42,-35,-39,-39,-30
-33,21,55,6,-44,38,23,-49,-42,-41,-41,-30
-26,22,47,2,-37,34,-11,-66,-69,-43,-38,-29
-3,-1,2,2,-2,0,-15,-73,-87,-56,-42,-30
19,-19,-38,1,29,-28,-9,-74,-90,-56,-45,-31
3,-43,-47,20,26,-45,-6,-75,-88,-62,-48,-36
-25,-66,-41,46,8,-53,0,-83,-104,-68,-65,-56
-43,-79,-36,61,-3,-57,3,-74,-108,-73,-82,-74
-66,-100,-34,84,-16,-67,8,-89,-128,-97,-91,-79
-65,-89,-24,77,-20,-56,11,-69,-108,-78,-75,-72
-88,-120,-31,105,-28,-75,14,-93,-137,-107,-98,-90
-92,-115,-24,104,-34,-69,19,-70,-109,-78,-69,-67
-81,-127,-46,104,-17,-87,21,-106,-142,-111,-101,-85
-78,-80,-2,79,-38,-41,75,34,-20,-38,-51,-60
17,4,-13,-11,15,-4,202,601,586,352,180,58
454,384,-70,-419,262,157,-42,356,837,1096,1010,627
991,859,-133,-925,561,363,-765,-798,127,1304,1690,1264
714,440,-275,-577,494,82,-1073,-1728,-1247,-155,533,677
144,76,-68,-110,106,4,-774,-1489,-1429,-838,-331,46
-20,79,99,-29,-60,88,-379,-583,-564,-312,-152,-7
-94,-74,20,84,-57,-27,-86,-195,-253,-229,-192,-122
-104,-91,13,97,-58,-38,16,-42,-116,-148,-138,-101
-106,-126,-20,116,-43,-72,61,31,-62,-127,-148,-123
-106,-124,-18,115,-44,-71,96,59,-31,-115,-130,-126
-86,-113,-26,100,-30,-69,100,101,19,-96,-109,-115
-83,-114,-31,99,-26,-72,108,103,22,-91,-110,-120
-75,-98,-22,87,-26,-60,109,132,47,-56,-92,-106
-73,-101,-28,87,-22,-64,115,135,56,-66,-107,-107
-66,-87,-20,77,-23,-53,115,162,95,-45,-83,-85
-62,-83,-21,73,-20,-52,115,186,118,-27,-71,-77
-52,-71,-19,61,-16,-45,115,207,149,2,-51,-64
-48,-65,-16,57,-16,-40,115,245,192,35,-40,-57
-46,-55,-10,51,-18,-32,113,279,235,70,-25,-48
-38,-42,-4,40,-17,-23,106,317,277,95,-9,-37
-25,-23,1,24,-13,-11,101,371,342,140,30,-17
12,17,5,-15,3,11,96,429,418,204,69,13
69,56,-13,-62,41,21,90,484,489,256,97,36
113,98,-15,-105,64,41,86,536,563,316,142,68
117,131,14,-124,51,73,73,548,602,347,168,93
129,150,21,-140,54,85,52,546,610,340,178,115
139,169,30,-154,55,99,35,525,591,335,171,130
119,169,51,-144,34,110,19,460,530,311,157,113
103,153,50,-128,26,101,19,373,436,259,133,97
76,126,50,-101,13,88,21,275,324,188,90,79
32,82,50,-57,-9,66,20,176,204,114,50,53
-8,43,50,-18,-29,46,20,93,103,59,16,23
-29,18,47,5,-38,32,20,39,30,12,-10,-7
-31,-3,28,16,-29,13,22,-2,-24,-32,-33,-23
-41,-22,19,32,-30,-2,27,-27,-58,-63,-51,-33
-54,-41,13,47,-33,-14,29,-41,-84,-64,-59,-46
-52,-46,6,49,-28,-20,26,-42,-94,-71,-68,-54
-44,-44,0,44,-21,-22,25,-39,-89,-98,-72,-55
-37,-45,-8,41,-14,-26,25,-40,-86,-94,-67,-60
-37,-45,-8,41,-14,-26,25,-35,-82,-81,-64,-59
-41,-45,-4,44,-18,-25,25,-35,-79,-73,-61,-54
-42,-44,-2,43,-20,-23,27,-35,-75,-62,-56,-56
-40,-39,1,39,-20,-19,30,-35,-72,-53,-56,-52
-38,-34,4,35,-20,-15,30,-35,-67,-48,-60,-50
-36,-30,6,32,-21,-11,33,-35,-61,-42,-59,-50
-34,-25,9,30,-21,-8,36,-36,-59,-39,-63,-53
-35,-20,14,27,-24,-3,34,-34,-51,-33,-65,-56
-36,-23,13,30,-24,-5,31,-43,-54,-32,-65,-55
-34,-27,7,30,-20,-9,30,-55,-71,-39,-68,-55
-34,-32,2,33,-18,-14,30,-55,-78,-43,-71,-55
-38,-40,-1,39,-18,-20,30,-58,-82,-59,-74,-56
-36,-43,-6,40,-15,-24,31,-60,-89,-66,-77,-60
-39,-49,-10,44,-14,-29,27,-61,-97,-73,-79,-60
-43,-48,-5,46,-19,-26,25,-66,-105,-86,-82,-62
-45,-46,-1,46,-22,-23,25,-69,-105,-84,-85,-66
-48,-43,5,45,-26,-19,21,-67,-105,-88,-85,-65
-55,-53,2,54,-28,-26,20,-64,-116,-98,-85,-62
-61,-78,-17,70,-22,-47,20,-65,-121,-105,-85,-59
-55,-76,-21,66,-17,-48,20,-65,-119,-109,-85,-56
-56,-68,-12,63,-22,-40,20,-65,-124,-112,-85,-53
-56,-66,-10,62,-23,-38,20,-64,-125,-120,-85,-50
-60,-56,5,58,-32,-25,20,-60,-124,-123,-84,-49
-91,-61,30,76,-60,-15,19,-60,-120,-129,-80,-45
-100,-72,29,86,-64,-21,23,-58,-120,-136,-78,-45
-87,-64,23,75,-55,-21,25,-55,-119,-130,-75,-42
-76,-56,20,66,-47,-18,25,-56,-115,-128,-72,-40
-61,-48,14,54,-37,-17,25,-55,-116,-123,-70,-41
-69,-42,27,56,-48,-7,25,-55,-111,-121,-67,-37
-57,-9,48,33,-52,19,30,-54,-96,-113,-62,-34
-25,31,56,-4,-40,43,45,-54,-83,-92,-59,-31
-12,43,55,-16,-34,49,51,-56,-84,-72,-56,-28
-10,45,55,-18,-33,50,15,-54,-84,-55,-50,-25
-10,46,56,-18,-34,51,-8,-74,-90,-56,-54,-27
-9,37,46,-15,-28,42,-10,-96,-100,-52,-67,-45
-16,-15,1,16,-8,-7,-18,-104,-110,-54,-78,-53
30,-21,-52,-4,41,-36,-23,-101,-99,-46,-69,-46
42,-25,-67,-8,55,-46,-20,-108,-121,-56,-89,-73
-15,-68,-52,42,19,-60,7,-96,-128,-81,-101,-81
-41,-94,-52,68,5,-73,20,-102,-135,-111,-109,-82
-51,-91,-40,71,-5,-65,21,-99,-142,-103,-103,-79
-60,-97,-37,79,-11,-67,25,-89,-130,-102,-101,-79
-73,-109,-36,91,-18,-72,27,-107,-149,-115,-107,-84
-69,-100,-31,85,-19,-65,31,-69,-102,-84,-85,-71
-86,-127,-42,107,-22,-84,31,-104,-155,-140,-127,-97
-58,-64,-6,61,-26,-35,138,281,234,89,-5,-39
137,118,-18,-128,77,50,186,606,791,670,455,227
668,726,57,-697,305,391,-347,-107,660,1522,1573,1066
883,891,8,-887,438,449,-985,-1135,-303,1097,1617,1306
327,262,-65,-294,196,98,-951,-1560,-1367,-519,139,417
0,105,105,-53,-53,105,-584,-1002,-1024,-634,-267,20
-38,33,71,3,-55,51,-218,-325,-353,-245,-154,-49
-115,-100,15,107,-65,-42,-18,-108,-202,-220,-208,-127
-113,-99,14,106,-63,-42,24,-10,-86,-133,-142,-104
-119,-132,-13,126,-53,-72,78,23,-71,-157,-173,-132
-91,-103,-12,97,-39,-57,90,63,-21,-105,-133,-108
-87,-114,-27,100,-30,-70,98,78,-11,-107,-141,-117
-83,-98,-15,90,-33,-56,101,95,14,-83,-123,-106
-84,-98,-14,91,-35,-55,98,115,41,-71,-114,-105
-79,-90,-12,85,-33,-51,101,125,56,-60,-108,-101
-45,-81,-36,63,-4,-58,99,149,93,-33,-89,-89
-33,-76,-43,54,5,-59,100,167,119,-22,-78,-85
-26,-64,-38,45,6,-51,95,195,156,13,-55,-72
-23,-61,-38,42,8,-49,93,226,196,46,-36,-62
2,-31,-33,15,18,-32,90,262,245,77,-9,-46
-2,-38,-36,20,18,-37,86,305,297,112,12,-30
8,-20,-28,6,18,-23,85,355,358,158,38,-5
53,32,-20,-42,36,6,79,412,430,204,76,16
80,68,-12,-74,46,28,67,464,504,259,116,42
115,112,-3,-114,59,54,55,491,559,308,151,80
130,137,8,-134,61,72,40,486,580,320,173,104
139,159,21,-149,59,90,22,472,565,307,173,116
125,162,36,-144,44,98,11,440,525,292,163,110
107,149,42,-128,32,95,10,371,459,258,148,95
106,140,34,-123,36,87,9,289,355,200,111,87
85,113,28,-99,28,70,6,193,239,132,77,65
57,77,20,-67,18,48,4,110,136,73,45,34
22,34,12,-28,5,23,6,51,53,22,10,12
1,7,6,-4,-2,6,14,6,-5,-21,-12,-7
-12,-12,0,12,-6,-6,22,-19,-46,-47,-33,-22
-32,-32,0,32,-16,-16,29,-36,-68,-63,-47,-34
-37,-40,-3,39,-17,-21,30,-47,-89,-73,-56,-43
-34,-40,-7,38,-14,-23,30,-47,-93,-70,-61,-53
-38,-39,0,39,-19,-19,30,-41,-83,-65,-60,-56
-60,-49,11,54,-35,-19,30,-34,-76,-63,-59,-50
-60,-56,4,57,-32,-26,29,-28,-68,-58,-55,-48
-44,-48,-4,46,-20,-25,25,-20,-61,-55,-55,-43
-44,-45,-1,45,-21,-22,25,-16,-55,-51,-53,-40
-41,-40,2,41,-21,-19,25,-19,-52,-48,-49,-40
-40,-35,5,37,-22,-15,25,-21,-49,-44,-47,-40
-46,-39,7,42,-26,-16,25,-20,-45,-41,-44,-41
-51,-40,11,46,-31,-15,29,-20,-40,-36,-41,-39
-47,-40,8,43,-27,-16,30,-20,-42,-36,-40,-41
-43,-40,3,41,-23,-19,30,-22,-49,-44,-45,-38
-38,-40,-2,39,-18,-21,30,-30,-57,-45,-47,-36
-36,-41,-5,39,-15,-23,30,-35,-68,-45,-51,-33
-53,-46,6,49,-29,-20,29,-41,-74,-44,-54,-29
-61,-51,10,55,-36,-20,25,-47,-83,-62,-59,-47
-52,-54,-2,53,-24,-28,25,-53,-93,-76,-65,-57
-57,-59,-2,58,-28,-30,25,-56,-98,-79,-67,-57
-59,-60,-1,60,-30,-30,25,-60,-104,-85,-70,-61
-62,-60,2,61,-32,-29,25,-65,-105,-85,-73,-64
-78,-60,18,69,-48,-21,22,-65,-105,-89,-75,-65
-75,-60,14,67,-45,-23,19,-66,-109,-90,-71,-61
-57,-59,-2,58,-28,-30,16,-70,-110,-90,-70,-58
-47,-54,-7,51,-20,-31,13,-70,-109,-90,-70,-55
-52,-56,-4,54,-23,-30,10,-67,-105,-90,-70,-52
-53,-52,1,52,-26,-25,11,-65,-105,-90,-70,-50
-49,-50,-1,50,-24,-26,15,-65,-102,-90,-69,-48
-50,-49,1,50,-26,-24,15,-61,-99,-89,-64,-45
-46,-47,-1,47,-22,-24,15,-60,-100,-86,-61,-42
-45,-44,1,44,-22,-21,15,-61,-96,-83,-58,-39
-40,-41,-1,41,-20,-21,15,-53,-85,-81,-54,-36
-44,-38,7,41,-25,-16,22,-46,-75,-77,-50,-34
-40,5,46,17,-43,25,39,-38,-64,-57,-47,-31
-19,37,56,-9,-38,46,46,-36,-47,-44,-44,-26
-8,42,51,-17,-30,46,47,-43,-38,-45,-40,-24
-10,35,45,-13,-28,40,30,-43,-42,-41,-39,-20
-19,24,43,-3,-31,34,-9,-61,-66,-39,-34,-15
-1,27,28,-13,-15,28,-34,-79,-81,-48,-38,-18
12,-7,-18,-3,15,-13,-36,-82,-95,-71,-57,-22
13,-33,-46,10,30,-39,-25,-78,-85,-56,-57,-18
26,-47,-73,11,50,-59,-15,-88,-96,-66,-65,-19
-6,-69,-63,38,29,-66,-5,-83,-115,-91,-71,-36
-65,-98,-33,82,-16,-65,3,-83,-121,-110,-89,-79
-73,-97,-24,86,-24,-60,9,-82,-123,-104,-83,-79
-76,-101,-25,89,-25,-62,16,-73,-110,-101,-84,-78
-76,-102,-27,89,-25,-64,23,-94,-138,-116,-91,-88
-73,-94,-21,84,-26,-57,29,-57,-88,-85,-74,-76
-79,-122,-43,101,-18,-83,32,-97,-128,-135,-87,-101
-11,-67,-57,39,23,-62,116,268,210,73,27,-35
165,99,-66,-132,115,16,161,621,760,612,427,228
706,644,-62,-675,384,291,-347,-87,624,1376,1496,1018
961,784,-177,-872,568,303,-976,-1222,-444,879,1465,1217
409,223,-186,-316,298,18,-944,-1710,-1543,-693,5,344
37,80,43,-59,-3,61,-586,-1083,-1105,-708,-315,-7
-37,25,62,6,-50,43,-226,-348,-367,-258,-159,-54
-88,-91,-3,89,-42,-47,-17,-115,-195,-215,-184,-120
-56,-81,-25,69,-15,-53,30,-1,-59,-118,-110,-90
-72,-112,-41,92,-15,-76,79,33,-47,-142,-149,-123
-75,-99,-24,87,-26,-61,86,71,5,-90,-114,-95
-73,-101,-28,87,-22,-64,94,86,14,-93,-128,-104
-72,-90,-18,81,-27,-54,105,103,37,-72,-114,-91
-67,-84,-16,76,-25,-50,104,122,58,-56,-104,-87
-65,-79,-14,72,-25,-46,107,132,66,-38,-95,-84
-55,-70,-15,63,-20,-43,108,157,108,-8,-76,-70
-50,-65,-15,58,-17,-40,111,177,131,3,-68,-65
-35,-50,-15,43,-10,-32,108,203,168,32,-47,-51
-30,-45,-15,38,-8,-29,103,230,208,58,-25,-42
-9,-27,-18,18,4,-22,96,269,254,93,4,-25
27,-8,-35,-9,31,-21,89,309,305,129,22,-8
33,6,-26,-19,29,-10,82,359,367,174,50,17
45,34,-11,-39,28,12,76,417,442,231,92,39
73,72,-1,-72,37,35,71,474,512,282,131,64
120,126,6,-123,56,66,60,514,571,326,168,102
147,158,11,-152,68,84,45,512,580,351,191,125
141,168,27,-155,57,97,27,505,568,348,197,135
138,174,36,-156,51,104,16,472,548,328,188,129
123,158,35,-141,44,96,14,397,477,287,163,117
109,144,35,-127,37,89,11,306,375,228,129,108
80,116,36,-98,22,75,8,211,264,161,90,86
45,79,34,-62,5,56,5,130,160,96,52,55
5,44,39,-25,-18,41,6,63,79,39,20,25
-32,11,43,10,-37,27,11,16,17,-7,-9,2
-32,-10,22,21,-27,6,14,-26,-38,-39,-36,-12
-34,-20,13,26,-23,-3,17,-48,-69,-62,-57,-30
-39,-28,11,33,-25,-8,22,-46,-80,-78,-61,-40
-45,-38,7,41,-25,-15,25,-43,-80,-83,-60,-40
-50,-46,4,48,-27,-21,21,-41,-73,-78,-60,-40
-49,-50,-1,50,-24,-26,19,-37,-69,-75,-60,-40
-51,-47,4,48,-27,-21,20,-35,-63,-72,-61,-40
-49,-41,8,45,-28,-17,20,-32,-58,-67,-58,-38
-50,-37,14,43,-32,-11,20,-30,-52,-64,-53,-35
-46,-32,14,39,-29,-9,20,-30,-50,-61,-50,-35
-38,-28,10,33,-24,-9,20,-27,-50,-57,-47,-35
-33,-23,10,28,-21,-6,20,-24,-50,-54,-42,-35
-30,-20,10,25,-20,-5,20,-26,-50,-50,-40,-36
-45,-20,26,33,-36,3,20,-30,-51,-45,-45,-39
-46,-18,28,32,-37,5,20,-30,-54,-47,-45,-42
-34,-14,20,24,-27,3,24,-32,-58,-54,-48,-44
-32,-15,17,24,-24,1,25,-39,-63,-60,-50,-48
-35,-26,9,31,-22,-8,25,-46,-66,-65,-51,-50
-38,-32,6,34,-22,-12,29,-52,-77,-69,-55,-53
-39,-29,10,34,-24,-9,31,-56,-82,-72,-55,-55
-46,-27,19,36,-32,-4,28,-54,-87,-77,-60,-55
-42,-24,18,33,-29,-3,25,-57,-94,-80,-68,-58
-40,-26,15,33,-27,-6,25,-65,-99,-86,-67,-61
-66,-50,15,58,-40,-17,23,-65,-100,-93,-65,-59
-82,-67,15,74,-48,-26,19,-65,-100,-95,-65,-56
-76,-61,16,68,-46,-22,20,-65,-104,-95,-65,-55
-73,-59,14,65,-43,-22,23,-65,-106,-95,-65,-55
-66,-54,12,60,-39,-21,25,-65,-103,-95,-66,-55
-53,-51,2,52,-27,-24,25,-65,-100,-94,-69,-55
-48,-47,0,47,-24,-23,25,-65,-100,-91,-71,-57
-52,-45,7,48,-29,-19,25,-65,-100,-88,-75,-60
-49,-45,4,46,-26,-21,26,-65,-100,-85,-73,-60
-48,-42,6,44,-27,-18,30,-66,-101,-82,-66,-60
-43,-38,4,40,-24,-16,30,-60,-96,-80,-59,-60
-50,-42,8,46,-29,-16,29,-53,-85,-77,-53,-60
-44,-17,27,30,-35,4,35,-46,-76,-64,-45,-50
-29,12,41,8,-35,26,44,-42,-65,-54,-41,-33
-34,23,57,5,-46,39,62,-46,-60,-54,-44,-28
-10,51,61,-21,-36,55,68,-48,-60,-58,-46,-30
-8,55,63,-24,-36,58,46,-53,-56,-59,-46,-30
-17,50,67,-17,-42,58,13,-55,-54,-64,-51,-30
-1,21,22,-10,-12,21,-10,-60,-66,-65,-50,-30
5,-22,-27,9,16,-24,-19,-66,-82,-64,-48,-30
20,-26,-45,3,33,-35,-23,-65,-79,-59,-46,-25
6,-48,-55,21,31,-51,-12,-65,-84,-54,-42,-27
-29,-78,-49,53,10,-63,6,-74,-103,-75,-68,-60
-48,-90,-42,69,-3,-66,11,-89,-113,-93,-85,-78
-55,-91,-36,73,-9,-63,20,-74,-109,-97,-88,-73
-59,-88,-29,74,-15,-58,17,-79,-111,-97,-83,-77
-86,-108,-23,97,-32,-65,28,-67,-111,-108,-97,-73
-107,-126,-19,117,-44,-73,25,-67,-107,-102,-82,-78
-114,-134,-20,124,-46,-77,35,-60,-118,-118,-99,-62
-126,-145,-20,136,-53,-82,132,284,217,94,12,-37
