I,II,III,aVR,aVL,aVF,V1,V2,V3,V4,V5,V6
44,159,114,-102,-35,136,55,148,206,226,173,348
29,132,103,-81,-37,117,55,123,174,195,152,323
4,87,83,-46,-40,85,58,72,126,151,102,281
2,69,67,-36,-33,67,62,34,78,98,56,251
-23,29,51,-3,-37,40,63,20,39,58,29,219
-10,26,36,-8,-23,31,66,6,19,44,11,204
-16,9,25,3,-20,17,57,0,7,33,8,203
-88,-35,53,61,-70,9,48,-28,-2,31,-12,197
-36,37,73,-1,-55,55,84,-11,46,66,-14,195
-37,31,68,3,-53,49,87,27,64,72,2,190
-45,26,71,9,-58,48,74,23,57,68,5,191
-11,59,70,-24,-41,64,75,32,63,72,13,202
-34,35,69,-1,-51,52,58,26,56,67,15,200
-2,74,76,-36,-39,75,72,28,66,73,25,205
-66,15,81,25,-73,48,42,19,21,46,5,172
-65,10,75,27,-70,43,56,36,38,64,21,188
21,92,71,-57,-25,81,92,62,85,107,63,236
-12,58,70,-23,-41,63,46,27,44,81,37,206
-16,54,70,-19,-43,62,45,21,35,70,27,198
-27,43,70,-8,-49,56,45,15,24,58,19,186
-22,48,70,-13,-47,58,41,8,10,46,5,179
-32,38,70,-3,-51,53,40,-2,6,42,0,168
-19,45,64,-13,-42,54,39,-10,-9,28,-13,167
-31,27,58,2,-45,42,38,-18,-9,30,-15,150
-81,-27,54,54,-68,14,22,-42,-41,-5,-44,121
-1,46,47,-23,-24,46,67,2,-52,-12,-61,170
-12,30,43,-9,-28,36,76,21,-22,18,-44,143
-50,-9,41,29,-45,15,49,-10,-20,14,-37,124
-51,-3,48,27,-50,22,48,-35,-19,15,-40,135
-47,16,63,15,-56,40,41,-44,-21,31,-44,123
-46,14,61,16,-54,37,42,-36,-18,35,-42,126
-39,15,54,12,-47,34,35,-44,-24,20,-54,117
-30,19,48,5,-39,33,39,-34,-38,17,-46,120
-92,-46,46,69,-69,0,21,-58,-55,-10,-55,95
-41,2,43,19,-42,23,20,-86,-67,-17,-76,119
-9,46,55,-19,-32,50,57,-53,-30,23,-69,142
-45,25,70,10,-58,47,50,-43,-15,20,-61,119
-55,4,59,25,-57,31,43,-47,-31,19,-59,122
-51,2,53,24,-52,27,43,-43,-34,21,-48,111
-31,11,42,10,-37,27,29,-55,-41,24,-20,115
-32,12,43,10,-38,27,34,-52,-36,40,-61,122
-76,-32,44,54,-60,6,16,-54,-32,-2,-93,75
-70,-23,47,46,-59,12,19,-78,-66,4,-84,79
-12,51,63,-20,-38,57,64,-77,-61,48,-81,123
-42,23,65,9,-53,44,42,-69,-33,23,-59,108
-51,20,71,15,-61,45,26,-62,-30,18,-54,91
-40,14,54,13,-47,33,33,-56,-23,21,-49,87
-23,9,32,7,-28,20,28,-49,-15,15,-38,80
-27,6,33,10,-31,19,39,-46,-11,15,-37,75
-26,58,84,-16,-56,71,59,-44,1,47,-27,101
-57,67,124,-6,-90,95,70,-37,4,42,-40,87
-69,15,84,27,-76,49,87,-52,-19,17,-55,81
36,98,62,-67,-13,79,68,-29,1,61,-10,129
51,107,56,-79,-3,81,-1,-31,10,57,-2,125
36,82,46,-59,-6,64,-34,-71,-22,43,-20,116
44,86,42,-65,1,64,-38,-72,-38,37,-20,114
29,63,35,-46,-4,49,-18,-75,-45,24,-34,104
-21,10,31,5,-26,20,-11,-82,-47,15,-53,81
-54,-31,23,42,-38,-4,15,-78,-40,6,-66,61
-99,-76,23,88,-61,-26,17,-90,-72,-15,-88,28
-72,-59,13,65,-42,-23,0,-92,-97,-52,-98,27
-8,16,24,-4,-16,20,28,-66,-69,-41,-84,47
-94,-59,35,76,-64,-12,40,-47,-66,-30,-93,8
-117,-81,36,99,-77,-22,54,-60,-71,-17,-75,32
-91,-56,35,73,-62,-11,72,-53,-63,-23,-87,21
-79,-45,33,61,-56,-6,63,-53,-62,-17,-66,28
-64,-25,39,44,-52,7,71,-59,-57,-16,-69,25
-60,-27,33,43,-46,3,82,23,9,30,-50,23
-90,16,106,37,-98,61,63,36,64,129,47,106
184,223,39,-204,72,131,-32,176,225,404,373,430
704,602,-102,-653,403,250,-467,-43,81,621,861,1031
542,227,-314,-384,428,-44,-665,-717,-739,-220,97,500
89,-463,-552,187,321,-507,-379,-631,-1014,-903,-812,-379
-13,-338,-325,175,156,-331,-140,-207,-524,-500,-506,-253
-95,-141,-46,119,-24,-94,41,-49,-165,-169,-226,-107
-117,-94,23,105,-70,-35,84,-4,-44,-47,-139,-44
-100,-43,56,71,-78,7,76,-16,-28,-24,-125,-19
-150,-117,33,133,-91,-42,68,-21,-41,-43,-144,-55
-84,-41,43,62,-64,1,94,-48,-52,-4,-94,-57
-81,-14,67,47,-74,26,125,-13,-23,19,-90,-61
-153,-82,71,117,-112,-5,91,1,-17,13,-100,-36
-100,-36,64,67,-82,14,89,7,-22,6,-99,-43
-111,-45,66,78,-88,11,77,17,-18,2,-94,-39
-105,-35,70,70,-88,17,77,19,-21,-4,-92,-40
-122,-52,70,87,-96,9,64,3,-19,-6,-89,-41
-147,-71,76,108,-111,2,80,16,-35,-16,-105,-54
-58,16,73,20,-65,44,104,68,-9,7,-83,-35
-52,27,79,12,-65,52,78,64,18,21,-57,-6
-77,12,89,33,-83,50,70,65,25,38,-46,-3
-58,29,87,14,-73,58,68,64,47,57,-18,17
-40,37,77,1,-59,57,57,72,59,78,2,28
-23,74,97,-25,-60,85,58,99,94,116,21,56
-33,100,132,-33,-83,116,42,123,128,147,58,77
-29,101,130,-36,-80,115,13,167,149,198,107,97
86,215,129,-150,-22,172,39,220,221,258,173,187
117,253,136,-185,-10,194,34,239,243,286,195,225
75,228,153,-152,-39,190,8,233,225,289,201,215
82,249,167,-166,-43,208,20,236,225,288,223,217
60,216,157,-138,-49,186,11,216,213,277,214,203
74,218,144,-146,-35,181,17,184,212,273,213,202
56,175,120,-116,-32,147,14,156,176,235,177,187
51,151,99,-101,-24,125,6,112,124,188,135,151
77,167,90,-122,-7,129,44,69,86,150,101,109
6,87,81,-47,-37,83,46,30,44,81,33,75
-35,39,74,-2,-55,56,29,-6,6,32,-11,46
-15,53,67,-19,-41,59,39,-26,-26,13,-35,17
-29,30,59,-1,-44,44,34,-37,-43,1,-42,3
-14,38,52,-12,-34,45,41,-41,-53,-13,-49,-8
-53,9,62,22,-57,35,42,-38,-57,-27,-61,-12
-119,-41,78,80,-98,18,22,-44,-60,-38,-64,-31
-36,44,80,-4,-58,62,49,-22,-36,-15,-41,-21
-38,42,80,-2,-59,61,46,3,-11,11,-13,22
-52,28,80,12,-66,54,20,-2,-17,8,-17,28
-16,63,80,-24,-48,71,29,2,-13,17,-13,37
-38,43,80,-2,-60,61,18,-2,-17,12,-12,38
-1,77,77,-38,-39,77,24,2,-13,12,-8,52
-63,10,74,26,-68,41,6,-5,-19,8,-14,48
-53,17,70,18,-61,43,-12,-44,-51,3,-27,51
26,93,67,-60,-21,80,15,-47,-53,24,0,79
-12,49,62,-19,-37,55,14,-34,-44,8,7,51
-23,36,60,-6,-42,48,9,-24,-37,-1,0,39
-29,38,67,-4,-48,52,8,-29,-46,-10,-10,41
-41,25,66,7,-53,45,2,-53,-56,-31,-34,30
-41,24,65,8,-53,44,0,-57,-61,-40,-41,32
-43,21,63,11,-53,42,7,-49,-72,-52,-39,21
-84,-24,60,54,-72,18,-8,-63,-84,-62,-52,13
-27,32,59,-3,-43,45,-27,-83,-98,-72,-62,45
-15,50,65,-17,-40,57,-17,-79,-92,-69,-55,39
-67,5,73,31,-70,38,-15,-81,-91,-70,-55,20
-46,24,69,11,-58,46,-7,-79,-87,-64,-48,29
-71,-1,70,36,-71,35,-3,-81,-86,-66,-47,21
-31,35,66,-2,-49,50,-1,-77,-84,-66,-43,30
-68,-3,65,35,-66,31,-14,-75,-87,-72,-47,8
-81,-17,65,49,-73,24,-39,-100,-112,-101,-73,-30
-11,55,67,-22,-39,61,-20,-82,-96,-85,-55,-6
-66,14,80,26,-73,47,-3,-67,-82,-70,-40,13
-58,20,78,19,-68,49,-7,-71,-87,-78,-48,7
-59,15,74,22,-67,44,-4,-71,-83,-76,-42,13
-67,4,71,32,-69,37,-6,-90,-87,-82,-39,13
-51,15,66,18,-59,40,-3,-81,-83,-79,-60,18
-116,-51,65,83,-90,7,-13,-77,-91,-80,-77,6
-72,-7,65,39,-68,29,-37,-103,-110,-99,-86,-13
-9,56,65,-24,-37,60,-31,-102,-105,-93,-77,20
-39,27,65,6,-53,46,-26,-96,-99,-78,-64,25
-27,37,64,-6,-46,51,-21,-92,-95,-80,-74,23
-28,37,65,-5,-47,51,-13,-83,-87,-79,-70,35
-41,27,69,7,-56,48,-14,-84,-85,-81,-66,24
-28,53,81,-13,-55,67,9,-65,-74,-78,-55,46
-71,34,105,18,-88,69,-2,-71,-71,-84,-63,27
-37,68,105,-15,-71,86,26,-48,-63,-63,-36,52
40,132,92,-86,-26,112,80,5,-24,-11,14,104
5,92,87,-49,-41,89,26,-31,-32,-15,-17,81
28,102,74,-65,-23,88,-51,-71,-54,-30,-32,85
48,106,59,-77,-6,82,-75,-82,-60,-33,-25,80
42,73,32,-58,5,52,-68,-90,-93,-59,-46,68
43,70,27,-57,8,48,-66,-84,-85,-56,-50,68
-48,-1,47,24,-48,23,-66,-93,-96,-74,-75,53
-51,-11,40,31,-45,14,-51,-109,-132,-119,-114,46
-33,1,34,15,-33,17,-11,-104,-109,-118,-114,20
-92,-58,34,75,-63,-12,3,-93,-97,-110,-109,-2
-82,-44,38,63,-60,-3,-4,-93,-103,-108,-104,-6
-77,-46,31,61,-54,-8,8,-78,-98,-104,-105,-17
-81,-41,39,61,-60,-1,-3,-87,-102,-96,-93,-10
-59,-28,31,43,-44,1,17,-84,-98,-98,-98,-30
-93,-55,38,74,-65,-9,-24,-102,-105,-93,-89,-16
-71,-26,45,48,-58,9,-3,-88,-108,-116,-118,-51
24,88,65,-56,-21,76,55,-10,-23,-31,-39,7
8,146,138,-77,-65,142,14,15,61,96,102,130
330,341,11,-336,159,176,-179,131,178,393,483,520
772,642,-130,-707,451,256,-655,-276,-146,440,783,976
432,22,-411,-227,421,-194,-716,-856,-970,-551,-188,217
65,-517,-581,226,323,-549,-367,-581,-993,-957,-799,-428
-24,-267,-243,146,110,-255,-149,-201,-449,-457,-389,-215
-125,-148,-23,136,-51,-85,16,-69,-178,-222,-203,-131
-32,-5,28,18,-30,11,68,-26,-62,-95,-80,-37
-72,-5,67,38,-69,30,66,-46,-58,-96,-84,-47
-121,-41,79,81,-100,19,63,-25,-47,-89,-85,-48
-102,-12,89,56,-95,38,55,-34,-40,-74,-72,-40
-105,-23,82,63,-93,29,56,-21,-33,-76,-83,-51
-101,-14,87,57,-94,37,44,-24,-26,-62,-67,-38
-85,-2,84,43,-84,40,49,-15,-22,-66,-76,-45
-108,-23,86,65,-96,32,41,-19,-23,-59,-65,-30
-128,-43,85,85,-107,21,33,-61,-43,-94,-94,-69
-55,30,85,12,-70,57,63,-33,-18,-73,-71,-54
-54,31,85,11,-70,58,67,7,6,-37,-31,-17
-68,17,85,25,-77,51,53,6,7,-33,-29,-17
-52,32,85,10,-69,58,51,14,20,-18,-15,-6
-51,40,92,5,-72,66,39,17,24,-9,-10,-1
-53,53,106,0,-79,79,35,35,35,11,5,4
-36,83,119,-24,-78,101,21,75,72,41,42,17
-84,47,130,18,-107,88,3,89,93,60,54,20
15,157,142,-86,-64,149,38,147,153,122,115,71
105,270,165,-188,-31,218,39,204,213,188,185,124
44,221,176,-133,-66,198,6,208,229,216,208,143
74,248,174,-162,-51,211,4,226,257,245,240,172
87,263,175,-175,-44,219,-6,235,265,260,257,185
89,263,175,-176,-43,219,-10,228,263,257,255,188
71,246,175,-159,-53,211,-22,212,258,253,243,178
86,257,170,-172,-42,213,-22,191,237,235,238,165
27,187,160,-107,-67,173,-38,145,193,198,198,148
14,164,150,-89,-68,157,-18,102,142,161,155,117
51,184,133,-117,-41,158,32,71,89,100,127,72
-16,102,118,-43,-67,110,23,27,42,43,81,37
-24,83,107,-29,-66,94,19,-11,17,4,51,21
-20,74,94,-27,-58,84,13,-30,-2,-18,35,5
-37,53,89,-8,-63,71,7,-39,-25,-30,26,-2
-34,57,91,-11,-62,73,2,-45,-27,-40,24,-9
-37,52,89,-8,-63,71,-7,-42,-15,-37,20,-11
-85,6,91,40,-88,48,-21,-58,-44,-51,0,-37
-17,71,88,-27,-52,79,-24,-32,-21,-20,12,-43
14,112,98,-64,-42,105,12,0,25,25,48,0
-26,80,107,-28,-66,93,23,-6,25,26,54,12
-6,97,104,-46,-56,100,17,-8,34,34,62,13
-19,100,119,-41,-69,109,23,-9,45,46,74,19
-6,93,99,-44,-52,95,17,-12,39,36,73,19
27,113,86,-70,-29,99,24,-3,37,41,78,28
-29,75,104,-23,-67,89,-1,-6,22,17,71,6
-45,52,97,-4,-71,75,-45,-50,-21,6,81,-33
25,116,91,-71,-33,103,-13,-34,2,49,96,-5
8,91,83,-49,-38,87,14,-10,18,15,65,17
7,83,76,-45,-35,79,8,-24,1,-6,53,4
13,82,69,-47,-28,75,7,-25,-2,-1,53,-3
7,71,64,-39,-29,67,3,-35,-14,-10,48,-12
-16,57,74,-21,-45,65,0,-44,-20,-11,44,-21
-12,62,74,-25,-43,68,0,-44,-30,-14,41,-31
-40,26,67,7,-54,46,1,-46,-33,-30,38,-33
-57,6,63,26,-60,34,-22,-69,-52,-65,45,-65
44,100,56,-72,-6,78,-29,-74,-61,-59,65,-53
25,76,51,-51,-13,63,-9,-62,-50,-44,50,-24
-14,51,65,-18,-40,58,-2,-59,-50,-44,36,-42
-6,66,72,-30,-39,68,0,-50,-43,-44,43,-41
-31,38,69,-4,-50,53,1,-45,-40,-46,37,-44
-14,54,67,-20,-41,60,-3,-42,-46,-44,42,-50
-34,29,64,2,-49,46,8,-37,-46,-46,40,-47
-70,-3,66,36,-68,31,-3,-63,-58,-44,27,-62
5,62,57,-33,-27,60,-19,-76,-58,-38,59,-58
-2,73,74,-36,-38,73,10,-52,-43,-31,58,-31
-31,54,85,-11,-58,69,17,-50,-45,-24,34,-29
-15,61,76,-23,-45,68,13,-51,-45,-18,43,-31
-17,57,73,-20,-46,65,17,-49,-44,-10,39,-29
-8,49,57,-21,-33,52,13,-51,-46,-15,42,-31
-11,66,77,-28,-45,71,18,-49,-44,-25,49,-29
-51,34,85,8,-68,59,1,-57,-53,-36,30,-36
-44,21,65,11,-55,43,-30,-74,-58,-37,54,-42
35,95,61,-65,-13,78,-26,-70,-49,-29,86,-19
31,70,39,-51,-4,54,-20,-62,-46,-26,63,-15
28,78,50,-53,-11,63,-11,-56,-35,-17,65,-18
-8,72,79,-32,-44,75,-5,-49,-34,-16,67,-1
-3,108,111,-53,-57,109,19,-41,-20,5,79,4
-5,120,125,-58,-65,122,33,-28,-14,9,70,17
-42,55,96,-7,-69,76,38,-33,-9,11,59,-4
59,151,92,-106,-16,121,66,-9,52,61,121,-2
89,170,80,-130,4,125,-5,-5,37,54,129,49
90,139,49,-114,21,94,-65,-46,-21,12,111,60
103,134,31,-119,36,82,-60,-49,-47,-19,90,50
73,87,14,-80,29,50,-54,-54,-62,-29,55,44
38,75,38,-57,0,56,-41,-79,-63,-31,60,31
22,72,51,-47,-14,61,-26,-71,-69,-36,56,12
-49,-25,24,37,-36,-1,-14,-67,-74,-51,13,-25
-55,-35,20,45,-37,-8,-15,-79,-90,-82,-32,-71
33,63,29,-49,2,46,0,-69,-80,-52,-8,-52
-28,-6,21,17,-25,7,22,-56,-74,-53,-12,-49
-17,6,24,5,-21,15,24,-45,-63,-38,11,-29
-23,-4,19,13,-21,7,25,-47,-59,-40,18,-40
-21,-3,18,12,-20,7,28,-29,-55,-32,27,-33
-6,22,28,-8,-17,25,19,-41,-48,-18,26,-30
-95,-60,35,77,-65,-12,36,-13,-44,-49,-9,-56
7,127,120,-68,-57,124,33,45,59,107,147,70
248,281,34,-265,107,157,-66,143,175,307,395,290
733,573,-160,-653,447,206,-520,-22,34,518,854,853
770,282,-488,-526,629,-103,-803,-640,-687,-141,300,517
250,-498,-748,124,499,-623,-485,-693,-1077,-959,-712,-431
54,-357,-412,152,233,-384,-194,-263,-583,-576,-452,-352
-31,-98,-67,65,18,-82,13,-69,-176,-196,-133,-182
-91,-70,21,80,-56,-24,64,0,-48,-85,-60,-131
-71,-30,41,50,-56,5,54,-29,-34,-53,-24,-56
-24,19,42,2,-33,30,119,-19,-27,-62,-37,-93
-32,34,65,-1,-49,49,85,27,28,-12,23,-82
-70,-8,62,39,-66,27,78,30,26,-26,12,-90
-77,-4,73,41,-75,34,79,40,33,4,15,-83
-101,-32,69,66,-84,18,68,37,27,-4,5,-99
-48,22,70,13,-59,46,73,35,31,3,32,-93
-85,-14,71,49,-78,29,60,22,30,-15,8,-95
-107,-39,68,73,-87,14,60,7,9,2,22,-101
-21,63,83,-21,-53,73,92,48,50,60,79,-89
-46,43,89,1,-68,65,88,73,70,29,45,-78
-50,38,87,6,-69,62,69,75,61,35,46,-63
-45,50,95,-3,-70,72,69,78,81,55,59,-68
-42,54,96,-6,-70,75,63,89,90,61,67,-60
-30,72,103,-21,-67,87,53,122,110,101,103,-35
3,109,105,-56,-51,107,57,154,150,147,137,8
1,127,126,-64,-62,126,28,173,181,172,175,42
2,158,156,-80,-77,156,17,212,223,217,214,48
146,301,154,-224,-4,227,55,285,296,299,277,109
153,309,156,-231,-2,232,29,303,324,318,305,139
135,289,154,-212,-10,221,26,314,334,343,315,158
133,289,156,-212,-12,222,23,312,341,355,324,177
125,278,152,-202,-14,215,12,290,324,336,314,164
133,264,131,-199,1,197,8,274,308,325,319,161
106,232,125,-169,-10,178,-4,235,271,284,293,145
88,187,99,-138,-5,143,3,194,218,241,241,101
27,95,68,-61,-21,81,-7,144,154,175,187,27
47,115,69,-81,-11,92,31,105,109,129,137,25
17,68,51,-42,-17,59,54,59,64,82,97,5
-7,20,28,-7,-18,24,38,24,23,39,74,-46
-2,29,31,-14,-17,30,41,19,20,33,56,-46
-18,12,30,3,-24,20,32,16,13,30,50,-63
6,23,17,-15,-6,20,31,15,14,28,54,-65
-9,-8,2,8,-5,-3,34,9,4,20,41,-70
-9,11,20,-1,-14,15,47,14,10,24,41,-72
-80,-28,52,53,-66,12,50,13,12,-5,13,-78
-39,12,50,14,-44,31,41,29,-17,24,31,-87
46,94,48,-70,-1,71,40,48,12,81,89,-64
-6,47,53,-20,-30,50,33,37,29,60,76,-59
17,62,45,-39,-15,53,29,35,19,60,71,-61
-9,49,58,-20,-34,53,26,30,21,57,65,-59
-3,51,53,-24,-28,52,24,25,12,53,57,-61
22,41,18,-31,2,29,26,22,12,52,53,-59
-4,21,25,-9,-15,23,17,9,6,48,45,-61
7,16,9,-12,-1,13,25,6,-1,46,42,-58
-60,-49,11,55,-35,-19,7,-14,-16,36,35,-75
-22,14,36,4,-29,24,-22,-32,-38,32,30,-97
5,22,17,-14,-6,19,12,-8,-32,23,25,-94
-23,-22,0,22,-11,-11,29,14,-18,18,36,-96
-5,6,11,-1,-9,9,21,12,-13,12,28,-95
-17,8,25,4,-21,16,28,3,-16,8,12,-94
-24,-9,15,16,-19,3,22,-1,-23,4,2,-108
-37,-30,7,33,-21,-11,28,-11,-29,-2,-5,-111
-33,-35,-2,34,-15,-18,19,-11,-33,-5,-17,-109
-67,-77,-10,72,-28,-44,7,-16,-43,-22,-21,-114
12,-7,-19,-2,15,-14,45,-35,-40,-14,25,-119
41,28,-13,-34,27,8,56,-24,-27,1,40,-114
-38,-55,-17,46,-10,-35,32,-22,-31,-18,10,-107
-8,-45,-37,27,14,-40,19,-27,-30,-32,-10,-105
-18,-52,-34,35,9,-43,31,-23,-28,-26,-5,-93
-19,-62,-43,40,12,-52,47,-28,-33,-24,4,-105
-8,-41,-32,25,12,-36,58,-20,-25,-13,-6,-113
-71,-86,-15,79,-28,-50,23,-32,-47,-14,-25,-124
-10,-22,-12,17,1,-17,26,-6,-20,-28,-25,-146
66,82,16,-74,25,49,91,40,44,16,28,-105
-2,34,36,-16,-19,34,73,28,35,39,34,-85
-8,-5,3,6,-5,-1,64,19,32,35,22,-84
51,38,-13,-45,32,13,43,11,25,45,69,-72
43,47,4,-45,19,25,-20,1,1,31,69,-77
43,29,-13,-36,28,8,-46,-14,-15,37,63,-73
42,11,-32,-26,37,-10,-55,-25,-33,12,25,-83
-9,-59,-51,34,21,-55,-61,-56,-80,-43,-44,-131
39,-22,-60,-8,49,-41,-36,-65,-96,-45,-14,-165
23,-27,-49,2,36,-38,3,-36,-65,-22,3,-147
-58,-103,-46,81,-6,-74,19,-33,-65,-28,-39,-156
-61,-103,-42,82,-9,-72,31,-21,-55,-62,-60,-176
-94,-123,-29,109,-32,-76,38,-22,-57,-73,-66,-183
-71,-120,-49,96,-11,-84,44,-6,-46,-69,-65,-186
-47,-117,-70,82,11,-93,34,-20,-48,-69,-56,-174
-51,-126,-75,89,12,-100,48,-15,-61,-72,-64,-182
-48,-104,-56,76,4,-80,30,-27,-64,-68,-47,-161
-95,-158,-63,127,-16,-110,45,-25,-77,-65,-77,-204
-36,-49,-13,43,-11,-31,61,59,17,47,19,-115
20,78,58,-49,-19,68,43,90,113,162,156,-12
309,225,-84,-267,196,70,-117,216,245,477,566,406
698,530,-168,-613,433,180,-567,-199,-95,502,881,886
398,-24,-422,-187,410,-223,-595,-710,-889,-501,-157,45
24,-561,-585,268,305,-573,-295,-430,-896,-877,-768,-615
-15,-292,-277,154,131,-284,-95,-102,-382,-380,-330,-379
-100,-221,-121,161,11,-170,76,20,-140,-176,-222,-326
-114,-197,-84,156,-15,-140,98,2,-54,-87,-116,-277
-37,-94,-57,66,11,-76,120,17,5,-58,-58,-256
-48,-105,-57,77,5,-81,103,52,-3,-43,-84,-239
-75,-113,-38,94,-18,-75,96,31,-15,-45,-82,-236
-72,-115,-43,94,-14,-79,105,44,-6,-54,-88,-245
-74,-108,-35,92,-20,-71,94,29,-10,-47,-83,-239
-64,-99,-35,82,-14,-67,108,42,2,-51,-86,-250
-107,-138,-30,123,-38,-84,65,2,-39,-54,-87,-243
-58,-87,-29,73,-14,-58,78,30,-8,-18,-94,-241
-37,-62,-25,50,-6,-43,102,82,46,20,-56,-209
-92,-110,-17,101,-37,-63,82,63,29,0,-43,-201
-63,-74,-10,69,-26,-42,85,75,39,0,-42,-224
-79,-84,-5,82,-36,-45,71,67,32,3,-29,-214
-63,-58,5,60,-34,-26,76,71,37,30,2,-199
-55,-60,-4,57,-25,-32,60,84,45,39,-2,-200
-58,-84,-26,72,-16,-55,46,98,69,54,20,-204
60,58,-2,-59,31,28,70,149,130,117,83,-169
71,106,35,-89,18,70,47,181,160,152,101,-105
26,81,56,-54,-15,68,28,204,194,201,161,-67
79,135,56,-107,11,95,27,233,237,247,200,-24
80,134,54,-107,12,94,16,247,249,280,233,-7
105,161,56,-133,24,108,9,252,250,304,270,0
96,151,54,-124,21,102,-11,249,246,297,261,10
41,97,56,-69,-8,76,-22,245,231,304,268,19
117,161,44,-139,36,102,-11,228,238,285,254,40
103,133,30,-118,36,81,3,183,197,214,198,2
39,56,17,-48,11,36,16,130,137,158,143,-52
12,21,9,-16,1,15,18,85,95,107,94,-100
-27,-25,1,26,-14,-12,28,55,48,61,57,-134
-38,-55,-17,47,-10,-36,29,31,19,30,31,-144
-24,-58,-34,42,5,-46,31,20,7,1,13,-157
-33,-79,-46,56,7,-63,31,1,-1,-14,2,-157
-84,-114,-31,99,-26,-72,2,-37,-44,-46,-30,-185
-36,-54,-17,45,-9,-35,21,-12,-35,-39,-33,-187
-42,-63,-21,53,-10,-42,40,21,3,-4,1,-158
-79,-98,-19,89,-30,-58,28,22,1,-5,14,-157
-39,-59,-20,49,-9,-40,29,24,10,-2,22,-152
-44,-64,-20,54,-12,-42,24,31,12,4,27,-145
-34,-52,-18,43,-8,-34,18,37,17,0,21,-147
-29,-43,-14,36,-7,-28,21,38,20,16,34,-132
-72,-87,-15,80,-28,-51,3,10,-14,2,17,-141
-8,-33,-25,21,8,-29,-13,6,-12,-14,4,-157
24,-8,-32,-8,28,-20,20,39,28,18,42,-121
-7,-41,-33,25,13,-37,26,27,26,17,43,-114
0,-38,-38,19,19,-38,15,13,14,4,33,-123
-15,-54,-40,35,13,-47,14,10,6,-1,28,-130
-42,-77,-35,60,-3,-56,5,4,-5,-12,18,-137
-32,-67,-35,50,2,-51,1,-1,-10,-28,12,-134
-21,-54,-33,38,6,-44,-3,-1,-19,-16,5,-134
-74,-104,-30,89,-22,-67,-20,-31,-45,-39,-17,-161
-13,-43,-29,28,8,-36,-7,-39,-52,-75,-12,-184
-13,-46,-33,30,10,-39,27,-5,-41,-51,22,-161
-47,-89,-42,68,-2,-65,20,-14,-42,-45,18,-159
-25,-71,-46,48,10,-58,17,-14,-32,-38,21,-159
-46,-91,-44,69,-1,-67,10,-19,-33,-41,15,-161
-20,-65,-45,43,12,-55,6,-22,-22,-39,16,-159
-61,-117,-57,89,-2,-87,-3,-26,-22,-42,12,-162
-30,-89,-59,60,15,-74,-28,-56,-63,-76,-27,-190
10,-41,-51,16,31,-46,6,-34,-39,-55,-10,-160
-44,-93,-50,69,3,-71,25,-15,-19,-35,18,-139
-42,-85,-43,64,1,-64,13,-25,-29,-44,24,-149
-38,-79,-41,59,2,-60,17,-22,-22,-35,36,-141
-45,-95,-51,70,3,-72,6,-29,-35,-45,25,-149
-21,-71,-49,46,14,-60,9,-30,-24,-35,25,-140
-64,-110,-46,87,-9,-77,-1,-31,-40,-44,19,-151
-72,-115,-43,94,-14,-79,-3,-50,-39,-50,-3,-155
40,19,-21,-29,30,-1,51,-28,23,12,33,-117
8,11,3,-10,3,7,71,13,35,23,66,-109
-32,-20,12,25,-22,-4,69,17,24,10,55,-107
-8,-9,-1,9,-4,-5,79,24,41,14,69,-95
-22,-38,-17,30,-2,-27,37,10,38,4,85,-92
31,8,-23,-19,27,-7,-37,-30,16,5,86,-85
35,-20,-55,-7,45,-37,-66,-44,-7,-10,82,-83
32,-47,-79,8,56,-63,-77,-65,-62,-56,69,-134
64,-1,-65,-32,65,-33,-51,-54,-49,-42,60,-164
-15,-71,-56,43,21,-64,-3,-25,-18,-23,46,-158
-45,-100,-54,73,5,-77,5,-32,-36,-50,39,-160
-60,-124,-63,92,2,-93,19,-29,-40,-57,30,-169
-72,-147,-75,109,1,-111,17,-30,-53,-66,20,-185
-48,-129,-81,89,17,-104,17,-31,-42,-63,20,-173
-91,-182,-91,137,0,-136,-3,-44,-55,-82,-8,-199
-39,-116,-77,78,19,-97,-22,-69,-71,-92,-12,-211
-33,-120,-87,76,27,-103,31,-23,-32,-72,7,-192
-67,-132,-65,100,-1,-98,13,-24,-26,-42,40,-152
-48,-129,-81,88,17,-105,34,0,-19,-48,13,-178
-59,-94,-35,76,-12,-64,51,50,56,28,92,-132
31,49,18,-40,6,33,10,75,143,164,235,-4
385,289,-96,-337,241,96,-225,154,240,486,685,446
670,477,-193,-573,431,142,-707,-332,-179,421,878,779
395,-167,-562,-114,479,-364,-657,-761,-924,-601,-189,-46
90,-605,-696,258,393,-650,-303,-406,-823,-852,-637,-544
-1,-323,-322,162,161,-323,-88,-97,-305,-334,-212,-320
-82,-207,-124,145,21,-165,81,40,-73,-154,-89,-269
-82,-155,-73,119,-4,-114,79,68,-2,-55,-5,-192
-84,-149,-65,117,-10,-107,82,42,22,-58,-6,-201
-93,-149,-56,121,-18,-103,76,51,29,-41,5,-186
-145,-192,-47,169,-49,-119,67,32,-6,-55,1,-213
-105,-158,-53,132,-26,-105,112,77,64,-55,48,-226
-67,-115,-48,91,-10,-81,94,61,79,-13,68,-181
-90,-142,-52,116,-19,-97,76,19,47,-18,34,-189
-70,-119,-49,95,-10,-84,84,31,60,-5,52,-173
-95,-142,-46,119,-25,-94,75,54,50,-12,39,-177
-72,-111,-39,92,-16,-75,89,61,69,4,59,-166
-107,-138,-31,123,-37,-84,54,29,38,-11,28,-166
-100,-127,-27,114,-36,-77,48,39,45,-3,35,-195
-35,-52,-17,44,-9,-34,99,102,115,63,106,-160
-63,-82,-19,73,-22,-50,79,111,112,60,97,-125
-22,-56,-34,39,6,-45,66,102,117,61,100,-118
-15,-40,-25,28,6,-32,61,122,150,91,125,-96
-28,-30,-2,29,-13,-16,46,159,183,127,157,-69
21,38,17,-30,2,28,47,203,233,182,215,-41
-13,16,29,-2,-21,22,4,207,256,212,228,-47
49,104,54,-77,-2,79,-12,247,304,267,280,12
139,204,65,-172,37,134,28,299,348,318,328,87
105,160,55,-133,25,107,32,285,334,314,311,85
109,158,50,-134,30,104,25,282,329,316,308,82
105,148,43,-127,31,95,25,263,323,313,298,69
67,118,51,-93,8,84,20,218,303,281,294,58
37,71,35,-54,1,52,19,182,251,235,271,43
54,45,-9,-49,32,18,13,143,188,184,224,6
-10,-38,-28,24,9,-32,-13,106,119,130,185,-43
-2,-48,-47,25,23,-47,16,82,97,99,155,-85
61,-2,-62,-30,62,-32,53,52,104,59,121,-91
-10,-66,-57,38,24,-61,39,10,66,19,83,-89
-24,-79,-55,52,16,-67,39,-2,56,24,72,-91
-21,-73,-52,47,15,-62,41,1,64,39,78,-89
-38,-88,-50,63,6,-69,39,-2,56,36,72,-90
-26,-73,-47,50,10,-59,41,20,64,43,79,-90
-37,-82,-45,60,4,-63,40,34,57,46,74,-89
-68,-111,-43,90,-12,-77,5,-4,34,19,61,-100
12,-27,-39,8,26,-33,10,14,90,54,105,-83
25,-15,-40,-5,33,-28,49,51,117,83,119,-53
-21,-60,-40,41,10,-50,39,41,100,70,104,-55
4,-36,-40,16,22,-38,37,48,105,78,110,-49
-22,-61,-40,41,9,-50,31,37,95,73,97,-47
-7,-47,-41,27,17,-43,24,44,96,75,104,-44
-25,-63,-39,44,7,-51,23,31,87,69,104,-30
-53,-97,-44,75,-4,-71,-6,15,78,63,84,-47
16,-42,-58,14,37,-50,3,53,67,58,105,-64
14,-37,-51,12,32,-44,37,43,57,52,107,-56
-22,-72,-50,47,14,-61,34,23,55,48,81,-56
-25,-71,-47,48,11,-59,32,19,51,42,80,-51
-48,-90,-42,69,-2,-66,30,10,50,40,71,-49
-28,-82,-54,56,14,-68,24,4,44,32,66,-48
-32,-82,-50,57,9,-66,27,-1,47,32,65,-37
-52,-117,-66,85,7,-91,4,-26,12,3,32,-60
-2,-72,-71,37,34,-71,-1,-40,-11,-18,54,-75
-4,-58,-54,31,26,-56,30,-12,18,11,83,-47
-40,-93,-53,67,7,-73,30,-4,32,16,58,-42
-29,-88,-59,59,15,-73,30,-7,40,14,52,-50
-20,-91,-72,56,26,-81,36,-3,38,17,49,-47
-37,-102,-65,70,14,-83,33,-7,31,13,43,-56
-25,-88,-63,56,19,-75,37,-2,34,18,46,-52
-66,-124,-58,95,-4,-91,4,-19,15,4,31,-58
-67,-122,-55,95,-6,-88,19,-45,3,-1,35,-83
3,-48,-52,23,28,-50,68,-11,33,25,73,-60
-38,-83,-45,61,4,-63,46,4,37,26,66,-50
-10,-86,-76,48,34,-81,31,-8,32,23,55,-58
9,-77,-86,34,47,-81,32,-5,34,23,52,-48
-17,-86,-69,51,26,-77,26,-19,26,16,42,-51
3,-56,-58,27,31,-57,36,-6,36,27,61,-42
-53,-92,-39,73,-7,-65,19,-18,20,17,48,-48
17,-18,-35,1,26,-27,38,-2,51,52,65,-60
75,40,-35,-57,55,3,85,53,108,107,116,-22
34,0,-35,-17,34,-17,75,51,106,92,105,3
36,1,-35,-18,35,-17,48,42,98,81,96,-2
38,-8,-46,-15,42,-27,-7,7,66,66,89,1
75,-11,-86,-32,81,-49,-36,-26,46,47,78,0
64,-39,-103,-13,84,-71,-28,-31,37,40,70,0
68,-29,-98,-19,83,-63,-19,-23,29,37,61,-4
9,-92,-100,42,55,-96,-14,-29,10,31,51,-50
-12,-104,-92,58,40,-97,-15,-48,-8,28,46,-83
1,-97,-98,48,50,-97,22,-16,12,19,33,-82
-58,-145,-87,102,15,-115,33,-5,17,18,29,-73
-50,-131,-81,91,16,-106,26,-21,13,9,24,-70
-38,-138,-100,88,31,-119,35,-4,17,4,20,-65
-46,-130,-83,88,19,-106,23,-16,14,8,24,-54
-51,-145,-94,98,22,-119,50,8,14,-2,6,-63
-46,-116,-70,81,12,-93,30,-13,18,15,28,-37
-113,-204,-91,159,-11,-147,25,-9,4,-12,-18,-76
-36,-76,-40,56,2,-58,79,83,99,106,99,6
103,113,10,-108,47,62,22,113,220,283,285,161
450,416,-34,-433,242,191,-337,85,252,643,813,704
763,601,-163,-682,463,218,-767,-393,-195,493,921,973
376,-306,-682,-35,529,-494,-628,-691,-903,-591,-285,5
88,-655,-742,284,415,-698,-251,-323,-720,-721,-609,-408
20,-287,-307,134,164,-297,-41,-49,-206,-221,-188,-171
-105,-244,-139,175,17,-191,59,-1,-43,-81,-119,-166
-56,-144,-88,100,16,-116,86,-4,61,27,21,-100
-36,-126,-90,81,27,-107,117,38,76,19,13,-88
-59,-135,-76,97,9,-105,98,49,74,27,13,-71
-65,-124,-60,95,-2,-92,100,44,76,27,11,-90
-84,-135,-51,109,-16,-93,94,55,73,24,-1,-91
-66,-127,-61,97,-2,-94,88,51,76,22,4,-88
-53,-111,-58,82,2,-84,93,59,71,4,5,-91
-104,-150,-47,127,-28,-99,85,45,63,-8,7,-92
-76,-143,-67,110,-4,-105,112,74,93,52,11,-106
-30,-80,-50,55,10,-65,106,104,130,111,45,-66
-42,-88,-46,65,2,-67,80,99,126,95,43,-48
-46,-83,-37,65,-4,-60,75,99,129,101,47,-43
-37,-67,-30,52,-3,-49,74,102,136,102,56,-24
-41,-70,-29,56,-6,-49,64,96,130,95,58,-13
-34,-21,13,27,-23,-4,68,119,153,124,90,17
-59,-30,28,44,-43,-1,49,132,177,145,109,29
-51,-4,47,27,-49,22,51,156,209,184,150,67
94,172,78,-133,7,125,90,233,295,266,238,141
115,199,84,-157,15,141,61,254,322,298,256,159
69,165,96,-117,-14,130,46,267,330,318,264,172
71,174,102,-123,-16,138,48,274,364,354,300,206
87,198,111,-143,-12,154,41,258,365,369,332,228
104,200,96,-152,4,147,39,259,352,357,347,223
109,180,71,-145,19,126,35,244,334,340,323,230
65,123,58,-95,3,91,22,243,301,303,279,198
39,80,41,-60,-1,60,-10,230,265,265,229,158
85,108,23,-97,31,65,20,159,220,223,188,154
25,30,4,-28,10,17,47,97,152,153,132,94
-10,-14,-5,12,-2,-10,43,73,109,121,96,57
9,-20,-29,6,19,-24,47,56,78,99,79,47
-24,-63,-39,43,8,-51,43,38,54,79,56,30
-26,-53,-27,39,1,-40,48,28,53,69,50,27
-77,-101,-24,90,-27,-62,40,0,40,25,0,-9
-85,-99,-14,92,-35,-56,60,23,51,38,19,-27
9,3,-6,-5,7,-1,84,68,76,89,74,8
-15,-10,6,12,-10,-2,64,60,76,84,54,24
-51,-39,12,44,-32,-13,58,54,72,78,40,7
-39,-48,-9,43,-15,-28,63,53,72,80,36,22
-57,-66,-9,62,-23,-37,56,44,67,71,49,58
-42,-26,16,34,-29,-5,65,48,71,76,54,68
-70,-55,15,62,-43,-20,55,52,60,66,26,41
-54,-42,12,48,-33,-15,44,12,48,53,16,29
20,31,11,-25,4,20,83,17,83,83,48,89
-21,-16,5,18,-12,-6,82,51,81,83,46,115
-62,-54,8,57,-34,-23,56,37,57,62,22,87
-28,-37,-10,33,-9,-23,64,35,54,57,18,79
-28,-44,-16,36,-6,-29,58,30,45,45,7,58
-21,-57,-36,39,7,-46,60,28,38,31,-1,44
15,-52,-67,19,41,-60,63,35,36,19,-5,33
-53,-97,-45,75,-4,-71,35,3,0,-9,-34,9
-52,-64,-12,58,-20,-38,65,-12,-30,-16,-57,65
-10,-26,-16,18,3,-20,78,21,1,13,-31,119
-27,-81,-54,54,14,-67,46,25,6,10,-25,111
4,-59,-63,27,34,-61,61,31,3,9,-25,120
-34,-91,-57,63,12,-74,52,35,7,6,-20,123
-24,-81,-57,53,17,-69,49,21,2,4,-20,131
-6,-59,-53,33,24,-56,50,13,10,5,-23,128
-77,-134,-56,106,-10,-95,34,-13,-19,-32,-52,122
-15,-69,-54,42,20,-61,63,-20,-32,-39,-62,124
13,-43,-56,15,35,-49,84,2,1,-7,-54,112
-27,-79,-53,53,13,-66,70,6,6,1,-50,124
-31,-76,-46,54,8,-61,62,4,3,1,-47,119
-36,-75,-39,56,2,-57,55,6,7,7,-40,95
-42,-75,-33,59,-4,-54,42,4,3,-2,-47,83
-30,-59,-29,45,0,-44,38,6,8,-12,-55,84
-43,-65,-23,54,-10,-44,25,-6,-9,-26,-37,72
-104,-121,-17,113,-43,-69,22,-26,-32,-32,-60,52
-14,-25,-12,20,-1,-18,77,2,-1,-1,-55,97
11,18,7,-15,2,13,93,17,33,28,-9,116
-42,-16,26,29,-34,5,90,11,48,43,3,110
-30,-9,21,20,-25,6,97,39,52,45,10,119
-7,-19,-12,13,3,-15,77,45,40,49,27,119
-1,-17,-16,9,8,-16,27,12,30,49,28,119
26,4,-22,-15,24,-9,-10,-6,19,28,-6,96
38,-36,-73,-1,56,-54,-20,-15,-10,8,-27,73
15,-57,-71,21,43,-64,-27,-47,-44,-18,-54,69
56,1,-55,-28,55,-27,26,-38,-53,-33,-79,60
8,-56,-64,24,36,-60,44,-10,-41,-29,-74,53
-47,-103,-57,75,5,-80,38,-17,-33,-25,-75,43
-58,-121,-63,90,2,-92,49,-14,-34,-27,-85,20
-55,-113,-58,84,2,-86,41,-15,-33,-26,-72,25
-76,-135,-59,106,-9,-97,48,-16,-39,-51,-87,-1
-49,-119,-70,85,10,-94,42,-13,-29,-35,-62,23
-63,-142,-79,103,8,-110,61,-17,-43,-62,-89,-18
-91,-165,-74,128,-8,-119,68,-33,-43,-53,-95,-24
-47,-98,-51,73,2,-75,85,-8,-10,-13,-48,22
-42,-82,-40,62,-1,-61,100,75,34,16,-25,15
-13,16,30,-1,-21,23,66,75,104,123,69,103
197,127,-70,-162,133,28,-37,209,242,363,356,395
718,478,-240,-598,478,119,-473,-13,78,575,811,974
586,142,-444,-363,515,-151,-682,-686,-733,-247,94,478
108,-544,-653,218,381,-598,-376,-611,-1004,-934,-798,-396
-31,-439,-408,235,189,-423,-137,-201,-515,-527,-513,-292
-104,-232,-128,168,12,-180,58,-7,-154,-189,-232,-135
-32,-100,-67,66,18,-83,139,74,-5,-32,-95,-49
-87,-121,-34,104,-26,-77,116,26,-16,-27,-86,-57
-106,-133,-27,119,-39,-80,121,47,4,-25,-98,-68
-101,-112,-11,107,-45,-61,104,37,8,-11,-71,-51
-120,-122,-3,121,-58,-62,107,40,-3,-32,-86,-68
-117,-116,1,116,-59,-57,93,40,-2,-20,-64,-54
-91,-104,-13,97,-39,-58,100,29,-12,-35,-77,-58
-92,-120,-28,106,-32,-73,86,7,-16,-32,-84,-51
-90,-114,-24,102,-32,-69,85,28,-16,-33,-110,-80
-23,-46,-23,35,0,-34,124,86,38,-13,-100,-70
-85,-99,-14,92,-36,-56,104,77,58,4,-80,-56
-111,-95,16,103,-63,-40,94,82,56,8,-81,-64
-93,-79,14,86,-53,-33,91,85,61,21,-67,-52
-60,-61,-1,61,-29,-31,81,84,65,51,-40,-28
-53,-40,13,46,-33,-13,77,90,72,68,-14,-15
-45,-17,28,31,-37,5,69,109,103,93,17,-7
-74,-52,23,63,-48,-14,65,124,112,95,4,-16
-42,-3,39,22,-40,18,54,151,148,133,54,34
73,134,61,-103,6,97,48,218,228,215,137,102
78,139,61,-109,8,100,41,238,251,264,169,144
115,201,86,-158,14,143,34,246,279,291,209,191
109,206,96,-158,6,151,27,261,285,289,203,182
104,198,95,-151,4,146,21,252,274,298,194,174
96,190,94,-144,0,142,13,242,267,286,183,165
101,199,97,-150,2,148,5,221,248,275,190,166
64,139,75,-102,-6,107,0,188,216,226,148,146
27,64,37,-46,-5,50,-15,150,171,190,112,112
71,109,38,-90,16,73,12,113,127,156,86,80
15,46,31,-31,-8,38,53,75,67,78,13,22
1,25,24,-13,-12,24,47,42,36,52,-7,-4
-13,4,18,4,-15,11,53,26,23,19,-50,-41
-61,-50,11,56,-36,-20,53,10,5,1,-73,-55
-56,-50,6,53,-31,-21,56,-3,-4,-13,-62,-55
-47,-47,-1,47,-23,-24,54,-12,-6,-15,-75,-62
-106,-77,29,91,-67,-24,25,-28,-27,-18,-90,-70
-74,-32,42,52,-58,5,67,-16,-32,-14,-61,-86
15,48,33,-32,-9,40,70,16,10,37,-37,-49
-27,2,29,12,-28,15,38,29,21,35,-52,-31
-14,9,23,2,-19,16,48,40,20,33,-60,-38
-5,10,15,-2,-11,12,44,45,28,38,-69,-30
-35,-12,24,23,-29,6,44,33,17,30,-61,-32
-13,33,46,-11,-30,39,49,33,21,44,-52,-28
-47,-9,38,28,-43,15,24,21,1,29,-50,-35
-7,20,26,-7,-17,23,-16,-12,-20,36,-37,-63
56,75,19,-66,18,47,15,4,12,34,-52,-74
3,9,6,-6,-2,7,41,19,10,-3,-87,-65
-21,-4,18,12,-20,7,30,1,-25,8,-92,-68
-24,8,32,8,-28,20,40,3,-24,14,-90,-61
-44,-15,29,29,-36,7,30,-12,-37,-1,-97,-77
-18,8,26,4,-21,17,40,-14,-38,3,-95,-88
-52,-28,24,39,-38,-2,22,-20,-29,-23,-104,-91
-96,-71,25,84,-60,-23,-14,-47,-65,-63,-132,-121
-3,15,18,-6,-11,17,37,-20,-48,-25,-111,-86
-20,2,22,9,-21,12,62,-20,-29,-12,-92,-85
-51,-38,14,44,-32,-12,50,-39,-47,-41,-128,-113
-6,-17,-11,12,3,-14,58,-33,-44,-42,-147,-107
-13,-27,-14,20,1,-21,54,-35,-44,-46,-143,-114
-30,-29,1,29,-15,-14,42,-36,-40,-44,-146,-116
-48,-12,36,30,-42,12,31,-33,-40,-44,-144,-119
-89,-64,24,76,-56,-20,-1,-40,-66,-75,-145,-121
-57,-47,10,52,-34,-18,17,-69,-96,-93,-163,-140
10,32,22,-21,-6,27,52,-54,-81,-66,-138,-121
-17,2,19,7,-18,11,19,-31,-59,-49,-109,-94
-34,-14,20,24,-27,3,20,-33,-59,-49,-107,-97
-29,-9,20,19,-24,5,21,-23,-47,-61,-96,-85
-55,-7,48,31,-51,20,20,-23,-45,-46,-89,-84
-18,49,66,-16,-42,57,48,-16,-37,-21,-87,-77
-32,47,79,-8,-56,63,63,-10,-39,-18,-91,-67
-68,-14,54,41,-61,20,73,-9,-31,-27,-93,-84
65,96,31,-81,17,63,29,11,12,-32,-97,-80
70,111,41,-90,14,76,-50,-12,-12,-21,-99,-67
45,40,-5,-43,24,18,-65,-56,-56,-46,-102,-71
58,32,-26,-45,42,3,-51,-66,-73,-62,-106,-69
29,16,-13,-22,20,1,-46,-61,-87,-52,-105,-69
2,-7,-9,3,6,-8,-33,-59,-85,-68,-114,-80
-48,-45,4,46,-26,-20,-13,-54,-83,-75,-110,-90
-80,-80,0,80,-40,-39,-7,-50,-96,-90,-143,-121
-101,-112,-11,107,-45,-61,-18,-59,-105,-121,-169,-147
-51,-61,-10,56,-20,-36,29,-32,-85,-125,-153,-154
-50,-48,2,49,-26,-23,44,-32,-75,-84,-129,-108
-52,-63,-11,57,-20,-37,22,-61,-83,-94,-136,-101
-28,-66,-37,47,5,-51,26,-36,-73,-100,-135,-114
-41,-45,-4,44,-19,-24,2,-50,-77,-85,-102,-88
-82,-80,3,81,-42,-39,34,-22,-58,-102,-132,-131
-46,40,86,3,-66,62,49,23,28,35,-11,-33
74,151,77,-113,-1,113,-12,98,145,203,181,144
518,420,-97,-469,307,161,-350,72,161,536,726,751
705,495,-210,-600,458,142,-695,-520,-463,116,516,759
189,-290,-479,50,335,-385,-520,-735,-1050,-902,-671,-282
8,-454,-461,223,235,-457,-246,-297,-715,-756,-690,-453
-27,-157,-129,92,51,-143,-55,-94,-259,-295,-292,-231
-85,-115,-30,100,-27,-72,49,-29,-87,-163,-220,-200
-28,-34,-6,31,-10,-20,50,-10,-51,-104,-131,-138
-126,-95,31,110,-78,-31,36,-9,-53,-125,-151,-171
-103,-52,51,78,-77,-1,44,-23,-50,-103,-139,-153
-70,-18,52,44,-61,17,87,-32,-48,-105,-143,-155
-101,-54,47,77,-74,-3,58,-12,-26,-81,-115,-132
-95,-47,49,71,-72,1,51,-12,-29,-85,-121,-134
-83,-43,41,63,-62,-1,50,2,-23,-82,-121,-132
-92,-40,52,65,-72,6,42,4,-18,-75,-111,-124
-110,-38,72,74,-91,17,40,11,-18,-79,-120,-129
-91,-24,67,57,-79,21,36,14,-13,-69,-108,-120
-134,-69,64,101,-99,-2,20,-17,-32,-75,-108,-132
-57,8,65,24,-61,36,15,-24,-26,-78,-107,-132
-7,59,66,-27,-37,62,47,27,23,-41,-74,-92
-62,1,63,30,-62,31,37,48,31,-19,-53,-74
-31,45,76,-7,-54,60,30,59,52,3,-27,-59
-54,46,101,4,-78,73,26,77,77,24,0,-39
-5,100,105,-48,-55,102,10,108,108,48,25,-15
9,116,108,-63,-50,112,-2,145,145,87,56,1
36,147,112,-92,-38,129,-53,175,183,142,114,61
153,297,144,-225,5,220,-77,231,248,214,200,159
106,259,154,-183,-24,206,-64,228,249,214,208,161
105,242,138,-174,-17,190,-61,214,239,204,207,158
113,245,131,-179,-9,188,-51,211,241,206,211,161
104,223,119,-164,-8,171,-48,195,230,195,184,142
121,234,112,-178,4,173,-37,179,208,173,158,131
21,125,104,-73,-42,114,-40,137,163,128,121,100
35,131,96,-83,-31,113,-42,88,113,85,87,68
57,147,89,-102,-16,118,-13,40,60,33,44,35
-14,68,82,-27,-49,75,-9,3,22,-10,3,5
-14,64,78,-25,-46,71,-11,-21,0,-38,-18,-9
-29,43,72,-7,-51,57,-8,-25,-6,-50,-22,-12
-42,24,66,9,-55,45,-12,-39,-23,-61,-35,-23
-22,38,61,-8,-42,49,-7,-35,-22,-62,-40,-25
-78,-15,63,46,-71,24,-34,-41,-31,-73,-47,-38
-52,13,65,19,-59,39,-53,-73,-58,-103,-74,-62
16,83,67,-50,-26,75,-26,-41,-27,-72,-48,-32
-15,56,71,-21,-43,64,-18,-17,-1,-46,-19,-7
-12,58,70,-23,-41,64,-22,-19,-1,-45,-17,-10
-16,65,80,-25,-48,72,-24,-12,7,-35,-6,-3
-36,55,91,-9,-64,73,-27,-10,12,-30,2,-1
-14,70,84,-29,-50,77,-31,-6,17,-23,2,2
-17,64,81,-23,-49,72,-31,-5,19,-20,-2,19
-63,13,76,25,-69,44,-40,-29,-8,-38,-17,4
-1,71,71,-35,-36,71,-60,-39,-21,-78,-23,-25
35,103,67,-69,-16,85,-44,-33,1,-82,1,-2
-11,50,61,-20,-36,55,-32,-46,-5,-78,-3,2
8,64,56,-36,-24,60,-38,-47,-11,-82,-10,-7
-8,43,51,-18,-30,47,-30,-47,-14,-78,-10,-5
-3,42,45,-19,-24,43,-32,-53,-23,-82,-20,-15
5,45,40,-25,-18,42,-26,-48,-25,-70,-17,-11
-72,-19,54,45,-63,17,-48,-74,-55,-93,-42,-33
-28,39,67,-6,-48,53,-77,-99,-76,-122,-62,-44
6,69,63,-38,-28,66,-48,-72,-50,-94,-40,-15
-40,20,60,10,-50,40,-39,-69,-44,-89,-39,-15
-15,43,58,-14,-37,50,-41,-71,-46,-91,-43,-15
-36,18,54,8,-45,36,-39,-71,-44,-89,-45,-14
-27,32,59,-3,-43,45,-42,-78,-47,-92,-42,-16
-55,8,62,24,-59,35,-36,-70,-42,-87,-33,-12
-83,-23,59,53,-71,18,-70,-101,-73,-118,-71,-42
1,62,60,-31,-30,61,-58,-94,-68,-110,-65,-29
-18,42,60,-12,-39,51,-33,-57,-38,-77,-27,3
-30,31,60,0,-46,45,-45,-63,-39,-83,-33,-2
-20,40,59,-10,-40,49,-37,-58,-29,-77,-28,6
-36,18,55,9,-46,36,-42,-61,-30,-77,-27,5
-7,40,47,-17,-28,43,-39,-59,-20,-74,-24,11
-56,-12,45,33,-51,16,-41,-61,-26,-77,-27,8
-3,72,74,-35,-38,73,-51,-78,-39,-90,-42,-10
68,162,94,-115,-14,127,-11,-45,9,-56,-11,25
0,78,77,-39,-39,77,24,-34,35,-43,13,47
22,92,70,-58,-24,81,1,-33,23,-50,8,44
34,85,50,-60,-8,67,-74,-48,2,-52,17,48
75,82,6,-78,34,44,-113,-83,-30,-59,17,58
84,78,-6,-81,44,36,-115,-91,-38,-80,-16,43
12,21,9,-17,1,15,-118,-101,-70,-98,-59,22
55,72,17,-64,19,44,-58,-70,-83,-67,-81,44
19,42,23,-31,-2,33,-35,-59,-51,-81,-69,21
-53,-34,20,43,-36,-7,-42,-75,-59,-122,-73,-18
-37,-19,19,28,-28,1,-33,-66,-66,-111,-68,-14
-66,-43,23,54,-44,-10,-34,-69,-67,-117,-61,-20
-55,-39,15,47,-35,-12,-29,-60,-74,-123,-75,-33
-64,-37,26,50,-45,-5,-32,-60,-64,-112,-57,-21
-108,-102,6,105,-56,-48,-52,-84,-85,-138,-112,-65
-7,6,13,0,-10,9,-67,-102,-80,-90,-84,-44
-5,-10,-5,7,0,-7,-9,-46,-38,-94,-73,-16
-41,4,45,18,-43,24,8,15,20,-34,-10,38
43,158,115,-101,-36,136,-25,37,121,126,151,141
359,428,70,-394,144,249,-300,52,204,467,630,626
714,700,-14,-707,364,342,-761,-384,-192,446,885,1048
401,-97,-498,-151,450,-298,-711,-766,-929,-616,-242,155
65,-611,-676,273,371,-643,-365,-438,-862,-914,-754,-428
63,-202,-265,69,164,-233,-119,-116,-311,-370,-294,-159
-56,-109,-53,83,-2,-81,3,-41,-90,-182,-183,-112
-97,-72,24,84,-60,-24,5,-32,-33,-99,-94,-52
-105,-64,42,85,-73,-11,31,-33,-24,-108,-94,-61
-105,-69,36,87,-70,-17,33,-25,-17,-91,-86,-59
-65,-29,37,46,-51,5,38,-20,-5,-80,-71,-42
-115,-87,28,101,-71,-29,11,-31,-19,-86,-89,-55
-73,-45,29,59,-51,-8,19,-60,-43,-100,-106,-72
-21,3,24,8,-22,14,60,-15,-2,-81,-88,-59
-69,-38,31,54,-50,-3,29,7,17,-49,-62,-38
-63,-31,31,47,-47,0,32,9,22,-57,-74,-48
-75,-39,36,56,-55,-2,28,12,41,-49,-69,-46
-50,-12,39,31,-44,13,24,22,50,-46,-69,-48
-73,-34,39,54,-56,3,26,10,43,-48,-73,-54
-90,-40,50,64,-70,5,-17,-4,35,-42,-66,-41
-11,45,56,-18,-33,50,-3,58,97,21,-14,19
-24,31,55,-4,-40,43,24,71,116,41,6,31
-9,48,56,-20,-33,52,9,80,119,46,21,34
19,88,69,-54,-25,78,9,126,173,97,66,68
8,98,90,-53,-41,94,-4,150,204,132,96,89
50,165,115,-108,-33,140,-7,193,255,196,154,141
34,170,136,-102,-51,153,-19,199,279,225,183,160
59,191,131,-125,-37,161,-59,211,301,248,208,186
161,287,126,-224,17,206,-63,262,355,309,274,260
143,266,123,-205,10,194,-52,257,343,294,272,257
119,236,117,-177,0,176,-45,236,313,264,244,229
108,221,114,-165,-3,167,-37,213,295,248,228,224
56,155,98,-106,-21,126,-34,162,248,203,181,184
43,116,73,-80,-15,94,-36,110,183,138,131,141
35,83,48,-59,-6,65,-33,72,138,93,98,109
-36,1,37,17,-36,19,-40,8,62,18,27,44
-3,28,31,-13,-17,30,-50,-35,49,-37,6,40
26,50,24,-38,1,37,-19,-10,65,-18,17,52
-37,-20,18,28,-28,-1,-8,-5,20,-39,-19,15
-15,-4,11,9,-13,4,-12,-5,23,-47,-16,14
-25,-12,13,18,-19,0,-6,-2,14,-42,-24,6
-5,14,19,-4,-13,16,-7,-1,10,-39,-25,-3
-27,-4,23,15,-25,9,-1,3,2,-28,-16,-7
-63,-36,27,49,-45,-4,-30,-23,5,-45,-30,-22
12,45,33,-29,-11,39,-28,-8,52,-27,-7,-4
14,48,34,-31,-10,40,8,19,62,-6,14,32
-2,28,30,-13,-17,28,2,7,53,-12,7,29
11,39,28,-25,-8,33,-3,4,54,-14,7,30
0,25,25,-13,-13,24,-5,-5,48,-16,3,31
3,24,21,-14,-10,23,-13,-11,44,-22,0,28
8,27,20,-18,-6,23,-13,-17,44,-18,-1,33
-46,-29,16,37,-31,-6,-23,-43,17,-27,-30,12
2,17,15,-10,-6,16,-38,-58,34,-59,-33,32
50,64,15,-57,17,39,-37,-54,36,-60,-5,36
-18,-8,10,13,-14,1,-28,-51,-2,-54,-11,2
-11,-1,10,6,-10,4,-26,-49,-3,-53,-26,1
-21,-11,10,16,-15,-1,-17,-44,-8,-49,-34,-6
-52,-42,10,47,-30,-16,-16,-48,-14,-66,-46,-12
-19,-9,10,14,-15,1,-23,-48,-17,-69,-51,-15
-45,-35,10,40,-27,-12,-27,-58,-21,-76,-60,-34
-49,-39,10,44,-29,-14,-48,-74,-54,-105,-74,-48
8,18,10,-13,-1,14,-33,-56,-69,-109,-76,-46
0,7,6,-4,-3,6,-2,-47,-46,-89,-63,-36
-9,-10,0,9,-4,-5,-7,-52,-46,-82,-57,-32
9,4,-5,-6,8,-1,-3,-49,-45,-80,-59,-34
-9,-21,-12,15,2,-16,-6,-51,-44,-77,-59,-35
-2,-16,-14,9,6,-14,-4,-50,-48,-76,-65,-40
-25,-34,-10,29,-7,-22,-8,-51,-38,-71,-61,-37
-63,-73,-10,68,-26,-42,-36,-81,-65,-108,-83,-55
9,1,-8,-5,8,-3,-40,-88,-80,-119,-88,-60
9,5,-4,-6,7,1,-30,-58,-48,-79,-52,-28
-21,-26,-6,24,-7,-16,-25,-54,-43,-70,-46,-20
-17,-18,-1,17,-8,-9,-18,-56,-48,-66,-43,-16
-21,-19,2,20,-11,-8,-10,-53,-42,-55,-34,-5
-9,16,24,-4,-17,20,-8,-57,-30,-53,-32,-4
13,74,61,-43,-25,67,6,-53,7,-43,-23,11
-23,35,58,-6,-41,46,19,-57,18,-26,-17,4
-11,33,44,-11,-28,38,48,-48,-6,-49,-35,-15
75,101,26,-88,24,63,31,-24,15,-64,-36,13
51,63,12,-57,19,37,-64,-53,5,-51,-15,23
58,39,-19,-49,38,10,-83,-81,-42,-68,-36,17
79,24,-55,-51,67,-15,-67,-71,-69,-98,-57,13
62,27,-35,-45,48,-3,-57,-70,-78,-102,-42,13
25,-12,-37,-7,32,-24,-39,-70,-80,-111,-72,1
-8,-51,-43,30,18,-47,-24,-58,-82,-105,-87,-14
-53,-99,-47,77,-3,-73,-25,-83,-91,-121,-105,-48
-39,-88,-48,63,5,-67,-52,-73,-123,-169,-143,-82
3,-48,-52,23,28,-50,-4,-32,-99,-151,-133,-57
-36,-92,-56,64,11,-74,16,-61,-77,-124,-113,-23
-31,-82,-51,57,10,-66,13,-63,-79,-133,-122,-24
-37,-89,-52,63,8,-70,17,-54,-73,-131,-126,-20
-55,-79,-24,67,-15,-51,-6,-68,-72,-126,-118,1
-53,-94,-41,74,-5,-67,42,-8,-52,-126,-132,-21
-83,-33,50,58,-66,8,26,16,25,-13,-17,48
96,113,17,-105,40,65,-51,97,140,172,192,249
692,526,-166,-609,429,180,-445,32,78,471,714,845
811,346,-465,-578,638,-60,-817,-540,-567,-36,364,718
292,-543,-835,126,563,-689,-554,-727,-1100,-993,-777,-304
56,-518,-574,231,315,-546,-218,-337,-704,-775,-701,-391
-47,-225,-178,136,66,-201,-36,-110,-243,-326,-309,-146
-74,-131,-57,103,-8,-94,64,-27,-83,-174,-217,-118
-92,-89,3,90,-47,-43,46,-25,-24,-112,-188,-86
-131,-126,5,128,-68,-60,57,-27,-64,-145,-195,-117
-64,-34,30,49,-47,-2,97,20,-33,-84,-105,-55
-100,-85,15,92,-58,-35,102,27,-1,-93,-138,-41
-105,-94,10,99,-57,-42,93,23,1,-86,-126,-29
-82,-75,7,78,-44,-34,94,22,-1,-83,-125,-26
-74,-81,-7,78,-33,-44,89,19,1,-83,-123,-24
-86,-77,8,82,-47,-34,87,19,-1,-78,-115,-15
-112,-73,38,92,-75,-18,86,8,4,-75,-115,-18
-150,-111,39,131,-94,-36,73,-9,-2,-83,-127,-47
-88,-62,26,75,-57,-18,81,45,-13,-72,-133,-48
5,45,40,-25,-18,42,104,89,35,-45,-84,5
-69,-8,61,39,-65,26,89,74,70,-39,-79,17
-86,-27,59,56,-72,16,80,92,76,-14,-75,17
-63,1,64,31,-63,32,76,112,96,0,-48,34
-68,18,86,24,-77,52,64,125,124,30,-27,44
2,86,84,-44,-41,85,66,165,170,76,15,79
-6,84,90,-40,-48,87,46,192,198,107,44,106
29,152,123,-91,-47,137,50,232,248,177,115,162
122,263,141,-193,-9,202,55,281,309,227,188,233
97,233,136,-166,-20,185,23,281,312,233,184,228
98,231,132,-165,-17,181,18,280,307,253,191,242
96,224,129,-160,-17,176,21,282,301,248,186,251
109,223,114,-166,-3,168,19,267,297,231,173,234
87,186,99,-137,-6,142,19,229,257,197,145,213
83,158,76,-121,3,117,23,172,206,146,96,168
24,67,44,-46,-10,55,1,105,127,64,18,125
-32,-3,30,17,-31,13,26,71,75,17,-28,113
33,57,24,-46,5,40,57,62,73,7,-22,91
-9,6,15,1,-12,10,24,26,28,-36,-63,46
-36,-23,12,29,-24,-6,24,15,14,-67,-78,32
-28,-22,6,24,-16,-8,33,10,12,-81,-91,27
-41,-38,3,39,-22,-17,45,6,9,-77,-96,23
-44,-47,-2,46,-21,-24,38,-1,3,-83,-97,16
-38,-44,-6,42,-16,-25,35,0,5,-48,-103,27
-96,-80,16,87,-55,-31,18,-20,-16,-75,-113,3
-48,-30,17,39,-32,-6,-6,-48,-37,-93,-111,-3
18,43,26,-30,-4,34,29,-7,3,-38,-69,54
-40,2,42,18,-41,22,44,8,5,-67,-77,49
-52,-22,30,37,-41,3,36,3,-4,-72,-77,44
-37,-25,12,31,-24,-6,38,5,-5,-71,-74,44
-28,-12,16,20,-22,2,30,-1,-12,-76,-70,38
-29,1,30,14,-29,15,32,1,-16,-75,-71,40
4,28,24,-16,-10,26,23,-9,-6,-63,-59,32
-44,-35,10,40,-27,-12,-5,-30,-22,-80,-83,32
-12,-41,-29,27,9,-35,5,-53,-67,-114,-127,26
37,-6,-43,-16,40,-24,34,-52,-63,-82,-97,25
-5,-38,-33,22,14,-35,28,-43,-58,-87,-100,17
0,-32,-32,16,16,-32,30,-41,-57,-98,-110,8
-8,-33,-25,21,8,-28,31,-31,-49,-95,-115,0
-31,-55,-23,43,-4,-39,27,-33,-51,-106,-111,-9
-36,-48,-12,42,-12,-30,36,-38,-49,-103,-110,-23
-59,-85,-27,72,-16,-56,-4,-51,-65,-106,-137,-41
-21,-74,-53,47,16,-63,14,-68,-77,-119,-131,-38
63,14,-49,-39,56,-17,54,-50,-60,-127,-129,-32
1,-46,-47,23,24,-46,16,-38,-53,-120,-126,-30
-30,-74,-44,52,7,-59,15,-40,-55,-120,-120,-22
-30,-71,-40,51,5,-55,15,-40,-56,-125,-122,-21
-34,-74,-40,54,4,-57,14,-39,-52,-124,-134,-26
-37,-85,-48,61,5,-66,15,-41,-59,-128,-150,-37
-16,-68,-51,42,18,-60,15,-37,-50,-129,-139,-33
-24,-72,-48,48,12,-60,9,-31,-63,-132,-153,-44
-42,-95,-53,68,5,-74,12,-65,-61,-120,-129,-36
56,31,-25,-43,40,3,62,-55,-4,-82,-76,21
38,26,-11,-32,24,7,74,-20,-16,-89,-102,27
28,13,-15,-20,21,-1,64,-19,-12,-99,-109,23
23,27,3,-25,10,15,60,-5,0,-91,-100,27
27,14,-13,-20,20,0,11,-4,-18,-99,-105,23
57,40,-17,-49,37,11,-41,-23,-27,-91,-95,26
65,25,-40,-45,52,-8,-47,-49,-55,-100,-107,13
81,2,-79,-41,80,-38,-43,-64,-75,-111,-125,8
6,-66,-72,31,39,-69,-48,-78,-90,-126,-141,-17
30,-53,-82,12,56,-67,-29,-77,-90,-106,-131,1
51,-38,-89,-6,70,-63,8,-45,-90,-111,-116,7
-36,-113,-77,75,21,-95,25,-37,-89,-126,-144,-47
