I,II,III,aVR,aVL,aVF,V1,V2,V3,V4,V5,V6
-80,89,170,-4,-125,129,34,20,4,-59,-87,-83
-81,86,167,-3,-125,127,29,21,4,-73,-92,-95
-84,80,164,2,-124,122,22,19,1,-77,-107,-102
-87,71,157,8,-122,114,16,18,-6,-89,-129,-102
-88,68,156,9,-123,112,9,12,-4,-79,-119,-95
-101,57,159,22,-130,108,3,18,-15,-86,-133,-102
-90,70,160,10,-126,115,4,17,-5,-70,-114,-86
-90,77,167,6,-129,122,33,29,-5,-83,-142,-121
-123,77,200,23,-162,138,93,120,78,-64,-136,-149
-108,28,136,39,-122,82,111,133,74,-38,-99,-112
140,46,-94,-93,117,-24,-104,17,137,297,360,230
465,230,-235,-348,350,-2,-348,-63,436,772,854,586
385,156,-229,-270,307,-36,-267,-108,-47,259,274,250
77,77,0,-77,38,38,-42,-178,-626,-444,-303,-99
-156,143,299,6,-227,221,257,-118,-466,-522,-394,-203
-286,64,350,111,-318,207,435,-101,-391,-511,-452,-314
-275,41,317,117,-296,179,413,-223,-371,-458,-392,-302
-247,35,282,106,-264,158,354,-249,-293,-371,-353,-269
-157,52,210,52,-184,131,133,-135,-146,-211,-213,-166
-62,82,144,-10,-103,113,-9,-10,-15,-102,-129,-107
-60,76,137,-8,-99,107,-7,-1,-17,-89,-125,-101
-55,87,143,-16,-100,115,-21,9,4,-68,-105,-84
-58,80,138,-11,-98,109,-22,18,4,-64,-105,-83
-62,80,142,-9,-101,111,-36,12,5,-55,-93,-76
-65,75,140,-6,-103,107,-44,17,8,-52,-93,-77
-72,73,146,-1,-109,109,-43,13,9,-47,-87,-71
-75,70,145,2,-110,107,-51,16,11,-42,-83,-70
-73,71,144,0,-108,107,-70,11,13,-39,-79,-67
-64,84,148,-11,-106,116,-70,7,16,-32,-71,-65
-52,85,137,-17,-95,111,-71,4,15,-26,-64,-64
-54,93,147,-20,-101,120,-76,0,19,-19,-54,-59
-72,96,167,-12,-120,131,-75,-3,20,-12,-48,-60
-51,94,145,-22,-98,119,-76,-7,19,-7,-38,-51
-18,95,113,-39,-66,104,-88,-33,12,0,-17,-38
-8,94,102,-43,-56,98,-109,-55,24,5,0,-24
-1,95,97,-47,-50,96,-116,-59,30,12,14,2
-3,89,91,-43,-47,90,-121,-62,21,14,25,17
2,87,85,-44,-42,86,-138,-69,18,9,28,22
-1,78,80,-39,-41,79,-156,-76,11,4,33,29
14,90,76,-52,-31,82,-166,-70,6,-1,34,36
36,104,68,-71,-16,86,-161,-65,10,-5,27,38
21,87,65,-54,-22,76,-154,-59,17,-10,23,31
35,92,57,-64,-11,74,-148,-54,25,-5,17,27
12,94,83,-53,-36,88,-141,-47,29,4,12,21
-13,101,114,-45,-64,107,-135,-29,43,17,5,15
1,117,115,-59,-57,116,-119,1,76,35,9,10
-35,113,149,-39,-92,131,-97,36,87,35,14,3
-45,106,150,-30,-98,128,-81,51,84,28,3,-4
-53,99,152,-23,-103,125,-69,59,86,25,-8,-11
-64,126,190,-31,-127,158,-48,71,84,20,-21,-19
-66,123,189,-28,-128,155,-28,79,85,15,-22,-26
-77,100,177,-12,-127,138,-11,81,88,18,-19,-28
-73,108,181,-18,-127,144,0,80,93,23,-20,-23
-70,110,180,-20,-125,145,-8,80,95,26,-15,-20
-66,113,179,-23,-123,146,-11,80,95,29,-15,-17
-63,117,181,-27,-122,148,-9,79,95,34,-14,-12
-29,119,148,-45,-88,133,-11,74,95,34,-9,-10
-38,120,159,-41,-99,139,-10,71,95,28,-6,-14
-87,122,209,-18,-148,165,-10,68,95,39,-3,-19
-87,125,212,-19,-150,168,-10,63,91,44,2,-21
-87,126,214,-20,-151,170,-10,60,85,37,5,-25
-105,115,220,-5,-163,167,-10,64,80,33,1,-30
-92,125,218,-17,-155,171,-10,65,74,26,-5,-28
-54,139,193,-43,-124,165,-10,65,69,22,-10,-25
-53,124,176,-35,-115,150,-8,65,63,16,-16,-22
-66,115,181,-24,-124,148,-3,65,60,10,-21,-19
-75,106,181,-15,-129,143,0,64,57,5,-26,-16
-92,94,186,-2,-139,140,4,60,55,-1,-30,-14
-94,90,184,2,-139,136,8,60,52,-7,-30,-28
-102,75,177,13,-140,126,10,60,49,-9,-33,-38
-98,73,171,12,-135,122,28,60,50,3,-35,-34
-69,94,163,-13,-116,129,38,60,50,8,-35,-35
-66,93,159,-14,-113,125,32,56,50,3,-31,-35
-64,85,149,-11,-106,116,31,55,50,2,-30,-35
-79,82,161,-1,-120,121,27,55,50,-2,-30,-46
-103,74,177,14,-141,126,25,56,49,-4,-25,-51
-105,70,175,18,-140,122,27,54,45,-7,-25,-49
-105,78,183,14,-144,130,31,57,46,-9,-25,-50
-87,92,179,-3,-133,135,32,60,42,-13,-27,-50
-103,88,192,7,-147,140,37,60,40,-15,-32,-50
-64,93,157,-15,-111,125,38,60,39,-12,-26,-46
-24,96,119,-36,-72,107,42,60,44,-9,-24,-39
-88,94,182,-3,-135,137,39,61,44,-6,-19,-33
-81,115,195,-17,-139,155,46,60,49,-3,-16,-26
-40,147,187,-53,-114,167,121,118,87,30,-9,-20
-36,170,207,-67,-122,188,181,160,113,62,26,-2
-26,167,193,-70,-110,180,103,126,112,69,29,15
-2,152,154,-75,-78,153,-31,90,103,81,35,27
28,143,115,-86,-44,129,-58,57,100,76,58,42
11,128,117,-70,-53,122,-44,37,79,50,43,40
-24,105,130,-41,-77,117,-35,31,44,27,11,11
-47,78,125,-16,-86,101,-2,27,32,1,-35,-34
-57,63,120,-4,-89,91,8,26,26,-11,-52,-46
-53,61,114,-5,-84,87,12,20,20,-27,-47,-43
-55,54,108,0,-82,81,20,21,11,-44,-56,-50
-51,53,104,-1,-78,79,22,22,8,-26,-49,-47
-52,44,96,4,-75,70,31,27,6,-34,-62,-65
-49,43,92,2,-71,67,28,25,18,-10,-45,-56
-53,25,78,14,-65,51,34,41,22,-23,-53,-61
-122,14,136,54,-129,75,92,130,87,8,-53,-58
-120,-12,108,66,-114,48,124,171,96,20,-72,-69
105,-48,-153,-28,129,-100,-36,86,122,228,266,158
412,83,-329,-247,370,-122,-280,16,445,789,874,592
453,71,-382,-262,417,-155,-279,-47,113,455,475,375
193,-30,-223,-81,208,-127,-76,-185,-579,-320,-182,-20
-81,41,123,20,-103,82,234,-229,-503,-465,-287,-119
-251,-11,241,131,-246,115,445,-221,-364,-454,-362,-242
-310,-102,209,206,-259,54,463,-224,-337,-383,-319,-234
-268,-100,168,184,-218,34,439,-203,-230,-288,-249,-180
-185,-90,94,137,-139,2,231,-117,-121,-156,-132,-100
-91,-82,9,87,-50,-36,70,39,32,-27,-24,-30
-45,-73,-28,60,-8,-50,63,75,60,0,2,-18
-41,-68,-27,55,-7,-47,38,66,59,17,13,-6
-8,-54,-46,31,19,-50,38,73,62,14,-1,-20
-2,-46,-44,24,22,-45,34,67,58,15,-2,-22
-30,-74,-44,52,7,-58,35,72,62,15,-2,-16
-39,-77,-38,58,0,-57,35,66,59,17,10,-12
-25,-73,-48,49,12,-60,34,62,69,27,21,-5
0,-72,-71,36,36,-71,36,56,73,33,28,0
1,-69,-70,34,35,-69,23,51,75,41,31,5
0,-70,-70,35,35,-70,10,45,75,39,29,13
8,-62,-70,27,40,-66,-4,40,79,44,31,18
8,-61,-69,26,39,-65,-18,35,81,45,29,15
19,-53,-72,17,46,-63,-32,27,78,45,40,14
10,-73,-83,32,47,-77,-35,21,74,67,85,45
-2,-97,-95,50,47,-96,-35,14,69,72,103,51
19,-94,-113,38,66,-103,-35,8,65,69,98,43
22,-96,-118,37,70,-106,-38,1,60,71,116,77
33,-94,-128,31,81,-111,-47,-10,56,69,121,80
37,-95,-132,30,85,-114,-58,-22,51,71,121,73
38,-93,-131,28,85,-112,-67,-32,50,66,131,95
78,-86,-163,4,121,-124,-65,-31,49,65,130,100
86,-80,-166,-3,126,-122,-57,-25,46,64,127,93
79,-72,-151,-3,115,-111,-51,-22,43,61,124,89
73,-67,-139,-3,106,-103,-44,-14,51,59,121,82
59,-58,-118,0,89,-88,-36,11,79,62,114,78
39,-72,-111,17,75,-91,-19,40,111,71,111,71
36,-70,-105,17,71,-87,14,61,130,77,106,60
26,-61,-87,17,57,-74,40,93,144,90,102,49
-17,-79,-62,48,23,-70,61,114,151,87,94,37
-21,-67,-46,44,13,-56,70,114,144,72,65,30
-11,-46,-35,29,12,-40,78,115,137,62,54,27
-24,-56,-32,40,4,-44,101,118,131,55,56,23
-31,-76,-45,54,7,-60,98,121,124,45,55,20
-30,-76,-46,53,9,-61,94,119,117,55,55,14
-30,-66,-36,48,3,-51,91,116,122,77,55,24
-32,-61,-29,47,-1,-45,86,113,131,72,53,37
-40,-55,-15,48,-12,-35,84,110,129,68,42,34
-28,-55,-27,42,0,-41,78,107,130,66,60,34
-11,-55,-44,33,17,-49,76,105,130,58,73,31
-20,-54,-35,37,8,-44,68,104,130,65,66,28
-19,-56,-37,38,9,-46,88,114,128,80,82,42
-22,-52,-30,37,4,-41,108,121,124,80,80,39
-20,-50,-30,35,5,-40,104,119,126,79,64,25
-15,-50,-35,33,10,-42,106,120,125,81,66,18
-23,-50,-27,37,2,-38,105,120,125,79,64,18
-20,-66,-47,43,14,-56,105,120,126,80,60,35
-30,-77,-47,54,9,-61,101,117,107,63,60,32
-45,-77,-32,61,-7,-54,100,112,99,43,59,23
-54,-83,-29,69,-13,-56,100,109,103,37,48,18
-48,-82,-35,65,-6,-58,95,105,93,32,35,9
-41,-91,-49,66,4,-70,94,101,87,28,26,3
-45,-90,-45,68,1,-67,96,98,79,24,20,-4
-38,-74,-36,56,0,-55,100,95,72,19,15,-7
-39,-71,-32,55,-3,-51,100,93,67,16,9,-10
-41,-64,-24,53,-8,-44,102,90,62,13,3,-14
-42,-60,-18,51,-12,-39,105,87,59,10,1,-14
-13,-53,-40,33,13,-46,105,85,55,7,5,-9
-1,-51,-50,27,24,-50,101,81,51,5,8,-11
-41,-77,-36,59,-2,-57,100,80,49,3,10,-7
-52,-87,-35,69,-8,-60,100,79,50,0,14,-5
-55,-79,-24,68,-15,-51,100,81,49,-1,15,-5
-58,-79,-21,68,-18,-49,99,78,51,-5,12,-10
-42,-72,-31,57,-5,-51,101,83,49,-5,3,-19
-46,-72,-25,59,-10,-48,109,87,54,2,2,-5
-59,-48,11,54,-35,-18,143,118,84,16,24,7
-60,-16,45,38,-52,14,227,183,116,50,43,23
-37,-10,27,24,-32,8,214,170,113,55,38,31
4,3,-2,-4,3,1,91,122,112,60,71,51
29,-18,-47,-5,38,-32,20,96,122,91,114,86
30,-38,-68,4,49,-53,-4,59,93,63,82,59
5,-34,-40,15,23,-37,27,50,59,30,40,23
-29,-78,-48,53,10,-63,75,53,47,12,16,6
-34,-86,-52,60,10,-69,94,50,35,-28,0,-6
-25,-72,-47,48,11,-59,96,45,34,-38,-4,-9
-20,-74,-53,47,17,-63,91,43,28,-42,-25,-19
-16,-62,-46,39,15,-54,89,39,23,-38,-24,-23
-34,-89,-56,61,12,-72,85,33,22,-40,-26,-30
-51,-97,-46,74,-2,-71,86,45,9,-41,-26,-32
-65,-91,-26,79,-19,-59,88,50,24,-36,-22,-33
-82,-102,-19,92,-31,-60,126,93,58,-47,-36,-42
-112,-83,29,97,-70,-27,177,168,106,-30,-73,-101
-25,-117,-92,71,34,-104,107,123,59,52,77,19
299,-12,-311,-144,305,-161,-164,-15,279,577,747,516
471,103,-368,-287,419,-132,-287,-60,377,744,817,573
294,21,-273,-157,283,-126,-133,-86,-301,-17,68,125
6,24,18,-15,-7,21,123,-82,-558,-445,-252,-81
-209,-2,207,105,-208,102,415,-17,-338,-456,-338,-206
-293,-97,196,195,-244,49,492,-73,-330,-445,-355,-257
-282,-116,166,199,-224,25,466,-174,-306,-373,-287,-214
-203,-103,100,153,-151,-1,352,-175,-234,-274,-213,-161
-143,-99,45,121,-94,-27,150,-44,-67,-108,-76,-77
-86,-101,-16,93,-35,-58,86,39,11,-47,-29,-39
-36,-83,-47,60,6,-64,63,36,12,-34,-10,-22
-28,-64,-36,46,4,-49,52,42,26,-26,-23,-26
-24,-56,-32,40,4,-43,50,34,16,-28,-25,-23
-26,-49,-24,38,-1,-36,39,34,23,-21,-16,-19
-23,-42,-19,33,-2,-30,36,30,19,-21,-17,-21
-7,-36,-29,22,11,-33,27,29,19,-21,-7,-16
0,-29,-29,15,14,-29,26,23,15,-33,-4,-12
-27,-46,-19,37,-4,-32,25,17,12,-28,5,-6
-36,-77,-41,56,3,-59,25,13,10,-22,10,-3
-18,-70,-52,44,17,-60,25,5,6,-18,18,3
-6,-59,-53,33,23,-55,26,2,5,-11,31,7
-6,-61,-56,34,25,-58,18,-7,2,-7,41,13
1,-58,-59,28,31,-59,-3,-17,-1,-7,47,23
5,-55,-60,25,33,-57,-34,-30,-3,-13,43,29
4,-55,-59,25,32,-57,-55,-40,-7,-14,53,37
47,-53,-100,3,74,-76,-66,-56,-10,-9,65,40
70,-49,-119,-10,95,-84,-74,-59,-11,-4,81,56
62,-50,-113,-5,88,-81,-83,-63,-24,0,105,84
68,-46,-114,-11,92,-80,-103,-88,-26,-3,91,85
64,-44,-108,-10,87,-76,-101,-88,-16,-7,77,80
66,-46,-111,-10,89,-78,-94,-82,-9,-10,81,78
61,-38,-99,-11,80,-69,-90,-79,-1,-14,80,73
44,-35,-79,-4,62,-56,-83,-55,7,-15,85,71
62,-27,-88,-17,75,-57,-79,-33,20,-5,85,65
47,-24,-70,-11,59,-47,-63,-11,43,7,84,56
5,-16,-21,6,13,-18,-43,13,68,21,75,47
-3,-10,-7,7,3,-9,-16,30,86,36,65,39
-23,-23,0,23,-11,-11,6,51,97,38,60,33
-19,-10,9,14,-14,0,31,77,96,53,55,27
-25,-3,22,14,-23,9,47,86,91,42,49,22
-51,-14,37,32,-44,11,44,82,89,14,44,16
-46,-12,33,29,-39,10,45,80,84,16,38,11
-47,-8,39,27,-43,15,45,77,81,10,35,10
-45,-5,39,25,-42,16,45,74,77,9,32,10
-42,-1,41,21,-41,20,42,72,75,4,30,10
-37,1,39,18,-38,20,37,69,75,9,27,11
-33,8,41,12,-38,24,35,66,75,41,24,19
-43,19,62,12,-52,40,30,63,75,46,30,26
-37,19,56,9,-47,37,27,61,75,40,32,33
-31,13,44,8,-38,28,23,58,71,38,29,32
-25,11,36,7,-30,23,20,55,66,33,30,29
-21,7,29,7,-25,18,20,52,64,30,25,30
-26,1,26,12,-26,13,20,50,59,26,25,25
-15,7,22,4,-19,14,20,46,56,21,24,25
-31,-12,19,22,-25,3,20,45,52,16,16,24
-27,-13,14,20,-21,1,25,49,50,12,8,20
-23,7,29,8,-26,18,35,56,50,8,0,20
-54,-16,37,35,-45,10,46,60,46,3,-8,20
-59,-27,31,43,-45,2,47,60,45,0,-7,20
-55,-25,30,40,-42,2,44,62,45,-3,-1,20
-53,-26,26,39,-39,0,45,65,41,-5,2,17
-46,-22,24,33,-35,1,45,65,38,-9,8,14
-46,-20,26,32,-36,2,46,61,35,-10,9,11
-45,-20,24,32,-34,2,43,55,32,-13,3,8
-41,-16,25,28,-33,5,40,50,30,-16,-3,5
-54,-29,25,41,-39,-2,37,45,28,-15,-7,5
-61,-37,24,49,-42,-6,35,37,25,-15,-14,5
-74,-29,45,51,-60,8,31,37,22,-15,-19,5
-87,-29,58,57,-72,14,29,47,19,-15,-17,9
-79,-22,57,50,-67,17,34,52,16,-15,-14,10
-84,-22,62,53,-73,20,34,48,14,-16,-11,10
-72,-8,64,40,-68,28,36,52,26,-9,-9,14
-53,13,65,19,-59,39,33,50,39,8,-5,15
-21,39,60,-9,-41,49,70,80,54,18,-3,16
6,60,55,-33,-25,57,152,143,87,42,20,32
4,57,53,-31,-24,55,150,136,98,59,40,46
50,92,42,-71,4,67,24,87,93,65,44,55
101,113,12,-108,44,62,-69,53,97,78,64,74
89,68,-20,-78,54,24,-63,35,88,63,55,68
26,23,-2,-24,14,10,-37,34,49,28,38,56
-1,21,22,-10,-12,21,-16,27,25,-6,12,32
-19,1,19,9,-19,10,-14,21,14,-37,-39,-13
-52,-31,21,41,-36,-5,-16,17,3,-33,-38,-14
-46,-30,16,38,-31,-7,-14,16,-7,-37,-38,-11
-46,-30,16,37,-31,-7,-16,27,-14,-32,-31,-7
-40,-27,13,33,-26,-7,-14,25,-14,-28,-29,-3
-53,-24,28,38,-40,2,-5,37,-26,-34,-25,-1
-50,-25,25,37,-37,0,-1,32,-18,-20,-33,-6
-46,-17,29,32,-37,6,32,53,10,-35,-69,-41
-90,-21,69,55,-79,24,114,152,102,-9,-54,-53
-11,-70,-59,41,24,-64,70,117,69,47,32,23
291,15,-276,-153,284,-131,-218,-4,254,536,638,453
502,136,-367,-319,434,-115,-357,-73,378,796,858,629
374,66,-308,-220,341,-121,-221,-181,-352,11,99,192
65,37,-28,-51,46,5,22,-235,-695,-500,-292,-58
-190,18,208,86,-199,113,336,-176,-451,-478,-345,-162
-269,-48,221,159,-245,86,415,-204,-412,-454,-371,-235
-262,-65,197,163,-229,66,397,-278,-346,-361,-296,-199
-175,-57,118,116,-147,30,296,-229,-248,-259,-237,-148
-89,-36,53,62,-71,8,58,-92,-91,-115,-97,-62
-62,-19,44,40,-53,12,1,-6,3,-42,-40,-24
-30,-1,29,15,-29,13,-8,11,-1,-19,-37,-7
-8,6,14,1,-12,10,-21,20,9,-11,-26,-10
2,6,4,-4,-1,5,-21,14,7,-14,-26,-13
-1,-5,-4,3,2,-4,-34,16,15,-6,-24,-15
21,-1,-22,-10,22,-11,-36,13,16,-7,-23,-15
29,2,-27,-15,28,-13,-40,9,20,-3,-18,-6
27,5,-22,-15,25,-8,-28,11,20,1,-21,-2
35,12,-23,-23,28,-5,-23,6,19,10,-7,7
-6,-24,-18,15,6,-21,-15,2,24,15,8,11
3,-15,-18,6,11,-17,-27,0,26,23,16,20
48,19,-29,-33,38,-5,-47,-5,29,28,23,15
63,25,-37,-43,50,-6,-51,-8,31,34,28,12
63,34,-29,-49,46,3,-55,-13,35,50,53,40
59,29,-30,-44,44,-1,-65,-31,35,56,72,53
77,24,-54,-50,65,-15,-87,-36,35,55,71,55
68,18,-50,-43,59,-15,-106,-44,35,55,76,59
88,14,-74,-51,81,-30,-122,-51,35,65,102,75
88,4,-84,-46,86,-40,-142,-65,35,71,112,83
92,20,-72,-56,82,-26,-148,-84,35,61,110,80
147,43,-104,-95,126,-30,-142,-81,35,56,116,98
134,36,-99,-85,116,-31,-138,-74,35,49,110,97
123,34,-89,-78,105,-27,-134,-65,35,42,105,88
116,30,-86,-72,101,-28,-129,-58,36,42,99,83
80,25,-55,-52,67,-15,-125,-48,45,45,93,75
61,25,-36,-43,48,-5,-114,-25,55,57,89,68
49,25,-24,-37,36,0,-89,-2,79,72,78,59
40,25,-15,-32,27,5,-56,37,106,82,67,50
31,25,-6,-28,18,9,-32,63,106,81,55,42
9,25,16,-17,-4,20,-17,59,100,71,46,36
14,25,11,-20,1,18,-7,60,97,62,45,30
-1,19,20,-10,-11,19,2,60,91,53,45,25
-35,13,48,11,-42,30,24,60,87,45,45,22
-36,8,44,13,-40,26,31,60,85,47,45,18
-39,6,45,16,-42,25,23,60,81,58,46,15
-10,30,41,-10,-26,35,18,65,80,61,50,10
-17,23,40,-3,-28,31,12,66,75,59,50,12
-19,20,39,0,-30,29,7,62,76,61,50,17
19,53,34,-37,-8,44,-1,60,90,67,50,20
6,39,33,-23,-14,36,-8,57,90,74,49,23
-2,27,29,-12,-16,28,-6,54,86,75,55,28
1,27,27,-14,-14,27,-1,60,84,74,58,30
-3,21,25,-10,-14,23,1,65,80,68,55,25
-3,19,22,-8,-12,20,6,65,79,62,55,25
-4,15,19,-6,-12,17,8,65,73,58,53,24
-13,7,20,3,-17,14,19,65,67,51,49,20
-23,-9,15,16,-19,3,27,65,62,46,50,20
-14,2,16,6,-15,8,22,65,56,41,46,18
-6,7,13,-1,-9,9,20,65,51,40,42,13
-5,-1,4,3,-5,2,17,65,50,40,39,10
0,19,19,-10,-10,19,14,65,50,35,35,7
4,25,21,-15,-9,23,19,65,50,35,32,2
1,14,13,-8,-6,14,29,64,50,34,28,0
-14,10,24,2,-19,17,33,61,50,29,26,-8
-26,2,28,12,-28,15,30,58,48,23,22,-13
-14,-4,10,9,-11,3,27,55,45,20,20,-6
-9,-10,-1,10,-4,-5,25,52,45,15,17,-1
-37,-25,12,31,-25,-6,21,50,45,9,14,4
-39,-32,7,35,-23,-12,20,48,45,27,26,11
-39,-22,17,31,-28,-3,20,44,44,35,29,14
-35,-4,31,19,-33,13,19,46,49,24,22,10
-31,-15,16,22,-24,1,22,44,50,20,18,5
-65,-51,14,58,-40,-18,31,45,50,12,11,2
-38,-17,22,27,-30,2,28,45,50,5,5,-4
-18,29,46,-6,-32,37,56,72,51,16,16,-3
-21,40,62,-10,-42,51,150,137,84,47,41,7
14,71,56,-43,-21,63,178,139,104,61,39,13
30,76,46,-54,-8,61,80,97,98,69,51,39
55,60,5,-57,24,32,-24,72,101,105,94,74
74,53,-21,-63,48,15,-62,41,97,105,92,70
63,37,-26,-49,44,5,-51,24,59,57,76,61
31,15,-16,-23,24,0,-18,19,30,23,53,37
-16,-19,-3,18,-6,-11,15,20,22,0,0,-11
-18,-40,-22,29,2,-30,21,18,16,-3,-11,-21
-4,-36,-32,20,14,-34,19,12,8,-11,-15,-19
-8,-31,-23,20,8,-26,21,19,0,-21,-22,-21
0,-18,-18,10,9,-17,18,3,-6,-23,-20,-24
-29,-43,-13,36,-8,-28,23,11,-24,-34,-36,-38
-32,-37,-6,34,-13,-21,20,15,-8,-10,-20,-22
-48,-35,13,41,-30,-11,36,28,-2,-19,-43,-41
-116,-44,72,80,-94,14,100,132,89,9,-31,-54
-65,-63,2,63,-33,-30,108,139,85,20,-6,-35
203,-44,-247,-79,225,-145,-115,25,140,353,469,323
509,114,-394,-311,451,-140,-341,-59,435,828,946,670
467,89,-378,-278,422,-144,-274,-117,-53,290,326,291
134,22,-112,-78,123,-45,-34,-143,-609,-378,-220,-34
-148,35,183,56,-166,109,286,-112,-426,-439,-282,-120
-264,-52,212,158,-238,80,449,-115,-347,-439,-357,-227
-266,-82,184,173,-225,51,439,-191,-346,-371,-303,-198
-224,-88,135,156,-179,23,371,-218,-282,-302,-253,-166
-132,-69,63,100,-97,-3,167,-115,-136,-154,-106,-79
-47,-37,10,42,-28,-13,35,0,-23,-41,-23,-18
-13,-39,-26,26,7,-32,20,35,-17,-38,-23,-2
-4,-26,-23,15,10,-24,18,41,1,-25,4,6
0,-18,-18,9,9,-18,22,35,-5,-27,7,1
2,-11,-13,5,8,-12,17,33,2,-18,13,1
-18,-21,-3,20,-7,-12,15,29,4,-16,-5,-7
-13,-34,-21,24,4,-28,15,24,4,-21,4,9
6,-31,-36,13,21,-33,12,22,2,-34,13,18
0,-24,-25,12,13,-24,3,13,-3,-43,-8,14
-5,-20,-15,13,5,-17,-6,8,-4,-30,-10,15
-7,-12,-4,10,-1,-8,-14,0,-8,-16,-3,15
-8,-14,-5,11,-1,-9,-24,-5,-10,-5,1,15
-19,-37,-18,29,-1,-27,-41,-13,-8,3,9,22
-12,-42,-30,27,9,-36,-61,-33,-4,10,26,32
-2,-39,-37,20,17,-38,-68,-35,-5,20,44,37
14,-39,-53,13,33,-46,-74,-36,-1,23,58,48
45,-33,-78,-6,62,-56,-88,-55,0,20,76,69
65,-37,-102,-14,84,-69,-93,-72,0,18,99,90
70,-30,-99,-20,85,-64,-97,-74,-7,15,105,96
65,-32,-97,-16,81,-64,-114,-77,-18,12,99,90
63,-53,-116,-5,90,-84,-120,-93,-24,10,96,85
60,-53,-112,-3,86,-83,-115,-92,-36,7,90,79
59,-46,-106,-6,83,-76,-110,-81,-37,4,87,74
48,-43,-92,-2,70,-67,-104,-74,-18,0,84,69
64,-38,-102,-13,83,-70,-99,-59,9,1,81,64
55,-31,-87,-12,71,-59,-93,-35,30,17,78,61
39,-23,-62,-8,51,-42,-83,-14,53,35,75,58
49,-15,-64,-17,57,-39,-60,15,78,45,73,53
11,-8,-19,-1,15,-13,-29,52,86,45,61,50
4,-3,-7,0,6,-5,-17,61,83,38,46,46
4,-8,-13,2,9,-10,-18,59,77,35,36,40
-2,-10,-8,6,3,-9,-6,61,74,30,33,34
-11,-12,-1,12,-5,-7,7,60,68,25,29,28
-27,-28,-1,28,-13,-14,6,60,65,28,26,25
-10,-31,-21,21,6,-26,2,60,70,34,21,25
-9,-29,-20,19,5,-24,0,60,70,37,21,24
-21,-31,-10,26,-5,-20,-3,60,71,42,37,31
-29,-28,0,29,-14,-14,-6,60,75,48,46,41
-27,-14,13,20,-19,-1,2,60,75,51,48,40
-21,3,25,9,-23,14,14,59,72,50,51,40
-7,20,27,-7,-17,23,16,55,67,50,54,40
0,16,16,-8,-8,16,15,55,61,58,54,40
-7,6,12,0,-10,9,15,53,57,57,49,39
-1,1,2,0,-1,1,15,49,49,48,46,30
-17,-35,-18,26,1,-26,14,51,48,43,43,27
-6,-27,-21,17,7,-24,32,46,59,34,38,43
14,-6,-20,-4,17,-13,42,45,56,28,35,46
2,-17,-19,8,10,-17,39,45,49,21,32,41
10,-19,-29,5,20,-24,41,40,45,20,26,40
3,-26,-29,12,16,-27,40,40,38,20,21,35
-19,-32,-13,26,-3,-22,40,39,34,15,18,35
-19,-33,-15,27,-2,-24,36,34,29,15,12,29
-14,-30,-16,22,1,-23,29,36,26,14,9,24
-12,-25,-13,19,1,-19,23,32,23,10,1,19
-5,-23,-18,15,7,-21,16,30,18,10,-6,13
-13,-18,-5,16,-4,-11,9,30,15,10,-13,7
-33,-14,19,24,-25,2,5,30,15,10,-21,7
-46,-26,20,36,-33,-3,5,30,15,10,-27,18
-47,-38,9,42,-28,-14,6,30,15,6,-40,27
-6,-33,-27,20,11,-30,4,30,15,5,-46,37
5,-31,-36,13,20,-33,6,29,15,5,-48,41
-11,-29,-18,20,4,-23,4,32,16,5,-51,39
9,-24,-33,8,22,-29,2,36,21,5,-54,41
9,-25,-34,8,22,-30,2,47,26,5,-56,39
-8,-7,1,7,-5,-3,8,44,27,21,-45,40
-23,17,41,3,-32,29,55,70,46,32,-34,41
0,50,49,-25,-25,49,130,126,84,50,-21,50
44,82,37,-63,3,59,120,119,98,68,-3,65
45,69,24,-57,11,46,-23,82,103,73,25,80
69,53,-15,-61,42,19,-97,50,104,89,41,102
79,33,-46,-56,62,-6,-77,35,71,74,25,96
55,12,-43,-33,48,-15,-72,34,32,37,9,64
41,-8,-48,-16,44,-28,-55,25,14,4,-24,35
-12,-43,-31,28,9,-36,-23,23,2,-24,-62,22
-35,-43,-7,39,-14,-25,5,15,3,-30,-70,26
-23,-36,-13,30,-5,-24,18,12,-4,-41,-88,17
6,-29,-35,12,21,-31,22,6,-6,-29,-82,18
27,-23,-49,-2,38,-36,31,2,-9,-32,-87,14
-8,-15,-7,12,0,-11,35,-1,-16,-25,-91,7
-16,-31,-15,24,-1,-22,29,-6,-9,-19,-85,-3
-52,-70,-19,61,-16,-45,76,62,27,-23,-105,-33
-88,-57,31,73,-59,-13,119,123,87,14,-124,-39
25,-73,-98,24,62,-85,51,90,40,77,20,75
356,29,-327,-192,342,-149,-209,-13,297,608,670,506
561,119,-442,-340,502,-162,-340,-77,328,739,735,572
373,3,-370,-188,372,-183,-180,-194,-437,-89,-27,138
66,12,-54,-39,60,-21,84,-275,-673,-496,-326,-39
-178,9,187,84,-183,98,370,-203,-432,-476,-373,-152
-266,-82,184,174,-225,51,454,-250,-399,-435,-370,-207
-227,-81,146,154,-186,32,448,-293,-331,-336,-315,-168
-146,-56,91,100,-119,17,293,-215,-229,-241,-254,-129
-70,-47,23,58,-46,-11,68,-92,-73,-73,-130,-46
-33,-46,-13,40,-9,-29,43,-11,-9,-25,-90,-14
-6,-41,-36,24,15,-38,32,-2,-7,-20,-54,3
-6,-37,-31,22,13,-34,18,21,11,-3,-57,3
-13,-35,-22,24,5,-29,13,21,9,-7,-63,7
-1,-34,-33,17,16,-33,2,20,22,1,-54,12
4,-41,-46,19,25,-43,-1,21,22,0,-57,14
13,-45,-58,16,36,-51,-10,19,21,5,-49,20
21,-37,-58,8,40,-47,-16,21,17,6,-51,25
20,-31,-51,6,36,-41,-20,20,14,11,-43,33
28,-23,-51,-2,40,-37,-21,13,12,16,-31,39
37,-19,-56,-9,47,-37,-30,6,8,20,-33,46
51,-7,-58,-22,55,-32,-38,-7,21,24,-20,51
76,-1,-77,-37,77,-39,-32,-28,26,36,9,56
78,-13,-90,-32,84,-51,-39,-31,22,46,26,60
70,-25,-95,-22,83,-60,-46,-29,21,48,38,63
86,-32,-117,-27,102,-74,-37,-38,16,52,40,67
110,-12,-122,-49,116,-67,-68,-54,15,55,44,69
117,-8,-125,-54,121,-66,-89,-66,12,60,62,83
104,-24,-128,-40,117,-76,-107,-71,10,57,75,99
105,-25,-130,-40,118,-77,-128,-83,10,51,87,113
105,-19,-123,-43,114,-70,-118,-93,5,46,88,112
106,-16,-121,-45,114,-68,-119,-86,5,39,78,103
104,-33,-137,-35,121,-85,-113,-76,6,36,73,98
72,-43,-115,-14,94,-79,-112,-71,20,40,65,90
63,-37,-100,-13,82,-68,-103,-57,33,49,58,85
73,-36,-109,-18,91,-72,-70,-23,47,51,50,78
60,-34,-94,-13,78,-64,-43,14,86,69,42,67
24,-30,-55,3,40,-42,-22,41,105,88,34,58
1,-30,-31,15,16,-31,-10,53,97,78,27,48
-3,-29,-26,16,12,-27,28,61,91,65,25,43
-8,-25,-17,17,5,-21,66,61,83,55,21,38
-10,-25,-15,18,3,-20,65,59,75,49,20,35
-9,-23,-15,16,3,-19,65,61,71,47,2,35
-1,-17,-16,9,8,-16,62,60,79,43,-17,35
-1,-14,-13,8,7,-13,58,61,80,39,-7,35
9,-9,-18,0,14,-13,62,58,81,51,2,35
-1,-4,-3,3,1,-4,74,54,88,62,13,35
-10,-22,-12,16,2,-17,75,55,85,59,18,33
8,-10,-18,1,13,-14,70,55,85,61,14,28
-1,27,28,-13,-15,27,69,56,85,59,15,22
4,28,25,-16,-11,26,65,54,85,63,15,19
11,22,11,-17,0,16,64,51,85,66,15,14
12,17,4,-15,4,10,60,49,82,61,14,9
20,10,-9,-15,14,0,60,44,79,59,11,22
21,5,-16,-13,18,-5,58,51,76,54,8,26
26,-3,-29,-11,28,-16,54,57,73,51,18,18
24,-8,-32,-8,28,-20,56,52,70,47,20,14
9,-17,-26,4,18,-22,51,50,69,41,1,8
0,-19,-19,10,9,-18,50,46,63,34,-12,2
-10,-23,-13,17,2,-18,50,44,55,28,-15,0
-35,-40,-4,38,-15,-22,45,49,49,21,-15,0
-38,-40,-3,39,-18,-21,45,50,42,15,-14,0
-30,-41,-11,36,-10,-26,45,50,36,21,-16,0
-18,-46,-28,32,5,-36,45,55,35,23,-14,0
-18,-48,-30,33,7,-39,45,55,35,19,-24,0
-43,-52,-9,48,-17,-30,45,54,35,21,-27,-6
-40,-55,-15,47,-12,-35,45,48,35,16,-19,-11
-28,-58,-30,43,1,-44,45,42,35,15,-33,-18
-43,-63,-20,53,-11,-41,49,38,34,15,-34,-18
-55,-65,-10,60,-22,-37,50,31,29,10,-27,-14
-56,-57,-1,57,-28,-28,51,27,31,9,-24,-16
-62,-53,10,57,-36,-21,53,28,27,4,-19,-14
-28,-37,-10,33,-9,-23,57,41,26,4,-14,-16
-4,-12,-8,8,2,-10,53,37,22,-3,-26,-14
-33,-13,20,23,-26,3,92,68,42,12,-26,-1
-16,0,16,7,-16,8,183,132,87,60,19,29
28,32,4,-31,12,18,175,118,97,72,44,50
50,46,-4,-48,27,21,60,78,93,75,44,53
72,44,-28,-58,49,8,-33,51,98,95,64,77
77,7,-70,-42,73,-31,-44,25,76,84,66,86
70,16,-54,-43,62,-19,-21,13,31,52,42,59
39,13,-25,-26,32,-6,14,7,8,11,-5,13
-20,-66,-46,44,14,-56,35,8,-6,-4,-24,-8
-41,-74,-33,57,-4,-53,23,1,-12,-5,-30,-10
-13,-45,-32,29,10,-38,26,3,-20,-17,-52,-27
-10,-30,-20,20,5,-25,17,-1,-22,-13,-45,-26
-34,-51,-17,43,-8,-34,48,44,8,-31,-79,-49
-44,-54,-10,49,-16,-32,89,111,72,0,-56,-57
4,-41,-45,18,25,-42,39,83,114,100,44,15
229,29,-200,-129,215,-85,-180,-58,193,501,587,414
393,211,-182,-302,287,15,-356,-117,458,817,909,673
260,200,-60,-230,160,70,-183,80,283,318,208,253
22,117,95,-69,-37,106,95,180,-253,-211,-224,-53
-184,81,265,51,-224,172,393,191,-298,-340,-292,-153
-281,-24,258,153,-269,116,573,163,-234,-392,-387,-263
-269,-75,194,172,-231,59,511,-65,-301,-369,-335,-256
-240,-93,148,167,-194,27,424,-190,-290,-326,-307,-217
-172,-87,85,129,-128,-1,226,-162,-216,-209,-192,-114
-70,-64,6,67,-37,-29,35,-83,-91,-91,-108,-52
-47,-64,-17,56,-15,-41,-3,-31,-45,-53,-67,-25
-51,-56,-6,54,-23,-31,-22,-38,-46,-55,-58,-29
-34,-34,0,34,-17,-17,-31,-34,-43,-61,-73,-39
-24,-8,16,16,-20,4,-30,-41,-42,-58,-63,-32
6,-15,-21,5,14,-18,-30,-42,-38,-53,-68,-37
14,-45,-59,16,37,-52,-30,-45,-44,-47,-61,-33
9,-35,-44,13,27,-39,-29,-48,-58,-43,-60,-36
8,-28,-36,10,23,-32,-35,-49,-61,-36,-59,-23
12,-40,-52,15,32,-46,-45,-51,-60,-31,-28,-4
28,-39,-68,6,48,-53,-46,-48,-65,-33,-6,3
29,-41,-70,6,49,-55,-67,-62,-65,-39,-5,6
37,-38,-75,1,56,-56,-84,-76,-66,-42,-1,11
41,-36,-77,-3,59,-56,-99,-91,-79,-47,2,16
53,-34,-87,-9,70,-60,-116,-110,-88,-49,5,26
70,-39,-109,-15,90,-74,-123,-114,-92,-53,7,28
79,-53,-132,-13,106,-92,-143,-137,-107,-55,14,23
103,-55,-157,-24,131,-106,-160,-158,-117,-59,23,43
107,-58,-166,-24,137,-112,-171,-173,-131,-60,22,50
108,-60,-168,-24,138,-114,-202,-195,-147,-64,20,56
115,-53,-168,-31,142,-110,-219,-196,-142,-69,20,65
108,-50,-158,-29,133,-104,-213,-186,-138,-62,20,55
115,-45,-160,-35,138,-102,-206,-182,-135,-58,20,50
103,-40,-143,-31,123,-91,-199,-172,-119,-51,19,42
66,-36,-102,-15,84,-69,-192,-154,-93,-47,15,36
62,-26,-88,-18,75,-57,-172,-125,-56,-33,13,32
45,-20,-64,-12,55,-42,-153,-87,-7,-3,10,29
29,-7,-36,-11,33,-21,-129,-54,27,8,7,26
19,5,-14,-12,17,-5,-90,-23,37,14,5,23
-4,3,7,1,-6,5,-73,2,41,21,2,21
-19,5,25,7,-22,15,-71,16,40,27,-3,18
-24,21,45,1,-35,33,-65,17,37,27,-6,16
-30,16,45,6,-38,30,-62,12,35,24,-9,12
-52,-8,44,30,-48,17,-55,9,35,21,-15,11
-29,20,48,4,-39,34,-57,6,39,19,-13,6
-35,18,53,8,-44,36,-64,1,40,15,-10,6
-42,20,62,11,-52,41,-60,1,43,16,-23,-3
-2,60,62,-29,-33,61,-61,5,45,30,-35,-17
-19,29,48,-6,-34,39,-58,5,46,43,-9,20
-19,16,35,1,-28,25,-55,5,53,58,35,52
-5,13,19,-4,-12,16,-55,8,56,63,41,46
3,6,3,-5,0,4,-53,13,55,58,32,42
-3,-6,-2,5,0,-4,-66,16,55,57,31,36
-40,-30,10,35,-25,-10,-69,19,55,53,24,30
-16,-5,12,10,-14,3,-62,24,56,50,21,25
31,25,-7,-28,19,9,-60,24,54,48,15,18
13,37,24,-25,-6,30,-54,18,46,25,9,11
-20,29,49,-5,-35,39,-51,11,38,5,4,4
-25,15,41,5,-33,28,-48,4,30,2,-4,-4
-34,6,40,14,-37,23,-45,-3,22,-4,-11,-11
-50,-15,35,32,-42,10,-43,-9,16,-7,-36,-18
-44,-12,32,28,-37,10,-40,-6,14,-13,-47,-20
-24,5,29,9,-26,16,-38,-5,11,-14,-37,-20
-17,7,24,5,-21,15,-34,-5,8,-9,-35,-24
-17,2,19,7,-19,11,-31,0,5,-6,-30,-26
-16,-1,16,8,-16,7,-27,0,5,-3,-26,-24
-15,-5,11,10,-13,3,-25,1,5,2,-21,-21
-14,-8,5,11,-9,-2,-30,6,5,5,-20,-20
-11,-11,0,11,-5,-6,-30,10,5,2,-20,-20
-21,-27,-5,24,-8,-16,-31,7,5,-1,-20,-20
-21,-33,-12,27,-5,-22,-35,3,6,-4,-20,-20
-13,-28,-15,21,1,-21,-35,-1,0,-7,-21,-20
-12,-27,-15,20,2,-21,-33,-4,-5,-9,-28,-20
4,-22,-26,10,15,-24,-28,-10,-11,-12,-34,-15
-3,-21,-18,12,7,-19,-22,-9,-14,-15,-32,-15
-15,-18,-3,17,-6,-11,-19,-2,-7,-15,-27,-14
-11,-15,-4,13,-3,-9,-13,3,-3,-16,-25,-10
-7,-16,-10,12,2,-13,-9,14,5,-14,-20,-10
7,3,-4,-5,5,0,10,11,6,-17,-17,-8
15,51,36,-33,-11,43,73,62,37,-1,-12,0
46,103,57,-74,-6,79,126,112,81,32,0,4
71,108,37,-90,17,72,66,80,79,52,27,24
84,90,7,-87,38,48,-77,33,81,71,62,58
108,74,-34,-91,71,19,-131,16,77,72,64,63
100,43,-57,-71,78,-7,-106,16,46,60,56,53
71,23,-48,-46,59,-12,-71,5,16,41,42,38
48,3,-45,-26,46,-20,-48,-6,-6,1,0,8
29,-8,-37,-10,33,-22,-49,-9,-18,-24,-32,-3
14,-19,-33,2,24,-25,-45,-10,-22,-32,-40,-5
-4,-31,-27,18,12,-28,-42,-13,-33,-38,-41,-13
0,-19,-19,9,10,-19,-41,-26,-29,-31,-31,-12
10,-40,-50,15,30,-45,-37,-22,-39,-45,-36,-23
7,-41,-48,17,28,-44,-34,-14,-37,-35,-28,-16
20,-11,-31,-4,25,-21,-31,-20,-31,-43,-72,-47
-16,11,28,2,-22,19,17,62,41,-25,-84,-76
-39,-18,22,28,-30,2,71,114,83,-9,-72,-70
145,-55,-200,-45,173,-127,-79,31,82,197,221,146
463,73,-391,-268,427,-159,-358,-36,374,776,852,583
560,97,-463,-328,511,-183,-374,-130,47,502,539,423
314,16,-298,-165,306,-140,-174,-285,-714,-357,-192,5
-24,36,60,-6,-43,48,112,-341,-665,-553,-333,-110
-189,-3,185,96,-187,91,330,-326,-462,-498,-387,-216
-226,-68,158,147,-192,45,347,-331,-425,-412,-342,-219
-238,-86,152,162,-195,33,311,-311,-325,-318,-282,-192
-137,-60,76,98,-106,8,109,-195,-186,-192,-175,-116
-25,-16,9,20,-17,-3,-52,-58,-46,-56,-62,-41
21,-4,-26,-8,24,-15,-40,-27,-21,-36,-57,-40
30,-12,-42,-9,36,-26,-44,-20,-8,-21,-38,-20
5,-17,-22,6,14,-19,-38,-12,-5,-23,-43,-20
26,-23,-49,-1,38,-36,-35,-12,-4,-19,-36,-15
9,-28,-37,9,23,-32,-37,-3,4,-14,-32,-11
-9,-31,-22,20,6,-26,-51,-2,2,-10,-31,-8
19,-29,-49,5,34,-38,-58,-2,13,-1,-22,-3
10,-26,-36,8,23,-31,-57,-7,9,1,-16,-1
8,-23,-31,8,20,-27,-63,-8,9,9,-6,3
5,-20,-25,8,15,-22,-64,-13,32,28,12,11
-2,-18,-16,10,7,-17,-67,-14,37,37,16,16
11,-10,-21,0,16,-15,-69,-17,31,34,20,16
33,-5,-38,-14,36,-21,-76,-24,30,36,36,12
35,3,-31,-19,33,-14,-72,-35,26,34,34,12
42,8,-34,-25,38,-13,-81,-44,25,45,38,6
91,17,-74,-54,82,-28,-96,-40,22,55,60,24
122,39,-83,-81,102,-22,-116,-53,16,55,77,63
112,35,-77,-74,94,-21,-142,-73,11,55,82,67
113,30,-84,-71,98,-27,-161,-89,8,55,82,69
115,23,-92,-68,103,-35,-178,-97,2,55,78,70
116,22,-94,-68,105,-36,-169,-95,1,55,76,63
134,27,-107,-80,121,-40,-162,-91,9,57,72,62
120,27,-93,-73,107,-33,-156,-91,17,61,70,57
119,49,-70,-83,94,-10,-148,-83,21,64,68,53
114,50,-64,-82,89,-7,-143,-47,30,68,59,50
90,39,-51,-64,70,-5,-118,-15,50,70,53,43
71,34,-37,-52,54,-1,-91,7,67,64,45,28
49,26,-23,-37,35,1,-75,21,75,57,37,15
28,18,-10,-23,19,4,-65,32,69,51,31,5
11,29,18,-20,-3,23,-55,36,63,44,22,-3
25,52,26,-39,-1,39,-45,34,58,37,13,-12
29,44,16,-37,6,30,-36,35,51,37,2,-19
41,40,-1,-41,21,19,-28,35,52,41,-2,-20
29,37,8,-33,10,22,-19,35,56,40,4,-21
-14,30,45,-8,-30,37,-15,35,59,40,11,-19
-14,29,43,-8,-28,35,-15,35,63,39,17,-22
-16,19,35,-1,-26,26,-12,35,66,51,25,-26
5,37,32,-21,-14,35,-10,35,70,61,29,-20
32,55,24,-44,4,39,-10,35,70,59,25,-15
23,44,21,-33,1,32,-14,36,71,61,25,-9
0,38,38,-19,-19,37,-20,43,75,58,24,-3
-19,29,48,-5,-34,38,-20,46,75,69,34,-1
-14,24,38,-5,-27,31,-20,49,73,72,39,-8
-10,26,36,-9,-23,31,-20,52,66,60,30,-12
2,34,31,-18,-15,32,-20,55,59,53,25,-20
2,27,25,-15,-12,26,-20,54,53,42,17,-23
-23,8,31,7,-27,19,-16,49,45,36,11,-24
3,39,36,-21,-17,37,-15,44,40,29,6,-47
17,52,35,-35,-9,43,-14,40,34,22,1,-51
-3,32,35,-15,-19,33,-11,35,29,16,-2,-49
1,36,35,-19,-18,36,-9,30,24,9,-8,-50
0,34,34,-18,-17,34,-11,26,18,3,-12,-51
-3,35,38,-17,-21,36,-15,25,12,0,-12,-56
-6,34,40,-14,-23,37,-15,25,7,0,-9,-55
-13,27,40,-7,-27,33,-17,25,4,-3,-6,-55
-17,23,40,-3,-29,31,-21,25,5,-5,-4,-50
-22,17,39,3,-31,28,-20,24,5,-5,1,-50
-30,12,42,9,-36,27,-17,20,5,-1,-1,-49
-20,5,25,7,-23,15,-14,20,5,3,-15,-44
-13,12,26,0,-20,19,-11,20,0,8,-15,-46
-24,32,55,-4,-40,43,-8,20,0,9,-15,-42
-20,36,56,-9,-39,46,-6,20,0,3,-13,-40
-18,34,52,-8,-36,43,-5,20,0,-3,-9,-40
-16,37,52,-10,-34,44,-15,18,-1,-9,-12,-45
-15,32,47,-8,-31,39,4,31,7,0,-3,-47
-5,63,69,-29,-37,66,69,79,45,30,10,-34
24,109,85,-67,-31,97,128,117,81,58,38,-21
22,99,77,-61,-28,88,107,98,84,60,60,-6
38,105,67,-72,-14,86,-18,54,73,68,61,6
86,107,21,-97,32,64,-84,21,66,71,69,20
64,57,-7,-61,35,25,-71,10,53,51,66,26
28,33,5,-31,11,19,-52,5,20,34,48,-12
-11,23,34,-7,-23,28,-23,-3,-2,6,12,-47
-50,8,58,20,-54,33,-16,-8,-21,-14,-8,-53
-46,7,53,19,-50,30,-10,-16,-33,-13,-3,-55
-53,-3,50,28,-51,24,-1,-19,-39,-25,-14,-55
-53,-5,48,29,-50,21,3,-21,-32,-27,-12,-58
-51,-10,41,30,-46,15,12,-19,-37,-45,-49,-91
-36,0,36,18,-36,17,17,-21,-36,-32,-30,-89
-24,4,28,10,-26,16,24,-12,-24,-27,-34,-90
-74,-17,57,45,-65,20,71,55,18,-25,-57,-96
-101,-9,92,54,-96,41,125,113,68,-1,-40,-99
52,-51,-103,0,78,-77,10,53,28,123,157,59
395,50,-345,-222,370,-147,-269,-35,315,676,802,519
532,136,-396,-334,464,-129,-333,-88,245,616,648,442
285,21,-263,-153,274,-121,-153,-184,-478,-178,-98,-3
-31,49,80,-9,-56,65,132,-225,-566,-432,-265,-122
-178,57,236,60,-207,146,395,-207,-377,-425,-336,-231
-236,-38,198,137,-217,79,418,-239,-383,-409,-339,-261
-255,-62,193,159,-224,65,398,-284,-332,-342,-288,-231
-173,-46,128,109,-150,41,251,-217,-237,-225,-189,-162
-81,-21,59,51,-70,19,48,-68,-86,-69,-57,-57
-33,3,37,15,-35,20,36,-16,-37,-31,-26,-44
-23,1,24,11,-23,12,23,-7,-26,-13,-10,-38
-15,-10,5,12,-9,-3,10,1,-16,-15,-23,-44
-15,-5,10,10,-12,2,6,0,-16,-15,-22,-47
-23,-4,19,13,-20,7,-12,7,-6,-8,-29,-50
-23,0,23,11,-23,11,-23,9,-4,-12,-28,-47
-19,3,22,8,-20,12,-33,9,-1,-6,-6,-36
-13,5,17,4,-16,11,-28,0,-6,-3,7,-30
-5,9,14,-2,-10,11,-32,-5,-4,3,18,-22
9,20,11,-15,-1,15,-44,-13,-9,6,20,-17
14,21,7,-18,3,14,-52,-19,-10,11,21,-11
4,5,1,-4,1,3,-53,-26,-10,15,39,-7
13,23,10,-19,1,16,-56,-47,-14,21,40,-2
36,43,7,-39,14,24,-61,-51,-16,31,42,1
38,27,-11,-32,24,7,-74,-50,-20,33,56,13
62,21,-41,-41,51,-9,-95,-67,-20,30,56,23
73,17,-56,-44,64,-19,-114,-84,-20,27,75,37
76,10,-65,-43,70,-27,-126,-95,-19,24,88,55
91,5,-86,-48,88,-40,-145,-110,-30,20,84,55
85,0,-85,-42,85,-42,-153,-116,-43,20,86,55
95,10,-85,-52,90,-37,-169,-117,-49,24,83,53
111,26,-85,-68,98,-30,-181,-111,-49,25,96,68
122,37,-85,-79,103,-24,-169,-99,-49,25,103,76
124,42,-82,-82,103,-20,-153,-91,-36,25,91,59
104,38,-66,-71,85,-13,-131,-73,-3,27,84,50
100,45,-55,-72,77,-5,-121,-42,3,30,73,41
70,45,-25,-57,47,9,-99,-18,33,47,63,33
35,44,9,-40,13,26,-62,6,60,50,50,24
34,57,23,-46,5,40,-40,33,54,44,40,13
8,44,36,-26,-14,40,-27,41,56,42,33,2
-7,46,53,-20,-30,50,-24,43,51,37,26,-11
-10,54,63,-22,-37,58,-14,46,50,35,22,-19
-16,40,56,-12,-36,47,-12,45,48,30,18,-29
-25,37,63,-6,-44,50,-4,45,44,31,15,-34
-51,25,77,12,-64,51,25,45,46,28,9,-22
-51,24,75,13,-63,49,31,45,44,40,22,-11
-34,39,73,-3,-53,56,22,42,46,62,45,-8
-30,40,70,-5,-50,55,16,39,44,59,45,-4
-34,36,70,-1,-53,52,9,41,40,60,40,-1
-37,33,70,2,-54,51,2,40,35,60,38,4
-39,30,70,4,-54,50,2,41,30,60,33,4
-42,28,71,7,-56,49,13,39,27,58,30,-3
-48,21,69,13,-59,45,15,35,20,51,26,-9
-63,8,71,28,-67,39,18,35,25,47,24,-22
-52,17,68,17,-60,42,21,33,33,41,20,-26
-25,40,65,-8,-45,52,24,29,24,35,17,-21
-26,39,64,-7,-45,51,26,30,18,30,14,-20
-31,30,61,1,-46,45,24,30,10,24,5,-15
-34,25,60,4,-47,42,26,30,2,19,-4,-15
-41,16,57,12,-49,36,23,30,-4,14,-12,-22
-39,13,52,13,-46,32,34,30,-10,8,-22,-34
-42,8,49,17,-45,28,41,30,-9,2,-39,-37
-39,7,46,15,-43,26,35,29,-12,-2,-47,-35
-38,2,41,18,-40,21,33,25,-15,-7,-44,-35
-41,0,41,20,-41,21,28,20,-16,-10,-46,-32
-43,3,45,20,-44,23,25,18,-12,-13,-44,-29
-69,-24,44,46,-56,10,21,13,-11,-18,-46,-31
-73,-25,47,49,-60,11,16,11,-6,-21,-50,-37
-57,-6,50,32,-53,22,11,13,-6,-24,-48,-48
-33,17,50,8,-42,33,8,19,-27,-25,-53,-50
-19,35,53,-8,-36,44,2,24,-29,-25,-56,-50
-30,26,56,1,-43,41,1,27,-23,-22,-74,-61
-20,34,54,-7,-37,43,17,34,-20,-6,-73,-50
-33,25,58,3,-45,41,48,33,-4,6,-41,-26
-11,49,60,-19,-36,55,112,83,37,22,-24,-14
40,95,55,-68,-8,75,155,125,64,43,-6,2
42,91,49,-67,-4,70,100,91,56,50,2,14
42,84,43,-63,-1,63,-3,49,46,62,16,34
45,77,32,-61,6,54,-42,20,40,74,51,61
59,72,13,-66,23,42,-25,12,20,49,37,48
19,45,26,-32,-3,35,-16,7,-11,10,-4,2
-29,13,42,8,-36,28,-7,-3,-31,-14,-52,-36
-26,8,34,8,-30,21,-2,-9,-44,-23,-68,-40
-22,9,31,6,-27,19,1,-15,-44,-31,-62,-39
-23,0,23,11,-24,12,11,-15,-48,-42,-68,-43
-46,-27,19,36,-33,-4,12,-14,-42,-29,-54,-35
-53,-38,15,45,-34,-11,15,-17,-48,-39,-67,-47
-67,-24,44,45,-55,10,6,-12,-42,-21,-55,-31
-76,-28,48,52,-61,10,16,-5,-31,-34,-87,-57
-87,-18,69,52,-78,25,69,77,27,-16,-93,-71
-81,-34,46,57,-63,6,93,129,47,3,-85,-63
139,-36,-174,-51,157,-105,-74,6,45,215,265,183
459,120,-339,-290,399,-109,-333,-86,346,756,837,606
471,99,-372,-285,421,-136,-318,-137,48,423,408,352
181,8,-173,-94,177,-82,-113,-192,-625,-340,-220,-37
-100,63,163,18,-132,113,185,-176,-543,-473,-318,-120
-246,13,258,116,-252,136,400,-169,-410,-468,-394,-245
-277,-52,226,164,-251,87,405,-224,-403,-407,-347,-238
-235,-59,176,147,-205,58,373,-274,-331,-326,-299,-204
-130,-31,99,80,-114,34,179,-192,-224,-203,-192,-126
-49,-16,33,32,-41,9,9,-61,-71,-67,-87,-49
-33,-24,10,28,-22,-7,-24,-22,-62,-47,-61,-40
-26,-15,11,20,-18,-2,-47,-15,-55,-37,-43,-30
-20,-17,3,18,-11,-7,-35,-12,-46,-35,-49,-30
-14,-14,1,14,-7,-6,-45,-10,-43,-28,-39,-20
-7,-12,-5,10,-1,-8,-55,-6,-33,-22,-39,-17
9,0,-9,-4,9,-5,-55,-4,-42,-21,-34,-18
15,2,-13,-8,14,-5,-55,-12,-38,-19,-30,-21
12,-7,-19,-2,16,-12,-54,-25,-42,-21,-30,-24
16,-5,-20,-5,18,-12,-56,-27,-45,-19,-30,-26
28,1,-26,-14,27,-12,-54,-32,-45,-20,-30,-30
28,4,-24,-16,26,-10,-70,-39,-43,-20,-30,-29
20,-5,-25,-7,23,-15,-87,-51,-39,-13,-28,-20
39,-1,-40,-18,39,-20,-81,-52,-37,-6,-19,-10
51,18,-33,-35,42,-8,-93,-64,-34,1,-11,0
83,23,-60,-53,71,-19,-109,-90,-30,8,8,11
113,22,-91,-67,102,-34,-114,-96,-31,12,32,24
94,12,-82,-53,88,-35,-132,-97,-33,15,39,35
99,13,-86,-56,93,-36,-148,-105,-41,15,34,33
138,40,-97,-89,118,-28,-160,-114,-46,15,46,49
151,36,-115,-93,132,-39,-161,-108,-39,16,56,61
158,17,-142,-87,150,-62,-159,-100,-36,14,48,52
145,3,-142,-74,144,-70,-157,-94,-31,15,45,50
110,-16,-126,-47,118,-71,-153,-88,-27,17,40,45
98,-10,-108,-43,103,-59,-160,-81,-21,21,35,41
80,2,-78,-41,79,-38,-160,-70,-5,20,31,36
79,17,-62,-48,70,-22,-132,-40,22,20,24,27
79,28,-51,-53,65,-12,-85,-4,55,52,18,21
61,24,-37,-42,48,-6,-61,12,59,59,11,13
45,26,-18,-35,31,4,-56,26,50,39,4,-7
28,21,-7,-25,18,7,-47,32,45,39,-2,-26
27,21,-6,-23,16,7,-39,27,37,40,-12,-27
17,18,1,-18,8,10,-35,26,32,40,-25,-24
30,22,-8,-25,19,7,-35,23,33,40,-26,-21
30,17,-13,-23,21,2,-35,19,37,39,-20,-18
3,0,-3,-1,3,-1,-35,29,40,42,-15,-16
11,10,0,-10,5,5,-35,36,40,45,-8,-13
3,12,9,-8,-3,10,-35,28,42,45,-5,-10
35,24,-10,-29,22,7,-41,25,45,47,-5,-7
62,25,-37,-43,49,-6,-47,20,45,50,-5,-5
39,13,-26,-26,32,-6,-56,15,41,50,-5,-1
27,5,-22,-16,24,-8,-59,19,40,46,-5,0
13,-2,-15,-6,15,-9,-46,20,40,40,-5,-4
15,5,-10,-10,13,-2,-43,21,35,35,-1,-12
1,-4,-5,2,3,-4,-45,24,35,29,10,-14
7,8,2,-7,2,5,-45,26,34,24,19,-10
10,12,2,-11,4,7,-49,24,25,19,2,-4
-8,-7,1,8,-4,-3,-50,20,15,14,-14,-12
18,-3,-22,-7,20,-12,-50,20,6,9,-37,-31
2,-3,-5,0,4,-4,-38,18,1,5,-36,-35
-11,-5,6,8,-8,1,-18,14,-4,0,-13,-35
16,-6,-22,-5,20,-14,-15,15,-7,-5,-22,-35
5,-10,-15,2,10,-12,-15,11,-13,-2,-33,-35
8,3,-5,-5,6,-1,-15,10,-14,4,-42,-34
12,17,5,-14,3,11,-15,10,-5,7,-41,-32
3,16,13,-10,-5,14,-15,10,6,13,-39,-19
-7,12,19,-2,-13,15,-25,11,6,14,-39,-21
-18,6,24,6,-21,15,-33,8,-5,7,-34,-40
-25,-8,17,17,-21,4,-26,5,-15,3,-36,-41
-33,-21,12,27,-22,-5,-19,5,-23,-3,-32,-39
-24,-20,3,22,-13,-8,-13,5,-21,-9,-29,-36
-14,-15,-1,15,-6,-8,-4,5,-17,-14,-30,-34
0,-11,-11,6,5,-11,-3,13,-16,-11,-30,-35
-5,-6,-1,6,-1,-4,13,24,-10,-2,-30,-27
-17,-1,16,9,-16,7,16,15,-13,5,-30,-22
-17,18,35,-1,-26,26,52,48,10,19,-18,-14
-13,52,65,-20,-39,59,131,110,52,28,1,-8
1,50,48,-26,-24,49,126,104,73,54,26,5
22,41,19,-32,1,30,34,68,77,84,44,31
60,65,5,-62,27,35,-59,33,71,78,47,34
62,55,-8,-58,35,23,-73,13,56,58,39,17
39,25,-13,-31,26,6,-57,9,14,27,10,-2
6,3,-3,-5,5,0,-55,-3,-11,-3,-23,-21
-26,-14,11,20,-18,-2,-44,-10,-41,-34,-50,-47
-22,-26,-3,24,-9,-14,-41,-17,-57,-44,-49,-59
-24,-41,-17,33,-3,-29,-31,-25,-54,-46,-62,-63
-25,-39,-14,33,-6,-26,-27,-27,-57,-46,-73,-64
2,-25,-28,12,15,-26,-19,-28,-51,-49,-74,-67
1,-16,-18,8,10,-17,-15,-18,-62,-54,-79,-73
-41,-29,13,35,-27,-8,-8,-26,-36,-40,-66,-67
-62,-41,21,51,-41,-9,34,15,-33,-41,-93,-88
-91,-41,51,66,-71,5,74,108,30,-4,-93,-102
-28,-104,-75,66,24,-89,49,82,8,21,-10,-33
267,-26,-293,-120,280,-159,-212,-37,174,471,558,375
499,113,-385,-306,441,-136,-378,-94,361,758,784,551
396,45,-351,-221,373,-153,-232,-175,-299,52,82,142
59,7,-52,-33,55,-22,11,-248,-660,-442,-288,-89
-205,6,211,99,-208,109,314,-178,-440,-452,-357,-200
-278,-59,219,168,-248,80,414,-198,-424,-447,-401,-278
-294,-105,189,199,-241,42,401,-278,-370,-381,-337,-249
-238,-96,142,167,-190,23,305,-250,-299,-300,-280,-209
-144,-74,70,109,-107,-2,85,-119,-147,-139,-144,-109
-91,-70,21,80,-55,-24,22,-26,-56,-63,-74,-58
-60,-56,4,58,-31,-26,0,-36,-72,-69,-55,-54
-48,-49,0,49,-24,-24,-23,-24,-53,-58,-53,-56
-79,-44,35,61,-56,-5,-33,-23,-57,-58,-61,-55
-87,-45,43,66,-65,0,-44,-18,-44,-50,-58,-55
-68,-39,30,53,-49,-4,-37,-15,-48,-48,-57,-56
-49,-43,7,46,-28,-18,-42,-24,-51,-44,-54,-54
-36,-64,-28,51,-4,-46,-39,-28,-49,-42,-55,-55
-38,-62,-23,51,-7,-42,-40,-31,-51,-39,-49,-50
-30,-56,-26,43,-1,-41,-47,-30,-49,-35,-50,-50
-32,-53,-20,43,-6,-37,-57,-39,-50,-35,-48,-49
-26,-47,-21,37,-3,-33,-62,-43,-45,-29,-37,-41
-27,-46,-19,37,-4,-32,-65,-52,-45,-23,-29,-33
-34,-51,-17,43,-9,-33,-71,-66,-45,-15,-16,-25
-15,-55,-40,35,13,-47,-87,-75,-45,-10,-9,-18
10,-47,-57,19,34,-52,-102,-81,-44,2,9,-8
21,-61,-82,20,52,-72,-116,-88,-49,17,31,8
20,-73,-93,27,57,-83,-133,-101,-57,12,30,18
20,-68,-88,24,54,-78,-147,-114,-65,6,30,31
19,-72,-91,26,55,-81,-156,-124,-75,0,27,39
36,-69,-105,17,70,-87,-166,-127,-81,-6,24,31
35,-71,-106,18,71,-88,-181,-121,-82,-13,25,24
17,-78,-95,31,56,-86,-181,-116,-77,-19,20,16
25,-63,-88,20,57,-76,-172,-109,-67,-27,17,9
32,-48,-81,8,56,-64,-166,-106,-59,-27,14,2
23,-48,-71,12,48,-59,-158,-81,-44,-8,9,-7
15,-43,-58,14,37,-50,-133,-43,-14,4,6,-6
7,-40,-47,17,27,-44,-106,-22,13,18,2,-6
-3,-35,-33,19,16,-34,-91,-10,22,22,-11,-19
-7,-33,-25,20,9,-29,-72,-7,18,10,-22,-26
-48,-46,2,47,-25,-22,-56,-3,11,-1,-38,-40
-50,-44,6,47,-28,-19,-49,0,4,-12,-56,-64
-5,-34,-29,20,12,-31,-42,5,-3,-11,-53,-65
-14,-32,-18,24,2,-25,-36,3,-5,-9,-49,-60
-26,-28,-2,27,-12,-15,-29,-1,-5,-10,-46,-59
-33,-25,8,29,-20,-8,-26,1,-5,-9,-41,-54
-44,-20,24,32,-34,1,-34,-4,-5,-11,-40,-55
-45,-18,27,31,-35,4,-38,-5,-5,-7,-40,-55
-39,-14,25,26,-32,6,-43,-5,-6,-5,-40,-55
-41,-16,25,28,-32,4,-44,-10,-10,-5,-45,-55
-36,-13,22,24,-28,4,-39,-10,-10,-5,-46,-55
-37,-18,19,28,-27,0,-50,-10,-13,-5,-45,-55
-52,-30,22,41,-36,-4,-56,-10,-19,-5,-42,-52
-40,-28,12,34,-26,-8,-55,-9,-23,-11,-40,-49
-41,-31,11,36,-26,-10,-53,-13,-27,-18,-39,-46
-23,-29,-5,26,-9,-17,-49,-15,-33,-24,-48,-44
-7,-32,-24,20,8,-28,-51,-15,-36,-31,-59,-40
-17,-27,-10,22,-4,-18,-46,-19,-41,-37,-61,-41
-10,-30,-20,20,6,-25,-40,-20,-44,-43,-64,-50
-30,-52,-22,41,-4,-37,-35,-20,-52,-46,-67,-60
-37,-48,-10,43,-13,-29,-29,-24,-65,-51,-77,-69
-28,-36,-8,32,-10,-22,-23,-27,-64,-54,-82,-71
-35,-31,4,33,-19,-13,-20,-30,-68,-58,-83,-74
-35,-29,6,32,-21,-11,-20,-33,-70,-61,-87,-76
-19,-30,-11,25,-4,-20,-21,-35,-71,-64,-89,-81
-30,-42,-12,36,-9,-26,-20,-38,-76,-67,-92,-79
-38,-46,-8,42,-15,-27,-20,-40,-74,-70,-95,-75
-30,-43,-13,36,-8,-28,-20,-40,-78,-73,-95,-75
-36,-40,-4,38,-16,-22,-19,-40,-80,-76,-97,-74
-15,-40,-24,28,5,-32,-21,-40,-80,-79,-101,-77
-41,-60,-19,51,-11,-40,-19,-40,-84,-80,-99,-72
-31,-59,-28,45,-1,-44,-29,-33,-88,-74,-98,-86
-5,-47,-41,26,18,-43,-11,-22,-81,-64,-92,-91
-20,-26,-7,23,-6,-16,-4,-7,-65,-62,-84,-79
-20,-1,19,11,-19,9,48,37,-34,-39,-61,-63
-65,-33,32,49,-48,-1,177,83,2,-37,-42,-36
