I,II,III,aVR,aVL,aVF,V1,V2,V3,V4,V5,V6
-88,-48,40,68,-64,-4,38,-25,-53,-101,-76,-87
-100,-58,41,79,-70,-8,41,-28,-54,-102,-82,-90
-113,-75,37,94,-75,-19,45,-17,-44,-99,-98,-103
-106,-62,44,84,-75,-9,49,-12,-43,-85,-90,-88
-164,-129,35,146,-99,-47,161,123,13,-97,-203,-196
-110,-107,3,108,-56,-52,130,142,131,92,-39,-93
366,109,-257,-237,311,-74,-328,-351,29,414,645,516
1117,480,-637,-799,877,-78,-1026,-971,-46,882,1622,1340
1151,747,-404,-949,777,172,-1334,-1635,-604,462,1560,1512
370,319,-51,-344,210,134,-912,-1739,-1385,-862,103,533
-178,-152,26,165,-101,-63,-456,-1240,-1259,-1120,-612,-224
-280,-139,140,210,-209,0,-247,-760,-739,-660,-436,-249
-208,-115,93,161,-150,-11,-8,-215,-263,-284,-246,-182
-106,-68,38,87,-72,-15,90,21,-42,-76,-118,-120
-78,-51,28,64,-53,-11,82,31,-24,-86,-116,-123
-62,-51,11,56,-36,-20,92,77,19,-53,-90,-112
-52,-38,14,44,-33,-12,90,83,18,-52,-91,-103
-80,-83,-3,82,-38,-43,97,101,36,-37,-79,-100
-82,-85,-3,84,-40,-44,93,112,44,-30,-71,-85
-64,-78,-14,71,-25,-46,90,127,54,-28,-70,-82
-47,-71,-23,59,-12,-46,90,147,52,-18,-60,-78
-42,-63,-21,53,-10,-42,87,165,74,-4,-58,-81
-38,-53,-14,46,-12,-34,85,163,97,24,-50,-79
-37,-47,-10,42,-13,-28,85,177,118,32,-46,-81
-29,-32,-3,31,-13,-17,87,191,139,40,-37,-77
3,2,-2,-3,3,0,95,210,152,72,-31,-68
-14,-26,-12,20,-1,-19,102,245,182,103,-24,-60
-9,-32,-23,21,8,-27,89,265,201,118,-8,-52
35,0,-36,-17,36,-18,78,309,246,161,16,-31
74,29,-44,-51,59,-7,67,351,285,201,51,1
121,60,-62,-90,91,-1,54,374,320,233,88,34
164,95,-69,-129,116,12,43,413,370,286,127,81
239,160,-79,-199,159,40,21,440,401,324,165,117
264,174,-90,-218,176,41,-2,457,427,342,204,156
268,185,-83,-226,175,51,-6,471,434,350,248,201
281,206,-75,-243,178,65,-4,447,421,335,249,207
269,198,-70,-233,169,64,-5,410,402,319,244,204
243,185,-58,-213,150,63,12,364,367,298,230,207
166,146,-21,-156,94,62,41,295,308,247,178,162
96,98,2,-97,47,50,45,227,231,177,140,103
30,59,29,-45,0,44,52,157,156,111,84,66
-5,48,54,-22,-30,51,70,98,95,51,29,24
-16,31,47,-7,-32,39,69,64,54,9,4,-2
-22,24,46,-1,-34,35,70,43,32,-2,-17,-18
-25,18,42,3,-34,30,70,35,25,-11,-29,-32
-57,-17,40,37,-48,11,70,36,24,-16,-38,-36
-64,-26,38,45,-51,6,71,33,20,-23,-32,-37
-51,-17,34,34,-42,8,68,31,18,-36,-44,-43
-43,-7,36,25,-39,14,83,27,13,-31,-70,-54
-65,-17,48,41,-56,15,92,40,22,-28,-70,-56
-72,-21,51,47,-61,14,89,55,32,-25,-70,-54
-55,-5,50,30,-52,22,90,48,26,-20,-70,-51
-71,0,71,35,-71,35,90,44,22,-21,-70,-49
-75,-2,73,38,-74,35,90,38,17,-19,-70,-50
-53,12,65,20,-59,39,84,32,12,-21,-70,-50
-54,8,62,23,-58,35,78,28,9,-34,-70,-50
-54,1,54,26,-54,27,74,20,0,-50,-70,-50
-30,20,50,5,-40,35,68,15,-8,-47,-70,-50
-24,21,45,1,-34,32,60,7,-17,-59,-70,-50
-28,18,45,5,-37,31,71,1,-25,-81,-73,-53
-30,14,44,7,-37,29,82,-5,-33,-80,-77,-56
-36,4,40,16,-38,22,79,-24,-41,-79,-80,-59
-39,1,40,19,-39,20,78,-33,-48,-81,-83,-62
-51,-9,42,29,-46,16,74,-36,-53,-79,-87,-65
-83,-38,46,60,-65,4,75,-40,-59,-83,-90,-68
-70,-22,48,46,-59,13,75,-35,-63,-85,-91,-72
-42,9,51,16,-47,30,75,-32,-69,-85,-94,-75
-49,5,54,22,-51,29,75,-28,-68,-88,-96,-72
-29,27,57,1,-43,41,75,-25,-65,-91,-91,-69
-46,13,58,16,-52,35,75,-19,-64,-90,-86,-71
-56,6,63,25,-59,34,76,-29,-60,-83,-80,-70
-47,16,64,15,-55,39,102,-28,-60,-74,-74,-71
-72,-2,70,37,-71,33,106,-12,-49,-64,-68,-69
-49,45,93,2,-71,69,105,9,-27,-62,-45,-53
-12,84,96,-36,-54,90,103,22,-6,-65,-31,-40
13,107,95,-61,-41,101,62,-18,-7,-65,-37,-40
1,94,93,-48,-46,93,33,-50,-20,-65,-33,-40
2,57,55,-30,-26,56,36,-56,-40,-65,-39,-39
-8,16,24,-4,-16,20,34,-59,-61,-71,-53,-44
-68,-47,21,57,-44,-13,37,-59,-74,-85,-71,-72
-78,-65,14,71,-46,-25,49,-51,-74,-96,-109,-109
-79,-69,10,74,-45,-29,40,-54,-76,-97,-116,-111
-74,-71,3,72,-39,-34,54,-45,-76,-105,-127,-120
-74,-74,0,74,-37,-37,44,-47,-72,-93,-110,-109
-84,-74,10,78,-46,-31,52,-44,-81,-107,-132,-121
-74,-74,0,74,-37,-37,63,-37,-55,-93,-107,-114
-134,-134,0,134,-67,-66,97,-10,-55,-90,-146,-153
-170,-180,-10,175,-80,-95,229,183,89,-20,-224,-255
7,-68,-76,31,42,-72,70,40,130,200,146,45
598,212,-387,-405,492,-87,-467,-450,54,654,1068,851
1203,693,-510,-947,856,91,-1120,-1125,-100,1022,2015,1720
858,762,-97,-810,477,332,-1184,-1730,-910,46,1286,1431
91,193,102,-142,-6,147,-618,-1479,-1360,-1051,-257,224
-251,-132,119,191,-184,-7,-319,-1049,-1056,-970,-617,-313
-286,-142,145,214,-215,2,-148,-630,-614,-594,-433,-295
-177,-131,46,154,-112,-42,42,-125,-168,-231,-218,-192
-125,-120,4,122,-64,-57,74,6,-44,-119,-154,-112
-118,-123,-5,121,-56,-64,97,53,-22,-99,-169,-137
-126,-111,15,118,-70,-47,99,74,7,-67,-124,-158
-123,-111,12,117,-68,-49,94,93,34,-75,-107,-151
-100,-102,-2,101,-49,-52,93,111,61,-46,-89,-133
-87,-98,-11,93,-38,-54,86,99,54,-48,-97,-129
-65,-93,-27,79,-19,-60,86,126,65,-29,-87,-122
-61,-85,-24,74,-19,-54,79,131,65,-24,-86,-118
-56,-80,-24,68,-16,-51,74,137,73,-13,-82,-111
-34,-72,-38,54,2,-54,68,140,91,20,-77,-106
-20,-67,-47,44,14,-57,62,150,108,30,-67,-108
-10,-54,-44,32,17,-49,57,168,118,37,-49,-101
2,-44,-46,21,24,-45,50,184,151,64,-43,-86
11,-32,-44,11,28,-38,46,209,188,95,-36,-80
17,-31,-48,7,33,-39,39,236,221,134,-19,-69
45,-9,-54,-18,50,-31,34,265,255,163,24,-40
127,49,-78,-88,102,-14,24,295,294,203,73,-8
153,60,-93,-107,123,-16,-1,321,337,259,112,44
164,75,-88,-120,126,-6,-31,341,364,301,162,97
219,127,-91,-173,155,18,-46,357,398,336,207,134
225,137,-88,-181,156,24,-47,366,410,358,240,178
251,151,-101,-201,176,25,-55,365,396,357,266,207
254,171,-83,-212,168,44,-59,342,384,349,267,208
200,159,-41,-179,120,59,-50,297,357,331,247,199
162,144,-19,-153,90,62,-21,251,312,287,212,180
109,112,3,-110,52,57,19,200,251,226,157,124
52,69,16,-61,17,42,33,150,176,149,84,59
3,32,29,-18,-13,30,27,109,112,83,29,14
-21,17,38,2,-30,27,35,77,64,42,-5,-16
-17,17,35,-1,-26,26,56,59,32,10,-38,-45
-27,8,35,9,-31,21,62,54,15,-19,-55,-63
-49,-2,47,26,-48,22,63,55,0,-47,-75,-80
-65,-14,51,40,-58,18,67,55,-2,-54,-88,-92
-78,-29,49,54,-64,10,70,55,1,-46,-81,-82
-91,-40,50,66,-70,5,69,55,-1,-42,-80,-80
-83,-34,50,59,-66,8,65,59,1,-36,-76,-75
-78,-28,50,53,-64,11,65,60,-5,-35,-74,-70
-70,-26,44,47,-57,9,65,60,-13,-34,-80,-76
-49,-11,38,30,-43,13,65,60,-7,-31,-81,-81
-70,-39,31,54,-50,-4,65,60,-4,-28,-76,-83
-88,-63,25,75,-56,-19,68,57,1,-33,-74,-86
-73,-57,17,65,-45,-20,71,41,5,-32,-68,-89
-46,-28,18,37,-31,-5,70,30,-2,-39,-82,-91
-47,-24,23,35,-35,0,70,34,-12,-65,-103,-94
-78,-57,21,67,-49,-18,70,30,-20,-66,-98,-95
-66,-47,20,57,-43,-14,69,22,-30,-64,-95,-98
-61,-41,20,51,-41,-10,65,16,-38,-69,-93,-101
-52,-32,20,42,-36,-6,62,9,-40,-86,-88,-100
-63,-45,19,54,-41,-13,60,4,-47,-101,-95,-100
-93,-69,24,81,-58,-22,56,-1,-50,-99,-106,-100
-86,-63,23,74,-54,-20,55,-6,-51,-104,-105,-100
-94,-66,28,79,-61,-19,52,-11,-55,-106,-104,-100
-84,-65,19,74,-51,-23,49,-15,-55,-102,-106,-100
-86,-65,21,75,-53,-21,46,-20,-63,-96,-103,-104
-113,-63,50,88,-81,-6,43,-16,-68,-91,-113,-107
-103,-52,51,77,-77,-1,41,-14,-58,-86,-125,-102
-88,-39,49,63,-68,5,39,-15,-52,-80,-113,-94
-74,-22,52,48,-63,15,53,-11,-42,-74,-107,-85
-71,11,82,30,-77,46,63,10,-36,-71,-90,-77
-39,50,89,-6,-64,70,54,45,-28,-68,-50,-71
-10,82,91,-36,-51,86,38,25,-24,-65,-46,-67
-28,81,109,-27,-69,95,12,-14,-57,-63,-62,-65
-14,64,78,-25,-46,70,-14,-32,-79,-59,-63,-60
-28,30,58,-1,-43,44,-15,-37,-73,-64,-66,-57
-52,-13,39,33,-45,13,-6,-28,-81,-73,-71,-55
-62,-45,17,53,-39,-14,9,-31,-106,-103,-103,-85
-84,-74,10,79,-47,-32,30,-19,-102,-115,-118,-113
-92,-84,8,88,-50,-38,29,-25,-101,-117,-116,-112
-106,-101,4,103,-55,-48,32,-10,-93,-113,-123,-119
-107,-105,2,106,-54,-52,20,-11,-91,-112,-105,-111
-95,-94,0,95,-47,-47,32,6,-87,-146,-124,-130
-76,-84,-8,80,-34,-46,26,12,-72,-119,-92,-106
-122,-144,-22,133,-50,-83,92,62,-50,-146,-185,-174
-157,-204,-46,181,-55,-125,180,215,118,-16,-182,-222
73,-47,-120,-13,97,-83,-74,-73,89,266,293,186
683,331,-352,-507,517,-10,-648,-563,78,873,1404,1110
1060,773,-287,-916,673,243,-1203,-1218,-192,1140,2236,1873
556,635,79,-596,238,357,-1071,-1673,-1107,-192,1024,1224
-133,19,151,57,-142,85,-544,-1323,-1372,-1168,-449,31
-309,-162,147,236,-228,-7,-329,-962,-999,-915,-601,-325
-229,-121,109,175,-169,-6,-118,-504,-519,-511,-403,-264
-155,-148,7,151,-81,-70,62,-74,-112,-167,-192,-162
-115,-116,-1,115,-56,-58,75,-13,-45,-112,-156,-122
-108,-125,-18,117,-45,-71,89,29,-17,-77,-154,-125
-82,-110,-27,96,-27,-68,89,45,-4,-57,-142,-136
-67,-98,-31,83,-18,-65,90,71,16,-59,-139,-136
-78,-108,-30,93,-24,-69,90,82,33,-36,-117,-121
-64,-94,-29,79,-17,-61,90,90,36,-38,-120,-118
-74,-105,-31,89,-21,-68,90,93,54,-18,-106,-107
-66,-95,-28,81,-19,-61,84,86,53,-15,-104,-104
-43,-78,-36,61,-3,-56,79,105,71,-1,-95,-99
-22,-55,-33,39,6,-44,74,127,93,18,-88,-95
-12,-50,-37,32,13,-43,68,135,117,31,-77,-91
-41,-73,-32,58,-4,-53,63,143,139,47,-68,-82
-5,-45,-39,25,18,-42,57,173,163,82,-56,-63
9,-34,-43,13,26,-38,48,198,196,106,-40,-46
-11,-37,-26,24,7,-31,39,231,245,143,-6,-39
71,4,-67,-37,69,-31,30,271,293,196,39,-10
119,27,-92,-73,105,-32,21,310,339,247,73,33
154,63,-91,-108,123,-14,10,342,379,299,129,76
183,90,-93,-136,138,-1,0,365,409,338,181,121
188,108,-80,-148,134,13,-16,387,433,363,214,156
232,157,-75,-194,153,41,-35,379,428,375,249,192
234,169,-66,-201,150,51,-31,365,421,367,256,199
216,157,-59,-186,137,49,-24,346,406,348,256,182
192,148,-44,-170,118,52,-19,305,357,317,246,175
159,133,-26,-146,92,53,-10,255,299,262,202,154
128,120,-9,-124,68,55,-1,190,225,191,141,105
87,93,6,-90,40,49,11,131,152,121,78,51
52,62,10,-57,21,36,19,87,97,67,34,7
10,34,24,-22,-7,28,22,57,52,24,2,-22
-26,12,38,6,-32,25,27,45,19,-1,-14,-36
-42,-7,35,24,-38,14,30,43,5,-10,-26,-42
-60,-25,36,42,-48,5,31,40,3,-23,-42,-45
-57,-25,32,41,-44,3,28,37,0,-32,-51,-49
-55,-25,30,40,-42,2,39,35,-3,-36,-58,-50
-53,-23,30,38,-41,4,51,37,-6,-34,-58,-67
-49,-19,29,34,-39,5,50,41,-3,-31,-54,-81
-70,-21,50,45,-60,14,50,38,0,-30,-55,-79
-69,-16,53,42,-61,18,50,50,3,-30,-55,-80
-55,-12,43,33,-49,15,50,66,6,-30,-55,-80
-44,-5,38,24,-41,16,48,60,9,-29,-56,-80
-35,-4,30,19,-32,13,44,55,10,-33,-59,-78
-20,5,25,7,-23,15,45,51,5,-35,-63,-74
-22,-2,21,12,-22,9,45,46,1,-39,-65,-76
-52,-33,19,42,-35,-7,45,42,-2,-41,-68,-71
-51,-36,15,43,-32,-11,45,34,-6,-45,-71,-70
-48,-34,13,41,-30,-10,50,28,-10,-59,-75,-70
-44,-36,8,40,-25,-13,58,20,-10,-59,-83,-70
-48,-34,14,41,-31,-10,60,12,-10,-74,-92,-70
-49,-37,12,42,-30,-12,60,6,-17,-87,-96,-69
-40,-40,0,40,-20,-20,60,0,-25,-84,-98,-71
-56,-40,15,48,-35,-12,60,0,-32,-86,-101,-69
-61,-39,22,50,-41,-9,60,-1,-42,-85,-104,-75
-63,-44,19,54,-41,-12,55,-5,-42,-85,-106,-82
-64,-44,21,54,-42,-11,55,-5,-40,-81,-109,-80
-75,-55,20,65,-47,-17,54,-3,-39,-79,-110,-80
-75,-56,19,65,-47,-18,50,0,-41,-81,-110,-77
-64,-46,18,55,-41,-14,50,0,-50,-79,-110,-74
-62,-56,5,59,-33,-25,53,4,-51,-81,-110,-78
-71,-54,17,62,-43,-18,56,6,-48,-78,-109,-89
-89,-52,38,70,-64,-7,67,5,-45,-68,-103,-84
-83,-47,36,65,-59,-6,85,18,-44,-54,-100,-75
-80,-17,63,48,-72,23,95,35,-29,-53,-88,-69
-49,36,85,6,-67,60,90,37,-7,-55,-68,-44
13,103,91,-58,-39,97,54,28,-6,-54,-65,-33
22,109,87,-66,-33,98,14,19,-14,-57,-65,-36
25,96,71,-61,-23,83,3,6,-32,-52,-65,-35
13,73,60,-43,-24,66,-3,-5,-38,-81,-64,-33
-53,-3,50,28,-51,23,11,-10,-48,-99,-68,-41
-99,-58,40,78,-69,-9,39,-14,-64,-109,-99,-77
-90,-61,29,75,-59,-15,39,-24,-67,-123,-107,-90
-88,-63,25,75,-57,-18,41,-23,-84,-126,-116,-90
-115,-91,24,103,-69,-34,40,-10,-76,-128,-116,-92
-121,-96,25,109,-73,-36,38,-17,-77,-128,-115,-87
-125,-108,16,116,-70,-46,45,7,-65,-137,-128,-94
-119,-94,24,106,-71,-35,38,-12,-64,-134,-113,-94
-147,-144,3,146,-75,-71,151,115,-10,-126,-218,-214
-112,-146,-34,129,-39,-90,134,128,97,49,-76,-140
323,79,-244,-201,283,-82,-314,-351,7,396,599,455
1043,458,-585,-750,814,-64,-984,-882,-18,991,1683,1347
1115,742,-374,-928,744,184,-1336,-1543,-542,653,1774,1622
376,337,-39,-356,208,149,-937,-1722,-1387,-821,241,641
-173,-168,5,170,-89,-81,-472,-1251,-1321,-1197,-629,-214
-281,-168,113,224,-197,-27,-275,-809,-813,-723,-475,-280
-180,-117,63,148,-122,-27,-11,-273,-312,-338,-281,-199
-88,-91,-3,89,-42,-47,88,-23,-64,-105,-153,-130
-104,-92,12,98,-58,-40,75,-14,-60,-100,-152,-137
-89,-90,-1,89,-44,-45,82,39,-2,-58,-129,-128
-81,-77,4,79,-43,-36,83,55,5,-65,-133,-121
-80,-82,-3,81,-38,-42,107,90,22,-48,-124,-120
-56,-56,0,56,-28,-27,104,82,26,-25,-117,-110
-71,-79,-8,75,-31,-44,105,90,38,-15,-116,-112
-92,-102,-11,97,-40,-56,105,103,55,-1,-98,-105
-81,-90,-9,85,-35,-49,104,125,72,2,-88,-105
-79,-89,-11,84,-34,-50,104,145,85,15,-73,-100
-69,-79,-10,74,-30,-44,98,148,101,26,-66,-100
-68,-79,-11,74,-28,-45,98,166,121,47,-58,-93
-42,-61,-18,52,-12,-39,93,187,135,65,-48,-83
-24,-46,-22,35,-1,-34,91,221,166,89,-39,-76
-9,-37,-28,24,9,-32,90,254,197,117,-16,-64
49,-1,-50,-24,50,-25,82,309,250,162,15,-39
60,1,-59,-30,59,-28,70,356,294,210,48,-12
104,43,-61,-73,82,-9,58,396,345,256,92,25
161,86,-75,-123,118,5,48,436,400,302,129,77
170,82,-88,-126,129,-3,44,456,426,337,169,117
214,132,-82,-173,148,25,41,471,443,357,201,164
228,157,-72,-192,150,42,36,455,436,354,224,198
222,158,-64,-190,143,47,34,451,439,357,245,212
228,189,-39,-208,134,74,29,425,420,346,235,213
189,169,-20,-178,104,74,26,358,360,304,209,189
137,128,-9,-132,72,59,24,300,294,250,172,150
71,92,21,-82,25,56,26,214,201,174,125,110
18,57,39,-38,-11,48,24,151,125,112,74,70
11,41,30,-27,-9,35,27,100,76,62,22,31
-6,29,35,-12,-20,31,39,53,29,20,-2,11
-34,21,55,6,-45,38,41,46,6,7,-16,-2
-44,10,55,17,-50,32,39,41,-10,-1,-37,-20
-47,3,50,22,-49,26,41,36,-27,-15,-45,-34
-56,-6,49,31,-52,21,39,30,-21,-29,-47,-43
-78,-35,43,56,-61,4,42,25,-6,-25,-50,-48
-94,-47,48,70,-71,0,44,30,-1,-17,-53,-54
-95,-45,50,70,-72,2,48,38,5,-12,-56,-55
-104,-47,57,75,-80,5,50,39,9,-3,-51,-55
-107,-54,53,80,-80,0,47,49,14,-1,-50,-60
-84,-43,40,63,-62,-1,42,54,19,-7,-49,-59
-89,-44,45,66,-66,1,39,45,18,-14,-46,-62
-107,-66,41,87,-74,-12,35,39,12,-21,-43,-65
-102,-65,37,83,-69,-14,32,32,7,-28,-50,-65
-98,-63,35,80,-66,-14,28,26,4,-34,-61,-65
-79,-51,29,65,-54,-11,25,21,-2,-39,-60,-65
-78,-46,31,62,-54,-7,25,20,-5,-44,-60,-66
-75,-24,51,49,-63,13,25,20,-12,-47,-59,-60
-109,-52,57,80,-83,2,25,15,-19,-52,-66,-70
-127,-73,54,99,-90,-9,25,15,-26,-55,-71,-78
-79,-24,56,51,-67,16,21,14,-34,-60,-69,-74
-100,-45,54,72,-77,4,19,9,-41,-63,-70,-75
-113,-59,55,85,-83,-2,16,6,-48,-66,-70,-75
-101,-52,49,76,-74,-1,14,3,-50,-69,-69,-75
-104,-57,47,80,-75,-5,10,-2,-50,-72,-77,-75
-95,-53,42,74,-68,-5,11,-5,-50,-74,-90,-89
-95,-56,39,76,-67,-8,25,-5,-51,-77,-93,-97
-82,-49,34,65,-58,-7,30,-5,-54,-81,-98,-94
-75,-42,33,58,-54,-4,30,-5,-55,-80,-99,-93
-92,-37,55,64,-73,9,34,-5,-58,-80,-92,-89
-94,-28,66,60,-79,19,36,-5,-53,-76,-89,-91
-91,-25,66,58,-79,21,38,-4,-43,-75,-81,-86
-82,-11,71,47,-76,30,55,6,-35,-73,-77,-75
-75,17,92,29,-84,54,71,14,-31,-48,-67,-65
-58,55,113,2,-86,83,73,29,-35,-24,-48,-55
-22,91,113,-35,-68,102,59,10,-36,-26,-44,-48
-11,95,107,-42,-60,101,18,-31,-34,-23,-45,-42
8,96,88,-52,-40,92,-17,-38,-43,-30,-45,-36
0,49,49,-25,-25,49,-17,-33,-54,-54,-44,-30
-43,-14,29,28,-35,7,8,-37,-61,-63,-60,-49
-69,-42,27,55,-48,-7,28,-34,-65,-95,-97,-92
-89,-66,23,77,-56,-22,22,-35,-58,-100,-99,-98
-84,-63,21,73,-52,-21,27,-37,-60,-101,-93,-100
-74,-61,14,67,-44,-23,31,-30,-51,-100,-95,-102
-94,-75,19,84,-57,-28,27,-43,-55,-98,-110,-100
-102,-84,18,93,-60,-33,37,-24,-46,-105,-129,-113
-91,-68,23,80,-56,-22,33,-50,-46,-90,-115,-93
-161,-138,23,149,-92,-57,147,94,38,-84,-180,-188
-116,-116,-1,116,-57,-58,137,119,155,87,-26,-89
362,102,-260,-232,311,-79,-320,-362,54,400,619,511
1089,473,-616,-781,853,-72,-1006,-946,-6,892,1619,1364
1173,777,-396,-975,784,190,-1328,-1625,-568,479,1582,1562
403,346,-57,-374,229,144,-900,-1732,-1351,-868,118,561
-169,-134,35,151,-102,-49,-445,-1259,-1254,-1154,-620,-224
-264,-113,152,188,-208,19,-251,-820,-771,-716,-473,-270
-204,-115,89,159,-146,-13,-11,-268,-288,-334,-282,-200
-138,-112,27,125,-82,-42,81,-17,-52,-120,-142,-133
-131,-103,28,117,-79,-37,90,5,-32,-125,-137,-137
-112,-103,8,107,-60,-47,99,54,12,-80,-105,-121
-103,-91,12,97,-57,-39,93,52,8,-70,-106,-112
-92,-94,-2,93,-45,-48,103,70,29,-37,-92,-108
-79,-83,-4,81,-37,-43,98,88,33,-23,-84,-99
-69,-84,-15,77,-27,-49,103,105,46,-20,-87,-97
-55,-75,-20,65,-17,-48,106,111,51,-8,-83,-88
-42,-70,-28,56,-7,-48,107,124,50,-6,-87,-86
-62,-98,-36,80,-12,-67,101,129,68,4,-84,-78
-58,-100,-42,80,-8,-71,96,137,82,10,-83,-74
-36,-86,-49,61,7,-67,91,167,117,34,-72,-67
-26,-79,-53,52,14,-66,85,182,141,51,-62,-62
-7,-63,-56,35,25,-59,80,206,155,68,-54,-57
0,-51,-51,26,26,-51,75,242,196,103,-27,-37
42,-30,-73,-6,58,-51,76,275,239,144,19,-20
97,9,-88,-53,93,-40,72,321,289,183,46,6
132,49,-83,-90,107,-17,70,364,342,233,84,43
168,74,-94,-121,131,-10,67,395,383,276,127,87
206,109,-97,-157,152,5,59,423,417,295,160,121
220,128,-92,-174,156,17,52,424,439,324,198,138
241,152,-89,-197,165,32,46,418,438,334,232,181
267,183,-84,-224,175,49,36,407,422,321,251,201
241,161,-80,-201,160,41,33,378,402,313,239,187
200,137,-63,-169,131,37,41,332,357,281,215,173
150,114,-36,-132,92,39,49,269,295,237,182,148
109,87,-23,-98,66,32,63,194,206,178,121,95
56,50,-6,-53,31,22,67,133,126,105,53,32
-5,17,22,-6,-14,20,63,99,75,56,8,6
-24,0,24,12,-24,12,61,58,31,17,-22,-7
-25,-9,16,17,-20,3,59,31,4,-11,-44,-18
-6,8,15,-1,-11,11,62,29,-8,-19,-57,-27
-18,-11,8,14,-13,-1,65,26,-10,-26,-62,-38
-26,-21,5,23,-15,-7,65,23,-15,-32,-64,-48
-16,-4,12,10,-14,4,65,20,-20,-40,-72,-55
-52,-33,19,42,-36,-7,65,20,-16,-44,-72,-56
-69,-43,26,56,-48,-8,65,20,-10,-40,-70,-60
-66,-38,28,51,-47,-5,69,28,-4,-35,-70,-63
-60,-37,23,48,-41,-7,70,30,1,-30,-66,-65
-50,-33,17,41,-33,-8,72,24,14,-27,-65,-65
-67,-53,14,59,-40,-19,76,22,16,-20,-65,-65
-70,-62,8,66,-39,-27,74,17,4,-24,-71,-65
-64,-58,6,61,-35,-26,70,14,-5,-37,-78,-65
-52,-57,-5,54,-23,-31,71,10,-15,-42,-83,-65
-40,-52,-13,47,-13,-32,67,10,-33,-50,-85,-65
-59,-51,8,55,-34,-21,65,9,-49,-51,-85,-70
-45,-47,-2,46,-22,-24,65,4,-51,-49,-85,-75
-41,-45,-5,43,-17,-25,61,6,-54,-50,-84,-77
-52,-44,7,48,-29,-19,58,2,-57,-50,-81,-90
-55,-46,9,51,-32,-18,53,-2,-59,-50,-70,-101
-92,-67,25,79,-58,-21,52,-7,-63,-53,-80,-99
-90,-71,19,80,-55,-26,44,-10,-65,-67,-97,-100
-82,-69,13,75,-47,-28,52,-5,-60,-76,-94,-100
-80,-71,9,75,-45,-31,75,-5,-55,-75,-95,-100
-68,-68,0,68,-34,-33,75,-5,-53,-75,-95,-96
-77,-73,4,75,-41,-34,75,-5,-44,-75,-95,-89
-86,-67,18,76,-52,-24,76,-1,-48,-76,-94,-86
-85,-54,31,69,-58,-11,75,15,-55,-72,-84,-79
-58,-11,47,34,-52,18,78,26,-38,-51,-78,-74
-36,17,53,9,-44,35,80,43,-16,-40,-71,-68
-27,39,66,-6,-47,52,80,34,-1,-39,-52,-45
-16,91,107,-38,-62,99,62,12,-1,-33,-30,-32
-10,98,108,-45,-59,103,38,-8,-13,-45,-31,-37
-1,70,72,-35,-37,71,34,-40,-39,-65,-41,-33
-22,26,48,-2,-35,37,36,-39,-47,-67,-44,-39
-62,-24,38,43,-50,7,29,-42,-56,-82,-74,-74
-86,-65,21,75,-53,-22,32,-38,-63,-96,-98,-94
-83,-76,7,79,-44,-34,28,-41,-55,-79,-92,-90
-104,-93,11,99,-58,-40,37,-41,-71,-104,-124,-112
-111,-106,5,108,-58,-50,35,-30,-69,-106,-119,-110
-86,-83,3,84,-44,-40,45,-28,-74,-108,-120,-100
-82,-87,-4,85,-39,-45,52,-3,-53,-97,-111,-90
-116,-121,-6,119,-55,-63,61,-13,-54,-97,-118,-106
-167,-181,-14,174,-76,-97,194,173,70,-65,-218,-233
-74,-121,-47,98,-13,-84,111,128,145,144,19,-65
426,147,-279,-286,352,-66,-342,-327,63,554,843,659
1082,609,-473,-845,777,68,-1004,-915,7,1103,1989,1620
888,788,-100,-838,494,344,-1239,-1611,-732,380,1638,1624
130,288,158,-210,-14,223,-716,-1536,-1372,-968,-37,443
-236,-126,110,181,-173,-8,-344,-1091,-1158,-1069,-630,-277
-289,-136,152,212,-220,8,-188,-723,-726,-671,-478,-300
-202,-127,75,163,-138,-26,7,-202,-248,-295,-278,-218
-144,-119,25,131,-84,-47,62,-13,-61,-110,-156,-145
-124,-113,11,118,-68,-51,89,34,-23,-91,-159,-143
-107,-111,-4,109,-52,-57,87,68,20,-49,-115,-131
-103,-109,-7,106,-48,-58,84,73,17,-59,-126,-137
-75,-109,-34,92,-20,-71,83,98,46,-39,-108,-134
-76,-104,-28,90,-24,-65,78,83,49,-41,-108,-135
-75,-106,-31,91,-21,-68,77,101,66,-29,-98,-135
-70,-100,-30,85,-20,-65,73,107,75,-20,-99,-119
-60,-89,-29,75,-16,-59,86,114,86,-11,-107,-107
-49,-82,-32,65,-8,-57,86,128,99,6,-88,-95
-41,-67,-26,54,-7,-46,79,138,104,18,-78,-92
-26,-65,-39,46,7,-52,76,161,121,31,-61,-87
-24,-80,-56,52,16,-68,71,172,139,57,-48,-83
-10,-65,-55,38,23,-60,67,197,167,94,-36,-69
7,-52,-60,22,34,-56,61,223,199,128,-19,-44
12,-48,-59,18,36,-53,51,247,237,168,5,-17
50,-21,-70,-14,61,-45,38,283,282,212,44,7
105,22,-84,-63,94,-31,28,315,323,259,90,34
165,75,-90,-120,127,-7,13,349,365,299,146,80
194,103,-91,-148,142,5,1,372,392,331,192,133
202,121,-82,-161,142,19,-17,372,410,355,224,166
231,155,-76,-193,154,39,-37,364,427,353,257,194
234,165,-69,-199,151,47,-33,355,415,336,274,202
206,152,-53,-179,129,50,-30,338,368,318,252,190
161,133,-28,-147,94,52,-11,296,313,273,203,171
112,114,2,-113,55,58,19,241,254,218,162,131
69,85,16,-77,26,50,32,180,180,150,105,81
32,48,16,-41,8,32,36,118,116,80,38,33
-3,28,30,-13,-17,29,35,83,71,41,4,3
-29,7,37,10,-33,22,35,70,30,9,-16,-12
-41,-6,34,23,-37,14,35,65,14,-9,-32,-24
-52,-21,32,36,-42,5,35,61,12,-10,-46,-35
-55,-26,30,41,-42,1,40,56,8,-11,-53,-45
-55,-26,30,41,-42,2,40,51,5,-14,-60,-62
-46,-21,25,33,-36,2,41,52,0,-16,-62,-75
-43,-21,22,32,-32,0,46,63,3,-13,-59,-75
-69,-51,18,60,-43,-16,43,65,16,-11,-60,-75
-71,-56,15,63,-43,-20,54,59,27,-7,-60,-75
-57,-49,9,53,-33,-20,60,54,21,-5,-59,-75
-67,-48,20,57,-43,-14,53,49,9,-1,-62,-73
-74,-42,32,58,-53,-5,50,43,-2,0,-65,-70
-69,-39,30,54,-49,-5,45,37,-13,-6,-66,-67
-65,-36,29,50,-46,-3,40,32,-17,-18,-69,-64
-55,-30,25,42,-40,-2,36,26,-20,-29,-70,-60
-57,-33,24,44,-41,-4,29,21,-23,-40,-73,-60
-81,-54,28,67,-54,-13,22,16,-28,-61,-76,-65
-93,-56,37,74,-65,-9,16,10,-31,-66,-74,-65
-90,-49,41,69,-65,-4,9,5,-34,-64,-75,-68
-91,-51,40,71,-65,-5,6,-2,-39,-65,-74,-70
-82,-42,40,62,-60,0,12,-13,-42,-66,-76,-72
-90,-49,40,69,-65,-4,19,-22,-49,-79,-80,-76
-94,-55,40,74,-67,-7,23,-33,-55,-80,-80,-79
-97,-57,40,77,-68,-8,27,-35,-50,-80,-80,-83
-86,-46,40,66,-63,-3,28,-35,-50,-84,-80,-85
-87,-48,39,67,-63,-4,33,-35,-49,-86,-77,-79
-93,-50,43,71,-67,-3,34,-34,-44,-84,-74,-74
-40,0,40,20,-40,20,37,-36,-47,-69,-70,-69
-61,3,63,29,-62,33,52,-9,-37,-50,-67,-63
-66,21,87,22,-77,54,51,20,-19,-36,-63,-57
-27,67,94,-20,-61,80,41,22,6,-33,-60,-53
-22,80,102,-29,-62,91,21,-13,7,-36,-60,-49
-2,91,93,-45,-48,92,-7,-52,-27,-39,-58,-46
8,73,66,-40,-29,69,-11,-57,-40,-40,-54,-42
9,41,32,-25,-12,36,3,-54,-45,-46,-55,-39
-31,-5,27,18,-29,11,18,-56,-67,-69,-73,-69
-85,-64,21,74,-53,-21,35,-50,-82,-99,-111,-104
-103,-87,15,95,-59,-36,45,-48,-78,-96,-106,-98
-89,-79,11,84,-50,-34,57,-48,-83,-104,-112,-102
-82,-77,5,79,-43,-36,55,-39,-76,-97,-112,-98
-96,-70,26,82,-61,-22,53,-46,-85,-102,-113,-93
-89,-67,23,78,-56,-22,59,-19,-74,-100,-121,-98
-103,-75,28,88,-65,-23,47,-38,-89,-101,-111,-99
-167,-148,19,157,-93,-64,166,97,-18,-127,-237,-226
-111,-126,-15,118,-48,-70,138,96,95,67,-77,-127
361,104,-257,-232,309,-77,-321,-373,5,436,640,499
1069,480,-590,-774,829,-55,-999,-905,-4,1018,1724,1397
1074,736,-338,-905,706,199,-1328,-1598,-599,570,1694,1599
316,302,-14,-309,165,144,-901,-1716,-1426,-876,124,570
-188,-171,16,180,-102,-77,-443,-1228,-1294,-1155,-650,-231
-255,-142,113,198,-184,-14,-250,-799,-788,-701,-489,-264
-199,-124,75,161,-137,-24,-5,-257,-290,-314,-296,-200
-134,-122,12,128,-73,-55,78,-23,-60,-107,-164,-140
-121,-111,9,116,-65,-51,67,-1,-58,-114,-174,-131
-108,-112,-4,110,-52,-58,80,44,-1,-70,-143,-122
-96,-101,-5,99,-45,-53,78,49,3,-73,-143,-115
-86,-100,-15,93,-35,-57,86,75,24,-51,-130,-111
-66,-90,-25,79,-20,-58,84,87,28,-38,-119,-100
-52,-89,-37,71,-7,-62,86,103,38,-20,-112,-101
-56,-84,-27,70,-14,-55,85,100,61,-5,-100,-99
-61,-86,-25,74,-17,-55,85,120,75,-3,-100,-101
-64,-85,-20,75,-21,-52,83,140,86,12,-91,-100
-71,-85,-15,79,-28,-50,79,150,97,25,-87,-100
-64,-84,-20,74,-22,-52,81,174,133,55,-81,-100
-51,-81,-30,67,-11,-55,76,196,155,67,-76,-89
-34,-74,-40,54,3,-57,75,218,171,87,-63,-75
-5,-52,-47,28,22,-49,75,244,206,123,-40,-62
25,-29,-55,2,40,-42,68,288,246,155,-4,-43
61,3,-58,-32,60,-28,58,337,301,198,32,-11
114,42,-72,-78,93,-15,50,382,351,241,71,27
147,65,-82,-106,114,-8,40,412,385,277,113,60
168,89,-80,-129,124,5,32,434,411,309,154,102
214,136,-78,-175,146,29,30,467,424,327,190,133
227,152,-74,-189,151,39,30,466,413,324,216,163
224,148,-75,-185,150,36,30,430,406,327,240,176
222,152,-70,-187,146,41,29,385,390,315,235,160
196,143,-53,-169,124,44,31,337,331,275,201,144
155,121,-34,-138,94,43,33,274,259,228,158,111
83,76,-8,-79,45,34,40,198,181,157,95,70
38,55,17,-47,11,36,56,145,103,88,49,29
18,45,27,-32,-4,35,54,95,47,37,11,-1
-7,17,24,-6,-16,20,49,48,9,11,-29,-36
-18,8,26,5,-22,17,47,39,-7,7,-42,-58
-29,-5,25,16,-27,10,41,41,-16,-1,-44,-53
-39,-14,25,26,-31,5,40,39,-17,-9,-49,-56
-63,-15,48,38,-55,16,45,40,-2,-16,-55,-54
-72,-14,57,43,-64,22,53,39,12,-18,-62,-66
-80,-26,54,52,-66,14,55,44,15,-14,-65,-79
-83,-31,52,57,-67,10,55,47,15,-12,-65,-80
-72,-23,49,47,-60,13,60,54,15,-9,-65,-79
-71,-20,50,46,-61,15,60,61,15,-6,-61,-86
-64,-14,50,39,-57,17,61,55,15,-5,-60,-102
-62,-12,50,37,-56,19,65,50,13,-10,-60,-98
-45,5,50,20,-48,27,65,44,6,-19,-55,-95
-43,7,50,18,-46,28,63,38,1,-30,-55,-93
-55,-5,50,30,-52,22,57,34,-4,-42,-56,-89
-62,-10,52,36,-57,21,52,26,-10,-53,-65,-91
-84,-28,56,55,-69,14,49,19,-15,-61,-74,-90
-94,-40,55,66,-74,7,43,13,-31,-59,-77,-90
-97,-42,55,69,-76,6,40,5,-42,-61,-80,-90
-89,-34,55,61,-72,10,35,-3,-37,-81,-80,-90
-93,-38,55,65,-74,9,35,-11,-51,-87,-79,-90
-109,-49,60,79,-84,5,33,-19,-61,-84,-81,-89
-98,-38,60,68,-78,11,30,-26,-59,-86,-79,-94
-94,-32,61,63,-77,14,30,-33,-60,-85,-85,-95
-113,-47,65,80,-89,9,32,-29,-60,-85,-93,-88
-109,-45,65,77,-87,10,38,-24,-61,-81,-86,-85
-92,-26,66,58,-78,20,38,-20,-52,-78,-79,-78
-86,-22,64,53,-75,21,59,-14,-35,-74,-69,-73
-88,-4,84,45,-86,40,88,-9,-17,-70,-64,-67
-71,32,103,19,-87,67,103,9,-4,-72,-47,-53
-30,76,105,-23,-67,90,87,16,14,-76,-19,-44
-22,94,116,-36,-69,104,40,6,11,-79,-14,-38
-22,67,89,-23,-56,78,20,-13,-21,-82,-15,-34
-18,37,54,-10,-36,46,6,-33,-43,-86,-20,-24
-39,9,49,15,-44,29,12,-35,-59,-95,-45,-36
-57,-19,38,38,-47,9,47,-54,-71,-117,-83,-77
-79,-53,27,66,-53,-13,57,-52,-69,-128,-102,-96
-108,-81,26,94,-67,-27,53,-52,-71,-122,-94,-95
-118,-98,20,108,-68,-39,58,-44,-70,-132,-101,-104
-113,-92,21,103,-67,-35,51,-45,-70,-127,-88,-96
-107,-93,14,99,-61,-39,60,-37,-71,-133,-94,-103
-102,-87,15,94,-59,-35,51,-25,-63,-118,-92,-99
-129,-107,22,118,-75,-42,113,22,-45,-105,-145,-144
-161,-162,-1,162,-80,-81,218,195,60,-52,-195,-232
49,-39,-88,-5,69,-63,-15,-40,46,184,200,111
741,261,-479,-501,610,-109,-628,-599,-20,637,1107,913
1285,653,-632,-969,958,11,-1260,-1255,-205,866,1831,1590
884,659,-225,-771,555,216,-1234,-1790,-994,-112,1035,1227
121,96,-24,-108,72,36,-683,-1553,-1446,-1152,-344,131
-262,-200,62,231,-162,-69,-366,-1073,-1100,-1002,-610,-306
-272,-151,121,211,-196,-15,-141,-568,-590,-544,-390,-246
-159,-136,24,147,-91,-56,50,-93,-175,-217,-195,-189
-130,-117,13,123,-72,-52,75,13,-64,-120,-127,-137
-119,-111,8,115,-63,-51,84,49,-36,-101,-131,-134
-108,-107,1,107,-54,-53,88,71,-5,-58,-107,-118
-85,-86,-1,86,-41,-44,89,75,-5,-60,-116,-107
-96,-107,-11,102,-42,-59,85,86,14,-40,-100,-118
-118,-135,-16,127,-51,-75,80,97,33,-40,-101,-131
-101,-124,-23,113,-39,-73,78,108,52,-28,-93,-122
-100,-119,-19,109,-40,-68,73,112,52,-22,-89,-117
-85,-103,-18,94,-33,-60,70,131,67,-13,-84,-112
-75,-89,-15,83,-30,-52,70,145,82,10,-79,-106
-67,-82,-14,75,-26,-48,70,159,100,36,-75,-100
-49,-72,-22,61,-13,-46,70,179,124,44,-71,-91
-24,-67,-43,46,10,-55,81,207,154,66,-59,-83
-2,-53,-51,27,25,-52,77,226,181,109,-37,-73
7,-45,-51,19,29,-48,63,259,214,133,-8,-51
38,-19,-56,-9,47,-38,53,295,260,168,21,-28
75,18,-58,-46,66,-20,41,337,309,212,43,-8
117,45,-71,-81,94,-13,28,381,356,253,91,33
179,94,-85,-136,132,4,18,404,398,300,144,83
198,113,-85,-155,141,14,14,423,435,330,194,128
217,131,-85,-174,151,23,16,419,446,331,227,156
255,170,-84,-212,169,43,14,413,444,320,242,179
249,162,-86,-205,167,38,16,401,443,311,238,181
230,152,-78,-190,154,37,13,360,414,298,221,170
186,145,-41,-165,113,51,13,304,354,272,202,157
116,105,-11,-111,63,47,36,237,273,211,140,105
67,79,11,-73,28,45,44,167,185,131,84,59
24,47,23,-36,0,35,45,105,120,65,35,26
-18,2,20,8,-19,11,52,62,74,29,-13,-15
-50,-29,21,39,-35,-4,55,32,36,3,-33,-28
-59,-41,18,50,-38,-11,60,20,3,-27,-48,-35
-57,-40,16,48,-36,-12,63,20,-8,-38,-55,-44
-48,-35,13,41,-30,-11,66,20,-12,-44,-60,-51
-61,-38,23,49,-42,-8,63,20,-20,-42,-68,-57
-99,-58,41,78,-70,-9,83,19,-16,-36,-81,-65
-98,-61,37,79,-68,-12,94,26,-10,-33,-84,-68
-90,-59,30,74,-60,-14,89,41,-5,-28,-75,-65
-87,-61,27,74,-57,-17,91,42,0,-17,-70,-65
-79,-60,19,69,-49,-20,90,37,7,-5,-62,-63
-75,-59,15,67,-45,-22,90,34,9,-5,-56,-59
-89,-52,37,70,-63,-8,90,30,3,7,-50,-60
-95,-48,47,71,-70,0,85,26,-4,8,-57,-63
-80,-42,37,61,-58,-2,82,23,-11,-12,-66,-66
-71,-37,34,54,-52,-1,78,19,-17,-23,-63,-64
-58,-30,28,43,-42,-1,75,16,-25,-30,-76,-66
-62,-40,22,51,-42,-9,71,12,-24,-38,-92,-71
-73,-51,23,62,-48,-14,68,8,-39,-40,-89,-76
-72,-40,32,56,-52,-4,65,5,-57,-41,-90,-79
-74,-37,36,55,-55,0,62,2,-57,-55,-90,-84
-64,-31,34,47,-49,1,59,-1,-61,-61,-89,-85
-82,-42,39,62,-60,-1,55,-4,-63,-59,-94,-85
-92,-52,40,72,-66,-6,55,-6,-66,-56,-91,-85
-63,-23,40,43,-51,8,50,-10,-60,-50,-85,-84
-80,-33,47,56,-63,7,54,-8,-52,-47,-81,-95
-84,-33,51,58,-67,9,76,2,-43,-40,-74,-91
-64,12,75,26,-70,44,88,16,-38,-38,-68,-67
-40,42,82,-1,-61,62,90,31,-23,-34,-64,-49
-17,80,97,-32,-57,88,63,21,-5,-35,-59,-44
0,113,113,-57,-57,113,29,-6,-25,-29,-60,-44
13,100,87,-57,-37,93,23,-26,-46,-31,-55,-47
-5,67,72,-32,-39,70,26,-25,-68,-59,-53,-40
-29,24,53,2,-41,38,24,-18,-90,-62,-79,-55
-84,-37,48,60,-66,5,24,-20,-92,-95,-113,-93
-101,-66,35,83,-68,-15,33,-7,-87,-112,-112,-91
-103,-79,25,90,-64,-26,43,-16,-94,-108,-113,-106
-107,-82,25,94,-66,-28,47,-17,-86,-115,-121,-134
-93,-68,25,80,-59,-21,35,-30,-95,-111,-111,-122
-105,-80,25,92,-65,-27,46,-8,-94,-122,-145,-145
-82,-58,24,69,-53,-16,22,-19,-95,-104,-131,-123
-145,-119,26,131,-85,-46,91,52,-60,-127,-220,-206
-168,-174,-6,171,-80,-89,177,218,116,23,-191,-243
126,2,-124,-64,125,-60,-95,-69,75,313,323,222
791,378,-413,-584,602,-18,-701,-573,60,895,1440,1166
1150,836,-314,-993,732,261,-1247,-1279,-290,967,2074,1826
536,632,96,-584,220,363,-1032,-1663,-1171,-380,775,1090
-109,36,145,36,-127,90,-480,-1249,-1325,-1153,-524,-48
-278,-125,154,201,-216,14,-294,-896,-958,-869,-602,-342
-254,-131,123,192,-188,-4,-98,-431,-493,-489,-389,-254
-152,-132,21,142,-86,-55,68,-32,-114,-167,-187,-156
-112,-104,8,109,-60,-48,75,16,-65,-119,-159,-143
-67,-82,-15,75,-26,-48,84,68,-21,-84,-134,-136
-74,-87,-13,81,-30,-49,83,78,-3,-73,-133,-130
-71,-95,-24,83,-24,-59,82,99,11,-69,-138,-133
-53,-82,-29,68,-12,-55,78,107,22,-50,-125,-124
-58,-83,-25,71,-17,-53,75,111,21,-50,-135,-127
-61,-87,-26,75,-17,-56,73,118,39,-31,-124,-119
-70,-92,-22,81,-24,-57,69,118,61,-28,-121,-113
-64,-85,-21,75,-21,-53,68,127,72,-13,-111,-106
-44,-62,-18,53,-13,-39,63,133,77,-5,-107,-99
-47,-78,-31,63,-7,-55,60,155,99,4,-95,-94
-40,-87,-47,64,4,-67,57,165,112,22,-84,-88
-4,-48,-44,26,20,-46,52,185,137,46,-69,-87
7,-38,-45,16,27,-41,50,214,173,82,-44,-72
25,-32,-56,4,41,-44,43,239,208,132,-18,-38
47,-13,-59,-17,53,-35,33,267,250,168,13,-13
97,22,-75,-59,86,-26,25,291,300,217,58,14
157,56,-101,-107,129,-22,15,317,340,276,117,55
180,77,-102,-128,141,-12,8,328,365,302,156,89
192,98,-93,-145,142,2,4,335,389,322,183,118
223,135,-88,-179,155,23,1,343,404,336,221,162
253,172,-81,-212,167,45,-3,336,413,333,243,181
222,154,-69,-188,145,42,-6,316,390,313,234,169
180,132,-48,-156,114,42,3,273,334,281,212,159
151,127,-24,-138,87,51,12,231,283,229,177,134
89,82,-6,-85,47,38,24,179,216,162,112,81
30,32,2,-31,14,17,37,120,143,107,51,28
2,12,9,-7,-4,10,45,81,91,58,5,-9
-14,2,16,6,-15,8,49,46,60,10,-28,-32
-43,-21,22,31,-32,0,46,33,50,-12,-49,-42
-75,-45,30,60,-52,-7,43,36,45,-17,-70,-55
-82,-48,34,64,-58,-7,40,34,42,-20,-70,-64
-82,-46,37,64,-59,-4,38,36,40,-20,-73,-65
-83,-43,40,63,-61,-1,33,34,36,-23,-77,-65
-85,-43,43,64,-64,0,46,36,35,-26,-71,-65
-82,-36,46,58,-64,4,64,40,34,-24,-71,-70
-87,-45,43,66,-65,-1,61,40,35,-21,-66,-70
-88,-48,40,68,-64,-4,59,40,34,-20,-65,-63
-73,-36,37,54,-55,0,56,40,35,-20,-68,-60
-80,-46,34,62,-57,-6,53,40,45,-20,-71,-55
-76,-45,31,61,-53,-7,51,35,35,-19,-74,-50
-75,-45,30,60,-52,-7,48,27,22,-27,-77,-54
-80,-45,35,62,-57,-5,45,21,19,-35,-80,-63
-80,-45,35,62,-57,-5,45,12,9,-39,-81,-69
-83,-48,35,65,-59,-6,45,6,5,-50,-89,-67
-103,-68,35,85,-69,-16,45,-1,-5,-64,-95,-64
-126,-91,35,108,-80,-28,45,-5,-17,-76,-95,-65
-118,-83,35,100,-76,-24,48,-5,-20,-77,-95,-65
-114,-79,35,96,-74,-22,50,-17,-32,-80,-95,-65
-108,-73,36,90,-72,-18,50,-18,-34,-83,-95,-64
-101,-67,34,84,-68,-16,50,-8,-27,-86,-96,-58
-97,-60,37,78,-66,-12,50,-3,-24,-81,-91,-53
-65,-33,33,48,-49,0,51,5,-18,-70,-80,-47
-60,-8,52,34,-56,22,67,12,-14,-59,-70,-41
-56,23,79,16,-68,51,99,29,-9,-52,-59,-34
-26,56,82,-15,-54,68,98,40,5,-55,-55,-27
-10,86,95,-38,-53,90,51,15,6,-55,-52,-21
9,96,87,-53,-39,91,22,-1,-5,-60,-50,-14
-1,66,68,-33,-35,66,2,-6,-16,-60,-46,-11
-30,25,55,3,-42,40,-12,-11,-29,-69,-45,-22
-59,-21,39,40,-49,9,8,-17,-38,-99,-65,-52
-93,-64,29,79,-61,-18,25,-25,-60,-125,-96,-83
-115,-92,23,103,-69,-34,37,-20,-67,-118,-95,-86
-122,-95,27,108,-74,-34,55,-24,-84,-120,-107,-93
-113,-91,22,101,-68,-34,57,-14,-84,-120,-115,-101
-115,-87,28,101,-71,-30,51,-24,-82,-110,-108,-97
-106,-83,23,94,-64,-30,61,-5,-71,-123,-130,-115
-112,-95,16,103,-64,-39,45,-29,-67,-112,-103,-105
-182,-179,2,180,-92,-88,133,76,-38,-129,-214,-206
-174,-187,-12,181,-81,-99,167,171,116,13,-139,-181
213,25,-188,-119,201,-81,-206,-231,55,349,478,348
933,403,-530,-668,731,-63,-868,-715,47,1010,1624,1292
1103,733,-370,-918,737,181,-1323,-1389,-377,886,1997,1757
464,429,-36,-446,250,196,-1006,-1696,-1305,-614,530,862
-134,-119,15,127,-74,-52,-478,-1244,-1359,-1204,-568,-136
-298,-192,106,245,-201,-42,-281,-846,-896,-798,-520,-312
-209,-127,82,168,-145,-22,-48,-333,-399,-404,-318,-233
-120,-97,23,109,-71,-37,79,-17,-77,-127,-152,-151
-124,-106,18,115,-71,-44,79,2,-50,-122,-142,-134
-130,-129,1,129,-65,-64,104,55,1,-83,-120,-129
-117,-112,5,114,-61,-53,95,44,-3,-82,-121,-129
-107,-113,-5,110,-51,-59,105,61,14,-71,-120,-131
-94,-100,-6,97,-44,-53,117,79,23,-52,-110,-128
-100,-113,-12,107,-44,-62,116,96,29,-46,-114,-131
-82,-97,-15,90,-33,-56,109,106,55,-24,-103,-123
-66,-81,-15,74,-25,-48,104,107,54,-19,-102,-118
-88,-104,-15,96,-36,-60,99,127,73,-2,-93,-111
-90,-105,-15,98,-37,-60,95,145,92,6,-89,-104
-89,-104,-15,97,-36,-60,95,155,93,28,-83,-98
-58,-76,-18,67,-20,-47,95,176,111,49,-72,-90
-33,-56,-23,45,-5,-39,95,201,150,81,-54,-78
-17,-43,-26,30,5,-34,95,239,187,125,-27,-63
-2,-39,-37,21,17,-38,96,287,233,163,1,-45
36,-15,-51,-11,44,-32,88,326,289,215,33,-18
102,42,-60,-72,81,-8,69,367,335,260,73,19
125,57,-68,-91,97,-5,64,402,374,297,113,53
172,90,-82,-130,126,4,49,418,410,333,156,92
193,113,-81,-153,137,16,28,426,421,361,198,134
216,144,-71,-180,143,36,25,427,416,376,232,173
241,174,-67,-208,154,54,25,408,402,376,248,184
204,157,-47,-180,125,55,25,382,378,363,240,176
165,145,-20,-155,92,62,24,336,331,316,207,160
108,111,3,-110,52,57,30,262,260,251,160,108
49,76,27,-63,11,51,39,197,183,178,108,60
7,54,47,-31,-20,50,54,144,109,104,55,20
-34,20,54,7,-44,37,66,93,52,59,11,-19
-41,9,50,16,-46,29,61,51,14,23,-12,-37
-41,10,50,16,-46,30,58,20,-11,-7,-26,-48
-47,1,48,22,-48,24,56,15,-18,-20,-41,-53
-46,0,46,23,-46,23,49,23,-22,-31,-49,-59
-56,-13,43,34,-49,15,55,29,-25,-31,-52,-59
-58,-4,54,31,-56,25,66,36,-19,-30,-48,-62
-87,-17,71,52,-79,27,62,42,-12,-30,-58,-72
-112,-49,62,80,-86,6,58,48,-6,-25,-75,-70
-96,-41,56,68,-76,7,55,48,1,-25,-75,-65
-76,-26,50,50,-63,12,50,40,8,-23,-74,-63
-52,-11,41,31,-46,15,53,34,8,-21,-71,-58
-68,-24,44,46,-56,10,59,27,0,-13,-70,-54
-79,-33,45,55,-62,5,56,21,-6,-31,-71,-67
-74,-28,46,50,-60,8,51,15,-13,-60,-70,-77
-71,-28,43,49,-57,7,48,9,-20,-63,-70,-74
-64,-24,41,44,-52,8,45,4,-25,-68,-70,-73
-64,-25,39,45,-51,6,40,-3,-31,-72,-70,-69
-68,-26,43,47,-55,8,43,-7,-29,-77,-70,-70
-83,-23,60,53,-71,18,52,-13,-35,-84,-74,-74
-93,-33,60,63,-76,13,51,-20,-44,-89,-86,-81
-95,-47,48,70,-71,1,45,-31,-47,-94,-90,-88
-85,-42,43,63,-63,0,40,-49,-59,-89,-90,-84
-83,-39,43,60,-63,2,37,-45,-56,-86,-90,-79
-85,-36,50,61,-67,6,30,-36,-48,-83,-90,-75
-82,-32,50,57,-65,8,36,-32,-44,-78,-91,-71
-73,-12,61,43,-67,24,62,-22,-38,-76,-83,-66
-67,17,84,25,-76,50,89,-20,-35,-67,-61,-60
-53,41,94,6,-74,67,93,18,-31,-58,-35,-49
-18,86,104,-34,-61,94,71,21,-20,-59,-18,-42
-2,101,103,-50,-53,102,40,-38,-18,-61,-22,-45
-1,83,84,-41,-43,83,11,-56,-27,-64,-17,-45
1,52,50,-27,-25,51,18,-55,-38,-65,-26,-45
-5,15,19,-5,-12,17,35,-53,-43,-69,-47,-45
-40,-23,18,31,-29,-2,39,-52,-59,-82,-64,-54
-77,-67,10,72,-43,-28,43,-48,-73,-98,-94,-86
-84,-75,9,79,-46,-33,48,-54,-68,-101,-84,-85
-77,-76,1,76,-39,-37,72,-55,-73,-110,-98,-96
-74,-73,1,74,-37,-36,67,-59,-64,-100,-89,-100
-92,-77,14,84,-53,-31,74,-61,-69,-110,-101,-98
-74,-72,2,72,-37,-35,65,-48,-60,-101,-96,-87
-101,-92,9,96,-54,-42,85,-32,-55,-110,-128,-126
-174,-169,5,171,-89,-82,194,131,50,-65,-208,-244
6,-62,-68,28,37,-65,13,-57,88,168,124,31
647,203,-444,-425,545,-121,-573,-590,-2,623,989,783
1258,617,-641,-937,949,-12,-1215,-1189,-119,1018,1879,1568
913,655,-258,-784,586,198,-1246,-1783,-928,40,1160,1278
96,53,-42,-74,69,6,-698,-1600,-1492,-1152,-342,135
-236,-202,33,219,-134,-84,-366,-1073,-1096,-977,-596,-307
-253,-151,101,202,-177,-25,-148,-581,-582,-517,-380,-248
-168,-137,31,153,-99,-53,67,-96,-161,-187,-204,-174
-109,-92,16,100,-62,-38,86,6,-50,-86,-139,-127
-127,-124,3,125,-65,-60,84,31,-46,-81,-155,-133
-116,-115,1,116,-58,-57,86,61,-14,-38,-119,-114
-111,-112,-1,111,-54,-56,83,78,-18,-50,-130,-119
-103,-111,-8,108,-48,-59,87,95,8,-22,-109,-109
-96,-105,-9,100,-43,-56,83,86,18,-21,-109,-107
-96,-106,-11,101,-42,-58,88,110,51,-3,-98,-103
-87,-97,-10,92,-38,-53,86,121,59,5,-92,-97
-79,-88,-9,84,-35,-48,85,133,66,14,-88,-93
-63,-77,-15,70,-24,-46,85,143,76,35,-81,-88
-34,-73,-38,54,2,-56,85,157,86,58,-77,-84
-27,-68,-40,48,7,-54,85,178,115,82,-72,-80
-24,-66,-42,46,9,-54,84,207,146,109,-59,-71
6,-39,-46,17,26,-43,75,237,175,133,-33,-59
30,-16,-46,-7,38,-31,66,270,203,156,-13,-47
33,-21,-54,-6,44,-38,58,310,246,201,10,-28
71,5,-66,-38,69,-30,48,359,297,244,47,-1
131,53,-78,-92,105,-12,39,401,342,279,89,37
169,84,-85,-126,126,-1,27,419,377,309,123,75
196,119,-77,-157,136,21,15,445,399,339,166,120
225,153,-71,-189,148,41,6,450,417,363,208,155
281,188,-92,-234,186,48,0,434,429,359,236,180
271,188,-83,-229,177,52,-9,418,407,334,245,189
208,160,-47,-184,127,56,-3,379,361,298,215,160
178,154,-25,-166,101,64,12,315,300,239,170,120
122,109,-12,-115,67,48,25,241,222,173,120,84
72,67,-5,-69,38,31,38,174,148,110,75,46
40,44,4,-42,18,23,41,118,90,50,35,5
-14,10,23,2,-19,16,44,82,43,-1,-14,-36
-41,4,45,18,-43,24,47,65,16,-38,-45,-61
-50,-5,45,27,-47,20,50,60,10,-42,-51,-59
-68,-23,45,45,-56,11,50,60,5,-37,-56,-61
-72,-27,45,49,-58,9,50,58,-1,-35,-65,-58
-69,-25,45,46,-57,10,50,54,-7,-31,-74,-66
-67,-22,45,44,-56,11,50,56,-9,-26,-76,-86
-61,-21,40,41,-51,9,50,64,-3,-26,-74,-84
-54,-14,40,34,-47,13,49,80,0,-30,-77,-90
-76,-36,40,56,-58,2,55,95,5,-31,-79,-98
-97,-57,40,77,-68,-8,59,95,10,-34,-83,-94
-85,-45,41,65,-63,-2,55,90,6,-36,-86,-92
-76,-39,37,57,-56,0,55,91,-1,-37,-81,-89
-70,-35,35,52,-52,0,53,86,-5,-42,-80,-86
-56,-21,35,38,-45,7,49,69,-11,-37,-80,-84
-67,-35,32,51,-49,-1,50,57,-17,-48,-81,-91
-69,-41,29,55,-49,-6,53,51,-21,-70,-79,-96
-65,-33,31,49,-48,-1,56,43,-30,-72,-83,-92
-91,-57,33,74,-62,-12,59,36,-38,-74,-95,-90
-86,-55,31,70,-58,-11,62,29,-47,-78,-93,-87
-82,-52,30,67,-55,-11,65,23,-51,-80,-90,-84
-89,-59,30,74,-59,-15,66,19,-48,-78,-86,-82
-90,-59,31,74,-61,-14,70,21,-57,-72,-85,-75
-91,-64,27,78,-59,-18,74,20,-55,-70,-80,-73
-104,-66,37,85,-70,-14,77,20,-44,-63,-84,-68
-102,-51,51,76,-76,0,81,22,-37,-61,-92,-63
-87,-12,75,49,-80,31,76,18,-16,-47,-67,-58
-64,15,79,24,-72,47,67,53,7,-37,-32,-25
-38,42,80,-2,-59,61,59,58,18,-40,-18,-6
-12,93,105,-41,-59,99,43,14,2,-43,-31,-12
13,87,74,-51,-31,80,26,4,-24,-46,-38,-15
-3,38,40,-18,-22,39,25,-2,-48,-47,-43,-16
-13,12,25,0,-19,18,24,-4,-62,-62,-57,-30
-73,-49,24,61,-49,-12,16,-12,-74,-94,-84,-62
-120,-94,26,106,-73,-34,28,-12,-95,-120,-115,-80
-114,-90,24,101,-68,-33,42,-15,-100,-124,-116,-93
-113,-86,27,99,-70,-29,49,0,-95,-126,-128,-106
-96,-75,21,85,-58,-27,41,0,-90,-113,-116,-92
-95,-74,21,84,-57,-26,57,10,-91,-124,-136,-109
-48,-60,-12,54,-18,-35,42,17,-78,-105,-117,-87
-111,-118,-8,115,-51,-63,76,26,-61,-109,-171,-129
-200,-197,3,199,-102,-97,190,196,73,-38,-219,-229
7,-90,-97,42,52,-94,-6,-4,96,180,167,91
673,237,-436,-455,554,-99,-590,-519,43,666,1130,929
1231,696,-534,-963,883,81,-1220,-1176,-156,993,2005,1730
793,667,-125,-730,459,271,-1179,-1719,-988,-83,1101,1311
40,100,60,-70,-10,80,-619,-1444,-1393,-1118,-362,142
-275,-172,102,223,-188,-35,-335,-1026,-1055,-943,-598,-302
-289,-154,135,221,-212,-9,-141,-566,-594,-543,-409,-255
-190,-151,39,170,-114,-56,34,-84,-155,-198,-200,-158
-154,-135,18,144,-86,-58,65,15,-39,-123,-149,-125
-131,-130,1,130,-66,-65,59,65,-13,-110,-153,-141
-112,-122,-10,117,-50,-66,61,63,7,-76,-129,-130
-101,-116,-15,109,-42,-65,86,82,-3,-80,-141,-139
-74,-108,-34,91,-20,-71,85,111,23,-53,-121,-133
-64,-100,-36,83,-14,-68,84,104,47,-55,-122,-136
-69,-94,-25,82,-21,-60,86,115,57,-37,-105,-132
-82,-97,-14,90,-34,-55,84,113,60,-26,-100,-126
-101,-107,-6,104,-47,-56,84,120,80,-12,-101,-122
-82,-91,-9,87,-36,-49,78,125,87,3,-96,-114
-80,-102,-21,91,-29,-61,76,152,107,21,-85,-111
-78,-106,-28,92,-25,-66,72,161,126,42,-67,-98
-12,-62,-51,37,20,-56,70,179,147,56,-48,-82
13,-49,-62,18,38,-56,63,195,173,72,-45,-81
20,-38,-58,9,39,-48,52,217,213,119,-17,-61
44,-17,-62,-14,53,-39,43,270,265,173,21,-29
70,12,-58,-41,64,-23,32,299,313,213,57,9
140,65,-75,-102,107,-5,18,328,355,255,111,49
180,84,-96,-131,137,-6,4,343,387,288,140,81
190,102,-88,-146,139,7,-14,360,414,315,184,122
220,136,-83,-178,151,26,-23,366,424,336,223,154
232,157,-76,-194,154,40,-16,349,420,355,253,182
212,153,-59,-182,136,47,-9,333,407,343,268,182
176,140,-36,-158,105,52,-3,296,371,307,230,152
142,135,-6,-138,74,64,4,251,311,258,183,123
73,83,10,-78,31,46,10,193,237,193,128,73
23,58,35,-41,-6,46,15,129,159,121,72,25
-3,49,52,-23,-28,50,15,77,99,55,20,-14
-45,4,49,21,-48,26,16,52,61,14,-17,-42
-52,-2,50,27,-51,24,20,49,30,-1,-27,-50
-71,-21,50,46,-60,14,20,43,8,-12,-48,-71
-84,-34,50,59,-67,8,22,38,-4,-28,-60,-82
-73,-26,46,49,-60,10,25,32,-20,-36,-60,-80
-71,-26,45,48,-57,9,25,32,-31,-35,-73,-85
-70,-25,45,47,-57,10,31,37,-24,-35,-77,-85
-71,-31,40,51,-55,4,38,35,-16,-39,-88,-87
-70,-30,40,50,-55,5,38,32,-8,-40,-91,-79
-69,-30,39,49,-54,5,33,30,-1,-33,-85,-71
-63,-31,32,47,-48,1,30,26,-5,-29,-84,-63
-57,-30,28,43,-43,-1,27,25,-10,-26,-78,-56
-53,-30,22,41,-37,-4,22,20,-15,-19,-75,-59
-63,-46,16,54,-39,-15,21,10,-19,-26,-78,-62
-62,-52,11,57,-37,-20,23,2,-24,-45,-82,-65
-62,-46,16,54,-39,-14,30,-8,-27,-50,-85,-68
-82,-45,37,63,-59,-4,38,-16,-35,-52,-89,-70
-70,-39,31,55,-50,-4,33,-24,-45,-65,-91,-73
-64,-41,23,53,-44,-9,30,-33,-45,-76,-95,-75
-53,-37,16,45,-34,-11,27,-32,-45,-80,-100,-81
-55,-51,5,53,-30,-23,22,-26,-45,-79,-96,-83
-110,-64,45,87,-77,-9,20,-22,-45,-84,-94,-79
-115,-51,63,83,-89,6,25,-17,-45,-88,-95,-80
-112,-52,60,82,-85,4,34,-13,-36,-79,-91,-81
-112,-53,59,83,-85,3,49,-7,-23,-71,-91,-80
-87,-23,63,55,-75,20,78,6,-11,-61,-89,-80
-77,-6,71,41,-74,33,88,30,-5,-60,-73,-63
-50,22,72,14,-62,47,74,30,6,-59,-67,-43
-14,90,104,-38,-59,97,47,0,-9,-57,-71,-39
-18,81,99,-32,-59,90,24,-21,-22,-53,-69,-40
-35,47,81,-6,-58,64,24,-44,-29,-57,-70,-40
-36,26,62,5,-49,44,27,-46,-51,-86,-70,-40
-68,-37,31,52,-49,-3,26,-45,-57,-97,-79,-63
-89,-64,26,76,-57,-19,42,-45,-78,-99,-117,-101
-90,-74,16,82,-53,-29,49,-38,-79,-108,-112,-99
-116,-104,11,110,-63,-46,51,-44,-83,-129,-117,-100
-89,-88,1,88,-45,-44,49,-34,-75,-123,-114,-102
-94,-96,-2,95,-45,-49,49,-39,-89,-127,-116,-95
-118,-108,10,113,-63,-49,53,-13,-80,-134,-135,-108
-108,-94,14,101,-60,-40,48,-22,-54,-123,-106,-98
-179,-182,-3,180,-88,-92,165,114,8,-119,-239,-224
-131,-158,-26,145,-52,-92,152,152,123,47,-111,-164
292,53,-240,-172,266,-93,-253,-264,66,396,602,460
989,460,-529,-724,759,-35,-913,-790,42,1029,1770,1416
1055,780,-274,-917,664,253,-1278,-1508,-546,643,1858,1708
287,366,79,-326,104,222,-865,-1658,-1363,-824,255,678
-247,-156,91,202,-169,-32,-401,-1181,-1267,-1175,-613,-204
-310,-190,120,250,-214,-35,-241,-815,-823,-768,-498,-277
-238,-155,83,196,-160,-36,-15,-285,-338,-370,-298,-214
-175,-146,28,160,-101,-58,83,-12,-68,-135,-148,-139
-155,-138,17,146,-86,-59,76,11,-41,-145,-170,-126
-141,-136,6,138,-73,-65,90,64,9,-98,-138,-124
-125,-120,5,122,-64,-57,82,48,3,-101,-131,-118
-129,-133,-3,131,-63,-67,87,62,23,-80,-115,-115
-102,-114,-11,109,-45,-62,84,79,28,-69,-108,-108
-54,-86,-32,70,-11,-59,85,101,40,-60,-105,-107
-71,-97,-26,85,-22,-62,91,105,56,-43,-93,-99
-70,-91,-21,81,-25,-56,97,107,64,-36,-92,-98
-70,-86,-17,78,-26,-51,102,115,81,-20,-78,-91
-77,-86,-9,82,-34,-47,101,132,94,-15,-71,-87
-69,-75,-6,73,-32,-40,100,141,99,9,-60,-83
-59,-70,-11,64,-24,-40,96,158,114,33,-48,-77
-23,-43,-20,33,-1,-31,94,193,135,58,-33,-73
-31,-55,-24,43,-3,-39,91,213,165,89,-20,-51
38,-5,-43,-16,40,-24,90,249,222,131,10,-24
33,-23,-56,-4,45,-39,100,286,267,170,43,4
106,34,-72,-70,89,-19,111,316,306,209,86,47
218,136,-82,-177,150,27,127,347,341,255,134,96
