I,II,III,aVR,aVL,aVF,V1,V2,V3,V4,V5,V6
-88,-71,17,80,-52,-27,40,-10,-47,-113,-137,-107
-67,-70,-4,68,-32,-37,40,-12,-44,-111,-134,-103
-58,-67,-9,63,-24,-38,39,-16,-45,-104,-142,-107
-67,-68,-1,68,-33,-34,41,-23,-46,-116,-157,-100
-47,-59,-12,53,-17,-35,38,-23,-42,-81,-141,-99
-78,-45,33,62,-55,-6,53,4,-24,-101,-180,-130
-159,44,203,57,-181,123,110,151,209,73,-168,-190
-33,134,166,-51,-100,150,125,393,496,453,212,96
507,262,-244,-384,375,9,-129,346,544,1103,1703,1413
862,142,-720,-502,791,-289,-391,-175,-196,1159,2264,1689
408,-331,-739,-38,574,-535,-276,-772,-1269,-543,143,206
-39,-473,-434,256,197,-453,-123,-892,-1361,-1461,-1134,-473
-56,-263,-207,160,76,-235,-86,-514,-736,-759,-629,-299
-83,-92,-9,87,-37,-50,-11,-141,-208,-298,-318,-181
-100,-44,56,72,-78,6,31,-29,-51,-148,-215,-148
-91,-26,65,58,-78,19,36,-15,-39,-130,-191,-155
-89,15,104,37,-97,60,33,6,0,-110,-168,-128
-73,32,105,21,-90,68,29,12,5,-88,-145,-124
-81,39,121,21,-101,80,26,25,42,-77,-130,-104
-84,38,123,23,-104,80,21,42,66,-37,-93,-95
-57,35,92,10,-75,63,19,48,80,-9,-67,-83
-60,33,93,13,-76,62,13,70,113,61,-12,-62
-60,29,89,15,-74,59,7,96,154,114,23,-35
-28,38,66,-6,-47,52,3,127,202,181,75,-5
3,64,62,-34,-30,63,-4,154,225,245,145,29
17,75,58,-46,-21,66,-8,146,220,250,174,68
27,82,55,-55,-14,68,-17,133,211,244,187,87
36,90,53,-63,-9,71,-28,105,174,216,177,88
28,76,48,-52,-10,61,-25,75,128,160,131,66
13,67,53,-40,-20,60,-20,59,94,117,83,41
-5,57,62,-26,-34,59,-18,36,63,74,45,9
-16,41,57,-12,-37,49,-13,22,46,36,5,-25
-18,29,48,-6,-33,38,-10,19,35,2,-30,-43
-14,29,42,-8,-28,35,-4,16,26,-46,-65,-61
-1,32,33,-16,-17,32,9,13,15,-73,-100,-77
4,35,31,-20,-14,33,18,10,5,-77,-104,-82
-47,33,79,7,-63,56,30,10,-5,-88,-119,-96
-55,22,77,16,-67,49,36,9,-13,-79,-145,-115
-25,14,38,5,-32,26,34,16,17,-58,-134,-110
-62,-4,58,32,-60,27,39,23,34,-34,-112,-102
-60,-11,48,35,-54,18,40,31,41,-16,-93,-96
-4,3,7,0,-6,5,40,47,66,-8,-78,-89
-4,18,22,-7,-13,20,40,43,65,2,-65,-84
-65,2,67,31,-66,35,40,40,65,6,-50,-75
-74,-9,65,41,-70,28,41,38,65,8,-37,-65
-43,14,58,14,-51,36,39,33,65,13,-30,-57
-12,42,55,-15,-34,48,41,42,63,14,-31,-52
4,47,43,-26,-20,45,36,44,54,10,-29,-47
-26,42,68,-9,-47,55,18,35,47,-2,-30,-46
10,84,74,-47,-33,79,-11,26,37,-2,-29,-50
-2,86,88,-42,-45,87,-36,9,33,-20,-31,-50
-1,88,88,-44,-45,88,-47,-24,-5,-53,-45,-50
36,79,43,-58,-4,61,-54,-46,-47,-69,-65,-50
-12,0,12,6,-12,6,-36,-42,-44,-90,-90,-55
-16,-18,-3,17,-6,-10,-7,-35,-45,-98,-110,-76
-34,-28,6,31,-20,-11,2,-32,-42,-104,-114,-84
-58,-56,1,57,-29,-27,12,-23,-38,-101,-128,-99
-82,-64,18,73,-50,-23,23,-22,-44,-113,-156,-101
-79,-70,9,75,-44,-31,29,-18,-35,-103,-143,-97
-67,-72,-5,69,-30,-38,36,-21,-47,-114,-157,-106
-64,-50,14,56,-38,-18,36,-21,-33,-99,-144,-92
-67,-57,10,62,-39,-23,48,-7,-38,-106,-150,-115
-130,16,146,57,-138,81,84,80,107,-31,-171,-151
-99,116,214,-9,-157,165,137,319,407,310,-16,-116
284,208,-77,-246,180,65,-5,424,584,836,1071,896
800,226,-574,-513,687,-174,-318,101,240,1348,2421,1919
605,-182,-787,-211,696,-484,-328,-518,-841,218,1123,836
70,-477,-547,204,309,-512,-139,-869,-1407,-1352,-938,-392
-69,-344,-275,207,104,-310,-71,-658,-971,-1061,-870,-372
-73,-145,-72,109,-1,-108,-32,-259,-386,-417,-391,-226
-64,-41,23,53,-44,-9,6,-54,-92,-194,-243,-163
-88,-31,57,59,-72,12,12,-16,-49,-128,-180,-149
-118,-14,104,66,-111,45,19,7,-11,-128,-178,-138
-97,-8,88,52,-92,40,26,12,2,-90,-147,-124
-74,10,84,32,-79,47,30,15,13,-95,-146,-114
-38,40,78,-1,-58,58,30,28,35,-56,-109,-95
-7,59,66,-26,-37,63,30,45,66,-10,-77,-88
-14,54,69,-20,-42,61,30,72,107,47,-20,-66
-32,43,75,-6,-54,59,30,103,145,107,19,-38
-27,42,70,-8,-49,56,26,126,190,162,62,-5
-23,28,51,-3,-37,39,17,135,211,224,124,19
-2,42,45,-20,-24,43,9,133,216,255,168,62
17,59,43,-38,-13,51,-2,118,208,244,203,95
33,63,30,-49,2,47,-13,109,198,235,194,94
25,85,60,-55,-18,73,-26,93,176,194,159,100
17,77,61,-47,-22,69,-35,61,116,133,114,74
23,57,34,-40,-6,45,-32,42,80,95,67,30
-11,49,59,-19,-35,53,-25,37,70,56,45,26
-15,40,55,-13,-35,47,-20,29,36,19,16,18
-14,32,46,-9,-31,38,-15,21,28,-15,-38,-35
-17,25,42,-4,-30,33,-6,14,31,-42,-79,-62
-14,15,29,-1,-22,22,7,12,30,-61,-97,-64
-27,3,30,12,-28,16,17,18,37,-55,-96,-81
-33,-14,19,23,-26,3,28,22,34,-45,-91,-85
-75,-44,31,59,-53,-6,42,26,38,-35,-91,-85
-78,-39,38,58,-58,0,43,33,41,-24,-85,-86
-41,-21,20,31,-30,-1,35,32,38,-7,-86,-83
-82,-16,67,48,-74,25,33,60,70,34,-73,-76
-98,-6,92,52,-95,43,23,78,88,42,-43,-64
-48,-2,46,25,-47,22,24,66,79,39,-30,-56
-9,7,16,1,-13,12,42,66,78,38,-25,-47
-8,11,19,-2,-14,14,37,59,73,33,-19,-40
-35,26,61,4,-49,43,26,56,70,36,-8,-33
-33,56,89,-12,-61,73,18,48,65,30,-3,-28
-30,54,83,-12,-57,68,8,33,52,22,-14,-21
-12,63,75,-26,-44,69,-2,19,41,16,-20,-16
23,93,70,-58,-24,82,-14,-2,28,8,-29,-13
31,89,58,-60,-14,74,-26,-23,-4,-24,-36,-10
30,49,19,-40,5,34,-39,-40,-38,-63,-46,-24
20,18,-2,-19,10,8,-39,-39,-51,-76,-67,-32
1,-7,-9,3,5,-8,-4,-31,-51,-78,-95,-56
-47,-52,-5,50,-20,-28,25,-29,-49,-93,-112,-76
-48,-64,-17,56,-15,-40,22,-20,-41,-88,-114,-86
-22,-72,-50,47,15,-61,35,-17,-45,-87,-136,-98
-42,-75,-33,59,-4,-54,41,-18,-32,-87,-138,-90
-42,-76,-34,59,-3,-55,36,-20,-37,-103,-139,-102
-53,-74,-21,64,-15,-48,32,-27,-23,-121,-144,-81
-44,-67,-23,56,-10,-45,30,-19,-17,-90,-138,-112
-51,-22,29,36,-40,4,65,38,41,-55,-162,-144
-115,71,186,22,-151,128,152,262,340,248,-80,-167
140,157,17,-149,61,87,81,406,537,655,625,478
686,228,-458,-457,572,-115,-235,261,450,1266,2182,1829
754,-22,-776,-365,765,-399,-349,-208,-325,906,2041,1492
254,-396,-650,71,452,-522,-194,-730,-1246,-887,-273,-52
-65,-421,-356,243,145,-388,-94,-739,-1166,-1323,-1073,-453
-70,-220,-150,145,40,-184,-50,-395,-592,-606,-526,-262
-121,-73,48,97,-85,-12,-1,-105,-159,-254,-302,-185
-145,-47,99,96,-122,26,35,-21,-43,-122,-202,-159
-104,-23,82,63,-93,29,42,-10,-28,-121,-207,-154
-102,-11,90,56,-96,39,36,9,3,-85,-183,-136
-81,-4,77,42,-79,36,34,7,1,-83,-174,-132
-74,10,84,32,-79,46,29,20,31,-56,-151,-113
-59,21,80,19,-70,50,26,23,38,-23,-118,-100
-70,31,101,19,-85,65,26,54,81,16,-77,-77
-87,30,117,29,-102,74,34,89,132,94,-3,-47
-16,29,44,-7,-30,36,45,122,172,143,37,-18
3,36,33,-20,-15,34,29,135,204,197,87,16
-10,55,66,-23,-38,60,13,122,219,255,145,53
5,58,53,-32,-24,55,8,112,216,261,186,91
21,63,42,-42,-11,53,-17,100,206,228,210,110
15,68,53,-42,-19,60,-37,84,184,193,177,100
22,63,42,-43,-11,52,-31,61,130,141,103,65
53,61,8,-58,23,35,-26,28,88,82,57,33
-13,57,70,-22,-42,63,-23,6,62,45,22,11
-35,55,91,-10,-64,73,-17,2,29,11,-20,-13
-6,49,54,-22,-30,52,-14,-4,4,-26,-56,-31
-13,43,57,-15,-35,50,-5,-7,-3,-66,-93,-69
-6,36,42,-15,-24,39,3,-13,-14,-89,-121,-94
-23,19,42,2,-33,31,12,-15,-17,-85,-122,-95
-20,5,25,7,-22,14,22,-4,2,-82,-117,-104
-42,-6,36,23,-38,15,33,4,19,-77,-130,-107
-50,-19,32,34,-41,7,51,16,35,-75,-130,-101
-31,-42,-11,36,-9,-26,50,20,42,-53,-121,-96
-43,-41,2,42,-22,-19,40,21,38,-22,-101,-91
-43,-22,21,32,-32,0,34,34,38,-8,-78,-85
-49,-20,29,34,-39,5,24,35,33,4,-67,-80
-51,-7,44,29,-48,19,22,36,35,22,-51,-74
-64,4,68,29,-66,36,16,33,58,36,-51,-72
-44,22,66,11,-55,44,17,38,74,31,-50,-66
-6,61,66,-28,-37,64,7,30,66,24,-51,-62
-9,70,80,-31,-45,75,20,44,76,18,-49,-56
-2,72,73,-35,-38,72,24,59,87,12,-51,-45
2,75,73,-39,-36,74,-27,5,52,-4,-55,-33
-22,65,87,-22,-55,76,-21,-20,16,-9,-45,-17
-8,60,68,-26,-38,63,-28,-35,-13,-35,-61,-32
32,53,21,-43,5,37,-64,-49,-46,-78,-76,-48
25,32,7,-29,9,19,-30,-38,-44,-80,-88,-49
-37,-20,17,28,-27,-1,1,-40,-46,-85,-115,-75
-67,-48,19,58,-43,-14,3,-32,-60,-101,-135,-105
-67,-57,10,62,-38,-23,12,-30,-63,-103,-153,-125
-62,-60,2,61,-32,-29,14,-27,-57,-110,-152,-118
-24,-53,-29,39,2,-41,26,-18,-48,-97,-143,-119
-33,-51,-18,42,-7,-34,45,-18,-50,-115,-161,-124
-44,-35,9,39,-26,-13,48,-4,-31,-102,-129,-112
-47,-28,19,37,-33,-5,54,-7,-21,-112,-167,-133
-108,47,155,30,-132,101,99,128,177,66,-170,-188
-57,121,178,-32,-118,149,129,343,453,438,121,-12
393,242,-151,-317,272,46,-79,360,563,1024,1518,1267
801,180,-621,-490,711,-221,-335,29,79,1330,2703,2061
475,-258,-734,-108,605,-496,-259,-552,-977,-130,853,641
3,-463,-466,230,234,-464,-99,-776,-1294,-1361,-1035,-435
-78,-300,-222,189,72,-261,-61,-531,-818,-875,-741,-326
-94,-101,-7,97,-44,-53,-20,-196,-304,-351,-373,-246
-80,-56,24,67,-52,-16,27,-32,-61,-164,-248,-170
-65,-37,28,51,-46,-5,41,-16,-39,-130,-215,-164
-105,12,117,46,-111,64,39,9,-3,-110,-207,-160
-86,17,103,35,-95,60,35,11,-2,-90,-180,-147
-77,34,112,21,-94,73,32,22,30,-70,-173,-145
-63,29,92,16,-78,60,27,34,55,-29,-133,-125
-28,30,58,-1,-43,44,25,49,80,3,-104,-108
-33,29,62,2,-48,45,30,76,126,69,-47,-76
-34,24,58,5,-47,41,38,102,166,119,-4,-54
-36,25,61,5,-49,43,37,130,214,196,62,-23
-32,27,59,3,-46,43,21,147,249,246,119,14
-7,52,60,-23,-34,56,9,148,263,286,178,55
15,69,54,-43,-20,61,-5,137,257,312,225,106
21,76,55,-49,-17,65,-18,123,226,265,214,114
24,79,56,-52,-16,67,-31,96,181,212,161,75
19,72,53,-46,-17,62,-42,59,139,157,102,47
-5,68,73,-32,-39,70,-40,24,92,94,56,25
4,61,57,-33,-27,59,-32,13,54,47,14,-2
4,57,53,-31,-25,55,-27,12,32,6,-32,-28
-15,43,58,-15,-37,50,-17,7,21,-36,-86,-56
-39,13,52,13,-46,32,-4,4,14,-69,-118,-87
-62,-3,59,32,-60,28,10,-1,9,-79,-129,-100
-56,-14,41,34,-48,13,22,5,-4,-83,-142,-111
-64,-37,27,50,-46,-5,29,13,-4,-77,-143,-124
-74,-39,35,56,-54,-2,38,21,23,-58,-132,-118
-48,-32,16,40,-32,-8,43,29,39,-38,-123,-110
-57,-29,28,43,-42,-1,39,35,51,-19,-118,-104
-80,-23,57,52,-68,17,37,35,55,-10,-116,-95
-36,-20,16,28,-26,-2,34,35,55,5,-97,-87
-55,-13,42,34,-48,14,31,35,54,20,-73,-78
-73,-6,67,39,-70,31,30,34,56,28,-71,-70
-48,6,55,21,-52,31,23,36,77,43,-67,-63
-35,34,70,0,-53,52,15,37,81,40,-66,-56
-6,54,60,-24,-33,57,6,46,79,33,-57,-49
-23,53,76,-16,-50,65,0,44,72,26,-49,-44
-6,80,86,-37,-46,83,-12,22,68,19,-35,-46
18,88,70,-53,-26,78,-29,2,46,13,-21,-42
2,63,61,-33,-30,62,-30,-16,6,-20,-43,-40
2,52,50,-27,-24,51,-38,-31,-9,-44,-54,-40
-26,22,48,2,-37,34,-29,-38,-12,-55,-72,-41
-45,-18,27,31,-36,5,-1,-32,-19,-67,-106,-80
-32,-35,-3,33,-14,-18,6,-28,-26,-95,-117,-93
-41,-43,-3,42,-19,-23,20,-23,-14,-97,-117,-87
-41,-72,-31,57,-5,-51,35,-19,-34,-104,-141,-106
-44,-76,-32,60,-6,-54,35,-15,-44,-96,-134,-104
-51,-77,-26,64,-12,-51,34,-20,-39,-102,-157,-117
-54,-61,-8,57,-23,-34,39,-31,-30,-102,-147,-98
-59,-54,5,56,-32,-25,44,-17,-35,-95,-155,-123
-70,5,75,33,-73,40,66,41,61,-66,-219,-182
-96,103,199,-4,-147,151,126,261,355,260,-98,-178
193,214,21,-203,86,117,18,403,565,782,874,698
724,299,-425,-511,574,-63,-286,154,307,1402,2644,2041
649,-83,-732,-283,691,-408,-349,-392,-671,608,1873,1322
122,-472,-595,175,359,-533,-181,-792,-1357,-1148,-661,-217
-64,-388,-324,226,130,-356,-103,-675,-1052,-1174,-981,-402
-53,-164,-110,109,29,-137,-52,-306,-463,-484,-456,-246
-70,-36,34,53,-51,-1,12,-78,-113,-236,-312,-191
-92,-23,69,57,-80,23,38,-45,-49,-146,-226,-166
-123,0,123,61,-123,62,38,-38,-21,-151,-239,-166
-106,12,117,47,-112,64,28,-21,-9,-118,-198,-147
-81,33,114,24,-98,73,23,-14,-15,-119,-202,-148
-70,44,114,13,-92,79,14,2,19,-86,-161,-119
-67,38,105,14,-86,71,7,15,43,-52,-136,-106
-67,40,107,13,-87,73,9,44,83,9,-95,-87
-62,35,97,13,-80,66,18,78,139,80,-25,-66
-62,33,95,14,-79,63,27,113,189,139,34,-35
-39,47,85,-4,-62,66,24,138,242,217,97,6
-26,54,79,-14,-53,66,11,142,263,264,151,44
-12,56,68,-22,-41,62,0,136,248,266,204,86
8,71,63,-40,-28,67,-10,136,239,257,211,97
-1,73,74,-36,-38,73,-20,123,203,220,179,78
4,80,76,-43,-36,77,-31,92,154,152,131,57
-4,71,75,-34,-40,73,-31,67,115,100,83,29
-16,59,75,-22,-46,67,-20,44,77,55,42,-1
-24,51,75,-14,-50,63,-13,22,46,11,-13,-26
-41,33,74,3,-58,54,-4,13,18,-28,-66,-53
-49,18,67,15,-58,43,4,8,4,-58,-101,-77
-57,4,61,26,-59,32,11,3,-1,-91,-129,-93
-58,-4,54,31,-55,25,21,-4,-7,-109,-153,-109
-64,-16,48,40,-56,16,26,-9,-14,-100,-163,-114
-69,-29,40,49,-54,5,41,-7,-10,-94,-160,-109
-69,-32,37,50,-53,3,56,1,14,-82,-155,-110
-46,-25,21,36,-33,-2,51,5,24,-65,-147,-110
-52,-25,27,38,-39,1,49,11,31,-53,-141,-110
-88,-18,70,53,-79,26,44,17,46,-40,-133,-110
-95,-25,70,60,-82,22,41,18,47,-28,-108,-105
-106,-41,65,73,-85,11,37,33,51,-13,-81,-95
-80,-15,65,47,-72,25,35,42,54,-3,-67,-85
-51,8,59,21,-55,33,34,39,58,-9,-65,-76
-35,26,61,4,-48,43,29,41,68,-16,-77,-64
-10,45,55,-18,-32,50,31,28,63,-22,-70,-60
-26,57,83,-16,-55,70,6,11,53,-32,-58,-61
-16,66,82,-25,-49,74,-28,-7,36,-36,-58,-65
10,55,44,-33,-17,49,-37,-27,-6,-49,-65,-67
26,45,19,-36,4,32,-35,-43,-46,-78,-81,-70
48,34,-14,-41,30,10,-28,-53,-59,-100,-96,-75
21,1,-20,-11,20,-9,-19,-48,-56,-109,-117,-72
-32,-39,-8,36,-12,-23,2,-44,-56,-122,-152,-95
-70,-60,10,65,-40,-25,30,-41,-54,-119,-153,-103
-57,-86,-29,71,-14,-57,46,-34,-57,-122,-156,-112
-34,-82,-48,59,7,-65,45,-32,-53,-130,-156,-117
-57,-77,-20,67,-18,-49,45,-24,-58,-120,-157,-125
-35,-72,-37,54,1,-54,45,-24,-59,-144,-188,-125
-43,-63,-21,54,-11,-42,44,-11,-60,-108,-180,-126
-85,-49,36,67,-60,-7,50,3,-37,-132,-228,-151
-126,69,196,28,-161,132,115,133,187,10,-234,-199
-42,155,197,-56,-120,175,137,393,515,468,217,130
515,301,-213,-408,364,44,-148,313,517,1193,1902,1496
853,153,-700,-503,777,-273,-423,-227,-306,1262,2515,1822
427,-356,-783,-35,606,-570,-300,-784,-1324,-470,216,296
13,-491,-503,239,258,-497,-119,-900,-1407,-1484,-1151,-447
-50,-308,-257,179,104,-282,-67,-525,-780,-806,-693,-298
-62,-100,-38,81,-12,-68,-4,-160,-241,-344,-381,-197
-95,-40,55,67,-74,7,28,-50,-72,-192,-248,-160
-95,-36,59,65,-77,11,24,-14,-31,-154,-237,-168
-97,-1,97,49,-97,48,25,1,-4,-140,-198,-140
-95,1,96,46,-96,49,25,5,9,-111,-168,-137
-97,22,119,37,-108,70,25,18,34,-87,-146,-116
-87,24,111,31,-99,67,26,31,41,-45,-129,-105
-48,45,92,1,-70,68,31,45,75,-15,-99,-92
-34,57,90,-12,-63,73,35,68,117,43,-38,-73
-24,54,78,-15,-51,66,40,101,160,105,7,-51
-15,61,77,-23,-46,69,34,136,218,186,79,-10
-8,58,66,-25,-37,62,21,157,249,242,127,33
4,66,62,-35,-29,63,10,155,243,271,186,74
17,75,58,-46,-21,66,-6,144,230,274,206,104
25,68,43,-47,-9,56,-24,120,213,247,197,123
-19,64,83,-23,-51,73,-31,97,185,212,182,115
-21,58,78,-19,-50,68,-25,77,145,160,126,69
14,53,39,-34,-13,46,-19,60,113,116,91,36
-1,48,49,-24,-25,48,-14,47,93,81,48,9
-5,39,43,-17,-24,41,-8,35,74,41,6,-23
-14,32,46,-9,-30,39,4,28,47,-1,-39,-48
-23,22,44,0,-34,33,20,21,26,-39,-87,-78
-31,14,45,8,-39,29,21,13,23,-69,-110,-92
-45,0,45,22,-45,22,20,5,27,-82,-126,-104
-48,-9,39,28,-43,15,20,2,29,-86,-132,-96
-49,-25,25,37,-37,0,20,14,30,-76,-139,-90
-47,-36,11,41,-29,-12,21,30,38,-36,-96,-75
-46,-8,38,27,-42,15,18,39,46,-4,-84,-66
-4,9,13,-3,-9,11,13,64,97,87,9,-25
43,-5,-48,-19,46,-26,2,134,204,237,158,63
107,-5,-112,-51,110,-58,1,261,374,498,380,201
243,-20,-262,-111,253,-141,-21,327,451,669,586,354
343,-75,-417,-134,380,-246,-41,388,535,854,740,468
448,-45,-493,-201,471,-269,-77,487,708,1185,1195,813
660,-33,-692,-313,676,-362,-126,655,976,1560,1756,1277
1036,-325,-1362,-355,1199,-843,-184,812,929,1602,2700,2047
1249,-844,-2093,-202,1671,-1468,-277,550,29,497,2439,2049
962,-1000,-1963,20,1463,-1482,-223,265,-508,-363,588,640
532,-676,-1208,72,870,-942,-136,128,-426,-408,-417,-225
153,-289,-442,68,297,-365,-96,-57,-361,-459,-608,-348
-91,-6,85,48,-88,40,-21,-110,-252,-395,-553,-356
-180,70,249,55,-215,159,12,-166,-270,-406,-518,-325
-232,71,303,80,-268,186,28,-220,-266,-414,-551,-354
-250,92,342,79,-296,217,29,-244,-262,-435,-521,-354
-276,101,377,87,-326,239,26,-280,-302,-487,-562,-381
-279,129,408,75,-344,268,23,-309,-335,-520,-582,-397
-289,136,425,76,-357,280,18,-346,-377,-571,-639,-417
-323,163,485,80,-404,324,17,-371,-408,-606,-661,-441
-352,197,549,77,-451,373,10,-410,-433,-627,-684,-462
-366,233,599,66,-483,415,12,-433,-430,-615,-693,-460
-363,289,653,37,-508,471,24,-420,-402,-581,-644,-449
-356,321,677,17,-517,499,34,-390,-323,-478,-576,-416
-339,344,683,-3,-511,513,38,-344,-210,-324,-461,-354
-342,356,699,-7,-521,527,45,-272,-84,-155,-320,-286
-319,347,666,-14,-492,506,54,-180,51,20,-181,-216
-249,337,586,-44,-418,461,54,-91,169,172,-56,-159
-237,297,534,-30,-386,415,71,4,260,279,58,-97
-150,243,393,-47,-271,318,79,49,275,298,102,-46
-78,190,268,-56,-173,229,68,65,249,261,82,-34
-99,123,222,-12,-160,172,63,94,209,211,70,-34
-41,66,107,-13,-74,86,54,78,144,135,44,-27
-48,28,76,10,-62,52,47,61,93,76,4,-46
-63,2,65,30,-64,34,42,57,63,34,-42,-71
-38,-14,24,26,-31,4,39,48,45,10,-62,-70
-54,-28,25,41,-39,-1,36,42,31,5,-60,-70
-55,-31,24,42,-39,-3,33,34,24,1,-61,-70
-49,-29,21,39,-35,-4,30,28,22,-6,-59,-69
-66,-47,18,56,-42,-14,30,23,17,-10,-61,-73
-72,-57,15,64,-43,-21,31,20,14,-19,-59,-75
-67,-54,13,60,-40,-20,30,17,10,-37,-62,-75
-60,-57,3,58,-31,-27,26,12,7,-43,-64,-75
-22,-52,-31,37,5,-41,24,10,2,-46,-69,-75
-35,-65,-30,50,-2,-47,20,10,0,-50,-86,-75
-79,-75,4,77,-41,-35,20,10,-5,-57,-82,-75
-63,-65,-2,64,-30,-33,24,10,-8,-67,-78,-75
-25,-60,-35,43,5,-47,21,10,-13,-69,-73,-75
-50,-52,-2,51,-23,-27,20,11,-33,-71,-71,-74
-76,-46,30,61,-53,-8,20,7,-37,-70,-96,-84
-57,-49,8,52,-32,-20,20,5,-31,-70,-109,-91
-52,-50,2,51,-27,-24,20,5,-31,-70,-101,-83
-49,-50,-1,50,-24,-25,20,1,-26,-70,-107,-80
-44,-50,-5,48,-20,-27,20,-1,-25,-70,-119,-75
-37,-50,-13,44,-12,-31,20,1,-29,-70,-113,-70
-71,-49,22,59,-46,-13,20,4,-30,-70,-105,-73
-48,-45,4,46,-25,-20,20,5,-30,-70,-100,-76
-33,-45,-12,39,-10,-28,20,5,-30,-70,-92,-79
-76,-43,33,59,-54,-5,25,5,-31,-70,-87,-81
-34,-39,-5,36,-14,-22,25,4,-28,-67,-78,-85
-28,-42,-13,35,-8,-27,25,7,-16,-59,-70,-84
-36,-28,8,32,-21,-10,25,16,-1,-55,-62,-69
-33,2,34,15,-34,18,26,22,9,-37,-54,-54
-34,20,53,7,-44,36,21,31,23,-28,-49,-48
-25,26,52,-1,-39,39,5,29,35,-31,-43,-41
-7,59,66,-26,-37,62,-11,7,26,-29,-38,-33
31,74,43,-53,-6,58,-27,-10,14,-31,-31,-22
14,56,42,-35,-14,49,-45,-23,-9,-28,-33,-4
14,39,25,-26,-6,32,-55,-41,-39,-45,-49,-9
13,10,-2,-12,7,4,-49,-46,-39,-52,-48,-23
-24,-24,1,24,-12,-11,-20,-44,-41,-59,-66,-45
-55,-51,4,53,-29,-24,20,-41,-37,-86,-89,-64
-54,-65,-11,60,-21,-38,32,-37,-34,-75,-101,-79
-28,-69,-40,49,6,-54,26,-31,-38,-88,-122,-89
-29,-58,-29,44,0,-43,23,-23,-38,-81,-110,-80
-33,-62,-29,47,-2,-46,21,-19,-54,-89,-125,-89
-40,-48,-8,44,-15,-28,13,-9,-25,-87,-116,-70
-49,-50,-1,49,-24,-25,22,-9,-36,-86,-131,-91
-68,16,84,26,-76,50,65,77,95,7,-124,-103
-70,127,197,-29,-134,161,120,317,405,361,68,-67
256,226,-29,-241,142,98,8,437,589,811,937,774
806,282,-525,-544,665,-121,-339,81,230,1208,2274,1902
712,-112,-824,-300,768,-468,-407,-546,-827,252,1408,1071
146,-490,-635,172,391,-562,-162,-852,-1373,-1237,-707,-277
-57,-398,-342,228,142,-370,-89,-699,-1018,-1101,-892,-377
-43,-185,-142,114,50,-163,-66,-308,-453,-451,-397,-224
-67,-65,2,66,-34,-31,7,-46,-78,-183,-247,-154
-95,-43,51,69,-73,4,33,-13,-24,-113,-178,-140
-79,2,81,38,-80,42,42,5,2,-120,-194,-136
-49,36,85,7,-67,60,39,15,13,-88,-155,-118
-64,40,103,12,-84,71,40,21,16,-89,-145,-119
-69,34,103,17,-86,68,40,32,41,-38,-109,-101
-66,29,95,18,-81,62,39,55,81,22,-63,-81
-44,26,70,9,-57,47,34,85,137,85,-8,-56
-37,20,56,8,-47,38,25,108,173,142,41,-40
-48,24,71,12,-60,47,20,137,208,190,78,-17
-22,27,48,-3,-36,37,10,157,237,240,114,9
-18,30,48,-6,-33,39,5,165,253,282,150,34
-19,36,55,-9,-38,46,-3,152,252,295,177,56
15,50,35,-33,-11,43,-11,141,234,278,184,64
28,55,27,-41,0,40,-17,124,198,254,167,58
23,56,33,-40,-6,45,-25,101,159,208,131,52
20,52,32,-37,-6,42,-33,75,124,153,94,47
17,65,48,-42,-16,56,-39,52,101,109,57,38
19,84,65,-52,-23,74,-35,36,76,64,28,28
14,73,59,-43,-23,66,-27,20,51,31,1,18
12,65,53,-39,-21,59,-21,15,36,6,-22,4
7,56,49,-32,-21,52,-13,15,34,-26,-46,-21
5,47,41,-26,-18,43,-9,15,36,-38,-56,-39
1,45,44,-23,-22,44,3,14,33,-28,-49,-43
-10,41,51,-16,-31,46,16,20,37,-19,-45,-42
15,39,25,-27,-5,32,15,24,32,-12,-41,-36
-14,36,50,-11,-33,43,15,38,50,9,-33,-32
-34,34,69,0,-52,51,15,56,81,32,-13,-28
-9,36,45,-13,-28,40,15,54,83,56,7,-22
-22,34,56,-7,-40,45,15,55,88,73,25,-20
-16,36,52,-10,-34,44,15,55,90,65,33,-20
-15,33,48,-10,-32,40,15,54,89,61,27,-20
-5,39,44,-17,-25,41,15,57,90,57,20,-21
-3,66,69,-32,-36,67,15,60,89,52,13,-20
-8,81,89,-37,-49,85,15,60,91,50,9,-20
-3,75,78,-36,-40,76,-3,43,78,36,-4,-17
12,88,76,-50,-32,81,-28,15,63,28,-5,-14
31,103,72,-67,-20,87,-42,-16,40,4,-3,-16
36,93,57,-64,-11,75,-47,-30,0,-32,-23,-13
36,83,46,-60,-5,64,-65,-51,-42,-63,-54,-18
8,66,58,-37,-26,62,-64,-68,-66,-91,-76,-30
-30,21,51,4,-41,35,-21,-54,-60,-89,-94,-56
-49,-11,38,29,-43,13,-1,-49,-59,-114,-119,-85
-35,-20,15,27,-25,-2,8,-38,-49,-119,-127,-100
-36,-57,-20,47,-8,-38,20,-34,-52,-128,-134,-105
-38,-57,-19,48,-9,-38,21,-26,-39,-128,-136,-103
-65,-57,9,61,-37,-23,28,-18,-44,-126,-149,-125
-83,-41,42,61,-62,1,33,-16,-32,-130,-130,-107
-65,-44,21,54,-43,-12,45,13,-24,-109,-153,-115
-82,-22,60,52,-71,19,68,52,45,-69,-178,-131
-112,62,174,25,-143,117,138,243,326,217,-100,-190
128,131,3,-129,62,67,74,425,563,665,655,528
705,202,-502,-453,603,-150,-228,250,457,1274,2149,1814
721,-116,-837,-302,779,-476,-327,-301,-451,700,1698,1256
190,-495,-684,153,437,-589,-160,-778,-1294,-998,-439,-157
-62,-470,-409,266,174,-439,-67,-746,-1133,-1264,-1010,-417
-88,-275,-187,182,50,-230,-31,-396,-572,-574,-509,-248
-81,-125,-44,103,-18,-84,37,-95,-130,-221,-265,-152
-90,-107,-17,98,-36,-62,64,-22,-34,-125,-201,-129
-114,-76,39,95,-76,-18,54,-13,-15,-114,-188,-116
-111,-50,60,81,-86,5,52,6,20,-82,-157,-106
-104,-31,73,67,-88,21,47,5,23,-80,-138,-102
-102,-18,84,60,-92,33,43,22,52,-46,-111,-90
-93,-17,76,55,-84,29,39,35,63,-13,-91,-85
-82,-5,77,43,-79,36,33,60,104,31,-46,-60
-76,-3,73,39,-74,35,27,83,140,84,7,-34
-61,7,68,27,-65,37,22,112,177,138,48,-2
-41,10,51,15,-46,30,16,139,216,205,104,21
-19,28,47,-5,-33,37,12,137,235,246,149,52
-1,41,42,-21,-22,42,5,126,233,250,171,78
-10,38,48,-14,-29,43,-3,120,201,221,162,79
10,49,39,-30,-14,43,-9,100,155,160,117,63
6,52,46,-29,-20,49,-17,68,110,94,63,30
-40,41,81,-1,-61,60,-25,36,63,41,11,7
-33,34,67,-1,-50,50,-29,16,35,8,-32,-9
-38,25,63,7,-51,43,-21,10,28,-14,-52,-22
-33,15,48,9,-41,32,-13,2,19,-50,-75,-46
-44,5,49,19,-46,27,-3,-4,11,-67,-109,-74
-55,-5,50,30,-52,22,8,-11,5,-81,-132,-87
-52,-21,31,36,-41,5,21,-14,5,-97,-136,-103
-89,-44,44,66,-66,0,40,0,11,-83,-130,-106
-69,-51,18,60,-43,-16,47,14,25,-70,-120,-104
-61,-45,16,53,-38,-14,49,24,43,-60,-119,-105
-76,-42,34,58,-55,-4,45,27,44,-52,-103,-105
-75,-37,37,56,-56,0,40,32,36,-43,-97,-104
-107,-27,80,67,-93,26,34,35,34,-39,-113,-100
-88,-18,70,53,-78,26,28,35,28,-41,-87,-98
-45,-3,42,24,-43,19,24,35,26,-40,-76,-94
-54,18,72,18,-63,45,20,35,26,-41,-84,-92
-45,35,81,5,-63,58,17,35,25,-40,-78,-89
-41,76,117,-18,-79,96,12,31,25,-42,-83,-98
-51,105,155,-27,-103,130,12,20,20,-47,-99,-102
-30,106,136,-39,-83,121,-5,10,21,-54,-109,-94
0,128,127,-64,-64,127,-34,0,18,-57,-108,-90
15,134,119,-75,-53,126,-58,-17,-1,-61,-114,-85
32,120,88,-77,-28,104,-69,-38,-34,-79,-116,-77
37,104,67,-71,-15,85,-71,-51,-68,-100,-123,-78
8,75,67,-42,-29,71,-63,-50,-77,-118,-145,-92
-5,53,58,-24,-32,55,-25,-45,-78,-125,-162,-118
-20,29,50,-5,-35,39,-2,-45,-80,-154,-182,-142
-34,8,43,13,-39,25,1,-39,-70,-147,-176,-149
-53,-10,43,31,-48,16,10,-40,-82,-152,-189,-153
-59,-14,46,36,-52,16,15,-33,-67,-135,-205,-145
-72,-25,47,48,-60,11,24,-36,-83,-139,-222,-157
-65,-15,50,39,-57,17,26,-37,-65,-130,-212,-141
-26,-4,21,15,-24,8,35,-20,-38,-97,-222,-161
-66,40,106,13,-86,73,58,41,50,-64,-226,-199
-114,121,235,-4,-175,178,125,266,345,262,-81,-195
171,211,40,-191,65,125,28,403,546,721,769,624
735,280,-455,-507,595,-87,-277,201,373,1298,2326,1894
692,-55,-746,-319,719,-400,-330,-345,-560,555,1647,1179
144,-431,-575,144,360,-503,-165,-778,-1305,-1135,-661,-284
-83,-384,-300,234,109,-342,-83,-675,-1048,-1180,-1004,-434
-89,-178,-88,134,0,-133,-33,-338,-504,-512,-481,-277
-75,-51,24,63,-49,-13,15,-85,-125,-224,-321,-219
-72,-39,33,55,-53,-3,45,-29,-46,-123,-245,-185
-116,-26,91,71,-103,32,51,-18,-14,-117,-244,-177
-132,-22,110,77,-121,44,49,2,9,-77,-202,-156
-108,-21,87,64,-97,33,51,8,15,-71,-191,-151
-96,-14,81,55,-88,33,49,23,53,-22,-159,-133
-87,-12,75,49,-81,31,50,36,76,18,-123,-121
-72,-9,62,40,-67,26,53,69,123,60,-65,-90
-66,-9,57,37,-61,24,58,97,161,129,-10,-64
-56,-23,33,39,-44,5,59,129,204,186,35,-30
-41,-34,7,38,-24,-13,50,147,242,240,91,2
-35,-12,23,23,-29,6,40,167,268,292,154,40
-39,0,39,19,-39,19,28,166,265,309,201,80
-31,9,40,10,-35,24,11,140,240,294,194,79
-7,21,28,-7,-18,25,-5,113,208,249,161,67
-11,20,31,-5,-21,25,-14,82,170,184,117,54
-47,12,59,17,-53,35,-22,63,136,123,57,24
-69,6,75,31,-73,40,-20,42,103,76,25,-3
-62,-2,60,31,-61,29,-6,31,68,45,-10,-19
-36,-9,26,22,-31,8,5,30,45,10,-58,-41
-32,-15,17,23,-24,0,20,29,45,-25,-84,-63
-61,-30,31,45,-46,0,33,26,45,-48,-108,-82
-81,-44,38,62,-59,-3,46,24,45,-44,-109,-101
-86,-57,29,71,-57,-14,53,28,46,-34,-100,-107
-89,-67,23,78,-55,-22,47,28,45,-30,-98,-108
-78,-62,16,70,-47,-23,53,43,64,5,-93,-105
-72,-59,12,65,-42,-23,54,58,82,31,-78,-91
-64,-56,9,60,-36,-23,47,52,79,29,-53,-88
-57,-52,6,54,-31,-23,43,50,82,48,-27,-73
-48,-47,1,48,-25,-23,36,45,78,63,-34,-61
-28,-27,1,27,-14,-13,32,42,82,82,-2,-42
-26,1,27,12,-26,14,25,40,82,73,8,-19
-17,9,26,4,-22,18,15,72,121,143,67,23
41,28,-13,-34,27,7,5,119,194,254,215,120
116,65,-51,-90,84,7,-6,210,323,434,330,187
184,64,-119,-124,151,-27,-32,309,461,666,579,346
296,39,-257,-168,276,-109,-70,327,505,800,717,475
438,75,-364,-256,400,-144,-112,374,598,1081,1127,792
572,109,-464,-340,518,-177,-153,445,726,1360,1711,1285
891,-115,-1006,-387,948,-560,-191,668,883,1724,2721,2063
1207,-709,-1916,-248,1561,-1312,-225,660,361,1234,3526,2667
1068,-1144,-2212,38,1641,-1678,-204,294,-462,59,1920,1516
666,-1010,-1676,173,1171,-1343,-129,193,-449,-267,38,114
244,-649,-894,203,569,-771,-29,108,-308,-395,-567,-333
-81,-289,-208,185,64,-249,53,-28,-239,-423,-707,-494
-195,-74,121,135,-158,23,73,-40,-134,-307,-590,-450
-247,-1,246,123,-246,122,67,-101,-146,-332,-626,-471
-250,63,313,93,-282,188,65,-159,-168,-357,-613,-464
-247,79,326,84,-286,202,60,-189,-218,-406,-613,-462
-305,90,395,107,-350,242,57,-218,-237,-428,-637,-472
-309,109,418,100,-364,264,54,-261,-286,-498,-664,-466
-309,157,466,76,-388,311,45,-310,-348,-566,-714,-495
-327,208,535,59,-431,372,37,-363,-405,-632,-747,-512
-358,245,603,56,-481,424,28,-402,-434,-677,-783,-521
-391,309,700,41,-545,504,21,-432,-447,-683,-797,-526
-374,356,730,9,-552,543,20,-444,-433,-653,-790,-523
-376,396,772,-10,-574,584,20,-416,-353,-558,-708,-478
-349,436,785,-44,-568,611,20,-373,-259,-428,-595,-430
-339,436,775,-49,-557,605,20,-303,-133,-249,-464,-365
-320,431,751,-55,-536,591,22,-216,-10,-79,-312,-283
-251,399,650,-74,-451,524,25,-137,85,46,-176,-215
-187,338,525,-76,-357,431,29,-70,157,146,-77,-138
-119,272,391,-77,-255,332,34,-23,164,156,-26,-98
-107,188,295,-41,-201,241,38,7,152,142,-17,-102
-101,127,227,-14,-164,177,39,23,136,120,-19,-100
-86,68,154,9,-120,111,34,32,94,57,-53,-100
-85,30,115,27,-100,72,28,26,55,1,-103,-102
-84,18,102,33,-93,60,25,15,19,-35,-127,-112
-78,2,79,38,-79,40,20,5,8,-45,-123,-105
-32,-3,29,18,-30,13,16,-4,5,-53,-125,-101
-34,-12,22,23,-28,5,11,-11,-8,-59,-127,-98
-50,-16,34,33,-42,8,10,-16,-8,-50,-118,-90
-39,-26,13,32,-26,-7,10,-25,-24,-57,-140,-93
-58,-27,31,43,-45,2,5,-30,-6,-43,-122,-76
-51,-6,46,28,-49,20,6,-35,-3,-50,-126,-86
-40,41,81,-1,-61,61,3,-4,22,1,-60,-60
-57,46,104,5,-81,75,-1,28,63,39,-78,-78
-26,92,118,-33,-72,105,-25,37,100,120,-7,-33
45,202,157,-124,-56,179,-88,79,200,340,122,48
186,309,122,-248,32,215,-241,-13,107,449,340,209
436,436,0,-436,218,218,-451,-133,53,799,976,652
830,548,-282,-689,556,133,-690,-191,26,1216,2110,1564
1247,725,-522,-985,884,101,-856,-57,281,1811,3877,3042
1058,558,-500,-808,778,30,-585,176,777,2001,3006,2728
452,200,-252,-326,351,-26,-199,-3,498,924,496,859
119,77,-42,-98,80,17,-76,-167,10,21,-144,51
-34,-48,-14,41,-9,-31,2,-85,-127,-265,-399,-203
-132,-95,37,113,-84,-29,63,-40,-129,-310,-445,-322
-161,-123,39,142,-100,-42,85,-25,-121,-310,-446,-362
-159,-151,8,155,-84,-71,90,-33,-169,-379,-532,-427
-181,-155,27,168,-104,-64,99,-25,-160,-369,-487,-412
-175,-164,11,169,-93,-76,102,-24,-176,-439,-567,-446
-157,-150,7,153,-82,-71,97,-29,-189,-477,-573,-468
-215,-155,60,185,-138,-47,113,-33,-178,-467,-603,-493
-233,-142,91,187,-162,-25,142,-20,-165,-486,-587,-509
-228,-158,70,193,-149,-44,188,12,-154,-504,-604,-542
-252,-197,55,224,-154,-71,206,38,-146,-528,-651,-584
-253,-224,29,238,-141,-97,217,70,-134,-541,-661,-611
-258,-248,11,253,-134,-118,231,97,-131,-551,-687,-631
-255,-248,8,251,-131,-120,222,98,-127,-577,-700,-642
-245,-241,4,242,-124,-118,213,89,-125,-571,-693,-620
-223,-222,1,222,-112,-110,183,82,-121,-560,-686,-578
-182,-186,-4,185,-89,-95,140,77,-120,-538,-634,-517
-132,-138,-7,135,-62,-72,97,55,-114,-471,-531,-416
-67,-96,-29,82,-19,-62,54,28,-102,-387,-405,-296
-36,-65,-29,51,-3,-47,29,21,-88,-292,-287,-194
-22,-24,-2,23,-10,-13,21,16,-68,-200,-201,-121
-10,-4,7,6,-8,2,12,11,-42,-122,-135,-68
-7,-1,6,4,-6,3,5,5,-14,-76,-85,-41
-9,5,14,2,-12,9,5,1,-1,-48,-58,-28
-2,8,10,-3,-6,8,5,4,3,-27,-45,-20
-9,15,25,-3,-17,20,5,5,12,-8,-31,-12
-18,11,29,3,-24,20,4,4,17,12,-20,-4
-9,-3,6,6,-8,2,10,6,21,32,-7,3
-5,-17,-13,11,4,-15,19,3,19,36,2,9
2,-31,-32,15,17,-31,27,12,23,35,17,14
-35,-54,-18,45,-8,-36,37,27,49,66,42,19
-38,-87,-49,63,5,-68,40,25,57,78,46,25
-18,-97,-79,58,30,-88,40,25,54,74,45,30
-45,-108,-63,77,9,-85,39,25,56,76,45,30
-44,-128,-84,87,20,-106,47,25,55,75,45,30
-45,-146,-101,96,28,-123,60,25,55,75,45,30
-57,-155,-98,106,21,-126,60,21,50,69,38,30
-52,-148,-96,101,22,-122,60,18,45,64,31,31
-53,-144,-91,99,19,-117,60,15,41,58,24,28
-45,-138,-92,91,24,-115,60,12,36,52,18,25
-48,-132,-85,90,19,-108,59,10,31,48,6,25
-45,-128,-82,87,19,-105,54,10,27,41,18,25
-54,-121,-67,87,7,-94,51,10,25,34,17,25
-55,-114,-60,85,3,-87,48,10,22,28,12,25
-21,-108,-86,64,33,-97,43,10,19,21,25,20
-39,-101,-62,70,12,-81,40,10,16,15,12,15
-49,-95,-46,72,-1,-70,36,10,14,12,2,10
-39,-89,-51,64,6,-70,35,10,11,9,-7,6
-40,-82,-43,62,2,-62,35,10,10,4,-15,1
-33,-76,-43,54,5,-59,30,10,10,1,-19,-3
-30,-69,-39,50,4,-54,30,10,10,-2,-26,-5
-26,-63,-37,44,6,-50,29,11,11,-7,-29,-8
-28,-57,-29,43,1,-43,25,7,7,-10,-34,-11
-26,-51,-25,39,0,-38,26,5,4,-13,-37,-14
-25,-44,-19,34,-2,-31,22,5,5,-18,-41,-16
-24,-38,-13,31,-5,-25,20,5,1,-21,-40,-19
-21,-30,-9,26,-6,-19,20,5,0,-24,-40,-23
-27,-23,3,25,-15,-9,17,5,0,-27,-40,-26
-29,-12,17,20,-23,3,11,5,-6,-31,-40,-28
-38,-3,35,20,-36,16,7,4,-9,-37,-50,-39
-24,11,36,6,-31,23,2,6,-14,-37,-52,-47
5,51,46,-28,-21,48,-2,3,-13,-35,-49,-46
4,85,81,-45,-39,82,-7,13,-8,-34,-45,-43
-11,103,114,-46,-63,108,-19,31,-5,-29,-42,-40
-4,117,121,-57,-63,119,-34,19,-1,-30,-39,-40
37,148,111,-93,-38,129,-52,3,2,-27,-38,-37
46,171,125,-109,-40,148,-63,-21,7,-13,-35,-31
57,155,98,-106,-21,126,-85,-52,-28,-38,-34,-28
67,139,72,-103,-3,105,-101,-62,-67,-75,-36,-23
40,112,72,-76,-16,92,-98,-58,-63,-74,-33,-19
26,74,49,-50,-12,61,-66,-51,-67,-82,-74,-47
-1,62,63,-31,-32,62,-39,-41,-59,-86,-94,-67
3,42,39,-23,-18,40,-38,-37,-62,-83,-89,-86
5,35,30,-20,-13,32,-31,-24,-59,-88,-92,-85
-10,35,45,-13,-28,40,-30,-35,-71,-84,-91,-84
-9,24,33,-7,-21,29,-21,-50,-72,-109,-129,-95
-21,34,55,-7,-38,44,-24,-43,-58,-92,-109,-81
-26,17,43,4,-35,30,-1,-29,-53,-96,-132,-106
-52,117,169,-33,-111,143,60,126,178,85,-97,-125
5,230,226,-118,-111,228,76,367,482,487,200,42
451,360,-91,-406,271,135,-121,340,547,1028,1483,1217
875,332,-543,-603,709,-106,-451,-179,-140,1180,2580,2000
548,-154,-702,-197,625,-428,-395,-748,-1178,-210,839,682
66,-430,-497,182,282,-463,-165,-873,-1344,-1316,-954,-366
-11,-289,-278,151,134,-283,-120,-588,-831,-833,-664,-278
-24,-86,-61,55,19,-73,-49,-189,-273,-307,-314,-185
-54,-7,47,30,-50,20,11,-34,-46,-137,-200,-130
-53,3,56,24,-55,30,19,-7,-25,-120,-167,-142
-52,38,90,7,-71,64,23,10,15,-112,-170,-129
-55,46,101,4,-78,73,17,-15,-4,-90,-149,-124
-42,75,117,-17,-80,96,18,9,20,-72,-149,-116
-51,71,123,-10,-87,97,12,28,53,-16,-94,-82
-73,42,114,15,-94,78,22,55,99,36,-62,-67
-58,39,97,9,-78,68,39,104,157,113,0,-50
-36,40,76,-2,-56,58,33,129,201,174,47,-40
-2,42,44,-20,-23,42,25,153,240,233,80,-15
19,46,27,-33,-5,36,18,172,269,284,133,16
13,44,30,-28,-9,36,10,173,279,323,181,50
0,53,53,-27,-27,52,4,166,271,332,196,75
1,63,62,-32,-30,62,-3,153,255,308,187,89
3,60,56,-32,-27,58,-9,130,212,268,176,79
7,60,54,-34,-23,56,-16,94,169,211,140,56
7,60,52,-34,-23,56,-22,62,132,148,84,37
13,60,47,-37,-17,53,-29,45,95,93,48,20
8,60,53,-34,-23,56,-27,29,75,51,28,7
-40,56,96,-8,-68,75,-21,20,60,16,-9,-6
-16,50,65,-17,-41,58,-18,20,33,-16,-48,-19
1,44,43,-23,-21,44,-12,20,29,-37,-63,-29
-6,38,43,-16,-25,40,-9,20,31,-33,-66,-37
-12,17,29,-3,-20,23,-3,22,24,-28,-63,-32
-58,1,59,28,-58,29,3,27,45,-25,-56,-43
-34,0,34,17,-34,17,7,30,61,-7,-48,-59
-22,-5,18,13,-19,6,14,37,64,27,-38,-50
-34,-6,28,20,-31,11,18,47,72,50,-17,-42
-25,-11,14,18,-20,2,24,54,87,68,-2,-35
-28,-9,19,18,-23,5,25,60,95,87,9,-27
-41,-1,40,20,-40,19,25,59,99,101,32,-21
-42,6,48,17,-45,27,25,64,110,111,52,-16
-25,16,42,4,-34,29,25,73,102,105,62,-12
-22,20,42,1,-32,31,24,69,96,97,55,-5
0,37,37,-18,-19,37,10,70,89,92,50,0
-18,40,59,-11,-39,49,-3,71,83,82,31,-7
-8,60,69,-26,-39,64,-18,46,74,65,16,-15
34,83,50,-59,-8,67,-31,8,34,31,13,-15
31,65,35,-48,-2,50,-46,-24,0,-10,-19,-14
48,54,6,-51,21,30,-56,-32,-29,-49,-42,-16
20,20,0,-20,10,10,-34,-30,-38,-63,-52,-31
-25,-25,0,25,-13,-12,-6,-29,-34,-61,-78,-58
-45,-54,-9,49,-17,-32,12,-25,-37,-79,-92,-67
-51,-64,-13,58,-19,-38,23,-25,-32,-75,-93,-86
-42,-67,-25,54,-8,-46,29,-23,-39,-96,-123,-103
-46,-65,-20,56,-13,-42,29,-19,-31,-93,-120,-97
-62,-74,-12,68,-25,-43,32,-16,-44,-108,-130,-113
-51,-58,-7,55,-22,-32,27,-13,-40,-113,-136,-101
-63,-57,6,60,-34,-25,34,-8,-43,-86,-146,-120
-110,-15,95,62,-103,40,77,50,58,-57,-168,-143
-131,81,212,25,-172,146,139,272,351,242,-77,-170
157,167,10,-162,73,89,47,442,580,717,772,610
767,254,-513,-510,640,-130,-271,195,367,1289,2232,1809
715,-73,-788,-321,751,-430,-364,-424,-655,512,1480,1079
122,-480,-602,179,362,-541,-163,-863,-1394,-1190,-687,-296
-79,-418,-339,248,130,-378,-65,-728,-1084,-1194,-959,-421
-73,-192,-119,133,23,-155,-47,-324,-469,-481,-431,-241
-75,-68,7,72,-41,-30,7,-74,-99,-220,-278,-162
-71,-45,26,58,-49,-9,35,-30,-54,-132,-213,-147
-89,-17,71,53,-80,27,35,-12,-24,-145,-212,-148
-97,-5,93,51,-95,44,35,2,-2,-117,-194,-132
-74,11,84,31,-79,47,35,5,2,-114,-184,-127
-53,27,81,13,-68,54,35,19,26,-72,-139,-103
-50,24,74,13,-63,49,35,29,42,-36,-101,-97
-41,26,68,7,-55,47,39,53,85,4,-60,-81
-43,24,67,9,-55,45,41,80,126,80,-13,-57
-16,26,42,-5,-30,34,46,120,181,151,55,-16
-31,25,56,3,-44,40,41,157,240,233,132,29
-34,28,62,3,-48,45,25,160,255,274,187,65
17,35,18,-26,-1,26,9,156,237,276,206,89
12,38,27,-25,-8,32,-1,143,215,254,190,82
-4,35,39,-16,-22,37,1,112,168,189,166,66
-10,34,44,-12,-27,39,-1,75,114,119,97,49
-14,44,58,-15,-36,51,-5,42,67,55,36,20
-26,38,64,-6,-46,51,-5,26,42,10,6,-7
-34,26,59,4,-47,42,-3,11,23,-21,-34,-33
-40,13,54,13,-47,33,8,4,3,-58,-71,-55
-49,2,51,23,-50,26,17,1,-4,-84,-105,-77
-56,-12,44,34,-50,15,28,-3,-9,-108,-124,-97
-88,-38,50,63,-69,6,36,-6,-15,-126,-142,-111
-86,-41,44,63,-65,1,39,-11,-19,-118,-154,-128
-76,-39,37,57,-56,-1,44,1,-5,-108,-145,-127
-65,-38,27,51,-46,-5,42,23,21,-85,-135,-120
-54,-34,20,44,-37,-7,40,33,41,-58,-125,-116
-86,-35,51,61,-68,8,40,39,46,-51,-115,-109
-84,-35,49,59,-66,6,37,40,44,-44,-103,-105
-69,-36,33,52,-50,-1,34,40,49,-37,-90,-99
-51,-30,21,40,-36,-4,35,40,50,-32,-83,-92
-47,-22,25,34,-36,1,45,40,49,-35,-80,-88
-74,-17,57,45,-65,20,45,39,46,-36,-75,-84
-60,-7,53,33,-56,23,34,32,43,-36,-70,-81
-66,2,68,32,-67,35,31,24,39,-40,-66,-77
-73,16,89,28,-81,52,20,19,37,-39,-60,-75
-40,42,82,-2,-61,62,6,3,29,-43,-65,-80
-33,56,89,-12,-61,72,-12,-27,8,-58,-67,-79
-20,38,58,-10,-39,48,-31,-38,-22,-78,-90,-84
5,18,14,-12,-5,16,-27,-36,-50,-100,-105,-85
-22,-6,16,13,-19,5,-8,-32,-49,-106,-107,-90
-60,-45,15,52,-37,-15,12,-30,-51,-118,-141,-113
-72,-58,14,64,-42,-22,32,-27,-49,-123,-150,-113
-77,-69,8,73,-42,-30,41,-24,-50,-122,-154,-128
-59,-65,-6,62,-26,-35,42,-23,-51,-137,-161,-136
-71,-56,15,63,-43,-20,46,-12,-41,-125,-162,-145
-89,-54,35,71,-62,-9,48,-14,-47,-162,-186,-135
-73,-39,35,56,-54,-2,50,2,-28,-133,-172,-129
-82,-45,37,63,-59,-4,61,-3,-30,-123,-192,-156
-132,41,174,45,-153,107,121,137,193,51,-181,-207
-60,135,195,-37,-128,165,143,384,489,453,195,55
455,240,-215,-347,334,13,-105,359,543,1020,1541,1308
831,173,-658,-501,744,-242,-360,-31,28,1229,2350,1813
447,-256,-703,-95,575,-480,-273,-612,-1022,-247,551,440
-12,-469,-458,241,223,-463,-102,-831,-1328,-1417,-1073,-470
-101,-309,-208,205,54,-258,-52,-562,-830,-906,-772,-363
-99,-112,-13,105,-43,-62,-10,-203,-310,-373,-381,-241
-100,-40,59,70,-79,10,36,-47,-68,-186,-263,-182
-99,-23,77,61,-88,27,45,-29,-51,-164,-244,-174
-118,-1,117,60,-118,58,45,1,-5,-141,-241,-165
-109,5,114,52,-112,59,45,-1,-5,-112,-211,-160
-92,15,108,38,-100,61,41,14,18,-103,-204,-151
-82,18,100,31,-91,59,40,19,44,-62,-161,-138
-67,25,92,21,-80,58,40,33,61,-22,-127,-116
-66,20,86,23,-76,53,35,69,114,50,-70,-88
-58,19,77,19,-68,48,30,98,162,113,-10,-67
-54,14,68,20,-61,40,26,133,213,182,49,-30
-38,23,61,7,-50,42,22,145,244,247,116,10
4,52,48,-28,-23,50,16,138,241,266,162,49
6,57,52,-32,-23,54,5,129,235,263,189,58
-11,61,72,-25,-42,66,-8,122,208,246,178,43
-4,65,69,-30,-37,67,-20,96,159,183,120,33
-9,59,68,-25,-38,63,-36,59,119,121,72,18
-12,52,65,-21,-39,58,-41,31,72,67,18,-8
-21,46,66,-13,-44,56,-27,11,33,16,-36,-27
-51,39,91,6,-71,65,-13,4,14,-27,-77,-48
-59,32,91,13,-75,61,-3,-5,1,-67,-116,-72
-56,24,80,15,-68,52,6,-15,-3,-81,-134,-88
-58,16,74,21,-66,44,14,-18,-12,-110,-153,-112
-57,8,65,24,-61,36,24,-9,-18,-119,-152,-115
-64,-3,61,33,-62,29,31,0,-13,-96,-150,-110
-67,-9,58,38,-62,24,34,5,5,-81,-145,-105
-76,-21,56,48,-66,17,32,18,40,-58,-138,-98
-75,-23,52,49,-63,14,23,14,41,-47,-135,-96
-51,0,50,26,-50,25,22,27,58,-3,-84,-84
-27,25,52,1,-40,38,12,12,44,12,-69,-65
-14,76,90,-31,-52,82,10,31,82,103,22,-26
-27,103,129,-38,-78,116,1,56,125,126,10,-33
3,168,166,-86,-82,166,-33,94,201,248,111,30
99,301,203,-200,-52,252,-95,133,299,463,257,115
275,405,131,-340,72,268,-281,-1,159,537,472,337
562,465,-97,-513,329,183,-498,-51,113,903,1116,830
1033,587,-446,-810,740,70,-741,-38,227,1463,2409,1911
1422,663,-759,-1042,1090,-48,-831,180,708,2398,4145,3266
1110,446,-665,-778,887,-109,-564,125,726,2008,2909,2500
486,224,-262,-354,374,-19,-320,-305,-4,338,285,643
134,55,-79,-95,107,-11,-156,-248,-216,-224,-240,4
-71,-82,-11,76,-29,-46,28,-100,-175,-326,-399,-242
-174,-105,69,139,-121,-18,103,-50,-140,-344,-454,-340
-212,-145,67,178,-139,-39,126,-11,-119,-312,-452,-365
-222,-150,73,186,-147,-38,141,-19,-140,-353,-511,-415
-228,-162,66,195,-147,-48,151,4,-122,-340,-490,-417
-254,-189,65,221,-159,-62,167,1,-136,-382,-548,-454
-253,-187,66,219,-159,-60,182,17,-126,-389,-547,-478
-268,-211,56,239,-162,-77,206,24,-126,-421,-588,-515
-295,-233,63,264,-179,-85,222,34,-130,-451,-608,-524
-299,-242,58,270,-178,-92,231,36,-150,-504,-657,-558
-329,-255,74,292,-202,-90,250,34,-146,-540,-694,-589
-339,-247,91,293,-215,-78,248,48,-139,-561,-700,-600
-324,-240,84,282,-204,-78,238,62,-136,-575,-725,-594
-312,-235,78,273,-195,-78,232,76,-127,-564,-729,-581
-299,-227,72,262,-185,-77,222,83,-124,-561,-704,-573
-275,-220,55,248,-165,-83,217,76,-98,-530,-661,-537
-227,-189,39,208,-133,-75,194,69,-68,-453,-561,-465
-206,-158,48,182,-127,-55,157,62,-48,-368,-464,-373
-141,-115,26,128,-83,-45,115,55,-26,-271,-348,-282
-74,-86,-12,80,-31,-49,87,47,-11,-188,-251,-215
-62,-70,-8,66,-27,-39,69,42,-3,-116,-190,-152
-52,-29,23,40,-37,-3,47,37,3,-78,-136,-109
-29,-1,28,15,-29,13,29,36,41,-4,-70,-62
18,21,4,-20,7,12,15,61,98,119,74,31
78,38,-39,-58,58,0,-4,137,212,287,203,107
163,38,-125,-100,144,-43,-45,218,328,516,439,269
263,-11,-274,-126,268,-142,-89,239,347,641,586,396
402,5,-397,-203,400,-196,-150,266,445,928,962,683
544,82,-461,-313,502,-189,-210,371,681,1337,1549,1149
828,-99,-927,-364,877,-513,-230,602,856,1577,2294,1829
1167,-684,-1851,-241,1509,-1267,-258,586,267,1014,2949,2372
1082,-1165,-2247,42,1665,-1706,-242,237,-579,-104,1684,1398
645,-1030,-1675,192,1161,-1352,-149,86,-633,-536,-132,13
184,-630,-815,223,500,-722,-41,10,-445,-564,-733,-459
-103,-265,-162,184,30,-214,35,-66,-263,-479,-734,-491
-185,-16,169,100,-177,76,49,-101,-148,-396,-551,-413
-223,54,277,84,-250,165,40,-188,-200,-417,-561,-429
-240,88,328,75,-284,208,32,-235,-243,-417,-580,-425
-250,98,348,76,-299,222,22,-270,-293,-472,-598,-423
-277,98,375,90,-326,236,14,-307,-321,-507,-637,-428
-277,115,391,81,-334,253,10,-343,-375,-568,-666,-438
-282,147,429,68,-356,287,10,-378,-397,-609,-701,-446
-296,257,552,19,-424,404,10,-417,-394,-618,-700,-431
-331,373,704,-21,-518,539,10,-424,-375,-571,-691,-430
-369,408,777,-20,-573,593,10,-408,-319,-496,-649,-419
-367,450,816,-42,-592,633,10,-390,-253,-398,-607,-417
-346,496,842,-75,-594,669,10,-341,-133,-230,-500,-375
-318,504,822,-93,-570,663,10,-278,5,-44,-358,-313
-288,509,797,-111,-543,653,10,-182,145,148,-200,-239
-234,481,715,-124,-475,598,11,-79,276,319,-27,-140
-177,432,609,-128,-393,520,9,-4,337,401,114,-47
-125,365,491,-120,-308,427,5,54,342,400,200,28
-65,280,345,-107,-205,312,5,90,311,369,219,67
-13,226,239,-107,-126,232,3,96,251,304,203,64
9,169,160,-89,-76,164,-1,85,187,212,138,44
1,114,113,-58,-56,113,0,74,133,140,66,21
-11,77,88,-33,-50,82,3,62,101,100,26,9
-5,58,63,-27,-34,60,8,55,84,73,12,-8
8,51,43,-30,-18,47,11,52,72,57,6,-37
7,38,31,-23,-12,35,14,48,63,43,-4,-41
-5,21,26,-8,-16,24,19,45,52,32,-17,-39
-3,16,18,-7,-11,17,19,41,44,25,-31,-41
9,21,13,-15,-2,17,15,38,39,15,-29,-39
0,5,5,-3,-3,5,15,35,34,6,-31,-40
-5,-3,2,4,-3,-1,15,32,28,0,-35,-40
-5,-7,-2,6,-1,-4,15,29,22,1,-34,-40
-9,-14,-5,12,-2,-10,14,26,18,-1,-35,-43
-13,-22,-9,18,-2,-15,22,24,14,-5,-34,-50
-30,-44,-14,37,-8,-28,33,21,12,-5,-35,-50
-37,-51,-14,44,-12,-32,30,20,9,-8,-35,-51
-17,-50,-33,34,8,-41,27,20,6,-11,-35,-55
-12,-55,-43,34,16,-49,25,20,4,-10,-46,-55
-19,-55,-36,37,9,-45,21,20,1,-14,-51,-55
-16,-52,-36,35,10,-44,20,18,-2,-16,-53,-55
-18,-49,-31,33,7,-40,17,12,-5,-14,-56,-55
-22,-51,-30,36,4,-40,15,7,-8,-27,-59,-55
-15,-49,-34,32,10,-41,15,4,-10,-43,-60,-55
-17,-51,-34,34,9,-42,15,-2,-10,-45,-59,-54
-19,-49,-30,34,5,-39,15,-5,-10,-45,-66,-51
-2,-32,-30,17,15,-31,14,0,-10,-45,-59,-48
-19,-49,-30,34,6,-39,10,0,-10,-45,-63,-45
-33,-63,-30,48,-2,-47,10,0,-10,-45,-71,-42
-28,-58,-30,43,1,-44,10,0,-10,-40,-64,-39
-35,-61,-27,48,-4,-44,10,-1,-15,-40,-62,-44
-35,-59,-24,48,-5,-41,10,3,-15,-40,-57,-45
-35,-60,-25,48,-5,-42,10,5,-15,-40,-54,-45
-30,-55,-25,43,-2,-40,10,5,-15,-40,-50,-43
-30,-55,-25,43,-2,-40,10,5,-15,-42,-50,-39
-28,-54,-26,41,-1,-40,10,5,-15,-45,-49,-40
-24,-49,-25,37,0,-37,10,5,-15,-45,-45,-36
-25,-51,-26,38,1,-38,10,0,-15,-45,-45,-35
-25,-47,-22,37,-1,-34,10,0,-15,-45,-45,-35
-23,-45,-22,34,0,-33,10,-1,-15,-44,-45,-35
-24,-42,-17,33,-3,-29,10,-5,-15,-41,-45,-35
-16,-39,-23,28,3,-31,10,-4,-15,-36,-45,-36
-19,-36,-17,27,-1,-26,10,-8,-15,-33,-45,-40
-11,-34,-23,23,6,-28,10,-10,-15,-30,-58,-40
-1,-31,-30,16,15,-31,10,-10,-15,-25,-60,-40
-38,-25,13,32,-26,-6,10,-5,-16,-29,-54,-40
-22,-33,-11,28,-5,-22,10,3,-12,-30,-52,-40
-5,-40,-35,23,15,-38,10,7,-7,-23,-47,-37
-17,-31,-14,24,-1,-22,9,13,-1,-20,-45,-32
-14,-28,-14,21,0,-21,2,16,5,-15,-41,-30
-17,-13,4,15,-10,-4,-4,22,10,-11,-32,-25
-7,18,25,-6,-16,21,-11,25,18,-4,-26,-21
-14,26,40,-6,-28,33,-18,18,24,2,-19,-19
-4,53,57,-24,-31,55,-22,7,32,11,-12,-13
14,72,58,-43,-22,65,-37,-3,29,12,-9,-9
24,60,36,-42,-6,48,-45,-23,1,-8,-4,-3
40,47,7,-43,16,27,-52,-42,-31,-34,-25,-2
40,35,-5,-37,22,14,-58,-40,-45,-45,-31,8
23,10,-13,-16,18,-2,-39,-33,-46,-52,-39,-8
-11,-31,-19,21,5,-25,-17,-29,-40,-75,-61,-31
-21,-45,-24,33,2,-34,-1,-22,-40,-77,-55,-35
-9,-54,-45,32,18,-49,6,-18,-36,-86,-67,-37
-16,-59,-43,38,14,-51,9,-11,-33,-72,-49,-29
-37,-64,-27,51,-5,-45,17,-4,-39,-90,-81,-51
-42,-54,-13,48,-14,-33,20,7,-29,-70,-92,-48
-40,-51,-11,46,-14,-31,28,11,-32,-69,-116,-69
-60,31,91,14,-75,61,75,121,156,61,-96,-105
-32,139,171,-53,-102,155,113,370,457,454,174,16
351,275,-77,-313,214,99,-74,397,577,940,1256,1044
844,310,-534,-577,689,-111,-394,-56,67,1233,2531,2029
597,-142,-739,-227,668,-441,-382,-650,-988,29,1216,953
67,-473,-539,203,303,-506,-158,-854,-1335,-1273,-810,-289
-34,-341,-307,188,136,-323,-87,-627,-902,-936,-748,-299
-46,-156,-111,101,33,-133,-48,-242,-376,-392,-351,-200
-68,-75,-7,72,-30,-41,27,-28,-79,-181,-248,-146
-68,-51,17,59,-42,-17,41,1,-36,-149,-193,-127
-91,-9,82,49,-86,37,39,25,0,-157,-194,-122
-81,14,95,33,-88,54,41,30,0,-113,-165,-109
-68,22,91,23,-80,56,39,39,15,-87,-155,-108
-62,18,80,22,-71,49,41,51,58,-19,-115,-93
-57,13,70,22,-63,41,38,78,110,36,-75,-80
-44,9,53,17,-49,31,44,111,152,100,-15,-58
-29,5,34,12,-32,19,50,143,198,157,32,-46
-41,-14,28,27,-34,7,42,170,243,216,80,-21
-35,-16,19,26,-27,1,36,190,265,261,101,1
-9,1,10,3,-10,6,29,186,283,298,159,36
6,12,7,-9,-1,9,23,179,261,318,162,67
18,28,10,-23,4,19,16,168,262,292,169,62
27,34,7,-31,10,20,5,149,210,245,138,52
36,36,0,-37,18,18,-8,125,184,186,104,43
21,32,11,-27,5,21,-17,66,109,117,56,31
27,57,31,-42,-2,44,-24,62,89,48,-11,26
39,76,37,-58,0,57,-35,-13,19,13,-3,23
19,73,55,-46,-18,64,-36,35,-59,-23,-92,21
12,64,52,-38,-20,58,-71,-26,264,-63,98,16
15,51,36,-33,-11,44,-136,30,15,-63,-578,17
6,30,24,-19,-9,27,-172,9,-307,-55,-950,5
-10,-7,3,8,-7,-2,-149,-219,-84,-53,-201,-47
