I,II,III,aVR,aVL,aVF,V1,V2,V3,V4,V5,V6
-29,78,107,-25,-68,92,105,219,148,-644,209,323
-32,87,119,-28,-76,103,117,215,167,-648,223,347
-55,95,151,-20,-104,123,124,215,147,-717,250,380
-37,62,99,-12,-69,80,133,229,131,-657,232,331
-23,74,98,-26,-61,86,138,236,168,-611,223,325
-62,47,109,8,-86,78,113,228,160,-580,213,342
-58,48,106,5,-82,77,146,228,157,-606,206,356
-35,97,132,-31,-83,114,157,221,149,-631,204,347
-23,79,102,-28,-63,90,145,221,140,-577,196,325
-30,72,102,-21,-66,86,145,238,179,-522,196,343
-33,71,104,-19,-69,87,138,237,169,-539,186,309
-37,68,105,-16,-71,86,135,228,161,-534,178,316
-34,86,120,-26,-77,103,140,224,171,-515,186,315
-22,84,107,-31,-65,95,159,214,165,-471,176,316
-57,72,129,-8,-94,100,148,212,180,-510,171,340
-62,63,125,-1,-94,94,148,224,178,-517,163,309
-44,76,119,-16,-82,97,161,225,169,-439,159,328
-41,86,126,-23,-84,106,158,225,173,-425,146,329
-48,79,127,-16,-88,102,161,224,156,-459,116,306
-59,70,129,-5,-94,99,159,230,175,-424,132,327
-52,85,136,-17,-94,110,169,252,199,-376,133,321
-38,116,153,-40,-96,134,188,252,196,-388,122,304
-33,134,167,-51,-100,150,176,238,218,-299,148,348
-47,119,166,-36,-107,142,147,224,190,-314,131,329
-38,110,147,-36,-93,128,130,206,165,-349,113,297
-45,102,147,-29,-96,124,113,205,175,-336,119,305
-43,67,109,-12,-76,88,110,202,160,-338,103,288
-13,54,67,-20,-40,60,108,197,155,-312,93,287
-28,44,72,-8,-50,58,112,199,150,-316,83,276
-37,32,69,2,-53,50,127,189,135,-299,73,270
-50,30,79,10,-65,54,142,207,156,-293,68,254
-76,19,95,28,-85,57,127,191,132,-296,52,224
-68,16,84,26,-76,50,136,213,154,-288,38,226
-88,2,91,42,-89,46,125,196,151,-302,20,211
-91,-15,76,53,-83,31,157,217,164,-238,4,216
-51,37,87,7,-69,62,208,290,284,-140,23,241
21,84,63,-52,-22,73,222,449,565,184,110,413
127,209,81,-168,23,145,464,870,1184,704,279,703
18,333,315,-176,-148,323,240,318,620,216,257,494
-240,82,321,79,-280,201,-381,-751,-870,-947,-42,-82
-312,-178,133,245,-222,-22,-607,-944,-1306,-1376,-229,-340
-207,-113,94,160,-150,-9,-562,-698,-957,-1101,-172,-221
-135,-27,108,80,-121,40,-263,-291,-417,-674,-79,-16
-100,-11,90,55,-95,39,-24,-13,-72,-431,-40,59
-59,5,64,26,-62,34,60,69,15,-353,-34,67
-52,31,83,11,-68,57,109,109,77,-335,-39,77
-45,32,76,6,-61,54,97,101,82,-334,-43,69
-57,21,78,18,-67,49,126,108,84,-334,-40,68
-80,17,97,31,-89,57,129,103,75,-344,-44,59
-82,10,91,36,-87,50,108,106,72,-354,-64,34
-81,9,90,36,-85,49,103,105,65,-371,-66,17
-81,5,85,37,-84,45,97,98,60,-385,-61,8
-78,3,81,38,-80,42,94,88,68,-400,-60,-3
-82,-1,81,41,-81,40,88,77,56,-413,-55,-13
-82,3,85,39,-84,44,85,67,38,-427,-56,-21
-76,13,89,31,-82,51,74,54,24,-446,-59,-29
-63,27,90,18,-77,59,56,42,-1,-454,-64,-29
-55,35,90,10,-73,62,42,24,-22,-463,-63,-34
-55,35,90,10,-73,61,28,-1,-40,-480,-55,-40
-52,39,91,6,-71,65,6,-23,-67,-490,-50,-32
-49,39,88,5,-68,63,-14,-46,-102,-509,-32,-27
-40,46,86,-4,-63,66,-37,-76,-137,-531,-8,-22
-28,55,83,-14,-56,69,-75,-112,-190,-557,-3,-16
-23,72,95,-25,-59,83,-105,-153,-241,-588,1,-11
-28,83,112,-28,-70,97,-131,-191,-287,-615,7,-14
-32,77,109,-22,-71,93,-163,-225,-355,-653,9,-24
-12,95,107,-41,-60,101,-171,-254,-389,-678,30,-27
3,107,103,-56,-50,105,-160,-270,-424,-701,34,-38
-20,94,113,-38,-67,103,-153,-266,-450,-722,23,-43
-39,83,122,-22,-81,102,-144,-254,-443,-723,11,-50
-46,71,117,-13,-81,93,-133,-246,-440,-719,-6,-76
-60,55,115,2,-88,85,-111,-228,-399,-713,-23,-92
-73,38,111,17,-92,75,-70,-196,-356,-703,-55,-104
-80,30,110,25,-95,70,-31,-155,-310,-665,-62,-105
-77,30,107,23,-92,68,11,-123,-247,-626,-67,-108
-72,29,101,21,-86,65,47,-85,-189,-594,-76,-111
-73,24,97,24,-85,60,59,-36,-138,-555,-67,-103
-66,26,92,20,-80,59,79,-1,-95,-527,-65,-98
-66,21,88,22,-77,54,91,20,-54,-498,-60,-92
-65,18,84,23,-75,51,90,48,-21,-461,-55,-87
-44,34,78,5,-61,56,91,65,5,-437,-51,-81
-40,32,72,4,-56,52,87,74,28,-425,-50,-74
-42,26,67,8,-55,46,85,91,41,-411,-50,-68
-38,23,61,7,-50,42,81,95,56,-394,-50,-60
-39,17,56,11,-48,36,79,103,72,-382,-50,-55
-37,14,51,12,-45,32,77,106,76,-373,-52,-55
-40,10,49,15,-45,30,74,104,75,-362,-60,-55
-40,10,50,15,-45,30,77,106,76,-352,-60,-55
-39,10,49,15,-44,30,73,104,75,-346,-60,-55
-41,10,51,16,-46,30,82,106,76,-341,-60,-54
-38,10,48,14,-43,29,100,97,79,-335,-62,-58
-39,6,45,16,-42,25,104,100,85,-330,-65,-60
-40,5,45,17,-43,25,105,119,83,-324,-65,-67
-40,5,45,17,-43,25,105,121,80,-320,-70,-75
-45,0,45,22,-45,22,115,119,80,-318,-78,-79
-45,0,45,22,-45,22,122,121,81,-315,-85,-80
-51,-1,50,26,-50,24,127,119,89,-312,-84,-80
-65,-12,52,38,-58,20,134,122,91,-310,-88,-86
-74,-25,49,49,-61,12,135,125,90,-307,-93,-92
-78,-27,51,52,-64,11,143,125,90,-298,-89,-94
-68,-18,50,43,-59,15,149,128,90,-289,-87,-90
-63,-13,50,38,-56,18,150,130,90,-282,-84,-82
-56,-6,50,31,-53,22,151,129,98,-270,-81,-76
-50,1,51,24,-50,26,156,132,100,-259,-79,-69
-73,7,79,33,-77,43,173,145,112,-243,-75,-62
-64,40,104,12,-84,72,193,161,138,-218,-71,-62
-56,63,119,-4,-87,90,200,153,131,-203,-68,-67
-72,54,126,9,-99,90,189,142,117,-206,-65,-70
-64,50,114,7,-90,82,164,133,109,-221,-60,-65
-53,43,96,5,-75,69,141,121,97,-234,-62,-67
-33,18,51,7,-42,34,136,122,97,-243,-80,-88
-34,-7,27,20,-30,10,131,114,85,-254,-86,-97
-42,-18,24,30,-33,3,132,118,87,-246,-84,-93
-48,-29,19,38,-33,-5,124,107,74,-250,-96,-96
-52,-40,12,46,-32,-14,126,113,75,-242,-103,-106
-52,-45,7,48,-30,-18,128,114,68,-246,-119,-126
-62,-56,7,59,-34,-24,129,113,60,-240,-127,-125
-62,-45,16,53,-39,-14,140,121,68,-224,-122,-126
-73,-49,24,61,-48,-12,133,102,37,-236,-128,-136
-76,-58,18,67,-47,-20,162,148,103,-189,-121,-112
-54,-39,15,47,-34,-12,175,189,195,-83,-98,-67
59,72,13,-65,22,43,331,553,801,524,73,245
129,330,201,-230,-37,265,175,427,860,683,263,446
-64,203,267,-70,-165,234,-478,-622,-647,-544,57,-67
-231,-253,-22,242,-105,-137,-810,-1087,-1590,-1423,-273,-588
-189,-266,-77,228,-55,-172,-732,-876,-1295,-1224,-285,-550
-130,-88,42,108,-85,-23,-400,-472,-669,-707,-158,-303
-112,-64,48,88,-80,-8,-95,-133,-233,-374,-124,-171
-95,-49,47,72,-71,-1,6,-29,-100,-282,-123,-141
-88,-49,39,68,-63,-5,70,36,-17,-217,-113,-126
-85,-50,35,68,-60,-8,83,44,0,-196,-108,-122
-78,-50,29,64,-53,-10,92,60,13,-183,-101,-114
-75,-51,24,62,-50,-13,93,60,15,-172,-104,-108
-75,-50,26,62,-51,-11,88,60,6,-167,-105,-100
-74,-49,24,61,-49,-12,86,76,3,-158,-107,-107
-70,-45,25,57,-47,-10,81,68,-5,-153,-111,-116
-79,-43,36,61,-57,-4,77,63,-8,-145,-108,-111
-81,-39,41,60,-61,1,75,56,-13,-140,-101,-106
-76,-37,39,56,-57,1,81,49,-17,-135,-93,-101
-75,-34,40,54,-57,2,73,38,-21,-135,-85,-97
-75,-35,40,55,-57,2,63,26,-27,-133,-77,-92
-82,-42,40,62,-61,-1,56,15,-43,-130,-70,-89
-71,-36,35,53,-53,-1,45,2,-47,-129,-62,-80
-57,-21,36,38,-46,7,29,-14,-68,-134,-53,-70
-46,-13,33,29,-40,10,7,-29,-94,-140,-33,-60
-30,10,40,10,-35,25,-11,-43,-102,-140,-12,-50
-19,35,54,-8,-36,44,-25,-71,-133,-140,-3,-40
-7,48,54,-21,-31,51,-53,-105,-167,-140,17,-29
2,68,66,-36,-32,67,-75,-127,-201,-139,40,-25
7,83,76,-45,-35,79,-94,-150,-239,-144,41,-24
6,80,74,-43,-34,76,-111,-178,-281,-165,38,-22
1,73,71,-37,-35,72,-122,-197,-321,-187,33,-17
-7,60,68,-27,-38,64,-122,-211,-341,-204,26,-28
-9,56,66,-24,-38,60,-111,-211,-350,-214,22,-44
-31,33,64,-1,-47,48,-104,-207,-345,-217,13,-59
-55,0,55,28,-55,27,-88,-199,-336,-214,3,-77
-54,-9,45,31,-49,17,-63,-178,-332,-201,-15,-88
-69,-33,36,51,-52,2,-43,-148,-301,-189,-37,-110
-73,-43,30,58,-51,-6,-27,-117,-260,-174,-52,-121
-71,-46,25,58,-47,-11,-7,-98,-226,-152,-58,-125
-70,-50,20,60,-45,-15,12,-71,-183,-122,-51,-119
-51,-39,12,45,-31,-13,28,-40,-132,-80,-46,-106
-49,-35,14,42,-31,-10,45,-14,-86,-41,-41,-98
-56,-27,29,42,-43,1,56,13,-45,-7,-35,-90
-52,-21,30,36,-41,4,65,31,-5,20,-30,-79
-49,-20,30,35,-40,5,70,50,29,51,-26,-53
-50,-20,30,35,-40,5,80,74,55,81,-23,-39
-50,-20,30,35,-40,5,86,86,69,95,-20,-41
-49,-20,29,34,-39,4,90,93,86,110,-17,-38
-42,-20,22,31,-32,1,89,104,96,126,-15,-36
-37,-21,16,29,-27,-2,94,105,98,131,-14,-34
-34,-25,9,29,-21,-8,110,105,106,130,-19,-39
-28,-25,3,26,-15,-11,110,105,102,128,-26,-46
-19,-25,-5,22,-7,-15,111,105,98,125,-22,-45
-32,-29,3,30,-17,-13,115,105,95,125,-18,-45
-48,-30,18,39,-33,-6,115,100,89,133,-15,-45
-42,-29,13,35,-27,-8,113,100,96,136,-9,-45
-31,-24,7,27,-19,-8,109,100,101,131,-14,-47
-28,-26,3,27,-15,-11,111,100,97,129,-26,-52
-28,-33,-4,31,-12,-18,106,100,95,126,-26,-54
-28,-37,-8,32,-9,-22,105,100,91,125,-24,-61
-37,-47,-11,42,-13,-29,105,100,90,132,-25,-66
-41,-51,-10,46,-16,-31,100,101,94,135,-25,-62
-48,-49,-2,48,-23,-25,103,110,99,134,-24,-60
-45,-46,-1,46,-22,-24,106,110,101,136,-30,-56
-37,-45,-8,41,-14,-26,105,105,99,133,-36,-55
-32,-43,-11,38,-10,-27,104,104,106,144,-34,-50
-38,-55,-17,47,-10,-36,100,99,111,156,-35,-55
-52,-72,-20,62,-16,-46,99,101,105,155,-35,-66
-50,-70,-20,60,-15,-45,103,105,103,150,-36,-61
-49,-68,-20,58,-14,-44,105,105,98,153,-31,-59
-45,-65,-20,55,-12,-42,106,105,95,165,-27,-55
-44,-64,-20,54,-12,-41,111,105,99,165,-22,-51
-47,-68,-21,58,-13,-44,109,105,100,168,-21,-48
-53,-70,-17,62,-18,-43,105,101,101,171,-42,-44
-55,-70,-15,63,-20,-42,104,99,105,167,-41,-45
-58,-73,-15,66,-21,-44,100,100,101,165,-30,-45
-64,-76,-11,70,-26,-43,100,99,99,165,-24,-45
-64,-74,-10,69,-27,-41,100,101,101,177,-15,-45
-61,-71,-10,66,-26,-40,100,98,99,181,-15,-45
-45,-66,-22,56,-11,-44,100,95,101,179,-15,-45
-37,-64,-26,51,-5,-45,100,95,98,177,-15,-45
-40,-60,-20,50,-10,-40,109,95,95,174,-15,-45
-39,-55,-15,47,-12,-35,109,95,93,176,-14,-45
-48,-60,-12,54,-17,-36,104,95,89,174,-19,-43
-61,-66,-5,64,-27,-35,102,100,100,175,-20,-38
-57,-65,-7,61,-24,-36,97,101,106,174,-20,-35
-51,-65,-14,58,-18,-39,95,100,104,178,-18,-32
-57,-65,-8,62,-24,-36,99,100,103,185,-15,-27
-38,-65,-27,52,-5,-45,104,100,99,185,-15,-25
-25,-62,-37,44,6,-50,103,100,100,188,-11,-25
-29,-56,-27,43,-1,-41,99,96,103,190,-9,-25
-32,-57,-25,45,-3,-41,100,95,105,190,-10,-25
-49,-66,-17,57,-15,-41,100,94,105,190,-10,-25
-51,-64,-13,58,-19,-38,100,91,105,190,-10,-24
-47,-56,-9,52,-18,-33,99,89,109,190,-10,-28
-45,-55,-10,50,-17,-32,95,92,110,190,-10,-33
-38,-47,-10,43,-14,-29,95,95,110,190,-18,-31
-36,-46,-10,41,-12,-28,94,95,110,194,-21,-28
-39,-62,-23,51,-8,-43,89,95,110,196,-15,-25
-40,-66,-25,54,-7,-46,90,95,110,193,-13,-22
-40,-65,-25,53,-7,-45,90,95,116,200,-8,-20
-44,-70,-25,58,-9,-47,90,91,122,202,-5,-20
-46,-70,-24,59,-11,-47,91,90,125,209,-13,-28
-43,-68,-26,56,-8,-47,88,89,127,198,-9,-25
-51,-64,-13,58,-19,-38,100,92,132,208,3,-13
-47,-41,6,44,-26,-18,112,110,145,242,13,-8
-33,-1,33,17,-33,16,132,123,173,277,27,17
-31,24,54,3,-43,39,151,135,200,307,39,36
-23,26,49,-2,-36,37,157,143,208,303,51,36
-9,17,26,-4,-18,22,137,129,203,325,55,55
9,8,-1,-9,5,3,85,105,176,291,52,52
8,-20,-28,6,18,-24,75,94,148,254,46,38
0,-53,-53,27,27,-53,75,71,124,242,41,28
0,-54,-54,27,27,-54,75,76,126,223,35,17
-10,-56,-46,33,19,-51,75,80,119,246,30,8
-9,-53,-44,31,18,-49,74,79,115,250,24,0
-21,-59,-38,40,9,-48,74,82,118,247,18,-10
-36,-70,-34,53,0,-52,66,68,101,245,10,-15
-27,-57,-30,42,2,-44,91,86,120,259,4,-6
-50,-88,-38,69,-6,-63,66,62,78,236,-2,-12
-60,-108,-48,85,-6,-78,105,120,147,268,-10,3
-39,-57,-17,48,-11,-37,115,133,180,308,11,21
79,74,-5,-76,41,34,233,472,714,835,183,324
216,322,105,-269,55,214,197,594,1091,1251,419,643
60,277,217,-168,-79,247,-449,-448,-246,214,304,230
-177,-135,42,156,-110,-47,-809,-1103,-1371,-799,-68,-351
-183,-238,-56,211,-63,-147,-757,-930,-1233,-780,-172,-414
-89,-102,-13,96,-38,-57,-542,-570,-710,-344,-45,-185
-57,-80,-23,69,-17,-51,-200,-214,-263,-18,8,-83
-50,-68,-18,59,-16,-43,-56,-84,-113,99,25,-53
-26,-70,-44,48,9,-56,-9,-4,-40,189,21,21
-25,-63,-38,44,7,-50,4,1,-30,148,18,8
-28,-61,-34,45,3,-47,14,4,-26,192,55,13
-22,-57,-35,40,7,-46,29,11,-29,239,50,15
-23,-36,-12,30,-5,-24,11,7,-32,192,39,-9
-27,-78,-51,53,12,-64,-11,8,-53,189,37,-20
-29,-79,-50,54,11,-64,-2,-1,-54,173,33,-25
-24,-32,-9,28,-7,-20,5,-3,-39,170,39,-3
-14,-39,-24,27,5,-31,-3,-8,-48,189,51,24
-37,-73,-36,56,-1,-54,-8,-14,-57,129,49,11
-16,-51,-35,33,10,-43,-5,-31,-49,192,55,4
-5,-33,-28,19,12,-30,-37,-50,-76,171,66,24
-22,-45,-23,34,1,-34,-46,-60,-114,89,61,-3
-6,-22,-16,15,5,-19,-26,-66,-90,182,81,18
-36,-37,-1,37,-17,-19,-62,-84,-104,139,100,52
-27,-17,10,21,-18,-3,-64,-97,-108,150,114,47
-9,27,36,-9,-23,31,-86,-118,-138,166,136,72
-13,30,43,-9,-28,36,-119,-147,-186,130,135,77
1,29,29,-15,-14,29,-129,-178,-222,114,134,72
24,44,20,-34,2,32,-154,-202,-259,94,150,85
37,63,26,-51,6,44,-179,-237,-286,133,173,93
39,58,19,-49,10,38,-222,-281,-354,63,184,73
42,64,22,-53,10,43,-227,-297,-403,31,177,66
18,80,62,-49,-22,71,-236,-330,-417,35,171,93
22,83,61,-52,-20,71,-235,-345,-430,-11,163,97
2,49,47,-25,-23,48,-207,-334,-442,11,164,89
2,29,27,-15,-13,27,-204,-327,-439,54,143,60
17,28,11,-23,3,19,-187,-307,-443,42,120,33
-55,-5,50,30,-52,22,-168,-278,-412,28,129,35
-46,-26,20,36,-33,-3,-145,-245,-349,100,110,20
-34,-51,-17,43,-8,-34,-106,-215,-314,144,92,11
-73,-61,12,67,-42,-24,-83,-181,-276,133,89,30
-30,-46,-16,38,-7,-31,-75,-139,-236,176,82,31
-9,-44,-35,27,14,-40,-62,-102,-192,198,78,3
-13,-36,-23,25,5,-29,-55,-69,-139,229,73,40
-27,-34,-7,31,-10,-20,-30,-41,-91,252,69,45
-43,-43,0,43,-21,-21,6,-8,-41,291,63,35
-26,-44,-18,36,-4,-31,-1,16,-2,330,71,74
-14,-31,-17,23,1,-23,-18,40,34,341,87,63
4,-15,-20,6,12,-18,-15,62,82,393,84,107
-24,-22,3,23,-13,-9,-6,68,109,402,85,150
-45,-23,22,34,-33,0,-2,84,121,426,96,127
-18,-5,12,11,-15,3,-1,93,147,482,83,118
3,11,8,-7,-3,10,13,88,158,457,74,105
21,1,-20,-11,21,-9,21,92,157,421,75,82
14,-17,-31,1,23,-24,29,108,152,503,76,119
33,3,-30,-18,31,-14,46,117,142,501,69,131
40,13,-27,-26,33,-7,44,121,173,505,35,122
-1,-11,-10,7,4,-11,39,120,194,537,19,132
-12,-13,-2,12,-5,-7,39,109,189,479,19,112
-1,-3,-2,2,1,-2,34,105,156,431,32,100
1,-17,-18,8,10,-17,37,94,156,482,38,103
-10,-7,3,8,-7,-2,57,93,170,553,15,129
-10,-12,-2,11,-4,-7,63,126,153,469,11,88
-3,-39,-35,21,16,-37,54,138,180,455,14,89
0,-28,-28,14,14,-28,46,131,175,518,6,126
10,-20,-31,5,21,-25,41,130,173,537,-6,112
-4,-34,-30,19,13,-32,29,127,189,483,-28,118
-22,-48,-26,35,3,-37,52,121,182,494,-40,101
-36,-45,-9,41,-13,-26,75,117,174,555,-40,101
-28,-44,-16,37,-6,-30,50,112,173,530,-40,106
-7,-41,-34,24,14,-37,60,107,176,532,-40,99
-19,-39,-20,29,0,-29,67,104,174,520,-39,99
-11,-42,-32,27,11,-37,61,94,176,535,-43,93
-18,-44,-26,32,4,-35,59,105,174,534,-57,90
-32,-46,-14,39,-8,-30,56,118,179,522,-52,86
-16,-44,-28,30,7,-36,55,114,182,552,-51,84
-29,-51,-22,40,-3,-37,45,115,180,552,-73,85
-36,-56,-20,46,-7,-38,67,115,177,545,-82,84
-34,-52,-18,43,-8,-35,78,114,174,540,-78,86
-37,-50,-13,44,-12,-31,73,121,196,562,-81,84
-20,-46,-26,34,4,-36,72,126,212,571,-84,76
-8,-45,-37,27,15,-41,69,122,208,559,-83,68
-7,-42,-35,25,14,-38,70,120,211,555,-101,60
-6,-39,-33,23,13,-36,71,116,209,546,-108,52
-14,-43,-30,29,8,-36,80,115,211,542,-114,44
-22,-51,-30,37,4,-40,80,111,206,535,-131,31
-17,-48,-31,33,7,-40,80,110,205,529,-129,20
-18,-44,-26,31,5,-35,80,109,228,521,-131,12
-18,-52,-33,35,8,-42,80,110,236,517,-136,5
-24,-53,-29,39,3,-41,80,110,235,507,-134,0
-30,-40,-10,35,-10,-25,90,112,235,507,-138,-9
-4,-14,-10,9,3,-12,120,140,258,518,-139,-11
-2,-14,-12,8,5,-12,122,158,276,513,-142,-21
-8,-26,-18,18,5,-22,109,145,260,500,-144,-38
-2,-51,-49,27,23,-50,80,102,224,440,-146,-63
2,-67,-68,33,35,-67,51,70,185,385,-151,-82
10,-52,-62,21,37,-57,57,60,173,366,-163,-89
-2,-77,-75,40,37,-76,53,52,163,348,-174,-122
-5,-90,-85,48,40,-87,57,68,163,343,-185,-131
-16,-87,-71,52,28,-79,53,61,148,304,-200,-129
-29,-98,-70,64,21,-84,57,69,151,289,-199,-136
-32,-96,-64,65,16,-80,60,62,136,273,-213,-155
-33,-96,-63,65,15,-79,58,66,151,271,-216,-153
-37,-94,-57,66,10,-75,67,66,157,260,-213,-151
-41,-96,-55,69,7,-75,69,55,144,244,-211,-143
-31,-93,-63,62,16,-77,122,128,239,274,-208,-143
-22,-71,-50,47,14,-60,121,181,356,418,-170,-85
98,82,-16,-90,56,33,279,554,986,1037,19,277
135,314,179,-225,-22,246,199,395,912,986,139,354
-83,157,241,-37,-162,199,-387,-593,-522,-192,-82,-181
-214,-210,4,212,-109,-103,-674,-952,-1235,-874,-363,-592
-172,-254,-82,213,-44,-168,-644,-767,-1010,-735,-374,-563
-78,-142,-64,110,-7,-103,-402,-437,-516,-314,-282,-344
-6,-80,-74,43,35,-77,-121,-139,-101,-21,-235,-211
-21,-88,-67,55,23,-77,-30,-51,4,63,-204,-184
-38,-110,-72,74,18,-91,26,7,73,111,-206,-174
-32,-101,-69,67,19,-84,29,17,82,112,-204,-173
-33,-103,-70,68,19,-87,30,25,81,121,-200,-169
-27,-97,-70,62,22,-83,36,23,78,127,-201,-166
-26,-96,-69,61,22,-82,32,15,69,122,-198,-165
-24,-95,-71,59,24,-82,29,13,70,118,-204,-161
-26,-95,-69,60,22,-81,23,5,61,113,-205,-160
-35,-107,-72,71,19,-89,19,1,60,109,-201,-158
-24,-107,-83,66,30,-95,14,-5,50,104,-199,-153
-13,-98,-86,56,37,-92,8,-12,40,98,-196,-160
-8,-93,-84,51,38,-88,-3,-23,31,87,-195,-171
0,-85,-85,43,43,-85,-13,-32,17,78,-188,-169
5,-80,-85,38,45,-82,-21,-43,3,67,-177,-170
9,-75,-84,34,46,-79,-34,-54,-11,57,-167,-170
10,-70,-80,30,45,-75,-53,-75,-37,50,-154,-170
11,-67,-78,28,44,-72,-69,-99,-61,41,-143,-166
13,-61,-75,25,44,-68,-90,-122,-90,24,-132,-148
18,-53,-71,18,45,-62,-128,-157,-134,-1,-123,-143
25,-44,-70,10,48,-57,-160,-193,-189,-26,-109,-146
30,-36,-66,3,49,-51,-187,-230,-250,-60,-87,-144
29,-30,-59,1,44,-45,-210,-269,-300,-93,-79,-146
28,-28,-56,0,42,-42,-226,-302,-349,-116,-81,-143
25,-24,-49,0,37,-36,-252,-335,-402,-151,-79,-150
24,-20,-44,-2,34,-32,-255,-355,-440,-180,-81,-159
15,-24,-39,5,27,-31,-242,-350,-456,-191,-79,-162
3,-29,-32,14,17,-30,-237,-344,-454,-190,-79,-176
-5,-50,-45,28,20,-48,-222,-338,-430,-186,-87,-185
-11,-62,-52,37,21,-57,-192,-310,-388,-179,-92,-195
-17,-66,-49,41,16,-57,-155,-274,-341,-155,-105,-196
-29,-80,-51,54,11,-65,-115,-238,-299,-134,-119,-194
-30,-80,-50,55,10,-65,-81,-200,-244,-101,-124,-195
-30,-80,-50,55,10,-65,-50,-160,-183,-60,-126,-195
-35,-80,-45,58,5,-62,-23,-121,-124,-24,-122,-194
-35,-80,-45,58,5,-62,-9,-98,-80,7,-116,-185
-34,-80,-46,58,6,-62,2,-72,-41,35,-109,-175
-31,-75,-43,54,6,-59,17,-38,2,61,-102,-165
-22,-76,-54,49,16,-64,21,-18,23,79,-96,-153
-7,-73,-67,41,30,-70,20,-2,60,115,-89,-138
-3,-70,-67,37,32,-68,19,17,86,130,-86,-126
-5,-70,-65,38,30,-67,15,33,110,146,-83,-125
3,-69,-72,34,37,-70,15,41,134,169,-80,-128
5,-71,-76,33,40,-73,18,40,128,163,-78,-124
1,-69,-70,34,36,-69,20,40,135,171,-74,-119
-4,-72,-68,38,32,-70,20,44,140,178,-78,-114
-3,-66,-64,35,31,-65,25,52,140,174,-80,-110
-10,-69,-59,39,25,-64,25,55,141,171,-75,-105
-19,-86,-67,52,25,-76,27,56,139,167,-76,-110
-9,-80,-71,44,31,-75,35,59,141,164,-73,-126
-3,-75,-72,39,35,-73,29,60,139,159,-84,-131
9,-72,-81,32,45,-76,39,63,148,165,-96,-130
14,-66,-80,26,48,-73,58,66,156,173,-94,-130
13,-66,-79,27,46,-73,60,69,159,170,-95,-130
1,-75,-75,37,38,-75,68,72,164,170,-95,-130
-10,-85,-75,48,33,-80,75,75,165,170,-95,-130
-6,-80,-74,44,34,-77,75,75,166,170,-92,-128
-10,-80,-69,45,29,-75,74,75,170,170,-88,-125
-9,-79,-70,44,31,-75,79,75,172,174,-86,-125
-5,-74,-70,40,33,-72,86,75,175,174,-83,-123
-5,-75,-70,40,33,-72,85,75,175,169,-81,-119
-8,-78,-70,43,31,-74,84,75,175,171,-78,-120
-8,-81,-73,45,33,-77,80,75,175,167,-75,-128
-2,-79,-77,41,37,-78,79,76,174,165,-75,-131
-4,-81,-77,43,36,-78,83,80,176,165,-75,-129
-6,-80,-74,43,34,-76,85,80,173,169,-75,-130
-9,-80,-71,44,31,-75,85,82,171,169,-75,-130
-23,-92,-69,58,23,-80,85,86,167,164,-83,-129
-28,-92,-64,61,18,-78,85,85,165,166,-84,-126
-22,-89,-67,56,22,-78,80,82,161,162,-76,-123
-22,-90,-68,56,23,-79,80,79,159,160,-75,-120
-24,-90,-65,58,21,-77,80,80,174,160,-68,-117
-28,-90,-62,59,17,-76,80,80,182,169,-66,-115
-30,-90,-60,60,15,-75,80,80,179,177,-75,-112
-31,-88,-57,60,13,-72,83,81,180,173,-70,-110
-30,-84,-53,58,12,-68,92,87,180,177,-62,-109
-16,-82,-65,49,25,-73,97,104,178,174,-56,-108
-6,-77,-70,41,32,-73,102,111,177,173,-50,-102
-9,-76,-67,43,29,-71,103,110,172,165,-59,-109
6,-45,-51,20,29,-47,110,110,189,172,-48,-105
16,-3,-20,-6,18,-11,129,105,221,219,-18,-81
-4,1,5,1,-5,3,120,97,211,222,-15,-87
4,5,1,-5,1,3,107,92,202,209,-15,-91
19,-11,-29,-4,24,-20,88,83,194,201,-15,-89
18,-38,-56,10,37,-47,68,78,166,183,-18,-91
35,-57,-92,11,64,-74,66,73,151,157,-22,-103
40,-77,-116,19,78,-96,60,65,146,144,-43,-122
34,-80,-114,23,74,-96,61,68,155,159,-45,-118
23,-84,-107,31,65,-96,52,53,153,150,-48,-125
18,-84,-102,33,60,-92,59,62,165,160,-49,-124
-6,-99,-93,53,43,-95,55,47,143,143,-54,-124
-27,-116,-89,71,32,-102,67,63,155,156,-58,-118
-21,-100,-79,61,29,-89,65,49,137,144,-49,-121
-17,-94,-78,56,31,-86,74,62,141,141,-41,-120
-18,-86,-68,52,25,-76,97,107,199,182,-29,-97
9,-54,-63,23,36,-58,136,210,394,398,17,7
161,154,-7,-157,84,74,291,615,1079,1092,245,393
158,353,195,-256,-19,274,-88,101,574,760,360,395
-65,67,133,-1,-99,100,-705,-924,-970,-557,49,-229
-167,-271,-104,220,-32,-187,-825,-1042,-1363,-992,-197,-562
-114,-205,-90,160,-12,-148,-670,-764,-942,-676,-136,-425
-38,-90,-52,64,8,-71,-333,-360,-375,-214,-57,-210
-21,-84,-63,53,21,-73,-106,-117,-72,-1,-40,-123
-17,-81,-64,49,23,-72,-27,-60,-5,50,-30,-107
-11,-77,-65,44,28,-71,13,2,66,103,-20,-100
-2,-73,-71,38,35,-72,6,1,63,93,-11,-107
11,-70,-81,30,46,-75,20,8,80,114,-10,-99
7,-64,-71,29,39,-67,20,6,73,109,-10,-98
-6,-73,-68,40,32,-70,29,11,74,120,-5,-93
-34,-95,-62,65,14,-78,28,11,71,119,-5,-90
-37,-91,-54,65,9,-72,22,5,69,112,-4,-90
-8,-75,-68,42,30,-71,18,-4,69,113,4,-89
6,-75,-81,34,44,-78,13,-13,57,105,12,-91
3,-77,-80,37,42,-78,9,-22,50,105,12,-89
4,-73,-77,35,41,-74,4,-31,41,98,7,-90
0,-71,-71,35,36,-71,-4,-37,27,94,6,-89
-1,-67,-66,34,33,-67,-15,-47,9,89,19,-81
-3,-66,-63,34,30,-64,-28,-57,-8,84,34,-73
-4,-61,-57,33,27,-59,-36,-75,-13,81,44,-65
10,-44,-54,17,32,-49,-50,-94,-36,73,54,-58
21,-28,-49,4,35,-38,-73,-115,-70,58,75,-48
30,-15,-46,-7,38,-30,-94,-145,-100,45,91,-36
41,-2,-43,-19,42,-22,-120,-176,-148,29,96,-25
45,7,-38,-26,41,-15,-146,-205,-189,2,112,-18
51,16,-35,-33,43,-9,-166,-238,-237,-21,127,-13
61,23,-38,-42,50,-7,-188,-268,-281,-47,137,-5
62,21,-41,-41,51,-10,-205,-300,-324,-77,141,-12
54,14,-40,-34,46,-12,-204,-317,-358,-94,126,-29
58,13,-45,-35,51,-15,-196,-328,-373,-109,109,-45
48,3,-45,-25,47,-21,-193,-327,-377,-121,98,-52
22,-23,-45,1,33,-33,-178,-300,-365,-118,86,-64
10,-45,-55,17,33,-50,-152,-268,-346,-114,75,-81
-6,-60,-54,33,24,-57,-123,-243,-306,-102,66,-88
-1,-69,-68,35,34,-68,-93,-215,-263,-77,63,-88
3,-81,-84,39,43,-82,-68,-177,-215,-39,59,-84
-14,-90,-76,52,31,-83,-47,-144,-165,-8,55,-81
-9,-84,-75,47,34,-80,-28,-112,-114,12,52,-77
-6,-77,-71,41,33,-74,-13,-82,-53,47,48,-75
-2,-71,-69,37,34,-70,0,-49,-14,73,60,-57
11,-63,-74,26,43,-69,10,-21,20,102,79,-33
13,-62,-74,25,44,-68,16,-5,60,134,83,-26
10,-66,-77,28,44,-71,22,20,98,159,85,-19
19,-61,-80,21,50,-70,30,43,133,185,85,-12
24,-56,-80,16,52,-68,35,54,150,204,84,-6
27,-53,-80,13,54,-66,35,57,163,214,96,2
32,-47,-80,8,56,-63,37,69,175,218,101,10
37,-43,-80,3,59,-62,49,80,181,236,99,18
36,-40,-76,2,56,-57,54,82,183,244,100,26
29,-41,-70,6,50,-55,61,86,195,251,100,33
28,-37,-65,5,46,-51,60,85,200,255,100,39
25,-35,-60,6,43,-47,60,85,189,259,95,36
19,-34,-53,8,36,-43,75,86,187,269,95,35
12,-39,-51,14,32,-45,76,84,173,257,95,35
14,-45,-59,16,37,-52,74,87,191,250,95,35
16,-40,-56,12,37,-48,79,94,208,242,95,35
20,-35,-55,8,38,-45,80,95,185,237,92,35
17,-32,-49,7,33,-40,79,95,184,228,89,35
30,-26,-56,-2,43,-41,81,95,195,239,83,35
48,-22,-70,-12,59,-46,77,95,205,274,107,44
17,-45,-62,14,40,-54,94,94,199,263,111,44
-5,-63,-58,34,27,-60,107,90,193,245,87,46
1,-55,-56,27,29,-55,92,90,185,242,85,43
0,-51,-51,25,26,-51,89,90,204,261,83,51
5,-43,-48,20,27,-46,88,89,198,272,80,70
2,-41,-43,20,23,-42,83,91,163,262,79,67
-3,-45,-42,24,20,-43,82,92,177,267,95,62
11,-51,-62,21,36,-56,77,97,191,262,112,56
17,-48,-65,16,41,-56,78,104,196,253,109,56
27,-29,-56,1,42,-42,92,105,170,231,110,37
34,-23,-57,-5,46,-40,97,100,159,240,111,51
26,-11,-36,-7,31,-23,95,101,173,239,108,81
36,16,-20,-26,28,-2,110,126,218,277,122,98
31,37,6,-34,12,21,128,134,249,345,137,113
20,47,27,-34,-3,37,101,115,201,278,134,92
26,40,15,-33,5,28,63,99,180,182,137,97
61,36,-25,-48,43,6,31,87,156,192,141,93
91,29,-63,-60,77,-17,17,91,144,280,140,99
76,12,-63,-44,69,-25,-2,81,130,221,134,87
64,-42,-107,-11,86,-75,-5,85,94,113,114,29
56,-46,-101,-5,79,-73,35,77,108,185,106,47
51,-14,-65,-19,58,-39,47,77,124,271,109,85
28,-38,-66,5,47,-52,46,77,107,251,102,78
13,-60,-73,23,44,-66,40,67,94,184,96,59
8,-70,-78,31,43,-74,53,81,113,192,89,53
3,-48,-52,23,28,-49,32,52,100,265,82,74
23,-44,-67,11,45,-55,76,133,160,273,66,63
27,-11,-38,-8,33,-24,90,180,283,392,102,130
154,96,-58,-125,105,19,233,576,847,941,269,441
221,250,29,-235,96,139,307,670,1072,1084,394,564
-2,200,202,-100,-102,201,-292,-461,-259,89,224,122
-199,-153,46,176,-123,-53,-741,-1131,-1343,-837,-76,-373
-153,-231,-78,192,-38,-154,-756,-966,-1222,-795,-130,-395
-30,-76,-47,53,9,-61,-557,-617,-712,-348,-9,-166
3,-42,-45,20,24,-43,-220,-216,-243,-12,57,-31
-6,-36,-31,22,13,-33,-92,-65,-61,140,77,38
12,-35,-47,12,30,-41,-32,-6,17,187,79,70
17,-32,-48,8,33,-40,-21,16,46,217,70,69
10,-30,-40,10,25,-35,-5,42,96,219,65,84
19,-17,-36,-1,28,-26,15,49,95,264,57,83
14,-11,-25,-1,20,-18,-29,40,66,295,51,80
-2,-40,-39,21,19,-39,-24,36,67,249,58,86
13,-43,-56,15,35,-49,-10,18,45,258,60,83
47,4,-43,-25,45,-19,-24,23,66,289,69,106
43,1,-41,-22,42,-20,-16,12,57,306,60,117
35,14,-21,-24,28,-4,-15,-2,44,284,67,114
16,9,-7,-12,11,1,-59,-16,28,209,88,111
37,-9,-46,-14,42,-27,-46,-35,7,263,81,107
62,18,-45,-40,53,-13,-36,-44,6,275,80,105
22,-10,-31,-6,27,-20,-100,-60,-45,220,74,97
65,41,-24,-53,45,8,-105,-95,-97,236,89,122
87,77,-10,-82,48,33,-114,-108,-85,245,115,150
43,52,9,-48,17,31,-151,-129,-106,242,112,143
51,80,30,-66,10,55,-168,-162,-151,268,121,144
77,94,16,-86,30,55,-202,-196,-179,246,151,183
82,101,19,-92,32,60,-236,-254,-293,139,160,210
92,140,48,-116,22,94,-266,-289,-338,208,149,213
107,157,50,-132,28,103,-277,-316,-329,170,145,196
88,141,53,-115,17,97,-298,-350,-401,88,141,157
73,139,66,-106,3,102,-294,-365,-413,145,127,146
71,131,59,-101,6,95,-269,-359,-409,104,115,139
62,118,56,-91,3,87,-276,-341,-428,138,109,121
52,101,49,-77,1,75,-248,-325,-409,145,88,116
46,90,44,-68,1,67,-203,-290,-363,113,73,107
39,78,39,-58,0,58,-167,-253,-308,184,64,104
37,67,30,-52,3,48,-119,-220,-252,215,29,95
36,58,23,-47,6,40,-74,-160,-199,195,2,84
35,46,11,-41,12,28,-80,-108,-156,218,5,86
13,40,27,-27,-7,33,-82,-74,-99,275,-2,80
5,28,22,-17,-9,25,-27,-42,-48,334,-11,97
15,30,15,-23,-1,23,-8,-9,27,357,3,114
4,20,16,-12,-6,17,3,22,78,341,-2,102
11,19,8,-15,1,13,26,42,72,382,-14,93
24,34,10,-29,7,22,8,44,61,392,-9,101
37,31,-6,-33,21,12,-12,51,87,400,-11,119
21,12,-10,-16,15,1,-10,68,137,466,-15,133
4,-15,-19,6,12,-17,-6,72,143,463,-21,138
41,14,-28,-27,35,-7,-1,78,167,481,-28,128
62,39,-23,-50,42,8,-2,82,179,491,-31,123
58,32,-26,-45,42,3,-6,84,172,472,-36,115
57,33,-24,-44,41,4,8,86,178,475,-39,111
52,27,-25,-39,38,1,21,94,180,459,-44,112
47,26,-20,-36,33,2,29,102,187,457,-46,104
43,23,-20,-33,31,1,35,99,184,469,-56,98
38,20,-17,-29,28,1,36,101,194,482,-52,90
30,18,-13,-24,21,2,52,104,209,497,-50,82
39,14,-24,-26,31,-5,58,106,210,475,-66,76
43,13,-31,-28,37,-9,60,103,210,450,-71,70
38,8,-30,-23,34,-11,59,95,210,455,-70,65
46,19,-27,-32,37,-4,67,112,210,459,-69,62
45,20,-25,-32,35,-2,76,127,210,454,-78,56
36,11,-25,-23,31,-7,74,124,209,442,-94,40
23,2,-20,-12,21,-9,81,126,211,445,-98,24
6,-3,-9,-2,8,-6,77,125,223,448,-99,18
20,38,18,-30,1,28,98,125,249,449,-95,29
26,63,38,-45,-6,50,118,121,273,453,-90,30
18,57,40,-38,-11,48,104,111,270,447,-88,15
27,56,29,-42,-1,42,95,104,260,427,-83,6
24,51,27,-38,-2,39,72,82,232,394,-80,-9
40,48,8,-44,16,28,59,65,209,361,-95,-26
55,15,-40,-35,48,-12,61,67,207,329,-116,-48
42,-18,-60,-11,51,-39,58,62,196,314,-130,-64
51,-29,-80,-11,66,-54,62,69,198,311,-130,-69
48,-32,-80,-8,65,-56,60,60,183,300,-131,-82
21,-47,-69,13,46,-58,73,70,191,292,-149,-91
-8,-69,-61,38,27,-65,66,61,179,253,-163,-104
-7,-71,-65,39,29,-68,81,66,189,252,-158,-96
-8,-73,-65,41,29,-69,89,74,184,242,-162,-104
-15,-79,-64,47,25,-71,85,78,179,239,-160,-99
10,-62,-72,26,41,-67,134,137,257,270,-152,-88
47,-16,-63,-15,56,-39,138,228,436,476,-102,20
156,115,-40,-135,98,38,318,605,1070,1071,78,350
131,306,175,-219,-22,240,172,300,774,830,153,308
-86,116,202,-15,-144,159,-443,-697,-704,-380,-116,-249
-194,-277,-83,236,-55,-180,-719,-994,-1339,-991,-394,-615
-136,-253,-118,195,-8,-185,-670,-790,-1032,-770,-352,-528
-55,-113,-58,84,2,-85,-373,-416,-466,-301,-222,-283
-22,-82,-60,52,20,-71,-95,-119,-73,-16,-168,-158
11,-52,-64,21,38,-58,-16,-27,51,80,-141,-122
23,-57,-80,17,52,-69,36,26,113,121,-139,-107
16,-54,-69,19,43,-61,52,29,111,123,-136,-107
21,-51,-72,15,46,-61,61,38,117,125,-133,-102
15,-50,-66,18,40,-58,51,34,114,119,-130,-99
16,-48,-65,17,41,-56,47,35,115,117,-131,-95
20,-50,-70,15,46,-60,42,36,116,112,-137,-92
19,-50,-69,15,44,-60,35,34,114,109,-132,-89
24,-46,-71,11,48,-58,32,29,116,104,-129,-85
21,-44,-66,12,44,-55,25,18,105,95,-126,-84
25,-40,-65,8,45,-52,22,12,92,90,-120,-79
23,-41,-65,9,44,-52,17,0,75,80,-122,-82
10,-49,-59,20,35,-54,13,-13,59,75,-126,-89
12,-42,-54,16,33,-48,8,-28,38,66,-114,-80
15,-34,-49,10,32,-41,-6,-44,16,51,-99,-70
25,-18,-43,-3,34,-30,-30,-58,0,39,-86,-60
38,2,-36,-20,37,-17,-53,-76,-24,27,-71,-49
52,14,-38,-32,45,-12,-80,-96,-43,19,-59,-40
65,25,-40,-45,52,-7,-108,-127,-81,3,-44,-29
73,40,-33,-56,53,3,-140,-162,-132,-16,-20,-28
83,54,-29,-68,55,12,-176,-196,-182,-49,0,-31
85,62,-23,-73,53,19,-193,-230,-231,-81,4,-29
88,72,-16,-80,52,27,-209,-257,-277,-116,11,-36
90,72,-17,-81,53,27,-215,-286,-329,-163,14,-34
83,63,-20,-73,51,21,-207,-294,-341,-179,2,-37
74,54,-20,-64,47,17,-198,-282,-335,-191,-9,-51
60,40,-20,-50,40,10,-178,-273,-330,-199,-24,-68
44,24,-20,-34,32,1,-151,-260,-312,-190,-47,-93
33,9,-25,-21,29,-8,-118,-233,-283,-180,-57,-95
12,-13,-25,1,19,-18,-84,-209,-245,-165,-64,-106
-9,-35,-26,22,9,-30,-53,-182,-201,-150,-86,-127
-3,-33,-30,18,14,-32,-26,-132,-148,-123,-90,-125
3,-27,-30,12,16,-28,2,-96,-89,-97,-83,-124
10,-23,-32,7,21,-27,28,-70,-54,-78,-80,-120
20,-16,-36,-1,28,-26,43,-47,-22,-63,-75,-120
24,-11,-34,-6,29,-22,49,-22,25,-42,-70,-109
23,-13,-35,-4,29,-24,50,3,50,-17,-66,-90
13,-22,-35,5,24,-28,52,16,74,1,-61,-80
17,-18,-35,1,26,-26,56,27,105,21,-57,-67
20,-15,-35,-2,28,-25,53,38,127,47,-52,-59
21,-13,-34,-3,28,-23,50,51,143,67,-48,-53
44,-8,-52,-17,48,-30,50,60,153,70,-43,-45
46,-16,-62,-15,54,-39,50,65,156,70,-40,-40
37,-21,-59,-8,48,-40,50,65,155,70,-40,-30
46,-18,-64,-13,55,-41,50,66,155,70,-40,-34
50,-15,-65,-17,58,-40,53,70,154,71,-40,-44
51,-13,-64,-19,58,-38,56,70,149,66,-40,-35
52,-9,-60,-21,56,-35,59,70,150,60,-45,-39
41,-14,-54,-13,48,-34,62,70,150,55,-47,-55
20,-31,-51,6,36,-41,65,70,150,49,-44,-59
15,-31,-46,8,31,-38,70,70,151,43,-46,-58
15,-27,-41,6,28,-33,73,77,152,41,-43,-54
18,-23,-41,3,30,-32,82,88,173,46,-49,-56
17,-20,-37,2,27,-28,86,90,181,46,-61,-61
12,-15,-28,2,20,-21,90,90,180,52,-54,-57
7,-13,-20,3,14,-16,98,90,178,43,-46,-50
-10,-23,-12,17,1,-17,107,99,185,50,-38,-45
23,20,-3,-21,13,8,133,112,216,96,-31,-40
40,53,12,-47,14,32,135,103,209,91,-28,-40
15,38,23,-27,-4,30,120,94,196,71,-39,-40
23,31,8,-27,7,19,105,87,190,59,-52,-39
30,19,-11,-24,20,4,78,83,172,38,-49,-44
41,4,-36,-22,39,-16,74,88,168,35,-50,-46
61,-12,-73,-24,67,-42,76,82,148,23,-50,-45
63,-29,-92,-17,77,-60,81,88,151,22,-50,-45
49,-39,-88,-5,69,-63,79,83,148,10,-54,-60
35,-52,-87,9,62,-69,81,84,150,8,-54,-74
19,-64,-82,23,51,-73,80,80,152,1,-61,-88
11,-70,-80,29,46,-75,85,76,144,-3,-68,-93
21,-59,-80,19,51,-69,100,88,161,1,-62,-85
19,-52,-72,17,46,-62,87,67,131,-13,-63,-92
34,-44,-78,6,56,-61,129,126,185,44,-57,-66
32,-29,-61,-1,47,-45,133,157,253,100,-41,-27
122,55,-67,-88,94,-6,276,495,812,658,101,254
194,301,106,-248,44,203,195,461,979,900,303,474
20,223,203,-122,-92,213,-450,-587,-466,-276,134,7
-173,-243,-70,208,-51,-156,-834,-1136,-1518,-1244,-233,-550
-170,-312,-143,242,-13,-227,-776,-936,-1281,-1111,-270,-553
-42,-103,-61,72,10,-81,-467,-540,-655,-596,-113,-285
-12,-59,-48,36,18,-53,-149,-177,-182,-246,-61,-144
-18,-59,-41,38,12,-49,-33,-51,-33,-132,-62,-104
9,-55,-64,23,37,-59,33,26,52,-66,-54,-76
11,-53,-63,22,37,-58,50,34,72,-48,-52,-82
14,-49,-64,18,39,-56,58,38,78,-44,-46,-79
11,-48,-59,19,35,-54,62,40,85,-45,-43,-74
12,-44,-56,16,35,-50,61,32,82,-46,-38,-69
9,-46,-55,19,33,-51,60,38,81,-44,-32,-63
6,-45,-51,19,29,-47,54,33,74,-46,-29,-58
5,-45,-50,20,28,-47,53,37,74,-49,-23,-51
5,-45,-50,20,28,-47,47,34,67,-50,-21,-53
12,-38,-50,13,31,-44,45,29,66,-50,-25,-56
20,-30,-50,5,36,-40,39,20,60,-49,-20,-51
27,-22,-49,-2,38,-35,34,12,51,-54,-11,-49
31,-14,-45,-8,38,-29,27,4,43,-78,-3,-44
34,-8,-42,-13,38,-25,23,-4,33,-87,4,-41
41,3,-38,-22,39,-17,14,-22,8,-84,16,-36
47,12,-36,-29,41,-12,-7,-43,-18,-85,30,-24
53,23,-30,-38,41,-3,-27,-55,-36,-85,45,-8
68,46,-22,-57,45,11,-51,-84,-66,-89,67,5
75,59,-16,-67,45,21,-76,-108,-104,-105,80,18
84,75,-8,-79,46,33,-99,-144,-138,-127,96,39
87,89,2,-88,42,45,-121,-171,-175,-148,114,44
71,94,23,-83,24,58,-139,-184,-210,-170,117,38
59,90,31,-75,14,60,-142,-213,-251,-184,110,32
58,78,21,-68,18,49,-136,-229,-289,-211,102,28
60,73,13,-67,23,43,-133,-230,-293,-241,97,13
53,57,4,-55,25,30,-127,-223,-285,-252,83,-12
46,37,-9,-41,27,14,-123,-213,-275,-254,62,-31
31,7,-24,-19,27,-9,-101,-200,-266,-249,46,-48
24,-9,-33,-7,29,-21,-73,-174,-243,-236,34,-49
34,-4,-39,-15,37,-21,-52,-138,-198,-219,34,-55
25,-12,-37,-6,31,-25,-24,-110,-162,-203,35,-60
22,-21,-44,0,33,-32,-6,-84,-120,-183,36,-51
15,-34,-49,10,32,-41,1,-61,-76,-151,40,-49
9,-31,-40,11,25,-35,6,-33,-35,-121,40,-40
13,-21,-34,4,24,-27,20,-6,5,-95,40,-38
10,-17,-27,4,19,-22,33,9,43,-68,40,-22
18,-7,-24,-5,21,-15,49,38,82,-52,50,6
23,-2,-25,-10,25,-13,73,55,100,-43,59,11
32,7,-25,-19,28,-8,76,66,122,-32,59,10
31,6,-25,-18,28,-9,74,73,137,-12,64,10
30,-3,-33,-13,32,-18,76,87,147,2,65,20
41,5,-36,-22,38,-15,74,103,158,7,60,26
40,9,-31,-25,36,-11,77,99,151,14,60,17
35,6,-29,-21,32,-11,83,100,151,22,60,15
29,3,-25,-16,27,-11,86,109,146,23,60,10
25,0,-25,-12,25,-12,84,109,144,16,60,4
21,-2,-24,-9,23,-13,87,102,154,9,57,20
28,-5,-34,-11,31,-19,90,99,154,3,54,26
35,-7,-42,-14,38,-24,93,93,149,-4,55,18
28,-11,-39,-9,34,-25,95,90,147,-10,55,15
26,-14,-40,-6,34,-27,95,95,142,-9,55,10
22,-17,-40,-2,31,-28,95,95,140,-13,55,5
19,-21,-40,1,30,-31,95,95,145,-16,50,2
18,-19,-36,1,27,-27,95,95,143,-15,47,-4
6,-29,-35,12,20,-31,95,95,140,-14,43,-3
-2,-37,-35,20,17,-36,95,95,140,-10,40,7
5,-31,-35,14,20,-33,95,95,140,-10,34,6
5,-29,-34,12,20,-31,95,95,140,-10,40,-1
14,-25,-39,6,27,-32,95,95,140,-10,57,6
24,-22,-46,-1,35,-33,95,103,145,-10,57,12
21,-19,-40,-1,30,-29,95,106,143,-10,55,11
19,-16,-36,-1,28,-26,94,104,139,-10,55,7
18,-13,-31,-2,25,-22,98,102,140,-9,55,5
17,-10,-27,-3,22,-18,110,99,136,-5,54,2
12,-10,-22,-1,17,-15,110,100,133,3,56,-2
19,-1,-20,-9,20,-11,109,106,137,8,60,8
20,1,-19,-11,19,-9,118,112,146,17,69,21
32,28,-5,-30,18,12,138,124,179,26,86,39
38,66,28,-52,5,47,153,130,210,43,89,55
20,67,47,-44,-14,57,134,115,200,57,84,56
22,59,37,-40,-8,48,100,102,189,49,86,61
28,51,23,-40,2,37,76,89,175,41,93,57
49,41,-8,-45,28,16,70,92,161,32,94,51
71,31,-40,-50,55,-4,70,88,144,25,99,44
82,18,-65,-50,73,-23,69,87,130,4,102,38
57,8,-49,-32,53,-20,78,84,137,1,91,31
25,-3,-28,-11,27,-15,96,85,153,31,84,24
37,-9,-46,-14,42,-27,97,94,154,10,75,27
33,-16,-49,-9,42,-32,90,82,134,-23,75,22
32,-21,-53,-6,43,-37,103,101,152,-3,75,34
25,-20,-45,-3,35,-33,82,77,112,32,75,41
26,-30,-56,2,42,-43,125,127,167,53,75,34
31,-11,-43,-10,37,-26,112,140,218,46,78,47
118,65,-54,-91,85,6,215,425,671,527,198,304
227,284,57,-256,85,170,278,613,1095,970,405,609
90,324,235,-208,-73,279,-300,-349,-130,-6,331,237
-126,-102,23,114,-75,-39,-788,-1119,-1396,-1133,-32,-366
-164,-280,-115,222,-24,-197,-797,-1004,-1336,-1134,-139,-430
-66,-99,-34,83,-16,-66,-571,-648,-821,-718,-21,-228
-7,-42,-35,25,14,-38,-218,-242,-308,-330,29,-76
-12,-32,-20,22,4,-26,-42,-69,-89,-134,86,-7
4,-23,-27,10,16,-25,-5,-10,-15,-84,112,39
8,-17,-26,5,17,-21,25,5,-21,-111,108,59
20,-2,-22,-9,21,-12,45,10,-42,-139,113,49
32,1,-31,-16,31,-15,45,26,-23,-121,114,29
20,17,-3,-18,11,7,53,17,10,-113,116,37
25,44,19,-35,3,31,32,14,0,-83,112,77
29,43,14,-36,8,28,12,5,-30,-110,109,78
37,35,-2,-36,19,16,18,0,16,-108,105,85
28,33,5,-30,11,19,4,-7,-13,-89,102,92
-6,27,33,-10,-20,30,-3,-13,-64,-127,97,82
-1,26,27,-13,-14,26,-11,-17,-70,-114,95,82
20,33,13,-27,4,22,-24,-30,-63,-82,101,74
42,50,8,-46,17,29,-24,-42,-82,-90,111,75
55,46,-9,-50,31,19,-32,-52,-123,-124,109,76
62,67,5,-64,29,35,-70,-76,-124,-110,126,72
72,106,35,-89,18,70,-97,-90,-119,-109,157,84
39,80,41,-59,-1,61,-91,-107,-156,-140,138,75
56,96,40,-76,8,67,-104,-133,-188,-135,158,106
98,138,39,-118,29,88,-149,-157,-212,-143,201,164
85,133,48,-109,19,90,-167,-189,-254,-141,201,150
90,150,60,-120,15,105,-189,-232,-306,-178,198,144
104,166,61,-135,21,113,-216,-264,-349,-183,206,136
116,169,53,-143,32,110,-212,-275,-379,-189,221,130
92,150,58,-121,17,104,-209,-296,-432,-245,204,137
89,146,57,-118,16,101,-204,-314,-432,-225,188,131
75,140,65,-108,4,103,-199,-308,-414,-211,182,141
46,115,70,-81,-12,92,-190,-289,-414,-220,168,105
57,97,40,-78,8,69,-166,-265,-390,-232,159,66
17,56,39,-37,-11,48,-132,-243,-364,-252,142,53
29,76,48,-53,-10,62,-115,-206,-331,-228,131,50
64,86,22,-75,21,54,-95,-165,-297,-210,115,35
61,85,24,-73,18,54,-66,-124,-244,-136,101,30
46,86,39,-66,3,62,-49,-92,-190,-100,114,87
36,45,9,-40,13,27,-38,-63,-156,-74,118,115
49,95,46,-72,1,70,-32,-28,-124,-6,111,118
70,110,40,-90,15,74,-20,-6,-91,-79,105,72
84,87,3,-86,40,44,-10,37,-47,-8,101,85
36,88,52,-62,-8,70,8,59,-20,40,92,136
24,84,60,-54,-18,72,25,66,34,65,101,136
65,120,55,-93,4,88,20,95,85,153,121,170
44,95,51,-70,-4,73,8,94,73,104,112,173
36,85,49,-61,-7,67,11,97,85,127,106,169
78,122,44,-101,17,83,33,109,96,169,98,181
74,115,41,-94,16,78,39,111,122,154,102,172
70,106,36,-88,16,71,42,109,143,96,109,134
69,94,25,-82,21,59,38,112,125,102,92,145
43,91,47,-67,-2,69,47,128,115,185,88,183
47,73,25,-60,11,49,80,128,107,140,69,141
49,85,35,-67,7,60,79,117,102,125,62,151
51,103,52,-77,0,77,81,114,97,168,83,170
43,65,23,-54,10,44,78,104,117,109,76,140
39,79,40,-59,-1,59,83,102,107,134,65,160
28,77,49,-52,-11,63,73,121,83,139,47,149
33,81,47,-57,-7,64,61,125,98,163,50,153
64,109,45,-87,9,77,97,116,121,219,70,167
44,83,39,-64,2,61,73,114,97,125,64,165
42,81,38,-62,2,59,58,109,82,104,58,154
63,94,31,-79,15,62,84,104,139,211,47,172
60,92,32,-76,14,62,89,124,159,180,39,171
59,87,28,-73,15,57,99,136,128,135,18,104
46,78,31,-62,7,54,79,127,94,155,14,152
38,74,37,-56,0,55,55,125,105,139,31,174
32,63,31,-48,0,47,69,120,131,217,19,152
49,68,19,-59,15,43,66,115,106,176,4,148
89,93,4,-91,43,48,56,119,99,138,-1,130
39,77,38,-58,0,57,53,128,120,192,20,167
12,70,58,-42,-23,64,41,131,132,185,24,162
42,87,45,-65,-2,66,46,129,130,194,4,157
32,83,51,-58,-10,67,54,130,129,182,-3,174
34,87,52,-61,-9,69,60,130,130,158,-11,167
28,82,54,-56,-14,68,63,130,129,171,-17,171
34,94,60,-65,-13,77,81,137,142,207,-4,170
55,132,77,-94,-11,104,110,144,164,211,18,170
49,136,87,-93,-20,112,103,136,176,221,19,166
52,134,82,-94,-15,108,92,129,171,234,10,164
61,143,82,-102,-11,112,69,121,157,219,4,166
56,129,73,-92,-9,100,36,90,145,204,-3,161
72,107,35,-90,18,71,37,83,145,183,-22,147
81,94,12,-88,34,53,29,94,135,168,-24,133
69,78,9,-74,29,43,32,104,140,163,-30,113
62,66,4,-64,29,35,46,96,127,147,-50,86
54,51,-2,-52,28,24,57,103,133,144,-47,75
55,47,-8,-51,31,19,55,100,136,137,-71,57
45,38,-7,-42,26,15,58,97,131,136,-87,46
21,33,12,-27,4,22,83,109,145,135,-83,31
9,27,17,-18,-4,22,67,83,115,125,-89,20
6,13,7,-9,-1,10,119,152,199,146,-84,7
43,55,12,-49,16,33,124,216,332,290,-42,80
165,163,-3,-164,84,80,273,588,914,829,122,409
173,360,187,-267,-7,273,304,524,967,831,234,465
-52,291,343,-120,-198,317,-269,-516,-406,-253,26,-40
-199,-64,136,131,-167,36,-646,-1004,-1277,-1025,-271,-469
-164,-139,25,151,-94,-56,-655,-842,-1127,-974,-305,-483
-62,-22,41,42,-52,10,-457,-521,-638,-570,-195,-277
26,46,20,-37,3,33,-160,-182,-194,-242,-150,-135
36,60,24,-48,6,41,-52,-56,-48,-163,-138,-104
43,52,9,-48,17,30,7,3,19,-129,-130,-94
38,54,16,-46,11,34,24,7,19,-122,-130,-96
26,48,22,-37,2,35,25,13,20,-130,-130,-95
31,50,19,-41,6,35,26,20,22,-128,-130,-95
25,45,21,-35,1,33,23,16,18,-138,-130,-95
29,44,16,-37,6,30,26,12,23,-145,-130,-91
31,46,15,-39,7,30,24,5,17,-153,-123,-84
29,44,15,-37,6,30,21,0,12,-165,-116,-77
26,45,19,-36,3,32,12,-4,-2,-178,-108,-71
21,45,24,-33,-2,35,4,-13,-8,-191,-111,-64
22,44,23,-33,-1,33,-4,-19,-24,-206,-114,-59
27,46,20,-37,3,32,-11,-26,-41,-211,-106,-54
23,43,20,-33,1,31,-25,-47,-59,-224,-102,-50
29,49,20,-39,4,34,-38,-62,-78,-249,-94,-45
35,55,20,-45,8,38,-61,-81,-104,-261,-81,-41
48,68,20,-58,14,44,-78,-100,-139,-278,-69,-35
67,88,20,-78,23,54,-105,-127,-177,-300,-57,-25
62,83,21,-72,20,52,-143,-167,-227,-332,-46,-15
82,104,22,-93,29,63,-171,-205,-277,-362,-33,-9
104,118,14,-112,45,66,-208,-242,-339,-389,-22,-6
95,116,21,-106,36,68,-232,-278,-387,-425,-9,-3
90,128,38,-109,25,83,-255,-310,-435,-447,-5,2
86,128,42,-107,22,85,-271,-341,-492,-490,-5,5
74,131,57,-103,9,94,-264,-362,-520,-519,-1,1
75,137,61,-106,7,99,-260,-363,-521,-512,1,-11
69,128,59,-98,5,93,-252,-352,-510,-506,-7,-19
52,113,60,-82,-4,86,-222,-335,-498,-496,-24,-32
42,102,61,-72,-10,81,-179,-306,-456,-490,-40,-45
27,93,65,-60,-19,79,-143,-265,-398,-478,-46,-47
17,82,65,-50,-24,73,-109,-219,-343,-454,-44,-43
14,75,61,-45,-24,68,-78,-175,-274,-420,-46,-37
15,75,60,-45,-23,67,-52,-141,-221,-384,-45,-33
15,75,60,-45,-23,67,-22,-105,-176,-359,-40,-26
19,75,55,-47,-19,65,0,-69,-125,-330,-36,-22
21,76,55,-49,-18,65,5,-41,-86,-302,-31,-13
22,76,54,-49,-17,65,10,-17,-43,-283,-27,2
26,73,47,-49,-11,60,15,2,-13,-262,-22,15
27,68,41,-48,-7,55,22,19,8,-247,-20,29
33,67,34,-50,-1,50,24,32,24,-238,-20,30
31,59,28,-46,2,43,20,35,26,-227,-20,30
45,66,21,-56,12,43,20,36,41,-220,-19,30
65,81,16,-73,24,48,18,35,46,-220,-22,30
66,80,14,-74,26,47,15,36,45,-220,-30,30
68,78,11,-73,28,44,15,48,45,-220,-27,30
67,75,9,-71,29,42,19,51,46,-219,-20,35
70,74,5,-72,32,39,20,49,47,-221,-19,35
72,78,6,-75,33,42,22,51,45,-230,-11,35
68,80,12,-74,28,46,33,49,54,-230,-13,35
63,80,18,-72,23,49,42,52,54,-225,-25,35
57,80,23,-69,17,51,44,68,64,-224,-25,34
52,80,29,-66,12,54,50,71,77,-219,-25,31
45,79,34,-63,5,57,64,69,72,-222,-25,27
44,75,31,-60,6,53,71,70,68,-231,-25,25
42,70,28,-56,7,49,77,70,82,-226,-24,19
42,65,23,-54,9,44,84,71,96,-221,-17,24
40,62,22,-51,9,42,85,80,95,-216,-13,48
41,55,14,-48,13,35,84,86,93,-209,-7,57
39,59,21,-50,9,40,89,85,97,-205,-1,54
34,90,56,-62,-11,72,109,104,125,-209,3,56
46,121,75,-84,-15,97,134,112,149,-210,14,71
45,131,86,-88,-20,108,131,100,147,-209,15,73
45,133,88,-89,-21,110,120,93,142,-211,8,63
47,125,78,-87,-16,102,105,86,122,-207,5,59
41,101,61,-71,-10,81,81,89,97,-222,0,50
57,74,17,-66,20,45,76,92,91,-240,-4,46
89,63,-26,-76,57,18,73,89,79,-242,-10,50
84,59,-25,-72,55,17,77,99,79,-237,-18,50
63,56,-7,-59,34,25,73,90,63,-244,-26,44
71,47,-24,-59,47,12,77,99,65,-237,-35,43
52,33,-19,-43,35,7,77,92,52,-257,-38,36
37,22,-16,-29,26,3,81,96,51,-254,-33,35
36,25,-11,-31,23,7,90,98,50,-249,-25,31
32,27,-4,-29,18,11,94,87,40,-256,-21,29
35,29,-6,-32,21,11,126,133,116,-210,-11,33
40,54,14,-47,13,34,139,183,223,-95,15,95
167,181,14,-174,76,97,304,574,862,537,192,438
195,411,216,-303,-11,313,110,344,758,550,359,567
-3,242,245,-120,-124,243,-548,-733,-790,-734,116,18
-145,-203,-58,174,-43,-130,-837,-1102,-1588,-1512,-206,-460
-109,-198,-90,154,-9,-144,-744,-864,-1247,-1263,-180,-386
14,12,-2,-13,9,5,-405,-456,-617,-734,-39,-116
49,57,8,-53,20,32,-110,-133,-212,-445,-2,6
53,55,2,-54,25,28,-15,-40,-95,-360,-1,22
54,55,0,-55,26,27,47,24,-17,-294,8,43
40,55,15,-47,12,34,51,34,-9,-285,14,36
49,56,7,-52,21,31,63,47,2,-277,21,37
40,52,12,-46,14,32,57,40,4,-281,26,58
42,50,9,-46,17,29,54,40,8,-279,30,70
34,49,15,-42,9,32,53,40,16,-280,30,70
24,47,23,-36,0,35,48,33,11,-279,32,71
24,44,19,-34,2,31,57,37,8,-274,36,75
25,46,21,-36,2,33,50,31,0,-275,34,75
45,63,18,-54,13,40,45,25,-4,-275,36,73
50,64,14,-58,17,39,37,16,-10,-274,35,69
53,68,16,-61,18,42,31,8,-27,-281,45,71
51,69,18,-60,17,43,25,1,-42,-296,61,83
51,73,22,-62,15,47,16,-12,-50,-294,68,94
60,78,18,-69,20,48,3,-29,-68,-298,80,101
57,80,23,-69,17,51,-8,-38,-88,-293,98,115
62,105,43,-84,9,74,-27,-59,-108,-292,121,133
