I,II,III,aVR,aVL,aVF,V1,V2,V3,V4,V5,V6
-201,-110,91,155,-146,-9,-15,-85,-190,40,-30,-55
-208,-108,101,158,-154,-3,-15,-85,-190,40,-30,-55
-208,-102,106,155,-157,2,-15,-85,-190,40,-30,-55
-203,-99,104,150,-153,2,-15,-88,-190,40,-30,-55
-199,-94,106,146,-152,6,-16,-90,-190,40,-30,-55
-194,-90,104,141,-149,7,-14,-89,-190,40,-29,-54
-201,-95,106,148,-153,5,-23,-85,-185,37,-25,-51
-194,-94,100,144,-146,3,-31,-85,-185,34,-25,-50
-191,-99,92,145,-142,-3,-29,-84,-184,31,-25,-50
-198,-113,86,155,-142,-13,-30,-80,-180,28,-25,-50
-198,-120,78,159,-138,-21,-30,-80,-180,25,-25,-49
-194,-124,71,159,-132,-26,-30,-83,-182,25,-27,-53
-185,-121,64,153,-124,-28,-26,-85,-185,25,-30,-55
-214,-132,82,172,-147,-25,-25,-85,-185,25,-30,-56
-226,-134,92,180,-159,-21,-25,-88,-185,25,-34,-54
-217,-128,89,172,-153,-20,-20,-91,-185,25,-35,-57
-217,-126,91,172,-153,-17,-20,-89,-184,25,-35,-69
-210,-121,89,166,-150,-16,-19,-86,-181,25,-35,-71
-209,-119,90,164,-150,-14,-14,-83,-179,25,-35,-69
-199,-115,84,157,-140,-16,-16,-81,-180,25,-35,-66
-191,-112,78,151,-134,-17,-13,-77,-180,25,-35,-65
-179,-110,70,144,-125,-20,-9,-75,-180,25,-35,-64
-172,-107,65,139,-118,-21,-11,-73,-178,26,-33,-59
-161,-105,56,133,-108,-24,-4,-66,-167,29,-26,-54
-156,-100,56,127,-106,-22,4,-62,-158,35,-22,-50
-178,-85,92,131,-135,3,14,-55,-146,37,-16,-45
-173,-77,96,125,-134,9,17,-51,-139,53,-10,-41
-162,-80,82,121,-122,1,-3,-44,-128,70,-5,-39
-156,-80,77,118,-117,-1,-36,-47,-126,59,-5,-41
-147,-83,64,114,-105,-9,-50,-73,-156,52,-5,-39
-146,-85,61,115,-103,-12,-40,-83,-168,42,-7,-40
-145,-85,60,115,-102,-12,-30,-76,-164,34,-17,-40
-161,-102,59,132,-110,-21,-20,-73,-164,25,-23,-40
-208,-153,55,180,-131,-49,-13,-74,-169,17,-47,-64
-241,-186,54,213,-147,-66,-7,-64,-169,13,-70,-81
-232,-178,54,205,-143,-61,-4,-73,-178,-1,-72,-80
-215,-169,46,192,-130,-61,5,-48,-151,1,-66,-78
-216,-166,50,191,-133,-58,7,-64,-168,-16,-69,-82
-217,-155,63,186,-140,-46,13,-37,-138,9,-61,-78
-211,-157,54,184,-132,-51,8,-44,-152,-18,-67,-80
-272,-187,85,229,-178,-50,139,18,-162,-53,-123,-130
-273,-70,203,172,-238,66,389,376,142,168,-38,-78
356,517,161,-437,98,339,91,790,978,1192,741,496
990,964,-26,-977,508,469,-490,906,1634,1968,1427,1057
594,461,-133,-527,363,163,-672,-129,386,746,748,663
99,-62,-161,-18,130,-111,-619,-872,-753,-292,52,188
21,-65,-86,22,54,-75,-392,-453,-433,-129,41,133
-63,-103,-39,83,-12,-71,-137,-216,-295,-107,-23,-1
-124,-151,-27,138,-48,-89,-13,-84,-194,-54,-56,-64
-146,-148,-2,147,-72,-75,29,-36,-153,-47,-72,-81
-154,-156,-2,155,-76,-79,39,-28,-164,-51,-84,-96
-170,-164,7,166,-88,-79,50,2,-131,-36,-93,-99
-173,-160,13,166,-93,-73,49,-4,-143,-46,-98,-118
-190,-152,38,171,-114,-57,54,16,-119,-28,-92,-108
-187,-149,38,168,-112,-56,56,11,-129,-44,-98,-106
-163,-140,23,151,-93,-58,59,24,-115,-37,-93,-101
-166,-149,17,157,-91,-66,60,27,-115,-42,-94,-95
-160,-157,3,158,-81,-76,61,47,-109,-40,-89,-102
-148,-152,-4,150,-72,-77,66,52,-103,-40,-87,-105
-136,-150,-14,143,-61,-82,64,52,-96,-40,-84,-98
-124,-146,-22,136,-51,-84,67,58,-89,-33,-80,-94
-113,-145,-31,129,-40,-88,70,64,-82,-31,-80,-90
-100,-141,-41,121,-29,-91,69,91,-64,-28,-73,-85
-80,-132,-52,106,-13,-92,66,114,-49,-24,-63,-81
-39,-125,-86,82,24,-105,60,133,-35,-21,-53,-75
-9,-116,-107,63,49,-111,56,153,-22,-16,-43,-67
22,-109,-131,44,76,-119,51,161,-18,-15,-36,-61
47,-104,-151,28,99,-127,46,181,-15,-15,-31,-53
67,-98,-166,16,117,-132,42,188,-12,-10,-26,-51
104,-95,-199,-4,152,-146,38,174,-7,-10,-20,-55
105,-89,-194,-8,150,-142,32,164,-5,-9,-15,-54
79,-86,-165,3,123,-125,29,141,-12,0,-10,-58
43,-80,-123,19,83,-101,23,106,-20,8,-12,-60
1,-78,-79,39,40,-78,20,72,-29,17,-27,-60
-34,-70,-36,52,1,-53,25,47,-35,17,-36,-59
-78,-77,1,77,-40,-38,25,19,-49,14,-45,-63
-110,-101,9,105,-59,-46,26,0,-73,15,-60,-75
-115,-99,16,107,-66,-42,30,-6,-76,10,-66,-81
-123,-100,23,111,-73,-39,30,-13,-83,10,-72,-88
-128,-99,29,113,-79,-35,30,-19,-99,9,-75,-91
-140,-105,35,122,-88,-35,30,-26,-100,5,-78,-89
-157,-122,35,139,-96,-43,30,-32,-100,5,-81,-94
-153,-118,35,135,-94,-41,30,-35,-100,3,-79,-95
-157,-122,35,139,-96,-43,29,-35,-100,-1,-80,-94
-153,-118,35,135,-94,-41,43,-37,-98,0,-80,-91
-158,-122,35,139,-96,-43,52,-41,-94,3,-80,-86
-149,-115,35,131,-92,-40,47,-40,-95,6,-80,-84
-136,-101,35,118,-85,-32,45,-37,-91,9,-78,-79
-158,-124,35,140,-96,-44,41,-34,-90,12,-73,-76
-150,-115,35,132,-92,-40,40,-31,-90,15,-70,-72
-131,-97,35,113,-83,-30,36,-28,-84,15,-67,-70
-117,-83,35,99,-76,-24,35,-25,-79,28,-62,-70
-114,-83,31,98,-72,-26,35,-24,-74,41,-60,-66
-123,-96,26,110,-74,-35,30,-19,-68,40,-64,-65
-119,-80,39,99,-79,-20,30,-16,-62,40,-65,-65
-112,-65,47,88,-79,-9,30,-13,-58,40,-64,-65
-116,-72,44,94,-80,-14,30,-8,-53,40,-65,-65
-125,-83,42,103,-83,-20,30,-5,-50,38,-64,-65
-109,-70,39,90,-74,-15,30,-5,-47,34,-65,-65
-97,-57,40,77,-68,-8,30,-5,-42,35,-73,-64
-120,-81,40,100,-80,-20,30,-5,-40,35,-76,-68
-142,-102,40,122,-91,-31,27,-5,-39,35,-74,-70
-130,-91,40,111,-85,-25,24,-4,-46,34,-72,-70
-128,-88,40,108,-84,-24,21,-7,-52,31,-69,-74
-122,-81,40,102,-81,-20,18,-10,-47,28,-71,-75
-112,-75,38,93,-75,-19,16,-13,-45,25,-75,-74
-126,-92,34,108,-80,-29,14,-15,-41,23,-74,-71
-127,-91,35,108,-81,-28,19,-18,-39,19,-81,-66
-122,-87,35,104,-78,-26,26,-21,-44,22,-86,-64
-114,-79,35,96,-74,-22,25,-16,-47,26,-80,-59
-113,-77,36,94,-74,-20,25,-15,-52,25,-78,-56
-100,-68,32,84,-66,-18,25,-15,-55,25,-73,-52
-100,-53,47,76,-73,-3,24,-15,-55,25,-70,-50
-141,-87,54,114,-97,-16,28,-14,-55,26,-75,-50
-138,-93,45,115,-91,-24,30,-17,-55,29,-76,-50
-122,-80,42,101,-82,-19,31,-19,-55,30,-75,-50
-110,-77,33,93,-72,-22,29,-13,-51,33,-75,-50
-102,-69,32,85,-67,-19,31,-7,-45,35,-75,-44
-95,-63,32,79,-63,-15,29,-3,-41,36,-76,-35
-96,-50,46,73,-71,-2,33,4,-34,45,-72,-28
-85,-24,61,54,-72,18,44,9,-29,50,-66,-19
-48,5,53,21,-51,29,40,16,-24,58,-62,-12
-30,19,49,5,-40,33,32,28,-18,73,-57,9
9,52,43,-31,-17,48,-8,-6,-10,70,-53,30
2,40,37,-21,-17,38,-32,-41,-22,63,-47,23
-32,1,33,15,-32,16,-20,-46,-58,55,-46,13
-41,-12,30,27,-35,9,-13,-45,-66,48,-43,6
-69,-42,26,55,-47,-8,-3,-40,-63,41,-54,-5
-102,-77,25,89,-63,-26,-1,-43,-67,34,-84,-12
-113,-93,20,103,-66,-37,4,-34,-69,34,-99,-20
-121,-99,21,110,-71,-39,3,-44,-82,25,-100,-32
-136,-113,23,124,-80,-44,11,-15,-57,30,-91,-31
-137,-109,27,123,-82,-41,7,-36,-79,14,-95,-29
-134,-104,30,119,-82,-36,14,2,-47,29,-82,-18
-134,-107,27,120,-80,-40,6,-23,-71,24,-88,-18
-198,-108,90,153,-144,-9,155,26,-80,-14,-148,-68
-171,9,180,80,-175,94,402,387,223,186,-46,-8
513,654,141,-584,185,397,48,822,1088,1218,726,577
1114,1078,-35,-1096,574,521,-534,934,1698,1906,1348,1090
677,493,-184,-584,430,154,-720,-157,398,686,662,688
240,32,-208,-136,224,-88,-676,-866,-667,-249,33,260
163,10,-153,-87,158,-71,-404,-443,-348,-102,30,202
39,-61,-100,11,70,-80,-135,-223,-230,-81,-42,100
-38,-91,-53,65,7,-72,-34,-84,-143,-11,-72,52
-77,-115,-38,96,-20,-76,7,-50,-111,-10,-107,33
-68,-107,-40,87,-14,-74,25,-41,-106,-18,-112,24
-67,-108,-41,88,-13,-74,49,-20,-85,-13,-107,13
-76,-121,-46,99,-15,-83,56,-28,-98,-26,-113,4
-93,-119,-26,106,-34,-72,55,-5,-75,-14,-107,6
-57,-120,-62,89,3,-91,55,-11,-84,-25,-112,4
-34,-114,-80,74,24,-97,55,4,-68,-16,-103,6
-50,-116,-66,83,9,-91,55,6,-68,-22,-103,5
-40,-112,-72,77,16,-92,56,14,-61,-18,-98,2
-48,-106,-58,77,5,-82,53,22,-55,-16,-94,0
-19,-102,-82,61,32,-92,61,25,-51,-14,-91,0
12,-95,-107,42,60,-101,85,34,-44,-10,-87,0
15,-90,-105,38,60,-97,85,51,-39,-8,-81,7
24,-85,-109,31,67,-97,80,65,-27,-5,-74,16
31,-80,-111,24,71,-95,79,82,-18,-3,-68,25
42,-73,-114,16,78,-93,75,93,-8,0,-61,31
71,-66,-137,-2,105,-101,74,115,3,0,-55,51
116,-59,-175,-28,146,-117,63,145,12,0,-50,66
141,-53,-193,-44,167,-123,51,149,27,0,-44,72
159,-47,-206,-56,183,-127,40,141,29,0,-41,88
184,-45,-228,-69,207,-136,31,134,22,6,-36,88
180,-45,-226,-67,204,-135,30,128,18,9,-31,92
170,-41,-212,-64,191,-126,30,114,11,14,-31,98
153,-39,-192,-57,173,-115,25,91,7,18,-37,87
93,-41,-134,-26,114,-87,25,63,0,26,-56,75
43,-34,-77,-4,60,-55,25,37,-10,47,-64,65
17,-35,-53,9,35,-44,26,18,-18,49,-66,56
16,-27,-43,6,29,-35,24,-3,-27,40,-71,50
-1,-36,-35,19,17,-35,28,-23,-37,34,-73,42
-42,-73,-31,58,-5,-51,40,-40,-39,28,-82,35
-56,-76,-21,66,-17,-48,38,-43,-42,20,-85,26
-56,-74,-18,65,-19,-46,34,-40,-58,25,-85,26
-52,-76,-24,64,-14,-50,31,-40,-61,35,-90,36
-56,-74,-18,65,-18,-46,26,-40,-59,27,-89,34
-32,-75,-42,54,5,-58,26,-40,-61,21,-96,30
-20,-67,-47,44,13,-56,33,-40,-59,15,-101,28
-33,-63,-30,48,-1,-46,39,-44,-62,6,-97,24
-33,-57,-24,46,-4,-40,43,-46,-65,7,-95,28
-39,-51,-13,45,-13,-31,45,-45,-65,10,-91,30
-37,-46,-9,42,-13,-28,45,-45,-67,10,-90,29
-41,-45,-3,43,-18,-24,45,-45,-71,14,-87,41
-47,-45,2,46,-24,-21,45,-46,-70,15,-82,46
-53,-45,8,49,-30,-18,45,-50,-67,15,-79,44
-53,-45,9,49,-30,-18,45,-50,-64,20,-76,45
-48,-46,3,46,-25,-21,42,-50,-61,20,-71,45
-44,-43,0,44,-22,-21,37,-50,-58,20,-71,45
-37,-40,-3,39,-17,-21,34,-50,-55,20,-75,40
-32,-40,-8,36,-12,-24,31,-54,-56,20,-75,40
-28,-38,-10,33,-9,-24,26,-55,-60,18,-77,40
-14,-34,-20,24,4,-27,25,-58,-59,14,-80,40
-7,-35,-28,22,11,-31,25,-60,-62,12,-80,40
-18,-35,-17,27,0,-26,25,-61,-65,9,-77,42
-25,-33,-8,29,-8,-20,25,-65,-65,6,-74,45
-32,-47,-15,39,-8,-31,25,-66,-65,4,-75,45
-26,-57,-31,42,3,-44,25,-64,-65,0,-74,45
-17,-54,-37,36,11,-46,22,-66,-65,0,-75,45
-18,-53,-35,36,8,-43,19,-64,-65,-1,-74,44
-15,-50,-35,33,10,-42,16,-65,-65,-5,-70,41
-14,-49,-35,32,10,-41,13,-82,-65,-5,-70,36
-14,-49,-35,32,11,-42,10,-86,-64,-2,-68,33
-6,-41,-35,24,15,-38,10,-84,-66,0,-64,30
-23,-53,-30,38,4,-41,18,-85,-74,0,-65,25
-26,-52,-25,39,0,-38,21,-85,-76,3,-68,27
-17,-37,-20,27,2,-28,20,-85,-74,6,-70,30
-47,-64,-17,56,-15,-40,20,-84,-71,4,-70,30
-57,-67,-10,62,-23,-38,20,-96,-69,1,-70,34
-30,-44,-13,37,-8,-28,20,-101,-70,0,-70,35
-16,-43,-26,30,5,-34,25,-99,-70,0,-69,35
-39,-61,-22,50,-8,-42,25,-100,-70,0,-64,35
-23,-62,-39,43,8,-50,25,-100,-70,0,-58,35
-2,-51,-49,27,24,-50,26,-100,-70,2,-55,35
-12,-47,-36,30,12,-41,23,-92,-71,9,-50,35
1,-39,-40,19,21,-39,34,-77,-66,13,-46,34
5,-34,-39,15,22,-36,46,-69,-55,19,-42,39
23,-19,-42,-2,33,-30,48,-59,-44,25,-36,56
39,2,-38,-20,38,-18,41,-56,-37,29,-32,53
66,23,-43,-44,54,-10,34,-45,-40,37,-27,59
71,39,-32,-55,51,3,16,-44,-44,34,-23,75
38,36,-2,-37,20,17,-18,-83,-52,28,-19,72
60,27,-32,-43,46,-2,-25,-98,-69,21,-20,67
63,25,-39,-44,51,-7,-14,-94,-71,14,-21,63
0,-22,-22,11,11,-22,-6,-97,-68,8,-18,57
-49,-62,-13,56,-18,-37,13,-105,-79,-3,-40,29
-62,-65,-2,63,-30,-33,33,-93,-69,-4,-56,5
-98,-90,8,94,-52,-41,27,-104,-83,-20,-57,4
-97,-96,0,97,-48,-48,28,-77,-66,-17,-51,3
-77,-95,-18,87,-29,-56,22,-90,-83,-35,-54,-4
-81,-98,-18,90,-31,-58,21,-68,-70,-25,-46,-1
-69,-102,-33,86,-18,-68,20,-68,-73,-32,-57,-11
-145,-95,50,120,-97,-23,131,-62,-98,-75,-101,-45
-175,-23,152,98,-164,65,421,304,169,82,-36,-20
430,500,70,-465,180,285,200,768,948,951,612,465
1199,1054,-145,-1126,672,454,-403,1026,1733,1795,1348,1040
921,622,-299,-771,610,161,-652,61,672,814,813,736
331,54,-278,-193,304,-112,-652,-917,-633,-298,81,262
188,27,-161,-107,174,-67,-425,-551,-400,-192,61,181
72,-8,-80,-32,76,-44,-145,-262,-219,-134,10,93
12,-46,-58,18,35,-52,-21,-138,-150,-113,-27,35
-15,-64,-49,40,17,-56,31,-79,-101,-101,-43,1
-30,-76,-46,53,8,-61,55,-88,-113,-106,-54,-5
-21,-60,-38,41,9,-49,65,-53,-74,-84,-41,-6
-50,-85,-35,68,-8,-59,63,-65,-91,-94,-45,-15
-68,-95,-27,81,-20,-60,66,-38,-67,-75,-33,-15
-59,-87,-27,73,-16,-57,64,-45,-76,-84,-34,-22
-33,-83,-50,58,9,-66,65,-33,-64,-77,-26,-18
-25,-75,-50,50,13,-63,65,-30,-62,-81,-25,-21
-23,-72,-49,47,14,-60,64,-24,-58,-80,-25,-19
-15,-66,-51,40,18,-58,69,-18,-50,-81,-25,-20
-12,-62,-49,37,18,-55,70,-11,-45,-86,-25,-20
-6,-56,-50,31,23,-53,71,1,-36,-84,-24,-17
-12,-52,-40,32,15,-46,74,9,-32,-88,-20,-14
-9,-49,-40,29,16,-44,75,22,-22,-90,-16,-11
32,-40,-73,4,53,-56,74,40,-15,-91,-12,-9
82,-53,-135,-14,108,-94,66,77,-6,-87,-7,-5
132,-41,-174,-46,153,-107,59,95,3,-85,0,-4
152,-17,-170,-67,161,-94,52,98,9,-85,24,8
154,-21,-175,-66,165,-98,44,118,14,-80,38,19
202,-19,-221,-91,211,-120,37,120,19,-80,42,27
218,-20,-238,-99,228,-129,38,106,25,-79,50,34
205,-20,-225,-92,215,-122,41,95,30,-72,50,27
200,-19,-219,-90,210,-119,40,83,23,-66,49,19
163,-12,-175,-75,169,-93,40,61,15,-59,46,11
111,-7,-117,-52,114,-62,40,36,7,-52,45,4
63,1,-61,-32,62,-30,40,7,-1,-46,44,-5
34,13,-20,-23,27,-3,40,-16,-7,-41,37,-15
-13,-3,10,7,-12,4,40,-29,-14,-40,33,-25
-45,-12,33,29,-39,10,40,-48,-21,-40,27,-43
-35,-9,27,22,-31,9,40,-51,-28,-40,21,-45
-29,-6,23,17,-26,8,40,-50,-34,-40,16,-47
-23,-6,18,14,-20,6,40,-56,-41,-41,11,-50
-29,-14,15,21,-22,0,41,-54,-53,-49,9,-51
-29,-21,9,25,-19,-6,39,-58,-56,-62,6,-55
-47,-28,19,37,-33,-4,48,-60,-55,-66,3,-55
-66,-36,30,51,-47,-3,56,-60,-55,-62,0,-55
-62,-43,19,52,-40,-12,54,-57,-55,-60,1,-55
-58,-42,16,49,-37,-13,55,-54,-54,-56,6,-55
-38,-34,3,36,-20,-15,55,-51,-49,-55,9,-52
-40,-31,9,35,-24,-10,55,-48,-46,-52,12,-47
-53,-24,29,38,-40,2,52,-46,-43,-46,17,-44
-65,-19,46,42,-56,13,46,-43,-38,-42,20,-41
-68,-14,54,40,-61,20,41,-40,-35,-37,24,-36
-53,-10,43,31,-48,16,38,-40,-35,-33,31,-36
-48,-10,38,29,-43,13,32,-38,-35,-29,35,-40
-39,-7,32,23,-35,12,30,-35,-35,-44,34,-40
-28,-5,23,16,-25,9,41,-35,-35,-57,38,-40
-29,-5,24,17,-26,9,46,-38,-35,-54,40,-40
-51,-9,42,30,-47,16,42,-40,-34,-58,40,-40
-57,-16,41,36,-49,12,40,-40,-30,-60,37,-40
-53,-23,30,38,-42,3,36,-45,-30,-60,32,-40
-57,-29,28,42,-42,0,35,-45,-30,-60,29,-40
-52,-37,15,44,-33,-10,35,-46,-30,-60,25,-40
-45,-39,6,42,-25,-16,35,-50,-30,-60,22,-40
-53,-30,23,42,-38,-4,35,-49,-26,-59,18,-39
-66,-22,45,44,-55,11,35,-53,-25,-61,15,-33
-56,-13,43,34,-49,15,35,-55,-24,-58,15,-43
-52,-12,39,32,-45,13,34,-55,-21,-56,15,-56
-52,-16,36,34,-43,9,30,-51,-19,-54,15,-55
-45,-14,32,29,-38,9,30,-50,-21,-54,15,-55
-45,-17,28,31,-36,5,30,-50,-25,-68,15,-50
-45,-20,25,32,-35,2,30,-45,-25,-71,13,-50
-45,-20,25,32,-35,2,30,-45,-27,-69,22,-49
-53,-28,25,40,-39,-2,27,-45,-31,-66,26,-44
-56,-30,26,43,-41,-2,21,-45,-30,-65,25,-45
-54,-30,24,41,-39,-3,18,-44,-27,-64,22,-45
-56,-26,30,41,-43,2,11,-51,-22,-59,19,-45
-53,-25,28,39,-40,1,14,-53,-20,-56,21,-45
-59,-25,34,42,-46,4,46,-42,-16,-53,18,-42
-48,-14,34,30,-40,9,52,-36,-12,-49,35,-38
-30,8,38,10,-34,23,47,-26,-8,-45,44,-34
-47,24,71,11,-59,47,67,-21,13,-49,48,-31
-4,34,39,-15,-22,36,58,-9,31,-50,67,-25
55,67,12,-61,21,39,14,-4,23,-50,63,-26
21,58,37,-39,-9,47,-24,-41,12,-50,57,-30
-17,27,44,-6,-31,35,-27,-62,4,-49,54,-30
-18,21,39,-2,-29,30,-11,-59,-8,-51,48,-35
-25,9,34,7,-30,21,7,-51,-7,-48,46,-34
-52,-22,31,37,-41,4,27,-55,-19,-66,37,-42
-74,-50,24,62,-49,-13,37,-41,-14,-72,36,-55
-92,-58,34,75,-63,-12,33,-48,-28,-79,26,-61
-112,-64,48,88,-80,-8,36,-35,-24,-71,25,-59
-106,-64,42,85,-74,-11,34,-30,-30,-72,16,-60
-101,-58,43,80,-72,-8,35,-31,-35,-71,14,-61
-91,-55,37,73,-64,-8,37,-1,-16,-62,22,-56
-117,-68,49,92,-82,-9,77,-28,-58,-113,-24,-90
-209,-48,161,129,-185,56,348,254,138,-56,-33,-134
173,354,181,-264,-4,267,303,689,767,645,464,231
1004,1002,-2,-1004,504,500,-270,1022,1713,1803,1404,961
970,822,-148,-896,558,337,-593,362,1137,1251,1204,897
323,165,-159,-244,241,3,-605,-772,-438,-213,272,311
123,40,-83,-82,102,-21,-455,-633,-472,-319,113,159
82,47,-35,-64,58,6,-199,-255,-163,-175,102,66
-5,-22,-17,13,6,-19,-32,-127,-116,-166,35,-24
-52,-46,6,49,-29,-20,33,-26,-24,-108,33,-51
-54,-48,7,51,-30,-20,42,-37,-50,-133,12,-76
-77,-52,25,64,-51,-13,57,3,-13,-110,22,-65
-94,-70,24,82,-59,-23,64,-8,-28,-127,7,-73
-75,-60,15,67,-44,-22,59,15,-8,-116,9,-68
-71,-61,10,65,-40,-25,54,16,-8,-121,6,-71
-59,-56,2,57,-30,-27,48,24,-1,-116,11,-67
-49,-54,-5,52,-21,-30,41,32,7,-110,10,-64
-53,-52,1,53,-27,-26,48,36,8,-110,13,-66
-45,-46,-1,45,-22,-23,62,45,18,-103,16,-64
-34,-41,-7,38,-14,-24,59,49,19,-102,15,-66
-32,-38,-6,35,-13,-22,63,65,28,-96,20,-64
16,-32,-47,8,32,-39,65,66,28,-92,22,-58
35,-30,-64,-2,49,-47,65,81,43,-86,24,-49
45,-16,-61,-14,53,-38,62,110,49,-81,28,-41
77,-4,-81,-36,79,-43,54,128,65,-75,35,-32
59,-29,-88,-15,74,-59,48,153,93,-70,46,-23
104,-18,-121,-43,113,-70,41,166,102,-70,55,-15
159,7,-152,-82,155,-73,35,175,121,-70,73,-6
163,9,-154,-86,158,-72,25,186,122,-70,86,0
207,18,-189,-112,198,-85,16,176,113,-70,85,5
225,24,-200,-124,212,-88,8,173,108,-70,93,8
207,28,-179,-117,193,-75,-3,158,98,-67,89,15
180,26,-155,-103,167,-65,-2,127,93,-61,79,12
120,18,-101,-69,111,-41,1,100,83,-56,72,0
69,27,-42,-47,55,-7,-1,72,68,-51,60,-12
40,39,-1,-39,20,18,0,43,55,-44,50,-22
1,31,30,-16,-15,30,-1,24,45,-41,37,-36
-26,24,50,1,-38,37,1,8,36,-44,28,-48
-45,17,62,14,-54,39,7,-5,28,-45,21,-54
-72,8,79,32,-76,43,13,-10,18,-45,14,-60
-73,8,81,33,-77,44,18,-15,11,-45,8,-60
-66,13,79,26,-73,46,24,-20,6,-47,0,-62
-71,10,81,30,-76,45,29,-27,1,-59,-4,-65
-77,3,79,37,-78,41,27,-29,-2,-60,0,-65
-81,-1,80,41,-80,39,25,-25,-8,-56,5,-69
-83,-9,74,46,-78,32,25,-25,-9,-54,9,-71
-77,-6,71,42,-74,33,20,-25,-3,-51,14,-69
-63,4,67,29,-65,36,20,-25,4,-50,18,-66
-44,20,63,12,-54,41,19,-25,11,-45,23,-61
-14,46,60,-16,-37,53,15,-21,18,-37,25,-59
-4,52,55,-24,-30,53,15,-15,24,-31,25,-55
-2,49,51,-23,-26,49,15,-9,25,-24,28,-50
12,51,40,-32,-14,45,15,-4,25,-17,31,-52
-13,48,61,-18,-37,55,15,2,25,-17,29,-56
-28,54,83,-13,-56,69,12,5,25,-21,26,-55
-12,60,72,-24,-42,65,9,7,25,-19,23,-55
-18,52,70,-17,-44,61,6,10,24,-20,21,-55
-19,46,65,-14,-42,55,3,7,20,-19,17,-56
-21,39,60,-9,-41,49,0,2,21,-21,15,-59
-28,33,60,-2,-44,46,0,0,17,-24,13,-61
-32,27,59,2,-46,43,0,-5,15,-27,6,-59
-36,25,61,6,-49,42,0,-8,15,-36,1,-61
-33,25,59,4,-47,41,0,-12,12,-33,-4,-59
-39,25,64,7,-52,44,0,-15,9,-30,-11,-61
-46,25,71,10,-59,47,0,-15,11,-28,-14,-77
-45,25,70,10,-58,47,-4,-15,9,-24,-10,-81
-45,25,70,10,-58,47,-5,-15,12,-28,-12,-80
-44,25,70,10,-58,47,-5,-15,24,-30,-17,-85
-46,25,71,11,-59,47,-5,-11,26,-30,-20,-85
-42,25,67,8,-55,46,-5,-9,24,-30,-23,-84
-40,25,65,7,-53,45,-4,-10,24,-30,-28,-80
-42,23,65,9,-53,44,0,-5,19,-30,-30,-77
-43,19,62,12,-52,40,2,-6,21,-26,-25,-75
-42,17,59,12,-51,38,6,-4,23,-21,-25,-71
-48,13,61,17,-54,36,8,1,26,-19,-24,-70
-44,16,60,14,-52,38,10,5,29,-15,-20,-67
-14,45,59,-16,-37,52,15,10,27,-12,-21,-65
-8,63,72,-28,-40,67,17,14,39,-7,-18,-65
12,84,72,-48,-30,78,35,32,46,0,-13,-61
32,99,67,-66,-18,83,26,34,55,10,-7,-59
64,123,59,-94,2,91,-8,31,60,21,-3,-61
81,139,58,-110,11,98,-42,4,46,16,1,-65
60,105,44,-82,7,74,-60,-21,42,9,6,-64
69,109,40,-89,14,74,-50,-22,28,2,-4,-66
29,102,74,-66,-23,88,-42,-18,25,-3,-11,-64
-15,54,69,-20,-42,61,-35,-19,17,-12,-27,-71
-34,25,60,4,-47,42,-27,-13,16,-15,-44,-98
-46,9,55,19,-51,32,-23,-14,13,-22,-46,-108
-37,9,46,14,-42,28,-21,-23,4,-27,-44,-98
-44,6,50,19,-48,28,-14,-17,12,-31,-44,-99
-54,1,55,26,-54,28,-16,-32,-7,-40,-48,-93
-36,2,38,17,-38,20,-5,7,22,-26,-39,-88
-49,-6,42,27,-45,18,17,-29,-19,-61,-66,-117
-158,-8,150,83,-154,71,245,155,69,-69,-119,-167
25,251,226,-138,-101,239,364,558,522,367,161,28
840,951,111,-895,364,531,-147,1020,1530,1565,1084,720
1176,1086,-90,-1131,633,497,-622,797,1606,1660,1307,956
581,394,-188,-487,385,103,-728,-485,-22,173,415,402
245,95,-150,-170,197,-28,-627,-758,-559,-326,36,118
195,126,-70,-160,132,28,-318,-291,-169,-124,56,68
83,61,-22,-72,52,19,-101,-156,-126,-139,-22,-58
34,40,6,-37,14,23,-15,-27,-23,-91,-42,-98
2,26,24,-15,-11,25,21,-27,-29,-109,-73,-112
-8,24,31,-8,-20,27,25,0,-2,-85,-60,-120
-14,16,30,-1,-23,23,26,-2,-3,-86,-69,-120
-15,8,23,3,-19,15,28,2,-1,-80,-70,-120
-13,7,20,2,-17,13,31,14,13,-78,-69,-119
12,27,15,-20,-2,21,30,10,9,-80,-71,-121
28,38,10,-33,9,24,35,33,20,-71,-68,-119
23,30,7,-27,8,18,35,48,12,-78,-71,-116
29,27,-2,-28,15,12,35,59,17,-69,-69,-114
28,22,-6,-25,17,8,35,57,19,-71,-71,-115
33,17,-16,-25,24,1,35,64,29,-70,-70,-115
35,15,-20,-25,27,-2,33,64,28,-70,-64,-115
56,31,-26,-43,41,2,29,83,42,-71,-58,-112
90,42,-47,-66,68,-2,30,98,59,-69,-51,-103
95,37,-57,-65,76,-9,30,109,68,-66,-45,-92
122,45,-78,-83,100,-16,30,138,83,-63,-37,-84
160,61,-99,-110,129,-19,30,154,94,-60,-17,-77
197,67,-130,-132,164,-31,23,168,109,-56,-4,-71
226,81,-145,-153,185,-32,12,168,109,-55,0,-64
256,92,-164,-174,210,-36,3,158,102,-51,5,-57
284,88,-196,-186,240,-53,-7,153,99,-44,8,-57
265,85,-180,-175,222,-47,-12,146,93,-40,15,-60
239,84,-155,-161,197,-36,-17,128,90,-34,13,-63
191,77,-113,-134,152,-18,-19,99,83,-29,2,-66
131,88,-42,-110,86,23,-16,70,73,-24,-7,-70
109,105,-5,-107,57,50,-13,42,65,-20,-18,-78
98,97,-1,-98,49,48,-10,24,55,-20,-25,-84
65,91,26,-78,19,58,-8,12,48,-20,-33,-93
29,83,54,-56,-13,69,-4,4,43,-20,-34,-101
31,75,44,-53,-7,60,-8,-5,40,-20,-38,-108
32,69,37,-51,-3,53,-10,-14,37,-21,-49,-110
-2,65,67,-32,-35,65,-10,-20,32,-19,-49,-110
12,63,52,-38,-20,57,-14,-23,29,-22,-39,-114
29,59,30,-44,-1,44,-15,-25,25,-30,-46,-115
16,57,42,-37,-13,49,-15,-39,25,-30,-65,-114
11,53,42,-33,-16,47,-9,-39,24,-29,-61,-111
9,53,45,-32,-18,49,-4,-33,20,-26,-54,-106
-3,45,48,-21,-26,46,1,-31,19,-25,-50,-104
-12,52,64,-21,-38,58,7,-26,23,-24,-43,-99
10,76,66,-43,-28,71,13,-24,25,-17,-39,-96
7,74,67,-41,-31,71,13,-20,26,-13,-35,-93
3,79,76,-41,-37,77,9,-18,30,-7,-33,-88
13,80,66,-47,-26,73,10,-15,30,-1,-30,-85
22,83,61,-53,-20,72,6,-12,34,4,-26,-82
41,96,55,-69,-7,75,5,-9,39,2,-25,-77
47,91,45,-69,1,68,5,-14,40,-1,-24,-75
25,86,61,-56,-18,73,0,-15,40,0,-27,-79
9,83,74,-46,-33,78,0,-15,40,0,-38,-81
14,77,63,-46,-25,70,0,-20,40,1,-41,-79
17,73,57,-45,-21,65,0,-20,40,-2,-40,-84
34,84,50,-59,-9,67,1,-21,40,-5,-40,-91
51,91,40,-71,5,65,-3,-25,35,-7,-40,-88
34,85,51,-60,-9,68,-5,-24,35,-10,-39,-85
11,82,72,-47,-31,77,-5,-28,34,-13,-34,-82
13,79,66,-47,-26,72,-5,-30,30,-16,-36,-80
11,73,62,-42,-26,67,-5,-30,30,-15,-32,-76
19,76,57,-48,-19,66,-5,-34,28,-15,-30,-81
35,89,54,-63,-10,71,-5,-35,24,-15,-30,-91
40,86,45,-63,-3,65,-5,-35,26,-16,-34,-89
32,79,47,-56,-8,63,-5,-35,23,-14,-35,-90
3,75,72,-39,-34,73,-5,-34,32,-16,-36,-90
1,68,66,-35,-33,67,-5,-36,50,-28,-42,-90
3,66,63,-35,-30,65,-3,-40,50,-31,-36,-94
10,70,60,-40,-25,65,1,-40,50,-30,-46,-95
16,70,54,-43,-19,62,0,-40,50,-27,-62,-95
13,72,58,-43,-23,65,0,-40,50,-24,-59,-95
18,77,59,-47,-21,67,0,-40,50,-25,-60,-95
11,73,63,-42,-26,67,0,-36,50,-20,-60,-94
24,77,53,-51,-15,65,6,-29,50,-19,-60,-88
-1,71,72,-35,-37,71,15,-23,49,-16,-56,-81
-11,83,94,-36,-53,88,23,-16,50,-13,-45,-75
5,93,88,-49,-42,90,30,-9,50,-10,-35,-67
2,93,91,-48,-45,92,42,-2,60,-6,-25,-62
51,140,89,-96,-19,114,38,2,77,6,-14,-56
76,167,90,-122,-7,128,9,11,73,30,-6,-55
98,171,73,-135,12,122,-31,-3,55,24,-4,-55
95,149,53,-122,21,101,-41,-28,42,-3,-5,-50
79,125,46,-102,16,85,-38,-33,31,-11,-5,-50
76,116,40,-96,18,78,-27,-26,31,-16,-6,-50
9,73,64,-41,-27,68,3,-34,22,-26,-37,-68
-10,59,69,-25,-39,64,12,-27,22,-31,-56,-96
-8,49,57,-21,-33,53,9,-30,15,-40,-54,-102
-9,46,55,-19,-32,50,8,-34,24,-41,-56,-98
-7,36,43,-14,-26,39,7,-33,35,-52,-67,-107
-26,17,43,4,-35,30,2,-50,8,-60,-73,-103
9,37,28,-23,-10,32,12,-11,34,-46,-64,-107
-17,22,39,-3,-28,30,35,-60,-18,-75,-84,-116
-159,-1,158,80,-159,79,284,150,81,-71,-118,-146
85,306,221,-196,-69,263,370,573,582,408,201,67
951,1040,89,-995,431,564,-183,1025,1597,1585,1111,766
1160,1079,-81,-1119,621,499,-635,690,1510,1527,1227,914
542,350,-192,-446,367,79,-732,-593,-122,68,336,349
265,98,-167,-181,216,-34,-597,-754,-513,-313,32,119
196,116,-81,-156,138,17,-266,-288,-142,-121,43,60
99,67,-32,-83,65,17,-74,-163,-110,-142,-54,-36
34,60,27,-47,3,44,-9,-55,-14,-100,-63,-71
10,42,32,-26,-11,37,17,-56,-33,-120,-85,-108
19,46,27,-32,-4,36,36,-16,0,-96,-76,-105
11,37,26,-24,-8,31,53,-16,1,-99,-82,-106
9,34,25,-22,-8,29,56,-7,10,-98,-80,-105
29,30,1,-29,14,15,61,5,24,-99,-79,-105
53,25,-29,-38,40,-2,59,6,26,-102,-83,-105
48,25,-24,-36,36,1,60,17,35,-98,-84,-104
44,19,-26,-31,35,-3,60,15,25,-102,-86,-106
42,21,-21,-31,31,0,59,19,27,-97,-84,-104
55,35,-20,-45,38,7,64,30,24,-96,-86,-105
60,42,-18,-51,39,12,65,30,27,-92,-85,-105
77,39,-38,-58,57,1,76,44,36,-90,-81,-105
92,37,-55,-64,74,-9,89,68,38,-87,-76,-100
75,34,-41,-54,57,-3,85,76,49,-85,-73,-92
88,34,-53,-61,70,-9,80,95,77,-82,-68,-84
144,56,-88,-100,116,-16,75,114,87,-80,-63,-76
184,71,-113,-127,148,-20,69,133,89,-80,-51,-69
207,72,-135,-139,171,-32,64,131,97,-75,-36,-64
233,75,-158,-154,195,-41,57,143,115,-75,-26,-59
243,72,-171,-158,207,-49,51,144,119,-74,-22,-54
243,62,-181,-152,212,-60,44,126,110,-67,-19,-50
265,66,-199,-165,232,-67,37,119,105,-61,-16,-44
273,85,-187,-179,230,-51,31,102,97,-54,-11,-49
216,83,-133,-149,174,-25,30,81,92,-47,-11,-50
165,78,-87,-122,126,-4,30,49,85,-41,-18,-51
124,76,-48,-100,86,14,30,22,77,-36,-22,-72
87,71,-16,-79,51,27,30,3,71,-31,-28,-78
41,69,28,-55,7,48,30,-6,63,-27,-34,-81
2,64,61,-33,-30,62,30,-12,56,-23,-38,-85
5,59,54,-32,-24,56,30,-20,49,-18,-44,-85
7,55,48,-31,-21,51,30,-27,45,-15,-45,-90
9,50,41,-30,-16,45,30,-34,43,-13,-46,-90
12,45,33,-29,-11,39,30,-30,39,-9,-49,-90
12,45,33,-29,-11,39,30,-30,37,-14,-51,-90
4,45,41,-25,-19,42,34,-30,34,-20,-49,-90
-9,45,54,-19,-32,50,35,-30,32,-24,-51,-90
-7,45,51,-19,-30,48,43,-44,28,-31,-59,-90
-3,45,49,-21,-26,47,45,-46,26,-35,-56,-89
5,45,40,-25,-18,42,38,-44,23,-44,-50,-85
-4,45,49,-21,-27,46,51,-46,20,-51,-45,-85
-17,55,72,-19,-45,63,61,-44,19,-45,-38,-85
-12,54,66,-21,-40,60,56,-47,14,-41,-34,-85
-9,55,63,-24,-36,59,54,-50,22,-36,-29,-85
-15,45,60,-15,-37,53,49,-50,31,-31,-26,-81
7,62,55,-35,-24,58,46,-50,30,-27,-23,-80
23,80,57,-52,-18,69,43,-50,29,-25,-18,-80
-10,51,61,-20,-36,56,38,-50,25,-25,-15,-80
-14,51,65,-19,-40,58,35,-50,24,-25,-15,-80
-11,53,65,-22,-38,59,32,-50,34,-25,-15,-81
-19,46,65,-14,-42,55,27,-50,41,-25,-15,-85
-20,45,65,-13,-43,55,25,-50,35,-30,-15,-85
-25,40,65,-8,-45,52,30,-50,33,-30,-15,-87
-29,36,65,-4,-47,50,30,-50,28,-31,-16,-90
-31,36,67,-2,-50,51,31,-50,25,-35,-20,-90
-30,40,71,-5,-51,56,36,-49,25,-35,-20,-90
-30,40,69,-5,-50,55,34,-63,24,-35,-20,-90
-28,42,70,-7,-49,56,44,-72,26,-35,-20,-90
-25,46,70,-10,-48,57,51,-69,24,-35,-20,-90
-24,45,69,-10,-47,57,50,-70,29,-35,-20,-90
-23,41,64,-10,-44,53,48,-70,35,-35,-20,-89
-10,40,50,-15,-30,44,45,-70,32,-35,-20,-85
-7,40,47,-17,-27,43,45,-65,28,-35,-20,-85
16,40,25,-28,-5,32,45,-65,26,-35,-20,-85
2,39,37,-21,-17,38,45,-65,19,-35,-19,-85
-42,41,84,0,-63,62,45,-65,24,-35,-13,-85
-34,45,79,-6,-57,62,45,-66,36,-36,-8,-82
-21,48,69,-14,-45,58,45,-62,32,-32,-3,-76
-7,59,65,-26,-36,62,60,-60,45,-20,4,-71
19,72,54,-46,-18,63,62,-56,57,-7,8,-68
36,88,52,-63,-8,70,49,-54,70,4,18,-62
45,109,64,-77,-9,86,41,-50,82,18,26,-61
81,135,54,-108,14,94,27,-50,63,22,19,-65
66,117,50,-92,8,83,8,-62,55,13,16,-65
62,98,36,-80,13,67,-10,-74,44,1,11,-69
41,86,44,-64,-2,65,-5,-67,41,-6,7,-70
-40,34,73,2,-57,53,20,-75,31,-19,1,-74
-32,17,49,7,-41,33,42,-76,26,-23,-5,-87
-52,-8,44,30,-48,17,47,-71,22,-31,-12,-100
-69,-16,53,42,-60,18,43,-77,10,-39,-21,-100
-75,-9,66,42,-70,28,44,-59,25,-45,-25,-101
-84,-2,81,42,-82,39,37,-83,1,-57,-38,-106
-73,2,75,36,-74,38,42,-44,34,-40,-29,-103
-103,-23,81,63,-92,29,50,-81,-9,-64,-46,-107
-158,-20,138,88,-148,59,257,83,65,-62,-100,-157
-8,164,172,-78,-90,168,421,509,500,308,127,-10
791,831,40,-811,375,435,-33,962,1457,1448,1020,671
1178,1048,-130,-1113,654,459,-522,794,1637,1664,1339,980
571,395,-175,-483,373,110,-618,-486,53,213,456,435
235,104,-132,-169,183,-14,-535,-862,-589,-361,22,118
151,102,-48,-126,99,27,-279,-367,-181,-155,56,78
45,22,-23,-33,34,-1,-65,-201,-118,-159,-23,-43
31,4,-27,-17,29,-11,32,-66,-14,-99,-41,-84
-22,-29,-7,26,-7,-18,62,-60,-17,-123,-62,-100
-25,-28,-3,26,-11,-15,65,-37,6,-106,-53,-100
-21,-19,2,20,-11,-8,60,-33,11,-108,-66,-100
-35,-31,4,33,-20,-14,63,-31,11,-107,-66,-97
-59,-55,5,56,-31,-25,81,-16,28,-100,-63,-93
-54,-56,-3,55,-25,-29,72,-20,23,-103,-67,-97
-44,-53,-9,49,-17,-31,66,-6,35,-98,-63,-98
-41,-57,-16,50,-12,-36,60,-12,27,-100,-65,-105
-30,-52,-23,41,-3,-37,51,-3,37,-102,-59,-103
-33,-61,-29,47,-2,-45,57,-3,34,-118,-58,-98
-35,-70,-34,53,0,-52,60,0,36,-113,-54,-95
-28,-63,-34,46,3,-48,60,3,41,-110,-51,-91
-17,-56,-39,37,11,-47,57,12,42,-108,-50,-87
-3,-50,-47,27,22,-48,55,49,65,-105,-46,-84
20,-43,-63,12,41,-52,55,70,78,-104,-37,-77
36,-38,-74,1,55,-56,52,80,85,-99,-29,-63
73,-31,-104,-21,89,-67,45,95,105,-100,-21,-53
106,-24,-131,-41,119,-77,40,108,114,-100,-14,-50
138,-17,-156,-60,147,-86,33,124,122,-100,-9,-47
188,-11,-199,-89,194,-105,0,116,119,-100,-3,-44
180,-5,-185,-87,183,-94,-18,105,110,-94,0,-41
180,0,-180,-90,180,-90,-8,94,104,-88,5,-39
160,0,-161,-80,160,-80,-6,70,95,-84,10,-36
108,2,-105,-55,106,-51,1,43,90,-77,6,-33
66,6,-60,-35,62,-27,6,17,80,-73,-3,-44
9,5,-4,-7,6,0,11,-8,70,-67,-9,-57
-4,0,4,2,-4,1,20,-29,60,-65,-17,-58
-50,-6,44,28,-47,18,22,-31,51,-65,-24,-59
-94,-11,83,52,-88,35,19,-55,44,-65,-31,-70
-88,-17,71,52,-79,27,16,-84,38,-66,-40,-70
-101,-23,77,61,-89,27,13,-84,31,-64,-47,-70
-98,-24,74,61,-86,25,10,-86,24,-72,-56,-85
-104,-29,75,66,-89,23,11,-89,18,-81,-61,-91
-107,-35,72,71,-89,18,15,-91,15,-79,-59,-90
-98,-30,68,64,-83,19,18,-89,15,-80,-60,-88
-92,-25,67,58,-79,21,22,-85,13,-80,-60,-84
-84,-23,62,53,-73,19,25,-85,10,-80,-60,-85
-77,-14,62,45,-69,24,21,-83,10,-77,-56,-82
-75,-20,55,47,-65,17,20,-80,14,-72,-50,-77
-104,-34,70,68,-87,18,20,-80,20,-70,-45,-74
-113,-26,87,69,-100,31,15,-83,26,-65,-39,-70
-98,-14,84,56,-91,35,15,-85,31,-62,-34,-67
-92,-7,85,49,-88,39,14,-85,39,-58,-28,-63
-89,-4,85,46,-86,40,10,-85,46,-54,-25,-59
-94,-9,85,51,-90,38,10,-85,41,-48,-25,-53
-91,-10,81,50,-86,35,10,-83,38,-45,-25,-50
-84,-10,74,47,-79,32,10,-80,35,-40,-25,-45
-80,-10,70,45,-75,30,10,-77,29,-35,-26,-40
-74,-10,64,42,-69,27,18,-75,36,-49,-24,-43
-69,-11,58,40,-64,23,20,-71,40,-57,-28,-46
-71,-16,55,43,-63,20,13,-69,33,-54,-40,-44
-82,-19,62,50,-72,21,10,-74,30,-56,-40,-46
-90,-22,67,55,-78,22,5,-75,25,-54,-40,-44
-89,-27,62,57,-75,18,1,-75,20,-57,-40,-47
-108,-30,78,69,-93,24,3,-75,24,-65,-41,-55
-134,-34,100,83,-116,33,6,-75,25,-65,-54,-55
-128,-35,93,81,-110,28,9,-74,25,-65,-56,-55
-120,-35,85,77,-102,25,12,-70,30,-65,-55,-55
-115,-35,80,75,-97,22,15,-70,30,-65,-55,-55
-107,-35,71,71,-88,18,16,-70,31,-64,-55,-54
-104,-34,70,69,-87,18,20,-70,35,-60,-54,-50
-98,-29,70,64,-84,20,20,-70,35,-60,-49,-47
-94,-24,70,59,-82,23,20,-67,34,-60,-46,-45
-90,-20,70,55,-80,25,20,-61,36,-60,-43,-41
-85,-15,69,50,-77,27,20,-57,33,-61,-38,-40
-82,-11,71,46,-76,30,24,-52,41,-56,-36,-35
-67,-6,61,36,-64,28,26,-48,46,-45,-30,-26
-48,6,55,21,-52,30,43,-42,61,-35,-22,-18
-10,29,39,-10,-25,34,49,-40,76,-25,-16,-9
6,49,43,-28,-18,46,21,-28,82,-17,-10,-3
-22,54,76,-16,-49,65,-22,-35,91,-11,-11,3
-38,37,75,0,-56,56,-41,-68,67,-15,-9,8
-43,20,64,11,-54,42,-30,-79,48,-29,-12,15
-49,10,60,19,-55,35,-20,-73,49,-39,-7,8
-76,-27,49,51,-63,11,-10,-76,38,-49,-25,-11
-100,-56,44,78,-72,-5,-3,-77,31,-64,-61,-33
-106,-72,33,89,-69,-19,3,-69,30,-77,-65,-49
-98,-81,17,89,-57,-32,7,-77,17,-83,-66,-51
-127,-75,52,101,-89,-11,16,-53,36,-75,-62,-48
-153,-73,80,113,-116,3,18,-75,12,-91,-69,-52
-140,-67,73,103,-106,2,29,-39,40,-77,-60,-49
-141,-66,75,103,-108,4,25,-61,11,-91,-67,-50
-184,-72,112,128,-148,20,188,45,39,-109,-130,-113
-141,56,197,42,-169,126,405,443,402,174,11,-23
570,682,112,-626,228,397,18,871,1294,1288,866,625
1128,1049,-79,-1089,603,485,-517,861,1744,1841,1410,1079
612,458,-154,-535,383,152,-651,-297,317,465,619,607
164,23,-141,-94,153,-59,-596,-878,-608,-387,37,197
104,33,-72,-68,88,-19,-344,-405,-230,-182,34,140
20,-8,-28,-5,24,-18,-116,-203,-131,-173,-57,25
-34,-47,-14,40,-10,-30,-21,-79,-33,-111,-70,-27
-50,-57,-7,54,-21,-32,22,-53,-8,-113,-87,-46
-56,-63,-7,60,-24,-35,29,-34,6,-104,-86,-49
-83,-88,-5,86,-39,-46,39,-18,23,-92,-94,-59
-73,-84,-11,78,-30,-47,40,-25,11,-95,-95,-61
-64,-79,-15,72,-24,-46,46,-4,30,-76,-86,-54
-70,-79,-9,75,-30,-44,49,-9,21,-87,-89,-55
-66,-73,-7,70,-29,-40,50,5,34,-87,-78,-48
-40,-76,-36,58,-1,-56,50,5,28,-92,-83,-51
-23,-75,-52,49,15,-63,50,15,31,-89,-84,-49
-29,-73,-43,52,7,-58,50,21,30,-90,-82,-50
-40,-84,-44,62,2,-64,48,27,29,-90,-79,-50
-58,-90,-32,74,-13,-61,44,39,31,-87,-76,-50
-25,-75,-50,50,13,-62,42,58,55,-85,-73,-51
30,-65,-95,18,63,-80,39,77,68,-85,-70,-45
37,-56,-92,10,65,-74,36,92,62,-82,-69,-36
47,-45,-92,-1,69,-68,35,112,73,-80,-63,-28
78,-35,-113,-21,95,-73,29,137,98,-80,-56,-19
108,-28,-136,-39,122,-82,21,154,113,-80,-49,-10
144,-24,-168,-60,156,-96,14,160,112,-80,-42,0
161,-19,-181,-71,171,-100,6,161,123,-80,-36,11
179,-15,-194,-82,187,-105,-2,150,125,-80,-38,12
180,-10,-190,-85,185,-100,-3,139,109,-80,-41,5
161,-6,-167,-77,164,-86,1,118,97,-78,-39,0
140,4,-136,-72,138,-66,0,94,85,-72,-45,-6
83,9,-74,-45,78,-33,4,71,74,-67,-44,-12
45,3,-42,-24,43,-19,5,47,62,-64,-47,-16
7,-4,-11,-1,9,-8,5,24,53,-58,-62,-29
-47,-10,37,29,-42,13,10,2,42,-55,-67,-32
-58,-18,40,38,-49,11,10,-9,33,-59,-63,-37
-59,-24,35,41,-47,6,11,-16,23,-61,-68,-61
-62,-28,33,45,-47,2,15,-23,12,-59,-86,-66
-63,-35,28,49,-45,-3,15,-31,4,-63,-91,-64
-65,-40,25,52,-45,-7,15,-38,-5,-68,-93,-66
-62,-41,21,51,-42,-10,15,-40,-14,-66,-96,-65
-57,-38,20,47,-38,-9,15,-40,-22,-64,-89,-64
-71,-51,20,61,-46,-15,15,-40,-21,-65,-91,-59
-79,-59,20,69,-49,-20,15,-40,-20,-64,-89,-54
-70,-50,20,60,-45,-15,15,-40,-19,-65,-85,-50
-66,-45,21,55,-43,-11,10,-39,-15,-63,-85,-45
-62,-37,25,49,-43,-6,10,-34,-16,-56,-82,-41
-76,-32,44,54,-60,6,10,-31,-13,-51,-80,-36
-76,-25,51,50,-63,13,10,-28,-10,-46,-77,-33
-65,-22,44,43,-54,11,11,-23,-10,-40,-74,-29
-53,-11,42,32,-48,15,7,-20,-10,-35,-70,-26
-57,-19,38,38,-48,9,5,-16,-10,-35,-70,-20
-71,-40,31,55,-51,-4,5,-15,-10,-35,-75,-21
-79,-33,47,56,-63,7,1,-15,-15,-34,-75,-34
-81,-25,55,53,-68,15,0,-11,-20,-36,-75,-36
-69,-20,49,45,-59,15,0,-9,-24,-33,-74,-35
-58,-12,46,35,-52,17,0,-12,-29,-42,-78,-35
-53,-10,43,31,-48,16,0,-15,-33,-56,-85,-35
-57,-18,38,38,-47,10,0,-18,-38,-55,-85,-34
-57,-21,36,39,-47,8,0,-20,-40,-53,-83,-30
-83,-30,53,56,-68,11,0,-24,-40,-50,-80,-30
-94,-43,51,68,-73,4,0,-25,-40,-50,-79,-30
-81,-37,44,58,-62,4,0,-28,-40,-48,-83,-30
-75,-35,40,55,-57,2,0,-30,-39,-57,-85,-30
-64,-31,33,48,-48,1,0,-30,-35,-60,-85,-34
-60,-30,30,45,-45,0,0,-30,-35,-54,-85,-35
-59,-30,29,44,-44,0,0,-30,-34,-52,-85,-35
-68,-36,32,52,-50,-2,-5,-29,-30,-47,-85,-40
-48,-40,8,44,-28,-16,-5,-24,-29,-44,-82,-40
-49,-33,17,41,-33,-8,-6,-21,-39,-41,-79,-39
-78,-30,48,54,-63,9,-2,-18,-46,-40,-80,-34
-67,-25,42,45,-54,8,3,-14,-40,-41,-76,-31
-68,-21,48,44,-58,13,10,-10,-39,-40,-75,-28
-64,-16,48,40,-55,16,15,-6,-33,-41,-75,-23
-56,-4,52,30,-54,23,21,4,-30,-37,-71,-20
-43,5,48,19,-46,27,42,11,-33,-35,-68,-16
-3,37,39,-17,-21,38,24,20,-36,-34,-65,-15
-4,74,78,-35,-41,76,-16,24,-34,-32,-63,-15
1,67,66,-35,-33,67,-38,-4,-38,-29,-59,-10
14,47,34,-30,-10,40,-40,-22,-54,-31,-62,-10
-5,35,40,-15,-23,37,-33,-33,-64,-48,-67,-11
-20,8,28,6,-24,17,-29,-32,-62,-49,-70,-19
-61,-27,34,44,-47,3,-26,-35,-73,-54,-77,-31
-103,-45,58,74,-80,6,-20,-23,-68,-65,-87,-39
-112,-52,61,82,-86,4,-17,-27,-79,-81,-99,-51
-102,-46,55,74,-78,4,-13,-20,-73,-82,-100,-48
-99,-46,53,72,-75,4,-9,-12,-77,-87,-100,-51
-93,-41,51,67,-72,5,-8,-16,-88,-84,-101,-49
-84,-38,46,61,-65,4,-2,22,-64,-82,-97,-48
-122,-55,66,88,-94,6,41,-23,-117,-101,-119,-66
-214,-56,157,135,-185,50,307,212,19,-66,-156,-96
119,310,192,-214,-37,251,307,650,589,523,266,196
968,994,27,-981,470,510,-261,1096,1610,1691,1176,903
1022,883,-139,-952,581,372,-651,578,1241,1337,1092,932
413,222,-192,-317,302,15,-723,-690,-392,-90,217,358
205,45,-160,-125,182,-57,-568,-672,-576,-309,-7,173
118,30,-87,-74,102,-28,-260,-246,-253,-172,-14,102
26,-25,-51,0,39,-38,-83,-124,-213,-161,-84,11
-40,-54,-14,47,-12,-34,-9,-9,-108,-98,-89,-9
-56,-64,-8,60,-24,-36,15,-23,-132,-121,-113,-26
-40,-52,-12,46,-14,-31,31,12,-100,-102,-100,-27
-48,-56,-8,52,-20,-32,41,-1,-115,-115,-105,-42
-20,-48,-28,34,4,-38,39,14,-102,-107,-98,-44
-25,-51,-26,38,0,-38,40,17,-100,-111,-100,-45
-37,-50,-12,44,-13,-31,34,21,-100,-111,-104,-45
-52,-62,-10,57,-20,-36,35,30,-91,-109,-104,-45
-49,-65,-16,57,-16,-40,37,31,-98,-112,-107,-46
-29,-56,-26,43,-1,-41,40,41,-92,-109,-108,-44
-24,-55,-31,40,4,-42,43,42,-97,-111,-111,-40
-4,-48,-44,26,20,-46,45,53,-94,-110,-108,-33
-4,-45,-41,25,19,-43,52,65,-88,-110,-103,-29
13,-39,-52,14,32,-45,50,79,-79,-111,-96,-22
27,-34,-61,4,44,-47,43,90,-71,-121,-89,-18
30,-29,-59,0,45,-44,40,112,-62,-119,-83,-12
75,-23,-98,-26,87,-60,32,136,-49,-114,-73,-3
102,-18,-119,-42,111,-68,28,149,-37,-111,-58,7
128,-12,-140,-57,134,-76,21,160,-34,-106,-45,20
161,-8,-169,-76,165,-89,10,163,-35,-104,-39,31
174,-5,-179,-85,177,-92,-2,156,-35,-96,-40,42
193,-2,-195,-96,194,-98,-12,146,-35,-88,-40,42
214,3,-211,-108,213,-104,-11,139,-35,-80,-40,36
179,5,-174,-92,176,-84,-5,123,-34,-72,-40,31
114,0,-114,-57,114,-56,-1,92,-39,-66,-40,25
69,-3,-72,-32,71,-38,4,67,-56,-62,-40,20
23,-7,-29,-8,26,-18,9,49,-62,-59,-42,15
-9,-10,-1,10,-4,-5,8,37,-65,-56,-53,12
-39,-15,24,26,-31,4,4,26,-83,-51,-59,9
-52,-13,39,32,-45,13,5,14,-84,-51,-60,4
-45,-5,40,25,-42,17,5,6,-98,-55,-73,1
-42,-1,40,21,-41,19,5,-1,-121,-54,-81,-3
-45,-5,39,25,-42,17,4,-8,-119,-57,-79,-5
-61,-21,41,41,-51,10,0,-16,-122,-60,-80,-8
-57,-18,39,38,-48,10,0,-23,-125,-60,-80,-11
-67,-31,36,48,-51,3,0,-25,-125,-60,-80,-14
-86,-51,35,68,-60,-8,0,-25,-123,-60,-78,-15
-78,-43,35,60,-56,-4,0,-25,-119,-60,-74,-10
-75,-39,36,56,-55,-1,3,-25,-120,-60,-75,-5
-62,-33,29,47,-46,-2,5,-25,-120,-60,-75,-1
-69,-27,42,48,-55,7,5,-24,-120,-59,-75,4
-75,-23,52,49,-63,14,5,-19,-120,-54,-74,8
-69,-19,50,44,-59,15,5,-16,-120,-49,-70,13
-67,-21,46,44,-57,12,5,-13,-120,-45,-65,15
-61,-16,45,38,-53,15,0,-8,-120,-40,-60,19
-59,-15,44,37,-51,15,0,-5,-120,-36,-57,20
-51,-15,37,33,-44,11,-1,-9,-119,-31,-49,15
-62,-10,51,36,-56,20,-5,-11,-123,-30,-59,15
-62,-10,52,36,-57,21,-5,-10,-125,-30,-72,15
-50,-7,43,28,-46,18,-7,-15,-125,-31,-69,15
-45,-4,40,24,-42,18,-13,-14,-128,-29,-70,16
-40,-8,33,24,-36,12,-16,-17,-131,-33,-70,12
-43,-14,29,28,-36,7,-22,-25,-129,-45,-70,10
-43,-19,25,31,-34,2,-24,-25,-126,-42,-70,10
-49,-24,25,36,-37,0,-21,-24,-125,-36,-70,10
-56,-31,26,43,-41,-2,-18,-21,-125,-33,-70,10
-58,-34,24,46,-41,-5,-15,-19,-125,-26,-70,11
-62,-36,26,49,-44,-5,-13,-21,-125,-26,-70,14
-53,-34,20,43,-36,-7,-9,-25,-125,-30,-69,17
-62,-39,24,51,-43,-7,-12,-25,-125,-30,-65,20
-90,-46,45,67,-67,-1,-16,-25,-125,-32,-65,23
-83,-39,43,61,-63,2,-15,-25,-125,-35,-65,25
-74,-36,39,55,-56,1,-19,-25,-125,-35,-65,25
-67,-31,36,48,-51,2,-21,-42,-124,-35,-65,25
-58,-27,31,42,-44,1,-19,-46,-120,-35,-61,25
-55,-25,30,40,-42,2,-16,-44,-120,-35,-60,25
-69,-39,30,54,-50,-4,-11,-45,-120,-35,-60,25
-80,-50,30,65,-55,-10,-10,-45,-120,-35,-55,25
-64,-35,30,50,-47,-2,-3,-44,-121,-34,-55,29
-65,-23,42,44,-53,9,-2,-28,-118,-28,-54,29
-55,-12,43,33,-49,15,7,-9,-113,-21,-49,30
-39,-3,35,21,-37,16,28,0,-110,-14,-43,29
-9,23,32,-7,-21,27,27,11,-106,-7,-40,38
23,47,24,-35,-1,36,8,23,-102,-1,-35,54
16,38,21,-27,-3,29,-30,-4,-99,-4,-31,51
6,30,24,-18,-10,27,-47,-23,-103,-10,-25,45
-4,21,25,-9,-15,23,-39,-27,-121,-15,-25,40
-16,9,25,3,-21,17,-36,-28,-121,-20,-24,35
-43,-18,25,30,-34,3,-28,-31,-127,-26,-25,28
-94,-68,25,81,-59,-21,-25,-37,-135,-34,-44,24
-116,-91,25,103,-70,-33,-17,-30,-131,-40,-51,17
-115,-89,25,102,-70,-32,-16,-43,-142,-41,-51,11
-115,-90,25,102,-70,-32,-4,-23,-125,-31,-47,5
-115,-90,25,102,-70,-32,-6,-51,-148,-39,-54,-4
-115,-90,25,102,-70,-32,9,-10,-120,-22,-45,-6
-110,-86,24,97,-67,-30,14,-27,-148,-42,-55,-27
-198,-105,93,151,-146,-6,185,63,-128,-80,-118,-61
-112,57,169,27,-141,113,410,461,234,213,55,65
671,726,55,-698,308,390,0,971,1188,1294,877,678
1195,1039,-156,-1117,675,441,-559,986,1601,1714,1320,1062
673,405,-268,-538,470,69,-726,-267,129,397,541,584
232,-11,-243,-110,237,-126,-661,-862,-737,-334,29,223
169,18,-151,-93,160,-66,-367,-383,-370,-153,55,177
67,-25,-91,-21,79,-58,-124,-205,-284,-152,-23,76
-17,-64,-47,40,16,-56,-25,-81,-182,-90,-43,45
-73,-89,-17,82,-27,-53,13,-52,-170,-97,-65,25
-57,-81,-23,69,-16,-52,29,-28,-165,-91,-59,13
-66,-106,-40,86,-12,-73,51,-14,-153,-83,-59,10
-118,-129,-11,124,-53,-70,55,-19,-163,-87,-62,9
-115,-117,-3,116,-56,-60,55,1,-144,-74,-58,7
-66,-120,-54,94,-6,-87,55,-5,-155,-81,-60,3
-44,-111,-67,78,12,-89,55,11,-138,-69,-52,6
-49,-112,-63,81,7,-87,55,11,-140,-72,-57,9
-34,-103,-69,69,18,-86,58,23,-131,-64,-50,14
-40,-108,-69,74,15,-88,61,27,-126,-64,-50,16
-49,-121,-71,85,11,-96,64,32,-122,-88,-50,21
-31,-104,-73,68,21,-88,64,43,-114,-96,-44,24
-17,-93,-76,56,29,-84,59,59,-108,-89,-39,24
-8,-86,-78,47,35,-82,56,66,-99,-88,-33,18
19,-79,-98,31,58,-88,53,74,-92,-83,-28,35
56,-73,-129,9,93,-101,48,98,-84,-80,-21,56
67,-66,-133,0,100,-99,46,120,-77,-75,-4,62
106,-60,-166,-23,136,-113,41,126,-72,-70,8,74
136,-56,-192,-40,165,-123,30,135,-68,-66,14,74
150,-53,-204,-48,177,-128,22,140,-60,-61,29,92
183,-50,-233,-66,208,-142,12,131,-57,-56,36,106
173,-47,-221,-63,197,-134,6,128,-49,-52,35,94
140,-45,-185,-47,163,-115,11,112,-51,-48,33,90
91,-43,-134,-23,112,-88,14,83,-71,-42,29,81
48,-39,-86,-4,67,-62,17,62,-68,-39,30,74
-8,-41,-33,25,13,-37,22,43,-75,-33,27,68
-47,-39,8,43,-27,-15,25,26,-98,-30,21,64
-50,-41,9,45,-29,-16,25,11,-105,-30,17,62
-61,-39,22,49,-41,-8,25,0,-114,-30,12,58
-67,-35,32,51,-49,-1,25,-5,-128,-30,8,56
-103,-56,47,79,-75,-4,25,-13,-135,-30,3,54
-118,-61,57,89,-88,-1,25,-20,-135,-30,-1,51
-107,-60,47,84,-77,-7,26,-28,-135,-28,-7,48
-107,-58,49,82,-78,-4,30,-34,-135,-24,-10,45
-108,-68,40,88,-74,-14,30,-35,-135,-25,-15,43
-126,-84,42,105,-84,-21,30,-35,-148,-41,-20,39
-125,-75,50,100,-88,-12,29,-35,-149,-45,-17,43
-116,-67,49,91,-82,-9,31,-36,-144,-39,-11,45
-111,-59,51,85,-81,-4,29,-32,-142,-37,-8,45
-72,-53,19,62,-45,-17,32,-41,-137,-32,-2,45
-86,-42,44,64,-64,1,49,-51,-134,-30,1,44
-150,-66,84,107,-116,9,48,-43,-131,-24,6,53
-136,-87,49,111,-93,-18,44,-40,-128,-18,11,62
-111,-70,41,90,-76,-14,41,-35,-125,-14,15,59
-129,-67,63,98,-96,-2,36,-30,-123,-8,20,61
-130,-57,74,93,-102,8,34,-26,-119,-2,25,60
-117,-51,67,84,-92,8,28,-25,-123,-2,29,60
-127,-69,57,98,-92,-6,21,-25,-125,-9,30,69
-131,-77,55,104,-93,-11,14,-25,-125,-14,30,70
-115,-74,41,95,-78,-16,7,-25,-124,-19,30,70
-112,-75,37,94,-74,-19,1,-26,-127,-26,30,70
-135,-75,60,104,-97,-7,3,-35,-140,-29,29,70
-142,-77,65,109,-103,-6,9,-35,-137,-25,24,70
-143,-87,55,115,-99,-16,13,-30,-130,-20,22,70
-133,-78,55,105,-94,-11,18,-29,-128,-16,18,71
-107,-61,47,84,-77,-7,22,-24,-121,-12,15,62
-143,-95,48,118,-95,-23,27,-26,-121,-6,34,76
-174,-111,63,142,-118,-24,30,-31,-125,-7,39,83
-157,-99,58,128,-107,-20,30,-28,-125,-11,29,71
-147,-97,50,122,-98,-23,30,-35,-125,-10,28,66
-133,-89,44,111,-89,-22,30,-40,-125,-14,18,57
-119,-86,33,102,-76,-26,30,-33,-125,-15,17,51
-115,-78,37,96,-76,-20,33,-30,-121,-15,18,57
-123,-70,53,96,-88,-8,36,-25,-115,-9,22,64
-127,-62,64,94,-95,1,40,-21,-111,0,24,69
-117,-54,63,85,-90,4,41,-13,-104,8,24,70
-111,-47,64,79,-87,8,48,2,-98,16,43,70
-80,-27,53,53,-66,13,60,16,-94,24,52,90
-76,-14,62,44,-69,24,54,14,-86,47,66,112
-89,-7,82,48,-85,37,11,-2,-76,61,73,126
-75,-8,67,41,-71,30,-24,-16,-92,49,64,136
-71,-23,48,47,-59,12,-18,-38,-116,35,60,128
-64,-26,38,45,-50,6,-10,-42,-116,25,54,127
-117,-53,63,85,-90,5,0,-37,-112,16,49,113
-186,-110,76,148,-131,-17,4,-45,-123,3,42,87
-179,-121,58,150,-119,-31,11,-32,-124,-1,36,80
-172,-114,58,142,-114,-28,13,-50,-137,-10,28,77
-160,-111,49,136,-105,-31,20,-35,-122,-4,25,76
-129,-109,20,119,-74,-44,22,-63,-138,-17,13,69
-154,-101,54,127,-104,-23,27,-49,-125,-11,11,73
-168,-106,62,137,-115,-22,29,-56,-123,-14,-14,52
-224,-137,87,180,-155,-25,141,-10,-104,-44,-57,4
-254,-63,191,159,-222,63,414,387,175,135,30,56
356,480,124,-418,115,302,163,829,966,1107,753,598
1050,985,-65,-1018,557,460,-419,979,1667,1935,1492,1188
709,546,-163,-628,436,191,-599,-37,496,809,871,848
138,-10,-148,-64,143,-79,-578,-896,-732,-305,124,360
43,-50,-93,4,69,-72,-382,-503,-448,-167,109,289
-20,-70,-50,46,16,-60,-135,-239,-276,-111,58,182
-90,-102,-12,96,-39,-57,-21,-110,-192,-58,27,118
-124,-113,11,118,-67,-51,31,-56,-145,-35,15,96
-151,-130,21,141,-86,-54,42,-60,-156,-46,10,104
-170,-129,41,149,-106,-44,59,-34,-124,-35,13,110
-187,-137,50,161,-118,-43,70,-50,-138,-61,3,95
-168,-132,37,150,-102,-47,70,-29,-112,-50,8,96
-174,-140,34,157,-103,-53,70,-36,-120,-58,-1,83
-176,-150,26,162,-101,-61,69,-24,-109,-49,-2,81
-162,-144,17,153,-89,-63,71,-21,-109,-50,-10,96
-160,-139,21,150,-91,-59,67,-11,-105,-50,-12,112
-94,-136,-42,115,-26,-89,58,-8,-100,-34,-18,113
-85,-129,-44,107,-20,-86,49,15,-95,-23,-19,120
-145,-120,25,132,-85,-47,42,20,-107,-45,-11,121
-137,-144,-6,140,-65,-75,69,31,-118,-40,-3,128
-126,-165,-39,146,-44,-102,87,40,-102,-19,5,128
-93,-171,-78,132,-7,-124,75,38,-98,-18,12,133
-74,-184,-110,129,18,-147,73,65,-114,-13,25,146
