I,II,III,aVR,aVL,aVF,V1,V2,V3,V4,V5,V6
-54,-24,30,39,-42,3,55,10,-50,-50,-70,-140
-45,-21,24,33,-35,1,55,10,-48,-48,-68,-136
-36,-18,17,27,-26,0,66,16,-43,-43,-63,-129
-42,-26,16,34,-29,-5,71,21,-38,-38,-57,-123
-51,-50,1,51,-26,-24,70,28,-35,-35,-52,-115
-79,-50,29,64,-54,-10,71,27,-28,-28,-44,-111
-90,-51,39,70,-64,-6,52,13,-33,-33,-50,-113
-53,-56,-2,55,-25,-29,38,4,-60,-64,-77,-122
-43,-55,-11,49,-15,-33,34,-1,-66,-82,-86,-125
-36,-54,-18,45,-9,-36,28,-6,-64,-82,-82,-118
-29,-45,-17,37,-6,-31,23,-12,-66,-77,-80,-115
-28,-40,-13,34,-7,-26,20,-17,-64,-71,-80,-110
-26,-37,-11,31,-7,-24,20,-18,-66,-68,-77,-105
-26,-33,-7,29,-9,-19,20,-12,-60,-61,-74,-101
-25,-31,-5,29,-10,-18,20,-12,-57,-60,-76,-100
-19,-23,-4,22,-7,-14,19,-5,-50,-53,-69,-99
-4,-32,-28,18,13,-30,21,-4,-49,-56,-71,-96
-12,-46,-35,29,12,-40,25,1,-42,-54,-68,-95
-21,-43,-22,33,1,-32,40,5,-40,-55,-65,-94
-28,-40,-13,34,-8,-26,55,8,-48,-57,-65,-90
-27,-37,-10,32,-8,-23,65,20,-40,-48,-66,-90
-29,-35,-6,33,-11,-21,65,10,-55,-56,-74,-91
-29,-34,-4,32,-12,-19,64,35,-41,-41,-57,-88
-36,-37,-1,37,-17,-19,52,9,-61,-61,-68,-93
-36,-33,2,34,-19,-15,41,35,-34,-37,-44,-83
-43,-37,5,40,-23,-16,42,-5,-51,-62,-64,-82
-42,-4,38,23,-40,17,27,60,8,14,-5,-19
27,37,10,-33,8,23,65,153,174,184,156,89
112,91,-21,-101,66,34,-85,-300,264,523,482,296
499,265,-234,-382,366,16,-585,-683,731,1281,1132,721
681,236,-445,-458,563,-104,-967,-1153,367,803,841,670
101,-11,-112,-45,107,-61,-787,-1395,-775,-510,-234,22
-212,-79,133,145,-172,27,-389,-849,-800,-658,-487,-249
-93,-34,59,63,-76,12,-177,-337,-318,-280,-227,-133
-75,-29,46,52,-60,8,-23,-63,-140,-125,-130,-94
-57,-29,28,43,-42,0,36,-3,-102,-105,-129,-76
-68,-41,27,54,-47,-7,50,21,-96,-101,-131,-74
-82,-57,25,69,-53,-16,76,49,-80,-97,-129,-76
-72,-55,17,63,-44,-18,77,32,-88,-108,-130,-69
-78,-60,18,68,-48,-20,76,46,-83,-107,-131,-71
-71,-61,10,65,-41,-25,58,36,-86,-112,-135,-70
-59,-56,4,58,-31,-26,51,43,-85,-112,-135,-76
-42,-50,-8,46,-17,-28,40,36,-86,-116,-135,-78
-23,-42,-18,33,-2,-30,23,18,-95,-116,-135,-82
-41,-37,5,39,-23,-16,5,11,-108,-126,-135,-85
-60,-28,33,44,-46,2,5,7,-112,-132,-131,-81
-58,-29,30,43,-44,0,10,5,-101,-124,-121,-74
-61,-35,26,48,-43,-4,12,-1,-97,-118,-113,-68
-53,-27,26,39,-39,0,17,6,-89,-111,-104,-61
-56,-21,35,39,-45,7,20,32,-74,-105,-93,-55
-50,-14,36,31,-43,11,24,47,-56,-92,-81,-48
-41,-7,34,24,-38,13,26,60,-39,-82,-68,-36
-34,2,36,16,-35,19,24,89,-13,-60,-47,-22
-20,14,34,3,-27,24,29,128,19,-22,-11,-4
-16,20,36,-2,-26,28,40,166,53,14,31,19
8,47,39,-27,-16,43,40,211,104,52,67,52
9,49,41,-29,-16,45,40,255,139,77,104,75
47,86,39,-67,3,62,40,292,190,126,158,105
92,134,42,-113,25,88,41,319,241,185,211,150
83,132,49,-108,17,90,37,317,259,210,240,175
113,156,43,-135,35,99,27,316,275,241,262,191
130,162,33,-146,48,97,-18,294,275,246,269,189
133,158,25,-145,54,91,-58,230,275,229,257,191
131,146,15,-139,58,80,-49,162,242,223,244,181
110,118,7,-114,51,62,-45,97,188,196,216,140
91,92,1,-91,45,46,-40,54,151,155,178,102
66,60,-6,-62,35,27,-33,27,111,115,147,70
52,39,-13,-45,32,13,-30,12,80,78,109,47
45,27,-18,-36,32,4,-20,10,57,53,78,32
45,19,-26,-32,36,-3,-10,6,49,44,73,24
23,10,-13,-16,18,-1,0,5,51,46,67,14
14,1,-13,-7,14,-6,12,21,48,42,64,12
43,-12,-55,-15,49,-33,23,45,57,40,59,19
35,-21,-56,-6,46,-38,37,66,73,40,54,24
31,9,-22,-20,27,-6,54,88,78,36,69,30
39,54,15,-47,12,34,71,102,74,30,73,25
20,59,39,-39,-10,48,84,105,72,25,62,17
6,49,44,-28,-19,46,78,99,69,19,55,11
0,46,46,-23,-23,46,61,93,65,14,47,4
0,40,40,-20,-20,40,45,84,65,9,41,-3
-4,34,38,-16,-21,36,38,58,47,3,35,-5
1,28,27,-15,-13,28,34,44,23,0,29,-5
-24,24,48,0,-36,36,29,40,18,-6,24,-5
-48,18,66,15,-58,42,26,35,15,-8,19,-5
-33,12,45,10,-39,28,19,31,11,-22,11,-5
-32,7,40,12,-36,23,27,26,7,-32,4,-5
-28,5,33,11,-31,18,30,22,4,-29,-3,-10
-24,1,25,11,-25,13,30,20,1,-30,-11,-15
-22,-1,21,11,-21,10,39,20,0,-26,-17,-18
-24,-5,19,14,-21,7,42,20,-1,-24,-24,-23
-26,-5,21,15,-23,8,44,20,-6,-27,-25,-25
-19,0,19,10,-19,10,52,20,-4,-30,-25,-25
-23,-2,21,13,-22,9,67,14,-9,-31,-29,-29
-26,-9,18,17,-22,4,74,8,-20,-28,-31,-30
-45,-32,12,38,-28,-10,65,4,-33,-38,-29,-30
-52,-43,9,47,-30,-17,39,-3,-40,-45,-25,-35
-38,-35,3,36,-20,-16,24,-7,-42,-45,-25,-35
-35,-34,1,35,-18,-16,25,-13,-45,-50,-25,-36
-10,-29,-19,20,5,-24,25,-22,-48,-50,-25,-40
8,-26,-33,9,21,-29,25,-21,-50,-53,-25,-40
-25,-27,-1,26,-12,-14,24,-16,-48,-56,-21,-38
-53,-32,21,43,-37,-5,27,-14,-43,-55,-20,-34
-49,-34,15,41,-32,-9,29,-9,-40,-55,-20,-35
-39,-31,8,35,-23,-11,38,-6,-36,-55,-20,-35
-24,-28,-4,27,-10,-16,45,-3,-32,-54,-21,-35
-28,-25,3,27,-15,-11,47,2,-29,-49,-18,-34
-41,-23,18,32,-29,-2,50,8,-26,-44,-15,-31
-33,-18,15,25,-24,-1,54,11,-25,-40,-12,-28
-38,-27,10,32,-24,-8,59,16,-25,-35,-10,-25
-48,-40,8,43,-28,-16,50,20,-25,-30,-7,-23
-48,-44,3,46,-25,-20,40,12,-25,-34,-4,-19
-42,-42,0,42,-21,-21,30,3,-27,-45,-10,-23
-45,-41,4,43,-25,-18,21,-5,-35,-51,-19,-32
-54,-39,16,46,-35,-11,19,-14,-40,-54,-28,-42
-67,-44,23,55,-45,-10,16,-25,-50,-60,-33,-49
-86,-67,19,76,-52,-24,13,-33,-58,-62,-31,-45
-76,-61,15,68,-45,-23,10,-26,-51,-59,-27,-45
-60,-50,10,54,-35,-20,11,-19,-46,-56,-25,-44
-58,-51,7,55,-33,-22,20,-13,-41,-53,-21,-40
-68,-49,19,58,-43,-15,31,-5,-35,-51,-21,-41
-72,-51,21,62,-46,-15,39,0,-30,-48,-23,-38
-69,-49,21,59,-45,-14,49,6,-24,-44,-26,-34
-74,-52,23,63,-48,-14,56,9,-26,-38,-48,-36
-57,-39,19,48,-38,-10,55,15,-23,-34,-57,-34
-38,-17,21,27,-29,2,54,18,-21,-31,-54,-36
-23,-9,14,16,-19,2,49,20,-18,-23,-55,-34
-26,-10,16,17,-21,3,51,9,-23,-40,-60,-31
-45,-32,13,38,-29,-10,44,7,-29,-45,-62,-29
-34,-43,-9,38,-12,-26,19,1,-34,-48,-69,-29
-37,-38,-1,37,-18,-19,3,-8,-42,-52,-70,-25
-28,-35,-7,32,-10,-21,7,-4,-36,-51,-69,-24
-16,-36,-20,26,2,-27,-1,-14,-46,-62,-73,-32
-31,-54,-22,42,-4,-38,1,10,-31,-40,-64,-34
-39,-57,-19,48,-10,-38,2,-14,-51,-59,-78,-39
-25,-40,-15,33,-5,-27,11,24,-26,-24,-49,-29
-26,-41,-15,34,-6,-28,21,-12,-34,-58,-64,-45
-13,-1,12,7,-12,5,20,61,36,15,4,3
38,23,-15,-30,27,4,68,140,192,192,166,122
123,75,-48,-99,86,13,-124,-394,272,556,536,362
583,264,-319,-424,451,-27,-633,-843,652,1247,1139,762
720,192,-528,-456,624,-167,-990,-1285,190,641,740,634
90,-60,-150,-15,120,-104,-752,-1403,-830,-563,-262,7
-188,-83,105,135,-146,10,-314,-765,-705,-569,-413,-207
-107,-55,52,80,-79,-2,-119,-273,-240,-213,-176,-86
-104,-62,42,83,-73,-10,25,-43,-101,-107,-119,-74
-82,-59,24,70,-53,-17,32,-5,-89,-109,-109,-76
-81,-61,20,71,-51,-20,0,-8,-101,-112,-110,-76
-70,-60,11,65,-41,-24,10,12,-85,-106,-111,-82
-68,-58,10,63,-39,-24,5,-4,-94,-107,-109,-78
-57,-54,3,55,-30,-25,20,1,-87,-103,-111,-78
-56,-55,1,56,-28,-27,19,-3,-85,-104,-108,-73
-82,-51,31,66,-56,-10,28,9,-81,-99,-105,-76
-84,-50,35,67,-60,-7,31,14,-77,-100,-105,-74
-76,-50,26,63,-51,-12,40,20,-74,-97,-103,-76
-70,-45,25,57,-47,-10,48,31,-70,-92,-99,-74
-58,-40,18,49,-38,-11,45,38,-66,-90,-101,-68
-51,-35,16,42,-33,-10,45,45,-55,-85,-96,-61
-63,-32,31,47,-47,-1,41,64,-45,-81,-89,-54
-62,-26,37,44,-49,5,38,76,-35,-79,-84,-48
-60,-25,35,42,-47,5,58,93,-7,-55,-76,-41
-59,-25,34,41,-46,4,67,115,14,-36,-69,-36
-56,-25,31,41,-43,2,60,128,19,-34,-63,-29
-70,-41,28,56,-49,-6,56,135,23,-31,-54,-24
-75,-43,32,59,-53,-5,52,147,26,-27,-38,-17
-61,-11,50,35,-55,19,41,181,59,-7,-17,1
-26,25,52,0,-39,38,-8,196,81,30,20,31
3,38,35,-21,-16,36,-32,217,104,69,57,68
16,66,50,-41,-17,57,-28,256,147,94,86,93
40,101,61,-70,-11,80,-35,275,173,126,120,108
85,119,34,-102,25,76,-35,282,206,166,157,138
122,143,21,-133,50,82,-33,273,233,205,199,173
131,146,15,-139,58,80,-27,262,252,237,230,181
130,134,4,-133,63,69,-22,240,257,253,230,172
129,126,-3,-127,66,61,-19,200,243,255,220,166
126,115,-11,-120,68,51,-13,157,218,226,209,158
114,106,-8,-110,61,49,-10,109,187,185,176,129
110,92,-18,-101,63,37,-3,75,157,163,146,102
105,73,-32,-89,68,20,4,65,133,141,127,90
63,35,-28,-49,45,3,12,62,106,108,90,59
38,3,-35,-20,36,-16,13,55,73,77,53,32
32,-9,-41,-12,37,-24,9,50,63,49,28,16
9,-18,-27,5,19,-23,27,45,59,26,18,1
4,-13,-17,4,11,-15,41,41,54,20,14,0
3,-5,-8,2,6,-7,41,38,50,17,9,0
-3,0,3,1,-3,1,47,47,45,15,5,0
-2,9,11,-4,-7,10,48,62,48,12,0,0
-15,5,21,5,-18,13,54,76,53,9,-4,0
-32,-4,27,18,-29,11,68,81,54,23,-2,4
-19,12,31,3,-25,21,75,80,49,25,0,5
4,44,40,-25,-18,42,77,79,46,19,0,7
5,46,41,-26,-18,43,82,74,43,17,0,11
-4,29,33,-13,-19,31,90,75,38,12,0,9
-10,18,28,-4,-19,23,83,72,35,10,-1,1
-15,8,23,3,-19,15,73,63,29,4,-7,-6
-17,-1,17,9,-17,8,65,55,17,-1,-10,-12
-17,-8,9,12,-12,0,56,46,5,-8,-16,-22
-14,-19,-4,17,-5,-11,48,33,-5,-11,-19,-26
-14,-23,-9,19,-2,-16,39,13,-23,-24,-28,-39
-25,-36,-11,31,-7,-23,30,-1,-39,-54,-42,-41
-38,-61,-23,50,-7,-42,25,-12,-43,-66,-42,-41
-26,-63,-37,45,6,-50,25,-22,-44,-69,-55,-62
-15,-56,-42,36,14,-49,25,-23,-39,-66,-60,-63
-18,-48,-30,33,6,-39,25,-18,-36,-59,-51,-55
-8,-33,-24,21,8,-28,25,-12,-33,-56,-49,-51
-2,-20,-19,11,9,-19,30,-9,-28,-51,-43,-44
-9,-14,-5,12,-1,-10,33,-4,-25,-46,-39,-40
-24,-16,8,19,-15,-4,38,1,-25,-47,-36,-35
-39,-12,27,25,-32,7,47,4,-25,-51,-33,-30
-41,-10,31,25,-36,11,46,9,-25,-50,-30,-25
-40,-10,29,25,-34,10,41,11,-25,-50,-28,-22
-36,-6,30,21,-33,12,39,15,-24,-50,-24,-14
-24,6,30,9,-27,18,34,20,-26,-50,-27,-26
-18,12,30,3,-25,21,31,18,-30,-55,-34,-44
-23,3,26,10,-25,14,27,13,-30,-55,-45,-48
-33,-8,25,20,-29,8,25,10,-33,-55,-65,-54
-46,-21,25,33,-35,2,25,6,-36,-55,-71,-55
-52,-28,24,40,-37,-2,22,2,-34,-55,-70,-60
-44,-50,-6,47,-19,-28,19,-1,-35,-53,-70,-59
-29,-63,-34,46,3,-48,21,-4,-34,-49,-70,-54
-29,-47,-18,38,-5,-33,25,-5,-36,-47,-70,-56
-28,-38,-10,33,-9,-24,25,-5,-40,-44,-65,-52
-25,-32,-7,29,-9,-19,26,-5,-40,-41,-65,-50
-24,-28,-4,26,-10,-15,30,-5,-42,-39,-65,-50
-24,-23,1,24,-12,-11,30,-3,-45,-36,-65,-46
-23,-19,4,21,-13,-7,28,1,-45,-33,-65,-42
-21,-14,7,17,-13,-4,24,0,-45,-30,-67,-39
-26,0,26,13,-26,13,25,0,-45,-27,-71,-36
-9,22,32,-7,-21,27,25,0,-45,-25,-70,-31
-6,27,33,-11,-20,30,25,0,-45,-27,-70,-30
-34,3,37,15,-36,19,25,5,-45,-38,-70,-40
-48,-8,40,28,-44,16,20,5,-44,-45,-70,-49
-52,-13,39,33,-45,13,20,6,-40,-47,-70,-52
-42,-17,25,29,-33,4,20,11,-41,-51,-70,-55
-34,-34,-1,34,-16,-17,20,10,-37,-47,-70,-59
-27,-65,-37,47,5,-51,20,13,-34,-45,-70,-59
-16,-65,-49,41,17,-57,23,15,-35,-42,-70,-53
-15,-65,-50,40,18,-57,28,15,-34,-39,-67,-47
-8,-54,-45,31,19,-49,24,18,-36,-37,-65,-43
-19,-32,-13,26,-3,-22,22,22,-33,-33,-64,-36
-24,-30,-7,27,-8,-18,19,17,-37,-43,-63,-31
-5,-29,-24,18,9,-26,16,16,-32,-44,-58,-46
-5,-31,-26,18,11,-28,15,1,-39,-55,-62,-59
-7,-29,-23,18,8,-25,8,-3,-40,-51,-52,-52
-13,-31,-18,22,2,-24,-3,-9,-50,-53,-57,-58
-18,-24,-6,21,-5,-15,-9,-6,-49,-48,-54,-58
-20,-21,-1,20,-9,-11,-1,0,-38,-42,-54,-56
-24,-16,8,20,-16,-3,0,-12,-50,-50,-59,-46
-32,-11,21,22,-27,5,8,19,-19,-26,-44,-36
-27,-3,24,15,-26,10,8,-29,-62,-56,-62,-37
62,49,-13,-55,37,18,35,143,89,95,69,48
86,55,-31,-70,58,12,48,53,204,274,261,183
267,165,-102,-216,184,32,-236,-517,380,828,783,509
730,301,-429,-515,579,-64,-762,-965,606,1220,1180,807
511,114,-396,-312,453,-141,-938,-1416,-255,139,374,428
-114,-91,22,102,-68,-34,-569,-1231,-946,-719,-437,-148
-158,-78,80,118,-119,1,-262,-583,-550,-455,-334,-189
-66,-45,20,55,-42,-13,-117,-195,-177,-165,-115,-60
-61,-44,17,52,-38,-13,1,-19,-71,-100,-82,-57
-34,-47,-13,41,-10,-30,1,-14,-82,-113,-80,-53
-43,-64,-21,54,-11,-42,16,5,-81,-102,-92,-66
-31,-60,-29,46,-1,-44,21,5,-78,-102,-107,-71
-33,-52,-20,43,-6,-36,24,7,-83,-100,-104,-69
-40,-46,-6,43,-17,-25,36,15,-80,-103,-105,-71
-62,-39,23,51,-42,-8,30,11,-88,-107,-105,-69
-89,-58,32,73,-60,-13,32,21,-83,-104,-105,-71
-77,-58,19,67,-48,-19,28,17,-90,-110,-102,-66
-57,-50,7,54,-32,-21,31,24,-90,-110,-96,-65
-52,-49,3,50,-27,-23,29,25,-90,-109,-92,-65
-57,-42,16,49,-36,-13,31,24,-80,-101,-87,-60
-66,-39,27,52,-47,-6,41,41,-64,-92,-83,-60
-60,-34,25,46,-42,-4,39,53,-53,-84,-79,-59
-56,-31,25,43,-41,-2,35,64,-43,-75,-71,-55
-52,-28,24,40,-38,-1,32,77,-28,-66,-60,-51
-42,-23,19,32,-30,-2,27,94,-6,-54,-50,-46
-44,-21,23,32,-33,1,26,115,20,-32,-40,-35
-21,-12,8,16,-14,-2,29,132,31,-9,-29,-24
12,8,-4,-10,8,2,34,162,54,14,-3,0
28,34,6,-32,11,20,34,194,87,40,29,27
33,48,15,-41,8,31,30,218,118,59,55,41
43,61,18,-52,12,39,24,256,161,98,92,76
69,84,15,-77,27,49,22,288,192,142,126,110
88,102,14,-96,37,58,6,281,211,160,150,127
109,120,10,-114,50,65,-26,268,218,176,176,147
111,120,10,-116,51,65,-48,257,227,204,199,165
118,120,2,-119,58,60,-50,237,242,228,210,177
133,120,-13,-126,73,53,-44,202,234,231,201,169
140,121,-20,-131,80,51,-38,159,213,227,188,168
134,113,-20,-123,77,46,-33,121,189,218,178,157
96,76,-19,-86,57,28,-24,80,157,187,153,122
73,53,-21,-63,47,16,-2,56,125,150,120,84
60,41,-19,-50,39,11,13,55,101,111,94,52
48,27,-21,-37,34,3,19,55,90,74,66,34
33,25,-8,-29,20,8,30,55,85,60,44,20
17,25,8,-21,4,16,39,54,80,59,38,18
12,21,9,-16,1,15,59,72,76,55,35,21
-13,20,33,-4,-23,26,65,87,71,52,31,19
-28,19,47,4,-37,33,55,83,68,50,28,20
-23,21,44,0,-34,32,50,88,63,48,24,20
-25,18,43,3,-34,30,42,90,57,43,21,18
-5,28,33,-12,-19,30,34,90,54,40,18,12
18,44,26,-32,-4,35,28,86,48,37,15,8
17,35,18,-26,-1,26,20,77,45,32,12,4
14,24,11,-19,2,17,13,69,39,30,10,-1
-6,-2,5,4,-5,1,6,57,34,25,8,-5
-16,-19,-3,18,-7,-11,21,45,28,25,-2,-12
-12,-20,-8,16,-2,-14,42,36,21,21,-10,-20
-30,-47,-17,39,-6,-32,46,29,7,4,-19,-28
-27,-41,-14,34,-6,-27,51,22,-7,-6,-31,-36
-44,-37,8,40,-26,-14,53,16,-4,-7,-30,-43
-46,-19,27,32,-36,4,65,8,-18,-22,-41,-45
-21,11,32,5,-26,21,81,6,-32,-32,-52,-45
-55,-27,28,41,-41,0,66,10,-24,-29,-49,-49
-64,-39,25,51,-44,-7,49,10,-23,-31,-48,-50
-53,-30,23,41,-38,-3,45,12,-18,-29,-44,-50
-50,-32,18,41,-34,-7,42,16,-15,-32,-46,-50
-55,-29,26,42,-41,-1,40,15,-21,-24,-41,-50
-65,-31,34,48,-50,2,36,12,-34,-20,-43,-50
-54,-29,25,42,-40,-2,35,9,-43,-50,-69,-50
-50,-30,20,40,-35,-5,32,6,-40,-57,-76,-51
-43,-31,12,37,-28,-9,27,3,-40,-53,-70,-47
-43,-35,8,39,-25,-14,24,0,-40,-56,-68,-45
-38,-35,4,36,-21,-15,21,0,-40,-54,-63,-45
-34,-36,-2,35,-15,-18,16,0,-40,-55,-60,-41
-30,-34,-4,32,-12,-19,16,0,-43,-58,-64,-40
-13,-36,-23,25,5,-30,25,0,-46,-60,-65,-39
-45,-51,-6,48,-19,-28,31,0,-49,-60,-65,-46
-73,-50,23,62,-48,-13,40,0,-52,-60,-70,-51
-65,-46,19,55,-41,-13,46,0,-55,-60,-70,-50
-66,-45,20,56,-43,-12,44,0,-54,-58,-70,-48
-59,-42,17,50,-37,-13,48,0,-50,-55,-70,-44
-47,-33,14,39,-30,-9,50,0,-50,-55,-70,-45
-38,-22,16,30,-27,-3,50,0,-50,-53,-70,-45
-34,-14,20,24,-27,3,46,-1,-50,-50,-70,-45
-39,-8,32,23,-36,12,44,-5,-50,-50,-70,-45
-51,-20,31,35,-41,5,45,-5,-46,-54,-66,-45
-49,-32,17,40,-33,-7,45,-5,-45,-55,-65,-46
-32,-29,3,31,-18,-13,46,-5,-45,-56,-65,-44
-24,-30,-6,27,-9,-18,44,-5,-40,-60,-61,-38
-14,-30,-16,22,1,-23,41,0,-40,-60,-59,-31
-11,-30,-18,21,3,-24,38,5,-39,-59,-60,-24
-19,-33,-13,26,-3,-22,35,10,-26,-49,-59,-17
-25,-35,-10,30,-7,-22,32,15,-23,-45,-60,-11
-29,-35,-6,32,-11,-21,29,22,-27,-45,-60,-14
-32,-35,-3,33,-14,-18,31,25,-22,-44,-60,-25
-37,-36,1,36,-19,-17,29,15,-30,-47,-61,-35
-21,-33,-12,28,-4,-23,31,14,-32,-41,-55,-45
-17,-32,-15,25,-1,-23,28,0,-39,-50,-57,-52
-27,-27,0,27,-14,-13,34,2,-31,-38,-52,-48
-21,-27,-5,24,-7,-16,51,-14,-39,-55,-58,-52
-14,-21,-7,18,-3,-14,53,-3,-33,-50,-52,-47
-18,-20,-3,19,-8,-11,60,0,-32,-57,-57,-53
-26,-17,9,21,-17,-4,60,1,-32,-48,-45,-42
-11,-2,8,6,-10,3,70,23,-9,-41,-36,-32
-20,4,24,8,-22,14,65,-3,-37,-52,-21,-20
28,37,9,-33,9,23,101,190,144,142,132,78
63,59,-4,-61,34,27,68,-34,244,354,355,230
357,193,-164,-275,260,15,-341,-623,477,996,944,588
781,252,-530,-516,655,-139,-867,-1111,457,1032,1049,745
366,10,-356,-188,361,-173,-911,-1503,-579,-252,50,215
-161,-116,45,138,-103,-35,-523,-1125,-956,-759,-495,-235
-116,-69,46,92,-81,-11,-270,-505,-452,-383,-267,-159
-57,-32,25,44,-41,-3,-126,-169,-170,-153,-100,-70
-43,-17,27,29,-35,5,-26,-38,-90,-104,-87,-77
-43,-21,22,32,-33,0,-18,-40,-94,-118,-92,-66
-52,-24,28,37,-40,2,15,-2,-70,-103,-85,-68
-58,-37,21,47,-39,-8,31,-4,-60,-106,-86,-60
-64,-35,29,49,-46,-3,52,10,-56,-99,-84,-60
-61,-33,28,47,-44,-2,60,29,-51,-97,-80,-60
-63,-31,32,47,-48,1,68,60,-52,-93,-80,-60
-62,-28,33,45,-47,2,72,73,-45,-88,-80,-60
-70,-34,37,52,-53,1,68,67,-46,-87,-80,-60
-52,-28,24,40,-38,-2,71,75,-44,-80,-80,-60
-36,-37,-2,37,-17,-19,69,74,-46,-81,-78,-63
-66,-60,6,63,-35,-27,69,76,-44,-85,-75,-65
-70,-56,14,63,-42,-21,60,74,-48,-87,-75,-57
-72,-49,23,60,-47,-13,49,75,-50,-82,-75,-51
-71,-43,29,57,-50,-7,42,75,-43,-73,-75,-44
-43,-36,7,39,-25,-14,17,75,-38,-65,-76,-37
-26,-30,-4,28,-11,-17,-29,76,-31,-58,-64,-32
-8,-21,-13,15,3,-16,-48,75,-14,-44,-50,-22
1,-4,-5,2,3,-4,-37,99,15,-21,-33,-5
-4,18,22,-7,-13,19,-25,138,49,14,3,27
-3,23,26,-11,-15,24,-19,179,88,51,46,48
31,55,23,-43,4,39,-21,224,126,78,78,68
43,79,36,-61,4,57,-20,258,162,117,111,103
63,94,30,-79,16,62,-20,281,198,158,151,132
110,121,12,-116,49,66,-20,279,222,192,187,153
99,113,14,-106,42,63,-21,266,226,212,201,156
108,124,15,-116,46,69,-31,259,231,224,219,170
141,133,-9,-137,75,62,-31,242,245,245,233,176
149,124,-25,-137,87,49,-22,206,236,237,222,164
119,106,-13,-112,65,46,-14,164,210,218,208,154
95,76,-19,-85,57,28,-3,125,179,192,169,115
62,54,-8,-58,35,23,14,90,146,150,126,83
32,27,-5,-30,18,11,29,61,109,111,99,70
57,33,-24,-45,40,4,6,49,77,75,66,47
53,37,-16,-45,34,10,-29,50,75,54,45,31
47,32,-15,-39,31,8,-35,55,76,47,37,24
43,31,-12,-37,27,10,-26,57,74,44,29,17
39,29,-9,-34,24,10,-17,62,76,39,21,11
36,28,-7,-31,21,10,-9,64,74,35,14,4
21,21,0,-21,11,10,6,67,71,30,10,1
13,16,3,-15,5,10,27,86,64,23,8,9
4,11,8,-8,-2,9,38,91,61,19,5,18
-9,4,13,2,-11,8,44,89,56,13,1,17
-13,1,14,5,-13,7,56,91,52,7,0,14
4,14,10,-9,-3,12,60,90,47,7,-5,15
5,15,10,-10,-3,12,65,89,37,12,-13,15
4,9,5,-7,-1,7,64,77,29,15,-19,15
3,7,5,-6,-1,6,57,66,20,4,-27,14
-9,2,11,3,-10,6,53,52,11,-14,-35,3
-24,0,24,12,-24,12,45,36,-1,-27,-40,-9
-40,-7,33,23,-36,13,43,20,-19,-35,-40,-20
-37,-18,19,27,-28,1,26,14,-30,-48,-44,-33
-28,-25,3,26,-15,-11,-4,16,-30,-51,-46,-38
-11,-25,-14,18,2,-19,-5,12,-30,-49,-45,-34
0,-25,-25,13,13,-25,2,10,-30,-51,-44,-31
0,-25,-25,13,13,-25,5,10,-30,-50,-40,-28
-1,-25,-24,13,12,-25,10,6,-30,-51,-40,-25
1,-26,-26,13,14,-26,15,5,-35,-54,-42,-26
-7,-30,-23,19,9,-26,18,5,-35,-55,-45,-30
7,-20,-28,7,18,-24,21,1,-36,-55,-45,-33
34,-6,-40,-14,37,-23,24,-1,-40,-55,-45,-37
7,-35,-42,15,25,-39,27,2,-39,-55,-46,-40
-23,-54,-30,39,3,-42,30,5,-43,-58,-44,-44
-16,-45,-29,31,7,-37,29,5,-45,-60,-41,-47
2,-44,-46,22,24,-45,25,4,-45,-60,-38,-52
-16,-39,-22,28,3,-30,23,6,-45,-60,-49,-64
-33,-36,-3,35,-14,-20,20,0,-51,-60,-64,-76
-32,-32,-1,32,-15,-16,16,-7,-49,-59,-62,-77
-53,-29,24,41,-38,-3,15,-18,-51,-55,-59,-72
-56,-30,26,43,-41,-2,11,-38,-67,-49,-56,-69
-54,-30,24,41,-39,-2,5,-34,-64,-46,-53,-65
-55,-30,25,42,-40,-2,-1,-19,-54,-41,-51,-62
-48,-30,19,39,-33,-5,-4,-12,-46,-37,-48,-58
-46,-25,21,35,-33,-1,5,-6,-40,-32,-45,-55
-36,-18,17,27,-26,0,14,-2,-39,-30,-45,-55
-27,-14,13,20,-20,-1,21,2,-35,-30,-45,-53
-19,-8,11,13,-14,2,32,8,-32,-26,-45,-49
11,-2,-13,-5,13,-8,34,9,-30,-26,-45,-50
17,-3,-20,-7,19,-11,43,5,-28,-23,-50,-53
-2,-16,-14,9,6,-14,47,5,-25,-29,-59,-55
-25,-27,-2,26,-11,-14,45,3,-25,-41,-60,-55
-41,-24,17,32,-28,-3,63,-1,-25,-40,-60,-55
-50,-20,29,35,-39,5,62,2,-25,-45,-60,-55
-60,-9,51,34,-55,21,52,-8,-40,-45,-60,-56
-73,-27,46,49,-59,9,43,-23,-58,-44,-61,-62
-95,-54,41,74,-68,-6,32,-18,-57,-46,-56,-69
-84,-47,37,66,-61,-5,30,-10,-49,-44,-50,-67
-63,-46,17,54,-40,-14,26,-5,-43,-47,-45,-62
-53,-43,11,48,-32,-16,24,3,-36,-46,-40,-59
-46,-39,6,42,-26,-16,20,8,-30,-41,-33,-56
-42,-38,4,40,-23,-17,20,14,-25,-36,-31,-51
-33,-34,-1,34,-16,-17,26,20,-20,-32,-45,-49
-28,-32,-4,31,-12,-18,33,26,-16,-28,-51,-45
-20,-29,-8,25,-6,-18,35,31,-12,-23,-49,-42
-5,-26,-21,16,9,-24,35,30,-6,-17,-51,-39
-6,-24,-19,15,7,-21,44,31,-7,-6,-50,-33
-9,-19,-10,15,1,-15,46,30,-11,-12,-50,-49
-8,-13,-5,11,-1,-8,45,30,-16,-31,-50,-62
-8,-5,3,7,-5,-1,43,31,-19,-30,-50,-59
-7,0,7,3,-7,3,39,24,-23,-31,-51,-61
-3,9,12,-3,-8,10,41,18,-23,-24,-49,-59
-11,4,15,3,-13,9,33,5,-29,-26,-52,-61
-41,-18,23,29,-32,3,17,4,-29,-45,-46,-57
-63,-33,30,48,-46,-1,8,3,-37,-59,-47,-55
-48,-30,18,39,-33,-6,9,9,-30,-46,-43,-55
-17,-20,-3,19,-7,-11,14,11,-25,-49,-46,-55
-19,-32,-13,26,-3,-22,16,10,-27,-43,-45,-55
-14,-49,-36,32,11,-42,21,22,-12,-35,-43,-54
-5,-39,-35,23,15,-37,24,6,-28,-51,-47,-52
5,-28,-33,11,19,-30,34,41,7,-12,-27,-43
4,-24,-27,10,16,-25,25,-3,-21,-51,-49,-43
54,29,-25,-41,39,2,35,123,98,85,71,34
87,30,-57,-58,72,-14,56,76,203,251,254,167
241,140,-101,-190,171,19,-206,-484,340,737,741,483
732,297,-435,-514,583,-69,-738,-975,559,1174,1183,820
589,135,-455,-362,522,-160,-950,-1438,-235,163,441,484
-75,-45,30,60,-52,-8,-603,-1307,-941,-729,-405,-111
-162,-50,112,106,-137,31,-290,-673,-592,-497,-355,-191
-65,-19,46,41,-55,13,-141,-246,-214,-206,-141,-79
-68,-5,64,36,-66,29,-5,-24,-77,-102,-98,-61
-54,-7,48,30,-51,21,4,-17,-70,-96,-100,-45
-90,-29,61,59,-75,15,20,7,-52,-87,-90,-63
-105,-54,51,79,-78,-2,35,26,-36,-86,-87,-80
-106,-49,58,77,-82,4,53,39,-42,-84,-81,-69
-74,-49,25,61,-50,-12,61,51,-39,-79,-79,-65
-40,-64,-24,52,-8,-43,48,41,-47,-80,-81,-65
-40,-76,-36,58,-2,-56,48,47,-46,-74,-80,-65
-39,-69,-30,54,-4,-49,38,39,-51,-76,-80,-65
-39,-66,-27,53,-6,-46,36,39,-50,-75,-81,-65
-39,-62,-22,51,-8,-42,36,43,-50,-75,-85,-65
-43,-59,-16,51,-13,-37,57,57,-50,-75,-85,-70
-52,-60,-8,57,-22,-34,65,66,-50,-78,-88,-69
-51,-55,-3,53,-24,-29,49,60,-51,-83,-90,-72
-61,-56,5,58,-32,-25,38,49,-50,-87,-90,-74
-66,-53,12,59,-39,-20,17,43,-43,-84,-84,-77
-59,-39,20,49,-40,-9,-12,25,-35,-67,-68,-68
-81,-22,59,51,-70,19,-22,54,-23,-56,-55,-32
-84,-11,72,47,-78,30,-17,94,5,-36,-29,-7
-55,8,63,23,-59,35,-15,113,38,-19,-10,4
-28,35,63,-4,-46,49,-11,161,69,-4,-4,21
-8,49,57,-21,-33,52,-6,195,102,29,30,43
10,64,54,-37,-23,59,-4,225,125,60,61,57
41,90,49,-66,-4,69,6,262,155,92,87,74
59,95,36,-77,11,65,6,291,183,116,119,96
71,100,29,-86,20,64,-5,293,198,145,149,129
105,127,22,-117,42,74,-19,283,223,171,180,160
112,133,21,-123,45,77,-34,271,229,187,193,156
110,126,16,-119,47,71,-32,240,217,202,201,149
123,135,12,-130,56,73,-24,197,208,216,207,142
101,113,12,-107,44,62,-17,149,198,205,183,137
94,56,-39,-75,66,8,-12,112,173,170,140,105
74,39,-35,-56,54,2,3,82,140,138,100,63
9,30,21,-19,-6,25,17,70,117,108,72,53
-18,17,35,0,-27,26,15,68,99,89,49,42
-12,20,32,-4,-22,26,15,66,85,63,30,35
-4,20,24,-8,-14,22,12,62,73,52,30,36
6,24,17,-15,-6,21,9,60,69,58,31,33
14,25,11,-19,1,17,11,62,71,59,34,30
-9,31,40,-11,-25,35,26,69,70,63,35,30
-13,45,58,-16,-36,51,47,94,70,66,32,28
15,61,46,-38,-16,53,57,99,69,62,29,24
13,57,44,-35,-16,50,55,90,66,54,34,25
3,40,37,-22,-17,38,48,87,61,48,40,21
2,35,33,-19,-16,34,44,79,59,40,32,20
-7,25,31,-9,-19,28,38,75,54,32,26,20
17,17,0,-17,8,8,32,69,51,26,19,14
44,12,-33,-28,38,-10,32,62,47,20,12,8
39,3,-36,-20,37,-17,38,56,37,17,8,4
16,0,-16,-7,16,-8,42,49,29,13,1,-3
-19,-12,7,15,-13,-3,45,43,20,9,-6,-7
-24,-11,13,17,-18,1,40,36,10,6,-13,-13
-34,-20,14,27,-24,-3,35,24,3,2,-19,-22
-46,-17,30,31,-38,6,31,12,-5,-8,-25,-25
-40,9,49,15,-45,29,26,4,-13,-17,-31,-37
-47,-22,24,34,-36,1,22,-5,-21,-27,-45,-41
-53,-31,22,42,-38,-4,15,-15,-27,-38,-55,-39
-68,-19,50,43,-59,15,26,-18,-34,-40,-57,-41
-61,-12,49,37,-55,18,36,-27,-51,-48,-67,-39
-55,-4,51,30,-53,23,28,-28,-56,-50,-71,-41
-46,4,50,21,-48,26,25,-20,-56,-50,-70,-44
-33,11,44,11,-39,27,21,-17,-61,-50,-70,-48
-37,2,39,17,-38,20,13,-9,-59,-51,-70,-51
-15,18,33,-2,-24,25,27,-5,-55,-72,-77,-55
-28,1,29,13,-28,15,45,-16,-47,-74,-77,-53
-37,-16,21,26,-29,2,45,-22,-41,-43,-61,-46
-23,-4,19,13,-21,7,45,-19,-34,-27,-49,-41
-22,-9,13,15,-17,2,45,-21,-28,-32,-49,-36
-14,5,18,4,-16,11,45,-20,-26,-33,-50,-30
-30,17,47,6,-38,31,44,-20,-40,-39,-50,-26
-23,-9,14,16,-19,3,20,-22,-62,-50,-50,-30
-7,-38,-31,23,12,-34,0,-29,-72,-49,-50,-38
-8,-39,-31,24,11,-35,-5,-34,-83,-56,-52,-42
-17,-42,-25,30,4,-33,-13,-36,-94,-61,-56,-47
-38,-53,-16,46,-11,-34,-19,-45,-98,-60,-57,-50
-16,-46,-29,31,7,-37,-27,-60,-106,-58,-63,-55
-7,-34,-28,21,11,-31,-28,-75,-118,-69,-74,-55
-19,-28,-9,24,-4,-18,-26,-74,-115,-90,-72,-56
-5,-21,-16,13,6,-18,-21,-69,-107,-83,-66,-60
-4,-15,-11,9,4,-13,-21,-67,-101,-73,-63,-60
-23,-7,16,15,-19,4,-6,-62,-93,-66,-57,-58
-44,-1,43,22,-44,21,27,-56,-89,-58,-55,-51
-49,-3,46,26,-47,21,36,-44,-84,-55,-66,-44
-50,-6,44,27,-47,19,34,-36,-81,-56,-69,-38
-47,-3,44,25,-45,20,35,-29,-77,-54,-47,-31
-35,3,38,16,-37,21,35,-30,-74,-56,-45,-36
-29,13,42,8,-36,27,31,-31,-70,-54,-46,-42
-24,9,33,8,-29,20,30,-28,-76,-62,-43,-48
-32,-12,20,22,-26,4,29,-34,-85,-70,-48,-51
-28,-24,4,26,-16,-10,25,-23,-69,-55,-40,-49
-13,-27,-14,20,1,-20,25,-30,-76,-61,-59,-52
-13,-22,-9,17,-2,-15,24,-9,-56,-40,-51,-48
-18,-19,-1,19,-9,-10,26,-22,-66,-54,-50,-53
-6,-28,-22,17,8,-25,22,2,-41,-26,-30,-36
1,-41,-41,20,21,-41,29,-7,-39,-38,-24,-29
22,-3,-26,-9,24,-14,16,12,-22,1,17,1
92,29,-63,-60,77,-17,67,211,198,205,173,104
135,48,-87,-92,111,-19,45,-42,376,571,518,311
495,244,-251,-369,373,-3,-395,-529,705,1279,1166,724
643,262,-380,-452,511,-59,-795,-1078,330,836,885,681
43,-9,-52,-17,47,-30,-621,-1349,-733,-482,-236,-4
-243,-90,153,166,-198,31,-322,-881,-828,-685,-510,-299
-117,-42,76,79,-96,17,-182,-386,-364,-305,-229,-152
-77,-34,43,55,-60,4,-14,-71,-122,-112,-100,-98
-65,-35,30,50,-47,-3,48,6,-70,-88,-91,-85
-68,-35,33,51,-50,-1,34,-10,-76,-98,-98,-72
-53,-35,18,44,-35,-9,44,27,-54,-84,-87,-70
-54,-48,6,51,-30,-21,33,20,-65,-90,-93,-69
-52,-51,1,51,-26,-25,37,28,-56,-82,-87,-71
-41,-49,-8,46,-16,-29,34,15,-56,-91,-86,-69
-40,-51,-11,46,-15,-31,30,13,-54,-93,-79,-71
-46,-58,-12,52,-17,-35,25,6,-62,-97,-90,-76
-27,-57,-29,42,1,-43,20,0,-74,-111,-110,-78
-32,-49,-17,41,-7,-33,17,5,-65,-115,-109,-71
-69,-45,24,57,-46,-10,11,12,-61,-109,-104,-66
-76,-39,37,57,-56,-1,12,21,-55,-107,-102,-61
-65,-34,31,49,-48,-1,20,29,-44,-97,-92,-54
-50,-29,21,39,-35,-4,24,35,-30,-80,-75,-51
-39,-24,15,31,-27,-4,21,50,-17,-70,-65,-43
-25,-18,7,22,-16,-6,16,71,2,-61,-56,-33
-20,-15,5,17,-12,-5,14,92,21,-45,-40,-23
-14,-9,5,11,-9,-2,10,119,45,-19,-16,-11
-12,-7,5,9,-8,-1,5,130,54,0,-3,0
3,8,5,-6,-1,6,5,149,78,32,21,31
41,36,-4,-38,22,16,4,192,120,66,58,62
72,56,-15,-64,43,20,6,228,151,98,86,86
105,77,-28,-91,66,24,-19,237,190,132,126,117
127,92,-35,-109,81,28,-57,242,207,151,154,137
138,103,-35,-120,86,34,-60,243,229,177,175,149
151,116,-35,-133,93,40,-62,233,248,197,198,167
166,131,-35,-148,100,48,-68,224,248,218,216,181
162,127,-35,-144,98,46,-57,216,252,242,222,174
141,112,-29,-126,85,41,-44,202,239,233,203,159
126,104,-23,-115,75,40,-33,167,215,197,176,127
93,78,-15,-85,54,31,-11,134,175,154,133,84
55,45,-10,-50,32,18,21,106,136,116,88,46
20,14,-6,-17,13,4,34,81,94,78,43,13
12,-1,-13,-5,12,-7,38,80,61,42,11,-4
10,-8,-18,-1,15,-13,58,80,59,32,9,-14
-17,-5,12,11,-14,4,66,81,61,38,11,-19
-18,18,36,-1,-27,27,65,79,64,39,14,-11
-15,21,36,-3,-26,28,71,85,66,43,16,-3
-10,20,29,-5,-19,24,64,101,68,45,19,5
-4,19,23,-8,-13,21,54,99,78,47,31,13
0,14,14,-7,-8,14,47,95,86,54,38,12
7,15,8,-12,-1,12,32,92,79,49,31,9
14,13,-2,-14,8,5,20,87,66,43,24,6
31,7,-24,-19,27,-8,20,85,55,36,17,3
26,2,-24,-14,24,-11,20,76,43,30,9,0
17,-1,-18,-8,18,-10,20,63,32,21,3,-1
10,-7,-17,-1,14,-12,20,52,20,7,-8,-9
1,-9,-10,4,6,-10,20,49,10,-7,-24,-16
-18,-29,-11,23,-3,-20,26,50,3,-34,-40,-23
-27,-47,-20,38,-3,-33,32,46,-1,-45,-46,-31
-19,-41,-22,30,2,-32,39,45,-6,-40,-41,-38
-22,-36,-14,29,-4,-25,50,45,-10,-41,-40,-37
-20,-31,-11,26,-4,-21,60,40,-15,-38,-39,-34
-21,-24,-4,23,-8,-14,64,36,-19,-36,-36,-36
-22,-21,1,21,-11,-10,61,34,-20,-34,-34,-34
-32,-24,8,28,-19,-8,60,29,-20,-40,-37,-36
-54,-25,29,40,-41,2,60,26,-19,-49,-39,-33
-54,-25,29,39,-41,2,60,22,-21,-51,-42,-31
-46,-25,22,35,-33,-1,61,20,-18,-48,-37,-28
-44,-26,18,35,-31,-4,57,20,-26,-55,-49,-39
-32,-22,10,27,-21,-6,51,17,-50,-72,-74,-62
-28,-20,7,24,-18,-6,44,14,-50,-62,-65,-48
-14,-16,-2,15,-5,-9,38,16,-45,-52,-56,-37
-2,-15,-13,10,6,-14,30,17,-44,-56,-61,-40
-20,-48,-28,34,4,-38,25,15,-39,-55,-59,-43
-28,-57,-29,42,1,-42,25,15,-41,-55,-63,-51
-29,-54,-25,42,-2,-40,25,11,-46,-55,-65,-56
-9,-55,-46,32,19,-50,25,10,-50,-57,-65,-61
-6,-55,-49,31,22,-52,24,10,-55,-64,-69,-64
-32,-71,-39,51,4,-55,31,5,-58,-71,-70,-65
-38,-75,-37,57,0,-56,37,2,-61,-70,-70,-65
-61,-76,-15,69,-22,-45,31,-2,-64,-70,-75,-65
-57,-55,1,56,-29,-27,29,-5,-67,-70,-75,-65
-37,-43,-5,40,-16,-24,25,-9,-70,-69,-75,-65
-26,-39,-13,33,-6,-26,21,-10,-76,-71,-74,-65
-20,-39,-19,30,0,-29,17,-10,-79,-80,-82,-67
-17,-46,-28,32,6,-37,15,-23,-77,-87,-91,-72
-5,-38,-33,22,14,-36,15,-13,-64,-74,-80,-68
-15,-45,-31,30,9,-38,15,3,-56,-66,-73,-66
-16,-46,-30,31,8,-37,14,8,-45,-55,-64,-62
-15,-44,-29,30,7,-36,16,14,-38,-48,-59,-60
-21,-47,-26,34,3,-36,14,11,-44,-53,-62,-58
-20,-43,-23,32,2,-33,16,23,-34,-45,-55,-53
-15,-47,-32,31,9,-39,15,13,-47,-57,-59,-57
-12,-57,-45,34,17,-51,14,26,-31,-41,-50,-52
-31,-59,-28,46,-1,-43,20,4,-46,-56,-58,-58
-28,-50,-22,39,-2,-36,22,15,-26,-24,-43,-51
-20,-50,-29,36,4,-39,31,2,-42,-35,-55,-44
-3,-16,-14,10,6,-15,15,40,-25,-1,0,-3
38,6,-32,-22,35,-13,55,176,154,171,157,90
83,47,-37,-65,59,5,-51,-219,245,473,460,281
476,216,-260,-346,368,-22,-519,-696,639,1178,1074,653
693,180,-513,-436,603,-166,-942,-1175,331,775,829,614
125,-56,-182,-34,153,-119,-821,-1471,-790,-537,-223,11
-221,-91,130,156,-175,19,-420,-944,-863,-710,-494,-268
-129,-45,85,86,-106,20,-205,-380,-345,-309,-215,-129
-102,-45,57,74,-79,6,-42,-81,-112,-136,-97,-77
-68,-40,28,54,-48,-6,22,7,-76,-108,-93,-82
-63,-39,24,51,-44,-7,17,4,-89,-110,-93,-78
-57,-34,23,46,-40,-5,40,38,-70,-98,-87,-82
-55,-38,17,47,-36,-10,29,31,-74,-103,-86,-78
-65,-47,17,55,-41,-15,28,34,-64,-94,-84,-84
-56,-43,13,49,-34,-15,18,18,-70,-96,-86,-84
-67,-50,16,58,-41,-17,12,13,-74,-98,-84,-87
-83,-69,14,76,-49,-27,4,4,-77,-103,-92,-90
-80,-65,15,72,-47,-25,1,-8,-85,-106,-107,-90
-72,-57,15,64,-43,-21,8,-16,-79,-100,-105,-85
-66,-51,14,58,-40,-18,11,-9,-74,-95,-96,-85
-64,-44,21,54,-42,-11,15,13,-69,-89,-88,-84
-82,-39,44,60,-63,2,34,32,-63,-83,-79,-79
-82,-26,57,54,-69,15,47,46,-58,-79,-71,-81
-74,-11,63,43,-68,26,44,56,-49,-71,-64,-76
-63,-1,62,32,-62,30,45,74,-28,-55,-52,-59
-57,7,65,25,-62,36,48,98,5,-31,-34,-37
-60,27,87,16,-74,57,52,139,39,1,-8,-13
-37,46,82,-5,-60,64,47,180,70,26,22,2
-35,42,77,-4,-56,59,47,212,97,46,42,22
-11,64,75,-27,-43,69,41,245,133,77,73,52
38,105,67,-72,-15,85,42,279,167,112,106,74
46,114,67,-81,-11,91,29,312,199,152,138,106
78,110,33,-94,22,72,-21,303,233,191,165,130
95,110,15,-103,40,62,-54,266,232,196,173,133
82,110,28,-96,27,69,-79,239,223,195,191,151
97,110,13,-104,42,61,-86,218,219,218,205,151
107,110,3,-109,52,56,-77,196,210,217,195,140
116,108,-8,-111,62,49,-72,163,207,204,183,134
125,97,-27,-111,76,35,-53,116,181,196,173,126
100,88,-12,-94,56,37,-20,86,146,178,152,114
66,78,12,-72,27,44,12,84,128,157,125,92
50,67,18,-59,16,42,28,81,107,124,95,75
37,58,21,-47,7,39,44,78,92,98,73,59
25,51,26,-38,-1,38,60,75,90,88,60,47
15,45,30,-30,-8,37,65,75,87,75,47,41
7,37,30,-22,-12,33,61,83,84,65,39,34
0,32,31,-16,-16,31,58,81,81,56,31,28
-11,24,35,-7,-23,30,53,75,80,48,23,21
-3,33,35,-16,-19,33,50,70,69,40,16,14
15,48,33,-32,-9,40,45,64,51,30,8,7
14,41,27,-28,-7,34,35,59,38,22,1,1
7,29,22,-18,-8,25,24,54,27,12,-6,-5
2,21,19,-12,-8,20,17,49,19,4,-14,-9
-4,10,14,-3,-9,11,22,46,10,-1,-21,-11
-15,-5,9,10,-12,2,30,43,1,-4,-28,-16
-9,-5,5,7,-7,0,35,38,5,-7,-31,-13
-5,-8,-3,7,0,-6,43,35,10,-12,-30,-9
-19,-22,-3,21,-8,-12,51,31,13,-15,-31,-11
-26,-19,8,22,-17,-5,68,25,20,-19,-34,-6
-24,-6,18,15,-20,5,87,20,17,-24,-37,-5
-24,3,27,10,-26,15,85,14,5,-28,-40,-5
-27,-2,25,15,-26,11,75,9,-6,-31,-42,-17
-26,-7,18,16,-22,5,66,4,-18,-36,-45,-37
-27,-13,14,19,-20,1,53,-2,-26,-40,-48,-40
-27,-19,8,23,-17,-5,43,-8,-33,-45,-51,-43
-25,-23,2,24,-13,-10,36,-13,-35,-42,-54,-46
-39,-38,2,38,-20,-17,29,-19,-35,-39,-56,-49
-47,-37,10,42,-28,-13,23,-24,-35,-41,-60,-50
-43,-28,14,35,-28,-6,15,-22,-35,-37,-65,-45
-34,-23,10,29,-22,-6,10,-19,-42,-51,-69,-45
-21,-15,6,18,-14,-4,16,-20,-48,-62,-70,-45
-14,-11,3,12,-9,-4,22,-20,-46,-59,-70,-45
-8,-9,0,8,-4,-4,27,-20,-43,-61,-70,-44
-12,-17,-5,15,-3,-11,33,-19,-40,-60,-70,-48
-25,-27,-2,26,-11,-14,39,-14,-38,-60,-70,-51
-35,-24,11,29,-22,-6,47,-11,-33,-57,-70,-50
-48,-26,22,37,-34,-2,48,-8,-40,-52,-70,-49
-50,-24,26,37,-38,1,44,-3,-48,-49,-70,-45
-50,-26,24,37,-36,-1,42,0,-45,-46,-70,-45
-49,-23,26,35,-37,2,39,-3,-45,-41,-70,-46
-34,-12,21,22,-27,5,36,-9,-45,-40,-69,-44
-40,-32,8,35,-24,-12,34,-14,-45,-48,-73,-47
-39,-43,-4,41,-17,-23,28,-17,-45,-53,-75,-55
-7,-33,-26,20,10,-30,17,-23,-49,-58,-75,-52
1,-32,-33,15,17,-32,11,-24,-52,-61,-75,-46
-3,-26,-22,15,10,-24,-1,-19,-56,-65,-75,-43
-7,-22,-15,15,4,-18,-3,-16,-65,-70,-79,-37
-7,-16,-9,12,1,-13,7,-13,-58,-67,-80,-33
-8,2,11,3,-9,6,13,-8,-47,-61,-80,-30
-23,5,28,8,-26,16,34,-5,-39,-56,-80,-30
-24,-2,21,13,-22,9,44,-1,-33,-49,-80,-30
-26,-6,20,16,-23,7,49,9,-26,-46,-78,-30
-30,-15,15,22,-22,0,62,13,-20,-49,-71,-30
-19,-7,12,13,-15,2,70,25,-12,-50,-67,-33
-9,-1,7,5,-8,3,82,34,-13,-50,-61,-32
-20,-13,7,16,-13,-3,58,26,-27,-50,-55,-29
-45,-21,24,33,-35,2,37,20,-25,-49,-50,-26
-35,-19,16,27,-25,-2,35,11,-25,-53,-50,-23
-27,-21,6,24,-16,-7,28,5,-24,-55,-50,-20
-19,-19,0,19,-10,-9,23,-3,-26,-59,-50,-21
-3,-22,-18,13,8,-20,17,-8,-24,-60,-50,-26
-30,-54,-23,42,-3,-38,12,-12,-28,-65,-49,-29
-21,-59,-38,40,9,-48,4,-18,-44,-65,-55,-35
-8,-49,-41,28,17,-45,-2,-19,-51,-58,-60,-42
-9,-46,-37,28,14,-41,-9,-29,-58,-60,-62,-40
-2,-39,-37,21,18,-38,6,-13,-40,-48,-57,-34
-29,-46,-17,38,-6,-31,28,-16,-45,-56,-64,-35
-37,-44,-7,41,-15,-25,35,4,-26,-38,-55,-26
-58,-43,15,50,-37,-14,49,3,-31,-51,-61,-28
-54,-25,29,39,-41,2,48,20,-18,-32,-39,-18
-26,-15,11,20,-18,-2,63,30,-13,-38,-39,-13
0,14,14,-7,-7,14,59,29,-13,-10,-14,5
64,53,-11,-59,37,21,95,207,182,175,149,103
86,64,-23,-75,54,20,63,-39,294,436,425,288
468,233,-235,-351,351,-1,-387,-580,597,1114,1032,662
790,274,-516,-532,653,-120,-902,-1106,375,860,930,712
239,5,-234,-122,237,-114,-849,-1435,-697,-435,-115,121
-202,-118,84,159,-143,-16,-467,-1018,-899,-728,-502,-239
-108,-84,24,96,-66,-29,-255,-454,-413,-354,-254,-141
-68,-79,-11,74,-29,-45,-98,-139,-152,-150,-109,-95
-73,-75,-3,74,-34,-39,-14,-34,-90,-114,-90,-93
-47,-73,-26,60,-10,-49,-24,-34,-105,-128,-98,-82
-20,-69,-49,44,15,-59,6,-4,-88,-111,-92,-79
-46,-66,-20,56,-12,-43,14,-5,-89,-117,-97,-71
-89,-63,25,75,-57,-19,31,13,-80,-107,-94,-69
-73,-60,13,67,-43,-23,46,19,-76,-107,-91,-63
-67,-57,9,62,-38,-24,63,30,-73,-103,-88,-59
-103,-55,48,79,-75,-3,77,33,-68,-100,-85,-55
-100,-53,47,76,-74,-2,68,28,-67,-98,-83,-60
-85,-47,38,66,-61,-5,62,31,-61,-94,-80,-60
-76,-42,33,59,-54,-4,52,29,-59,-93,-78,-60
-64,-39,25,51,-44,-7,43,30,-53,-86,-74,-60
-55,-34,21,44,-37,-6,30,31,-46,-81,-71,-60
-43,-29,14,36,-29,-7,3,37,-40,-75,-68,-58
-60,-42,17,50,-38,-12,-10,44,-32,-70,-65,-49
-75,-65,11,70,-43,-27,-11,49,-24,-64,-59,-43
-94,-65,29,79,-61,-18,-15,62,-10,-55,-48,-36
-68,-65,4,66,-36,-30,-12,81,5,-50,-41,-25
-36,-64,-28,51,-4,-46,-9,93,18,-39,-28,-14
-35,-29,6,32,-20,-12,-7,115,39,-13,0,2
-28,5,33,11,-30,19,-4,155,62,14,28,25
-16,32,48,-8,-32,40,-1,195,102,48,59,55
20,62,42,-42,-11,52,0,228,141,81,95,82
62,91,30,-77,16,60,-9,244,163,106,117,105
95,122,27,-109,34,74,-22,240,188,137,148,131
114,127,12,-121,51,69,-31,231,197,158,178,150
136,123,-14,-129,75,54,-49,223,209,177,196,164
139,117,-22,-128,81,47,-65,216,227,210,211,162
126,107,-18,-116,72,44,-65,192,232,229,203,158
113,100,-13,-106,63,43,-65,147,215,210,192,152
119,93,-27,-106,73,33,-65,105,176,177,167,116
128,79,-49,-103,88,14,-63,71,135,144,127,77
93,53,-40,-72,66,6,-31,59,99,111,93,49
63,34,-30,-48,46,2,-8,60,77,77,55,16
42,24,-18,-33,30,2,-10,60,70,49,34,-5
-7,-2,5,4,-6,1,19,64,67,44,35,-16
-40,-14,26,27,-33,6,35,65,65,42,36,-23
-23,8,31,8,-27,19,36,65,61,39,34,-16
-9,20,29,-5,-20,25,49,65,60,36,36,-7
-6,24,30,-9,-19,27,47,65,60,34,34,2
2,32,30,-17,-14,31,41,65,59,41,30,9
-1,34,35,-16,-19,34,36,65,61,48,30,13
-2,30,32,-14,-17,31,30,65,58,48,22,14
4,30,26,-18,-11,28,25,63,67,39,35,9
6,28,22,-17,-8,24,19,57,70,32,42,3
10,24,14,-17,-2,19,13,54,47,26,36,0
14,26,11,-20,1,18,6,49,35,15,36,-6
19,21,2,-20,8,11,0,45,24,14,17,-8
19,14,-5,-16,12,4,-8,35,11,-17,2,-18
22,6,-16,-14,18,-5,-6,19,6,-41,-14,-35
14,-1,-15,-7,15,-8,8,13,3,-39,-30,-36
-24,-7,17,16,-20,4,22,17,1,-34,-36,-35
-29,-17,12,23,-21,-2,30,22,-3,-15,-40,-33
-27,-21,5,24,-16,-8,39,26,-4,-44,-36,-29
-47,-24,23,35,-35,0,50,31,-11,-58,-35,-30
-27,-11,17,19,-22,3,45,19,-39,-44,-35,-33
-30,-17,13,24,-21,-2,36,5,-47,-46,-35,-39
-56,-47,8,51,-32,-19,32,-8,-40,-37,-35,-43
-55,-51,4,53,-30,-23,22,-27,-40,-35,-37,-44
-53,-54,-1,53,-25,-27,24,-12,-33,-35,-40,-40
-34,-56,-22,46,-6,-39,30,7,-32,-34,-43,-40
-36,-61,-25,49,-5,-43,23,-1,-31,-37,-45,-39
-39,-58,-18,49,-10,-38,15,-7,-38,-44,-50,-47
-38,-56,-18,47,-9,-37,9,-15,-48,-44,-57,-58
-38,-48,-10,43,-14,-29,-1,-23,-48,-37,-58,-48
-32,-45,-13,38,-10,-28,-2,-28,-72,-68,-73,-59
-42,-69,-26,56,-8,-47,19,-26,-81,-93,-80,-78
-36,-57,-21,47,-7,-39,37,-19,-73,-72,-70,-67
-43,-46,-3,45,-20,-24,33,-16,-71,-64,-65,-54
-46,-42,4,44,-24,-19,37,-10,-65,-61,-57,-50
-58,-33,25,45,-41,-5,53,-8,-62,-56,-51,-50
-78,-28,50,53,-64,10,56,3,-57,-51,-54,-48
-63,-20,42,41,-52,11,55,11,-54,-46,-66,-44
-55,-20,35,37,-45,7,55,6,-51,-43,-67,-46
-31,-18,13,25,-22,-2,51,3,-46,-38,-62,-41
-54,-30,24,42,-39,-3,48,0,-44,-33,-60,-40
-65,-26,39,45,-52,6,46,-6,-39,-29,-55,-40
-19,-13,7,16,-13,-3,42,0,-41,-24,-52,-40
-19,-14,5,16,-12,-5,41,11,-38,-21,-48,-40
-26,-25,1,25,-14,-11,37,10,-34,-41,-59,-41
-16,-20,-4,18,-6,-12,32,4,-35,-53,-64,-46
-9,-12,-3,11,-2,-8,26,3,-42,-39,-51,-48
-2,-37,-35,19,17,-36,22,-3,-76,-62,-73,-65
1,-39,-40,19,21,-39,14,-5,-90,-80,-88,-70
-13,-30,-18,22,3,-24,11,1,-75,-65,-71,-61
-18,-29,-11,24,-3,-20,25,-2,-70,-65,-66,-59
-19,-23,-4,21,-7,-13,32,3,-61,-62,-63,-50
-29,-27,2,27,-15,-12,28,-4,-69,-69,-68,-48
-34,-24,10,29,-22,-7,25,4,-61,-60,-62,-40
-38,-24,14,31,-25,-5,23,-4,-68,-69,-68,-41
-45,-34,11,39,-28,-11,18,2,-64,-62,-62,-40
-49,-40,9,45,-29,-15,20,2,-57,-59,-61,-39
-32,-25,7,28,-19,-9,11,-7,-61,-50,-54,-43
-16,-11,4,13,-10,-3,19,15,-33,-28,-44,-33
4,6,2,-5,1,4,11,-27,-70,-45,-42,-20
72,60,-13,-66,42,23,36,173,117,137,121,88
85,55,-30,-70,57,12,73,77,289,392,362,243
321,170,-151,-246,235,10,-282,-409,581,1055,948,591
688,277,-411,-482,549,-66,-800,-885,645,1201,1137,798
309,28,-282,-168,296,-127,-810,-1351,-387,-76,124,240
-213,-153,60,183,-136,-46,-465,-1116,-956,-772,-538,-261
-159,-94,64,126,-112,-15,-253,-567,-546,-450,-333,-191
-93,-62,31,77,-62,-16,-108,-189,-200,-173,-141,-91
-94,-58,36,76,-65,-10,5,-10,-89,-100,-90,-65
-71,-48,23,59,-47,-12,22,-17,-101,-110,-82,-58
-67,-41,27,54,-47,-7,39,12,-85,-80,-79,-61
-55,-40,15,48,-35,-13,41,5,-84,-81,-81,-59
-58,-40,18,48,-38,-10,45,16,-81,-74,-80,-61
-51,-40,11,45,-31,-14,46,21,-75,-69,-80,-59
-51,-40,11,46,-31,-15,48,23,-74,-87,-80,-69
-52,-38,14,45,-33,-12,52,27,-68,-91,-80,-67
-60,-36,24,47,-41,-6,46,23,-67,-87,-81,-58
-62,-33,29,48,-45,-2,43,26,-66,-84,-80,-54
-60,-38,22,49,-40,-8,21,24,-87,-81,-83,-45
-45,-29,16,37,-30,-7,-1,23,-89,-79,-76,-41
-37,-56,-19,46,-9,-38,-6,20,-81,-95,-100,-55
-57,-84,-27,71,-14,-55,-8,19,-80,-99,-118,-54
-47,-57,-11,52,-18,-34,-11,15,-73,-88,-83,-42
-31,-44,-13,37,-9,-28,-14,16,-71,-74,-67,-30
-28,-34,-6,31,-11,-20,-15,33,-49,-41,-49,-7
-16,-21,-5,19,-5,-13,-10,69,-14,-11,-21,12
-23,-11,12,17,-17,0,-10,95,14,15,-12,24
-20,19,39,0,-30,28,-10,123,52,38,14,44
10,54,43,-33,-17,48,-10,159,87,59,54,71
21,70,49,-46,-14,59,-10,190,123,96,78,94
33,90,58,-62,-13,74,-12,222,153,124,105,118
59,112,53,-86,3,82,-23,241,189,157,139,136
85,132,47,-109,19,89,-31,247,224,188,168,160
106,149,43,-127,31,95,-40,243,231,204,204,187
108,143,36,-126,36,89,-49,241,245,234,233,205
108,140,32,-124,38,86,-60,231,252,241,228,198
119,142,23,-131,48,82,-72,190,243,233,218,184
115,121,6,-118,55,63,-74,140,216,218,199,156
81,71,-10,-76,45,30,-66,88,148,144,123,102
67,28,-39,-47,52,-5,-62,40,94,86,66,70
70,18,-52,-44,61,-17,-49,28,69,64,49,39
61,17,-44,-39,52,-13,-22,31,54,45,27,18
46,7,-39,-26,42,-15,-10,29,45,44,16,21
36,8,-28,-21,32,-10,3,32,45,46,14,19
30,14,-15,-22,22,0,21,38,46,44,10,20
22,17,-5,-19,14,5,33,57,44,46,7,20
24,23,0,-24,12,11,50,75,52,44,5,20
19,26,6,-23,6,16,59,89,67,45,19,25
24,35,10,-30,7,22,66,101,85,60,40,25
37,56,19,-47,9,37,70,103,99,67,47,25
20,58,37,-39,-9,47,59,97,104,62,50,25
5,48,43,-27,-20,46,52,83,100,60,49,22
-2,43,45,-21,-24,44,42,74,91,60,45,13
-16,36,52,-10,-35,44,35,58,66,36,27,2
-18,17,35,0,-26,26,11,21,32,1,3,-7
-5,-7,-2,6,-2,-4,-30,0,24,-10,-4,-15
-7,-12,-5,10,0,-8,-34,-12,16,-21,-11,-23
-20,-17,3,18,-11,-6,-22,-18,7,-34,-18,-25
-23,-20,4,21,-13,-8,-17,-11,2,-26,-24,-25
-27,-14,13,20,-19,-1,-3,-6,-14,-28,-30,-29
-19,-9,11,13,-15,1,21,1,-23,-42,-30,-31
-38,-4,34,21,-36,15,39,4,-16,-37,-30,-29
-48,2,50,23,-49,26,46,15,-11,-34,-30,-26
-19,8,27,5,-24,17,52,27,-6,-32,-30,-25
-17,8,25,4,-21,16,54,32,0,-25,-30,-25
-21,2,24,9,-23,13,50,35,5,-27,-32,-25
-22,-2,20,12,-21,9,45,28,-2,-30,-36,-25
-22,-4,18,13,-20,6,41,20,-12,-31,-38,-27
-41,-16,25,28,-33,4,36,14,-20,-35,-43,-38
-49,-24,25,36,-37,1,31,6,-30,-34,-45,-45
-42,-49,-7,46,-17,-28,27,-1,-34,-46,-52,-43
-56,-77,-21,67,-17,-49,18,-8,-46,-58,-64,-57
-64,-72,-8,69,-28,-40,7,-16,-52,-53,-60,-61
-80,-69,11,74,-46,-28,-1,-24,-48,-51,-55,-56
-84,-67,17,75,-50,-25,-19,-32,-46,-48,-50,-55
-68,-59,9,63,-38,-24,-27,-39,-42,-45,-43,-51
-45,-37,8,41,-26,-15,-14,-33,-40,-44,-39,-49
-26,-23,3,24,-15,-10,-3,-22,-36,-39,-35,-46
-27,-20,7,23,-17,-6,8,-13,-35,-36,-35,-45
-44,-13,32,28,-38,9,16,-2,-31,-33,-35,-45
-45,-9,35,27,-40,13,25,6,-24,-28,-35,-45
-28,1,29,14,-28,14,33,13,-20,-25,-35,-45
-39,-11,28,24,-33,8,42,18,-13,-28,-35,-47
-47,-26,21,36,-33,-2,53,31,-11,-31,-35,-50
-47,-26,21,36,-33,-2,62,37,-15,-34,-35,-50
-33,-21,12,27,-22,-5,65,34,-14,-37,-35,-54
-28,-23,5,25,-16,-9,65,36,-20,-39,-35,-56
-37,-44,-6,41,-15,-25,65,34,-28,-42,-34,-54
-41,-46,-5,44,-18,-25,64,36,-34,-44,-30,-50
-66,-44,22,55,-43,-11,66,32,-42,-48,-30,-50
-72,-46,26,58,-48,-10,41,12,-50,-50,-27,-49
-70,-44,25,56,-47,-10,8,-1,-53,-54,-24,-44
-68,-44,23,56,-45,-10,3,-7,-50,-55,-25,-46
-51,-30,21,40,-35,-4,1,-14,-50,-52,-21,-42
-35,-16,19,25,-26,1,-5,-21,-48,-47,-17,-40
-40,-15,25,27,-32,5,-6,-23,-44,-44,-14,-39
-65,-30,35,47,-49,2,-13,-17,-45,-41,-11,-37
-73,-38,35,55,-54,-1,-1,-14,-41,-36,-6,-33
-70,-35,36,52,-52,1,0,-9,-39,-36,-6,-37
-69,-36,33,52,-50,-2,13,-4,-36,-40,-14,-38
-75,-31,44,53,-59,6,33,0,-33,-42,-21,-44
-45,-32,14,39,-30,-9,26,7,-30,-45,-28,-49
-22,-27,-4,25,-9,-15,37,12,-31,-48,-36,-48
-37,-46,-8,42,-14,-27,19,18,-38,-50,-43,-65
-29,-53,-24,41,-2,-39,45,23,-36,-50,-42,-52
-34,-23,11,29,-22,-6,13,25,-35,-50,-38,-70
-50,-24,26,37,-38,1,53,25,-35,-50,-34,-48
-51,-21,30,36,-40,4,22,25,-31,-50,-32,-73
-51,-14,38,32,-44,12,36,25,-29,-50,-25,-48
-63,-11,52,37,-57,20,292,25,-32,-51,-29,76
-54,-2,52,28,-53,25,86,14,-35,-59,-34,-19
-25,-1,24,13,-25,11,-155,-12,-39,-67,-20,-96
