I,II,III,aVR,aVL,aVF,V1,V2,V3,V4,V5,V6
14,23,10,-18,1,16,-25,205,274,165,5,10
12,26,14,-19,-2,20,-25,199,269,164,9,14
9,29,20,-19,-6,24,-25,192,271,161,16,21
15,28,13,-22,1,20,-25,187,260,157,23,27
36,41,5,-39,16,23,-26,155,220,155,29,34
7,5,-3,-6,5,1,-39,110,170,132,36,29
10,1,-9,-5,10,-4,-35,83,117,87,16,20
1,-15,-16,7,9,-15,-26,63,67,40,-13,12
-31,-53,-22,42,-4,-37,-7,46,36,7,-26,4
-24,-54,-29,39,3,-41,17,32,21,-15,-48,-2
-46,-81,-35,64,-5,-58,27,26,7,-37,-61,-7
-69,-103,-35,86,-17,-68,37,21,-8,-41,-63,-10
-69,-107,-38,88,-15,-72,36,16,-15,-40,-66,-13
-59,-98,-39,78,-9,-68,35,10,-17,-40,-65,-18
-42,-91,-49,67,3,-69,34,6,-20,-40,-65,-20
-34,-90,-56,62,11,-72,29,9,-23,-40,-65,-20
-35,-86,-50,60,8,-67,30,13,-26,-35,-65,-19
-36,-84,-47,60,6,-65,30,16,-23,-35,-66,-23
-36,-80,-44,58,4,-62,30,20,-19,-34,-69,-29
-41,-79,-38,60,-1,-58,30,25,-17,-30,-70,-32
-23,-73,-51,48,14,-62,30,22,-14,-30,-70,-35
2,-69,-71,34,36,-70,30,20,-11,-33,-70,-37
7,-63,-70,28,39,-66,31,20,-9,-35,-70,-41
7,-62,-69,27,38,-66,34,17,-6,-35,-68,-38
14,-52,-66,20,40,-59,37,14,-3,-35,-63,-34
3,-61,-64,30,34,-63,40,15,-1,-35,-60,-36
1,-64,-65,32,33,-64,43,21,3,-34,-57,-31
23,-23,-47,0,35,-35,54,23,5,-31,-52,-30
16,-22,-38,3,28,-30,66,20,3,-30,-50,-30
28,-13,-40,-8,34,-26,68,19,-7,-30,-44,-23
71,31,-40,-51,55,-4,59,23,-11,-29,-38,-12
90,50,-40,-70,65,5,1,-16,-22,-29,-34,-3
89,48,-41,-68,65,4,-60,-55,-44,-38,-27,10
107,56,-51,-81,79,3,-50,-42,-44,-41,-23,34
98,41,-57,-69,77,-8,-15,-28,-38,-39,-19,19
49,-5,-54,-21,51,-29,20,-18,-36,-42,-39,-14
17,-34,-51,8,34,-42,47,-14,-31,-54,-62,-25
7,-41,-48,17,28,-45,50,-4,-30,-65,-67,-39
23,-22,-45,0,34,-33,50,-1,-41,-65,-74,-44
0,-44,-44,22,22,-44,50,10,-38,-65,-82,-47
-27,-67,-40,47,7,-53,50,7,-42,-66,-78,-49
-28,-65,-37,47,5,-51,50,4,-39,-63,-81,-53
-25,-61,-35,44,5,-48,55,8,-40,-68,-80,-55
-25,-55,-31,40,3,-43,54,-1,-43,-62,-78,-52
-19,-50,-31,34,6,-40,58,15,-29,-69,-88,-38
-12,-45,-33,29,11,-38,76,6,-35,-62,-83,-49
-32,-94,-62,63,16,-77,123,126,94,-10,-80,-72
137,73,-64,-105,100,5,-10,13,265,505,300,160
392,336,-56,-364,224,139,-355,-479,49,879,713,467
277,229,-48,-253,162,90,-415,-945,-849,-158,252,336
-47,-59,-12,53,-17,-36,-250,-1073,-1305,-948,-334,-24
-118,-157,-38,138,-40,-97,-164,-536,-637,-505,-297,-130
-41,-85,-45,63,2,-65,-48,-86,-143,-162,-124,-70
-1,-28,-27,15,13,-27,19,-18,-51,-68,-73,-49
10,-11,-21,1,16,-16,32,34,10,-42,-59,-35
-7,-11,-4,9,-1,-7,55,42,22,-36,-52,-27
2,6,4,-4,-1,5,52,63,48,-15,-48,-18
16,31,16,-24,0,23,48,68,45,-16,-43,-10
13,35,23,-24,-5,29,43,70,45,-1,-40,-10
2,34,32,-18,-16,33,39,71,63,2,-31,-5
12,45,32,-29,-10,38,35,74,84,17,-18,-4
8,37,29,-22,-11,32,28,75,89,23,-7,0
2,31,29,-17,-14,30,18,76,94,37,1,1
39,62,23,-51,8,42,7,88,100,53,9,5
37,67,30,-52,3,48,-1,100,117,60,18,5
19,63,45,-41,-14,54,-7,127,129,71,24,7
21,66,45,-44,-12,56,-15,137,163,98,33,11
19,64,45,-42,-13,54,-22,150,204,129,40,9
20,65,45,-43,-13,55,-30,155,218,142,40,14
14,59,45,-37,-15,51,-34,145,238,157,48,20
13,60,47,-37,-17,54,-36,140,235,167,51,25
10,61,51,-35,-21,56,-34,130,220,160,50,32
4,58,54,-31,-25,55,-38,125,212,151,56,34
23,79,56,-51,-17,67,-51,114,187,138,53,28
31,92,61,-61,-15,76,-49,89,143,114,48,22
33,90,57,-62,-12,74,-38,61,101,76,45,18
34,88,55,-62,-10,71,-32,38,57,36,28,11
38,93,55,-66,-9,74,-17,31,32,12,8,7
16,67,51,-42,-18,59,14,26,15,-2,3,0
-28,21,50,4,-39,35,32,21,-12,-17,0,-9
-19,31,50,-6,-35,41,37,15,-8,-30,-3,-18
-17,37,55,-10,-37,46,43,11,-2,-36,-8,-24
-31,28,60,2,-45,44,45,15,1,-34,-10,-18
-34,30,64,2,-49,47,45,20,7,-38,-4,-12
-41,22,63,9,-53,42,45,24,10,-40,1,-8
-38,20,59,9,-49,40,45,29,15,-40,6,-1
-21,35,56,-7,-39,45,46,33,15,-34,12,3
-17,35,52,-9,-35,43,49,38,17,-17,18,9
-29,21,50,4,-39,35,50,41,22,-8,18,10
-29,13,43,8,-36,28,52,46,25,-9,13,11
-29,3,32,13,-31,18,55,49,30,-13,10,14
-24,-1,22,12,-23,10,58,52,30,-15,7,16
-30,-10,20,20,-25,5,61,55,30,-19,2,14
-43,-23,20,33,-32,-2,65,57,30,-20,0,10
-39,-18,20,28,-29,1,73,61,29,-16,5,10
-27,-7,20,17,-23,6,78,57,33,-14,9,10
-25,-4,21,15,-23,8,88,52,38,-11,11,10
-18,17,35,0,-27,26,101,46,34,-9,16,10
4,46,42,-25,-19,44,97,40,21,-4,19,13
-1,41,41,-20,-21,41,62,37,16,-7,21,19
-5,35,40,-15,-23,37,9,22,-7,-27,19,22
14,45,31,-30,-9,38,-29,9,-39,-44,23,29
11,29,18,-20,-4,23,-30,-18,-41,-48,22,29
-25,-17,8,21,-17,-5,-7,-24,-39,-52,-6,6
-53,-49,4,50,-28,-22,30,-6,-37,-57,-27,-21
-53,-51,2,52,-28,-24,52,-5,-35,-64,-41,-32
-46,-47,-2,46,-22,-24,54,2,-34,-76,-56,-27
-41,-45,-4,43,-18,-24,55,1,-32,-73,-53,-25
-36,-42,-6,39,-15,-24,55,11,-28,-77,-57,-46
-29,-39,-10,34,-9,-25,55,7,-33,-79,-58,-50
-20,-37,-17,29,-1,-27,55,18,-27,-80,-62,-52
-8,-34,-26,21,9,-30,57,17,-33,-81,-59,-55
-3,-31,-28,17,13,-29,61,25,-30,-71,-61,-54
12,-30,-42,9,27,-35,59,29,-24,-76,-60,-62
-28,-64,-36,46,5,-50,83,41,-2,-49,-64,-67
-24,-84,-60,54,18,-71,124,169,160,72,-25,-55
171,130,-40,-150,105,45,-104,-69,294,708,476,232
338,368,30,-353,153,199,-425,-589,-108,799,746,489
183,194,11,-189,86,102,-378,-1006,-1062,-459,80,222
-133,-113,20,123,-76,-46,-234,-976,-1206,-930,-380,-99
-161,-148,13,154,-87,-67,-138,-384,-473,-388,-228,-129
-43,-58,-15,51,-14,-36,-12,-45,-106,-125,-81,-60
-36,-41,-5,39,-15,-22,21,-3,-28,-52,-39,-31
-48,-51,-3,49,-23,-27,25,38,11,-42,-30,-31
-56,-49,7,52,-32,-21,26,51,47,-23,-25,-22
-65,-53,12,59,-38,-20,21,70,69,-12,-23,-19
-74,-55,19,64,-46,-17,21,62,63,-4,-18,-11
-73,-56,17,64,-44,-19,19,67,75,10,-15,-12
-62,-48,14,54,-38,-17,16,64,71,15,-12,-25
-43,-27,16,35,-29,-5,4,65,81,30,-3,-23
-33,-18,15,25,-24,-1,-2,69,83,28,2,-19
-32,-17,15,24,-23,-1,-13,75,97,40,10,-16
-28,-12,16,19,-22,2,-22,87,112,52,16,-11
-30,-9,20,19,-25,5,-25,106,125,64,21,-9
-24,-4,20,14,-21,7,-29,133,153,102,47,-3
-19,1,20,9,-20,10,-36,141,175,119,57,3
3,23,20,-13,-9,22,-42,156,206,133,55,8
26,46,20,-36,3,33,-50,174,236,158,61,14
25,45,20,-35,2,32,-60,169,249,159,59,19
44,64,20,-54,12,42,-66,160,241,153,56,17
49,69,20,-59,14,44,-68,155,234,146,53,14
40,59,20,-49,10,39,-76,143,216,140,51,15
37,57,20,-47,8,39,-83,106,174,128,47,10
30,49,19,-39,5,34,-77,76,127,96,46,10
34,47,13,-41,10,29,-68,59,87,62,39,9
27,32,6,-30,10,19,-64,36,58,29,17,-3
18,17,-1,-17,9,8,-49,23,20,-5,-2,-14
23,15,-8,-18,15,3,-27,16,-8,-27,-18,-31
29,15,-14,-22,21,0,-20,9,-17,-44,-33,-39
30,15,-15,-22,22,0,-18,2,-31,-51,-43,-46
30,15,-15,-22,22,0,-14,0,-38,-49,-46,-60
30,15,-15,-22,22,0,-12,0,-35,-50,-45,-55
24,9,-15,-16,19,-3,-10,0,-36,-50,-45,-47
20,4,-15,-11,17,-6,-7,0,-32,-50,-45,-41
11,-3,-14,-4,12,-8,-2,0,-30,-46,-45,-34
3,-6,-10,1,7,-8,1,5,-30,-40,-43,-29
-1,-12,-10,6,5,-11,5,10,-27,-35,-40,-24
-10,-17,-7,14,-1,-12,8,14,-24,-30,-37,-26
3,-2,-5,0,4,-3,12,19,-21,-23,-34,-22
23,18,-5,-20,14,6,15,24,-18,-21,-31,-20
20,18,-2,-19,11,8,24,23,-15,-25,-30,-19
4,7,3,-6,0,5,24,19,-15,-25,-35,-22
-11,-6,5,8,-8,0,26,21,-14,-25,-38,-28
-28,-18,10,23,-18,-4,24,19,-31,-25,-45,-35
-35,-22,13,28,-24,-4,27,21,-43,-26,-53,-42
-23,-6,17,14,-20,5,49,26,-37,-28,-49,-34
-22,7,30,8,-26,18,40,17,-46,-31,-45,-26
-36,-9,27,22,-31,9,30,9,-42,-33,-42,-18
-33,-15,18,24,-25,1,-11,-25,-49,-38,-37,-10
-17,-9,8,13,-12,0,-66,-57,-50,-53,-35,-5
13,3,-10,-8,12,-3,-58,-47,-39,-55,-40,4
3,-21,-24,10,13,-22,-32,-39,-69,-55,-45,1
-34,-70,-36,52,2,-53,-4,-14,-77,-54,-47,-17
-55,-91,-36,74,-9,-64,8,6,-74,-61,-57,-48
-88,-122,-34,105,-26,-78,16,6,-75,-69,-66,-68
-89,-125,-35,107,-27,-80,29,0,-76,-76,-64,-72
-86,-116,-29,101,-28,-72,29,0,-74,-89,-66,-74
-84,-116,-31,100,-26,-73,31,-5,-70,-89,-64,-68
-78,-107,-28,93,-25,-68,30,-7,-63,-76,-69,-68
-75,-107,-32,91,-21,-69,30,6,-54,-76,-70,-63
-75,-103,-28,89,-23,-65,31,2,-55,-63,-72,-61
-76,-107,-31,91,-22,-69,29,26,-33,-61,-77,-60
-73,-103,-30,88,-21,-66,54,11,-48,-71,-74,-70
-78,-107,-29,93,-24,-68,109,125,61,-39,-97,-102
48,29,-19,-39,34,5,-15,-13,152,366,218,97
275,333,58,-304,108,195,-407,-582,-83,818,710,450
268,274,6,-271,131,139,-521,-1038,-904,-67,354,382
-2,-55,-53,30,25,-54,-343,-1170,-1431,-1004,-320,-2
-126,-123,3,125,-64,-60,-227,-610,-736,-567,-310,-139
-62,-51,11,57,-37,-20,-41,-57,-140,-147,-122,-82
-46,-19,27,32,-36,4,46,14,-50,-66,-72,-48
-44,-17,27,30,-35,5,34,75,23,-17,-44,-33
-32,-9,23,20,-27,7,42,88,21,-19,-42,-34
-29,-1,28,15,-28,13,30,95,42,3,-31,-29
-8,14,22,-4,-16,18,34,99,45,-3,-25,-26
7,40,33,-24,-13,36,28,98,51,12,-17,-25
4,37,33,-21,-15,35,26,107,65,15,-13,-19
2,28,26,-16,-12,27,25,108,79,20,-10,-7
4,23,19,-14,-8,21,25,120,98,44,1,6
5,16,11,-11,-3,13,26,140,112,68,16,12
4,8,4,-6,0,6,23,163,133,82,25,19
37,35,-3,-36,20,16,34,186,155,97,42,26
46,37,-9,-41,27,14,40,213,175,120,56,33
29,16,-14,-22,21,1,33,231,215,141,62,39
52,33,-19,-42,35,7,30,257,248,159,76,40
62,37,-26,-49,44,5,25,271,277,188,85,40
62,33,-29,-48,45,2,21,260,313,210,90,39
53,27,-26,-40,39,0,16,249,317,210,90,41
45,22,-23,-33,34,0,10,238,310,202,90,45
38,17,-20,-28,29,-1,2,214,301,192,90,45
27,9,-18,-17,22,-4,-4,176,272,184,90,47
40,26,-14,-33,27,6,-12,128,216,151,83,50
47,30,-18,-38,32,6,-24,84,149,112,67,50
54,27,-26,-40,39,1,-9,47,104,83,56,46
44,10,-34,-27,39,-12,11,14,67,52,37,35
20,-20,-40,0,30,-30,19,-1,37,23,20,25
-5,-44,-40,25,18,-42,30,0,25,-7,10,19
-24,-65,-41,45,9,-53,41,0,12,-16,0,14
-6,-51,-45,29,20,-48,46,0,5,-14,-11,10
-28,-73,-45,51,9,-59,45,0,6,-18,-25,5
-31,-74,-43,53,6,-58,45,2,4,-20,-25,0
-10,-47,-37,29,14,-42,45,7,6,-20,-19,4
-35,-67,-32,51,-1,-50,45,10,4,-17,-15,5
-39,-67,-29,53,-5,-48,46,13,11,-12,-10,5
-36,-60,-24,48,-6,-42,55,18,36,-9,-6,10
-37,-56,-19,46,-8,-37,64,20,40,-6,-5,10
-33,-49,-15,42,-9,-32,65,15,40,-1,-5,10
-37,-46,-9,42,-13,-27,65,15,40,0,-1,10
-35,-40,-6,38,-14,-23,65,14,39,0,1,10
-39,-40,-1,39,-19,-20,65,10,41,0,-2,10
-37,-33,3,35,-20,-15,65,9,34,0,-5,10
-40,-32,8,35,-24,-12,72,13,33,0,-8,10
-43,-25,18,34,-30,-4,73,22,23,0,-10,13
-36,-9,27,22,-31,8,83,33,38,3,-7,18
-38,2,40,18,-39,20,87,29,56,6,-3,20
-31,6,37,12,-34,21,74,24,56,9,-2,25
-22,11,33,6,-28,21,65,10,47,10,4,28
20,32,12,-26,4,21,-10,-42,-4,2,2,32
65,36,-29,-50,47,4,-66,-57,-20,-3,12,42
38,2,-36,-20,37,-17,-39,-46,-30,-13,15,31
-16,-51,-35,34,10,-43,0,-42,-47,-29,-15,17
-47,-81,-34,65,-6,-57,36,-33,-46,-45,-32,-3
-54,-98,-44,76,-5,-70,41,-29,-51,-66,-51,-37
-32,-96,-65,65,17,-80,39,-20,-52,-71,-64,-48
-38,-103,-65,71,14,-84,41,-22,-58,-71,-63,-54
-63,-127,-64,96,1,-95,39,-11,-48,-77,-67,-52
-54,-123,-69,89,8,-96,41,-16,-51,-73,-63,-47
-80,-155,-75,118,-2,-115,42,-3,-36,-67,-66,-45
-84,-159,-75,122,-4,-117,47,-8,-43,-69,-64,-40
-82,-150,-68,116,-7,-109,44,-9,-27,-57,-66,-37
-76,-147,-71,112,-3,-109,61,2,-34,-65,-67,-34
-80,-133,-54,107,-12,-93,83,20,-36,-85,-87,-79
-67,-118,-51,93,-8,-84,86,106,111,52,-21,-45
141,107,-34,-123,87,36,-167,-251,113,627,454,257
303,285,-18,-294,160,133,-512,-832,-381,569,650,476
131,64,-66,-97,98,-1,-439,-1203,-1267,-634,8,214
-148,-184,-36,166,-55,-109,-277,-1051,-1231,-926,-384,-114
-168,-160,7,164,-87,-76,-152,-352,-403,-329,-210,-125
-98,-80,19,89,-58,-30,-2,-50,-95,-125,-87,-67
-102,-58,44,79,-73,-6,28,-20,-20,-53,-43,-47
-88,-43,45,65,-66,1,48,37,15,-27,-19,-33
-87,-35,51,61,-69,8,47,40,31,-18,-11,-31
-47,8,55,19,-51,31,49,58,49,-7,-4,-21
-38,25,63,6,-51,44,55,51,48,-4,2,-16
-35,30,65,2,-50,48,54,68,86,10,10,-9
7,67,60,-37,-26,64,53,68,85,8,14,-5
12,71,59,-41,-24,65,42,78,94,31,20,-5
17,72,55,-45,-19,63,39,86,99,47,23,-4
22,75,53,-49,-16,64,30,96,110,53,27,0
28,77,49,-52,-11,63,25,112,125,63,32,0
25,78,52,-52,-13,65,18,117,141,79,33,2
41,97,57,-70,-8,77,13,150,172,103,51,8
64,116,52,-91,5,84,7,171,203,120,68,12
37,104,67,-71,-15,85,3,191,235,141,70,15
22,100,78,-61,-28,88,-4,218,262,162,75,10
23,92,69,-58,-23,80,-8,219,280,176,71,6
20,86,66,-53,-23,76,-14,210,271,180,64,4
23,82,59,-53,-18,70,-21,201,260,165,58,-1
22,76,54,-49,-16,64,-26,177,248,149,50,-4
24,73,49,-49,-13,61,-53,129,199,125,45,-7
27,68,41,-48,-7,54,-66,84,137,82,38,-13
25,58,33,-42,-4,45,-57,48,88,39,28,-18
20,45,25,-32,-3,35,-49,18,44,17,16,-21
18,36,17,-27,0,26,-34,10,9,-9,3,-26
13,24,11,-19,1,17,-11,8,-6,-39,-7,-31
12,16,4,-14,4,10,14,5,-14,-50,-20,-35
5,3,-3,-4,4,0,16,2,-23,-50,-28,-35
-9,-18,-9,14,0,-13,15,-1,-33,-51,-25,-35
-3,-20,-16,12,7,-18,13,4,-32,-55,-25,-35
8,-11,-19,2,14,-15,9,5,-29,-55,-25,-35
6,-7,-14,1,10,-10,10,5,-30,-53,-25,-37
8,0,-8,-4,9,-4,10,5,-25,-50,-24,-40
-1,-6,-5,4,2,-5,10,4,-25,-50,-34,-39
-31,-30,0,30,-15,-15,10,6,-24,-50,-42,-35
-39,-35,4,37,-22,-15,10,10,-20,-50,-39,-35
-35,-26,9,30,-22,-8,10,10,-21,-50,-41,-35
-20,-4,16,12,-18,6,11,10,-17,-50,-38,-35
-31,-10,21,20,-26,6,16,10,-15,-50,-49,-35
-56,-31,25,43,-41,-2,22,9,-15,-50,-61,-34
-47,-23,25,34,-36,1,24,15,-12,-50,-55,-41
-47,-17,30,32,-39,7,31,25,-9,-50,-51,-44
-38,-9,29,24,-33,10,32,35,-11,-48,-46,-37
-38,-2,37,20,-38,17,48,43,-4,-38,-42,-32
-37,31,68,3,-53,49,57,38,-6,-30,-30,-26
-7,63,70,-28,-39,66,52,32,-2,-30,-18,-20
0,66,67,-33,-34,67,47,14,14,-22,-19,-12
15,62,47,-39,-16,54,-22,-36,-22,-36,-20,-4
70,71,0,-70,34,35,-76,-55,-48,-59,-23,5
60,42,-19,-51,39,12,-60,-48,-44,-61,-25,8
18,-10,-29,-4,24,-19,-27,-39,-45,-63,-28,2
-1,-44,-43,23,21,-43,13,-9,-40,-68,-44,-18
-38,-96,-58,67,10,-77,37,5,-40,-68,-65,-39
-30,-99,-69,65,20,-83,46,6,-39,-74,-72,-41
-29,-108,-80,69,26,-94,47,3,-42,-74,-68,-39
-40,-126,-86,84,23,-106,51,8,-38,-79,-68,-41
-33,-110,-77,72,23,-94,53,1,-43,-81,-64,-40
-37,-107,-70,72,17,-88,56,10,-36,-81,-65,-46
-34,-100,-66,67,16,-83,58,9,-44,-89,-60,-47
-39,-94,-55,67,8,-74,65,8,-34,-82,-50,-52
-29,-88,-59,59,16,-74,65,16,-36,-97,-58,-55
-39,-111,-71,75,16,-91,79,22,-33,-82,-81,-67
-16,-117,-101,67,43,-109,117,130,108,20,-53,-66
165,69,-96,-116,131,-14,-110,-150,165,560,370,209
354,288,-66,-321,210,111,-471,-721,-239,672,665,480
234,103,-132,-168,183,-14,-448,-1149,-1157,-498,84,261
-51,-185,-135,118,42,-160,-276,-1086,-1276,-945,-377,-74
-62,-159,-97,111,18,-128,-152,-395,-457,-359,-226,-127
18,-69,-87,25,53,-78,-10,-28,-78,-106,-85,-54
14,-44,-58,15,36,-51,30,2,-14,-33,-37,-29
25,-32,-57,4,41,-44,41,66,44,-12,-19,-26
26,-12,-38,-7,32,-24,41,78,66,1,-13,-21
14,-12,-26,-1,21,-19,37,90,83,15,-2,-18
11,-13,-24,2,17,-18,36,81,75,19,3,-8
20,5,-15,-12,18,-5,34,88,84,35,12,-2
19,7,-12,-12,15,-3,34,82,83,35,17,12
28,23,-6,-25,16,8,28,96,96,49,24,21
30,25,-5,-27,17,9,31,117,115,65,31,20
21,16,-5,-18,13,5,26,126,128,78,36,20
18,13,-5,-15,11,4,25,142,147,91,45,20
12,7,-5,-9,8,1,25,148,177,116,54,20
3,-1,-4,-1,4,-2,20,164,200,131,57,22
6,15,9,-11,-1,12,19,188,221,148,69,27
32,51,19,-42,7,35,15,221,260,172,78,30
41,62,21,-52,10,42,13,240,299,195,86,31
39,57,18,-48,10,38,10,246,307,206,94,29
35,61,26,-48,4,43,8,250,302,211,90,37
28,74,46,-51,-10,60,5,234,302,212,90,46
19,72,52,-46,-17,62,2,219,285,200,89,45
8,65,58,-37,-25,61,-1,191,246,184,84,45
2,62,61,-32,-30,61,-5,145,201,156,86,45
0,60,60,-30,-30,60,-5,108,150,121,81,45
-6,54,60,-24,-34,57,4,82,105,84,63,39
-19,41,60,-11,-40,50,19,63,64,49,36,25
-30,30,60,0,-45,45,34,52,38,27,14,12
-27,28,55,-1,-41,41,35,46,28,11,8,1
-25,31,55,-4,-40,42,35,39,16,5,5,-11
-24,30,54,-3,-39,42,35,32,4,1,2,-11
-20,30,50,-5,-35,40,35,26,0,-6,-3,-17
-20,31,50,-5,-35,41,35,21,0,-11,-5,-31
-19,28,48,-5,-34,38,35,20,0,-17,-15,-30
-19,24,43,-3,-31,34,35,20,0,-20,-23,-28
-22,18,40,2,-31,29,35,20,0,-21,-19,-25
-22,15,37,3,-30,26,35,20,3,-25,-20,-24
-22,10,32,6,-27,21,34,21,6,-25,-17,-28
-25,5,30,10,-28,17,38,25,9,-29,-14,-30
-13,24,37,-6,-25,30,40,28,12,-31,-16,-30
-15,32,48,-9,-32,40,41,32,15,-30,-19,-30
-22,28,50,-3,-36,39,44,35,15,-30,-20,-30
-19,31,50,-6,-34,41,46,38,14,-30,-20,-29
-25,29,53,-2,-39,41,51,47,15,-30,-20,-26
-24,32,56,-4,-40,43,52,48,15,-30,-20,-21
-21,33,54,-6,-38,43,72,47,15,-30,-18,-19
-9,40,49,-16,-29,44,73,41,16,-30,-14,-15
16,54,38,-35,-11,45,59,43,8,-30,-10,-10
14,45,31,-30,-9,38,31,18,-10,-28,-7,-10
2,19,17,-11,-8,18,-48,-38,-45,-44,-2,-10
18,-2,-20,-8,19,-11,-68,-44,-62,-63,0,-10
22,-20,-42,-1,32,-31,-37,-36,-55,-62,-11,-10
8,-34,-42,13,25,-38,-3,-28,-49,-68,-29,-21
-7,-56,-49,32,21,-52,35,-14,-46,-70,-45,-45
-27,-90,-63,59,18,-76,53,1,-36,-66,-52,-52
-29,-94,-65,62,19,-80,56,4,-39,-65,-49,-49
-30,-88,-58,59,14,-73,54,8,-39,-64,-43,-50
-25,-84,-59,55,17,-71,56,11,-39,-67,-53,-50
-30,-80,-51,55,10,-65,53,11,-34,-62,-64,-50
-21,-72,-51,47,15,-61,60,21,-29,-69,-67,-49
-24,-67,-44,46,10,-55,71,8,-31,-61,-63,-42
-18,-57,-38,38,10,-48,67,35,-16,-68,-67,-41
-28,-64,-36,47,4,-50,66,0,-48,-65,-72,-52
-91,-115,-23,103,-34,-69,114,105,42,-38,-99,-78
40,8,-32,-24,36,-12,2,17,159,329,161,81
245,259,14,-252,115,136,-369,-534,-36,786,640,419
230,216,-14,-223,122,101,-493,-1024,-851,-56,331,381
-36,-101,-65,69,15,-83,-356,-1198,-1404,-981,-322,11
-198,-222,-24,210,-87,-123,-226,-655,-757,-580,-326,-145
-101,-127,-26,115,-37,-76,-62,-100,-162,-164,-135,-94
-73,-95,-22,84,-25,-59,1,-27,-58,-75,-71,-42
-72,-90,-18,81,-27,-53,19,35,12,-32,-52,-29
-62,-80,-17,71,-22,-48,37,55,17,-28,-44,-28
-66,-79,-13,73,-26,-46,26,68,41,-5,-31,-24
-59,-69,-10,64,-25,-39,29,72,46,-4,-24,-21
-74,-70,4,72,-39,-33,22,71,54,10,-11,-16
-72,-60,12,66,-41,-24,22,79,65,16,-3,-13
-56,-37,19,46,-37,-9,19,75,68,22,8,-9
-25,-1,24,12,-24,11,16,87,86,36,18,-3
-12,18,29,-3,-21,23,15,94,99,50,27,-2
-28,-2,26,15,-27,11,15,107,115,65,36,8
-1,24,25,-12,-13,24,15,132,144,92,37,25
25,49,24,-37,0,36,15,141,160,102,45,26
24,43,19,-33,2,31,13,162,192,125,54,25
26,47,21,-36,2,33,6,186,223,146,56,23
25,42,17,-34,3,29,-1,198,254,160,65,19
48,63,14,-56,17,38,-8,220,275,189,65,20
53,69,16,-61,19,42,-14,221,265,186,61,23
47,58,11,-53,18,34,-21,210,255,173,59,25
46,56,10,-51,18,33,-18,193,244,163,56,25
38,47,10,-43,14,29,-30,155,225,148,54,25
40,45,5,-43,17,25,-49,109,178,124,47,25
32,37,5,-35,13,21,-41,65,122,91,33,23
29,33,4,-31,13,18,-34,39,83,58,24,13
26,26,0,-26,13,13,-28,30,49,25,9,0
12,11,0,-11,5,5,-20,27,16,-4,-16,-12
-4,-1,2,2,-3,1,-14,20,-3,-36,-34,-28
-23,-17,5,20,-14,-6,-8,15,-5,-57,-52,-37
-25,-17,8,21,-17,-4,-4,10,-18,-53,-54,-33
-9,2,11,3,-10,6,2,5,-36,-50,-46,-27
10,24,14,-18,-3,19,8,5,-32,-47,-44,-23
33,48,15,-41,9,31,10,4,-26,-42,-38,-16
42,52,10,-47,16,31,10,0,-22,-39,-35,-11
31,41,10,-36,10,25,10,0,-14,-35,-35,-13
25,33,9,-29,8,21,10,2,-11,-35,-35,-15
21,25,5,-23,8,15,9,5,-14,-35,-35,-16
15,20,5,-18,4,12,11,8,-15,-35,-35,-21
12,15,3,-14,4,9,15,11,-15,-35,-36,-24
11,9,-2,-10,6,4,22,14,-15,-33,-32,-27
9,4,-5,-6,7,-1,26,16,-16,-28,-30,-32
7,-1,-8,-3,8,-4,32,19,-13,-25,-30,-35
3,-10,-13,4,8,-11,39,21,-8,-22,-30,-31
-9,-24,-15,17,4,-19,38,18,-3,-18,-30,-25
26,17,-9,-22,18,4,51,28,2,-14,-31,-20
67,63,-4,-65,35,29,50,29,6,-30,-32,-14
44,47,3,-46,20,25,47,24,12,-43,-30,-9
36,37,0,-37,18,18,10,10,-20,-36,-30,-4
50,22,-28,-36,39,-3,-67,-37,-51,-55,-30,2
63,16,-47,-39,54,-15,-73,-51,-49,-72,-31,10
54,12,-42,-33,48,-15,-42,-39,-51,-68,-28,3
15,-25,-40,5,28,-32,-11,-33,-46,-74,-45,-17
-15,-50,-35,33,10,-42,5,-30,-45,-75,-66,-37
-31,-63,-32,47,1,-47,7,-25,-45,-75,-73,-55
-50,-78,-28,64,-11,-53,17,-26,-51,-72,-74,-54
-56,-80,-24,69,-16,-52,21,-18,-52,-68,-71,-57
-42,-61,-19,52,-11,-40,30,-21,-55,-68,-70,-60
-44,-57,-13,51,-16,-35,29,-14,-48,-60,-68,-60
-51,-63,-13,57,-19,-38,35,-5,-47,-64,-67,-60
-47,-48,-1,48,-22,-24,52,-6,-47,-55,-61,-59
-27,-40,-13,34,-6,-27,48,16,-35,-74,-74,-62
-49,-53,-4,51,-22,-28,57,-2,-50,-65,-82,-63
-63,-84,-20,74,-21,-52,103,111,51,-26,-96,-82
69,50,-19,-59,44,15,-40,-56,156,415,246,127
279,308,29,-293,124,168,-405,-599,-105,768,669,453
220,200,-20,-210,120,90,-477,-1070,-981,-233,237,345
-98,-94,4,96,-51,-45,-287,-1146,-1361,-966,-328,-7
-171,-141,30,156,-101,-55,-169,-519,-615,-467,-277,-122
-73,-70,3,72,-38,-33,-19,-52,-111,-126,-104,-67
-61,-27,34,43,-47,4,52,8,-28,-44,-45,-31
-65,-19,46,42,-55,13,38,60,25,-14,-30,-18
-73,-15,58,44,-65,22,43,61,33,-10,-23,-14
-57,4,60,26,-58,32,33,85,70,5,-19,-10
-49,10,59,20,-55,35,33,78,62,1,-13,-5
-59,2,61,28,-60,31,28,80,70,14,-7,-1
-57,3,59,27,-58,31,25,81,70,14,-3,4
-49,11,60,19,-55,35,23,79,73,22,8,6
-23,33,55,-5,-39,44,19,83,88,37,17,10
-27,27,54,0,-41,40,17,90,102,53,28,13
-9,41,50,-16,-30,45,14,112,131,72,35,17
17,64,48,-41,-16,56,12,126,153,97,39,22
-3,41,44,-20,-24,42,7,151,165,102,42,28
-2,46,48,-22,-26,47,5,166,195,114,47,34
-9,46,55,-19,-33,51,0,191,228,140,49,32
-11,41,53,-15,-32,47,-3,208,247,162,53,30
-8,41,49,-16,-29,45,-6,213,275,178,69,30
-8,39,47,-15,-28,42,-12,224,277,175,73,25
-6,38,44,-17,-25,41,-19,216,265,166,67,25
-14,27,41,-7,-28,34,-26,203,254,158,65,24
-15,24,39,-5,-27,32,-32,173,225,151,60,20
-17,14,31,1,-24,22,-40,129,185,122,57,18
-9,11,19,-1,-14,15,-37,91,136,80,53,15
-6,2,8,2,-7,5,-28,52,80,51,40,11
-18,-20,-2,19,-7,-11,-18,31,42,20,22,10
-17,-25,-8,21,-4,-16,3,29,26,-7,10,6
-42,-53,-11,47,-15,-32,15,26,10,-17,3,0
-51,-67,-17,59,-17,-42,23,23,5,-25,-4,-6
-46,-66,-20,56,-13,-42,33,20,3,-33,-12,-11
-54,-69,-15,62,-19,-42,32,21,-1,-31,-20,-16
-59,-74,-15,67,-22,-44,30,26,-3,-30,-24,-29
-66,-80,-14,73,-26,-46,30,24,-6,-30,-18,-32
-47,-57,-10,52,-18,-33,30,28,-2,-30,-12,-29
-36,-46,-10,41,-13,-28,30,30,1,-31,-8,-30
-42,-55,-13,49,-15,-34,31,30,4,-28,-1,-25
-47,-69,-22,58,-12,-45,36,34,7,-23,4,-24
-38,-71,-33,55,-3,-52,34,35,9,-20,1,-27
-29,-69,-40,49,5,-54,40,35,11,-17,-11,-30
-30,-71,-40,50,5,-56,45,35,15,-12,-15,-30
-27,-70,-43,49,8,-56,48,34,19,-10,-15,-30
-20,-66,-47,44,14,-56,53,37,22,-20,-15,-30
-10,-52,-42,31,16,-47,56,40,26,-33,-11,-30
3,-37,-40,17,22,-39,71,45,31,-36,-10,-27
9,-31,-40,11,24,-35,75,41,26,-35,-10,-21
13,-27,-40,7,27,-33,83,32,20,-39,-6,-16
15,-25,-40,5,28,-32,55,23,13,-40,-4,-13
18,-20,-39,1,29,-29,-23,-16,0,-40,-6,-7
54,-15,-69,-19,61,-42,-52,-38,-18,-45,-15,-6
48,-35,-83,-6,65,-59,-41,-32,-37,-50,-23,-18
6,-68,-74,32,40,-71,-5,-28,-40,-53,-32,-29
-20,-94,-74,57,27,-84,36,-24,-40,-54,-38,-43
-32,-100,-67,66,18,-83,42,-16,-39,-46,-43,-56
-23,-89,-66,56,22,-77,37,-13,-41,-48,-45,-54
-25,-83,-57,54,16,-70,35,-5,-38,-60,-44,-55
-34,-74,-40,54,3,-56,32,-1,-37,-75,-46,-55
-42,-67,-25,55,-9,-46,29,0,-33,-70,-44,-55
-53,-65,-12,59,-20,-38,38,11,-29,-68,-47,-55
-60,-60,0,60,-30,-30,56,2,-32,-55,-43,-55
-60,-59,1,59,-30,-29,64,25,-18,-46,-47,-55
-68,-52,16,60,-41,-18,63,2,-32,-65,-46,-57
-85,-78,7,82,-46,-35,106,90,44,-61,-80,-97
40,16,-24,-28,32,-4,10,7,156,294,165,60
281,287,6,-284,138,146,-354,-506,-1,775,670,411
262,255,-7,-258,134,124,-493,-1012,-816,-11,392,383
-43,-47,-4,45,-20,-25,-333,-1205,-1403,-969,-274,21
-182,-153,29,168,-105,-62,-206,-675,-777,-598,-304,-143
-101,-85,15,93,-58,-35,-58,-111,-164,-164,-113,-98
-63,-41,23,52,-43,-9,19,-17,-48,-69,-44,-59
-59,-35,24,46,-41,-6,32,41,21,-35,-29,-40
-55,-28,26,41,-40,-1,50,61,36,-30,-22,-24
-62,-31,31,46,-46,0,38,82,60,-3,-13,-13
-29,-3,27,16,-28,12,50,81,51,-8,-9,-5
-12,13,24,-1,-18,18,45,78,62,10,0,-2
-18,1,19,9,-19,10,37,82,77,17,6,5
-17,0,17,8,-17,9,32,78,81,35,18,10
-18,-6,12,11,-14,3,23,83,95,44,27,15
1,11,10,-6,-5,10,20,90,107,52,36,19
7,35,27,-21,-10,31,12,106,126,71,35,22
8,48,40,-28,-16,44,8,125,143,76,36,25
13,56,43,-35,-15,50,2,151,173,102,48,25
-9,47,56,-19,-33,51,-4,160,198,123,50,25
1,59,58,-30,-29,58,-8,177,218,130,70,25
23,83,61,-53,-19,72,-15,199,246,152,93,25
7,83,77,-45,-35,80,-14,202,265,163,90,25
5,82,78,-44,-37,79,-18,196,262,158,85,24
9,77,68,-43,-30,73,-38,194,258,149,77,21
11,74,63,-43,-26,68,-46,186,252,141,71,20
15,71,56,-43,-20,63,-51,152,213,133,64,20
22,66,44,-44,-11,55,-58,109,166,105,58,20
34,64,30,-49,2,47,-54,73,124,72,45,21
36,52,16,-44,10,34,-51,44,79,43,27,17
42,41,-1,-42,21,20,-43,26,42,11,15,9
43,27,-16,-35,30,5,-22,19,13,-10,4,3
36,14,-22,-25,29,-4,-5,12,3,-18,-4,-4
18,-2,-20,-8,19,-11,9,6,-1,-24,-19,-11
-9,-28,-20,18,6,-24,19,-1,-6,-32,-30,-16
-9,-29,-20,19,6,-24,20,-4,-10,-40,-23,-23
0,-20,-19,10,10,-19,21,1,-15,-43,-19,-23
6,-15,-21,5,14,-18,19,-1,-12,-40,-13,-19
17,-7,-24,-5,21,-15,25,3,-6,-38,-7,-21
19,-2,-21,-9,20,-11,36,5,-2,-35,-7,-16
17,-2,-19,-7,18,-11,35,5,3,-32,-12,-15
14,-6,-21,-4,18,-13,33,9,6,-30,-18,-15
26,7,-19,-17,23,-6,30,11,17,-27,-21,-10
43,19,-24,-31,33,-3,29,17,31,-21,-27,-7
34,10,-24,-22,28,-6,33,22,30,-17,-30,-4
20,4,-15,-12,17,-5,36,28,28,-13,-25,1
7,-3,-10,-2,9,-6,40,34,25,-7,-21,4
7,5,-1,-6,4,2,54,39,24,-4,-19,7
33,35,2,-35,15,19,75,44,29,3,-15,12
33,45,13,-39,10,29,84,48,37,7,-10,15
14,36,22,-25,-4,29,71,49,38,16,-12,19
24,34,10,-29,7,22,17,4,30,7,-21,22
46,25,-21,-35,33,2,-37,-39,16,-10,-29,27
80,23,-56,-51,68,-16,-38,-23,-2,-1,-35,34
88,27,-61,-57,75,-17,-5,-7,-10,-1,-35,27
41,-19,-60,-11,50,-39,43,2,-10,-11,-38,19
0,-58,-58,29,29,-58,67,10,-11,-15,-56,8
-9,-63,-54,36,23,-58,64,19,-9,-23,-73,-4
-13,-68,-56,41,22,-61,65,21,-12,-31,-72,-18
-16,-67,-51,42,18,-58,62,24,-5,-36,-71,-31
-11,-56,-45,34,17,-51,59,15,-8,-40,-66,-29
-8,-48,-39,28,16,-43,61,25,-1,-62,-65,-31
-6,-42,-36,24,15,-38,64,15,-8,-68,-60,-29
-6,-32,-26,19,10,-29,71,23,-3,-61,-61,-31
-6,-35,-29,21,12,-31,71,17,-3,-69,-64,-29
-15,-56,-41,36,13,-48,88,22,-7,-62,-95,-52
6,-61,-67,28,36,-63,105,124,111,35,-64,-44
189,132,-57,-160,123,37,-132,-193,157,598,389,243
380,344,-35,-362,207,154,-462,-743,-280,620,618,486
208,150,-58,-178,133,46,-425,-1150,-1187,-555,29,256
-72,-123,-51,97,-10,-87,-258,-1033,-1217,-899,-377,-70
-66,-109,-43,88,-11,-75,-133,-343,-397,-323,-231,-119
-17,-37,-20,27,1,-28,-3,-14,-59,-91,-79,-47
-4,10,14,-3,-9,12,34,36,15,-20,-35,-21
5,25,20,-15,-8,23,61,76,50,2,-30,-19
-30,-3,27,16,-29,12,67,72,61,6,-22,-20
-7,22,30,-8,-19,26,58,86,91,10,-16,-20
16,51,35,-34,-10,43,58,76,80,10,-9,-20
18,58,40,-38,-11,49,49,82,88,16,-5,-21
25,61,36,-43,-6,48,48,79,83,16,-13,-24
25,60,35,-43,-5,47,41,80,85,21,-19,-25
31,66,35,-49,-3,50,33,83,89,25,-16,-25
30,65,35,-48,-3,50,22,97,102,46,-7,-25
28,62,35,-45,-4,48,14,107,115,60,1,-25
21,57,36,-39,-8,46,8,115,128,68,9,-23
10,50,40,-30,-16,45,1,134,155,85,16,-16
8,48,40,-28,-16,44,-6,150,182,108,27,-9
-5,37,42,-16,-24,39,-12,171,206,131,39,-3
-5,41,46,-18,-26,43,-18,183,237,151,52,4
30,75,45,-53,-7,60,-24,178,255,164,62,10
33,75,42,-54,-5,58,-29,169,246,158,59,15
25,64,39,-45,-7,51,-34,162,238,151,56,15
23,60,36,-42,-7,48,-40,152,227,143,53,15
16,49,33,-33,-9,41,-44,126,186,123,50,15
16,46,30,-31,-7,38,-38,89,135,97,49,16
6,36,30,-21,-12,33,-27,53,95,62,35,12
3,33,30,-18,-14,31,-18,26,62,36,23,-7
-13,17,30,-2,-22,23,-6,19,33,5,2,-28
-40,-9,30,25,-35,10,5,20,3,-24,-24,-31
-40,-10,30,25,-35,10,17,20,-6,-25,-26,-29
-40,-10,30,25,-35,10,31,20,-5,-25,-22,-31
-37,-10,26,23,-31,8,40,19,-2,-25,-20,-29
-28,-9,19,18,-23,5,45,22,0,-25,-16,-31
-34,-21,13,27,-23,-4,45,25,0,-25,-15,-27
-32,-27,6,29,-19,-10,46,28,5,-21,-15,-25
-23,-24,-1,24,-11,-12,50,30,5,-19,-15,-25
-18,-26,-7,22,-5,-16,49,34,5,-16,-15,-21
-12,-25,-13,18,1,-18,53,46,5,-14,-15,-20
-8,-25,-17,17,5,-21,55,50,5,-9,-15,-20
-12,-37,-25,25,7,-31,55,49,5,-15,-14,-39
-11,-38,-26,25,8,-32,54,52,5,-27,-10,-52
14,-28,-42,7,28,-35,56,55,5,-23,-10,-46
36,-23,-60,-6,48,-41,54,55,8,-20,-10,-44
30,-16,-46,-7,38,-31,63,51,16,-19,-10,-40
34,-9,-43,-12,39,-26,68,45,20,-13,-10,-36
42,-3,-45,-19,44,-24,63,40,12,-19,-6,-33
50,5,-45,-27,47,-20,68,33,8,-29,0,-28
54,9,-44,-31,49,-17,5,-5,-3,-44,6,-25
74,27,-47,-50,60,-10,-67,-43,-15,-34,12,-20
82,22,-60,-52,71,-19,-70,-42,-33,-26,14,-20
44,-12,-57,-16,51,-34,-42,-34,-54,-60,-11,-20
30,-22,-51,-4,41,-36,-1,-30,-56,-73,-28,-23
-9,-57,-47,33,19,-52,24,-24,-54,-68,-43,-44
-54,-97,-43,76,-5,-70,34,-18,-55,-71,-60,-53
-56,-94,-38,75,-9,-66,36,-15,-56,-77,-55,-48
-62,-96,-33,79,-14,-64,34,-4,-52,-87,-56,-52
-69,-94,-25,82,-21,-60,36,-6,-52,-77,-53,-45
-74,-93,-19,84,-27,-56,35,8,-43,-75,-57,-47
-58,-71,-13,64,-22,-42,36,5,-47,-71,-53,-43
-67,-71,-4,69,-31,-37,46,18,-34,-63,-58,-52
-69,-72,-3,70,-33,-37,45,18,-38,-75,-63,-51
-95,-86,10,90,-52,-38,79,40,-25,-89,-87,-62
-48,-83,-36,66,-6,-59,85,128,128,59,-20,-29
159,150,-9,-154,84,70,-166,-172,211,679,482,278
278,314,36,-296,121,175,-454,-709,-299,545,624,474
119,106,-13,-112,66,46,-378,-1105,-1185,-647,-33,203
-169,-150,19,159,-93,-66,-215,-944,-1114,-856,-373,-111
-164,-135,29,149,-96,-53,-131,-299,-368,-317,-205,-123
-64,-20,43,42,-53,11,-20,-28,-74,-107,-72,-50
-50,16,66,17,-58,41,11,14,-15,-35,-38,-48
-29,30,59,-1,-44,44,19,54,12,-22,-28,-31
-38,43,81,-3,-60,62,22,58,31,-9,-22,-26
-34,45,79,-6,-57,62,18,75,40,-11,-18,-20
-31,50,80,-9,-56,65,22,66,44,-5,-11,-12
-7,73,80,-33,-44,77,18,72,68,-1,-7,-7
-9,70,80,-31,-45,75,19,68,63,0,-1,2
-18,61,80,-22,-49,70,14,81,70,16,6,3
-16,58,74,-22,-45,66,12,95,81,27,12,8
5,81,76,-44,-36,78,9,111,104,53,20,9
22,94,72,-58,-25,83,6,130,126,69,25,14
9,78,70,-43,-31,74,4,140,132,80,33,13
4,74,70,-39,-33,72,0,162,163,114,37,23
-1,65,66,-32,-34,66,-5,184,203,134,45,41
0,60,60,-30,-30,60,-9,203,227,153,59,39
1,56,55,-29,-28,56,-14,214,253,174,63,41
2,51,49,-26,-24,50,-18,208,260,168,68,45
3,47,44,-25,-21,45,-23,202,245,159,65,45
3,41,39,-22,-18,40,-32,193,233,152,57,43
4,29,25,-17,-11,27,-42,171,211,143,52,37
7,18,11,-13,-2,14,-54,139,176,130,43,33
6,6,0,-6,3,3,-67,101,133,101,38,29
11,3,-8,-7,9,-2,-71,76,89,60,31,24
-7,-21,-14,14,4,-17,-46,59,53,27,14,20
-20,-43,-22,32,1,-32,-9,47,22,-2,-2,8
-6,-35,-29,21,11,-32,13,36,0,-27,-14,-10
-22,-59,-36,41,7,-47,25,24,-10,-38,-30,-24
-27,-67,-40,47,7,-53,25,20,-21,-52,-38,-25
-17,-58,-40,37,11,-49,25,17,-28,-56,-35,-26
-42,-81,-40,62,-1,-60,25,15,-25,-51,-35,-31
-55,-95,-40,75,-7,-67,24,12,-22,-50,-32,-30
-44,-84,-40,64,-2,-62,28,9,-20,-45,-29,-30
-31,-74,-43,53,6,-58,30,14,-17,-45,-31,-27
-25,-74,-49,50,13,-61,30,15,-14,-45,-33,-24
-42,-89,-46,65,3,-67,29,16,-16,-45,-44,-26
-40,-97,-57,69,8,-76,31,24,-15,-45,-51,-29
-50,-115,-65,83,8,-89,29,32,-15,-45,-47,-30
-74,-128,-55,101,-9,-92,27,39,-15,-46,-45,-30
-70,-120,-50,95,-10,-84,23,40,-15,-42,-42,-29
-78,-120,-42,99,-18,-81,34,40,-15,-40,-40,-31
-66,-102,-36,84,-15,-69,60,40,-5,-40,-37,-27
-37,-71,-34,55,-1,-52,60,40,0,-40,-34,-22
-29,-65,-36,48,4,-50,61,38,11,-40,-31,-16
-19,-53,-34,36,8,-43,19,-1,-10,-40,-28,-10
13,-49,-61,18,37,-55,-58,-31,-56,-55,-25,-6
33,-62,-95,15,65,-79,-71,-26,-62,-62,-26,18
30,-65,-95,18,63,-80,-46,-19,-59,-66,-35,13
-3,-98,-95,51,46,-96,-12,-12,-61,-69,-47,-21
-23,-117,-95,70,36,-106,21,-6,-60,-75,-62,-50
-28,-124,-95,76,34,-109,36,1,-60,-91,-74,-67
-57,-150,-94,104,19,-121,34,-8,-65,-90,-77,-64
-56,-145,-89,101,17,-117,37,-8,-69,-90,-88,-66
-49,-133,-83,91,17,-108,40,-21,-78,-92,-87,-64
-58,-138,-79,98,11,-108,40,-15,-65,-103,-86,-67
-54,-129,-76,92,11,-102,42,-9,-72,-104,-84,-61
-46,-115,-69,80,12,-91,45,2,-59,-91,-86,-61
-25,-101,-76,64,26,-89,44,17,-63,-91,-84,-58
-38,-110,-72,75,17,-91,64,43,-51,-81,-95,-78
-15,-94,-79,55,32,-86,93,119,108,49,-39,-56
181,139,-42,-160,112,48,-170,-204,156,633,436,247
350,324,-26,-337,188,148,-489,-747,-301,593,643,472
175,114,-61,-144,117,27,-431,-1147,-1205,-599,8,217
-104,-142,-38,123,-32,-90,-308,-1004,-1198,-891,-384,-103
-99,-139,-40,119,-29,-89,-155,-323,-383,-322,-220,-131
-28,-58,-29,43,1,-43,-12,-35,-88,-113,-91,-66
-36,-43,-7,40,-14,-25,10,7,-24,-47,-50,-46
-38,-41,-3,39,-18,-22,33,63,20,-33,-35,-32
-41,-29,12,35,-27,-9,29,67,22,-19,-32,-28
-40,-21,19,30,-29,-2,27,91,43,-9,-28,-21
-47,-16,31,31,-39,7,26,86,40,-2,-25,-15
-51,-11,40,31,-45,14,24,92,58,12,-21,-16
-53,-8,46,30,-49,19,23,91,64,14,-17,-13
-47,-2,45,24,-46,21,18,96,73,28,-9,-10
-45,0,45,22,-45,22,21,94,88,30,-1,-10
-59,-14,45,36,-52,15,15,102,104,43,7,-8
-61,-17,45,39,-53,14,12,121,125,57,14,-4
-58,-9,49,33,-53,20,8,135,146,78,25,-2
-56,-6,50,31,-52,22,4,150,172,99,41,1
-49,2,51,24,-50,26,1,167,207,121,50,4
-45,5,51,20,-48,28,-3,188,238,155,50,5
-38,12,50,13,-44,31,-8,187,256,172,50,5
-27,22,49,3,-38,35,-16,178,255,177,50,5
-24,20,45,1,-34,32,-22,175,255,173,50,5
-31,15,45,7,-38,30,-30,167,256,167,50,5
-29,13,43,8,-36,28,-39,141,232,151,50,5
-28,8,36,10,-32,22,-49,104,190,111,49,6
-27,4,32,11,-30,18,-60,66,139,88,51,16
2,28,26,-15,-12,26,-42,36,89,63,44,26
15,35,20,-25,-3,27,-16,22,55,32,18,7
11,26,15,-19,-2,20,1,19,42,18,3,-6
14,25,11,-19,1,17,25,20,33,5,-2,-6
10,18,8,-14,0,13,43,20,22,-4,-10,-10
10,16,5,-13,2,10,50,20,15,-9,-15,-12
19,21,2,-20,8,11,50,21,15,-14,-23,-16
32,32,0,-32,16,16,54,25,14,-17,-23,-12
30,31,0,-31,15,15,55,25,10,-23,-17,-10
38,38,0,-38,19,19,57,27,10,-24,-13,-10
52,52,0,-52,26,26,60,31,12,-19,-8,-6
44,44,0,-44,22,22,61,29,19,-14,-4,-5
43,43,0,-43,22,21,65,35,26,-10,1,-5
38,39,0,-39,19,20,66,33,33,-5,4,-5
27,34,6,-31,10,20,69,41,39,-1,7,-5
18,33,15,-26,1,24,76,61,45,0,10,-5
-3,17,19,-7,-11,18,77,59,45,-1,13,-3
-5,28,33,-12,-19,30,86,61,51,0,15,1
-23,29,53,-3,-38,41,93,59,52,0,18,5
-27,24,51,1,-40,37,102,62,57,0,20,8
25,60,35,-43,-5,47,85,48,47,0,21,14
26,45,19,-35,3,32,11,-11,-5,-18,25,14
16,23,7,-20,4,15,-32,-37,-8,-25,25,33
23,24,1,-24,11,12,-29,-31,-18,-30,14,42
-8,-13,-6,11,-1,-10,-5,-24,-48,-52,0,6
-28,-42,-15,35,-6,-28,35,-22,-39,-58,-15,-14
-40,-60,-19,50,-10,-39,51,-15,-35,-57,-41,-22
-29,-62,-33,46,2,-47,54,-15,-33,-56,-47,-33
-14,-60,-46,37,17,-53,59,-9,-25,-53,-42,-42
-15,-60,-45,38,15,-53,60,-5,-24,-58,-42,-46
-8,-51,-43,30,18,-47,61,-5,-18,-51,-35,-48
-17,-58,-41,37,13,-49,59,11,-13,-59,-37,-52
-14,-53,-38,33,12,-45,62,6,-16,-56,-34,-52
-14,-58,-44,36,16,-51,58,33,1,-63,-53,-59
-8,-51,-43,30,18,-47,69,13,-17,-59,-52,-49
-13,-61,-48,37,18,-54,119,106,61,-43,-67,-88
83,32,-51,-57,67,-10,42,85,237,320,180,59
358,325,-33,-341,195,146,-280,-346,191,931,721,436
371,357,-14,-364,192,172,-423,-825,-569,216,487,427
20,48,27,-34,-4,37,-268,-1089,-1288,-882,-235,47
-131,-120,11,125,-70,-54,-175,-692,-815,-637,-326,-144
-18,-60,-42,39,13,-51,-52,-143,-188,-191,-123,-76
17,-22,-40,3,29,-31,44,-19,-38,-58,-42,-24
20,-10,-30,-4,25,-20,52,37,19,-10,-17,-26
54,35,-20,-44,37,8,75,55,29,-12,-13,-14
57,46,-11,-52,34,17,66,62,58,14,-9,-10
54,47,-6,-50,30,20,77,79,59,12,-6,-2
54,53,-1,-53,28,26,81,79,65,28,-1,2
51,53,2,-52,24,28,69,85,68,33,1,7
47,54,8,-51,20,31,58,85,69,40,7,13
32,43,11,-38,10,27,47,90,81,43,14,16
38,55,17,-47,10,36,39,90,96,52,21,21
32,55,23,-44,4,39,31,97,118,67,28,26
4,33,29,-19,-13,31,23,112,135,75,34,29
16,43,27,-30,-6,35,16,122,151,86,37,32
26,50,24,-38,1,37,8,134,173,106,42,35
40,65,26,-53,7,45,1,156,209,135,54,37
46,71,25,-59,10,47,-6,168,234,162,67,41
38,63,25,-51,6,44,-14,163,242,177,76,37
37,63,26,-50,5,44,-21,153,240,175,74,34
26,56,30,-41,-2,43,-28,145,241,160,71,35
25,56,30,-41,-3,42,-37,136,237,151,68,35
24,54,29,-39,-3,41,-48,123,199,151,65,35
23,62,39,-42,-8,50,-53,96,150,124,64,35
22,61,39,-42,-8,50,-43,54,110,78,50,28
18,50,32,-34,-7,41,-37,20,69,45,37,18
4,32,28,-18,-12,29,-15,13,33,21,23,10
-24,-2,21,13,-22,9,12,10,8,4,2,0
-53,-37,16,45,-34,-10,22,7,-3,-14,-7,-8
-64,-53,12,58,-38,-20,32,2,-7,-27,-11,-16
-57,-49,9,53,-33,-20,43,0,-13,-32,-16,-23
-58,-51,6,54,-32,-22,45,5,-19,-40,-20,-28
-51,-48,3,49,-27,-22,45,8,-24,-37,-25,-26
-54,-54,0,54,-27,-27,45,12,-21,-28,-21,-21
-62,-64,-2,63,-30,-32,45,15,-14,-24,-16,-19
-56,-68,-12,63,-22,-40,45,20,-9,-15,-11,-14
-64,-88,-24,76,-20,-56,47,19,-3,-12,-8,-11
-56,-91,-35,74,-11,-63,51,21,3,-20,-2,-7
-39,-89,-50,64,6,-69,50,27,9,-18,-1,-5
-28,-92,-64,60,18,-78,56,32,14,-13,-8,-5
-9,-88,-79,49,35,-83,54,34,21,-9,-7,-1
1,-80,-81,40,41,-81,50,37,34,-5,-3,0
-2,-72,-70,37,34,-71,78,45,43,0,1,0
-7,-63,-56,35,25,-59,73,40,38,9,4,5
-4,-55,-51,30,24,-52,61,32,32,7,9,10
-6,-46,-40,26,17,-43,21,-5,23,-5,10,13
13,-37,-50,12,32,-44,-45,-40,6,-18,0,19
59,-28,-87,-15,73,-57,-42,-33,-10,-26,-9,23
72,-16,-88,-27,80,-52,-21,-22,-27,-33,-18,19
33,-46,-80,7,57,-63,4,-12,-39,-37,-25,-5
-16,-92,-76,54,30,-83,34,-5,-41,-49,-45,-44
-30,-99,-69,65,19,-84,44,-4,-43,-59,-63,-57
-42,-105,-63,73,11,-84,46,-6,-48,-53,-58,-54
-44,-99,-55,72,6,-77,44,3,-47,-70,-63,-56
-42,-92,-50,67,4,-71,46,-4,-54,-77,-65,-54
-47,-88,-41,68,-2,-64,45,6,-45,-73,-65,-56
-38,-76,-39,57,1,-57,43,2,-55,-78,-62,-54
-79,-109,-29,94,-25,-69,37,7,-46,-71,-59,-55
-88,-114,-26,101,-31,-69,26,4,-43,-79,-63,-56
-77,-94,-16,86,-30,-55,66,39,-11,-67,-95,-82
-58,-70,-12,64,-23,-40,91,157,152,81,-27,-54
168,164,-5,-166,86,79,-146,-126,246,729,491,261
308,378,69,-343,119,223,-464,-648,-190,738,717,497
85,184,99,-134,-7,141,-390,-1043,-1132,-538,31,196
-133,-80,53,107,-93,-14,-222,-957,-1190,-921,-401,-118
-95,-83,12,89,-54,-35,-158,-350,-439,-364,-230,-107
-19,-16,3,17,-11,-6,-34,-50,-111,-142,-96,-65
-5,7,12,-1,-9,9,2,-9,-28,-65,-53,-49
3,17,14,-10,-6,16,19,46,10,-47,-39,-37
2,22,20,-12,-9,20,29,51,21,-27,-34,-35
-1,30,30,-15,-16,30,16,60,35,-14,-27,-29
-9,35,44,-13,-27,39,18,57,38,-8,-23,-26
-14,35,48,-11,-32,41,10,64,50,4,-16,-20
-21,36,57,-8,-39,46,7,69,56,9,-10,-17
-26,34,61,-4,-44,47,8,77,78,25,0,-11
-24,44,68,-10,-47,56,19,85,85,35,7,-6
-12,78,91,-33,-52,84,13,96,106,61,15,-3
-1,95,96,-47,-49,95,10,116,125,77,22,3
-19,79,98,-30,-59,88,7,122,136,84,33,7
-13,89,101,-38,-57,95,2,144,169,109,42,10
15,119,104,-68,-45,111,0,164,198,128,49,13
10,116,106,-64,-48,111,-6,173,234,150,60,15
16,109,94,-63,-39,101,-9,204,269,176,61,18
31,107,76,-69,-23,91,-15,207,271,172,59,20
38,101,62,-70,-12,81,-17,195,263,164,61,17
46,98,52,-72,-3,75,-28,185,253,159,59,12
46,90,45,-68,0,67,-42,158,229,150,61,10
40,85,45,-63,-3,65,-50,125,189,134,56,5
32,76,44,-54,-6,60,-55,85,135,100,39,1
22,61,39,-41,-9,50,-52,54,87,53,23,-1
4,45,41,-24,-19,42,-44,35,44,15,5,-8
-7,30,37,-12,-23,34,-15,25,8,-1,-9,-12
-25,10,35,7,-30,22,1,18,-10,-24,-28,-28
-35,1,35,17,-35,18,1,7,-24,-47,-52,-43
-30,5,35,12,-33,20,5,1,-34,-51,-56,-39
-36,-1,35,18,-36,17,7,5,-41,-54,-54,-36
-40,-5,35,22,-37,15,11,4,-44,-55,-56,-34
-33,10,43,11,-38,26,8,8,-38,-49,-54,-29
-13,35,48,-11,-31,41,4,10,-31,-46,-57,-32
2,40,38,-21,-18,39,3,10,-24,-43,-70,-44
1,32,31,-17,-15,32,6,14,-17,-38,-68,-46
8,30,23,-19,-8,26,10,15,-11,-35,-64,-44
8,25,16,-17,-4,20,13,15,-20,-31,-61,-45
1,20,20,-11,-10,20,17,15,-28,-30,-56,-45
1,21,20,-11,-10,20,21,15,-21,-29,-54,-44
-2,18,20,-8,-11,19,23,15,-21,-26,-50,-40
4,23,20,-14,-8,22,29,22,-16,-24,-51,-38
-15,8,23,4,-19,15,29,15,-15,-30,-48,-35
-28,4,32,12,-30,18,33,17,-10,-42,-44,-31
9,35,27,-22,-9,31,16,10,-3,-38,-46,-30
46,59,13,-52,16,35,-57,-39,-43,-51,-48,-26
60,63,3,-62,28,33,-99,-52,-75,-78,-52,-25
53,49,-4,-50,28,22,-85,-42,-75,-65,-48,-18
29,21,-8,-25,18,6,-52,-38,-75,-75,-57,-28
-8,-23,-15,15,3,-18,-11,-32,-76,-106,-81,-58
-39,-59,-20,49,-9,-39,13,-30,-74,-104,-92,-71
-49,-74,-25,62,-11,-50,16,-30,-75,-106,-102,-76
-35,-66,-31,50,-2,-48,15,-27,-70,-106,-103,-74
-28,-56,-28,42,0,-42,15,-22,-67,-112,-101,-78
-45,-67,-22,57,-11,-45,15,-29,-67,-113,-99,-90
-52,-71,-19,61,-16,-45,14,-14,-57,-115,-101,-90
-53,-66,-13,60,-19,-39,19,-27,-67,-116,-99,-90
-55,-66,-10,61,-22,-37,26,-12,-51,-111,-101,-90
-45,-61,-17,53,-14,-38,32,-21,-69,-121,-103,-89
-52,-78,-26,65,-13,-52,88,70,8,-95,-118,-117
2,-21,-23,10,12,-22,40,60,132,186,54,-13
233,264,31,-249,101,147,-316,-431,44,786,607,358
270,333,64,-302,103,198,-524,-926,-612,285,536,452
-9,-6,4,8,-7,-1,-377,-1195,-1394,-909,-218,68
-117,-152,-35,135,-40,-94,-254,-819,-965,-754,-377,-147
-82,-101,-19,92,-31,-59,-89,-169,-219,-220,-155,-113
-71,-76,-4,73,-33,-40,34,-18,-50,-97,-65,-76
-59,-45,14,51,-36,-15,36,34,17,-29,-45,-44
-64,-34,30,49,-47,-2,55,57,23,-33,-44,-42
-47,-18,28,32,-37,5,48,68,57,-6,-26,-37
-25,-3,22,14,-23,9,51,90,62,-6,-23,-33
5,22,18,-14,-7,20,50,80,67,9,-12,-27
14,26,11,-20,1,18,49,93,81,18,-5,-18
8,15,6,-12,1,10,48,86,83,23,3,-13
14,15,1,-15,6,8,41,100,102,37,10,-6
7,3,-4,-5,5,0,40,107,107,44,15,-3
13,4,-9,-8,10,-2,35,119,126,58,20,1
17,4,-12,-10,14,-4,32,146,146,72,26,4
6,-13,-18,4,12,-15,28,163,170,92,32,9
2,-17,-19,7,11,-17,24,187,205,116,36,12
0,-14,-15,7,8,-14,18,213,232,148,52,19
3,-12,-15,5,9,-13,15,239,261,172,66,27
5,-10,-15,3,10,-12,10,260,290,185,74,34
6,-9,-15,2,11,-12,6,271,289,186,75,35
12,-3,-15,-4,14,-9,0,262,282,178,76,35
27,16,-12,-22,19,2,-10,243,278,174,79,40
16,9,-7,-12,12,1,-21,212,256,163,81,40
0,-4,-4,3,2,-4,-28,164,208,143,77,39
16,15,-1,-16,8,7,-21,120,137,111,58,30
5,9,4,-8,0,7,-13,81,93,71,37,20
-5,-2,4,3,-5,1,-5,49,60,30,17,10
-9,-9,0,9,-4,-5,3,34,23,3,0,1
-35,-35,0,35,-18,-17,11,36,14,-10,-14,-1
-55,-57,-2,56,-26,-29,24,34,13,-23,-17,-4
-58,-63,-5,61,-26,-34,35,29,9,-30,-15,-6
-55,-59,-5,57,-25,-31,41,31,7,-30,-15,-10
-51,-57,-5,54,-23,-31,40,27,4,-30,-11,-9
-50,-55,-5,53,-22,-30,40,25,2,-30,-9,-5
-45,-50,-5,48,-20,-27,40,25,-1,-29,-12,-6
-46,-51,-5,49,-20,-28,40,25,1,-33,-15,-2
-36,-42,-6,40,-15,-24,44,25,0,-35,-15,0
-34,-49,-15,41,-9,-32,45,25,0,-35,-15,0
-46,-71,-24,59,-11,-47,45,31,-1,-38,-15,-3
-15,-47,-32,31,9,-39,45,37,-7,-41,-15,-6
-26,-69,-43,48,9,-55,53,44,3,-39,-11,-10
-56,-97,-41,77,-7,-69,57,49,16,-24,-5,-9
-32,-72,-40,52,4,-55,70,56,32,-3,0,-1
-26,-67,-40,47,7,-53,90,59,42,7,5,7
-19,-59,-40,39,10,-49,95,66,40,16,12,15
-12,-53,-41,33,14,-46,67,55,38,24,14,22
-6,-45,-40,26,17,-42,10,0,-1,14,6,31
23,-41,-64,9,44,-52,-17,-31,-25,0,-1,31
40,-45,-85,3,63,-65,-30,-28,-30,-16,-7,22
10,-75,-85,33,48,-80,-14,-22,-46,-38,-17,13
-31,-115,-85,74,27,-100,32,-19,-45,-54,-39,-12
-44,-130,-86,87,22,-108,44,-14,-45,-61,-61,-38
-50,-147,-98,99,24,-122,47,-8,-45,-62,-66,-40
-47,-141,-94,95,24,-117,50,-13,-46,-58,-64,-41
-33,-125,-91,79,29,-108,50,-6,-41,-62,-66,-39
-25,-112,-87,69,31,-99,50,-16,-41,-59,-63,-34
-25,-109,-84,67,30,-96,50,-3,-31,-60,-67,-36
-31,-111,-80,71,25,-95,50,-18,-38,-60,-62,-31
-39,-115,-76,78,18,-95,58,0,-21,-51,-59,-31
-27,-103,-76,65,25,-89,74,6,-31,-60,-55,-20
-47,-120,-73,84,13,-96,114,51,18,-59,-76,-62
12,-94,-106,41,59,-100,109,100,144,139,38,1
234,167,-67,-200,150,50,-211,-330,99,747,564,372
353,293,-61,-323,207,116,-484,-870,-475,464,622,527
151,12,-139,-81,145,-64,-381,-1188,-1315,-755,-83,195
-80,-203,-123,142,22,-163,-252,-885,-1041,-778,-340,-67
-56,-140,-84,98,14,-112,-59,-186,-234,-203,-142,-57
26,-74,-100,25,63,-87,79,15,-26,-61,-41,-7
-11,-47,-36,29,13,-41,74,52,34,7,-9,11
-89,-29,59,59,-74,15,90,89,61,17,-7,4
-37,-29,8,33,-22,-10,81,89,84,37,-1,-3
-13,-20,-7,16,-3,-13,81,101,95,36,-1,-8
-23,-17,6,20,-14,-5,77,92,89,41,5,-17
-9,-15,-5,12,-2,-9,71,104,101,46,5,-19
-19,-15,4,17,-11,-5,71,97,95,47,9,-14
-8,-10,-3,9,-2,-6,63,104,107,61,16,-8
-11,-10,1,11,-6,-4,62,115,130,77,19,-5
-11,-11,-1,11,-5,-6,55,130,146,95,32,0
-72,-72,0,72,-35,-35,52,146,162,105,8,4
-81,-81,0,81,-40,-40,55,168,194,131,-10,12
