I,II,III,aVR,aVL,aVF,V1,V2,V3,V4,V5,V6
75,210,135,-143,-30,172,21,0,-104,175,-500,-225
75,210,135,-143,-30,172,27,1,-98,173,-501,-232
75,210,135,-143,-30,172,36,7,-87,167,-496,-239
71,210,139,-141,-34,174,41,13,-77,164,-491,-236
69,209,140,-139,-35,175,37,21,-68,159,-487,-235
70,211,140,-140,-35,175,35,31,-60,154,-482,-235
75,214,139,-144,-33,176,32,30,-52,163,-478,-235
72,216,144,-144,-36,180,30,28,-44,164,-473,-236
70,221,151,-145,-40,186,30,25,-38,173,-467,-232
67,216,149,-142,-41,182,30,24,-31,189,-462,-230
63,221,157,-142,-47,188,30,29,-19,192,-456,-230
67,233,166,-151,-50,199,30,40,-4,196,-451,-226
74,239,164,-157,-45,201,30,51,7,192,-445,-225
76,241,165,-159,-45,203,29,56,18,191,-437,-225
78,251,173,-165,-48,212,24,59,27,188,-429,-219
94,270,176,-183,-41,222,19,60,38,203,-421,-212
95,270,174,-183,-39,222,15,68,54,225,-414,-206
95,271,175,-183,-40,223,10,74,74,225,-398,-199
102,276,174,-189,-37,225,6,80,99,246,-382,-193
97,273,176,-186,-40,224,0,89,127,259,-370,-186
113,280,167,-196,-28,223,-10,106,161,279,-342,-168
122,296,173,-209,-26,234,-20,126,205,314,-313,-156
139,326,187,-233,-24,256,-29,145,250,345,-280,-135
167,357,189,-262,-11,273,-44,171,301,397,-232,-95
182,399,217,-290,-18,307,-60,187,354,458,-176,-48
203,436,232,-320,-15,334,-80,208,399,527,-108,2
230,458,228,-344,1,342,-102,217,427,584,-49,50
246,485,239,-366,3,362,-117,206,446,630,-7,95
244,481,237,-363,4,358,-132,202,443,647,17,103
246,467,221,-357,13,343,-140,187,399,626,7,83
232,442,210,-337,11,326,-133,151,329,576,-31,71
193,393,200,-293,-4,296,-113,109,243,474,-103,28
160,350,189,-255,-15,269,-87,71,163,371,-206,-43
138,313,174,-226,-18,243,-58,35,97,288,-282,-112
130,287,157,-209,-14,222,-45,19,39,221,-342,-160
104,249,146,-177,-22,198,-39,15,0,179,-382,-187
76,219,142,-148,-33,180,-30,10,-28,157,-400,-205
72,211,139,-142,-34,175,-22,7,-45,151,-417,-221
66,202,136,-135,-35,169,-16,1,-47,144,-414,-234
63,194,131,-129,-34,162,-14,0,-45,136,-415,-235
57,188,131,-122,-37,159,-11,0,-45,129,-428,-238
47,182,136,-115,-45,159,-8,0,-45,122,-430,-240
43,177,134,-111,-46,155,-6,0,-45,118,-430,-242
34,171,137,-103,-52,154,-4,0,-44,115,-430,-247
25,165,140,-95,-58,153,-9,6,-40,112,-430,-250
30,170,139,-100,-55,154,-15,4,-40,107,-430,-254
39,180,141,-110,-51,160,-10,-1,-40,105,-424,-256
41,180,138,-111,-49,159,-5,12,-40,110,-418,-260
28,179,152,-104,-62,165,-2,17,-41,110,-414,-258
15,181,166,-98,-75,173,4,11,-36,110,-407,-252
11,176,164,-94,-77,170,3,9,-35,110,-402,-248
18,183,165,-101,-74,174,-3,4,-35,110,-399,-244
26,191,165,-109,-69,178,-7,1,-35,112,-400,-239
25,189,165,-107,-70,176,-12,-3,-35,116,-400,-235
25,190,165,-108,-70,177,-16,-6,-36,121,-400,-240
25,190,165,-108,-70,177,-21,-4,-48,116,-400,-240
25,190,165,-108,-70,177,-24,-9,-50,109,-400,-241
22,187,165,-105,-72,176,-25,-10,-53,103,-405,-246
16,181,165,-99,-74,172,-25,-10,-59,95,-407,-244
11,176,165,-94,-78,171,-25,-20,-64,91,-414,-249
20,173,153,-96,-67,163,-25,-21,-75,88,-421,-256
30,167,137,-99,-53,152,-23,-14,-75,85,-420,-251
31,166,135,-99,-52,150,-20,-11,-75,83,-420,-248
35,170,135,-103,-50,152,-17,-6,-74,79,-420,-244
38,170,131,-104,-46,150,-14,-1,-81,82,-420,-240
41,170,129,-105,-44,150,-10,-2,-87,89,-418,-242
39,170,131,-105,-46,150,-10,-6,-82,90,-413,-247
36,174,137,-105,-51,155,-15,-9,-80,90,-410,-249
28,174,147,-101,-60,160,-15,-13,-76,89,-406,-245
20,169,149,-95,-64,159,-15,-15,-75,94,-402,-244
26,166,140,-96,-58,153,-15,-11,-78,101,-399,-245
28,163,134,-96,-53,148,-15,-8,-82,96,-400,-244
31,158,127,-95,-48,143,-15,-5,-85,94,-400,-245
35,155,121,-95,-44,138,-15,-3,-85,89,-400,-242
22,154,132,-88,-56,143,-15,1,-85,85,-400,-239
13,156,143,-85,-65,149,-15,-2,-85,85,-400,-240
15,153,138,-84,-62,145,-15,-6,-85,85,-397,-236
15,165,150,-90,-68,157,-15,-4,-81,86,-388,-235
25,185,159,-105,-67,172,-20,-6,-69,83,-377,-235
37,194,157,-116,-60,175,-19,-4,-61,105,-368,-228
40,217,177,-129,-69,197,-21,-6,-42,126,-360,-217
40,228,188,-134,-74,207,-25,7,-29,127,-352,-208
47,237,190,-142,-72,213,-44,8,-31,126,-348,-203
65,260,195,-163,-66,227,-74,-29,-28,122,-342,-200
67,250,183,-159,-58,216,-73,-31,-50,118,-339,-197
74,219,145,-146,-36,181,-62,-10,-61,114,-333,-192
70,184,114,-127,-22,149,-60,-11,-63,112,-330,-190
35,143,108,-89,-36,125,-40,-9,-86,104,-348,-209
16,116,100,-66,-42,107,-10,-6,-89,93,-361,-238
14,109,94,-62,-40,101,5,-6,-93,69,-375,-254
23,107,84,-65,-30,95,6,-2,-81,75,-365,-246
13,97,83,-55,-35,90,14,-5,-90,65,-372,-258
13,96,83,-55,-35,89,17,10,-73,74,-362,-254
4,88,84,-46,-41,86,25,-6,-87,68,-365,-252
24,100,76,-62,-26,87,22,9,-81,66,-373,-252
17,103,86,-60,-35,94,18,-6,-87,80,-360,-246
2,128,126,-65,-62,127,48,28,-45,35,-409,-287
141,174,32,-158,54,103,31,246,304,356,-141,-121
334,308,-26,-321,180,141,-173,281,331,926,471,301
608,689,81,-649,263,385,-551,115,129,1519,1143,877
496,590,94,-543,201,341,-570,-140,-233,1160,824,762
85,177,91,-131,-3,134,-223,-239,-585,82,-247,-35
18,159,141,-89,-62,150,-70,-98,-291,-6,-409,-246
17,142,125,-80,-54,133,-33,-23,-80,124,-304,-203
-4,113,117,-55,-61,115,0,3,-66,72,-349,-233
1,119,118,-60,-59,118,14,9,-29,108,-316,-219
1,112,111,-57,-55,111,25,20,-44,75,-335,-244
18,126,108,-72,-45,117,26,30,-26,94,-312,-229
8,115,107,-62,-50,111,39,32,-29,79,-317,-238
34,130,95,-82,-31,112,31,38,-22,89,-308,-233
21,140,120,-81,-49,130,21,29,1,85,-321,-235
-3,140,143,-69,-73,141,37,56,15,115,-298,-235
11,140,129,-76,-59,134,51,82,-8,151,-305,-226
3,139,136,-71,-66,137,43,69,8,141,-318,-222
16,141,124,-79,-54,132,40,65,32,150,-283,-213
20,134,114,-78,-47,124,35,58,28,149,-279,-208
16,128,113,-72,-49,120,30,50,31,150,-264,-201
45,148,102,-97,-29,125,27,56,30,150,-248,-195
38,156,118,-98,-41,137,25,57,29,149,-231,-185
19,153,134,-87,-58,144,25,72,32,150,-230,-176
27,165,138,-97,-56,152,20,86,34,148,-231,-164
21,181,160,-101,-70,170,21,89,42,152,-224,-143
33,193,161,-113,-64,177,19,100,74,170,-226,-119
40,205,165,-122,-63,185,13,108,100,199,-222,-97
34,224,190,-129,-78,207,5,138,133,224,-218,-78
42,235,193,-139,-76,214,0,163,177,266,-190,-57
56,254,199,-155,-72,226,-8,177,219,305,-145,-38
75,288,213,-182,-70,250,-13,206,278,359,-85,0
90,327,237,-209,-74,282,-22,235,329,428,-24,43
119,371,251,-245,-66,311,-58,256,379,475,51,69
131,397,265,-264,-67,331,-71,270,407,525,138,108
133,396,263,-264,-66,329,-91,267,402,542,177,145
149,386,237,-268,-44,312,-119,250,398,537,198,154
153,382,229,-268,-38,305,-120,236,357,517,186,165
138,361,223,-250,-42,291,-118,204,284,463,124,152
111,326,216,-219,-53,271,-86,155,200,382,17,100
60,268,208,-164,-74,238,-56,100,115,293,-101,52
12,209,197,-111,-93,203,-38,61,59,229,-177,13
7,193,186,-100,-90,190,-22,51,13,181,-221,-8
-18,168,186,-75,-102,177,-11,48,-32,145,-219,-25
-53,137,191,-42,-122,164,0,43,-64,123,-204,-38
-50,135,185,-43,-118,160,9,39,-74,110,-196,-50
-48,135,183,-43,-116,158,13,34,-87,97,-184,-62
-49,129,178,-40,-114,154,10,30,-101,88,-172,-67
-52,122,174,-36,-114,148,10,30,-100,79,-160,-82
-57,116,172,-30,-115,144,8,23,-100,71,-155,-87
-58,109,167,-26,-113,138,5,32,-100,58,-147,-93
-75,101,177,-13,-126,139,4,51,-100,38,-141,-99
-85,105,191,-10,-138,148,17,46,-98,33,-133,-94
-79,112,190,-16,-134,151,32,44,-91,29,-131,-91
-82,107,188,-13,-135,147,29,39,-87,27,-141,-88
-94,105,199,-5,-147,151,38,36,-81,21,-137,-83
-114,102,216,6,-165,159,44,32,-75,21,-146,-80
-123,98,221,13,-172,159,36,26,-71,37,-162,-75
-109,109,218,0,-164,163,33,38,-64,47,-159,-67
-112,113,226,-1,-169,169,25,41,-75,63,-157,-59
-107,122,228,-8,-168,175,22,39,-87,71,-154,-51
-89,134,222,-23,-156,178,34,37,-84,70,-151,-45
-95,122,217,-14,-156,169,43,34,-85,69,-148,-45
-99,112,211,-7,-155,161,35,36,-86,64,-156,-45
-103,103,206,0,-155,154,36,36,-84,65,-169,-45
-104,97,201,3,-153,148,48,35,-92,63,-172,-45
-107,93,200,7,-154,146,46,28,-95,59,-174,-45
-111,88,199,12,-155,144,57,25,-97,57,-180,-41
-112,84,196,13,-154,140,67,20,-110,54,-178,-40
-116,79,194,18,-155,136,57,15,-108,51,-157,-53
-116,79,196,18,-156,137,59,31,-104,49,-138,-56
-114,80,194,16,-154,137,50,35,-101,45,-128,-51
-116,80,196,17,-156,137,53,29,-95,37,-116,-51
-115,80,195,17,-155,137,74,28,-96,31,-102,-49
-114,80,194,16,-154,136,76,22,-101,24,-88,-67
-122,80,202,21,-162,141,74,20,-105,17,-74,-81
-98,77,175,11,-137,126,71,26,-101,17,-59,-76
-89,72,161,8,-125,116,69,38,-100,24,-48,-73
-103,69,172,17,-138,121,71,41,-100,36,-41,-69
-104,66,170,19,-138,118,68,36,-95,41,-36,-66
-115,61,175,26,-145,118,78,35,-95,40,-30,-60
-114,61,176,26,-145,118,82,30,-94,40,-14,-62
-112,66,178,23,-146,122,73,30,-85,40,11,-66
-101,96,197,2,-150,146,68,24,-75,39,44,-60
-101,113,214,-6,-157,163,59,20,-65,34,67,-55
-92,115,207,-11,-150,161,53,36,-55,27,96,-49
-64,153,217,-45,-141,185,46,30,-56,21,131,-43
-66,168,234,-51,-150,200,45,19,-53,14,147,-41
-71,148,219,-39,-145,184,45,21,-61,7,149,-45
-73,117,190,-22,-131,153,45,18,-80,7,140,-45
-72,82,155,-5,-114,118,45,16,-83,9,133,-51
-56,62,118,-3,-87,90,44,14,-106,-9,121,-69
-78,29,107,24,-93,68,68,14,-116,-13,116,-78
-112,2,114,55,-113,58,91,7,-123,-35,103,-103
-104,-9,95,56,-99,42,98,13,-117,-39,98,-111
-121,-33,88,77,-104,27,114,7,-122,-39,87,-109
-110,-19,91,65,-100,35,120,12,-120,-47,76,-112
-120,-30,90,75,-104,30,117,10,-116,-54,76,-107
-142,-52,91,97,-116,19,119,17,-128,-72,59,-115
-125,-37,87,81,-106,24,108,5,-106,-39,82,-109
-154,-46,108,100,-131,31,132,-20,-125,-99,37,-129
-20,14,33,3,-26,23,138,199,158,113,205,-33
228,110,-118,-169,173,-4,-14,329,293,590,676,269
522,420,-102,-471,312,159,-390,175,41,1148,1313,818
541,491,-50,-516,295,220,-555,-94,-248,1097,1302,923
120,79,-41,-99,80,19,-221,-277,-617,84,338,207
-55,-12,43,33,-49,15,10,-162,-436,-215,19,-123
-12,29,41,-9,-26,35,57,-55,-141,-40,163,-69
-21,-11,10,16,-16,-1,108,-18,-136,-98,116,-108
-27,-13,14,20,-20,1,109,4,-85,-60,140,-91
-38,-37,1,37,-19,-17,131,-2,-94,-84,112,-106
-26,-25,1,25,-13,-12,130,7,-83,-71,116,-96
-16,-27,-11,22,-2,-19,130,6,-77,-76,106,-95
-3,-21,-18,13,7,-19,128,12,-69,-77,102,-96
9,-18,-27,5,18,-22,123,7,-59,-72,114,-91
17,-14,-31,-2,24,-22,127,5,-57,-78,118,-91
24,-5,-29,-10,27,-17,117,2,-45,-72,126,-85
31,0,-31,-15,31,-16,112,-1,-43,-78,133,-85
37,8,-29,-23,33,-10,103,-4,-33,-70,140,-80
49,18,-31,-34,40,-6,96,-5,-26,-67,133,-79
51,21,-30,-36,41,-4,89,2,-17,-62,144,-76
56,20,-36,-37,46,-8,85,11,-8,-59,151,-71
59,20,-39,-39,49,-10,96,20,1,-44,152,-69
56,20,-36,-38,46,-7,98,23,23,-24,172,-65
63,19,-44,-41,54,-12,91,41,41,-18,175,-60
73,23,-50,-48,61,-13,86,59,58,-9,178,-66
94,38,-56,-66,74,-9,80,62,77,7,203,-63
93,49,-44,-71,68,2,75,76,99,28,219,-52
97,69,-28,-83,63,20,68,92,137,58,242,-31
120,93,-28,-106,74,32,57,108,171,87,271,-21
138,115,-23,-126,81,46,48,140,214,126,309,-3
166,147,-19,-157,92,64,34,177,268,180,366,41
200,184,-16,-191,108,84,11,203,305,237,425,83
232,220,-12,-226,122,104,-11,225,348,292,486,128
269,259,-10,-264,139,124,-38,256,386,351,537,171
301,272,-28,-286,164,122,-56,264,388,393,578,213
308,254,-54,-281,181,100,-57,245,371,406,583,234
293,247,-46,-270,169,100,-52,227,348,396,569,231
268,219,-48,-243,158,85,-47,184,296,335,539,202
240,165,-75,-202,157,45,-33,121,213,251,469,142
218,136,-82,-177,150,27,-3,74,138,155,385,87
182,98,-84,-140,133,7,16,32,75,65,296,32
133,47,-86,-90,109,-19,41,-8,18,15,235,-16
130,28,-102,-79,116,-37,60,-33,-23,-31,193,-45
126,22,-104,-73,115,-41,60,-46,-41,-60,165,-62
117,8,-108,-62,112,-50,73,-56,-52,-73,155,-71
115,2,-114,-58,115,-56,80,-61,-65,-94,147,-84
94,-13,-107,-41,101,-59,80,-60,-62,-101,141,-89
87,-45,-132,-20,109,-88,80,-60,-60,-100,134,-95
86,-51,-137,-17,112,-93,80,-61,-60,-100,128,-100
90,-43,-133,-23,112,-88,80,-59,-56,-108,122,-104
94,-43,-137,-25,115,-89,80,-57,-55,-114,116,-115
97,-37,-133,-30,115,-85,89,-49,-56,-119,111,-119
101,-35,-136,-33,119,-86,90,-55,-60,-124,105,-121
109,-30,-139,-39,124,-84,89,-78,-60,-136,105,-118
110,-30,-140,-40,125,-85,84,-81,-60,-146,105,-128
111,-29,-141,-41,126,-85,87,-79,-60,-138,105,-134
121,-24,-145,-48,134,-85,104,-81,-60,-135,105,-122
119,-26,-145,-46,132,-85,100,-79,-60,-130,105,-113
121,-22,-143,-49,132,-83,92,-82,-60,-125,103,-103
118,-20,-138,-49,128,-79,86,-85,-60,-129,94,-98
115,-20,-135,-47,125,-77,79,-85,-60,-130,107,-95
141,-17,-157,-62,149,-87,74,-87,-65,-130,127,-92
148,-15,-162,-66,155,-88,70,-91,-70,-130,121,-87
140,-15,-155,-62,148,-85,70,-89,-73,-131,115,-86
133,-20,-154,-56,143,-87,70,-94,-74,-128,112,-99
122,-18,-140,-52,131,-79,70,-95,-78,-125,103,-99
128,-31,-159,-48,144,-95,70,-95,-81,-123,102,-91
125,-46,-171,-39,148,-108,70,-99,-79,-119,110,-89
125,-38,-163,-43,144,-100,69,-100,-85,-117,110,-83
127,-34,-161,-46,144,-97,74,-99,-99,-113,104,-80
126,-28,-154,-49,141,-91,81,-95,-100,-121,102,-85
146,-21,-167,-62,157,-94,76,-95,-100,-120,98,-86
156,-23,-179,-66,168,-101,73,-93,-100,-123,92,-81
165,-25,-190,-70,178,-108,70,-89,-100,-144,113,-76
160,-40,-200,-59,180,-120,65,-90,-98,-145,129,-73
124,-59,-183,-32,154,-121,66,-93,-95,-144,120,-67
126,-61,-187,-32,156,-123,64,-100,-95,-146,121,-67
146,-57,-203,-44,174,-130,67,-99,-93,-144,115,-70
135,-55,-190,-39,163,-122,75,-102,-89,-147,115,-63
126,-53,-179,-36,153,-116,72,-114,-90,-146,118,-59
134,-43,-177,-45,156,-110,65,-111,-101,-139,126,-53
136,-29,-166,-53,151,-97,63,-104,-100,-133,124,-47
148,-21,-169,-63,159,-95,57,-100,-86,-126,119,-42
144,-11,-155,-66,149,-82,53,-92,-75,-118,156,-22
144,-8,-153,-68,149,-80,73,-91,-59,-117,167,-7
184,6,-178,-95,181,-86,65,-97,-47,-118,173,15
176,41,-136,-108,156,-47,35,-107,-46,-123,184,39
204,62,-142,-133,173,-40,13,-129,-59,-114,173,33
200,42,-158,-121,179,-58,-3,-139,-92,-129,153,24
184,1,-183,-92,183,-91,3,-129,-109,-115,150,36
234,-23,-257,-105,246,-140,11,-128,-116,-121,142,28
196,-69,-266,-63,231,-168,32,-119,-129,-166,97,22
140,-110,-250,-15,195,-180,50,-116,-136,-160,78,6
130,-111,-241,-10,186,-176,67,-109,-133,-181,76,-35
151,-109,-260,-21,206,-184,82,-105,-126,-191,73,-35
158,-118,-276,-19,217,-197,80,-107,-132,-182,59,-32
158,-104,-262,-27,210,-183,78,-101,-116,-155,97,-21
135,-116,-251,-9,193,-183,83,-112,-137,-196,75,-41
137,-121,-258,-8,198,-189,75,-94,-110,-175,86,-17
101,-97,-198,-1,150,-147,91,-127,-140,-217,46,-49
156,-89,-245,-33,201,-167,112,-1,40,-120,70,-24
390,-27,-417,-181,404,-222,52,246,402,395,548,288
642,217,-425,-429,533,-104,-226,196,265,966,1206,826
760,477,-284,-618,522,97,-533,-117,-140,1165,1466,1165
374,176,-198,-275,286,-11,-338,-416,-619,247,580,543
102,-114,-216,6,159,-165,-43,-348,-621,-381,-119,-11
172,-32,-203,-70,188,-117,4,-179,-242,-144,88,55
153,-84,-237,-34,196,-160,51,-141,-161,-156,99,25
162,-81,-244,-40,203,-162,58,-103,-127,-135,91,19
153,-76,-229,-39,191,-152,64,-112,-120,-134,79,6
147,-123,-270,-12,209,-196,62,-105,-115,-123,69,5
147,-116,-263,-15,205,-189,53,-96,-99,-130,128,30
146,-118,-264,-14,205,-190,55,-94,-86,-148,116,27
141,-118,-259,-12,200,-188,42,-80,-70,-104,112,30
138,-125,-263,-6,201,-194,55,-89,-79,-139,99,21
155,-122,-277,-16,216,-199,70,-103,-70,-121,116,24
160,-114,-274,-22,217,-194,65,-96,-71,-120,99,15
169,-106,-275,-31,223,-191,57,-86,-65,-125,93,17
166,-100,-265,-33,216,-182,51,-80,-55,-110,139,38
182,-95,-277,-43,230,-186,44,-72,-45,-105,141,41
197,-90,-287,-53,242,-189,38,-69,-32,-91,139,39
186,-86,-272,-49,229,-179,35,-65,-21,-84,136,41
181,-81,-263,-50,222,-172,30,-62,-8,-75,134,39
180,-78,-257,-51,218,-167,28,-57,7,-71,136,40
185,-69,-253,-58,219,-161,23,-54,20,-58,143,49
187,-62,-249,-63,218,-155,20,-46,39,-39,156,59
202,-42,-244,-79,223,-143,27,-33,66,-6,177,64
212,-28,-240,-92,226,-134,21,-23,86,20,211,64
201,-30,-232,-85,217,-131,7,-16,114,35,225,92
224,-2,-226,-111,225,-114,-6,-4,150,84,268,134
264,45,-219,-154,241,-87,-28,17,187,129,320,157
292,81,-211,-186,252,-65,-50,44,220,177,362,199
324,109,-215,-217,269,-52,-77,64,257,242,427,246
351,156,-195,-253,273,-20,-106,72,286,292,490,291
368,196,-172,-282,270,12,-130,67,286,336,540,328
370,193,-177,-281,273,8,-146,52,275,358,569,351
354,181,-174,-267,264,3,-137,44,257,345,573,353
340,163,-177,-251,258,-7,-127,16,218,298,547,322
313,125,-188,-219,251,-31,-106,-24,154,216,474,272
271,78,-193,-174,232,-57,-74,-55,79,123,378,201
225,27,-198,-126,211,-85,-65,-94,17,33,290,124
186,-15,-201,-86,193,-108,-49,-111,-39,-31,215,68
177,-44,-222,-66,200,-132,-37,-114,-80,-79,168,37
192,-44,-236,-73,215,-140,-35,-134,-105,-115,145,19
184,-50,-234,-67,210,-142,-29,-140,-125,-136,135,5
149,-86,-235,-31,193,-160,-25,-140,-139,-147,125,-6
136,-99,-235,-18,186,-167,-20,-140,-142,-150,114,-16
135,-100,-235,-17,185,-167,-16,-140,-140,-175,101,-34
132,-100,-232,-16,182,-166,-15,-140,-148,-186,85,-46
127,-102,-229,-13,178,-165,-15,-136,-151,-190,83,-52
117,-109,-226,-3,171,-167,-10,-134,-150,-197,85,-64
107,-116,-224,5,166,-170,-10,-131,-147,-200,85,-65
102,-117,-219,8,161,-168,-9,-129,-144,-199,85,-65
115,-109,-223,-3,169,-166,-14,-125,-145,-192,86,-65
128,-103,-231,-13,180,-167,-30,-126,-145,-189,96,-65
130,-96,-226,-16,178,-161,-29,-133,-145,-183,105,-65
133,-91,-224,-20,178,-157,-31,-132,-145,-180,106,-64
133,-87,-219,-23,176,-153,-35,-129,-145,-180,120,-40
133,-82,-216,-25,175,-149,-34,-126,-145,-180,130,-24
135,-78,-212,-28,174,-145,-36,-123,-148,-180,125,-34
136,-74,-209,-31,173,-141,-33,-120,-150,-180,120,-36
132,-79,-210,-26,171,-144,-39,-121,-150,-179,114,-34
120,-86,-206,-17,163,-146,-46,-125,-155,-183,109,-35
120,-85,-205,-17,163,-145,-45,-125,-163,-192,104,-35
120,-85,-205,-17,163,-145,-43,-124,-166,-198,98,-34
115,-85,-200,-15,158,-142,-40,-132,-170,-207,92,-52
116,-85,-200,-16,158,-142,-40,-141,-175,-211,87,-62
110,-89,-199,-11,155,-143,-37,-139,-174,-209,81,-59
104,-91,-195,-6,149,-142,-34,-140,-183,-210,76,-60
105,-90,-195,-7,150,-142,-31,-140,-192,-209,80,-60
108,-88,-195,-9,152,-141,-28,-140,-189,-213,81,-65
109,-85,-193,-12,152,-139,-25,-138,-190,-216,79,-65
117,-85,-202,-15,160,-143,-28,-134,-190,-214,81,-67
115,-89,-204,-13,160,-146,-44,-135,-190,-215,79,-71
107,-90,-197,-8,152,-143,-55,-131,-194,-215,81,-70
102,-92,-194,-4,148,-142,-52,-129,-195,-214,77,-70
93,-96,-188,2,141,-142,-48,-131,-195,-217,74,-70
91,-93,-184,2,138,-139,-45,-134,-199,-220,76,-70
91,-89,-181,-1,136,-135,-40,-139,-200,-220,71,-65
91,-85,-176,-2,134,-131,-46,-138,-199,-220,70,-65
91,-83,-174,-4,133,-128,-52,-134,-193,-220,70,-64
91,-78,-169,-7,130,-123,-49,-135,-187,-220,71,-59
90,-76,-166,-7,129,-121,-48,-135,-182,-213,69,-61
97,-64,-161,-16,130,-113,-44,-135,-176,-202,74,-57
112,-37,-149,-38,131,-93,-44,-134,-169,-198,94,-48
112,-26,-138,-43,125,-82,-62,-131,-146,-201,100,-38
122,-6,-128,-58,125,-67,-75,-128,-140,-199,113,-28
149,24,-125,-86,137,-50,-98,-138,-139,-201,118,-30
130,15,-115,-72,123,-50,-112,-154,-145,-199,108,-30
106,-14,-120,-45,113,-67,-103,-153,-181,-201,99,-31
121,-37,-158,-42,140,-98,-100,-145,-183,-204,91,-29
125,-61,-186,-32,156,-123,-96,-143,-196,-204,78,-33
111,-85,-197,-12,154,-141,-81,-133,-212,-214,50,-51
80,-114,-194,17,138,-154,-49,-132,-214,-235,34,-67
75,-119,-194,22,135,-156,-36,-128,-217,-241,28,-81
84,-113,-197,15,141,-155,-35,-131,-211,-232,29,-78
74,-118,-192,23,133,-155,-24,-142,-221,-243,15,-83
82,-110,-193,14,138,-151,-25,-137,-205,-224,25,-71
50,-121,-171,36,111,-146,-12,-144,-224,-249,2,-80
74,-108,-181,17,128,-144,-16,-124,-191,-218,13,-71
22,-113,-135,46,79,-124,-2,-155,-225,-261,-19,-88
69,-70,-139,1,104,-105,30,-47,-64,-207,14,-74
261,-16,-277,-122,269,-146,-31,160,237,218,385,170
482,204,-277,-343,379,-37,-319,125,150,784,1018,669
762,508,-254,-635,508,127,-655,-73,-31,1158,1453,1098
426,182,-245,-304,336,-32,-479,-321,-491,383,699,633
49,-121,-169,36,109,-145,-144,-336,-646,-376,-103,-3
59,-71,-129,6,94,-100,-65,-190,-295,-238,-24,-26
39,-102,-140,32,90,-121,-17,-137,-210,-240,-2,-30
69,-84,-153,7,111,-119,-2,-112,-182,-231,4,-33
54,-92,-146,19,100,-119,0,-110,-174,-217,9,-26
55,-91,-145,19,100,-117,1,-107,-166,-223,-1,-35
47,-94,-141,24,94,-118,4,-104,-144,-202,12,-23
41,-99,-139,29,90,-119,6,-101,-140,-212,-2,-25
51,-86,-137,18,94,-111,5,-99,-122,-192,14,-13
45,-88,-134,22,90,-111,14,-95,-121,-195,16,-13
56,-79,-136,12,96,-107,11,-88,-108,-182,22,-4
57,-78,-134,11,96,-106,9,-84,-104,-179,19,0
64,-72,-135,5,100,-103,6,-77,-95,-172,25,5
65,-69,-134,2,100,-101,3,-72,-87,-169,25,13
62,-65,-128,2,96,-96,0,-68,-79,-171,26,17
61,-61,-122,0,92,-92,1,-62,-71,-166,30,22
59,-58,-117,-1,89,-88,5,-57,-64,-165,32,24
57,-54,-111,-1,85,-82,5,-54,-49,-165,35,29
57,-49,-106,-4,82,-77,1,-49,-32,-156,38,33
63,-37,-101,-13,82,-69,-3,-45,-13,-142,44,38
62,-32,-95,-15,79,-63,-9,-36,8,-128,57,55
73,-17,-89,-28,81,-53,-12,-20,33,-107,73,62
87,3,-83,-45,85,-40,-18,-5,60,-79,95,85
87,9,-79,-48,83,-35,-19,18,94,-46,122,112
102,34,-68,-68,85,-16,-13,35,139,-11,151,128
121,67,-55,-94,88,6,-40,60,188,36,193,163
154,96,-58,-125,106,19,-62,89,240,104,248,208
193,133,-60,-163,126,37,-79,107,286,162,307,257
221,167,-54,-193,137,56,-102,127,323,218,360,301
238,186,-52,-212,145,67,-118,128,344,274,406,341
248,201,-47,-224,147,77,-136,113,339,292,438,366
251,206,-45,-228,148,80,-133,105,305,279,440,376
228,178,-51,-203,139,63,-128,85,255,240,410,361
184,127,-57,-155,121,35,-114,38,180,163,331,314
149,86,-63,-117,106,11,-87,-6,96,70,239,253
115,43,-72,-79,93,-15,-59,-41,26,-14,160,191
78,-4,-83,-37,81,-43,-39,-69,-24,-85,80,140
57,-36,-92,-10,75,-64,-27,-86,-69,-134,33,99
46,-57,-103,6,74,-80,-15,-102,-107,-162,8,76
35,-70,-105,18,70,-88,-9,-106,-122,-182,-13,71
29,-76,-105,24,67,-90,-2,-109,-125,-185,-33,64
34,-75,-108,21,71,-91,4,-109,-133,-198,-46,56
36,-74,-111,19,74,-92,11,-104,-136,-207,-55,49
23,-86,-109,31,66,-97,15,-106,-131,-208,-64,42
15,-91,-106,39,60,-98,16,-102,-130,-210,-69,38
14,-89,-103,38,59,-95,13,-99,-125,-211,-82,35
-1,-101,-101,51,50,-101,21,-101,-126,-220,-83,32
-8,-106,-97,57,45,-101,36,-96,-136,-220,-79,27
-5,-100,-95,53,45,-97,35,-95,-135,-219,-77,25
-5,-98,-92,52,44,-95,35,-94,-131,-216,-73,30
-4,-93,-90,48,43,-91,35,-100,-129,-215,-72,33
0,-90,-90,45,45,-90,35,-111,-124,-215,-68,37
3,-87,-90,42,47,-88,33,-106,-126,-207,-75,41
6,-84,-90,39,48,-86,28,-103,-130,-203,-80,45
9,-81,-90,36,49,-86,25,-100,-130,-198,-73,50
12,-78,-90,33,51,-84,22,-94,-130,-191,-70,50
15,-75,-90,30,53,-82,17,-99,-133,-187,-66,50
14,-76,-90,31,52,-83,15,-105,-137,-183,-59,50
9,-81,-90,36,50,-85,20,-105,-139,-190,-68,50
6,-84,-90,39,48,-87,20,-109,-153,-201,-85,50
-1,-89,-88,45,44,-88,21,-110,-162,-198,-90,51
-7,-91,-84,49,38,-87,25,-106,-157,-195,-86,54
-2,-88,-86,46,42,-87,25,-105,-164,-193,-93,56
-1,-85,-84,44,42,-84,22,-105,-171,-189,-101,60
3,-85,-87,41,46,-86,20,-105,-170,-190,-99,58
19,-85,-104,34,62,-95,20,-105,-168,-190,-100,54
17,-85,-102,34,60,-93,17,-106,-164,-189,-100,55
10,-85,-95,38,54,-90,14,-110,-165,-194,-100,55
5,-88,-93,42,49,-91,16,-110,-168,-200,-102,55
-4,-91,-87,48,41,-88,19,-106,-170,-200,-113,55
-10,-95,-85,53,38,-90,20,-105,-170,-200,-121,60
-9,-94,-85,52,38,-89,21,-105,-170,-200,-119,60
-5,-90,-85,48,40,-87,25,-105,-170,-200,-120,61
-5,-90,-85,48,40,-87,25,-105,-170,-197,-120,66
-5,-90,-85,48,40,-87,25,-105,-170,-194,-120,64
-4,-90,-85,48,41,-87,25,-105,-170,-195,-117,68
-9,-90,-81,50,36,-86,25,-105,-170,-195,-114,70
-9,-85,-77,47,34,-81,25,-105,-170,-195,-111,71
-3,-75,-72,39,35,-73,25,-104,-166,-194,-108,76
3,-65,-68,32,35,-66,25,-106,-159,-185,-106,74
9,-55,-63,23,36,-59,18,-116,-153,-176,-103,83
15,-41,-55,13,35,-48,9,-108,-138,-165,-91,89
21,-26,-47,3,34,-36,1,-94,-127,-156,-75,93
22,-15,-37,-3,30,-26,-10,-97,-132,-154,-74,113
28,-4,-32,-12,30,-17,-24,-101,-133,-151,-75,114
24,1,-23,-13,23,-11,-42,-113,-137,-148,-77,107
32,-24,-56,-4,44,-40,-36,-108,-157,-145,-91,102
50,-53,-102,2,76,-77,-24,-91,-159,-147,-91,96
38,-72,-110,17,74,-91,-9,-102,-167,-163,-101,91
17,-109,-126,46,72,-117,20,-99,-169,-176,-119,86
-14,-138,-125,77,56,-131,37,-100,-171,-191,-137,75
-18,-142,-124,80,54,-133,42,-93,-170,-190,-147,65
-28,-150,-121,89,47,-136,45,-96,-169,-187,-141,56
-34,-151,-117,93,42,-134,51,-94,-174,-195,-145,46
-22,-147,-126,84,52,-136,42,-86,-160,-181,-130,53
-36,-154,-118,96,41,-135,52,-98,-175,-204,-144,37
-6,-144,-138,76,66,-141,57,-76,-150,-174,-125,51
-66,-133,-68,100,1,-100,70,-117,-181,-229,-155,27
0,-91,-91,46,46,-91,80,33,21,-107,-80,76
219,-56,-275,-82,247,-165,-11,240,215,312,280,329
502,203,-299,-352,401,-48,-344,159,3,833,853,808
674,378,-296,-526,485,41,-612,-74,-274,1002,1058,1089
253,8,-245,-130,249,-118,-349,-325,-663,118,231,512
-61,-173,-111,117,25,-142,-61,-278,-574,-365,-272,60
-38,-125,-87,82,25,-106,-2,-128,-216,-148,-108,105
-44,-144,-100,94,28,-122,41,-96,-171,-179,-130,71
-19,-116,-97,68,40,-106,39,-75,-128,-155,-116,83
-32,-124,-93,78,31,-108,52,-73,-128,-160,-117,71
-30,-118,-88,74,29,-103,51,-58,-120,-158,-117,69
-34,-118,-84,76,25,-101,53,-54,-110,-150,-110,83
-36,-115,-79,76,22,-97,57,-49,-109,-155,-115,81
-28,-114,-86,71,30,-100,53,-44,-96,-137,-104,89
-23,-113,-90,68,34,-101,57,-41,-96,-141,-109,91
-19,-108,-90,63,36,-99,54,-34,-84,-126,-100,98
-21,-111,-90,66,35,-100,55,-32,-81,-125,-102,97
-15,-105,-90,60,38,-97,55,-25,-71,-116,-97,103
-15,-105,-90,60,38,-97,54,-22,-63,-111,-91,104
-16,-107,-90,62,37,-98,57,-17,-53,-105,-85,109
-17,-111,-94,64,39,-102,65,-12,-40,-96,-77,115
-13,-108,-96,61,42,-102,62,-9,-27,-93,-72,115
-13,-105,-92,59,40,-98,56,0,-7,-75,-63,123
-13,-102,-90,58,39,-96,54,6,13,-72,-68,126
-10,-100,-90,55,40,-95,46,19,29,-60,-57,135
-11,-97,-86,54,38,-91,49,29,41,-31,-32,155
1,-83,-85,42,43,-83,53,41,67,-14,-20,161
17,-68,-85,26,51,-76,43,70,100,15,9,175
34,-45,-79,6,57,-62,36,86,136,47,31,201
59,-15,-74,-22,67,-44,26,112,177,79,58,220
83,15,-69,-49,76,-27,10,141,220,127,104,249
111,48,-63,-79,87,-7,-6,169,269,188,152,288
138,82,-57,-110,97,12,-27,203,306,252,214,334
168,113,-55,-140,111,29,-48,224,338,305,266,375
185,130,-55,-157,120,38,-67,236,352,349,307,409
192,137,-55,-164,123,41,-76,232,337,373,329,431
196,133,-63,-164,129,35,-67,207,313,359,320,430
167,102,-66,-134,116,18,-62,161,257,311,289,406
129,64,-65,-96,97,0,-53,107,183,230,221,353
86,24,-62,-55,74,-18,-31,61,112,133,136,292
39,-20,-59,-9,50,-39,-2,22,44,50,54,236
3,-58,-60,28,32,-59,27,-8,-4,-12,-16,190
-16,-82,-66,49,25,-74,36,-25,-45,-56,-61,159
-21,-93,-72,57,26,-82,38,-41,-71,-77,-87,138
-27,-106,-79,67,27,-92,46,-51,-85,-93,-106,123
-28,-118,-90,73,31,-104,55,-49,-100,-100,-123,110
-37,-127,-90,82,26,-108,61,-51,-100,-103,-127,104
-38,-129,-91,84,27,-110,59,-55,-100,-109,-135,98
-42,-137,-95,90,27,-116,65,-55,-98,-113,-141,90
-55,-150,-95,103,21,-122,74,-53,-94,-122,-143,84
-58,-150,-93,104,17,-121,80,-49,-92,-127,-145,78
-63,-149,-86,107,11,-117,80,-47,-89,-129,-146,75
-64,-146,-81,105,9,-113,84,-44,-86,-125,-152,75
-69,-145,-76,107,4,-110,95,-41,-84,-118,-147,75
-74,-144,-69,109,-2,-106,93,-39,-80,-114,-144,75
-74,-140,-66,107,-4,-103,89,-36,-74,-107,-141,74
-69,-138,-69,103,0,-103,86,-35,-69,-103,-136,88
-64,-135,-71,99,4,-102,81,-34,-63,-97,-133,97
-63,-132,-69,97,3,-100,79,-30,-56,-95,-130,94
-56,-129,-73,93,8,-101,75,-30,-60,-95,-128,96
-59,-134,-75,97,8,-104,75,-32,-69,-91,-124,94
-59,-135,-76,98,9,-106,73,-36,-74,-90,-122,90
-55,-134,-80,94,13,-107,69,-35,-75,-90,-118,90
-55,-135,-80,95,13,-107,70,-35,-78,-90,-128,89
-50,-134,-84,93,18,-109,73,-40,-80,-89,-136,85
-51,-136,-85,94,18,-111,76,-40,-82,-93,-135,85
-56,-141,-84,99,14,-112,75,-40,-94,-99,-135,88
-56,-144,-88,100,16,-116,75,-40,-96,-101,-135,90
-59,-149,-90,104,16,-119,74,-40,-94,-105,-139,90
-59,-150,-91,104,16,-120,77,-40,-96,-105,-140,90
-55,-150,-95,103,20,-122,81,-40,-94,-105,-142,90
-55,-149,-95,103,20,-121,79,-40,-96,-105,-145,89
-60,-151,-90,105,15,-120,76,-40,-102,-105,-146,86
-59,-149,-90,104,16,-119,74,-40,-109,-105,-150,83
-52,-142,-90,97,19,-116,69,-40,-110,-105,-150,81
-65,-155,-90,110,12,-122,72,-40,-110,-105,-150,77
-68,-158,-90,113,11,-124,76,-40,-110,-105,-150,75
-62,-150,-88,106,13,-118,75,-40,-110,-105,-150,73
-62,-147,-84,105,11,-115,75,-40,-110,-105,-150,70
-57,-139,-82,98,13,-110,70,-40,-110,-105,-150,70
-57,-135,-79,96,11,-107,70,-40,-110,-105,-150,70
-59,-135,-76,97,9,-105,69,-40,-110,-105,-150,70
-63,-137,-74,100,6,-105,65,-40,-110,-105,-150,70
-64,-134,-70,100,3,-101,63,-40,-110,-105,-149,70
-61,-124,-63,93,1,-94,60,-40,-104,-104,-144,70
-63,-120,-58,92,-2,-89,56,-40,-91,-106,-139,68
-56,-108,-52,82,-2,-80,55,-35,-80,-93,-135,80
-34,-76,-42,55,5,-59,50,-35,-70,-76,-130,95
-23,-56,-33,40,5,-44,40,-34,-59,-75,-125,94
-19,-48,-29,34,5,-38,29,-36,-52,-75,-128,107
-10,-41,-31,25,11,-36,23,-34,-43,-75,-131,114
-6,-34,-28,20,11,-31,24,-40,-68,-75,-129,105
-6,-47,-41,27,18,-44,25,-57,-97,-90,-131,96
-4,-78,-74,42,35,-75,25,-50,-96,-89,-129,90
-28,-108,-80,68,27,-94,28,-47,-125,-92,-152,81
-58,-138,-79,98,11,-108,56,-42,-131,-105,-171,62
-72,-146,-74,109,2,-110,85,-38,-128,-117,-181,49
-76,-148,-72,112,-2,-109,89,-36,-133,-122,-193,44
-91,-159,-68,125,-11,-113,89,-39,-126,-115,-191,43
-95,-157,-62,127,-16,-109,95,-43,-136,-138,-203,32
-78,-143,-65,111,-6,-104,93,-34,-121,-126,-183,37
-95,-147,-52,121,-21,-99,100,-50,-140,-147,-196,22
-53,-127,-74,90,11,-100,97,-25,-120,-120,-173,39
-119,-135,-16,127,-51,-75,103,-67,-140,-152,-186,21
-93,-119,-26,106,-33,-72,123,59,14,-76,-157,37
145,-73,-219,-36,182,-146,63,329,266,318,158,252
450,121,-330,-285,390,-104,-233,306,93,806,678,690
688,337,-351,-513,519,-7,-540,44,-253,1034,952,1018
269,29,-239,-149,254,-105,-341,-290,-678,237,229,525
-111,-191,-81,151,-15,-136,-31,-273,-624,-337,-345,55
-72,-116,-44,95,-14,-80,30,-87,-224,-126,-196,86
-97,-139,-42,118,-28,-90,78,-42,-151,-136,-203,49
-80,-118,-38,99,-21,-78,98,-1,-108,-116,-192,59
-85,-120,-35,103,-25,-77,100,-7,-95,-104,-185,53
-82,-111,-29,97,-26,-70,100,-5,-90,-105,-189,45
-78,-112,-34,95,-22,-73,100,2,-77,-86,-174,50
-82,-115,-33,99,-24,-74,99,-4,-78,-93,-179,43
-79,-130,-51,105,-14,-90,106,10,-62,-73,-161,60
-86,-163,-78,125,-4,-120,122,34,-58,-77,-163,72
-79,-151,-73,115,-3,-112,116,36,-43,-65,-150,77
-78,-149,-70,114,-4,-109,114,33,-36,-62,-147,73
-74,-142,-68,108,-3,-104,110,38,-25,-54,-139,76
-75,-139,-64,108,-6,-101,105,42,-15,-48,-132,74
-73,-141,-67,107,-3,-104,103,53,-6,-41,-126,77
-64,-136,-72,100,4,-103,99,56,4,-35,-120,82
-60,-135,-75,98,8,-105,100,60,11,-28,-113,85
-65,-135,-70,100,3,-102,100,67,21,-18,-104,92
-58,-128,-70,93,6,-99,100,78,36,-8,-96,101
-51,-120,-69,86,9,-94,100,88,52,2,-86,107
-47,-112,-65,80,9,-88,94,104,75,13,-72,117
-39,-104,-65,72,13,-84,88,126,102,35,-57,124
-30,-95,-65,63,18,-79,84,143,126,58,-40,138
-6,-71,-65,39,30,-68,77,167,160,91,-12,159
11,-54,-65,22,38,-59,73,200,204,129,16,178
34,-31,-65,-1,50,-48,66,236,245,175,56,212
67,3,-64,-34,66,-31,48,274,288,237,110,255
94,28,-66,-60,79,-19,28,302,326,292,163,295
127,59,-68,-93,97,-5,7,334,362,347,214,333
157,83,-74,-120,116,5,-10,347,372,395,259,371
173,92,-80,-132,126,6,-27,337,359,423,292,393
162,87,-75,-124,118,6,-36,323,343,408,296,388
142,72,-70,-107,106,0,-18,274,295,366,267,378
103,37,-67,-70,85,-15,3,214,232,292,199,335
52,-9,-61,-21,57,-34,19,162,166,194,108,266
8,-52,-60,22,34,-55,43,110,108,109,34,210
-29,-89,-60,59,16,-74,67,71,61,37,-29,160
-54,-114,-60,84,3,-87,90,52,16,-6,-83,121
-80,-140,-60,110,-10,-100,104,42,-11,-33,-112,101
-93,-153,-60,123,-16,-106,104,29,-31,-50,-132,94
-103,-162,-59,132,-22,-110,118,25,-45,-70,-139,85
-103,-169,-66,136,-18,-118,126,25,-51,-87,-144,76
-101,-170,-69,136,-16,-119,124,24,-50,-87,-161,69
-118,-180,-62,149,-28,-120,125,25,-50,-91,-168,62
-124,-182,-58,153,-33,-119,126,24,-50,-93,-170,55
-128,-179,-51,154,-39,-115,139,26,-50,-98,-171,47
-134,-180,-46,157,-44,-113,141,30,-47,-99,-174,42
-125,-175,-49,151,-38,-112,139,29,-41,-92,-180,44
-124,-175,-51,150,-36,-113,140,31,-37,-88,-177,45
-127,-174,-47,151,-40,-110,140,29,-33,-82,-168,45
-122,-167,-45,145,-39,-106,139,34,-27,-76,-160,44
-122,-163,-42,142,-40,-102,134,45,-25,-71,-150,50
-117,-157,-39,137,-39,-98,136,45,-25,-70,-146,59
-112,-152,-40,132,-36,-96,132,45,-25,-70,-144,64
-98,-144,-47,121,-25,-95,129,45,-25,-70,-140,70
-96,-147,-51,122,-22,-99,130,45,-25,-70,-138,70
-112,-161,-49,137,-31,-105,126,43,-25,-70,-134,70
-106,-156,-51,131,-27,-103,125,40,-29,-71,-138,70
-104,-154,-49,129,-27,-101,125,37,-32,-76,-140,70
-99,-150,-51,124,-24,-100,125,34,-37,-74,-141,68
-90,-145,-54,118,-18,-100,125,30,-48,-83,-145,63
-92,-147,-55,120,-18,-101,123,31,-51,-91,-145,60
-94,-149,-55,122,-19,-101,120,40,-50,-90,-150,56
-107,-162,-55,135,-26,-109,120,38,-50,-95,-150,52
-109,-165,-55,137,-27,-110,118,34,-50,-95,-151,49
-107,-159,-53,133,-27,-106,114,31,-51,-98,-155,46
-108,-158,-50,133,-29,-104,115,26,-50,-101,-155,45
-108,-154,-47,131,-30,-100,115,25,-53,-100,-153,45
-107,-152,-44,130,-32,-98,115,25,-56,-100,-149,45
-109,-149,-40,129,-34,-95,115,25,-55,-100,-147,45
-118,-158,-40,138,-39,-99,115,25,-55,-100,-144,48
-116,-161,-45,139,-36,-102,125,25,-55,-100,-141,50
-111,-156,-45,134,-32,-100,130,25,-54,-100,-139,50
-110,-155,-45,133,-32,-100,123,29,-58,-100,-136,50
-105,-150,-45,128,-30,-97,120,30,-60,-100,-135,50
-105,-150,-45,128,-30,-97,115,30,-60,-100,-135,50
-113,-157,-43,135,-35,-100,110,30,-63,-100,-135,45
-118,-156,-38,137,-40,-96,116,30,-66,-100,-135,45
-114,-149,-35,132,-39,-92,121,31,-64,-100,-132,44
-114,-146,-31,130,-41,-88,119,35,-59,-100,-126,40
-113,-141,-28,127,-43,-84,120,35,-50,-100,-121,40
-112,-136,-24,125,-44,-80,114,35,-45,-98,-115,42
-112,-131,-20,122,-46,-75,111,35,-37,-88,-111,53
-101,-113,-12,107,-44,-62,106,34,-17,-75,-103,61
-89,-94,-6,92,-41,-50,102,41,0,-66,-92,59
-83,-83,0,83,-41,-41,94,46,15,-65,-85,73
-82,-73,9,78,-45,-32,68,45,25,-65,-85,95
-75,-68,6,71,-40,-31,54,44,10,-61,-85,103
-67,-60,7,63,-37,-26,58,39,-8,-59,-84,92
-62,-90,-28,76,-17,-58,72,41,-19,-63,-86,79
-62,-128,-66,96,2,-97,78,38,-39,-72,-82,74
-78,-143,-64,111,-7,-103,87,34,-66,-104,-101,56
-105,-170,-66,138,-19,-118,119,34,-68,-128,-121,30
-117,-177,-60,147,-28,-118,127,26,-72,-134,-129,16
-112,-173,-61,142,-25,-117,130,30,-61,-120,-121,19
-141,-198,-58,169,-41,-128,143,19,-67,-129,-124,9
-131,-200,-68,166,-32,-134,136,33,-56,-115,-114,11
-138,-199,-60,169,-39,-129,148,17,-59,-122,-114,4
-125,-196,-71,161,-27,-133,149,26,-57,-130,-114,8
-141,-191,-51,166,-44,-121,144,12,-47,-111,-95,19
-188,-185,3,187,-96,-90,163,25,-22,-156,-129,-11
-2,-128,-126,65,62,-126,139,323,298,137,80,131
290,-8,-298,-140,294,-153,-29,458,361,645,572,500
620,286,-335,-453,477,-24,-402,248,53,1126,1121,1018
437,236,-201,-336,319,18,-448,-141,-393,731,799,870
-77,-142,-65,110,-6,-103,-95,-302,-663,-229,-109,162
-92,-146,-54,120,-19,-100,56,-97,-310,-230,-188,28
-58,-106,-49,82,-4,-78,89,3,-80,-96,-86,57
-110,-157,-47,134,-31,-102,129,44,-60,-139,-121,25
-109,-151,-42,130,-33,-96,130,57,-17,-94,-84,42
-117,-158,-40,137,-38,-98,138,60,-25,-117,-103,17
-111,-162,-50,137,-30,-106,132,80,-2,-88,-80,28
-118,-159,-41,139,-38,-100,130,71,-4,-98,-86,14
-113,-150,-37,132,-38,-93,128,80,9,-86,-74,26
-111,-139,-28,125,-41,-84,123,79,22,-85,-70,37
-108,-122,-14,115,-47,-68,128,80,31,-83,-66,41
-114,-140,-25,127,-44,-82,143,88,33,-76,-58,44
-105,-134,-28,120,-38,-81,141,91,36,-76,-55,46
-104,-122,-18,113,-43,-69,131,89,39,-69,-48,51
-114,-127,-13,121,-50,-70,127,87,41,-66,-44,49
-118,-124,-6,121,-56,-65,118,84,57,-60,-37,51
-126,-125,1,126,-63,-62,114,87,67,-57,-32,48
-107,-125,-19,116,-43,-72,109,101,68,-52,-19,55
-80,-118,-38,100,-21,-78,104,109,85,-47,-8,68
-74,-97,-23,86,-25,-60,100,116,109,-27,6,73
-70,-80,-10,75,-30,-45,95,129,121,-12,20,72
-61,-66,-5,64,-28,-35,91,136,144,1,33,84
-60,-65,-5,63,-27,-35,85,154,176,31,57,103
-43,-48,-5,46,-18,-26,77,183,206,64,85,108
-23,-28,-5,26,-9,-16,71,203,243,94,113,132
0,-6,-6,3,3,-6,63,232,280,133,150,164
34,36,2,-35,16,19,40,267,322,193,208,204
55,72,17,-64,19,45,14,296,363,247,265,245
87,115,28,-101,29,71,-9,320,398,304,320,281
109,131,22,-120,43,76,-37,343,428,382,389,345
134,151,17,-143,58,84,-48,344,427,431,444,383
158,162,3,-160,77,82,-45,331,414,443,458,383
166,145,-21,-155,93,62,-42,306,388,422,437,385
138,123,-15,-130,76,53,-41,244,335,346,379,344
70,65,-5,-68,38,30,-26,187,277,243,293,267
20,26,7,-23,6,16,6,138,205,147,216,201
-37,-19,18,28,-28,-1,33,90,143,64,134,136
-81,-69,13,75,-47,-28,60,60,99,2,69,88
-93,-87,6,90,-49,-40,73,55,72,-38,31,58
-105,-106,-1,105,-52,-53,75,56,57,-59,8,40
-103,-110,-7,107,-48,-59,80,46,42,-77,-13,26
-94,-108,-14,102,-40,-61,87,41,38,-84,-29,16
-91,-103,-11,97,-39,-57,90,32,35,-85,-27,12
-105,-114,-10,109,-47,-62,93,27,32,-101,-46,3
-126,-136,-10,131,-58,-72,96,29,27,-106,-51,-2
-130,-135,-5,133,-62,-70,94,30,25,-105,-52,-11
-129,-135,-5,133,-62,-70,96,30,30,-104,-58,-19
-127,-130,-4,129,-61,-67,94,30,32,-115,-60,-28
-130,-130,0,130,-65,-65,101,30,40,-125,-74,-34
-138,-129,8,133,-73,-60,106,32,44,-112,-64,-29
-129,-122,7,125,-67,-58,100,36,48,-102,-55,-25
-110,-116,-6,114,-52,-61,98,34,56,-90,-48,-21
-94,-109,-15,101,-39,-61,93,37,62,-78,-41,-16
-86,-104,-18,95,-34,-60,90,50,70,-75,-35,-14
-82,-93,-12,88,-35,-52,90,48,67,-75,-27,-11
-100,-110,-10,105,-44,-59,90,44,61,-75,-21,-9
-122,-128,-5,126,-58,-66,90,41,58,-75,-15,-5
-122,-124,-2,123,-60,-62,90,36,52,-75,-20,-6
-127,-126,2,126,-64,-61,90,35,49,-75,-26,-21
-139,-125,15,132,-76,-55,88,35,44,-75,-24,-26
-139,-125,14,132,-76,-55,85,35,41,-74,-27,-24
-128,-121,7,124,-67,-57,82,35,37,-76,-46,-26
-118,-115,3,116,-60,-55,80,35,33,-73,-34,-23
-106,-110,-4,108,-51,-57,77,35,30,-76,-39,-27
-96,-104,-9,100,-43,-56,74,32,27,-86,-72,-44
-92,-98,-6,95,-43,-52,79,26,24,-85,-67,-46
-100,-96,4,98,-52,-46,79,21,21,-84,-64,-44
-111,-102,9,106,-60,-46,75,18,19,-80,-61,-46
-110,-118,-8,115,-51,-62,75,12,14,-80,-56,-44
-115,-132,-17,124,-49,-74,73,10,19,-82,-55,-46
-104,-113,-9,109,-47,-61,69,10,26,-87,-54,-44
-91,-97,-6,95,-43,-51,70,10,25,-90,-60,-49
-107,-105,1,106,-54,-52,74,10,24,-90,-69,-60
-121,-115,6,118,-63,-54,72,10,20,-90,-76,-60
-124,-113,11,118,-67,-50,69,18,20,-89,-73,-59
-134,-109,25,122,-80,-42,70,20,20,-96,-70,-66
-131,-110,21,121,-76,-44,70,13,20,-97,-68,-71
-116,-106,9,111,-62,-48,69,10,20,-87,-65,-70
-105,-104,1,105,-52,-52,74,5,20,-80,-63,-67
-104,-105,-1,105,-51,-53,79,0,20,-72,-56,-65
-115,-98,17,106,-66,-40,70,4,21,-66,-52,-65
-109,-90,18,99,-63,-35,64,11,38,-55,-46,-61
-117,-79,38,98,-77,-20,56,9,50,-46,-40,-55
-109,-44,64,77,-86,10,49,13,71,-36,-36,-50
-72,-19,53,45,-62,16,42,22,91,-24,-28,-42
-66,7,73,29,-70,40,23,10,81,-21,-26,-22
-63,20,82,21,-73,51,13,-7,66,-16,-14,-21
-61,8,68,26,-65,38,4,-28,55,-34,-28,-43
-62,-8,53,35,-57,22,3,-29,48,-53,-52,-41
-66,-49,16,57,-41,-16,16,-21,39,-49,-51,-49
-68,-72,-4,70,-32,-38,28,-19,26,-50,-68,-71
-91,-103,-11,97,-40,-57,57,-9,18,-53,-95,-89
-118,-138,-20,128,-49,-79,76,-9,3,-66,-137,-115
-97,-128,-31,112,-33,-79,74,2,15,-55,-118,-97
-92,-126,-34,110,-29,-80,76,-4,3,-73,-112,-107
-82,-120,-38,102,-22,-79,74,4,19,-59,-145,-129
-86,-110,-24,98,-31,-67,77,-4,21,-51,-152,-127
-92,-118,-26,105,-33,-72,73,5,12,-57,-158,-138
-112,-112,0,112,-56,-56,87,5,24,-18,-128,-112
-145,-101,44,123,-95,-28,105,13,39,-79,-175,-164
-10,-50,-40,30,15,-45,84,240,396,223,58,-24
240,71,-169,-155,205,-49,-70,349,504,820,673,435
498,414,-83,-456,290,165,-429,133,175,1335,1332,995
326,422,95,-375,115,258,-488,-210,-268,975,1018,880
-93,-26,67,59,-80,20,-167,-312,-583,-50,-75,67
-156,-114,42,135,-99,-36,-7,-127,-262,-155,-255,-181
-144,-77,67,111,-105,-5,34,-38,-8,-11,-127,-129
-136,-87,49,112,-93,-19,64,-3,5,-58,-172,-160
-114,-63,51,88,-82,-6,58,18,54,-10,-125,-131
-112,-73,39,92,-75,-17,62,19,54,-32,-146,-148
-91,-56,35,73,-63,-10,59,25,77,-5,-120,-133
-87,-58,30,72,-58,-14,61,17,61,-12,-125,-136
-79,-49,29,64,-54,-10,58,22,70,-1,-115,-129
-86,-54,31,70,-58,-11,55,19,86,2,-109,-126
-82,-50,31,66,-56,-9,53,20,91,4,-107,-124
-85,-41,44,63,-64,1,49,21,97,13,-97,-118
-88,-37,50,63,-69,6,47,25,97,6,-96,-128
-78,-28,50,53,-64,11,44,30,105,18,-87,-138
-74,-24,50,49,-62,13,42,30,115,24,-84,-138
-66,-17,49,41,-58,16,34,30,123,30,-77,-131
-78,-14,63,46,-70,24,28,30,132,39,-72,-126
-83,-11,72,47,-77,30,21,29,142,43,-63,-120
-79,-7,73,43,-76,33,14,32,149,43,-55,-116
-82,-6,76,44,-79,35,9,34,163,61,-47,-108
-60,20,79,20,-70,49,2,48,183,84,-33,-100
-38,42,80,-2,-59,61,-2,62,204,88,-16,-91
-39,43,82,-2,-61,63,-9,71,228,105,1,-85
-38,48,86,-5,-62,66,-13,90,260,140,24,-74
-29,55,84,-14,-57,70,-20,110,298,179,55,-48
-8,86,94,-39,-51,89,-40,133,342,225,98,-18
26,126,100,-76,-37,113,-60,151,382,277,155,20
48,157,109,-103,-31,133,-83,177,425,341,220,74
70,189,119,-130,-25,154,-107,202,465,408,287,123
107,222,116,-165,-5,169,-133,207,489,464,345,160
134,247,113,-191,10,180,-153,208,496,511,397,207
147,257,111,-202,18,183,-154,197,484,530,428,219
130,237,107,-184,11,172,-142,180,448,501,416,204
88,194,105,-141,-9,149,-128,151,397,435,370,186
43,145,102,-94,-30,123,-113,110,332,339,281,126
3,97,94,-51,-46,96,-93,69,250,225,176,50
-35,51,86,-8,-61,68,-65,33,191,140,94,-12
-72,6,78,33,-75,42,-47,16,146,79,31,-59
-84,-14,71,49,-77,28,-41,3,105,33,-16,-94
-88,-24,64,56,-76,20,-32,-5,87,8,-48,-117
-95,-36,59,65,-76,11,-24,-8,80,-11,-68,-133
-102,-48,54,75,-78,2,-20,-12,72,-26,-70,-135
-104,-56,48,80,-76,-4,-20,-15,63,-38,-71,-136
-103,-62,42,82,-72,-10,-20,-20,62,-44,-78,-149
-121,-79,42,100,-81,-18,-20,-18,65,-47,-70,-156
-132,-87,45,109,-88,-21,-20,-14,65,-52,-76,-162
-129,-84,45,106,-86,-20,-19,-12,65,-55,-82,-165
-131,-86,45,108,-88,-21,-16,-9,71,-60,-79,-170
-135,-91,45,112,-90,-22,-11,-6,75,-64,-81,-173
-135,-90,45,112,-90,-22,-8,-4,75,-66,-79,-168
-131,-87,45,108,-88,-21,-5,-1,75,-65,-81,-166
-136,-84,52,110,-94,-16,0,0,75,-66,-76,-163
-142,-81,61,111,-101,-10,-3,0,75,-64,-69,-160
-143,-79,64,111,-104,-7,-12,-2,74,-60,-63,-159
-144,-76,69,110,-106,-3,-20,-6,70,-58,-56,-154
-140,-70,70,105,-105,0,-29,-5,70,-55,-50,-148
-136,-66,70,101,-102,2,-30,-9,70,-52,-43,-145
-131,-61,70,96,-100,4,-30,-10,70,-49,-41,-140
-126,-56,70,91,-98,7,-30,-10,70,-47,-37,-135
-125,-55,70,90,-97,7,-30,-10,68,-43,-35,-139
-125,-55,70,90,-97,7,-30,-10,61,-51,-32,-140
-125,-55,70,90,-97,7,-32,-10,56,-65,-29,-141
-125,-55,70,90,-97,7,-36,-10,51,-67,-35,-150
-125,-55,71,90,-97,7,-34,-9,45,-70,-37,-156
-124,-55,69,90,-96,6,-36,-13,40,-73,-34,-159
-136,-60,76,98,-106,8,-34,-15,35,-81,-35,-164
-146,-60,86,102,-116,13,-36,-15,35,-97,-35,-165
-145,-61,84,103,-115,11,-49,-19,34,-101,-35,-165
-153,-65,88,109,-120,11,-50,-21,30,-100,-36,-170
-156,-65,90,110,-122,12,-53,-19,30,-105,-40,-170
-152,-63,90,108,-121,13,-61,-15,30,-105,-40,-171
-151,-57,94,104,-122,18,-59,-15,30,-105,-36,-175
-147,-52,95,99,-121,21,-60,-14,30,-105,-35,-175
-144,-49,95,96,-119,23,-60,-10,30,-105,-35,-175
-138,-44,95,90,-116,25,-60,-10,30,-105,-35,-175
-135,-40,95,87,-115,27,-60,-12,30,-105,-35,-175
-141,-47,93,94,-117,23,-60,-20,34,-105,-34,-172
-147,-57,90,102,-118,16,-60,-24,35,-109,-29,-169
-146,-56,90,101,-118,17,-60,-21,35,-110,-26,-166
-139,-51,88,95,-113,18,-60,-18,35,-110,-23,-163
-133,-49,84,90,-108,17,-60,-15,35,-115,-18,-160
-130,-44,86,87,-107,21,-64,-12,37,-115,-16,-159
-128,-41,87,84,-108,23,-76,-10,42,-115,-10,-151
-131,-35,96,83,-114,31,-81,-10,44,-105,-1,-143
-139,-11,128,75,-133,58,-83,-10,57,-95,10,-135
-131,2,133,64,-132,67,-86,-10,76,-80,24,-127
-114,16,129,49,-122,73,-95,-10,88,-73,33,-121
-105,45,150,29,-128,97,-120,-9,92,-75,35,-120
-97,45,142,26,-120,93,-125,-22,80,-75,32,-120
-107,25,132,41,-120,78,-120,-38,56,-83,27,-120
-96,9,105,44,-101,57,-116,-30,42,-69,23,-120
-74,-10,64,42,-69,27,-112,-27,34,-88,19,-119
-109,-44,65,76,-87,10,-104,-21,27,-120,7,-143
-156,-73,83,114,-119,5,-75,-14,23,-128,-1,-173
-180,-88,91,134,-135,1,-59,-12,10,-154,-18,-183
-177,-88,88,132,-133,0,-60,-2,16,-145,-14,-180
-182,-90,92,136,-137,1,-54,-10,9,-155,-18,-189
-167,-80,87,124,-126,3,-53,1,29,-144,-13,-186
-179,-84,95,132,-137,5,-49,-13,18,-166,-15,-192
-156,-77,79,117,-118,1,-50,6,37,-166,-19,-190
-163,-75,88,118,-125,6,-50,-22,29,-158,-2,-186
-214,-79,136,146,-175,28,-38,24,80,-174,3,-201
-41,-33,8,37,-24,-12,-49,276,385,156,231,-37
238,117,-122,-177,180,-3,-264,323,346,675,760,366
532,447,-85,-489,308,181,-647,157,115,1209,1339,871
343,281,-62,-312,202,110,-617,-140,-269,757,924,657
-121,-106,16,114,-68,-45,-259,-262,-521,-229,0,-53
-190,-67,123,128,-156,28,-121,-100,-170,-218,-50,-187
-183,-72,110,127,-146,19,-87,-22,4,-121,42,-159
-174,-76,99,125,-136,11,-56,11,23,-165,11,-179
-165,-62,104,113,-134,21,-56,16,54,-127,33,-156
-176,-70,106,123,-141,18,-53,18,44,-165,10,-172
-179,-55,124,116,-151,34,-56,28,78,-150,22,-157
-186,-61,125,123,-155,32,-54,26,72,-160,11,-163
-175,-50,125,112,-149,37,-55,34,77,-145,22,-159
-178,-52,125,115,-152,36,-55,35,75,-144,29,-157
-171,-46,124,108,-147,39,-55,41,80,-138,39,-155
-172,-45,127,108,-149,41,-55,44,91,-132,41,-154
-171,-42,130,107,-150,44,-55,48,102,-130,38,-151
-170,-39,131,104,-150,46,-55,52,112,-124,44,-146
-171,-37,134,104,-152,48,-57,54,116,-123,48,-144
-164,-28,135,95,-149,53,-60,56,126,-116,56,-139
-161,-23,138,92,-149,57,-60,54,133,-115,54,-136
-158,-16,143,87,-150,63,-64,60,143,-108,57,-132
-156,-9,146,82,-151,68,-65,74,157,-98,72,-124
-154,-4,150,79,-152,73,-65,81,171,-87,79,-118
-145,5,150,70,-148,77,-69,95,196,-73,92,-111
-135,15,150,60,-143,82,-74,106,218,-53,113,-100
-125,29,154,48,-140,91,-77,117,244,-30,129,-87
-119,44,164,37,-142,104,-81,144,279,-3,157,-66
-108,67,175,20,-142,121,-86,170,320,34,189,-44
-86,97,184,-6,-135,140,-100,196,363,74,233,-15
-55,132,187,-38,-121,159,-118,222,408,126,285,24
-16,169,185,-77,-101,176,-138,252,455,198,345,68
10,195,185,-103,-88,190,-161,285,499,262,407,114
42,223,181,-132,-70,202,-180,301,525,318,457,155
60,239,180,-149,-60,209,-199,296,517,361,501,187
47,227,180,-137,-67,203,-199,289,507,370,513,199
42,217,175,-130,-67,196,-188,267,475,344,493,184
17,192,175,-105,-79,183,-181,219,405,279,450,126
-32,143,175,-56,-104,159,-168,167,329,179,360,47
-74,101,175,-14,-125,138,-144,116,252,72,264,-24
-116,59,175,28,-146,117,-117,75,189,-4,185,-83
-151,24,175,63,-163,99,-98,46,142,-59,121,-124
-172,3,175,84,-173,89,-88,32,105,-103,85,-154
-187,-12,175,99,-180,81,-80,27,86,-122,68,-169
-201,-26,175,113,-188,74,-71,24,80,-136,64,-181
-217,-42,175,129,-196,66,-64,20,75,-145,59,-193
-221,-46,175,133,-197,65,-59,17,69,-155,52,-196
-221,-46,175,133,-197,65,-54,14,63,-159,48,-199
-225,-51,175,137,-200,61,-48,17,61,-154,42,-202
-225,-50,175,137,-200,62,-43,25,65,-163,40,-206
-224,-50,174,137,-199,61,-37,25,68,-171,40,-213
-229,-50,179,139,-204,64,-35,26,70,-173,36,-218
-240,-50,190,145,-215,70,-35,30,69,-179,35,-225
-243,-50,193,147,-218,71,-31,30,70,-181,35,-227
-247,-50,197,148,-222,73,-30,27,70,-182,40,-222
-255,-51,204,153,-230,77,-30,24,70,-180,37,-219
-258,-48,210,153,-234,80,-30,25,78,-177,35,-215
-256,-45,210,151,-232,82,-30,21,81,-174,53,-211
-252,-42,210,147,-231,83,-30,19,80,-171,59,-209
-250,-40,210,145,-230,85,-30,20,77,-170,67,-204
-246,-37,209,141,-227,86,-30,20,74,-170,83,-201
-247,-34,212,140,-229,89,-29,20,75,-170,82,-198
-254,-39,215,146,-235,88,-32,20,69,-170,80,-193
-255,-40,215,147,-235,87,-40,20,64,-170,80,-189
-255,-40,215,147,-235,87,-41,20,59,-170,80,-195
-255,-40,215,147,-235,87,-39,18,52,-172,80,-204
-255,-40,215,147,-235,87,-36,14,48,-177,80,-207
-259,-40,219,150,-239,90,-34,15,42,-184,80,-211
-260,-40,220,150,-240,90,-37,11,40,-189,80,-215
-260,-40,220,150,-240,90,-40,10,40,-192,80,-214
-260,-40,220,150,-240,90,-40,10,36,-196,80,-217
-260,-40,220,150,-240,90,-40,5,35,-199,81,-220
-260,-40,220,150,-240,90,-40,5,35,-202,77,-219
-264,-44,220,154,-242,88,-40,4,35,-205,75,-224
-265,-45,219,155,-242,86,-40,0,35,-204,75,-225
-265,-45,221,155,-242,87,-40,0,35,-205,72,-225
-264,-45,219,155,-241,86,-40,2,35,-212,69,-229
-274,-45,229,159,-251,92,-40,7,35,-216,71,-230
-267,-45,222,156,-244,88,-39,10,32,-214,74,-229
