I,II,III,aVR,aVL,aVF,V1,V2,V3,V4,V5,V6
-129,-76,53,102,-90,-12,20,21,-174,-154,-125,85
-152,-97,56,124,-104,-20,20,18,-183,-159,-128,83
-205,-113,92,159,-149,-10,20,16,-192,-165,-124,77
-207,-109,98,158,-152,-5,19,31,-194,-165,-126,74
-205,-113,91,159,-148,-11,21,47,-192,-167,-126,68
-200,-116,85,158,-142,-15,19,52,-182,-168,-123,66
-196,-115,81,155,-138,-17,26,39,-190,-175,-129,73
-180,-106,74,143,-127,-16,27,50,-167,-159,-112,86
-170,-102,68,136,-119,-17,34,26,-191,-170,-124,73
-139,-78,61,108,-100,-8,38,46,-147,-135,-93,90
-170,-114,55,142,-112,-29,59,15,-196,-179,-140,46
-316,-165,152,240,-234,-6,182,-12,-278,-251,-248,-41
-236,-92,145,164,-190,26,123,20,-198,-118,-122,60
451,314,-137,-383,294,88,-301,347,357,400,436,503
1043,557,-486,-799,764,35,-681,406,636,527,693,772
601,89,-512,-345,556,-211,-688,-700,-607,-392,-38,329
-30,-363,-334,197,152,-348,-474,-1029,-1172,-789,-487,-71
-122,-347,-225,235,52,-286,-221,-412,-630,-488,-340,-69
-142,-176,-34,159,-54,-104,-9,-123,-376,-284,-214,28
-186,-100,86,143,-136,-7,69,111,-175,-131,-112,96
-161,-53,108,107,-135,27,98,133,-160,-127,-103,85
-205,-83,121,143,-163,19,109,159,-137,-102,-88,100
-231,-122,109,176,-170,-6,99,203,-130,-98,-87,104
-188,-69,119,128,-153,25,101,195,-136,-92,-84,108
-169,-56,113,112,-141,28,95,205,-118,-79,-76,112
-168,-65,103,117,-135,19,95,195,-127,-80,-76,108
-181,-71,111,126,-146,20,100,204,-111,-66,-64,112
-163,-46,117,104,-140,35,99,198,-114,-65,-60,107
-170,-31,138,100,-154,53,101,207,-102,-54,-49,112
-184,-37,147,110,-165,55,98,206,-100,-50,-43,107
-153,-18,135,85,-144,58,104,211,-83,-40,-33,108
-170,-30,140,99,-154,54,120,226,-58,-31,-22,149
-142,-16,126,79,-135,55,120,242,-37,-24,-9,163
-87,55,142,16,-115,98,121,273,-18,-8,6,158
-110,55,164,27,-137,109,125,290,0,16,24,180
-94,69,163,12,-129,116,125,304,34,39,51,203
-64,120,184,-29,-124,152,123,344,83,73,90,236
-31,167,197,-68,-114,182,114,391,137,128,142,277
-4,217,221,-107,-113,219,107,431,187,180,191,316
21,265,243,-143,-111,254,100,467,233,207,232,352
30,268,238,-149,-104,253,91,475,254,235,258,370
52,294,242,-173,-95,268,88,485,280,271,285,399
116,359,243,-238,-64,301,95,496,299,281,299,414
87,299,212,-193,-63,255,92,480,289,264,288,399
96,287,191,-192,-48,238,85,458,264,258,265,377
83,263,180,-173,-49,221,84,412,209,221,208,323
5,144,139,-75,-67,142,76,349,136,138,139,262
-12,108,121,-48,-67,114,79,287,63,71,82,213
-57,46,103,5,-80,75,86,234,7,25,33,169
-73,4,77,34,-75,40,85,193,-43,-3,11,152
-79,3,82,38,-81,42,84,168,-63,-44,-9,134
-97,-19,78,58,-87,29,80,147,-74,-69,-33,112
-90,-22,68,56,-79,23,80,136,-82,-63,-42,112
-132,-71,61,101,-97,-5,80,131,-92,-66,-51,103
-148,-94,54,121,-101,-19,80,126,-118,-65,-50,94
-136,-88,48,111,-92,-20,80,122,-113,-65,-50,89
-136,-91,45,113,-90,-22,79,117,-110,-63,-50,78
-123,-84,39,104,-81,-22,81,114,-109,-59,-50,91
-127,-85,41,106,-84,-21,79,109,-103,-61,-51,102
-155,-84,72,119,-113,-5,90,118,-109,-56,-49,96
-152,-78,74,115,-113,-2,106,136,-110,-55,-65,95
-146,-78,68,112,-107,-5,105,135,-105,-55,-71,91
-140,-74,67,106,-103,-3,105,134,-98,-44,-64,89
-130,-70,60,100,-95,-5,105,136,-94,-30,-63,94
-132,-73,60,102,-96,-6,105,129,-88,-16,-57,94
-108,-54,53,80,-80,0,103,144,-82,-27,-54,96
-129,-61,68,94,-98,3,99,150,-80,-26,-51,99
-90,-33,58,61,-74,12,101,144,-80,-7,-44,101
-100,-64,36,81,-68,-14,100,142,-80,-13,-42,98
-163,-102,61,132,-112,-20,99,136,-79,-7,-34,96
-123,-55,68,89,-96,7,117,136,-81,-16,-35,94
-97,-65,32,81,-64,-17,126,126,-79,-30,-22,95
-103,-54,49,78,-76,-3,126,134,-72,-24,-21,96
-127,-37,90,82,-109,27,122,149,-57,-19,-40,92
-61,17,77,22,-69,47,139,165,-48,-7,-11,108
-36,37,74,-1,-55,55,164,173,-43,2,-2,109
-57,44,101,6,-79,72,149,169,-38,39,-12,125
-17,99,116,-42,-67,107,137,143,-53,58,-11,147
-35,69,104,-17,-70,86,135,104,-68,38,-17,130
-46,32,78,7,-62,54,127,101,-65,27,-21,124
-53,-8,45,30,-49,19,124,94,-63,10,-18,107
-103,-71,32,87,-67,-20,117,81,-79,-6,-34,77
-144,-111,33,127,-88,-39,112,74,-97,-22,-68,50
-139,-113,27,126,-83,-43,142,64,-108,-42,-70,66
-137,-114,23,125,-80,-45,164,56,-117,-51,-70,88
-140,-118,22,129,-81,-48,159,50,-114,-49,-70,77
-117,-110,8,114,-62,-51,158,47,-115,-52,-70,75
-109,-80,29,94,-68,-25,155,42,-116,-48,-70,70
-131,-90,40,110,-85,-25,154,41,-112,-57,-71,65
-188,-152,36,170,-112,-58,160,33,-114,-82,-88,62
-129,-105,24,117,-77,-40,159,36,-102,-71,-80,59
-92,-95,-3,94,-45,-49,161,25,-109,-73,-84,56
-160,-140,20,150,-89,-60,165,35,-95,-58,-74,54
-137,-119,17,128,-77,-51,163,23,-99,-62,-78,50
-111,-102,10,106,-60,-46,169,25,-91,-47,-70,49
-99,-120,-22,110,-38,-71,157,30,-83,-48,-62,38
-211,-181,31,196,-121,-75,270,-10,-157,-127,-154,15
-300,-159,141,229,-220,-9,333,-9,-172,-117,-171,3
132,88,-44,-110,88,22,46,143,145,237,205,269
951,541,-411,-746,681,65,-414,401,745,726,799,795
892,436,-456,-664,673,-10,-595,-324,84,206,465,655
100,-169,-269,35,185,-219,-373,-1109,-989,-597,-310,73
-100,-351,-251,226,76,-300,-158,-731,-766,-533,-384,-84
-128,-283,-154,206,13,-218,20,-349,-416,-301,-265,-52
-177,-182,-5,179,-85,-94,165,-102,-197,-141,-150,32
-115,-93,22,104,-68,-35,180,8,-77,-66,-80,88
-142,-88,54,115,-98,-17,184,-8,-82,-48,-68,86
-141,-81,60,111,-101,-10,199,44,-43,-31,-56,120
-119,-59,61,89,-90,1,217,39,-60,-40,-91,119
-126,-71,55,98,-90,-8,209,47,-34,-26,-79,120
-167,-111,57,138,-112,-27,205,36,-38,-29,-70,121
-147,-96,51,121,-99,-22,202,37,-28,-22,-60,119
-140,-80,60,110,-100,-10,194,31,-30,-19,-51,121
-144,-75,69,109,-106,-2,202,29,-29,-12,-47,120
-111,-83,28,97,-69,-27,205,38,-23,-8,-38,119
-137,-74,63,105,-100,-6,221,47,-27,0,-33,137
-146,-44,103,95,-124,29,232,52,-17,2,-23,148
-125,-33,91,78,-108,29,228,57,3,13,-11,149
-104,-8,96,55,-100,44,231,62,36,32,0,161
-51,45,96,2,-74,71,229,89,63,52,28,180
-28,61,89,-17,-59,75,231,126,92,81,55,214
-38,83,121,-23,-80,102,235,145,126,111,76,235
-29,135,163,-53,-96,149,235,178,169,154,122,269
21,153,132,-87,-56,143,236,215,216,183,161,310
67,203,137,-135,-35,170,240,257,263,236,203,354
58,238,180,-148,-61,209,240,291,304,283,251,395
77,256,178,-167,-51,217,237,316,325,302,269,404
126,294,168,-210,-22,231,234,319,346,309,291,428
125,286,161,-206,-18,224,229,296,349,291,297,433
91,245,154,-168,-31,199,228,280,324,284,264,404
60,203,143,-132,-41,173,220,251,286,247,232,383
42,172,130,-107,-44,151,224,203,222,189,172,328
-7,107,114,-50,-61,110,243,154,159,125,105,265
-53,29,81,12,-67,55,265,108,106,61,59,219
-71,-22,49,46,-60,14,280,64,55,25,10,173
-97,-73,24,85,-60,-24,281,39,19,-1,-23,153
-77,-51,26,63,-51,-13,287,30,2,-32,-46,146
-94,-68,25,80,-59,-21,289,17,-27,-57,-71,139
-124,-103,21,113,-72,-41,279,9,-54,-66,-69,131
-113,-83,30,98,-71,-27,277,-1,-48,-63,-53,124
-129,-123,5,126,-67,-59,301,-3,-45,-60,-67,117
-144,-127,16,135,-80,-55,306,3,-43,-58,-80,103
-156,-118,38,137,-97,-39,303,24,-38,-52,-85,96
-149,-122,27,135,-88,-47,294,19,-50,-69,-95,77
-135,-112,23,124,-79,-45,310,3,-56,-81,-89,103
-135,-115,20,125,-77,-47,348,39,-50,-72,-84,144
-99,-91,8,95,-53,-41,341,53,-48,-70,-78,138
-91,-75,16,83,-53,-30,338,48,-43,-65,-72,140
-128,-68,60,98,-94,-3,335,44,-40,-60,-68,140
-113,-55,58,84,-85,1,329,49,-36,-57,-61,140
-126,-83,43,104,-84,-20,331,73,-29,-52,-54,138
-129,-93,36,110,-82,-28,329,76,-22,-50,-49,132
-99,-79,20,89,-59,-29,331,73,-16,-45,-39,128
-79,-74,5,77,-42,-34,329,80,-8,-42,-38,123
-76,-65,12,70,-44,-26,331,94,-6,-39,-53,119
-90,-50,40,70,-65,-5,329,96,-20,-31,-51,115
-70,-24,47,47,-58,11,338,93,-16,-22,-44,120
-107,-63,43,85,-75,-10,356,98,-5,-13,-40,120
-114,-69,44,91,-79,-12,366,111,7,-5,-34,122
-22,45,66,-12,-44,55,356,124,28,-2,-28,134
17,81,64,-49,-24,72,336,122,24,4,-25,131
12,68,55,-40,-21,61,334,113,2,3,-24,121
8,56,48,-32,-20,51,336,109,-6,-11,-26,114
-22,-12,10,17,-16,-1,335,99,-23,-34,-34,102
-44,-50,-6,47,-19,-27,336,93,-37,-43,-48,88
-56,-72,-16,64,-20,-44,334,107,-28,-39,-67,75
-108,-103,6,105,-56,-48,330,112,-45,-65,-78,49
-163,-149,15,156,-89,-67,323,108,-57,-78,-98,30
-98,-143,-45,120,-26,-93,319,107,-55,-73,-107,22
-61,-113,-52,88,-4,-82,312,104,-57,-84,-94,17
-124,-151,-27,137,-48,-89,308,106,-63,-92,-79,7
-96,-135,-39,116,-28,-87,301,126,-57,-88,-82,2
-87,-127,-40,107,-23,-83,297,130,-62,-91,-107,-6
-96,-126,-30,111,-33,-78,288,130,-59,-90,-98,-15
-82,-116,-35,99,-23,-75,283,131,-58,-88,-92,-19
-114,-132,-18,124,-48,-75,276,128,-68,-107,-92,-32
-92,-125,-33,108,-30,-79,268,135,-35,-92,-74,-17
-90,-146,-56,118,-17,-101,290,151,-56,-89,-99,-28
-134,-157,-23,146,-55,-90,259,165,-54,-106,-101,-45
-186,-168,18,177,-102,-74,308,122,-105,-155,-155,-87
-267,-192,75,229,-171,-58,416,130,-155,-201,-233,-155
-52,-38,14,45,-33,-12,219,226,46,61,42,53
729,471,-258,-600,493,106,-254,591,748,700,728,606
1028,554,-474,-790,751,40,-540,251,565,487,702,699
358,-33,-391,-162,374,-212,-418,-775,-761,-499,-143,119
-31,-320,-289,176,129,-304,-191,-681,-874,-646,-407,-172
-78,-297,-219,188,71,-258,5,-199,-399,-381,-259,-131
-105,-176,-71,141,-17,-123,148,17,-206,-222,-176,-104
-72,-86,-14,79,-28,-50,191,192,-41,-104,-99,-65
-130,-129,0,129,-64,-65,199,188,-49,-95,-87,-64
-103,-82,20,92,-61,-31,188,226,-10,-67,-66,-55
-119,-70,49,95,-84,-11,183,217,-24,-70,-69,-51
-156,-105,51,130,-103,-26,176,219,-12,-56,-63,-46
-142,-98,44,119,-93,-27,169,223,-7,-50,-59,-39
-148,-104,44,125,-96,-29,164,238,-8,-47,-57,-37
-125,-86,39,106,-82,-23,155,256,5,-40,-51,-32
-118,-78,41,98,-79,-18,149,244,3,-40,-47,-31
-109,-60,50,84,-79,-5,141,255,18,-33,-38,-26
-105,-38,66,72,-85,14,132,245,18,-32,-34,-26
-113,-42,71,78,-92,15,139,256,28,-26,-25,-22
-103,-32,71,68,-87,19,144,270,45,-18,-21,-13
-99,-25,75,62,-87,25,135,282,63,-7,-10,-3
-106,7,113,50,-110,60,130,318,84,13,6,12
-72,46,118,13,-95,82,122,338,106,45,27,33
-11,113,124,-51,-68,118,117,367,142,81,61,64
-14,138,152,-63,-83,145,110,398,179,111,87,86
15,167,151,-91,-69,159,102,439,230,157,131,126
31,205,175,-118,-72,190,94,480,277,210,185,172
53,248,195,-151,-71,222,86,499,307,244,214,191
82,296,214,-189,-66,255,79,531,350,278,251,227
79,289,210,-185,-66,249,65,544,376,314,285,241
117,310,194,-214,-39,252,47,537,369,315,280,225
139,325,186,-232,-23,255,35,528,355,286,264,217
134,302,168,-218,-17,235,27,496,318,244,230,202
74,211,137,-143,-32,174,21,452,252,192,169,164
53,148,95,-101,-21,121,14,407,189,138,120,112
-19,57,77,-19,-48,67,2,338,114,77,56,60
-55,11,66,22,-61,38,-9,279,50,21,-14,16
-52,2,54,25,-53,28,-24,249,11,-24,-41,-19
-97,-51,45,74,-71,-3,-48,236,-11,-55,-51,-39
-80,-46,34,63,-57,-6,-63,226,-22,-68,-73,-45
-121,-91,29,106,-75,-31,-70,214,-48,-77,-88,-55
-117,-91,26,103,-71,-33,-73,210,-57,-81,-90,-62
-95,-72,23,84,-59,-24,-77,210,-54,-80,-90,-59
-98,-80,18,89,-58,-31,-84,210,-60,-79,-90,-60
-70,-54,15,62,-42,-19,-90,210,-59,-88,-90,-70
-79,-68,11,74,-45,-29,-90,209,-61,-95,-90,-77
-112,-105,7,108,-59,-49,-91,214,-51,-87,-85,-74
-97,-95,2,96,-49,-46,-96,215,-51,-83,-85,-76
-58,-56,2,57,-30,-27,-94,215,-70,-77,-84,-75
-89,-66,23,77,-56,-21,-98,215,-65,-70,-80,-75
-115,-83,32,99,-73,-26,-103,215,-60,-80,-81,-91
-93,-68,24,80,-58,-22,-108,215,-55,-82,-78,-106
-81,-62,20,71,-50,-21,-115,214,-48,-71,-71,-110
-62,-48,13,55,-37,-17,-110,216,-45,-63,-67,-111
-55,-44,11,49,-33,-16,-105,213,-35,-55,-61,-108
-76,-35,41,55,-58,3,-102,219,-27,-47,-55,-105
-87,-29,58,57,-72,14,-94,225,-18,-39,-50,-105
-56,-9,46,32,-51,18,-106,231,-10,-31,-43,-103
-17,46,63,-15,-40,54,-122,248,0,-23,-33,-96
-27,52,79,-13,-53,65,-121,239,14,-20,-22,-89
6,70,64,-39,-29,67,-126,229,16,-17,-17,-82
42,97,55,-69,-6,76,-143,223,6,-15,-20,-76
46,88,42,-67,2,65,-152,213,-3,-12,-24,-71
39,47,8,-43,15,28,-172,208,-12,-9,-24,-76
-35,1,35,17,-35,18,-183,200,-38,-35,-45,-105
-79,-58,21,68,-50,-18,-176,193,-56,-65,-76,-140
-80,-103,-23,92,-28,-63,-175,185,-54,-75,-79,-156
-86,-87,-1,87,-42,-44,-171,181,-58,-75,-84,-154
-58,-92,-34,75,-12,-63,-169,174,-67,-75,-97,-155
-21,-80,-59,51,19,-70,-174,171,-62,-74,-93,-155
-46,-99,-53,73,4,-76,-176,165,-61,-76,-90,-155
-91,-145,-54,118,-18,-99,-173,162,-58,-70,-88,-156
-87,-135,-47,111,-20,-91,-183,157,-51,-80,-82,-153
-84,-125,-42,105,-21,-83,-191,139,-66,-94,-93,-160
-67,-107,-40,87,-13,-73,-190,133,-64,-85,-98,-163
-59,-91,-32,76,-13,-62,-190,112,-74,-96,-103,-163
-53,-84,-31,68,-11,-57,-191,122,-49,-82,-89,-151
-38,-81,-43,60,2,-61,-189,99,-70,-98,-100,-157
-44,-74,-30,59,-7,-52,-187,110,-39,-82,-81,-140
-99,-124,-25,112,-37,-74,-168,88,-63,-96,-103,-157
-211,-178,33,195,-122,-73,-69,41,-174,-181,-207,-252
-153,-104,49,128,-101,-28,-73,81,-119,-93,-138,-195
384,247,-137,-315,260,55,-446,333,368,418,390,221
1054,591,-463,-822,759,64,-876,542,879,748,827,616
772,215,-557,-493,665,-171,-932,-402,-188,-99,198,263
121,-296,-417,88,269,-356,-735,-991,-1079,-722,-434,-240
-1,-348,-347,175,173,-347,-487,-432,-577,-464,-338,-267
-36,-205,-169,121,67,-187,-261,-111,-273,-246,-203,-199
-28,-59,-31,44,2,-45,-157,106,-78,-69,-116,-148
-25,-57,-32,41,4,-44,-155,160,-28,-50,-98,-127
-49,-39,11,44,-30,-14,-148,155,-32,-48,-90,-120
-65,-37,28,51,-47,-4,-143,190,2,-26,-80,-114
-95,-70,25,82,-60,-23,-146,181,-14,-31,-79,-114
-70,-60,10,65,-40,-25,-144,199,14,-14,-67,-107
-46,-43,3,44,-25,-20,-145,181,4,-20,-66,-106
-74,-40,35,57,-54,-3,-145,212,22,-8,-59,-101
-89,-38,51,64,-70,6,-158,211,23,-7,-58,-95
-77,-27,50,52,-63,12,-161,218,21,-7,-55,-90
-86,-37,48,62,-67,6,-159,234,23,-13,-51,-84
-108,-49,59,78,-83,5,-159,209,12,-1,-50,-78
-62,10,72,26,-67,41,-166,239,42,40,-40,-74
5,79,74,-42,-35,76,-172,257,56,40,-16,-47
-46,53,99,-3,-73,76,-169,258,68,50,-3,-24
-41,65,106,-12,-74,85,-167,294,112,93,19,-8
3,98,96,-51,-47,96,-164,307,126,107,45,18
1,137,136,-69,-67,136,-165,350,172,150,94,56
36,192,156,-114,-60,174,-169,392,217,193,143,97
74,227,153,-151,-40,190,-170,430,260,234,180,136
90,280,190,-185,-50,235,-170,487,322,295,245,192
103,297,193,-200,-45,245,-170,511,353,319,274,219
141,315,174,-228,-17,244,-169,519,378,343,294,230
133,337,204,-235,-36,270,-172,522,386,353,308,241
116,324,208,-220,-46,265,-175,508,388,339,287,229
150,300,149,-225,0,224,-175,500,359,323,277,222
141,255,114,-198,13,184,-178,470,296,275,234,185
84,181,97,-133,-7,139,-181,387,226,197,151,115
56,114,58,-85,-1,86,-179,315,143,126,89,60
41,80,39,-61,0,59,-182,268,77,71,46,9
4,42,38,-23,-18,40,-190,222,23,26,8,-25
-20,7,27,6,-23,17,-190,196,-7,-16,-22,-48
-62,-37,24,49,-43,-7,-188,189,-22,-40,-46,-69
-94,-79,15,87,-54,-32,-199,185,-20,-40,-61,-68
-67,-58,9,62,-37,-24,-205,179,-10,-40,-66,-71
-68,-61,7,64,-37,-27,-198,174,-20,-38,-64,-79
-12,-66,-55,39,22,-60,-195,168,-26,-50,-65,-78
28,-36,-64,4,46,-50,-190,165,-34,-55,-65,-74
-63,-76,-13,69,-25,-44,-184,165,-41,-46,-65,-71
-97,-94,4,96,-50,-45,-190,162,-48,-45,-70,-66
-59,-79,-20,69,-19,-49,-193,159,-51,-38,-70,-66
-43,-83,-41,64,-1,-62,-204,160,-50,-36,-71,-71
-39,-69,-29,54,-5,-49,-207,163,-54,-37,-75,-70
-17,-61,-43,39,13,-52,-198,165,-55,-35,-75,-73
-80,-88,-7,84,-36,-47,-195,164,-55,-32,-73,-76
-113,-94,18,103,-65,-38,-179,165,-49,-29,-70,-75
-67,-60,8,63,-37,-26,-199,164,-58,-26,-67,-72
-78,-39,39,58,-58,0,-216,166,-58,-24,-64,-66
-64,-40,24,52,-44,-8,-204,170,-40,-21,-61,-62
-57,-53,4,55,-30,-24,-200,170,-31,-20,-59,-57
-61,-52,8,56,-34,-22,-192,170,-24,-20,-55,-53
-70,-43,27,57,-48,-8,-186,170,-21,-20,-47,-48
-76,-38,38,56,-56,0,-181,170,-14,-21,-42,-41
-61,-31,31,46,-46,0,-180,174,-9,-17,-33,-33
-52,-25,27,38,-39,1,-177,181,-4,3,-29,-25
-28,2,30,12,-29,16,-176,181,3,23,-18,-17
16,77,61,-47,-23,69,-171,174,7,29,14,-12
43,113,70,-78,-13,91,-210,167,15,25,20,-9
28,78,51,-53,-12,64,-244,161,8,16,6,-9
40,78,38,-59,1,58,-240,154,-7,12,-1,-3
-7,20,27,-7,-17,24,-249,149,-20,3,-15,-8
-84,-65,20,74,-52,-22,-220,144,-30,-10,-31,-29
-80,-70,10,75,-45,-30,-223,141,-53,-30,-52,-52
-76,-74,2,74,-38,-36,-259,137,-82,-59,-78,-81
-69,-70,-1,70,-34,-35,-259,134,-79,-60,-81,-87
-89,-113,-24,101,-33,-68,-261,129,-81,-55,-79,-84
-62,-114,-52,88,-5,-83,-259,127,-79,-54,-80,-85
-32,-85,-53,59,11,-69,-260,123,-81,-50,-80,-85
-73,-115,-43,94,-15,-79,-260,126,-79,-49,-79,-83
-72,-111,-39,92,-16,-75,-250,125,-62,-41,-75,-80
-69,-99,-30,84,-19,-64,-262,124,-68,-46,-73,-78
-77,-101,-24,90,-26,-63,-280,129,-88,-63,-69,-74
-47,-87,-40,68,-4,-63,-281,125,-95,-69,-68,-74
-7,-86,-79,47,36,-82,-280,138,-75,-58,-62,-66
-51,-120,-69,86,10,-94,-298,130,-98,-70,-61,-79
-32,-91,-58,62,13,-74,-310,154,-61,-48,-58,-68
-80,-131,-51,106,-14,-91,-275,117,-107,-80,-113,-96
-248,-181,67,214,-158,-57,-195,92,-176,-156,-192,-183
-71,-29,42,50,-56,6,-302,159,-50,27,-20,-47
642,376,-266,-508,454,54,-769,529,590,597,594,439
1120,536,-583,-828,851,-23,-1119,421,673,552,703,612
576,6,-570,-291,573,-281,-1080,-730,-664,-417,-89,97
69,-358,-427,144,248,-392,-877,-871,-1012,-696,-434,-236
21,-281,-302,131,162,-292,-613,-263,-451,-376,-277,-183
-67,-165,-98,116,16,-131,-452,-33,-232,-188,-163,-117
-56,-100,-44,78,-6,-72,-419,169,-48,-57,-76,-62
-68,-113,-45,91,-11,-78,-408,174,-56,-49,-78,-53
-69,-94,-26,82,-22,-60,-411,202,-27,-29,-60,-48
-85,-105,-20,95,-32,-62,-410,195,-25,-37,-53,-42
-74,-75,0,74,-36,-37,-409,190,-24,-36,-45,-37
-84,-70,14,77,-49,-27,-411,238,-7,-33,-39,-31
-124,-99,25,112,-74,-36,-415,230,-12,-37,-37,-25
-81,-71,10,76,-45,-31,-437,239,4,-27,-30,-37
-86,-60,26,73,-56,-17,-447,232,2,-25,-28,-30
-84,-40,44,61,-64,2,-442,237,12,-18,-21,-12
-85,-52,33,68,-59,-10,-457,257,17,-14,-14,-10
-87,-22,64,54,-75,21,-466,260,18,-7,-4,-2
-41,38,78,1,-60,58,-465,263,31,-2,3,4
-55,18,73,18,-64,45,-464,283,52,13,18,19
-66,11,77,27,-72,44,-467,284,64,24,32,30
7,80,72,-44,-33,76,-460,309,102,56,59,55
2,103,101,-53,-50,102,-477,350,135,97,103,92
-6,124,130,-60,-69,127,-511,372,170,122,129,116
35,163,127,-99,-46,145,-509,424,230,171,175,161
59,208,149,-134,-45,178,-516,466,279,215,223,203
91,281,190,-187,-50,236,-528,501,317,251,254,230
105,297,192,-201,-44,244,-543,535,349,294,298,269
153,336,184,-245,-16,260,-552,534,366,301,321,276
159,337,178,-248,-10,257,-559,522,359,292,329,261
140,314,174,-227,-18,244,-583,517,352,299,317,253
146,275,130,-211,7,202,-588,506,324,266,273,226
98,201,103,-150,-3,152,-601,464,262,187,218,179
88,174,86,-132,1,130,-622,406,193,123,154,130
102,110,7,-106,47,58,-628,349,120,71,102,80
21,31,11,-26,5,21,-644,296,55,21,55,31
-5,2,7,2,-6,5,-657,254,16,-19,16,-9
41,3,-37,-22,39,-17,-664,230,-8,-62,-15,-49
6,-24,-30,9,18,-27,-675,230,-24,-81,-26,-66
-23,-69,-46,46,12,-58,-687,230,-13,-80,-24,-74
-30,-69,-39,49,5,-54,-709,230,-23,-79,-25,-91
-43,-59,-17,51,-13,-38,-720,230,-49,-81,-24,-98
-22,-80,-58,51,18,-69,-734,231,-50,-103,-39,-124
-6,-77,-71,42,33,-74,-732,235,-38,-106,-29,-123
-20,-75,-55,48,18,-64,-733,234,-45,-99,-27,-121
-37,-89,-53,63,9,-71,-755,237,-70,-100,-55,-148
-39,-79,-40,59,1,-59,-753,240,-65,-92,-53,-138
-43,-81,-38,63,-3,-59,-748,239,-61,-103,-49,-151
-47,-74,-27,61,-10,-50,-746,240,-50,-120,-46,-147
-36,-75,-39,56,2,-57,-740,239,-60,-113,-41,-144
-16,-61,-45,39,14,-52,-738,246,-68,-105,-39,-183
-21,-14,8,18,-15,-3,-731,251,-40,-93,-32,-177
-43,-23,20,32,-31,-1,-721,250,-49,-76,-23,-170
-64,-47,17,55,-40,-15,-717,249,-52,-72,-20,-170
-20,-43,-23,32,2,-32,-701,262,-47,-46,-5,-158
-5,-55,-50,30,23,-53,-722,288,-47,-51,-9,-170
-103,-91,13,97,-58,-39,-757,293,-44,-89,-39,-190
-98,-84,14,91,-55,-35,-754,282,-44,-83,-39,-191
-62,-82,-19,72,-21,-50,-754,279,-39,-80,-32,-188
-52,-75,-24,64,-14,-49,-755,269,-37,-78,-28,-185
-36,-72,-36,54,0,-54,-755,266,-34,-74,-21,-185
-15,-71,-55,43,20,-63,-752,270,-30,-74,-16,-183
34,-17,-50,-8,42,-33,-746,269,-31,-67,-11,-179
2,-24,-26,11,15,-25,-737,292,-18,-66,-7,-177
1,-11,-12,5,7,-11,-734,292,-7,-61,-4,-173
24,14,-11,-19,17,1,-722,296,16,-57,-1,-171
53,46,-8,-50,30,19,-748,292,22,-55,5,-168
39,52,13,-46,12,32,-799,248,-19,-59,5,-167
0,-2,-2,1,1,-2,-795,239,-11,-61,31,-160
62,15,-47,-38,54,-16,-815,233,-18,-58,20,-168
29,-30,-59,1,44,-45,-797,225,-57,-70,-15,-193
-32,-74,-43,53,6,-58,-770,216,-50,-74,-25,-203
-31,-99,-69,65,19,-84,-793,198,-59,-80,-45,-218
-10,-111,-101,61,45,-106,-785,189,-71,-95,-44,-230
6,-83,-89,39,48,-86,-783,176,-71,-95,-51,-230
-49,-141,-92,95,22,-116,-779,169,-68,-94,-57,-228
-83,-168,-85,126,1,-126,-775,146,-66,-96,-52,-225
-68,-154,-86,112,9,-120,-773,122,-64,-94,-50,-224
-76,-154,-78,116,1,-116,-766,107,-67,-95,-46,-223
-87,-145,-58,117,-14,-101,-762,92,-73,-96,-46,-215
-36,-140,-105,88,35,-122,-758,82,-65,-93,-39,-210
-39,-138,-99,89,31,-118,-754,49,-81,-98,-43,-230
-61,-125,-65,93,2,-95,-749,37,-65,-105,-35,-227
-53,-127,-75,90,11,-101,-742,-12,-87,-122,-47,-234
-17,-111,-94,64,39,-102,-719,-23,-62,-99,-32,-225
-37,-114,-77,76,20,-95,-675,-43,-87,-114,-53,-238
-220,-186,34,203,-126,-76,-573,-79,-144,-168,-148,-323
-173,-149,24,161,-99,-62,-612,-102,-98,-89,-81,-271
500,227,-273,-363,386,-23,-993,151,387,397,444,147
1166,558,-608,-862,887,-25,-1405,254,741,601,780,481
788,202,-585,-495,686,-191,-1423,-766,-376,-221,137,102
141,-286,-427,73,284,-356,-1181,-1215,-1039,-686,-371,-336
2,-349,-352,174,177,-350,-957,-695,-579,-459,-286,-371
1,-184,-186,92,94,-185,-736,-401,-310,-257,-170,-309
-13,-102,-88,57,38,-95,-623,-231,-103,-108,-69,-250
-83,-148,-64,116,-10,-106,-600,-243,-78,-98,-56,-234
-72,-119,-48,96,-12,-83,-584,-238,-55,-74,-43,-214
-69,-122,-52,96,-8,-87,-589,-304,-42,-68,-40,-236
-78,-117,-39,97,-19,-78,-580,-389,-48,-59,-36,-250
-59,-102,-43,80,-7,-72,-581,-445,-27,-47,-26,-232
-71,-101,-30,86,-21,-65,-562,-526,-34,-71,-27,-227
-46,-83,-37,65,-4,-60,-534,-526,-13,-62,-15,-215
-56,-101,-45,79,-5,-73,-509,-534,-14,-59,-13,-214
-71,-88,-16,80,-27,-52,-489,-556,1,-50,-1,-210
-60,-74,-14,67,-22,-44,-503,-573,5,-44,13,-206
-65,-71,-6,68,-29,-38,-491,-592,12,-38,8,-204
-31,-67,-35,49,2,-51,-459,-615,17,-15,24,-189
-34,-58,-25,46,-4,-41,-439,-608,30,5,55,-177
-49,-20,29,35,-39,4,-430,-600,56,14,50,-158
13,12,-1,-13,7,5,-424,-594,65,32,65,-133
53,69,16,-61,18,42,-417,-597,107,75,105,-113
16,77,61,-47,-23,68,-410,-576,147,100,132,-85
33,107,74,-70,-20,90,-405,-569,189,151,188,-46
114,208,94,-161,10,151,-399,-577,245,208,241,0
109,198,88,-154,10,143,-396,-559,274,225,269,41
130,238,108,-184,11,173,-391,-556,309,259,303,63
162,281,119,-222,21,200,-387,-554,328,278,317,75
164,275,110,-220,27,192,-381,-554,346,299,345,107
173,290,117,-232,28,203,-362,-555,345,298,355,118
169,242,73,-206,48,158,-349,-552,321,268,317,81
160,207,47,-184,56,127,-347,-576,279,218,270,32
103,130,26,-117,38,78,-343,-655,200,137,207,-17
77,71,-5,-74,41,33,-339,-733,135,88,148,-54
93,56,-37,-74,65,9,-336,-786,79,34,96,-99
56,-4,-60,-26,58,-31,-332,-840,23,-14,58,-148
-33,-71,-39,52,3,-55,-328,-875,-12,-31,33,-149
-44,-101,-56,73,6,-78,-321,-925,-48,-49,20,-152
19,-57,-76,19,48,-66,-319,-949,-64,-49,14,-181
8,-57,-65,25,37,-61,-312,-941,-62,-60,5,-186
-54,-106,-53,80,0,-79,-312,-969,-88,-93,-3,-184
-53,-116,-63,84,5,-89,-324,-981,-96,-94,-9,-190
-29,-109,-80,69,26,-94,-320,-971,-86,-89,-13,-190
-11,-79,-68,45,29,-74,-314,-970,-85,-87,-16,-189
-26,-99,-73,63,24,-86,-310,-993,-78,-82,-19,-196
-52,-142,-89,97,19,-115,-303,-1008,-75,-79,-24,-199
-38,-127,-90,82,26,-108,-299,-1002,-76,-76,-24,-192
-42,-128,-85,86,22,-107,-294,-1004,-74,-72,-19,-187
-40,-124,-84,83,22,-104,-296,-1004,-76,-70,-14,-181
-45,-125,-79,85,17,-102,-292,-1010,-74,-65,-10,-176
-40,-121,-81,81,21,-101,-289,-1012,-76,-66,-5,-178
-33,-118,-85,76,26,-101,-291,-1025,-92,-82,0,-192
-37,-122,-85,80,24,-103,-285,-1025,-75,-66,6,-193
-20,-105,-85,63,33,-95,-280,-1004,-57,-47,21,-185
-24,-108,-84,67,31,-96,-272,-1000,-53,-44,26,-180
31,-55,-86,13,59,-71,-272,-998,-46,-35,23,-175
32,-42,-74,5,53,-58,-265,-994,-38,-29,42,-165
23,-29,-52,3,38,-40,-267,-994,-34,-23,58,-149
89,57,-32,-73,61,12,-260,-985,-25,-16,62,-138
73,51,-22,-61,47,14,-260,-1006,-27,-10,56,-133
92,62,-29,-77,60,17,-283,-1039,-42,-1,47,-136
82,53,-29,-67,55,12,-271,-1048,-35,3,36,-134
62,2,-60,-32,61,-29,-292,-1040,-54,-16,33,-137
53,-47,-101,-3,77,-74,-286,-1044,-76,-60,30,-167
-12,-112,-100,62,44,-106,-255,-1066,-91,-84,5,-192
-35,-133,-98,84,32,-116,-262,-1063,-98,-84,-21,-214
-51,-146,-95,99,23,-121,-259,-1070,-92,-96,-32,-215
-51,-146,-94,99,22,-120,-260,-1079,-107,-102,-28,-208
-49,-144,-96,97,24,-120,-261,-1090,-111,-99,-38,-210
-50,-144,-94,97,22,-119,-273,-1106,-109,-97,-38,-201
-49,-145,-96,98,24,-121,-273,-1104,-112,-95,-32,-220
-27,-121,-94,75,34,-107,-265,-1103,-107,-94,-23,-212
-23,-120,-96,72,37,-108,-264,-1106,-113,-102,-17,-187
-57,-150,-93,104,18,-121,-257,-1103,-112,-109,-40,-206
-84,-175,-91,130,4,-133,-253,-1093,-136,-131,-60,-212
-84,-164,-81,124,-1,-122,-239,-1057,-131,-122,-53,-201
-71,-151,-80,111,5,-115,-220,-1042,-120,-112,-54,-174
-55,-162,-107,108,26,-134,-205,-1040,-129,-112,-61,-131
-50,-156,-106,103,28,-131,-171,-1014,-95,-86,-41,-92
-132,-202,-71,167,-30,-136,-131,-1033,-165,-170,-120,-130
-194,-202,-8,198,-93,-105,-63,-1025,-187,-204,-180,-159
90,1,-89,-45,89,-44,-218,-952,42,99,138,108
862,442,-420,-652,641,11,-690,-660,688,666,791,665
1041,485,-556,-763,798,-35,-900,-1110,332,363,667,701
323,-56,-379,-133,351,-217,-725,-2052,-922,-571,-183,109
-18,-375,-357,197,170,-365,-510,-1858,-890,-662,-406,-141
-42,-330,-288,186,123,-309,-320,-1423,-461,-398,-242,-75
-96,-207,-111,152,8,-159,-166,-1188,-249,-197,-123,-2
-48,-171,-123,110,38,-147,-94,-1018,-77,-82,-53,51
-38,-164,-126,102,45,-145,-73,-1029,-86,-87,-52,47
-13,-117,-104,66,46,-111,-68,-990,-46,-69,-34,52
-10,-111,-102,61,46,-106,-67,-1022,-82,-100,-40,49
-21,-105,-83,64,31,-94,-63,-1008,-66,-88,-29,76
-24,-105,-81,65,29,-93,-60,-998,-62,-86,-27,91
-34,-97,-63,66,14,-80,-60,-992,-58,-80,-23,87
-39,-92,-53,66,7,-72,-60,-976,-46,-72,-16,84
-52,-127,-75,90,12,-101,-60,-975,-47,-71,-15,81
-38,-115,-77,77,20,-96,-60,-960,-32,-58,-7,76
-10,-78,-68,44,30,-73,-60,-956,-32,-56,-6,75
1,-65,-65,32,33,-65,-60,-943,-16,-42,2,107
6,-51,-58,23,32,-54,-59,-935,-17,-41,6,118
-1,-55,-54,28,27,-54,-62,-923,12,-18,17,112
-9,-29,-20,20,6,-25,-56,-916,47,28,52,129
23,36,12,-30,5,24,-66,-891,50,43,71,153
41,73,32,-57,4,52,-81,-844,90,71,101,182
27,86,59,-57,-16,72,-79,-829,131,116,145,216
66,133,67,-100,-1,100,-82,-807,180,164,186,253
124,214,90,-169,16,152,-85,-763,250,222,243,301
118,248,130,-183,-6,189,-85,-736,279,259,280,342
134,271,138,-203,-2,204,-80,-720,299,284,303,353
178,301,123,-239,27,212,-94,-714,329,298,319,366
163,275,111,-219,26,193,-106,-709,330,288,313,367
166,271,105,-219,30,188,-111,-705,303,272,302,348
162,245,84,-204,39,164,-122,-730,272,244,277,311
106,151,44,-129,31,97,-112,-760,212,190,228,244
87,82,-5,-84,46,38,-109,-803,130,115,155,184
60,41,-19,-50,39,11,-99,-846,72,48,84,133
12,3,-9,-7,10,-3,-111,-872,23,2,37,85
8,-26,-33,9,21,-29,-138,-912,-28,-34,13,63
-1,-46,-46,24,23,-46,-140,-916,-48,-56,-2,59
-36,-97,-62,66,13,-79,-161,-920,-61,-76,-16,54
-41,-112,-70,77,15,-91,-173,-943,-92,-87,-22,48
-26,-90,-64,58,19,-77,-171,-957,-102,-83,-29,43
-19,-79,-60,49,21,-69,-177,-966,-99,-89,-37,37
-23,-87,-64,55,20,-75,-184,-964,-101,-95,-44,35
-35,-119,-84,77,25,-101,-193,-965,-100,-92,-49,35
-32,-112,-80,72,24,-96,-194,-965,-100,-88,-44,35
-26,-98,-72,62,24,-85,-202,-964,-95,-84,-42,35
-27,-92,-66,60,20,-78,-217,-961,-90,-81,-38,35
-20,-80,-60,50,20,-70,-215,-954,-86,-76,-35,35
-34,-87,-52,61,9,-69,-232,-949,-81,-86,-53,35
-51,-103,-51,77,0,-77,-243,-942,-77,-92,-56,35
-27,-75,-49,51,11,-62,-238,-922,-71,-89,-39,35
-25,-71,-46,48,11,-58,-251,-904,-71,-88,-36,35
-13,-73,-60,43,24,-67,-266,-894,-60,-83,-19,35
-9,-67,-58,38,25,-62,-293,-885,-67,-87,-19,35
-40,-99,-59,70,10,-79,-313,-874,-68,-59,-33,35
-40,-66,-26,53,-7,-46,-306,-865,-47,-36,-5,36
-22,-29,-7,26,-7,-18,-295,-853,-42,-40,17,33
31,-1,-32,-15,32,-16,-292,-846,-32,-29,27,53
39,33,-5,-36,22,14,-278,-835,-15,-25,33,68
31,71,40,-51,-5,55,-292,-831,-4,-16,25,64
40,80,40,-61,0,60,-350,-857,-14,-19,22,66
46,71,25,-59,10,48,-372,-867,-33,-21,17,64
81,74,-7,-78,44,33,-382,-870,-60,-31,12,66
48,7,-42,-27,45,-17,-385,-880,-75,-52,8,58
8,-50,-58,22,33,-54,-378,-885,-73,-48,-15,40
-23,-98,-76,61,27,-87,-377,-887,-88,-72,-46,26
-51,-126,-76,89,13,-101,-371,-905,-91,-84,-50,18
-16,-90,-74,54,29,-82,-370,-917,-88,-74,-43,15
-8,-83,-75,46,34,-79,-364,-910,-93,-76,-43,9
-40,-137,-97,89,28,-116,-357,-908,-84,-69,-36,7
-42,-144,-101,93,30,-122,-350,-907,-106,-71,-36,-1
-28,-112,-85,70,29,-98,-345,-901,-117,-75,-53,-8
-36,-118,-82,77,23,-100,-336,-903,-115,-83,-63,-22
-30,-105,-75,68,23,-90,-340,-892,-104,-74,-51,-26
-31,-106,-75,69,22,-90,-345,-896,-103,-76,-54,-26
-27,-95,-68,61,21,-81,-335,-888,-97,-70,-46,-26
-28,-95,-67,62,20,-81,-334,-883,-86,-67,-44,-22
-19,-81,-61,50,21,-71,-322,-890,-94,-82,-33,-31
7,-53,-60,23,34,-56,-326,-876,-63,-60,-7,-13
-115,-154,-39,135,-38,-97,-247,-923,-150,-127,-111,-79
-237,-205,32,220,-134,-86,-143,-900,-190,-175,-185,-151
51,34,-17,-43,35,8,-355,-802,20,115,106,79
830,519,-311,-674,570,104,-818,-422,731,742,778,620
1069,523,-546,-795,807,-12,-1085,-784,475,450,689,670
419,-61,-480,-179,449,-270,-952,-1833,-873,-548,-173,78
25,-349,-374,163,200,-361,-711,-1690,-900,-618,-382,-176
1,-257,-258,128,130,-257,-494,-1207,-423,-330,-218,-116
-18,-119,-102,69,42,-110,-316,-1002,-217,-158,-117,-69
-32,-70,-38,51,3,-53,-282,-860,-60,-52,-48,-31
-52,-80,-29,66,-11,-54,-277,-868,-81,-57,-47,-29
-66,-95,-28,81,-19,-61,-263,-812,-20,-29,-27,-17
-83,-84,-1,83,-41,-42,-257,-829,-38,-41,-29,-19
-73,-87,-14,80,-29,-50,-245,-803,-37,-29,-18,-10
-44,-90,-46,68,1,-68,-241,-781,-16,-28,-12,-10
-21,-51,-30,36,5,-40,-229,-782,-6,-25,-8,-10
-22,-51,-30,37,4,-41,-225,-785,-9,-18,-16,-10
-22,-41,-19,32,-1,-30,-214,-789,-26,-14,-27,-21
-38,-26,12,32,-25,-7,-207,-761,-30,-4,-32,-13
-62,-56,5,59,-33,-25,-199,-752,-21,-1,-21,-2
-26,-22,4,24,-15,-9,-181,-747,4,13,6,7
-7,9,15,-1,-11,12,-191,-741,22,21,9,22
-49,8,56,20,-53,32,-186,-729,32,36,19,26
-12,58,71,-23,-42,64,-170,-705,59,74,58,49
17,83,66,-50,-25,74,-170,-671,100,105,91,87
16,103,88,-60,-36,95,-156,-621,132,134,117,103
38,139,101,-88,-32,119,-147,-564,178,183,158,137
66,195,129,-131,-32,162,-140,-516,221,224,201,179
100,235,135,-168,-18,185,-136,-473,276,271,246,215
115,303,187,-209,-36,245,-134,-444,327,316,288,255
153,359,206,-256,-27,282,-129,-446,356,338,313,277
155,331,176,-243,-10,253,-126,-443,370,361,330,289
173,362,188,-268,-8,275,-122,-441,367,358,333,288
174,342,168,-258,3,255,-120,-438,360,344,322,274
144,270,126,-207,9,197,-116,-441,313,316,296,248
137,222,85,-180,26,154,-114,-493,244,246,232,195
87,143,57,-116,15,100,-110,-565,173,181,166,141
69,101,32,-85,19,66,-107,-654,109,125,110,96
73,87,14,-80,29,50,-103,-711,61,71,60,54
59,60,2,-60,28,31,-100,-738,10,43,22,16
31,24,-7,-27,19,9,-95,-751,-23,27,-7,-8
-18,-34,-15,26,-1,-24,-97,-761,-42,12,-17,-25
-21,-46,-25,33,2,-35,-104,-788,-63,4,-25,-38
-7,-39,-33,23,13,-36,-97,-786,-61,-4,-34,-25
-12,-65,-53,39,21,-59,-89,-779,-51,-11,-35,-10
36,-16,-52,-10,44,-34,-81,-774,-47,-14,-35,-12
29,-7,-36,-11,33,-21,-74,-768,-37,-19,-35,-20
-27,-58,-31,42,2,-44,-68,-763,-39,-24,-35,-26
-24,-51,-27,38,1,-39,-62,-760,-45,-25,-36,-33
7,-16,-23,5,16,-20,-58,-759,-49,-25,-33,-39
28,8,-20,-18,24,-6,-51,-761,-60,-25,-30,-37
0,-15,-15,8,8,-15,-47,-759,-55,-25,-30,-29
-46,-59,-13,53,-16,-36,-41,-760,-50,-25,-27,-23
-15,-40,-25,28,5,-32,-34,-782,-45,-26,-24,-16
0,-32,-32,16,17,-32,-28,-769,-37,-13,-26,-9
-2,-31,-29,16,14,-30,-8,-755,-36,7,-15,-4
66,37,-29,-51,48,4,10,-762,-19,13,-3,3
33,9,-25,-20,29,-8,19,-758,-25,20,4,7
-2,-27,-25,15,12,-26,31,-760,-44,24,11,15
14,-4,-18,-4,16,-11,54,-761,-31,32,16,17
-7,22,30,-8,-18,26,89,-750,-19,43,23,21
6,51,45,-29,-20,48,113,-710,8,52,28,40
4,69,65,-37,-31,67,134,-679,22,77,49,65
32,109,78,-71,-23,93,139,-707,10,82,68,89
85,120,35,-102,24,77,121,-728,5,68,57,83
56,103,48,-80,4,75,112,-721,-24,55,44,75
66,89,23,-78,21,56,116,-708,-38,29,28,69
40,35,-5,-38,22,15,137,-705,-34,9,7,60
-32,-42,-9,37,-11,-25,147,-758,-63,2,-7,55
-37,-75,-38,56,1,-57,144,-780,-79,-8,-17,45
-49,-86,-38,68,-5,-62,146,-769,-70,-13,-27,40
-13,-85,-72,49,30,-79,144,-772,-72,-15,-31,32
10,-74,-84,32,47,-79,146,-764,-65,-20,-31,25
2,-75,-77,37,40,-76,144,-765,-65,-25,-45,17
21,-61,-83,20,52,-72,144,-760,-69,-28,-46,18
3,-75,-78,36,41,-76,137,-750,-68,-34,-43,23
-12,-91,-79,52,34,-85,136,-749,-74,-35,-42,24
-2,-40,-37,22,18,-38,130,-734,-64,-26,-37,26
-26,-46,-21,36,-2,-34,128,-729,-79,-32,-43,23
-28,-92,-64,60,18,-78,125,-702,-59,-17,-29,29
-34,-108,-74,71,20,-91,117,-712,-75,-30,-40,19
-32,-88,-56,60,12,-72,129,-694,-56,-10,-22,29
-55,-101,-46,78,-4,-73,119,-695,-80,-40,-50,-2
-162,-150,13,156,-87,-68,223,-696,-164,-128,-154,-75
-157,-105,52,131,-104,-27,245,-645,-128,-56,-103,-37
360,241,-119,-300,239,61,-148,-450,305,414,391,339
1102,630,-472,-866,787,79,-586,-205,877,787,860,755
874,284,-589,-579,732,-152,-678,-1070,-128,-19,270,426
205,-250,-455,23,330,-352,-510,-1727,-1093,-694,-371,-73
67,-288,-355,111,211,-321,-266,-1166,-622,-438,-289,-116
13,-150,-162,69,88,-156,-39,-792,-292,-198,-158,-38
-28,-59,-31,44,2,-45,61,-594,-85,-27,-61,29
-55,-66,-11,60,-22,-38,70,-548,-38,-6,-46,37
-50,-43,7,46,-28,-18,79,-556,-47,-1,-37,46
10,-9,-20,0,15,-14,70,-530,-14,22,-26,62
-40,-41,-1,41,-19,-21,62,-549,-34,21,-26,54
-83,-51,32,66,-57,-9,53,-525,-4,54,-12,51
-58,-25,33,41,-45,4,44,-537,-15,46,-13,46
-12,19,31,-3,-22,24,35,-520,2,47,-2,40
4,27,24,-16,-11,25,26,-499,2,44,-1,44
-18,2,20,8,-19,10,7,-483,10,37,10,68
-25,6,31,9,-28,18,-8,-480,23,49,1,71
-6,25,31,-10,-19,28,-1,-476,41,69,17,74
13,77,64,-45,-26,70,-7,-471,57,74,36,76
-16,83,99,-34,-58,91,-15,-466,67,84,38,85
-37,59,96,-11,-67,77,-21,-453,84,97,65,114
-18,70,89,-27,-54,79,-30,-428,100,115,62,113
-10,114,124,-52,-67,118,-35,-391,139,155,92,141
4,159,154,-82,-75,156,-40,-349,178,184,132,173
35,190,154,-113,-60,172,-42,-303,226,228,175,208
100,278,177,-189,-39,227,-44,-252,280,282,231,257
108,299,191,-204,-41,244,-54,-209,320,317,259,287
126,325,199,-226,-37,262,-67,-177,366,358,308,326
175,387,212,-281,-19,299,-79,-148,378,377,326,344
164,381,216,-273,-26,298,-99,-129,399,397,344,367
185,380,195,-283,-5,287,-102,-104,414,408,359,377
164,341,178,-253,-7,259,-116,-134,374,370,321,342
146,279,133,-212,6,205,-132,-189,320,314,271,290
124,224,100,-174,12,162,-141,-226,255,252,213,241
93,162,69,-128,12,115,-144,-290,171,179,144,187
85,114,29,-100,28,71,-133,-334,104,119,79,150
32,78,45,-55,-7,61,-176,-384,60,81,43,125
28,49,20,-38,4,34,-200,-412,23,58,24,90
-1,27,28,-13,-15,28,-192,-411,12,43,7,81
-3,15,18,-6,-11,16,-195,-411,6,30,-4,78
13,-5,-18,-3,15,-11,-188,-401,-1,24,-5,73
21,15,-6,-17,13,4,-208,-396,-7,17,-5,69
30,28,-2,-29,16,13,-222,-388,-14,11,-10,65
-44,-32,12,38,-28,-9,-218,-384,-20,4,-11,59
-40,-63,-23,52,-8,-43,-215,-378,-21,1,-9,54
-32,-38,-6,35,-13,-22,-214,-376,-20,10,-5,46
-2,-3,-1,3,0,-2,-206,-367,-20,20,-5,49
-14,-19,-5,17,-4,-12,-227,-379,-20,30,-3,81
-83,-39,44,61,-64,3,-257,-413,-20,32,0,86
-40,-21,19,30,-29,-1,-254,-415,-17,29,0,78
-31,-11,19,21,-25,4,-259,-414,-15,30,-4,78
-3,20,23,-9,-13,21,-259,-412,-16,25,-5,70
-32,-17,15,24,-23,-1,-268,-409,-15,25,-5,72
-63,-37,26,50,-45,-5,-282,-411,-16,26,-5,73
1,33,32,-18,-16,32,-283,-403,-14,24,-5,80
5,44,38,-25,-17,41,-289,-399,-8,26,-4,92
21,25,4,-23,8,14,-291,-393,-1,22,2,84
23,50,27,-37,-2,38,-307,-385,6,38,9,97
23,86,63,-55,-20,74,-311,-372,11,60,17,114
21,71,50,-46,-14,60,-310,-357,25,54,21,106
32,112,79,-72,-24,95,-318,-350,36,66,36,125
65,150,85,-108,-10,117,-312,-336,28,76,42,150
48,127,79,-88,-16,103,-336,-344,23,66,30,143
66,124,58,-95,4,91,-366,-370,14,63,23,132
67,87,20,-77,23,53,-361,-363,-15,52,12,123
10,33,23,-22,-7,28,-357,-354,-26,36,4,112
-10,-21,-11,16,1,-16,-355,-351,-23,20,-8,106
24,-16,-40,-4,32,-27,-349,-337,-33,-3,-19,99
31,-3,-34,-13,32,-19,-352,-342,-41,-15,-31,91
-30,-55,-24,43,-3,-40,-366,-365,-55,-16,-46,83
-59,-74,-15,67,-22,-44,-372,-365,-53,-14,-44,80
-2,-54,-51,28,25,-52,-373,-363,-48,-16,-41,80
5,-57,-63,26,34,-60,-377,-368,-47,-15,-38,80
-37,-82,-45,60,4,-63,-380,-360,-38,-15,-35,80
-38,-77,-39,57,1,-57,-379,-379,-47,-16,-35,79
-41,-70,-29,56,-6,-49,-397,-393,-45,-12,-27,81
-51,-72,-21,62,-15,-46,-407,-380,-56,-20,-34,73
-28,-60,-33,44,3,-46,-403,-353,-35,-8,-24,77
-35,-73,-38,54,2,-55,-407,-377,-53,-23,-37,68
-49,-69,-20,59,-14,-44,-412,-361,-31,-3,-22,73
-77,-77,1,77,-38,-38,-396,-378,-52,-33,-46,58
-175,-119,56,146,-115,-31,-276,-415,-146,-105,-138,-10
-128,-57,71,92,-100,7,-279,-402,-114,-24,-84,32
411,281,-130,-346,270,75,-677,-171,352,438,404,419
1105,601,-504,-853,804,48,-1114,66,844,737,809,790
850,254,-596,-552,723,-171,-1170,-886,-212,-84,193,444
171,-258,-429,44,300,-344,-981,-1498,-1067,-665,-377,-26
54,-273,-326,110,190,-299,-740,-927,-578,-404,-294,-57
20,-143,-163,62,92,-153,-522,-583,-272,-186,-165,22
-52,-87,-35,70,-8,-61,-444,-371,-64,-35,-55,103
-63,-58,5,61,-33,-26,-431,-331,-14,-7,-49,121
-76,-46,30,61,-53,-8,-417,-325,3,39,-19,126
-49,-18,31,33,-40,7,-422,-299,41,56,-11,140
-28,4,32,12,-30,18,-416,-311,17,35,-20,130
-4,39,43,-18,-23,41,-415,-283,32,44,-10,139
-17,26,44,-5,-31,34,-415,-291,2,21,-20,131
-41,-9,32,24,-36,11,-414,-271,41,34,-9,114
3,69,66,-36,-32,68,-415,-270,78,73,-6,142
17,85,69,-51,-26,77,-414,-260,80,84,6,153
14,76,61,-45,-24,68,-415,-250,80,77,11,143
32,89,57,-60,-13,73,-415,-235,80,82,21,145
14,80,67,-48,-27,73,-414,-211,79,78,30,139
-12,90,103,-39,-58,97,-409,-187,85,83,32,142
-14,65,78,-26,-46,71,-406,-153,107,97,52,153
6,114,107,-60,-51,110,-402,-122,132,122,71,169
4,165,160,-85,-78,162,-398,-78,171,159,107,206
35,206,171,-121,-68,188,-393,-35,213,202,150,245
95,260,165,-177,-35,212,-404,-11,247,239,182,265
112,274,162,-193,-25,217,-422,26,298,277,225,306
121,320,199,-221,-40,259,-425,78,350,325,270,346
142,349,207,-246,-33,277,-432,112,387,357,301,365
168,383,215,-276,-24,299,-418,132,415,383,324,392
178,385,208,-282,-15,297,-434,163,429,399,349,410
193,374,181,-284,6,277,-463,166,421,383,339,400
185,368,182,-277,1,275,-453,135,392,358,306,371
157,303,145,-230,6,224,-450,97,340,310,261,328
128,243,115,-186,6,179,-446,47,273,242,191,267
101,193,92,-147,4,142,-440,-13,191,182,132,213
66,140,73,-103,-4,106,-442,-79,120,120,72,162
35,96,62,-66,-14,79,-445,-125,79,66,28,118
80,81,1,-81,39,40,-444,-143,53,40,4,102
36,72,36,-54,0,54,-445,-146,40,30,-11,88
3,57,54,-31,-26,55,-444,-145,28,18,-21,80
-7,-4,3,5,-6,0,-445,-145,22,7,-35,79
-61,-18,43,40,-52,12,-455,-145,18,1,-42,75
5,43,37,-24,-16,40,-452,-146,13,-6,-35,73
14,22,9,-18,2,15,-448,-142,9,-12,-18,70
-28,-17,11,22,-19,-3,-444,-130,4,-20,-35,68
-60,-36,24,47,-42,-6,-440,-117,0,-25,-63,64
-74,-35,39,54,-56,2,-437,-110,0,-20,-54,62
-60,-32,29,46,-44,-1,-429,-110,-1,-20,-50,59
-26,-1,26,13,-26,12,-421,-110,-5,-19,-47,56
2,39,37,-21,-18,38,-413,-110,-5,-15,-40,54
-69,-15,53,42,-61,19,-406,-111,-3,-15,-41,50
-53,-6,47,29,-50,20,-394,-106,2,-13,-39,50
-18,27,45,-5,-31,35,-379,-95,4,-7,-42,49
-46,-4,43,25,-44,19,-367,-83,9,-3,-50,44
2,39,37,-20,-18,38,-354,-69,12,1,-48,45
19,65,46,-42,-14,55,-343,-55,16,7,-44,42
-10,35,45,-13,-27,40,-328,-42,14,10,-41,39
7,33,26,-20,-10,29,-315,-37,21,16,-36,40
-8,6,14,1,-11,10,-299,-30,25,20,-34,39
-33,1,34,16,-34,17,-269,-26,12,29,-18,41
25,58,33,-41,-5,45,-254,-7,47,22,-5,37
10,45,35,-28,-13,39,-255,23,57,-3,-2,32
1,79,78,-40,-39,78,-255,44,53,32,5,52
64,157,93,-110,-15,125,-255,62,72,65,7,73
52,130,78,-91,-13,104,-256,65,58,54,13,74
62,110,48,-86,6,79,-251,66,44,45,14,67
81,92,11,-87,34,52,-234,61,11,13,-3,35
31,47,16,-39,7,31,-212,88,-16,-10,-21,13
-26,-2,24,14,-25,11,-193,108,-18,-18,-45,-1
-16,-43,-27,30,6,-35,-182,124,-26,-23,-56,-23
15,-40,-56,13,36,-48,-175,147,-29,-36,-67,-39
1,-50,-51,25,26,-51,-165,151,-38,-61,-88,-56
-50,-96,-46,73,-2,-71,-156,184,-39,-58,-95,-53
-70,-109,-39,89,-15,-73,-144,194,-41,-61,-74,-58
-46,-83,-37,65,-4,-60,-130,237,-39,-69,-69,-69
-62,-83,-21,73,-20,-52,-119,260,-40,-69,-100,-63
-37,-70,-33,54,-2,-51,-100,253,-41,-62,-87,-55
9,-47,-56,19,32,-51,-95,279,-37,-63,-77,-50
-14,-59,-45,37,16,-52,-65,275,-44,-51,-67,-39
-34,-69,-35,51,1,-52,-64,308,-39,-39,-66,-60
-70,-102,-33,86,-18,-67,-85,295,-72,-83,-116,-103
-88,-100,-13,94,-37,-56,-59,327,-31,-51,-87,-70
-97,-86,10,91,-53,-38,-17,339,-54,-72,-108,-96
-222,-149,73,185,-147,-37,119,325,-129,-148,-206,-203
-162,-76,85,119,-123,5,76,350,-78,-50,-123,-136
532,330,-202,-430,367,63,-328,637,440,437,430,284
1152,626,-526,-888,839,49,-722,707,766,645,787,619
739,270,-469,-505,604,-99,-722,-290,-361,-171,133,243
101,-224,-325,62,213,-274,-468,-650,-999,-666,-397,-219
-56,-302,-246,179,95,-274,-259,-113,-556,-448,-331,-258
-59,-191,-132,125,37,-161,-54,201,-287,-247,-221,-213
-45,-98,-54,72,5,-76,45,442,-55,-99,-117,-165
-92,-56,36,74,-64,-10,63,479,-31,-76,-100,-142
-57,-7,50,32,-53,21,113,535,-17,-54,-83,-140
-37,-13,24,24,-30,6,112,559,-2,-47,-75,-132
-85,-72,14,78,-49,-28,120,564,-11,-43,-66,-129
-72,-75,-3,73,-34,-39,131,600,10,-29,-58,-122
-62,-60,2,61,-32,-29,132,584,1,-30,-60,-116
-68,-46,23,57,-45,-11,170,581,27,-19,-52,-123
-63,-61,2,62,-32,-29,186,583,27,-22,-53,-131
-29,-26,2,27,-15,-12,206,622,32,-13,-48,-125
-56,6,63,25,-60,34,222,627,33,-13,-47,-123
-85,-18,67,51,-75,24,234,621,36,-8,-36,-118
-53,10,63,21,-58,36,250,631,36,-1,-29,-115
-36,32,68,2,-52,49,246,660,53,10,-21,-110
-27,35,62,-4,-45,48,264,681,74,30,-13,-101
-6,74,80,-34,-43,77,277,700,96,50,-3,-92
16,126,110,-71,-47,118,313,750,158,102,61,-83
42,150,107,-96,-33,128,328,789,187,134,104,-42
36,157,121,-97,-43,139,315,831,205,152,116,-3
53,216,164,-135,-56,190,339,885,258,195,162,19
92,255,163,-174,-35,208,340,931,312,235,208,62
100,250,150,-175,-25,200,352,965,343,266,235,92
141,301,161,-221,-10,231,347,989,348,285,252,108
172,346,174,-259,-1,260,356,1004,343,301,262,107
180,336,156,-258,12,245,389,1018,336,299,259,103
165,307,142,-236,11,224,393,1016,327,275,245,97
129,258,128,-194,0,193,415,982,284,233,201,52
90,187,97,-138,-4,142,427,935,225,170,145,-6
74,131,57,-103,8,93,442,883,170,105,80,-61
27,83,56,-55,-14,69,458,831,98,45,2,-121
-26,38,63,-6,-45,51,461,817,38,-3,-38,-160
-11,5,16,3,-14,10,469,814,18,-33,-44,-170
-79,-76,2,77,-40,-36,474,809,5,-59,-69,-200
-111,-117,-6,115,-52,-61,481,804,-6,-59,-72,-198
-81,-73,8,77,-44,-33,485,800,-14,-63,-67,-190
-66,-53,13,59,-39,-19,504,795,-27,-73,-97,-222
-39,-41,-2,40,-18,-21,534,792,-30,-73,-100,-225
-72,-43,28,57,-50,-7,545,786,-47,-97,-107,-227
-68,-102,-34,85,-17,-68,561,786,-42,-86,-98,-220
-57,-101,-44,79,-7,-72,582,818,-40,-98,-106,-235
-77,-61,16,69,-47,-22,593,818,-66,-127,-132,-260
-69,-58,11,64,-40,-23,602,826,-58,-111,-119,-243
-67,-44,23,55,-45,-11,621,867,-50,-106,-115,-236
-72,-55,17,63,-44,-19,622,881,-46,-97,-108,-226
-68,-61,7,65,-37,-27,607,881,-36,-91,-101,-221
-40,-36,4,38,-22,-15,641,911,-34,-88,-97,-217
-17,-26,-9,22,-3,-18,669,958,-25,-84,-92,-212
-61,-49,12,55,-36,-19,668,959,-19,-81,-90,-208
-112,-73,40,92,-76,-16,691,959,-13,-76,-85,-202
-65,-42,23,54,-44,-9,689,959,-4,-74,-81,-213
-56,-30,26,43,-41,-2,692,964,-2,-66,-79,-214
-50,-21,29,36,-39,3,736,1014,11,-59,-70,-200
-34,2,35,16,-35,18,759,1029,9,-52,-60,-190
-29,31,61,-1,-45,46,778,1018,22,-46,-50,-191
39,99,60,-69,-11,79,808,1012,51,-40,-39,-188
31,108,76,-69,-23,92,817,1002,15,-40,-33,-186
39,92,53,-66,-7,72,812,1002,-11,-29,-23,-184
38,34,-4,-36,21,15,818,1004,-34,-51,-54,-185
18,2,-15,-10,17,-6,810,1004,-54,-72,-81,-209
-23,-24,-1,24,-11,-13,829,1008,-47,-71,-82,-227
-103,-132,-28,118,-37,-80,861,1008,-51,-105,-112,-270
-79,-133,-54,106,-12,-93,862,1008,-49,-93,-109,-290
-74,-120,-46,97,-14,-83,874,1020,-51,-87,-108,-280
-79,-124,-44,102,-17,-84,876,1020,-61,-129,-139,-295
-66,-108,-41,87,-12,-74,897,1035,-77,-140,-145,-287
-80,-114,-35,98,-22,-74,923,1059,-83,-141,-146,-299
-55,-93,-38,74,-8,-65,925,1057,-76,-138,-143,-316
-40,-103,-63,72,12,-83,949,1063,-79,-142,-147,-315
-13,-77,-64,45,25,-70,964,1092,-70,-137,-142,-307
-33,-91,-58,62,13,-75,978,1091,-78,-140,-144,-311
-98,-154,-56,126,-21,-105,999,1116,-66,-131,-137,-301
-89,-139,-51,114,-19,-95,1000,1117,-93,-135,-142,-311
-70,-121,-51,96,-9,-86,1024,1137,-84,-129,-141,-335
-70,-116,-46,94,-12,-81,1050,1156,-64,-125,-132,-321
-200,-199,2,199,-101,-98,1160,1127,-157,-215,-234,-404
-240,-169,71,204,-155,-49,1230,1145,-165,-210,-248,-431
235,161,-74,-198,154,43,941,1334,212,226,205,-65
974,563,-411,-769,692,76,516,1633,845,736,799,443
912,414,-499,-663,705,-42,403,908,107,134,402,266
208,-149,-357,-29,283,-252,604,150,-986,-681,-359,-305
-16,-321,-305,169,145,-313,826,548,-720,-587,-420,-457
-49,-246,-197,147,74,-221,1043,925,-361,-371,-303,-406
-82,-155,-73,119,-4,-114,1194,1159,-143,-192,-177,-363
-37,-84,-47,61,6,-65,1234,1251,-49,-105,-119,-328
-55,-84,-30,70,-12,-57,1271,1268,-60,-117,-130,-317
-58,-87,-29,73,-14,-58,1288,1314,-26,-86,-107,-300
-64,-84,-20,74,-22,-52,1304,1319,-47,-82,-109,-285
-57,-75,-18,66,-19,-46,1318,1356,-23,-98,-119,-308
-73,-74,-1,74,-36,-38,1352,1351,-32,-112,-131,-325
-71,-61,10,66,-41,-25,1374,1381,-20,-96,-119,-314
-76,-71,4,73,-40,-33,1377,1379,-20,-95,-117,-315
-84,-77,7,80,-45,-35,1406,1377,-16,-85,-109,-310
-45,-50,-5,48,-20,-27,1433,1385,-11,-80,-106,-310
-36,-59,-22,48,-7,-40,1442,1397,-11,-75,-98,-303
-69,-53,15,61,-42,-19,1446,1415,2,-72,-94,-293
-77,-30,47,53,-61,8,1484,1433,25,-63,-82,-286
-46,-4,42,25,-44,19,1512,1464,53,-24,-47,-276
-31,18,49,7,-40,33,1515,1490,78,-3,-27,-263
-2,51,54,-25,-28,52,1536,1515,104,13,-21,-244
1,109,108,-55,-54,108,1567,1540,128,40,8,-219
12,130,118,-71,-53,124,1597,1604,188,94,68,-180
53,181,127,-117,-37,154,1617,1645,236,150,110,-139
96,236,140,-166,-22,188,1632,1683,280,197,161,-102
115,235,120,-175,-3,177,1643,1733,323,237,204,-72
119,299,179,-210,-30,239,1653,1749,338,247,213,-60
135,324,188,-230,-27,256,1665,1780,355,273,237,-59
119,275,156,-197,-19,215,1684,1786,341,288,239,-60
129,267,138,-198,-5,202,1713,1760,319,245,199,-68
111,222,111,-167,-1,167,1719,1726,269,192,149,-104
100,187,86,-143,7,136,1747,1683,207,132,99,-154
63,109,46,-87,8,78,1770,1640,136,58,37,-218
25,37,12,-31,6,24,1781,1601,60,13,-16,-269
26,5,-21,-15,24,-8,1805,1579,17,-28,-65,-299
-13,-40,-28,27,8,-34,1811,1571,-13,-72,-99,-331
6,-36,-43,15,24,-39,1831,1565,-20,-78,-102,-331
-24,-87,-63,56,20,-75,1843,1557,-44,-92,-123,-349
-44,-102,-58,73,8,-80,1874,1550,-62,-107,-136,-360
-28,-89,-61,59,17,-75,1890,1545,-59,-108,-142,-364
-19,-79,-59,49,20,-69,1907,1550,-65,-113,-151,-365
11,-49,-61,19,36,-55,1933,1548,-65,-115,-149,-353
-30,-86,-56,58,13,-71,1933,1549,-77,-127,-162,-392
-48,-97,-49,73,1,-73,1965,1564,-81,-128,-163,-402
-58,-100,-42,79,-8,-71,1981,1567,-73,-118,-155,-392
-66,-102,-36,84,-15,-69,2009,1579,-73,-113,-152,-394
-57,-86,-29,72,-14,-57,2045,1593,-66,-105,-144,-386
-69,-92,-23,81,-23,-57,2051,1603,-65,-100,-140,-385
-23,-68,-45,46,11,-56,2065,1627,-58,-95,-135,-380
-7,-52,-45,30,19,-49,2079,1649,-46,-90,-130,-375
-66,-92,-26,79,-20,-59,2103,1668,-39,-86,-126,-371
-49,-69,-20,59,-14,-45,2119,1679,-24,-80,-121,-366
-26,-39,-12,33,-7,-25,2128,1705,-34,-78,-117,-362
-29,-33,-4,31,-12,-18,2166,1748,-24,-68,-112,-357
-26,-3,23,14,-24,9,2198,1784,2,-48,-102,-351
-19,23,42,-2,-31,32,2224,1813,7,-34,-93,-346
13,81,68,-47,-28,75,2237,1819,16,-35,-81,-340
20,95,75,-58,-28,85,2225,1818,3,-32,-77,-336
88,81,-6,-84,47,37,2217,1823,3,-26,-71,-329
120,64,-56,-92,88,4,2217,1823,-22,-41,-80,-340
69,13,-57,-41,63,-22,2264,1828,-34,-61,-109,-365
8,-22,-30,7,19,-26,2304,1839,-46,-92,-124,-381
-25,-64,-39,44,8,-51,2304,1839,-70,-9,-127,-393
-44,-118,-74,81,15,-96,2328,1834,-118,39,-134,-398
-79,-132,-53,106,-13,-93,2351,1835,-202,-20,-148,-403
