I,II,III,aVR,aVL,aVF,V1,V2,V3,V4,V5,V6
-136,-391,-255,264,60,-323,129,15,44,-25,-105,-220
-95,-357,-262,226,83,-309,125,21,53,-25,-104,-220
-48,-310,-262,179,107,-286,125,29,77,-22,-100,-217
-75,-328,-254,202,89,-291,124,30,75,-19,-97,-214
-103,-350,-247,227,73,-298,120,30,74,-16,-92,-211
-121,-363,-242,242,60,-302,120,29,77,-9,-89,-209
-47,-314,-266,181,110,-290,122,37,72,-8,-85,-204
-51,-297,-246,175,98,-271,125,59,82,2,-76,-197
-38,-267,-229,153,95,-248,128,72,109,34,-65,-189
-36,-294,-257,165,110,-275,127,62,106,40,-52,-181
-57,-278,-221,168,82,-249,104,51,96,29,-44,-184
-38,-261,-223,150,93,-242,68,39,92,22,-46,-188
-40,-293,-253,167,107,-272,64,25,84,15,-43,-190
-24,-263,-240,144,108,-251,66,7,77,6,-51,-195
-44,-310,-265,177,111,-287,63,-5,73,-1,-70,-192
-66,-298,-232,183,83,-265,82,1,65,-14,-80,-189
-77,-305,-227,191,75,-266,84,1,69,-24,-81,-196
-117,-403,-286,260,85,-344,80,-5,70,-50,-120,-255
-136,-371,-235,254,50,-302,99,-10,69,-23,-113,-258
-115,-372,-257,244,71,-315,116,18,78,-17,-99,-259
-111,-396,-285,254,87,-340,99,23,67,-51,-107,-272
8,-332,-341,162,175,-336,70,106,96,30,-61,-208
329,-128,-457,-101,393,-292,-78,65,142,164,100,0
748,471,-277,-610,512,97,-384,-267,206,548,628,604
631,421,-210,-526,421,105,-372,-418,44,434,552,582
82,-201,-283,60,182,-242,-36,-335,-172,-122,-77,-79
-81,-307,-227,194,73,-267,105,-147,-78,-115,-146,-224
-87,-334,-247,211,80,-291,114,-23,-14,-76,-137,-241
-120,-351,-231,235,56,-290,129,-11,-14,-94,-150,-267
-132,-367,-235,250,52,-301,122,6,-1,-69,-126,-259
-153,-413,-260,283,54,-336,126,-4,-3,-87,-143,-285
-118,-348,-230,233,57,-289,124,2,9,-67,-120,-272
-96,-339,-244,218,74,-291,125,10,9,-78,-132,-273
-98,-359,-260,229,81,-309,119,19,18,-56,-126,-259
-88,-339,-250,214,81,-294,113,25,24,-49,-129,-253
-90,-325,-235,208,72,-279,109,29,30,-41,-112,-248
-101,-336,-235,219,67,-286,102,36,37,-37,-86,-262
-93,-319,-226,206,67,-272,98,29,52,-53,-98,-261
-57,-283,-226,170,85,-254,92,31,62,-22,-85,-246
-62,-310,-248,186,93,-279,82,21,47,-14,-69,-255
-62,-311,-248,187,93,-279,74,41,63,0,-55,-234
49,-223,-272,88,161,-248,65,98,115,58,-10,-178
88,-194,-282,53,185,-237,55,109,125,74,13,-151
98,-186,-284,44,192,-235,49,116,133,102,44,-115
183,-103,-287,-39,235,-195,39,150,165,146,92,-76
185,-80,-265,-52,225,-172,38,151,183,171,116,-75
133,-121,-255,-6,194,-188,40,136,178,177,108,-75
123,-106,-229,-8,176,-167,41,125,163,150,93,-73
77,-124,-200,24,139,-162,38,96,140,114,61,-102
25,-169,-195,72,110,-182,56,77,117,76,13,-150
-4,-199,-195,102,96,-197,87,70,95,40,-23,-189
-27,-219,-192,123,83,-205,84,47,76,4,-48,-215
-32,-223,-191,128,79,-207,79,38,73,-17,-65,-233
-86,-271,-185,178,50,-227,71,30,67,-39,-84,-266
-70,-279,-208,175,69,-243,79,21,57,-64,-87,-289
-23,-248,-226,136,102,-237,98,25,52,-55,-77,-272
-45,-257,-212,151,84,-234,94,25,49,-41,-70,-260
-43,-251,-208,147,83,-229,95,28,48,-36,-62,-259
-34,-242,-208,138,87,-224,95,36,44,-26,-63,-255
-60,-271,-211,166,76,-241,94,34,47,-20,-65,-253
-53,-269,-216,161,82,-242,98,36,70,-12,-65,-249
-38,-255,-217,147,89,-236,100,33,82,-8,-70,-253
-41,-262,-221,151,90,-241,100,37,79,-3,-70,-260
-65,-247,-182,156,59,-214,103,51,80,-1,-68,-260
-80,-240,-160,160,41,-200,106,48,80,-5,-65,-260
-56,-257,-201,157,73,-229,104,45,80,-10,-63,-260
-71,-267,-197,169,64,-232,100,42,77,-14,-60,-260
-95,-263,-169,179,37,-216,95,40,71,-13,-57,-257
-92,-238,-147,165,27,-192,90,38,66,-10,-54,-251
-41,-200,-159,121,59,-180,87,34,63,-9,-60,-243
-73,-248,-175,160,51,-211,80,35,56,-39,-74,-238
-109,-264,-155,187,24,-209,84,31,58,-38,-76,-229
-65,-222,-156,144,46,-189,93,30,66,-7,-72,-228
-61,-214,-153,138,46,-183,89,30,61,-5,-70,-244
-39,-209,-170,124,66,-189,90,30,56,-5,-66,-242
-42,-197,-155,120,57,-176,90,30,54,-4,-65,-235
-65,-192,-127,129,31,-159,90,30,46,-6,-62,-233
-69,-237,-168,153,50,-202,90,30,50,-18,-59,-227
-42,-232,-190,138,74,-211,85,30,61,-18,-60,-224
-43,-214,-170,129,63,-192,80,32,58,-8,-60,-229
-46,-224,-178,135,66,-201,75,36,55,-4,-60,-234
-45,-217,-172,131,64,-194,72,35,53,5,-60,-229
-89,-228,-139,159,25,-183,65,35,48,9,-60,-223
-57,-227,-170,142,57,-198,69,35,55,6,-60,-219
-50,-218,-168,134,59,-193,81,35,65,5,-60,-211
-62,-207,-146,135,42,-176,78,39,65,5,-60,-212
-49,-198,-149,124,51,-174,75,40,64,5,-60,-224
-57,-194,-137,125,41,-165,73,40,65,4,-63,-221
-54,-197,-142,125,44,-169,70,40,65,8,-66,-213
-50,-186,-136,118,43,-160,69,39,64,9,-63,-209
-15,-145,-130,80,58,-137,78,50,83,26,-52,-204
1,-119,-120,59,61,-119,80,84,116,55,-38,-200
21,-106,-127,43,74,-116,66,92,130,66,-27,-185
15,-99,-114,42,65,-106,55,68,128,55,-13,-177
-10,-92,-82,51,37,-87,46,46,118,41,7,-180
10,-99,-110,45,60,-104,44,33,91,37,-5,-178
19,-106,-125,44,72,-115,46,25,72,32,-28,-185
21,-106,-127,42,74,-116,44,19,75,29,-33,-182
-17,-136,-119,76,51,-127,46,11,65,0,-58,-189
-46,-157,-111,102,33,-134,45,2,68,3,-53,-193
-46,-191,-146,119,50,-168,50,5,58,-5,-74,-219
-54,-158,-104,107,25,-131,70,5,63,3,-59,-217
-49,-176,-127,113,39,-151,86,21,68,1,-68,-234
-39,-190,-151,115,57,-171,92,40,65,-9,-91,-243
92,-130,-222,19,157,-176,48,144,127,90,-8,-170
430,118,-312,-273,371,-97,-146,94,199,279,230,121
742,765,23,-753,359,393,-425,-202,293,709,816,775
544,614,70,-579,237,341,-362,-339,97,496,623,626
45,-57,-102,7,73,-79,-60,-299,-143,-108,-65,-83
-96,-167,-71,132,-12,-119,59,-116,-68,-88,-106,-215
-51,-198,-147,124,48,-173,96,14,-27,-61,-116,-246
-99,-230,-132,165,17,-181,103,3,13,-70,-120,-254
-137,-245,-108,191,-14,-176,98,20,40,-50,-108,-241
-112,-236,-124,174,6,-179,102,19,30,-65,-123,-247
-104,-229,-125,167,11,-177,98,28,38,-43,-107,-232
-82,-198,-115,140,17,-156,100,34,26,-43,-116,-237
-25,-141,-116,83,46,-129,92,34,33,-18,-97,-228
-53,-177,-124,115,36,-150,88,37,27,-17,-99,-238
-56,-172,-117,114,31,-144,81,38,23,-6,-87,-229
-34,-158,-125,96,46,-141,77,42,44,-1,-83,-224
-52,-176,-124,115,36,-150,68,39,61,6,-73,-219
-25,-150,-125,88,50,-137,53,50,62,13,-64,-211
13,-106,-119,47,66,-112,40,50,56,20,-56,-192
18,-95,-114,39,66,-104,25,61,73,62,-38,-160
24,-85,-109,31,67,-97,11,84,98,75,-12,-133
63,-39,-103,-12,83,-71,-1,88,110,99,31,-88
90,-8,-97,-41,94,-52,-13,105,132,147,66,-55
140,47,-92,-93,115,-22,-25,107,153,168,100,-31
175,91,-84,-132,129,3,-32,94,168,184,118,-2
166,89,-77,-127,121,6,-48,89,161,184,103,3
188,109,-79,-148,133,15,-40,80,150,171,94,0
165,85,-80,-126,123,3,-12,70,134,139,79,-30
96,15,-81,-55,88,-33,-2,54,104,92,51,-72
44,-41,-85,-1,65,-63,10,43,79,55,7,-116
32,-53,-85,11,59,-69,28,38,71,43,-44,-144
-7,-89,-82,48,38,-86,36,35,66,37,-51,-154
-38,-118,-80,78,21,-99,35,31,61,29,-48,-173
-44,-123,-79,83,17,-100,29,28,54,26,-59,-174
-36,-111,-75,74,20,-93,35,23,51,20,-39,-172
-4,-78,-74,42,35,-76,55,29,60,18,-34,-174
-26,-95,-69,61,22,-82,53,41,62,9,-45,-175
-35,-91,-56,64,10,-73,49,37,58,18,-32,-175
-11,-65,-54,38,22,-59,46,33,55,36,-29,-174
-25,-68,-43,47,9,-55,41,30,53,34,-32,-184
-35,-78,-43,57,4,-60,39,25,48,26,-37,-191
-30,-62,-32,46,1,-46,34,25,59,27,-34,-183
-33,-58,-25,46,-4,-41,28,25,72,13,-35,-181
-49,-106,-57,78,4,-81,25,25,69,19,-58,-190
-84,-117,-33,101,-25,-75,20,25,73,46,-62,-191
-84,-97,-13,91,-35,-55,15,25,75,37,-51,-177
-38,-63,-25,51,-6,-44,30,25,75,31,-47,-173
-20,-36,-15,28,-2,-25,37,25,71,24,-40,-162
-45,-59,-13,52,-16,-36,34,25,64,18,-41,-164
-76,-67,9,71,-43,-28,36,25,60,9,-56,-186
-64,-58,7,61,-36,-25,35,23,54,-9,-58,-167
-4,-34,-29,19,13,-31,35,19,49,-6,-51,-157
-32,-31,1,32,-16,-15,30,17,44,1,-46,-161
-86,-57,29,72,-58,-14,26,14,40,5,-40,-162
-62,-46,16,53,-39,-14,24,11,40,13,-35,-169
-53,-48,5,51,-29,-21,20,9,40,13,-34,-175
-65,-55,9,60,-37,-23,15,6,40,10,-49,-175
-76,-45,32,60,-54,-7,18,5,40,10,-57,-169
-92,-46,45,69,-68,-1,34,4,37,9,-54,-177
-87,-35,52,61,-70,9,46,-1,34,21,-56,-142
-83,-35,48,59,-65,7,41,1,31,24,-55,-139
-72,-21,51,47,-62,15,23,-3,29,17,-55,-166
-71,-22,49,47,-60,13,16,-11,24,12,-50,-165
-50,0,50,25,-50,25,15,-17,27,6,-41,-170
-37,41,78,-3,-58,60,15,-24,38,0,-51,-172
-54,34,88,9,-71,61,15,-9,44,5,-58,-172
-46,36,82,4,-64,59,15,13,45,10,-44,-163
-35,55,90,-10,-63,72,34,32,57,20,-36,-155
-16,91,107,-38,-62,99,37,35,82,45,-25,-150
-32,80,112,-24,-73,96,18,24,85,51,-18,-143
4,111,107,-58,-52,109,6,22,77,41,-7,-137
14,121,107,-68,-47,114,-27,6,72,36,-5,-128
-12,92,104,-41,-58,98,-35,-10,53,30,-21,-119
-3,102,104,-50,-54,103,-33,-35,36,20,-31,-124
-41,58,99,-8,-70,78,-55,-48,31,18,-51,-136
-19,69,88,-26,-54,79,-35,-50,17,1,-61,-145
-40,52,91,-6,-66,71,-25,-43,16,-12,-58,-147
-63,13,76,25,-70,44,-23,-37,6,-39,-96,-177
-46,39,86,3,-66,62,-17,-39,10,-10,-76,-165
-83,-33,49,58,-66,8,-14,-4,2,-16,-107,-189
-56,-23,34,39,-45,6,0,21,31,-4,-90,-188
127,77,-50,-101,88,13,-39,133,124,130,41,-64
448,489,41,-469,203,265,-281,-19,206,443,444,394
613,1063,450,-838,81,756,-533,-366,251,842,1002,1004
328,651,323,-490,2,486,-366,-407,-41,378,516,575
-9,93,102,-42,-56,97,-89,-305,-238,-176,-136,-99
-64,48,112,8,-88,79,-14,-124,-106,-98,-127,-147
-65,-28,37,46,-51,4,17,-42,-71,-105,-161,-184
-74,-8,66,41,-69,28,28,-52,-51,-92,-139,-173
-108,-53,55,81,-81,1,36,-36,-46,-93,-141,-196
-120,-51,70,85,-95,10,36,-43,-46,-99,-140,-205
-113,-48,65,80,-89,9,26,-33,-38,-90,-128,-191
-130,-78,52,104,-90,-13,21,-35,-38,-99,-136,-199
-126,-53,73,89,-99,9,15,-30,-34,-83,-122,-186
-115,-57,57,86,-86,0,4,-28,-49,-84,-129,-193
-67,-11,56,39,-61,22,18,-24,-40,-72,-118,-181
-15,31,45,-8,-30,38,12,-33,-33,-68,-122,-174
-1,37,38,-18,-19,37,-22,-38,-25,-61,-113,-166
-24,19,43,2,-33,30,-27,-23,-17,-53,-101,-150
-14,52,66,-20,-40,59,-37,-15,-10,-32,-89,-106
22,88,66,-56,-22,77,-43,2,1,-5,-56,-76
25,87,62,-56,-19,74,-44,22,27,27,-17,-55
73,151,79,-112,-3,115,-69,41,56,74,35,-2
105,176,71,-140,17,123,-95,54,73,107,72,39
125,212,87,-169,18,150,-93,51,96,126,94,71
164,256,91,-210,37,173,-101,41,96,125,122,100
150,251,100,-201,25,175,-105,33,92,123,117,98
134,261,127,-197,3,194,-81,24,84,110,87,75
84,194,111,-139,-14,152,-64,10,44,59,39,34
50,153,103,-102,-27,128,-51,-8,12,15,-12,-10
17,109,92,-64,-38,100,-38,-20,-7,-30,-52,-51
-39,40,78,-1,-59,59,-28,-30,-27,-64,-91,-91
-33,36,69,-2,-51,52,-24,-37,-38,-79,-106,-101
-43,25,68,9,-55,46,-26,-48,-45,-87,-108,-99
-48,24,72,12,-60,47,-21,-54,-46,-84,-105,-101
-58,10,68,24,-63,39,-19,-49,-43,-85,-97,-99
-57,20,77,19,-67,48,-22,-44,-54,-85,-91,-97
-31,48,78,-9,-55,63,-10,-39,-61,-85,-85,-94
-30,37,67,-4,-49,52,-19,-36,-55,-81,-75,-91
6,68,62,-38,-28,65,-37,-29,-53,-80,-88,-89
1,68,67,-35,-33,67,-27,-38,-48,-80,-110,-84
-38,25,63,6,-51,44,-21,-46,-45,-75,-113,-86
-53,16,69,18,-62,43,-14,-45,-48,-75,-116,-95
-33,61,94,-14,-64,77,-11,-45,-51,-76,-115,-99
-43,37,80,2,-62,59,-20,-45,-48,-85,-114,-104
-82,-11,71,46,-77,30,-24,-57,-45,-99,-108,-103
-46,40,86,2,-66,63,-21,-59,-45,-100,-99,-96
-43,43,86,0,-65,64,-20,-51,-45,-99,-116,-89
-33,39,72,-3,-53,55,-20,-49,-53,-102,-127,-83
-47,10,57,18,-52,33,-20,-43,-56,-104,-124,-75
-52,34,86,9,-69,60,-20,-40,-53,-106,-126,-70
-30,76,106,-23,-68,91,-18,-49,-47,-102,-125,-80
-69,21,91,24,-80,56,-15,-60,-61,-113,-125,-88
-82,4,86,39,-84,45,-12,-60,-77,-122,-121,-94
-76,0,77,38,-76,38,-9,-61,-70,-111,-119,-94
-41,31,71,5,-56,51,-6,-64,-68,-103,-120,-86
-17,51,68,-17,-43,59,-5,-65,-63,-102,-119,-85
2,65,63,-34,-31,64,-11,-64,-59,-108,-121,-77
2,64,62,-33,-31,63,-18,-59,-65,-109,-118,-77
-8,46,54,-20,-31,50,-18,-61,-65,-105,-115,-89
-21,38,59,-9,-40,49,-14,-57,-60,-105,-115,-85
-48,18,66,15,-57,41,-15,-55,-59,-103,-116,-76
-25,21,46,2,-36,33,-14,-55,-52,-99,-115,-69
-36,-1,35,18,-35,17,-15,-51,-52,-101,-116,-60
-32,15,47,9,-40,31,-14,-48,-35,-88,-105,-53
-3,73,76,-35,-40,74,-10,-25,5,-57,-81,-46
-24,82,106,-29,-65,94,-5,-5,16,-49,-71,-42
-33,83,115,-25,-75,99,-2,3,28,-50,-63,-36
0,107,107,-54,-54,107,-5,8,39,-50,-62,-33
35,126,92,-81,-29,109,-31,-13,16,-50,-67,-28
18,109,91,-64,-37,100,-67,-43,-25,-58,-62,-25
-5,87,92,-41,-48,89,-66,-70,-51,-90,-85,-33
8,81,73,-45,-33,77,-55,-71,-50,-94,-88,-21
-4,48,52,-23,-28,50,-45,-68,-73,-119,-105,-41
-43,13,57,15,-50,35,-36,-73,-73,-121,-123,-69
-45,-1,44,23,-44,21,-28,-65,-61,-117,-141,-86
-26,15,41,6,-34,28,-18,-75,-62,-126,-143,-90
-47,-9,38,28,-42,14,-7,-58,-43,-116,-130,-84
-52,-43,9,47,-30,-17,12,-52,-56,-143,-165,-95
44,25,-19,-34,32,3,-8,46,5,-46,-80,-37
329,187,-142,-258,236,22,-155,51,70,103,87,156
669,794,125,-731,272,459,-463,-272,154,532,668,814
592,904,312,-749,140,608,-509,-468,39,539,742,937
159,214,55,-187,52,134,-199,-417,-274,-138,-14,192
-81,-15,66,47,-74,25,-34,-236,-221,-246,-174,-53
-50,-28,22,39,-36,-3,-5,-101,-111,-155,-147,-65
-49,-65,-16,57,-16,-40,19,-82,-117,-169,-179,-105
-99,-60,39,79,-69,-10,23,-69,-93,-167,-161,-100
-74,-50,24,62,-49,-13,34,-76,-100,-203,-203,-135
-76,-45,31,60,-53,-7,29,-67,-84,-165,-167,-104
-85,-65,19,75,-52,-23,28,-64,-83,-172,-177,-111
-103,-55,48,79,-75,-4,25,-60,-88,-157,-162,-94
-103,-68,36,85,-69,-16,21,-54,-86,-153,-160,-90
-56,-29,27,43,-42,-1,20,-49,-75,-147,-155,-82
-61,-31,30,45,-45,0,16,-44,-64,-137,-136,-72
-47,-28,20,37,-33,-4,9,-37,-56,-130,-122,-68
-35,-11,24,23,-30,6,2,-34,-47,-114,-108,-52
-40,-36,4,38,-21,-16,-4,-22,-41,-103,-101,-48
-5,-29,-24,18,10,-27,-11,2,-33,-84,-88,-23
57,14,-43,-35,50,-14,-26,6,-10,-51,-56,12
115,66,-49,-90,82,8,-41,37,15,-16,-20,48
150,123,-27,-136,88,48,-38,65,42,27,22,92
180,163,-17,-171,98,73,-56,72,66,61,70,128
186,162,-24,-174,105,69,-77,69,58,68,87,145
186,180,-6,-183,96,87,-73,60,48,77,97,161
190,204,14,-197,88,109,-70,54,41,67,93,169
107,157,50,-132,28,103,-67,22,30,26,54,125
20,90,70,-56,-25,80,-63,-18,20,-21,7,73
32,86,54,-59,-11,70,-37,-35,-4,-58,-38,37
3,69,66,-36,-31,67,-15,-52,-37,-106,-76,5
-35,33,67,0,-51,50,-15,-67,-61,-128,-93,-18
-31,32,64,-1,-48,48,-11,-64,-61,-126,-97,-32
-47,19,66,13,-57,42,-8,-65,-55,-131,-91,-30
-69,-8,61,38,-65,26,-6,-70,-71,-126,-105,-27
-51,5,56,23,-54,30,-3,-68,-77,-124,-106,-24
-25,27,51,-1,-38,39,0,-62,-74,-121,-90,-21
-29,19,48,5,-39,33,0,-58,-72,-118,-87,-19
-31,11,41,10,-36,26,2,-54,-69,-116,-83,-28
-47,-7,40,27,-43,16,6,-49,-70,-113,-81,-32
-32,-22,11,27,-21,-6,5,-45,-64,-108,-77,-26
-37,-9,28,23,-32,10,1,-40,-59,-102,-74,-21
-60,3,63,29,-62,32,0,-35,-54,-98,-78,-14
-58,-23,34,40,-46,6,-1,-32,-48,-91,-80,-39
-65,-34,31,49,-48,-2,4,-25,-42,-85,-80,-49
-44,-16,27,30,-35,5,15,-29,-42,-95,-84,-33
-40,-16,24,28,-32,4,8,-43,-52,-108,-86,-27
-63,-41,22,52,-43,-9,0,-52,-59,-117,-84,-22
-66,-48,18,57,-41,-14,-6,-55,-65,-121,-81,-19
-63,-37,26,50,-45,-5,-15,-58,-69,-119,-76,-16
-49,-55,-6,52,-21,-31,-18,-61,-68,-121,-74,-11
-38,-53,-15,46,-11,-34,-15,-64,-64,-119,-69,-11
-63,-50,13,56,-38,-18,-10,-65,-62,-129,-66,-16
-72,-30,42,50,-56,6,-8,-60,-59,-136,-64,-21
-73,-24,49,48,-60,12,-3,-60,-56,-130,-66,-24
-94,-57,37,76,-66,-10,0,-60,-55,-128,-75,-22
-100,-46,53,73,-76,4,-3,-60,-55,-123,-75,-17
-56,0,56,28,-56,28,-8,-60,-56,-120,-75,-15
-22,28,50,-3,-36,39,-11,-58,-53,-120,-75,-10
-13,36,49,-12,-31,42,-14,-54,-60,-119,-75,-7
-56,-10,45,32,-51,17,-19,-52,-70,-121,-75,-4
-72,-29,43,50,-57,7,-19,-49,-64,-120,-69,2
-37,20,57,9,-48,38,-13,-45,-58,-120,-63,7
-70,3,73,33,-71,38,-6,-45,-53,-118,-55,14
-49,20,68,15,-59,44,1,-36,-46,-97,-50,18
-30,54,83,-12,-57,68,7,-19,-27,-88,-41,26
-6,78,83,-36,-45,80,15,4,-14,-91,-25,33
12,90,78,-51,-33,84,3,26,-15,-89,-23,49
8,81,73,-45,-33,77,-21,18,-8,-91,-26,59
19,89,69,-54,-25,78,-48,-30,-20,-89,-25,53
16,81,65,-49,-25,73,-58,-57,-42,-90,-31,46
35,92,57,-64,-11,74,-46,-54,-54,-89,-29,37
-2,51,53,-24,-28,52,-39,-70,-64,-106,-42,36
-31,9,39,11,-35,24,-30,-83,-65,-126,-68,22
-52,-8,44,30,-48,18,-25,-68,-72,-126,-61,26
-44,-26,18,35,-31,-5,-16,-70,-91,-157,-86,3
-2,40,42,-20,-22,40,-12,-61,-78,-134,-64,11
-51,-40,11,45,-30,-15,-2,-53,-93,-154,-93,-11
-76,-87,-11,81,-32,-49,-6,-42,-54,-124,-86,-25
135,31,-104,-83,119,-36,-61,78,4,-26,4,68
556,382,-174,-469,365,104,-285,-77,55,191,292,441
778,889,111,-833,333,500,-529,-398,111,546,779,995
432,521,89,-477,171,305,-357,-453,-126,168,392,644
4,11,7,-8,-2,9,-64,-320,-242,-256,-130,66
-82,-20,62,51,-72,21,-1,-127,-118,-157,-82,33
-76,-99,-24,87,-26,-61,13,-69,-107,-179,-113,-28
-81,-80,2,81,-41,-39,28,-55,-86,-167,-93,-23
-130,-112,18,121,-74,-47,35,-40,-84,-169,-94,-25
-133,-109,23,120,-78,-43,35,-45,-80,-173,-91,-25
-111,-86,25,99,-67,-31,36,-31,-70,-165,-106,-32
-125,-85,40,104,-82,-22,41,-31,-70,-173,-126,-51
-117,-73,44,95,-81,-14,40,-22,-60,-157,-99,-25
-118,-91,27,104,-73,-31,38,-18,-56,-159,-99,-24
-95,-64,31,79,-62,-17,31,-12,-45,-148,-84,-12
-42,-28,14,35,-28,-7,24,-7,-38,-144,-80,-8
-46,-31,15,38,-30,-8,18,-1,-31,-133,-71,-2
-69,-35,35,52,-52,0,10,4,-23,-119,-63,7
-38,-5,33,21,-35,13,6,12,-12,-98,-50,20
8,3,-5,-5,6,-1,-7,27,8,-68,-22,46
73,32,-41,-52,57,-4,-28,43,27,-32,2,79
122,76,-46,-98,83,15,-39,65,44,11,36,115
158,113,-44,-135,101,34,-60,88,77,39,78,161
162,115,-46,-138,104,34,-67,93,92,56,102,188
202,168,-34,-184,118,67,-56,82,84,67,121,209
221,211,-11,-216,116,100,-50,73,77,58,121,216
138,169,32,-154,53,100,-41,63,67,47,111,191
114,165,51,-140,31,108,-34,42,59,17,87,167
71,111,40,-91,15,75,-26,18,25,-38,41,119
9,41,33,-25,-13,37,-14,9,-5,-74,-2,73
-15,9,24,3,-19,16,-7,1,-9,-90,-44,55
-5,13,18,-4,-11,15,2,-8,-16,-96,-57,38
-10,0,11,5,-11,5,2,-13,-22,-106,-58,30
-80,-65,15,72,-47,-25,-15,-29,-26,-113,-58,29
-34,-11,23,23,-29,6,-11,-32,-24,-107,-52,36
-21,-2,19,11,-20,8,-1,-21,-21,-106,-49,46
-73,-60,13,66,-43,-23,6,-13,-18,-102,-46,45
-14,-4,10,9,-12,3,20,-6,-15,-100,-40,49
-30,-25,4,27,-17,-10,20,-3,-14,-98,-42,57
-69,-68,1,68,-34,-33,16,1,-9,-91,-55,59
-50,-55,-4,53,-23,-29,13,4,-6,-87,-52,55
-49,-53,-4,52,-22,-29,9,9,-3,-81,-46,55
-47,-41,6,44,-26,-18,4,9,1,-75,-43,55
-45,-34,11,40,-28,-11,12,4,6,-70,-37,55
-36,-10,26,22,-31,8,23,1,0,-77,-33,55
-47,-49,-2,48,-23,-26,20,-2,-10,-89,-43,55
-40,-79,-38,60,-1,-58,20,-7,-21,-91,-52,55
-32,-58,-25,45,-3,-41,21,-10,-28,-96,-49,55
-56,-78,-23,67,-16,-50,19,-14,-23,-95,-54,55
-53,-65,-12,60,-20,-38,21,-15,-17,-94,-55,54
-57,-61,-4,59,-26,-32,15,-15,-13,-96,-55,56
-74,-72,3,73,-38,-34,11,-19,-6,-94,-60,60
-69,-44,25,56,-47,-9,3,-21,0,-96,-60,60
-71,-49,21,60,-46,-14,3,-18,-20,-89,-60,60
-87,-78,9,82,-48,-34,30,-15,-32,-95,-60,56
-84,-83,1,84,-42,-41,37,-12,-22,-110,-58,51
-72,-75,-3,74,-35,-38,29,-10,-20,-107,-54,46
-78,-70,7,74,-42,-31,29,-7,-15,-101,-55,43
-85,-76,9,81,-47,-33,22,-4,-9,-98,-55,37
-81,-77,3,79,-42,-37,21,-13,-21,-92,-55,35
-77,-68,9,72,-43,-30,13,-17,-26,-89,-55,52
-39,-55,-17,47,-10,-36,2,-8,-20,-103,-50,54
-43,-69,-26,56,-8,-47,7,-3,-18,-99,-51,60
-76,-65,11,71,-44,-27,14,5,-13,-80,-46,72
-77,-49,28,63,-52,-10,21,11,-11,-77,-46,56
-65,-34,31,49,-48,-1,28,17,-3,-73,-39,75
-15,29,44,-7,-29,36,26,43,7,-67,-9,100
-5,53,58,-24,-32,55,14,57,26,-67,7,102
3,55,52,-29,-25,53,6,44,40,-69,11,128
24,66,42,-46,-9,54,-9,36,32,-71,17,130
24,62,39,-43,-8,50,-31,24,26,-71,18,130
25,52,26,-39,-1,39,-30,11,10,-77,0,129
24,49,25,-37,-1,37,-30,-4,-8,-73,-10,130
-20,-2,18,11,-19,8,-29,-26,-28,-95,-35,124
-44,-27,17,35,-30,-5,-1,-35,-33,-111,-54,105
-36,-20,16,27,-25,-2,18,-16,-26,-97,-44,101
-97,-90,7,93,-51,-41,22,-15,-32,-120,-60,76
-93,-77,16,85,-54,-30,22,-8,-17,-102,-48,87
-75,-90,-14,83,-31,-52,30,-8,-35,-132,-78,50
-37,-68,-31,53,-3,-49,31,55,30,-76,-33,79
233,35,-198,-134,216,-81,-55,144,91,39,61,213
644,537,-107,-590,375,215,-335,-77,173,371,501,726
740,909,168,-825,286,538,-509,-329,188,600,836,1122
295,328,32,-312,131,180,-255,-381,-142,26,210,510
-51,-9,42,30,-47,17,-3,-249,-201,-243,-127,92
-75,-44,30,59,-52,-7,39,-46,-64,-133,-62,116
-118,-154,-37,136,-40,-95,57,-19,-61,-172,-137,49
-113,-110,3,112,-58,-53,55,-12,-29,-133,-98,76
-105,-153,-49,129,-28,-101,54,-5,-36,-147,-116,58
-100,-127,-27,114,-36,-77,60,-6,-22,-129,-101,67
-64,-87,-23,76,-21,-55,69,7,-18,-126,-100,65
-78,-107,-29,93,-24,-68,66,11,-12,-127,-100,62
-68,-129,-61,99,-3,-95,56,24,-5,-122,-87,71
-65,-125,-60,95,-2,-92,53,28,-6,-123,-88,66
-79,-116,-37,98,-21,-76,42,31,1,-118,-74,84
-68,-114,-46,91,-11,-80,44,37,1,-121,-74,104
-71,-95,-24,83,-23,-60,48,41,6,-104,-57,114
-43,-97,-54,70,6,-75,38,39,6,-92,-46,115
39,-41,-80,1,60,-60,31,60,22,-77,-31,131
19,-47,-67,14,43,-57,21,78,40,-57,-14,143
26,-34,-60,4,43,-47,7,94,61,-2,19,182
125,65,-60,-95,92,3,-7,113,99,42,70,229
121,48,-72,-84,96,-12,-27,120,119,56,97,255
150,98,-51,-124,100,23,-42,124,131,93,129,297
165,132,-33,-148,99,49,-43,112,136,112,142,298
134,100,-34,-117,84,33,-38,100,121,114,135,281
133,105,-28,-119,80,38,-36,90,103,86,127,274
89,58,-31,-73,60,13,-14,83,95,33,84,247
54,26,-28,-40,41,-1,21,82,83,8,39,212
7,-27,-34,10,20,-30,25,68,50,-32,-6,165
-80,-91,-11,86,-34,-50,30,48,34,-62,-37,137
-102,-81,21,91,-61,-30,37,44,34,-68,-40,126
-87,-82,6,84,-47,-38,34,45,30,-84,-47,110
-75,-80,-5,77,-35,-42,35,45,28,-80,-46,117
-75,-70,5,72,-39,-33,35,45,24,-72,-39,131
-89,-87,2,88,-45,-43,34,45,27,-66,-36,132
-42,-45,-3,44,-19,-24,41,48,32,-59,-31,136
-47,-54,-7,51,-19,-31,53,53,35,-54,-27,138
-61,-71,-11,66,-25,-41,59,54,40,-49,-21,140
-62,-56,6,59,-34,-25,57,50,40,-51,-21,143
-85,-90,-5,87,-39,-47,54,50,40,-48,-19,145
-58,-81,-23,70,-18,-52,51,48,40,-44,-22,150
-79,-99,-19,89,-30,-59,49,44,40,-45,-39,148
-82,-102,-20,92,-31,-61,45,45,37,-48,-41,145
-81,-97,-15,89,-33,-56,46,41,35,-57,-39,142
-90,-105,-15,98,-38,-59,54,40,31,-59,-36,140
-72,-89,-17,81,-27,-53,55,40,29,-54,-35,136
-44,-79,-35,62,-4,-57,55,35,25,-51,-35,134
-19,-36,-17,28,0,-27,55,35,26,-47,-27,147
-75,-69,6,72,-40,-31,55,34,35,-44,-24,151
-90,-94,-4,92,-43,-49,55,29,35,-39,-14,146
-95,-93,2,94,-48,-45,52,31,34,-47,-31,145
-95,-113,-18,105,-38,-66,47,28,30,-64,-52,140
-57,-72,-15,64,-20,-43,44,39,30,-60,-44,140
-58,-58,0,58,-29,-29,41,52,30,-52,-37,145
-48,-67,-19,58,-14,-43,36,48,29,-47,-32,144
-83,-89,-6,86,-38,-47,36,46,31,-38,-23,147
-77,-73,4,75,-40,-34,40,42,29,-34,-22,150
-64,-26,38,45,-51,6,46,41,31,-30,-24,150
-75,-31,44,53,-59,6,40,36,28,-30,-26,149
-62,-38,24,50,-42,-7,37,36,28,-31,-29,150
-112,-69,44,90,-78,-12,27,30,12,-27,-31,149
-54,-38,17,46,-35,-11,31,33,23,-44,-26,151
-33,-5,28,19,-30,11,67,70,73,-61,-16,172
-77,-72,5,75,-41,-33,71,77,76,-61,-34,179
-36,-47,-11,41,-12,-29,69,74,74,-42,-28,182
-74,-3,71,39,-73,34,71,76,76,4,16,185
-76,4,80,36,-78,42,70,84,77,22,26,175
-24,50,74,-13,-49,61,67,85,87,21,30,199
-15,56,71,-20,-43,63,30,70,74,20,34,214
-1,64,65,-32,-33,64,-1,56,65,19,35,214
19,81,62,-50,-22,71,6,39,56,21,36,209
8,61,53,-35,-22,57,25,29,46,16,31,196
-21,27,48,-3,-35,38,26,30,43,-4,9,194
-81,-46,35,63,-58,-6,29,24,34,-31,-27,176
-87,-54,33,70,-60,-10,38,22,38,-32,-22,181
-47,-45,2,46,-24,-21,53,22,26,-49,-45,158
-93,-90,3,92,-48,-43,56,14,31,-19,-11,163
-97,-130,-34,114,-31,-82,56,22,20,-32,-34,136
-52,-88,-36,70,-8,-61,76,78,51,0,-30,122
124,-11,-135,-56,129,-73,14,207,149,122,84,229
447,381,-66,-413,256,157,-222,73,247,431,484,695
604,960,356,-782,123,658,-454,-254,313,853,1070,1319
327,560,233,-444,46,396,-309,-331,8,394,585,886
-44,-10,34,27,-39,12,-31,-227,-197,-146,-56,221
-77,-57,20,67,-48,-18,48,-48,-65,-73,-43,169
-76,-159,-83,118,3,-121,76,25,-41,-81,-89,102
-94,-139,-45,117,-24,-92,83,32,-2,-66,-58,108
-74,-131,-57,103,-8,-94,80,56,8,-69,-63,105
-67,-116,-49,91,-9,-82,75,46,-2,-69,-57,107
-62,-133,-71,98,5,-102,69,53,1,-60,-47,114
-96,-170,-74,133,-10,-122,63,48,-12,-70,-66,106
-54,-109,-54,81,0,-81,64,51,-6,-61,-52,114
-50,-111,-62,81,6,-86,72,49,-6,-68,-53,106
-78,-126,-48,102,-15,-87,58,51,15,-58,-40,128
-46,-99,-53,72,4,-76,48,73,26,-52,-37,125
-36,-83,-47,59,6,-65,37,75,25,-42,-34,141
-26,-80,-53,53,14,-66,27,77,19,-34,-31,149
21,-25,-46,2,34,-35,19,81,24,1,3,173
49,-7,-56,-21,52,-31,10,80,45,26,22,198
34,12,-22,-23,28,-5,1,98,73,63,54,221
82,84,2,-83,40,43,-10,127,106,118,114,288
138,114,-24,-126,81,45,-19,136,129,152,152,328
137,166,29,-152,54,97,-45,130,155,190,192,365
129,168,39,-149,45,103,-62,121,155,187,197,369
139,161,23,-150,58,92,-50,113,141,172,189,358
137,197,59,-167,39,128,-42,103,134,164,192,357
79,135,56,-107,11,95,-35,82,110,128,154,326
46,82,36,-65,5,59,-17,65,82,80,96,283
23,51,29,-37,-3,39,-1,60,64,41,55,235
-60,-39,21,49,-40,-9,4,55,49,19,27,202
-91,-56,36,73,-63,-10,8,49,38,7,9,184
-84,-55,30,69,-57,-13,13,44,33,-11,4,179
-65,-63,2,64,-33,-30,17,39,30,-32,1,181
-57,-39,18,47,-37,-10,22,35,26,-35,-3,180
-84,-49,35,66,-59,-7,27,35,22,-28,-6,180
-79,-45,34,62,-57,-5,27,35,19,-24,-9,180
-73,-60,13,66,-43,-23,24,35,15,-17,-10,180
-52,-42,10,47,-31,-16,26,35,15,-12,-10,180
-46,-13,33,29,-40,10,25,32,14,-10,-10,180
-37,-30,7,33,-22,-11,25,29,10,-10,-10,180
-53,-34,18,43,-35,-8,24,26,9,-10,-8,180
-95,-66,29,80,-62,-19,20,23,13,-10,-5,180
-82,-72,10,77,-46,-31,20,20,22,-10,-5,180
-76,-68,8,72,-42,-30,20,21,21,-10,-5,180
-65,-72,-6,69,-29,-39,20,25,16,-27,-5,180
-64,-74,-10,69,-26,-42,20,25,14,-41,-6,180
-53,-76,-22,65,-15,-49,16,25,9,-39,-9,180
-54,-75,-21,65,-16,-48,14,25,6,-42,-13,180
-71,-75,-4,73,-33,-39,15,25,2,-45,-16,180
-76,-74,2,75,-39,-36,15,21,-4,-45,-20,180
-59,-74,-15,67,-21,-45,15,20,0,-43,-18,180
-45,-46,-1,46,-22,-24,15,20,0,-39,-14,179
-94,-71,24,82,-59,-23,15,15,2,-40,-12,182
-87,-94,-7,90,-40,-50,15,15,5,-36,-8,185
-49,-75,-25,62,-12,-50,15,14,5,-35,-7,185
-45,-46,-1,45,-22,-23,27,10,9,-35,-4,185
-85,-57,28,71,-57,-14,30,8,11,-35,-14,185
-96,-77,19,86,-58,-29,24,5,10,-35,-17,184
-37,-27,10,32,-23,-9,23,2,5,-35,2,180
-35,-68,-33,52,-1,-50,17,-1,5,-36,-18,180
-52,-90,-38,72,-7,-64,15,4,3,-34,-33,180
-45,-55,-9,50,-18,-31,20,5,0,-39,-22,180
-39,-64,-25,51,-6,-44,19,8,-1,-41,-19,180
-39,-29,10,34,-24,-9,25,22,4,-37,-12,182
-44,-23,21,34,-32,-1,24,19,18,-29,-5,189
-43,-7,36,25,-39,14,25,38,33,-6,20,195
19,63,44,-41,-13,53,30,73,52,10,25,201
55,80,25,-67,14,52,14,66,50,27,29,214
22,71,49,-47,-14,59,-9,39,37,32,51,217
39,79,40,-59,-1,59,-32,14,32,24,54,216
55,72,17,-63,18,44,-30,8,20,17,43,208
36,55,19,-46,8,36,-19,1,13,-5,29,203
5,7,2,-6,1,5,-12,0,5,-29,9,199
-26,-26,0,26,-12,-13,-1,-7,-7,-43,-1,185
-28,-36,-8,33,-10,-22,4,-10,-10,-39,6,188
-75,-99,-25,87,-24,-62,17,1,-35,-58,-17,163
-63,-60,3,62,-33,-29,15,1,-22,-44,4,177
-73,-114,-42,94,-16,-78,19,-5,-38,-60,-48,141
-69,-117,-49,93,-10,-83,25,57,18,-1,-14,142
211,47,-163,-129,187,-58,-53,159,120,128,121,282
556,511,-45,-533,300,233,-327,-74,195,481,586,824
658,959,301,-809,178,630,-504,-356,214,788,1027,1310
273,377,104,-325,84,240,-277,-356,-118,204,392,713
-35,-65,-30,50,-2,-47,-43,-231,-222,-191,-75,184
-47,-68,-20,58,-13,-44,11,-50,-70,-72,-15,172
-76,-172,-96,124,10,-134,42,-3,-68,-105,-78,108
-50,-126,-76,88,14,-101,50,10,-40,-85,-42,134
-101,-167,-66,134,-17,-117,45,19,-46,-97,-84,111
-81,-112,-31,97,-24,-72,43,14,-38,-87,-81,113
-74,-130,-56,102,-9,-93,34,23,-33,-81,-68,107
-81,-148,-67,115,-7,-107,40,20,-32,-83,-61,104
-37,-100,-62,69,13,-81,60,45,-22,-69,-35,126
-55,-123,-68,89,7,-95,44,45,-21,-66,-38,126
-46,-108,-62,77,9,-85,29,45,-11,-50,-33,133
-35,-102,-67,69,17,-84,25,46,-9,-45,-36,134
-31,-96,-65,64,17,-80,16,45,0,-34,-36,137
-3,-79,-76,41,36,-77,9,45,10,-27,-20,153
39,-35,-74,-2,57,-54,3,62,39,-13,16,182
45,-30,-76,-7,61,-53,-11,70,45,11,39,192
59,-33,-92,-13,76,-62,-37,76,53,46,68,210
87,15,-72,-51,79,-28,-48,108,84,81,102,248
140,93,-47,-116,93,23,-53,129,115,129,150,304
182,146,-36,-164,109,55,-61,139,142,159,192,342
157,136,-21,-146,89,57,-68,122,134,153,187,348
138,124,-14,-131,76,55,-61,106,133,158,173,344
124,122,-1,-123,62,60,-53,99,123,145,166,319
92,98,6,-95,43,52,-43,76,86,99,141,285
31,37,6,-34,12,22,-22,53,52,43,85,234
-20,-29,-9,24,-5,-19,-6,44,24,-1,37,185
-45,-76,-32,61,-6,-54,10,38,16,-18,20,160
-44,-73,-29,59,-7,-51,10,30,9,-34,18,151
-18,-48,-31,33,7,-39,17,22,2,-36,15,148
-26,-56,-29,41,2,-43,36,16,-4,-31,12,143
-57,-87,-30,72,-13,-58,27,20,-10,-30,9,138
-49,-79,-30,64,-9,-54,20,19,-5,-25,12,135
-2,-23,-21,12,10,-21,16,24,-1,-25,23,139
-22,-68,-46,46,12,-57,4,36,1,-20,25,142
-68,-116,-48,92,-10,-82,16,30,6,-20,25,144
-38,-69,-31,54,-3,-50,32,25,10,-20,25,148
-38,-76,-37,57,0,-56,29,22,8,-20,25,150
-59,-92,-33,76,-13,-62,30,14,4,-20,25,150
-53,-89,-36,72,-9,-62,30,22,2,-20,27,150
-55,-90,-35,73,-10,-62,30,31,-1,-20,31,150
-53,-84,-31,69,-11,-57,28,24,-4,-19,32,145
-20,-69,-49,44,15,-58,24,21,-6,-33,30,145
-30,-86,-56,58,14,-71,26,16,-9,-42,30,144
-63,-115,-52,89,-5,-83,25,11,-11,-40,30,140
-55,-103,-48,79,-4,-75,25,7,-9,-38,30,140
-51,-99,-49,75,-1,-73,25,1,-11,-35,30,142
-50,-90,-40,71,-5,-65,20,-4,-9,-35,25,145
-52,-100,-48,76,-2,-74,20,-9,-12,-36,25,148
-41,-95,-53,69,6,-74,20,-16,-24,-33,25,150
-75,-109,-34,92,-20,-71,20,-19,-26,-40,24,154
-56,-100,-45,78,-5,-73,20,-16,-24,-51,26,155
-17,-58,-41,38,12,-49,18,-13,-26,-45,21,149
-33,-86,-53,60,10,-69,14,-10,-24,-40,21,143
-50,-97,-46,74,-2,-71,11,-8,-27,-37,18,134
-62,-72,-10,68,-25,-41,7,-3,-30,-30,16,132
-47,-63,-16,55,-15,-40,4,-12,-33,-33,13,117
-43,-46,-3,45,-20,-24,15,-27,-35,-35,6,121
-15,-29,-15,23,0,-22,23,-21,-38,-35,20,140
-24,-67,-43,46,10,-55,20,-17,-41,-35,20,134
-34,-65,-31,50,-1,-48,17,-10,-35,-36,20,128
-27,-47,-20,37,-3,-33,15,-5,-27,-34,20,123
-49,-54,-5,52,-22,-29,10,1,-19,-29,20,116
-54,-66,-12,60,-21,-39,10,-8,-11,-16,19,116
-30,-43,-13,37,-9,-28,20,-9,-4,-9,18,131
-7,22,29,-8,-18,25,21,31,6,5,55,149
-27,2,29,12,-29,16,15,38,13,19,58,154
-16,14,30,1,-23,22,12,52,38,19,66,158
35,77,42,-56,-4,59,4,55,42,45,89,174
6,27,21,-16,-8,24,-32,8,13,27,80,187
-16,-16,0,16,-8,-8,-57,-10,-23,-5,69,185
56,29,-27,-42,41,1,-37,-32,-39,1,55,173
20,-4,-24,-7,22,-14,-17,-43,-31,-15,53,150
-62,-63,-2,63,-30,-32,-6,-42,-42,-39,37,124
-72,-55,16,63,-44,-19,1,-34,-35,-28,44,119
-90,-97,-7,93,-41,-52,7,-30,-46,-45,19,93
-67,-71,-3,69,-32,-37,15,-25,-30,-32,33,106
-66,-90,-25,78,-21,-57,18,-13,-40,-44,7,86
-60,-117,-56,89,-2,-86,26,16,-28,-8,5,91
109,-41,-149,-34,129,-95,-30,117,55,72,84,156
488,316,-172,-402,330,72,-267,-42,105,298,397,527
740,886,146,-813,297,516,-484,-335,176,688,921,1124
404,495,91,-450,156,293,-336,-415,-87,284,513,741
1,-58,-59,28,30,-59,-50,-311,-271,-193,-48,130
-47,-47,0,47,-23,-23,39,-110,-114,-90,-2,106
-43,-106,-63,75,10,-84,36,-40,-84,-95,-37,48
-80,-100,-20,90,-30,-59,47,-21,-66,-75,-20,43
-117,-153,-36,136,-40,-94,60,-9,-69,-74,-25,29
-116,-135,-19,126,-49,-77,61,-16,-69,-76,-28,25
-105,-109,-4,107,-50,-57,59,-4,-59,-62,-25,36
-90,-136,-46,114,-22,-91,60,-8,-64,-70,-38,23
-93,-88,5,91,-49,-42,60,-1,-51,-54,-19,40
-123,-94,30,108,-76,-32,58,0,-51,-56,-25,30
-107,-84,23,95,-64,-30,51,7,-42,-43,-11,40
-71,-59,12,65,-42,-23,46,10,-39,-40,-10,50
-66,-73,-7,69,-29,-39,40,15,-32,-33,-4,55
-53,-86,-34,70,-9,-60,36,20,-29,-26,6,47
-49,-83,-34,67,-8,-58,24,18,-32,-27,8,45
10,-19,-29,5,20,-24,10,38,-7,1,41,90
65,28,-37,-46,51,-5,-4,53,20,31,73,114
103,42,-61,-73,82,-9,-19,68,35,60,100,139
151,71,-79,-111,115,-4,-36,83,61,106,146,186
144,113,-31,-128,87,41,-51,78,73,128,168,207
181,156,-24,-168,102,66,-50,75,74,134,177,220
174,162,-13,-168,93,74,-44,72,85,141,189,229
141,161,20,-152,60,90,-36,67,87,136,188,228
118,101,-16,-110,67,42,-43,49,64,102,157,186
84,77,-7,-81,45,35,-23,23,31,54,110,135
16,44,27,-30,-5,35,7,-2,4,12,67,96
-81,-50,31,66,-56,-9,9,-15,-6,-4,49,55
-81,-50,31,65,-56,-9,16,-20,-6,-6,46,42
-73,-47,26,60,-49,-10,22,-28,-11,-14,36,36
-57,-44,13,51,-35,-15,25,-27,-13,-18,30,29
-30,-22,8,26,-19,-7,25,-24,-15,-24,22,23
-57,-58,-1,58,-28,-29,25,-21,-26,-30,20,15
-71,-67,5,69,-38,-31,25,-18,-32,-28,27,26
-94,-59,34,76,-64,-12,25,-16,-26,-23,31,32
-65,-42,24,53,-44,-9,25,-14,-24,-19,30,27
-59,-40,19,50,-38,-11,30,-8,-20,-14,30,25
-77,-53,24,65,-50,-14,39,0,-17,-10,37,21
-19,-11,8,15,-13,-2,40,6,-13,-5,42,20
-41,-36,5,38,-23,-16,40,13,-9,-1,47,16
-35,-45,-9,40,-13,-27,40,19,-6,3,50,15
-5,-8,-3,7,-1,-5,40,17,-1,9,44,15
-35,-22,14,28,-24,-4,40,12,-1,8,37,10
-42,-60,-18,51,-12,-39,37,9,-5,2,31,9
-67,-66,1,67,-34,-33,34,5,-8,-3,25,12
-77,-66,11,71,-44,-27,31,2,-12,-6,15,15
-71,-75,-4,73,-33,-40,29,-2,-15,-12,24,18
-75,-57,17,66,-46,-20,24,-5,-19,-15,37,20
-57,-51,6,54,-31,-22,29,-7,-20,-15,29,24
-59,-39,20,49,-39,-10,36,-10,-22,-15,25,25
-73,-34,39,53,-56,3,35,-13,-26,-18,22,22
-71,-53,18,61,-44,-17,34,-15,-23,-27,15,17
-77,-63,13,70,-45,-25,30,-18,-20,-31,18,14
-75,-29,45,52,-60,8,30,-21,-20,-30,25,10
-70,-9,61,40,-66,25,30,-24,-20,-30,25,7
-80,-37,43,58,-62,3,30,-26,-20,-29,25,4
-84,-41,43,63,-63,1,30,-30,-20,-31,25,-2
-60,-29,31,44,-45,1,30,-29,-23,-27,25,-8
-49,-23,26,35,-37,1,30,-24,-26,-25,25,-12
-77,-19,58,48,-68,19,30,-21,-24,-24,25,-19
-62,-23,39,43,-50,8,25,-17,-27,-28,25,-24
-62,-39,23,50,-42,-8,25,-14,-39,-38,25,-22
-97,-31,66,64,-81,17,24,-8,-33,-18,24,-14
-87,-7,80,47,-83,37,20,-19,-24,-8,25,-8
-91,-37,54,63,-72,9,21,-33,-16,-24,27,-1
-72,-28,44,50,-58,8,19,-13,-9,-7,35,6
-10,70,80,-30,-46,75,41,27,7,27,58,19
9,101,92,-55,-42,96,50,44,32,44,67,34
9,91,82,-51,-37,86,24,38,43,54,68,45
15,98,83,-57,-34,90,2,29,50,51,79,56
21,89,67,-55,-23,78,-11,-1,39,39,93,66
45,83,38,-64,3,60,-14,-21,8,29,81,52
52,72,21,-62,15,46,-19,-41,-24,3,43,33
26,30,4,-28,11,17,-18,-46,-43,-18,23,23
-21,16,37,2,-29,26,-7,-45,-48,-34,12,2
-47,10,56,18,-51,33,2,-39,-41,-29,18,1
-54,-42,12,48,-33,-15,13,-37,-49,-47,0,-22
-63,-39,24,50,-43,-7,20,-35,-41,-33,11,-16
-72,-85,-13,78,-29,-49,30,-23,-46,-53,-9,-38
-64,-59,5,62,-34,-27,42,-22,-11,-32,4,-39
129,19,-110,-74,119,-45,-13,89,46,58,63,28
545,354,-191,-450,368,81,-260,-56,85,268,341,379
769,867,98,-818,335,482,-498,-371,136,618,817,942
431,489,58,-460,186,273,-348,-439,-110,239,434,580
25,-4,-29,-10,27,-17,-61,-332,-251,-190,-83,-11
-52,5,57,23,-54,30,34,-116,-114,-85,-37,-30
-58,-37,22,47,-40,-8,50,-40,-85,-105,-59,-77
-100,-57,43,78,-72,-7,56,-36,-65,-87,-39,-74
-140,-110,30,124,-85,-39,55,-38,-82,-81,-57,-92
-150,-112,38,131,-94,-37,54,-41,-77,-80,-65,-104
-105,-75,30,90,-68,-22,59,-19,-70,-64,-44,-87
-85,-67,18,76,-51,-24,75,-26,-73,-71,-51,-94
-119,-70,49,94,-84,-10,68,-15,-48,-61,-40,-80
-99,-56,43,77,-71,-7,59,-17,-48,-67,-48,-83
-92,-60,32,76,-62,-14,57,-9,-38,-57,-37,-70
-96,-74,21,85,-58,-26,41,-14,-36,-62,-42,-67
-65,-72,-7,68,-29,-39,48,-26,-31,-57,-37,-59
-34,-58,-24,46,-4,-41,59,-7,-25,-47,-27,-52
-4,-24,-20,14,9,-22,38,0,-28,-38,-18,-48
8,-32,-40,13,25,-36,27,12,-30,-28,-6,-36
44,-5,-49,-19,46,-26,18,44,-13,-1,16,-18
105,63,-42,-84,73,11,-5,65,25,39,66,18
154,106,-48,-130,101,29,-33,72,44,76,95,51
187,145,-42,-165,114,51,-48,80,62,115,122,81
225,185,-39,-205,132,73,-54,98,85,133,150,105
228,184,-45,-206,136,69,-60,91,80,125,145,104
196,178,-18,-187,107,79,-49,80,72,114,137,97
105,130,25,-117,40,77,-35,61,53,84,107,71
26,77,51,-52,-13,64,-22,20,34,53,70,34
15,69,54,-42,-20,61,-2,7,25,32,44,-4
-15,48,63,-17,-39,55,12,1,2,-1,11,-46
-20,46,66,-13,-43,56,16,-6,-14,-26,-11,-71
-58,-3,55,30,-57,26,26,-12,-24,-35,-24,-77
-100,-35,65,67,-82,15,36,-19,-28,-35,-33,-75
-52,12,63,19,-57,37,30,-17,-25,-35,-29,-75
-44,12,56,16,-50,33,25,-11,-22,-33,-26,-73
-74,-31,43,52,-58,5,22,-6,-20,-30,-23,-69
-54,-30,24,42,-40,-2,15,-3,-16,-30,-18,-71
-61,-11,50,36,-55,19,18,3,-14,-27,-15,-66
-69,-1,68,34,-69,34,20,4,-19,-24,-11,-65
-37,24,61,6,-50,42,20,0,-20,-21,-11,-65
-56,4,60,26,-58,32,20,0,-20,-18,-8,-60
-103,-46,56,74,-79,5,20,0,-20,-15,-7,-60
-106,-51,54,78,-80,1,40,0,-19,-16,-2,-60
-97,-45,52,71,-74,3,47,0,-21,-22,-11,-69
-80,-31,49,55,-64,9,41,0,-26,-25,-18,-65
-93,-42,51,67,-71,4,40,-1,-29,-30,-15,-64
-93,-35,58,64,-75,11,35,-7,-34,-30,-41,-84
-26,31,57,-3,-41,43,35,-3,-35,-30,-44,-85
-53,0,53,26,-53,26,30,-8,-35,-31,-34,-85
-90,-42,48,66,-69,3,30,-33,-35,-28,-32,-85
-88,-41,47,64,-67,3,29,-33,-36,-25,-24,-85
-100,-61,39,81,-69,-11,24,-22,-33,-22,-21,-84
-76,-31,45,54,-60,8,26,-16,-30,-20,-19,-80
-64,16,80,23,-72,48,22,-7,-27,-17,-20,-80
-56,11,66,22,-61,38,20,-5,-25,-14,-20,-80
-88,-36,52,62,-69,8,20,-5,-22,-19,-20,-80
-104,-47,57,75,-80,5,16,-5,-19,-20,-20,-80
-58,-5,54,31,-56,24,14,-5,-32,-20,-18,-83
-56,0,56,27,-56,28,16,-5,-36,-25,-14,-89
-80,-26,54,53,-67,14,20,-4,-31,-25,-16,-92
-107,-49,57,78,-82,4,20,0,-30,-24,-14,-96
-124,-60,64,92,-94,2,21,0,-25,-20,-16,-105
-127,-56,70,91,-98,7,26,0,-25,-21,-26,-108
-131,-56,74,93,-102,9,25,1,-19,-18,-24,-102
-107,-31,76,69,-91,22,23,-1,-13,-14,-18,-100
-68,6,74,31,-71,39,18,5,-5,-16,-14,-95
-71,6,77,32,-74,41,15,15,0,-7,-9,-92
-88,-15,73,51,-80,29,12,25,11,6,0,-88
-54,26,80,14,-68,53,7,52,36,26,24,-76
-21,90,111,-35,-66,101,6,65,36,48,47,-60
-46,63,110,-9,-78,86,-17,44,18,44,38,-59
-8,88,96,-41,-52,92,-42,21,9,42,32,-60
52,142,90,-98,-19,116,-32,7,-3,40,23,-64
-5,99,104,-47,-54,101,-22,-14,-10,36,15,-67
-40,61,100,-11,-70,80,-13,-24,-18,27,10,-72
-41,50,91,-5,-66,70,-3,-25,-30,9,-6,-91
-51,22,73,14,-62,47,-3,-16,-29,9,-2,-97
-69,-25,44,47,-56,9,7,-15,-34,-14,-30,-120
-54,-5,49,29,-51,22,5,-10,-21,2,-29,-112
-47,-24,23,36,-35,-1,21,12,-30,-27,-67,-145
-66,-37,29,51,-47,-4,25,49,6,6,-33,-134
143,44,-99,-94,121,-28,-55,145,85,134,84,-7
540,535,-5,-538,272,265,-301,-26,181,468,515,501
660,990,329,-825,165,659,-513,-308,208,774,957,1000
281,497,216,-389,32,357,-298,-358,-93,263,405,469
-50,59,109,-5,-80,84,-31,-261,-229,-143,-82,-85
-127,-26,101,76,-114,37,8,-83,-116,-66,-51,-128
-116,-88,28,102,-72,-30,42,-14,-93,-87,-91,-175
-95,-43,52,69,-73,5,47,4,-56,-60,-65,-155
-122,-71,51,96,-86,-10,44,5,-59,-67,-84,-174
-79,-39,40,59,-59,0,47,-14,-72,-66,-79,-170
-120,-65,55,92,-87,-5,43,-2,-70,-62,-72,-166
-146,-88,58,116,-101,-15,47,1,-62,-60,-71,-167
-116,-75,41,95,-79,-16,41,9,-57,-38,-60,-159
-101,-54,47,77,-74,-4,35,17,-47,-41,-59,-161
-92,-49,43,70,-67,-4,27,18,-43,-45,-58,-159
-115,-58,57,86,-86,0,20,26,-67,-43,-76,-166
-79,-32,48,55,-63,8,12,45,-54,-27,-61,-149
-39,-16,24,27,-31,4,6,45,-40,-17,-52,-137
1,37,36,-19,-18,37,-1,45,-24,1,-32,-121
2,33,31,-18,-15,32,-11,46,-7,28,-6,-109
23,69,46,-46,-11,57,-13,64,14,58,22,-74
76,122,46,-99,15,83,-38,94,53,108,75,-24
96,131,35,-114,30,83,-58,95,64,135,98,-1
126,195,69,-161,28,132,-53,97,81,164,137,46
129,224,95,-177,17,159,-68,99,95,197,170,61
106,224,119,-165,-7,171,-64,88,84,184,158,53
104,218,114,-161,-5,165,-52,81,80,175,140,41
89,198,108,-144,-10,153,-43,71,69,146,89,-13
42,132,90,-87,-24,111,-29,54,40,92,43,-56
-17,70,88,-27,-53,79,-15,42,19,57,8,-106
-47,65,112,-9,-80,88,-2,36,10,39,-20,-144
-58,21,79,19,-69,50,3,29,-5,33,-31,-149
-66,30,96,18,-81,62,29,21,-11,30,-32,-150
-43,56,99,-6,-71,77,41,14,-15,27,-26,-152
-51,48,99,2,-76,73,27,12,-22,22,-24,-155
-78,40,118,19,-98,79,28,18,-16,20,-19,-155
-54,47,101,3,-78,74,30,21,-13,26,-15,-167
-21,80,101,-30,-62,90,30,26,-10,33,-18,-168
-34,57,92,-12,-63,74,33,31,-5,35,-26,-160
-34,52,86,-9,-60,68,36,22,-8,38,-34,-157
-30,49,80,-10,-55,64,34,25,-12,40,-40,-149
-30,42,72,-7,-51,57,30,36,-17,40,-40,-145
-24,46,71,-11,-48,58,30,35,-20,40,-40,-156
-63,26,88,18,-76,57,29,34,-16,40,-40,-166
-69,34,102,18,-86,68,25,30,-15,40,-40,-165
-56,38,94,9,-75,66,25,30,-15,40,-38,-165
-43,51,94,-4,-69,72,27,30,-15,37,-33,-165
-25,63,87,-19,-56,75,30,30,-15,35,-30,-165
-41,45,85,-3,-63,65,33,30,-15,35,-27,-163
-48,40,88,4,-68,64,36,30,-15,35,-22,-159
-68,32,100,17,-84,66,40,30,-15,35,-21,-161
-87,29,116,28,-102,72,40,29,-15,35,-31,-156
-81,31,112,25,-97,71,35,26,-14,30,-30,-154
-78,31,109,23,-93,70,30,23,-16,25,-30,-155
-52,52,104,0,-78,78,25,21,-14,22,-30,-149
-69,33,103,18,-86,68,22,17,-21,17,-30,-159
-107,-12,96,59,-101,42,16,15,-42,15,-47,-166
-77,20,97,28,-87,58,17,13,-45,15,-51,-161
-55,68,123,-7,-89,95,20,8,-45,15,-49,-159
-22,88,110,-33,-66,99,20,5,-49,15,-50,-154
7,90,83,-48,-39,86,20,2,-51,15,-50,-159
-17,86,103,-35,-60,94,21,-2,-49,20,-50,-160
-38,68,106,-16,-72,87,19,-6,-43,19,-45,-160
-29,69,98,-20,-64,83,16,3,-33,21,-38,-165
-38,84,122,-23,-80,103,10,9,-26,18,-34,-165
-41,93,135,-26,-88,114,13,22,-13,26,-23,-162
-23,141,164,-59,-93,152,34,54,15,56,8,-125
-8,157,165,-74,-87,161,17,51,16,58,16,-99
30,171,141,-101,-55,156,-19,26,-4,42,2,-119
22,174,152,-99,-65,163,-37,15,-24,36,1,-130
29,161,133,-95,-52,147,-46,3,-37,19,-15,-138
15,143,128,-79,-57,135,-45,-21,-50,16,-17,-135
-43,74,117,-16,-80,96,-41,-40,-80,3,-54,-157
-51,68,119,-9,-85,93,-27,-40,-83,-4,-71,-172
-67,49,116,9,-92,82,-14,-29,-71,-21,-69,-169
-49,57,106,-4,-77,81,3,-35,-69,-37,-82,-176
-15,107,122,-46,-69,114,21,-14,-53,-4,-66,-160
-30,40,70,-5,-50,54,28,-2,-48,-28,-100,-197
1,55,54,-28,-26,54,10,81,12,51,-26,-162
241,202,-39,-222,140,81,-104,126,83,199,143,35
581,791,210,-686,185,500,-390,-173,178,623,720,676
570,1022,453,-797,58,738,-482,-405,106,750,930,936
194,351,157,-272,18,254,-196,-367,-219,73,175,197
-50,45,95,3,-73,69,-5,-203,-233,-144,-123,-181
-46,29,75,8,-60,52,23,-46,-107,-38,-84,-176
-60,-28,32,44,-46,2,46,-21,-102,-67,-118,-219
-79,-21,59,50,-69,19,51,-1,-85,-37,-84,-198
-63,-25,38,43,-50,6,57,1,-90,-54,-104,-228
-91,-25,66,58,-78,20,55,5,-79,-40,-83,-216
-98,-56,42,77,-70,-7,54,12,-78,-55,-101,-220
-67,-22,45,44,-56,11,50,13,-72,-40,-88,-214
-52,-5,46,28,-49,20,50,21,-65,-27,-83,-209
-76,-33,43,54,-59,5,48,18,-61,-26,-88,-209
-71,-19,52,45,-61,16,40,23,-54,-13,-78,-199
-33,37,70,-3,-51,53,34,16,-52,-12,-73,-191
-8,66,74,-29,-41,70,28,28,-48,0,-54,-176
-23,38,61,-8,-42,49,20,32,-52,1,-65,-181
-16,51,67,-18,-42,59,16,36,-43,20,-56,-173
22,93,71,-58,-24,82,4,63,-16,37,-22,-135
35,97,63,-67,-14,80,-10,79,21,61,16,-95
91,167,75,-129,8,121,-23,102,54,111,64,-57
106,203,97,-155,5,149,-52,115,67,140,91,-23
151,240,89,-196,31,164,-58,122,76,175,137,24
184,272,88,-228,48,180,-44,126,70,183,143,32
187,265,78,-226,55,171,-36,115,51,178,123,7
196,292,96,-244,50,194,-37,96,54,166,122,12
65,195,129,-130,-32,162,-35,58,30,106,65,-39
19,133,114,-77,-48,123,-12,36,-15,58,14,-98
31,134,103,-83,-36,118,6,39,-26,33,-7,-125
2,94,92,-48,-45,92,12,35,-28,22,-25,-152
-14,66,79,-26,-47,72,15,30,-34,16,-42,-155
-45,33,78,6,-62,55,18,27,-51,9,-56,-161
-40,41,82,0,-61,61,23,20,-53,3,-52,-157
-4,73,77,-34,-41,74,26,22,-42,-4,-46,-152
-9,70,79,-30,-44,74,30,25,-39,-1,-41,-151
-31,65,96,-17,-64,81,30,25,-30,1,-34,-143
-33,60,93,-14,-63,76,31,29,-26,6,-30,-148
-26,59,86,-17,-56,72,35,30,-32,7,-42,-159
4,83,79,-44,-38,81,35,30,-36,15,-51,-159
-13,59,72,-23,-43,65,32,30,-34,31,-42,-153
-38,28,66,5,-53,47,30,30,-39,26,-40,-151
-17,47,64,-15,-41,56,30,30,-40,21,-35,-146
19,85,66,-53,-24,75,27,30,-40,18,-30,-145
19,82,63,-51,-22,72,24,30,-45,12,-32,-146
-6,70,76,-32,-41,73,26,27,-45,9,-26,-143
-3,77,80,-37,-42,78,24,24,-45,4,-42,-162
3,67,64,-35,-31,65,29,25,-45,12,-55,-177
-6,50,56,-23,-31,53,41,25,-45,23,-47,-168
-16,39,55,-12,-35,47,38,25,-43,19,-42,-166
-23,31,55,-5,-39,43,32,24,-38,14,-36,-165
-40,16,56,11,-48,36,30,21,-32,11,-31,-165
-3,50,53,-24,-29,51,23,18,-28,4,-26,-165
19,81,62,-50,-22,72,21,16,-24,12,-40,-164
-3,78,81,-38,-42,79,30,12,-18,23,-46,-165
13,86,72,-50,-30,79,29,10,-38,19,-39,-164
8,77,69,-43,-31,72,24,10,-53,16,-38,-159
39,101,62,-70,-11,81,22,10,-46,12,-32,-154
59,117,58,-88,0,87,17,10,-45,9,-30,-149
2,101,99,-51,-49,100,15,10,-41,4,-31,-145
-3,110,114,-53,-59,112,20,11,-40,10,-35,-139
-31,77,107,-23,-69,92,28,9,-37,13,-30,-144
-20,99,119,-40,-70,109,28,5,-29,9,-22,-147
-42,82,124,-21,-83,103,24,-7,-26,11,-16,-153
-71,54,126,8,-99,90,26,-3,-19,0,-8,-161
6,131,125,-69,-60,127,21,24,-14,23,-5,-136
-1,129,130,-64,-66,129,20,45,-8,58,6,-117
18,150,132,-84,-57,141,20,65,15,65,14,-115
14,150,137,-82,-62,143,9,61,26,85,28,-107
44,185,140,-114,-48,162,-8,47,11,85,40,-104
91,218,127,-155,-18,172,-23,33,1,75,37,-96
66,185,119,-126,-27,152,-25,19,-11,66,29,-95
81,195,114,-139,-16,154,-28,2,-27,52,22,-94
17,120,103,-69,-43,111,-31,-20,-44,53,16,-112
9,113,104,-61,-48,108,-8,-29,-60,43,-7,-136
23,130,108,-77,-43,119,19,-13,-48,51,-6,-128
-50,33,83,8,-67,58,20,-5,-54,34,-18,-158
-8,73,81,-33,-45,77,20,2,-42,47,1,-149
30,92,62,-61,-16,77,45,18,-48,30,-10,-160
5,54,49,-30,-23,52,39,41,-26,39,1,-170
177,103,-75,-140,125,14,-24,140,55,136,62,-93
554,469,-85,-511,319,191,-256,-14,108,387,388,317
786,1018,231,-902,277,624,-483,-323,171,757,907,902
436,663,227,-549,104,445,-313,-381,-80,365,500,517
11,100,89,-56,-40,95,-38,-273,-268,-121,-59,-108
-24,72,96,-24,-61,84,34,-88,-126,-35,-31,-144
-60,11,71,25,-66,41,45,-22,-96,-29,-63,-190
-41,43,84,-1,-63,63,66,-17,-76,-17,-60,-203
-25,54,79,-15,-52,67,78,-1,-72,-13,-65,-205
-64,15,79,25,-71,47,72,0,-77,-19,-64,-208
-35,47,82,-6,-59,65,61,8,-64,-3,-42,-189
-25,55,80,-15,-52,67,57,3,-74,-16,-50,-198
