I,II,III,aVR,aVL,aVF,V1,V2,V3,V4,V5,V6
-3,-186,-183,95,90,-184,-26,-5,-84,-13,-120,-90
-16,-192,-176,104,80,-184,-24,-57,-93,-14,-124,-90
1,-195,-196,97,99,-195,-27,-32,-109,-29,-130,-90
19,-195,-213,88,117,-204,-43,20,-110,-15,-130,-90
14,-195,-209,90,112,-202,-45,51,-109,-28,-130,-90
13,-195,-208,91,111,-201,-45,51,-100,-58,-128,-90
21,-196,-217,87,119,-206,-45,46,-95,-51,-144,-106
1,-195,-196,97,99,-196,-46,61,-85,-46,-157,-111
-8,-195,-187,101,90,-190,-47,41,-106,-47,-166,-109
7,-195,-202,94,105,-198,-44,25,-124,-66,-172,-110
17,-195,-211,89,115,-203,-41,7,-112,-72,-169,-110
13,-195,-208,91,111,-201,-38,-12,-117,-68,-167,-110
-1,-196,-195,99,97,-195,-35,55,-102,-72,-164,-105
11,-191,-202,90,107,-196,-34,48,-113,-69,-166,-105
17,-186,-203,85,111,-194,-52,-6,-110,-70,-169,-105
9,-181,-190,86,100,-185,-37,22,-110,-63,-170,-105
21,-174,-195,77,108,-184,-23,41,-129,-63,-170,-105
33,-171,-204,69,118,-187,-56,56,-95,-75,-170,-107
39,-179,-217,70,128,-198,-58,53,-103,-70,-169,-118
27,-193,-220,83,124,-206,-45,30,-122,-65,-173,-120
30,-187,-217,79,124,-202,-51,24,-116,-62,-178,-123
33,-176,-209,72,121,-193,-28,28,-114,-54,-174,-125
26,-156,-182,65,104,-169,-4,27,-110,-59,-158,-116
52,-125,-178,37,115,-151,-25,28,-98,-48,-138,-102
31,-125,-156,47,94,-140,-31,71,-81,-23,-134,-89
35,-125,-160,45,98,-143,-31,93,-77,-15,-137,-89
46,-125,-171,39,109,-148,-63,62,-93,-6,-138,-91
41,-125,-166,42,104,-146,-93,41,-122,-28,-141,-90
77,-124,-201,23,140,-162,-97,32,-132,-68,-142,-90
62,-145,-208,42,135,-176,-92,23,-128,-82,-145,-92
33,-157,-190,62,112,-174,-90,18,-131,-90,-160,-96
36,-154,-190,59,114,-172,-89,22,-130,-81,-167,-97
9,-156,-165,74,87,-160,-44,17,-129,-83,-164,-103
-37,-191,-154,114,59,-172,-10,26,-158,-98,-162,-118
-24,-214,-190,120,83,-202,-35,60,-162,-101,-158,-122
-30,-199,-169,115,70,-184,-31,68,-138,-97,-162,-118
-35,-203,-168,119,67,-185,-36,74,-143,-93,-174,-122
6,-189,-194,92,100,-191,-64,55,-154,-121,-181,-118
-4,-191,-186,98,91,-188,-48,49,-139,-104,-161,-121
-30,-179,-149,105,60,-164,-60,36,-153,-116,-179,-111
-8,-169,-161,89,77,-165,-62,26,-146,-94,-162,-108
-3,-161,-158,82,78,-159,-28,22,-134,-103,-175,-101
-15,-125,-109,70,48,-117,73,128,21,-22,-164,-99
70,-87,-156,9,113,-121,241,403,291,226,61,6
362,368,6,-365,178,187,-197,167,175,548,825,601
466,592,126,-529,169,359,-719,-283,-21,1072,1598,859
178,102,-77,-140,127,13,-447,-227,-147,582,787,292
27,-125,-152,49,90,-138,-136,-47,-176,-131,-74,11
32,-87,-118,28,76,-102,-66,45,-10,54,75,22
22,-100,-123,39,73,-111,-25,55,-32,41,5,-20
24,-94,-119,35,72,-106,-6,58,-10,8,-14,-19
16,-104,-119,44,67,-112,16,74,19,11,-23,-45
26,-96,-122,35,74,-109,29,59,-26,-19,-52,-39
13,-95,-108,42,61,-102,53,44,-6,0,-28,-35
28,-92,-120,32,74,-105,40,59,0,-24,-41,-31
42,-89,-130,23,86,-109,26,74,32,-5,-20,-25
17,-86,-103,35,61,-95,19,50,23,-5,-26,-22
32,-84,-116,26,74,-99,5,50,27,5,-12,-17
37,-79,-116,21,77,-97,7,47,61,12,-2,-13
31,-70,-101,19,66,-85,25,71,42,37,11,-7
26,-65,-91,19,59,-78,27,83,46,53,14,-3
52,-57,-109,2,81,-83,13,100,100,70,30,1
65,-48,-113,-8,89,-80,7,119,106,87,47,6
41,-37,-79,-2,60,-58,-18,113,106,113,67,21
57,-28,-85,-15,72,-56,-14,145,154,150,95,36
63,-14,-77,-24,70,-45,26,192,208,185,135,45
77,0,-77,-38,77,-38,51,206,236,230,173,52
67,16,-50,-41,58,-17,72,207,283,285,207,74
77,49,-28,-63,52,11,80,268,349,345,259,96
143,71,-72,-106,107,-1,92,298,387,389,297,118
132,85,-47,-108,89,19,94,305,425,438,336,140
103,106,3,-104,50,54,114,313,459,475,379,149
130,113,-17,-121,73,48,132,347,503,522,403,152
135,122,-14,-129,74,54,102,385,492,524,396,144
99,117,18,-108,40,67,67,301,429,455,382,143
96,102,7,-99,44,54,41,199,334,383,333,130
92,73,-19,-82,55,27,21,141,198,270,257,91
52,23,-29,-37,40,-3,-12,109,128,163,183,49
39,-18,-57,-10,48,-37,0,62,73,87,110,15
30,-48,-78,9,54,-63,17,22,20,30,73,-9
11,-56,-66,23,39,-61,-29,19,7,8,56,-26
-16,-65,-50,41,17,-57,-64,8,-11,-9,49,-33
-24,-72,-48,48,12,-60,-81,33,-56,-26,43,-34
10,-66,-76,28,43,-70,-85,49,-81,-44,35,-31
-1,-65,-63,33,31,-64,-79,42,-65,-44,30,-29
-11,-61,-50,36,20,-55,-77,48,-57,-38,23,-30
0,-59,-59,30,30,-59,-72,38,-42,-37,20,-30
-11,-56,-46,34,18,-51,-69,31,-62,-30,20,-30
-14,-53,-39,34,13,-46,-65,18,-72,-32,18,-30
-4,-51,-47,27,22,-49,-57,15,-49,-35,14,-30
-1,-47,-46,24,23,-46,-52,46,-49,-35,15,-30
-9,-46,-36,28,14,-41,-44,50,-44,-40,11,-30
-10,-42,-32,26,11,-37,-37,44,-41,-40,10,-30
-17,-40,-23,29,3,-31,-28,41,-37,-41,10,-30
-18,-40,-22,29,2,-31,-16,34,-35,-38,5,-35
-13,-37,-24,25,6,-30,-62,50,-60,-48,5,-35
2,-34,-36,17,19,-35,-99,47,-80,-70,4,-35
11,-36,-47,13,29,-42,-94,32,-80,-71,-4,-35
-4,-52,-48,28,23,-50,-101,23,-79,-68,-12,-35
-5,-59,-55,32,25,-56,-102,13,-87,-77,-20,-35
-9,-62,-54,36,23,-58,-106,22,-96,-85,-28,-35
-17,-64,-48,41,16,-56,-101,37,-95,-85,-34,-35
-18,-59,-41,39,11,-50,-86,50,-95,-87,-35,-35
-22,-56,-34,39,6,-45,-74,52,-95,-91,-35,-35
-24,-53,-28,39,2,-40,-63,38,-94,-90,-35,-35
-29,-48,-19,39,-5,-33,-60,35,-96,-87,-35,-40
-13,-44,-31,29,9,-37,-52,24,-93,-85,-34,-40
-3,-50,-47,27,22,-48,-49,20,-99,-85,-30,-41
-5,-52,-47,28,21,-50,-40,0,-106,-85,-30,-45
3,-50,-52,24,28,-51,-44,-52,-114,-85,-30,-44
5,-50,-55,23,30,-52,-78,-17,-129,-86,-30,-48
6,-46,-52,20,29,-48,-83,5,-124,-94,-30,-50
5,-44,-49,19,28,-46,-73,10,-113,-95,-30,-50
2,-49,-50,24,26,-49,-68,31,-93,-94,-44,-50
-11,-56,-45,34,17,-50,-61,6,-83,-95,-52,-50
-10,-55,-45,33,18,-50,-53,18,-87,-95,-49,-50
-9,-55,-46,32,19,-51,-53,42,-80,-95,-51,-55
-13,-55,-42,35,15,-48,-61,58,-104,-106,-49,-55
7,-55,-62,24,35,-58,-61,8,-119,-113,-51,-55
13,-54,-67,21,40,-60,-76,-44,-109,-106,-66,-67
24,-46,-70,11,47,-57,-91,18,-125,-119,-64,-67
33,-38,-71,3,52,-54,-83,52,-122,-124,-51,-58
17,-30,-47,7,32,-38,-74,48,-97,-106,-44,-53
15,-22,-37,4,26,-29,-66,52,-79,-89,-38,-46
10,-14,-25,2,18,-19,-60,51,-60,-67,-31,-38
18,-1,-19,-9,19,-10,-60,85,-58,-58,-17,-28
27,7,-19,-17,23,-6,-59,71,-52,-64,-4,-17
17,5,-12,-10,14,-3,-60,61,-49,-68,-5,-13
35,0,-35,-17,35,-17,-60,58,-74,-71,-13,-15
64,-2,-65,-31,65,-33,-61,-16,-108,-82,-19,-15
57,-7,-65,-24,61,-36,-84,2,-106,-96,-26,-22
56,-9,-65,-23,61,-37,-104,27,-110,-102,-32,-31
45,-20,-65,-12,55,-42,-110,17,-145,-108,-39,-39
13,-51,-64,20,39,-58,-99,11,-138,-117,-52,-50
-7,-73,-66,41,29,-69,-78,-22,-142,-128,-67,-63
-56,-100,-44,78,-6,-71,-63,1,-157,-137,-76,-77
-45,-101,-56,73,6,-79,-57,12,-144,-139,-76,-73
-22,-94,-72,59,25,-83,-44,8,-130,-124,-73,-76
-37,-88,-51,62,7,-69,-36,7,-133,-130,-79,-74
-7,-79,-72,43,32,-75,-56,1,-123,-111,-70,-74
-21,-73,-52,48,15,-62,-68,-27,-128,-116,-82,-79
-16,-58,-42,37,13,-50,-63,-49,-140,-101,-78,-78
-22,-61,-38,42,8,-49,-46,-14,-119,-98,-88,-91
-80,-10,70,45,-74,30,31,44,-53,-74,-76,-55
-23,17,40,3,-32,28,211,310,183,129,70,22
303,347,44,-325,129,195,-114,257,275,435,676,494
529,676,146,-603,191,411,-745,-263,189,1076,1527,883
246,289,42,-267,102,165,-568,-312,15,813,1000,414
4,-27,-32,12,18,-29,-138,-100,-160,-54,46,42
-40,-6,34,23,-37,14,-48,-31,-35,36,90,62
-58,-14,44,36,-51,15,-44,-16,9,57,73,8
-14,8,22,3,-18,15,-60,-14,-31,-19,7,-18
-41,-8,32,24,-37,12,-31,30,-2,25,4,-42
-58,-25,33,41,-45,4,-22,34,-3,-21,-33,-39
-35,-21,13,28,-24,-4,-11,54,19,5,-4,-32
-44,-14,30,29,-36,8,1,57,16,-24,-14,-31
-65,-8,57,36,-61,24,4,59,11,-4,7,-23
-40,2,42,19,-41,21,18,64,34,1,7,-22
-13,12,26,0,-20,19,19,68,66,16,16,-15
-25,11,36,7,-30,23,36,78,72,47,24,-12
-55,7,62,24,-59,34,46,50,50,56,25,-6
-57,5,62,26,-60,33,39,75,74,66,41,-3
-46,9,55,19,-50,31,37,103,119,68,41,2
-49,21,71,14,-60,46,27,94,123,96,55,7
3,44,40,-24,-19,42,31,88,141,121,87,11
38,55,18,-47,10,36,62,109,170,142,99,19
35,73,38,-55,-1,55,91,136,203,181,117,21
20,76,56,-49,-18,66,105,136,227,214,152,35
48,90,42,-69,3,66,101,169,299,272,187,56
75,127,52,-101,11,90,112,215,386,338,231,73
75,141,66,-108,4,103,104,269,408,379,271,98
103,148,45,-126,29,96,121,294,469,432,309,113
92,157,65,-125,14,111,172,269,492,467,348,117
108,180,72,-144,18,126,143,308,511,504,376,130
82,177,95,-130,-7,136,115,327,529,526,386,139
65,162,96,-114,-15,129,104,286,476,498,377,132
87,154,67,-121,9,111,82,218,403,431,341,117
59,118,60,-89,-1,89,56,109,255,303,266,82
55,74,19,-65,18,46,35,55,154,193,173,32
38,39,1,-39,18,20,33,40,88,110,104,-16
23,15,-9,-19,16,3,20,-2,17,33,60,-52
-18,-19,-1,19,-9,-10,39,-41,-2,-8,24,-68
-60,-41,19,50,-40,-11,58,-47,-37,-28,10,-73
-42,-37,5,39,-23,-16,49,-44,-46,-31,5,-73
-20,-30,-10,25,-5,-20,48,-46,-52,-50,-3,-70
-18,-27,-9,23,-4,-18,43,-50,-62,-55,-11,-70
-24,-18,5,21,-14,-6,40,-58,-52,-39,-18,-70
-11,-18,-7,14,-2,-12,40,-58,-50,-54,-24,-70
-20,-44,-24,32,2,-33,40,-48,-47,-61,-24,-70
-18,-35,-18,26,0,-26,40,-37,-36,-50,-19,-86
-55,-16,39,36,-47,11,40,-30,-57,-51,-21,-90
-76,-16,61,46,-68,22,40,-13,-66,-42,-17,-84
-7,-7,0,7,-3,-4,55,-30,-52,-41,-15,-82
-10,-5,6,7,-8,0,59,-45,-57,-71,-15,-77
-14,5,19,4,-17,12,49,-37,-50,-67,-18,-75
-3,-2,0,3,-2,-1,48,-31,-51,-41,-25,-75
-41,-16,25,29,-33,4,12,-27,-49,-47,-28,-75
-47,-15,32,31,-39,8,-26,-40,-69,-74,-51,-75
-30,-14,15,22,-22,1,-19,-23,-63,-76,-62,-75
-21,-16,5,19,-13,-5,6,-13,-61,-74,-59,-75
-36,-14,22,25,-29,4,30,-20,-111,-108,-64,-78
-50,-17,33,33,-41,8,45,-6,-91,-99,-65,-81
-42,-45,-3,44,-19,-24,19,2,-76,-87,-64,-79
-16,-51,-35,34,10,-43,-10,-17,-98,-98,-61,-80
-7,-43,-36,26,15,-39,0,-37,-113,-92,-60,-80
-35,-43,-8,39,-13,-25,14,-34,-116,-90,-60,-79
-57,-36,21,46,-39,-7,29,-35,-115,-93,-65,-86
-47,-36,11,41,-28,-12,23,-35,-121,-118,-72,-91
-30,-40,-10,35,-10,-25,12,-35,-118,-125,-68,-84
-19,-48,-30,34,6,-39,0,-34,-124,-116,-65,-80
-25,-48,-23,37,0,-35,-11,-26,-124,-115,-63,-77
-61,-41,20,51,-41,-10,-28,-25,-127,-108,-58,-69
-72,-37,35,54,-53,-1,-81,-15,-122,-105,-71,-80
-52,-30,22,41,-37,-4,-98,-30,-132,-110,-87,-92
-46,-25,21,35,-33,-2,-93,-60,-136,-118,-84,-89
-31,-21,10,25,-20,-5,-97,-41,-105,-122,-85,-90
-10,-36,-26,23,8,-30,-94,-32,-108,-118,-85,-91
-36,-55,-18,46,-8,-37,-96,-36,-109,-116,-85,-88
-40,-55,-15,47,-12,-35,-91,-32,-101,-112,-89,-98
-15,-55,-40,36,13,-47,-84,-70,-102,-109,-86,-104
-22,-55,-32,39,6,-43,-78,-85,-93,-118,-79,-95
-25,-56,-31,41,4,-44,-70,-91,-98,-122,-72,-90
-23,-48,-25,36,2,-37,-65,-104,-107,-111,-66,-82
-21,-21,0,21,-11,-11,-58,-86,-105,-104,-58,-76
-5,23,27,-9,-16,25,-71,-67,-92,-93,-56,-74
28,54,27,-41,0,40,-76,-54,-83,-74,-61,-71
61,45,-16,-53,38,15,-56,-56,-81,-77,-61,-69
51,31,-19,-41,35,6,-80,-53,-76,-84,-60,-64
54,26,-28,-40,41,-1,-109,-69,-112,-106,-61,-67
43,15,-28,-29,35,-7,-100,-87,-139,-126,-59,-70
10,1,-8,-6,9,-3,-101,-88,-133,-126,-61,-73
-3,-18,-15,10,7,-16,-96,-91,-136,-129,-58,-77
-26,-23,2,25,-14,-10,-95,-95,-135,-130,-68,-79
-1,-32,-31,17,15,-31,-113,-117,-153,-145,-100,-97
-32,-81,-48,56,8,-64,-91,-139,-165,-152,-106,-109
-60,-92,-33,76,-13,-62,-73,-137,-167,-173,-105,-106
-35,-78,-42,57,4,-59,-76,-123,-146,-160,-105,-98
-53,-84,-30,69,-11,-57,-74,-127,-138,-133,-115,-98
-30,-68,-38,50,4,-53,-96,-99,-140,-142,-124,-88
-46,-76,-30,61,-8,-52,-77,-75,-131,-121,-114,-89
-88,-59,29,73,-58,-15,-55,-85,-157,-137,-124,-85
-65,-71,-6,68,-29,-39,-38,-68,-110,-109,-105,-98
-84,-51,33,67,-58,-9,-33,-54,-99,-128,-126,-98
-86,-1,85,43,-85,42,76,118,42,-22,-73,-70
73,89,16,-81,28,52,179,380,277,208,189,113
429,554,125,-492,151,339,-360,54,224,639,1014,705
478,615,137,-547,170,376,-775,-441,90,1109,1509,783
139,148,9,-144,65,78,-407,-325,-139,411,530,168
26,22,-4,-24,15,9,-126,-113,-168,-149,-64,-53
-3,31,35,-14,-20,33,-71,-58,0,68,84,-32
-33,19,52,7,-43,35,-46,-35,-35,-27,-12,-46
-27,24,51,1,-39,37,-50,-38,-44,-29,-14,-36
-15,11,26,2,-21,18,-36,7,-28,-28,-39,-54
19,22,3,-21,8,12,-37,16,-9,-35,-48,-49
-25,29,54,-2,-40,41,-28,4,2,-16,-43,-51
-21,33,54,-6,-37,43,-22,21,-6,-55,-44,-50
-21,27,48,-3,-35,38,-38,16,30,-33,-28,-50
-25,25,50,-1,-38,37,-44,3,32,-33,-30,-51
-38,24,62,7,-50,43,-30,-9,32,-13,-17,-48
-59,17,75,21,-67,46,-24,1,60,-4,-17,-44
13,36,23,-25,-5,30,-18,40,61,6,-11,-39
19,59,40,-39,-11,49,-10,56,78,38,-3,-36
-6,59,65,-27,-36,62,-4,74,104,38,16,-30
1,65,64,-33,-32,64,0,96,120,64,36,-24
1,71,70,-36,-35,70,22,112,144,104,50,-10
17,84,67,-51,-25,76,33,131,179,125,79,1
6,88,82,-47,-38,84,25,157,234,177,109,8
2,95,94,-49,-46,94,26,188,266,214,137,31
34,120,86,-77,-26,102,33,215,312,256,182,53
24,130,106,-77,-41,118,48,248,371,319,222,80
23,162,138,-93,-58,150,56,284,413,371,259,94
68,191,122,-130,-28,156,81,309,468,417,303,104
74,185,111,-130,-19,148,105,332,502,450,339,122
70,190,120,-130,-25,154,92,341,504,472,351,115
86,204,117,-145,-16,160,58,312,494,480,348,106
73,194,121,-134,-24,158,19,267,419,435,328,102
51,172,122,-112,-36,147,-1,225,319,339,283,91
61,131,70,-96,-5,100,-32,165,230,229,201,47
29,81,51,-55,-12,66,-49,73,112,110,114,-4
6,56,50,-31,-23,53,-42,10,37,18,51,-27
15,34,19,-25,-2,26,-47,-19,-30,-33,4,-57
-45,4,48,20,-46,26,-44,-38,-63,-64,-30,-77
-62,-6,56,34,-59,25,-46,-56,-51,-83,-49,-79
-50,-30,20,39,-35,-5,-61,-64,-88,-95,-66,-101
-22,-42,-20,32,-1,-30,-83,-57,-108,-103,-80,-116
37,-14,-51,-12,44,-32,-89,-56,-104,-109,-73,-116
9,-6,-15,-1,12,-11,-68,-51,-105,-103,-65,-110
28,-4,-32,-12,30,-18,-48,-48,-107,-95,-60,-112
30,3,-28,-16,29,-12,-66,-44,-86,-91,-52,-102
-25,5,31,10,-28,18,-90,-29,-37,-80,-52,-74
-12,10,22,1,-17,16,-82,-7,-40,-91,-55,-81
-29,22,51,4,-40,36,-81,11,-41,-101,-43,-88
-25,36,61,-6,-43,48,-53,6,-43,-87,-63,-83
8,35,27,-22,-10,31,-49,-5,-86,-113,-97,-90
43,31,-11,-37,27,10,-81,-19,-72,-137,-93,-96
13,28,15,-21,-1,21,-59,-18,-69,-126,-89,-94
-66,15,81,25,-73,47,-24,14,-92,-125,-86,-90
-44,23,68,10,-56,45,-14,20,-84,-122,-81,-88
-30,22,52,4,-41,37,-44,5,-105,-119,-79,-84
-46,-2,44,24,-45,21,-67,5,-110,-116,-75,-88
-60,-17,43,38,-51,13,-50,3,-93,-114,-74,-90
-76,-25,51,50,-64,13,-41,9,-103,-124,-92,-93
-42,16,57,13,-50,36,-52,23,-105,-127,-102,-96
-19,29,48,-5,-34,38,-52,23,-106,-125,-102,-99
-17,19,36,-1,-27,27,-64,16,-103,-125,-106,-100
-15,21,36,-4,-25,28,-72,15,-107,-122,-109,-95
-14,14,28,0,-22,21,-54,-2,-102,-119,-110,-90
-23,17,40,3,-32,28,-60,-29,-94,-121,-105,-85
-63,-11,52,37,-57,20,-59,4,-110,-124,-105,-81
-80,-28,53,54,-66,12,-54,33,-99,-125,-105,-76
-72,-16,56,44,-64,20,-54,21,-92,-125,-104,-77
-66,-16,50,41,-57,16,-48,17,-101,-127,-106,-81
-58,-10,48,34,-53,19,-53,7,-99,-131,-102,-79
-47,-4,43,25,-45,19,-55,1,-95,-129,-100,-80
-65,-25,40,45,-52,7,-58,-7,-93,-134,-100,-79
-93,-38,55,65,-74,9,-61,-16,-82,-135,-100,-81
-90,-34,56,62,-72,11,-64,-32,-95,-136,-115,-86
-79,-33,46,56,-62,6,-66,-23,-130,-159,-121,-85
-68,-29,39,48,-53,5,-70,4,-131,-162,-119,-85
-65,-31,34,47,-49,1,-70,2,-110,-149,-125,-85
-48,-24,24,35,-36,0,-71,-19,-126,-144,-137,-85
-33,-11,22,22,-27,5,-75,-43,-148,-135,-143,-84
-8,1,8,3,-8,4,-75,-18,-105,-125,-135,-81
-7,16,23,-4,-16,19,-73,6,-70,-108,-124,-78
-17,37,54,-10,-36,45,-68,-13,-67,-101,-123,-76
10,46,36,-28,-13,41,-69,-8,-58,-101,-125,-72
5,33,28,-19,-11,30,-60,-35,-65,-99,-126,-71
35,22,-13,-29,24,5,-79,-80,-112,-140,-142,-67
53,14,-39,-33,46,-12,-120,-51,-131,-164,-145,-65
31,6,-25,-18,27,-9,-119,-33,-120,-157,-139,-62
10,-2,-13,-4,12,-7,-103,-33,-130,-168,-135,-58
13,-9,-23,-2,18,-16,-87,-18,-117,-161,-151,-80
9,-27,-37,9,23,-32,-73,-43,-132,-178,-180,-98
-25,-53,-28,39,2,-40,-60,-70,-163,-195,-188,-114
-31,-56,-25,44,-2,-40,-54,-76,-153,-193,-192,-121
-42,-60,-19,51,-12,-39,-49,-75,-141,-187,-188,-119
-34,-53,-19,44,-7,-36,-46,-75,-135,-186,-192,-121
-67,-64,3,66,-35,-31,-38,-76,-127,-181,-189,-118
-59,-77,-18,68,-21,-47,-33,-73,-139,-174,-187,-123
-12,-53,-41,33,15,-47,-63,-68,-132,-182,-185,-109
-50,-68,-18,59,-15,-43,-57,-29,-131,-163,-172,-107
-63,-16,47,39,-54,15,2,9,-86,-149,-185,-87
-59,-13,46,36,-53,16,211,248,169,48,-95,-70
173,233,60,-203,56,146,111,357,285,315,366,300
460,693,233,-577,113,463,-526,-182,137,868,1307,851
289,457,169,-373,60,312,-609,-429,-30,963,1228,562
87,82,-5,-84,45,38,-211,-179,-177,55,97,64
66,72,5,-69,30,38,-56,-87,-116,-138,-99,36
-13,44,57,-16,-35,51,1,-57,-40,43,-2,-2
-35,39,74,-3,-55,56,9,-57,-54,-49,-114,-30
-26,27,54,-1,-40,40,29,-51,-28,-30,-85,-32
-47,16,64,15,-56,40,33,-48,-25,-81,-121,-43
-48,9,57,19,-53,33,3,-52,-5,-65,-107,-40
-41,2,43,19,-43,22,1,-49,-29,-74,-127,-49
-22,15,37,3,-29,26,1,-43,-52,-78,-127,-48
15,16,0,-15,7,8,13,6,-15,-68,-114,-51
9,18,9,-13,-1,13,27,16,-4,-57,-111,-50
-6,26,32,-10,-20,29,35,27,9,-28,-97,-49
-12,33,45,-11,-29,39,51,41,34,-20,-103,-38
-44,31,75,6,-60,53,64,30,52,-1,-96,-24
-17,29,46,-6,-31,37,53,16,62,4,-77,-16
23,32,9,-27,7,20,47,39,80,37,-50,-9
-15,27,42,-6,-29,34,40,76,126,70,-40,-6
-15,48,63,-16,-39,55,31,82,140,94,-22,4
20,77,57,-49,-19,67,47,119,167,134,3,20
24,74,51,-49,-14,62,59,136,224,173,31,40
12,91,79,-52,-34,85,62,141,258,233,74,64
25,113,88,-70,-32,101,64,165,307,283,109,78
47,130,83,-89,-18,106,74,184,361,332,155,92
63,148,86,-106,-12,117,98,218,412,392,203,115
68,159,91,-114,-12,124,113,253,455,436,231,137
82,181,99,-131,-9,139,136,261,487,473,260,142
118,189,71,-154,23,130,130,244,475,488,272,149
75,186,111,-131,-18,148,95,242,455,460,265,149
64,175,111,-120,-24,143,81,212,384,388,241,124
31,129,98,-80,-34,113,75,142,241,289,166,85
-11,73,83,-31,-47,78,43,48,129,158,62,39
-4,32,36,-14,-21,33,11,-32,30,52,-16,7
-25,2,27,11,-26,15,16,-23,-10,-10,-81,-30
-2,-14,-12,8,5,-13,2,-43,-55,-67,-134,-66
-65,-36,29,50,-47,-4,5,-64,-106,-87,-150,-74
-89,-45,44,67,-66,0,17,-59,-120,-93,-158,-81
-68,-35,34,51,-51,-1,6,-71,-116,-91,-166,-83
-96,-30,67,63,-81,18,7,-46,-106,-88,-165,-78
-68,-22,46,44,-56,12,-2,-50,-111,-108,-163,-75
-84,-16,67,50,-75,25,-3,-51,-83,-111,-160,-72
-71,-14,57,42,-63,21,-13,-34,-93,-108,-160,-67
-15,-11,4,13,-10,-3,-22,-54,-124,-107,-157,-65
-51,-9,42,30,-46,17,-10,-78,-125,-103,-151,-75
-71,-5,67,38,-69,31,-3,-71,-123,-107,-146,-76
-34,-6,28,20,-31,11,11,-47,-113,-110,-144,-69
-45,-11,34,28,-39,12,9,-44,-112,-109,-135,-66
-91,-9,82,50,-87,37,-5,-47,-102,-116,-140,-62
-80,-11,69,45,-74,28,-7,-49,-102,-114,-149,-55
-63,-8,54,35,-58,23,4,-53,-106,-117,-155,-62
-50,-8,42,29,-46,17,4,-55,-109,-134,-174,-76
10,-10,-20,1,15,-15,-6,-58,-140,-144,-177,-75
-40,-18,22,29,-31,2,-10,-67,-146,-156,-178,-75
-72,-44,28,58,-49,-8,-19,-66,-130,-155,-187,-75
-20,-46,-25,33,3,-35,-16,-63,-126,-154,-191,-74
-35,-45,-10,40,-12,-28,-10,-61,-124,-163,-190,-77
-51,-51,0,51,-25,-25,-2,-56,-125,-167,-190,-80
-66,-50,17,58,-42,-16,18,-56,-124,-164,-190,-80
-63,-48,15,56,-39,-16,18,-51,-126,-160,-189,-82
-80,-42,37,61,-58,-2,7,-51,-121,-160,-193,-86
-93,-37,55,65,-74,9,5,-39,-139,-152,-195,-85
-76,-34,43,55,-59,4,-16,-55,-145,-163,-195,-85
-76,-29,48,52,-62,9,-51,-100,-136,-180,-195,-85
-66,-24,42,45,-54,9,-56,-102,-137,-181,-195,-85
-66,-29,38,47,-52,4,-54,-104,-125,-177,-195,-85
-57,-30,26,43,-41,-2,-56,-109,-162,-191,-190,-85
-52,-30,22,41,-37,-4,-54,-109,-159,-209,-190,-86
-37,-27,10,32,-23,-8,-56,-114,-130,-197,-190,-90
-49,-25,24,37,-36,0,-51,-114,-152,-187,-190,-90
-80,-25,55,52,-67,15,-48,-117,-149,-185,-190,-90
-64,-22,41,43,-52,9,-43,-119,-150,-185,-187,-90
-68,-18,50,43,-59,15,-31,-121,-150,-181,-185,-90
-56,-17,39,36,-47,11,-15,-103,-149,-180,-181,-87
-42,-11,31,27,-36,10,-6,-83,-148,-179,-180,-82
-32,25,57,3,-44,40,4,-76,-137,-164,-164,-79
-10,56,65,-23,-38,60,9,-70,-129,-142,-143,-62
-25,59,84,-17,-55,71,-7,-75,-128,-138,-134,-54
-16,57,73,-20,-45,65,-11,-74,-131,-129,-127,-56
6,49,43,-28,-19,46,-31,-79,-131,-128,-129,-55
22,40,18,-31,2,29,-61,-79,-139,-170,-133,-55
47,25,-22,-36,34,1,-68,-83,-127,-176,-138,-54
53,11,-41,-32,47,-15,-67,-91,-138,-176,-148,-56
29,1,-28,-15,29,-14,-60,-89,-134,-180,-150,-39
10,-13,-23,2,17,-18,-57,-116,-126,-173,-150,-45
-6,-20,-14,14,4,-17,-48,-112,-170,-196,-166,-65
-46,-43,3,44,-24,-19,-29,-103,-164,-194,-179,-77
-57,-57,0,57,-28,-28,-28,-137,-157,-196,-189,-92
-70,-54,16,62,-43,-19,-27,-109,-152,-188,-183,-87
-98,-56,43,77,-70,-6,-13,-91,-141,-191,-183,-87
-62,-48,13,55,-38,-17,-16,-107,-148,-189,-179,-80
-44,-52,-9,48,-18,-30,8,-97,-161,-191,-174,-82
-46,-47,-1,47,-22,-24,12,-101,-176,-214,-179,-77
-59,-63,-4,61,-27,-33,30,-58,-150,-181,-161,-83
-89,-14,75,51,-81,30,39,-38,-132,-201,-175,-77
-83,3,86,39,-85,44,157,122,81,-30,-113,-53
116,174,58,-145,29,116,186,292,276,214,244,234
472,674,202,-573,135,438,-417,-99,206,784,1198,847
370,561,191,-466,89,376,-623,-412,36,1053,1365,719
26,61,35,-44,-5,48,-176,-224,-183,159,250,107
-41,6,47,17,-45,27,-12,-83,-140,-148,-97,13
-38,43,81,-3,-60,62,42,-57,-32,30,11,25
-37,36,73,1,-55,54,59,-58,-48,-86,-82,-4
-38,34,72,2,-55,53,50,-41,-29,-58,-57,1
-36,26,63,5,-50,44,93,-34,-27,-77,-85,-15
-36,25,61,5,-49,43,107,-77,-15,-57,-70,-14
-32,19,51,7,-42,34,98,-73,-9,-54,-76,-26
-32,26,57,3,-45,41,87,-19,-5,-50,-71,-19
-53,24,77,14,-66,51,92,13,4,-44,-68,-21
-47,25,73,10,-60,49,89,1,6,-56,-72,-19
-46,24,71,11,-59,47,90,-2,14,-33,-60,-14
-39,28,67,6,-54,47,90,7,33,-25,-59,-16
-28,37,65,-5,-47,51,89,-5,37,-12,-51,-12
-14,47,61,-17,-38,53,91,-2,53,-1,-46,-4
7,42,35,-25,-15,39,89,13,68,4,-42,6
-5,52,57,-23,-32,54,94,26,93,33,-25,14
-23,69,92,-23,-58,81,111,59,148,75,13,25
-14,74,88,-30,-51,81,117,80,173,95,38,36
6,91,85,-49,-40,88,123,108,223,144,74,50
19,102,83,-61,-32,92,134,134,263,195,106,61
53,132,79,-92,-13,105,152,167,296,232,137,72
76,156,80,-116,-3,118,191,199,354,294,185,96
66,177,111,-122,-23,143,203,227,406,354,231,118
79,207,128,-143,-25,167,193,274,462,404,278,136
81,204,123,-143,-21,163,186,293,491,443,309,144
72,199,127,-136,-28,163,177,296,487,452,318,136
76,198,122,-138,-23,160,172,250,462,439,321,124
61,190,129,-126,-35,160,125,182,383,389,293,114
55,158,103,-107,-24,130,56,134,256,274,211,97
35,107,72,-71,-19,89,15,82,161,148,130,62
-10,58,69,-24,-40,63,-3,17,88,60,59,11
-4,34,38,-15,-21,35,7,-35,7,-13,0,-30
-6,25,31,-10,-19,28,27,-46,-34,-66,-45,-53
-30,-4,26,16,-28,11,30,-55,-49,-85,-81,-71
-39,-20,19,29,-29,0,31,-69,-70,-98,-86,-78
-37,-21,17,29,-27,-2,36,-71,-78,-101,-89,-82
-20,-19,1,20,-11,-8,34,-68,-71,-99,-92,-86
-35,-17,18,26,-27,1,31,-76,-90,-101,-94,-85
-62,-32,30,46,-45,-1,29,-85,-91,-99,-98,-85
-47,-29,18,38,-33,-5,31,-81,-75,-101,-100,-85
-20,-18,2,19,-11,-7,28,-74,-98,-107,-98,-85
-38,-12,26,25,-32,7,37,-73,-80,-114,-92,-80
-65,-3,62,34,-63,29,54,-65,-50,-115,-89,-77
-55,0,55,27,-55,27,55,-64,-63,-115,-84,-73
-37,5,42,16,-40,23,63,-55,-67,-116,-80,-70
-61,7,68,26,-64,37,66,-35,-80,-115,-86,-66
-49,12,61,18,-55,36,60,-63,-79,-116,-93,-63
9,15,6,-12,1,11,61,-97,-84,-120,-96,-59
-16,11,27,2,-22,19,48,-95,-110,-119,-94,-54
-21,5,26,8,-24,15,31,-66,-110,-123,-96,-73
2,0,-2,-1,2,-1,30,-50,-110,-125,-107,-87
-8,-6,2,7,-4,-2,30,-48,-111,-125,-112,-84
-10,-12,-1,11,-4,-6,30,-37,-108,-127,-115,-86
-16,-15,1,16,-8,-7,30,-35,-113,-135,-119,-85
-14,-15,-1,15,-6,-7,30,-24,-115,-149,-121,-85
-17,-15,2,15,-9,-6,40,-24,-129,-151,-125,-89
-23,-19,4,21,-13,-7,39,-14,-131,-149,-125,-90
-21,-25,-4,23,-8,-14,26,-20,-124,-151,-125,-90
-14,-31,-17,23,2,-23,18,-51,-118,-149,-125,-90
-22,-36,-15,29,-3,-25,8,-64,-109,-151,-125,-90
-33,-42,-9,38,-12,-25,3,-74,-108,-149,-125,-89
-46,-45,1,45,-23,-21,29,-52,-88,-150,-124,-85
-48,-48,0,47,-24,-24,17,-70,-133,-160,-120,-85
-12,-50,-38,31,13,-44,-17,-74,-154,-161,-120,-82
-8,-54,-46,31,19,-49,-7,-43,-116,-160,-120,-79
-20,-55,-35,38,8,-45,3,-37,-113,-159,-120,-80
-22,-55,-33,39,6,-44,11,-36,-118,-155,-120,-76
-29,-54,-25,42,-2,-39,-1,-77,-137,-155,-117,-75
-35,-57,-22,46,-6,-39,-48,-94,-133,-153,-114,-75
-42,-62,-19,52,-11,-40,-49,-81,-116,-149,-111,-75
-38,-58,-20,48,-9,-39,-30,-80,-111,-147,-108,-75
-42,-57,-15,50,-13,-36,-21,-81,-126,-144,-106,-73
-36,-50,-15,44,-10,-32,-18,-47,-117,-140,-103,-63
-18,-33,-15,26,-1,-23,-45,-16,-104,-141,-101,-50
15,16,1,-16,7,8,-50,-33,-95,-111,-97,-45
43,20,-23,-31,33,-2,-39,-29,-76,-94,-96,-46
22,-15,-37,-3,30,-26,-36,-31,-81,-95,-91,-45
12,-19,-31,4,21,-25,-26,-57,-82,-99,-90,-46
8,-47,-56,20,32,-51,-22,-64,-86,-130,-94,-45
-18,-52,-34,35,8,-43,-14,-89,-105,-136,-97,-44
1,-50,-51,25,26,-50,-7,-80,-130,-134,-95,-37
21,-65,-86,22,54,-75,-15,-38,-132,-135,-95,-30
-7,-70,-63,39,28,-66,-25,-56,-127,-153,-113,-50
-26,-94,-68,60,21,-81,-26,-74,-134,-175,-130,-68
-38,-113,-75,76,19,-94,-16,-67,-140,-169,-135,-81
-27,-107,-80,68,27,-93,-10,-72,-133,-173,-143,-79
-39,-112,-73,76,17,-92,-2,-68,-120,-160,-137,-83
-62,-109,-47,86,-8,-77,3,-71,-118,-167,-143,-86
-46,-110,-63,78,9,-86,7,-81,-108,-152,-138,-83
-60,-114,-54,87,-3,-84,9,-87,-127,-158,-141,-92
-50,-102,-52,76,1,-77,-8,-98,-126,-162,-148,-86
-51,-111,-60,81,5,-85,-1,-82,-112,-151,-147,-96
-71,-29,42,50,-56,7,49,-15,-76,-132,-130,-60
-53,-19,34,36,-44,7,244,230,171,62,-23,-12
248,248,1,-248,123,124,40,252,303,341,498,403
573,656,83,-615,245,369,-625,-237,206,982,1408,882
294,322,28,-308,133,174,-567,-415,-1,878,1087,487
3,-57,-60,27,32,-58,-122,-172,-185,-41,32,55
22,-23,-45,0,34,-33,-6,-59,-76,-99,-26,47
16,-10,-26,-2,21,-18,37,-45,-23,-17,23,-1
2,-22,-24,11,13,-23,52,-46,-37,-66,-58,-6
-18,-39,-21,28,1,-29,67,-38,-5,-21,-46,-16
-14,-35,-21,24,4,-27,76,-23,-16,-73,-77,-21
-13,-35,-22,24,5,-28,72,-10,8,-49,-58,-24
-19,-34,-15,27,-2,-24,71,-1,3,-61,-77,-34
-22,-28,-6,25,-8,-17,67,14,23,-49,-70,-32
-28,-32,-4,30,-12,-17,65,-3,37,-47,-77,-31
-35,-25,10,30,-22,-7,67,-7,33,-47,-69,-24
-24,-20,3,22,-13,-8,70,42,76,-24,-55,-24
-31,-15,16,23,-23,1,72,45,84,-5,-47,-18
-33,-9,24,21,-28,7,74,40,89,15,-30,-15
-16,-4,11,10,-13,3,77,38,88,17,-21,-10
-15,2,18,6,-17,10,100,34,99,38,-9,-1
22,8,-14,-15,18,-3,114,27,105,60,0,7
12,28,16,-20,-2,22,118,46,116,84,28,16
-9,39,48,-15,-28,43,128,102,189,123,59,28
16,45,29,-31,-7,37,136,112,230,161,85,38
44,77,33,-61,5,55,136,131,264,210,120,54
72,96,24,-84,24,59,132,199,318,260,154,68
77,113,36,-95,20,74,151,253,393,327,211,96
60,128,68,-94,-4,98,158,271,423,375,255,126
83,149,66,-116,8,107,173,316,473,417,288,134
91,165,74,-129,8,119,202,336,532,472,334,148
61,151,90,-106,-15,120,186,304,502,462,341,141
91,144,53,-118,19,98,169,253,462,421,313,129
76,129,53,-102,11,90,140,200,357,362,271,119
48,104,56,-76,-5,80,107,126,238,244,199,72
31,61,30,-46,0,45,88,60,133,126,106,24
-8,10,18,-1,-13,14,69,34,48,44,32,-12
18,-12,-30,-3,24,-21,52,-37,-21,-46,-24,-43
6,-39,-45,17,26,-42,48,-66,-90,-81,-55,-68
-5,-56,-51,31,24,-54,56,-56,-104,-91,-77,-72
23,-54,-77,16,51,-66,54,-63,-102,-126,-91,-69
10,-55,-65,23,38,-60,60,-58,-92,-125,-90,-71
8,-55,-62,24,35,-58,65,-61,-84,-124,-89,-69
-2,-55,-54,29,27,-54,68,-63,-66,-126,-85,-71
-2,-53,-51,28,25,-51,71,-65,-73,-125,-85,-69
-13,-49,-36,31,11,-42,75,-65,-92,-123,-82,-63
-57,-47,10,52,-33,-19,82,-64,-48,-115,-80,-57
-18,-44,-26,31,5,-35,66,-70,-56,-109,-77,-52
20,-41,-61,11,40,-50,34,-80,-84,-103,-74,-46
10,-39,-49,15,30,-44,32,-73,-66,-95,-70,-40
15,-36,-51,10,34,-43,56,-68,-80,-91,-71,-57
7,-34,-41,14,25,-38,54,-63,-67,-102,-89,-67
-2,-36,-34,19,16,-34,43,-57,-50,-106,-90,-64
-39,-34,5,37,-22,-14,36,-55,-61,-104,-91,-69
-47,-41,6,44,-27,-17,31,-48,-61,-107,-89,-70
-6,-47,-40,27,17,-43,35,-76,-69,-119,-95,-69
12,-42,-54,15,34,-48,35,-77,-93,-130,-116,-66
7,-40,-47,17,27,-43,34,-62,-114,-140,-113,-63
5,-36,-41,16,23,-38,37,-77,-88,-152,-107,-61
1,-35,-35,17,19,-35,31,-74,-94,-148,-102,-57
-21,-43,-22,32,1,-32,40,-76,-123,-146,-99,-55
-19,-47,-28,33,5,-37,60,-74,-103,-142,-94,-56
-44,-43,1,43,-22,-21,49,-76,-94,-140,-90,-65
-68,-54,15,61,-41,-19,42,-71,-89,-139,-102,-69
-52,-70,-18,61,-17,-44,40,-61,-92,-142,-118,-72
-31,-70,-39,51,4,-54,35,-88,-116,-166,-134,-84
-38,-70,-32,54,-3,-50,35,-89,-122,-171,-136,-86
-67,-70,-3,69,-32,-36,27,-83,-118,-169,-134,-84
-84,-70,14,77,-49,-28,42,-81,-122,-175,-136,-81
-97,-69,29,83,-63,-20,64,-75,-117,-175,-134,-80
-57,-65,-8,61,-24,-36,59,-75,-116,-174,-135,-79
-14,-63,-49,38,18,-56,61,-59,-112,-169,-135,-74
-13,-60,-47,37,17,-53,57,-80,-109,-166,-135,-75
-17,-56,-39,37,12,-48,55,-99,-133,-162,-135,-75
-21,-55,-34,38,7,-44,55,-86,-142,-159,-135,-75
-13,-51,-38,32,12,-44,53,-86,-135,-154,-135,-75
17,-41,-59,12,38,-50,70,-79,-133,-163,-131,-72
5,-35,-39,15,22,-37,68,-75,-130,-176,-126,-69
-34,-25,8,29,-21,-8,64,-94,-117,-159,-123,-66
-26,-20,6,23,-16,-7,61,-96,-103,-137,-118,-63
-21,-3,19,11,-20,8,56,-93,-105,-128,-104,-60
42,22,-20,-32,31,1,53,-101,-106,-108,-93,-60
83,16,-67,-49,75,-26,6,-102,-110,-124,-100,-60
75,2,-73,-38,73,-35,-24,-108,-111,-152,-104,-60
74,-18,-92,-28,83,-54,-15,-117,-116,-160,-110,-60
49,-28,-78,-10,64,-53,-14,-116,-115,-186,-118,-63
45,-21,-67,-12,56,-44,-7,-115,-115,-193,-126,-68
19,-39,-58,10,39,-48,14,-115,-122,-187,-137,-71
-12,-62,-50,37,19,-56,37,-115,-117,-192,-143,-80
-34,-78,-44,56,5,-61,41,-115,-140,-200,-159,-88
-44,-89,-45,66,1,-67,41,-114,-166,-206,-168,-97
-52,-82,-30,67,-10,-56,34,-115,-153,-206,-159,-98
-47,-88,-41,68,-2,-65,34,-110,-145,-202,-162,-96
-56,-82,-27,69,-14,-54,28,-107,-141,-209,-185,-94
-69,-87,-17,78,-26,-52,23,-103,-139,-192,-174,-96
-47,-79,-32,63,-8,-55,39,-100,-163,-202,-174,-94
-41,-70,-29,56,-6,-50,42,-95,-143,-183,-155,-95
-51,-68,-17,59,-17,-42,44,-89,-154,-192,-165,-86
-59,-3,56,31,-58,27,104,-8,-61,-138,-148,-62
15,22,7,-19,4,14,271,268,206,85,17,13
339,390,51,-365,144,221,-78,191,258,434,675,528
533,662,129,-598,202,396,-646,-326,153,1059,1485,866
197,239,43,-218,77,141,-407,-387,-72,693,853,354
-20,-24,-5,22,-7,-14,-45,-137,-197,-137,-59,-8
16,-12,-28,-2,22,-20,39,-74,-49,-21,3,25
-5,-22,-17,13,7,-19,81,-67,-32,1,-16,-2
9,-8,-17,0,13,-12,64,-61,-47,-81,-65,-21
-15,-12,3,14,-9,-5,73,-55,-23,-69,-75,-42
-33,-3,30,17,-31,14,75,-46,-40,-94,-91,-39
-28,-10,18,19,-23,4,92,-50,-31,-64,-67,-35
-30,-10,20,20,-25,5,89,-66,-38,-77,-79,-35
-20,-10,11,15,-15,0,83,-59,-33,-59,-62,-29
-22,-10,12,16,-17,1,85,-41,-37,-61,-66,-30
-43,-2,41,22,-42,19,77,-36,-28,-51,-57,-23
-43,2,45,20,-44,23,85,-25,5,-43,-53,-19
-31,8,38,11,-35,23,92,-23,25,-40,-47,-14
-21,14,35,3,-28,24,77,-12,44,-26,-41,-10
-11,18,29,-3,-21,24,68,-9,66,-9,-35,-5
-1,26,27,-13,-14,26,45,0,92,14,-18,1
15,33,18,-24,-2,26,31,44,124,46,1,14
-7,39,47,-16,-27,43,59,69,146,71,30,25
-12,65,77,-27,-45,71,78,120,180,103,61,35
17,84,67,-51,-25,75,101,137,228,160,78,51
39,99,60,-69,-10,79,78,156,285,209,118,61
62,120,58,-91,2,89,55,219,356,268,170,90
101,137,37,-119,32,87,69,219,399,321,198,105
105,153,48,-130,28,101,68,238,451,361,251,118
96,172,76,-134,9,124,75,290,504,411,298,146
114,189,75,-152,19,132,65,299,528,452,316,144
74,180,106,-127,-16,143,54,275,503,454,328,136
70,172,102,-121,-16,136,42,252,424,402,305,134
110,171,61,-141,25,115,33,176,340,320,248,114
37,131,94,-84,-29,112,17,64,225,215,178,78
27,76,49,-52,-11,62,-28,-1,107,96,93,28
39,35,-4,-37,21,15,-28,-24,34,19,20,-11
-36,2,37,17,-36,19,-31,-46,-13,-36,-31,-34
-20,-10,10,15,-15,0,-33,-79,-78,-93,-79,-65
-14,-24,-10,19,-2,-17,10,-73,-106,-109,-87,-72
-18,-47,-29,33,5,-38,36,-63,-96,-113,-84,-69
-23,-51,-27,37,2,-39,39,-68,-102,-120,-85,-71
-38,-50,-12,44,-13,-30,27,-61,-98,-117,-86,-69
-42,-50,-8,46,-17,-29,17,-75,-101,-115,-100,-70
-57,-50,6,53,-32,-22,4,-59,-90,-115,-97,-65
-28,-49,-20,39,-4,-34,-7,-37,-66,-116,-90,-65
-54,-41,13,48,-33,-14,-1,-56,-57,-120,-89,-64
-67,-28,39,47,-53,5,17,-42,-46,-120,-81,-59
-49,-30,19,39,-33,-5,21,-49,-58,-122,-82,-61
-83,-41,41,62,-62,0,15,-80,-88,-125,-94,-57
-67,-36,31,51,-48,-3,29,-74,-92,-126,-96,-55
-46,-33,13,40,-29,-10,27,-69,-88,-122,-93,-51
-59,-30,30,44,-45,0,21,-57,-93,-121,-89,-50
-39,-26,14,32,-26,-6,17,-57,-86,-115,-95,-45
-42,-22,19,32,-30,-1,14,-95,-101,-117,-106,-46
-42,-20,22,31,-32,1,3,-107,-118,-139,-105,-67
-27,-20,7,23,-17,-6,-14,-99,-91,-140,-103,-71
-29,-17,12,23,-20,-2,-6,-101,-73,-140,-101,-70
-41,-14,28,27,-34,7,6,-99,-93,-139,-97,-70
-23,-17,6,20,-14,-6,13,-101,-122,-144,-111,-70
-20,-29,-9,25,-6,-19,0,-97,-127,-157,-132,-69
-27,-31,-4,29,-12,-17,13,-113,-129,-154,-129,-63
-2,-29,-27,16,12,-28,36,-149,-132,-156,-131,-57
-27,-26,0,27,-13,-13,18,-151,-135,-153,-129,-50
2,-24,-26,11,14,-25,-4,-157,-134,-166,-134,-66
-31,-27,5,29,-18,-11,-4,-159,-122,-174,-150,-73
-58,-32,26,45,-42,-3,16,-129,-112,-161,-145,-68
-28,-41,-13,35,-7,-26,5,-117,-95,-164,-140,-71
-68,-42,26,55,-47,-7,-32,-115,-114,-165,-134,-69
-51,-40,11,45,-31,-14,-37,-110,-119,-165,-128,-71
-41,-40,1,41,-21,-19,-23,-105,-116,-165,-124,-67
-22,-35,-13,28,-4,-24,-24,-102,-122,-166,-119,-64
-9,-35,-27,22,10,-31,-25,-93,-115,-170,-121,-65
-9,-35,-25,22,9,-30,-25,-88,-143,-169,-117,-65
-18,-35,-17,27,0,-26,-25,-80,-143,-172,-115,-65
-44,-34,9,39,-26,-12,-26,-74,-135,-175,-115,-65
-26,-35,-9,31,-8,-22,-41,-72,-134,-175,-111,-59
-18,-43,-25,31,4,-34,-53,-72,-126,-169,-108,-53
1,-25,-26,12,14,-25,-59,-112,-125,-152,-105,-49
-9,-1,8,5,-9,3,-55,-104,-97,-143,-102,-43
-10,16,27,-3,-19,21,-45,-69,-102,-145,-98,-37
19,24,5,-21,7,14,-14,-61,-111,-145,-95,-35
25,15,-10,-19,17,2,-14,-61,-110,-147,-96,-35
45,10,-35,-27,40,-13,-52,-92,-109,-151,-94,-35
39,2,-37,-20,38,-17,-55,-93,-111,-150,-96,-35
22,-4,-25,-9,24,-14,-47,-80,-126,-150,-94,-35
12,-11,-23,0,17,-16,-46,-88,-123,-150,-100,-36
-6,-19,-13,13,3,-16,-40,-106,-129,-150,-104,-42
-19,-30,-10,24,-4,-20,-35,-115,-126,-165,-108,-51
-38,-54,-16,46,-10,-35,-33,-108,-153,-186,-139,-68
-42,-77,-35,60,-3,-56,-18,-99,-161,-189,-145,-89
-32,-80,-47,56,8,-63,-44,-103,-141,-198,-138,-91
-37,-80,-43,59,3,-61,-67,-103,-136,-193,-135,-85
-43,-80,-36,62,-3,-58,-45,-92,-145,-195,-130,-87
-37,-71,-34,54,-1,-52,-44,-74,-156,-198,-125,-76
-47,-81,-34,64,-6,-57,-26,-107,-148,-189,-133,-85
-37,-64,-27,50,-5,-45,-27,-150,-149,-202,-150,-68
-46,-77,-31,62,-7,-54,-5,-113,-127,-158,-139,-79
-46,-26,20,36,-33,-3,34,-80,-112,-157,-140,-79
-43,-7,36,25,-40,14,195,87,84,-26,-82,-45
135,132,-3,-133,68,64,202,293,275,210,248,208
510,615,105,-563,202,360,-421,-24,259,804,1205,811
422,531,109,-477,156,320,-679,-418,130,1172,1474,717
94,69,-25,-81,60,22,-275,-283,-147,254,344,131
24,-2,-26,-11,25,-14,-48,-121,-148,-172,-87,36
7,35,28,-22,-11,31,4,-88,-24,52,55,33
-26,25,51,1,-39,38,13,-52,-42,-69,-70,8
-55,-5,50,30,-53,22,34,-27,-18,-55,-55,7
-47,-4,42,25,-44,19,42,0,-17,-67,-77,-15
-40,5,45,17,-43,25,29,-8,-16,-62,-73,-15
-31,4,35,14,-33,19,31,-7,-14,-53,-71,-31
-21,14,34,3,-27,24,18,-14,-17,-61,-70,-25
-3,13,16,-5,-10,15,20,-14,-13,-47,-61,-26
10,11,1,-11,4,6,-3,-10,-16,-48,-64,-25
-39,10,49,15,-44,29,-20,-7,-4,-32,-53,-20
-32,7,38,12,-35,22,-11,3,21,-27,-56,-21
-3,5,8,-1,-6,6,6,-22,28,-20,-41,-18
-11,7,18,2,-15,12,45,-37,58,-14,-32,-11
-20,15,36,2,-28,25,71,-18,88,25,-16,0
-11,38,48,-14,-30,43,74,32,93,53,-5,5
8,52,44,-30,-18,47,76,56,131,76,14,13
8,52,45,-31,-19,48,73,83,164,114,44,31
17,64,47,-41,-15,55,78,115,205,161,75,52
1,73,72,-37,-35,72,101,118,244,209,122,78
-6,92,98,-43,-52,95,112,178,313,265,170,96
12,120,109,-66,-49,114,116,219,383,335,216,118
33,139,107,-86,-37,123,121,228,402,376,252,136
62,160,98,-111,-18,129,147,271,474,430,304,154
71,170,99,-121,-14,134,169,300,521,483,352,179
87,175,89,-131,-1,132,162,285,497,485,353,182
73,165,92,-119,-10,128,169,256,481,477,347,176
44,153,109,-99,-33,131,136,196,405,424,320,160
47,136,89,-91,-21,112,60,112,276,297,244,120
27,95,68,-61,-21,81,-9,63,170,183,159,75
-3,55,57,-26,-30,56,-61,21,82,82,77,36
-30,19,49,6,-39,33,-76,-22,11,-1,16,0
-46,4,51,21,-49,27,-40,-62,-32,-38,-20,-20
-56,-6,50,31,-53,22,-3,-67,-42,-59,-48,-31
-68,-18,50,43,-59,15,-15,-57,-67,-70,-66,-43
-78,-27,51,52,-64,12,-17,-90,-98,-82,-71,-45
-79,-31,48,55,-63,8,3,-77,-95,-79,-66,-49
-75,-29,46,52,-60,8,19,-68,-90,-80,-64,-50
-82,-38,44,59,-63,3,39,-75,-92,-94,-60,-46
-87,-45,42,66,-64,-2,42,-32,-86,-96,-55,-43
-74,-45,29,59,-51,-8,31,-41,-82,-94,-58,-41
-66,-45,20,55,-43,-12,26,-48,-74,-91,-61,-37
-55,-45,10,50,-32,-17,17,-41,-57,-90,-59,-36
-27,-45,-18,37,-4,-31,11,-48,-81,-90,-57,-32
-26,-43,-16,35,-5,-29,32,-44,-97,-84,-53,-30
-35,-38,-3,37,-16,-21,42,-77,-81,-90,-65,-30
-43,-35,8,39,-25,-13,31,-97,-80,-104,-85,-27
-55,-32,23,43,-39,-4,25,-68,-70,-106,-85,-24
-61,-27,35,44,-48,4,21,-55,-65,-103,-85,-26
-55,-26,30,40,-42,2,7,-50,-91,-102,-85,-30
-70,-29,40,49,-55,6,15,-40,-102,-98,-85,-24
-65,-31,34,47,-50,2,27,-64,-107,-103,-84,-39
-46,-30,17,38,-31,-7,13,-80,-124,-122,-80,-48
-65,-30,35,47,-50,3,9,-87,-120,-126,-80,-43
-51,-31,20,41,-35,-5,23,-84,-112,-124,-80,-46
-41,-25,16,33,-28,-5,13,-104,-106,-126,-88,-45
-46,-37,8,41,-27,-14,-32,-127,-99,-124,-91,-45
-41,-45,-4,43,-19,-25,-64,-96,-95,-127,-89,-40
-53,-37,16,45,-34,-11,-85,-94,-107,-130,-88,-35
-71,-36,36,53,-53,0,-68,-95,-120,-130,-84,-30
-69,-30,39,49,-54,5,-56,-86,-114,-130,-85,-27
-71,-31,41,50,-56,5,-77,-83,-108,-130,-100,-20
-62,-29,33,45,-47,2,-74,-77,-103,-130,-107,-23
-45,-25,21,35,-32,-2,-57,-68,-96,-133,-104,-43
-68,-25,43,46,-55,9,-37,-90,-94,-139,-106,-46
-70,-24,46,47,-58,11,-58,-121,-88,-143,-105,-41
-56,-26,30,41,-43,2,-73,-106,-99,-142,-105,-40
-37,-23,14,30,-25,-4,-63,-97,-131,-151,-99,-35
-44,-27,17,36,-30,-5,-63,-83,-125,-146,-93,-35
-57,-29,28,43,-42,-1,-57,-73,-106,-126,-89,-39
-73,-26,46,49,-59,10,-55,-69,-107,-127,-82,-33
-86,-19,67,52,-76,24,-44,-62,-124,-139,-79,-26
-78,-11,67,45,-72,27,-19,-57,-130,-130,-70,-19
-68,4,72,32,-70,38,10,-47,-91,-110,-58,-14
-17,45,63,-14,-40,54,20,-50,-70,-104,-42,-16
-18,48,66,-15,-42,57,27,-51,-68,-91,-38,-15
-33,25,57,4,-45,41,2,-67,-83,-78,-62,-16
9,18,9,-13,0,13,-42,-75,-118,-110,-66,-15
0,11,11,-6,-5,11,-65,-76,-131,-138,-64,-16
8,10,2,-9,3,6,-72,-74,-133,-133,-66,-21
14,5,-9,-9,11,-2,-67,-76,-127,-130,-63,-30
-36,2,38,16,-37,20,-81,-90,-118,-135,-75,-36
-16,-4,12,10,-14,4,-80,-106,-157,-149,-93,-38
-32,-45,-12,39,-10,-28,-72,-130,-175,-168,-113,-56
-62,-76,-15,69,-24,-45,-58,-99,-132,-169,-119,-67
-44,-65,-21,55,-11,-43,-39,-99,-149,-164,-113,-54
-92,-71,20,81,-56,-25,-35,-126,-161,-151,-106,-56
-53,-55,-2,54,-26,-28,-31,-116,-156,-157,-108,-48
-23,-50,-27,37,2,-38,-31,-106,-145,-143,-94,-44
-54,-53,0,54,-27,-26,-22,-100,-143,-148,-106,-53
-29,-40,-11,35,-8,-25,-31,-93,-125,-141,-94,-47
-53,-59,-6,55,-23,-32,-31,-99,-132,-128,-108,-67
-50,39,89,5,-70,64,21,-49,-95,-107,-115,-41
1,59,58,-30,-28,58,218,251,186,84,36,36
288,351,63,-320,112,207,-56,234,255,415,619,495
533,728,195,-631,168,462,-733,-263,194,1112,1563,932
285,347,62,-317,111,205,-602,-403,26,901,1096,484
43,7,-36,-24,39,-15,-169,-182,-205,-64,29,78
-3,45,48,-21,-26,46,-97,-18,-26,-16,68,91
-27,55,83,-14,-55,69,-51,7,29,61,64,32
-34,44,78,-5,-56,61,-32,-24,-51,-57,-1,19
-42,20,62,11,-52,41,-29,-24,-17,-21,20,12
-36,23,59,6,-47,40,-30,-16,-12,-49,-32,8
-10,13,23,-2,-17,18,-51,-2,2,-20,-20,8
-40,12,53,14,-47,32,-28,8,0,-32,-35,-1
-75,5,81,34,-78,43,-20,4,6,-11,-15,3
-39,8,46,15,-43,27,-33,11,-12,-6,-18,25
-33,22,55,5,-44,38,-3,13,14,5,-7,38
-20,18,39,1,-30,28,18,3,38,19,3,33
-13,41,54,-15,-33,47,34,20,49,27,12,36
-31,53,84,-11,-58,68,35,44,82,44,23,35
-22,48,70,-13,-46,59,35,55,82,54,30,35
-16,53,68,-19,-42,60,48,48,92,82,41,46
-4,61,65,-29,-35,62,49,72,110,102,62,62
5,69,64,-37,-30,66,72,107,179,138,92,59
7,71,64,-39,-29,67,80,106,223,179,118,72
38,94,56,-66,-9,75,106,105,223,213,145,95
48,113,65,-80,-9,89,128,138,285,271,181,110
61,122,61,-92,0,91,139,189,361,328,227,137
73,153,79,-113,-3,116,166,216,416,391,280,156
62,170,107,-116,-23,138,165,253,455,452,334,181
85,188,103,-137,-10,146,160,283,505,495,371,205
72,201,128,-137,-28,164,162,302,521,525,396,204
73,194,121,-134,-24,157,186,296,498,525,387,199
96,197,101,-147,-3,149,148,254,481,493,379,197
84,186,101,-135,-9,143,61,184,385,412,337,177
50,141,91,-96,-21,116,20,105,244,298,248,134
7,95,88,-51,-41,91,6,75,151,183,168,87
-29,56,84,-14,-56,69,26,50,71,92,97,47
-71,14,85,28,-78,49,51,15,20,35,46,19
-94,-9,85,51,-89,38,57,-9,-19,0,16,7
-84,-17,68,50,-76,25,49,-45,-57,-5,10,3
-70,-28,42,49,-56,7,34,-39,-47,-9,6,-3
-74,-33,41,53,-57,4,26,-4,-44,-17,-1,-9
-63,-28,35,45,-49,3,24,-9,-30,-20,-6,-14
-62,-25,37,43,-49,6,25,-27,-31,-28,-9,-12
-60,-22,39,41,-50,9,25,-52,-69,-34,-5,-10
-24,-17,7,21,-15,-5,25,-57,-44,-46,-5,-10
-38,-14,24,26,-31,5,24,-54,-32,-49,-5,-5
-63,-10,53,37,-58,21,18,-55,-40,-42,-5,-5
-58,-10,48,34,-53,19,12,-49,-33,-39,-6,-4
-61,-9,52,35,-56,22,6,-48,-33,-34,-8,0
-59,-5,55,32,-57,25,10,-44,-28,-30,-12,-1
-61,-5,55,32,-57,25,24,-42,-27,-26,-15,2
-56,-3,53,29,-54,25,11,-38,-24,-25,-19,5
-46,1,47,22,-47,24,3,-48,-55,-24,-20,5
-39,4,43,17,-41,23,-4,-64,-67,-31,-11,1
-30,8,38,11,-35,23,1,-62,-58,-49,-23,0
-24,10,34,7,-29,21,48,-53,-80,-57,-38,0
-25,6,30,10,-28,17,58,-49,-86,-61,-34,0
-35,1,36,16,-35,18,50,-39,-85,-59,-35,0
-34,-1,32,17,-33,15,51,-38,-81,-62,-35,-1
-15,-6,9,10,-12,2,45,-74,-80,-82,-35,-7
-34,-9,25,21,-29,8,45,-87,-78,-86,-36,-14
-65,-13,52,39,-59,19,38,-84,-78,-84,-42,-11
-68,-18,50,43,-59,16,30,-85,-68,-85,-49,-10
-72,-25,47,48,-60,11,23,-85,-80,-85,-54,-10
-74,-29,45,51,-59,7,13,-85,-108,-84,-55,-10
-71,-26,45,48,-58,10,11,-76,-100,-79,-55,-10
-65,-21,43,42,-54,11,9,-50,-91,-81,-55,-11
-73,-19,54,46,-64,18,11,-46,-76,-77,-55,-24
-51,-14,37,33,-44,11,26,-80,-106,-75,-55,-27
-24,-10,14,17,-19,1,32,-70,-130,-75,-55,-22
-37,-12,25,24,-30,6,29,-59,-105,-75,-55,-19
-35,-20,16,27,-25,-2,27,-60,-108,-75,-55,-16
-50,-24,25,37,-37,1,25,-65,-103,-77,-55,-11
-25,-19,5,22,-15,-7,20,-98,-106,-93,-55,-10
3,-12,-15,5,9,-13,-7,-101,-104,-97,-64,-20
-35,-6,29,20,-31,11,-42,-99,-105,-91,-62,-22
-37,1,38,18,-37,19,-52,-101,-105,-86,-54,-15
-43,8,50,17,-47,29,-48,-94,-66,-79,-48,-10
-31,17,48,6,-40,32,-39,-97,-78,-76,-41,-3
6,28,22,-17,-8,24,-39,-91,-79,-57,-35,1
12,37,25,-25,-6,31,-11,-70,-54,-34,-31,6
31,35,3,-33,14,19,-5,-48,-55,-22,-29,11
8,28,20,-18,-7,24,-67,-69,-60,-39,-25,15
-29,24,54,2,-42,39,-84,-99,-97,-65,-24,20
-15,17,32,-1,-24,24,-92,-96,-105,-71,-18,25
13,14,0,-14,6,7,-98,-89,-106,-72,-27,21
31,5,-26,-17,28,-10,-81,-85,-111,-65,-38,10
-6,-7,-1,6,-2,-4,-80,-79,-103,-68,-34,4
-40,-24,17,32,-28,-3,-52,-70,-105,-87,-55,-7
-47,-39,8,43,-27,-15,-43,-97,-97,-97,-75,-19
-48,-51,-2,49,-23,-27,-29,-87,-114,-94,-78,-27
-60,-59,1,60,-31,-29,16,-76,-128,-98,-83,-24
-60,-61,-1,61,-29,-31,32,-107,-121,-91,-78,-25
-46,-49,-3,48,-21,-26,21,-83,-121,-99,-90,-26
-46,-40,6,42,-26,-17,15,-52,-116,-93,-81,-19
-46,-37,9,41,-27,-14,12,-60,-147,-107,-85,-24
-42,-19,23,30,-32,3,-4,-60,-139,-105,-79,-14
-34,-21,13,28,-24,-4,16,-62,-131,-89,-78,-28
-69,46,115,11,-92,80,45,-38,-72,-73,-85,-6
-63,40,103,11,-83,71,247,226,181,120,42,47
248,296,48,-273,100,172,101,302,290,400,536,438
546,706,159,-626,194,432,-553,-184,240,1076,1501,951
309,392,84,-351,112,238,-533,-410,38,1043,1267,593
54,57,2,-55,25,29,-120,-185,-179,94,155,92
18,56,38,-38,-10,47,21,-61,-71,7,72,94
-16,9,25,4,-21,16,60,-39,10,102,104,73
-14,-1,12,8,-13,5,44,-32,1,18,13,62
-68,-23,45,46,-56,11,74,-31,16,66,39,52
-85,-19,66,52,-75,23,82,-28,10,30,-2,38
-71,-19,52,45,-61,16,78,-34,15,50,21,43
-67,-22,45,44,-56,12,82,-10,30,35,-2,37
-60,-18,41,39,-50,11,78,30,26,42,3,43
-53,-21,32,37,-43,5,81,38,37,51,6,38
-42,-10,32,25,-36,11,74,31,78,57,17,42
-59,-4,55,31,-57,26,76,56,92,64,45,56
-52,5,58,23,-55,31,73,73,95,69,60,60
-36,13,49,11,-43,31,71,68,78,67,63,62
-23,18,41,2,-32,30,69,83,120,96,64,64
-17,22,39,-3,-28,30,72,78,156,134,72,67
16,27,11,-21,2,19,82,97,151,131,87,67
29,35,7,-32,11,21,102,128,181,167,109,76
-9,45,54,-18,-31,49,129,102,218,206,135,101
-2,54,56,-26,-29,55,135,128,271,247,171,111
29,83,55,-57,-13,69,137,179,327,298,202,120
53,105,51,-79,1,78,141,224,380,355,250,146
64,115,51,-89,7,82,158,277,443,420,305,177
97,143,46,-120,25,95,164,297,486,466,345,195
85,144,59,-115,13,101,152,306,502,517,383,210
64,150,86,-107,-11,118,148,319,547,554,418,220
97,169,72,-134,13,121,141,329,568,564,432,226
79,169,90,-124,-6,129,105,291,516,534,416,220
72,159,87,-116,-8,123,52,216,408,461,377,186
59,103,43,-82,8,73,24,148,287,354,293,144
17,52,34,-35,-8,43,18,87,191,234,201,109
-9,20,29,-6,-19,24,14,52,84,136,134,75
-32,-14,17,23,-24,2,13,36,36,65,72,36
-31,-26,5,28,-18,-10,6,19,18,40,40,22
-43,-48,-5,46,-19,-26,6,14,-18,31,30,19
-30,-53,-23,42,-4,-37,8,8,-41,2,22,14
-18,-60,-42,39,12,-51,18,8,-48,-24,13,10
-42,-81,-39,62,-1,-60,53,-11,-55,-22,4,5
-48,-74,-26,61,-11,-49,62,-44,-51,-13,0,9
-47,-67,-21,57,-13,-44,52,-20,-34,-9,-5,10
-28,-61,-33,45,3,-47,50,8,-66,0,-1,10
-18,-53,-35,36,9,-44,42,31,-43,3,0,10
-23,-50,-28,37,3,-39,38,45,-11,2,0,10
-25,-49,-25,38,0,-37,33,31,-48,-3,5,9
-30,-51,-21,40,-5,-36,28,23,-42,-4,5,5
-30,-50,-19,40,-5,-34,46,16,-37,-9,4,5
-29,-50,-21,40,-4,-36,60,9,-43,-9,-2,5
-35,-53,-18,44,-8,-35,46,3,-37,-13,-8,5
-30,-56,-26,43,-1,-41,46,-5,-43,-22,-13,5
-14,-59,-45,37,16,-52,55,-9,-37,-21,-19,5
-17,-62,-45,40,14,-53,55,-5,-48,-41,-23,5
-20,-65,-45,43,13,-55,54,-5,-66,-53,-29,5
-20,-65,-45,43,13,-55,50,-4,-42,-52,-30,5
-20,-65,-45,43,13,-55,50,-11,-68,-57,-30,6
-23,-65,-42,44,10,-53,67,-45,-106,-59,-30,3
-32,-65,-33,49,1,-49,80,-49,-97,-61,-31,0
-40,-65,-25,53,-7,-45,72,-36,-102,-64,-37,-3
-49,-64,-15,57,-16,-40,64,-28,-96,-66,-39,-5
-29,-67,-38,48,5,-52,51,-20,-94,-64,-44,-8
-9,-62,-53,36,23,-57,35,-28,-96,-66,-43,-11
-22,-70,-48,46,13,-59,39,-22,-89,-66,-48,-6
-27,-77,-50,52,12,-64,50,-29,-92,-72,-40,-5
-41,-84,-43,63,1,-63,55,-21,-87,-67,-53,-4
-36,-82,-47,60,6,-65,42,-31,-86,-74,-45,-1
-45,-86,-41,66,-2,-63,36,-78,-75,-84,4,1
-46,-75,-29,61,-8,-52,20,-59,-32,-73,4,-2
