I,II,III,aVR,aVL,aVF,V1,V2,V3,V4,V5,V6
1,74,73,-38,-36,73,-50,70,-45,-80,-75,71
-17,70,87,-27,-52,78,-49,69,-45,-80,-75,77
-16,66,82,-25,-49,74,-44,75,-45,-80,-75,76
-16,64,80,-24,-48,71,-42,85,-45,-76,-75,74
-17,58,75,-21,-46,66,-37,77,-65,-74,-75,72
-15,56,72,-21,-44,64,-35,71,-70,-76,-74,68
-16,52,68,-18,-42,59,-39,64,-61,-69,-71,78
-16,46,62,-16,-39,54,-39,57,-60,-67,-68,84
18,71,53,-45,-18,62,-45,53,-52,-59,-65,76
28,76,48,-52,-10,62,-45,48,-52,-62,-63,69
22,60,38,-41,-8,49,-40,45,-60,-76,-59,61
23,55,32,-39,-5,44,-39,42,-58,-75,-63,53
6,48,42,-27,-19,45,-34,37,-54,-63,-66,48
-12,44,55,-16,-34,49,-37,35,-51,-65,-72,43
-29,39,68,-5,-49,53,-41,42,-47,-98,-80,47
-21,30,51,-5,-36,40,-40,53,-43,-94,-75,67
-17,34,51,-9,-34,42,-40,55,-38,-78,-70,71
-4,43,47,-19,-26,45,-35,55,-24,-78,-64,72
-11,40,51,-15,-32,46,-35,54,-39,-88,-59,76
-42,25,67,9,-55,45,-34,56,-43,-89,-54,75
-30,49,79,-10,-55,64,-29,78,-7,-63,-49,85
-16,89,105,-37,-61,97,-30,89,-1,-53,-43,91
3,111,108,-57,-53,110,-20,79,5,-48,-43,93
38,170,133,-104,-48,152,-50,71,22,-25,-25,114
73,171,97,-122,-12,134,-89,62,27,6,4,134
85,176,91,-131,-3,133,-81,53,19,8,3,124
60,177,117,-118,-28,146,-72,46,-3,-14,-3,110
1,91,91,-46,-45,91,-64,45,-23,-37,-20,93
-15,53,68,-19,-41,60,-56,45,-39,-67,-57,61
6,34,27,-20,-11,30,-48,40,-52,-85,-82,42
-18,8,25,4,-22,16,-44,41,-60,-83,-81,46
-26,-41,-15,33,-5,-28,-34,38,-87,-107,-90,34
-12,-50,-38,31,13,-43,-34,36,-74,-93,-82,39
-21,-51,-30,36,5,-41,-25,34,-85,-105,-107,26
-24,-49,-26,37,1,-37,-25,36,-77,-97,-95,30
-27,-44,-18,36,-4,-30,-15,34,-79,-98,-101,24
-50,-17,32,33,-41,7,18,53,-79,-113,-109,19
-59,17,76,21,-68,46,112,236,56,-57,-67,23
71,168,97,-119,-13,132,135,420,329,238,158,147
631,754,122,-693,254,437,-551,-20,770,1096,1031,870
694,595,-100,-645,397,247,-948,-810,186,766,889,917
7,-90,-97,42,52,-93,-359,-735,-646,-344,-167,122
-136,-62,74,99,-105,6,-51,-170,-296,-241,-214,-27
-54,-26,28,40,-40,1,-29,8,-75,-92,-129,-3
-73,-57,16,65,-44,-20,23,63,-77,-111,-155,-28
-46,-60,-14,53,-16,-37,17,87,-32,-78,-110,-3
-81,-93,-12,87,-34,-52,31,81,-60,-145,-137,-25
-81,-70,10,75,-45,-30,21,88,-31,-113,-108,-7
-89,-81,8,85,-48,-36,28,82,-46,-126,-123,-24
-70,-63,6,66,-38,-28,22,88,-30,-105,-107,-17
-56,-66,-10,62,-23,-38,19,98,-33,-113,-110,-24
-29,-60,-31,45,1,-45,18,107,-19,-124,-104,-26
-27,-57,-31,42,2,-44,13,104,-10,-114,-99,-23
-38,-55,-16,47,-11,-35,12,106,-1,-111,-100,-20
-40,-49,-10,44,-15,-29,9,104,9,-100,-91,-14
-40,-43,-3,42,-18,-23,5,105,11,-96,-92,-11
-26,-38,-12,32,-7,-25,-2,108,20,-84,-84,-5
-26,-32,-5,29,-10,-18,-6,110,22,-79,-77,1
-27,-26,1,27,-14,-12,-12,110,34,-69,-67,18
-9,-18,-9,13,1,-13,-18,110,41,-56,-59,28
19,20,1,-20,9,11,-21,139,80,-24,-34,47
42,58,16,-50,13,37,-31,159,110,20,6,68
64,99,35,-82,14,67,-59,162,140,78,63,106
70,121,51,-96,9,86,-80,174,190,144,116,152
110,149,39,-130,35,94,-87,178,204,165,144,172
121,156,35,-139,43,95,-93,178,229,201,169,196
109,134,25,-122,41,80,-93,172,234,214,167,200
111,131,20,-121,46,75,-82,168,223,178,151,194
84,94,10,-89,37,51,-69,163,200,138,118,167
78,64,-14,-71,46,25,-56,131,150,83,60,118
66,66,-1,-66,33,32,-41,101,105,34,9,87
19,42,22,-31,-2,32,-31,89,59,-8,-30,61
-15,-1,14,8,-14,6,-30,75,37,-24,-45,44
-7,-1,7,4,-7,3,-30,69,33,-43,-53,37
5,8,3,-7,1,6,-30,64,37,-65,-69,32
1,-26,-27,13,14,-26,-30,59,48,-65,-70,29
-4,-20,-15,12,6,-17,-29,55,43,-65,-65,23
-21,-11,10,15,-15,0,-24,50,33,-65,-64,20
-38,-31,7,34,-22,-11,-21,54,31,-65,-59,25
-37,-16,21,26,-29,2,-18,55,27,-64,-62,25
-30,-8,21,19,-25,6,-13,56,25,-60,-72,26
-11,6,17,3,-14,11,-11,60,22,-60,-68,30
-1,28,29,-14,-15,28,-9,60,18,-56,-62,30
-7,30,38,-12,-23,34,-11,60,30,-55,-56,30
-7,25,31,-9,-19,28,-8,57,41,-52,-51,30
0,20,20,-10,-10,20,-17,54,39,-48,-49,29
1,17,16,-9,-8,16,-41,51,40,-46,-46,31
6,10,4,-8,1,6,-38,48,41,-41,-44,29
21,21,-1,-21,11,10,-34,46,38,-41,-39,32
16,28,12,-22,2,20,-31,43,51,-45,-42,44
11,14,3,-13,4,9,-26,40,60,-45,-44,40
11,8,-3,-9,7,3,-24,40,51,-47,-48,32
11,-2,-14,-4,13,-8,-18,37,47,-51,-43,27
16,-1,-18,-7,17,-9,-14,35,40,-50,-44,18
43,31,-12,-36,27,9,-9,35,33,-47,-57,16
23,25,1,-24,11,13,-6,35,26,-44,-51,23
-6,17,23,-6,-15,20,1,35,18,-45,-46,29
33,21,-11,-27,22,5,-8,35,9,-45,-43,36
9,1,-8,-5,8,-3,-25,36,8,-45,-38,42
-11,29,40,-9,-26,34,-25,34,28,-45,-34,42
18,81,63,-50,-23,72,-23,45,67,-34,-26,32
29,106,77,-68,-24,91,-17,50,106,-27,-19,34
44,148,104,-96,-30,125,-43,40,120,-22,-10,72
71,179,108,-125,-19,143,-64,35,116,-20,-11,83
73,145,72,-109,0,108,-58,27,109,-16,-3,74
56,147,91,-102,-18,118,-61,19,98,-9,-8,73
24,108,84,-66,-30,95,-58,12,86,-17,-16,65
17,26,8,-22,4,17,-52,5,74,-27,-29,50
26,29,3,-28,11,16,-40,-4,50,-67,-72,25
-16,2,19,7,-18,10,-35,-7,27,-83,-73,15
-30,-39,-10,35,-10,-24,-27,-7,12,-91,-95,4
-14,-23,-8,19,-3,-15,-33,1,30,-85,-95,1
-14,-47,-33,30,10,-39,-27,-1,23,-86,-93,-8
-6,-36,-30,22,12,-33,-32,7,10,-85,-94,-15
4,-28,-32,12,18,-29,-27,9,9,-73,-82,-18
-3,-31,-28,17,12,-29,19,12,-8,-94,-105,-29
-41,16,57,12,-49,37,97,170,97,-78,-101,-44
37,137,100,-88,-32,118,157,366,346,159,73,69
577,705,128,-642,225,416,-451,2,794,1053,965,760
725,655,-70,-690,397,292,-938,-789,338,921,1033,948
106,-41,-147,-32,127,-94,-414,-796,-584,-269,-88,167
-89,-68,22,79,-55,-23,-52,-233,-319,-287,-251,-86
-22,-27,-6,24,-8,-16,-22,-30,-24,-94,-109,0
-44,-83,-39,64,-2,-60,49,15,-50,-150,-171,-40
-22,-62,-39,42,9,-50,45,44,-8,-104,-125,-35
-37,-63,-26,50,-5,-45,49,49,-51,-142,-159,-52
-35,-47,-12,42,-11,-29,41,52,-24,-110,-136,-41
-51,-61,-10,56,-20,-35,39,46,-41,-140,-148,-47
-23,-32,-9,27,-7,-20,35,46,-32,-137,-136,-45
-43,-41,2,42,-22,-19,31,44,-42,-132,-132,-44
-84,-48,36,66,-60,-6,28,50,-50,-132,-131,-39
-65,-32,33,48,-49,1,20,49,-41,-121,-120,-31
-59,-32,27,46,-43,-3,19,53,-48,-121,-123,-28
-51,-28,23,39,-37,-2,11,55,-42,-112,-123,-21
-48,-32,15,40,-31,-8,12,56,-47,-109,-121,-16
-39,-28,11,34,-25,-9,24,60,-43,-102,-111,-11
-58,-31,27,44,-43,-2,17,61,-30,-97,-106,-6
-82,-28,54,55,-68,13,1,58,-18,-89,-99,-3
-31,17,49,7,-40,33,-12,72,4,-76,-92,2
11,44,34,-28,-12,39,-29,95,29,-49,-67,22
10,91,82,-51,-36,86,-45,100,49,11,-23,37
18,132,114,-76,-48,123,-52,120,99,62,25,70
53,151,98,-102,-23,124,-67,133,139,109,74,107
88,184,96,-137,-4,140,-91,130,166,162,120,148
108,194,87,-151,10,140,-98,146,202,184,151,180
121,203,81,-162,20,142,-92,145,212,187,156,164
122,199,76,-161,23,137,-87,131,187,151,126,153
104,173,69,-139,17,120,-77,112,140,103,76,127
67,131,64,-100,1,97,-60,77,91,62,28,84
29,88,59,-59,-16,73,-47,32,49,9,-16,57
6,62,55,-34,-25,58,-35,27,23,-37,-50,40
4,57,53,-31,-25,55,-33,33,10,-62,-63,30
7,54,47,-31,-20,50,-36,11,-3,-75,-69,20
0,47,47,-24,-24,47,-35,1,-12,-71,-75,10
9,42,32,-26,-12,37,-35,-5,-38,-92,-96,1
16,36,19,-26,-2,27,-35,-11,-46,-128,-112,-6
-19,35,54,-8,-37,44,-34,-17,-37,-118,-109,-13
-33,35,67,-1,-50,51,-29,-19,-35,-113,-110,-21
-28,31,59,-1,-44,45,-26,-15,-27,-109,-110,-28
-29,29,59,0,-44,44,-23,-13,-22,-100,-110,-27
-21,32,53,-6,-37,42,-18,-10,-18,-110,-108,-25
-15,33,48,-9,-32,40,-15,-7,-14,-113,-101,-25
-15,43,58,-14,-37,50,-18,-5,-12,-106,-94,-20
-15,50,66,-18,-40,58,-22,-5,-9,-99,-88,-20
-15,51,65,-19,-40,58,-25,-5,-6,-92,-81,-20
-15,47,62,-17,-38,54,-28,-5,-4,-93,-75,-20
-2,57,60,-27,-31,59,-32,-6,-1,-99,-84,-20
4,64,61,-34,-29,62,-35,-15,1,-103,-83,-20
6,60,54,-33,-24,57,-35,-24,6,-104,-89,-19
3,55,52,-29,-25,53,-35,-26,2,-100,-102,-21
-3,49,53,-23,-28,51,-35,-29,-6,-97,-99,-18
-8,76,84,-35,-46,80,-35,-31,-16,-95,-100,-25
-6,84,90,-40,-48,87,-32,-35,-23,-92,-100,-40
-4,74,78,-35,-41,76,-26,-34,-29,-88,-100,-41
1,71,70,-37,-35,71,-22,-28,-38,-102,-98,-54
14,74,59,-44,-23,66,-17,-23,-30,-108,-91,-58
10,76,67,-43,-29,71,-13,-17,-41,-97,-84,-47
0,72,72,-36,-37,72,-8,-11,-32,-90,-78,-39
-5,94,99,-45,-52,96,-1,-6,-1,-83,-70,-22
-9,110,119,-51,-64,114,12,-8,8,-68,-65,-11
15,151,136,-83,-61,143,-3,-14,19,-49,-47,9
88,212,124,-150,-18,168,-57,-17,11,-43,-14,16
93,207,114,-150,-10,160,-92,-21,-1,-48,-28,6
52,173,121,-113,-35,147,-98,-38,-9,-40,-45,0
32,139,107,-86,-37,123,-75,-55,-20,-58,-53,-11
10,105,95,-58,-42,99,-44,-58,-27,-80,-65,-15
-12,57,69,-23,-41,63,-34,-61,-59,-97,-90,-51
-24,21,45,1,-35,33,-33,-59,-78,-120,-114,-75
-25,-2,23,13,-24,10,-30,-61,-85,-132,-115,-74
-48,-11,37,29,-42,13,-25,-60,-102,-138,-117,-82
-37,0,38,18,-38,19,-28,-57,-97,-133,-111,-77
-31,-5,26,17,-28,10,-16,-57,-108,-150,-134,-92
-37,4,41,17,-39,22,-17,-47,-86,-126,-112,-76
-47,-34,13,41,-30,-11,3,-59,-106,-157,-135,-96
-72,15,87,28,-79,51,43,23,-51,-123,-115,-79
-55,54,109,0,-83,82,179,238,98,-66,-96,-80
335,457,123,-397,106,290,-103,172,499,564,471,336
812,837,25,-825,393,431,-878,-563,582,1150,1154,961
424,236,-188,-330,306,24,-751,-1022,-358,133,331,453
-113,-125,-12,118,-50,-68,-155,-547,-590,-458,-342,-145
-104,-36,68,69,-86,16,-45,-127,-146,-148,-146,-78
-89,-65,24,77,-56,-21,10,-53,-131,-180,-173,-91
-88,-38,50,62,-69,6,29,-17,-86,-149,-154,-83
-76,-58,19,67,-48,-19,28,-18,-97,-161,-161,-85
-83,-50,33,66,-58,-8,33,-8,-97,-156,-163,-86
-69,-56,13,62,-40,-22,27,-4,-90,-151,-155,-78
-71,-56,14,63,-42,-21,33,0,-101,-158,-161,-82
-53,-53,1,53,-27,-26,27,2,-89,-143,-150,-82
-68,-58,9,63,-38,-24,27,6,-100,-152,-158,-99
-101,-51,50,76,-75,0,24,-2,-91,-139,-146,-91
-99,-50,49,74,-74,-1,25,-13,-97,-143,-153,-91
-82,-39,42,60,-62,1,19,-5,-94,-137,-147,-87
-73,-36,37,54,-55,0,20,-2,-96,-135,-141,-85
-62,-25,37,43,-49,6,18,3,-91,-135,-134,-83
-57,-15,42,36,-49,14,12,8,-81,-135,-127,-72
-49,-6,43,27,-46,19,9,11,-77,-129,-121,-65
-22,23,45,-1,-34,34,3,20,-68,-106,-104,-55
-39,30,69,4,-54,49,1,38,-54,-72,-80,-40
-28,53,81,-12,-55,67,-12,58,-26,-25,-53,-14
5,86,81,-45,-39,83,-28,73,7,19,-15,11
19,105,87,-63,-34,96,-48,83,45,60,43,43
67,151,84,-110,-8,117,-75,85,77,111,89,80
91,177,86,-135,2,131,-83,99,97,150,126,102
99,177,78,-139,10,127,-76,104,117,163,134,122
99,156,57,-127,21,106,-69,92,104,155,119,115
99,145,46,-122,26,95,-62,79,70,116,102,87
80,117,38,-99,21,77,-56,57,28,62,47,55
28,59,31,-44,-2,45,-44,32,-19,17,5,20
13,41,29,-27,-9,35,-30,7,-53,-33,-22,-2
16,43,26,-30,-5,34,-18,-5,-95,-66,-58,-25
5,28,23,-17,-9,25,-14,-16,-110,-80,-68,-36
-23,-2,21,13,-22,9,-15,-28,-103,-96,-62,-34
-14,5,19,4,-17,12,-15,-25,-106,-94,-70,-40
4,19,16,-12,-6,17,-15,-25,-102,-96,-77,-50
-10,5,15,2,-13,9,-14,-24,-100,-100,-80,-55
-32,-20,12,26,-22,-4,-11,-20,-100,-100,-81,-57
-52,-46,7,49,-29,-19,-8,-21,-97,-98,-76,-60
-32,-30,1,31,-16,-14,-5,-17,-94,-94,-74,-63
-13,-10,3,11,-7,-3,-2,-15,-91,-95,-70,-66
-24,-25,-1,24,-11,-13,0,-12,-88,-95,-70,-61
-27,-44,-17,36,-5,-30,0,-9,-85,-95,-75,-55
-23,-31,-8,27,-7,-19,0,-6,-86,-90,-75,-50
-12,6,18,3,-15,12,0,-4,-93,-82,-73,-44
-9,-7,2,8,-5,-3,0,-16,-95,-76,-69,-38
-44,-43,1,44,-22,-21,0,-25,-95,-69,-64,-36
-65,-38,26,51,-45,-6,1,-25,-95,-62,-63,-43
-51,-34,17,42,-34,-8,5,-24,-95,-62,-56,-41
-39,-32,7,35,-23,-12,5,-27,-95,-67,-56,-40
-28,-24,4,26,-15,-10,5,-35,-96,-74,-54,-40
-17,-30,-13,24,-1,-21,5,-36,-102,-76,-48,-41
-11,-50,-39,31,14,-44,5,-34,-106,-75,-67,-54
-17,-50,-32,34,8,-41,2,-31,-104,-75,-77,-55
-22,-45,-24,34,2,-34,0,-30,-105,-75,-74,-55
-28,-44,-16,36,-6,-30,0,-29,-105,-74,-73,-55
-29,-39,-10,34,-9,-25,0,-24,-105,-70,-69,-55
-13,-41,-28,27,8,-34,0,-21,-104,-68,-71,-54
-11,-42,-30,27,10,-36,0,-18,-98,-65,-65,-46
-27,-46,-20,37,-3,-33,7,-13,-96,-62,-57,-39
-17,10,28,3,-22,19,15,-10,-89,-60,-50,-29
-3,51,54,-25,-29,52,24,-10,-87,-54,-40,-23
2,62,61,-32,-30,62,20,-10,-69,-40,-31,-9
39,96,58,-68,-10,77,-6,-12,-35,-11,-19,11
62,93,31,-78,16,62,-35,-30,-44,-1,-14,8
68,119,51,-94,8,85,-39,-39,-70,-12,-4,1
55,97,42,-76,6,69,-28,-40,-92,-26,-3,-6
20,42,21,-31,-1,31,-20,-52,-103,-32,-22,-12
8,19,12,-14,-2,15,-13,-56,-103,-46,-41,-26
-29,-47,-18,38,-6,-32,-3,-51,-123,-78,-61,-43
-42,-74,-33,58,-4,-53,2,-49,-127,-80,-69,-46
-24,-90,-66,57,22,-78,14,-47,-134,-98,-86,-66
-26,-91,-65,58,20,-78,18,-42,-126,-82,-74,-54
-32,-110,-78,71,23,-93,25,-44,-133,-93,-84,-67
-36,-114,-78,75,21,-95,26,-35,-128,-79,-72,-61
-27,-106,-79,67,26,-92,21,-39,-128,-80,-74,-65
-43,-74,-31,59,-5,-52,46,-21,-109,-89,-83,-72
-81,-39,41,60,-61,1,164,151,-3,-48,-76,-58
108,130,22,-119,43,76,163,298,248,212,150,75
717,697,-20,-707,368,339,-538,-180,657,1040,1006,774
735,473,-263,-603,499,105,-927,-977,59,687,843,789
53,-171,-224,59,139,-197,-339,-861,-707,-354,-158,17
-97,-129,-32,113,-32,-80,-23,-246,-330,-222,-176,-118
-31,-119,-88,75,29,-103,7,-45,-130,-101,-86,-93
-64,-126,-62,95,-1,-94,73,-2,-144,-130,-122,-111
-33,-105,-72,69,20,-88,63,16,-103,-100,-90,-87
-45,-118,-72,82,14,-95,75,20,-127,-129,-118,-103
-45,-128,-83,87,19,-105,75,28,-99,-103,-95,-90
-33,-130,-97,82,33,-113,81,23,-112,-123,-110,-106
-25,-99,-74,62,25,-86,74,27,-96,-103,-94,-96
-39,-115,-76,77,18,-95,72,24,-106,-109,-97,-105
-35,-101,-66,68,16,-83,68,26,-106,-102,-92,-105
-35,-103,-68,70,17,-85,63,24,-103,-98,-86,-104
-35,-97,-62,66,14,-79,61,14,-107,-97,-87,-101
-34,-95,-61,64,14,-77,56,6,-111,-89,-88,-91
-43,-102,-58,73,7,-80,54,-7,-117,-86,-84,-87
-44,-96,-52,70,4,-73,50,-2,-108,-76,-71,-78
-47,-89,-42,68,-2,-65,45,16,-106,-72,-63,-73
-47,-82,-36,65,-5,-59,45,32,-100,-63,-52,-67
-50,-76,-27,63,-11,-51,55,51,-94,-50,-38,-59
-24,-46,-21,35,-1,-33,49,57,-70,-15,-24,-52
19,1,-19,-10,19,-9,32,80,-26,33,6,-22
25,41,16,-33,4,28,14,98,25,84,71,21
32,60,28,-46,2,44,-17,99,70,135,124,60
79,94,15,-87,32,55,-44,106,98,171,162,87
137,130,-7,-134,72,61,-52,103,119,184,177,100
125,107,-18,-116,71,44,-61,99,124,174,163,108
97,65,-32,-81,64,16,-43,94,117,168,158,98
111,48,-62,-79,86,-7,-17,90,97,131,129,78
95,24,-71,-59,83,-23,-6,71,49,64,75,40
64,-21,-85,-22,75,-53,8,40,-1,22,29,-5
20,-52,-71,16,46,-61,12,10,-37,-3,0,-28
-3,-65,-63,34,30,-64,15,-6,-63,-23,-7,-47
-8,-70,-62,39,27,-66,19,-8,-84,-39,-14,-55
-17,-74,-56,46,20,-65,22,-12,-87,-40,-22,-55
-23,-78,-54,51,16,-66,26,-15,-84,-40,-30,-55
-29,-78,-49,54,9,-63,29,-20,-85,-45,-33,-55
-16,-86,-70,51,27,-78,30,-18,-84,-45,-30,-54
-19,-95,-76,58,29,-85,32,-13,-85,-44,-30,-59
-22,-91,-68,56,23,-79,36,-10,-84,-39,-30,-65
-18,-86,-68,53,25,-77,34,-7,-80,-34,-30,-65
-20,-81,-61,51,21,-71,35,-2,-75,-30,-30,-65
-22,-82,-60,52,19,-71,35,0,-70,-25,-31,-65
-26,-86,-60,56,18,-72,30,-5,-67,-20,-28,-65
-25,-85,-60,55,18,-72,30,-8,-61,-17,-22,-63
-24,-85,-61,55,19,-73,29,-13,-62,-14,-19,-57
-27,-85,-58,56,16,-71,25,-15,-66,-11,-13,-52
-18,-85,-67,51,25,-75,25,-15,-65,-9,-10,-49
0,-80,-81,40,41,-81,28,-19,-69,-5,-15,-43
-3,-80,-77,42,37,-78,30,-20,-71,-6,-15,-41
-7,-79,-72,43,33,-75,30,-20,-69,-14,-16,-44
-3,-75,-72,39,35,-73,34,-25,-66,-17,-21,-47
-13,-74,-61,44,25,-68,35,-25,-65,-20,-19,-49
-4,-81,-76,43,36,-78,35,-25,-65,-23,-23,-53
-7,-92,-85,49,39,-88,40,-25,-64,-27,-25,-55
-23,-89,-66,56,22,-77,40,-25,-66,-30,-25,-57
-15,-90,-75,53,30,-82,40,-25,-62,-32,-29,-60
-16,-90,-74,53,29,-82,41,-25,-60,-36,-31,-60
-19,-89,-69,54,25,-79,39,-25,-60,-38,-29,-60
-22,-91,-69,56,24,-80,43,-25,-57,-41,-25,-60
10,-75,-84,33,47,-79,44,-19,-54,-35,-17,-55
11,-85,-97,37,54,-91,47,-14,-56,-27,-12,-51
-19,-62,-44,41,13,-53,50,-8,-54,-20,-3,-46
-10,-22,-12,16,1,-17,51,-3,-56,-8,1,-42
11,6,-5,-8,8,1,52,3,-49,-4,12,-34
27,57,30,-42,-2,43,25,2,-19,31,44,-6
43,74,31,-58,6,52,7,-17,-20,61,51,3
71,84,13,-78,29,48,5,-28,-35,50,43,-3
50,62,12,-56,18,37,-4,-39,-50,39,39,-3
14,32,18,-23,-2,24,-2,-55,-74,15,28,-13
2,-2,-4,0,3,-3,6,-55,-84,-7,6,-33
-23,-69,-47,46,12,-58,13,-55,-105,-26,-19,-64
-32,-92,-59,62,13,-75,19,-55,-112,-38,-22,-75
-45,-111,-66,78,11,-88,31,-56,-119,-62,-42,-89
-60,-114,-54,87,-3,-84,29,-52,-107,-47,-39,-90
-51,-127,-76,89,13,-101,30,-50,-112,-62,-51,-99
-23,-122,-99,73,38,-110,31,-46,-104,-50,-41,-96
-37,-120,-83,79,23,-101,45,-44,-102,-56,-46,-100
-58,-102,-44,81,-7,-73,68,-19,-85,-59,-49,-108
-68,-81,-13,75,-27,-47,181,148,20,1,-30,-102
89,57,-32,-73,60,12,211,310,244,217,159,26
719,619,-100,-669,409,259,-479,-141,646,999,974,695
811,444,-367,-627,589,38,-921,-970,97,708,867,756
94,-204,-298,55,196,-251,-356,-906,-665,-280,-91,13
-158,-185,-27,172,-65,-106,-1,-272,-309,-175,-126,-127
-68,-169,-101,119,16,-135,47,-57,-94,-72,-41,-77
-52,-170,-118,111,34,-144,108,-15,-114,-78,-77,-110
-35,-157,-122,96,44,-139,89,-3,-86,-40,-45,-89
-35,-156,-121,96,43,-138,101,11,-113,-70,-73,-102
-48,-146,-98,97,25,-122,92,41,-90,-38,-50,-85
-55,-169,-114,113,30,-142,96,28,-107,-56,-65,-90
-41,-139,-99,90,29,-119,95,28,-91,-37,-47,-84
-66,-164,-98,115,16,-131,94,22,-92,-43,-48,-93
-66,-154,-88,110,11,-120,93,17,-85,-40,-41,-92
-66,-150,-83,108,8,-116,88,16,-80,-37,-33,-88
-71,-148,-77,110,4,-113,92,24,-78,-36,-32,-88
-68,-138,-71,103,2,-104,89,36,-70,-34,-23,-82
-80,-144,-64,112,-8,-104,91,39,-68,-32,-28,-81
-86,-143,-58,115,-14,-100,89,41,-58,-21,-19,-78
-96,-147,-50,122,-23,-98,80,39,-54,-17,-22,-71
-75,-121,-46,98,-14,-83,71,42,-45,-8,-13,-63
-32,-82,-49,57,9,-66,63,46,-28,18,19,-49
3,-35,-39,16,21,-37,53,57,2,44,30,-23
7,-10,-17,2,12,-13,44,83,40,75,64,-3
8,10,3,-9,2,7,29,98,70,121,111,21
57,62,5,-60,26,33,5,109,111,170,151,56
78,77,-1,-77,39,37,-19,119,143,214,191,83
104,91,-14,-97,59,38,-35,110,157,239,218,104
127,96,-31,-111,78,32,-34,101,158,241,222,111
115,68,-47,-91,80,11,-25,92,124,210,192,92
93,34,-59,-63,76,-12,-20,84,75,170,157,62
52,-15,-67,-18,59,-41,8,68,30,123,113,24
38,-42,-80,2,59,-60,39,38,3,83,73,-7
16,-65,-82,24,49,-73,42,25,-17,62,59,-18
-2,-79,-77,40,38,-78,39,15,-36,43,42,-26
-1,-89,-88,45,43,-88,40,6,-41,26,27,-35
-6,-111,-105,59,50,-107,40,4,-56,13,23,-44
-6,-103,-98,55,46,-100,40,1,-62,9,17,-50
-8,-98,-90,53,41,-94,40,-2,-59,7,14,-50
-9,-93,-85,51,38,-89,44,-5,-61,4,8,-52
-9,-86,-77,48,34,-81,49,-6,-59,1,5,-57
-13,-87,-75,50,32,-81,47,-15,-61,0,10,-60
-25,-94,-69,60,22,-81,45,-17,-57,5,10,-60
-35,-100,-64,68,15,-82,45,-9,-51,5,10,-60
-38,-94,-56,67,9,-75,45,-6,-44,6,10,-60
-32,-87,-55,60,12,-70,45,1,-38,11,10,-60
-45,-87,-42,66,-1,-64,45,7,-30,8,12,-60
-44,-91,-46,68,1,-68,55,9,-25,18,17,-60
-21,-85,-64,53,22,-74,56,4,-45,25,20,-60
-31,-86,-55,58,13,-70,49,1,-52,18,23,-60
-35,-81,-46,58,6,-63,46,-2,-46,14,28,-60
-23,-69,-46,47,12,-57,41,-7,-45,8,30,-60
-5,-70,-65,38,31,-68,36,-9,-41,1,24,-60
2,-70,-72,34,37,-71,37,-18,-39,3,17,-64
3,-66,-69,32,36,-67,41,-22,-53,8,11,-67
7,-63,-71,28,40,-67,40,-20,-75,4,4,-71
-13,-82,-69,48,28,-76,40,-20,-72,-1,-2,-74
-21,-91,-70,56,24,-81,40,-16,-65,-5,-6,-78
-19,-84,-65,51,24,-74,40,-14,-64,-5,-4,-80
-19,-79,-60,49,20,-69,43,-17,-55,-5,-6,-75
-18,-73,-56,46,19,-64,46,-29,-60,-5,-4,-75
-17,-69,-52,43,17,-60,45,-31,-70,-5,-5,-75
-14,-59,-45,37,16,-51,50,-22,-66,-3,-5,-74
-21,-73,-52,48,16,-62,49,-21,-61,4,1,-76
-18,-76,-58,47,20,-67,52,-13,-58,8,6,-72
-17,-43,-26,30,4,-34,56,-12,-48,17,13,-63
9,-5,-14,-2,11,-10,58,5,-27,16,15,-54
28,22,-5,-25,16,9,78,34,-11,33,33,-46
18,57,38,-38,-10,47,55,24,-5,59,54,-40
85,86,0,-85,42,43,1,9,6,68,72,-40
118,85,-33,-101,76,26,-15,5,6,80,79,-40
67,48,-19,-58,43,14,-6,-3,-11,62,51,-39
22,8,-14,-14,18,-3,3,-9,-33,43,34,-48
-15,-33,-18,25,2,-25,11,-15,-47,24,21,-66
-17,-81,-63,49,24,-72,38,-23,-60,-1,-1,-92
-19,-87,-68,53,25,-77,44,-24,-68,-8,-7,-103
-21,-97,-76,59,28,-87,46,-27,-77,-35,-38,-119
-23,-85,-62,54,20,-73,44,-25,-65,-23,-39,-119
-57,-129,-72,93,8,-100,45,-32,-73,-34,-51,-130
-54,-111,-57,83,2,-84,47,-30,-62,-18,-40,-121
-48,-109,-61,78,7,-85,35,-18,-64,-22,-47,-127
-60,-119,-59,90,0,-89,71,10,-53,-19,-48,-128
-98,-47,51,72,-74,2,194,193,66,15,-24,-117
97,109,12,-104,43,60,184,315,314,243,182,14
799,679,-120,-739,460,279,-561,-189,676,972,957,665
840,421,-419,-630,629,1,-962,-959,87,599,760,636
70,-244,-314,87,192,-279,-334,-827,-621,-311,-152,-76
-137,-144,-7,141,-65,-75,0,-212,-247,-148,-116,-168
-61,-145,-85,104,12,-115,59,-39,-68,-55,-41,-141
-75,-138,-64,107,-5,-101,113,1,-96,-86,-87,-146
-47,-116,-70,81,12,-93,89,32,-57,-61,-62,-125
-64,-135,-71,100,4,-103,108,28,-79,-91,-84,-144
-41,-99,-58,71,8,-78,95,33,-48,-70,-59,-124
-47,-119,-72,84,13,-96,105,27,-64,-86,-73,-135
-69,-127,-58,98,-6,-92,99,32,-63,-67,-60,-126
-61,-124,-64,93,2,-94,97,29,-67,-71,-62,-127
-45,-96,-50,71,3,-73,96,31,-60,-62,-53,-125
-56,-107,-52,82,-2,-79,90,30,-57,-59,-48,-123
-81,-125,-44,104,-18,-85,91,30,-54,-55,-44,-120
-76,-117,-41,97,-18,-78,85,30,-49,-49,-35,-120
-76,-112,-36,94,-20,-74,85,30,-47,-51,-42,-118
-82,-108,-26,95,-27,-67,85,29,-39,-45,-45,-107
-51,-70,-19,61,-16,-45,80,35,-35,-47,-46,-100
-39,-47,-8,43,-15,-27,80,44,-28,-38,-38,-90
-50,-45,5,47,-28,-19,79,57,-3,-13,-16,-85
-38,-24,14,31,-26,-5,65,74,26,35,22,-74
-24,6,29,9,-26,17,48,89,46,72,52,-48
-2,42,44,-21,-23,43,33,113,89,113,89,-18
43,84,41,-64,1,62,21,126,120,156,133,15
65,103,39,-84,12,70,9,131,149,188,168,45
78,120,42,-99,18,81,0,129,176,213,197,52
95,127,32,-111,31,80,-11,118,169,199,189,46
77,79,2,-78,37,40,-17,112,162,183,163,41
64,39,-25,-51,44,7,5,98,133,153,136,23
55,18,-38,-37,46,-10,25,75,93,102,104,-10
44,3,-41,-24,43,-19,30,39,57,53,65,-42
16,-23,-39,3,28,-31,37,4,20,27,37,-70
-18,-58,-41,38,12,-49,46,-6,2,14,22,-85
0,-51,-51,26,26,-51,51,-12,-4,-1,7,-88
-13,-67,-54,40,20,-60,50,-20,-8,-4,2,-93
-41,-86,-45,64,2,-65,50,-28,-13,-10,-2,-97
-34,-76,-42,55,4,-59,50,-34,-17,-16,-7,-100
-38,-72,-34,55,-2,-52,50,-29,-24,-21,-11,-100
-35,-66,-31,50,-2,-48,53,-23,-31,-25,-16,-102
-28,-78,-49,53,11,-63,58,-19,-30,-25,-20,-106
-29,-75,-46,52,9,-60,59,-12,-30,-25,-26,-105
-47,-79,-31,63,-7,-55,55,-8,-30,-25,-33,-102
-51,-77,-26,64,-12,-51,55,-2,-31,-25,-33,-96
-43,-61,-19,52,-11,-40,55,0,-29,-25,-26,-91
-47,-67,-21,57,-12,-44,55,0,-25,-22,-21,-88
-42,-62,-20,52,-11,-40,55,0,-25,-16,-15,-82
-38,-58,-20,48,-9,-39,51,0,-23,-11,-10,-82
-33,-53,-20,43,-6,-36,50,0,-20,-8,-10,-95
-31,-50,-19,40,-6,-34,50,-6,-19,-2,-9,-95
-31,-62,-31,47,0,-46,50,-13,-26,-1,-11,-90
-30,-66,-36,48,4,-51,49,-19,-26,-10,-8,-89
-30,-64,-34,48,2,-49,52,-26,-28,-20,-17,-84
-26,-62,-36,45,5,-48,55,-33,-29,-30,-34,-88
-25,-59,-34,43,5,-46,55,-35,-38,-35,-35,-100
-25,-60,-36,43,6,-47,55,-35,-55,-35,-35,-108
-27,-54,-27,41,0,-40,55,-35,-48,-35,-35,-107
-27,-53,-26,40,0,-40,55,-35,-43,-35,-35,-105
-24,-83,-59,54,18,-71,51,-35,-38,-35,-34,-105
-26,-90,-64,58,20,-77,50,-34,-32,-36,-31,-105
-24,-80,-56,53,16,-68,49,-30,-28,-43,-28,-105
-26,-81,-55,54,15,-68,47,-23,-22,-41,-26,-105
-24,-71,-46,48,11,-58,42,-20,-19,-32,-22,-112
-26,-74,-48,51,11,-60,50,-12,-13,-24,-21,-109
-20,-31,-12,25,-4,-21,62,-8,-10,-16,-16,-97
-25,-2,22,13,-23,10,81,0,8,-8,-2,-88
-26,16,42,4,-34,29,85,28,31,2,11,-77
49,98,49,-74,-1,73,38,11,49,19,38,-64
78,86,8,-82,35,46,21,-20,44,34,43,-54
55,55,-1,-55,28,27,16,-25,22,27,29,-54
25,23,-3,-24,14,10,5,-37,4,10,18,-66
-8,-29,-21,19,7,-25,13,-35,-11,-6,4,-75
-1,-39,-38,20,19,-38,22,-34,-31,-37,-24,-106
-28,-75,-47,51,10,-61,34,-44,-61,-57,-46,-132
-36,-86,-50,61,7,-68,41,-50,-69,-61,-46,-130
-35,-98,-63,67,14,-80,55,-51,-75,-77,-59,-146
-16,-96,-80,56,32,-88,52,-46,-64,-57,-50,-140
-21,-123,-102,72,41,-112,58,-46,-77,-76,-70,-158
-50,-123,-73,86,12,-97,51,-43,-63,-51,-50,-146
-33,-124,-91,79,30,-107,61,-37,-75,-69,-76,-163
-59,-72,-13,66,-23,-42,91,7,-52,-56,-55,-157
-104,-57,47,80,-76,-5,238,197,81,-15,-35,-142
192,180,-12,-186,102,84,136,285,377,320,261,75
915,731,-184,-823,549,274,-704,-335,647,994,1006,738
736,295,-440,-515,588,-72,-899,-1050,-86,380,558,510
-51,-253,-202,152,76,-227,-229,-762,-605,-383,-217,-168
-72,-107,-36,89,-18,-71,23,-192,-179,-155,-120,-167
-17,-126,-108,71,45,-117,75,-38,-81,-125,-128,-174
-72,-131,-59,101,-6,-95,102,4,-80,-104,-109,-173
-61,-135,-74,98,7,-104,97,11,-62,-99,-94,-160
-90,-138,-48,114,-20,-93,117,15,-73,-115,-103,-172
-75,-125,-51,100,-12,-88,98,20,-50,-101,-81,-154
-91,-136,-44,114,-24,-90,103,24,-61,-119,-95,-166
-88,-124,-36,106,-26,-80,93,22,-44,-100,-75,-155
-94,-126,-33,110,-30,-80,90,19,-54,-109,-82,-163
-72,-115,-43,93,-14,-79,100,20,-46,-97,-72,-158
-48,-114,-65,81,9,-89,104,15,-45,-98,-73,-159
-49,-106,-57,78,4,-81,97,15,-46,-92,-69,-153
-43,-100,-57,72,7,-78,92,16,-40,-89,-64,-145
-51,-106,-54,79,2,-80,86,32,-36,-84,-66,-140
-53,-116,-63,85,6,-90,81,41,-28,-71,-56,-131
-61,-111,-49,86,-6,-80,82,42,-24,-63,-50,-128
-64,-96,-32,80,-16,-63,76,46,-19,-43,-40,-117
-20,-59,-39,40,10,-49,68,47,6,-22,-31,-100
-9,-35,-26,22,9,-30,60,62,24,11,-14,-84
-20,-28,-8,24,-6,-18,53,82,57,51,38,-61
30,43,13,-37,9,28,43,105,99,82,79,-28
31,59,27,-45,2,43,22,118,117,127,121,4
49,79,30,-64,10,54,-12,135,145,160,156,27
105,141,36,-123,34,88,-26,145,159,182,166,47
107,101,-6,-104,56,47,-14,136,148,173,166,45
121,76,-44,-98,82,16,-5,124,134,137,149,29
116,67,-49,-91,83,8,5,97,110,112,118,4
85,33,-52,-59,68,-9,18,59,64,76,67,-32
40,-7,-48,-17,44,-27,29,31,23,39,23,-65
-14,-62,-48,39,17,-55,43,24,-2,2,-4,-91
-39,-80,-41,60,2,-60,54,19,-22,-17,-11,-97
-26,-78,-52,52,13,-65,55,9,-37,-24,-17,-99
-26,-71,-45,48,10,-58,55,6,-35,-36,-24,-101
-28,-71,-43,50,7,-57,55,-4,-25,-44,-31,-103
-18,-98,-80,58,31,-89,55,-10,-18,-45,-34,-105
-20,-90,-70,55,25,-80,56,-7,-10,-45,-29,-107
-21,-73,-52,47,16,-62,53,-14,-5,-50,-30,-111
-24,-76,-53,50,15,-64,64,-11,-2,-50,-30,-110
-30,-74,-45,52,8,-59,71,-4,2,-49,-30,-110
-33,-76,-43,54,6,-59,65,1,5,-43,-30,-110
-36,-73,-36,55,0,-54,63,5,10,-36,-26,-109
-33,-68,-35,51,1,-51,58,5,8,-31,-20,-106
-30,-65,-35,48,3,-50,55,10,3,-30,-15,-101
-31,-62,-31,47,0,-46,59,10,0,-30,-10,-99
-26,-57,-31,42,2,-44,60,7,-3,-25,-3,-95
-27,-55,-28,41,1,-41,60,4,-8,-26,-1,-90
-2,-48,-46,25,22,-46,60,1,-10,-23,-7,-93
12,-50,-62,19,38,-56,60,-2,-5,-20,-13,-95
-10,-69,-58,39,24,-63,61,-4,-5,-18,-18,-96
-8,-72,-64,40,28,-68,65,-7,-4,-13,-24,-100
-3,-67,-64,35,31,-65,65,-10,0,-28,-25,-101
-2,-69,-67,36,33,-68,65,-11,0,-43,-25,-104
-2,-60,-58,31,29,-59,65,-14,-2,-39,-30,-108
-20,-75,-56,48,19,-65,65,-16,-10,-36,-30,-110
-24,-90,-66,57,22,-78,66,-11,-10,-34,-31,-110
-16,-65,-49,40,17,-56,64,-8,-9,-28,-35,-113
-42,-78,-35,60,-3,-56,66,-4,-11,-33,-35,-116
-56,-89,-33,73,-11,-61,64,-1,-8,-26,-34,-115
-58,-80,-22,69,-17,-51,65,4,-14,-34,-38,-108
-35,-55,-19,45,-8,-37,67,7,18,-27,-20,-97
-4,-11,-7,8,2,-9,75,14,37,9,16,-77
-30,11,41,9,-35,25,93,35,45,21,32,-59
-6,51,57,-23,-32,54,61,37,94,60,42,-43
33,68,35,-51,-1,51,23,16,92,67,54,-38
34,62,28,-49,3,44,21,6,75,49,54,-41
34,44,10,-39,12,27,20,-1,64,42,32,-45
0,0,0,0,0,0,19,-8,44,25,15,-59
-24,-36,-11,30,-6,-23,34,-14,33,11,6,-81
-29,-76,-47,53,9,-62,58,-22,17,-37,-24,-115
-36,-96,-60,66,12,-78,53,-23,19,-53,-39,-119
-24,-105,-81,65,29,-93,57,-20,2,-60,-51,-123
-21,-98,-77,59,28,-87,49,-12,4,-48,-38,-116
-65,-148,-83,107,9,-115,50,-12,-12,-62,-51,-124
-65,-135,-70,100,3,-103,53,-3,-16,-49,-40,-117
-55,-126,-72,90,9,-99,57,-1,0,-57,-47,-125
-68,-133,-65,101,-2,-98,90,16,19,-40,-54,-131
-87,-66,21,77,-54,-23,199,187,122,-4,-37,-130
77,91,14,-84,31,52,222,352,398,238,183,-1
710,680,-29,-695,369,325,-503,-117,811,1071,1031,712
720,504,-216,-612,468,144,-891,-928,219,715,868,730
-7,-170,-163,89,78,-166,-288,-825,-554,-312,-131,-63
-139,-125,15,133,-77,-55,13,-227,-193,-192,-137,-178
-40,-121,-81,81,21,-101,53,-37,17,-94,-45,-130
-67,-136,-69,102,1,-102,102,10,-21,-112,-84,-158
-68,-133,-65,101,-1,-99,111,21,35,-70,-48,-134
-87,-153,-66,120,-11,-109,126,28,31,-92,-73,-155
-75,-123,-48,99,-13,-86,108,42,56,-57,-48,-138
-82,-140,-58,111,-12,-99,115,38,45,-73,-61,-150
-68,-115,-47,92,-10,-81,104,41,57,-53,-54,-143
-58,-127,-69,93,6,-98,105,48,55,-57,-63,-145
-60,-127,-66,94,3,-96,96,57,60,-50,-60,-149
-55,-121,-66,89,6,-93,88,53,60,-43,-58,-155
-43,-103,-61,73,9,-82,83,59,53,-54,-56,-154
-45,-96,-51,71,3,-73,73,60,57,-59,-54,-149
-60,-140,-80,101,10,-110,68,60,52,-52,-54,-148
-57,-104,-47,81,-5,-76,65,65,58,-38,-42,-145
-27,-55,-27,41,0,-40,64,65,50,-32,-39,-142
-36,-71,-35,54,0,-53,55,66,67,-21,-29,-126
-37,-39,-2,38,-17,-20,47,71,96,-25,-27,-114
-10,-2,8,6,-9,3,41,69,109,7,-9,-98
-12,25,38,-7,-25,31,28,77,144,67,35,-79
40,73,34,-57,3,53,5,106,180,103,82,-50
72,102,30,-87,21,65,-32,117,204,156,135,-20
86,141,55,-114,15,98,-56,114,232,195,167,11
121,145,24,-134,48,85,-52,121,265,216,202,50
132,126,-6,-129,69,60,-44,127,273,215,221,59
125,117,-8,-121,66,54,-37,136,265,196,192,37
91,83,-9,-87,50,37,-18,117,227,168,141,12
41,48,6,-44,17,27,9,75,179,107,85,-32
31,22,-9,-27,20,7,24,59,149,58,47,-64
58,-1,-58,-28,58,-29,41,51,108,29,30,-73
29,-29,-59,0,44,-44,47,40,94,18,23,-96
-8,-57,-49,32,21,-52,49,36,96,12,17,-102
-11,-62,-51,37,20,-56,50,29,94,2,12,-98
-4,-43,-39,24,18,-41,44,25,92,-3,5,-101
-2,-45,-44,23,21,-44,46,17,89,-13,-5,-99
-24,-82,-59,53,18,-70,43,18,91,-9,-16,-102
-27,-88,-61,58,17,-74,54,44,94,-3,-23,-102
-27,-69,-42,48,8,-56,67,52,109,6,-19,-97
-34,-85,-50,60,8,-67,62,49,121,16,-14,-94
-19,-99,-80,59,31,-89,59,51,120,14,-11,-90
-15,-84,-69,50,28,-77,56,49,120,16,-5,-87
-26,-81,-55,54,14,-68,50,51,120,14,0,-83
-37,-81,-44,59,3,-62,52,46,120,17,8,-80
-33,-78,-45,55,7,-61,56,40,116,34,28,-77
-21,-74,-53,48,16,-64,55,32,115,32,32,-75
-16,-63,-47,40,16,-55,55,27,115,26,26,-72
-15,-63,-48,39,17,-55,55,18,115,23,25,-69
-13,-51,-37,32,12,-43,55,18,114,17,21,-74
-23,-57,-34,40,6,-45,54,38,117,15,20,-75
-63,-88,-24,76,-19,-55,50,37,131,-3,16,-76
-63,-86,-23,75,-20,-54,50,23,123,-11,9,-88
-22,-77,-56,49,17,-66,48,17,108,-1,2,-96
-3,-64,-61,33,30,-62,44,3,106,8,-4,-100
5,-56,-61,26,33,-58,45,-1,102,14,-11,-100
5,-62,-67,29,36,-64,42,14,100,5,-14,-100
-18,-79,-61,49,22,-70,39,16,97,-5,-7,-100
-36,-76,-40,57,2,-58,42,11,94,-11,-1,-99
-41,-52,-10,47,-15,-31,37,9,99,-25,6,-101
-40,-50,-11,45,-14,-30,46,4,106,-13,12,-95
-52,-35,17,44,-34,-9,55,12,111,16,22,-85
-69,-28,41,48,-55,6,67,28,120,22,37,-74
-36,20,56,8,-46,37,69,37,128,48,49,-52
31,108,76,-70,-23,92,23,32,131,60,61,-43
64,108,43,-86,10,75,-5,22,128,55,67,-46
26,69,44,-48,-9,56,-1,16,134,87,59,-46
-14,32,46,-9,-31,39,11,8,109,54,45,-52
-32,-2,30,17,-31,14,18,3,71,24,37,-48
-53,-40,13,47,-33,-13,36,-4,69,22,18,-67
-50,-73,-22,62,-14,-47,52,-11,61,-11,-13,-92
-27,-82,-55,55,14,-68,50,-13,58,-17,-30,-89
-34,-96,-62,65,14,-79,59,-11,46,-49,-42,-95
-48,-93,-46,71,-1,-69,54,-5,47,-45,-28,-83
-64,-115,-51,90,-6,-82,65,-9,37,-58,-43,-98
-70,-100,-29,85,-20,-64,50,4,61,-38,-27,-81
-74,-125,-51,100,-11,-88,51,-8,45,-53,-41,-98
-69,-73,-4,71,-32,-38,89,42,61,-41,-35,-100
-100,-48,51,74,-75,1,232,260,209,8,-34,-103
137,215,78,-176,29,146,109,321,569,457,370,174
745,756,11,-751,367,383,-675,-305,847,1208,1184,891
527,301,-226,-414,376,38,-791,-980,7,474,649,620
-114,-197,-84,156,-15,-140,-175,-663,-525,-367,-216,-109
-118,-86,32,102,-75,-27,16,-134,-46,-115,-81,-112
-84,-128,-44,106,-20,-86,63,-22,35,-95,-68,-91
-85,-95,-10,91,-37,-52,105,15,39,-76,-78,-92
-66,-108,-42,88,-12,-75,101,20,68,-63,-61,-85
-90,-132,-41,111,-24,-86,107,31,40,-76,-80,-96
-86,-124,-38,105,-24,-81,96,39,61,-51,-61,-84
-96,-128,-32,112,-32,-79,100,35,62,-67,-78,-95
-93,-116,-23,105,-35,-69,92,36,75,-44,-63,-81
-103,-121,-18,112,-42,-70,93,34,58,-57,-68,-82
-92,-112,-20,103,-35,-66,87,36,65,-42,-59,-74
-84,-113,-29,99,-27,-70,84,34,53,-49,-58,-72
-91,-103,-12,98,-39,-57,81,38,59,-67,-54,-67
-96,-97,-1,96,-47,-49,76,40,70,-60,-49,-62
-105,-92,13,98,-58,-39,74,43,71,-50,-51,-57
-110,-82,28,96,-69,-27,66,46,84,-42,-50,-50
-103,-75,29,89,-66,-23,58,43,96,-37,-48,-46
-75,-44,31,60,-53,-6,50,52,106,-30,-28,-32
-43,-5,38,24,-40,16,43,67,120,-19,-3,-17
-57,-5,52,30,-54,23,34,73,152,22,21,-3
-63,19,83,22,-73,51,22,83,179,74,50,16
-8,80,87,-37,-48,83,8,104,213,117,97,54
12,95,83,-54,-36,89,-12,120,258,169,148,93
30,116,87,-74,-28,101,-33,119,282,203,185,118
62,145,82,-104,-10,113,-40,112,292,216,193,140
73,131,58,-102,7,94,-33,119,307,220,179,135
77,112,35,-95,21,73,-29,111,293,203,163,119
43,78,36,-61,3,57,-19,97,248,156,136,105
3,38,35,-21,-16,36,7,75,205,92,95,74
-26,9,35,8,-31,22,21,38,165,42,51,39
-38,-4,34,20,-36,15,24,27,131,20,18,25
-39,-10,29,25,-34,10,29,21,108,12,1,19
-51,-21,30,36,-41,5,34,14,96,6,-5,9
-58,-28,30,43,-44,0,35,8,85,-1,-10,3
-61,-31,30,46,-46,0,35,0,79,-17,-16,-1
-59,-29,30,44,-44,1,35,5,80,-27,-22,0
-62,-36,26,49,-44,-5,35,13,80,-23,-24,0
-59,-36,23,47,-41,-7,35,19,80,-21,-20,0
-35,-17,18,26,-27,1,35,25,80,-18,-20,0
-41,-24,17,32,-29,-4,34,25,80,-15,-18,1
-53,-44,9,49,-31,-17,38,25,80,-15,-14,7
-50,-36,14,43,-32,-11,41,25,80,-15,-15,13
-76,-45,31,60,-54,-6,38,25,81,-15,-12,17
-57,-22,35,40,-46,6,36,25,79,-15,-8,24
-14,5,18,4,-16,11,32,21,83,-15,-4,29
-56,-35,21,45,-38,-7,30,15,91,-15,-1,27
-95,-38,57,66,-76,9,28,10,84,-11,4,24
-67,-4,62,35,-64,29,25,5,77,-10,4,21
-40,17,57,11,-49,37,25,-2,71,-10,0,19
-41,11,52,15,-46,31,25,-4,63,-5,0,14
-59,-18,41,39,-50,11,25,0,63,-5,-2,20
-68,-34,33,51,-50,0,25,0,64,-6,-6,31
-62,-36,26,48,-43,-5,30,4,58,-11,-4,26
-57,-34,23,46,-40,-6,30,5,50,-14,-12,23
-52,-34,18,43,-35,-7,31,1,45,-17,-23,20
-45,-28,17,36,-31,-5,36,-4,36,-22,-20,15
-42,-33,9,37,-25,-11,34,-9,36,-25,-20,18
-37,-22,14,30,-25,-4,37,-12,34,-21,-17,20
-52,-21,31,36,-41,4,40,-18,32,-14,-15,20
-79,-39,40,59,-59,1,40,-19,29,-8,-15,19
-55,-31,24,43,-39,-4,47,-10,30,-1,-11,23
-36,13,50,11,-43,31,43,1,46,5,-2,37
-43,43,86,-1,-65,64,55,12,51,13,6,41
-28,55,83,-14,-56,69,58,28,66,29,21,56
14,121,107,-68,-46,114,14,36,73,42,47,86
52,135,82,-94,-15,108,-26,18,58,38,45,88
27,111,84,-69,-29,97,-40,-6,49,30,37,82
-10,88,98,-39,-54,93,-29,-28,26,20,26,73
-31,38,70,-4,-51,54,-14,-36,10,9,20,69
-49,1,51,24,-50,26,-3,-34,-3,-13,0,54
-68,-33,35,50,-51,1,8,-38,-17,-32,-38,26
-94,-55,39,74,-67,-8,12,-40,-20,-42,-45,20
-90,-65,25,77,-57,-20,25,-41,-33,-62,-59,8
-90,-55,34,72,-62,-10,26,-34,-18,-45,-48,14
-97,-86,11,91,-54,-37,34,-38,-25,-68,-63,-6
-53,-72,-19,63,-17,-45,26,-26,-10,-48,-47,5
-46,-90,-44,68,-1,-67,37,-34,-14,-72,-62,-17
-77,-53,24,64,-50,-14,64,11,7,-47,-53,-8
-126,-20,106,73,-116,43,195,213,115,-7,-39,-9
132,221,90,-177,21,155,111,297,430,359,287,214
783,775,-8,-779,395,383,-665,-297,726,1105,1099,910
612,361,-250,-486,431,56,-874,-1043,-42,469,653,692
-83,-176,-92,130,5,-134,-254,-754,-587,-361,-220,31
-159,-60,100,109,-130,20,-8,-173,-150,-138,-99,18
-119,-92,27,106,-73,-32,39,-45,-59,-104,-76,-18
-124,-76,48,100,-86,-14,81,1,-57,-89,-88,-24
-95,-79,17,87,-56,-30,73,8,-28,-81,-75,-25
-112,-85,27,98,-69,-29,80,20,-45,-92,-96,-48
-124,-78,45,101,-84,-16,71,31,-26,-72,-71,-36
-140,-92,48,115,-93,-22,78,37,-43,-88,-88,-46
-124,-80,45,102,-84,-17,73,42,-29,-68,-74,-36
-124,-87,38,106,-81,-24,76,38,-39,-75,-79,-40
-132,-71,61,101,-96,-5,72,42,-28,-63,-73,-33
-134,-69,65,101,-99,-2,67,38,-24,-63,-74,-36
-126,-61,65,93,-95,2,65,42,-20,-56,-68,-29
-119,-54,65,86,-91,6,60,45,-11,-52,-60,-23
-117,-52,65,84,-91,6,57,45,-9,-48,-55,-18
-109,-44,65,76,-87,10,53,47,-1,-43,-47,-12
-114,-44,70,79,-92,13,45,51,6,-39,-41,-7
-110,-32,77,71,-94,22,36,49,13,-32,-36,9
-91,-9,83,50,-87,37,28,57,23,-12,-23,20
-77,15,93,31,-85,54,18,74,27,18,-5,42
-54,57,111,-2,-82,84,9,85,51,53,33,63
-27,96,123,-34,-76,109,-6,100,94,110,84,86
15,132,118,-74,-52,125,-28,109,118,143,116,118
43,150,108,-97,-33,129,-45,116,152,184,161,150
63,160,97,-112,-17,129,-54,117,164,224,184,170
72,160,88,-116,-8,123,-54,108,151,214,178,161
63,136,72,-100,-5,103,-40,104,144,183,161,147
61,126,65,-94,-2,95,-27,89,110,132,121,126
37,94,57,-66,-10,75,-13,67,65,82,78,85
-5,45,50,-20,-28,48,-2,47,42,42,35,56
-34,12,46,11,-40,29,11,31,17,21,3,41
-49,-16,33,32,-41,8,25,27,-9,14,-15,34
-77,-17,61,47,-69,22,26,22,-20,3,-29,28
-81,-21,60,51,-70,19,22,18,-21,-9,-35,20
-74,-36,38,55,-56,1,20,13,-18,-20,-35,14
-83,-35,48,58,-65,7,16,10,-29,-31,-35,7
-78,-35,43,56,-60,4,15,7,-43,-32,-35,1
-81,-35,46,57,-63,6,19,5,-49,-26,-35,3
-80,-35,44,57,-61,4,24,2,-46,-22,-34,6
-78,-32,46,55,-62,7,27,-1,-46,-17,-29,5
-82,-27,55,54,-68,14,33,4,-60,-13,-26,5
-75,-20,55,47,-65,17,34,16,-59,-8,-23,4
-72,-17,55,44,-64,19,29,23,-52,-5,-18,7
-59,-8,51,33,-55,22,31,20,-50,-5,-15,10
-58,-8,50,33,-54,20,28,20,-43,-5,-11,12
-72,-22,49,47,-60,13,24,20,-41,-5,-10,15
-69,-23,46,46,-57,11,26,20,-44,-5,-10,18
-48,-14,34,31,-41,10,21,20,-49,-9,-11,21
-40,6,47,16,-44,27,20,16,-50,-10,-9,16
-69,-5,64,37,-67,29,20,10,-50,-10,-14,15
-73,-20,53,46,-62,16,15,5,-64,-14,-24,14
-72,-25,47,48,-59,10,15,-1,-75,-15,-26,11
-76,-33,44,54,-60,5,16,-7,-75,-14,-24,9
-66,-29,37,47,-51,4,28,-10,-75,-15,-26,12
-66,-30,36,48,-51,2,33,-10,-75,-15,-24,15
-57,-30,27,43,-42,-1,26,-10,-75,-15,-27,15
-59,-30,29,45,-44,0,25,-10,-75,-30,-42,17
-84,-41,43,62,-64,1,20,-14,-71,-36,-46,21
-83,-37,46,59,-64,4,17,-14,-70,-28,-44,20
-75,-29,45,51,-60,8,14,-9,-70,-28,-42,17
-73,-29,44,51,-58,7,16,-3,-65,-21,-39,14
-62,-14,48,37,-55,16,14,0,-65,-21,-40,10
-67,-26,40,46,-53,7,16,6,-63,-29,-34,10
-57,16,73,20,-65,44,49,9,-38,-10,-22,20
-59,54,113,2,-86,84,47,18,-13,14,-13,29
-49,61,109,-6,-79,85,31,36,-9,30,4,42
14,136,122,-75,-54,128,11,24,1,44,25,58
32,138,106,-86,-37,122,-30,2,1,38,21,67
29,120,90,-75,-31,105,-36,-13,-26,35,19,60
20,100,80,-60,-30,89,-20,-30,-62,21,10,40
-26,49,75,-12,-51,62,-11,-29,-65,1,-4,28
-35,19,54,8,-45,36,-2,-31,-76,-31,-29,7
-37,-19,18,28,-27,0,2,-29,-91,-40,-52,1
-89,-79,10,84,-49,-35,7,-39,-96,-40,-66,-3
-103,-97,6,100,-55,-45,16,-40,-113,-59,-72,-8
-88,-80,9,83,-48,-35,15,-29,-112,-54,-71,-6
-94,-99,-5,96,-44,-52,25,-34,-121,-63,-77,-21
-76,-67,9,71,-42,-28,14,-15,-98,-39,-52,-9
-111,-108,3,109,-57,-52,27,-35,-126,-63,-101,-45
-134,-55,79,94,-106,12,84,46,-58,-26,-71,-14
-111,-3,108,57,-110,53,231,270,83,17,-46,-20
320,377,57,-348,131,217,-69,187,463,558,469,372
908,760,-148,-834,528,305,-881,-564,533,1036,1060,941
459,110,-349,-284,404,-120,-759,-1064,-387,132,300,443
-153,-197,-44,175,-54,-120,-137,-557,-574,-340,-255,-65
-126,-41,85,83,-105,23,-13,-100,-169,-56,-83,-22
-118,-92,27,105,-72,-32,42,-41,-181,-93,-121,-44
-127,-68,59,98,-93,-4,63,4,-133,-69,-96,-13
-133,-109,25,121,-78,-42,64,23,-150,-76,-112,-23
-123,-88,35,106,-79,-26,67,41,-144,-70,-112,-20
-118,-92,26,105,-72,-32,62,32,-136,-60,-106,-18
-136,-90,47,112,-91,-21,68,37,-146,-64,-110,-23
-127,-81,46,103,-86,-17,62,34,-132,-71,-100,-15
-131,-89,42,110,-86,-24,61,35,-134,-85,-108,-18
-127,-76,51,101,-89,-12,52,34,-119,-70,-96,-13
-135,-75,60,105,-97,-7,49,21,-119,-73,-103,-14
-114,-65,49,89,-81,-8,43,42,-107,-61,-96,-8
-97,-59,39,78,-68,-10,36,52,-105,-61,-89,-11
-136,-54,82,95,-109,13,39,48,-96,-51,-81,-6
-142,-43,100,92,-121,28,39,55,-94,-49,-73,-5
-141,-45,96,93,-118,26,33,54,-82,-38,-65,-3
-134,-29,105,81,-120,38,30,56,-48,-7,-59,22
-105,-1,103,52,-104,51,25,69,-20,2,-42,48
-86,27,113,29,-100,70,22,82,-4,20,-8,61
-47,80,127,-17,-87,103,8,96,19,56,31,78
-12,111,123,-50,-68,117,-11,114,57,111,71,108
-1,140,142,-70,-72,141,-38,131,81,161,105,134
11,158,147,-84,-69,152,-56,138,114,189,142,157
41,176,135,-109,-47,155,-47,143,127,197,150,158
75,189,114,-132,-20,151,-41,133,115,191,140,143
75,157,82,-116,-4,120,-34,118,99,173,128,137
19,98,79,-59,-30,88,-27,96,53,128,90,116
-4,71,75,-34,-40,73,-23,64,1,85,47,84
-13,56,70,-21,-42,63,-16,35,-34,54,14,62
-44,21,66,11,-55,43,-9,18,-55,32,-8,50
-43,16,59,13,-51,37,-2,14,-66,13,-25,40
-47,11,58,18,-53,34,4,8,-80,0,-45,32
-62,-14,48,38,-55,17,10,2,-87,-5,-51,23
-85,-27,58,56,-71,15,10,-2,-81,-13,-49,14
-89,-22,67,55,-78,22,10,-9,-80,-21,-50,10
-73,-13,61,43,-67,24,10,-15,-76,-28,-50,10
-64,-6,58,35,-61,26,10,-13,-75,-27,-50,10
-57,6,63,25,-60,34,10,-6,-71,-21,-45,10
-51,25,76,13,-64,50,8,1,-65,-17,-41,10
-47,19,66,14,-57,42,4,7,-60,-12,-38,6
-47,11,58,18,-53,34,5,14,-55,-8,-35,5
-54,3,56,25,-55,29,5,19,-48,-3,-30,5
-68,-16,52,41,-60,18,5,15,-47,2,-32,5
-63,-15,49,39,-56,17,5,15,-58,2,-36,5
-46,-2,45,23,-45,21,0,14,-62,-2,-34,6
-34,23,57,6,-46,39,0,9,-63,-4,-39,14
-22,37,58,-8,-40,47,-1,11,-67,-7,-40,21
-33,17,50,8,-42,33,-5,8,-69,-10,-41,27
-62,-15,47,38,-55,16,-5,1,-72,-11,-44,27
-30,9,38,10,-34,23,-2,-6,-75,-24,-47,22
-4,33,37,-15,-21,35,0,-12,-79,-27,-50,20
-27,18,45,4,-37,31,0,-20,-84,-24,-53,15
-28,16,44,5,-36,30,3,-24,-85,-26,-55,12
-37,3,40,17,-38,22,6,-21,-85,-24,-53,8
-57,-21,36,38,-46,7,4,-20,-89,-26,-48,5
-61,-27,34,44,-47,3,1,-20,-91,-23,-45,5
-49,-22,27,36,-38,2,0,-19,-88,-20,-42,2
-57,-22,36,39,-47,7,-1,-21,-85,-20,-37,0
-75,-16,59,45,-67,21,-5,-18,-85,-20,-35,0
-79,-18,62,48,-70,22,-5,-13,-86,-19,-29,6
-72,-7,65,38,-68,29,-2,-9,-84,-21,-24,19
-55,11,66,22,-61,39,7,-3,-86,-14,-18,30
-53,27,80,13,-67,53,27,0,-77,-1,-13,38
-34,56,90,-11,-62,72,33,17,-60,11,-7,43
-14,98,112,-42,-63,105,20,32,-59,42,1,55
23,141,118,-82,-48,129,-15,19,-63,56,9,72
67,159,93,-113,-13,126,-56,9,-67,41,32,85
63,142,79,-103,-8,111,-52,-4,-69,32,37,79
21,80,60,-51,-20,70,-35,-32,-75,18,6,62
-28,46,75,-9,-52,60,-26,-36,-76,5,-9,52
-56,-5,51,30,-54,23,-14,-31,-99,-19,-35,29
-81,-40,42,60,-61,1,-5,-30,-113,-31,-51,23
-96,-48,48,72,-72,0,4,-25,-115,-42,-57,18
-82,-48,33,65,-57,-7,6,-27,-117,-47,-67,15
-88,-52,36,70,-62,-8,3,-28,-107,-55,-76,16
-91,-78,13,84,-52,-32,7,-27,-117,-58,-76,4
-77,-48,29,62,-53,-9,13,-6,-99,-29,-51,19
-107,-88,19,97,-62,-35,23,-14,-114,-53,-71,-11
-137,-34,103,85,-119,34,89,76,-47,0,-22,13
-106,21,127,42,-117,74,237,304,96,53,-7,15
441,479,38,-460,201,258,-199,117,482,637,569,485
973,745,-228,-858,600,258,-967,-684,419,921,1008,939
396,18,-377,-207,386,-179,-685,-1018,-489,-36,141,323
-175,-181,-6,178,-84,-93,-103,-468,-520,-305,-249,-70
-127,-58,69,92,-98,6,-6,-76,-132,-49,-56,-7
-121,-118,3,119,-62,-58,51,-24,-160,-98,-102,-44
-115,-69,46,92,-81,-11,59,16,-110,-59,-63,-7
-119,-104,15,111,-67,-45,75,35,-128,-85,-79,-20
-115,-79,36,97,-75,-22,72,50,-113,-71,-61,-3
-99,-88,10,93,-54,-39,68,42,-111,-75,-85,-9
-99,-85,14,92,-56,-35,72,46,-109,-73,-103,-12
-115,-78,37,97,-76,-20,62,45,-103,-65,-86,-7
-134,-83,52,108,-93,-15,68,45,-115,-69,-88,-13
-121,-78,44,99,-83,-17,61,45,-106,-59,-74,-7
-117,-79,37,98,-77,-21,60,45,-113,-63,-75,-11
-103,-68,35,85,-69,-16,57,47,-103,-56,-66,0
-85,-61,24,73,-54,-18,54,45,-101,-53,-64,6
-91,-54,37,72,-64,-8,51,41,-96,-45,-59,15
-95,-44,51,69,-73,3,49,40,-91,-40,-54,24
-92,-42,50,67,-71,4,43,61,-85,-35,-49,27
-76,-24,52,50,-64,14,33,76,-55,-19,-36,42
-53,21,74,16,-64,47,26,85,-33,15,-18,54
-53,40,92,7,-73,65,17,100,-11,53,14,74
-22,67,89,-23,-55,78,8,123,32,82,58,109
10,94,83,-53,-37,88,-3,142,70,123,94,132
35,127,92,-81,-28,109,-17,153,105,162,130,163
46,151,105,-99,-30,128,-36,155,119,188,158,188
56,135,79,-96,-12,107,-44,151,108,187,157,187
101,129,28,-115,37,78,-35,147,100,178,148,178
93,113,19,-103,37,66,-25,146,92,161,133,164
54,79,26,-67,14,52,-15,115,66,122,101,139
32,46,14,-39,9,29,-9,72,26,75,57,100
9,16,7,-12,1,11,-7,55,-2,37,22,64
-21,-21,0,21,-10,-10,-3,39,-22,18,3,53
-26,-38,-12,32,-6,-25,-1,28,-43,6,-13,48
-18,-32,-14,25,-2,-23,5,23,-55,-1,-23,40
-21,-49,-28,35,4,-39,14,15,-55,-8,-36,33
-12,-59,-47,36,18,-53,23,10,-56,-16,-42,25
-9,-46,-37,28,15,-42,29,2,-61,-22,-40,20
-8,-41,-33,24,13,-37,25,2,-59,-22,-37,20
-5,-32,-27,19,11,-29,23,7,-65,-19,-34,20
-3,-25,-22,14,10,-24,20,10,-73,-16,-31,20
-17,-37,-20,27,2,-28,16,13,-68,-12,-30,20
-27,-43,-16,35,-5,-29,15,18,-62,-10,-30,23
-18,-33,-15,26,-1,-24,12,20,-59,-11,-30,25
-32,-17,15,24,-24,-1,10,15,-53,-14,-30,25
-47,-17,30,31,-38,6,10,15,-51,-17,-30,25
-33,-23,10,28,-22,-6,10,15,-51,-11,-30,25
-21,-15,6,18,-14,-4,10,15,-51,-29,-33,25
-13,-9,4,10,-9,-2,12,14,-49,-5,-35,20
-9,-31,-23,20,7,-27,15,18,-48,-38,-35,20
-11,-48,-38,30,14,-43,18,31,-43,-9,-35,18
-12,-39,-27,26,7,-33,20,30,-47,-39,-35,15
-15,-39,-24,27,5,-31,23,22,-66,-30,-35,15
-16,-33,-17,25,1,-25,26,16,-71,-16,-42,15
-23,-30,-7,27,-8,-18,21,10,-70,-78,-53,16
-10,-35,-24,23,7,-29,20,1,-68,34,-55,14
-3,-32,-29,18,13,-30,20,4,-77,-152,-55,17
-6,-23,-18,15,6,-20,15,20,-86,27,-55,12
-12,-17,-5,15,-3,-11,15,34,-75,-349,-55,18
-33,-27,6,30,-19,-11,15,40,-60,59,-55,16
-58,-51,6,54,-32,-22,15,55,-56,-651,-49,29
-55,-32,23,43,-39,-4,15,42,-23,-3097,-42,24
11,11,0,-11,5,6,15,2,-22,-2643,-40,39
