I,II,III,aVR,aVL,aVF,V1,V2,V3,V4,V5,V6
30,-60,-90,15,60,-75,215,487,368,89,-5,15
26,-61,-87,18,56,-73,203,447,334,72,-5,15
18,-62,-80,22,49,-71,170,357,258,47,-9,15
18,-58,-76,20,47,-67,134,263,182,36,-10,15
5,-52,-57,24,31,-54,111,187,127,24,-4,15
-16,-49,-33,33,9,-41,100,117,88,27,11,15
-21,-44,-23,33,1,-33,98,74,71,43,36,31
-27,-39,-12,33,-7,-25,95,57,58,46,42,36
-50,-55,-5,53,-23,-29,92,47,49,45,37,28
-67,-72,-6,70,-30,-38,90,44,47,45,36,24
-74,-77,-3,76,-35,-40,90,45,43,45,32,17
-78,-78,0,78,-39,-39,90,44,39,45,29,12
-75,-74,0,74,-37,-37,90,45,35,45,33,10
-72,-72,0,72,-36,-36,90,44,37,45,35,10
-69,-69,0,69,-35,-35,90,40,44,45,35,10
-65,-65,0,65,-32,-32,89,36,49,45,39,10
-65,-65,0,65,-32,-32,85,33,45,45,41,10
-70,-70,0,70,-35,-35,81,30,45,41,39,9
-70,-70,0,70,-35,-35,78,24,44,37,36,6
-74,-74,0,74,-37,-37,75,31,39,34,34,5
-75,-75,0,75,-37,-37,70,34,40,31,35,5
-78,-78,0,78,-39,-39,72,27,37,26,34,4
-85,-85,0,85,-42,-42,76,23,34,26,36,6
-85,-85,0,85,-42,-42,75,16,35,33,32,2
-85,-85,0,85,-42,-42,79,11,35,32,29,0
-85,-85,0,85,-42,-42,81,6,35,28,31,0
-85,-86,0,85,-42,-43,79,-1,34,24,29,-4
-84,-84,1,84,-42,-41,76,-8,30,21,31,-5
-81,-82,-1,81,-40,-41,69,-14,23,15,28,-5
-78,-77,1,77,-39,-38,68,-21,19,17,27,1
-71,-77,-6,75,-32,-41,58,-24,10,27,19,7
-69,-67,2,68,-35,-33,72,-9,17,40,25,15
-73,-32,40,52,-56,4,117,14,44,57,44,20
-66,-17,50,41,-58,16,131,46,69,60,48,28
-59,-23,37,41,-48,7,138,72,91,75,65,32
-40,-13,27,26,-34,7,133,68,97,91,77,36
0,19,19,-10,-10,18,92,59,93,99,91,59
14,20,6,-18,4,13,61,51,91,102,103,61
4,5,1,-5,2,3,60,42,90,90,98,49
8,-12,-20,2,15,-16,61,29,70,74,84,44
-4,-41,-38,23,17,-39,59,8,34,44,54,35
-72,-73,-1,73,-35,-37,61,4,10,19,29,19
-114,-101,13,107,-63,-44,59,-2,-9,1,12,-2
-115,-110,6,112,-60,-52,57,-2,-9,-6,6,-9
-122,-119,3,120,-63,-58,52,-9,-17,-15,0,-13
-121,-120,1,120,-61,-59,51,-9,-23,-20,-10,-20
-118,-125,-7,122,-55,-66,47,-4,-26,-11,-14,-24
-125,-125,0,126,-62,-63,44,-8,-33,-20,-21,-30
-129,-131,-2,130,-64,-66,48,2,-12,-20,-11,-25
-130,-129,1,130,-65,-64,49,-9,-26,-30,-15,-22
-123,-118,5,121,-64,-56,52,13,7,-11,-7,-19
-116,-116,0,115,-58,-58,50,-19,-17,-21,-6,-13
-112,-97,15,104,-64,-40,60,8,21,-4,-7,-14
-131,-97,35,114,-83,-31,46,-45,-17,20,20,5
-126,-38,88,82,-107,25,50,62,90,147,99,44
296,31,-265,-163,281,-117,-244,123,420,655,619,308
1160,339,-821,-749,991,-241,-1161,-899,-254,736,1146,763
1552,470,-1083,-1010,1317,-306,-1746,-1901,-1301,-107,766,808
683,-23,-707,-330,695,-365,-1215,-1882,-1627,-907,-100,334
-219,-212,7,216,-113,-102,-422,-1067,-1053,-737,-371,-20
-191,-102,89,146,-140,-6,-82,-290,-300,-243,-156,-53
-117,-104,13,110,-65,-45,35,-55,-97,-108,-87,-46
-130,-103,27,116,-78,-38,96,80,15,-36,-58,-46
-109,-105,4,106,-56,-51,122,108,43,-17,-42,-40
-113,-91,22,102,-68,-34,134,135,66,-10,-45,-41
-91,-89,2,90,-46,-43,134,156,93,6,-32,-39
-95,-80,15,88,-55,-32,137,157,86,12,-33,-41
-88,-84,4,86,-46,-40,140,176,108,31,-23,-40
-89,-86,3,87,-45,-41,140,192,120,43,-22,-40
-84,-84,0,84,-41,-42,147,231,143,60,-16,-40
-80,-86,-6,84,-37,-46,155,254,160,73,-14,-39
-77,-84,-7,81,-34,-45,159,283,190,83,-10,-33
-73,-85,-13,79,-30,-49,165,312,215,88,-5,-26
-62,-77,-15,70,-23,-46,170,353,253,103,-3,-19
-47,-69,-22,58,-12,-45,190,406,298,121,7,-12
-35,-60,-25,48,-5,-42,212,461,344,134,11,-6
-22,-52,-30,37,4,-41,223,514,393,144,20,-1
-12,-46,-34,30,11,-40,239,569,434,161,29,0
0,-39,-39,20,19,-39,241,591,460,157,21,0
13,-33,-46,10,30,-39,232,585,452,144,8,0
27,-26,-53,-1,40,-39,224,576,415,128,-3,0
32,-20,-52,-6,42,-36,216,541,386,92,-12,2
30,-15,-45,-7,37,-30,208,477,327,50,-23,5
29,-10,-40,-9,35,-25,176,379,240,15,-27,8
26,-6,-32,-9,29,-19,137,276,175,9,-18,10
12,-1,-13,-5,13,-7,108,186,109,11,-10,14
-5,3,8,1,-7,5,79,112,64,10,-1,15
-16,5,22,5,-19,13,58,61,43,10,5,11
-30,5,35,12,-33,20,42,28,25,6,5,6
-47,-6,42,26,-44,18,33,15,9,3,3,2
-69,-24,45,46,-57,10,35,9,-14,0,-1,-3
-85,-35,50,60,-67,7,35,2,-23,-3,0,-7
-82,-35,47,58,-64,6,34,-6,-16,-6,-4,-12
-79,-35,44,57,-61,5,35,-13,-9,-3,-5,-15
-80,-35,45,57,-62,5,35,-11,-3,3,-5,-20
-80,-35,44,57,-62,5,38,-5,4,7,-5,-24
-80,-35,46,57,-62,5,52,0,10,11,-5,-25
-74,-31,44,52,-59,6,54,5,14,16,-5,-25
-69,-29,40,49,-55,5,47,12,15,20,-5,-25
-68,-28,40,48,-54,6,44,14,15,15,-5,-25
-60,-22,38,41,-48,7,38,7,15,11,-7,-26
-73,-39,35,55,-53,-2,34,0,15,9,-12,-31
-97,-62,35,79,-66,-13,30,-6,12,4,-15,-35
-103,-65,38,84,-70,-13,26,-13,3,1,-18,-40
-107,-65,42,86,-74,-11,23,-18,-5,-2,-23,-36
-107,-62,45,84,-76,-8,20,-24,-14,-7,-26,-35
-105,-57,48,81,-76,-4,15,-25,-20,-13,-29,-35
-107,-55,52,81,-79,-1,17,-26,-19,-16,-30,-30
-105,-50,55,77,-80,2,24,-32,-23,-21,-30,-30
-103,-47,55,75,-79,4,29,-32,-28,-25,-30,-29
-102,-42,60,72,-80,8,34,-28,-23,-16,-30,-23
-97,-37,60,67,-78,11,40,-27,-18,-3,-28,-16
-81,-16,64,48,-72,24,45,-22,-16,9,-17,-9
-69,11,80,29,-74,45,55,-1,5,24,-7,-2
-44,33,78,5,-61,55,78,29,30,36,2,4
-22,50,72,-14,-47,61,79,54,52,49,12,10
-18,51,69,-16,-44,59,62,45,57,62,18,20
23,87,64,-56,-21,75,51,27,44,66,34,29
43,103,60,-73,-9,81,15,31,36,64,37,41
33,83,51,-58,-9,67,-9,21,23,67,26,37
33,70,37,-51,-2,53,-12,2,6,41,19,22
20,36,17,-28,1,26,-14,-13,-10,4,3,14
-19,13,31,3,-25,22,0,-27,-26,0,-17,-14
-65,-8,58,36,-61,25,14,-48,-48,-17,-44,-36
-80,-25,55,52,-67,15,17,-57,-56,-32,-56,-35
-76,-26,50,51,-63,12,14,-66,-66,-29,-56,-30
-75,-23,51,49,-62,14,15,-63,-64,-31,-62,-32
-79,-37,42,58,-60,3,10,-68,-66,-41,-62,-46
-98,-50,48,74,-73,-1,10,-72,-78,-49,-74,-59
-119,-82,37,101,-78,-22,11,-65,-72,-55,-75,-59
-133,-93,40,113,-87,-26,15,-72,-80,-75,-77,-62
-120,-86,34,103,-77,-26,16,-54,-53,-52,-66,-57
-122,-96,26,109,-74,-35,12,-77,-80,-59,-68,-63
-120,-74,47,97,-83,-14,20,-37,-35,-31,-60,-55
-130,-47,84,88,-107,18,1,-99,-82,-20,-33,-21
-109,6,115,51,-112,60,-7,50,103,153,92,20
398,68,-330,-233,364,-131,-404,-22,330,631,602,287
1288,367,-921,-827,1104,-277,-1396,-1178,-487,542,979,683
1514,386,-1129,-950,1321,-372,-1852,-2066,-1478,-357,494,636
529,-112,-642,-208,586,-377,-1183,-1869,-1658,-990,-273,180
-252,-182,70,217,-161,-56,-411,-999,-972,-672,-388,-89
-173,-82,91,127,-132,5,-112,-313,-299,-239,-181,-106
-152,-109,43,130,-97,-33,5,-110,-134,-144,-131,-103
-153,-87,67,120,-109,-10,53,9,-35,-83,-113,-99
-139,-101,38,120,-88,-31,70,28,-28,-80,-109,-97
-147,-89,58,118,-102,-15,79,71,9,-61,-99,-95
-128,-91,37,109,-82,-27,83,87,35,-50,-92,-92
-138,-90,48,114,-93,-21,92,99,47,-42,-89,-86
-122,-86,36,104,-79,-24,93,126,71,-34,-81,-81
-120,-82,38,101,-79,-21,100,133,70,-35,-77,-78
-109,-75,34,92,-71,-20,101,162,91,-27,-70,-72
-103,-74,30,88,-66,-22,111,191,115,-17,-67,-68
-97,-67,31,82,-64,-18,118,224,142,0,-59,-65
-87,-64,23,75,-55,-20,128,264,176,12,-53,-65
-79,-59,19,69,-49,-20,148,311,213,32,-46,-65
-74,-60,13,67,-44,-23,163,353,256,55,-39,-65
-66,-58,8,61,-36,-25,179,407,306,78,-36,-65
-57,-54,3,55,-29,-25,197,460,347,86,-41,-62
-54,-56,-2,55,-25,-29,215,502,384,82,-40,-57
-36,-48,-12,42,-12,-30,217,517,387,77,-42,-53
-13,-33,-20,23,4,-26,211,511,383,74,-46,-49
10,-20,-30,5,20,-25,206,506,377,66,-44,-44
21,-15,-36,-3,29,-25,199,473,329,29,-53,-41
17,-13,-29,-2,23,-21,184,411,269,-16,-57,-37
13,-10,-22,-1,17,-16,150,318,196,-43,-49,-33
10,-6,-16,-1,13,-11,107,218,121,-44,-45,-30
0,-5,-5,2,3,-5,63,130,75,-35,-39,-27
-13,-5,8,9,-10,2,34,57,36,-30,-33,-24
-33,-5,28,19,-30,11,29,19,13,-22,-30,-21
-45,-5,41,25,-42,18,30,3,-2,-23,-30,-18
-45,-6,39,26,-42,16,30,-5,-15,-25,-30,-15
-54,-13,41,33,-48,14,30,-10,-21,-25,-30,-16
-57,-12,45,34,-51,16,30,-20,-24,-25,-30,-22
-54,-9,45,31,-50,17,34,-31,-20,-25,-30,-28
-56,-10,45,32,-50,17,37,-28,-20,-24,-34,-34
-55,-10,45,32,-50,17,41,-22,-18,-20,-36,-39
-55,-10,45,32,-50,17,44,-19,-14,-20,-35,-44
-56,-11,45,33,-50,16,47,-13,-15,-20,-35,-45
-60,-15,45,37,-52,15,50,-11,-18,-20,-34,-45
-63,-18,44,40,-54,13,53,-15,-21,-20,-36,-44
-62,-22,40,42,-51,9,56,-15,-20,-23,-40,-40
-65,-25,40,45,-52,7,59,-15,-20,-25,-40,-40
-60,-21,39,41,-49,8,60,-15,-20,-25,-42,-40
-49,-14,35,31,-42,11,55,-15,-19,-25,-45,-40
-45,-11,34,28,-39,11,53,-13,-13,-26,-45,-40
-42,-3,39,22,-40,18,49,-9,-6,-24,-41,-36
-39,0,39,19,-39,19,44,-11,1,-27,-32,-31
-44,8,52,18,-49,30,53,-8,7,-12,-26,-26
-42,29,71,7,-57,50,72,-1,17,16,-19,-23
-15,52,66,-19,-41,59,86,35,39,32,-6,-17
11,70,59,-41,-24,64,97,67,45,42,9,-15
20,73,53,-47,-16,63,92,38,35,36,19,-15
48,95,47,-71,0,70,52,16,28,28,16,-15
59,92,33,-76,13,62,7,13,18,20,6,-15
41,54,13,-48,14,33,-10,-2,8,13,2,-15
39,16,-23,-27,31,-3,-10,-40,-23,2,-8,-14
4,-11,-15,4,9,-13,-5,-64,-58,-14,-26,-22
-59,-36,23,48,-40,-7,-3,-65,-71,-32,-45,-44
-76,-56,20,66,-48,-18,2,-76,-85,-59,-70,-71
-69,-55,14,61,-41,-20,5,-84,-95,-68,-80,-83
-96,-81,15,88,-55,-33,8,-87,-98,-77,-85,-89
-110,-101,8,105,-59,-46,11,-81,-91,-79,-85,-92
-104,-92,11,98,-57,-40,8,-90,-101,-77,-86,-97
-102,-85,17,93,-59,-34,12,-78,-89,-71,-84,-100
-92,-82,11,86,-51,-35,8,-93,-97,-70,-85,-99
-91,-69,22,80,-56,-23,12,-75,-80,-64,-83,-104
-74,-69,5,71,-39,-32,19,-82,-81,-58,-70,-103
-94,-58,36,76,-65,-11,22,-69,-78,-51,-67,-109
-90,-44,46,67,-68,1,3,-63,-55,-22,-24,-82
-95,17,113,39,-104,65,4,-73,-55,34,21,-43
113,32,-81,-72,97,-25,-76,169,307,387,305,73
901,156,-745,-529,823,-294,-788,-470,22,590,788,403
1630,449,-1182,-1039,1406,-366,-1693,-1777,-1156,-46,667,589
1137,141,-996,-638,1066,-427,-1542,-2168,-1812,-915,-90,287
17,-194,-211,89,114,-202,-684,-1495,-1413,-928,-459,-76
-244,-89,155,167,-200,33,-181,-566,-552,-386,-270,-150
-146,-100,46,123,-95,-27,-27,-186,-190,-170,-157,-143
-175,-97,78,136,-126,-9,51,-57,-95,-110,-134,-144
-147,-99,49,123,-98,-25,90,18,-36,-74,-113,-134
-155,-98,57,127,-106,-20,103,45,-14,-67,-111,-130
-134,-86,49,110,-91,-18,108,79,39,-46,-97,-121
-132,-90,42,110,-87,-24,115,79,30,-43,-97,-117
-120,-78,43,99,-81,-17,116,108,52,-29,-89,-95
-109,-79,30,94,-69,-24,136,126,65,-25,-87,-67
-102,-70,32,86,-66,-19,144,145,78,-14,-81,-47
-86,-65,21,75,-53,-22,145,173,103,-5,-77,-30
-74,-56,18,64,-46,-19,153,213,132,5,-69,-18
-65,-48,17,56,-41,-15,159,245,160,18,-61,-8
-73,-41,32,56,-52,-4,171,292,195,34,-53,-2
-64,-35,29,49,-46,-3,187,343,241,56,-44,2
-50,-30,20,40,-35,-5,201,393,283,75,-35,7
-41,-25,15,33,-27,-5,216,455,331,94,-32,11
-27,-22,5,24,-16,-8,236,508,382,106,-36,16
-17,-17,0,17,-8,-8,243,536,394,99,-35,19
-4,-13,-8,9,2,-10,237,531,385,85,-35,20
7,-10,-17,1,12,-13,228,526,381,76,-35,20
20,-6,-26,-6,23,-16,224,499,348,57,-46,20
31,-3,-34,-14,33,-18,206,432,293,27,-58,20
29,0,-29,-14,29,-14,165,344,216,-8,-58,17
22,5,-16,-13,19,-5,129,240,136,-30,-56,12
15,16,0,-16,7,7,98,149,80,-31,-52,7
-5,17,22,-6,-14,19,68,71,31,-30,-50,3
-37,4,41,16,-39,23,60,19,7,-30,-45,-1
-60,-7,53,33,-56,22,58,-5,-7,-30,-45,-6
-82,-22,60,52,-71,19,55,-13,-15,-28,-49,-9
-87,-27,60,57,-73,16,51,-18,-23,-25,-50,-16
-81,-20,61,50,-70,20,49,-21,-31,-24,-49,-19
-86,-20,67,52,-76,23,54,-28,-34,-26,-51,-24
-76,-13,63,44,-69,25,55,-29,-22,-23,-50,-29
-78,-12,66,45,-72,27,55,-41,-15,-27,-44,-25
-50,3,53,23,-51,28,54,-30,-9,-6,-7,1
36,87,51,-62,-8,69,56,64,78,87,72,62
204,288,84,-246,60,185,79,324,358,347,299,223
382,606,224,-494,79,415,172,747,830,780,683,500
448,858,410,-653,19,634,291,1113,1255,1171,1016,739
412,1091,678,-752,-133,884,378,1328,1574,1513,1326,981
312,1467,1155,-889,-422,1311,347,1306,1887,1956,1720,1295
390,1869,1479,-1130,-544,1674,132,1155,2273,2595,2281,1675
398,2237,1839,-1318,-720,2037,-275,352,2059,3061,2753,1999
242,2266,2024,-1254,-891,2145,-810,-974,994,2993,2865,2029
-31,2003,2035,-986,-1033,2019,-953,-1670,-202,2155,2478,1811
-306,1383,1689,-539,-998,1536,-556,-1411,-711,947,1443,1148
-201,303,503,-51,-352,403,-158,-526,-347,195,363,257
-146,-197,-51,171,-47,-124,7,-133,-196,-186,-171,-144
-157,-196,-39,177,-59,-117,50,-132,-244,-292,-280,-206
-104,-252,-147,178,22,-199,70,-61,-193,-309,-314,-238
-98,-259,-161,179,31,-209,83,-80,-208,-353,-348,-251
-87,-309,-222,198,68,-265,65,-49,-214,-374,-375,-284
-83,-308,-225,196,71,-266,6,-107,-290,-443,-421,-304
-31,-349,-318,190,144,-333,-30,-135,-320,-483,-450,-335
-15,-420,-405,218,195,-412,-40,-126,-335,-522,-487,-363
-8,-452,-444,230,218,-448,-56,-139,-358,-560,-521,-390
7,-497,-504,245,256,-500,-54,-131,-400,-617,-568,-432
-38,-558,-520,298,241,-539,-56,-142,-443,-687,-638,-481
-53,-639,-586,346,267,-612,-55,-142,-484,-765,-708,-540
-13,-693,-680,353,334,-686,-56,-139,-533,-842,-777,-582
29,-749,-778,360,404,-763,-64,-132,-565,-910,-837,-625
82,-806,-888,362,485,-847,-78,-127,-601,-989,-893,-660
106,-875,-981,385,544,-928,-82,-119,-629,-1060,-946,-672
158,-909,-1067,376,613,-988,-76,-106,-651,-1117,-976,-668
235,-889,-1125,328,680,-1006,-72,-94,-647,-1153,-976,-654
256,-886,-1142,315,699,-1014,-67,-60,-631,-1153,-960,-648
272,-861,-1133,295,703,-997,-63,-25,-591,-1126,-942,-620
269,-801,-1071,266,670,-936,-40,16,-520,-1062,-878,-570
238,-725,-963,243,601,-844,-17,51,-443,-956,-780,-513
194,-624,-818,215,507,-721,2,81,-349,-820,-663,-436
157,-497,-654,170,406,-575,19,105,-242,-653,-526,-355
106,-378,-484,136,295,-431,30,95,-152,-487,-402,-267
42,-272,-314,116,178,-293,52,87,-83,-338,-283,-196
10,-167,-177,79,94,-171,55,78,-28,-205,-186,-136
-28,-93,-65,60,19,-78,49,68,4,-111,-111,-88
-46,-42,4,44,-25,-19,51,63,13,-50,-51,-59
-69,-17,52,42,-60,17,47,55,14,-1,-15,-32
-94,-13,80,53,-87,34,45,50,19,19,-2,-24
-92,-5,86,48,-88,40,45,42,22,29,5,-23
-97,2,98,47,-98,50,41,36,26,46,15,-19
-94,6,100,44,-98,53,40,31,34,51,21,-17
-79,20,100,29,-90,60,40,25,36,50,29,-14
-69,32,101,18,-85,66,36,20,35,51,28,-12
-73,26,100,23,-87,63,34,14,35,50,25,-8
-78,24,101,27,-90,62,37,9,35,50,26,-6
-84,20,104,32,-94,62,40,4,34,54,25,-3
-92,15,107,38,-100,61,40,-1,30,56,25,0
-92,17,110,37,-101,63,40,-6,31,55,26,0
-92,21,113,35,-102,67,40,-10,28,55,30,0
-93,23,116,34,-105,69,40,-15,25,56,31,0
-85,27,113,29,-100,70,36,-20,25,54,30,0
-70,40,110,15,-90,74,35,-24,22,50,31,0
-67,40,107,13,-87,73,35,-25,19,51,29,0
-69,35,104,16,-87,69,35,-25,16,48,33,-4
-67,34,101,16,-84,67,35,-25,13,45,35,-5
-71,29,100,21,-85,65,34,-25,10,45,35,-5
-73,31,105,21,-89,68,30,-24,11,49,35,-5
-70,35,105,17,-88,70,28,-20,18,54,35,-5
-70,34,105,17,-88,70,25,-20,17,50,35,-4
-68,38,105,15,-87,71,22,-18,15,50,35,0
-64,41,104,11,-84,72,20,-14,15,50,36,0
-68,39,108,14,-88,73,17,-15,15,50,32,0
-66,44,110,11,-89,77,15,-18,15,50,24,0
-62,48,110,7,-86,79,15,-21,16,46,17,0
-60,53,113,3,-87,83,15,-20,22,45,10,4
-62,54,116,3,-89,85,15,-20,25,44,2,5
-65,50,114,7,-90,81,16,-20,30,41,-3,5
-60,50,110,5,-85,80,20,-20,35,39,-1,9
-62,48,110,8,-86,79,20,-20,32,41,0,11
-64,44,109,10,-87,76,20,-20,29,45,1,8
-59,45,105,7,-83,75,20,-20,26,45,5,5
-60,45,105,7,-83,75,20,-20,24,47,5,2
-60,45,105,7,-83,75,24,-20,19,51,3,0
-60,45,105,7,-83,75,25,-20,21,49,0,-4
-60,45,105,7,-83,75,25,-20,25,54,0,-5
-60,45,105,7,-83,75,25,-20,25,55,0,-5
-61,44,105,8,-83,74,25,-20,30,55,0,-5
-66,39,105,13,-85,71,25,-20,30,55,0,-5
-66,33,99,16,-83,66,25,-19,35,55,0,-5
-64,30,94,17,-79,61,25,-15,37,54,0,-5
-64,25,89,19,-77,56,25,-15,34,50,0,-4
-62,21,83,21,-72,51,25,-13,35,50,0,1
-54,23,77,16,-66,50,25,-9,35,48,0,4
-46,28,74,8,-61,51,28,-11,34,44,2,7
-46,29,75,8,-61,52,32,-6,37,46,8,12
-51,23,74,13,-63,49,35,-5,40,48,13,15
-56,20,76,17,-66,47,38,-5,40,51,16,18
-60,15,74,22,-67,44,43,-5,45,49,21,21
-58,27,85,16,-72,56,43,-4,44,54,25,24
-36,69,105,-17,-71,87,60,31,58,76,35,26
-5,98,103,-47,-54,100,78,55,80,88,49,30
-12,85,96,-37,-54,90,82,68,93,98,56,29
1,90,89,-46,-44,89,80,76,100,112,70,36
43,128,84,-86,-21,106,53,64,105,112,77,61
60,127,67,-93,-4,97,22,58,100,100,71,64
71,112,41,-92,15,76,4,38,91,89,66,52
47,87,39,-67,4,63,-19,18,69,77,60,43
7,47,40,-27,-16,43,-24,6,33,66,48,32
-28,28,55,0,-42,41,-2,-10,26,48,30,12
-49,14,62,18,-56,38,11,-13,9,20,16,-1
-51,7,58,22,-54,32,10,-26,-15,3,-2,-4
-61,2,63,29,-62,32,16,-25,-7,3,-10,-10
-64,-7,57,36,-60,24,16,-28,-18,-2,-10,-13
-74,-11,64,43,-69,26,22,-15,-17,-6,-17,-20
-66,-15,51,40,-58,17,16,-10,-18,-8,-15,-17
-63,-4,59,33,-61,27,13,-9,-25,-12,-24,-15
-71,-19,52,44,-61,16,11,12,0,7,-14,-10
-77,-22,55,49,-66,16,3,-8,-28,-1,-17,-7
-78,-15,63,47,-71,23,10,53,22,25,-7,-5
-121,-11,109,66,-115,49,-14,-23,-36,33,18,19
-76,34,110,21,-94,72,7,185,183,218,147,62
526,108,-418,-317,472,-155,-423,52,356,634,657,346
1477,481,-996,-978,1236,-257,-1393,-1224,-529,472,966,727
1562,474,-1089,-1018,1325,-307,-1716,-2102,-1506,-395,426,632
452,-39,-491,-206,472,-265,-1049,-1858,-1611,-915,-266,194
-268,-115,153,191,-211,19,-353,-922,-873,-570,-320,-48
-181,-55,126,118,-153,35,-99,-263,-266,-194,-140,-61
-144,-67,78,105,-110,5,14,-71,-113,-105,-103,-60
-142,-72,70,106,-106,0,74,65,-6,-40,-69,-67
-143,-85,57,113,-100,-14,87,81,15,-34,-67,-64
-141,-68,73,104,-107,3,98,127,51,-18,-62,-66
-132,-75,57,103,-95,-8,100,140,53,-11,-56,-65
-135,-64,71,99,-103,4,107,149,65,-5,-54,-65
-123,-65,58,94,-90,-3,107,162,75,4,-47,-64
-122,-60,62,91,-92,1,111,172,80,8,-47,-60
-116,-56,59,86,-87,1,114,193,96,17,-42,-60
-110,-54,56,82,-83,1,115,203,110,20,-40,-60
-104,-49,55,76,-80,3,116,227,132,31,-36,-60
-101,-47,54,74,-77,3,114,258,157,38,-35,-60
-91,-40,51,66,-71,5,120,288,183,42,-32,-58
-81,-37,44,59,-62,3,135,318,199,62,-27,-55
-73,-32,41,53,-57,4,153,358,234,75,-24,-52
-64,-28,36,45,-50,4,165,400,270,78,-21,-49
-56,-24,32,40,-43,4,170,437,297,89,-16,-46
-45,-18,27,31,-36,5,190,463,318,87,-16,-44
-32,-11,22,21,-27,5,199,471,319,76,-27,-41
-20,-4,15,12,-17,5,190,466,311,69,-39,-38
-7,3,10,2,-9,6,182,453,299,54,-50,-36
4,9,5,-7,-1,6,174,423,266,31,-61,-32
13,7,-6,-10,9,1,155,365,215,-4,-68,-31
35,3,-32,-19,33,-14,114,287,144,-38,-61,-26
64,0,-63,-32,64,-31,64,204,83,-45,-51,-12
66,-4,-70,-30,68,-36,23,128,46,-36,-44,3
58,-4,-62,-27,60,-33,-2,77,32,-28,-29,10
58,1,-57,-29,58,-28,-12,56,37,-18,-7,12
48,4,-44,-26,46,-20,-15,55,38,2,10,15
29,7,-22,-18,25,-7,-20,55,42,22,24,17
17,12,-5,-14,11,3,-16,50,44,35,31,21
7,15,8,-11,-1,11,-7,49,46,43,30,18
-11,12,23,-1,-17,18,1,51,50,49,30,14
-27,7,34,9,-30,20,9,55,50,54,30,16
-31,6,37,12,-35,21,15,55,52,55,30,11
-41,0,41,20,-41,20,15,55,55,55,29,10
-48,3,50,22,-49,26,15,55,55,55,25,10
-28,24,52,2,-40,37,15,55,52,55,25,5
-26,24,49,1,-38,36,15,51,46,54,25,5
-33,17,50,8,-42,33,15,46,41,50,25,4
-37,13,50,12,-44,31,11,42,37,48,25,-1
-44,6,50,19,-47,27,10,37,33,45,22,1
-50,1,51,24,-51,26,10,33,28,41,16,-3
-55,4,58,25,-57,31,5,28,25,40,11,-5
-37,24,61,7,-49,42,5,21,23,37,8,-5
-34,25,59,5,-47,41,5,14,20,34,2,-9
-40,21,61,10,-51,41,15,8,17,35,1,-10
-41,18,59,11,-50,38,25,0,14,35,9,-10
-50,12,63,19,-57,37,32,6,22,35,17,-4
-47,29,76,8,-62,52,66,20,38,35,25,3
-25,47,72,-11,-49,60,93,36,49,47,33,9
-16,54,69,-19,-43,61,101,64,68,63,39,16
-18,48,65,-15,-42,56,91,72,75,70,46,24
22,84,62,-53,-20,73,77,60,67,81,52,41
56,114,58,-85,-1,85,59,49,60,80,45,46
57,93,37,-75,10,65,28,38,51,66,35,39
66,77,11,-72,27,43,18,12,44,50,28,38
29,27,-1,-28,15,13,9,-28,10,26,17,28
-47,-10,38,28,-42,14,22,-33,-15,10,9,4
-85,-22,63,53,-74,20,49,-38,-20,-6,-14,-24
-106,-48,59,77,-82,5,50,-56,-26,-28,-38,-47
-111,-56,55,83,-83,0,50,-61,-31,-40,-41,-50
-110,-56,54,83,-82,-1,48,-60,-36,-42,-46,-50
-124,-75,49,100,-86,-13,45,-51,-25,-37,-43,-50
-124,-75,49,99,-86,-12,44,-61,-37,-44,-49,-50
-115,-70,45,92,-80,-12,50,-44,-19,-36,-49,-50
-113,-71,42,91,-77,-14,48,-60,-34,-43,-51,-45
-112,-61,51,86,-81,-5,53,-38,-15,-28,-46,-47
-105,-69,36,86,-70,-16,46,-62,-29,-31,-38,-39
-99,-43,56,71,-77,7,55,-40,-7,-26,-35,-45
-82,-21,61,52,-72,20,57,-56,-1,15,11,-21
-110,32,141,39,-126,86,51,-35,16,74,57,23
188,30,-158,-109,173,-64,-104,214,386,463,414,179
1071,206,-866,-638,968,-329,-882,-614,-74,576,881,546
1686,470,-1216,-1078,1451,-373,-1678,-1966,-1305,-184,609,676
968,97,-872,-532,920,-387,-1401,-2251,-1879,-1012,-175,323
-119,-187,-68,152,-25,-127,-567,-1437,-1325,-908,-462,-29
-224,-71,153,147,-189,41,-131,-493,-451,-349,-238,-92
-129,-74,55,102,-92,-10,13,-168,-157,-152,-118,-80
-156,-62,94,108,-124,16,94,-5,-22,-73,-95,-82
-119,-63,57,91,-88,-3,116,45,15,-48,-79,-76
-131,-58,73,94,-101,7,132,62,26,-44,-76,-76
-107,-52,54,79,-80,1,137,98,66,-25,-63,-72
-108,-53,55,80,-81,1,143,104,65,-24,-61,-66
-97,-48,50,72,-73,1,145,133,89,-7,-51,-59
-92,-51,41,71,-67,-4,144,133,95,-2,-47,-52
-85,-43,42,64,-63,0,149,166,128,11,-39,-46
-79,-47,32,62,-55,-7,150,188,138,20,-35,-39
-75,-42,33,58,-53,-5,151,214,158,29,-30,-36
-60,-36,24,48,-42,-6,154,241,186,36,-25,-33
-49,-31,18,40,-33,-6,156,269,207,51,-22,-30
-35,-25,11,30,-23,-7,153,318,244,66,-16,-28
-24,-20,4,21,-14,-7,162,368,286,92,-13,-24
-12,-13,-1,13,-5,-7,174,427,330,106,-9,-28
-3,-9,-6,7,2,-7,184,469,362,101,-7,-31
8,-2,-10,-3,9,-6,192,501,383,96,-2,-30
17,2,-15,-9,16,-6,186,524,399,90,0,-34
29,9,-20,-19,24,-5,183,506,385,86,-16,-36
42,26,-16,-34,29,5,181,472,342,64,-37,-34
35,26,-10,-30,22,8,169,418,288,29,-59,-31
22,16,-5,-19,13,5,146,329,215,-4,-62,-26
11,12,1,-11,5,6,102,239,141,-24,-53,-23
-3,3,6,-1,-5,5,67,161,89,-27,-42,-20
-13,-1,11,7,-12,5,53,103,45,-25,-27,-15
-29,-10,19,19,-23,5,43,49,6,-22,-30,-17
-51,-25,26,38,-38,0,45,4,-12,-19,-30,-20
-59,-26,32,42,-45,3,45,-8,-16,-16,-29,-20
-63,-24,39,44,-51,7,45,-17,-22,-14,-30,-24
-65,-24,40,45,-52,7,45,-28,-28,-11,-30,-26
-59,-19,40,39,-49,10,45,-23,-28,-8,-27,-24
-60,-21,40,40,-50,10,41,-14,-23,-6,-22,-21
-60,-20,40,40,-50,10,39,-5,-20,-2,-19,-20
-59,-20,39,39,-49,9,40,3,-17,0,-16,-20
-65,-31,34,47,-49,2,35,5,-12,-2,-11,-20
-66,-36,31,51,-48,-2,35,8,-10,-6,-11,-20
-63,-35,28,49,-45,-3,34,11,-15,-8,-16,-20
-58,-35,23,46,-40,-6,30,14,-15,-11,-19,-21
-56,-36,20,46,-38,-7,30,15,-15,-14,-22,-19
-53,-33,20,43,-36,-6,30,9,-15,-15,-27,-27
-62,-41,21,51,-41,-9,30,3,-15,-15,-30,-36
-81,-56,25,68,-53,-15,30,-1,-18,-15,-34,-34
-80,-55,25,67,-52,-15,34,-8,-21,-15,-35,-35
-80,-55,25,67,-52,-15,35,-12,-25,-15,-35,-35
-80,-55,25,67,-52,-15,35,-18,-25,-15,-35,-35
-80,-55,25,67,-52,-15,40,-24,-25,-18,-35,-39
-79,-52,27,65,-53,-13,40,-29,-25,-26,-34,-40
-73,-44,29,59,-51,-7,40,-35,-25,-34,-30,-40
-69,-36,33,52,-51,-1,40,-29,-23,-29,-27,-40
-61,-28,34,44,-47,3,40,-23,-15,-23,-23,-41
-75,-21,54,48,-64,16,45,-14,-11,-14,-21,-38
-68,1,69,33,-69,35,71,13,13,11,-10,-17
-27,33,60,-3,-44,46,93,39,36,32,13,0
-21,36,57,-7,-39,46,92,63,59,42,21,8
-9,42,51,-17,-30,46,82,61,79,51,24,15
30,75,45,-53,-8,60,62,45,67,53,37,24
42,83,41,-62,0,61,32,32,56,49,34,28
34,68,34,-51,0,51,6,15,44,52,24,18
11,40,29,-26,-9,34,5,-2,4,26,16,6
-16,8,24,4,-20,16,12,-18,-25,-12,-1,-4
-37,-20,18,28,-27,-1,15,-29,-30,-25,-23,-21
-65,-53,12,59,-38,-20,20,-52,-47,-39,-48,-48
-82,-71,12,76,-47,-29,25,-54,-47,-45,-54,-57
-87,-69,18,78,-52,-26,28,-59,-56,-53,-57,-60
-88,-65,22,76,-54,-21,31,-58,-52,-57,-63,-65
-88,-64,23,76,-55,-20,28,-62,-55,-61,-70,-61
-81,-58,23,70,-52,-18,32,-52,-46,-61,-72,-61
-79,-63,16,71,-48,-23,28,-54,-46,-57,-59,-54
-87,-63,24,75,-55,-19,31,-51,-47,-65,-66,-56
-72,-63,9,67,-40,-27,22,-41,-30,-51,-47,-46
-72,-53,19,62,-46,-16,22,-57,-57,-57,-60,-53
-70,-47,23,58,-46,-12,27,-25,4,2,-24,-30
-106,-11,95,58,-100,42,4,-74,-43,24,18,-11
8,16,8,-12,0,12,-32,162,258,318,242,63
603,121,-482,-362,542,-180,-509,-156,273,830,956,505
1406,514,-892,-959,1149,-189,-1422,-1460,-777,540,1243,952
1288,397,-891,-842,1090,-247,-1643,-2166,-1673,-493,512,794
163,-126,-289,-18,226,-207,-877,-1742,-1645,-1029,-338,173
-303,-174,130,238,-216,-22,-258,-780,-804,-605,-408,-139
-139,-92,47,116,-93,-22,-74,-227,-242,-214,-183,-83
-121,-71,51,96,-86,-9,47,-47,-94,-117,-150,-88
-92,-57,35,74,-63,-11,76,57,24,-52,-112,-85
-101,-61,41,81,-71,-10,91,73,26,-56,-104,-81
-91,-49,42,70,-66,-3,97,120,64,-35,-88,-81
-87,-50,37,69,-62,-7,97,114,60,-34,-78,-78
-84,-42,43,63,-63,1,104,128,78,-24,-82,-78
-70,-41,29,55,-49,-6,104,145,92,-17,-77,-68
-69,-40,29,54,-49,-6,110,165,107,-9,-76,-67
-54,-37,17,45,-36,-10,112,177,118,4,-74,-58
-49,-35,13,42,-30,-11,116,201,140,13,-73,-54
-40,-35,6,37,-23,-14,119,238,184,32,-66,-49
-33,-32,1,32,-17,-16,123,264,204,61,-61,-44
-24,-29,-5,27,-9,-17,127,303,238,77,-55,-39
-16,-26,-10,21,-2,-17,138,348,276,78,-60,-35
-9,-24,-16,17,4,-20,142,397,316,93,-60,-30
3,-18,-21,8,12,-20,161,449,362,103,-61,-26
-1,-27,-26,14,13,-26,187,492,388,92,-66,-28
-7,-41,-34,24,14,-37,179,512,385,83,-65,-37
9,-34,-43,13,26,-38,173,509,371,73,-63,-47
14,-30,-44,8,29,-37,166,498,361,52,-56,-45
12,-27,-39,7,26,-32,159,461,337,24,-70,-38
13,-21,-34,4,24,-27,152,391,276,-16,-91,-35
10,-18,-28,4,19,-23,115,315,199,-41,-96,-30
10,-13,-23,2,17,-18,78,226,134,-36,-101,-25
6,-10,-16,2,11,-13,57,148,87,-28,-76,-28
-3,-7,-4,5,1,-5,49,93,44,-20,-41,-30
-10,-2,8,6,-9,3,48,56,20,-12,-40,-30
-14,0,14,7,-14,7,44,39,15,-7,-40,-30
-33,-6,27,19,-30,11,42,34,7,-3,-39,-30
-52,-12,40,32,-46,14,39,32,1,0,-42,-29
-57,-17,40,37,-48,11,40,29,-7,0,-37,-25
-63,-23,40,43,-51,8,40,25,-9,0,-53,-25
-63,-23,40,43,-51,8,40,25,-5,0,-40,-21
-58,-18,40,37,-48,11,40,29,-3,0,-10,-19
-52,-12,40,32,-46,13,40,31,0,-4,-25,-29
-49,-9,40,29,-44,16,39,35,3,-6,-27,-31
-44,-4,40,24,-41,17,34,33,6,-5,-20,-30
-40,1,41,19,-40,21,28,26,1,-5,-19,-30
-58,-13,45,35,-52,16,25,22,-5,-5,-14,-30
-72,-27,45,49,-58,9,20,15,-10,-6,-11,-31
-69,-24,45,46,-56,10,14,10,-16,-11,-12,-26
-64,-22,42,43,-53,10,26,5,-21,-16,-28,-25
-58,-19,39,39,-49,10,32,0,-26,-20,-35,-24
-56,-16,41,36,-48,12,29,-5,-31,-25,-35,-21
-59,-15,45,37,-52,15,31,-9,-36,-30,-37,-19
-66,-21,45,43,-55,12,30,-14,-39,-33,-45,-23
-74,-28,46,50,-60,9,30,-19,-40,-37,-51,-49
-78,-28,50,53,-64,11,26,-20,-39,-40,-46,-56
-72,-22,50,47,-61,14,25,-21,-42,-44,-39,-48
-70,-18,52,44,-61,17,20,-25,-40,-44,-33,-46
-76,-16,60,46,-68,22,22,-23,-30,-39,-25,-40
-55,16,71,19,-63,43,46,2,-13,-23,-20,-35
-17,51,68,-17,-43,59,65,24,7,2,-14,-26
-15,47,62,-16,-39,54,77,40,27,24,-9,-18
-22,37,59,-7,-41,48,82,53,28,31,-4,-9
23,77,54,-51,-15,65,56,39,18,24,2,-1
59,108,49,-83,4,78,19,25,10,18,8,5
48,94,46,-71,1,70,0,9,1,11,8,13
33,75,42,-54,-5,59,-15,-8,-8,5,-6,9
-4,32,36,-15,-21,34,-16,-25,-24,-12,-16,-14
-43,-12,31,27,-37,9,-8,-38,-35,-31,-31,-37
-70,-45,26,57,-48,-9,-5,-52,-64,-63,-70,-58
-78,-58,20,68,-49,-18,3,-59,-80,-85,-86,-75
-78,-64,14,71,-46,-25,7,-61,-80,-86,-89,-82
-96,-70,27,83,-62,-21,13,-59,-83,-91,-98,-89
-106,-75,31,91,-68,-22,15,-60,-82,-90,-92,-86
-107,-75,32,91,-69,-21,14,-62,-91,-99,-100,-85
-109,-81,28,95,-69,-26,19,-57,-74,-87,-97,-80
-113,-82,31,98,-72,-25,19,-74,-89,-93,-102,-79
-115,-84,30,99,-72,-26,23,-53,-59,-74,-95,-75
-110,-84,27,97,-68,-28,21,-80,-85,-81,-94,-74
-73,-42,31,57,-52,-5,31,-48,-48,-65,-98,-79
-92,-28,64,60,-78,17,10,-87,-55,-31,-46,-52
-71,44,115,13,-93,79,-4,17,59,114,78,0
309,86,-223,-197,266,-68,-243,65,362,661,636,281
1042,346,-696,-694,869,-175,-1088,-969,-366,744,1193,754
1418,507,-912,-962,1165,-202,-1693,-2013,-1456,-134,814,847
588,9,-579,-298,584,-285,-1191,-1953,-1722,-967,-109,344
-245,-221,24,233,-134,-98,-421,-1102,-1114,-828,-464,-109
-193,-112,82,152,-137,-15,-112,-356,-372,-335,-251,-126
-148,-103,45,125,-96,-29,8,-123,-151,-183,-146,-94
-144,-89,55,116,-99,-17,66,10,-35,-108,-128,-104
-126,-98,28,112,-77,-35,88,34,-18,-91,-118,-97
-134,-87,47,110,-90,-20,101,66,9,-79,-113,-102
-118,-91,26,104,-72,-32,106,87,41,-66,-102,-98
-124,-88,36,106,-80,-26,116,94,45,-64,-107,-100
-110,-83,26,97,-68,-28,115,126,74,-50,-103,-94
-110,-83,27,96,-68,-28,120,129,72,-48,-106,-95
-103,-78,25,90,-64,-26,122,152,94,-32,-105,-95
-100,-77,23,88,-61,-27,125,168,112,-21,-103,-95
-94,-73,21,84,-57,-26,127,195,140,-6,-97,-96
-90,-71,19,81,-55,-26,134,228,164,9,-93,-91
-83,-64,18,73,-50,-23,147,272,198,21,-89,-86
-71,-61,10,66,-40,-25,164,321,242,32,-84,-81
-61,-56,5,58,-32,-26,178,373,279,47,-81,-78
-49,-52,-3,51,-23,-27,188,427,329,67,-80,-73
-39,-47,-9,43,-15,-28,207,467,366,72,-81,-69
-19,-38,-19,29,1,-28,211,495,361,69,-80,-66
3,-27,-30,12,17,-29,202,498,350,71,-81,-63
24,-20,-43,-2,34,-31,196,485,346,46,-78,-60
35,-13,-48,-11,42,-30,190,444,311,7,-71,-57
31,-7,-38,-12,35,-22,178,380,249,-28,-65,-55
29,0,-29,-14,29,-14,147,294,174,-61,-58,-52
21,7,-14,-14,17,-3,112,194,101,-65,-52,-50
0,8,7,-4,-4,7,81,118,52,-56,-46,-50
-21,2,23,9,-22,12,52,58,13,-49,-40,-46
-40,-2,37,21,-38,17,40,17,-17,-45,-40,-44
-52,-6,46,29,-48,20,38,-12,-30,-45,-39,-46
-64,-11,53,38,-59,21,36,-39,-39,-45,-40,-50
-70,-15,55,42,-62,20,32,-46,-47,-45,-39,-50
-82,-27,55,54,-68,14,30,-39,-48,-44,-42,-52
-97,-41,56,69,-76,7,27,-36,-47,-46,-46,-56
-79,-26,53,52,-66,13,25,-27,-39,-33,-43,-54
-71,-13,59,42,-65,22,22,-26,-46,-28,-47,-46
-37,19,56,9,-47,37,18,-14,-13,1,-5,-18
65,144,78,-105,-7,111,46,109,126,123,110,67
219,379,160,-300,29,269,106,447,501,477,408,282
339,688,350,-514,-6,519,209,832,962,913,788,556
374,909,535,-642,-81,722,330,1138,1329,1263,1088,773
297,1189,892,-743,-298,1040,389,1201,1600,1613,1409,1028
262,1617,1355,-940,-547,1486,254,1037,1926,2169,1887,1377
390,2032,1642,-1212,-626,1837,-84,698,2198,2883,2521,1787
363,2377,2013,-1371,-825,2196,-581,-345,1598,3217,2935,2045
177,2321,2145,-1249,-984,2233,-1035,-1443,392,2895,2905,2015
-162,1962,2124,-901,-1143,2043,-939,-1838,-702,1703,2180,1636
-317,1131,1448,-407,-883,1289,-458,-1281,-825,528,990,807
-150,97,247,27,-199,172,-116,-364,-311,8,108,45
-141,-228,-87,184,-26,-157,-7,-161,-291,-292,-245,-204
-145,-273,-128,209,-8,-200,4,-143,-294,-357,-317,-255
-129,-325,-196,228,34,-261,23,-118,-281,-406,-384,-304
-146,-345,-199,246,26,-272,19,-141,-307,-452,-418,-325
-124,-382,-258,253,67,-320,12,-127,-320,-485,-451,-343
-126,-406,-280,267,77,-343,2,-168,-383,-551,-507,-373
-128,-483,-355,306,114,-419,-4,-161,-398,-588,-552,-410
-116,-538,-422,327,154,-480,4,-153,-434,-636,-597,-441
-73,-574,-501,324,214,-537,11,-105,-407,-648,-615,-463
-18,-582,-564,300,273,-573,18,-66,-386,-655,-625,-470
52,-584,-636,266,344,-610,31,-37,-386,-687,-638,-482
49,-620,-670,286,360,-645,74,8,-386,-732,-680,-515
-5,-703,-699,354,347,-700,54,-11,-452,-814,-756,-566
27,-772,-799,373,414,-785,9,-47,-517,-912,-827,-609
73,-825,-898,376,486,-861,2,-37,-551,-979,-886,-643
112,-875,-987,382,550,-931,-13,-24,-565,-1042,-932,-667
167,-897,-1064,365,616,-980,-9,-1,-549,-1085,-933,-662
219,-894,-1113,337,666,-1002,-3,33,-538,-1087,-928,-655
255,-858,-1113,302,684,-985,2,62,-508,-1066,-907,-631
265,-810,-1075,272,671,-942,8,99,-442,-1012,-840,-579
258,-745,-1004,244,631,-874,13,133,-367,-925,-761,-513
241,-647,-887,203,564,-767,27,161,-280,-803,-650,-443
219,-530,-749,155,484,-639,36,182,-189,-655,-523,-359
163,-425,-589,131,376,-507,43,191,-116,-504,-402,-274
110,-315,-425,103,267,-370,46,172,-59,-364,-290,-207
65,-214,-279,75,172,-246,45,135,-23,-235,-197,-145
23,-128,-151,53,87,-140,45,102,-5,-131,-117,-95
-10,-61,-51,36,21,-55,45,74,3,-54,-57,-51
-29,-19,10,24,-19,-5,45,52,9,2,-20,-15
-34,16,50,9,-42,32,45,40,16,38,-2,-3
-43,34,77,5,-60,55,40,32,21,51,7,-5
-43,39,82,2,-63,60,40,26,25,60,18,-5
-49,37,85,6,-68,61,39,18,22,66,28,-5
-57,33,91,12,-74,62,35,11,20,65,31,-5
-69,30,98,19,-83,64,34,4,20,66,30,-5
-63,36,98,13,-81,67,38,-2,16,65,30,-5
-52,42,94,4,-73,68,38,-7,15,65,30,-5
-57,39,96,8,-76,67,34,-13,17,62,30,-5
-51,41,91,5,-71,66,35,-19,20,56,26,-5
-50,40,90,5,-70,65,35,-24,20,52,20,-5
-50,40,90,5,-70,65,35,-25,20,48,16,-1
-45,40,86,2,-65,62,34,-25,20,43,11,0
-45,40,85,2,-65,62,31,-25,20,39,7,0
-45,40,85,2,-65,62,28,-25,16,35,2,5
-45,40,85,2,-65,62,25,-25,15,31,0,5
-45,40,86,2,-65,62,23,-24,15,28,0,5
-43,39,83,2,-63,61,19,-20,10,23,-3,5
-44,36,79,4,-62,57,23,-20,10,20,-5,5
-49,31,80,9,-65,55,25,-20,9,24,-5,5
-50,30,80,10,-65,55,25,-20,5,25,-5,5
-50,30,80,10,-65,55,25,-20,6,25,-5,5
-49,30,79,9,-64,55,25,-20,2,30,-5,5
-41,34,75,3,-59,55,25,-20,0,30,-5,5
-40,35,75,2,-58,55,20,-20,0,31,-5,5
-40,35,75,2,-58,55,20,-20,4,35,-8,5
-40,35,75,2,-58,55,19,-20,5,34,-10,6
-39,35,74,2,-57,55,15,-21,5,38,-10,4
-45,33,78,6,-61,55,15,-25,9,40,-10,0
-51,29,80,11,-66,55,17,-25,11,40,-10,0
-49,30,80,9,-65,55,20,-25,8,36,-11,0
-54,30,83,12,-69,56,23,-25,5,35,-14,0
-55,30,86,12,-70,57,26,-25,5,35,-17,0
-54,30,84,12,-69,57,29,-22,3,31,-19,4
-56,25,81,15,-69,52,30,-19,0,29,-23,5
-54,26,80,14,-67,52,25,-16,0,32,-25,5
-57,23,80,17,-69,51,25,-13,4,35,-27,10
-60,20,80,20,-70,50,24,-10,5,35,-30,10
-61,19,80,21,-71,50,20,-9,5,35,-30,10
-55,23,78,16,-66,50,20,-4,9,35,-34,10
-42,32,74,5,-59,53,20,2,11,35,-35,10
-41,30,72,5,-57,51,20,5,8,32,-35,10
-44,25,69,10,-57,46,20,10,5,29,-39,10
-46,20,66,12,-56,43,20,15,5,26,-42,10
-47,17,64,14,-56,40,20,15,3,23,-45,10
-51,10,61,21,-56,35,20,15,-1,20,-47,10
-44,15,58,14,-51,36,21,15,0,21,-51,10
-21,35,55,-8,-39,45,19,15,3,25,-47,10
-21,32,52,-6,-37,42,24,15,6,27,-45,10
-24,26,49,-1,-37,37,30,14,9,30,-45,9
-29,23,52,3,-41,37,30,10,12,33,-41,5
-39,16,56,11,-48,36,30,10,15,36,-39,5
-38,16,54,10,-46,35,30,8,16,31,-41,5
-39,20,59,9,-49,39,30,5,20,30,-45,5
-40,20,60,10,-50,40,26,5,19,30,-54,5
-40,20,60,10,-50,40,25,8,23,25,-52,8
-44,21,65,11,-55,42,25,14,25,25,-44,14
-45,19,64,13,-55,41,25,18,25,26,-36,19
-44,25,70,9,-57,47,24,23,25,32,-27,22
-45,23,68,11,-58,45,27,27,25,40,-22,27
-46,32,78,7,-62,54,37,32,41,50,12,32
-30,61,91,-16,-61,76,62,44,62,67,57,36
-14,68,82,-28,-48,75,78,69,82,79,84,43
-16,61,77,-23,-47,69,67,80,97,82,108,47
13,82,69,-48,-28,75,54,74,96,88,125,58
55,118,64,-87,-5,91,25,66,89,88,134,61
62,117,55,-89,3,86,-1,61,89,78,122,50
48,88,40,-68,3,64,-9,47,75,66,110,42
33,54,21,-43,6,37,-21,10,35,55,100,33
14,26,13,-20,0,19,-28,-12,11,40,83,24
-41,8,49,16,-45,28,-23,-12,6,22,67,16
-63,-6,57,34,-60,25,-16,-17,0,12,48,9
-77,-26,51,51,-64,12,-9,-21,-11,5,34,2
-96,-47,50,71,-72,1,-2,-22,-12,4,31,-6
-85,-42,43,63,-63,0,3,-27,-24,-5,21,-13
-80,-36,44,58,-62,4,11,-13,-7,-5,15,-12
-73,-38,34,55,-53,-2,8,-28,-19,-12,7,-9
-73,-26,48,49,-60,11,13,-12,-2,-3,7,-11
-64,-33,31,49,-47,-1,6,-28,-10,-3,18,-3
-61,-12,49,36,-55,18,15,-14,-6,-4,15,-8
-57,-12,45,34,-51,17,4,-24,14,28,38,3
-106,13,119,46,-112,66,5,6,27,86,79,27
115,81,-34,-98,74,23,-116,201,381,464,399,173
927,291,-636,-608,781,-172,-892,-547,75,735,943,567
1635,596,-1039,-1115,1337,-221,-1751,-1750,-961,217,914,789
1172,251,-921,-711,1047,-335,-1576,-2050,-1559,-660,165,460
65,-149,-214,42,140,-181,-729,-1423,-1281,-812,-318,46
-231,-81,151,155,-191,35,-208,-527,-498,-350,-206,-48
-121,-83,38,102,-80,-22,-32,-144,-152,-133,-103,-45
-143,-74,70,108,-106,-2,62,6,-34,-53,-67,-51
-121,-70,51,95,-86,-10,85,80,26,-20,-44,-52
-131,-70,61,101,-96,-5,103,90,30,-18,-52,-58
-115,-61,55,87,-85,-3,112,129,65,-3,-41,-54
-117,-64,53,90,-85,-5,129,133,65,-5,-44,-56
-115,-57,58,85,-87,1,132,150,92,10,-38,-55
-114,-63,51,88,-83,-5,127,163,94,14,-37,-55
-116,-58,58,87,-87,0,138,182,113,25,-29,-54
-110,-61,48,85,-79,-6,150,200,131,33,-22,-51
-107,-57,50,82,-78,-4,155,224,149,42,-16,-48
-97,-52,45,74,-70,-4,158,249,170,47,-9,-45
-91,-49,43,70,-67,-3,163,274,195,54,-4,-43
-84,-44,40,64,-61,-1,170,307,218,71,0,-40
-77,-39,38,58,-57,-1,182,345,240,91,0,-40
-67,-36,31,51,-49,-2,197,384,271,103,0,-40
-58,-33,24,45,-40,-5,211,419,300,103,-1,-40
-49,-31,18,39,-34,-6,225,455,328,97,1,-40
-38,-27,10,32,-24,-8,233,476,335,89,-7,-40
-30,-25,5,27,-17,-10,226,465,321,83,-21,-40
-20,-23,-2,22,-9,-12,218,454,312,69,-37,-34
-7,-18,-11,13,2,-15,210,442,297,41,-53,-29
5,-15,-20,6,13,-17,203,409,257,6,-63,-24
18,-12,-29,-3,24,-20,186,342,198,-28,-67,-18
35,-7,-42,-14,39,-25,147,263,133,-50,-59,-13
52,-4,-56,-23,54,-30,111,186,79,-48,-54,-7
53,0,-54,-26,53,-27,68,111,41,-40,-38,-1
44,0,-43,-22,44,-21,36,64,27,-34,-17,6
36,0,-36,-18,36,-18,34,30,24,-28,2,12
27,0,-27,-13,27,-13,35,24,19,-14,20,20
17,0,-18,-8,18,-9,35,26,15,8,21,24
10,2,-7,-6,8,-2,35,21,10,18,20,20
3,5,2,-4,0,4,39,20,14,23,20,15
-4,8,12,-2,-8,10,50,21,21,29,15,11
-12,11,23,0,-17,17,56,34,28,30,15,6
-18,14,32,1,-25,23,59,34,33,30,14,2
-23,15,38,4,-31,26,64,39,45,30,9,-3
-31,10,41,11,-36,25,65,51,56,29,6,-5
-35,10,46,12,-40,28,66,44,54,36,3,-5
-41,9,49,16,-45,29,69,41,55,41,-2,-5
-46,4,50,21,-49,27,71,36,55,40,-5,-5
-44,6,50,19,-47,28,69,31,55,40,-1,-5
-52,-2,50,27,-51,23,61,27,53,40,0,-10
-62,-12,50,37,-56,19,54,21,42,40,2,-10
-56,-9,47,32,-52,19,47,16,34,36,6,-10
-49,-4,45,26,-46,20,39,10,25,29,3,-10
-55,-10,45,32,-50,17,32,5,16,23,-2,-10
-62,-17,45,39,-54,14,33,0,19,16,-8,-12
-57,-12,45,34,-50,16,37,-5,21,9,-13,-20
-50,-5,45,27,-47,20,40,-8,19,6,-18,-25
-53,-1,52,27,-52,25,43,-15,21,14,-25,-18
-56,7,63,25,-60,34,46,-11,19,24,-18,-9
-54,19,73,17,-64,46,67,6,26,31,-3,-1
-28,46,74,-9,-51,60,81,27,48,48,10,8
-13,52,65,-20,-39,58,78,46,56,60,23,17
-10,46,56,-18,-33,51,83,40,55,61,38,28
35,86,51,-61,-8,68,62,31,54,61,45,37
54,94,39,-74,7,66,16,21,50,51,35,33
48,75,27,-62,10,51,0,5,51,38,27,25
60,53,-7,-56,33,23,-5,-20,23,28,18,20
17,4,-14,-10,16,-5,-14,-40,-21,12,9,11
-57,-23,34,39,-45,6,-11,-39,-36,-3,-6,-7
-84,-41,43,62,-63,1,-5,-49,-51,-24,-38,-39
-89,-53,36,71,-62,-8,3,-49,-58,-37,-54,-52
-92,-57,35,74,-63,-11,8,-52,-63,-48,-59,-49
-90,-58,32,73,-61,-13,17,-47,-58,-50,-61,-51
-91,-63,28,77,-59,-18,19,-60,-63,-50,-59,-49
-99,-63,36,81,-67,-13,20,-60,-67,-51,-62,-51
-98,-66,32,81,-65,-17,20,-53,-60,-47,-58,-47
-97,-59,38,77,-67,-10,20,-59,-74,-55,-63,-45
-90,-57,33,73,-61,-12,21,-38,-52,-36,-50,-40
-93,-58,34,75,-63,-12,18,-61,-84,-43,-53,-38
-77,-36,42,56,-59,3,20,-19,-28,-6,-31,-34
-109,-8,101,58,-105,46,2,-103,-71,11,7,-6
-64,53,117,5,-91,85,10,94,139,206,146,54
491,71,-421,-281,456,-175,-364,35,351,580,600,293
1417,361,-1055,-889,1236,-347,-1330,-1216,-590,321,817,606
1574,396,-1178,-985,1375,-391,-1754,-2200,-1651,-581,256,515
484,-93,-577,-196,531,-335,-1094,-1960,-1708,-1058,-372,108
-241,-128,112,184,-176,-8,-361,-972,-916,-623,-356,-82
-158,-39,119,98,-138,40,-83,-283,-270,-209,-141,-75
-129,-66,63,97,-95,-2,29,-90,-121,-115,-84,-74
-107,-40,67,73,-87,13,72,22,-25,-45,-66,-68
-106,-55,51,81,-78,-2,86,45,-9,-51,-63,-64
-102,-39,63,70,-82,12,97,89,33,-32,-54,-60
-93,-48,45,71,-69,-2,93,100,47,-26,-53,-60
-96,-44,52,70,-74,4,96,121,60,-15,-49,-60
-86,-45,41,65,-63,-2,97,143,79,-2,-46,-60
-87,-46,41,66,-64,-2,103,164,85,11,-43,-60
-76,-44,33,60,-54,-5,105,194,117,25,-33,-60
-75,-46,29,60,-51,-8,117,217,134,36,-25,-58
-60,-37,23,49,-42,-6,134,252,163,56,-16,-51
-47,-31,17,38,-32,-7,137,288,195,66,-9,-47
-35,-22,13,28,-24,-4,139,327,227,83,-2,-41
-21,-14,8,18,-14,-3,143,370,265,96,2,-35
-14,-8,6,10,-9,-1,163,426,309,127,7,-30
-4,-2,2,2,-2,0,180,476,350,139,11,-26
4,2,-2,-2,3,0,188,516,380,128,16,-23
13,7,-5,-10,9,1,198,541,393,122,21,-21
20,10,-10,-15,15,0,194,541,387,113,9,-17
32,18,-15,-25,23,1,186,514,366,106,-5,-15
53,34,-19,-44,36,7,183,472,323,77,-19,-12
50,32,-18,-41,34,7,167,412,258,34,-31,-10
37,26,-11,-31,24,7,138,314,187,1,-30,-10
28,23,-6,-25,17,8,100,219,122,-7,-27,-7
18,17,0,-18,9,8,63,143,74,-4,-24,-4
6,13,8,-10,-1,10,43,73,38,-6,-20,-6
-10,6,17,2,-14,11,40,28,12,-4,-20,-9
-31,-1,29,16,-30,14,40,10,2,-6,-20,-15
-48,-8,40,28,-43,16,40,6,-2,-2,-20,-19
-56,-16,40,36,-48,12,40,4,-8,0,-20,-23
-63,-23,40,43,-51,8,40,-1,-14,0,-20,-29
-59,-19,40,39,-49,10,44,-5,-19,0,-20,-28
-74,-35,40,55,-57,2,45,-3,-17,0,-17,-24
-89,-48,41,68,-64,-3,45,1,-9,0,-15,-25
-84,-40,44,62,-64,2,45,3,-3,-5,-15,-21
-85,-39,45,61,-65,3,45,6,5,-5,-12,-19
-79,-35,45,56,-61,5,44,9,8,-6,-9,-21
-77,-32,46,54,-61,7,39,10,5,-11,-11,-24
-73,-29,44,51,-59,7,33,4,2,-9,-14,-25
-75,-26,49,50,-61,11,30,-3,0,-13,-17,-25
-79,-23,56,51,-67,16,25,-9,-4,-15,-19,-25
-75,-20,55,47,-65,17,20,-16,-5,-15,-23,-25
-74,-18,55,45,-64,18,28,-22,-8,-15,-25,-28
-70,-15,55,42,-62,20,32,-28,-11,-15,-25,-30
-67,-12,55,39,-61,21,27,-30,-10,-14,-29,-30
-65,-10,55,37,-60,22,25,-30,-10,-11,-30,-30
-62,-7,55,34,-58,24,22,-34,-10,-10,-30,-30
-59,-4,55,31,-56,26,19,-35,-11,-10,-30,-29
-66,-12,55,38,-60,21,34,-35,-17,-10,-30,-26
-79,-24,55,51,-67,16,41,-39,-20,-11,-30,-23
-80,-26,54,53,-67,14,39,-41,-25,-8,-30,-32
-79,-23,56,51,-67,16,44,-39,-30,-2,-30,-35
-81,-28,53,54,-66,12,45,-41,-25,1,-27,-27
-72,-8,64,40,-68,28,44,-33,-9,7,-14,-21
-54,22,76,15,-65,49,57,-6,17,9,-3,-14
-23,45,68,-12,-45,56,86,30,43,28,8,-7
-6,59,64,-27,-36,62,84,50,62,52,14,-1
1,58,57,-30,-28,57,65,40,58,59,25,5
38,92,54,-65,-8,73,51,29,49,65,40,21
54,97,43,-76,5,70,4,18,41,54,35,26
43,67,24,-55,10,45,-21,-2,31,40,27,17
53,48,-5,-50,28,21,-9,-22,13,24,22,14
29,19,-9,-24,19,5,-1,-44,-17,2,8,3
-43,-6,37,24,-40,15,11,-60,-32,-14,-11,-24
-81,-28,53,55,-67,12,15,-63,-49,-31,-37,-47
-92,-44,49,68,-70,2,18,-57,-49,-30,-46,-50
-96,-46,50,71,-72,1,20,-63,-52,-30,-44,-50
-95,-44,51,69,-73,3,24,-57,-49,-30,-46,-50
-94,-47,47,70,-70,0,24,-62,-51,-29,-44,-50
-98,-43,56,70,-76,6,29,-59,-51,-33,-46,-51
-99,-47,52,73,-75,2,30,-52,-39,-35,-47,-47
-98,-40,58,68,-78,9,30,-57,-48,-36,-50,-45
-90,-37,54,63,-72,8,31,-36,-21,-16,-35,-40
-88,-34,53,60,-70,9,28,-61,-50,-24,-33,-38
-84,-22,62,53,-73,20,32,-15,3,3,-21,-33
-102,5,107,48,-104,56,-3,-85,-39,12,6,-9
-59,67,126,-4,-93,96,0,92,161,206,151,57
478,76,-402,-277,440,-163,-373,11,348,576,601,294
1414,366,-1048,-890,1231,-340,-1354,-1236,-574,336,828,612
1600,394,-1206,-996,1402,-406,-1794,-2196,-1611,-553,285,527
541,-96,-636,-223,589,-366,-1125,-1944,-1676,-1034,-355,118
-223,-127,96,175,-159,-16,-367,-960,-886,-605,-342,-59
-152,-27,125,89,-138,49,-84,-276,-249,-192,-145,-58
-131,-66,65,98,-98,-1,24,-77,-99,-104,-102,-62
-117,-47,69,82,-92,10,72,48,0,-36,-69,-55
-110,-60,50,85,-79,-6,94,60,15,-38,-71,-56
-116,-47,69,81,-93,11,100,115,59,-16,-62,-54
-104,-52,52,78,-78,0,92,125,67,2,-57,-51
-114,-48,66,81,-90,8,104,132,79,11,-53,-50
-98,-44,54,71,-76,5,110,156,99,16,-45,-50
-101,-47,55,74,-78,4,114,166,110,19,-43,-50
-91,-41,50,66,-70,4,121,194,135,25,-35,-50
-87,-40,46,63,-66,3,126,216,142,34,-31,-48
-83,-40,43,61,-63,1,132,247,171,48,-25,-41
-74,-35,38,55,-56,1,139,280,201,66,-18,-34
-62,-26,36,43,-49,5,143,316,231,83,-7,-28
-46,-18,29,32,-37,5,156,366,270,102,2,-21
-35,-9,26,22,-31,8,171,417,308,129,5,-15
-25,-4,21,14,-23,8,184,462,342,138,8,-15
-16,1,17,7,-17,9,196,512,373,131,11,-15
-7,5,12,0,-10,8,206,537,392,124,14,-15
6,10,4,-8,1,7,206,532,397,119,16,-15
16,14,-3,-15,9,5,194,518,370,103,3,-15
33,23,-10,-27,21,6,186,487,331,77,-18,-12
50,32,-18,-41,34,7,174,426,283,39,-36,-10
53,29,-24,-40,38,2,141,341,206,15,-35,-10
42,26,-16,-34,29,5,99,240,143,15,-28,-10
24,23,-1,-24,12,11,64,156,96,11,-23,-10
4,20,16,-12,-6,18,52,90,58,8,-17,-10
-12,19,31,-4,-22,25,48,45,34,6,-15,-10
-29,13,42,8,-36,27,41,29,22,3,-15,-10
-47,7,55,20,-51,31,36,20,13,1,-15,-10
-51,2,53,24,-52,28,35,14,4,-3,-15,-10
-52,-4,49,28,-50,22,35,8,6,-5,-15,-10
-55,-9,46,31,-51,18,35,0,3,-9,-15,-8
-47,-7,41,27,-44,16,35,-4,0,-10,-10,-5
-44,-4,40,24,-42,17,34,-1,0,-6,-10,-5
-45,-6,40,26,-42,17,30,0,2,-1,-9,-5
-44,-4,40,24,-42,17,30,1,5,4,-5,-5
-46,-6,40,26,-42,17,30,5,5,7,-5,-5
-43,-3,40,23,-41,18,30,5,5,13,-7,-11
-40,0,40,20,-40,20,30,3,5,14,-11,-21
-40,0,40,20,-40,20,26,-2,5,9,-10,-23
-40,0,40,20,-40,20,25,-5,0,6,-10,-20
-40,0,40,20,-40,20,24,-9,0,3,-10,-20
-40,1,40,19,-40,21,21,-13,-2,-2,-10,-20
-51,-11,39,31,-45,14,19,-16,-4,-5,-15,-20
-58,-16,41,37,-49,12,21,-19,-6,-9,-15,-21
-60,-15,45,37,-52,15,25,-21,-6,-11,-15,-25
-58,-13,45,35,-51,15,25,-19,-12,-10,-17,-25
-56,-9,47,32,-52,19,25,-24,-12,-11,-22,-25
-62,-11,50,37,-56,20,25,-31,-16,-9,-25,-25
-58,-8,50,33,-54,21,25,-29,-21,-12,-25,-25
-62,-16,46,39,-54,15,28,-33,-16,-15,-25,-23
-69,-24,45,46,-57,10,31,-35,-28,-17,-25,-19
-65,-20,45,42,-55,12,29,-36,-14,-21,-24,-21
-56,-11,45,33,-50,17,31,-30,-40,-22,-26,-16
-62,-17,44,39,-53,13,29,-25,-5,-28,-21,-15
-73,-26,47,49,-60,10,32,-16,-26,-10,-7,-14
-36,20,56,8,-46,38,55,0,29,20,7,-9
-8,42,50,-17,-29,45,72,31,47,34,17,3
-2,40,42,-19,-22,41,84,58,-171,46,29,7
28,64,36,-47,-4,50,83,50,-126,53,29,32
