I,II,III,aVR,aVL,aVF,V1,V2,V3,V4,V5,V6
-7,84,91,-39,-49,87,30,-40,-100,-130,-85,-145
-4,87,90,-42,-47,88,30,-40,-100,-129,-85,-144
13,100,87,-56,-37,93,30,-40,-100,-125,-85,-140
-10,97,106,-44,-58,101,30,-36,-100,-122,-81,-137
-11,91,101,-40,-56,96,30,-35,-100,-117,-80,-132
0,88,88,-44,-44,88,30,-35,-99,-114,-80,-129
-12,81,93,-35,-53,87,25,-42,-95,-111,-75,-125
-10,82,91,-36,-51,86,25,-46,-95,-108,-76,-125
-3,84,87,-41,-45,85,24,-45,-95,-105,-74,-125
-3,86,89,-42,-46,87,33,-49,-96,-103,-77,-125
8,88,80,-49,-36,84,42,-51,-94,-98,-72,-125
6,92,87,-50,-40,89,39,-49,-102,-107,-83,-123
-21,75,96,-27,-59,85,41,-46,-116,-121,-115,-118
-27,38,65,-6,-46,52,39,-43,-115,-120,-116,-115
-35,27,61,4,-48,44,41,-41,-115,-118,-113,-112
-44,23,68,10,-56,45,44,-37,-115,-115,-112,-107
-40,17,56,11,-48,36,57,-35,-115,-115,-107,-104
-43,12,55,15,-49,33,70,-33,-113,-113,-116,-100
-43,5,48,18,-46,27,69,-27,-106,-106,-123,-97
-24,15,39,4,-32,27,77,-23,-100,-102,-113,-93
-16,45,61,-15,-38,52,101,-18,-92,-96,-103,-90
-21,64,85,-21,-54,74,129,-13,-85,-89,-96,-85
-32,67,99,-18,-66,83,138,-10,-79,-86,-90,-87
-36,88,123,-26,-80,105,140,-2,-75,-72,-85,-94
-16,112,129,-48,-73,120,118,3,-70,-61,-77,-85
5,117,112,-61,-54,114,98,-2,-65,-66,-68,-68
24,96,72,-60,-24,84,101,-5,-61,-63,-59,-63
27,74,47,-51,-11,60,100,-8,-56,-71,-62,-67
20,61,41,-41,-11,51,100,-13,-61,-68,-58,-71
-2,32,34,-16,-18,33,100,-15,-83,-73,-63,-76
-46,-29,17,37,-31,-6,107,-27,-89,-86,-76,-79
-78,-67,11,72,-45,-27,124,-39,-108,-112,-97,-106
-65,-71,-6,68,-29,-38,129,-33,-116,-127,-107,-123
-42,-91,-49,67,4,-69,127,-37,-111,-120,-104,-117
-33,-87,-54,61,11,-71,135,-33,-118,-134,-119,-124
-19,-72,-52,46,17,-62,120,-38,-100,-111,-102,-113
-42,-80,-38,61,-1,-59,186,10,-116,-164,-156,-147
-63,-111,-48,87,-7,-79,267,134,-11,-132,-162,-183
-4,-20,-16,12,6,-18,288,386,418,338,154,-27
285,100,-184,-192,234,-42,132,624,1283,1414,922,365
428,1,-426,-214,427,-212,-266,-181,810,1346,1060,540
122,-233,-355,56,239,-294,-449,-1323,-1167,-515,-21,165
-121,-462,-340,292,110,-401,-406,-1253,-1629,-1292,-627,-196
-159,-416,-257,288,49,-336,-267,-717,-1000,-857,-492,-224
-90,-194,-104,142,7,-149,-50,-302,-540,-488,-289,-171
-52,-148,-96,100,23,-122,74,-53,-198,-211,-124,-122
-70,-150,-80,110,5,-115,141,-9,-126,-135,-97,-97
-29,-115,-85,73,28,-100,153,35,-63,-83,-54,-94
-35,-121,-85,79,25,-103,151,45,-52,-79,-50,-85
-42,-124,-82,83,20,-103,158,47,-26,-63,-42,-80
-34,-114,-81,74,24,-97,158,53,-9,-50,-28,-71
-35,-114,-79,75,22,-97,161,71,5,-35,-17,-52
-25,-106,-81,65,28,-93,153,79,23,-6,-1,-40
-29,-108,-79,68,26,-93,149,93,35,11,6,-40
-47,-129,-81,88,17,-105,143,103,59,30,28,-41
-47,-130,-83,89,18,-106,138,119,73,41,42,-34
-39,-130,-91,84,26,-110,132,150,117,74,71,-12
-46,-129,-83,87,19,-106,127,186,160,108,91,5
-14,-102,-88,58,38,-95,117,232,223,164,129,21
19,-81,-100,31,60,-90,108,273,294,229,185,50
45,-78,-123,17,84,-100,110,339,381,307,244,81
85,-73,-158,-6,122,-115,99,385,472,383,305,112
123,-52,-174,-35,149,-113,96,436,543,445,353,131
126,-43,-170,-41,148,-106,102,470,600,496,391,137
122,-46,-167,-38,145,-106,88,460,607,501,387,133
128,-44,-172,-41,151,-108,77,451,587,483,371,128
83,-46,-129,-18,107,-87,75,393,522,434,348,126
43,-40,-84,-1,64,-62,71,315,404,346,301,106
3,-61,-63,29,33,-62,70,235,293,247,235,75
-36,-79,-43,58,4,-61,74,155,193,157,175,45
-40,-77,-37,59,-1,-57,75,94,103,87,135,18
-49,-84,-34,67,-7,-59,75,41,39,33,97,-3
-58,-85,-27,71,-15,-56,75,17,-3,-5,73,-15
-62,-90,-27,76,-18,-58,75,10,-26,-25,52,-27
-81,-91,-10,86,-36,-50,73,2,-44,-42,36,-37
-80,-87,-7,84,-36,-47,68,-2,-56,-55,35,-36
-64,-103,-39,84,-12,-71,65,-8,-55,-57,34,-30
-78,-108,-30,93,-23,-69,62,-11,-55,-61,31,-26
-82,-99,-17,91,-33,-57,57,-16,-56,-65,28,-22
-85,-95,-10,90,-37,-52,54,-20,-54,-63,34,-16
-85,-87,-2,86,-41,-44,50,-25,-57,-59,33,-17
-81,-81,-1,81,-40,-41,45,-25,-63,-57,43,-20
-97,-76,20,86,-58,-28,41,-25,-66,-54,65,-20
-97,-71,26,84,-61,-22,36,-25,-64,-51,67,-20
-81,-65,16,73,-48,-24,31,-22,-68,-50,69,-20
-61,-60,1,60,-31,-29,30,-39,-71,-50,73,-20
-83,-56,28,69,-55,-14,30,-47,-68,-53,76,-15
-103,-54,49,79,-76,-2,30,-44,-64,-56,69,-16
-73,-56,17,64,-44,-19,30,-46,-61,-55,40,-13
-76,-54,22,65,-48,-16,30,-44,-56,-53,7,-26
-83,-54,30,68,-56,-12,31,-46,-56,-49,-24,-46
-84,-41,43,62,-63,1,34,-50,-69,-51,-59,-44
-93,-35,57,64,-74,11,35,-50,-69,-56,-86,-49
-83,-35,47,59,-64,5,35,-50,-72,-63,-110,-50
-81,-33,47,57,-63,7,35,-50,-91,-74,-145,-52
-76,-39,37,58,-56,-1,36,-49,-99,-76,-162,-59
-67,-15,52,41,-59,18,32,-53,-98,-75,-161,-55
-87,-25,62,56,-74,18,27,-54,-96,-75,-157,-55
-96,-39,57,67,-76,9,20,-64,-94,-75,-152,-54
-85,-29,56,56,-70,13,16,-69,-91,-74,-148,-50
-63,-2,61,32,-62,29,35,-60,-90,-68,-144,-51
-47,60,108,-7,-78,84,59,-56,-83,-60,-139,-48
-57,59,116,-2,-86,87,60,-54,-67,-54,-134,-38
-53,68,121,-8,-87,94,56,-54,-56,-47,-131,-32
-21,116,136,-48,-79,126,29,-50,-54,-41,-124,-20
18,134,115,-76,-49,124,-11,-50,-56,-40,-111,-9
23,126,103,-75,-40,114,-25,-50,-54,-34,-100,4
26,119,92,-73,-33,105,-47,-51,-56,-35,-100,22
18,101,83,-60,-32,91,-57,-49,-54,-28,-99,16
-31,25,56,3,-44,40,-22,-51,-58,-34,-100,-9
-47,-29,18,37,-32,-5,0,-49,-67,-49,-104,-20
-45,-42,3,43,-24,-19,-9,-50,-79,-59,-114,-27
-70,-75,-5,73,-32,-40,2,-62,-84,-81,-126,-41
-80,-100,-19,91,-30,-59,2,-63,-71,-76,-127,-50
-81,-91,-10,87,-35,-50,17,-60,-85,-95,-141,-52
-70,-98,-29,84,-20,-63,13,-51,-62,-83,-131,-45
-89,-93,-3,91,-42,-48,56,-33,-87,-115,-163,-67
-112,-85,27,98,-69,-29,149,66,-25,-125,-195,-99
-50,-14,35,32,-42,11,176,284,292,178,-18,-23
214,108,-106,-161,160,1,99,627,1137,1166,660,320
444,60,-384,-252,414,-162,-274,137,1202,1579,1080,616
212,-117,-329,-47,271,-222,-539,-1177,-694,-43,204,359
-92,-368,-276,230,92,-322,-515,-1423,-1681,-1235,-629,-53
-152,-399,-247,276,47,-322,-426,-882,-1122,-934,-601,-154
-103,-176,-73,140,-15,-125,-198,-445,-622,-541,-391,-105
-50,-76,-26,63,-12,-51,-35,-119,-232,-234,-211,-53
-51,-47,4,49,-27,-21,27,-38,-111,-141,-155,-21
-49,-49,0,49,-25,-24,50,13,-53,-94,-121,-16
-57,-45,12,51,-34,-16,41,24,-25,-56,-106,-12
-50,-27,24,38,-37,-1,48,31,-13,-51,-104,-7
-35,-25,10,30,-22,-7,43,41,8,-29,-90,-3
-28,-16,12,22,-20,-2,47,40,8,-30,-88,2
-18,-14,4,15,-11,-5,40,61,26,-12,-76,7
-5,-5,0,5,-2,-2,38,58,33,-7,-68,14
-13,-2,11,8,-12,5,47,82,63,6,-57,21
-19,11,30,4,-25,20,44,102,82,15,-52,27
14,38,24,-26,-5,31,45,114,115,46,-26,35
35,46,11,-41,12,28,45,149,153,84,15,52
43,43,0,-43,21,21,45,181,205,126,42,73
71,63,-9,-67,40,27,44,223,276,185,68,96
98,75,-24,-86,61,25,35,287,356,248,120,119
119,100,-19,-109,69,40,27,337,442,315,169,150
167,113,-54,-140,110,29,18,392,530,399,224,186
189,89,-100,-139,144,-5,11,434,597,459,275,208
175,105,-70,-140,122,18,7,442,608,450,271,201
172,118,-54,-145,113,32,0,429,595,438,264,191
151,121,-30,-136,90,46,-1,375,538,405,243,184
110,123,13,-117,48,68,-10,294,429,328,192,168
79,112,33,-96,23,72,-4,222,320,240,133,142
37,102,65,-70,-14,83,12,151,210,150,66,109
-3,84,87,-41,-45,86,-5,82,111,79,17,78
-10,85,95,-38,-53,90,-21,29,45,16,-25,53
-14,88,102,-37,-59,95,-19,-19,-5,-26,-64,44
-20,78,98,-29,-59,88,-16,-39,-41,-57,-77,41
-29,66,95,-19,-62,80,-13,-39,-52,-76,-79,38
-39,55,94,-8,-67,74,-7,-45,-63,-76,-83,33
-34,53,87,-9,-61,70,-7,-48,-76,-86,-88,31
-38,61,100,-12,-69,80,5,-56,-89,-103,-89,23
-51,65,116,-7,-84,91,0,-61,-101,-116,-84,2
-60,52,112,4,-86,82,-26,-59,-100,-115,-86,-15
-35,75,110,-20,-73,92,-25,-68,-100,-115,-83,-33
-4,99,103,-48,-54,101,-24,-76,-100,-116,-80,-43
-28,93,120,-33,-75,106,-26,-75,-100,-111,-80,-43
-40,98,138,-30,-89,118,-24,-75,-100,-105,-76,-32
-30,100,130,-35,-80,115,-25,-71,-100,-100,-71,-64
-27,100,127,-37,-77,113,-17,-70,-99,-95,-66,-131
-24,97,121,-37,-73,109,-13,-70,-95,-88,-63,-138
-27,90,117,-32,-72,103,-6,-70,-92,-86,-57,-134
-26,87,113,-31,-70,100,1,-70,-90,-90,-56,-136
-26,82,108,-28,-67,94,-29,-71,-86,-89,-60,-131
-28,78,106,-26,-67,91,-45,-78,-85,-93,-60,-130
-29,75,104,-23,-67,89,-30,-84,-84,-95,-65,-130
-35,83,117,-24,-76,100,-23,-89,-87,-94,-65,-141
-51,97,148,-23,-100,122,-35,-90,-98,-99,-61,-146
-50,94,144,-22,-97,119,-42,-90,-101,-100,-59,-144
-44,82,126,-19,-85,104,-36,-90,-104,-100,-61,-145
-52,70,122,-9,-87,96,-35,-91,-106,-100,-59,-145
-52,61,113,-5,-83,87,-30,-98,-115,-109,-64,-145
-99,44,143,27,-121,94,-30,-96,-115,-115,-73,-139
-110,48,158,30,-134,103,-21,-86,-101,-105,-62,-133
-78,75,153,1,-115,114,-8,-78,-91,-95,-50,-130
-66,92,157,-14,-112,124,4,-70,-80,-85,-43,-122
-32,120,152,-44,-92,136,17,-75,-73,-76,-35,-118
-39,144,183,-52,-111,163,14,-86,-64,-68,-29,-111
-30,156,185,-63,-108,170,10,-88,-57,-67,-22,-94
1,170,169,-85,-84,169,-13,-80,-51,-71,-15,-83
3,167,163,-85,-80,165,-55,-77,-47,-69,-6,-77
31,152,122,-92,-46,137,-66,-69,-41,-70,0,-76
42,144,102,-93,-30,123,-69,-67,-41,-70,8,-83
13,104,91,-59,-39,97,-80,-91,-68,-70,0,-86
-16,65,81,-25,-49,73,-50,-99,-88,-80,-24,-90
-16,52,68,-18,-42,60,-34,-103,-97,-94,-43,-110
-30,35,65,-3,-48,49,-29,-119,-121,-130,-78,-137
-35,19,54,8,-45,36,-22,-107,-111,-130,-80,-134
-45,3,49,21,-47,26,-20,-109,-116,-138,-84,-135
-52,-10,42,31,-47,16,-18,-100,-111,-145,-91,-137
-47,-18,29,32,-38,5,-24,-92,-104,-135,-82,-130
-104,-37,66,70,-84,14,59,-36,-115,-184,-140,-177
-75,-20,56,47,-66,18,127,109,30,-90,-108,-187
74,89,15,-82,29,52,144,426,585,525,313,30
351,107,-245,-229,297,-69,-59,557,1397,1541,1051,431
411,15,-396,-213,404,-190,-463,-513,414,928,846,476
85,-180,-265,48,175,-222,-588,-1506,-1473,-881,-248,60
-116,-389,-272,253,78,-330,-529,-1213,-1514,-1213,-643,-225
-132,-281,-150,207,9,-215,-349,-705,-906,-760,-476,-231
-115,-96,18,105,-66,-39,-122,-296,-467,-420,-263,-162
-81,-42,39,61,-60,-1,-37,-86,-184,-193,-127,-117
-69,-27,42,48,-55,8,12,-49,-145,-137,-105,-95
-71,-32,38,52,-55,3,32,-3,-87,-92,-72,-84
-67,-27,40,47,-53,7,51,15,-86,-97,-67,-80
-67,-25,42,46,-54,8,58,38,-45,-74,-52,-72
-48,-22,26,35,-37,2,53,28,-25,-58,-52,-66
-24,-19,5,21,-14,-7,57,50,-13,-40,-46,-60
-35,-16,19,26,-27,1,54,69,-1,-25,-41,-53
-32,-14,18,23,-25,2,55,74,16,-15,-35,-45
-16,-6,10,11,-12,1,50,96,45,10,-7,-36
-3,6,9,-2,-6,7,50,122,69,25,9,-30
18,20,1,-19,8,10,50,146,106,41,29,-21
33,32,-1,-32,17,15,50,172,152,86,67,-4
58,49,-9,-53,33,19,50,212,217,143,98,12
71,53,-17,-62,44,18,48,275,291,202,132,33
90,59,-32,-74,61,13,43,333,379,278,187,57
165,90,-75,-127,120,7,40,389,470,353,253,85
187,97,-89,-142,137,3,37,429,529,404,291,106
192,96,-96,-144,144,0,32,440,562,434,307,116
206,102,-104,-153,155,-1,30,447,579,443,320,120
174,99,-76,-136,125,11,24,412,552,419,303,105
153,93,-60,-123,106,16,19,351,466,360,265,92
121,91,-30,-105,76,30,13,281,355,271,215,84
78,83,5,-80,36,44,9,195,244,183,146,58
54,84,29,-70,13,56,1,121,138,95,87,27
7,58,51,-33,-22,54,7,71,63,17,47,10
-39,9,48,15,-43,28,44,47,19,-32,15,-6
-21,23,44,-1,-33,33,51,20,-20,-61,-7,-21
-12,29,41,-9,-27,35,41,-8,-54,-74,-22,-30
-18,18,35,0,-27,26,37,-22,-65,-87,-42,-30
-20,16,37,2,-29,26,29,-26,-65,-94,-55,-30
-34,6,40,14,-37,23,23,-25,-76,-102,-57,-30
-38,2,40,18,-39,21,21,-25,-81,-110,-61,-30
-47,-7,40,27,-43,16,27,-25,-85,-110,-65,-30
-50,-10,40,29,-45,15,22,-25,-96,-108,-63,-25
-51,-11,40,31,-45,15,28,-23,-95,-102,-57,-25
-52,-9,43,30,-47,17,41,-19,-91,-98,-52,-25
-53,-5,48,29,-50,21,40,-20,-90,-94,-49,-25
-39,10,49,14,-44,30,38,-20,-85,-89,-44,-26
-34,9,43,12,-39,26,35,-20,-86,-84,-40,-22
-36,3,39,16,-37,21,34,-20,-89,-81,-40,-19
-9,25,34,-9,-22,29,38,-20,-92,-78,-40,-14
-8,22,30,-7,-20,26,40,-21,-95,-76,-40,-12
-17,8,25,4,-21,16,40,-19,-98,-72,-40,-6
-27,1,28,13,-28,15,40,-21,-100,-70,-41,-6
-38,7,45,15,-41,26,40,-19,-100,-70,-48,-19
-33,3,36,14,-34,19,40,-23,-100,-71,-51,-21
-37,-18,19,27,-28,0,34,-28,-100,-83,-49,-19
-31,-13,19,22,-25,3,29,-25,-100,-86,-53,-17
-42,-5,37,23,-39,16,23,-41,-100,-86,-68,-14
-40,2,43,19,-41,22,19,-47,-100,-85,-71,-16
-15,12,28,1,-22,20,11,-44,-95,-81,-70,-20
-19,11,30,4,-25,20,14,-46,-95,-79,-70,-25
-34,-6,28,20,-31,11,32,-45,-94,-76,-70,-28
-69,-37,33,53,-51,-2,40,-44,-89,-75,-69,-34
-55,-28,26,41,-40,-1,41,-38,-91,-69,-63,-33
-57,-5,51,31,-54,23,38,-30,-87,-60,-57,-23
-44,32,76,6,-60,54,55,-24,-74,-52,-51,-12
2,67,65,-34,-32,65,62,-17,-62,-44,-46,-3
-35,56,92,-11,-64,74,55,-10,-54,-37,-38,8
-3,94,97,-46,-50,96,30,-21,-52,-34,-23,17
17,103,86,-61,-35,94,-16,-26,-48,-32,-10,29
33,91,59,-63,-13,75,-20,-25,-45,-28,0,36
55,100,45,-77,5,72,-10,-25,-39,-27,11,50
13,38,25,-26,-6,31,-9,-30,-46,-24,2,58
4,1,-4,-3,4,-2,0,-60,-74,-51,-31,32
-14,-7,7,10,-10,0,3,-67,-79,-71,-54,17
-34,-25,9,29,-21,-7,8,-66,-100,-90,-82,2
-53,-59,-6,56,-23,-33,19,-64,-110,-105,-89,-11
-83,-98,-15,91,-34,-56,15,-63,-94,-98,-79,-28
-99,-92,7,96,-53,-43,19,-59,-111,-117,-99,-44
-97,-98,-1,97,-48,-49,-5,-61,-97,-100,-94,-34
-133,-92,40,113,-86,-26,56,-42,-123,-149,-141,-65
-128,-90,38,108,-83,-25,169,80,-35,-141,-172,-92
-39,-8,31,23,-35,12,187,337,366,271,90,26
251,80,-170,-165,210,-45,53,642,1256,1313,821,392
439,14,-425,-226,432,-205,-342,-78,953,1343,1000,594
104,-145,-250,21,177,-197,-568,-1349,-1052,-445,-4,260
-140,-391,-251,266,56,-321,-525,-1381,-1665,-1276,-649,-101
-138,-376,-238,258,50,-307,-406,-829,-1042,-873,-545,-163
-132,-175,-43,154,-44,-109,-179,-394,-583,-515,-349,-109
-60,-88,-27,74,-16,-57,-39,-103,-219,-227,-185,-56
-78,-57,21,68,-50,-18,7,-43,-138,-152,-139,-32
-109,-90,19,99,-64,-35,30,10,-70,-96,-99,-29
-66,-66,0,66,-33,-33,34,10,-62,-78,-86,-31
-48,-49,-1,48,-23,-25,32,29,-38,-63,-81,-30
-36,-37,-2,37,-17,-19,56,46,2,-55,-73,-30
-36,-56,-20,46,-7,-38,75,64,21,-56,-70,-29
-44,-104,-60,74,8,-82,67,85,38,-22,-59,-21
-32,-83,-51,58,10,-67,71,80,35,-8,-51,-14
-30,-72,-42,51,6,-57,69,107,75,5,-38,-8
-10,-53,-43,32,16,-48,70,129,98,31,-24,0
24,-35,-59,6,42,-47,66,157,132,71,2,11
32,-30,-61,-1,47,-45,61,184,173,94,33,36
49,-10,-59,-19,54,-34,59,219,227,142,68,49
94,34,-60,-64,76,-13,54,275,298,203,102,55
131,57,-73,-94,102,-8,51,344,390,281,164,100
174,62,-111,-118,142,-24,48,411,495,370,226,131
193,63,-129,-128,161,-33,43,451,566,434,273,148
181,52,-129,-116,155,-38,40,477,617,480,303,164
195,72,-123,-133,158,-25,37,471,631,476,306,156
211,88,-122,-150,166,-17,31,458,612,474,307,144
196,84,-112,-140,154,-14,31,424,552,447,287,134
163,81,-82,-122,122,0,21,343,438,350,242,117
124,80,-45,-102,85,18,35,254,316,263,179,82
62,52,-9,-57,35,21,57,176,207,173,108,50
46,41,-5,-43,25,18,48,114,122,93,59,28
48,44,-4,-46,26,20,44,69,61,43,23,9
22,23,1,-23,11,11,38,42,20,6,-7,-6
12,11,-1,-11,6,5,32,25,2,-11,-23,-16
-14,5,19,4,-16,12,32,16,-9,-34,-35,-23
-39,-12,27,25,-32,7,39,9,-19,-40,-44,-23
-23,-3,20,13,-21,8,44,2,-37,-44,-47,-20
-1,13,15,-7,-8,14,40,-6,-48,-61,-49,-26
-12,2,13,5,-12,7,40,-13,-44,-59,-53,-25
-3,-1,3,2,-3,1,40,-12,-45,-56,-55,-25
-8,10,18,-2,-13,14,40,-10,-45,-53,-52,-22
-17,37,55,-10,-36,46,39,-10,-45,-50,-49,-20
-14,39,53,-12,-34,45,46,-10,-45,-49,-46,-20
-17,30,46,-7,-32,38,47,-10,-40,-44,-43,-16
-15,28,44,-7,-30,35,39,-11,-37,-39,-40,-13
-15,23,38,-4,-27,30,32,-16,-33,-35,-40,-10
-13,18,31,-3,-22,24,24,-14,-30,-30,-40,-7
3,26,24,-15,-11,25,17,-18,-25,-25,-40,-5
31,45,14,-38,8,29,18,-20,-29,-29,-40,-7
30,42,12,-36,8,27,21,-20,-43,-30,-40,-18
27,29,2,-29,13,15,20,-17,-46,-32,-40,-25
14,16,3,-15,5,9,27,-13,-44,-38,-44,-25
21,11,-10,-15,15,0,23,-19,-47,-44,-45,-29
-2,-7,-5,4,2,-6,32,-17,-42,-55,-45,-30
-9,23,32,-7,-20,27,22,-41,-58,-55,-66,-33
56,33,-23,-45,39,5,4,-56,-76,-55,-76,-36
26,-11,-37,-7,32,-24,37,-36,-68,-55,-74,-34
-1,-22,-20,12,10,-21,46,-32,-64,-55,-75,-35
-4,-34,-31,19,13,-32,44,-24,-58,-54,-75,-35
-12,-24,-12,19,0,-18,46,-18,-53,-49,-75,-35
-25,-21,4,23,-14,-8,43,-11,-48,-44,-72,-32
-31,9,40,11,-36,24,59,-5,-42,-39,-65,-24
-14,54,68,-20,-41,61,69,-10,-38,-34,-59,-18
-27,50,77,-11,-53,63,76,-10,-35,-30,-53,-10
3,94,91,-49,-44,92,53,-9,-38,-26,-23,-5
14,109,94,-62,-40,101,21,-11,-43,-25,-8,4
12,67,55,-40,-22,61,5,-8,-43,-20,-18,11
39,89,50,-64,-6,69,-24,-14,-49,-19,-24,17
38,107,69,-73,-16,88,-29,-31,-48,-15,-32,37
3,42,38,-23,-18,40,-21,-38,-54,-16,-40,23
-28,-7,21,17,-24,6,-10,-32,-70,-45,-46,-2
-19,-16,4,17,-11,-6,-7,-42,-86,-69,-64,-29
-34,-51,-17,43,-9,-33,10,-51,-115,-102,-95,-65
-56,-86,-30,71,-13,-58,23,-49,-105,-104,-88,-64
-65,-85,-20,76,-22,-53,36,-52,-123,-120,-103,-76
-54,-83,-30,69,-11,-56,35,-48,-105,-108,-96,-72
-70,-89,-20,80,-24,-54,40,-48,-114,-116,-112,-79
-78,-70,8,74,-43,-31,132,59,-73,-129,-163,-126
-40,-30,9,35,-24,-10,179,226,169,68,-53,-85
149,77,-72,-113,110,3,134,549,891,913,542,215
429,111,-319,-270,374,-104,-173,337,1314,1705,1205,595
273,-57,-330,-108,302,-193,-478,-899,-309,381,522,442
-57,-289,-232,173,87,-261,-473,-1402,-1680,-1211,-532,-40
-163,-378,-214,271,26,-295,-413,-951,-1291,-1098,-621,-234
-130,-230,-100,180,-15,-165,-249,-543,-790,-685,-444,-203
-80,-119,-39,99,-20,-78,-62,-182,-354,-341,-237,-131
-60,-84,-24,72,-18,-54,13,-41,-164,-172,-127,-90
-8,-45,-37,27,14,-41,50,-13,-117,-133,-96,-78
-21,-46,-25,34,2,-35,56,-1,-64,-87,-62,-72
-35,-33,2,34,-18,-16,48,5,-57,-92,-74,-68
-29,-40,-11,35,-8,-26,38,19,-26,-63,-59,-60
-42,-39,3,41,-22,-18,21,31,-32,-62,-65,-57
-39,-24,15,31,-27,-4,41,52,-9,-43,-52,-47
-11,-8,3,10,-7,-2,78,51,6,-33,-26,-33
-22,-21,0,21,-11,-10,69,63,34,-19,-6,-20
-13,-18,-5,16,-4,-11,65,84,50,-3,2,-7
5,6,1,-5,2,3,62,112,80,21,16,3
-4,-5,-1,4,-2,-3,56,141,133,59,45,17
45,28,-17,-36,30,5,53,167,182,108,77,23
72,33,-39,-52,55,-3,45,212,252,167,117,47
98,57,-41,-77,69,8,42,262,328,229,159,75
159,101,-58,-130,108,21,36,320,429,326,227,98
210,92,-118,-151,164,-12,30,387,532,423,306,148
208,102,-105,-155,157,-2,26,413,583,473,333,165
192,102,-91,-146,141,5,19,421,605,487,336,168
203,104,-99,-153,151,3,13,412,602,481,335,166
206,121,-86,-163,146,17,5,369,538,440,311,150
161,92,-69,-126,115,11,0,301,436,358,268,140
104,77,-27,-90,66,24,-8,219,321,259,199,106
66,75,8,-70,29,41,-8,153,201,163,128,69
41,63,22,-52,9,43,14,83,104,79,68,31
4,69,64,-37,-30,66,-10,24,25,0,14,8
-50,9,59,20,-54,33,-16,-5,-25,-42,-23,-6
-55,-34,21,44,-37,-7,30,-13,-40,-48,-36,-22
-46,-18,28,32,-36,5,39,-18,-53,-68,-50,-33
-52,-29,23,40,-37,-3,30,-28,-75,-96,-56,-48
-54,4,58,25,-56,31,25,-39,-91,-103,-62,-60
-25,18,43,3,-34,30,17,-59,-100,-115,-85,-76
-39,-30,10,35,-24,-10,11,-63,-103,-122,-89,-78
-72,-18,54,45,-63,18,25,-53,-95,-118,-83,-68
-59,-1,58,30,-58,28,30,-48,-92,-115,-79,-63
-48,18,66,15,-58,42,21,-41,-84,-115,-74,-55
8,64,56,-36,-24,59,19,-34,-82,-126,-69,-50
-11,25,37,-7,-24,31,13,-48,-91,-114,-60,-45
-50,9,58,20,-55,34,10,-62,-89,-96,-52,-40
-17,32,49,-7,-33,40,2,-59,-85,-90,-44,-37
-19,29,48,-5,-34,38,-13,-61,-82,-80,-40,-31
0,44,44,-23,-22,44,-17,-60,-77,-72,-40,-32
9,47,38,-28,-15,42,-11,-60,-75,-70,-40,-36
-30,37,67,-4,-49,52,-6,-63,-80,-70,-40,-39
-70,6,76,31,-73,41,0,-66,-85,-70,-40,-40
-58,3,61,27,-59,31,5,-69,-89,-70,-41,-40
-35,14,49,10,-42,31,5,-72,-90,-71,-44,-40
-62,-2,60,31,-61,29,5,-75,-90,-83,-50,-40
-74,-10,63,42,-68,26,5,-75,-90,-86,-47,-42
-68,-23,45,45,-56,11,4,-75,-91,-85,-45,-46
-65,-26,39,45,-52,6,6,-75,-94,-85,-44,-49
-65,-24,41,44,-52,8,-2,-75,-96,-86,-47,-53
-65,-27,38,46,-51,5,-17,-75,-95,-95,-60,-54
-64,-22,42,43,-52,9,-8,-75,-90,-95,-60,-51
-67,-30,38,49,-52,3,1,-71,-85,-95,-56,-48
-53,-8,46,30,-49,19,7,-59,-80,-95,-54,-46
-52,51,103,0,-78,77,41,-55,-73,-82,-46,-43
-53,67,119,-8,-86,93,54,-52,-69,-70,-39,-35
-36,76,112,-21,-74,94,43,-49,-63,-59,-33,-31
-12,115,127,-52,-70,121,26,-47,-58,-50,-24,-18
8,117,108,-63,-50,112,-13,-44,-55,-43,-16,2
14,99,84,-57,-35,91,-40,-49,-49,-33,-5,12
11,97,86,-54,-38,91,-38,-51,-46,-37,0,17
0,84,83,-42,-42,83,-32,-54,-45,-33,8,25
-11,61,72,-25,-42,66,-27,-56,-69,-43,1,8
-41,12,54,14,-48,33,-20,-53,-86,-61,-29,-21
-43,-22,21,32,-32,-1,-18,-68,-100,-75,-50,-40
-51,-44,7,47,-29,-18,-9,-77,-124,-109,-75,-66
-40,-57,-17,49,-12,-37,-11,-74,-106,-97,-77,-68
-42,-73,-31,58,-6,-52,1,-75,-118,-116,-99,-73
-60,-101,-41,81,-9,-70,0,-76,-89,-92,-85,-66
-91,-90,1,91,-45,-44,34,-50,-106,-124,-113,-89
-142,-94,48,118,-95,-22,128,55,-67,-153,-173,-150
-47,-4,44,25,-46,20,170,248,236,153,22,-59
189,115,-74,-152,131,21,107,590,1068,1156,721,306
409,74,-334,-241,371,-130,-239,174,1233,1735,1237,639
209,-89,-298,-60,254,-193,-517,-1078,-612,119,359,367
-112,-365,-253,239,71,-309,-492,-1364,-1692,-1261,-584,-113
-166,-412,-247,289,41,-329,-404,-869,-1181,-999,-590,-240
-154,-204,-50,179,-52,-127,-198,-456,-697,-600,-399,-191
-63,-91,-28,77,-17,-59,-42,-123,-274,-256,-168,-112
-74,-58,16,66,-45,-21,2,-41,-155,-148,-119,-83
-119,-71,48,94,-83,-11,43,-6,-99,-102,-98,-75
-73,-62,11,67,-42,-25,60,12,-55,-60,-64,-64
-65,-45,20,55,-43,-12,72,16,-54,-66,-71,-60
-47,-49,-2,48,-22,-25,69,35,-21,-39,-49,-49
-23,-40,-17,32,-3,-28,70,34,-25,-45,-49,-45
-17,-40,-23,29,3,-31,70,55,5,-18,-30,-38
-16,-34,-18,25,1,-25,70,79,9,-14,-20,-33
-15,-32,-17,24,1,-24,67,95,38,10,-4,-27
-14,-27,-13,21,0,-20,64,100,63,36,4,-22
-6,-23,-18,15,6,-20,66,126,97,58,22,-8
14,-16,-30,1,22,-23,59,157,148,96,42,7
45,-3,-47,-21,46,-25,60,188,197,142,66,26
53,1,-52,-27,52,-25,60,235,262,203,106,43
80,33,-47,-56,63,-7,60,287,347,279,159,68
132,55,-77,-93,105,-11,72,356,452,365,219,97
132,51,-81,-91,106,-15,70,400,528,435,267,115
160,61,-99,-110,129,-19,57,427,593,507,325,153
177,60,-117,-118,147,-28,46,435,635,540,341,165
157,52,-105,-104,130,-26,35,423,624,514,319,149
153,61,-92,-107,122,-15,21,405,561,475,305,145
125,76,-49,-100,87,14,25,322,451,396,263,126
90,68,-21,-79,55,23,37,235,331,287,191,92
57,52,-4,-55,30,24,32,180,216,191,117,60
13,22,9,-18,1,16,27,126,128,112,60,24
-28,-8,20,18,-24,5,27,69,53,48,12,-11
-38,-12,26,25,-32,7,17,28,-8,-7,-32,-34
-52,-27,24,39,-38,-2,31,15,-39,-40,-60,-45
-57,-31,26,44,-41,-2,60,9,-51,-49,-70,-45
-53,-29,24,40,-38,-2,55,6,-59,-66,-75,-45
-78,-53,26,65,-52,-13,48,1,-66,-76,-75,-45
-71,-50,21,60,-46,-14,45,-3,-72,-77,-79,-45
-63,-42,20,52,-41,-11,59,-9,-79,-91,-84,-44
-55,-35,20,45,-37,-8,53,-26,-77,-100,-80,-40
-51,-30,20,41,-36,-5,39,-27,-74,-97,-78,-38
-67,-47,20,57,-43,-13,50,-24,-76,-91,-75,-35
-59,-41,18,50,-38,-11,45,-26,-75,-86,-72,-31
-60,-29,31,44,-46,1,40,-24,-76,-80,-70,-30
-26,-6,20,16,-22,7,32,-26,-74,-75,-67,-26
-21,-6,15,13,-18,4,34,-22,-68,-70,-61,-25
-61,-32,29,46,-45,-1,50,-20,-61,-70,-56,-25
-72,-36,36,54,-54,0,54,-20,-54,-69,-53,-20
-79,-31,48,55,-63,8,53,-17,-48,-65,-47,-20
-72,-27,45,49,-58,9,48,-15,-41,-65,-46,-19
-68,-23,45,45,-56,11,45,-15,-44,-67,-50,-15
-60,-16,44,38,-52,13,42,-30,-45,-78,-52,-15
-78,-39,39,59,-58,0,37,-36,-46,-80,-55,-15
-100,-59,41,80,-70,-9,34,-34,-55,-80,-58,-15
-88,-51,37,69,-62,-6,30,-35,-60,-85,-61,-15
-83,-50,33,66,-58,-8,30,-35,-63,-84,-62,-19
-74,-48,26,61,-50,-11,30,-51,-68,-87,-69,-29
-66,-41,25,53,-45,-8,29,-56,-70,-90,-69,-33
-74,-58,16,66,-45,-20,31,-55,-71,-90,-71,-30
-75,-57,19,65,-47,-19,29,-55,-75,-89,-68,-30
-59,-34,25,46,-42,-4,31,-57,-75,-92,-69,-28
-55,-35,20,45,-38,-7,29,-69,-70,-100,-84,-24
-68,-21,47,44,-58,13,31,-63,-62,-91,-83,-26
-56,29,85,13,-71,57,43,-52,-56,-79,-76,-21
-40,73,113,-17,-77,92,37,-48,-48,-70,-73,-17
-53,78,131,-13,-92,104,21,-35,-43,-59,-67,-13
-36,106,141,-35,-89,123,4,-41,-36,-58,-40,21
-4,118,122,-57,-63,120,-15,-66,-36,-61,-18,42
6,97,91,-52,-43,94,-30,-65,-34,-63,-21,32
19,112,93,-66,-37,102,-34,-65,-36,-68,-19,26
20,87,67,-54,-24,77,-28,-64,-54,-69,-22,19
-6,27,33,-11,-19,30,-22,-67,-73,-71,-48,10
-48,-13,34,30,-41,10,-17,-81,-78,-73,-57,5
-85,-50,35,67,-59,-8,-10,-91,-103,-114,-94,-30
-88,-63,24,75,-56,-19,-6,-93,-117,-139,-124,-56
-100,-88,12,93,-55,-38,6,-90,-112,-126,-113,-54
-109,-97,12,103,-60,-42,13,-90,-134,-149,-134,-66
-73,-86,-13,80,-30,-49,-9,-90,-108,-115,-110,-65
-104,-92,12,98,-58,-40,59,-57,-133,-171,-164,-107
-123,-81,41,101,-82,-20,127,61,-39,-153,-193,-129
-28,39,68,-6,-48,53,137,305,368,279,89,-2
244,149,-95,-197,169,27,9,585,1260,1384,864,386
420,75,-345,-247,382,-135,-365,-103,977,1523,1125,625
147,-125,-271,-11,209,-198,-578,-1287,-1032,-375,54,250
-112,-388,-275,250,82,-331,-529,-1307,-1657,-1342,-666,-156
-156,-367,-211,262,28,-289,-400,-794,-1062,-936,-568,-234
-127,-149,-21,138,-53,-85,-194,-387,-608,-569,-372,-178
-75,-79,-4,77,-35,-41,-66,-113,-239,-271,-197,-115
-56,-45,10,50,-33,-17,-33,-58,-172,-210,-160,-100
-52,-36,16,44,-33,-10,-20,-23,-106,-163,-118,-89
-102,-46,56,73,-78,5,-5,-17,-81,-134,-118,-83
-95,-29,66,62,-80,18,19,7,-54,-111,-108,-76
-56,-12,44,34,-50,16,19,13,-38,-93,-87,-71
-70,-30,40,50,-55,5,23,20,-34,-89,-84,-66
-63,-20,43,42,-53,11,10,39,-9,-66,-72,-59
-37,17,54,10,-45,35,-13,50,-1,-60,-72,-56
-22,22,44,0,-33,33,-7,55,17,-41,-61,-43
-14,32,46,-10,-30,39,11,78,49,-24,-32,-26
-15,21,37,-3,-26,29,27,115,90,-2,0,-18
20,50,30,-35,-5,39,31,130,119,38,15,-9
64,84,20,-74,21,52,21,176,176,98,41,-1
72,79,7,-75,32,43,-20,226,254,166,89,20
106,130,25,-118,40,77,-33,291,356,257,153,61
121,150,29,-135,45,89,-22,344,443,332,202,79
147,142,-5,-145,75,68,-24,376,515,406,257,109
200,147,-53,-173,126,47,-16,421,587,482,318,150
191,144,-47,-167,118,48,-16,421,598,498,329,146
177,159,-18,-168,98,70,-20,410,577,479,317,143
175,157,-18,-166,96,69,-26,370,512,429,285,137
138,150,12,-144,63,81,-32,285,386,339,221,101
89,146,57,-118,16,101,-38,200,261,225,138,56
53,128,74,-91,-11,101,-38,128,150,123,59,15
36,113,77,-75,-21,95,-31,77,58,58,17,-4
46,117,71,-82,-13,94,-26,36,0,0,-11,-21
32,119,87,-76,-28,103,-20,-10,-41,-56,-53,-48
5,116,111,-61,-53,113,-4,-37,-63,-88,-73,-57
10,112,102,-62,-46,107,0,-33,-76,-92,-73,-60
3,102,99,-52,-48,100,-18,-39,-91,-96,-90,-65
-8,93,101,-43,-55,97,-26,-50,-100,-105,-97,-62
-15,81,96,-34,-55,88,-21,-50,-106,-115,-94,-59
-21,75,95,-28,-58,85,-18,-50,-108,-119,-96,-56
-36,59,95,-12,-66,76,-15,-50,-123,-116,-97,-53
-26,64,90,-19,-58,77,-10,-50,-131,-115,-92,-51
10,100,90,-55,-40,95,-13,-50,-123,-115,-86,-48
11,101,90,-56,-39,95,-27,-50,-120,-115,-81,-45
8,98,90,-53,-41,94,-35,-50,-115,-116,-75,-45
12,102,90,-57,-39,96,-35,-50,-111,-113,-70,-42
9,97,88,-53,-39,92,-36,-50,-107,-106,-65,-40
17,102,85,-60,-34,93,-40,-50,-105,-101,-66,-39
24,108,84,-66,-30,96,-40,-53,-105,-96,-64,-48
6,102,96,-54,-46,99,-38,-55,-105,-89,-60,-51
1,80,79,-41,-39,79,-34,-56,-105,-86,-60,-47
13,88,75,-51,-31,81,-32,-60,-106,-89,-62,-56
7,97,90,-53,-42,94,-29,-59,-110,-90,-72,-55
-6,74,80,-34,-43,77,-26,-55,-111,-94,-75,-55
-6,68,74,-32,-40,71,-24,-55,-114,-95,-75,-55
1,68,68,-35,-34,68,-20,-55,-116,-97,-75,-55
2,63,61,-32,-30,62,-20,-55,-111,-100,-75,-55
6,62,56,-34,-25,58,-19,-55,-110,-100,-76,-50
7,59,52,-33,-23,56,-15,-52,-110,-99,-72,-51
11,53,42,-32,-16,47,-15,-50,-105,-101,-68,-48
-1,43,44,-21,-23,43,-13,-50,-105,-110,-62,-46
-3,36,39,-17,-22,37,-9,-46,-105,-104,-59,-44
12,76,64,-44,-26,69,-1,-45,-106,-92,-54,-49
5,101,96,-53,-45,98,12,-44,-103,-83,-49,-53
-4,100,104,-48,-54,102,24,-40,-106,-72,-57,-64
-12,139,151,-64,-82,145,22,-34,-90,-63,-53,-60
1,140,139,-71,-69,139,5,-31,-52,-56,-42,-16
20,129,110,-75,-45,119,-4,-26,-54,-51,-33,-3
49,125,75,-87,-13,100,-17,-21,-62,-44,-21,-6
74,118,44,-96,15,80,-27,-22,-66,-52,-14,0
48,102,55,-75,-4,79,-26,-30,-69,-56,0,0
18,65,47,-41,-15,56,-21,-49,-73,-63,-25,-5
-16,29,45,-7,-31,37,-17,-51,-87,-72,-60,-25
-48,-33,15,41,-31,-9,-10,-52,-109,-101,-87,-55
-44,-67,-24,56,-10,-45,0,-44,-121,-116,-99,-67
-33,-60,-27,47,-3,-43,0,-37,-116,-102,-84,-66
-33,-53,-20,44,-6,-37,23,-32,-121,-123,-100,-76
-20,-53,-33,37,7,-43,25,-22,-90,-90,-74,-60
-29,-38,-9,34,-10,-23,68,-14,-100,-153,-133,-103
-53,-46,7,49,-30,-19,151,103,-3,-121,-156,-142
1,11,10,-6,-4,10,180,362,409,346,160,20
272,111,-162,-191,217,-26,39,594,1276,1467,958,432
427,45,-382,-236,405,-168,-341,-137,882,1542,1169,661
138,-171,-309,17,224,-240,-519,-1268,-1109,-400,49,251
-99,-428,-328,264,115,-378,-474,-1226,-1635,-1291,-655,-153
-123,-406,-283,265,80,-344,-352,-726,-1018,-852,-530,-178
-67,-175,-108,121,21,-141,-122,-322,-562,-494,-325,-127
-29,-86,-57,57,14,-71,-18,-52,-201,-186,-147,-61
-64,-71,-8,67,-27,-39,37,-21,-128,-126,-107,-38
-38,-87,-49,62,6,-68,81,34,-57,-67,-67,-35
-8,-77,-70,43,31,-73,73,50,-37,-49,-61,-27
-4,-55,-50,30,23,-52,77,59,-15,-40,-54,-22
-28,-82,-54,55,13,-67,74,60,1,-18,-41,-13
-33,-73,-39,53,3,-56,76,67,9,-13,-35,-6
-20,-58,-37,39,9,-47,75,98,37,10,-18,6
-13,-60,-47,36,17,-53,77,114,47,24,-11,14
0,-60,-59,30,30,-59,81,116,62,49,6,26
7,-60,-67,27,37,-64,79,132,84,55,11,33
18,-54,-73,18,46,-63,80,171,132,92,38,46
35,-13,-48,-11,42,-31,80,181,170,126,61,67
59,10,-49,-35,54,-19,79,207,216,166,89,82
71,-8,-80,-31,76,-44,86,268,296,240,141,100
101,13,-88,-56,94,-38,92,325,398,327,202,139
123,35,-88,-79,105,-26,88,369,488,404,257,157
144,57,-86,-100,115,-14,77,399,562,477,309,175
199,79,-120,-138,159,-20,70,429,632,552,364,225
207,73,-134,-140,170,-30,59,429,644,568,371,228
172,64,-109,-118,140,-22,54,408,606,552,363,210
175,69,-106,-122,140,-18,69,373,549,487,339,201
161,76,-85,-118,123,-5,71,305,437,378,288,174
74,38,-36,-56,55,1,69,226,314,284,217,129
24,1,-23,-12,23,-11,66,146,195,171,132,78
23,-9,-32,-7,28,-20,64,85,106,87,72,44
-10,-40,-30,25,10,-34,66,46,58,37,29,24
-29,-56,-27,43,0,-41,64,22,11,-2,3,9
-36,-61,-25,49,-5,-43,66,7,-17,-23,-13,-3
-34,-59,-24,47,-5,-41,64,-9,-36,-48,-28,-12
-41,-61,-20,51,-10,-40,65,-22,-53,-62,-34,-23
-93,-93,0,93,-46,-47,79,-31,-59,-76,-43,-25
-96,-93,3,95,-49,-45,82,-34,-62,-83,-50,-25
-75,-98,-23,87,-25,-61,70,-39,-64,-79,-50,-25
-82,-108,-26,96,-27,-67,67,-38,-68,-89,-50,-25
-109,-108,0,109,-55,-54,56,-34,-71,-95,-50,-25
-127,-109,18,118,-72,-45,53,-36,-63,-84,-50,-20
-120,-106,14,113,-67,-46,83,-32,-66,-78,-50,-15
-103,-86,17,94,-60,-34,89,-29,-71,-69,-34,-11
-54,-37,18,45,-36,-9,79,-31,-65,-62,-13,-6
-41,-21,20,30,-30,-1,77,-34,-63,-60,-10,-1
-47,-19,28,33,-37,4,69,-37,-58,-56,-10,-2
-13,-9,5,11,-9,-2,65,-39,-55,-55,-10,-6
-13,-14,-1,13,-5,-7,60,-43,-51,-50,-10,-8
-44,-30,14,37,-29,-8,54,-45,-50,-52,-10,-11
-27,-18,9,22,-18,-4,51,-48,-50,-53,-16,-14
-29,-21,8,25,-18,-7,45,-50,-51,-61,-21,-15
-31,-48,-17,40,-7,-32,43,-50,-59,-80,-26,-16
9,-13,-22,2,16,-17,38,-50,-60,-80,-32,-14
-6,10,15,-2,-11,12,44,-50,-60,-83,-38,-20
-8,1,9,3,-8,5,62,-50,-60,-86,-40,-28
-1,-6,-5,4,2,-5,61,-50,-60,-85,-41,-25
-25,-42,-18,34,-3,-29,51,-50,-62,-85,-44,-25
-23,-44,-21,34,0,-32,47,-50,-59,-86,-47,-21
-37,-46,-9,42,-14,-27,38,-50,-57,-90,-55,-20
-27,-44,-17,35,-4,-30,36,-47,-54,-85,-55,-20
-14,-15,-1,14,-6,-8,62,-39,-51,-80,-51,-15
-26,-29,-4,28,-11,-16,72,-31,-50,-76,-49,-12
-16,-6,9,11,-12,1,71,-23,-43,-67,-46,-9
-17,40,58,-12,-38,49,75,-15,-35,-67,-43,-4
-4,66,71,-31,-38,68,76,-10,-29,-69,-36,-1
-13,85,99,-36,-56,92,53,-8,-26,-61,-24,3
-15,85,100,-35,-58,92,21,-5,-31,-59,-16,12
17,83,67,-50,-25,75,5,-3,-33,-61,-15,22
17,79,62,-48,-22,70,-24,1,-35,-58,-12,37
25,80,55,-53,-15,67,-31,-3,-41,-63,-10,37
6,44,38,-25,-16,40,-31,-12,-37,-56,-10,23
-5,14,19,-4,-13,16,-25,-23,-60,-71,-47,12
-8,-14,-5,11,-1,-9,-17,-31,-75,-92,-70,-1
-69,-60,9,64,-39,-25,0,-32,-90,-117,-94,-18
-54,-73,-20,64,-17,-46,8,-28,-92,-121,-108,-31
-49,-96,-46,73,-1,-70,14,-31,-98,-143,-112,-52
-77,-105,-28,91,-25,-66,41,-28,-92,-151,-122,-58
-71,-115,-44,93,-13,-79,18,-36,-76,-130,-109,-61
-97,-86,11,91,-53,-37,95,22,-94,-192,-178,-95
-74,-29,45,51,-60,8,173,170,62,-91,-154,-98
55,76,21,-65,17,48,157,456,625,537,285,110
353,146,-207,-249,280,-30,-54,534,1397,1669,1103,555
380,25,-354,-202,367,-164,-425,-473,411,1103,918,595
48,-223,-272,87,160,-247,-520,-1376,-1459,-884,-286,109
-126,-437,-311,282,93,-374,-466,-1094,-1488,-1270,-706,-195
-148,-325,-177,236,15,-250,-324,-611,-878,-807,-520,-200
-95,-118,-23,107,-36,-70,-100,-216,-435,-447,-295,-128
-47,-66,-18,57,-14,-41,-7,-29,-152,-206,-156,-77
-35,-40,-5,37,-15,-22,36,-5,-112,-182,-135,-62
-41,-37,5,39,-23,-16,55,43,-42,-114,-85,-47
-42,-27,15,34,-28,-6,55,36,-38,-109,-84,-39
7,-17,-24,5,16,-20,55,66,-5,-86,-65,-33
5,-25,-30,11,17,-27,50,81,-8,-88,-58,-30
-23,-36,-13,30,-4,-24,51,84,18,-80,-51,-27
-21,-39,-18,30,-1,-28,48,102,60,-52,-43,-22
-18,-40,-22,29,2,-31,45,113,73,-35,-38,-20
-18,-38,-19,28,1,-28,45,112,86,-19,-26,-13
-8,-28,-20,18,7,-24,45,124,108,-3,-18,-5
14,-5,-19,-4,17,-12,45,156,153,33,3,3
27,16,-12,-21,19,2,45,187,197,67,29,8
33,18,-15,-25,24,1,42,228,254,124,67,34
72,49,-23,-60,47,13,37,284,335,207,120,69
114,79,-35,-96,74,21,35,347,433,292,179,87
123,88,-34,-105,78,27,31,397,514,366,230,119
169,110,-59,-139,114,25,27,435,592,448,294,158
195,107,-88,-150,141,9,24,460,645,504,333,171
205,121,-84,-162,144,18,18,465,649,508,321,168
214,135,-80,-174,147,27,10,433,618,486,313,157
159,122,-38,-140,98,42,5,370,537,424,282,143
134,110,-24,-122,79,43,-3,299,419,322,220,123
108,86,-22,-97,65,32,-9,219,298,210,148,81
33,68,35,-51,-1,51,-6,147,193,110,74,37
-3,55,57,-27,-30,56,-5,93,113,40,27,8
-4,50,54,-24,-29,52,-3,51,50,-4,-9,-21
-16,39,56,-12,-36,47,-14,24,3,-45,-30,-40
-24,30,55,-4,-40,42,-18,12,-20,-65,-41,-42
-35,20,55,7,-46,37,-6,4,-34,-72,-63,-48
-51,4,55,23,-53,29,-2,-5,-53,-88,-68,-66
-69,-14,55,41,-62,20,11,-14,-61,-91,-63,-71
-89,-34,55,61,-72,11,-6,-34,-66,-89,-60,-69
-70,-15,55,42,-62,20,-28,-47,-71,-90,-57,-70
-48,7,55,20,-52,30,-21,-44,-70,-90,-52,-70
-33,24,56,4,-45,40,-16,-45,-70,-89,-50,-70
-28,32,60,-2,-44,45,-13,-45,-70,-85,-63,-68
-43,20,63,11,-53,40,-7,-45,-70,-85,-64,-63
-45,21,65,11,-55,42,-6,-47,-70,-85,-57,-60
-56,12,69,22,-63,40,-17,-55,-70,-85,-54,-56
-60,10,70,25,-65,40,-29,-60,-70,-85,-48,-53
-49,15,64,17,-57,39,-40,-60,-70,-82,-45,-49
-42,9,50,16,-46,29,-45,-60,-70,-79,-40,-45
-33,10,42,11,-38,26,-46,-61,-70,-76,-40,-45
-54,-9,45,31,-50,18,-50,-59,-70,-74,-40,-44
-46,-1,45,23,-45,22,-50,-67,-76,-69,-40,-54
-18,27,45,-5,-32,36,-50,-81,-85,-71,-39,-62
-26,19,44,3,-35,31,-50,-79,-91,-79,-46,-59
-34,12,46,10,-40,29,-50,-81,-92,-83,-61,-56
-34,5,40,14,-37,22,-46,-78,-88,-77,-62,-54
-43,-3,40,23,-41,18,-45,-89,-96,-86,-71,-67
-61,-9,51,35,-56,21,-45,-102,-101,-110,-90,-70
-46,2,48,22,-47,25,-41,-97,-100,-107,-90,-64
-28,17,45,5,-37,31,-39,-111,-99,-101,-85,-62
-30,12,42,9,-36,27,-40,-113,-95,-98,-84,-57
-36,5,40,16,-39,22,-33,-103,-95,-92,-72,-54
-35,2,37,16,-36,19,-38,-99,-93,-89,-61,-51
-42,-7,35,24,-38,14,-19,-90,-89,-76,-51,-45
-40,15,56,13,-48,35,15,-85,-85,-61,-44,-41
-42,37,80,3,-61,58,6,-81,-80,-50,-37,-36
-66,23,89,21,-78,56,18,-78,-75,-40,-30,-31
-37,68,105,-15,-71,86,-4,-75,-72,-33,-25,-27
-5,95,100,-46,-52,97,-43,-69,-67,-24,-14,-7
2,81,79,-42,-39,80,-41,-77,-61,-19,-8,10
8,82,75,-45,-34,78,-39,-87,-53,-23,16,22
30,69,39,-50,-5,54,-35,-83,-54,-15,14,28
6,31,26,-19,-10,28,-32,-95,-81,-48,-15,6
-34,-17,18,25,-26,0,-28,-94,-75,-66,-13,-22
-42,-47,-5,45,-18,-26,-17,-93,-98,-81,-56,-68
-56,-88,-32,72,-12,-59,3,-88,-125,-110,-84,-76
-56,-103,-47,80,-4,-75,-12,-87,-131,-116,-85,-74
-80,-100,-20,91,-30,-60,17,-84,-143,-146,-98,-92
-69,-120,-51,94,-9,-85,41,-76,-106,-113,-56,-65
-121,-105,16,113,-69,-44,53,-55,-138,-171,-127,-115
-151,-112,39,132,-95,-36,125,65,-22,-123,-152,-156
-42,-26,16,34,-29,-5,155,288,381,324,151,-6
216,123,-93,-169,154,15,11,500,1174,1429,955,420
347,51,-296,-199,321,-122,-335,-149,778,1535,1169,618
29,-196,-224,84,127,-210,-475,-1159,-1117,-443,-17,154
-158,-441,-283,300,63,-362,-421,-1115,-1584,-1378,-734,-253
-155,-404,-249,280,47,-327,-325,-663,-1002,-919,-582,-285
-115,-182,-66,149,-24,-124,-132,-299,-568,-549,-362,-190
-47,-90,-44,69,-1,-67,-65,-71,-206,-230,-148,-115
-75,-80,-5,78,-35,-43,-40,-50,-136,-153,-111,-107
-46,-68,-23,57,-11,-45,-1,-9,-74,-91,-84,-92
-44,-57,-13,51,-15,-35,0,-12,-70,-73,-73,-87
-24,-25,-1,24,-11,-12,9,5,-53,-62,-64,-81
-52,-19,33,36,-42,7,21,15,-38,-47,-52,-77
-109,-60,49,84,-79,-5,1,27,-30,-28,-57,-72
-68,-54,14,61,-41,-20,-5,36,-12,-14,-54,-63
-74,-46,28,60,-51,-9,20,32,-5,-25,-30,-59
-83,-44,39,64,-61,-2,21,67,20,22,-6,-50
-59,-34,25,46,-42,-4,25,76,35,45,-5,-44
-6,-17,-11,12,3,-14,26,97,80,82,44,-30
31,28,-3,-29,17,12,24,124,111,113,65,-14
17,26,9,-22,4,17,26,150,162,162,91,26
55,29,-26,-42,40,1,31,205,246,255,166,68
115,76,-40,-95,77,17,23,253,322,337,214,84
134,80,-54,-106,94,13,20,300,408,429,277,122
140,82,-58,-111,99,12,6,337,485,517,342,162
184,104,-80,-144,132,12,-3,360,526,579,396,201
199,98,-101,-148,150,-2,1,355,534,593,422,226
170,91,-79,-130,124,5,-53,326,504,560,393,205
147,84,-64,-115,105,10,-36,282,433,499,356,173
99,74,-26,-87,62,24,-17,220,330,397,293,137
62,76,14,-69,24,45,-46,162,215,269,189,94
30,67,38,-49,-4,52,-42,100,111,155,102,48
11,53,41,-32,-15,47,-72,49,29,62,32,2
26,61,36,-44,-5,48,-58,25,-19,13,-36,-31
11,46,35,-29,-12,40,-40,13,-48,-16,-54,-38
5,33,28,-19,-12,30,-82,3,-71,-60,-47,-31
3,31,28,-17,-13,29,-77,-8,-96,-74,-57,-44
-43,-28,14,35,-28,-7,-63,-17,-107,-85,-77,-62
-40,-10,30,25,-35,10,-60,-28,-104,-98,-88,-58
-23,6,29,8,-26,17,-52,-35,-118,-101,-91,-55
-32,-13,19,22,-25,3,-51,-35,-128,-112,-95,-53
-27,39,67,-6,-47,53,-43,-35,-121,-119,-90,-50
-23,38,61,-8,-43,49,-43,-35,-120,-116,-86,-48
-22,29,51,-4,-37,40,-26,-35,-135,-110,-84,-44
-31,30,61,0,-46,45,-3,-36,-139,-104,-79,-42
-40,21,62,9,-51,41,-14,-35,-130,-99,-76,-38
-60,13,73,23,-66,43,-35,-36,-127,-94,-72,-37
-56,12,68,22,-62,40,-21,-35,-119,-90,-70,-32
-36,39,75,-2,-56,57,0,-35,-116,-91,-70,-56
-27,59,86,-16,-56,72,-23,-35,-122,-87,-66,-87
-19,61,80,-21,-50,71,-55,-32,-129,-85,-65,-84
-19,56,75,-19,-47,66,-42,-45,-122,-84,-64,-86
-32,50,82,-9,-57,65,-21,-52,-128,-94,-84,-90
-49,41,90,4,-70,65,-29,-49,-141,-93,-97,-90
-34,38,72,-2,-54,55,-33,-47,-140,-81,-94,-88
-51,26,77,12,-64,51,-18,-44,-140,-106,-107,-84
-48,40,87,4,-67,63,-15,-45,-140,-118,-111,-86
-20,37,58,-8,-39,47,-4,-40,-140,-110,-109,-81
-73,-3,70,37,-71,34,-2,-35,-136,-110,-107,-79
-78,3,81,37,-80,42,-39,-31,-130,-105,-104,-82
-56,30,86,12,-71,58,-45,-26,-125,-105,-106,-59
-57,8,65,24,-61,36,-40,-22,-119,-98,-96,-57
-46,8,53,19,-50,30,-9,-17,-114,-87,-84,-71
-44,86,130,-21,-87,108,27,-13,-108,-77,-72,-59
-52,98,151,-23,-102,124,24,-8,-104,-67,-64,-55
-36,114,150,-39,-93,131,48,-5,-100,-57,-56,-47
7,178,171,-93,-82,174,43,-22,-98,-49,-50,-41
-12,172,184,-80,-98,178,-19,-47,-93,-51,-50,-39
-3,155,158,-76,-81,156,-52,-63,-89,-47,-43,-29
22,158,136,-90,-57,147,-33,-58,-94,-47,-46,-22
10,135,125,-72,-57,130,-17,-50,-101,-41,-34,-5
9,101,92,-55,-42,97,-6,-46,-106,-56,-55,-29
-24,63,87,-20,-55,74,13,-43,-109,-77,-95,-58
-28,20,48,4,-39,34,49,-47,-127,-105,-105,-54
0,7,7,-3,-4,7,65,-42,-120,-115,-105,-55
-9,-5,4,7,-7,0,56,-50,-113,-112,-104,-54
-32,-13,19,22,-25,3,55,-57,-117,-138,-111,-56
-41,-36,5,39,-23,-16,42,-55,-99,-114,-102,-53
-62,-31,31,46,-46,0,104,-6,-102,-171,-172,-96
-53,-13,40,33,-47,14,170,112,25,-123,-173,-125
23,118,95,-71,-36,106,172,262,388,311,128,45
233,281,48,-257,92,164,-3,348,991,1299,872,464
283,128,-156,-205,219,-14,-288,-252,419,1153,908,556
7,-177,-184,85,95,-180,-390,-1042,-1170,-678,-246,80
-124,-403,-278,264,77,-340,-354,-927,-1379,-1330,-791,-241
-110,-344,-234,227,62,-289,-243,-522,-842,-902,-616,-250
-65,-124,-59,95,-3,-92,-104,-235,-428,-527,-377,-167
-11,-69,-58,40,24,-64,31,-26,-88,-209,-170,-76
0,-40,-39,20,20,-39,71,-8,-36,-155,-132,-55
5,-29,-35,12,20,-32,68,22,31,-94,-84,-48
-29,-70,-41,50,6,-55,108,49,47,-78,-78,-43
-14,-69,-55,42,21,-62,104,50,63,-55,-66,-38
-3,-58,-54,31,26,-56,103,51,84,-47,-53,-32
-7,-54,-47,30,20,-50,99,49,83,-46,-48,-25
2,-47,-49,23,25,-48,104,52,112,-12,-32,-17
-2,-41,-39,22,18,-40,130,57,125,12,-28,-12
7,-66,-72,30,40,-69,131,75,141,29,-12,-2
10,-78,-89,35,50,-84,118,83,160,32,-4,8
14,-62,-76,24,45,-68,109,77,185,66,18,17
29,-40,-69,6,49,-55,104,110,228,107,47,28
51,-5,-56,-23,53,-30,98,141,276,156,79,44
69,18,-51,-43,60,-16,92,166,330,217,127,68
86,37,-49,-61,67,-6,88,221,413,300,186,91
107,56,-52,-81,79,2,84,259,494,398,251,132
130,65,-65,-97,97,0,81,291,553,469,301,168
145,80,-65,-112,105,7,77,319,599,522,344,184
159,95,-65,-127,112,15,74,331,604,540,371,191
169,104,-66,-136,117,19,69,313,582,519,355,187
162,101,-62,-131,112,19,55,262,507,458,306,175
114,89,-24,-102,69,32,51,200,393,344,238,132
51,101,49,-76,1,75,28,138,289,236,160,84
24,93,69,-59,-23,81,18,76,175,132,83,47
6,63,57,-35,-25,60,49,38,103,54,29,9
1,50,49,-26,-24,49,48,14,53,1,-8,-11
11,43,32,-27,-11,37,38,-13,11,-48,-41,-35
19,46,26,-33,-4,36,39,-25,-19,-65,-60,-56
39,44,5,-41,17,24,26,-35,-44,-74,-63,-54
19,48,29,-34,-5,38,30,-37,-45,-88,-69,-62
-29,6,35,11,-32,20,37,-34,-45,-95,-71,-71
-23,-40,-17,32,-3,-28,38,-35,-44,-97,-66,-69
-36,-49,-13,43,-11,-31,53,-30,-40,-101,-63,-71
-39,-40,-1,39,-18,-20,56,-29,-39,-105,-60,-70
-45,-21,24,33,-34,2,63,-33,-49,-103,-55,-70
-60,-15,45,37,-53,15,67,-36,-62,-100,-53,-66
-36,-12,24,23,-30,6,64,-35,-60,-100,-48,-60
-49,-38,11,43,-30,-13,66,-34,-59,-100,-45,-56
-39,-38,1,39,-20,-18,65,-30,-56,-100,-57,-49
-20,-29,-8,25,-6,-18,63,-30,-53,-100,-58,-44
-30,-28,1,29,-15,-13,60,-28,-67,-92,-48,-39
-37,-25,12,31,-24,-6,59,-24,-76,-77,-44,-34
-40,-36,4,38,-22,-16,55,-26,-68,-74,-35,-29
-37,-40,-3,39,-17,-21,55,-23,-65,-75,-31,-24
-40,-49,-9,45,-15,-28,49,-28,-60,-70,-40,-21
-31,-48,-17,40,-7,-32,43,-43,-55,-68,-42,-14
-22,-41,-18,32,-2,-29,36,-36,-58,-63,-38,-20
-19,-34,-15,27,-1,-25,30,-24,-61,-60,-35,-23
-16,-28,-12,22,-1,-20,22,-20,-64,-64,-33,-20
-10,-20,-10,15,0,-15,18,-20,-67,-65,-29,-28
-10,-16,-6,13,-2,-11,6,-20,-70,-65,-34,-31
-18,-23,-5,21,-6,-14,0,-20,-70,-66,-48,-26
-37,-38,-1,38,-18,-20,37,-20,-73,-70,-50,-24
-48,-42,6,45,-27,-18,42,-24,-76,-75,-53,-41
-49,-36,13,42,-30,-11,18,-25,-74,-71,-55,-48
-49,-31,18,39,-33,-6,16,-26,-69,-65,-49,-37
-18,13,31,2,-25,22,30,-24,-64,-60,-40,-30
-18,56,74,-19,-47,65,53,-25,-60,-54,-32,-22
-28,60,88,-16,-59,74,52,-24,-55,-48,-23,-13
-13,91,104,-39,-59,97,28,-6,-51,-44,-18,-7
2,154,152,-78,-76,153,-3,-21,-50,-45,-12,2
27,148,122,-88,-48,135,-16,-39,-50,-45,-8,15
26,124,98,-76,-36,111,-30,-33,-49,-44,-6,31
22,135,113,-79,-46,124,-42,-36,-51,-47,18,48
17,98,81,-58,-32,89,-35,-34,-49,-41,12,42
-10,38,48,-14,-30,43,-45,-35,-64,-62,-24,21
-28,-2,26,15,-27,12,-14,-38,-75,-85,-39,12
-47,-26,21,36,-34,-3,15,-41,-85,-114,-69,5
-52,-68,-16,60,-18,-41,-9,-40,-73,-109,-64,5
-52,-84,-32,68,-10,-58,24,-45,-73,-117,-75,-5
-51,-76,-25,64,-13,-51,11,-46,-75,-123,-76,-5
-43,-84,-41,64,-1,-62,-2,-43,-76,-106,-72,-22
-68,-77,-8,73,-30,-42,86,19,-78,-165,-139,-65
-50,-52,-1,51,-24,-26,142,148,74,-63,-95,-76
55,127,73,-91,-9,100,112,327,520,513,298,132
284,216,-67,-250,175,74,-104,305,1032,1480,1039,569
252,-12,-264,-120,258,-138,-385,-483,38,831,742,499
-49,-314,-265,182,108,-289,-472,-1129,-1441,-986,-431,-20
-116,-490,-374,303,129,-432,-397,-838,-1315,-1243,-731,-244
-103,-334,-230,219,64,-282,-254,-440,-776,-769,-506,-222
-74,-124,-49,99,-12,-86,-95,-149,-357,-409,-270,-126
-33,-90,-56,62,12,-73,-20,1,-111,-173,-129,-68
-30,-68,-39,49,5,-53,-2,5,-85,-134,-100,-56
-15,-58,-43,37,14,-50,35,40,-22,-76,-61,-41
-17,-44,-27,31,6,-35,44,48,-31,-83,-68,-43
-10,-32,-22,22,7,-27,45,56,-7,-58,-54,-36
-21,-23,-2,22,-9,-12,45,55,-3,-54,-55,-34
-23,-12,11,18,-17,0,44,53,11,-43,-48,-30
-21,-9,12,15,-16,1,46,63,29,-32,-44,-26
-22,-4,18,12,-19,7,43,74,39,-39,-37,-20
-22,-3,19,13,-21,8,56,91,72,-7,-20,-14
-22,4,26,8,-24,15,67,111,95,20,-15,-9
-18,4,22,7,-21,13,62,124,131,58,21,26
12,25,13,-18,-1,18,59,163,184,113,62,41
49,52,3,-51,22,28,57,203,231,159,85,39
58,54,-4,-56,30,25,52,232,305,235,141,75
81,65,-16,-73,49,24,69,285,398,333,208,119
96,70,-26,-83,61,22,92,335,472,413,260,147
133,92,-41,-113,87,25,90,368,548,495,331,184
139,95,-44,-117,91,26,80,388,578,537,369,208
135,97,-38,-115,86,29,70,382,565,528,369,195
170,128,-42,-149,106,43,56,356,561,524,372,188
132,120,-12,-126,72,54,46,306,484,455,318,177
92,104,12,-98,40,57,43,241,360,336,235,133
45,90,45,-67,0,67,39,181,267,242,164,83
19,74,55,-46,-18,64,36,117,166,141,93,49
21,49,28,-35,-4,39,30,73,89,61,43,26
-35,15,50,10,-42,32,35,50,40,20,11,11
-46,-8,38,27,-42,15,46,37,7,-4,-6,4
-29,8,37,11,-33,22,45,31,-15,-37,-29,-2
-44,11,55,17,-50,33,45,26,-37,-61,-46,-9
-49,-25,24,37,-36,0,45,21,-41,-60,-45,-16
-45,-25,19,35,-31,-3,45,14,-39,-60,-45,-19
-45,-25,21,35,-32,-2,45,10,-44,-60,-45,-15
-45,-25,19,35,-31,-2,45,5,-45,-60,-45,-12
-46,-25,21,36,-33,-2,45,6,-45,-61,-44,-10
-43,-24,19,34,-31,-2,45,3,-51,-70,-40,-6
-58,-22,36,40,-47,7,45,0,-53,-72,-38,-6
-77,-39,38,58,-57,0,45,0,-50,-69,-35,0
-63,-35,28,49,-45,-3,45,-2,-47,-70,-32,2
-50,-26,23,38,-36,-1,45,-7,-45,-65,-30,-15
-37,-22,15,29,-26,-3,45,-10,-40,-65,-27,-15
-23,-13,10,18,-17,-1,45,12,-41,-64,-24,-10
-33,-11,21,22,-27,5,45,23,-50,-60,-21,-8
-53,-27,27,40,-40,0,47,15,-51,-61,-18,-3
-61,-42,19,51,-40,-11,50,14,-50,-57,-15,-1
-54,-38,16,45,-35,-11,50,9,-51,-55,-16,4
-57,-46,11,51,-34,-17,50,6,-49,-55,-25,5
-61,-56,6,58,-33,-25,50,3,-51,-55,-34,7
-62,-55,7,58,-34,-24,44,-2,-54,-55,-35,11
-64,-54,10,59,-37,-21,46,-8,-56,-55,-37,9
-59,-50,10,55,-34,-20,43,-11,-57,-55,-41,4
-61,-50,10,55,-35,-20,41,-16,-62,-56,-39,-1
-57,-48,9,53,-33,-19,39,-20,-57,-53,-35,-5
-55,-44,11,49,-32,-16,48,-14,-55,-50,-35,-10
-60,-46,14,52,-36,-16,76,-9,-67,-58,-47,-6
-60,-44,16,52,-37,-14,26,-4,-57,-58,-47,0
-59,-46,13,52,-36,-17,-4,2,-55,-50,-38,5
-40,-14,26,26,-33,6,40,9,-38,-46,-33,11
-30,42,72,-6,-51,56,72,7,-42,-37,-25,17
-49,44,93,2,-71,68,81,-2,-34,-29,-20,20
-38,70,109,-16,-74,90,68,-15,-46,-21,-25,19
-17,125,142,-54,-80,133,55,-30,-29,-13,-23,28
