I,II,III,aVR,aVL,aVF,V1,V2,V3,V4,V5,V6
-134,26,161,53,-147,93,-8,-25,-81,8,17,-46
-58,83,141,-13,-99,112,-6,-30,-38,25,27,-7
-37,109,145,-36,-92,127,-2,-22,-2,61,57,2
-7,105,112,-50,-60,108,-12,36,29,78,66,3
44,119,76,-82,-17,97,10,63,76,129,102,56
35,114,79,-75,-23,96,-36,80,116,160,117,86
66,126,60,-96,3,92,-28,135,170,199,154,93
75,116,40,-96,17,78,-1,137,183,219,162,95
92,128,36,-110,28,82,-5,131,214,252,194,134
130,150,20,-140,54,85,-9,140,232,263,223,150
126,152,25,-139,50,88,-28,126,182,226,180,140
90,142,52,-116,18,97,-24,101,117,177,144,114
21,104,83,-63,-31,93,-24,34,48,108,101,64
-9,103,113,-47,-61,108,-14,-23,-19,49,47,27
-51,73,124,-11,-88,98,-24,-53,-78,1,24,-26
-106,51,157,27,-132,104,-60,-108,-147,-65,1,-70
-122,54,176,34,-149,115,-54,-121,-169,-91,-37,-75
-76,52,128,12,-102,90,-49,-114,-164,-95,-65,-78
-70,62,132,4,-102,97,-51,-115,-165,-103,-66,-80
-113,35,147,39,-130,91,-49,-109,-159,-98,-64,-75
-87,35,122,26,-104,78,-51,-109,-159,-101,-67,-72
-116,35,150,40,-133,92,-49,-103,-153,-99,-63,-67
-143,27,170,57,-156,98,-50,-108,-162,-100,-68,-67
-107,31,138,38,-123,84,-46,-110,-164,-110,-49,-56
-108,14,122,47,-115,68,-39,-111,-159,-116,-53,-73
-118,37,155,40,-136,96,-36,-116,-151,-114,-82,-99
-134,43,177,45,-156,110,-40,-114,-152,-119,-76,-90
-135,16,152,59,-144,84,-40,-111,-171,-121,-72,-83
-91,40,131,25,-111,85,-42,-109,-170,-119,-70,-88
-133,38,171,47,-152,104,-47,-105,-166,-114,-64,-103
-172,8,180,81,-176,94,-42,-104,-164,-99,-57,-100
-108,62,169,22,-139,115,-56,-97,-167,-109,-57,-94
-106,75,181,15,-144,128,-62,-106,-171,-120,-61,-104
-112,46,158,33,-135,101,-49,-125,-173,-117,-59,-100
-101,57,157,22,-129,107,-48,-121,-176,-121,-60,-92
-96,38,134,29,-115,86,-51,-114,-167,-120,-60,-85
-77,45,122,16,-100,83,-54,-113,-163,-120,-60,-85
-99,51,150,24,-125,101,-57,-103,-151,-120,-65,-89
-161,-1,161,81,-161,80,-60,-114,-160,-120,-65,-91
-106,25,131,40,-119,78,-60,-140,-190,-120,-65,-89
-60,51,110,4,-86,81,-60,-140,-194,-120,-65,-85
-97,48,145,24,-121,97,-63,-137,-193,-123,-63,-85
-88,67,155,10,-122,110,-72,-135,-186,-128,-58,-85
-82,47,129,17,-106,87,-72,-132,-180,-129,-53,-84
-60,47,107,6,-83,76,-45,-129,-177,-125,-49,-77
-104,44,148,30,-126,96,-18,-126,-172,-122,-43,-71
-108,54,161,27,-135,107,-19,-124,-163,-113,-40,-68
-90,77,167,6,-128,122,-46,-120,-150,-109,-32,-63
-104,94,198,5,-151,145,-64,-114,-138,-93,-25,-53
-78,109,187,-16,-133,148,-61,-111,-132,-75,-3,-38
-69,133,203,-33,-136,168,-66,-106,-136,-74,24,-35
-24,152,176,-64,-101,164,-85,-100,-138,-66,23,-18
16,125,109,-71,-47,117,-81,-107,-141,-61,14,11
-17,94,111,-38,-64,102,-75,-117,-144,-40,12,19
-77,74,151,2,-114,112,-73,-110,-146,-56,-21,-19
-68,53,121,8,-95,86,-65,-104,-152,-91,-58,-56
-55,27,81,14,-68,54,-63,-113,-151,-85,-48,-57
-103,3,107,50,-105,55,-47,-134,-180,-117,-48,-76
-107,12,118,47,-112,65,-53,-134,-168,-102,-33,-66
-69,4,72,32,-71,38,-37,-121,-152,-95,-35,-66
-113,18,132,47,-123,75,-50,-126,-154,-87,-22,-47
-105,95,200,4,-153,148,-1,-16,43,114,129,54
278,295,18,-287,130,156,-59,138,562,839,835,617
909,537,-373,-723,641,82,-469,234,1069,1489,1372,1134
833,244,-589,-538,711,-173,-588,2,283,449,382,429
225,-101,-326,-62,275,-213,-278,-316,-661,-614,-437,-242
0,-48,-48,24,24,-48,-38,-143,-319,-273,-191,-126
-75,-43,32,59,-53,-5,1,-57,-127,-106,-83,-82
-75,3,78,36,-76,40,-4,-102,-145,-109,-56,-71
-132,-30,102,81,-117,36,0,-69,-103,-76,-49,-70
-157,-41,115,99,-136,37,-17,-88,-135,-100,-56,-72
-88,19,107,34,-98,63,-4,-70,-102,-71,-41,-60
-125,-15,110,70,-117,47,-2,-76,-120,-88,-51,-66
-112,9,121,52,-116,64,5,-69,-102,-70,-38,-53
-125,-2,124,63,-125,61,10,-68,-103,-76,-39,-58
-103,13,116,45,-109,65,2,-64,-94,-68,-29,-58
-92,32,125,30,-109,78,-2,-54,-87,-63,-27,-61
-122,0,122,61,-122,60,-22,-51,-82,-55,-19,-57
-102,13,115,44,-108,64,-6,-41,-72,-44,-15,-51
-48,54,102,-3,-75,78,27,-37,-62,-37,-8,-47
-75,50,125,12,-100,87,21,-31,-43,-24,2,-41
-69,34,103,18,-86,68,16,-26,-28,-13,9,-35
-7,55,62,-24,-35,58,11,-23,-7,-2,19,-30
-74,4,78,35,-76,40,4,-17,10,5,22,-24
-44,1,44,21,-44,22,2,1,40,26,36,-11
-10,50,60,-20,-35,55,4,36,69,70,53,5
-23,64,86,-21,-55,75,9,62,104,106,88,40
74,102,28,-88,23,65,11,82,146,130,116,67
99,95,-4,-96,51,45,16,117,197,179,138,79
101,115,14,-108,43,64,20,145,240,218,167,95
187,154,-33,-170,109,60,18,157,263,241,177,110
209,138,-71,-173,139,33,12,149,271,252,188,120
184,152,-32,-168,108,60,9,140,263,233,179,112
153,137,-17,-145,85,60,3,129,241,220,162,104
105,117,11,-111,46,64,0,89,167,174,141,86
25,81,57,-53,-16,69,-5,39,74,95,93,45
-33,40,74,-4,-54,57,-9,-16,5,41,49,4
-41,55,96,-7,-69,75,-14,-53,-44,-1,15,-28
-89,19,108,35,-99,64,-19,-73,-76,-31,-9,-47
-80,27,106,26,-93,66,-18,-92,-98,-56,-24,-56
-33,65,99,-16,-66,82,-13,-90,-99,-78,-36,-64
-68,23,91,22,-79,57,-10,-90,-101,-70,-48,-70
-102,-6,96,54,-99,45,-26,-90,-114,-68,-55,-70
-59,22,82,18,-70,52,-32,-89,-115,-64,-55,-70
-48,15,63,17,-56,39,-29,-93,-115,-61,-55,-70
-65,24,89,20,-77,56,-29,-95,-115,-56,-55,-70
-54,57,111,-2,-83,83,-24,-99,-115,-55,-55,-68
-60,38,99,11,-80,68,-26,-101,-114,-88,-55,-64
-64,38,103,13,-84,70,-22,-105,-110,-102,-51,-66
-61,33,94,14,-78,63,-20,-105,-111,-94,-46,-61
-76,21,97,27,-86,59,-20,-100,-108,-94,-44,-60
-43,41,84,1,-64,62,-20,-100,-105,-88,-39,-59
-35,18,52,8,-44,34,-20,-100,-105,-86,-36,-56
-100,-6,94,53,-97,44,-20,-100,-101,-82,-32,-53
-86,7,93,39,-90,50,-30,-100,-98,-76,-26,-50
-79,7,85,36,-82,46,-47,-103,-94,-72,-21,-48
-75,36,111,19,-93,73,-51,-105,-91,-66,-16,-44
-57,37,94,10,-76,65,-33,-106,-86,-65,-10,-51
-69,20,89,24,-79,54,-11,-111,-85,-54,-5,-56
-54,26,80,14,-67,53,1,-109,-102,-72,-25,-55
-76,-2,74,39,-75,36,-7,-106,-117,-103,-47,-53
-84,-16,68,50,-76,26,-16,-103,-114,-99,-44,-49
-50,10,60,20,-55,35,-24,-100,-111,-100,-42,-50
-10,45,55,-18,-33,50,-35,-97,-108,-100,-39,-54
-1,48,49,-23,-25,48,-38,-95,-105,-100,-34,-55
-46,30,76,8,-62,53,-49,-95,-104,-100,-28,-57
-70,27,97,22,-84,62,-56,-95,-99,-92,-20,-61
-72,15,88,28,-80,51,-50,-95,-94,-88,-16,-59
-44,41,85,1,-65,62,-48,-95,-90,-83,-5,-53
-40,42,82,-1,-61,61,-43,-95,-84,-76,-13,-47
-52,19,71,16,-62,45,-40,-95,-81,-72,-30,-42
-32,51,84,-10,-58,67,-46,-95,-75,-65,-19,-36
-18,88,107,-35,-63,97,-51,-95,-70,-62,-4,-31
-8,98,106,-46,-57,102,-53,-96,-65,-57,5,-22
-9,93,102,-43,-55,97,-55,-93,-59,-52,24,-16
18,124,106,-71,-44,115,-67,-106,-53,-49,46,-10
41,125,84,-84,-21,104,-77,-117,-50,-42,42,6
33,92,58,-63,-13,75,-82,-109,-65,-43,31,2
9,67,58,-38,-25,62,-75,-110,-54,-29,26,-8
-3,45,47,-21,-25,46,-54,-101,-73,-61,6,-35
-10,34,44,-12,-27,39,-49,-103,-115,-103,-12,-58
-48,-13,35,30,-42,11,-43,-101,-106,-99,-42,-66
-78,-16,62,47,-70,23,-34,-114,-114,-101,-46,-62
-81,-8,73,45,-77,32,-33,-112,-107,-99,-58,-74
-55,-15,41,35,-48,13,-17,-98,-102,-91,-40,-58
-85,37,121,24,-103,79,14,-66,-20,-8,29,-17
29,106,77,-67,-25,91,16,65,281,354,360,231
636,373,-263,-505,450,55,-229,240,922,1223,1179,945
1031,403,-627,-717,829,-112,-534,237,924,1151,997,898
563,15,-548,-289,555,-266,-460,-203,-283,-257,-180,-18
71,-104,-176,17,124,-140,-154,-308,-595,-582,-390,-248
-13,-56,-43,35,15,-49,62,-21,-117,-147,-112,-101
-34,-53,-18,44,-8,-35,50,-56,-97,-117,-71,-98
-52,-32,20,42,-36,-5,5,-73,-58,-78,-49,-76
-84,-25,59,54,-71,16,13,-62,-72,-95,-65,-84
-98,-34,64,66,-80,14,2,-67,-70,-90,-47,-77
-84,-30,54,57,-68,11,3,-50,-57,-87,-48,-76
-66,4,70,30,-68,37,1,-55,-68,-95,-42,-76
-58,-4,55,30,-56,25,23,-41,-46,-78,-36,-69
-70,-28,42,49,-56,7,32,-43,-41,-66,-35,-47
-34,-31,3,32,-19,-13,18,-39,-21,-50,-26,-34
-17,-12,5,14,-11,-3,13,-39,-21,-54,-22,-34
-66,-17,49,41,-57,16,14,-35,-8,-42,-15,-30
-40,-5,35,22,-37,14,15,-35,-3,-28,-9,-27
-39,-19,20,28,-29,1,17,-33,7,-16,-3,-26
-56,-26,31,40,-43,3,21,-18,27,-5,5,-21
7,17,10,-12,-2,13,20,-8,38,10,10,-7
23,-4,-26,-9,24,-15,16,4,70,33,28,7
39,18,-21,-29,30,-1,15,22,88,46,44,17
56,47,-9,-51,32,19,15,40,106,57,43,20
76,44,-32,-60,54,6,10,71,158,96,76,38
105,45,-60,-75,82,-8,10,90,187,119,90,50
131,60,-71,-96,101,-6,10,125,240,161,116,76
171,76,-95,-123,132,-9,10,159,288,204,151,105
171,54,-117,-113,144,-31,10,171,310,229,163,123
236,95,-141,-165,188,-23,10,200,346,265,185,145
258,104,-154,-181,206,-25,10,211,356,277,173,135
193,76,-117,-134,155,-20,10,198,338,257,166,126
200,106,-94,-153,147,6,7,151,274,197,151,121
155,82,-72,-118,113,5,3,90,202,139,109,106
63,30,-34,-46,48,-2,6,40,129,79,76,72
1,-14,-15,7,8,-14,-2,-15,66,28,44,22
-13,-20,-7,17,-2,-14,2,-47,26,-8,6,-4
-12,-7,5,9,-9,-1,-4,-53,-15,-46,-16,-3
-77,-41,36,59,-56,-3,-27,-71,-40,-74,-24,-5
-46,-6,40,26,-43,17,4,-80,-49,-91,-39,-20
-28,2,30,13,-30,16,17,-81,-49,-89,-46,-25
-73,-43,30,58,-52,-6,3,-89,-58,-91,-56,-41
-50,-28,22,39,-36,-3,1,-88,-40,-90,-41,-50
-41,-21,21,31,-31,0,-8,-84,-33,-90,-34,-38
-53,-50,3,51,-28,-23,-14,-78,-65,-111,-74,-60
-36,-48,-12,42,-11,-30,-12,-75,-47,-110,-77,-70
-10,-16,-5,13,-2,-10,-8,-69,-27,-91,-64,-57
-41,-40,1,40,-20,-20,-2,-66,-32,-86,-60,-54
-12,-5,8,8,-10,1,19,-68,-28,-79,-49,-45
3,17,14,-11,-6,16,27,-71,-31,-76,-47,-40
-73,-52,21,62,-47,-15,24,-69,-29,-71,-43,-33
-82,-42,40,62,-60,0,26,-71,-30,-66,-41,-29
-75,-41,35,58,-55,-3,25,-68,-30,-67,-37,-23
-71,-41,30,56,-50,-6,25,-45,-30,-72,-34,-16
-29,-6,23,17,-26,9,25,-67,-41,-75,-37,-21
-19,-30,-11,25,-4,-21,24,-90,-46,-74,-44,-26
-14,-43,-29,29,8,-36,8,-78,-45,-76,-50,-25
-41,-57,-16,50,-12,-36,2,-80,-49,-74,-50,-23
-95,-73,23,84,-59,-25,9,-72,-51,-77,-50,-30
-59,-66,-7,63,-26,-36,10,-70,-49,-94,-49,-28
-26,-49,-23,38,-1,-36,10,-85,-65,-96,-54,-31
-57,-22,34,39,-45,6,10,-92,-85,-94,-65,-54
-82,-67,15,74,-48,-26,10,-89,-85,-95,-64,-56
-39,-61,-22,50,-8,-41,10,-87,-84,-95,-66,-54
-53,-57,-5,55,-24,-31,10,-84,-81,-95,-70,-52
-74,-55,19,64,-46,-18,10,-86,-80,-88,-71,-49
-45,-27,18,36,-31,-4,10,-91,-79,-83,-68,-53
-55,-69,-14,62,-20,-41,9,-91,-72,-77,-58,-54
-18,-27,-9,23,-5,-18,11,-90,-67,-71,-51,-56
-66,-32,34,49,-50,0,9,-89,-61,-66,-42,-44
-30,0,29,15,-30,14,27,-85,-56,-61,-37,-22
24,38,15,-31,4,26,15,-84,-52,-60,-27,-14
-38,0,38,19,-38,19,-20,-89,-49,-55,-18,-11
50,77,27,-63,11,52,-25,-89,-51,-55,-7,-5
75,71,-4,-72,39,33,-35,-96,-49,-48,-5,3
39,11,-28,-25,34,-9,-41,-119,-50,-52,-25,8
64,17,-47,-40,56,-15,-42,-121,-51,-55,-24,15
9,-18,-27,5,18,-23,-5,-118,-47,-58,-43,-2
-34,-79,-45,57,6,-62,20,-118,-66,-78,-60,-33
-61,-106,-44,84,-8,-75,11,-112,-74,-83,-65,-58
-82,-80,2,81,-42,-38,10,-120,-79,-79,-56,-49
-57,-75,-19,66,-19,-47,7,-116,-58,-60,-44,-39
-87,-117,-30,102,-28,-73,2,-126,-69,-70,-47,-44
-93,-50,43,71,-68,-3,37,-81,-18,-15,-2,-8
16,25,9,-20,3,17,65,39,258,324,309,224
545,246,-299,-396,422,-26,-166,193,862,1191,1158,960
970,319,-651,-644,810,-166,-400,201,922,1217,1055,976
532,-32,-564,-250,548,-298,-374,-227,-232,-203,-182,9
83,-125,-209,21,146,-167,-144,-342,-616,-610,-436,-244
-27,-110,-83,69,29,-97,98,-26,-128,-157,-150,-93
-47,-112,-65,80,9,-88,63,-41,-89,-120,-113,-76
-45,-86,-41,66,-2,-63,37,-107,-66,-70,-59,-40
-95,-127,-32,111,-31,-79,69,-95,-61,-78,-80,-66
-80,-102,-22,91,-29,-62,45,-104,-62,-73,-84,-46
-98,-114,-15,106,-41,-64,45,-91,-46,-65,-85,-49
-68,-85,-17,76,-25,-51,31,-98,-55,-71,-76,-41
-81,-102,-21,92,-30,-62,23,-92,-38,-59,-69,-33
-129,-141,-12,135,-58,-77,20,-90,-44,-63,-72,-33
-47,-82,-35,65,-6,-58,41,-85,-31,-46,-69,-32
-49,-94,-46,72,-1,-70,48,-81,-30,-45,-71,-38
-113,-140,-27,127,-43,-84,43,-75,-24,-33,-70,-31
-66,-104,-38,86,-14,-71,47,-66,-17,-28,-59,-27
-50,-73,-23,62,-13,-48,43,-62,-14,-18,-34,-18
-52,-85,-33,69,-9,-59,46,-52,-4,-6,-34,-13
-68,-112,-44,90,-11,-78,41,-53,6,0,-42,-6
-61,-97,-36,79,-13,-66,38,-59,25,20,-27,1
39,-48,-86,5,63,-67,35,-36,50,33,0,8
26,-67,-93,21,59,-80,30,-11,69,53,23,29
-9,-90,-81,50,36,-85,28,-7,101,80,28,32
40,-43,-83,2,62,-63,21,37,154,126,66,59
87,-34,-121,-26,104,-77,40,78,197,178,111,95
109,-39,-148,-35,129,-93,60,90,226,204,122,108
132,4,-128,-68,130,-62,45,129,255,229,152,141
126,-16,-142,-54,134,-79,31,148,268,240,153,143
161,1,-160,-81,161,-80,28,143,269,238,141,131
162,4,-158,-83,160,-77,30,126,255,227,142,131
110,-28,-139,-41,125,-83,30,66,213,192,129,120
128,5,-123,-67,125,-58,30,8,141,127,107,103
76,-4,-80,-36,78,-42,30,-20,66,70,44,64
-4,-38,-35,21,16,-36,29,-66,0,16,-5,22
-26,-61,-35,44,5,-48,24,-109,-49,-42,-31,3
-31,-67,-35,49,2,-50,27,-119,-78,-69,-57,-3
-68,-99,-30,84,-19,-64,16,-125,-101,-84,-64,-25
-86,-116,-30,101,-28,-73,1,-150,-121,-105,-90,-64
-69,-92,-23,81,-23,-58,18,-166,-136,-118,-104,-78
-102,-123,-21,112,-40,-72,28,-167,-135,-118,-103,-80
-100,-122,-22,111,-39,-71,23,-161,-135,-115,-106,-85
-98,-108,-10,103,-44,-58,26,-150,-135,-115,-104,-81
-94,-121,-27,107,-33,-74,40,-151,-135,-115,-106,-79
-92,-107,-16,100,-38,-61,44,-149,-132,-115,-104,-81
-87,-96,-9,92,-39,-52,32,-143,-127,-115,-106,-85
-49,-71,-22,60,-13,-46,28,-135,-125,-110,-98,-79
-102,-97,6,99,-54,-45,21,-125,-120,-102,-82,-62
-96,-106,-10,101,-43,-57,-11,-116,-117,-94,-73,-53
-76,-72,4,74,-40,-33,-26,-104,-113,-87,-75,-55
-86,-91,-5,89,-40,-48,-10,-96,-110,-78,-75,-55
-95,-99,-4,97,-45,-51,-4,-88,-110,-75,-75,-55
-97,-98,0,97,-48,-49,9,-86,-110,-69,-75,-55
-75,-86,-11,81,-32,-49,27,-92,-110,-71,-75,-55
-78,-74,4,76,-40,-35,12,-97,-109,-96,-79,-59
-78,-106,-28,93,-25,-67,-8,-104,-118,-102,-80,-60
-103,-107,-4,105,-49,-55,-1,-101,-134,-98,-80,-60
-70,-80,-10,75,-30,-45,5,-95,-137,-101,-80,-59
-79,-108,-29,93,-24,-68,-18,-87,-141,-99,-81,-62
-86,-110,-25,98,-30,-67,-37,-82,-148,-100,-85,-65
-63,-94,-31,79,-16,-62,-34,-72,-146,-115,-85,-65
-63,-100,-37,82,-13,-68,-36,-73,-142,-117,-87,-67
-61,-94,-33,78,-14,-63,-34,-106,-135,-105,-91,-71
-80,-109,-30,95,-25,-69,-36,-112,-135,-104,-90,-71
-91,-134,-44,113,-23,-89,-28,-107,-125,-90,-87,-66
-96,-109,-14,103,-40,-62,10,-105,-131,-99,-79,-62
-102,-125,-23,114,-40,-74,16,-97,-151,-125,-72,-51
-88,-114,-26,101,-31,-70,-9,-98,-135,-112,-67,-54
-40,-40,0,40,-20,-20,-33,-89,-128,-106,-58,-35
-60,-53,7,56,-33,-23,-38,-87,-131,-115,-73,-33
-69,-27,42,48,-55,7,-16,-77,-126,-98,-47,-35
-49,-7,41,28,-45,17,-21,-78,-119,-93,-18,-7
-11,7,18,2,-15,12,-63,-114,-116,-68,-41,-9
38,21,-16,-29,27,3,-90,-108,-120,-56,-43,13
7,-42,-49,18,29,-45,-72,-106,-128,-82,-29,13
-33,-71,-37,52,2,-54,-26,-110,-127,-68,-21,-26
-70,-108,-38,89,-16,-73,-30,-112,-144,-116,-68,-68
-61,-97,-36,79,-13,-66,-51,-118,-142,-135,-82,-81
-61,-100,-39,81,-10,-69,-7,-114,-131,-126,-68,-79
-111,-143,-32,127,-39,-87,1,-129,-135,-142,-66,-83
-105,-135,-30,120,-37,-83,15,-101,-108,-125,-53,-84
-132,-121,10,127,-71,-55,6,-109,-135,-122,-61,-91
-128,-63,65,95,-97,1,31,-9,11,56,56,8
227,149,-77,-188,152,36,-17,157,512,741,754,569
852,425,-427,-638,639,-1,-419,272,1084,1501,1430,1182
860,176,-683,-518,772,-253,-562,91,470,656,556,589
284,-193,-477,-45,381,-335,-276,-261,-585,-582,-439,-222
-3,-181,-177,92,87,-179,6,-118,-355,-340,-246,-156
-88,-174,-86,131,-1,-130,83,0,-103,-122,-116,-93
-109,-147,-39,128,-35,-92,25,-53,-130,-160,-114,-101
-76,-118,-42,97,-17,-80,35,-55,-94,-111,-86,-89
-112,-144,-32,128,-40,-88,19,-88,-146,-141,-111,-108
-103,-138,-35,121,-34,-86,13,-66,-110,-104,-90,-91
-96,-132,-35,114,-30,-83,2,-72,-116,-113,-89,-96
-105,-144,-39,125,-33,-91,15,-63,-94,-93,-73,-81
-96,-130,-34,113,-31,-81,61,-65,-101,-106,-86,-83
-88,-121,-32,105,-28,-76,46,-65,-100,-111,-83,-77
-69,-118,-49,94,-10,-83,44,-58,-90,-98,-79,-75
-115,-138,-23,127,-46,-80,45,-57,-86,-90,-77,-75
-77,-102,-25,90,-26,-63,45,-44,-65,-75,-65,-70
-71,-91,-20,81,-25,-56,46,-35,-57,-69,-60,-70
-84,-110,-26,98,-29,-68,44,-26,-41,-55,-50,-70
-70,-98,-28,85,-21,-63,45,-11,-21,-41,-38,-69
-73,-103,-30,88,-21,-66,18,-5,11,-32,-28,-55
-23,-61,-38,42,8,-49,33,17,42,-14,-12,-28
-40,-90,-50,65,5,-70,72,50,42,1,-3,-3
67,-34,-101,-16,84,-67,70,76,82,51,31,14
24,-47,-71,11,48,-58,69,104,113,100,55,33
7,-53,-60,23,33,-56,65,131,149,123,79,67
114,13,-101,-63,107,-43,62,176,208,178,125,76
95,-1,-96,-46,95,-49,61,204,235,211,140,86
164,45,-119,-104,142,-37,49,245,292,259,183,148
144,9,-135,-77,139,-63,27,272,310,294,204,169
161,34,-127,-97,144,-47,12,242,294,267,185,149
151,45,-106,-98,128,-30,3,203,254,228,173,147
97,4,-93,-50,94,-44,-13,155,168,157,122,92
106,-2,-108,-52,107,-54,-3,95,87,87,60,37
-1,-40,-39,21,19,-39,19,75,34,35,35,16
-39,-26,13,33,-26,-7,18,52,-2,-23,10,-13
-34,-55,-20,45,-7,-37,-4,21,-57,-54,-34,-16
-28,-51,-23,40,-3,-37,-18,20,-89,-70,-64,-55
-28,-47,-20,38,-4,-33,-12,5,-92,-78,-82,-86
-74,-103,-29,89,-23,-65,12,-35,-115,-110,-93,-77
-46,-70,-25,58,-10,-47,18,-37,-118,-126,-85,-77
-56,-65,-10,61,-23,-37,2,-18,-107,-114,-67,-65
-57,-73,-17,65,-20,-45,26,-21,-107,-117,-74,-63
-53,-61,-8,57,-22,-35,38,-10,-96,-110,-88,-52
-94,-95,-1,94,-46,-48,23,-13,-98,-110,-91,-53
-92,-92,0,92,-46,-46,25,3,-113,-110,-89,-85
-112,-94,18,103,-65,-38,10,18,-116,-110,-91,-92
-74,-67,8,70,-41,-29,-5,-2,-116,-109,-88,-88
-55,-54,1,55,-28,-26,3,26,-120,-104,-85,-83
-73,-63,10,68,-41,-26,-5,35,-126,-101,-80,-79
-40,-32,8,36,-23,-12,3,20,-112,-98,-78,-81
-43,-45,-2,44,-21,-23,26,18,-111,-94,-74,-79
-47,-51,-3,49,-22,-27,9,4,-121,-89,-69,-72
-63,-59,4,61,-33,-27,-12,17,-121,-95,-75,-71
-44,-47,-2,46,-21,-24,-27,35,-118,-92,-73,-68
-49,-55,-6,52,-21,-31,-33,36,-125,-105,-84,-77
-69,-65,4,67,-36,-30,-8,33,-134,-113,-88,-84
-68,-67,1,67,-34,-33,3,30,-116,-101,-79,-63
-87,-81,5,84,-46,-38,-19,27,-112,-105,-85,-56
-37,-35,2,36,-19,-16,-26,24,-105,-99,-78,-49
-42,-50,-8,46,-17,-29,-20,22,-103,-93,-74,-42
-45,-47,-1,46,-22,-23,-15,19,-128,-92,-72,-36
-34,-31,3,33,-18,-14,-10,16,-128,-81,-61,-30
-95,-87,8,91,-52,-39,-2,13,-120,-99,-79,-70
-48,-48,0,48,-23,-24,-3,10,-119,-114,-94,-88
-35,-36,-1,36,-16,-19,-24,11,-111,-94,-80,-72
-79,-68,11,74,-45,-28,-21,20,-112,-89,-80,-68
-50,-30,21,40,-35,-4,-10,31,-122,-86,-81,-63
-73,-45,29,59,-51,-8,-7,31,-112,-81,-67,-58
-26,13,39,6,-32,26,-2,24,-100,-80,-53,-55
36,70,34,-53,1,52,-2,20,-98,-63,-45,-48
-1,48,48,-24,-25,48,-22,14,-93,-48,-41,-37
-24,73,97,-25,-61,84,-55,9,-91,-51,-28,-34
9,87,78,-48,-35,82,-54,5,-86,-49,-16,-29
63,68,5,-65,28,36,-39,15,-84,-50,-29,-25
67,19,-48,-43,58,-15,-24,25,-95,-51,-36,-10
28,13,-15,-20,22,-1,-15,30,-96,-48,-48,-12
-64,-31,33,48,-49,1,-1,31,-113,-77,-56,-50
-77,-53,24,65,-50,-14,0,28,-120,-85,-53,-61
-53,-31,22,42,-37,-5,16,33,-120,-92,-74,-56
-76,-49,27,63,-51,-11,16,25,-121,-93,-76,-49
-55,-36,19,45,-37,-8,-18,36,-117,-88,-95,-50
-74,-3,71,38,-73,34,8,27,-110,-69,-43,-36
-81,43,123,19,-102,83,73,104,59,103,91,33
291,258,-33,-275,162,112,-45,270,568,809,774,588
939,532,-407,-735,673,62,-435,378,1125,1545,1409,1163
912,261,-651,-586,781,-195,-539,170,415,577,459,506
282,-136,-418,-73,350,-277,-266,-164,-594,-578,-443,-230
18,-112,-130,47,74,-121,7,2,-301,-284,-222,-149
22,-41,-64,10,43,-52,94,128,-75,-97,-106,-86
-50,-56,-7,53,-21,-31,35,46,-126,-99,-88,-73
-30,-15,16,22,-23,0,43,71,-78,-57,-73,-65
3,10,8,-7,-3,9,40,49,-108,-90,-87,-75
-66,-32,35,49,-50,2,39,58,-78,-59,-74,-65
-104,-34,70,69,-87,18,41,49,-90,-78,-86,-75
-79,-42,37,60,-58,-2,40,51,-76,-65,-76,-64
-38,-37,0,37,-19,-18,61,78,-76,-66,-76,-63
-104,-69,35,86,-69,-17,59,79,-72,-54,-63,-52
-109,-49,61,79,-85,6,60,83,-63,-47,-58,-49
-12,27,39,-8,-25,32,56,85,-57,-43,-55,-40
-52,-21,31,36,-42,5,54,86,-42,-34,-51,-36
-52,-34,18,43,-35,-8,57,93,-32,-32,-50,-46
-19,-12,7,15,-13,-3,59,100,-14,-17,-41,-44
-62,-23,39,43,-50,8,61,110,-7,-8,-29,-41
-71,-16,55,44,-63,19,60,120,19,15,-16,-36
-18,17,35,0,-26,26,60,129,42,32,-17,-37
23,56,33,-39,-5,44,60,147,59,45,11,-9
22,47,25,-35,-1,35,56,160,91,70,41,21
30,36,6,-33,11,21,49,197,138,108,57,37
79,75,-4,-77,41,35,42,230,188,151,85,71
120,88,-32,-104,76,28,37,254,220,183,109,84
120,89,-31,-104,75,28,27,291,261,216,138,102
189,126,-63,-158,126,31,30,305,289,248,147,127
213,111,-102,-162,157,5,46,312,307,257,138,130
178,105,-73,-141,125,16,45,311,296,249,130,119
156,106,-50,-131,103,27,40,279,247,229,121,102
121,92,-29,-106,75,31,38,226,201,174,101,84
79,74,-5,-76,41,34,33,169,123,108,67,51
-10,8,18,1,-14,13,31,117,43,48,17,22
-26,12,38,6,-32,25,28,81,-7,4,-18,3
-2,44,46,-21,-25,45,26,64,-47,-34,-38,-18
-7,35,42,-14,-25,38,22,55,-71,-63,-52,-33
-35,0,35,17,-35,17,20,49,-80,-74,-46,-41
-55,-19,36,37,-45,8,18,43,-88,-81,-55,-49
-38,-17,22,27,-30,3,14,35,-91,-79,-61,-55
-72,-31,41,51,-56,5,16,30,-87,-83,-60,-57
-72,-9,62,40,-67,26,14,36,-85,-85,-59,-61
-40,12,52,14,-46,32,15,41,-81,-85,-68,-64
-115,-49,66,82,-90,8,15,48,-79,-81,-87,-63
-100,-35,65,67,-82,15,10,48,-84,-75,-85,-58
-23,35,58,-6,-41,47,32,44,-85,-70,-82,-55
-70,-10,60,39,-65,25,42,45,-85,-65,-79,-51
-65,-13,52,38,-58,19,31,45,-85,-56,-76,-47
-55,4,59,25,-57,31,27,45,-85,-63,-75,-44
-59,16,75,21,-67,45,19,45,-85,-82,-70,-40
-48,26,74,11,-62,50,13,40,-85,-76,-65,-41
-69,1,70,34,-69,35,8,40,-85,-73,-60,-39
-90,-22,68,55,-78,23,0,39,-85,-70,-57,-47
-89,-24,65,56,-77,20,-4,35,-85,-65,-50,-57
-63,0,63,31,-63,31,-1,35,-85,-64,-58,-51
-23,34,57,-6,-41,46,11,33,-81,-58,-72,-48
-18,34,52,-8,-36,43,3,27,-80,-77,-69,-45
-57,-8,49,33,-53,20,4,22,-80,-96,-70,-40
-32,12,43,10,-37,27,26,19,-75,-94,-70,-43
-59,-18,40,39,-49,11,20,13,-75,-95,-67,-52
-80,-31,49,55,-64,9,12,10,-76,-95,-63,-56
-46,23,69,11,-58,46,6,16,-82,-95,-59,-55
-65,16,81,24,-73,48,-4,23,-89,-93,-57,-55
-61,9,70,26,-65,39,-8,29,-90,-86,-50,-55
-64,6,70,28,-67,38,-5,36,-91,-82,-54,-55
-15,39,54,-12,-35,46,3,38,-90,-76,-54,-49
1,50,49,-26,-24,49,5,32,-90,-70,-57,-43
-40,36,76,1,-58,56,13,29,-89,-65,-65,-39
-25,49,73,-12,-49,61,18,23,-73,-60,-49,-32
-24,66,90,-21,-57,78,17,21,-61,-57,-38,-29
-1,106,107,-53,-54,106,4,38,-58,-54,-28,-20
12,107,95,-59,-42,100,-41,40,-53,-55,-22,-10
28,120,93,-74,-33,106,-61,33,-52,-55,-24,9
38,124,85,-81,-24,104,-46,33,-44,-54,-29,18
0,84,85,-43,-43,84,-37,26,-49,-57,-33,-7
-13,73,85,-30,-49,79,-23,26,-49,-52,-34,-22
-30,46,76,-8,-53,61,-14,30,-66,-70,-55,-33
-55,22,77,16,-66,49,-15,29,-80,-82,-65,-48
-48,18,66,15,-57,42,-7,34,-77,-85,-78,-65
-46,23,70,11,-58,46,-8,31,-72,-74,-70,-46
-80,-25,54,52,-67,14,0,41,-60,-69,-88,-52
-76,3,79,36,-77,41,17,26,-68,-70,-55,-39
-73,90,163,-9,-118,126,71,90,52,50,49,12
191,200,8,-196,91,104,28,244,487,627,592,445
860,465,-395,-662,627,34,-319,404,1109,1418,1288,1091
954,296,-657,-625,805,-180,-532,227,570,690,553,583
332,-66,-398,-133,365,-232,-337,-211,-559,-568,-431,-208
3,-64,-67,31,35,-65,-44,-79,-392,-395,-293,-169
-40,-65,-25,52,-7,-45,89,130,-70,-126,-132,-88
-78,-28,50,53,-63,11,68,58,-87,-133,-103,-71
-78,-7,72,42,-75,32,67,73,-34,-73,-81,-71
-82,-13,69,47,-76,28,59,52,-72,-94,-98,-85
-47,48,95,-1,-71,71,50,54,-51,-65,-83,-78
-71,9,80,31,-76,44,46,41,-70,-73,-96,-94
-83,-1,82,42,-83,40,35,46,-57,-58,-80,-81
-47,27,74,10,-60,50,32,85,-21,-55,-65,-57
-42,29,71,6,-57,50,19,84,-10,-49,-58,-37
-59,11,70,24,-64,40,40,86,-10,-39,-60,-37
-100,-30,70,65,-84,20,62,85,-10,-36,-64,-29
-64,6,70,29,-67,38,59,84,-12,-26,-65,-40
-75,-5,70,40,-72,32,60,88,2,-21,-62,-49
-77,-7,69,42,-73,31,56,108,44,-11,-48,-36
-14,43,57,-15,-36,50,54,113,55,-4,-38,-31
9,57,47,-33,-19,52,57,116,54,9,-25,-22
0,33,33,-17,-17,33,60,130,62,23,-11,-13
3,34,31,-18,-14,32,60,145,95,50,5,-1
16,45,29,-31,-6,37,62,164,129,76,22,15
-17,13,29,2,-23,21,66,180,155,92,27,20
82,84,2,-83,40,43,65,217,195,128,61,48
155,112,-43,-133,98,34,61,250,252,171,83,73
136,86,-50,-111,93,18,55,276,296,210,108,91
175,94,-81,-134,127,6,49,306,329,230,147,125
172,77,-95,-124,133,-9,45,309,338,241,143,125
177,76,-102,-126,139,-13,37,294,321,266,155,114
179,92,-87,-135,133,3,38,262,303,239,143,111
145,117,-28,-131,86,44,51,212,242,168,92,88
104,98,-6,-101,55,46,42,172,163,124,48,55
14,46,32,-30,-9,39,31,123,97,63,3,32
-17,53,70,-18,-43,61,36,73,39,13,-14,20
-18,59,77,-21,-48,68,37,54,-8,-18,-37,-6
-83,-11,73,46,-78,31,41,48,-33,-69,-88,-44
-61,16,77,22,-69,46,54,59,-45,-80,-97,-57
-60,12,72,23,-66,42,45,50,-54,-83,-93,-54
-86,-27,59,56,-72,16,39,33,-55,-91,-98,-55
-35,30,65,2,-50,47,49,33,-61,-84,-90,-66
-90,-31,59,60,-74,13,48,27,-66,-81,-102,-71
-90,-27,63,58,-76,18,42,26,-64,-75,-105,-70
-16,48,64,-17,-40,56,38,19,-66,-73,-89,-68
-81,0,81,40,-81,40,34,27,-64,-64,-90,-64
-107,-12,94,59,-101,41,28,47,-66,-73,-90,-66
-116,-30,87,73,-101,28,26,43,-61,-86,-85,-61
-108,-15,93,62,-101,39,16,40,-55,-85,-86,-54
-73,20,92,26,-83,56,12,37,-50,-83,-83,-47
-125,-19,106,72,-116,44,-5,32,-45,-80,-78,-41
-81,17,99,32,-90,58,12,30,-39,-77,-72,-33
-46,40,86,3,-66,63,54,25,-34,-74,-68,-31
-69,1,69,33,-69,35,33,20,-55,-72,-61,-51
-78,-20,58,49,-68,18,35,15,-68,-67,-55,-56
-113,-37,76,74,-94,19,38,13,-63,-81,-81,-48
-66,-10,56,38,-61,23,23,4,-66,-93,-93,-48
-76,-5,72,40,-74,33,20,14,-64,-85,-88,-41
-103,-23,80,63,-92,28,9,40,-65,-85,-89,-40
-84,-21,63,52,-73,21,-5,34,-82,-80,-82,-65
-103,-32,72,67,-87,20,-12,23,-92,-80,-89,-76
-83,-20,63,51,-73,21,-9,18,-82,-100,-82,-61
-102,-40,62,71,-82,10,-7,4,-84,-104,-79,-61
-99,-46,53,72,-76,3,-5,-3,-76,-95,-65,-49
-75,-25,50,50,-62,12,-2,-21,-76,-91,-65,-47
-84,-40,44,61,-63,2,6,-17,-87,-84,-95,-64
-66,-21,45,43,-55,12,14,12,-56,-80,-60,-31
-69,19,87,25,-78,53,9,24,-50,-69,-59,-23
-37,71,108,-17,-73,90,0,44,-52,-47,-66,-46
10,91,81,-51,-36,86,-4,41,-37,-53,-44,-30
30,94,65,-62,-18,79,-18,28,-41,-57,-55,1
8,95,88,-52,-41,91,-29,28,-34,-39,-44,9
-6,62,67,-29,-37,65,-41,21,-33,-37,-47,1
-33,21,54,6,-43,37,-54,14,-29,-20,-40,-2
-56,7,63,24,-60,35,-37,8,-34,-36,-38,-37
-67,-16,51,41,-59,18,-25,0,-77,-94,-82,-62
-109,-48,61,78,-84,6,-18,-9,-87,-95,-103,-55
-110,-63,47,86,-78,-8,-10,-12,-94,-95,-100,-51
-90,-33,57,61,-73,12,-8,-13,-94,-95,-97,-40
-64,-50,15,57,-39,-18,4,1,-80,-93,-105,-39
-100,-51,49,75,-74,-1,6,6,-59,-61,-54,-28
-92,36,128,28,-110,82,49,89,107,125,96,49
250,162,-89,-206,169,36,-67,233,597,810,790,626
849,381,-468,-615,658,-43,-349,342,1086,1424,1292,1122
753,169,-584,-461,668,-207,-430,73,304,412,313,401
141,-128,-270,-6,205,-199,-288,-286,-659,-664,-506,-271
-31,-105,-74,68,21,-89,-3,-44,-301,-328,-263,-161
-79,-132,-53,106,-12,-92,125,113,-48,-104,-123,-107
-118,-102,15,110,-66,-43,52,26,-92,-101,-117,-97
-136,-91,45,113,-90,-23,37,35,-47,-77,-96,-90
-148,-83,64,115,-106,-9,34,18,-72,-110,-96,-92
-100,-53,47,76,-73,-3,36,34,-44,-74,-82,-81
-111,-71,40,91,-75,-16,35,29,-55,-88,-92,-89
-120,-87,34,103,-77,-26,35,36,-41,-73,-87,-80
-121,-73,48,97,-85,-12,35,35,-41,-73,-82,-76
-106,-58,48,82,-77,-5,28,27,-36,-64,-72,-64
-118,-78,40,98,-78,-19,24,25,-30,-57,-66,-61
-135,-96,39,115,-87,-28,19,17,-21,-49,-59,-59
-113,-82,31,97,-72,-25,16,18,-12,-40,-55,-61
-107,-78,29,92,-68,-24,9,6,-3,-32,-47,-57
-64,-70,-6,67,-29,-38,21,34,30,-23,-46,-52
-36,-56,-20,47,-8,-38,33,75,55,-13,-39,-43
-49,-56,-7,53,-20,-32,26,80,59,24,-37,-43
-67,-55,12,61,-39,-21,25,84,51,55,-28,-30
-60,-65,-5,62,-27,-35,20,97,92,64,15,17
4,-56,-60,26,32,-58,17,105,120,68,26,42
5,-41,-45,18,25,-43,13,138,160,115,48,56
27,-9,-36,-9,31,-22,10,168,207,151,73,60
63,-14,-77,-25,70,-45,8,191,239,190,106,93
74,-5,-79,-34,77,-42,4,231,295,246,156,140
113,3,-110,-58,112,-53,3,225,292,258,153,140
143,3,-140,-73,141,-68,-3,223,300,269,162,152
140,20,-120,-80,130,-50,10,235,305,260,162,153
103,-19,-121,-42,112,-70,-5,198,264,213,119,105
94,2,-92,-47,93,-45,-34,159,206,163,87,73
4,-10,-14,3,9,-12,-25,117,129,103,58,45
-58,-54,4,56,-31,-25,-23,61,70,46,21,3
-50,-39,11,44,-30,-14,-18,17,1,-3,-15,-1
-127,-71,55,99,-91,-8,-13,-20,-40,-44,-47,-26
-148,-101,47,124,-98,-26,-10,-31,-54,-64,-66,-69
-161,-115,46,137,-103,-34,-3,-30,-75,-71,-78,-67
-123,-79,44,101,-83,-18,-4,-27,-84,-102,-95,-96
-79,-68,11,74,-45,-28,17,-23,-81,-131,-91,-125
-150,-105,45,128,-97,-30,4,-39,-92,-132,-105,-122
-136,-75,61,105,-98,-6,-34,-52,-108,-124,-122,-117
-139,-100,40,119,-89,-30,-22,-49,-99,-111,-109,-102
-164,-99,65,131,-114,-17,9,-47,-96,-115,-107,-99
-126,-84,43,105,-84,-21,29,-40,-90,-116,-100,-95
-120,-80,39,100,-79,-20,24,-35,-84,-102,-94,-89
-111,-60,51,85,-81,-4,20,-29,-79,-88,-89,-83
-115,-84,31,100,-73,-27,20,-23,-74,-84,-84,-72
-110,-64,46,87,-78,-9,-8,-18,-71,-86,-81,-63
-117,-83,34,100,-75,-25,-6,-11,-67,-85,-83,-64
-107,-68,39,88,-73,-14,-4,-8,-63,-86,-84,-65
-81,-37,43,59,-62,3,-29,2,-60,-90,-80,-66
-103,-57,47,79,-75,-5,-23,-23,-58,-91,-79,-70
-101,-70,31,85,-66,-19,-21,-61,-51,-96,-87,-70
-112,-97,14,104,-63,-41,-18,-59,-80,-92,-97,-72
-65,-34,31,50,-48,-1,3,-60,-100,-83,-95,-77
-63,-32,31,47,-46,-1,9,-60,-89,-73,-94,-79
-102,-79,22,90,-62,-28,-10,-60,-90,-60,-96,-75
-104,-80,23,92,-63,-29,-22,-59,-83,-94,-93,-75
-157,-88,69,122,-112,-10,-18,-53,-81,-112,-90,-74
-142,-70,71,106,-106,0,-11,-47,-77,-98,-90,-69
-111,-89,22,100,-66,-33,-4,-42,-72,-98,-87,-71
-109,-86,23,97,-66,-31,1,-36,-84,-94,-84,-70
-106,-67,39,87,-73,-14,12,-30,-82,-91,-81,-70
-115,-73,42,94,-78,-15,-11,-47,-73,-88,-78,-70
-147,-58,90,102,-118,16,-37,-57,-68,-85,-71,-63
-108,-20,88,64,-97,33,-35,-57,-60,-83,-62,-52
-69,-19,50,44,-59,15,-29,-61,-56,-77,-56,-39
-62,15,78,23,-70,46,-33,-64,-50,-62,-43,-28
2,83,81,-43,-40,82,-56,-65,-51,-66,-41,-18
11,59,48,-35,-19,53,-63,-60,-50,-67,-33,-24
5,8,4,-6,0,6,-58,-60,-50,-65,-34,-43
-7,1,8,3,-7,4,-56,-59,-51,-59,-25,-22
-52,-23,29,38,-40,3,-56,-54,-50,-54,-24,-33
-103,-83,19,93,-60,-32,-52,-55,-89,-98,-64,-70
-105,-91,13,98,-59,-39,-49,-58,-114,-118,-83,-77
-107,-96,11,102,-58,-42,-29,-59,-112,-117,-74,-74
-122,-99,24,110,-73,-37,-30,-63,-102,-117,-62,-65
-122,-106,16,114,-69,-45,5,-56,-99,-126,-74,-73
-160,-89,72,124,-116,-8,21,-32,-51,-63,-24,-43
-95,3,99,46,-97,51,43,55,147,167,163,78
342,241,-100,-291,221,70,-101,197,714,980,972,738
887,410,-477,-648,682,-34,-512,282,1126,1496,1358,1134
694,73,-621,-383,657,-274,-519,14,191,268,215,301
95,-231,-326,68,211,-278,-217,-245,-582,-615,-450,-254
-56,-164,-108,110,26,-136,15,-47,-198,-236,-184,-131
-63,-98,-35,80,-14,-66,83,40,-73,-124,-105,-101
-158,-118,40,138,-98,-39,26,-21,-82,-101,-77,-88
-148,-118,30,133,-89,-43,32,-18,-49,-81,-74,-101
-121,-102,19,112,-70,-41,2,-31,-71,-100,-77,-101
-136,-128,7,132,-71,-60,-1,-21,-45,-81,-72,-98
-101,-101,0,101,-50,-50,35,-28,-56,-92,-72,-98
-101,-88,13,95,-57,-37,46,-24,-33,-73,-61,-91
-130,-116,14,123,-72,-51,40,-23,-34,-77,-61,-93
-133,-125,8,129,-70,-58,35,-19,-20,-62,-51,-86
-112,-120,-8,116,-52,-64,32,-14,-16,-43,-48,-83
-120,-107,13,113,-66,-47,26,-13,-12,-27,-42,-75
-104,-92,11,98,-57,-40,23,-6,-2,-20,-38,-70
-80,-81,-1,81,-39,-41,19,-6,-4,-15,-36,-66
-128,-81,46,104,-87,-17,43,4,27,-7,-27,-57
-119,-96,22,107,-70,-37,47,10,33,-2,-21,-49
-52,-71,-19,62,-16,-45,27,27,48,18,-10,-35
-27,-53,-26,40,-1,-39,23,66,82,42,6,-23
-60,-81,-22,71,-19,-51,33,81,91,57,24,-7
-53,-47,6,50,-30,-20,40,83,124,73,36,2
-40,-36,4,38,-21,-16,41,108,169,118,64,27
10,-8,-17,-1,14,-12,45,159,221,169,113,76
95,38,-57,-66,76,-10,47,177,270,204,131,83
116,21,-95,-68,105,-37,51,186,303,231,147,86
103,6,-97,-54,100,-45,47,210,320,253,163,107
94,-24,-118,-35,106,-71,38,209,319,260,152,104
94,-22,-116,-36,106,-69,30,197,307,255,142,94
116,25,-91,-70,103,-33,21,168,272,220,133,88
74,-8,-83,-33,78,-45,14,120,200,152,100,60
-6,-43,-37,25,16,-40,8,70,124,82,55,23
-30,-28,3,29,-16,-12,0,32,64,18,29,3
-73,-49,24,61,-48,-12,-5,-6,11,-26,-5,-27
-95,-53,42,74,-69,-5,-14,-40,-17,-60,-41,-57
-115,-84,31,99,-73,-27,-12,-47,-42,-73,-52,-67
-133,-94,39,113,-86,-27,6,-43,-50,-69,-51,-65
-130,-87,43,108,-87,-22,11,-48,-55,-81,-50,-71
-125,-92,32,108,-78,-30,9,-64,-80,-86,-50,-77
-120,-88,32,104,-76,-28,11,-63,-77,-80,-50,-74
-112,-91,21,102,-66,-35,7,-57,-72,-78,-49,-69
-103,-77,26,89,-64,-25,-2,-53,-68,-73,-56,-75
-137,-96,40,117,-88,-28,-13,-49,-62,-70,-62,-99
-126,-86,40,106,-83,-23,-9,-51,-61,-75,-58,-97
-123,-88,35,105,-79,-26,-4,-50,-57,-75,-55,-90
-135,-100,35,117,-85,-32,3,-50,-56,-69,-53,-89
-104,-75,28,89,-66,-23,3,-50,-50,-64,-49,-80
-110,-77,33,94,-71,-22,-1,-50,-51,-61,-50,-82
-124,-75,49,99,-86,-13,0,-53,-45,-53,-38,-59
-99,-53,46,76,-72,-3,-1,-56,-49,-70,-40,-65
-104,-64,40,84,-72,-12,1,-54,-74,-100,-67,-96
-131,-97,33,114,-82,-32,-1,-56,-74,-94,-66,-89
-110,-80,31,95,-70,-24,3,-53,-68,-87,-56,-72
-91,-76,15,83,-53,-30,-12,-58,-67,-81,-52,-74
-94,-77,17,85,-55,-30,-36,-78,-60,-73,-43,-98
-116,-84,32,100,-74,-26,-35,-76,-62,-70,-41,-91
-116,-101,15,108,-65,-43,-32,-69,-75,-63,-57,-81
-86,-73,12,79,-49,-30,-19,-66,-81,-79,-66,-86
-84,-87,-3,85,-40,-44,-7,-57,-79,-92,-64,-84
-74,-72,2,73,-38,-35,-12,-58,-81,-89,-65,-88
-80,-41,39,60,-59,-1,-21,-61,-80,-93,-65,-90
-132,-87,45,109,-88,-21,-31,-60,-81,-96,-66,-91
-126,-97,29,111,-77,-34,-32,-60,-76,-95,-60,-86
-83,-80,3,81,-43,-38,-20,-60,-69,-90,-52,-79
-104,-70,34,87,-68,-18,-7,-60,-63,-81,-44,-73
-117,-45,71,81,-94,13,-12,-59,-55,-72,-35,-66
-102,-32,69,67,-85,18,-19,-55,-51,-67,-31,-59
-99,-18,81,58,-90,31,-26,-54,-50,-69,-29,-55
-79,4,84,37,-82,44,-38,-67,-50,-71,-31,-53
-35,32,67,1,-51,49,-69,-77,-50,-69,-29,-49
7,39,32,-24,-12,35,-85,-74,-50,-71,-31,-47
28,13,-15,-21,21,-1,-41,-76,-50,-69,-28,-44
-32,-48,-15,40,-8,-31,-51,-75,-54,-78,-41,-57
-103,-95,8,99,-55,-43,-48,-75,-78,-109,-65,-77
-111,-84,27,98,-69,-29,-8,-76,-73,-101,-54,-74
-124,-89,35,106,-79,-26,-5,-73,-76,-110,-66,-86
-94,-59,34,76,-64,-12,2,-78,-77,-108,-53,-76
-110,-74,35,92,-72,-19,-14,-71,-71,-110,-67,-92
-130,-90,40,109,-84,-25,-5,-76,-78,-109,-53,-77
-94,-6,88,50,-91,41,55,7,77,58,63,-6
171,157,-15,-164,93,70,-22,147,519,678,675,468
825,443,-382,-633,603,30,-390,253,1119,1471,1399,1132
868,225,-643,-546,755,-209,-582,96,568,703,600,588
308,-151,-458,-78,383,-304,-329,-243,-509,-545,-410,-226
25,-113,-138,44,82,-125,-16,-128,-318,-360,-255,-183
-89,-140,-51,115,-19,-95,81,19,-49,-119,-105,-113
-98,-126,-28,112,-34,-77,26,-52,-88,-129,-97,-96
-114,-122,-8,119,-53,-65,12,-43,-35,-81,-77,-83
-122,-112,10,116,-66,-50,5,-51,-66,-109,-82,-92
-101,-61,40,80,-70,-11,28,-41,-39,-80,-63,-78
-129,-102,27,116,-78,-37,50,-40,-51,-92,-73,-85
-144,-116,28,129,-85,-44,37,-37,-37,-78,-64,-76
-142,-123,20,132,-81,-51,37,-31,-26,-77,-60,-82
-97,-79,17,88,-57,-31,28,-29,-17,-73,-49,-79
-97,-86,12,91,-54,-37,24,-21,-5,-66,-42,-80
-106,-114,-8,110,-49,-61,21,-20,-5,-65,-37,-80
-129,-98,31,113,-80,-33,29,-13,4,-57,-33,-80
-135,-94,41,114,-88,-27,36,-10,9,-52,-31,-76
-100,-90,11,95,-55,-39,42,-3,12,-48,-26,-69
-63,-71,-8,67,-27,-39,49,7,30,-30,-24,-63
-59,-52,7,55,-32,-22,50,13,66,0,-17,-52
-89,-66,24,77,-56,-20,50,25,85,21,-11,-35
-53,-64,-11,59,-21,-37,50,41,98,28,-2,-36
-9,-29,-21,19,6,-25,50,63,117,52,7,-41
34,8,-26,-20,30,-9,49,89,166,95,39,-16
35,-4,-39,-15,37,-21,44,109,220,121,88,21
61,-4,-65,-28,63,-34,41,159,262,168,109,59
91,4,-87,-47,89,-41,38,189,303,203,136,73
111,17,-94,-64,103,-38,33,194,324,230,161,89
155,43,-112,-99,133,-34,30,206,341,249,171,102
155,57,-98,-106,127,-21,26,187,333,234,164,89
132,34,-98,-83,115,-32,20,159,296,207,147,90
72,-7,-80,-32,76,-43,12,131,244,161,126,64
75,23,-52,-49,63,-14,6,85,165,108,85,17
28,0,-28,-14,28,-14,-1,29,85,40,38,-24
-56,-28,29,42,-42,0,-6,-18,28,-16,-10,-43
-82,-38,44,60,-63,3,-11,-48,-8,-55,-34,-51
-94,-65,29,79,-62,-18,-31,-60,-34,-78,-62,-86
-82,-49,33,65,-58,-8,-24,-60,-44,-75,-83,-97
-88,-66,22,76,-54,-22,-13,-57,-47,-94,-79,-93
-86,-63,22,75,-54,-20,-16,-55,-52,-107,-81,-94
-95,-58,37,76,-66,-10,-15,-55,-57,-102,-80,-88
-71,-80,-9,75,-31,-44,-15,-55,-60,-100,-80,-91
-58,-79,-21,69,-19,-50,-14,-55,-54,-96,-80,-93
-98,-78,20,88,-59,-29,-8,-55,-49,-95,-80,-96
-124,-76,48,100,-86,-14,1,-55,-44,-91,-80,-95
-123,-64,59,93,-91,-2,2,-55,-38,-84,-80,-95
-96,-49,47,73,-71,-1,19,-55,-31,-77,-79,-95
-87,-35,52,61,-69,8,-14,-55,-34,-72,-73,-76
-93,-53,40,73,-66,-7,-14,-54,-51,-62,-66,-79
-67,-25,43,46,-55,9,34,-58,-56,-67,-60,-84
-50,-8,42,29,-46,17,5,-60,-54,-86,-52,-64
-36,-15,21,25,-29,3,-1,-60,-56,-85,-46,-58
-16,10,26,3,-22,18,8,-60,-55,-85,-49,-48
-35,-26,9,30,-22,-8,11,-60,-55,-85,-53,-44
-53,-8,46,30,-49,19,14,-60,-56,-85,-37,-34
-101,-34,67,67,-84,17,-7,-54,-53,-84,-39,-36
-63,-18,45,41,-54,13,-20,-68,-66,-97,-73,-75
-13,30,43,-9,-28,36,-22,-82,-76,-96,-71,-65
-46,-9,37,27,-41,14,-16,-72,-68,-72,-47,-59
-66,-3,63,34,-65,29,-14,-70,-65,-67,-43,-72
-18,0,18,9,-18,9,-10,-65,-60,-53,-27,-62
-13,-14,-1,14,-6,-8,-5,-58,-56,-52,-26,-61
-50,-23,27,36,-38,2,-8,-72,-52,-95,-66,-55
-14,-8,6,11,-10,-1,-10,-77,-45,-103,-75,-51
-46,-22,25,34,-36,1,-14,-66,-40,-88,-60,-46
3,10,7,-6,-2,8,-15,-58,-34,-81,-58,-45
-18,24,42,-3,-30,33,-5,-58,-29,-70,-47,-44
-44,35,79,4,-62,57,12,-64,-24,-68,-35,-30
19,83,64,-51,-22,73,11,-67,-20,-63,-17,-18
-18,70,88,-26,-53,78,-31,-73,-20,-56,-13,10
61,117,57,-89,2,87,-47,-74,-20,-48,4,47
85,125,40,-105,22,82,-42,-70,-20,-40,35,46
60,56,-4,-58,32,26,-57,-67,-19,-35,20,21
86,82,-4,-84,45,39,-36,-66,-27,-31,-13,-15
20,43,23,-31,-2,33,4,-60,-47,-71,-42,-46
-10,-3,7,7,-8,2,5,-61,-61,-87,-44,-42
2,12,9,-7,-4,11,16,-66,-64,-76,-55,-43
-6,-9,-3,8,-1,-6,19,-78,-69,-78,-50,-30
-18,-5,14,12,-16,5,11,-66,-47,-64,-40,-53
-18,-7,11,13,-15,2,9,-55,-41,-74,-32,-47
-41,56,97,-8,-69,76,33,-23,31,-4,14,-8
126,168,42,-147,42,105,57,115,360,436,419,298
743,442,-302,-592,522,70,-245,273,1012,1329,1253,1033
1047,421,-627,-734,837,-103,-556,203,861,1068,913,850
595,35,-561,-315,578,-263,-415,-199,-333,-355,-265,-57
158,-40,-198,-59,178,-119,-104,-219,-485,-507,-350,-195
36,-47,-83,6,60,-65,98,34,-48,-102,-105,-80
2,-19,-21,9,12,-20,101,-18,-77,-113,-106,-89
0,28,28,-14,-14,28,84,-30,-32,-60,-70,-68
-27,-21,6,24,-16,-8,68,-22,-41,-82,-80,-77
-19,15,34,2,-26,24,43,-21,-34,-67,-59,-61
4,19,15,-11,-5,17,49,-7,-33,-67,-63,-68
-24,7,31,8,-28,20,32,-8,-38,-68,-59,-64
16,37,21,-27,-3,29,50,3,-18,-59,-56,-62
24,43,19,-34,2,30,66,-13,-16,-51,-50,-54
-16,40,56,-12,-36,48,67,-10,14,-36,-40,-46
20,44,24,-32,-2,33,71,-5,33,-38,-32,-39
-14,7,21,3,-17,14,73,0,41,-30,-24,-29
-13,9,22,2,-18,16,76,8,44,-28,-12,-24
80,89,8,-84,36,48,71,27,54,-21,4,-5
64,83,19,-73,22,50,69,44,50,-22,-14,-5
40,42,3,-41,18,23,66,52,68,11,4,-26
54,64,11,-59,21,38,63,52,82,37,52,-16
91,87,-4,-89,47,41,61,71,108,55,53,25
117,99,-18,-108,67,40,61,98,157,92,38,27
94,100,5,-97,44,52,66,125,191,119,69,49
130,113,-18,-121,74,47,64,152,236,145,95,75
191,139,-52,-165,122,43,65,178,278,180,111,93
220,142,-78,-181,149,32,80,209,322,217,136,134
209,117,-92,-162,150,12,81,225,344,233,155,146
247,128,-118,-187,182,5,71,249,361,250,173,174
306,181,-125,-244,215,28,67,256,376,263,175,192
224,142,-82,-183,153,30,69,239,360,246,181,164
201,126,-75,-164,137,26,71,204,311,212,166,130
184,150,-34,-167,109,58,69,132,212,144,105,121
134,147,13,-140,60,79,72,71,132,76,53,95
129,142,13,-135,57,77,63,40,92,41,35,32
25,79,54,-52,-15,66,40,12,49,3,8,16
9,74,64,-42,-28,69,17,-3,14,-34,-30,2
49,87,38,-68,5,62,41,-13,-18,-51,-34,-34
23,48,25,-36,-2,36,68,-26,-40,-70,-53,-23
-25,38,64,-7,-45,51,55,-30,-41,-87,-84,-7
-29,40,69,-6,-49,55,55,-30,-39,-85,-79,-23
31,87,57,-59,-13,72,44,-30,-36,-85,-80,-47
4,72,68,-38,-32,70,44,-30,-35,-85,-81,-58
-13,5,18,4,-16,11,30,-30,-32,-85,-74,-65
31,58,27,-45,1,42,19,-29,-24,-84,-80,-65
20,66,46,-43,-13,56,69,-24,-18,-79,-90,-63
9,28,19,-19,-5,23,82,-19,-12,-77,-91,-56
9,28,19,-19,-5,24,70,-15,-8,-73,-86,-50
-10,32,42,-11,-26,37,68,-10,-1,-70,-69,-48
-47,31,78,7,-63,54,60,-5,4,-74,-69,-44
-62,17,79,22,-70,47,57,-11,1,-75,-75,-60
6,50,44,-28,-19,47,53,-24,-9,-75,-72,-18
28,52,24,-40,2,38,51,-35,-16,-75,-70,-14
-44,28,72,8,-59,50,48,-48,-24,-74,-66,-36
-39,46,86,-4,-63,66,45,-44,-30,-76,-66,22
20,58,38,-39,-9,48,44,-16,-14,-54,-45,12
-18,7,25,5,-21,16,40,-29,-26,-62,-49,-27
-36,5,41,15,-39,23,38,-61,-45,-89,-68,-42
-8,50,58,-21,-34,54,34,-60,-31,-84,-64,-43
-8,19,27,-6,-18,23,32,-62,-38,-82,-62,-9
0,21,21,-11,-11,21,29,-67,-45,-80,-60,-7
36,75,40,-56,-3,57,37,-60,-41,-80,-60,-37
59,81,23,-70,18,52,50,-45,-36,-80,-59,-32
28,51,23,-39,2,36,49,-43,-32,-80,-61,-25
11,51,40,-31,-14,45,56,-46,-29,-78,-58,-41
22,59,37,-40,-8,48,52,-46,-23,-68,-51,-8
23,73,50,-49,-14,61,30,-51,-17,-55,-39,35
45,113,68,-79,-11,90,0,-53,-12,-43,-29,25
58,133,74,-96,-8,103,-14,-56,-6,-32,-7,24
68,114,46,-91,11,80,-12,-60,-1,-27,13,20
90,91,1,-90,44,46,-19,-59,-5,-42,-11,14
32,50,18,-41,7,34,15,-56,-17,-43,-25,25
-20,11,31,5,-25,21,36,-46,-39,-62,-44,-2
-22,15,37,4,-30,25,26,-43,-45,-88,-68,-35
-55,-44,11,49,-32,-17,32,-32,-50,-89,-78,-41
-57,-52,6,55,-31,-23,30,-28,-47,-89,-69,-36
-43,-22,21,33,-32,-1,28,-35,-34,-88,-84,-46
-76,-17,59,46,-68,21,42,-34,-34,-60,-40,-20
-87,41,128,23,-108,84,82,6,68,33,24,4
150,144,-6,-147,78,69,28,128,434,530,512,411
755,366,-389,-560,572,-12,-215,315,1078,1374,1289,1092
931,278,-653,-604,792,-187,-396,191,724,851,688,693
352,-32,-385,-160,369,-208,-329,-284,-483,-519,-395,-158
8,-110,-118,52,63,-113,-66,-208,-459,-495,-346,-189
2,-72,-74,36,38,-73,120,81,-27,-106,-125,-58
-63,-43,20,53,-41,-11,84,16,-54,-105,-104,-41
-91,-80,11,85,-51,-34,63,-13,-12,-60,-78,-34
-107,-51,56,79,-82,3,63,-42,-27,-101,-81,-73
-119,-46,73,82,-96,14,52,-38,-10,-83,-60,-60
-86,-64,21,75,-53,-22,55,-25,-5,-83,-62,-61
-46,-31,15,38,-30,-8,41,-27,-4,-89,-52,-61
-49,-47,1,48,-25,-22,62,-11,-14,-76,-50,-53
-49,-36,13,42,-31,-11,82,-15,-12,-58,-46,-35
-23,-27,-4,25,-10,-15,79,-26,24,-44,-37,-12
-74,-79,-5,77,-34,-41,83,-30,11,-55,-50,-29
-96,-105,-8,101,-44,-56,85,-16,15,-43,-57,-49
-43,-55,-12,49,-15,-34,86,-15,38,-31,-44,-38
-3,-21,-18,12,8,-20,80,-5,39,-15,-35,-26
-28,-37,-10,33,-9,-24,70,5,26,-13,-25,-20
-55,-48,7,51,-31,-21,61,33,53,8,-14,-5
-10,-52,-42,31,16,-47,59,62,110,53,-6,-4
0,-41,-41,21,21,-40,70,64,127,70,21,18
36,1,-35,-18,36,-17,66,82,122,73,33,54
36,-16,-53,-9,44,-34,60,103,168,108,54,69
57,-14,-71,-21,64,-42,51,135,215,147,104,99
110,22,-88,-66,98,-32,48,159,239,171,121,113
106,4,-102,-55,104,-49,36,174,289,214,134,131
166,39,-127,-102,146,-44,28,205,326,253,159,140
180,47,-133,-113,156,-42,62,209,330,261,164,127
155,22,-132,-88,144,-55,63,196,326,255,151,124
143,32,-111,-88,127,-39,55,176,298,229,141,114
87,1,-86,-44,87,-42,52,133,239,174,121,112
47,8,-39,-27,43,-15,43,90,170,123,79,78
16,7,-9,-12,12,-1,41,46,91,66,41,33
-53,-52,1,52,-27,-25,32,0,34,16,1,16
-55,-12,43,34,-49,15,27,-16,-5,-18,-23,5
-71,-18,52,44,-61,17,18,-44,-54,-63,-45,-30
-114,-66,49,90,-81,-8,13,-68,-66,-77,-68,-63
-93,-45,47,69,-69,1,0,-66,-66,-78,-68,-66
-119,-75,44,96,-81,-15,13,-71,-71,-84,-76,-64
-113,-67,46,90,-80,-10,53,-73,-66,-88,-83,-66
-97,-61,36,79,-67,-12,50,-75,-65,-106,-80,-79
-100,-69,31,85,-65,-19,40,-72,-65,-108,-80,-71
-63,-47,16,55,-39,-15,36,-66,-65,-100,-80,-58
-117,-83,34,100,-75,-24,34,-62,-66,-96,-80,-56
-140,-87,53,114,-96,-17,34,-57,-63,-89,-80,-50
-92,-43,49,68,-70,3,29,-53,-61,-86,-77,-47
-85,-35,50,60,-67,7,31,-50,-57,-83,-71,-41
-117,-67,50,92,-83,-8,28,-58,-55,-81,-68,-37
-126,-74,51,100,-88,-11,24,-63,-52,-77,-63,-35
-58,-22,36,39,-47,7,22,-66,-49,-75,-58,-35
-95,-32,62,63,-78,15,19,-69,-57,-71,-52,-35
-150,-71,79,110,-114,4,16,-69,-68,-69,-48,-35
-120,-62,59,91,-89,-2,15,-64,-73,-66,-41,-35
-101,-45,55,73,-78,5,8,-60,-76,-62,-35,-45
-108,-56,53,82,-80,-1,4,-81,-92,-92,-62,-53
-133,-77,56,105,-94,-10,6,-92,-101,-108,-79,-49
-133,-75,58,104,-95,-8,1,-89,-99,-103,-73,-50
-136,-76,60,106,-98,-7,0,-91,-103,-106,-77,-50
-134,-72,62,102,-97,-5,0,-90,-106,-104,-74,-50
-149,-83,66,115,-107,-9,6,-90,-105,-106,-77,-51
-143,-78,65,110,-104,-6,11,-84,-102,-103,-78,-49
-145,-80,65,112,-104,-8,17,-78,-98,-107,-85,-51
-103,-37,66,70,-85,15,21,-70,-95,-97,-78,-50
-42,20,62,10,-52,41,29,-66,-91,-62,-41,-51
-71,16,87,27,-79,51,23,-55,-89,-42,-23,-48
-38,51,89,-7,-64,70,-14,-65,-84,-43,-21,-42
-31,48,79,-9,-56,63,-38,-111,-79,-35,-15,-32
-54,30,85,12,-70,57,-57,-110,-74,-35,-12,-25
-65,-18,47,41,-56,14,-59,-95,-70,-58,-6,-17
-46,-10,36,28,-41,13,-31,-102,-65,-46,-12,-11
-34,-5,29,19,-31,12,-12,-101,-89,-71,-62,-55
-94,-72,22,83,-58,-25,-10,-112,-117,-104,-79,-72
-96,-80,16,88,-55,-32,1,-104,-109,-104,-86,-85
-115,-112,3,113,-59,-54,4,-105,-122,-127,-97,-101
-111,-78,33,94,-72,-23,15,-96,-98,-103,-78,-79
-132,-88,45,109,-88,-21,7,-94,-117,-105,-84,-81
-167,-73,95,120,-131,11,-11,-67,-73,-49,-37,-62
-31,50,81,-9,-56,65,49,52,217,311,307,185
489,305,-184,-396,336,60,-148,190,848,1197,1172,936
930,377,-554,-653,742,-89,-475,211,970,1292,1136,1010
486,-50,-536,-218,511,-292,-438,-167,-184,-130,-119,40
27,-180,-207,77,117,-193,-148,-286,-600,-601,-440,-276
-47,-124,-77,86,15,-100,71,-45,-145,-163,-150,-126
-133,-173,-41,153,-46,-107,68,-68,-129,-154,-133,-140
-120,-101,18,110,-69,-41,43,-72,-94,-99,-78,-104
-184,-128,56,156,-120,-35,55,-77,-102,-103,-89,-108
-181,-118,63,150,-122,-27,47,-89,-97,-97,-77,-97
-152,-90,62,120,-107,-14,51,-72,-79,-85,-75,-98
-192,-123,68,157,-130,-27,44,-80,-88,-91,-74,-95
-180,-111,69,145,-124,-21,43,-67,-67,-74,-66,-89
-182,-112,70,147,-126,-21,39,-71,-74,-82,-67,-91
-184,-124,60,154,-122,-32,36,-61,-60,-67,-58,-83
-167,-118,49,142,-108,-34,35,-77,-63,-71,-59,-79
-150,-108,42,129,-96,-33,31,-83,-55,-55,-48,-70
-148,-109,38,129,-93,-36,24,-72,-45,-51,-43,-65
-153,-116,37,134,-94,-39,17,-65,-33,-62,-36,-57
-143,-110,33,126,-88,-38,11,-49,-20,-38,-28,-58
-132,-102,30,117,-81,-36,3,-41,-8,-18,-21,-59
-126,-97,30,111,-78,-33,2,-30,13,-11,-15,-50
-90,-88,2,89,-46,-43,6,-21,46,23,-7,-45
-93,-82,11,88,-52,-35,23,-13,72,43,13,-37
-103,-71,32,87,-67,-19,44,26,106,72,42,-17
-71,-66,4,68,-37,-31,47,53,151,109,62,-5
-8,-43,-35,26,14,-39,36,74,186,146,85,25
77,11,-66,-44,72,-27,39,113,241,190,125,63
117,45,-72,-81,94,-13,25,142,290,227,152,87
123,49,-74,-86,99,-12,42,153,303,252,161,98
130,41,-88,-85,109,-23,46,168,300,248,164,96
