I,II,III,aVR,aVL,aVF,V1,V2,V3,V4,V5,V6
475,18,-457,-246,466,-219,-494,-829,-1042,-1196,59,815
247,-13,-260,-117,254,-137,-222,-407,-544,-694,-40,416
-63,-66,-4,64,-29,-35,126,126,57,-104,-121,-75
-110,-81,29,95,-69,-26,200,214,155,-23,-131,-137
-103,-79,23,91,-63,-27,204,236,175,-5,-129,-126
-105,-80,25,93,-65,-27,207,257,192,-1,-131,-135
-97,-80,18,88,-57,-31,203,261,191,-8,-129,-126
-103,-81,22,92,-63,-29,208,273,204,1,-131,-135
-99,-77,22,88,-60,-28,203,269,199,-9,-133,-130
-103,-75,28,89,-65,-23,209,280,210,-7,-139,-142
-104,-75,29,90,-66,-22,210,280,206,-21,-153,-141
-106,-72,34,89,-70,-18,211,292,213,-29,-170,-148
-105,-69,36,87,-71,-16,210,295,214,-53,-194,-165
-114,-72,43,93,-79,-14,211,312,216,-67,-215,-179
-125,-76,49,100,-87,-13,210,333,226,-85,-237,-191
-146,-92,54,119,-100,-19,218,349,239,-108,-270,-211
-164,-106,58,135,-110,-24,227,374,248,-129,-312,-233
-169,-108,62,139,-116,-23,234,405,260,-162,-358,-257
-182,-112,70,147,-126,-21,252,447,281,-204,-416,-299
-194,-114,80,154,-137,-17,271,488,303,-255,-489,-347
-221,-119,102,170,-162,-9,289,533,321,-323,-566,-392
-241,-125,116,183,-178,-4,314,580,335,-400,-669,-447
-258,-134,125,196,-191,-4,342,621,343,-489,-783,-508
-274,-148,126,211,-200,-11,365,663,341,-592,-912,-577
-282,-165,116,223,-199,-24,392,678,335,-694,-1045,-652
-299,-187,112,243,-205,-38,413,671,329,-788,-1167,-725
-303,-200,104,251,-203,-48,418,668,324,-836,-1254,-768
-305,-208,98,256,-201,-55,411,628,318,-832,-1265,-765
-292,-201,91,246,-192,-55,372,557,305,-793,-1222,-732
-254,-181,73,217,-163,-54,314,471,291,-672,-1103,-662
-193,-146,47,169,-120,-49,245,376,274,-482,-892,-541
-121,-101,20,110,-70,-40,172,288,245,-272,-628,-389
-71,-78,-7,74,-32,-42,115,200,205,-91,-361,-243
-24,-47,-23,36,0,-35,71,138,167,35,-148,-121
14,-18,-32,2,24,-25,32,103,138,111,-6,-32
28,-15,-43,-6,36,-29,11,76,125,147,79,22
34,-12,-45,-11,40,-28,10,65,119,158,124,48
36,-9,-45,-13,40,-27,10,65,112,152,142,58
40,-5,-45,-17,43,-25,10,65,104,151,148,64
40,-5,-45,-17,43,-25,10,65,97,147,142,71
36,-9,-45,-13,40,-27,10,65,98,144,140,74
28,-12,-40,-8,35,-26,20,66,101,148,136,69
20,-14,-35,-3,28,-25,29,71,103,150,132,64
12,-18,-31,3,22,-24,31,75,107,150,129,60
-5,-31,-26,18,11,-28,34,79,109,150,121,55
-9,-31,-22,20,6,-26,36,83,111,151,114,51
-7,-24,-17,16,6,-20,40,86,117,149,108,46
-7,-21,-14,15,3,-17,45,95,124,158,99,40
-6,-16,-10,11,2,-12,41,97,129,166,93,35
-5,-12,-7,9,1,-9,39,94,130,172,93,30
-5,-7,-2,6,-1,-4,40,95,130,182,97,23
-5,-5,0,5,-2,-2,40,94,130,185,99,21
0,-5,-5,3,3,-5,40,95,130,190,102,25
-1,-5,-5,3,3,-5,39,94,130,186,104,25
1,-5,-6,2,4,-5,34,88,126,179,106,25
5,-5,-10,0,8,-7,31,81,119,176,110,25
0,-10,-10,5,5,-10,28,74,113,169,110,25
3,-10,-12,4,7,-11,23,67,106,164,112,29
4,-11,-15,4,10,-13,20,61,99,158,115,30
3,-15,-18,6,11,-16,20,60,94,155,115,30
6,-15,-21,5,14,-18,20,60,89,155,119,35
12,-13,-24,1,18,-18,20,60,86,152,121,35
16,-10,-25,-3,20,-17,20,61,82,150,119,34
12,-7,-19,-2,16,-13,20,59,79,149,121,30
9,-4,-13,-2,11,-8,19,62,74,155,119,29
17,11,-6,-14,11,3,11,67,82,164,123,41
39,40,1,-40,19,20,4,78,101,176,139,53
44,51,7,-48,18,29,-7,94,114,188,150,68
62,80,18,-71,21,49,-7,102,134,202,161,82
100,129,28,-115,36,78,-69,98,151,223,181,99
129,173,44,-151,42,108,-203,56,144,239,210,130
169,219,50,-195,60,134,-264,13,135,246,236,159
195,203,9,-199,93,106,-252,-8,126,236,231,170
206,149,-57,-177,131,46,-248,-24,120,228,228,171
176,105,-71,-140,123,16,-185,-2,113,218,222,158
84,42,-41,-63,62,0,-64,40,109,196,182,112
36,-8,-44,-14,40,-26,-9,51,101,168,148,68
37,-25,-61,-6,49,-43,10,52,99,143,136,47
19,-39,-58,10,39,-48,19,49,94,134,128,40
8,-54,-62,23,35,-58,32,50,91,135,111,32
12,-46,-58,17,35,-52,38,51,92,135,115,32
18,-43,-61,13,40,-52,48,47,80,125,102,22
21,-38,-58,9,40,-48,42,57,93,138,110,24
19,-29,-48,5,34,-38,56,66,99,136,91,1
-6,-34,-28,20,11,-30,101,117,264,328,77,-52
-5,54,58,-25,-31,56,-58,-292,174,896,411,96
167,347,180,-257,-7,263,-445,-1439,-631,1592,1308,626
580,771,191,-676,194,481,-1295,-2897,-1857,2263,2795,1611
1139,865,-275,-1002,707,295,-2120,-3894,-2889,2065,3750,2457
1299,648,-650,-973,974,-1,-2068,-3633,-3232,-374,2746,2406
1056,388,-668,-722,862,-139,-1527,-2574,-2793,-2436,872,1743
760,77,-684,-418,722,-303,-852,-1392,-1612,-1727,45,1027
284,-38,-321,-122,303,-179,-239,-441,-542,-680,-84,355
-37,-54,-17,46,-10,-36,93,57,-15,-194,-154,-72
-89,-86,3,88,-46,-42,192,211,160,-10,-137,-145
-93,-76,18,85,-56,-29,191,213,158,-50,-149,-139
-87,-83,4,84,-45,-39,205,241,185,-6,-139,-148
-93,-79,14,86,-53,-32,207,246,176,-39,-140,-148
-88,-80,8,84,-48,-36,210,251,186,-22,-140,-153
-94,-80,14,87,-54,-33,210,256,185,-34,-149,-154
-98,-79,19,89,-59,-30,209,264,186,-34,-163,-160
-102,-81,22,91,-62,-29,211,278,193,-37,-178,-170
-106,-79,27,92,-66,-26,209,281,193,-59,-202,-184
-128,-81,47,104,-88,-16,218,304,207,-66,-211,-184
-149,-80,70,114,-109,-5,226,326,217,-77,-233,-194
-157,-80,77,118,-117,-1,232,348,238,-87,-261,-215
-165,-80,85,122,-125,2,238,373,254,-115,-289,-228
-168,-79,89,123,-128,4,248,401,269,-142,-329,-251
-189,-86,102,137,-145,8,265,443,285,-165,-382,-284
-211,-98,113,154,-162,8,277,481,305,-201,-441,-322
-222,-100,122,161,-172,11,295,527,327,-253,-510,-360
-243,-105,138,173,-190,16,318,579,341,-315,-596,-409
-267,-109,158,188,-212,24,338,620,356,-389,-704,-466
-297,-121,177,209,-237,28,369,664,359,-484,-828,-528
-326,-135,191,230,-258,28,400,705,352,-594,-967,-603
-339,-150,189,244,-264,19,427,726,351,-698,-1107,-682
-355,-176,180,265,-267,2,443,721,346,-795,-1239,-758
-360,-188,172,273,-265,-8,435,715,342,-849,-1333,-809
-361,-197,165,279,-263,-16,429,681,339,-850,-1350,-819
-343,-189,154,266,-248,-17,405,603,331,-815,-1316,-789
-295,-166,129,231,-212,-18,348,517,319,-702,-1207,-718
-246,-149,97,197,-172,-25,279,420,303,-508,-999,-599
-180,-115,65,147,-123,-25,202,317,276,-297,-732,-447
-117,-79,39,98,-78,-20,134,227,229,-114,-449,-288
-63,-46,17,54,-40,-14,80,158,189,28,-216,-153
-30,-28,2,29,-16,-12,49,112,160,109,-58,-67
-21,-24,-4,23,-8,-14,43,82,125,147,38,-10
-10,-18,-9,14,0,-13,36,68,107,153,94,23
1,-13,-14,6,8,-13,28,64,101,145,113,43
14,-7,-20,-3,17,-13,20,58,93,142,109,51
18,-7,-25,-5,22,-16,16,53,86,137,110,50
18,-14,-32,-2,25,-23,22,46,78,133,105,50
12,-19,-31,3,22,-25,27,47,77,129,105,50
-1,-26,-24,14,12,-25,33,56,83,123,104,51
-8,-29,-21,19,7,-25,39,62,86,118,98,46
-10,-26,-16,18,4,-21,44,72,90,112,93,37
-10,-21,-12,16,1,-16,49,80,94,107,86,29
-11,-19,-7,15,-2,-13,50,84,95,101,82,21
-13,-15,-1,14,-5,-8,55,89,97,105,77,14
-14,-10,4,12,-9,-3,54,87,104,116,72,8
-21,-12,9,16,-15,-1,50,84,115,125,67,1
-33,-18,15,25,-24,-1,48,85,116,136,63,-5
-41,-21,19,31,-30,-1,45,81,111,137,57,-13
-41,-25,16,33,-28,-5,42,80,109,134,56,-19
-41,-30,11,35,-26,-9,40,80,104,135,61,-17
-39,-30,9,34,-24,-10,37,74,101,130,64,-14
-35,-31,4,33,-20,-13,34,69,97,130,69,-11
-36,-35,1,36,-18,-17,35,64,91,129,76,-8
-32,-35,-3,34,-14,-19,35,57,86,125,82,-5
-28,-33,-5,31,-11,-19,35,53,81,125,85,-3
-24,-29,-5,27,-10,-16,35,47,75,123,85,0
-22,-30,-9,26,-7,-19,35,45,70,119,87,2
-19,-30,-10,24,-4,-20,36,45,66,120,90,5
-21,-30,-10,25,-5,-20,34,41,64,123,90,9
-27,-30,-3,28,-12,-16,36,40,66,126,93,10
-28,-23,5,25,-16,-9,34,40,63,124,102,15
-22,-9,13,16,-18,2,40,46,74,127,105,25
5,25,20,-15,-8,23,49,60,96,139,114,35
17,46,29,-32,-6,37,40,76,105,147,126,41
27,71,44,-50,-8,57,39,81,118,165,132,55
51,108,58,-80,-4,83,-28,85,127,183,154,75
90,155,66,-123,12,110,-168,60,118,199,189,99
147,216,69,-182,39,143,-240,11,112,210,222,140
168,212,44,-190,61,128,-233,-14,104,197,238,160
195,172,-22,-183,108,75,-229,-37,96,186,239,163
175,120,-54,-147,114,33,-183,-24,89,174,226,152
106,57,-48,-81,77,4,-70,15,83,150,189,95
55,8,-47,-31,51,-19,-2,20,74,130,148,40
22,-22,-44,1,33,-33,36,34,67,122,127,13
11,-29,-41,9,26,-35,49,40,62,117,127,10
-6,-45,-39,26,17,-42,53,38,57,105,115,9
-14,-50,-36,32,11,-42,59,44,64,104,111,7
-21,-50,-29,36,4,-39,60,40,54,91,102,4
-21,-51,-30,36,4,-40,61,51,68,109,100,4
-35,-48,-14,42,-10,-30,61,44,70,107,115,-12
-59,-46,13,52,-35,-16,102,119,216,226,93,-69
-25,39,64,-7,-44,51,-4,-146,251,740,308,31
97,278,181,-188,-42,229,-322,-1189,-408,1447,1080,490
464,699,235,-582,114,467,-1085,-2635,-1577,2151,2515,1411
1037,878,-159,-957,598,359,-2023,-3808,-2703,2260,3708,2350
1336,688,-648,-1012,992,20,-2147,-3795,-3270,177,3061,2479
1177,436,-742,-806,959,-153,-1634,-2811,-2980,-2296,1163,1876
825,123,-702,-474,763,-289,-973,-1616,-1866,-1999,99,1146
356,-16,-373,-170,365,-194,-321,-579,-714,-832,-76,463
2,-38,-40,18,22,-39,72,2,-85,-274,-156,-26
-84,-78,6,81,-45,-36,201,212,142,-19,-151,-156
-103,-65,38,84,-71,-13,198,231,149,-54,-151,-151
-110,-72,37,91,-73,-17,202,248,170,-15,-148,-157
-109,-69,40,89,-75,-15,206,259,179,-37,-142,-153
-111,-70,42,90,-77,-14,200,258,185,-32,-141,-158
-117,-73,44,94,-80,-14,201,273,191,-33,-145,-161
-121,-75,46,97,-83,-14,198,278,191,-42,-162,-165
-121,-75,46,98,-83,-15,196,293,200,-42,-169,-176
-130,-75,55,102,-92,-9,194,298,199,-63,-197,-186
-135,-75,60,105,-97,-8,197,307,200,-68,-214,-200
-140,-75,65,107,-102,-5,200,326,215,-94,-237,-213
-149,-80,69,114,-109,-6,203,342,232,-107,-268,-226
-150,-80,70,115,-110,-5,208,361,232,-125,-296,-253
-151,-81,70,116,-111,-5,209,393,248,-153,-333,-289
-164,-78,86,121,-125,4,219,429,266,-179,-382,-318
-190,-92,98,141,-144,3,229,472,283,-217,-439,-353
-217,-106,111,161,-164,3,243,522,307,-269,-504,-397
-236,-107,128,171,-182,10,268,561,320,-324,-586,-440
-257,-110,147,183,-202,18,290,608,336,-397,-688,-489
-278,-115,163,196,-220,24,320,657,347,-487,-806,-554
-307,-136,171,222,-239,17,349,691,352,-590,-941,-630
-332,-152,180,242,-256,14,382,721,353,-698,-1082,-704
-336,-162,174,249,-255,6,402,721,342,-797,-1218,-774
-343,-179,164,261,-254,-7,398,710,335,-871,-1326,-829
-350,-194,156,272,-253,-19,397,688,326,-880,-1363,-849
-337,-199,138,267,-237,-30,377,625,314,-845,-1343,-823
-301,-186,115,243,-207,-35,332,540,300,-758,-1245,-755
-238,-153,85,195,-161,-33,269,448,284,-581,-1052,-638
-168,-114,54,141,-111,-29,189,348,263,-369,-793,-487
-104,-76,28,90,-66,-24,118,252,231,-176,-513,-333
-46,-39,7,42,-26,-16,68,179,191,-30,-273,-195
-17,-25,-8,21,-4,-16,38,125,149,53,-93,-100
-6,-24,-18,15,6,-20,23,95,123,109,21,-30
7,-20,-27,7,17,-23,10,89,110,125,81,11
21,-18,-39,-2,30,-28,4,82,97,117,106,26
31,-14,-46,-8,39,-30,5,76,91,116,113,37
28,-17,-45,-5,36,-31,5,68,86,111,110,36
24,-22,-45,0,34,-33,5,66,81,107,106,30
20,-25,-45,3,33,-35,5,70,74,105,103,26
16,-30,-45,8,31,-37,9,72,71,110,98,21
13,-30,-42,9,28,-36,16,75,74,110,96,17
3,-31,-34,15,18,-32,22,79,77,111,91,13
-9,-35,-26,22,9,-30,29,90,80,116,83,6
-17,-35,-18,26,1,-26,35,100,80,115,76,-1
-22,-33,-11,28,-6,-21,35,105,89,118,68,-7
-22,-27,-5,25,-8,-16,35,105,101,121,61,-15
-21,-22,-2,22,-9,-12,35,105,108,125,56,-19
-20,-19,1,19,-11,-9,35,105,110,135,55,-16
-19,-13,5,16,-12,-4,35,105,109,146,55,-13
-20,-10,10,15,-15,0,32,100,110,150,55,-11
-24,-16,8,20,-16,-4,29,92,110,150,55,-7
-29,-26,3,27,-16,-11,26,86,110,150,55,-5
-28,-28,0,28,-14,-14,23,78,105,150,59,-3
-21,-25,-3,23,-8,-14,21,71,97,150,71,0
-18,-25,-8,22,-4,-16,18,64,91,149,75,0
-14,-25,-11,20,-1,-17,15,60,83,145,75,4
-10,-25,-15,18,3,-20,15,60,76,140,80,5
-10,-25,-15,18,3,-20,15,57,69,135,80,5
-9,-25,-16,17,4,-20,15,55,65,131,84,10
-5,-25,-20,15,8,-22,15,55,65,126,85,14
-5,-25,-20,15,8,-22,18,59,65,127,86,19
-7,-25,-18,16,6,-21,22,60,65,131,90,23
-13,-25,-13,19,0,-19,23,60,65,130,90,28
-15,-22,-7,19,-3,-14,27,60,68,130,95,30
-5,-9,-4,7,0,-6,29,60,73,130,95,34
0,2,2,-1,-1,2,31,60,76,130,102,36
17,22,5,-20,6,13,38,68,90,140,120,40
32,44,12,-38,10,28,37,87,105,158,129,49
53,73,20,-64,16,46,34,103,118,179,140,60
81,106,25,-94,28,65,-39,108,140,208,168,82
110,146,35,-128,37,90,-186,78,140,224,196,110
174,207,33,-191,70,119,-257,52,123,244,231,152
192,200,8,-196,92,104,-239,29,110,250,244,173
199,152,-47,-175,123,53,-229,-20,98,228,233,169
169,106,-64,-137,116,21,-176,-14,86,207,213,154
79,43,-36,-61,57,4,-63,29,75,177,169,103
32,-2,-33,-14,32,-17,-5,39,66,153,138,58
12,-27,-39,8,26,-33,15,45,64,142,115,40
3,-36,-39,17,21,-37,24,49,62,131,114,40
-12,-57,-44,35,16,-50,32,51,56,120,108,30
-15,-60,-45,38,15,-52,35,58,59,128,106,28
-19,-60,-40,40,10,-50,34,51,49,122,102,20
-19,-61,-43,40,12,-52,36,60,62,137,97,19
-24,-57,-33,41,4,-45,36,57,58,132,117,23
-58,-66,-7,62,-25,-36,73,132,204,254,91,-50
-32,22,53,4,-43,38,-34,-132,246,772,307,37
102,274,172,-188,-35,223,-357,-1180,-407,1489,1105,507
457,698,240,-578,108,469,-1124,-2637,-1566,2203,2556,1428
1054,882,-173,-968,613,354,-2059,-3808,-2709,2291,3750,2379
1326,687,-639,-1006,982,24,-2185,-3811,-3302,152,3060,2505
1105,434,-671,-769,887,-118,-1670,-2839,-3006,-2317,1130,1877
816,128,-688,-472,752,-280,-998,-1631,-1881,-1987,76,1142
363,-8,-371,-177,367,-189,-348,-593,-723,-816,-99,460
-32,-32,0,32,-16,-16,38,-3,-82,-246,-165,-24
-114,-91,23,103,-68,-34,177,205,145,5,-155,-144
-121,-82,39,101,-80,-21,186,212,149,-41,-157,-131
-120,-86,33,103,-76,-26,192,234,175,7,-152,-137
-126,-85,41,105,-83,-21,196,246,179,-17,-147,-133
-128,-85,44,106,-86,-20,198,255,185,-15,-146,-136
-129,-85,44,106,-86,-20,201,272,197,-18,-148,-149
-130,-79,51,104,-90,-14,199,272,197,-29,-161,-161
-129,-79,50,103,-89,-14,200,276,208,-25,-170,-163
-130,-74,56,101,-93,-9,201,278,211,-37,-193,-169
-127,-72,55,99,-91,-8,209,295,219,-49,-212,-184
-131,-69,62,100,-96,-4,211,304,221,-79,-239,-197
-139,-74,66,106,-102,-4,220,327,225,-90,-267,-219
-146,-77,69,111,-107,-3,229,353,237,-114,-293,-239
-156,-82,74,119,-115,-4,234,373,251,-139,-333,-254
-171,-90,81,130,-126,-4,249,405,263,-173,-381,-284
-180,-93,87,137,-133,-3,263,449,286,-205,-431,-315
-201,-97,104,149,-152,3,280,493,309,-250,-496,-349
-229,-102,127,165,-178,12,303,537,323,-317,-582,-398
-251,-109,141,180,-196,16,325,591,334,-385,-674,-453
-268,-115,153,192,-210,18,358,631,336,-473,-787,-523
-299,-136,163,217,-231,14,384,668,329,-577,-924,-596
-334,-155,179,244,-256,11,407,692,326,-684,-1065,-672
-348,-166,182,257,-265,8,434,696,321,-783,-1205,-752
-357,-187,170,272,-263,-8,429,700,317,-857,-1316,-802
-347,-188,159,267,-252,-15,416,663,312,-881,-1363,-818
-331,-184,147,257,-239,-18,403,600,303,-850,-1350,-805
-312,-186,126,249,-219,-30,356,525,292,-763,-1263,-750
-255,-162,94,208,-174,-33,287,429,278,-594,-1081,-643
-172,-117,55,145,-113,-31,212,335,257,-379,-824,-492
-93,-71,22,82,-57,-25,148,239,221,-181,-539,-328
-44,-41,3,42,-23,-19,95,167,181,-27,-287,-191
-13,-24,-11,19,-1,-17,54,121,151,74,-105,-87
4,-19,-23,8,13,-20,37,85,126,128,11,-10
10,-21,-31,6,20,-26,34,64,108,150,79,30
18,-16,-34,-1,27,-25,31,59,91,154,111,49
24,-15,-39,-5,32,-27,28,60,77,148,126,57
23,-15,-38,-4,31,-26,25,60,75,141,127,59
24,-10,-34,-7,29,-22,26,60,75,134,119,54
25,-10,-35,-7,30,-22,33,60,75,127,116,48
26,-9,-35,-8,30,-21,38,65,75,121,109,45
21,-14,-35,-3,28,-24,45,70,75,123,104,40
9,-26,-35,9,22,-30,55,73,81,126,99,36
3,-25,-28,11,16,-26,60,77,87,124,88,30
-2,-22,-20,12,9,-21,60,81,94,127,77,20
-7,-19,-12,13,3,-15,60,88,100,136,65,10
-12,-16,-4,14,-4,-10,56,102,107,143,56,0
-12,-14,-2,14,-5,-8,54,104,115,152,55,-5
-5,-11,-6,8,0,-8,55,99,114,162,55,-7
-2,-10,-8,6,3,-9,55,97,116,163,56,-10
1,-10,-11,5,6,-11,55,92,120,159,55,-13
4,-10,-14,3,9,-12,54,89,120,160,57,-16
6,-10,-16,3,11,-12,50,85,118,156,60,-11
7,-12,-20,3,14,-16,51,80,111,155,60,-6
-2,-22,-20,12,9,-20,47,76,107,154,64,-2
-7,-28,-21,18,7,-25,45,71,100,151,65,3
0,-26,-25,13,13,-25,45,66,95,149,68,7
-1,-25,-25,13,12,-25,42,62,89,145,72,12
4,-23,-27,10,16,-25,39,60,86,143,75,15
10,-20,-30,5,20,-25,36,57,83,139,78,15
14,-19,-33,3,23,-26,33,54,80,143,81,15
13,-23,-36,5,25,-29,30,51,78,145,85,15
19,-20,-39,0,29,-30,31,50,74,144,88,15
20,-21,-41,0,30,-31,35,55,78,146,92,19
15,-14,-29,0,22,-21,39,58,82,143,94,22
35,20,-15,-27,24,3,45,68,102,165,100,27
46,43,-3,-44,24,20,47,87,127,179,111,32
79,81,2,-80,38,42,23,91,137,190,130,48
110,115,5,-113,53,59,-79,92,142,208,156,64
140,163,23,-152,58,93,-213,77,135,229,195,100
195,228,33,-211,81,130,-254,42,133,265,231,153
211,205,-6,-208,108,99,-241,-1,125,249,224,153
204,144,-60,-174,132,41,-230,-32,113,217,207,147
160,87,-73,-123,116,7,-142,-3,97,186,185,121
104,35,-69,-70,87,-17,-30,39,91,149,147,63
66,-4,-70,-31,68,-37,14,44,86,134,117,36
31,-37,-67,3,49,-51,38,46,83,126,97,20
10,-54,-64,23,37,-58,44,44,81,123,98,18
-1,-67,-66,35,33,-66,54,51,71,111,88,8
-4,-64,-60,34,29,-62,54,67,84,112,88,4
-6,-65,-59,35,27,-61,55,61,71,101,81,-5
-3,-67,-64,35,31,-65,64,75,92,119,75,-2
-13,-61,-49,37,19,-55,51,65,82,116,66,0
-34,-68,-34,52,0,-51,100,138,239,244,28,-86
-22,16,37,3,-30,27,-12,-129,268,769,283,-4
123,303,180,-214,-29,242,-378,-1160,-389,1536,1120,484
496,772,276,-634,110,524,-1146,-2525,-1457,2370,2561,1403
1068,953,-116,-1010,592,419,-2062,-3635,-2586,2430,3745,2367
1293,770,-523,-1032,908,123,-2175,-3667,-3192,139,3111,2535
1043,512,-532,-777,787,-10,-1633,-2728,-2928,-2354,1208,1927
739,145,-595,-442,667,-225,-939,-1540,-1822,-1986,150,1195
286,-26,-312,-130,300,-169,-299,-534,-658,-823,-45,477
-38,-48,-10,44,-14,-29,70,15,-52,-278,-147,-49
-97,-96,1,97,-49,-47,194,204,167,-35,-145,-176
-128,-86,41,107,-85,-22,191,214,160,-74,-152,-165
-123,-92,31,107,-77,-30,196,231,186,-35,-150,-170
-130,-85,46,107,-87,-19,195,240,194,-59,-148,-163
-130,-85,45,107,-87,-20,194,244,193,-53,-151,-165
-129,-86,44,107,-86,-21,196,254,197,-56,-152,-177
-131,-84,47,107,-89,-18,195,258,194,-64,-167,-197
-128,-86,42,107,-85,-22,201,272,202,-59,-178,-199
-132,-84,48,107,-89,-18,199,273,199,-81,-196,-202
-133,-86,48,110,-90,-19,203,283,206,-97,-218,-212
-136,-84,53,110,-94,-15,205,295,204,-119,-242,-227
-153,-99,54,125,-103,-22,204,311,209,-141,-266,-245
-164,-107,58,135,-110,-24,210,332,221,-169,-298,-256
-168,-108,60,138,-114,-23,221,358,229,-188,-334,-279
-178,-112,67,145,-123,-22,228,392,243,-219,-379,-303
-193,-115,78,154,-135,-18,248,429,268,-257,-432,-322
-211,-123,88,167,-149,-18,265,473,282,-302,-494,-362
-227,-127,101,177,-164,-13,272,522,295,-363,-578,-420
-254,-135,119,194,-186,-8,300,564,314,-441,-671,-472
-268,-138,130,203,-199,-4,326,599,320,-531,-780,-529
-297,-151,146,224,-222,-2,352,636,314,-636,-909,-595
-332,-172,160,252,-246,-6,376,651,307,-741,-1047,-672
-333,-174,159,254,-246,-7,396,649,301,-841,-1181,-750
-334,-183,150,258,-242,-16,408,653,294,-912,-1282,-795
-324,-184,140,254,-232,-22,399,627,289,-924,-1321,-808
-306,-176,131,241,-218,-22,380,569,280,-904,-1299,-799
-287,-173,113,230,-200,-30,337,492,269,-812,-1210,-750
-242,-156,87,199,-164,-34,276,404,261,-637,-1026,-642
-173,-123,50,148,-111,-36,201,314,241,-422,-774,-491
-113,-92,22,102,-67,-35,132,228,207,-207,-503,-333
-73,-64,9,68,-40,-27,84,169,180,-50,-261,-193
-37,-42,-5,39,-15,-23,49,122,151,46,-95,-88
-21,-33,-13,27,-4,-23,39,82,118,97,8,-32
-10,-29,-19,19,5,-24,33,65,107,118,66,-3
2,-24,-26,12,14,-25,26,65,101,113,100,24
12,-21,-32,5,22,-26,30,65,94,107,106,35
25,-14,-39,-6,33,-26,30,65,88,103,98,35
14,-23,-37,5,26,-30,31,65,81,96,95,35
-1,-32,-31,16,15,-31,35,66,83,92,90,35
-3,-29,-27,16,12,-28,34,75,88,93,86,35
-7,-30,-22,19,7,-26,37,84,91,96,81,34
-8,-25,-18,17,6,-21,41,88,95,95,74,25
-11,-25,-14,19,2,-19,46,92,99,100,68,15
-18,-24,-5,21,-6,-15,49,96,104,100,62,5
-25,-20,5,22,-15,-7,51,102,106,101,54,-3
-33,-18,15,25,-24,-1,55,109,115,117,52,-7
-31,-15,17,23,-24,1,53,107,124,130,56,-11
-26,-12,14,18,-20,1,48,102,125,135,55,-14
-25,-10,16,17,-20,2,45,99,125,142,55,-19
-21,-7,15,13,-17,4,42,95,125,145,55,-19
-20,-4,16,12,-17,6,37,92,125,145,55,-14
-19,-5,14,12,-16,4,35,88,124,150,59,-11
-14,-5,10,10,-12,2,35,84,119,150,66,-8
-16,-6,10,11,-13,2,35,81,114,146,70,-3
-20,-12,8,16,-14,-2,35,78,110,144,72,0
-22,-18,5,19,-13,-6,35,73,105,141,76,4
-29,-24,5,26,-17,-9,35,70,100,138,77,5
-37,-29,9,33,-23,-10,38,74,100,135,82,5
-40,-27,14,33,-27,-7,40,75,100,135,83,9
-43,-24,19,34,-31,-2,44,77,100,142,87,10
-45,-24,21,34,-33,-1,45,81,99,143,94,11
-24,5,29,9,-26,17,50,81,102,153,104,26
10,39,30,-25,-10,34,49,96,117,169,118,43
24,67,42,-46,-9,54,33,105,134,180,128,52
49,105,55,-78,-3,80,-30,114,147,204,157,67
82,136,55,-110,13,95,-169,91,142,210,181,84
117,199,82,-158,17,140,-259,35,132,232,217,129
162,221,59,-192,51,140,-248,19,123,264,242,154
161,176,15,-169,73,95,-240,-13,115,244,232,149
114,124,9,-119,52,66,-190,-9,106,208,221,148
58,52,-6,-55,32,23,-71,43,99,176,167,100
18,3,-15,-10,16,-6,-3,50,93,155,137,57
7,-23,-30,8,19,-26,27,55,84,146,121,36
-4,-36,-31,20,14,-33,37,57,82,143,108,30
-30,-58,-28,44,-1,-43,46,51,68,129,104,26
-34,-67,-33,51,0,-50,54,67,72,130,102,18
-37,-62,-26,50,-5,-44,50,65,57,114,100,15
-33,-69,-36,51,2,-52,53,81,75,126,93,6
-47,-59,-12,53,-17,-35,35,71,69,124,102,4
-81,-75,6,77,-43,-34,95,134,184,203,45,-58
-59,-11,48,35,-54,19,33,-8,279,635,197,-19
55,233,178,-144,-61,205,-269,-870,-256,1319,874,365
366,678,313,-522,26,495,-927,-2194,-1286,2073,2152,1181
899,962,62,-930,418,512,-1884,-3437,-2459,2407,3512,2198
1255,833,-422,-1043,838,205,-2188,-3718,-3184,710,3377,2573
1114,582,-532,-848,823,25,-1736,-2913,-3052,-2009,1583,2075
820,220,-599,-520,709,-189,-1080,-1752,-2063,-2174,283,1361
418,-8,-427,-205,423,-217,-416,-697,-857,-955,-1,637
22,-42,-64,11,43,-53,19,-60,-154,-347,-144,46
-86,-97,-10,92,-38,-53,182,181,128,-37,-164,-151
-107,-92,16,99,-61,-38,193,207,140,-45,-160,-149
-105,-87,18,96,-62,-34,195,224,160,-17,-161,-150
-103,-85,18,94,-60,-33,202,242,178,-25,-151,-155
-105,-77,28,90,-66,-24,198,243,171,-29,-154,-155
-101,-77,25,89,-62,-26,201,252,183,-19,-146,-156
-108,-73,35,91,-71,-19,199,253,178,-30,-152,-162
-109,-76,33,92,-70,-22,200,264,187,-27,-160,-169
-115,-74,42,95,-78,-16,200,268,185,-47,-183,-173
-118,-76,42,97,-80,-16,200,281,193,-48,-201,-182
-121,-74,46,97,-83,-14,200,301,199,-73,-222,-195
-126,-77,49,102,-87,-14,200,317,205,-90,-252,-215
-138,-87,51,112,-94,-18,210,333,213,-111,-283,-236
-149,-89,60,119,-105,-15,224,362,231,-134,-317,-255
-161,-91,70,126,-116,-11,231,393,251,-163,-362,-281
-169,-88,80,128,-124,-4,248,429,263,-196,-415,-310
-186,-96,90,141,-138,-3,266,466,287,-240,-480,-349
-211,-110,101,160,-155,-5,276,506,308,-297,-556,-393
-226,-111,115,168,-170,2,298,553,326,-369,-650,-443
-251,-120,131,185,-191,6,327,597,338,-458,-762,-506
-281,-131,150,206,-215,9,354,635,334,-556,-884,-577
-312,-154,158,233,-235,2,378,666,327,-663,-1022,-648
-326,-176,150,251,-238,-13,403,682,321,-759,-1162,-717
-328,-187,141,257,-234,-23,412,677,314,-833,-1273,-775
-324,-192,132,258,-228,-29,409,642,308,-857,-1335,-803
-303,-180,123,242,-213,-28,388,584,301,-840,-1328,-796
-282,-173,109,227,-195,-32,341,517,290,-765,-1245,-749
-244,-162,81,203,-162,-40,283,424,277,-604,-1073,-651
-173,-121,53,147,-113,-34,206,325,258,-394,-827,-505
-98,-75,23,86,-60,-26,141,243,229,-191,-555,-350
-41,-43,-2,42,-19,-23,88,171,201,-33,-302,-208
-3,-16,-13,10,5,-14,43,120,167,74,-116,-99
9,-8,-17,0,13,-13,23,85,137,124,4,-37
12,-10,-23,-1,18,-16,18,69,121,145,71,1
19,-10,-29,-5,24,-19,11,65,108,146,98,17
24,-10,-34,-6,29,-22,4,60,100,141,110,27
29,-10,-39,-10,34,-24,-3,56,97,140,105,39
29,-11,-40,-9,35,-26,-3,51,93,135,102,42
24,-15,-40,-4,33,-27,4,52,90,135,99,36
20,-20,-40,0,30,-30,11,56,85,130,94,29
24,-17,-40,-4,32,-28,17,58,87,130,91,23
25,-14,-39,-5,32,-26,24,61,91,129,87,16
15,-15,-30,0,23,-23,29,70,95,125,82,10
10,-10,-20,0,15,-14,25,76,103,125,76,3
0,-10,-10,5,5,-10,25,85,111,127,72,-4
-9,-9,1,9,-5,-4,24,91,120,139,65,-11
-13,-4,9,8,-10,2,20,89,124,153,61,-19
-19,-1,18,10,-19,8,20,90,121,155,65,-26
-13,11,24,0,-18,17,23,90,118,159,65,-28
-3,12,15,-5,-9,13,25,89,115,160,66,-22
-2,3,6,-1,-4,4,25,85,112,155,70,-18
0,-2,-2,1,1,-2,25,80,110,155,70,-14
1,-11,-13,5,7,-12,25,76,108,155,72,-9
1,-17,-18,8,10,-18,24,71,102,155,77,-5
-1,-24,-23,13,11,-23,20,66,97,155,76,0
1,-25,-26,13,14,-25,20,64,94,153,75,0
4,-25,-29,10,17,-27,20,65,89,148,74,1
4,-30,-34,13,19,-32,20,65,84,145,76,5
4,-30,-34,13,19,-31,20,65,81,142,87,5
1,-29,-30,14,16,-30,23,65,80,136,91,7
4,-24,-27,10,16,-25,25,65,79,136,94,12
2,-23,-25,11,14,-24,25,70,74,134,97,15
3,-17,-21,7,12,-19,25,70,75,136,100,18
5,-16,-21,5,14,-18,24,70,77,133,104,23
7,-6,-13,0,10,-9,36,72,89,143,120,24
27,29,2,-28,12,15,33,85,111,166,136,34
39,52,13,-46,13,33,25,97,124,171,141,38
79,88,9,-84,35,48,-8,94,147,199,163,59
109,115,5,-113,52,60,-147,88,143,213,190,85
154,179,25,-167,64,102,-253,69,150,238,230,131
212,224,12,-218,100,118,-249,38,160,267,247,171
205,160,-45,-183,125,57,-240,-14,124,235,225,155
179,99,-80,-138,129,9,-198,-23,111,211,210,144
101,43,-58,-72,79,-7,-96,25,107,180,180,100
36,-6,-42,-14,39,-24,-23,38,99,149,147,64
4,-45,-50,21,27,-47,11,38,92,136,119,56
-16,-69,-53,43,18,-61,33,47,87,132,110,44
-18,-73,-55,46,19,-64,44,45,86,122,105,36
-22,-78,-56,50,18,-67,47,61,94,120,95,26
-17,-71,-53,44,18,-62,43,56,88,109,95,25
-16,-73,-57,45,20,-64,58,73,100,114,79,11
-13,-67,-54,40,21,-60,45,67,90,128,88,21
-29,-67,-38,48,5,-52,99,103,159,167,52,-36
-32,-23,9,27,-21,-7,70,47,310,521,140,-42
34,143,110,-89,-38,126,-176,-715,-85,1186,688,263
290,526,236,-408,26,381,-734,-2068,-1129,1885,1892,1000
815,863,48,-839,383,455,-1716,-3456,-2367,2382,3379,2041
1255,766,-489,-1010,872,138,-2199,-3948,-3152,1209,3558,2556
1263,535,-728,-899,995,-96,-1854,-3223,-3159,-1614,1877,2146
977,233,-744,-605,860,-255,-1237,-2050,-2326,-2380,353,1416
548,-12,-561,-268,554,-286,-547,-918,-1068,-1174,-32,722
95,-38,-134,-28,115,-86,-44,-164,-242,-432,-129,116
-110,-91,20,100,-65,-35,176,161,121,-55,-148,-143
-116,-98,18,107,-66,-39,206,221,179,-23,-140,-145
-111,-88,23,100,-67,-33,207,234,184,-16,-150,-143
-110,-93,17,101,-63,-38,220,253,215,0,-140,-151
-105,-82,23,94,-63,-29,219,248,205,-20,-148,-170
-106,-88,19,97,-62,-34,227,267,224,0,-144,-172
-117,-88,29,102,-73,-29,228,271,226,-17,-152,-175
-124,-91,33,107,-79,-29,231,285,231,-6,-159,-179
-128,-89,39,109,-84,-25,230,291,229,-28,-175,-182
-131,-90,41,111,-86,-25,230,294,231,-42,-196,-193
-134,-90,44,111,-89,-23,230,305,237,-54,-217,-195
-137,-90,47,113,-92,-21,234,327,251,-71,-243,-212
-144,-90,54,117,-99,-18,247,351,261,-95,-275,-229
-156,-90,66,123,-111,-12,255,376,269,-116,-307,-253
-163,-91,72,127,-118,-9,258,416,288,-149,-349,-283
-176,-89,87,132,-131,-1,272,454,307,-180,-401,-311
-194,-96,98,145,-146,1,291,492,330,-214,-459,-346
-218,-112,106,165,-162,-3,307,538,352,-269,-533,-383
-236,-109,128,172,-182,9,326,587,365,-331,-622,-433
-253,-111,143,182,-198,16,362,628,366,-417,-732,-492
-288,-132,156,210,-222,12,387,670,364,-520,-860,-565
-310,-143,167,226,-239,12,411,711,361,-631,-999,-644
-327,-165,161,246,-244,-2,438,718,360,-736,-1138,-723
-339,-186,153,262,-246,-16,440,707,359,-820,-1269,-787
-339,-194,145,266,-242,-24,441,694,343,-867,-1341,-818
-327,-189,138,258,-232,-26,430,642,322,-861,-1343,-822
-301,-176,125,238,-212,-25,390,572,306,-799,-1300,-773
-270,-169,101,219,-185,-34,328,486,288,-658,-1155,-682
-216,-141,76,178,-145,-32,251,388,269,-460,-920,-552
-148,-100,47,124,-97,-26,175,290,240,-248,-641,-392
-88,-70,18,79,-53,-26,112,203,202,-74,-366,-236
-43,-41,2,42,-22,-19,72,144,168,44,-155,-111
-10,-18,-8,15,-1,-13,42,98,142,115,-16,-30
6,-15,-21,5,14,-17,29,79,122,142,69,15
14,-15,-29,1,22,-22,31,65,110,146,112,38
19,-15,-33,-1,26,-24,28,63,103,141,129,48
23,-15,-38,-4,31,-27,25,66,95,139,131,45
24,-14,-39,-5,32,-26,24,64,87,136,125,45
9,-27,-35,10,22,-31,27,66,81,134,123,45
1,-32,-33,16,17,-32,34,64,80,131,118,45
4,-26,-30,11,17,-28,40,67,80,126,116,45
3,-24,-26,11,15,-25,45,72,75,124,109,38
6,-19,-25,7,15,-22,45,76,75,119,97,29
5,-16,-21,6,13,-18,47,80,76,116,86,21
-3,-12,-10,8,4,-11,50,84,81,117,74,12
-9,-10,0,9,-5,-5,50,89,83,122,71,5
-17,-7,10,11,-13,2,53,88,90,143,68,-2
-22,-4,17,13,-19,6,56,84,101,154,65,-9
-23,-1,22,11,-23,11,54,82,98,150,62,-18
-29,0,29,15,-29,14,51,79,95,148,59,-23
-31,-4,27,17,-29,11,48,76,92,144,64,-21
-29,-7,22,17,-25,8,46,74,90,141,65,-18
-29,-9,19,19,-24,5,42,70,88,140,67,-16
-28,-13,15,20,-22,1,40,63,81,136,70,-12
-26,-15,12,20,-18,-1,38,59,76,135,71,-10
-26,-18,8,22,-17,-4,33,53,71,134,76,-8
-25,-20,5,22,-15,-7,30,47,64,131,79,-2
-23,-20,2,21,-13,-9,27,47,61,129,83,2
-20,-20,0,20,-10,-10,22,50,64,132,89,6
-17,-20,-4,19,-6,-12,19,54,67,135,92,11
-15,-20,-5,18,-5,-12,16,56,70,135,96,15
-8,-9,-1,8,-3,-5,11,60,72,140,103,22
4,15,11,-10,-4,13,10,61,84,138,108,30
27,46,19,-37,4,33,4,67,102,149,123,38
33,64,31,-49,1,47,3,84,114,165,137,43
46,90,44,-68,1,67,-15,80,139,185,158,56
87,130,43,-109,21,87,-135,63,149,214,183,78
132,185,53,-158,39,118,-261,44,139,225,208,115
174,223,49,-199,63,136,-274,24,132,243,239,148
193,193,0,-193,96,97,-254,-19,122,239,230,158
196,152,-43,-173,119,54,-230,-52,113,218,220,154
130,96,-34,-113,82,30,-136,-21,101,193,208,116
45,23,-22,-34,33,1,-45,2,85,164,165,68
19,-7,-26,-6,23,-17,-6,9,72,148,128,39
7,-17,-25,6,16,-21,11,26,73,142,121,31
-12,-36,-25,24,7,-30,16,23,61,127,113,29
-21,-47,-26,35,3,-37,30,36,66,127,100,21
-21,-45,-24,34,2,-35,29,30,52,124,100,23
-22,-55,-33,39,5,-44,48,47,60,124,87,9
-23,-52,-28,37,3,-40,37,47,66,130,109,19
-35,-49,-15,42,-10,-32,80,82,124,161,53,-14
-43,-12,31,27,-37,9,60,56,304,509,133,-29
24,154,129,-89,-53,141,-189,-664,-38,1181,695,251
285,535,250,-410,18,392,-728,-2009,-1060,1890,1879,984
804,882,78,-843,363,480,-1709,-3420,-2289,2412,3382,2025
1270,806,-463,-1038,866,171,-2239,-3971,-3130,1283,3595,2562
1271,559,-712,-915,991,-76,-1904,-3277,-3209,-1581,1924,2173
987,258,-729,-622,857,-235,-1284,-2104,-2404,-2436,370,1447
558,11,-546,-284,552,-267,-596,-946,-1131,-1229,-41,738
97,-30,-127,-33,113,-79,-88,-171,-276,-464,-134,123
-71,-74,-2,73,-34,-38,138,165,98,-71,-155,-142
-94,-83,11,88,-52,-36,174,234,162,-42,-144,-151
-109,-77,32,93,-70,-22,173,230,170,-40,-153,-154
-111,-83,29,97,-70,-27,192,255,194,-17,-141,-158
-122,-77,45,100,-84,-16,194,256,183,-48,-147,-160
-118,-82,36,100,-77,-23,196,285,195,-31,-147,-165
-119,-75,44,97,-81,-15,195,291,186,-55,-163,-165
-119,-76,44,97,-81,-16,195,289,199,-48,-173,-167
-120,-75,45,97,-82,-15,195,291,209,-62,-189,-178
-123,-75,47,99,-85,-14,195,293,213,-60,-210,-187
-125,-75,50,100,-87,-12,195,313,217,-80,-230,-191
-130,-76,54,102,-91,-11,195,331,221,-102,-252,-210
-136,-81,55,108,-96,-12,194,350,226,-118,-283,-230
-140,-79,60,109,-100,-9,207,378,240,-149,-316,-253
-152,-83,69,117,-110,-7,220,409,260,-173,-359,-281
-169,-85,84,127,-126,-1,233,441,275,-202,-410,-309
-183,-85,98,134,-140,6,250,489,297,-245,-465,-342
-197,-89,107,143,-152,9,263,538,318,-292,-541,-384
-222,-101,121,161,-172,10,288,586,334,-356,-627,-439
-251,-109,142,180,-196,16,314,633,348,-438,-736,-500
-281,-120,161,200,-220,20,339,668,359,-535,-863,-567
-311,-141,170,226,-240,14,372,705,359,-642,-999,-645
-323,-160,162,241,-242,1,397,716,349,-739,-1140,-713
-333,-180,153,257,-243,-13,400,712,341,-822,-1269,-776
-328,-183,145,255,-236,-19,393,701,332,-854,-1347,-810
-309,-173,136,240,-222,-18,383,648,323,-852,-1347,-807
-291,-168,123,229,-207,-22,351,578,312,-799,-1302,-776
-252,-161,91,206,-171,-35,296,488,296,-660,-1159,-687
-199,-136,62,167,-130,-37,225,391,279,-468,-922,-551
-139,-98,41,118,-90,-29,151,298,250,-255,-649,-390
-82,-66,16,74,-49,-24,92,208,214,-83,-378,-236
-42,-43,-1,43,-20,-22,54,147,178,37,-173,-117
-10,-29,-19,20,4,-24,31,108,146,105,-28,-39
10,-23,-32,7,21,-28,20,89,125,125,50,3
12,-25,-37,7,25,-31,17,74,117,131,90,19
15,-25,-40,5,28,-32,13,64,111,141,108,22
20,-25,-45,2,33,-35,10,65,103,141,104,28
19,-26,-45,4,32,-35,5,65,100,132,106,34
22,-24,-47,1,35,-35,8,65,100,126,105,39
29,-21,-50,-4,40,-35,26,65,98,117,105,36
31,-20,-51,-6,41,-35,31,67,94,112,105,27
27,-20,-47,-3,37,-34,33,71,95,110,95,21
18,-20,-38,1,28,-29,36,84,94,111,86,13
7,-20,-27,6,17,-23,33,93,96,109,78,6
-2,-22,-20,13,9,-21,41,93,112,117,68,-1
-10,-25,-15,18,3,-20,46,91,119,132,62,-5
-14,-25,-10,20,-1,-17,45,89,125,138,60,-9
-18,-25,-7,22,-5,-16,44,90,132,148,56,-12
-25,-25,-1,25,-11,-13,40,89,129,158,54,-17
-22,-24,-2,23,-10,-13,40,91,130,160,50,-20
-15,-21,-6,18,-5,-13,38,87,130,160,51,-17
-15,-20,-5,18,-5,-11,34,79,130,155,56,-14
-15,-20,-5,18,-5,-12,36,73,128,151,59,-11
-15,-20,-5,18,-5,-12,35,65,121,149,65,-8
-14,-20,-6,17,-4,-12,35,58,114,144,75,-5
-13,-22,-9,18,-2,-15,34,51,108,141,80,-4
-14,-26,-12,20,-1,-18,31,45,101,137,79,0
-14,-29,-15,23,0,-22,30,45,95,135,83,5
-15,-32,-17,24,1,-24,30,45,100,135,85,7
-15,-36,-21,25,3,-28,30,45,100,132,85,12
-11,-29,-18,20,4,-23,30,45,101,129,88,14
-13,-23,-10,18,-1,-16,32,47,106,130,97,20
-10,-15,-5,12,-2,-9,39,50,104,140,100,28
9,13,4,-11,3,8,45,61,108,156,109,36
27,35,7,-31,10,20,40,78,114,171,121,43
46,70,24,-58,11,47,29,85,131,184,133,49
60,98,38,-79,11,67,-36,94,153,208,158,68
94,138,44,-116,25,91,-175,72,149,219,192,105
137,199,62,-168,38,130,-244,20,138,242,233,148
172,189,18,-181,77,103,-227,1,127,249,237,162
201,145,-55,-173,128,45,-221,-33,115,222,225,160
149,92,-57,-120,103,17,-163,-31,102,208,203,144
68,36,-31,-52,49,2,-52,29,88,184,159,93
25,-3,-28,-11,27,-16,8,35,71,149,131,48
-15,-47,-32,31,8,-39,29,35,68,126,108,29
-27,-60,-33,44,3,-46,32,36,63,117,108,31
-25,-61,-36,43,5,-48,47,33,56,110,93,19
-24,-59,-35,42,5,-46,51,38,58,123,96,20
-27,-61,-34,44,4,-47,61,34,42,103,78,8
-22,-60,-38,42,8,-48,60,47,67,133,84,13
-30,-58,-28,45,-1,-43,61,52,75,122,61,4
-62,-63,-1,63,-31,-32,117,119,233,294,39,-64
-39,35,74,2,-57,55,-21,-233,216,843,355,63
120,320,199,-220,-40,259,-395,-1346,-525,1568,1233,579
540,751,211,-646,165,480,-1209,-2812,-1709,2277,2743,1545
1093,875,-218,-984,656,328,-2091,-3874,-2820,2099,3745,2419
1347,668,-678,-1006,1012,-5,-2138,-3754,-3324,-52,2954,2472
1168,425,-743,-796,955,-159,-1620,-2789,-2988,-2326,1125,1874
804,111,-693,-457,748,-291,-946,-1577,-1854,-1970,85,1138
342,-14,-356,-163,349,-185,-298,-544,-694,-792,-82,445
-28,-43,-15,35,-6,-29,85,23,-72,-258,-159,-39
-111,-94,17,102,-64,-38,203,222,147,-15,-150,-156
-106,-80,25,93,-65,-27,217,231,147,-51,-151,-140
-111,-87,24,98,-67,-32,239,252,172,-10,-149,-148
-108,-80,29,94,-68,-25,233,261,176,-34,-140,-142
-111,-79,31,95,-71,-24,237,275,186,-29,-143,-151
-113,-81,32,96,-72,-24,241,284,196,-31,-141,-158
-117,-79,38,97,-78,-20,239,287,198,-39,-159,-164
-119,-81,38,100,-79,-22,237,299,210,-31,-173,-176
-123,-79,44,101,-83,-17,228,309,210,-55,-186,-183
-125,-81,44,102,-85,-18,223,324,221,-64,-196,-192
-129,-80,49,104,-89,-15,216,335,223,-82,-221,-204
-132,-80,52,106,-92,-14,209,353,228,-97,-249,-218
-138,-81,57,109,-97,-11,206,371,237,-117,-280,-236
-148,-79,69,113,-108,-5,213,400,255,-137,-317,-263
-164,-83,81,123,-123,-1,218,436,278,-172,-364,-290
-177,-93,84,134,-130,-4,237,474,291,-211,-416,-324
-194,-97,97,145,-145,0,262,522,310,-250,-481,-364
-223,-93,130,158,-176,19,295,574,338,-301,-556,-397
-249,-101,148,174,-198,23,321,623,354,-376,-648,-451
-284,-123,161,203,-222,18,341,665,355,-468,-768,-515
-313,-131,182,222,-248,25,380,706,355,-566,-900,-587
-343,-150,192,246,-267,21,400,732,355,-676,-1048,-669
-356,-170,186,263,-271,8,420,725,355,-777,-1187,-745
-358,-184,174,270,-265,-5,428,721,355,-843,-1300,-805
-366,-202,163,284,-265,-19,413,695,346,-867,-1346,-818
-344,-195,149,269,-246,-23,398,633,329,-837,-1320,-797
-310,-182,128,246,-219,-27,350,558,306,-747,-1241,-744
-259,-164,95,211,-177,-34,291,460,293,-581,-1061,-632
-190,-130,60,160,-124,-35,217,356,276,-374,-805,-482
-114,-84,30,99,-72,-27,139,264,231,-177,-525,-329
-50,-43,8,46,-29,-17,86,192,192,-18,-276,-191
-27,-36,-8,32,-9,-22,53,137,160,76,-94,-83
-14,-36,-23,25,5,-29,34,99,136,125,23,-17
8,-25,-33,9,21,-29,17,85,122,141,83,16
27,-15,-42,-6,35,-28,13,80,112,133,113,26
28,-13,-41,-7,35,-27,16,75,105,129,118,25
21,-19,-40,-1,30,-29,15,71,94,123,112,25
17,-22,-39,3,28,-31,20,66,92,117,110,25
6,-28,-34,11,21,-31,20,67,96,115,105,25
6,-29,-36,12,21,-32,21,72,94,115,102,23
9,-24,-33,7,21,-28,26,75,99,115,99,16
7,-19,-26,6,17,-22,29,80,100,115,91,12
5,-15,-19,5,13,-17,34,83,99,115,84,6
3,-10,-12,4,8,-11,35,89,107,115,78,0
0,-5,-6,3,4,-6,35,90,117,126,69,-5
-8,-8,0,8,-4,-4,39,90,124,137,63,-10
-18,-13,5,15,-11,-4,40,89,129,143,60,-9
-19,-14,5,16,-11,-4,39,84,125,153,61,-11
-16,-10,6,13,-11,-1,33,85,125,156,60,-15
-20,-10,10,15,-15,0,26,83,124,154,60,-15
-20,-10,10,15,-15,0,19,76,119,151,60,-13
-17,-10,8,13,-13,-1,12,72,121,148,61,-10
-15,-10,5,12,-10,-2,6,65,117,146,66,-10
-11,-10,2,10,-7,-4,1,60,109,142,69,-10
-9,-11,-1,10,-4,-6,0,55,102,140,73,-10
-5,-9,-4,8,-1,-6,0,51,95,137,77,-10
-5,-11,-6,8,1,-8,0,50,87,135,82,-5
0,-9,-9,5,4,-9,0,50,82,135,84,-2
-1,-12,-11,6,5,-11,1,50,84,135,88,2
-12,-25,-13,19,1,-18,6,50,87,134,90,5
-5,-22,-17,14,6,-19,12,52,90,136,95,10
9,-1,-10,-3,10,-6,15,56,92,148,106,12
29,32,3,-31,13,17,21,71,106,168,121,23
35,52,17,-44,9,35,25,84,123,182,127,39
54,80,26,-68,14,53,8,102,142,192,141,49
86,113,27,-100,30,70,-84,107,156,224,167,72
124,164,40,-144,42,102,-219,67,146,248,199,106
189,222,33,-206,78,127,-254,31,134,258,244,148
193,181,-12,-187,103,84,-238,15,122,258,248,158
194,134,-60,-164,127,36,-224,-5,111,233,234,138
146,89,-57,-117,101,16,-145,-10,97,199,206,126
48,16,-32,-32,40,-8,-46,21,89,171,166,88
19,-18,-37,0,28,-28,3,34,79,152,138,44
-1,-44,-43,23,21,-43,18,36,76,149,122,36
-14,-56,-43,36,15,-49,28,33,65,140,121,30
-19,-62,-43,41,12,-52,41,37,62,134,110,21
-20,-58,-37,39,8,-47,40,35,55,129,114,18
-20,-63,-42,41,11,-53,50,45,57,122,93,6
-18,-57,-39,37,11,-48,40,50,68,145,116,26
-31,-62,-31,47,0,-46,74,63,95,153,77,-14
-57,-48,9,53,-33,-19,94,95,286,419,88,-57
-1,98,99,-48,-50,98,-110,-473,91,1067,555,173
213,448,235,-331,-11,341,-584,-1737,-806,1816,1641,827
695,843,149,-769,272,496,-1526,-3177,-2028,2457,3190,1857
1230,830,-400,-1030,815,215,-2219,-3960,-3017,1696,3732,2548
1269,595,-674,-932,971,-39,-1998,-3472,-3279,-1123,2279,2308
998,319,-679,-659,838,-180,-1388,-2341,-2630,-2517,549,1592
641,36,-605,-338,623,-284,-694,-1149,-1361,-1436,-27,871
147,-28,-176,-59,162,-102,-135,-277,-390,-534,-119,228
-76,-65,12,70,-44,-26,140,132,60,-98,-157,-109
-92,-89,3,90,-47,-43,196,230,159,-7,-144,-139
-107,-82,25,94,-65,-28,192,227,154,-37,-154,-133
-103,-86,18,94,-60,-34,205,255,190,-4,-142,-141
-113,-77,36,95,-75,-20,196,256,182,-33,-146,-139
-114,-82,33,98,-74,-24,203,269,195,-10,-145,-144
-120,-75,45,97,-82,-15,197,273,193,-26,-160,-151
-123,-75,48,98,-85,-13,206,280,200,-17,-167,-157
-130,-76,54,103,-91,-11,226,289,204,-31,-181,-167
-134,-78,56,106,-95,-11,224,297,210,-52,-207,-182
-137,-82,54,109,-95,-14,226,317,218,-69,-229,-198
-145,-84,61,114,-102,-11,224,332,227,-83,-254,-210
-147,-88,59,118,-103,-14,225,351,241,-92,-271,-221
-152,-90,62,121,-107,-14,227,374,243,-122,-305,-250
-165,-91,74,127,-119,-8,236,405,263,-153,-351,-278
-176,-90,86,133,-131,-2,259,446,281,-185,-398,-301
-183,-91,92,137,-138,1,271,490,302,-226,-454,-332
-197,-96,101,146,-149,2,288,532,325,-277,-524,-369
-230,-104,126,167,-178,11,309,577,338,-344,-611,-423
-257,-119,138,188,-197,10,328,623,351,-427,-717,-484
-270,-125,144,198,-207,9,354,660,352,-520,-838,-550
-303,-144,159,223,-231,8,378,688,345,-626,-986,-632
-320,-165,155,242,-237,-5,411,707,342,-729,-1122,-702
-324,-177,147,250,-236,-15,427,711,337,-813,-1253,-767
-328,-188,140,258,-234,-24,420,695,333,-874,-1349,-814
-317,-185,132,250,-224,-26,415,653,327,-863,-1365,-814
-312,-186,127,249,-219,-29,383,582,308,-807,-1331,-790
-278,-172,106,225,-192,-33,321,495,287,-701,-1197,-716
-211,-136,75,174,-143,-30,251,393,271,-504,-974,-587
-146,-101,45,124,-95,-28,178,298,254,-292,-701,-432
-87,-65,22,76,-54,-21,117,213,220,-111,-427,-276
-38,-34,4,36,-21,-15,80,147,183,21,-210,-148
-6,-24,-18,15,7,-21,51,104,157,93,-57,-56
7,-23,-30,8,19,-27,28,82,131,128,34,-8
11,-19,-30,4,20,-25,25,79,116,133,84,22
13,-17,-30,2,22,-23,25,73,110,129,108,38
18,-14,-32,-2,26,-23,25,68,105,127,111,35
17,-19,-36,2,26,-27,25,61,100,124,105,33
15,-20,-34,3,24,-26,25,63,93,121,103,30
15,-21,-36,4,26,-29,36,65,91,120,98,26
18,-28,-45,5,32,-36,41,66,94,125,95,25
17,-25,-42,4,30,-33,46,70,97,125,92,21
8,-25,-34,9,22,-29,58,70,100,129,84,15
5,-23,-28,9,17,-25,60,80,104,130,78,10
1,-19,-20,9,11,-20,60,80,118,132,71,5
-5,-20,-16,13,5,-18,60,88,130,138,64,-1
-8,-20,-11,14,2,-15,60,97,139,148,62,-6
-12,-20,-9,16,-2,-14,60,94,143,157,65,-12
-15,-20,-5,18,-5,-12,55,93,140,165,68,-19
-20,-20,0,20,-10,-10,51,89,140,169,71,-17
-17,-19,-2,18,-7,-11,49,90,140,165,73,-12
-16,-22,-5,19,-5,-13,44,86,140,165,76,-10
-20,-25,-5,23,-7,-15,41,80,140,164,78,-5
-20,-25,-5,23,-7,-15,37,75,136,160,81,-1
-20,-25,-5,23,-7,-15,35,69,134,160,84,1
-20,-25,-4,23,-7,-14,35,63,131,160,87,7
-26,-26,0,26,-13,-12,35,61,128,159,90,12
-27,-20,7,23,-16,-6,35,66,126,161,89,18
-21,-10,11,15,-16,1,34,69,124,158,97,24
1,18,18,-10,-9,18,30,75,140,168,114,28
17,40,23,-29,-3,31,15,79,150,186,130,34
30,53,23,-42,3,38,14,70,158,188,141,44
59,99,40,-80,10,69,-33,57,167,208,157,62
94,152,58,-123,18,105,-166,47,158,228,188,88
145,210,65,-177,40,137,-251,26,152,242,226,125
180,221,41,-201,69,131,-246,-6,143,241,238,146
198,171,-26,-184,111,72,-249,-35,133,231,224,138
176,113,-63,-144,119,25,-210,-27,121,228,216,127
113,54,-59,-83,86,-3,-78,20,110,200,194,105
63,3,-60,-33,62,-28,-3,33,101,165,156,66
27,-34,-60,4,44,-47,20,38,95,152,129,40
10,-49,-60,20,35,-54,43,46,94,150,129,38
-4,-64,-60,34,28,-62,55,42,83,136,116,27
-7,-61,-54,34,24,-58,60,49,88,137,114,23
-11,-59,-48,35,18,-53,62,39,72,120,102,13
-17,-62,-44,40,13,-53,69,54,97,139,101,11
-22,-57,-35,40,7,-46,59,46,93,139,113,26
-47,-79,-33,63,-7,-56,117,130,235,237,53,-58
-34,-8,26,21,-30,9,33,-72,304,723,250,1
87,276,189,-182,-51,232,-316,-1039,-293,1480,1028,461
450,759,310,-604,70,534,-1040,-2346,-1282,2361,2427,1339
983,969,-14,-976,498,477,-1975,-3496,-2426,2568,3692,2325
1299,791,-508,-1045,903,141,-2179,-3650,-3188,432,3250,2587
1172,535,-636,-853,904,-50,-1667,-2767,-3004,-2236,1375,2028
787,158,-629,-472,708,-235,-992,-1609,-1946,-2082,207,1294
335,-32,-367,-151,351,-199,-342,-574,-756,-862,-20,557
-13,-49,-36,31,12,-43,58,17,-106,-283,-136,-6
-103,-96,7,100,-55,-45,194,221,125,-17,-136,-159
-100,-86,14,92,-57,-36,192,237,144,-54,-141,-151
-103,-87,16,95,-59,-36,197,245,156,-19,-141,-156
-101,-83,18,92,-59,-32,201,260,167,-33,-138,-154
-105,-79,26,92,-65,-26,193,264,173,-31,-142,-155
-104,-81,23,92,-64,-28,197,273,178,-24,-137,-155
-105,-79,27,92,-66,-26,193,272,172,-43,-153,-166
-105,-81,24,92,-64,-28,196,280,177,-47,-169,-182
-105,-79,26,91,-65,-26,194,285,174,-71,-190,-195
-106,-81,25,93,-65,-27,200,296,175,-82,-205,-205
-104,-80,24,91,-64,-27,209,303,182,-104,-231,-215
-119,-84,35,101,-77,-24,210,317,188,-119,-251,-229
-137,-96,41,117,-89,-27,210,335,201,-149,-281,-247
-139,-100,40,119,-90,-30,218,355,215,-172,-314,-265
-159,-103,56,131,-107,-24,234,386,219,-192,-359,-288
-173,-105,68,139,-120,-18,245,423,237,-230,-418,-320
-187,-109,78,148,-132,-15,256,463,252,-276,-480,-355
-202,-116,86,158,-143,-15,277,504,268,-334,-556,-398
-209,-114,96,161,-152,-8,297,545,280,-407,-645,-455
-249,-132,117,191,-183,-8,323,577,286,-493,-751,-515
-275,-142,133,208,-204,-4,347,609,302,-593,-872,-580
-286,-145,141,216,-213,-2,370,636,299,-696,-1008,-653
-311,-173,138,242,-224,-17,390,631,289,-797,-1142,-722
-313,-179,133,245,-223,-22,404,617,282,-865,-1257,-777
-299,-171,129,235,-214,-21,402,609,274,-887,-1296,-799
-289,-164,125,226,-207,-20,369,557,266,-865,-1262,-784
-266,-158,108,212,-187,-25,329,479,255,-782,-1175,-732
-222,-143,79,183,-150,-32,272,404,243,-618,-1000,-630
-169,-112,58,140,-113,-27,200,311,233,-401,-763,-489
-114,-83,31,98,-72,-26,138,224,206,-196,-494,-333
-61,-53,8,57,-34,-22,87,161,169,-37,-251,-197
-26,-29,-3,27,-11,-15,57,117,140,66,-85,-105
-13,-24,-11,19,-1,-17,42,91,118,114,20,-42
-5,-25,-20,15,8,-22,30,80,102,136,82,-8
4,-25,-29,10,17,-27,30,76,88,143,110,7
10,-25,-35,8,23,-30,30,73,83,138,121,20
10,-25,-35,8,23,-30,29,69,80,131,118,26
8,-28,-36,10,23,-32,30,65,76,124,111,36
9,-31,-40,11,24,-36,29,67,73,117,104,35
7,-34,-40,14,24,-37,25,73,68,111,98,24
1,-37,-38,18,20,-37,25,76,72,113,89,17
-9,-40,-31,25,11,-36,24,80,81,117,77,9
-15,-39,-24,27,5,-31,30,85,79,120,66,3
-17,-35,-18,26,1,-26,36,85,85,124,55,-4
-22,-33,-10,28,-6,-21,35,86,94,127,50,-10
-24,-30,-6,27,-9,-17,35,90,101,135,51,-18
-23,-27,-3,25,-10,-15,35,90,104,146,50,-18
-24,-24,0,24,-11,-12,35,88,110,154,50,-14
-24,-22,2,23,-13,-9,31,83,118,156,50,-15
-25,-19,6,22,-15,-6,30,80,115,155,54,-15
-23,-21,2,21,-13,-9,30,77,112,155,62,-15
-19,-20,0,19,-9,-10,26,72,110,159,65,-14
-21,-20,0,20,-11,-10,24,69,106,161,66,-11
-15,-19,-4,18,-6,-11,27,65,105,157,64,-8
-8,-13,-5,11,-1,-9,29,65,108,155,66,-5
-6,-11,-5,9,0,-7,31,65,112,151,65,-2
-5,-3,2,4,-3,0,29,66,115,150,65,0
-13,-3,10,7,-11,3,31,64,118,154,75,3
-5,14,18,-5,-12,16,30,70,122,164,90,12
13,38,25,-26,-6,31,25,81,127,186,109,20
29,64,35,-47,-3,49,17,88,136,197,114,27
60,119,58,-90,1,88,-65,94,146,209,137,53
93,172,79,-133,6,126,-200,48,139,221,170,82
128,219,91,-173,18,155,-266,-7,126,232,192,116
149,210,60,-180,44,135,-256,-27,115,231,197,135
157,170,13,-164,71,92,-252,-31,108,221,193,136
127,125,-2,-126,64,61,-187,-7,100,217,198,133
65,51,-15,-58,40,18,-51,26,94,190,147,82
16,-7,-23,-4,19,-15,4,44,84,158,111,34
-21,-46,-25,34,3,-35,28,52,82,150,109,20
-28,-54,-26,41,-1,-40,46,52,86,146,105,14
-23,-61,-38,42,8,-49,56,56,82,134,95,12
-26,-67,-41,47,8,-54,67,61,89,136,95,9
-33,-70,-38,51,2,-54,79,56,78,118,85,6
-27,-71,-44,49,9,-58,86,73,94,140,85,4
-35,-67,-32,51,-2,-49,80,70,90,135,88,-22
-61,-77,-16,69,-22,-46,129,140,238,261,39,-88
-51,14,65,18,-58,39,11,-135,226,746,258,6
92,312,220,-202,-64,266,-349,-1107,-425,1469,1047,470
456,776,320,-616,67,548,-1097,-2413,-1451,2270,2411,1359
985,954,-31,-969,508,461,-1989,-3513,-2582,2336,3585,2313
1235,772,-463,-1002,849,154,-2106,-3541,-3215,170,3056,2502
1040,500,-540,-770,789,-20,-1578,-2636,-2893,-2263,1228,1937
748,139,-609,-443,678,-235,-914,-1491,-1775,-1925,200,1241
307,-34,-341,-136,324,-187,-283,-508,-659,-790,-17,508
-15,-59,-44,38,15,-51,89,29,-51,-256,-162,-36
-67,-86,-19,77,-24,-53,200,208,153,-21,-166,-165
-95,-76,19,85,-57,-29,206,223,155,-63,-169,-151
-91,-79,12,85,-51,-33,214,240,182,-25,-165,-160
-97,-73,24,85,-60,-24,218,251,190,-51,-159,-160
-99,-76,23,87,-61,-27,219,254,194,-39,-162,-158
