I,II,III,aVR,aVL,aVF,V1,V2,V3,V4,V5,V6
-80,31,111,24,-96,71,79,89,369,-76,17,-55
-86,-13,74,49,-80,30,70,53,300,-131,-8,-79
-106,-87,19,96,-62,-34,41,-25,204,-193,-41,-129
-131,-158,-27,145,-52,-92,1,-71,144,-235,-80,-160
-150,-184,-34,167,-58,-109,-28,-111,95,-269,-96,-180
-150,-195,-45,172,-52,-119,-45,-139,71,-316,-124,-196
-132,-219,-87,176,-23,-153,-45,-140,65,-336,-144,-216
-160,-248,-88,205,-36,-168,-45,-139,59,-333,-137,-212
-185,-260,-76,223,-54,-168,-46,-142,44,-337,-136,-207
-174,-262,-88,218,-43,-175,-44,-137,53,-332,-132,-206
-179,-239,-60,209,-59,-149,-56,-152,43,-339,-129,-198
-199,-239,-39,219,-80,-138,-45,-130,66,-330,-138,-203
-230,-278,-47,254,-91,-163,-26,-121,56,-340,-148,-215
-225,-298,-73,262,-76,-185,-34,-119,70,-331,-141,-220
-225,-276,-51,251,-86,-163,-18,-108,65,-336,-140,-211
-225,-276,-52,251,-86,-164,-36,-121,50,-340,-137,-206
-184,-269,-85,226,-50,-177,-35,-87,83,-338,-133,-201
-212,-271,-58,242,-77,-164,-36,-123,22,-347,-144,-207
-225,-352,-127,289,-49,-239,47,34,200,-298,-188,-272
-176,-156,21,166,-99,-67,76,80,330,-2,23,-98
265,326,61,-296,102,193,-373,-124,1209,1597,951,586
564,849,285,-707,139,566,-1088,-1200,596,1939,1533,1191
93,648,555,-371,-232,601,-1473,-2407,-1696,-216,792,869
-162,-109,53,136,-107,-28,-954,-1450,-1150,-857,7,109
-195,-280,-85,238,-54,-182,-276,-369,-140,-423,-130,-161
-273,-308,-35,291,-119,-171,-112,-231,-119,-414,-163,-215
-262,-392,-130,327,-66,-261,-47,-88,50,-355,-197,-266
-334,-399,-65,367,-134,-232,-40,-123,-17,-396,-198,-251
-347,-425,-78,386,-133,-251,-26,-79,56,-366,-209,-272
-346,-410,-64,378,-140,-237,-15,-82,25,-378,-221,-280
-351,-425,-73,388,-139,-249,-18,-68,33,-377,-217,-281
-343,-419,-76,381,-133,-247,-6,-50,35,-377,-213,-279
-336,-428,-92,382,-122,-259,-9,-46,45,-377,-211,-274
-346,-418,-72,382,-137,-245,3,-21,77,-365,-204,-276
-371,-402,-31,387,-170,-216,8,-17,68,-366,-204,-272
-358,-399,-42,379,-158,-220,22,11,106,-356,-194,-266
-316,-386,-71,351,-122,-228,34,35,135,-347,-193,-261
-302,-383,-81,343,-111,-231,55,83,182,-300,-192,-255
-306,-370,-64,339,-121,-217,84,134,239,-264,-167,-250
-279,-326,-47,303,-115,-186,97,190,304,-235,-131,-229
-278,-278,0,278,-139,-139,122,256,380,-196,-97,-194
-249,-238,12,243,-130,-113,148,308,462,-150,-74,-170
-233,-194,39,213,-136,-77,155,336,527,-98,-34,-135
-202,-155,47,179,-124,-54,147,342,565,-54,-6,-100
-158,-122,36,140,-97,-43,143,330,601,-3,31,-77
-196,-104,92,150,-143,-6,126,315,597,28,78,-64
-189,-107,81,148,-135,-12,87,264,536,23,71,-67
-192,-119,72,155,-132,-23,54,176,439,-24,57,-61
-208,-142,66,175,-136,-38,23,102,339,-94,19,-82
-216,-192,24,204,-120,-84,2,27,239,-132,-24,-118
-260,-243,17,251,-138,-113,-13,-33,138,-194,-56,-146
-251,-272,-21,262,-114,-147,-36,-80,80,-271,-110,-176
-244,-295,-51,270,-97,-173,-47,-110,37,-305,-128,-186
-283,-329,-46,306,-119,-187,-44,-110,20,-319,-134,-202
-305,-342,-38,324,-134,-190,-45,-120,17,-318,-146,-212
-300,-337,-37,319,-131,-187,-46,-129,8,-327,-142,-207
-309,-355,-46,333,-131,-201,-43,-130,3,-327,-139,-203
-300,-367,-66,333,-116,-216,-57,-135,-5,-322,-136,-215
-282,-362,-80,322,-101,-221,-72,-136,0,-319,-131,-219
-311,-359,-48,335,-132,-203,-65,-135,3,-314,-132,-202
-304,-357,-53,331,-125,-205,-60,-135,-9,-338,-150,-205
-292,-354,-62,323,-114,-208,-58,-136,-10,-339,-156,-207
-294,-359,-65,327,-114,-212,-49,-134,3,-324,-149,-201
-320,-378,-59,349,-130,-218,-58,-145,-24,-329,-165,-218
-355,-373,-18,364,-168,-195,-71,-156,-53,-334,-171,-224
-324,-359,-35,342,-144,-197,-62,-147,-48,-352,-170,-215
-294,-334,-40,314,-126,-187,-56,-141,-52,-357,-169,-210
-285,-342,-57,314,-114,-199,-49,-135,-48,-352,-172,-201
-267,-362,-95,315,-86,-228,-47,-126,-55,-360,-165,-213
-257,-335,-79,296,-89,-207,-51,-136,-71,-362,-161,-222
-258,-322,-64,290,-97,-192,-48,-153,-70,-352,-179,-219
-218,-308,-90,264,-64,-199,-59,-166,-68,-343,-169,-220
-230,-299,-69,265,-81,-184,-44,-165,-65,-331,-166,-209
-249,-296,-46,272,-101,-170,-19,-154,-62,-338,-172,-194
-219,-290,-71,254,-74,-180,-21,-146,-59,-351,-169,-185
-218,-287,-68,252,-75,-177,-19,-140,-56,-343,-174,-185
-207,-281,-74,244,-66,-177,-15,-137,-55,-338,-175,-185
-198,-277,-79,238,-59,-178,-15,-133,-49,-332,-174,-185
-197,-274,-78,236,-59,-176,-14,-130,-44,-326,-168,-185
-209,-275,-66,242,-71,-170,-9,-124,-39,-321,-149,-185
-174,-265,-91,220,-41,-178,-4,-131,-33,-316,-159,-178
-148,-254,-106,201,-21,-179,-1,-140,-27,-309,-181,-169
-148,-242,-93,195,-27,-167,-3,-133,-23,-306,-172,-160
-124,-237,-113,181,-5,-175,-8,-128,-19,-299,-166,-152
-116,-230,-113,173,-1,-171,-9,-122,-21,-301,-159,-147
-105,-226,-121,165,9,-173,7,-119,-20,-295,-152,-142
-111,-206,-95,159,-8,-151,14,-120,-20,-295,-148,-138
-102,-176,-74,139,-14,-124,8,-120,-20,-290,-145,-134
-128,-187,-59,157,-34,-122,13,-120,-14,-264,-142,-129
-105,-165,-59,135,-23,-112,7,-120,-22,-288,-137,-123
-34,-147,-113,91,39,-129,18,-109,-22,-272,-136,-115
-55,-156,-101,106,23,-128,36,-94,-14,-250,-122,-106
-57,-141,-84,100,13,-112,31,-82,1,-265,-114,-92
-35,-113,-78,74,22,-95,49,-67,23,-238,-104,-78
7,-52,-59,23,33,-55,71,-44,47,-211,-83,-67
30,-28,-58,-1,44,-43,104,-4,85,-190,-66,-51
33,-38,-71,3,52,-54,140,20,104,-190,-62,-47
42,-31,-73,-6,58,-52,98,-29,79,-189,-61,-42
33,-52,-84,10,59,-68,24,-97,21,-216,-67,-49
24,-72,-96,25,60,-84,11,-126,7,-236,-86,-60
-9,-94,-85,52,38,-89,34,-116,18,-220,-98,-72
-43,-131,-89,87,23,-110,17,-124,-22,-262,-137,-105
-63,-145,-82,104,9,-113,4,-125,-29,-278,-170,-118
-88,-143,-55,116,-16,-99,3,-122,-34,-268,-161,-108
-100,-145,-45,123,-27,-95,-7,-133,-56,-303,-162,-104
-90,-133,-42,112,-24,-87,17,-112,-28,-285,-159,-105
-93,-118,-26,106,-33,-72,-3,-141,-68,-293,-152,-88
-87,-120,-33,103,-26,-77,31,-90,-25,-265,-160,-117
-77,-80,-3,78,-37,-41,6,-136,-78,-258,-138,-114
-98,-158,-60,129,-19,-109,79,-16,-11,-360,-224,-172
-128,-111,16,119,-72,-48,160,43,52,-263,-197,-157
147,269,122,-208,12,195,-286,-286,453,642,401,315
592,844,251,-718,170,547,-1067,-1055,930,2041,1299,1039
449,899,451,-674,-1,675,-1717,-2289,-570,1211,1228,1163
98,119,22,-109,38,71,-1288,-1818,-1310,-556,246,431
-33,-183,-150,108,59,-166,-402,-573,-411,-514,-139,-19
-134,-105,29,120,-81,-38,-83,-250,-180,-347,-141,-61
-98,-156,-58,127,-20,-107,44,-53,-46,-354,-196,-130
-123,-126,-3,124,-60,-64,69,-45,-33,-296,-193,-121
-168,-149,20,158,-94,-64,111,11,6,-339,-211,-135
-130,-135,-4,133,-63,-69,126,36,50,-297,-193,-127
-121,-135,-13,128,-54,-74,125,29,18,-325,-199,-126
-113,-130,-17,122,-48,-73,141,59,54,-300,-189,-125
-102,-122,-20,112,-41,-71,133,45,33,-318,-191,-125
-67,-123,-56,95,-6,-89,150,69,56,-320,-202,-133
-71,-112,-40,92,-15,-76,150,82,55,-302,-196,-123
-90,-123,-34,107,-28,-78,168,107,62,-303,-194,-121
-78,-122,-44,100,-17,-83,181,118,53,-291,-188,-113
-68,-113,-45,91,-12,-78,181,147,61,-279,-184,-109
-72,-100,-28,86,-21,-64,203,199,113,-257,-180,-103
-72,-72,-1,72,-35,-36,221,242,140,-237,-168,-93
-66,-56,10,61,-38,-23,260,290,188,-218,-147,-81
-36,-36,0,36,-18,-18,281,341,246,-188,-127,-68
19,5,-14,-11,16,-5,278,389,299,-155,-113,-49
6,38,32,-22,-13,35,304,429,366,-115,-79,-20
-9,64,73,-28,-41,68,297,438,410,-70,-29,14
20,94,74,-57,-27,84,278,438,449,-29,10,48
39,126,87,-83,-25,107,257,425,455,6,40,72
67,137,70,-102,-2,103,223,378,442,21,55,90
58,128,71,-93,-7,99,186,318,424,31,51,95
55,114,59,-85,-3,86,144,238,339,18,40,82
75,93,17,-84,29,55,109,155,251,-33,31,71
14,69,55,-42,-21,62,71,91,164,-61,13,59
-7,42,49,-18,-29,45,52,27,68,-86,-19,37
-4,12,16,-4,-10,14,50,-17,12,-125,-53,21
-28,-11,18,19,-23,3,43,-37,-32,-147,-71,12
-21,-17,3,19,-12,-7,39,-52,-60,-150,-64,7
-11,-15,-4,13,-3,-9,31,-57,-68,-153,-59,-3
21,-15,-37,-3,30,-26,35,-65,-77,-169,-82,-20
22,-13,-34,-4,28,-23,45,-67,-79,-168,-87,-16
-3,-9,-7,6,2,-8,46,-56,-72,-161,-74,-6
3,-10,-13,4,8,-12,44,-48,-66,-159,-65,2
-7,-10,-3,9,-2,-6,46,-41,-61,-153,-56,5
-2,-10,-8,6,3,-9,43,-34,-55,-149,-54,8
15,-10,-25,-2,20,-17,47,-28,-47,-146,-51,16
-17,-10,7,13,-12,-2,64,-21,-39,-143,-48,15
-5,-10,-5,8,0,-8,73,-15,-32,-141,-46,15
4,-9,-13,3,8,-10,79,-7,-23,-137,-43,16
-12,-1,12,6,-12,6,79,-4,-21,-136,-39,14
-5,9,14,-2,-10,11,77,5,-19,-131,-34,17
-7,15,22,-4,-15,18,69,6,-22,-119,-31,27
7,37,30,-23,-11,33,98,32,-3,-97,-27,39
26,48,22,-38,2,35,147,94,44,-68,-25,46
77,33,-44,-54,60,-6,149,97,38,-85,-25,44
62,24,-38,-43,50,-7,102,36,-4,-112,-20,45
36,10,-25,-23,30,-7,55,-30,-52,-118,-21,44
45,-3,-47,-21,46,-24,48,-67,-65,-111,-19,46
-11,-18,-8,15,-1,-12,38,-69,-57,-112,-29,31
-42,-63,-20,52,-11,-41,27,-79,-105,-157,-57,-12
-24,-85,-61,55,19,-73,16,-76,-117,-179,-73,-32
-1,-75,-74,38,37,-74,26,-77,-127,-178,-79,-28
-28,-78,-49,53,11,-63,56,-70,-120,-184,-80,-31
-39,-71,-32,55,-3,-51,56,-63,-97,-175,-74,-29
-15,-70,-55,42,20,-62,51,-69,-110,-180,-74,-30
-25,-74,-49,49,12,-61,61,-44,-85,-170,-70,-29
-25,-72,-47,48,11,-59,48,-71,-119,-177,-66,-22
-24,-81,-58,53,17,-69,77,-22,-77,-169,-68,-27
-27,-64,-37,46,5,-50,51,-69,-124,-165,-57,-11
-26,-118,-93,72,34,-105,126,32,-75,-218,-119,-65
-73,-83,-10,78,-32,-46,209,85,-39,-183,-111,-60
226,237,11,-232,107,123,-182,-167,381,593,403,339
763,784,22,-774,370,403,-1044,-1022,839,1815,1269,1030
643,826,183,-735,229,505,-1807,-2448,-727,1041,1197,1153
255,154,-101,-205,178,27,-1313,-1911,-1455,-465,299,482
85,-97,-181,6,133,-139,-360,-529,-482,-381,-15,82
-18,-44,-26,31,5,-35,-36,-186,-234,-206,-27,36
-7,-80,-73,44,33,-77,101,20,-101,-200,-79,-21
-23,-59,-36,41,7,-47,123,47,-77,-156,-67,-20
-29,-77,-48,53,9,-62,153,94,-57,-187,-84,-42
-27,-65,-38,46,5,-51,170,110,-17,-150,-68,-40
-26,-65,-39,46,7,-52,165,105,-31,-169,-73,-39
-16,-59,-43,37,14,-51,193,139,8,-148,-67,-41
-19,-54,-35,36,8,-44,184,127,-5,-158,-64,-39
18,-51,-69,17,44,-60,191,151,22,-160,-72,-41
8,-44,-52,19,30,-48,209,170,21,-158,-70,-30
-22,-42,-20,32,-1,-30,218,188,39,-147,-61,-24
-14,-30,-16,22,1,-22,215,204,63,-133,-49,-14
-9,-24,-15,16,3,-19,231,243,97,-128,-41,-8
-11,-13,-2,12,-4,-7,256,286,136,-111,-30,0
18,-3,-22,-7,20,-12,270,334,177,-114,-28,10
16,18,2,-17,6,10,306,400,238,-83,-10,20
-8,45,53,-19,-31,49,337,458,303,-33,13,29
40,81,41,-61,-1,61,339,503,365,-6,35,48
74,125,51,-99,11,88,337,536,428,42,79,82
85,150,66,-118,9,108,324,550,481,85,114,112
122,180,57,-151,32,118,316,537,498,117,141,139
144,200,55,-172,44,128,298,500,502,145,169,156
153,194,41,-174,56,117,266,440,465,137,168,151
124,179,55,-151,35,116,220,346,388,121,161,141
78,150,73,-114,2,112,176,256,309,104,148,135
75,114,39,-94,18,76,149,173,200,56,117,116
61,78,17,-70,22,47,118,99,104,11,82,83
46,49,3,-48,21,26,101,56,35,-24,53,64
40,31,-9,-35,24,11,99,25,-9,-48,36,48
44,30,-14,-37,29,7,96,12,-23,-53,24,35
71,30,-41,-50,56,-6,93,9,-44,-65,24,33
46,25,-21,-36,33,2,90,6,-52,-66,26,29
22,25,2,-23,10,13,89,3,-47,-64,26,26
31,27,-5,-29,18,11,91,0,-45,-66,31,21
42,30,-12,-36,27,9,89,1,-42,-64,30,21
45,30,-15,-37,30,7,91,6,-39,-66,28,30
53,30,-23,-41,38,3,88,11,-44,-72,25,35
69,30,-39,-49,54,-4,88,15,-54,-75,22,35
44,30,-14,-36,29,8,99,20,-56,-75,19,35
31,27,-5,-29,17,11,101,24,-55,-75,15,35
38,23,-16,-30,27,3,99,25,-51,-75,16,35
35,19,-17,-26,26,1,101,24,-51,-74,19,39
26,17,-9,-21,17,3,99,25,-48,-77,25,40
43,10,-34,-26,38,-12,98,24,-52,-82,22,40
55,13,-42,-34,49,-15,91,27,-48,-73,20,40
44,39,-5,-41,24,17,84,37,-36,-61,37,40
68,72,4,-70,32,38,121,66,-17,-51,53,52
69,81,13,-75,28,47,170,127,30,-45,62,63
114,79,-35,-96,75,22,174,136,28,-39,59,59
147,80,-67,-113,107,6,113,59,-18,-37,54,57
86,34,-52,-60,69,-9,59,10,-61,-64,50,52
78,19,-58,-48,68,-19,57,3,-69,-73,46,52
56,4,-52,-29,54,-24,50,-7,-66,-74,32,35
-1,-52,-52,26,26,-52,39,-28,-115,-111,-2,-4
-19,-63,-44,41,12,-53,37,-37,-116,-121,-20,-22
-20,-75,-55,48,18,-65,24,-46,-125,-128,-24,-21
-26,-84,-58,55,16,-71,41,-32,-128,-137,-26,-21
-60,-76,-16,69,-22,-46,46,-37,-126,-133,-24,-19
-59,-83,-24,71,-17,-54,43,-29,-123,-138,-26,-21
-58,-77,-20,67,-19,-49,50,-21,-109,-124,-24,-20
-64,-81,-17,72,-23,-49,37,-34,-125,-137,-26,-21
-45,-72,-27,58,-9,-49,67,5,-89,-122,-25,-27
-55,-75,-20,65,-18,-47,48,-41,-139,-140,-27,-23
-52,-126,-73,89,11,-99,149,105,-47,-183,-91,-81
-48,-40,9,44,-28,-15,145,73,-13,-62,-13,-21
351,346,-5,-348,178,170,-348,-250,593,947,663,496
799,867,68,-833,366,467,-1260,-1394,579,1825,1390,1135
519,660,141,-590,189,400,-1821,-2574,-1196,529,968,986
163,8,-155,-85,159,-73,-1092,-1535,-1272,-539,174,314
25,-93,-118,35,72,-105,-254,-358,-344,-246,23,53
-34,-71,-37,52,2,-54,-27,-115,-212,-200,-15,-1
-36,-95,-59,66,12,-77,88,76,-65,-156,-52,-49
-85,-74,11,80,-47,-32,104,64,-81,-149,-37,-34
-76,-86,-10,81,-33,-48,130,120,-28,-155,-44,-43
-71,-75,-5,73,-33,-40,130,115,-19,-135,-32,-34
-62,-80,-18,71,-22,-48,142,129,-12,-148,-33,-35
-51,-73,-22,62,-13,-47,147,144,9,-127,-31,-39
-46,-75,-29,61,-8,-52,146,148,5,-135,-41,-45
-46,-70,-25,58,-10,-47,169,168,34,-120,-40,-46
-24,-64,-40,44,8,-51,165,173,37,-121,-40,-42
-25,-62,-37,44,6,-49,177,207,72,-112,-41,-41
-60,-55,4,58,-32,-25,191,230,92,-107,-39,-39
-53,-52,0,52,-26,-25,201,260,113,-103,-38,-38
-56,-46,10,51,-33,-18,221,301,152,-91,-23,-27
-40,-27,13,33,-26,-7,246,353,201,-74,-14,-20
-19,-4,15,11,-17,6,274,414,260,-42,2,-12
-4,23,27,-10,-16,25,302,475,325,-7,26,10
56,63,7,-59,24,35,311,515,382,43,46,30
49,99,50,-74,-1,74,320,535,439,91,88,62
37,125,88,-81,-26,106,311,540,483,119,119,94
86,152,66,-119,10,109,286,535,482,154,139,111
104,166,62,-135,21,114,259,495,470,173,162,131
107,158,51,-132,27,104,221,432,451,174,169,139
103,148,44,-126,29,96,185,353,378,169,159,130
88,124,36,-106,26,80,146,257,278,136,137,118
59,88,29,-74,15,58,118,177,176,94,109,96
35,51,15,-43,9,33,99,108,92,58,71,65
12,13,1,-13,5,7,85,63,34,27,50,42
-2,-11,-9,7,4,-10,73,39,-11,5,39,27
-3,-20,-17,11,7,-18,69,23,-35,-5,27,18
-1,-20,-19,10,9,-19,70,18,-50,-15,23,6
37,-20,-57,-8,47,-38,66,20,-62,-35,20,-6
14,-20,-34,3,24,-27,65,20,-63,-41,17,-1
-31,-20,11,25,-21,-4,64,20,-56,-33,12,6
-28,-20,7,24,-17,-6,61,20,-49,-30,11,12
-7,-18,-10,13,2,-14,49,20,-43,-25,2,20
21,-15,-36,-3,29,-25,62,26,-36,-20,10,24
-8,-15,-7,12,0,-11,86,30,-32,-24,28,21
-23,-15,8,19,-15,-4,85,29,-30,-25,23,20
-17,-14,2,15,-9,-6,85,31,-30,-25,20,19
-14,-16,-2,15,-5,-9,85,28,-30,-24,18,14
-17,-18,-1,18,-8,-9,85,32,-30,-26,14,17
-4,-23,-19,14,8,-21,83,26,-31,-33,18,8
28,-23,-51,-2,40,-36,79,25,-35,-32,19,-6
-13,-29,-16,21,2,-22,79,40,-40,-25,16,7
-13,-28,-14,21,1,-21,75,32,-36,-19,14,15
4,6,2,-5,1,4,75,33,-29,-14,18,17
2,39,37,-21,-18,38,110,75,1,14,42,35
32,51,19,-42,7,35,154,131,34,23,55,45
37,41,5,-39,16,23,134,113,14,9,46,46
69,35,-34,-51,51,0,77,45,-32,-11,40,44
100,24,-76,-62,88,-26,49,15,-63,-47,29,39
52,17,-35,-35,44,-9,47,6,-55,-44,29,41
-13,-11,1,12,-7,-5,39,-4,-62,-50,11,9
-28,-61,-33,45,3,-47,31,-12,-100,-82,-26,-26
-41,-66,-25,53,-7,-45,29,-11,-98,-79,-32,-25
-34,-64,-30,49,-2,-46,17,-30,-105,-93,-34,-24
-12,-64,-52,39,20,-58,31,-23,-94,-113,-36,-27
-47,-57,-10,52,-18,-33,38,-30,-106,-115,-33,-22
-48,-63,-15,55,-16,-39,41,-9,-96,-116,-38,-28
-41,-62,-21,52,-9,-42,40,-13,-100,-111,-32,-30
-49,-85,-36,67,-6,-60,37,-3,-101,-122,-39,-41
-37,-76,-39,57,1,-57,47,9,-80,-104,-28,-37
-68,-87,-19,78,-25,-53,38,-13,-122,-126,-38,-36
-87,-123,-36,105,-25,-79,171,147,-37,-168,-117,-105
-30,21,51,5,-41,36,67,41,66,101,71,49
441,489,48,-465,196,268,-521,-380,759,1289,856,657
772,915,142,-844,315,528,-1424,-1720,210,1685,1372,1170
393,509,117,-451,138,313,-1720,-2482,-1468,141,716,810
129,-11,-140,-59,135,-76,-857,-1150,-1016,-497,45,182
26,-23,-49,-1,37,-36,-188,-248,-264,-157,-25,28
-56,-64,-8,60,-24,-36,-11,-45,-178,-155,-63,-21
-42,-73,-31,58,-5,-52,75,93,-41,-100,-62,-52
-76,-78,-1,77,-37,-39,75,70,-79,-113,-75,-57
-71,-91,-19,81,-26,-55,104,141,-9,-96,-84,-70
-84,-80,4,82,-43,-38,91,124,-20,-92,-76,-61
-58,-90,-31,74,-13,-60,93,130,3,-93,-85,-68
-42,-81,-40,62,-1,-60,112,146,12,-80,-87,-68
-75,-88,-12,82,-31,-50,131,172,15,-86,-92,-71
-75,-80,-5,77,-35,-42,133,177,33,-72,-84,-71
-58,-75,-17,67,-20,-46,133,186,34,-78,-84,-75
-54,-67,-13,61,-20,-40,141,209,66,-72,-80,-75
-43,-60,-17,52,-13,-38,136,219,84,-77,-79,-72
-30,-55,-25,43,-2,-40,150,258,112,-72,-71,-60
-49,-39,10,44,-29,-14,180,312,153,-51,-61,-47
-63,-29,34,45,-48,3,206,364,206,-20,-55,-38
-40,0,39,20,-39,19,228,419,264,18,-35,-30
1,36,35,-19,-18,35,243,466,315,34,-4,-21
9,66,56,-38,-24,61,248,503,376,69,30,12
45,100,55,-73,-5,77,244,508,417,98,49,32
64,121,57,-93,3,89,240,510,443,114,77,63
35,134,99,-85,-33,116,220,504,464,158,111,101
58,150,92,-104,-17,121,182,456,439,166,121,104
62,144,82,-103,-10,113,147,391,393,154,122,101
40,119,79,-79,-20,99,109,306,321,139,101,85
34,96,62,-65,-14,79,72,217,224,110,68,68
7,61,55,-34,-24,58,43,140,129,69,49,46
-14,26,40,-6,-27,33,28,82,54,15,26,14
-20,-1,19,10,-19,9,23,44,-1,-13,-7,-6
-68,-34,34,51,-51,0,15,28,-37,-38,-34,-23
-80,-54,26,66,-52,-14,9,18,-52,-52,-45,-30
-66,-56,10,60,-37,-23,2,9,-67,-49,-45,-31
-88,-59,29,73,-59,-15,-3,5,-78,-55,-45,-29
-93,-61,32,77,-62,-14,-5,0,-81,-60,-45,-33
-97,-66,31,81,-64,-17,-8,-3,-79,-68,-45,-39
-83,-70,13,77,-48,-28,-12,-9,-83,-71,-46,-43
-94,-69,25,82,-60,-22,-20,-8,-95,-69,-51,-55
-126,-73,53,99,-89,-10,-16,-3,-92,-67,-54,-56
-114,-75,38,94,-75,-18,-11,0,-87,-64,-59,-54
-110,-75,35,92,-72,-19,-8,3,-84,-65,-60,-51
-102,-75,27,88,-64,-24,-2,8,-78,-75,-60,-49
-95,-75,20,85,-57,-27,-1,10,-76,-82,-64,-50
-101,-75,26,88,-63,-24,2,16,-72,-76,-66,-42
-65,-76,-10,71,-27,-43,-12,19,-69,-75,-63,-57
-45,-74,-29,60,-8,-51,-25,11,-68,-72,-59,-71
-71,-78,-7,74,-32,-42,-20,10,-63,-68,-53,-61
-86,-90,-4,89,-41,-47,-10,2,-73,-83,-50,-56
-78,-83,-5,81,-37,-44,-12,2,-64,-67,-45,-49
-50,-45,5,47,-28,-19,13,28,-44,-36,-41,-45
-48,-22,27,35,-37,3,62,86,-10,-19,-40,-46
-78,-38,40,58,-59,1,65,112,17,1,-40,-44
-62,-38,23,50,-43,-7,12,39,-43,-8,-40,-46
-20,-49,-29,35,5,-39,-68,-33,-97,-44,-40,-44
-50,-92,-42,71,-4,-67,-84,-50,-101,-54,-56,-47
-88,-96,-8,92,-40,-52,-71,-30,-90,-32,-51,-46
-107,-111,-4,109,-51,-57,-73,-51,-125,-54,-65,-63
-109,-149,-41,129,-34,-95,-64,-73,-152,-90,-110,-100
-77,-154,-77,115,1,-115,-61,-64,-141,-83,-110,-105
-97,-155,-58,126,-19,-106,-58,-64,-138,-85,-109,-104
-123,-151,-28,137,-48,-89,-47,-51,-124,-92,-109,-106
-118,-147,-29,132,-44,-88,-54,-61,-130,-108,-102,-103
-114,-148,-34,131,-40,-90,-35,-36,-110,-105,-108,-107
-103,-140,-37,121,-33,-88,-51,-59,-150,-108,-104,-102
-73,-143,-70,109,-1,-107,-41,-21,-114,-116,-118,-108
-103,-139,-36,121,-34,-87,-29,-54,-136,-88,-108,-102
-130,-199,-69,165,-31,-134,22,30,-92,-119,-131,-136
-153,-165,-12,159,-70,-88,127,126,-49,-106,-150,-139
86,136,50,-111,18,93,-202,-117,296,606,321,212
623,708,85,-666,269,397,-939,-825,789,1848,1209,928
525,880,354,-703,85,617,-1654,-2210,-654,1273,1237,1147
112,180,68,-146,22,124,-1415,-1990,-1541,-303,336,472
-30,-189,-158,110,64,-173,-517,-606,-581,-341,-62,-2
-126,-120,6,123,-65,-57,-137,-185,-258,-124,-65,-57
-95,-160,-65,128,-14,-113,-38,0,-142,-161,-127,-124
-94,-137,-43,116,-25,-90,-2,43,-88,-107,-107,-120
-126,-162,-36,145,-45,-99,37,72,-91,-135,-119,-120
-136,-170,-35,153,-50,-102,69,100,-50,-106,-115,-120
-126,-172,-46,149,-40,-108,65,88,-68,-119,-121,-130
-116,-172,-55,144,-31,-113,75,120,-25,-107,-119,-132
-120,-164,-45,142,-37,-104,66,96,-37,-110,-112,-127
-78,-166,-88,123,6,-127,77,121,-30,-109,-113,-126
-97,-159,-62,128,-17,-110,75,136,-17,-101,-103,-124
-111,-161,-50,136,-30,-105,74,151,9,-110,-110,-124
-96,-152,-57,124,-19,-104,89,169,28,-109,-112,-118
-57,-146,-88,102,16,-117,114,197,55,-94,-104,-131
-47,-139,-93,93,23,-116,136,241,86,-82,-95,-122
-75,-129,-55,102,-10,-92,146,282,121,-67,-87,-108
-49,-103,-54,76,3,-78,155,329,166,-44,-74,-94
-35,-77,-42,56,3,-59,183,393,239,-16,-64,-80
-6,-40,-33,23,14,-36,202,438,315,29,-36,-65
23,12,-11,-17,17,0,208,463,371,79,5,-31
32,46,14,-39,9,30,209,477,421,114,45,9
58,87,29,-72,14,58,189,472,449,139,85,52
73,100,27,-87,23,63,165,449,463,169,97,64
73,86,13,-80,30,49,137,395,441,173,118,72
71,79,8,-75,31,43,96,325,365,154,108,63
76,53,-22,-64,49,15,70,244,265,125,83,50
39,19,-20,-29,29,0,49,168,173,87,73,43
6,-1,-7,-2,6,-4,19,100,75,40,30,0
-13,-36,-23,25,5,-29,10,51,-8,-5,-9,-27
-38,-65,-27,51,-5,-45,7,32,-54,-42,-30,-44
-10,-65,-55,38,23,-60,0,20,-92,-72,-43,-46
-11,-75,-64,43,27,-70,-5,10,-106,-75,-44,-48
-27,-82,-55,55,14,-69,-10,-1,-104,-75,-42,-65
-31,-84,-53,58,11,-69,-5,-8,-105,-76,-39,-65
-46,-94,-48,70,1,-70,-4,-5,-104,-74,-39,-65
-47,-95,-48,71,1,-72,-6,-6,-109,-77,-33,-65
-59,-95,-36,77,-11,-65,-2,-3,-102,-72,-40,-64
-40,-95,-55,67,8,-75,-17,-12,-117,-92,-64,-69
-42,-95,-53,68,6,-74,-9,-13,-125,-87,-75,-76
-58,-95,-37,76,-10,-66,17,11,-103,-52,-70,-74
-44,-90,-46,67,1,-68,14,22,-100,-44,-65,-69
-46,-90,-44,68,-1,-67,15,24,-97,-36,-62,-69
-67,-89,-22,78,-22,-55,16,22,-94,-30,-54,-63
-40,-84,-44,62,3,-64,14,4,-90,-29,-61,-71
0,-86,-86,43,44,-86,16,-12,-91,-25,-79,-85
-26,-82,-56,54,15,-69,10,1,-89,-22,-72,-77
-31,-80,-49,56,9,-64,10,8,-95,-21,-62,-69
-36,-79,-43,58,4,-61,4,3,-105,-13,-55,-61
-29,-53,-25,41,-1,-39,11,17,-89,5,-37,-54
4,-10,-14,3,10,-12,63,63,-67,38,-27,-50
33,-5,-38,-13,35,-21,99,113,-37,48,-23,-50
25,-26,-51,1,39,-39,73,67,-68,31,-30,-48
23,-7,-30,-8,27,-18,-7,-19,-124,25,-43,-44
56,-23,-79,-16,68,-51,-53,-45,-142,17,-43,-47
40,-62,-101,11,71,-81,-32,-45,-152,12,-30,-39
15,-69,-84,27,50,-77,-28,-41,-156,-14,-39,-47
-9,-94,-84,52,38,-89,-30,-41,-172,-48,-68,-80
-20,-98,-78,59,30,-88,-18,-33,-167,-43,-72,-83
-23,-89,-66,56,22,-77,-20,-40,-175,-43,-68,-78
0,-89,-90,45,45,-89,-7,-24,-158,-38,-72,-83
-4,-79,-75,41,36,-76,-8,-38,-173,-35,-68,-72
-23,-82,-59,53,18,-70,1,-22,-157,-37,-71,-78
-29,-68,-40,49,6,-54,7,-30,-163,-26,-63,-72
-31,-71,-41,51,5,-56,-4,-26,-162,-37,-64,-78
30,-53,-83,12,57,-67,6,-11,-144,-19,-59,-80
16,-68,-84,27,50,-76,13,-11,-179,-50,-72,-80
-42,-123,-81,83,19,-102,148,149,-91,-98,-154,-151
42,55,12,-48,15,34,13,10,16,234,78,40
531,549,19,-540,256,284,-614,-416,736,1528,917,679
756,983,227,-870,264,605,-1475,-1706,121,1913,1425,1193
370,539,169,-455,100,354,-1690,-2365,-1517,250,733,804
155,-58,-214,-48,185,-136,-818,-1054,-1020,-437,17,128
24,-43,-67,10,46,-55,-177,-232,-325,-90,-34,-23
-33,-51,-18,42,-7,-34,-19,-40,-227,-78,-60,-58
-1,-51,-51,26,25,-51,63,89,-111,-14,-77,-85
-7,-39,-32,23,13,-35,73,73,-156,-35,-78,-81
18,-52,-70,17,44,-61,111,144,-91,-17,-83,-89
-1,-35,-34,19,16,-34,103,123,-117,-11,-72,-81
25,-45,-70,10,48,-57,108,144,-90,-10,-77,-88
36,-36,-72,0,54,-54,124,155,-88,-4,-68,-82
23,-37,-60,8,42,-49,134,161,-84,-17,-70,-88
24,-34,-58,5,42,-46,136,179,-56,0,-64,-90
26,-34,-60,4,44,-47,143,202,-38,-4,-63,-90
38,-26,-64,-5,52,-45,149,214,-18,8,-60,-91
51,-18,-69,-16,60,-43,152,233,-16,11,-56,-85
48,-10,-58,-19,53,-34,174,280,21,15,-56,-78
18,-3,-21,-8,20,-12,194,323,72,29,-50,-71
30,11,-19,-20,25,-4,216,371,117,40,-45,-64
49,37,-12,-43,30,12,249,430,174,68,-19,-48
71,62,-10,-66,40,25,260,478,230,97,0,-32
106,103,-2,-104,54,50,262,518,296,130,26,-14
87,141,55,-114,16,98,270,544,361,189,78,25
97,162,65,-130,16,113,257,545,391,221,106,59
128,182,54,-155,37,118,238,535,405,246,135,89
131,183,53,-158,39,118,207,492,389,255,146,105
133,176,43,-155,44,110,169,422,344,241,130,95
122,164,41,-143,40,102,139,333,260,231,122,89
103,131,28,-117,37,79,99,250,155,198,108,72
81,87,6,-85,37,47,67,170,58,145,76,43
87,48,-39,-67,63,4,51,104,-17,102,37,22
67,27,-40,-47,53,-6,35,74,-72,74,13,5
33,18,-15,-25,24,2,29,60,-105,52,3,-3
38,14,-24,-26,31,-5,26,54,-123,44,1,-9
30,10,-20,-19,25,-5,23,47,-136,41,-3,-17
55,5,-50,-30,52,-22,18,39,-139,37,-6,-24
54,1,-53,-27,54,-25,15,32,-146,33,-10,-31
11,-6,-17,-3,14,-11,15,33,-149,30,-13,-35
16,-6,-22,-5,20,-14,15,36,-150,26,-16,-39
7,-5,-12,-1,10,-8,14,34,-151,21,-15,-40
10,-4,-14,-3,12,-9,17,36,-148,16,-15,-40
0,-1,-1,1,1,-1,21,42,-142,13,-15,-40
17,1,-16,-8,16,-7,11,31,-139,7,-14,-39
33,-2,-35,-15,34,-18,7,35,-133,6,-36,-43
-15,-5,10,9,-12,2,16,59,-130,22,-46,-46
-10,-5,5,8,-7,0,31,59,-137,32,-35,-45
12,-5,-17,-3,15,-11,31,53,-141,28,-34,-42
17,-5,-21,-6,19,-13,24,51,-140,25,-25,-39
15,-7,-22,-4,19,-14,21,46,-140,23,-23,-41
47,10,-37,-28,41,-14,10,41,-142,15,-8,-29
39,47,8,-43,15,28,37,65,-130,36,23,-15
47,77,31,-62,8,54,97,135,-90,76,29,-2
66,66,0,-67,33,33,136,184,-49,78,38,12
46,43,-3,-45,24,20,58,108,-109,57,36,9
74,37,-37,-55,55,0,-47,10,-177,39,17,3
82,27,-55,-54,68,-14,-43,-19,-176,22,3,-5
74,19,-55,-46,64,-17,-39,-24,-180,13,-8,-9
34,-16,-50,-9,42,-33,-34,-12,-190,-3,-20,-27
27,-42,-69,8,48,-55,-29,-42,-237,-46,-51,-65
25,-40,-65,8,45,-52,-26,-36,-240,-56,-62,-71
-3,-39,-36,21,17,-38,-19,-21,-235,-45,-54,-64
2,-38,-40,18,22,-39,-18,-12,-235,-45,-54,-63
12,-33,-45,11,29,-39,-8,-1,-223,-33,-48,-58
4,-36,-40,16,23,-38,-11,-8,-233,-35,-45,-54
-10,-45,-36,28,13,-40,4,18,-217,-30,-50,-61
13,-44,-58,16,36,-51,-7,-6,-255,-46,-63,-75
-5,-46,-41,26,18,-43,18,39,-209,-36,-67,-78
-22,-32,-9,27,-7,-20,-5,-7,-252,-42,-54,-55
-31,-88,-57,60,13,-72,66,96,-198,-92,-96,-97
-70,-54,15,62,-42,-19,135,137,-163,-55,-86,-100
274,267,-7,-270,140,130,-262,-136,280,736,444,309
801,800,-1,-801,401,400,-1118,-1058,633,1851,1273,994
650,800,150,-726,250,475,-1854,-2467,-991,957,1116,1050
243,139,-104,-191,173,18,-1346,-1840,-1579,-404,265,394
77,-85,-161,4,119,-123,-406,-457,-588,-247,-15,32
-32,-37,-5,34,-13,-21,-104,-131,-367,-115,-33,-12
-13,-68,-55,41,22,-62,12,75,-233,-107,-70,-71
-7,-41,-34,24,14,-37,43,94,-212,-69,-53,-67
-28,-56,-28,42,0,-42,78,132,-185,-100,-65,-71
-21,-45,-24,34,2,-35,93,151,-160,-70,-57,-66
-24,-46,-22,35,-1,-34,92,151,-170,-89,-60,-63
7,-41,-47,17,27,-44,92,169,-145,-74,-65,-75
1,-37,-38,18,20,-37,106,182,-156,-79,-75,-84
-29,-34,-5,32,-12,-19,132,218,-103,-64,-68,-79
-21,-29,-8,25,-7,-18,124,202,-102,-58,-60,-73
-11,-26,-16,19,3,-21,133,226,-81,-48,-55,-69
-6,-14,-8,10,1,-11,133,243,-69,-6,-47,-62
-6,-5,0,6,-3,-2,143,271,-44,27,-43,-58
2,5,4,-4,-1,4,158,313,-5,56,-33,-48
-4,12,16,-4,-10,14,190,362,36,89,-24,-40
7,32,24,-20,-8,28,218,421,96,116,-17,-31
29,63,34,-46,-2,48,236,475,152,145,4,-12
12,102,90,-57,-39,95,264,531,230,190,34,15
44,140,96,-93,-26,118,262,561,284,233,67,45
82,168,86,-125,-2,127,254,557,326,263,102,70
105,193,88,-149,8,140,248,552,353,295,129,93
136,215,79,-176,28,147,220,531,348,312,150,116
137,217,80,-177,28,148,181,470,320,299,150,111
129,201,73,-165,28,137,139,382,249,289,147,99
113,183,70,-148,21,126,94,290,151,258,131,91
81,146,65,-114,8,105,62,203,42,218,92,77
44,105,61,-75,-9,83,46,138,-37,189,65,57
24,73,49,-49,-13,61,30,92,-106,149,39,23
16,46,30,-31,-7,38,23,60,-153,126,17,0
5,31,26,-19,-11,29,19,47,-175,113,9,-10
33,30,-3,-31,18,13,14,42,-198,102,6,-19
48,30,-18,-39,33,6,11,39,-203,97,3,-20
20,30,10,-26,5,20,4,36,-207,88,-2,-20
13,30,16,-22,-1,22,10,31,-209,83,-4,-20
16,31,15,-24,1,23,18,30,-213,75,-13,-20
19,35,16,-27,0,26,15,30,-216,71,-18,-20
-3,35,38,-17,-21,37,13,29,-210,74,-12,-16
17,40,23,-29,-3,31,8,40,-205,78,-9,-14
45,40,-5,-42,25,18,22,46,-199,86,-6,-15
11,43,32,-27,-11,38,32,44,-194,91,-1,-15
12,46,34,-29,-11,39,29,49,-189,89,-1,-16
17,44,27,-31,-5,35,30,50,-183,90,-5,-14
28,51,22,-40,3,36,25,50,-175,90,-5,-16
33,49,16,-41,8,32,25,49,-170,89,-5,-15
40,51,11,-46,15,31,25,51,-162,94,-5,-15
58,48,-10,-52,34,19,18,49,-154,95,-8,-20
37,61,24,-49,6,43,30,54,-129,97,7,-3
41,115,74,-78,-17,94,81,99,-87,124,36,15
52,132,80,-93,-14,106,138,166,-50,153,43,27
71,119,48,-95,11,83,103,132,-63,141,32,33
60,104,44,-82,8,74,8,17,-129,107,22,22
90,85,-4,-87,47,40,-35,-19,-144,92,13,14
106,80,-26,-93,66,26,-54,-28,-158,98,5,5
15,60,45,-38,-15,52,-50,-33,-175,84,0,-4
-7,16,23,-5,-15,19,-35,-23,-172,34,-7,-14
-18,-7,11,12,-14,2,-32,-23,-173,17,-17,-25
-22,-4,18,13,-20,7,-20,-13,-159,29,-25,-38
-17,-5,12,11,-14,3,-19,-16,-165,21,-35,-42
-24,-6,18,14,-21,6,-5,-7,-145,28,-43,-41
10,-3,-13,-3,12,-8,-6,-32,-156,22,-43,-39
-2,-9,-7,5,3,-8,2,-9,-139,26,-40,-42
-37,-5,33,20,-35,13,-9,-21,-157,27,-34,-38
-35,-17,18,26,-27,0,-10,-6,-148,14,-35,-42
-41,-8,33,24,-36,12,0,0,-144,23,-25,-44
-57,-30,28,43,-42,-1,1,1,-167,-17,-53,-56
-64,-51,14,57,-39,-19,137,154,-83,-47,-111,-105
38,115,77,-77,-19,96,-23,7,66,280,131,85
553,606,53,-580,250,329,-669,-497,788,1518,966,725
817,967,151,-892,333,559,-1570,-1926,-33,1629,1355,1164
404,467,63,-436,171,265,-1709,-2422,-1573,26,599,710
135,3,-132,-69,133,-65,-759,-963,-885,-386,44,144
40,37,-3,-39,21,17,-167,-200,-247,-161,11,38
-29,2,31,14,-31,16,-19,-14,-164,-198,-41,-24
-20,6,26,7,-23,16,58,96,-41,-119,-38,-49
-27,7,34,10,-31,20,54,81,-72,-155,-52,-47
-29,-1,28,15,-29,14,87,147,7,-124,-49,-53
-8,3,12,3,-10,8,77,117,-20,-132,-52,-46
-7,-3,3,5,-5,0,100,157,1,-122,-63,-48
-42,-1,42,21,-42,20,110,162,7,-115,-56,-42
-36,-4,32,19,-33,14,110,165,27,-117,-57,-48
-30,7,37,11,-34,22,110,175,43,-106,-51,-49
-21,12,33,4,-27,22,114,190,52,-110,-50,-50
-20,19,39,0,-30,28,129,212,79,-99,-52,-50
6,27,21,-17,-8,24,121,233,90,-101,-59,-45
-5,30,34,-13,-20,32,152,275,134,-83,-51,-37
-40,39,79,1,-60,58,179,315,171,-62,-38,-28
-7,57,65,-25,-36,61,186,363,210,-44,-27,-22
10,78,69,-44,-30,73,214,422,274,-12,-8,-12
40,119,79,-80,-20,99,238,479,339,17,11,6
55,146,91,-101,-18,118,246,513,398,50,45,29
96,179,82,-138,7,130,236,523,439,84,76,55
125,217,92,-171,17,154,233,519,466,110,103,84
92,229,138,-161,-23,184,215,496,484,143,134,113
109,233,124,-171,-8,179,177,455,472,160,137,118
113,222,109,-168,2,165,141,388,418,148,125,109
105,210,105,-158,0,157,99,295,338,123,119,105
91,185,94,-138,-1,139,62,206,242,79,107,97
55,143,88,-99,-17,116,36,135,148,31,77,70
23,100,78,-62,-28,89,32,85,81,13,36,41
-6,68,74,-32,-40,71,26,54,34,-12,9,27
-5,59,64,-27,-34,61,13,32,-1,-38,-4,10
-3,58,61,-27,-33,59,2,13,-28,-47,-9,4
5,54,50,-30,-23,52,-6,3,-34,-60,-16,2
4,52,48,-28,-22,49,-9,0,-40,-60,-23,-2
28,49,21,-39,3,35,-14,-4,-54,-59,-22,-4
39,50,11,-45,14,30,-13,-14,-62,-75,-20,-14
-24,50,74,-13,-49,61,-8,-12,-64,-79,-20,-15
-12,50,63,-19,-38,56,-5,-3,-56,-71,-20,-10
5,49,45,-27,-20,47,-2,4,-49,-68,-21,-8
-2,52,53,-25,-28,52,3,13,-43,-61,-18,-2
9,55,46,-32,-19,50,5,11,-36,-56,-16,-1
-1,55,57,-27,-29,55,0,9,-35,-63,-12,-2
17,55,38,-36,-11,46,-9,0,-35,-66,-11,-9
-9,55,64,-24,-37,59,-11,-10,-30,-64,-6,-19
-22,55,77,-17,-50,65,-6,-11,-31,-65,-5,-21
-2,56,58,-27,-30,56,-4,-8,-29,-65,-10,-19
20,62,42,-41,-11,52,2,-12,-22,-74,-25,-21
36,60,25,-48,5,42,2,-5,-18,-73,-32,-18
20,94,74,-57,-27,83,18,37,4,-45,0,12
78,134,56,-106,11,95,68,93,41,-13,16,29
73,128,55,-101,9,92,98,136,70,7,23,33
44,114,70,-79,-14,92,37,65,24,-18,20,36
55,93,38,-74,8,65,-56,-37,-40,-57,-1,25
61,89,28,-75,17,58,-71,-56,-59,-75,-11,12
58,92,34,-75,12,63,-63,-67,-55,-78,-16,-1
3,48,45,-26,-21,46,-59,-67,-54,-84,-31,-16
21,18,-3,-20,12,7,-53,-71,-87,-122,-65,-39
-4,17,20,-7,-12,18,-48,-75,-84,-137,-71,-47
-52,14,66,19,-60,40,-42,-77,-82,-132,-70,-44
-26,9,35,9,-30,21,-39,-65,-82,-134,-77,-46
-22,6,28,8,-26,17,-29,-52,-71,-124,-73,-53
-23,5,28,9,-26,16,-34,-53,-84,-130,-72,-56
0,4,5,-2,-3,4,-17,-34,-66,-120,-66,-53
-15,18,33,-2,-24,25,-28,-59,-101,-136,-65,-48
-17,23,40,-3,-28,31,-17,-19,-57,-125,-61,-47
-10,31,41,-11,-26,36,-31,-62,-104,-131,-61,-45
-32,-27,5,30,-19,-11,36,45,-53,-168,-111,-82
-58,-2,56,30,-57,27,119,108,3,-123,-102,-78
204,307,103,-255,50,204,-241,-143,411,614,394,298
737,853,117,-795,310,485,-1018,-967,805,1772,1242,987
626,887,262,-757,182,574,-1740,-2376,-767,967,1139,1092
239,247,8,-243,115,127,-1384,-1939,-1458,-444,265,434
115,26,-89,-70,102,-32,-471,-550,-461,-333,-39,45
12,59,47,-36,-18,53,-120,-179,-188,-188,-46,-3
-15,5,20,5,-18,12,-10,5,-49,-177,-99,-63
-60,19,78,21,-69,48,24,37,-26,-132,-95,-58
-30,3,32,14,-31,17,47,72,-11,-142,-104,-67
-26,14,41,6,-34,28,57,96,24,-90,-97,-65
-31,11,43,10,-37,27,56,93,12,-101,-102,-64
-17,18,35,0,-27,26,77,125,47,-81,-99,-66
-24,21,45,1,-34,33,58,110,28,-85,-95,-63
32,18,-13,-25,22,2,69,127,56,-74,-96,-68
19,22,3,-20,8,12,94,137,62,-64,-93,-62
-7,18,25,-6,-16,22,100,166,93,-56,-90,-61
5,21,16,-13,-5,19,101,188,112,-43,-90,-56
-5,19,24,-7,-15,22,111,210,133,-39,-88,-52
11,23,13,-17,-1,18,125,243,167,-27,-78,-50
46,36,-10,-41,28,12,147,285,202,-19,-70,-42
36,66,30,-51,3,48,176,344,257,-3,-61,-33
31,98,67,-65,-18,83,203,403,324,34,-43,-21
70,125,55,-97,7,89,215,449,384,69,-14,-4
93,158,65,-126,14,111,208,473,431,113,23,28
111,185,74,-148,18,129,206,468,478,152,50,56
128,212,84,-171,22,148,193,451,501,179,79,78
114,241,127,-178,-7,184,169,433,515,214,113,103
123,241,117,-182,3,179,131,386,491,205,111,98
113,210,97,-162,7,153,96,304,412,181,99,90
88,183,95,-136,-4,139,56,221,320,161,89,83
63,145,81,-104,-9,113,12,134,223,119,47,62
36,102,66,-69,-16,84,14,67,140,81,11,39
34,84,50,-59,-8,66,8,28,70,39,-5,17
27,72,45,-50,-10,58,-13,-1,17,5,-33,6
21,63,41,-42,-10,52,-20,-16,-9,-5,-49,-1
9,52,43,-30,-17,47,-20,-21,-12,-8,-40,-6
31,45,14,-38,8,29,-22,-30,-18,-17,-44,-22
19,45,26,-32,-5,36,-39,-49,-42,-34,-60,-36
-18,45,63,-14,-41,54,-38,-49,-46,-36,-60,-35
1,45,44,-23,-22,44,-33,-43,-44,-34,-60,-35
-4,45,49,-21,-27,47,-31,-41,-45,-36,-60,-35
8,45,37,-27,-15,40,-26,-36,-45,-34,-60,-35
12,40,28,-26,-8,34,-24,-34,-44,-37,-59,-34
-28,40,68,-7,-48,54,-20,-28,-33,-40,-54,-30
-12,39,51,-13,-31,44,-18,-21,-21,-40,-54,-28
0,35,35,-17,-18,34,-15,-14,-11,-40,-48,-25
-11,35,46,-12,-29,40,-12,-8,-11,-40,-57,-21
38,37,-1,-37,19,18,-9,0,-9,-36,-73,-20
50,42,-8,-46,29,17,-15,-6,-6,-35,-76,-23
14,38,24,-26,-5,31,-25,-11,-4,-35,-74,-27
24,43,19,-34,2,31,-33,-15,-7,-29,-75,-31
15,34,20,-25,-2,27,-29,-26,-12,-32,-74,-29
3,45,42,-24,-20,43,-7,-10,-10,-26,-42,-26
28,89,61,-59,-17,75,33,35,17,-4,-37,-24
32,87,54,-60,-11,70,83,105,70,36,-53,-15
36,74,37,-55,-1,55,51,82,41,32,-49,-5
37,70,33,-53,2,51,-48,-34,-11,-16,-50,-4
65,56,-9,-60,36,23,-80,-75,-28,-31,-51,-14
84,52,-31,-68,57,10,-72,-76,-50,-48,-48,-18
50,42,-8,-46,28,17,-71,-80,-42,-50,-59,-29
29,1,-28,-15,29,-14,-65,-84,-69,-69,-90,-62
0,-29,-29,15,15,-29,-64,-83,-90,-106,-102,-76
-11,-23,-12,17,1,-17,-57,-72,-76,-103,-99,-75
-12,-21,-9,17,-1,-15,-58,-76,-85,-107,-101,-74
-31,-20,11,25,-20,-5,-51,-57,-64,-100,-99,-77
-22,-12,10,17,-15,-1,-58,-68,-80,-100,-102,-71
15,-21,-35,3,26,-28,-46,-43,-56,-101,-125,-85
0,-22,-22,11,11,-22,-52,-60,-72,-102,-123,-93
-25,-27,-3,26,-11,-15,-49,-43,-54,-110,-127,-92
-16,0,17,8,-16,8,-35,-53,-55,-97,-123,-84
-51,-55,-4,53,-23,-29,-24,-31,-61,-121,-131,-92
-70,-93,-23,82,-23,-58,120,131,26,-139,-191,-148
96,135,39,-115,28,86,-67,-43,188,282,105,84
567,637,70,-603,248,354,-710,-537,878,1584,985,766
695,1018,322,-857,186,670,-1516,-1899,-53,1656,1366,1218
287,489,202,-388,42,346,-1612,-2317,-1501,-10,579,724
95,-44,-138,-25,117,-91,-743,-932,-779,-459,-39,103
45,6,-39,-25,42,-16,-197,-254,-201,-164,-91,-2
-19,-27,-8,24,-6,-17,-51,-64,-93,-183,-131,-58
-31,-29,2,30,-16,-13,21,34,4,-117,-114,-78
-40,-38,2,39,-20,-18,22,33,-31,-142,-134,-89
-33,-53,-20,44,-7,-36,50,102,40,-119,-137,-98
-33,-46,-14,39,-10,-30,45,71,17,-121,-129,-83
-5,-52,-47,29,21,-49,70,117,53,-115,-132,-88
-18,-50,-31,34,6,-40,75,115,60,-106,-123,-75
-48,-63,-15,56,-16,-39,76,126,74,-114,-126,-77
-36,-49,-14,43,-11,-31,81,129,68,-107,-119,-75
-14,-48,-34,31,10,-40,78,133,75,-107,-119,-76
-11,-40,-29,26,10,-34,86,155,98,-94,-115,-74
3,-31,-35,14,19,-33,95,182,124,-89,-112,-80
21,-28,-49,3,35,-38,114,224,159,-81,-111,-87
3,-16,-19,7,11,-17,136,258,191,-68,-106,-73
6,1,-4,-4,5,-1,161,315,254,-46,-89,-60
18,35,17,-27,0,26,184,369,309,-17,-65,-37
53,73,20,-64,16,47,196,412,374,5,-38,-20
128,111,-18,-119,73,46,205,448,434,41,-19,-13
120,139,19,-130,51,79,211,466,498,97,13,31
114,167,53,-141,30,109,193,463,527,132,59,77
137,186,49,-161,43,118,172,446,518,153,88,91
128,178,50,-153,39,114,143,411,518,164,98,113
130,173,43,-152,44,108,99,350,468,158,85,120
103,164,61,-134,21,112,79,264,379,136,72,98
99,135,37,-117,31,86,50,173,280,94,51,78
81,102,21,-92,29,61,13,98,183,48,9,47
50,73,23,-61,13,47,2,48,109,4,-17,18
43,52,9,-48,17,30,-2,20,54,-31,-40,8
57,39,-19,-48,38,10,-9,-5,19,-58,-66,-1
85,34,-51,-59,68,-9,-14,-20,5,-71,-78,-9
51,29,-22,-39,36,3,-12,-20,0,-69,-81,-21
19,23,3,-21,8,13,-9,-20,-8,-71,-80,-30
19,17,-2,-18,10,7,-10,-20,-15,-69,-80,-30
14,17,3,-16,5,9,-10,-20,-23,-75,-80,-30
9,16,7,-13,0,11,-10,-19,-20,-79,-79,-30
47,15,-32,-31,39,-8,-9,-13,-10,-89,-76,-32
42,13,-29,-28,35,-7,-5,-6,0,-101,-75,-35
2,11,8,-7,-3,9,-3,1,14,-99,-75,-35
5,8,3,-7,1,5,1,8,16,-100,-75,-35
11,17,6,-15,2,11,3,14,14,-99,-75,-35
55,31,-23,-43,39,4,5,12,15,-105,-78,-35
66,30,-36,-48,51,-3,24,5,15,-104,-81,-35
50,30,-20,-39,35,5,30,2,15,-110,-80,-35
45,27,-18,-36,31,4,23,-3,12,-126,-78,-35
38,23,-15,-30,26,4,19,-7,7,-120,-74,-35
52,27,-25,-39,38,1,15,-12,6,-114,-76,-35
47,16,-32,-31,39,-8,8,-18,0,-109,-82,-33
39,19,-20,-29,29,0,11,-4,4,-82,-75,-26
37,61,24,-49,6,42,51,31,40,-53,-52,-8
49,85,36,-68,7,60,103,95,84,-23,-39,7
74,75,1,-74,37,37,106,100,85,-5,-45,4
83,63,-19,-73,51,22,13,17,36,-34,-50,2
108,53,-55,-80,81,-1,-56,-40,-3,-59,-63,-1
103,41,-61,-72,82,-10,-42,-51,-11,-51,-65,-5
92,40,-52,-66,71,-6,-34,-48,-8,-50,-57,-4
64,6,-58,-35,61,-26,-24,-56,-30,-82,-88,-28
12,-38,-50,13,31,-43,-18,-71,-57,-104,-108,-52
33,-41,-73,4,53,-57,-8,-57,-41,-94,-104,-50
17,-39,-55,11,36,-47,-3,-64,-48,-94,-105,-49
-9,-42,-33,26,12,-37,1,-57,-37,-91,-105,-51
-3,-38,-35,21,16,-36,7,-60,-35,-82,-104,-49
-5,-42,-36,24,15,-39,4,-64,-38,-92,-104,-51
2,-39,-41,18,22,-40,21,-51,-16,-84,-99,-45
-9,-48,-39,29,15,-44,3,-76,-36,-98,-99,-40
14,-49,-63,18,39,-56,36,-34,10,-95,-95,-38
13,-36,-48,12,30,-42,27,-72,-35,-109,-92,-33
-31,-94,-63,63,16,-78,116,70,34,-145,-151,-101
-21,-27,-6,24,-8,-16,143,74,50,-47,-98,-52
350,339,-12,-345,181,163,-318,-231,595,889,518,418
793,865,72,-829,361,468,-1170,-1252,702,1849,1289,1068
571,755,184,-664,193,470,-1767,-2492,-1030,690,966,1004
186,88,-98,-137,142,-5,-1149,-1634,-1269,-487,140,331
49,-78,-127,15,89,-102,-296,-409,-318,-233,-62,31
-12,-40,-28,27,8,-34,-39,-150,-161,-141,-82,-16
5,-67,-72,31,39,-70,75,35,-13,-114,-108,-54
-2,-46,-44,24,21,-45,92,34,-18,-97,-107,-53
-1,-62,-61,32,31,-62,116,89,19,-102,-120,-70
1,-48,-49,24,25,-48,127,98,35,-78,-107,-58
-10,-52,-43,31,16,-47,144,124,38,-91,-111,-58
-4,-46,-42,25,19,-44,148,138,59,-71,-104,-51
-20,-44,-24,33,2,-34,142,129,46,-80,-103,-48
0,-41,-41,21,20,-41,152,156,75,-69,-100,-42
27,-38,-65,6,46,-52,161,160,85,-69,-97,-41
-8,-53,-46,31,19,-49,173,180,104,-64,-91,-47
-21,-48,-27,35,3,-37,178,203,121,-60,-86,-39
-15,-38,-23,27,4,-30,195,234,145,-58,-81,-36
-15,-23,-8,20,-3,-15,216,272,178,-48,-74,-31
8,-3,-11,-3,10,-7,240,325,226,-21,-71,-26
52,28,-24,-40,37,2,260,379,272,15,-53,-22
42,54,12,-49,15,33,289,438,335,48,-25,-3
46,77,31,-62,7,54,302,484,402,88,1,24
94,126,32,-110,31,78,292,510,452,130,32,55
126,161,35,-144,45,98,287,508,495,172,65,85
164,181,17,-173,73,99,278,504,514,209,91,107
132,190,58,-161,37,124,264,489,507,231,124,132
112,177,65,-145,23,121,231,417,475,226,132,132
123,172,49,-148,37,110,185,335,407,211,119,119
107,157,51,-132,28,104,152,255,316,190,102,111
79,120,42,-100,18,81,123,169,214,149,67,93
76,91,15,-84,30,53,93,102,120,101,17,68
83,73,-10,-78,46,31,82,53,54,65,-7,48
35,54,19,-44,8,36,76,28,13,49,-7,33
9,40,31,-25,-12,35,69,12,-12,46,-26,21
0,21,21,-11,-11,21,63,-4,-28,40,-40,10
42,8,-33,-25,37,-12,54,-11,-31,37,-48,-1
30,0,-30,-15,30,-15,73,-12,-29,31,-52,2
-21,-4,17,12,-19,6,88,-7,-38,28,-46,13
6,4,-2,-5,4,1,84,-4,-46,21,-46,8
12,16,5,-14,3,10,83,-2,-50,14,-41,6
18,33,14,-26,2,23,79,10,-50,39,-39,3
-12,13,26,-1,-19,19,79,21,-46,53,-54,0
-28,-21,7,24,-17,-7,94,35,-42,48,-62,-1
-3,-34,-31,19,14,-32,100,39,-39,46,-59,-10
-36,-36,0,36,-17,-18,90,31,-34,44,-54,-20
-19,-30,-11,24,-4,-20,84,29,-37,42,-60,-31
9,-28,-37,10,24,-33,76,24,-46,37,-75,-32
-17,-23,-6,21,-5,-14,68,19,-45,34,-75,-26
-6,-20,-14,13,4,-16,63,15,-46,31,-76,-21
-11,-25,-14,19,2,-19,56,15,-44,26,-80,-18
-7,-30,-23,19,8,-26,55,14,-50,25,-80,-11
10,-36,-46,13,28,-41,47,16,-60,32,-77,-12
-9,-37,-29,23,10,-33,48,13,-55,34,-76,-23
-5,-12,-7,8,1,-9,82,23,-46,46,-55,-10
12,43,31,-28,-10,37,132,74,-10,80,-30,13
28,45,17,-36,5,31,172,128,27,89,-19,19
44,12,-32,-28,38,-10,127,67,-15,76,-34,12
59,8,-51,-33,54,-21,43,-36,-82,65,-58,6
59,3,-56,-30,57,-26,10,-45,-92,52,-62,-1
65,1,-64,-33,65,-32,14,-56,-90,44,-63,-7
47,-24,-71,-12,59,-47,31,-58,-89,32,-69,-17
9,-63,-72,27,40,-68,29,-51,-113,-13,-98,-50
13,-84,-96,36,55,-90,29,-45,-120,-37,-113,-73
3,-81,-84,39,43,-82,23,-42,-118,-32,-108,-66
-9,-77,-69,43,30,-72,28,-34,-113,-30,-111,-65
-11,-70,-58,41,24,-64,41,-30,-108,-23,-109,-60
-31,-66,-35,48,2,-50,38,-33,-111,-25,-110,-55
-2,-61,-59,32,28,-59,42,-16,-97,-17,-113,-58
-7,-65,-57,37,25,-61,35,-37,-128,-31,-124,-58
-30,-66,-36,48,4,-51,63,1,-82,-7,-116,-56
-21,-55,-34,38,6,-44,33,-42,-130,-23,-104,-46
-40,-115,-75,78,18,-95,128,91,-59,-66,-160,-105
-21,-50,-29,36,4,-39,177,108,-24,22,-121,-67
322,311,-11,-317,166,150,-257,-187,483,897,471,382
757,874,117,-816,319,496,-1067,-1137,698,1953,1298,1069
573,815,242,-695,165,528,-1707,-2436,-994,904,1031,1060
197,116,-81,-156,139,17,-1186,-1708,-1377,-365,156,353
36,-73,-110,19,73,-91,-310,-418,-397,-149,-68,38
-30,-25,5,28,-17,-10,-32,-128,-210,-56,-89,-6
-17,-70,-53,44,18,-61,80,57,-76,-34,-123,-65
-50,-65,-15,57,-17,-39,98,61,-77,-17,-122,-64
-42,-85,-43,64,0,-64,114,101,-33,-35,-147,-87
-15,-75,-60,45,23,-67,130,117,-17,-2,-135,-77
-4,-76,-72,40,35,-74,141,133,-29,-16,-142,-80
2,-68,-70,33,36,-69,149,151,5,6,-133,-75
-2,-64,-62,34,30,-63,134,137,-8,-11,-135,-74
8,-61,-68,27,38,-64,147,160,24,3,-138,-77
0,-54,-55,27,28,-54,173,175,32,16,-139,-73
-1,-51,-50,27,25,-51,184,192,54,34,-141,-76
0,-41,-42,21,21,-41,182,204,73,52,-139,-74
-9,-34,-25,22,9,-30,189,238,98,57,-140,-75
20,-26,-46,3,33,-36,195,270,127,68,-141,-75
3,-17,-21,7,12,-19,228,325,175,97,-118,-59
-6,1,7,2,-7,4,258,386,237,124,-87,-37
20,25,5,-23,7,14,271,435,288,145,-68,-19
44,55,11,-50,16,33,288,479,348,178,-38,7
78,94,17,-87,30,55,285,511,406,213,-5,38
81,123,42,-102,20,82,271,516,450,248,23,58
132,150,18,-141,57,84,262,505,470,269,40,73
111,163,52,-137,29,108,242,486,458,297,71,107
80,150,70,-116,4,110,207,426,440,303,82,121
122,145,23,-134,49,83,170,340,379,281,64,110
106,125,19,-115,43,72,134,251,280,257,47,100
84,87,4,-86,40,46,96,168,185,204,13,71
81,50,-31,-65,56,10,76,109,97,156,-26,34
65,21,-44,-43,55,-12,68,72,34,137,-50,24
33,6,-27,-19,29,-10,60,47,-2,107,-67,17
13,-5,-19,-4,16,-12,50,31,-24,88,-80,-1
4,-15,-19,5,12,-16,44,24,-50,89,-87,-18
22,-26,-48,2,35,-36,45,17,-57,85,-98,-30
16,-27,-43,6,30,-35,45,11,-54,83,-101,-30
-2,-24,-22,13,11,-23,44,3,-56,79,-99,-30
1,-26,-26,13,14,-26,46,1,-53,78,-100,-30
0,-25,-24,13,12,-24,44,7,-62,73,-100,-30
20,-26,-46,3,33,-35,48,13,-64,78,-100,-30
4,-24,-27,10,16,-25,64,17,-55,93,-95,-30
-9,-20,-11,15,1,-15,64,24,-50,96,-95,-30
4,-20,-24,8,14,-22,58,28,-42,93,-95,-30
-2,-20,-18,11,8,-19,57,27,-40,96,-95,-30
-1,-20,-19,10,9,-19,49,23,-40,93,-95,-30
20,-20,-41,0,31,-30,52,26,-40,96,-93,-28
34,-19,-54,-7,44,-36,68,38,-40,121,-89,-25
23,-22,-45,0,34,-33,71,41,-41,126,-90,-22
6,-29,-35,12,21,-32,69,39,-39,124,-86,-19
16,-23,-39,4,27,-31,71,36,-41,125,-84,-16
14,-15,-29,1,22,-22,69,34,-40,127,-85,-14
34,-9,-44,-12,39,-26,74,38,-30,139,-79,-10
45,33,-13,-39,28,10,130,94,6,174,-78,11
8,41,33,-25,-13,37,173,145,48,201,-80,25
25,4,-22,-14,23,-9,109,80,14,172,-81,14
39,11,-28,-25,33,-8,34,-3,-31,143,-79,11
74,8,-66,-41,70,-29,-3,-35,-67,113,-82,-1
50,-9,-58,-20,54,-33,-13,-42,-73,112,-84,-8
-31,-29,2,30,-16,-14,21,-33,-59,112,-90,-4
-22,-72,-50,47,14,-61,35,-36,-98,79,-125,-39
-24,-84,-59,54,18,-71,36,-24,-97,81,-139,-59
-39,-82,-43,61,2,-62,37,-30,-104,79,-138,-51
-16,-83,-68,50,26,-75,42,-22,-96,80,-142,-62
-18,-76,-58,47,20,-67,36,-30,-98,82,-138,-63
-38,-84,-46,62,4,-65,34,-22,-88,76,-142,-62
-31,-76,-44,54,7,-59,37,-22,-81,86,-139,-54
-42,-84,-42,63,0,-63,23,-26,-87,72,-140,-53
-16,-75,-59,46,22,-66,40,-6,-56,90,-143,-46
-12,-83,-71,48,30,-77,37,-28,-90,63,-146,-48
-73,-136,-64,105,-4,-100,173,137,0,31,-197,-112
-45,-6,39,25,-42,16,105,50,41,223,-67,2
418,423,5,-421,206,214,-459,-353,695,1334,671,553
806,898,92,-852,356,494,-1378,-1627,386,1966,1313,1143
475,576,101,-525,187,338,-1780,-2552,-1354,497,742,874
153,-43,-196,-55,175,-119,-932,-1295,-1107,-334,-4,210
14,-83,-96,35,55,-89,-190,-284,-272,-7,-102,25
-74,-76,-2,75,-36,-39,8,-74,-181,17,-131,-21
-47,-85,-38,66,-5,-61,105,85,-30,68,-138,-56
-70,-83,-13,77,-29,-48,107,69,-66,43,-162,-60
-65,-103,-38,84,-13,-70,138,128,-17,72,-175,-70
-28,-84,-57,56,15,-70,127,107,-30,90,-161,-69
-48,-92,-45,70,-1,-68,162,156,3,83,-168,-79
-68,-80,-12,74,-28,-46,160,151,28,96,-155,-72
-42,-82,-40,62,-1,-60,161,150,26,85,-159,-77
-50,-76,-26,64,-12,-50,170,174,43,99,-156,-74
-16,-68,-52,42,18,-60,161,180,43,92,-164,-75
-11,-63,-52,37,21,-58,198,217,81,131,-150,-70
-40,-55,-15,48,-12,-35,200,227,94,137,-153,-62
-26,-50,-24,38,-1,-37,209,268,135,134,-144,-57
-33,-43,-10,38,-11,-26,235,310,172,144,-140,-48
-3,-22,-18,13,8,-20,252,354,209,150,-139,-44
-16,-5,11,10,-13,3,288,416,266,182,-101,-34
-32,23,54,4,-43,38,317,470,330,214,-104,-6
14,64,50,-40,-18,57,321,516,392,245,-32,23
58,95,36,-77,11,65,313,535,442,284,-56,48
85,125,40,-105,22,82,302,524,479,321,44,75
127,147,20,-138,54,83,293,516,496,344,-16,97
122,152,30,-137,45,91,267,497,489,361,138,113
104,158,54,-131,25,106,224,430,448,368,899,138
73,149,75,-111,-1,112,187,342,374,345,1082,125
