I,II,III,aVR,aVL,aVF,V1,V2,V3,V4,V5,V6
148,539,391,-344,-122,465,-928,-1024,791,1381,1169,1049
12,56,44,-34,-16,50,-629,-687,240,534,466,528
-123,-388,-265,255,72,-326,-221,-323,-334,-114,-31,112
-22,-377,-355,200,167,-366,-59,-64,66,112,122,162
3,-359,-362,178,183,-360,33,81,198,168,146,149
-20,-380,-360,200,171,-370,66,82,198,180,155,162
-21,-385,-365,203,172,-375,81,107,225,186,157,161
-16,-383,-366,200,175,-374,82,110,210,176,148,150
-10,-373,-363,192,177,-368,78,113,242,194,160,160
-15,-375,-359,195,172,-366,83,135,239,182,149,149
-13,-365,-352,189,170,-358,78,135,269,209,174,169
-17,-364,-347,191,166,-355,79,146,271,207,173,166
-11,-352,-341,182,165,-346,74,151,295,226,187,173
-6,-343,-337,175,165,-339,77,163,314,233,190,190
-4,-333,-330,169,163,-331,75,176,330,245,202,201
4,-322,-326,160,165,-324,76,186,361,266,220,206
5,-314,-319,155,163,-316,75,200,387,290,233,210
15,-299,-314,142,165,-306,68,226,420,316,255,227
35,-274,-309,120,172,-292,63,252,457,335,269,241
55,-246,-301,96,178,-273,58,281,496,365,292,251
73,-220,-293,74,184,-257,51,319,543,402,319,282
92,-190,-282,49,188,-236,47,356,598,441,353,305
111,-150,-262,20,187,-206,38,394,659,492,398,335
126,-108,-233,-9,180,-170,23,441,706,543,441,375
160,-63,-223,-48,191,-143,11,466,742,587,482,407
176,-49,-225,-63,201,-137,2,454,750,610,509,432
176,-49,-225,-63,200,-136,-2,407,722,610,518,430
166,-59,-225,-53,195,-142,-11,325,644,572,486,414
97,-128,-225,16,162,-176,3,248,509,460,401,374
36,-209,-245,87,141,-227,37,187,358,323,299,293
9,-274,-284,133,147,-279,51,145,245,225,209,209
-12,-323,-312,168,150,-317,67,127,170,156,150,156
-45,-362,-318,204,137,-340,79,119,116,108,119,129
-63,-384,-321,224,129,-353,83,110,99,86,104,116
-60,-384,-324,222,133,-354,86,104,100,82,95,111
-66,-385,-319,226,127,-352,85,105,100,79,84,104
-73,-388,-315,231,122,-351,85,105,100,75,80,97
-78,-390,-313,234,117,-351,85,105,100,72,80,91
-82,-389,-308,236,113,-349,84,105,99,68,80,93
-79,-384,-305,232,113,-344,80,105,96,65,80,95
-70,-377,-307,224,119,-342,80,115,93,65,80,95
-66,-370,-305,218,120,-337,78,124,90,65,79,100
-64,-364,-300,214,118,-332,74,125,87,65,74,100
-59,-357,-298,208,120,-328,75,125,85,65,75,99
-62,-355,-293,209,116,-324,72,125,82,61,72,94
-65,-355,-290,210,113,-322,67,125,80,56,69,90
-57,-351,-294,204,119,-322,64,125,78,51,70,88
-54,-350,-295,202,121,-322,61,122,75,47,66,83
-60,-350,-290,205,115,-320,56,116,75,42,65,80
-70,-358,-288,214,109,-323,55,109,68,40,65,76
-79,-362,-283,221,102,-323,55,103,57,40,60,75
-80,-359,-279,220,99,-319,55,96,48,40,60,75
-62,-360,-298,211,118,-328,55,90,37,40,59,70
-50,-356,-307,203,129,-331,55,90,34,40,55,70
-50,-354,-304,203,127,-329,55,88,35,40,55,69
-50,-356,-305,203,128,-330,55,85,31,37,52,65
-54,-359,-305,207,125,-331,55,84,30,34,49,63
-56,-360,-305,208,124,-332,55,88,30,31,50,60
-59,-360,-300,210,121,-330,55,90,30,28,50,56
-60,-360,-299,210,120,-330,55,90,31,25,50,55
-60,-360,-300,210,120,-330,56,93,28,26,50,55
-58,-357,-299,208,121,-328,63,95,39,30,50,55
-54,-354,-301,204,124,-327,69,95,44,30,50,55
-58,-355,-297,207,120,-326,70,95,37,30,49,55
-56,-351,-295,204,119,-322,70,95,33,30,45,56
-55,-350,-295,203,120,-322,70,95,26,30,45,57
-58,-349,-291,204,117,-320,69,95,21,26,45,54
-56,-345,-289,200,117,-317,71,94,16,24,45,51
-55,-345,-290,200,118,-317,75,97,15,25,45,48
-55,-345,-290,200,118,-317,74,100,15,25,42,45
-55,-345,-290,200,118,-317,77,99,15,25,39,44
-55,-345,-290,200,118,-317,80,104,15,25,41,40
-54,-343,-290,198,118,-316,80,105,14,24,39,39
-47,-338,-291,192,122,-314,84,106,16,25,40,41
-50,-336,-286,193,119,-311,92,110,12,23,40,37
-42,-311,-269,177,114,-289,94,112,36,33,51,53
-18,-273,-255,146,119,-264,88,115,67,56,76,72
-15,-259,-244,137,115,-251,82,116,64,63,82,72
-20,-249,-229,135,105,-238,76,114,66,66,84,74
-40,-248,-207,144,83,-227,78,108,64,70,85,83
-62,-253,-192,158,65,-222,81,105,66,63,75,87
-61,-255,-194,158,67,-224,79,99,62,55,68,80
-37,-259,-222,148,92,-240,81,96,43,51,60,74
-5,-269,-264,138,129,-266,79,98,25,40,51,68
-16,-300,-284,159,134,-292,82,106,22,39,48,59
-33,-321,-288,177,128,-304,93,112,17,28,36,45
-38,-317,-279,178,121,-298,95,113,10,29,36,36
-31,-323,-292,178,131,-307,100,118,13,18,22,25
-42,-317,-275,180,117,-296,98,110,-3,15,22,26
-51,-355,-304,204,126,-329,109,139,15,6,11,24
-26,-355,-328,191,151,-341,158,237,20,-13,-8,12
-31,-253,-221,142,95,-237,171,328,361,214,117,70
141,326,185,-234,-22,256,-209,-198,896,954,793,624
349,1115,766,-732,-208,940,-895,-1113,1126,1924,1730,1423
214,748,534,-481,-160,641,-964,-1056,772,1413,1219,1072
-37,-90,-52,64,8,-71,-477,-528,-166,3,85,200
-86,-292,-206,189,60,-249,-157,-248,-328,-160,-16,64
-25,-285,-261,155,118,-273,6,17,57,53,67,75
-23,-270,-247,147,112,-258,75,83,82,46,73,53
-31,-278,-246,155,108,-262,96,97,108,76,89,62
-27,-275,-248,152,111,-261,123,118,110,56,71,39
-28,-269,-240,149,106,-254,128,119,136,77,88,54
-17,-271,-253,144,118,-262,136,132,135,75,73,58
-2,-263,-260,133,130,-262,139,132,132,97,89,68
-2,-266,-263,134,131,-264,140,145,161,97,87,66
-2,-254,-252,128,125,-253,140,146,168,103,100,71
3,-247,-250,122,127,-248,140,161,197,132,112,78
4,-238,-243,117,124,-240,140,173,213,145,118,80
11,-227,-238,108,125,-232,137,185,243,150,134,96
22,-210,-232,94,127,-221,131,198,261,160,141,102
32,-194,-227,81,130,-210,126,214,279,191,155,116
35,-183,-218,74,127,-200,121,236,317,210,173,134
43,-160,-203,58,123,-181,114,266,356,235,190,142
68,-122,-190,27,129,-156,111,303,400,272,219,170
87,-86,-173,0,130,-130,105,347,459,307,254,190
110,-46,-157,-32,134,-101,101,395,514,350,287,218
134,-4,-137,-65,135,-70,96,436,571,395,331,255
138,30,-108,-84,123,-39,92,464,624,452,370,290
165,67,-98,-116,131,-15,84,462,641,491,405,330
188,87,-102,-138,145,-7,61,440,637,511,430,349
191,86,-105,-138,148,-9,51,378,621,516,428,361
167,59,-108,-113,137,-24,45,283,547,469,406,341
107,-5,-111,-51,109,-58,52,204,400,360,329,270
59,-76,-135,9,97,-105,81,144,262,231,220,192
13,-143,-156,65,85,-149,99,96,164,140,143,128
-9,-183,-174,97,82,-178,116,64,95,81,94,77
-22,-211,-189,117,84,-200,129,48,52,36,59,53
-41,-231,-189,136,74,-210,138,44,31,23,37,38
-47,-237,-190,142,72,-213,144,39,26,19,30,26
-50,-240,-190,145,70,-215,149,33,21,14,28,24
-45,-235,-190,140,73,-212,150,27,18,10,25,21
-45,-235,-190,140,73,-212,150,22,12,5,22,18
-45,-234,-188,140,72,-211,150,20,11,5,19,15
-45,-229,-185,138,70,-207,150,17,15,5,20,16
-46,-230,-185,138,70,-207,149,14,15,5,20,20
-43,-228,-185,136,71,-206,144,11,15,5,20,22
-37,-222,-185,130,74,-203,141,9,12,5,20,25
-32,-217,-185,125,76,-201,138,5,9,4,20,28
-32,-214,-182,123,75,-197,133,5,6,-3,19,31
-30,-209,-179,119,75,-194,130,5,3,-8,14,26
-29,-205,-176,117,74,-190,126,5,0,-13,8,19
-37,-211,-173,124,68,-192,125,5,-1,-19,4,12
-48,-217,-170,133,61,-193,125,3,-7,-24,0,6
-51,-223,-171,137,60,-197,125,0,-13,-29,-5,-1
-50,-225,-175,138,63,-200,125,-3,-18,-36,-9,-7
-47,-225,-177,136,65,-201,124,-6,-38,-40,-10,-10
-45,-225,-180,135,68,-202,119,-9,-47,-40,-10,-13
-42,-225,-183,134,71,-204,116,-10,-44,-40,-10,-15
-39,-225,-186,133,74,-205,112,-15,-46,-40,-10,-18
-44,-225,-181,135,69,-203,108,-23,-44,-40,-11,-20
-45,-225,-180,135,68,-202,105,-25,-46,-44,-15,-20
-45,-225,-180,135,68,-202,102,-28,-49,-45,-15,-20
-48,-223,-175,136,64,-198,99,-31,-53,-45,-15,-20
-43,-218,-175,131,66,-196,96,-34,-56,-45,-15,-20
-41,-215,-174,128,67,-194,93,-36,-60,-44,-15,-20
-42,-212,-170,127,64,-191,90,-35,-58,-46,-19,-20
-37,-207,-170,122,67,-188,88,-35,-54,-50,-20,-20
-36,-206,-170,121,68,-187,85,-35,-55,-50,-20,-20
-41,-210,-170,126,65,-190,85,-35,-55,-50,-20,-20
-40,-210,-170,125,65,-190,83,-35,-55,-50,-20,-20
-43,-210,-167,127,62,-188,79,-33,-54,-50,-19,-20
-47,-210,-163,129,58,-186,81,-30,-51,-46,-14,-23
-50,-211,-161,130,55,-186,83,-29,-48,-40,-9,-20
-52,-208,-156,130,52,-182,89,-30,-44,-36,-5,-16
-34,-188,-153,112,60,-170,89,-29,-41,-29,0,-13
-40,-167,-128,104,44,-147,80,-31,-37,-23,5,-8
-44,-148,-104,96,30,-125,72,-12,-33,-20,9,-5
-30,-127,-97,79,34,-112,63,-2,-26,-19,11,-2
-36,-123,-86,80,25,-104,59,-40,-25,-21,16,3
-46,-126,-80,86,18,-103,60,-51,-18,-19,18,6
-61,-131,-69,96,4,-100,60,-41,-15,-22,25,9
-34,-132,-97,83,32,-114,60,-38,-33,-18,32,15
3,-140,-143,69,73,-141,60,-27,-43,-26,15,12
-11,-164,-153,88,71,-158,60,-25,-59,-37,0,-9
-24,-195,-171,110,74,-182,60,-15,-63,-48,-17,-31
-32,-192,-160,113,65,-176,60,-15,-83,-70,-31,-32
-35,-197,-162,116,64,-179,59,-7,-79,-66,-38,-37
-53,-201,-148,127,47,-174,60,-4,-79,-79,-44,-39
-51,-203,-152,127,51,-177,64,-1,-68,-66,-34,-41
-29,-240,-211,134,91,-225,97,57,-65,-88,-53,-56
-49,-206,-157,128,54,-181,163,189,96,4,-22,-46
60,135,74,-97,-7,104,-11,7,635,502,355,233
306,995,690,-651,-192,842,-669,-916,1042,1524,1372,1097
319,1194,874,-756,-278,1034,-1081,-1345,989,1781,1580,1322
40,340,299,-190,-130,319,-728,-831,174,440,396,427
-102,-138,-36,120,-33,-87,-308,-466,-451,-284,-143,-22
-26,-156,-130,91,53,-143,-102,-170,-142,-58,-17,-13
4,-138,-143,67,74,-140,17,6,22,-16,-5,-39
-6,-133,-127,70,61,-130,41,2,33,10,23,-10
-4,-146,-142,76,69,-144,57,56,64,-6,7,-18
-2,-132,-130,68,64,-130,71,57,46,2,22,-3
0,-137,-138,69,70,-138,77,61,66,11,18,-1
-3,-129,-126,66,62,-127,75,62,66,17,22,5
-6,-130,-125,68,60,-127,71,65,84,34,30,12
-4,-123,-119,64,58,-121,70,66,90,36,33,15
3,-111,-114,54,59,-113,69,67,112,53,40,23
8,-104,-111,48,60,-107,65,77,128,63,42,27
15,-90,-105,38,60,-97,60,81,148,74,59,29
24,-77,-101,27,62,-89,55,93,167,84,63,40
31,-63,-93,16,62,-78,52,105,190,102,77,62
46,-44,-89,-1,67,-66,45,120,224,126,89,69
63,-20,-83,-21,74,-51,49,155,256,157,111,86
76,3,-73,-39,74,-35,58,186,302,187,140,107
90,29,-61,-59,75,-15,47,220,345,221,158,126
106,59,-48,-82,77,5,40,270,395,261,200,152
130,103,-27,-116,78,38,30,314,453,309,240,187
151,153,1,-152,75,77,21,349,505,359,277,227
170,188,18,-179,76,103,8,351,544,408,322,262
181,222,41,-202,70,131,-9,345,552,429,359,292
179,238,59,-209,59,148,-20,314,545,416,362,300
173,216,43,-195,65,129,-33,234,484,405,327,281
140,163,23,-152,58,92,-18,148,346,318,267,230
83,85,2,-84,40,44,11,74,201,184,166,159
34,17,-17,-25,25,0,32,21,83,84,83,92
0,-39,-39,20,20,-39,55,-3,3,3,23,34
-14,-77,-62,46,24,-69,74,-18,-44,-44,-20,-4
-23,-89,-66,57,21,-77,77,-38,-68,-69,-39,-21
-32,-96,-65,65,17,-80,75,-41,-86,-76,-58,-30
-34,-99,-65,67,16,-82,75,-40,-97,-82,-65,-40
-32,-97,-65,65,17,-81,71,-46,-94,-86,-74,-46
-27,-92,-65,60,19,-78,70,-49,-96,-84,-76,-43
-29,-89,-60,59,15,-75,70,-47,-95,-89,-74,-50
-31,-86,-55,59,12,-70,66,-44,-95,-90,-76,-61
-31,-81,-50,56,10,-66,63,-45,-95,-91,-75,-57
-32,-79,-47,56,7,-62,60,-45,-95,-95,-73,-53
-32,-73,-41,53,5,-56,57,-45,-95,-95,-69,-50
-23,-66,-42,45,10,-54,55,-45,-95,-95,-70,-45
-14,-59,-45,37,16,-52,55,-45,-97,-95,-70,-47
-7,-53,-45,30,19,-49,55,-45,-101,-95,-70,-51
-2,-46,-44,24,22,-45,55,-45,-100,-97,-70,-49
-3,-49,-46,27,22,-48,55,-45,-100,-103,-75,-54
-16,-60,-44,38,14,-51,55,-45,-100,-107,-75,-55
-22,-63,-41,42,10,-52,56,-49,-99,-110,-75,-55
-32,-68,-36,50,2,-52,59,-51,-121,-115,-75,-56
-39,-69,-30,55,-5,-49,60,-55,-132,-123,-74,-51
-8,-65,-56,37,25,-60,60,-54,-129,-123,-93,-68
-4,-65,-62,35,30,-63,60,-49,-131,-119,-102,-78
-17,-65,-48,41,16,-56,60,-50,-130,-120,-99,-74
-23,-65,-42,44,10,-53,58,-50,-130,-120,-100,-72
-31,-65,-34,48,2,-50,54,-50,-125,-120,-100,-69
-29,-62,-32,46,2,-47,52,-50,-125,-120,-100,-71
-31,-59,-28,45,-2,-43,49,-54,-124,-124,-95,-74
-31,-56,-25,44,-2,-41,46,-65,-120,-125,-95,-75
-35,-53,-19,44,-8,-36,45,-64,-120,-125,-94,-75
-21,-50,-29,36,4,-39,45,-68,-122,-125,-90,-75
-8,-50,-42,29,17,-46,45,-70,-128,-125,-90,-75
-11,-50,-39,31,14,-45,45,-71,-131,-125,-92,-75
-7,-50,-43,29,18,-46,45,-87,-128,-125,-95,-75
-5,-50,-45,28,20,-47,45,-98,-141,-125,-99,-75
-5,-50,-45,28,20,-47,45,-104,-157,-125,-100,-75
-9,-51,-41,30,16,-46,45,-105,-154,-125,-95,-75
-5,-45,-40,25,18,-43,45,-105,-155,-124,-95,-76
1,-37,-38,18,20,-37,45,-105,-155,-121,-96,-77
5,-30,-35,13,20,-32,45,-104,-156,-117,-95,-75
14,-21,-34,4,24,-27,45,-106,-148,-114,-96,-72
4,-14,-18,5,12,-16,40,-102,-129,-109,-92,-69
10,17,7,-13,1,12,32,-98,-118,-106,-84,-66
7,40,32,-24,-12,36,26,-84,-105,-102,-76,-64
-12,41,53,-14,-33,47,19,-105,-102,-99,-68,-60
-5,62,67,-29,-36,64,13,-151,-107,-101,-61,-60
5,64,59,-35,-27,62,7,-152,-103,-98,-54,-59
-1,57,58,-28,-30,57,4,-148,-107,-103,-56,-55
11,57,46,-35,-18,52,-2,-145,-103,-95,-52,-54
34,29,-4,-32,18,13,-5,-141,-120,-106,-64,-62
10,-6,-15,-2,12,-10,2,-139,-144,-126,-85,-82
-14,-28,-13,21,0,-20,13,-132,-149,-137,-105,-98
-27,-36,-9,31,-9,-23,22,-133,-169,-147,-116,-101
-20,-56,-36,38,8,-45,26,-121,-150,-149,-122,-112
-20,-53,-32,37,7,-42,24,-127,-157,-156,-120,-112
-25,-61,-36,43,5,-48,36,-104,-132,-148,-119,-118
-4,-76,-72,40,35,-74,82,-34,-135,-163,-140,-140
-9,-3,6,6,-7,1,124,85,108,-4,-70,-117
136,447,311,-292,-88,379,-128,-226,679,602,452,302
362,1294,932,-828,-285,1113,-795,-1166,1008,1656,1473,1174
295,1229,934,-762,-319,1081,-1047,-1371,832,1567,1335,1118
19,360,341,-189,-161,350,-620,-830,-89,105,113,200
-42,56,98,-8,-70,77,-260,-507,-530,-356,-210,-103
26,47,22,-37,2,34,-88,-227,-161,-124,-94,-64
-1,28,29,-14,-16,28,-4,-101,-77,-124,-96,-68
9,41,33,-25,-13,37,24,-89,-64,-83,-67,-58
8,28,19,-19,-6,23,51,-60,-48,-94,-84,-73
6,35,28,-21,-11,31,58,-63,-39,-70,-63,-66
12,26,14,-19,-1,20,71,-43,-17,-67,-70,-68
10,36,26,-23,-9,31,69,-40,-21,-55,-59,-58
25,48,23,-37,1,35,70,-29,1,-40,-55,-55
23,49,26,-37,-2,37,70,-22,14,-32,-48,-48
34,59,25,-47,5,41,70,-15,43,-18,-40,-43
40,71,30,-56,5,51,70,-5,57,-12,-35,-36
36,75,38,-56,-1,56,60,8,78,9,-21,-24
43,84,42,-64,0,63,55,21,100,25,-12,-16
59,107,48,-84,6,77,47,41,129,50,8,-2
75,124,49,-99,13,86,39,60,163,76,30,11
82,144,62,-113,10,103,33,83,201,104,60,26
96,167,71,-132,13,119,25,113,240,129,79,40
103,196,93,-150,5,144,18,144,290,169,107,63
119,236,117,-178,0,176,11,185,351,217,144,94
153,276,123,-214,14,199,4,221,407,265,182,132
174,322,148,-248,13,235,-10,255,463,319,233,165
191,355,164,-273,13,259,-23,262,501,356,265,199
201,383,183,-292,8,283,-42,243,516,392,295,226
203,403,200,-303,1,301,-60,199,491,391,310,224
183,373,190,-279,-3,281,-54,127,424,351,288,213
131,309,178,-221,-24,243,-39,49,290,258,205,163
88,228,140,-158,-26,184,-15,-13,133,119,93,79
45,154,109,-100,-32,131,6,-63,24,21,15,10
13,116,103,-65,-45,109,13,-98,-63,-56,-53,-46
0,93,93,-47,-47,93,23,-110,-111,-103,-88,-84
-11,75,86,-32,-49,80,28,-120,-128,-119,-114,-101
-17,62,79,-23,-48,70,25,-123,-152,-136,-132,-107
-16,59,75,-22,-45,66,25,-118,-156,-139,-128,-117
-14,61,75,-24,-45,67,25,-117,-154,-142,-131,-128
-16,59,75,-22,-45,66,25,-113,-152,-145,-129,-132
-14,61,75,-24,-44,67,25,-111,-150,-147,-131,-129
-17,59,75,-21,-46,66,25,-108,-150,-151,-128,-125
-11,63,74,-27,-43,68,25,-105,-146,-147,-125,-122
-2,74,77,-36,-40,75,25,-105,-142,-144,-123,-117
-8,76,84,-34,-47,80,25,-105,-138,-140,-120,-115
-5,80,85,-38,-45,82,25,-105,-136,-137,-117,-119
-6,78,84,-36,-46,81,24,-105,-128,-132,-115,-120
-13,74,87,-31,-50,80,20,-109,-145,-130,-119,-120
-10,76,86,-33,-49,81,20,-116,-155,-135,-121,-120
-14,71,85,-29,-50,78,18,-122,-165,-139,-124,-120
-14,70,84,-28,-49,77,15,-125,-188,-142,-126,-122
-11,70,81,-29,-46,75,15,-129,-188,-149,-135,-130
-14,65,79,-25,-47,72,18,-130,-194,-165,-144,-135
-16,65,82,-25,-49,73,21,-130,-202,-171,-145,-135
-25,64,88,-20,-57,76,20,-130,-204,-169,-145,-135
-31,60,91,-15,-61,75,20,-130,-206,-174,-145,-135
-30,59,89,-15,-60,75,19,-131,-204,-175,-145,-137
-28,63,91,-17,-60,76,21,-136,-205,-174,-144,-140
-23,65,88,-21,-56,76,25,-139,-208,-170,-140,-143
-16,69,85,-27,-51,76,25,-140,-211,-170,-140,-146
-15,70,85,-28,-50,77,25,-140,-214,-170,-155,-149
-20,65,85,-23,-53,75,25,-140,-217,-169,-162,-150
-20,65,85,-23,-53,75,25,-140,-220,-171,-159,-150
-20,65,85,-23,-53,75,25,-140,-219,-167,-161,-150
-20,65,85,-23,-53,75,25,-139,-214,-165,-160,-150
-20,65,85,-23,-53,75,25,-135,-211,-165,-160,-150
-17,67,85,-26,-51,76,25,-135,-208,-161,-160,-150
-26,70,97,-22,-62,83,25,-135,-203,-159,-160,-150
-30,70,99,-20,-65,84,26,-135,-200,-161,-160,-150
-21,70,91,-25,-56,80,30,-135,-204,-164,-160,-150
-20,70,90,-25,-55,80,30,-130,-201,-167,-160,-150
-12,69,82,-29,-47,75,32,-121,-194,-170,-158,-145
-6,76,82,-35,-44,78,36,-112,-188,-173,-151,-142
0,81,81,-41,-41,81,35,-104,-181,-176,-147,-139
-2,91,93,-45,-48,92,31,-96,-174,-172,-141,-134
-16,128,144,-56,-80,136,24,-94,-168,-163,-135,-131
-16,151,167,-68,-92,158,17,-83,-166,-152,-130,-127
-7,152,159,-73,-83,155,11,-98,-161,-143,-125,-125
19,175,156,-97,-69,165,4,-135,-161,-145,-121,-122
39,188,149,-114,-55,168,0,-130,-155,-145,-114,-119
30,172,143,-101,-57,157,0,-121,-155,-146,-113,-116
25,165,140,-95,-58,152,0,-118,-163,-144,-103,-113
23,146,123,-85,-50,134,6,-107,-177,-145,-113,-127
4,118,114,-61,-55,116,21,-106,-202,-148,-145,-141
-8,90,98,-41,-53,94,36,-97,-202,-159,-161,-154
-24,75,99,-26,-61,87,34,-100,-218,-176,-165,-165
-25,67,92,-21,-58,79,39,-90,-209,-164,-169,-176
-24,62,86,-19,-55,74,40,-92,-214,-174,-178,-176
-24,63,87,-20,-56,75,43,-82,-197,-151,-173,-182
13,42,29,-27,-8,35,80,-15,-202,-170,-196,-196
-17,62,79,-23,-48,71,121,94,-61,-105,-163,-177
58,375,317,-217,-130,346,-24,-51,476,364,203,89
318,1229,911,-774,-297,1070,-651,-919,887,1392,1206,929
335,1469,1134,-902,-400,1301,-1088,-1386,863,1725,1476,1195
56,624,568,-340,-257,596,-745,-886,63,386,306,325
-65,156,220,-46,-143,188,-319,-504,-596,-407,-274,-160
-2,145,146,-72,-74,145,-120,-221,-293,-178,-149,-149
5,126,121,-66,-58,123,-27,-34,-112,-140,-146,-164
9,135,125,-72,-58,130,2,-38,-119,-110,-115,-138
3,106,103,-55,-50,104,42,-8,-91,-111,-131,-142
-19,96,115,-39,-67,105,56,-11,-94,-100,-116,-128
-12,95,107,-42,-59,101,68,4,-64,-90,-117,-125
9,121,111,-65,-51,116,69,10,-65,-90,-113,-118
12,121,109,-67,-49,115,64,18,-45,-70,-97,-110
7,116,110,-62,-52,113,66,29,-29,-63,-90,-106
14,130,116,-72,-51,122,64,34,-8,-43,-75,-96
2,125,123,-64,-61,124,66,48,4,-34,-69,-90
17,139,122,-78,-53,130,65,62,15,-17,-56,-79
28,158,131,-93,-52,144,62,75,44,-6,-48,-72
20,168,149,-95,-65,158,56,88,75,12,-32,-62
40,183,142,-112,-51,162,52,113,107,31,-21,-53
55,203,148,-129,-47,175,47,140,144,55,-2,-39
52,225,173,-139,-61,199,43,169,188,91,27,-15
75,254,179,-164,-52,216,39,209,234,124,56,16
103,289,186,-196,-42,237,33,251,291,165,92,38
119,331,213,-225,-47,272,26,297,344,213,131,64
155,380,224,-268,-35,302,19,335,393,262,179,112
167,406,239,-287,-37,322,13,346,434,303,217,148
174,438,264,-306,-46,351,4,342,447,340,250,174
184,451,267,-318,-42,359,-3,310,444,349,268,197
168,427,259,-298,-46,343,-13,230,402,316,245,181
136,387,251,-262,-58,319,-18,145,275,233,185,128
76,307,231,-191,-78,269,6,83,118,105,84,49
30,229,199,-130,-85,214,38,33,-3,-3,-12,-22
15,175,161,-95,-73,168,66,0,-91,-85,-75,-72
0,143,144,-72,-72,143,76,-9,-141,-135,-121,-119
-11,131,142,-60,-77,137,74,-14,-172,-154,-146,-142
-18,120,138,-51,-78,129,76,-20,-183,-165,-150,-148
-21,114,135,-47,-78,125,74,-25,-178,-165,-145,-151
-15,115,130,-50,-73,122,82,-29,-177,-164,-145,-149
-13,115,128,-51,-71,121,88,-32,-180,-161,-145,-150
-9,115,124,-54,-67,120,83,-35,-180,-160,-145,-150
-12,115,127,-52,-70,121,81,-38,-175,-160,-146,-150
-27,115,142,-44,-85,128,78,-40,-174,-160,-142,-150
-32,115,147,-42,-90,131,75,-43,-170,-160,-140,-150
-34,114,148,-40,-92,131,74,-46,-171,-160,-140,-150
-36,116,152,-40,-95,133,69,-45,-177,-160,-140,-150
-41,114,155,-37,-98,134,63,-45,-180,-160,-140,-150
-36,118,154,-41,-95,136,60,-45,-185,-163,-141,-146
-22,126,148,-52,-86,137,55,-45,-188,-166,-144,-145
-23,121,144,-50,-83,132,50,-50,-192,-169,-145,-145
-23,116,139,-46,-82,127,46,-50,-195,-171,-149,-145
-22,113,135,-46,-79,124,45,-50,-198,-180,-150,-145
-23,107,130,-42,-77,118,45,-50,-202,-182,-152,-146
-21,105,126,-42,-74,115,45,-49,-205,-179,-155,-155
-20,105,124,-43,-72,115,45,-52,-207,-180,-158,-161
-20,105,125,-43,-73,115,44,-57,-210,-175,-161,-159
-19,105,124,-43,-72,115,39,-62,-213,-174,-164,-160
-21,104,125,-42,-74,115,34,-65,-216,-177,-165,-160
-18,105,123,-44,-71,114,30,-59,-218,-180,-160,-160
-17,99,116,-42,-66,107,25,-53,-221,-181,-161,-164
-18,90,108,-36,-64,99,21,-49,-220,-185,-159,-166
-21,82,103,-30,-63,92,20,-42,-220,-185,-165,-169
-16,73,89,-28,-53,81,26,-38,-221,-188,-180,-171
-1,64,65,-32,-34,64,36,-32,-217,-197,-180,-175
4,47,44,-26,-20,45,38,-26,-229,-199,-177,-174
26,38,13,-32,6,25,44,-20,-237,-194,-175,-168
47,54,7,-51,19,30,47,-12,-225,-188,-174,-164
44,103,59,-74,-8,81,39,-7,-223,-186,-169,-159
45,122,77,-84,-16,99,31,1,-212,-178,-165,-155
44,121,76,-82,-16,98,24,-19,-209,-178,-163,-150
27,127,100,-78,-37,113,19,-48,-206,-172,-157,-153
27,125,98,-76,-35,111,13,-50,-210,-178,-157,-157
9,135,126,-72,-59,131,7,-60,-207,-172,-156,-153
-10,120,130,-55,-70,125,4,-55,-198,-176,-164,-163
-3,132,135,-65,-69,133,6,-63,-207,-176,-156,-156
7,114,106,-60,-50,110,4,-38,-186,-169,-164,-165
6,99,93,-53,-44,96,24,51,-177,-170,-149,-173
6,215,209,-111,-101,211,36,130,212,81,-28,-101
206,815,610,-511,-202,712,-337,-341,753,845,665,475
387,1551,1164,-969,-388,1357,-971,-1170,957,1777,1561,1235
210,1160,951,-685,-371,1055,-998,-1101,569,1184,965,820
-28,388,417,-180,-223,402,-551,-612,-367,-201,-128,-10
-71,184,255,-57,-163,219,-273,-351,-517,-324,-213,-133
-18,179,197,-81,-107,188,-129,-89,-168,-141,-127,-100
28,231,203,-130,-88,217,-68,-24,-127,-124,-113,-100
27,213,187,-120,-80,200,-52,-14,-87,-80,-99,-102
22,204,182,-113,-80,193,-48,2,-95,-100,-103,-113
30,208,177,-119,-74,192,-52,2,-81,-75,-85,-117
34,202,167,-118,-67,184,-48,18,-62,-83,-88,-115
44,208,163,-126,-60,185,-52,18,-47,-69,-72,-103
41,203,162,-122,-61,182,-47,37,-36,-67,-69,-101
31,205,174,-118,-72,190,-45,41,-36,-49,-58,-91
43,210,167,-127,-63,188,-45,52,3,-32,-52,-87
67,232,165,-150,-49,198,-41,69,27,-22,-43,-78
67,229,162,-148,-47,196,-40,76,49,-4,-34,-69
74,230,156,-152,-41,193,-40,94,80,9,-26,-62
87,244,156,-166,-35,200,-47,115,116,35,-8,-49
74,251,177,-162,-52,214,-58,131,149,57,15,-40
94,279,185,-187,-46,232,-60,166,190,89,41,-23
115,300,184,-208,-35,242,-60,205,245,133,64,3
125,318,193,-222,-34,255,-70,235,290,173,101,40
155,363,208,-259,-27,285,-81,275,351,229,152,75
166,396,230,-281,-32,313,-95,315,411,279,191,102
182,423,241,-303,-30,332,-101,340,460,333,236,156
204,462,258,-333,-28,360,-117,347,498,384,294,198
227,490,263,-358,-18,376,-129,328,496,396,314,209
224,479,255,-352,-16,367,-117,263,453,381,291,206
170,421,251,-296,-41,336,-107,183,321,291,220,156
110,338,228,-225,-59,283,-98,123,157,145,97,69
66,260,194,-163,-64,227,-75,72,28,23,-7,-15
40,200,160,-120,-60,180,-49,28,-64,-59,-72,-76
17,160,144,-89,-64,152,-40,1,-118,-113,-113,-108
6,146,140,-76,-67,143,-34,-3,-148,-138,-125,-122
3,138,135,-71,-66,136,-27,-6,-170,-150,-135,-143
-4,127,131,-61,-68,129,-21,-9,-174,-156,-142,-148
-2,125,126,-62,-65,126,-15,-14,-167,-154,-144,-144
3,125,122,-64,-60,123,-21,-14,-166,-155,-146,-146
5,125,120,-65,-58,122,-28,-9,-161,-155,-145,-144
5,125,120,-65,-58,122,-34,-11,-157,-155,-145,-146
4,124,120,-64,-59,122,-42,-8,-155,-153,-145,-144
8,128,120,-68,-56,123,-43,-5,-160,-146,-143,-141
10,130,120,-70,-55,125,-39,-5,-160,-141,-138,-136
6,131,125,-69,-59,127,-40,-5,-161,-136,-135,-133
10,135,125,-73,-58,130,-40,-5,-166,-130,-132,-130
8,134,126,-72,-59,130,-40,-5,-164,-126,-127,-125
0,130,130,-65,-65,130,-40,-5,-166,-130,-125,-128
0,130,130,-65,-65,130,-44,-6,-163,-133,-129,-130
2,130,128,-66,-63,128,-48,-3,-177,-138,-130,-131
7,130,123,-69,-58,126,-45,0,-192,-146,-129,-135
10,130,120,-70,-55,125,-46,3,-189,-153,-132,-136
11,128,117,-70,-53,122,-43,5,-190,-155,-139,-139
12,124,112,-68,-51,118,-41,8,-190,-155,-145,-142
13,122,109,-67,-48,115,-39,11,-190,-154,-150,-144
13,119,106,-66,-46,112,-44,6,-190,-157,-150,-148
13,116,103,-65,-46,109,-51,5,-190,-170,-150,-150
14,114,100,-64,-44,107,-53,5,-189,-168,-150,-150
13,110,97,-62,-42,103,-69,0,-193,-163,-150,-153
15,110,95,-63,-40,102,-69,-1,-201,-161,-152,-155
16,109,92,-63,-38,100,-63,1,-200,-155,-155,-154
15,104,90,-60,-38,97,-62,5,-199,-156,-158,-155
15,105,90,-60,-38,97,-55,5,-196,-160,-161,-155
13,103,90,-58,-39,96,-57,5,-193,-163,-164,-155
10,99,90,-54,-40,95,-60,5,-201,-167,-165,-155
10,100,90,-55,-40,95,-63,5,-210,-170,-165,-154
10,100,90,-55,-40,95,-65,9,-210,-174,-165,-158
10,100,90,-55,-40,95,-68,15,-208,-175,-165,-160
10,100,90,-55,-40,95,-71,20,-205,-175,-165,-160
5,95,90,-50,-43,92,-66,26,-205,-175,-165,-160
5,95,90,-50,-43,92,-61,31,-203,-174,-165,-160
6,94,88,-50,-41,90,-56,36,-200,-176,-165,-159
6,89,83,-48,-38,86,-53,41,-196,-180,-165,-155
11,90,80,-50,-35,85,-47,46,-194,-180,-165,-155
11,87,77,-49,-33,82,-46,49,-190,-180,-165,-155
13,85,72,-49,-30,78,-51,54,-191,-180,-165,-155
15,85,70,-50,-28,77,-53,55,-208,-180,-165,-155
16,85,69,-50,-27,76,-57,55,-211,-176,-165,-157
11,85,74,-48,-32,79,-60,59,-209,-175,-165,-161
0,85,85,-43,-43,85,-56,61,-211,-175,-165,-159
-4,85,89,-41,-47,86,-55,58,-209,-175,-165,-172
-3,85,88,-41,-46,86,-55,55,-212,-175,-165,-186
2,85,83,-44,-41,84,-55,55,-215,-176,-165,-184
5,85,80,-45,-38,82,-55,55,-215,-180,-165,-187
9,85,77,-48,-35,81,-55,55,-215,-180,-165,-190
10,82,72,-47,-31,77,-55,55,-215,-180,-165,-190
10,80,69,-45,-30,74,-55,58,-215,-180,-166,-187
15,80,65,-48,-25,72,-55,60,-212,-180,-169,-184
12,76,64,-44,-27,70,-55,60,-208,-177,-172,-186
9,74,65,-42,-29,69,-55,61,-204,-175,-175,-181
11,75,64,-44,-27,70,-51,59,-202,-176,-178,-180
14,79,66,-47,-26,72,-44,62,-193,-174,-181,-179
18,80,62,-49,-22,71,-37,66,-202,-176,-178,-176
20,80,60,-50,-20,70,-31,83,-209,-173,-171,-173
20,79,60,-50,-20,70,-23,115,-188,-170,-166,-170
26,83,57,-54,-16,70,-22,122,-185,-170,-159,-167
37,91,54,-65,-8,72,-23,114,-185,-167,-156,-164
37,93,56,-66,-10,75,-38,107,-185,-165,-159,-167
26,85,59,-56,-17,72,-63,100,-184,-163,-161,-170
22,82,60,-52,-19,70,-66,92,-186,-171,-166,-171
15,76,61,-46,-23,69,-64,85,-190,-172,-166,-175
11,68,57,-40,-23,63,-66,81,-209,-186,-173,-176
4,68,64,-36,-30,66,-65,77,-210,-181,-169,-178
2,55,53,-29,-26,54,-64,84,-199,-192,-179,-187
0,57,58,-29,-29,58,-61,73,-206,-190,-175,-185
-1,42,43,-20,-22,42,-45,99,-186,-194,-183,-197
0,50,50,-26,-26,50,-20,197,-163,-190,-190,-197
11,162,151,-87,-70,157,-18,257,222,73,-33,-116
213,784,571,-499,-179,678,-429,-327,730,840,686,475
391,1495,1104,-944,-356,1299,-1111,-1164,912,1750,1548,1221
242,1026,784,-634,-271,904,-1101,-979,503,1098,926,781
6,246,240,-127,-117,243,-602,-472,-399,-229,-146,-44
-68,90,158,-11,-113,124,-301,-201,-468,-300,-199,-161
-7,94,102,-44,-55,98,-155,68,-111,-128,-138,-155
21,122,101,-72,-40,111,-100,106,-103,-126,-124,-155
11,108,97,-60,-43,102,-76,133,-71,-121,-101,-143
15,105,90,-60,-38,97,-62,156,-75,-133,-119,-147
12,104,92,-58,-40,97,-54,154,-57,-99,-100,-135
11,93,81,-53,-35,87,-48,179,-46,-104,-110,-136
9,100,91,-54,-42,96,-52,182,-37,-84,-102,-123
10,98,88,-54,-39,93,-49,192,-17,-83,-101,-121
14,105,91,-60,-39,98,-51,197,-10,-70,-85,-111
15,104,90,-59,-38,96,-49,209,10,-59,-75,-107
23,113,90,-68,-34,101,-45,222,25,-48,-60,-99
30,122,91,-76,-31,106,-45,241,53,-34,-46,-86
31,126,95,-79,-32,110,-45,253,74,-20,-34,-75
44,140,95,-92,-26,117,-45,278,103,7,-19,-62
52,152,100,-102,-24,125,-45,308,132,35,-6,-51
69,169,100,-119,-16,134,-45,334,170,62,9,-38
84,187,102,-136,-9,144,-45,372,217,87,27,-18
87,209,122,-148,-18,165,-44,418,264,126,64,1
110,243,132,-176,-11,187,-45,464,322,163,95,24
139,280,142,-210,-2,211,-44,507,374,210,137,59
158,310,152,-235,3,231,-57,538,424,260,171,90
171,343,172,-257,0,257,-71,534,449,284,204,123
179,368,189,-274,-5,278,-80,505,443,306,238,151
185,367,182,-276,1,274,-106,452,431,311,236,161
169,346,177,-258,-5,262,-118,366,374,289,229,157
125,286,161,-206,-19,224,-108,272,247,200,162,109
80,208,128,-144,-24,167,-85,205,110,75,61,30
51,140,90,-96,-20,115,-61,166,7,-9,-8,-31
26,90,65,-58,-20,77,-49,141,-69,-79,-69,-81
1,61,60,-31,-30,61,-42,127,-116,-127,-110,-119
-8,46,55,-19,-32,50,-36,124,-139,-145,-122,-130
-8,41,50,-17,-29,45,-29,125,-140,-151,-128,-131
-6,36,43,-15,-25,39,-22,121,-140,-150,-139,-136
-9,32,41,-12,-25,36,-22,120,-140,-150,-141,-133
-17,27,45,-6,-31,36,-25,120,-140,-150,-139,-127
-23,24,47,-1,-36,36,-26,120,-139,-150,-140,-125
-25,25,50,0,-38,37,-30,120,-133,-146,-140,-118
-28,25,53,1,-41,39,-30,120,-129,-144,-140,-116
-31,25,56,3,-44,40,-35,120,-124,-145,-140,-125
-21,30,50,-5,-36,40,-43,119,-122,-145,-140,-125
-15,30,45,-8,-30,37,-45,122,-113,-145,-140,-125
-9,30,39,-10,-24,35,-45,125,-127,-146,-140,-122
-7,28,35,-10,-21,31,-48,125,-156,-151,-140,-119
-3,24,27,-11,-16,26,-51,125,-161,-156,-140,-121
-1,25,26,-12,-14,26,-49,125,-171,-159,-140,-125
-17,21,39,-2,-28,30,-46,124,-179,-164,-140,-130
-18,17,35,0,-27,26,-44,120,-192,-165,-141,-133
-13,14,27,-1,-20,20,-38,120,-197,-167,-149,-138
-10,11,21,-1,-15,16,-53,120,-193,-170,-150,-140
-9,6,15,1,-12,10,-66,120,-196,-171,-150,-143
2,6,5,-4,-2,5,-55,120,-194,-175,-150,-146
14,10,-3,-12,9,3,-53,118,-196,-175,-150,-149
4,10,6,-7,-1,8,-45,113,-201,-171,-149,-150
-5,10,15,-2,-10,12,-37,110,-205,-168,-145,-145
-8,10,18,-1,-13,14,-32,107,-205,-163,-145,-142
-5,10,15,-3,-10,12,-22,102,-205,-162,-145,-138
-5,7,12,-1,-9,9,-54,100,-205,-154,-145,-136
-7,2,9,2,-8,5,-61,100,-205,-160,-145,-128
-6,0,6,3,-6,2,-39,100,-202,-176,-149,-137
-9,-5,4,6,-6,0,-38,100,-199,-175,-150,-151
-9,-8,1,9,-5,-4,-31,100,-196,-175,-150,-144
-10,-12,-2,11,-4,-7,-31,99,-193,-175,-155,-141
-10,-15,-5,13,-2,-10,-9,102,-190,-175,-155,-136
-7,-15,-8,12,1,-11,-28,105,-191,-173,-155,-131
-5,-15,-10,10,3,-12,-62,105,-195,-169,-155,-127
-5,-15,-10,10,3,-12,-44,105,-198,-170,-155,-125
-5,-15,-10,10,3,-12,-37,105,-202,-170,-155,-125
-5,-15,-10,10,3,-12,-35,105,-204,-170,-155,-125
-5,-15,-10,10,3,-12,-35,100,-202,-169,-155,-125
-4,-15,-10,10,3,-12,-35,93,-198,-165,-151,-125
-6,-15,-9,11,2,-12,-34,88,-197,-165,-150,-129
-9,-15,-6,12,-1,-10,-36,82,-193,-165,-150,-130
-12,-17,-5,15,-3,-11,-30,77,-191,-165,-146,-130
-18,-20,-3,19,-8,-11,-24,69,-189,-166,-146,-130
-24,-22,1,23,-12,-10,-17,63,-183,-163,-144,-130
-22,-26,-4,24,-9,-15,-11,56,-190,-156,-139,-128
-16,-27,-11,22,-2,-19,-4,49,-184,-152,-135,-121
-12,-33,-21,22,5,-26,2,75,-167,-145,-133,-116
13,-16,-29,2,21,-22,5,87,-165,-140,-128,-111
40,15,-25,-27,32,-5,11,77,-165,-135,-124,-104
34,13,-21,-23,27,-4,2,75,-164,-130,-129,-102
21,8,-14,-14,17,-3,-13,66,-167,-130,-130,-103
16,2,-14,-9,15,-6,-35,64,-161,-129,-131,-108
-1,-3,-2,2,1,-3,-52,55,-173,-137,-129,-108
7,-9,-17,1,12,-13,-49,55,-178,-154,-131,-114
6,-14,-21,4,14,-17,-50,45,-190,-164,-136,-114
-23,-25,-2,24,-10,-14,-44,44,-180,-157,-134,-115
-33,-34,-1,33,-15,-17,-46,40,-188,-173,-137,-121
-47,-40,7,44,-27,-17,-40,30,-191,-161,-139,-126
-6,-51,-45,29,20,-48,-8,78,-176,-178,-158,-137
6,-1,-7,-2,7,-4,22,171,-44,-105,-131,-130
55,257,201,-156,-73,228,-86,102,479,333,163,79
287,1067,780,-677,-247,923,-641,-665,895,1308,1124,876
326,1422,1096,-874,-385,1259,-1114,-1224,903,1782,1539,1255
85,650,566,-368,-241,608,-847,-806,192,553,437,446
-62,102,164,-20,-114,133,-426,-427,-552,-383,-251,-110
-63,11,74,25,-68,42,-218,-167,-306,-189,-137,-85
-24,17,41,3,-32,29,-104,32,-77,-111,-103,-83
13,68,55,-41,-22,62,-80,36,-85,-73,-78,-76
15,46,31,-31,-8,39,-58,67,-51,-73,-109,-84
21,55,35,-38,-7,45,-51,66,-63,-72,-94,-73
22,47,24,-35,-1,35,-45,81,-32,-55,-84,-71
15,45,30,-30,-8,37,-37,90,-35,-61,-79,-67
9,47,38,-29,-15,42,-31,98,-10,-41,-65,-60
7,49,41,-28,-17,45,-25,108,13,-36,-63,-59
11,51,40,-31,-14,46,-30,109,35,-15,-50,-50
16,51,35,-34,-9,43,-30,122,58,-5,-46,-45
22,56,34,-39,-7,45,-29,124,72,15,-28,-37
25,55,29,-40,-2,41,-33,142,101,28,-16,-31
27,58,31,-43,-2,45,-35,154,121,41,-2,-23
38,78,40,-59,-1,59,-36,165,152,66,14,-9
53,100,47,-77,3,73,-41,195,201,94,30,16
58,113,55,-86,1,84,-39,223,239,124,63,34
86,139,53,-113,16,96,-48,258,284,161,90,47
99,164,65,-132,17,114,-54,302,338,208,113,80
106,197,91,-152,7,144,-55,342,392,251,152,109
136,238,101,-187,17,169,-67,375,449,300,197,141
153,272,119,-212,17,195,-74,401,485,350,238,187
163,299,136,-231,13,217,-91,396,511,379,274,213
165,310,145,-238,10,228,-107,352,506,386,287,234
169,308,139,-239,15,223,-103,292,460,377,277,230
141,263,122,-202,9,192,-92,210,353,308,232,180
81,184,103,-133,-11,143,-79,127,198,176,129,118
40,109,68,-75,-14,88,-52,78,81,64,32,41
15,49,34,-32,-10,41,-30,51,-12,-19,-28,-22
-10,11,21,-1,-16,16,-27,35,-77,-76,-78,-54
-25,-8,17,16,-20,4,-21,25,-111,-107,-103,-81
-27,-18,9,22,-17,-4,-17,15,-131,-121,-110,-94
-33,-30,3,32,-18,-14,-13,5,-134,-117,-115,-97
-35,-39,-4,37,-15,-21,-8,-3,-139,-115,-115,-104
-35,-40,-5,38,-15,-22,-5,-7,-138,-112,-115,-104
-35,-40,-5,38,-15,-22,-5,-13,-132,-109,-115,-100
-35,-40,-5,38,-15,-22,-3,-19,-128,-106,-115,-100
-36,-40,-5,38,-15,-22,1,-24,-124,-105,-112,-97
-34,-40,-6,38,-14,-22,0,-25,-119,-110,-109,-95
-37,-40,-3,39,-17,-21,4,-25,-115,-110,-106,-95
-40,-40,0,40,-20,-20,5,-25,-123,-110,-103,-92
-40,-40,0,40,-20,-20,5,-25,-125,-110,-100,-89
-40,-41,0,40,-20,-20,5,-25,-126,-110,-102,-86
-40,-39,0,39,-20,-20,5,-26,-130,-112,-105,-83
-41,-41,0,41,-20,-21,4,-30,-130,-118,-108,-80
-35,-38,-3,37,-16,-20,0,-30,-136,-122,-110,-81
-40,-46,-6,44,-17,-26,0,-35,-143,-126,-107,-86
-56,-65,-9,61,-23,-37,0,-44,-149,-129,-103,-89
-53,-65,-12,59,-20,-38,0,-45,-156,-134,-109,-94
-51,-66,-15,59,-18,-40,0,-45,-162,-135,-116,-101
-55,-70,-15,63,-20,-42,-4,-50,-166,-135,-115,-105
-55,-70,-15,63,-20,-42,-5,-50,-164,-135,-115,-105
-52,-68,-15,61,-18,-41,-5,-50,-165,-135,-115,-105
-50,-64,-14,58,-17,-39,-10,-50,-165,-135,-114,-105
-40,-65,-26,53,-6,-45,-10,-50,-165,-135,-116,-105
-33,-65,-32,49,0,-48,-10,-50,-169,-139,-122,-102
-39,-65,-27,52,-5,-46,-10,-50,-170,-140,-125,-99
-40,-65,-25,53,-7,-45,-10,-50,-170,-140,-125,-100
-51,-72,-21,62,-15,-46,-10,-47,-170,-140,-125,-99
-60,-80,-20,70,-20,-50,-10,-44,-170,-139,-125,-100
-56,-80,-23,69,-17,-51,-10,-41,-168,-143,-125,-99
-52,-80,-28,66,-12,-54,-7,-39,-164,-145,-123,-94
-49,-80,-31,64,-9,-56,-4,-35,-165,-145,-120,-96
-45,-80,-35,63,-5,-57,-1,-36,-165,-145,-120,-92
-42,-80,-38,61,-2,-59,2,-50,-165,-145,-120,-90
-43,-85,-42,64,0,-63,4,-56,-165,-144,-120,-89
-40,-85,-45,63,3,-65,6,-55,-160,-140,-120,-88
-45,-86,-41,65,-1,-63,14,-55,-160,-140,-124,-81
-51,-91,-40,71,-6,-65,25,-55,-160,-140,-125,-83
-49,-89,-40,69,-5,-65,35,-55,-160,-140,-125,-104
-53,-93,-40,73,-6,-66,40,-55,-160,-139,-125,-102
-55,-95,-40,75,-7,-67,40,-55,-160,-143,-125,-95
-55,-97,-42,76,-6,-69,40,-55,-160,-146,-125,-94
-49,-100,-51,75,1,-75,41,-54,-160,-145,-125,-87
-47,-101,-55,74,4,-78,39,-55,-171,-149,-137,-84
-45,-103,-58,74,7,-80,43,-53,-174,-150,-139,-80
-46,-110,-64,78,9,-86,45,-43,-166,-149,-132,-80
-43,-125,-82,84,19,-103,63,-30,-164,-144,-129,-80
-37,-127,-91,82,28,-109,93,-19,-158,-137,-124,-80
-28,-123,-95,76,34,-109,102,-6,-154,-131,-119,-80
-10,-127,-117,69,54,-122,104,3,-167,-124,-116,-77
-20,-120,-100,70,40,-110,88,1,-177,-117,-113,-74
-28,-110,-82,70,27,-96,71,-11,-164,-119,-110,-75
-9,-98,-89,54,40,-93,66,-33,-166,-134,-109,-71
-11,-88,-77,50,33,-82,61,-46,-158,-127,-102,-69
-24,-93,-69,59,22,-81,58,-53,-153,-133,-110,-73
-40,-85,-45,62,3,-65,52,-62,-169,-128,-108,-73
-46,-97,-51,71,2,-73,49,-69,-167,-130,-113,-81
-59,-82,-23,70,-18,-52,39,-71,-161,-130,-113,-78
-62,-103,-41,82,-10,-72,48,-43,-142,-117,-116,-89
-43,-119,-76,82,16,-98,94,29,-138,-138,-114,-86
-38,-16,22,27,-30,3,112,136,200,66,-14,-30
126,522,396,-324,-135,459,-225,-317,747,771,602,465
351,1318,966,-835,-308,1142,-906,-1217,1035,1770,1588,1292
240,1020,781,-630,-271,900,-1028,-1204,726,1376,1174,1024
-43,179,221,-68,-133,200,-549,-690,-238,-61,-2,135
-97,-44,53,71,-75,4,-216,-426,-470,-299,-141,-57
-52,-43,9,47,-30,-17,-55,-140,-97,-88,-65,-23
-58,-20,38,39,-47,9,11,-67,-56,-100,-84,-24
-51,-34,17,42,-33,-8,35,-62,-27,-59,-52,-31
-31,-37,-7,34,-12,-21,55,-20,-24,-73,-68,-48
-8,-25,-17,17,5,-21,51,-24,-5,-46,-43,-30
-9,-28,-19,19,5,-24,61,-9,22,-47,-50,-28
-11,-17,-6,14,-2,-11,58,-13,29,-31,-35,-15
-11,-18,-8,15,-1,-13,61,-3,45,-22,-28,-12
-13,-9,4,11,-8,-2,59,-2,57,-14,-18,-4
-16,-11,5,13,-10,-3,64,8,80,2,-6,3
-18,-7,11,13,-14,2,73,26,95,9,1,9
-14,-5,9,9,-11,2,70,39,117,28,14,16
-14,-4,10,9,-12,3,70,50,146,45,22,23
0,11,10,-5,-5,10,70,68,184,65,31,38
12,22,10,-17,1,16,70,95,209,90,45,47
30,44,14,-38,8,29,71,123,249,112,67,63
53,72,19,-63,17,45,66,158,294,139,93,87
59,101,42,-80,8,71,57,199,336,176,123,115
78,134,57,-106,10,95,52,252,398,224,156,141
102,165,63,-134,20,114,42,291,453,280,203,174
121,202,81,-161,20,141,36,325,507,330,251,212
148,241,94,-195,27,167,28,337,545,375,283,247
143,256,113,-200,15,184,14,306,546,399,312,276
122,245,123,-184,-1,184,-4,254,528,401,324,281
125,232,108,-179,8,170,-11,170,457,366,294,264
86,174,88,-130,-1,131,8,85,323,259,215,207
24,82,59,-53,-18,70,35,24,174,129,114,125
-13,13,26,0,-20,19,67,-23,64,27,30,57
-45,-43,2,44,-24,-20,84,-47,-13,-43,-21,9
-60,-69,-9,65,-25,-39,92,-47,-63,-87,-58,-22
-63,-89,-26,76,-18,-57,101,-44,-88,-117,-89,-47
-56,-104,-48,80,-4,-76,99,-45,-102,-126,-99,-57
-49,-99,-51,74,1,-75,100,-41,-102,-125,-100,-62
-50,-100,-50,75,0,-75,100,-40,-115,-125,-99,-62
-54,-101,-47,78,-4,-73,100,-40,-118,-125,-95,-59
-54,-99,-45,77,-5,-71,97,-35,-108,-125,-93,-61
-57,-102,-45,80,-6,-73,93,-35,-103,-125,-90,-60
-74,-114,-40,94,-17,-77,91,-34,-96,-124,-87,-60
-78,-115,-37,97,-20,-76,88,-30,-99,-120,-84,-60
-77,-110,-33,94,-22,-71,86,-30,-102,-120,-89,-60
-79,-109,-30,94,-24,-70,83,-30,-105,-120,-96,-60
-81,-105,-24,93,-28,-64,80,-30,-108,-120,-100,-60
-74,-105,-32,90,-20,-68,80,-30,-110,-120,-102,-60
-71,-105,-34,88,-18,-69,78,-30,-112,-123,-105,-60
-80,-105,-25,93,-27,-65,74,-30,-120,-127,-108,-64
-65,-105,-40,86,-12,-73,75,-29,-125,-129,-110,-65
-58,-105,-47,82,-5,-76,71,-26,-124,-137,-113,-65
-62,-106,-44,84,-9,-75,70,-24,-145,-146,-116,-65
-58,-104,-46,81,-5,-75,70,-26,-151,-149,-114,-65
-64,-109,-44,87,-10,-76,70,-24,-151,-150,-116,-77
-71,-116,-45,94,-12,-81,70,-30,-165,-150,-120,-81
-58,-115,-56,87,0,-85,71,-40,-165,-150,-120,-79
-53,-115,-62,84,5,-88,75,-40,-165,-150,-122,-80
-59,-115,-55,88,-1,-85,75,-43,-165,-150,-125,-80
-60,-115,-55,88,-2,-85,77,-46,-165,-151,-125,-80
-65,-115,-50,90,-7,-82,80,-42,-164,-155,-121,-80
-65,-115,-50,90,-7,-82,80,-40,-159,-154,-119,-80
-63,-126,-62,95,-1,-93,77,-40,-155,-157,-120,-80
-65,-131,-66,99,0,-98,74,-40,-153,-160,-120,-80
-65,-129,-65,97,0,-96,75,-40,-148,-159,-120,-80
-72,-134,-62,103,-5,-97,75,-40,-145,-164,-120,-82
-76,-135,-59,105,-8,-97,75,-40,-164,-165,-120,-85
-75,-135,-60,105,-7,-97,75,-40,-172,-165,-120,-85
-85,-140,-55,113,-15,-97,75,-40,-165,-165,-120,-85
-82,-140,-58,112,-12,-99,75,-40,-165,-165,-120,-85
-75,-140,-65,108,-5,-102,75,-40,-160,-165,-120,-85
-75,-140,-65,108,-5,-102,75,-42,-158,-165,-124,-85
-74,-139,-65,107,-5,-102,75,-45,-170,-165,-125,-85
-77,-142,-65,110,-6,-103,75,-45,-174,-165,-125,-85
-81,-145,-65,114,-8,-105,75,-48,-166,-165,-129,-85
-78,-145,-67,112,-5,-105,75,-51,-164,-165,-130,-85
-79,-148,-70,114,-4,-109,75,-49,-158,-161,-128,-85
-78,-151,-73,115,-3,-112,75,-47,-155,-160,-125,-85
-74,-149,-75,112,1,-112,74,-42,-166,-161,-125,-85
-67,-147,-79,107,6,-113,70,-41,-167,-160,-126,-86
-64,-144,-80,104,9,-111,70,-36,-161,-161,-125,-84
-66,-147,-81,107,8,-113,71,-36,-159,-158,-125,-81
-63,-142,-79,103,8,-110,69,-29,-154,-155,-122,-78
-68,-151,-83,110,7,-117,84,0,-151,-150,-117,-75
-58,-157,-99,107,21,-128,98,6,-147,-148,-114,-73
-35,-135,-99,85,32,-117,94,-3,-145,-143,-110,-69
-34,-135,-101,85,34,-118,83,-5,-144,-140,-106,-69
-35,-134,-99,85,32,-116,67,-14,-146,-144,-106,-63
-37,-138,-101,88,32,-119,61,-16,-143,-144,-110,-66
-41,-140,-99,91,29,-119,58,-24,-147,-146,-113,-64
-50,-140,-90,95,20,-114,56,-28,-145,-145,-114,-66
-62,-144,-82,103,10,-113,52,-35,-156,-161,-120,-83
-78,-143,-65,111,-6,-104,49,-41,-156,-149,-119,-85
-79,-154,-75,116,-2,-114,52,-46,-150,-156,-129,-87
-83,-144,-60,114,-12,-102,55,-53,-155,-145,-124,-81
-77,-183,-106,130,15,-145,68,-18,-143,-145,-137,-101
-74,-171,-97,123,12,-133,116,81,-103,-140,-124,-104
-57,-12,45,34,-51,17,96,121,328,155,51,11
169,673,504,-421,-168,588,-374,-529,851,1002,851,667
342,1319,977,-831,-318,1148,-1014,-1321,1039,1847,1647,1351
144,749,606,-447,-231,677,-937,-1087,525,1008,859,784
-108,13,121,47,-114,67,-442,-624,-406,-260,-148,-2
-111,-119,-7,115,-52,-63,-167,-361,-387,-244,-145,-63
-39,-106,-67,73,14,-86,-31,-101,-66,-114,-85,-36
-43,-83,-40,63,-1,-62,24,-63,-63,-95,-66,-34
-58,-113,-55,86,-1,-84,52,-42,-16,-73,-60,-45
-63,-111,-49,87,-7,-80,69,-31,-36,-86,-63,-47
-59,-108,-49,83,-5,-79,76,-26,-17,-55,-48,-41
-58,-106,-49,83,-4,-77,82,-9,-4,-63,-55,-43
-58,-100,-41,80,-8,-70,78,-6,13,-40,-40,-38
-56,-99,-44,77,-6,-71,81,8,20,-38,-41,-39
-57,-93,-36,75,-10,-64,79,12,31,-24,-31,-26
-52,-89,-37,72,-8,-63,80,27,63,-13,-28,-18
-43,-76,-33,60,-5,-54,75,41,78,-1,-22,-7
-39,-68,-29,54,-5,-49,75,50,96,18,-9,2
-32,-56,-23,44,-4,-39,74,66,123,35,2,13
-22,-42,-19,32,-1,-30,69,92,172,58,22,21
-13,-28,-15,21,2,-22,71,114,205,77,43,41
1,-8,-10,4,6,-9,68,140,233,98,59,59
21,15,-7,-18,14,4,61,179,278,138,94,66
35,41,6,-38,14,24,55,227,323,176,121,91
53,73,20,-63,16,46,47,269,382,217,156,126
80,115,35,-97,22,75,41,317,447,275,208,169
96,152,56,-124,20,104,35,336,495,323,247,210
113,186,73,-149,20,129,25,320,532,369,282,239
107,197,90,-152,9,143,5,305,521,389,311,265
98,181,83,-140,7,132,-3,248,495,385,320,279
90,162,73,-126,8,117,8,155,417,344,280,250
41,97,56,-69,-8,76,16,68,263,228,196,180
2,16,14,-9,-6,15,45,4,125,99,96,102
-35,-48,-13,42,-10,-31,72,-32,19,0,13,30
-81,-107,-26,94,-27,-66,90,-60,-55,-66,-42,-16
-85,-138,-53,112,-16,-95,107,-79,-95,-105,-92,-47
-81,-148,-67,115,-7,-107,104,-80,-111,-123,-107,-62
-85,-149,-64,118,-11,-106,107,-80,-124,-131,-104,-66
-81,-158,-77,120,-2,-118,111,-80,-126,-133,-106,-75
-85,-166,-81,125,-1,-123,109,-80,-124,-129,-104,-79
-88,-164,-76,127,-6,-120,107,-78,-125,-130,-105,-76
-91,-165,-74,129,-8,-120,102,-75,-133,-126,-105,-73
-94,-165,-71,129,-11,-117,99,-75,-141,-124,-105,-71
-96,-166,-69,131,-13,-117,96,-72,-132,-125,-105,-67
-97,-162,-66,130,-15,-114,91,-69,-131,-125,-105,-65
-95,-160,-64,128,-15,-111,91,-71,-124,-125,-106,-62
-95,-160,-65,128,-15,-112,95,-74,-122,-125,-110,-60
-92,-156,-65,125,-13,-110,95,-77,-113,-125,-110,-60
-90,-154,-65,122,-12,-110,95,-80,-104,-125,-110,-61
-88,-156,-68,122,-10,-111,95,-83,-130,-127,-110,-59
-89,-159,-70,124,-10,-114,95,-86,-148,-131,-110,-62
-93,-164,-71,128,-11,-117,95,-82,-149,-129,-113,-78
-106,-167,-62,137,-22,-114,95,-80,-154,-131,-117,-81
-99,-170,-71,135,-14,-121,94,-80,-160,-142,-120,-79
-86,-173,-87,130,1,-130,90,-80,-154,-147,-124,-81
-92,-176,-84,134,-3,-130,90,-80,-162,-146,-125,-79
-94,-179,-85,137,-4,-131,87,-80,-178,-145,-125,-82
-96,-181,-85,139,-6,-132,85,-84,-172,-145,-125,-85
-87,-184,-97,136,5,-140,85,-88,-170,-145,-125,-85
-85,-185,-100,135,8,-142,88,-90,-167,-145,-125,-85
-91,-185,-94,138,2,-139,90,-95,-164,-146,-125,-85
-92,-185,-93,139,1,-139,90,-93,-169,-149,-121,-85
-98,-184,-86,141,-5,-135,94,-90,-174,-150,-120,-82
-102,-187,-86,145,-8,-136,95,-90,-175,-150,-120,-79
-101,-190,-89,146,-6,-140,93,-90,-175,-150,-120,-76
-97,-190,-93,144,-2,-141,90,-90,-179,-149,-120,-73
-95,-190,-95,143,0,-142,87,-90,-181,-153,-121,-70
-95,-190,-95,143,0,-142,85,-94,-178,-155,-125,-71
-95,-190,-95,143,0,-142,81,-95,-175,-155,-125,-79
-100,-194,-95,148,-2,-145,80,-95,-172,-159,-125,-86
-100,-195,-95,148,-2,-145,76,-95,-170,-160,-125,-90
-95,-195,-100,145,3,-147,75,-95,-167,-160,-125,-90
-92,-195,-103,144,6,-149,75,-93,-163,-160,-125,-90
-87,-195,-108,141,11,-151,70,-89,-176,-160,-125,-90
-85,-195,-110,140,13,-152,69,-90,-186,-160,-125,-90
-85,-195,-110,140,13,-152,71,-90,-184,-160,-125,-86
-81,-195,-113,138,17,-154,77,-90,-185,-160,-124,-84
-79,-195,-116,138,19,-155,81,-90,-185,-160,-126,-85
-81,-195,-114,138,17,-154,79,-90,-185,-160,-130,-85
-84,-196,-112,140,14,-153,81,-89,-181,-161,-133,-86
-93,-200,-107,146,7,-153,80,-90,-174,-160,-136,-84
-96,-201,-105,149,5,-153,80,-89,-168,-160,-138,-79
-106,-205,-99,156,-3,-152,80,-90,-160,-159,-141,-76
-100,-206,-106,153,3,-156,83,-84,-154,-155,-133,-72
-84,-212,-128,148,22,-170,108,-50,-150,-151,-117,-68
-72,-203,-131,138,30,-167,120,-43,-156,-149,-108,-65
-54,-182,-129,118,38,-155,121,-50,-154,-144,-109,-65
-48,-179,-132,113,42,-155,113,-45,-155,-141,-111,-65
-51,-179,-128,115,39,-154,75,-63,-156,-137,-108,-64
-54,-185,-131,119,39,-158,59,-72,-153,-134,-112,-66
-44,-182,-138,114,47,-160,61,-81,-174,-137,-107,-63
-55,-194,-138,125,42,-166,59,-75,-171,-150,-114,-68
-83,-203,-121,143,20,-162,55,-73,-171,-159,-135,-72
-84,-209,-125,147,21,-167,55,-66,-160,-161,-135,-77
-78,-210,-132,144,27,-171,57,-63,-162,-179,-138,-80
-87,-214,-127,151,21,-171,63,-59,-152,-159,-141,-84
-68,-220,-152,144,43,-186,98,1,-156,-182,-129,-93
-77,-177,-100,127,12,-138,152,106,-18,-95,-91,-83
-13,96,110,-42,-62,103,18,-13,519,358,212,149
240,927,687,-584,-224,806,-595,-859,942,1358,1200,978
285,1201,916,-743,-316,1058,-1061,-1375,952,1780,1557,1317
26,403,377,-215,-176,390,-759,-921,196,492,422,477
-144,-106,38,125,-91,-34,-323,-556,-514,-376,-226,-59
-103,-155,-52,129,-25,-103,-106,-277,-244,-168,-109,-38
-52,-127,-76,90,12,-101,2,-89,-53,-128,-104,-38
-58,-116,-57,88,0,-86,32,-85,-44,-102,-79,-27
-48,-138,-91,94,21,-114,64,-49,-6,-99,-88,-35
-44,-124,-81,85,18,-102,71,-51,-24,-90,-80,-26
-46,-133,-87,90,21,-110,77,-26,3,-71,-76,-26
-44,-128,-84,87,20,-106,81,-8,-7,-68,-71,-23
-46,-130,-84,89,19,-107,79,4,16,-47,-60,-19
-39,-127,-87,83,24,-107,81,12,31,-40,-59,-19
-30,-119,-89,74,30,-104,79,28,57,-21,-46,-7
-25,-116,-91,71,33,-103,80,43,79,-12,-42,-2
-19,-108,-89,64,35,-98,80,45,89,2,-30,8
-14,-104,-91,59,39,-97,78,67,113,14,-13,16
-8,-98,-90,53,41,-94,74,79,135,31,4,24
-2,-88,-86,45,42,-86,75,101,162,52,11,39
7,-68,-75,31,41,-71,75,136,200,77,33,57
23,-42,-65,10,44,-53,75,171,244,105,67,76
35,-13,-48,-11,42,-30,75,199,291,142,92,91
47,20,-27,-33,37,-4,66,230,344,183,122,116
74,60,-14,-67,43,23,54,276,403,234,168,158
94,95,2,-94,46,48,43,319,456,287,212,194
113,135,22,-125,46,78,31,335,492,332,258,228
130,171,41,-150,44,105,14,328,522,371,296,266
133,181,48,-157,42,115,3,295,519,379,309,273
140,178,38,-159,50,108,-5,211,471,362,304,263
103,134,31,-119,36,82,-8,123,368,303,254,245
46,63,17,-55,14,40,8,52,218,180,156,174
-4,-22,-18,13,7,-20,26,-7,81,56,52,92
-36,-92,-56,64,10,-74,49,-40,-18,-23,-17,35
-52,-123,-71,88,10,-97,70,-53,-75,-81,-60,-5
-76,-154,-79,115,2,-116,77,-51,-105,-117,-97,-34
-75,-166,-91,120,8,-128,79,-48,-116,-127,-104,-49
-75,-169,-94,123,9,-131,76,-46,-124,-141,-109,-51
-75,-171,-97,123,11,-134,75,-42,-135,-146,-121,-58
-69,-169,-100,119,15,-134,75,-40,-135,-144,-120,-57
-69,-171,-102,120,17,-136,75,-38,-135,-145,-118,-55
-63,-169,-106,117,21,-137,75,-35,-134,-145,-115,-55
-68,-170,-102,120,17,-136,73,-35,-138,-145,-115,-50
-70,-170,-100,120,15,-135,67,-35,-146,-143,-113,-50
-70,-170,-100,120,15,-135,62,-35,-145,-140,-109,-52
-70,-170,-100,120,15,-135,59,-35,-145,-137,-107,-55
-70,-169,-100,120,15,-135,53,-30,-146,-134,-104,-55
-70,-171,-100,121,15,-136,50,-30,-144,-131,-101,-55
-65,-169,-104,117,20,-136,54,-30,-147,-130,-100,-55
-66,-171,-105,119,20,-138,58,-30,-149,-135,-105,-55
-64,-169,-105,117,20,-136,60,-30,-155,-138,-107,-55
-67,-172,-105,120,19,-138,60,-32,-165,-143,-111,-55
-87,-191,-105,139,9,-148,60,-36,-173,-152,-114,-55
-90,-197,-107,144,9,-152,60,-34,-179,-155,-118,-55
-84,-198,-114,141,15,-156,59,-39,-180,-155,-120,-54
-83,-202,-119,142,19,-161,55,-40,-180,-155,-120,-57
-84,-205,-120,145,19,-162,55,-40,-180,-155,-120,-61
-85,-204,-119,144,18,-161,54,-45,-186,-155,-120,-60
-79,-200,-121,139,21,-160,50,-45,-191,-155,-119,-60
-79,-198,-119,138,20,-158,50,-48,-189,-155,-116,-60
-73,-194,-121,134,24,-157,52,-51,-190,-155,-114,-60
-75,-192,-117,133,21,-154,56,-50,-194,-155,-115,-60
-77,-189,-112,133,17,-150,54,-50,-197,-155,-116,-60
