I,II,III,aVR,aVL,aVF,V1,V2,V3,V4,V5,V6
-52,33,85,9,-69,59,-84,24,187,12,-11,53
-75,5,80,34,-77,42,-67,1,137,-28,-40,28
-109,-47,62,77,-85,8,-48,-35,64,-85,-91,-12
-128,-85,44,106,-86,-20,-51,-56,27,-114,-114,-37
-133,-95,38,114,-85,-28,-48,-68,-4,-138,-138,-53
-142,-108,35,125,-88,-36,-45,-76,-19,-146,-144,-59
-143,-113,30,128,-87,-41,-46,-83,-20,-145,-139,-60
-133,-107,27,120,-80,-40,-42,-83,-21,-145,-141,-60
-128,-105,23,116,-75,-41,-40,-79,-22,-144,-139,-60
-120,-101,20,110,-70,-40,-40,-81,-20,-146,-140,-60
-111,-96,15,103,-63,-40,-40,-76,-16,-142,-140,-60
-113,-96,17,105,-65,-39,-40,-75,-15,-140,-136,-58
-121,-100,20,110,-71,-40,-41,-75,-10,-136,-135,-55
-122,-102,20,112,-71,-41,-44,-70,-11,-134,-135,-55
-125,-105,20,115,-72,-42,-45,-70,-14,-130,-131,-52
-128,-109,20,118,-74,-44,-45,-69,-17,-130,-129,-49
-130,-110,20,120,-75,-45,-45,-65,-20,-143,-132,-51
-133,-114,20,123,-76,-47,-45,-65,-23,-146,-134,-54
-130,-115,15,122,-72,-50,-42,-68,-25,-145,-138,-57
-129,-117,11,123,-70,-53,-40,-70,-28,-145,-140,-60
-129,-120,9,124,-69,-56,-40,-70,-30,-146,-144,-62
-125,-121,4,123,-65,-58,-37,-70,-31,-150,-145,-66
-127,-126,1,126,-64,-62,-34,-70,-35,-150,-142,-62
-128,-131,-3,130,-63,-67,-36,-70,-35,-150,-139,-59
-128,-134,-6,131,-61,-70,-39,-65,-29,-146,-136,-60
-131,-140,-9,135,-60,-74,-45,-65,-24,-139,-133,-56
-131,-144,-13,137,-59,-78,-49,-64,-19,-136,-130,-55
-120,-135,-15,128,-52,-75,-48,-60,-13,-129,-129,-55
-120,-125,-5,123,-57,-65,-41,-59,-7,-124,-121,-48
-135,-109,26,122,-81,-41,-33,-60,-3,-118,-110,-38
-127,-82,45,104,-86,-18,-29,-59,2,-106,-101,-28
-105,-55,50,79,-78,-2,-17,-60,6,-90,-87,-17
-90,-35,54,62,-71,9,-58,-77,8,-81,-73,-1
-75,-32,43,53,-59,5,-124,-80,14,-79,-60,11
-63,-27,36,45,-49,4,-127,-76,14,-81,-54,9
-48,-25,23,36,-35,-1,-122,-72,8,-79,-55,-1
-45,-49,-4,47,-20,-27,-119,-69,-8,-81,-54,-4
-84,-111,-26,98,-29,-68,-96,-64,-15,-104,-71,-18
-144,-178,-34,161,-55,-106,-81,-70,-30,-137,-114,-53
-151,-207,-56,179,-47,-132,-74,-72,-40,-159,-134,-74
-138,-211,-73,174,-32,-141,-67,-64,-30,-161,-125,-70
-153,-220,-67,187,-43,-144,-61,-71,-40,-161,-130,-71
-143,-216,-73,179,-34,-144,-53,-53,-17,-150,-117,-69
-148,-214,-66,181,-41,-139,-48,-71,-42,-157,-126,-67
-141,-215,-74,178,-33,-145,-33,-43,-5,-141,-114,-65
-130,-205,-74,167,-28,-139,-34,-68,-27,-149,-127,-63
-123,-218,-95,171,-14,-156,-10,28,100,-99,-116,-71
-42,-99,-57,71,7,-78,-94,20,255,75,43,34
90,257,167,-174,-38,211,-426,-491,126,335,380,369
112,566,454,-339,-171,509,-718,-925,-117,424,661,701
-171,360,531,-95,-351,445,-730,-1248,-1012,-247,164,464
-305,-41,263,173,-284,111,-479,-982,-1125,-623,-313,22
-200,-141,59,170,-130,-41,-201,-358,-357,-315,-204,-66
-193,-192,1,193,-97,-96,-76,-175,-161,-247,-179,-90
-160,-228,-69,194,-45,-148,-48,-75,-46,-200,-153,-93
-156,-239,-83,198,-36,-160,-47,-40,-16,-167,-148,-86
-169,-253,-85,211,-42,-169,-43,-29,-8,-174,-151,-90
-156,-234,-78,195,-38,-156,-39,-14,17,-157,-136,-81
-147,-228,-81,188,-33,-154,-36,-12,15,-158,-142,-87
-134,-211,-76,173,-29,-144,-35,7,45,-136,-124,-74
-125,-199,-74,162,-25,-136,-35,8,48,-130,-117,-70
-109,-185,-76,148,-16,-130,-35,22,77,-107,-98,-63
-106,-174,-68,140,-19,-121,-35,26,85,-88,-87,-52
-84,-166,-82,125,-1,-124,-35,41,116,-65,-73,-35
-61,-148,-87,105,13,-118,-35,62,145,-40,-57,-19
-52,-126,-74,90,11,-100,-41,85,182,-26,-36,-8
-35,-100,-65,68,16,-83,-42,124,244,10,-7,13
-15,-70,-55,43,21,-63,-51,167,315,61,29,42
19,-29,-48,5,34,-38,-77,205,390,115,89,80
55,18,-38,-36,46,-10,-94,234,460,178,149,126
71,55,-16,-63,43,19,-122,235,507,224,189,174
70,83,12,-77,29,47,-141,232,523,247,201,191
50,80,30,-65,10,55,-139,212,511,242,190,180
32,54,22,-43,5,38,-142,159,441,201,172,168
24,30,5,-27,9,17,-126,112,340,142,127,129
-8,-14,-6,11,-1,-10,-94,70,238,76,74,80
-38,-69,-31,54,-3,-50,-71,30,147,13,24,41
-55,-112,-57,83,1,-84,-57,2,84,-37,-28,6
-83,-144,-61,114,-11,-102,-52,-16,45,-66,-61,-16
-92,-166,-74,129,-9,-120,-49,-30,25,-85,-72,-29
-98,-178,-81,138,-8,-129,-45,-35,17,-93,-84,-40
-111,-184,-73,148,-19,-128,-41,-35,11,-98,-93,-50
-118,-189,-70,154,-24,-129,-40,-37,3,-99,-92,-52
-126,-191,-65,159,-31,-127,-40,-35,-4,-95,-89,-49
-130,-190,-60,160,-35,-125,-40,-35,-11,-95,-86,-46
-129,-189,-60,159,-34,-124,-40,-35,-15,-93,-83,-44
-124,-184,-60,154,-32,-122,-40,-35,-15,-89,-80,-40
-126,-186,-60,156,-32,-122,-40,-35,-15,-90,-81,-41
-124,-184,-60,154,-31,-121,-40,-31,-15,-93,-85,-45
-130,-190,-60,160,-35,-125,-40,-30,-15,-97,-85,-45
-145,-206,-61,176,-41,-133,-40,-30,-19,-100,-85,-50
-139,-205,-65,172,-36,-135,-40,-30,-21,-100,-85,-50
-137,-205,-68,171,-34,-136,-40,-30,-20,-100,-85,-47
-134,-205,-71,169,-31,-137,-39,-29,-20,-100,-82,-44
-132,-206,-74,169,-28,-140,-33,-24,-20,-100,-76,-41
-123,-199,-77,162,-23,-138,-26,-19,-19,-96,-72,-38
-89,-169,-80,129,-4,-125,-19,-15,-13,-90,-67,-35
-70,-148,-78,109,5,-113,-12,-10,-7,-85,-63,-34
-60,-135,-75,98,8,-105,-7,-6,-3,-79,-58,-28
-50,-122,-72,86,11,-97,-1,-1,4,-73,-53,-22
-48,-118,-70,83,11,-94,5,0,8,-69,-47,-17
-47,-113,-66,80,10,-89,10,0,15,-60,-41,-11
-45,-111,-66,78,10,-88,16,5,25,-50,-37,-6
-34,-89,-55,62,11,-71,22,6,35,-40,-28,-1
-25,-57,-32,41,4,-44,24,4,45,-29,-10,10
-16,-39,-23,28,3,-31,10,-4,56,-16,3,16
-7,-22,-15,15,4,-19,-2,-15,64,-5,13,30
4,-6,-10,1,7,-8,-28,-21,66,1,30,53
12,12,0,-12,6,5,-68,-34,65,3,31,58
32,18,-14,-25,23,2,-69,-25,64,6,20,51
57,5,-53,-31,55,-24,-67,-2,67,12,13,46
27,-40,-68,7,48,-54,-52,-2,61,-3,2,40
-19,-109,-91,64,36,-100,-17,3,42,-25,-6,23
-46,-155,-109,101,32,-132,-10,-4,8,-51,-23,-3
-70,-184,-114,128,23,-149,-5,4,14,-60,-34,-9
-81,-199,-118,140,19,-158,-4,-4,-6,-62,-43,-15
-80,-204,-124,142,22,-164,3,7,-2,-59,-41,-24
-85,-208,-123,147,20,-165,4,13,-16,-59,-35,-27
-81,-211,-130,146,24,-171,10,17,-23,-64,-40,-38
-81,-209,-128,145,24,-169,20,39,2,-52,-23,-25
-78,-220,-142,149,33,-181,29,21,-6,-64,-44,-34
-45,-191,-146,119,50,-168,38,144,244,68,31,4
54,64,9,-59,22,37,-177,-112,246,298,271,222
205,505,300,-355,-48,402,-531,-616,134,609,709,643
35,588,553,-311,-259,570,-667,-977,-465,305,635,736
-237,148,385,44,-311,267,-523,-1092,-1262,-488,-90,244
-177,-116,61,146,-119,-28,-254,-558,-732,-421,-222,-16
-113,-131,-18,122,-48,-74,-67,-149,-192,-145,-77,-16
-95,-178,-83,137,-6,-130,6,-55,-91,-112,-78,-45
-72,-188,-116,130,22,-151,43,21,14,-60,-26,-20
-81,-201,-120,142,20,-161,51,30,-2,-76,-37,-26
-61,-192,-132,127,36,-162,43,54,55,-46,-17,-13
-57,-183,-125,120,34,-154,39,38,37,-36,-15,-5
-50,-178,-128,114,39,-152,33,57,59,-18,-6,4
-47,-167,-120,107,37,-144,26,69,75,-10,3,17
-33,-154,-121,94,44,-137,34,73,78,1,8,23
-18,-134,-116,77,49,-125,38,89,105,15,16,32
-18,-133,-115,76,48,-123,28,95,121,26,26,37
-3,-126,-124,65,61,-125,23,117,145,46,39,44
-1,-123,-122,62,61,-123,13,132,172,60,53,55
-2,-117,-115,59,57,-116,9,144,215,95,81,72
20,-91,-110,36,65,-100,-8,171,274,136,113,99
40,-54,-94,7,67,-74,-36,209,348,190,161,132
55,-17,-72,-19,63,-44,-54,244,417,244,218,180
91,35,-57,-63,74,-11,-83,258,482,304,268,231
128,85,-43,-106,85,21,-96,252,521,350,310,259
136,108,-28,-122,82,40,-88,243,516,354,325,279
163,156,-7,-159,85,74,-77,240,496,358,318,286
173,174,1,-174,85,88,-59,216,429,330,305,268
139,129,-9,-134,74,60,-33,170,318,260,244,226
124,91,-33,-107,78,29,4,129,221,184,175,175
109,50,-60,-79,84,-5,33,102,139,126,130,135
78,10,-67,-43,72,-29,51,88,85,99,96,107
56,-23,-79,-16,68,-51,59,75,59,77,81,92
45,-46,-91,1,68,-68,67,65,47,61,65,77
42,-52,-95,5,69,-73,75,60,40,55,57,71
42,-50,-93,4,67,-71,75,52,30,50,51,64
35,-50,-85,7,60,-67,75,44,25,45,44,58
33,-50,-84,9,59,-67,75,37,20,38,38,50
27,-50,-76,12,51,-63,75,38,15,37,30,46
26,-51,-77,13,51,-63,74,47,11,40,34,58
42,-46,-88,2,66,-67,71,49,6,41,45,61
45,-45,-90,0,68,-67,68,45,2,44,54,59
45,-44,-90,0,68,-67,65,45,-1,46,55,61
49,-41,-90,-4,70,-65,62,45,0,41,55,59
52,-39,-91,-6,71,-65,60,45,0,40,55,61
55,-41,-96,-6,76,-68,60,45,0,40,55,62
55,-46,-101,-5,78,-73,60,41,0,35,54,60
60,-44,-104,-8,83,-74,67,40,-5,35,48,56
53,-53,-106,0,80,-79,72,40,-5,33,42,54
46,-57,-103,6,75,-80,75,40,-6,30,38,50
56,-55,-111,0,84,-83,80,40,-10,28,31,50
69,-49,-118,-10,94,-83,79,41,-10,24,26,55
56,-54,-110,-1,83,-82,82,45,-7,22,29,55
31,-70,-101,20,66,-86,85,45,1,18,30,58
30,-65,-95,17,63,-80,86,47,9,30,31,61
30,-56,-86,13,58,-71,84,51,17,48,36,61
35,-34,-69,0,52,-51,88,50,25,61,48,72
54,1,-53,-27,53,-26,91,44,30,73,62,82
63,31,-32,-47,47,-1,74,25,30,86,74,93
76,45,-31,-60,53,7,34,13,30,99,86,105
79,50,-29,-65,53,11,-10,15,30,104,84,116
91,58,-33,-74,61,12,-22,19,30,101,81,116
103,37,-66,-69,84,-14,-6,28,31,95,77,109
85,2,-83,-43,84,-40,28,34,29,87,75,103
67,-42,-109,-12,88,-75,53,37,10,61,52,70
25,-92,-117,34,71,-104,65,32,-35,32,14,40
1,-115,-116,58,59,-115,77,39,-28,36,17,38
2,-119,-121,58,61,-120,74,30,-42,22,14,35
-1,-121,-121,61,60,-121,76,40,-29,25,15,29
0,-118,-119,59,59,-118,74,38,-38,16,17,29
0,-122,-122,61,61,-122,78,42,-37,13,11,21
0,-117,-118,59,59,-118,88,50,-21,28,31,30
2,-132,-135,65,69,-133,98,56,-12,12,24,18
38,-99,-137,31,88,-118,88,169,230,168,93,46
128,165,37,-146,45,101,-135,-112,173,408,347,287
258,599,340,-429,-41,469,-479,-559,59,723,804,716
95,638,543,-366,-224,590,-578,-884,-583,334,633,747
-174,152,326,11,-250,239,-405,-963,-1323,-502,-110,220
-123,-96,27,109,-75,-34,-155,-455,-720,-371,-194,-6
-66,-87,-21,76,-22,-54,32,-106,-217,-88,-57,35
-33,-115,-82,74,25,-98,96,-8,-104,-39,-46,10
1,-97,-99,48,50,-98,117,66,4,24,-3,26
0,-102,-102,52,51,-102,131,69,-21,6,-16,17
28,-96,-123,34,76,-109,121,88,29,35,8,20
18,-95,-112,39,65,-103,116,84,26,34,7,28
20,-92,-113,36,67,-102,109,95,43,52,19,47
21,-83,-105,31,63,-94,102,96,42,50,26,51
22,-81,-103,30,62,-92,98,100,51,60,33,51
24,-72,-96,24,61,-84,93,106,69,75,41,56
25,-70,-95,23,60,-83,90,112,86,81,45,59
42,-52,-94,5,68,-72,86,119,114,109,66,84
51,-39,-90,-6,71,-64,82,139,157,134,79,92
76,-14,-90,-31,83,-52,80,162,214,172,113,99
101,23,-79,-62,90,-28,69,183,269,211,150,127
123,66,-57,-94,90,4,50,214,345,263,194,171
145,124,-21,-134,82,51,35,244,425,330,261,222
163,172,8,-168,77,90,10,274,490,388,310,262
188,214,26,-201,81,119,-16,272,522,422,336,293
186,215,30,-201,78,122,-26,257,522,438,349,308
176,196,20,-187,78,108,-34,233,475,419,330,296
162,176,15,-169,73,95,-18,188,379,351,274,260
129,135,6,-132,62,70,11,143,266,272,211,207
88,88,-1,-88,44,43,35,100,164,197,144,150
50,41,-9,-45,29,16,60,69,94,140,87,102
29,9,-20,-19,25,-5,83,55,47,102,57,77
24,-8,-32,-7,28,-19,94,49,11,76,37,65
25,-17,-42,-4,34,-29,95,42,-9,61,21,57
16,-24,-41,4,29,-32,95,34,-15,54,8,51
-2,-36,-34,19,16,-35,95,27,-20,51,0,43
-7,-38,-31,22,13,-34,95,28,-26,44,0,36
-6,-31,-25,19,10,-28,94,30,-32,39,-1,29
-4,-27,-23,15,10,-24,89,30,-34,33,-5,24
-5,-21,-16,13,6,-18,86,30,-30,30,-5,21
-1,-15,-14,8,7,-14,83,30,-30,30,-8,18
23,-10,-33,-6,28,-21,78,29,-31,30,-11,13
31,-4,-35,-13,34,-20,75,25,-30,30,-10,10
31,1,-30,-16,30,-14,78,25,-30,30,-10,14
35,6,-29,-21,32,-11,81,23,-33,26,-10,24
37,12,-25,-24,30,-6,80,19,-36,21,-11,29
42,18,-24,-30,33,-3,80,20,-35,16,-15,23
38,18,-20,-28,29,-1,85,24,-33,13,-20,17
29,11,-18,-20,23,-3,86,26,-50,7,-25,12
21,6,-15,-13,17,-4,85,22,-65,6,-28,6
13,1,-12,-7,12,-5,85,20,-65,11,-34,1
4,-5,-9,1,7,-7,85,16,-71,16,-33,-3
1,-9,-11,4,6,-10,85,14,-64,20,-24,-12
15,7,-8,-11,11,0,90,12,-58,25,-16,-14
20,44,24,-32,-2,33,99,6,-49,30,-8,-1
18,72,54,-45,-19,63,92,3,-26,33,-1,13
27,89,63,-59,-18,76,88,-3,-15,43,6,31
39,108,69,-73,-15,88,66,-7,-12,47,11,43
61,129,68,-95,-4,99,21,-12,-7,45,17,50
64,128,64,-96,0,96,5,-23,-6,44,21,50
65,110,46,-88,9,78,-1,-12,3,46,30,37
80,94,14,-88,33,54,4,0,-7,42,23,26
48,50,2,-49,23,26,42,9,-18,19,-3,14
7,8,1,-7,3,5,71,4,-53,-9,-41,-16
-11,-18,-7,15,-2,-12,77,3,-69,-24,-71,-41
-18,-26,-8,22,-5,-17,78,1,-70,-38,-68,-39
-7,-29,-21,18,7,-25,82,-7,-81,-52,-69,-46
-6,-47,-41,27,17,-43,86,1,-54,-41,-60,-43
-19,-57,-37,38,10,-47,84,-11,-77,-52,-65,-38
-14,-59,-44,37,15,-51,96,19,-29,-36,-55,-32
-25,-58,-33,42,4,-46,93,-4,-66,-52,-72,-21
-18,-54,-36,36,9,-45,106,99,104,28,-42,-27
60,94,34,-77,13,64,-16,15,203,213,123,79
204,497,293,-351,-45,395,-371,-449,60,515,516,435
192,763,571,-477,-190,667,-611,-798,-226,540,746,723
-95,443,538,-174,-317,490,-551,-1065,-1172,-292,99,382
-183,57,240,62,-211,148,-294,-762,-1113,-590,-327,-56
-81,9,90,36,-86,49,-51,-242,-363,-222,-169,-96
-62,-15,47,38,-54,16,54,-99,-199,-155,-152,-106
-42,-28,14,35,-28,-7,90,-9,-69,-85,-96,-99
-28,-23,5,25,-16,-9,96,9,-66,-61,-87,-88
-6,-21,-15,14,5,-18,91,36,-38,-59,-86,-87
8,-12,-20,2,14,-15,89,53,-21,-48,-73,-74
20,-10,-29,-5,25,-19,84,47,-21,-52,-76,-75
24,-1,-25,-11,25,-13,81,53,8,-39,-62,-65
21,2,-19,-11,20,-8,77,47,19,-39,-63,-64
29,13,-16,-21,22,-1,75,59,56,-23,-48,-58
32,21,-11,-26,21,5,72,67,80,-11,-44,-54
36,29,-7,-32,21,11,69,78,110,14,-32,-50
44,42,-2,-42,22,20,66,95,136,31,-27,-41
54,61,7,-58,23,34,65,116,179,57,-5,-24
66,83,17,-75,24,50,56,147,242,95,35,1
85,113,28,-99,28,70,43,184,316,144,76,34
120,161,41,-141,40,101,32,220,396,208,135,76
156,208,52,-182,52,130,12,242,473,268,184,123
175,246,71,-211,52,158,-6,239,518,310,225,167
196,280,84,-238,56,181,-24,234,539,326,234,178
203,285,82,-244,60,183,-32,220,515,326,218,167
181,256,74,-219,53,165,-18,180,432,283,202,159
143,209,65,-176,39,137,-3,132,324,204,145,119
98,154,56,-126,21,105,19,86,205,126,74,58
65,106,40,-86,12,73,48,50,123,57,12,8
41,64,23,-53,9,43,59,29,66,8,-39,-37
24,40,15,-32,4,27,69,15,26,-22,-62,-57
17,29,11,-23,3,20,81,3,11,-38,-76,-63
8,17,9,-13,-1,13,80,-3,-5,-43,-90,-78
7,11,4,-10,2,7,83,-7,-15,-51,-90,-80
5,6,1,-6,2,3,88,-11,-25,-58,-89,-80
2,1,-1,-1,1,0,89,-16,-27,-58,-91,-85
-7,-5,2,6,-4,-1,84,-20,-24,-70,-98,-85
-28,-10,19,19,-23,4,80,-15,-26,-77,-101,-86
-27,-10,17,18,-22,3,78,-15,-24,-74,-100,-90
-21,-10,11,15,-16,0,73,-14,-26,-76,-100,-92
-16,-10,6,13,-11,-2,70,-10,-25,-75,-101,-95
-10,-10,0,10,-5,-5,67,-10,-26,-75,-105,-98
-3,-10,-7,7,2,-8,64,-8,-25,-75,-105,-100
12,-12,-24,0,19,-18,61,-3,-25,-75,-110,-103
2,-23,-25,11,14,-24,58,-1,-30,-78,-110,-105
-7,-32,-25,20,9,-28,56,-4,-35,-86,-115,-105
-16,-41,-25,29,5,-33,54,-9,-50,-93,-123,-104
-21,-46,-25,34,2,-36,59,-11,-57,-95,-120,-100
-18,-42,-24,30,3,-33,69,-15,-54,-99,-120,-100
-21,-40,-20,31,-1,-30,72,-20,-52,-101,-118,-100
-15,-36,-20,26,3,-28,75,-20,-49,-105,-114,-100
-17,-36,-20,26,2,-27,78,-20,-50,-105,-116,-101
-1,-22,-21,11,11,-21,81,-19,-39,-95,-110,-95
20,11,-8,-15,14,2,78,-20,-24,-79,-100,-85
12,32,20,-23,-4,26,70,-19,-12,-68,-90,-75
2,50,48,-27,-23,49,66,-20,-8,-63,-83,-67
16,66,50,-42,-17,58,35,-36,-5,-60,-79,-70
45,81,36,-63,5,58,-7,-47,-2,-57,-74,-70
54,83,29,-69,13,56,-22,-45,2,-52,-71,-72
48,60,13,-54,17,36,-16,-42,7,-50,-64,-77
33,31,-2,-32,17,14,1,-42,-5,-54,-70,-72
10,-12,-22,1,16,-17,31,-34,-12,-74,-96,-91
-17,-63,-46,40,15,-54,54,-38,-55,-116,-129,-122
-26,-77,-51,52,13,-64,71,-29,-61,-119,-135,-126
-19,-73,-55,46,19,-64,76,-30,-68,-120,-135,-123
-7,-82,-75,45,34,-78,71,-24,-65,-124,-136,-131
-4,-78,-74,41,35,-75,70,-18,-60,-121,-132,-138
-11,-86,-76,49,33,-81,64,-23,-78,-132,-140,-143
-18,-93,-75,56,29,-84,67,-1,-37,-110,-127,-144
-22,-99,-77,61,28,-88,78,-7,-60,-134,-143,-140
5,-87,-92,41,49,-90,92,117,162,-23,-75,-106
91,129,38,-110,27,83,-101,-113,157,183,119,60
235,544,309,-390,-38,427,-472,-605,26,473,532,449
150,674,524,-412,-187,599,-659,-953,-436,284,561,614
-124,290,414,-83,-269,352,-538,-1135,-1293,-514,-116,185
-142,10,151,66,-147,80,-241,-637,-867,-528,-317,-140
-61,-18,44,40,-52,13,-19,-174,-251,-227,-198,-148
-41,-67,-26,54,-8,-47,68,-81,-157,-200,-205,-166
-15,-78,-64,46,25,-71,88,4,-29,-126,-145,-157
-21,-91,-70,56,24,-80,83,20,-47,-139,-152,-161
-23,-94,-71,58,25,-82,79,55,-10,-120,-138,-160
-27,-95,-68,61,21,-81,74,48,-20,-118,-139,-159
-30,-102,-71,66,21,-87,70,50,-5,-112,-135,-156
-26,-95,-69,60,22,-81,65,56,9,-102,-129,-147
-23,-90,-67,57,23,-78,62,53,15,-101,-130,-145
-21,-82,-60,52,20,-71,57,59,35,-87,-115,-136
-19,-76,-57,48,19,-66,54,57,45,-82,-110,-133
-17,-69,-52,43,18,-60,51,72,81,-55,-96,-126
-15,-63,-47,39,16,-55,46,92,105,-35,-84,-109
5,-39,-44,17,25,-41,44,120,153,-6,-62,-93
31,-4,-35,-13,33,-19,36,157,217,41,-25,-69
61,34,-27,-47,43,3,28,200,296,97,21,-29
100,81,-19,-90,59,31,14,242,376,159,81,13
131,127,-4,-129,67,61,-19,264,439,215,133,59
147,165,18,-157,64,92,-44,262,479,249,169,93
146,189,43,-168,52,116,-52,255,490,264,172,112
144,186,42,-165,50,114,-48,226,457,254,161,112
118,153,35,-136,41,94,-37,167,359,196,132,82
70,101,31,-86,19,66,-24,112,244,123,58,27
41,51,11,-46,15,31,10,69,146,54,-1,-26
28,14,-14,-21,21,0,41,45,72,1,-40,-58
32,-8,-40,-12,37,-24,52,35,22,-37,-75,-86
30,-22,-53,-4,42,-37,62,23,-7,-61,-101,-102
19,-35,-54,8,37,-44,65,12,-21,-65,-116,-112
15,-40,-55,13,35,-47,69,10,-29,-79,-118,-120
15,-40,-55,13,35,-47,70,10,-37,-87,-123,-120
15,-40,-55,13,35,-47,70,10,-48,-84,-125,-120
15,-40,-55,13,35,-47,70,10,-47,-86,-125,-120
16,-40,-55,13,35,-47,69,10,-45,-84,-125,-120
10,-41,-51,16,31,-46,71,10,-45,-86,-125,-120
4,-45,-50,20,27,-47,68,10,-40,-90,-126,-124
2,-48,-50,23,26,-49,65,10,-40,-90,-129,-125
-2,-52,-50,27,24,-51,65,10,-41,-91,-130,-125
-4,-55,-50,29,23,-52,65,10,-45,-95,-130,-125
-9,-59,-50,34,20,-54,65,7,-48,-95,-130,-125
-10,-60,-50,35,20,-55,65,5,-52,-95,-130,-127
-11,-60,-50,36,20,-55,62,5,-55,-95,-133,-130
-14,-65,-50,39,18,-57,59,1,-52,-95,-135,-133
-15,-65,-49,40,18,-57,56,-1,-50,-95,-135,-136
-16,-67,-51,41,18,-58,53,1,-50,-95,-135,-139
-18,-70,-52,44,17,-60,50,4,-50,-95,-135,-140
-29,-79,-50,54,11,-65,49,9,-50,-89,-129,-134
-23,-73,-49,48,13,-61,50,11,-49,-83,-122,-127
-14,-59,-45,37,16,-52,59,15,-40,-75,-116,-121
11,-35,-46,12,29,-40,75,20,-30,-70,-109,-114
38,4,-33,-21,35,-14,78,18,-21,-61,-103,-108
31,29,-3,-30,17,13,88,13,-14,-44,-97,-102
23,49,26,-36,-2,38,80,11,-10,-43,-92,-97
23,59,36,-41,-7,47,21,-3,-4,-46,-86,-88
50,77,27,-64,12,52,-14,-17,2,-44,-81,-84
61,79,18,-70,21,48,-27,-15,2,-46,-74,-74
63,59,-4,-61,34,27,-26,-8,-5,-44,-71,-72
79,41,-38,-60,59,1,4,-10,-22,-44,-80,-84
46,-23,-68,-11,57,-45,33,1,-26,-66,-100,-107
-14,-88,-74,51,30,-80,47,-3,-53,-110,-141,-150
-39,-108,-69,74,16,-89,45,-2,-63,-119,-157,-165
-36,-111,-75,74,20,-92,44,-9,-72,-125,-157,-163
-36,-117,-81,77,23,-98,46,-14,-71,-125,-165,-172
-37,-117,-80,77,21,-98,44,-9,-64,-115,-161,-170
-42,-121,-79,81,19,-100,46,-32,-82,-128,-170,-178
-47,-128,-81,87,17,-104,51,4,-51,-109,-158,-178
-48,-129,-81,89,17,-105,50,-6,-90,-135,-173,-175
-38,-125,-87,81,25,-106,63,125,123,-39,-113,-154
45,53,9,-49,18,31,-97,-48,161,150,75,-7
212,460,248,-336,-18,353,-455,-578,37,436,462,367
149,654,506,-402,-179,580,-673,-955,-351,338,571,594
-135,317,452,-91,-294,384,-595,-1190,-1246,-431,-64,211
-169,-1,167,85,-168,83,-303,-730,-959,-536,-342,-154
-102,-53,49,77,-75,-2,-54,-217,-289,-235,-195,-184
-103,-112,-9,107,-46,-60,29,-107,-186,-200,-198,-207
-70,-122,-52,97,-9,-87,60,-6,-61,-130,-164,-198
-61,-119,-58,90,-2,-89,68,1,-63,-131,-171,-199
-51,-122,-71,87,10,-96,64,20,-31,-113,-162,-196
-49,-117,-68,83,10,-92,66,22,-28,-109,-155,-194
-52,-116,-64,85,6,-90,64,27,-21,-104,-154,-194
-55,-114,-59,85,3,-86,65,40,1,-93,-142,-182
-57,-112,-55,85,-1,-84,64,41,4,-91,-138,-179
-46,-96,-50,71,2,-73,58,51,30,-78,-123,-170
-25,-84,-58,54,17,-71,53,61,47,-71,-111,-160
-11,-70,-59,41,24,-65,47,74,72,-45,-96,-144
-7,-58,-51,33,22,-55,41,100,104,-22,-77,-132
2,-44,-47,21,25,-45,36,126,149,13,-41,-113
27,-14,-41,-6,34,-28,29,154,205,48,-19,-94
53,23,-30,-38,41,-3,16,199,281,96,20,-67
73,67,-6,-70,40,30,5,238,360,157,78,-17
112,119,7,-116,52,63,-11,267,431,213,124,29
142,161,20,-152,61,90,-37,273,475,259,174,72
149,183,34,-166,57,108,-48,263,484,278,184,97
146,179,33,-163,56,106,-40,237,454,270,166,90
128,156,28,-142,50,91,-30,189,372,215,148,65
78,104,26,-92,26,65,-21,134,261,144,89,18
26,38,13,-32,6,25,-4,75,156,74,11,-36
-2,-5,-3,4,0,-4,18,33,76,8,-50,-83
-35,-44,-9,40,-13,-26,27,12,20,-36,-82,-117
-57,-73,-16,65,-20,-44,37,2,-10,-66,-100,-140
-58,-80,-22,70,-18,-51,46,-4,-20,-74,-118,-148
-50,-79,-30,65,-10,-54,45,-11,-29,-81,-125,-151
-48,-82,-34,66,-7,-58,42,-18,-41,-86,-125,-155
-55,-86,-30,70,-12,-58,39,-24,-53,-89,-129,-155
-55,-84,-30,70,-12,-57,40,-25,-58,-94,-130,-155
-59,-89,-30,74,-14,-59,40,-25,-58,-96,-132,-155
-60,-90,-30,75,-15,-60,40,-25,-55,-99,-135,-155
-61,-91,-30,76,-15,-60,39,-25,-55,-101,-135,-155
-62,-94,-32,78,-14,-63,34,-26,-55,-105,-138,-157
-61,-96,-35,79,-12,-66,29,-24,-55,-104,-141,-160
-59,-93,-35,77,-11,-64,25,-20,-55,-100,-139,-160
-65,-100,-35,83,-14,-67,20,-20,-59,-100,-136,-160
-80,-115,-35,98,-22,-75,15,-20,-60,-100,-135,-160
-84,-120,-36,103,-24,-77,15,-20,-60,-100,-135,-160
-84,-123,-39,103,-22,-81,15,-20,-65,-100,-135,-164
-85,-128,-43,107,-21,-85,15,-24,-65,-104,-135,-167
-92,-137,-45,115,-23,-91,15,-27,-66,-111,-137,-171
-95,-145,-50,120,-22,-97,15,-32,-72,-117,-142,-175
-99,-147,-47,123,-26,-96,16,-34,-79,-124,-144,-173
-107,-152,-45,130,-31,-98,21,-38,-76,-121,-140,-165
-111,-155,-44,133,-33,-99,19,-41,-70,-116,-135,-159
-107,-146,-39,126,-33,-92,21,-39,-65,-113,-131,-152
-93,-134,-41,113,-26,-87,19,-57,-59,-108,-126,-146
-97,-119,-22,108,-37,-70,27,-67,-54,-104,-122,-140
-95,-90,5,93,-50,-42,40,-63,-48,-95,-117,-133
-93,-61,32,76,-62,-14,29,-69,-44,-84,-111,-124
-83,-39,44,61,-63,2,6,-71,-43,-75,-105,-115
-65,-32,34,48,-49,0,-42,-69,-38,-65,-105,-107
-63,-29,33,46,-48,2,-65,-66,-38,-65,-104,-104
-26,-23,3,24,-14,-10,-47,-64,-33,-65,-100,-106
-24,-45,-21,35,-1,-33,-35,-65,-40,-65,-99,-103
-56,-97,-42,77,-7,-69,-12,-59,-54,-92,-109,-130
-81,-149,-68,115,-6,-109,5,-60,-84,-124,-139,-168
-122,-185,-63,154,-29,-124,14,-60,-113,-140,-160,-184
-112,-190,-77,151,-18,-133,16,-50,-110,-137,-160,-184
-110,-191,-81,151,-14,-136,14,-62,-124,-144,-170,-186
-119,-195,-76,158,-21,-135,17,-42,-97,-147,-165,-189
-120,-194,-75,157,-22,-134,12,-61,-121,-160,-178,-190
-133,-204,-70,169,-31,-137,19,-38,-84,-142,-171,-191
-135,-207,-71,171,-32,-139,24,-42,-113,-149,-184,-198
-120,-211,-91,166,-14,-151,51,27,-11,-111,-165,-202
-63,-110,-47,87,-8,-78,-20,44,181,59,-16,-98
79,244,165,-162,-43,205,-348,-428,61,312,301,213
153,605,453,-379,-150,529,-657,-864,-134,460,632,578
-116,428,544,-156,-331,486,-680,-1202,-998,-174,187,392
-282,14,296,134,-289,155,-441,-1010,-1239,-632,-331,-83
-183,-97,86,140,-134,-6,-146,-369,-475,-329,-243,-185
-174,-146,28,160,-101,-59,-12,-158,-232,-214,-212,-198
-133,-172,-39,153,-47,-105,24,-67,-124,-182,-188,-206
-105,-156,-51,131,-27,-103,42,-24,-83,-164,-175,-189
-108,-163,-55,136,-26,-109,40,-14,-79,-162,-176,-195
-95,-151,-56,124,-19,-103,40,19,-46,-135,-156,-182
-100,-153,-54,127,-23,-103,40,24,-56,-134,-158,-184
-87,-143,-56,115,-15,-99,40,41,-30,-113,-138,-175
-65,-119,-54,92,-5,-86,40,31,-32,-114,-135,-169
-47,-102,-55,75,4,-78,35,37,-7,-103,-121,-159
-51,-96,-44,74,-3,-70,31,34,4,-95,-116,-151
-50,-85,-35,68,-7,-60,29,36,29,-68,-110,-141
-44,-69,-26,57,-9,-47,24,71,64,-47,-98,-128
-25,-46,-22,36,-1,-34,21,94,103,-25,-79,-114
-3,-20,-17,12,8,-19,16,124,158,16,-44,-91
20,7,-12,-13,16,-3,2,167,223,48,-9,-67
38,44,6,-41,15,25,-13,201,301,106,44,-30
47,95,48,-71,-1,71,-40,229,371,167,101,16
80,144,64,-112,8,103,-68,228,424,210,139,59
98,164,66,-132,16,115,-85,220,430,240,170,83
108,190,82,-149,12,136,-84,217,417,236,177,92
112,196,84,-155,14,140,-78,191,384,208,158,86
87,159,71,-123,8,115,-68,140,277,150,100,44
50,110,60,-80,-5,85,-31,87,161,68,22,-13
8,56,48,-32,-20,51,-9,33,70,1,-43,-63
-17,14,31,1,-24,22,1,1,3,-47,-84,-102
-23,-8,15,16,-19,3,14,-12,-33,-80,-106,-132
-32,-22,10,27,-20,-6,27,-28,-56,-98,-127,-142
-43,-33,10,38,-27,-11,35,-30,-76,-113,-131,-139
-47,-37,10,42,-28,-13,35,-31,-87,-116,-130,-144
-45,-35,10,40,-27,-12,35,-35,-84,-115,-129,-145
-41,-32,10,37,-26,-11,35,-35,-86,-120,-124,-145
-43,-29,13,36,-28,-8,35,-40,-89,-120,-125,-150
-41,-25,16,33,-28,-5,33,-40,-90,-120,-125,-150
-40,-25,14,32,-27,-5,28,-40,-90,-120,-125,-150
-46,-30,16,38,-31,-6,25,-40,-90,-120,-125,-150
-50,-30,20,40,-35,-5,22,-40,-90,-120,-128,-150
-50,-30,20,40,-35,-5,17,-40,-92,-120,-133,-147
-50,-30,20,40,-35,-5,15,-40,-96,-120,-136,-145
-50,-30,20,40,-35,-5,15,-40,-95,-123,-140,-145
-48,-28,20,38,-33,-4,15,-40,-95,-128,-140,-145
-48,-24,24,36,-35,0,15,-40,-95,-132,-140,-145
-50,-25,25,37,-37,0,15,-40,-96,-135,-140,-145
-44,-19,25,31,-34,3,15,-45,-100,-135,-140,-145
-47,-22,25,34,-36,1,15,-45,-100,-137,-144,-145
-67,-42,25,54,-46,-8,15,-46,-100,-140,-145,-145
-70,-46,24,58,-47,-11,15,-50,-100,-140,-145,-145
-68,-49,19,59,-44,-15,15,-50,-98,-137,-149,-145
-72,-51,20,62,-46,-15,15,-47,-92,-131,-150,-157
-75,-55,20,65,-47,-17,15,-45,-87,-126,-149,-155
-73,-53,20,63,-46,-16,20,-45,-84,-122,-140,-144
-59,-33,26,46,-42,-4,21,-42,-79,-118,-130,-137
-65,-8,57,36,-61,24,19,-39,-74,-114,-120,-128
-71,22,93,24,-82,57,24,-41,-70,-105,-111,-120
-75,32,107,21,-91,69,15,-44,-69,-94,-105,-112
-79,52,131,13,-106,91,-13,-58,-69,-85,-99,-104
-54,78,132,-12,-93,105,-58,-71,-63,-75,-93,-97
-46,71,117,-12,-82,93,-84,-72,-67,-76,-91,-95
-35,59,93,-13,-64,76,-71,-68,-63,-74,-96,-92
-21,41,62,-10,-41,51,-60,-71,-67,-76,-93,-88
-53,-8,45,30,-49,18,-42,-69,-80,-97,-108,-113
-87,-57,29,72,-58,-14,-25,-69,-108,-129,-145,-144
-106,-82,24,93,-65,-29,-21,-70,-127,-154,-163,-159
-119,-94,25,106,-72,-34,-14,-56,-121,-153,-159,-166
-128,-102,26,115,-77,-38,-11,-61,-140,-164,-163,-170
-135,-113,23,124,-79,-45,-1,-39,-112,-154,-156,-164
-152,-123,29,137,-90,-47,-2,-50,-135,-160,-163,-160
-144,-127,17,135,-80,-55,14,-27,-96,-143,-158,-159
-137,-126,11,132,-74,-57,13,-36,-128,-151,-156,-149
-114,-133,-19,124,-48,-76,34,35,-33,-123,-144,-159
-36,-19,17,27,-27,0,-23,63,174,59,-14,-74
104,346,242,-225,-69,293,-356,-410,67,332,318,246
135,689,554,-413,-210,622,-656,-859,-133,480,647,608
-163,506,669,-172,-417,587,-676,-1192,-1026,-172,195,414
-304,78,382,113,-344,230,-447,-1012,-1291,-650,-351,-67
-195,-46,149,120,-172,51,-168,-387,-514,-348,-264,-171
-185,-86,99,135,-142,7,-34,-166,-260,-227,-218,-171
-157,-115,43,136,-100,-36,20,-66,-144,-182,-195,-175
-131,-101,30,116,-80,-36,32,-22,-96,-152,-172,-160
-131,-109,22,119,-76,-43,28,-18,-86,-152,-176,-164
-123,-101,22,112,-72,-39,21,-3,-54,-128,-156,-150
-118,-100,18,108,-68,-41,14,-10,-66,-131,-161,-151
-106,-91,15,98,-60,-38,8,4,-39,-110,-145,-141
-103,-87,16,94,-59,-35,1,1,-44,-108,-145,-138
-113,-81,32,97,-72,-25,3,11,-21,-93,-135,-133
-110,-69,42,90,-76,-13,6,20,-3,-81,-123,-125
-80,-36,44,58,-61,4,9,43,25,-67,-106,-123
-70,-9,61,39,-65,26,11,59,57,-42,-87,-106
-41,26,66,7,-54,46,16,86,101,1,-59,-72
1,65,64,-34,-32,64,13,126,160,35,-23,-45
25,90,65,-58,-20,77,3,161,229,74,14,-15
56,145,89,-101,-17,117,-18,197,310,140,66,24
78,189,110,-134,-16,149,-46,228,385,199,126,66
113,230,118,-172,-3,174,-65,241,447,255,180,117
128,259,132,-194,-2,195,-86,230,479,288,212,147
123,253,130,-188,-4,191,-85,217,463,290,210,150
134,256,122,-195,6,189,-73,193,396,264,180,130
109,223,114,-166,-3,168,-68,145,298,195,125,87
56,162,106,-109,-25,134,-39,92,184,118,59,34
8,107,99,-58,-45,103,-8,49,93,59,-1,-14
-24,63,88,-20,-56,75,3,22,36,6,-50,-50
-35,40,75,-3,-55,57,12,7,-6,-26,-77,-70
-36,30,66,3,-51,47,24,1,-21,-45,-88,-81
-44,18,61,13,-53,39,40,-4,-32,-60,-101,-93
-49,7,56,20,-53,32,40,-9,-51,-66,-100,-92
-48,5,53,21,-51,29,36,-15,-56,-73,-100,-89
-45,2,47,22,-46,24,34,-20,-55,-76,-100,-91
-47,-1,46,23,-46,22,30,-20,-55,-74,-100,-89
-55,-5,50,30,-52,22,29,-20,-55,-72,-100,-91
-55,-5,50,30,-52,22,25,-20,-55,-69,-95,-88
-51,-1,50,26,-50,25,25,-20,-60,-71,-95,-85
-48,2,50,23,-49,26,23,-20,-60,-74,-95,-85
-45,5,50,20,-48,27,19,-20,-62,-75,-95,-85
-43,7,50,18,-47,28,20,-20,-65,-75,-95,-85
-40,10,50,15,-45,30,23,-20,-66,-75,-98,-85
-41,8,49,16,-45,28,26,-20,-63,-75,-100,-88
-43,2,45,20,-44,23,24,-20,-60,-73,-100,-91
-45,-2,43,23,-43,19,26,-20,-60,-70,-100,-94
-46,-6,40,26,-43,16,24,-20,-56,-70,-100,-97
-48,-11,36,29,-42,12,27,-20,-55,-70,-100,-100
-50,-15,35,32,-42,10,30,-20,-55,-70,-95,-99
-41,-9,31,25,-36,11,30,-20,-61,-70,-95,-92
-32,-3,29,18,-31,13,30,-20,-63,-64,-94,-86
-25,0,25,12,-25,12,30,-17,-53,-57,-89,-79
-20,8,28,5,-24,18,31,-15,-45,-51,-91,-72
-51,11,61,20,-56,36,32,-13,-36,-44,-88,-66
-59,22,81,18,-71,51,40,-10,-30,-38,-77,-61
-47,41,89,3,-68,65,38,-8,-30,-32,-68,-58
-38,64,102,-13,-70,83,12,-33,-29,-29,-57,-53
-13,91,104,-39,-58,97,-37,-56,-24,-24,-51,-44
-18,95,113,-38,-66,104,-63,-49,-26,-22,-49,-29
10,97,87,-54,-39,91,-53,-40,-27,-17,-48,-29
32,75,42,-54,-6,58,-49,-33,-30,-14,-42,-35
-10,20,30,-5,-21,25,-23,-26,-31,-35,-52,-44
-50,-29,21,39,-35,-4,0,-19,-48,-62,-84,-82
-73,-59,15,66,-44,-22,5,-23,-88,-90,-106,-105
-68,-61,7,64,-37,-27,14,-16,-76,-90,-112,-104
-59,-58,0,59,-29,-29,18,-25,-86,-92,-122,-105
-53,-62,-9,58,-22,-36,28,-15,-64,-88,-122,-105
-53,-58,-5,56,-24,-31,29,-23,-77,-86,-123,-104
-62,-63,-1,62,-31,-32,38,-11,-59,-87,-116,-106
-73,-67,5,70,-39,-31,36,-16,-58,-77,-102,-104
-30,-54,-24,42,-3,-38,57,20,-24,-57,-112,-94
23,1,-22,-12,23,-11,41,120,212,82,-17,-39
123,283,159,-203,-18,221,-232,-249,139,322,274,206
235,697,462,-466,-114,579,-568,-709,8,586,694,621
0,641,641,-321,-321,641,-648,-1058,-733,93,426,578
-219,186,405,16,-312,295,-464,-1053,-1318,-598,-251,64
-139,6,145,66,-143,75,-193,-455,-638,-389,-261,-132
-98,-13,85,55,-91,36,-19,-142,-236,-188,-163,-116
-72,-61,11,66,-41,-25,34,-59,-128,-154,-155,-130
-50,-58,-8,54,-21,-33,52,5,-50,-88,-111,-115
-45,-61,-16,54,-14,-38,58,9,-65,-101,-121,-120
-38,-53,-15,46,-11,-34,54,42,-14,-79,-101,-113
-38,-52,-14,46,-12,-33,55,40,-29,-85,-106,-112
-31,-47,-16,39,-7,-32,50,48,-5,-73,-94,-104
-30,-44,-14,38,-8,-29,50,43,-6,-67,-92,-99
-23,-39,-16,32,-3,-27,49,45,5,-53,-84,-94
-21,-29,-8,25,-6,-19,43,57,18,-41,-78,-88
-23,-26,-3,25,-10,-14,39,65,36,-29,-68,-81
-17,-12,5,14,-11,-3,35,83,66,-12,-47,-70
2,12,10,-7,-4,11,29,106,102,12,-28,-54
30,49,19,-40,5,33,27,135,164,57,12,-21
66,87,21,-76,22,54,12,169,241,97,39,5
100,135,35,-118,33,85,-15,209,322,154,87,45
122,187,66,-155,28,126,-41,241,402,216,147,92
151,237,85,-194,32,161,-61,262,470,262,199,135
185,283,98,-234,44,190,-75,271,506,301,236,174
187,294,108,-241,39,201,-88,244,515,305,224,176
163,277,114,-220,24,195,-84,206,462,273,213,159
138,239,101,-189,18,170,-72,166,351,223,175,122
99,185,85,-142,7,135,-48,124,241,146,104,66
48,132,84,-90,-18,108,-7,86,144,67,45,26
20,84,64,-52,-22,74,14,46,64,16,-5,-16
-5,49,54,-22,-30,51,25,19,15,-11,-38,-51
-13,37,49,-12,-31,43,37,11,-8,-41,-67,-68
0,33,33,-17,-17,33,35,7,-23,-55,-81,-70
-17,27,44,-6,-31,35,35,1,-33,-58,-84,-71
-22,22,43,0,-33,32,35,-5,-42,-73,-86,-79
-21,16,36,2,-29,26,35,-9,-48,-75,-85,-80
-19,18,37,0,-28,27,35,-6,-52,-75,-85,-80
-4,24,27,-10,-16,25,35,-3,-55,-75,-85,-80
-8,27,35,-10,-22,31,35,-1,-50,-75,-85,-80
-18,32,50,-7,-34,41,35,3,-47,-75,-83,-79
-11,37,47,-13,-29,41,35,5,-44,-70,-80,-75
-3,40,43,-19,-23,41,35,7,-40,-70,-77,-73
0,40,40,-20,-20,40,40,10,-35,-69,-74,-70
7,42,35,-25,-14,39,40,13,-37,-65,-71,-67
13,45,33,-29,-10,39,41,16,-41,-65,-70,-64
15,45,30,-30,-8,37,45,19,-40,-68,-75,-73
15,42,27,-29,-6,34,45,20,-44,-70,-75,-85
12,36,24,-24,-7,30,43,20,-45,-70,-75,-85
11,31,20,-21,-5,26,40,20,-45,-74,-75,-85
7,28,21,-18,-7,24,40,20,-50,-76,-75,-85
-2,22,24,-10,-13,22,36,20,-50,-74,-75,-85
-6,21,27,-8,-17,24,34,21,-50,-71,-75,-84
-4,25,29,-10,-17,27,36,17,-50,-66,-81,-77
-7,25,33,-9,-21,29,39,15,-50,-64,-76,-73
-12,24,36,-7,-24,30,41,15,-48,-59,-71,-67
0,33,32,-17,-16,32,42,12,-37,-56,-66,-61
16,68,52,-42,-18,59,54,9,-28,-53,-60,-57
25,97,72,-61,-24,85,48,12,-16,-46,-56,-50
23,111,88,-68,-32,99,41,22,-10,-41,-38,-43
35,133,98,-84,-32,115,26,17,-9,-35,-23,-35
65,148,83,-107,-9,115,-23,3,-4,-30,-26,-31
79,152,74,-116,2,113,-37,-7,-4,-30,-29,-36
84,142,58,-113,12,100,-35,-5,3,-22,-32,-41
76,102,26,-89,25,64,-28,-6,-6,-34,-36,-43
45,53,7,-49,19,30,7,0,-18,-52,-44,-57
15,19,5,-17,5,12,33,-1,-55,-80,-74,-86
-6,-8,-2,7,-2,-5,46,2,-75,-107,-87,-107
-24,-31,-7,28,-8,-19,45,8,-72,-102,-83,-105
-30,-43,-13,37,-9,-28,46,1,-82,-110,-87,-106
-25,-41,-16,34,-4,-28,52,18,-63,-104,-84,-104
-34,-47,-13,41,-10,-30,47,-1,-91,-119,-108,-106
-31,-48,-18,40,-6,-33,49,18,-54,-97,-101,-107
-41,-53,-12,48,-14,-32,46,-1,-93,-114,-97,-120
-35,-69,-34,53,0,-51,58,111,73,-57,-62,-120
36,67,31,-52,2,49,-45,45,197,126,83,3
179,439,260,-309,-41,349,-387,-477,57,396,442,348
182,720,538,-451,-178,629,-657,-877,-205,443,686,662
-121,449,570,-164,-346,509,-629,-1166,-1131,-282,131,371
-219,65,284,77,-252,175,-373,-849,-1124,-579,-294,-61
-127,-5,121,66,-124,58,-99,-262,-370,-262,-171,-121
-113,-50,64,81,-88,7,18,-105,-212,-198,-152,-137
-81,-74,7,77,-44,-33,51,-5,-81,-139,-120,-131
-96,-91,6,94,-51,-42,57,24,-63,-125,-114,-123
-84,-97,-13,91,-36,-55,54,42,-47,-116,-110,-124
-66,-85,-19,76,-23,-52,56,49,-31,-104,-95,-113
-67,-89,-22,78,-22,-55,54,47,-36,-106,-97,-115
-59,-79,-20,69,-19,-49,56,58,-12,-85,-79,-107
-61,-80,-19,71,-21,-50,51,54,-17,-78,-75,-108
-54,-70,-16,63,-19,-43,45,70,6,-59,-60,-101
-49,-63,-14,57,-17,-38,40,71,23,-51,-53,-101
-39,-54,-15,47,-12,-34,35,86,51,-36,-42,-88
-31,-38,-7,35,-12,-22,26,105,76,-19,-29,-67
-15,-17,-2,16,-6,-9,32,128,125,7,-1,-48
14,16,2,-16,6,9,39,162,180,44,33,-18
29,43,14,-37,7,28,18,206,251,96,65,16
51,81,30,-66,11,55,-9,249,332,158,120,55
85,132,48,-109,18,90,-36,277,402,212,172,94
118,181,63,-150,27,122,-53,282,460,257,212,137
125,213,88,-169,18,150,-67,274,472,277,243,168
114,220,106,-167,4,163,-68,267,455,275,246,178
117,206,89,-162,14,148,-53,220,394,245,215,154
77,155,77,-116,0,116,-47,156,281,176,152,100
27,98,72,-63,-23,85,-27,110,172,95,86,50
-7,51,58,-22,-32,54,2,71,84,37,26,1
-34,4,38,15,-36,20,15,39,23,-10,-16,-40
-58,-33,25,45,-41,-4,22,29,-20,-44,-38,-55
-63,-49,14,56,-38,-17,30,28,-43,-53,-51,-65
-55,-53,2,54,-28,-25,38,24,-46,-66,-54,-74
-64,-59,5,61,-34,-27,44,22,-53,-73,-55,-75
-65,-60,5,62,-35,-27,45,19,-57,-74,-55,-75
-66,-60,6,63,-36,-26,45,17,-62,-76,-55,-75
-70,-60,10,65,-40,-25,45,14,-65,-74,-55,-75
-70,-60,10,65,-40,-25,45,11,-60,-75,-53,-74
-67,-59,8,62,-37,-26,45,8,-60,-75,-48,-69
-59,-54,4,56,-31,-25,45,5,-59,-75,-45,-66
-56,-51,5,53,-31,-22,45,6,-55,-75,-42,-63
-48,-46,1,47,-24,-22,45,11,-55,-75,-37,-58
-41,-41,0,41,-20,-21,45,14,-55,-75,-35,-55
-36,-36,0,36,-18,-18,45,17,-55,-75,-43,-55
-28,-33,-5,31,-11,-18,45,22,-55,-74,-50,-55
-22,-27,-5,25,-8,-16,45,25,-55,-70,-50,-56
-21,-26,-5,24,-8,-15,45,25,-55,-70,-50,-64
-26,-31,-5,29,-10,-18,45,25,-56,-70,-50,-65
-31,-36,-5,34,-13,-20,45,25,-60,-70,-50,-65
-32,-39,-7,36,-12,-23,45,25,-60,-70,-49,-69
-30,-44,-14,37,-8,-29,45,25,-63,-66,-46,-70
-28,-47,-19,38,-4,-33,45,25,-66,-65,-43,-69
-27,-52,-25,40,-1,-38,45,25,-62,-65,-41,-63
-21,-50,-29,36,5,-40,45,25,-56,-60,-37,-57
-19,-42,-23,31,2,-33,44,25,-49,-60,-35,-51
-22,-33,-12,28,-5,-22,51,25,-43,-60,-32,-47
-8,-1,7,4,-8,3,58,25,-36,-42,-20,-38
1,28,28,-15,-14,28,68,29,-29,-26,-7,-23
0,46,46,-23,-24,46,52,30,-25,-21,5,-10
22,66,44,-45,-11,55,6,30,-20,-16,17,-5
31,72,41,-52,-5,56,-11,30,-15,-13,28,-5
25,63,37,-44,-6,50,-19,29,-13,-7,33,-1
52,51,-1,-52,27,25,-32,32,-3,-6,31,1
51,31,-20,-41,35,5,-23,28,-13,-18,18,-11
16,-15,-31,0,23,-23,8,33,-34,-43,-2,-34
-20,-63,-43,42,11,-52,33,27,-73,-73,-19,-58
-44,-81,-37,63,-3,-59,49,33,-75,-74,-26,-66
-54,-86,-33,71,-10,-59,52,28,-76,-80,-35,-66
-44,-95,-51,70,3,-73,54,33,-75,-82,-47,-72
-23,-94,-71,59,24,-82,60,41,-63,-75,-49,-71
-27,-97,-70,62,22,-83,59,31,-80,-88,-61,-78
-23,-93,-69,58,24,-81,71,59,-44,-68,-47,-68
-27,-102,-75,64,24,-88,69,25,-79,-97,-65,-70
-11,-101,-90,56,40,-95,74,160,124,-1,-5,-57
71,82,11,-76,30,46,-83,-12,173,196,184,103
233,496,263,-364,-16,379,-442,-545,63,486,581,484
178,704,526,-441,-174,615,-659,-935,-342,388,697,711
-136,353,489,-109,-313,421,-584,-1169,-1247,-373,61,328
-158,29,187,64,-173,108,-297,-698,-956,-485,-223,-41
-64,-13,52,38,-58,20,-48,-170,-296,-192,-95,-62
-47,-54,-7,51,-20,-30,44,-44,-174,-143,-87,-74
18,-51,-69,17,44,-60,84,59,-44,-79,-46,-64
13,-49,-62,18,37,-55,91,69,-58,-93,-53,-63
10,-52,-62,21,36,-57,84,86,-25,-74,-39,-62
10,-48,-58,19,34,-53,81,99,-24,-69,-33,-57
2,-52,-55,26,28,-53,76,107,-14,-64,-30,-57
10,-47,-57,19,34,-52,72,109,4,-49,-18,-50
19,-42,-61,11,40,-51,67,112,12,-45,-16,-49
29,-31,-60,1,45,-45,63,115,29,-28,-6,-45
32,-23,-55,-4,43,-39,60,116,34,-20,-3,-38
39,-15,-54,-12,47,-34,57,135,62,-7,2,-24
46,-4,-49,-21,48,-26,52,150,88,16,20,-9
68,19,-50,-43,58,-15,50,173,134,45,47,1
91,47,-44,-68,67,2,39,208,189,84,78,31
118,77,-41,-97,79,18,21,252,267,137,126,71
152,121,-31,-136,91,45,5,288,344,193,178,111
168,168,-1,-168,84,83,-20,317,414,250,235,162
202,211,8,-207,97,109,-38,326,464,292,279,202
194,226,32,-211,81,129,-52,307,481,316,308,219
164,220,56,-192,54,137,-66,283,462,314,302,211
166,210,44,-188,61,127,-50,244,375,267,262,197
124,160,36,-142,44,98,-18,181,261,190,209,150
82,103,22,-93,30,62,7,127,152,123,141,83
56,61,4,-58,26,32,28,99,61,66,84,46
42,21,-21,-31,31,0,44,85,20,20,42,21
58,4,-54,-31,56,-25,46,75,-10,-11,13,3
58,-4,-62,-27,60,-33,52,65,-33,-30,4,-15
39,-18,-58,-10,49,-38,59,55,-44,-38,3,-30
25,-30,-56,3,40,-42,57,46,-51,-42,-1,-31
22,-30,-52,4,37,-41,54,42,-56,-47,-3,-29
20,-30,-50,5,35,-40,51,39,-63,-50,-5,-31
18,-30,-48,6,33,-39,48,36,-65,-50,-13,-29
15,-30,-45,8,30,-37,46,31,-65,-53,-17,-31
12,-30,-42,9,27,-36,43,31,-65,-55,-12,-27
9,-30,-39,10,24,-35,40,35,-65,-55,-10,-25
5,-30,-35,13,20,-32,40,35,-65,-51,-7,-25
5,-30,-35,13,20,-32,38,35,-66,-50,-4,-21
-2,-31,-28,17,13,-29,34,35,-70,-50,-10,-20
0,-28,-28,15,14,-28,35,31,-70,-45,-18,-20
-1,-42,-41,22,20,-41,35,29,-75,-45,-26,-26
-12,-51,-39,32,14,-45,35,30,-76,-46,-30,-33
-23,-62,-39,43,8,-50,35,30,-74,-53,-30,-38
-51,-83,-32,67,-9,-57,35,30,-89,-59,-29,-42
-42,-87,-45,65,2,-66,36,29,-96,-61,-35,-47
-16,-88,-72,52,28,-80,33,25,-94,-64,-43,-50
-21,-84,-64,53,22,-74,30,25,-99,-67,-40,-45
-24,-85,-61,54,19,-73,29,23,-100,-70,-40,-39
-30,-85,-56,58,13,-70,30,19,-100,-69,-38,-36
-32,-84,-52,58,11,-68,30,20,-90,-60,-34,-31
-43,-86,-43,65,1,-64,30,23,-74,-51,-36,-27
-52,-63,-11,58,-20,-37,39,28,-63,-37,-29,-22
-29,-32,-4,31,-12,-18,47,29,-57,-18,-16,-13
-14,-13,2,13,-8,-5,44,25,-52,-6,-5,-2
-3,8,11,-3,-7,9,6,25,-49,-3,2,8
1,22,21,-12,-10,21,-43,26,-43,5,9,16
3,20,17,-11,-7,18,-54,23,-41,10,14,26
42,16,-26,-29,34,-4,-39,34,-43,26,25,27
69,16,-53,-42,60,-18,-13,35,-48,31,27,11
38,-30,-68,-3,53,-49,17,37,-42,1,1,-2
-7,-81,-75,44,34,-78,36,32,-70,-27,-33,-12
-18,-93,-75,56,29,-84,40,32,-86,-36,-42,-20
-8,-93,-85,51,39,-89,40,29,-88,-40,-43,-24
-11,-103,-92,57,41,-97,39,33,-87,-43,-53,-36
-12,-104,-92,58,41,-98,42,52,-69,-31,-40,-39
-11,-108,-97,60,43,-102,37,35,-90,-43,-44,-46
-3,-101,-99,52,49,-100,53,59,-45,-23,-21,-35
-13,-116,-102,65,45,-109,55,33,-94,-40,-30,-34
-18,-132,-113,75,48,-122,47,160,97,35,1,-33
70,57,-13,-64,41,22,-70,44,210,238,186,119
234,472,238,-353,-2,355,-417,-470,90,544,587,510
171,703,533,-437,-181,618,-646,-864,-286,494,742,767
-154,346,501,-96,-328,423,-572,-1125,-1226,-300,92,381
-215,-37,178,126,-197,70,-316,-718,-1046,-499,-260,-21
-133,-90,43,111,-87,-23,-70,-193,-351,-182,-114,-46
-131,-138,-7,134,-62,-72,20,-56,-221,-133,-103,-63
-72,-151,-79,112,4,-115,61,49,-82,-51,-60,-49
-51,-145,-95,99,22,-120,77,55,-78,-44,-58,-46
-47,-143,-96,95,25,-119,74,83,-47,-44,-45,-41
-39,-133,-94,86,28,-113,76,90,-43,-34,-33,-33
-25,-121,-95,73,36,-108,71,98,-36,-21,-27,-30
-1,-96,-95,49,47,-95,69,108,-13,-10,-8,-15
14,-79,-93,32,54,-85,72,118,-4,9,-3,-9
27,-59,-86,16,57,-72,85,136,27,39,12,4
31,-47,-79,8,55,-63,82,136,37,42,19,11
39,-34,-73,-2,56,-53,76,149,63,73,30,21
42,-23,-65,-9,54,-44,73,156,79,86,45,28
61,0,-61,-31,61,-30,67,191,129,110,70,49
91,26,-65,-58,78,-19,63,225,184,150,107,83
119,61,-58,-89,88,1,42,257,251,200,154,113
157,110,-47,-133,102,32,23,296,340,266,209,159
184,155,-28,-169,106,63,1,323,405,328,264,207
205,204,-1,-205,103,101,-22,332,459,371,304,242
221,229,8,-225,106,118,-42,315,479,396,332,267
195,222,26,-209,84,123,-57,299,457,402,336,260
168,214,45,-191,61,129,-37,265,390,360,304,243
143,175,32,-159,55,103,-4,219,281,287,244,214
95,109,14,-103,40,62,27,181,174,217,174,158
66,66,-1,-66,33,32,53,141,89,154,110,112
51,28,-23,-39,36,2,70,114,27,107,76,72
51,6,-46,-28,48,-20,81,105,-7,85,63,51
53,2,-51,-27,52,-25,85,99,-18,77,55,49
45,-4,-49,-21,48,-26,89,93,-29,72,49,46
43,-7,-50,-18,47,-29,90,85,-40,69,41,44
37,-12,-50,-12,44,-31,90,81,-47,66,34,40
34,-17,-50,-8,42,-33,90,84,-54,61,30,41
27,-20,-46,-3,36,-32,90,85,-52,60,30,45
22,-23,-45,1,34,-33,89,85,-50,60,30,45
20,-25,-45,3,33,-35,85,85,-50,60,31,45
12,-28,-40,8,26,-34,85,84,-50,60,36,45
9,-31,-40,11,24,-35,85,87,-50,60,35,45
15,-26,-41,6,29,-33,85,90,-51,60,35,45
20,-25,-45,3,34,-35,85,93,-55,63,35,45
25,-25,-50,0,38,-37,81,96,-55,66,35,45
26,-21,-46,-2,36,-33,80,99,-58,64,35,45
25,-20,-45,-2,35,-32,79,100,-61,65,30,45
24,-21,-45,-1,35,-33,76,95,-60,64,30,45
17,-28,-45,6,31,-36,74,95,-57,67,29,45
18,-27,-45,5,32,-35,76,94,-51,70,25,45
27,-19,-46,-3,37,-33,80,90,-47,70,25,45
34,-15,-49,-10,42,-31,80,90,-43,70,28,45
29,-8,-37,-10,34,-23,86,92,-38,68,37,44
21,-5,-26,-8,24,-15,92,100,-33,85,46,55
25,12,-13,-18,18,-1,89,105,-29,103,60,68
23,31,8,-27,8,19,83,95,-25,113,74,79
32,51,19,-42,6,35,59,78,-23,121,74,86
52,80,28,-66,12,54,21,73,-17,130,92,99
76,97,20,-87,27,58,-11,76,-16,143,109,108
100,95,-5,-97,52,45,-15,80,-17,136,100,99
93,66,-27,-79,59,20,0,91,-23,124,90,92
67,16,-51,-41,59,-17,36,100,-27,114,77,83
29,-37,-66,5,48,-51,76,101,-38,88,68,73
6,-61,-67,28,36,-64,82,97,-69,70,50,58
8,-65,-73,28,41,-69,87,105,-59,80,41,45
5,-82,-88,39,47,-85,90,94,-79,70,32,39
5,-87,-92,41,49,-90,95,109,-66,80,37,39
-4,-89,-85,47,40,-87,97,99,-79,71,34,42
-6,-93,-87,50,41,-90,100,113,-58,78,33,37
-9,-92,-83,51,37,-87,108,108,-50,83,40,46
9,-100,-110,46,60,-105,91,134,-14,78,28,34
63,-30,-93,-16,78,-61,64,230,223,248,141,94
172,257,85,-214,43,171,-167,-112,155,503,434,362
296,695,399,-496,-52,547,-506,-543,35,783,866,774
50,633,582,-342,-266,607,-583,-896,-723,273,588,724
-181,138,319,21,-250,228,-387,-900,-1329,-449,-117,216
-58,-10,48,34,-53,18,-116,-334,-633,-223,-110,43
-15,-19,-4,17,-6,-11,44,-32,-223,-2,0,37
-2,-63,-61,33,30,-62,101,77,-116,45,9,16
5,-76,-81,36,43,-78,115,132,-40,99,51,38
-3,-101,-99,52,48,-100,114,127,-55,81,36,30
3,-99,-102,48,53,-100,116,150,-3,98,51,47
-7,-103,-96,55,45,-99,114,141,-15,101,51,45
16,-88,-104,37,60,-96,116,155,14,128,70,55
29,-74,-103,22,66,-88,114,151,18,130,66,67
42,-58,-101,8,72,-79,108,160,36,143,84,78
50,-46,-96,-1,73,-71,102,172,52,153,108,85
57,-35,-92,-11,75,-63,98,183,69,161,108,88
68,-22,-90,-23,79,-55,91,195,91,174,118,104
81,-3,-84,-38,82,-43,87,212,123,202,140,117
107,28,-78,-67,92,-25,78,236,178,243,173,139
126,55,-70,-90,98,-7,63,265,239,282,205,163
147,92,-55,-119,101,19,49,303,319,344,256,205
170,133,-37,-151,103,48,19,325,394,404,313,258
198,179,-19,-188,108,80,-6,342,459,458,373,306
224,221,-3,-222,113,109,-14,346,498,500,414,338
221,237,16,-229,102,126,-26,338,496,519,416,350
208,228,20,-218,93,123,-31,319,454,493,399,342
183,190,7,-187,87,99,-9,270,363,426,350,302
132,133,2,-132,65,67,24,213,241,349,279,247
84,72,-12,-78,48,30,51,182,137,273,218,196
63,24,-40,-43,52,-8,66,157,70,218,159,148
48,-7,-56,-20,52,-31,80,133,22,184,125,121
48,-22,-70,-13,59,-46,94,128,6,169,122,116
56,-21,-77,-17,67,-48,97,122,1,160,116,111
54,-20,-74,-16,64,-46,95,119,-6,151,113,108
53,-20,-73,-16,63,-46,95,113,-12,148,107,102
48,-20,-68,-14,58,-44,93,110,-35,144,106,101
52,-20,-72,-16,62,-46,90,115,-42,141,111,106
38,-18,-56,-10,47,-37,90,115,-36,136,109,104
35,-15,-50,-10,43,-32,102,119,-35,136,112,107
68,-12,-80,-27,74,-45,106,120,-31,140,115,110
77,-9,-86,-33,81,-47,101,122,-29,140,114,109
73,-6,-78,-33,76,-42,100,125,-26,140,119,114
73,-4,-78,-34,76,-41,95,125,-23,143,120,115
71,0,-72,-35,72,-36,96,125,-21,147,120,115
74,5,-69,-39,71,-32,87,125,-17,146,125,120
93,8,-85,-50,89,-38,96,129,-15,145,125,120
103,13,-91,-58,97,-39,112,132,-13,145,126,121
99,16,-83,-57,91,-34,109,135,-8,145,130,125
102,19,-83,-60,92,-32,112,137,-5,144,132,124
99,23,-76,-61,87,-27,116,140,-2,146,135,125
101,25,-76,-62,88,-25,114,138,3,154,138,125
98,41,-57,-69,77,-8,116,130,5,165,139,128
105,71,-33,-88,69,19,124,125,17,186,150,144
126,97,-29,-111,77,34,123,117,34,202,166,158
140,114,-26,-126,82,44,86,112,36,210,173,168
154,131,-23,-142,88,53,40,103,37,206,181,175
168,151,-17,-160,93,67,27,108,35,197,187,187
190,143,-47,-166,118,48,32,134,30,192,185,186
185,105,-81,-145,133,12,43,130,17,181,179,179
156,60,-96,-108,126,-18,77,128,14,179,170,159
120,13,-108,-66,114,-47,105,123,1,154,135,123
102,-14,-117,-44,110,-65,115,121,-2,129,128,114
102,-21,-122,-41,112,-71,115,117,-9,123,120,113
89,-25,-113,-31,101,-69,115,115,-21,116,111,109
84,-31,-116,-26,100,-73,116,134,-15,117,113,107
69,-37,-105,-16,87,-70,113,122,-43,103,89,105
67,-41,-108,-12,88,-74,118,152,-14,114,115,100
70,-51,-120,-9,95,-86,115,114,-51,101,91,93
78,-64,-142,-7,110,-103,133,214,108,159,141,83
133,45,-87,-89,110,-21,41,196,238,318,214,191
316,441,125,-378,95,283,-276,-217,174,637,669,534
339,767,428,-553,-45,597,-573,-649,-102,724,855,867
104,585,481,-345,-189,533,-569,-906,-863,101,675,680
