I,II,III,aVR,aVL,aVF,V1,V2,V3,V4,V5,V6
-14,-11,3,12,-9,-3,-70,-40,34,-69,-110,-115
2,0,-2,-1,2,0,-71,-41,40,-68,-109,-116
8,6,-2,-7,5,2,-67,-45,57,-80,-111,-120
-20,-16,4,18,-11,-6,-73,-45,51,-86,-125,-115
11,14,3,-13,3,9,-84,-44,49,-84,-123,-114
4,10,6,-7,-1,8,-82,-51,44,-85,-120,-109
-72,-22,50,47,-61,13,-74,-56,40,-78,-117,-109
-56,-4,52,30,-54,23,-75,-50,39,-81,-113,-102
-38,25,63,6,-51,44,-61,-49,25,-76,-109,-109
-40,41,81,-1,-61,60,-38,-42,48,-59,-99,-124
-45,22,67,11,-56,44,-68,-41,61,-89,-126,-125
-42,21,64,10,-53,42,-68,-36,55,-104,-138,-125
-17,27,44,-6,-30,35,-51,-29,50,-96,-132,-123
-28,-29,-1,28,-13,-15,-58,-24,47,-103,-138,-134
-51,-36,15,43,-33,-10,-54,-19,42,-96,-131,-132
-47,-34,13,40,-29,-10,-55,-22,32,-104,-141,-137
-18,-22,-3,20,-7,-12,-55,-16,46,-87,-121,-121
1,-7,-7,3,4,-7,-53,-28,34,-82,-128,-134
-1,0,1,1,-2,0,-38,-4,84,-58,-104,-100
-65,101,166,-18,-116,134,-92,-153,-48,-46,-113,-57
-9,45,54,-18,-32,50,-430,-680,-697,-330,-96,53
195,-246,-441,26,318,-343,-796,-1094,-1353,-851,-169,217
224,-702,-926,240,575,-814,-737,-993,-1404,-1201,-671,-136
176,-861,-1036,343,606,-948,-533,-659,-1014,-1080,-840,-449
133,-559,-692,213,413,-625,-330,-375,-576,-703,-586,-355
26,-261,-286,118,156,-273,-115,-129,-190,-341,-353,-276
-6,-65,-59,35,27,-62,-53,-10,26,-121,-165,-193
-49,-37,12,43,-30,-13,-20,8,82,-82,-155,-163
-80,-34,46,57,-62,5,6,38,110,-64,-137,-154
-59,-6,53,32,-55,23,9,38,110,-65,-127,-151
-52,-6,46,29,-49,20,22,46,124,-66,-122,-150
-41,-13,28,27,-34,7,20,66,142,-64,-114,-158
-83,-51,32,67,-57,-10,16,64,143,-60,-137,-161
-57,-19,38,38,-48,9,16,88,162,-24,-111,-136
-32,0,33,16,-32,16,12,89,181,3,-88,-130
-30,6,36,11,-33,21,30,116,222,27,-75,-121
3,40,37,-22,-17,39,71,168,256,41,-59,-113
-16,58,74,-21,-45,65,75,165,288,78,-30,-106
-21,117,138,-48,-80,127,64,185,353,138,-8,-93
-5,164,169,-79,-88,166,60,210,395,174,20,-73
13,208,195,-111,-91,201,52,228,445,230,74,-40
37,263,226,-150,-95,244,46,243,491,283,111,-12
52,295,243,-174,-95,269,53,234,516,307,137,15
60,339,279,-200,-110,309,52,231,531,342,176,51
63,347,284,-206,-110,315,39,227,524,356,208,78
78,353,275,-216,-99,313,24,213,500,340,200,92
85,328,242,-207,-79,285,-9,182,440,305,190,98
88,281,192,-184,-52,236,-30,138,360,246,160,91
104,244,140,-174,-18,192,-47,86,272,153,88,48
76,165,89,-121,-7,127,-61,54,200,78,33,0
50,113,62,-82,-6,87,-49,42,149,43,-12,-34
55,71,16,-64,19,43,-41,34,120,1,-49,-54
46,47,1,-46,22,24,-33,30,116,-30,-79,-80
35,21,-15,-28,25,3,-34,25,107,-44,-94,-94
45,39,-6,-42,25,17,-48,17,98,-36,-86,-90
34,51,17,-43,8,34,-51,17,94,-45,-94,-100
5,19,14,-12,-5,16,-45,2,86,-64,-114,-104
-2,8,10,-3,-7,9,-46,3,95,-75,-123,-117
-51,0,51,25,-51,25,-63,-25,61,-76,-121,-117
-59,-27,32,43,-45,2,-48,-22,48,-61,-130,-129
14,24,10,-19,2,17,-31,32,117,-22,-79,-91
-23,200,223,-89,-123,211,-114,-153,4,62,6,-20
52,9,-43,-31,48,-17,-392,-572,-604,-284,-30,86
210,-473,-683,132,447,-577,-649,-945,-1357,-1041,-384,100
206,-818,-1024,306,615,-920,-615,-898,-1408,-1331,-855,-256
214,-836,-1051,311,633,-943,-466,-562,-937,-1057,-871,-467
105,-524,-629,209,368,-577,-248,-286,-479,-636,-570,-361
-4,-183,-178,94,87,-180,-57,-59,-75,-246,-280,-225
22,17,-4,-19,13,6,-23,24,101,-80,-128,-127
-13,44,57,-16,-35,50,-14,32,127,-60,-121,-127
-20,54,74,-17,-47,64,-1,60,162,-22,-111,-119
-1,59,59,-29,-30,59,11,75,170,-10,-116,-120
1,48,47,-25,-23,47,22,82,172,-15,-109,-120
-8,22,31,-7,-20,26,20,78,169,-24,-109,-114
-43,-24,19,33,-31,-2,17,81,170,-32,-111,-116
-50,-33,17,41,-33,-8,17,89,172,-38,-112,-119
-54,-51,3,53,-28,-24,12,89,165,-25,-126,-128
-50,-23,26,36,-38,1,42,107,189,3,-101,-112
-56,-5,52,30,-54,23,42,126,226,21,-75,-96
-31,38,69,-4,-50,53,36,153,268,72,-53,-89
22,119,97,-71,-38,107,83,192,322,119,-15,-65
7,143,136,-75,-65,139,86,213,379,177,27,-17
27,208,181,-118,-77,194,86,232,424,229,71,9
49,244,195,-147,-73,220,103,255,454,247,95,18
57,281,224,-170,-84,253,113,273,485,278,112,47
77,313,236,-195,-80,275,88,253,470,280,114,58
64,288,224,-176,-80,255,60,216,435,257,101,48
51,266,215,-159,-82,240,50,172,392,218,91,49
30,209,179,-120,-75,193,11,117,310,157,52,34
34,169,135,-101,-51,152,-19,80,220,90,-8,-3
66,130,64,-98,1,96,-15,59,162,27,-55,-33
55,44,-11,-49,32,17,-22,52,128,-25,-93,-64
39,6,-33,-22,36,-13,-36,49,93,-56,-118,-76
52,23,-29,-38,40,-3,-28,43,77,-67,-124,-83
33,3,-30,-18,31,-13,-24,40,71,-77,-125,-93
19,-32,-51,7,35,-41,-18,33,63,-82,-135,-88
-4,-62,-58,33,27,-60,-13,29,58,-92,-143,-101
3,-48,-51,23,28,-49,-3,19,46,-94,-134,-104
26,-38,-64,7,45,-51,-14,16,54,-87,-145,-95
7,-58,-65,26,36,-61,-34,4,57,-82,-150,-90
24,-30,-54,4,39,-42,-12,16,52,-76,-142,-82
42,-4,-46,-19,44,-25,14,68,88,-71,-140,-77
49,13,-36,-31,42,-11,17,46,95,-69,-133,-70
44,24,-20,-34,32,2,3,25,84,-66,-132,-71
34,27,-7,-30,20,10,-6,35,80,-64,-125,-84
21,23,2,-22,9,12,-4,17,71,-60,-126,-86
-12,3,15,4,-13,9,-18,12,67,-60,-150,-83
-11,-20,-9,16,-1,-14,-28,-1,61,-77,-158,-82
17,-15,-32,0,25,-23,-18,4,57,-85,-156,-77
9,-33,-43,12,26,-38,-9,36,52,-97,-166,-89
6,-53,-59,24,33,-55,-1,40,48,-106,-175,-105
37,-17,-54,-9,46,-36,11,31,43,-99,-171,-98
22,-24,-46,1,34,-35,16,29,40,-96,-169,-94
1,-54,-56,27,29,-55,15,20,40,-90,-163,-87
4,-54,-58,25,31,-56,16,17,40,-88,-162,-84
-20,-42,-22,31,2,-32,14,25,40,-81,-155,-78
3,-33,-37,15,20,-35,24,40,39,-82,-157,-83
14,-33,-47,10,30,-40,30,54,44,-75,-153,-94
-26,-49,-22,38,-2,-35,23,47,47,-78,-158,-92
21,-32,-54,6,38,-43,20,43,51,-92,-178,-88
16,-3,-19,-6,18,-11,15,35,59,-78,-162,-79
-4,-33,-30,19,14,-31,10,53,64,-89,-166,-84
25,-12,-38,-6,32,-24,14,63,55,-87,-170,-65
15,-40,-55,13,35,-47,32,55,47,-84,-180,-100
37,9,-28,-23,32,-9,43,74,78,-37,-135,-56
-47,101,148,-27,-98,125,-79,-166,-144,-56,-104,3
42,-22,-64,-10,53,-43,-431,-685,-798,-372,-58,168
231,-328,-559,49,395,-443,-686,-992,-1345,-868,-241,273
207,-771,-978,282,593,-874,-595,-843,-1312,-1166,-766,-172
213,-820,-1033,304,623,-926,-401,-512,-920,-992,-848,-384
117,-570,-687,226,403,-628,-197,-245,-518,-643,-618,-300
-8,-305,-296,157,144,-300,-27,-31,-166,-299,-377,-240
0,-67,-67,34,34,-67,33,72,44,-76,-176,-110
5,-49,-54,22,30,-51,64,100,92,-51,-165,-104
23,-19,-42,-2,33,-30,102,141,128,-33,-152,-92
11,-10,-21,0,16,-15,118,165,157,-25,-156,-95
-7,7,13,0,-10,10,108,165,156,-16,-155,-97
12,33,21,-22,-5,26,119,167,171,-4,-144,-91
-37,-22,14,29,-25,-4,97,171,179,3,-141,-110
-47,-12,35,29,-41,11,76,170,184,16,-131,-108
-22,3,25,9,-23,14,103,168,184,31,-126,-101
-37,-14,24,25,-30,5,100,188,185,46,-119,-90
-23,-3,21,13,-22,9,102,202,210,65,-94,-80
19,54,35,-37,-8,45,130,233,254,113,-75,-71
19,95,76,-58,-29,86,147,280,315,162,-46,-67
32,124,92,-78,-31,108,141,290,364,217,15,-26
32,186,154,-109,-61,169,144,315,420,278,66,19
16,236,219,-126,-102,227,160,344,462,316,103,26
92,290,197,-191,-53,243,165,347,492,355,139,66
77,309,233,-193,-79,271,153,342,522,411,194,122
79,338,258,-209,-90,298,133,341,515,432,221,139
122,370,248,-246,-63,309,110,336,496,420,232,164
145,354,209,-250,-32,281,75,297,455,407,235,172
152,317,165,-234,-7,241,55,237,387,351,200,152
86,226,140,-156,-27,182,56,184,299,270,136,127
76,155,79,-116,-2,117,43,148,217,191,67,79
72,123,51,-98,10,87,32,110,159,116,17,26
112,80,-32,-96,72,23,29,85,106,70,-26,-18
118,52,-65,-85,91,-6,30,84,79,39,-56,-40
42,5,-37,-23,39,-16,29,79,67,21,-86,-49
4,-40,-43,18,24,-41,32,77,54,17,-105,-68
-9,-40,-31,25,11,-35,45,73,43,15,-109,-59
10,-40,-51,15,31,-45,43,68,44,9,-108,-57
-4,-36,-33,20,15,-34,38,62,45,8,-100,-90
-24,-34,-10,29,-6,-22,36,57,45,1,-97,-90
-30,-36,-6,33,-12,-20,30,52,51,0,-90,-76
-15,-11,3,13,-9,-4,33,43,48,4,-85,-68
45,23,-21,-34,33,1,58,76,59,12,-80,-58
29,42,13,-36,8,27,79,108,86,46,-75,-46
10,37,26,-24,-8,31,73,99,84,58,-75,-47
7,27,20,-17,-7,23,65,95,85,56,-72,-66
-6,19,25,-7,-15,22,59,89,84,47,-69,-65
19,8,-11,-13,15,-2,49,83,50,27,-72,-69
-12,-20,-8,17,-2,-14,50,76,32,21,-91,-82
-47,-34,13,40,-30,-10,58,69,35,15,-90,-74
-18,-25,-7,21,-5,-16,64,63,29,11,-74,-67
-8,-63,-55,36,24,-59,63,55,26,6,-105,-101
-29,-90,-61,59,16,-75,67,60,23,1,-118,-114
-34,-82,-48,59,7,-65,68,59,17,-3,-104,-98
-41,-91,-50,66,5,-70,82,59,16,-12,-95,-92
-35,-70,-35,53,0,-52,100,59,9,-22,-94,-87
-6,-47,-40,27,17,-43,74,44,3,-21,-97,-85
-39,-62,-24,51,-7,-43,62,29,-9,-16,-92,-79
-30,-59,-29,44,0,-43,55,22,-13,-12,-100,-79
4,-10,-14,3,9,-12,70,40,-3,8,-78,-69
-34,-26,8,30,-21,-9,104,74,8,14,-61,-68
-4,-12,-9,8,3,-10,97,70,30,22,-51,-44
-9,34,43,-13,-27,38,104,65,56,46,-51,-44
-9,56,65,-24,-37,60,86,101,113,88,11,-11
-10,164,173,-77,-92,168,-10,-88,-47,90,50,33
0,88,88,-44,-44,88,-299,-564,-632,-145,53,130
149,-262,-411,57,280,-337,-607,-947,-1297,-695,-69,275
206,-739,-945,267,576,-842,-582,-896,-1433,-1119,-586,-55
163,-865,-1028,351,596,-947,-390,-569,-1031,-974,-744,-329
67,-576,-643,255,355,-610,-187,-288,-592,-590,-483,-244
4,-300,-304,148,154,-301,3,-69,-227,-251,-282,-210
-34,-124,-90,79,29,-107,86,38,-17,-56,-100,-137
-87,-98,-11,93,-37,-55,83,59,20,-18,-84,-120
-57,-73,-16,65,-20,-44,102,76,53,37,-74,-117
-49,-57,-8,53,-20,-32,120,82,64,36,-59,-102
-64,-51,13,57,-38,-19,112,74,66,37,-55,-99
-70,-47,24,58,-47,-11,97,66,79,64,-33,-89
-71,-35,37,53,-54,1,84,80,86,63,-27,-90
-81,-15,66,48,-73,25,128,112,120,99,11,-82
-68,13,81,27,-75,47,135,145,172,142,46,-69
-8,97,105,-45,-57,101,123,160,210,175,53,-50
-15,88,103,-37,-59,95,122,167,232,199,61,-47
-13,82,95,-35,-54,88,113,172,231,193,68,-42
2,103,101,-53,-50,101,133,200,265,219,77,-38
-37,100,137,-32,-87,118,151,223,324,273,109,-32
-33,148,181,-58,-107,164,164,229,352,305,136,-14
-10,202,212,-96,-111,207,161,255,403,363,179,15
-1,243,245,-121,-123,243,155,263,440,394,219,52
-6,256,261,-125,-133,258,148,248,442,408,236,65
5,268,263,-137,-129,265,135,235,443,437,250,84
34,290,256,-162,-111,273,104,204,411,427,268,115
25,265,240,-146,-108,253,60,171,367,399,277,124
26,226,200,-127,-87,213,54,137,302,344,241,109
39,183,144,-111,-52,163,56,94,232,279,204,87
41,139,98,-90,-29,118,54,73,176,240,173,68
43,117,74,-80,-16,95,52,62,138,189,117,36
51,113,63,-82,-6,88,49,48,124,152,88,17
32,83,51,-58,-10,67,46,34,92,132,65,4
-13,32,45,-10,-29,38,43,19,53,98,26,-34
-25,2,27,11,-26,14,29,6,26,74,18,-57
-73,-51,22,61,-47,-14,4,-23,-11,68,20,-69
-48,-41,7,44,-28,-16,27,-22,-3,60,11,-87
-36,-24,12,30,-24,-6,43,-17,28,53,14,-79
-83,-61,21,72,-51,-20,37,-4,15,45,3,-79
-64,-54,10,59,-36,-22,34,4,-10,40,6,-69
-76,-57,19,66,-47,-19,33,-7,-17,48,-8,-70
-35,-44,-10,39,-12,-27,27,0,-3,51,-8,-64
-56,-26,30,41,-43,2,33,-20,-11,54,14,-64
-29,-23,7,26,-18,-8,52,31,52,84,34,-42
-27,121,148,-47,-88,134,14,-13,81,182,119,39
-69,141,210,-36,-140,175,-163,-362,-340,57,151,102
119,-159,-278,20,199,-218,-513,-845,-1142,-549,33,267
162,-622,-784,230,473,-702,-645,-1010,-1548,-1127,-434,84
142,-861,-1002,360,572,-932,-497,-729,-1216,-1087,-732,-277
128,-658,-787,265,458,-722,-309,-426,-729,-690,-524,-276
1,-374,-375,186,189,-374,-90,-179,-335,-319,-287,-216
-46,-134,-87,90,20,-110,24,-27,-57,-53,-93,-133
-76,-63,13,70,-44,-25,53,6,8,18,-39,-102
-87,-63,25,75,-56,-19,61,34,35,40,-25,-103
-53,-3,50,27,-51,24,65,40,65,71,-4,-87
-54,-1,53,27,-53,26,58,43,74,76,4,-92
-98,-18,80,58,-89,31,80,60,84,73,26,-77
-97,-24,73,60,-85,24,95,65,91,85,29,-79
-53,22,76,15,-65,49,70,67,110,114,54,-66
-66,9,75,28,-71,42,69,71,131,125,51,-54
-44,30,74,6,-59,52,74,97,170,165,79,-40
-1,78,80,-39,-41,79,103,141,211,199,108,-32
-45,57,102,-6,-74,79,94,155,247,222,118,-27
-36,120,156,-42,-96,137,64,165,308,284,163,-17
-23,151,173,-64,-98,162,72,181,355,330,195,3
-14,210,224,-98,-119,217,106,227,423,400,250,49
37,297,259,-167,-111,278,123,248,458,454,298,78
26,300,274,-163,-124,287,111,234,465,464,309,96
23,317,294,-170,-136,305,114,235,480,484,322,117
23,283,260,-153,-119,271,91,211,439,461,325,119
10,268,258,-140,-124,263,46,169,388,424,311,123
2,231,229,-116,-114,229,30,117,297,341,252,100
-24,140,164,-58,-94,152,20,69,193,237,186,62
-21,109,130,-45,-76,120,11,34,126,181,144,45
-33,79,112,-23,-73,95,-3,19,80,130,99,13
-18,58,76,-20,-47,67,-19,13,58,101,67,-10
6,41,35,-23,-15,38,-20,1,45,86,51,-34
-58,-10,48,34,-53,19,-20,7,40,77,35,-56
-90,-34,57,62,-74,11,-20,12,35,71,27,-55
-64,-9,55,36,-59,22,-35,-1,29,62,21,-54
-62,-8,54,34,-58,23,-28,-9,24,56,14,-56
-66,-9,57,37,-62,24,-14,-22,18,48,8,-55
-53,-4,49,28,-51,23,-20,-42,9,45,0,-51
-85,-44,40,64,-62,-2,-17,-43,-7,43,8,-77
-129,-58,71,93,-99,6,-9,-37,0,40,23,-89
-121,-54,68,87,-94,7,-6,-33,-5,37,20,-79
-107,-55,52,81,-79,-1,-15,-29,-23,31,16,-81
-101,-56,46,78,-73,-5,-11,-25,-19,26,13,-75
-104,-63,41,83,-72,-11,7,-30,-20,23,7,-75
-89,-50,39,69,-64,-5,19,-34,-15,17,6,-76
-62,-28,34,44,-47,3,2,-31,-15,15,-3,-74
-48,-16,32,32,-40,8,-26,-38,-14,15,-4,-76
-62,-38,24,50,-43,-7,-24,-32,-9,15,8,-73
-73,-60,14,66,-43,-23,6,-27,-11,15,-2,-77
-44,-56,-12,50,-16,-34,25,-29,-9,14,-4,-72
-75,-46,29,60,-52,-8,8,-36,-12,16,-10,-62
-115,-57,58,86,-86,0,-24,-50,-7,10,-18,-69
-76,-36,41,56,-58,2,-23,-55,-21,2,-16,-81
-85,-56,29,70,-57,-13,9,-41,-19,-5,-26,-96
-96,-56,40,75,-67,-8,3,-41,-22,-17,-12,-78
-80,-56,23,68,-51,-16,8,-28,-20,-8,-30,-98
-80,-26,54,53,-67,14,11,-19,31,52,33,-54
-89,125,214,-18,-152,169,-130,-287,-211,25,60,4
-38,-13,25,25,-32,6,-467,-781,-866,-302,62,139
113,-376,-489,132,301,-432,-735,-1093,-1428,-802,-67,266
167,-774,-941,303,555,-857,-668,-964,-1395,-1078,-559,-98
128,-852,-980,362,554,-916,-468,-623,-980,-923,-667,-350
39,-563,-602,262,321,-582,-249,-345,-571,-567,-429,-283
-73,-298,-225,186,76,-261,-64,-130,-207,-233,-219,-214
-93,-130,-36,112,-28,-83,11,-33,-26,-56,-64,-128
-72,-110,-38,91,-17,-74,44,4,14,-30,-60,-128
-57,-74,-17,66,-20,-45,49,31,40,11,-21,-113
-76,-47,28,61,-52,-9,51,29,33,27,-17,-100
-111,-43,68,76,-89,12,49,30,51,39,-17,-101
-119,-30,89,74,-104,29,51,31,82,50,6,-81
-114,-35,79,74,-96,22,52,8,67,29,-15,-91
-81,-1,80,41,-81,39,59,30,84,61,-15,-113
-50,32,82,9,-66,57,66,83,130,96,23,-92
-51,43,93,4,-72,68,58,97,156,107,55,-70
-90,34,125,28,-108,79,83,121,201,141,61,-61
-58,85,142,-14,-100,113,98,147,250,188,86,-46
0,157,157,-79,-79,157,105,190,314,244,126,-17
-54,158,212,-52,-133,185,127,231,364,280,144,-17
-66,176,242,-55,-154,209,128,231,393,318,177,-9
-60,215,275,-78,-168,245,118,224,424,354,207,12
-42,249,292,-104,-167,270,100,218,440,375,225,19
1,277,276,-139,-138,277,91,208,443,400,254,53
19,289,270,-154,-126,279,71,204,426,386,262,68
72,324,252,-198,-90,287,30,181,403,375,277,112
58,314,256,-186,-99,285,12,128,344,353,266,125
3,234,231,-119,-115,233,2,77,258,282,224,91
13,180,168,-97,-78,174,-23,34,172,208,174,75
34,146,111,-90,-39,128,-31,10,113,149,124,53
-2,99,102,-49,-52,100,-23,4,92,110,87,27
-35,73,109,-19,-72,90,-20,-2,65,79,54,0
-23,51,74,-14,-49,62,-15,-9,45,57,38,-21
-21,41,62,-10,-42,51,-9,-16,44,41,33,-41
-25,36,61,-5,-43,48,-22,-22,39,26,26,-38
-28,26,54,1,-41,40,-32,-25,37,15,18,-36
-28,24,51,2,-40,37,-27,-24,34,7,20,-30
-38,8,46,15,-42,27,-24,-38,19,-2,10,-36
-57,-14,44,35,-50,15,-21,-46,4,-12,-13,-64
-77,-36,40,56,-58,2,-15,-45,-21,-5,-22,-62
-89,-54,36,71,-62,-9,-18,-51,-37,-8,-18,-54
-87,-50,37,68,-62,-6,-30,-49,-29,-25,-10,-54
-106,-41,65,74,-85,12,-29,-47,-24,-29,-29,-41
-100,-41,59,70,-80,9,-23,-43,-19,-32,-38,-46
-71,-28,42,49,-56,7,-22,-41,-13,-28,-28,-48
-74,-35,39,54,-56,2,-15,-37,-10,-33,-33,-56
-56,-34,22,45,-39,-6,-15,-35,-5,-44,-22,-74
-43,5,47,19,-45,26,-8,-34,1,-46,-28,-84
-25,24,49,1,-38,36,-5,-24,-5,-45,-22,-77
-67,7,74,29,-70,40,-25,-42,-8,-38,-33,-80
-82,-15,68,48,-75,26,-36,-47,-19,-44,-42,-76
-45,0,45,23,-45,22,-27,-40,-15,-32,-20,-62
-52,-7,45,30,-49,19,-20,-31,3,-28,-39,-81
-4,78,82,-37,-44,80,-38,-43,13,30,41,-4
-88,112,200,-12,-144,155,-153,-305,-258,-35,48,27
-21,-66,-45,43,12,-55,-507,-837,-996,-474,11,189
163,-464,-626,151,395,-545,-708,-1099,-1513,-1040,-324,136
104,-902,-1006,399,555,-954,-579,-884,-1373,-1248,-828,-328
64,-846,-910,391,487,-878,-434,-583,-953,-958,-735,-385
16,-524,-540,254,278,-532,-194,-298,-507,-557,-459,-286
-51,-223,-171,137,60,-197,-30,-93,-153,-223,-214,-196
-88,-79,9,83,-48,-35,-5,-22,-13,-72,-81,-90
-132,-84,49,108,-90,-18,39,-5,25,-61,-92,-96
-101,-9,92,54,-97,42,40,-17,51,-36,-60,-99
-45,36,81,4,-63,58,40,14,68,-10,-58,-107
-105,-17,88,60,-96,36,37,42,85,20,-37,-89
-121,-31,90,76,-105,29,34,47,93,20,-28,-86
-73,17,90,28,-81,53,36,43,92,20,-16,-77
-65,25,89,20,-77,57,39,48,98,32,-16,-71
-20,61,82,-21,-51,71,41,74,137,62,-16,-64
-31,71,103,-20,-67,87,45,87,160,79,13,-59
-71,54,125,8,-99,90,73,126,211,114,46,-41
-90,83,173,4,-132,128,112,170,278,167,71,-20
-64,133,198,-35,-131,165,132,203,324,201,91,-27
-37,162,199,-63,-118,181,126,229,381,257,131,3
-42,172,214,-65,-128,192,146,238,414,293,165,30
3,249,247,-126,-122,248,152,254,456,338,203,55
2,283,281,-143,-140,282,115,257,469,376,242,94
-11,280,291,-135,-151,285,76,244,459,361,253,111
8,313,306,-161,-149,309,52,211,441,353,266,128
16,290,274,-153,-129,282,25,162,377,336,255,125
21,254,233,-138,-106,243,-3,110,288,281,221,117
15,206,191,-111,-88,198,-11,65,183,196,169,90
7,137,130,-72,-61,133,-35,26,107,118,102,47
7,105,98,-56,-46,101,-47,-8,52,63,49,21
7,88,81,-48,-37,84,-44,-25,29,29,24,4
-8,80,88,-36,-48,83,-39,-45,28,15,10,-17
-3,63,66,-30,-35,64,-22,-32,26,3,-4,-26
-41,39,81,1,-61,60,-12,-37,22,-1,-7,-30
-84,-43,41,63,-62,-1,2,-24,19,-32,-46,-55
-97,-38,59,68,-77,10,5,-2,30,-29,-42,-29
-133,-48,86,90,-109,19,22,6,49,-33,-52,-61
-89,0,89,44,-89,44,25,22,76,19,-7,-36
-86,183,270,-49,-178,226,-93,-234,-154,51,65,38
0,-59,-59,30,29,-59,-393,-697,-829,-381,-13,128
168,-528,-696,180,432,-612,-649,-1012,-1481,-1060,-335,150
180,-858,-1038,339,609,-947,-590,-879,-1415,-1277,-765,-193
159,-841,-999,341,579,-920,-391,-526,-906,-960,-718,-339
66,-474,-540,204,303,-506,-189,-281,-468,-534,-425,-240
-46,-154,-108,101,31,-131,-42,-93,-109,-191,-199,-173
-117,-37,80,77,-98,21,13,-32,10,-66,-66,-79
-99,-37,62,68,-81,12,37,-1,25,-57,-73,-71
-44,-9,35,26,-40,13,52,34,63,-29,-58,-61
-103,-28,74,65,-88,23,62,44,57,-29,-57,-79
-94,-22,72,57,-83,24,60,51,77,-11,-50,-98
-77,0,77,38,-77,38,78,63,100,1,-44,-85
-103,-16,87,59,-95,35,79,74,96,14,-41,-83
-41,19,60,11,-51,39,71,67,111,25,-32,-73
-38,19,57,9,-48,38,70,74,120,21,-29,-66
-105,-8,97,56,-101,44,62,95,137,47,-28,-77
-123,7,130,58,-127,69,61,113,192,96,-19,-74
-86,43,129,21,-108,86,57,103,207,115,21,-41
-37,117,153,-40,-95,135,72,126,262,162,67,-14
-38,182,220,-72,-129,201,104,172,333,227,105,7
-41,197,238,-79,-140,217,123,189,352,258,132,22
-13,237,250,-112,-132,243,122,204,381,272,142,47
-3,250,253,-124,-128,251,106,201,380,284,156,68
-6,235,241,-115,-124,238,99,191,367,283,158,80
-10,221,231,-105,-121,225,84,155,321,242,150,83
-20,180,199,-80,-110,189,58,109,242,187,122,52
-25,131,157,-53,-91,144,42,79,185,125,71,28
-19,92,110,-37,-65,101,33,43,131,63,31,15
-32,57,89,-13,-61,73,22,20,87,19,-12,2
-38,39,77,-1,-58,58,13,11,54,-10,-36,-18
-43,22,65,10,-54,43,8,2,39,-24,-48,-35
-60,0,60,30,-60,30,3,-6,37,-36,-58,-35
-64,-10,55,37,-59,22,0,-12,33,-44,-52,-34
-56,-6,49,31,-52,21,5,-15,30,-46,-59,-36
-33,10,44,11,-39,26,10,-20,25,-43,-62,-54
-68,-30,39,49,-53,4,13,-25,22,-52,-69,-53
-59,-27,33,43,-46,3,18,-22,14,-67,-86,-50
-27,-2,25,14,-26,12,20,-17,6,-63,-82,-73
-69,-49,20,59,-44,-14,20,-15,-2,-71,-77,-76
-85,-73,12,79,-48,-30,20,-9,-9,-86,-76,-74
-50,-43,7,46,-29,-18,28,-8,7,-84,-67,-75
-30,-31,-1,31,-15,-16,32,-1,22,-85,-80,-75
-83,-80,3,81,-43,-38,28,11,19,-85,-94,-74
-95,-81,14,88,-54,-34,28,7,17,-85,-99,-70
-49,-65,-16,57,-16,-40,22,1,14,-85,-105,-67
-58,-59,-2,59,-28,-30,33,-3,10,-85,-102,-65
-82,-47,34,64,-58,-6,58,-7,10,-85,-97,-61
-75,-36,39,55,-57,2,51,-13,9,-84,-95,-60
-78,-35,43,56,-61,4,39,-15,11,-86,-96,-57
-84,-32,52,57,-67,10,35,-28,3,-83,-94,-60
-72,-39,33,55,-52,-3,36,-27,-8,-81,-97,-76
-69,-31,37,50,-53,3,34,-22,2,-71,-93,-61
-73,-37,36,55,-54,0,36,-14,-7,-71,-109,-72
-58,-41,17,49,-37,-12,33,-7,-9,-59,-93,-55
-67,-21,46,44,-57,13,44,8,18,-66,-91,-66
-39,-12,26,25,-33,7,60,60,60,-44,-56,-39
-60,85,144,-13,-102,114,-45,-151,-111,-35,-20,30
-74,-26,49,50,-61,12,-357,-664,-731,-346,-72,81
112,-301,-414,95,263,-357,-683,-1063,-1367,-823,-137,280
172,-697,-868,263,520,-782,-681,-1016,-1465,-1161,-568,3
147,-900,-1047,377,597,-973,-462,-668,-1089,-1096,-833,-371
109,-606,-715,249,412,-660,-232,-355,-630,-719,-583,-295
-26,-338,-312,183,143,-325,-46,-119,-255,-377,-351,-226
-83,-139,-56,111,-13,-97,46,-14,-31,-137,-181,-132
-107,-71,36,89,-71,-18,79,21,15,-87,-136,-101
-95,-65,30,80,-62,-17,66,40,37,-77,-119,-96
-76,-31,46,53,-61,7,64,42,52,-54,-102,-82
-84,-34,50,59,-67,8,55,56,60,-49,-99,-87
-89,-15,75,52,-82,30,58,57,81,-26,-83,-72
-89,-15,74,51,-81,29,102,83,98,-20,-85,-75
-82,-6,76,44,-79,35,107,103,115,4,-70,-63
-82,-8,73,45,-77,32,104,116,135,20,-63,-58
-67,12,79,27,-73,45,132,157,176,39,-33,-48
-70,20,90,25,-80,55,125,173,201,60,-28,-36
-59,58,117,0,-88,87,132,195,254,103,-8,-21
-21,115,135,-47,-78,125,178,235,321,156,39,-18
-4,121,125,-59,-65,123,186,263,366,186,47,-19
-19,184,203,-83,-111,193,184,297,428,260,102,26
-31,226,257,-98,-144,241,170,310,457,301,142,60
-1,229,230,-114,-116,229,147,302,464,314,152,69
27,277,249,-152,-111,263,146,294,465,347,191,109
32,309,277,-171,-123,293,114,261,442,345,218,139
39,305,265,-173,-113,285,65,219,405,328,216,159
89,303,213,-196,-62,257,35,182,348,299,199,173
81,253,172,-168,-46,213,18,128,271,238,170,160
32,188,156,-110,-62,172,21,97,195,172,122,144
53,165,112,-109,-30,138,19,71,146,116,77,121
19,83,65,-51,-23,74,20,32,104,56,28,85
-24,12,37,6,-31,24,21,25,69,10,-18,46
-23,19,42,2,-33,30,17,24,57,-5,-34,21
-9,29,38,-11,-24,33,50,32,49,-15,-50,6
-3,25,28,-11,-16,26,73,42,40,-25,-81,-6
-32,-11,21,21,-26,5,62,38,32,-36,-87,-17
-54,-41,14,47,-34,-13,60,36,24,-48,-83,-28
-45,-37,8,41,-26,-15,53,32,20,-56,-86,-29
-27,-33,-6,30,-10,-19,45,30,12,-60,-84,-32
-46,-28,18,37,-32,-5,56,28,8,-59,-86,-35
-17,-25,-8,21,-4,-17,64,24,0,-67,-105,-35
3,-17,-20,8,11,-18,57,25,-12,-76,-112,-30
-56,-35,21,45,-38,-7,52,21,-5,-66,-96,-21
-72,-55,17,64,-45,-19,47,20,-17,-62,-111,-29
-54,-33,21,43,-38,-5,39,19,-22,-53,-117,-28
-30,-9,21,19,-26,6,48,33,14,-49,-95,-14
-16,18,34,-1,-25,26,75,52,31,-44,-85,-10
-72,-18,54,45,-63,18,82,49,24,-47,-98,-33
-96,-53,43,74,-69,-5,72,52,21,-60,-110,-28
-86,-40,46,62,-66,3,91,54,15,-56,-116,-37
-50,-32,18,41,-34,-6,94,56,13,-55,-105,-35
-10,-5,5,8,-7,0,96,52,0,-44,-103,-31
-22,-42,-21,32,0,-31,96,51,-5,-47,-98,-44
-20,28,48,-4,-34,38,89,63,54,4,-41,39
-79,79,158,0,-119,118,-15,-185,-213,-55,-50,59
30,-115,-145,43,87,-130,-396,-731,-967,-511,-80,240
154,-545,-699,196,427,-621,-574,-979,-1483,-1110,-512,109
67,-953,-1020,443,544,-986,-425,-764,-1357,-1277,-978,-399
82,-817,-899,368,491,-858,-311,-482,-935,-955,-807,-406
42,-498,-541,228,292,-519,-133,-227,-500,-555,-526,-266
-47,-221,-174,134,64,-197,57,4,-137,-201,-253,-144
-31,-38,-7,34,-11,-23,108,73,0,-53,-121,-53
-88,-75,12,81,-50,-31,90,69,4,-50,-139,-63
-100,-44,56,72,-78,6,116,101,43,-11,-110,-38
-66,-32,34,49,-50,1,128,106,69,-6,-101,-36
-101,-47,53,74,-77,3,140,103,72,8,-61,-23
-96,-33,64,64,-80,15,152,118,78,13,-69,-18
-113,-50,63,81,-88,6,155,138,97,31,-63,-16
-92,-12,80,51,-86,34,172,145,107,50,-55,1
-54,18,73,18,-64,45,171,159,121,48,-50,3
-83,-8,75,45,-79,33,176,178,155,76,-14,-13
-37,44,81,-4,-59,62,171,204,203,121,-5,17
-11,84,95,-37,-53,89,170,227,245,158,23,40
-16,104,120,-44,-68,112,165,240,282,202,74,48
12,177,165,-95,-77,171,165,278,350,272,134,91
10,217,207,-114,-98,212,156,292,402,326,184,125
32,291,259,-162,-114,275,173,306,439,375,224,161
42,343,301,-193,-130,322,205,328,468,412,259,189
56,341,285,-199,-115,313,175,309,453,400,272,203
84,342,259,-213,-88,300,151,276,439,391,264,220
62,309,247,-186,-93,278,137,249,390,377,250,219
49,265,216,-157,-83,240,125,201,299,319,232,200
42,198,157,-120,-58,177,120,146,225,236,164,160
6,111,105,-59,-50,107,110,121,154,164,104,111
17,100,83,-59,-33,92,105,117,104,121,60,87
17,91,74,-54,-29,82,97,102,71,80,24,78
-67,2,69,32,-68,36,92,74,33,44,11,46
-39,19,58,10,-49,38,86,64,17,32,-31,14
-4,28,32,-12,-18,30,81,50,2,26,-50,16
-31,-16,15,24,-23,-1,77,31,-13,21,-41,15
-13,17,30,-2,-22,23,70,49,-9,16,-39,18
-4,38,42,-18,-23,40,69,68,-4,14,-30,34
-26,19,45,3,-36,32,60,63,-1,6,-23,26
-88,-45,43,67,-66,-1,67,67,6,7,-28,27
-77,-47,31,62,-54,-8,117,63,0,13,-44,22
-39,-17,22,28,-30,2,125,67,-1,21,-34,18
-17,10,28,3,-23,19,107,60,-7,28,-31,22
-21,15,36,3,-29,25,108,55,-9,24,-34,4
-62,-14,48,38,-55,17,99,47,-13,18,-15,17
-38,-16,22,26,-30,3,105,39,-18,1,-37,-16
1,58,57,-30,-28,58,77,72,70,97,71,66
-29,172,201,-72,-115,186,13,-88,-69,131,119,132
34,74,40,-54,-3,57,-247,-533,-693,-191,116,263
148,-324,-472,88,310,-398,-539,-939,-1402,-850,-160,316
101,-866,-967,382,534,-916,-489,-891,-1528,-1287,-788,-190
112,-896,-1008,392,560,-952,-341,-564,-1094,-1038,-797,-380
92,-554,-646,231,369,-600,-164,-292,-636,-612,-489,-228
-51,-301,-250,177,100,-275,38,-67,-249,-250,-246,-154
-58,-84,-26,72,-15,-55,107,40,-61,-40,-65,-62
-75,-82,-7,79,-34,-45,119,72,-30,-18,-74,-68
-112,-68,44,90,-78,-12,150,89,13,21,-41,-49
-77,-24,52,50,-64,14,174,100,28,20,-38,-51
-78,-18,60,48,-69,20,168,114,60,53,-17,-33
-63,30,93,16,-78,61,160,114,73,87,30,4
-53,29,83,12,-68,56,154,116,87,80,29,-3
-79,31,110,24,-95,70,143,117,107,111,48,-2
-74,44,118,15,-96,81,145,124,122,154,88,16
-57,65,121,-4,-89,93,153,151,167,165,91,43
-21,99,120,-39,-71,109,163,179,203,190,110,52
0,115,115,-58,-58,115,186,204,255,250,154,59
-19,142,161,-62,-91,152,193,244,314,297,190,78
2,217,216,-110,-107,216,185,270,382,364,242,112
4,264,260,-135,-128,262,210,294,438,427,292,144
10,300,290,-155,-141,295,220,311,469,477,341,173
29,346,317,-188,-144,331,206,303,499,515,383,200
12,332,320,-172,-154,326,185,291,477,505,389,220
36,323,288,-180,-126,305,142,250,439,495,387,237
35,304,270,-170,-118,287,132,205,373,437,357,219
21,232,211,-127,-96,221,120,162,263,330,283,188
28,164,136,-96,-54,149,98,107,173,245,217,150
5,106,101,-56,-48,103,91,77,103,183,159,102
-15,70,85,-28,-50,77,77,56,68,140,123,77
-31,47,78,-8,-55,63,68,27,30,103,111,61
-27,38,66,-6,-47,52,64,15,-6,89,104,55
11,50,39,-31,-14,45,64,14,5,80,98,50
8,48,41,-28,-17,44,59,10,-3,71,90,44
-30,31,61,-1,-45,46,61,8,-18,69,85,38
-28,31,59,-1,-44,45,65,3,-14,66,80,35
-33,29,62,2,-48,45,78,10,-15,63,74,44
-10,19,29,-4,-20,24,82,18,-15,60,69,40
-30,-3,27,16,-28,12,84,14,-16,59,64,35
-64,-23,41,43,-53,9,99,15,-13,50,58,29
-33,-21,12,26,-22,-4,87,15,-30,41,51,24
-61,-33,28,47,-44,-3,86,15,-43,33,44,18
-60,-35,24,47,-42,-5,98,15,-38,23,38,15
-67,-54,13,60,-40,-20,87,8,-45,16,29,14
-80,-69,11,74,-45,-29,75,0,-45,13,45,10
-56,-59,-3,57,-26,-31,65,-9,-44,8,62,11
-49,-50,-1,50,-24,-25,55,-26,-52,6,59,-7
-44,-50,-5,47,-19,-27,51,-26,-55,1,63,-10
-69,-64,5,66,-37,-29,40,-19,-51,1,66,6
-55,-39,16,47,-35,-11,47,-16,-47,23,64,17
-84,-60,24,72,-54,-18,85,-10,-45,23,66,28
-97,-67,30,82,-63,-18,75,-7,-27,28,64,22
-81,-39,42,60,-62,1,67,0,-13,40,65,19
-67,-30,37,48,-52,3,97,8,-27,30,76,16
-17,-21,-5,19,-6,-13,94,1,-24,24,71,10
-46,-57,-11,51,-18,-33,77,-6,-32,18,58,12
-56,-63,-7,60,-24,-34,68,-13,-42,10,46,14
-86,-71,15,79,-50,-28,83,-19,-41,14,42,17
-123,-89,34,106,-78,-28,95,-16,-54,29,53,9
-101,-81,20,91,-60,-31,85,-18,-46,21,56,3
-84,-88,-3,86,-40,-45,77,-32,-60,7,54,6
-70,-104,-33,87,-18,-68,68,-28,-72,6,55,6
-55,-94,-39,75,-8,-66,59,-32,-65,-5,56,17
-68,-91,-23,80,-23,-57,49,-40,-55,2,54,13
-96,-80,15,88,-55,-32,64,-38,-46,19,60,17
-82,-73,8,77,-45,-32,79,-37,-47,20,50,7
-70,-63,6,66,-38,-28,73,-27,-36,20,60,12
-73,-48,25,61,-49,-11,75,-37,-49,21,51,16
-22,-6,16,14,-19,5,81,0,28,67,107,52
-46,126,172,-41,-110,149,20,-122,-62,95,163,107
-78,67,144,5,-111,105,-259,-573,-628,-112,159,176
113,-186,-299,37,206,-242,-619,-1010,-1304,-587,148,400
170,-621,-792,226,482,-706,-645,-1027,-1501,-1010,-283,193
107,-885,-992,389,550,-938,-453,-703,-1147,-991,-591,-194
75,-648,-724,287,400,-686,-253,-405,-718,-654,-409,-182
-7,-357,-350,182,172,-353,-49,-162,-337,-303,-198,-140
-51,-164,-114,108,31,-139,42,-42,-88,-68,-27,-77
-76,-108,-32,92,-21,-70,78,-20,-28,-4,17,-44
-89,-104,-15,97,-37,-59,83,1,0,27,42,-48
-105,-98,7,101,-56,-45,77,5,8,34,47,-35
-87,-71,16,79,-51,-27,93,29,21,34,48,-36
-105,-63,42,84,-73,-10,103,39,41,58,72,-26
-100,-61,38,80,-68,-12,119,50,56,71,74,-22
-85,-27,58,56,-71,15,118,62,71,89,79,-10
-106,-23,83,64,-95,30,121,64,97,98,80,4
-63,21,83,21,-73,52,131,92,133,132,120,19
-87,22,109,33,-98,65,129,112,160,161,131,29
-84,50,134,17,-109,92,117,126,188,176,128,20
-45,81,126,-18,-86,103,107,147,231,218,166,31
-42,99,141,-29,-91,119,149,177,279,257,198,57
-18,154,172,-69,-95,163,175,217,327,302,229,68
3,197,194,-101,-95,195,154,227,380,361,281,107
13,228,215,-120,-101,221,146,225,397,397,318,128
23,252,229,-137,-103,240,133,216,411,419,344,153
67,299,232,-183,-82,265,122,207,429,442,369,178
29,282,253,-156,-112,267,115,202,414,445,383,201
39,294,255,-167,-108,275,104,170,391,429,390,229
115,319,204,-217,-45,261,75,121,323,393,380,232
58,226,168,-143,-55,197,47,69,239,319,338,209
27,161,134,-94,-54,147,22,29,172,245,278,160
32,134,102,-83,-36,118,10,5,119,182,231,135
21,84,64,-53,-22,74,26,-8,74,127,183,112
6,42,36,-24,-15,39,26,-4,39,99,149,100
-29,18,46,5,-38,32,14,-10,19,77,131,73
-30,9,39,10,-34,24,9,-20,6,59,121,42
-59,-21,39,40,-49,9,1,-26,3,43,109,52
-66,-38,29,52,-47,-4,-19,-50,-26,30,100,49
-55,-33,22,44,-38,-6,-25,-65,-42,31,93,37
-54,-37,17,45,-35,-9,-15,-58,-35,29,80,26
-53,-34,19,43,-35,-7,0,-50,-30,31,78,23
-64,-54,10,59,-36,-22,39,-34,-28,29,59,14
-40,-36,4,37,-21,-16,74,-14,-19,30,80,20
-51,-26,25,38,-38,0,55,-19,-21,21,81,3
-63,-55,8,59,-35,-23,30,-34,-31,17,82,26
-103,-63,40,83,-71,-11,32,-56,-47,11,73,21
-56,-51,5,53,-30,-23,33,-8,9,35,82,18
-33,134,167,-51,-100,150,31,-27,70,167,202,108
-59,153,212,-48,-135,182,-178,-407,-374,15,216,162
137,-153,-291,8,214,-222,-547,-917,-1212,-600,80,337
173,-621,-794,224,483,-707,-665,-1074,-1609,-1173,-407,131
129,-933,-1062,403,596,-997,-546,-817,-1319,-1166,-723,-272
129,-737,-866,304,498,-801,-341,-487,-836,-774,-506,-261
5,-423,-428,209,216,-425,-114,-222,-416,-391,-255,-181
-49,-149,-100,99,25,-124,1,-58,-105,-80,-22,-67
-81,-34,47,57,-64,6,46,-25,-23,10,57,-10
-101,-43,58,72,-79,7,72,3,14,27,66,-5
-85,-24,62,54,-73,19,80,27,47,45,83,5
-96,-47,48,71,-72,0,83,28,42,45,75,-18
-69,-19,50,44,-59,15,91,41,50,59,83,-15
-51,1,52,25,-51,26,109,64,66,63,86,2
-72,9,81,31,-77,45,104,68,87,88,113,23
-55,25,79,15,-67,52,94,68,91,93,117,19
-49,31,80,9,-65,55,91,75,115,110,119,19
-32,51,83,-9,-58,67,80,78,142,140,142,25
-12,79,92,-34,-52,85,87,100,179,181,173,41
-24,106,130,-41,-77,118,91,145,236,225,201,57
0,133,133,-67,-67,133,83,172,282,269,243,89
-13,193,206,-90,-110,199,108,197,350,345,297,121
-1,238,239,-118,-121,238,128,192,376,383,328,124
45,290,245,-168,-100,267,129,209,404,414,361,160
18,329,311,-174,-146,319,121,242,457,464,392,191
25,330,306,-178,-141,318,91,206,438,464,395,206
69,361,292,-215,-112,326,86,171,386,430,397,224
36,288,251,-162,-108,269,73,131,291,336,342,196
5,194,189,-100,-92,191,43,87,192,243,265,150
12,159,147,-85,-68,153,30,36,122,175,218,105
-20,84,105,-32,-63,94,24,1,66,110,161,66
-30,35,65,-3,-48,50,18,10,44,81,118,42
-35,11,46,12,-41,28,3,-1,22,50,98,30
-32,4,36,14,-34,20,5,-29,-3,26,93,25
-15,-12,3,13,-8,-5,11,-46,-25,9,86,20
-30,-32,-2,31,-14,-16,14,-44,-25,0,79,14
-20,-26,-6,23,-7,-16,16,-46,-24,-3,73,9
-5,-37,-32,21,14,-34,10,-51,-36,-10,67,4
-12,-36,-24,24,7,-30,9,-49,-41,-15,59,-1
-15,-24,-9,20,-2,-16,-4,-54,-47,-20,52,4
-18,-9,9,13,-13,0,-20,-53,-31,-11,75,10
-21,31,51,-5,-36,41,-15,-45,-10,4,86,19
-19,49,67,-15,-43,58,10,-39,-7,22,77,25
-38,37,75,0,-57,56,29,-32,-2,35,74,18
-49,27,77,11,-63,52,32,-26,3,32,69,14
-32,17,49,7,-41,33,26,-28,4,23,65,7
-36,2,38,17,-37,19,27,-35,-17,15,60,4
-66,-28,38,46,-51,5,16,-45,-36,7,57,-8
-79,-53,27,66,-53,-13,5,-54,-33,1,53,-26
-58,-40,18,49,-38,-11,27,-55,-31,-7,49,-19
-26,-48,-22,37,-2,-35,32,-54,-23,-28,45,-16
-37,-76,-39,57,1,-58,28,-50,-36,-35,42,-6
-36,-80,-44,58,4,-62,31,-50,-57,-35,40,-9
6,-57,-64,25,35,-60,29,-49,-54,-39,47,-27
-19,-58,-39,39,10,-48,31,-43,-56,-33,43,-31
-20,-81,-62,51,21,-71,24,-36,-54,-25,47,-18
9,-58,-66,25,38,-62,0,-32,-57,-19,44,-15
-8,-27,-18,18,5,-22,-19,-45,-53,-13,44,-8
-27,4,30,11,-28,17,-19,-67,-50,-6,52,2
-31,-20,11,25,-21,-5,-5,-38,-36,-2,47,-3
-1,35,36,-17,-19,35,-4,-38,-28,14,77,28
-21,43,64,-11,-43,53,14,-21,-7,22,73,2
-34,70,104,-18,-69,86,10,-30,20,68,123,47
-32,151,183,-60,-108,167,-179,-387,-331,-38,110,83
4,-76,-80,36,43,-78,-541,-905,-1058,-450,86,237
161,-448,-609,144,385,-528,-754,-1146,-1533,-942,-135,287
220,-809,-1029,294,625,-919,-637,-916,-1369,-1135,-604,-149
166,-791,-957,313,562,-873,-429,-563,-912,-878,-581,-284
91,-478,-569,194,330,-523,-205,-302,-501,-506,-324,-195
-17,-249,-232,133,108,-240,-34,-85,-163,-199,-127,-147
-59,-117,-58,88,0,-87,12,-28,-33,-64,-17,-71
-47,-93,-46,70,0,-69,30,10,-1,-42,-10,-79
-52,-76,-23,64,-14,-49,44,28,27,-13,30,-50
-73,-64,8,68,-40,-28,61,29,39,0,32,-48
-56,-32,24,43,-39,-4,76,68,75,32,67,-37
-26,12,39,7,-32,25,79,75,103,53,82,-31
-67,25,92,21,-80,58,68,76,95,73,72,-29
-79,31,110,23,-94,70,70,72,116,76,84,-19
-51,50,101,0,-77,76,70,92,160,106,106,-19
-42,61,103,-9,-73,81,69,107,169,130,120,-8
-50,48,98,1,-74,73,86,106,195,126,118,-3
-42,67,109,-12,-76,88,97,138,240,161,128,7
-32,105,137,-37,-85,121,112,172,291,200,160,14
-45,125,170,-40,-108,148,129,218,348,249,193,19
7,198,192,-103,-93,195,134,239,406,301,232,46
18,243,224,-131,-103,233,125,241,451,344,270,81
26,276,250,-151,-113,263,120,266,477,391,311,112
53,307,253,-180,-100,280,116,263,489,417,354,147
63,303,240,-183,-89,271,95,252,487,421,370,183
92,302,210,-197,-59,256,77,221,450,392,360,194
86,259,173,-173,-43,216,39,157,359,346,336,178
119,255,136,-187,-9,195,3,108,273,291,301,170
102,207,106,-155,-2,156,-11,86,209,218,244,131
40,134,95,-87,-28,114,-19,63,152,160,192,82
33,112,79,-73,-23,96,-32,8,101,111,145,64
12,75,63,-44,-26,69,-49,-30,51,58,108,40
-6,45,51,-19,-29,48,-54,-35,20,25,93,13
-24,21,45,1,-35,33,-43,-26,16,20,72,-2
-25,27,52,-1,-39,39,-25,-22,8,16,61,-9
33,21,-12,-26,22,5,-43,-45,7,8,63,-21
51,27,-24,-39,38,1,-50,-52,26,4,58,-30
26,22,-5,-24,15,8,-30,-35,30,0,45,-29
26,35,9,-31,8,22,-18,-29,30,16,46,-17
7,39,33,-23,-13,36,-8,-18,28,12,26,-23
14,23,8,-19,3,15,-4,-5,33,7,47,-6
-15,6,21,4,-18,14,13,0,23,1,46,-19
-12,-29,-17,21,3,-23,34,55,72,19,59,-2
-1,152,153,-76,-77,152,-25,-52,63,141,176,84
-21,113,134,-45,-78,123,-253,-458,-443,-67,190,176
143,-274,-418,66,281,-346,-560,-902,-1252,-765,-52,276
202,-660,-862,230,532,-761,-646,-1002,-1518,-1233,-553,-11
187,-841,-1027,328,607,-934,-503,-712,-1137,-1087,-729,-329
146,-651,-797,253,472,-724,-308,-402,-688,-721,-506,-303
15,-321,-337,154,176,-329,-79,-144,-271,-332,-245,-201
-23,-103,-79,63,28,-91,24,-4,-22,-77,-40,-88
-5,-51,-45,28,20,-48,32,11,15,-46,-10,-74
15,-8,-24,-3,20,-16,54,48,60,-10,16,-58
-34,-23,12,28,-23,-5,60,60,76,7,30,-40
-41,-10,31,25,-36,10,68,59,88,15,31,-37
-57,3,61,27,-59,32,64,67,110,45,55,-24
-50,1,50,24,-50,25,88,97,134,62,69,-21
-1,41,43,-20,-22,42,103,101,130,53,68,-10
0,40,39,-20,-19,39,98,99,147,70,68,-3
15,38,23,-27,-4,30,101,123,184,96,81,4
-9,37,45,-15,-27,41,102,143,207,111,94,17
0,82,82,-41,-41,82,135,193,268,161,132,40
1,104,102,-53,-51,103,112,219,307,201,162,58
4,169,164,-87,-80,166,78,213,350,261,205,86
9,231,222,-120,-107,226,99,217,387,301,240,104
4,227,224,-116,-110,225,106,213,402,313,250,118
34,266,232,-150,-99,249,105,220,410,335,274,140
24,279,255,-152,-116,267,88,214,386,333,277,147
35,270,235,-152,-100,252,63,183,360,311,269,155
49,241,193,-145,-72,217,53,146,306,268,251,153
32,204,173,-118,-70,188,44,104,229,201,203,127
39,166,127,-103,-44,146,40,69,176,135,153,102
31,109,78,-70,-24,93,35,48,135,91,106,80
8,74,66,-42,-29,70,31,45,95,50,77,56
11,66,55,-38,-22,60,27,44,66,30,66,50
22,53,32,-38,-5,42,23,46,63,20,51,42
27,41,14,-35,6,27,29,44,67,6,45,42
24,31,7,-28,9,18,30,51,63,6,37,33
37,17,-20,-26,28,-2,48,70,68,9,30,31
36,10,-26,-23,30,-7,50,47,53,-1,23,37
25,16,-9,-21,17,3,15,41,33,-13,13,23
21,8,-13,-15,17,-2,0,36,12,-15,14,18
5,-56,-61,26,34,-58,-4,43,-6,-41,-3,8
9,-31,-40,11,25,-35,1,37,-6,-29,7,20
-8,-62,-53,35,23,-57,32,40,19,-30,-13,-8
-6,11,18,-3,-12,15,26,48,79,53,67,54
-4,157,162,-77,-83,159,-125,-260,-235,5,94,124
57,-83,-141,13,99,-112,-446,-758,-982,-493,-2,244
207,-403,-610,99,409,-506,-678,-1062,-1516,-1012,-232,304
200,-794,-994,297,597,-894,-592,-920,-1443,-1229,-721,-139
148,-900,-1048,376,599,-974,-406,-567,-1012,-1035,-786,-389
98,-588,-687,246,393,-637,-227,-304,-580,-632,-503,-276
11,-261,-271,125,141,-266,-36,-53,-174,-249,-215,-139
10,-31,-41,11,26,-36,71,66,37,-30,-28,-11
20,-7,-27,-6,24,-17,95,91,77,-1,-27,-14
8,22,13,-15,-3,17,84,119,107,33,15,-7
-22,20,42,1,-32,31,72,106,112,34,14,1
-38,0,38,19,-38,19,59,89,117,34,0,-4
-54,-24,30,38,-42,3,63,82,114,37,-16,-12
-74,-53,21,64,-47,-16,75,88,116,33,-15,-24
-27,-17,11,22,-19,-3,95,117,115,39,-2,-20
-14,2,15,6,-15,8,122,127,137,59,10,-12
-9,43,52,-17,-31,48,116,152,186,96,45,-6
15,95,80,-55,-33,87,119,192,240,145,62,2
20,126,106,-73,-43,116,141,220,310,209,111,33
18,162,144,-90,-63,152,154,273,393,278,169,72
12,220,208,-116,-98,213,169,322,478,362,231,116
64,289,225,-176,-81,257,167,350,532,420,292,160
100,338,238,-219,-69,288,151,369,572,470,343,204
112,376,264,-244,-77,320,142,351,569,504,385,248
139,392,253,-266,-57,322,119,315,527,497,389,269
144,382,239,-263,-48,310,69,274,470,456,357,258
127,339,212,-233,-43,275,36,185,362,359,296,228
100,252,152,-176,-26,202,22,111,236,248,220,180
68,150,82,-110,-7,116,11,78,142,154,144,127
57,92,35,-75,11,63,20,43,90,88,88,95
47,63,16,-56,16,39,23,28,50,52,47,63
1,36,35,-19,-17,35,33,31,29,27,17,33
12,33,21,-23,-4,26,61,37,35,13,5,24
50,26,-25,-38,37,0,67,29,36,-5,-6,18
40,19,-21,-29,30,-1,63,30,35,-20,-17,10
43,26,-16,-34,29,5,70,44,35,-18,-15,2
6,-5,-11,-1,9,-8,70,45,35,-10,-15,-3
-15,-19,-4,17,-5,-11,54,45,34,-4,-15,1
0,-1,-1,0,1,-1,43,43,30,2,-8,11
-10,2,12,4,-11,7,32,39,30,9,-12,16
12,36,24,-24,-6,30,24,40,30,9,-5,28
18,54,36,-36,-10,45,15,36,20,-2,-5,26
5,25,21,-15,-8,23,5,34,-6,-14,-16,19
-26,2,28,12,-27,15,39,30,-28,-24,-34,11
-29,-30,-1,30,-13,-16,65,29,-39,-39,-47,-2
-4,-50,-47,27,22,-48,56,24,-43,-44,-44,-8
-23,-57,-34,40,6,-45,61,25,-34,-39,-50,-26
-17,-49,-32,33,7,-40,51,25,-25,-32,-38,3
-33,-56,-22,45,-5,-39,58,35,-15,-23,-51,-18
25,17,-8,-21,16,4,64,59,29,31,23,37
4,113,109,-59,-53,111,18,-64,-67,39,40,75
17,40,23,-28,-3,31,-242,-500,-636,-237,17,176
210,-258,-468,24,340,-363,-581,-941,-1340,-826,-180,277
128,-785,-912,329,520,-848,-536,-888,-1462,-1244,-774,-198
116,-901,-1016,393,566,-958,-380,-595,-1115,-1093,-877,-459
141,-597,-738,228,440,-667,-244,-343,-690,-693,-571,-301
8,-295,-303,144,155,-299,-51,-90,-271,-296,-285,-179
-22,-71,-48,47,13,-59,18,35,-38,-67,-70,-51
-24,-44,-20,34,-1,-32,57,61,-4,-38,-72,-40
9,-5,-14,-2,12,-9,74,62,11,-13,-49,-34
-22,7,30,8,-26,18,76,81,38,-9,-47,-32
-52,-7,45,29,-48,19,98,99,45,-6,-44,-32
-42,8,50,17,-46,29,108,105,58,18,-26,-24
-45,8,53,18,-49,30,101,111,67,46,-2,-27
-31,27,58,2,-45,42,95,120,90,74,25,-19
-33,30,63,1,-48,46,86,128,113,84,15,-5
-12,34,46,-11,-29,40,95,132,120,99,30,-1
1,83,82,-42,-41,82,148,184,183,142,59,0
-12,109,121,-49,-67,114,157,215,227,179,84,30
6,132,126,-69,-61,129,153,237,270,230,125,56
57,205,148,-131,-46,176,171,307,354,299,184,94
82,272,190,-177,-54,231,166,340,423,368,247,140
85,349,264,-217,-90,306,153,326,459,432,300,178
90,381,291,-236,-100,336,143,308,447,451,327,209
75,363,288,-219,-107,325,127,299,436,460,345,228
90,369,279,-230,-95,323,112,280,422,453,353,224
104,355,251,-230,-74,303,92,234,362,408,331,212
67,270,203,-169,-69,237,73,178,262,336,277,204
79,210,131,-145,-26,170,56,134,169,243,212,169
91,198,107,-145,-9,152,50,111,121,179,156,117
61,152,91,-106,-16,121,63,84,74,137,106,67
48,93,45,-71,1,69,66,52,17,83,65,43
16,54,38,-35,-11,46,64,53,5,58,36,41
-24,26,50,-1,-37,37,61,68,-1,57,34,37
-17,23,40,-3,-29,31,60,71,-30,49,30,31
-18,12,30,3,-24,21,59,70,-26,48,21,28
-40,-19,21,29,-30,1,54,66,-18,41,14,23
3,13,10,-8,-4,11,56,78,-11,38,15,19
29,70,42,-50,-7,56,52,80,-5,60,37,37
4,66,61,-35,-29,63,51,66,1,56,33,37
6,46,40,-27,-17,43,48,58,3,36,25,32
8,48,40,-28,-16,44,58,49,-37,33,15,25
17,47,30,-33,-7,38,67,48,-57,35,10,20
-2,41,43,-20,-23,42,63,42,-55,35,12,16
-9,33,42,-12,-26,37,72,41,-50,39,6,8
8,33,25,-21,-9,29,65,33,-49,42,10,15
-8,26,34,-9,-21,29,66,39,-45,36,-3,-2
-14,35,49,-11,-32,42,52,43,-45,36,18,16
-11,21,33,-5,-22,27,56,49,-57,14,8,-16
40,69,29,-54,5,49,54,67,8,77,70,50
-36,138,174,-51,-105,156,-8,-95,-114,98,112,96
-15,43,58,-14,-36,50,-259,-526,-705,-201,101,189
160,-256,-415,48,288,-335,-557,-922,-1387,-781,-90,306
128,-748,-876,311,502,-812,-496,-871,-1524,-1211,-691,-142
119,-875,-993,378,556,-934,-360,-577,-1154,-1057,-809,-381
103,-585,-687,241,395,-636,-196,-303,-717,-651,-493,-250
10,-264,-275,127,143,-269,-9,-73,-305,-261,-239,-166
-16,-41,-25,29,5,-33,40,26,-79,-20,-33,-43
-33,-26,8,29,-20,-9,96,74,-43,8,-4,-27
-46,-1,45,23,-45,22,105,73,-17,36,21,-11
-19,39,58,-10,-39,48,105,81,3,52,30,-15
-12,36,49,-13,-30,42,105,97,19,64,39,-13
-30,40,69,-5,-50,54,112,104,34,74,48,-8
-26,59,85,-17,-56,72,128,118,45,84,44,-11
3,84,81,-44,-39,82,123,110,50,106,56,-9
-8,69,77,-31,-43,73,132,132,74,114,80,-23
-32,83,114,-26,-73,98,128,144,105,140,93,-7
-26,117,143,-46,-85,129,141,173,160,198,126,29
-20,152,172,-66,-97,162,157,214,219,244,169,58
6,203,197,-105,-95,200,152,240,270,293,191,66
-2,251,254,-125,-128,252,175,291,358,373,257,99
11,310,299,-161,-144,304,185,314,420,433,305,134
40,372,332,-206,-146,352,186,334,474,489,360,181
65,431,366,-248,-150,398,208,329,519,545,423,246
65,413,348,-240,-142,380,185,305,481,529,421,261
57,379,323,-218,-134,351,138,285,415,482,409,250
101,374,273,-238,-86,324,113,232,345,448,380,249
79,289,211,-184,-66,250,95,172,248,367,331,226
46,222,176,-134,-66,199,81,114,152,270,276,179
27,161,134,-94,-53,147,61,77,80,199,206,130
9,102,93,-56,-42,97,54,44,25,140,154,87
11,91,80,-52,-35,85,58,26,-15,91,109,62
7,75,68,-41,-31,72,55,41,-41,67,87,37
15,73,58,-44,-22,65,55,50,-56,72,91,18
4,53,49,-28,-23,51,51,51,-51,75,95,27
1,55,53,-28,-26,53,49,50,-39,74,91,32
14,93,79,-54,-33,86,63,49,-30,82,98,46
9,119,110,-64,-51,114,88,56,-24,97,103,55
-18,107,125,-45,-72,116,94,57,-25,103,93,44
-1,110,111,-55,-56,110,85,48,-26,96,88,41
28,129,101,-79,-36,114,81,39,-23,89,80,35
-12,63,76,-26,-44,69,75,33,-32,81,76,36
-32,21,52,5,-42,36,70,24,-45,64,75,29
-28,47,75,-10,-52,61,65,20,-55,48,95,25
-33,45,78,-7,-55,61,57,7,-75,40,87,21
-24,29,53,-3,-39,41,56,9,-80,38,65,11
2,54,51,-28,-25,52,65,19,-85,37,74,13
0,40,40,-20,-20,40,73,28,-84,29,62,-2
16,47,31,-32,-8,39,62,23,-73,34,81,8
-3,30,34,-14,-19,32,65,17,-81,25,57,4
-24,52,75,-14,-50,63,58,29,-43,95,132,66
-28,187,214,-80,-121,200,-13,-145,-170,122,177,97
-16,97,113,-40,-65,105,-252,-544,-728,-158,178,208
132,-261,-393,65,263,-327,-560,-947,-1420,-752,-4,320
126,-753,-880,313,503,-816,-535,-924,-1568,-1200,-602,-105
105,-811,-916,353,511,-863,-359,-588,-1146,-1002,-682,-329
86,-491,-576,203,331,-533,-203,-342,-695,-587,-388,-190
-15,-218,-204,117,95,-211,3,-104,-300,-226,-148,-133
-6,-4,2,5,-4,-1,81,3,-86,-9,45,-48
-25,35,60,-6,-42,47,101,21,-59,30,60,-36
-35,67,102,-16,-69,85,118,63,-21,82,116,-25
-50,52,101,-1,-76,76,112,71,-9,72,109,-21
-58,38,96,10,-78,67,128,75,3,75,108,-20
-67,38,105,14,-86,72,136,64,13,78,113,-11
-46,47,93,0,-70,70,135,69,21,88,108,-10
-41,74,115,-16,-78,94,135,96,41,115,119,0
-64,79,143,-8,-104,111,142,110,62,118,116,10
-28,115,144,-44,-86,129,163,132,104,158,155,31
-40,92,131,-26,-86,111,165,159,129,180,185,53
-26,131,157,-53,-92,144,169,173,179,222,207,69
-27,189,215,-81,-121,202,185,202,249,291,238,69
11,237,226,-124,-108,231,191,246,307,340,277,86
29,326,297,-177,-134,311,192,278,386,419,346,138
-10,368,378,-180,-194,373,181,275,416,463,380,160
55,431,376,-243,-161,403,175,267,432,489,396,180
58,437,379,-247,-161,408,155,262,441,514,439,222
68,406,338,-238,-135,372,116,237,391,476,439,219
95,391,296,-243,-101,343,110,192,323,440,428,234
60,321,261,-191,-100,291,100,142,235,368,383,210
76,269,194,-173,-59,231,71,94,142,272,312,189
64,206,142,-135,-39,174,62,41,49,207,260,134
46,165,119,-105,-37,142,53,24,4,120,214,97
23,153,129,-88,-53,141,49,24,-2,125,180,97
0,115,115,-58,-58,115,37,15,-37,80,141,-90
11,89,78,-50,-34,84,35,-1,-71,-10,128,-52
14,91,77,-53,-31,83,32,-2,-58,3,131,32
12,69,57,-41,-22,62,54,-19,-73,0,124,-25
13,69,57,-41,-22,63,33,-18,-41,-1,126,21
