I,II,III,aVR,aVL,aVF,V1,V2,V3,V4,V5,V6
-5,5,11,0,-9,8,5,119,84,175,110,95
-1,11,12,-5,-7,11,2,110,78,175,110,95
16,19,3,-18,6,11,-30,94,68,175,110,95
33,26,-6,-29,19,10,-72,84,58,175,110,95
47,35,-12,-41,29,12,-75,78,48,175,110,95
42,13,-29,-28,35,-8,-67,71,42,175,110,95
42,-15,-58,-13,50,-36,-61,64,33,167,103,89
49,-13,-61,-18,55,-37,-53,58,27,157,95,82
13,-45,-59,16,36,-52,-48,56,17,147,88,76
-21,-82,-61,52,20,-72,-37,61,17,142,80,69
-25,-84,-59,54,17,-71,-28,60,25,138,75,63
-30,-92,-62,61,16,-77,-17,62,27,132,66,57
-24,-89,-65,57,21,-76,-9,69,36,131,62,55
-28,-92,-65,60,19,-78,-2,59,28,122,54,51
-31,-97,-66,64,18,-81,10,73,42,134,61,50
-28,-92,-64,61,18,-78,7,55,14,126,60,45
-29,-95,-67,62,19,-81,15,75,32,140,59,44
-13,-73,-60,43,23,-66,10,56,0,132,70,47
-21,-81,-59,51,19,-70,21,64,18,145,56,40
-46,-42,4,44,-25,-19,-8,-22,-47,111,83,69
-83,-118,-35,100,-24,-76,-24,-225,-414,-174,14,99
-50,-341,-291,196,121,-316,-80,-372,-692,-530,-145,85
-22,-203,-181,112,80,-191,-453,-1332,-1685,-1070,-310,148
236,-52,-287,-92,262,-169,-801,-1926,-2380,-1317,-211,330
624,-423,-1047,-100,836,-735,-820,-1324,-1708,-703,13,207
351,-643,-994,146,673,-818,-476,-766,-970,98,-92,-113
7,-374,-381,184,194,-377,-42,-201,-283,261,-150,-126
-1,-194,-193,98,97,-193,101,136,116,65,-98,-63
-39,-152,-114,96,38,-133,97,135,105,117,-36,-28
-37,-116,-80,77,22,-98,109,161,139,171,21,-3
-51,-117,-65,84,7,-91,137,187,170,171,13,-11
-45,-100,-55,72,5,-77,135,207,187,181,20,1
-40,-94,-54,68,7,-74,135,202,194,170,10,-1
-46,-87,-41,67,-3,-64,142,214,205,178,11,6
-45,-85,-40,65,-2,-62,138,220,210,167,6,1
-51,-82,-31,67,-10,-56,143,221,212,172,5,-3
-48,-77,-29,63,-10,-53,145,235,219,167,1,-5
-53,-75,-22,64,-15,-48,152,248,220,158,-11,-11
-51,-70,-19,61,-16,-44,159,254,226,150,-17,-12
-57,-71,-14,64,-21,-42,167,268,230,141,-29,-18
-59,-68,-9,64,-25,-39,181,286,239,129,-35,-19
-61,-65,-4,63,-28,-34,199,306,246,115,-49,-21
-69,-64,5,67,-37,-29,214,335,240,100,-63,-25
-78,-68,11,73,-44,-28,234,351,233,70,-78,-24
-88,-70,18,79,-53,-26,253,347,227,32,-109,-33
-100,-70,31,85,-65,-19,250,339,205,-14,-142,-42
-105,-73,32,89,-68,-20,243,333,165,-69,-178,-54
-99,-75,24,87,-61,-26,235,317,115,-132,-218,-67
-92,-75,18,83,-55,-28,230,280,45,-200,-260,-61
-93,-82,11,87,-52,-35,218,212,-35,-256,-287,-60
-103,-100,3,101,-53,-48,181,130,-111,-285,-287,-60
-85,-106,-22,96,-31,-64,134,70,-162,-283,-279,-55
-55,-104,-49,80,-2,-77,100,22,-166,-250,-257,-56
-45,-105,-60,75,8,-82,92,4,-137,-168,-207,-52
-45,-105,-60,75,8,-82,88,13,-83,-56,-139,-33
-45,-105,-60,75,8,-82,84,21,-25,38,-72,-12
-42,-102,-60,72,9,-81,78,36,25,106,-24,7
-39,-99,-60,69,11,-79,75,48,64,150,8,17
-37,-96,-59,67,11,-77,80,57,88,179,28,20
-39,-93,-55,67,8,-74,80,65,113,196,38,25
-35,-90,-55,63,10,-72,84,69,122,202,45,30
-36,-91,-55,64,10,-73,85,74,122,209,50,27
-40,-95,-55,68,8,-75,87,77,126,215,50,24
-40,-95,-55,68,8,-75,90,82,132,215,50,25
-44,-95,-51,69,4,-73,91,85,140,215,50,25
-45,-95,-50,70,3,-72,95,91,143,215,50,25
-45,-95,-50,70,3,-72,95,95,143,215,46,25
-41,-91,-50,66,4,-70,99,95,139,213,40,25
-39,-90,-50,65,5,-70,100,95,137,206,36,25
-41,-90,-49,65,4,-69,100,95,134,199,29,25
-41,-85,-44,64,2,-65,100,95,131,193,24,25
-44,-84,-41,64,-1,-62,100,95,129,186,19,25
-49,-86,-38,68,-5,-62,98,89,125,180,15,25
-57,-90,-33,74,-12,-61,94,84,120,174,16,25
-60,-90,-30,75,-15,-60,95,79,116,169,12,25
-60,-90,-30,75,-15,-60,95,73,111,164,10,25
-60,-90,-30,75,-15,-60,95,67,107,158,10,25
-60,-90,-30,75,-15,-60,95,62,102,152,14,25
-60,-90,-30,75,-15,-60,90,59,100,150,15,25
-60,-90,-30,75,-15,-60,90,57,100,150,15,25
-60,-90,-30,75,-15,-60,90,54,96,150,20,25
-60,-90,-30,75,-15,-60,90,51,94,150,20,25
-60,-90,-30,75,-15,-60,91,49,95,150,20,25
-59,-89,-30,74,-14,-59,87,45,94,150,20,25
-55,-85,-30,70,-12,-57,85,45,95,154,20,25
-55,-85,-30,70,-12,-57,85,44,95,155,20,25
-55,-85,-30,70,-12,-57,85,40,95,155,20,25
-55,-85,-30,70,-12,-57,85,40,95,155,20,25
-55,-85,-30,70,-12,-57,85,42,94,154,24,26
-52,-81,-30,66,-11,-55,85,46,102,158,25,30
-48,-79,-31,63,-8,-54,84,44,104,160,27,30
-47,-75,-28,61,-9,-51,86,45,100,160,30,30
-50,-71,-21,61,-14,-46,83,45,94,160,31,29
-65,-68,-3,67,-31,-35,90,53,104,168,36,35
-59,-39,20,48,-39,-9,117,77,130,186,52,49
-41,-22,19,31,-29,-2,129,86,127,187,63,55
-38,-26,12,32,-24,-7,91,66,119,180,68,64
-32,-24,8,28,-20,-8,55,35,114,176,77,71
-26,-25,1,26,-13,-12,55,23,106,169,73,69
-21,-24,-3,23,-9,-13,55,22,105,164,71,70
-15,-25,-10,20,-2,-17,58,16,100,158,67,70
2,-17,-19,8,10,-18,61,15,99,154,65,71
-21,-41,-20,31,0,-31,59,9,95,148,60,65
-72,-92,-20,82,-26,-55,65,14,92,144,29,38
-75,-95,-20,85,-27,-57,68,22,92,141,15,25
-75,-95,-20,85,-27,-57,72,25,86,134,15,25
-79,-99,-20,89,-30,-59,77,39,93,140,15,24
-78,-99,-20,88,-29,-60,78,35,78,138,15,20
-83,-103,-19,93,-32,-61,78,52,92,142,15,19
-69,-90,-21,80,-24,-55,72,30,82,138,16,24
-75,-93,-19,84,-28,-56,79,42,95,142,16,23
-52,-73,-22,62,-15,-47,71,24,90,139,28,32
-68,-84,-16,76,-26,-50,79,28,80,139,7,25
-95,-51,43,72,-69,-4,68,-7,51,122,15,50
-117,-78,39,97,-78,-20,56,-238,-306,-111,-19,75
-107,-312,-205,209,50,-258,15,-336,-567,-460,-150,36
-39,-268,-229,154,95,-248,-326,-1201,-1437,-974,-326,94
134,-60,-194,-37,164,-126,-714,-2056,-2398,-1369,-296,288
578,-316,-895,-131,737,-605,-828,-1586,-1901,-906,-65,239
444,-635,-1079,96,762,-857,-540,-947,-1094,-46,-119,-82
-11,-431,-420,221,205,-426,-56,-347,-382,222,-198,-145
-47,-200,-153,124,53,-177,143,84,117,139,-147,-69
-83,-161,-78,123,-2,-120,160,112,119,161,-88,-49
-85,-114,-30,100,-27,-72,164,136,171,153,-13,-21
-88,-112,-23,100,-33,-67,163,158,213,161,-10,-25
-94,-100,-6,97,-44,-53,170,171,223,168,-1,-12
-78,-93,-15,85,-31,-54,169,187,238,162,-1,-8
-85,-86,-1,86,-42,-44,171,195,240,168,2,-1
-74,-78,-4,76,-34,-41,169,202,250,162,7,-3
-78,-75,3,76,-40,-35,171,210,249,167,1,-6
-74,-68,7,71,-40,-30,179,223,261,159,-4,-4
-76,-63,12,69,-44,-25,185,235,265,151,-16,-11
-75,-57,18,66,-46,-19,192,245,269,142,-20,-9
-76,-53,23,64,-49,-14,196,258,275,133,-32,-11
-78,-48,29,63,-53,-9,205,271,284,124,-46,-17
-79,-45,34,62,-56,-5,222,295,289,112,-56,-23
-87,-42,45,64,-66,2,234,318,281,94,-74,-27
-93,-37,57,65,-75,10,247,340,272,65,-94,-34
-109,-35,73,72,-91,19,258,350,265,27,-115,-38
-125,-40,86,82,-106,23,263,337,245,-22,-145,-44
-123,-40,84,81,-103,22,259,326,206,-74,-180,-55
-121,-44,77,82,-99,17,246,312,155,-138,-219,-64
-116,-45,71,80,-93,13,239,273,87,-205,-256,-67
-115,-48,67,81,-91,9,222,209,11,-267,-289,-65
-121,-63,58,92,-89,-3,186,136,-71,-310,-301,-65
-108,-71,37,89,-72,-17,143,59,-137,-320,-298,-62
-76,-70,6,73,-41,-31,110,15,-154,-288,-284,-59
-60,-67,-7,64,-26,-37,100,15,-131,-212,-227,-61
-59,-64,-5,62,-27,-34,95,15,-83,-111,-157,-42
-56,-61,-5,59,-26,-32,87,14,-22,-6,-89,-15
-59,-59,0,59,-29,-30,81,16,35,71,-37,8
-56,-55,0,56,-28,-27,74,27,77,120,6,21
-55,-55,0,55,-27,-27,71,39,103,150,37,28
-54,-54,0,54,-27,-27,70,43,121,171,47,30
-49,-49,0,49,-24,-25,70,48,132,183,51,30
-51,-51,0,51,-25,-25,70,51,135,184,50,30
-47,-47,0,47,-23,-23,69,55,138,188,54,30
-44,-44,0,44,-21,-22,72,60,141,190,56,30
-49,-45,4,47,-26,-21,75,63,145,186,54,25
-50,-45,5,47,-27,-20,75,68,153,184,51,25
-50,-45,5,47,-27,-20,75,69,155,185,46,24
-54,-44,10,49,-32,-17,75,65,155,185,44,20
-50,-41,10,46,-30,-15,74,65,155,185,39,20
-47,-36,11,42,-29,-12,70,65,155,184,36,20
-50,-34,16,42,-33,-9,70,65,155,176,32,20
-51,-29,21,40,-36,-4,70,65,148,169,30,20
-51,-26,25,38,-38,0,70,61,141,162,30,20
-52,-22,30,37,-41,4,70,54,134,154,26,20
-55,-20,35,37,-45,7,68,48,126,147,25,20
-55,-20,35,37,-45,7,64,41,119,141,25,20
-52,-17,35,34,-43,9,62,34,113,137,25,20
-49,-14,35,31,-42,10,59,29,107,134,25,20
-51,-16,35,33,-43,10,56,25,102,131,25,20
-54,-20,35,36,-44,7,54,25,99,126,25,20
-56,-20,36,38,-46,8,51,23,94,125,25,17
-61,-21,40,41,-50,9,46,19,90,125,27,15
-65,-25,40,45,-52,7,44,21,90,125,31,15
-65,-25,40,45,-52,7,39,16,90,125,30,15
-63,-23,40,43,-51,9,36,15,90,125,30,15
-59,-19,40,39,-49,10,35,15,90,125,30,15
-61,-20,40,40,-50,10,35,10,89,128,30,20
-60,-20,40,40,-50,10,35,10,93,131,35,20
-60,-20,40,40,-50,10,35,11,95,129,35,20
-60,-20,41,40,-50,10,35,17,95,131,35,20
-52,-14,39,33,-46,12,35,21,98,129,35,19
-47,-5,42,26,-44,18,40,26,101,132,35,23
-37,0,36,18,-37,18,39,30,99,134,37,26
-42,12,54,15,-49,33,45,34,109,140,44,30
-38,44,82,-3,-60,63,66,44,129,163,69,38
-16,63,80,-23,-48,71,62,38,124,162,77,44
-19,60,79,-21,-49,70,16,29,112,154,74,50
-19,57,76,-19,-48,66,-7,1,104,148,76,49
-21,54,75,-17,-48,64,-11,-31,94,141,75,52
-26,49,75,-12,-50,62,-23,-29,97,135,75,55
-21,47,67,-13,-44,57,-22,-31,92,131,68,55
-24,39,63,-8,-44,51,-13,-25,91,144,60,52
-40,17,57,11,-49,37,-8,-26,89,125,53,32
-48,3,51,23,-50,27,0,-25,88,108,45,20
-46,0,46,23,-46,23,5,-19,85,112,40,19
-48,-7,41,28,-44,17,12,-17,82,106,31,15
-51,-11,40,31,-45,14,20,-7,90,108,27,13
-59,-19,40,39,-49,11,19,-12,78,101,19,9
-58,-18,39,38,-48,10,22,7,94,111,26,13
-54,-13,41,33,-47,13,17,-7,69,106,24,19
-56,-17,39,37,-47,11,24,16,84,115,28,25
-45,-4,41,25,-43,18,14,-6,58,112,33,33
-61,-18,42,39,-51,12,10,14,71,118,24,37
-96,25,121,35,-108,73,-18,-61,16,90,64,52
-126,-42,84,84,-105,21,-29,-282,-360,-182,-5,67
-81,-262,-181,172,50,-221,-83,-421,-637,-553,-172,53
-47,-127,-79,87,16,-103,-455,-1401,-1605,-1070,-327,114
224,55,-169,-139,196,-57,-823,-2087,-2403,-1371,-245,299
628,-297,-924,-165,776,-610,-876,-1518,-1779,-811,-62,184
360,-545,-905,93,633,-725,-533,-910,-1000,2,-144,-132
-11,-291,-280,151,135,-285,-76,-288,-291,152,-191,-152
-30,-99,-68,65,19,-83,81,86,136,11,-145,-88
-54,-53,1,53,-27,-26,91,97,125,78,-80,-57
-45,-10,36,27,-40,13,91,123,183,123,-24,-32
-58,-3,55,30,-56,26,94,139,216,132,-24,-37
-61,5,66,27,-64,36,96,159,232,143,-12,-24
-65,5,70,29,-68,37,98,163,243,136,-15,-23
-71,11,83,30,-77,47,101,176,245,137,-8,-15
-64,14,78,25,-71,45,100,183,254,131,-5,-18
-68,17,85,25,-77,51,106,189,254,131,-10,-21
-63,21,84,21,-73,52,104,201,261,127,-17,-19
-65,23,88,21,-77,55,108,209,261,118,-25,-21
-63,27,90,18,-77,58,116,223,265,109,-32,-19
-69,28,98,20,-83,63,123,236,268,101,-39,-22
-73,33,105,20,-89,68,129,255,272,88,-46,-25
-81,34,115,24,-99,74,141,272,270,72,-52,-25
-91,38,129,26,-110,84,163,302,266,54,-61,-30
-95,39,134,28,-115,87,180,329,263,21,-76,-29
-105,42,147,31,-126,94,182,324,260,-18,-99,-34
-91,54,146,18,-119,100,180,312,240,-64,-132,-45
-87,50,138,18,-113,94,176,304,200,-119,-169,-52
-93,42,135,25,-114,88,173,285,149,-183,-204,-61
-90,36,127,27,-109,81,170,242,72,-254,-240,-69
-95,29,123,33,-109,76,150,177,-7,-315,-277,-79
-90,24,114,33,-102,68,111,105,-84,-353,-273,-76
-69,19,88,25,-78,53,66,37,-143,-353,-258,-66
-58,16,74,21,-67,45,30,5,-158,-315,-244,-62
-59,13,72,23,-66,42,9,2,-136,-239,-195,-52
-60,8,68,26,-64,38,4,-7,-82,-134,-123,-31
-60,5,65,27,-63,35,6,-8,-17,-35,-53,-7
-52,8,60,22,-56,34,4,2,36,35,1,12
-48,14,62,17,-56,38,5,12,76,86,37,23
-47,18,66,14,-57,42,4,23,102,119,64,30
-42,23,64,9,-53,43,0,31,113,132,76,32
-38,27,65,5,-52,46,0,37,119,142,83,30
-33,32,65,0,-49,48,0,41,126,149,85,30
-31,35,66,-3,-49,50,0,45,131,150,85,30
-34,35,69,0,-52,52,0,49,137,150,89,30
-35,35,70,0,-53,52,2,54,145,150,91,31
-35,35,70,0,-53,52,5,55,148,150,89,35
-35,35,70,0,-53,52,5,55,145,150,86,35
-31,39,70,-4,-51,54,5,55,145,148,81,37
-32,40,72,-5,-52,56,5,55,143,141,79,41
-37,40,77,-2,-57,58,5,55,139,136,75,40
-35,45,80,-5,-58,62,1,55,141,131,70,40
-43,45,88,-1,-66,66,-4,50,135,125,70,40
-48,46,95,1,-72,70,-6,45,127,121,70,40
-46,50,96,-3,-71,73,-11,40,121,113,70,40
-51,50,100,0,-76,75,-14,36,113,103,70,40
-48,50,97,-1,-73,74,-18,31,106,95,70,40
-44,50,94,-3,-69,72,-20,27,99,85,69,40
-45,50,95,-3,-70,72,-21,25,94,77,65,40
-45,50,95,-3,-70,72,-25,22,91,75,65,40
-45,50,95,-3,-70,72,-25,19,88,75,65,40
-45,50,95,-3,-70,72,-31,16,83,71,65,40
-45,50,95,-3,-70,72,-38,15,80,70,65,40
-45,50,95,-3,-70,72,-40,15,76,70,67,40
-44,51,95,-4,-69,73,-43,15,75,65,70,40
-40,55,95,-8,-68,75,-46,15,75,65,70,40
-40,55,95,-8,-68,75,-49,15,71,65,74,40
-40,55,95,-8,-68,75,-50,14,69,65,75,40
-40,55,95,-8,-68,75,-50,18,71,64,75,40
-40,55,95,-8,-68,75,-50,20,75,67,80,40
-37,59,95,-12,-66,77,-50,21,75,70,83,40
-34,60,94,-14,-64,77,-50,25,75,71,87,40
-31,65,96,-18,-64,81,-50,26,75,76,92,40
-29,64,93,-18,-62,78,-49,31,74,74,95,42
-23,93,115,-35,-69,104,-50,47,82,85,102,53
-24,128,152,-52,-88,140,-50,67,87,95,111,60
-17,135,152,-59,-85,143,-50,79,82,96,119,61
2,145,143,-74,-71,144,-89,55,82,105,121,65
2,140,138,-71,-68,139,-126,10,70,85,120,65
6,135,129,-71,-62,131,-129,4,47,67,120,65
7,130,123,-69,-59,126,-126,6,40,65,120,65
8,123,115,-66,-54,119,-122,6,39,57,120,65
12,119,107,-66,-48,113,-118,13,41,54,118,63
-16,85,101,-35,-59,93,-116,7,38,46,109,56
-33,60,92,-13,-63,76,-111,17,42,43,103,49
-27,59,86,-16,-57,72,-109,18,35,38,95,43
-26,53,79,-13,-53,65,-103,27,35,35,86,35
-22,53,75,-16,-49,63,-102,32,36,33,83,31
-31,44,75,-7,-53,59,-95,33,31,25,82,29
-27,48,75,-11,-52,61,-95,40,42,28,89,31
-26,49,75,-12,-50,61,-103,26,23,25,81,29
-23,53,76,-15,-50,64,-97,48,45,37,90,31
-17,56,73,-20,-45,64,-113,17,10,22,80,30
-31,62,93,-16,-62,77,-97,45,36,33,92,32
-59,112,172,-27,-116,142,-145,-117,-169,-81,105,70
-76,-53,23,65,-50,-15,-167,-270,-518,-412,-23,54
-34,-204,-170,119,68,-187,-293,-591,-935,-847,-200,36
28,22,-6,-25,17,8,-701,-1617,-1996,-1348,-290,195
401,0,-402,-201,402,-201,-946,-1769,-2249,-1324,-83,321
604,-401,-1004,-101,805,-703,-866,-1112,-1476,-556,7,66
182,-426,-608,122,395,-517,-464,-609,-780,116,-131,-162
-16,-145,-129,81,57,-137,-146,-46,-129,81,-109,-105
3,-18,-20,8,11,-19,-103,146,102,-69,-64,-60
-25,32,56,-4,-41,44,-68,133,81,13,15,-26
-14,54,68,-20,-41,61,-71,165,132,45,54,-18
-36,61,96,-13,-66,79,-63,172,148,63,46,-18
-21,73,93,-26,-57,83,-57,191,162,60,54,-7
-20,76,96,-28,-58,86,-54,195,167,59,47,-5
-19,81,101,-31,-60,91,-46,207,172,62,52,0
-16,82,99,-33,-58,90,-45,215,174,58,48,-6
-20,86,106,-34,-63,96,-39,221,176,57,45,-7
-15,89,104,-38,-59,96,-38,227,181,45,37,-11
-19,90,109,-36,-64,99,-31,236,184,40,30,-13
-18,94,112,-38,-66,103,-30,242,190,30,25,-15
-21,95,116,-37,-69,105,-22,257,194,24,16,-18
-25,97,122,-36,-74,109,-13,278,188,13,1,-21
-26,104,129,-39,-78,116,-1,298,183,-7,-11,-24
-41,100,142,-30,-92,121,13,317,178,-26,-27,-27
-61,100,161,-20,-111,130,28,323,171,-57,-49,-31
-71,99,170,-14,-120,134,43,318,169,-101,-81,-44
-70,95,165,-12,-118,130,41,317,147,-154,-115,-49
-65,96,161,-15,-114,128,30,308,98,-216,-151,-58
-63,93,156,-15,-110,124,23,270,36,-282,-193,-77
-64,88,152,-12,-108,120,16,219,-36,-348,-230,-78
-59,85,143,-13,-102,114,-8,152,-112,-397,-258,-73
-41,82,123,-21,-82,102,-46,81,-184,-424,-251,-70
-19,77,96,-29,-58,86,-80,29,-232,-416,-244,-66
2,75,73,-38,-36,74,-107,-16,-230,-364,-222,-62
11,80,69,-45,-29,74,-119,-31,-184,-266,-160,-60
9,80,70,-44,-31,75,-120,-19,-121,-156,-86,-44
12,81,69,-46,-29,75,-120,-4,-58,-77,-26,-23
15,85,70,-50,-28,77,-120,10,-9,-19,15,-16
15,85,70,-50,-28,77,-120,24,25,24,54,-9
15,85,70,-50,-28,77,-119,35,46,54,72,-3
15,85,70,-50,-28,77,-115,38,60,72,75,5
15,85,70,-50,-28,77,-113,43,70,77,75,9
15,85,70,-50,-28,77,-110,46,75,85,77,5
15,85,69,-50,-27,76,-107,50,83,90,81,5
13,85,73,-49,-30,79,-105,58,89,90,80,5
14,89,75,-52,-30,82,-102,60,95,90,77,5
15,90,75,-53,-30,82,-97,60,95,90,72,6
11,90,78,-51,-33,84,-94,63,96,91,69,2
9,90,81,-50,-36,86,-91,65,100,88,66,0
10,89,79,-50,-34,84,-86,64,100,77,61,0
11,93,82,-52,-36,87,-86,60,98,69,59,-4
2,95,93,-49,-46,94,-90,52,91,60,54,-5
-1,95,96,-47,-49,95,-90,46,86,51,49,-5
4,99,94,-52,-45,96,-90,39,81,44,45,-10
5,100,95,-53,-45,97,-90,33,75,38,40,-10
5,100,95,-53,-45,97,-90,28,70,31,35,-10
5,100,95,-53,-45,97,-86,22,65,25,31,-10
5,100,95,-53,-45,97,-84,17,62,17,30,-10
5,100,95,-53,-45,97,-85,14,58,17,30,-13
5,100,95,-53,-45,97,-85,9,54,20,30,-15
6,101,95,-54,-45,97,-85,4,50,20,30,-15
2,97,95,-50,-47,96,-85,1,50,24,31,-15
0,95,95,-48,-48,95,-85,0,50,25,35,-15
0,95,95,-48,-48,95,-85,0,50,25,35,-16
0,95,95,-48,-48,95,-85,0,50,25,37,-19
0,95,95,-48,-48,95,-85,1,50,25,41,-20
0,95,95,-48,-48,95,-85,-3,50,25,39,-20
5,100,95,-53,-45,97,-81,-5,50,25,44,-20
5,99,94,-53,-45,96,-80,-5,49,24,45,-20
6,102,96,-55,-45,98,-80,-5,51,28,45,-18
10,104,94,-58,-42,99,-75,-5,49,30,45,-14
10,106,96,-58,-44,101,-75,-5,51,30,45,-12
10,103,94,-57,-42,98,-74,2,49,30,46,-9
13,112,98,-63,-43,105,-69,12,55,38,50,-6
26,156,130,-92,-52,143,-70,24,86,64,71,-4
37,172,135,-105,-49,153,-61,26,90,72,82,0
47,173,126,-110,-40,149,-75,9,77,64,79,0
57,180,123,-119,-34,151,-115,-20,69,59,81,1
56,172,116,-114,-30,143,-115,-41,57,51,80,5
55,167,112,-111,-29,139,-106,-39,56,44,80,5
52,159,106,-106,-27,132,-102,-41,51,37,76,3
55,154,99,-105,-22,126,-93,-40,49,32,69,-8
39,132,93,-86,-27,112,-89,-40,46,29,64,-16
4,89,85,-47,-41,87,-82,-41,43,24,55,-25
0,79,79,-40,-40,79,-76,-33,43,23,50,-35
2,76,74,-39,-36,74,-70,-39,36,15,41,-39
3,72,69,-37,-33,70,-61,-29,45,17,35,-41
-1,70,72,-34,-37,71,-58,-36,34,17,27,-45
-6,61,67,-28,-37,63,-46,-24,46,22,24,-44
-8,76,84,-34,-46,79,-49,-34,34,20,27,-36
-18,77,95,-30,-56,85,-41,-20,43,24,22,-35
-11,86,97,-38,-54,91,-45,-27,41,30,29,-25
-19,71,90,-26,-55,80,-37,-27,34,10,20,-28
-16,112,128,-49,-73,120,-41,-43,13,2,32,-14
-51,95,146,-22,-99,121,-84,-281,-342,-208,-15,-12
-37,-143,-106,90,34,-124,-101,-372,-593,-555,-139,-54
0,-97,-96,49,48,-96,-405,-1159,-1403,-1055,-306,12
162,135,-27,-148,94,54,-806,-2071,-2403,-1472,-291,218
626,-122,-747,-252,687,-434,-933,-1652,-1979,-1063,-48,190
527,-470,-996,-29,762,-733,-668,-1010,-1159,-189,-84,-127
79,-285,-364,104,222,-324,-178,-428,-459,134,-182,-212
27,-41,-69,7,48,-55,7,29,71,-45,-142,-144
10,11,0,-11,5,5,21,59,108,-41,-85,-119
-5,61,67,-28,-37,64,49,80,129,32,-12,-91
-10,73,83,-31,-47,77,56,108,169,42,-12,-96
-14,85,99,-36,-57,92,65,124,187,56,-11,-85
-7,85,92,-39,-50,89,62,133,203,46,-14,-82
-18,85,103,-33,-61,93,69,140,203,53,-19,-76
-10,91,101,-41,-55,95,70,149,209,49,-18,-78
-17,89,106,-36,-62,97,75,152,209,50,-24,-81
-16,92,108,-38,-62,100,78,167,214,42,-25,-79
-16,94,110,-39,-63,102,83,173,216,36,-31,-85
-20,98,118,-39,-69,108,89,188,225,29,-36,-84
-25,100,126,-38,-75,113,97,203,233,23,-42,-87
-30,103,133,-37,-82,118,111,217,239,12,-57,-90
-30,108,139,-39,-85,123,120,238,244,-3,-68,-93
-37,109,146,-36,-92,127,141,261,236,-24,-81,-95
-47,105,152,-29,-100,128,161,289,230,-52,-102,-100
-59,105,164,-23,-112,134,169,297,224,-83,-124,-103
-75,105,180,-15,-128,142,174,286,207,-133,-157,-118
-86,105,191,-10,-139,148,166,282,171,-191,-192,-131
-86,105,191,-10,-139,148,159,271,120,-255,-229,-134
-80,102,182,-11,-131,141,154,229,53,-324,-269,-138
-76,97,173,-11,-125,135,136,165,-26,-390,-307,-132
-56,94,150,-19,-103,122,103,89,-109,-432,-313,-129
-39,91,130,-26,-84,110,65,13,-175,-436,-306,-126
-39,85,125,-23,-82,105,33,-46,-191,-414,-290,-121
-31,86,117,-28,-74,101,7,-60,-169,-339,-244,-119
-21,90,111,-35,-66,100,-1,-47,-124,-232,-180,-103
-13,90,104,-39,-59,97,1,-38,-62,-135,-113,-87
-5,94,100,-45,-53,97,-3,-28,-10,-56,-55,-74
-5,95,100,-45,-53,97,-5,-21,31,-9,-15,-60
-2,98,100,-48,-51,99,-5,-14,58,26,-2,-54
1,101,100,-51,-50,100,-2,-7,71,44,7,-56
-1,99,100,-49,-50,100,0,-1,83,47,18,-52
1,100,100,-50,-50,100,0,5,88,52,27,-50
-1,99,100,-49,-50,100,0,9,91,55,31,-50
1,101,100,-51,-49,100,-1,13,98,59,30,-50
5,105,100,-55,-48,102,2,16,103,60,30,-50
4,104,100,-54,-48,102,5,20,108,60,30,-50
8,107,99,-58,-46,103,7,25,109,60,30,-50
9,111,101,-60,-46,106,10,23,105,60,28,-50
5,109,105,-58,-50,107,13,19,105,59,21,-50
6,114,107,-60,-51,110,16,20,103,53,17,-50
5,115,110,-60,-53,112,11,16,99,46,11,-50
1,115,114,-59,-56,114,10,15,101,39,5,-50
-1,120,121,-60,-61,120,10,15,96,33,0,-50
-6,120,125,-57,-66,122,10,9,89,24,-5,-50
-3,121,124,-60,-64,122,10,2,83,12,-5,-54
-5,125,130,-60,-68,127,9,-4,76,1,-6,-55
-14,125,139,-55,-77,132,4,-11,69,-11,-10,-55
-15,125,140,-55,-78,132,1,-17,64,-15,-10,-55
-15,125,140,-55,-78,132,-2,-23,59,-15,-13,-55
-15,125,140,-55,-78,132,-7,-25,56,-15,-15,-55
-15,125,140,-55,-78,132,-10,-25,53,-15,-15,-55
-14,125,139,-56,-77,132,-14,-29,48,-15,-15,-55
-10,125,134,-58,-73,130,-15,-30,45,-11,-15,-55
-10,125,136,-58,-73,130,-15,-30,41,-10,-15,-55
-8,124,132,-59,-71,128,-15,-30,40,-10,-15,-55
-3,126,130,-61,-67,127,-15,-30,40,-5,-15,-51
0,130,130,-65,-65,130,-15,-30,35,-5,-15,-49
0,129,130,-65,-65,130,-15,-30,35,-5,-15,-50
0,131,130,-65,-65,130,-15,-30,35,-5,-15,-50
0,129,129,-64,-65,129,-15,-28,35,-5,-13,-50
0,131,131,-66,-65,131,-15,-23,35,-5,-8,-49
0,129,129,-64,-65,129,-15,-20,34,-5,-5,-43
1,131,130,-66,-65,131,-11,-17,36,-5,-2,-37
7,129,122,-68,-58,125,-4,-12,34,0,3,-32
1,133,132,-68,-65,132,1,-9,42,10,5,-26
6,175,169,-91,-82,171,27,-3,69,20,11,-21
16,185,169,-101,-77,177,27,9,80,29,18,-16
34,195,161,-115,-64,178,-16,9,70,36,24,-15
52,211,159,-132,-53,185,-52,-30,59,34,31,-15
49,199,150,-124,-51,175,-73,-63,51,27,38,-11
45,192,147,-119,-52,169,-70,-64,45,24,38,-10
45,185,140,-116,-48,162,-61,-66,37,18,29,-11
41,173,132,-107,-46,152,-53,-61,31,15,23,-19
20,146,126,-83,-53,136,-46,-60,25,10,16,-26
7,125,118,-67,-56,122,-39,-61,20,3,9,-33
9,119,110,-64,-51,114,-32,-52,21,0,6,-41
4,109,106,-57,-51,107,-26,-52,11,-9,-1,-48
-5,99,104,-48,-55,102,-18,-39,18,-10,-2,-54
-8,98,106,-45,-57,101,-14,-44,4,-21,-10,-55
-5,99,104,-47,-55,101,-5,-25,14,-17,-8,-56
-3,102,106,-50,-54,103,-8,-37,-1,-22,-4,-54
-8,97,104,-45,-56,100,0,-25,7,-19,-7,-57
-4,104,109,-50,-56,106,-4,-32,1,-19,-1,-51
-17,95,112,-39,-65,103,4,-32,-8,-25,-11,-51
-35,132,168,-49,-102,150,-26,-56,-18,-14,3,-39
-76,103,179,-14,-128,140,-61,-300,-376,-239,-43,-39
-47,-127,-81,87,17,-104,-70,-394,-643,-595,-163,-59
-11,-76,-65,44,27,-71,-384,-1206,-1461,-1088,-330,22
166,155,-12,-161,89,71,-791,-2127,-2456,-1500,-317,221
637,-112,-749,-263,693,-430,-923,-1698,-2033,-1099,-102,183
515,-448,-963,-33,739,-705,-646,-1045,-1215,-225,-144,-143
68,-260,-329,96,199,-294,-155,-435,-508,58,-227,-226
22,-30,-52,4,37,-41,54,23,11,-130,-186,-151
5,25,20,-15,-8,22,69,45,49,-82,-109,-119
-6,70,76,-32,-41,72,75,78,79,-8,-33,-82
-9,79,87,-35,-48,83,72,105,119,10,-30,-87
-23,87,110,-32,-67,98,85,122,133,32,-22,-77
-23,84,107,-31,-65,95,99,135,153,20,-25,-73
-24,89,112,-32,-68,100,100,137,155,29,-20,-67
-20,91,111,-36,-65,101,101,152,163,22,-19,-66
-27,89,116,-32,-72,102,105,161,162,27,-24,-72
-19,95,115,-39,-67,105,105,170,171,22,-28,-68
-24,95,118,-35,-71,106,104,176,185,16,-37,-71
-28,95,123,-34,-76,109,107,189,185,10,-42,-69
-31,95,126,-32,-79,111,122,202,188,2,-49,-71
-36,94,130,-29,-83,112,128,223,193,-3,-59,-74
-36,98,134,-31,-85,116,133,244,186,-22,-72,-76
-43,102,145,-30,-94,124,149,264,180,-41,-92,-74
-56,100,156,-22,-106,127,174,294,173,-62,-108,-79
-62,100,162,-19,-112,131,184,305,166,-97,-125,-93
-60,97,156,-19,-108,126,177,296,161,-146,-156,-101
-57,94,152,-19,-105,123,173,289,131,-202,-192,-108
-52,95,147,-22,-100,121,165,276,72,-266,-227,-113
-55,87,143,-16,-99,115,163,240,7,-331,-262,-109
-60,78,138,-9,-99,108,146,180,-66,-391,-296,-111
-58,70,128,-6,-93,99,113,100,-145,-441,-314,-106
-47,60,107,-7,-77,83,75,21,-215,-455,-312,-105
-26,52,78,-13,-53,65,49,-38,-238,-423,-286,-105
-19,50,68,-16,-43,59,40,-57,-218,-347,-243,-98
-16,50,66,-17,-41,58,32,-47,-170,-244,-177,-84
-12,50,62,-19,-37,56,23,-38,-104,-134,-95,-55
-8,50,58,-21,-33,54,14,-28,-49,-52,-39,-38
-5,50,55,-23,-30,52,10,-17,-8,-5,-2,-33
-6,45,51,-20,-29,48,10,-8,22,30,28,-25
-5,45,50,-20,-28,47,10,3,40,53,40,-19
-5,45,50,-20,-28,47,10,12,49,61,40,-13
0,45,45,-22,-23,45,10,19,56,64,41,-7
0,46,45,-24,-23,45,13,23,60,68,45,-5
-1,42,44,-21,-23,43,18,29,64,78,45,-5
0,40,40,-20,-20,40,21,35,71,86,43,-5
0,40,40,-20,-20,40,24,40,78,85,40,-5
0,40,40,-20,-20,40,29,46,84,85,40,-5
0,40,40,-20,-20,40,30,48,82,85,36,-5
1,40,40,-21,-20,40,30,43,79,85,35,-5
1,44,43,-23,-22,44,30,40,76,81,35,-5
0,45,45,-23,-23,45,30,37,73,70,30,-5
0,45,45,-23,-23,45,30,32,71,62,27,-5
0,45,45,-23,-23,45,30,29,69,53,24,-5
1,45,45,-23,-23,45,27,25,63,44,20,-5
-3,43,45,-21,-24,44,24,20,56,39,16,-5
-6,39,45,-17,-25,42,21,15,49,36,15,-5
-5,40,45,-18,-25,42,18,11,42,33,15,-5
-9,36,45,-14,-27,40,15,6,36,28,15,-5
-10,35,45,-13,-28,40,14,2,35,25,15,-5
-10,35,45,-13,-28,40,10,0,35,25,15,-5
-11,30,41,-10,-26,36,10,-3,35,25,15,-5
-10,30,40,-10,-25,35,10,-6,35,25,20,-5
-10,30,40,-10,-25,35,10,-10,35,25,20,-5
-10,30,40,-10,-25,35,10,-10,35,24,21,-5
-10,31,41,-10,-25,36,6,-5,35,31,26,-5
-11,27,38,-8,-25,33,5,-5,35,36,24,-5
-11,25,36,-8,-24,30,5,-5,35,34,28,-5
-7,25,32,-9,-20,28,5,-5,35,35,30,-5
-5,25,30,-10,-18,27,5,-5,35,35,30,-5
-2,24,26,-12,-14,25,6,-8,38,35,34,0
1,26,25,-14,-13,25,10,-10,41,38,35,0
-4,25,28,-10,-17,26,10,-13,40,41,35,1
-5,25,30,-10,-18,27,12,-16,40,44,40,6
-5,25,30,-10,-18,27,16,-5,41,47,43,4
-4,26,30,-11,-17,28,14,6,49,51,47,8
6,64,58,-35,-26,60,25,19,70,71,61,17
13,86,73,-49,-31,79,35,16,75,86,73,25
24,89,65,-57,-21,77,12,4,63,83,80,34
35,100,64,-68,-15,82,-32,-10,57,79,86,40
31,90,59,-60,-14,74,-52,-36,47,75,90,39
28,85,56,-57,-14,71,-45,-41,45,72,85,42
24,76,51,-50,-14,63,-42,-39,46,68,77,45
33,70,37,-51,-2,53,-37,-41,40,64,71,45
34,57,23,-45,5,40,-32,-38,41,60,64,43
-9,6,15,1,-12,11,-29,-43,37,51,54,32
-28,-16,11,22,-19,-2,-23,-35,38,47,52,24
-24,-15,9,19,-16,-2,-20,-37,32,38,55,15
-25,-21,4,23,-15,-8,-13,-26,37,33,55,5
-21,-20,0,21,-10,-10,-12,-31,27,31,56,1
-30,-28,2,29,-15,-13,-4,-20,30,36,53,-1
-29,-20,9,24,-18,-5,-9,-20,33,36,58,0
-37,-22,14,29,-26,-4,-12,-29,22,35,54,-7
-34,-14,20,24,-26,2,-13,-16,44,47,72,-3
-41,-16,25,28,-33,4,-23,-41,7,29,64,-3
-31,5,36,12,-33,20,-12,-6,37,51,84,27
-34,36,69,-1,-52,52,-55,-219,-241,-102,85,38
-57,-170,-114,113,29,-141,-50,-327,-549,-438,-43,-15
-17,-244,-227,131,106,-235,-256,-848,-1090,-878,-214,25
78,4,-75,-41,76,-35,-692,-1960,-2230,-1372,-282,211
515,-111,-626,-201,570,-368,-899,-1870,-2227,-1245,-83,275
619,-518,-1137,-50,878,-827,-751,-1168,-1382,-415,-46,-21
146,-469,-616,162,381,-542,-284,-607,-688,111,-162,-195
5,-196,-201,96,104,-198,9,-49,-52,-35,-122,-116
17,-104,-120,44,69,-112,52,77,106,-72,-53,-78
-6,-60,-54,33,24,-56,86,81,98,40,34,-38
2,-44,-47,21,25,-45,76,116,150,56,51,-35
-11,-36,-25,24,7,-30,82,132,163,80,48,-28
-3,-31,-28,17,13,-29,80,143,178,65,52,-19
-11,-27,-16,19,2,-21,79,144,178,72,47,-16
-8,-19,-11,13,2,-15,83,164,190,69,52,-9
-11,-16,-5,14,-2,-11,85,170,189,69,47,-17
-10,-9,1,10,-5,-4,85,180,198,71,44,-14
-13,-11,2,11,-8,-4,89,185,205,62,35,-16
-16,-8,8,12,-12,0,90,193,207,53,29,-15
-15,-5,10,10,-12,2,91,212,219,42,22,-15
-20,-5,15,12,-17,5,104,230,220,32,16,-19
-24,-7,17,15,-20,5,106,247,220,16,9,-19
-35,-11,25,23,-30,7,117,265,217,4,-5,-23
-40,-10,30,24,-35,10,136,289,215,-19,-14,-25
-49,-10,39,29,-44,14,150,311,216,-51,-29,-27
-61,-10,51,35,-56,21,152,312,200,-88,-62,-31
-56,-10,47,33,-51,18,145,304,171,-139,-89,-36
-58,-17,41,37,-50,12,139,286,127,-200,-122,-50
-63,-25,38,43,-50,6,134,252,61,-273,-168,-59
-66,-33,32,49,-49,-1,127,204,-16,-340,-204,-60
-68,-40,28,54,-48,-6,97,133,-94,-389,-210,-55
-53,-50,3,51,-28,-23,58,57,-163,-411,-200,-50
-28,-57,-28,43,0,-42,22,-10,-200,-397,-196,-46
0,-53,-53,27,27,-53,4,-36,-197,-333,-180,-42
19,-51,-69,16,44,-60,0,-24,-156,-228,-119,-36
22,-47,-69,13,46,-58,-9,-16,-87,-121,-41,-18
19,-45,-64,13,42,-55,-15,-4,-23,-31,27,9
20,-43,-62,12,41,-52,-23,9,20,29,81,31
17,-40,-57,11,37,-48,-22,24,54,70,108,40
15,-40,-55,13,35,-47,-20,34,76,100,132,45
19,-40,-60,10,40,-50,-20,40,88,109,142,45
20,-40,-60,10,40,-50,-15,50,96,116,139,49
21,-40,-62,10,42,-51,-15,55,102,122,144,50
25,-45,-70,10,48,-57,-14,60,109,130,145,52
30,-45,-75,8,53,-60,-10,69,116,136,145,56
29,-46,-75,9,52,-61,-10,76,121,135,140,55
25,-50,-75,13,50,-62,-10,82,125,135,140,59
25,-50,-75,13,50,-62,-10,90,121,135,139,60
28,-48,-75,10,52,-61,-10,93,120,136,134,60
28,-45,-73,8,51,-58,-14,90,120,134,136,60
24,-45,-70,10,48,-57,-15,90,115,123,132,60
22,-45,-67,12,45,-56,-15,87,115,112,130,60
19,-45,-64,13,42,-55,-15,85,114,100,130,60
15,-45,-60,15,38,-52,-15,85,109,91,126,60
16,-45,-60,15,38,-52,-15,82,104,85,125,62
19,-45,-64,14,42,-55,-14,79,99,80,125,65
22,-45,-67,12,45,-56,-22,76,95,75,125,65
24,-45,-70,10,47,-57,-31,73,90,68,125,65
28,-44,-72,9,51,-58,-34,70,87,66,125,65
29,-48,-76,10,53,-62,-39,70,84,70,125,65
30,-50,-81,10,55,-65,-41,70,81,70,124,65
35,-50,-84,8,60,-67,-44,70,78,70,127,65
31,-54,-85,12,59,-69,-47,70,75,70,130,65
30,-55,-85,13,58,-70,-50,70,76,70,129,65
30,-55,-85,13,58,-70,-50,70,80,74,134,65
30,-55,-85,13,58,-70,-50,70,80,75,135,67
28,-55,-83,14,56,-69,-50,70,80,75,135,70
25,-55,-79,15,52,-67,-50,70,80,80,140,70
25,-55,-80,15,53,-67,-50,70,80,80,140,70
21,-55,-76,17,49,-66,-50,70,83,81,143,70
22,-52,-75,16,49,-63,-51,71,86,86,145,70
25,-50,-75,13,50,-62,-49,76,89,89,146,75
24,-46,-70,11,47,-58,-51,73,92,95,153,75
25,-45,-71,10,49,-57,-48,79,96,94,154,77
47,-21,-68,-13,58,-44,-44,98,113,114,166,88
78,13,-65,-45,71,-26,-34,94,118,137,178,90
85,21,-65,-52,75,-22,-36,81,109,129,185,97
90,28,-63,-59,76,-18,-89,71,103,123,199,113
93,34,-59,-64,76,-12,-120,64,94,116,197,112
83,24,-60,-54,71,-18,-114,66,88,109,191,106
92,2,-90,-47,91,-44,-106,65,81,104,186,101
93,-15,-108,-38,101,-61,-94,65,79,99,179,94
72,-31,-103,-20,88,-67,-86,65,81,97,176,91
50,-58,-108,4,80,-83,-79,65,73,91,168,83
36,-74,-110,19,73,-91,-72,73,77,90,161,76
32,-78,-110,23,71,-94,-67,67,73,83,154,69
23,-86,-110,31,67,-98,-57,73,83,90,146,60
27,-83,-110,28,69,-96,-56,68,78,90,139,55
22,-88,-110,33,66,-99,-47,71,81,89,134,46
21,-88,-110,33,65,-99,-47,68,90,92,136,46
19,-92,-111,36,65,-101,-42,59,76,85,134,44
19,-89,-108,35,64,-98,-37,73,102,97,136,46
24,-90,-114,33,69,-102,-39,44,70,71,135,45
16,-65,-80,25,48,-72,-25,79,103,94,133,54
1,-22,-23,11,13,-22,-82,-118,-151,-31,111,98
-35,-227,-191,131,78,-209,-77,-242,-474,-371,19,85
22,-344,-366,162,194,-355,-250,-662,-953,-810,-159,70
145,-89,-234,-28,190,-161,-676,-1709,-2065,-1315,-229,241
502,-157,-659,-172,580,-408,-889,-1714,-2149,-1204,-9,344
623,-582,-1205,-20,915,-893,-763,-1054,-1326,-379,79,66
195,-560,-754,183,475,-657,-331,-536,-644,205,-41,-143
34,-271,-305,119,170,-288,-22,6,-3,154,-58,-82
45,-168,-213,62,129,-190,21,160,161,64,-1,-37
19,-117,-135,49,77,-126,47,157,146,109,78,2
28,-99,-127,36,78,-113,56,181,204,121,98,20
7,-96,-103,45,55,-99,64,193,219,139,100,22
20,-89,-109,35,65,-99,81,208,240,133,101,21
14,-88,-101,37,58,-94,87,210,240,136,91,18
18,-80,-98,31,58,-89,84,222,248,135,92,21
18,-78,-96,31,57,-87,86,227,250,135,83,19
16,-74,-90,29,54,-82,84,232,254,135,82,21
16,-72,-89,28,53,-80,87,239,258,125,75,16
14,-69,-83,28,49,-75,91,252,266,119,65,14
15,-66,-81,25,49,-73,100,266,271,109,57,11
12,-64,-76,27,44,-70,117,279,276,104,47,8
13,-60,-73,24,43,-67,129,295,288,92,39,5
6,-55,-61,24,34,-57,148,317,284,75,24,3
-5,-50,-46,28,20,-48,165,341,276,60,3,-4
-10,-47,-36,29,13,-41,179,355,271,26,-17,-12
-7,-40,-33,24,13,-37,178,349,259,-13,-42,-20
-11,-42,-31,27,10,-36,171,335,230,-65,-75,-28
-18,-45,-28,32,6,-36,166,327,189,-127,-114,-34
-23,-48,-26,36,2,-37,159,300,133,-190,-155,-46
-27,-51,-23,39,-2,-37,156,249,53,-263,-194,-53
-20,-56,-36,39,8,-46,134,182,-31,-311,-218,-57
-12,-72,-61,42,25,-67,98,110,-101,-329,-213,-64
15,-76,-91,31,53,-83,61,48,-141,-313,-201,-56
39,-75,-114,18,77,-94,43,20,-136,-255,-177,-44
41,-74,-115,17,79,-95,38,19,-92,-159,-115,-29
45,-69,-115,12,80,-91,30,22,-25,-51,-43,-3
41,-71,-112,15,76,-91,25,31,36,33,15,22
42,-67,-109,13,76,-88,17,48,80,99,64,36
46,-64,-111,9,79,-87,17,61,110,136,94,42
44,-65,-110,11,77,-87,20,71,134,161,107,46
49,-61,-110,6,80,-86,21,83,151,175,110,45
50,-60,-110,5,80,-85,25,87,158,178,110,45
50,-60,-110,5,80,-85,26,89,164,196,114,45
51,-60,-110,5,81,-85,29,93,170,201,115,45
47,-60,-107,7,77,-84,32,99,173,199,114,44
45,-60,-105,8,75,-82,34,105,175,201,111,40
45,-60,-105,8,75,-82,38,105,175,199,106,40
45,-60,-105,8,75,-82,40,105,175,200,104,40
47,-58,-105,6,77,-81,40,105,175,193,99,40
50,-54,-105,3,78,-80,40,105,175,186,96,40
48,-52,-100,2,74,-76,40,102,175,179,93,36
43,-49,-92,3,67,-70,39,94,168,171,86,35
41,-46,-86,3,64,-66,36,88,161,164,79,35
34,-44,-78,5,57,-61,35,80,154,157,73,30
32,-41,-73,4,53,-57,35,72,146,151,66,30
27,-40,-67,6,47,-53,35,65,139,146,60,29
22,-40,-62,10,42,-51,35,61,132,141,60,25
41,-40,-81,0,61,-60,33,58,129,134,60,25
47,-40,-87,-3,67,-63,29,55,127,131,60,25
40,-40,-80,0,60,-60,30,52,124,134,60,25
40,-40,-80,0,60,-60,30,50,121,135,60,25
35,-40,-75,3,55,-57,30,48,119,135,60,25
35,-40,-75,3,55,-57,30,45,116,135,60,25
30,-40,-70,5,50,-55,25,42,115,134,60,25
30,-40,-70,5,50,-55,25,39,115,137,60,25
35,-35,-70,0,53,-52,25,36,115,141,60,25
35,-35,-70,0,53,-52,25,34,115,139,60,24
35,-35,-70,0,53,-52,25,35,115,141,65,20
33,-35,-68,1,51,-51,27,35,115,139,65,20
28,-36,-63,4,46,-49,31,35,115,141,65,20
28,-32,-60,2,44,-46,29,35,115,144,65,20
31,-27,-57,-1,44,-42,34,34,115,146,65,20
31,-20,-51,-5,41,-35,35,38,115,150,67,23
35,-16,-51,-9,44,-33,34,42,121,151,77,28
34,7,-27,-21,31,-9,54,61,147,171,91,31
40,37,-3,-38,21,16,75,70,165,179,100,37
50,43,-7,-46,28,17,47,60,155,188,105,45
60,48,-12,-54,36,18,-9,50,146,196,105,50
60,44,-15,-51,37,14,-34,20,137,164,107,50
55,35,-20,-45,37,7,-32,5,133,151,110,50
84,31,-53,-57,68,-11,-24,6,130,147,111,50
87,19,-69,-52,78,-25,-15,4,125,138,106,51
56,-6,-63,-25,60,-34,-7,7,123,134,94,43
34,-33,-66,0,50,-49,2,2,116,124,82,22
23,-42,-64,10,43,-52,13,11,118,123,73,13
22,-43,-65,11,44,-54,22,7,109,118,65,10
15,-50,-65,18,40,-57,31,17,113,121,54,3
16,-49,-65,17,40,-57,30,12,104,119,53,2
10,-55,-65,23,38,-60,37,21,105,119,54,-7
7,-57,-64,25,36,-61,32,22,108,121,57,1
1,-65,-66,33,34,-65,26,7,97,108,52,1
10,-53,-62,22,36,-58,22,15,118,118,58,9
14,-44,-58,15,36,-51,13,-24,85,92,52,12
-17,-41,-23,29,3,-32,15,18,130,121,58,13
-35,-7,28,21,-31,10,-3,-168,-148,-3,40,47
-49,-185,-136,118,44,-161,7,-280,-461,-335,-70,2
20,-278,-298,129,160,-288,-212,-771,-981,-766,-228,14
144,-19,-163,-63,154,-90,-645,-1881,-2154,-1283,-300,206
522,-99,-621,-211,572,-360,-874,-1841,-2179,-1171,-96,286
655,-524,-1180,-65,918,-852,-733,-1151,-1329,-331,-36,5
190,-496,-686,153,438,-591,-263,-585,-634,207,-153,-194
8,-211,-219,101,114,-215,60,-16,21,77,-138,-126
19,-122,-141,52,80,-131,94,123,158,28,-90,-89
-7,-76,-69,42,31,-72,101,119,152,147,-8,-55
12,-58,-70,23,41,-64,114,152,220,154,20,-50
-7,-52,-45,30,19,-49,122,164,232,170,19,-48
6,-38,-43,16,25,-40,122,179,256,163,23,-40
0,-33,-33,17,17,-33,126,193,254,162,15,-39
1,-26,-27,13,14,-26,129,200,264,160,17,-34
-3,-25,-22,15,10,-23,130,201,264,155,14,-42
-7,-20,-12,14,2,-16,130,214,270,156,11,-39
-7,-17,-10,12,2,-13,129,218,278,147,1,-40
-12,-13,-1,13,-5,-7,143,229,283,139,-4,-40
-13,-9,4,11,-8,-3,153,246,290,130,-12,-39
-17,-6,11,11,-13,2,154,259,293,121,-20,-45
-20,-2,18,11,-19,8,168,278,293,105,-25,-54
-22,1,23,10,-23,12,183,299,286,89,-44,-62
-26,5,31,10,-29,18,196,324,280,67,-66,-64
-36,8,44,14,-40,26,212,341,273,31,-87,-68
-45,13,58,15,-52,35,209,334,266,-12,-113,-81
-49,14,63,17,-56,38,200,321,238,-62,-149,-87
-50,6,56,22,-54,31,195,312,188,-124,-186,-94
-53,-2,51,27,-52,24,185,284,125,-189,-222,-98
-55,-10,45,32,-49,17,181,229,54,-257,-258,-94
-58,-18,40,38,-49,11,165,158,-23,-307,-275,-96
-49,-25,24,37,-36,-1,122,84,-102,-334,-268,-95
-30,-27,3,29,-16,-12,81,25,-137,-325,-257,-95
-20,-24,-4,22,-8,-13,54,-14,-128,-263,-231,-95
-13,-21,-9,17,-2,-15,48,-19,-95,-171,-173,-79
-4,-18,-14,11,5,-16,45,-6,-30,-65,-101,-57
5,-16,-20,6,13,-18,41,5,29,27,-41,-39
11,-13,-24,2,18,-19,37,20,75,92,0,-28
10,-10,-21,0,16,-15,35,34,112,130,34,-24
10,-10,-20,0,15,-15,40,44,127,156,54,-18
10,-10,-20,0,15,-15,40,47,134,169,57,-13
10,-10,-20,0,15,-15,41,51,142,173,62,-7
10,-10,-20,0,15,-15,46,55,150,178,65,-7
6,-13,-20,3,14,-16,44,59,153,180,65,-11
5,-15,-20,5,13,-17,48,63,158,180,68,-10
5,-15,-20,5,13,-17,50,68,164,180,70,-10
5,-15,-20,5,13,-17,50,69,165,180,70,-10
5,-15,-20,5,13,-17,53,65,165,180,66,-10
6,-14,-20,4,13,-16,55,65,165,180,60,-15
5,-10,-16,3,10,-13,54,65,165,175,55,-15
4,-7,-11,2,8,-9,51,65,166,167,49,-15
4,-5,-9,1,7,-6,50,65,162,161,44,-15
3,-1,-4,0,4,-3,50,61,154,153,38,-15
1,0,-1,-1,1,0,50,54,148,146,35,-17
-3,0,3,1,-3,1,51,48,140,139,33,-20
-5,0,5,2,-5,2,47,41,132,134,30,-20
-5,0,5,2,-5,2,45,34,126,129,27,-20
-8,0,9,4,-9,4,45,29,120,124,24,-20
-11,0,10,6,-11,5,45,25,115,120,29,-21
-8,1,10,4,-9,5,45,26,111,115,30,-25
-5,5,10,0,-8,7,45,22,106,115,30,-25
-5,5,10,0,-8,7,45,20,102,115,30,-25
-5,5,10,0,-8,7,45,20,97,115,30,-25
-5,5,10,0,-8,7,45,16,95,115,30,-25
-5,5,10,0,-8,7,45,15,95,114,30,-23
-5,5,10,0,-8,7,45,15,92,116,30,-19
-5,5,10,0,-8,7,45,15,89,120,30,-20
-5,5,10,0,-8,7,45,14,91,120,30,-20
-5,5,11,0,-8,8,45,17,94,120,30,-20
-5,4,9,0,-8,6,45,20,95,120,30,-20
-5,7,12,-1,-8,9,45,20,95,120,30,-15
-3,10,13,-4,-8,11,45,22,95,120,30,-11
-1,17,18,-9,-10,18,50,26,95,120,30,-9
-1,17,18,-8,-9,17,53,25,97,120,31,-4
5,33,28,-19,-11,30,60,29,110,140,45,-1
13,75,62,-44,-25,68,83,53,125,164,66,2
20,85,65,-53,-22,75,83,51,119,164,71,8
35,91,56,-63,-11,73,36,34,110,172,70,11
40,94,54,-67,-7,74,-1,11,102,173,70,16
37,83,46,-60,-5,64,-4,-26,95,163,70,20
35,77,42,-56,-4,59,-11,-30,97,158,70,14
31,67,36,-49,-3,51,-14,-30,93,150,64,9
30,62,32,-46,-1,47,10,-30,90,145,58,4
6,35,29,-21,-12,32,30,-30,90,138,54,-2
-23,2,25,10,-24,14,30,-31,87,130,47,-8
-21,0,22,11,-21,11,31,-25,86,125,43,-12
-23,-3,19,13,-21,8,47,-23,82,114,36,-17
-27,-6,21,17,-23,7,57,-10,86,111,36,-19
-28,-9,19,18,-23,5,58,-16,73,100,34,-24
-32,-11,21,22,-27,5,59,6,88,100,32,-28
-22,-3,19,12,-20,8,49,-11,72,90,29,-30
-21,-1,21,11,-21,10,53,0,86,90,30,-25
-11,9,20,1,-16,14,42,-29,77,84,37,-12
-3,15,19,-6,-11,17,44,-24,71,75,31,-12
-37,48,84,-6,-61,66,37,-56,11,63,50,9
-78,-12,66,45,-72,27,24,-276,-345,-158,0,-17
-41,-223,-181,132,70,-202,-26,-400,-618,-519,-136,-43
27,-135,-162,54,95,-148,-378,-1336,-1530,-1032,-297,68
250,70,-180,-160,215,-54,-763,-2128,-2406,-1378,-249,246
660,-248,-908,-206,784,-577,-837,-1587,-1863,-893,-61,161
466,-535,-1000,35,734,-768,-527,-961,-1068,-58,-128,-158
39,-301,-340,131,190,-320,-61,-358,-372,158,-204,-204
18,-86,-104,34,61,-95,126,59,112,6,-147,-120
-4,-27,-24,16,10,-25,150,82,135,55,-54,-86
-7,15,21,-4,-14,18,151,106,161,107,9,-47
-4,30,34,-13,-19,31,149,128,192,113,16,-49
-6,42,48,-18,-27,45,157,145,205,118,36,-40
-3,39,41,-18,-22,40,153,154,216,112,34,-41
-10,44,54,-17,-32,49,159,163,219,118,32,-36
-2,45,47,-21,-25,46,160,170,226,113,30,-34
-10,47,57,-19,-33,51,163,180,227,117,25,-39
-3,51,54,-25,-29,52,166,185,232,110,26,-40
-10,49,59,-20,-34,54,169,195,237,100,17,-45
-12,54,66,-21,-40,60,173,210,244,92,8,-46
-17,55,72,-19,-45,63,182,215,247,82,-1,-51
-24,55,79,-16,-52,67,192,240,251,74,-10,-54
-24,60,84,-18,-54,72,204,259,258,58,-19,-59
-28,68,96,-20,-62,81,221,279,255,34,-36,-63
-37,73,110,-18,-74,91,234,306,242,7,-50,-66
-53,71,124,-9,-89,98,237,307,232,-29,-72,-75
-68,68,136,0,-102,102,235,298,217,-74,-101,-83
-71,66,136,2,-104,101,231,288,180,-131,-135,-89
-67,62,129,2,-98,95,227,262,120,-203,-177,-95
-62,60,123,1,-92,91,225,220,45,-273,-220,-108
-58,58,116,0,-87,87,207,160,-30,-339,-257,-116
-55,53,109,1,-82,81,171,82,-109,-378,-276,-110
-32,50,82,-9,-57,66,126,15,-171,-380,-281,-106
-13,47,60,-17,-37,53,97,-36,-191,-353,-249,-102
-16,42,58,-13,-37,49,82,-56,-171,-282,-194,-96
-14,40,54,-14,-34,46,67,-45,-114,-175,-122,-78
-6,45,51,-20,-29,48,65,-35,-48,-68,-40,-51
7,53,46,-31,-19,49,62,-25,8,9,8,-29
14,60,46,-37,-16,53,59,-15,51,62,42,-21
9,60,50,-35,-20,55,56,-5,82,98,70,-17
11,61,50,-36,-19,55,55,5,95,116,88,-10
15,65,50,-40,-18,57,60,10,102,119,97,-5
15,64,50,-40,-18,57,60,18,109,125,94,0
17,67,50,-42,-17,59,59,24,111,133,95,5
24,70,46,-48,-11,58,61,31,118,130,95,5
25,70,44,-48,-10,56,59,47,120,130,95,5
25,70,45,-48,-10,57,64,51,120,130,90,5
25,70,45,-48,-10,57,75,49,120,130,90,5
25,70,45,-48,-10,57,75,50,120,131,89,5
29,74,46,-52,-9,60,74,50,120,125,85,5
22,75,53,-49,-16,64,71,49,119,115,86,5
16,75,59,-46,-22,66,70,45,114,107,83,5
15,75,61,-45,-24,68,69,43,111,98,78,5
10,74,64,-43,-27,69,64,40,108,89,75,5
11,78,67,-45,-28,72,61,37,103,83,72,10
10,80,70,-45,-30,75,57,35,100,76,67,10
11,81,70,-46,-30,76,54,32,96,69,65,11
15,85,70,-50,-28,77,50,29,89,62,70,15
15,85,70,-50,-28,77,47,26,82,56,70,14
15,85,70,-50,-28,77,44,23,76,55,70,17
15,85,70,-50,-28,77,41,20,69,55,70,21
19,85,66,-52,-24,75,38,20,63,55,70,20
20,85,65,-53,-23,75,35,20,60,55,72,20
20,85,65,-53,-23,75,34,20,57,55,75,20
25,85,60,-55,-18,72,29,20,55,56,78,21
25,85,60,-55,-18,72,23,20,51,60,81,24
25,85,60,-55,-18,72,20,20,50,60,84,25
25,85,59,-55,-18,72,15,24,53,62,85,24
25,85,61,-55,-19,73,10,25,56,66,85,26
26,85,59,-55,-17,71,13,27,54,64,85,24
29,91,62,-60,-16,76,19,30,56,69,84,27
31,88,57,-59,-13,73,21,31,55,70,88,32
31,101,70,-66,-20,86,29,40,67,72,97,35
47,147,99,-97,-26,123,41,56,88,91,111,46
68,164,96,-117,-14,130,37,54,90,99,121,50
79,169,89,-124,-5,129,11,38,95,95,129,60
90,175,85,-132,2,130,-28,26,77,96,131,71
89,168,78,-129,5,123,-42,19,48,94,126,70
86,160,75,-123,5,117,-37,17,45,90,124,69
90,156,66,-123,12,110,-36,12,35,90,120,65
83,142,59,-113,12,101,-32,9,29,88,115,65
55,107,52,-81,1,79,-30,4,20,81,113,63
43,87,44,-65,-1,65,-28,9,15,73,107,55
48,85,37,-67,5,61,-22,17,25,69,103,50
40,78,38,-59,1,57,-18,17,25,59,98,42
33,73,41,-53,-4,57,-12,30,35,57,94,36
27,67,39,-47,-6,53,-11,26,25,48,90,31
21,66,45,-44,-12,56,-2,41,43,53,90,34
28,72,44,-50,-8,58,-14,21,26,47,91,36
23,68,45,-46,-11,56,-11,31,32,44,88,33
34,79,46,-57,-7,63,-22,16,16,50,93,38
27,70,43,-48,-9,56,-22,16,11,27,88,31
-2,107,109,-53,-56,108,-26,-6,-9,5,95,59
-38,56,94,-9,-66,74,-76,-229,-383,-226,36,87
-16,-176,-160,96,72,-167,-102,-348,-677,-614,-105,45
56,-99,-155,22,105,-127,-396,-1117,-1469,-1115,-269,111
264,90,-173,-177,218,-41,-771,-1845,-2307,-1415,-196,313
632,-216,-847,-208,740,-531,-837,-1379,-1840,-931,45,234
442,-480,-922,19,682,-701,-563,-824,-1074,-81,-36,-80
63,-251,-314,94,189,-282,-129,-287,-392,211,-128,-128
54,-42,-95,-6,75,-68,46,105,70,-6,-72,-55
31,22,-8,-26,20,7,53,108,84,3,-14,-24
32,63,31,-48,0,47,58,145,111,82,54,4
27,72,45,-50,-9,58,50,167,144,72,57,-1
22,92,70,-57,-24,80,53,181,161,91,62,10
28,89,60,-59,-16,74,46,191,169,81,60,13
23,91,69,-58,-23,80,60,196,170,88,59,19
33,95,62,-65,-15,79,71,206,177,84,62,17
28,94,66,-62,-20,80,70,209,184,86,56,13
31,98,67,-65,-18,82,70,221,192,81,50,12
28,100,72,-64,-22,86,71,229,192,70,40,7
28,103,76,-66,-24,89,87,241,197,63,33,6
26,106,80,-66,-28,93,93,254,199,53,26,3
21,109,88,-65,-33,98,96,265,204,42,14,-2
20,112,92,-66,-36,102,113,281,203,31,0,-10
20,114,94,-68,-38,104,125,302,196,13,-14,-15
9,118,108,-64,-50,113,141,317,192,-17,-31,-23
-2,124,126,-61,-64,125,150,312,186,-50,-58,-29
-17,120,137,-52,-77,128,139,305,165,-100,-86,-34
-27,112,139,-43,-83,125,136,301,124,-155,-116,-41
-26,106,132,-41,-79,119,126,279,71,-222,-155,-49
-27,99,126,-36,-77,112,122,240,2,-288,-199,-61
-29,93,122,-32,-76,108,115,185,-67,-346,-232,-66
-22,87,108,-33,-65,97,93,114,-144,-383,-246,-65
2,85,83,-44,-41,84,63,50,-207,-380,-245,-62
14,85,72,-50,-29,78,28,-1,-219,-350,-223,-60
15,81,67,-48,-26,74,27,-21,-193,-274,-173,-58
21,80,58,-51,-19,69,5,-10,-137,-160,-97,-36
27,80,53,-54,-13,67,23,-3,-78,-64,-26,-11
40,85,45,-63,-3,65,-7,7,-18,2,28,-4
44,93,49,-68,-3,70,15,19,17,52,63,12
51,103,52,-77,-1,77,-17,35,56,92,82,-51
58,115,57,-87,0,86,-140,33,55,113,94,-134
