I,II,III,aVR,aVL,aVF,V1,V2,V3,V4,V5,V6
84,-180,-264,48,174,-222,-66,-220,-135,-125,-122,-9
41,-180,-221,69,131,-201,-20,-216,-133,-126,-117,-4
74,-180,-254,53,164,-217,-44,-210,-127,-131,-138,3
85,-180,-265,48,175,-222,-82,-210,-125,-119,-138,8
68,-180,-248,56,158,-214,-65,-210,-117,-113,-130,5
47,-180,-227,67,137,-203,-44,-210,-117,-127,-128,-3
49,-185,-234,68,142,-210,-77,-210,-132,-118,-121,-8
49,-184,-233,68,142,-208,-85,-210,-137,-119,-119,-17
65,-187,-252,61,159,-219,-73,-212,-133,-108,-114,-22
92,-189,-281,49,186,-234,-61,-217,-138,-111,-126,-22
76,-192,-268,58,172,-230,-73,-229,-157,-131,-156,-37
107,-184,-292,38,200,-238,-101,-230,-162,-124,-161,-39
97,-173,-270,38,184,-221,-90,-225,-158,-157,-159,-33
60,-192,-252,66,156,-221,-107,-224,-161,-168,-161,-31
70,-194,-264,63,167,-228,-86,-218,-158,-155,-159,-26
62,-183,-246,61,154,-214,-68,-224,-162,-159,-161,-24
66,-185,-252,60,159,-218,-96,-231,-170,-148,-167,-36
61,-174,-235,57,148,-204,-90,-230,-174,-151,-174,-55
62,-179,-241,58,152,-209,-115,-230,-183,-171,-171,-55
30,-206,-236,88,133,-220,-126,-225,-186,-168,-170,-54
40,-207,-247,84,144,-227,-107,-225,-184,-160,-170,-55
42,-198,-240,78,141,-219,-96,-224,-185,-170,-165,-55
49,-196,-245,74,147,-220,-114,-220,-185,-172,-165,-53
89,-187,-276,49,183,-231,-129,-218,-184,-166,-164,-49
72,-186,-258,57,166,-222,-125,-214,-179,-166,-159,-47
71,-197,-268,64,170,-233,-132,-212,-180,-171,-156,-44
65,-198,-263,67,165,-231,-129,-209,-177,-175,-152,-40
75,-190,-265,58,170,-227,-114,-211,-174,-180,-149,-41
76,-189,-265,57,171,-226,-93,-208,-175,-176,-144,-50
74,-181,-256,54,165,-218,-89,-213,-178,-170,-153,-51
77,-179,-256,52,166,-217,-91,-224,-193,-165,-169,-46
56,-198,-254,71,155,-225,-80,-226,-195,-160,-170,-45
58,-198,-257,70,158,-227,-67,-223,-189,-153,-170,-39
67,-194,-260,63,164,-226,-64,-222,-188,-150,-170,-42
65,-191,-256,63,160,-223,-59,-219,-181,-162,-170,-53
69,-186,-255,59,162,-221,-66,-222,-182,-162,-170,-49
70,-183,-254,57,163,-219,-61,-239,-178,-152,-160,-41
84,-155,-239,35,162,-197,-61,-230,-158,-145,-152,-35
89,-123,-212,17,151,-167,-59,-209,-138,-120,-131,-21
85,-102,-187,9,136,-144,-31,-205,-129,-98,-107,-12
79,-91,-170,6,125,-130,-69,-190,-109,-92,-111,4
78,-82,-160,2,119,-120,-91,-193,-100,-97,-118,18
100,-97,-197,-1,149,-147,-82,-210,-127,-102,-116,5
81,-148,-229,34,156,-188,-78,-218,-155,-121,-124,-19
49,-166,-214,59,132,-190,-59,-213,-163,-141,-140,-31
29,-184,-212,78,121,-198,-48,-216,-182,-144,-158,-44
3,-204,-206,101,105,-205,-31,-215,-192,-161,-174,-56
-2,-201,-199,102,99,-200,-32,-212,-186,-162,-164,-54
-12,-210,-198,112,93,-204,-26,-214,-206,-184,-180,-71
-17,-203,-186,110,85,-194,-35,-200,-181,-151,-157,-56
-14,-225,-211,120,99,-218,-24,-213,-212,-192,-184,-75
-18,-204,-186,111,85,-195,-37,-186,-176,-148,-157,-56
-28,-226,-198,127,86,-212,-15,-220,-207,-186,-188,-72
-6,-245,-239,126,117,-242,31,19,-55,-130,-205,-122
177,-70,-247,-53,212,-158,-129,250,276,261,86,95
603,717,113,-660,245,415,-730,-341,571,1214,1109,1040
677,1508,831,-1093,-77,1169,-1256,-959,930,2368,2267,2035
17,728,712,-372,-348,720,-711,-1125,19,973,1085,1069
-309,-105,204,206,-256,50,-153,-827,-648,-492,-306,-118
-104,-70,34,87,-69,-17,-164,-335,-220,-131,-143,-57
-22,-180,-158,101,68,-169,-63,-164,-211,-207,-208,-96
2,-200,-202,99,103,-201,-53,-90,-159,-176,-192,-85
13,-210,-223,99,118,-217,-51,-64,-148,-170,-192,-79
36,-214,-250,89,144,-232,-46,-33,-151,-198,-214,-95
41,-198,-239,79,141,-219,-55,-9,-113,-156,-184,-70
36,-209,-245,86,141,-227,-47,-16,-122,-178,-216,-84
44,-191,-235,74,139,-213,-85,-1,-81,-131,-181,-59
39,-199,-238,81,139,-218,-89,-6,-81,-150,-170,-66
45,-187,-232,71,139,-209,-98,11,-47,-115,-135,-51
47,-182,-230,68,139,-206,-103,42,-38,-95,-137,-49
60,-163,-223,52,142,-193,-105,90,-6,-54,-116,-42
86,-134,-220,24,153,-177,-120,156,26,-15,-81,-28
108,-106,-214,-1,161,-160,-127,217,52,9,-52,-2
131,-80,-211,-25,171,-145,-155,277,109,38,-23,31
148,-55,-203,-46,176,-129,-163,331,158,87,13,64
178,-14,-192,-82,185,-103,-154,385,203,148,63,103
211,33,-178,-122,194,-73,-191,434,247,195,109,149
210,73,-138,-141,174,-32,-207,455,287,263,167,195
240,121,-119,-180,179,1,-206,440,306,306,205,235
254,139,-114,-196,184,12,-217,387,299,315,228,269
227,131,-97,-179,162,17,-204,340,290,306,240,272
199,111,-88,-155,143,12,-188,270,237,258,196,238
143,66,-77,-104,110,-6,-187,169,162,199,146,189
93,19,-74,-56,84,-27,-160,87,95,123,86,130
74,-41,-115,-16,95,-78,-118,11,23,50,14,66
57,-91,-148,17,103,-119,-87,-37,-27,-7,-41,21
35,-119,-154,42,95,-137,-60,-84,-70,-76,-105,-22
23,-144,-167,61,95,-155,-60,-124,-96,-112,-134,-52
15,-150,-165,68,90,-157,-60,-140,-100,-118,-135,-49
3,-150,-153,74,78,-151,-56,-141,-103,-120,-134,-50
5,-150,-155,73,80,-152,-51,-130,-104,-120,-137,-50
16,-149,-165,67,90,-157,-46,-124,-104,-120,-146,-50
2,-151,-153,75,77,-151,-44,-115,-98,-120,-141,-49
7,-148,-155,71,81,-151,-34,-111,-97,-120,-126,-44
14,-146,-160,66,88,-152,-42,-106,-91,-120,-115,-46
14,-142,-156,64,85,-148,-49,-105,-90,-117,-125,-42
16,-140,-156,63,86,-147,-77,-98,-105,-111,-124,-40
11,-136,-147,63,79,-141,-92,-97,-112,-108,-121,-39
25,-134,-159,55,92,-146,-92,-92,-109,-102,-118,-47
6,-140,-146,67,76,-142,-106,-86,-111,-98,-115,-65
21,-136,-158,58,90,-147,-97,-111,-110,-123,-116,-65
29,-146,-175,59,103,-161,-105,-125,-109,-139,-110,-60
10,-155,-165,73,88,-159,-105,-143,-135,-129,-134,-60
44,-142,-185,50,115,-163,-115,-146,-148,-129,-147,-54
45,-139,-184,47,115,-161,-106,-131,-150,-154,-134,-58
48,-130,-178,41,113,-154,-72,-135,-166,-167,-136,-75
58,-125,-182,34,120,-153,-97,-136,-164,-155,-128,-75
14,-153,-167,69,91,-159,-118,-140,-161,-154,-124,-70
-5,-158,-153,82,74,-155,-105,-142,-158,-150,-143,-69
19,-149,-168,65,94,-159,-100,-149,-155,-141,-151,-65
7,-155,-162,74,85,-159,-91,-144,-154,-166,-143,-64
11,-155,-166,72,89,-160,-82,-143,-150,-164,-143,-60
23,-155,-179,66,101,-167,-127,-163,-150,-157,-137,-58
-26,-155,-128,91,52,-141,-140,-163,-150,-167,-134,-53
-25,-155,-131,90,54,-143,-117,-157,-150,-162,-145,-63
14,-152,-167,70,91,-159,-124,-154,-150,-169,-148,-85
0,-146,-146,74,73,-145,-113,-148,-153,-166,-140,-83
8,-141,-149,67,79,-145,-127,-146,-156,-169,-137,-78
7,-136,-143,64,75,-139,-129,-149,-153,-167,-129,-77
-3,-130,-127,66,62,-128,-96,-153,-151,-176,-124,-69
10,-125,-135,58,73,-130,-101,-155,-147,-176,-145,-75
-11,-137,-126,74,57,-131,-134,-160,-144,-148,-155,-90
-13,-141,-128,77,58,-134,-122,-157,-164,-176,-143,-90
-18,-139,-121,79,51,-130,-98,-149,-169,-190,-143,-91
-18,-137,-119,78,51,-128,-105,-140,-159,-180,-133,-89
-4,-134,-130,69,63,-131,-104,-136,-156,-188,-132,-92
-10,-137,-127,74,59,-132,-115,-128,-149,-169,-136,-84
11,-106,-117,48,64,-111,-115,-100,-140,-138,-106,-51
22,-79,-101,28,62,-90,-98,-80,-113,-118,-92,-33
12,-65,-77,26,45,-71,-73,-78,-94,-129,-94,-28
37,-24,-62,-6,50,-43,-113,-65,-75,-109,-56,-22
50,-10,-60,-20,55,-34,-140,-77,-73,-81,-41,-1
28,-39,-67,6,48,-53,-111,-112,-105,-111,-91,-30
19,-82,-101,31,60,-91,-104,-122,-132,-125,-117,-72
12,-99,-112,44,62,-105,-69,-128,-139,-151,-132,-69
-23,-139,-116,82,47,-127,-61,-136,-151,-187,-154,-84
-38,-160,-122,99,42,-141,-54,-125,-165,-191,-153,-89
-24,-150,-126,88,51,-138,-36,-124,-167,-190,-169,-100
-31,-161,-130,96,50,-145,-47,-120,-179,-207,-183,-112
-36,-148,-113,93,39,-130,-36,-112,-151,-184,-150,-90
-48,-182,-134,115,44,-158,-5,-126,-185,-226,-183,-112
-24,-141,-117,83,47,-129,-15,-96,-139,-170,-134,-68
-10,-158,-148,84,69,-153,17,-103,-180,-217,-180,-111
-1,-196,-195,99,97,-195,61,169,5,-123,-187,-161
200,31,-169,-115,184,-69,-112,375,388,343,178,135
572,944,372,-758,100,657,-757,-243,788,1553,1395,1192
501,1612,1111,-1057,-306,1361,-1156,-887,1062,2576,2394,1990
-109,667,776,-279,-443,721,-539,-1004,-66,770,885,788
-284,-25,259,154,-271,116,-91,-670,-639,-545,-324,-203
-99,9,108,45,-103,58,-100,-226,-171,-100,-95,-46
-26,-122,-96,74,36,-109,-4,-61,-202,-241,-202,-121
-5,-126,-120,66,57,-122,17,15,-139,-207,-147,-107
-26,-175,-149,101,62,-162,36,43,-135,-225,-181,-123
-2,-149,-147,76,72,-147,31,70,-100,-219,-163,-121
16,-146,-162,65,89,-153,21,85,-61,-168,-134,-95
27,-157,-184,65,106,-170,38,78,-79,-196,-176,-107
25,-133,-157,54,91,-144,21,92,-51,-167,-137,-82
60,-123,-183,31,122,-153,13,89,-53,-144,-145,-91
74,-104,-178,15,126,-141,44,112,-10,-103,-114,-71
73,-115,-188,22,130,-151,38,139,8,-119,-113,-64
87,-96,-183,5,135,-139,23,190,43,-68,-83,-47
112,-69,-181,-21,147,-125,19,251,75,-52,-52,-38
134,-29,-163,-52,149,-96,-24,282,107,-4,-33,-24
157,-2,-159,-77,158,-80,-73,347,161,83,9,17
184,19,-165,-101,174,-73,-88,410,209,114,54,58
160,55,-105,-108,133,-25,-104,461,264,173,100,95
194,99,-94,-146,144,2,-107,489,306,225,147,138
212,145,-67,-178,139,39,-94,481,332,280,201,186
226,180,-46,-203,136,67,-116,474,344,323,247,231
227,210,-16,-218,121,97,-154,445,337,322,274,260
208,213,5,-210,101,109,-158,394,311,312,274,251
195,185,-10,-190,102,87,-129,307,244,252,215,209
105,140,35,-123,35,88,-102,207,164,172,135,146
74,77,3,-75,35,40,-80,135,92,97,71,83
67,16,-51,-42,59,-17,-53,70,33,24,7,34
16,-34,-49,9,33,-41,-1,13,-10,-25,-45,-10
-2,-62,-60,32,29,-60,6,-27,-55,-78,-88,-51
-6,-73,-67,40,31,-70,-20,-57,-80,-105,-109,-71
-23,-80,-57,51,17,-68,1,-75,-94,-121,-118,-74
-21,-70,-48,46,14,-59,36,-72,-100,-136,-128,-80
13,-65,-77,26,45,-71,54,-63,-91,-121,-120,-80
33,-57,-91,12,62,-74,43,-55,-90,-119,-119,-81
17,-50,-67,17,43,-59,29,-48,-83,-110,-116,-85
6,-64,-70,29,38,-67,22,-37,-80,-104,-114,-85
-3,-72,-69,37,33,-70,-1,-22,-92,-123,-111,-83
2,-69,-71,34,36,-70,13,-25,-96,-130,-110,-78
-2,-71,-69,36,33,-70,56,-25,-94,-121,-109,-75
-17,-70,-52,44,17,-61,58,-25,-96,-120,-105,-72
3,-70,-73,34,38,-71,63,-44,-94,-113,-105,-67
14,-75,-89,31,52,-82,65,-52,-97,-109,-107,-65
5,-74,-79,35,42,-76,49,-49,-98,-125,-112,-65
1,-79,-80,39,41,-79,78,-48,-106,-131,-115,-68
7,-85,-93,39,51,-89,92,-44,-123,-148,-125,-86
9,-85,-94,38,52,-89,90,-46,-132,-157,-127,-91
21,-85,-106,32,64,-95,104,-56,-133,-154,-120,-90
31,-85,-116,27,74,-101,97,-65,-130,-155,-123,-90
20,-85,-105,33,63,-95,103,-79,-141,-157,-141,-92
22,-83,-105,31,63,-94,109,-86,-147,-174,-146,-105
20,-79,-99,29,60,-89,107,-94,-144,-175,-141,-103
18,-74,-92,28,56,-83,104,-89,-142,-169,-140,-99
20,-88,-108,34,65,-98,106,-72,-139,-170,-135,-96
13,-102,-115,45,64,-108,104,-70,-141,-163,-134,-91
10,-99,-109,44,60,-104,105,-70,-145,-166,-146,-88
6,-100,-107,47,56,-103,105,-70,-145,-182,-151,-85
3,-100,-103,49,53,-101,70,-70,-140,-184,-146,-82
-1,-100,-99,50,49,-99,97,-69,-139,-177,-145,-80
2,-100,-103,49,53,-101,128,-73,-134,-177,-140,-76
23,-100,-122,39,72,-110,145,-75,-137,-169,-140,-74
27,-100,-128,37,77,-114,190,-80,-147,-172,-150,-87
29,-99,-129,35,79,-114,181,-82,-144,-188,-151,-90
31,-100,-131,35,81,-116,183,-88,-136,-182,-144,-84
24,-99,-123,38,73,-111,175,-97,-134,-174,-142,-83
20,-93,-113,37,66,-103,134,-87,-125,-167,-136,-77
44,-80,-123,18,84,-101,126,-74,-124,-160,-133,-75
59,-50,-109,-4,84,-79,133,-62,-107,-150,-124,-68
10,-27,-37,9,24,-32,143,-48,-83,-137,-101,-57
45,11,-34,-28,40,-12,110,-35,-70,-118,-90,-48
114,50,-64,-82,89,-7,77,-25,-61,-84,-88,-44
92,30,-62,-61,77,-16,64,-21,-89,-109,-99,-46
68,-17,-86,-25,77,-51,81,-8,-103,-147,-105,-44
65,-49,-114,-8,90,-82,106,-35,-137,-162,-125,-61
44,-72,-117,14,81,-94,98,-66,-156,-173,-146,-74
24,-103,-127,40,75,-115,120,-68,-163,-184,-155,-74
24,-106,-130,41,78,-118,104,-84,-172,-157,-145,-70
6,-121,-128,58,67,-124,115,-103,-187,-203,-175,-88
19,-120,-140,51,80,-130,118,-79,-170,-200,-176,-84
8,-130,-138,61,73,-134,113,-72,-174,-190,-167,-100
10,-132,-142,61,76,-137,100,-61,-177,-225,-185,-121
15,-124,-139,55,77,-131,66,-58,-148,-159,-141,-84
-12,-164,-151,88,70,-157,147,54,-132,-213,-215,-149
76,-86,-162,5,119,-124,112,381,224,66,-77,-78
396,424,28,-410,184,226,-305,138,512,756,609,537
682,1471,789,-1077,-54,1130,-1046,-591,1010,2237,2058,1762
268,1334,1066,-801,-399,1200,-954,-998,642,1971,1911,1643
-265,211,476,27,-371,343,-173,-884,-582,-226,34,145
-197,4,201,97,-199,102,-8,-384,-393,-350,-241,-177
-49,-30,19,39,-34,-5,26,-84,-137,-128,-111,-79
-22,-122,-100,72,39,-111,123,-16,-189,-290,-242,-147
4,-96,-100,46,52,-97,146,33,-91,-169,-146,-87
13,-123,-136,55,74,-129,158,53,-129,-229,-200,-129
22,-100,-122,40,72,-111,112,70,-63,-150,-161,-95
19,-116,-135,49,77,-126,130,78,-78,-183,-190,-106
20,-107,-127,43,74,-117,108,102,-42,-147,-154,-88
24,-104,-127,40,76,-115,88,114,-29,-142,-153,-79
31,-93,-124,32,78,-109,108,139,-1,-126,-149,-66
44,-78,-122,17,83,-99,93,167,29,-100,-130,-51
57,-55,-113,-1,85,-84,85,187,40,-91,-115,-48
100,-33,-133,-34,117,-82,78,223,84,-75,-60,-34
109,-26,-134,-41,122,-80,38,272,113,-45,-47,-20
100,-7,-107,-46,103,-57,25,336,167,33,-6,21
137,25,-112,-81,124,-43,53,403,216,76,31,52
150,65,-85,-107,117,-10,44,466,265,147,72,87
184,124,-60,-154,122,32,-8,514,308,199,134,138
241,169,-72,-205,157,48,-36,539,340,250,191,184
247,213,-34,-230,140,89,-50,534,347,298,246,223
235,254,19,-245,108,136,-80,517,326,298,273,255
178,246,68,-212,55,157,-92,475,307,313,288,258
154,232,78,-193,38,155,-84,382,265,267,262,241
157,193,36,-175,60,114,-61,283,202,202,190,211
88,131,42,-110,23,86,-9,198,129,135,125,152
64,70,6,-67,29,38,12,128,56,29,54,75
51,21,-29,-36,40,-4,25,83,9,-19,1,8
20,-2,-22,-9,21,-12,60,52,-23,-86,-55,-37
45,-36,-81,-4,63,-58,70,24,-62,-137,-95,-62
4,-68,-72,32,38,-70,71,-14,-90,-139,-98,-68
-23,-70,-47,47,12,-58,102,-32,-98,-164,-119,-79
-5,-68,-63,37,30,-66,136,-33,-104,-160,-117,-78
-34,-80,-46,57,7,-63,134,-40,-104,-162,-111,-70
-16,-75,-58,46,21,-66,99,-37,-96,-173,-109,-69
-21,-64,-43,43,11,-53,115,-31,-95,-137,-103,-61
-32,-66,-34,49,2,-50,149,-26,-88,-132,-100,-61
-20,-65,-45,42,13,-55,133,-20,-86,-149,-95,-65
-7,-65,-58,36,26,-61,123,-15,-90,-143,-110,-65
-17,-67,-50,43,16,-58,112,-11,-90,-152,-117,-65
-35,-71,-36,53,1,-53,103,-10,-90,-152,-110,-65
16,-70,-86,27,51,-78,97,-10,-89,-150,-110,-65
4,-74,-78,35,41,-75,100,-10,-100,-147,-106,-65
-42,-76,-34,59,-3,-55,97,-10,-112,-144,-102,-65
-10,-73,-63,42,27,-68,89,-13,-109,-142,-121,-66
23,-84,-107,31,65,-95,81,-22,-110,-137,-130,-63
8,-90,-98,42,53,-93,85,-33,-122,-165,-138,-75
15,-81,-96,33,56,-89,80,-28,-126,-177,-145,-80
25,-79,-104,27,65,-91,41,-43,-124,-168,-136,-71
21,-73,-94,27,58,-84,83,-78,-125,-167,-134,-69
22,-69,-91,23,57,-80,118,-95,-125,-164,-128,-63
5,-85,-90,40,47,-87,105,-101,-125,-165,-125,-60
-2,-90,-88,47,43,-89,108,-100,-125,-165,-125,-55
0,-84,-84,42,43,-84,95,-100,-125,-164,-125,-55
3,-82,-85,40,44,-83,95,-100,-124,-168,-125,-54
8,-77,-85,35,47,-81,89,-100,-129,-170,-125,-50
7,-75,-83,34,46,-79,83,-105,-136,-170,-125,-50
-1,-79,-78,40,39,-79,70,-105,-135,-170,-125,-52
-9,-84,-75,47,33,-79,43,-105,-135,-171,-136,-63
-1,-83,-81,42,40,-82,66,-105,-135,-174,-141,-70
4,-79,-83,38,43,-81,83,-104,-134,-175,-139,-70
-5,-80,-76,43,36,-78,72,-108,-137,-175,-137,-70
-10,-80,-70,45,30,-75,73,-110,-142,-175,-134,-70
-14,-80,-66,48,26,-72,66,-111,-147,-175,-135,-70
-15,-80,-65,48,25,-72,65,-115,-149,-173,-146,-68
-15,-80,-65,48,25,-72,84,-115,-145,-169,-144,-63
-15,-80,-65,48,25,-72,92,-110,-145,-167,-131,-57
-16,-80,-64,48,24,-71,88,-111,-145,-163,-130,-54
-7,-80,-73,44,33,-76,91,-109,-144,-161,-130,-48
2,-80,-82,39,42,-81,89,-114,-146,-159,-130,-46
2,-78,-79,38,41,-78,91,-131,-142,-156,-130,-55
9,-68,-77,30,43,-72,97,-129,-133,-153,-131,-50
8,-60,-68,26,38,-64,102,-118,-124,-152,-127,-41
-7,-52,-46,30,20,-49,110,-110,-117,-145,-114,-34
-1,-25,-25,13,12,-25,117,-106,-101,-114,-92,-25
31,10,-21,-20,26,-5,121,-111,-92,-95,-78,-16
67,54,-13,-60,40,20,84,-112,-95,-82,-80,-1
74,62,-12,-68,42,24,53,-116,-99,-80,-80,11
61,20,-41,-41,50,-10,51,-119,-100,-96,-80,4
44,-22,-65,-10,55,-43,62,-119,-106,-111,-84,-12
21,-43,-64,11,43,-53,77,-131,-124,-136,-94,-33
2,-55,-57,27,30,-55,84,-155,-135,-144,-103,-45
-21,-76,-54,49,17,-65,98,-172,-154,-171,-122,-62
-37,-82,-44,60,4,-63,83,-172,-152,-164,-119,-59
-56,-102,-46,79,-5,-73,86,-180,-169,-186,-131,-74
-59,-88,-30,74,-14,-59,73,-173,-150,-158,-124,-69
-52,-101,-49,77,-1,-75,72,-188,-169,-175,-161,-78
-25,-92,-66,59,21,-79,79,-171,-155,-162,-155,-76
-31,-93,-63,62,16,-78,78,-188,-158,-149,-145,-66
-34,-119,-85,77,26,-102,125,-22,-78,-174,-180,-125
89,-11,-100,-38,94,-55,55,314,254,150,29,4
445,545,100,-495,172,322,-417,-95,434,841,759,693
733,1516,783,-1125,-25,1149,-1133,-889,843,2208,2151,1912
205,1148,943,-677,-369,1046,-865,-1214,295,1535,1646,1520
-298,138,436,80,-367,287,-111,-937,-636,-364,-87,57
-161,55,216,53,-189,136,-24,-400,-279,-237,-176,-111
-88,-26,62,57,-75,18,36,-157,-130,-149,-133,-74
-63,-84,-21,74,-20,-52,97,-82,-145,-223,-191,-115
-37,-73,-37,55,0,-55,82,-38,-87,-148,-136,-83
-6,-91,-85,49,40,-88,93,-14,-123,-218,-184,-123
10,-65,-75,27,43,-69,70,14,-75,-157,-136,-75
2,-82,-84,40,43,-82,74,27,-96,-172,-163,-91
13,-61,-74,25,44,-68,59,35,-52,-126,-125,-66
6,-70,-75,33,41,-72,58,38,-40,-137,-125,-69
17,-58,-75,21,47,-67,49,63,-7,-99,-105,-58
23,-50,-74,14,49,-62,45,96,19,-91,-92,-50
37,-40,-77,2,57,-58,40,128,27,-80,-72,-41
56,-14,-70,-21,63,-42,33,171,67,-36,-47,-29
61,7,-54,-34,58,-24,30,230,100,-7,-21,-21
84,29,-55,-56,69,-13,41,289,146,41,18,16
121,55,-66,-88,93,-6,39,360,197,87,38,41
119,100,-20,-109,69,40,4,428,247,145,93,91
136,141,5,-139,66,73,-23,470,296,200,149,151
173,189,15,-181,79,102,-45,501,341,265,210,198
182,234,52,-208,65,143,-52,508,377,315,258,241
184,254,70,-219,56,161,-73,476,385,340,298,276
187,279,92,-233,47,185,-77,422,358,348,308,282
168,261,93,-215,37,177,-58,342,303,303,280,264
98,201,103,-149,-3,151,-55,234,237,237,231,225
61,162,101,-112,-20,131,-12,144,161,167,152,159
34,101,68,-68,-17,84,32,65,89,73,87,110
-21,37,58,-8,-40,47,56,-1,36,14,37,65
-30,5,35,12,-33,20,69,-38,-2,-35,-17,15
-47,-19,29,33,-38,5,85,-69,-29,-71,-69,-16
-41,-31,10,36,-25,-10,107,-77,-63,-88,-84,-31
-35,-45,-10,40,-12,-27,116,-73,-85,-118,-77,-35
-78,-50,28,64,-53,-11,113,-88,-88,-119,-82,-40
-69,-44,25,56,-46,-9,102,-95,-87,-123,-94,-52
-31,-41,-10,36,-11,-25,115,-95,-84,-130,-96,-53
-33,-36,-2,35,-15,-19,100,-95,-81,-119,-82,-45
-59,-32,27,45,-42,-3,97,-96,-79,-114,-78,-42
-57,-26,32,41,-44,3,107,-117,-75,-119,-87,-33
-43,-24,20,33,-31,-2,69,-125,-77,-111,-75,-32
-39,-16,23,27,-31,3,61,-118,-80,-111,-54,-35
-50,-18,31,34,-40,6,80,-118,-80,-121,-58,-35
-71,-43,28,56,-49,-7,66,-114,-80,-113,-74,-50
-74,-47,27,60,-50,-10,61,-111,-81,-116,-80,-57
-69,-42,27,55,-48,-7,52,-110,-80,-130,-80,-54
-60,-40,19,50,-40,-10,59,-118,-83,-137,-80,-56
-47,-37,10,42,-28,-13,54,-137,-99,-134,-95,-55
-33,-32,1,33,-17,-15,14,-147,-107,-136,-102,-55
-10,-45,-35,28,13,-40,35,-144,-104,-134,-95,-51
-19,-60,-42,40,12,-51,44,-149,-105,-135,-95,-46
-37,-50,-13,44,-12,-31,44,-150,-120,-148,-90,-44
-34,-44,-10,39,-12,-27,67,-150,-125,-146,-90,-40
-24,-32,-8,28,-7,-20,53,-171,-116,-155,-98,-34
0,-19,-19,10,10,-19,23,-176,-115,-155,-100,-43
-29,-47,-19,38,-5,-33,2,-171,-107,-120,-100,-52
-48,-67,-19,57,-14,-43,-1,-170,-106,-130,-100,-47
-33,-57,-25,45,-4,-41,-10,-165,-118,-153,-100,-45
-32,-54,-22,44,-5,-38,-15,-165,-121,-143,-99,-42
-26,-51,-25,39,0,-38,-4,-165,-119,-151,-93,-38
-10,-42,-33,26,12,-37,0,-166,-121,-158,-88,-49
-27,-55,-27,41,0,-41,-7,-163,-119,-150,-82,-50
-57,-62,-5,60,-26,-33,-14,-174,-122,-140,-77,-50
-46,-49,-3,47,-21,-25,-1,-187,-125,-151,-69,-69
-34,-57,-23,45,-5,-40,11,-184,-126,-159,-75,-71
-44,-61,-18,52,-13,-40,-10,-185,-129,-122,-86,-58
-57,-56,1,56,-29,-27,-19,-185,-130,-137,-85,-52
-34,-55,-21,45,-6,-38,-17,-185,-142,-159,-80,-61
-31,-60,-30,45,0,-45,-30,-185,-146,-147,-80,-67
-37,-59,-21,48,-8,-40,-22,-185,-141,-155,-98,-64
-28,-53,-25,40,-1,-39,-15,-185,-139,-150,-101,-62
-32,-47,-15,40,-9,-31,-17,-185,-135,-158,-87,-60
-39,-42,-3,41,-18,-22,-12,-185,-134,-156,-82,-60
-46,-38,9,42,-27,-14,-11,-186,-130,-161,-93,-55
-22,-27,-5,25,-8,-16,0,-180,-122,-157,-86,-47
-35,-47,-12,41,-12,-29,3,-176,-117,-152,-88,-41
-44,-51,-7,47,-18,-29,-3,-168,-108,-154,-92,-35
-29,-41,-13,35,-8,-27,2,-164,-104,-130,-75,-27
-2,1,3,1,-3,2,-13,-158,-96,-132,-71,-32
23,54,31,-38,-4,42,5,-150,-81,-83,-53,-23
6,79,72,-43,-33,75,25,-146,-70,-62,-43,8
56,125,69,-91,-7,97,-78,-123,-53,-92,-11,25
38,113,75,-75,-19,94,-102,-139,-64,-96,-12,3
-5,63,68,-29,-37,65,-32,-152,-74,-109,-57,-22
4,19,15,-12,-6,17,-46,-155,-104,-132,-74,-34
-25,1,25,12,-25,13,-50,-183,-132,-142,-90,-57
-33,-10,23,21,-28,6,-34,-185,-140,-152,-101,-70
-19,-4,15,11,-17,5,-28,-178,-156,-177,-113,-64
-14,-11,3,12,-8,-4,-51,-194,-151,-180,-111,-64
-37,-37,0,37,-18,-18,-75,-211,-164,-203,-121,-84
-46,-19,26,32,-36,3,-61,-197,-141,-174,-96,-64
-53,-51,2,52,-27,-24,-67,-216,-174,-217,-127,-82
-97,-49,48,73,-73,0,-78,-192,-130,-146,-92,-58
-112,-76,35,94,-74,-20,-32,-189,-145,-167,-120,-93
-21,-37,-16,29,-2,-26,-26,101,53,-61,-95,-119
195,170,-24,-182,109,73,-202,268,334,356,246,156
623,994,371,-809,126,682,-874,-434,586,1362,1339,1170
610,1649,1039,-1130,-215,1344,-1309,-1068,817,2321,2344,2044
-93,745,838,-326,-466,791,-652,-1153,-154,687,937,894
-316,73,389,122,-353,231,-148,-759,-578,-479,-250,-178
-134,118,252,7,-194,185,-147,-274,-134,-43,8,-62
-91,-10,81,50,-86,35,-59,-114,-173,-222,-131,-126
-71,-10,61,40,-66,25,-47,-28,-93,-153,-103,-98
-66,-36,30,51,-48,-3,-36,-14,-105,-172,-115,-104
-8,-26,-18,17,5,-21,-33,17,-93,-171,-115,-103
-13,-17,-4,15,-4,-10,-83,56,-68,-143,-79,-82
-18,-20,-2,19,-7,-11,-95,58,-71,-164,-94,-93
-11,-4,7,7,-9,2,-100,73,-38,-120,-74,-68
-11,-9,2,9,-6,-3,-108,86,-35,-136,-84,-74
10,5,-5,-8,7,0,-110,112,10,-102,-49,-57
11,13,2,-12,4,7,-110,132,15,-100,-55,-51
36,34,-1,-35,18,16,-102,172,46,-33,-36,-34
42,56,14,-50,14,35,-94,225,80,-5,-7,-9
58,73,15,-66,21,44,-78,282,120,23,36,19
83,99,16,-92,33,57,-100,345,160,76,68,28
105,132,26,-119,39,79,-127,404,208,120,107,59
132,169,38,-151,47,103,-126,450,263,170,165,109
148,217,69,-183,39,143,-129,497,313,237,220,164
164,252,87,-208,38,169,-153,529,351,301,271,208
182,304,121,-244,30,212,-158,532,365,326,313,248
180,334,154,-258,13,243,-157,503,369,349,342,279
167,325,159,-246,4,242,-188,435,327,341,346,282
138,306,168,-222,-15,237,-172,344,276,294,317,253
95,257,162,-176,-34,210,-125,237,224,227,267,205
56,208,152,-132,-48,180,-104,150,146,151,192,146
14,156,142,-85,-64,149,-94,86,76,74,108,77
0,102,101,-51,-51,101,-69,39,20,10,50,24
-25,65,90,-20,-58,77,-51,4,-15,-26,15,-26
-49,49,98,-1,-73,73,-43,-19,-34,-59,5,-38
-40,47,87,-4,-64,67,-32,-35,-50,-87,-5,-32
-42,43,85,-1,-64,64,-27,-43,-67,-92,-18,-40
-44,40,83,2,-63,61,-2,-39,-77,-90,-30,-39
-63,35,98,14,-81,66,23,-36,-78,-90,-32,-40
-59,37,96,10,-77,66,13,-33,-82,-105,-29,-40
-40,43,82,-2,-61,62,8,-28,-77,-109,-30,-40
-33,47,80,-7,-57,63,17,-25,-75,-99,-25,-41
-23,50,73,-14,-48,61,-1,-31,-72,-97,-25,-36
-24,45,69,-11,-47,57,5,-36,-69,-86,-25,-35
-20,40,59,-10,-40,49,11,-35,-74,-81,-25,-34
-40,35,76,2,-59,55,-7,-35,-77,-68,-25,-31
-60,31,91,14,-75,61,-20,-35,-80,-77,-25,-30
-53,26,79,13,-67,52,-59,-35,-84,-112,-25,-31
-49,25,74,12,-62,50,-68,-47,-86,-122,-24,-45
-42,26,68,8,-56,47,-62,-55,-95,-119,-44,-50
-33,24,58,4,-46,41,-67,-59,-104,-121,-52,-57
-43,25,68,8,-56,46,-63,-70,-105,-134,-49,-70
-60,25,85,18,-73,55,-66,-71,-107,-143,-51,-70
-50,25,75,12,-63,50,-76,-75,-111,-138,-48,-74
-45,24,68,10,-57,46,-80,-73,-108,-138,-52,-76
-45,20,65,13,-55,42,-72,-64,-105,-133,-35,-80
-31,21,51,5,-41,36,-70,-78,-103,-136,-36,-79
-52,17,70,17,-61,43,-81,-91,-98,-150,-65,-74
-78,15,93,32,-86,53,-83,-93,-110,-147,-58,-76
-75,15,90,30,-83,52,-75,-97,-122,-147,-50,-72
-74,12,86,31,-80,48,-72,-100,-116,-143,-41,-70
-78,9,86,34,-82,47,-63,-104,-114,-148,-33,-70
-83,6,89,39,-87,47,-63,-105,-110,-159,-31,-73
-88,3,91,42,-90,47,-84,-105,-104,-152,-19,-77
-94,0,94,46,-94,47,-86,-105,-114,-154,-35,-80
-95,1,95,47,-95,48,-38,-105,-121,-148,-50,-84
-91,8,98,41,-95,53,-42,-104,-120,-151,-59,-84
-77,22,100,27,-89,61,-85,-100,-117,-162,-72,-79
-70,22,93,24,-82,57,-75,-100,-115,-156,-70,-76
-72,13,85,29,-79,49,-79,-100,-114,-155,-67,-72
-82,8,90,36,-86,49,-91,-100,-122,-154,-65,-69
-92,0,93,46,-93,46,-62,-100,-134,-157,-64,-65
-95,-4,91,50,-93,43,-43,-96,-135,-163,-66,-68
-82,2,84,40,-83,42,-60,-90,-135,-146,-83,-86
-79,12,91,33,-85,51,-57,-85,-135,-132,-73,-73
-83,15,98,33,-91,56,-62,-80,-135,-144,-47,-58
-70,23,93,23,-82,57,-61,-72,-134,-141,-61,-53
-68,27,95,21,-82,60,-9,-74,-125,-133,-63,-46
-37,31,68,3,-52,49,1,-80,-116,-135,-46,-41
-35,53,88,-9,-61,70,-12,-72,-98,-119,-51,-30
-35,76,110,-21,-73,93,39,-63,-72,-108,-40,-39
2,117,116,-60,-57,116,53,-60,-64,-57,-20,-16
-2,139,141,-69,-72,140,-15,-58,-65,-34,-17,6
-7,107,114,-50,-61,111,-13,-53,-64,-91,-1,-9
-31,74,105,-22,-68,89,-19,-69,-77,-100,-13,-23
-52,46,98,3,-75,72,-20,-88,-106,-136,-51,-53
-68,31,100,18,-84,65,4,-93,-99,-145,-62,-65
-87,16,103,35,-95,59,-6,-115,-110,-147,-82,-89
-52,8,59,22,-56,33,10,-108,-117,-143,-87,-88
-38,-5,33,21,-35,14,11,-118,-134,-167,-98,-89
-68,-19,49,43,-58,15,4,-128,-129,-184,-112,-94
-86,-31,55,58,-70,12,7,-136,-114,-153,-101,-82
-137,-41,96,89,-116,27,72,-140,-139,-199,-117,-104
-124,-13,111,68,-117,49,67,-109,-79,-125,-73,-70
-35,-48,-13,42,-11,-30,91,-51,-120,-213,-144,-127
6,-15,-21,5,14,-18,109,303,176,12,-61,-101
245,320,75,-282,85,197,-193,262,490,551,427,314
616,1323,707,-970,-46,1014,-916,-479,898,1896,1801,1511
358,1615,1257,-987,-450,1436,-1114,-975,882,2366,2306,1913
-252,522,774,-135,-513,647,-402,-960,-331,249,484,453
-278,114,392,82,-335,253,-106,-528,-480,-414,-240,-189
-121,130,251,-4,-186,190,-54,-142,-113,-62,40,-42
-70,-6,64,38,-67,28,52,-16,-175,-238,-139,-125
-48,4,52,22,-50,28,38,58,-57,-116,-83,-61
-83,-56,26,69,-54,-15,94,84,-88,-195,-118,-92
-31,-23,8,27,-19,-7,98,103,-60,-147,-96,-70
-44,-30,14,37,-29,-7,69,104,-57,-145,-92,-91
-47,-23,24,35,-35,0,26,120,-42,-129,-103,-95
-14,-4,10,9,-12,3,26,142,-12,-106,-83,-78
-38,-19,20,28,-29,0,-4,153,12,-108,-80,-81
-15,-1,14,8,-14,6,-12,172,41,-70,-48,-59
14,17,4,-16,5,10,-2,212,60,-30,-26,-58
28,35,6,-32,11,20,-25,262,99,21,-4,-29
36,38,2,-37,17,20,-10,308,136,30,8,-12
55,63,8,-59,23,35,-17,352,181,68,36,29
78,94,16,-85,31,54,-32,405,226,113,76,59
74,128,54,-101,10,91,-30,466,281,160,112,58
124,180,56,-152,34,118,-86,517,325,222,177,118
148,228,80,-188,34,154,-103,560,376,291,252,173
168,279,111,-224,29,195,-73,571,415,350,307,224
183,301,118,-242,32,210,-101,546,422,381,353,260
168,316,148,-242,10,232,-127,501,408,382,366,268
158,314,156,-236,1,235,-121,438,372,356,347,259
96,272,176,-184,-40,224,-107,357,307,296,299,202
79,234,155,-157,-38,194,-73,270,225,225,237,156
48,180,132,-114,-43,156,-57,189,146,144,155,102
6,117,111,-62,-53,114,-47,135,92,88,84,53
-17,74,90,-29,-54,82,-30,96,49,38,51,19
-74,48,122,13,-98,85,-17,61,13,-39,29,-32
-75,32,106,21,-91,69,26,40,-13,-81,2,-75
-83,17,100,32,-92,59,28,32,-38,-80,-32,-81
-81,15,96,33,-89,55,34,47,-47,-80,-51,-79
-69,15,84,26,-77,49,50,62,-41,-82,-50,-80
-66,15,81,26,-74,48,61,58,-36,-86,-50,-80
-55,15,70,20,-63,42,95,55,-33,-85,-49,-80
-51,15,66,18,-59,41,88,53,-26,-80,-44,-76
-34,20,54,7,-44,37,85,49,-26,-79,-46,-74
-51,24,75,13,-63,49,86,54,-23,-74,-43,-70
-62,29,91,16,-77,59,84,55,-36,-77,-39,-68
-51,28,79,11,-65,53,86,55,-60,-76,-41,-64
-52,23,74,14,-63,49,84,52,-62,-75,-39,-69
-48,20,68,14,-58,44,85,49,-64,-75,-41,-80
-43,16,59,13,-51,37,85,50,-68,-75,-39,-79
-58,12,70,23,-64,41,85,46,-70,-101,-42,-82
-77,9,87,33,-82,48,85,41,-73,-113,-53,-85
-75,5,81,35,-78,42,93,36,-76,-108,-58,-85
-77,5,82,36,-80,43,96,33,-79,-111,-60,-82
-82,4,86,39,-84,45,93,27,-83,-108,-48,-80
-85,0,84,42,-85,42,87,26,-85,-111,-54,-80
-85,0,85,42,-85,42,107,30,-80,-116,-67,-80
-87,-2,85,44,-86,41,101,32,-80,-109,-64,-80
-90,-6,84,47,-87,39,76,35,-80,-117,-65,-80
-85,-5,81,45,-83,38,86,38,-80,-134,-65,-91
-84,-5,78,44,-80,36,85,40,-80,-136,-65,-96
-80,-5,75,42,-77,35,85,40,-82,-134,-67,-94
-78,-6,72,41,-75,33,85,40,-90,-131,-70,-99
-79,-10,69,44,-74,30,90,40,-94,-130,-70,-100
-83,-10,73,46,-78,31,101,40,-90,-129,-71,-100
-87,-10,77,48,-82,33,104,40,-90,-125,-76,-100
-83,-10,73,46,-78,31,105,38,-90,-122,-75,-100
-81,-10,71,45,-76,30,105,35,-90,-120,-74,-100
-79,-12,67,45,-73,28,104,29,-90,-116,-70,-100
-82,-17,65,49,-73,24,108,41,-87,-115,-64,-100
-83,-20,63,51,-73,21,110,51,-85,-120,-61,-98
-77,-20,57,48,-67,18,110,49,-85,-120,-56,-94
-74,-20,53,47,-64,16,113,51,-85,-120,-52,-95
-66,-19,47,42,-57,14,115,49,-85,-117,-47,-91
-72,-27,46,49,-59,9,115,51,-86,-115,-41,-90
-68,-31,37,49,-52,3,110,48,-76,-116,-35,-91
-70,-20,50,45,-60,15,111,57,-65,-106,-28,-83
-55,24,80,15,-68,52,105,77,-48,-91,-21,-73
-43,50,94,-4,-69,72,106,91,-21,-79,-12,-62
-41,73,114,-16,-78,93,107,115,-24,-68,-3,-58
5,119,114,-62,-54,116,75,113,-32,-67,9,-60
-9,93,102,-42,-56,97,66,103,-29,-77,10,-62
-31,53,84,-11,-58,68,68,97,-42,-69,-4,-64
-42,25,66,8,-54,45,58,83,-68,-89,-25,-66
-79,-13,65,46,-72,26,71,71,-72,-108,-35,-71
-87,-34,53,60,-70,9,103,59,-96,-133,-52,-88
-76,-24,51,50,-64,13,98,69,-88,-119,-42,-83
-87,-46,41,67,-64,-3,94,64,-89,-126,-45,-85
-97,-61,36,79,-66,-12,96,75,-87,-131,-50,-88
-89,-57,31,73,-60,-13,82,70,-72,-110,-47,-85
-83,-66,17,75,-50,-24,104,78,-93,-157,-79,-98
-74,-48,27,61,-50,-10,95,77,-52,-77,-32,-69
-108,-94,14,101,-61,-40,136,112,-103,-171,-116,-144
-50,-56,-6,53,-22,-31,143,441,242,62,-12,-107
245,339,94,-292,75,216,-180,369,603,698,563,380
536,1382,846,-959,-155,1114,-893,-396,1046,2137,1986,1571
243,1561,1318,-902,-538,1439,-1002,-992,936,2418,2279,1773
-300,423,723,-62,-512,573,-281,-887,-381,151,379,300
-317,36,352,141,-335,194,-23,-367,-454,-408,-233,-218
-142,56,198,43,-170,127,9,-20,-57,-43,-18,-79
-91,-47,44,69,-67,-2,123,133,-123,-220,-137,-147
-77,-29,49,53,-63,10,121,182,-11,-78,-52,-90
-93,-71,22,82,-57,-24,131,212,-53,-150,-115,-144
-69,-60,10,65,-39,-25,134,255,-4,-96,-53,-112
-39,-65,-26,52,-6,-45,163,252,-11,-130,-69,-115
-46,-50,-4,48,-21,-27,141,258,6,-101,-68,-106
-33,-43,-10,38,-11,-26,141,268,34,-82,-47,-93
-30,-49,-19,40,-5,-34,124,285,48,-85,-41,-93
-23,-36,-13,29,-5,-24,122,306,87,-28,-14,-69
6,-15,-21,5,14,-18,117,326,103,-45,-21,-64
-6,-9,-3,8,-1,-6,93,365,143,-2,20,-43
8,-3,-11,-2,10,-7,113,406,179,51,55,-30
27,30,3,-28,11,16,97,447,229,106,84,1
37,56,20,-47,8,38,93,513,278,153,124,34
72,98,26,-85,22,62,98,558,332,197,163,67
97,146,49,-122,23,97,69,609,390,265,224,115
111,191,80,-151,16,135,53,649,433,329,293,169
126,242,116,-184,4,179,47,632,464,379,337,210
140,274,135,-207,3,204,9,620,471,409,384,249
123,292,169,-208,-23,230,26,577,440,425,426,284
117,285,168,-201,-26,226,53,495,394,397,397,264
88,240,152,-164,-32,196,15,401,327,313,327,211
35,183,148,-110,-57,166,49,315,247,241,253,149
-12,118,130,-54,-71,124,88,253,172,141,172,80
-49,70,119,-11,-84,94,112,198,102,65,110,31
-76,28,104,24,-90,65,138,153,59,28,72,-10
-108,-18,90,63,-99,36,141,124,27,-47,36,-51
-96,-15,81,56,-88,33,186,112,5,-68,1,-69
-117,-26,91,71,-104,32,174,103,0,-72,-5,-55
-122,-44,78,83,-100,16,173,103,-5,-90,17,-56
-107,-35,72,70,-89,19,178,108,-10,-82,17,-76
-95,-34,62,65,-78,14,162,111,-17,-81,3,-73
-83,-30,53,57,-68,11,179,114,-19,-71,-3,-70
-96,-23,73,60,-84,25,143,117,-15,-68,-19,-68
-109,-32,77,70,-92,22,139,120,-13,-71,-33,-64
-107,-51,56,79,-82,3,148,114,-10,-73,-28,-67
-80,-47,32,63,-56,-7,135,109,-7,-60,-20,-79
-80,-42,38,61,-59,-2,147,103,-4,-46,-15,-86
-75,-41,33,58,-54,-4,148,99,-10,-69,-6,-78
-68,-33,35,50,-51,1,144,90,-20,-81,-16,-76
-61,-39,23,50,-41,-8,147,96,-30,-65,-41,-69
-100,-55,45,77,-72,-5,147,112,-36,-68,-40,-67
-129,-56,73,93,-101,8,135,96,-34,-99,-35,-59
-81,-54,28,67,-54,-13,114,99,-36,-101,-34,-63
-80,-57,23,68,-51,-17,102,102,-45,-101,-27,-82
-67,-51,16,59,-41,-18,103,90,-45,-106,-28,-78
-69,-65,4,67,-36,-30,122,84,-45,-99,-17,-75
-102,-80,21,91,-61,-29,117,75,-45,-99,-22,-73
-88,-71,17,79,-53,-27,109,71,-45,-93,-46,-69
-65,-52,13,58,-39,-19,116,64,-47,-91,-42,-68
-64,-57,7,60,-35,-24,120,60,-51,-96,-37,-63
-91,-80,11,86,-51,-34,128,51,-54,-102,-36,-60
-87,-78,9,82,-47,-35,115,57,-58,-80,-28,-57
-94,-71,23,82,-58,-24,115,76,-60,-83,-35,-52
-97,-72,24,84,-60,-24,95,75,-60,-121,-50,-50
-61,-62,-1,62,-30,-31,117,75,-60,-120,-51,-60
-74,-72,3,73,-38,-34,138,75,-60,-110,-48,-67
-73,-97,-24,85,-24,-60,113,75,-60,-92,-45,-63
-97,-107,-10,102,-43,-58,122,73,-60,-96,-44,-69
-114,-109,5,111,-59,-52,100,65,-58,-112,-48,-100
-73,-73,0,73,-36,-36,85,60,-53,-109,-50,-122
-87,-61,26,74,-56,-17,104,52,-50,-110,-50,-127
-92,-73,19,83,-56,-27,115,46,-47,-114,-50,-132
-98,-68,30,83,-64,-18,89,39,-43,-116,-50,-135
-102,-73,29,87,-65,-22,84,56,-39,-114,-45,-114
-87,-58,29,72,-58,-14,124,77,-52,-120,-43,-81
-80,-39,41,59,-60,1,136,74,-53,-86,-36,-68
-34,12,46,10,-40,29,118,76,-19,-48,-19,-52
-45,25,70,10,-58,47,132,74,10,-55,10,-34
-63,31,94,16,-79,62,143,76,28,-46,33,-9
-42,77,119,-18,-80,97,100,69,40,15,52,25
-40,48,88,-4,-65,68,119,29,9,-6,42,7
-19,11,30,4,-25,20,138,6,-15,-47,-1,-31
-63,-31,32,47,-47,1,154,-15,-46,-61,-39,-44
-111,-51,60,81,-85,4,174,-56,-68,-96,-47,-49
-128,-59,69,93,-99,5,161,-91,-73,-107,-52,-63
-131,-66,65,99,-98,0,157,-95,-75,-107,-49,-50
-109,-71,38,90,-73,-16,131,-127,-70,-106,-52,-72
-96,-84,12,90,-54,-36,158,-140,-76,-124,-70,-119
-127,-75,52,101,-89,-11,172,-141,-58,-96,-45,-113
-148,-90,58,119,-103,-16,193,-140,-88,-133,-77,-146
-87,-60,27,73,-57,-16,188,-139,-47,-59,-29,-109
-104,-100,3,102,-53,-48,224,-119,-71,-120,-89,-146
-70,-78,-9,74,-30,-43,223,194,212,37,-46,-147
159,212,53,-186,53,133,-48,193,528,549,394,213
548,1151,603,-850,-27,876,-760,-481,875,1790,1661,1322
428,1635,1208,-1032,-390,1421,-1115,-1105,1012,2555,2420,1942
-210,582,792,-186,-501,687,-382,-1145,-185,554,749,618
-328,-13,315,170,-322,151,53,-661,-514,-447,-254,-237
-151,38,188,56,-169,113,50,-264,-37,0,-21,-106
-82,-73,9,77,-45,-31,160,-121,-99,-164,-148,-185
-66,-69,-3,67,-31,-36,180,-61,-16,-65,-71,-135
-34,-108,-74,71,20,-91,198,-31,-46,-140,-106,-157
-2,-89,-86,46,42,-87,165,5,-20,-111,-94,-150
-3,-83,-80,43,39,-81,166,14,-3,-93,-89,-140
16,-75,-91,30,54,-83,159,29,-6,-97,-104,-145
9,-58,-67,25,39,-63,148,36,30,-57,-83,-126
28,-53,-81,13,54,-66,144,51,38,-78,-74,-134
35,-35,-70,0,53,-52,131,77,72,-36,-30,-116
39,-25,-64,-7,52,-45,126,101,94,-37,-39,-106
54,-1,-55,-26,55,-28,118,148,131,17,-17,-80
73,11,-63,-42,68,-26,108,194,161,53,1,-65
80,21,-59,-51,69,-19,116,253,213,90,42,-38
112,42,-70,-77,91,-14,137,327,264,147,90,-6
133,80,-53,-106,93,13,118,384,318,194,114,30
120,121,1,-121,60,61,85,443,380,255,166,93
176,174,-2,-175,89,86,56,482,423,314,223,155
205,224,18,-215,93,121,41,481,459,371,287,212
199,259,60,-230,69,160,15,465,472,408,340,252
189,283,94,-237,48,188,-30,421,448,420,362,273
173,279,106,-226,33,192,-32,339,410,405,350,273
151,247,95,-199,28,171,-8,232,352,338,291,230
85,182,97,-134,-6,139,-5,130,272,259,223,175
43,118,75,-81,-16,96,15,52,188,175,150,117
22,69,47,-46,-13,58,59,-12,124,103,78,52
-11,20,31,-5,-21,25,104,-66,88,46,27,1
-20,-8,13,14,-16,3,117,-107,50,-26,-6,-23
-27,-23,4,25,-15,-9,123,-128,22,-53,-38,-35
-18,-39,-21,29,2,-30,136,-129,9,-64,-53,-50
-4,-42,-38,24,17,-40,115,-134,-5,-78,-62,-58
-12,-40,-28,26,8,-34,130,-144,-15,-73,-76,-62
-10,-40,-30,25,10,-35,174,-138,-17,-74,-75,-68
-19,-40,-21,30,1,-30,187,-130,-12,-69,-74,-71
-17,-40,-23,29,3,-31,184,-125,-9,-71,-70,-75
-33,-40,-7,37,-13,-23,185,-117,-6,-66,-70,-92
-52,-40,12,46,-32,-14,186,-113,-1,-65,-68,-103
-8,-40,-32,24,12,-36,182,-110,1,-64,-64,-99
-10,-40,-29,25,9,-34,209,-110,7,-59,-63,-97
-14,-40,-26,28,6,-33,202,-110,14,-61,-58,-94
6,-39,-45,17,26,-42,184,-110,11,-57,-57,-90
-9,-43,-34,26,13,-38,196,-110,4,-55,-53,-90
-7,-45,-38,27,16,-41,155,-115,-1,-54,-69,-105
-17,-46,-29,32,6,-37,151,-118,-9,-68,-96,-111
-19,-50,-31,35,6,-41,180,-123,-16,-82,-100,-110
-3,-50,-47,27,22,-48,176,-125,-23,-79,-103,-116
12,-50,-62,19,37,-56,171,-126,-31,-80,-108,-114
-9,-50,-41,30,16,-45,165,-135,-38,-80,-114,-111
-33,-50,-17,41,-8,-34,173,-135,-40,-78,-120,-110
-21,-50,-29,36,4,-39,157,-134,-46,-92,-120,-110
-42,-50,-8,46,-17,-29,157,-136,-51,-102,-120,-110
-22,-50,-28,36,3,-39,167,-134,-53,-96,-120,-110
4,-50,-53,23,29,-51,192,-138,-56,-95,-120,-108
-35,-50,-15,43,-10,-33,237,-146,-59,-91,-119,-105
-35,-49,-14,43,-11,-31,201,-144,-60,-90,-123,-102
-26,-51,-25,39,-1,-38,194,-140,-55,-93,-127,-99
-37,-48,-11,42,-13,-29,228,-139,-52,-97,-125,-95
-27,-52,-25,40,-1,-38,218,-134,-48,-99,-125,-95
-58,-66,-7,62,-25,-36,217,-138,-45,-104,-122,-102
-35,-60,-26,47,-4,-43,226,-146,-40,-105,-119,-101
11,-54,-65,22,38,-60,201,-145,-44,-86,-121,-99
-28,-53,-25,41,-2,-39,182,-145,-58,-91,-122,-101
-11,-44,-33,27,11,-38,167,-140,-60,-94,-120,-99
-18,-50,-32,34,8,-41,148,-140,-60,-93,-120,-101
-55,-65,-10,60,-22,-37,158,-139,-60,-103,-120,-97
-33,-61,-28,47,-2,-44,169,-132,-60,-72,-120,-94
-32,-54,-22,44,-5,-38,188,-126,-59,-72,-120,-96
-31,-53,-22,42,-4,-37,193,-119,-56,-110,-115,-75
-5,-44,-39,24,18,-41,170,-113,-51,-97,-111,-53
-20,-49,-30,35,5,-39,165,-105,-49,-91,-109,-59
-51,-60,-9,55,-21,-34,154,-111,-45,-106,-104,-65
-33,-53,-20,43,-7,-36,140,-104,-41,-84,-102,-56
-33,-45,-11,39,-11,-28,168,-84,-35,-70,-97,-44
-16,-18,-3,17,-6,-10,181,-84,7,-57,-81,-32
-6,13,19,-4,-13,16,179,-85,15,-48,-69,-23
13,56,44,-35,-16,50,189,-84,21,-2,-69,1
50,78,28,-64,10,53,155,-85,70,28,-70,41
17,31,14,-24,1,23,150,-85,47,-16,-72,23
21,8,-13,-14,17,-3,190,-88,8,-10,-74,-13
25,-7,-32,-9,28,-20,196,-91,-18,-60,-76,-15
-9,-31,-23,20,7,-27,194,-90,-28,-77,-77,-35
-30,-57,-27,44,-1,-42,207,-109,-44,-56,-107,-66
-37,-74,-37,56,1,-55,237,-106,-50,-74,-108,-76
-43,-75,-32,59,-6,-53,254,-116,-58,-104,-115,-104
-33,-69,-36,51,1,-52,225,-112,-61,-122,-135,-122
-41,-75,-34,58,-4,-54,215,-100,-38,-97,-103,-111
-89,-113,-23,101,-33,-68,223,-101,-65,-147,-138,-142
-88,-94,-6,92,-41,-50,181,-75,-16,-63,-81,-86
-76,-118,-42,97,-17,-80,214,-67,-59,-149,-144,-137
-18,-80,-62,49,22,-71,222,272,194,38,-89,-139
216,186,-30,-201,123,78,-19,281,444,492,314,211
647,1107,460,-878,93,783,-741,-488,718,1626,1524,1311
559,1575,1016,-1067,-229,1295,-1092,-1063,842,2373,2311,1984
-134,563,697,-215,-415,630,-349,-1061,-211,489,688,666
-276,47,322,114,-299,185,88,-575,-449,-398,-279,-204
-104,65,170,19,-137,117,83,-154,-37,-9,-19,-76
-102,-83,19,92,-60,-32,195,-19,-104,-189,-157,-160
-19,-57,-38,38,9,-47,181,43,-12,-78,-110,-121
-19,-103,-84,61,33,-93,231,68,-22,-128,-145,-150
-12,-80,-68,46,28,-74,243,101,11,-91,-127,-128
1,-87,-88,43,45,-88,222,97,14,-89,-122,-117
-21,-89,-68,55,23,-78,235,124,27,-75,-129,-117
11,-63,-74,27,43,-69,204,153,55,-31,-93,-97
-12,-68,-56,40,22,-62,177,162,60,-48,-93,-105
-15,-49,-34,32,10,-41,195,189,95,2,-67,-78
23,-31,-54,4,38,-42,202,235,114,22,-66,-70
24,-1,-25,-11,24,-12,180,267,153,42,-41,-52
59,7,-52,-32,55,-22,185,304,180,61,-20,-39
84,25,-59,-54,71,-17,161,354,229,107,19,-20
99,67,-32,-83,66,17,132,404,269,145,60,16
145,106,-39,-125,91,33,120,477,322,198,85,55
149,142,-8,-146,78,67,101,528,379,258,138,99
168,192,24,-180,72,108,92,571,430,325,195,149
191,244,53,-218,69,148,58,575,464,373,244,195
191,281,90,-237,50,185,30,549,479,423,299,244
182,284,102,-234,40,193,24,532,483,457,331,278
151,278,127,-215,12,202,-2,457,443,422,322,273
132,265,134,-198,-1,200,-15,356,384,376,277,238
85,206,122,-146,-19,164,2,259,307,303,217,186
51,148,97,-100,-24,122,44,163,228,217,153,119
31,102,71,-67,-20,86,63,105,168,144,84,67
-3,59,62,-28,-33,60,68,65,106,70,34,25
-21,23,45,-1,-33,34,110,36,64,33,-19,-11
-31,0,31,15,-31,16,123,19,37,13,-51,-36
-14,-2,12,8,-13,5,118,4,22,-5,-59,-45
-12,-6,6,9,-8,0,119,-1,18,-9,-75,-40
-28,-9,19,18,-23,5,114,-6,12,-15,-69,-40
-35,-14,21,24,-27,3,115,-10,9,-20,-52,-40
-34,-14,20,24,-26,2,125,-15,3,-27,-52,-40
-26,-9,17,17,-22,4,137,-9,1,-30,-60,-40
-25,-11,14,17,-19,1,134,4,4,-30,-61,-40
-23,-7,16,15,-19,4,133,15,7,-30,-59,-40
-24,-4,19,14,-21,7,130,31,9,-30,-61,-40
-25,-6,20,16,-22,7,129,36,12,-30,-60,-41
-29,-8,21,18,-25,6,129,34,15,-30,-58,-39
-38,-13,25,25,-31,5,118,36,13,-34,-54,-41
-41,-15,26,27,-33,5,145,34,8,-35,-56,-54
-41,-20,21,30,-31,0,160,36,5,-36,-54,-68
-27,-23,5,25,-16,-9,136,21,1,-34,-57,-81
-14,-27,-13,21,0,-20,142,-19,-3,-38,-75,-87
-29,-43,-13,36,-8,-28,139,-39,-5,-46,-74,-92
-41,-46,-5,44,-17,-25,142,-45,-12,-46,-71,-95
-49,-45,5,47,-27,-20,158,-45,-23,-42,-68,-90
-59,-43,16,50,-37,-13,151,-45,-33,-40,-65,-90
-54,-40,14,47,-34,-13,142,-57,-38,-59,-64,-90
-48,-39,10,44,-29,-15,134,-61,-34,-67,-57,-90
-53,-46,7,49,-30,-19,128,-60,-32,-64,-73,-90
-53,-51,2,51,-27,-24,125,-57,-29,-66,-82,-93
-57,-57,0,57,-28,-29,120,-54,-26,-65,-79,-100
-70,-76,-6,73,-31,-40,115,-55,-24,-65,-81,-102
-64,-75,-11,70,-26,-43,111,-50,-21,-61,-80,-106
-58,-75,-17,66,-20,-46,99,-47,-20,-59,-80,-110
-52,-75,-23,64,-14,-49,90,-44,-20,-61,-75,-108
-50,-75,-25,63,-12,-50,80,-40,-20,-59,-75,-105
-48,-73,-26,61,-11,-49,62,-35,-20,-61,-75,-105
-45,-69,-24,57,-10,-46,73,-36,-22,-59,-75,-105
-56,-82,-26,69,-15,-54,83,-35,-29,-62,-75,-105
-70,-93,-23,82,-23,-58,75,-31,-30,-80,-74,-105
-73,-95,-22,84,-25,-58,75,-28,-30,-79,-76,-105
-77,-95,-18,86,-29,-56,63,-23,-30,-76,-74,-105
-74,-95,-21,85,-26,-58,43,-20,-30,-74,-76,-105
-59,-94,-36,77,-11,-65,40,-17,-31,-70,-74,-104
-63,-96,-33,80,-15,-64,35,-9,-28,-71,-79,-106
-70,-93,-23,82,-23,-58,33,-4,-19,-61,-91,-101
-58,-66,-8,62,-25,-36,30,2,-12,-60,-74,-88
-25,-32,-7,29,-9,-19,10,13,10,-38,-33,-72
-28,-8,20,18,-24,6,34,23,37,-25,-17,-63
-36,20,56,8,-46,37,37,50,55,0,-28,-51
14,34,20,-24,-3,27,-15,54,49,34,-20,-34
12,-11,-23,0,18,-17,-21,42,24,-10,-28,-54
-21,-62,-42,42,11,-52,0,32,4,-54,-55,-82
-19,-78,-60,49,21,-69,26,24,-19,-54,-57,-87
-41,-103,-62,72,11,-82,36,27,-19,-55,-68,-92
-72,-127,-54,100,-9,-90,32,22,-37,-89,-87,-107
-77,-126,-49,102,-14,-87,32,29,-43,-72,-74,-94
-94,-138,-44,116,-25,-91,37,19,-64,-111,-119,-118
-111,-150,-38,131,-36,-94,16,32,-47,-93,-111,-133
-89,-168,-80,129,-4,-124,17,-6,-64,-94,-115,-137
-72,-160,-88,116,9,-124,9,-26,-62,-92,-126,-146
-86,-170,-85,128,0,-127,-10,-28,-34,-64,-103,-132
-74,-172,-98,123,12,-135,48,99,15,-114,-156,-177
23,-77,-99,27,61,-87,8,475,336,204,33,-65
383,434,51,-409,166,242,-442,144,540,847,723,574
692,1434,742,-1063,-25,1088,-1174,-669,950,2217,2131,1823
203,1173,970,-688,-384,1071,-976,-1012,495,1741,1797,1569
-366,104,470,130,-418,287,-222,-804,-496,-226,-2,54
-251,-27,224,139,-237,98,-97,-284,-212,-191,-143,-156
-139,-70,69,105,-104,-1,-49,-21,-37,-78,-56,-88
-126,-153,-27,140,-49,-90,24,69,-55,-182,-170,-176
-68,-134,-66,101,0,-100,23,127,17,-87,-118,-144
-90,-168,-79,129,-5,-123,55,128,-28,-150,-186,-199
-48,-137,-89,93,20,-113,32,155,30,-85,-125,-155
-38,-145,-107,92,34,-126,38,164,24,-123,-145,-171
-51,-138,-86,95,18,-112,39,193,64,-74,-116,-150
-23,-134,-111,79,44,-122,25,216,71,-86,-110,-148
-31,-118,-88,75,29,-103,41,242,97,-51,-89,-146
-14,-103,-89,59,38,-96,15,251,115,-38,-76,-134
-13,-94,-81,53,34,-87,-8,283,123,-30,-74,-126
-4,-75,-71,40,33,-73,12,332,158,6,-51,-110
16,-58,-75,21,46,-66,0,352,188,41,-22,-104
32,-26,-59,-3,46,-42,8,403,234,103,19,-77
65,4,-61,-34,63,-28,-6,462,271,130,37,-31
63,45,-19,-54,41,13,-32,504,329,186,79,11
113,100,-13,-107,63,43,-38,550,376,240,137,46
138,142,4,-140,67,73,-83,596,410,300,177,99
155,191,36,-173,59,113,-95,609,447,354,230,140
174,222,48,-198,63,135,-113,576,448,370,280,173
141,236,96,-189,22,166,-134,504,431,379,289,204
132,226,94,-180,19,160,-121,411,383,338,268,168
75,173,98,-125,-12,136,-120,296,313,260,202,106
44,132,88,-88,-22,110,-96,209,238,184,128,58
15,72,58,-44,-22,65,-77,142,162,101,59,-15
-29,18,47,5,-38,32,-50,77,118,49,1,-71
-32,-17,14,24,-23,-1,-19,44,74,14,-53,-109
-52,-56,-4,54,-24,-30,-17,23,28,-41,-92,-145
-64,-73,-9,69,-27,-41,-17,-10,-6,-101,-119,-165
-93,-91,2,92,-47,-44,-21,-45,-17,-117,-139,-171
-90,-93,-4,92,-43,-48,-38,-46,-14,-110,-133,-174
-79,-85,-5,82,-37,-45,-33,-37,-18,-105,-136,-186
-81,-83,-2,82,-39,-43,-14,-32,-20,-109,-128,-182
-77,-78,-1,77,-38,-39,-18,-24,-20,-123,-132,-177
-76,-72,4,74,-40,-34,-23,-18,-16,-116,-125,-176
-81,-76,4,79,-42,-36,-19,-15,-15,-125,-113,-168
-101,-90,11,95,-56,-39,-21,-15,-15,-128,-141,-179
-81,-84,-4,82,-38,-43,-35,-15,-11,-126,-137,-197
-74,-77,-4,76,-35,-40,-29,-15,-9,-126,-126,-194
-70,-75,-5,73,-33,-40,-43,-16,-12,-132,-132,-196
-55,-63,-8,59,-23,-36,-56,-31,-23,-128,-135,-194
-66,-78,-12,72,-27,-45,-44,-42,-37,-102,-140,-196
-80,-95,-15,87,-32,-55,-57,-39,-35,-143,-143,-191
-76,-102,-26,90,-25,-64,-49,-39,-38,-162,-147,-181
-84,-122,-38,103,-23,-80,-71,-46,-46,-156,-150,-197
-94,-119,-25,106,-34,-72,-126,-55,-48,-166,-153,-201
-81,-114,-33,98,-24,-73,-92,-65,-64,-164,-155,-199
-87,-114,-27,100,-29,-70,-67,-62,-61,-175,-155,-201
-77,-107,-30,92,-23,-68,-74,-55,-50,-164,-152,-200
-83,-122,-38,103,-22,-80,-64,-54,-48,-160,-149,-199
-85,-141,-56,114,-14,-98,-60,-45,-36,-155,-150,-195
-57,-145,-89,101,16,-116,-42,-49,-40,-147,-145,-192
-77,-145,-68,111,-4,-106,-31,-69,-63,-136,-144,-190
-100,-145,-45,123,-27,-95,-21,-67,-66,-134,-147,-186
-81,-145,-64,113,-8,-104,-24,-60,-59,-165,-149,-185
-65,-145,-80,106,8,-113,-13,-59,-60,-163,-151,-188
-68,-144,-75,106,4,-109,-12,-51,-53,-147,-147,-192
-45,-140,-95,92,25,-117,-24,-53,-58,-140,-174,-196
-66,-140,-74,104,4,-107,-17,-61,-74,-122,-204,-201
-91,-137,-46,115,-22,-92,-20,-57,-72,-131,-209,-204
-57,-135,-78,96,11,-106,-9,-50,-65,-166,-215,-202
-56,-135,-79,96,12,-107,-8,-49,-64,-160,-216,-198
-58,-131,-73,95,7,-102,-19,-40,-55,-155,-213,-196
-38,-130,-92,84,27,-110,-8,-44,-59,-165,-218,-193
-54,-131,-77,93,11,-104,-9,-50,-64,-155,-225,-191
-46,-128,-82,87,18,-105,2,-24,-52,-151,-211,-189
-24,-103,-80,63,28,-91,2,8,-21,-140,-183,-172
-54,-73,-19,63,-17,-46,17,19,-9,-128,-171,-155
-44,-52,-8,48,-17,-30,39,20,1,-112,-169,-145
-16,-23,-7,20,-4,-15,-39,37,29,-105,-171,-146
-20,-27,-7,23,-6,-17,-39,33,8,-97,-169,-144
-38,-90,-52,64,7,-71,-16,12,-19,-92,-171,-149
-32,-121,-89,77,29,-104,-20,-2,-51,-141,-193,-184
-34,-129,-95,82,31,-111,38,-18,-58,-155,-206,-190
-61,-160,-99,111,20,-130,41,-29,-70,-169,-225,-191
-60,-157,-97,108,19,-126,21,-33,-74,-155,-219,-189
-77,-182,-105,130,14,-143,31,-50,-88,-176,-254,-213
-83,-188,-106,136,12,-147,14,-48,-72,-155,-246,-208
-84,-199,-115,142,16,-157,25,-51,-86,-169,-255,-209
-86,-193,-107,140,11,-150,10,-17,-81,-170,-263,-216
-89,-192,-103,141,7,-147,18,-18,-62,-144,-243,-195
-81,-237,-155,159,37,-196,94,139,-16,-181,-297,-256
13,-137,-150,62,82,-143,22,472,347,166,-75,-134
378,457,79,-417,149,267,-445,112,631,929,718,585
624,1443,819,-1034,-98,1131,-1130,-654,1073,2365,2143,1799
110,1077,967,-594,-429,1020,-873,-997,518,1704,1639,1379
-369,26,395,171,-382,210,-162,-763,-537,-336,-176,-101
-248,-72,176,160,-212,52,-78,-252,-229,-245,-247,-222
-120,-138,-18,129,-51,-78,-23,5,-59,-146,-178,-176
-106,-208,-103,157,-1,-155,49,111,-76,-222,-284,-249
-76,-205,-130,141,27,-167,59,160,-1,-126,-225,-192
-45,-236,-191,141,73,-214,77,175,-37,-198,-274,-234
-43,-206,-164,125,61,-185,62,205,27,-122,-217,-194
-65,-221,-156,143,46,-188,68,204,11,-165,-243,-216
-34,-200,-167,117,67,-183,58,216,45,-124,-213,-197
-10,-205,-194,108,92,-199,58,240,56,-119,-213,-197
-14,-194,-181,104,84,-187,55,260,78,-82,-199,-191
-1,-186,-185,94,92,-185,70,285,100,-67,-182,-177
7,-180,-187,87,97,-184,75,317,127,-61,-161,-168
19,-169,-189,75,104,-179,66,356,164,-23,-131,-147
26,-165,-191,69,109,-178,63,407,196,24,-110,-122
50,-130,-180,40,115,-154,51,460,243,70,-77,-91
76,-91,-167,8,122,-129,51,522,287,116,-38,-62
101,-57,-159,-22,130,-108,36,585,347,182,12,-18
133,-12,-146,-60,140,-79,52,626,407,249,86,34
160,28,-131,-94,145,-51,61,637,453,310,135,81
165,74,-91,-119,127,-8,16,635,478,351,184,122
155,101,-53,-128,104,24,-21,619,473,388,213,154
163,109,-54,-136,108,27,-36,566,451,391,164,173
146,90,-56,-118,101,17,-65,482,402,338,155,140
133,90,-42,-111,87,24,-20,392,330,268,144,80
