I,II,III,aVR,aVL,aVF,V1,V2,V3,V4,V5,V6
247,78,-169,-163,208,-45,180,624,55,-145,-95,-70
225,79,-146,-152,185,-33,178,615,55,-145,-98,-71
209,94,-115,-151,162,-10,172,599,59,-144,-103,-67
193,89,-103,-141,148,-7,169,562,57,-151,-125,-80
165,74,-91,-119,128,-8,163,518,49,-172,-163,-104
126,36,-89,-81,108,-26,161,503,42,-169,-182,-117
57,-3,-59,-27,58,-31,164,488,34,-173,-205,-152
21,-23,-44,1,33,-33,157,466,27,-192,-218,-172
26,-26,-52,0,40,-38,149,451,21,-208,-239,-187
20,-26,-45,3,33,-35,141,438,14,-221,-251,-202
21,-22,-43,1,33,-33,134,422,8,-219,-242,-199
-12,-49,-37,31,12,-42,129,406,0,-223,-240,-203
8,-28,-36,10,22,-31,124,399,-3,-226,-231,-205
40,-1,-41,-19,40,-20,119,392,2,-224,-229,-205
-1,-40,-39,21,19,-39,115,385,8,-224,-221,-205
3,-42,-46,20,25,-44,110,377,13,-219,-219,-205
-4,-48,-44,26,20,-46,110,371,13,-221,-238,-205
-10,-53,-42,31,16,-47,110,374,8,-217,-238,-202
-3,-39,-37,21,17,-38,111,375,15,-204,-231,-199
-13,-48,-35,31,11,-41,156,375,25,-193,-230,-200
-9,-73,-64,41,28,-68,208,374,27,-183,-223,-196
2,-60,-63,30,33,-61,235,377,44,-179,-222,-195
11,-62,-72,26,42,-67,252,381,60,-173,-214,-195
35,-58,-93,12,64,-75,271,368,60,-169,-208,-190
33,-60,-92,14,63,-76,278,356,60,-161,-198,-196
-6,-86,-80,46,37,-83,282,356,60,-159,-192,-201
49,-31,-81,-9,65,-56,306,351,62,-150,-183,-192
38,-52,-90,7,64,-71,326,361,79,-134,-168,-191
-27,-94,-67,60,21,-81,335,361,91,-153,-188,-184
3,-78,-82,38,43,-80,335,333,88,-157,-196,-180
5,-83,-88,40,46,-85,334,321,85,-142,-186,-190
13,-77,-90,32,52,-83,335,315,82,-138,-188,-197
19,-75,-94,28,57,-84,335,304,80,-129,-179,-194
-6,-74,-68,40,31,-70,332,296,78,-129,-182,-195
9,-52,-61,22,35,-56,313,291,72,-123,-202,-220
18,-33,-52,8,35,-42,307,285,62,-121,-199,-221
44,6,-38,-24,41,-16,319,296,80,-115,-159,-204
66,33,-33,-49,49,0,308,302,117,-71,-128,-181
50,-19,-68,-15,59,-43,289,291,124,-66,-125,-157
86,14,-72,-50,79,-29,275,284,126,-73,-111,-156
93,19,-74,-56,84,-28,267,266,116,-88,-124,-176
90,-21,-110,-34,100,-65,263,227,73,-110,-156,-208
43,-33,-77,-5,60,-55,267,215,54,-114,-173,-213
1,-57,-58,28,30,-57,263,204,54,-131,-165,-201
-7,-62,-55,35,24,-58,265,181,50,-140,-157,-211
-29,-100,-72,65,22,-86,271,175,49,-158,-197,-233
-26,-93,-67,60,21,-79,232,137,42,-152,-189,-231
-92,-126,-34,109,-29,-80,240,166,59,-152,-165,-242
-86,-110,-24,98,-31,-66,227,156,60,-130,-165,-237
-67,-103,-36,85,-16,-69,229,211,56,-125,-202,-243
-6,-137,-131,72,63,-134,312,413,203,-57,-190,-247
174,77,-97,-125,136,-10,275,411,543,279,50,-63
698,606,-92,-652,395,256,-210,-2,701,731,721,584
880,951,71,-916,405,510,-770,-776,252,628,1054,987
161,636,475,-399,-158,555,-625,-1077,-284,-69,378,421
-160,228,389,-34,-275,308,-237,-640,-343,-363,-115,-58
-101,15,116,43,-109,66,-46,-231,-219,-309,-192,-169
-122,-66,56,93,-89,-5,55,-83,-115,-279,-256,-280
-76,-78,-2,77,-37,-40,87,-19,-54,-216,-203,-257
-74,-142,-67,108,-3,-104,135,41,-31,-209,-202,-261
-77,-172,-95,124,10,-133,139,66,-17,-196,-200,-260
-118,-185,-66,152,-26,-125,140,58,-19,-203,-211,-259
-108,-168,-60,138,-24,-114,141,54,-14,-217,-206,-273
-68,-168,-100,119,16,-134,143,48,-11,-202,-188,-256
-47,-160,-113,104,33,-136,211,42,-11,-192,-192,-248
-41,-143,-101,92,30,-122,260,37,-2,-198,-187,-253
-38,-145,-108,92,35,-126,271,29,13,-197,-185,-250
-29,-148,-119,89,45,-133,293,23,9,-191,-178,-243
-37,-176,-139,107,51,-157,310,14,4,-186,-173,-235
-31,-175,-144,103,57,-159,322,8,0,-185,-167,-226
-38,-170,-132,104,47,-151,343,0,7,-174,-162,-213
-40,-169,-129,105,45,-149,365,-7,3,-184,-173,-217
-12,-137,-125,75,57,-130,364,-18,-15,-194,-188,-228
-2,-126,-124,64,61,-125,359,-28,21,-158,-165,-195
19,-126,-145,53,83,-135,358,-31,34,-155,-131,-171
41,-109,-150,34,96,-129,351,-25,26,-135,-101,-151
40,-105,-146,33,93,-125,350,-12,54,-108,-60,-120
53,-96,-149,22,101,-122,340,-42,46,-109,-44,-109
78,-39,-117,-19,98,-77,330,-61,59,-70,-34,-83
128,10,-118,-68,123,-54,316,-72,80,-59,-9,-48
143,24,-119,-83,131,-48,313,-110,71,-73,-4,-37
124,19,-105,-72,114,-42,315,-135,71,-70,26,-42
91,2,-89,-46,90,-43,315,-165,66,-69,43,-37
61,-8,-69,-26,65,-39,337,-193,63,-71,0,-43
39,-50,-89,6,64,-70,347,-227,40,-108,-54,-103
-10,-78,-67,44,29,-72,347,-252,19,-133,-102,-133
-22,-76,-54,49,16,-65,351,-267,11,-137,-119,-135
-27,-98,-71,63,22,-84,343,-279,-1,-148,-111,-149
-34,-100,-66,68,16,-83,338,-286,-10,-162,-124,-157
-31,-95,-64,63,17,-79,331,-311,-25,-177,-139,-177
-36,-93,-58,65,11,-75,324,-320,-32,-172,-141,-180
-35,-89,-54,62,9,-71,318,-337,-45,-190,-140,-180
-53,-103,-50,78,-1,-76,313,-352,-54,-207,-141,-180
-65,-113,-49,89,-8,-81,310,-348,-56,-204,-162,-180
-46,-105,-59,76,6,-82,293,-371,-72,-202,-146,-192
-40,-97,-57,69,9,-76,273,-381,-76,-194,-127,-186
-49,-89,-40,69,-4,-64,262,-381,-74,-190,-145,-172
-50,-85,-35,68,-7,-60,253,-385,-72,-185,-139,-164
-50,-85,-35,68,-7,-60,242,-387,-69,-177,-131,-158
-50,-85,-35,68,-7,-60,231,-393,-71,-177,-120,-153
-50,-85,-35,68,-7,-60,214,-395,-77,-182,-107,-147
-50,-85,-35,68,-7,-60,192,-409,-81,-180,-99,-142
-52,-85,-33,69,-9,-59,177,-411,-80,-175,-91,-136
-54,-85,-31,70,-11,-57,168,-408,-80,-173,-90,-132
-57,-85,-28,71,-14,-56,157,-414,-80,-168,-89,-124
-41,-85,-44,63,2,-65,147,-413,-80,-165,-91,-122
-22,-85,-63,53,21,-73,137,-425,-82,-169,-88,-137
-27,-85,-58,56,16,-71,127,-452,-87,-170,-100,-141
-21,-83,-62,52,20,-72,118,-460,-90,-170,-112,-138
-17,-76,-59,47,21,-67,110,-449,-91,-175,-110,-143
-15,-72,-57,44,21,-64,100,-440,-89,-176,-122,-149
-20,-66,-46,43,13,-56,92,-429,-91,-174,-127,-143
-18,-60,-42,39,12,-51,87,-414,-87,-168,-123,-135
8,-55,-63,24,36,-59,80,-391,-71,-154,-116,-130
-4,-50,-46,27,21,-48,76,-383,-69,-132,-93,-117
14,-50,-64,18,39,-57,63,-380,-70,-123,-92,-106
39,-46,-84,4,62,-65,42,-373,-69,-120,-73,-95
32,-45,-77,6,55,-61,29,-399,-71,-114,-61,-96
36,-47,-82,6,59,-64,19,-417,-79,-133,-87,-113
-1,-78,-77,40,38,-77,12,-430,-110,-160,-100,-132
-4,-93,-89,49,43,-91,23,-438,-119,-175,-117,-155
-24,-81,-57,53,17,-69,25,-449,-122,-177,-111,-160
-67,-107,-40,87,-14,-73,21,-465,-143,-186,-135,-165
-61,-107,-46,84,-8,-76,10,-480,-145,-179,-138,-163
-68,-120,-51,94,-8,-85,8,-478,-150,-185,-135,-173
-60,-110,-51,85,-4,-80,-3,-486,-134,-166,-127,-167
-72,-105,-33,89,-19,-69,-2,-468,-141,-174,-123,-171
-35,-138,-103,87,34,-120,59,-355,-65,-145,-141,-181
28,-37,-66,5,47,-51,91,-278,261,102,-34,-104
363,409,47,-386,158,228,-184,-419,572,602,535,399
744,957,213,-851,265,585,-769,-1070,358,879,1246,1107
287,847,559,-567,-136,703,-894,-1657,-343,187,798,792
-184,373,557,-95,-370,465,-543,-1438,-665,-438,11,89
-127,102,229,12,-178,165,-292,-949,-494,-391,-118,-65
-126,-21,104,73,-115,41,-150,-696,-325,-322,-180,-150
-105,-54,51,79,-77,-2,-95,-601,-223,-238,-164,-161
-70,-96,-26,83,-22,-61,-71,-545,-189,-217,-158,-155
-58,-111,-53,85,-2,-81,-57,-515,-169,-203,-157,-160
-67,-121,-54,94,-6,-87,-49,-513,-151,-190,-137,-145
-64,-128,-64,96,0,-96,-44,-509,-147,-192,-143,-158
-62,-123,-60,93,0,-91,-23,-505,-149,-177,-131,-155
-88,-124,-36,106,-26,-80,17,-501,-148,-177,-135,-150
-72,-117,-45,95,-13,-81,43,-498,-142,-166,-125,-136
-65,-122,-57,94,-4,-89,86,-493,-140,-164,-125,-128
-51,-111,-59,81,4,-85,138,-487,-135,-157,-119,-119
-48,-110,-62,79,7,-86,189,-482,-133,-153,-113,-112
-72,-130,-58,101,-7,-94,216,-476,-127,-146,-110,-106
-60,-123,-63,92,2,-93,242,-471,-124,-141,-102,-94
-31,-107,-76,69,22,-91,268,-465,-119,-135,-97,-80
-7,-95,-88,51,41,-91,272,-455,-115,-125,-99,-65
23,-79,-102,28,63,-90,281,-445,-105,-115,-89,-38
20,-68,-88,24,54,-78,285,-434,-89,-98,-53,-21
49,-52,-101,2,75,-77,278,-429,-78,-73,-19,-3
84,-34,-118,-25,101,-76,269,-430,-67,-43,2,35
99,-7,-106,-46,103,-56,248,-430,-57,-30,25,63
143,37,-106,-90,124,-34,217,-430,-47,-13,46,95
154,54,-99,-104,126,-22,188,-430,-38,17,74,122
144,48,-96,-96,120,-24,184,-433,-30,29,90,136
117,28,-89,-72,102,-30,186,-438,-22,26,98,142
119,45,-74,-82,97,-15,184,-456,-13,20,101,134
120,80,-40,-99,80,19,208,-487,-12,14,72,133
67,57,-10,-62,38,23,235,-503,-18,9,43,124
37,29,-8,-33,22,10,250,-514,-23,4,23,95
15,11,-4,-13,9,3,257,-529,-26,-2,7,78
5,4,-1,-4,2,1,252,-533,-31,-9,-6,73
-6,-2,4,4,-5,1,249,-539,-35,-16,-18,65
-16,-9,6,12,-11,-1,246,-545,-35,-23,-14,61
-37,-16,21,27,-29,2,241,-544,-35,-22,-10,50
-70,-19,51,44,-60,16,239,-537,-35,-19,-25,59
-70,-15,55,42,-62,20,223,-550,-35,-20,-32,71
-64,-15,49,40,-56,17,202,-567,-35,-20,-29,62
-60,-13,47,36,-54,17,188,-562,-38,-20,-28,56
-51,-9,42,30,-47,16,175,-560,-40,-19,-23,49
-49,-10,39,30,-45,15,160,-557,-40,-13,-27,42
-64,-29,36,46,-50,3,147,-555,-40,-7,-35,39
-61,-30,31,46,-46,0,135,-552,-40,-2,-27,53
-45,-16,29,30,-37,6,125,-549,-39,4,3,62
-32,-8,24,20,-28,7,114,-550,-36,9,3,59
-20,2,22,9,-21,12,92,-546,-35,10,-4,60
-15,2,17,6,-16,9,76,-544,-35,10,4,60
-26,-11,15,18,-20,2,72,-546,-35,10,-15,60
-37,-21,15,29,-26,-3,67,-549,-35,10,-13,55
-35,-22,14,28,-24,-3,62,-550,-37,10,-4,55
-51,-19,32,34,-41,6,59,-549,-40,9,-2,54
-32,-20,12,25,-22,-4,50,-552,-40,5,7,49
-17,-31,-14,24,-1,-22,41,-562,-40,5,-9,51
-36,-39,-3,38,-16,-21,33,-565,-40,5,-18,47
-37,-38,-1,38,-18,-19,22,-565,-39,5,-15,44
-41,-35,6,38,-23,-15,16,-564,-36,5,-12,45
-47,-35,12,41,-29,-11,9,-565,-35,1,-9,41
-48,-35,13,41,-30,-11,3,-564,-35,0,-6,40
-46,-35,11,40,-28,-11,-4,-569,-35,0,-3,40
-44,-35,8,39,-25,-13,-11,-581,-36,0,-11,40
-38,-31,7,34,-23,-12,-19,-579,-32,0,-16,40
-26,-24,2,25,-14,-11,-38,-580,-24,1,-14,40
-35,-18,17,26,-26,0,-37,-579,-16,9,-9,40
-46,-12,34,28,-40,11,-32,-581,-8,20,-13,38
-27,-4,23,15,-24,10,-25,-576,0,30,-10,49
-16,1,16,7,-16,8,-21,-569,6,39,22,62
8,11,2,-9,3,6,-43,-562,16,45,48,68
29,11,-18,-20,23,-3,-62,-556,18,42,49,70
27,1,-26,-14,27,-12,-107,-578,10,33,44,70
64,27,-37,-45,50,-5,-131,-591,5,28,42,79
66,27,-39,-47,52,-6,-110,-577,-12,18,36,74
36,-8,-44,-14,40,-26,-105,-496,-32,14,36,66
11,-33,-44,12,27,-38,-98,-365,-40,5,27,53
-33,-43,-10,38,-11,-26,-100,-266,-40,5,20,36
-56,-42,15,49,-35,-13,-101,-177,-46,1,13,27
-62,-40,22,51,-42,-9,-97,-88,-44,-3,5,31
-69,-36,33,53,-51,-2,-104,-22,-33,-2,8,31
-65,-38,28,51,-46,-4,-89,38,-33,-10,-9,27
-62,-29,34,45,-47,3,-101,67,-17,22,-1,35
-65,-66,-1,65,-32,-33,-62,196,-9,14,-23,-1
-27,-69,-42,48,8,-55,51,447,175,124,5,-2
163,200,38,-182,62,119,-43,461,511,469,263,210
764,761,-3,-763,383,379,-680,34,574,898,927,855
884,1029,145,-957,369,587,-1265,-664,162,792,1210,1179
162,683,521,-423,-180,602,-996,-880,-360,70,524,620
-114,258,372,-72,-243,315,-527,-397,-425,-208,72,171
-79,75,154,2,-117,114,-310,12,-236,-119,26,68
-105,36,141,35,-123,88,-202,164,-131,-80,-37,9
-70,-11,58,40,-64,23,-174,270,-76,-26,-21,9
-97,-47,50,72,-73,1,-139,332,-59,-18,-14,-3
-85,-43,42,64,-63,0,-136,381,-44,1,-1,-2
-83,-46,37,64,-59,-5,-132,420,-37,1,-19,-6
-76,-44,33,60,-54,-5,-129,454,-28,8,-24,-5
-80,-56,24,68,-52,-16,-127,482,-21,15,-8,-4
-85,-61,23,73,-54,-19,-124,510,-18,17,0,-6
-75,-59,16,67,-45,-22,-122,540,-14,25,0,-3
-73,-57,16,64,-44,-20,-107,564,-11,24,6,-1
-64,-54,10,59,-36,-22,-89,589,-6,26,1,1
-62,-55,7,59,-34,-24,-60,617,-4,29,5,1
-52,-49,3,50,-27,-23,-22,642,2,30,5,6
-43,-44,-1,43,-21,-22,25,663,9,30,7,4
-31,-38,-7,35,-12,-22,70,682,16,29,17,11
-22,-33,-10,28,-6,-21,123,692,22,37,18,25
-12,-27,-15,20,2,-21,165,711,29,53,63,23
12,-8,-19,-2,16,-13,175,737,44,69,77,41
46,18,-27,-32,37,-4,175,757,64,90,74,54
86,42,-44,-64,65,-1,169,774,82,114,111,77
107,71,-36,-90,71,17,165,787,98,138,142,117
141,92,-48,-116,94,22,168,795,119,149,153,130
149,103,-46,-125,97,29,171,787,126,167,168,154
140,117,-23,-128,81,47,169,768,124,173,187,163
164,134,-30,-149,97,52,171,753,129,163,187,152
140,142,1,-141,69,71,169,730,130,158,172,145
101,124,22,-113,39,73,181,703,130,149,163,136
62,95,33,-79,14,64,200,678,118,143,136,117
16,72,56,-44,-20,64,211,657,98,136,98,92
-1,54,54,-27,-28,54,219,640,92,129,94,77
-10,46,56,-19,-33,51,214,623,88,123,109,63
-13,41,54,-15,-34,48,209,614,83,115,108,54
-20,36,56,-9,-38,46,203,611,79,109,101,56
-22,30,52,-4,-37,41,197,608,74,103,102,53
-21,26,47,-3,-35,36,192,604,70,100,105,50
-10,30,39,-10,-25,34,172,600,70,97,105,50
-8,30,38,-11,-23,34,157,597,69,95,101,48
-31,32,63,-1,-47,48,150,594,65,92,100,45
-30,35,66,-3,-48,51,142,591,64,89,100,42
-25,35,60,-5,-43,47,135,589,68,94,95,39
-24,35,59,-5,-42,47,126,586,70,95,95,35
-19,35,55,-8,-38,45,115,583,71,95,94,35
-20,35,54,-8,-37,44,103,599,74,100,85,40
-20,30,50,-5,-35,40,92,611,79,100,78,40
-23,25,48,-1,-36,36,83,611,82,101,65,40
-25,20,45,2,-35,32,72,616,80,105,83,40
-24,17,41,4,-33,28,62,610,80,105,111,42
-30,10,40,10,-35,25,52,604,80,105,106,45
-23,13,36,5,-30,24,44,600,80,105,101,45
-17,18,35,-1,-27,26,38,594,80,105,99,45
-20,14,35,3,-28,25,30,588,75,101,91,45
-20,15,35,2,-28,25,22,583,75,100,90,45
-21,15,36,2,-29,25,16,576,74,100,106,42
-17,15,32,1,-25,24,8,569,70,95,107,40
-37,15,52,11,-45,33,1,562,70,94,98,40
-52,10,63,21,-58,37,-6,554,70,97,97,40
-45,10,55,17,-50,32,-14,547,70,100,85,40
-45,10,55,17,-50,32,-21,540,69,100,89,40
-41,9,50,16,-45,29,-27,540,70,99,107,44
-40,10,50,15,-45,30,-30,540,69,101,112,45
-38,11,50,14,-44,30,-29,541,73,98,107,44
-20,30,50,-5,-36,40,-29,539,98,110,113,48
-2,43,45,-21,-24,44,-44,542,110,130,130,57
26,44,17,-35,4,30,-54,543,101,126,134,64
52,56,4,-54,24,30,-77,531,89,118,148,58
52,49,-3,-50,27,23,-108,519,78,114,145,50
43,34,-8,-38,25,13,-119,494,68,108,129,42
42,25,-17,-33,29,4,-123,473,61,100,120,34
16,2,-14,-9,15,-6,-121,451,55,91,113,28
-36,-15,21,25,-28,3,-116,438,46,78,105,21
-39,-18,21,28,-30,2,-117,425,43,74,104,19
-40,-16,25,27,-32,5,-109,415,32,65,94,11
-48,-7,42,28,-45,17,-112,410,43,76,97,11
-48,-9,40,29,-44,15,-113,408,36,63,89,2
-36,4,40,16,-38,22,-109,415,46,81,86,1
-47,-16,31,32,-39,8,-105,400,48,88,87,-6
-44,-66,-21,55,-11,-44,-15,573,97,90,48,-27
28,45,17,-37,5,31,76,734,411,326,156,47
472,490,18,-481,227,254,-300,482,647,738,620,472
1055,988,-67,-1020,561,460,-1115,-167,465,958,1204,1088
610,901,291,-756,159,596,-1267,-774,-59,451,938,913
-62,422,484,-180,-273,453,-737,-591,-373,-109,258,288
-88,128,216,-21,-152,172,-391,-51,-237,-98,110,85
-110,52,162,29,-136,107,-252,148,-94,-38,62,27
-109,17,126,46,-117,72,-192,247,-23,11,63,1
-83,-11,72,46,-77,30,-162,306,10,38,80,-8
-71,-12,58,41,-64,23,-154,332,26,47,63,-21
-61,-22,39,41,-50,8,-153,349,39,60,79,-25
-79,-28,50,53,-64,10,-146,338,32,51,53,-29
-76,-37,39,56,-57,1,-143,340,37,58,54,-22
-79,-38,41,58,-60,2,-140,333,34,53,45,-26
-74,-35,40,54,-56,2,-146,331,35,56,41,-19
-71,-35,36,53,-53,1,-145,329,37,58,35,-20
-74,-43,30,58,-52,-7,-145,330,44,66,29,-19
-79,-55,25,67,-52,-15,-145,330,50,70,53,-14
-68,-48,20,58,-44,-14,-144,330,49,70,71,-9
-56,-43,13,49,-34,-15,-146,330,53,69,70,-5
-47,-37,9,42,-28,-14,-161,330,55,79,68,0
-32,-31,1,31,-16,-15,-170,337,61,86,66,4
-18,-25,-7,22,-5,-16,-178,341,72,91,61,9
0,-15,-15,7,8,-15,-193,354,83,103,75,20
31,8,-23,-19,27,-7,-202,379,101,116,101,29
61,32,-29,-46,45,2,-223,390,123,146,119,51
107,60,-47,-83,77,6,-248,384,137,170,133,79
144,91,-53,-117,98,19,-266,376,150,183,165,106
144,104,-41,-124,92,31,-284,368,159,196,195,126
155,121,-34,-137,94,43,-299,361,154,199,200,134
146,124,-22,-135,84,51,-314,336,148,193,202,141
117,113,-5,-115,61,54,-319,294,144,184,190,140
95,107,12,-101,42,59,-310,256,137,176,172,129
64,93,28,-79,18,60,-305,214,133,166,150,106
23,61,38,-42,-7,49,-297,182,127,155,120,81
-5,39,44,-17,-25,41,-277,164,119,142,106,65
-17,31,48,-7,-33,39,-252,148,111,135,85,59
-28,16,45,6,-37,30,-215,132,103,132,75,56
-34,11,45,11,-40,28,-170,116,95,128,89,52
-37,7,44,14,-41,25,-99,105,90,124,84,49
-30,16,46,7,-38,30,0,93,86,121,78,45
-19,25,44,-3,-32,34,92,82,84,118,74,42
-28,15,42,6,-35,28,153,74,79,111,66,36
-44,10,53,17,-49,31,195,69,76,104,68,31
-49,2,51,23,-50,26,227,64,72,98,70,28
-48,-4,44,26,-46,20,254,58,70,90,70,22
-49,-9,40,28,-44,15,284,52,70,86,63,21
-49,-16,33,33,-41,8,296,48,70,83,56,25
-51,-22,29,36,-40,4,308,43,70,80,49,29
-54,-30,24,42,-39,-3,320,40,69,77,42,30
-54,-33,21,44,-37,-6,319,37,66,75,32,32
-48,-30,18,38,-33,-6,328,32,63,73,32,36
-38,-25,13,31,-25,-6,336,29,61,68,44,33
-34,-23,10,29,-22,-6,339,23,57,62,39,30
-24,-18,6,20,-15,-6,344,15,55,59,32,30
-15,-15,0,15,-7,-7,346,9,52,53,29,28
-18,-26,-8,23,-5,-17,359,1,46,51,20,24
-15,-32,-16,24,0,-23,365,-7,41,56,24,25
-14,-29,-15,22,0,-21,365,-8,36,52,32,27
-17,-27,-10,22,-3,-18,366,-2,30,46,24,25
-15,-24,-10,19,-2,-16,363,3,24,41,9,25
-22,-25,-3,24,-9,-14,383,6,33,35,4,23
-31,-40,-10,36,-10,-25,398,12,40,30,16,19
-26,-46,-20,36,-2,-32,391,15,32,24,9,20
-26,-46,-20,36,-2,-32,390,21,28,19,-4,20
-35,-55,-20,45,-7,-37,387,28,21,14,3,20
-37,-55,-19,46,-8,-37,383,31,15,8,15,20
-28,-53,-25,40,-1,-38,393,36,19,2,12,20
-23,-50,-27,37,2,-38,405,39,18,2,-11,19
-25,-49,-24,37,0,-36,401,44,25,12,-2,22
-30,-38,-8,34,-11,-23,393,49,41,17,32,33
7,-24,-31,9,19,-27,389,62,37,24,40,38
41,-17,-59,-12,51,-38,382,71,30,33,50,39
59,-10,-69,-24,64,-39,342,61,25,25,47,30
83,-15,-98,-34,90,-56,309,48,21,13,41,21
69,-33,-102,-18,85,-67,307,38,8,-3,32,12
46,-51,-97,3,72,-74,301,27,-8,-22,0,4
-7,-64,-57,36,25,-60,298,17,-18,-46,-37,-5
-48,-87,-40,68,-4,-63,293,9,-27,-49,-48,-7
-61,-114,-52,88,-4,-83,287,-5,-38,-62,-46,-11
-64,-106,-42,86,-11,-74,283,-7,-35,-72,-41,-15
-62,-101,-40,82,-11,-70,270,-23,-29,-66,-27,-16
-68,-104,-36,87,-16,-70,268,-16,-29,-71,-35,-25
-61,-86,-26,74,-17,-55,253,-18,-16,-51,-4,-5
-54,-117,-63,86,5,-90,268,50,-27,-77,-43,-34
10,-113,-123,52,67,-118,353,238,141,36,-39,-52
186,117,-68,-151,127,24,300,251,492,372,203,140
708,663,-44,-685,376,309,-231,-151,610,821,881,804
801,969,168,-885,316,568,-769,-913,179,707,1180,1156
84,632,548,-359,-232,590,-611,-1197,-382,-38,462,559
-162,229,391,-34,-276,310,-237,-751,-448,-283,18,125
-77,27,104,25,-91,65,-49,-343,-280,-224,-54,33
-118,-52,66,85,-92,7,46,-181,-166,-204,-115,-44
-85,-85,0,85,-42,-42,75,-110,-106,-132,-76,-33
-83,-114,-30,99,-27,-72,92,-71,-82,-129,-97,-44
-63,-118,-55,90,-4,-86,79,-58,-65,-115,-78,-43
-63,-134,-70,99,3,-102,72,-62,-68,-123,-82,-57
-59,-128,-69,93,5,-99,63,-56,-61,-119,-77,-55
-60,-129,-69,95,5,-99,52,-56,-60,-120,-69,-53
-78,-140,-62,110,-8,-101,44,-54,-53,-121,-69,-51
-55,-137,-82,97,13,-109,30,-58,-60,-119,-61,-48
-43,-134,-91,89,24,-112,21,-70,-71,-122,-58,-53
-41,-130,-90,85,24,-110,6,-68,-64,-117,-57,-49
-36,-127,-90,81,27,-108,-6,-64,-61,-116,-67,-50
-33,-123,-90,78,29,-106,-21,-61,-56,-112,-77,-50
-30,-120,-90,75,30,-105,-39,-56,-51,-110,-63,-50
-27,-120,-93,74,33,-106,-52,-54,-47,-107,-60,-51
-12,-120,-108,66,48,-113,-66,-46,-39,-98,-62,-40
-2,-122,-120,62,59,-120,-76,-38,-31,-90,-28,-17
11,-107,-119,48,65,-113,-92,-30,-23,-81,-21,-1
54,-72,-126,9,90,-99,-120,-21,-15,-62,-4,14
95,-47,-142,-23,119,-94,-149,-21,-8,-36,34,33
118,-24,-142,-47,130,-83,-182,-19,3,-22,75,70
131,-1,-133,-65,132,-67,-221,-22,11,-8,99,91
137,12,-125,-74,131,-56,-235,-33,25,5,109,110
143,26,-118,-84,130,-46,-239,-46,35,17,141,134
133,26,-107,-79,120,-40,-240,-75,27,23,117,122
104,15,-89,-59,96,-37,-233,-102,21,3,90,108
64,5,-59,-34,61,-27,-229,-129,14,-8,80,86
23,-12,-35,-5,29,-23,-214,-159,8,-32,56,54
4,-31,-35,14,20,-33,-177,-188,2,-59,37,32
-19,-54,-35,37,8,-45,-78,-160,-6,-64,-10,18
-45,-80,-35,63,-5,-57,20,-85,-12,-92,-45,13
-53,-89,-36,72,-9,-62,88,-32,-20,-101,-46,6
-52,-85,-33,69,-9,-59,149,11,-28,-100,-44,-1
-49,-80,-31,65,-9,-55,175,45,-34,-99,-46,-7
-48,-75,-27,62,-10,-51,200,71,-43,-103,-44,-13
-46,-72,-25,60,-10,-48,225,95,-50,-125,-45,-23
-44,-65,-21,55,-12,-43,236,113,-51,-127,-62,-32
-50,-70,-20,60,-14,-45,253,130,-55,-131,-72,-31
-73,-89,-16,81,-28,-52,266,136,-59,-136,-60,-28
-88,-102,-15,96,-36,-58,268,152,-61,-133,-62,-26
-78,-105,-27,91,-25,-66,271,170,-60,-127,-66,-22
-67,-98,-31,83,-18,-65,269,180,-58,-124,-61,-20
-65,-95,-29,80,-18,-61,263,196,-55,-119,-57,-18
-60,-90,-30,76,-15,-60,256,201,-55,-114,-41,-13
-41,-85,-44,63,2,-64,249,216,-59,-120,-43,-10
-35,-86,-51,61,9,-68,243,229,-60,-125,-45,-7
-41,-83,-42,62,1,-63,235,233,-61,-125,-49,-2
-53,-93,-40,73,-6,-66,227,236,-59,-123,-64,1
-71,-106,-35,89,-18,-71,221,236,-64,-129,-57,-11
-75,-104,-29,90,-22,-66,214,244,-74,-123,-62,-18
-67,-105,-38,86,-14,-71,203,250,-77,-126,-59,-15
-58,-105,-47,82,-5,-76,190,250,-79,-146,-59,-15
-65,-109,-44,87,-10,-76,180,250,-83,-144,-72,-12
-64,-110,-46,88,-9,-77,172,250,-85,-145,-65,-9
-66,-110,-45,89,-11,-77,164,249,-85,-145,-69,-11
-69,-115,-45,93,-12,-80,156,251,-85,-150,-83,-20
-71,-116,-45,94,-12,-80,149,245,-85,-153,-81,-20
-67,-113,-46,91,-10,-80,134,247,-85,-139,-66,-9
-30,-90,-60,60,15,-75,118,261,-68,-136,-65,-6
-18,-77,-59,47,21,-68,98,268,-52,-113,-52,6
-16,-81,-66,49,25,-74,68,290,-56,-90,-30,31
3,-79,-82,38,43,-81,48,292,-54,-100,-32,34
-4,-80,-77,42,37,-78,28,269,-56,-107,-19,22
-5,-80,-75,43,34,-77,2,259,-70,-121,-32,12
-9,-80,-71,44,31,-75,-7,250,-86,-134,-53,3
-32,-99,-67,66,18,-83,-13,247,-103,-154,-60,-8
-54,-116,-62,85,4,-89,-30,241,-106,-161,-85,-16
-78,-133,-55,106,-11,-94,-32,233,-110,-161,-101,-34
-84,-137,-53,111,-15,-95,-28,233,-111,-162,-105,-43
-91,-132,-41,112,-24,-87,-37,220,-102,-153,-103,-36
-94,-139,-45,117,-24,-92,-42,231,-103,-159,-108,-41
-101,-128,-27,115,-37,-77,-51,217,-92,-141,-85,-27
-84,-150,-66,118,-9,-108,-30,288,-78,-153,-100,-45
-29,-135,-106,82,39,-120,48,478,96,-37,-77,-53
103,108,5,-105,48,57,-8,483,459,324,173,143
603,666,62,-635,270,364,-507,71,592,833,910,846
690,974,284,-832,202,629,-940,-660,141,732,1241,1225
31,615,583,-323,-276,599,-674,-922,-475,-99,448,579
-190,200,390,-5,-290,294,-246,-485,-559,-406,-65,104
-122,6,128,57,-125,67,12,-72,-347,-298,-93,25
-153,-65,88,109,-120,11,168,92,-221,-239,-142,-51
-117,-93,25,105,-70,-34,224,179,-143,-171,-109,-38
-112,-133,-22,123,-45,-77,283,226,-110,-171,-129,-50
-99,-136,-36,118,-31,-86,309,243,-96,-151,-127,-43
-99,-140,-42,120,-28,-91,322,247,-93,-147,-122,-45
-90,-140,-51,115,-19,-96,333,249,-87,-136,-120,-46
-96,-151,-55,124,-20,-103,346,251,-81,-130,-112,-40
-99,-154,-54,127,-22,-104,352,248,-77,-128,-109,-41
-89,-145,-56,117,-16,-100,349,255,-70,-121,-118,-38
-88,-142,-54,115,-16,-98,351,269,-65,-119,-126,-36
-78,-134,-56,107,-11,-95,349,271,-60,-112,-115,-35
-76,-130,-54,104,-11,-92,351,268,-54,-107,-115,-34
-68,-125,-57,97,-5,-91,345,275,-48,-97,-108,-39
-66,-125,-59,96,-3,-92,335,284,-44,-90,-105,-43
-54,-125,-71,90,9,-98,325,289,-36,-80,-98,-33
-44,-126,-82,85,20,-104,315,289,-29,-70,-91,-22
-36,-120,-84,78,24,-102,302,294,-23,-53,-79,-10
12,-90,-102,39,58,-96,292,314,-14,-29,-50,2
56,-60,-116,2,86,-88,271,332,0,-7,-11,26
89,-30,-119,-29,104,-75,237,345,15,31,30,62
126,-3,-129,-62,128,-65,204,347,28,54,48,93
135,11,-124,-72,129,-56,173,337,43,65,71,113
148,36,-112,-92,130,-38,149,330,53,90,91,137
158,57,-101,-107,129,-22,144,323,65,103,111,160
127,44,-84,-85,105,-20,146,312,70,98,118,155
89,30,-59,-59,74,-14,144,292,63,87,97,133
52,14,-38,-33,45,-12,153,264,60,78,78,107
0,-26,-25,13,12,-25,169,243,55,67,48,82
-27,-39,-12,33,-7,-25,178,231,51,59,-2,65
-35,-41,-6,38,-14,-23,177,220,46,53,-34,57
-65,-63,1,64,-33,-31,170,212,45,45,-34,51
-73,-65,7,69,-39,-29,165,206,45,37,-43,43
-76,-61,15,68,-45,-23,160,199,40,32,-46,36
-79,-59,19,69,-49,-20,142,192,39,34,-39,30
-71,-56,15,63,-43,-20,117,186,42,35,-40,30
-68,-54,14,61,-41,-20,102,181,45,38,-33,30
-65,-56,9,61,-37,-23,88,180,45,41,-38,30
-79,-65,14,72,-46,-25,77,179,45,39,-54,30
-92,-65,27,78,-59,-19,67,175,45,40,-55,30
-88,-65,23,76,-55,-20,57,174,45,40,-50,34
-85,-65,20,75,-52,-22,46,175,45,40,-50,35
-82,-65,17,73,-49,-24,29,174,45,40,-44,37
-76,-64,12,70,-44,-26,14,175,45,40,-46,41
-69,-60,9,64,-39,-25,-1,175,45,47,-58,40
-64,-58,6,61,-35,-26,-11,175,45,50,-50,40
-57,-54,3,55,-29,-25,-26,183,50,51,-33,40
-62,-62,0,62,-31,-30,-42,186,50,55,-32,40
-72,-75,-3,74,-34,-39,-50,184,50,55,-44,40
-70,-75,-5,73,-32,-40,-68,185,50,50,-45,40
-67,-75,-8,71,-29,-41,-81,185,50,50,-40,40
-63,-75,-11,69,-26,-43,-90,184,50,49,-40,40
-67,-75,-8,71,-29,-41,-97,181,50,45,-34,40
-69,-74,-5,72,-31,-39,-104,178,50,46,-37,40
-67,-69,-3,68,-32,-36,-115,175,50,42,-54,40
-71,-70,0,71,-36,-35,-114,172,50,40,-55,38
-69,-68,2,68,-35,-33,-85,170,50,40,-50,35
-71,-64,7,67,-39,-28,-7,168,47,40,-49,35
-75,-66,9,71,-42,-28,85,162,45,40,-44,35
-66,-60,6,62,-36,-26,138,157,45,40,-48,35
-68,-65,3,66,-35,-30,179,154,45,45,-60,35
-77,-77,1,77,-38,-38,227,149,45,44,-60,38
-70,-73,-3,72,-33,-38,263,144,45,49,-55,41
-65,-70,-5,68,-30,-37,289,140,49,60,-54,39
-65,-67,-3,66,-31,-35,309,140,50,60,-50,41
-66,-65,1,65,-33,-32,325,139,50,60,-48,45
-66,-63,3,64,-34,-29,338,134,50,60,-62,45
-66,-60,6,62,-36,-26,348,135,49,62,-65,45
-66,-56,9,61,-37,-23,364,132,52,66,-57,53
-65,-55,10,60,-37,-22,366,129,56,65,-57,56
-71,-50,21,60,-46,-14,364,130,55,65,-50,54
-78,-51,27,64,-52,-12,373,126,55,65,-50,55
-88,-64,24,75,-55,-20,380,125,55,65,-60,55
-91,-66,26,78,-58,-20,388,124,56,69,-58,55
-89,-65,25,76,-56,-20,390,121,59,71,-45,55
-91,-65,25,77,-57,-20,391,118,60,75,-42,55
-88,-65,23,76,-55,-21,403,115,60,75,-53,55
-83,-64,19,74,-51,-22,406,112,59,74,-50,54
-77,-57,21,67,-49,-18,405,110,61,75,-43,56
-67,-48,19,58,-43,-14,405,112,60,74,-35,53
-60,-40,20,50,-39,-9,406,122,75,100,-35,64
-45,-25,20,35,-32,-2,403,124,92,120,-32,81
-28,-20,8,24,-18,-5,399,116,87,119,-21,80
-16,-24,-8,20,-4,-15,380,109,80,129,-26,80
13,-11,-25,-1,19,-18,343,103,75,123,-14,78
21,-9,-29,-6,25,-19,334,95,70,112,4,75
8,-24,-32,8,20,-28,334,91,64,102,4,75
-21,-37,-15,29,-3,-26,328,79,58,95,-15,72
-71,-48,22,59,-47,-13,340,71,49,86,-49,65
-82,-57,25,69,-54,-16,334,60,46,83,-49,63
-90,-67,23,78,-56,-22,328,49,35,72,-45,56
-83,-64,19,74,-51,-22,320,42,38,69,-45,54
-82,-65,17,73,-49,-24,310,33,40,67,-37,49
-82,-67,15,74,-48,-26,310,51,39,69,-44,48
-77,-60,17,68,-46,-21,291,31,49,86,-47,56
-66,-93,-26,80,-19,-60,352,171,76,77,-74,20
4,-51,-55,24,30,-53,460,370,332,256,-6,46
309,327,18,-318,146,172,213,176,618,643,355,366
914,896,-19,-905,467,438,-580,-422,546,997,1038,1051
747,956,209,-852,269,583,-960,-1073,66,675,1051,1135
-12,467,478,-228,-245,472,-494,-1041,-364,-35,269,456
-141,114,255,14,-198,184,-89,-495,-302,-137,-37,130
-119,25,143,47,-131,84,59,-224,-125,-34,-64,81
-141,-12,129,76,-135,59,139,-116,-45,2,-104,47
-113,-52,61,82,-87,4,163,-30,9,56,-74,45
-129,-83,46,106,-87,-18,173,-14,34,51,-89,24
-106,-82,23,94,-64,-29,161,0,39,65,-70,34
-113,-79,34,96,-74,-22,159,16,37,64,-75,26
-100,-75,26,87,-62,-24,152,28,57,65,-65,26
-97,-72,25,84,-61,-23,146,22,54,65,-54,25
-93,-67,26,79,-59,-20,132,19,50,75,-68,25
-85,-65,20,75,-52,-22,118,16,49,82,-81,25
-96,-75,21,85,-58,-27,99,10,44,78,-79,24
-92,-74,19,83,-55,-27,76,12,47,81,-74,25
-83,-67,16,75,-49,-25,60,20,50,79,-74,25
-77,-63,15,69,-46,-24,44,20,54,81,-68,25
-71,-56,14,63,-42,-21,28,21,61,83,-70,31
-58,-51,8,54,-33,-21,13,26,66,88,-73,38
-57,-55,2,55,-29,-26,-6,25,72,100,-61,40
-50,-53,-2,52,-24,-27,-30,28,88,111,-46,47
-20,-30,-9,25,-5,-19,-50,37,103,127,-43,57
20,6,-14,-12,17,-4,-73,53,119,150,-15,82
50,35,-15,-42,32,9,-104,54,141,178,25,109
80,57,-23,-68,52,17,-141,45,160,207,51,137
114,90,-24,-102,69,33,-175,37,169,227,73,164
128,111,-17,-119,72,46,-201,29,181,237,88,176
138,122,-16,-129,76,53,-214,19,186,243,102,188
132,127,-5,-130,68,61,-214,-3,179,237,93,182
116,121,6,-119,55,63,-209,-29,172,227,83,172
81,102,21,-92,30,61,-203,-62,166,218,67,164
26,70,44,-48,-9,57,-198,-90,159,197,25,134
-6,39,45,-17,-25,42,-192,-113,147,177,-2,107
-22,25,47,-2,-35,36,-188,-138,132,161,-2,93
-31,20,51,6,-42,36,-185,-147,116,145,-9,80
-38,12,49,13,-44,30,-185,-163,100,137,-37,74
-46,5,51,21,-49,28,-197,-172,94,131,-50,69
-52,-3,49,28,-50,23,-212,-181,91,124,-50,65
-53,-1,52,27,-52,25,-217,-197,87,117,-50,60
-41,4,45,19,-44,24,-222,-204,84,111,-50,55
-48,0,48,24,-48,23,-237,-212,79,113,-51,58
-61,0,61,30,-61,31,-241,-208,84,115,-46,61
-54,0,55,27,-55,27,-239,-216,85,115,-58,65
-50,0,50,25,-50,25,-241,-221,85,115,-73,64
-47,1,47,23,-47,24,-239,-219,85,115,-69,59
-44,-5,40,24,-42,17,-243,-221,83,113,-68,56
-58,-13,45,35,-51,16,-246,-219,92,110,-65,53
-70,-19,51,45,-60,15,-228,-221,96,110,-64,48
-74,-24,50,49,-61,13,-146,-216,94,110,-75,45
-69,-19,50,44,-60,15,-39,-215,92,110,-81,50
-66,-16,50,41,-57,17,30,-220,89,110,-75,51
-63,-13,50,38,-56,18,82,-216,90,113,-73,47
-56,-8,48,32,-52,20,118,-227,85,112,-69,45
-50,-5,45,27,-47,20,153,-243,82,108,-63,41
-38,4,42,17,-40,23,186,-243,79,106,-69,40
-35,4,39,15,-38,21,197,-250,74,103,-76,36
-36,-1,35,18,-36,17,219,-255,71,100,-72,35
-38,-3,35,20,-36,16,238,-254,67,98,-69,35
-48,-8,39,28,-43,15,242,-269,65,95,-67,30
-51,-10,41,30,-46,16,255,-281,61,95,-63,30
-66,-20,45,42,-55,12,262,-279,59,92,-72,29
-71,-28,43,49,-56,7,261,-282,55,89,-82,25
-64,-24,40,44,-51,7,261,-285,55,90,-77,25
-62,-26,37,44,-49,6,259,-284,62,86,-74,25
-58,-25,34,41,-46,5,261,-288,61,82,-72,25
-56,-25,31,41,-43,2,260,-292,55,79,-67,25
-53,-25,29,39,-41,1,260,-296,50,76,-77,21
-62,-19,42,40,-52,11,256,-301,47,70,-86,20
-65,-14,51,39,-58,18,249,-307,40,71,-80,20
-57,-7,50,32,-53,21,243,-314,46,74,-77,16
-57,-7,50,32,-53,21,236,-315,56,70,-74,14
-64,-14,50,39,-57,18,229,-316,55,70,-68,16
-71,-21,50,46,-60,15,223,-320,55,70,-72,20
-54,-7,47,30,-50,19,213,-324,55,70,-81,20
-41,4,44,18,-43,24,201,-331,55,70,-75,20
-48,-3,45,25,-46,21,190,-338,53,70,-72,23
-48,-7,41,27,-44,17,178,-343,49,70,-69,29
-51,-12,39,32,-45,13,163,-348,50,70,-63,30
-57,-16,41,36,-48,12,151,-349,50,69,-70,30
-48,-22,27,35,-37,2,139,-344,49,71,-68,30
-30,4,34,13,-32,19,132,-343,72,84,-55,30
-3,41,44,-19,-24,43,122,-339,86,104,-49,48
22,45,23,-34,-1,34,115,-337,78,113,-46,55
33,45,12,-39,10,28,91,-334,74,103,-50,45
35,38,3,-36,15,20,51,-334,71,91,-50,39
37,28,-9,-32,23,9,37,-362,63,81,-49,32
40,16,-24,-28,31,-4,35,-373,44,69,-51,24
29,2,-27,-15,28,-12,28,-392,36,64,-60,18
-10,-12,-2,11,-3,-7,26,-405,26,52,-68,19
-51,-26,24,38,-37,-1,20,-418,19,48,-55,17
-62,-37,25,49,-43,-6,13,-439,13,37,-84,-8
-65,-39,26,51,-45,-6,-4,-440,17,36,-100,-6
-88,-45,43,66,-66,-1,-22,-444,14,37,-79,-5
-65,-34,30,49,-47,-2,-43,-433,15,43,-87,-7
-48,-28,20,37,-34,-4,-67,-441,23,50,-94,2
-40,-69,-29,55,-5,-49,-9,-299,46,38,-102,-37
-7,-13,-6,10,0,-10,79,-116,306,223,-14,2
305,351,45,-328,130,198,-145,-285,609,616,350,341
962,911,-51,-936,506,430,-895,-892,517,931,1006,1000
754,981,228,-868,263,604,-1261,-1565,29,589,977,1053
5,521,516,-263,-255,518,-818,-1513,-368,-63,229,397
-106,164,270,-29,-188,217,-444,-971,-315,-167,-57,88
-99,49,149,25,-124,99,-287,-692,-152,-88,-91,23
-99,25,124,37,-111,74,-214,-587,-82,-49,-120,-19
-70,-25,45,47,-57,10,-203,-511,-39,-18,-100,-23
-100,-55,45,77,-72,-5,-190,-478,-24,-25,-109,-41
-98,-67,31,82,-64,-17,-198,-470,-18,-11,-108,-32
-107,-77,29,92,-68,-24,-188,-470,-14,-14,-128,-38
-94,-74,20,84,-57,-26,-190,-465,-8,-4,-116,-34
-87,-74,14,80,-50,-30,-192,-461,-1,-6,-112,-35
-78,-69,9,73,-43,-30,-193,-463,-5,-5,-108,-44
-70,-71,-1,70,-35,-36,-202,-469,-16,-5,-98,-50
-62,-66,-4,64,-29,-35,-209,-456,-15,-5,-106,-50
-50,-65,-15,58,-17,-40,-213,-444,-15,-5,-126,-52
-53,-65,-11,59,-20,-38,-226,-433,-12,-11,-125,-56
-55,-66,-11,61,-22,-38,-233,-420,-9,-7,-112,-55
-41,-74,-33,58,-4,-54,-245,-409,-11,-1,-118,-50
-26,-67,-42,46,8,-54,-254,-397,-3,5,-110,-41
-22,-61,-39,42,9,-50,-261,-387,4,9,-96,-33
-14,-53,-39,34,13,-46,-280,-377,14,22,-99,-25
18,-33,-51,8,35,-42,-292,-367,32,38,-76,-8
50,-12,-61,-19,56,-36,-315,-369,48,52,-26,12
76,7,-70,-41,73,-31,-346,-370,60,71,-4,36
109,33,-77,-71,93,-22,-371,-369,74,97,-1,62
127,61,-66,-94,97,-3,-394,-370,91,117,33,83
139,77,-61,-108,100,8,-416,-368,96,125,68,107
146,92,-54,-119,100,19,-427,-379,89,125,86,110
142,95,-47,-118,94,23,-425,-395,83,115,88,101
132,90,-42,-110,87,23,-421,-423,76,103,43,98
99,72,-28,-85,63,22,-403,-448,69,93,29,83
59,39,-20,-49,39,9,-355,-470,63,73,10,58
25,10,-15,-17,20,-2,-258,-485,57,52,-22,38
4,-8,-12,2,8,-10,-154,-493,48,39,-31,17
-7,-14,-6,11,0,-10,-84,-500,37,27,-70,0
-33,-21,12,27,-23,-4,-25,-502,27,18,-79,-10
-44,-29,15,36,-30,-6,25,-523,19,10,-89,-21
-44,-36,8,40,-26,-14,65,-531,13,2,-91,-21
-47,-42,4,44,-25,-19,94,-530,6,-6,-55,-20
-43,-46,-2,45,-20,-24,124,-535,-1,-12,-56,-19
-36,-44,-8,40,-13,-26,150,-535,-7,-19,-87,-23
-43,-51,-8,47,-17,-29,173,-537,-12,-28,-98,-29
-53,-53,0,53,-26,-27,194,-534,-18,-31,-94,-39
-45,-41,5,43,-25,-18,199,-535,-20,-37,-95,-51
-58,-58,-1,58,-28,-29,209,-531,-20,-41,-101,-49
-60,-66,-7,63,-26,-36,228,-529,-20,-43,-105,-52
-55,-65,-11,60,-21,-38,238,-530,-20,-46,-96,-56
-63,-81,-18,72,-23,-49,244,-525,-20,-40,-95,-54
-55,-77,-22,67,-16,-50,245,-525,-21,-40,-88,-52
-46,-74,-28,61,-9,-51,245,-524,-24,-40,-84,-47
-41,-71,-31,56,-5,-51,245,-525,-25,-40,-98,-45
-36,-66,-29,51,-3,-47,244,-524,-25,-40,-100,-41
-34,-65,-31,49,-1,-48,239,-526,-27,-38,-89,-36
-28,-55,-28,42,0,-41,234,-542,-31,-53,-81,-34
-25,-66,-41,46,8,-53,230,-546,-28,-61,-87,-28
-24,-82,-58,54,17,-69,225,-544,-38,-69,-90,-40
-26,-79,-53,53,13,-65,221,-550,-56,-81,-91,-56
-30,-80,-50,55,10,-66,216,-549,-55,-79,-104,-55
-32,-80,-48,56,8,-63,210,-551,-55,-83,-106,-54
-36,-80,-44,58,4,-62,204,-555,-55,-86,-103,-50
-41,-88,-48,65,3,-68,199,-554,-58,-84,-102,-50
-40,-91,-51,65,5,-71,193,-555,-66,-86,-98,-50
-40,-89,-49,65,5,-69,180,-553,-67,-83,-103,-50
-40,-90,-51,65,5,-71,162,-560,-74,-92,-106,-50
-41,-90,-49,65,4,-69,148,-575,-74,-102,-107,-51
-45,-91,-46,68,0,-68,137,-593,-69,-95,-118,-60
-51,-96,-45,74,-3,-70,125,-598,-65,-91,-114,-53
-43,-88,-45,66,1,-66,113,-594,-59,-86,-105,-44
-22,-68,-46,46,12,-57,101,-596,-56,-81,-99,-37
-5,-48,-43,27,19,-45,91,-591,-50,-82,-90,-28
31,-41,-72,5,51,-56,74,-592,-51,-85,-79,-25
57,-37,-93,-10,75,-64,52,-586,-49,-89,-72,-24
55,-28,-84,-13,70,-56,34,-609,-53,-90,-68,-26
29,-53,-82,12,56,-67,18,-637,-71,-98,-74,-24
-1,-77,-76,39,38,-77,4,-642,-91,-125,-107,-39
-24,-96,-72,60,25,-84,-4,-640,-118,-155,-127,-66
-42,-107,-65,75,11,-86,-13,-654,-123,-155,-119,-65
-55,-111,-57,83,1,-84,-23,-623,-125,-163,-135,-82
-65,-118,-53,92,-6,-85,-29,-490,-118,-169,-147,-86
-66,-118,-53,92,-6,-85,-52,-392,-114,-164,-140,-83
-57,-115,-58,87,1,-86,-69,-311,-111,-162,-141,-89
-55,-104,-50,80,-3,-76,-83,-265,-103,-147,-138,-77
-60,-140,-80,100,10,-109,-65,-120,-102,-161,-156,-103
-40,-120,-80,80,20,-100,12,105,98,-22,-113,-91
159,152,-6,-155,82,73,-88,94,465,366,188,149
694,739,45,-717,324,392,-634,-343,548,824,914,853
657,980,323,-819,167,651,-1057,-1058,32,581,1060,1087
-25,581,606,-278,-316,593,-839,-1194,-508,-175,292,419
-167,214,381,-24,-275,297,-516,-693,-514,-368,-94,42
-96,31,127,32,-112,79,-340,-298,-343,-301,-137,-39
-130,-45,86,87,-108,20,-238,-134,-227,-248,-183,-102
-87,-75,12,81,-49,-32,-212,-38,-175,-193,-165,-88
-84,-110,-26,97,-29,-68,-201,22,-152,-180,-170,-100
-77,-117,-40,97,-19,-78,-207,53,-134,-154,-153,-86
-87,-133,-46,110,-20,-89,-208,77,-135,-163,-153,-90
-82,-126,-43,104,-19,-84,-211,89,-125,-153,-143,-83
-63,-123,-60,94,-1,-92,-209,106,-122,-153,-137,-89
-54,-120,-66,88,6,-93,-211,120,-115,-150,-136,-102
-50,-114,-64,82,8,-89,-224,125,-112,-147,-134,-98
-54,-119,-66,87,6,-92,-236,132,-109,-145,-133,-98
-56,-120,-64,89,4,-92,-239,144,-106,-144,-128,-93
-54,-120,-66,88,6,-93,-247,153,-103,-142,-131,-91
-50,-119,-69,84,10,-94,-260,158,-100,-139,-132,-89
-41,-114,-73,78,17,-94,-267,167,-99,-141,-120,-84
-39,-116,-76,78,19,-96,-283,177,-91,-129,-112,-79
-38,-112,-74,76,18,-93,-293,193,-83,-115,-104,-72
-10,-104,-94,57,42,-99,-311,206,-75,-102,-87,-75
12,-97,-108,43,60,-103,-329,226,-67,-82,-75,-56
31,-71,-103,21,67,-87,-350,247,-59,-63,-47,-22
87,-30,-116,-28,102,-73,-386,258,-46,-40,-17,-2
127,5,-123,-66,125,-59,-405,271,-35,-17,20,35
131,17,-114,-73,122,-49,-428,270,-29,2,58,64
140,32,-107,-86,123,-37,-452,260,-26,15,61,73
154,52,-101,-103,128,-24,-456,250,-23,27,73,82
147,59,-88,-103,117,-14,-452,239,-18,34,99,86
118,50,-68,-83,93,-9,-447,224,-15,25,84,70
82,25,-57,-53,69,-16,-444,207,-18,15,35,43
47,-1,-48,-23,48,-24,-427,195,-23,5,17,13
16,-24,-40,4,28,-32,-411,187,-26,-11,-8,-17
-2,-34,-32,18,16,-33,-409,181,-30,-28,-40,-35
-22,-46,-24,34,1,-35,-406,173,-33,-39,-41,-44
-35,-53,-18,44,-9,-35,-403,166,-38,-43,-53,-51
-38,-51,-12,45,-13,-31,-400,159,-40,-44,-57,-55
-53,-60,-7,57,-23,-33,-399,154,-40,-40,-53,-55
-56,-60,-4,59,-26,-32,-394,148,-40,-40,-52,-55
-61,-60,2,60,-31,-29,-402,144,-40,-40,-48,-59
-65,-60,5,62,-35,-27,-416,140,-40,-40,-51,-60
-60,-60,0,60,-30,-30,-414,134,-40,-40,-61,-62
-59,-59,0,59,-29,-29,-416,143,-40,-42,-62,-67
-55,-55,0,55,-27,-27,-413,150,-40,-40,-50,-62
-52,-53,0,53,-26,-26,-419,150,-40,-40,-47,-59
-50,-50,0,50,-25,-25,-417,149,-40,-38,-38,-56
-44,-46,-2,45,-20,-24,-396,155,-40,-34,-34,-51
-38,-45,-8,42,-15,-26,-305,170,-39,-35,-48,-50
-33,-44,-12,38,-10,-27,-161,170,-35,-31,-45,-50
-33,-49,-15,42,-9,-32,-65,170,-35,-30,-38,-58
-36,-56,-20,46,-8,-37,7,170,-33,-30,-30,-61
-35,-55,-20,45,-7,-37,60,170,-30,-30,-30,-56
-32,-53,-21,43,-5,-37,100,168,-30,-30,-41,-55
-25,-50,-25,38,0,-37,130,160,-34,-31,-40,-50
-24,-49,-25,37,0,-37,155,154,-35,-35,-39,-50
-30,-53,-23,42,-3,-37,180,147,-35,-35,-35,-56
-37,-55,-18,46,-9,-36,196,141,-40,-35,-34,-63
-40,-55,-15,48,-12,-35,201,135,-40,-35,-38,-65
-43,-54,-12,49,-15,-33,208,130,-40,-35,-40,-65
-49,-56,-7,53,-20,-31,224,130,-40,-31,-40,-69
-52,-57,-4,55,-24,-31,227,129,-40,-30,-35,-70
-54,-55,0,55,-26,-27,237,125,-40,-30,-36,-70
-55,-55,0,55,-27,-27,244,125,-40,-26,-33,-70
-51,-51,0,51,-25,-26,243,123,-40,-24,-31,-70
-50,-50,1,50,-26,-25,241,118,-36,-27,-29,-70
-49,-50,-1,49,-24,-25,237,115,-35,-30,-30,-70
-49,-46,4,47,-26,-21,235,111,-35,-30,-39,-69
-40,-44,-3,42,-18,-23,231,107,-35,-30,-38,-73
-28,-40,-12,34,-8,-26,230,104,-35,-30,-32,-76
-31,-38,-7,35,-12,-22,226,100,-35,-30,-31,-74
-29,-34,-5,32,-11,-19,219,100,-35,-27,-24,-75
-36,-38,-1,37,-17,-19,213,99,-35,-24,-25,-75
-46,-46,1,46,-23,-22,206,95,-35,-21,-35,-75
-44,-45,0,45,-21,-22,199,95,-35,-19,-29,-77
-44,-44,0,44,-22,-21,194,97,-35,-14,-26,-76
-39,-40,0,40,-20,-20,188,100,-32,-17,-21,-75
-40,-40,0,40,-20,-20,182,99,-26,-25,-17,-74
-41,-41,0,41,-20,-20,178,100,-22,-20,-10,-70
-38,-39,-1,39,-18,-20,171,100,-17,-12,14,-71
-37,-42,-5,40,-16,-23,167,101,-13,-6,-4,-68
-10,-15,-5,13,-2,-10,159,107,-8,1,-3,-57
19,15,-4,-16,11,5,146,116,-4,18,31,-48
32,15,-17,-23,24,-1,134,127,1,27,48,-39
41,14,-26,-27,33,-6,100,125,5,18,55,-41
42,9,-33,-25,37,-12,74,110,-1,13,39,-38
47,0,-47,-23,47,-23,70,100,-13,5,35,-42
44,-15,-59,-14,52,-37,62,90,-24,-1,35,-61
16,-39,-54,12,35,-46,56,80,-34,-6,20,-67
-29,-49,-19,40,-5,-34,50,74,-35,-16,10,-69
-56,-53,3,55,-30,-25,42,62,-38,-24,0,-71
-59,-62,-3,61,-28,-33,37,68,-43,-30,-16,-77
-50,-55,-6,53,-22,-30,23,62,-37,-19,-2,-72
-48,-57,-9,53,-19,-33,21,68,-44,-25,-5,-79
-33,-46,-13,40,-10,-29,4,61,-35,-12,14,-66
-41,-63,-22,53,-10,-42,23,93,-36,-16,0,-76
-48,-94,-46,71,0,-70,131,327,83,44,-20,-112
62,90,28,-76,17,59,135,389,409,324,153,16
606,616,10,-612,298,313,-391,-3,579,761,728,570
1012,1045,32,-1029,490,539,-1146,-711,301,876,1247,1092
382,787,404,-585,-12,595,-1084,-1135,-247,227,732,697
-119,282,401,-82,-260,341,-564,-740,-459,-241,98,117
-65,71,135,-3,-100,103,-315,-242,-287,-160,37,-14
-112,15,126,48,-119,70,-203,-74,-160,-107,-7,-75
-89,-17,72,53,-80,27,-164,36,-98,-56,1,-84
-81,-52,29,67,-55,-11,-145,95,-67,-41,-8,-98
-90,-66,24,78,-57,-21,-142,132,-56,-30,-18,-105
-84,-69,15,76,-49,-27,-151,150,-51,-17,-4,-99
-87,-71,16,79,-52,-27,-164,155,-50,-23,4,-102
-76,-70,6,73,-41,-31,-172,164,-44,-16,4,-98
-76,-70,6,72,-41,-31,-168,171,-41,-17,-10,-101
-75,-76,-1,75,-37,-38,-170,190,-37,-14,-19,-99
-82,-82,0,82,-41,-41,-185,204,-35,-14,-28,-98
-77,-77,0,77,-38,-38,-201,208,-32,-7,-20,-94
-75,-75,0,75,-37,-37,-202,214,-29,-3,-22,-95
-72,-71,1,71,-36,-35,-213,222,-26,1,-14,-95
-68,-70,-3,69,-33,-36,-222,232,-24,6,-18,-95
-56,-65,-9,61,-23,-37,-232,246,-18,10,-1,-95
-42,-56,-14,49,-14,-34,-242,254,-9,16,12,-88
-25,-44,-19,35,-3,-31,-255,273,-1,28,0,-79
-5,-30,-25,18,11,-28,-271,285,9,37,9,-71
23,-7,-29,-8,26,-18,-290,304,27,48,35,-58
56,16,-41,-36,49,-12,-319,335,47,75,71,-38
80,36,-44,-58,62,-4,-349,347,61,95,88,-10
105,68,-37,-86,70,15,-374,351,77,117,132,16
120,88,-32,-104,76,28,-398,346,88,143,161,35
139,113,-26,-126,83,43,-417,342,90,144,169,52
140,119,-20,-129,80,49,-420,338,85,135,179,63
116,103,-12,-109,64,45,-412,313,77,127,155,54
106,102,-3,-104,54,49,-406,283,71,118,143,37
71,73,3,-72,34,38,-399,262,64,108,124,19
30,43,13,-37,8,28,-392,250,59,88,90,-9
19,33,14,-26,2,23,-388,244,50,70,65,-34
-3,14,17,-6,-10,15,-382,237,41,64,58,-46
-25,6,31,10,-29,18,-379,229,33,57,55,-54
-28,2,30,13,-29,16,-373,223,21,51,35,-66
-34,-4,30,19,-32,12,-371,215,26,44,30,-70
-41,-10,31,26,-36,10,-374,207,28,38,38,-70
-43,-14,29,29,-36,7,-377,201,18,35,28,-70
-44,-11,33,27,-38,10,-396,193,13,32,22,-70
-40,-5,35,22,-37,15,-403,185,4,30,14,-70
-44,-10,35,27,-39,12,-405,182,-2,27,6,-70
-48,-18,30,33,-39,6,-411,184,-2,25,19,-76
-44,-15,30,30,-37,7,-409,186,1,22,25,-80
-45,-15,30,30,-37,7,-411,195,3,19,15,-80
-41,-11,30,26,-35,9,-409,203,7,21,10,-80
-40,-10,30,25,-35,10,-411,205,9,19,3,-80
-37,-10,28,23,-32,9,-408,209,12,22,-5,-80
-30,-6,24,17,-27,9,-414,210,22,27,12,-80
-29,-3,25,15,-27,11,-432,210,19,25,21,-84
-25,0,25,12,-25,11,-435,210,13,25,13,-85
-23,3,25,9,-24,14,-445,210,10,21,10,-85
-19,5,24,6,-22,15,-452,210,5,20,5,-85
-18,3,20,7,-19,11,-448,209,0,20,0,-84
-21,-1,20,11,-20,10,-451,206,-3,16,-8,-88
-23,-3,20,13,-21,8,-453,203,-6,13,-9,-90
-26,-6,20,16,-23,7,-456,200,-9,10,-2,-90
-29,-9,20,19,-24,5,-462,197,-12,8,-1,-90
-30,-10,21,20,-25,5,-467,195,-15,4,-9,-90
-35,-16,19,25,-27,2,-469,192,-17,8,-12,-90
-43,-21,22,32,-32,0,-475,189,-20,10,-8,-90
-49,-20,30,35,-40,5,-480,190,-20,10,-18,-90
-48,-18,31,33,-39,6,-480,190,-20,10,-26,-90
-44,-14,29,29,-36,7,-480,190,-20,10,-24,-90
-41,-15,26,27,-33,5,-480,189,-20,9,-26,-90
-40,-15,25,27,-32,5,-479,185,-24,6,-24,-92
-38,-15,24,26,-31,4,-485,185,-25,3,-27,-97
-35,-15,20,25,-27,2,-490,185,-25,1,-17,-100
-34,-15,19,24,-26,2,-491,184,-25,-3,-10,-100
-43,-16,27,29,-34,6,-499,186,-24,-5,-32,-100
-50,-14,37,31,-43,11,-502,182,-26,-5,-37,-100
-43,-9,33,26,-38,11,-507,179,-30,-5,-33,-100
-36,-6,30,21,-32,12,-510,180,-30,-5,-34,-101
-31,-3,28,16,-29,12,-506,176,-30,-5,-28,-97
-23,1,24,11,-24,12,-497,175,-30,-5,-32,-95
-20,6,26,7,-23,16,-414,175,-31,-5,-26,-94
-25,-1,24,12,-25,11,-248,183,-23,1,-22,-90
-12,14,26,-2,-19,19,-111,191,-2,8,-19,-90
14,44,30,-29,-8,37,-34,202,7,14,6,-85
37,46,9,-42,13,28,26,219,10,21,-1,-85
55,42,-13,-48,34,14,47,214,15,28,8,-84
69,41,-28,-55,49,6,63,202,9,27,24,-80
65,32,-33,-48,48,0,104,189,-15,11,8,-80
46,15,-31,-30,38,-8,122,175,-36,-1,-6,-82
19,2,-17,-10,18,-7,146,162,-49,-22,-32,-97
-28,-9,19,18,-23,5,188,157,-55,-32,-35,-107
-64,-31,33,48,-48,1,200,147,-51,-29,-49,-115
-73,-44,30,59,-51,-7,207,145,-50,-44,-51,-130
-64,-36,28,50,-46,-4,212,133,-39,-32,-36,-120
-74,-47,27,60,-50,-10,226,132,-43,-37,-55,-130
-63,-42,21,52,-42,-10,226,134,-27,-23,-38,-120
-73,-48,25,60,-48,-11,240,172,-39,-27,-53,-128
-37,-66,-28,52,-4,-47,350,394,51,17,-47,-157
89,106,17,-98,36,61,400,472,384,296,118,-35
605,608,3,-606,301,305,-80,94,548,695,654,477
1051,1036,-15,-1043,533,510,-844,-621,266,792,1135,1008
416,810,394,-614,11,602,-791,-1059,-248,210,687,660
-121,320,442,-100,-282,381,-247,-687,-440,-239,80,77
-79,91,170,-6,-124,130,22,-196,-283,-179,-38,-61
-117,38,155,39,-136,96,153,-27,-164,-128,-62,-128
-74,9,84,32,-79,46,203,83,-99,-83,-52,-132
-87,-36,50,61,-68,6,231,138,-82,-69,-56,-146
-98,-46,53,72,-75,3,242,170,-76,-62,-56,-159
-84,-44,40,64,-61,-2,236,179,-68,-54,-53,-152
-90,-48,42,69,-65,-3,234,177,-67,-54,-52,-158
-79,-50,29,64,-54,-10,226,182,-60,-42,-43,-152
-80,-50,30,65,-55,-10,225,187,-57,-43,-42,-157
-69,-46,23,57,-46,-11,218,199,-52,-43,-36,-154
-67,-44,23,55,-44,-11,215,199,-50,-46,-31,-155
-60,-41,19,50,-39,-11,208,206,-47,-44,-38,-155
-54,-38,16,45,-35,-11,198,211,-44,-45,-47,-155
-50,-35,15,42,-32,-10,190,217,-41,-45,-42,-155
-43,-34,9,38,-26,-12,180,231,-39,-42,-40,-155
-31,-28,3,29,-17,-12,171,239,-34,-37,-36,-148
-20,-21,-1,21,-9,-11,160,240,-25,-31,-36,-137
-7,-15,-8,11,1,-11,148,253,-20,-26,-25,-128
4,-8,-11,2,8,-10,134,273,-10,-13,4,-117
26,5,-21,-15,23,-8,113,292,3,8,27,-104
64,29,-36,-46,50,-4,93,302,18,28,49,-82
86,53,-33,-70,59,10,56,296,33,48,74,-57
111,82,-29,-97,70,27,15,291,43,67,87,-43
131,105,-26,-118,78,39,-7,286,57,86,113,-21
147,126,-21,-137,84,52,-32,279,66,100,152,8
158,139,-19,-148,88,60,-51,276,68,100,156,11
141,131,-11,-136,76,60,-53,263,62,90,141,-4
122,118,-3,-120,62,57,-42,243,53,77,133,-15
83,91,8,-87,38,49,-37,219,48,58,105,-41
34,60,27,-47,3,43,-41,192,38,37,62,-74
8,39,31,-24,-11,35,-40,174,27,20,47,-91
-2,27,29,-12,-16,28,-41,167,15,4,47,-99
-14,18,32,-2,-23,25,-39,163,6,-8,39,-112
-19,9,28,5,-24,18,-53,158,-1,-18,31,-121
-30,3,33,14,-32,18,-75,154,-8,-20,18,-120
-30,-4,26,17,-28,10,-94,149,-16,-21,15,-120
-45,-10,35,28,-40,12,-117,145,-22,-19,25,-120
-53,-18,35,35,-44,9,-144,145,-30,-24,20,-120
-62,-20,42,41,-52,11,-159,145,-31,-40,14,-120
-52,-20,32,36,-42,6,-165,145,-38,-44,8,-132
-49,-20,29,35,-39,4,-179,145,-40,-47,-16,-142
-54,-20,35,36,-44,7,-191,147,-39,-51,-27,-136
-26,-21,5,23,-16,-8,-201,154,-42,-49,-22,-134
-74,-18,56,46,-65,19,-218,159,-36,-51,-19,-130
118,-17,-136,-50,127,-76,-225,164,-47,-55,-17,-125
163,-11,-175,-76,169,-93,-226,163,-31,-55,-9,-128
-40,-13,27,26,-33,7,-252,159,-52,-59,-14,-131
2,-5,-7,1,5,-5,-265,160,-24,-60,-20,-130
-5,-7,-2,6,-1,-4,-276,160,-66,-60,-18,-128
-11,-4,6,8,-8,1,-293,160,-110,-60,-11,-124
-8,-15,-7,12,0,-11,-292,160,-3,-60,-13,-125
