I,II,III,aVR,aVL,aVF,V1,V2,V3,V4,V5,V6
305,-70,-375,-117,340,-222,-250,15,50,-1624,400,254
304,-67,-371,-118,338,-219,-250,16,49,-1621,404,255
303,-60,-364,-121,334,-212,-249,20,55,-1599,410,266
302,-55,-357,-123,330,-206,-247,15,68,-1575,409,270
300,-51,-351,-124,325,-200,-243,15,73,-1575,410,271
312,-32,-344,-140,328,-188,-247,18,71,-1545,408,275
337,-8,-346,-164,342,-177,-225,39,86,-1516,421,275
346,3,-343,-174,344,-170,-208,72,106,-1504,437,282
346,6,-340,-176,343,-167,-211,97,134,-1471,442,286
377,37,-339,-207,358,-151,-208,100,146,-1430,458,294
374,37,-337,-205,355,-150,-269,47,99,-1439,458,295
354,31,-323,-193,338,-146,-304,13,79,-1472,447,297
357,54,-303,-205,330,-124,-284,15,77,-1472,444,310
345,15,-330,-179,338,-157,-280,7,63,-1466,435,299
340,-23,-364,-158,352,-193,-270,0,57,-1463,418,269
325,-50,-374,-138,350,-212,-267,-2,59,-1457,391,245
315,-49,-365,-133,340,-207,-259,-5,60,-1454,390,245
328,-47,-375,-140,352,-211,-255,9,60,-1456,390,245
302,-63,-365,-119,334,-214,-250,6,60,-1444,385,244
311,-61,-373,-125,342,-216,-244,18,58,-1420,387,247
290,-72,-362,-109,326,-217,-244,22,65,-1407,381,239
293,-38,-331,-127,312,-184,-225,21,63,-1415,391,227
282,-1,-283,-140,283,-142,-129,126,173,-1312,400,212
408,211,-198,-309,303,7,-57,472,628,-727,868,440
1038,379,-659,-708,848,-140,-380,806,1104,-137,1619,859
1062,170,-891,-616,976,-360,-779,93,435,-808,1364,871
488,-55,-543,-217,516,-299,-730,-709,-575,-1831,497,498
330,-146,-476,-92,403,-311,-505,-442,-450,-1809,236,263
287,-126,-413,-80,350,-269,-334,-150,-121,-1521,303,219
271,-86,-357,-93,314,-221,-250,-47,-33,-1413,336,212
275,-73,-348,-101,312,-210,-232,3,15,-1378,354,219
272,-61,-332,-106,303,-196,-220,-5,13,-1367,340,211
278,-68,-346,-105,313,-207,-222,14,49,-1325,341,203
267,-63,-330,-102,299,-196,-215,6,41,-1324,334,198
272,-67,-339,-102,306,-203,-213,20,47,-1306,330,190
261,-70,-331,-95,296,-201,-209,18,44,-1301,327,187
261,-70,-331,-95,296,-200,-205,26,44,-1289,322,181
257,-70,-327,-93,292,-199,-205,25,46,-1280,320,176
258,-66,-324,-95,291,-195,-203,26,39,-1279,315,173
257,-65,-322,-96,290,-193,-200,31,42,-1274,311,166
254,-65,-319,-95,287,-191,-200,29,37,-1273,310,166
257,-60,-317,-98,287,-188,-197,33,36,-1269,315,172
254,-60,-314,-96,284,-186,-194,35,34,-1268,314,170
256,-59,-315,-98,286,-187,-196,39,38,-1257,315,170
260,-55,-314,-102,288,-185,-191,40,48,-1245,315,168
259,-56,-315,-101,288,-185,-190,47,56,-1232,314,164
261,-52,-313,-104,287,-183,-189,55,63,-1214,315,165
260,-43,-303,-109,282,-173,-185,58,69,-1201,311,168
257,-32,-290,-112,274,-161,-184,74,78,-1189,310,176
258,-23,-281,-118,270,-151,-185,79,84,-1179,305,185
261,-14,-274,-123,268,-144,-184,83,90,-1170,307,184
263,-8,-270,-127,267,-139,-185,90,99,-1158,327,189
263,-1,-264,-131,263,-132,-183,93,104,-1151,333,200
264,6,-258,-135,261,-126,-174,99,106,-1135,325,199
268,14,-255,-140,261,-120,-193,99,110,-1119,330,202
287,32,-254,-159,270,-111,-212,112,142,-1078,363,212
312,34,-278,-173,295,-121,-209,124,168,-1049,400,223
311,24,-287,-167,299,-131,-210,109,164,-1040,404,223
298,18,-280,-158,289,-131,-210,88,157,-1018,395,213
287,7,-280,-147,283,-136,-210,64,133,-1053,389,208
286,11,-275,-148,280,-132,-212,42,102,-1072,382,200
289,14,-275,-151,282,-130,-217,31,85,-1062,376,192
282,7,-275,-144,278,-134,-220,24,69,-1105,369,186
278,3,-274,-140,276,-136,-215,17,59,-1142,362,180
271,-4,-275,-133,273,-140,-215,9,61,-1122,356,180
266,-8,-274,-129,271,-141,-214,2,58,-1101,348,180
260,-15,-275,-122,268,-145,-209,4,55,-1105,346,180
250,-23,-273,-113,261,-148,-211,9,54,-1097,346,180
248,-18,-266,-115,257,-142,-207,5,58,-1095,345,182
250,-12,-262,-119,256,-137,-205,3,58,-1090,345,186
248,-6,-255,-121,252,-131,-205,0,54,-1079,340,189
250,-1,-251,-124,250,-126,-202,-4,56,-1069,339,190
250,6,-244,-128,246,-119,-199,-5,54,-1034,341,193
253,10,-242,-131,247,-116,-201,-5,60,-1010,350,196
267,10,-258,-139,263,-124,-217,-5,71,-1006,364,192
271,10,-261,-140,266,-125,-221,-7,68,-1002,363,190
269,10,-259,-140,264,-124,-219,-10,62,-997,357,190
270,10,-260,-140,265,-125,-225,-13,59,-976,354,186
270,10,-260,-140,265,-125,-225,-15,54,-980,348,185
265,6,-259,-135,262,-126,-225,-19,49,-992,345,185
260,5,-255,-132,257,-125,-225,-20,45,-987,339,180
257,5,-253,-131,255,-124,-225,-23,37,-994,332,175
250,0,-250,-125,250,-125,-225,-28,31,-994,326,170
247,0,-246,-123,246,-123,-225,-31,25,-995,319,166
243,-1,-245,-120,244,-123,-225,-36,16,-1012,312,161
236,-5,-241,-115,239,-123,-221,-31,21,-1016,311,159
235,-5,-239,-115,237,-122,-220,-30,28,-1010,323,164
235,-5,-240,-115,238,-122,-219,-29,24,-1010,325,165
235,-5,-240,-115,238,-122,-216,-34,21,-1002,321,165
235,-5,-240,-115,238,-122,-213,-50,19,-1006,319,165
238,-2,-240,-118,239,-121,-220,-50,14,-1014,315,165
241,1,-240,-121,240,-119,-235,-50,18,-1014,314,165
244,4,-240,-124,242,-117,-235,-51,30,-1014,310,162
245,5,-240,-125,242,-117,-234,-49,31,-1010,310,157
234,-6,-240,-114,237,-123,-235,-53,27,-1010,309,154
234,-6,-240,-114,237,-122,-235,-55,25,-1006,304,151
238,-2,-240,-118,239,-121,-233,-55,25,-1018,306,146
244,4,-240,-124,241,-118,-227,-58,25,-1018,302,146
243,2,-240,-122,241,-119,-222,-61,25,-1018,300,150
223,-18,-241,-102,232,-130,-219,-59,25,-1008,300,146
213,-21,-235,-96,224,-128,-213,-55,25,-1022,296,144
222,-17,-239,-102,231,-128,-209,-55,25,-1121,295,145
237,-15,-252,-111,245,-133,-205,-55,24,-1158,294,140
236,-12,-248,-112,242,-129,-204,-55,26,-1119,301,141
236,-9,-245,-113,241,-127,-209,-55,23,-1042,298,139
226,-17,-242,-104,234,-129,-209,-53,30,-991,307,144
212,-28,-240,-92,226,-134,-205,-47,35,-988,320,151
223,-14,-237,-105,230,-125,-198,-41,31,-979,319,149
235,13,-222,-124,228,-104,-198,-35,46,-983,321,151
255,40,-215,-147,235,-87,-179,-18,64,-953,317,147
249,38,-211,-143,230,-86,-152,5,100,-893,342,162
248,39,-209,-144,228,-85,-139,40,141,-853,356,181
275,72,-203,-173,239,-66,-171,29,119,-873,351,180
267,65,-202,-166,234,-68,-246,-45,80,-973,344,189
272,76,-197,-174,234,-60,-253,-70,72,-1004,351,212
269,75,-194,-171,231,-60,-238,-61,68,-985,364,213
239,20,-219,-129,228,-99,-232,-62,64,-985,326,183
237,-10,-247,-113,242,-128,-219,-57,57,-935,313,163
224,-32,-256,-96,240,-143,-216,-54,57,-917,311,144
210,-35,-245,-87,228,-140,-208,-60,56,-908,307,138
214,-36,-250,-89,233,-143,-207,-70,65,-967,303,130
197,-33,-230,-81,214,-131,-195,-77,55,-928,299,123
211,-32,-242,-89,226,-137,-200,-59,65,-694,297,116
189,-29,-218,-80,204,-123,-191,-67,56,-602,284,108
190,-30,-220,-80,205,-124,-160,-16,71,-456,293,105
195,61,-134,-128,164,-37,-54,129,270,-96,353,130
484,335,-149,-409,316,93,-73,537,838,757,1061,506
990,385,-605,-688,798,-110,-478,609,1199,1336,1793,919
727,134,-593,-430,660,-230,-707,-330,190,294,1135,727
274,-94,-369,-90,322,-231,-563,-760,-645,-652,233,297
217,-158,-375,-30,296,-266,-389,-375,-316,-417,120,120
180,-103,-283,-38,232,-193,-245,-175,-71,-178,198,113
188,-90,-278,-49,233,-184,-193,-75,35,-79,256,123
181,-81,-262,-49,221,-171,-178,-59,49,-54,253,120
188,-68,-256,-60,222,-162,-170,-54,45,-56,243,112
184,-70,-254,-57,219,-162,-171,-49,69,-40,246,107
170,-69,-239,-50,204,-154,-164,-51,52,-46,234,98
176,-71,-247,-52,212,-159,-163,-42,66,-30,236,96
179,-69,-248,-55,213,-158,-157,-47,59,-33,228,100
181,-71,-252,-55,217,-162,-156,-37,68,-23,228,100
179,-68,-247,-55,213,-158,-152,-37,64,-21,224,100
180,-65,-245,-57,213,-155,-150,-32,65,-16,222,100
180,-65,-245,-57,213,-155,-147,-28,65,-10,219,100
178,-65,-243,-56,211,-153,-144,-25,65,-8,220,96
171,-65,-236,-53,204,-150,-142,-20,65,10,219,95
166,-65,-231,-50,199,-148,-137,-12,65,20,220,95
164,-62,-226,-51,195,-143,-135,-6,63,21,219,90
164,-56,-220,-54,192,-138,-130,0,75,39,222,89
163,-52,-215,-55,189,-133,-126,10,95,60,242,91
163,-47,-210,-58,187,-129,-123,25,97,56,246,97
164,-42,-206,-60,185,-124,-120,43,108,73,244,104
165,-39,-203,-63,184,-120,-120,49,109,104,245,104
167,-33,-200,-67,183,-116,-118,57,116,90,245,106
167,-27,-195,-69,181,-111,-114,66,126,88,244,118
175,-23,-197,-76,186,-110,-115,65,124,98,239,120
185,-16,-201,-84,193,-108,-118,70,131,93,240,122
188,-11,-200,-88,194,-105,-121,70,129,96,240,126
195,-6,-201,-94,198,-103,-120,76,141,95,250,125
195,-5,-199,-95,197,-101,-121,80,166,96,282,138
191,-5,-196,-92,194,-100,-120,66,161,111,301,148
190,-5,-194,-92,193,-100,-122,57,147,127,295,144
190,-5,-195,-92,193,-100,-134,43,132,109,289,138
189,-6,-195,-91,192,-100,-135,31,119,99,286,135
177,-22,-199,-77,189,-110,-136,11,104,98,277,129
177,-32,-209,-72,193,-120,-142,2,92,101,275,126
171,-28,-199,-71,185,-113,-140,-3,83,99,269,121
171,-32,-203,-69,187,-118,-139,-7,67,106,269,119
166,-27,-193,-69,180,-110,-140,-7,66,151,271,121
163,-33,-196,-64,179,-114,-140,-18,52,200,259,113
183,-21,-204,-80,194,-113,-140,-7,70,273,274,118
199,-13,-212,-92,206,-113,-137,1,69,263,257,111
230,4,-226,-117,228,-111,-126,81,186,420,347,141
284,57,-227,-171,255,-85,-131,225,397,663,511,208
482,161,-321,-321,401,-79,-142,553,838,1162,893,377
434,382,-52,-408,242,165,-73,752,1191,1542,1000,472
-9,228,237,-110,-124,232,207,292,355,382,-56,11
-432,-139,293,285,-362,77,498,-337,-687,-844,-943,-432
-729,-168,561,448,-644,196,611,-607,-888,-925,-967,-462
-553,-158,395,355,-474,119,563,-337,-542,-531,-644,-368
-160,-156,4,158,-82,-76,416,71,-37,42,-152,-171
-43,-130,-87,87,22,-109,452,210,117,233,12,-86
-15,-114,-99,65,42,-106,570,233,108,254,58,-55
13,-81,-94,34,54,-87,568,148,86,347,137,-7
32,-59,-91,14,62,-75,357,1,33,395,176,36
120,-47,-167,-36,143,-106,19,-68,12,413,246,90
207,-73,-279,-67,243,-176,-170,-78,-28,393,255,96
208,-103,-311,-52,260,-207,-244,-99,-54,395,255,92
225,-142,-367,-41,296,-255,-263,-99,-50,395,252,89
258,-129,-386,-64,322,-257,-253,-74,-14,404,279,108
265,-76,-341,-95,304,-208,-249,-47,26,430,303,116
260,-43,-304,-108,282,-174,-241,-44,40,460,315,137
259,-25,-284,-117,272,-154,-255,-51,41,481,349,152
276,-22,-299,-127,288,-160,-295,-58,40,480,352,154
305,-14,-319,-146,312,-166,-324,-54,39,487,361,178
335,-8,-342,-163,339,-175,-341,-42,50,530,390,188
347,-2,-349,-172,348,-175,-370,-34,73,570,428,210
361,6,-354,-183,357,-174,-400,-18,104,609,476,237
395,20,-375,-207,385,-177,-434,-6,135,643,527,268
440,43,-397,-242,418,-177,-477,12,173,726,589,306
487,67,-419,-277,453,-176,-525,30,215,831,652,343
517,95,-422,-306,469,-163,-568,55,257,881,710,384
530,121,-409,-325,469,-143,-605,74,296,933,759,412
550,148,-402,-349,476,-127,-629,70,305,957,772,422
554,177,-376,-365,465,-99,-633,68,291,944,749,413
518,183,-335,-351,426,-75,-610,65,279,930,699,382
451,156,-294,-303,372,-69,-555,61,245,893,618,336
393,131,-262,-261,327,-65,-484,60,208,842,534,283
342,100,-242,-220,291,-71,-402,57,182,799,455,233
275,63,-212,-169,243,-74,-325,51,157,760,390,190
240,50,-189,-145,214,-69,-258,46,139,719,346,150
226,44,-182,-134,204,-69,-202,43,125,681,310,128
208,35,-174,-121,191,-69,-162,37,109,652,288,112
194,28,-166,-110,180,-69,-132,34,93,633,274,97
179,21,-158,-100,169,-69,-120,29,79,612,263,95
175,20,-155,-97,165,-67,-116,24,73,593,257,92
172,20,-152,-96,162,-66,-113,20,66,576,252,89
165,15,-149,-90,157,-67,-109,15,58,562,248,86
162,15,-146,-88,153,-65,-105,10,51,555,243,84
158,14,-144,-85,151,-65,-105,6,44,549,239,81
151,10,-142,-80,146,-66,-105,1,39,542,233,76
149,10,-139,-80,144,-65,-105,-4,34,535,225,74
150,10,-140,-80,145,-65,-105,-7,30,530,219,69
149,10,-140,-80,144,-65,-105,-13,25,519,211,66
151,10,-140,-80,145,-65,-104,-16,20,500,203,62
145,6,-139,-75,141,-66,-100,-20,17,492,203,59
140,5,-135,-72,136,-65,-100,-23,12,495,208,57
140,5,-135,-72,137,-65,-100,-27,9,494,202,54
135,0,-135,-67,135,-67,-100,-38,5,490,197,51
134,0,-135,-67,134,-67,-100,-41,2,484,194,49
136,0,-135,-67,135,-67,-102,-39,-2,480,188,46
131,0,-131,-65,131,-65,-106,-42,-5,476,184,43
130,0,-130,-65,130,-65,-104,-45,-8,470,180,41
129,0,-129,-65,129,-64,-101,-45,-10,473,180,37
125,0,-126,-62,125,-63,-98,-44,-13,472,180,35
125,1,-124,-63,125,-61,-106,-46,-16,463,180,33
118,-7,-125,-55,122,-66,-116,-44,-15,457,180,29
119,-18,-136,-50,128,-77,-115,-49,-16,448,177,30
122,-14,-136,-54,129,-75,-115,-60,-14,442,171,30
116,-8,-125,-54,121,-66,-115,-60,-17,444,166,30
114,-5,-119,-54,117,-61,-115,-60,-25,440,161,29
110,0,-110,-55,110,-55,-119,-60,-25,432,154,26
110,5,-106,-57,107,-50,-120,-60,-25,425,151,23
106,2,-105,-54,105,-51,-120,-58,-25,416,155,20
101,-4,-105,-48,103,-54,-120,-54,-25,412,153,18
98,-7,-106,-45,102,-56,-120,-55,-25,412,149,14
90,-13,-103,-38,97,-58,-119,-55,-25,409,150,17
100,-14,-114,-42,107,-64,-115,-55,-25,423,149,20
112,-9,-121,-51,116,-65,-115,-55,-25,442,150,20
109,-6,-115,-51,113,-60,-112,-56,-25,445,150,20
110,-3,-113,-53,112,-58,-110,-54,-25,445,145,20
110,2,-108,-56,109,-53,-110,-59,-29,444,145,20
110,5,-105,-57,107,-50,-115,-66,-31,445,143,19
107,5,-102,-56,104,-48,-121,-65,-30,444,140,16
101,4,-97,-52,98,-46,-119,-64,-30,446,139,11
103,8,-95,-55,98,-43,-122,-60,-29,443,142,8
107,16,-90,-62,98,-36,-126,-60,-32,447,145,5
101,14,-87,-57,93,-36,-125,-58,-35,457,145,0
94,11,-83,-52,88,-36,-122,-54,-35,462,145,2
89,9,-80,-49,84,-35,-119,-55,-35,475,144,11
80,5,-75,-42,77,-35,-116,-55,-35,482,151,19
79,6,-73,-43,76,-33,-113,-55,-35,483,156,20
86,17,-69,-51,77,-25,-110,-55,-31,487,152,20
94,30,-64,-61,78,-17,-108,-55,-30,507,150,20
118,32,-86,-75,102,-26,-105,-55,-30,519,146,20
124,27,-97,-75,110,-35,-105,-55,-25,536,145,20
113,24,-89,-69,101,-32,-105,-55,-25,554,142,20
111,21,-91,-66,101,-35,-105,-55,-25,545,139,20
106,16,-90,-61,97,-36,-105,-52,-25,546,140,20
105,15,-90,-60,97,-37,-101,-50,-25,566,140,20
105,15,-90,-60,97,-37,-99,-46,-25,581,140,20
103,16,-87,-59,95,-36,-96,-44,-25,595,141,19
99,14,-85,-56,91,-36,-93,-40,-25,606,145,16
104,19,-85,-61,94,-33,-90,-41,-21,602,145,15
111,26,-85,-68,97,-30,-91,-50,-20,601,145,15
110,25,-85,-67,97,-30,-98,-50,-20,596,145,15
109,24,-85,-66,97,-31,-96,-50,-15,596,145,15
105,20,-85,-62,95,-32,-95,-50,-15,590,145,17
105,20,-85,-62,95,-32,-94,-50,-15,591,145,20
102,17,-85,-59,93,-34,-91,-49,-15,610,144,20
100,15,-85,-57,92,-35,-89,-45,-15,610,140,20
100,14,-85,-57,92,-35,-91,-45,-20,609,140,20
106,24,-82,-65,94,-29,-95,-45,-26,610,140,20
115,36,-80,-76,97,-22,-91,-45,-21,609,140,20
111,35,-77,-73,93,-21,-89,-45,-20,608,140,20
109,35,-74,-71,91,-20,-90,-41,-20,603,140,20
106,35,-71,-70,88,-17,-90,-40,-15,600,140,20
105,35,-69,-70,86,-17,-90,-40,-15,597,140,19
114,33,-81,-73,97,-24,-91,-40,-16,591,140,23
113,28,-86,-70,99,-29,-95,-39,-23,591,140,25
106,22,-85,-64,95,-31,-95,-42,-22,600,139,25
105,20,-85,-62,95,-32,-95,-46,-19,599,135,28
97,12,-85,-54,91,-36,-95,-45,-20,595,135,31
97,12,-84,-54,91,-36,-95,-45,-15,593,133,29
105,24,-81,-64,92,-28,-92,-45,-15,589,129,26
105,26,-79,-66,92,-26,-89,-45,-14,589,130,23
105,24,-81,-64,92,-28,-91,-44,-10,584,133,20
100,21,-79,-60,90,-29,-90,-39,-11,582,136,18
101,20,-81,-61,91,-30,-90,-36,-8,579,134,14
95,18,-77,-56,86,-29,-90,-33,-5,576,140,17
95,28,-67,-61,81,-20,-78,-28,-5,575,139,22
107,49,-58,-78,82,-4,-72,-25,1,577,141,24
117,70,-46,-93,81,12,-51,-14,24,607,159,43
113,72,-41,-93,77,15,-32,19,41,621,168,52
117,80,-37,-98,77,21,-19,40,64,635,180,49
156,103,-53,-129,104,25,-48,20,71,633,186,59
164,98,-65,-130,115,16,-124,-32,11,579,184,59
170,103,-68,-136,119,17,-131,-62,-20,573,185,70
165,94,-70,-130,118,12,-115,-59,-12,579,185,72
125,56,-69,-90,97,-7,-109,-57,-18,569,173,49
102,17,-86,-60,94,-34,-97,-51,-13,562,137,34
86,-3,-89,-41,88,-46,-92,-53,-17,553,130,30
86,-6,-92,-40,90,-49,-88,-44,-18,550,130,18
84,-4,-88,-40,86,-45,-82,-48,-27,548,128,13
96,-5,-101,-45,99,-53,-80,-32,-15,552,124,7
72,-6,-78,-33,76,-42,-72,-37,-12,545,124,-5
74,-1,-75,-36,75,-38,-45,-16,-2,546,122,4
27,63,36,-45,-5,49,65,125,169,694,159,15
299,314,15,-307,142,164,87,532,689,1374,742,287
912,416,-496,-664,703,-40,-312,729,1033,1797,1376,663
719,183,-536,-450,627,-177,-635,-185,134,896,911,582
203,-48,-250,-77,226,-149,-511,-776,-691,75,137,224
97,-120,-217,12,157,-168,-299,-379,-404,180,-6,29
69,-76,-145,4,107,-110,-135,-159,-159,372,43,-1
55,-56,-112,1,84,-83,-67,-72,-78,454,63,-19
32,-58,-90,13,62,-74,-57,-51,-50,456,74,-24
53,-51,-104,0,78,-77,-47,-51,-62,459,67,-21
56,-50,-106,-3,81,-77,-49,-36,-42,469,72,-21
52,-44,-95,-4,74,-69,-43,-41,-51,456,69,-19
50,-49,-99,0,75,-74,-42,-25,-36,458,70,-21
38,-50,-88,6,63,-69,-39,-28,-40,449,66,-19
38,-55,-93,9,66,-74,-36,-19,-31,448,63,-21
33,-52,-86,10,60,-69,-31,-20,-30,441,61,-19
49,-57,-106,4,77,-81,-28,-22,-26,436,57,-16
55,-66,-121,6,88,-93,-25,-33,-21,431,56,-29
51,-58,-109,3,80,-83,-20,-27,-20,425,54,-30
50,-55,-105,3,78,-80,-18,-16,-12,420,56,-25
47,-50,-97,2,72,-73,-13,-10,-6,415,54,-24
46,-45,-91,0,69,-68,-10,0,1,419,56,-20
47,-42,-89,-3,68,-65,-7,6,7,420,72,-19
50,-36,-85,-6,68,-60,-2,15,14,419,76,-14
52,-32,-84,-10,68,-58,1,23,19,420,74,-9
48,-27,-75,-10,61,-51,5,30,21,420,76,-5
43,-23,-65,-10,54,-44,5,35,25,418,74,0
36,-18,-54,-9,45,-36,5,35,25,414,76,4
35,-11,-46,-12,41,-28,5,35,25,415,80,9
41,-3,-44,-18,42,-23,5,35,25,414,79,10
46,5,-41,-26,44,-18,3,35,25,415,80,12
50,12,-38,-31,44,-13,-4,35,25,415,80,16
58,23,-35,-40,46,-6,-11,39,31,419,85,15
74,39,-35,-56,54,2,-17,61,64,457,123,43
84,49,-34,-66,59,7,-25,86,102,494,158,75
94,47,-48,-70,71,-1,-29,89,119,512,182,74
98,39,-59,-68,78,-10,-37,81,114,518,192,66
95,32,-63,-64,79,-15,-38,77,102,511,179,59
95,24,-71,-59,82,-23,-35,67,94,499,170,52
87,17,-69,-52,78,-26,-35,47,77,472,160,45
83,11,-72,-47,77,-30,-32,38,59,453,152,36
82,7,-75,-44,78,-34,-29,34,54,438,148,43
79,4,-75,-41,77,-35,-32,29,52,425,142,52
74,1,-73,-37,73,-36,-40,25,49,425,137,50
64,-4,-68,-30,67,-36,-40,20,46,425,130,50
61,-4,-65,-28,63,-34,-35,24,45,425,134,46
62,0,-62,-31,62,-30,-34,25,50,425,135,44
57,0,-57,-28,57,-29,-29,26,50,423,136,47
57,2,-54,-29,55,-26,-31,30,50,420,140,50
68,6,-62,-37,64,-28,-35,30,50,417,140,50
67,4,-63,-35,64,-29,-35,27,50,415,142,46
70,10,-59,-40,64,-24,-37,21,48,411,140,44
78,18,-60,-48,69,-21,-40,17,41,410,135,41
71,15,-56,-43,63,-21,-40,12,36,404,133,39
70,15,-55,-42,62,-20,-36,7,31,392,128,35
67,13,-54,-39,60,-21,-35,4,25,380,125,37
76,9,-67,-42,71,-28,-35,-2,20,369,121,42
87,11,-76,-48,82,-32,-35,-9,15,362,116,39
81,6,-75,-43,77,-34,-35,-16,10,356,111,36
73,-1,-74,-36,74,-37,-36,-23,6,349,107,33
62,-8,-70,-27,66,-38,-42,-29,1,342,103,30
56,-14,-70,-21,63,-42,-49,-30,-3,336,98,29
48,-22,-70,-13,59,-45,-50,-30,-8,331,95,25
46,-24,-70,-11,58,-47,-50,-30,-10,329,92,25
50,-20,-70,-15,60,-45,-50,-30,-10,326,90,23
50,-20,-70,-15,60,-45,-50,-30,-14,323,86,19
52,-18,-69,-17,61,-43,-49,-30,-15,320,85,20
57,-14,-72,-21,65,-43,-45,-30,-15,318,82,16
64,-15,-80,-24,73,-47,-45,-30,-20,314,79,15
63,-18,-80,-22,72,-49,-43,-30,-20,308,80,15
57,-22,-79,-17,68,-51,-39,-30,-19,305,80,15
51,-24,-76,-13,64,-50,-40,-30,-23,300,80,15
47,-28,-74,-9,61,-51,-40,-34,-25,295,80,15
45,-30,-75,-7,60,-52,-40,-35,-25,291,80,15
45,-30,-75,-7,60,-52,-40,-35,-29,287,80,15
45,-30,-75,-7,60,-52,-40,-39,-30,284,80,15
45,-30,-75,-7,60,-52,-39,-41,-30,280,81,15
45,-30,-75,-7,60,-52,-41,-38,-35,276,79,15
45,-31,-75,-7,60,-52,-45,-35,-35,273,84,11
43,-29,-71,-7,57,-50,-45,-35,-35,268,90,10
45,-25,-70,-10,58,-47,-49,-35,-35,262,85,10
45,-25,-70,-10,58,-47,-50,-35,-35,257,80,5
40,-25,-65,-7,53,-45,-46,-35,-33,251,77,5
40,-25,-65,-7,53,-45,-45,-39,-29,245,71,4
40,-24,-64,-8,52,-44,-45,-40,-30,252,68,0
28,-31,-60,1,44,-45,-45,-41,-26,261,64,0
24,-36,-60,6,43,-48,-45,-44,-24,259,62,1
28,-32,-60,2,44,-46,-44,-46,-25,261,59,-5
30,-30,-60,0,45,-45,-38,-44,-19,277,55,-13
34,-26,-60,-4,48,-43,-32,-36,-14,280,55,-7
30,-26,-56,-2,43,-41,-26,-28,-9,281,53,-3
33,-17,-50,-8,41,-33,-21,-19,-3,288,62,3
45,0,-45,-22,45,-22,-14,-13,2,280,74,8
66,27,-39,-46,53,-6,9,2,11,298,82,14
72,38,-33,-55,52,2,27,24,35,319,101,21
79,48,-31,-63,55,8,32,58,71,337,112,37
101,67,-34,-83,67,16,-13,36,52,333,110,49
93,64,-30,-79,61,17,-85,-42,19,303,96,32
96,71,-26,-83,61,22,-80,-52,14,294,109,51
85,55,-30,-69,57,12,-59,-48,2,281,113,54
70,20,-51,-45,60,-15,-57,-50,-8,263,87,21
50,-19,-69,-15,60,-44,-51,-42,-16,247,69,10
19,-49,-67,15,43,-58,-47,-49,-24,242,55,-2
23,-57,-80,18,52,-68,-44,-37,-28,233,43,-18
13,-54,-67,20,41,-60,-37,-41,-26,227,38,-25
27,-50,-77,11,52,-63,-36,-28,-16,217,32,-24
6,-53,-58,24,32,-55,-30,-32,-11,217,22,-29
19,-37,-56,9,38,-46,-3,-2,-3,229,22,-44
-23,33,57,-5,-40,45,107,137,159,383,93,-24
241,287,46,-264,97,166,135,549,708,1088,707,282
852,385,-468,-618,660,-41,-248,717,1028,1519,1358,673
640,139,-501,-389,570,-181,-561,-194,131,593,860,570
138,-82,-220,-28,179,-150,-449,-762,-680,-296,35,175
58,-150,-209,47,134,-179,-241,-389,-430,-177,-106,-15
14,-112,-126,50,70,-119,-88,-161,-171,41,-45,-50
0,-92,-91,46,46,-91,-32,-60,-78,124,-43,-63
-19,-88,-70,53,26,-79,-8,-32,-45,147,-35,-59
-8,-72,-64,40,29,-68,-3,-32,-51,138,-37,-61
-1,-68,-67,35,33,-67,-6,-17,-32,148,-30,-59
-7,-64,-56,36,25,-59,1,-24,-40,141,-31,-65
-7,-65,-58,37,26,-61,-1,-10,-27,148,-26,-71
-5,-61,-56,33,26,-58,-1,-13,-27,143,-24,-72
9,-58,-67,25,38,-62,-6,-18,-29,146,-26,-76
-2,-64,-62,33,30,-63,-4,-29,-44,145,-24,-78
-12,-66,-54,39,21,-59,-6,-20,-43,142,-27,-81
-10,-67,-57,39,23,-62,-4,-14,-35,138,-23,-79
-8,-49,-41,29,17,-45,-7,-8,-31,131,-31,-82
-7,-65,-57,36,25,-60,11,0,-24,129,-50,-90
-7,-106,-99,56,46,-102,40,4,-20,123,-47,-90
-9,-69,-60,39,26,-64,40,13,-12,119,-41,-89
-9,-47,-38,28,15,-43,40,21,-7,137,-39,-86
-9,-47,-39,28,15,-43,40,27,1,147,-32,-85
-8,-35,-27,22,9,-31,40,38,8,143,-32,-85
-9,-33,-24,21,8,-28,39,47,17,149,-35,-85
-10,-25,-15,18,2,-20,34,50,23,148,-35,-85
-12,-22,-10,17,-1,-16,36,56,21,142,-39,-85
-15,-17,-2,16,-6,-9,32,65,18,138,-42,-85
-16,-12,4,14,-10,-4,30,65,15,130,-49,-85
-20,-9,11,14,-16,1,30,65,13,127,-55,-81
-15,-1,14,8,-14,6,27,65,9,128,-53,-74
-3,7,10,-2,-7,8,22,65,16,137,-43,-68
7,15,8,-11,0,11,19,64,45,161,-16,-61
18,23,5,-21,6,14,15,56,68,190,18,-55
20,22,1,-21,9,12,12,48,66,211,48,-55
20,20,0,-20,10,10,8,40,54,203,47,-55
17,20,3,-19,7,11,5,32,43,187,34,-55
9,15,6,-12,1,10,2,26,33,169,25,-55
7,15,9,-11,-2,12,0,19,26,148,16,-55
2,14,12,-8,-5,12,-4,12,19,141,12,-59
-5,10,15,-3,-10,12,-5,6,13,134,6,-60
-5,10,15,-3,-10,12,-1,-2,5,127,3,-60
-5,10,15,-3,-10,12,3,-4,1,121,-3,-60
-5,10,15,-3,-10,12,6,0,4,114,-4,-60
-5,10,15,-3,-10,12,9,0,7,116,1,-59
-1,14,15,-7,-9,14,14,2,10,132,3,-55
-3,12,15,-5,-9,13,14,6,13,136,7,-55
-6,9,15,-2,-10,12,10,4,16,134,10,-55
-9,6,15,1,-13,10,10,5,13,136,13,-55
-11,4,15,3,-13,9,8,5,9,133,18,-55
-16,-1,15,8,-15,6,4,5,10,128,19,-51
-12,3,15,4,-14,9,5,5,10,122,15,-50
13,28,15,-21,-1,21,8,5,10,117,12,-49
14,29,15,-22,-1,22,11,4,10,111,10,-46
7,21,15,-14,-4,18,15,-12,5,106,6,-44
6,18,12,-12,-3,15,14,-18,0,106,5,-49
2,11,9,-6,-4,10,10,-14,-4,103,0,-56
0,6,6,-4,-3,6,10,-15,-9,97,-10,-55
1,5,3,-3,-1,4,10,-15,-13,94,-21,-55
5,5,0,-5,2,2,10,-15,-18,89,-28,-56
4,5,1,-5,1,3,10,-16,-20,84,-25,-54
-4,5,9,0,-7,7,6,-20,-20,81,-25,-62
-12,5,17,3,-15,11,5,-20,-23,80,-22,-71
-12,5,17,3,-15,11,5,-20,-26,80,-20,-70
-9,5,14,2,-12,9,5,-20,-24,80,-19,-66
3,13,11,-8,-4,12,5,-20,-21,80,-21,-65
5,14,9,-9,-2,11,6,-20,-20,82,-31,-65
3,7,4,-5,-1,5,15,-23,-20,85,-30,-61
-3,4,7,-1,-6,6,17,-25,-20,85,-28,-59
-18,-2,17,10,-17,8,15,-25,-21,85,-25,-62
-20,-5,15,12,-17,5,15,-25,-17,85,-24,-65
-20,-5,15,12,-17,5,10,-25,-15,85,-28,-65
-18,-5,13,11,-15,4,10,-25,-15,79,-32,-65
-15,-5,10,10,-12,2,11,-25,-15,73,-36,-65
-15,-5,10,10,-12,2,15,-24,-15,69,-34,-64
-16,-5,11,11,-13,2,15,-26,-15,62,-36,-69
-12,-4,8,8,-10,1,15,-25,-10,57,-34,-69
-26,-11,15,18,-20,2,15,-22,-5,56,-37,-72
-32,-13,19,22,-25,3,15,-16,-1,60,-44,-79
-17,8,25,4,-21,16,28,-12,4,63,-36,-71
-12,26,38,-7,-25,32,40,-9,8,65,-24,-59
7,49,42,-28,-18,46,64,26,16,80,-12,-51
13,62,50,-37,-19,55,96,53,45,106,-1,-42
20,70,50,-45,-16,59,91,73,65,119,13,-37
32,78,46,-56,-7,62,46,48,35,93,21,-28
35,79,44,-57,-5,61,-12,-31,-12,60,11,-23
19,89,70,-54,-25,79,-28,-43,-27,64,5,-15
-5,71,75,-33,-40,73,-7,-35,-24,76,-5,-13
1,29,28,-15,-14,28,2,-38,-21,62,-12,-36
-24,-14,9,19,-17,-3,6,-28,-19,44,-29,-63
-38,-21,17,30,-27,-2,11,-34,-31,41,-50,-82
-20,-19,1,20,-11,-9,14,-21,-29,39,-57,-90
-31,-21,11,26,-21,-5,20,-25,-26,40,-53,-84
-12,-19,-7,15,-3,-13,25,-9,-25,32,-50,-86
-34,-23,11,29,-23,-6,30,-13,-17,38,-51,-84
-39,-8,31,24,-35,11,44,2,-21,37,-60,-96
-67,52,119,8,-94,85,150,128,118,169,-32,-90
140,296,156,-218,-8,225,208,520,642,850,543,187
757,415,-342,-586,549,36,-144,789,1095,1425,1292,602
652,180,-472,-416,562,-146,-493,-49,291,612,900,556
102,-61,-163,-20,133,-112,-403,-729,-690,-452,-3,143
-11,-136,-124,74,56,-130,-198,-388,-474,-380,-202,-78
-38,-98,-60,69,11,-79,-38,-135,-179,-111,-127,-110
-36,-65,-29,51,-3,-47,35,-34,-105,-45,-128,-118
-41,-48,-7,44,-17,-27,44,4,-48,3,-114,-118
-49,-43,6,46,-27,-18,60,0,-63,-7,-115,-121
-47,-47,0,46,-23,-24,58,11,-42,8,-105,-119
-56,-44,13,50,-34,-15,61,0,-52,2,-102,-120
-55,-46,9,50,-32,-18,59,10,-39,10,-100,-120
-62,-44,18,53,-39,-13,60,1,-41,10,-100,-120
-54,-45,8,49,-30,-18,60,19,-36,9,-101,-120
-56,-45,11,51,-33,-16,59,30,-30,11,-99,-123
-53,-45,8,49,-30,-18,63,29,-30,9,-101,-126
-50,-45,5,47,-27,-20,66,31,-23,11,-99,-125
-50,-45,5,47,-27,-20,71,29,-22,9,-100,-125
-50,-42,8,46,-29,-17,74,36,-16,12,-104,-125
-65,-39,27,52,-46,-6,77,49,-12,15,-106,-124
-67,-36,30,52,-48,-3,81,53,-6,14,-105,-119
-64,-33,31,48,-47,-1,86,57,0,18,-103,-114
-67,-31,36,48,-52,2,84,69,4,25,-100,-110
-62,-28,34,45,-48,3,90,80,13,24,-100,-105
-62,-18,44,40,-53,13,100,90,22,33,-100,-100
-60,-5,56,32,-58,25,103,101,33,37,-100,-96
-51,4,55,23,-53,29,105,111,35,34,-100,-95
-46,9,55,18,-51,32,105,116,36,36,-100,-95
-41,13,54,13,-48,34,105,116,39,34,-100,-95
-39,18,57,10,-48,37,105,121,42,36,-99,-95
-39,22,61,9,-51,41,104,120,44,34,-89,-93
-29,28,56,0,-43,42,101,125,46,45,-81,-83
-21,31,51,-5,-36,41,96,130,69,78,-62,-70
-23,25,48,-1,-36,36,94,121,75,102,-36,-68
-22,20,42,1,-32,31,89,109,61,105,-34,-71
-26,14,41,6,-34,27,86,98,52,94,-36,-70
-41,9,50,16,-46,29,83,88,39,79,-34,-70
-52,4,56,24,-54,30,78,77,25,68,-45,-71
-54,0,54,27,-54,26,75,68,7,61,-62,-76
-58,0,58,29,-58,29,72,57,-4,54,-66,-74
-60,0,60,30,-60,30,67,51,-8,48,-65,-75
-60,0,60,30,-60,30,65,48,-13,40,-71,-84
-57,0,57,28,-57,28,70,45,-14,36,-73,-85
-51,3,54,23,-53,29,70,43,-10,33,-69,-85
-49,7,55,21,-53,31,71,38,-7,30,-67,-85
-45,10,55,17,-49,32,75,48,-5,28,-64,-85
-42,13,55,14,-49,34,75,56,-1,24,-61,-83
-38,17,54,10,-46,35,73,54,1,29,-60,-78
-36,20,56,8,-46,38,69,55,-4,31,-65,-75
-45,20,65,12,-55,42,70,55,-5,30,-65,-72
-45,20,65,12,-55,42,70,55,-5,29,-65,-67
-40,20,61,10,-50,40,70,52,-5,25,-65,-65
-39,20,59,9,-49,39,69,47,-5,25,-64,-74
-38,17,55,10,-47,36,66,45,-6,23,-68,-79
-43,11,54,15,-48,32,63,40,-12,17,-70,-75
-43,6,50,19,-47,28,60,37,-19,13,-71,-75
-47,3,50,22,-49,26,58,33,-26,8,-75,-75
-54,-3,50,28,-52,23,54,30,-33,4,-76,-75
-53,-4,49,28,-50,22,58,30,-39,-1,-79,-74
-63,0,63,31,-63,32,62,28,-40,-4,-84,-80
-72,0,72,36,-72,36,60,24,-40,-9,-85,-89
-67,0,67,33,-67,33,60,26,-40,-12,-85,-90
-65,0,65,32,-65,32,60,20,-40,-17,-85,-92
-61,0,61,30,-61,31,60,12,-39,-22,-85,-96
-63,-4,60,33,-61,28,60,6,-42,-25,-93,-95
-66,-5,60,35,-62,27,60,-2,-45,-30,-98,-95
-65,-5,60,35,-62,27,60,-9,-46,-30,-101,-95
-70,-10,60,40,-65,25,60,-16,-55,-30,-105,-95
-74,-11,63,42,-69,26,60,-22,-54,-30,-105,-95
-74,-8,66,41,-70,28,60,-29,-51,-29,-105,-95
-70,-6,64,37,-66,29,58,-33,-48,-33,-105,-99
-68,-2,66,34,-67,32,54,-37,-45,-35,-109,-100
-64,-1,64,32,-64,31,55,-40,-44,-35,-110,-100
-62,5,67,28,-65,35,55,-44,-38,-35,-110,-100
-65,3,69,31,-68,36,55,-50,-31,-28,-109,-100
-65,17,82,24,-74,50,64,-38,-23,-19,-98,-99
-58,47,104,5,-81,75,81,-33,-19,-11,-85,-90
-45,57,102,-6,-74,79,103,-10,-1,0,-76,-80
-38,72,110,-17,-74,90,122,7,12,16,-75,-70
-26,88,114,-31,-70,101,130,24,32,37,-75,-61
-6,96,102,-45,-54,99,76,0,10,11,-70,-56
-5,94,99,-45,-52,96,26,-87,-59,-34,-69,-53
6,97,91,-52,-43,94,27,-86,-67,-41,-71,-46
1,85,83,-43,-42,84,28,-79,-63,-39,-74,-48
-50,34,83,8,-67,58,48,-96,-67,-41,-89,-73
-70,5,74,32,-72,39,53,-86,-62,-54,-123,-99
-78,2,80,37,-79,41,56,-101,-67,-55,-125,-109
-76,-10,67,43,-71,28,60,-89,-64,-56,-124,-110
-91,-15,75,53,-83,30,59,-100,-71,-54,-126,-111
-83,-17,66,50,-74,24,61,-91,-67,-56,-121,-108
-75,-5,71,40,-73,33,57,-97,-60,-54,-132,-113
-85,8,93,38,-89,50,79,-92,-61,-43,-128,-113
-132,52,184,40,-158,117,180,30,78,66,-101,-103
45,275,230,-160,-92,252,247,393,563,670,386,122
689,375,-315,-532,502,30,-90,730,1006,1191,1062,499
658,147,-511,-402,584,-182,-483,-51,262,436,733,471
95,-73,-168,-11,132,-120,-411,-826,-708,-548,-82,109
-47,-143,-96,96,24,-119,-184,-514,-516,-483,-274,-99
-104,-104,0,104,-52,-52,-8,-241,-212,-209,-213,-130
-112,-57,55,84,-83,-1,82,-140,-134,-136,-211,-130
-121,-41,80,81,-101,20,84,-107,-82,-111,-187,-131
-133,-35,98,84,-115,31,94,-117,-96,-123,-187,-135
-118,-35,83,76,-100,24,95,-102,-74,-104,-184,-135
-124,-28,96,76,-110,34,95,-116,-81,-107,-185,-132
-112,-27,85,70,-98,29,93,-105,-67,-97,-185,-130
-114,-22,93,68,-103,35,89,-113,-66,-95,-184,-130
-109,-20,89,65,-99,34,90,-104,-61,-95,-187,-130
-110,-19,90,64,-100,35,103,-104,-57,-94,-189,-130
-111,-21,91,66,-101,35,112,-101,-57,-96,-190,-129
-108,-20,88,64,-98,34,109,-96,-51,-94,-192,-126
-112,-20,92,66,-102,36,114,-96,-51,-93,-196,-123
-116,-25,91,70,-103,33,115,-92,-47,-85,-195,-120
-122,-24,98,73,-109,37,114,-86,-41,-82,-192,-118
-123,-28,95,75,-108,33,116,-79,-34,-77,-190,-114
-116,-8,108,62,-112,50,123,-73,-28,-73,-190,-119
-154,-17,136,85,-145,59,137,-66,-21,-68,-190,-126
-150,-25,125,87,-137,50,141,-55,-8,-44,-190,-120
-104,38,143,33,-124,90,140,-42,11,-41,-189,-116
-100,64,164,18,-132,114,140,-32,19,-45,-184,-112
-99,59,158,20,-128,108,140,-23,22,-39,-180,-107
-103,59,161,22,-132,110,141,-12,32,-37,-178,-101
-105,54,159,25,-132,106,141,-3,37,-32,-173,-94
-106,55,161,25,-134,107,140,5,34,-30,-171,-88
-95,60,155,17,-125,107,140,13,36,-19,-159,-80
-82,65,147,8,-115,106,135,22,58,2,-136,-76
-76,65,141,5,-109,103,135,23,77,23,-130,-79
-61,72,133,-6,-97,102,134,14,82,30,-128,-80
-59,66,125,-4,-92,96,126,7,70,17,-124,-80
-69,53,121,8,-95,87,118,-15,53,6,-122,-80
-88,43,130,23,-109,86,110,-42,33,-5,-119,-79
-95,34,129,30,-113,81,102,-64,7,-18,-133,-83
-95,30,126,32,-111,78,103,-79,-2,-29,-145,-85
-98,25,123,36,-111,74,106,-83,-6,-39,-150,-91
-98,22,120,38,-109,71,104,-88,-11,-44,-158,-93
-104,15,120,45,-112,67,105,-89,-15,-48,-160,-89
-103,18,120,43,-112,69,104,-85,-20,-54,-160,-90
-99,20,119,39,-109,70,106,-83,-20,-59,-160,-90
-101,20,121,41,-111,71,110,-80,-20,-58,-155,-90
-111,20,131,45,-121,75,110,-77,-20,-53,-155,-89
-113,20,133,46,-123,76,110,-74,-20,-50,-154,-86
-93,35,128,29,-111,82,110,-79,-20,-47,-150,-83
-83,41,125,20,-104,82,110,-80,-20,-42,-150,-80
-83,39,122,22,-103,81,106,-80,-20,-40,-150,-77
-76,40,116,18,-96,78,105,-80,-20,-44,-150,-75
-77,40,117,18,-97,78,105,-79,-20,-46,-150,-75
-90,39,129,25,-110,84,100,-81,-19,-44,-150,-75
-95,36,130,29,-113,83,100,-85,-21,-46,-150,-75
-96,33,129,32,-113,81,99,-84,-20,-42,-151,-75
-100,30,130,35,-115,80,95,-88,-20,-41,-154,-75
-102,27,130,38,-116,78,95,-90,-37,-57,-157,-74
-104,24,129,40,-117,76,92,-90,-41,-61,-159,-83
-97,27,125,34,-111,76,90,-94,-39,-61,-163,-91
-95,30,125,32,-110,77,90,-95,-40,-67,-165,-90
-95,30,125,32,-110,77,95,-95,-41,-63,-166,-90
-95,30,125,32,-110,77,97,-95,-46,-60,-170,-90
-95,30,125,32,-110,77,94,-95,-45,-60,-170,-90
-92,29,121,31,-106,75,95,-93,-45,-60,-170,-86
-94,26,120,34,-107,72,95,-90,-48,-60,-170,-84
-99,21,120,39,-110,71,95,-87,-52,-60,-170,-85
-100,19,119,41,-110,69,95,-85,-55,-64,-170,-85
-107,15,122,46,-115,68,98,-81,-55,-65,-170,-85
-104,10,114,47,-109,62,100,-79,-57,-65,-172,-86
-106,16,122,45,-114,69,99,-88,-61,-65,-178,-90
-112,21,132,46,-122,77,100,-91,-59,-65,-180,-90
-110,15,125,47,-118,70,99,-89,-57,-65,-180,-90
-112,12,125,49,-119,68,101,-91,-54,-65,-180,-90
-111,9,120,51,-116,64,104,-89,-51,-66,-174,-90
-117,3,120,57,-119,61,107,-91,-49,-64,-169,-86
-114,14,128,50,-121,70,109,-82,-45,-69,-164,-79
-114,30,145,42,-130,87,113,-73,-44,-64,-157,-72
-104,52,156,25,-130,104,125,-58,-19,-41,-153,-66
-93,61,154,16,-124,107,155,-31,5,-23,-147,-58
-95,56,151,19,-123,103,177,0,30,4,-144,-56
-66,82,148,-8,-108,115,153,11,43,11,-139,-60
-59,86,145,-14,-103,115,109,-53,2,-36,-137,-60
-59,86,145,-14,-102,115,63,-102,-41,-69,-132,-62
-71,90,161,-10,-116,125,56,-90,-55,-70,-129,-66
-94,57,152,18,-123,104,84,-91,-55,-72,-143,-63
-87,21,108,33,-98,64,97,-86,-59,-76,-169,-72
-109,-7,103,57,-106,48,106,-81,-60,-74,-198,-93
-125,-16,109,70,-117,46,111,-82,-61,-69,-198,-93
-122,-24,98,72,-110,37,109,-71,-59,-71,-204,-102
-134,-20,114,76,-124,47,111,-81,-60,-68,-202,-111
-125,-32,93,78,-109,30,109,-64,-61,-73,-208,-120
-156,-33,123,94,-139,45,110,-79,-57,-66,-207,-118
-147,-5,142,76,-145,68,145,-45,-25,-66,-212,-123
-173,92,265,40,-219,178,276,133,192,178,-90,-69
170,306,136,-238,17,221,248,576,737,865,539,236
769,307,-462,-538,615,-77,-186,661,871,995,948,501
461,55,-406,-258,433,-175,-458,-326,-120,10,361,354
-33,-118,-86,76,26,-102,-298,-775,-728,-624,-281,26
-96,-134,-38,115,-29,-85,-82,-358,-380,-390,-328,-119
-166,-92,74,129,-120,-9,75,-172,-174,-184,-277,-127
-166,-66,100,115,-133,17,137,-82,-97,-123,-274,-132
-174,-49,125,111,-149,37,143,-73,-79,-117,-254,-129
-173,-49,124,110,-149,38,151,-66,-81,-119,-257,-131
-169,-46,124,107,-146,39,149,-57,-66,-107,-253,-130
-169,-42,127,105,-148,42,150,-59,-73,-110,-256,-130
-164,-41,123,102,-144,40,150,-44,-58,-99,-254,-130
-175,-37,138,105,-156,51,150,-47,-61,-102,-255,-130
-168,-35,133,101,-150,49,153,-37,-53,-99,-257,-135
-171,-35,137,102,-153,51,155,-42,-53,-100,-260,-135
-169,-35,134,102,-151,49,156,-37,-50,-100,-260,-132
-171,-35,136,102,-153,50,160,-34,-46,-99,-255,-129
-169,-35,134,101,-151,50,160,-36,-45,-96,-255,-130
-166,-31,135,98,-150,51,165,-30,-41,-91,-253,-126
-164,-28,136,95,-150,54,165,-20,-35,-89,-250,-125
-157,-27,131,92,-144,52,165,-10,-27,-84,-250,-125
-170,-20,150,95,-160,65,180,0,-21,-82,-248,-120
-167,-25,143,96,-155,59,187,10,-14,-76,-245,-115
-166,3,170,81,-168,86,184,20,-2,-62,-242,-111
-172,43,216,64,-194,130,186,30,10,-48,-239,-106
-168,39,208,65,-188,123,184,42,20,-40,-236,-101
-171,39,211,66,-191,125,186,53,29,-37,-234,-97
-166,43,210,62,-188,126,187,59,34,-34,-228,-93
-166,44,210,61,-188,126,183,62,37,-29,-220,-87
-155,54,208,50,-181,131,180,67,42,-26,-212,-84
-142,59,200,41,-171,129,177,71,46,-19,-204,-78
-132,64,196,34,-164,130,172,86,62,3,-196,-75
-120,69,189,25,-155,129,169,92,77,27,-181,-75
-121,64,185,28,-153,124,164,81,70,31,-169,-75
-122,58,180,32,-151,119,157,74,66,15,-168,-75
-123,53,176,35,-150,114,151,44,43,-2,-173,-75
-126,47,173,39,-150,110,144,17,13,-14,-184,-74
-127,43,170,42,-149,106,137,8,4,-31,-193,-78
-125,39,164,43,-145,101,135,-5,-4,-45,-208,-87
-132,37,169,47,-151,103,135,-15,-12,-55,-219,-97
-141,33,174,53,-158,104,135,-20,-19,-73,-228,-98
-152,32,184,60,-168,107,135,-20,-24,-72,-231,-94
-168,29,196,69,-182,112,135,-20,-29,-66,-229,-95
-167,27,194,70,-181,110,136,-20,-28,-61,-230,-95
-160,37,197,61,-179,117,134,-20,-24,-54,-230,-95
-159,41,200,59,-180,121,139,-16,-25,-50,-230,-95
-161,39,200,61,-180,119,150,-15,-22,-45,-224,-90
-155,41,196,56,-176,119,150,-15,-19,-40,-217,-87
-149,45,195,51,-172,120,150,-15,-21,-35,-210,-83
-151,44,194,53,-173,119,150,-15,-24,-32,-205,-80
-141,50,191,46,-166,120,150,-16,-25,-25,-195,-74
-127,62,189,33,-158,125,148,-20,-25,-27,-206,-81
-136,58,194,39,-165,126,144,-20,-25,-30,-222,-91
-150,55,205,47,-178,130,142,-20,-28,-30,-219,-89
-152,53,205,49,-179,129,139,-23,-30,-35,-223,-93
-155,49,204,53,-180,126,136,-26,-39,-35,-225,-96
-155,51,205,52,-180,128,134,-29,-49,-37,-224,-94
-155,49,204,52,-179,126,131,-32,-51,-40,-229,-99
-157,50,208,53,-183,129,126,-34,-54,-47,-236,-100
-161,49,210,56,-185,130,123,-43,-57,-56,-241,-100
-159,51,210,54,-184,131,120,-51,-60,-54,-245,-105
-149,60,210,45,-180,135,115,-50,-60,-56,-245,-105
-151,60,210,46,-181,135,117,-50,-62,-60,-247,-106
-159,55,214,51,-187,135,120,-50,-66,-60,-251,-110
-161,54,215,53,-189,134,120,-50,-64,-60,-249,-110
-165,49,215,58,-190,131,120,-54,-69,-60,-254,-110
-164,52,215,56,-190,133,120,-55,-70,-60,-258,-110
-159,55,214,52,-187,135,120,-55,-70,-60,-255,-110
-163,55,218,54,-191,136,120,-55,-70,-60,-255,-110
-163,55,218,54,-191,136,120,-55,-70,-61,-255,-110
-163,51,214,55,-188,132,120,-54,-70,-64,-254,-110
-173,50,222,61,-197,136,120,-49,-71,-66,-256,-110
-186,50,236,67,-211,142,120,-51,-75,-71,-253,-110
-184,50,234,66,-209,142,120,-47,-79,-67,-263,-110
-186,49,235,68,-211,142,119,-45,-76,-62,-275,-114
-183,52,235,65,-209,143,121,-45,-65,-56,-269,-109
-171,66,237,52,-204,151,119,-41,-58,-50,-259,-99
-164,92,256,36,-210,174,134,-33,-47,-46,-251,-91
-160,107,267,26,-214,187,168,-3,-29,-27,-244,-83
-162,103,264,29,-213,183,189,22,-2,-1,-240,-75
-134,130,264,1,-200,197,181,49,23,28,-236,-70
-118,149,267,-16,-193,208,135,15,-17,6,-230,-61
-118,142,260,-13,-190,201,111,-61,-67,-38,-229,-60
-128,150,277,-11,-203,213,117,-66,-70,-39,-218,-59
-156,121,277,18,-217,198,111,-56,-70,-45,-228,-60
-157,83,240,37,-199,161,111,-57,-69,-43,-260,-78
-169,62,231,53,-200,146,109,-47,-77,-59,-284,-100
-186,54,240,65,-213,147,108,-49,-87,-72,-289,-116
-170,56,226,57,-199,141,103,-46,-84,-66,-290,-120
-182,52,234,65,-208,142,109,-54,-84,-64,-296,-123
-177,51,227,63,-202,139,120,-46,-80,-58,-291,-121
-187,49,235,69,-211,142,121,-44,-79,-59,-305,-131
-200,47,247,76,-224,147,142,-40,-75,-46,-290,-120
-230,81,311,74,-271,196,220,57,33,36,-275,-116
-102,300,402,-99,-252,351,314,393,472,599,160,71
522,447,-74,-485,298,186,26,764,959,1202,896,476
605,259,-346,-432,475,-43,-390,109,356,573,684,505
26,27,1,-26,12,14,-355,-741,-648,-448,-160,144
-166,-73,93,120,-129,10,-148,-520,-596,-508,-450,-98
-194,-43,150,118,-171,53,24,-198,-263,-236,-382,-146
-218,-2,216,110,-217,107,129,-88,-144,-143,-372,-144
-216,11,227,102,-222,119,139,-47,-99,-114,-364,-146
-229,18,247,106,-239,132,138,-58,-112,-115,-360,-145
-219,11,231,104,-226,121,133,-36,-88,-99,-357,-144
-223,40,264,91,-244,152,140,-46,-96,-100,-350,-164
-219,49,268,85,-244,158,150,-31,-86,-91,-353,-177
-223,37,260,92,-242,148,150,-32,-85,-87,-354,-169
-221,34,255,94,-238,144,150,-26,-81,-81,-356,-168
-224,22,246,100,-235,134,150,-22,-81,-82,-353,-163
-223,19,242,102,-233,130,148,-21,-87,-99,-352,-160
-233,9,242,111,-238,125,157,-14,-83,-96,-348,-160
-240,8,248,116,-244,128,161,-13,-86,-89,-355,-160
-222,29,251,96,-237,140,159,-7,-79,-82,-373,-160
-218,36,254,90,-237,145,160,-2,-76,-76,-370,-160
-223,34,258,94,-241,146,160,6,-71,-70,-360,-160
-225,35,259,95,-243,147,160,12,-67,-64,-354,-159
-226,36,261,95,-244,148,165,20,-61,-59,-346,-154
-225,33,258,96,-242,145,171,48,-46,-52,-345,-149
-223,44,266,90,-245,155,170,63,-33,-48,-347,-145
-225,60,285,82,-255,172,171,64,-25,-40,-345,-140
-223,63,286,80,-255,174,176,70,-23,-30,-338,-135
-217,66,283,75,-251,175,175,75,-19,-12,-334,-131
-217,71,289,72,-253,180,175,75,-16,-13,-327,-124
-208,84,292,62,-251,188,171,74,-12,-28,-323,-118
-202,85,288,58,-246,186,169,84,8,1,-315,-111
-197,86,283,55,-240,185,170,93,25,19,-299,-104
-187,92,279,47,-233,185,164,106,47,44,-276,-98
-189,86,274,51,-232,180,159,104,58,66,-253,-95
-188,82,269,53,-229,175,154,90,43,54,-250,-95
-186,77,263,54,-225,170,148,78,34,50,-249,-95
-186,73,259,56,-222,165,142,57,19,42,-265,-100
-185,68,253,58,-219,160,142,44,-15,34,-288,-101
-182,64,247,59,-215,155,146,36,-30,26,-283,-99
-186,58,244,64,-215,151,144,25,-32,17,-290,-105
-199,55,254,72,-227,154,148,16,-36,11,-307,-105
-206,50,256,78,-231,152,154,15,-34,5,-311,-105
-208,45,253,81,-231,149,156,15,-41,6,-308,-105
-203,49,252,77,-228,150,160,15,-44,4,-305,-105
-197,50,247,74,-222,148,157,14,-37,0,-302,-105
-199,56,255,71,-228,156,154,16,-33,0,-299,-101
-204,51,255,76,-230,153,155,14,-26,2,-296,-99
-208,71,278,68,-243,174,155,12,-21,8,-294,-100
-210,72,282,68,-246,177,155,24,-23,11,-291,-99
-212,38,250,87,-231,144,155,26,-26,17,-289,-101
-213,44,257,84,-235,150,155,25,-33,20,-285,-98
-216,39,255,88,-235,146,155,23,-35,10,-284,-95
-213,41,253,86,-233,147,155,20,-35,20,-279,-95
-214,37,251,89,-233,143,155,20,-35,27,-282,-94
-215,33,248,91,-232,140,155,17,-35,16,-296,-96
-213,39,252,87,-233,145,154,13,-36,11,-302,-94
-213,22,235,95,-224,128,156,13,-35,5,-302,-91
-206,57,263,74,-234,160,153,4,-54,-5,-310,-73
-227,29,256,99,-242,143,158,-15,-74,9,-328,-74
-232,0,232,115,-232,116,167,-13,-71,22,-328,-104
-218,37,255,91,-237,146,162,-8,-64,15,-320,-104
-225,27,252,98,-239,140,160,-7,-60,13,-319,-98
-222,30,252,96,-237,141,157,0,-53,7,-311,-97
-223,26,249,99,-237,137,154,-2,-51,7,-311,-91
-221,24,245,98,-234,135,155,-5,-62,-8,-317,-90
-219,25,244,97,-232,135,154,-5,-66,-22,-321,-91
-220,19,239,101,-229,129,155,-5,-65,-14,-318,-88
-222,21,244,101,-233,132,154,-5,-63,-10,-314,-100
-239,17,256,110,-247,136,155,-5,-59,-5,-313,-117
-240,14,254,112,-248,134,153,-9,-60,3,-308,-111
-239,16,255,111,-247,135,150,-16,-63,3,-316,-108
-239,18,257,110,-248,137,150,-20,-74,0,-335,-105
-224,22,246,100,-235,134,150,-27,-74,0,-342,-100
-235,37,272,99,-254,154,150,-29,-69,-11,-341,-98
-231,25,256,103,-244,140,149,-21,-67,-12,-337,-91
-211,17,228,97,-219,122,156,-10,-62,1,-331,-87
-231,26,257,102,-244,141,163,1,-60,9,-325,-81
-231,41,272,94,-252,156,173,14,-48,20,-320,-74
-212,73,285,69,-249,179,198,39,-28,36,-308,-71
-208,78,286,65,-247,181,214,69,4,60,-291,-62
-200,83,283,58,-241,182,220,92,32,99,-290,-54
-186,103,289,41,-237,196,191,73,19,99,-290,-45
-180,98,278,40,-229,188,134,16,-28,47,-289,-37
-184,120,304,32,-245,212,114,-16,-61,41,-291,-34
-186,114,299,36,-243,206,131,-13,-60,49,-288,-27
-210,46,256,82,-233,150,145,-11,-60,36,-304,-53
-237,6,243,115,-240,124,154,-5,-60,26,-332,-90
-245,-7,237,126,-241,115,161,-4,-60,14,-338,-101
-233,-10,223,121,-228,106,159,1,-61,11,-341,-93
-236,-17,219,127,-227,101,160,5,-53,7,-349,-97
-239,-17,221,128,-230,102,166,3,-57,6,-346,-106
-235,-28,207,131,-220,89,162,8,-52,0,-360,-115
-241,-12,228,127,-234,108,172,5,-53,2,-344,-110
-243,14,257,114,-250,135,231,75,8,33,-354,-118
-241,159,400,40,-321,280,350,310,318,411,-95,2
262,415,153,-338,54,283,193,747,936,1248,752,446
598,336,-261,-467,429,37,-247,424,782,1162,993,669
80,47,-32,-63,56,7,-338,-555,-389,-93,85,328
-229,-114,115,171,-172,1,-141,-593,-717,-573,-506,-23
-236,-120,116,178,-176,-2,36,-201,-319,-256,-467,-120
-292,-97,195,195,-243,48,161,-56,-164,-113,-423,-113
-295,-119,176,207,-235,29,197,36,-91,-64,-394,-104
-296,-65,231,180,-263,82,211,33,-98,-66,-421,-142
-280,-38,242,159,-260,102,207,45,-79,-48,-421,-151
-277,-50,227,163,-252,88,203,37,-78,-34,-401,-138
-268,-41,226,154,-246,92,201,35,-79,-32,-408,-140
-262,-50,211,156,-236,80,194,36,-70,-28,-402,-130
-271,-53,217,162,-244,81,198,36,-74,-32,-407,-132
-281,-57,224,169,-252,83,200,43,-66,-28,-403,-135
-281,-60,221,171,-251,80,204,44,-67,-32,-406,-135
-271,-57,214,164,-243,78,207,50,-64,-26,-408,-131
-267,-55,213,161,-240,79,209,51,-66,-25,-413,-129
-259,-55,204,157,-231,74,218,55,-65,-25,-414,-130
-263,-51,211,156,-237,80,226,57,-65,-20,-409,-129
-279,-50,229,164,-254,90,224,64,-61,-20,-410,-131
-282,-50,232,166,-257,91,225,72,-54,-20,-410,-128
-277,-43,234,160,-255,95,225,82,-48,-10,-410,-125
-273,-35,239,154,-256,102,225,93,-41,-1,-410,-123
-266,-27,239,147,-253,106,225,102,-34,12,-406,-120
-260,-19,241,139,-250,111,225,108,-28,17,-404,-116
-270,-13,257,141,-263,122,225,119,-24,29,-401,-115
-268,-7,261,138,-265,127,225,130,-18,58,-397,-111
-262,-3,259,132,-260,128,225,130,-15,61,-396,-106
-255,2,257,126,-256,129,223,135,-9,64,-393,-102
-248,6,254,121,-252,130,220,134,-6,66,-397,-97
-244,12,255,116,-249,133,220,138,7,77,-379,-93
-227,23,250,102,-238,136,220,155,37,111,-345,-89
-230,21,250,105,-240,135,220,148,49,139,-344,-83
-237,11,249,113,-243,130,220,137,40,147,-345,-79
-238,6,244,116,-241,125,216,128,31,134,-347,-75
-249,-4,245,126,-247,121,215,113,14,122,-351,-70
-250,-8,242,129,-246,117,214,97,-8,109,-349,-75
-250,-12,238,131,-244,113,210,82,-25,91,-354,-84
-261,-27,235,144,-248,103,209,80,-39,78,-354,-86
-263,-31,232,147,-247,100,211,80,-46,74,-358,-89
-256,-29,227,142,-241,99,215,80,-45,75,-366,-92
-255,-31,224,143,-240,96,215,80,-45,75,-364,-95
-260,-28,231,144,-245,102,215,80,-45,75,-365,-95
-258,-25,233,141,-245,103,215,85,-45,75,-364,-95
-252,-25,228,138,-240,101,215,85,-43,75,-365,-95
-247,-25,222,136,-234,98,219,85,-40,76,-362,-95
-244,-25,219,134,-231,97,220,85,-40,74,-359,-92
-237,-25,212,131,-224,93,222,84,-40,79,-360,-89
-242,-29,213,136,-227,91,226,88,-40,90,-356,-86
-265,-31,234,148,-249,101,223,90,-40,90,-354,-83
-260,-27,234,143,-247,103,219,90,-44,90,-355,-80
-253,-25,228,139,-240,101,213,90,-45,92,-359,-81
-248,-21,227,134,-237,102,210,90,-47,96,-360,-85
-239,-20,219,129,-229,100,205,90,-51,94,-361,-85
-249,-25,224,137,-236,99,199,94,-49,95,-365,-85
-253,-23,230,138,-241,104,216,95,-45,94,-365,-85
-249,-19,230,134,-239,105,227,94,-41,95,-362,-85
-245,-13,232,129,-238,109,228,96,-38,94,-359,-81
-259,-11,249,134,-254,119,231,93,-33,97,-356,-75
-259,8,267,125,-263,138,241,101,-31,121,-352,-70
-243,29,272,107,-257,151,262,105,-22,129,-350,-63
-247,33,280,107,-264,156,273,121,-5,143,-332,-59
-229,63,292,83,-261,177,253,139,2,157,-318,-43
-212,76,288,68,-251,182,205,107,-14,146,-320,-25
-217,73,289,72,-253,181,168,86,-54,139,-324,-20
-230,66,295,82,-262,180,168,78,-69,131,-324,-14
-243,5,248,119,-246,126,188,68,-67,123,-344,-45
-272,-48,224,159,-248,87,197,57,-92,100,-379,-82
-293,-71,222,182,-257,75,194,55,-96,80,-393,-95
-306,-87,218,196,-262,65,195,55,-95,79,-396,-102
-303,-88,215,195,-259,63,195,51,-107,73,-404,-105
-300,-92,208,196,-254,58,194,52,-103,72,-412,-111
-308,-92,216,200,-262,62,200,46,-108,66,-408,-105
-307,-98,210,202,-258,56,206,61,-103,65,-420,-107
-313,-84,230,198,-271,73,219,48,-103,72,-411,-102
-306,-53,253,179,-279,100,274,111,-36,102,-423,-122
-301,90,392,105,-347,241,402,364,287,521,-156,-4
212,308,96,-261,58,202,244,838,908,1309,623,402
608,245,-364,-426,486,-60,-239,546,733,1146,814,601
101,-32,-133,-34,117,-82,-359,-507,-455,-62,-6,312
-229,-193,35,211,-132,-79,-131,-555,-749,-473,-551,-17
-259,-186,74,222,-166,-56,74,-133,-337,-151,-509,-109
-321,-143,178,232,-249,17,202,-20,-209,-16,-481,-118
-315,-130,185,222,-250,27,225,58,-136,40,-477,-122
-330,-117,213,223,-272,48,229,54,-141,33,-469,-118
-322,-117,205,220,-263,44,236,85,-130,48,-470,-121
-320,-112,208,216,-264,48,234,78,-128,57,-459,-119
-313,-108,205,210,-259,48,236,81,-127,57,-463,-120
-309,-106,204,207,-256,49,235,87,-117,63,-464,-120
-307,-100,207,203,-257,53,234,82,-121,57,-466,-120
-304,-102,202,202,-253,50,239,88,-112,62,-464,-120
-305,-97,208,201,-257,55,238,82,-114,58,-465,-120
-315,-104,211,209,-263,53,236,88,-108,63,-468,-120
-311,-91,220,201,-266,65,233,81,-107,52,-472,-126
-328,-80,248,204,-287,84,239,89,-104,54,-476,-128
-365,-107,257,236,-311,74,260,99,-100,67,-471,-124
-354,-100,254,226,-304,77,260,105,-93,75,-466,-122
-341,-89,252,215,-296,81,260,113,-89,67,-463,-119
-332,-83,250,207,-290,83,266,121,-82,87,-457,-116
-318,-68,250,193,-284,91,264,137,-78,90,-454,-115
-314,-59,256,186,-285,98,268,147,-66,107,-449,-108
-311,-47,265,179,-288,109,270,162,-49,102,-445,-97
