I,II,III,aVR,aVL,aVF,V1,V2,V3,V4,V5,V6
126,167,41,-146,42,104,-12,257,538,997,959,526
349,21,-328,-185,338,-153,-111,208,478,1152,1314,676
501,-264,-765,-119,634,-514,-291,-255,-319,238,1164,649
382,-491,-873,55,627,-682,-258,-549,-1014,-1077,85,245
353,-534,-887,91,620,-711,-173,-402,-858,-1069,-227,93
324,-334,-658,5,491,-496,-181,-335,-615,-737,-173,103
138,-147,-285,5,211,-216,-106,-212,-326,-371,-186,33
-25,-87,-62,56,19,-74,6,-82,-136,-158,-164,-72
-93,-68,25,80,-59,-21,32,-37,-79,-127,-183,-133
-130,-71,59,100,-95,-6,33,-22,-38,-76,-161,-138
-139,-68,71,104,-105,1,57,-24,-46,-92,-177,-146
-110,-24,86,66,-98,31,63,-1,7,-37,-162,-132
-116,1,118,57,-117,59,64,5,24,-20,-162,-129
-116,4,120,56,-118,62,69,30,36,-5,-156,-121
-101,18,119,42,-110,68,70,46,58,1,-151,-114
-122,-1,121,61,-121,60,80,72,82,10,-149,-112
-134,-16,118,75,-126,51,89,101,113,16,-141,-118
-155,-33,122,94,-138,44,91,121,142,31,-134,-117
-184,-38,146,111,-165,54,94,150,173,59,-122,-106
-181,-25,156,103,-169,65,94,166,205,83,-113,-99
-183,-20,162,101,-172,71,88,173,240,123,-87,-70
-167,13,180,77,-174,96,85,167,257,150,-44,-38
-153,41,194,55,-174,118,79,158,262,173,-13,-12
-131,74,205,28,-168,139,78,154,250,193,35,31
-78,121,199,-21,-139,159,56,137,223,196,87,68
-73,120,194,-24,-134,157,11,108,202,194,124,101
-76,112,188,-18,-132,149,-2,79,174,189,155,120
-76,106,182,-15,-129,144,-1,60,153,187,146,114
-81,97,177,-8,-129,137,-8,50,131,181,131,107
-77,92,169,-8,-123,130,8,40,100,146,112,80
-83,78,161,2,-122,119,30,30,65,105,77,47
-95,58,153,18,-124,105,31,22,34,74,40,22
-125,20,146,52,-136,83,30,16,19,34,14,-22
-128,11,139,58,-134,75,28,9,11,5,6,-49
-105,29,134,38,-119,81,24,2,2,0,-5,-51
-97,32,128,32,-113,80,25,-4,-7,-5,-15,-49
-93,30,123,31,-108,76,33,-9,-14,-11,-28,-52
-90,26,116,31,-103,71,34,-16,-21,-17,-41,-64
-94,24,118,34,-106,71,25,-20,-24,-19,-47,-72
-106,21,127,42,-116,73,20,-10,-12,-14,-46,-97
-118,19,137,49,-127,78,11,-1,-1,-16,-42,-108
-117,26,143,45,-130,84,23,13,16,-5,-40,-92
-123,31,154,45,-139,92,56,30,37,18,-37,-84
-138,40,178,49,-159,109,72,32,41,26,-35,-78
-148,33,181,58,-165,106,65,29,40,25,-44,-75
-144,36,180,54,-162,108,53,26,40,26,-45,-72
-110,70,180,20,-146,125,38,23,40,25,-39,-67
-103,77,180,13,-142,128,22,20,40,25,-35,-65
-106,74,180,16,-144,127,15,19,34,19,-31,-70
-102,72,174,14,-138,123,7,12,16,6,-25,-70
-108,69,177,19,-142,123,1,4,7,-4,-26,-71
-101,70,171,15,-136,120,-10,-16,-4,-16,-23,-76
-108,65,173,21,-141,119,-12,-27,-7,-24,-28,-72
-100,65,165,18,-133,114,-11,-24,-13,-37,-42,-88
-119,64,183,27,-152,124,3,-19,-21,-47,-46,-106
-143,59,202,41,-173,130,6,-12,-12,-44,-39,-101
-146,60,206,43,-176,132,18,-14,-22,-54,-33,-94
-146,65,211,40,-179,138,14,1,-3,-49,-35,-96
-107,97,204,5,-156,150,-11,-8,-24,-61,-28,-81
-160,143,303,8,-232,222,102,37,14,-62,-148,-129
-196,206,402,-5,-299,304,111,62,45,-38,-110,-77
-111,235,345,-62,-228,290,95,230,331,445,420,210
190,47,-143,-118,166,-48,33,392,636,1113,1133,476
454,-228,-682,-113,568,-454,-240,-111,-171,288,1033,481
345,-428,-772,41,559,-600,-276,-525,-994,-1069,61,150
282,-500,-783,109,533,-641,-232,-452,-970,-1244,-393,-60
286,-337,-623,25,455,-480,-258,-367,-712,-870,-297,-7
150,-113,-263,-19,207,-187,-181,-201,-338,-427,-215,-28
-9,-20,-11,14,1,-15,-54,-70,-127,-179,-158,-87
-97,-7,89,52,-93,41,17,-1,-47,-116,-157,-116
-102,-3,99,53,-101,48,19,28,-5,-73,-144,-119
-97,4,101,47,-99,52,29,28,2,-56,-144,-118
-92,7,100,42,-96,53,25,42,13,-27,-136,-114
-84,16,100,34,-92,57,21,44,33,-26,-130,-109
-96,4,100,46,-98,51,21,74,65,-10,-139,-107
-122,-20,102,71,-112,41,14,76,67,-4,-138,-102
-103,3,106,49,-104,54,17,74,88,1,-132,-100
-87,17,104,35,-96,61,33,76,92,-1,-127,-90
-93,12,105,40,-99,58,34,75,106,22,-121,-77
-100,5,105,47,-103,55,28,86,129,51,-117,-74
-91,14,105,38,-98,59,24,94,145,63,-104,-76
-53,57,110,-2,-82,83,20,131,197,105,-71,-47
-61,51,112,4,-87,82,13,153,233,135,-39,-2
-66,54,120,5,-93,87,3,145,245,181,25,54
-29,105,135,-38,-82,120,-10,133,243,230,104,126
-3,128,131,-63,-67,129,-41,118,228,242,157,181
22,146,124,-84,-51,135,-55,106,220,241,207,228
33,151,118,-92,-43,135,-58,94,202,241,227,240
22,120,97,-71,-38,108,-59,83,167,233,216,230
-14,66,81,-26,-48,73,-68,71,129,196,181,211
-49,26,75,12,-62,50,-50,53,94,147,128,162
-48,21,69,13,-58,45,-5,36,55,101,78,132
-48,16,64,16,-56,39,-9,29,28,64,40,118
-55,3,58,26,-57,30,-16,12,15,45,30,102
-91,-36,55,63,-73,9,-23,-23,1,33,24,93
-105,-52,53,78,-78,0,-27,-39,-13,22,17,84
-76,-26,50,51,-63,12,-40,-36,-27,20,11,76
-72,-25,47,48,-59,11,-23,-24,-19,19,5,68
-70,-25,45,47,-57,10,34,-10,0,15,1,59
-70,-21,49,45,-59,14,34,-1,13,14,-4,51
-71,-20,51,46,-61,15,40,6,27,32,-6,42
-69,-19,50,44,-59,15,66,19,30,42,-11,36
-69,-14,55,41,-61,20,68,34,37,38,-13,31
-55,0,56,27,-55,28,75,36,48,39,-20,25
-57,-3,54,30,-56,26,88,26,37,33,-30,31
-96,-32,63,64,-79,15,89,27,41,37,-28,29
-88,-27,61,57,-74,17,79,18,31,37,-19,32
-44,25,70,9,-57,47,81,16,31,42,-18,35
-57,3,60,27,-59,31,49,12,33,43,-8,35
-91,-21,70,55,-80,24,39,1,36,46,-7,34
-65,-3,62,33,-63,29,43,7,48,52,1,15
-51,15,66,18,-59,40,45,16,34,47,-10,14
-88,91,178,-2,-133,134,137,105,125,76,-88,-22
-91,158,249,-33,-170,203,162,135,166,128,63,90
52,165,113,-108,-31,139,90,235,422,671,704,442
409,-42,-451,-183,430,-246,-90,233,468,969,1300,688
524,-368,-892,-78,708,-629,-246,-261,-451,-224,717,437
360,-564,-924,102,642,-743,-187,-468,-1004,-1257,-325,-11
335,-577,-912,121,624,-744,-137,-353,-823,-1121,-488,-85
292,-353,-645,30,469,-498,-189,-337,-596,-720,-309,-50
129,-130,-260,1,194,-195,-124,-185,-267,-314,-191,-58
-28,-85,-57,57,15,-71,32,-50,-80,-113,-129,-53
-92,-79,13,85,-53,-33,74,2,-28,-56,-131,-68
-115,-66,49,91,-82,-8,81,23,8,-19,-118,-67
-124,-58,66,91,-95,4,81,34,30,-12,-124,-89
-111,-49,62,79,-86,6,71,58,53,8,-114,-84
-108,-46,62,77,-85,7,74,62,60,10,-116,-83
-94,-40,54,67,-74,6,60,64,76,27,-118,-80
-88,-37,51,63,-69,7,85,59,77,31,-121,-80
-78,-32,46,54,-62,7,99,55,88,29,-135,-115
-72,-31,41,52,-57,5,82,54,96,31,-130,-124
-92,-50,42,71,-67,-4,79,48,94,28,-125,-116
-81,-32,49,56,-65,8,75,64,112,48,-117,-101
-56,-2,55,29,-56,26,72,91,159,97,-75,-65
-51,15,66,18,-59,40,67,101,190,133,-49,-33
-37,60,97,-12,-67,78,64,111,203,168,-17,-7
-33,76,110,-22,-72,93,59,113,218,202,31,18
-15,85,100,-36,-58,93,50,103,217,220,79,63
12,107,95,-60,-42,101,43,98,209,239,134,112
14,101,86,-57,-36,93,32,91,203,240,163,137
20,95,75,-57,-28,85,25,78,193,241,189,138
23,87,64,-55,-21,75,14,61,170,237,181,115
31,83,52,-57,-11,67,7,49,130,196,132,79
8,48,41,-28,-17,44,-8,39,90,149,95,47
-13,17,29,-2,-21,23,-18,12,49,113,67,31
27,44,17,-36,5,31,-10,-16,13,83,50,19
30,42,12,-36,8,27,-5,-36,-19,44,24,3
-21,-5,16,12,-19,6,3,-52,-31,28,4,-18
-22,-4,19,13,-21,8,8,-34,-22,41,12,-36
-11,11,23,0,-17,17,24,-18,-14,45,11,-34
-26,-1,26,13,-26,12,36,-12,-6,45,4,-30
-39,-10,29,25,-34,9,37,2,2,45,1,-29
-59,-25,34,42,-46,4,48,11,9,45,-4,-23
-42,-9,32,25,-37,11,44,32,23,45,-8,-30
-25,-13,12,19,-18,0,34,46,40,42,-13,-41
-42,-49,-6,46,-18,-27,30,36,36,39,-21,-38
-40,-42,-2,41,-19,-22,18,28,26,36,-22,-35
-38,-23,15,30,-26,-4,19,19,18,33,-18,-33
-55,-27,28,41,-41,1,44,11,11,30,-16,-29
-27,5,32,11,-29,18,45,4,7,29,-12,-30
23,53,30,-38,-4,41,30,-3,1,21,-10,-30
10,40,30,-25,-10,35,21,-11,-2,14,-12,-30
-5,25,30,-10,-18,28,11,-18,-8,7,-18,-30
-10,20,29,-5,-20,24,7,-17,-9,-1,-21,-30
-22,9,31,7,-27,19,6,-14,-5,-8,-26,-31
-24,1,25,11,-24,13,17,-11,-5,-7,-30,-34
-25,-10,15,17,-20,3,31,-8,-5,-3,-30,-37
-31,-25,7,28,-19,-9,29,-5,-5,0,-31,-40
-39,-41,-2,40,-18,-21,16,-6,-5,4,-35,-42
-30,-41,-12,36,-9,-26,4,-14,-9,4,-36,-45
-16,-40,-24,28,4,-32,-7,-21,-15,-2,-32,-45
-41,-37,3,39,-22,-17,-20,-27,-23,-9,-30,-45
-55,-23,32,39,-43,4,-22,-36,-28,-15,-26,-54
-41,-13,28,27,-34,7,-17,-41,-37,-23,-24,-62
-45,-11,34,28,-39,12,-14,-35,-39,-28,-21,-63
-32,1,33,15,-32,17,2,-29,-30,-38,-19,-68
-46,-3,42,24,-44,19,13,-29,-26,-51,-42,-70
-37,23,60,6,-49,41,7,-17,-14,-50,-52,-64
-27,22,49,2,-38,35,4,-36,-38,-50,-44,-58
-77,-31,46,54,-61,7,1,-57,-67,-46,-41,-50
-63,-30,32,46,-48,1,-5,-42,-54,-44,-36,-45
-31,-30,1,31,-16,-14,-5,-39,-37,-45,-31,-37
-36,-37,-1,36,-16,-19,-25,-33,-28,-37,-28,-35
-48,-31,17,39,-32,-7,-16,-16,-30,-29,-22,-42
-54,-27,28,40,-41,0,21,-14,-30,-20,-18,-51
-50,-21,29,35,-39,4,15,-26,-30,-17,-14,-54
-63,-13,49,38,-56,18,3,-30,-30,-31,-8,-55
-78,-14,64,46,-71,25,-21,-36,-31,-42,-35,-72
-81,-18,63,49,-72,22,-28,-39,-35,-45,-67,-45
-78,-11,66,44,-72,27,-9,-31,-36,-46,-71,-31
-80,-13,67,46,-74,27,-19,-21,-32,-43,-68,-21
-102,-30,72,66,-86,21,-35,-36,-51,-56,-73,-37
-98,-32,66,64,-82,17,-30,-59,-73,-67,-76,-66
-69,-14,55,42,-62,20,-6,-55,-63,-60,-48,-24
-72,-28,44,49,-58,8,0,-55,-58,-55,-41,-38
-63,-32,31,48,-47,-1,1,-55,-51,-53,-56,-52
-54,-28,26,40,-40,0,-13,-54,-46,-44,-59,-24
-55,-32,23,43,-39,-4,-45,-56,-50,-52,-63,-12
-48,-27,21,38,-35,-3,-41,-52,-54,-82,-71,-51
-52,-35,16,43,-34,-9,-30,-50,-56,-85,-76,-57
-55,-39,16,46,-35,-11,-20,-50,-55,-79,-70,-14
-43,-32,11,37,-26,-10,-11,-47,-53,-79,-67,-37
-23,-12,11,18,-17,-1,-10,-44,-49,-71,-63,-37
-13,8,21,3,-17,14,-11,-45,-50,-71,-57,-26
-35,-11,23,23,-29,6,-32,-36,-46,-75,-52,-54
-65,-24,41,44,-53,9,-33,-23,-41,-71,-49,-55
-45,10,55,17,-50,32,-5,-13,-38,-66,-43,-36
-13,46,60,-17,-37,52,29,-7,-33,-62,-40,-32
-19,52,70,-17,-44,61,51,-5,-31,-58,-50,-28
-19,49,68,-15,-43,59,50,3,-29,-55,-61,-32
-12,50,62,-19,-37,56,37,4,-31,-61,-62,-29
-15,42,57,-13,-37,49,32,-1,-29,-68,-67,-33
-20,27,46,-4,-33,36,19,-13,-35,-91,-75,-67
-27,20,47,3,-37,33,2,-20,-36,-96,-82,-87
-22,8,31,7,-27,19,-28,-28,-46,-94,-74,-86
-42,9,51,16,-46,29,-56,-50,-68,-114,-95,-83
-49,-2,47,26,-48,22,-36,-63,-67,-94,-97,-98
-46,17,63,14,-55,40,-2,-53,-54,-103,-92,-78
-100,78,178,11,-139,128,70,54,37,-67,-208,-127
-113,146,258,-17,-186,202,89,93,70,-35,-117,-51
35,198,163,-117,-64,181,8,180,334,507,540,348
364,31,-333,-197,349,-151,-136,241,515,1110,1418,750
505,-230,-734,-137,620,-482,-263,-182,-274,66,1154,723
365,-434,-798,35,582,-616,-217,-441,-895,-1120,42,292
329,-482,-811,76,570,-646,-132,-305,-770,-1110,-340,67
305,-305,-610,0,458,-458,-139,-264,-579,-832,-314,24
158,-143,-301,-7,230,-221,-115,-142,-289,-436,-243,-23
21,-63,-84,21,53,-73,-8,-11,-85,-189,-183,-67
-48,-35,14,41,-31,-10,52,-6,-44,-131,-205,-133
-80,-28,52,54,-66,12,49,-1,-37,-105,-188,-147
-91,-18,73,54,-82,28,50,0,-31,-112,-200,-148
-87,-11,76,49,-81,32,50,5,-21,-98,-193,-114
-79,0,79,39,-79,39,49,5,-14,-105,-195,-139
-58,14,72,22,-66,43,52,22,10,-91,-186,-180
-63,7,70,28,-67,39,57,49,34,-74,-174,-170
-75,-9,67,42,-71,29,55,74,69,-52,-166,-171
-63,-1,62,32,-63,30,55,98,91,-33,-154,-165
-58,1,60,28,-59,30,53,105,100,-24,-148,-162
-73,-18,55,44,-63,18,49,109,108,3,-140,-159
-74,-22,52,48,-63,15,51,114,132,29,-134,-152
-66,-18,47,42,-56,14,44,113,154,45,-119,-148
-41,5,46,17,-43,25,31,104,158,71,-86,-124
-8,30,38,-11,-23,34,20,96,167,99,-36,-73
6,54,49,-30,-22,51,10,88,172,126,12,-37
46,106,60,-76,-7,83,-5,81,175,164,73,9
58,117,58,-88,0,87,-43,74,167,207,151,73
54,132,78,-93,-13,105,-68,68,154,222,203,105
77,155,78,-117,0,116,-47,59,144,238,237,133
79,147,68,-113,5,107,-38,33,129,251,254,145
76,139,63,-107,6,101,-49,19,104,233,228,122
79,132,53,-105,13,92,-46,20,86,214,201,92
74,122,48,-98,12,85,-39,20,78,187,167,49
53,97,44,-75,4,70,-33,20,67,144,121,12
12,58,46,-36,-17,52,-24,22,58,112,79,-16
-9,35,44,-14,-27,39,-11,29,51,94,45,-55
-6,40,46,-18,-26,43,1,26,44,88,39,-73
-13,31,44,-9,-29,37,22,22,37,85,41,-67
-11,38,49,-14,-31,43,55,19,31,82,36,-66
-10,55,65,-23,-38,60,54,16,25,77,35,-62
-12,55,67,-22,-39,61,41,12,20,75,35,-60
-7,65,71,-29,-39,68,34,-2,15,80,28,-58
-14,59,73,-23,-44,66,5,-12,10,80,17,-51
-27,53,80,-13,-54,66,-27,-22,7,80,7,-46
-39,49,88,-5,-64,69,-37,-32,0,80,2,-40
-40,41,81,-1,-61,61,-12,-22,7,80,-1,-34
-34,43,77,-5,-56,60,-4,-8,27,78,-6,-29
-26,45,70,-10,-49,57,-8,2,24,67,-10,-24
-20,45,66,-13,-43,55,7,22,25,59,-26,-18
-12,48,60,-18,-36,54,21,41,25,56,-29,-11
-15,50,65,-18,-40,57,32,36,24,50,-16,-13
-18,50,68,-16,-43,59,22,30,27,48,-10,-22
-31,37,69,-3,-50,53,24,21,12,39,-10,-33
-55,23,78,16,-67,50,35,16,3,32,-11,-51
-64,15,79,25,-72,46,23,6,-17,16,-15,-63
-70,13,84,28,-77,48,19,2,-21,9,-23,-70
-72,1,74,36,-73,37,7,-6,-39,-1,-25,-71
-85,4,89,40,-87,47,4,-12,-46,-1,-32,-75
-63,5,68,29,-66,37,-19,-11,-39,3,-18,-76
-106,23,129,41,-118,75,7,12,-16,-7,-66,-98
-148,114,262,16,-205,188,105,108,80,18,-149,-141
-100,218,318,-59,-209,268,79,136,125,118,68,28
110,172,62,-141,24,117,-1,271,485,877,891,475
439,-118,-557,-160,498,-337,-147,222,438,1116,1544,767
475,-376,-852,-49,664,-614,-260,-260,-496,-268,841,541
396,-489,-885,47,640,-687,-205,-385,-869,-1115,-106,187
354,-472,-826,59,590,-649,-189,-254,-696,-928,-233,101
258,-255,-513,-1,386,-384,-180,-220,-483,-581,-181,106
108,-88,-196,-10,153,-142,-70,-95,-184,-212,-153,29
-31,-63,-33,47,1,-48,33,-17,-69,-100,-144,-70
-34,-38,-5,36,-14,-21,39,-14,-40,-51,-134,-87
-30,-15,15,22,-22,0,26,-11,-30,-37,-141,-81
-48,-18,30,33,-39,5,25,-8,-21,-37,-168,-99
-72,-34,38,53,-54,1,15,-5,-9,-25,-156,-113
-77,-35,42,56,-59,3,13,-5,0,-27,-156,-89
-63,-25,39,44,-51,7,11,13,19,-14,-147,-113
-70,-24,46,47,-58,11,34,25,28,-12,-143,-140
-55,-11,44,32,-49,16,68,55,66,18,-137,-110
-42,5,47,18,-45,26,60,79,97,45,-127,-107
-56,-7,50,32,-53,21,40,73,110,58,-118,-100
-64,-10,54,37,-59,22,50,101,146,94,-97,-82
-64,5,69,29,-67,37,62,127,186,133,-69,-49
-28,43,71,-8,-50,57,52,123,216,169,-42,-22
4,71,67,-38,-32,69,40,112,238,207,3,28
22,87,65,-55,-22,76,12,104,230,217,45,82
41,103,61,-72,-10,82,-16,86,214,211,73,115
38,99,60,-69,-11,80,-33,44,187,210,121,158
63,120,56,-92,3,88,-56,24,145,204,155,158
73,123,50,-98,12,86,-64,24,131,202,154,149
68,114,45,-91,11,79,-61,20,107,191,141,147
67,107,39,-87,14,73,-50,18,65,149,123,115
60,93,33,-77,13,63,-33,15,46,125,92,70
47,79,31,-63,8,55,-5,13,35,107,49,47
5,41,36,-23,-16,38,13,9,25,64,14,21
-17,22,40,-3,-29,31,0,7,15,42,-2,-2
-16,20,36,-2,-27,28,-3,4,5,36,-11,-18
-18,12,30,3,-24,20,31,1,-4,29,-35,-43
-17,8,25,4,-21,17,45,0,-11,21,-51,-47
-18,2,19,8,-19,10,31,-17,-18,13,-50,-40
-16,-3,13,9,-14,5,18,-39,-23,12,-50,-37
-11,0,11,5,-11,6,-3,-52,-18,19,-46,-32
-8,7,15,0,-12,11,-27,-47,-11,24,-44,-28
-4,12,16,-4,-10,14,-28,-27,-4,30,-45,-23
5,18,13,-12,-5,16,-2,-11,3,35,-39,-20
-11,18,29,-4,-20,23,-1,-10,8,29,-32,-20
-35,7,42,14,-39,24,11,-10,15,36,-32,-20
-22,17,39,3,-30,27,23,-5,17,41,-36,-20
-10,33,43,-12,-27,38,10,-5,14,34,-35,-20
-8,37,45,-15,-27,41,5,-4,11,31,-39,-24
-3,42,45,-20,-24,43,-5,2,8,26,-41,-29
-4,46,50,-21,-27,48,-8,8,5,21,-39,-33
11,60,49,-36,-19,54,25,13,5,22,-35,-34
8,49,41,-29,-17,45,51,19,5,26,-30,-29
3,42,40,-23,-19,41,55,15,5,24,-27,-35
35,68,33,-52,1,50,60,5,6,26,-21,-46
31,60,30,-46,0,45,44,-3,4,24,-20,-44
9,34,25,-22,-8,29,33,-12,7,27,-20,-49
12,29,16,-21,-2,23,12,-23,-9,38,-19,-50
2,20,18,-11,-8,19,-9,-31,-39,31,-31,-48
-12,-37,-25,25,7,-31,15,-26,-40,19,-41,-45
-17,-46,-29,32,6,-37,21,-21,-35,15,-39,-44
-22,-8,14,15,-18,3,26,-18,-33,15,-40,-66
-16,-3,12,9,-14,4,38,-13,-28,12,-40,-61
6,29,22,-18,-8,25,32,-8,-25,10,-40,-39
8,35,27,-22,-10,30,40,-5,-21,10,-44,-43
10,41,31,-26,-11,35,38,-2,-15,14,-42,-54
18,79,61,-48,-22,70,43,0,-9,20,-36,-52
6,78,72,-42,-33,74,31,3,-5,26,-31,-46
2,71,70,-37,-34,70,18,6,3,30,-28,-44
-3,70,73,-34,-38,71,47,1,3,23,-21,-12
-24,52,77,-15,-51,64,36,-4,-1,19,-22,-1
-32,40,73,-4,-53,56,5,-7,-9,16,-25,-13
-33,39,72,-3,-53,55,0,-13,-12,9,-29,-8
-33,32,65,0,-49,48,17,-36,-29,7,-40,0
-31,34,65,-2,-48,49,4,-56,-50,-6,-45,5
-38,21,60,8,-49,40,-33,-40,-30,-11,-45,13
-19,35,54,-9,-37,44,3,-45,-31,-21,-34,19
7,65,58,-36,-26,61,52,-28,-8,-14,-45,14
43,75,32,-59,5,53,27,-25,-18,-14,-21,58
-45,80,125,-17,-86,102,70,20,23,-18,-86,19
-151,124,275,13,-213,200,123,91,95,6,-108,-4
-86,222,308,-68,-197,265,111,198,285,330,289,247
154,106,-48,-130,101,29,84,432,689,1066,1053,584
434,-174,-607,-130,520,-390,-106,77,121,583,1255,693
407,-406,-813,0,610,-609,-218,-435,-833,-860,351,411
340,-536,-877,98,609,-706,-205,-429,-936,-1253,-325,92
329,-449,-778,61,554,-613,-218,-417,-774,-997,-325,56
210,-218,-428,4,319,-322,-161,-271,-422,-556,-229,67
46,-88,-134,22,90,-111,-83,-114,-138,-227,-155,-21
-76,-91,-14,84,-31,-52,-40,-74,-71,-171,-164,-84
-82,-79,4,80,-43,-37,-19,-29,-18,-107,-162,-113
-106,-94,12,100,-59,-41,16,-28,-22,-105,-163,-155
-91,-75,16,83,-54,-29,25,8,7,-68,-160,-153
-59,-23,37,41,-48,7,61,30,36,-39,-153,-120
-79,-38,41,59,-60,2,91,34,49,-31,-154,-121
-86,-41,46,63,-66,2,84,56,66,-26,-145,-113
-89,-32,57,60,-73,12,93,100,97,-27,-147,-121
-74,-8,65,41,-69,28,84,114,114,-17,-164,-143
-102,-33,69,67,-85,17,75,108,125,-6,-159,-111
-117,-57,60,87,-89,2,64,112,130,12,-142,-124
-74,-18,56,45,-65,19,60,109,148,47,-129,-136
-55,-5,50,30,-52,22,57,110,173,74,-107,-96
-44,1,45,21,-45,23,56,126,197,109,-71,-72
-23,18,41,2,-32,29,40,142,233,158,-7,-39
25,65,40,-45,-8,52,2,132,232,187,50,-2
40,81,41,-61,-1,60,-18,123,220,205,93,45
76,116,40,-96,18,78,-21,98,205,208,146,92
111,152,41,-131,35,96,-46,68,181,215,196,127
103,140,38,-122,32,89,-78,58,168,222,242,165
90,124,35,-108,27,79,-67,47,145,217,238,159
42,74,32,-58,5,53,-54,38,106,179,197,121
39,68,29,-53,5,48,-50,29,65,123,148,80
18,44,26,-32,-4,35,-42,20,33,77,75,44
-9,16,25,-4,-17,20,-44,12,20,23,28,14
-4,21,25,-9,-15,23,-12,4,15,-5,8,-23
-12,12,25,0,-19,19,26,-2,11,-10,0,-34
-14,11,25,1,-19,18,25,-10,9,-20,-5,-49
-13,13,25,-1,-19,19,22,10,2,-28,-15,-72
8,32,24,-21,-9,28,18,32,21,-29,-20,-76
8,36,28,-22,-10,32,16,19,35,-32,-26,-73
-6,24,30,-9,-18,27,8,9,17,-34,-25,-78
-14,16,30,-1,-22,22,-10,-4,6,-38,-25,-92
-27,7,34,9,-30,20,-23,-15,-3,-45,-40,-96
-34,1,36,16,-35,18,-18,-2,-1,-31,-46,-86
-40,-6,34,23,-37,14,-11,11,8,-23,-44,-83
-43,-12,31,28,-37,9,-1,28,16,-25,-45,-78
-49,-19,30,34,-39,5,24,42,22,-17,-45,-59
-43,-15,27,29,-35,6,12,36,17,-32,-62,-85
-31,-8,23,19,-27,7,9,32,14,-51,-72,-81
-26,0,27,13,-26,13,-22,26,11,-49,-69,-52
-25,3,28,11,-27,15,-48,20,6,-51,-73,-65
-47,-3,44,24,-45,20,23,15,3,-48,-75,-57
-71,-16,55,43,-63,19,20,4,-20,-60,-75,-62
-65,-18,46,41,-55,14,-16,-11,-38,-84,-78,-93
-67,-26,41,46,-54,8,-21,-22,-34,-89,-81,-101
-73,-37,36,54,-54,0,-35,-26,-36,-90,-84,-93
-62,-25,38,43,-50,6,-27,-30,-32,-90,-86,-91
-74,-33,41,54,-58,4,-21,-30,-29,-90,-90,-90
-86,-42,44,64,-64,1,-15,-31,-30,-90,-89,-86
-92,-45,47,68,-69,1,-7,-27,-26,-88,-85,-85
-92,-41,51,66,-71,5,-1,-25,-25,-81,-81,-82
-92,-36,56,64,-74,10,-3,-25,-25,-74,-75,-73
-90,-30,59,60,-74,14,2,-21,-20,-68,-70,-62
-65,-5,60,35,-63,27,-10,-20,-19,-60,-63,-53
-56,3,59,27,-58,31,-12,-19,-21,-56,-61,-32
-50,11,61,19,-56,36,-13,-44,-18,-47,-65,-19
-60,2,62,28,-61,32,-45,-62,-34,-56,-65,-31
-46,13,59,17,-52,35,-44,-53,-51,-73,-65,-31
-19,38,56,-10,-38,47,-36,-48,-49,-69,-65,-26
-60,-7,53,33,-56,23,-33,-42,-52,-70,-65,-23
-64,-13,51,38,-57,19,-24,-36,-55,-70,-62,-19
-60,-12,48,36,-54,18,-16,-31,-55,-70,-59,-21
-72,-27,45,49,-58,9,-4,-26,-53,-69,-57,3
-43,-2,40,23,-41,19,9,-20,-49,-64,-52,17
-34,4,38,15,-36,21,25,-15,-47,-59,-51,3
-17,17,33,0,-25,24,26,-21,-44,-54,-49,1
-51,-22,29,36,-40,4,20,-27,-41,-51,-64,-11
-80,-39,41,60,-60,1,15,-32,-39,-44,-69,-14
-49,6,56,21,-53,31,10,-38,-36,-50,-73,-25
-70,0,70,35,-70,35,2,-38,-33,-39,-81,-42
-42,32,74,5,-59,53,3,-32,-30,-13,-47,16
-9,68,77,-30,-43,72,20,-28,-28,-10,-36,30
-18,57,75,-20,-47,65,17,-24,-24,-11,-34,-4
-7,54,61,-24,-35,58,8,-19,-28,-10,-28,-8
-9,46,55,-19,-32,50,5,-14,-30,-10,-24,-16
-4,44,48,-20,-26,45,-10,-10,-30,-10,-21,-3
-5,36,41,-16,-23,38,-6,-4,-29,-6,-35,1
1,35,34,-19,-17,35,25,0,-30,-5,-35,-6
-1,26,27,-13,-14,27,47,3,-29,-4,-35,-8
3,29,26,-17,-12,28,45,10,-26,-1,-34,-15
22,54,32,-38,-5,43,37,7,-22,0,-36,-13
10,43,33,-27,-12,38,31,2,-17,0,-33,-6
7,45,38,-26,-16,41,25,-7,-17,-7,-30,-1
8,49,41,-28,-17,45,20,-10,-7,-1,-30,5
20,71,51,-46,-16,61,16,-22,-20,-11,-29,10
38,87,49,-62,-6,68,12,-42,-33,-6,-33,-1
37,63,27,-50,5,45,6,-49,-45,-14,-25,-6
36,68,32,-52,1,50,1,-34,-31,-11,-38,-1
32,44,12,-38,10,28,-12,-33,-36,-28,-18,12
-10,60,70,-25,-40,65,40,-2,-16,-31,-115,-64
-45,111,156,-34,-101,134,96,64,48,-5,-207,-120
-31,165,196,-67,-114,180,50,99,116,142,90,84
203,128,-75,-166,139,27,-35,266,503,980,979,523
504,-133,-637,-185,571,-384,-167,106,278,953,1560,838
472,-355,-827,-59,650,-590,-219,-351,-635,-509,704,574
383,-479,-862,48,623,-671,-123,-354,-831,-1116,-181,201
341,-443,-784,51,563,-613,-114,-248,-654,-879,-262,134
219,-216,-435,-1,328,-326,-136,-219,-432,-533,-209,104
112,-39,-151,-36,131,-95,-52,-97,-157,-194,-153,23
13,-6,-19,-3,16,-12,-3,-31,-72,-90,-170,-72
-33,-26,6,30,-19,-10,24,-4,-26,-35,-161,-80
-17,19,36,-2,-27,28,66,4,-8,-19,-158,-93
-29,18,47,5,-39,33,72,22,16,0,-163,-122
-34,9,43,12,-39,25,76,49,41,7,-152,-122
-41,6,47,17,-44,26,86,70,44,11,-158,-128
-88,-45,43,66,-66,0,85,82,52,21,-151,-134
-93,-47,46,69,-69,0,82,79,68,24,-151,-161
-94,-46,48,70,-71,1,79,80,73,33,-146,-160
-94,-38,56,66,-75,9,76,81,83,36,-143,-153
-63,-2,61,33,-62,29,75,78,113,61,-141,-152
-57,8,65,24,-61,37,69,89,135,81,-129,-142
-63,1,65,31,-65,33,63,98,155,106,-107,-123
-52,15,67,18,-60,41,56,105,176,140,-70,-106
-32,38,71,-3,-52,54,45,125,187,161,-38,-98
-28,42,70,-7,-49,56,32,122,190,182,-14,-64
-17,57,74,-21,-46,65,14,118,184,203,57,1
24,100,76,-62,-26,87,-8,112,174,208,123,61
39,114,75,-77,-18,94,-20,94,167,202,138,74
4,79,75,-42,-36,76,-23,62,141,195,165,85
27,102,75,-65,-24,88,-42,20,105,191,185,108
55,128,74,-92,-10,101,-44,7,78,168,170,86
31,101,70,-66,-19,85,-31,1,60,138,140,50
27,98,70,-62,-22,84,-23,4,49,132,104,18
8,76,68,-42,-30,72,-12,14,36,108,70,-7
-21,43,64,-12,-43,54,-5,8,25,77,42,-25
-33,33,66,0,-50,49,5,4,12,57,15,-38
-30,29,60,0,-45,44,-15,-1,5,44,-15,-52
-29,24,53,2,-41,38,-36,-5,3,42,-22,-74
-24,21,45,1,-35,33,-21,-10,-1,38,-16,-72
-25,14,39,6,-32,26,-9,-14,-4,34,-13,-62
-6,23,30,-9,-18,26,8,-15,-8,31,-10,-64
12,38,26,-25,-8,32,22,-15,-10,27,-4,-71
-8,32,40,-12,-24,36,17,-16,-14,24,-12,-74
-16,28,44,-7,-30,36,14,-33,-15,25,-29,-69
-59,10,69,24,-64,39,9,-41,-10,25,-31,-66
-61,26,87,17,-74,56,4,-29,-5,25,-29,-63
-25,49,74,-12,-50,61,18,-22,0,25,-31,-58
-38,32,70,2,-54,51,29,-25,4,20,-29,-55
-31,32,63,-1,-47,47,36,-25,8,12,-30,-51
-41,14,55,13,-48,34,25,-27,11,7,-43,-50
-63,8,71,27,-67,39,-10,-31,8,-2,-52,-49
-55,21,76,17,-66,48,-23,-28,7,-7,-46,-46
-90,-20,70,55,-80,25,-26,-32,3,-9,-42,-44
-105,-34,71,69,-88,19,-20,-28,6,-4,-42,-47
-83,-21,62,51,-73,21,-15,-32,-2,-2,-31,-43
-86,-16,69,51,-77,26,-11,-29,1,0,-42,-47
-74,-4,70,39,-72,33,-5,-30,3,6,-35,-43
-88,16,104,36,-96,60,-4,-31,6,2,-45,-46
-70,24,94,22,-82,59,8,-18,20,-1,-35,-44
-93,31,124,31,-109,77,15,-17,9,-31,-55,-52
-165,79,244,43,-205,162,64,65,74,-21,-182,-123
-130,190,319,-31,-225,254,84,80,89,32,-36,3
23,195,173,-109,-75,184,36,199,396,658,626,375
322,-59,-381,-131,352,-220,-96,238,538,1202,1405,711
436,-304,-741,-65,589,-522,-272,-250,-342,71,1065,642
355,-454,-809,50,582,-631,-241,-468,-896,-1063,79,262
344,-476,-820,66,583,-648,-169,-346,-740,-992,-174,113
274,-297,-571,11,423,-434,-202,-312,-546,-681,-166,123
123,-129,-253,3,188,-191,-152,-170,-256,-330,-171,35
-7,-71,-64,40,29,-68,-20,-48,-89,-149,-151,-90
-37,-49,-12,43,-12,-30,58,8,-26,-90,-157,-121
-42,-26,16,34,-29,-5,60,21,5,-64,-140,-111
-54,-15,39,34,-46,12,37,22,22,-76,-154,-120
-33,6,39,14,-36,22,43,37,40,-65,-151,-119
-45,-4,41,25,-43,18,86,33,32,-74,-160,-120
-64,-26,39,45,-51,6,58,37,38,-68,-172,-125
-85,-44,41,64,-62,-2,27,40,33,-70,-186,-139
-103,-63,40,83,-72,-11,51,40,36,-60,-188,-149
-92,-48,44,70,-68,-2,55,42,38,-54,-178,-168
-92,-43,49,67,-70,3,42,53,57,-36,-174,-171
-94,-46,48,70,-70,1,49,70,108,7,-159,-153
-77,-32,45,54,-60,6,71,89,144,39,-134,-141
-41,4,44,18,-43,24,69,119,180,84,-97,-107
-9,50,59,-21,-34,54,57,151,231,149,-41,-47
-4,90,93,-43,-49,91,51,155,263,205,20,10
3,114,111,-59,-54,112,40,140,258,237,77,61
32,135,103,-83,-36,119,31,132,242,261,133,114
70,164,94,-117,-12,129,19,110,223,274,179,147
65,150,85,-108,-11,118,5,71,178,251,185,150
33,109,76,-71,-22,92,-5,29,123,204,144,130
-4,64,68,-31,-36,66,-19,-1,71,156,97,83
-24,37,61,-7,-42,49,-22,-25,20,104,54,46
4,58,54,-32,-25,56,-17,-45,-24,57,18,28
-10,36,46,-13,-28,41,-11,-42,-36,23,-12,9
-26,12,38,7,-32,25,-5,-36,-27,7,-38,-5
-22,16,38,3,-30,26,-17,-34,-19,2,-42,-6
-23,17,40,3,-32,28,-10,-27,-11,1,-39,-5
5,45,40,-25,-18,42,22,-23,-4,9,-36,-4
-23,23,46,0,-35,34,45,1,4,17,-33,1
-53,-1,52,26,-53,26,68,37,11,25,-31,-1
-21,41,62,-11,-41,51,81,39,27,34,-28,4
-15,51,66,-19,-41,58,73,31,36,31,-43,21
-42,23,65,9,-54,44,63,29,27,25,-52,32
-43,20,62,11,-53,41,52,20,19,19,-49,35
-40,20,60,10,-50,40,44,17,12,14,-51,52
-43,16,59,13,-51,37,37,11,3,5,-49,65
-44,14,58,14,-51,36,31,8,1,-5,-51,54
-36,17,53,9,-45,35,24,4,-3,-11,-44,50
-23,34,57,-6,-40,45,17,0,-6,-25,-47,42
-26,27,54,-1,-40,40,16,-2,-7,-22,-44,36
-36,19,55,8,-46,36,13,-7,-12,-28,-45,30
-47,11,58,17,-53,34,18,8,-14,-22,-47,21
-50,5,55,23,-53,30,11,7,-38,-27,-42,18
-54,17,71,18,-63,44,20,26,-17,-25,-63,6
-28,21,49,3,-38,35,27,21,-16,-23,-44,0
-90,34,124,28,-107,79,66,45,-7,-84,-154,-95
-150,98,248,26,-199,172,133,69,4,-128,-234,-127
-65,202,267,-68,-167,234,98,114,148,145,101,101
191,150,-41,-170,116,54,-7,310,564,1056,960,510
468,-90,-558,-189,513,-324,-207,23,155,952,1433,766
443,-304,-747,-69,595,-525,-261,-414,-699,-437,746,569
379,-394,-774,8,577,-584,-192,-378,-781,-922,155,363
353,-312,-666,-20,510,-489,-239,-294,-579,-677,91,337
229,-126,-355,-51,292,-240,-184,-215,-345,-413,12,214
86,-26,-112,-30,100,-69,-62,-97,-150,-192,-75,13
6,-11,-17,2,12,-14,12,-10,-58,-122,-129,-106
-39,-29,9,34,-24,-10,18,17,-12,-92,-139,-130
-96,-64,32,80,-64,-16,23,18,-14,-98,-174,-166
-82,-53,29,67,-55,-12,49,49,-2,-81,-181,-180
-92,-61,32,76,-62,-14,36,49,-5,-69,-178,-166
-93,-58,35,75,-64,-11,31,31,3,-55,-184,-159
-61,-26,35,43,-48,4,24,18,5,-49,-183,-151
-63,-29,35,45,-49,3,10,10,15,-46,-187,-148
-53,-17,36,34,-45,10,-4,30,44,-36,-179,-143
-69,-15,53,41,-61,19,-4,55,67,-26,-171,-139
-63,-6,56,34,-59,24,17,74,100,8,-159,-135
-29,38,67,-5,-48,52,38,98,135,39,-136,-123
-52,32,84,10,-68,58,43,115,168,67,-105,-100
-37,50,87,-7,-62,69,56,141,213,112,-65,-69
-17,66,83,-25,-50,75,50,144,230,138,-29,-43
-17,60,77,-22,-47,69,33,134,228,155,4,-10
42,116,74,-79,-16,95,34,133,225,187,57,46
61,129,68,-95,-4,98,23,105,209,198,111,105
51,117,66,-84,-8,91,0,69,187,191,138,121
59,105,46,-82,6,75,-35,51,159,193,131,112
48,76,28,-62,10,52,-47,39,117,169,117,103
38,68,30,-53,3,49,-44,15,62,116,95,63
32,62,30,-47,1,46,-45,-12,24,81,56,28
27,57,30,-42,-2,43,-45,-16,9,59,39,21
20,50,31,-35,-6,40,-42,-14,3,47,29,9
5,40,34,-23,-15,37,-27,-19,-4,36,12,-5
-5,31,35,-14,-20,33,-13,-20,-11,25,1,-23
-14,22,36,-4,-25,29,-10,-20,-18,8,-18,-31
-22,18,40,2,-31,29,-10,-14,-18,-9,-34,-29
-28,12,40,8,-35,26,-10,-9,-15,-16,-35,-31
-31,7,38,12,-35,22,-10,-3,-15,-22,-35,-29
-29,1,31,14,-30,16,-10,2,-11,-30,-36,-33
-43,-19,24,31,-34,2,-12,9,-10,-33,-41,-42
-52,-34,18,43,-35,-8,-17,5,-10,-30,-38,-37
-37,-26,11,31,-24,-8,-22,-22,-22,-30,-50,-34
-35,-30,5,32,-20,-12,-25,-20,-22,-25,-60,-31
-36,-34,2,35,-18,-16,-20,-4,-7,-26,-49,-26
7,5,-2,-6,4,2,-20,9,2,-13,-43,-26
15,9,-5,-12,10,2,-20,21,13,15,-38,-30
-4,-14,-10,10,3,-12,-20,9,8,8,-52,-38
7,-1,-8,-3,8,-4,-20,-2,-3,-4,-61,-41
10,6,-4,-7,7,1,-18,-17,-12,-15,-51,-39
12,6,-6,-9,9,0,-13,-38,-23,-25,-42,-40
2,1,-1,-2,1,0,-12,-39,-30,-24,-36,-40
1,0,-1,0,1,0,-7,-42,-30,-26,-41,-40
20,22,2,-21,9,11,-5,-37,-32,-24,-38,-46
-7,1,9,3,-8,5,-27,-48,-54,-46,-53,-60
-18,-22,-4,20,-7,-12,-51,-74,-64,-70,-68,-75
2,-20,-22,10,12,-21,-45,-66,-52,-64,-64,-90
-7,-39,-31,23,12,-35,-26,-54,-43,-58,-65,-100
-8,-40,-32,24,12,-36,-24,-41,-33,-51,-57,-100
-6,-34,-28,20,11,-30,-26,-25,-29,-39,-51,-95
-4,-30,-26,18,11,-28,-24,-21,-30,-31,-44,-92
-4,-27,-23,16,10,-24,-25,-19,-30,-29,-37,-87
13,-5,-18,-4,16,-12,-25,-21,-30,-30,-31,-85
56,27,-29,-42,42,-1,-28,-19,-30,-30,-29,-85
78,46,-32,-61,55,7,-31,-23,-37,-30,-31,-85
75,53,-21,-64,48,16,-29,-41,-48,-31,-29,-85
52,38,-13,-45,32,12,-31,-46,-50,-37,-31,-85
39,35,-4,-37,21,15,-29,-44,-51,-40,-28,-85
16,25,9,-21,3,17,-31,-45,-48,-45,-34,-85
0,18,18,-9,-9,18,-31,-53,-52,-48,-41,-85
1,13,11,-7,-5,12,-40,-58,-61,-52,-36,-85
-5,-2,4,3,-5,1,-62,-54,-60,-56,-53,-85
25,23,-3,-24,14,10,-22,-48,-60,-49,-62,-82
-9,-20,-11,15,1,-15,8,-37,-60,-42,-54,-74
-36,-55,-19,45,-8,-36,-7,-28,-61,-36,-54,-67
3,-4,-7,0,5,-6,-12,-18,-53,-29,-47,-61
-1,27,27,-13,-14,27,-2,-11,-38,-24,-46,-53
-18,38,56,-10,-37,46,18,-6,-25,-16,-40,-44
-49,34,83,7,-67,58,3,0,-15,-8,-30,-35
-69,35,104,16,-87,70,23,6,-8,0,-20,-27
-77,34,111,22,-94,72,42,19,3,8,-12,-25
-76,42,118,17,-98,80,44,22,1,12,-16,-25
-71,47,118,11,-94,82,58,13,-4,7,-20,-22
-73,35,108,19,-91,71,43,5,-12,-1,-23,-19
-74,21,95,26,-85,58,36,-4,-14,-6,-27,-21
-45,25,70,10,-58,47,-1,-16,-27,-22,-33,-30
-32,16,48,7,-40,32,-24,-31,-54,-32,-42,-31
-56,-19,37,38,-46,8,-33,-38,-50,-26,-34,-21
-31,12,43,9,-37,27,-51,-31,-42,-25,-31,-16
-16,27,43,-6,-30,35,-15,-23,-36,-19,-27,-9
-32,14,47,9,-39,30,9,-19,-30,-17,-19,-2
-30,38,68,-4,-49,53,16,-9,-22,-13,-27,1
-31,68,100,-19,-66,84,25,-8,-22,-16,-27,15
-49,76,125,-14,-87,100,30,-9,-15,-15,-35,19
-46,73,119,-14,-83,96,20,-22,-17,-13,-22,37
-56,78,135,-11,-96,107,21,-25,-10,-19,-40,37
-41,69,109,-15,-75,89,13,-28,-10,-7,-16,31
-88,87,176,0,-132,131,37,-9,-5,-50,-83,-15
-163,108,270,27,-217,189,91,37,21,-81,-191,-65
-70,218,288,-74,-179,253,99,111,151,144,94,128
84,147,63,-115,10,104,138,366,601,912,759,445
330,-176,-505,-77,418,-340,-45,157,329,946,1225,661
399,-359,-758,-20,579,-558,-259,-418,-669,-416,655,531
296,-485,-781,95,539,-633,-220,-483,-942,-1147,-101,241
294,-445,-739,75,517,-591,-202,-385,-755,-946,-199,156
207,-228,-435,10,321,-331,-167,-264,-461,-591,-177,99
65,-78,-143,7,104,-110,-92,-113,-180,-257,-149,14
-30,-40,-10,35,-9,-25,-28,-49,-68,-131,-139,-36
-52,-46,7,49,-29,-19,21,-7,5,-62,-135,-49
-58,-38,20,47,-39,-9,44,-12,10,-60,-122,-65
-66,-36,30,51,-47,-3,49,-1,38,-51,-125,-103
-66,-36,30,51,-47,-3,30,4,34,-45,-157,-128
-101,-61,40,81,-70,-10,29,16,23,-45,-180,-126
-109,-68,41,89,-75,-13,23,32,40,-35,-167,-116
-109,-60,49,84,-79,-5,19,38,56,-36,-168,-112
-136,-63,72,99,-104,4,69,47,80,-17,-161,-103
-130,-44,86,87,-108,21,88,64,109,1,-156,-101
-100,-16,84,57,-91,34,74,78,134,23,-142,-97
-83,8,91,37,-87,49,74,85,151,52,-127,-124
-94,1,94,46,-94,47,65,87,163,70,-115,-137
-89,-3,86,46,-87,41,62,100,179,93,-85,-108
-69,14,83,27,-76,48,55,118,210,136,-40,-71
-48,20,68,14,-58,44,50,105,211,168,24,-14
11,50,39,-31,-14,44,41,87,193,187,72,34
36,62,27,-49,4,44,-4,77,189,191,102,69
19,42,23,-31,-3,32,-50,73,190,206,149,105
45,60,15,-53,15,37,-60,70,190,241,216,143
87,109,22,-98,32,66,-50,66,190,279,263,172
70,113,43,-92,14,78,-33,64,174,280,256,166
38,91,53,-64,-8,72,-20,55,149,235,217,131
20,79,59,-50,-20,68,-14,47,128,184,170,90
-4,63,67,-30,-35,64,14,38,97,144,129,58
-19,50,69,-16,-44,59,25,31,68,121,80,10
-18,45,63,-14,-41,54,12,29,59,95,41,-32
-12,45,57,-16,-35,50,0,25,52,74,27,-45
-13,40,53,-14,-33,47,-8,22,42,68,9,-48
-5,40,45,-18,-25,42,-3,19,37,58,-5,-52
-9,33,42,-12,-26,37,4,14,16,29,-29,-78
-23,15,38,4,-30,26,11,16,-2,12,-41,-84
-44,3,47,21,-46,25,17,12,6,21,-31,-77
-57,10,66,23,-62,38,24,10,14,28,-23,-61
-44,20,64,11,-54,42,25,10,22,34,-14,-21
-37,32,69,2,-54,50,27,9,30,42,-7,-14
-32,41,73,-5,-52,56,38,26,32,45,-1,-15
-45,24,69,11,-57,46,34,30,26,36,-4,-22
-49,22,71,14,-60,46,28,25,22,28,-14,-37
-36,28,64,4,-50,45,25,22,17,18,-17,-33
-48,19,67,14,-57,43,20,18,13,11,-29,-36
-52,10,62,21,-57,36,16,14,8,2,-32,-34
-56,2,58,27,-57,30,11,9,-7,-7,-43,-38
-67,-19,47,43,-57,14,11,4,-25,-20,-55,-54
-82,-39,43,60,-62,2,9,-7,-48,-42,-52,-54
-49,-14,35,31,-41,10,12,-7,-43,-36,-51,-56
-41,-16,24,28,-32,4,7,-24,-48,-44,-42,-57
-70,-35,35,52,-53,0,15,-8,-25,-41,-47,-74
-15,22,38,-4,-27,30,41,0,-32,-48,-30,-66
-83,77,160,3,-122,118,76,55,9,-45,-117,-83
-141,151,292,-6,-217,221,95,87,56,-30,-148,-67
-34,242,277,-104,-156,259,136,184,264,320,289,193
206,41,-165,-124,185,-62,81,396,623,1010,972,478
457,-303,-760,-77,609,-531,-188,-11,-20,408,956,477
408,-492,-901,42,655,-696,-258,-489,-916,-968,68,167
332,-599,-931,134,632,-765,-184,-448,-966,-1253,-434,-73
327,-460,-787,66,558,-623,-220,-379,-739,-900,-337,-40
202,-183,-386,-10,294,-284,-163,-233,-388,-460,-233,-18
36,-81,-118,23,77,-99,-63,-115,-159,-198,-180,-85
-41,-62,-22,52,-9,-42,-3,-64,-91,-125,-175,-122
-26,-27,-2,26,-11,-14,27,-19,-46,-65,-164,-122
-30,-17,13,23,-21,-2,30,-20,-26,-62,-160,-128
-44,-26,18,34,-31,-3,25,-1,7,-40,-153,-129
-49,-22,27,35,-38,3,35,6,20,-34,-145,-120
-46,-12,34,28,-40,11,48,20,27,-24,-142,-110
-44,-14,30,29,-37,8,44,37,34,-15,-135,-101
-50,-21,29,36,-39,4,43,50,59,-8,-133,-89
-51,-26,25,38,-37,0,40,67,75,4,-127,-91
-63,-41,23,52,-43,-9,39,78,90,13,-124,-100
-43,-24,20,33,-31,-2,47,79,113,35,-108,-92
-35,-13,22,24,-28,4,49,75,129,61,-84,-72
-34,0,34,17,-34,16,38,75,151,88,-60,-37
18,59,41,-39,-11,50,30,74,159,109,-21,9
0,59,59,-30,-30,59,22,81,175,140,29,52
2,92,89,-47,-44,90,13,84,204,192,100,101
76,169,93,-123,-8,131,8,75,200,216,170,153
101,185,84,-144,9,134,-16,67,185,215,206,168
104,183,78,-144,13,130,-33,59,172,215,212,177
95,164,70,-130,12,117,-6,51,152,214,208,172
57,119,62,-88,-3,90,24,35,123,180,171,121
19,75,56,-47,-19,65,25,19,89,148,121,92
49,96,48,-73,0,72,23,7,68,133,97,69
50,88,38,-69,6,63,12,-2,35,91,66,36
3,29,27,-16,-12,28,-24,-16,2,39,28,1
-28,-5,23,16,-25,8,-32,-42,-7,-8,-10,-22
-51,-26,25,38,-38,0,-5,-41,-18,-22,-32,-16
-39,-14,25,26,-32,5,20,-24,-27,-19,-31,-33
-27,-3,25,15,-26,11,29,-13,-25,-21,-36,-53
-15,10,25,2,-21,17,30,-6,-18,-19,-40,-55
-15,9,24,3,-20,16,34,-1,-13,-21,-38,-65
-30,-10,20,20,-25,5,36,6,-7,-16,-31,-65
-14,1,15,6,-14,7,39,9,-2,-9,-26,-52
0,11,11,-6,-6,10,41,23,4,-4,-22,-38
1,7,7,-4,-3,7,28,33,11,5,-14,-30
8,8,1,-8,3,4,8,-5,-15,7,-12,-25
-19,-16,2,17,-10,-7,-6,-38,-42,5,-23,-20
-38,-27,11,33,-24,-8,-17,-24,-29,5,-25,-17
-35,-17,17,26,-26,0,-15,-15,-18,0,-19,-11
-41,-17,24,29,-32,3,-8,-14,-19,0,-18,-13
-37,-10,26,23,-31,8,-3,-10,-20,-1,-11,-15
-30,-5,25,17,-27,10,2,-7,-20,-8,-11,-15
-24,1,25,11,-25,13,9,-5,-20,-14,-24,-15
-17,6,23,5,-20,14,25,-2,-21,-12,-20,-16
-9,10,19,-1,-14,15,40,17,-16,-9,-10,-29
-29,-9,21,19,-25,6,42,31,2,-6,-3,-31
-20,-5,15,12,-17,5,34,24,22,-3,4,-26
12,17,6,-15,2,11,28,16,18,0,0,-25
13,10,-2,-11,7,4,18,9,10,-1,-4,-20
44,32,-11,-38,27,10,-3,-1,-1,-12,-9,-21
38,20,-19,-29,28,0,-20,-3,-30,-23,-14,-13
6,-22,-28,8,17,-25,-33,-22,-51,-36,-18,-16
-4,-30,-26,17,11,-28,-53,-49,-68,-48,-38,-41
-10,-25,-15,18,2,-20,-49,-41,-71,-52,-50,-47
-3,-8,-5,5,2,-6,-36,-26,-59,-46,-51,-44
-7,-1,5,4,-6,2,-29,-21,-50,-46,-56,-46
22,33,11,-27,5,21,-15,-14,-41,-40,-57,-44
19,28,9,-23,5,19,-22,-13,-34,-41,-62,-44
-40,-27,13,33,-26,-7,-28,-3,-28,-47,-53,-49
-35,-20,15,27,-25,-2,-19,24,-19,-18,-15,-40
-10,5,15,2,-12,9,-13,32,-6,4,7,-32
-1,18,19,-9,-10,18,-3,24,2,9,11,-35
14,39,25,-27,-6,32,13,21,1,18,17,-37
14,44,30,-30,-9,37,22,16,-3,26,24,-40
5,42,37,-24,-16,39,0,12,-4,25,21,-43
-11,29,40,-9,-26,34,-6,4,-16,1,5,-46
-20,20,40,0,-30,30,-12,-22,-39,-16,-12,-41
-28,11,40,8,-34,25,-33,-38,-50,-31,-21,-40
-59,-19,40,39,-50,10,-30,-34,-61,-38,-20,-40
-64,-24,40,44,-52,8,-27,-27,-57,-31,-20,-35
-49,-12,37,30,-43,12,-22,-21,-41,-26,-20,-35
-19,14,32,2,-26,23,-18,-14,-36,-19,-20,-34
-15,14,29,1,-22,21,-15,-7,-32,-16,-20,-30
-20,6,26,6,-23,16,4,6,-24,-8,-15,-30
-11,10,21,0,-16,15,17,17,-17,-1,-12,-28
-37,-15,21,26,-29,3,14,21,-11,10,-8,-24
-22,3,25,9,-24,14,14,18,-5,21,-5,-26
-14,11,25,1,-20,18,8,13,-5,16,-1,-21
-10,15,25,-3,-18,19,12,10,-4,11,2,-20
6,30,25,-19,-10,27,30,7,0,6,6,-15
-17,16,33,0,-26,24,20,2,1,0,11,-17
-23,11,34,6,-29,22,0,-1,-4,-5,-8,-41
-28,-1,27,14,-27,12,-4,-11,-19,-12,-30,-53
-23,0,23,11,-23,11,-25,-31,-31,-23,-30,-62
12,28,16,-20,-3,21,-49,-45,-31,-27,-30,-72
17,28,11,-23,3,19,-45,-45,-26,-25,-30,-69
4,17,13,-11,-5,15,-35,-44,-23,-25,-30,-71
-5,11,16,-4,-11,13,-29,-41,-20,-25,-30,-70
-16,-2,14,8,-15,6,-20,-40,-15,-25,-25,-70
-16,-1,15,8,-16,7,-15,-39,-17,-25,-22,-68
-2,12,14,-5,-9,13,-10,-34,-21,-20,-18,-39
13,29,17,-21,-2,23,-5,-35,-19,-17,-15,-15
-3,17,20,-7,-12,18,-2,-35,-24,-14,-10,-16
3,23,20,-13,-9,21,5,-35,-25,-10,-13,-13
34,59,24,-47,5,41,2,-36,-25,-5,-22,-10
19,44,25,-32,-4,35,-12,-30,-30,-5,-21,-9
9,34,24,-22,-8,29,-15,-31,-30,-5,-18,3
10,35,26,-23,-8,30,-15,-23,-30,-5,-16,14
4,29,25,-17,-11,26,-14,-32,-30,-5,-13,24
4,29,26,-17,-11,27,-17,-59,-30,-5,-10,45
-7,23,30,-8,-19,26,-24,-52,-27,-4,-10,65
-1,29,30,-14,-15,29,-31,-45,-23,0,-10,83
27,58,32,-43,-2,45,-38,-51,-20,4,-9,85
17,52,35,-35,-10,43,-44,-52,-16,9,-11,88
-2,33,34,-16,-18,33,-51,-58,-13,8,-9,107
-2,36,38,-17,-20,36,-25,-59,-10,4,-12,103
-12,33,45,-10,-29,38,7,-55,-25,0,-13,100
-11,48,59,-19,-35,53,14,-40,-20,6,-20,97
-1,50,51,-25,-26,50,9,-30,-9,13,-19,91
-17,42,59,-13,-38,50,6,-24,-7,17,-20,93
-25,26,52,-1,-39,39,1,-13,7,23,-22,92
-25,32,57,-4,-41,44,-3,-14,2,21,-16,110
-26,32,58,-3,-42,45,-12,5,25,31,-28,85
-17,48,65,-16,-41,56,-32,-6,10,26,-7,86
-92,86,178,2,-135,132,43,39,49,39,-93,48
-114,128,242,-8,-178,185,97,89,95,52,-46,71
8,207,199,-108,-95,203,117,252,376,529,490,367
254,6,-248,-129,251,-121,33,392,630,1086,1128,610
449,-299,-749,-74,599,-524,-248,-120,-199,151,863,537
369,-484,-853,58,611,-669,-278,-518,-988,-1103,-143,141
308,-577,-885,135,596,-731,-182,-447,-951,-1224,-556,-96
297,-394,-691,49,495,-542,-196,-379,-723,-881,-452,-47
157,-193,-350,18,254,-271,-129,-179,-337,-419,-273,-44
32,-92,-125,30,79,-108,-29,-38,-94,-147,-158,-37
-16,-42,-25,29,5,-34,23,-6,-18,-68,-159,-48
-48,-47,1,47,-24,-23,27,28,26,-24,-130,-65
-35,-15,20,25,-27,2,41,52,54,-24,-137,-80
-34,-12,22,23,-28,5,61,63,70,-8,-134,-95
-73,-42,31,57,-52,-5,59,68,57,0,-135,-92
-80,-51,30,66,-55,-11,61,87,57,19,-135,-92
-84,-55,30,70,-57,-12,60,95,66,27,-127,-84
-82,-52,31,67,-56,-10,62,110,101,40,-123,-90
-72,-44,28,58,-50,-7,88,135,129,55,-117,-95
-74,-38,36,56,-55,-1,96,148,139,56,-112,-106
-72,-31,41,52,-57,5,79,153,153,73,-106,-116
-61,-25,36,42,-48,6,68,170,194,109,-98,-105
-60,-27,33,43,-46,3,61,160,214,129,-77,-103
-46,-16,30,31,-38,7,54,143,214,131,-53,-82
5,30,25,-18,-10,27,48,143,221,169,5,-18
40,69,29,-55,5,49,41,135,215,202,60,32
63,94,31,-79,16,62,24,125,208,208,98,66
77,107,30,-92,23,69,-8,112,201,241,156,111
77,106,29,-92,24,67,-34,102,193,257,203,146
99,124,25,-112,37,74,-36,94,185,264,245,174
122,147,25,-135,48,86,-34,85,179,277,272,198
113,136,23,-125,45,79,-37,78,170,255,255,185
79,98,19,-88,29,58,-5,73,153,225,210,138
59,80,20,-70,19,50,26,70,122,202,174,101
51,71,20,-61,16,45,25,63,92,171,140,83
36,56,20,-46,8,38,25,52,82,130,100,65
44,64,20,-54,12,41,22,44,57,95,69,48
57,72,15,-65,20,43,19,37,38,77,51,40
50,60,10,-55,20,35,21,30,41,71,50,31
58,63,5,-61,27,34,25,22,39,64,50,29
61,63,2,-63,29,32,34,17,41,56,45,12
35,30,-5,-32,20,12,33,17,39,50,45,6
26,27,1,-26,12,14,29,31,42,42,44,5
16,39,23,-28,-4,30,31,50,52,34,38,-11
7,33,26,-20,-10,30,28,49,66,27,31,-6
11,35,24,-24,-7,30,45,54,78,21,24,-32
10,36,26,-24,-8,31,50,58,73,12,19,-40
8,31,24,-20,-9,28,28,48,62,6,14,-36
15,47,31,-31,-8,39,23,41,53,16,17,-13
25,55,29,-40,-2,42,17,32,42,17,3,-13
26,40,14,-33,6,26,14,26,33,-2,-20,-57
11,25,14,-18,-2,19,8,19,24,-7,-14,-22
22,37,15,-30,3,26,5,12,15,0,9,12
30,46,16,-39,7,31,13,6,6,-25,21,17
-30,1,32,14,-31,16,28,-6,-3,-53,15,8
-51,-9,42,30,-46,16,29,-5,7,-49,9,-13
-33,5,38,14,-35,21,4,-1,9,-43,4,-25
-57,-13,44,35,-50,16,4,-8,-1,-65,-7,-45
-52,7,58,22,-55,32,22,-9,-8,-82,-20,-52
-4,48,52,-22,-28,50,27,-20,-17,-79,-30,-49
-11,31,42,-10,-26,36,21,-32,-25,-80,-35,-50
-50,-15,35,32,-42,10,14,-36,-34,-80,-35,-43
-24,4,29,10,-26,16,8,-38,-30,-80,-35,-50
-22,4,27,8,-25,15,0,-42,-26,-80,-35,-65
-49,-27,22,38,-35,-3,-9,-44,-20,-80,-35,-47
-38,-19,20,29,-29,1,-23,-46,-27,-80,-35,-42
-65,-52,13,58,-39,-19,-26,-60,-57,-80,-38,-63
-73,-43,29,57,-51,-7,-8,-49,-56,-80,-41,-71
-89,-19,69,54,-79,25,14,-33,-46,-81,-44,-70
-128,-47,81,88,-105,17,19,-31,-42,-88,-47,-70
-97,-18,79,58,-88,30,29,-24,-34,-83,-50,-75
-44,36,81,4,-63,58,43,-22,-32,-75,-50,-75
-27,53,80,-13,-54,66,36,-16,-25,-70,-50,-75
-18,59,77,-21,-48,68,39,-13,-22,-62,-45,-74
-27,45,72,-9,-50,59,51,-7,-17,-56,-37,-67
-54,15,69,20,-62,41,49,-2,-12,-58,-29,-68
-43,23,66,9,-54,44,51,1,-6,-61,-21,-59
-33,28,61,2,-47,44,49,7,1,-59,-12,-66
-45,16,61,15,-53,38,51,8,4,-61,-3,-66
-55,10,65,22,-61,37,43,24,18,-59,5,-36
-60,5,65,27,-62,34,5,-4,-2,-64,8,-19
-77,-11,65,44,-71,27,-11,-47,-43,-86,-17,-41
-62,2,64,29,-63,33,-10,-41,-46,-86,-37,-67
-48,18,66,15,-57,41,-8,-36,-41,-82,-34,-37
-76,-16,60,45,-68,22,2,-32,-39,-101,-36,-43
-68,-10,58,39,-62,24,13,-24,-34,-89,-35,-57
-52,27,79,12,-66,53,22,-22,-31,-73,-35,-40
-61,26,87,17,-75,56,20,-24,-27,-71,-34,-40
-60,28,88,16,-74,58,5,-21,-19,-65,-26,-29
-46,49,95,-2,-71,72,7,-14,-12,-61,-18,-26
-85,7,92,38,-88,49,39,-10,-6,-57,-10,-29
-71,13,84,29,-78,48,47,-3,4,-52,-3,-30
-43,33,76,5,-60,54,39,0,18,-48,5,-28
-64,4,68,29,-66,36,38,15,20,-43,8,-22
-51,9,60,21,-56,34,31,10,-4,-41,-13,-21
-100,-45,55,72,-77,5,24,-18,-24,-54,-29,-7
-105,-50,55,77,-80,2,17,-26,-25,-55,-30,7
-61,-6,55,33,-58,24,10,-25,-25,-49,-34,-3
-73,-18,55,45,-63,18,2,-26,-25,-47,-36,-11
-82,-27,55,54,-68,14,-4,-24,-26,-42,-40,-20
-56,-3,53,29,-54,25,-16,-26,-31,-40,-39,-29
-20,28,48,-4,-34,38,-19,-20,-28,-34,-26,-26
-41,4,45,18,-43,24,1,-12,-23,-27,-11,-19
-19,23,42,-2,-31,32,-7,-2,-22,-21,-8,-16
-42,-5,37,23,-40,16,-35,19,-15,-14,-14,-11
-63,-29,34,46,-49,2,-32,17,-17,-7,-18,-6
-8,22,30,-7,-19,25,-23,3,-20,-7,-23,-7
-1,21,22,-10,-12,21,-20,-3,-20,-16,-27,-14
2,18,16,-10,-7,16,-4,-23,-31,-24,-32,-43
-15,-6,9,10,-12,2,-9,-40,-36,-32,-34,-58
-5,-4,2,4,-4,-1,-42,-50,-51,-40,-36,-53
-20,-18,2,19,-11,-8,-54,-57,-58,-53,-30,-56
-39,-34,6,36,-22,-14,-47,-67,-49,-55,-35,-54
-17,-12,5,14,-11,-4,-53,-68,-45,-45,-45,-55
-11,-6,5,8,-8,0,-42,-52,-38,-37,-37,-53
-10,-5,5,7,-7,-1,-7,-46,-36,-28,-27,-45
-30,-24,5,27,-17,-9,0,-39,-40,-21,-20,-40
-26,-16,10,21,-18,-3,-12,-32,-40,-20,-20,-40
-22,-4,18,12,-20,7,-19,-26,-40,-20,-18,-39
-10,7,18,1,-14,12,-24,-20,-40,-16,-15,-34
-4,11,14,-4,-9,12,-19,-36,-40,-15,-14,-36
-28,-16,12,22,-20,-2,-17,-54,-37,-17,-19,-33
-44,-35,9,40,-26,-13,-14,-60,-32,-22,-36,-30
-41,-35,6,38,-23,-14,-10,-60,-29,-30,-36,-31
-38,-34,4,36,-21,-15,-11,-60,-25,-22,-29,-26
-51,-27,24,38,-37,-1,-8,-59,-21,-7,-26,-25
-69,-22,47,45,-57,12,-15,-60,-18,6,-20,-25
-62,-7,56,34,-59,24,-20,-56,-14,11,-17,-20
-21,26,47,-3,-35,37,-20,-48,-14,10,-12,-20
-18,21,39,-2,-29,30,-20,-44,-16,12,-7,-19
-10,19,30,-5,-20,24,-18,-32,-12,17,0,-14
0,21,21,-11,-10,21,-24,-34,-18,33,3,-16
4,22,18,-13,-7,19,-8,-31,-14,54,11,-12
4,27,23,-16,-10,25,-34,-38,-29,38,15,-10
-11,22,33,-6,-22,27,-25,-32,-26,45,8,-10
-10,18,28,-5,-19,23,0,-35,-36,39,3,-11
-74,-23,51,48,-62,14,-40,-57,-53,34,-36,-57
-64,-34,31,48,-47,-2,-29,-47,-41,41,-44,-76
-61,32,93,14,-77,62,24,-28,-24,18,-64,-71
-115,80,195,18,-156,137,87,91,93,52,-144,-126
-84,162,246,-39,-165,204,51,127,121,126,42,29
145,180,34,-162,55,107,-1,251,436,842,853,485
439,-70,-509,-184,474,-289,-146,152,340,980,1429,768
476,-332,-808,-72,642,-570,-330,-307,-514,-251,792,562
