I,II,III,aVR,aVL,aVF,V1,V2,V3,V4,V5,V6
51,-89,-140,19,96,-114,65,-159,54,-56,-49,-221
150,-67,-216,-41,183,-141,82,-160,73,-75,-50,-238
181,-52,-233,-64,207,-143,107,-161,114,-86,-52,-247
97,-112,-209,8,153,-161,95,-158,105,-71,-46,-238
76,-122,-198,23,138,-160,86,-167,119,-79,-58,-239
89,-77,-166,-6,128,-121,87,-166,113,-58,-45,-231
93,-63,-156,-14,125,-109,59,-136,160,13,12,-200
206,39,-167,-122,186,-63,36,-70,354,208,169,-68
314,234,-80,-274,197,77,-146,-423,178,365,445,177
368,506,138,-437,115,322,-661,-1333,-623,156,628,458
392,702,310,-548,41,506,-1097,-2161,-1612,-445,521,588
326,785,459,-556,-66,621,-1337,-2555,-2192,-983,353,640
382,894,512,-638,-65,703,-1436,-2475,-2087,-995,441,812
442,933,490,-688,-24,711,-1304,-2163,-1739,-783,621,983
350,818,468,-584,-60,643,-1128,-1906,-1508,-722,613,996
322,640,318,-482,2,479,-931,-1583,-1217,-660,477,860
383,571,188,-477,97,380,-719,-1192,-796,-470,430,741
309,402,93,-356,108,247,-500,-840,-464,-355,224,400
176,115,-61,-145,118,27,-205,-470,-166,-261,-59,-45
112,-70,-181,-21,147,-125,58,-167,144,-93,-74,-201
89,-118,-206,15,148,-162,161,-39,266,-9,-49,-254
125,-94,-220,-15,173,-156,199,15,318,44,-45,-271
106,-141,-247,18,177,-193,208,52,347,34,-36,-269
89,-158,-247,35,168,-202,207,87,367,38,-67,-304
91,-156,-247,33,169,-201,261,137,435,122,-68,-309
77,-162,-239,43,158,-201,267,149,451,127,-44,-291
102,-163,-265,31,184,-214,257,163,479,133,-36,-287
105,-167,-272,31,189,-219,257,206,531,169,-29,-285
88,-163,-251,38,170,-207,259,244,573,187,-17,-280
141,-169,-310,14,226,-239,295,306,646,228,-7,-277
173,-153,-326,-9,250,-239,335,385,731,284,15,-274
150,-178,-327,14,239,-252,335,430,794,313,13,-269
80,-197,-276,59,178,-236,365,508,877,371,50,-271
48,-188,-236,70,142,-212,408,564,962,421,97,-259
116,-184,-300,34,209,-241,389,560,999,440,71,-285
66,-171,-237,52,152,-204,411,613,1069,518,106,-287
79,-126,-205,24,142,-165,394,600,1101,569,177,-208
186,-29,-216,-78,201,-122,332,533,1074,607,227,-163
205,2,-203,-103,204,-100,289,485,1042,637,292,-83
243,37,-206,-140,224,-84,231,369,966,635,366,16
308,118,-190,-212,249,-36,164,233,846,603,415,90
307,124,-183,-216,245,-29,96,101,703,529,409,118
279,116,-164,-197,221,-24,74,-26,560,428,361,82
259,105,-154,-181,206,-25,57,-107,415,284,271,31
182,88,-94,-135,138,-3,44,-180,314,178,175,-43
141,46,-95,-93,118,-24,75,-226,266,106,118,-92
93,-29,-123,-32,108,-76,87,-228,223,41,74,-117
99,-12,-111,-43,105,-62,84,-236,175,19,20,-149
120,-25,-146,-47,133,-85,82,-252,153,5,0,-162
89,-51,-140,-19,115,-95,80,-270,155,-9,-2,-169
94,-37,-130,-28,112,-83,79,-260,148,-15,-4,-165
63,-69,-132,4,97,-100,75,-267,149,-34,-8,-179
62,-56,-118,-2,90,-87,85,-287,141,-51,-27,-216
48,-71,-120,12,84,-95,111,-278,156,-50,-34,-215
41,-75,-116,18,78,-95,139,-267,186,-51,-44,-214
69,-48,-118,-11,94,-83,141,-258,184,-56,-51,-216
70,-63,-133,-4,102,-98,139,-253,185,-55,-46,-214
85,-42,-127,-21,107,-84,140,-250,184,-53,-42,-218
75,-43,-118,-16,97,-81,140,-247,185,-48,-40,-221
45,-78,-123,17,84,-100,138,-241,182,-45,-32,-225
44,-106,-150,31,97,-128,128,-244,179,-42,-40,-228
2,-132,-134,65,69,-133,123,-265,180,-37,-53,-233
51,-82,-133,16,92,-107,114,-255,179,-35,-33,-235
123,-43,-166,-40,145,-104,109,-237,198,-28,-27,-231
89,-67,-157,-11,123,-112,97,-230,202,-18,-32,-228
109,-59,-168,-24,138,-113,106,-211,191,-7,-31,-226
101,-52,-153,-24,127,-102,119,-235,186,-3,-36,-222
69,-54,-123,-7,96,-89,105,-273,177,-4,-35,-221
132,-39,-171,-46,152,-105,101,-272,170,-7,-30,-218
139,-32,-172,-53,156,-102,84,-281,164,-9,-28,-223
63,-39,-103,-12,83,-71,91,-281,153,-12,-13,-216
97,-48,-145,-24,121,-97,114,-286,149,-13,-35,-220
107,-40,-147,-33,127,-93,87,-274,136,-18,-51,-225
85,-13,-98,-36,92,-55,84,-254,144,-7,-10,-193
137,20,-117,-78,127,-48,109,-273,194,29,0,-182
133,33,-100,-83,116,-33,98,-265,209,43,-2,-173
143,56,-87,-100,115,-15,88,-264,204,39,11,-164
171,116,-55,-143,113,30,47,-261,204,32,31,-158
127,119,-8,-123,68,56,-7,-257,211,59,55,-151
175,94,-81,-134,128,6,-19,-305,214,62,55,-145
261,86,-175,-173,217,-44,-4,-324,154,17,7,-135
156,26,-130,-91,143,-51,25,-318,112,-14,-26,-156
79,-13,-92,-33,86,-52,41,-317,135,-41,-25,-190
112,-28,-140,-42,126,-84,68,-314,128,-56,-50,-222
48,-116,-164,35,106,-140,71,-314,110,-60,-69,-233
64,-106,-170,21,117,-138,69,-311,110,-61,-63,-227
98,-73,-171,-12,134,-122,71,-303,111,-58,-61,-231
60,-81,-141,11,101,-111,69,-302,108,-63,-59,-229
74,-76,-150,1,112,-112,71,-294,113,-56,-53,-229
46,-87,-133,21,90,-110,69,-295,104,-51,-56,-215
84,-32,-117,-26,100,-74,73,-268,159,5,-15,-177
160,6,-154,-83,157,-74,52,-176,369,187,134,-89
289,186,-102,-237,195,42,-119,-456,281,355,383,141
390,493,103,-441,143,298,-580,-1331,-465,208,571,436
312,687,375,-500,-32,530,-1058,-2236,-1492,-378,508,578
294,776,482,-535,-95,629,-1310,-2695,-2149,-947,364,630
354,874,520,-614,-83,697,-1405,-2668,-2123,-1014,401,785
366,932,566,-649,-100,749,-1330,-2341,-1750,-780,567,955
348,831,483,-590,-68,657,-1145,-2040,-1496,-696,594,976
310,693,383,-501,-37,537,-944,-1738,-1245,-661,483,874
312,605,293,-458,9,449,-747,-1342,-819,-458,441,774
253,438,185,-346,34,311,-536,-991,-484,-362,238,465
151,163,12,-157,69,87,-252,-618,-185,-272,-56,14
103,-40,-143,-31,123,-91,13,-295,128,-92,-97,-181
48,-114,-163,33,106,-138,139,-141,254,-35,-79,-248
97,-97,-194,0,146,-145,175,-79,318,15,-79,-273
62,-127,-189,33,126,-158,210,-42,355,68,-64,-267
19,-147,-166,64,92,-156,242,2,382,95,-64,-271
64,-152,-216,44,140,-184,239,24,418,108,-55,-263
39,-197,-236,79,138,-216,244,52,429,110,-56,-266
26,-187,-214,81,120,-200,245,87,471,139,-50,-267
56,-170,-226,58,141,-197,243,118,509,158,-47,-270
93,-160,-253,33,174,-206,262,177,550,190,-43,-270
68,-173,-241,52,155,-207,278,235,620,233,-33,-269
57,-170,-227,57,142,-198,299,295,689,263,-21,-271
61,-159,-220,49,140,-189,334,366,763,312,-7,-269
84,-157,-241,37,163,-199,362,442,854,375,12,-266
118,-142,-260,12,189,-200,392,502,928,420,51,-265
145,-108,-253,-18,199,-180,404,550,984,464,79,-259
173,-83,-256,-44,215,-170,392,573,1041,514,91,-221
184,-71,-255,-56,220,-163,392,567,1051,549,129,-178
198,-27,-224,-85,211,-125,355,532,1040,593,191,-150
201,24,-177,-112,189,-76,288,448,1020,629,258,-67
255,90,-165,-172,210,-37,235,344,945,636,323,4
276,124,-153,-200,214,-14,186,225,829,623,384,79
265,155,-110,-210,187,23,134,91,695,550,401,144
253,178,-75,-215,163,51,89,-47,546,422,335,114
207,132,-75,-169,141,28,78,-137,398,283,232,56
163,97,-65,-130,114,16,81,-198,287,174,151,-13
108,51,-57,-79,82,-3,79,-254,212,102,78,-70
64,6,-58,-35,61,-25,80,-264,157,47,21,-108
19,-11,-30,-4,25,-20,80,-267,131,2,0,-130
27,-45,-72,9,50,-58,76,-291,123,-30,-45,-163
34,-54,-88,10,61,-70,76,-300,115,-40,-50,-182
39,-39,-79,1,59,-59,68,-291,105,-35,-49,-168
47,-32,-79,-8,63,-55,77,-289,97,-48,-87,-162
30,-16,-46,-7,39,-31,104,-284,95,-80,-84,-191
24,-49,-74,13,49,-62,106,-280,94,-89,-79,-214
-20,-77,-56,49,18,-66,103,-275,92,-78,-79,-203
41,-28,-68,-6,55,-47,101,-268,87,-73,-74,-202
8,-33,-41,12,24,-36,99,-264,94,-66,-74,-198
-96,-94,2,95,-49,-46,101,-258,113,-60,-69,-193
-8,-91,-83,50,38,-87,105,-252,103,-55,-62,-198
-13,-67,-54,40,21,-60,104,-252,83,-50,-79,-192
-36,-58,-22,47,-7,-40,106,-257,81,-45,-98,-192
66,-19,-85,-23,75,-52,103,-260,79,-42,-94,-196
88,-25,-113,-31,101,-69,107,-263,79,-35,-93,-177
35,-55,-90,10,63,-72,93,-268,74,-36,-89,-178
77,-36,-113,-20,95,-74,68,-270,74,-58,-90,-176
93,-30,-122,-31,108,-76,110,-274,112,-58,-86,-170
53,-28,-81,-12,67,-54,124,-278,122,-50,-80,-166
102,-10,-112,-45,107,-61,108,-281,106,-49,-75,-162
21,-48,-69,14,45,-58,105,-286,101,-40,-69,-156
10,-51,-61,21,36,-56,95,-289,90,-45,-64,-155
113,-9,-122,-52,118,-65,101,-289,85,-57,-58,-177
58,-46,-104,-5,81,-75,99,-276,81,-53,-68,-172
42,-50,-93,4,68,-71,102,-271,74,-50,-78,-159
60,-12,-72,-24,67,-41,105,-259,74,-48,-64,-151
31,-13,-44,-9,38,-28,105,-250,64,-44,-55,-140
16,12,-4,-14,10,4,103,-239,67,-43,-41,-130
44,45,1,-45,21,23,92,-218,76,-27,-11,-121
63,74,11,-68,26,42,84,-266,72,-19,-35,-100
115,137,22,-126,46,79,48,-293,106,6,-21,-63
138,143,5,-141,66,74,4,-291,83,14,1,-60
126,114,-12,-119,69,51,-12,-281,44,-37,-41,-65
122,71,-50,-96,86,10,9,-283,48,-63,-41,-89
36,9,-27,-22,31,-9,41,-303,4,-67,-69,-136
36,-39,-75,2,56,-57,39,-267,-23,-88,-105,-146
39,-86,-126,24,83,-106,40,-264,-26,-110,-106,-149
-8,-91,-83,50,37,-87,40,-265,-31,-93,-97,-135
2,-89,-91,44,46,-90,38,-268,-43,-95,-107,-143
-25,-91,-66,58,20,-78,64,-294,-78,-127,-139,-179
-28,-89,-61,58,16,-75,81,-286,-76,-123,-125,-174
9,-92,-101,42,55,-96,70,-264,-52,-99,-99,-157
-12,-81,-68,47,28,-74,55,-264,-43,-78,-82,-127
13,-69,-82,28,48,-75,68,-177,82,9,-36,-94
141,32,-109,-86,125,-39,9,-188,216,223,167,59
257,321,64,-289,97,192,-318,-760,-113,327,487,388
317,600,283,-458,16,441,-841,-1733,-1037,5,601,649
266,740,474,-503,-105,607,-1214,-2485,-2009,-668,412,724
233,852,619,-543,-193,735,-1378,-2709,-2382,-1090,293,791
322,934,612,-628,-145,773,-1408,-2512,-2140,-967,447,969
292,933,641,-613,-175,787,-1267,-2164,-1791,-770,594,1119
218,750,533,-484,-158,641,-1056,-1872,-1586,-729,526,1043
222,594,372,-408,-75,483,-874,-1518,-1240,-620,395,888
236,515,279,-376,-22,397,-673,-1120,-821,-439,282,709
182,237,55,-210,64,146,-401,-750,-531,-359,30,303
41,-1,-43,-20,42,-22,-110,-363,-188,-248,-138,-16
-7,-107,-100,57,47,-104,90,-125,34,-74,-123,-128
22,-157,-178,68,100,-167,153,-35,96,-23,-123,-173
26,-147,-172,61,99,-159,200,3,166,-1,-117,-162
31,-144,-174,57,103,-159,229,45,199,53,-112,-173
9,-155,-164,73,87,-159,204,78,206,40,-110,-171
-33,-193,-160,113,64,-176,221,105,242,67,-102,-177
-40,-196,-157,119,59,-176,261,158,297,120,-96,-174
-28,-193,-165,111,69,-179,275,171,307,106,-89,-178
-29,-197,-168,113,70,-182,266,225,364,162,-82,-197
-33,-193,-161,113,65,-177,278,285,421,202,-77,-173
-5,-196,-191,101,93,-193,304,331,463,212,-70,-164
11,-187,-199,88,105,-193,315,410,551,261,-61,-166
32,-186,-218,78,125,-202,351,480,628,329,-48,-162
24,-179,-203,78,114,-191,377,561,720,399,-18,-160
-16,-177,-162,97,74,-170,399,618,786,419,22,-160
45,-161,-206,58,126,-183,415,656,842,479,56,-148
68,-121,-189,27,129,-155,399,671,871,531,78,-101
68,-95,-164,14,116,-129,391,650,853,567,122,-61
116,-51,-167,-33,142,-108,368,605,863,623,194,-2
145,-4,-149,-70,147,-77,301,509,829,629,264,81
194,55,-139,-124,166,-42,228,390,729,628,320,158
207,115,-92,-161,149,12,172,280,601,576,356,239
194,136,-57,-165,125,39,110,135,454,474,331,251
98,104,6,-101,46,55,67,18,308,359,260,210
34,60,26,-47,4,43,47,-44,169,228,161,156
105,50,-55,-77,80,-3,76,-101,85,131,62,90
4,5,0,-5,2,3,110,-118,21,56,5,46
-18,-22,-4,20,-7,-13,102,-123,-40,-10,-53,4
46,-45,-91,-1,69,-67,108,-153,-67,-36,-73,-33
2,-73,-75,35,39,-73,110,-168,-79,-43,-78,-47
35,-48,-83,7,59,-65,109,-164,-76,-59,-96,-43
23,-55,-78,16,51,-66,110,-166,-83,-65,-98,-44
-8,-90,-82,49,38,-86,109,-165,-117,-90,-125,-71
-21,-99,-78,60,29,-88,110,-165,-126,-101,-137,-82
14,-79,-93,33,53,-86,109,-155,-116,-86,-125,-72
-59,-90,-32,75,-13,-61,110,-139,-115,-85,-125,-73
-121,-120,1,121,-61,-59,110,-128,-108,-75,-119,-67
-5,-112,-107,59,52,-110,125,-121,-105,-68,-112,-62
14,-95,-109,40,62,-102,144,-117,-101,-89,-136,-89
-3,-102,-99,53,49,-100,142,-111,-98,-100,-148,-93
-82,-129,-47,106,-17,-88,135,-105,-96,-87,-134,-82
-63,-98,-35,80,-13,-67,133,-100,-92,-84,-129,-87
33,-81,-114,24,74,-97,127,-94,-90,-75,-120,-84
9,-81,-91,36,50,-86,123,-89,-92,-70,-116,-85
-42,-72,-30,57,-6,-51,117,-84,-97,-66,-111,-85
-55,-93,-38,75,-8,-65,104,-77,-99,-61,-109,-82
-11,-72,-61,42,25,-66,102,-73,-104,-59,-104,-80
-44,-91,-47,68,2,-69,81,-66,-108,-53,-101,-80
-23,-112,-89,68,34,-101,98,-59,-110,-52,-99,-77
-17,-101,-84,59,33,-92,121,-46,-111,-44,-103,-74
-57,-116,-60,87,1,-88,93,-38,-108,-61,-118,-76
-32,-101,-69,67,19,-85,94,-25,-122,-74,-111,-69
-33,-74,-41,54,4,-57,96,-8,-120,-58,-100,-72
-30,-43,-13,37,-8,-28,97,11,-104,-52,-90,-68
-86,-40,46,62,-65,3,103,53,-99,-37,-83,-73
-58,-19,40,38,-49,10,98,42,-94,-46,-75,-60
-5,33,38,-14,-21,35,86,54,-101,-34,-70,-17
-1,74,75,-37,-38,74,59,90,-103,5,-61,-19
21,85,64,-53,-21,74,31,75,-107,-11,-58,-27
-29,38,67,-5,-48,52,25,74,-111,-23,-49,-26
13,33,20,-23,-4,26,39,66,-114,-29,-43,-21
0,-42,-43,21,22,-42,48,62,-128,-85,-88,-65
-69,-107,-38,88,-15,-72,57,56,-137,-123,-102,-116
-39,-95,-56,68,9,-75,60,55,-138,-119,-113,-107
-53,-156,-103,105,25,-129,37,49,-139,-120,-140,-112
-70,-160,-90,115,10,-125,68,58,-159,-120,-127,-115
-74,-151,-77,113,2,-114,112,90,-159,-120,-127,-114
-73,-153,-80,113,4,-117,99,78,-149,-117,-120,-114
-110,-143,-34,127,-37,-88,95,85,-134,-98,-117,-101
-84,-146,-61,115,-11,-103,86,67,-123,-75,-110,-84
-25,-117,-92,71,34,-104,70,106,-57,-32,-78,-57
9,-29,-37,10,23,-33,49,197,108,144,56,40
150,194,44,-172,53,118,-145,-158,-16,336,375,298
222,472,250,-347,-14,360,-637,-1050,-764,175,541,613
245,704,459,-475,-107,581,-1089,-1913,-1790,-432,460,750
207,810,604,-509,-198,707,-1322,-2344,-2422,-1020,366,791
203,878,675,-541,-237,776,-1440,-2282,-2377,-1080,377,949
274,965,691,-620,-208,828,-1337,-1940,-2016,-875,528,1110
198,847,649,-523,-225,748,-1131,-1676,-1780,-824,515,1079
201,630,429,-416,-114,529,-943,-1358,-1482,-735,381,965
229,538,309,-383,-40,423,-748,-964,-1040,-534,349,864
148,362,214,-255,-34,288,-526,-619,-711,-431,131,506
74,65,-9,-69,42,27,-205,-222,-370,-306,-126,72
-16,-102,-86,60,36,-94,50,79,-68,-120,-143,-99
-62,-161,-100,112,19,-130,138,200,45,-27,-137,-151
-30,-170,-140,100,55,-155,192,276,108,15,-139,-168
-73,-209,-136,141,32,-172,214,317,144,34,-132,-188
-102,-218,-116,160,7,-167,216,338,182,62,-137,-193
-61,-171,-111,116,25,-141,228,363,212,83,-128,-188
-72,-194,-123,133,26,-158,211,362,231,71,-125,-198
-55,-181,-126,118,36,-153,256,422,305,123,-118,-193
1,-178,-179,88,90,-178,310,463,339,172,-113,-195
4,-213,-217,105,111,-215,301,480,372,173,-108,-185
-35,-229,-194,132,80,-211,313,541,441,195,-101,-182
-2,-197,-194,100,96,-195,312,596,509,231,-83,-177
2,-186,-188,92,95,-187,324,672,595,278,-64,-167
-54,-227,-173,141,59,-200,349,745,679,339,-50,-173
-11,-203,-192,107,91,-197,376,795,755,389,-35,-160
-4,-181,-178,93,87,-179,395,845,827,440,8,-182
-19,-183,-164,101,73,-173,382,861,873,500,38,-195
-12,-156,-144,84,66,-149,365,847,889,529,56,-147
15,-97,-112,42,64,-104,316,812,886,563,122,-79
84,-46,-130,-19,107,-88,281,721,841,589,190,4
95,17,-78,-56,86,-30,222,609,775,599,260,75
162,105,-57,-133,109,24,151,484,670,583,325,151
198,137,-61,-167,129,38,101,346,525,516,325,183
176,153,-22,-164,99,65,53,208,361,402,257,158
105,115,9,-110,47,62,49,119,230,254,168,105
36,55,19,-45,8,37,41,71,142,135,82,23
49,43,-6,-46,27,19,40,20,68,64,14,-23
8,-30,-38,11,23,-34,32,-4,33,-13,-56,-66
-54,-72,-18,63,-17,-45,33,-26,-7,-61,-117,-118
-89,-61,28,75,-58,-17,80,-48,-32,-59,-121,-121
-48,-69,-21,59,-13,-45,86,-64,-29,-82,-119,-119
-73,-69,3,71,-38,-33,85,-65,-27,-96,-126,-120
-114,-70,43,92,-79,-13,89,-59,-24,-84,-124,-119
-33,-66,-32,50,0,-49,91,-58,-21,-81,-125,-120
-28,-90,-62,59,17,-76,87,-52,-20,-72,-112,-119
-92,-98,-7,95,-42,-52,81,-50,-20,-66,-99,-121
-77,-83,-5,80,-36,-44,108,-46,-20,-87,-132,-118
-88,-82,6,85,-47,-37,111,-45,-20,-95,-148,-140
-77,-70,7,73,-41,-32,104,-45,-20,-81,-137,-146
-38,-69,-32,53,-3,-50,104,-45,-21,-80,-138,-145
-11,-63,-52,37,21,-57,99,-46,-16,-69,-131,-145
-21,-66,-44,44,12,-55,99,-41,-5,-63,-130,-145
-99,-66,33,83,-66,-16,94,-30,25,-47,-125,-146
-50,-51,-1,51,-24,-26,96,-17,56,-36,-125,-123
-26,-73,-47,50,11,-60,92,-43,51,-79,-124,-149
0,-56,-56,28,28,-56,89,-82,43,-91,-119,-168
-8,-69,-61,39,27,-65,90,-85,39,-78,-121,-154
-65,-93,-28,80,-18,-60,86,-86,29,-78,-117,-155
-12,-48,-36,30,13,-42,81,-84,28,-69,-114,-148
-63,-69,-5,66,-29,-37,76,-85,14,-66,-115,-144
-114,-111,3,113,-59,-53,72,-85,26,-60,-114,-141
-115,-95,20,105,-67,-37,67,-77,52,-56,-115,-138
-87,-79,7,83,-47,-36,63,-96,49,-54,-115,-136
-63,-70,-8,66,-27,-39,56,-106,50,-49,-109,-132
-57,-46,10,51,-33,-18,49,-95,50,-46,-103,-131
-59,-53,6,55,-32,-23,43,-94,51,-46,-95,-127
-66,15,81,25,-74,48,34,-88,52,-53,-92,-124
63,49,-14,-56,39,17,29,-83,59,-54,-79,-120
35,30,-5,-32,20,12,20,-87,74,-33,-70,-103
-13,95,108,-41,-61,101,11,-80,71,11,-50,-82
25,93,69,-59,-22,81,2,-100,62,13,-50,-86
-14,69,83,-27,-49,76,-4,-139,57,-24,-65,-86
13,37,23,-25,-5,30,2,-136,50,-45,-57,-83
-21,-13,8,17,-14,-2,23,-128,33,-74,-102,-117
-60,-73,-12,67,-24,-42,41,-126,20,-76,-117,-130
-69,-94,-26,81,-21,-60,26,-116,-7,-99,-136,-158
-111,-89,22,100,-67,-33,50,-122,-38,-124,-166,-186
-64,-118,-54,91,-5,-86,80,-135,-41,-114,-150,-175
-54,-121,-67,88,7,-94,71,-128,-30,-113,-151,-176
-91,-154,-63,123,-14,-108,72,-124,-29,-109,-144,-170
-71,-133,-63,102,-4,-98,65,-117,-20,-105,-141,-172
-63,-118,-55,91,-4,-86,64,-111,1,-89,-126,-157
-54,-136,-82,95,14,-108,48,-59,75,-34,-84,-135
-29,-26,3,27,-16,-12,19,7,267,176,83,-29
113,209,96,-161,8,152,-166,-355,118,347,370,246
252,497,245,-375,3,370,-669,-1271,-701,120,513,516
186,670,483,-428,-149,576,-1110,-2132,-1710,-488,413,646
150,752,603,-451,-227,677,-1342,-2538,-2298,-1026,262,694
217,827,610,-522,-197,718,-1448,-2460,-2200,-1038,332,839
241,861,619,-551,-189,740,-1316,-2117,-1816,-817,514,1018
219,784,564,-502,-173,674,-1143,-1843,-1587,-743,522,1022
197,652,455,-425,-129,554,-957,-1515,-1289,-640,446,935
188,544,356,-367,-85,450,-743,-1123,-870,-466,373,810
134,352,218,-243,-42,285,-516,-765,-540,-381,123,447
33,86,53,-59,-10,69,-225,-390,-242,-292,-147,20
-18,-92,-74,55,28,-82,18,-93,48,-134,-176,-157
-58,-128,-71,93,7,-99,160,67,211,-24,-156,-205
-103,-160,-57,131,-23,-108,177,138,240,25,-151,-237
-75,-173,-97,125,11,-135,186,161,264,38,-130,-240
-119,-190,-71,154,-24,-130,224,194,326,71,-122,-236
-124,-221,-97,173,-13,-159,257,227,350,96,-112,-232
-73,-212,-139,142,34,-175,262,236,359,97,-110,-232
-119,-216,-97,168,-11,-157,263,294,418,138,-104,-226
-116,-214,-98,165,-8,-156,265,328,446,141,-100,-234
-91,-215,-125,153,17,-170,264,373,495,173,-96,-256
-60,-211,-152,136,46,-181,300,454,571,219,-83,-247
-46,-205,-159,126,57,-181,316,515,640,262,-53,-241
-46,-198,-152,122,53,-175,353,586,734,344,-37,-234
-29,-187,-157,109,64,-172,364,645,794,365,-26,-228
-17,-171,-154,94,69,-162,370,716,867,404,-9,-222
-1,-156,-154,79,77,-155,404,758,935,454,14,-209
13,-131,-144,59,79,-138,399,760,981,503,57,-199
26,-116,-142,46,84,-129,386,751,1002,548,88,-170
15,-100,-116,42,66,-108,352,713,987,572,137,-130
53,-30,-82,-11,68,-56,292,653,950,586,203,-51
75,1,-74,-38,74,-36,207,545,873,575,262,35
147,84,-63,-115,105,11,138,422,770,576,328,115
171,141,-31,-156,101,55,104,290,630,522,346,176
68,111,43,-90,13,77,92,166,481,392,275,145
65,128,64,-97,0,96,96,94,345,258,184,77
32,86,55,-59,-11,70,94,30,243,170,125,36
-35,41,75,-3,-55,58,95,-8,174,96,37,-34
-69,3,72,33,-70,37,95,2,109,29,-20,-113
-126,-66,60,96,-93,-3,91,5,71,0,-40,-120
-143,-83,60,113,-101,-12,90,-9,58,-22,-85,-124
-136,-79,57,107,-96,-11,90,-19,60,-30,-94,-123
-134,-85,48,110,-91,-18,90,-31,59,-58,-94,-138
-138,-84,54,111,-95,-15,89,-36,60,-85,-104,-158
-121,-87,34,104,-78,-26,91,-35,59,-83,-124,-147
-132,-89,42,110,-87,-23,95,-36,57,-92,-135,-148
-110,-91,19,100,-64,-36,95,-35,54,-92,-130,-136
-101,-89,11,95,-56,-39,95,-36,52,-100,-145,-171
-167,-90,76,128,-121,-7,95,-28,81,-110,-157,-203
-153,-90,63,121,-108,-14,95,-13,93,-95,-150,-190
-182,-89,94,135,-138,2,91,-1,87,-83,-140,-187
-144,-94,51,119,-98,-22,90,8,92,-76,-133,-177
-69,-73,-4,71,-32,-38,90,12,89,-69,-130,-175
-137,-91,46,114,-91,-23,86,18,89,-63,-127,-164
-116,-110,7,113,-61,-51,84,24,84,-55,-124,-174
-60,-88,-29,74,-15,-58,86,29,80,-51,-121,-195
-77,-85,-8,82,-35,-46,90,30,102,-54,-120,-183
-81,-72,9,76,-45,-31,90,30,107,-55,-125,-175
-128,-83,45,105,-86,-19,90,30,96,-55,-125,-167
-159,-100,59,129,-109,-20,89,30,92,-55,-125,-161
-155,-85,70,120,-112,-8,91,30,80,-56,-125,-157
-177,-80,97,128,-137,8,85,30,78,-52,-125,-150
-130,-63,68,96,-99,3,75,30,65,-44,-123,-145
-137,-62,76,99,-106,7,66,29,63,-36,-119,-140
-119,-92,27,105,-73,-32,53,32,51,-27,-116,-135
-103,-86,17,95,-60,-34,49,50,50,-22,-112,-130
-142,-41,100,91,-121,29,32,41,97,-8,-110,-126
-58,40,98,8,-78,69,52,47,123,-16,-92,-122
-58,83,141,-13,-100,112,79,105,132,-16,-67,-116
-70,48,119,11,-95,83,33,119,112,20,-66,-117
-17,87,103,-35,-60,95,-24,100,131,24,-63,-122
19,152,133,-86,-58,143,-32,90,138,13,-61,-123
25,91,66,-59,-21,79,-24,70,90,0,-58,-129
-50,-13,37,31,-43,12,-6,57,74,-26,-71,-129
-92,-55,37,73,-64,-8,27,48,60,-59,-114,-151
-111,-73,38,92,-75,-17,41,56,48,-73,-135,-176
-133,-91,42,112,-87,-24,67,97,43,-68,-134,-168
-125,-105,20,115,-73,-42,68,96,24,-69,-136,-167
-125,-109,16,117,-70,-46,61,88,27,-61,-134,-154
-154,-117,37,136,-96,-39,60,87,51,-77,-135,-169
-173,-144,29,158,-101,-57,50,74,48,-79,-135,-196
-181,-131,51,156,-116,-40,80,80,49,-49,-124,-179
-151,-111,40,131,-95,-36,44,59,39,-41,-107,-161
-78,-60,18,69,-48,-21,30,173,168,38,-38,-115
-63,27,90,18,-77,58,13,194,330,231,136,12
87,243,156,-166,-35,200,-288,-365,8,333,407,296
229,555,326,-393,-49,441,-803,-1328,-898,6,522,556
156,684,528,-420,-186,605,-1206,-2122,-1886,-667,339,609
172,767,595,-470,-211,681,-1376,-2360,-2247,-1043,243,707
196,859,663,-528,-234,761,-1408,-2175,-2017,-934,376,880
185,859,675,-523,-245,767,-1288,-1850,-1683,-732,540,1016
169,754,585,-462,-208,669,-1083,-1551,-1447,-689,517,1012
126,589,464,-358,-169,526,-897,-1204,-1138,-581,412,890
134,489,355,-312,-110,422,-697,-804,-715,-386,334,731
103,276,173,-189,-35,224,-458,-454,-429,-359,34,309
2,-17,-19,8,10,-18,-153,-61,-123,-242,-168,-61
-94,-128,-33,111,-30,-80,70,221,148,-50,-118,-150
-60,-140,-81,100,11,-110,155,333,241,20,-103,-198
-44,-155,-111,100,34,-133,208,392,289,49,-126,-232
-73,-173,-100,123,14,-136,211,426,308,69,-143,-254
-73,-190,-117,132,22,-153,214,468,344,101,-134,-249
-87,-197,-110,143,12,-154,217,494,363,110,-131,-250
-92,-219,-127,156,18,-173,228,529,387,104,-128,-251
-110,-216,-106,164,-2,-161,234,563,419,130,-123,-249
-103,-209,-106,156,2,-158,218,610,458,181,-122,-239
-100,-208,-107,154,4,-157,261,690,545,217,-106,-217
-99,-201,-101,150,1,-151,298,758,610,254,-78,-215
-62,-198,-137,130,38,-167,305,830,674,298,-51,-212
-53,-192,-140,123,44,-165,333,908,749,335,-34,-209
-58,-189,-132,124,37,-160,360,984,829,385,-12,-207
-49,-183,-134,116,43,-158,386,1054,903,438,7,-204
-59,-181,-122,120,32,-151,397,1096,965,488,26,-191
-25,-151,-126,89,51,-138,393,1103,992,517,51,-159
-23,-111,-88,67,33,-99,400,1111,998,554,95,-123
-8,-69,-61,39,27,-65,355,1060,1008,612,168,-65
86,-33,-119,-27,103,-76,269,947,946,624,223,9
138,15,-124,-76,131,-54,200,841,872,605,288,94
143,72,-71,-107,107,1,139,722,756,584,342,161
101,105,4,-103,48,54,97,600,576,507,314,179
57,116,59,-87,-1,88,68,493,437,376,243,156
-55,36,92,9,-74,64,58,411,292,238,174,72
-151,-26,125,88,-138,49,61,352,176,131,83,-13
-130,-75,55,102,-92,-10,57,325,121,57,-17,-61
-151,-110,41,130,-96,-34,55,322,70,3,-55,-82
-170,-90,79,130,-124,-6,55,315,23,-20,-82,-93
-164,-123,41,143,-102,-41,55,313,-4,-65,-130,-138
-221,-123,98,172,-159,-13,55,306,-8,-111,-167,-175
-267,-140,126,203,-196,-7,54,305,-11,-111,-172,-169
-257,-161,96,209,-176,-33,56,311,-15,-115,-169,-163
-239,-141,98,190,-169,-21,53,314,-18,-118,-177,-158
-213,-135,78,174,-145,-28,62,320,-23,-120,-174,-152
-242,-165,77,203,-159,-44,75,323,-25,-118,-173,-148
-258,-194,64,226,-161,-65,72,330,-26,-109,-166,-144
-238,-182,56,210,-147,-62,67,334,-25,-102,-159,-145
-232,-179,52,205,-142,-64,66,342,-26,-93,-154,-146
-211,-176,35,193,-123,-70,58,347,-26,-86,-144,-144
-223,-169,53,196,-138,-58,64,351,-19,-81,-143,-147
-205,-167,38,185,-121,-65,91,380,-3,-78,-130,-137
-221,-165,56,193,-138,-54,87,387,7,-76,-138,-145
-257,-159,99,208,-178,-30,76,382,-25,-72,-170,-173
-239,-161,78,200,-158,-42,69,381,-55,-70,-164,-162
-218,-148,69,183,-143,-39,57,379,-55,-68,-158,-152
-244,-182,62,213,-153,-60,56,379,-55,-65,-154,-143
-257,-219,38,238,-147,-90,52,374,-55,-65,-146,-132
-227,-188,39,207,-133,-74,50,373,-55,-65,-146,-126
-249,-185,64,217,-156,-61,46,369,-54,-65,-144,-114
-240,-181,59,210,-149,-60,44,367,-57,-65,-146,-110
-226,-173,52,199,-139,-60,49,364,-51,-65,-144,-92
-220,-170,50,194,-135,-59,50,369,-73,-65,-146,-111
-225,-162,63,193,-143,-49,50,370,-87,-65,-144,-130
-193,-135,57,164,-125,-39,54,371,-80,-65,-128,-104
-175,-112,64,143,-119,-24,56,380,-62,-62,-95,-54
-199,-119,80,159,-139,-19,53,362,-56,-60,-101,-60
-141,-108,33,124,-86,-37,53,378,-77,-59,-127,-98
-154,-79,74,116,-114,-3,29,397,-53,-43,-91,-60
-167,-21,146,93,-156,62,-20,384,-48,-6,-72,-53
-162,-42,120,102,-141,39,-49,382,-60,-16,-60,-57
-144,-68,76,106,-110,4,-45,375,-85,-25,-69,-54
-121,-80,41,101,-81,-19,-19,370,-109,-14,-101,-55
-190,-150,40,169,-114,-55,6,371,-109,-64,-116,-54
-188,-154,34,170,-111,-59,18,369,-126,-102,-149,-87
-181,-196,-15,188,-83,-105,27,370,-138,-98,-151,-92
-207,-220,-13,214,-97,-116,37,371,-141,-102,-148,-95
-227,-229,-1,228,-113,-115,36,367,-139,-122,-152,-114
-239,-253,-14,246,-113,-133,33,377,-161,-127,-147,-112
-249,-241,8,245,-128,-116,31,391,-171,-121,-162,-107
-253,-234,18,243,-135,-108,26,392,-146,-121,-158,-102
-225,-239,-14,233,-105,-127,26,377,-154,-113,-112,-98
-152,-220,-68,186,-42,-144,21,470,-53,-21,-62,-62
-50,-83,-33,67,-8,-58,-16,490,122,195,113,98
42,161,120,-102,-39,141,-294,-53,-147,337,412,400
114,429,315,-272,-101,372,-819,-1016,-1040,58,538,676
64,591,527,-327,-232,558,-1213,-1822,-2047,-617,378,745
33,698,665,-366,-317,681,-1406,-2113,-2509,-1086,235,809
79,791,711,-435,-316,751,-1441,-1936,-2303,-1012,378,1006
95,817,722,-456,-314,769,-1309,-1594,-1940,-797,536,1143
48,650,602,-349,-277,626,-1131,-1302,-1738,-762,471,1073
6,457,451,-232,-223,454,-943,-960,-1408,-657,352,938
13,375,362,-194,-175,368,-722,-544,-960,-478,256,796
-68,106,173,-19,-121,139,-460,-174,-664,-399,-4,368
-158,-149,8,153,-83,-70,-163,198,-336,-252,-203,4
-169,-229,-60,199,-54,-144,50,463,-83,-103,-195,-82
-245,-306,-61,275,-91,-183,130,562,14,-40,-199,-140
-278,-327,-49,302,-114,-188,179,634,65,-14,-194,-146
-263,-311,-48,287,-108,-179,194,649,75,2,-184,-168
-281,-310,-29,295,-125,-169,195,670,132,20,-170,-178
-195,-317,-122,256,-36,-219,202,707,161,47,-157,-172
-180,-325,-145,253,-17,-235,205,732,184,88,-152,-174
-185,-296,-111,241,-37,-203,212,767,225,105,-143,-168
-178,-296,-118,237,-30,-206,223,793,261,133,-138,-172
-203,-304,-101,254,-51,-202,238,851,310,161,-130,-162
-139,-299,-160,220,11,-229,243,919,375,196,-119,-153
-174,-301,-127,238,-23,-214,287,994,466,255,-94,-143
-230,-326,-96,278,-67,-210,315,1056,533,294,-70,-136
-186,-333,-147,259,-19,-239,320,1125,618,352,-47,-132
-190,-311,-122,251,-34,-216,362,1182,692,403,-37,-124
-182,-310,-129,246,-26,-219,365,1225,759,454,-13,-122
-181,-269,-89,225,-45,-179,354,1251,817,521,38,-97
-144,-230,-86,188,-28,-158,339,1214,810,538,75,-51
-75,-193,-117,134,21,-155,298,1158,801,580,130,3
-108,-157,-48,133,-30,-102,272,1070,755,600,205,86
-53,-107,-54,81,1,-80,177,976,673,588,269,168
-72,-77,-4,75,-34,-40,91,852,559,572,296,230
-108,-60,48,83,-78,-5,71,707,394,489,285,270
-68,-47,21,57,-44,-13,35,601,241,365,233,240
-153,-86,67,119,-110,-10,29,532,117,245,132,174
-138,-83,55,110,-96,-13,28,479,9,119,39,117
-191,-122,69,156,-129,-26,41,442,-61,38,-27,65
-274,-169,106,221,-190,-32,60,428,-97,-6,-85,25
-262,-184,78,223,-170,-53,61,415,-141,-39,-102,-10
-282,-209,73,245,-177,-68,66,408,-149,-49,-116,-28
-228,-180,48,204,-138,-66,69,403,-148,-83,-155,-33
-226,-165,60,195,-143,-53,74,399,-170,-94,-162,-41
-254,-200,54,227,-154,-73,74,394,-169,-92,-163,-48
-258,-224,34,240,-146,-94,68,391,-165,-99,-168,-57
-281,-219,62,249,-171,-78,64,388,-163,-99,-169,-57
-252,-221,32,236,-142,-94,61,392,-160,-100,-172,-55
-266,-219,47,242,-157,-86,52,412,-158,-92,-174,-54
-282,-222,60,252,-171,-80,76,418,-154,-87,-178,-57
-252,-217,36,235,-144,-91,99,403,-156,-79,-180,-51
-241,-221,21,231,-131,-100,91,407,-151,-73,-183,-59
-219,-221,-2,220,-108,-111,90,444,-150,-66,-186,-85
-207,-207,1,207,-104,-103,86,448,-150,-61,-181,-80
-220,-220,-1,220,-110,-110,84,433,-145,-60,-175,-75
-268,-223,45,245,-157,-88,82,435,-145,-55,-170,-72
-279,-224,55,251,-166,-85,77,418,-145,-54,-164,-65
-244,-229,15,236,-129,-107,74,434,-145,-49,-159,-63
-272,-230,43,250,-157,-93,71,466,-145,-53,-153,-59
-238,-226,12,232,-125,-106,66,457,-142,-73,-150,-57
-209,-215,-6,212,-101,-110,65,451,-140,-78,-147,-54
-228,-208,20,217,-123,-94,59,444,-137,-81,-145,-50
-216,-199,18,207,-117,-90,58,437,-134,-85,-141,-50
-212,-190,22,201,-117,-84,52,435,-131,-89,-140,-50
-198,-185,13,191,-105,-85,50,433,-129,-90,-136,-51
-223,-165,58,194,-141,-53,76,455,-130,-83,-124,-49
-173,-126,48,149,-110,-39,82,459,-128,-83,-116,-52
-189,-89,101,139,-145,6,71,442,-131,-64,-96,-41
-219,-42,176,130,-197,66,28,434,-127,-26,-82,4
-123,3,125,60,-124,64,-14,422,-132,10,-79,33
-197,-50,147,123,-172,48,-25,413,-124,-1,-82,41
-224,-104,121,164,-172,8,-31,403,-115,-53,-109,30
-192,-123,68,157,-130,-27,-15,391,-157,-75,-125,-9
-269,-183,86,225,-177,-49,15,385,-175,-85,-153,-51
-221,-202,19,212,-120,-91,47,374,-166,-101,-169,-59
-212,-229,-16,221,-98,-123,50,370,-175,-106,-163,-62
-222,-241,-19,232,-102,-130,50,357,-202,-109,-167,-75
-167,-226,-58,197,-54,-142,50,358,-203,-113,-164,-87
-193,-226,-33,210,-80,-130,50,380,-196,-115,-165,-102
-204,-219,-15,211,-94,-117,50,384,-195,-123,-158,-94
-192,-210,-18,201,-87,-113,41,375,-158,-104,-149,-81
-128,-197,-69,162,-29,-133,29,378,-123,-55,-139,-69
-88,-155,-66,121,-10,-110,8,469,36,81,-25,12
-33,-3,30,18,-32,14,-99,279,53,306,257,238
106,313,207,-210,-51,259,-525,-509,-550,273,527,561
118,561,443,-339,-163,502,-1032,-1451,-1575,-255,505,746
41,664,624,-353,-292,644,-1312,-2021,-2377,-912,328,781
91,773,682,-432,-295,727,-1479,-2076,-2481,-1097,299,913
127,819,692,-473,-282,755,-1407,-1791,-2133,-913,462,1106
70,768,698,-419,-315,733,-1200,-1489,-1851,-793,544,1147
111,608,497,-360,-193,552,-1039,-1191,-1610,-744,411,1029
93,466,373,-280,-140,419,-843,-789,-1179,-581,365,931
29,289,260,-160,-115,274,-621,-420,-795,-424,184,642
-69,2,72,33,-71,37,-314,-53,-489,-348,-137,186
-164,-180,-15,172,-74,-97,-36,295,-166,-168,-192,-45
-151,-251,-100,201,-25,-176,110,466,-2,-44,-176,-124
-136,-254,-118,195,-9,-186,164,537,75,-26,-169,-149
-131,-252,-121,192,-4,-186,173,586,113,17,-156,-171
-163,-263,-100,213,-31,-181,181,601,138,50,-149,-179
-158,-253,-95,206,-31,-174,184,605,168,57,-127,-173
-207,-321,-114,264,-47,-218,214,651,204,84,-159,-183
-189,-323,-134,256,-28,-228,237,690,245,123,-163,-178
-111,-281,-170,196,30,-225,228,708,278,133,-145,-179
-180,-321,-141,251,-19,-231,223,747,335,153,-135,-170
-192,-321,-129,257,-32,-224,262,801,400,204,-111,-164
-125,-312,-187,219,32,-249,297,874,482,259,-95,-158
-84,-281,-197,183,57,-239,307,927,555,290,-82,-150
-80,-255,-176,168,48,-215,341,993,639,336,-73,-147
-67,-242,-176,155,55,-209,356,1052,716,375,-64,-146
-94,-264,-170,179,38,-217,385,1097,785,421,-47,-134
-130,-292,-162,211,16,-227,410,1148,865,500,-12,-118
-45,-213,-168,129,62,-190,376,1124,876,531,49,-95
-39,-168,-129,104,45,-148,330,1074,870,564,101,-54
-45,-146,-101,96,28,-123,288,1004,835,591,156,-12
28,-73,-101,23,64,-87,237,922,775,585,230,73
-6,-40,-35,23,15,-37,173,827,711,574,295,166
42,25,-17,-34,29,4,109,672,564,539,312,216
28,30,3,-29,13,17,73,548,398,451,274,216
-118,-79,39,98,-78,-20,69,464,259,295,187,157
-116,-64,52,90,-84,-6,70,389,160,196,100,101
-119,-64,55,91,-86,-5,70,344,89,114,28,50
-154,-140,14,147,-84,-62,69,311,41,42,-60,-18
-127,-149,-22,139,-53,-85,71,287,8,19,-83,-57
-124,-137,-13,131,-55,-75,62,270,-37,-22,-107,-78
-153,-137,16,144,-84,-60,57,253,-46,-47,-140,-96
-80,-126,-45,103,-17,-85,47,245,-46,-70,-134,-95
-104,-133,-29,119,-37,-81,49,244,-43,-58,-132,-85
-216,-166,50,191,-133,-58,94,245,-55,-75,-145,-100
-164,-142,22,153,-93,-60,103,242,-79,-119,-176,-130
-167,-167,0,168,-83,-84,98,234,-71,-103,-171,-128
-171,-144,27,157,-98,-58,102,227,-61,-98,-164,-122
-132,-114,18,123,-74,-48,99,220,-44,-90,-163,-120
-187,-188,-1,187,-92,-94,101,212,-23,-82,-155,-116
-165,-165,0,164,-82,-82,99,205,-20,-77,-154,-110
-156,-156,0,156,-78,-78,100,200,-31,-71,-147,-128
-199,-164,35,181,-117,-64,100,196,-20,-67,-143,-148
-160,-152,8,156,-83,-72,100,193,2,-60,-139,-139
-165,-159,6,162,-85,-76,100,189,7,-55,-134,-138
-132,-152,-20,142,-56,-85,96,186,9,-50,-130,-133
-112,-151,-39,132,-36,-95,90,181,28,-45,-135,-130
-132,-135,-3,133,-64,-69,85,166,41,-41,-135,-127
-111,-128,-17,119,-47,-72,80,153,34,-37,-136,-124
-126,-96,29,111,-77,-33,73,143,27,-30,-140,-125
-135,-100,35,117,-85,-32,71,135,20,-41,-140,-120
-169,-155,14,161,-91,-70,75,130,13,-52,-138,-120
-136,-139,-3,138,-66,-70,75,119,5,-50,-131,-119
-110,-143,-33,127,-38,-87,75,116,13,-47,-124,-112
-92,-121,-30,107,-31,-75,75,104,18,-46,-118,-106
-118,-89,29,104,-74,-30,75,107,31,-44,-110,-99
-169,-110,59,139,-114,-25,79,94,33,-42,-102,-93
-114,-70,44,91,-78,-13,85,102,44,-27,-87,-86
-125,-52,74,88,-99,11,91,124,67,-22,-83,-81
-87,0,87,43,-87,43,48,90,54,-6,-85,-71
-64,42,105,11,-85,73,-7,67,80,35,-86,-62
-73,12,85,30,-80,48,-10,39,58,4,-85,-56
-36,9,45,14,-41,27,1,24,21,-36,-85,-40
-85,-51,34,68,-60,-8,18,24,24,-47,-97,-65
-188,-129,59,158,-123,-35,54,13,-18,-66,-115,-114
-197,-132,65,164,-131,-33,72,8,-45,-93,-144,-147
-114,-134,-20,124,-46,-77,72,3,-44,-107,-150,-153
-146,-159,-13,153,-66,-86,78,-3,-46,-105,-151,-151
-199,-150,48,174,-123,-51,80,-4,-36,-103,-147,-139
-154,-151,3,152,-79,-73,85,-14,-48,-110,-155,-148
-95,-143,-47,119,-24,-95,81,-37,-59,-134,-175,-170
-99,-128,-29,113,-35,-78,50,-33,-32,-107,-152,-146
-187,-129,58,158,-122,-35,43,0,7,-68,-122,-129
-139,-96,43,117,-90,-27,27,109,147,52,-23,-67
2,34,31,-18,-15,33,-56,-14,209,279,220,126
125,310,184,-218,-30,246,-429,-741,-300,267,477,418
153,547,394,-350,-121,470,-963,-1713,-1312,-198,483,617
107,662,555,-385,-224,609,-1274,-2349,-2171,-859,313,665
172,762,590,-467,-210,676,-1459,-2464,-2368,-1110,282,773
148,802,654,-475,-253,728,-1413,-2173,-2017,-880,451,971
133,770,637,-452,-252,703,-1217,-1854,-1708,-755,563,1064
138,637,500,-387,-181,568,-1043,-1575,-1481,-740,453,978
104,508,405,-306,-150,456,-840,-1198,-1098,-559,388,875
96,392,296,-244,-100,344,-642,-826,-712,-396,262,644
-36,109,145,-37,-91,127,-357,-443,-394,-343,-52,186
-86,-86,0,85,-42,-43,-73,-89,-88,-211,-160,-92
-91,-177,-86,134,-2,-132,112,125,124,-56,-137,-169
-129,-229,-100,179,-14,-164,161,193,191,-20,-149,-219
-140,-231,-92,186,-24,-161,166,220,223,-13,-136,-214
-190,-286,-96,238,-46,-191,208,255,254,15,-143,-220
-176,-284,-108,230,-33,-196,218,278,285,51,-136,-223
-183,-271,-87,227,-48,-179,205,307,314,68,-128,-225
-153,-266,-113,210,-20,-189,202,328,347,84,-118,-224
-85,-257,-171,171,43,-214,248,385,403,126,-107,-218
-65,-221,-156,143,46,-189,271,432,455,155,-96,-218
-84,-232,-147,158,32,-189,269,467,512,181,-83,-213
-128,-267,-139,198,5,-203,295,557,591,228,-73,-211
-107,-236,-130,172,12,-183,326,631,670,276,-58,-210
-105,-236,-131,171,13,-183,357,697,744,321,-50,-203
-90,-228,-137,159,24,-182,365,766,826,372,-19,-196
-40,-186,-146,113,53,-166,385,816,897,417,10,-187
-40,-174,-134,108,47,-154,409,841,951,465,25,-180
-44,-170,-126,108,41,-148,393,829,962,505,64,-167
-17,-136,-119,77,51,-127,357,812,954,527,106,-117
17,-92,-109,38,63,-100,320,743,935,566,171,-59
51,-49,-100,-1,76,-75,278,650,904,597,250,18
41,-17,-58,-11,49,-37,194,527,820,600,315,103
65,30,-36,-47,50,-3,118,369,679,545,326,158
105,88,-17,-96,60,35,95,247,541,424,284,163
20,51,32,-36,-7,42,85,131,370,318,234,118
-20,2,22,8,-21,12,82,65,253,203,147,54
-41,-13,28,27,-34,7,76,41,191,98,44,-22
-124,-72,52,98,-88,-10,69,3,132,31,-21,-71
-82,-55,26,68,-53,-15,66,-29,97,-7,-42,-101
-79,-94,-15,86,-31,-54,58,-44,79,-33,-61,-127
-161,-169,-8,165,-76,-88,62,-46,75,-60,-79,-126
-136,-131,5,133,-70,-63,56,-59,67,-77,-97,-134
-181,-138,44,159,-112,-47,74,-59,59,-79,-100,-132
-173,-140,33,157,-103,-54,111,-71,52,-89,-110,-139
-150,-144,7,147,-78,-68,110,-120,49,-120,-159,-185
-199,-152,47,175,-123,-52,109,-117,49,-90,-163,-190
-130,-136,-6,133,-62,-70,111,-98,60,-94,-152,-182
-183,-167,17,175,-100,-74,109,-89,72,-122,-152,-182
-195,-164,32,179,-113,-66,113,-81,66,-93,-142,-175
-154,-148,6,151,-80,-71,115,-88,64,-84,-140,-175
-126,-143,-17,135,-54,-79,119,-88,63,-86,-132,-168
-82,-131,-49,107,-17,-90,121,-92,55,-82,-125,-171
-147,-133,14,140,-81,-59,124,-95,86,-80,-122,-159
-57,-108,-51,83,-3,-79,125,-94,114,-80,-106,-171
-41,-143,-102,93,30,-122,119,-90,108,-77,-128,-196
-137,-161,-24,149,-56,-93,113,-90,111,-74,-138,-185
-113,-128,-14,121,-49,-71,105,-90,109,-75,-109,-179
-115,-125,-10,121,-53,-67,100,-90,110,-70,-110,-173
-113,-121,-8,117,-52,-64,92,-90,107,-70,-110,-165
-91,-113,-22,102,-34,-68,88,-93,101,-70,-105,-162
-88,-108,-20,98,-33,-64,83,-105,97,-69,-105,-158
-60,-106,-46,83,-7,-76,76,-106,91,-71,-105,-156
-9,-63,-53,37,22,-58,75,-125,89,-67,-93,-153
-63,-117,-54,90,-4,-85,66,-148,80,-82,-109,-150
-104,-153,-49,129,-27,-101,69,-143,84,-75,-104,-149
-49,-82,-32,66,-8,-57,48,-147,69,-48,-70,-144
-78,-57,21,67,-49,-18,65,-150,93,-52,-99,-141
-74,-27,46,51,-60,9,116,-149,158,-48,-105,-137
-51,-13,38,32,-45,12,77,-145,149,-46,-96,-134
-50,31,80,9,-65,55,33,-146,135,-44,-95,-130
-11,59,71,-24,-41,65,15,-171,126,-45,-87,-130
-29,27,55,1,-42,41,15,-191,107,-45,-87,-132
-49,-24,25,37,-37,1,21,-201,84,-48,-86,-127
-78,-74,4,76,-40,-35,21,-201,57,-86,-106,-142
-109,-117,-7,113,-51,-62,52,-195,49,-89,-115,-154
-90,-147,-57,119,-16,-102,68,-219,48,-102,-126,-167
-47,-145,-98,96,26,-122,63,-241,44,-121,-147,-183
-46,-146,-100,96,27,-123,62,-261,41,-134,-156,-198
-83,-125,-43,104,-20,-84,57,-281,40,-134,-144,-194
-105,-152,-47,128,-29,-99,56,-268,34,-110,-128,-163
-89,-180,-90,135,1,-135,53,-249,33,-121,-133,-164
-65,-159,-94,112,15,-126,43,-275,17,-114,-125,-155
-61,-142,-81,102,10,-111,29,-204,114,-40,-69,-124
38,-70,-107,16,73,-89,7,-132,288,147,77,-33
160,149,-11,-155,85,69,-185,-553,114,301,348,216
227,458,231,-343,-2,344,-686,-1488,-679,75,508,498
231,621,389,-426,-79,505,-1141,-2375,-1714,-551,378,596
201,690,488,-446,-144,589,-1366,-2767,-2274,-1071,251,647
285,803,518,-544,-117,660,-1448,-2653,-2136,-1029,338,813
328,834,506,-581,-89,670,-1321,-2305,-1745,-790,539,998
267,736,469,-502,-101,602,-1149,-2017,-1523,-768,553,1010
237,614,377,-426,-70,495,-976,-1697,-1246,-646,425,875
201,491,290,-346,-45,390,-763,-1303,-819,-451,364,744
148,306,158,-228,-5,232,-522,-937,-498,-397,112,397
101,52,-48,-76,74,2,-203,-536,-184,-294,-146,-9
-6,-163,-157,85,76,-160,40,-238,93,-144,-152,-170
-37,-184,-147,110,55,-165,140,-105,217,-60,-143,-220
-52,-189,-137,121,43,-163,178,-54,273,-31,-139,-236
-64,-238,-174,151,56,-206,195,-19,297,-15,-129,-255
-28,-219,-191,123,82,-204,204,23,341,16,-127,-257
-62,-217,-155,140,47,-186,195,44,357,37,-116,-252
-43,-192,-150,118,54,-171,212,89,379,65,-110,-252
-29,-209,-181,119,76,-195,248,141,426,92,-99,-248
-35,-236,-201,136,83,-218,254,182,456,119,-92,-254
-33,-215,-182,124,75,-198,265,249,522,164,-83,-254
10,-203,-212,97,111,-207,275,307,573,185,-75,-256
43,-199,-242,78,142,-220,301,379,646,225,-66,-258
-1,-229,-228,115,113,-228,328,459,728,283,-58,-262
22,-201,-222,90,122,-211,339,521,796,324,-44,-259
34,-174,-208,70,122,-191,365,596,882,370,-18,-253
-7,-211,-204,109,99,-207,365,654,947,417,9,-232
18,-178,-197,80,108,-188,352,654,981,462,43,-203
69,-124,-193,28,131,-158,349,631,988,500,87,-159
106,-81,-187,-13,147,-134,335,587,983,536,137,-112
146,-33,-179,-56,163,-106,292,528,954,557,196,-67
166,-3,-169,-81,168,-86,221,434,893,557,264,33
162,46,-116,-104,139,-35,140,291,772,534,304,94
158,73,-85,-115,121,-6,83,177,638,492,334,128
170,84,-85,-127,127,-1,57,63,502,392,291,143
169,82,-87,-125,128,-3,54,-53,351,241,173,68
116,26,-89,-71,102,-31,60,-113,243,129,92,0
78,-23,-100,-27,89,-61,61,-137,183,57,20,-56
54,-40,-94,-7,74,-66,67,-152,141,11,-30,-98
-6,-67,-61,37,28,-63,70,-180,96,-34,-69,-133
-44,-76,-32,60,-5,-54,73,-192,71,-72,-111,-149
-42,-77,-35,60,-3,-56,79,-185,52,-66,-100,-142
-28,-111,-83,70,28,-97,78,-192,72,-85,-114,-152
-63,-117,-53,90,-5,-85,94,-174,89,-122,-152,-133
-83,-114,-30,99,-26,-72,101,-155,82,-115,-142,-156
-60,-116,-55,88,-2,-85,96,-162,86,-110,-135,-182
-28,-114,-87,71,30,-100,95,-163,84,-107,-131,-171
-9,-114,-105,62,48,-109,89,-166,85,-100,-119,-177
1,-109,-111,54,56,-110,91,-164,85,-99,-132,-173
-10,-108,-99,59,45,-103,81,-161,84,-90,-139,-176
-43,-104,-61,74,10,-82,108,-160,85,-85,-136,-180
-58,-103,-45,81,-7,-73,139,-160,85,-78,-128,-179
-43,-98,-55,71,6,-76,135,-160,85,-70,-128,-182
-19,-99,-80,59,31,-89,142,-160,83,-67,-113,-184
-16,-71,-56,44,20,-63,141,-158,77,-60,-97,-186
65,-63,-128,-1,97,-95,149,-152,102,-77,-138,-182
-19,-126,-108,73,45,-117,125,-147,111,-93,-152,-180
-87,-113,-27,100,-30,-70,78,-143,70,-89,-143,-180
5,-86,-92,40,48,-89,68,-140,51,-89,-142,-180
5,-89,-95,42,50,-92,71,-131,58,-91,-137,-180
84,-29,-113,-27,98,-70,94,-141,75,-88,-134,-180
36,-59,-95,12,65,-77,103,-161,65,-86,-129,-185
-76,-103,-27,89,-24,-64,84,-138,45,-77,-116,-184
-13,-64,-51,39,19,-57,84,-132,53,-72,-110,-186
-21,-80,-59,51,19,-69,68,-163,49,-96,-141,-177
-17,-41,-24,29,4,-32,65,-143,48,-66,-111,-130
39,48,9,-43,15,29,97,-110,95,-36,-79,-108
69,36,-34,-53,51,1,88,-88,112,-37,-74,-104
75,22,-53,-49,64,-15,58,-104,91,-30,-62,-99
58,98,40,-78,9,68,27,-134,85,-27,-52,-93
107,139,32,-123,37,86,19,-128,67,-8,-37,-88
87,92,5,-89,41,48,31,-127,50,-28,-69,-83
104,59,-46,-81,75,6,35,-124,23,-63,-92,-74
32,-12,-45,-10,38,-28,43,-124,3,-84,-115,-112
-74,-111,-37,93,-18,-74,49,-122,-20,-88,-135,-136
-4,-85,-81,44,39,-82,46,-114,-60,-99,-146,-133
5,-50,-56,23,31,-53,39,-107,-63,-122,-158,-139
-8,-102,-94,56,43,-98,70,-102,-58,-119,-154,-143
-50,-125,-75,87,13,-100,80,-93,-44,-120,-154,-144
-34,-106,-72,70,20,-89,69,-91,-62,-120,-159,-144
-28,-103,-75,66,24,-89,67,-79,-87,-120,-162,-154
-1,-76,-75,39,37,-75,58,-82,-70,-113,-130,-116
65,-29,-95,-18,80,-62,58,-33,20,-36,-85,-73
89,31,-58,-60,73,-14,23,31,195,170,72,29
239,242,2,-241,118,122,-220,-385,19,354,389,315
339,532,194,-436,72,363,-736,-1336,-796,133,541,608
293,719,426,-506,-67,573,-1158,-2201,-1834,-520,408,704
256,817,561,-537,-152,689,-1380,-2568,-2400,-1038,291,754
291,921,630,-606,-170,775,-1474,-2440,-2249,-982,379,929
285,949,663,-617,-190,806,-1319,-2067,-1857,-726,556,1115
276,811,535,-544,-130,673,-1123,-1768,-1641,-710,526,1095
275,682,407,-479,-66,544,-938,-1427,-1345,-630,402,956
221,544,323,-383,-51,433,-709,-1008,-920,-447,316,804
203,304,101,-253,50,202,-466,-646,-618,-401,34,412
128,75,-54,-101,91,10,-163,-241,-291,-270,-178,40
32,-71,-103,20,68,-87,46,37,-38,-107,-171,-93
-14,-108,-94,61,40,-101,156,161,72,-40,-177,-140
13,-120,-133,54,73,-126,216,239,131,16,-175,-139
10,-144,-154,67,82,-149,209,251,127,37,-174,-150
-33,-130,-97,82,32,-113,217,286,165,55,-177,-171
2,-138,-140,68,71,-139,219,336,208,81,-152,-164
-26,-183,-156,105,65,-169,221,355,218,96,-124,-129
-35,-186,-151,111,59,-169,247,397,253,114,-113,-128
-10,-178,-168,94,79,-173,262,455,306,153,-108,-124
-18,-179,-161,99,72,-170,270,510,358,184,-101,-120
0,-174,-174,87,88,-174,305,580,425,227,-88,-118
21,-174,-195,77,108,-184,320,644,492,273,-71,-111
22,-162,-185,70,104,-174,328,722,569,308,-53,-122
16,-155,-172,70,94,-163,374,803,663,377,-34,-99
23,-147,-169,62,96,-158,382,859,732,418,-20,-97
48,-117,-165,35,106,-140,369,898,797,467,4,-86
85,-78,-163,-3,124,-120,366,908,831,514,25,-63
99,-57,-156,-21,128,-106,357,884,850,552,75,-55
127,-30,-158,-48,143,-94,342,840,850,619,154,17
167,12,-156,-90,161,-72,298,769,800,635,212,108
213,45,-168,-129,190,-61,227,663,726,633,284,172
251,126,-125,-188,188,0,156,536,603,605,328,254
216,167,-49,-191,133,58,108,411,465,521,308,299
179,153,-25,-166,102,64,92,297,297,413,268,261
160,155,-5,-157,83,74,91,221,150,282,179,200
89,96,7,-93,41,51,87,177,57,143,61,135
47,45,-2,-46,25,21,83,146,-21,60,-11,77
49,23,-25,-36,37,-1,80,133,-63,20,-54,44
16,4,-12,-10,13,-4,83,116,-88,-8,-74,32
17,1,-16,-9,17,-7,86,109,-106,-22,-85,21
-8,-9,-1,8,-3,-4,88,103,-123,-45,-96,9
-37,-13,23,25,-30,5,92,94,-136,-65,-111,-5
15,-22,-36,4,26,-29,95,89,-156,-83,-137,-23
-38,-43,-6,41,-16,-24,92,77,-158,-84,-141,-35
-45,-51,-6,48,-19,-28,96,87,-149,-78,-139,-40
-40,-45,-5,43,-18,-25,126,127,-146,-77,-145,-46
-66,-40,27,53,-46,-6,127,138,-138,-71,-145,-49
4,-35,-39,15,21,-36,112,126,-134,-69,-144,-45
-28,-28,0,28,-14,-14,146,170,-130,-65,-139,-46
-32,-26,6,29,-19,-10,143,202,-131,-61,-136,-43
-42,-53,-11,48,-15,-32,115,188,-130,-58,-133,-39
-87,-64,24,75,-55,-19,121,191,-130,-53,-128,-41
-49,-58,-9,53,-20,-33,115,185,-130,-50,-126,-36
-52,-51,1,52,-27,-24,111,183,-130,-54,-121,-30
-32,-44,-12,38,-10,-28,113,182,-130,-55,-118,-25
-13,-38,-26,26,7,-32,98,166,-131,-55,-114,-20
-21,-29,-8,25,-6,-18,113,199,-151,-60,-111,-13
4,-31,-35,13,20,-32,131,228,-157,-60,-106,-12
21,-6,-26,-7,23,-16,116,216,-154,-59,-102,-22
-33,-36,-2,35,-16,-19,105,215,-152,-53,-130,-36
-90,-71,19,80,-54,-26,95,209,-149,-46,-136,-35
-42,-46,-4,44,-19,-25,118,206,-150,-39,-120,-27
-34,-38,-4,36,-15,-21,134,209,-143,-33,-114,-19
-14,-6,8,9,-11,2,129,233,-135,-26,-102,-11
2,40,39,-21,-19,39,131,261,-130,-19,-93,-5
13,79,66,-46,-27,73,131,262,-120,-12,-81,13
40,77,36,-59,2,56,99,265,-120,-6,-67,21
-6,118,125,-56,-66,121,64,269,-118,1,-54,45
95,177,82,-136,6,129,66,270,-120,8,-56,63
116,150,34,-133,41,92,65,273,-119,7,-66,59
21,96,75,-59,-27,86,66,275,-120,-2,-72,58
14,18,4,-16,5,11,64,279,-165,-41,-90,20
-44,-28,16,36,-30,-6,85,281,-175,-69,-117,-11
13,-30,-44,9,29,-37,103,283,-175,-74,-136,-14
-26,-48,-22,37,-2,-35,98,287,-190,-75,-125,-24
-71,-90,-19,80,-25,-55,101,286,-194,-86,-127,-28
42,-83,-126,21,84,-104,99,295,-212,-107,-155,-37
-23,-47,-24,35,0,-35,100,290,-202,-102,-153,-38
-33,-40,-7,37,-13,-23,95,303,-179,-81,-136,-26
-26,-66,-40,47,7,-53,87,291,-183,-74,-134,-11
12,-42,-54,15,33,-48,80,326,-121,-35,-102,7
89,14,-76,-51,82,-31,76,436,50,129,36,80
172,185,13,-178,79,99,-84,151,-13,343,329,330
312,541,228,-427,42,384,-545,-679,-678,267,588,663
299,759,461,-529,-81,610,-1016,-1587,-1716,-300,529,824
233,857,624,-546,-196,740,-1291,-2104,-2465,-949,329,862
271,977,706,-625,-218,841,-1411,-2098,-2505,-1088,327,977
357,1044,687,-701,-166,865,-1325,-1770,-2122,-849,510,1156
279,940,661,-609,-192,800,-1144,-1461,-1844,-771,552,1203
198,710,512,-454,-157,610,-941,-1142,-1575,-703,424,1074
233,565,331,-399,-49,448,-737,-738,-1148,-494,357,926
221,405,183,-313,19,294,-531,-361,-788,-394,155,599
86,144,58,-116,14,101,-201,43,-452,-283,-104,176
9,-20,-29,6,19,-25,62,355,-159,-111,-138,-8
9,-76,-85,34,47,-80,174,519,-20,-14,-122,-90
-51,-125,-74,88,12,-99,239,595,36,28,-123,-114
-19,-132,-113,75,47,-122,246,617,67,68,-108,-97
-10,-141,-131,75,61,-135,242,640,98,73,-111,-101
-61,-160,-100,110,19,-130,242,672,125,89,-94,-86
-36,-157,-121,96,43,-139,235,721,176,125,-93,-101
-17,-153,-136,86,60,-144,273,752,220,136,-115,-125
-11,-149,-138,81,63,-143,307,781,250,166,-92,-104
6,-147,-154,71,80,-150,299,831,308,200,-72,-97
-7,-138,-131,73,62,-134,316,891,373,236,-69,-125
1,-160,-161,80,81,-161,326,948,436,267,-57,-128
-12,-165,-153,89,71,-158,369,1038,531,331,-52,-121
43,-132,-174,45,109,-153,415,1104,601,379,-43,-117
63,-130,-192,34,128,-161,422,1152,682,427,-17,-109
29,-121,-150,46,90,-135,448,1227,774,498,11,-107
61,-112,-173,26,117,-142,442,1234,811,534,47,-76
45,-72,-117,14,82,-95,428,1210,820,581,94,-36
128,-2,-129,-63,129,-65,421,1162,825,614,143,2
163,21,-141,-92,152,-59,371,1122,813,650,223,72
145,60,-85,-102,115,-12,296,1047,750,660,295,156
213,125,-88,-168,150,18,225,893,634,633,316,220
234,172,-62,-203,148,54,165,788,480,575,344,264
192,172,-20,-182,106,76,126,659,339,468,319,268
153,123,-30,-138,91,47,110,529,196,331,199,196
125,76,-48,-100,87,14,111,492,96,225,112,123
67,34,-33,-50,50,1,120,466,30,147,43,84
48,21,-26,-34,37,-2,122,455,-30,81,-19,32
19,13,-5,-16,12,4,134,442,-69,34,-56,2
3,27,24,-15,-11,25,154,428,-74,5,-77,-9
26,20,-7,-23,16,6,156,411,-83,-5,-83,-24
-11,-28,-17,20,3,-23,154,391,-119,-33,-92,-30
-74,-42,32,58,-53,-5,151,425,-113,-47,-97,-37
-31,-39,-8,36,-12,-23,149,441,-103,-45,-112,-45
33,5,-28,-19,30,-11,152,428,-97,-44,-119,-51
-24,-18,5,21,-14,-7,154,427,-88,-42,-116,-62
-26,-35,-8,31,-9,-21,156,418,-85,-37,-106,-55
-82,-26,56,54,-68,15,154,415,-79,-51,-124,-74
-97,-64,33,80,-64,-15,156,420,-74,-54,-133,-87
-4,-30,-26,17,11,-28,154,423,-71,-23,-105,-67
-67,-22,45,44,-56,11,152,429,-64,-14,-93,-62
8,-28,-36,10,23,-32,150,433,-64,-6,-97,-71
40,-25,-65,-7,53,-45,148,437,-84,-17,-129,-100
-50,-33,17,42,-34,-8,174,461,-79,-33,-128,-98
22,-28,-50,3,36,-39,178,457,-63,-25,-112,-83
25,-28,-53,2,39,-40,162,437,-61,-22,-107,-77
4,-22,-26,9,15,-23,153,429,-55,-16,-97,-68
13,-20,-33,4,23,-26,144,419,-53,-9,-95,-67
3,-15,-18,6,11,-17,145,415,-49,-7,-89,-62
15,-12,-27,-1,21,-20,139,403,-43,-8,-85,-58
1,-8,-10,4,5,-9,140,402,-47,-15,-81,-56
12,-13,-25,1,18,-18,132,388,-42,-15,-76,-50
63,1,-62,-32,62,-30,136,383,-49,-22,-75,-51
85,-7,-92,-39,89,-49,126,363,-40,-23,-72,-47
33,-25,-58,-4,46,-41,130,357,-58,-24,-70,-46
-4,18,21,-7,-13,19,119,388,-45,0,-69,-42
