I,II,III,aVR,aVL,aVF,V1,V2,V3,V4,V5,V6
6,346,340,-176,-168,342,33,-145,-170,0,35,90
2,340,338,-171,-168,338,47,-145,-170,0,35,90
13,344,330,-179,-159,337,41,-141,-170,0,35,90
28,353,324,-191,-149,338,37,-140,-170,0,31,86
0,316,317,-158,-159,316,32,-135,-169,0,29,84
5,323,318,-164,-157,320,28,-136,-171,-1,31,86
4,324,320,-164,-158,322,23,-138,-168,-4,35,89
-5,315,320,-155,-163,318,20,-144,-181,-5,35,90
-9,315,324,-153,-167,319,16,-163,-197,-5,36,90
-18,307,325,-145,-172,316,12,-166,-199,-5,40,90
-18,305,323,-144,-171,314,9,-164,-200,-4,40,90
-13,300,313,-144,-163,306,4,-166,-200,-8,38,88
-3,296,299,-147,-151,297,13,-164,-200,-17,31,83
2,294,292,-148,-145,293,17,-167,-200,-20,26,80
2,289,286,-146,-142,287,12,-170,-200,-20,21,77
1,286,285,-144,-143,285,9,-167,-199,-20,15,72
3,282,280,-142,-139,281,6,-159,-194,-20,11,69
0,277,277,-139,-139,277,1,-155,-189,-20,15,65
1,274,273,-138,-136,274,0,-149,-184,-13,22,65
-1,265,266,-132,-134,265,11,-143,-180,-4,29,65
7,296,289,-152,-141,292,15,-139,-174,4,36,67
12,335,324,-174,-156,329,33,-132,-179,15,46,89
-1,345,347,-172,-174,346,30,-131,-180,26,52,103
19,358,339,-188,-161,348,-11,-121,-180,21,45,96
36,379,343,-207,-154,361,-44,-145,-186,13,44,95
36,360,325,-198,-145,342,-57,-182,-183,9,39,90
26,302,276,-164,-125,288,-42,-179,-189,-2,35,86
2,271,269,-137,-134,270,-33,-181,-188,-1,30,84
-34,234,269,-100,-152,251,-9,-186,-220,-29,-8,69
-61,212,273,-76,-167,242,23,-185,-228,-45,-18,58
-66,199,265,-67,-166,232,27,-182,-231,-54,-23,43
-68,208,277,-70,-173,242,17,-177,-231,-47,-18,41
-64,192,256,-65,-160,224,24,-168,-224,-50,-27,31
-74,201,275,-64,-175,238,9,-169,-243,-54,-25,27
-52,191,244,-70,-149,218,26,-129,-201,-50,-26,16
-38,92,130,-28,-84,110,162,195,-211,-132,-114,-64
70,151,81,-111,-6,116,203,440,25,29,-6,-2
224,667,443,-446,-110,555,-131,-353,314,527,497,449
99,1352,1253,-726,-577,1302,-541,-1543,408,1105,1092,980
-222,895,1117,-337,-670,1006,-662,-2001,-152,576,618,620
-350,142,492,104,-421,317,-649,-1599,-916,-446,-233,-52
-205,228,433,-12,-319,330,-358,-722,-555,-271,-143,-36
-103,244,348,-71,-226,295,-55,-260,-221,-62,-29,18
-54,215,269,-81,-162,242,-3,-154,-224,-91,-32,4
-19,216,234,-99,-127,225,45,-90,-151,-32,-1,33
-27,183,210,-78,-118,196,39,-93,-185,-59,-27,17
-19,196,215,-88,-117,205,39,-71,-147,-22,-1,31
-21,176,197,-78,-109,186,42,-72,-154,-33,-17,21
-15,183,198,-84,-107,190,37,-55,-131,-15,-5,27
-13,172,185,-80,-99,178,43,-44,-119,-10,-4,25
-12,169,181,-79,-97,175,31,-30,-106,-7,2,30
10,183,172,-97,-81,177,24,-4,-84,11,9,35
33,198,165,-116,-66,181,14,14,-71,33,12,37
46,207,160,-127,-57,183,5,27,-48,44,20,42
64,210,147,-137,-42,178,-4,33,-30,55,30,39
64,220,156,-142,-46,188,-16,67,20,92,59,59
74,237,163,-156,-45,200,-25,100,64,125,87,83
110,254,144,-182,-17,199,-40,139,124,167,119,104
151,288,138,-219,6,212,-75,184,206,224,166,146
193,329,137,-261,28,233,-118,204,274,280,206,179
234,365,131,-300,51,248,-148,219,336,339,250,213
268,398,131,-333,68,264,-173,222,376,390,292,253
254,396,142,-325,56,269,-194,216,400,410,320,277
242,411,168,-327,37,289,-189,189,396,399,328,291
223,427,204,-325,10,315,-164,141,319,354,286,255
148,371,223,-260,-37,297,-116,86,196,271,219,188
78,302,224,-190,-73,262,-68,34,81,172,146,135
21,240,219,-131,-99,229,-38,-11,-11,96,76,87
-18,196,214,-90,-116,205,-19,-64,-87,43,28,45
-41,169,210,-64,-126,190,-13,-100,-141,5,-6,14
-49,156,205,-54,-127,180,-6,-108,-167,-9,-28,3
-48,153,202,-53,-125,177,1,-115,-174,-15,-38,1
-52,146,197,-47,-125,171,8,-118,-177,-27,-44,-3
-53,141,194,-45,-124,167,14,-113,-181,-31,-49,-6
-51,140,191,-45,-121,165,19,-107,-180,-39,-50,-10
-48,138,186,-46,-117,162,20,-102,-180,-51,-51,-13
-58,126,184,-34,-121,154,20,-96,-180,-50,-54,-18
-68,110,179,-21,-124,145,25,-91,-180,-50,-56,-21
-68,105,173,-19,-121,139,25,-93,-179,-51,-54,-25
-65,105,170,-20,-118,137,24,-96,-174,-49,-50,-25
-59,105,164,-23,-112,134,19,-95,-176,-53,-50,-28
-56,105,162,-25,-109,133,13,-95,-173,-56,-48,-31
-50,104,154,-27,-102,129,10,-95,-169,-55,-45,-30
-41,105,147,-32,-95,126,5,-95,-171,-56,-45,-34
-41,96,137,-28,-88,116,1,-94,-168,-53,-49,-35
-29,100,129,-36,-79,114,-7,-102,-182,-57,-61,-38
-33,115,148,-42,-91,131,-19,-116,-199,-66,-65,-40
-36,108,144,-37,-90,126,-20,-124,-203,-65,-65,-41
-24,104,128,-41,-76,116,-20,-127,-209,-65,-65,-45
-25,100,125,-38,-75,112,-21,-132,-210,-65,-65,-45
-25,95,120,-35,-73,107,-19,-135,-210,-65,-65,-45
-26,92,118,-33,-72,104,-22,-135,-210,-64,-61,-45
-26,87,113,-31,-70,100,-25,-137,-210,-68,-60,-45
-26,84,110,-29,-69,97,-25,-140,-209,-80,-60,-49
-25,81,106,-28,-66,93,-25,-140,-205,-80,-60,-50
-23,77,100,-27,-62,88,-25,-136,-205,-80,-60,-50
-22,73,95,-26,-59,83,-25,-135,-205,-80,-59,-50
-26,64,90,-19,-58,77,-20,-132,-205,-80,-53,-51
-34,47,81,-6,-58,63,-13,-129,-206,-79,-48,-49
-23,64,87,-21,-55,75,-2,-128,-198,-70,-41,-41
-8,96,104,-44,-56,100,1,-104,-182,-59,-35,-29
-5,119,124,-58,-64,121,21,-92,-171,-52,-47,-22
-9,147,156,-69,-83,151,20,-99,-151,-49,-33,-18
-2,159,161,-78,-82,159,-31,-102,-143,-51,-17,-17
3,161,158,-82,-78,159,-66,-105,-149,-50,-7,-13
10,145,135,-78,-63,139,-80,-99,-149,-49,-4,-9
29,131,102,-80,-37,116,-83,-101,-168,-53,-34,-12
13,100,87,-57,-37,94,-50,-100,-167,-56,-43,-14
-23,57,80,-17,-52,69,-26,-99,-195,-84,-66,-43
-31,48,79,-9,-55,63,-28,-109,-209,-87,-80,-54
-38,29,66,4,-52,47,-21,-120,-211,-95,-89,-62
-43,29,72,7,-57,50,-21,-115,-200,-85,-85,-68
-47,4,51,21,-49,28,-12,-101,-196,-93,-97,-72
-69,15,84,27,-77,49,-10,-112,-198,-90,-96,-62
-49,-21,28,35,-39,3,30,-39,-172,-96,-100,-73
-25,-111,-85,68,30,-98,148,301,-191,-173,-188,-162
106,3,-103,-55,104,-49,155,471,95,33,-49,-61
244,606,362,-425,-59,483,-215,-382,413,586,525,444
75,1213,1138,-644,-532,1175,-583,-1457,459,1114,1049,907
-250,613,863,-182,-557,738,-622,-1781,-224,408,421,426
-354,-28,326,191,-341,149,-605,-1381,-895,-523,-351,-192
-182,92,274,45,-228,183,-336,-569,-443,-258,-181,-113
-100,53,153,24,-127,103,-59,-174,-174,-111,-112,-75
-85,28,114,28,-100,71,-29,-70,-172,-109,-124,-85
-40,30,70,5,-56,50,9,-10,-97,-62,-91,-64
-61,8,68,26,-65,38,19,-8,-122,-91,-104,-74
-39,21,60,9,-49,40,36,26,-86,-54,-77,-55
-17,40,56,-11,-37,48,41,23,-98,-70,-88,-61
-5,52,56,-24,-31,53,38,42,-76,-49,-71,-49
-8,28,36,-11,-22,32,45,41,-71,-51,-72,-49
-26,31,57,-3,-41,44,43,44,-54,-38,-64,-43
-8,38,46,-15,-27,42,47,45,-29,-30,-54,-36
5,53,48,-29,-21,50,39,64,-1,-22,-40,-27
4,48,44,-26,-20,46,33,89,25,-2,-27,-18
25,70,45,-48,-10,57,26,102,43,17,-21,-8
37,78,41,-57,-2,59,18,132,93,55,-1,14
42,80,38,-61,2,58,-1,159,137,87,31,28
88,121,34,-105,27,77,-35,191,196,127,61,51
107,138,31,-123,38,85,-52,225,275,187,104,92
155,181,26,-168,64,103,-60,258,349,251,166,137
198,217,19,-208,89,118,-84,267,417,306,208,174
190,244,53,-217,68,148,-125,255,454,349,240,205
206,278,73,-242,66,175,-140,243,463,374,267,223
219,297,78,-258,70,187,-126,223,456,368,270,223
184,285,101,-235,41,193,-109,177,379,315,228,195
103,237,134,-171,-16,185,-76,119,258,223,158,135
55,203,148,-130,-47,175,-35,81,146,128,83,78
11,158,147,-84,-68,152,-2,32,36,41,13,27
-35,116,151,-41,-93,134,11,-17,-44,-26,-35,-16
-73,69,142,2,-108,105,26,-51,-92,-67,-75,-47
-100,32,132,34,-117,82,44,-62,-110,-89,-90,-63
-89,34,123,27,-106,78,45,-59,-122,-102,-96,-66
-90,29,119,31,-105,74,34,-69,-135,-112,-111,-78
-97,24,121,37,-109,72,43,-69,-135,-115,-114,-81
-99,17,116,40,-108,67,56,-62,-133,-115,-118,-75
-101,14,115,43,-108,64,54,-57,-130,-109,-123,-73
-119,-4,115,61,-117,55,55,-51,-127,-118,-125,-68
-117,-8,109,62,-113,50,55,-47,-124,-126,-125,-64
-101,2,103,49,-102,52,55,-44,-129,-120,-128,-76
-101,-2,99,51,-100,49,53,-41,-130,-118,-131,-87
-90,1,92,44,-91,46,49,-39,-130,-113,-129,-84
-104,-15,89,59,-96,37,51,-34,-135,-110,-126,-85
-102,-22,80,62,-91,29,46,-38,-135,-115,-125,-85
-98,-15,83,56,-90,34,45,-54,-137,-120,-124,-85
-105,-14,91,59,-98,39,44,-55,-140,-131,-120,-85
-82,-8,74,45,-78,33,41,-55,-140,-136,-120,-85
-62,-6,56,34,-59,25,38,-55,-140,-134,-122,-85
-66,6,71,30,-69,38,35,-55,-140,-136,-130,-85
-86,9,95,38,-91,52,33,-54,-151,-134,-134,-85
-93,-3,90,48,-92,43,29,-50,-156,-136,-137,-85
-90,-5,85,47,-87,39,36,-50,-154,-139,-140,-85
-98,-18,80,58,-88,30,41,-48,-156,-141,-142,-85
-94,-20,73,57,-83,26,37,-44,-155,-145,-146,-85
-92,-24,69,58,-80,22,33,-45,-155,-147,-143,-85
-84,-25,60,54,-72,17,31,-40,-148,-151,-137,-86
-64,6,70,29,-67,37,23,-34,-138,-147,-130,-80
-78,22,100,28,-89,61,33,-28,-124,-137,-126,-69
-73,50,122,11,-98,86,57,-24,-102,-123,-112,-61
-63,73,136,-6,-99,104,34,-20,-94,-102,-101,-49
-33,91,124,-29,-79,107,14,-14,-95,-101,-106,-45
-11,86,97,-38,-55,91,6,-23,-95,-99,-109,-44
-21,49,70,-14,-46,59,-9,-37,-97,-101,-112,-42
-11,42,53,-16,-32,48,-9,-60,-110,-123,-117,-38
-43,4,47,20,-45,26,12,-68,-132,-134,-117,-54
-85,-33,52,59,-68,9,35,-65,-158,-147,-135,-90
-103,-52,50,77,-76,-1,46,-53,-162,-141,-153,-90
-108,-61,47,84,-77,-7,46,-51,-175,-151,-166,-92
-105,-49,57,77,-80,4,44,-42,-158,-138,-158,-87
-88,-61,27,74,-57,-17,56,-38,-164,-152,-173,-94
-87,-37,51,62,-69,7,40,-59,-158,-139,-165,-85
-80,-122,-42,101,-19,-82,79,50,-139,-159,-175,-102
-27,-198,-171,113,72,-184,208,379,-91,-210,-232,-182
109,1,-108,-55,109,-54,162,399,217,63,-16,-11
166,697,531,-432,-182,613,-273,-505,468,680,614,529
-64,1100,1164,-518,-614,1131,-540,-1299,354,996,925,778
-324,319,643,2,-483,480,-471,-1411,-461,60,119,187
-341,-145,196,243,-268,25,-478,-1077,-854,-605,-426,-238
-165,36,201,65,-184,118,-247,-410,-313,-235,-175,-110
-74,-10,64,42,-69,26,1,-116,-161,-160,-144,-85
-83,-58,25,70,-53,-17,39,-31,-129,-139,-127,-67
-72,-80,-9,76,-31,-44,61,31,-71,-113,-111,-60
-57,-71,-15,64,-21,-43,51,27,-79,-120,-114,-61
-38,-69,-30,54,-4,-49,73,50,-42,-91,-92,-47
-30,-69,-39,50,5,-54,69,44,-52,-102,-99,-50
-15,-62,-47,39,17,-55,71,59,-22,-77,-81,-38
-18,-78,-60,48,22,-69,76,58,-12,-77,-83,-36
-19,-67,-47,43,14,-57,74,63,13,-58,-70,-26
0,-53,-52,26,26,-52,74,87,19,-45,-67,-21
-2,-45,-44,24,21,-44,61,96,42,-22,-60,-14
7,-39,-46,16,27,-42,51,96,85,-2,-49,-9
33,-38,-72,3,53,-55,38,118,109,16,-35,3
46,-28,-74,-9,61,-51,27,138,160,51,-3,17
71,0,-72,-36,71,-36,7,161,219,94,29,41
114,23,-91,-68,102,-33,-18,198,280,147,70,82
161,54,-107,-107,134,-26,-44,231,354,207,120,119
178,68,-110,-123,144,-20,-76,258,426,271,166,157
197,99,-98,-148,148,0,-102,271,486,324,214,195
224,148,-75,-186,149,36,-117,263,512,367,250,228
233,163,-71,-198,152,46,-131,251,516,382,269,244
236,169,-68,-202,152,50,-125,232,482,361,254,235
185,160,-24,-172,104,68,-89,196,394,304,205,195
106,115,9,-111,48,62,-45,156,272,208,140,135
41,64,23,-53,9,44,-11,110,149,118,69,82
10,27,17,-19,-4,22,23,66,67,49,19,39
-7,-21,-14,14,3,-17,51,31,12,-4,-21,0
-35,-65,-31,50,-2,-48,56,11,-25,-32,-45,-26
-42,-72,-30,57,-6,-51,54,9,-55,-51,-58,-28
-48,-72,-25,61,-11,-49,55,6,-61,-62,-70,-25
-62,-87,-25,75,-18,-55,54,3,-52,-60,-65,-25
-78,-96,-19,87,-29,-57,56,0,-50,-55,-63,-25
-73,-95,-22,84,-25,-58,59,1,-45,-51,-61,-33
-58,-93,-35,76,-11,-63,60,9,-41,-46,-57,-36
-55,-90,-35,73,-10,-62,60,16,-40,-42,-56,-32
-40,-89,-49,65,5,-69,60,23,-40,-37,-50,-30
-53,-106,-53,80,0,-79,60,28,-40,-33,-61,-26
-52,-111,-60,82,4,-85,60,32,-40,-27,-70,-25
-40,-106,-66,73,13,-85,60,35,-40,-24,-62,-22
-65,-105,-40,85,-12,-72,60,39,-42,-19,-58,-19
-36,-100,-64,68,14,-82,60,39,-45,-15,-51,-21
-2,-101,-98,52,48,-99,60,34,-45,-37,-46,-20
-10,-99,-89,54,40,-94,60,28,-45,-47,-42,-21
-25,-110,-85,68,30,-97,60,25,-45,-36,-39,-19
-39,-122,-83,81,22,-102,60,20,-45,-31,-36,-15
-45,-119,-74,82,14,-96,60,16,-42,-25,-33,-15
-40,-120,-81,80,21,-100,60,11,-39,-16,-30,-13
-34,-120,-86,77,26,-103,60,11,-41,-26,-30,-9
-41,-120,-79,81,19,-99,58,9,-39,-37,-30,-11
-51,-119,-68,85,9,-94,54,6,-41,-32,-30,-6
-59,-122,-63,90,2,-92,52,4,-39,-30,-30,1
-42,-138,-96,90,27,-116,49,6,-31,-27,-30,7
-42,-143,-102,93,30,-122,47,23,-23,-25,-31,14
-44,-121,-76,83,16,-98,44,19,-14,-19,-23,21
-7,-76,-69,42,31,-72,60,33,-8,-2,-1,27
33,-36,-69,2,51,-52,89,63,7,9,12,29
27,-42,-69,7,49,-56,83,68,32,26,25,48
21,-50,-71,14,46,-60,45,76,41,41,46,59
38,-36,-74,-1,56,-55,22,51,26,41,48,48
27,-63,-90,18,59,-77,24,17,5,31,38,41
41,-92,-133,26,88,-112,12,15,-5,26,33,33
8,-125,-133,59,71,-129,27,15,-5,14,26,26
-53,-156,-103,104,26,-129,55,11,-23,-7,18,20
-42,-175,-133,109,46,-154,55,10,-20,-6,16,20
-57,-189,-132,123,38,-161,53,10,-32,-18,1,13
-41,-170,-129,106,44,-149,46,16,-18,4,5,15
-7,-185,-178,96,86,-181,71,31,-30,-11,-13,7
-31,-153,-123,92,46,-138,72,28,-24,13,4,7
-28,-216,-188,122,80,-202,113,103,-15,-13,-31,-32
12,-297,-309,142,161,-302,249,487,18,-67,-87,-89
172,-118,-291,-27,232,-204,202,497,335,207,126,75
236,538,302,-387,-33,420,-234,-535,568,788,731,610
31,1012,981,-522,-475,996,-569,-1496,498,1169,1122,946
-242,262,504,-10,-373,383,-608,-1684,-253,284,340,365
-304,-259,44,281,-174,-107,-545,-1142,-692,-438,-260,-118
-119,-80,39,99,-79,-20,-217,-358,-178,-81,-37,-15
-43,-152,-109,98,33,-130,25,-59,-5,-4,-3,5
-27,-176,-148,102,61,-162,64,49,32,28,27,20
-17,-210,-193,113,88,-201,77,87,96,56,36,29
-5,-205,-201,105,98,-203,78,89,79,36,32,34
29,-169,-198,70,114,-183,97,115,103,71,53,45
30,-171,-201,71,115,-186,85,112,88,59,46,36
33,-158,-191,63,112,-174,87,133,105,81,62,43
4,-195,-199,96,102,-196,82,141,121,85,60,46
19,-169,-188,75,104,-178,79,152,136,107,74,50
41,-153,-194,56,118,-173,79,157,146,118,83,60
57,-151,-208,47,133,-179,69,183,178,135,94,80
79,-137,-216,29,148,-176,65,201,203,151,111,83
86,-136,-222,25,154,-178,56,214,226,174,130,88
109,-116,-225,4,167,-170,52,249,273,210,151,105
133,-94,-227,-19,180,-160,44,285,329,246,181,126
159,-72,-231,-44,195,-151,30,322,382,289,209,149
181,-44,-225,-69,204,-134,4,358,462,353,254,188
220,3,-218,-111,219,-107,-25,396,543,422,310,231
263,54,-208,-158,235,-77,-46,401,599,476,365,270
279,77,-201,-178,240,-62,-67,384,638,515,404,305
278,85,-193,-181,235,-54,-90,379,655,531,411,308
250,86,-164,-168,207,-39,-97,343,620,521,402,302
235,96,-139,-165,186,-21,-65,286,524,465,362,280
193,62,-132,-127,162,-35,-6,238,410,382,300,223
109,-16,-125,-46,117,-71,45,178,280,280,224,164
33,-78,-111,23,72,-94,66,119,183,202,159,108
4,-126,-130,61,68,-128,81,82,135,149,116,72
5,-146,-151,71,78,-148,93,63,94,114,93,56
-10,-162,-152,86,71,-156,89,42,59,108,78,40
-7,-170,-162,89,77,-166,90,33,47,99,65,34
-20,-172,-152,96,66,-162,90,36,44,91,63,31
-33,-173,-140,103,54,-157,93,34,39,84,59,27
-32,-181,-149,107,59,-165,105,36,36,79,56,24
-47,-200,-152,124,52,-176,111,34,29,74,51,20
-42,-202,-160,122,59,-180,110,36,38,69,51,20
-34,-204,-170,119,69,-187,106,43,53,66,55,20
-38,-208,-170,123,67,-189,105,46,58,59,55,20
-46,-210,-164,128,59,-187,104,58,59,72,55,26
-44,-208,-165,126,61,-186,101,61,54,81,55,31
-6,-200,-194,103,94,-197,96,57,55,73,55,33
7,-195,-202,94,104,-198,93,55,52,69,51,36
-2,-187,-185,95,92,-186,90,51,49,66,49,39
-4,-182,-178,93,87,-179,83,50,51,58,50,40
2,-185,-187,92,95,-186,98,46,45,66,50,36
12,-186,-197,87,105,-192,113,40,40,77,50,33
13,-181,-194,84,103,-187,106,35,32,72,51,31
15,-180,-195,83,105,-187,105,29,27,70,55,27
16,-174,-190,79,103,-182,101,23,18,67,57,25
9,-177,-186,84,98,-181,99,20,17,65,60,22
-6,-189,-184,98,89,-186,97,20,29,62,63,13
-11,-190,-179,100,84,-185,94,20,31,60,66,2
-10,-185,-175,98,83,-180,91,20,30,60,61,-8
-7,-184,-177,96,85,-180,88,20,28,55,60,-17
5,-179,-184,88,94,-181,85,20,25,54,60,-25
-2,-182,-180,92,89,-181,86,23,25,57,55,-28
-28,-208,-179,118,76,-193,92,27,29,59,55,-24
-18,-207,-190,113,86,-198,89,30,30,62,55,-22
-6,-200,-194,103,94,-196,92,35,30,65,55,-19
-17,-179,-162,98,73,-170,87,36,30,68,59,-16
1,-139,-140,70,71,-140,99,52,41,78,77,-14
23,-124,-146,51,85,-135,118,81,75,95,93,-9
37,-107,-144,35,91,-125,93,76,90,115,109,4
31,-104,-136,37,84,-120,69,62,86,123,112,15
19,-108,-127,45,73,-118,65,53,83,114,104,15
46,-130,-176,42,111,-153,50,46,67,98,93,1
55,-151,-207,48,131,-179,49,39,62,93,87,-1
21,-177,-198,78,110,-187,85,32,42,70,73,-21
-19,-207,-188,114,85,-197,98,23,24,57,52,-40
-35,-222,-187,129,76,-205,93,18,30,56,41,-40
-44,-218,-174,131,65,-196,96,30,11,47,33,-41
-47,-220,-173,134,63,-197,114,38,32,56,40,-33
-50,-222,-172,136,61,-197,120,28,-2,33,19,-41
-54,-216,-162,135,55,-189,104,29,37,58,40,-24
-16,-283,-267,150,126,-275,181,221,16,-18,-7,-103
76,-287,-363,106,220,-325,305,622,139,35,-5,-129
233,11,-221,-122,227,-105,116,243,497,409,329,175
225,785,560,-505,-168,672,-345,-999,652,1044,1004,774
-69,825,894,-378,-482,859,-564,-1775,397,1057,1030,823
-292,-71,222,182,-257,75,-601,-1672,-466,-48,69,76
-202,-246,-44,224,-79,-145,-419,-849,-517,-310,-174,-167
-87,-121,-35,104,-26,-78,-48,-165,-8,28,53,-37
-46,-203,-157,125,56,-179,88,-2,24,15,31,-53
7,-196,-203,94,105,-199,118,95,107,88,81,-24
8,-207,-215,99,112,-211,134,105,94,66,56,-37
20,-187,-207,83,114,-197,121,128,114,85,72,-25
42,-180,-222,69,132,-201,123,137,117,92,58,-26
43,-176,-219,67,131,-197,115,147,122,102,69,-25
30,-190,-220,80,125,-205,111,158,158,130,105,-15
41,-180,-220,69,131,-200,115,154,141,128,99,-10
53,-166,-219,57,136,-192,119,186,177,138,108,1
50,-170,-220,60,136,-195,110,193,191,134,109,7
54,-155,-209,51,131,-182,101,205,215,144,111,15
59,-148,-206,45,133,-177,95,225,235,162,123,24
63,-131,-194,34,129,-162,85,258,255,186,144,29
89,-118,-207,15,148,-162,72,286,305,220,161,35
146,-104,-250,-21,199,-177,59,327,359,263,194,70
174,-78,-252,-48,213,-164,31,374,424,306,228,100
197,-48,-245,-74,221,-146,-6,407,508,371,284,135
244,9,-235,-127,240,-112,-39,440,569,428,333,176
270,50,-219,-160,244,-84,-58,446,625,480,375,219
287,83,-204,-185,245,-60,-75,436,645,517,419,250
288,117,-170,-202,229,-26,-104,405,625,538,421,255
242,101,-141,-171,192,-20,-95,354,607,521,406,248
194,66,-128,-130,161,-31,-53,311,520,445,364,206
151,21,-130,-86,140,-54,-13,259,396,355,293,152
114,-15,-130,-49,122,-72,40,199,286,256,223,93
44,-86,-130,21,87,-108,72,151,191,184,163,42
10,-120,-130,55,70,-124,79,110,135,134,112,16
17,-112,-130,47,74,-121,95,89,96,101,89,0
-14,-155,-142,85,64,-148,95,76,76,90,77,-10
-19,-162,-143,90,62,-152,90,66,67,83,66,-17
-26,-158,-132,92,53,-145,90,65,54,79,64,-27
-30,-159,-129,95,50,-144,83,65,50,72,61,-37
-34,-153,-119,94,43,-136,89,65,50,67,58,-36
-40,-156,-116,98,38,-135,96,66,50,62,55,-35
-32,-173,-142,103,55,-157,95,80,50,57,53,-35
-29,-182,-153,106,62,-168,95,89,50,52,50,-35
-27,-175,-148,101,61,-161,95,97,51,49,47,-35
-27,-175,-147,101,60,-161,95,107,52,43,45,-39
-26,-170,-144,99,59,-157,94,104,49,41,41,-46
-26,-170,-144,98,59,-156,89,101,46,45,40,-52
-9,-163,-154,86,73,-158,86,98,43,45,36,-55
-5,-156,-151,81,73,-153,82,95,40,44,34,-55
-11,-148,-137,80,63,-142,79,94,39,40,35,-55
-19,-153,-135,87,58,-144,75,87,33,40,35,-55
-25,-160,-135,93,55,-147,72,81,25,39,35,-55
-16,-151,-136,84,60,-143,68,74,19,34,33,-51
-14,-147,-134,81,60,-140,67,68,12,31,30,-50
-2,-140,-138,71,68,-138,63,61,6,28,28,-50
-25,-152,-127,89,51,-139,61,57,5,23,25,-45
-30,-161,-131,96,51,-146,58,54,5,20,21,-45
-14,-152,-138,83,62,-145,54,51,5,16,20,-45
-33,-150,-117,92,42,-133,71,49,4,15,17,-45
-21,-145,-124,83,52,-134,74,44,-1,15,12,-45
-9,-140,-130,75,61,-135,66,49,-6,15,9,-45
-16,-145,-129,80,57,-137,64,54,-10,15,6,-45
-19,-150,-131,84,56,-140,58,49,-15,14,1,-45
-23,-153,-129,88,53,-141,55,43,-19,9,1,-49
-24,-154,-130,89,54,-142,50,39,-26,6,17,-50
-32,-159,-127,96,48,-143,50,30,-26,3,26,-50
-42,-160,-117,101,38,-138,50,34,-20,-2,24,-50
-50,-158,-108,104,29,-133,51,40,-14,-6,25,-51
-48,-146,-97,97,25,-121,49,40,-9,1,24,-48
-29,-112,-83,71,27,-97,54,71,-3,25,32,-36
-3,-69,-66,36,32,-67,70,78,4,48,45,-21
21,-44,-65,12,43,-54,41,63,14,63,56,-11
37,-52,-90,8,64,-71,9,55,21,69,53,-11
45,-42,-86,-1,66,-64,6,41,22,62,46,-7
53,-66,-119,7,86,-92,-2,36,11,51,39,-5
50,-100,-150,25,100,-125,-4,34,3,45,33,-6
17,-124,-141,54,79,-132,12,36,-4,27,26,-28
-37,-165,-128,101,46,-147,31,34,-35,10,21,-53
-49,-171,-122,110,36,-146,41,37,-39,11,18,-54
-34,-167,-132,101,49,-149,39,31,-47,-2,8,-57
-35,-159,-124,97,45,-141,39,31,-23,9,13,-47
-39,-165,-126,103,44,-146,42,31,-39,-13,-5,-56
-41,-170,-130,106,45,-150,39,23,-13,2,7,-40
-26,-245,-219,136,96,-232,103,162,-18,-55,-55,-91
38,-265,-303,113,171,-284,221,570,42,-48,-87,-149
209,-22,-232,-93,220,-127,109,395,380,289,195,88
250,706,457,-478,-104,581,-340,-779,608,907,860,684
-22,954,976,-466,-499,965,-605,-1699,473,1103,1060,874
-282,110,392,86,-337,250,-640,-1736,-400,70,166,178
-266,-229,37,247,-151,-96,-529,-1000,-671,-419,-246,-181
-158,-123,34,140,-96,-44,-161,-244,-131,-35,-30,-61
-85,-176,-91,131,3,-133,12,-21,-61,-23,-33,-66
-11,-141,-130,77,60,-135,41,81,-1,17,9,-36
7,-163,-170,78,89,-166,69,103,21,22,3,-39
9,-151,-161,71,86,-156,53,115,11,22,14,-29
19,-152,-171,67,95,-161,58,137,38,41,25,-21
25,-149,-174,62,100,-161,58,140,29,34,25,-18
32,-142,-173,55,103,-157,77,148,43,59,33,-7
34,-143,-177,55,105,-160,71,162,47,50,38,-7
39,-134,-173,48,106,-153,66,181,73,63,54,2
41,-135,-176,48,109,-156,63,177,72,68,47,7
50,-125,-174,38,112,-149,56,197,94,79,67,7
61,-114,-175,27,118,-144,55,216,122,106,78,12
69,-107,-176,19,123,-141,47,236,154,132,96,37
82,-90,-172,4,128,-131,42,273,204,158,115,50
103,-81,-184,-10,144,-132,29,305,255,199,141,69
139,-58,-197,-40,168,-128,2,336,314,242,176,97
187,-7,-194,-90,191,-100,-31,375,375,291,211,128
235,38,-197,-136,215,-79,-55,409,454,364,272,181
256,63,-193,-159,224,-65,-85,416,527,423,317,226
264,81,-183,-173,223,-50,-98,404,556,460,348,250
271,148,-123,-210,197,13,-110,388,566,486,372,272
246,144,-103,-195,174,20,-123,343,540,472,366,273
212,89,-123,-150,167,-17,-87,294,456,416,327,241
157,73,-84,-114,120,-5,-43,255,336,324,250,177
96,8,-88,-52,92,-40,1,198,221,225,172,107
64,-49,-113,-8,89,-80,35,148,127,142,113,62
9,-86,-96,39,53,-90,55,118,71,81,74,32
-29,-130,-101,80,36,-115,75,97,32,46,54,17
-24,-167,-142,96,59,-154,73,89,3,34,36,7
-11,-169,-158,90,74,-163,68,83,-2,30,23,-2
3,-145,-148,71,76,-146,79,80,-8,22,17,-12
-41,-191,-149,116,54,-170,90,75,-11,16,13,-22
-71,-213,-142,143,36,-178,90,70,-16,10,8,-25
-56,-195,-139,125,42,-167,90,76,-20,5,4,-25
-38,-202,-164,120,63,-183,90,85,-20,5,-1,-26
-15,-192,-177,104,82,-185,90,90,-20,4,-5,-29
-20,-197,-178,109,79,-187,88,88,-20,0,-5,-30
-12,-192,-180,102,84,-185,84,101,-20,0,-6,-30
-17,-193,-176,106,80,-184,86,110,-20,-2,-11,-30
-36,-208,-172,122,68,-190,81,100,-22,-8,-10,-30
-17,-189,-172,103,78,-180,80,95,-30,-13,-12,-33
-15,-180,-165,97,75,-172,80,87,-35,-17,-18,-36
-8,-175,-167,92,80,-171,75,81,-40,-21,-21,-35
-9,-166,-157,88,74,-161,75,75,-40,-26,-26,-39
-22,-162,-140,92,59,-151,75,67,-43,-24,-29,-40
23,-154,-176,66,100,-165,75,61,-62,-31,-31,-40
32,-150,-182,59,108,-166,75,53,-57,-44,-28,-45
5,-163,-169,79,87,-166,73,44,-69,-48,-34,-45
1,-160,-161,80,81,-160,69,46,-95,-51,-46,-45
-10,-152,-142,81,66,-147,71,53,-96,-49,-45,-45
0,-146,-146,73,74,-146,66,46,-100,-52,-44,-45
15,-138,-153,62,84,-145,64,37,-100,-62,-46,-43
7,-137,-144,65,76,-141,65,33,-101,-59,-43,-40
-3,-138,-135,71,66,-136,59,20,-103,-52,-51,-37
-17,-163,-146,90,65,-154,61,31,-96,-48,-59,-34
-33,-146,-113,89,41,-129,51,48,-89,-41,-47,-30
-2,-98,-95,50,47,-97,68,57,-82,-36,-37,-30
4,-72,-76,34,40,-73,87,75,-77,-38,-28,-24
-4,-53,-50,28,23,-51,51,85,-78,-40,-23,-17
44,-23,-67,-10,55,-45,25,78,-82,-41,-24,-12
59,-12,-71,-23,65,-41,21,40,-76,-39,-15,-4
51,-64,-115,6,84,-90,8,18,-91,-58,-40,-24
42,-86,-128,22,85,-106,11,21,-98,-68,-47,-34
16,-115,-130,50,73,-122,53,21,-122,-91,-63,-48
-28,-149,-121,89,47,-135,67,18,-149,-122,-98,-73
-46,-163,-118,105,36,-140,65,24,-139,-124,-101,-76
-51,-159,-108,105,28,-133,63,13,-153,-129,-101,-74
-51,-154,-103,103,26,-129,58,16,-134,-122,-97,-74
-50,-161,-112,106,32,-137,64,2,-159,-143,-108,-79
-53,-140,-87,97,18,-113,50,-1,-126,-110,-86,-67
-19,-223,-204,121,93,-213,146,190,-123,-176,-167,-127
56,-240,-296,92,176,-267,268,543,-10,-144,-174,-149
197,105,-92,-151,145,6,61,246,330,249,179,136
174,884,710,-529,-268,797,-388,-808,539,908,858,715
-100,907,1006,-404,-554,957,-517,-1404,215,857,811,687
-320,37,357,141,-338,197,-467,-1382,-697,-279,-148,-34
-276,-160,116,218,-196,-22,-413,-839,-714,-515,-337,-203
-149,-85,64,117,-107,-10,-140,-221,-205,-158,-126,-78
-97,-128,-31,113,-33,-79,26,-46,-174,-177,-146,-89
-34,-96,-63,65,14,-79,60,54,-92,-114,-94,-59
-10,-120,-110,65,50,-115,80,66,-80,-128,-113,-73
-6,-104,-99,55,46,-101,64,70,-70,-108,-95,-61
14,-108,-122,47,69,-115,68,90,-60,-98,-94,-62
18,-95,-113,39,66,-104,58,87,-63,-96,-89,-60
26,-82,-108,28,67,-95,56,97,-46,-82,-80,-53
21,-81,-102,30,61,-91,59,100,-44,-87,-77,-50
-3,-97,-94,50,46,-95,64,131,-3,-69,-63,-42
-11,-96,-85,54,37,-91,56,136,7,-65,-60,-39
29,-75,-103,23,66,-89,44,141,25,-46,-50,-31
61,-69,-130,4,96,-99,35,147,46,-46,-39,-27
91,-32,-122,-29,107,-77,21,164,79,-20,-18,-7
123,-2,-125,-60,124,-63,10,196,125,23,2,12
120,3,-117,-62,119,-57,-3,216,173,57,41,30
150,27,-123,-88,136,-48,-25,244,252,120,78,61
174,63,-111,-118,142,-24,-60,266,311,172,105,92
216,106,-110,-161,163,-2,-91,294,377,231,159,134
271,138,-133,-204,202,3,-107,310,441,295,212,184
275,166,-109,-220,192,28,-127,300,453,315,242,206
261,180,-81,-220,170,49,-126,288,455,323,258,196
219,172,-46,-195,132,63,-114,251,415,299,236,181
166,154,-12,-160,89,71,-94,210,316,229,179,159
106,118,12,-112,47,64,-41,170,194,133,111,100
41,58,17,-50,12,37,0,130,78,43,33,33
32,38,6,-36,13,22,18,89,-3,-25,-29,-18
23,25,2,-24,11,13,27,53,-64,-84,-70,-52
-19,-26,-7,23,-6,-17,37,34,-103,-110,-96,-65
-27,-42,-14,35,-6,-28,48,20,-111,-122,-102,-71
-42,-62,-20,52,-11,-40,50,19,-122,-135,-104,-77
-42,-62,-20,52,-11,-41,50,21,-128,-136,-113,-84
-31,-51,-20,41,-5,-35,50,23,-122,-141,-117,-89
-26,-46,-20,36,-3,-33,55,25,-118,-138,-115,-90
-23,-42,-19,33,-2,-31,55,27,-114,-134,-115,-90
-26,-60,-34,43,4,-47,56,31,-109,-135,-115,-90
-15,-57,-42,36,13,-49,60,29,-105,-135,-115,-90
-11,-50,-39,31,14,-45,60,30,-110,-135,-115,-88
-9,-49,-40,29,16,-45,58,29,-110,-135,-110,-85
-1,-41,-40,21,20,-40,55,26,-110,-140,-110,-82
-1,-41,-40,21,19,-40,52,23,-110,-140,-109,-80
-18,-53,-35,36,9,-44,49,20,-111,-140,-105,-77
-24,-51,-27,38,2,-39,45,17,-109,-140,-105,-75
-20,-45,-25,33,2,-34,45,15,-112,-140,-105,-79
-25,-39,-14,32,-5,-26,50,13,-127,-138,-105,-80
-8,-34,-26,21,9,-30,50,10,-132,-135,-105,-80
27,-28,-55,0,41,-41,51,10,-133,-135,-105,-80
3,-38,-41,18,22,-39,55,6,-137,-131,-105,-80
-15,-46,-31,31,8,-38,56,4,-139,-129,-104,-79
16,-27,-43,6,30,-35,52,6,-141,-131,-100,-75
1,-46,-47,23,24,-46,46,9,-144,-134,-100,-75
-14,-55,-41,35,14,-48,38,16,-146,-136,-101,-75
-17,-59,-42,38,13,-50,34,19,-140,-132,-100,-75
-22,-60,-38,41,8,-48,25,25,-132,-124,-101,-76
8,-17,-26,5,17,-21,22,28,-126,-115,-96,-70
11,16,5,-13,3,10,48,36,-119,-108,-82,-61
-3,43,47,-21,-25,45,58,41,-107,-100,-68,-53
27,56,29,-41,-1,42,38,25,-99,-95,-59,-44
32,62,29,-48,1,45,-12,8,-101,-95,-56,-46
48,64,16,-56,16,40,-39,-2,-99,-91,-51,-43
66,25,-42,-45,53,-8,-19,-10,-101,-89,-47,-47
43,-1,-45,-21,44,-23,-4,-16,-103,-94,-48,-42
15,-33,-49,10,32,-41,25,-21,-136,-126,-82,-52
-23,-59,-37,41,7,-48,43,-20,-158,-139,-98,-75
-31,-75,-44,53,7,-60,47,-19,-160,-145,-100,-81
-49,-80,-31,65,-9,-55,43,-23,-164,-147,-102,-81
-34,-72,-37,53,2,-54,47,-16,-139,-131,-94,-77
-21,-66,-45,44,13,-55,44,-24,-164,-151,-111,-87
-21,-74,-53,48,16,-64,43,2,-111,-113,-81,-67
-12,-167,-154,90,71,-160,140,224,-137,-187,-154,-138
51,-155,-206,52,129,-180,241,577,22,-118,-137,-153
228,207,-21,-218,124,93,12,121,353,298,260,188
164,975,810,-570,-323,892,-459,-1055,472,918,904,756
-124,896,1020,-386,-572,958,-635,-1660,109,760,772,672
-302,16,318,142,-310,167,-625,-1530,-753,-357,-166,-46
-259,-117,142,187,-200,12,-443,-802,-645,-466,-290,-189
-133,-49,84,91,-108,17,-113,-189,-164,-130,-77,-70
-66,-84,-18,75,-23,-51,-7,-47,-145,-166,-107,-80
-9,-45,-36,27,14,-40,37,40,-48,-100,-59,-46
-1,-68,-68,35,34,-68,60,48,-64,-123,-73,-60
-1,-62,-61,31,30,-61,51,68,-52,-74,-54,-45
19,-66,-85,23,53,-75,57,85,-54,-74,-55,-45
20,-54,-74,18,47,-64,57,97,-48,-77,-48,-40
28,-42,-70,7,49,-55,73,98,-26,-49,-41,-41
22,-57,-79,17,51,-68,69,108,-17,-46,-39,-38
25,-75,-101,25,63,-88,67,126,12,-30,-27,-27
43,-54,-97,6,70,-76,55,120,31,-24,-22,-24
33,-60,-92,14,63,-76,43,164,62,-13,-14,-14
55,-36,-91,-9,73,-63,34,189,80,3,-3,-11
80,-4,-84,-38,82,-44,21,192,121,38,23,0
89,1,-88,-44,88,-44,17,220,165,66,47,15
128,35,-93,-82,110,-29,1,261,227,116,85,43
169,65,-104,-116,136,-19,-25,301,298,169,128,80
194,99,-95,-146,144,2,-53,342,370,228,178,121
240,130,-110,-184,174,10,-84,374,441,296,231,168
285,172,-113,-228,199,29,-109,367,496,351,275,205
287,212,-75,-249,181,68,-136,352,517,383,305,227
271,223,-48,-247,159,87,-142,333,517,393,318,237
233,205,-28,-219,130,88,-130,294,471,369,303,222
186,173,-13,-179,99,80,-94,245,359,284,239,179
130,135,5,-132,62,69,-40,194,239,186,165,116
68,84,16,-76,25,50,-9,140,129,100,94,56
23,30,8,-27,7,19,3,91,47,29,31,15
7,4,-3,-5,5,0,8,57,-3,-14,-9,-16
-14,-25,-11,20,-1,-18,13,38,-40,-39,-29,-35
-33,-61,-29,47,-2,-45,32,29,-59,-49,-29,-45
-7,-44,-37,26,16,-41,42,26,-63,-59,-38,-51
-22,-57,-35,40,7,-46,39,22,-68,-66,-47,-49
-46,-81,-35,64,-5,-58,44,18,-69,-64,-44,-53
-34,-66,-32,50,-1,-49,45,14,-65,-65,-43,-55
-32,-61,-29,46,-1,-45,44,20,-62,-65,-39,-55
-22,-52,-31,37,5,-41,40,29,-60,-65,-40,-55
-12,-53,-41,33,15,-47,40,37,-56,-65,-44,-55
-27,-66,-38,47,6,-52,39,46,-55,-65,-45,-55
-35,-72,-38,54,2,-55,34,50,-55,-65,-45,-55
-38,-67,-30,53,-4,-48,36,50,-55,-65,-45,-56
-10,-46,-35,28,13,-40,33,50,-56,-65,-45,-53
10,-44,-54,17,33,-49,29,50,-52,-64,-47,-50
-37,-77,-40,57,2,-58,30,50,-59,-79,-50,-47
-33,-77,-44,56,5,-60,30,47,-67,-87,-50,-45
-24,-68,-44,46,11,-56,30,42,-64,-84,-50,-42
-39,-65,-26,52,-6,-45,29,39,-76,-89,-50,-39
-33,-59,-26,46,-4,-42,26,36,-81,-90,-50,-48
-24,-62,-37,43,7,-49,24,31,-79,-89,-46,-51
-14,-54,-40,35,13,-47,20,30,-84,-85,-45,-47
-16,-48,-32,33,8,-40,18,30,-85,-80,-45,-45
-8,-40,-32,24,13,-36,14,30,-85,-76,-45,-41
-11,-35,-25,23,7,-30,19,30,-80,-72,-45,-40
3,-25,-27,11,15,-26,37,30,-77,-65,-43,-36
36,-20,-56,-8,46,-38,41,30,-73,-68,-40,-35
45,-12,-57,-16,51,-34,40,27,-70,-70,-37,-35
74,26,-49,-50,61,-11,39,22,-65,-63,-35,-30
79,35,-44,-57,61,-5,36,22,-67,-59,-32,-30
48,16,-32,-32,40,-8,33,14,-78,-53,-30,-29
36,7,-29,-21,32,-11,43,24,-73,-48,-24,-24
57,45,-12,-51,34,17,48,42,-62,-42,-11,-21
107,99,-8,-103,57,45,63,63,-52,-34,0,-9
114,137,23,-126,45,80,62,81,-43,-25,17,13
105,141,35,-123,35,88,20,82,-44,-20,34,33
108,126,18,-117,45,72,1,64,-46,-20,36,37
125,119,-6,-122,65,57,-9,29,-44,-20,28,30
163,104,-59,-134,111,22,-10,17,-46,-20,20,23
162,104,-58,-132,110,22,6,22,-50,-25,15,20
115,65,-50,-90,82,7,33,18,-77,-61,-10,-14
79,32,-47,-55,63,-7,53,21,-87,-67,-27,-32
67,21,-45,-44,55,-11,57,20,-116,-80,-46,-38
66,31,-35,-48,50,-2,51,14,-109,-72,-43,-36
78,11,-67,-44,72,-28,60,20,-105,-78,-50,-43
73,24,-49,-48,61,-13,48,2,-123,-87,-55,-46
68,-1,-69,-33,68,-35,68,47,-70,-65,-47,-42
90,-99,-188,5,139,-143,196,387,-79,-139,-119,-124
233,8,-225,-120,229,-108,223,604,188,42,-3,-50
348,539,192,-444,77,365,-131,-256,463,538,504,414
199,1204,1004,-702,-403,1104,-524,-1433,518,1082,1072,920
-103,705,809,-301,-456,757,-628,-1837,-60,520,571,539
-207,-39,168,122,-187,64,-630,-1414,-786,-468,-260,-123
-29,85,115,-28,-72,100,-314,-522,-377,-246,-138,-91
50,85,35,-68,7,60,-14,-90,-77,-54,-35,-31
63,52,-11,-58,37,21,21,27,-94,-73,-47,-39
114,67,-47,-90,80,10,78,95,-4,-9,-10,-21
125,44,-81,-84,102,-18,79,81,-21,-46,-33,-38
123,60,-63,-91,93,-1,82,125,21,-9,-4,-23
106,39,-67,-72,86,-13,79,128,4,-25,-16,-35
110,49,-62,-79,86,-6,74,144,23,-7,1,-23
110,35,-74,-72,92,-19,74,145,25,-5,2,-20
98,30,-68,-64,83,-19,68,153,42,9,12,-13
140,71,-69,-106,104,1,69,162,60,20,17,-5
152,88,-64,-119,107,12,60,176,73,35,26,0
150,85,-65,-117,107,10,54,206,107,56,42,8
190,114,-77,-152,133,18,48,216,124,65,49,21
199,119,-80,-159,139,20,41,241,163,97,75,34
203,131,-72,-167,137,30,29,273,210,131,96,59
209,137,-73,-173,141,32,7,322,276,178,133,91
275,170,-104,-222,189,33,-23,359,343,231,173,120
333,227,-106,-280,219,60,-48,389,410,286,216,158
344,254,-90,-299,217,82,-84,412,478,349,273,197
374,298,-76,-335,225,110,-116,399,531,404,319,239
384,337,-47,-360,215,145,-116,396,549,438,339,267
374,351,-23,-363,199,164,-115,369,535,445,333,271
332,350,19,-341,156,184,-115,315,486,403,321,245
274,314,40,-294,117,176,-86,259,372,318,264,194
197,238,40,-218,78,139,-39,194,249,221,178,132
143,204,61,-174,40,132,0,139,148,139,109,74
113,172,59,-143,26,115,25,96,66,75,53,33
87,137,50,-112,19,93,24,63,18,31,19,4
88,132,44,-110,22,88,25,50,-7,9,4,-18
85,120,35,-103,25,77,46,44,-17,-8,-4,-26
83,114,31,-99,26,72,57,37,-31,-19,-12,-29
62,103,40,-83,11,71,59,29,-45,-27,-23,-33
61,99,38,-80,11,68,60,22,-45,-29,-28,-37
53,90,37,-71,8,63,60,23,-45,-33,-33,-40
28,85,57,-57,-15,71,60,26,-45,-45,-36,-45
28,77,49,-53,-11,63,60,34,-45,-45,-35,-49
35,71,36,-53,-1,53,60,45,-45,-45,-35,-51
49,83,33,-66,8,58,57,50,-45,-46,-35,-55
48,83,35,-66,6,59,54,58,-45,-44,-35,-54
76,112,35,-94,20,73,51,62,-45,-48,-38,-50
81,110,30,-96,25,70,48,60,-45,-51,-41,-50
77,102,25,-90,25,63,46,57,-45,-50,-40,-50
97,117,19,-107,39,68,43,55,-50,-50,-41,-50
85,103,18,-95,34,61,41,51,-51,-50,-45,-50
92,100,8,-96,42,54,37,50,-48,-50,-45,-50
67,92,25,-80,21,58,35,46,-66,-55,-45,-50
38,86,48,-62,-6,67,32,39,-79,-55,-45,-50
41,83,42,-62,0,62,29,32,-81,-56,-45,-50
39,79,39,-59,0,59,34,26,-86,-60,-45,-49
40,76,36,-59,2,56,34,19,-89,-60,-45,-52
39,71,32,-55,3,51,30,15,-90,-57,-45,-55
39,69,30,-54,4,49,30,15,-91,-55,-46,-55
36,63,26,-50,5,44,27,15,-95,-55,-43,-55
33,57,24,-45,4,40,25,15,-95,-52,-54,-52
33,53,20,-43,6,36,25,14,-93,-49,-59,-49
31,46,15,-39,7,30,37,15,-86,-51,-50,-50
29,41,12,-35,9,26,42,15,-82,-52,-45,-50
36,42,6,-39,15,24,38,16,-76,-47,-37,-50
61,63,2,-62,29,32,42,15,-69,-40,-32,-49
73,89,16,-81,28,52,37,18,-66,-36,-25,-36
70,108,37,-89,16,72,59,57,-52,-23,-16,-26
76,140,64,-108,6,102,71,73,-40,-7,-7,-25
93,158,65,-126,14,111,24,54,-39,-1,0,-25
127,175,48,-151,39,112,-13,19,-42,5,9,-25
110,144,33,-127,38,88,-14,-6,-35,-1,4,-24
57,86,29,-72,14,57,-12,-6,-52,-14,-13,-28
48,68,21,-58,13,44,2,-13,-67,-23,-23,-27
36,48,12,-42,12,30,32,-22,-88,-54,-45,-43
30,40,9,-35,10,24,40,-27,-92,-62,-51,-57
27,20,-6,-24,16,7,41,-27,-98,-74,-69,-66
-1,27,28,-13,-15,28,39,-25,-94,-69,-60,-63
0,5,5,-3,-3,5,50,-23,-92,-77,-71,-72
2,20,18,-11,-8,19,39,-27,-104,-76,-69,-70
25,-19,-44,-3,34,-31,59,35,-72,-76,-68,-79
55,-109,-163,27,109,-136,186,381,-69,-142,-147,-155
180,-5,-184,-88,182,-94,205,568,206,53,-10,-70
301,545,243,-423,29,394,-152,-315,498,569,524,413
133,1190,1057,-662,-462,1123,-526,-1478,553,1096,1081,918
-176,632,809,-228,-493,720,-613,-1863,-88,459,508,471
-273,-62,212,167,-242,75,-609,-1400,-779,-484,-298,-175
-103,76,180,13,-142,128,-311,-520,-356,-238,-150,-109
-17,55,72,-19,-45,63,-22,-99,-79,-71,-61,-69
30,41,12,-35,9,26,22,19,-73,-84,-58,-81
73,47,-26,-60,49,11,66,77,2,-24,-27,-58
41,-3,-44,-19,43,-23,57,78,-27,-50,-46,-68
25,-3,-28,-11,27,-15,61,102,16,-14,-19,-49
19,-15,-34,-1,26,-25,57,107,7,-27,-31,-54
63,15,-47,-39,55,-16,53,126,28,-6,-13,-41
49,-4,-53,-22,51,-29,57,117,31,-5,-13,-40
33,-1,-35,-16,34,-18,47,134,47,8,-3,-32
83,36,-47,-59,64,-5,44,140,64,18,3,-27
96,31,-65,-63,80,-17,35,163,85,27,9,-22
84,18,-66,-50,74,-24,30,181,103,43,21,-16
113,50,-63,-81,87,-6,23,187,111,50,30,-5
122,61,-61,-92,92,0,16,221,161,86,53,18
131,74,-58,-102,94,8,0,253,203,113,78,31
166,99,-68,-132,117,15,-19,297,259,157,101,51
182,105,-77,-143,130,14,-33,334,334,220,152,92
253,166,-87,-209,169,39,-67,369,405,279,203,133
298,204,-94,-251,196,55,-104,382,470,338,246,169
299,224,-75,-261,187,74,-134,375,512,387,293,210
327,267,-60,-296,193,103,-149,369,535,419,319,234
312,288,-24,-300,167,131,-141,350,531,416,323,237
248,264,16,-256,116,140,-127,308,475,384,300,217
185,209,24,-198,81,116,-92,252,365,310,242,168
133,159,26,-146,53,92,-40,192,241,213,166,104
77,98,22,-88,27,60,0,142,138,126,104,50
28,45,17,-37,5,31,18,96,64,63,55,10
2,15,13,-9,-6,14,34,50,19,27,12,-19
-3,7,10,-2,-7,8,37,35,-17,2,-16,-37
-5,1,6,1,-6,3,34,40,-43,-18,-27,-51
-9,-6,3,7,-6,-1,36,40,-50,-31,-30,-58
-13,-15,-2,14,-5,-8,35,38,-54,-30,-34,-63
-23,-25,-2,24,-10,-13,34,35,-54,-31,-40,-64
-27,-35,-8,32,-9,-22,39,35,-58,-29,-50,-59
-36,-44,-8,40,-13,-26,53,37,-61,-35,-55,-61
-37,-46,-9,41,-14,-27,55,40,-56,-46,-55,-57
-21,-50,-29,36,4,-39,55,49,-55,-45,-55,-56
-15,-49,-34,32,9,-41,55,54,-51,-44,-55,-54
9,-45,-54,18,32,-49,55,49,-50,-40,-55,-58
13,-45,-58,16,36,-51,55,50,-56,-40,-51,-71
-1,-46,-45,24,22,-45,49,58,-62,-43,-50,-67
0,-43,-43,22,22,-43,44,61,-68,-46,-50,-63
-27,-59,-32,43,3,-46,39,59,-73,-50,-50,-61
-40,-70,-31,55,-4,-50,33,55,-77,-52,-50,-54
-35,-59,-24,48,-5,-41,27,55,-81,-56,-49,-60
-24,-55,-32,40,4,-43,24,51,-84,-59,-52,-70
4,-46,-51,21,28,-48,26,45,-85,-60,-56,-70
5,-42,-48,19,27,-44,24,40,-88,-60,-55,-70
2,-42,-44,21,23,-43,26,34,-91,-60,-55,-70
-10,-51,-41,31,16,-46,23,29,-87,-62,-56,-73
-35,-70,-35,53,0,-52,32,23,-85,-60,-54,-77
-30,-65,-36,48,4,-51,51,21,-85,-65,-61,-73
-26,-59,-34,43,4,-46,47,17,-82,-72,-71,-70
-21,-58,-37,40,8,-47,43,15,-79,-69,-70,-68
-20,-48,-28,35,4,-38,40,11,-80,-70,-70,-64
-35,-62,-27,49,-4,-44,35,10,-90,-70,-70,-71
-12,-72,-60,42,24,-66,33,13,-90,-69,-70,-74
-16,-70,-54,43,19,-61,29,18,-82,-74,-68,-65
-41,-80,-39,61,-1,-59,27,21,-75,-77,-61,-60
-2,-45,-44,24,21,-44,24,12,-70,-68,-54,-52
3,-17,-19,7,11,-18,43,39,-60,-57,-47,-46
-12,4,17,4,-14,10,67,68,-65,-48,-41,-41
1,41,40,-22,-20,40,40,62,-86,-44,-35,-36
5,39,34,-22,-15,36,-22,58,-93,-46,-33,-34
43,38,-5,-40,23,17,-47,45,-91,-44,-28,-26
63,2,-61,-32,62,-29,-38,18,-99,-46,-26,-28
31,-40,-71,5,51,-55,-34,-15,-98,-51,-35,-39
-25,-76,-50,51,13,-63,1,-21,-102,-81,-63,-63
-97,-110,-13,103,-41,-61,25,-20,-115,-98,-79,-82
-85,-126,-41,105,-22,-83,25,-19,-112,-108,-86,-90
-43,-114,-71,79,14,-92,26,-23,-122,-114,-86,-91
-58,-123,-65,91,4,-94,31,-17,-102,-106,-80,-87
-70,-131,-61,101,-4,-96,31,-19,-123,-127,-100,-96
-61,-88,-26,75,-17,-57,26,-11,-94,-100,-77,-79
-45,-190,-146,118,51,-168,127,206,-113,-161,-154,-151
23,-219,-242,98,132,-230,224,570,19,-109,-161,-175
194,148,-46,-171,120,51,10,175,375,293,226,157
164,916,752,-540,-294,834,-427,-1000,571,961,913,755
-161,881,1042,-360,-602,962,-601,-1705,229,850,822,705
-377,-5,372,190,-375,184,-606,-1594,-675,-282,-133,-37
-281,-131,150,206,-215,9,-458,-844,-651,-459,-304,-213
-122,-17,105,69,-113,44,-115,-209,-164,-122,-104,-95
-100,-107,-7,103,-46,-57,17,-46,-141,-145,-124,-121
-49,-104,-54,77,3,-79,47,47,-53,-84,-76,-93
-32,-136,-104,84,37,-120,60,66,-56,-105,-98,-105
-50,-130,-80,90,16,-105,47,86,-44,-86,-78,-91
-22,-118,-96,70,37,-107,52,83,-39,-84,-81,-91
-17,-104,-87,61,35,-95,42,95,-41,-81,-75,-85
-6,-97,-91,52,42,-94,42,112,-20,-70,-68,-79
-28,-115,-87,72,30,-101,42,107,-17,-71,-67,-78
-40,-124,-84,83,22,-103,45,128,3,-58,-58,-70
-26,-112,-86,70,30,-99,37,136,14,-56,-58,-69
-5,-90,-85,48,40,-87,30,154,51,-40,-51,-62
6,-78,-84,37,45,-81,25,165,72,-30,-45,-60
10,-82,-92,36,51,-87,15,184,107,5,-15,-44
43,-67,-111,12,77,-89,0,206,143,32,8,-20
58,-46,-103,-6,81,-74,-24,239,192,64,30,7
78,-21,-99,-28,88,-60,-44,279,253,110,62,38
114,20,-94,-67,103,-37,-66,316,329,178,115,81
159,72,-87,-115,123,-7,-97,349,414,239,165,121
188,105,-84,-146,136,10,-120,346,459,281,202,146
196,121,-74,-158,135,23,-150,337,500,331,248,181
210,150,-60,-180,135,44,-168,317,497,338,260,199
181,146,-35,-164,108,56,-147,284,455,314,248,185
135,115,-21,-125,78,47,-112,245,372,257,206,149
55,73,18,-64,18,45,-70,191,238,160,112,83
-22,16,38,3,-31,27,-31,141,118,66,36,21
-36,-28,8,32,-22,-10,1,100,27,1,-23,-32
-87,-76,11,81,-48,-32,9,59,-39,-58,-70,-68
-82,-96,-14,90,-34,-55,23,35,-90,-115,-100,-74
-70,-105,-36,88,-17,-70,43,32,-109,-132,-120,-99
-110,-136,-26,123,-41,-81,37,26,-126,-135,-123,-116
-93,-124,-32,109,-30,-78,35,23,-137,-146,-128,-114
-106,-128,-23,118,-42,-75,33,17,-133,-148,-129,-115
-126,-153,-27,140,-50,-89,28,16,-136,-147,-135,-116
-120,-144,-24,132,-47,-84,34,24,-138,-157,-143,-125
-124,-148,-24,137,-49,-86,34,31,-141,-168,-139,-125
-129,-168,-39,149,-45,-103,36,40,-140,-168,-140,-125
-126,-171,-45,149,-40,-108,34,43,-145,-166,-140,-122
-111,-162,-51,137,-30,-106,25,41,-145,-164,-140,-119
-132,-166,-34,149,-49,-99,44,37,-145,-166,-140,-121
-111,-151,-40,131,-36,-95,49,35,-145,-165,-145,-127
-102,-148,-46,125,-28,-97,40,31,-145,-165,-153,-136
-141,-174,-33,157,-53,-103,37,30,-146,-170,-157,-134
-135,-161,-26,148,-54,-93,29,41,-144,-170,-161,-136
-131,-148,-17,140,-57,-82,26,30,-158,-187,-158,-133
-116,-154,-38,135,-39,-96,20,17,-167,-197,-163,-139
-121,-163,-41,142,-39,-102,17,15,-164,-194,-175,-156
-126,-164,-39,145,-43,-101,13,8,-170,-206,-176,-153
-112,-154,-42,133,-35,-98,10,3,-172,-211,-173,-150
-124,-162,-38,143,-43,-99,5,-4,-176,-213,-171,-148
-130,-173,-43,152,-43,-108,8,-3,-174,-218,-168,-145
-118,-162,-44,140,-37,-103,17,4,-176,-220,-175,-143
-93,-153,-60,123,-17,-106,16,11,-195,-227,-182,-137
-106,-142,-36,125,-35,-89,11,18,-191,-227,-173,-134
-113,-125,-13,119,-50,-69,14,25,-177,-218,-162,-128
-105,-115,-10,110,-47,-63,46,30,-163,-202,-153,-124
-90,-78,12,84,-50,-33,54,23,-149,-191,-149,-121
-55,-51,4,53,-29,-23,18,15,-150,-196,-151,-119
-72,-53,19,62,-45,-17,-33,7,-151,-195,-149,-115
-82,-70,13,76,-47,-28,-51,0,-148,-195,-150,-113
-79,-110,-31,95,-24,-70,-25,-9,-154,-195,-149,-109
-95,-150,-55,123,-20,-103,-1,-20,-169,-204,-156,-115
-123,-177,-55,150,-33,-116,28,-32,-205,-254,-199,-156
-146,-187,-42,167,-52,-114,30,-44,-210,-260,-212,-171
-164,-216,-51,190,-56,-133,31,-35,-209,-259,-216,-170
-188,-212,-25,200,-81,-118,29,-39,-214,-266,-219,-170
-155,-223,-68,189,-43,-145,30,-17,-202,-260,-218,-170
-163,-207,-44,185,-59,-126,32,-22,-223,-275,-230,-172
-162,-205,-43,184,-59,-123,32,2,-170,-254,-215,-170
-143,-315,-172,229,15,-243,143,249,-178,-325,-293,-254
-53,-279,-226,166,87,-253,218,517,6,-226,-248,-229
93,204,111,-149,-9,158,-66,6,345,263,231,181
-31,943,974,-456,-502,958,-478,-999,442,886,850,699
-310,632,942,-161,-626,787,-531,-1370,-106,469,477,417
-458,-189,268,323,-363,40,-510,-1223,-905,-623,-422,-254
-320,-176,144,248,-232,-16,-393,-669,-631,-562,-397,-278
-198,-111,86,154,-142,-12,-85,-160,-209,-285,-219,-177
-193,-188,6,191,-99,-91,16,-41,-195,-298,-241,-179
-122,-188,-67,155,-27,-127,41,28,-117,-227,-198,-153
-113,-202,-89,158,-12,-145,56,36,-131,-268,-217,-167
-103,-184,-81,144,-11,-132,51,51,-96,-236,-195,-150
-99,-194,-95,147,-2,-144,54,65,-95,-233,-199,-155
-127,-209,-82,169,-23,-145,39,82,-85,-221,-189,-147
-131,-218,-87,175,-22,-152,38,72,-73,-212,-184,-145
-114,-195,-81,155,-16,-138,25,90,-70,-211,-180,-145
-100,-179,-79,140,-10,-129,23,123,-44,-194,-172,-139
-97,-175,-78,136,-9,-126,29,115,-23,-180,-164,-142
-91,-174,-83,132,-3,-128,20,128,13,-155,-149,-128
-86,-183,-97,135,6,-140,10,133,38,-141,-139,-103
-31,-150,-118,91,44,-134,-1,150,64,-114,-117,-88
-7,-128,-121,68,57,-125,-13,171,108,-86,-99,-82
4,-116,-120,56,62,-117,-24,192,166,-42,-66,-60
51,-76,-127,13,89,-101,-44,223,236,12,-24,-19
59,-65,-124,3,92,-94,-69,252,312,72,25,26
92,-32,-124,-30,108,-77,-106,273,377,135,76,67
126,11,-115,-68,121,-52,-128,275,429,186,111,95
134,37,-96,-85,115,-29,-148,269,433,215,139,118
112,48,-64,-80,88,-8,-165,253,419,194,135,121
69,44,-25,-57,47,10,-134,223,389,156,122,102
31,24,-7,-28,19,9,-86,185,267,86,62,54
-55,-35,20,44,-37,-7,-44,145,124,-29,-36,-25
-110,-90,20,100,-65,-35,-12,106,30,-112,-99,-75
-132,-140,-8,137,-62,-74,5,64,-51,-177,-157,-118
-159,-158,2,158,-80,-78,18,38,-113,-230,-198,-158
-181,-172,9,176,-95,-81,33,25,-140,-260,-220,-166
-173,-169,4,171,-88,-82,41,12,-156,-281,-234,-172
-169,-170,-1,170,-84,-85,40,10,-166,-288,-238,-171
-209,-217,-8,213,-100,-112,36,10,-164,-290,-246,-169
-209,-221,-12,215,-99,-116,35,9,-165,-290,-251,-184
-202,-218,-16,211,-93,-117,35,11,-165,-290,-255,-191
-202,-222,-19,212,-92,-120,36,7,-165,-290,-255,-193
-193,-218,-25,206,-84,-121,33,19,-165,-290,-259,-196
-193,-222,-29,208,-82,-126,42,37,-166,-289,-260,-200
-191,-224,-33,208,-78,-128,56,34,-170,-296,-256,-200
-188,-228,-40,208,-74,-134,55,35,-170,-306,-254,-196
-193,-230,-37,212,-78,-133,53,35,-172,-304,-250,-193
-197,-233,-36,216,-80,-134,50,35,-176,-308,-249,-190
-202,-236,-33,220,-84,-134,50,31,-175,-310,-244,-187
-192,-231,-39,212,-77,-135,48,24,-179,-310,-248,-185
-180,-229,-49,205,-66,-139,43,21,-183,-313,-260,-185
-193,-229,-37,211,-78,-133,40,14,-185,-316,-260,-185
-184,-221,-36,203,-74,-128,37,9,-194,-319,-262,-192
-184,-237,-53,211,-65,-145,32,3,-205,-322,-265,-197
-192,-247,-55,220,-69,-151,31,0,-209,-325,-268,-202
-183,-228,-45,206,-69,-136,34,-2,-204,-330,-271,-205
-188,-220,-32,204,-78,-126,41,-6,-195,-325,-275,-195
-193,-216,-23,205,-85,-119,43,3,-189,-317,-272,-179
-174,-188,-14,181,-80,-100,44,16,-182,-309,-253,-168
-180,-155,25,168,-102,-65,54,35,-178,-293,-245,-163
-185,-143,41,164,-113,-51,40,39,-175,-286,-243,-160
-169,-141,29,155,-99,-56,-10,22,-170,-293,-240,-157
-158,-139,19,148,-89,-59,-46,18,-173,-292,-237,-151
-136,-150,-15,143,-60,-82,-43,16,-194,-297,-234,-151
-143,-188,-44,166,-49,-116,-42,-4,-209,-307,-237,-157
-156,-226,-71,191,-42,-148,-4,-26,-217,-327,-263,-187
-193,-248,-56,221,-68,-152,40,-32,-241,-346,-289,-217
-215,-269,-54,242,-80,-162,40,-28,-239,-335,-290,-212
-207,-265,-58,237,-74,-162,37,-35,-244,-342,-301,-218
-212,-260,-48,237,-82,-154,33,-36,-225,-325,-288,-211
-207,-275,-68,242,-69,-171,33,-31,-228,-337,-307,-220
-214,-248,-34,231,-90,-141,24,-18,-217,-315,-292,-208
-208,-327,-120,268,-44,-223,87,105,-198,-352,-311,-241
-164,-385,-221,275,29,-303,213,412,-141,-380,-353,-312
-27,-163,-136,95,55,-150,134,361,171,-73,-96,-105
16,577,560,-297,-272,568,-316,-547,380,547,524,425
-211,918,1129,-354,-670,1022,-560,-1275,150,795,761,613
-452,89,541,181,-497,315,-483,-1328,-668,-207,-81,5
-433,-327,106,380,-270,-110,-470,-970,-918,-794,-550,-364
-284,-185,99,234,-191,-42,-234,-356,-366,-402,-295,-231
-218,-240,-22,229,-98,-131,-10,-95,-228,-332,-281,-212
-200,-260,-61,230,-69,-160,25,-24,-182,-292,-248,-191
-207,-281,-73,244,-67,-177,57,43,-139,-278,-242,-190
-174,-264,-90,219,-42,-177,41,52,-144,-285,-242,-190
-152,-267,-114,210,-19,-190,42,65,-114,-263,-225,-180
-183,-292,-109,238,-37,-200,34,61,-115,-272,-230,-183
-168,-277,-109,223,-30,-192,28,71,-87,-245,-211,-174
-158,-271,-112,214,-23,-191,25,72,-89,-244,-212,-173
-162,-269,-107,215,-27,-188,23,78,-74,-222,-197,-165
-158,-266,-108,212,-25,-187,23,81,-57,-213,-194,-163
-154,-272,-118,213,-18,-194,14,94,-24,-197,-183,-157
-131,-261,-131,196,0,-196,11,105,-2,-178,-163,-154
-134,-242,-108,188,-13,-175,5,117,26,-148,-144,-139
-129,-242,-113,186,-7,-177,-2,136,72,-104,-114,-113
-71,-218,-147,145,38,-182,-12,163,132,-56,-77,-87
-41,-193,-151,117,55,-171,-30,188,206,-4,-62,-54
