I,II,III,aVR,aVL,aVF,V1,V2,V3,V4,V5,V6
-68,-109,-41,89,-13,-74,120,110,-39,-67,31,-20
-78,-99,-21,89,-28,-60,117,109,-34,-53,35,-18
-59,-88,-30,74,-14,-59,111,105,-26,-61,35,-12
-65,-83,-18,74,-23,-50,106,102,-18,-60,35,-8
-78,-78,0,78,-39,-38,99,97,-11,-41,35,-4
-62,-73,-11,68,-25,-42,95,95,0,-34,35,1
-60,-70,-10,65,-25,-40,90,100,12,-25,37,4
-51,-66,-16,59,-17,-41,90,105,24,-20,40,7
-43,-62,-20,52,-11,-41,89,107,44,-11,44,9
-42,-60,-18,51,-12,-39,84,114,71,6,45,13
-38,-50,-12,45,-13,-31,86,129,104,27,56,15
-29,-38,-8,34,-11,-23,83,151,137,50,67,18
-24,-27,-3,26,-10,-14,96,186,189,80,84,38
-19,-19,0,19,-10,-9,103,222,262,121,115,43
8,15,7,-12,1,10,93,272,347,182,146,56
27,51,24,-39,2,37,87,341,459,262,188,83
54,76,21,-65,16,48,79,413,586,359,258,128
102,120,18,-111,42,68,72,470,698,463,329,183
153,159,5,-156,74,82,67,505,781,544,388,221
166,201,35,-184,66,118,63,541,843,617,454,268
134,213,79,-174,27,146,61,550,861,652,497,306
113,193,80,-153,16,136,56,511,803,622,481,302
122,188,66,-155,28,127,57,448,684,548,419,276
74,161,87,-118,-7,124,81,377,532,445,360,234
0,115,115,-58,-58,115,104,281,354,315,275,169
2,66,64,-34,-31,65,102,185,196,181,184,109
-25,9,34,8,-30,22,95,126,102,106,133,72
-53,-20,33,36,-43,6,91,85,36,51,88,55
-59,-37,22,48,-40,-7,73,53,-4,13,65,49
-65,-47,19,56,-41,-14,56,36,-35,7,60,40
-58,-44,14,51,-36,-15,55,31,-53,-3,52,32
-62,-50,12,56,-37,-19,55,26,-49,-10,46,26
-59,-50,9,55,-34,-20,55,22,-51,-27,38,20
-79,-50,29,64,-54,-10,55,17,-50,-36,36,15
-87,-50,37,68,-62,-6,55,15,-50,-34,40,9
-75,-50,25,62,-50,-12,60,25,-50,-44,43,3
-76,-50,26,62,-51,-12,58,35,-46,-44,45,1
-87,-50,37,68,-62,-6,54,37,-44,-39,48,6
-82,-50,32,66,-57,-9,55,31,-40,-38,50,12
-65,-50,15,57,-40,-17,54,27,-38,-32,46,15
-81,-62,19,71,-50,-21,56,22,-34,-31,42,20
-64,-59,5,61,-35,-27,54,17,-38,-34,39,24
-44,-47,-3,46,-20,-25,51,13,-49,-36,35,22
-66,-49,17,58,-41,-16,48,9,-56,-36,31,19
-67,-54,13,60,-40,-20,45,6,-61,-35,28,16
-63,-52,11,58,-37,-21,43,2,-65,-30,25,13
-63,-50,13,56,-39,-18,39,-1,-65,-28,25,10
-51,-49,1,50,-26,-24,46,-7,-66,-24,23,11
-55,-51,4,53,-29,-23,52,2,-63,-19,19,15
-71,-49,23,60,-47,-13,47,6,-70,-39,20,18
-76,-53,23,64,-49,-15,45,2,-86,-46,16,20
-74,-74,0,74,-37,-36,41,15,-85,-46,15,17
-45,-75,-30,61,-7,-52,39,10,-85,-60,15,14
-41,-70,-29,56,-6,-49,44,2,-85,-58,10,11
-44,-69,-25,57,-9,-47,45,-3,-84,-53,10,8
-45,-64,-19,55,-12,-41,45,-11,-88,-52,9,5
-61,-65,-4,63,-28,-34,45,-16,-90,-45,4,4
-31,-65,-34,48,2,-49,45,-20,-93,-48,-1,-4
-30,-65,-35,48,3,-50,44,-22,-96,-55,-5,-12
-33,-69,-36,52,1,-52,40,-25,-100,-55,-2,-12
-39,-70,-31,55,-4,-50,40,-28,-100,-55,4,-9
-50,-63,-12,57,-19,-37,40,-30,-96,-55,7,-6
-16,-60,-44,38,14,-52,40,-27,-93,-55,12,-3
-20,-54,-34,37,8,-44,40,-21,-90,-53,16,0
-24,-50,-26,37,1,-38,40,-17,-87,-47,14,1
-52,-65,-14,59,-19,-39,40,-12,-85,-43,16,8
-72,-72,0,72,-36,-35,40,-8,-83,-39,13,14
-49,-70,-20,59,-15,-45,41,-3,-78,-34,15,21
-50,-41,9,46,-29,-16,39,4,-75,-30,31,27
-35,3,38,16,-37,20,67,19,-58,-18,37,35
-39,10,49,14,-44,30,80,34,-42,-1,38,31
-36,18,54,8,-45,36,46,12,-49,6,43,27
-23,41,65,-9,-44,53,-2,-24,-50,12,56,52
-34,39,73,-2,-54,56,-27,-35,-58,19,56,62
-7,24,31,-9,-19,27,-19,-31,-57,16,46,60
8,-3,-11,-2,10,-7,-11,-23,-57,11,40,56
7,-32,-39,13,23,-35,-7,-24,-77,-4,33,57
-3,-61,-58,33,27,-59,3,-12,-88,-22,23,47
-42,-81,-39,62,-2,-59,14,-26,-96,-30,24,18
-44,-98,-54,72,5,-76,22,-45,-96,-63,12,5
-45,-82,-36,64,-5,-59,20,-42,-90,-36,19,14
-45,-96,-52,71,3,-74,19,-36,-87,-47,5,11
-45,-87,-42,66,-1,-64,24,-27,-82,-33,8,17
-59,-88,-29,74,-15,-58,22,-17,-62,-38,-2,9
-68,-162,-95,115,14,-128,172,212,74,-55,-78,-72
-88,-159,-71,124,-9,-115,346,494,299,28,-86,-117
111,-52,-163,-29,137,-107,11,-6,74,459,355,201
350,449,99,-400,125,274,-698,-1117,-613,1468,1319,923
249,375,126,-312,62,250,-760,-1234,-1079,791,1012,887
17,-262,-279,123,148,-271,-251,-480,-1029,-657,-127,144
-113,-321,-207,217,47,-264,-51,-45,-661,-537,-267,-123
-86,-311,-225,199,70,-268,72,198,-342,-355,-213,-128
-52,-271,-218,162,83,-244,186,259,-128,-223,-157,-100
-75,-178,-103,127,14,-140,158,194,-41,-84,-71,-59
-56,-144,-87,100,16,-115,134,139,-21,-73,-73,-51
-53,-106,-52,80,0,-79,92,72,-1,-9,-21,-29
-63,-117,-54,90,-4,-85,86,64,-2,-36,-30,-26
-68,-101,-33,85,-17,-66,80,46,9,-7,-11,-14
-66,-104,-38,85,-14,-70,71,50,14,-14,-12,-13
-43,-95,-52,70,5,-73,67,51,19,-1,-2,-5
-48,-92,-44,70,-2,-68,58,49,29,7,5,0
-27,-87,-60,57,17,-74,56,52,48,18,7,4
-35,-80,-45,58,5,-62,49,47,49,30,16,12
-80,-77,3,78,-41,-37,46,63,86,52,14,15
-28,-69,-40,49,6,-54,41,69,119,73,26,24
1,-66,-68,32,35,-66,36,79,131,84,35,25
-2,-57,-55,29,27,-56,38,97,179,128,60,43
10,-52,-61,21,36,-56,34,116,231,175,93,71
15,-37,-52,12,34,-44,21,150,306,239,130,90
55,-2,-57,-26,56,-29,11,183,397,325,190,119
110,42,-68,-76,89,-13,-3,223,505,442,257,163
141,74,-67,-107,104,3,-19,264,607,562,338,215
151,100,-51,-125,100,24,-35,296,685,651,409,262
167,127,-40,-147,103,44,-45,314,731,710,459,295
175,150,-24,-162,99,63,-45,320,730,732,471,313
178,166,-12,-172,95,76,-46,317,701,710,459,315
151,143,-8,-147,79,67,-32,294,607,633,413,282
73,115,42,-94,15,78,3,256,469,504,323,228
18,86,68,-52,-25,76,36,208,330,354,232,174
-6,47,53,-21,-29,50,46,158,201,227,144,106
-30,17,48,6,-39,33,45,115,125,142,90,65
-47,-8,39,27,-43,16,44,80,70,84,47,59
-54,-22,32,37,-42,5,40,51,17,38,16,36
-59,-35,25,47,-42,-5,40,28,-9,15,3,17
-58,-41,17,49,-37,-12,42,25,-23,5,-14,15
-55,-44,11,49,-33,-16,46,25,-30,-5,-18,8
-44,-42,1,43,-22,-21,44,21,-30,-15,-25,3
-34,-37,-3,35,-15,-20,46,20,-30,-29,-29,-3
-50,-35,15,42,-32,-10,44,20,-30,-32,-25,-3
-74,-30,44,52,-59,7,47,27,-30,-30,-25,3
-91,-27,64,58,-77,18,59,26,-28,-30,-25,7
-87,-24,63,55,-74,19,56,25,-25,-25,-25,11
-66,-18,48,41,-57,15,50,24,-22,-25,-25,16
-55,-13,43,34,-49,15,45,19,-19,-27,-25,20
-69,-7,62,38,-65,27,38,20,-16,-30,-25,15
-71,-1,70,36,-70,34,34,18,-15,-33,-25,10
-55,4,59,25,-58,31,30,11,-26,-35,-25,6
-49,8,57,21,-54,32,30,6,-44,-39,-25,1
-45,4,49,20,-47,26,30,1,-57,-40,-25,-3
-45,1,45,22,-45,23,30,-5,-61,-44,-30,-8
-53,-3,50,28,-51,24,30,-10,-63,-45,-30,-10
-58,-6,51,32,-54,22,26,-16,-67,-48,-33,-10
-79,-11,68,44,-73,28,25,-21,-68,-50,-35,-9
-91,-9,82,50,-86,36,25,-27,-73,-51,-35,-11
-90,-11,79,50,-84,34,25,-33,-83,-55,-40,-9
-86,-9,77,47,-82,34,25,-35,-85,-55,-40,-12
-71,1,71,35,-71,36,26,-38,-87,-54,-40,-25
-80,-9,71,45,-75,31,30,-41,-90,-56,-40,-25
-68,-4,64,35,-66,30,30,-45,-91,-54,-40,-25
-56,8,64,23,-60,36,32,-45,-95,-55,-38,-25
-50,5,55,22,-53,29,35,-40,-98,-66,-32,-25
-53,2,56,25,-55,29,35,-37,-100,-65,-29,-24
-88,-2,85,45,-86,41,32,-33,-100,-63,-23,-20
-73,-5,69,39,-70,32,26,-30,-100,-66,-41,-20
-68,-11,58,40,-63,23,21,-24,-100,-68,-57,-17
-67,-7,60,37,-63,26,18,-29,-99,-71,-51,-15
-54,-1,52,27,-53,25,12,-38,-93,-67,-48,-15
-50,4,54,23,-52,28,10,-35,-86,-63,-45,-25
-36,11,47,13,-42,29,17,-31,-79,-59,-41,-26
-57,12,69,22,-63,40,17,-30,-72,-55,-38,-8
-55,61,116,-3,-86,89,38,-19,-66,-50,-27,-7
-49,99,148,-25,-98,123,66,-5,-63,-45,-18,2
-48,96,143,-24,-95,119,48,4,-62,-40,-8,22
-28,117,145,-45,-87,131,-14,-23,-56,-36,19,31
-33,131,164,-49,-99,147,-55,-63,-84,-32,10,33
-32,110,142,-39,-87,125,-41,-65,-115,-30,-22,14
-37,72,109,-18,-73,90,-43,-57,-116,-46,-27,1
-42,55,97,-7,-70,76,-46,-58,-112,-45,-21,-4
-44,35,79,4,-62,56,-28,-50,-123,-60,-34,-18
-64,26,90,18,-77,58,-24,-50,-134,-74,-46,-20
-74,7,81,33,-78,44,-17,-65,-135,-85,-68,-43
-82,4,86,38,-84,45,-12,-64,-136,-79,-67,-43
-91,-2,90,46,-90,44,-8,-56,-132,-96,-63,-37
-80,-14,66,47,-73,26,2,-42,-141,-100,-62,-37
-100,-2,98,51,-99,48,-5,-44,-111,-81,-46,-22
-114,-58,56,85,-84,-1,130,149,0,-128,-124,-103
-79,-51,28,64,-53,-11,332,466,221,-76,-168,-170
77,42,-36,-60,56,3,11,4,74,314,201,84
320,529,208,-425,56,368,-789,-1187,-552,1415,1189,801
325,569,244,-447,41,406,-975,-1517,-1085,1062,1139,914
76,-147,-223,36,150,-185,-448,-798,-1226,-609,-55,174
-103,-289,-186,197,41,-237,-152,-232,-857,-702,-361,-157
-124,-222,-98,173,-13,-160,10,55,-445,-423,-280,-170
-103,-162,-59,132,-21,-110,151,192,-215,-318,-241,-168
-78,-29,49,53,-63,10,109,132,-94,-137,-129,-118
-99,-12,87,55,-93,37,74,66,-82,-156,-137,-112
-121,41,162,40,-142,101,43,41,-55,-100,-99,-90
-114,29,143,42,-129,86,34,33,-53,-121,-105,-89
-113,39,153,37,-134,95,37,22,-39,-97,-99,-83
-101,49,150,26,-126,100,33,17,-30,-95,-98,-85
-98,49,147,24,-123,98,36,24,-22,-88,-96,-86
-103,51,154,26,-129,102,34,25,-12,-76,-93,-84
-107,44,151,31,-130,97,36,33,-4,-75,-95,-87
-89,46,135,21,-112,90,34,34,21,-60,-81,-79
-66,45,110,10,-88,77,35,30,34,-62,-73,-72
-75,62,137,7,-106,99,35,45,59,-38,-64,-58
-82,70,153,6,-117,112,35,70,101,-4,-54,-54
-68,81,149,-6,-109,114,34,101,146,36,-25,-61
-47,103,150,-28,-98,126,30,141,205,60,-2,-44
-34,121,155,-44,-94,138,31,194,295,110,21,-15
-14,153,167,-70,-91,160,28,249,402,195,74,21
25,184,159,-105,-67,171,24,320,531,293,139,57
59,217,159,-138,-50,188,25,393,660,400,215,102
110,263,153,-187,-22,208,28,435,757,484,287,146
134,283,149,-209,-8,216,31,469,817,560,340,177
144,307,163,-226,-9,235,34,475,823,587,374,205
185,332,147,-258,19,239,37,448,785,565,373,202
140,319,179,-229,-20,249,40,406,685,504,331,187
63,275,212,-169,-75,243,39,331,520,384,260,150
19,229,210,-124,-96,219,35,231,332,252,171,97
-11,192,203,-90,-108,198,33,141,182,120,85,37
-23,142,164,-59,-94,153,30,78,72,33,24,-8
-54,112,166,-29,-111,139,26,36,-3,-27,-14,-28
-76,97,173,-11,-125,135,25,3,-46,-60,-28,-63
-78,82,160,-2,-119,121,21,-16,-77,-64,-42,-72
-76,80,156,-2,-116,118,20,-28,-91,-95,-55,-69
-68,80,148,-6,-108,114,20,-41,-99,-107,-55,-71
-56,80,137,-12,-97,108,16,-48,-96,-104,-53,-69
-68,79,147,-6,-107,113,14,-43,-91,-110,-61,-75
-83,82,165,0,-124,123,17,-37,-89,-110,-75,-74
-100,70,170,15,-135,120,20,-33,-85,-106,-75,-76
-91,85,177,3,-134,131,20,-26,-80,-105,-75,-80
-59,112,170,-27,-115,141,20,-21,-83,-104,-75,-80
-57,103,160,-23,-109,131,20,-23,-86,-101,-75,-78
-57,99,156,-21,-107,127,20,-26,-86,-99,-73,-74
-53,93,145,-20,-99,119,16,-23,-91,-105,-67,-72
-58,87,145,-15,-102,115,10,-29,-90,-120,-62,-69
-77,85,162,-5,-120,124,5,-38,-97,-120,-59,-66
-92,84,176,3,-134,130,0,-52,-111,-121,-53,-65
-92,85,178,3,-136,131,-7,-67,-118,-126,-50,-71
-75,84,160,-5,-118,122,-10,-65,-121,-124,-69,-75
-88,96,183,-4,-136,139,-10,-65,-125,-128,-84,-75
-90,102,191,-6,-141,146,-10,-66,-130,-132,-85,-82
-82,97,179,-7,-131,137,-10,-64,-129,-137,-86,-86
-99,95,194,2,-147,144,-18,-71,-136,-140,-90,-85
-93,91,185,1,-139,137,-21,-77,-146,-135,-98,-85
-95,89,184,2,-140,136,-20,-75,-145,-135,-100,-85
-88,94,181,-3,-135,137,-18,-75,-145,-135,-100,-85
-83,95,179,-6,-131,136,-15,-75,-146,-135,-100,-85
-92,95,186,-2,-140,141,-15,-75,-144,-134,-100,-85
-88,95,183,-4,-136,139,-18,-75,-146,-137,-99,-85
-96,94,191,1,-144,142,-22,-78,-144,-142,-100,-85
-79,96,176,-9,-128,136,-26,-88,-146,-145,-100,-86
-42,100,141,-29,-91,120,-42,-97,-170,-162,-100,-96
-79,100,179,-11,-129,139,-46,-88,-175,-165,-101,-89
-107,100,207,4,-157,153,-41,-86,-166,-159,-94,-85
-87,100,187,-7,-137,144,-39,-111,-164,-157,-112,-110
-91,100,190,-4,-141,145,-36,-113,-158,-152,-121,-113
-87,103,190,-9,-139,146,-34,-103,-155,-150,-111,-103
-73,109,182,-19,-128,145,-30,-98,-148,-145,-111,-98
-78,111,188,-17,-133,149,-22,-90,-141,-139,-99,-91
-66,122,188,-28,-128,155,-19,-80,-133,-133,-85,-83
-63,154,217,-46,-140,185,-9,-71,-132,-127,-73,-74
-66,201,267,-68,-167,234,21,-78,-135,-124,-69,-64
-47,215,262,-84,-155,238,-14,-71,-136,-119,-67,-62
1,223,222,-112,-111,222,-80,-90,-140,-118,-64,-66
12,240,227,-126,-108,233,-95,-117,-140,-111,-61,-64
-25,208,234,-92,-130,221,-96,-115,-145,-111,-59,-69
-5,187,192,-92,-99,190,-94,-115,-154,-128,-70,-70
-27,158,185,-66,-106,171,-96,-116,-156,-139,-73,-70
-32,115,147,-41,-90,131,-91,-127,-178,-152,-90,-80
-34,118,152,-43,-93,135,-77,-131,-185,-155,-109,-92
-76,110,186,-18,-131,148,-62,-129,-185,-171,-113,-113
-79,120,200,-21,-140,160,-54,-127,-174,-162,-106,-105
-60,110,170,-25,-115,139,-49,-125,-165,-194,-139,-125
-53,120,173,-33,-113,146,-42,-124,-165,-191,-138,-129
-100,97,197,1,-149,147,-34,-94,-136,-194,-121,-105
-93,44,137,24,-115,90,129,158,-43,-221,-203,-191
-102,42,144,29,-124,93,279,401,182,-130,-209,-226
136,205,68,-171,34,136,-215,-355,-84,403,306,146
446,728,282,-588,82,505,-1018,-1559,-699,1242,1179,832
283,500,217,-391,33,358,-967,-1532,-1138,401,747,694
35,-175,-210,70,122,-192,-430,-767,-1256,-855,-312,-38
-77,-166,-89,122,6,-127,-204,-276,-813,-666,-401,-236
-98,-104,-6,101,-46,-55,-15,7,-439,-482,-341,-250
-99,-30,69,64,-83,19,81,79,-244,-345,-268,-222
-110,59,169,25,-140,114,44,34,-132,-242,-183,-174
-90,93,183,-2,-136,138,24,-18,-131,-227,-185,-176
-118,124,242,-3,-181,183,2,-48,-102,-174,-158,-158
-121,107,228,7,-176,168,0,-45,-112,-201,-174,-163
-102,136,239,-17,-171,187,0,-40,-97,-176,-158,-150
-99,139,238,-20,-169,188,-3,-35,-92,-188,-163,-149
-99,141,240,-21,-169,190,-6,-32,-78,-178,-158,-142
-103,139,242,-18,-173,190,-3,-25,-66,-177,-152,-139
-89,154,244,-33,-167,199,-23,-35,-54,-159,-147,-141
-81,167,248,-43,-165,207,-30,-37,-31,-139,-138,-135
-85,164,249,-40,-168,206,-14,-15,-5,-136,-134,-135
-90,164,254,-38,-172,209,-15,0,30,-116,-122,-134
-82,173,255,-46,-169,214,-10,26,53,-100,-112,-128
-53,197,250,-73,-152,223,-9,64,109,-64,-97,-116
-42,192,235,-75,-139,213,-5,100,179,-24,-72,-99
-23,224,246,-101,-135,235,-5,160,266,33,-29,-74
28,261,233,-145,-103,247,-15,222,382,114,12,-36
49,286,237,-168,-94,261,-23,292,506,209,66,8
74,333,258,-204,-92,295,-33,356,616,309,147,51
130,367,237,-249,-54,302,-41,389,700,395,214,95
155,397,242,-276,-44,319,-53,401,749,452,258,128
169,406,238,-288,-34,322,-57,390,750,451,276,146
160,409,249,-284,-45,328,-50,378,715,440,271,154
107,386,279,-246,-87,332,-44,319,590,387,241,139
62,343,281,-203,-109,312,-41,243,419,268,161,95
47,313,266,-180,-110,289,-45,163,250,134,62,36
-5,262,267,-128,-137,265,-45,71,109,20,-13,-14
-59,207,266,-74,-163,236,-45,8,17,-59,-70,-60
-37,179,216,-71,-127,197,-53,-55,-68,-129,-122,-98
-61,172,233,-56,-147,202,-56,-84,-100,-156,-136,-110
-94,167,262,-37,-178,214,-55,-94,-119,-169,-133,-109
-66,164,229,-49,-148,196,-52,-102,-138,-183,-162,-112
-74,158,233,-42,-154,195,-49,-99,-133,-181,-172,-115
-83,155,238,-37,-161,196,-51,-99,-132,-187,-168,-115
-75,160,235,-42,-155,197,-54,-94,-128,-194,-171,-117
-93,159,253,-33,-173,206,-58,-96,-125,-197,-169,-116
-91,163,254,-36,-173,209,-63,-93,-126,-194,-170,-115
-87,166,253,-39,-170,209,-65,-89,-130,-195,-165,-115
-55,165,220,-55,-138,192,-65,-91,-130,-195,-165,-115
-55,164,218,-55,-137,191,-69,-90,-130,-195,-164,-115
-101,160,260,-30,-180,210,-70,-90,-131,-196,-160,-113
-58,160,218,-51,-138,189,-70,-90,-130,-195,-159,-110
-60,158,217,-49,-139,187,-70,-96,-134,-196,-163,-107
-96,154,250,-30,-174,202,-70,-103,-141,-194,-165,-104
-74,152,226,-39,-150,189,-70,-108,-147,-197,-166,-100
-61,149,210,-44,-136,179,-70,-111,-150,-210,-179,-101
-58,146,204,-44,-132,175,-70,-109,-150,-210,-180,-104
-78,144,222,-34,-150,183,-68,-114,-153,-205,-180,-111
-76,140,215,-32,-146,177,-64,-115,-156,-204,-180,-116
-46,133,180,-44,-113,156,-65,-115,-159,-199,-180,-115
-55,129,184,-37,-120,156,-65,-120,-161,-201,-179,-114
-73,122,195,-25,-134,158,-65,-120,-165,-206,-175,-110
-74,118,191,-22,-133,154,-65,-120,-164,-210,-175,-110
-77,112,189,-18,-133,150,-60,-119,-168,-214,-172,-107
-74,109,184,-18,-129,146,-60,-121,-176,-212,-170,-105
-71,110,181,-20,-126,146,-59,-117,-175,-207,-169,-105
-70,106,176,-18,-123,141,-63,-112,-174,-204,-177,-106
-53,105,158,-26,-106,131,-74,-131,-171,-200,-183,-110
-58,104,162,-23,-111,133,-75,-137,-169,-196,-177,-105
-81,101,182,-10,-132,141,-75,-130,-171,-194,-174,-99
-84,98,182,-7,-133,140,-76,-130,-169,-196,-171,-95
-69,95,165,-13,-118,130,-77,-125,-170,-200,-165,-87
-65,92,157,-14,-111,125,-73,-124,-170,-200,-167,-88
-64,89,153,-13,-109,121,-72,-126,-170,-200,-174,-95
-62,92,155,-15,-109,123,-67,-123,-170,-200,-176,-94
-48,99,147,-25,-98,123,-66,-127,-166,-201,-172,-101
-48,105,153,-28,-101,129,-62,-117,-158,-195,-164,-89
-55,125,180,-36,-118,152,-41,-91,-132,-167,-140,-69
-2,166,168,-82,-85,167,-26,-67,-117,-154,-123,-65
-15,177,192,-81,-104,184,-41,-66,-121,-155,-125,-56
-45,174,219,-65,-132,196,-102,-116,-121,-154,-125,-52
-18,193,212,-88,-115,202,-133,-135,-140,-149,-125,-42
-10,187,197,-88,-104,192,-127,-126,-155,-149,-125,-47
21,156,135,-89,-57,145,-125,-125,-160,-152,-125,-66
42,124,82,-84,-20,103,-122,-118,-163,-147,-129,-64
0,76,76,-38,-38,76,-117,-139,-167,-168,-131,-66
-59,43,102,7,-81,72,-95,-144,-164,-164,-130,-67
-77,4,81,36,-79,42,-75,-111,-158,-187,-159,-87
-69,5,74,32,-72,40,-69,-105,-155,-183,-162,-78
-69,-1,68,35,-68,33,-64,-98,-148,-187,-166,-72
-86,-10,76,48,-81,32,-52,-82,-148,-178,-149,-68
-79,0,79,39,-79,39,-56,-95,-127,-169,-126,-57
-75,-60,16,67,-45,-22,64,92,-17,-204,-197,-141
-98,-59,39,78,-69,-9,259,405,220,-116,-233,-194
89,5,-84,-47,86,-39,-3,27,78,229,125,62
359,472,113,-416,123,292,-716,-1090,-591,1208,1087,782
310,516,205,-413,52,360,-883,-1367,-1105,782,967,859
72,-152,-224,40,148,-188,-381,-644,-1130,-728,-186,120
-54,-280,-227,167,87,-253,-126,-175,-793,-728,-425,-181
-73,-245,-172,159,49,-208,-24,77,-440,-486,-345,-200
-74,-228,-154,151,40,-190,107,203,-207,-369,-302,-173
-43,-128,-85,86,21,-106,80,130,-107,-212,-215,-128
-46,-108,-62,77,8,-85,39,50,-91,-217,-200,-114
-53,-69,-16,61,-18,-42,4,-8,-67,-150,-157,-83
-36,-75,-39,55,1,-57,-2,-15,-63,-167,-165,-96
-42,-67,-25,55,-9,-46,2,-16,-49,-142,-125,-77
-42,-74,-32,58,-4,-53,-2,-14,-40,-140,-123,-71
-47,-76,-29,62,-8,-52,2,-10,-29,-120,-120,-61
-48,-78,-30,63,-9,-54,-1,-11,-14,-108,-111,-53
-53,-83,-30,68,-11,-56,-3,-7,-1,-105,-112,-49
-52,-84,-31,68,-10,-57,-11,1,14,-91,-100,-40
-35,-85,-50,60,8,-67,-18,8,28,-85,-94,-35
-24,-74,-50,49,13,-62,-23,14,49,-60,-79,-29
-14,-65,-51,40,19,-58,-32,32,89,-33,-53,-22
17,-57,-74,20,46,-65,-34,47,124,-2,-33,-17
32,-48,-80,8,56,-64,-37,70,179,45,-10,-2
41,-26,-67,-7,54,-46,-32,105,261,117,35,34
96,2,-93,-49,94,-45,-38,144,351,206,94,74
115,21,-94,-68,104,-36,-54,197,470,322,171,125
156,52,-104,-104,130,-26,-62,237,570,435,249,173
200,87,-113,-143,157,-13,-89,266,647,526,319,218
200,113,-87,-156,143,13,-92,295,705,598,376,259
231,120,-111,-175,171,5,-80,300,717,625,406,289
213,112,-101,-162,157,5,-75,301,696,605,398,292
178,111,-67,-145,123,22,-62,282,612,535,359,255
158,88,-70,-123,114,9,-42,230,470,411,277,209
96,40,-56,-67,76,-8,4,192,335,281,183,164
46,-8,-54,-19,50,-31,27,147,213,158,111,111
10,-56,-66,24,38,-61,19,91,102,62,44,64
1,-84,-85,42,43,-84,15,50,42,7,7,42
3,-108,-112,53,58,-110,9,21,14,-29,-18,28
-10,-124,-114,67,52,-118,3,6,-20,-51,-42,15
-25,-131,-106,78,41,-118,1,-4,-49,-77,-53,10
-48,-150,-102,99,27,-126,9,-9,-49,-89,-60,10
-47,-150,-104,98,28,-127,19,0,-40,-84,-61,10
-45,-153,-108,99,32,-130,26,10,-35,-86,-60,9
-9,-156,-146,83,69,-151,36,20,-27,-82,-57,12
-4,-157,-153,81,75,-154,37,22,-21,-80,-54,15
-7,-161,-154,85,73,-157,33,19,-20,-80,-55,18
4,-159,-163,78,83,-161,29,20,-20,-76,-48,20
-27,-160,-133,94,53,-147,26,19,-20,-72,-39,24
-2,-160,-158,81,78,-158,21,20,-20,-66,-31,25
8,-161,-169,77,89,-164,21,18,-22,-63,-22,25
-3,-165,-162,84,79,-163,26,15,-25,-57,-20,30
-7,-174,-168,91,81,-171,30,13,-28,-56,-20,30
-8,-171,-163,90,78,-167,35,9,-32,-65,-20,31
-7,-173,-166,90,80,-169,31,7,-35,-71,-20,35
-9,-191,-182,100,87,-186,30,4,-39,-75,-21,35
-27,-208,-180,118,77,-194,30,12,-43,-72,-25,35
-61,-220,-160,141,49,-190,25,22,-48,-69,-25,35
-28,-223,-195,125,84,-209,25,20,-49,-70,-25,35
-6,-225,-219,116,107,-222,26,17,-45,-65,-25,31
-17,-230,-213,124,98,-221,32,15,-40,-65,-25,30
-23,-240,-217,132,97,-228,39,11,-38,-64,-23,29
-33,-246,-213,140,90,-230,44,10,-33,-60,-18,26
-19,-251,-232,135,107,-241,46,6,-30,-60,-15,24
-19,-254,-235,137,108,-244,45,5,-46,-60,-12,27
-22,-259,-237,141,107,-248,45,5,-52,-60,-7,30
-5,-260,-254,133,124,-257,44,5,-46,-60,-4,30
-8,-260,-252,135,122,-256,46,4,-45,-57,-1,36
-35,-281,-246,158,106,-264,50,7,-40,-54,0,41
-39,-286,-247,163,104,-267,50,10,-40,-51,0,40
-16,-284,-267,150,126,-275,50,12,-40,-48,0,40
-7,-287,-279,147,136,-283,50,15,-45,-46,0,40
-11,-292,-280,152,135,-286,50,18,-45,-43,2,40
-15,-300,-285,158,135,-292,53,22,-45,-51,12,45
-10,-293,-283,152,137,-288,58,22,-43,-50,19,47
-21,-272,-251,147,115,-261,76,46,-14,-25,30,56
-17,-234,-217,126,100,-225,97,69,12,2,43,77
32,-205,-237,87,135,-221,106,56,17,16,45,79
38,-202,-240,82,139,-221,78,41,9,24,62,95
37,-197,-234,80,136,-215,29,31,-4,22,71,112
23,-195,-218,86,121,-206,6,27,-15,15,65,104
11,-224,-235,106,124,-229,18,24,-24,5,60,98
72,-248,-320,88,197,-284,26,21,-25,-2,54,90
52,-276,-328,113,190,-302,14,15,-27,-9,49,83
-15,-321,-306,168,146,-313,30,17,-30,-19,42,74
-5,-337,-332,171,164,-334,51,21,-37,-30,43,73
-15,-363,-348,189,167,-355,54,29,-54,-55,31,63
-8,-350,-343,179,168,-346,50,32,-41,-33,39,68
17,-371,-388,177,203,-379,68,33,-41,-56,21,54
18,-355,-373,169,196,-364,68,27,-38,-27,32,60
-2,-378,-376,190,187,-376,83,54,-2,-47,9,49
-67,-449,-382,258,158,-415,289,374,162,-67,-60,-42
-12,-428,-416,221,202,-422,377,532,338,41,-12,-29
241,-198,-439,-21,340,-318,-190,-337,-36,729,638,431
443,303,-140,-373,291,82,-898,-1404,-668,1593,1502,1107
296,-51,-347,-123,322,-199,-731,-1225,-1071,431,811,797
43,-669,-711,313,377,-690,-228,-453,-1035,-773,-195,92
-46,-629,-583,338,269,-606,-41,-36,-593,-468,-191,-44
-72,-611,-539,342,234,-575,163,223,-242,-320,-155,-74
-32,-512,-480,273,224,-496,245,277,-45,-157,-65,-21
-9,-441,-432,225,212,-436,191,205,15,-87,-4,21
-19,-412,-394,216,188,-403,175,162,39,-58,27,39
-19,-381,-362,200,171,-371,164,136,67,-9,65,60
-22,-397,-375,210,176,-386,161,139,63,-29,46,58
-21,-384,-363,202,171,-374,149,131,79,1,61,80
-6,-394,-387,200,190,-390,146,132,94,-14,51,72
-2,-388,-385,195,192,-386,135,122,106,4,55,76
-42,-388,-347,215,153,-367,141,138,114,1,63,75
-20,-381,-361,200,171,-371,157,165,142,11,84,74
7,-373,-380,183,194,-377,149,167,148,42,88,78
-6,-368,-362,187,178,-364,145,168,168,59,86,87
-16,-360,-344,188,164,-352,142,178,206,77,98,90
6,-349,-356,172,181,-352,134,203,235,104,97,101
44,-334,-378,146,211,-356,141,235,291,137,116,118
47,-322,-369,137,208,-345,146,271,358,182,149,119
66,-302,-368,119,217,-335,145,326,455,245,190,149
85,-273,-358,95,222,-316,144,396,581,343,250,181
136,-236,-371,50,254,-303,139,460,700,437,314,216
180,-195,-375,8,278,-285,141,523,822,546,400,278
196,-160,-356,-18,277,-258,137,564,908,638,468,319
195,-150,-345,-22,270,-247,135,587,951,685,512,358
195,-148,-344,-23,269,-246,135,580,955,713,517,366
209,-151,-360,-28,284,-255,135,545,896,674,506,349
195,-148,-343,-23,269,-246,134,494,768,588,473,330
176,-157,-334,-10,255,-245,136,414,588,461,384,278
80,-211,-291,65,186,-250,157,338,428,333,305,234
38,-264,-302,113,171,-283,157,256,289,228,236,197
46,-310,-356,132,202,-333,145,180,177,145,188,164
-8,-338,-330,173,161,-334,139,137,127,106,154,144
8,-343,-352,168,180,-347,127,111,83,64,122,126
23,-354,-377,166,201,-365,125,100,55,35,113,113
7,-371,-378,182,193,-374,125,97,55,32,107,109
22,-373,-395,175,209,-384,124,93,50,25,102,107
24,-363,-387,170,206,-375,126,90,49,23,96,104
13,-361,-374,174,194,-368,124,85,45,17,90,101
-7,-358,-350,183,172,-354,127,86,45,15,95,99
-45,-355,-310,200,133,-332,137,103,56,32,104,96
-15,-352,-338,184,162,-345,135,112,60,37,105,92
26,-350,-375,162,200,-362,134,104,60,34,104,90
7,-348,-355,170,182,-351,135,101,58,35,105,82
6,-342,-348,169,177,-345,134,96,54,30,104,104
0,-337,-338,169,169,-337,136,91,55,30,105,119
-5,-334,-328,170,162,-331,131,87,52,29,108,108
-2,-328,-326,165,162,-327,130,84,49,24,111,102
-7,-325,-318,166,156,-321,130,85,50,26,114,95
-12,-330,-318,171,153,-324,125,81,50,22,116,85
-29,-338,-310,184,141,-324,125,80,50,20,120,89
-28,-337,-310,183,141,-323,124,80,50,20,119,109
4,-334,-338,165,172,-336,120,75,44,17,114,111
12,-335,-348,162,181,-341,118,73,37,14,108,109
12,-331,-343,160,178,-337,115,69,31,11,105,111
14,-330,-344,158,179,-336,111,66,24,8,100,110
9,-329,-338,160,174,-334,110,62,17,5,95,108
15,-326,-341,155,178,-332,107,60,15,6,99,101
16,-323,-339,153,178,-331,104,60,15,13,101,93
20,-320,-340,150,180,-330,105,60,15,15,97,89
16,-317,-333,151,175,-325,105,60,15,15,95,79
7,-315,-321,154,165,-318,105,59,14,15,91,79
6,-315,-320,154,164,-317,103,55,10,15,89,103
0,-315,-315,158,158,-315,100,50,5,15,95,107
1,-315,-315,158,158,-315,100,45,1,16,105,103
-6,-315,-309,160,152,-311,98,42,-4,20,110,102
-2,-315,-313,159,156,-313,94,35,-9,20,109,99
24,-314,-338,145,182,-326,95,40,-8,22,112,102
27,-310,-337,142,182,-323,98,46,-3,26,116,105
26,-306,-332,140,180,-319,100,44,0,24,114,105
24,-304,-328,140,177,-315,102,46,3,29,116,105
25,-299,-324,137,174,-311,106,44,8,30,113,105
11,-297,-308,143,160,-302,107,56,10,30,118,104
-3,-287,-284,145,141,-285,123,81,27,52,134,112
34,-251,-285,109,160,-268,145,97,56,68,145,122
60,-224,-284,83,172,-254,119,89,57,65,151,124
65,-223,-288,80,176,-255,84,67,44,64,148,131
78,-211,-289,66,184,-250,82,55,32,73,162,145
74,-218,-292,72,183,-255,76,49,23,76,172,150
49,-251,-299,101,175,-275,72,42,15,59,153,139
67,-263,-330,98,199,-296,69,37,12,53,148,136
90,-292,-382,102,237,-337,60,34,6,38,132,126
63,-305,-368,121,216,-337,78,32,-1,41,127,120
35,-330,-365,147,200,-347,96,27,-2,33,119,107
1,-339,-341,169,171,-340,99,26,-4,27,114,92
-16,-328,-313,172,149,-320,97,23,11,30,118,94
-6,-350,-344,179,169,-347,108,37,0,9,98,80
-16,-324,-307,170,146,-315,97,31,24,33,122,98
-21,-370,-349,196,164,-359,158,142,58,-21,55,37
-57,-379,-322,218,133,-351,395,509,274,7,-11,-48
43,-343,-386,150,215,-365,254,290,295,247,203,98
399,84,-314,-241,356,-115,-563,-945,-255,1145,1079,749
489,341,-148,-415,318,96,-965,-1569,-770,1216,1390,1102
207,-344,-551,68,379,-447,-509,-954,-1094,-287,304,447
13,-629,-642,309,327,-635,-144,-313,-882,-662,-205,-21
-27,-512,-485,270,229,-499,27,41,-398,-327,-104,-48
-30,-488,-458,259,214,-473,209,219,-162,-242,-87,-47
-51,-365,-314,208,132,-339,221,203,-1,-60,23,15
-50,-333,-284,192,117,-308,170,149,23,-55,29,12
-12,-282,-270,147,129,-275,133,114,45,-11,62,30
6,-256,-262,125,134,-258,124,109,60,-22,53,37
10,-239,-249,115,130,-244,126,105,63,-17,54,44
3,-232,-234,115,119,-233,122,102,75,-9,57,47
-3,-230,-227,117,112,-228,120,97,80,-15,53,43
-10,-220,-210,115,100,-215,119,95,97,-1,80,47
-14,-219,-206,117,96,-212,124,99,97,1,78,43
-10,-206,-196,108,93,-201,125,105,116,37,84,49
-10,-201,-191,106,91,-196,125,121,135,38,85,49
-6,-190,-184,98,89,-186,125,128,158,39,86,54
-9,-186,-177,98,84,-181,125,144,191,71,95,56
-2,-179,-177,91,88,-178,124,178,239,100,114,59
31,-150,-181,59,107,-165,119,216,300,129,142,68
64,-122,-186,29,125,-153,116,258,378,177,157,76
94,-94,-189,0,141,-141,113,308,469,239,191,107
137,-54,-191,-42,164,-122,108,390,593,329,256,148
168,-20,-188,-74,178,-104,105,454,721,440,326,199
204,12,-193,-108,198,-90,101,491,802,518,392,246
228,49,-179,-138,203,-65,95,526,876,589,445,280
225,83,-142,-153,183,-30,90,520,903,634,486,311
236,100,-136,-167,186,-18,85,511,885,632,509,318
237,103,-134,-170,186,-15,77,484,819,605,484,311
211,89,-122,-150,167,-16,78,415,668,503,410,270
157,39,-119,-98,138,-40,94,334,499,369,331,218
105,-5,-110,-50,108,-57,95,246,342,254,249,162
54,-50,-104,-2,79,-77,87,163,218,156,177,102
12,-87,-99,37,56,-92,81,96,131,90,127,71
-11,-96,-85,54,37,-90,74,54,71,41,87,60
-2,-107,-106,55,52,-107,68,27,36,22,66,55
10,-115,-124,53,67,-119,61,11,25,5,61,47
-9,-119,-110,64,51,-114,60,10,22,-23,57,41
10,-116,-127,53,69,-121,60,9,15,-19,52,35
23,-113,-136,45,80,-124,60,5,10,-17,48,30
15,-111,-126,48,71,-118,59,5,6,-14,43,25
20,-107,-127,44,74,-116,62,6,11,-11,40,20
-1,-105,-105,53,53,-105,66,12,21,-10,37,16
-24,-102,-78,64,27,-90,62,19,23,-16,35,11
-19,-94,-75,57,28,-84,59,16,16,-22,32,7
-11,-86,-75,49,32,-80,56,12,11,-25,29,5
-2,-78,-75,41,37,-77,51,9,5,-47,27,5
3,-71,-74,34,39,-72,49,6,0,-36,24,5
6,-70,-75,33,40,-72,44,0,-5,-23,21,5
0,-70,-70,35,35,-70,39,0,-12,-26,18,5
-1,-70,-69,36,34,-69,35,-11,-20,-25,15,0
-4,-70,-66,38,31,-67,30,-27,-27,-37,14,0
-16,-70,-54,44,19,-62,25,-25,-25,-39,9,0
15,-68,-82,27,49,-74,25,-40,-43,-59,5,0
12,-64,-76,27,45,-70,25,-48,-53,-68,5,0
-6,-65,-59,36,27,-62,25,-43,-48,-63,5,-2
8,-65,-72,29,40,-68,25,-43,-51,-63,5,-8
1,-65,-66,33,34,-65,25,-39,-49,-59,5,-12
1,-65,-65,33,33,-65,25,-41,-51,-61,6,-15
1,-59,-60,30,30,-60,25,-43,-55,-66,3,-21
1,-54,-54,27,28,-54,25,-49,-63,-68,0,-26
2,-49,-51,23,27,-50,25,-51,-63,-65,0,-33
2,-43,-45,21,23,-43,25,-50,-59,-65,0,-33
8,-37,-44,15,26,-40,25,-49,-61,-65,0,-30
-8,-37,-28,23,10,-32,22,-45,-60,-65,-4,-30
-2,-36,-34,19,17,-35,19,-45,-60,-65,-10,-30
17,-35,-52,9,35,-43,16,-47,-59,-65,-17,-30
5,-35,-40,15,23,-38,13,-52,-55,-64,-19,-31
4,-35,-38,16,22,-36,10,-54,-55,-71,-15,-34
-5,-36,-31,20,14,-33,11,-51,-55,-75,-15,-35
-7,-32,-25,20,9,-28,17,-50,-55,-68,-13,-35
18,-30,-48,6,33,-38,24,-50,-55,-64,-9,-35
24,-27,-51,1,38,-39,30,-43,-53,-58,-11,-36
16,-25,-40,5,29,-32,38,-46,-42,-53,-22,-32
19,-3,-22,-8,20,-12,43,-38,-33,-47,-9,-17
21,43,22,-32,-1,32,58,-5,-34,-38,9,-3
0,57,57,-29,-28,57,61,-12,-35,-30,15,7
20,72,53,-46,-17,62,4,-45,-39,-21,26,16
35,87,51,-61,-8,69,-38,-67,-40,-26,28,18
6,74,68,-40,-31,71,-40,-77,-42,-26,21,11
42,60,18,-51,12,38,-40,-74,-53,-35,13,6
71,45,-26,-58,48,9,-39,-79,-62,-33,9,2
52,15,-36,-33,44,-10,-41,-82,-65,-45,-1,-6
33,0,-33,-16,33,-17,-37,-85,-64,-63,-3,-9
-4,-12,-8,8,2,-10,-32,-83,-77,-64,-31,-34
9,-26,-34,9,22,-30,-22,-76,-91,-71,-51,-56
24,-26,-50,1,38,-38,-22,-78,-75,-78,-34,-44
17,-41,-58,12,38,-49,-2,-65,-71,-98,-48,-57
18,-5,-24,-6,21,-14,-5,-74,-65,-52,-22,-41
-11,-57,-46,34,17,-51,43,21,-4,-85,-58,-69
-23,-68,-45,46,11,-56,241,341,204,-53,-126,-162
57,-57,-114,0,86,-86,214,335,286,102,2,-78
306,264,-42,-285,173,111,-393,-641,-225,935,840,521
422,649,228,-536,97,438,-909,-1428,-879,1300,1343,986
190,113,-77,-152,134,18,-556,-936,-1108,-156,317,430
-28,-275,-248,152,110,-261,-129,-299,-879,-763,-344,-125
-56,-215,-159,135,52,-187,-54,-16,-512,-444,-268,-179
-44,-225,-181,135,68,-202,96,171,-247,-373,-260,-188
-32,-108,-76,71,22,-92,135,170,-87,-184,-145,-139
-14,-57,-43,36,15,-50,84,85,-55,-164,-120,-124
-52,-19,33,35,-42,7,57,11,-37,-91,-90,-109
-58,-7,51,32,-54,22,36,-5,-34,-72,-84,-101
-22,10,32,6,-27,21,35,-23,-31,-74,-80,-98
-22,42,64,-10,-43,53,24,-38,-25,-58,-65,-87
-19,48,67,-15,-43,57,20,-32,-16,-64,-67,-85
-14,52,66,-20,-40,59,12,-31,14,-47,-52,-76
-9,48,58,-20,-34,53,8,-26,25,-50,-52,-73
-5,51,55,-23,-30,53,3,-23,35,-29,-41,-68
-2,50,52,-24,-27,51,-3,-20,48,-19,-36,-64
14,53,39,-33,-13,45,-6,-9,72,-10,-30,-60
17,82,65,-50,-24,73,-12,5,103,3,-13,-51
10,105,95,-58,-42,100,-15,21,135,37,10,-38
31,94,64,-63,-17,79,-26,43,181,85,33,-27
70,117,47,-94,12,82,-40,62,238,130,53,-11
90,137,47,-113,21,92,-52,84,313,188,82,0
115,166,51,-140,31,108,-63,133,424,288,158,40
144,213,69,-178,37,140,-75,179,534,408,237,96
190,254,64,-222,63,158,-93,211,622,515,305,133
221,288,68,-255,77,178,-100,249,699,600,376,187
220,296,76,-258,72,186,-103,263,720,646,420,225
228,325,96,-277,66,210,-109,260,720,654,426,241
206,328,122,-267,42,225,-94,240,675,617,392,225
165,305,140,-235,12,222,-72,208,553,523,330,178
116,288,172,-202,-28,230,-52,169,413,384,248,130
76,241,165,-158,-45,202,-33,107,265,239,157,64
27,183,156,-105,-65,169,-29,53,148,116,61,5
-5,149,155,-72,-80,152,-30,10,72,47,7,-31
-8,142,150,-67,-79,146,-26,-30,26,-2,-29,-47
-14,135,149,-61,-82,142,-25,-60,-12,-45,-61,-52
-12,132,144,-61,-78,137,-25,-75,-47,-52,-59,-68
-20,127,147,-54,-83,137,-20,-71,-53,-68,-62,-83
-31,122,154,-46,-93,138,-20,-67,-54,-79,-70,-85
-41,119,159,-39,-100,139,-19,-62,-49,-74,-70,-85
-36,114,150,-39,-94,132,-15,-58,-43,-73,-70,-81
-43,125,168,-42,-105,146,-15,-53,-40,-69,-70,-80
-33,131,164,-49,-99,148,-17,-49,-35,-67,-70,-80
-7,130,137,-61,-72,134,-21,-69,-31,-65,-69,-75
-26,129,155,-52,-90,141,-19,-77,-33,-65,-66,-75
-15,141,156,-63,-85,148,-22,-74,-38,-65,-65,-75
16,165,149,-90,-67,157,-35,-76,-41,-65,-65,-75
9,159,150,-84,-71,154,-35,-74,-48,-66,-65,-75
9,152,144,-81,-68,148,-30,-76,-54,-65,-65,-77
0,146,146,-73,-74,146,-29,-79,-61,-66,-67,-81
-33,139,172,-53,-103,155,-24,-83,-67,-71,-71,-80
-35,134,170,-49,-103,152,-25,-83,-67,-68,-74,-84
-11,126,138,-58,-75,132,-24,-96,-85,-81,-78,-85
3,144,141,-74,-69,142,-26,-112,-103,-98,-80,-85
2,150,148,-76,-73,148,-24,-109,-105,-100,-85,-90
6,141,135,-74,-65,138,-28,-110,-110,-105,-90,-93
7,139,132,-74,-63,135,-45,-110,-114,-109,-90,-98
-31,133,164,-51,-98,148,-45,-110,-115,-110,-90,-100
-43,130,173,-43,-108,151,-44,-114,-115,-110,-90,-100
-33,125,159,-46,-96,142,-46,-115,-115,-110,-90,-100
-30,125,155,-48,-93,139,-44,-115,-116,-110,-90,-100
-20,124,144,-53,-82,134,-47,-115,-120,-111,-90,-100
-23,119,142,-48,-82,130,-50,-116,-120,-115,-90,-100
-16,121,137,-52,-76,129,-50,-120,-122,-114,-92,-100
-30,121,151,-46,-91,136,-52,-120,-126,-117,-90,-100
-42,128,170,-43,-106,148,-56,-119,-124,-120,-90,-100
-26,139,165,-57,-95,152,-54,-124,-129,-120,-90,-100
-16,141,156,-63,-86,148,-52,-125,-129,-117,-90,-98
-17,139,156,-61,-87,148,-40,-126,-131,-111,-89,-93
-7,135,142,-64,-75,138,-39,-124,-129,-107,-95,-90
-16,136,152,-60,-84,144,-63,-126,-131,-103,-99,-87
-26,133,159,-54,-93,146,-44,-122,-127,-98,-86,-83
0,160,160,-80,-80,160,-23,-98,-96,-93,-71,-79
-25,196,221,-86,-123,208,-9,-73,-68,-81,-61,-75
-21,216,238,-98,-130,227,-10,-61,-60,-66,-60,-75
22,242,221,-132,-100,231,-66,-99,-82,-62,-59,-72
38,248,211,-143,-87,229,-99,-133,-95,-67,-56,-70
30,248,218,-140,-94,233,-104,-128,-102,-64,-53,-66
19,205,186,-112,-84,195,-107,-133,-120,-74,-57,-65
24,166,142,-95,-59,154,-107,-127,-112,-66,-46,-59
34,149,114,-92,-40,131,-115,-136,-123,-86,-62,-62
-3,116,119,-57,-61,118,-92,-153,-146,-103,-91,-78
-64,105,169,-21,-116,137,-66,-152,-143,-111,-102,-99
-38,93,131,-28,-84,112,-68,-142,-148,-142,-124,-125
-14,109,123,-47,-69,116,-71,-142,-142,-116,-108,-113
-31,89,119,-29,-75,104,-63,-131,-148,-136,-116,-119
-54,113,168,-30,-111,140,-60,-128,-141,-96,-92,-105
-54,81,135,-13,-95,108,-10,-60,-88,-138,-121,-122
-73,33,106,20,-89,69,198,266,102,-152,-205,-226
-34,47,82,-7,-58,64,216,319,229,-8,-115,-183
248,344,96,-296,76,220,-398,-630,-234,805,660,377
419,804,385,-612,17,594,-1018,-1577,-896,1460,1359,957
223,314,91,-269,66,203,-753,-1225,-1231,53,463,509
2,-194,-195,96,99,-194,-269,-480,-1072,-881,-385,-136
-60,-108,-48,84,-6,-78,-122,-111,-625,-523,-320,-229
-57,-111,-53,84,-2,-82,55,107,-325,-427,-301,-237
-37,-11,26,24,-31,7,112,108,-149,-233,-207,-191
-44,44,88,0,-67,66,53,41,-101,-197,-166,-159
-54,86,141,-16,-98,113,19,-13,-77,-163,-143,-149
-42,112,154,-35,-99,133,-4,-48,-49,-129,-125,-143
-53,97,150,-22,-102,123,3,-43,-46,-137,-133,-142
-55,106,161,-26,-108,133,-3,-46,-33,-113,-115,-133
-66,93,159,-13,-113,126,-4,-44,-31,-126,-119,-133
-74,97,171,-12,-123,134,-5,-45,-21,-105,-107,-123
-46,97,142,-26,-94,119,-5,-45,-18,-111,-105,-121
-43,113,155,-35,-99,134,-5,-38,-4,-95,-94,-114
-31,137,168,-53,-99,152,-5,-34,18,-78,-87,-108
-17,140,157,-61,-87,148,-5,-24,38,-58,-80,-104
-18,141,159,-62,-89,150,-5,-2,69,-35,-71,-97
-12,138,150,-63,-81,143,-5,21,111,-2,-60,-91
-7,145,152,-69,-79,149,-9,63,167,41,-48,-83
0,160,160,-80,-80,159,-10,97,236,74,-22,-79
22,178,156,-101,-67,167,-9,142,324,131,24,-57
72,224,152,-148,-40,188,-10,211,442,218,80,-8
103,249,146,-176,-22,197,-10,277,573,329,157,43
137,283,145,-210,-4,214,-12,343,686,436,239,98
193,328,135,-261,29,231,-20,377,765,513,292,138
194,347,153,-271,20,249,-25,397,799,560,333,160
190,346,156,-268,17,251,-19,400,796,579,365,186
184,336,152,-261,16,244,-12,374,751,554,350,188
123,332,209,-227,-43,270,-6,326,622,459,295,150
80,301,220,-191,-70,260,2,244,447,338,203,102
45,251,207,-148,-81,229,4,152,274,197,106,39
1,207,206,-104,-102,206,-2,78,139,80,35,-27
-21,166,187,-73,-104,176,-9,18,53,18,-17,-48
-16,139,155,-61,-86,147,-16,-34,-15,-43,-45,-71
-25,128,154,-52,-90,141,-23,-65,-58,-77,-66,-97
-44,123,168,-40,-106,145,-29,-86,-86,-101,-81,-94
-42,114,156,-37,-99,135,-27,-88,-92,-113,-86,-96
-49,108,156,-30,-103,132,-24,-80,-89,-108,-85,-95
-47,101,148,-27,-98,124,-25,-77,-87,-111,-85,-95
-53,95,148,-21,-101,121,-20,-69,-85,-109,-86,-95
-36,96,131,-30,-84,113,-20,-66,-84,-111,-82,-87
-22,93,116,-36,-69,104,-19,-69,-93,-114,-94,-103
-41,106,147,-32,-94,126,-15,-72,-102,-117,-105,-115
-34,117,151,-42,-93,134,-15,-74,-97,-120,-97,-106
-38,111,150,-36,-94,130,-15,-78,-95,-123,-93,-103
-51,110,161,-30,-106,135,-15,-80,-91,-126,-86,-96
-43,106,150,-32,-97,128,-15,-83,-91,-123,-81,-91
-47,104,151,-29,-99,127,-20,-85,-85,-120,-80,-93
-59,109,167,-26,-113,138,-28,-88,-99,-120,-80,-95
-51,110,160,-30,-106,135,-36,-91,-118,-120,-80,-95
-48,110,159,-31,-103,134,-40,-83,-116,-119,-79,-95
-39,108,147,-35,-94,128,-40,-80,-122,-122,-81,-95
-40,110,150,-35,-95,130,-40,-69,-118,-108,-80,-96
-55,110,165,-28,-110,137,-40,-83,-123,-108,-92,-100
-42,110,151,-34,-97,131,-40,-116,-143,-131,-110,-100
-39,110,149,-36,-94,129,-40,-114,-146,-130,-108,-102
-38,109,147,-36,-92,128,-40,-110,-144,-130,-104,-105
-48,111,159,-32,-104,135,-40,-109,-145,-130,-101,-105
-68,100,168,-16,-118,133,-40,-104,-144,-130,-96,-101
-45,111,156,-33,-101,133,-40,-106,-146,-129,-96,-99
-24,126,150,-51,-87,137,-41,-111,-155,-124,-105,-100
-28,114,143,-43,-86,128,-45,-116,-161,-125,-114,-100
-3,110,113,-54,-58,111,-44,-119,-159,-124,-115,-100
-40,102,142,-31,-91,122,-48,-124,-162,-126,-115,-101
-78,97,174,-10,-126,135,-50,-125,-165,-124,-115,-105
-47,91,137,-22,-92,114,-50,-125,-165,-129,-114,-108
-52,90,143,-19,-97,116,-47,-125,-162,-142,-117,-112
-57,89,146,-16,-102,117,-44,-125,-159,-139,-120,-115
-64,86,150,-11,-108,118,-46,-124,-160,-136,-117,-112
-58,83,141,-13,-100,112,-39,-116,-160,-134,-114,-109
-58,89,147,-16,-103,118,-41,-107,-160,-130,-111,-106
-52,118,170,-33,-112,144,-38,-101,-159,-130,-109,-104
-27,137,164,-55,-96,150,-25,-90,-141,-112,-97,-91
-44,181,225,-69,-135,203,-2,-95,-133,-95,-85,-76
-32,217,249,-93,-141,233,11,-93,-136,-95,-86,-66
-28,218,246,-95,-137,232,-58,-101,-134,-93,-83,-64
-35,217,252,-91,-144,234,-115,-145,-136,-92,-82,-67
-7,199,206,-96,-107,202,-108,-149,-136,-86,-77,-57
-9,177,186,-84,-98,181,-103,-140,-149,-99,-84,-64
-29,156,186,-64,-108,171,-91,-137,-134,-111,-83,-53
-48,118,166,-36,-107,142,-91,-129,-146,-124,-87,-64
-47,98,146,-26,-97,122,-97,-126,-187,-137,-115,-106
-51,82,133,-16,-92,107,-64,-129,-177,-142,-122,-115
-56,76,131,-10,-94,103,-39,-134,-179,-142,-120,-121
-55,78,134,-12,-95,106,-63,-134,-163,-162,-132,-117
-78,60,138,8,-108,99,-58,-127,-171,-193,-151,-126
-88,77,165,5,-127,121,-53,-127,-152,-169,-118,-110
-86,19,105,33,-96,62,24,-13,-102,-211,-164,-149
-118,6,124,56,-121,65,263,358,115,-165,-232,-237
19,40,20,-29,-1,30,106,127,132,78,-33,-111
377,471,94,-424,141,282,-707,-1110,-413,996,849,550
426,738,312,-582,57,525,-1121,-1730,-932,1098,1183,925
173,33,-140,-103,157,-53,-668,-1141,-1269,-431,92,268
-13,-276,-263,145,126,-269,-286,-475,-1051,-834,-445,-216
-77,-165,-88,121,6,-126,-107,-103,-547,-482,-331,-229
-89,-136,-47,113,-21,-91,85,77,-298,-390,-306,-234
-103,-11,92,57,-97,40,75,63,-150,-228,-206,-187
-81,15,96,33,-89,56,33,-1,-129,-227,-197,-174
-80,65,146,7,-113,106,28,-37,-91,-165,-156,-158
-55,71,127,-8,-91,99,17,-41,-77,-166,-160,-155
-60,68,128,-5,-94,98,15,-39,-73,-156,-162,-148
-85,78,163,4,-124,120,3,-41,-59,-142,-157,-139
-58,98,156,-20,-107,127,3,-39,-57,-143,-164,-137
-84,109,193,-13,-139,151,17,-42,-45,-126,-157,-134
-69,101,170,-17,-120,136,22,-34,-43,-128,-156,-136
-38,108,146,-35,-93,127,19,-26,-22,-114,-136,-134
-70,103,172,-17,-121,137,17,-14,5,-106,-126,-135
-75,107,182,-16,-129,144,14,2,28,-92,-114,-135
-71,107,178,-18,-124,142,16,21,56,-67,-105,-131
-59,124,183,-32,-121,153,20,64,111,-30,-96,-119
-20,144,164,-62,-92,154,19,95,165,-17,-79,-108
-4,161,165,-79,-85,163,26,151,248,43,-51,-87
-9,187,195,-89,-102,190,32,219,356,119,-11,-54
27,212,184,-120,-79,198,25,286,472,193,41,-21
71,248,177,-160,-53,212,21,365,599,301,113,20
105,280,175,-193,-35,227,16,417,701,382,181,72
152,322,170,-237,-9,246,11,455,768,458,236,114
178,347,169,-263,5,258,7,462,798,504,283,141
184,347,162,-266,11,254,5,444,793,505,296,154
153,341,189,-247,-18,265,1,405,711,472,266,143
113,307,194,-210,-41,250,0,330,559,373,205,105
65,258,192,-162,-64,225,4,235,386,253,132,61
5,207,202,-106,-99,204,9,143,225,129,45,8
-14,164,178,-75,-96,170,7,69,86,18,-34,-47
-31,137,168,-53,-100,152,2,1,7,-46,-84,-79
-43,121,164,-39,-104,142,-5,-47,-43,-92,-111,-102
-48,105,154,-29,-101,130,-9,-72,-83,-105,-125,-116
-52,97,149,-23,-100,123,-17,-91,-93,-106,-128,-123
-46,93,139,-23,-93,116,-34,-93,-113,-136,-135,-126
-46,87,133,-21,-90,110,-31,-85,-111,-146,-162,-124
-33,81,114,-25,-73,97,-21,-82,-101,-144,-166,-127
-45,76,121,-16,-83,98,-17,-74,-98,-145,-164,-130
-76,78,154,-1,-115,116,-8,-71,-87,-139,-166,-130
-69,81,150,-6,-110,115,-5,-75,-87,-141,-165,-130
-52,84,136,-16,-94,109,-5,-75,-93,-137,-164,-130
-60,87,147,-14,-104,117,-4,-76,-96,-135,-160,-131
-57,90,147,-16,-102,119,-19,-80,-94,-135,-160,-128
-66,89,154,-12,-110,121,-27,-80,-96,-132,-160,-125
-70,85,155,-8,-113,120,-24,-82,-94,-130,-160,-125
-51,83,133,-16,-92,108,-23,-89,-103,-130,-159,-125
-65,80,144,-8,-104,111,-19,-94,-114,-141,-177,-125
-64,76,141,-6,-103,108,-20,-102,-108,-146,-187,-125
-59,75,134,-8,-97,104,-25,-97,-126,-145,-183,-130
-61,71,133,-5,-97,102,-25,-101,-129,-145,-186,-130
-60,65,125,-3,-93,94,-30,-124,-130,-146,-184,-130
-64,60,124,2,-94,92,-45,-125,-151,-148,-186,-129
-55,55,109,0,-82,82,-45,-126,-149,-154,-189,-135
-87,48,135,19,-111,91,-44,-131,-145,-146,-190,-145
-102,47,149,28,-126,97,-41,-130,-144,-147,-190,-145
-84,50,134,17,-109,91,-39,-128,-139,-164,-190,-149
-75,54,129,10,-102,92,-42,-124,-142,-165,-190,-149
-57,59,116,-1,-87,87,-44,-122,-153,-165,-187,-156
-76,54,130,10,-104,92,-48,-118,-153,-165,-185,-161
-72,51,122,10,-97,86,-50,-117,-145,-165,-181,-156
-61,48,109,6,-85,78,-54,-112,-142,-163,-179,-154
-93,43,136,25,-115,89,-56,-115,-134,-161,-175,-150
-97,40,137,28,-117,89,-51,-129,-130,-157,-175,-150
-90,36,126,27,-109,81,-50,-124,-150,-156,-193,-150
-98,35,133,31,-116,83,-49,-118,-156,-150,-196,-150
-93,35,128,29,-111,81,-46,-114,-149,-151,-191,-150
-96,35,132,30,-114,83,-44,-105,-148,-168,-190,-150
-91,34,125,28,-109,79,-45,-110,-141,-160,-186,-148
-52,38,90,7,-72,64,-36,-102,-141,-137,-185,-128
-66,66,133,0,-99,99,-31,-87,-120,-113,-178,-111
-79,93,172,-7,-125,132,-18,-84,-103,-107,-167,-110
-53,105,158,-26,-106,131,-15,-78,-105,-113,-157,-109
-32,122,154,-46,-93,137,-74,-102,-106,-115,-152,-105
-17,138,156,-61,-87,147,-99,-123,-123,-119,-156,-105
-30,117,148,-44,-89,132,-88,-119,-129,-120,-158,-104
-17,67,85,-26,-51,76,-85,-120,-132,-124,-164,-106
-9,45,54,-18,-32,50,-78,-116,-137,-127,-163,-104
-35,18,54,8,-45,36,-74,-114,-140,-135,-163,-106
-46,11,57,18,-52,34,-59,-115,-142,-133,-176,-120
-60,-17,43,38,-51,13,-44,-108,-144,-156,-198,-140
-92,-43,49,67,-70,3,-40,-111,-143,-145,-191,-134
-87,-52,35,69,-61,-8,-33,-110,-132,-164,-209,-134
-112,-53,59,82,-86,3,-23,-107,-138,-151,-206,-139
-123,-39,84,81,-104,22,-25,-99,-108,-128,-176,-122
-75,-98,-23,87,-26,-61,98,95,-6,-166,-253,-203
-93,-112,-19,103,-37,-65,283,400,237,-88,-292,-275
62,-33,-95,-14,79,-64,17,9,107,271,88,6
328,448,121,-388,103,284,-703,-1133,-565,1192,1033,719
281,473,191,-377,45,332,-860,-1393,-1077,703,857,770
38,-183,-222,73,130,-202,-362,-675,-1130,-731,-284,34
-101,-290,-189,196,44,-240,-120,-204,-774,-687,-478,-248
-108,-251,-143,179,18,-197,-16,53,-430,-464,-413,-253
-108,-231,-123,170,8,-177,110,162,-206,-344,-369,-262
-92,-128,-36,111,-28,-82,89,103,-90,-191,-274,-218
-60,-91,-31,75,-14,-61,57,34,-86,-205,-276,-198
-94,-49,45,72,-69,-2,29,-15,-53,-123,-228,-159
-86,-61,25,73,-55,-18,17,-33,-50,-137,-244,-162
-79,-51,28,65,-53,-12,15,-44,-33,-113,-214,-159
-119,-57,62,88,-90,3,8,-43,-26,-115,-207,-156
-110,-55,55,82,-82,0,6,-41,-20,-118,-204,-155
-94,-55,39,74,-66,-7,-1,-34,-12,-108,-195,-154
-83,-53,30,68,-56,-11,-4,-31,-4,-100,-194,-151
-59,-36,23,48,-41,-6,-14,-26,17,-85,-184,-143
-40,-30,10,35,-25,-10,-20,-22,29,-77,-182,-142
-64,-21,43,43,-53,11,-19,-16,64,-42,-169,-135
-69,-17,52,43,-60,17,-21,1,93,-26,-160,-133
-44,-8,36,26,-40,14,-18,22,129,5,-144,-122
-45,-4,41,25,-43,18,-22,47,193,61,-112,-87
-34,7,40,13,-37,24,-17,83,271,121,-69,-55
-7,31,38,-12,-23,34,-18,130,366,217,-19,-30
29,54,25,-41,2,39,-43,175,473,310,50,10
113,101,-13,-107,63,44,-61,211,577,418,124,67
165,130,-36,-147,100,47,-78,248,665,522,199,115
165,153,-12,-159,89,70,-82,289,723,599,266,162
169,171,3,-170,83,87,-78,306,741,636,298,189
122,155,34,-139,44,94,-81,302,720,604,282,176
111,150,39,-131,36,94,-78,261,625,539,234,143
80,130,50,-105,14,90,-46,211,495,431,166,107
11,90,79,-51,-34,84,-12,168,361,303,77,55
0,44,44,-22,-22,44,0,108,219,169,-15,-15
-37,1,37,18,-37,18,5,53,118,70,-87,-54
-58,-26,32,42,-45,3,7,17,55,17,-120,-70
-75,-53,22,64,-48,-15,10,0,11,-29,-152,-96
-84,-68,16,75,-50,-25,10,-26,-22,-52,-169,-107
-81,-70,11,76,-46,-30,10,-36,-32,-66,-164,-107
-98,-75,23,86,-60,-26,10,-34,-27,-72,-178,-111
-82,-73,9,77,-45,-31,10,-47,-24,-84,-185,-109
-62,-69,-8,66,-27,-38,10,-41,-21,-91,-185,-110
-56,-67,-10,62,-23,-38,10,-38,-16,-82,-186,-110
-81,-64,17,72,-48,-23,10,-35,-16,-80,-182,-110
-91,-61,30,75,-60,-15,10,-30,-21,-75,-180,-111
-85,-60,25,72,-55,-17,10,-33,-20,-70,-180,-107
-81,-65,16,73,-48,-24,10,-35,-23,-74,-180,-105
-52,-70,-18,61,-17,-44,10,-35,-26,-76,-180,-105
-72,-70,2,71,-37,-34,7,-39,-25,-75,-180,-102
-96,-71,25,84,-60,-23,3,-41,-29,-76,-180,-99
-83,-75,8,79,-45,-33,-1,-40,-30,-75,-180,-101
-85,-75,10,79,-47,-32,-4,-45,-31,-77,-180,-104
-103,-77,26,90,-64,-25,-9,-48,-40,-80,-180,-108
-93,-82,11,87,-52,-35,-9,-53,-48,-81,-187,-110
-63,-85,-22,74,-20,-54,-4,-55,-55,-79,-190,-114
-69,-90,-21,79,-24,-55,-6,-55,-63,-85,-191,-114
-74,-90,-16,83,-29,-53,-2,-67,-69,-100,-196,-111
-103,-90,13,96,-58,-38,0,-71,-76,-105,-195,-108
-113,-90,23,101,-68,-33,1,-69,-80,-108,-195,-105
-67,-90,-23,79,-22,-56,-8,-71,-80,-113,-196,-103
-59,-88,-30,74,-14,-59,-23,-69,-80,-115,-194,-98
-63,-84,-21,74,-21,-52,-20,-71,-80,-115,-198,-106
-87,-86,0,86,-43,-42,-15,-75,-80,-115,-206,-111
-95,-84,11,89,-52,-36,-13,-75,-80,-115,-203,-109
-54,-88,-34,71,-10,-61,-8,-77,-82,-115,-200,-110
-58,-109,-51,84,-3,-80,-5,-81,-80,-115,-197,-109
-75,-108,-33,92,-21,-71,-17,-80,-80,-115,-195,-126
-80,-103,-24,92,-28,-63,-19,-84,-80,-115,-195,-129
-96,-102,-6,99,-45,-53,-12,-86,-80,-115,-195,-121
-68,-95,-26,82,-21,-60,-9,-85,-80,-116,-201,-119
-57,-100,-42,79,-7,-71,-4,-80,-88,-111,-198,-113
-83,-107,-24,95,-29,-66,1,-72,-81,-97,-192,-110
-59,-85,-26,72,-17,-55,6,-73,-67,-83,-189,-103
-52,-38,15,45,-33,-11,19,-76,-70,-75,-183,-93
-42,-6,36,24,-39,15,16,-75,-70,-75,-180,-86
-11,9,20,1,-16,15,-30,-76,-74,-75,-175,-77
-23,22,46,0,-35,34,-58,-85,-75,-75,-172,-75
-12,39,50,-14,-31,44,-55,-107,-77,-75,-168,-75
-16,5,21,5,-19,13,-50,-111,-81,-72,-165,-70
-22,-45,-22,34,0,-33,-45,-109,-79,-70,-160,-71
-8,-57,-49,33,21,-53,-42,-112,-83,-70,-162,-68
-46,-93,-47,70,0,-70,-35,-107,-90,-87,-182,-77
-79,-115,-36,97,-21,-75,-35,-115,-104,-103,-200,-105
-81,-123,-42,103,-20,-82,-25,-99,-108,-112,-212,-119
-50,-128,-77,89,14,-102,-27,-106,-109,-137,-208,-113
-49,-138,-88,94,20,-113,-16,-85,-95,-151,-208,-117
-61,-139,-79,100,9,-109,-18,-97,-97,-155,-202,-112
-68,-150,-81,109,7,-115,15,-57,-64,-163,-210,-122
-99,-201,-102,151,1,-151,180,212,90,-165,-288,-201
