I,II,III,aVR,aVL,aVF,V1,V2,V3,V4,V5,V6
5,-400,-405,198,205,-402,378,3,-1028,24,-115,99
-58,-446,-388,252,165,-417,400,28,-1012,28,-110,87
-59,-393,-335,226,138,-363,494,153,-919,88,-67,26
-16,-428,-412,222,199,-419,555,182,-828,227,32,36
270,-218,-488,-26,379,-352,-20,-447,-1177,462,426,308
735,26,-709,-380,722,-341,-790,-1084,-1406,999,1036,663
732,-366,-1098,-182,915,-732,-773,-1014,-1482,547,583,457
269,-452,-721,91,495,-586,-339,-717,-1660,-314,-144,161
0,-361,-360,181,180,-360,26,-375,-1414,-296,-173,131
34,-412,-445,189,240,-428,286,-74,-1051,-97,-103,65
28,-367,-395,170,212,-381,392,35,-965,-36,-68,21
-6,-383,-377,195,186,-380,417,75,-934,11,-60,44
-56,-389,-333,223,138,-360,431,91,-903,29,-60,67
-37,-405,-368,221,166,-386,444,110,-881,32,-50,66
2,-378,-381,188,192,-379,444,118,-857,48,-55,62
-32,-374,-342,203,155,-357,440,110,-839,63,-41,71
-59,-386,-328,223,135,-357,438,136,-832,53,-34,83
-57,-374,-317,215,130,-345,435,140,-822,48,-59,94
-18,-374,-356,196,169,-365,434,154,-794,84,-66,116
-18,-348,-330,184,156,-339,430,168,-761,104,-54,112
19,-293,-311,137,165,-302,430,165,-733,105,-13,110
18,-289,-307,136,162,-298,426,189,-713,154,44,102
17,-289,-306,137,162,-297,414,185,-687,183,70,123
32,-229,-261,99,146,-245,405,179,-674,187,56,134
22,-202,-224,90,123,-213,395,175,-663,187,54,129
97,-190,-287,47,192,-238,378,168,-634,192,115,187
113,-180,-293,34,203,-237,354,164,-635,192,128,195
100,-172,-273,36,187,-222,332,130,-673,157,92,180
98,-187,-285,45,192,-236,322,97,-705,139,79,171
89,-201,-290,56,190,-245,318,84,-707,111,74,145
106,-185,-291,40,199,-238,310,70,-720,112,63,131
64,-228,-292,82,178,-260,329,54,-750,118,44,113
65,-246,-312,91,189,-279,335,38,-777,51,2,85
34,-286,-320,126,177,-303,328,25,-779,29,-40,64
-11,-363,-352,187,171,-357,327,25,-791,19,-64,52
-6,-366,-361,186,178,-363,321,18,-817,3,-91,36
-97,-364,-267,230,85,-315,321,19,-798,3,-92,24
-94,-372,-279,233,92,-325,305,5,-814,-37,-102,8
-53,-374,-321,213,135,-347,308,-28,-843,-39,-112,5
-39,-348,-310,194,136,-329,318,-16,-833,-34,-120,15
0,-333,-333,167,167,-333,303,-7,-816,-63,-126,-1
-26,-321,-295,174,135,-308,294,-20,-784,-42,-101,11
-49,-340,-291,195,121,-315,296,-20,-790,-51,-115,43
-13,-340,-327,176,157,-333,300,-20,-790,-49,-120,53
15,-293,-308,139,162,-300,285,-15,-778,-37,-110,71
0,-317,-317,159,159,-317,271,-16,-775,-59,-110,75
-9,-313,-304,161,147,-308,290,-4,-746,-26,-104,86
-26,-309,-282,168,128,-295,297,16,-728,-23,-106,90
-6,-343,-338,175,166,-340,286,16,-739,-29,-102,83
4,-333,-338,165,171,-335,281,12,-746,10,-100,107
6,-325,-331,160,169,-328,272,10,-740,-7,-100,107
-34,-341,-307,188,136,-323,266,6,-738,-9,-104,91
-99,-357,-258,229,79,-307,277,5,-733,-1,-107,79
-66,-358,-292,212,113,-325,287,-2,-730,-42,-114,61
-43,-345,-301,194,129,-323,278,-22,-725,-52,-118,59
-51,-353,-302,202,126,-327,280,-15,-714,-38,-107,54
-57,-348,-291,203,117,-319,272,-9,-704,-26,-98,52
-67,-307,-240,187,87,-273,271,-2,-677,-15,-88,48
-61,-274,-213,168,76,-243,277,4,-652,-9,-81,43
-2,-248,-246,125,122,-246,270,7,-641,1,-74,64
3,-224,-227,111,116,-226,273,47,-630,7,-68,64
-16,-214,-198,115,91,-205,228,19,-629,17,-61,80
30,-206,-236,88,133,-221,203,-18,-617,37,-55,136
46,-199,-245,77,146,-222,214,-29,-635,29,-56,168
57,-236,-294,90,175,-265,211,-36,-674,23,-54,180
13,-297,-310,142,162,-303,234,-6,-671,1,-57,162
-48,-344,-296,197,124,-320,241,-14,-667,-14,-51,127
-82,-366,-284,224,101,-325,237,-25,-662,-33,-77,85
-105,-378,-273,242,84,-325,234,-14,-657,-70,-104,59
-80,-415,-335,248,128,-375,232,-4,-641,-59,-108,54
-82,-408,-326,245,122,-367,230,-36,-639,-67,-126,63
-78,-420,-342,250,132,-381,235,-33,-618,-48,-107,64
-26,-412,-386,219,181,-399,249,-5,-598,-69,-119,42
-46,-348,-303,197,129,-325,365,114,-501,-14,-119,42
-29,-367,-338,198,155,-353,376,117,-465,149,-3,86
264,-94,-358,-85,311,-226,-279,-469,-793,489,488,398
638,18,-621,-328,629,-301,-939,-926,-950,957,980,655
575,-370,-945,-102,760,-657,-794,-796,-988,500,526,404
159,-436,-595,139,377,-515,-369,-555,-1138,-321,-170,111
-8,-337,-329,173,161,-333,-44,-301,-911,-307,-247,8
-22,-346,-324,184,152,-335,186,-62,-604,-80,-152,-12
-74,-363,-289,219,108,-325,270,38,-527,-40,-127,-6
-77,-388,-311,233,117,-349,290,48,-503,-31,-119,-55
-67,-354,-287,211,110,-320,289,40,-484,-25,-122,-91
-33,-330,-297,182,132,-313,284,57,-452,-17,-114,-92
-64,-337,-273,201,105,-305,284,103,-438,10,-93,-78
-57,-343,-286,200,114,-314,277,119,-426,38,-72,-48
-28,-334,-307,181,140,-320,294,118,-389,39,-56,-1
-38,-294,-256,167,109,-274,308,87,-374,62,-43,52
-2,-269,-267,136,133,-268,301,109,-355,65,-31,64
-12,-297,-286,155,137,-291,301,156,-318,82,-13,65
-18,-284,-266,151,124,-275,294,157,-297,122,7,69
-2,-234,-231,118,115,-232,297,157,-270,140,47,71
3,-205,-208,101,106,-206,280,173,-242,170,83,101
9,-184,-194,88,102,-189,253,189,-238,190,98,131
42,-144,-186,51,115,-165,263,158,-233,180,99,153
65,-137,-202,36,134,-169,258,154,-228,164,102,165
64,-134,-198,35,131,-166,251,156,-246,172,112,166
109,-104,-213,-3,162,-158,256,147,-248,171,98,142
36,-165,-201,64,119,-182,255,153,-234,158,85,106
9,-221,-229,106,119,-225,255,127,-265,136,57,65
21,-282,-303,131,162,-292,256,95,-322,95,22,26
-59,-398,-338,229,140,-368,254,73,-347,53,-32,-13
-57,-405,-348,231,146,-376,282,96,-363,29,-63,-43
-73,-396,-324,235,126,-360,311,131,-346,58,-37,-43
-37,-355,-318,197,141,-336,299,103,-337,66,-47,-39
2,-296,-298,147,150,-297,282,93,-345,67,-47,-31
11,-282,-293,136,152,-288,253,50,-369,42,-65,-35
-26,-263,-237,144,106,-250,241,18,-399,40,-56,-1
-8,-306,-298,158,146,-302,249,24,-392,32,-46,24
-47,-294,-247,171,101,-270,241,11,-350,36,-49,50
-169,-318,-150,244,-9,-234,248,67,-317,73,-37,56
-16,-301,-286,159,135,-293,225,45,-354,14,-67,29
-28,-289,-260,159,116,-274,236,110,-230,126,-5,52
65,-230,-295,83,180,-263,212,225,-23,466,307,224
450,24,-425,-237,438,-200,23,199,222,1010,831,533
388,-162,-550,-113,469,-356,95,263,333,842,560,363
-43,-361,-318,202,138,-340,425,255,6,23,-200,-31
-210,-236,-26,223,-92,-130,473,91,-383,-183,-316,-168
-155,-316,-162,236,4,-238,292,-67,-650,-267,-283,-274
-89,-360,-271,224,91,-315,175,-86,-646,-292,-255,-288
111,-246,-356,68,234,-301,141,-31,-459,-114,-169,-255
173,-185,-358,6,266,-271,92,-86,-403,-57,-136,-216
161,-186,-347,13,254,-266,68,-107,-393,-18,-98,-170
155,-169,-324,8,240,-247,80,-83,-382,11,-100,-110
72,-161,-233,44,153,-196,72,-75,-367,32,-75,-24
54,-201,-255,74,155,-228,65,-49,-366,40,-41,16
41,-189,-230,74,135,-209,63,-74,-366,45,-37,39
56,-164,-220,54,138,-191,65,-89,-354,44,-23,63
116,-164,-280,24,198,-221,46,-83,-342,35,1,77
127,-147,-274,10,201,-210,-7,-106,-318,66,35,123
165,-178,-343,7,254,-260,-38,-138,-357,106,60,192
190,-172,-362,-8,276,-267,-42,-147,-381,105,80,268
172,-130,-302,-21,237,-216,-69,-160,-370,105,102,320
207,-128,-335,-39,271,-232,-117,-221,-382,105,124,314
230,-112,-342,-59,287,-227,-131,-236,-377,106,148,306
213,-108,-321,-53,267,-214,-120,-222,-382,113,143,265
218,-93,-312,-62,265,-202,-122,-224,-372,112,145,201
237,-98,-334,-69,286,-216,-110,-195,-376,119,145,147
134,-151,-285,8,210,-218,-69,-149,-348,122,127,106
41,-161,-202,60,122,-182,-24,-94,-266,117,91,61
38,-177,-215,70,127,-196,48,-54,-207,123,52,20
-47,-219,-172,133,63,-195,124,1,-163,131,58,-5
-110,-241,-132,176,11,-186,160,48,-166,113,29,-59
-160,-248,-89,204,-36,-168,198,57,-160,93,0,-43
-207,-270,-64,239,-71,-167,207,84,-153,83,6,-26
-146,-306,-160,226,7,-233,190,72,-186,70,-35,-87
-103,-292,-189,197,43,-240,182,38,-195,60,-48,-104
-82,-292,-210,187,64,-251,166,29,-199,46,-44,-98
-60,-297,-237,178,89,-267,161,12,-200,36,-45,-102
-34,-265,-232,150,99,-248,156,-12,-196,30,-47,-99
-19,-264,-245,142,113,-254,149,-23,-194,25,-55,-101
-46,-282,-236,165,96,-259,147,-10,-197,17,-46,-107
-42,-324,-282,184,120,-303,124,-17,-218,-10,-71,-117
-20,-320,-300,170,140,-310,103,-42,-238,-35,-107,-148
-19,-290,-271,155,127,-280,109,-46,-228,-37,-102,-161
17,-295,-312,139,165,-304,110,-53,-237,-41,-109,-193
59,-300,-360,121,210,-330,110,-68,-265,-73,-135,-255
52,-303,-355,126,204,-329,110,-69,-251,-88,-141,-274
47,-289,-335,121,191,-312,108,-58,-243,-83,-162,-275
41,-289,-330,124,186,-309,101,-70,-263,-86,-179,-248
65,-295,-360,115,213,-327,96,-88,-272,-85,-184,-191
73,-294,-367,111,221,-331,92,-81,-255,-90,-186,-139
57,-300,-358,122,207,-329,82,-73,-246,-94,-184,-95
67,-301,-368,117,218,-335,86,-68,-244,-93,-182,-65
34,-319,-353,142,194,-335,83,-60,-240,-90,-162,-38
-22,-312,-290,167,134,-300,98,-44,-219,-73,-126,-17
-40,-272,-232,157,96,-252,124,-24,-188,-47,-88,-5
-105,-285,-180,195,38,-233,119,-13,-181,-45,-84,33
-121,-284,-163,203,21,-223,117,-27,-175,-45,-79,71
-62,-253,-191,157,65,-221,116,-33,-170,-44,-77,68
-89,-248,-159,168,35,-203,112,-16,-166,-47,-73,30
-95,-253,-158,175,31,-205,123,-7,-161,-42,-66,-21
-92,-270,-178,181,43,-223,136,-17,-157,-51,-102,-74
-121,-260,-139,191,9,-199,135,-19,-152,-27,-93,-108
-113,-249,-136,181,11,-192,134,-21,-150,-28,-94,-112
-78,-278,-200,178,61,-239,136,-48,-147,-63,-130,-103
-62,-270,-209,166,73,-239,134,-44,-144,-47,-123,-73
-72,-250,-178,161,53,-214,132,-31,-141,-40,-125,-54
-71,-245,-174,158,52,-209,129,-30,-139,-36,-126,-47
-58,-220,-161,139,52,-190,131,-20,-124,-26,-105,-11
-36,-188,-152,112,58,-170,129,-19,-93,-22,-75,10
-13,-149,-137,81,62,-143,136,-2,-71,0,-40,20
0,-132,-132,66,66,-132,135,18,-62,33,-18,37
-20,-136,-116,78,48,-125,76,-16,-86,32,-45,18
6,-139,-145,66,76,-142,47,-52,-103,17,-45,9
49,-145,-195,48,122,-170,28,-52,-104,4,-38,3
57,-149,-206,46,132,-177,15,-52,-134,-1,-72,-16
27,-190,-218,82,123,-204,48,-49,-139,-16,-84,-4
-28,-224,-196,126,84,-210,55,-50,-130,-61,-91,-1
-32,-231,-200,131,85,-215,92,-43,-126,-76,-99,-9
-42,-250,-208,146,83,-229,104,-47,-121,-80,-104,3
-62,-260,-198,161,68,-228,102,-40,-113,-74,-103,23
-94,-292,-198,193,52,-245,108,-31,-120,-75,-102,35
-151,-303,-153,227,1,-228,108,-30,-115,-65,-92,27
-167,-322,-155,245,-5,-238,115,-3,-82,-72,-103,9
-106,-260,-153,183,24,-206,224,99,-5,-48,-113,-28
-34,-228,-194,131,80,-211,244,117,32,66,-45,-40
283,24,-259,-153,271,-118,-440,-509,-299,360,414,240
695,233,-462,-464,578,-114,-1182,-1106,-542,798,916,497
609,-179,-788,-215,699,-483,-1067,-955,-545,466,501,225
227,-322,-548,48,388,-435,-578,-670,-658,-332,-199,-109
-27,-244,-217,135,95,-230,-214,-363,-449,-360,-292,-178
-31,-230,-199,130,84,-214,36,-92,-141,-117,-185,-160
-8,-180,-173,95,83,-176,132,-30,-83,-92,-179,-147
-55,-230,-175,142,60,-202,129,2,-40,-63,-175,-140
-62,-207,-145,135,41,-176,143,36,-20,-60,-159,-132
-100,-229,-129,165,15,-179,173,64,-4,-46,-134,-125
-95,-214,-119,155,13,-167,188,69,4,-27,-106,-110
-102,-193,-91,148,-5,-142,166,46,8,-13,-94,-82
-106,-201,-95,154,-5,-148,157,76,47,-1,-86,-54
-58,-191,-132,125,37,-161,150,107,67,4,-71,-39
-69,-164,-95,117,13,-129,150,106,88,32,-64,-23
-53,-119,-66,86,7,-92,138,102,91,44,-45,-18
-30,-125,-95,78,33,-109,129,108,116,59,-1,-14
-4,-89,-84,47,41,-86,158,125,175,99,11,-3
3,-72,-75,35,39,-73,148,147,185,119,18,3
19,-46,-64,14,42,-55,136,175,192,129,45,12
48,-10,-58,-19,54,-34,128,155,193,140,45,40
37,-12,-49,-12,43,-30,109,139,183,133,48,66
79,31,-48,-55,63,-8,102,136,182,120,62,63
73,43,-30,-58,51,6,78,123,173,109,58,54
91,36,-56,-63,73,-10,85,117,170,101,48,68
74,21,-52,-47,63,-15,111,107,163,88,42,73
-28,-29,0,28,-14,-14,99,99,141,83,32,63
-9,-63,-53,36,22,-58,90,72,113,58,10,46
13,-73,-86,30,50,-79,81,51,87,28,-27,6
-1,-89,-88,45,44,-88,80,48,78,27,-61,-19
-80,-147,-66,114,-7,-106,92,44,64,-2,-73,-46
-69,-165,-96,118,13,-131,96,39,32,-32,-83,-91
39,-143,-182,52,111,-162,91,35,21,-68,-109,-111
-27,-213,-186,120,80,-199,89,31,12,-78,-121,-110
-80,-257,-177,169,49,-217,109,23,4,-81,-128,-109
-73,-292,-219,183,74,-256,101,2,-22,-122,-154,-125
-143,-335,-191,239,24,-263,118,0,-20,-108,-146,-113
-130,-324,-194,227,32,-259,177,53,36,-107,-153,-99
-112,-291,-179,202,33,-234,168,68,51,-86,-136,-95
-101,-194,-93,148,-4,-143,182,70,89,-38,-80,-90
-17,-134,-117,75,51,-125,168,52,94,-43,-93,-87
-70,-107,-36,89,-17,-71,102,12,66,-30,-98,-80
-75,-116,-41,96,-17,-78,87,-8,51,-32,-93,-80
-92,-136,-44,114,-24,-89,81,-28,48,-17,-81,-58
-65,-121,-56,93,-4,-88,90,-5,62,-35,-86,-59
-50,-88,-38,69,-6,-63,91,-10,38,-60,-93,-59
-154,-173,-18,163,-68,-95,235,208,212,14,-84,-86
130,-86,-216,-22,173,-151,11,38,134,219,227,109
518,86,-431,-302,475,-172,-712,-723,-298,450,625,382
504,-219,-723,-142,614,-471,-944,-961,-598,52,220,172
150,-297,-447,73,299,-372,-646,-754,-735,-535,-294,-59
-21,-88,-67,54,23,-77,-320,-425,-403,-397,-234,-62
25,-77,-102,26,64,-89,-87,-132,-40,-110,-108,-45
-3,-40,-37,22,17,-39,33,-59,23,-63,-59,-25
-27,-23,4,25,-15,-9,33,-47,60,-53,-71,-35
-40,-60,-19,50,-10,-39,34,-43,75,-48,-77,-17
-53,-28,24,40,-38,-2,46,-29,118,-27,-59,-36
-104,-15,89,59,-96,37,42,2,129,-18,-56,-76
-82,-35,47,59,-64,6,71,25,120,-1,-46,-98
-32,25,57,3,-45,41,63,23,132,4,-41,-143
-42,4,46,18,-44,25,54,59,138,-9,-36,-161
-16,-22,-6,19,-5,-14,52,69,143,10,-19,-149
-23,17,40,3,-32,28,39,56,169,53,17,-96
-36,42,78,-3,-57,59,42,64,198,90,53,-47
16,64,47,-40,-16,55,28,48,209,101,69,-19
14,78,64,-46,-25,70,39,67,231,121,103,32
2,123,120,-63,-59,121,47,83,246,148,144,57
57,146,89,-102,-16,117,11,66,244,145,149,69
65,156,91,-111,-13,123,18,76,250,137,143,70
61,142,81,-102,-10,111,19,63,241,131,131,34
59,126,66,-93,-4,96,10,64,227,124,121,-1
66,117,52,-92,7,84,11,62,219,113,97,-29
48,58,10,-53,19,33,-3,38,207,91,49,-73
-47,-20,27,33,-37,4,6,36,199,57,20,-96
-59,-29,31,44,-45,1,20,26,171,14,-10,-115
-20,-27,-7,24,-7,-17,47,5,133,-17,-49,-137
-36,-81,-45,58,5,-63,64,-31,102,-53,-69,-128
-48,-87,-38,68,-5,-62,58,-37,98,-76,-97,-133
-46,-95,-49,71,1,-72,60,-21,105,-80,-89,-117
-140,-122,18,131,-79,-52,70,-20,82,-79,-65,-97
-168,-104,65,136,-116,-19,69,-7,98,-76,-85,-114
-94,-101,-7,98,-44,-54,57,-6,135,-73,-80,-112
-78,-81,-4,80,-37,-42,47,-32,125,-70,-74,-126
-79,-56,22,67,-50,-17,39,-26,119,-70,-68,-156
-96,-73,22,84,-59,-25,33,-13,113,-85,-68,-170
-50,-105,-55,78,3,-80,29,-43,107,-121,-96,-181
-18,-84,-66,51,24,-74,23,-53,104,-113,-92,-164
-60,-28,32,44,-46,2,16,-49,99,-88,-90,-143
-105,-64,41,84,-73,-11,17,-48,91,-108,-86,-133
-101,-93,7,97,-54,-43,9,-44,81,-122,-81,-113
-63,-68,-4,66,-29,-36,27,-45,87,-116,-81,-88
-63,-75,-12,69,-25,-43,51,-50,89,-115,-59,-79
-25,-59,-34,42,5,-46,43,-58,85,-114,-85,-80
-54,-56,-1,55,-26,-28,13,-50,80,-111,-108,-80
-105,-73,32,89,-68,-20,14,-59,75,-109,-95,-79
-73,-55,18,64,-45,-19,45,-68,73,-112,-93,-80
-100,-87,13,93,-56,-37,33,-63,63,-115,-89,-84
-111,-106,5,108,-57,-50,21,-67,72,-115,-90,-90
-97,-114,-17,106,-39,-65,19,-63,80,-120,-90,-105
-57,-95,-39,76,-8,-67,13,-66,72,-120,-89,-100
-70,-74,-4,72,-33,-39,8,-82,78,-123,-91,-99
-96,-77,19,86,-57,-29,7,-79,81,-131,-90,-99
-40,-50,-10,45,-15,-30,-10,-62,86,-135,-96,-102
-85,-62,24,73,-54,-19,12,-54,91,-135,-94,-104
-117,-55,62,86,-89,4,29,-51,92,-135,-97,-107
-112,-55,57,83,-84,1,11,-38,87,-136,-103,-98
-101,-50,51,76,-76,0,26,-63,86,-134,-95,-67
-104,-53,50,78,-77,-1,-19,-95,82,-147,-129,-118
-75,-36,39,55,-57,2,-11,-89,80,-144,-127,-117
-66,-43,23,55,-45,-10,10,-90,76,-130,-95,-84
-122,-62,60,92,-90,-2,-36,-89,48,-126,-85,-100
-113,-38,75,75,-94,19,-23,-74,76,-95,-44,-56
-127,-69,58,98,-92,-5,-13,-61,95,-93,-38,-25
-66,-6,60,36,-63,27,11,-57,104,-84,-29,-21
-2,45,46,-22,-24,45,34,-44,108,-55,-21,-29
21,58,37,-40,-8,47,36,-34,108,-31,-11,-38
-5,87,92,-41,-49,89,48,-25,171,-9,37,-27
-10,82,92,-36,-51,87,1,-37,160,-11,43,-11
18,123,105,-71,-43,114,-55,-74,130,-35,33,-1
-76,92,168,-8,-123,130,-62,-90,122,-60,29,25
30,43,13,-36,8,28,-49,-84,107,-55,18,52
80,-7,-86,-36,83,-46,-33,-80,103,-83,-2,50
-60,-56,4,58,-32,-26,-1,-80,101,-105,-29,49
-88,-79,9,83,-48,-35,18,-77,96,-133,-50,44
-79,-77,2,78,-40,-38,16,-76,93,-117,-36,46
-65,-84,-19,75,-23,-51,29,-73,90,-126,-38,47
-65,-87,-22,76,-21,-55,14,-78,82,-140,-28,69
-44,-64,-19,54,-12,-41,-5,-80,101,-112,-22,68
-61,-66,-6,63,-27,-36,44,-20,130,-136,-24,75
-95,-61,35,78,-65,-13,227,174,273,-9,26,73
49,-13,-62,-18,56,-38,22,-126,156,101,169,140
558,299,-259,-428,408,20,-861,-1014,-209,507,719,516
899,207,-692,-553,796,-242,-1345,-1329,-335,553,813,623
544,-134,-678,-205,612,-406,-1016,-1033,-496,-247,135,305
85,-15,-101,-35,93,-58,-511,-650,-470,-525,-175,132
-67,-45,21,56,-44,-12,-131,-236,-103,-333,-139,59
-91,-81,10,86,-51,-35,45,-32,112,-210,-90,13
-113,-45,68,79,-91,12,95,10,154,-140,-46,0
-103,-77,26,90,-64,-25,121,54,168,-124,-33,-35
-108,-34,74,71,-90,20,120,81,200,-128,-20,-64
-121,-37,84,78,-102,23,120,97,222,-146,-29,-79
-77,-25,51,51,-64,13,118,94,209,-117,-37,-64
-92,2,93,45,-92,47,133,95,224,-110,-32,-44
-104,-5,99,54,-101,46,146,113,253,-93,-18,-35
-102,-33,68,67,-85,17,135,152,278,-72,10,-21
-89,-23,66,56,-78,22,133,179,308,-67,50,-9
-1,60,61,-30,-31,60,123,171,319,-58,49,-38
24,111,87,-68,-31,99,128,183,344,-51,26,-71
10,77,68,-44,-29,72,130,195,371,-25,41,-76
31,108,78,-70,-24,93,110,186,368,-10,58,-72
4,133,129,-69,-63,131,104,182,398,20,79,-60
5,112,107,-59,-51,109,91,176,409,45,97,-49
54,168,114,-111,-31,141,60,170,365,-13,66,-43
8,145,137,-77,-64,140,75,157,361,4,87,-24
-11,106,117,-47,-65,111,82,146,358,3,96,-18
42,154,113,-98,-36,133,59,134,327,-44,66,-12
40,142,103,-91,-32,122,60,112,317,-46,55,22
43,96,53,-70,-5,74,56,100,304,-77,28,39
-3,84,87,-41,-45,85,53,83,270,-82,-6,-6
-47,73,120,-13,-84,96,50,57,238,-101,-40,-37
-19,66,86,-24,-53,76,51,39,215,-111,-38,-17
-44,56,100,-6,-73,78,56,31,174,-136,-61,-16
12,47,35,-30,-12,41,57,27,152,-168,-95,-29
23,40,16,-31,3,28,61,21,163,-182,-96,-62
-38,21,59,9,-49,40,63,15,163,-198,-101,-75
-42,-1,41,21,-41,20,67,10,158,-165,-100,-70
-72,-56,16,64,-44,-20,66,21,151,-180,-99,-80
-68,-84,-16,76,-26,-49,78,30,143,-214,-107,-77
-89,-128,-40,108,-24,-84,99,33,139,-242,-113,-83
-85,-168,-83,126,-1,-125,104,49,127,-258,-116,-83
-74,-158,-84,116,5,-121,113,47,136,-240,-129,-86
-97,-129,-32,113,-32,-80,119,48,161,-209,-111,-95
-62,-26,35,43,-48,5,116,57,181,-154,-94,-56
-31,46,76,-8,-54,61,104,28,178,-157,-102,-36
-15,73,88,-29,-51,80,72,6,164,-176,-86,-43
-32,98,129,-34,-81,113,26,-5,139,-194,-96,-44
-46,116,162,-36,-104,139,8,-29,139,-187,-77,-26
-39,78,116,-20,-78,97,22,-30,141,-186,-87,-36
-36,123,159,-44,-98,140,40,18,178,-137,-60,-13
-28,117,145,-45,-87,131,183,251,424,16,-22,-8
143,134,-9,-138,76,62,-56,-43,160,67,137,119
552,289,-263,-420,407,13,-791,-874,-431,238,603,471
653,46,-606,-349,629,-280,-1044,-1077,-621,-17,388,410
304,-37,-341,-133,323,-189,-748,-842,-708,-683,-241,147
29,137,108,-84,-40,123,-374,-472,-380,-590,-268,102
14,119,105,-67,-46,111,-108,-120,51,-254,-127,89
15,157,143,-86,-64,150,-5,-10,143,-199,-76,91
-6,156,162,-75,-85,159,33,13,197,-165,-74,72
43,146,103,-95,-30,125,21,3,209,-166,-90,61
-12,151,163,-69,-88,156,29,47,222,-153,-87,56
-50,123,173,-36,-112,148,69,60,237,-150,-93,34
1,131,129,-66,-64,130,66,57,242,-143,-87,5
36,163,128,-100,-46,145,58,66,253,-142,-94,-30
73,191,118,-132,-23,154,55,66,271,-123,-70,-11
98,202,104,-150,-4,153,47,90,282,-77,-26,35
38,174,137,-107,-50,155,42,89,297,-85,-24,66
-7,179,187,-86,-97,182,33,90,335,-66,1,115
55,250,195,-153,-70,222,29,104,344,-33,45,116
28,246,218,-137,-95,232,18,106,356,-31,61,109
58,260,202,-160,-72,231,28,102,375,10,100,120
115,313,198,-214,-42,255,33,100,377,37,123,105
60,297,237,-178,-89,267,19,99,371,15,105,99
88,298,210,-194,-61,254,-1,93,364,3,93,98
46,274,227,-160,-90,250,14,86,357,-7,95,99
5,226,221,-116,-108,223,59,80,352,-18,93,86
45,225,180,-135,-68,202,55,72,338,-26,58,71
48,196,148,-122,-50,172,47,67,312,-44,29,59
44,149,104,-97,-30,126,42,59,293,-69,3,35
-30,111,142,-41,-86,126,33,47,273,-103,-25,12
-30,92,123,-31,-77,107,30,34,252,-144,-53,-23
-2,89,91,-44,-47,90,15,30,212,-161,-74,-35
-18,81,99,-32,-59,90,26,30,204,-166,-73,-26
-1,73,74,-37,-38,74,38,27,223,-185,-101,-63
-50,60,110,-5,-80,85,34,25,219,-188,-119,-77
-40,65,105,-13,-72,84,35,24,220,-178,-113,-75
-28,76,104,-25,-66,90,43,35,221,-173,-117,-72
-42,71,113,-15,-78,92,45,41,214,-166,-114,-80
-7,50,56,-22,-32,53,39,39,208,-158,-111,-115
-19,67,86,-24,-53,76,33,40,199,-166,-106,-110
-24,84,108,-30,-66,96,32,40,195,-182,-103,-101
-57,34,90,11,-74,61,22,40,183,-180,-100,-98
-49,50,100,-1,-75,75,26,40,187,-180,-94,-87
-16,106,122,-45,-69,114,58,40,222,-179,-98,-86
-14,95,109,-40,-62,101,62,40,226,-181,-99,-92
-11,84,96,-37,-54,90,58,40,224,-178,-102,-95
-35,78,113,-22,-74,95,57,40,225,-173,-104,-86
-14,70,84,-29,-49,77,54,39,224,-165,-108,-89
-32,70,102,-19,-67,86,55,35,225,-160,-123,-101
-57,65,122,-4,-90,93,48,28,208,-153,-115,-94
-25,64,90,-20,-58,77,47,46,227,-144,-109,-94
-33,59,92,-13,-62,75,41,49,241,-162,-110,-97
-36,60,96,-12,-66,78,40,36,229,-145,-105,-92
-16,50,66,-18,-41,58,33,18,227,-164,-104,-112
-31,42,73,-6,-52,58,28,1,219,-193,-112,-120
-21,53,74,-16,-48,63,47,22,215,-189,-122,-105
-5,82,86,-39,-46,84,41,27,209,-204,-117,-86
-34,96,130,-32,-82,113,31,23,203,-181,-115,-48
-50,69,120,-10,-85,94,36,27,201,-183,-108,-28
-48,68,116,-10,-82,92,37,23,209,-185,-93,-12
-55,46,101,4,-78,73,42,28,216,-169,-80,5
-30,49,78,-10,-54,63,44,18,213,-166,-74,4
-15,74,89,-30,-52,81,49,27,216,-155,-73,16
-53,15,68,19,-61,41,51,50,218,-155,-70,21
-41,-8,33,24,-37,12,55,50,218,-143,-66,19
-34,15,49,9,-42,31,56,51,209,-159,-66,21
-53,32,85,10,-69,58,54,49,207,-165,-52,25
-58,65,123,-4,-91,94,67,52,231,-132,-18,66
-34,115,149,-40,-92,132,77,49,239,-122,-4,88
35,156,121,-96,-43,139,89,77,273,-100,3,113
56,154,99,-105,-22,127,78,95,298,-67,19,148
10,156,145,-83,-68,150,28,38,250,-91,5,129
21,152,131,-87,-55,141,-9,20,237,-105,2,152
59,142,84,-101,-12,113,-42,15,243,-110,23,173
29,121,93,-75,-32,107,-25,-1,236,-110,21,154
12,91,79,-52,-34,85,13,21,230,-125,-9,146
4,93,88,-48,-42,90,13,31,222,-169,-40,133
-32,86,118,-28,-75,102,15,29,216,-179,-70,110
-44,95,139,-26,-91,116,-21,22,220,-177,-70,88
-37,79,117,-21,-77,98,-16,24,221,-183,-105,57
-28,107,135,-39,-82,120,4,16,204,-210,-153,21
-44,103,147,-30,-96,125,-2,10,240,-181,-114,30
-23,85,109,-31,-66,97,37,45,268,-160,-97,85
-28,90,118,-32,-73,104,229,213,386,-86,-19,128
66,34,-32,-50,48,1,102,65,343,17,97,155
439,329,-110,-384,275,109,-754,-701,-54,359,602,470
771,354,-417,-562,594,-32,-1306,-1062,-141,711,982,662
590,-38,-628,-276,609,-332,-1027,-816,-150,103,362,339
150,-13,-163,-68,156,-87,-524,-531,-245,-509,-128,118
23,57,33,-40,-5,44,-169,-206,37,-347,-104,64
-12,15,27,-2,-20,21,44,38,297,-183,-40,74
-55,42,98,6,-77,70,113,116,368,-133,41,143
-81,30,111,25,-96,70,110,134,402,-108,39,148
-84,38,123,23,-104,80,146,155,390,-102,34,149
-48,64,112,-8,-80,88,133,145,397,-88,20,144
-67,46,113,10,-90,80,142,164,424,-81,39,142
-53,33,87,10,-70,60,158,213,453,-64,73,139
-43,34,77,5,-60,55,141,214,473,-52,80,150
-18,60,78,-21,-48,68,136,228,493,-40,101,161
3,65,61,-34,-29,63,116,250,517,-38,79,128
10,55,45,-32,-18,50,133,260,525,-33,51,99
50,84,34,-67,8,59,152,258,538,-21,49,102
31,111,80,-71,-25,95,147,265,563,-6,62,116
35,147,112,-92,-38,129,141,276,557,10,68,134
108,193,84,-150,12,138,144,274,566,38,95,165
98,201,103,-149,-3,151,119,285,576,87,146,218
117,201,85,-159,16,143,75,288,553,84,150,249
112,243,131,-178,-10,187,91,259,533,50,143,239
66,194,128,-130,-31,161,97,229,524,22,132,245
96,158,63,-127,16,110,93,219,496,0,97,222
46,170,124,-108,-39,147,87,219,457,-35,77,169
35,84,50,-60,-8,67,100,223,457,-45,60,156
28,24,-4,-26,16,10,130,188,417,-56,14,128
-24,-43,-19,34,-3,-31,131,160,348,-128,-44,99
-14,-88,-74,51,30,-80,128,161,332,-153,-74,97
-30,-69,-40,50,5,-54,132,154,328,-142,-76,93
-42,-53,-11,47,-15,-32,152,152,332,-133,-59,98
-35,-12,23,23,-29,6,160,139,328,-130,-47,91
-26,10,36,8,-31,22,165,140,331,-93,-14,105
-19,30,50,-6,-35,40,107,102,337,-102,2,131
-7,74,81,-33,-44,77,45,59,306,-150,-24,133
-5,63,68,-29,-37,65,49,70,287,-142,-42,134
-12,77,89,-33,-51,83,59,60,275,-143,-61,139
-21,97,118,-38,-70,107,76,53,263,-143,-75,146
-51,70,122,-10,-87,95,63,54,246,-156,-93,143
-27,157,184,-65,-106,170,43,25,251,-100,-52,163
-51,172,223,-60,-138,197,79,48,253,-69,-48,172
24,111,86,-68,-31,99,112,193,339,83,119,211
306,-196,-503,-55,405,-349,94,353,488,130,129,147
490,-602,-1092,56,792,-847,-17,328,411,-286,-343,-90
417,-497,-915,40,666,-706,-81,157,236,-591,-592,-170
107,-325,-433,109,270,-379,147,188,158,-633,-597,-128
-106,-163,-56,135,-25,-110,374,389,308,-452,-445,-52
-208,39,247,84,-228,143,522,452,421,-290,-265,59
-271,16,287,128,-280,151,715,400,274,-287,-240,112
-246,-20,226,133,-236,103,698,261,149,-279,-181,151
-206,11,217,97,-212,114,498,73,34,-323,-164,175
-148,93,241,27,-195,167,197,-39,37,-244,-92,214
-86,167,253,-41,-170,210,-21,-54,161,-90,38,247
-23,213,235,-95,-129,224,-65,-64,194,-41,64,203
-21,234,256,-107,-138,245,-113,-87,186,-32,54,146
-7,230,238,-112,-123,234,-136,-70,202,-10,66,150
44,284,239,-164,-98,261,-151,-104,209,10,98,204
57,333,276,-195,-110,304,-189,-154,177,36,134,245
49,370,322,-210,-137,346,-232,-188,158,47,168,289
66,426,360,-246,-147,393,-273,-232,147,66,224,342
122,485,363,-304,-121,423,-318,-280,112,97,281,397
120,523,403,-322,-142,463,-365,-317,91,119,323,430
118,553,434,-336,-158,494,-414,-357,95,138,341,438
146,590,444,-368,-149,516,-457,-397,96,172,379,447
111,550,439,-331,-164,494,-450,-381,94,176,394,432
135,516,381,-326,-123,448,-446,-362,96,153,375,398
165,466,300,-316,-68,383,-440,-329,93,153,344,362
141,390,249,-266,-54,319,-413,-277,104,106,272,303
150,343,193,-247,-21,268,-371,-223,137,57,212,224
136,282,145,-209,-5,214,-323,-175,147,20,148,161
127,234,107,-181,10,170,-271,-135,144,-33,70,116
74,174,100,-124,-13,136,-209,-90,160,-45,26,74
39,146,107,-92,-35,126,-168,-42,205,-53,17,52
72,140,67,-106,2,103,-117,7,223,-88,-16,42
13,132,119,-73,-53,125,-66,36,207,-89,-34,33
-32,123,155,-46,-94,139,-55,36,198,-97,-54,24
-29,100,129,-36,-80,115,-51,29,194,-126,-80,27
1,128,127,-65,-63,128,-40,20,195,-123,-66,46
6,121,115,-64,-55,118,-29,9,195,-118,-48,51
-7,95,102,-44,-55,99,-17,47,195,-117,-33,49
-1,98,99,-49,-51,99,-9,55,196,-109,-37,67
8,94,86,-51,-39,89,-2,42,199,-116,-35,80
25,88,63,-57,-19,75,13,46,200,-126,-52,57
8,73,65,-40,-29,69,13,27,201,-122,-20,73
18,72,54,-45,-18,63,3,52,206,-118,30,103
27,61,35,-44,-4,48,19,62,205,-115,14,98
28,50,22,-39,3,36,41,59,203,-110,20,99
-2,56,58,-27,-30,56,55,60,197,-116,3,89
-44,28,71,7,-58,49,60,65,192,-133,12,113
-39,-8,31,23,-35,11,52,97,189,-115,28,97
-22,22,43,-1,-33,32,63,72,182,-125,-20,76
-5,54,60,-24,-33,57,72,63,182,-170,-71,66
-43,26,69,8,-56,47,53,82,168,-154,-72,58
-73,36,109,18,-91,72,49,87,186,-142,1,132
-48,71,119,-11,-84,94,21,97,218,-147,17,151
-92,6,97,43,-95,51,20,76,198,-141,-8,139
-123,-23,100,73,-111,39,74,84,188,-141,-53,126
-59,41,100,9,-80,70,82,97,184,-140,-77,134
-28,42,70,-7,-50,56,74,87,179,-135,-30,165
-49,35,84,7,-66,59,67,86,178,-128,-14,134
-61,31,92,15,-77,61,68,80,170,-119,-43,120
-48,23,71,12,-60,47,71,75,172,-118,-59,141
-18,43,61,-13,-40,52,70,80,156,-119,-9,152
-26,27,52,-1,-39,39,71,86,151,-132,-14,149
-16,57,73,-21,-45,65,73,92,183,-138,-42,150
14,100,86,-57,-37,93,89,94,205,-127,-39,150
-22,117,138,-48,-80,127,73,99,209,-105,-28,149
-17,153,170,-68,-94,161,81,116,207,-68,24,154
18,167,149,-93,-66,157,36,113,194,-53,37,170
6,170,164,-89,-79,167,-32,103,184,-43,58,194
-47,117,163,-35,-105,140,-9,78,173,-64,43,188
-30,85,115,-28,-73,100,-20,61,146,-101,10,167
10,76,66,-43,-29,71,9,68,129,-133,15,155
-65,18,83,23,-74,50,29,62,127,-145,5,124
-77,-16,62,46,-69,23,7,68,117,-133,-40,82
-58,14,72,22,-65,43,38,60,107,-156,-83,99
-100,-12,88,56,-94,38,53,56,109,-181,-55,115
-102,-72,30,86,-66,-20,47,38,94,-191,-48,108
-118,-66,52,91,-85,-7,53,30,99,-176,-51,109
-105,-64,42,84,-73,-11,48,57,87,-188,-82,82
-106,-22,84,64,-95,31,174,213,221,-93,-77,50
-33,-14,19,24,-26,2,169,191,262,61,50,83
340,249,-92,-294,216,78,-497,-509,-156,416,582,452
690,361,-329,-526,509,16,-1115,-1010,-332,829,1052,728
598,-30,-628,-284,613,-328,-972,-850,-410,261,514,494
144,-78,-222,-33,183,-150,-551,-597,-575,-513,-151,225
-66,7,74,29,-70,40,-236,-281,-293,-452,-215,125
-62,-44,18,53,-40,-13,7,23,30,-208,-114,116
-92,-15,78,53,-85,32,73,103,109,-152,-76,125
-37,-1,36,19,-36,17,66,80,100,-179,-120,136
-78,-2,76,40,-77,37,109,118,133,-178,-133,133
-86,14,100,36,-93,57,107,150,172,-160,-107,129
-47,39,87,3,-67,63,108,149,163,-161,-97,127
-72,23,95,24,-84,59,103,155,173,-146,-92,124
-22,56,78,-18,-50,66,96,158,172,-129,-88,134
-3,62,65,-30,-34,63,95,160,192,-110,-81,146
-5,48,54,-22,-29,51,87,165,208,-104,-77,179
21,92,72,-56,-26,82,85,168,221,-85,-61,187
8,92,84,-50,-39,88,80,194,241,-41,-22,184
47,142,95,-95,-24,118,80,191,248,-27,-4,182
65,173,108,-120,-21,140,80,191,288,-30,19,180
22,167,145,-95,-62,156,79,215,308,-19,45,178
46,216,171,-131,-62,193,81,183,295,-17,51,197
68,220,152,-144,-42,186,77,189,292,-9,64,238
57,204,146,-131,-45,175,70,198,282,-6,56,247
57,193,136,-125,-40,164,62,170,240,-28,39,232
33,176,143,-104,-56,159,55,156,203,-53,22,210
32,160,127,-96,-48,143,47,147,196,-49,9,184
45,137,92,-92,-24,115,40,147,188,-48,-13,149
27,106,78,-67,-26,92,65,141,177,-96,-33,127
14,20,7,-17,4,13,73,141,140,-119,-50,103
-20,-78,-58,49,20,-68,57,128,109,-148,-94,65
-59,-119,-61,89,1,-90,85,132,111,-178,-129,51
-86,-114,-27,100,-30,-70,120,150,104,-168,-155,35
-60,-88,-28,75,-16,-58,123,135,110,-150,-124,46
-29,-68,-38,49,5,-53,147,169,148,-110,-84,104
-34,-3,31,18,-33,14,160,195,159,-96,-64,143
-30,61,91,-16,-61,75,110,144,139,-101,-59,137
-40,67,107,-14,-74,87,60,99,125,-116,-58,144
-36,52,87,-8,-61,69,48,94,121,-147,-52,143
-28,84,112,-29,-70,98,38,91,103,-148,-56,146
-14,101,115,-43,-65,108,20,87,109,-146,-41,140
-16,69,86,-27,-51,77,19,87,99,-165,-77,113
-84,49,132,17,-108,90,96,151,126,-120,-103,108
-38,-27,11,32,-25,-8,149,271,215,-53,-62,94
270,174,-97,-222,183,38,-54,244,356,316,340,322
397,227,-170,-311,284,28,-107,252,597,663,582,417
132,0,-133,-66,132,-66,78,271,494,191,39,133
-99,83,182,8,-141,132,235,307,297,-216,-286,0
-190,87,277,51,-234,182,489,515,377,-133,-228,-61
-233,17,250,108,-242,133,648,501,269,-193,-233,-97
-271,11,282,130,-277,146,735,320,52,-278,-206,-69
-285,-40,244,162,-264,102,712,111,-104,-309,-197,-57
-201,-3,198,102,-200,97,440,-67,-181,-297,-158,11
-86,68,155,9,-121,111,91,-122,-154,-230,-94,83
-19,121,141,-52,-80,131,-105,-91,-76,-145,-46,130
11,175,164,-93,-77,170,-108,-18,41,-72,4,168
43,146,103,-95,-30,124,-140,-52,48,-72,31,188
72,144,73,-108,-1,108,-163,-60,18,-57,54,187
111,192,82,-152,14,137,-166,-45,14,-48,83,216
136,184,48,-160,44,115,-201,-69,-14,-51,83,241
101,183,82,-142,9,132,-226,-93,-19,-32,94,252
126,186,60,-156,32,123,-274,-142,-47,-36,125,278
177,226,49,-201,64,137,-308,-166,-85,-55,155,274
167,236,69,-202,49,152,-358,-205,-115,-53,174,264
189,210,21,-199,84,115,-409,-249,-151,-41,174,260
188,236,48,-212,70,142,-422,-282,-192,-62,170,248
228,234,6,-231,110,120,-464,-307,-208,-90,169,252
240,214,-26,-227,133,93,-470,-290,-213,-84,171,267
154,219,66,-187,44,143,-450,-273,-222,-73,159,259
139,180,41,-160,49,110,-410,-255,-196,-73,143,238
121,130,9,-125,56,69,-354,-207,-133,-58,123,205
91,112,21,-102,34,67,-349,-140,-88,-66,71,172
74,129,54,-102,10,91,-272,-84,-77,-92,17,155
70,108,38,-89,16,73,-187,-32,-22,-69,-4,139
30,65,35,-48,-2,50,-159,24,25,-55,-8,116
-23,65,88,-21,-55,76,-112,49,59,-65,-12,93
-17,53,71,-18,-44,62,-70,94,99,-55,-19,89
17,78,61,-48,-22,69,-33,133,104,-73,-49,81
22,89,67,-56,-23,78,-13,123,108,-89,-68,68
-34,56,90,-11,-62,73,1,125,112,-77,-55,58
-43,54,96,-6,-70,74,4,111,105,-99,-68,54
-94,25,119,34,-107,72,31,128,109,-109,-84,56
-85,33,118,26,-102,75,52,153,124,-102,-82,51
-52,38,90,6,-71,64,47,144,110,-107,-77,50
-83,15,98,34,-91,56,44,128,97,-100,-63,50
-43,46,89,-2,-67,67,10,100,94,-96,-58,50
-22,63,85,-21,-54,74,21,110,89,-89,-46,50
-18,62,80,-22,-50,71,37,94,87,-85,-42,50
-34,35,68,-1,-51,51,23,99,82,-78,-38,51
-38,42,81,-2,-60,61,22,127,80,-78,-41,48
-62,27,89,17,-76,58,14,117,75,-99,-52,58
-48,29,76,9,-62,52,21,118,75,-89,-41,85
-13,62,75,-24,-44,68,24,103,74,-83,-34,115
-33,30,63,1,-48,46,17,98,69,-105,-39,126
-31,31,63,0,-47,47,17,100,71,-98,-52,125
-13,42,55,-15,-34,48,7,97,67,-99,-54,117
-19,52,70,-17,-45,61,13,94,63,-111,-62,111
-71,41,112,15,-92,76,31,91,79,-110,-46,97
-63,2,65,30,-64,33,30,88,80,-109,-36,63
-34,41,75,-4,-55,58,30,85,75,-104,-53,66
-20,87,107,-33,-64,97,26,84,74,-105,-49,72
-51,35,86,8,-69,61,25,76,69,-103,-61,68
-73,4,77,34,-75,40,25,88,72,-99,-57,71
-34,13,47,10,-41,30,18,97,75,-97,-41,69
-47,16,63,15,-55,40,11,70,76,-93,-47,72
-12,40,52,-14,-32,46,3,63,74,-92,-48,79
-8,47,55,-20,-32,51,12,93,77,-89,-56,90
-74,58,132,8,-103,95,16,86,72,-81,-49,96
-54,78,133,-12,-93,105,24,93,88,-52,-9,123
7,119,112,-63,-53,115,55,145,115,-33,12,152
15,171,156,-93,-71,163,30,128,105,-31,28,149
-8,185,193,-88,-101,189,-62,86,96,-36,45,156
-14,168,182,-77,-98,175,-85,90,89,-28,34,168
30,122,92,-76,-31,107,-73,87,95,-17,27,173
-17,88,105,-35,-61,96,-56,71,110,-31,21,168
-85,57,142,14,-114,99,-29,60,73,-58,5,157
-27,37,64,-6,-45,50,-42,66,60,-105,-11,135
-81,6,87,37,-84,46,-12,90,79,-94,-34,107
-73,22,96,25,-85,59,33,78,57,-85,-51,112
-19,29,48,-5,-34,38,25,60,50,-128,-69,96
-35,-16,18,25,-26,1,-16,57,41,-107,-48,111
-34,-14,19,24,-26,3,-23,60,39,-90,-41,123
-104,-7,97,55,-100,45,37,117,80,-94,-57,119
-141,4,145,68,-143,74,189,248,188,-18,-32,92
-19,42,61,-12,-40,51,-26,26,87,131,152,163
428,375,-53,-401,240,161,-873,-684,-244,616,810,600
780,368,-412,-574,595,-22,-1331,-980,-285,932,1082,742
528,3,-524,-265,526,-260,-969,-715,-341,226,417,399
115,15,-99,-65,107,-42,-501,-429,-447,-413,-90,156
-53,-7,46,30,-50,19,-194,-116,-156,-252,-96,82
-153,-14,139,84,-146,62,-1,122,96,-87,-24,74
-86,26,112,30,-100,69,43,154,118,-85,-10,26
-78,13,91,32,-85,52,80,174,154,-52,18,31
-120,57,176,32,-148,116,74,168,142,-53,1,20
56,58,2,-57,27,30,53,163,141,-72,-26,-2
-65,63,128,1,-97,95,102,199,167,-54,10,40
-96,67,163,14,-130,115,62,185,149,-51,-4,38
36,77,41,-57,-2,59,62,210,206,-32,-6,77
-61,81,142,-11,-101,111,106,236,234,19,28,92
-49,84,133,-18,-92,108,93,240,234,37,56,98
-35,106,141,-36,-89,124,86,239,261,49,57,109
-48,116,164,-34,-106,140,77,217,270,66,77,104
17,169,152,-93,-68,161,68,234,283,88,89,130
4,175,171,-89,-84,172,63,275,305,103,99,128
-1,161,163,-80,-82,162,55,287,333,126,143,136
32,204,172,-118,-70,188,46,284,311,143,142,129
40,221,181,-130,-71,201,45,257,296,125,144,125
39,250,211,-145,-86,230,14,229,305,116,150,129
16,245,229,-131,-107,237,21,224,281,106,147,113
50,209,159,-130,-55,184,25,182,247,92,132,89
45,177,133,-111,-44,155,3,180,231,82,101,51
-15,139,154,-62,-85,146,30,192,214,71,87,37
-16,129,145,-57,-81,137,3,153,169,38,68,22
-19,111,130,-46,-74,120,-37,140,132,22,64,14
-13,105,118,-47,-66,111,-44,149,119,33,60,33
-17,94,111,-39,-64,102,-46,127,105,-17,18,20
-50,52,102,-1,-76,77,-42,82,98,-53,-2,-6
-28,71,99,-22,-64,85,-47,80,91,-41,-8,-10
-3,79,83,-38,-43,81,-37,75,94,-32,-28,-38
-28,76,104,-25,-66,90,-11,87,99,-24,-18,-33
-57,32,89,12,-73,60,18,128,92,-9,-26,-21
-57,-19,38,38,-47,9,13,123,87,-12,-66,-45
-73,-49,24,61,-48,-12,18,124,80,-22,-64,-19
-119,-133,-15,126,-51,-74,44,153,96,-42,-80,-29
-121,-137,-16,129,-53,-76,53,167,120,-52,-92,-88
-103,-111,-8,108,-47,-59,82,168,110,-19,-58,-102
-71,-18,53,45,-62,17,92,170,120,5,-38,-75
-94,29,123,32,-109,76,80,155,128,37,-32,-58
-77,44,121,17,-99,82,55,129,109,56,-19,-55
-21,96,117,-38,-69,107,12,118,102,46,-16,-53
-28,86,115,-29,-72,100,-31,96,84,49,-10,-38
-8,85,93,-39,-51,89,-31,79,78,55,-5,-32
-41,77,118,-18,-80,98,-10,87,89,41,-5,-30
-71,86,157,-8,-114,121,97,205,191,80,-6,-21
14,49,35,-31,-11,42,-84,-68,-71,72,86,67
390,256,-134,-323,262,61,-980,-946,-674,283,584,434
784,261,-523,-522,653,-131,-1430,-1162,-677,527,814,589
545,-25,-570,-260,557,-297,-987,-736,-504,40,254,299
131,62,-69,-96,100,-4,-534,-442,-432,-341,-122,93
6,101,95,-54,-45,98,-217,-113,-89,-108,-69,25
-28,113,141,-42,-85,127,-62,74,105,46,6,1
-66,140,206,-37,-136,173,-44,108,116,59,29,-26
-99,117,216,-9,-158,166,-29,132,148,66,17,-38
-42,159,201,-58,-122,179,-24,153,157,64,12,-22
-60,120,180,-30,-120,150,-14,165,176,70,21,-20
-55,139,195,-42,-125,167,-8,163,199,87,45,-7
-14,168,182,-77,-98,175,0,169,197,92,36,-3
-25,151,176,-63,-101,163,8,172,206,107,57,15
16,170,154,-94,-69,162,14,173,229,116,68,25
-23,161,185,-70,-104,173,18,180,256,126,52,35
-26,171,197,-72,-112,184,38,222,285,173,87,73
-1,215,216,-107,-109,216,44,242,319,202,120,89
-13,233,245,-110,-129,239,26,242,354,220,137,82
-26,220,246,-97,-136,233,19,246,375,247,160,88
-24,262,286,-119,-155,273,8,237,386,257,183,98
38,331,293,-184,-128,311,10,236,393,248,184,98
37,308,271,-173,-117,289,27,229,386,239,196,91
34,299,264,-167,-115,281,22,227,358,234,188,88
36,289,253,-163,-109,271,9,212,336,215,157,82
18,234,216,-126,-99,225,-15,177,298,178,132,52
-11,195,206,-93,-108,201,-31,164,254,147,98,21
-36,157,193,-61,-114,174,-30,139,216,136,97,4
-47,133,181,-43,-114,157,-29,116,167,109,75,-11
-93,100,193,-4,-143,146,-35,102,117,69,30,-17
-52,80,132,-14,-92,105,-41,78,93,56,16,-28
-51,53,104,-2,-78,78,-24,81,97,56,14,-42
-93,45,138,24,-115,91,-14,86,93,45,15,-46
-92,60,152,15,-122,106,-7,84,106,33,9,-44
-96,51,147,22,-122,99,-7,86,116,11,3,-42
-48,64,112,-8,-80,88,-25,84,109,-14,0,-40
-64,63,127,0,-96,95,-19,86,108,-13,-9,-39
-90,69,159,11,-125,114,-1,84,103,-7,-11,-51
-87,69,156,9,-122,112,-19,84,100,-3,-23,-66
-88,64,152,12,-120,107,-36,74,96,5,-36,-86
-83,60,143,11,-113,101,-21,72,90,8,-23,-84
-102,63,165,19,-134,114,-9,94,85,12,-15,-68
-107,65,171,21,-140,118,8,89,80,7,-14,-70
-111,64,175,23,-143,119,-7,72,72,18,-10,-80
-58,112,170,-27,-114,141,-41,65,73,17,-10,-88
-46,127,174,-41,-111,150,-31,65,84,-17,-11,-84
-77,130,206,-27,-142,168,-52,64,86,-26,-8,-80
-68,118,186,-25,-127,152,-56,60,90,-20,-10,-84
-70,108,178,-19,-124,143,-17,60,88,-16,-22,-86
-65,110,175,-23,-120,142,-30,58,84,-13,-3,-83
-65,97,162,-16,-114,129,-38,47,85,0,25,-88
-89,90,179,-1,-135,135,-32,38,85,1,34,-80
-105,80,185,12,-145,132,-38,58,85,-8,34,-105
-96,73,169,12,-133,121,-44,64,85,-7,-2,-122
-101,53,154,24,-128,103,-47,54,86,7,4,-124
-74,88,162,-7,-118,124,-44,52,85,1,24,-175
-61,103,164,-21,-113,133,-46,44,78,26,42,-167
-33,78,111,-23,-72,95,-44,40,75,55,95,-178
-46,72,117,-13,-82,94,-40,36,71,31,101,-196
-84,66,150,9,-118,108,-40,32,62,43,102,-154
-79,50,129,14,-104,89,-38,52,91,33,103,-109
-117,35,152,41,-135,93,-36,67,113,56,113,-55
-97,43,140,27,-119,91,-34,66,109,55,90,-48
-74,42,115,16,-95,78,-34,62,109,38,66,-50
-82,74,156,3,-119,115,-20,62,112,78,92,-38
-105,95,200,5,-153,147,-14,58,108,63,90,-64
-94,136,230,-21,-162,183,1,66,124,65,86,-71
-74,171,245,-49,-160,208,23,95,171,115,109,-60
-59,171,230,-57,-145,201,-28,72,148,143,124,-62
-17,207,224,-96,-121,215,-75,44,119,115,97,-48
6,213,207,-110,-100,209,-91,37,118,95,81,-57
27,173,146,-101,-59,159,-110,24,105,83,87,-61
-12,102,113,-45,-63,107,-91,24,106,66,86,-59
-47,41,87,3,-67,64,-70,10,97,53,65,-62
-106,12,118,47,-112,65,-64,12,80,32,24,-92
-118,15,133,51,-125,73,-64,-5,34,4,-24,-134
-74,6,80,34,-77,43,-67,-24,36,6,-14,-116
-101,4,105,48,-103,54,-89,-32,55,26,7,-114
-144,18,162,63,-153,90,-86,-24,77,74,20,-100
-143,-37,106,90,-124,34,-63,-5,64,49,-9,-108
-145,9,154,68,-149,81,15,73,108,39,-5,-88
-188,10,199,89,-194,104,173,239,283,172,38,-96
80,100,20,-90,29,60,-230,-245,-3,336,289,38
558,385,-172,-471,365,106,-1060,-1020,-328,840,925,482
663,133,-529,-398,596,-198,-1273,-1104,-388,708,794,453
277,-93,-370,-92,324,-231,-871,-834,-586,-173,45,92
-57,76,133,-10,-95,104,-467,-499,-484,-353,-177,-53
-68,31,99,19,-84,64,-204,-161,-116,-129,-102,-142
-142,-47,95,95,-118,24,-34,36,78,-27,-49,-156
-174,-31,143,102,-158,56,-19,60,105,4,-47,-169
-123,8,131,57,-127,69,-19,50,118,18,-49,-204
-121,13,134,53,-128,74,-8,70,106,31,-77,-199
-110,4,114,52,-112,59,-23,79,110,20,-55,-174
-151,27,178,61,-165,102,-16,78,145,52,-4,-140
-177,13,190,82,-183,101,-14,76,145,78,27,-122
-128,43,171,43,-150,106,-9,122,181,74,60,-115
-108,83,190,12,-149,136,-4,158,189,78,56,-107
-128,55,182,36,-155,118,-1,147,200,120,62,-102
-108,60,168,24,-139,114,0,148,235,130,66,-97
-111,89,200,10,-155,144,6,168,229,116,73,-93
-81,116,197,-17,-140,156,1,166,270,150,100,-89
-50,139,189,-44,-120,164,-25,158,298,167,116,-84
-16,168,184,-76,-100,176,-38,154,282,165,121,-81
0,161,161,-81,-81,160,-40,148,278,164,144,-80
-41,164,205,-62,-123,184,-56,123,257,168,153,-77
-33,208,240,-88,-137,224,-61,99,242,144,126,-73
-23,209,232,-93,-128,220,-52,93,232,100,104,-84
-20,172,192,-76,-107,182,-49,84,212,94,89,-103
-26,80,106,-27,-67,93,-41,76,182,76,61,-114
-62,8,70,27,-66,39,-39,69,138,35,21,-164
-139,-25,113,82,-126,44,-33,65,101,-4,-27,-202
-179,-61,118,120,-149,28,-28,65,90,-16,-59,-197
-178,-52,126,115,-152,37,-12,63,98,-24,-73,-228
-154,-6,148,79,-151,71,-4,59,94,-10,-72,-243
-96,37,133,29,-114,85,6,62,95,19,-74,-238
-47,84,131,-19,-89,107,14,43,113,27,-78,-241
-34,86,119,-26,-77,102,-52,-4,82,33,-79,-240
-69,82,151,-7,-110,116,-81,-26,53,26,-86,-234
-113,90,203,11,-158,146,-73,-26,58,31,-82,-213
-84,76,160,3,-123,118,-94,-21,46,18,-84,-200
-55,98,153,-21,-105,125,-100,-21,48,28,-61,-181
-103,54,157,24,-130,105,-83,-21,39,10,-78,-190
-100,112,212,-6,-157,162,-91,-64,34,22,-69,-179
-135,143,277,-4,-206,210,-64,-60,25,13,-62,-191
-128,44,172,42,-150,108,15,73,60,39,15,-174
102,-110,-212,4,157,-161,-35,195,183,216,170,-151
417,-503,-920,43,669,-712,-165,227,259,105,-61,-365
450,-621,-1071,86,761,-846,-236,135,200,-171,-365,-511
142,-491,-632,175,387,-561,-34,131,27,-420,-525,-517
-125,-312,-188,219,31,-250,283,335,109,-364,-471,-473
-283,-79,204,181,-243,62,453,423,256,-101,-247,-351
-331,-38,293,185,-312,127,621,323,98,-102,-208,-319
-329,-46,283,187,-306,119,641,176,-52,-121,-182,-310
-318,-43,275,180,-296,116,458,46,-101,-111,-161,-284
-216,48,264,84,-240,156,137,-63,-70,-33,-85,-242
-148,136,284,5,-216,210,-145,-132,2,72,20,-194
-93,201,293,-54,-193,247,-189,-136,46,138,60,-171
-49,237,286,-94,-168,261,-204,-137,59,176,92,-162
-53,225,278,-87,-166,251,-239,-142,52,172,111,-168
-66,285,351,-110,-209,318,-256,-154,52,198,131,-146
-46,286,333,-120,-190,309,-306,-183,50,230,164,-104
-19,335,354,-158,-187,345,-335,-223,37,263,226,-54
-1,414,415,-207,-208,414,-368,-281,-5,272,254,-11
7,431,424,-220,-208,427,-427,-332,-37,286,302,46
8,502,493,-255,-243,497,-478,-376,-47,308,361,104
29,519,491,-274,-231,505,-515,-444,-92,315,382,124
35,524,488,-280,-227,506,-549,-485,-130,323,384,131
66,547,481,-307,-207,514,-586,-476,-124,316,375,126
69,495,426,-283,-178,460,-581,-479,-116,303,361,116
87,457,370,-273,-142,413,-566,-459,-105,272,303,45
77,387,310,-232,-117,348,-543,-403,-94,235,242,-42
40,296,256,-168,-108,276,-496,-353,-71,195,199,-103
36,252,215,-144,-90,233,-449,-296,-43,174,163,-163
-4,202,206,-99,-105,204,-397,-250,-17,160,114,-201
-29,163,192,-68,-110,177,-346,-192,31,130,56,-237
-38,135,172,-49,-105,153,-277,-127,66,133,37,-259
-54,110,164,-29,-109,137,-230,-86,74,125,24,-284
-65,98,163,-17,-114,130,-204,-46,85,108,5,-304
-75,84,159,-4,-118,121,-166,-22,91,106,-10,-303
-97,59,156,19,-127,108,-144,-17,86,104,-11,-307
-96,59,155,18,-126,106,-132,-34,85,105,-14,-303
-87,64,151,11,-119,107,-119,-38,84,105,-21,-301
-92,55,147,18,-120,101,-107,-21,81,105,-7,-300
-122,17,140,52,-131,78,-100,-7,80,101,-3,-297
-127,13,140,57,-134,76,-98,0,79,96,11,-321
-64,65,129,-1,-96,96,-113,-15,73,93,17,-338
-36,101,137,-33,-86,119,-123,-23,69,87,-7,-332
-105,51,156,26,-131,103,-111,-18,66,83,-21,-327
-150,21,171,64,-161,96,-103,-11,58,80,-37,-345
-97,72,168,12,-133,120,-99,-4,81,73,-25,-377
-69,71,140,-1,-105,105,-100,2,99,83,17,-374
-88,68,156,10,-122,112,-100,10,91,99,25,-376
-62,60,122,1,-92,91,-99,3,91,93,16,-381
-78,37,115,20,-97,76,-100,-15,86,85,11,-377
-150,14,165,68,-158,89,-99,-31,85,79,-33,-392
-119,33,151,42,-135,91,-100,-22,85,69,-69,-405
-80,73,154,3,-118,113,-99,-13,80,70,-20,-383
-122,51,173,35,-148,112,-100,-22,80,98,18,-372
-116,44,161,36,-139,102,-111,-18,80,105,-16,-395
-123,36,159,44,-142,97,-110,-17,80,96,-34,-382
-163,7,169,78,-166,88,-98,-12,84,94,-28,-371
-148,-9,139,78,-143,65,-93,-11,86,84,-31,-388
-137,12,149,62,-143,80,-88,-7,79,83,-30,-386
-127,49,176,39,-152,112,-88,10,79,82,-29,-377
-100,54,154,23,-127,104,-85,7,72,97,-27,-377
-110,42,151,34,-131,96,-83,-5,70,112,-23,-373
-131,47,178,41,-155,112,-80,-15,96,118,-21,-371
-122,77,200,22,-161,139,-77,-14,113,142,-16,-397
-74,124,198,-25,-136,161,-92,8,138,139,-16,-394
-75,137,212,-31,-144,175,-87,25,149,147,-9,-361
-128,129,257,-1,-193,193,-104,-14,140,159,31,-324
-84,161,244,-39,-164,202,-152,-35,125,134,39,-296
-20,130,150,-55,-85,140,-170,-31,103,112,28,-278
-39,95,134,-28,-87,115,-145,-53,96,101,11,-309
-113,61,173,26,-143,117,-109,-31,84,86,-38,-391
-130,10,140,60,-135,75,-104,-20,75,80,-71,-389
-115,20,135,47,-126,78,-105,-53,62,71,-96,-371
-158,17,175,70,-167,96,-105,-65,50,51,-71,-375
-169,-24,145,96,-157,60,-104,-55,40,41,-68,-377
-212,-45,167,128,-189,61,-124,-65,36,41,-88,-379
-200,-45,155,122,-177,55,-112,-54,55,52,-72,-360
-166,-7,159,87,-162,75,-58,-2,80,38,-87,-360
-226,-11,215,118,-221,102,67,149,234,139,-65,-381
-76,22,98,27,-87,59,-82,-65,118,288,98,-302
355,357,2,-356,176,179,-857,-868,-317,708,704,68
704,274,-430,-489,567,-78,-1327,-1188,-396,971,996,227
458,-87,-545,-185,502,-315,-1040,-946,-504,189,276,-93
14,-27,-41,6,28,-34,-627,-650,-574,-396,-257,-347
-88,10,98,39,-93,54,-297,-276,-226,-197,-205,-415
-123,31,154,46,-139,92,-111,-67,39,-15,-130,-428
-152,33,186,59,-169,109,-68,-11,98,43,-112,-413
-200,-42,157,121,-178,57,-43,34,97,40,-114,-429
-202,-24,178,113,-190,77,-34,49,118,61,-107,-458
-132,36,168,48,-150,102,-34,42,112,79,-106,-449
-144,11,155,67,-149,83,-28,58,130,85,-100,-434
-180,-25,155,102,-167,64,-28,61,151,76,-90,-431
-180,3,183,88,-181,93,-22,67,153,78,-79,-414
-148,27,176,60,-162,101,-33,94,168,95,-68,-418
-119,66,184,26,-152,125,-48,97,185,108,-55,-438
-100,82,182,9,-142,132,-52,100,221,135,-46,-439
-74,91,165,-9,-120,128,-49,99,219,138,-44,-421
-65,120,185,-27,-126,152,-53,117,242,174,-41,-400
-43,152,196,-55,-120,173,-84,124,253,190,-39,-386
-31,153,184,-61,-108,168,-77,114,243,180,-33,-356
-31,177,208,-73,-120,193,-95,106,244,182,-39,-366
-19,201,220,-91,-120,211,-128,90,239,178,-16,-380
-17,168,185,-76,-101,176,-107,77,217,153,-20,-376
-57,119,176,-32,-117,147,-98,66,179,106,-74,-386
-74,81,156,-4,-115,118,-87,51,157,65,-100,-392
-69,29,98,20,-84,63,-77,45,139,43,-146,-432
-145,-60,85,103,-115,12,-70,33,124,42,-171,-435
-138,-59,80,98,-109,10,-62,25,113,34,-158,-452
-56,0,56,28,-56,27,-59,26,109,42,-152,-470
-60,26,86,17,-73,56,-49,35,110,57,-148,-467
-107,36,143,35,-126,89,-48,28,111,51,-151,-506
-88,67,156,10,-122,111,-92,-45,75,46,-148,-505
-58,77,136,-10,-97,106,-147,-54,33,43,-152,-501
-81,47,127,17,-104,87,-133,-98,38,37,-164,-497
-98,71,169,14,-134,120,-145,-48,41,36,-160,-487
-137,62,198,37,-168,130,-147,-103,45,41,-152,-484
-148,12,160,68,-154,86,-165,-47,53,46,-146,-474
-134,11,145,61,-140,78,-138,-116,59,49,-139,-471
