I,II,III,aVR,aVL,aVF,V1,V2,V3,V4,V5,V6
-15,-9,7,12,-11,-1,20,-85,-95,-80,-15,-30
-4,11,15,-4,-9,13,20,-85,-97,-80,-25,-30
10,12,2,-11,4,7,20,-85,-102,-80,-37,-30
-13,-25,-12,19,0,-19,15,-85,-105,-79,-34,-30
-40,-25,15,32,-27,-5,15,-85,-109,-98,-35,-30
-55,-21,34,38,-45,6,14,-84,-110,-107,-35,-30
-47,-20,27,33,-37,3,9,-80,-113,-104,-35,-35
-41,-15,26,27,-33,6,11,-80,-116,-106,-32,-35
-38,-16,22,27,-30,3,7,-80,-112,-104,-28,-36
-40,-21,19,31,-29,-1,5,-80,-108,-106,-27,-40
-57,-34,23,46,-40,-5,16,-80,-103,-98,-23,-40
-56,-32,24,43,-40,-4,26,-77,-99,-94,-21,-38
-25,12,37,6,-31,24,34,-58,-95,-84,-19,-29
-4,49,53,-23,-29,51,37,-37,-84,-56,-14,-22
-6,56,62,-26,-34,59,57,-22,-66,-43,-8,-12
-9,54,62,-23,-36,58,48,-12,-58,-43,-5,-8
20,60,41,-40,-11,50,8,-32,-85,-66,0,-23
54,86,32,-70,10,59,1,-47,-99,-77,5,-27
32,60,27,-46,2,43,-6,-44,-101,-75,-2,-22
2,21,18,-12,-8,19,-13,-50,-105,-73,-19,-21
-14,9,23,2,-19,16,-18,-75,-118,-99,-35,-19
-25,-6,19,16,-22,6,-14,-73,-130,-105,-44,-31
-32,-14,19,23,-25,2,-1,-70,-140,-105,-56,-49
-53,-34,19,43,-36,-7,6,-99,-155,-126,-70,-62
-37,-51,-15,44,-11,-33,18,-110,-168,-141,-85,-80
-15,-29,-15,22,0,-22,23,-115,-177,-138,-73,-71
-34,-57,-23,46,-5,-40,30,-99,-158,-120,-75,-78
-50,-60,-10,55,-20,-35,35,-117,-196,-142,-71,-73
-44,-60,-16,53,-14,-38,37,-89,-147,-102,-68,-76
-63,-149,-86,107,11,-117,88,-107,-221,-255,-173,-139
-71,-91,-20,81,-25,-56,247,95,-90,-203,-180,-146
189,286,97,-238,46,191,157,459,533,571,314,121
581,964,383,-773,99,673,-445,438,1228,1973,1379,786
515,921,406,-718,54,663,-843,-19,1056,2005,1377,839
85,150,65,-117,10,107,-581,-704,-340,70,230,213
-56,-89,-34,73,-11,-61,-175,-573,-632,-476,-107,-11
-20,-66,-47,43,14,-56,-1,-135,-166,-125,-52,-57
-27,-67,-40,47,6,-53,47,-137,-213,-196,-87,-94
-29,-45,-17,37,-6,-31,59,-90,-139,-110,-57,-76
-74,-69,5,72,-39,-32,53,-92,-160,-158,-78,-86
-59,-47,11,53,-35,-18,53,-73,-144,-132,-58,-73
-50,-54,-4,52,-23,-29,49,-61,-134,-141,-69,-78
-42,-63,-21,53,-10,-42,51,-63,-134,-144,-61,-71
-26,-58,-32,42,3,-45,50,-48,-110,-134,-58,-66
-37,-44,-6,41,-15,-25,50,-52,-114,-147,-65,-59
-26,-31,-5,29,-10,-18,51,-38,-89,-123,-74,-52
-18,-20,-2,19,-8,-11,49,-31,-86,-112,-60,-46
-14,-12,2,13,-7,-5,54,-14,-70,-95,-45,-39
-3,1,4,1,-3,2,56,-2,-63,-98,-43,-35
-27,-21,6,24,-16,-8,55,17,-42,-86,-33,-27
-42,-27,15,34,-29,-6,55,46,-16,-68,-29,-21
-5,17,21,-6,-14,19,55,73,10,-31,-17,-13
4,36,33,-21,-15,34,56,111,50,8,0,-9
23,58,35,-41,-6,46,53,161,101,36,27,1
57,85,28,-71,15,56,43,224,173,100,54,29
69,127,58,-98,5,92,32,299,264,180,93,55
90,171,81,-131,4,126,23,372,357,268,139,85
119,217,99,-168,10,158,2,438,443,353,184,113
134,240,106,-187,13,173,-22,460,490,403,211,129
145,244,98,-194,23,171,-25,446,489,415,205,132
158,253,95,-206,31,174,-25,432,475,387,197,119
137,229,91,-183,23,160,-18,378,403,341,169,108
102,178,76,-140,13,127,-7,273,290,256,117,81
47,90,44,-69,1,67,2,168,188,149,61,41
10,32,22,-21,-6,27,13,86,78,64,9,13
22,30,8,-26,7,19,16,25,13,-8,-35,-13
8,-4,-12,-2,10,-8,21,-17,-35,-59,-69,-38
-12,-41,-29,27,9,-35,13,-37,-74,-82,-82,-39
-15,-46,-31,31,8,-38,13,-49,-81,-93,-80,-42
-15,-45,-30,30,8,-37,31,-49,-95,-103,-74,-44
-15,-43,-28,29,7,-35,31,-52,-94,-106,-81,-49
-16,-40,-24,28,4,-31,29,-64,-89,-104,-86,-64
-14,-39,-25,27,6,-32,31,-66,-95,-106,-79,-61
-31,-56,-25,44,-3,-40,29,-64,-94,-111,-76,-55
-30,-55,-25,43,-2,-40,31,-61,-89,-107,-71,-50
-22,-48,-25,36,2,-36,27,-60,-85,-101,-66,-43
-33,-57,-25,45,-4,-41,21,-60,-80,-96,-62,-39
-22,-47,-26,35,2,-36,14,-50,-75,-90,-56,-32
-10,-34,-23,22,7,-28,8,-40,-72,-86,-49,-28
-11,-30,-19,21,4,-25,0,-30,-66,-78,-43,-22
-12,-25,-13,19,1,-19,-4,-28,-61,-69,-36,-17
-13,-23,-10,18,-1,-17,3,-31,-58,-60,-30,-10
-14,-19,-4,17,-5,-11,18,-29,-52,-57,-30,-23
-13,-13,-1,13,-5,-6,22,-31,-51,-60,-30,-37
-11,-25,-15,18,2,-20,20,-29,-56,-60,-30,-34
-28,-44,-15,36,-6,-29,20,-32,-61,-59,-29,-36
-49,-50,-1,49,-24,-25,16,-37,-64,-62,-33,-35
-31,-25,6,28,-18,-9,15,-44,-69,-63,-35,-35
-23,-30,-7,27,-8,-18,15,-50,-69,-68,-35,-39
-38,-57,-19,48,-9,-38,11,-38,-63,-78,-38,-40
-43,-55,-12,50,-15,-34,8,-52,-80,-84,-41,-40
-31,-53,-22,42,-4,-37,5,-61,-96,-97,-39,-40
-8,-58,-50,33,21,-54,2,-60,-95,-102,-35,-40
-25,-79,-54,52,14,-66,0,-82,-95,-103,-35,-40
-30,-76,-47,53,9,-61,2,-86,-96,-107,-34,-40
-18,-68,-51,43,17,-59,6,-89,-94,-110,-40,-42
-19,-69,-50,44,16,-59,7,-90,-97,-109,-46,-40
-9,-58,-50,33,21,-54,12,-83,-108,-102,-44,-40
-15,-65,-50,40,18,-58,13,-80,-103,-96,-45,-40
-13,-63,-49,38,18,-56,16,-75,-95,-89,-45,-40
-7,-37,-30,22,12,-34,29,-71,-90,-83,-46,-41
-10,1,11,4,-10,6,37,-66,-75,-77,-41,-36
-15,30,45,-8,-30,37,45,-65,-61,-73,-35,-30
-19,24,43,-3,-31,34,43,-65,-58,-69,-30,-25
-21,16,37,3,-30,26,8,-65,-61,-66,-24,-18
-4,33,37,-15,-21,35,-30,-64,-61,-60,-18,-14
22,31,9,-27,6,20,-38,-66,-66,-61,-16,-4
3,-20,-24,9,13,-22,-31,-76,-69,-68,-31,-20
11,-40,-51,15,31,-46,-32,-95,-87,-84,-51,-46
-5,-51,-46,29,21,-48,-18,-107,-102,-97,-58,-45
-57,-100,-43,78,-7,-71,12,-112,-103,-110,-69,-54
-63,-100,-36,81,-14,-68,20,-129,-118,-120,-76,-62
-51,-99,-48,75,-2,-73,22,-130,-123,-128,-95,-75
-36,-104,-69,70,17,-86,25,-140,-154,-152,-104,-70
-55,-115,-60,85,3,-87,28,-115,-132,-127,-98,-70
-68,-128,-60,99,-4,-94,33,-128,-160,-153,-104,-72
-70,-115,-44,93,-13,-79,35,-100,-130,-107,-86,-65
-95,-178,-83,137,-6,-130,73,-93,-168,-214,-170,-122
-123,-162,-39,143,-42,-101,211,8,-158,-281,-226,-142
58,100,42,-79,8,71,240,385,382,298,102,17
465,763,298,-614,83,530,-263,458,1093,1640,1140,649
528,995,467,-762,30,731,-797,85,1228,2251,1563,959
144,278,134,-211,5,206,-670,-621,-22,510,475,377
-87,-127,-39,107,-24,-83,-263,-692,-701,-545,-131,9
-78,-114,-36,96,-21,-75,-8,-184,-198,-155,-62,-40
-87,-126,-39,107,-24,-82,64,-124,-162,-207,-109,-72
-75,-96,-21,85,-27,-58,63,-93,-130,-159,-78,-52
-82,-104,-22,93,-30,-63,67,-78,-117,-160,-97,-65
-100,-81,18,90,-59,-31,61,-88,-129,-157,-87,-51
-87,-85,2,86,-44,-42,60,-65,-98,-130,-84,-57
-69,-82,-14,76,-27,-48,60,-76,-117,-145,-79,-52
-58,-74,-17,66,-20,-45,64,-54,-90,-118,-68,-49
-87,-99,-12,93,-37,-55,66,-56,-100,-133,-67,-51
-76,-79,-4,78,-36,-41,65,-42,-85,-114,-55,-49
-43,-65,-22,54,-10,-44,65,-39,-82,-119,-54,-51
-39,-63,-24,51,-7,-44,65,-25,-68,-107,-45,-49
-39,-53,-14,47,-13,-34,64,0,-46,-93,-40,-45
-37,-49,-12,43,-13,-30,59,15,-21,-81,-33,-37
-38,-36,2,37,-20,-17,56,34,4,-66,-25,-31
-37,-27,9,32,-23,-9,53,59,24,-48,-21,-25
-17,17,33,0,-25,25,48,97,59,-11,4,-17
10,41,31,-25,-11,36,46,158,120,33,40,-5
9,38,29,-24,-10,33,40,224,187,87,54,6
18,97,79,-58,-31,87,32,291,261,161,85,34
81,149,68,-115,6,109,23,374,358,254,142,70
104,182,78,-143,13,130,13,443,443,343,191,97
115,220,105,-168,5,162,1,476,497,405,222,115
132,223,91,-178,20,157,-9,484,508,430,225,114
127,214,86,-171,20,150,-22,457,493,418,209,108
131,205,74,-168,29,139,-32,396,441,371,204,108
107,175,68,-141,19,121,-19,306,337,283,162,86
62,107,45,-85,8,76,-4,197,214,179,88,45
10,46,36,-28,-13,41,4,106,108,86,35,4
-9,-1,8,5,-9,3,16,46,39,10,-4,-22
-12,-55,-43,33,16,-48,29,4,-15,-48,-42,-33
-32,-67,-35,50,2,-51,31,-31,-50,-79,-65,-45
-31,-64,-32,48,1,-48,29,-43,-63,-86,-67,-50
-26,-66,-41,46,8,-53,30,-54,-80,-95,-76,-50
-27,-63,-37,45,6,-50,30,-74,-83,-104,-82,-55
-34,-67,-33,51,0,-50,30,-76,-87,-108,-79,-55
-34,-62,-28,48,-3,-45,30,-75,-98,-109,-81,-51
-51,-74,-23,63,-14,-48,30,-75,-94,-104,-79,-50
-68,-88,-20,78,-24,-54,30,-75,-89,-105,-81,-50
-67,-80,-13,74,-27,-46,30,-74,-84,-105,-78,-50
-57,-80,-23,68,-17,-51,30,-68,-78,-105,-71,-50
-63,-81,-18,72,-23,-49,30,-61,-73,-106,-64,-48
-78,-68,10,73,-44,-28,30,-54,-67,-99,-58,-45
-41,-49,-8,45,-16,-28,30,-48,-65,-86,-51,-43
-17,-43,-26,30,5,-35,30,-41,-65,-76,-45,-39
-9,-40,-31,25,11,-35,30,-44,-65,-75,-42,-37
-28,-35,-7,32,-10,-20,30,-45,-65,-75,-38,-34
-37,-36,2,36,-19,-17,27,-45,-66,-75,-35,-43
-10,-34,-24,22,8,-29,24,-50,-70,-75,-30,-55
-7,-36,-29,22,11,-32,21,-50,-70,-75,-32,-55
-2,-32,-31,17,15,-31,18,-51,-74,-78,-44,-57
-15,-44,-29,30,8,-36,15,-55,-75,-83,-56,-61
-20,-61,-42,41,11,-51,15,-59,-78,-86,-62,-58
-19,-60,-41,40,11,-50,15,-61,-85,-92,-67,-55
-21,-59,-37,40,8,-48,15,-59,-85,-99,-70,-55
-9,-55,-45,32,18,-50,14,-60,-85,-104,-70,-55
-19,-55,-36,38,9,-46,26,-60,-85,-105,-69,-55
-20,-52,-33,36,7,-42,31,-60,-87,-105,-71,-55
-21,-48,-27,35,3,-38,25,-71,-91,-109,-75,-51
-39,-58,-19,49,-10,-38,23,-77,-90,-110,-75,-49
-31,-58,-27,45,-2,-42,18,-70,-90,-108,-75,-50
-20,-44,-24,32,2,-34,15,-71,-90,-105,-75,-50
-29,-59,-30,44,1,-44,12,-64,-83,-105,-75,-50
-29,-59,-29,44,0,-44,9,-67,-73,-105,-73,-49
-13,-15,-3,14,-5,-9,13,-77,-63,-101,-63,-41
5,0,-4,-2,5,-2,28,-47,-55,-96,-50,-32
-1,1,2,0,-2,1,42,-27,-55,-90,-41,-23
1,38,37,-20,-18,37,46,-21,-55,-84,-39,-16
37,59,22,-48,8,40,14,-31,-55,-78,-36,-15
43,36,-6,-39,24,15,-37,-41,-55,-76,-34,-15
25,19,-6,-22,16,7,-45,-47,-54,-81,-29,-16
24,-9,-33,-7,28,-21,-34,-66,-64,-84,-32,-14
16,-32,-48,9,32,-39,-30,-73,-81,-89,-34,-18
-16,-55,-39,36,12,-47,-22,-85,-95,-102,-44,-37
-50,-84,-34,68,-8,-59,-16,-77,-90,-105,-75,-55
-52,-85,-33,69,-9,-59,-12,-83,-105,-115,-73,-55
-57,-124,-67,91,6,-96,-5,-91,-118,-128,-86,-59
-77,-143,-66,110,-5,-104,-3,-103,-146,-159,-100,-63
-80,-125,-45,103,-17,-85,4,-86,-125,-130,-80,-61
-79,-147,-68,114,-5,-108,6,-89,-141,-153,-94,-71
-81,-118,-36,100,-22,-77,15,-80,-135,-130,-66,-55
-67,-170,-102,119,18,-136,51,-68,-140,-178,-134,-97
-78,-192,-114,136,18,-153,142,-50,-217,-326,-219,-136
26,6,-20,-16,23,-7,244,312,209,71,-22,-45
419,606,187,-512,116,396,-126,510,922,1268,876,491
622,1068,446,-845,88,757,-764,238,1322,2299,1631,987
283,478,195,-381,43,337,-796,-444,344,994,778,545
-38,-96,-58,67,11,-77,-370,-755,-697,-516,-76,64
-42,-114,-73,78,16,-93,-84,-272,-305,-246,-62,-5
-49,-119,-69,84,10,-94,-8,-112,-144,-172,-92,-51
-70,-92,-22,81,-24,-57,16,-107,-154,-168,-74,-34
-43,-97,-53,70,5,-75,40,-65,-100,-131,-81,-43
-31,-85,-54,58,12,-69,51,-90,-141,-166,-82,-39
-24,-79,-55,52,16,-67,49,-59,-100,-127,-76,-40
-19,-75,-56,48,19,-66,45,-73,-125,-155,-81,-39
-17,-66,-49,42,16,-58,43,-52,-102,-129,-68,-33
-20,-66,-46,43,13,-56,40,-53,-107,-141,-73,-37
-17,-53,-36,36,9,-45,38,-44,-92,-125,-63,-33
-37,-69,-32,53,-2,-50,35,-37,-85,-124,-63,-36
-41,-64,-24,53,-8,-44,35,-33,-78,-117,-58,-34
-26,-44,-18,35,-4,-31,36,-14,-62,-100,-53,-30
-23,-37,-14,30,-4,-25,34,-6,-50,-90,-46,-22
-31,-29,2,30,-16,-13,36,21,-24,-71,-39,-16
-42,-21,22,31,-32,1,39,48,4,-55,-33,-9
-34,-14,20,24,-26,3,40,80,45,-25,-23,-3
-10,9,19,0,-14,14,52,135,90,13,-4,4
18,45,27,-32,-5,36,50,192,145,62,16,21
38,73,36,-56,1,54,39,267,222,128,50,37
65,116,51,-90,7,83,32,348,319,214,101,71
98,165,67,-132,15,116,22,421,404,298,137,100
123,198,75,-161,24,136,12,469,474,368,171,108
142,214,72,-178,34,143,3,466,507,409,184,107
144,208,63,-176,40,135,-3,455,492,409,172,98
138,196,58,-167,40,127,-6,429,463,372,158,95
122,172,51,-147,35,111,-11,340,375,303,122,87
80,112,31,-96,25,71,-16,220,246,207,66,61
58,61,2,-60,27,31,-3,126,137,102,7,25
26,20,-6,-23,16,7,12,57,47,20,-35,-7
-5,-19,-14,12,5,-16,9,-6,-4,-40,-68,-25
-6,-40,-34,23,14,-37,12,-49,-45,-87,-97,-47
-32,-71,-39,52,4,-55,29,-61,-78,-97,-97,-50
-41,-72,-31,57,-5,-52,30,-65,-86,-104,-98,-54
-47,-63,-17,55,-15,-40,29,-70,-89,-112,-101,-64
-28,-61,-32,45,2,-46,46,-72,-100,-105,-99,-53
-3,-52,-49,28,23,-51,51,-70,-106,-105,-100,-45
-49,-49,-1,49,-24,-25,50,-70,-104,-105,-100,-40
-65,-44,21,55,-43,-11,47,-68,-105,-104,-100,-38
-47,-46,1,46,-24,-22,45,-65,-105,-117,-96,-47
-58,-42,16,50,-37,-13,45,-65,-105,-114,-89,-52
-45,-40,5,42,-25,-17,41,-62,-101,-95,-82,-42
-31,-40,-10,36,-10,-25,38,-56,-92,-90,-76,-33
-41,-43,-2,42,-19,-23,35,-52,-86,-82,-69,-33
-40,-46,-7,43,-16,-26,33,-48,-79,-76,-66,-35
-40,-44,-4,42,-17,-24,28,-42,-75,-69,-71,-35
-41,-46,-5,44,-18,-26,25,-41,-73,-66,-69,-35
-36,-43,-8,40,-14,-25,22,-46,-70,-71,-73,-35
-34,-48,-13,41,-10,-30,17,-48,-67,-69,-75,-35
-29,-48,-20,39,-4,-34,14,-52,-64,-73,-75,-35
-21,-45,-25,33,2,-35,10,-55,-69,-75,-78,-35
-34,-64,-30,49,-1,-47,10,-51,-74,-75,-81,-35
-37,-66,-29,51,-3,-47,9,-50,-77,-78,-84,-35
-32,-64,-31,48,0,-47,5,-49,-82,-87,-87,-35
-31,-66,-35,49,3,-51,5,-46,-85,-88,-89,-35
-29,-64,-35,47,3,-49,7,-43,-85,-94,-92,-35
-32,-69,-37,51,3,-53,10,-51,-88,-101,-95,-35
-30,-70,-40,50,5,-55,13,-70,-96,-102,-95,-35
-30,-70,-40,50,5,-55,16,-71,-100,-107,-97,-35
-30,-70,-40,50,5,-55,19,-69,-100,-97,-100,-34
-25,-65,-40,45,8,-53,21,-71,-100,-101,-100,-27
-18,-57,-39,38,11,-48,24,-69,-99,-117,-94,-23
-17,-51,-34,34,9,-42,26,-68,-101,-103,-81,-17
-24,-44,-20,34,-1,-32,23,-58,-93,-91,-70,-12
-23,-30,-8,27,-7,-19,32,-37,-74,-84,-64,-6
-25,-17,8,21,-16,-4,53,-14,-69,-79,-60,-2
-28,-4,23,16,-25,9,58,-1,-70,-76,-55,1
-8,4,12,1,-10,8,20,-36,-69,-69,-51,4
18,16,-1,-17,9,7,-26,-64,-71,-69,-52,7
39,21,-18,-30,28,2,-28,-58,-68,-59,-57,10
37,4,-33,-20,35,-14,-20,-62,-80,-67,-59,9
14,-22,-37,4,26,-29,-14,-57,-106,-83,-64,5
-21,-55,-34,39,7,-45,-8,-68,-114,-101,-67,-2
-48,-84,-35,66,-6,-59,-1,-81,-105,-109,-68,-21
-58,-93,-35,76,-11,-64,5,-95,-138,-127,-89,-56
-60,-97,-38,79,-11,-67,8,-93,-137,-144,-100,-65
-46,-108,-62,78,8,-85,12,-100,-149,-165,-105,-67
-55,-102,-47,79,-4,-74,14,-101,-149,-147,-94,-65
-53,-118,-65,86,6,-91,22,-99,-146,-158,-107,-76
-57,-101,-44,79,-6,-72,16,-102,-169,-160,-93,-63
-67,-140,-73,104,4,-106,37,-71,-130,-151,-116,-89
-89,-211,-122,150,17,-166,134,-77,-240,-329,-219,-156
-60,-87,-27,73,-16,-57,275,222,48,-97,-132,-122
286,425,139,-355,73,281,34,498,748,938,603,308
592,1047,455,-820,68,751,-616,333,1317,2256,1581,940
370,683,313,-527,28,498,-831,-267,677,1520,1072,703
8,-34,-42,13,25,-38,-465,-775,-609,-345,6,107
-65,-123,-59,94,-3,-91,-95,-397,-440,-360,-110,-19
-32,-117,-85,75,27,-101,33,-100,-118,-140,-108,-69
-55,-111,-56,83,1,-83,42,-127,-178,-210,-115,-71
-61,-98,-37,79,-12,-67,48,-72,-99,-140,-103,-68
-55,-97,-42,76,-6,-70,46,-97,-145,-187,-118,-70
-50,-81,-31,66,-9,-56,44,-74,-108,-142,-102,-61
-48,-84,-36,67,-6,-60,41,-80,-122,-163,-108,-68
-50,-77,-27,63,-11,-52,39,-72,-103,-140,-91,-57
-49,-79,-29,64,-10,-54,34,-62,-93,-141,-92,-62
-50,-74,-24,62,-13,-49,37,-57,-89,-134,-81,-58
-48,-73,-25,61,-11,-49,46,-44,-70,-124,-77,-55
-42,-64,-22,53,-10,-43,45,-35,-69,-123,-71,-56
-37,-56,-19,47,-9,-38,45,-14,-46,-109,-62,-52
-33,-53,-21,43,-6,-37,45,-1,-23,-108,-56,-44
-8,-28,-20,18,6,-24,45,24,3,-97,-49,-34
-9,-29,-20,19,5,-24,43,49,26,-76,-33,-26
-8,-29,-21,18,7,-25,37,78,53,-45,-17,-18
17,4,-13,-10,15,-4,33,126,93,-7,1,-11
22,31,9,-27,6,20,29,177,147,45,25,1
28,65,37,-47,-5,51,24,250,223,108,59,27
48,108,60,-78,-6,84,20,326,311,193,107,46
79,151,72,-115,3,111,10,399,398,281,152,67
108,193,86,-151,11,139,-2,454,473,360,193,92
125,220,94,-173,15,157,-9,452,500,396,201,101
123,216,93,-170,15,154,-16,444,499,395,188,94
120,202,83,-161,18,142,-23,415,472,380,187,80
106,177,72,-142,17,124,-29,341,384,313,169,72
79,131,53,-105,13,92,-20,242,270,213,124,50
45,78,34,-62,6,56,-4,140,160,109,69,13
15,35,20,-25,-2,27,7,68,64,32,21,-22
-13,-5,8,9,-10,1,18,12,2,-20,-16,-46
-48,-44,4,45,-26,-19,27,-23,-36,-69,-41,-54
-54,-52,2,53,-28,-25,26,-45,-69,-97,-54,-61
-48,-49,-1,48,-23,-25,24,-62,-80,-108,-60,-65
-47,-51,-4,49,-21,-27,25,-68,-90,-115,-60,-65
-44,-50,-6,48,-19,-27,25,-68,-96,-114,-60,-65
-38,-49,-11,44,-13,-30,25,-64,-94,-116,-60,-65
-45,-56,-11,51,-17,-33,23,-65,-95,-120,-60,-65
-51,-60,-10,56,-20,-35,19,-65,-95,-120,-58,-62
-43,-52,-9,48,-17,-30,15,-65,-95,-117,-51,-56
-41,-46,-4,44,-18,-25,12,-65,-91,-109,-44,-52
-34,-39,-6,37,-14,-22,7,-59,-85,-103,-38,-47
-30,-32,-2,31,-13,-17,5,-53,-80,-96,-30,-43
-30,-30,0,30,-15,-15,15,-46,-75,-86,-26,-38
-30,-30,0,30,-15,-15,17,-40,-68,-73,-30,-35
-27,-27,0,27,-13,-13,13,-32,-66,-62,-30,-35
-24,-25,0,24,-12,-12,11,-33,-70,-60,-31,-35
-25,-26,0,26,-12,-12,7,-35,-70,-60,-36,-35
-25,-30,-5,28,-10,-17,4,-35,-70,-60,-35,-35
-25,-30,-5,28,-10,-17,5,-50,-70,-60,-37,-35
-24,-30,-6,27,-9,-18,5,-57,-69,-60,-43,-35
-20,-30,-10,25,-5,-20,6,-60,-74,-66,-46,-35
-20,-29,-10,24,-5,-20,19,-65,-76,-72,-50,-35
-23,-33,-10,28,-6,-21,21,-73,-84,-79,-55,-35
-20,-30,-10,25,-5,-20,16,-75,-98,-85,-55,-36
-26,-36,-10,31,-8,-23,15,-76,-101,-87,-56,-40
-36,-46,-10,41,-13,-28,10,-97,-104,-93,-60,-40
-34,-44,-10,39,-12,-27,10,-101,-107,-95,-59,-42
-36,-45,-10,40,-13,-27,10,-99,-110,-95,-63,-45
-39,-45,-5,43,-16,-25,10,-100,-109,-95,-65,-45
-41,-45,-5,43,-17,-25,10,-100,-105,-90,-65,-41
-37,-43,-5,40,-16,-24,10,-99,-102,-86,-69,-35
-32,-36,-4,34,-13,-20,10,-92,-100,-84,-70,-30
-25,-31,-6,28,-9,-18,13,-86,-96,-79,-69,-24
-25,-26,-1,25,-11,-13,22,-79,-96,-76,-65,-19
-23,-13,10,18,-16,-2,33,-73,-89,-73,-58,-14
-16,7,24,4,-20,15,42,-66,-77,-69,-51,-9
-8,27,36,-10,-22,31,47,-65,-80,-65,-44,-4
3,34,32,-19,-15,33,38,-64,-79,-61,-37,0
14,40,26,-27,-6,32,0,-62,-81,-58,-35,5
16,36,20,-27,-2,28,-40,-57,-78,-52,-35,10
6,20,13,-13,-4,16,-52,-66,-83,-60,-36,4
-1,5,6,-3,-3,5,-38,-94,-104,-65,-34,-8
-25,-26,-1,26,-12,-14,-14,-105,-117,-80,-38,-19
-43,-50,-8,47,-17,-29,2,-101,-112,-83,-55,-30
-43,-61,-18,52,-12,-39,7,-112,-125,-104,-70,-41
-61,-80,-19,71,-21,-49,13,-108,-133,-119,-76,-48
-61,-92,-30,77,-15,-61,19,-121,-151,-128,-90,-62
-68,-92,-24,80,-22,-57,23,-127,-154,-127,-80,-56
-66,-105,-39,86,-13,-72,31,-107,-139,-138,-88,-64
-43,-75,-32,59,-5,-53,34,-124,-170,-159,-85,-56
-53,-109,-55,81,2,-82,40,-83,-119,-119,-99,-66
-79,-175,-97,127,9,-136,112,-112,-230,-274,-200,-115
-67,-92,-25,79,-21,-58,271,126,-39,-149,-171,-97
239,330,91,-285,74,210,112,491,636,726,426,236
652,1014,363,-833,144,688,-548,493,1354,2090,1448,884
495,810,315,-653,90,562,-874,5,1008,1769,1212,798
55,52,-3,-54,29,25,-546,-704,-436,-133,128,185
-59,-112,-54,86,-2,-83,-165,-493,-539,-410,-101,8
-54,-106,-52,80,-1,-79,-7,-106,-132,-118,-80,-34
-74,-105,-31,89,-21,-67,28,-131,-199,-199,-100,-45
-59,-87,-28,73,-15,-57,41,-72,-118,-121,-80,-35
-55,-88,-33,71,-10,-60,56,-94,-157,-166,-99,-45
-45,-72,-26,58,-9,-49,59,-75,-123,-129,-82,-36
-42,-75,-33,58,-4,-54,52,-73,-126,-145,-90,-43
-36,-64,-27,50,-4,-45,49,-70,-120,-133,-82,-35
-32,-64,-32,48,0,-48,44,-59,-107,-129,-84,-35
-28,-57,-29,42,1,-43,39,-56,-112,-131,-79,-31
-23,-53,-31,38,4,-41,36,-39,-95,-115,-80,-28
-20,-50,-30,35,5,-40,35,-35,-94,-116,-77,-26
-16,-46,-30,31,7,-38,34,-17,-77,-103,-68,-23
-17,-44,-26,31,5,-35,30,-6,-68,-96,-63,-16
-21,-40,-19,30,-1,-30,30,11,-48,-79,-55,-8
-15,-30,-16,23,1,-23,28,36,-20,-64,-49,0
3,-5,-9,1,6,-7,24,69,9,-43,-38,7
14,10,-4,-12,9,3,27,112,48,-5,-18,17
28,29,2,-29,13,15,29,171,110,42,8,32
39,53,14,-46,12,33,21,247,185,100,41,44
58,87,29,-73,14,58,12,324,274,179,79,68
92,132,40,-112,26,85,3,408,373,265,120,92
119,171,52,-145,33,111,-6,475,449,341,163,108
144,210,67,-177,38,138,-15,503,485,378,176,121
143,210,68,-177,37,139,-23,503,491,387,161,114
138,196,57,-167,40,126,-33,453,459,368,152,104
126,174,48,-150,39,111,-31,375,383,312,137,97
85,122,38,-104,23,80,-20,277,277,225,93,71
41,64,23,-53,9,43,-10,161,152,111,40,30
13,16,3,-15,5,9,-3,76,61,31,0,-4
-16,-22,-6,19,-4,-14,3,16,2,-22,-36,-28
-30,-44,-13,38,-8,-28,9,-32,-54,-73,-65,-43
-22,-59,-38,41,8,-48,15,-66,-76,-103,-77,-45
-32,-80,-48,57,8,-64,25,-79,-86,-112,-74,-45
-38,-80,-42,60,2,-61,32,-83,-101,-115,-75,-49
-39,-79,-41,59,1,-60,35,-82,-102,-115,-75,-50
-43,-80,-37,62,-3,-59,40,-79,-99,-115,-75,-50
-45,-80,-35,63,-5,-57,36,-80,-96,-115,-74,-44
-45,-78,-33,62,-6,-55,29,-75,-93,-115,-68,-38
-41,-71,-30,56,-6,-50,22,-75,-91,-110,-62,-34
-39,-66,-27,53,-6,-47,16,-74,-89,-102,-56,-27
-36,-60,-24,48,-6,-41,9,-68,-81,-94,-51,-23
-35,-56,-21,45,-7,-38,6,-63,-72,-86,-47,-17
-31,-52,-20,42,-6,-36,14,-56,-63,-79,-44,-15
-24,-48,-25,37,1,-36,22,-52,-56,-73,-41,-15
-20,-45,-25,33,3,-35,30,-49,-54,-67,-38,-15
-15,-40,-25,28,5,-32,38,-46,-51,-63,-35,-15
-17,-42,-25,30,5,-34,36,-44,-48,-56,-36,-15
-21,-46,-25,34,2,-35,35,-40,-45,-51,-40,-21
-25,-49,-24,38,-1,-36,35,-41,-46,-57,-43,-26
-35,-53,-18,44,-8,-35,30,-46,-51,-61,-47,-32
-39,-56,-17,48,-10,-36,30,-44,-54,-70,-50,-35
-48,-59,-11,54,-19,-35,29,-48,-60,-81,-54,-35
-49,-60,-12,54,-19,-36,24,-50,-69,-78,-55,-35
-20,-60,-40,40,10,-50,21,-50,-70,-87,-55,-35
-13,-60,-47,37,17,-53,18,-54,-70,-96,-59,-35
-16,-60,-44,39,14,-51,13,-55,-70,-94,-60,-35
-16,-62,-46,39,15,-54,10,-55,-76,-97,-58,-39
-22,-67,-44,45,11,-55,14,-55,-81,-100,-55,-40
-23,-69,-45,46,11,-57,25,-55,-79,-100,-55,-40
-43,-80,-38,62,-2,-59,35,-54,-80,-97,-55,-38
-44,-72,-29,58,-7,-50,42,-49,-80,-91,-55,-33
-35,-56,-21,45,-7,-38,46,-46,-80,-87,-55,-30
-38,-49,-11,44,-13,-30,49,-42,-77,-83,-51,-27
-20,-20,1,20,-10,-9,60,-39,-70,-77,-45,-22
-21,-5,16,12,-18,6,53,-34,-66,-76,-38,-20
-22,0,22,10,-22,11,42,-41,-58,-79,-31,-20
-7,7,14,0,-11,10,20,-59,-54,-81,-24,-20
12,19,6,-16,3,12,-17,-63,-50,-78,-20,-19
17,14,-3,-15,9,5,-20,-68,-56,-83,-29,-21
-9,-17,-8,13,0,-12,-14,-71,-63,-77,-33,-18
-19,-36,-17,28,0,-27,-11,-75,-79,-85,-38,-24
-29,-51,-22,40,-3,-37,-6,-76,-96,-101,-54,-38
-44,-76,-32,60,-5,-54,-1,-79,-101,-108,-79,-59
-58,-96,-37,77,-10,-66,3,-100,-122,-127,-92,-79
-64,-111,-46,88,-9,-78,8,-96,-116,-135,-95,-88
-65,-111,-46,89,-10,-78,12,-107,-138,-162,-98,-83
-65,-107,-42,86,-12,-74,17,-92,-116,-137,-97,-89
-64,-116,-52,91,-6,-84,21,-108,-147,-176,-105,-92
-68,-101,-32,85,-18,-66,22,-94,-122,-137,-87,-85
-77,-172,-94,125,9,-133,62,-84,-151,-207,-159,-133
-121,-192,-71,157,-25,-131,212,-10,-185,-307,-228,-165
33,68,35,-51,-1,51,264,357,320,229,58,-29
460,755,295,-608,82,525,-249,519,1091,1583,1048,586
586,1075,489,-831,48,782,-861,266,1411,2377,1551,944
209,359,150,-284,29,254,-754,-442,198,728,557,397
-60,-124,-64,92,2,-94,-291,-663,-679,-535,-107,-12
-58,-110,-53,84,-2,-81,-37,-176,-212,-183,-71,-65
-58,-125,-68,91,5,-96,31,-91,-150,-181,-125,-95
-49,-93,-43,71,-3,-68,44,-82,-133,-149,-96,-78
-47,-97,-50,72,1,-73,49,-58,-113,-148,-103,-90
-51,-86,-34,69,-8,-60,54,-76,-136,-159,-93,-82
-49,-82,-34,66,-7,-58,55,-52,-101,-134,-87,-86
-48,-78,-30,63,-9,-53,55,-66,-122,-157,-87,-81
-40,-69,-29,55,-5,-49,55,-49,-92,-129,-75,-79
-37,-68,-31,53,-3,-49,55,-52,-103,-141,-78,-81
-28,-57,-29,43,1,-43,53,-38,-85,-124,-67,-79
-23,-54,-31,39,4,-42,50,-35,-74,-125,-67,-81
-21,-45,-25,33,2,-35,50,-24,-59,-117,-60,-78
-19,-39,-20,29,1,-29,46,2,-49,-112,-55,-73
-19,-34,-16,27,-1,-25,45,20,-41,-103,-49,-65
-15,-26,-11,21,-2,-18,45,31,-22,-82,-43,-59
-17,-24,-7,20,-5,-15,40,48,4,-60,-33,-52
-4,-5,-1,4,-1,-3,35,85,43,-26,-21,-47
13,23,10,-18,1,16,31,132,94,16,-2,-38
23,45,23,-34,0,34,26,194,162,68,32,-17
45,87,42,-66,2,64,22,269,244,144,69,11
78,135,58,-107,10,96,17,341,334,233,118,36
108,181,72,-145,18,127,9,413,421,322,167,59
124,209,85,-167,20,147,2,459,482,384,197,75
124,210,86,-167,19,148,-5,459,496,405,201,72
121,206,85,-164,18,146,-13,434,476,399,197,67
122,205,83,-164,19,144,-19,376,424,354,186,63
92,166,73,-129,9,119,-15,289,327,274,141,57
53,103,50,-78,2,76,-7,183,205,170,84,31
36,55,19,-46,9,37,-1,87,96,68,22,-5
22,16,-6,-19,14,5,6,25,11,-9,-20,-35
-11,-26,-15,19,2,-20,12,-18,-48,-64,-44,-59
-36,-56,-20,46,-7,-38,18,-46,-79,-98,-68,-65
-27,-55,-28,41,1,-41,21,-67,-93,-110,-74,-65
-21,-55,-33,38,6,-44,26,-80,-104,-109,-81,-65
-25,-55,-31,40,4,-43,29,-80,-107,-115,-78,-65
-25,-55,-30,40,3,-42,30,-80,-109,-116,-73,-65
-26,-55,-29,41,2,-42,30,-80,-114,-115,-71,-61
-25,-49,-24,37,0,-36,30,-80,-114,-115,-66,-55
-18,-44,-26,31,4,-35,30,-79,-108,-115,-64,-50
-16,-39,-22,28,3,-30,28,-73,-102,-115,-57,-44
-13,-33,-20,23,3,-26,25,-67,-98,-110,-51,-39
-7,-28,-20,18,7,-24,22,-61,-91,-102,-44,-34
-6,-22,-16,14,5,-19,19,-56,-86,-96,-37,-28
-5,-20,-15,13,5,-17,16,-52,-82,-89,-32,-22
-5,-20,-15,13,5,-17,15,-47,-78,-80,-26,-18
-5,-20,-15,13,5,-17,15,-44,-74,-72,-25,-11
-5,-20,-15,13,5,-17,15,-41,-71,-62,-25,-6
-5,-20,-15,13,5,-17,15,-36,-66,-63,-21,-8
-10,-25,-15,18,3,-20,15,-36,-66,-66,-20,-11
-10,-24,-15,18,3,-20,16,-40,-71,-63,-21,-9
-11,-29,-17,20,3,-23,12,-42,-76,-70,-27,-11
-15,-35,-21,25,3,-27,10,-45,-79,-77,-34,-9
-16,-35,-20,25,2,-27,10,-48,-84,-89,-38,-11
-14,-34,-20,24,4,-26,7,-56,-85,-99,-44,-26
-22,-41,-20,31,-1,-30,4,-60,-86,-101,-47,-31
-31,-51,-20,41,-5,-36,6,-62,-95,-106,-52,-29
-25,-49,-25,37,0,-36,9,-66,-104,-109,-55,-30
-29,-54,-25,42,-2,-39,12,-64,-105,-110,-55,-30
-34,-59,-25,47,-4,-42,16,-66,-105,-110,-57,-30
-29,-54,-25,42,-2,-39,19,-64,-105,-110,-60,-26
-23,-48,-25,36,1,-37,23,-68,-105,-110,-60,-20
-22,-45,-22,34,0,-33,24,-78,-104,-108,-56,-15
-27,-40,-13,34,-7,-26,26,-73,-95,-100,-50,-9
-34,-36,-3,35,-15,-19,30,-64,-85,-95,-45,-4
-40,-28,11,34,-25,-8,30,-48,-75,-91,-39,1
-38,-7,30,22,-34,11,49,-42,-73,-88,-34,6
-37,1,37,18,-37,19,51,-46,-77,-84,-30,12
-28,0,27,14,-28,13,23,-47,-78,-80,-30,15
-13,5,18,4,-16,11,-15,-51,-83,-83,-30,20
-2,5,7,-2,-5,6,-43,-50,-82,-84,-29,25
-1,-2,-1,1,0,-2,-38,-58,-90,-87,-31,19
-13,-19,-6,17,-3,-12,-30,-68,-91,-81,-28,7
-23,-35,-12,29,-5,-23,-22,-78,-100,-91,-34,-5
-38,-54,-16,46,-10,-35,-8,-72,-118,-97,-52,-14
-55,-79,-24,68,-15,-51,0,-83,-131,-118,-78,-34
-54,-84,-30,69,-11,-57,3,-96,-131,-133,-93,-42
-50,-101,-51,75,1,-76,7,-101,-133,-142,-107,-49
-55,-100,-45,78,-5,-72,9,-112,-142,-143,-101,-45
-46,-104,-57,75,6,-80,16,-100,-125,-129,-110,-55
-42,-98,-56,70,7,-76,15,-128,-161,-160,-113,-52
-49,-109,-60,79,6,-84,22,-92,-112,-124,-118,-59
-82,-191,-109,137,14,-150,76,-104,-210,-282,-222,-113
-89,-145,-56,117,-16,-101,231,105,-76,-216,-216,-115
191,256,65,-224,63,161,130,445,564,606,313,171
579,969,390,-774,94,680,-517,382,1247,2037,1393,851
488,870,382,-679,52,626,-906,-102,1010,1974,1322,870
99,84,-14,-92,56,35,-595,-723,-365,1,175,235
-36,-128,-92,83,28,-110,-182,-515,-566,-466,-130,18
-29,-112,-83,70,27,-97,-17,-107,-116,-120,-94,-28
-57,-120,-63,89,4,-91,14,-130,-177,-215,-125,-57
-63,-99,-36,81,-13,-67,34,-81,-101,-134,-97,-44
-61,-106,-45,83,-7,-75,42,-94,-130,-176,-121,-55
-52,-88,-36,70,-8,-61,45,-80,-110,-141,-102,-41
-47,-90,-43,68,-1,-66,45,-72,-105,-148,-110,-48
-41,-79,-38,60,-1,-58,45,-71,-108,-142,-95,-42
-35,-75,-40,55,3,-57,46,-57,-86,-131,-92,-40
-33,-68,-34,51,1,-51,44,-58,-91,-137,-84,-36
-25,-60,-35,43,5,-48,41,-44,-71,-121,-77,-32
-22,-55,-33,39,6,-44,40,-43,-68,-126,-73,-29
-19,-48,-29,34,5,-38,40,-34,-48,-110,-63,-24
-10,-41,-31,26,10,-36,40,-24,-37,-103,-58,-22
-8,-33,-25,21,9,-29,41,1,-19,-93,-50,-14
-7,-24,-17,16,5,-20,37,21,5,-70,-43,-7
-7,-19,-11,13,2,-15,34,53,35,-40,-29,-1
0,-3,-4,2,2,-3,35,100,76,-11,-7,6
11,22,11,-16,-1,16,32,152,125,36,18,10
23,47,24,-35,-1,35,30,220,197,95,44,27
58,98,41,-78,8,69,30,297,286,175,84,52
77,143,66,-110,5,104,23,375,376,265,129,79
95,179,84,-137,5,131,16,440,463,351,174,102
128,216,87,-172,20,151,9,472,509,403,189,104
126,211,85,-169,21,148,1,464,510,407,184,98
116,197,81,-157,17,139,-11,429,484,394,186,94
109,189,80,-149,14,134,-22,358,411,342,154,90
83,144,61,-114,11,102,-19,257,299,254,102,66
54,86,32,-70,11,59,-10,151,182,143,53,29
26,41,15,-34,5,28,-3,75,89,54,5,4
1,-1,-2,0,1,-1,4,22,14,-3,-36,-17
-22,-33,-10,28,-6,-21,9,-23,-39,-59,-63,-30
-42,-51,-10,46,-16,-30,14,-45,-63,-83,-77,-42
-45,-56,-10,51,-17,-32,20,-64,-82,-94,-88,-46
-45,-55,-10,50,-17,-32,24,-71,-91,-105,-90,-48
-45,-55,-10,50,-17,-32,21,-69,-89,-106,-90,-51
-42,-55,-12,49,-14,-34,20,-70,-93,-110,-90,-54
-39,-55,-15,48,-12,-35,20,-70,-95,-112,-90,-55
-34,-49,-15,42,-9,-32,20,-70,-95,-116,-90,-51
-29,-44,-15,37,-7,-29,21,-65,-91,-113,-83,-48
-24,-39,-15,32,-4,-27,17,-65,-90,-106,-74,-46
-18,-33,-15,26,-1,-24,15,-64,-90,-101,-66,-42
-12,-27,-15,20,2,-21,15,-59,-85,-95,-57,-40
-12,-27,-15,20,2,-21,15,-61,-85,-88,-55,-37
-16,-31,-15,24,0,-22,15,-57,-84,-81,-55,-35
-15,-30,-15,23,0,-22,15,-55,-80,-74,-52,-35
-16,-30,-15,24,-1,-22,10,-55,-81,-72,-50,-32
-12,-30,-17,21,3,-23,10,-52,-78,-76,-51,-29
-10,-31,-21,20,5,-26,10,-49,-75,-75,-55,-31
-15,-34,-20,24,3,-26,10,-51,-75,-75,-55,-34
-13,-37,-24,25,6,-30,10,-54,-78,-75,-56,-35
-14,-40,-25,28,5,-32,10,-55,-80,-75,-60,-35
-17,-43,-25,30,4,-34,10,-57,-81,-80,-59,-35
-15,-45,-30,30,8,-37,10,-61,-90,-79,-62,-35
-15,-45,-30,30,8,-37,10,-59,-99,-84,-65,-35
-15,-45,-30,30,8,-37,10,-61,-100,-95,-65,-35
-15,-45,-30,30,8,-37,10,-68,-103,-95,-65,-35
-14,-44,-30,29,9,-37,14,-71,-105,-96,-65,-35
-18,-46,-28,32,5,-36,19,-70,-106,-100,-65,-35
-31,-55,-24,44,-3,-40,20,-70,-110,-100,-65,-35
-28,-53,-25,41,-1,-39,20,-70,-112,-98,-65,-30
-22,-46,-25,35,2,-35,20,-70,-115,-92,-65,-30
-20,-45,-25,33,3,-35,20,-77,-118,-87,-65,-30
-12,-37,-25,25,6,-31,19,-78,-121,-83,-65,-30
-21,-36,-16,29,-2,-26,21,-68,-113,-79,-63,-31
-13,-15,-2,14,-5,-8,24,-60,-93,-75,-57,-28
5,9,3,-7,1,6,44,-51,-82,-71,-54,-21
1,10,9,-6,-4,9,58,-54,-78,-71,-48,-14
-5,10,15,-3,-10,12,37,-55,-71,-68,-45,-8
1,9,8,-5,-3,8,13,-56,-67,-65,-50,-1
37,35,-2,-36,19,16,-8,-61,-60,-64,-49,5
43,29,-14,-36,29,7,-22,-58,-67,-65,-51,-2
17,-14,-31,-1,24,-22,-12,-70,-89,-72,-49,-12
13,-29,-42,8,27,-35,-2,-81,-101,-88,-52,-21
-9,-47,-38,28,14,-42,7,-81,-101,-91,-50,-29
-31,-74,-43,52,7,-58,30,-77,-103,-96,-62,-39
-37,-81,-44,59,4,-62,36,-84,-127,-116,-86,-48
-49,-94,-45,72,-2,-69,35,-81,-125,-119,-96,-63
-57,-104,-47,81,-5,-75,34,-99,-146,-153,-103,-65
-60,-101,-41,81,-9,-71,29,-93,-124,-125,-95,-64
-64,-116,-52,91,-6,-84,31,-106,-145,-161,-108,-74
-70,-104,-33,88,-18,-68,30,-91,-129,-129,-94,-63
-75,-165,-90,120,8,-127,64,-73,-143,-178,-157,-111
-111,-183,-72,147,-20,-127,190,-21,-196,-315,-233,-157
7,30,24,-19,-9,27,258,353,289,167,5,-38
421,667,246,-544,87,456,-168,511,1004,1435,969,544
589,1057,468,-823,60,762,-792,182,1290,2308,1601,966
214,390,175,-302,19,282,-768,-520,202,827,653,469
-71,-131,-60,101,-5,-95,-321,-731,-705,-535,-111,23
-68,-108,-40,88,-13,-74,-52,-223,-248,-197,-83,-31
-84,-126,-42,105,-21,-84,17,-97,-137,-168,-119,-66
-86,-103,-17,95,-34,-60,27,-91,-135,-163,-99,-49
-75,-105,-30,90,-22,-67,38,-58,-94,-139,-114,-59
-76,-96,-20,86,-28,-58,40,-78,-129,-159,-110,-54
-73,-93,-20,83,-26,-56,40,-50,-90,-122,-105,-55
-73,-93,-21,83,-26,-57,40,-61,-115,-146,-106,-54
-70,-86,-15,78,-28,-50,40,-40,-91,-119,-96,-48
-72,-88,-16,80,-27,-52,40,-40,-98,-134,-99,-48
-68,-82,-14,75,-27,-48,42,-28,-81,-120,-89,-42
-63,-79,-16,72,-23,-47,46,-22,-75,-122,-91,-42
-57,-71,-15,65,-21,-43,45,-15,-68,-120,-82,-39
-52,-66,-14,59,-18,-40,49,-6,-56,-107,-76,-35
-55,-62,-7,59,-23,-34,51,-3,-50,-87,-69,-27
-48,-49,-1,48,-24,-24,49,24,-20,-56,-62,-21
-33,-28,6,30,-19,-11,45,65,20,-42,-54,-14
-20,-7,13,13,-16,3,37,106,53,-21,-31,-7
-7,11,18,-2,-13,14,31,153,95,23,-9,6
6,34,28,-20,-11,31,24,213,157,70,19,27
27,66,39,-47,-7,52,18,285,233,137,52,48
55,112,57,-84,-1,84,12,363,324,223,94,66
83,161,78,-122,2,119,2,436,412,310,147,92
102,196,94,-149,4,145,-6,472,473,373,184,106
116,215,99,-166,9,157,-15,465,495,401,207,98
116,204,88,-160,14,146,-24,449,484,396,207,89
120,196,76,-159,22,136,-19,412,434,353,186,80
104,169,66,-136,19,117,-14,328,350,286,150,72
58,107,49,-83,5,78,-8,225,231,185,97,39
35,62,27,-48,4,44,-2,130,116,81,43,-10
5,17,12,-11,-4,15,2,53,38,12,2,-33
-25,-23,2,24,-13,-10,9,9,-20,-39,-28,-51
-30,-40,-11,35,-9,-25,14,-18,-64,-76,-53,-66
-25,-40,-15,33,-5,-27,19,-38,-86,-94,-61,-71
-25,-39,-15,33,-5,-27,25,-48,-93,-99,-59,-70
-25,-40,-15,33,-5,-27,29,-59,-99,-103,-60,-70
-25,-40,-15,33,-5,-27,25,-61,-97,-105,-60,-70
-25,-40,-15,33,-4,-27,25,-60,-93,-105,-60,-70
-21,-34,-13,28,-3,-24,24,-60,-92,-105,-60,-68
-18,-29,-10,23,-4,-19,19,-60,-88,-105,-55,-62
-16,-24,-8,20,-4,-15,21,-60,-86,-105,-46,-58
-13,-18,-5,16,-4,-11,17,-57,-84,-103,-38,-53
-11,-12,-2,12,-4,-7,15,-51,-78,-96,-29,-49
-10,-10,1,10,-6,-4,12,-46,-72,-87,-25,-44
-6,-10,-4,9,-1,-7,9,-43,-67,-79,-26,-41
-5,-10,-5,8,0,-7,29,-37,-61,-70,-22,-38
-5,-10,-5,8,0,-7,36,-36,-60,-67,-20,-35
0,-10,-10,5,5,-10,28,-41,-60,-71,-20,-33
-1,-10,-10,5,5,-10,24,-39,-60,-70,-24,-29
-5,-17,-11,11,3,-14,18,-43,-60,-70,-28,-32
-10,-25,-15,18,3,-20,12,-46,-60,-70,-33,-36
-13,-30,-17,22,2,-24,10,-44,-61,-70,-34,-35
-17,-38,-20,28,2,-29,9,-49,-67,-74,-30,-35
-19,-42,-23,31,3,-33,11,-50,-74,-78,-30,-35
-21,-47,-25,35,2,-36,9,-51,-79,-83,-30,-35
-25,-50,-25,38,0,-37,12,-59,-81,-85,-30,-41
-20,-45,-25,33,3,-35,28,-64,-84,-95,-30,-43
-20,-45,-25,33,3,-35,31,-67,-86,-101,-33,-39
-19,-44,-25,32,4,-34,26,-72,-84,-99,-37,-40
-15,-40,-25,28,5,-32,25,-75,-91,-100,-40,-40
-14,-40,-26,27,6,-33,20,-75,-96,-100,-44,-40
-7,-38,-31,22,13,-35,20,-77,-95,-100,-44,-40
3,-32,-35,15,20,-34,20,-80,-95,-98,-39,-35
12,-28,-40,8,26,-33,20,-80,-95,-91,-33,-31
12,-23,-36,6,24,-29,20,-74,-95,-84,-30,-29
6,-19,-25,7,15,-21,20,-61,-90,-78,-25,-24
0,-15,-15,7,8,-15,23,-50,-80,-71,-21,-21
0,-8,-8,5,4,-8,42,-45,-71,-66,-17,-18
4,-1,-5,-1,5,-3,50,-45,-70,-70,-12,-15
6,6,0,-6,3,3,52,-43,-70,-70,-7,-15
7,12,5,-10,1,8,41,-39,-70,-69,-3,-14
31,30,-1,-31,16,14,0,-41,-71,-71,1,-11
58,37,-20,-47,39,8,-27,-43,-68,-68,10,-8
52,18,-34,-35,43,-8,-32,-55,-78,-76,10,-4
42,1,-41,-21,41,-20,-23,-75,-88,-85,-4,0
26,-16,-42,-5,35,-29,-8,-84,-105,-95,-15,-3
2,-42,-44,21,23,-43,11,-76,-106,-99,-31,-23
-16,-67,-51,41,18,-59,16,-85,-120,-123,-52,-37
-33,-79,-46,56,7,-62,14,-84,-128,-123,-57,-41
-38,-98,-60,69,11,-79,16,-96,-144,-136,-73,-48
-48,-96,-48,73,0,-71,13,-96,-142,-127,-65,-42
-44,-108,-63,76,10,-85,18,-91,-132,-128,-74,-55
-53,-99,-46,77,-3,-73,11,-113,-156,-141,-68,-44
-55,-120,-65,88,5,-92,28,-75,-121,-124,-91,-70
-60,-167,-107,114,24,-137,117,-95,-242,-292,-186,-120
-59,-75,-16,67,-21,-45,271,170,0,-116,-132,-95
268,383,114,-326,77,248,62,501,694,823,509,272
653,1040,387,-846,133,713,-621,502,1409,2178,1496,912
470,759,289,-615,91,524,-881,-12,937,1661,1120,749
15,9,-6,-12,11,2,-516,-705,-503,-217,70,146
-82,-120,-37,101,-22,-78,-145,-435,-504,-372,-88,-7
-37,-103,-66,71,15,-85,-2,-87,-139,-136,-99,-52
-75,-97,-22,86,-26,-59,19,-113,-192,-191,-116,-57
-52,-78,-27,65,-13,-52,34,-56,-115,-114,-100,-48
-47,-82,-35,65,-6,-58,43,-79,-158,-166,-113,-51
-43,-68,-25,56,-9,-46,46,-55,-119,-124,-93,-40
-39,-72,-33,56,-3,-52,40,-57,-130,-146,-104,-43
-41,-62,-20,52,-10,-41,38,-48,-115,-131,-89,-38
-32,-60,-28,47,-2,-44,34,-40,-106,-132,-93,-41
-36,-55,-20,46,-7,-37,29,-39,-107,-128,-85,-39
-35,-53,-18,44,-8,-35,42,-27,-90,-119,-80,-40
-37,-51,-14,44,-11,-32,46,-24,-89,-121,-76,-41
-36,-46,-10,41,-13,-28,44,-6,-71,-110,-68,-38
-39,-46,-7,43,-15,-26,45,2,-61,-102,-64,-32
-39,-42,-3,41,-18,-22,45,24,-33,-76,-58,-23
-33,-33,0,33,-16,-16,45,47,2,-53,-54,-18
-21,-18,3,19,-12,-7,39,80,40,-17,-39,-8
-2,4,7,-1,-4,5,34,128,73,10,-12,7
22,32,10,-27,6,20,29,189,127,49,17,19
43,59,16,-51,14,37,23,272,210,114,42,40
63,94,32,-78,15,63,18,360,302,189,75,65
95,146,51,-121,22,99,12,443,400,278,123,88
118,181,63,-150,28,122,6,508,485,354,164,113
137,196,58,-167,39,127,1,539,524,397,173,121
152,203,50,-178,50,126,-4,535,519,393,168,111
149,193,44,-171,52,119,-10,497,489,373,165,103
134,170,36,-152,49,102,-14,414,415,322,137,93
100,130,30,-115,35,79,-8,308,299,220,85,61
52,73,21,-63,15,47,3,183,177,118,30,22
8,15,7,-12,1,11,13,69,73,31,-17,-6
-19,-25,-7,22,-6,-16,21,-11,-1,-35,-46,-27
-26,-43,-17,35,-4,-30,34,-76,-47,-80,-67,-42
-28,-56,-28,42,0,-42,41,-109,-69,-107,-81,-56
-34,-69,-35,52,1,-51,40,-115,-86,-114,-88,-62
-38,-73,-35,56,-1,-54,38,-115,-96,-118,-90,-60
-39,-74,-35,57,-2,-55,34,-115,-94,-119,-90,-60
-36,-70,-35,53,0,-52,35,-115,-98,-115,-90,-60
-29,-64,-35,47,3,-50,31,-115,-100,-115,-90,-60
-26,-61,-35,44,4,-47,29,-115,-100,-115,-90,-60
-26,-56,-30,41,2,-43,31,-111,-96,-115,-83,-57
-27,-52,-25,39,-1,-38,29,-105,-89,-116,-72,-54
-27,-47,-20,37,-3,-34,31,-100,-86,-110,-63,-51
-26,-43,-17,35,-4,-29,28,-94,-79,-101,-53,-48
-27,-37,-11,32,-8,-23,25,-89,-74,-93,-48,-45
-22,-34,-12,28,-4,-23,25,-84,-69,-84,-45,-45
-5,-28,-23,17,9,-25,23,-72,-64,-80,-42,-45
-1,-26,-25,14,13,-26,19,-64,-61,-78,-37,-45
-4,-29,-25,17,11,-26,21,-65,-57,-75,-35,-45
-7,-33,-25,20,9,-28,22,-65,-54,-72,-39,-45
-9,-34,-25,22,9,-29,21,-65,-49,-70,-42,-45
-15,-40,-25,28,5,-32,19,-65,-58,-73,-45,-45
-31,-58,-27,45,-2,-43,21,-65,-65,-78,-48,-45
-31,-61,-30,46,0,-46,20,-65,-69,-81,-50,-45
-29,-59,-30,44,0,-44,20,-65,-80,-85,-52,-45
-31,-61,-30,46,-1,-45,32,-65,-79,-88,-55,-45
-29,-59,-30,44,1,-45,36,-65,-83,-92,-58,-45
-32,-62,-30,47,-1,-46,34,-65,-85,-104,-61,-45
-35,-65,-30,50,-2,-47,32,-65,-86,-111,-65,-45
-35,-65,-30,50,-2,-47,29,-65,-90,-109,-65,-45
-36,-65,-30,50,-2,-47,31,-65,-90,-110,-61,-45
-28,-60,-32,44,2,-46,34,-65,-90,-110,-58,-45
-23,-52,-28,38,3,-40,35,-65,-90,-110,-55,-42
-25,-44,-18,35,-3,-31,35,-63,-90,-105,-52,-37
-26,-36,-11,31,-7,-23,34,-51,-85,-96,-50,-35
-27,-29,-2,28,-13,-15,41,-36,-71,-89,-48,-31
-28,-21,7,24,-17,-7,53,-33,-63,-79,-45,-27
-29,-11,18,20,-23,3,58,-36,-65,-75,-41,-23
-31,-4,27,17,-29,12,45,-34,-64,-70,-38,-20
-13,8,21,2,-17,14,11,-36,-66,-68,-34,-20
16,25,9,-21,4,16,-24,-35,-63,-63,-30,-17
9,6,-3,-7,6,1,-37,-42,-66,-60,-29,-15
-8,-16,-7,12,0,-11,-26,-43,-69,-72,-23,-14
-9,-25,-16,17,4,-20,-10,-49,-81,-89,-32,-23
-46,-64,-18,55,-14,-41,-2,-55,-104,-97,-56,-36
-73,-100,-27,87,-23,-63,3,-46,-107,-113,-79,-51
-61,-100,-39,81,-11,-70,5,-66,-129,-134,-92,-64
-61,-107,-46,84,-7,-76,10,-65,-123,-137,-109,-72
-57,-105,-48,81,-4,-76,14,-80,-140,-157,-112,-69
-62,-107,-46,85,-8,-76,16,-80,-128,-127,-105,-69
-67,-126,-58,97,-5,-92,25,-105,-164,-158,-117,-73
-66,-113,-47,89,-9,-80,29,-100,-137,-120,-101,-69
-68,-181,-113,124,23,-146,60,-92,-160,-207,-180,-121
-94,-192,-98,144,2,-145,206,-19,-185,-308,-244,-148
47,65,19,-56,14,42,259,331,322,244,46,0
462,765,303,-614,79,534,-260,474,1082,1596,1040,617
600,1087,487,-844,56,787,-882,232,1411,2405,1561,983
228,364,136,-296,46,250,-768,-458,206,751,568,430
-31,-111,-80,72,24,-95,-303,-676,-687,-540,-111,22
-26,-102,-76,64,26,-89,-41,-214,-232,-184,-78,-30
-58,-123,-65,91,4,-94,23,-137,-179,-206,-117,-77
-68,-102,-34,86,-17,-67,26,-109,-152,-178,-90,-54
-58,-111,-53,85,-2,-82,36,-78,-124,-163,-105,-61
-63,-102,-40,83,-11,-71,35,-86,-145,-173,-98,-50
-54,-102,-48,78,-3,-75,34,-58,-105,-142,-99,-48
-51,-95,-44,73,-3,-69,31,-72,-128,-165,-99,-44
-45,-86,-42,66,-1,-63,29,-53,-96,-136,-88,-39
-43,-82,-40,63,-1,-61,32,-59,-105,-151,-90,-42
-37,-73,-35,55,-1,-54,35,-49,-86,-133,-80,-36
-36,-70,-34,53,-1,-51,35,-46,-84,-133,-80,-36
-30,-60,-30,45,0,-44,35,-38,-73,-119,-72,-35
-21,-50,-29,36,4,-39,35,-27,-57,-110,-69,-31
-17,-40,-23,29,3,-31,35,-15,-45,-98,-62,-24
-11,-29,-17,20,3,-23,32,16,-22,-77,-57,-17
-5,-16,-11,11,3,-14,26,45,3,-57,-44,-11
2,-4,-7,1,5,-6,22,74,38,-20,-22,-3
21,22,2,-21,9,12,18,127,91,18,-4,7
38,50,12,-44,13,31,13,190,154,68,28,27
51,80,29,-66,10,55,9,257,232,146,69,51
83,129,46,-106,18,87,3,338,329,237,106,76
110,175,65,-143,22,120,-4,414,420,328,158,102
128,209,81,-169,24,145,-11,456,488,395,197,119
149,221,72,-185,38,146,-17,448,508,406,195,126
147,213,66,-180,40,139,-24,432,494,401,187,121
138,197,59,-168,39,128,-21,393,446,374,182,115
116,168,52,-142,32,110,-12,293,345,289,146,94
70,116,47,-93,12,81,-4,180,221,183,89,58
22,49,27,-36,-3,38,4,88,108,80,38,21
-4,3,8,0,-6,5,11,17,25,-2,-5,-8
-6,-18,-12,12,4,-15,23,-32,-25,-56,-43,-26
-16,-43,-27,30,6,-34,34,-59,-62,-93,-66,-37
-29,-55,-26,42,-1,-40,35,-76,-86,-109,-70,-42
-30,-55,-25,43,-2,-40,35,-82,-95,-115,-70,-45
-35,-60,-25,48,-5,-42,35,-84,-99,-115,-73,-45
-35,-60,-25,48,-5,-42,35,-84,-96,-115,-75,-45
-34,-60,-25,48,-4,-42,34,-79,-95,-115,-75,-45
-38,-60,-23,49,-8,-41,29,-80,-95,-115,-71,-45
-40,-60,-20,50,-10,-40,26,-80,-95,-115,-64,-45
-43,-60,-17,52,-13,-38,23,-80,-96,-111,-57,-43
-46,-60,-14,53,-16,-37,18,-81,-93,-104,-51,-40
-46,-57,-11,51,-17,-33,15,-75,-86,-97,-44,-37
-41,-51,-10,46,-16,-30,11,-68,-79,-91,-40,-34
-36,-47,-10,42,-13,-28,10,-60,-73,-84,-40,-31
-33,-42,-10,38,-11,-26,10,-57,-65,-81,-40,-30
-27,-38,-10,32,-8,-24,10,-60,-61,-85,-40,-30
-25,-34,-10,30,-7,-21,10,-63,-59,-85,-40,-30
-25,-36,-11,30,-7,-23,10,-65,-55,-85,-40,-30
-27,-35,-7,31,-9,-21,10,-68,-53,-85,-40,-30
-30,-35,-5,33,-12,-20,10,-70,-48,-85,-40,-30
-35,-41,-5,39,-15,-23,10,-70,-57,-89,-40,-32
-45,-46,-1,46,-21,-23,10,-70,-72,-90,-40,-36
-45,-45,1,45,-22,-22,10,-70,-77,-90,-40,-35
-43,-44,-1,44,-21,-22,10,-70,-83,-90,-41,-35
-61,-65,-4,64,-28,-35,10,-70,-86,-91,-47,-35
-72,-77,-5,75,-33,-41,10,-71,-90,-98,-54,-35
-68,-74,-6,71,-30,-40,10,-85,-95,-100,-58,-39
-65,-75,-10,70,-27,-42,10,-90,-95,-100,-61,-40
-65,-75,-10,70,-27,-42,11,-92,-95,-99,-64,-40
-66,-74,-8,70,-29,-40,16,-96,-95,-102,-67,-40
-69,-72,-2,71,-33,-37,22,-98,-95,-106,-70,-40
-70,-67,3,68,-36,-32,28,-101,-95,-99,-69,-38
-73,-67,6,70,-39,-30,32,-95,-95,-92,-62,-34
-69,-57,12,63,-40,-22,39,-85,-96,-86,-58,-32
-41,-27,14,34,-28,-6,44,-75,-83,-79,-53,-29
-28,-17,11,23,-20,-3,46,-69,-72,-75,-47,-26
-31,-23,8,27,-19,-7,52,-66,-76,-75,-41,-24
-30,-25,6,27,-18,-9,40,-62,-77,-75,-36,-21
-24,-22,2,23,-12,-10,-3,-60,-82,-75,-35,-18
-10,-9,1,10,-5,-4,-36,-52,-83,-74,-35,-15
9,2,-6,-5,7,-2,-35,-68,-86,-75,-36,-13
18,-13,-31,-2,24,-21,-31,-91,-91,-81,-34,-8
4,-44,-48,20,26,-46,-30,-95,-106,-96,-37,-15
-21,-64,-42,43,11,-53,-23,-103,-119,-108,-48,-29
-42,-90,-48,66,4,-69,-12,-102,-117,-115,-66,-48
-53,-102,-49,78,-2,-75,-3,-112,-137,-131,-79,-65
-68,-117,-50,92,-9,-83,7,-119,-130,-135,-93,-78
-63,-117,-54,90,-4,-85,14,-127,-153,-159,-99,-76
-52,-103,-51,78,0,-76,20,-104,-132,-130,-86,-73
-53,-119,-66,86,7,-92,30,-114,-160,-158,-99,-79
-56,-104,-49,80,-3,-76,30,-93,-141,-123,-78,-69
-69,-168,-99,118,16,-133,63,-93,-155,-193,-150,-125
-100,-182,-82,141,-9,-131,198,-28,-209,-314,-224,-151
38,51,13,-45,13,32,272,341,287,192,37,-23
449,716,267,-583,91,492,-196,457,1006,1497,1016,560
600,1083,482,-842,59,783,-838,143,1284,2371,1625,977
250,389,139,-320,55,264,-768,-529,176,818,650,461
-22,-107,-85,65,32,-96,-293,-687,-694,-529,-91,35
-40,-94,-54,68,7,-74,-32,-195,-234,-182,-58,-20
-51,-119,-67,85,8,-93,30,-108,-148,-189,-108,-67
-50,-93,-43,72,-4,-68,40,-91,-153,-173,-84,-48
-49,-101,-52,75,2,-77,41,-63,-119,-149,-100,-59
-51,-91,-39,71,-6,-65,39,-75,-142,-166,-94,-48
-49,-87,-39,68,-5,-63,40,-46,-102,-132,-93,-51
-52,-85,-34,69,-9,-59,40,-56,-121,-159,-98,-50
-47,-76,-29,61,-9,-52,39,-35,-91,-129,-91,-43
-43,-75,-32,59,-5,-53,35,-38,-98,-144,-97,-47
-39,-65,-26,52,-6,-46,35,-26,-81,-129,-86,-44
-37,-63,-25,51,-6,-44,35,-21,-76,-125,-85,-46
-30,-55,-25,43,-2,-40,35,-9,-70,-111,-78,-45
-34,-55,-21,45,-6,-38,34,13,-52,-96,-75,-41
-39,-53,-14,46,-12,-34,40,35,-39,-80,-71,-30
-10,-20,-10,15,1,-15,53,65,-15,-56,-64,-20
17,13,-4,-15,10,5,48,98,15,-39,-49,-7
25,26,1,-26,12,13,42,134,53,-15,-26,3
34,41,7,-38,14,24,38,174,103,23,-2,19
46,66,20,-56,13,43,31,233,162,73,17,33
59,103,45,-81,7,74,27,307,244,146,47,56
86,149,63,-118,12,105,20,383,341,239,95,87
119,198,78,-159,20,138,12,450,434,331,144,112
138,235,97,-187,20,166,4,504,510,410,192,137
149,244,95,-197,26,170,-5,507,524,436,209,136
148,234,86,-191,31,160,-9,488,511,433,199,133
150,227,78,-189,36,152,-4,453,472,408,175,128
130,198,68,-164,31,133,2,354,372,323,135,100
95,134,39,-115,27,86,5,245,245,214,83,65
60,73,13,-67,23,42,10,144,123,103,27,25
20,22,2,-21,8,12,15,66,34,17,-20,-4
1,-9,-10,4,6,-9,15,22,-28,-33,-59,-21
-12,-30,-18,22,3,-24,15,-16,-66,-72,-83,-38
-20,-44,-24,32,2,-34,15,-35,-84,-91,-90,-48
-17,-48,-31,33,7,-39,15,-45,-98,-103,-98,-50
-12,-49,-37,31,13,-43,15,-49,-101,-110,-98,-50
-7,-45,-37,27,16,-41,16,-52,-99,-109,-91,-50
-11,-43,-32,27,11,-37,20,-55,-100,-111,-86,-50
-10,-40,-30,25,10,-35,20,-57,-100,-115,-81,-50
-11,-36,-25,24,8,-31,20,-61,-100,-115,-75,-47
-13,-35,-22,24,5,-28,20,-58,-95,-113,-70,-44
-17,-35,-18,26,1,-26,20,-53,-90,-110,-65,-41
-20,-35,-15,28,-2,-25,16,-48,-86,-107,-62,-38
-20,-35,-15,28,-2,-25,14,-44,-81,-105,-59,-36
-20,-35,-15,28,-2,-25,15,-39,-77,-98,-54,-33
-20,-35,-15,28,-2,-25,15,-35,-72,-89,-51,-30
-21,-37,-15,29,-3,-26,16,-40,-70,-80,-47,-30
-29,-40,-11,34,-9,-26,13,-40,-70,-74,-45,-30
-31,-40,-10,36,-11,-25,10,-40,-70,-76,-45,-30
-29,-39,-10,34,-10,-25,7,-40,-70,-75,-45,-30
-31,-41,-10,36,-10,-26,5,-39,-70,-75,-45,-33
-29,-39,-10,34,-10,-24,2,-44,-77,-75,-46,-36
-27,-38,-11,32,-7,-24,-1,-50,-86,-75,-49,-39
-18,-33,-15,26,-1,-24,4,-55,-84,-80,-51,-42
-19,-37,-18,28,0,-27,5,-53,-87,-74,-49,-45
-11,-33,-22,23,6,-27,5,-69,-86,-83,-56,-45
-12,-36,-25,24,7,-30,6,-87,-86,-99,-67,-47
-53,-82,-29,68,-12,-55,3,-88,-107,-103,-71,-50
-53,-83,-30,68,-11,-56,0,-91,-111,-112,-74,-50
-35,-66,-30,50,-2,-48,0,-90,-110,-114,-80,-54
-30,-65,-34,48,2,-49,0,-90,-115,-110,-83,-61
-19,-54,-35,37,8,-45,0,-90,-115,-110,-79,-64
-16,-50,-34,34,9,-42,0,-91,-114,-110,-73,-58
-16,-42,-26,29,5,-33,4,-88,-105,-110,-70,-52
-22,-41,-18,32,-2,-29,16,-79,-95,-111,-64,-47
-20,-30,-10,26,-5,-19,24,-70,-85,-99,-61,-41
-10,-10,-1,10,-4,-5,36,-67,-76,-73,-56,-37
-9,3,12,3,-11,7,55,-71,-71,-65,-51,-32
-1,29,30,-14,-16,29,64,-70,-66,-67,-46,-27
10,36,26,-23,-9,31,49,-74,-59,-62,-40,-22
14,30,16,-22,-1,22,-2,-77,-55,-63,-34,-18
22,31,9,-27,6,20,-25,-74,-49,-58,-31,-12
23,17,-7,-20,15,5,-15,-84,-65,-71,-38,-12
32,4,-28,-18,30,-12,-9,-91,-92,-77,-32,-22
13,-24,-36,6,25,-30,-3,-101,-104,-87,-48,-34
-14,-48,-34,31,11,-41,5,-104,-105,-108,-73,-44
-29,-65,-36,47,4,-50,10,-108,-116,-114,-81,-59
-57,-91,-35,75,-11,-63,14,-115,-127,-135,-96,-70
-60,-96,-35,79,-12,-66,17,-114,-123,-138,-100,-71
-61,-99,-39,80,-11,-69,13,-123,-140,-146,-105,-69
-63,-109,-46,86,-8,-77,25,-96,-124,-132,-104,-72
-63,-114,-51,89,-6,-82,14,-116,-151,-152,-108,-79
-64,-114,-49,89,-7,-81,31,-76,-122,-131,-100,-88
-88,-186,-98,137,5,-141,73,-106,-194,-239,-172,-128
-96,-162,-66,129,-15,-114,239,70,-120,-275,-225,-160
145,232,87,-188,29,159,180,463,514,525,291,111
