I,II,III,aVR,aVL,aVF,V1,V2,V3,V4,V5,V6
-88,-677,-589,382,251,-633,268,300,275,359,-165,-27
-87,-664,-577,375,245,-620,272,300,270,348,-183,-59
-80,-640,-560,360,240,-599,298,300,260,327,-186,-76
-144,-686,-542,415,199,-614,300,297,247,313,-212,-109
-144,-685,-541,415,199,-613,300,295,230,300,-214,-116
-120,-687,-567,404,224,-627,300,295,221,289,-253,-159
-135,-672,-537,403,202,-604,300,292,214,281,-259,-187
-114,-620,-506,367,196,-563,301,288,207,272,-221,-174
-129,-623,-495,376,183,-559,306,286,199,263,-248,-168
-114,-613,-500,364,193,-556,318,283,193,248,-263,-173
-133,-607,-474,370,171,-540,317,281,183,222,-274,-216
-167,-602,-435,385,134,-518,346,278,171,203,-305,-252
-158,-594,-436,377,139,-515,386,268,159,187,-313,-270
-177,-585,-408,381,116,-496,409,240,126,168,-341,-312
-184,-573,-389,379,103,-481,424,189,91,164,-384,-357
-164,-542,-377,353,107,-459,412,137,64,165,-387,-380
-176,-508,-333,342,79,-420,402,77,52,165,-382,-384
-194,-501,-306,348,56,-403,392,27,50,164,-378,-363
-125,-415,-290,270,83,-353,372,9,43,163,-336,-327
-83,-348,-265,216,91,-306,338,-3,58,179,-287,-281
-83,-315,-232,199,75,-273,292,24,105,234,-223,-204
-67,-255,-188,161,61,-221,243,83,163,305,-144,-122
-53,-207,-155,131,51,-181,210,133,214,347,-97,-74
-37,-176,-138,106,51,-157,194,142,224,362,-81,-54
-43,-178,-135,111,46,-156,184,144,227,362,-77,-40
-43,-166,-123,105,40,-144,175,131,233,354,-68,-26
21,-97,-119,38,70,-108,169,134,230,349,-64,-27
52,-56,-107,2,80,-81,159,127,212,345,-54,-20
-18,-109,-92,64,37,-100,139,117,202,336,-62,-34
-30,-114,-84,72,27,-98,96,141,203,334,-73,-43
-22,-83,-61,53,19,-72,89,99,180,315,-89,-56
32,-78,-111,23,72,-94,78,161,199,319,-86,-73
79,-82,-162,2,121,-122,63,79,158,296,-76,-61
10,-143,-153,67,82,-147,74,178,195,301,-74,-51
26,-108,-135,41,81,-121,50,70,139,290,-55,-32
19,-126,-146,54,83,-136,94,429,272,340,-35,-15
104,17,-87,-60,96,-35,247,1347,824,739,280,283
302,533,231,-418,35,382,620,795,1677,1539,1006,1010
501,1244,743,-873,-121,993,-305,-632,2016,2385,1971,2017
820,1596,775,-1208,22,1185,-1982,-2331,355,1797,1972,2155
515,886,372,-701,71,629,-1453,-1992,-536,604,833,1090
48,249,201,-149,-76,224,-278,-349,87,415,226,388
30,24,-6,-27,18,9,50,29,143,330,29,104
-39,-178,-140,109,51,-159,156,192,178,225,-136,-98
-18,-183,-165,101,74,-174,148,172,148,206,-145,-130
-77,-256,-178,167,51,-217,200,212,131,163,-164,-169
-78,-243,-166,161,44,-204,187,232,144,167,-146,-163
-45,-272,-228,158,92,-250,181,204,113,138,-181,-199
-76,-290,-214,183,69,-252,194,253,131,139,-186,-199
-47,-289,-242,168,98,-265,203,255,103,125,-183,-204
-129,-389,-260,260,65,-324,184,289,117,118,-203,-245
-140,-415,-275,278,68,-344,208,297,106,109,-217,-263
-118,-417,-299,268,91,-357,249,342,113,99,-214,-261
-96,-411,-314,254,110,-362,287,373,138,95,-204,-261
-103,-434,-332,269,115,-383,323,384,133,76,-245,-317
-133,-449,-316,291,91,-382,329,374,118,49,-273,-352
-141,-465,-325,303,92,-395,369,353,119,38,-284,-377
-201,-493,-292,347,46,-393,378,323,119,39,-295,-383
-211,-475,-264,343,26,-369,379,312,123,32,-284,-365
-168,-431,-263,299,48,-347,387,305,125,40,-253,-347
-118,-353,-235,236,58,-293,396,295,125,68,-210,-306
-116,-310,-194,213,39,-251,363,287,154,113,-150,-248
-106,-268,-163,187,29,-215,293,273,180,159,-75,-177
-76,-226,-150,151,37,-187,236,263,192,196,-13,-103
-51,-182,-131,117,40,-156,181,239,186,221,34,-52
44,-128,-172,42,108,-150,132,203,174,225,62,-41
59,-156,-216,49,138,-186,89,158,161,216,63,-38
13,-195,-208,91,111,-201,55,137,155,213,52,-33
10,-200,-209,95,110,-204,30,123,156,207,50,-28
20,-192,-212,86,116,-202,56,121,152,199,38,-27
33,-174,-207,70,120,-190,71,118,154,207,39,-11
41,-174,-215,67,128,-194,70,122,143,200,43,-4
54,-160,-214,53,134,-186,72,175,164,211,72,17
37,-177,-214,71,125,-195,65,139,162,199,75,14
22,-201,-222,90,122,-211,78,187,180,210,74,25
31,-181,-212,75,122,-196,58,111,146,203,70,28
37,-196,-233,79,136,-214,86,173,161,202,48,24
20,-186,-206,84,113,-196,50,99,140,216,70,52
30,-230,-260,101,146,-245,97,267,183,186,52,7
98,-94,-192,-1,145,-143,198,1012,585,483,306,256
230,262,32,-246,99,147,585,985,1213,1073,856,807
512,984,472,-748,20,728,334,200,1875,1963,1826,1838
758,1426,668,-1093,45,1047,-1371,-1954,781,1712,1957,2074
560,613,53,-586,253,332,-1587,-2370,-540,369,698,840
128,-38,-166,-45,147,-102,-455,-576,-168,80,137,220
27,-196,-223,85,125,-209,-71,-93,16,111,42,56
9,-348,-357,169,183,-352,67,70,36,14,-91,-105
-87,-345,-259,216,86,-302,99,110,63,45,-59,-80
-41,-354,-313,198,137,-333,133,127,33,20,-97,-122
-50,-351,-302,201,126,-326,150,201,74,27,-74,-104
-117,-420,-303,269,93,-362,144,158,37,-5,-99,-152
-96,-409,-312,253,108,-360,159,214,51,-2,-100,-161
-63,-389,-326,226,132,-357,151,204,27,-14,-93,-146
-59,-398,-339,228,141,-368,159,230,26,-30,-113,-171
-62,-418,-355,240,147,-386,160,215,-6,-59,-140,-205
-80,-475,-396,278,158,-435,157,222,-35,-101,-179,-245
-119,-499,-380,310,131,-440,158,221,-40,-132,-211,-283
-104,-484,-379,294,138,-431,227,217,-62,-149,-228,-304
-92,-462,-371,277,140,-416,268,206,-65,-142,-235,-311
-95,-457,-361,276,133,-409,292,172,-67,-162,-258,-340
-103,-450,-347,276,122,-398,311,119,-100,-190,-274,-363
-201,-481,-281,341,40,-381,298,58,-123,-189,-285,-383
-250,-473,-223,362,-13,-348,292,15,-112,-182,-276,-376
-188,-392,-204,291,8,-298,286,-19,-99,-168,-232,-328
-104,-291,-188,198,42,-239,270,-16,-71,-128,-184,-276
-40,-215,-175,128,67,-195,224,28,-25,-54,-102,-190
-5,-165,-161,85,78,-163,168,82,37,11,-30,-117
16,-130,-146,57,81,-137,115,99,71,45,-9,-81
14,-122,-136,54,75,-128,65,87,64,75,37,-40
19,-108,-127,45,73,-117,24,80,58,79,58,-33
20,-101,-121,41,71,-111,4,70,54,70,46,-36
24,-89,-113,33,69,-101,5,62,47,65,42,-34
8,-76,-83,34,46,-79,5,60,43,57,33,-35
-9,-70,-61,40,26,-65,4,60,39,52,29,-35
7,-42,-49,18,29,-46,7,60,40,46,21,-36
-26,-88,-61,57,18,-74,-2,60,40,39,21,-48
8,-77,-85,35,46,-80,-25,58,38,33,17,-49
81,4,-77,-42,79,-37,-33,82,53,26,30,-21
102,20,-82,-61,91,-30,-27,96,48,19,50,-19
88,9,-79,-49,83,-35,-36,84,23,13,43,-21
55,-25,-80,-15,67,-53,-50,80,28,10,35,-21
46,-35,-81,-5,63,-58,-45,72,39,7,30,-26
55,-22,-77,-16,66,-49,-37,66,36,4,21,-24
71,-26,-97,-23,84,-61,-32,58,31,1,18,-23
-6,-69,-63,38,29,-66,-23,43,27,-1,33,-19
-16,-77,-60,47,22,-69,-18,32,23,-3,30,-24
21,-66,-87,23,54,-76,-11,21,18,-12,11,-29
-4,-65,-62,35,30,-63,-2,18,15,-17,7,-36
15,-82,-97,34,56,-89,4,8,10,-24,3,-49
9,-127,-137,59,73,-132,14,2,7,-31,0,-42
14,-121,-135,54,75,-128,17,-1,5,-35,-1,-30
24,-117,-141,46,83,-128,15,-18,-3,-43,-8,-30
32,-104,-136,36,85,-120,11,-21,1,-35,-3,-25
32,-125,-157,47,95,-141,6,-50,-17,-64,-20,-53
39,-123,-162,42,101,-142,7,-9,-7,-61,-18,-47
61,-92,-152,16,107,-122,-6,-46,-29,-61,-32,-41
-33,-190,-157,112,62,-173,0,4,-21,-58,-34,-36
-51,-179,-127,115,38,-152,-12,-29,-30,-47,-6,-18
20,-98,-118,39,69,-108,49,-2,-23,-61,-2,-32
38,-69,-107,16,72,-88,24,28,11,-23,59,13
49,-81,-130,16,90,-105,33,5,-5,-55,3,-34
76,35,-41,-55,58,-3,118,755,368,217,216,191
124,279,154,-202,-15,216,296,1026,945,754,720,696
351,901,550,-626,-100,725,369,608,1758,1689,1692,1731
703,1552,848,-1128,-73,1200,-1014,-1432,1062,1743,2089,2222
556,860,304,-708,126,581,-1759,-2739,-655,250,751,919
219,131,-88,-175,153,22,-751,-1040,-511,-265,-6,119
84,32,-52,-58,68,-9,-228,-247,-148,-120,-7,48
-35,-158,-123,97,45,-140,-56,-82,-165,-189,-132,-118
-3,-131,-128,67,63,-129,-4,69,-80,-155,-101,-96
-42,-162,-120,102,39,-140,0,2,-135,-202,-145,-144
-70,-136,-66,103,-1,-101,57,115,-92,-176,-124,-138
-31,-108,-77,70,23,-92,26,49,-120,-206,-159,-173
-68,-133,-65,101,-1,-99,50,99,-106,-217,-163,-179
-59,-96,-38,78,-10,-67,61,84,-107,-215,-153,-173
-57,-103,-46,80,-6,-74,78,96,-114,-225,-174,-194
-74,-81,-6,78,-34,-43,60,90,-112,-240,-179,-211
-103,-86,17,94,-60,-34,59,82,-123,-264,-227,-253
-119,-106,13,112,-66,-46,51,87,-154,-277,-231,-260
-125,-125,0,125,-62,-63,45,73,-182,-316,-260,-293
-102,-113,-11,108,-45,-62,83,72,-198,-337,-299,-324
-72,-88,-16,80,-28,-52,101,42,-218,-365,-316,-355
-121,-121,0,121,-61,-60,122,7,-236,-387,-342,-394
-125,-94,30,109,-77,-32,144,-37,-240,-377,-339,-396
-105,-21,84,63,-94,31,161,-66,-230,-372,-336,-392
-134,-16,118,74,-125,51,184,-113,-228,-364,-333,-390
-125,16,141,54,-134,78,180,-155,-217,-352,-305,-370
-119,69,188,25,-154,128,143,-145,-221,-330,-270,-329
-117,104,221,6,-169,162,95,-134,-205,-289,-239,-292
-50,201,251,-75,-151,225,60,-92,-150,-233,-170,-206
2,278,276,-141,-137,277,28,-57,-110,-179,-89,-101
-9,301,310,-146,-160,305,-8,-43,-100,-140,-73,-69
-7,308,315,-151,-161,311,-62,-37,-97,-133,-76,-64
-12,265,277,-126,-144,271,-130,-97,-114,-179,-74,-65
11,279,268,-145,-129,273,-161,-128,-137,-202,-76,-66
71,342,272,-206,-101,307,-156,-114,-129,-193,-74,-64
66,333,267,-200,-101,300,-151,-109,-122,-188,-72,-66
30,313,284,-172,-127,298,-147,-97,-116,-180,-69,-57
19,310,291,-165,-136,300,-143,-76,-109,-174,-66,-58
43,317,275,-180,-116,296,-138,-54,-104,-168,-63,-73
31,298,267,-165,-118,282,-155,-46,-99,-165,-60,-68
10,263,253,-137,-122,258,-161,-34,-112,-165,-58,-58
4,262,257,-133,-127,260,-133,-30,-116,-165,-55,-52
-11,254,265,-122,-139,259,-139,-28,-111,-165,-52,-43
16,250,234,-133,-109,241,-150,-24,-109,-165,-50,-40
28,244,216,-136,-94,230,-141,-22,-105,-169,-46,-40
33,240,207,-137,-87,223,-138,-19,-104,-170,-45,-37
64,255,191,-160,-63,223,-131,-25,-101,-170,-42,-34
51,227,176,-139,-63,201,-127,-31,-97,-170,-36,-35
50,207,157,-129,-54,181,-121,-36,-94,-171,-32,-32
83,221,139,-152,-28,180,-111,-39,-90,-169,-29,-27
65,191,126,-129,-31,159,-103,-43,-85,-165,-22,-22
45,161,116,-103,-36,138,-80,-53,-87,-165,-21,-17
48,152,104,-100,-28,127,-60,-56,-90,-163,-26,-13
36,132,96,-84,-30,114,-61,-53,-90,-158,-24,-9
11,96,85,-54,-37,91,-57,-55,-97,-162,-29,-12
-4,76,80,-36,-42,78,-54,-44,-93,-166,-29,-8
8,69,61,-38,-27,64,-56,-56,-103,-173,-31,-11
29,56,28,-43,0,42,-65,-64,-99,-167,-29,-9
34,53,19,-44,8,35,-97,-103,-103,-171,-29,-9
33,41,8,-37,13,24,-88,-76,-99,-171,-33,-10
33,41,9,-37,12,25,-77,-83,-96,-166,-24,2
35,26,-9,-30,21,8,-49,-83,-102,-178,-39,-10
9,7,-2,-7,5,3,-56,-51,-82,-158,-17,15
-13,-37,-24,25,6,-30,-43,-106,-114,-186,-35,-11
15,-15,-30,0,23,-22,-32,1,-57,-151,2,25
38,9,-29,-24,33,-9,-38,-118,-93,-184,-13,8
95,70,-25,-83,60,23,73,428,143,-26,95,103
134,292,158,-213,-12,225,163,958,639,424,511,517
278,757,479,-518,-101,617,483,812,1472,1260,1329,1369
629,1558,928,-1094,-150,1243,-446,-582,1536,1893,2186,2317
655,1252,597,-953,29,924,-1826,-2718,-268,680,1285,1487
328,323,-5,-326,166,159,-1166,-1755,-785,-349,89,273
119,168,49,-144,34,109,-327,-346,-227,-217,21,132
32,37,4,-35,14,20,-117,-187,-231,-273,-74,-13
-10,-16,-6,13,-2,-11,-29,59,-127,-240,-81,-47
-33,-31,2,32,-17,-14,-64,-32,-162,-263,-108,-92
-55,-90,-36,73,-9,-63,-22,45,-137,-286,-141,-132
-48,-65,-16,57,-16,-41,-28,18,-137,-283,-138,-133
-47,-75,-28,61,-9,-51,13,70,-139,-297,-160,-155
-47,-56,-9,52,-19,-32,33,104,-123,-283,-142,-137
-46,-56,-10,51,-18,-33,63,88,-137,-295,-155,-151
-81,-49,32,65,-56,-8,64,113,-125,-290,-152,-153
-97,-25,71,61,-84,22,72,98,-133,-308,-177,-185
-63,11,74,26,-69,42,93,121,-132,-307,-178,-184
-59,14,73,22,-67,44,98,96,-150,-312,-182,-188
-66,1,67,32,-66,33,120,86,-165,-348,-219,-230
-66,0,65,32,-65,32,111,54,-191,-370,-239,-253
-107,-13,94,60,-100,40,132,12,-201,-374,-260,-281
-122,-16,105,69,-113,44,152,-53,-237,-424,-311,-339
-119,-25,94,72,-106,34,144,-130,-285,-463,-350,-379
-118,-29,89,74,-103,30,140,-196,-305,-482,-367,-402
-90,17,107,36,-99,62,134,-259,-315,-497,-376,-411
-132,39,171,47,-152,105,128,-274,-306,-454,-340,-375
-167,50,217,58,-192,134,108,-264,-288,-413,-288,-322
-124,105,228,9,-176,166,87,-219,-237,-357,-226,-248
-51,216,267,-82,-159,241,69,-136,-180,-272,-137,-145
8,311,303,-160,-148,307,22,-92,-159,-226,-90,-90
-9,299,309,-145,-159,304,-23,-84,-151,-212,-76,-66
12,323,311,-168,-149,317,-47,-83,-140,-207,-68,-46
9,318,309,-163,-150,313,-91,-108,-129,-199,-61,-38
-4,307,311,-151,-158,309,-112,-127,-121,-192,-52,-18
77,386,308,-231,-116,347,-105,-111,-109,-193,-54,7
83,396,313,-240,-115,354,-105,-107,-103,-195,-54,10
58,381,322,-220,-132,351,-93,-97,-97,-196,-59,17
42,361,319,-201,-139,340,-122,-85,-86,-193,-58,10
-3,306,309,-152,-157,307,-137,-85,-88,-198,-63,-20
9,313,304,-161,-148,308,-124,-34,-66,-190,-62,-8
65,361,296,-213,-115,328,-126,-19,-71,-189,-67,-6
75,363,288,-219,-106,325,-109,24,-29,-173,-63,3
51,328,277,-190,-113,302,-129,-12,-51,-169,-64,11
27,273,247,-150,-110,260,-140,26,-71,-162,-69,10
9,258,249,-134,-120,253,-157,-18,-60,-148,-53,26
41,242,201,-142,-80,221,-125,-2,-51,-159,-72,11
54,250,195,-152,-71,223,-146,-1,-31,-122,-42,40
93,233,140,-163,-24,186,-91,-22,-82,-158,-81,-13
142,301,159,-222,-9,229,13,747,281,65,95,153
195,576,381,-386,-93,478,347,787,810,554,543,599
381,1139,759,-761,-189,949,318,169,1654,1543,1527,1616
683,1775,1093,-1229,-205,1434,-1402,-1484,1178,1881,2222,2423
728,1351,623,-1040,52,986,-1990,-2552,-493,540,1119,1420
309,558,248,-434,30,403,-757,-964,-410,-128,161,424
56,290,234,-173,-90,262,-219,-151,-59,-73,23,210
8,91,83,-49,-38,87,-45,-24,-103,-168,-147,-1
-47,64,111,-9,-79,87,-11,111,-18,-145,-152,-34
-18,58,76,-21,-47,67,6,48,-71,-204,-191,-74
-29,38,67,-5,-48,52,58,158,-26,-183,-175,-69
-8,33,41,-13,-25,37,47,126,-57,-192,-174,-92
-3,-14,-12,9,5,-13,84,187,-39,-191,-180,-94
-42,-70,-28,56,-7,-49,69,161,-46,-187,-212,-116
-52,-98,-47,75,-3,-72,78,178,-46,-192,-249,-156
-60,-82,-22,71,-19,-52,74,206,-36,-181,-233,-142
-65,-110,-45,88,-10,-77,76,208,-40,-187,-249,-162
-39,-134,-94,87,27,-114,74,240,-28,-178,-260,-175
-18,-129,-111,74,46,-119,109,282,-33,-180,-272,-192
-28,-130,-102,79,37,-116,160,306,-20,-195,-298,-232
-52,-147,-95,100,22,-121,192,284,-33,-207,-328,-272
-56,-150,-94,103,19,-122,231,269,-42,-209,-336,-286
-121,-198,-76,160,-22,-137,236,226,-65,-249,-377,-334
-165,-215,-50,191,-58,-132,234,174,-102,-273,-405,-364
-126,-134,-9,130,-58,-71,246,132,-89,-237,-366,-327
-116,-77,39,97,-77,-19,252,98,-74,-212,-344,-312
-84,-29,55,57,-69,13,213,82,-31,-175,-307,-273
-45,15,60,15,-52,37,157,78,13,-104,-236,-185
-3,51,54,-24,-29,52,107,70,35,-44,-176,-124
-20,63,84,-22,-52,73,42,70,70,-6,-131,-78
-29,68,97,-20,-64,83,-5,60,71,16,-117,-32
38,132,95,-86,-28,113,-18,61,79,50,-115,-7
59,156,97,-108,-19,126,-24,68,93,80,-108,-3
72,121,49,-96,11,85,-41,59,78,67,-107,-7
83,115,32,-99,25,73,-52,75,82,68,-99,2
81,111,31,-96,25,71,-69,50,62,60,-97,-1
54,106,52,-80,1,79,-70,84,69,55,-95,1
32,107,75,-70,-22,91,-72,47,61,65,-93,7
40,94,54,-68,-7,74,-52,103,89,74,-99,6
30,104,74,-67,-22,89,-61,81,99,85,-88,11
32,78,46,-55,-7,62,-40,96,105,85,-103,-23
15,91,76,-53,-31,84,-31,121,130,104,-80,-7
20,66,46,-43,-14,56,15,108,120,108,-72,11
152,153,2,-153,75,77,114,894,504,373,120,199
228,459,231,-344,-2,345,393,1006,1082,914,613,682
307,1006,700,-657,-196,853,533,570,2053,1941,1581,1673
672,1744,1072,-1208,-200,1407,-1006,-1180,1459,2199,2225,2414
753,1334,581,-1044,86,957,-2001,-2648,-469,793,1187,1492
292,418,126,-355,83,271,-879,-1049,-382,80,144,422
70,137,67,-104,1,102,-159,-70,72,154,-17,159
43,-62,-105,10,75,-84,-7,79,69,77,-149,-17
-18,-113,-94,66,38,-104,79,238,146,86,-160,-51
5,-155,-160,75,83,-157,77,157,78,55,-195,-111
-41,-218,-177,129,68,-197,117,250,124,65,-239,-166
-53,-215,-162,134,55,-189,120,201,89,53,-242,-171
-33,-221,-189,127,78,-205,129,252,104,47,-234,-180
-27,-191,-164,110,69,-177,125,259,106,49,-221,-167
-3,-172,-168,88,83,-169,131,303,133,71,-211,-138
-19,-212,-193,116,87,-202,131,316,131,75,-220,-164
-64,-289,-225,177,81,-257,128,303,103,55,-278,-232
-105,-315,-210,210,53,-262,134,317,104,50,-287,-236
-72,-302,-230,187,79,-266,171,345,92,27,-281,-239
-58,-281,-223,170,82,-252,208,362,92,5,-307,-272
-76,-281,-205,179,65,-243,229,345,85,-18,-346,-307
-59,-313,-254,187,97,-283,240,332,81,-35,-375,-348
-60,-322,-262,191,101,-291,264,289,77,-52,-389,-380
-50,-304,-254,178,102,-279,273,250,68,-43,-390,-379
-72,-283,-211,178,70,-247,264,232,61,-13,-356,-342
-78,-228,-150,153,36,-189,264,257,91,32,-309,-293
-60,-182,-122,122,31,-152,259,267,151,99,-245,-225
-67,-156,-89,112,11,-122,232,248,205,176,-167,-147
-83,-161,-78,122,-3,-120,158,243,222,224,-132,-105
-76,-159,-83,117,4,-121,87,214,219,243,-99,-66
19,-79,-98,30,59,-88,44,167,221,268,-83,-29
58,-44,-101,-7,79,-73,23,151,214,251,-80,-10
47,-52,-99,2,73,-75,18,148,215,276,-71,0
50,-51,-101,1,75,-76,10,142,214,320,-69,3
49,-50,-99,0,74,-74,4,136,205,306,-55,10
48,-53,-101,2,75,-76,-3,132,201,305,-57,15
41,-58,-99,9,70,-78,-3,135,187,292,-67,19
84,-17,-101,-33,93,-58,7,161,211,299,-85,14
65,-34,-99,-16,82,-66,13,197,247,342,-92,1
8,-97,-105,44,57,-101,24,185,245,343,-75,-1
28,-103,-131,38,80,-117,26,184,244,332,-59,16
27,-105,-132,39,79,-118,39,222,249,357,-39,31
13,-106,-119,47,67,-112,65,230,254,369,-25,30
67,-74,-141,4,104,-107,69,223,248,361,-54,27
68,-95,-164,13,116,-129,68,218,243,354,-88,24
37,-144,-181,54,110,-163,64,213,236,345,-83,19
85,-125,-211,20,148,-168,66,207,233,340,-80,20
50,-167,-218,59,134,-192,66,209,225,329,-76,12
16,-189,-205,86,111,-197,65,209,231,362,-71,24
42,-158,-199,58,121,-178,86,211,267,395,-69,24
29,-159,-188,65,108,-173,90,212,265,388,-77,-6
34,-169,-203,68,118,-186,90,216,254,390,-86,-13
-12,-250,-238,131,114,-244,86,217,252,391,-74,-11
1,-244,-245,122,123,-245,84,204,235,387,-76,-21
45,-201,-246,79,146,-223,86,213,241,392,-63,-16
37,-206,-243,85,140,-224,77,184,216,378,-63,-18
41,-209,-250,84,146,-230,82,211,229,385,-73,-10
18,-258,-276,121,147,-267,65,167,202,373,-80,-11
1,-290,-291,145,147,-290,80,201,208,373,-101,-34
16,-271,-287,127,152,-279,53,165,210,373,-100,-23
52,-260,-313,104,183,-286,82,175,196,368,-92,-20
49,-226,-275,89,162,-250,74,201,242,412,-56,15
52,-243,-295,96,174,-269,94,198,215,370,-92,-10
119,-115,-234,-1,176,-174,209,908,619,667,136,198
127,182,56,-155,35,119,381,1073,1229,1233,657,706
302,755,454,-529,-76,604,488,830,2254,2354,1719,1808
671,1513,842,-1092,-86,1177,-868,-958,1721,2644,2381,2575
555,963,408,-759,73,685,-1776,-2574,-382,1000,1070,1355
146,45,-101,-95,123,-28,-809,-1008,-390,280,-16,226
8,-90,-98,41,53,-94,-165,-1,126,410,-61,79
8,-211,-219,102,113,-215,52,163,128,316,-160,-60
17,-229,-246,107,131,-237,101,276,205,336,-186,-102
-27,-280,-253,154,113,-266,66,187,122,278,-246,-167
-39,-293,-254,166,108,-273,98,309,164,300,-240,-160
-39,-276,-236,158,99,-256,95,240,120,275,-245,-177
-52,-294,-242,173,96,-268,121,277,132,272,-255,-199
-54,-277,-223,166,85,-250,108,249,119,260,-258,-211
-67,-289,-222,178,78,-255,120,250,108,234,-292,-253
-35,-238,-203,137,84,-220,121,248,109,235,-288,-254
-22,-212,-190,117,84,-201,136,259,92,222,-290,-257
-48,-210,-162,129,57,-186,165,295,85,223,-297,-275
-86,-210,-123,148,19,-167,188,269,66,197,-322,-309
-99,-211,-111,155,6,-161,203,245,55,165,-355,-348
-105,-210,-105,158,0,-157,228,192,26,134,-372,-375
-114,-208,-94,161,-10,-151,235,140,-17,119,-417,-430
-101,-166,-65,133,-18,-115,249,92,-56,118,-458,-480
-97,-127,-30,112,-34,-78,270,28,-65,114,-445,-469
-109,-117,-7,113,-51,-62,245,-35,-81,112,-439,-466
-102,-91,11,96,-56,-40,245,-71,-82,111,-427,-458
-96,-69,27,82,-61,-21,211,-95,-75,107,-398,-426
-74,-17,57,45,-66,20,146,-76,-53,137,-349,-378
-1,78,79,-39,-40,78,104,2,20,217,-260,-287
32,156,124,-94,-47,140,72,55,81,297,-176,-201
54,200,146,-127,-47,173,39,60,108,327,-131,-160
45,189,143,-117,-49,166,-9,55,110,328,-130,-147
23,199,176,-111,-77,187,-21,50,104,332,-127,-143
12,216,204,-114,-96,209,-24,46,102,341,-111,-137
12,231,219,-122,-104,225,-35,41,97,344,-100,-132
65,280,216,-173,-75,247,-35,38,94,335,-98,-124
50,260,210,-155,-80,235,-69,32,91,329,-132,-138
24,228,205,-126,-91,217,-98,29,88,322,-146,-152
38,236,198,-137,-80,217,-94,23,85,316,-134,-149
53,247,194,-151,-71,220,-95,38,83,315,-131,-148
29,211,183,-120,-78,197,-95,78,79,315,-121,-144
8,179,172,-94,-82,175,-95,89,83,315,-116,-145
57,217,160,-137,-52,188,-95,94,84,315,-123,-141
77,227,150,-153,-37,188,-95,115,87,315,-122,-136
63,205,142,-135,-40,173,-96,128,98,313,-116,-131
53,186,134,-120,-41,160,-95,123,93,309,-112,-129
46,171,126,-109,-40,148,-95,116,85,305,-105,-122
19,138,119,-78,-51,128,-94,111,80,303,-100,-121
36,146,110,-91,-37,128,-91,77,69,297,-96,-150
84,185,101,-135,-8,142,-87,57,65,296,-91,-156
67,160,93,-114,-13,126,-82,48,71,302,-89,-148
37,119,82,-78,-23,100,-75,46,76,291,-84,-149
49,123,75,-86,-13,99,-72,40,76,274,-80,-140
48,109,61,-78,-7,85,-64,30,69,262,-79,-142
22,73,51,-48,-15,62,-60,37,75,264,-70,-132
55,96,40,-76,7,68,-53,11,62,250,-93,-133
44,83,39,-63,3,60,-34,44,80,257,-82,-125
26,70,43,-48,-9,56,-35,0,59,241,-65,-120
35,69,34,-52,0,51,-10,43,80,245,-68,-127
-40,9,49,15,-45,29,-29,0,64,242,-67,-130
18,45,27,-32,-5,36,6,37,73,230,-49,-118
53,105,52,-79,1,78,-22,28,101,260,-2,-79
16,27,11,-22,2,19,8,38,64,215,-38,-110
107,157,50,-132,28,103,92,768,446,498,202,127
148,399,251,-274,-51,325,299,883,1006,1016,685,609
412,1056,643,-734,-116,849,278,395,1837,2013,1715,1690
766,1698,932,-1233,-83,1315,-1223,-1551,1092,2048,2120,2199
579,926,347,-753,115,636,-1845,-2666,-639,521,748,874
215,226,11,-221,102,118,-763,-963,-422,68,1,75
42,113,70,-78,-14,91,-231,-192,-52,157,-2,1
-9,-97,-89,53,40,-93,-44,-20,-57,65,-147,-192
-4,-70,-66,37,31,-67,5,103,10,117,-124,-180
-39,-109,-69,74,15,-89,6,40,-46,61,-161,-230
-32,-87,-55,60,12,-71,53,147,7,86,-143,-214
-30,-72,-42,51,6,-57,55,100,-25,56,-153,-225
-49,-88,-39,68,-5,-63,80,143,-3,56,-155,-240
-62,-82,-21,72,-20,-51,61,114,-26,42,-152,-257
-76,-95,-19,86,-29,-56,69,136,-30,27,-159,-273
-102,-90,13,96,-58,-38,60,134,-36,16,-164,-265
-67,-84,-16,76,-25,-50,59,122,-71,-10,-191,-300
-6,-21,-15,14,5,-18,66,124,-85,-15,-191,-305
-37,-17,20,27,-28,2,66,108,-87,-34,-197,-307
-67,-51,16,58,-41,-17,94,111,-81,-52,-222,-339
-89,-83,6,86,-47,-38,107,89,-108,-106,-272,-395
-105,-107,-2,106,-51,-54,125,57,-125,-149,-317,-441
-126,-120,6,123,-65,-57,149,-16,-159,-173,-343,-476
-147,-93,54,119,-100,-19,159,-83,-188,-193,-345,-486
-126,-38,88,81,-107,25,183,-153,-190,-183,-349,-489
-114,-11,103,62,-109,46,174,-215,-216,-179,-355,-495
-143,14,157,65,-150,85,156,-209,-207,-167,-309,-450
-149,61,210,44,-180,135,125,-200,-166,-124,-239,-382
-120,135,255,-8,-187,195,71,-177,-122,-81,-179,-308
-73,184,257,-56,-165,221,30,-141,-84,-39,-134,-233
-35,217,252,-91,-143,234,-60,-137,-79,-1,-99,-200
-10,264,274,-127,-142,269,-130,-133,-81,12,-77,-166
11,282,271,-147,-131,276,-130,-122,-78,24,-69,-126
27,290,264,-159,-119,277,-130,-128,-84,21,-68,-128
35,295,260,-165,-113,278,-126,-104,-74,17,-64,-123
22,276,253,-149,-116,264,-148,-123,-94,10,-61,-137
22,269,247,-146,-113,258,-160,-82,-90,4,-61,-154
-2,245,246,-122,-124,245,-164,-106,-92,3,-53,-140
-3,226,229,-111,-117,227,-154,-69,-84,1,-54,-149
43,311,268,-177,-113,289,-168,-50,-76,21,-35,-130
34,270,236,-152,-101,252,-153,-49,-87,1,-45,-144
12,236,224,-124,-106,230,-155,14,-44,22,-19,-114
30,252,221,-141,-96,236,-120,-45,-57,16,-29,-96
72,241,169,-157,-49,205,-13,808,304,221,107,44
209,562,352,-386,-72,457,289,1110,922,754,598,522
381,1106,725,-744,-172,915,316,279,1655,1585,1398,1359
749,1769,1018,-1259,-135,1394,-1317,-1534,1086,1861,2032,2105
835,1528,693,-1182,71,1110,-2208,-2808,-547,752,1304,1476
251,610,359,-431,-54,484,-1035,-1281,-501,51,318,455
17,315,298,-166,-141,306,-307,-220,-89,78,104,145
96,162,66,-129,15,114,-136,-59,-121,-40,-68,-80
38,81,44,-60,-4,63,-71,90,-45,-62,-110,-147
-4,41,45,-19,-24,43,-40,15,-100,-83,-114,-161
-68,-44,24,56,-46,-10,-14,113,-55,-95,-141,-198
-96,-63,33,79,-64,-15,-26,73,-69,-115,-136,-201
-112,-103,10,107,-61,-46,34,149,-55,-108,-144,-203
-86,-75,11,80,-48,-32,33,169,-39,-95,-137,-187
-37,-75,-37,56,0,-56,51,192,-43,-104,-141,-202
-73,-157,-84,115,6,-120,35,190,-81,-136,-157,-238
-78,-171,-92,124,7,-131,65,202,-73,-172,-163,-244
-42,-131,-89,86,24,-110,96,260,-25,-167,-148,-231
-79,-169,-90,124,6,-130,111,280,-57,-175,-185,-276
-103,-193,-90,148,-6,-141,164,313,-65,-173,-196,-295
-103,-206,-103,155,0,-154,161,301,-60,-180,-210,-311
-113,-232,-120,173,4,-176,194,293,-60,-189,-232,-338
-105,-218,-113,161,4,-165,211,287,-52,-181,-216,-339
-150,-226,-76,188,-37,-151,198,278,-53,-176,-210,-357
-136,-209,-73,173,-32,-141,233,269,-37,-164,-194,-330
-70,-130,-61,100,-4,-95,228,256,-9,-143,-171,-274
-99,-118,-19,108,-40,-68,186,239,13,-106,-116,-232
-108,-119,-11,114,-48,-65,122,208,37,-60,-59,-165
-66,-60,6,62,-36,-26,49,164,41,-34,2,-94
-8,8,16,0,-12,12,3,121,41,-29,65,-42
55,32,-23,-43,39,4,-59,52,16,-29,71,-21
37,-8,-45,-14,41,-26,-105,-5,-18,-35,64,-36
15,-22,-37,4,26,-30,-95,-19,-34,-32,65,-33
-9,-50,-41,29,16,-45,-109,-50,-51,-41,56,-24
20,-31,-51,6,35,-41,-122,-18,-39,-43,58,-11
76,16,-60,-46,68,-22,-92,-19,-51,-47,50,-5
33,-45,-78,6,55,-61,-79,21,-39,-43,50,2
26,-70,-97,22,62,-83,-100,11,-49,-38,52,12
-3,-99,-95,51,46,-97,-69,29,-34,-46,44,9
-11,-71,-61,41,25,-66,-73,45,-4,-21,62,34
86,-5,-90,-41,88,-47,-24,75,0,-4,67,7
105,33,-72,-69,88,-19,-4,145,66,42,128,46
71,-13,-84,-29,78,-48,-13,33,1,-13,81,20
119,22,-96,-70,108,-37,90,756,304,183,234,172
138,223,85,-181,26,154,309,1101,832,642,652,589
282,711,429,-497,-74,570,516,574,1549,1432,1436,1412
694,1488,794,-1091,-50,1141,-842,-1141,1255,1821,2133,2200
744,1161,417,-953,163,789,-1945,-2671,-362,657,1250,1389
329,326,-4,-328,166,161,-937,-1241,-491,-70,314,422
47,30,-16,-39,32,7,-242,-184,-90,-5,181,211
-4,-189,-186,97,91,-187,-85,-88,-160,-116,11,-3
-46,-255,-209,151,82,-232,-20,86,-82,-115,7,-41
-53,-295,-242,174,95,-268,-31,12,-131,-154,-25,-87
-39,-287,-248,164,104,-267,47,124,-92,-148,-41,-102
-59,-309,-250,184,95,-279,30,79,-106,-174,-54,-126
-40,-336,-296,188,128,-315,47,124,-99,-175,-58,-131
-11,-291,-281,151,135,-286,34,143,-97,-158,-34,-107
-74,-352,-278,213,102,-315,71,143,-103,-184,-63,-143
-143,-409,-266,276,61,-337,79,156,-103,-205,-77,-160
-86,-377,-290,232,102,-333,83,159,-118,-219,-83,-170
-66,-354,-289,210,112,-322,117,180,-97,-206,-95,-184
-74,-356,-282,216,104,-319,114,172,-114,-228,-111,-202
-113,-395,-283,254,85,-339,135,156,-150,-273,-152,-244
-176,-451,-275,314,49,-362,151,113,-172,-308,-193,-283
-188,-463,-275,326,43,-369,169,80,-178,-317,-189,-298
-187,-452,-265,320,39,-359,198,41,-195,-318,-182,-292
-139,-395,-256,267,59,-325,202,10,-200,-312,-173,-280
-102,-352,-250,228,74,-301,190,-16,-185,-299,-164,-270
-89,-314,-225,201,69,-270,175,-21,-168,-265,-131,-237
-125,-305,-181,215,29,-243,141,5,-131,-205,-86,-180
-145,-293,-148,220,2,-220,93,31,-82,-159,-37,-109
-48,-179,-132,114,42,-155,61,81,-37,-125,59,-40
12,-113,-125,51,69,-119,42,111,-4,-96,123,25
10,-112,-122,51,66,-117,25,93,-4,-94,125,62
22,-95,-117,36,70,-106,-6,61,-16,-96,125,64
24,-88,-113,32,69,-100,-39,33,-32,-94,126,60
9,-99,-108,45,59,-104,-63,25,-54,-96,124,53
36,-69,-104,17,70,-86,-78,15,-55,-94,127,65
75,-30,-106,-22,91,-68,-72,4,-55,-97,134,85
43,-61,-103,9,73,-82,-85,-3,-55,-93,130,81
17,-90,-107,37,62,-98,-96,-14,-55,-101,121,74
30,-72,-102,22,66,-87,-100,-4,-65,-120,117,70
15,-94,-109,40,62,-101,-94,18,-65,-118,108,63
10,-120,-129,55,70,-124,-71,39,-61,-114,105,60
29,-100,-129,36,80,-115,-59,64,-59,-112,125,82
67,-94,-161,14,115,-127,-40,59,-56,-106,130,87
68,-100,-168,17,118,-134,-69,44,-52,-104,115,74
12,-152,-164,70,88,-158,-79,28,-51,-122,105,69
32,-158,-190,63,111,-174,-43,16,-47,-132,102,57
12,-178,-190,83,101,-184,-68,1,-63,-127,107,52
-25,-215,-190,120,82,-203,-80,-4,-82,-133,103,48
21,-169,-189,74,105,-179,-72,-10,-74,-125,107,53
28,-162,-191,67,110,-176,-66,-22,-77,-135,102,46
35,-153,-188,59,112,-170,-58,-16,-65,-141,106,55
35,-148,-183,57,110,-165,-56,-44,-72,-145,112,67
41,-133,-174,46,108,-153,-41,-13,-63,-130,124,80
3,-182,-185,90,94,-183,-57,-85,-82,-135,118,72
-19,-224,-205,122,94,-215,-48,-51,-60,-126,118,74
22,-164,-186,71,105,-175,-54,-61,-63,-118,127,81
10,-188,-198,89,105,-193,-21,-28,-63,-128,121,76
13,-161,-175,75,94,-168,-32,-4,-25,-87,168,127
-8,-200,-192,104,92,-195,14,-9,-54,-130,107,59
64,-81,-146,9,105,-113,91,732,304,135,326,281
211,249,38,-230,86,143,322,1033,916,699,859,816
459,915,455,-687,2,685,380,601,1745,1657,1849,1862
744,1454,710,-1099,17,1082,-1072,-1487,969,1637,2165,2279
539,646,107,-593,216,376,-1779,-2722,-737,127,808,952
212,-12,-223,-99,217,-118,-747,-993,-525,-317,122,229
80,-57,-137,-11,108,-97,-214,-197,-222,-194,135,171
-23,-263,-240,143,109,-251,-71,-79,-264,-267,-4,-20
-61,-290,-230,176,85,-259,-49,29,-169,-234,3,-31
-94,-331,-238,213,72,-284,-55,-42,-232,-323,-65,-112
-53,-275,-222,164,85,-248,-2,58,-164,-281,-41,-83
-19,-229,-210,124,96,-220,0,38,-170,-273,-54,-69
-24,-230,-206,127,92,-218,24,94,-148,-271,-55,-77
-38,-226,-189,132,76,-207,17,67,-165,-293,-52,-104
-74,-264,-190,169,58,-226,33,85,-178,-308,-61,-120
-70,-246,-176,158,54,-211,33,84,-169,-298,-54,-119
-70,-244,-174,157,52,-209,51,96,-188,-328,-83,-148
-52,-217,-165,135,57,-191,73,104,-213,-349,-88,-154
-78,-233,-156,156,39,-194,94,81,-217,-362,-112,-181
-117,-260,-143,188,13,-201,121,80,-217,-386,-149,-228
-146,-285,-139,216,-3,-212,123,49,-259,-434,-199,-288
-171,-329,-158,250,-6,-243,137,1,-299,-467,-241,-336
-128,-272,-144,200,8,-208,158,-39,-311,-486,-235,-353
-119,-230,-111,175,-3,-171,152,-86,-316,-498,-226,-352
-109,-200,-91,155,-9,-145,142,-151,-331,-488,-219,-340
-103,-161,-59,132,-22,-110,135,-176,-329,-473,-209,-320
-121,-133,-12,127,-54,-73,107,-162,-292,-434,-183,-277
-64,-13,51,39,-58,19,83,-122,-234,-357,-94,-187
-7,59,66,-26,-37,62,61,-72,-181,-292,-17,-103
-31,74,104,-22,-68,89,15,-41,-163,-245,33,-42
1,159,159,-80,-79,159,-17,-21,-166,-228,83,-12
42,185,143,-113,-51,164,-49,-35,-165,-230,82,-12
8,145,137,-76,-65,141,-90,-55,-165,-234,65,-6
5,135,130,-70,-63,133,-101,-68,-165,-246,53,-1
13,133,121,-73,-54,127,-113,-91,-168,-253,35,-2
17,133,116,-75,-49,124,-118,-91,-177,-275,20,-9
21,125,105,-73,-42,115,-116,-86,-178,-285,5,-14
41,139,99,-90,-29,119,-147,-86,-179,-276,-9,-20
59,150,91,-105,-16,120,-158,-80,-188,-271,-20,-25
43,125,81,-84,-19,103,-153,-81,-181,-263,-16,-14
16,114,98,-65,-41,106,-156,-74,-169,-258,-6,0
22,111,89,-67,-33,100,-154,-61,-160,-252,0,14
48,101,53,-75,-2,77,-155,-50,-147,-249,14,26
51,97,46,-74,2,71,-146,-14,-135,-250,28,48
51,86,36,-69,7,61,-133,8,-129,-246,21,56
47,71,24,-59,11,47,-123,-1,-130,-245,12,48
63,80,17,-72,22,49,-116,-5,-130,-245,3,45
54,59,6,-57,24,32,-110,-11,-131,-241,-5,40
31,31,-1,-31,16,15,-102,-16,-130,-240,-9,34
54,35,-18,-44,35,8,-95,-20,-130,-240,-15,31
81,36,-45,-58,63,-5,-89,-25,-123,-233,-17,27
71,30,-41,-50,55,-5,-83,-29,-123,-237,-24,24
42,-21,-63,-10,53,-42,-74,-37,-116,-231,-25,21
24,-65,-89,21,57,-77,-68,-58,-116,-231,-25,16
0,-83,-83,42,42,-83,-58,-62,-135,-250,-37,16
14,-72,-86,30,50,-79,-54,-71,-130,-239,-36,20
44,-41,-85,-1,65,-62,-48,-60,-114,-230,-31,38
20,-74,-94,28,57,-84,-51,-52,-112,-227,-19,52
9,-98,-107,45,58,-102,-51,-60,-121,-235,-21,29
10,-91,-101,40,56,-96,-46,-28,-104,-222,-4,34
14,-133,-147,60,81,-140,-57,-71,-130,-239,-27,12
19,-129,-147,55,83,-138,-33,-11,-97,-217,-30,14
-14,-153,-139,84,63,-146,-57,-87,-136,-243,-53,3
13,-188,-201,88,107,-195,-55,0,-96,-243,-66,-11
21,-117,-138,48,80,-128,-60,-50,-83,-177,-29,9
13,-145,-157,67,85,-151,24,112,-55,-177,-52,-9
78,2,-76,-40,78,-37,68,806,381,147,253,285
187,353,167,-270,10,260,340,923,1090,817,879,922
471,1117,646,-794,-88,881,204,454,1920,1867,2001,2121
704,1515,810,-1110,-53,1162,-1369,-1852,712,1508,2029,2244
514,627,113,-571,200,370,-1673,-2511,-835,-34,548,798
133,51,-83,-92,108,-16,-600,-671,-391,-281,0,185
-33,-59,-26,46,-3,-43,-180,-173,-150,-204,-38,79
-20,-175,-155,98,67,-164,20,65,-103,-254,-125,-36
-26,-177,-151,102,63,-164,44,119,-49,-222,-94,-23
-13,-236,-223,125,105,-229,54,85,-100,-270,-147,-94
-40,-218,-177,130,69,-197,36,138,-90,-273,-176,-128
-90,-251,-161,171,36,-206,8,85,-125,-318,-229,-182
-17,-174,-157,96,70,-165,26,159,-87,-281,-194,-159
-2,-143,-141,73,70,-142,-1,125,-117,-293,-203,-172
-46,-187,-141,117,48,-164,37,150,-137,-328,-245,-214
-14,-138,-124,76,55,-130,71,140,-139,-338,-251,-223
-34,-156,-122,95,44,-138,84,147,-136,-333,-239,-215
-72,-183,-111,128,19,-147,78,145,-152,-331,-255,-232
-75,-182,-107,129,16,-145,80,128,-139,-329,-260,-236
-112,-199,-87,156,-12,-143,104,120,-153,-334,-274,-259
-122,-194,-72,158,-25,-133,128,93,-192,-377,-339,-320
-121,-187,-66,154,-27,-126,169,57,-199,-396,-352,-338
-169,-222,-53,196,-58,-138,180,-41,-262,-429,-399,-401
-182,-215,-33,199,-74,-124,180,-117,-300,-466,-438,-451
-161,-174,-13,168,-74,-93,199,-184,-323,-468,-426,-435
-161,-151,10,156,-85,-70,197,-243,-348,-463,-417,-425
-143,-104,39,123,-91,-32,189,-236,-303,-423,-363,-379
-85,-34,51,59,-68,8,170,-204,-259,-358,-295,-291
-49,25,74,12,-62,49,109,-154,-222,-288,-225,-213
-56,53,109,1,-83,81,35,-116,-176,-241,-170,-150
-16,102,119,-43,-68,110,-9,-75,-134,-201,-127,-94
21,165,144,-94,-62,155,-32,-40,-103,-173,-79,-56
30,196,166,-113,-69,181,-35,-32,-99,-168,-70,-29
21,181,160,-101,-70,170,-41,-30,-100,-161,-70,-10
-18,136,154,-59,-86,145,-63,-22,-94,-160,-70,-23
-7,143,150,-68,-78,146,-65,-24,-97,-151,-70,-33
7,149,142,-79,-67,145,-68,-45,-118,-154,-69,-25
21,138,117,-79,-48,127,-69,-38,-119,-154,-89,-44
48,134,86,-91,-20,110,-76,-23,-125,-165,-93,-48
34,125,91,-80,-29,108,-86,-10,-119,-166,-83,-37
23,121,98,-72,-38,109,-69,21,-88,-123,-78,-33
41,112,71,-77,-15,91,-58,56,-83,-119,-70,-25
62,107,45,-85,9,75,-54,67,-80,-121,-64,-19
39,89,50,-64,-6,69,-48,64,-76,-115,-57,-13
27,47,20,-37,3,33,-77,66,-73,-116,-51,-5
22,19,-3,-21,12,8,-72,65,-68,-114,-44,0
40,85,45,-63,-3,65,-33,65,-66,-105,-37,11
101,112,11,-107,45,61,-24,61,-63,-78,-35,33
86,56,-31,-71,58,12,-17,55,-61,-80,-35,35
64,44,-20,-54,42,12,-7,50,-57,-96,-31,28
55,23,-32,-39,43,-4,-2,44,-55,-95,-30,24
42,-6,-48,-18,45,-27,11,38,-55,-94,-31,17
61,-16,-77,-22,69,-46,38,34,-56,-91,-36,12
37,-37,-74,0,56,-56,44,26,-54,-88,-35,7
1,-78,-79,39,40,-78,33,16,-56,-98,-33,1
-12,-117,-105,65,47,-111,28,8,-55,-114,-46,-6
-3,-120,-116,62,57,-118,18,-2,-54,-111,-60,-12
15,-124,-138,55,77,-131,13,-12,-78,-104,-67,-20
11,-124,-135,57,73,-129,19,-9,-72,-96,-47,-3
39,-94,-133,28,86,-113,50,3,-60,-92,-35,19
71,-83,-154,6,113,-118,56,32,-46,-83,-24,27
55,-95,-151,20,103,-123,48,7,-54,-91,-19,24
-19,-168,-149,94,65,-158,50,32,-46,-89,-22,16
-27,-166,-138,97,56,-152,42,12,-51,-88,-16,31
21,-123,-144,51,83,-133,93,43,-53,-94,-26,41
-24,-148,-124,86,50,-136,93,48,-40,-87,-14,53
-20,-176,-156,98,69,-166,125,14,-69,-126,-48,13
4,-155,-159,76,82,-157,127,80,-28,-81,-8,42
-14,-171,-157,93,72,-164,118,-42,-87,-121,-27,3
17,-135,-151,59,84,-143,141,539,184,56,103,114
108,130,21,-119,43,75,215,887,682,523,527,538
346,686,340,-516,3,513,487,637,1539,1433,1424,1474
654,1455,801,-1055,-74,1128,-663,-889,1414,1966,2236,2382
666,1088,422,-878,122,755,-1851,-2737,-443,625,1194,1415
332,206,-126,-269,229,40,-996,-1494,-729,-291,72,260
58,31,-27,-44,43,2,-240,-251,-170,-133,35,139
-37,-148,-111,93,37,-130,-32,-100,-171,-180,-92,-40
-57,-183,-126,121,35,-155,99,141,-46,-134,-88,-51
-39,-162,-123,100,42,-142,102,73,-96,-156,-96,-70
-45,-179,-134,112,45,-156,139,159,-82,-182,-126,-116
-42,-155,-114,99,37,-134,116,114,-116,-210,-131,-131
-47,-167,-120,107,36,-143,138,131,-123,-220,-150,-149
-91,-163,-72,127,-9,-118,125,126,-116,-214,-145,-155
-84,-164,-79,124,-2,-121,137,114,-132,-230,-161,-174
-49,-117,-68,83,10,-92,147,127,-126,-237,-170,-175
-52,-146,-94,99,21,-119,130,105,-161,-269,-199,-218
-73,-159,-86,116,7,-122,154,112,-167,-285,-203,-221
-77,-163,-85,120,4,-124,165,95,-185,-306,-229,-254
-95,-199,-104,148,5,-151,167,95,-225,-346,-285,-312
-125,-189,-64,157,-30,-126,162,86,-241,-371,-307,-330
-94,-120,-27,107,-33,-73,196,72,-235,-370,-305,-341
-118,-73,45,95,-81,-14,254,35,-232,-370,-301,-350
-194,-119,75,157,-134,-22,261,-22,-232,-374,-329,-385
-193,-119,74,156,-133,-22,260,-99,-271,-416,-372,-425
-212,-107,106,159,-159,-1,256,-173,-295,-430,-352,-424
-193,-47,146,120,-170,49,256,-186,-270,-384,-314,-383
-177,27,204,75,-191,115,237,-186,-244,-340,-279,-343
-173,46,219,63,-196,133,183,-167,-209,-296,-210,-266
-85,126,211,-21,-149,168,142,-120,-174,-257,-146,-177
-70,150,220,-40,-145,184,94,-107,-163,-228,-121,-122
-92,124,215,-16,-154,169,48,-102,-162,-219,-110,-93
-63,127,190,-32,-127,158,1,-94,-157,-218,-100,-109
12,187,176,-100,-82,181,-6,-88,-154,-214,-89,-106
38,210,172,-124,-67,191,23,-81,-150,-212,-85,-96
9,172,163,-91,-78,168,7,-83,-150,-208,-82,-92
17,175,158,-97,-71,167,-23,-103,-171,-208,-80,-83
11,161,150,-86,-70,155,-41,-107,-177,-197,-76,-79
-17,149,166,-66,-92,157,-57,-99,-164,-199,-75,-72
-26,142,169,-58,-97,155,-65,-81,-155,-227,-83,-67
-22,137,159,-58,-91,147,-45,-41,-145,-225,-86,-63
-23,135,158,-56,-91,146,-29,-26,-140,-213,-83,-55
2,131,129,-67,-63,129,-55,-23,-134,-208,-80,-52
25,125,100,-75,-38,112,-66,-16,-128,-192,-81,-51
44,127,83,-86,-20,105,-48,-5,-123,-177,-55,-33
26,129,103,-78,-39,116,-34,25,-120,-174,-21,-24
-15,98,112,-42,-64,105,-28,41,-119,-170,-19,-25
-7,58,65,-26,-36,61,-22,26,-122,-169,-22,-26
2,39,37,-21,-18,38,-13,10,-117,-162,-17,-23
-6,20,26,-7,-16,23,-10,5,-132,-173,-35,-33
-15,7,23,3,-19,15,4,3,-151,-194,-54,-44
9,39,30,-24,-11,34,26,1,-138,-182,-45,-35
-19,3,22,8,-20,12,46,-6,-124,-172,-36,-27
-75,-64,11,69,-42,-27,61,-1,-97,-165,-18,-19
-65,-65,0,65,-32,-32,60,-21,-92,-165,-7,-12
-60,-70,-10,65,-25,-40,59,-28,-100,-165,-19,-3
-78,-88,-10,83,-34,-49,61,-55,-112,-164,-35,-15
-50,-94,-44,73,-3,-69,69,-71,-117,-167,-36,-35
-22,-84,-63,53,21,-73,40,-70,-104,-160,-23,-25
-1,-80,-78,41,39,-79,36,-92,-104,-166,-30,-33
-20,-87,-68,54,24,-77,33,-71,-113,-151,-11,-17
-55,-135,-80,95,13,-108,26,-98,-158,-164,-22,-28
3,-110,-113,53,58,-111,33,-33,-120,-144,-4,-14
5,-101,-105,48,55,-103,14,-95,-152,-156,-13,-15
9,-132,-140,62,75,-136,37,-10,-116,-149,-8,-7
-5,-128,-123,67,59,-125,-9,-107,-140,-164,5,16
-24,-176,-152,100,65,-164,100,128,-73,-148,-10,0
86,44,-42,-65,64,1,186,852,384,219,316,307
180,383,204,-282,-12,293,491,807,1024,831,899,908
472,1138,666,-805,-97,902,185,90,1693,1809,1971,2057
677,1444,766,-1061,-45,1105,-1445,-2121,431,1346,1893,2076
368,508,140,-438,114,324,-1515,-2433,-911,-131,440,646
44,18,-26,-31,35,-4,-448,-637,-410,-278,26,154
-46,-95,-49,71,2,-72,-117,-242,-239,-238,-9,48
-1,-144,-143,72,72,-143,77,-8,-188,-274,-97,-59
-9,-104,-95,57,43,-99,91,29,-142,-230,-75,-60
-73,-183,-110,128,18,-146,97,36,-181,-262,-118,-120
-54,-153,-100,104,24,-126,121,107,-138,-237,-91,-94
-61,-200,-139,131,39,-169,116,54,-192,-300,-160,-172
-102,-228,-126,165,12,-177,123,102,-186,-290,-159,-174
-102,-222,-120,162,9,-170,111,67,-202,-307,-157,-174
-54,-171,-116,113,32,-144,116,112,-191,-313,-159,-179
-32,-137,-104,85,36,-120,124,131,-197,-305,-150,-170
-58,-147,-89,102,16,-117,134,147,-193,-318,-167,-197
-122,-195,-73,159,-24,-133,117,141,-206,-354,-200,-235
-158,-222,-64,190,-47,-143,137,131,-235,-390,-222,-265
-153,-178,-25,165,-64,-101,173,136,-222,-384,-233,-267
-168,-176,-9,172,-79,-92,209,105,-233,-400,-262,-300
-158,-166,-8,162,-74,-87,232,58,-251,-426,-279,-343
-159,-157,2,158,-80,-77,241,4,-258,-439,-291,-357
-194,-154,40,173,-117,-57,245,-74,-299,-459,-313,-384
-190,-126,64,158,-127,-31,241,-137,-315,-462,-317,-392
-186,-97,89,141,-137,-4,234,-184,-298,-449,-295,-374
-147,-51,96,99,-122,22,234,-186,-296,-435,-286,-359
-130,-37,93,83,-111,28,200,-170,-275,-407,-250,-312
-135,-2,133,68,-134,65,130,-165,-243,-371,-183,-241
-50,103,154,-27,-102,128,90,-135,-234,-330,-129,-155
-37,142,179,-53,-108,160,41,-99,-233,-308,-95,-101
-49,138,186,-45,-117,162,4,-88,-230,-310,-87,-101
-34,142,176,-54,-105,159,-28,-106,-226,-309,-82,-105
-38,139,177,-51,-108,157,-82,-117,-224,-311,-79,-107
-10,141,151,-66,-80,146,-85,-130,-229,-309,-73,-110
23,138,115,-81,-46,126,-86,-152,-230,-311,-71,-110
16,134,119,-75,-52,126,-95,-173,-244,-326,-99,-122
-15,131,146,-59,-80,138,-87,-160,-242,-326,-103,-121
-15,127,142,-56,-78,134,-79,-131,-226,-314,-92,-110
-11,124,136,-57,-74,130,-71,-120,-212,-309,-89,-103
-15,119,133,-52,-74,126,-64,-76,-195,-300,-80,-95
-2,125,127,-61,-65,125,-58,-45,-188,-292,-74,-88
-2,122,124,-61,-63,123,-53,-42,-184,-284,-64,-78
-47,69,116,-11,-82,92,-47,-36,-181,-268,-57,-67
-61,47,108,7,-85,77,-43,-33,-169,-274,-48,-58
-12,88,99,-38,-56,93,-34,-27,-144,-256,-47,-54
-2,91,93,-44,-48,92,-41,-25,-145,-238,-51,-56
-26,57,83,-16,-54,69,-37,-18,-158,-243,-49,-54
-60,2,61,29,-60,31,-47,-44,-168,-266,-52,-57
-72,-36,37,54,-54,0,-63,-82,-183,-295,-56,-66
-13,5,18,4,-16,12,-28,-76,-161,-261,-55,-45
28,32,4,-30,12,18,-28,-75,-154,-254,-55,-34
40,9,-30,-24,35,-10,-41,-71,-176,-276,-51,-47
12,-43,-55,16,34,-49,-53,-66,-170,-273,-49,-44
-31,-87,-55,60,12,-71,-41,-67,-167,-277,-50,-46
5,-50,-55,23,30,-52,-21,-53,-161,-268,-43,-43
37,-24,-61,-6,49,-42,-18,-58,-160,-272,-47,-46
0,-59,-59,29,30,-59,21,-32,-150,-268,-41,-45
-43,-105,-61,74,9,-83,16,-46,-148,-271,-40,-50
-66,-133,-66,100,0,-99,27,-19,-133,-270,-41,-52
-60,-122,-62,91,2,-92,31,-46,-121,-267,-33,-47
-58,-127,-69,93,6,-98,33,-35,-118,-277,-38,-64
-49,-111,-62,80,7,-86,9,-34,-153,-258,-26,-41
-15,-118,-102,67,44,-110,5,-82,-176,-283,-69,-76
-28,-113,-85,71,29,-99,-8,-29,-120,-240,-28,-38
-22,-138,-116,80,47,-127,-10,-96,-174,-249,-46,-35
42,-52,-94,5,68,-73,90,571,138,-69,74,82
76,208,132,-142,-29,170,248,957,665,406,523,526
287,759,471,-523,-92,615,524,813,1621,1415,1499,1546
682,1584,901,-1133,-110,1242,-610,-707,1503,1974,2327,2468
589,1129,539,-859,25,834,-1818,-2693,-455,556,1226,1447
151,170,19,-161,66,95,-1000,-1449,-769,-407,47,244
-19,13,32,2,-25,23,-251,-228,-238,-291,-68,46
-40,-110,-70,75,15,-90,-47,-98,-238,-335,-179,-94
-83,-171,-88,127,3,-129,39,139,-116,-272,-137,-69
-144,-229,-84,187,-30,-156,32,40,-165,-308,-152,-143
-149,-234,-85,192,-32,-159,84,118,-137,-302,-161,-160
-104,-212,-108,158,2,-160,59,79,-157,-323,-179,-159
-86,-227,-141,157,27,-183,89,138,-149,-336,-192,-169
-82,-204,-123,143,21,-163,77,140,-168,-313,-182,-159
-86,-215,-129,150,22,-172,80,129,-180,-327,-223,-210
-96,-199,-103,148,4,-151,85,157,-157,-307,-217,-212
-98,-198,-99,148,1,-148,97,167,-170,-315,-228,-215
-109,-189,-80,149,-14,-134,93,191,-152,-330,-244,-228
-100,-182,-82,141,-9,-132,91,183,-157,-341,-272,-267
-139,-177,-38,158,-50,-108,135,206,-163,-362,-299,-292
-187,-173,13,180,-100,-80,175,215,-165,-376,-291,-289
-200,-177,23,188,-111,-77,221,209,-162,-376,-303,-313
-200,-174,26,187,-113,-73,239,169,-158,-382,-335,-348
-186,-178,8,182,-97,-85,230,107,-206,-407,-376,-396
-209,-187,23,198,-116,-82,223,19,-274,-460,-429,-447
-214,-177,37,195,-125,-69,213,-60,-299,-467,-432,-437
-202,-144,58,173,-130,-43,204,-76,-288,-435,-399,-420
-156,-106,50,131,-103,-28,188,-72,-244,-394,-354,-387
-139,-64,75,101,-107,5,150,-43,-201,-337,-298,-311
-147,-26,121,86,-134,47,113,15,-159,-282,-240,-231
-97,34,131,31,-115,83,91,50,-136,-239,-190,-171
-86,85,172,0,-129,128,63,63,-126,-219,-167,-158
-94,73,167,10,-130,120,36,42,-123,-214,-159,-153
-52,83,134,-16,-93,108,21,-6,-151,-209,-150,-131
-40,118,157,-39,-99,137,3,-25,-157,-203,-143,-110
-50,132,182,-41,-116,157,-6,-29,-150,-197,-138,-102
-45,124,169,-39,-107,146,-30,-32,-152,-193,-136,-102
-28,137,165,-55,-97,151,-41,-35,-142,-184,-130,-95
-20,136,156,-58,-88,145,-30,-44,-148,-181,-129,-94
-45,104,149,-30,-97,126,-66,-18,-148,-170,-123,-88
-36,106,141,-36,-89,124,-60,-25,-151,-168,-118,-80
-3,107,110,-52,-56,108,-23,44,-115,-156,-111,-65
12,114,102,-63,-45,108,-40,60,-109,-146,-98,-50
-20,64,84,-22,-53,74,-7,117,-96,-141,-100,-51
-60,32,92,14,-77,62,-5,107,-88,-123,-78,-30
-23,44,68,-11,-46,56,30,111,-102,-149,-93,-44
12,80,67,-46,-28,73,18,139,-59,-115,-60,-11
2,46,44,-24,-21,45,26,82,-103,-132,-73,-37
8,1,-6,-5,7,-3,146,839,217,55,41,73
31,210,179,-121,-75,195,419,885,682,484,428,457
218,806,588,-512,-186,697,527,265,1484,1388,1305,1358
644,1597,952,-1121,-154,1274,-1095,-1133,1246,1932,2171,2332
708,1329,620,-1018,44,974,-2092,-2479,-473,739,1356,1629
212,448,235,-330,-12,341,-874,-1150,-573,-89,267,516
-62,101,163,-20,-112,132,-146,-87,-121,-40,47,195
-62,-116,-54,89,-4,-84,21,73,-172,-158,-128,-33
-81,-154,-72,118,-4,-113,94,236,-66,-136,-135,-71
-72,-183,-111,128,20,-147,78,148,-128,-185,-180,-137
-122,-286,-164,204,21,-225,110,231,-109,-209,-207,-172
-111,-271,-160,191,25,-215,91,205,-128,-207,-187,-158
-58,-255,-197,157,70,-226,150,261,-113,-214,-196,-172
-71,-238,-167,155,48,-203,186,288,-107,-206,-201,-185
-99,-250,-150,175,25,-200,196,301,-107,-211,-232,-215
-131,-290,-159,211,15,-225,187,327,-94,-217,-227,-221
-175,-364,-189,269,8,-276,184,335,-122,-228,-226,-234
-164,-372,-207,269,22,-289,179,346,-120,-249,-257,-253
-118,-323,-205,221,44,-264,231,358,-120,-259,-271,-265
-123,-336,-213,229,45,-274,258,379,-120,-247,-264,-278
-136,-350,-213,243,38,-281,276,370,-120,-287,-304,-327
-162,-362,-200,262,19,-281,327,352,-119,-296,-320,-348
-206,-370,-164,288,-21,-267,341,309,-137,-303,-321,-362
-253,-383,-130,318,-61,-256,353,259,-160,-323,-349,-385
-227,-359,-132,293,-47,-245,339,225,-150,-318,-327,-399
-193,-309,-116,251,-38,-213,329,218,-134,-284,-282,-367
-184,-279,-94,232,-45,-186,311,211,-122,-232,-255,-307
-105,-195,-90,150,-7,-142,262,202,-80,-188,-194,-247
-86,-158,-71,122,-7,-114,220,196,-39,-137,-136,-181
-94,-137,-43,116,-25,-90,183,188,-18,-123,-95,-127
-91,-100,-9,96,-40,-55,147,174,-20,-126,-73,-84
-115,-119,-4,117,-55,-61,114,150,-47,-125,-76,-79
-102,-133,-31,117,-35,-82,88,119,-61,-131,-74,-81
-75,-124,-49,100,-12,-86,79,104,-70,-130,-75,-76
-64,-114,-50,89,-7,-82,73,97,-73,-128,-75,-75
-73,-108,-35,91,-19,-71,65,86,-81,-121,-73,-75
-32,-96,-64,65,16,-80,57,79,-100,-117,-65,-69
3,-89,-92,43,48,-90,52,67,-100,-111,-59,-63
13,-75,-89,31,51,-82,49,90,-101,-105,-52,-59
-6,-105,-99,56,47,-102,51,111,-106,-100,-45,-52
-92,-168,-75,130,-8,-121,49,114,-105,-100,-41,-49
-63,-150,-87,106,12,-118,53,130,-104,-116,-33,-39
-16,-111,-95,64,40,-103,81,139,-96,-119,-52,-54
-53,-116,-64,85,6,-90,93,143,-89,-110,-45,-48
-56,-101,-45,78,-5,-72,89,130,-83,-107,-26,-24
-67,-99,-32,83,-18,-65,90,123,-75,-99,-32,-35
-80,-141,-61,110,-9,-100,92,113,-70,-95,-29,-39
-65,-138,-72,101,4,-105,93,103,-71,-96,-36,-58
-34,-104,-70,69,18,-86,105,109,-67,-93,-34,-38
-4,-80,-76,43,36,-78,116,93,-73,-97,-35,-15
-44,-120,-76,82,16,-97,107,109,-69,-91,-29,-43
-74,-177,-102,126,14,-140,90,57,-90,-113,-30,-52
-55,-176,-121,116,34,-148,102,56,-81,-113,-32,-51
-63,-171,-108,118,23,-140,86,37,-87,-99,-25,-45
-59,-181,-122,120,32,-151,104,62,-95,-107,-38,-52
-35,-167,-132,101,49,-149,88,84,-78,-76,-16,-35
-25,-182,-157,104,66,-169,99,39,-109,-104,-37,-58
-55,-183,-127,119,36,-155,121,124,-41,-77,-13,-31
-57,-192,-135,125,39,-163,94,-9,-109,-133,-44,-58
34,-76,-111,21,73,-93,222,614,175,52,101,77
50,141,91,-96,-20,116,340,1002,680,514,513,483
183,597,413,-391,-115,505,583,734,1500,1371,1351,1353
568,1449,881,-1008,-157,1165,-467,-659,1525,2029,2270,2370
582,1173,590,-878,-4,881,-1773,-2665,-339,778,1372,1563
199,265,66,-232,66,166,-989,-1571,-766,-231,170,333
-15,11,26,2,-21,19,-188,-245,-210,-133,26,107
-102,-194,-92,148,-5,-143,9,-110,-249,-228,-114,-87
-188,-242,-54,215,-67,-148,148,159,-132,-171,-85,-93
-161,-245,-84,203,-38,-164,135,74,-177,-206,-119,-139
-127,-259,-133,193,3,-196,170,157,-150,-215,-145,-174
-140,-238,-99,189,-21,-168,146,135,-152,-212,-140,-168
-156,-271,-114,214,-21,-192,165,150,-158,-265,-206,-225
-179,-269,-90,224,-44,-179,159,159,-139,-255,-193,-205
-184,-281,-97,233,-43,-189,159,169,-162,-273,-206,-225
-188,-269,-81,229,-53,-174,162,191,-172,-274,-196,-246
-209,-283,-73,246,-68,-178,158,163,-187,-289,-203,-266
-201,-260,-59,230,-70,-159,159,172,-196,-312,-233,-280
-132,-176,-43,154,-44,-109,197,152,-215,-321,-241,-269
-158,-179,-20,169,-69,-99,221,154,-213,-320,-241,-294
-236,-216,20,226,-128,-97,214,126,-211,-338,-258,-333
-213,-214,-1,213,-106,-107,243,85,-246,-384,-310,-386
-207,-216,-9,212,-98,-112,257,38,-281,-410,-334,-422
-252,-215,36,233,-144,-89,274,-16,-291,-419,-345,-434
-263,-185,78,224,-170,-54,296,-67,-306,-431,-356,-448
-227,-134,93,181,-160,-20,314,-104,-290,-403,-322,-417
-187,-94,92,140,-140,-1,301,-101,-273,-365,-286,-381
-184,-58,126,121,-155,34,275,-87,-247,-334,-241,-330
-174,-17,156,95,-164,69,236,-62,-211,-295,-180,-259
-147,14,162,66,-155,88,171,-17,-181,-250,-130,-198
-97,85,182,6,-140,133,134,25,-138,-206,-84,-143
-60,136,196,-38,-128,166,103,33,-124,-191,-46,-110
-74,122,196,-25,-135,159,55,17,-127,-187,-27,-104
-70,122,193,-26,-132,157,20,9,-122,-193,-32,-106
-100,114,214,-8,-157,164,-9,-10,-146,-203,-57,-105
-116,113,229,1,-173,171,-35,-60,-175,-211,-67,-106
-115,101,216,6,-166,159,-58,-100,-197,-240,-76,-106
-96,114,210,-10,-153,162,-63,-99,-203,-245,-80,-90
-21,178,199,-79,-111,188,-50,-87,-189,-233,-69,-73
-33,158,192,-63,-113,175,-50,-74,-186,-231,-65,-84
-70,118,188,-25,-129,153,-35,-30,-174,-220,-56,-100
-74,111,184,-19,-129,147,-41,0,-171,-218,-53,-101
-55,108,164,-27,-109,136,-39,34,-157,-210,-47,-93
-27,103,130,-38,-79,116,-11,43,-155,-212,-46,-95
-50,66,116,-9,-83,91,-9,71,-143,-211,-41,-86
-69,27,96,21,-83,61,8,73,-137,-219,-36,-86
-51,41,93,5,-72,67,28,59,-137,-208,-37,-81
-42,73,115,-15,-79,94,38,84,-119,-181,-19,-68
-67,41,108,13,-88,74,29,31,-140,-197,-22,-69
-72,21,93,25,-83,57,24,107,-97,-163,7,-21
-78,7,85,35,-81,45,36,-18,-146,-190,14,-50
3,21,18,-12,-8,19,66,385,19,-88,88,36
55,112,57,-84,-1,84,220,922,395,189,295,261
157,564,407,-361,-125,485,498,537,1118,947,1040,1010
474,1274,800,-874,-163,1037,-284,-547,1429,1706,1970,2033
