I,II,III,aVR,aVL,aVF,V1,V2,V3,V4,V5,V6
-17,-7,11,12,-14,2,106,269,182,36,-24,-61
70,87,17,-78,26,52,94,256,184,38,5,-27
105,135,30,-120,38,82,94,289,207,73,63,27
47,91,44,-69,1,67,74,321,204,74,69,18
33,89,56,-61,-11,72,71,228,210,74,43,31
18,83,65,-51,-23,74,50,206,186,59,47,31
73,131,57,-102,8,94,42,208,178,65,45,29
91,142,51,-117,20,96,62,170,155,44,37,28
46,91,44,-69,1,67,45,152,125,23,37,30
53,91,37,-72,8,64,40,127,118,30,25,26
67,99,33,-83,17,66,78,101,89,4,6,14
60,82,22,-71,19,52,85,60,48,-38,-36,-22
43,56,13,-50,15,34,69,49,38,-44,-61,-52
71,73,2,-72,34,37,68,33,26,-76,-71,-59
22,15,-7,-18,14,4,51,-14,-32,-123,-99,-85
17,1,-15,-9,16,-7,28,-14,-38,-99,-81,-69
61,39,-22,-50,41,8,26,-10,-41,-105,-81,-76
26,-6,-32,-9,29,-19,16,-38,-62,-139,-119,-101
58,29,-29,-43,43,0,40,-25,-46,-115,-109,-77
12,23,11,-18,0,17,65,5,-45,-101,-107,-80
123,163,40,-144,42,101,122,56,8,-50,-52,-33
87,171,83,-129,2,127,203,93,28,-24,-21,-4
-95,25,120,35,-108,72,180,45,-8,-87,-88,-71
68,146,78,-108,-6,112,121,2,-9,-73,-70,-47
116,149,33,-133,41,91,36,-65,-55,-94,-74,-45
76,43,-33,-60,55,5,-49,-135,-109,-155,-124,-113
146,25,-121,-85,133,-48,-69,-125,-129,-147,-124,-95
78,-72,-150,-3,114,-111,-80,-152,-158,-197,-167,-132
26,-119,-144,47,85,-131,-83,-175,-168,-215,-179,-177
37,-101,-137,32,87,-119,-78,-158,-162,-202,-175,-158
0,-131,-131,65,66,-131,-72,-149,-152,-215,-190,-155
-1,-124,-124,63,62,-124,-53,-132,-138,-196,-175,-151
9,-102,-110,47,60,-106,-29,-127,-132,-192,-173,-163
72,-24,-96,-24,84,-60,4,-114,-126,-178,-157,-120
62,-24,-86,-19,74,-55,2,-115,-121,-174,-153,-126
-7,-92,-85,50,39,-88,-15,-126,-135,-182,-161,-176
-42,-127,-85,85,22,-106,-45,-145,-160,-209,-189,-147
27,-58,-85,16,56,-71,1,-123,-157,-217,-177,-141
44,-41,-85,-1,65,-63,33,-79,-139,-202,-134,-141
50,-34,-84,-8,67,-58,4,-105,-130,-195,-153,-129
-2,-81,-79,42,39,-80,24,-127,-138,-192,-171,-140
2,-74,-76,37,39,-75,1,-114,-95,-158,-158,-117
46,-27,-73,-10,60,-49,-7,-127,-102,-159,-165,-127
-11,-80,-68,46,29,-74,10,-113,-138,-182,-156,-148
6,-59,-65,27,36,-62,25,-121,-141,-185,-152,-161
7,-54,-61,24,34,-57,35,-106,-125,-175,-136,-144
105,51,-55,-78,80,-2,54,-61,-69,-123,-100,-84
-29,-79,-50,54,11,-65,60,-105,-108,-162,-147,-127
-20,-64,-44,42,12,-54,45,-73,-88,-142,-125,-105
-7,-46,-39,26,16,-42,11,-95,-104,-157,-141,-119
-67,-100,-33,84,-17,-67,1,-121,-136,-195,-169,-156
-33,-63,-30,48,-1,-46,4,-85,-95,-164,-132,-122
-69,-96,-28,83,-20,-62,-1,-83,-95,-167,-128,-124
76,51,-25,-63,50,13,50,-49,-65,-129,-94,-78
-41,-62,-22,51,-10,-42,31,-99,-110,-159,-137,-111
-92,-111,-19,101,-36,-65,-17,-111,-119,-175,-148,-124
24,0,-23,-12,24,-11,6,-79,-88,-166,-113,-87
15,-12,-28,-1,21,-20,38,-103,-118,-162,-139,-117
-28,-59,-31,44,2,-45,16,-107,-114,-160,-146,-117
31,-7,-38,-12,35,-22,23,-84,-101,-182,-123,-106
80,40,-40,-60,60,0,50,-91,-80,-158,-133,-102
10,-30,-40,10,25,-35,18,-107,-93,-158,-153,-115
13,-27,-40,7,27,-33,-4,-104,-144,-190,-149,-144
-12,-52,-40,32,14,-46,-10,-105,-136,-188,-150,-138
-15,-56,-41,36,13,-49,-18,-105,-129,-179,-150,-128
29,-12,-40,-9,35,-26,-25,-106,-122,-173,-150,-123
9,-28,-37,10,23,-32,-13,-97,-111,-166,-143,-115
24,-9,-33,-7,28,-21,-30,-81,-109,-142,-122,-93
84,54,-30,-69,57,12,-5,-60,-80,-126,-107,-75
-32,-56,-24,44,-4,-40,-6,-91,-118,-181,-151,-127
-61,-92,-30,77,-15,-61,-50,-119,-150,-210,-178,-160
-5,-46,-41,26,18,-44,-26,-101,-130,-194,-161,-153
-36,-76,-40,56,2,-57,-45,-92,-123,-188,-152,-148
25,-15,-40,-5,33,-28,-55,-91,-121,-180,-146,-138
7,-28,-35,11,21,-31,-45,-88,-119,-168,-143,-126
-59,-95,-36,77,-12,-65,-45,-91,-121,-164,-143,-119
22,-11,-33,-5,28,-22,-50,-91,-121,-139,-139,-94
72,42,-30,-57,51,6,-13,-67,-97,-130,-124,-81
-46,-76,-30,61,-8,-53,-9,-88,-120,-179,-154,-129
3,-27,-30,12,16,-28,-32,-104,-132,-185,-162,-136
35,-14,-49,-10,42,-32,-14,-82,-115,-167,-143,-110
18,-34,-51,8,35,-42,-54,-84,-109,-163,-152,-118
26,-14,-40,-5,33,-27,-62,-85,-104,-166,-153,-131
14,-19,-33,3,23,-26,-17,-90,-93,-169,-155,-91
58,32,-27,-45,42,3,-10,-99,-78,-179,-164,-75
-43,-38,5,40,-24,-16,8,-49,-64,-135,-121,-91
30,78,48,-54,-9,62,78,25,-20,-49,-54,-35
83,179,97,-131,-7,138,136,56,2,-62,-62,-27
-3,151,154,-74,-79,152,162,54,21,-73,-72,-46
66,180,114,-123,-24,147,112,9,19,-51,-68,-7
80,126,45,-103,17,85,13,-54,-37,-66,-73,-15
29,19,-11,-24,20,4,-87,-116,-91,-116,-102,-67
88,-1,-89,-43,89,-45,-123,-138,-102,-152,-133,-68
93,3,-89,-48,91,-43,-71,-114,-97,-137,-112,-67
7,-98,-105,46,56,-101,-95,-141,-133,-170,-152,-127
14,-121,-135,54,74,-128,-129,-149,-136,-180,-171,-132
42,-58,-100,8,71,-79,-83,-120,-115,-157,-146,-109
72,-28,-100,-22,86,-64,-66,-111,-113,-158,-149,-114
39,-55,-94,8,67,-74,-50,-116,-100,-135,-124,-92
-13,-84,-71,48,29,-77,-53,-106,-103,-142,-134,-106
84,19,-65,-51,75,-23,-22,-32,-63,-104,-92,-66
25,-35,-60,5,42,-48,7,-73,-65,-108,-104,-75
-63,-121,-58,92,-2,-89,-53,-98,-95,-126,-136,-107
20,-33,-53,7,37,-43,-17,-33,-79,-91,-75,-49
2,-47,-49,22,26,-48,-11,-62,-78,-118,-107,-78
41,-14,-55,-13,48,-35,-15,-56,-73,-108,-112,-74
5,-58,-63,27,34,-60,12,-58,-68,-105,-103,-69
59,-1,-61,-29,60,-31,1,-44,-24,-74,-71,-54
71,14,-57,-42,64,-22,15,-58,-50,-83,-72,-54
-69,-124,-55,97,-7,-89,-21,-94,-84,-132,-121,-96
16,-35,-51,9,34,-43,-26,-45,-46,-86,-79,-71
56,7,-49,-32,53,-21,-18,-32,-35,-78,-76,-72
68,22,-46,-45,57,-12,-15,-44,-39,-87,-81,-58
8,-34,-43,13,25,-38,-11,-59,-56,-93,-87,-52
-11,-51,-40,31,15,-46,-4,-40,-38,-79,-80,-42
30,-6,-36,-11,33,-21,-5,-52,-51,-90,-73,-31
76,41,-35,-58,55,3,9,-46,-40,-80,-58,-14
58,32,-26,-45,42,2,33,-18,0,-42,-38,-9
-26,-48,-22,37,-1,-35,-11,-61,-46,-81,-81,-49
49,19,-30,-34,40,-5,13,-39,-22,-62,-57,-29
76,41,-34,-58,55,3,29,-21,-29,-59,-58,-33
38,15,-23,-27,31,-4,1,-61,-54,-61,-69,-49
37,14,-23,-26,30,-4,38,-64,-21,-48,-58,-28
116,71,-44,-93,80,13,33,-46,-20,-45,-84,-16
32,-2,-35,-15,33,-19,17,-46,-29,-61,-85,-41
-61,-94,-33,78,-14,-63,14,-66,-67,-111,-73,-70
1,-18,-20,9,11,-19,31,-12,-31,-78,-77,-61
-18,8,26,5,-22,17,136,42,-84,-145,-143,-102
-128,30,158,49,-143,94,139,103,-78,-141,-172,-142
62,129,67,-96,-3,98,0,56,7,-16,14,4
857,426,-430,-641,643,-2,-725,-179,704,763,876,655
1552,433,-1119,-992,1336,-343,-1441,-382,1201,1232,1396,1144
1490,-217,-1707,-636,1599,-962,-1139,-885,-263,-193,363,599
759,-564,-1322,-97,1041,-943,-467,-923,-1072,-996,-510,-76
38,-400,-438,181,238,-418,226,-371,-606,-627,-532,-287
-312,-299,13,306,-162,-143,747,-99,-455,-483,-459,-306
-339,-176,163,257,-251,-6,893,83,-196,-254,-276,-203
-136,-48,87,92,-111,20,559,55,-125,-178,-200,-137
-104,-83,21,93,-62,-31,134,43,-99,-148,-164,-114
-14,-5,9,9,-11,2,102,103,-25,-116,-119,-54
10,9,-1,-10,5,4,57,105,-18,-115,-129,-28
-101,-97,4,99,-52,-46,-5,108,-30,-92,-118,-66
-78,-83,-5,81,-36,-44,-24,78,-77,-138,-152,-97
-91,-98,-7,94,-42,-52,-49,82,-63,-132,-152,-95
16,-1,-17,-7,17,-9,6,111,-5,-78,-93,-35
-51,-53,-2,52,-25,-27,-14,94,-24,-105,-117,-52
-107,-99,8,102,-57,-45,-17,71,-79,-147,-155,-106
-19,-21,-2,20,-8,-11,10,120,-57,-127,-138,-90
-50,-56,-6,53,-22,-31,-37,109,-55,-125,-136,-94
-13,-29,-16,22,1,-22,1,109,-33,-107,-126,-84
-54,-45,9,50,-32,-18,34,99,-25,-98,-126,-77
-79,-31,49,55,-64,9,59,134,-1,-80,-106,-61
2,76,74,-39,-36,74,141,227,82,-28,-49,5
-82,54,136,14,-109,95,165,247,97,-22,-37,31
7,180,174,-94,-84,177,239,291,128,41,-7,55
52,204,152,-128,-50,177,181,249,134,45,11,71
-124,-9,115,66,-120,53,-1,158,43,-56,-84,13
-18,38,57,-10,-38,47,-66,172,38,-76,-97,-30
-26,-28,-2,27,-12,-15,-135,171,11,-108,-83,-56
2,-20,-22,9,12,-21,-97,176,-1,-88,-77,-51
15,1,-14,-8,15,-7,-52,186,51,-53,-59,-45
-54,-64,-10,60,-22,-37,-41,208,66,-55,-83,-44
35,32,-3,-33,19,14,-30,262,125,-1,-7,23
4,13,10,-9,-3,12,-40,268,131,5,17,43
-21,2,23,9,-22,13,-27,316,165,8,11,37
-20,27,47,-4,-34,37,-67,353,209,54,47,71
20,84,64,-52,-22,74,-41,404,265,152,107,121
72,129,57,-100,7,93,-61,490,362,220,176,149
99,147,48,-123,25,97,-93,478,360,213,165,158
115,155,40,-135,37,97,-102,498,399,254,205,190
131,161,31,-146,50,96,-132,522,433,282,236,204
125,143,19,-135,53,81,-91,474,389,257,211,186
121,118,-3,-119,62,57,-71,435,355,226,194,168
151,123,-27,-137,89,48,-57,414,326,193,170,145
147,101,-47,-124,97,27,-21,372,282,146,134,110
148,94,-54,-120,101,19,1,326,222,92,83,73
164,115,-50,-139,107,32,49,314,186,67,68,65
86,43,-43,-64,65,0,88,263,130,17,27,29
52,13,-39,-32,45,-13,84,259,113,18,18,9
71,44,-28,-57,49,8,89,297,140,29,19,25
1,5,3,-3,-1,4,63,257,106,-13,-52,-16
38,83,46,-61,-4,64,92,305,155,52,-45,13
1,68,67,-35,-33,67,136,354,209,87,-28,35
6,69,63,-38,-29,66,123,340,202,74,-3,14
94,165,70,-130,12,117,153,369,234,116,60,53
19,117,98,-68,-40,107,130,339,207,92,35,40
32,144,112,-89,-40,128,117,324,194,79,24,21
4,115,112,-60,-54,113,140,335,207,91,41,48
13,139,126,-77,-56,132,157,339,221,96,53,58
71,194,123,-132,-26,158,160,316,205,92,56,76
-65,38,102,13,-83,70,101,216,107,6,-30,53
-28,65,93,-19,-60,79,115,195,95,-7,-61,8
63,145,82,-104,-10,113,136,199,99,34,-45,4
49,122,73,-86,-12,97,119,168,73,3,-43,-1
4,67,63,-36,-29,64,112,126,51,-41,-51,-33
16,72,56,-44,-20,64,110,108,27,-54,-75,-55
10,61,52,-36,-21,56,125,115,42,-57,-80,-57
-39,7,46,16,-42,26,98,76,-6,-96,-111,-89
5,45,40,-26,-18,42,91,67,-18,-96,-103,-81
26,61,35,-43,-5,47,104,76,-13,-95,-95,-56
-12,18,30,-3,-21,24,92,75,-39,-107,-98,-70
-22,7,30,8,-26,19,102,81,-9,-79,-80,-49
11,41,30,-26,-10,35,125,63,-51,-92,-102,-70
-5,25,30,-10,-17,27,111,20,-55,-97,-104,-80
21,51,30,-36,-5,41,95,17,-47,-99,-107,-76
-86,-58,27,72,-56,-15,70,-9,-106,-139,-142,-128
31,55,24,-44,3,39,74,-4,-66,-106,-115,-92
28,53,25,-41,1,39,119,-2,-65,-110,-119,-92
-111,-90,21,101,-66,-34,111,-61,-85,-128,-133,-106
111,131,20,-121,45,75,119,-23,-41,-83,-88,-53
-58,-38,20,48,-39,-9,99,-63,-96,-134,-139,-107
-40,-25,15,32,-27,-5,77,-66,-101,-140,-145,-109
0,16,15,-8,-7,15,111,-35,-71,-110,-116,-81
-58,-44,14,50,-35,-15,101,-71,-100,-132,-140,-107
65,75,10,-70,28,42,96,-58,-87,-130,-131,-101
-65,-54,10,60,-37,-22,90,-82,-101,-131,-135,-103
3,11,8,-7,-2,9,96,-51,-70,-110,-113,-84
-35,-31,4,33,-20,-13,98,-73,-86,-130,-129,-102
-34,0,34,17,-34,17,115,-80,-97,-120,-121,-94
79,171,92,-125,-7,131,185,16,-8,-46,-52,-34
-58,84,142,-13,-100,113,224,28,-22,-47,-63,-32
-3,177,180,-87,-92,179,258,36,-15,-22,-38,-42
64,218,154,-141,-45,186,212,0,-12,-17,-24,-34
-22,77,99,-28,-61,88,75,-85,-90,-88,-83,-39
50,89,39,-69,5,64,11,-133,-114,-111,-99,-70
18,-30,-48,7,33,-39,-8,-168,-151,-157,-140,-112
-24,-92,-68,58,23,-80,-44,-146,-164,-179,-158,-129
18,-48,-67,15,43,-57,-54,-153,-150,-166,-147,-122
24,-76,-100,26,63,-88,-47,-175,-144,-168,-147,-129
91,1,-90,-46,91,-45,-25,-162,-133,-157,-139,-149
4,-53,-57,25,31,-55,-18,-147,-117,-137,-124,-133
-74,-111,-38,93,-18,-74,-14,-115,-109,-128,-118,-113
-39,-69,-29,54,-5,-48,2,-125,-134,-154,-111,-120
5,-23,-28,9,17,-25,19,-134,-133,-149,-98,-119
-9,-33,-24,21,8,-29,13,-126,-130,-145,-100,-122
9,-12,-22,2,16,-17,22,-125,-118,-134,-83,-106
-9,-29,-20,19,6,-24,44,-115,-115,-133,-130,-105
-19,-39,-20,29,1,-29,26,-114,-98,-117,-104,-84
34,14,-20,-24,27,-3,30,-105,-89,-110,-79,-74
-21,-41,-20,31,0,-30,14,-101,-131,-152,-146,-121
-11,-31,-20,21,5,-25,-26,-129,-113,-129,-124,-106
12,-8,-20,-2,16,-14,-24,-133,-91,-107,-113,-92
18,-1,-19,-9,19,-10,-21,-115,-90,-110,-111,-93
8,-5,-13,-1,11,-8,-22,-107,-88,-106,-109,-92
13,6,-7,-9,10,0,17,-92,-92,-108,-99,-81
-9,-12,-3,11,-3,-7,16,-83,-110,-130,-107,-94
38,43,4,-41,17,23,-4,-77,-119,-139,-74,-55
40,48,8,-44,16,28,14,-109,-112,-132,-55,-47
-25,-18,7,22,-16,-5,17,-108,-115,-135,-91,-85
35,39,4,-37,16,21,-2,-78,-106,-122,-69,-50
-65,-57,7,61,-36,-25,-42,-120,-106,-118,-108,-88
9,25,17,-17,-4,21,-18,-123,-99,-108,-91,-71
91,106,15,-99,37,60,-16,-111,-99,-112,-85,-61
-7,8,15,-1,-11,11,-49,-112,-93,-109,-105,-68
37,50,13,-44,12,31,-36,-76,-90,-110,-97,-52
53,62,9,-58,22,36,-40,-99,-95,-112,-102,-71
49,60,11,-54,19,35,-12,-127,-61,-79,-62,-45
-28,-22,6,24,-17,-8,6,-118,-92,-111,-94,-80
-33,-28,5,30,-19,-12,-23,-113,-115,-133,-106,-88
22,28,5,-26,9,16,-34,-109,-100,-126,-108,-91
-17,-12,5,14,-11,-3,-35,-101,-108,-120,-103,-86
-16,-11,5,13,-10,-3,-8,-98,-103,-117,-90,-69
16,22,6,-20,5,14,-3,-95,-109,-130,-103,-85
25,35,10,-30,8,23,-1,-87,-85,-90,-79,-60
13,23,10,-18,2,17,31,-112,-89,-97,-80,-72
0,10,10,-5,-5,10,1,-99,-121,-132,-85,-67
-5,5,10,0,-8,7,-15,-102,-90,-99,-85,-84
21,31,10,-26,5,20,-23,-131,-80,-91,-78,-113
3,13,10,-8,-3,11,-46,-116,-100,-111,-92,-91
-4,6,10,-1,-7,8,-24,-112,-88,-98,-92,-84
-30,-20,10,25,-20,-5,-52,-129,-111,-124,-109,-100
-13,-3,10,8,-11,3,-44,-107,-102,-115,-101,-90
15,24,9,-19,2,17,-16,-94,-86,-101,-82,-67
-1,11,12,-5,-6,11,-35,-96,-90,-108,-87,-69
30,45,15,-38,7,29,-1,-84,-94,-89,-71,-53
-4,11,15,-4,-10,13,-27,-103,-101,-108,-87,-80
18,33,15,-26,2,23,-7,-85,-66,-86,-66,-88
-9,6,16,1,-12,11,13,-107,-100,-105,-88,-62
-3,11,15,-4,-9,13,-60,-110,-98,-112,-91,-76
3,15,12,-9,-4,13,-75,-85,-61,-82,-53,-68
4,13,9,-8,-3,11,-66,-99,-80,-97,-66,-61
38,43,5,-41,16,23,-44,-110,-99,-107,-90,-88
-36,-28,8,31,-22,-10,-48,-105,-95,-100,-86,-79
8,34,26,-21,-9,30,9,-73,-63,-77,-56,-54
-21,47,68,-13,-45,58,47,-72,-47,-79,-59,-52
-27,90,117,-32,-72,103,82,-40,1,-32,-17,-13
19,195,176,-107,-78,186,161,-22,34,20,26,32
-17,173,190,-78,-104,181,116,-23,11,18,27,25
13,138,125,-76,-56,131,40,-55,-37,-18,-6,14
36,104,68,-70,-16,86,-40,-115,-76,-72,-46,-2
58,43,-15,-51,36,14,-115,-143,-107,-98,-70,-50
22,-51,-72,15,47,-61,-126,-171,-116,-134,-83,-92
79,12,-67,-45,73,-28,-120,-144,-98,-134,-71,-91
68,-20,-88,-24,77,-54,-116,-152,-138,-135,-112,-96
-31,-115,-84,73,27,-99,-100,-168,-126,-146,-116,-111
89,28,-61,-58,75,-17,-62,-88,-88,-76,-67,-53
29,-28,-57,0,43,-43,-74,-123,-116,-104,-105,-73
17,-33,-50,8,34,-41,-44,-113,-102,-100,-69,-71
102,57,-46,-79,74,6,13,-53,-94,-42,-18,-10
-63,-103,-40,83,-11,-71,-58,-131,-118,-114,-89,-80
-62,-97,-35,80,-13,-66,-68,-126,-117,-117,-91,-90
7,-23,-31,8,19,-27,-40,-98,-97,-92,-73,-68
-29,-55,-26,42,-1,-40,-60,-105,-99,-106,-85,-81
6,-17,-23,6,14,-20,-65,-96,-96,-96,-77,-71
-18,-34,-15,26,-1,-25,-69,-88,-85,-100,-80,-77
-6,-24,-17,16,6,-21,-38,-98,-98,-103,-82,-75
72,60,-12,-65,41,24,-17,-75,-61,-76,-59,-57
-2,-20,-19,12,8,-20,-31,-98,-95,-106,-78,-69
-58,-70,-12,64,-22,-41,-25,-88,-109,-122,-101,-95
-46,-17,30,31,-38,6,81,-16,-135,-143,-125,-127
-105,28,133,38,-119,80,131,57,-134,-143,-162,-140
-14,82,96,-34,-55,89,-11,29,-97,-74,-42,-48
690,398,-292,-544,491,53,-672,-179,538,582,687,513
1510,550,-961,-1029,1235,-205,-1346,-268,1176,1086,1197,970
1548,-141,-1689,-703,1618,-915,-1151,-818,-161,-144,272,394
907,-550,-1458,-178,1183,-1004,-546,-1065,-1136,-1002,-557,-218
80,-406,-486,163,284,-446,140,-520,-702,-678,-550,-345
-343,-326,17,335,-180,-154,666,-236,-529,-508,-448,-356
-348,-183,164,266,-256,-10,817,-75,-270,-299,-262,-240
-223,-103,120,163,-172,9,510,-53,-193,-193,-196,-149
-71,-24,47,48,-59,11,120,-16,-202,-151,-189,-109
-84,-30,54,56,-69,12,52,23,-130,-149,-148,-120
-48,-11,37,29,-43,13,30,-33,-127,-153,-115,-108
0,42,42,-21,-21,42,38,12,-72,-99,-87,-76
-58,-26,32,41,-45,3,-15,26,-92,-127,-109,-86
-75,-44,31,60,-52,-7,-59,26,-106,-154,-122,-104
-111,-72,39,91,-74,-17,-34,-2,-99,-158,-114,-100
-13,33,45,-10,-29,39,15,27,-83,-149,-101,-84
-68,-15,52,41,-60,18,45,43,-103,-163,-124,-112
-97,-43,54,70,-76,6,17,12,-80,-116,-99,-80
-3,53,55,-25,-29,54,16,13,-58,-96,-76,-64
-151,-96,55,123,-102,-21,-19,-15,-128,-169,-142,-126
-115,-61,54,87,-84,-4,-12,-5,-101,-131,-112,-95
-34,28,62,3,-49,45,26,16,-79,-107,-87,-81
-58,14,72,22,-65,43,21,24,-88,-125,-92,-84
-53,17,70,18,-61,43,12,40,-72,-106,-79,-72
-43,30,73,7,-58,51,9,50,-80,-112,-79,-69
-9,66,75,-29,-42,71,1,67,-66,-107,-68,-70
-44,36,80,3,-62,58,8,69,-63,-121,-84,-99
-94,6,100,44,-97,52,25,89,-47,-102,-84,-92
-133,-29,104,80,-118,37,8,91,-56,-86,-97,-93
-34,73,107,-20,-71,90,-7,88,-38,-69,-76,-56
-14,113,127,-50,-70,119,13,147,35,-59,-54,-47
-132,0,132,66,-132,66,-5,184,16,-70,-72,-64
-27,113,140,-43,-83,126,-50,179,30,-13,-48,-4
-31,118,149,-44,-90,133,-37,168,63,-9,-27,-5
-37,123,160,-43,-99,141,-35,210,94,27,19,-2
-35,135,170,-50,-102,152,-61,250,145,68,40,24
-1,180,181,-90,-91,180,-57,270,167,84,79,68
51,277,226,-164,-88,252,-50,336,236,150,142,112
30,286,256,-158,-113,271,-13,409,309,201,183,148
92,378,286,-235,-97,331,47,508,414,298,281,238
69,388,320,-229,-126,354,75,551,472,342,310,266
183,474,291,-329,-54,382,26,508,451,348,322,261
142,365,223,-254,-41,294,-107,406,402,312,309,220
108,255,147,-182,-20,201,-210,283,279,202,211,168
144,227,83,-186,30,155,-265,204,186,144,161,118
100,139,39,-120,30,89,-251,175,152,102,128,78
154,163,8,-159,73,85,-176,167,115,64,74,73
109,105,-4,-107,56,50,-148,124,84,-2,18,13
93,81,-12,-87,52,34,-150,135,62,-56,-17,-29
118,127,8,-123,55,68,-101,181,62,-28,-24,-37
88,126,38,-108,25,82,-74,180,79,-20,-29,-39
25,71,45,-48,-10,58,-88,164,67,-35,-52,-51
8,90,82,-49,-37,86,-74,156,77,-21,-52,-57
-13,100,113,-43,-63,106,-77,170,111,13,-44,-27
12,128,116,-70,-53,122,-67,147,91,29,-42,-19
37,187,150,-112,-57,168,-68,148,103,44,-31,2
2,172,169,-87,-84,170,-64,184,120,61,-13,21
59,222,163,-140,-52,192,-19,156,113,32,1,29
6,165,159,-86,-77,162,-32,159,78,46,25,2
-80,73,153,3,-117,113,-50,148,15,31,24,-49
11,158,148,-85,-69,153,-26,98,46,-15,-13,-10
4,146,142,-75,-69,144,-33,69,33,-24,-32,-9
8,145,137,-77,-65,141,-24,47,3,-36,-33,-19
16,151,134,-84,-59,142,-26,39,-4,-28,-37,-24
24,160,135,-92,-56,147,-54,43,2,-41,-35,-35
83,214,131,-148,-24,172,-51,54,21,-54,-21,-5
27,156,130,-91,-52,143,-53,8,-28,-51,-43,-34
26,156,130,-91,-52,143,-8,29,3,-42,-31,-20
-47,77,124,-15,-86,100,-25,42,-17,-62,-57,-53
-9,110,119,-51,-64,114,-48,-17,-66,-58,-74,-71
55,169,114,-113,-29,141,-24,-7,-45,-49,-46,-40
-23,85,108,-32,-66,96,-33,-17,-53,-83,-75,-70
22,123,102,-73,-40,112,0,-17,-41,-65,-55,-46
-22,80,102,-29,-63,91,6,-48,-65,-78,-66,-62
-67,38,105,14,-86,72,20,-50,-57,-95,-75,-88
9,114,105,-62,-48,109,6,-35,-46,-86,-57,-75
35,140,105,-88,-35,122,-8,-75,-82,-93,-89,-82
-9,96,105,-44,-57,100,22,-55,-65,-87,-89,-81
-24,81,105,-29,-64,92,-3,-81,-90,-115,-76,-74
-24,74,98,-25,-61,85,-29,-104,-121,-133,-97,-86
-5,86,91,-41,-48,88,-20,-99,-112,-128,-87,-74
-40,44,84,-2,-62,64,9,-100,-117,-132,-91,-79
-60,16,77,22,-69,46,-18,-87,-115,-129,-125,-113
45,112,68,-79,-12,90,-34,-96,-111,-128,-115,-99
15,84,69,-50,-28,77,-18,-91,-105,-118,-110,-94
-51,28,80,12,-66,54,-48,-106,-96,-113,-105,-88
-9,71,80,-31,-44,76,-44,-106,-92,-106,-99,-81
6,86,80,-46,-37,82,-30,-88,-83,-98,-93,-73
-51,29,80,11,-66,54,-31,-89,-81,-97,-93,-72
-3,77,80,-37,-42,78,-6,-95,-96,-72,-102,-87
-21,57,78,-18,-49,67,-39,-100,-87,-96,-98,-83
-78,-7,71,43,-75,32,-47,-81,-85,-94,-79,-66
20,84,63,-52,-22,73,-25,-81,-72,-79,-78,-67
-6,74,80,-34,-43,76,-59,-101,-77,-117,-103,-91
-41,56,97,-8,-69,76,-37,-96,-97,-112,-94,-84
-50,42,91,4,-71,66,-37,-83,-74,-99,-85,-81
-66,22,88,22,-77,54,-36,-79,-89,-88,-77,-75
-23,63,85,-20,-54,74,-11,-70,-76,-80,-68,-73
-36,43,79,-3,-58,61,-34,-63,-45,-77,-57,-63
-25,54,79,-15,-52,66,-45,-60,-46,-75,-48,-39
2,75,73,-39,-36,74,-30,-46,-51,-68,-71,-53
-49,27,76,11,-62,51,-55,-90,-96,-85,-80,-67
-28,48,75,-11,-52,61,-32,-95,-74,-80,-67,-57
-6,68,74,-31,-40,70,12,-63,-44,-40,-62,-53
4,124,120,-64,-58,122,7,-59,-39,-43,-59,-54
16,170,154,-93,-69,161,110,19,46,32,25,33
-69,130,199,-31,-135,164,179,53,55,68,64,68
4,249,246,-126,-122,247,176,13,38,42,31,51
-17,212,229,-98,-123,221,104,-60,14,39,34,39
-13,150,163,-69,-88,157,0,-81,-25,12,22,24
40,109,69,-75,-15,89,-79,-118,-62,-41,-34,9
-75,-58,17,66,-46,-20,-150,-172,-113,-105,-97,-71
70,72,2,-71,34,37,-97,-134,-82,-44,-72,-35
-12,-29,-17,21,3,-23,-107,-160,-116,-82,-92,-62
-24,-85,-61,55,19,-73,-121,-157,-113,-121,-97,-99
37,-8,-45,-14,41,-26,-78,-108,-65,-63,-58,-45
-136,-137,-2,137,-67,-69,-54,-100,-70,-76,-67,-57
60,52,-8,-56,34,22,20,-87,5,7,10,11
-12,-16,-3,14,-4,-10,-12,-81,-25,-20,-17,-14
-156,-157,-1,156,-77,-79,-31,-68,-65,-73,-55,-52
-57,-57,0,57,-29,-28,-19,-85,-44,-40,-29,-30
-52,-53,-1,53,-26,-27,-47,-89,-75,-70,-70,-68
-29,-43,-14,36,-7,-28,-4,-46,-29,-24,-27,-26
-24,-42,-17,34,-3,-29,19,-44,-20,-14,-14,-10
31,19,-12,-24,21,4,33,-36,-10,-10,-5,4
-49,-60,-11,54,-19,-35,-14,-59,14,19,20,28
-96,-100,-4,98,-46,-51,-41,-86,-36,-30,-35,-29
-7,-11,-4,9,-2,-7,-8,-51,-28,-29,-26,-28
11,18,7,-15,2,12,-8,-57,-11,-24,-1,1
6,27,21,-17,-7,24,24,-48,8,-23,-8,-3
-54,-46,8,50,-31,-19,29,-48,1,-15,-32,-24
-9,5,14,2,-11,9,18,-40,-14,-18,-29,-20
-24,0,24,12,-24,12,46,11,22,27,28,33
-67,-36,31,51,-49,-2,49,-1,35,37,30,33
-55,-15,40,35,-48,12,40,-34,-7,19,19,20
-66,-27,39,46,-53,6,35,-42,-37,10,20,28
42,82,41,-62,0,62,22,-23,22,28,13,15
-55,-11,44,32,-49,17,20,-43,2,23,-7,9
-48,-2,46,24,-47,22,28,-77,-15,14,0,21
-17,26,43,-5,-30,35,48,-67,26,35,34,35
-97,-57,40,77,-68,-8,35,-71,-1,10,17,24
-22,16,37,3,-30,26,37,-67,10,15,24,28
-85,-50,35,67,-59,-7,52,-62,19,26,36,40
-33,-2,32,17,-33,14,25,-64,-2,5,11,16
41,71,29,-56,6,50,32,-55,-14,-6,5,6
-30,4,34,13,-32,19,77,-60,-11,-6,36,41
25,60,35,-43,-5,47,83,-47,-11,5,44,49
6,41,35,-24,-15,38,70,-39,12,7,30,35
-108,-73,35,90,-71,-19,43,-80,11,-12,3,8
-37,-1,36,19,-37,17,20,-58,-8,-11,-21,-15
24,64,40,-44,-9,52,40,-43,-9,6,-8,14
-22,18,39,2,-31,28,27,-85,-39,-10,-11,9
-3,39,42,-18,-23,41,31,-73,-29,-1,4,12
-47,-1,45,24,-46,22,54,-67,-23,20,26,20
-41,4,45,18,-43,24,31,-76,-3,9,12,20
-7,38,45,-16,-26,41,26,-59,-8,17,13,11
-63,-18,45,40,-54,13,25,-62,-34,26,20,-16
-77,-32,45,54,-61,7,18,-69,-36,-18,-15,11
-72,-27,45,49,-58,9,16,-36,-32,-16,-17,15
-57,-11,45,33,-51,17,-6,-46,-25,-4,-4,-6
-83,-39,44,61,-63,2,-38,-91,-57,-43,-41,-29
-56,-16,40,36,-48,12,-22,-53,-24,-8,-8,-5
-21,19,40,1,-31,30,-11,-37,-19,11,12,19
-2,38,40,-18,-21,39,-6,-53,-20,14,10,12
-40,1,41,20,-41,20,2,-58,-17,10,7,18
-7,33,40,-13,-24,36,5,-43,-9,6,8,12
28,69,41,-49,-7,55,43,-34,18,46,57,41
-78,-20,58,49,-68,19,22,-87,-57,12,22,23
-40,15,55,12,-48,35,-7,-88,-60,-5,-5,-4
-5,45,50,-20,-28,47,11,-48,-17,25,24,17
3,91,87,-47,-42,89,97,30,40,63,64,60
8,141,133,-74,-63,137,163,68,89,123,118,111
-62,147,209,-43,-135,178,167,47,52,90,89,82
-64,185,250,-61,-157,217,170,31,52,87,88,77
-17,167,185,-76,-101,176,133,-2,39,92,99,89
44,160,116,-102,-36,138,47,-38,11,64,75,73
57,104,47,-81,5,76,-50,-90,-25,27,34,35
-75,-76,-1,76,-37,-38,-116,-134,-124,-81,-61,-60
-27,-18,9,22,-18,-4,-61,-88,-112,-60,-58,-55
15,21,6,-18,4,13,75,-54,-152,-107,-107,-95
-169,-64,105,116,-137,21,55,19,-121,-128,-181,-177
-33,45,78,-7,-55,61,-81,9,-32,1,19,-20
759,412,-348,-585,553,32,-744,-260,605,738,873,640
1507,470,-1037,-988,1272,-284,-1418,-491,1027,1104,1308,1080
1411,-211,-1622,-600,1517,-916,-1131,-937,-393,-276,259,490
748,-537,-1285,-105,1016,-910,-478,-999,-1139,-983,-517,-114
-21,-440,-419,231,199,-429,182,-524,-712,-655,-531,-325
-375,-333,42,353,-208,-145,699,-286,-557,-495,-440,-338
-368,-193,176,280,-272,-8,863,-93,-281,-251,-250,-200
-266,-133,132,199,-199,0,579,-30,-185,-170,-158,-138
-60,14,74,23,-67,43,171,16,-123,-56,-45,-80
-105,-39,66,72,-85,13,41,61,-99,-65,-65,-95
-208,-145,63,176,-136,-40,-15,27,-115,-120,-118,-106
-120,-53,66,86,-93,6,-18,42,-86,-61,-72,-71
-133,-69,64,101,-99,-3,-13,12,-101,-80,-75,-69
-83,-18,64,50,-73,23,-25,19,-72,-83,-65,-62
-43,26,70,8,-57,48,-2,46,-50,-78,-59,-57
-92,-15,77,53,-84,31,-6,49,-41,-68,-60,-59
8,84,75,-47,-33,79,23,65,-32,-50,-37,-37
-64,6,71,29,-68,38,54,93,-61,-84,-70,-69
-118,-47,71,83,-95,12,-11,79,-99,-120,-115,-115
-109,-25,84,66,-96,30,-16,48,-76,-98,-89,-89
-158,-73,85,115,-121,6,19,48,-64,-89,-80,-80
-106,-15,91,60,-98,38,11,43,-59,-83,-78,-77
-37,59,96,-11,-67,77,20,61,-42,-67,-65,-65
-36,60,95,-13,-66,77,32,51,-49,-68,-70,-68
-77,33,110,21,-94,72,54,33,-20,-54,-47,-49
-117,0,116,58,-116,58,20,77,-22,-54,-50,-54
-136,-22,114,79,-125,46,-6,72,-42,-62,-65,-63
-23,92,115,-35,-69,103,30,91,27,-18,-31,-32
-30,93,123,-32,-76,108,38,127,50,-15,-35,-37
-83,45,128,19,-106,86,23,116,40,-19,-19,-28
-34,107,141,-36,-88,124,11,130,61,29,27,14
-27,130,156,-52,-92,143,29,160,92,66,56,49
-6,155,161,-75,-83,158,7,183,116,88,81,77
-32,121,153,-45,-93,137,-43,179,114,84,74,85
-56,110,166,-27,-111,137,-38,183,129,90,75,72
-2,187,189,-93,-95,188,7,255,211,160,149,104
47,225,179,-136,-66,202,12,325,290,224,203,178
47,217,170,-132,-62,193,-64,349,313,232,206,190
32,195,163,-114,-65,179,-85,391,346,268,249,185
79,232,153,-156,-37,192,-76,399,373,290,268,195
91,238,147,-165,-28,192,-92,378,390,287,262,189
89,216,127,-153,-19,171,-106,392,399,294,250,174
140,243,103,-192,18,173,-107,392,361,264,245,181
113,213,100,-163,7,156,-117,338,301,201,203,145
109,209,100,-159,4,154,-107,289,271,181,156,98
90,187,96,-139,-4,141,-70,272,230,150,147,95
99,194,95,-147,2,144,-39,263,176,100,116,72
84,179,95,-132,-6,137,8,225,170,125,127,77
-27,92,119,-33,-73,105,-20,173,161,125,123,71
30,157,127,-94,-49,142,-39,173,153,126,119,67
36,180,143,-108,-54,161,-29,168,150,135,113,57
11,185,174,-98,-82,179,-13,157,149,132,110,58
13,189,177,-101,-82,183,-18,182,190,143,130,74
4,221,218,-113,-107,219,15,228,234,175,155,92
44,308,264,-177,-110,286,98,261,281,259,233,183
-22,284,306,-131,-164,295,95,273,302,268,243,198
-21,344,365,-162,-194,355,141,300,287,247,220,175
24,364,341,-194,-159,353,79,226,259,248,224,183
63,344,281,-204,-109,312,-41,108,195,208,200,161
61,290,230,-175,-85,260,-115,72,137,154,159,131
69,219,150,-144,-41,184,-196,6,81,90,106,89
77,191,114,-134,-19,152,-159,-33,49,56,78,53
-1,112,113,-56,-57,112,-149,-15,35,39,63,37
38,117,79,-78,-20,98,-154,-66,-22,-13,10,-1
34,97,63,-65,-15,80,-144,-95,-58,-47,-27,-44
35,125,90,-81,-28,107,-83,-75,-21,-13,13,-5
-16,80,97,-33,-56,88,-33,-66,4,13,38,15
-116,-26,90,71,-103,32,-88,-80,-60,-44,-18,-44
-47,44,90,1,-69,66,-82,-105,-86,-66,-40,-51
-39,45,85,-3,-63,65,-61,-92,-75,-51,-30,-44
1,86,86,-44,-43,86,-60,-62,-55,-30,-4,-24
46,136,91,-91,-23,113,-62,-61,-47,-21,1,-16
-87,3,90,42,-88,46,-98,-114,-111,-88,-65,-79
-50,36,86,7,-69,61,-77,-109,-95,-76,-51,-67
12,96,84,-54,-37,90,-63,-91,-79,-58,-40,-55
-86,-5,81,46,-84,37,-67,-102,-95,-71,-54,-65
-10,69,79,-30,-44,74,-23,-64,-63,-36,-22,-32
-24,51,76,-14,-50,63,-50,-79,-86,-64,-45,-52
-67,7,74,30,-71,41,-64,-91,-94,-78,-55,-60
-68,8,75,30,-71,41,-67,-95,-103,-86,-71,-80
-76,-2,74,39,-75,36,-86,-110,-119,-95,-79,-90
-22,54,76,-17,-49,64,-55,-97,-108,-76,-56,-68
-39,33,72,3,-56,52,-41,-99,-108,-84,-59,-67
-31,39,70,-4,-50,54,-35,-104,-115,-93,-64,-69
37,107,70,-72,-17,88,-20,-86,-91,-74,-47,-53
22,92,70,-57,-24,81,-48,-97,-84,-83,-47,-55
-54,16,70,19,-62,42,-69,-99,-106,-89,-60,-70
36,106,70,-71,-18,88,-22,-60,-66,-51,-30,-37
-98,-23,74,60,-86,26,-65,-107,-105,-94,-71,-76
-114,-39,75,76,-95,18,-83,-113,-115,-95,-69,-86
-24,50,75,-14,-50,62,-43,-94,-88,-73,-47,-61
-70,5,75,32,-73,40,-37,-92,-108,-56,-39,-47
-47,29,75,8,-61,52,-45,-92,-111,-62,-40,-49
-114,-42,73,78,-94,15,-89,-128,-132,-109,-89,-95
-7,62,69,-28,-38,66,-69,-119,-120,-97,-63,-80
9,79,70,-44,-31,75,-34,-104,-108,-94,-57,-57
-67,2,70,33,-69,36,-37,-82,-102,-78,-38,-57
-102,-32,70,67,-86,19,-44,-87,-95,-74,-51,-65
-38,32,70,3,-54,51,-44,-97,-73,-63,-46,-46
-36,34,70,1,-53,52,-41,-99,-90,-68,-11,-56
-92,-22,70,57,-81,24,-24,-83,-87,-57,-44,-45
-36,34,70,1,-53,52,-59,-103,-94,-68,-63,-50
-52,18,70,17,-61,44,-52,-114,-92,-68,-47,-67
-12,57,70,-23,-41,63,-25,-88,-60,-34,-13,-43
-71,1,72,35,-72,37,-76,-109,-109,-84,-55,-72
-84,-8,75,46,-79,33,-59,-113,-97,-71,-58,-56
-40,35,75,2,-57,55,-47,-114,-88,-63,-41,-48
-72,3,75,34,-74,38,-48,-96,-90,-65,-49,-50
-21,55,76,-18,-48,65,-32,-90,-82,-57,-39,-42
-25,49,74,-12,-50,61,-62,-73,-80,-55,-40,-40
-55,17,72,19,-63,44,-84,-76,-77,-50,-39,-39
-73,-7,66,40,-70,30,-54,-91,-81,-50,-44,-51
-36,30,66,3,-51,48,-41,-74,-62,-31,-31,-34
16,75,59,-45,-22,67,-54,-107,-91,-60,-27,-30
-102,-36,65,69,-83,14,-68,-113,-100,-53,-40,-52
-140,-42,98,91,-119,28,-76,-107,-85,-44,-49,-61
-110,-10,100,60,-105,44,-61,-111,-79,-55,-41,-46
-68,33,101,18,-85,67,-54,-95,-67,-44,-34,-39
5,103,98,-54,-47,101,-37,-87,-54,-34,-28,-22
-63,41,104,11,-83,72,-4,-66,-29,-10,-8,0
-5,132,137,-64,-71,134,58,-8,11,35,40,37
-12,183,195,-86,-104,189,107,37,42,71,65,68
-125,133,258,-4,-192,195,135,13,27,69,69,71
-33,193,226,-80,-130,210,104,-38,30,74,73,67
1,167,165,-84,-83,166,-5,-91,-25,32,33,21
20,125,105,-73,-43,115,-94,-125,-94,-25,4,-8
16,63,47,-40,-16,55,-156,-154,-104,-57,-40,-39
-28,13,41,8,-35,26,-163,-184,-135,-84,-78,-74
-26,3,29,11,-28,16,-126,-156,-116,-61,-49,-46
-88,-90,-3,89,-42,-46,-153,-173,-135,-91,-58,-74
-21,-30,-9,25,-5,-19,-114,-133,-100,-61,-36,-58
38,60,22,-49,8,41,-28,-61,-26,8,11,4
-100,-60,40,80,-70,-10,-103,-148,-92,-57,-40,-55
-90,-50,39,70,-64,-6,-105,-143,-84,-53,-41,-56
-24,16,40,4,-32,28,-74,-113,-65,-6,6,-7
-29,15,44,7,-37,30,-86,-123,-72,-32,-17,-31
-79,-33,46,55,-62,6,-64,-103,-57,-50,-41,-50
-57,-18,40,38,-48,11,-69,-101,-63,-36,-15,-35
-11,27,38,-8,-25,32,-48,-83,-41,-34,-25,-34
-34,0,34,17,-34,16,-45,-74,-35,-32,-14,-33
24,53,28,-39,-2,40,-52,-72,-46,-15,8,-14
-41,6,47,17,-44,26,-86,-113,-85,-48,-21,-37
-73,-16,57,44,-65,21,-82,-102,-75,-43,12,-53
-75,-22,53,48,-64,15,-59,-74,-47,-18,-4,-20
-85,-22,64,53,-75,21,-67,-88,-59,-30,-19,-5
-44,22,66,10,-55,44,-34,-55,-22,3,11,-7
-40,22,62,9,-51,42,-32,-52,-31,-6,23,10
25,85,60,-55,-17,72,-15,-51,-65,8,36,20
7,64,57,-36,-25,60,-43,-63,-51,39,-13,-18
-73,-19,54,45,-63,17,-83,-106,-53,0,-17,-26
3,65,62,-34,-29,64,-53,-46,-45,29,30,39
-38,42,80,-2,-59,60,-62,-39,-42,26,28,42
-125,-47,78,85,-101,16,-49,-82,-38,-1,7,11
-28,45,73,-9,-51,59,-48,-79,-32,35,31,32
-35,37,72,-1,-54,54,-45,-81,-40,63,71,52
-23,41,64,-10,-44,53,-7,-47,-24,55,50,30
-1,69,70,-34,-36,69,-40,-73,-42,37,44,7
-62,19,81,22,-72,50,-56,-92,-38,42,56,32
-92,-16,76,53,-84,30,-37,-72,-21,14,26,29
-27,46,73,-10,-50,59,0,-46,-12,27,39,27
-31,39,70,-4,-50,54,-20,-61,-15,26,31,14
-85,-20,66,52,-76,23,-53,-97,-28,-3,7,-12
-60,3,63,28,-61,33,-16,-66,-13,18,30,11
-31,29,60,1,-45,44,-25,-82,-12,35,46,35
45,106,61,-75,-8,83,5,-74,16,51,32,48
-61,-1,60,31,-60,29,-29,-86,-28,39,31,33
-83,-22,61,53,-72,19,-60,-90,-42,17,33,23
31,90,59,-60,-14,74,-18,-66,15,53,54,52
-67,-11,56,39,-61,22,-53,-84,-22,70,69,51
-8,45,54,-19,-31,49,-6,-65,-10,45,46,32
-10,45,56,-18,-33,50,10,-73,49,83,84,68
-107,-53,55,79,-81,1,-48,-73,11,56,56,49
-7,47,54,-20,-31,50,-31,-50,8,46,47,23
-27,34,61,-4,-45,47,-30,-61,0,55,55,49
-35,30,65,2,-50,47,-47,-92,-12,50,48,54
-54,14,67,19,-60,41,-32,-74,41,90,86,50
-69,-8,61,38,-65,26,-24,-84,-4,50,61,40
-20,52,73,-16,-47,62,-2,-47,23,52,41,33
-160,-58,101,108,-130,22,85,5,-56,-44,-48,-49
-166,55,222,55,-194,139,114,87,-35,-11,-67,-69
45,202,157,-124,-56,179,15,88,49,86,76,37
637,389,-248,-513,442,71,-648,-143,661,798,899,640
1418,538,-881,-978,1149,-171,-1405,-317,1340,1483,1608,1269
1412,-130,-1542,-641,1477,-836,-1223,-855,-48,110,658,797
819,-463,-1282,-178,1051,-872,-520,-944,-1016,-862,-303,106
17,-368,-386,176,201,-377,203,-372,-586,-517,-402,-183
-393,-228,165,311,-279,-32,775,-65,-399,-345,-317,-221
-290,75,365,107,-328,220,1052,191,-64,-79,-95,-52
-254,89,342,82,-298,215,786,166,7,26,9,19
-120,135,255,-7,-188,195,290,80,28,69,63,62
-145,36,181,55,-163,108,96,41,16,48,35,38
-72,36,108,18,-90,72,-16,-11,-24,19,14,28
0,36,36,-19,-18,36,-87,4,11,15,6,16
-163,-151,12,157,-88,-70,-105,-56,-86,-60,-57,-54
-96,-117,-21,107,-37,-69,-95,-46,-66,-44,-47,-49
-31,-81,-50,56,9,-65,-46,7,-68,-22,-21,-20
-66,-83,-17,75,-24,-50,-40,13,-79,-21,-22,-21
-88,-93,-5,90,-41,-49,-18,17,-17,-16,-15,-14
-91,-87,4,89,-48,-41,40,58,-19,-22,-24,-23
-103,-87,16,95,-59,-35,23,33,-58,-54,-52,-63
-64,-48,16,55,-40,-16,11,40,-33,-46,-40,-39
-76,-60,15,68,-45,-23,35,87,-21,-33,-30,-30
-148,-134,14,141,-81,-59,7,57,-21,-28,-21,-38
-94,-78,16,85,-55,-30,-7,49,5,-13,-15,-14
-66,-52,14,59,-40,-19,4,76,24,-12,-14,-1
-58,-41,17,49,-37,-12,4,81,26,2,-12,3
-58,-28,31,43,-44,2,18,109,35,31,-7,-3
-142,-97,45,119,-93,-26,-6,123,48,19,-29,-20
-116,-73,44,94,-80,-14,11,128,62,30,-6,-8
-86,-39,47,62,-66,4,64,168,92,68,50,55
-145,-74,71,109,-108,-1,38,160,86,44,30,68
-56,24,80,16,-68,52,72,193,115,71,61,62
-30,61,91,-16,-60,76,112,246,154,120,88,67
-29,74,103,-23,-66,88,109,257,174,132,97,86
-73,45,119,14,-96,82,110,305,233,176,149,128
-124,16,140,54,-132,78,97,315,238,176,140,120
-7,139,146,-66,-77,142,101,350,279,218,178,144
-13,131,144,-59,-79,138,62,389,330,260,222,192
40,175,135,-107,-48,155,51,409,358,280,243,224
41,171,129,-106,-44,150,15,486,455,371,325,277
63,183,120,-123,-29,151,-4,471,453,369,324,262
89,204,115,-147,-13,159,37,460,457,379,338,276
64,167,104,-116,-20,135,22,466,468,397,365,298
143,219,75,-181,34,147,28,395,395,329,311,247
104,155,51,-130,26,103,32,330,354,272,268,208
134,172,38,-153,48,104,62,273,282,218,222,170
30,65,34,-48,-2,49,76,210,196,159,170,129
-1,34,36,-17,-19,35,66,175,155,125,134,107
52,86,34,-70,9,60,84,159,135,109,123,104
-1,35,35,-17,-18,35,95,141,119,88,112,91
61,96,35,-79,13,65,116,178,156,125,113,94
28,72,44,-50,-8,58,84,174,162,126,98,76
22,88,66,-55,-23,77,94,183,177,139,111,69
-51,26,77,12,-64,51,124,237,239,205,163,108
-32,64,97,-16,-65,80,99,226,252,216,173,119
13,124,111,-69,-49,117,89,211,250,215,168,113
-19,101,120,-41,-69,111,85,203,255,221,168,113
14,146,132,-80,-59,139,89,191,267,239,190,137
-46,79,126,-17,-86,102,68,183,256,235,183,134
105,230,125,-168,-10,177,116,208,268,257,213,159
-16,109,125,-47,-70,117,88,142,202,201,167,116
-116,4,120,56,-118,62,33,75,138,140,107,63
37,157,120,-97,-42,139,88,78,141,153,148,105
-71,48,119,11,-95,83,49,34,94,112,104,64
-6,97,103,-46,-55,100,43,18,85,102,87,48
26,116,90,-71,-32,102,47,-1,63,82,80,46
-30,56,86,-14,-58,71,39,-32,43,66,62,31
-61,18,79,21,-71,48,40,-47,38,58,60,32
-9,66,75,-29,-42,70,44,-42,21,59,46,29
-9,58,67,-25,-38,62,54,-73,-6,68,44,26
-88,-22,66,55,-77,22,34,-95,-38,50,30,15
-19,35,54,-9,-37,44,43,-79,-48,52,29,3
-101,-27,74,64,-88,23,44,-86,-38,40,11,-30
-80,50,131,14,-105,90,91,-51,9,58,34,4
-45,122,167,-39,-106,144,145,-9,38,83,62,34
-92,131,223,-20,-158,177,210,-7,54,98,88,58
-51,170,220,-60,-136,195,165,-49,37,92,105,73
13,162,148,-88,-68,155,43,-85,-1,67,102,55
63,158,95,-111,-16,126,-2,-127,-31,38,105,37
-81,-69,12,75,-46,-29,-129,-232,-127,-67,-31,-64
-135,-156,-22,146,-56,-89,-136,-233,-155,-102,-85,-98
-53,-55,-2,55,-25,-29,-72,-181,-116,-59,-36,-65
-30,-76,-46,53,8,-60,-74,-195,-123,-72,-58,-76
-47,-98,-50,73,2,-74,-55,-177,-100,-70,-29,-59
-32,-52,-19,42,-6,-35,-62,-156,-114,-77,-23,-40
-6,-12,-5,9,-1,-8,-48,-148,-110,-60,-27,-40
-68,-48,19,58,-44,-14,-36,-149,-79,-27,-21,-62
-119,-98,21,108,-70,-38,-57,-187,-126,-60,-50,-76
-135,-118,17,126,-76,-51,-46,-190,-130,-57,-46,-71
-140,-125,15,132,-78,-55,-6,-160,-100,-44,-50,-62
-69,-58,11,63,-40,-23,-5,-146,-84,-26,-27,-42
-63,-53,10,58,-36,-21,-40,-150,-86,-39,-27,-47
-59,-45,14,52,-36,-15,-7,-117,-70,-19,-10,-31
-32,-6,26,19,-29,10,16,-144,-97,16,20,-63
-130,-96,34,113,-81,-31,-51,-185,-137,-50,-41,-100
-95,-60,35,77,-65,-12,-40,-158,-101,-57,-48,-65
-84,-49,35,66,-59,-7,3,-170,-101,-51,-46,-68
-88,-53,35,70,-61,-9,8,-156,-76,-34,-29,-46
-85,-51,35,68,-60,-8,-14,-168,-86,-33,-13,-45
-99,-64,35,81,-67,-14,-7,-134,-76,-35,-23,-47
-11,27,39,-8,-25,33,29,-94,-36,33,36,15
-127,-80,47,103,-87,-17,-16,-136,-85,22,34,7
-132,-83,49,107,-90,-17,-24,-122,-90,-23,-18,-36
-34,11,44,11,-39,28,3,-107,-56,-9,6,-30
-81,-36,46,58,-64,5,20,-120,-71,-10,8,-42
-97,-55,42,76,-70,-6,15,-131,-90,-43,-32,-56
-86,-46,39,66,-63,-4,-15,-131,-84,-39,-25,-40
-74,-34,41,54,-57,4,-9,-131,-85,-21,-7,-41
-107,-71,36,89,-71,-18,-10,-130,-87,-22,-13,-36
-99,-64,36,81,-67,-14,1,-119,-71,-3,5,-24
-44,-11,34,27,-39,12,11,-121,-65,-11,6,-31
-44,-12,32,28,-38,10,-14,-120,-71,-26,0,-37
-89,-61,28,75,-58,-17,-19,-131,-81,-19,7,-53
-72,-36,36,54,-54,0,-16,-138,-96,-28,17,-42
-82,-24,58,53,-70,17,-11,-134,-90,-15,46,-32
-98,-45,53,71,-75,3,-24,-147,-90,-23,5,-48
-105,-64,41,84,-73,-12,-47,-145,-89,-44,-31,-47
-79,-42,37,60,-58,-2,-22,-140,-93,-9,6,-24
-23,16,39,3,-31,28,6,-124,-84,17,27,1
-140,-99,41,119,-90,-29,-25,-124,-90,-25,-18,-44
-74,-35,39,55,-57,2,-51,-147,-84,-40,-15,-46
-44,-3,40,24,-42,18,-28,-144,-72,-13,9,-31
-139,-99,40,119,-89,-30,-28,-145,-103,-17,-35,-63
-37,-1,37,19,-37,18,9,-139,-59,31,27,5
-76,-45,31,61,-54,-7,27,-141,-59,38,53,15
-108,-82,26,95,-67,-28,-27,-138,-85,-21,6,-43
-73,-49,23,61,-48,-13,-35,-126,-63,-5,21,-34
-63,-47,16,54,-39,-15,-36,-123,-66,-6,9,-34
-54,-35,19,44,-36,-8,-31,-103,-54,12,22,-23
-72,-41,31,56,-51,-5,-25,-106,-48,23,27,-23
-47,-22,25,34,-36,1,-6,-92,-66,16,31,-8
-73,-57,17,65,-45,-20,11,-97,-73,19,36,14
-51,-40,12,45,-31,-14,-14,-126,-55,16,29,-8
-52,-49,3,50,-27,-23,-25,-117,-71,31,42,-27
-72,-70,2,71,-37,-34,-38,-122,-82,-4,4,-37
13,20,6,-17,3,13,8,-119,-25,35,42,23
-8,6,14,0,-11,10,45,-125,-22,66,81,49
-107,-90,17,98,-62,-36,-2,-125,-61,12,28,2
-51,-14,37,33,-44,11,9,-67,-42,26,35,-1
-23,71,94,-24,-59,82,87,19,32,97,108,64
-106,41,146,32,-126,94,143,40,68,131,144,107
-61,110,171,-25,-116,140,155,22,49,121,138,95
20,164,144,-92,-62,153,128,12,55,129,142,105
-67,21,88,22,-77,55,32,-86,-19,68,87,71
-92,-64,27,78,-59,-18,-67,-139,-68,15,34,24
19,-24,-43,3,31,-33,-85,-129,-60,29,53,25
-67,-120,-53,94,-7,-86,-114,-173,-114,-6,18,0
-50,-115,-65,82,8,-90,-122,-178,-123,-25,-9,-42
36,-63,-100,14,68,-82,-107,-166,-117,-24,36,-53
-43,-127,-84,85,21,-105,-93,-156,-104,-38,24,-43
-31,-88,-57,60,13,-72,-76,-137,-91,-7,11,-44
-85,-121,-36,104,-24,-78,-71,-135,-98,23,35,-38
-74,-106,-32,90,-21,-69,-33,-104,-95,6,33,-21
33,3,-30,-18,31,-13,0,-68,-103,35,51,10
-96,-121,-25,109,-35,-73,-2,-94,-96,42,55,5
-110,-132,-22,121,-44,-76,-31,-99,-88,2,36,-29
-5,-25,-20,15,8,-23,-17,-61,-68,39,59,15
-64,-95,-30,80,-17,-62,-24,-78,-59,14,28,-3
-76,-112,-36,94,-20,-73,-59,-114,-80,-32,15,-50
-83,-123,-40,103,-21,-81,-36,-102,-64,2,50,-26
-59,-96,-37,78,-11,-66,-31,-93,-54,8,42,-8
-16,-50,-34,34,9,-42,-18,-84,-41,24,46,4
-85,-120,-35,103,-24,-77,-19,-77,-42,29,27,-13
1,-28,-30,14,16,-29,-5,-72,-24,31,60,23
16,-14,-30,-1,23,-22,29,-49,1,67,74,33
-84,-112,-28,98,-28,-70,-24,-77,-61,57,37,2
-50,-75,-25,63,-12,-50,-34,-77,-59,55,72,40
-48,-72,-25,61,-11,-48,4,-46,-31,69,77,43
-37,-62,-25,50,-5,-44,8,-51,-43,41,59,24
-73,-97,-24,85,-24,-61,10,-31,-18,49,71,36
-125,-151,-25,138,-50,-88,1,-35,-33,37,56,21
-42,-70,-28,56,-7,-49,5,-21,-1,46,65,30
-18,-48,-30,33,6,-39,3,-58,-26,78,87,54
-70,-101,-31,86,-19,-66,-16,-110,-85,41,62,22
-20,-48,-28,34,4,-38,16,-21,12,58,74,33
-100,-133,-33,116,-33,-83,1,-48,-32,39,51,22
-68,-95,-27,82,-21,-61,-22,-71,-41,35,54,22
-24,-64,-40,45,8,-52,7,-51,-50,35,62,14
-137,-157,-20,147,-59,-88,-5,-40,-30,42,59,9
-102,-93,9,97,-55,-42,88,40,-29,5,22,-19
-167,-83,85,125,-126,1,150,102,-90,-17,-30,-59
-109,-4,105,56,-107,50,63,87,-39,32,40,6
489,254,-235,-372,362,10,-463,-164,331,467,588,430
1338,502,-836,-920,1087,-166,-1258,-272,1163,1193,1318,1041
1539,-76,-1615,-731,1577,-845,-1283,-666,282,307,635,641
1059,-586,-1646,-236,1353,-1116,-684,-997,-1002,-813,-352,-59
214,-517,-731,152,473,-624,1,-517,-693,-593,-412,-236
-339,-440,-101,389,-119,-270,588,-127,-442,-378,-347,-287
-327,-225,102,276,-214,-61,851,84,-231,-186,-170,-161
-341,-252,89,296,-215,-81,621,80,-124,-82,-94,-99
-147,-135,12,140,-79,-61,216,46,-62,-29,-26,-50
-170,-152,17,161,-93,-67,91,90,1,18,42,-21
-255,-265,-10,260,-122,-137,60,21,-71,-5,7,-42
-152,-185,-33,169,-59,-109,35,73,-44,28,18,-41
-194,-228,-34,211,-79,-131,-9,104,-62,23,-7,-45
-117,-146,-28,132,-44,-87,-21,96,-17,26,9,-12
-95,-121,-26,109,-34,-73,-8,100,-19,3,46,9
-179,-200,-21,190,-79,-110,-53,92,-54,-11,36,-17
-103,-124,-20,113,-41,-72,6,98,-12,17,30,-4
-27,-57,-31,42,2,-44,56,145,32,47,54,47
-159,-191,-31,175,-64,-111,-3,116,-9,-1,11,-6
-134,-159,-25,147,-55,-92,0,99,-43,-25,-18,-35
-144,-163,-19,153,-62,-91,6,100,-34,-19,-2,-30
-238,-251,-13,245,-112,-132,20,102,-41,11,24,-11
-185,-165,20,174,-102,-72,89,166,-2,72,82,52
-114,-57,57,85,-85,0,115,195,59,77,83,56
-81,22,103,29,-92,63,193,264,113,114,106,81
-139,5,144,67,-141,74,253,305,172,181,174,145
-100,21,122,39,-111,71,162,236,138,161,158,131
-139,-59,79,99,-109,10,37,165,67,93,99,71
-133,-103,30,118,-81,-37,-57,151,51,83,90,65
-77,-101,-23,89,-27,-62,-92,125,35,53,64,45
-98,-147,-50,123,-24,-99,-36,157,49,67,66,50
-65,-114,-49,89,-8,-81,-2,169,43,77,77,60
-128,-173,-45,151,-41,-108,-56,180,91,70,80,49
-117,-141,-24,129,-46,-82,-59,231,135,116,110,95
-54,-47,7,50,-31,-19,-7,277,168,157,153,127
-142,-125,17,133,-79,-54,-29,342,235,203,192,141
-75,-48,27,61,-51,-10,-29,347,241,210,196,143
42,67,25,-55,8,46,-49,400,304,262,238,182
-63,-46,17,54,-40,-14,-96,396,316,280,252,212
-60,-45,15,52,-37,-15,-96,402,330,283,256,203
34,36,2,-34,16,19,-106,459,390,340,310,228
118,103,-15,-110,66,44,-78,452,377,351,326,240
60,12,-48,-36,54,-18,-111,428,364,325,303,219
20,-58,-78,20,49,-67,-123,386,340,294,287,206
114,22,-92,-68,103,-35,-78,377,308,261,281,196
68,-52,-121,-8,95,-86,-63,364,269,217,248,167
52,-75,-126,12,89,-100,-20,353,219,176,204,135
7,-118,-125,56,66,-121,-13,317,170,131,181,111
63,-58,-120,-2,92,-89,39,325,196,165,180,114
90,-2,-92,-43,91,-47,47,336,206,173,151,118
-53,-132,-78,93,13,-105,32,315,179,143,130,98
-45,-106,-61,76,8,-83,84,344,211,172,155,101
-50,-70,-20,60,-15,-45,80,341,218,175,159,100
-50,-42,8,46,-29,-17,84,358,251,199,164,99
-43,-25,18,34,-31,-3,95,376,268,220,170,107
-50,-8,42,29,-46,17,123,382,282,247,194,119
-63,-6,57,34,-60,25,123,359,269,244,195,120
-48,6,54,21,-51,30,130,349,256,244,204,137
-29,27,56,1,-43,41,142,356,279,266,227,169
-112,-64,48,88,-80,-8,90,289,211,202,169,121
-53,-15,38,34,-45,11,125,283,211,210,180,130
-36,-11,25,23,-31,7,123,246,203,207,188,143
-98,-83,15,90,-56,-34,78,192,154,169,149,114
-54,-52,2,53,-28,-25,104,193,162,177,153,122
-106,-115,-9,111,-49,-62,100,155,133,150,131,95
-108,-133,-26,121,-41,-79,82,150,109,130,119,82
6,-56,-62,25,34,-59,82,134,88,107,106,77
-56,-126,-71,91,8,-98,93,120,74,99,97,74
-87,-159,-72,123,-7,-115,86,118,72,99,97,72
20,-53,-73,17,47,-63,74,102,58,92,87,64
-49,-128,-78,89,15,-103,72,104,60,94,90,66
-163,-227,-64,195,-49,-145,48,64,39,76,70,34
-70,-160,-90,115,10,-125,64,76,55,88,83,44
-13,-143,-130,79,58,-136,103,112,84,115,106,74
-72,-156,-84,114,6,-120,77,75,57,87,84,52
-74,-153,-79,114,3,-116,30,60,40,37,77,2
-79,-159,-80,119,1,-120,68,69,43,74,80,23
-109,-190,-81,150,-13,-136,98,69,50,111,89,62
-104,-193,-89,149,-7,-141,79,53,36,94,61,49
-74,-151,-77,113,2,-114,86,42,18,93,64,59
-102,-207,-106,155,2,-156,42,14,-9,58,64,19
-106,-219,-112,162,3,-165,29,10,8,59,44,10
-80,-187,-108,134,14,-147,63,32,35,68,66,32
-87,-194,-107,141,10,-150,65,35,33,64,69,22
-82,-185,-103,134,11,-144,64,29,36,81,69,25
-52,-158,-107,105,28,-132,68,29,35,80,71,31
-39,-150,-111,95,36,-130,61,22,29,81,68,38
-55,-170,-115,113,30,-143,82,20,14,94,83,30
-111,-231,-120,171,5,-175,73,22,15,97,82,17
-86,-188,-103,137,9,-145,72,27,23,100,72,31
-53,-101,-48,78,-3,-74,158,117,104,157,134,105
-110,-124,-14,117,-47,-69,187,160,134,186,159,122
-51,-7,45,28,-48,19,245,152,127,181,161,124
-70,-10,60,40,-65,24,209,111,145,188,146,126
-95,-98,-3,96,-45,-50,82,38,78,167,107,65
-8,-62,-54,35,23,-58,45,11,43,125,123,64
-28,-181,-152,105,62,-166,-31,-37,9,93,70,40
-69,-266,-197,168,65,-231,-67,-57,-10,80,49,28
-79,-279,-200,180,61,-239,-53,-38,19,73,57,35
-100,-327,-227,213,64,-277,-46,-44,-11,47,19,-2
-2,-210,-208,106,104,-209,-2,-15,12,65,60,33
-33,-230,-197,132,82,-213,17,2,33,81,72,11
-100,-288,-189,194,45,-238,21,-13,1,57,51,-13
5,-174,-179,84,93,-176,44,24,31,87,78,72
-52,-229,-176,141,62,-202,52,25,34,98,81,65
-81,-249,-168,166,44,-208,47,26,35,95,82,46
-92,-257,-165,175,37,-210,37,26,55,96,80,61
-99,-257,-158,178,30,-207,53,14,46,84,70,41
-69,-223,-154,146,43,-188,69,37,53,89,73,44
-146,-292,-146,219,0,-219,63,13,47,72,59,20
-41,-188,-147,115,53,-167,66,32,52,103,85,52
-28,-193,-165,111,68,-178,85,40,67,113,93,65
-98,-262,-165,181,34,-213,88,25,73,108,87,54
-3,-164,-160,83,79,-162,80,73,61,136,117,85
-130,-288,-159,209,15,-223,75,53,55,122,96,53
-76,-231,-155,154,40,-192,71,48,84,142,134,109
-13,-167,-154,90,71,-161,105,82,56,114,146,93
-175,-322,-147,249,-13,-234,105,51,34,86,92,29
-24,-166,-143,95,60,-154,79,57,62,119,96,66
-65,-203,-137,134,36,-169,93,70,80,131,112,76
-92,-223,-131,157,20,-177,92,59,95,136,117,98
-63,-188,-126,126,32,-157,85,58,94,129,116,99
-146,-275,-129,211,-8,-202,64,33,74,112,100,80
5,-136,-141,65,73,-138,89,55,82,140,125,92
-55,-200,-144,128,45,-172,130,91,107,175,154,108
-71,-219,-148,145,39,-183,111,59,83,150,130,91
-94,-242,-149,168,28,-195,102,41,63,137,117,76
-71,-227,-156,149,43,-191,107,48,63,142,116,77
-24,-191,-166,108,71,-178,132,71,91,168,143,106
-121,-286,-165,204,22,-226,147,87,103,178,151,114
-50,-212,-162,132,56,-187,131,66,84,159,136,96
-25,-185,-160,105,68,-172,143,79,93,168,140,100
-31,-190,-159,110,64,-175,142,76,104,178,149,108
-125,-286,-161,205,18,-223,92,17,103,178,162,116
-104,-263,-159,184,28,-211,108,29,96,171,157,110
-59,-220,-161,140,52,-191,144,50,86,160,143,94
-69,-248,-178,159,55,-213,129,43,79,155,134,88
-87,-267,-180,177,47,-224,104,38,66,139,116,70
-92,-267,-175,180,42,-221,95,43,59,137,109,66
-60,-234,-174,147,57,-204,122,62,87,161,149,98
-59,-228,-169,144,55,-199,126,75,89,166,142,95
-72,-243,-171,158,50,-207,93,35,65,135,120,69
-72,-248,-176,161,52,-211,93,50,57,136,114,75
-48,-227,-179,138,66,-203,91,13,55,142,133,80
