I,II,III,aVR,aVL,aVF,V1,V2,V3,V4,V5,V6
-40,384,425,-172,-233,404,-190,-250,-265,-290,-375,-350
-46,379,425,-167,-235,401,-190,-250,-267,-290,-375,-350
-53,372,425,-160,-239,398,-190,-250,-273,-290,-375,-350
-56,365,421,-154,-239,392,-186,-250,-276,-294,-375,-350
-63,357,420,-147,-241,388,-184,-249,-281,-295,-375,-350
-69,351,419,-141,-244,385,-185,-251,-285,-295,-375,-350
-71,344,415,-137,-243,379,-185,-254,-290,-301,-379,-355
-76,338,415,-132,-246,376,-185,-257,-298,-306,-383,-355
-81,333,415,-126,-248,374,-185,-259,-304,-311,-386,-356
-87,328,415,-121,-251,371,-185,-262,-311,-317,-391,-360
-93,322,415,-115,-254,368,-185,-265,-317,-323,-394,-359
-97,317,415,-110,-256,366,-185,-265,-323,-323,-398,-362
-101,314,415,-107,-258,365,-185,-265,-325,-319,-400,-365
-103,312,415,-105,-259,363,-185,-265,-325,-316,-400,-364
-106,309,415,-102,-261,361,-185,-265,-325,-314,-403,-368
-109,306,414,-99,-262,360,-185,-265,-325,-310,-406,-370
-105,304,409,-100,-258,356,-185,-265,-325,-310,-404,-369
-102,300,402,-99,-252,351,-189,-270,-325,-315,-401,-365
-98,300,397,-101,-247,348,-190,-269,-325,-314,-399,-365
-95,298,393,-102,-244,345,-190,-271,-325,-317,-401,-364
-96,295,390,-100,-243,342,-189,-274,-324,-320,-400,-360
-101,294,395,-97,-249,345,-190,-276,-326,-321,-401,-361
-101,299,399,-99,-250,349,-186,-268,-318,-314,-396,-357
-87,316,403,-115,-245,360,-174,-248,-298,-293,-378,-347
-59,348,408,-145,-234,378,-158,-230,-276,-272,-367,-334
-33,376,409,-172,-221,393,-154,-224,-259,-257,-356,-320
-14,393,406,-190,-210,399,-170,-218,-254,-244,-339,-307
-8,394,401,-193,-205,397,-186,-217,-255,-233,-322,-301
-5,399,404,-197,-205,401,-186,-216,-253,-236,-307,-306
14,406,392,-210,-189,398,-176,-206,-246,-247,-312,-314
-31,371,402,-170,-217,386,-178,-217,-255,-258,-315,-321
-80,300,380,-111,-230,340,-162,-221,-266,-265,-342,-328
-88,270,358,-91,-223,314,-168,-272,-320,-279,-380,-337
-61,257,318,-98,-190,288,-155,-238,-307,-279,-369,-340
-53,271,324,-109,-189,297,-171,-270,-325,-293,-375,-352
-30,281,311,-126,-171,296,-163,-244,-321,-295,-361,-353
-24,275,298,-126,-161,286,-167,-256,-317,-303,-367,-364
-167,334,501,-84,-334,418,-184,-339,-380,-292,-358,-370
-94,470,564,-188,-329,517,-164,-166,-148,-106,-206,-248
566,821,255,-693,155,538,-751,-620,-153,481,672,619
1609,760,-849,-1185,1229,-44,-1303,-786,151,1306,1794,1888
1612,285,-1327,-948,1469,-520,-1091,-544,321,957,1109,1516
559,132,-427,-345,493,-148,-588,-636,-404,-102,-250,158
33,118,85,-76,-26,101,-227,-383,-455,-297,-473,-280
-29,168,198,-70,-114,183,-176,-219,-226,-254,-408,-298
-31,205,236,-88,-134,220,-126,-150,-227,-283,-395,-321
-30,205,235,-88,-133,220,-86,-100,-158,-260,-379,-309
-45,217,262,-86,-154,239,-79,-108,-165,-279,-383,-321
-35,211,246,-88,-141,228,-65,-82,-135,-259,-366,-316
-44,221,265,-89,-154,243,-70,-87,-133,-259,-368,-323
-40,218,258,-89,-149,238,-58,-64,-120,-243,-352,-315
-44,225,268,-91,-156,246,-59,-56,-100,-235,-346,-312
-38,230,268,-96,-153,249,-51,-24,-69,-212,-334,-305
-34,237,271,-102,-153,254,-48,4,-38,-195,-327,-300
-31,244,275,-107,-153,259,-42,29,-13,-194,-318,-295
-26,251,277,-113,-151,263,-38,55,33,-160,-289,-290
-26,254,281,-114,-154,267,-34,79,76,-122,-258,-277
-15,266,281,-125,-149,273,-29,124,140,-92,-237,-241
10,299,289,-155,-140,294,-26,187,222,-43,-200,-211
44,339,296,-192,-127,317,-24,247,308,16,-163,-184
81,384,302,-233,-111,343,-25,322,411,80,-115,-146
127,437,310,-282,-92,373,-25,395,524,160,-51,-98
177,505,328,-341,-76,417,-24,455,643,249,26,-49
194,566,371,-380,-89,468,-28,495,762,348,121,24
203,603,400,-403,-99,502,-46,501,848,428,197,94
255,647,393,-451,-69,520,-71,500,883,456,255,143
277,659,382,-468,-53,521,-108,444,873,473,273,185
263,635,371,-449,-54,503,-151,340,806,479,270,204
259,611,352,-435,-47,481,-161,220,650,409,245,187
218,545,326,-382,-54,435,-153,98,446,284,157,117
156,459,303,-308,-74,381,-149,-2,245,143,46,21
97,390,292,-244,-98,341,-142,-84,60,2,-78,-88
48,330,282,-189,-118,306,-137,-134,-70,-102,-176,-169
-4,281,285,-139,-145,283,-132,-141,-144,-166,-235,-212
-44,236,280,-96,-162,258,-124,-139,-184,-207,-283,-257
-37,212,249,-88,-143,230,-116,-144,-196,-237,-297,-276
-41,194,235,-77,-138,214,-107,-145,-197,-246,-293,-279
-53,181,234,-64,-143,207,-101,-144,-200,-244,-298,-285
-50,180,230,-65,-140,205,-104,-141,-203,-245,-300,-288
-48,180,228,-66,-138,204,-105,-138,-206,-245,-300,-294
-44,180,224,-68,-134,201,-105,-136,-201,-246,-297,-293
-48,180,228,-66,-138,204,-105,-132,-196,-240,-293,-287
-57,180,237,-62,-147,208,-105,-130,-192,-233,-290,-284
-69,177,245,-54,-157,211,-105,-130,-188,-225,-287,-279
-80,174,253,-47,-167,213,-105,-130,-182,-222,-283,-274
-79,171,250,-46,-165,211,-105,-130,-181,-225,-280,-271
-76,168,244,-46,-160,206,-105,-130,-189,-225,-277,-270
-76,165,241,-45,-159,202,-105,-130,-197,-225,-275,-270
-71,165,236,-47,-154,200,-104,-131,-205,-225,-271,-270
-67,165,232,-49,-150,198,-101,-134,-213,-225,-270,-270
-62,165,226,-52,-145,195,-98,-137,-219,-229,-274,-272
-53,165,218,-56,-136,192,-96,-140,-226,-235,-279,-277
-45,165,209,-60,-127,187,-92,-142,-232,-240,-283,-280
-36,165,202,-65,-119,183,-90,-146,-239,-246,-287,-283
-46,158,204,-56,-125,181,-87,-142,-246,-251,-293,-288
-63,143,205,-41,-134,174,-85,-139,-252,-256,-295,-289
-74,130,205,-28,-140,167,-85,-140,-255,-260,-295,-286
-81,124,205,-22,-144,164,-81,-136,-255,-259,-295,-283
-84,121,205,-19,-145,163,-79,-135,-255,-262,-295,-280
-85,118,203,-16,-144,159,-80,-135,-255,-265,-295,-277
-86,113,199,-14,-143,156,-80,-135,-255,-264,-295,-274
-90,110,200,-10,-145,155,-80,-135,-251,-262,-291,-277
-93,107,200,-7,-147,153,-80,-135,-249,-258,-286,-280
-99,101,200,-1,-149,150,-80,-135,-250,-256,-281,-280
-104,96,200,4,-153,148,-80,-135,-250,-253,-277,-280
-112,92,204,9,-158,148,-77,-133,-250,-251,-273,-280
-122,87,209,17,-166,148,-70,-125,-249,-249,-269,-280
-127,85,212,21,-170,148,-67,-122,-241,-241,-262,-275
-120,95,216,12,-168,155,-60,-115,-233,-231,-253,-267
-115,104,219,6,-168,161,-56,-110,-219,-223,-248,-262
-110,112,222,-1,-166,167,-49,-105,-197,-212,-238,-253
-88,144,231,-28,-160,187,-56,-100,-184,-198,-227,-249
-61,178,239,-59,-150,208,-54,-102,-177,-186,-213,-237
-49,196,245,-74,-147,220,-63,-96,-161,-170,-192,-206
-39,211,250,-86,-145,230,-120,-100,-168,-162,-184,-200
-33,221,253,-94,-143,237,-117,-88,-159,-156,-192,-210
-45,199,245,-77,-146,222,-93,-105,-173,-159,-201,-218
-54,126,180,-36,-118,153,-59,-93,-194,-202,-203,-224
-79,88,167,-5,-123,128,-53,-106,-230,-243,-216,-235
-82,66,148,8,-115,107,-45,-97,-224,-238,-215,-245
-79,53,132,13,-106,92,-42,-96,-221,-245,-230,-257
-82,50,132,15,-107,91,-46,-114,-246,-248,-229,-258
-98,8,106,44,-102,57,-21,-81,-202,-245,-239,-262
-156,98,254,29,-205,176,-58,-183,-308,-259,-240,-274
-109,215,323,-53,-216,269,51,34,-73,-106,-128,-222
319,532,213,-425,52,372,-392,-261,-1,359,526,417
1354,638,-715,-996,1034,-38,-1118,-727,94,1156,1772,1784
1703,206,-1497,-954,1600,-645,-1066,-501,424,1197,1594,1912
754,7,-747,-380,750,-370,-597,-527,-222,159,155,545
57,-36,-93,-10,75,-65,-153,-333,-477,-323,-339,-157
-77,-36,41,56,-59,2,-47,-93,-184,-226,-269,-198
-86,-2,84,44,-85,41,-23,-52,-171,-223,-247,-224
-63,-7,56,35,-60,25,30,40,-97,-197,-222,-212
-73,18,91,28,-83,54,26,35,-98,-203,-227,-226
-61,12,74,24,-68,43,49,59,-77,-193,-208,-221
-64,27,91,18,-78,59,40,57,-69,-192,-209,-227
-58,29,87,14,-73,58,51,84,-47,-178,-196,-218
-55,38,93,8,-75,65,51,103,-19,-142,-188,-210
-59,39,98,10,-79,68,56,113,-4,-131,-178,-205
-64,33,98,16,-82,65,60,133,24,-124,-166,-195
-61,44,104,8,-83,74,64,155,53,-106,-148,-179
-52,51,104,0,-78,77,71,184,106,-73,-127,-158
-45,64,110,-10,-78,87,73,212,153,-44,-109,-147
-29,81,109,-26,-69,95,80,256,211,-16,-84,-127
-6,109,114,-52,-61,111,77,300,276,26,-50,-109
25,151,125,-88,-50,138,75,351,359,85,-8,-81
54,189,135,-122,-41,162,76,420,453,146,38,-40
91,237,146,-165,-28,192,72,487,563,225,99,-1
126,297,170,-212,-22,233,70,537,675,311,172,58
166,357,190,-262,-12,273,70,582,787,411,265,136
224,417,193,-321,15,305,52,610,885,505,343,203
251,438,188,-345,31,313,19,593,926,559,402,251
252,432,181,-342,35,306,-1,545,930,597,434,298
256,430,174,-343,41,302,-36,463,874,592,441,321
258,425,167,-342,45,296,-66,348,751,545,433,305
213,374,161,-294,26,267,-59,235,565,434,352,247
134,291,158,-213,-12,224,-51,138,355,275,235,163
69,222,153,-146,-42,187,-43,68,185,142,118,67
19,151,132,-85,-57,142,-36,17,51,24,-1,-38
-16,99,115,-42,-66,107,-23,-7,-31,-59,-70,-98
-43,67,109,-12,-76,88,-7,-4,-77,-106,-110,-138
-62,42,103,10,-83,72,-1,-7,-97,-131,-132,-167
-76,23,99,26,-88,61,6,-10,-94,-129,-129,-170
-81,15,96,32,-89,55,12,-10,-96,-130,-132,-170
-79,14,93,32,-86,53,20,-8,-95,-130,-135,-170
-78,10,88,34,-83,49,24,-4,-95,-130,-135,-170
-78,7,85,35,-82,46,21,-2,-94,-129,-133,-169
-76,5,81,35,-79,43,18,1,-90,-124,-127,-166
-72,2,75,35,-74,38,15,4,-91,-126,-122,-163
-70,0,69,35,-70,34,13,5,-88,-122,-119,-160
-63,0,63,31,-63,31,9,5,-85,-120,-113,-158
-64,-4,60,34,-61,28,13,5,-85,-120,-111,-154
-66,-5,60,36,-62,27,15,5,-89,-124,-114,-157
-65,-5,60,35,-62,27,15,5,-96,-131,-117,-163
-70,-10,60,40,-65,25,19,5,-103,-138,-120,-168
-75,-15,60,45,-67,22,20,3,-109,-144,-123,-171
-79,-20,60,49,-69,20,20,-4,-116,-152,-125,-177
-88,-24,64,55,-75,20,20,-9,-122,-154,-128,-180
-94,-29,65,61,-79,18,20,-14,-129,-150,-130,-175
-98,-33,65,65,-81,16,20,-20,-136,-147,-130,-170
-106,-37,69,71,-87,16,20,-25,-143,-145,-130,-166
-111,-40,70,76,-91,15,20,-25,-149,-141,-130,-161
-114,-45,69,79,-91,12,22,-25,-150,-140,-130,-156
-107,-45,63,76,-85,9,27,-25,-150,-143,-130,-157
-102,-46,55,74,-78,4,30,-25,-150,-149,-130,-163
-100,-50,49,75,-75,0,33,-26,-150,-154,-130,-167
-92,-50,42,70,-67,-3,38,-22,-150,-157,-130,-171
-89,-52,36,70,-62,-8,41,-19,-148,-163,-130,-176
-90,-55,35,72,-62,-10,44,-20,-145,-164,-130,-180
-94,-58,35,75,-64,-11,47,-16,-142,-160,-130,-175
-96,-61,35,78,-65,-12,49,-15,-140,-160,-130,-169
-100,-65,35,82,-67,-15,53,-15,-136,-160,-130,-166
-101,-65,36,82,-68,-15,55,-10,-135,-160,-131,-162
-94,-60,34,77,-64,-13,57,-7,-131,-161,-130,-157
-86,-55,31,70,-58,-12,63,-3,-120,-155,-124,-152
-78,-52,26,65,-52,-13,68,0,-110,-145,-115,-144
-69,-44,25,56,-47,-9,71,4,-100,-128,-110,-136
-35,-18,17,27,-26,-1,77,4,-86,-107,-98,-127
-33,7,40,12,-37,24,80,-3,-77,-89,-71,-122
-53,30,83,11,-68,56,62,4,-70,-66,-48,-106
-42,59,102,-9,-72,80,35,-5,-82,-60,-39,-98
-24,82,106,-29,-65,94,44,5,-79,-69,-32,-106
-35,63,98,-13,-67,80,43,-5,-90,-77,-31,-116
-71,-17,54,44,-63,18,48,-2,-91,-87,-52,-123
-79,-74,5,77,-42,-34,56,-4,-93,-119,-93,-130
-81,-86,-6,84,-37,-46,49,-11,-109,-152,-95,-131
-84,-104,-20,94,-32,-62,60,9,-92,-147,-94,-134
-101,-91,10,96,-55,-40,29,-28,-130,-153,-105,-140
-99,-123,-23,111,-38,-73,62,23,-87,-146,-92,-135
-140,-84,56,111,-98,-13,8,-120,-169,-152,-132,-163
-163,-5,158,83,-160,77,74,46,-32,-93,-98,-176
126,281,155,-204,-15,217,-119,-28,122,312,413,271
1018,569,-450,-794,735,60,-854,-627,24,1164,1803,1652
1644,232,-1413,-938,1528,-590,-1002,-473,397,1651,2315,2383
951,-62,-1012,-444,982,-537,-590,-387,101,771,854,1188
162,-128,-290,-17,226,-208,-122,-304,-386,-145,-120,57
-5,-178,-172,92,84,-175,51,-35,-134,-125,-100,-105
-66,-153,-87,110,11,-120,40,2,-46,-93,-122,-120
-80,-178,-98,130,9,-138,121,88,-10,-100,-103,-118
-101,-173,-72,137,-14,-122,114,99,22,-79,-109,-123
-96,-180,-83,138,-7,-131,127,122,37,-86,-104,-126
-81,-158,-77,120,-2,-117,127,127,62,-67,-97,-127
-65,-137,-72,102,4,-104,130,133,61,-70,-93,-132
-50,-128,-79,89,15,-103,137,145,87,-46,-82,-123
-47,-113,-66,80,9,-89,136,152,98,-28,-79,-117
-44,-111,-67,77,11,-88,147,182,132,0,-63,-106
-48,-105,-57,77,5,-81,148,201,161,24,-53,-100
-45,-99,-54,72,5,-76,157,224,199,46,-40,-89
-28,-75,-47,52,10,-61,161,241,240,72,-24,-81
-12,-53,-41,33,15,-47,164,273,291,108,4,-62
1,-28,-29,14,15,-28,158,319,361,151,40,-32
11,3,-8,-7,9,-2,150,369,438,201,82,1
34,47,12,-41,11,29,145,416,527,264,129,34
63,90,27,-77,18,58,137,454,627,341,191,76
98,148,50,-123,24,99,133,501,749,442,270,142
150,230,80,-190,35,155,122,546,859,538,351,198
175,279,103,-227,36,191,109,551,955,640,441,277
216,321,105,-269,55,213,94,549,992,732,527,362
242,343,101,-293,71,222,62,535,991,752,580,406
241,336,96,-289,72,216,25,460,974,751,599,426
241,333,93,-287,74,213,2,371,864,738,580,423
199,282,82,-241,58,182,0,277,690,636,506,381
150,197,47,-174,51,121,9,170,481,462,368,279
72,111,38,-91,17,74,12,110,296,311,229,169
3,41,38,-23,-18,40,27,70,164,187,111,71
-35,-11,24,23,-29,6,52,38,63,89,13,-1
-78,-63,14,70,-46,-24,62,27,11,39,-36,-38
-85,-84,2,84,-43,-40,66,14,-16,5,-67,-75
-83,-94,-11,89,-36,-52,71,9,-24,-7,-81,-93
-75,-104,-29,90,-23,-67,75,11,-28,-12,-92,-96
-67,-107,-40,87,-13,-73,80,7,-35,-20,-101,-99
-71,-111,-40,91,-16,-76,76,5,-40,-28,-99,-102
-74,-114,-40,94,-16,-76,71,5,-45,-34,-101,-105
-79,-119,-40,99,-19,-80,66,1,-41,-31,-99,-104
-79,-119,-40,99,-20,-79,63,0,-40,-28,-101,-99
-73,-114,-41,93,-16,-77,57,0,-40,-26,-97,-96
-64,-109,-45,87,-10,-76,56,-5,-40,-23,-95,-93
-59,-105,-45,82,-7,-75,60,-5,-40,-20,-95,-88
-55,-100,-45,78,-5,-72,60,-6,-42,-22,-91,-85
-50,-95,-45,73,-2,-70,60,-11,-50,-28,-90,-85
-54,-99,-45,77,-4,-72,60,-16,-56,-33,-90,-85
-63,-106,-43,84,-10,-74,60,-21,-63,-37,-97,-85
-70,-110,-39,90,-15,-74,57,-25,-70,-41,-105,-85
-76,-116,-40,96,-17,-78,52,-30,-75,-46,-111,-85
-85,-121,-36,103,-24,-79,49,-34,-81,-51,-119,-87
-92,-126,-35,110,-28,-80,46,-41,-87,-57,-126,-90
-95,-130,-35,113,-30,-82,41,-47,-94,-61,-132,-92
-101,-129,-29,115,-36,-79,40,-54,-101,-68,-137,-95
-110,-133,-23,121,-43,-77,40,-61,-107,-72,-140,-98
-120,-135,-15,128,-52,-75,40,-66,-113,-78,-143,-100
-125,-135,-10,130,-57,-72,40,-70,-115,-80,-148,-103
-137,-138,-1,138,-68,-69,40,-69,-118,-80,-150,-106
-136,-143,-7,139,-64,-74,40,-73,-121,-84,-150,-105
-101,-146,-44,124,-28,-95,36,-75,-124,-86,-150,-105
-88,-149,-61,119,-13,-105,35,-75,-125,-84,-150,-104
-95,-154,-59,125,-18,-106,34,-78,-120,-81,-150,-106
-93,-154,-60,124,-16,-107,31,-81,-120,-76,-150,-110
-90,-150,-60,120,-15,-105,29,-84,-120,-74,-148,-110
-90,-148,-58,119,-16,-103,32,-86,-120,-70,-145,-111
-94,-145,-51,120,-21,-98,37,-90,-121,-66,-142,-111
-96,-141,-45,119,-26,-92,43,-89,-117,-63,-139,-111
-99,-141,-41,120,-29,-91,48,-74,-108,-54,-136,-106
-108,-128,-20,118,-44,-74,53,-62,-102,-48,-135,-95
-104,-98,6,101,-55,-46,60,-56,-88,-40,-126,-88
-89,-77,12,83,-50,-33,53,-64,-76,-34,-114,-78
-62,-53,9,58,-35,-22,40,-61,-66,-26,-101,-68
-34,-24,11,29,-22,-6,-7,-69,-72,-7,-85,-47
-37,-27,10,32,-23,-8,-31,-69,-74,-6,-83,-21
-35,-27,8,31,-21,-9,-13,-70,-75,-14,-85,-30
-60,-66,-6,63,-26,-36,-2,-81,-86,-27,-91,-56
-98,-149,-51,124,-23,-100,21,-65,-87,-54,-124,-90
-93,-144,-51,119,-21,-97,17,-93,-130,-74,-144,-103
-68,-152,-83,110,8,-117,45,-59,-104,-71,-142,-99
-73,-137,-64,105,-4,-100,33,-106,-141,-81,-158,-112
-49,-142,-93,96,22,-118,67,-52,-108,-83,-151,-103
-66,-136,-70,101,3,-103,53,-133,-162,-84,-168,-134
-173,-74,98,123,-135,12,86,-139,-165,-90,-165,-172
-22,123,145,-51,-84,133,9,-40,47,152,98,65
707,534,-173,-620,440,180,-728,-587,-59,942,1272,1192
1575,316,-1259,-946,1417,-471,-1085,-579,406,1765,2331,2338
1293,-173,-1467,-560,1380,-820,-732,-379,409,1197,1267,1629
332,-276,-608,-28,470,-442,-266,-421,-317,27,-70,289
-15,-283,-268,149,127,-275,14,-170,-197,-134,-178,-73
-70,-222,-152,146,41,-187,18,-79,-54,-52,-175,-82
-85,-221,-136,153,26,-178,82,9,-37,-83,-177,-89
-74,-209,-135,141,31,-172,103,45,11,-53,-171,-89
-81,-201,-120,141,20,-160,103,57,-5,-69,-181,-99
-77,-210,-133,144,28,-171,113,73,27,-51,-164,-97
-86,-201,-115,143,15,-157,108,68,22,-57,-161,-98
-84,-209,-125,146,21,-166,118,86,66,-44,-141,-90
-89,-202,-113,146,12,-157,113,84,75,-29,-138,-90
-90,-201,-111,146,11,-156,122,96,92,-8,-123,-84
-86,-191,-105,138,10,-147,123,112,130,13,-118,-81
-80,-179,-99,130,9,-139,127,136,162,26,-108,-74
-74,-168,-94,122,10,-131,132,164,211,50,-85,-51
-56,-144,-88,100,16,-116,134,205,261,75,-55,-35
-35,-116,-81,76,23,-99,139,251,327,116,-16,-19
-15,-89,-74,53,30,-81,140,291,402,153,18,7
-12,-79,-67,46,28,-73,140,340,497,211,63,27
18,-43,-61,13,40,-51,140,424,608,283,121,77
77,29,-48,-53,62,-9,140,478,720,364,180,149
115,81,-35,-98,75,23,139,520,842,463,264,205
156,156,0,-156,78,77,125,557,944,558,351,270
160,196,36,-179,61,116,113,538,1014,656,442,333
177,192,15,-185,81,104,86,526,1048,693,517,386
200,190,-11,-195,105,89,40,483,1022,683,531,424
193,182,-11,-187,102,85,8,377,936,679,537,435
203,185,-18,-193,110,83,-2,267,767,598,503,404
166,109,-57,-137,112,26,4,153,549,438,383,308
110,20,-90,-65,100,-35,8,71,351,273,253,207
50,-40,-90,-5,70,-64,12,14,188,131,132,108
-17,-106,-90,61,37,-98,17,-33,73,24,37,26
-51,-143,-92,97,20,-117,22,-49,1,-41,-11,-18
-79,-180,-101,130,12,-140,30,-52,-35,-79,-49,-60
-87,-202,-114,145,14,-158,35,-54,-41,-101,-69,-77
-91,-215,-125,153,17,-170,43,-58,-43,-113,-79,-81
-89,-223,-135,156,23,-179,48,-60,-46,-117,-90,-87
-81,-215,-135,148,27,-175,51,-60,-49,-114,-90,-92
-73,-209,-136,142,32,-172,54,-60,-51,-115,-90,-99
-50,-202,-152,127,51,-177,56,-60,-50,-115,-90,-98
-38,-195,-157,117,60,-176,60,-60,-50,-115,-90,-93
-43,-191,-148,117,53,-169,59,-60,-50,-114,-89,-90
-50,-194,-144,122,48,-169,52,-60,-50,-109,-85,-87
-60,-197,-137,129,39,-167,47,-65,-50,-106,-86,-82
-68,-199,-131,134,31,-165,42,-65,-52,-103,-83,-80
-69,-203,-134,137,32,-168,36,-66,-58,-99,-80,-85
-71,-205,-134,138,32,-169,31,-71,-63,-95,-80,-85
-78,-207,-129,143,26,-168,33,-69,-67,-99,-84,-85
-89,-214,-126,152,19,-170,36,-73,-72,-104,-86,-85
-97,-220,-123,159,13,-171,39,-76,-75,-108,-85,-85
-107,-225,-118,166,6,-171,42,-74,-82,-113,-85,-87
-114,-229,-115,173,0,-172,44,-79,-89,-117,-85,-92
-116,-234,-118,175,2,-175,47,-80,-96,-122,-86,-95
-116,-238,-123,177,4,-180,50,-80,-102,-124,-91,-98
-117,-243,-125,180,4,-184,50,-85,-107,-128,-96,-103
-119,-249,-130,184,6,-189,50,-85,-113,-130,-100,-105
-120,-254,-133,187,7,-194,50,-85,-116,-133,-105,-100
-122,-259,-136,191,7,-197,50,-85,-121,-135,-110,-100
-125,-265,-140,195,8,-202,50,-85,-125,-131,-106,-100
-130,-269,-139,199,5,-204,50,-85,-125,-130,-105,-100
-122,-265,-142,194,10,-203,50,-85,-125,-130,-105,-100
-111,-257,-145,185,17,-201,50,-85,-125,-130,-100,-102
-107,-251,-144,179,19,-197,50,-85,-125,-130,-100,-107
-95,-244,-149,170,27,-196,51,-85,-125,-131,-100,-110
-88,-237,-149,162,31,-193,55,-84,-123,-135,-100,-113
-94,-238,-145,167,26,-191,55,-80,-119,-137,-100,-118
-109,-254,-145,182,18,-199,55,-74,-121,-141,-101,-121
-122,-267,-145,195,11,-205,55,-71,-117,-143,-100,-111
-116,-261,-144,189,14,-202,55,-66,-114,-147,-100,-98
-103,-249,-146,177,22,-197,52,-61,-115,-133,-96,-87
-100,-233,-133,167,17,-183,48,-61,-99,-103,-89,-78
-107,-210,-103,159,-2,-156,45,-67,-76,-89,-83,-70
-75,-168,-93,122,9,-131,40,-71,-59,-81,-58,-61
-35,-136,-101,86,33,-118,42,-71,-53,-68,-30,-52
-24,-126,-102,75,39,-114,44,-82,-69,-70,-19,-47
-12,-127,-114,70,51,-120,54,-75,-65,-77,-29,-51
-50,-162,-112,106,31,-137,51,-92,-85,-87,-50,-55
-99,-224,-125,162,14,-174,64,-82,-85,-93,-59,-57
-117,-257,-140,187,12,-198,60,-101,-105,-102,-78,-61
-91,-282,-191,187,50,-236,71,-94,-126,-108,-81,-80
-83,-288,-206,186,62,-247,74,-103,-141,-112,-93,-114
-65,-265,-200,165,68,-232,74,-113,-154,-125,-97,-121
-77,-287,-210,182,67,-248,94,-72,-104,-120,-103,-129
-198,-218,-19,208,-89,-118,65,-177,-203,-151,-122,-143
-149,-107,42,127,-95,-32,127,-26,-30,-54,-31,-89
290,247,-42,-268,166,102,-339,-335,-36,454,647,552
1298,404,-894,-851,1096,-245,-1022,-692,155,1403,2012,1933
1668,-102,-1770,-783,1719,-936,-957,-412,633,1537,1938,2133
729,-413,-1143,-158,936,-778,-461,-435,-14,358,386,782
41,-419,-461,189,251,-440,-52,-295,-333,-237,-172,7
-64,-346,-282,205,109,-314,39,-88,-62,-111,-105,-57
-80,-298,-218,189,69,-258,88,-35,-59,-131,-132,-99
-75,-316,-241,196,83,-278,132,27,-7,-105,-102,-91
-93,-297,-204,195,56,-250,131,27,-18,-103,-115,-98
-87,-304,-217,196,65,-260,152,79,9,-94,-96,-97
-95,-293,-198,195,52,-245,145,77,19,-83,-100,-101
-96,-293,-197,195,51,-245,159,80,33,-81,-87,-100
-95,-284,-189,190,48,-236,160,88,63,-66,-67,-92
-93,-275,-182,184,45,-228,167,107,86,-57,-56,-83
-89,-269,-180,180,46,-224,170,140,124,-36,-46,-71
-89,-259,-170,174,41,-214,172,160,149,-23,-39,-53
-83,-252,-169,168,43,-211,176,177,190,-1,-24,-36
-77,-237,-160,157,42,-198,178,201,236,27,-1,-28
-71,-228,-157,149,43,-192,181,239,292,60,24,-14
-49,-206,-158,128,55,-182,183,298,367,100,60,8
-5,-172,-167,89,81,-170,185,363,462,160,104,34
40,-127,-167,43,104,-146,186,425,557,222,147,68
46,-81,-128,18,87,-104,190,496,665,303,217,117
50,-40,-90,-5,71,-64,191,561,788,398,295,171
121,46,-75,-83,98,-15,188,608,901,485,379,244
197,121,-76,-159,136,22,175,615,1004,594,472,312
244,160,-83,-202,163,38,149,618,1059,670,536,369
257,170,-87,-213,172,42,110,578,1058,673,545,409
259,164,-94,-211,176,35,60,476,1008,668,530,409
244,146,-98,-195,171,24,37,366,879,636,534,412
194,90,-104,-142,149,-7,43,244,681,522,479,365
127,16,-111,-71,119,-47,45,144,467,379,358,281
41,-75,-117,17,80,-96,49,65,277,228,231,185
2,-144,-146,71,74,-145,54,3,123,95,115,71
-29,-195,-166,112,69,-180,56,-33,30,13,40,2
-67,-231,-164,149,49,-197,65,-47,-16,-38,-3,-39
-74,-239,-165,157,46,-202,73,-44,-37,-56,-24,-54
-86,-251,-165,169,40,-208,82,-45,-42,-60,-28,-60
-105,-269,-164,188,30,-217,89,-45,-49,-68,-32,-71
-111,-277,-166,194,28,-222,90,-45,-57,-70,-37,-79
-105,-274,-170,190,33,-222,90,-42,-58,-70,-40,-85
-105,-275,-170,190,33,-222,90,-37,-55,-70,-40,-85
-99,-271,-172,186,37,-221,90,-35,-55,-70,-42,-85
-94,-269,-176,182,41,-222,89,-31,-55,-70,-46,-85
-95,-270,-174,183,40,-222,85,-26,-55,-69,-45,-85
-93,-265,-172,179,40,-218,85,-26,-56,-65,-41,-83
-93,-262,-169,177,38,-215,85,-32,-61,-61,-34,-77
-92,-258,-166,176,37,-212,85,-37,-68,-58,-28,-73
-91,-255,-163,174,36,-209,85,-41,-74,-54,-21,-69
-90,-250,-160,170,35,-205,81,-45,-81,-50,-14,-64
-92,-252,-161,172,35,-206,79,-50,-88,-54,-11,-60
-95,-262,-167,179,37,-214,80,-53,-93,-60,-18,-66
-98,-270,-172,184,38,-221,80,-58,-97,-65,-23,-72
-102,-279,-178,191,38,-228,80,-61,-100,-71,-28,-76
-102,-286,-184,194,41,-235,78,-64,-103,-76,-34,-82
-104,-292,-189,198,43,-240,75,-69,-108,-82,-39,-87
-105,-299,-194,203,44,-246,75,-70,-111,-85,-43,-92
-110,-305,-195,208,43,-250,75,-70,-114,-87,-46,-97
-118,-313,-195,216,38,-254,75,-70,-118,-90,-49,-100
-118,-313,-195,216,39,-254,75,-70,-121,-93,-52,-103
-113,-307,-194,211,41,-250,78,-70,-125,-96,-54,-108
-106,-302,-196,204,46,-249,80,-70,-129,-91,-57,-110
-99,-299,-200,199,51,-249,80,-70,-132,-90,-60,-105
-93,-293,-200,193,54,-246,80,-70,-135,-90,-60,-105
-91,-290,-200,191,55,-245,80,-70,-138,-90,-60,-105
-94,-294,-200,194,53,-246,81,-70,-141,-90,-60,-105
-96,-297,-200,196,52,-248,86,-70,-145,-89,-60,-105
-104,-300,-196,202,46,-248,89,-69,-145,-84,-57,-103
-111,-302,-191,207,40,-246,93,-63,-141,-79,-52,-97
-120,-306,-187,213,34,-246,97,-59,-138,-75,-48,-92
-118,-300,-183,209,33,-241,101,-54,-136,-70,-42,-86
-107,-285,-178,196,36,-231,96,-51,-129,-66,-39,-80
-87,-255,-167,171,40,-211,90,-45,-108,-54,-30,-75
-64,-217,-153,140,44,-184,85,-48,-81,-31,-21,-68
-48,-190,-141,119,47,-165,77,-52,-70,-5,-3,-56
-31,-182,-150,107,60,-166,78,-47,-67,8,16,-52
-22,-176,-153,99,66,-164,77,-59,-75,3,21,-58
-7,-173,-166,90,80,-169,86,-49,-71,2,19,-61
-28,-195,-167,112,70,-181,81,-64,-79,-3,21,-67
-71,-251,-180,162,55,-215,93,-52,-95,-33,6,-69
-96,-287,-191,191,48,-239,86,-67,-135,-67,-32,-76
-89,-313,-224,201,68,-268,93,-58,-137,-66,-27,-78
-88,-316,-228,203,70,-272,89,-64,-137,-71,-34,-85
-91,-294,-204,193,57,-249,87,-74,-158,-76,-25,-88
-87,-307,-220,197,67,-263,100,-57,-128,-73,-25,-95
-178,-246,-68,212,-54,-157,71,-182,-196,-91,-30,-122
-137,-145,-8,141,-64,-76,155,5,-18,30,53,-84
322,208,-114,-265,217,47,-323,-289,37,523,728,582
1359,310,-1049,-834,1204,-369,-1010,-659,221,1402,2001,1930
1740,-166,-1907,-787,1823,-1036,-938,-366,543,1379,1767,2005
753,-402,-1156,-175,955,-779,-457,-407,-93,286,304,649
41,-425,-466,193,254,-445,-43,-280,-364,-124,-162,-31
-49,-384,-335,217,143,-359,53,-56,-87,-53,-91,-70
-74,-346,-272,210,99,-309,107,-1,-74,-87,-83,-100
-75,-357,-281,216,103,-319,144,77,-20,-57,-58,-84
-89,-332,-243,211,77,-287,132,70,-20,-64,-66,-95
-76,-339,-262,208,93,-300,155,93,10,-44,-48,-87
-92,-325,-233,208,71,-279,148,97,24,-39,-49,-92
-96,-323,-227,210,66,-275,161,125,34,-30,-36,-89
-87,-313,-226,200,69,-269,159,150,55,-26,-28,-82
-78,-301,-223,190,72,-262,165,175,69,-21,-18,-78
-72,-294,-222,183,76,-258,169,200,112,8,-6,-71
-62,-280,-218,171,78,-249,171,215,149,26,5,-63
-54,-274,-220,164,83,-247,180,243,187,49,23,-44
-50,-259,-210,155,80,-234,185,273,218,67,44,-30
-41,-245,-204,143,82,-224,193,315,285,99,69,-17
-10,-208,-198,109,94,-202,199,360,357,140,98,4
28,-160,-188,66,108,-174,200,415,427,188,140,38
39,-138,-177,50,108,-157,201,497,525,263,181,73
79,-83,-163,2,121,-123,205,568,641,348,246,117
122,-16,-138,-53,130,-77,206,633,769,446,331,180
142,35,-107,-88,124,-36,203,674,887,538,417,248
186,100,-85,-143,135,8,178,658,980,621,494,312
246,157,-88,-201,167,34,147,655,1020,675,544,374
284,185,-99,-234,191,43,117,639,1033,687,591,411
274,168,-106,-221,189,31,73,551,980,698,608,418
249,131,-118,-190,183,6,49,438,841,654,576,421
215,78,-137,-146,176,-29,50,312,648,532,486,365
150,2,-148,-76,149,-73,50,200,420,373,352,261
78,-74,-152,-2,115,-113,50,123,234,230,231,168
15,-143,-158,64,87,-150,51,61,103,125,133,71
-32,-196,-163,114,66,-179,67,38,13,44,65,1
-62,-231,-169,147,53,-200,85,41,-36,-7,24,-35
-71,-245,-174,158,52,-210,95,44,-67,-36,3,-59
-72,-256,-184,164,56,-219,105,47,-71,-41,-1,-65
-79,-268,-188,174,55,-227,115,50,-70,-43,-6,-68
-80,-265,-185,173,53,-225,120,49,-70,-46,-12,-70
-83,-265,-182,174,50,-223,120,45,-70,-49,-18,-73
-84,-264,-180,174,48,-221,120,43,-70,-50,-18,-76
-83,-259,-176,172,47,-218,120,39,-65,-45,-13,-71
-86,-260,-175,174,44,-217,120,36,-65,-46,-10,-69
-83,-258,-175,171,46,-216,117,34,-65,-44,-7,-66
-78,-253,-175,166,49,-214,114,31,-65,-40,-2,-64
-75,-250,-175,163,50,-212,111,29,-65,-40,0,-60
-72,-247,-175,160,52,-211,108,30,-67,-42,0,-61
-68,-242,-175,155,54,-208,106,30,-75,-47,0,-66
-64,-240,-176,152,56,-207,103,30,-81,-50,0,-64
-65,-247,-182,156,59,-214,100,29,-88,-53,0,-68
-65,-254,-189,160,62,-221,100,25,-95,-58,0,-70
-65,-261,-196,163,66,-228,100,25,-100,-61,-3,-70
-67,-269,-202,168,68,-235,100,25,-106,-66,-5,-74
-66,-276,-210,171,72,-242,100,25,-111,-73,-5,-75
-83,-283,-200,183,59,-241,103,25,-116,-79,-9,-75
-109,-285,-176,197,34,-230,105,21,-122,-86,-10,-75
-115,-285,-170,200,28,-227,105,20,-127,-92,-10,-75
-121,-288,-168,205,24,-228,105,20,-133,-98,-10,-75
-126,-290,-164,209,19,-227,104,15,-135,-100,-10,-75
-127,-289,-162,208,17,-225,106,15,-135,-100,-10,-75
-127,-286,-159,206,17,-222,110,14,-135,-100,-10,-75
-120,-284,-164,203,22,-224,112,10,-135,-100,-10,-75
-121,-285,-165,203,23,-225,115,10,-135,-100,-8,-75
-119,-284,-165,202,24,-225,118,10,-139,-104,-5,-75
-116,-285,-169,201,27,-227,120,10,-140,-105,-5,-75
-112,-283,-170,197,29,-226,123,10,-140,-105,-5,-75
-105,-273,-168,189,32,-220,129,14,-140,-105,-6,-75
-103,-267,-164,185,31,-215,134,19,-141,-106,-6,-76
-91,-256,-165,174,37,-211,137,22,-137,-102,2,-74
-92,-252,-160,172,34,-206,143,27,-123,-93,11,-66
-80,-229,-149,155,35,-188,144,36,-103,-79,19,-59
-67,-208,-141,138,37,-174,139,52,-76,-65,29,-53
-81,-211,-130,146,25,-170,141,49,-66,-49,40,-43
-30,-167,-137,99,54,-152,126,53,-62,-27,59,-22
5,-128,-133,62,69,-130,88,46,-67,-24,66,-2
10,-126,-136,59,73,-131,92,53,-67,-30,59,0
11,-125,-136,58,73,-130,96,49,-70,-32,48,-14
-56,-186,-131,121,38,-158,99,47,-78,-42,43,-24
-107,-261,-154,184,23,-207,108,49,-96,-61,19,-35
-101,-267,-166,184,33,-216,103,24,-127,-85,-7,-43
-86,-288,-202,188,58,-245,125,54,-106,-98,-9,-45
-102,-267,-164,185,31,-215,105,-4,-151,-113,-18,-58
-81,-300,-219,191,70,-259,148,61,-107,-109,-11,-53
-141,-264,-123,202,-9,-193,107,-42,-187,-127,-31,-80
-202,-176,27,189,-114,-74,185,72,-98,-74,9,-100
63,61,-3,-62,33,29,37,94,133,283,439,282
957,395,-562,-675,759,-83,-732,-545,46,1033,1660,1550
1718,69,-1648,-893,1683,-789,-968,-453,372,1487,2197,2346
1059,-253,-1312,-403,1185,-782,-578,-364,116,724,921,1273
118,-338,-456,111,287,-397,-97,-341,-425,-105,-5,137
-90,-394,-303,242,107,-348,133,-9,-179,-114,8,-31
-111,-292,-181,202,35,-237,127,40,-67,-89,-14,-41
-93,-305,-213,199,60,-259,189,133,-35,-94,0,-39
-90,-277,-188,184,49,-232,190,138,-3,-75,-7,-45
-86,-270,-185,178,50,-227,197,151,-7,-80,-6,-50
-83,-267,-184,175,50,-225,195,166,24,-63,7,-48
-86,-254,-167,170,41,-210,193,163,34,-66,18,-46
-79,-255,-176,167,49,-215,197,188,67,-50,36,-37
-80,-241,-160,161,40,-200,194,201,70,-44,43,-38
-74,-241,-167,158,46,-204,203,228,95,-31,59,-27
-70,-225,-155,148,43,-190,203,226,127,-14,68,-14
-60,-217,-157,139,48,-187,208,244,171,11,84,0
-47,-197,-150,122,52,-174,211,278,215,44,102,16
-28,-172,-144,101,58,-158,215,315,258,77,130,42
-8,-145,-137,77,65,-141,212,355,319,113,161,68
-1,-131,-131,66,66,-131,206,401,395,160,199,96
14,-108,-122,47,68,-115,202,459,490,232,259,123
19,-66,-85,23,53,-75,197,512,593,301,316,168
43,-8,-51,-18,47,-29,193,565,705,392,381,234
117,83,-34,-100,75,24,187,600,815,493,464,288
173,144,-29,-159,101,58,166,590,912,581,543,348
216,185,-31,-200,123,77,137,578,977,662,621,414
253,224,-29,-239,141,97,108,568,983,680,667,472
250,219,-30,-234,140,94,78,524,948,689,670,487
238,208,-29,-223,133,89,69,427,849,682,672,486
215,180,-34,-197,124,73,75,312,663,569,606,462
122,77,-45,-99,83,16,81,220,469,427,484,363
37,-16,-53,-11,45,-34,86,150,290,284,366,255
0,-63,-63,32,32,-62,91,98,139,144,240,157
-45,-116,-71,81,13,-94,102,69,44,52,148,84
-83,-162,-79,123,-2,-121,115,60,-17,-9,107,39
-96,-187,-91,142,-3,-139,124,54,-48,-35,85,8
-110,-202,-92,156,-9,-147,130,47,-60,-46,62,-3
-119,-207,-88,163,-15,-148,135,40,-60,-58,49,-16
-119,-204,-85,162,-16,-145,140,35,-61,-60,46,-20
-124,-205,-81,165,-21,-143,147,39,-65,-60,40,-20
-126,-205,-79,165,-23,-141,149,43,-65,-63,37,-20
-131,-205,-74,169,-28,-139,144,46,-63,-66,30,-20
-133,-204,-71,168,-30,-137,140,50,-60,-64,35,-20
-133,-199,-67,166,-33,-133,138,55,-60,-61,58,-20
-136,-201,-65,169,-36,-132,133,53,-60,-60,70,-20
-140,-197,-58,168,-41,-127,130,46,-60,-59,69,-20
-120,-195,-74,158,-23,-134,134,39,-61,-55,70,-20
-91,-196,-105,144,7,-150,135,32,-66,-55,69,-20
-98,-191,-94,145,-2,-142,135,25,-73,-57,71,-21
-103,-190,-87,147,-8,-138,139,20,-79,-62,66,-26
-98,-190,-91,144,-3,-141,141,20,-86,-65,48,-30
-96,-185,-89,141,-3,-137,138,20,-93,-68,38,-32
-94,-184,-90,139,-1,-137,135,20,-95,-73,33,-37
-96,-186,-90,141,-3,-138,135,20,-98,-75,25,-40
-101,-190,-89,146,-6,-139,133,20,-101,-69,19,-37
-107,-190,-83,149,-12,-136,129,18,-104,-63,12,-34
-113,-190,-77,151,-18,-133,130,14,-106,-59,8,-31
-117,-190,-73,154,-22,-131,134,15,-109,-53,3,-28
-124,-190,-66,157,-29,-127,135,11,-115,-47,0,-25
-132,-194,-61,163,-35,-127,135,10,-119,-42,-3,-26
-132,-195,-63,164,-34,-129,139,10,-124,-36,-8,-30
-127,-195,-68,161,-29,-131,140,5,-128,-29,-11,-30
-124,-195,-71,160,-26,-132,138,5,-133,-22,-14,-30
-121,-195,-74,158,-23,-135,135,4,-135,-16,-19,-30
-115,-194,-79,155,-17,-136,135,0,-135,-10,-22,-30
-109,-188,-79,148,-15,-133,133,0,-135,-6,-26,-31
-110,-181,-71,146,-19,-126,130,2,-135,-6,-31,-31
-112,-174,-62,143,-25,-118,130,9,-136,-4,-27,-31
-112,-168,-56,140,-28,-111,127,17,-127,1,-14,-30
-113,-158,-44,136,-34,-101,122,21,-119,-1,-3,-31
-104,-143,-39,124,-32,-91,120,30,-103,3,6,-28
-103,-129,-26,116,-39,-77,115,24,-83,17,12,-22
-96,-95,0,96,-48,-48,111,23,-74,31,16,0
-68,-55,13,61,-40,-21,111,16,-75,47,14,29
-37,-28,9,32,-23,-9,114,3,-77,52,10,27
-47,-37,10,42,-28,-13,118,-2,-70,45,5,13
-89,-92,-3,91,-43,-47,111,-26,-89,35,1,7
-91,-148,-58,120,-16,-103,121,-13,-110,17,-2,-15
-115,-166,-51,140,-31,-108,108,-44,-148,-13,-10,-52
-130,-206,-76,168,-27,-140,119,-14,-123,-18,-13,-60
-135,-191,-57,163,-39,-124,102,-54,-154,-26,-26,-63
-104,-187,-83,146,-11,-135,115,-23,-134,-35,-25,-68
-121,-185,-65,154,-27,-125,109,-57,-157,-34,-55,-65
-167,-118,50,142,-108,-34,103,-96,-201,-68,-94,-94
-44,35,78,4,-61,56,120,77,45,155,133,56
522,462,-60,-492,291,201,-518,-476,-81,869,1240,1111
1407,365,-1043,-886,1225,-339,-1025,-648,168,1738,2469,2455
1254,-88,-1342,-583,1298,-714,-729,-376,334,1479,1735,1988
356,-189,-545,-83,450,-367,-248,-415,-311,249,218,519
-11,-258,-247,135,118,-252,72,-151,-292,-113,-104,42
-96,-233,-136,165,20,-184,84,-44,-85,23,-54,29
-114,-224,-110,169,-2,-167,118,15,-74,-16,-72,-20
-113,-224,-111,169,-1,-167,156,70,-14,15,-50,-15
-108,-199,-92,154,-8,-145,144,55,-29,2,-60,-24
-92,-197,-105,145,7,-151,152,76,0,15,-44,-20
-93,-176,-82,135,-5,-129,140,63,-2,15,-48,-27
-85,-175,-90,130,3,-132,143,75,19,24,-35,-24
-90,-165,-75,127,-7,-119,138,79,37,43,-24,-21
-96,-171,-75,134,-11,-122,145,104,74,50,-12,-12
-109,-176,-67,143,-21,-121,147,117,110,65,2,-6
-101,-163,-62,132,-19,-112,149,131,128,81,11,1
-76,-133,-57,105,-9,-95,153,154,172,112,28,25
-53,-104,-50,79,-1,-77,155,182,216,139,49,47
-33,-80,-47,57,7,-63,153,229,278,174,74,62
-9,-54,-44,32,18,-49,148,269,352,218,103,76
29,-15,-43,-6,36,-29,145,316,432,262,151,109
51,37,-14,-44,32,11,142,381,535,328,214,148
69,83,15,-76,27,49,138,441,650,417,285,191
113,143,30,-128,41,86,134,494,756,503,364,256
132,198,66,-165,33,132,120,510,859,592,451,325
160,248,87,-204,36,167,94,512,922,688,529,396
230,308,78,-269,76,193,70,498,925,735,591,455
249,321,73,-285,88,197,36,447,928,734,628,492
256,322,66,-289,95,193,13,362,865,736,625,503
234,293,59,-264,88,176,19,240,703,669,579,469
148,203,54,-176,47,128,24,137,500,512,465,390
84,122,38,-103,23,79,29,55,298,342,313,278
29,50,20,-40,4,35,35,-5,129,192,175,159
-26,-10,15,18,-20,2,40,-44,8,79,83,78
-61,-52,9,57,-35,-21,45,-63,-53,14,19,27
-85,-82,4,83,-44,-39,45,-65,-96,-32,-26,-12
-98,-99,-1,99,-48,-50,46,-72,-116,-62,-42,-37
-98,-106,-7,102,-45,-56,50,-77,-116,-66,-51,-47
-92,-104,-12,98,-39,-58,49,-83,-120,-68,-58,-51
-88,-105,-18,97,-34,-61,53,-83,-122,-71,-64,-56
-81,-105,-24,93,-28,-64,55,-79,-126,-74,-71,-60
-76,-105,-29,91,-23,-67,55,-77,-122,-75,-78,-65
-78,-104,-26,91,-26,-64,55,-74,-120,-70,-78,-61
-85,-100,-15,93,-35,-57,55,-71,-121,-71,-71,-60
-95,-100,-5,98,-45,-52,54,-70,-116,-69,-67,-60
-104,-100,4,102,-54,-48,50,-75,-115,-65,-61,-55
-105,-100,5,102,-55,-47,46,-79,-116,-65,-55,-55
-105,-100,5,102,-55,-47,43,-82,-121,-68,-51,-57
-105,-100,5,102,-55,-47,40,-86,-128,-76,-55,-60
-105,-100,5,102,-55,-47,35,-89,-134,-82,-55,-63
-105,-100,5,102,-55,-47,37,-93,-141,-90,-56,-65
-101,-100,1,100,-51,-49,40,-95,-147,-98,-61,-69
-100,-100,0,100,-50,-51,40,-95,-153,-104,-60,-70
-99,-99,0,99,-49,-49,44,-95,-161,-111,-62,-74
-95,-95,0,95,-47,-47,46,-95,-167,-117,-67,-80
-95,-95,0,95,-47,-47,44,-95,-175,-124,-70,-85
-96,-95,1,95,-48,-47,40,-100,-183,-131,-74,-91
-101,-95,6,98,-53,-44,40,-105,-189,-138,-77,-97
-106,-95,11,100,-58,-41,39,-109,-190,-140,-81,-100
-114,-99,16,106,-65,-41,35,-113,-190,-140,-84,-100
-120,-100,20,110,-70,-40,35,-119,-190,-140,-87,-100
-125,-100,25,112,-75,-37,37,-118,-190,-140,-89,-100
-128,-100,28,114,-78,-36,40,-114,-190,-140,-93,-100
-131,-100,31,116,-81,-35,40,-115,-190,-145,-95,-100
-127,-99,29,113,-78,-35,40,-115,-190,-145,-95,-104
-117,-95,23,106,-69,-36,40,-115,-190,-146,-95,-105
-113,-96,18,104,-65,-39,41,-114,-190,-150,-96,-105
-105,-93,12,99,-58,-40,45,-110,-190,-151,-96,-106
-97,-89,8,92,-52,-40,45,-107,-190,-148,-95,-105
-91,-91,-1,91,-45,-46,46,-102,-182,-139,-95,-105
-91,-77,14,84,-52,-31,50,-101,-173,-131,-77,-95
-88,-42,46,64,-66,2,51,-94,-161,-123,-53,-85
-84,-15,69,49,-76,27,49,-99,-156,-116,-43,-75
-71,12,83,29,-77,47,52,-101,-154,-109,-32,-66
-48,37,85,5,-67,61,14,-105,-154,-99,-22,-58
-45,46,91,-1,-68,68,-10,-111,-157,-99,-17,-36
-34,51,85,-8,-60,67,4,-108,-151,-110,-22,-39
-43,10,52,16,-48,31,-2,-124,-161,-124,-26,-50
-83,-76,7,80,-45,-34,15,-107,-157,-135,-41,-66
-112,-92,20,102,-66,-36,16,-135,-198,-156,-71,-99
-104,-110,-6,106,-49,-57,45,-104,-185,-158,-73,-105
-113,-103,10,108,-61,-47,39,-142,-212,-171,-92,-113
-98,-113,-14,106,-42,-63,57,-111,-204,-177,-93,-111
-118,-120,-2,119,-57,-61,58,-134,-239,-181,-119,-130
-158,-18,140,88,-149,61,60,-229,-317,-210,-140,-172
-43,133,176,-45,-110,154,65,-85,-89,-31,46,-43
504,550,46,-527,229,298,-595,-539,-154,665,1030,895
1482,510,-973,-996,1227,-231,-1134,-647,277,1637,2314,2214
1487,-29,-1516,-729,1502,-772,-862,-374,527,1360,1669,1881
491,-225,-715,-133,603,-470,-357,-458,-265,93,142,479
-9,-213,-205,111,99,-209,-28,-239,-326,-255,-168,-52
-75,-134,-59,105,-8,-97,4,-97,-122,-160,-120,-76
-103,-125,-22,114,-40,-73,64,-27,-132,-192,-132,-94
-98,-124,-26,111,-36,-75,91,10,-74,-154,-118,-90
-95,-107,-13,101,-41,-60,86,6,-93,-164,-133,-103
-84,-111,-27,98,-28,-69,102,36,-62,-143,-109,-99
-80,-95,-14,88,-33,-54,97,32,-58,-141,-96,-110
-73,-97,-24,85,-24,-60,111,57,-31,-131,-78,-108
-77,-86,-9,82,-34,-47,110,61,-11,-123,-75,-101
-84,-83,1,83,-42,-41,117,77,11,-114,-62,-93
-89,-77,12,82,-50,-32,117,100,41,-91,-48,-84
-88,-68,20,78,-54,-24,121,126,78,-73,-35,-78
-80,-55,25,67,-52,-15,124,150,113,-48,-26,-68
-53,-19,34,36,-43,7,125,169,166,-20,-6,-54
-26,11,38,7,-32,24,130,208,235,24,27,-32
-21,27,48,-3,-35,37,135,277,309,76,74,-9
10,66,56,-38,-23,61,140,337,403,125,110,19
42,115,73,-79,-15,93,144,393,482,180,136,52
47,156,109,-102,-31,132,150,454,603,274,210,100
81,220,139,-151,-29,179,145,514,735,373,296,169
133,290,157,-211,-12,223,121,546,846,474,380,243
163,337,174,-250,-6,255,98,537,942,574,469,313
195,381,186,-288,4,283,66,535,973,638,538,371
218,402,184,-310,17,293,21,483,959,659,560,407
216,387,171,-302,22,279,-16,378,885,643,564,399
197,350,153,-274,22,251,-31,275,734,591,541,385
157,291,135,-224,11,213,-26,151,524,459,434,342
91,213,122,-152,-16,167,-19,54,310,289,291,229
22,136,114,-79,-46,125,-13,-10,132,140,162,119
3,82,79,-43,-39,80,-5,-61,2,30,50,29
-13,26,39,-7,-26,32,-1,-81,-78,-44,-25,-43
-53,-19,33,36,-43,7,13,-80,-128,-97,-68,-92
-62,-31,30,47,-46,-1,26,-81,-148,-118,-89,-108
-60,-34,26,47,-43,-4,25,-85,-155,-126,-95,-108
-60,-37,22,48,-41,-8,25,-85,-155,-130,-100,-113
-61,-42,19,51,-40,-11,25,-83,-155,-132,-105,-116
-76,-45,31,60,-53,-7,25,-80,-155,-137,-112,-120
-87,-41,45,64,-66,2,25,-80,-155,-140,-114,-117
-97,-40,57,68,-77,8,20,-77,-159,-136,-110,-114
-100,-40,61,70,-80,10,20,-74,-161,-135,-110,-111
-95,-35,59,65,-77,12,20,-76,-164,-135,-108,-108
-96,-35,60,65,-77,12,20,-79,-167,-130,-105,-105
-94,-34,60,64,-76,12,20,-84,-170,-130,-105,-106
-87,-26,60,56,-73,17,20,-86,-172,-130,-109,-111
-82,-17,65,49,-73,23,20,-91,-176,-130,-111,-110
-83,-18,65,50,-74,23,20,-94,-180,-130,-110,-110
-90,-24,66,56,-78,21,20,-97,-182,-130,-115,-110
-98,-28,70,63,-84,21,20,-104,-187,-130,-115,-110
-99,-29,70,64,-85,20,20,-109,-190,-130,-116,-113
-92,-25,67,58,-79,21,15,-114,-194,-133,-122,-116
-88,-25,63,56,-75,19,15,-120,-200,-139,-125,-119
-83,-25,58,54,-70,16,15,-125,-205,-143,-130,-122
-80,-25,55,52,-67,15,15,-130,-211,-148,-135,-124
-87,-25,62,56,-74,18,15,-130,-216,-152,-138,-127
-101,-28,73,64,-87,22,13,-130,-221,-157,-144,-130
-115,-33,82,73,-98,25,8,-130,-225,-160,-148,-133
-122,-36,87,79,-104,25,5,-130,-227,-164,-153,-135
-129,-39,90,84,-110,25,2,-132,-230,-167,-157,-138
-137,-44,93,90,-115,25,-3,-135,-233,-172,-162,-140
-142,-44,98,92,-119,27,-5,-138,-235,-175,-165,-140
-140,-40,100,90,-120,30,1,-141,-235,-171,-165,-140
-135,-40,95,87,-115,27,6,-144,-235,-170,-165,-140
-132,-41,92,87,-112,25,11,-145,-235,-170,-165,-140
-128,-39,88,83,-108,24,18,-139,-235,-166,-166,-141
-127,-41,86,84,-106,22,23,-133,-236,-166,-161,-140
-112,-32,80,72,-96,23,23,-125,-234,-164,-152,-133
-99,-14,86,56,-92,36,16,-119,-228,-152,-144,-126
-104,7,112,48,-108,59,11,-112,-218,-140,-136,-119
-88,28,116,30,-102,71,7,-111,-195,-130,-128,-112
-65,49,113,8,-89,81,-2,-118,-171,-120,-118,-107
-14,94,108,-40,-61,101,-2,-111,-156,-111,-101,-99
8,116,109,-62,-51,112,-4,-123,-171,-103,-88,-93
6,108,102,-57,-49,105,5,-115,-171,-105,-89,-98
-11,91,102,-40,-56,96,2,-124,-183,-118,-95,-110
-71,30,100,20,-86,65,9,-123,-212,-129,-105,-115
-103,-12,91,57,-97,39,10,-123,-232,-140,-138,-126
-137,-38,98,87,-117,30,9,-133,-251,-149,-147,-127
-161,-73,88,117,-124,8,26,-116,-234,-150,-151,-133
-157,-37,119,97,-138,41,12,-153,-279,-162,-162,-138
-154,-64,90,109,-122,13,47,-102,-234,-159,-158,-139
-184,-9,175,96,-179,83,8,-245,-314,-168,-174,-179
-148,116,264,15,-206,190,82,-136,-226,-133,-143,-178
128,384,256,-256,-64,320,-196,-218,-120,205,277,221
1035,693,-342,-864,688,175,-949,-705,-40,1102,1582,1515
1781,322,-1458,-1051,1619,-568,-1112,-506,544,1575,2060,2210
1091,-83,-1173,-504,1132,-628,-687,-457,125,599,653,1074
171,-114,-285,-28,228,-199,-193,-417,-478,-228,-222,30
-45,-106,-61,76,8,-83,-23,-151,-235,-170,-184,-123
-94,-57,37,75,-65,-10,8,-83,-176,-168,-210,-135
-104,-61,44,82,-74,-9,66,-7,-135,-166,-186,-127
-104,-45,59,74,-81,7,53,-8,-126,-154,-193,-137
-94,-40,55,67,-74,7,78,15,-120,-160,-184,-135
-90,-32,58,60,-74,13,74,23,-103,-143,-179,-133
-88,-18,70,53,-79,26,81,31,-110,-144,-176,-131
-80,-12,68,46,-74,28,84,45,-74,-127,-165,-126
-81,1,82,40,-82,41,87,60,-59,-124,-165,-126
-89,4,93,42,-92,49,92,93,-27,-112,-154,-120
-100,12,112,44,-106,62,94,118,-8,-98,-140,-121
-95,26,122,34,-109,74,100,148,37,-79,-124,-113
-78,48,126,14,-102,87,103,170,92,-43,-114,-98
-58,67,125,-5,-91,96,109,200,130,-21,-98,-84
-21,104,125,-42,-73,114,113,246,206,15,-66,-63
14,139,124,-77,-55,131,126,309,292,68,-31,-38
11,159,147,-85,-68,153,125,385,392,130,12,-7
53,227,174,-140,-61,200,118,460,507,210,76,40
93,282,189,-188,-48,236,113,521,610,276,136,88
109,315,206,-212,-49,260,108,555,734,384,227,143
182,410,228,-296,-23,319,99,553,852,484,316,222
220,462,242,-341,-11,352,70,544,916,552,389,292
221,458,237,-340,-8,348,38,543,927,580,443,351
233,467,233,-350,-1,350,2,478,894,573,434,384
232,460,229,-346,1,344,-41,356,782,569,433,377
196,421,225,-309,-15,323,-51,241,594,475,379,329
129,343,213,-236,-42,278,-43,124,381,323,248,248
74,271,196,-173,-61,233,-38,32,177,176,122,141
12,200,188,-106,-88,194,-32,-25,14,37,3,31
-47,130,177,-41,-113,153,-27,-72,-90,-61,-86,-40
-77,91,167,-7,-123,129,-19,-90,-140,-116,-139,-81
-106,59,165,23,-136,111,-11,-91,-176,-140,-166,-109
-124,41,165,41,-145,102,-3,-95,-190,-152,-173,-133
-125,40,165,42,-145,102,5,-98,-195,-162,-176,-146
-125,39,165,43,-145,101,10,-100,-204,-165,-181,-144
-130,36,165,46,-148,101,10,-100,-210,-165,-185,-145
-128,34,163,47,-146,98,11,-100,-218,-165,-190,-145
-122,36,158,43,-140,97,15,-100,-217,-165,-190,-145
-114,41,155,36,-135,98,15,-100,-215,-165,-191,-143
-106,46,151,30,-129,98,13,-100,-215,-165,-195,-140
-98,50,148,24,-123,98,8,-100,-215,-165,-196,-138
-89,55,144,17,-117,99,2,-105,-215,-165,-192,-135
-107,58,165,24,-136,111,-1,-109,-216,-165,-190,-132
-126,61,187,32,-157,124,-7,-112,-220,-165,-190,-129
-118,64,182,27,-151,123,-10,-116,-223,-167,-187,-134
-112,66,179,23,-146,122,-6,-119,-227,-173,-184,-135
-103,70,174,16,-138,122,-5,-122,-230,-177,-186,-135
-101,69,170,16,-135,119,-5,-127,-235,-181,-190,-140
-111,64,176,23,-144,120,-5,-130,-243,-186,-197,-140
-116,65,181,25,-149,123,-5,-133,-251,-190,-202,-141
-124,62,186,30,-155,124,-7,-138,-259,-195,-208,-146
-133,60,192,36,-162,126,-10,-140,-266,-201,-212,-151
-138,60,197,39,-168,128,-13,-145,-272,-206,-217,-155
-139,64,202,37,-171,133,-16,-145,-279,-212,-221,-160
-142,65,207,38,-175,136,-19,-146,-286,-218,-226,-165
-148,65,213,41,-181,139,-20,-150,-292,-218,-231,-161
-146,70,216,38,-181,142,-15,-150,-299,-215,-234,-159
-152,70,222,40,-187,146,-15,-152,-296,-212,-240,-160
-155,69,224,43,-190,146,-15,-155,-294,-209,-244,-160
-156,64,220,45,-189,142,-15,-158,-295,-205,-249,-160
-147,60,207,43,-177,134,-16,-161,-290,-205,-254,-161
-118,58,176,30,-148,117,-12,-164,-290,-210,-253,-165
-116,53,168,31,-142,110,-10,-165,-289,-210,-248,-167
-128,50,178,39,-153,114,-9,-159,-283,-212,-246,-171
-128,53,181,37,-155,117,-7,-153,-281,-215,-242,-173
-130,62,192,33,-161,126,-3,-145,-274,-216,-237,-177
-144,72,216,36,-180,143,-7,-139,-272,-209,-235,-163
-141,96,237,22,-189,166,-9,-137,-258,-187,-224,-133
-109,132,241,-12,-176,186,-16,-143,-234,-169,-210,-123
-68,167,235,-49,-152,201,-18,-150,-236,-154,-196,-120
-32,193,225,-81,-129,209,-26,-151,-237,-147,-178,-115
-14,209,223,-98,-119,216,-62,-165,-245,-151,-174,-119
4,212,207,-108,-102,209,-57,-157,-243,-149,-182,-130
-30,182,212,-77,-121,196,-44,-168,-254,-150,-187,-138
-87,113,199,-14,-143,155,-20,-148,-257,-168,-195,-147
-123,85,207,19,-165,146,-18,-160,-285,-198,-231,-157
-118,72,190,23,-155,131,-14,-147,-295,-204,-234,-161
-121,58,179,32,-150,118,-12,-141,-290,-209,-236,-169
-120,65,185,27,-153,125,-16,-159,-320,-221,-234,-172
-131,29,160,51,-145,94,3,-115,-280,-218,-227,-181
-181,116,298,32,-240,206,-31,-244,-385,-226,-239,-172
-74,246,320,-86,-197,282,69,-82,-225,-130,-170,-142
276,563,287,-420,-6,424,-361,-343,-111,316,445,436
1318,703,-615,-1010,967,43,-1084,-750,44,1187,1715,1783
1805,259,-1546,-1031,1675,-644,-1080,-515,407,1253,1611,1965
810,8,-801,-409,805,-396,-613,-559,-194,168,156,640
89,-13,-102,-38,96,-58,-152,-404,-541,-324,-337,-80
-70,9,78,30,-74,43,-39,-157,-260,-231,-273,-128
-136,38,174,49,-156,106,4,-98,-239,-251,-293,-164
-125,20,145,52,-135,82,61,-20,-185,-224,-260,-161
-125,55,180,35,-153,117,54,-18,-186,-226,-267,-181
-88,67,155,10,-121,111,78,19,-174,-217,-246,-174
-92,79,171,6,-132,125,70,20,-155,-210,-247,-170
-84,79,162,2,-123,120,84,37,-140,-209,-237,-166
-84,83,167,0,-126,124,85,48,-107,-196,-231,-160
-84,89,173,-2,-129,130,91,57,-97,-185,-225,-158
-83,89,171,-4,-127,130,98,79,-69,-169,-217,-149
-77,103,180,-13,-129,141,102,102,-39,-154,-204,-135
-61,118,178,-29,-120,148,109,140,8,-128,-181,-117
-47,139,186,-46,-117,162,113,175,58,-101,-162,-106
-36,151,188,-58,-112,169,119,214,115,-70,-133,-89
-23,169,192,-74,-108,181,116,273,184,-30,-99,-64
12,209,197,-111,-93,203,111,330,261,20,-62,-33
41,240,199,-140,-79,219,107,398,361,77,-17,3
58,290,232,-175,-87,261,103,466,482,161,44,49
81,359,278,-220,-98,318,98,529,597,255,117,106
118,415,297,-267,-90,356,94,581,716,354,211,175
180,480,300,-330,-61,390,79,585,825,441,291,248
239,531,292,-385,-27,411,58,588,875,502,359,309
265,551,286,-408,-11,418,36,555,873,545,396,345
271,550,279,-411,-4,415,-9,462,831,543,395,357
249,522,272,-386,-12,397,-33,353,710,501,392,369
201,468,267,-335,-33,367,-26,224,514,384,311,323
137,395,259,-266,-61,327,-25,104,297,217,174,214
59,310,251,-184,-96,280,-20,22,106,72,54,110
-9,233,243,-112,-126,238,-17,-27,-28,-40,-46,20
-58,178,236,-60,-147,206,-14,-54,-116,-117,-120,-50
-83,146,229,-31,-156,187,-6,-59,-177,-168,-173,-102
-93,129,222,-18,-158,175,6,-63,-210,-192,-198,-132
-92,124,216,-16,-154,170,14,-68,-216,-207,-204,-135
-87,122,209,-18,-148,165,16,-73,-215,-219,-208,-135
-84,119,203,-18,-143,160,19,-74,-215,-220,-212,-139
-81,116,197,-17,-140,156,22,-69,-215,-224,-218,-140
-80,115,195,-18,-138,155,25,-71,-215,-227,-219,-140
-72,120,192,-24,-132,156,24,-68,-211,-230,-215,-133
-69,120,189,-26,-129,154,19,-65,-210,-230,-212,-125
-67,120,186,-27,-126,152,20,-65,-210,-230,-210,-117
-63,120,183,-29,-123,151,20,-69,-210,-230,-206,-108
-79,119,198,-20,-138,158,20,-76,-210,-230,-205,-107
-89,122,211,-17,-150,167,20,-82,-213,-230,-208,-113
-81,125,206,-22,-144,165,16,-89,-219,-230,-211,-118
-85,125,210,-20,-148,167,15,-96,-224,-234,-214,-121
-93,125,218,-16,-156,171,15,-101,-230,-239,-217,-126
-98,125,224,-14,-161,174,15,-105,-237,-243,-219,-130
-107,124,231,-9,-169,177,15,-104,-244,-248,-222,-130
-117,121,238,-2,-177,179,17,-107,-251,-252,-225,-130
-120,118,238,1,-179,178,20,-110,-259,-257,-225,-130
-119,115,234,1,-177,175,23,-109,-266,-260,-225,-130
-119,112,232,3,-176,172,25,-114,-272,-262,-225,-130
-120,109,229,5,-174,169,28,-115,-275,-265,-225,-132
-113,113,226,0,-170,169,31,-115,-278,-268,-229,-136
-109,115,224,-4,-167,170,26,-119,-281,-270,-230,-134
-110,115,225,-3,-168,170,25,-120,-284,-273,-230,-139
-106,118,225,-7,-166,171,25,-118,-286,-279,-230,-140
-102,121,223,-9,-162,171,20,-115,-289,-283,-230,-140
-99,119,218,-10,-159,168,20,-115,-290,-287,-229,-145
-99,116,215,-9,-158,165,20,-115,-290,-293,-225,-145
-107,113,220,-3,-163,166,20,-115,-290,-294,-225,-145
-110,110,220,0,-165,165,20,-115,-290,-288,-223,-145
-116,108,223,4,-170,165,20,-111,-287,-281,-220,-146
-133,104,237,14,-185,170,20,-105,-278,-275,-221,-142
-138,109,246,14,-192,177,21,-99,-266,-267,-215,-134
-145,127,273,9,-209,200,16,-94,-259,-261,-207,-127
-148,153,301,-3,-225,227,16,-90,-241,-254,-201,-121
-129,181,309,-26,-220,245,12,-96,-228,-241,-194,-112
-95,221,316,-63,-206,268,9,-97,-217,-230,-186,-103
-68,254,322,-93,-195,288,12,-100,-221,-222,-172,-89
-53,278,331,-113,-192,304,13,-106,-235,-224,-155,-63
-40,292,332,-126,-187,312,18,-100,-235,-230,-161,-61
-69,237,306,-84,-188,271,10,-116,-257,-237,-174,-74
-93,157,250,-33,-172,203,21,-100,-250,-250,-184,-92
-129,144,273,-8,-201,208,8,-123,-285,-280,-197,-112
-150,113,262,18,-206,187,25,-101,-282,-310,-203,-127
-172,111,283,30,-227,196,16,-127,-309,-325,-215,-143
-172,113,285,30,-229,199,27,-107,-309,-330,-221,-145
-168,110,278,29,-223,194,33,-107,-306,-337,-228,-144
-209,206,415,1,-312,311,18,-132,-351,-325,-215,-145
-99,323,422,-112,-261,372,72,42,-73,-143,-65,-50
533,701,168,-617,182,435,-540,-462,-112,459,872,880
1511,638,-873,-1074,1191,-118,-1126,-726,108,1234,2033,2187
1423,203,-1220,-812,1322,-508,-871,-503,236,950,1353,1787
522,220,-303,-370,412,-41,-387,-542,-466,-118,-29,398
-10,70,79,-30,-45,74,-25,-278,-476,-413,-277,-105
-204,-25,179,115,-192,77,8,-120,-242,-320,-241,-123
-197,18,215,89,-206,116,39,-58,-224,-339,-252,-128
-204,-14,190,108,-197,88,89,-6,-164,-310,-229,-121
-210,11,221,99,-216,115,77,-18,-171,-312,-236,-129
-197,-9,189,102,-193,90,93,18,-130,-295,-209,-121
-213,7,220,102,-217,113,77,8,-143,-297,-215,-133
