I,II,III,aVR,aVL,aVF,V1,V2,V3,V4,V5,V6
-15,-5,10,10,-12,2,-10,260,310,74,-224,-219
-20,-5,15,12,-17,5,-17,228,277,63,-218,-212
-29,-1,28,15,-28,13,-47,134,185,42,-210,-203
-23,0,23,11,-23,11,-81,55,108,27,-201,-177
-18,-5,13,11,-15,4,-110,-20,35,11,-194,-148
-10,-5,5,7,-7,0,-143,-86,-33,-5,-187,-137
-1,-6,-5,4,2,-5,-152,-115,-67,-22,-181,-128
3,-10,-14,4,8,-12,-149,-144,-98,-38,-174,-117
23,-9,-32,-7,28,-21,-151,-153,-119,-47,-168,-110
23,-13,-36,-5,30,-24,-149,-149,-120,-51,-162,-110
13,-15,-28,1,21,-21,-150,-151,-120,-50,-160,-110
30,-15,-45,-7,38,-30,-146,-145,-120,-50,-160,-110
33,-15,-48,-9,41,-31,-141,-145,-120,-50,-156,-110
25,-15,-40,-5,33,-27,-137,-144,-120,-50,-154,-112
23,-15,-38,-4,31,-26,-132,-138,-115,-46,-155,-116
17,-10,-27,-3,22,-19,-128,-133,-109,-45,-150,-114
19,-10,-28,-4,24,-19,-123,-127,-104,-45,-150,-116
-12,-10,2,11,-7,-4,-121,-121,-98,-40,-149,-114
-30,-10,20,20,-25,5,-117,-116,-92,-40,-144,-118
10,-10,-20,0,15,-15,-115,-111,-93,-39,-146,-125
23,-10,-33,-6,28,-21,-111,-110,-95,-35,-141,-120
16,-10,-26,-3,21,-18,-109,-110,-104,-35,-146,-115
15,-10,-25,-2,20,-17,-114,-110,-115,-35,-155,-111
11,-11,-21,0,16,-16,-115,-110,-116,-35,-147,-106
7,-9,-16,1,12,-12,-115,-111,-113,-35,-140,-103
6,-11,-17,3,11,-14,-115,-119,-121,-40,-135,-97
10,-15,-25,3,18,-20,-115,-121,-134,-38,-126,-92
7,-28,-35,10,21,-31,-116,-114,-127,-32,-128,-89
9,-23,-32,7,21,-27,-120,-111,-117,-29,-133,-84
21,8,-13,-15,17,-2,-120,-106,-109,-24,-123,-80
-8,33,41,-13,-25,37,-119,-101,-81,-19,-112,-76
6,65,58,-36,-26,61,-121,-100,-65,-20,-103,-71
47,82,36,-65,5,59,-121,-97,-64,-20,-99,-68
33,82,49,-58,-8,65,-159,-123,-90,-20,-101,-65
42,73,31,-58,5,52,-192,-155,-118,-21,-96,-60
58,62,4,-60,27,33,-181,-163,-119,-18,-94,-62
90,50,-40,-70,65,5,-173,-155,-131,-26,-97,-66
60,23,-36,-41,48,-6,-151,-157,-152,-26,-86,-67
33,-5,-38,-14,36,-21,-129,-150,-151,-37,-103,-73
24,-36,-60,6,42,-47,-126,-149,-146,-65,-126,-84
-8,-48,-40,28,16,-44,-115,-149,-168,-84,-149,-102
25,-42,-67,9,47,-55,-113,-137,-173,-79,-157,-109
13,-48,-60,18,37,-54,-103,-151,-180,-85,-152,-107
16,-42,-57,13,37,-49,-99,-119,-150,-67,-140,-100
-2,-54,-51,28,25,-52,-97,-161,-177,-69,-135,-97
14,-35,-49,11,32,-42,-75,-24,-35,-2,-125,-89
86,38,-48,-61,67,-5,-46,211,326,323,44,-7
330,114,-216,-222,272,-51,-117,289,523,850,540,339
797,243,-553,-520,675,-155,-476,60,274,1169,1084,826
727,264,-463,-495,595,-99,-726,-682,-647,367,742,761
333,164,-169,-248,251,-2,-604,-972,-1116,-511,65,380
154,44,-110,-98,132,-33,-377,-652,-748,-428,-129,131
24,-73,-96,24,61,-84,-171,-317,-401,-277,-247,-104
-14,-91,-77,53,32,-84,-87,-131,-213,-178,-227,-152
-16,-87,-71,52,27,-78,-64,-108,-165,-121,-206,-139
-23,-85,-62,54,20,-74,-52,-72,-134,-117,-230,-151
-31,-80,-49,56,9,-64,-53,-54,-112,-97,-212,-146
-39,-77,-38,58,0,-57,-42,-35,-108,-101,-226,-154
-38,-75,-38,57,0,-56,-40,-24,-94,-83,-216,-145
-54,-83,-29,68,-12,-55,-33,-17,-91,-83,-222,-146
-53,-87,-34,70,-9,-60,-31,-3,-72,-74,-212,-141
-45,-99,-54,72,5,-77,-27,7,-53,-70,-205,-139
-40,-96,-55,68,8,-75,-25,20,-32,-64,-200,-136
-48,-89,-41,69,-4,-65,-22,31,-13,-58,-191,-134
-55,-85,-30,70,-13,-57,-20,46,8,-44,-187,-131
-34,-78,-44,56,5,-61,-16,74,35,-27,-181,-129
-23,-74,-51,49,14,-62,-9,94,56,-17,-176,-131
-24,-67,-43,46,10,-55,-3,114,78,-4,-170,-130
-18,-61,-43,40,12,-52,4,169,129,17,-166,-131
-18,-54,-37,36,10,-45,11,220,181,40,-160,-128
-13,-47,-34,31,11,-41,20,273,231,66,-160,-125
-11,-41,-31,26,10,-36,30,338,300,111,-159,-125
-6,-36,-29,21,12,-32,41,391,364,134,-155,-125
1,-30,-31,15,16,-30,41,417,391,128,-155,-125
4,-25,-29,10,17,-27,32,423,396,119,-153,-125
11,-19,-31,4,21,-25,24,419,386,110,-148,-118
14,-13,-27,0,21,-20,16,376,338,102,-145,-110
7,-10,-18,2,13,-14,8,312,278,78,-142,-101
-5,-10,-4,8,-1,-7,-14,226,204,47,-137,-95
-22,-10,11,16,-17,0,-44,130,119,32,-135,-83
-24,-9,14,16,-19,3,-74,66,54,18,-123,-56
1,-14,-16,6,9,-14,-88,12,5,7,-104,-32
29,-21,-50,-4,39,-35,-102,-30,-34,-2,-98,-13
21,-24,-46,2,34,-35,-113,-58,-69,-10,-95,1
23,-19,-42,-2,32,-30,-106,-70,-80,-21,-91,12
19,-15,-34,-1,27,-24,-105,-64,-86,-23,-87,17
-1,-34,-32,18,16,-33,-101,-60,-95,-19,-84,11
25,-36,-61,6,43,-48,-99,-55,-87,-21,-80,6
23,-23,-46,0,35,-34,-100,-51,-79,-16,-80,3
10,-17,-27,4,19,-22,-100,-46,-71,-15,-79,-3
25,-7,-32,-9,28,-19,-100,-42,-64,-15,-75,-4
19,-10,-29,-5,24,-19,-100,-39,-60,-11,-75,0
10,-21,-31,6,20,-26,-101,-35,-56,-8,-78,0
9,-21,-30,6,19,-25,-98,-32,-53,-5,-80,5
14,-19,-33,2,24,-26,-95,-27,-48,-3,-80,5
-1,-37,-37,19,18,-37,-93,-26,-45,1,-80,8
-13,-46,-33,30,10,-40,-89,-29,-48,-3,-80,14
-8,-40,-32,24,12,-36,-87,-31,-53,-5,-79,18
-10,-38,-28,24,9,-33,-83,-29,-55,-5,-75,23
1,-33,-33,16,17,-33,-91,-32,-63,-5,-75,27
31,-31,-61,0,46,-46,-104,-45,-73,-5,-74,32
37,-25,-62,-6,50,-43,-106,-43,-68,-5,-70,34
34,-18,-52,-8,44,-35,-104,-39,-58,1,-71,36
43,-7,-49,-18,46,-28,-106,-36,-52,10,-68,33
27,10,-18,-18,22,-4,-103,-30,-43,18,-59,46
38,43,5,-40,16,23,-108,-29,-39,27,-51,64
65,79,13,-72,26,46,-126,0,-34,28,-43,69
51,70,18,-61,16,44,-134,-1,-29,23,-36,81
50,76,26,-63,12,51,-158,-48,-45,17,-39,78
56,92,36,-74,9,64,-176,-61,-48,15,-40,95
66,74,9,-70,28,41,-164,-61,-67,7,-39,119
79,41,-38,-60,58,1,-155,-58,-82,6,-41,107
74,8,-66,-41,70,-29,-145,-63,-91,-3,-38,96
55,-17,-72,-19,64,-44,-134,-57,-95,-13,-50,84
20,-49,-68,14,44,-58,-126,-65,-100,-23,-78,80
6,-65,-72,30,39,-68,-114,-64,-117,-50,-93,72
7,-62,-69,27,39,-65,-106,-64,-122,-38,-81,72
9,-61,-70,26,40,-65,-97,-69,-125,-54,-84,62
16,-47,-64,16,40,-55,-90,-56,-100,-33,-68,63
4,-48,-52,22,28,-50,-91,-72,-127,-25,-73,65
22,-27,-49,2,36,-37,-70,145,115,96,-39,61
92,47,-44,-69,68,2,-38,350,466,486,202,205
464,149,-315,-306,389,-83,-205,372,592,1059,785,653
873,284,-588,-578,730,-152,-596,9,224,1222,1232,1073
641,264,-377,-452,509,-57,-750,-743,-752,220,710,892
275,119,-156,-197,215,-19,-572,-856,-1027,-501,78,498
129,12,-117,-71,123,-52,-332,-465,-581,-339,-94,222
6,-77,-83,35,45,-80,-151,-177,-286,-233,-199,40
-17,-97,-80,57,32,-88,-87,-58,-145,-136,-159,47
-24,-90,-66,58,21,-78,-59,-35,-109,-111,-153,46
-31,-89,-58,61,14,-74,-48,4,-67,-101,-159,43
-31,-84,-52,58,11,-68,-52,19,-59,-87,-151,48
-34,-81,-47,58,7,-64,-49,49,-53,-88,-159,42
-36,-79,-44,58,4,-61,-51,50,-41,-72,-151,48
-50,-89,-39,70,-5,-64,-50,56,-38,-71,-154,43
-53,-87,-34,70,-9,-60,-48,55,-22,-55,-142,46
-52,-81,-29,66,-11,-55,-44,55,-3,-49,-138,44
-64,-76,-13,70,-25,-44,-45,79,14,-37,-131,44
-68,-69,-2,69,-33,-35,-41,86,25,-28,-123,58
-24,-65,-41,45,9,-53,-40,103,49,-20,-121,66
-22,-59,-37,41,7,-48,-40,119,71,-12,-133,64
-42,-54,-12,48,-15,-33,-33,162,106,10,-134,65
-26,-49,-23,38,-1,-36,-25,195,145,33,-126,65
-23,-43,-20,33,-1,-31,-14,230,186,51,-125,64
-17,-38,-20,27,2,-29,8,299,254,83,-118,59
-14,-33,-19,23,3,-26,27,358,323,108,-115,52
-2,-28,-27,15,12,-27,31,414,378,132,-115,46
1,-25,-26,12,14,-25,43,450,423,149,-114,39
-7,-21,-15,14,4,-18,50,475,447,144,-116,33
-13,-18,-5,15,-4,-11,40,494,442,135,-113,29
-16,-14,2,15,-8,-6,34,475,416,126,-122,30
-25,-11,14,18,-20,1,24,415,370,116,-129,30
-57,-8,49,32,-53,20,19,345,301,99,-120,29
-52,-5,46,28,-49,20,0,260,212,70,-109,37
-24,-3,21,13,-22,9,-39,165,126,48,-83,62
-3,1,4,1,-3,2,-67,94,64,32,-68,93
7,-2,-9,-2,8,-5,-88,45,15,17,-64,110
3,-9,-12,3,7,-10,-96,20,-19,11,-55,112
6,-14,-19,4,13,-16,-95,10,-43,4,-50,110
5,-19,-24,7,14,-21,-95,-2,-61,-2,-42,110
-4,-25,-22,15,9,-23,-95,-13,-59,-10,-38,110
-15,-29,-14,22,-1,-21,-95,-22,-55,-14,-33,110
-18,-26,-8,22,-5,-16,-92,-20,-52,-11,-31,110
-20,-21,-1,21,-10,-11,-89,-13,-47,-6,-47,105
-25,-19,6,21,-15,-6,-86,-9,-45,-4,-51,101
-27,-14,13,21,-19,0,-84,-2,-40,0,-49,98
-31,-11,20,21,-26,4,-80,2,-40,5,-47,95
-11,-7,4,9,-8,-1,-81,7,-39,3,-44,90
-5,-5,1,5,-2,-2,-85,13,-35,-1,-45,92
-8,-1,7,5,-8,3,-85,16,-35,0,-39,96
11,0,-10,-5,11,-5,-90,22,-38,0,-34,95
-3,-5,-2,4,0,-4,-90,25,-40,0,-28,95
-12,-9,3,11,-8,-3,-93,20,-41,0,-23,95
-6,-14,-8,10,1,-10,-96,16,-38,-5,-16,94
-9,-19,-10,14,0,-14,-95,14,-53,-10,-21,91
7,-18,-25,6,16,-21,-95,9,-71,-15,-32,88
17,-8,-25,-4,21,-16,-95,5,-70,-18,-28,86
16,-1,-17,-7,17,-9,-96,7,-68,-25,-26,82
15,7,-8,-11,12,-1,-100,14,-59,-23,-23,80
10,15,5,-13,2,10,-99,19,-53,-13,-20,79
6,24,17,-15,-6,20,-100,26,-45,8,-18,81
15,65,51,-40,-18,58,-100,29,-41,33,-11,92
23,87,64,-55,-20,75,-103,20,-34,34,-6,95
6,74,68,-40,-32,71,-129,-7,-43,27,0,86
6,70,64,-38,-29,67,-143,-38,-71,23,5,88
18,60,42,-39,-12,51,-133,-48,-80,16,15,105
51,55,4,-53,23,29,-124,-39,-83,11,29,99
60,44,-15,-52,37,14,-117,-35,-82,5,25,86
18,18,0,-18,9,9,-97,-33,-100,-10,4,75
30,-2,-31,-14,30,-16,-79,-22,-113,-17,-8,63
23,-18,-42,-2,33,-30,-73,-32,-119,-32,-27,45
5,-33,-39,14,22,-36,-70,-24,-112,-37,-38,30
2,-51,-53,25,28,-52,-68,-44,-128,-45,-40,25
-6,-62,-55,35,25,-59,-59,-33,-107,-37,-35,20
1,-54,-55,27,28,-54,-66,-58,-120,-26,-24,22
-6,-32,-25,19,10,-28,-16,1,-70,-14,-25,7
9,19,10,-15,-1,15,30,266,282,245,86,49
209,110,-99,-159,154,6,-38,369,501,712,456,295
677,241,-435,-459,556,-97,-342,243,427,1235,1098,795
828,295,-533,-562,680,-118,-679,-326,-229,879,1154,988
480,216,-264,-348,371,-24,-638,-831,-969,-193,467,662
210,80,-130,-145,170,-25,-417,-671,-842,-433,63,325
98,-41,-140,-28,119,-90,-192,-309,-442,-270,-98,61
6,-95,-102,45,54,-98,-56,-85,-228,-202,-156,-51
-41,-106,-66,74,13,-86,-21,-27,-146,-120,-129,-67
-101,-105,-4,103,-48,-54,27,8,-115,-112,-148,-92
-111,-105,6,108,-58,-49,39,42,-86,-82,-135,-85
-39,-105,-66,72,14,-86,41,49,-83,-87,-143,-96
-63,-105,-42,84,-10,-73,40,52,-68,-77,-135,-94
-84,-101,-17,93,-33,-59,40,47,-61,-72,-129,-95
-54,-94,-41,74,-6,-67,40,59,-43,-69,-123,-96
-54,-90,-37,72,-8,-63,41,80,-28,-61,-115,-94
-48,-84,-36,66,-5,-60,46,83,-17,-54,-110,-97
-48,-79,-31,63,-9,-54,47,89,-3,-44,-102,-100
-46,-74,-28,60,-8,-51,51,109,10,-37,-100,-100
-44,-68,-24,56,-10,-45,54,123,33,-24,-95,-100
-43,-63,-20,53,-11,-41,66,154,68,-10,-93,-100
-50,-57,-7,54,-21,-32,73,183,99,3,-88,-100
-38,-51,-13,45,-12,-32,76,217,130,7,-85,-104
-10,-46,-37,29,14,-41,98,271,186,35,-89,-105
-14,-41,-27,27,7,-34,114,331,249,64,-91,-108
-17,-34,-17,26,1,-25,132,391,307,87,-90,-110
-20,-28,-8,24,-6,-18,150,447,369,116,-90,-111
-28,-21,7,24,-18,-6,159,489,415,125,-90,-117
-35,-14,21,24,-27,3,171,497,446,119,-91,-130
-41,-8,33,24,-37,12,170,482,431,112,-97,-139
-37,-5,31,21,-33,13,159,446,375,90,-100,-133
-27,-2,24,14,-25,11,144,387,318,62,-93,-122
-20,0,20,10,-20,10,119,306,239,46,-88,-113
-9,3,13,3,-11,8,89,211,147,34,-79,-99
-7,6,13,1,-10,9,64,133,64,17,-57,-77
-36,1,37,17,-37,19,56,79,8,-2,-45,-63
-9,-6,4,8,-6,-1,52,33,-37,-16,-42,-59
24,-12,-37,-5,31,-24,46,0,-74,-27,-38,-53
-21,-19,2,20,-11,-8,40,-6,-79,-36,-35,-48
-12,-26,-14,19,2,-20,35,-8,-86,-42,-30,-42
22,-30,-52,4,37,-41,40,-11,-91,-46,-30,-40
13,-30,-43,9,28,-36,40,-14,-89,-44,-30,-40
7,-30,-37,12,22,-33,43,-15,-90,-49,-30,-40
-2,-30,-28,16,13,-29,46,-9,-90,-50,-30,-39
-9,-30,-21,20,6,-25,46,-3,-90,-50,-30,-41
-16,-30,-14,23,-1,-22,63,4,-86,-55,-31,-39
-19,-27,-7,23,-6,-17,71,11,-80,-55,-34,-36
-22,-22,-1,22,-10,-11,69,18,-75,-55,-35,-35
-25,-19,5,22,-15,-6,70,18,-69,-55,-35,-32
-30,-16,14,22,-21,-1,70,11,-63,-55,-35,-51
-20,-11,9,15,-15,-1,70,7,-61,-55,-35,-63
1,-11,-12,5,7,-11,65,1,-65,-55,-33,-58
-2,-19,-17,11,8,-17,65,-5,-65,-55,-29,-64
-15,-28,-12,22,-1,-20,65,-9,-64,-55,-30,-65
-15,-27,-11,21,-2,-18,65,-16,-75,-56,-26,-64
-18,-25,-7,21,-5,-15,64,-22,-84,-54,-25,-61
-20,-25,-5,23,-7,-15,68,-29,-92,-57,-25,-56
-14,-20,-6,17,-4,-13,70,-29,-96,-53,-19,-54
-5,-21,-16,13,6,-18,66,-33,-104,-63,-13,-49
-7,-17,-11,12,2,-13,64,-32,-100,-71,-6,-46
-29,3,32,13,-31,17,66,-8,-76,-39,0,-43
-17,36,52,-9,-35,44,64,3,-73,-28,8,-36
3,52,49,-28,-23,51,66,10,-76,-32,14,-29
-5,44,50,-19,-28,47,59,-2,-79,-26,22,-23
-17,40,58,-12,-38,49,25,-39,-79,-26,27,-15
-29,35,64,-3,-47,49,14,-59,-92,-24,35,-10
-11,28,39,-9,-25,33,15,-67,-114,-29,48,-16
22,25,3,-24,9,13,16,-63,-107,-38,43,-25
50,7,-42,-28,46,-17,30,-64,-111,-50,33,-29
43,-12,-55,-15,49,-33,52,-58,-116,-67,21,-43
-2,-30,-28,16,13,-28,71,-60,-132,-82,15,-58
-11,-43,-32,27,11,-37,78,-65,-145,-94,-1,-65
-25,-58,-33,42,4,-45,78,-63,-137,-73,-3,-56
-38,-76,-38,58,0,-57,81,-81,-159,-82,-19,-54
-28,-72,-44,50,9,-58,89,-71,-134,-58,-21,-46
-41,-72,-32,57,-4,-52,87,-83,-151,-71,-10,-40
-26,-37,-11,32,-7,-24,133,81,47,-3,11,-42
40,44,4,-42,18,24,162,304,390,358,213,56
368,151,-217,-260,292,-33,-7,290,461,867,720,413
791,255,-536,-523,663,-140,-389,-31,178,1145,1233,867
705,236,-469,-471,587,-116,-580,-645,-611,356,912,813
343,128,-215,-235,279,-44,-421,-852,-999,-479,266,454
134,-1,-135,-66,134,-68,-186,-546,-652,-416,33,168
27,-84,-111,29,69,-97,25,-236,-331,-302,-119,-75
-15,-101,-86,58,36,-94,121,-91,-172,-212,-127,-120
-39,-106,-67,72,15,-86,139,-58,-123,-165,-108,-132
-61,-105,-43,83,-8,-74,155,-27,-92,-163,-114,-146
-64,-105,-41,85,-11,-73,165,-20,-71,-146,-95,-135
-71,-105,-34,88,-18,-69,173,-7,-61,-153,-100,-144
-77,-105,-28,91,-24,-66,168,1,-45,-137,-87,-137
-75,-100,-25,88,-25,-62,171,8,-40,-140,-93,-140
-98,-95,3,96,-50,-46,178,22,-25,-128,-88,-134
-91,-90,0,91,-45,-45,181,34,-20,-123,-85,-135
-51,-86,-35,69,-8,-60,180,49,-2,-114,-86,-135
-50,-81,-31,66,-9,-56,179,56,23,-106,-82,-134
-56,-77,-21,67,-17,-48,181,84,51,-99,-79,-136
-72,-87,-15,80,-29,-51,177,95,67,-91,-74,-134
-90,-88,3,89,-46,-42,191,120,95,-70,-72,-136
-102,-78,24,90,-63,-27,216,176,149,-33,-67,-135
-78,-73,5,76,-42,-34,218,200,182,-17,-65,-135
-28,-65,-37,47,5,-51,224,249,235,1,-65,-136
-44,-60,-17,52,-13,-38,236,317,305,24,-65,-134
-72,-53,19,62,-45,-17,251,377,365,48,-65,-130
-84,-45,39,64,-61,-3,282,433,422,69,-65,-129
-89,-37,52,63,-71,7,292,464,454,63,-65,-144
-78,-29,49,54,-63,10,278,472,461,54,-64,-154
-73,-22,51,48,-61,14,264,449,440,45,-66,-146
-69,-19,50,44,-59,15,240,392,391,36,-67,-141
-71,-20,50,46,-61,15,213,323,324,16,-58,-135
-63,-16,47,39,-55,15,192,234,236,-13,-47,-130
-49,-15,35,32,-41,10,154,129,138,-32,-36,-114
-39,-15,24,27,-31,4,123,66,74,-47,-23,-92
-22,-10,12,16,-17,1,112,20,25,-59,-13,-80
-11,-10,1,10,-6,-4,100,-25,-19,-75,-7,-67
0,-10,-10,5,5,-10,89,-45,-51,-85,-2,-60
13,-10,-23,-2,18,-16,85,-49,-68,-89,1,-60
18,-10,-28,-3,23,-19,85,-56,-63,-94,6,-60
13,-10,-22,-1,17,-16,85,-61,-70,-97,10,-60
7,-10,-17,2,12,-14,85,-57,-75,-100,5,-60
4,-10,-14,3,9,-11,85,-55,-67,-100,1,-62
-2,-10,-9,6,3,-9,88,-52,-61,-100,-1,-66
-5,-10,-5,8,0,-7,93,-50,-54,-100,-6,-71
-10,-10,0,10,-5,-5,94,-47,-48,-100,-9,-74
-20,-15,5,17,-12,-5,89,-41,-42,-100,-13,-75
-24,-15,9,20,-16,-2,90,-37,-40,-100,-15,-74
-29,-16,14,22,-21,-1,87,-32,-40,-100,-15,-76
-30,-12,19,21,-24,3,85,-28,-37,-100,-15,-74
-28,-9,19,18,-23,5,85,-25,-35,-100,-15,-79
-26,-14,12,19,-18,-1,82,-37,-35,-98,-14,-94
-28,-17,11,22,-19,-2,79,-44,-40,-94,-11,-92
-11,-20,-9,16,-1,-15,76,-47,-39,-92,-4,-86
2,-25,-27,12,15,-26,73,-51,-48,-89,-1,-81
-6,-23,-17,15,5,-19,70,-47,-57,-85,4,-74
-7,-16,-9,11,1,-12,69,-61,-53,-85,8,-70
-28,-12,16,20,-22,2,63,-62,-62,-79,13,-64
-28,-4,24,15,-26,10,57,-55,-66,-73,15,-58
-23,8,32,7,-28,20,53,-46,-50,-65,14,-51
1,45,45,-23,-22,45,45,-43,-17,-60,36,-44
20,77,57,-49,-18,67,43,-29,-6,-51,47,-38
8,71,63,-40,-28,66,27,-31,-18,-34,44,-34
18,67,48,-43,-15,57,-1,-98,-33,-69,43,-36
-11,62,73,-26,-43,68,-24,-114,-45,-88,39,-35
11,58,47,-35,-19,52,-29,-109,-54,-83,41,-35
51,52,1,-52,24,26,-16,-108,-65,-92,35,-36
35,32,-3,-33,18,15,-4,-105,-78,-86,26,-32
15,-2,-16,-6,16,-9,19,-104,-83,-107,14,-60
-10,-34,-25,22,8,-29,32,-110,-94,-128,7,-86
-7,-44,-37,26,15,-40,44,-110,-110,-134,-7,-86
-24,-59,-35,42,6,-47,51,-108,-113,-124,-8,-83
-28,-61,-33,45,3,-46,54,-115,-122,-139,-24,-88
-20,-59,-39,40,10,-49,39,-100,-113,-131,-26,-81
-28,-57,-29,43,1,-43,46,-128,-128,-137,-14,-89
-7,-1,6,4,-7,2,91,63,97,-10,29,-90
47,73,26,-60,10,49,111,257,432,382,267,53
413,162,-251,-288,332,-44,-70,218,479,881,804,452
820,259,-562,-539,691,-151,-480,-118,103,1034,1240,856
671,258,-413,-464,542,-77,-623,-747,-711,158,806,728
305,128,-177,-216,241,-24,-446,-875,-992,-552,203,374
101,-8,-109,-46,105,-59,-208,-538,-604,-429,12,90
13,-74,-87,31,50,-80,0,-248,-303,-323,-131,-134
-42,-93,-51,68,4,-72,74,-110,-157,-217,-119,-148
-85,-89,-4,87,-40,-46,96,-87,-109,-183,-109,-156
-85,-90,-5,88,-40,-47,115,-60,-76,-186,-111,-164
-69,-90,-22,80,-23,-56,129,-51,-61,-166,-94,-157
-63,-90,-27,76,-18,-58,131,-37,-51,-170,-98,-168
-65,-87,-22,76,-21,-54,131,-28,-36,-153,-86,-163
-69,-84,-15,77,-26,-49,143,-18,-29,-154,-93,-165
-75,-86,-11,81,-32,-48,145,-7,-17,-142,-86,-159
-80,-84,-4,82,-37,-44,145,2,-8,-138,-85,-160
-89,-85,3,87,-46,-41,145,9,6,-130,-85,-161
-102,-84,18,93,-59,-33,147,28,28,-125,-81,-158
-98,-75,23,86,-60,-26,167,65,64,-115,-77,-162
-80,-67,13,74,-47,-27,182,73,75,-99,-71,-187
-66,-58,9,62,-37,-25,179,95,94,-87,-68,-197
-51,-51,0,51,-25,-26,186,130,132,-73,-62,-194
-68,-49,19,59,-44,-15,184,177,176,-53,-60,-196
-83,-46,37,64,-59,-4,193,232,238,-24,-60,-194
-67,-44,23,55,-44,-10,213,284,292,0,-60,-196
-75,-30,45,53,-60,7,223,365,364,37,-60,-191
-69,-17,52,43,-60,18,243,420,419,62,-60,-190
-47,-3,45,25,-46,21,250,428,441,58,-60,-190
-40,7,47,16,-44,27,239,422,448,53,-57,-189
-58,5,63,26,-61,34,231,405,426,50,-51,-191
-80,5,85,37,-83,44,213,347,375,32,-47,-187
-53,5,58,23,-56,31,182,261,288,-2,-42,-186
-75,5,79,35,-78,42,145,183,207,-20,-38,-163
-58,2,60,28,-59,31,113,95,123,-54,-34,-143
-5,-1,3,3,-4,1,93,24,51,-82,-18,-130
-44,-4,40,24,-42,18,79,-23,12,-83,2,-98
-43,-7,37,25,-39,15,71,-64,-30,-96,13,-92
-33,-10,23,22,-28,6,63,-84,-52,-94,24,-88
-26,-9,17,17,-21,4,52,-96,-59,-99,37,-83
-13,-4,9,9,-11,2,50,-108,-69,-111,38,-79
-10,-6,5,8,-7,0,50,-107,-69,-110,28,-75
-3,-3,0,2,-1,-1,50,-101,-62,-110,23,-79
-15,1,16,7,-16,8,50,-96,-60,-111,15,-91
-28,-1,27,14,-27,13,50,-90,-53,-109,11,-95
-34,5,39,14,-37,22,50,-85,-52,-113,20,-96
-15,14,29,0,-22,21,50,-81,-65,-128,21,-117
-27,23,50,2,-39,36,51,-80,-63,-126,16,-121
-5,29,34,-12,-20,31,49,-80,-59,-119,15,-119
-9,24,34,-8,-22,29,54,-80,-56,-115,10,-121
-50,21,70,14,-60,45,61,-80,-51,-108,10,-120
-6,18,24,-6,-15,21,55,-82,-51,-104,15,-119
-13,13,26,0,-20,19,50,-86,-56,-100,15,-115
-36,10,46,13,-41,28,46,-85,-59,-100,16,-113
-26,10,35,8,-31,23,41,-85,-64,-100,20,-110
-29,10,40,9,-35,25,42,-85,-65,-100,20,-106
-23,10,33,6,-28,21,47,-85,-66,-100,20,-105
-18,11,29,4,-24,19,49,-99,-78,-103,20,-102
-50,9,59,20,-54,34,46,-104,-82,-106,20,-99
-60,13,73,23,-66,43,43,-106,-87,-109,20,-100
-41,22,63,9,-52,42,41,-115,-92,-110,19,-100
-48,14,62,17,-56,38,37,-109,-83,-102,20,-101
-33,25,58,4,-46,41,35,-91,-70,-96,25,-99
5,58,53,-32,-24,55,33,-85,-54,-89,34,-90
8,82,74,-45,-33,78,22,-76,-31,-82,50,-80
-14,94,108,-40,-61,101,14,-73,-23,-76,62,-69
-7,92,99,-43,-53,95,-15,-118,-60,-71,57,-68
13,101,89,-57,-39,95,-43,-133,-79,-70,56,-71
48,98,50,-73,-2,74,-36,-129,-84,-68,53,-69
64,72,8,-68,28,39,-30,-128,-106,-81,48,-71
38,53,15,-46,11,34,-26,-125,-117,-97,57,-69
8,22,14,-16,-3,18,-18,-125,-113,-99,34,-73
-49,-8,41,28,-44,16,-16,-127,-124,-107,11,-82
-76,-24,52,49,-63,14,-6,-136,-144,-138,8,-96
-75,-35,39,55,-57,2,-5,-141,-134,-135,7,-104
-76,-37,39,56,-57,1,4,-152,-147,-146,3,-107
-54,-26,28,40,-41,1,5,-134,-130,-143,-1,-100
-56,-27,29,41,-42,1,2,-156,-149,-136,6,-101
-24,-5,19,14,-21,7,47,-11,5,-55,22,-94
35,65,30,-50,2,47,63,222,358,282,188,-12
322,179,-143,-250,233,18,-60,260,487,781,667,324
768,267,-501,-517,634,-116,-438,-17,218,1086,1196,794
701,246,-455,-473,578,-105,-675,-678,-584,367,929,773
347,179,-168,-263,258,6,-543,-958,-1050,-504,271,422
132,61,-72,-96,102,-6,-321,-660,-725,-475,24,131
11,-42,-53,16,32,-47,-99,-320,-364,-329,-97,-106
-26,-62,-36,44,5,-49,-5,-152,-184,-244,-109,-154
-86,-66,20,76,-53,-23,26,-114,-123,-186,-90,-157
-112,-61,51,86,-81,-5,52,-79,-100,-173,-100,-163
-98,-59,38,78,-68,-10,48,-71,-85,-153,-83,-156
-96,-56,41,76,-68,-7,56,-62,-80,-158,-90,-163
-88,-54,33,70,-60,-10,55,-53,-66,-142,-87,-157
-86,-56,30,71,-57,-12,61,-46,-59,-142,-92,-165
-94,-54,40,74,-66,-7,60,-34,-47,-132,-89,-164
-109,-56,53,82,-81,-1,60,-26,-38,-128,-90,-165
-101,-55,46,77,-73,-4,60,-13,-24,-121,-91,-165
-100,-56,45,77,-72,-5,59,-1,1,-114,-87,-165
-113,-53,60,83,-86,4,64,15,30,-107,-83,-164
-106,-46,60,76,-83,7,65,29,41,-103,-77,-159
-94,-42,53,68,-73,5,66,63,72,-85,-74,-161
-80,-36,44,58,-62,4,64,107,118,-49,-69,-158
-70,-30,40,50,-55,5,68,139,151,-30,-65,-155
-52,-25,26,38,-39,0,79,193,205,-15,-65,-156
-64,-19,44,41,-54,12,101,268,279,28,-65,-158
-67,-12,54,39,-60,21,116,324,337,59,-65,-162
-61,-6,55,33,-57,24,129,375,389,75,-65,-162
-77,1,78,38,-78,39,156,416,433,100,-64,-171
-39,7,46,15,-43,26,148,416,432,88,-67,-179
-37,13,50,12,-43,31,133,398,418,67,-74,-173
-60,21,82,20,-71,51,120,348,378,50,-68,-165
-50,29,79,11,-65,54,88,269,313,22,-58,-160
-41,37,79,2,-60,58,54,176,228,-6,-51,-147
-30,44,74,-7,-52,59,24,96,138,-28,-40,-111
-34,40,74,-3,-54,56,3,30,69,-43,-27,-91
-7,33,40,-14,-24,37,-19,-38,3,-60,-13,-86
12,29,17,-21,-3,23,-34,-79,-37,-68,-5,-76
-20,23,43,-2,-32,32,-36,-96,-55,-73,-5,-70
-27,17,44,4,-35,30,-34,-108,-77,-92,-4,-62
-33,15,47,8,-41,31,-30,-111,-85,-102,0,-60
-25,15,40,5,-33,28,-30,-109,-78,-99,0,-60
-21,15,36,3,-29,25,-28,-106,-76,-104,-2,-60
-54,15,69,20,-62,42,-24,-105,-72,-105,-6,-60
-56,15,71,20,-64,43,-26,-104,-69,-104,-5,-60
-54,14,69,20,-62,41,-21,-99,-65,-100,-5,-64
-61,10,71,25,-66,41,-15,-96,-62,-95,-5,-68
-59,10,69,25,-64,39,-10,-93,-59,-91,-5,-73
-59,10,69,24,-64,39,-4,-88,-56,-86,-10,-75
-53,10,62,21,-57,36,1,-85,-54,-81,-10,-78
-50,10,61,20,-55,35,7,-85,-49,-82,-10,-81
-49,8,56,20,-53,32,10,-85,-52,-86,-10,-84
-48,4,52,22,-51,28,12,-85,-55,-85,-10,-85
-44,5,49,19,-47,27,15,-85,-55,-85,-8,-85
-41,5,45,17,-43,25,18,-85,-60,-85,-4,-85
-39,5,44,16,-42,25,21,-85,-59,-84,-6,-85
-24,15,39,5,-32,27,16,-99,-68,-81,-1,-83
-22,17,38,2,-30,27,10,-106,-74,-78,0,-77
-20,14,34,3,-28,24,5,-104,-76,-76,0,-73
-21,12,33,4,-27,23,-1,-111,-85,-72,7,-68
-19,8,27,5,-23,17,-6,-109,-78,-70,14,-64
-1,15,16,-7,-9,15,-11,-104,-71,-68,20,-59
-21,29,49,-4,-35,39,-18,-98,-64,-63,27,-56
-23,54,77,-16,-50,65,-23,-96,-62,-60,38,-53
11,77,66,-44,-28,72,-37,-89,-65,-57,40,-50
25,79,54,-52,-15,66,-58,-91,-65,-52,40,-47
9,84,75,-47,-33,79,-77,-125,-64,-49,40,-44
19,87,68,-53,-25,77,-92,-143,-71,-51,40,-47
31,73,42,-53,-6,58,-85,-151,-80,-49,57,-51
34,64,29,-49,2,46,-74,-149,-90,-56,54,-50
41,49,8,-45,16,28,-66,-151,-113,-75,42,-50
1,15,14,-8,-7,14,-54,-149,-105,-78,32,-50
-10,-7,3,8,-6,-2,-52,-150,-107,-88,14,-60
-21,-24,-3,23,-9,-13,-43,-149,-133,-109,-9,-84
-16,-36,-19,26,2,-27,-42,-140,-130,-102,-14,-94
-1,-46,-45,24,22,-45,-32,-153,-149,-109,-24,-90
2,-43,-45,21,24,-44,-29,-132,-133,-95,-28,-83
-3,-42,-39,22,18,-40,-20,-166,-147,-104,-9,-78
-7,-29,-22,18,7,-25,25,-13,23,-16,24,-70
60,50,-10,-55,35,19,28,233,371,306,181,1
345,147,-198,-246,271,-26,-87,283,503,791,655,330
794,251,-543,-522,668,-145,-461,10,248,1105,1189,797
739,255,-484,-496,611,-114,-691,-680,-566,384,918,780
362,155,-207,-258,285,-26,-558,-959,-1030,-478,261,416
155,53,-102,-104,128,-24,-342,-657,-710,-453,11,130
16,-25,-41,4,29,-33,-125,-318,-358,-312,-106,-107
-30,-87,-57,58,14,-72,-31,-140,-176,-224,-120,-169
-52,-86,-35,69,-8,-60,2,-108,-123,-173,-104,-154
-68,-33,35,50,-51,1,19,-75,-90,-173,-112,-166
-91,-100,-9,96,-41,-55,31,-64,-56,-149,-98,-162
-72,-120,-48,96,-12,-84,45,-50,-47,-149,-103,-168
-55,-79,-24,67,-15,-51,37,-36,-35,-132,-94,-161
-70,-86,-16,78,-27,-50,42,-27,-30,-127,-95,-160
-63,-74,-10,69,-26,-42,39,-14,-17,-114,-90,-157
-73,-74,0,74,-36,-37,40,-8,-7,-107,-87,-153
-68,-67,1,67,-34,-33,40,0,5,-99,-86,-152
-81,-63,17,72,-49,-22,39,7,21,-91,-82,-148
-80,-59,22,69,-51,-18,41,27,31,-84,-80,-157
-51,-50,1,50,-26,-24,39,55,61,-70,-80,-166
-73,-45,27,59,-50,-9,41,87,88,-57,-80,-164
-94,-37,58,65,-76,10,38,116,117,-39,-80,-160
-84,-32,52,58,-68,10,45,165,181,-16,-81,-159
-82,-25,58,53,-70,16,63,231,240,12,-80,-154
-68,-15,53,41,-61,19,73,271,286,31,-80,-158
-61,-5,56,32,-58,25,92,334,347,57,-80,-164
-52,3,54,24,-53,28,114,399,409,85,-80,-171
-38,9,47,14,-43,28,127,424,439,93,-80,-190
-52,16,68,18,-60,42,124,429,450,91,-81,-192
-37,23,60,7,-49,41,111,399,437,80,-89,-200
-47,29,76,9,-62,52,104,370,394,69,-93,-197
-72,30,102,21,-87,66,76,300,325,43,-84,-182
-72,30,102,21,-87,66,39,206,246,13,-76,-167
-48,30,78,8,-63,54,15,125,161,-7,-64,-132
-3,30,33,-13,-18,31,-16,42,78,-21,-42,-113
-5,30,35,-13,-20,32,-40,-1,27,-28,-29,-102
-4,29,33,-13,-19,31,-52,-48,-16,-44,-31,-96
-9,20,29,-5,-20,25,-64,-80,-46,-59,-29,-89
-14,10,24,1,-19,17,-60,-86,-51,-61,-25,-83
-35,0,35,17,-35,17,-51,-90,-48,-58,-25,-75
-34,-9,25,21,-29,8,-47,-98,-61,-66,-25,-76
5,-13,-18,5,12,-15,-38,-109,-80,-85,-25,-90
-12,-18,-6,15,-2,-12,-37,-97,-71,-80,-25,-90
-21,-20,1,21,-11,-9,-48,-87,-62,-72,-25,-90
-48,-20,28,34,-38,4,-51,-78,-54,-66,-24,-96
-70,-20,50,44,-60,15,-49,-73,-47,-59,-26,-94
-42,-21,22,31,-32,0,-51,-71,-41,-54,-35,-96
-29,-19,10,24,-20,-4,-50,-66,-34,-50,-33,-111
-30,-21,9,25,-19,-6,-50,-63,-28,-48,-28,-113
-20,-15,5,17,-12,-5,-50,-59,-21,-44,-27,-105
-16,-14,3,15,-9,-5,-50,-56,-24,-42,-20,-101
-37,-38,0,37,-18,-19,-50,-54,-25,-39,-24,-94
-40,-42,-2,41,-19,-22,-50,-53,-25,-41,-29,-90
-28,-36,-9,32,-9,-22,-50,-48,-25,-39,-24,-85
-21,-36,-15,28,-2,-25,-50,-59,-26,-43,-18,-85
-12,-31,-19,22,3,-25,-50,-71,-39,-55,-14,-85
-17,-30,-13,24,-2,-21,-50,-69,-40,-55,-6,-85
-32,-27,5,29,-18,-10,-50,-71,-43,-55,-9,-85
-28,-24,4,26,-15,-10,-50,-68,-51,-55,-26,-83
-19,-21,-3,20,-8,-12,-50,-79,-49,-55,-25,-78
-17,-18,-1,17,-8,-10,-46,-90,-51,-54,-17,-75
-33,-16,17,24,-25,1,-45,-79,-50,-48,-12,-72
-34,-13,21,23,-27,4,-62,-73,-50,-43,-4,-68
5,-3,-9,-1,7,-6,-66,-64,-47,-37,2,-65
0,18,18,-9,-9,18,-63,-56,-26,-31,8,-60
3,35,32,-19,-15,33,-61,-38,-11,-26,13,-52
17,61,45,-39,-14,53,-57,-19,4,-24,16,-46
14,80,66,-47,-26,73,-94,-68,3,-25,22,-39
27,68,41,-47,-7,54,-117,-105,-35,-25,25,-32
38,61,23,-50,7,42,-104,-104,-57,-25,20,-32
60,48,-12,-54,36,18,-97,-106,-53,-25,12,-35
36,24,-12,-30,24,6,-90,-101,-59,-25,7,-35
13,-3,-15,-5,14,-9,-81,-101,-60,-35,-2,-33
4,-26,-30,11,17,-28,-74,-97,-65,-50,-6,-54
-28,-44,-16,36,-6,-30,-61,-101,-92,-73,-15,-82
-37,-55,-18,46,-9,-36,-53,-87,-77,-68,-30,-79
-38,-63,-25,50,-6,-44,-46,-97,-97,-70,-44,-79
9,-67,-76,29,43,-71,-38,-78,-90,-73,-45,-82
19,-60,-80,21,49,-70,-54,-91,-91,-69,-21,-82
-29,-50,-20,40,-4,-35,-15,-18,-34,-51,-24,-91
-9,9,18,0,-13,13,11,233,316,222,88,-26
207,94,-114,-150,160,-10,-53,345,552,689,476,235
698,218,-480,-458,589,-131,-368,191,432,1133,1080,724
848,272,-576,-560,711,-151,-718,-441,-277,723,1078,876
484,184,-300,-334,391,-58,-664,-919,-970,-292,389,533
201,71,-130,-136,165,-30,-439,-708,-795,-472,41,246
44,-55,-99,5,72,-76,-206,-345,-395,-287,-97,-6
-33,-96,-63,65,15,-79,-61,-121,-179,-201,-159,-126
-35,-86,-51,60,8,-68,-32,-68,-96,-119,-115,-102
-55,-86,-31,71,-12,-58,-12,-39,-75,-122,-121,-113
-61,-87,-26,74,-17,-56,-14,-20,-44,-99,-106,-114
-64,-112,-48,89,-8,-80,-8,-13,-38,-101,-132,-133
-106,-110,-4,108,-51,-57,-5,20,-20,-88,-125,-130
-95,-100,-5,98,-45,-52,-1,27,-10,-82,-119,-128
-52,-94,-41,74,-5,-67,3,35,2,-77,-116,-126
-54,-85,-31,70,-12,-57,5,48,13,-67,-106,-123
-49,-81,-32,65,-9,-56,9,52,22,-64,-106,-129
-54,-80,-26,67,-14,-53,11,60,33,-55,-97,-129
-57,-79,-22,68,-17,-50,14,82,53,-45,-95,-131
-54,-74,-20,64,-17,-47,16,111,79,-30,-89,-130
-61,-76,-14,69,-23,-45,19,142,110,-15,-85,-130
-56,-73,-16,65,-20,-44,22,168,134,-1,-81,-130
-53,-66,-13,60,-20,-39,35,210,179,28,-76,-135
-43,-61,-18,53,-13,-39,44,257,228,42,-75,-135
-50,-55,-4,53,-23,-29,64,325,291,68,-75,-136
-88,-50,38,69,-63,-6,95,406,369,115,-75,-140
-82,-34,49,58,-65,7,98,442,401,122,-75,-140
-34,-13,21,23,-28,4,93,487,452,132,-76,-138
-35,-7,28,20,-31,10,86,512,474,131,-80,-132
-72,-1,71,36,-71,35,79,493,469,114,-85,-127
-70,5,75,32,-73,40,73,457,446,107,-88,-124
-57,10,66,23,-62,38,62,387,371,87,-83,-118
-46,21,66,12,-56,43,42,305,295,63,-77,-115
-33,20,53,6,-43,36,4,213,205,42,-72,-97
-24,13,37,5,-31,25,-31,130,128,25,-66,-73
-13,9,22,2,-18,15,-54,70,68,15,-59,-64
-13,3,16,5,-15,9,-65,23,18,7,-52,-56
-15,-3,11,9,-13,4,-78,-4,-12,-2,-46,-48
-7,-3,4,4,-5,1,-91,-11,-27,-11,-38,-41
2,4,1,-3,0,2,-90,-18,-41,-17,-36,-35
21,10,-11,-15,16,-1,-90,-24,-46,-23,-40,-35
31,14,-16,-22,23,-1,-90,-31,-45,-27,-40,-34
9,10,1,-9,3,5,-90,-34,-44,-34,-42,-30
-15,2,18,6,-17,10,-88,-26,-40,-39,-46,-30
-37,-4,33,20,-34,14,-84,-18,-40,-37,-45,-27
-38,-11,27,25,-33,8,-86,-10,-38,-34,-45,-25
-44,-18,26,30,-35,4,-81,-2,-32,-31,-45,-25
-71,-20,50,45,-61,15,-80,4,-28,-28,-44,-25
-73,-20,54,46,-64,17,-80,9,-24,-25,-51,-25
-65,-20,45,42,-55,12,-74,13,-18,-24,-55,-25
-62,-20,42,41,-52,11,-69,17,-16,-20,-48,-30
-54,-20,35,37,-44,7,-64,23,-14,-20,-45,-30
-50,-20,29,35,-39,4,-58,24,-20,-20,-40,-31
-45,-20,25,32,-35,3,-52,17,-34,-20,-35,-35
-27,-20,7,23,-17,-6,-50,12,-37,-20,-31,-35
-49,-20,29,34,-39,5,-50,8,-39,-19,-29,-33
-80,-20,60,50,-70,20,-50,1,-44,-32,-30,-29
-71,-20,51,45,-61,15,-50,-3,-51,-35,-30,-30
-64,-21,43,42,-53,10,-50,-9,-50,-29,-30,-26
-70,-31,38,50,-54,3,-50,-10,-45,-27,-29,-25
-54,-27,26,40,-40,-1,-55,-15,-43,-22,-21,-25
-28,2,31,13,-30,16,-56,-13,-39,-20,-13,-16
-43,30,73,6,-58,51,-59,17,-24,-4,-5,-3
-27,54,81,-14,-54,67,-67,31,8,18,2,7
-4,68,72,-33,-38,70,-60,19,15,20,12,12
-11,59,69,-24,-40,64,-87,-16,-25,12,23,17
1,66,65,-34,-32,65,-108,-37,-52,7,18,20
35,81,46,-59,-6,63,-95,-34,-61,-1,11,15
45,62,18,-54,13,40,-92,-32,-64,-7,5,7
34,43,9,-39,12,26,-87,-27,-73,-16,-3,2
14,15,0,-15,7,8,-80,-28,-90,-39,-7,-7
-43,-22,22,32,-32,0,-70,-19,-88,-38,-24,-11
-46,-45,1,45,-23,-22,-60,-41,-120,-63,-54,-19
-24,-52,-28,39,2,-40,-49,-35,-124,-80,-55,-34
-43,-46,-3,45,-19,-24,-45,-41,-126,-69,-44,-40
-14,-47,-34,31,11,-40,-36,-28,-125,-82,-46,-52
1,-38,-39,19,20,-38,-41,-32,-123,-65,-29,-49
-21,-46,-24,34,1,-35,-16,1,-100,-56,-39,-37
7,-2,-9,-2,8,-6,25,242,224,154,45,2
141,101,-39,-121,89,31,3,371,518,607,381,210
598,197,-400,-397,499,-101,-274,296,468,1095,967,672
869,255,-613,-562,741,-179,-666,-249,-143,873,1117,921
544,204,-340,-374,442,-68,-670,-837,-936,-152,495,649
224,90,-135,-157,179,-22,-452,-734,-915,-516,51,317
37,-34,-72,-1,55,-53,-209,-353,-482,-315,-91,59
-44,-92,-48,68,2,-70,-26,-85,-230,-225,-162,-85
-44,-87,-44,66,0,-65,15,-14,-121,-139,-131,-84
-83,-86,-3,85,-40,-44,45,23,-88,-127,-144,-102
-83,-81,2,82,-42,-39,55,54,-65,-111,-130,-99
-85,-77,8,81,-46,-34,69,49,-62,-108,-131,-100
-86,-75,12,80,-48,-31,71,64,-54,-102,-127,-101
-99,-84,16,91,-57,-34,72,71,-45,-92,-123,-99
-106,-85,21,95,-63,-31,77,90,-30,-87,-127,-101
-93,-79,14,85,-53,-32,75,95,-11,-75,-119,-99
-89,-77,12,83,-50,-32,83,97,7,-70,-121,-100
-74,-72,3,73,-38,-34,84,116,22,-56,-118,-95
-75,-70,5,72,-40,-32,91,141,42,-40,-114,-95
-54,-64,-10,60,-22,-37,91,151,56,-25,-109,-95
-76,-57,19,67,-47,-19,101,176,89,-11,-104,-95
-136,-51,85,93,-110,16,98,209,120,-1,-101,-95
-124,-44,80,84,-102,18,105,246,149,11,-95,-97
-109,-38,71,73,-90,16,140,301,214,39,-92,-101
-100,-32,68,66,-83,17,154,362,274,70,-89,-100
-84,-26,58,55,-70,15,181,437,338,100,-86,-100
-78,-21,56,49,-67,17,192,493,400,128,-84,-101
-82,-16,66,49,-74,25,209,551,449,140,-78,-99
-87,-10,77,48,-82,33,227,569,480,137,-85,-104
-77,-5,72,41,-75,34,213,553,474,130,-95,-108
-71,0,71,36,-71,35,205,532,435,126,-87,-100
-64,4,67,30,-66,35,182,455,382,106,-81,-92
-58,7,65,25,-62,36,155,373,305,75,-74,-85
-52,10,63,21,-58,36,125,274,200,52,-67,-76
-44,15,59,15,-52,37,84,172,109,27,-63,-59
-47,13,60,17,-54,36,64,113,54,3,-57,-43
-51,8,60,22,-56,34,60,71,12,-6,-52,-30
-55,5,60,25,-58,32,55,43,-37,-12,-49,-17
-57,2,59,28,-59,30,52,25,-55,-20,-44,-13
-59,-3,56,30,-57,26,45,15,-64,-28,-40,-7
-56,-5,51,30,-53,23,47,2,-82,-33,-40,-4
-49,0,49,25,-49,24,50,-3,-77,-31,-40,2
-44,0,44,21,-44,22,51,4,-74,-28,-40,5
-41,0,41,21,-41,20,55,8,-71,-26,-40,0
-38,0,38,18,-38,19,55,14,-66,-22,-40,0
-34,0,33,17,-34,16,60,20,-64,-20,-40,0
-31,2,34,14,-33,18,60,24,-59,-17,-40,0
-19,5,25,7,-22,15,61,33,-54,-15,-40,0
-34,5,39,15,-37,22,65,38,-50,-15,-40,2
-31,5,36,13,-34,20,65,33,-45,-12,-40,6
7,5,-2,-6,4,1,62,30,-41,-9,-40,8
-3,-1,3,2,-3,1,60,27,-39,-11,-40,11
-13,-6,7,9,-10,0,60,22,-42,-15,-40,14
-22,-11,10,16,-16,-1,57,20,-54,-15,-40,15
-34,-17,17,25,-25,0,54,14,-55,-16,-40,15
-35,-23,11,28,-23,-6,56,8,-58,-20,-40,15
-57,-25,32,41,-44,3,59,4,-71,-20,-38,15
-72,-25,47,48,-59,11,60,-3,-77,-18,-35,15
-69,-25,44,47,-56,10,60,-6,-75,-13,-32,15
-70,-25,45,47,-57,10,60,-16,-69,-10,-29,14
-72,-26,45,48,-58,10,61,-21,-64,-7,-26,15
-45,-1,45,22,-45,22,57,-9,-57,-2,-25,14
-16,36,51,-10,-34,43,50,8,-52,0,-16,15
-22,60,82,-19,-53,71,42,28,-47,7,-2,36
-29,69,98,-20,-64,83,37,25,-45,14,0,48
-22,71,93,-25,-58,82,22,2,-44,22,4,55
-26,72,97,-23,-62,84,3,-24,-56,23,5,63
-24,61,85,-19,-55,73,-16,-42,-82,16,11,59
11,53,42,-33,-15,47,-30,-38,-93,9,9,56
31,43,12,-37,9,27,-26,-48,-101,3,21,53
17,23,7,-20,5,15,3,-64,-107,-4,24,48
2,-5,-7,2,4,-6,38,-56,-103,-17,-16,45
-59,-34,26,46,-42,-4,47,-67,-117,-29,-19,42
-75,-43,32,59,-53,-5,44,-61,-120,-43,-28,35
-41,-41,0,41,-20,-20,38,-69,-139,-60,-47,33
-36,-35,0,35,-18,-17,42,-57,-150,-73,-49,25
-42,-28,14,35,-27,-7,28,-45,-137,-45,-35,25
-58,-25,33,42,-46,4,46,-37,-120,-38,-36,17
-4,8,11,-2,-8,9,92,197,162,135,16,27
103,86,-17,-94,59,35,89,389,481,564,311,212
547,213,-334,-380,440,-60,-155,332,495,1076,906,676
883,278,-604,-581,743,-163,-570,-178,-42,1000,1173,992
551,213,-338,-382,445,-62,-628,-814,-881,-2,586,756
224,110,-114,-167,169,-2,-416,-794,-970,-487,80,407
54,-8,-61,-23,57,-34,-180,-410,-546,-309,-69,157
-50,-66,-16,58,-16,-41,9,-124,-280,-211,-181,-5
-67,-64,4,65,-35,-29,63,-31,-159,-100,-150,-25
-114,-67,48,90,-80,-9,85,-11,-129,-94,-153,-51
-122,-64,59,93,-90,-2,88,25,-82,-83,-145,-56
-136,-67,69,101,-102,1,90,43,-60,-73,-135,-54
-133,-63,70,98,-101,3,96,55,-55,-71,-135,-60
-129,-72,57,100,-93,-7,91,64,-46,-57,-126,-59
-127,-76,52,101,-89,-12,105,75,-42,-58,-133,-61
-114,-74,40,94,-76,-17,117,73,-33,-45,-124,-55
-126,-91,35,108,-80,-28,114,96,-29,-43,-126,-55
-103,-72,31,87,-67,-20,116,109,-13,-33,-124,-55
-77,-52,24,64,-50,-14,114,109,3,-23,-119,-55
-85,-51,34,68,-59,-9,116,127,22,-10,-113,-55
-96,-45,51,70,-73,3,117,155,47,2,-106,-57
-87,-42,45,64,-66,1,123,200,80,21,-99,-61
-75,-36,39,55,-56,1,126,248,130,42,-93,-60
-73,-33,40,52,-56,3,133,293,180,57,-90,-61
-51,-26,24,38,-37,-1,158,343,237,83,-91,-60
-82,-21,61,52,-71,20,179,420,311,117,-89,-61
-126,-16,110,70,-117,47,199,478,368,144,-94,-65
-113,-10,103,61,-108,47,198,530,419,160,-101,-65
-111,-5,105,57,-108,50,190,569,451,162,-100,-65
-105,0,105,52,-105,52,188,554,445,153,-100,-65
-102,3,105,49,-104,54,182,531,435,148,-100,-66
-96,7,103,44,-100,55,178,455,380,133,-101,-61
-83,10,93,36,-88,51,146,357,286,102,-96,-46
-73,15,88,29,-81,51,107,266,195,77,-85,-33
-63,17,79,23,-71,48,84,177,118,58,-56,-13
-49,24,73,12,-61,48,69,111,44,38,-33,7
-34,31,65,1,-50,48,61,53,-19,24,-35,12
-35,26,61,4,-48,43,52,19,-45,16,-35,18
-34,23,58,5,-46,40,42,1,-71,8,-38,21
-37,20,56,8,-46,38,43,-12,-84,-2,-41,27
-36,16,51,10,-44,33,45,-22,-94,-9,-39,30
-38,13,51,13,-45,32,45,-21,-100,-10,-36,25
-39,7,46,16,-43,27,45,-20,-90,-10,-35,25
-43,2,45,20,-45,24,45,-19,-85,-10,-34,25
-43,-1,42,22,-42,20,44,-14,-77,-10,-30,25
-44,-6,38,25,-41,15,38,-16,-71,-9,-30,26
-96,-10,86,53,-91,37,56,-12,-66,-5,-32,22
-90,-15,75,52,-82,30,67,-3,-59,-5,-42,20
-59,-20,39,39,-49,9,59,7,-53,-3,-44,20
-71,-23,48,47,-59,12,58,21,-46,0,-35,20
-73,-29,44,51,-58,7,53,20,-38,0,-30,20
-73,-28,45,50,-59,8,50,12,-37,-4,-22,20
-68,-22,46,44,-56,12,47,6,-39,-6,-16,20
-62,-19,43,40,-52,11,44,-1,-43,-5,-18,20
-54,-13,40,34,-47,13,41,-8,-45,-5,-20,20
-49,-10,40,29,-45,15,38,-12,-49,-5,-20,20
-45,-5,39,25,-42,17,35,-17,-68,-5,-20,19
-54,-5,49,29,-51,22,35,-20,-78,-5,-20,23
-62,-5,57,33,-59,26,35,-24,-79,-5,-19,25
-57,-3,54,29,-55,26,35,-27,-76,-5,-15,25
-47,3,51,22,-49,27,35,-31,-70,-5,-16,28
-39,10,49,15,-45,29,35,-42,-66,-5,-13,30
-44,13,56,15,-50,34,35,-40,-62,-2,-10,29
-30,40,70,-5,-50,55,31,-25,-55,7,-11,36
-27,65,92,-19,-60,78,21,-19,-53,37,-6,52
-22,75,97,-27,-60,85,14,-4,-44,53,0,58
-8,86,93,-39,-51,89,-13,-10,-42,44,9,61
-15,81,96,-33,-56,88,-35,-50,-66,38,12,68
-3,89,93,-44,-48,91,-39,-61,-74,31,26,67
24,85,60,-55,-18,73,-52,-60,-74,24,34,59
23,58,35,-41,-6,46,-49,-59,-88,18,22,53
2,37,35,-20,-17,36,-27,-62,-103,9,16,46
-31,0,31,16,-31,15,-2,-58,-103,-5,3,39
-59,-31,28,44,-43,-1,3,-63,-109,-12,0,35
-59,-33,26,45,-42,-3,13,-66,-112,-29,-10,28
-53,-30,23,41,-38,-3,16,-68,-124,-30,-8,33
-48,-31,18,39,-33,-6,25,-74,-143,-42,-19,25
-41,-23,17,32,-29,-3,31,-51,-111,-29,-19,27
-48,-28,20,38,-34,-4,22,-82,-138,-27,4,24
-42,-4,37,23,-39,17,67,92,67,78,33,19
46,75,29,-61,8,52,79,320,426,441,243,138
433,185,-248,-308,340,-31,-88,335,546,971,785,542
858,275,-583,-567,720,-154,-496,-29,195,1161,1253,985
684,254,-430,-469,557,-88,-675,-738,-683,295,846,873
288,153,-135,-220,212,9,-482,-907,-1020,-459,214,493
101,24,-77,-63,89,-26,-256,-560,-640,-356,8,227
-17,-70,-53,44,18,-61,-34,-233,-303,-225,-106,38
-81,-95,-15,88,-33,-55,56,-75,-147,-132,-79,2
-128,-92,36,110,-82,-27,79,-49,-107,-93,-65,-14
-139,-86,54,113,-96,-16,96,-18,-72,-86,-76,-23
-147,-83,63,114,-105,-9,94,-12,-62,-71,-62,-29
-156,-77,79,116,-118,1,103,0,-50,-70,-69,-47
-139,-74,65,106,-101,-4,92,11,-34,-56,-62,-40
-136,-69,67,102,-102,-1,94,17,-23,-55,-64,-37
-124,-66,59,95,-91,-3,86,29,-7,-45,-58,-33
-118,-63,56,90,-87,-3,86,42,3,-39,-61,-27
-122,-58,64,90,-93,3,98,60,25,-33,-55,-28
-99,-55,44,77,-71,-6,100,66,30,-26,-55,-36
-85,-51,34,68,-60,-8,101,72,46,-15,-55,-34
-79,-45,34,61,-56,-5,98,96,80,-2,-47,-30
-78,-40,37,59,-57,-1,109,122,112,17,-43,-28
-86,-34,52,60,-69,9,122,174,155,35,-37,-24
-87,-29,58,58,-72,14,134,233,216,61,-32,-28
-96,-24,72,59,-84,24,144,266,262,80,-26,-38
-94,-16,78,54,-85,31,161,337,328,113,-25,-40
-80,-8,72,44,-76,32,182,412,408,149,-25,-44
-72,1,73,36,-73,37,194,460,448,160,-25,-45
-61,6,67,27,-64,36,206,496,489,165,-25,-51
-52,23,75,14,-63,49,211,487,498,155,-25,-55
-63,38,101,13,-83,69,217,468,476,149,-24,-48
-65,34,99,16,-82,66,193,426,439,142,-18,-45
-57,31,88,13,-72,59,160,351,372,122,-12,-39
-53,29,82,12,-68,55,135,252,277,93,-6,-36
-49,24,73,12,-62,48,94,142,173,62,-1,-24
-40,29,69,5,-54,48,62,71,104,44,7,3
-27,35,61,-4,-44,48,44,17,57,32,23,13
-31,27,59,2,-45,43,38,-23,13,23,32,17
-29,21,50,4,-40,35,35,-52,-17,15,30,23
-33,15,48,9,-40,31,31,-75,-35,5,30,29
-33,7,40,13,-37,23,28,-81,-47,-3,30,34
-35,7,42,14,-38,24,24,-77,-45,-5,30,32
-47,12,58,17,-53,35,21,-75,-40,-8,30,27
-37,15,52,11,-45,34,19,-72,-38,-11,34,24
-62,18,80,22,-71,49,21,-69,-33,-15,35,20
-73,23,96,25,-84,59,19,-77,-31,-15,35,17
-55,25,80,15,-68,52,21,-79,-25,-11,40,14
-56,20,77,18,-67,48,17,-72,-15,-8,40,8
-46,20,66,13,-56,43,14,-68,-5,-5,40,2
-50,19,69,16,-60,43,34,-61,5,-3,40,-2
-55,15,70,20,-63,42,42,-56,15,1,40,-9
-55,15,70,20,-63,42,36,-59,16,-3,40,-14
-57,17,75,20,-66,46,35,-60,9,-5,40,-12
-55,21,75,17,-65,47,31,-63,3,-5,40,-9
-54,20,73,17,-63,46,30,-65,-4,-9,40,-6
-50,20,70,15,-60,45,27,-66,-11,-11,40,-3
-50,20,70,15,-60,45,24,-79,-18,-9,40,-1
-51,19,70,16,-60,45,21,-87,-24,-6,40,1
-54,16,70,19,-63,42,18,-83,-30,-4,40,6
-55,14,69,21,-63,41,16,-92,-38,-6,41,11
-51,17,68,17,-60,42,13,-101,-36,-5,45,16
-44,12,56,16,-51,33,8,-96,-28,-6,47,19
-51,27,78,12,-65,52,2,-94,-21,-2,50,25
-52,50,101,1,-77,76,-2,-89,-14,11,54,23
-26,74,100,-24,-64,87,-9,-85,3,22,70,28
4,103,99,-53,-48,101,-13,-87,23,34,90,42
7,107,100,-57,-47,103,-14,-90,16,35,94,48
-8,107,115,-50,-62,111,-44,-115,1,28,106,47
8,115,107,-62,-49,111,-64,-133,-6,25,107,54
13,107,94,-60,-41,100,-55,-133,-16,17,96,69
35,83,48,-59,-6,65,-53,-139,-22,13,92,65
51,77,26,-64,12,51,-48,-157,-31,8,78,57
-6,51,57,-23,-32,54,-26,-153,-41,-3,58,29
-41,14,55,13,-48,34,-13,-156,-60,-11,52,5
-54,6,60,24,-58,33,-5,-162,-62,-24,43,5
-70,-1,69,35,-69,34,-6,-156,-56,-31,39,1
-91,-7,84,49,-87,38,0,-166,-83,-53,30,-1
-92,-15,77,53,-84,31,4,-138,-61,-42,24,-6
-100,-19,82,59,-91,31,3,-166,-87,-40,29,-2
-77,4,81,37,-79,42,46,-17,66,26,44,6
23,74,51,-49,-14,62,54,228,438,357,207,81
314,189,-125,-251,219,32,-60,289,612,877,697,430
817,298,-519,-557,668,-110,-450,3,359,1206,1254,908
775,304,-471,-539,623,-83,-707,-707,-465,521,1012,906
346,208,-137,-277,241,35,-546,-1008,-979,-394,328,532
172,86,-86,-128,129,0,-315,-718,-687,-413,52,237
34,-8,-42,-12,38,-24,-79,-350,-302,-240,-71,27
-44,-41,3,42,-23,-19,35,-167,-127,-161,-90,-47
-81,-46,35,64,-58,-5,65,-135,-69,-105,-69,-56
-102,-43,59,72,-80,8,102,-96,-29,-93,-77,-63
-86,-39,47,62,-66,4,99,-96,-3,-69,-60,-68
-119,-38,81,78,-99,21,112,-80,16,-71,-64,-78
-89,-33,56,61,-72,11,109,-64,22,-59,-53,-73
-71,-42,28,56,-49,-7,114,-51,24,-55,-56,-76
-106,-55,51,80,-78,-2,116,-38,35,-48,-54,-75
-92,-50,41,71,-66,-4,113,-27,43,-41,-49,-75
-118,-45,73,81,-95,14,127,-11,77,-34,-51,-70
-143,-40,104,91,-123,32,129,1,89,-24,-47,-63
-125,-33,92,79,-108,29,143,19,103,-16,-45,-59
-119,-29,89,74,-104,30,150,33,131,-4,-45,-53
-105,-22,83,64,-94,30,156,63,154,19,-41,-46
-93,-16,77,54,-85,30,182,98,192,34,-40,-48
-82,-9,73,45,-77,32,187,134,228,43,-40,-56
-65,-3,63,34,-64,30,194,193,290,67,-36,-55
-47,4,52,22,-50,28,214,269,367,109,-35,-55
-77,11,88,33,-82,49,235,330,428,148,-35,-55
-92,17,109,37,-101,63,254,390,487,166,-29,-54
-78,24,103,26,-91,63,271,443,538,193,-31,-58
-76,31,107,22,-92,68,269,440,543,198,-28,-60
-67,37,104,14,-85,70,255,423,534,187,-20,-60
-66,41,107,12,-87,74,246,388,503,174,-45,-54
-42,53,95,-6,-69,74,228,301,423,142,-48,-45
-40,60,100,-10,-70,80,207,202,339,113,-30,-41
-58,53,111,2,-85,82,169,104,245,83,-18,-28
-45,49,94,-2,-70,71,140,-2,143,58,-3,-9
-43,42,85,0,-64,64,135,-58,82,46,12,22
-46,38,84,4,-65,60,130,-90,54,38,38,41
-39,33,72,3,-56,53,124,-133,37,30,41,28
-47,42,89,2,-68,65,118,-135,27,22,32,47
-39,50,89,-6,-64,69,116,-138,14,16,31,63
-17,43,61,-13,-39,52,120,-147,6,10,24,55
-10,39,49,-14,-30,43,119,-141,5,5,21,54
-24,33,57,-5,-41,45,122,-139,5,-1,23,49
-35,27,62,4,-49,44,125,-134,5,-7,26,45
-29,23,52,3,-41,38,124,-131,6,-9,25,47
-64,18,82,23,-73,50,129,-128,15,-3,25,50
-76,16,92,29,-84,54,130,-124,25,4,25,50
-67,12,79,27,-73,46,130,-126,35,11,24,54
-71,10,81,31,-76,45,135,-121,45,18,20,55
-44,29,72,7,-58,50,135,-120,48,24,20,55
-32,37,70,-3,-51,53,135,-120,45,29,18,60
-35,30,66,2,-51,48,135,-115,42,30,14,60
-25,29,54,-2,-40,42,135,-115,40,30,15,61
-42,24,66,8,-54,45,135,-114,36,30,15,65
-70,21,91,25,-80,56,135,-116,35,31,16,64
-73,18,90,28,-82,54,135,-113,31,28,32,67
-75,14,89,30,-82,51,131,-126,25,25,42,81
-70,15,86,27,-79,51,130,-148,20,23,38,79
-70,15,84,27,-77,50,130,-143,14,19,36,82
-72,14,86,28,-79,50,130,-141,8,17,32,101
-60,31,91,15,-76,61,131,-138,6,13,29,107
-49,44,93,2,-71,68,128,-134,21,23,30,108
-44,60,104,-8,-74,82,144,-137,45,39,47,111
-38,84,121,-23,-80,102,144,-140,72,68,81,137
-21,97,118,-38,-70,107,131,-140,87,89,95,157
-11,118,129,-54,-70,123,110,-139,74,81,90,155
-3,124,126,-61,-65,125,72,-163,59,71,81,149
6,113,106,-60,-50,109,63,-184,46,64,78,155
7,101,94,-55,-44,98,67,-187,26,52,67,168
9,90,81,-50,-37,86,63,-183,17,44,70,158
3,74,71,-39,-35,73,77,-188,5,32,85,145
-12,47,59,-17,-36,52,112,-182,2,18,77,134
-18,36,55,-9,-37,46,124,-187,-6,14,73,130
-22,28,50,-3,-36,39,125,-180,-12,3,60,129
-25,23,48,0,-37,35,127,-173,-9,10,59,130
-30,13,43,8,-37,28,130,-178,-24,-6,47,122
-32,8,40,12,-37,24,132,-153,-8,4,60,128
-21,12,33,5,-27,22,130,-186,-26,-10,51,118
-18,31,48,-7,-33,40,173,-1,200,106,63,109
48,116,67,-82,-10,91,184,218,560,522,320,260
467,225,-242,-346,354,-8,-11,230,684,1088,917,710
899,352,-546,-625,722,-97,-408,-153,303,1269,1404,1159
656,333,-323,-494,489,5,-555,-889,-639,320,936,1028
252,183,-69,-217,160,56,-362,-1000,-940,-448,269,633
90,69,-21,-79,55,24,-131,-625,-507,-318,53,328
-39,-35,4,37,-21,-15,73,-314,-190,-210,-96,136
-65,-48,17,56,-41,-15,152,-178,-41,-108,-74,109
-103,-43,60,72,-81,9,167,-159,-3,-68,-38,101
-125,-47,77,86,-101,15,181,-118,35,-54,-36,98
-101,-42,59,71,-79,8,177,-119,69,-36,-24,100
-104,-49,56,76,-80,3,183,-103,86,-44,-27,95
-78,-32,46,55,-61,6,184,-95,85,-28,-16,90
-95,-48,47,71,-71,-1,185,-86,87,-33,-17,110
-112,-40,71,76,-91,15,181,-74,123,-22,-19,100
-120,-70,50,95,-85,-10,179,-66,130,-20,-24,144
-147,-110,38,128,-92,-36,182,-54,130,-8,-24,91
-140,-80,60,110,-100,-10,177,-45,136,-1,-40,152
-137,-73,64,105,-100,-4,186,-21,158,11,-37,92
-140,-75,65,107,-102,-4,210,7,196,37,-20,135
-121,-57,64,89,-93,4,212,26,222,54,1,263
