I,II,III,aVR,aVL,aVF,V1,V2,V3,V4,V5,V6
-45,10,55,17,-50,32,-64,-34,-44,5,-5,-10
-45,10,55,17,-50,32,-58,-29,-38,7,-5,-10
-40,11,50,14,-45,30,-50,-23,-30,13,-2,-6
-24,24,48,0,-36,36,-41,-15,-21,16,1,-4
-18,26,43,-4,-31,34,-33,-8,-13,21,5,0
-19,21,40,-1,-29,30,-24,3,-5,25,5,0
-29,19,48,5,-38,34,-15,12,0,25,0,-5
-29,16,45,7,-38,30,-6,25,9,25,0,-5
-23,14,37,4,-30,25,9,51,26,25,1,-6
-22,9,31,7,-27,20,21,75,41,25,-1,-10
-13,0,13,7,-13,6,38,117,66,26,1,-10
12,-4,-16,-4,14,-10,61,171,100,21,-5,-13
22,-18,-41,-2,31,-29,82,230,131,5,-20,-30
37,-46,-83,5,60,-64,109,304,174,-11,-32,-39
101,-58,-159,-21,131,-108,133,387,221,-27,-51,-50
149,-73,-222,-38,185,-147,145,455,253,-49,-75,-72
172,-93,-266,-39,220,-179,140,487,274,-74,-83,-71
196,-91,-287,-52,241,-188,132,488,272,-87,-76,-64
184,-86,-270,-49,228,-178,127,439,242,-85,-66,-63
137,-61,-198,-38,168,-129,101,337,194,-67,-60,-53
80,-21,-101,-29,91,-60,65,212,132,-32,-47,-29
36,3,-32,-19,34,-14,38,102,76,0,-11,-13
-5,20,25,-8,-16,23,23,35,35,19,7,-12
-34,22,56,6,-45,39,18,-4,7,21,4,-5
-45,18,63,13,-54,40,11,-37,-12,20,6,-2
-58,16,74,21,-66,45,4,-50,-26,20,5,5
-73,12,85,30,-79,48,-3,-52,-37,20,5,16
-76,10,86,33,-81,47,-3,-58,-41,20,7,15
-71,12,83,29,-77,47,1,-61,-40,15,10,12
-65,15,80,25,-73,47,3,-66,-40,15,10,9
-65,15,80,25,-73,47,6,-70,-40,15,10,6
-63,15,78,24,-71,46,9,-70,-40,15,10,4
-55,15,70,20,-63,43,11,-70,-43,15,9,1
-50,14,64,18,-58,39,15,-70,-46,13,6,-2
-46,11,57,17,-52,34,20,-70,-45,7,1,-4
-43,8,51,17,-47,29,24,-68,-49,3,-1,-8
-39,6,45,16,-42,25,28,-65,-50,-1,-6,-10
-39,2,41,18,-40,21,34,-62,-50,-6,-9,-12
-39,0,38,19,-38,19,33,-59,-55,-10,-13,-20
-35,0,35,17,-35,17,29,-56,-55,-15,-15,-24
-32,0,33,16,-32,16,31,-55,-55,-15,-15,-20
-30,0,30,15,-30,15,26,-59,-55,-16,-18,-20
-30,0,30,15,-30,15,25,-61,-54,-20,-21,-20
-30,0,30,15,-30,15,25,-59,-58,-20,-19,-20
-29,1,30,14,-30,15,20,-64,-60,-20,-16,-21
-25,5,30,10,-28,17,20,-75,-60,-20,-15,-17
-25,5,30,10,-28,17,20,-75,-63,-20,-15,-15
-25,5,30,10,-28,17,20,-75,-66,-20,-15,-15
-20,5,25,7,-23,15,20,-75,-64,-20,-15,-15
-20,5,25,7,-23,15,22,-74,-61,-19,-18,-15
-22,3,25,9,-24,14,26,-78,-59,-16,-20,-14
-31,-7,25,18,-28,9,24,-80,-60,-15,-20,-11
-38,-13,26,25,-32,6,26,-80,-59,-15,-20,-10
-35,-9,26,22,-30,8,24,-80,-61,-15,-21,-10
-22,4,26,9,-25,15,25,-80,-57,-16,-19,-10
-12,10,23,0,-18,16,20,-80,-47,-11,-16,-10
-13,28,40,-8,-27,34,25,-68,-37,7,-11,-8
-9,59,68,-25,-39,63,62,-50,-28,19,0,0
-5,68,72,-32,-39,70,73,-51,-29,33,13,4
1,70,69,-36,-34,70,60,-50,-36,37,31,18
5,70,65,-38,-30,68,24,-50,-37,28,35,29
2,66,64,-34,-32,65,-8,-82,-45,19,24,21
26,58,32,-42,-3,45,-24,-97,-50,10,17,14
36,55,19,-46,8,37,-38,-102,-59,1,9,8
-1,18,20,-9,-11,19,-13,-97,-60,-7,1,-1
-39,-19,20,29,-29,1,2,-103,-65,-9,-6,-4
-52,-26,27,38,-39,0,9,-98,-68,-20,-20,-14
-37,-17,20,26,-28,2,-1,-100,-59,-18,-24,-13
-43,-9,34,26,-38,12,17,-101,-75,-33,-28,-25
-59,-36,23,47,-41,-6,1,-84,-51,-23,-13,-26
-71,-33,38,52,-55,3,23,-95,-79,-27,-27,-29
-62,-136,-74,99,6,-105,110,-3,-23,-83,-101,-99
-4,-221,-217,113,107,-219,174,176,95,-47,-99,-116
349,-89,-439,-130,394,-264,229,820,817,370,187,97
511,208,-304,-359,407,-48,-36,687,1122,711,532,421
-2,273,275,-136,-139,274,-290,-716,-340,34,219,274
-248,-66,182,157,-215,58,-314,-1012,-985,-591,-275,-116
-175,-157,19,166,-96,-69,-169,-450,-450,-363,-226,-144
-144,-61,83,102,-113,11,45,-159,-180,-108,-68,-59
-76,-42,34,59,-55,-5,37,-64,-58,-36,-17,-25
-75,-14,61,45,-68,23,38,-75,-77,-23,1,-8
-60,-22,38,40,-49,7,44,-39,-42,-11,1,-8
-58,-13,45,36,-51,15,35,-44,-36,-3,6,-2
-52,-13,39,32,-45,13,44,-28,-25,3,7,-1
-45,-10,34,27,-40,12,40,-24,-12,12,11,6
-43,-7,36,24,-39,14,54,-19,-16,14,7,2
-32,-4,28,18,-29,11,55,-9,-2,20,5,-1
-30,1,31,14,-31,16,61,-3,-3,22,5,0
-20,2,23,9,-22,12,62,13,7,27,5,0
-13,9,22,2,-18,15,65,22,11,30,5,0
-8,9,17,-1,-12,13,69,33,23,27,5,-1
-8,5,13,1,-11,9,81,54,33,24,11,-5
-11,0,10,6,-11,5,85,83,51,26,22,-5
-8,-4,4,6,-5,0,92,110,69,24,21,-6
11,-9,-20,0,15,-14,112,157,91,26,10,-10
30,-12,-42,-9,37,-27,129,216,125,23,-2,-10
60,-26,-86,-17,73,-56,154,287,165,11,-12,-13
96,-55,-151,-20,124,-103,178,365,201,-8,-28,-31
134,-77,-211,-28,173,-144,182,439,247,-31,-49,-46
180,-92,-272,-44,226,-182,176,489,269,-54,-71,-55
211,-90,-301,-60,257,-196,173,491,254,-82,-84,-62
230,-80,-310,-74,270,-195,167,464,244,-81,-80,-55
189,-69,-258,-60,224,-164,137,377,209,-56,-72,-51
116,-36,-152,-40,134,-94,98,252,150,-27,-33,-28
70,-6,-76,-32,73,-40,61,136,98,-1,1,2
34,9,-25,-21,29,-8,28,44,45,16,4,5
20,21,1,-21,10,11,12,-6,6,28,11,8
12,21,9,-17,1,15,9,-38,-8,37,15,11
4,20,16,-12,-6,18,6,-55,-14,36,22,14
-3,20,22,-9,-12,21,3,-65,-21,29,24,15
-14,15,29,-1,-22,22,1,-75,-28,26,19,10
-20,15,35,2,-28,25,-2,-75,-34,21,21,10
-25,15,40,5,-33,27,-5,-76,-32,17,17,10
-25,15,40,5,-33,27,-5,-79,-29,12,15,10
-26,15,41,5,-34,28,-7,-81,-30,10,15,11
-30,15,45,7,-38,30,-11,-79,-30,10,11,7
-30,15,45,7,-38,30,-10,-75,-30,6,10,5
-28,15,43,6,-36,28,-7,-71,-30,5,10,5
-28,12,40,8,-34,26,-4,-68,-30,5,10,1
-33,7,40,13,-37,23,-1,-63,-30,1,11,0
-35,5,40,15,-38,22,2,-60,-30,-2,8,0
-40,0,40,20,-40,20,5,-64,-30,-5,5,-5
-43,-3,40,23,-41,18,4,-66,-30,-8,2,-8
-42,-7,35,24,-38,14,-1,-65,-33,-10,0,-12
-42,-10,32,26,-37,11,-4,-66,-38,-12,-3,-15
-33,-5,28,19,-30,11,-7,-64,-42,-15,-5,-20
-30,-4,25,16,-27,11,-12,-67,-45,-15,-5,-18
-25,-5,19,15,-21,6,-15,-70,-45,-15,-5,-13
-28,-5,23,16,-25,9,-15,-70,-45,-15,-5,-10
-33,-5,28,19,-30,11,-15,-74,-45,-15,-5,-7
-32,-5,26,18,-28,10,-15,-75,-45,-15,-5,-2
-47,-1,46,24,-46,22,-15,-78,-49,-15,-5,0
-50,0,50,25,-50,25,-15,-83,-56,-15,-5,-5
-41,0,41,20,-41,20,-16,-87,-61,-15,-5,-5
-35,5,40,15,-38,22,-22,-90,-65,-15,-5,-6
-28,5,33,11,-31,19,-25,-92,-65,-12,-5,-10
-26,4,30,11,-28,17,-30,-96,-66,-4,-6,-10
-40,-9,30,25,-35,10,-26,-98,-65,4,0,-7
-37,-5,31,21,-34,13,-24,-102,-66,12,9,1
-21,31,53,-5,-37,42,-24,-88,-53,20,17,9
-17,61,78,-22,-48,69,11,-65,-23,25,26,17
9,82,73,-46,-32,77,32,-64,-14,34,32,24
17,83,65,-50,-24,74,17,-67,-15,36,32,33
16,72,56,-45,-20,64,-21,-61,-7,30,28,37
19,70,50,-45,-16,60,-64,-82,-23,26,27,29
17,58,41,-38,-12,50,-72,-104,-42,21,22,20
21,58,36,-40,-8,47,-70,-113,-53,17,22,14
2,32,30,-17,-14,30,-58,-114,-60,11,17,4
-17,4,20,6,-18,12,-58,-120,-60,7,9,2
-22,-2,21,12,-21,9,-43,-118,-78,-3,-4,-7
-12,-10,2,11,-7,-4,-45,-109,-65,-6,-15,-8
-38,-6,32,22,-35,13,-34,-117,-79,-15,-19,-14
-37,-25,12,30,-24,-7,-32,-96,-49,-21,-24,-21
-35,-6,29,20,-32,12,-36,-117,-65,-21,-10,-11
-66,-90,-24,78,-21,-57,56,-24,-44,-68,-73,-78
-34,-198,-164,116,65,-181,119,102,36,-89,-131,-129
249,-119,-368,-65,308,-243,200,672,596,215,78,13
562,148,-414,-355,488,-133,6,903,1206,649,445,335
156,345,190,-251,-17,267,-307,-422,30,223,318,335
-243,56,299,93,-271,177,-375,-1092,-991,-504,-200,-53
-169,-152,17,161,-93,-68,-278,-572,-566,-439,-280,-174
-138,-61,77,99,-107,8,-43,-219,-220,-145,-101,-87
-68,-24,44,45,-55,10,2,-78,-68,-44,-37,-47
-52,7,59,22,-56,33,-4,-81,-60,-16,-11,-25
-50,6,56,21,-53,31,17,-49,-40,-6,-8,-23
-39,11,50,14,-45,30,4,-46,-28,2,-4,-15
-40,15,55,12,-48,35,21,-37,-29,6,0,-13
-27,17,45,5,-36,31,15,-22,-9,15,3,-7
-34,21,55,7,-44,38,25,-23,-15,20,7,-4
-33,13,46,10,-40,29,24,-9,2,25,10,-6
-36,16,53,10,-45,34,29,-9,1,25,10,-4
-31,14,45,8,-38,30,31,3,12,25,12,-5
-30,15,45,7,-38,30,34,9,16,25,16,-5
-27,16,43,6,-36,29,36,20,25,25,15,-5
-29,10,39,10,-34,24,41,39,34,23,11,-8
-37,3,39,17,-38,21,54,63,41,16,4,-14
-19,-4,15,12,-17,5,57,92,56,11,-3,-19
-4,-12,-8,8,2,-9,76,132,77,6,-9,-22
8,-19,-27,6,17,-23,95,188,106,-1,-17,-28
55,-27,-82,-13,69,-54,118,265,143,-4,-21,-31
102,-35,-137,-33,120,-86,142,338,186,-21,-36,-41
130,-66,-196,-32,163,-131,159,413,224,-45,-61,-64
163,-99,-262,-32,213,-180,173,470,245,-67,-82,-85
199,-110,-309,-44,254,-210,163,489,241,-90,-100,-93
197,-109,-306,-44,252,-207,151,467,230,-86,-91,-80
166,-88,-255,-39,211,-171,131,381,207,-79,-77,-67
121,-56,-177,-33,149,-117,89,261,153,-57,-56,-46
56,-26,-82,-15,69,-54,50,144,94,-15,-15,-13
16,-10,-27,-3,22,-18,21,57,49,-2,-3,-4
0,-4,-4,2,2,-4,5,2,14,2,1,-3
-15,-1,15,8,-15,7,-2,-36,-8,8,6,1
-31,5,35,13,-33,20,-6,-61,-18,13,9,3
-36,6,42,15,-39,24,-10,-72,-24,19,15,6
-33,2,35,15,-35,18,-15,-71,-31,16,15,8
-35,0,35,17,-35,17,-20,-70,-38,15,15,11
-33,-4,30,18,-31,13,-20,-70,-44,15,15,10
-36,-6,31,21,-33,12,-20,-70,-49,15,15,10
-30,-1,29,16,-29,14,-20,-71,-50,15,15,10
-34,0,34,17,-34,17,-20,-67,-51,14,14,9
-33,2,35,15,-34,18,-21,-65,-54,9,9,5
-31,6,37,12,-35,21,-18,-65,-56,3,4,3
-51,4,55,23,-53,29,-15,-62,-53,0,0,0
-56,-2,53,29,-54,25,-15,-60,-50,-5,-5,-4
-58,-9,49,33,-53,20,-15,-61,-50,-9,-10,-5
-57,-10,46,33,-52,18,-15,-65,-47,-14,-14,-8
-51,-10,41,30,-46,15,-15,-65,-45,-15,-15,-10
-49,-10,39,30,-44,14,-19,-65,-44,-15,-15,-10
-44,-10,35,26,-39,12,-20,-65,-52,-20,-15,-10
-46,-10,35,28,-41,12,-20,-64,-65,-20,-15,-10
-44,-9,35,26,-39,13,-25,-68,-65,-21,-15,-9
-40,-5,35,22,-37,15,-25,-70,-65,-25,-15,-5
-41,-5,36,22,-38,15,-25,-77,-65,-25,-15,-5
-36,-5,31,20,-33,13,-25,-85,-64,-25,-15,-5
-35,-5,30,20,-32,12,-25,-86,-67,-25,-15,-5
-34,-5,29,20,-31,12,-25,-91,-70,-25,-15,-5
-32,-2,31,17,-31,15,-30,-87,-70,-22,-15,-2
-27,3,29,12,-28,16,-30,-84,-72,-19,-15,1
-24,6,30,9,-27,17,-26,-86,-76,-20,-15,-1
-15,9,24,2,-19,16,-22,-81,-75,-20,-15,1
-6,13,20,-4,-13,16,-19,-80,-69,-20,-15,-2
-26,17,44,4,-36,30,-15,-79,-52,-18,-14,-12
-22,39,61,-9,-42,49,-9,-70,-43,8,0,11
-14,72,85,-29,-50,78,8,-52,-45,30,14,22
-6,78,84,-37,-45,81,15,-49,-45,35,24,21
10,68,58,-39,-24,63,-27,-51,-46,46,33,38
6,63,58,-35,-26,60,-69,-64,-42,45,33,35
1,53,53,-27,-26,53,-86,-98,-55,30,25,26
2,48,46,-25,-22,47,-90,-108,-57,25,21,21
-13,33,46,-10,-30,39,-68,-113,-65,11,14,12
-34,-4,30,19,-32,13,-65,-110,-72,3,6,6
-38,-15,23,26,-30,4,-64,-121,-87,-10,-5,1
-41,-31,9,36,-25,-11,-56,-115,-76,-23,-19,-2
-46,-37,9,42,-27,-14,-63,-124,-80,-28,-20,2
-64,-49,15,56,-39,-17,-45,-111,-81,-37,-23,-11
-55,-41,14,48,-34,-13,-64,-112,-61,-2,-8,4
-56,-56,0,56,-28,-28,-6,-97,-100,-45,-49,-29
-68,-192,-125,130,29,-158,65,10,-36,-103,-125,-123
65,-209,-274,72,169,-241,162,306,206,25,-59,-83
454,-8,-462,-223,458,-235,174,1004,1115,586,340,237
393,343,-50,-368,221,146,-146,432,928,742,599,519
-139,327,467,-94,-303,397,-336,-895,-652,-139,124,241
-216,-64,152,140,-184,44,-342,-823,-834,-569,-295,-113
-140,-121,19,130,-79,-51,-166,-356,-345,-277,-195,-116
-102,-42,60,72,-81,9,7,-130,-133,-83,-71,-56
-55,-37,18,45,-36,-10,-10,-62,-39,-28,-32,-15
-65,-19,46,42,-55,13,12,-66,-61,-17,-17,-4
-29,-15,14,22,-21,-1,2,-30,-19,-2,-14,-4
-42,-3,39,22,-40,18,5,-46,-38,1,-9,1
-50,-3,48,27,-49,22,6,-22,-15,12,-5,2
-44,2,46,21,-45,24,3,-26,-17,18,0,6
-35,6,40,15,-38,23,12,-15,-7,32,0,4
-26,9,36,8,-31,22,10,-10,-1,41,0,6
-23,9,32,7,-28,20,16,-2,1,39,0,4
-27,4,31,12,-30,17,17,9,11,41,0,6
-41,3,44,19,-42,23,20,15,12,37,1,4
-37,-2,36,19,-36,17,24,30,23,35,-2,7
-28,-4,24,16,-26,10,37,43,33,36,-5,18
-19,-5,13,12,-15,4,44,75,54,34,-10,11
-11,-12,-1,12,-5,-6,56,110,76,36,-12,3
5,-22,-27,9,16,-24,81,157,105,34,-18,-5
35,-33,-68,0,52,-51,104,224,144,27,-19,-12
69,-41,-110,-14,90,-75,132,302,192,8,-27,-22
125,-59,-184,-33,155,-121,162,391,247,-17,-54,-42
172,-82,-254,-45,213,-168,176,469,289,-35,-69,-45
188,-104,-292,-42,240,-197,172,513,311,-62,-86,-47
207,-109,-316,-49,262,-212,167,512,310,-78,-95,-44
204,-84,-288,-60,246,-186,152,459,280,-80,-95,-41
160,-50,-210,-55,186,-130,117,343,217,-57,-65,-27
98,-15,-113,-42,106,-64,70,215,142,-21,-22,7
49,8,-41,-28,45,-17,27,104,78,-4,-7,17
28,26,-2,-27,15,12,-2,23,27,19,6,20
8,33,24,-21,-8,28,-15,-19,-8,27,6,25
-9,26,35,-9,-22,30,-22,-51,-28,19,4,21
-14,21,35,-4,-24,28,-29,-70,-43,13,6,14
-20,16,36,2,-28,26,-31,-75,-52,5,4,7
-31,10,40,10,-36,25,-35,-78,-55,-3,5,1
-34,5,40,14,-37,22,-34,-83,-55,-9,5,-7
-21,21,42,0,-32,31,-30,-85,-55,-6,5,-9
-16,32,48,-8,-32,39,-28,-85,-55,-5,5,-5
-23,29,52,-3,-37,40,-25,-85,-54,-4,5,-5
-24,31,55,-4,-39,42,-22,-85,-51,0,5,-5
-21,30,50,-4,-36,40,-20,-85,-50,0,5,-5
-16,30,46,-8,-31,38,-17,-80,-50,-2,0,-5
-16,28,44,-6,-30,35,-15,-72,-50,-5,0,-5
-18,21,39,-1,-29,30,-15,-66,-51,-5,-1,-5
-19,17,36,1,-28,26,-15,-60,-47,-5,-5,-5
-21,11,32,5,-27,21,-15,-52,-45,-5,-5,-5
-25,4,30,11,-28,17,-16,-53,-45,-5,-7,-5
-26,1,27,12,-26,13,-20,-55,-41,-5,-12,-7
-42,-18,24,29,-33,3,-20,-56,-40,-5,-14,-10
-52,-31,21,41,-36,-5,-22,-60,-40,-5,-11,-12
-39,-19,20,29,-29,0,-25,-61,-45,-5,-10,-15
-33,-7,25,20,-29,8,-25,-64,-49,-5,-10,-15
-24,0,24,11,-24,12,-25,-67,-52,-5,-10,-15
-21,5,26,8,-24,15,-25,-69,-55,-5,-11,-15
-15,8,24,3,-20,16,-24,-73,-57,-5,-7,-15
-15,14,29,0,-22,21,-27,-75,-61,-5,-5,-16
-36,13,49,12,-43,31,-35,-75,-58,-5,-5,-13
-42,8,50,17,-46,29,-35,-78,-54,-5,-1,-10
-45,5,50,20,-48,27,-35,-81,-55,1,0,-7
-48,2,50,23,-50,26,-35,-80,-55,6,0,-5
-53,-3,50,28,-51,23,-36,-75,-56,11,5,-2
-57,-5,52,31,-54,23,-33,-68,-55,17,12,0
-43,13,56,15,-50,34,-20,-62,-43,23,16,4
-29,44,73,-8,-51,58,5,-57,-27,27,23,14
-33,41,74,-5,-54,58,27,-54,-18,36,27,18
-35,42,77,-4,-56,59,30,-53,-14,45,33,29
1,73,72,-37,-36,72,-12,-46,-5,40,44,43
-3,77,80,-37,-42,78,-63,-66,-29,33,41,39
-17,62,79,-23,-48,70,-58,-94,-64,24,33,30
20,58,38,-40,-9,48,-55,-95,-62,19,30,24
-4,30,35,-13,-20,32,-48,-96,-70,9,23,15
-34,-7,27,20,-30,10,-46,-92,-59,8,18,9
-47,-12,35,30,-40,11,-40,-100,-73,-1,11,5
-46,-24,22,35,-34,-1,-35,-87,-67,0,3,1
-53,-23,30,38,-41,4,-36,-99,-80,-6,0,3
-61,-40,21,50,-41,-9,-19,-80,-74,-10,-13,-9
-55,-34,21,44,-38,-6,-37,-100,-70,-12,-9,4
-70,-68,2,69,-36,-33,33,-62,-87,-60,-47,-46
-62,-206,-144,135,41,-175,92,47,-9,-72,-129,-132
94,-202,-296,54,195,-249,205,448,333,103,-8,-47
492,44,-448,-268,470,-202,136,1071,1249,695,439,303
321,355,34,-338,143,194,-216,163,681,624,550,483
-181,202,382,-11,-282,292,-356,-1026,-859,-333,-12,115
-181,-132,49,156,-115,-41,-333,-745,-777,-550,-300,-158
-129,-102,27,116,-77,-37,-120,-291,-319,-214,-142,-100
-71,-38,33,54,-52,-2,6,-94,-146,-57,-45,-48
-35,-22,13,28,-24,-4,-11,-72,-81,-12,-10,-18
-49,-20,29,35,-39,5,16,-66,-94,-8,-3,-15
-41,-36,5,38,-23,-15,-2,-42,-62,3,0,-16
-55,-28,27,41,-40,0,14,-49,-82,0,4,-11
-45,-25,20,35,-32,-2,8,-28,-59,8,7,-11
-50,-14,36,31,-43,11,11,-34,-67,9,11,-9
-50,-13,38,31,-44,12,19,-20,-55,14,14,-7
-59,-14,44,36,-51,15,21,-20,-50,19,16,-3
-56,-17,38,36,-47,10,29,-5,-46,23,15,-1
-52,-21,31,36,-42,5,32,8,-38,24,15,3
-45,-15,29,30,-37,7,40,22,-36,20,15,5
-35,-16,19,25,-26,1,43,42,-23,20,13,3
-33,-14,19,23,-26,2,52,63,-2,20,6,-2
-21,-16,5,19,-13,-5,63,93,14,20,-1,-5
-7,-13,-6,11,0,-9,77,130,33,21,-7,-8
13,-19,-32,3,23,-26,100,189,62,13,-15,-13
37,-33,-69,-2,53,-51,124,257,95,-5,-20,-15
78,-35,-113,-21,95,-73,149,331,142,-18,-25,-24
119,-69,-188,-25,153,-128,172,418,189,-38,-41,-36
162,-88,-250,-37,207,-168,181,488,226,-62,-66,-51
206,-95,-301,-55,254,-198,178,516,239,-83,-84,-60
196,-112,-308,-42,252,-210,172,505,234,-97,-87,-51
177,-98,-274,-40,226,-186,146,440,206,-89,-78,-42
144,-67,-211,-38,178,-139,105,327,146,-64,-53,-34
83,-30,-112,-26,98,-71,61,197,75,-28,-20,-25
47,1,-46,-24,46,-22,22,90,18,-1,7,-15
20,15,-5,-17,12,4,1,29,-26,6,16,-4
0,22,22,-11,-11,22,-5,-20,-62,5,15,-4
-7,22,29,-7,-18,26,-10,-47,-78,5,15,-5
-11,19,30,-4,-20,25,-16,-54,-87,5,15,-6
-10,21,30,-6,-20,26,-22,-60,-84,4,14,-9
-10,19,29,-5,-19,24,-25,-59,-73,7,18,-11
-11,21,32,-5,-21,27,-25,-62,-66,10,20,-8
-8,18,26,-5,-17,22,-25,-65,-53,10,20,-5
-6,26,32,-10,-19,29,-25,-65,-33,10,20,-5
-6,45,51,-20,-29,48,-25,-63,-7,10,20,-3
-5,45,50,-20,-28,47,-25,-56,9,10,19,0
-5,45,50,-20,-28,47,-22,-51,10,10,16,0
-5,45,50,-20,-28,47,-16,-46,10,10,15,-4
-5,45,50,-20,-28,47,-11,-40,10,10,15,-5
-5,43,48,-19,-27,45,-8,-36,10,10,15,-5
-9,36,44,-14,-27,40,-2,-39,10,10,16,-10
-17,29,46,-7,-31,37,-1,-43,4,9,12,-10
-22,23,45,-1,-33,33,-8,-46,-3,3,6,-11
-30,15,45,7,-38,30,-14,-49,-9,-3,1,-16
-34,11,45,11,-39,27,-21,-52,-16,-7,-4,-19
-32,8,40,12,-36,24,-28,-59,-22,-14,-10,-22
-34,5,40,15,-38,22,-33,-65,-28,-19,-14,-27
-37,3,40,17,-39,21,-37,-68,-31,-17,-10,-30
-41,-1,40,21,-40,20,-40,-73,-35,-14,-10,-27
-37,3,40,17,-39,21,-44,-75,-40,-11,-9,-22
-35,5,40,15,-38,22,-44,-76,-40,-8,-5,-19
-35,5,40,15,-38,22,-40,-80,-40,-5,-5,-16
-35,5,40,15,-38,22,-40,-79,-40,-4,-3,-11
-34,6,40,14,-38,22,-40,-76,-40,1,1,-11
-36,4,40,16,-38,22,-40,-75,-38,5,3,-18
-39,1,40,19,-40,21,-41,-76,-33,7,6,-13
-36,-2,35,18,-35,16,-35,-75,-29,12,9,-6
-30,9,39,10,-35,24,-26,-74,-23,14,10,0
-11,51,63,-20,-38,57,-16,-77,-19,23,19,8
0,81,81,-41,-41,81,-11,-80,-15,32,32,13
7,90,83,-49,-38,87,-8,-84,-15,27,43,20
19,94,75,-57,-28,84,-28,-85,-16,24,52,30
19,89,70,-54,-25,79,-74,-89,-13,21,49,38
14,80,66,-47,-27,72,-89,-91,-20,15,37,30
18,75,57,-47,-20,66,-95,-94,-27,15,31,20
6,62,56,-34,-25,58,-81,-105,-47,5,19,10
-28,14,42,7,-35,27,-70,-104,-45,-1,12,0
-51,-7,44,28,-47,18,-66,-115,-57,-10,7,-4
-46,-19,28,32,-37,4,-62,-105,-56,-19,-3,-12
-52,-21,31,36,-41,5,-71,-115,-71,-22,-4,-12
-55,-33,22,44,-38,-5,-55,-106,-75,-33,-20,-26
-33,-19,15,26,-23,-2,-82,-112,-52,-15,-12,-19
-65,-40,25,53,-45,-8,-17,-77,-78,-43,-37,-41
-62,-173,-111,117,25,-142,60,20,-9,-95,-108,-123
85,-183,-268,49,177,-225,149,355,266,38,-48,-84
467,13,-454,-240,461,-221,125,1000,1141,570,329,222
403,322,-81,-363,242,121,-212,284,816,614,515,441
-137,217,354,-41,-246,285,-410,-1002,-745,-252,23,131
-217,-135,82,176,-149,-27,-372,-843,-824,-568,-305,-167
-132,-118,14,125,-73,-52,-120,-329,-315,-245,-166,-115
-85,-37,49,61,-67,6,29,-121,-127,-71,-53,-52
-46,-20,26,33,-36,3,-8,-72,-42,-19,-20,-23
-58,-5,52,32,-55,23,18,-70,-58,-7,-14,-13
-37,-7,30,22,-33,11,8,-49,-21,2,-9,-12
-44,3,47,21,-46,25,16,-59,-40,3,-10,-7
-32,3,35,15,-34,19,18,-40,-18,9,-7,-4
-31,11,42,10,-37,26,24,-39,-21,14,-4,1
-34,14,48,10,-41,31,36,-23,-14,17,-5,-4
-33,16,49,8,-42,32,38,-16,-4,21,0,-5
-33,12,45,10,-39,29,42,-5,1,23,0,-5
-29,10,39,10,-34,24,40,5,14,26,0,-5
-30,7,37,11,-34,22,46,17,18,29,0,-5
-26,4,30,11,-29,17,44,36,27,30,0,-6
-27,2,29,12,-28,15,48,52,32,30,-2,-11
-28,-6,22,16,-25,8,66,84,50,30,-8,-14
-9,-9,0,9,-4,-4,88,127,83,30,-12,-17
20,-17,-36,-2,28,-26,107,175,107,28,-17,-22
51,-21,-71,-15,61,-46,124,239,134,18,-22,-25
78,-29,-107,-24,93,-67,146,315,174,13,-25,-29
114,-53,-167,-31,141,-109,168,397,217,-15,-44,-41
161,-78,-240,-41,201,-159,170,467,251,-48,-77,-58
188,-101,-289,-43,239,-195,156,496,252,-66,-93,-60
204,-102,-306,-51,256,-204,146,492,239,-87,-87,-53
199,-89,-288,-55,244,-188,133,440,223,-80,-83,-52
167,-60,-228,-53,198,-144,106,324,173,-53,-66,-39
107,-27,-134,-39,121,-80,69,194,106,-21,-32,-12
40,-18,-58,-11,49,-37,33,92,59,-2,-6,14
9,-10,-19,1,14,-14,14,28,23,2,9,22
-9,0,9,5,-9,4,-2,-19,-2,10,11,20
-20,4,25,8,-23,14,-15,-48,-16,15,10,20
-20,6,25,7,-23,16,-20,-56,-25,23,10,20
-23,2,25,10,-24,13,-28,-62,-35,25,10,20
-23,0,23,11,-23,11,-34,-67,-44,25,10,21
-23,-4,19,13,-21,7,-42,-69,-45,25,10,25
-25,-5,20,15,-22,7,-44,-66,-45,25,10,25
-23,0,23,11,-23,12,-40,-63,-45,26,10,25
-18,8,27,5,-23,17,-40,-61,-45,29,10,25
-22,8,30,7,-26,19,-40,-57,-44,30,10,25
-29,4,33,12,-32,19,-39,-55,-40,30,6,22
-31,5,37,13,-35,21,-41,-53,-40,30,5,16
-39,1,40,19,-40,20,-29,-50,-38,30,5,12
-40,0,40,20,-40,20,-2,-47,-35,28,0,8
-42,0,42,21,-42,21,13,-44,-35,24,0,2
-50,-4,46,27,-48,21,24,-41,-39,25,-1,0
-52,-7,44,29,-48,18,28,-40,-40,21,-5,0
-53,-11,42,32,-48,16,23,-45,-40,20,-5,0
-51,-15,37,33,-43,11,22,-45,-44,20,-5,0
-49,-13,36,30,-42,11,18,-44,-46,15,-5,0
-60,-9,51,35,-56,21,16,-47,-43,15,-5,0
-66,-10,56,38,-61,22,14,-51,-40,14,-2,3
-65,-10,56,37,-61,23,8,-55,-40,10,1,6
-71,-10,60,41,-66,25,2,-60,-40,10,4,9
-69,-9,60,39,-65,25,-2,-60,-40,8,7,12
-59,-6,54,32,-56,24,-9,-64,-40,1,10,15
-53,-5,49,29,-50,22,-13,-65,-43,-4,9,14
-44,-5,38,24,-40,17,-20,-67,-52,-9,4,9
-19,-5,14,12,-16,4,-30,-77,-57,-15,-1,4
-2,-4,-2,3,1,-3,-40,-81,-54,-19,-6,0
-5,-8,-3,7,-1,-5,-47,-80,-49,-15,-10,-5
1,-9,-10,4,6,-10,-43,-73,-45,-7,-16,-10
-8,-11,-4,10,-2,-8,-49,-63,-40,-2,-5,-6
-22,13,35,5,-29,24,-22,-55,-35,7,19,5
-3,41,44,-19,-24,43,31,-51,-38,9,34,11
-4,50,54,-23,-30,52,29,-56,-41,12,44,24
6,77,71,-42,-33,73,1,-54,-46,27,41,37
25,80,55,-53,-15,67,-45,-56,-47,22,34,33
16,66,50,-41,-17,58,-72,-73,-53,7,28,25
17,55,38,-36,-11,46,-70,-77,-53,-2,20,19
0,40,39,-20,-20,39,-63,-85,-56,-11,15,13
-13,15,28,-1,-21,21,-52,-83,-61,-18,7,5
-38,-11,27,25,-32,7,-52,-87,-71,-23,6,7
-56,-36,20,46,-37,-8,-39,-83,-71,-33,-4,3
-48,-35,13,41,-30,-10,-46,-85,-65,-34,-3,8
-72,-34,39,53,-55,3,-27,-87,-79,-43,-12,2
-64,-40,24,51,-43,-8,-41,-80,-57,-25,-13,7
-79,-27,52,52,-65,13,0,-76,-83,-29,-23,1
-69,-136,-66,103,-1,-101,68,12,-31,-86,-105,-94
18,-209,-227,96,122,-218,122,201,95,-59,-106,-118
386,-77,-463,-155,425,-270,162,865,844,366,190,108
554,235,-319,-394,436,-42,-129,647,1078,664,499,414
10,284,275,-147,-133,279,-371,-772,-404,-33,166,248
-220,-71,149,145,-185,39,-386,-1008,-981,-595,-298,-129
-87,-146,-59,117,-14,-102,-226,-439,-437,-355,-229,-144
-62,-48,14,55,-37,-17,-18,-153,-178,-112,-75,-59
-24,-25,-1,25,-12,-13,-14,-73,-69,-44,-35,-28
-38,1,38,18,-38,19,3,-81,-81,-33,-18,-14
-32,-6,26,18,-29,10,5,-42,-45,-21,-16,-15
-30,4,34,13,-32,19,4,-49,-48,-14,-9,-9
-25,4,29,10,-28,16,15,-29,-38,-7,-7,-8
-18,10,28,4,-23,18,11,-23,-26,2,-1,-4
-14,13,27,0,-21,20,21,-14,-26,5,2,-3
-7,15,23,-5,-16,19,18,-3,-9,10,5,0
-6,20,25,-7,-15,22,21,1,-6,12,5,0
6,22,16,-14,-5,19,20,13,10,17,5,0
9,26,17,-18,-4,21,20,17,16,20,5,0
8,19,10,-14,-1,14,22,28,27,16,4,-1
6,14,8,-10,-1,11,42,51,34,15,1,-4
4,9,5,-7,-1,6,55,76,44,15,-1,-5
10,3,-7,-6,8,-2,60,109,62,10,1,-6
20,-3,-23,-8,22,-13,81,164,89,11,-1,-11
43,-8,-51,-17,47,-29,96,222,126,8,1,-9
72,-14,-86,-29,79,-50,113,294,159,2,-7,-16
119,-37,-156,-41,138,-96,152,370,196,-20,-38,-41
169,-65,-234,-52,202,-149,166,444,232,-57,-66,-62
202,-78,-281,-62,242,-179,164,482,250,-74,-86,-76
253,-71,-325,-91,289,-198,166,495,263,-84,-98,-74
246,-62,-308,-92,277,-185,144,469,249,-78,-91,-61
185,-53,-238,-66,212,-145,108,364,194,-68,-73,-54
135,-31,-166,-52,151,-98,70,244,142,-41,-50,-39
65,-2,-68,-31,67,-35,35,124,92,-8,-16,-14
25,20,-5,-22,15,7,14,44,46,-4,6,-8
7,20,13,-14,-3,16,6,7,15,0,5,-11
-14,13,27,0,-20,20,2,-29,-2,3,5,-10
-19,10,30,5,-25,20,-4,-50,-4,8,5,-10
-26,5,30,11,-28,17,-11,-57,-10,10,5,-10
-29,0,30,14,-30,15,-14,-59,-12,5,6,-7
-26,4,30,11,-28,17,-28,-60,-22,5,10,-5
-14,16,30,-1,-22,23,-38,-61,-37,5,10,-5
-11,22,33,-6,-22,28,-31,-65,-35,5,11,-5
-15,20,36,-3,-26,27,-27,-65,-31,5,15,-5
-15,20,35,-3,-25,27,-21,-63,-29,5,15,-5
-17,18,35,-1,-27,26,-15,-58,-25,5,13,-10
-20,14,35,3,-28,25,-10,-55,-25,5,8,-10
-20,15,35,2,-28,25,-5,-52,-30,5,5,-11
-15,20,35,-3,-25,27,-5,-47,-30,5,2,-15
-16,19,35,-2,-26,27,-5,-44,-31,5,-3,-15
-23,12,35,5,-29,23,-5,-41,-36,0,-6,-15
-27,8,35,9,-31,21,-5,-40,-35,0,-9,-15
-34,1,35,16,-35,18,-5,-40,-38,-1,-14,-15
-43,-4,39,23,-40,17,-5,-40,-41,-5,-16,-15
-42,-2,41,22,-41,19,-5,-40,-39,-5,-20,-15
-36,4,40,16,-38,21,-5,-40,-44,-2,-25,-16
-33,7,40,13,-37,23,-24,-41,-45,0,-23,-19
-27,13,40,7,-33,26,-32,-53,-45,0,-19,-20
-26,14,40,6,-33,27,-29,-61,-50,0,-17,-20
-32,8,40,12,-36,24,-34,-65,-50,0,-14,-20
-38,2,40,18,-39,21,-35,-70,-51,-1,-11,-20
-44,-4,40,24,-42,18,-35,-67,-55,-4,-9,-18
-42,-2,39,22,-40,18,-35,-64,-55,-5,-6,-14
-38,3,41,17,-40,22,-35,-61,-53,-5,-4,-15
-30,5,36,12,-33,20,-35,-58,-46,-5,-5,-15
-26,10,36,8,-31,22,-35,-56,-40,-6,-5,-15
-21,13,34,3,-28,24,-35,-53,-33,-1,-6,-15
-20,17,37,1,-29,27,-29,-43,-25,11,1,-5
-10,50,60,-20,-36,55,0,-30,-20,28,24,11
13,77,64,-45,-26,70,30,-21,-15,46,36,22
-3,74,77,-36,-40,75,31,-14,-14,55,43,26
1,77,77,-39,-38,77,-2,-11,-9,59,53,35
25,76,51,-51,-13,63,-64,-44,-17,44,48,35
26,70,44,-48,-9,56,-78,-77,-52,22,38,24
32,62,30,-47,1,46,-64,-75,-56,14,30,17
-2,36,37,-18,-20,36,-60,-86,-63,8,21,10
-26,7,33,9,-30,20,-46,-82,-64,0,11,1
-35,3,38,16,-36,20,-49,-98,-70,-3,8,-2
-55,-13,42,34,-48,15,-40,-102,-77,-11,-3,-11
-51,-16,35,34,-43,9,-52,-105,-62,-8,-6,-12
-73,-28,45,50,-59,8,-37,-109,-82,-19,-16,-22
-55,-39,16,47,-35,-11,-55,-97,-54,-16,-20,-25
-57,-16,41,36,-49,13,-18,-114,-89,-20,-16,-27
-71,-138,-67,105,-2,-102,57,-18,-52,-80,-104,-102
-6,-216,-210,111,102,-213,114,153,69,-57,-127,-128
344,-90,-433,-127,389,-261,204,849,818,375,184,94
521,234,-287,-378,404,-27,-53,767,1173,727,539,433
20,376,356,-198,-169,366,-293,-667,-278,103,269,321
-223,13,236,105,-230,125,-346,-1002,-964,-542,-241,-79
-154,-151,3,152,-78,-74,-249,-478,-475,-384,-254,-149
-127,-54,73,90,-100,9,-23,-172,-203,-106,-77,-66
-63,-37,26,49,-44,-6,-18,-62,-62,-31,-17,-26
-74,-17,57,45,-65,20,-5,-84,-75,-22,-8,-17
-52,-13,39,32,-45,13,3,-47,-42,-9,-8,-22
-56,-9,46,32,-51,18,-3,-60,-47,-5,-3,-12
-47,-8,39,27,-43,16,12,-42,-39,3,-1,-10
-37,-5,31,21,-33,13,5,-40,-27,9,1,-2
-36,-3,33,20,-34,14,17,-35,-28,20,5,3
-11,11,22,-1,-17,16,13,-23,-13,31,13,2
-4,19,23,-8,-14,20,21,-19,-14,30,13,0
-10,11,21,-1,-16,16,21,-7,-2,30,8,-1
-25,10,35,7,-30,22,25,-1,2,30,5,-4
-22,5,28,8,-26,16,27,6,16,30,1,-11
-19,1,20,8,-20,11,29,13,28,30,-2,-14
-11,-1,10,6,-11,4,37,42,40,25,-6,-19
-2,-7,-6,5,2,-6,48,84,56,20,-11,-23
11,-17,-28,3,20,-22,70,145,80,17,-21,-28
14,-35,-49,11,31,-42,100,211,115,11,-22,-32
37,-48,-85,5,61,-67,134,286,161,6,-26,-34
114,-50,-164,-31,139,-107,147,367,209,-28,-48,-47
149,-66,-215,-41,182,-140,156,441,243,-55,-58,-55
175,-96,-272,-39,224,-184,156,496,275,-74,-69,-68
209,-116,-325,-47,267,-220,146,501,283,-98,-79,-76
208,-99,-307,-54,258,-203,142,470,263,-87,-67,-75
173,-74,-247,-50,210,-160,116,375,220,-73,-58,-69
117,-35,-152,-40,135,-93,78,238,146,-42,-45,-35
66,1,-65,-33,65,-32,41,118,84,-9,-18,-18
33,14,-19,-23,26,-3,17,30,38,3,-5,-16
5,21,17,-13,-6,19,2,-20,-4,7,-2,-10
-25,20,44,2,-34,32,-13,-63,-31,1,2,-7
-26,20,46,2,-36,32,-23,-88,-42,0,5,0
-24,20,44,2,-34,32,-30,-93,-43,-4,10,-3
-26,20,46,2,-36,32,-30,-96,-49,-6,8,-5
-26,19,45,3,-35,32,-31,-94,-53,-1,3,-5
-30,14,44,7,-37,29,-35,-95,-58,0,0,-9
-24,16,40,4,-32,27,-35,-95,-59,0,-3,-10
-27,13,39,7,-33,26,-33,-94,-54,4,-8,-10
-40,9,50,15,-45,29,-28,-88,-56,6,-10,-10
-45,11,56,17,-51,33,-25,-83,-52,4,-6,-10
-49,6,55,21,-52,30,-22,-78,-50,-1,-3,-10
-50,5,55,22,-53,30,-17,-71,-50,-7,0,-10
-51,4,55,23,-53,30,-14,-66,-46,-10,3,-10
-54,1,55,26,-55,27,-11,-62,-45,-15,6,-13
-52,-1,52,26,-52,25,-10,-59,-45,-19,3,-15
-45,1,46,21,-45,23,-10,-56,-45,-17,-1,-15
-27,15,42,6,-34,28,-10,-53,-45,-8,-4,-15
-17,21,38,-2,-27,29,-10,-50,-46,-8,-8,-15
-12,19,32,-4,-22,25,-12,-51,-50,-25,-10,-15
-11,20,31,-5,-21,26,-15,-60,-50,-25,-10,-10
-16,20,35,-3,-25,27,-15,-69,-54,-20,-10,-10
-18,20,38,-1,-28,29,-19,-76,-55,-18,-10,-9
-24,17,41,4,-33,29,-20,-81,-55,-13,-7,-5
-32,12,44,9,-38,28,-20,-85,-60,-10,-5,-5
-37,9,46,13,-41,27,-25,-84,-59,-14,-5,-5
-38,6,44,16,-42,25,-29,-87,-61,-24,-5,-5
-45,1,46,22,-46,23,-33,-90,-65,-28,-5,-5
-42,0,43,20,-43,21,-38,-90,-65,-26,-4,-5
-39,8,47,15,-44,27,-41,-90,-67,-22,-1,-5
-46,14,60,16,-53,37,-44,-90,-71,-20,4,-5
-38,21,60,9,-49,40,-47,-90,-70,-16,6,0
-27,27,54,-1,-41,40,-50,-90,-67,-16,11,8
-20,34,53,-7,-37,43,-33,-88,-58,-4,14,14
-25,51,76,-13,-51,64,-12,-75,-35,23,19,22
-34,67,100,-17,-67,83,-3,-61,-22,33,33,26
-24,75,98,-26,-61,86,9,-51,-30,40,38,36
-3,67,70,-32,-37,69,-24,-46,-32,33,30,42
6,61,55,-34,-25,58,-76,-70,-37,20,25,35
1,54,53,-28,-27,54,-75,-92,-55,10,16,27
6,47,41,-27,-18,44,-70,-94,-59,5,12,21
-1,40,41,-20,-22,41,-62,-104,-74,-4,4,12
-15,11,26,2,-21,19,-56,-100,-70,-8,0,6
-31,0,31,16,-31,15,-50,-107,-84,-16,-4,1
-27,-12,15,19,-20,1,-40,-92,-82,-23,-12,-2
-28,-13,15,20,-21,1,-46,-98,-81,-22,-9,4
-33,-27,6,30,-19,-11,-31,-89,-83,-31,-26,-6
-22,-28,-6,25,-8,-17,-55,-85,-56,-31,-9,10
-49,-46,3,48,-25,-21,0,-84,-88,-76,-45,-29
-40,-185,-145,113,53,-165,60,27,-2,-94,-121,-116
63,-219,-282,78,173,-250,157,338,235,31,-51,-69
442,-6,-448,-217,445,-227,167,1012,1152,652,376,272
411,363,-48,-387,229,157,-164,453,1004,824,651,559
-112,323,435,-106,-273,378,-368,-873,-645,-151,127,244
-180,-58,122,119,-151,32,-352,-799,-856,-586,-300,-129
-128,-103,25,115,-77,-38,-158,-318,-352,-281,-190,-115
-106,-45,61,75,-83,8,4,-112,-159,-88,-71,-44
-52,-28,24,40,-38,-2,-9,-49,-60,-18,-29,-26
-56,-5,51,30,-53,23,12,-58,-88,-11,-20,-14
-33,-9,24,21,-29,8,2,-27,-43,1,-15,-4
-38,3,40,17,-39,21,6,-39,-63,-3,-13,-6
-24,1,25,11,-25,13,6,-16,-40,4,-9,-4
-22,10,32,6,-27,21,3,-20,-41,5,-4,0
-22,8,30,7,-26,18,12,-8,-34,7,-2,0
-27,2,29,12,-28,15,11,-3,-23,11,2,-2
-33,-2,31,18,-32,15,18,3,-19,9,4,-6
-30,-7,23,18,-26,8,19,12,-6,11,7,-5
-32,-11,21,21,-27,5,25,25,-3,10,10,-5
-30,-16,14,23,-22,-1,27,49,8,10,9,-5
-26,-14,12,20,-19,-1,32,59,10,16,4,-5
-22,-16,6,19,-14,-5,46,91,38,26,-2,-11
-15,-14,1,14,-7,-6,65,133,62,27,-5,-17
-4,-20,-16,12,6,-18,90,181,91,15,-10,-21
24,-31,-55,4,39,-43,114,242,132,3,-14,-28
62,-44,-106,-9,85,-75,143,319,177,-7,-22,-32
92,-73,-165,-9,129,-119,171,405,234,-28,-43,-39
134,-100,-234,-17,184,-167,187,477,279,-45,-62,-51
177,-106,-283,-35,231,-194,188,518,306,-67,-76,-47
175,-105,-280,-35,228,-193,181,523,303,-82,-82,-38
167,-103,-270,-32,219,-186,165,475,279,-69,-82,-29
147,-71,-217,-37,182,-144,122,359,221,-60,-67,-22
89,-32,-121,-28,106,-77,74,217,139,-32,-33,-8
48,-8,-56,-20,52,-32,37,102,75,-10,-15,8
10,1,-9,-5,9,-4,7,38,25,-10,-2,17
-24,0,24,12,-24,11,-6,-10,-3,-10,11,27
-32,5,37,14,-35,21,-13,-53,-23,-10,9,25
-30,5,35,12,-33,20,-19,-64,-41,-10,3,18
-30,5,35,12,-33,20,-26,-71,-46,-10,0,14
-28,5,33,11,-31,19,-33,-76,-48,-10,-5,8
-25,5,29,10,-27,16,-35,-74,-51,-10,-10,2
-25,5,30,10,-28,17,-35,-78,-54,-10,-6,2
-30,5,34,12,-33,19,-35,-80,-55,-10,-5,5
-39,5,44,17,-42,25,-35,-80,-55,-10,-5,5
-40,5,45,17,-43,25,-35,-77,-55,-18,0,5
-40,5,45,17,-43,25,-35,-71,-56,-21,0,5
-40,5,45,17,-43,25,-29,-67,-52,-20,-1,4
-40,5,45,17,-43,25,-24,-63,-50,-18,-5,1
-41,5,46,17,-44,25,-19,-57,-50,-14,-5,0
-39,2,41,18,-40,21,-13,-55,-47,-16,-7,0
-36,-1,35,18,-35,16,-7,-55,-44,-11,-11,0
-34,-4,30,19,-32,13,-7,-55,-46,-10,-10,1
-31,-7,24,19,-27,9,-11,-55,-50,-10,-10,-3
-28,-10,18,19,-23,4,-13,-55,-50,-6,-10,-6
-25,-9,16,17,-20,3,-16,-55,-53,-5,-10,-5
-25,-5,20,15,-22,7,-19,-59,-55,-7,-10,-9
-28,-5,23,16,-25,9,-21,-66,-56,-10,-10,-10
-32,-5,27,18,-29,11,-24,-72,-60,-10,-9,-10
-35,-5,30,20,-32,12,-25,-75,-60,-10,-5,-15
-31,-5,26,18,-28,11,-25,-75,-65,-10,-5,-15
-29,-5,25,17,-26,10,-25,-79,-65,-10,-5,-16
-30,-5,25,17,-27,10,-24,-80,-66,-7,-5,-20
-30,-5,25,17,-27,10,-28,-83,-70,-4,-5,-20
-30,-5,25,17,-27,10,-30,-86,-70,-6,-5,-18
-29,-4,25,16,-27,10,-30,-84,-68,-5,-5,-14
-31,-6,25,18,-28,9,-34,-86,-64,-5,-5,-12
-37,-12,25,24,-31,6,-35,-83,-65,-4,-5,-9
-41,-16,25,28,-32,5,-35,-80,-65,3,-5,-6
-40,-14,25,27,-32,5,-28,-77,-65,8,-4,-4
-40,-16,25,28,-32,5,-19,-73,-66,17,4,0
-41,-13,29,26,-34,8,-10,-70,-54,21,12,8
-24,30,54,-3,-39,42,-1,-67,-45,34,20,14
-10,63,73,-26,-42,68,6,-64,-45,41,27,21
-14,58,72,-22,-43,64,19,-66,-45,42,36,27
2,67,64,-35,-31,65,-16,-64,-45,56,36,25
22,79,57,-51,-18,68,-68,-68,-44,47,30,20
16,68,52,-42,-18,60,-70,-87,-58,26,25,15
18,61,43,-40,-13,52,-70,-94,-62,18,20,12
2,47,45,-24,-22,46,-59,-98,-69,2,13,6
-32,2,34,15,-33,18,-55,-97,-62,-6,9,3
-52,-13,39,32,-45,13,-47,-102,-83,-18,5,-2
-47,-21,26,34,-36,2,-39,-89,-76,-25,-4,-6
-54,-23,32,38,-43,4,-40,-101,-81,-28,-1,-7
-59,-43,16,50,-37,-13,-17,-91,-84,-43,-16,-15
-34,-29,5,31,-19,-12,-32,-97,-68,-35,-5,-11
-59,-52,7,56,-33,-22,23,-58,-103,-65,-41,-50
-65,-183,-118,125,27,-151,77,40,-25,-84,-124,-120
77,-191,-268,57,172,-229,190,385,280,73,-30,-67
472,12,-460,-242,466,-224,151,1054,1198,638,383,257
383,334,-49,-358,216,142,-222,292,820,659,551,459
-161,213,374,-26,-268,293,-423,-1004,-789,-278,19,134
-192,-117,75,154,-133,-21,-376,-797,-824,-574,-310,-161
-102,-90,12,95,-56,-39,-122,-308,-316,-239,-164,-119
-84,-43,41,63,-63,-1,13,-114,-142,-74,-63,-50
-42,-13,29,27,-36,8,-19,-69,-67,-19,-25,-40
-52,0,52,26,-51,25,8,-70,-88,-14,-18,-31
-39,-10,29,24,-34,9,-1,-44,-42,1,-16,-19
-45,-1,44,22,-44,22,11,-53,-55,2,-11,-15
-37,-9,28,22,-32,10,12,-30,-31,12,-8,-12
-43,-2,40,22,-41,19,17,-32,-32,17,-4,-10
-42,-2,41,22,-41,19,23,-16,-21,22,-1,-7
-34,6,40,14,-37,22,25,-6,-13,26,0,-5
-24,10,33,7,-29,21,32,8,-7,24,1,-5
-16,13,29,1,-23,21,35,22,7,29,5,-5
-6,20,26,-7,-16,22,43,33,14,30,5,-5
-1,17,19,-8,-10,18,48,47,26,29,3,-5
-25,7,32,9,-29,20,56,66,35,26,-2,-5
-18,-1,18,9,-18,8,64,93,49,21,-8,-6
-11,-10,0,11,-5,-5,82,125,66,19,-11,-15
-1,-19,-17,10,8,-18,106,182,101,14,-17,-24
26,-28,-54,1,40,-41,131,246,136,11,-20,-33
60,-38,-98,-11,79,-67,154,318,176,5,-31,-42
108,-57,-164,-26,136,-110,177,401,214,-26,-55,-52
136,-87,-223,-25,180,-155,193,470,251,-45,-77,-69
176,-104,-280,-35,228,-192,188,508,266,-66,-96,-71
187,-114,-302,-36,245,-208,178,504,255,-80,-108,-62
176,-106,-282,-35,230,-194,163,453,242,-65,-97,-56
142,-78,-219,-32,181,-148,126,347,203,-55,-67,-48
84,-40,-125,-22,105,-83,84,217,138,-20,-29,-25
57,-16,-73,-20,65,-44,47,104,71,10,1,-6
19,-11,-30,-4,25,-20,14,30,31,9,6,-3
-23,-2,20,12,-21,9,-1,-16,7,11,4,1
-20,8,28,6,-25,18,-5,-48,-10,10,6,4
-15,0,15,7,-15,7,-10,-63,-17,10,4,9
-53,-11,42,32,-47,15,-14,-65,-24,9,6,9
-55,-5,50,30,-52,22,-19,-65,-32,5,9,4
-38,-1,37,19,-37,18,-22,-68,-40,5,10,6
-34,0,34,17,-34,17,-27,-71,-45,5,10,2
-25,1,25,12,-25,13,-29,-69,-45,5,10,-1
-31,-1,30,16,-31,15,-26,-66,-45,5,10,0
-33,1,34,16,-34,17,-23,-61,-45,1,8,-4
-40,-1,39,21,-40,19,-21,-59,-45,0,4,-5
-36,2,38,17,-37,20,-17,-55,-45,0,2,-5
-20,14,34,2,-27,24,-15,-50,-49,-5,-1,-10
-26,10,36,7,-31,23,-12,-52,-51,-5,-4,-10
-29,2,31,14,-30,16,-10,-56,-50,-6,-6,-11
-34,-3,30,19,-32,13,-10,-55,-50,-10,-9,-15
-41,-12,30,26,-35,9,-10,-55,-50,-10,-10,-15
-40,-15,25,27,-32,5,-10,-55,-51,-13,-10,-15
-40,-15,25,27,-32,5,-10,-56,-55,-15,-10,-15
-40,-15,25,27,-32,5,-15,-59,-54,-15,-10,-15
-40,-15,25,27,-32,5,-15,-62,-58,-12,-10,-15
-40,-15,25,27,-32,5,-16,-65,-60,-9,-10,-15
-42,-15,27,28,-34,6,-21,-67,-60,-10,-10,-15
-46,-15,31,31,-38,7,-19,-73,-64,-10,-10,-15
-43,-14,30,29,-36,8,-23,-76,-65,-10,-10,-15
-40,-9,30,25,-35,10,-25,-80,-65,-9,-10,-14
-41,-11,30,26,-35,10,-25,-85,-65,-5,-10,-10
-37,-7,30,22,-33,11,-25,-85,-65,-5,-10,-10
-30,-5,25,17,-27,10,-25,-85,-64,-3,-10,-8
-29,-4,25,16,-27,10,-25,-85,-59,1,-10,-4
-31,-9,22,20,-27,7,-20,-86,-56,-1,-10,-6
-27,-9,18,18,-22,4,-18,-83,-53,-3,-8,-1
-30,1,30,14,-30,15,-13,-74,-48,-9,-1,5
-26,8,33,8,-30,20,-11,-67,-45,-8,5,9
-11,47,58,-18,-34,52,-4,-61,-38,12,13,17
-11,75,86,-32,-49,80,18,-54,-22,31,22,20
-5,72,77,-34,-41,74,16,-55,-12,38,36,29
11,82,71,-47,-30,77,-1,-48,-9,33,40,36
33,96,63,-65,-15,79,-40,-55,-17,26,34,35
46,87,41,-67,2,64,-73,-79,-37,19,29,35
49,68,19,-59,15,43,-74,-85,-40,13,23,35
24,44,21,-34,1,32,-65,-94,-52,5,18,34
1,11,10,-6,-5,10,-59,-92,-54,-3,12,9
-9,5,15,2,-12,10,-54,-99,-69,-7,9,-8
-13,-10,3,11,-8,-4,-42,-93,-64,-19,0,-15
-22,-15,7,18,-14,-4,-49,-105,-62,-25,2,-13
-43,-28,15,35,-29,-6,-28,-97,-73,-37,-10,-23
-43,-32,11,37,-26,-10,-52,-97,-51,-21,-6,-20
-73,-36,36,55,-54,0,-2,-84,-85,-39,-32,-32
-71,-171,-100,121,15,-135,73,22,-18,-90,-113,-120
50,-204,-254,77,153,-229,158,300,207,10,-60,-99
449,-10,-459,-219,454,-234,161,979,1055,514,300,191
445,283,-162,-364,304,60,-181,441,936,661,537,446
-111,222,333,-56,-223,277,-379,-928,-641,-176,85,184
-222,-110,112,166,-167,1,-358,-879,-884,-590,-302,-142
-120,-122,-2,121,-58,-62,-166,-351,-351,-276,-179,-115
-86,-53,32,69,-59,-10,3,-120,-145,-86,-64,-49
-64,-42,22,53,-43,-10,-21,-56,-49,-29,-17,-14
-76,-23,53,49,-64,15,2,-65,-74,-16,-2,-3
-54,-25,30,40,-42,2,-5,-30,-34,-6,0,-7
-59,-11,47,35,-53,18,1,-40,-47,-1,7,-1
-45,-9,36,27,-40,13,6,-21,-27,5,9,-1
-42,0,42,21,-42,21,3,-22,-24,13,16,1
-38,0,38,18,-38,19,12,-12,-19,15,18,-1
-34,0,33,17,-34,16,13,-4,-10,15,21,0
-36,1,37,17,-37,18,21,3,-9,18,20,0
-30,0,30,15,-30,15,23,17,1,21,20,0
-32,-1,31,16,-31,15,28,28,4,20,20,0
-35,-5,30,20,-32,12,35,42,22,25,19,-1
-30,-7,23,18,-26,8,47,60,33,25,14,-6
-27,-10,16,18,-22,3,55,91,48,27,11,-9
-16,-14,2,15,-9,-5,65,125,70,30,8,-12
1,-15,-16,7,9,-15,77,170,98,31,3,-17
22,-22,-44,0,33,-33,99,231,131,24,1,-20
51,-39,-90,-6,71,-64,125,300,168,3,-7,-25
87,-56,-144,-15,116,-100,147,379,213,-17,-24,-35
131,-76,-207,-27,169,-141,153,450,248,-40,-41,-50
169,-95,-264,-37,217,-180,144,491,263,-63,-58,-58
196,-98,-294,-49,245,-196,140,496,256,-75,-70,-54
175,-92,-267,-41,221,-179,132,460,243,-78,-70,-48
149,-78,-226,-35,188,-152,102,361,205,-67,-53,-48
102,-48,-150,-27,126,-99,60,236,141,-37,-26,-32
40,-17,-56,-11,48,-36,29,125,89,-4,5,-6
18,6,-12,-11,15,-3,-1,36,46,11,21,-4
-10,7,17,1,-14,12,-19,-11,14,10,20,-6
-26,1,26,12,-26,13,-26,-40,-3,10,20,-4
-35,-3,32,19,-33,14,-30,-51,-9,7,20,-5
-47,-8,39,27,-43,16,-29,-56,-16,4,20,-5
-48,-13,35,30,-41,11,-33,-65,-24,5,21,-1
-49,-14,35,31,-42,10,-35,-65,-31,5,24,0
-44,-9,35,26,-40,12,-35,-65,-35,5,25,0
-40,-6,34,22,-37,14,-31,-65,-35,5,25,4
-39,-3,36,20,-37,16,-30,-65,-35,5,25,6
-29,2,31,14,-30,16,-30,-64,-35,5,25,4
-31,5,36,13,-34,20,-25,-61,-35,3,23,-2
-44,2,46,21,-46,24,-25,-58,-35,0,19,-8
-44,-3,41,23,-42,19,-24,-56,-40,-3,20,-12
-42,-6,36,23,-38,15,-20,-53,-40,-6,16,-19
-41,-9,32,25,-36,11,-21,-50,-41,-9,15,-24
-41,-14,27,28,-34,6,-18,-53,-46,-10,15,-22
-37,-14,23,25,-29,5,-15,-56,-45,-10,10,-16
-28,-10,18,19,-23,4,-15,-55,-48,-10,7,-13
-25,-10,15,17,-20,2,-18,-55,-51,-10,4,-8
-25,-10,15,17,-20,2,-22,-55,-49,-10,-1,-5
-25,-10,15,17,-20,2,-25,-55,-54,-10,-5,-1
-25,-10,15,17,-20,2,-28,-66,-55,-8,-5,2
-29,-14,15,21,-21,0,-32,-76,-55,-4,-5,7
-34,-15,18,24,-25,1,-35,-74,-60,-5,-5,10
-39,-15,24,27,-31,4,-35,-76,-60,-5,-5,7
-48,-19,29,33,-38,5,-35,-80,-61,-5,-5,4
-53,-21,32,37,-43,5,-35,-80,-65,-5,-5,1
-56,-18,38,37,-47,9,-35,-80,-65,0,0,-2
-55,-16,39,35,-47,12,-35,-80,-63,0,0,-5
-48,-14,34,30,-41,10,-35,-80,-59,1,0,-4
-45,-11,34,28,-39,11,-35,-80,-60,5,0,2
-37,-9,28,23,-33,10,-35,-80,-60,5,0,6
-43,-15,29,29,-36,7,-36,-80,-60,2,-2,10
-39,-18,21,28,-30,2,-32,-69,-61,-1,-13,15
0,23,23,-12,-11,22,-11,-54,-41,10,-6,20
-8,49,57,-21,-33,53,15,-47,-23,21,7,24
-17,40,57,-12,-38,49,25,-50,-25,37,19,25
12,60,48,-36,-18,54,2,-54,-26,49,36,24
28,71,43,-50,-7,57,-44,-54,-24,40,34,17
27,63,36,-45,-5,49,-74,-77,-43,30,25,11
33,63,30,-48,1,46,-74,-92,-58,19,19,4
17,42,24,-30,-4,33,-76,-98,-60,11,11,-2
-31,-4,27,17,-29,11,-62,-102,-68,4,-7,-9
-41,-21,20,30,-30,0,-63,-103,-67,1,-29,-17
-49,-24,25,37,-37,1,-49,-103,-78,-8,-38,-34
-47,-35,12,41,-29,-11,-48,-86,-57,-10,-35,-51
-71,-38,32,54,-51,-3,-42,-99,-74,-25,-32,-54
-79,-60,19,69,-49,-20,-31,-69,-50,-25,-34,-60
-73,-31,42,52,-57,6,-50,-94,-62,-4,-22,-55
-90,-101,-11,96,-39,-56,48,-34,-54,-58,-81,-95
-57,-217,-160,137,52,-189,103,73,15,-92,-152,-146
177,-160,-337,-9,257,-248,207,588,500,185,34,11
530,102,-428,-316,480,-163,76,1014,1283,695,451,368
212,389,176,-300,18,283,-243,-184,308,417,429,441
-239,143,381,48,-310,262,-317,-1068,-932,-409,-117,63
-190,-172,18,181,-104,-77,-298,-629,-627,-485,-305,-152
-125,-85,40,105,-82,-22,-69,-248,-256,-174,-130,-52
-70,-32,39,51,-54,4,15,-74,-84,-57,-49,5
-73,-23,50,48,-61,13,-13,-65,-57,-24,-27,2
-66,-12,54,39,-60,21,25,-43,-45,-13,-17,-2
-53,-9,44,31,-48,17,9,-38,-22,-5,-12,-7
-58,-2,57,30,-57,27,27,-37,-34,0,-7,-11
-46,-2,44,24,-45,21,21,-21,-9,8,-1,-16
-42,18,60,12,-51,39,28,-24,-17,13,4,-19
-32,20,51,5,-42,35,30,-9,-1,16,2,-20
-45,14,59,15,-52,36,30,-8,-2,19,-1,-20
-50,9,59,21,-54,34,37,2,7,20,-4,-20
-58,3,61,28,-60,32,40,9,13,20,-7,-20
-59,-3,56,31,-57,27,45,26,16,20,-10,-20
-44,-3,41,23,-43,19,49,39,27,20,-11,-20
-25,4,29,10,-27,16,54,60,42,21,-16,-20
-15,-2,13,8,-14,5,60,86,62,19,-19,-19
-6,-12,-6,9,1,-9,83,130,81,16,-22,-21
20,-20,-40,1,30,-30,101,187,109,3,-27,-18
47,-29,-76,-9,62,-52,121,250,146,-3,-29,-28
95,-45,-140,-25,118,-92,144,337,196,-18,-42,-50
136,-60,-195,-38,166,-127,160,416,242,-43,-54,-55
171,-79,-249,-46,210,-163,166,480,273,-56,-75,-67
212,-104,-315,-54,264,-209,155,511,287,-86,-92,-76
216,-108,-323,-54,270,-215,143,490,272,-90,-79,-67
196,-97,-293,-49,244,-194,133,427,244,-71,-70,-61
144,-67,-211,-38,178,-139,101,305,189,-61,-60,-54
81,-31,-112,-25,97,-71,60,171,113,-31,-31,-41
52,-5,-57,-24,55,-30,20,73,55,-11,-11,-26
37,9,-28,-23,32,-9,-4,2,11,-10,-9,-16
10,13,3,-11,3,8,-8,-41,-9,-10,-6,-15
-8,16,24,-4,-17,20,-16,-67,-26,-10,-3,-14
-13,15,28,-1,-21,21,-24,-78,-45,-10,0,-11
-22,15,37,3,-30,26,-32,-83,-45,-9,1,-9
-22,15,37,3,-30,26,-33,-89,-46,-5,0,-12
-20,15,35,2,-28,25,-29,-90,-55,-8,0,-15
-20,15,35,2,-28,25,-31,-90,-60,-13,0,-15
-20,15,35,2,-28,25,-26,-90,-60,-14,0,-15
-20,15,35,2,-28,25,-25,-90,-60,-9,0,-15
-20,15,35,2,-28,25,-25,-89,-60,-4,-4,-15
-20,15,35,2,-28,25,-20,-83,-60,-1,-6,-11
-20,15,35,2,-28,25,-20,-77,-59,7,-10,-5
-23,12,35,5,-29,23,-19,-73,-55,-11,-11,0
-28,7,35,10,-32,21,-15,-66,-53,-33,-16,6
-31,5,35,13,-34,20,-15,-62,-50,-28,-12,12
-32,0,33,16,-33,16,-18,-63,-47,-26,9,14
-32,-4,28,18,-30,12,-21,-67,-44,-23,9,8
-31,-6,25,18,-28,9,-20,-69,-49,-20,0,0
-35,-13,22,24,-28,4,-24,-72,-50,-19,-5,-5
-29,-12,17,20,-23,2,-25,-74,-51,-15,-13,-13
-25,-9,15,17,-20,3,-25,-76,-55,-15,-19,-19
-30,-10,19,20,-24,4,-30,-80,-57,-15,-20,-17
-31,-10,21,20,-26,6,-30,-80,-60,-15,-20,-14
-29,-11,18,20,-24,4,-30,-82,-60,-14,-20,-11
-34,-8,25,21,-29,8,-30,-86,-60,-23,-20,-8
-41,-5,36,23,-38,15,-29,-85,-62,-32,-20,-6
-37,-2,35,19,-36,16,-33,-85,-61,-28,-19,-3
-34,0,34,17,-34,16,-35,-85,-60,-26,-15,0
-26,4,30,11,-28,17,-35,-85,-60,-23,-12,3
-24,5,30,10,-28,17,-35,-85,-60,-20,-10,5
-31,1,32,14,-32,17,-36,-85,-59,-19,-6,9
-44,-7,37,25,-40,15,-34,-85,-64,-15,-6,10
-51,-9,42,30,-46,17,-36,-75,-71,-11,0,14
-20,25,44,-3,-32,34,-28,-67,-58,-3,8,23
-19,51,70,-16,-45,60,10,-57,-34,19,18,31
-31,55,85,-12,-58,70,33,-51,-27,50,39,39
-13,66,79,-27,-46,72,20,-50,-33,50,41,46
-2,70,72,-34,-37,71,-26,-51,-34,35,34,52
-2,66,68,-32,-35,67,-59,-83,-37,27,34,52
-6,56,62,-26,-34,59,-52,-97,-49,13,27,43
-4,48,53,-22,-29,50,-51,-93,-52,8,27,39
-22,28,50,-3,-37,39,-41,-97,-62,-6,17,30
-29,6,35,11,-32,20,-41,-94,-60,-9,1,25
-49,-10,39,29,-44,14,-30,-107,-79,-23,-13,19
-43,-25,18,34,-30,-4,-33,-91,-62,-19,-17,15
-42,-13,28,27,-35,8,-37,-104,-75,-18,-11,15
-36,-29,7,32,-21,-10,-28,-83,-62,-26,-20,4
-25,-7,18,16,-21,5,-50,-99,-60,-6,-5,14
-68,-73,-5,71,-32,-39,31,-63,-80,-58,-57,-35
-46,-218,-172,133,63,-195,106,54,12,-80,-125,-124
145,-186,-331,21,238,-259,210,476,404,145,34,-13
517,85,-431,-301,474,-173,123,1029,1312,794,488,388
291,417,126,-354,82,271,-228,69,614,660,603,534
-188,225,413,-19,-300,318,-390,-1006,-874,-360,-41,144
-221,-110,111,165,-166,0,-291,-683,-719,-518,-275,-136
-264,-88,175,176,-219,43,-148,-266,-287,-228,-174,-72
-236,-27,209,131,-222,91,43,-97,-117,-193,-341,32
-179,4,182,87,-180,92,179,-63,-54,-214,-140,212
-166,17,184,74,-176,101,43,-57,-139,-298,64,223
