I,II,III,aVR,aVL,aVF,V1,V2,V3,V4,V5,V6
49,99,50,-74,-1,75,30,237,228,209,150,85
36,89,53,-63,-9,71,29,206,201,191,137,81
24,75,51,-49,-14,63,25,154,153,155,113,68
13,59,46,-37,-17,53,22,111,119,115,89,58
-14,29,44,-8,-29,36,17,69,82,75,56,38
-28,12,39,8,-34,25,15,30,44,36,25,19
-33,3,35,15,-34,19,20,-5,13,9,4,13
-42,-7,35,24,-38,14,20,-24,6,2,-3,10
-54,-19,35,36,-44,8,20,-25,2,-3,-7,6
-69,-34,35,51,-52,0,20,-25,-5,-7,-12,2
-70,-35,35,52,-52,0,20,-25,-10,-11,-16,-1
-70,-35,35,52,-52,0,18,-25,-15,-15,-20,-5
-70,-35,34,52,-51,-1,14,-25,-11,-10,-15,-5
-66,-35,31,50,-48,-1,15,-20,-10,-10,-15,-6
-64,-35,28,49,-45,-3,15,-20,-10,-9,-15,-10
-60,-35,25,47,-42,-5,15,-19,-10,-5,-15,-10
-57,-35,22,46,-39,-6,15,-15,-10,-5,-15,-10
-55,-35,20,45,-37,-7,10,-15,-12,-7,-17,-10
-53,-35,18,43,-35,-8,10,-17,-19,-13,-23,-10
-49,-36,13,42,-31,-11,9,-24,-26,-18,-26,-10
-42,-32,10,37,-26,-11,5,-31,-32,-21,-31,-10
-37,-30,7,33,-22,-11,5,-37,-40,-27,-36,-11
-32,-30,2,30,-17,-13,3,-44,-44,-30,-39,-14
-31,-31,0,31,-15,-16,-3,-50,-47,-37,-40,-18
-40,-40,0,40,-20,-20,-8,-55,-50,-48,-40,-21
-38,-38,0,38,-19,-19,-11,-60,-52,-50,-40,-24
-34,-34,0,34,-16,-16,-17,-63,-63,-50,-40,-25
-31,-31,0,31,-16,-15,-20,-68,-70,-50,-38,-25
-25,-26,0,26,-12,-13,-15,-70,-70,-50,-34,-25
-28,-25,3,26,-15,-11,-15,-70,-70,-51,-35,-25
-30,-24,5,27,-17,-10,-15,-74,-70,-54,-35,-25
-36,-31,5,33,-20,-13,-15,-75,-70,-55,-35,-25
-41,-36,5,38,-22,-15,-15,-75,-72,-55,-34,-20
-40,-35,5,37,-22,-15,-15,-80,-75,-55,-31,-20
-40,-35,5,37,-22,-15,-15,-80,-75,-55,-28,-19
-35,-35,1,35,-17,-17,-15,-80,-79,-55,-25,-15
-35,-35,0,35,-17,-17,-15,-80,-80,-55,-23,-15
-35,-35,0,35,-17,-17,-15,-79,-80,-55,-19,-17
-35,-35,0,35,-17,-17,-15,-83,-80,-55,-23,-20
-36,-35,1,35,-18,-17,-15,-85,-80,-55,-25,-23
-32,-35,-3,34,-14,-18,-15,-85,-81,-55,-25,-26
-30,-35,-5,33,-12,-20,-16,-86,-80,-63,-25,-30
-28,-34,-6,31,-10,-20,-14,-84,-81,-68,-25,-30
-15,-26,-11,21,-2,-18,-16,-85,-75,-57,-25,-25
-8,-18,-10,13,1,-14,-11,-72,-59,-48,-16,-22
1,-5,-6,2,4,-5,7,-58,-42,-37,-2,-16
31,26,-5,-28,17,11,1,-60,-23,-29,8,-1
48,46,-2,-47,25,22,-11,-61,-20,-31,17,11
52,54,2,-53,25,27,-27,-65,-16,-25,28,24
53,49,-4,-51,28,22,-40,-66,-16,-26,20,27
35,20,-15,-27,25,3,-43,-73,-32,-32,10,21
25,-2,-28,-11,27,-15,-47,-95,-65,-63,-3,16
13,-23,-36,6,25,-29,-38,-91,-67,-69,-16,-10
-17,-54,-37,36,10,-45,-37,-100,-70,-76,-34,-41
-28,-71,-43,49,8,-57,-30,-90,-73,-84,-46,-48
-37,-72,-36,54,0,-54,-28,-98,-62,-61,-34,-40
-43,-88,-45,65,1,-66,-23,-95,-84,-93,-59,-51
-43,-78,-35,61,-3,-56,-25,-87,-51,-43,-33,-38
-53,-96,-43,75,-5,-69,-29,-99,-87,-103,-67,-51
-48,-148,-99,98,26,-124,42,33,12,-65,-82,-89
-4,-286,-282,145,139,-284,247,434,194,-62,-200,-228
220,26,-193,-123,206,-83,381,1109,939,624,258,42
214,756,543,-485,-165,649,100,417,1073,1324,1100,707
-182,781,964,-300,-574,872,-238,-1248,-538,73,634,668
-316,558,874,-121,-596,716,-426,-1706,-1250,-697,61,368
-292,296,589,-2,-441,442,-521,-1469,-1073,-631,-105,143
-230,-70,159,150,-194,44,-367,-900,-777,-602,-258,-75
-100,-95,4,98,-52,-45,-150,-327,-246,-214,-114,-55
-69,-95,-26,82,-21,-60,-29,-103,-82,-126,-86,-63
-42,-89,-48,66,4,-68,2,2,14,-52,-41,-54
-21,-79,-58,50,19,-69,13,27,29,-31,-34,-48
-7,-82,-75,44,34,-78,24,75,57,-14,-33,-49
1,-67,-68,33,35,-67,28,82,78,11,-13,-37
7,-70,-77,32,42,-74,39,106,81,4,-19,-38
16,-58,-74,21,46,-66,43,127,107,32,-2,-28
23,-57,-79,17,51,-68,52,149,117,30,-5,-26
33,-49,-82,8,57,-65,56,184,145,55,6,-18
43,-41,-84,0,64,-62,65,206,160,64,11,-14
60,-28,-88,-16,74,-58,74,244,188,90,27,-7
73,-18,-90,-28,82,-54,77,280,215,112,41,-1
77,-11,-88,-33,82,-49,80,325,250,136,43,6
85,6,-79,-45,81,-36,84,371,287,173,64,12
99,28,-71,-63,85,-21,84,417,322,198,93,26
108,45,-63,-77,86,-9,76,448,358,229,119,47
126,70,-56,-97,91,7,69,441,365,255,148,66
144,96,-48,-119,96,23,64,435,352,261,165,83
140,106,-34,-123,87,35,52,408,339,251,179,93
135,124,-11,-129,73,56,35,352,307,243,181,97
129,129,0,-129,64,64,29,294,265,233,170,89
116,117,1,-117,57,59,31,229,220,205,158,83
109,114,5,-112,52,59,27,171,172,166,148,75
91,99,7,-95,42,53,25,131,131,124,126,67
65,76,11,-71,27,43,25,89,98,93,95,61
44,52,8,-48,18,29,22,45,60,60,68,43
31,36,4,-34,13,20,19,10,23,21,48,23
24,29,5,-27,9,17,16,-6,2,6,32,14
18,22,5,-20,6,13,13,-10,-5,3,17,8
11,16,5,-14,3,10,10,-15,-7,-3,14,0
4,9,5,-7,-1,6,10,-19,-10,-8,15,-8
5,5,0,-5,2,2,10,-24,-14,-14,15,-14
5,5,0,-5,2,2,10,-23,-15,-19,16,-11
6,5,-1,-6,3,2,10,-19,-19,-20,14,-10
10,5,-5,-7,7,0,10,-17,-20,-20,11,-9
10,5,-5,-7,7,0,10,-14,-20,-20,8,-5
12,5,-7,-8,9,-1,7,-11,-25,-20,6,-5
12,2,-10,-7,11,-4,4,-10,-25,-21,2,-7
12,-1,-13,-5,13,-7,1,-17,-26,-28,0,-12
12,-4,-16,-4,15,-9,-2,-24,-31,-34,-2,-15
12,-7,-19,-3,16,-13,-4,-31,-34,-39,-7,-21
10,-9,-20,0,15,-14,-7,-39,-39,-42,-10,-27
4,-11,-16,4,10,-13,-10,-46,-46,-47,-13,-32
-10,-23,-13,17,2,-18,-13,-53,-52,-50,-17,-38
-17,-28,-10,22,-3,-19,-15,-55,-55,-50,-21,-43
-16,-23,-7,20,-4,-15,-19,-58,-57,-50,-18,-45
-16,-21,-5,19,-6,-13,-20,-61,-60,-50,-27,-48
-16,-18,-2,17,-7,-10,-20,-64,-64,-49,-41,-51
-15,-15,0,15,-7,-7,-20,-65,-65,-55,-39,-54
-16,-16,0,16,-8,-8,-20,-66,-69,-64,-42,-55
-20,-20,0,20,-10,-10,-19,-70,-70,-65,-45,-55
-21,-20,1,20,-11,-10,-22,-70,-70,-65,-45,-55
-19,-20,-1,19,-9,-10,-30,-68,-74,-65,-42,-55
-17,-20,-4,19,-6,-12,-30,-64,-76,-65,-40,-55
-12,-19,-7,16,-3,-13,-30,-65,-73,-65,-40,-55
-15,-24,-9,19,-2,-17,-30,-65,-70,-62,-40,-53
-17,-29,-12,23,-2,-20,-30,-65,-70,-57,-40,-49
-7,-23,-16,16,4,-19,-29,-65,-71,-55,-40,-47
-8,-21,-13,14,2,-16,-22,-58,-69,-51,-59,-44
-7,-14,-7,11,0,-11,-18,-50,-71,-46,-68,-41
-12,-12,0,12,-5,-6,-12,-43,-62,-44,-60,-39
-2,2,4,0,-3,3,-7,-41,-45,-35,-59,-35
8,27,18,-18,-5,22,1,-48,-45,-27,-54,-30
-1,30,31,-15,-16,30,-15,-49,-45,-18,-51,-26
15,38,24,-27,-5,31,-50,-57,-44,-17,-51,-21
20,31,11,-26,4,21,-51,-62,-47,-32,-57,-16
14,16,2,-15,6,9,-47,-72,-51,-29,-63,-17
15,3,-12,-9,13,-4,-46,-82,-74,-47,-77,-35
0,-21,-22,11,11,-21,-40,-76,-69,-49,-77,-45
-25,-57,-32,41,4,-44,-42,-87,-85,-73,-98,-56
-24,-69,-45,47,10,-56,-33,-71,-68,-66,-102,-55
-21,-67,-46,44,13,-57,-34,-90,-78,-68,-106,-57
-18,-75,-58,47,20,-66,-20,-69,-78,-80,-119,-65
-8,-62,-54,36,23,-58,-23,-84,-63,-49,-100,-54
-26,-101,-75,64,24,-88,-10,-66,-100,-105,-137,-84
-25,-187,-162,107,68,-174,84,105,44,-43,-168,-142
74,-281,-354,104,214,-317,311,644,362,49,-234,-239
263,246,-17,-255,140,114,353,1121,1181,1032,529,235
84,886,802,-486,-359,844,-17,-99,650,1156,1078,767
-281,708,988,-214,-634,848,-280,-1481,-1004,-391,281,502
-313,487,799,-87,-557,643,-437,-1578,-1250,-736,-108,241
-300,158,458,71,-379,308,-473,-1303,-1079,-683,-269,-6
-202,-133,69,168,-135,-32,-281,-692,-683,-543,-335,-147
-76,-93,-17,85,-30,-55,-122,-228,-209,-158,-134,-71
-52,-114,-62,83,5,-88,-19,-32,-75,-100,-119,-86
-12,-98,-86,55,37,-92,9,52,22,-8,-65,-62
-4,-97,-93,51,45,-95,21,71,21,-14,-70,-63
4,-98,-102,47,54,-100,29,114,69,21,-56,-52
1,-102,-103,51,52,-102,32,112,68,25,-50,-45
7,-103,-110,48,59,-107,43,138,91,32,-46,-43
20,-92,-111,36,66,-101,46,154,108,51,-31,-34
24,-92,-116,34,71,-104,54,183,124,60,-30,-35
33,-82,-114,25,74,-98,59,206,149,81,-11,-26
39,-80,-119,21,79,-99,65,229,167,93,-1,-25
54,-67,-121,7,87,-94,70,266,207,119,14,-16
64,-55,-119,-4,92,-87,69,299,232,140,27,-8
71,-44,-115,-13,93,-79,75,350,269,166,47,0
78,-29,-107,-24,93,-68,83,400,309,196,69,8
95,-6,-101,-45,98,-53,76,443,351,231,91,16
113,18,-95,-65,104,-38,69,456,374,259,114,37
123,36,-87,-79,104,-26,63,449,376,278,137,54
137,59,-78,-98,108,-10,56,436,375,275,157,69
136,81,-55,-108,95,13,50,389,353,260,159,83
115,88,-27,-101,71,30,45,332,306,252,150,76
92,81,-11,-86,51,35,40,263,245,230,145,68
70,71,1,-71,34,36,36,195,195,190,134,60
63,64,1,-64,31,32,31,146,156,157,112,53
48,48,-1,-48,24,23,27,104,114,125,86,43
17,18,1,-18,8,9,22,66,75,87,54,24
0,0,0,0,0,0,20,26,36,50,16,13
-14,-14,1,14,-7,-6,20,-1,9,22,-2,2
-23,-25,-2,24,-10,-14,17,-9,1,9,-7,-10
-20,-25,-5,23,-7,-15,14,-14,-6,-5,-15,-19
-20,-25,-5,23,-7,-15,16,-19,-12,-23,-20,-25
-20,-25,-5,23,-7,-15,19,-25,-20,-28,-28,-31
-20,-25,-5,23,-7,-15,20,-29,-24,-22,-30,-34
-21,-25,-4,23,-8,-15,20,-25,-21,-19,-30,-30
-18,-35,-17,27,0,-26,20,-20,-17,-16,-30,-30
-8,-41,-33,25,12,-37,20,-16,-14,-11,-30,-30
-4,-39,-35,22,16,-37,18,-12,-10,-11,-30,-30
-6,-41,-35,24,15,-37,14,-6,-5,-15,-31,-30
-4,-40,-35,23,15,-37,15,-7,-8,-17,-34,-30
-6,-40,-35,24,15,-37,11,-17,-16,-21,-37,-30
-9,-45,-35,28,13,-40,10,-22,-22,-23,-41,-30
-5,-45,-40,25,18,-42,10,-30,-30,-27,-44,-30
-7,-46,-40,26,17,-43,6,-38,-38,-38,-48,-30
-9,-50,-41,30,16,-46,3,-44,-44,-46,-50,-32
-4,-50,-45,28,20,-47,0,-50,-50,-51,-50,-35
-8,-52,-45,31,19,-48,-3,-50,-53,-56,-50,-37
-8,-56,-47,32,20,-51,-5,-54,-58,-54,-50,-40
-4,-55,-51,29,24,-52,-7,-55,-60,-58,-50,-44
-2,-56,-53,29,26,-54,-10,-57,-63,-60,-50,-45
-4,-60,-56,32,26,-57,-10,-61,-66,-60,-50,-45
-1,-60,-59,30,29,-59,-10,-59,-69,-64,-50,-45
-1,-61,-60,31,30,-61,-10,-64,-71,-65,-50,-45
-5,-65,-60,35,28,-62,-10,-65,-75,-65,-49,-45
-5,-65,-60,35,28,-62,-10,-65,-75,-70,-53,-45
-2,-63,-60,32,29,-61,-10,-65,-76,-70,-55,-44
-2,-59,-58,31,28,-58,-10,-65,-80,-71,-55,-40
-6,-60,-55,34,24,-57,-10,-65,-80,-75,-55,-40
-5,-60,-55,33,25,-57,-10,-65,-78,-75,-55,-37
-5,-60,-55,33,25,-57,-8,-66,-75,-76,-55,-34
-5,-60,-55,33,25,-57,-1,-62,-71,-75,-50,-36
6,-50,-56,22,32,-53,6,-52,-67,-76,-44,-30
8,-35,-43,14,26,-39,12,-42,-65,-67,-38,-20
4,-20,-24,8,15,-22,20,-32,-46,-47,-33,-10
20,4,-17,-12,19,-7,25,-34,-27,-38,-27,-5
44,29,-14,-36,29,7,19,-40,-32,-38,-25,-3
45,36,-8,-40,26,14,-5,-43,-28,-31,-24,1
39,35,-5,-37,22,15,-21,-48,-32,-32,-26,2
55,32,-23,-43,39,4,-20,-60,-42,-44,-24,7
55,13,-42,-34,49,-14,-21,-81,-64,-71,-26,-3
19,-21,-40,1,30,-30,-15,-84,-65,-72,-37,-19
-16,-54,-38,35,12,-46,-16,-94,-76,-86,-57,-33
-28,-71,-43,50,8,-57,-13,-86,-88,-101,-65,-48
-51,-86,-35,69,-8,-60,-13,-92,-76,-86,-60,-49
-65,-111,-46,88,-9,-78,-7,-90,-96,-121,-85,-63
-54,-101,-47,78,-3,-73,-13,-85,-53,-78,-63,-55
-54,-113,-59,84,2,-86,-3,-74,-103,-139,-96,-74
-58,-166,-109,112,26,-137,67,43,-16,-94,-117,-116
0,-286,-285,143,143,-285,276,471,208,-70,-226,-239
223,58,-166,-140,194,-54,430,1172,1002,672,273,46
202,765,562,-484,-180,663,92,385,1089,1353,1091,703
-164,775,938,-306,-551,856,-280,-1322,-599,47,607,665
-296,545,842,-125,-569,693,-481,-1755,-1308,-728,38,360
-279,267,546,6,-412,406,-589,-1501,-1125,-666,-131,135
-201,-58,144,130,-172,43,-383,-880,-793,-600,-268,-73
-78,-65,12,72,-44,-26,-154,-290,-255,-213,-132,-66
-49,-80,-30,65,-9,-55,-40,-91,-120,-153,-113,-80
-17,-74,-57,46,21,-65,-1,17,-24,-71,-82,-74
-6,-73,-66,40,30,-69,5,39,-21,-50,-80,-74
-1,-79,-78,40,39,-78,17,82,13,-35,-74,-77
4,-68,-72,33,39,-70,19,91,37,-12,-59,-70
9,-68,-77,30,44,-72,29,113,46,-19,-63,-71
21,-53,-73,17,47,-63,33,141,74,8,-46,-63
26,-50,-76,13,51,-63,40,166,81,3,-48,-63
34,-39,-73,3,54,-56,49,200,120,31,-34,-56
35,-34,-69,-1,53,-52,56,222,133,45,-26,-55
46,-25,-71,-11,59,-47,62,259,164,72,-13,-44
47,-20,-67,-13,57,-44,69,298,195,97,3,-29
56,-8,-65,-23,61,-36,77,345,228,116,19,-17
81,16,-65,-48,73,-25,81,399,274,142,38,-3
89,28,-60,-58,74,-16,77,448,314,176,61,12
96,44,-51,-70,73,-3,74,476,350,211,91,28
109,66,-43,-88,76,12,71,471,372,237,124,45
122,89,-33,-105,77,27,67,465,367,252,146,63
118,108,-10,-113,64,49,64,440,348,248,164,77
114,127,13,-120,50,69,56,384,312,233,166,78
100,127,27,-114,36,77,48,318,268,219,151,69
75,113,38,-95,19,75,40,251,218,186,139,61
74,107,33,-91,20,70,32,195,167,150,116,53
58,86,27,-72,15,56,26,145,125,117,84,46
31,54,23,-43,4,38,22,99,83,74,56,27
16,32,16,-24,0,24,19,61,39,38,24,2
3,14,11,-8,-5,12,16,22,6,7,-1,-10
-4,2,6,1,-6,4,11,1,-17,-18,-9,-22
-13,-9,4,11,-8,-2,11,-6,-27,-34,-13,-33
-22,-21,1,21,-11,-9,15,-13,-36,-40,-19,-35
-23,-25,-2,24,-10,-13,15,-19,-43,-40,-25,-35
-20,-25,-4,23,-7,-14,15,-27,-41,-40,-30,-35
-21,-27,-6,25,-7,-17,15,-29,-38,-40,-35,-35
-20,-31,-10,25,-5,-20,15,-24,-36,-40,-35,-34
-20,-30,-10,25,-5,-20,11,-19,-33,-40,-35,-38
-21,-34,-12,28,-4,-23,10,-15,-29,-36,-35,-40
-23,-39,-16,31,-4,-27,10,-10,-33,-35,-35,-40
-28,-42,-14,36,-6,-28,5,-5,-36,-35,-38,-44
-28,-47,-19,38,-4,-33,5,-9,-35,-35,-40,-46
-30,-50,-20,40,-5,-35,4,-16,-39,-35,-40,-44
-30,-50,-20,40,-5,-35,0,-22,-40,-36,-40,-40
-25,-50,-25,38,0,-37,-2,-29,-40,-45,-40,-40
-26,-50,-25,39,0,-37,-5,-36,-46,-51,-41,-39
-23,-50,-26,37,1,-38,-9,-41,-52,-54,-44,-35
-23,-54,-30,38,4,-42,-10,-48,-58,-59,-49,-35
-28,-57,-29,43,1,-43,-14,-54,-68,-66,-52,-37
-29,-62,-33,46,2,-47,-15,-60,-75,-72,-56,-41
-38,-73,-35,56,-1,-54,-15,-70,-77,-75,-59,-44
-41,-76,-35,59,-3,-55,-20,-75,-80,-75,-63,-47
-36,-74,-39,55,2,-56,-20,-75,-80,-79,-65,-50
-35,-75,-40,55,3,-57,-20,-75,-80,-80,-60,-52
-35,-75,-40,55,3,-57,-20,-75,-80,-80,-60,-56
-35,-75,-40,55,3,-57,-20,-75,-80,-80,-59,-53
-35,-75,-40,55,3,-57,-20,-79,-80,-80,-55,-47
-35,-75,-40,55,3,-57,-20,-80,-80,-79,-55,-43
-35,-75,-40,55,3,-57,-20,-80,-80,-75,-57,-38
-35,-75,-40,55,3,-57,-17,-80,-80,-75,-60,-34
-35,-75,-40,55,3,-57,-14,-80,-80,-75,-63,-29
-33,-72,-40,52,4,-56,-16,-80,-78,-75,-66,-26
-23,-64,-41,44,9,-52,-15,-73,-73,-76,-70,-25
-21,-56,-35,39,7,-46,-15,-65,-69,-70,-70,-25
-21,-48,-26,35,3,-37,-14,-59,-63,-62,-64,-25
-24,-41,-17,33,-3,-29,-5,-51,-60,-55,-57,-25
-9,-21,-11,15,1,-16,2,-53,-59,-51,-51,-22
22,7,-15,-14,18,-3,14,-56,-61,-56,-44,-12
26,10,-16,-17,21,-2,2,-58,-59,-56,-41,-3
27,13,-13,-20,20,0,-32,-63,-61,-62,-47,8
43,16,-27,-29,34,-6,-45,-69,-62,-62,-48,12
48,-2,-50,-23,49,-26,-47,-93,-78,-65,-53,0
38,-20,-58,-9,48,-38,-39,-89,-89,-64,-56,-13
-1,-53,-52,27,26,-52,-36,-91,-89,-69,-62,-30
-30,-89,-58,60,14,-73,-28,-91,-100,-102,-90,-49
-35,-87,-52,61,8,-69,-24,-86,-76,-69,-71,-40
-48,-105,-57,77,5,-81,-20,-98,-106,-104,-90,-52
-42,-97,-55,70,6,-75,-9,-76,-64,-63,-71,-48
-48,-98,-50,73,1,-73,-13,-100,-106,-94,-84,-55
-41,-132,-91,87,25,-112,33,-6,-59,-86,-103,-76
-7,-253,-246,130,120,-249,200,296,101,-81,-219,-201
183,-112,-295,-36,239,-203,408,1029,705,359,21,-94
296,618,322,-457,-13,470,223,817,1268,1342,955,572
-49,825,874,-388,-462,849,-171,-900,-99,488,817,742
-281,581,862,-151,-571,721,-390,-1725,-1228,-620,136,440
-277,361,638,-42,-458,499,-544,-1577,-1131,-619,-52,224
-233,-12,221,122,-226,104,-435,-1071,-912,-637,-237,-25
-85,-71,14,78,-49,-29,-180,-399,-355,-274,-139,-47
-33,-58,-26,46,-3,-42,-36,-120,-134,-132,-80,-41
-10,-73,-63,42,27,-67,15,6,-40,-88,-57,-50
5,-57,-62,26,34,-60,28,36,10,-35,-35,-39
9,-72,-81,32,46,-77,46,72,17,-37,-47,-50
19,-59,-78,20,48,-68,48,96,59,3,-23,-38
20,-64,-85,22,53,-74,53,113,50,-14,-30,-43
28,-57,-85,15,57,-71,56,146,81,13,-14,-35
28,-61,-89,17,58,-75,59,156,84,7,-15,-35
35,-60,-95,13,65,-77,63,190,116,25,-6,-31
34,-60,-94,13,64,-76,66,216,133,39,-2,-29
41,-58,-99,9,70,-78,70,244,156,57,4,-22
53,-47,-100,-3,77,-73,81,279,186,80,9,-8
62,-38,-100,-12,81,-69,91,325,218,98,17,4
77,-24,-100,-26,89,-62,94,374,264,133,37,18
101,1,-100,-51,100,-49,99,418,298,163,59,32
121,20,-101,-71,111,-40,97,460,336,195,81,45
138,45,-93,-91,115,-24,88,464,357,217,104,64
151,79,-71,-115,111,4,80,449,352,231,126,80
142,95,-47,-118,94,24,71,434,348,235,148,90
134,105,-29,-119,81,38,63,385,327,228,161,104
125,110,-16,-117,70,47,56,322,283,219,156,102
108,101,-7,-104,58,46,49,263,240,198,151,92
99,89,-9,-94,54,40,41,209,200,161,127,85
86,74,-13,-80,49,30,34,161,159,121,89,78
68,53,-15,-60,41,19,28,109,121,90,68,64
43,25,-19,-34,31,3,25,65,84,51,42,42
18,-2,-20,-8,19,-11,22,27,48,10,17,30
1,-19,-20,9,11,-19,19,-2,21,-13,2,25
-11,-31,-20,21,5,-25,16,-13,6,-28,-12,17
-11,-31,-20,21,4,-26,15,-19,5,-37,-20,10
-9,-29,-20,19,5,-25,15,-26,5,-40,-24,2
-11,-30,-20,21,4,-25,15,-33,0,-43,-25,-3
-9,-30,-21,19,6,-25,15,-32,-1,-46,-25,-6
-5,-30,-25,18,10,-27,15,-27,1,-50,-25,-9
-7,-32,-25,20,9,-28,15,-24,5,-50,-25,-12
-11,-36,-25,24,8,-30,13,-21,5,-46,-25,-15
-10,-35,-25,23,8,-30,9,-16,5,-43,-25,-14
-10,-35,-25,23,8,-30,7,-16,5,-40,-30,-10
-6,-35,-29,21,12,-31,4,-21,5,-38,-30,-8
-5,-35,-30,20,13,-32,1,-27,1,-34,-34,-5
-10,-40,-30,25,10,-35,-1,-30,-6,-38,-35,-2
-10,-40,-30,25,10,-35,-4,-35,-10,-40,-37,1
-9,-40,-30,25,10,-35,-7,-40,-16,-41,-48,0
-12,-40,-29,26,8,-34,-10,-44,-21,-45,-50,0
-15,-39,-25,28,5,-31,-13,-47,-26,-45,-50,0
-17,-43,-25,31,4,-34,-15,-52,-30,-49,-50,0
-23,-45,-23,34,0,-34,-17,-55,-33,-51,-50,0
-25,-45,-19,35,-2,-32,-21,-55,-37,-49,-50,1
-28,-49,-20,38,-4,-34,-23,-57,-40,-53,-52,9
-27,-51,-23,39,-2,-37,-26,-61,-44,-57,-58,16
-18,-49,-32,34,7,-40,-29,-59,-45,-62,-62,23
-12,-46,-34,29,12,-40,-31,-64,-48,-64,-65,22
-15,-45,-29,30,7,-36,-34,-65,-50,-61,-65,17
-20,-45,-26,33,4,-35,-35,-65,-51,-60,-65,15
-22,-45,-23,34,1,-33,-35,-69,-56,-60,-65,10
-27,-45,-18,36,-4,-31,-35,-70,-61,-60,-65,7
-28,-42,-15,36,-6,-28,-35,-69,-64,-61,-65,3
-19,-38,-19,28,0,-28,-33,-63,-62,-58,-67,0
-3,-32,-29,18,13,-31,-28,-58,-59,-51,-75,-3
4,-29,-33,13,19,-31,-22,-52,-56,-44,-80,-5
1,-23,-24,12,13,-23,-19,-45,-53,-37,-69,-8
-11,-20,-10,16,-1,-15,-13,-41,-50,-31,-55,-11
-11,-12,-2,12,-4,-7,-10,-42,-49,-23,-42,-6
-5,-3,2,4,-3,0,-4,-48,-51,-22,-36,-5
6,11,5,-9,0,8,-11,-48,-48,-19,-29,-4
43,52,9,-48,17,30,-40,-55,-51,-21,-21,0
33,42,9,-38,12,25,-46,-55,-49,-20,-19,0
22,6,-16,-14,19,-4,-42,-62,-63,-23,-15,0
20,-7,-27,-6,23,-16,-38,-64,-91,-49,-31,-18
-8,-31,-23,20,8,-27,-35,-60,-79,-37,-39,-35
-13,-63,-49,38,18,-56,-31,-63,-94,-63,-63,-58
-20,-71,-51,45,16,-60,-27,-54,-75,-41,-53,-63
-28,-80,-52,54,12,-66,-27,-70,-95,-67,-68,-81
-25,-85,-60,56,18,-72,-18,-47,-77,-48,-63,-87
-24,-78,-54,51,15,-65,-25,-75,-85,-53,-64,-84
-35,-108,-73,72,19,-90,8,-13,-70,-72,-105,-115
-30,-220,-191,125,81,-205,126,204,78,-7,-173,-207
105,-235,-340,65,223,-287,354,857,540,203,-130,-239
254,446,192,-350,31,319,268,990,1251,1276,811,385
-12,925,936,-457,-474,930,-123,-562,176,820,993,742
-315,643,958,-164,-637,800,-329,-1600,-1266,-662,101,366
-304,444,748,-70,-526,596,-485,-1541,-1251,-722,-133,142
-299,94,393,102,-346,243,-455,-1232,-1097,-747,-312,-116
-190,-129,62,159,-126,-33,-268,-598,-623,-484,-288,-192
-70,-71,-1,71,-34,-36,-118,-192,-212,-144,-119,-114
-36,-79,-43,57,3,-61,-19,2,-78,-81,-99,-114
-4,-64,-61,34,28,-62,-7,58,-3,-1,-42,-86
-6,-72,-66,40,30,-69,9,82,0,-20,-57,-101
3,-63,-66,30,35,-65,11,116,48,28,-33,-92
5,-65,-70,30,38,-67,19,120,41,18,-34,-96
7,-64,-71,29,39,-67,26,144,67,38,-23,-96
16,-56,-71,20,44,-64,30,151,70,45,-15,-90
22,-54,-76,17,49,-65,38,180,96,60,-11,-87
27,-47,-74,10,51,-60,43,201,117,79,-1,-78
34,-45,-79,6,57,-62,52,229,134,88,5,-75
42,-39,-80,-2,61,-60,56,265,173,112,23,-68
53,-32,-84,-10,69,-58,65,300,202,131,34,-54
67,-18,-84,-24,76,-51,67,345,239,160,50,-32
70,-8,-78,-31,74,-43,64,390,278,189,70,-3
74,-1,-76,-36,75,-38,65,433,318,218,97,13
88,19,-70,-53,79,-25,60,442,334,247,126,31
115,48,-67,-81,91,-9,60,432,322,259,141,52
130,76,-54,-103,92,11,59,423,311,254,155,50
105,78,-27,-91,66,25,48,380,298,252,163,43
78,68,-10,-73,44,29,37,312,256,236,153,39
60,64,4,-62,28,33,25,247,205,202,141,32
47,55,8,-51,20,31,16,187,160,166,131,28
48,51,3,-50,22,27,15,131,112,124,111,19
29,30,1,-30,14,16,15,80,70,88,78,-10
5,3,-2,-4,3,1,15,41,30,50,39,-33
1,-4,-5,2,3,-4,15,16,0,17,15,-39
-5,-11,-6,8,1,-8,16,1,-23,1,9,-44
-5,-17,-12,11,4,-14,20,-5,-38,-15,2,-45
-5,-24,-19,15,7,-22,20,-10,-35,-23,-4,-45
-13,-29,-16,22,2,-23,20,-16,-35,-25,-11,-45
-11,-25,-15,19,2,-20,20,-22,-33,-25,-16,-45
-10,-25,-15,18,3,-20,20,-24,-29,-25,-21,-45
-14,-24,-10,19,-2,-16,16,-20,-31,-25,-25,-45
-9,-20,-11,14,1,-15,15,-18,-26,-24,-30,-50
-11,-20,-8,16,-2,-14,15,-15,-25,-27,-35,-50
-7,-22,-15,15,5,-19,10,-12,-24,-30,-32,-50
5,-25,-31,10,18,-27,10,-10,-21,-30,-29,-50
2,-28,-30,13,16,-29,9,-14,-19,-30,-26,-50
-1,-31,-30,16,15,-30,4,-21,-22,-30,-23,-50
-6,-37,-30,22,12,-33,1,-27,-34,-33,-20,-50
-11,-41,-30,26,9,-35,-2,-34,-46,-37,-21,-50
-9,-39,-30,24,11,-35,-7,-41,-54,-44,-30,-50
-11,-40,-30,26,10,-35,-10,-46,-60,-56,-39,-50
-10,-40,-30,25,10,-35,-14,-51,-60,-60,-40,-50
-10,-40,-30,25,10,-35,-15,-54,-60,-60,-40,-45
-10,-40,-30,25,10,-35,-15,-59,-60,-60,-40,-41
-10,-41,-31,25,10,-36,-15,-63,-60,-60,-40,-39
-19,-53,-34,36,8,-43,-15,-68,-60,-60,-40,-34
-25,-62,-37,44,6,-49,-15,-70,-63,-61,-40,-30
-25,-65,-39,45,8,-52,-15,-70,-68,-65,-36,-30
-23,-65,-43,44,10,-54,-15,-70,-70,-65,-35,-30
-19,-65,-46,42,14,-55,-15,-70,-70,-65,-35,-30
-23,-65,-43,44,10,-54,-15,-70,-70,-65,-35,-30
-25,-65,-39,45,7,-52,-15,-70,-70,-65,-35,-30
-25,-65,-40,45,8,-52,-11,-70,-70,-65,-36,-30
-25,-65,-40,45,8,-52,-10,-70,-70,-65,-43,-30
-25,-65,-40,45,8,-52,-11,-71,-66,-66,-42,-30
-26,-66,-40,46,8,-52,-9,-70,-60,-65,-36,-30
-28,-64,-35,46,4,-49,-11,-70,-54,-66,-32,-30
-28,-61,-33,45,2,-47,-8,-67,-48,-63,-28,-30
-27,-53,-26,40,-1,-39,2,-46,-45,-48,-22,-28
-22,-32,-10,27,-6,-20,24,-37,-44,-41,-20,-23
-11,-4,7,7,-9,1,22,-43,-46,-48,-26,-20
0,11,10,-6,-5,10,-21,-46,-44,-47,-24,-17
11,6,-5,-8,8,1,-37,-51,-46,-53,-27,-12
25,-6,-30,-9,28,-18,-30,-55,-45,-55,-31,-10
39,-10,-49,-14,45,-30,-31,-76,-47,-54,-28,-16
35,-24,-59,-5,47,-41,-22,-79,-61,-65,-32,-26
5,-51,-56,23,30,-53,-23,-80,-53,-58,-38,-34
-22,-88,-66,55,22,-77,-16,-82,-72,-92,-69,-55
-32,-94,-62,63,15,-78,-16,-76,-54,-66,-60,-53
-42,-104,-62,73,10,-83,-15,-88,-78,-93,-84,-64
-39,-100,-61,69,11,-80,-7,-69,-53,-71,-82,-64
-40,-94,-54,67,7,-74,-16,-86,-73,-80,-81,-70
-49,-132,-83,90,17,-107,31,-17,-62,-105,-111,-96
-33,-236,-203,135,85,-219,175,249,129,-53,-189,-183
123,-174,-297,26,210,-235,436,986,687,278,-64,-153
264,548,284,-406,-10,416,269,896,1327,1345,867,474
-14,923,937,-454,-476,929,-242,-860,22,704,950,782
-280,650,930,-185,-605,789,-502,-1855,-1412,-742,142,474
-272,403,675,-66,-474,539,-658,-1685,-1297,-781,-110,231
-211,63,273,74,-242,168,-516,-1150,-1004,-708,-272,3
-79,-36,43,57,-61,3,-212,-436,-420,-349,-202,-44
-31,-44,-12,38,-9,-28,-55,-122,-114,-123,-107,-46
-10,-69,-60,40,25,-64,10,14,-51,-97,-97,-55
22,-45,-67,12,45,-56,15,57,23,-21,-58,-39
24,-63,-87,20,56,-75,31,77,22,-41,-75,-48
33,-49,-83,9,58,-66,35,105,71,10,-50,-35
28,-59,-86,16,58,-72,44,116,65,-2,-55,-41
31,-53,-84,12,58,-69,52,150,97,27,-39,-31
33,-52,-85,10,59,-68,54,163,109,31,-35,-31
38,-47,-85,5,62,-65,63,192,131,47,-27,-27
40,-40,-80,0,60,-60,74,224,156,66,-18,-22
40,-39,-79,-1,60,-59,75,257,175,79,-9,-20
44,-31,-75,-5,60,-53,76,291,205,104,5,-12
44,-28,-72,-8,58,-50,90,332,243,121,17,-4
63,-7,-70,-28,66,-38,97,383,291,158,37,5
80,12,-68,-46,73,-28,109,438,329,187,57,14
92,33,-59,-62,75,-12,110,484,371,222,83,32
123,71,-52,-97,88,9,104,506,401,262,107,57
136,99,-38,-117,87,30,100,496,398,276,136,74
144,125,-18,-134,81,54,96,466,393,276,156,89
131,136,4,-134,63,70,84,418,376,273,154,90
98,127,29,-113,34,78,58,358,333,262,149,82
92,121,29,-107,32,74,47,287,282,227,147,76
93,115,22,-104,36,68,43,226,230,180,131,70
83,103,19,-93,32,61,37,178,180,130,98,59
58,71,13,-65,22,42,32,127,126,91,67,37
29,39,10,-34,9,24,26,80,80,55,39,20
8,14,5,-11,1,9,22,41,48,19,17,8
2,3,2,-3,0,2,19,16,13,-6,-1,1
-1,-2,-1,1,1,-2,16,4,-9,-29,-18,-4
-5,-10,-6,8,1,-8,13,-1,-14,-40,-26,-9
-8,-17,-9,13,1,-13,10,-6,-19,-41,-25,-15
-11,-24,-13,18,1,-18,11,-12,-22,-45,-25,-19
-5,-20,-15,13,5,-17,15,-18,-28,-47,-25,-15
-6,-20,-15,13,4,-17,15,-18,-29,-51,-25,-15
0,-19,-19,10,9,-19,15,-15,-24,-47,-25,-14
-4,-24,-20,14,8,-22,15,-15,-21,-45,-25,-10
-15,-35,-20,25,3,-27,15,-12,-18,-45,-25,-10
-10,-35,-25,23,8,-30,12,-10,-14,-45,-25,-12
-14,-39,-25,27,6,-31,9,-11,-10,-45,-25,-18
-15,-40,-25,28,5,-32,6,-16,-15,-45,-25,-22
-17,-42,-25,30,4,-33,3,-23,-23,-50,-29,-25
-22,-47,-25,35,2,-36,1,-29,-29,-55,-30,-30
-25,-50,-25,38,0,-37,-2,-36,-37,-59,-32,-30
-25,-50,-25,38,0,-37,-5,-42,-44,-61,-35,-32
-14,-50,-36,32,11,-43,-5,-48,-51,-60,-36,-35
-9,-50,-41,29,16,-46,-7,-50,-57,-60,-40,-36
-11,-50,-39,31,14,-45,-11,-53,-60,-60,-42,-32
-9,-50,-41,29,16,-45,-10,-56,-64,-60,-45,-30
-13,-52,-40,33,14,-46,-10,-59,-69,-60,-49,-30
-15,-56,-41,35,13,-48,-10,-61,-70,-60,-50,-27
-10,-54,-44,33,18,-49,-10,-64,-70,-68,-50,-24
-14,-59,-45,37,16,-52,-10,-67,-70,-70,-50,-25
-15,-60,-45,38,15,-52,-10,-69,-69,-70,-50,-38
-15,-60,-45,38,15,-52,-11,-73,-71,-74,-50,-40
-20,-65,-44,43,12,-54,-15,-75,-75,-76,-50,-33
-17,-65,-48,41,16,-56,-18,-78,-75,-73,-51,-30
-18,-68,-50,43,16,-59,-22,-80,-77,-71,-55,-25
-21,-71,-50,46,14,-60,-25,-80,-80,-67,-55,-20
-14,-67,-54,41,20,-60,-22,-80,-80,-65,-57,-20
-6,-61,-55,34,25,-58,-17,-80,-76,-61,-60,-20
-2,-57,-55,30,27,-55,-15,-80,-70,-60,-60,-20
0,-51,-51,26,25,-51,-10,-74,-64,-72,-57,-20
2,-45,-47,22,25,-46,-7,-72,-58,-69,-50,-20
1,-41,-42,20,21,-41,-3,-62,-53,-57,-45,-19
4,-19,-22,8,13,-20,3,-43,-49,-47,-39,-14
21,12,-9,-17,15,2,18,-22,-51,-44,-33,-11
33,23,-10,-28,21,6,6,-26,-47,-46,-32,-8
19,17,-3,-17,11,7,-33,-65,-45,-43,-34,-3
18,5,-13,-11,15,-4,-40,-70,-45,-49,-39,0
49,0,-49,-24,49,-24,-45,-76,-54,-39,-37,-6
54,-15,-69,-19,61,-41,-44,-87,-79,-58,-48,-26
25,-38,-62,7,44,-50,-37,-87,-74,-63,-51,-38
-4,-71,-67,38,32,-69,-34,-95,-94,-90,-74,-57
-13,-78,-64,46,26,-71,-24,-79,-84,-86,-76,-62
-16,-80,-64,49,24,-71,-24,-94,-104,-107,-91,-65
-25,-96,-71,60,23,-83,-12,-68,-89,-101,-93,-67
-28,-93,-65,61,19,-79,-18,-90,-86,-95,-86,-60
-27,-112,-85,70,29,-98,2,-55,-95,-131,-116,-78
-35,-208,-173,122,69,-190,125,156,52,-70,-170,-166
82,-253,-335,86,209,-294,378,797,458,100,-163,-208
283,377,94,-330,94,236,325,1066,1262,1139,684,361
73,881,808,-478,-368,845,-127,-426,430,959,1024,792
-257,664,921,-204,-589,792,-410,-1698,-1157,-497,265,522
-299,446,745,-74,-522,595,-586,-1698,-1274,-712,-49,282
-268,90,358,89,-313,223,-546,-1279,-1044,-676,-222,35
-144,-87,57,115,-100,-15,-257,-559,-523,-406,-207,-57
-57,-70,-13,64,-22,-42,-81,-168,-150,-123,-96,-33
-36,-102,-66,70,15,-84,-8,-29,-82,-107,-97,-56
-12,-77,-65,45,27,-71,13,32,7,-18,-42,-35
-10,-87,-78,49,34,-82,25,54,-5,-34,-53,-45
4,-73,-77,35,41,-75,36,97,45,11,-29,-37
9,-74,-83,33,46,-78,49,106,44,8,-30,-38
18,-68,-86,25,52,-77,57,135,67,27,-19,-34
25,-62,-87,19,56,-75,58,153,81,39,-11,-35
33,-59,-92,13,63,-75,65,190,101,45,-10,-36
42,-51,-93,5,68,-72,70,217,130,70,-1,-34
49,-47,-96,-1,72,-71,78,239,144,80,-3,-35
48,-41,-90,-3,69,-65,84,275,181,101,14,-25
52,-32,-85,-10,69,-58,91,310,210,123,27,-17
66,-15,-81,-26,74,-47,98,363,251,147,42,-8
74,-2,-76,-36,75,-39,97,419,297,178,66,2
88,16,-72,-52,79,-28,91,452,327,205,85,15
110,43,-67,-77,88,-11,87,478,363,243,109,30
132,77,-55,-104,93,11,83,472,370,263,132,43
136,93,-43,-115,89,25,78,445,357,254,146,61
126,104,-22,-115,74,41,74,413,344,248,151,77
111,113,2,-112,54,57,69,360,304,241,142,75
95,104,9,-100,43,56,63,303,261,233,136,65
83,97,14,-90,34,56,60,245,218,205,130,57
72,92,20,-83,26,56,55,189,174,169,119,48
52,65,13,-59,20,39,51,145,135,129,94,37
26,32,6,-29,10,19,45,101,95,84,64,18
13,13,-1,-13,7,6,37,55,55,48,38,-6
4,-5,-9,1,7,-7,31,18,20,23,16,-28
0,-15,-16,8,8,-15,23,-6,-1,12,5,-38
-8,-30,-23,19,8,-26,16,-15,-7,8,2,-35
-20,-46,-25,33,3,-36,9,-26,-10,2,-1,-32
-20,-45,-25,33,3,-35,5,-33,-14,-4,-6,-30
-16,-45,-29,31,7,-36,5,-29,-18,-9,-9,-26
-15,-45,-30,30,8,-37,5,-24,-21,-14,-13,-25
-14,-44,-30,29,8,-37,5,-20,-24,-15,-19,-25
-13,-48,-35,31,11,-41,5,-15,-25,-15,-24,-25
-16,-50,-35,34,9,-42,9,-10,-25,-15,-30,-25
-14,-50,-36,32,11,-43,10,-14,-25,-15,-35,-25
-13,-54,-40,34,14,-47,10,-19,-25,-17,-35,-25
-16,-55,-39,36,12,-47,10,-22,-27,-20,-36,-27
-13,-55,-43,34,15,-48,10,-27,-32,-23,-40,-30
-14,-60,-45,38,16,-52,9,-30,-35,-25,-40,-32
-21,-66,-45,44,12,-55,5,-34,-42,-30,-42,-35
-27,-73,-45,51,9,-59,6,-41,-53,-40,-46,-39
-31,-75,-45,54,8,-60,2,-54,-61,-47,-50,-40
-30,-75,-45,53,8,-60,0,-61,-67,-50,-58,-44
-30,-75,-45,53,8,-60,0,-64,-73,-55,-60,-51
-30,-75,-45,53,8,-60,-3,-69,-75,-58,-60,-56
-30,-75,-45,53,8,-60,-6,-70,-75,-61,-60,-60
-32,-75,-43,54,6,-58,-9,-70,-75,-64,-60,-62
-31,-70,-39,51,4,-55,-12,-75,-75,-67,-60,-65
-33,-70,-37,52,2,-53,-14,-75,-76,-69,-59,-68
-35,-69,-34,52,0,-51,-17,-76,-79,-71,-56,-70
-34,-65,-31,49,-1,-47,-20,-80,-80,-75,-55,-73
-36,-65,-29,50,-3,-47,-20,-79,-80,-75,-55,-76
-41,-67,-26,55,-8,-46,-22,-83,-80,-77,-55,-80
-46,-71,-24,59,-11,-47,-26,-85,-82,-81,-55,-79
-44,-69,-25,57,-9,-47,-25,-85,-85,-80,-57,-75
-47,-72,-24,60,-11,-48,-25,-85,-88,-80,-60,-73
-59,-85,-26,73,-16,-55,-25,-85,-91,-80,-60,-70
-59,-81,-22,71,-19,-52,-25,-86,-94,-80,-60,-66
-56,-76,-20,66,-18,-48,-25,-85,-96,-80,-60,-65
-54,-73,-19,63,-17,-45,-25,-86,-88,-81,-60,-61
-53,-68,-15,61,-19,-41,-24,-82,-79,-79,-55,-52
-48,-63,-15,56,-16,-39,-12,-73,-69,-71,-47,-44
-33,-31,1,32,-16,-15,0,-52,-67,-63,-41,-36
-16,4,20,5,-18,12,10,-30,-70,-55,-33,-28
-4,15,19,-5,-12,17,13,-34,-71,-56,-29,-26
12,32,21,-22,-4,26,-19,-45,-68,-53,-23,-22
29,49,20,-39,5,34,-46,-56,-72,-57,-27,-20
19,28,9,-24,5,19,-43,-64,-68,-54,-23,-16
8,4,-4,-6,6,0,-41,-90,-79,-71,-26,-14
5,-14,-19,5,12,-16,-39,-92,-89,-79,-45,-22
-18,-37,-18,28,0,-27,-41,-98,-97,-83,-61,-42
-30,-59,-30,45,0,-44,-38,-93,-110,-108,-79,-60
-30,-55,-25,43,-3,-40,-42,-94,-93,-92,-70,-49
-31,-66,-35,48,2,-50,-35,-101,-115,-130,-94,-62
-37,-64,-27,51,-5,-45,-33,-81,-68,-86,-73,-47
-57,-86,-29,72,-14,-58,-27,-104,-112,-135,-102,-61
-39,-130,-91,84,26,-110,34,13,-40,-100,-116,-95
-14,-253,-238,134,112,-245,213,367,138,-98,-228,-218
208,-24,-232,-92,220,-128,381,1074,810,473,134,-23
282,695,413,-488,-66,554,144,613,1139,1282,1002,648
-124,785,909,-331,-517,847,-209,-1076,-335,228,672,688
-313,552,865,-120,-589,709,-410,-1675,-1186,-629,77,388
-297,314,611,-9,-454,462,-541,-1485,-1053,-595,-93,171
-221,-21,200,121,-211,90,-403,-946,-811,-600,-263,-56
-78,-49,29,64,-54,-10,-172,-330,-280,-235,-143,-43
-56,-68,-11,62,-22,-39,-51,-93,-115,-131,-114,-53
-23,-68,-44,46,11,-56,-7,28,-19,-65,-80,-51
-11,-59,-48,35,19,-53,4,51,11,-41,-66,-47
-4,-65,-61,35,29,-63,14,92,32,-42,-67,-55
3,-55,-58,26,31,-57,18,99,62,-12,-43,-42
5,-62,-68,29,37,-65,27,117,59,-15,-49,-43
21,-47,-68,13,45,-58,32,142,88,13,-32,-32
24,-46,-70,11,47,-58,37,163,95,18,-36,-31
35,-36,-71,1,53,-54,42,200,122,44,-24,-23
44,-31,-75,-6,60,-53,45,222,137,52,-23,-19
50,-25,-76,-12,63,-50,52,254,165,71,-13,-11
54,-18,-72,-18,64,-45,62,284,189,94,8,-3
59,-10,-70,-25,65,-40,69,330,218,116,23,5
69,-1,-70,-34,70,-35,77,375,254,141,38,13
78,12,-66,-45,72,-27,75,419,287,172,56,22
96,31,-65,-63,80,-17,67,450,319,197,80,43
120,54,-66,-86,93,-6,61,446,325,221,102,59
134,80,-53,-107,93,13,54,440,313,239,122,71
134,100,-34,-117,84,33,48,416,307,230,142,90
114,106,-8,-110,61,49,42,364,292,222,138,98
96,102,6,-100,45,53,40,308,255,214,128,90
89,97,8,-93,40,52,37,250,217,198,120,82
81,93,12,-87,34,52,34,201,184,167,111,73
72,87,15,-80,29,51,31,160,146,134,98,65
46,66,20,-56,13,43,29,120,110,101,67,56
19,37,18,-28,1,27,26,80,70,67,34,37
-6,9,14,-2,-10,11,25,41,30,42,9,21
-17,-2,16,9,-16,6,25,25,13,26,0,16
-10,1,11,4,-11,6,25,20,8,19,-5,11
-13,-3,10,8,-11,3,25,12,0,13,-13,8
-15,-5,10,10,-12,2,25,4,-5,6,-19,2
-15,-5,10,10,-12,2,25,-3,-13,-1,-25,0
-18,-8,10,13,-14,1,25,-2,-13,-7,-25,0
-21,-11,10,16,-15,-1,25,0,-10,-10,-25,0
-24,-14,10,19,-16,-1,25,0,-10,-10,-25,0
-27,-17,10,22,-18,-3,25,0,-10,-10,-25,0
-27,-19,8,23,-18,-6,20,0,-10,-10,-25,0
-25,-22,3,23,-14,-9,16,-1,-10,-9,-27,-3
-25,-25,0,25,-12,-12,14,-8,-16,-14,-32,-8
-25,-28,-3,27,-11,-15,9,-14,-22,-16,-35,-11
-25,-33,-8,29,-8,-20,6,-21,-27,-27,-41,-15
-26,-36,-11,31,-7,-23,3,-28,-32,-45,-48,-18
-30,-45,-15,38,-8,-30,-1,-34,-41,-47,-52,-21
-36,-51,-15,44,-11,-32,-3,-39,-53,-50,-60,-27
-33,-49,-16,41,-8,-32,-6,-46,-59,-53,-65,-34
-32,-53,-20,43,-6,-36,-9,-52,-60,-62,-60,-38
-36,-55,-19,46,-8,-37,-11,-55,-63,-72,-60,-41
-32,-55,-22,44,-4,-38,-15,-56,-65,-71,-59,-44
-33,-59,-25,47,-4,-42,-15,-59,-66,-70,-55,-46
-35,-60,-25,48,-5,-42,-16,-60,-70,-70,-55,-50
-35,-60,-25,48,-5,-42,-20,-63,-70,-70,-55,-49
-35,-60,-25,48,-5,-42,-20,-66,-70,-70,-55,-45
-35,-60,-25,48,-5,-42,-18,-69,-70,-72,-55,-46
-34,-59,-25,47,-4,-41,-15,-72,-70,-75,-55,-42
-30,-55,-25,43,-2,-40,-15,-74,-74,-75,-55,-40
-30,-55,-25,43,-2,-40,-15,-77,-75,-75,-56,-40
-28,-52,-25,40,-1,-38,-15,-80,-75,-75,-59,-44
-24,-50,-25,37,1,-37,-15,-80,-75,-75,-61,-45
-28,-50,-23,39,-2,-36,-9,-80,-74,-69,-65,-45
-32,-50,-19,41,-7,-34,-4,-81,-68,-64,-67,-50
-35,-50,-15,43,-10,-32,1,-80,-61,-59,-71,-51
-38,-50,-12,44,-13,-31,7,-74,-54,-52,-66,-49
-41,-48,-7,45,-17,-28,13,-60,-47,-47,-49,-40
-20,-25,-5,23,-7,-15,13,-52,-41,-42,-35,-30
3,-2,-5,0,4,-3,4,-55,-43,-35,-23,-20
13,8,-5,-10,9,2,-3,-54,-46,-31,-18,-15
37,30,-7,-33,22,11,-16,-55,-43,-33,-19,-14
39,29,-10,-34,24,9,-31,-61,-49,-37,-25,-16
36,3,-33,-19,35,-15,-38,-78,-62,-38,-23,-14
43,-14,-58,-14,51,-36,-35,-96,-91,-67,-34,-17
28,-26,-54,0,41,-40,-31,-98,-89,-63,-44,-31
-10,-65,-55,38,22,-59,-31,-109,-103,-85,-65,-50
-27,-84,-57,56,15,-70,-23,-93,-91,-92,-71,-57
-24,-75,-51,50,13,-63,-27,-107,-95,-91,-74,-58
-24,-86,-63,55,19,-74,-17,-90,-101,-106,-89,-71
-14,-72,-58,43,22,-65,-24,-98,-80,-74,-66,-62
-12,-88,-76,50,32,-82,-15,-82,-118,-127,-100,-76
-23,-161,-138,92,58,-149,78,72,1,-70,-133,-134
64,-264,-328,100,196,-296,288,558,241,-41,-234,-251
310,196,-114,-253,212,41,359,1144,1067,834,423,166
182,823,641,-503,-230,732,38,98,821,1162,1050,746
-210,717,927,-254,-569,822,-254,-1437,-779,-176,425,575
-297,513,810,-108,-554,661,-434,-1664,-1165,-611,29,317
-286,195,480,45,-383,337,-502,-1381,-1024,-607,-153,74
-185,-80,105,132,-144,12,-315,-751,-664,-503,-246,-90
-72,-51,22,61,-47,-14,-111,-247,-202,-165,-105,-49
-41,-75,-34,58,-3,-54,-10,-69,-113,-123,-101,-76
1,-58,-59,29,30,-58,7,11,-21,-36,-53,-59
3,-61,-64,29,33,-62,17,29,-16,-53,-66,-68
11,-61,-72,25,42,-67,25,82,29,-29,-54,-64
16,-54,-71,19,44,-62,29,89,35,-24,-49,-58
25,-54,-79,15,52,-66,39,110,49,-20,-50,-63
33,-44,-77,5,55,-60,43,125,68,0,-38,-55
39,-45,-83,3,61,-64,49,151,76,3,-38,-56
48,-36,-84,-5,66,-60,52,181,104,26,-23,-54
52,-34,-87,-9,70,-61,56,207,121,39,-20,-51
65,-25,-90,-20,78,-57,65,242,155,61,-10,-41
73,-16,-90,-29,82,-53,74,278,184,76,2,-32
81,-9,-90,-36,86,-49,75,324,219,97,19,-24
96,7,-89,-51,93,-41,75,368,255,127,38,-12
119,28,-91,-73,105,-31,75,417,286,159,56,-1
140,54,-85,-97,112,-15,75,438,319,185,81,12
157,81,-75,-119,116,3,74,428,333,207,110,33
160,96,-64,-128,112,16,61,418,319,208,127,45
147,107,-40,-127,93,33,46,388,304,199,138,58
131,114,-17,-122,74,48,36,338,280,193,131,61
107,107,0,-107,53,54,32,278,242,185,121,51
96,101,5,-99,45,53,29,223,206,170,115,44
86,93,7,-89,39,50,26,170,169,143,97,36
62,73,11,-68,25,42,21,119,133,105,68,29
42,48,6,-46,18,27,21,82,95,60,37,15
18,23,5,-21,6,13,25,47,56,21,13,-3
5,10,5,-8,0,8,25,15,23,-4,-2,-15
0,5,5,-3,-3,4,25,-9,5,-17,-14,-24
-9,-3,6,5,-7,1,25,-21,-9,-24,-23,-25
-14,-11,3,12,-8,-3,25,-24,-16,-31,-28,-25
-18,-18,0,18,-9,-8,21,-29,-15,-35,-34,-25
-18,-20,-3,19,-8,-11,20,-28,-15,-35,-35,-25
-15,-20,-5,18,-5,-12,20,-25,-15,-35,-35,-25
-12,-20,-9,16,-1,-14,15,-25,-15,-35,-40,-25
-10,-20,-10,15,0,-15,15,-21,-16,-35,-40,-25
-7,-20,-13,14,3,-16,14,-20,-21,-35,-41,-25
-5,-20,-15,13,5,-17,10,-21,-24,-42,-46,-25
-5,-20,-15,13,5,-17,10,-26,-27,-53,-44,-25
0,-20,-20,10,10,-20,10,-32,-32,-55,-48,-26
0,-20,-20,10,10,-20,10,-37,-35,-56,-50,-30
1,-20,-21,10,11,-21,10,-43,-39,-60,-50,-30
6,-20,-25,7,16,-22,7,-48,-46,-60,-53,-30
0,-25,-24,13,12,-24,2,-51,-52,-65,-56,-30
-8,-36,-28,22,10,-31,-1,-50,-55,-68,-59,-30
-10,-40,-30,25,10,-35,-5,-57,-58,-72,-62,-34
-10,-40,-30,25,10,-35,-8,-68,-60,-85,-65,-35
-13,-40,-27,27,7,-33,-12,-70,-63,-85,-65,-35
-16,-40,-24,28,4,-32,-15,-70,-66,-80,-67,-35
-14,-40,-25,28,6,-32,-15,-70,-65,-79,-70,-35
-19,-44,-25,32,3,-34,-15,-70,-65,-74,-70,-33
-20,-45,-25,33,3,-35,-15,-70,-64,-76,-66,-30
-21,-45,-24,34,1,-34,-15,-74,-66,-80,-65,-27
-30,-50,-20,40,-5,-35,-15,-75,-70,-80,-65,-25
-30,-50,-20,40,-5,-35,-15,-75,-70,-82,-60,-21
-31,-51,-20,41,-6,-35,-15,-75,-72,-86,-60,-19
-35,-55,-20,45,-7,-37,-15,-75,-75,-85,-59,-24
-37,-57,-20,47,-8,-38,-15,-73,-75,-82,-54,-25
-44,-61,-16,53,-14,-38,-14,-66,-71,-79,-56,-25
-52,-63,-11,58,-20,-37,-9,-62,-65,-77,-53,-25
-60,-67,-7,64,-26,-36,-3,-55,-60,-73,-50,-25
-56,-59,-3,58,-26,-31,1,-49,-54,-70,-51,-24
-47,-44,3,45,-24,-20,5,-45,-48,-69,-45,-16
-27,-22,5,24,-16,-9,10,-44,-44,-63,-34,-8
1,-5,-5,2,3,-5,4,-46,-46,-62,-25,-1
13,-1,-14,-6,13,-7,-20,-42,-44,-56,-16,9
43,21,-22,-31,32,-1,-43,-54,-46,-55,-21,6
48,15,-33,-31,40,-9,-42,-63,-50,-49,-24,0
27,-11,-38,-8,33,-24,-40,-83,-70,-54,-28,-5
14,-28,-42,7,28,-35,-39,-87,-81,-69,-45,-13
-18,-58,-40,38,11,-49,-37,-86,-86,-73,-55,-23
-40,-88,-48,64,5,-68,-34,-86,-106,-99,-77,-48
-53,-95,-42,75,-6,-68,-34,-80,-82,-69,-61,-45
-60,-107,-47,84,-6,-77,-32,-88,-111,-103,-80,-57
-58,-103,-45,81,-6,-74,-25,-67,-77,-62,-61,-52
-67,-108,-41,88,-13,-74,-33,-97,-114,-95,-74,-58
-51,-135,-83,93,16,-109,6,-10,-60,-84,-97,-88
-25,-272,-248,149,112,-260,173,278,99,-68,-203,-209
153,-167,-320,7,236,-243,376,980,682,339,5,-121
259,588,329,-423,-35,458,205,787,1215,1327,961,564
-101,845,946,-372,-524,895,-161,-876,-141,466,814,737
-350,574,924,-112,-637,748,-358,-1658,-1248,-681,67,392
-320,373,693,-27,-507,533,-499,-1520,-1137,-636,-96,181
-267,-10,257,138,-262,123,-417,-1075,-944,-678,-320,-76
-134,-118,16,126,-75,-51,-209,-428,-400,-327,-209,-84
-78,-89,-11,84,-33,-50,-69,-125,-133,-120,-91,-41
-36,-102,-66,69,15,-84,-4,17,-25,-65,-78,-51
-7,-78,-71,43,32,-74,8,47,25,-5,-43,-40
-5,-86,-80,46,38,-83,20,88,31,-12,-58,-50
10,-69,-79,30,45,-74,22,112,70,28,-33,-34
15,-70,-86,28,51,-78,32,119,62,15,-40,-38
34,-59,-93,13,64,-76,37,148,98,44,-24,-28
40,-54,-95,8,68,-74,43,167,105,49,-19,-26
48,-48,-96,1,72,-72,46,197,137,69,-7,-22
57,-40,-98,-8,78,-69,51,221,157,83,3,-15
65,-36,-101,-14,83,-69,54,252,175,100,15,-12
75,-24,-99,-25,87,-61,58,288,211,127,31,-7
81,-16,-96,-32,89,-56,67,333,245,152,43,-3
88,-4,-93,-42,91,-48,66,376,286,177,58,2
101,10,-91,-55,96,-40,59,421,318,204,68,16
109,22,-87,-66,98,-32,56,446,356,236,102,37
128,42,-86,-84,107,-22,51,435,374,262,128,56
145,65,-79,-105,112,-7,47,426,362,279,145,68
144,90,-54,-117,99,18,41,413,353,274,168,79
135,101,-34,-118,84,33,30,368,326,272,168,79
118,94,-23,-106,70,35,18,312,284,256,159,70
105,87,-18,-96,61,35,8,248,231,214,151,65
97,81,-15,-88,56,33,9,191,185,185,141,57
84,73,-12,-78,48,30,10,149,152,155,123,52
58,51,-7,-54,32,22,10,105,110,117,92,39
28,23,-5,-25,16,8,10,66,71,88,60,17
7,-2,-9,-3,8,-5,10,33,38,58,33,3
-2,-13,-12,8,5,-12,10,15,19,33,17,-8
-2,-17,-14,10,6,-15,10,1,7,24,11,-20
-5,-23,-18,14,6,-20,10,-9,-5,21,4,-29
-9,-29,-20,19,6,-24,10,-13,-5,18,-3,-30
-14,-34,-20,24,3,-26,10,-14,-5,13,-5,-30
-16,-36,-20,26,3,-27,10,-10,-10,10,-5,-30
-14,-34,-20,24,3,-27,5,-8,-10,13,-5,-30
-17,-37,-20,27,2,-28,5,-5,-11,18,-5,-31
-28,-48,-20,38,-4,-34,5,-2,-15,19,-5,-35
-31,-51,-20,41,-5,-36,5,0,-15,15,-5,-35
-25,-49,-24,38,0,-36,5,-4,-15,12,-8,-38
-23,-51,-27,37,2,-39,2,-10,-15,10,-11,-41
-19,-50,-31,34,6,-40,0,-15,-15,6,-10,-40
-17,-51,-34,35,9,-42,0,-21,-20,4,-14,-44
-22,-60,-38,42,8,-49,0,-26,-28,2,-15,-45
-25,-65,-40,45,8,-52,0,-31,-34,-3,-15,-45
-25,-65,-40,45,8,-52,0,-36,-41,-6,-20,-45
-21,-65,-44,43,12,-54,-5,-39,-45,-10,-25,-45
-20,-66,-45,44,13,-56,-5,-43,-47,-14,-30,-46
-19,-64,-45,42,13,-54,-6,-48,-51,-16,-34,-52
-23,-68,-45,46,11,-57,-11,-51,-53,-25,-39,-59
-38,-83,-45,61,4,-64,-9,-57,-56,-27,-38,-56
-41,-86,-45,64,3,-66,-13,-64,-59,-24,-33,-55
-40,-84,-45,62,3,-64,-15,-65,-62,-26,-30,-55
-40,-85,-46,63,3,-66,-15,-65,-65,-25,-26,-50
-43,-85,-42,64,0,-63,-15,-65,-65,-25,-22,-50
-44,-84,-39,64,-2,-61,-15,-66,-68,-24,-19,-49
-40,-81,-41,60,0,-61,-15,-64,-71,-18,-16,-43
-41,-77,-36,59,-2,-57,-10,-56,-70,-11,-13,-38
-41,-76,-35,59,-2,-56,-10,-48,-63,-4,-10,-32
-26,-61,-35,44,5,-48,-8,-42,-47,2,-8,-26
1,-29,-30,14,16,-29,-5,-42,-36,10,-4,-21
12,-10,-22,0,17,-16,-4,-47,-35,6,-5,-16
13,-4,-17,-5,15,-10,-8,-47,-35,1,-5,-15
28,21,-7,-24,17,7,-27,-53,-34,-2,-4,-14
26,14,-13,-19,19,0,-31,-58,-43,-10,-7,-12
24,-19,-43,-2,33,-31,-28,-74,-63,-7,-11,-8
21,-37,-58,9,40,-47,-25,-91,-84,-24,-30,-14
-11,-63,-52,37,21,-58,-22,-93,-77,-18,-32,-30
-33,-89,-57,61,12,-73,-21,-97,-98,-49,-53,-52
-43,-98,-54,71,6,-76,-16,-79,-73,-41,-53,-54
-52,-105,-54,79,1,-79,-18,-95,-84,-58,-68,-60
-49,-108,-59,79,5,-84,-11,-67,-66,-50,-75,-63
-50,-98,-48,74,0,-73,-21,-91,-58,-35,-67,-53
-47,-124,-77,86,15,-100,12,-55,-75,-72,-101,-80
-41,-225,-184,133,72,-204,126,146,53,-17,-161,-165
93,-255,-349,81,221,-302,363,773,455,148,-162,-213
281,368,87,-325,97,228,331,1073,1264,1203,703,354
52,890,838,-471,-393,864,-86,-397,418,1004,1044,797
-285,670,955,-192,-620,812,-334,-1635,-1141,-473,256,505
-312,452,764,-70,-538,608,-504,-1629,-1233,-654,-41,261
-271,103,375,84,-323,239,-499,-1282,-1061,-650,-226,9
-160,-112,48,136,-104,-31,-257,-602,-581,-412,-229,-94
-72,-77,-6,74,-33,-41,-88,-193,-177,-103,-99,-57
-32,-94,-62,63,15,-78,-2,-22,-81,-75,-100,-78
6,-71,-77,33,42,-74,22,45,5,15,-50,-54
9,-74,-83,33,46,-78,39,61,0,-9,-69,-63
19,-66,-85,24,52,-75,43,100,49,33,-44,-51
8,-79,-87,36,47,-83,46,102,45,-9,-45,-49
15,-76,-91,31,53,-83,52,131,75,-36,-36,-43
26,-65,-91,20,59,-78,54,148,91,-25,-28,-36
33,-63,-96,16,65,-80,56,179,110,-21,-28,-32
46,-52,-98,3,72,-74,56,206,132,-4,-17,-25
51,-51,-101,0,76,-76,65,238,150,4,-16,-20
62,-43,-104,-9,83,-73,72,269,184,26,-7,-6
62,-43,-105,-10,84,-73,83,303,215,44,-2,5
73,-26,-99,-23,86,-62,92,357,260,77,17,18
100,7,-94,-53,97,-43,90,409,302,114,43,29
115,27,-88,-71,101,-30,82,454,341,146,62,42
134,51,-83,-92,109,-16,76,460,357,180,83,58
145,71,-74,-108,109,-2,69,450,345,191,103,70
142,90,-52,-116,97,18,63,437,339,182,116,87
135,108,-28,-121,81,40,58,391,327,174,128,99
117,108,-9,-112,63,50,53,331,289,166,124,90
102,100,-2,-101,52,49,47,267,240,158,112,81
94,95,1,-95,46,48,44,200,190,131,104,72
76,83,7,-80,35,45,39,149,145,94,89,64
41,51,10,-46,16,30,34,108,105,56,64,48
16,22,5,-20,5,13,31,65,66,13,32,18
4,3,0,-4,2,2,28,27,24,-17,2,-1
-15,-19,-4,17,-5,-11,26,-1,-7,-37,-15,-18
-21,-30,-9,25,-6,-19,22,-8,-25,-54,-31,-29
-18,-31,-13,25,-2,-22,20,-12,-37,-58,-41,-30
-17,-35,-18,26,1,-26,18,-17,-36,-63,-44,-34
-17,-37,-20,27,2,-29,14,-21,-34,-64,-50,-36
-21,-41,-20,31,-1,-30,15,-25,-36,-60,-47,-40
-18,-38,-20,28,2,-29,15,-20,-35,-58,-45,-39
-13,-33,-20,23,4,-26,15,-21,-35,-55,-45,-35
-10,-30,-20,20,5,-25,15,-19,-38,-51,-45,-35
-2,-27,-25,15,12,-26,10,-15,-41,-50,-45,-35
2,-22,-25,11,14,-23,10,-15,-40,-53,-45,-35
7,-20,-26,7,16,-22,10,-17,-41,-56,-50,-35
3,-27,-30,12,17,-29,10,-24,-40,-59,-50,-35
-8,-38,-30,23,11,-33,10,-31,-41,-62,-54,-35
-8,-41,-32,25,12,-36,8,-38,-47,-65,-55,-35
-9,-44,-36,27,14,-40,3,-44,-55,-66,-57,-35
-13,-48,-34,31,11,-41,0,-50,-66,-72,-65,-35
-15,-51,-36,33,10,-43,-3,-55,-70,-79,-70,-36
-15,-55,-39,35,13,-46,-8,-58,-72,-80,-75,-43
-15,-55,-40,35,13,-47,-11,-63,-75,-80,-75,-49
-15,-55,-40,35,13,-47,-15,-65,-78,-84,-76,-51
-12,-52,-40,32,14,-46,-15,-68,-81,-85,-80,-54
-9,-50,-40,29,15,-45,-16,-71,-79,-85,-80,-56
-12,-50,-38,31,13,-43,-20,-74,-80,-85,-78,-60
-16,-50,-34,33,9,-42,-20,-75,-79,-85,-74,-59
-14,-50,-35,32,10,-42,-20,-78,-81,-85,-72,-55
-16,-51,-35,34,10,-42,-20,-81,-85,-85,-69,-55
-19,-54,-35,37,8,-44,-20,-78,-84,-85,-66,-55
-24,-59,-35,42,6,-47,-20,-74,-88,-82,-65,-55
-31,-60,-30,46,0,-45,-20,-71,-90,-74,-60,-55
-34,-60,-26,47,-4,-42,-20,-66,-91,-68,-52,-51
-40,-61,-21,51,-9,-41,-8,-65,-78,-60,-46,-44
-18,-36,-18,27,0,-27,9,-68,-59,-56,-39,-38
12,-2,-14,-4,13,-8,22,-71,-59,-60,-31,-31
22,7,-16,-14,19,-4,-3,-69,-61,-61,-33,-24
30,15,-15,-22,22,0,-37,-71,-58,-58,-34,-19
39,25,-15,-31,26,5,-32,-69,-62,-63,-38,-21
50,4,-46,-26,47,-21,-27,-74,-67,-63,-38,-20
44,-29,-73,-8,59,-50,-25,-97,-96,-85,-42,-20
25,-44,-69,9,47,-56,-17,-91,-95,-86,-47,-28
-7,-76,-69,41,32,-72,-17,-101,-111,-107,-67,-49
-17,-90,-73,53,28,-81,-22,-94,-113,-113,-81,-52
-24,-90,-66,57,21,-77,-37,-105,-107,-101,-83,-51
-35,-108,-74,72,20,-91,-22,-97,-120,-126,-101,-62
-39,-91,-51,65,6,-71,-23,-99,-86,-86,-79,-54
-51,-108,-57,79,3,-82,-16,-98,-131,-142,-115,-80
-52,-170,-118,111,33,-144,69,53,-16,-91,-139,-118
14,-288,-301,137,158,-294,286,513,208,-79,-241,-238
259,116,-143,-188,201,-13,413,1171,1040,754,347,117
201,793,592,-498,-196,693,66,250,963,1270,1084,737
-193,733,926,-270,-560,829,-279,-1401,-724,-93,518,630
-315,505,820,-95,-568,662,-468,-1727,-1263,-699,26,356
-289,217,506,36,-398,361,-565,-1471,-1102,-664,-150,115
-193,-75,118,134,-155,21,-355,-835,-745,-573,-262,-63
-71,-73,-2,72,-34,-37,-137,-284,-237,-201,-123,-43
-47,-92,-45,70,0,-68,-29,-93,-118,-146,-108,-51
-21,-83,-62,52,21,-72,0,5,-20,-68,-67,-54
-10,-79,-69,45,29,-74,5,20,-2,-63,-69,-42
-10,-83,-73,46,31,-78,20,68,40,-49,-66,-64
-10,-77,-68,44,29,-72,18,64,16,-29,-53,-48
