I,II,III,aVR,aVL,aVF,V1,V2,V3,V4,V5,V6
-169,-35,135,101,-152,50,30,11,-38,-94,-50,-65
-171,-27,144,99,-157,58,27,27,-21,-79,-44,-61
-168,-9,159,88,-163,75,21,56,13,-50,-18,-43
-163,17,180,73,-171,98,16,101,61,-15,16,-14
-163,48,211,58,-187,129,10,147,104,42,50,7
-128,86,214,21,-172,150,5,192,155,100,87,34
-90,121,211,-16,-151,166,-1,245,211,155,123,57
-51,146,197,-48,-124,171,-6,272,253,196,155,78
-17,166,183,-75,-101,174,-11,301,290,227,184,93
6,164,158,-85,-77,161,-17,328,306,255,188,97
34,161,126,-98,-46,143,-23,327,310,258,177,99
49,157,108,-103,-29,132,-22,319,310,241,170,87
38,121,82,-80,-23,101,-9,312,300,223,163,73
18,81,63,-50,-23,71,2,280,267,184,147,49
-1,48,49,-24,-25,48,13,226,221,132,113,14
-27,10,38,8,-33,24,22,172,160,87,75,-15
-53,-29,23,41,-38,-3,33,118,87,34,38,-42
-68,-61,6,64,-37,-27,42,81,38,-11,12,-62
-68,-76,-8,72,-30,-41,46,65,23,-22,3,-78
-72,-82,-11,77,-30,-46,45,58,26,-30,-1,-80
-73,-82,-9,78,-32,-45,46,55,25,-39,-5,-80
-53,-77,-24,66,-15,-50,49,51,25,-34,-10,-85
-47,-74,-27,61,-9,-50,50,48,25,-27,-15,-85
-57,-71,-14,64,-22,-42,50,44,22,-23,-12,-85
-59,-66,-6,63,-26,-36,50,40,19,-18,-9,-85
-67,-66,1,67,-34,-32,50,34,16,-15,-10,-85
-77,-70,7,73,-42,-31,48,31,13,-12,-10,-85
-84,-70,14,77,-49,-28,44,26,10,-7,-10,-85
-91,-70,21,80,-56,-24,42,22,9,-5,-11,-85
-95,-70,25,82,-60,-22,38,16,0,-12,-15,-85
-95,-70,25,82,-60,-22,36,1,-9,-23,-17,-85
-94,-69,25,81,-60,-22,34,-11,-18,-32,-20,-85
-97,-72,25,84,-61,-23,31,-28,-27,-36,-23,-92
-89,-64,25,76,-57,-19,46,-40,-41,-35,-26,-102
-98,-72,25,85,-61,-23,50,-41,-52,-38,-28,-107
-108,-87,21,98,-65,-33,41,-46,-56,-41,-33,-113
-95,-77,17,86,-56,-30,40,-42,-59,-39,-36,-115
-89,-75,14,82,-51,-31,33,-40,-57,-47,-41,-115
-81,-70,11,76,-46,-30,30,-41,-54,-52,-45,-119
-71,-64,7,67,-38,-29,30,-39,-56,-59,-42,-120
-78,-73,5,75,-41,-34,30,-41,-50,-63,-36,-121
-100,-80,20,90,-60,-29,30,-38,-50,-53,-33,-109
-97,-62,36,79,-66,-13,34,-26,-47,-48,-28,-96
-45,-6,38,25,-42,16,70,9,-1,-1,5,-78
8,22,15,-15,-4,18,94,60,35,39,35,-42
30,17,-12,-23,21,3,78,113,80,50,49,-32
40,12,-28,-26,34,-8,38,107,102,45,49,-36
33,-3,-37,-15,35,-20,-11,18,19,-5,16,-37
-10,-45,-36,28,13,-40,-16,-34,-34,-44,-15,-41
-57,-92,-35,75,-11,-63,-15,-64,-74,-91,-55,-45
-62,-95,-32,79,-15,-63,-13,-88,-104,-123,-88,-51
-47,-77,-31,62,-8,-54,-9,-87,-89,-110,-82,-42
-52,-80,-28,66,-12,-54,-12,-99,-102,-121,-92,-35
-81,-104,-23,93,-29,-63,-4,-74,-95,-109,-87,-31
-113,-95,18,104,-66,-38,-7,-90,-128,-123,-84,-19
-104,-83,22,93,-63,-31,1,-58,-85,-84,-64,-21
-155,14,169,70,-163,92,51,-23,-40,2,-10,9
-287,134,421,76,-354,277,232,207,159,158,39,22
-126,296,422,-86,-274,359,275,604,579,627,424,197
648,425,-224,-536,435,100,-176,204,532,978,1008,566
1735,-22,-1758,-856,1746,-889,-710,-352,302,769,1119,613
2064,-482,-2546,-791,2305,-1514,-822,-548,-50,24,642,379
1165,-373,-1538,-395,1352,-955,-516,-721,-416,-423,168,202
189,-208,-396,10,293,-302,-144,-406,-283,-251,-23,55
-94,-159,-65,127,-14,-112,-17,-134,-172,-185,-130,-37
-144,-125,19,135,-82,-53,-1,-139,-181,-183,-157,-58
-199,-120,79,159,-139,-20,19,-100,-181,-168,-174,-61
-213,-114,98,163,-155,-8,16,-110,-193,-166,-187,-60
-229,-108,120,168,-174,6,31,-92,-176,-141,-190,-60
-230,-104,126,166,-177,11,36,-88,-178,-140,-193,-60
-220,-96,124,157,-171,14,32,-81,-169,-128,-180,-60
-226,-89,137,157,-181,24,30,-70,-152,-128,-178,-55
-230,-83,147,156,-188,32,26,-69,-122,-121,-168,-47
-216,-72,144,144,-180,36,25,-55,-106,-118,-160,-41
-198,-53,146,125,-172,46,21,-40,-94,-112,-150,-35
-176,-32,144,103,-160,56,14,-15,-78,-93,-137,-26
-167,-13,154,90,-160,70,7,0,-52,-66,-119,-9
-155,9,164,73,-160,86,1,28,-9,-33,-97,21
-141,44,185,48,-163,114,-6,54,27,1,-80,45
-135,78,214,28,-175,146,-12,83,64,36,-62,59
-108,105,213,1,-161,159,-18,129,110,74,-27,86
-71,137,208,-34,-139,172,-27,158,157,127,17,114
-32,172,205,-70,-119,188,-33,200,211,183,50,140
-13,186,198,-87,-106,191,-38,239,249,219,74,162
7,203,196,-105,-95,199,-39,251,263,243,89,177
29,205,176,-117,-73,190,-34,258,279,251,84,174
40,186,145,-113,-53,165,-29,245,287,249,73,161
55,169,114,-112,-30,141,-25,233,280,251,66,154
28,122,93,-75,-33,107,-20,223,251,214,56,120
8,76,68,-43,-30,72,-16,191,207,158,36,76
10,48,38,-29,-15,43,-10,150,153,113,4,48
-29,11,40,9,-35,25,0,109,97,62,-29,23
-60,-31,29,45,-44,-1,10,83,59,19,-51,3
-64,-48,16,55,-40,-16,20,67,38,-15,-67,0
-67,-44,23,55,-44,-10,30,53,31,-45,-83,0
-67,-45,22,56,-44,-11,39,47,28,-49,-85,-3
-62,-45,18,53,-40,-13,40,43,25,-36,-85,-6
-61,-45,16,53,-38,-15,40,38,22,-33,-85,-4
-54,-44,10,49,-32,-17,40,34,20,-35,-85,0
-51,-39,12,45,-32,-13,40,29,18,-35,-84,0
-68,-33,34,50,-51,0,39,25,11,-35,-81,1
-72,-30,42,51,-57,6,35,18,4,-35,-78,5
-63,-25,38,44,-50,6,36,14,-2,-36,-75,5
-67,-21,47,44,-57,13,34,7,-10,-40,-73,3
-73,-23,51,48,-62,13,43,2,-15,-40,-69,-4
-77,-27,50,52,-63,11,51,-3,-21,-40,-72,-9
-92,-42,50,67,-70,4,49,-12,-27,-40,-77,-14
-95,-45,50,70,-72,2,50,-18,-35,-39,-80,-20
-86,-36,50,61,-68,7,50,-28,-40,-46,-95,-25
-83,-35,48,59,-65,6,50,-33,-48,-64,-105,-29
-72,-27,45,49,-58,8,46,-40,-50,-71,-109,-32
-71,-27,44,49,-57,9,45,-51,-51,-77,-112,-35
-86,-47,39,66,-62,-4,44,-48,-72,-90,-115,-37
-92,-51,40,72,-66,-6,40,-45,-76,-90,-118,-41
-105,-50,55,77,-80,3,40,-43,-76,-90,-121,-38
-111,-49,62,80,-86,6,41,-39,-79,-90,-118,-33
-104,-43,60,74,-82,8,49,-38,-81,-91,-113,-28
-85,-25,60,55,-73,18,51,-27,-75,-86,-110,-26
-69,12,81,28,-75,46,80,8,-25,-50,-82,-13
-60,40,100,10,-80,70,123,71,33,1,-39,7
-23,45,69,-11,-46,57,123,117,77,35,-7,18
6,30,23,-18,-8,26,80,101,79,32,0,27
-2,17,20,-8,-11,18,26,30,12,-2,-30,14
-23,-2,21,13,-22,9,15,-33,-49,-47,-58,-16
-68,-54,14,61,-41,-20,23,-66,-81,-93,-80,-38
-85,-67,18,75,-51,-24,26,-80,-102,-123,-108,-51
-53,-43,10,47,-31,-16,29,-70,-97,-119,-100,-45
-83,-39,44,61,-64,3,33,-81,-104,-119,-96,-38
-111,-65,46,88,-78,-9,36,-63,-98,-114,-94,-38
-105,-48,56,77,-80,4,40,-79,-127,-112,-85,-23
-109,-31,78,70,-93,23,44,-58,-101,-78,-87,-31
-153,30,183,61,-168,106,68,-32,-72,-24,-54,-6
-287,145,432,71,-360,288,246,126,71,97,-10,-5
-180,335,516,-78,-348,425,328,530,491,551,348,155
487,561,75,-524,206,318,-78,212,489,990,998,565
1525,139,-1386,-832,1456,-624,-619,-353,277,898,1237,671
2031,-445,-2476,-793,2254,-1460,-773,-496,22,193,831,452
1300,-368,-1668,-466,1484,-1018,-524,-692,-379,-363,308,258
309,-161,-470,-74,390,-315,-161,-458,-312,-270,40,89
-49,-111,-62,80,7,-87,1,-148,-170,-203,-119,-51
-127,-95,32,111,-79,-31,20,-159,-193,-217,-173,-92
-166,-85,80,125,-123,-2,46,-126,-186,-193,-178,-104
-183,-77,106,129,-144,14,44,-126,-202,-201,-196,-117
-194,-68,126,131,-160,28,45,-113,-190,-183,-191,-113
-190,-60,130,125,-160,34,45,-104,-192,-186,-188,-116
-193,-55,138,123,-165,41,44,-98,-190,-176,-173,-112
-201,-48,153,124,-177,52,45,-82,-172,-174,-166,-110
-199,-43,156,121,-178,56,40,-75,-148,-169,-155,-107
-191,-36,155,113,-173,59,37,-60,-127,-164,-147,-103
-187,-33,154,110,-171,60,33,-55,-119,-157,-139,-101
-175,-17,157,96,-166,70,30,-38,-102,-143,-125,-99
-160,6,166,77,-163,86,26,-15,-66,-129,-112,-96
-157,30,187,63,-172,108,22,19,-25,-107,-97,-83
-155,52,207,51,-181,129,14,45,12,-69,-78,-56
-129,75,204,27,-167,139,8,70,47,-17,-39,-25
-92,114,206,-12,-149,160,0,115,94,42,4,3
-60,144,204,-43,-132,174,-7,151,145,101,29,21
-34,177,211,-72,-123,193,-14,192,191,160,64,47
-11,203,215,-96,-113,209,-25,217,226,210,100,70
23,220,197,-122,-87,208,-41,228,250,236,123,82
45,224,179,-135,-67,201,-48,247,271,256,141,90
55,213,158,-134,-52,185,-41,239,279,262,134,80
69,196,127,-132,-29,161,-35,232,278,256,124,70
57,155,98,-107,-20,126,-26,227,251,229,117,54
32,109,77,-70,-23,93,-11,197,209,172,91,26
7,66,58,-37,-26,62,3,153,162,120,54,-6
-11,30,41,-9,-27,35,17,102,105,79,14,-26
-19,9,28,5,-24,18,20,72,67,34,-12,-37
-26,-6,21,16,-23,7,22,57,32,2,-26,-58
-29,-15,14,22,-21,0,32,45,4,-18,-32,-68
-23,-15,8,19,-15,-3,33,45,-1,-27,-30,-62
-15,-15,0,15,-7,-7,29,45,1,-21,-30,-61
-11,-15,-5,13,-2,-10,30,45,0,-16,-27,-57
-16,-15,2,15,-8,-6,30,45,0,-13,-24,-55
-32,-23,9,27,-21,-6,30,45,0,-7,-26,-53
-46,-30,16,38,-31,-7,29,38,-12,-6,-31,-46
-51,-30,21,40,-36,-5,25,30,-24,-15,-31,-60
-64,-30,34,47,-49,2,25,22,-18,-23,-26,-66
-73,-30,43,51,-58,6,25,14,-16,-29,-24,-59
-70,-30,40,50,-55,5,25,7,-38,-35,-19,-58
-68,-30,38,49,-53,4,25,-1,-47,-35,-15,-52
-70,-35,35,52,-52,0,25,-9,-44,-40,-17,-50
-71,-40,32,55,-51,-4,25,-23,-56,-55,-25,-57
-73,-43,30,58,-51,-7,25,-34,-64,-67,-36,-67
-75,-48,27,61,-50,-10,25,-46,-73,-74,-49,-75
-74,-50,24,62,-49,-13,25,-57,-80,-85,-61,-79
-71,-50,21,61,-46,-15,25,-64,-83,-90,-66,-82
-67,-49,18,58,-43,-15,20,-68,-88,-97,-69,-85
-79,-63,15,70,-47,-24,16,-64,-97,-100,-74,-87
-85,-70,15,77,-50,-27,14,-65,-104,-100,-75,-91
-83,-62,22,72,-52,-20,9,-61,-100,-104,-75,-88
-84,-58,26,71,-55,-16,6,-59,-101,-106,-75,-81
-82,-50,32,66,-57,-9,4,-60,-99,-105,-76,-75
-83,-47,36,65,-59,-6,7,-48,-101,-105,-73,-67
-66,-27,39,47,-53,6,3,-43,-91,-103,-60,-62
-36,21,57,8,-47,39,36,-8,-46,-56,-29,-48
-19,38,56,-10,-38,47,85,50,2,-19,8,-36
-8,28,36,-10,-22,31,75,107,56,16,35,-18
27,16,-11,-21,18,3,35,128,65,41,29,2
27,-3,-30,-11,28,-16,-16,26,-3,-14,3,-5
-11,-27,-16,19,3,-22,-32,-43,-57,-57,-17,-28
-47,-56,-9,52,-19,-33,-21,-67,-97,-92,-54,-57
-82,-76,6,79,-43,-35,-17,-104,-120,-123,-80,-77
-82,-78,4,79,-42,-37,-8,-93,-113,-108,-71,-75
-105,-69,36,87,-70,-16,-3,-102,-129,-116,-77,-73
-123,-85,39,104,-81,-23,3,-83,-116,-105,-69,-83
-112,-66,46,89,-79,-10,9,-98,-132,-107,-69,-85
-100,-52,48,76,-74,-2,15,-71,-98,-100,-71,-86
-168,44,213,62,-191,128,58,-55,-67,-29,-24,-40
-324,168,492,78,-408,329,241,157,119,125,39,-12
-170,395,565,-113,-368,480,269,474,492,602,460,207
569,611,41,-590,263,326,-221,-32,372,948,1002,573
1628,0,-1628,-814,1628,-814,-726,-553,117,566,931,468
2040,-585,-2625,-727,2333,-1605,-815,-657,-169,-201,423,159
1274,-384,-1659,-445,1467,-1020,-555,-741,-429,-477,91,60
309,-180,-488,-64,399,-334,-162,-384,-243,-256,-15,-6
-70,-126,-56,98,-6,-91,-6,-141,-161,-214,-123,-92
-135,-101,33,118,-84,-34,12,-152,-185,-213,-150,-115
-178,-96,81,137,-129,-7,38,-115,-167,-188,-154,-112
-207,-85,122,145,-164,19,36,-122,-182,-194,-167,-115
-200,-73,127,136,-163,27,47,-101,-170,-176,-157,-106
-189,-57,132,123,-160,37,50,-98,-176,-178,-160,-104
-181,-49,131,115,-156,41,53,-87,-164,-164,-150,-98
-172,-43,129,108,-150,42,50,-78,-150,-159,-149,-94
-171,-39,132,105,-151,46,50,-68,-124,-149,-143,-90
-160,-32,127,96,-143,47,51,-55,-102,-136,-129,-83
-171,-28,143,99,-157,58,49,-36,-76,-126,-112,-79
-178,-21,156,99,-167,67,50,3,-44,-114,-98,-71
-162,-9,154,85,-158,72,44,14,-23,-100,-85,-59
-164,14,178,74,-171,96,37,30,14,-75,-57,-43
-153,45,198,54,-175,121,31,65,52,-32,-33,-24
-126,70,197,28,-162,133,24,106,97,7,-11,0
-98,101,199,-2,-149,150,18,150,149,67,30,33
-70,137,207,-34,-139,172,11,193,199,131,64,61
-29,171,200,-71,-115,185,-3,242,256,183,104,88
8,192,184,-100,-88,187,-17,269,304,230,146,110
24,203,179,-114,-78,191,-27,284,328,258,159,117
40,209,169,-125,-65,189,-26,302,341,278,156,123
47,192,145,-120,-49,169,-20,303,350,265,146,115
55,173,118,-114,-31,145,-17,292,346,252,138,106
57,150,93,-104,-18,121,-11,277,313,225,127,85
33,105,72,-69,-19,88,3,230,252,169,89,47
-2,53,55,-26,-29,54,16,166,192,123,44,22
-30,9,38,10,-34,23,32,110,124,75,14,4
-46,-17,29,32,-37,6,40,66,66,31,-15,-20
-59,-34,25,46,-42,-4,40,47,41,-4,-28,-40
-65,-45,20,55,-42,-12,39,44,32,-24,-32,-40
-62,-45,17,53,-39,-14,44,41,27,-33,-51,-40
-55,-45,10,50,-32,-17,50,38,18,-29,-53,-38
-58,-45,12,51,-34,-16,50,36,11,-17,-45,-34
-66,-45,21,55,-43,-12,50,33,4,-8,-41,-36
-72,-45,27,59,-49,-9,50,30,-1,3,-34,-31
-79,-45,34,62,-56,-5,50,30,1,12,-30,-30
-79,-45,34,62,-56,-6,48,28,-3,19,-26,-30
-84,-45,39,64,-61,-3,44,24,-5,15,-24,-30
-96,-45,51,70,-73,3,45,25,-5,7,-20,-30
-104,-45,58,74,-80,6,45,21,-8,1,-18,-31
-107,-45,62,76,-84,8,45,17,-14,-6,-14,-35
-105,-45,60,75,-82,7,45,13,-19,-12,-19,-35
-105,-45,60,75,-82,7,45,-1,-23,-18,-36,-34
-105,-45,60,75,-82,7,45,-18,-28,-22,-48,-42
-105,-45,60,75,-82,7,45,-30,-31,-27,-54,-52
-105,-45,60,75,-82,7,45,-36,-41,-29,-61,-55
-105,-50,55,77,-80,2,45,-41,-58,-26,-68,-59
-105,-50,55,77,-80,2,47,-46,-67,-25,-70,-60
-105,-51,54,78,-79,1,57,-43,-70,-25,-73,-59
-104,-55,49,80,-76,-3,55,-51,-70,-29,-76,-61
-106,-55,51,81,-78,-2,55,-59,-70,-31,-79,-59
-104,-53,51,78,-77,-1,55,-57,-71,-30,-81,-61
-105,-45,60,74,-82,7,55,-49,-69,-29,-74,-58
-97,-41,56,69,-77,8,56,-49,-66,-31,-77,-51
-75,-10,65,42,-69,27,57,-30,-49,-15,-65,-34
-66,34,100,16,-83,66,107,40,5,25,-27,-7
-39,45,83,-4,-61,64,133,93,60,64,7,1
8,43,35,-26,-14,38,96,139,83,84,26,22
17,21,3,-19,7,12,51,105,56,58,18,29
-17,-1,16,8,-16,7,13,0,-11,19,-2,-3
-73,-34,39,53,-55,2,11,-36,-54,-11,-34,-30
-124,-76,48,99,-86,-14,19,-76,-101,-57,-78,-43
-129,-87,42,107,-85,-22,24,-81,-115,-81,-89,-48
-115,-66,50,90,-82,-8,28,-78,-107,-79,-74,-40
-122,-71,52,97,-87,-9,33,-84,-103,-82,-80,-42
-117,-72,44,95,-81,-14,36,-74,-90,-77,-64,-36
-111,-47,64,79,-88,9,41,-90,-96,-80,-72,-34
-123,-28,94,75,-108,33,53,-42,-60,-14,-37,-26
-240,109,348,65,-294,228,157,2,-22,76,27,30
-326,244,570,41,-448,407,345,356,291,333,158,83
53,533,479,-293,-213,506,164,401,511,815,684,400
1016,441,-576,-728,796,-68,-418,-299,254,825,985,576
1987,-360,-2347,-813,2167,-1353,-787,-602,-45,133,575,238
1922,-580,-2501,-671,2212,-1540,-726,-734,-403,-509,75,78
890,-273,-1163,-308,1027,-718,-372,-656,-426,-443,-62,67
99,-140,-239,21,169,-189,-53,-220,-188,-175,-77,-22
-98,-92,7,95,-52,-42,14,-150,-170,-162,-145,-60
-149,-80,69,114,-109,-5,36,-146,-171,-151,-141,-73
-186,-67,119,126,-152,25,48,-119,-172,-148,-148,-68
-190,-62,128,126,-159,33,42,-123,-167,-142,-151,-71
-187,-51,136,119,-161,42,56,-91,-159,-135,-141,-70
-182,-44,138,113,-160,47,54,-86,-157,-132,-139,-70
-196,-37,158,117,-177,60,56,-66,-149,-119,-129,-67
-191,-31,160,111,-175,64,53,-56,-141,-114,-128,-58
-187,-23,164,105,-176,71,50,-36,-124,-103,-117,-53
-202,-15,187,108,-194,86,48,-28,-109,-97,-104,-45
-196,-7,189,101,-192,91,45,-13,-70,-88,-89,-39
-191,3,193,94,-192,98,42,12,-42,-79,-77,-26
-187,12,198,87,-193,104,40,37,-13,-64,-58,-11
-160,40,199,60,-180,119,36,62,23,-35,-33,1
-140,61,201,39,-170,131,26,86,56,5,-13,27
-122,89,210,16,-166,150,19,133,112,54,13,55
-83,124,208,-21,-146,166,11,175,161,108,49,80
-45,157,202,-56,-124,179,5,217,215,159,85,104
-6,190,197,-92,-102,193,-12,260,266,208,119,132
15,204,189,-110,-87,197,-32,288,297,236,153,151
17,203,186,-110,-85,194,-46,298,321,250,163,147
31,188,157,-110,-63,172,-53,292,320,259,152,141
65,179,114,-122,-25,146,-43,292,307,244,143,135
84,161,76,-123,4,118,-30,280,293,216,133,131
64,116,53,-90,5,84,-19,241,258,173,109,106
29,69,40,-49,-6,54,-7,188,196,122,73,69
7,35,27,-21,-11,31,6,128,129,77,36,47
0,22,22,-11,-12,22,10,84,77,34,-2,28
-9,9,17,0,-13,13,10,49,39,-3,-25,12
-27,-14,14,20,-20,0,15,15,14,-36,-42,-2
-35,-26,9,30,-21,-9,15,4,9,-52,-55,-6
-30,-25,5,27,-17,-10,18,6,7,-53,-55,-4
-31,-22,10,26,-20,-6,21,5,4,-48,-55,-6
-33,-19,13,25,-23,-2,20,5,1,-42,-55,-5
-33,-16,17,24,-25,1,20,5,-1,-39,-55,-5
-35,-15,21,25,-28,3,20,3,-4,-33,-55,-16
-29,-10,19,19,-23,5,18,-1,-5,-31,-55,-34
-24,-2,21,13,-22,9,15,-3,-6,-34,-55,-47
-19,4,23,7,-22,14,12,-6,-11,-36,-55,-52
-19,10,30,4,-25,20,10,-9,-9,-34,-55,-56
-9,18,28,-4,-19,22,7,-10,-14,-37,-56,-59
1,18,17,-10,-8,17,4,-27,-31,-52,-59,-62
-28,9,37,9,-33,22,9,-36,-37,-58,-63,-65
-46,1,47,22,-46,24,10,-40,-39,-61,-69,-67
-54,-17,37,36,-45,10,10,-60,-48,-67,-77,-78
-66,-31,35,48,-50,2,9,-78,-55,-75,-91,-85
-60,-33,27,46,-43,-3,14,-81,-72,-84,-102,-85
-60,-38,22,49,-41,-8,26,-80,-86,-87,-102,-85
-60,-40,20,50,-40,-10,21,-85,-87,-92,-100,-85
-59,-40,19,49,-39,-10,16,-85,-90,-95,-100,-85
-61,-40,21,51,-41,-10,13,-84,-94,-98,-100,-83
-57,-40,17,48,-37,-11,7,-80,-95,-100,-100,-80
-59,-35,24,47,-41,-6,6,-77,-92,-104,-101,-80
-78,-30,48,53,-63,9,14,-72,-81,-106,-94,-80
-80,-27,53,53,-66,13,23,-72,-77,-98,-88,-79
-76,-18,58,47,-67,20,24,-51,-65,-74,-78,-81
-61,17,77,22,-69,47,59,0,-16,-34,-40,-57
-17,53,70,-18,-43,61,94,57,32,13,-14,-29
29,69,40,-50,-6,54,85,111,73,42,10,-20
49,54,5,-52,22,29,35,95,56,29,11,-17
4,9,5,-7,0,7,-22,-6,-6,2,-33,-30
-49,-31,19,40,-34,-6,-30,-73,-43,-36,-65,-55
-72,-45,27,58,-49,-9,-22,-102,-101,-82,-98,-80
-78,-52,26,65,-52,-13,-16,-109,-124,-98,-116,-93
-66,-45,21,55,-43,-12,-9,-100,-115,-87,-100,-88
-79,-38,41,58,-60,2,-3,-112,-127,-89,-104,-90
-79,-41,37,60,-58,-2,4,-95,-111,-74,-94,-91
-91,-23,68,57,-80,22,15,-119,-128,-79,-92,-75
-107,-31,76,69,-92,22,28,-83,-90,-57,-84,-63
-176,89,265,43,-221,177,92,-52,-50,21,-26,-12
-320,213,533,53,-427,373,278,227,186,216,72,25
-73,450,523,-189,-298,486,239,478,520,680,518,269
792,528,-264,-660,527,132,-293,-136,332,820,906,525
1847,-208,-2055,-819,1951,-1131,-767,-623,-17,214,586,243
2084,-632,-2716,-726,2401,-1674,-790,-749,-380,-517,41,-65
1170,-349,-1519,-410,1344,-934,-484,-753,-503,-571,-172,-61
225,-163,-388,-30,307,-276,-110,-328,-235,-249,-150,-58
-100,-105,-6,103,-47,-55,14,-148,-166,-186,-151,-77
-157,-85,72,121,-114,-6,23,-143,-184,-180,-150,-75
-198,-72,126,135,-161,27,53,-110,-181,-164,-143,-75
-220,-70,150,144,-185,40,55,-123,-185,-161,-146,-75
-219,-66,153,142,-185,43,61,-101,-174,-148,-134,-75
-221,-59,162,140,-192,51,55,-105,-176,-149,-129,-73
-223,-57,166,140,-194,54,55,-80,-169,-138,-119,-66
-219,-48,171,133,-195,61,55,-58,-160,-131,-113,-61
-213,-43,170,128,-191,63,55,-48,-126,-114,-104,-56
-205,-36,170,120,-187,67,55,-36,-103,-102,-91,-50
-203,-29,175,116,-189,73,58,-17,-77,-90,-80,-46
-197,-15,182,105,-189,84,61,17,-42,-77,-67,-37
-176,14,190,81,-183,102,54,50,-16,-64,-52,-28
-161,27,188,67,-175,107,51,67,15,-41,-32,-16
-153,51,204,51,-179,127,46,98,54,-8,4,2
-140,85,225,27,-183,155,42,144,97,42,48,31
-121,108,229,6,-175,168,37,181,144,105,81,61
-88,140,227,-26,-157,183,25,215,194,163,114,81
-51,164,216,-57,-134,190,14,258,244,216,153,108
-27,182,208,-78,-118,195,2,302,286,252,184,130
-1,197,197,-98,-99,197,-6,320,307,276,199,141
33,210,176,-122,-72,193,-9,329,324,281,197,144
49,193,144,-121,-48,169,-14,326,315,264,186,132
54,162,108,-108,-27,135,-13,315,305,258,180,119
32,127,95,-79,-32,111,-2,288,292,229,160,94
1,80,79,-40,-39,79,7,240,230,176,122,65
-12,40,52,-14,-33,46,18,184,169,135,97,35
-34,6,40,14,-36,22,25,127,117,95,78,-6
-58,-27,31,42,-44,2,28,89,69,55,57,-37
-67,-44,23,55,-45,-10,30,64,32,18,27,-58
-56,-45,12,50,-33,-16,30,59,17,-6,6,-68
-70,-53,17,62,-43,-18,30,61,17,-13,2,-62
-90,-55,34,72,-62,-10,31,56,12,-23,-4,-57
-83,-47,35,64,-59,-6,31,55,9,-29,-7,-54
-80,-45,34,62,-57,-5,30,55,3,-20,-13,-49
-76,-39,36,57,-56,-1,30,49,17,-11,-14,-45
-68,-36,33,51,-50,-1,25,42,36,-10,-8,-40
-85,-38,47,61,-65,4,25,36,32,-9,-5,-37
-103,-41,61,72,-82,10,24,29,22,-6,0,-34
-100,-44,56,72,-78,6,20,23,15,-5,5,-29
-99,-47,53,73,-76,3,20,17,7,-6,0,-26
-101,-50,50,76,-76,0,20,8,0,-12,-8,-25
-93,-49,44,70,-68,-2,20,-3,-10,-18,-14,-25
-92,-45,47,68,-69,1,20,-13,-29,-24,-22,-25
-102,-43,59,72,-80,8,17,-26,-34,-29,-29,-25
-100,-40,60,70,-80,10,14,-32,-46,-31,-36,-25
-92,-37,55,64,-73,9,16,-28,-62,-34,-41,-25
-88,-34,54,61,-70,10,14,-39,-60,-37,-46,-36
-89,-39,50,64,-69,5,17,-52,-65,-41,-48,-41
-93,-46,47,69,-70,0,12,-48,-65,-54,-62,-40
-104,-51,53,78,-79,1,11,-56,-69,-63,-71,-40
-110,-49,61,80,-86,6,25,-64,-75,-60,-73,-39
-121,-60,61,90,-90,1,31,-55,-86,-56,-69,-39
-126,-66,60,96,-92,-2,22,-50,-85,-52,-57,-33
-110,-37,73,73,-91,17,20,-34,-49,-50,-44,-26
-78,7,85,36,-82,45,57,19,-5,-9,-9,-19
-32,43,75,-6,-53,58,85,70,36,43,9,-10
14,51,38,-33,-12,44,79,117,73,58,24,-2
33,31,-2,-32,18,14,38,115,78,51,23,8
-4,3,7,1,-6,5,-1,6,-4,20,-8,1
-48,-35,13,41,-31,-11,0,-63,-77,-27,-40,-24
-89,-74,15,81,-52,-30,-11,-91,-108,-87,-87,-47
-104,-87,17,95,-60,-35,-16,-104,-130,-109,-105,-58
-85,-73,12,79,-48,-31,-17,-95,-120,-97,-89,-53
-108,-66,42,87,-75,-12,-4,-106,-127,-104,-92,-56
-127,-77,50,101,-89,-13,14,-91,-110,-95,-80,-55
-137,-69,69,103,-103,0,12,-113,-127,-106,-79,-54
-116,-51,65,83,-90,7,22,-62,-94,-72,-68,-42
-188,54,242,66,-215,148,81,-24,-52,12,-12,16
-334,184,518,75,-427,351,283,246,181,213,90,46
-78,406,483,-164,-281,444,270,556,539,668,523,270
811,463,-348,-637,580,57,-263,-5,400,849,941,546
1899,-167,-2066,-865,1982,-1116,-765,-540,88,335,714,353
2098,-599,-2697,-749,2398,-1647,-802,-703,-313,-442,145,49
1127,-365,-1492,-381,1310,-928,-467,-766,-526,-579,-130,9
182,-172,-354,-5,268,-263,-98,-350,-275,-252,-118,-29
-108,-137,-29,123,-40,-83,16,-130,-183,-186,-153,-87
-169,-123,46,145,-108,-38,17,-150,-198,-186,-168,-92
-213,-113,101,163,-157,-6,41,-114,-190,-172,-160,-106
-228,-98,131,163,-179,16,49,-123,-200,-173,-161,-100
-228,-89,139,158,-183,24,51,-99,-190,-158,-150,-92
-222,-82,140,152,-181,28,54,-94,-200,-157,-148,-87
-223,-76,147,149,-185,36,56,-79,-186,-144,-140,-78
-218,-70,148,144,-182,39,51,-67,-152,-139,-136,-75
-216,-61,154,138,-185,46,50,-57,-128,-130,-127,-67
-221,-54,167,137,-194,56,50,-41,-120,-121,-121,-61
-213,-41,172,127,-192,65,49,-30,-103,-108,-115,-54
-205,-32,173,118,-189,71,51,-13,-76,-97,-97,-47
-189,-12,177,100,-183,82,49,9,-42,-77,-79,-42
-160,24,184,68,-172,104,43,34,-10,-54,-64,-32
-153,43,196,55,-175,119,35,70,32,-26,-32,-13
-133,70,203,31,-169,137,29,118,84,20,6,8
-115,105,220,4,-167,162,23,160,127,82,34,33
-83,145,228,-32,-155,186,15,214,189,153,73,59
-35,179,214,-72,-125,196,6,250,238,197,112,73
-9,194,203,-93,-106,198,-3,269,265,236,133,91
11,203,191,-107,-90,197,-10,294,299,260,157,100
9,188,179,-99,-85,184,-29,302,312,250,160,90
23,174,151,-99,-64,162,-33,296,303,240,146,82
38,154,116,-96,-39,134,-15,290,303,229,134,73
25,125,100,-76,-37,112,-5,263,281,196,113,63
12,84,72,-49,-30,78,5,215,227,155,88,35
-5,39,43,-17,-25,41,15,162,167,114,58,6
-28,4,32,12,-30,18,28,120,111,65,27,-8
-55,-31,24,43,-40,-3,36,79,71,20,-1,-27
-60,-45,15,52,-37,-15,34,48,29,-11,-24,-36
-45,-39,6,42,-26,-16,35,41,1,-28,-30,-34
-40,-31,9,35,-24,-10,35,37,-1,-40,-32,-35
-56,-41,16,48,-36,-12,35,30,-4,-41,-36,-35
-67,-48,19,58,-43,-14,35,25,-7,-32,-31,-36
-62,-38,24,50,-43,-7,35,20,-9,-26,-30,-34
-62,-33,29,47,-45,-2,35,15,-12,-20,-30,-30
-58,-26,32,42,-45,3,35,10,-15,-20,-30,-30
-65,-25,40,44,-52,7,35,5,-16,-20,-30,-30
-64,-25,38,45,-51,6,35,2,-14,-20,-32,-30
-70,-25,45,47,-57,10,35,-5,-16,-23,-35,-30
-86,-25,61,56,-73,18,35,-2,-14,-26,-35,-34
-82,-26,56,54,-69,15,35,-3,-26,-42,-40,-39
-86,-33,53,59,-70,10,35,-16,-45,-48,-40,-42
-88,-39,50,64,-69,5,35,-27,-50,-51,-43,-47
-86,-40,45,63,-66,2,39,-37,-58,-59,-48,-50
-82,-40,43,61,-63,1,39,-44,-63,-62,-52,-53
-80,-41,39,61,-60,-1,34,-50,-66,-74,-63,-55
-88,-47,41,67,-64,-3,36,-45,-64,-75,-66,-58
-90,-55,36,72,-63,-10,34,-45,-67,-75,-63,-60
-86,-50,35,67,-60,-7,35,-45,-77,-75,-74,-60
-77,-42,35,59,-56,-4,35,-44,-72,-67,-79,-60
-75,-34,41,54,-58,4,31,-46,-63,-62,-71,-60
-65,-26,39,46,-52,7,31,-38,-54,-53,-64,-59
-64,-18,46,41,-55,14,29,-19,-50,-49,-59,-44
-55,21,76,17,-66,48,74,35,-24,-30,-41,-22
-6,45,51,-20,-29,48,98,81,22,9,-8,-4
26,46,20,-36,3,32,78,124,72,49,21,16
22,42,20,-32,1,30,62,119,76,47,17,12
0,21,21,-10,-11,21,11,17,-3,-5,-11,-5
-36,-23,13,29,-24,-5,-13,-40,-67,-45,-44,-31
-81,-64,17,72,-49,-23,-6,-75,-103,-87,-76,-61
-83,-71,12,77,-47,-29,-2,-82,-107,-112,-90,-73
-71,-60,11,65,-41,-24,4,-77,-101,-104,-81,-68
-80,-59,22,69,-51,-18,10,-89,-111,-118,-89,-71
-69,-51,17,60,-43,-17,16,-78,-120,-107,-95,-81
-89,-45,44,67,-66,0,19,-96,-149,-124,-109,-80
-85,-25,60,54,-72,18,24,-40,-90,-71,-83,-68
-159,90,249,34,-204,170,87,-13,-65,3,-44,-33
-278,187,464,45,-372,325,291,307,222,202,41,-9
10,422,412,-216,-201,417,238,591,595,740,551,257
884,475,-409,-679,646,33,-307,34,436,1032,1155,642
1881,-88,-1969,-897,1925,-1028,-755,-394,227,732,1175,627
1930,-423,-2353,-753,2142,-1388,-745,-580,-164,-42,644,401
902,-268,-1170,-317,1037,-719,-397,-696,-474,-414,151,206
92,-145,-237,27,164,-191,-73,-323,-289,-224,-73,-4
-93,-108,-15,100,-39,-61,1,-136,-217,-211,-179,-109
-135,-79,57,107,-95,-11,22,-134,-219,-207,-189,-107
-162,-67,95,115,-128,13,37,-101,-203,-197,-209,-126
-188,-61,128,124,-158,33,33,-117,-209,-199,-214,-126
-192,-50,142,121,-167,45,37,-97,-201,-183,-213,-120
-191,-41,150,116,-171,54,34,-104,-209,-186,-215,-121
-186,-28,158,106,-171,65,36,-87,-181,-170,-207,-114
-171,-17,154,94,-162,68,35,-68,-153,-171,-208,-116
-161,-8,153,84,-157,72,38,-60,-139,-158,-200,-104
-161,3,164,79,-163,83,35,-51,-127,-151,-200,-90
-168,15,182,76,-175,98,30,-47,-109,-139,-190,-77
-153,29,181,62,-167,105,28,-26,-85,-127,-177,-69
-143,42,185,50,-164,113,23,0,-62,-106,-159,-62
-128,60,189,34,-159,124,21,23,-26,-72,-136,-48
-101,96,197,2,-149,146,15,58,23,-36,-106,-29
-78,128,206,-25,-143,167,5,99,70,6,-64,-1
-53,152,205,-50,-129,178,-3,129,115,44,-21,30
-18,188,206,-86,-112,197,-12,164,166,99,21,57
16,234,218,-125,-101,225,-21,203,212,156,56,85
35,252,217,-143,-91,234,-29,226,243,190,94,102
33,243,210,-138,-89,226,-41,232,262,215,114,101
56,243,187,-149,-65,215,-41,227,268,229,105,94
77,225,149,-151,-36,187,-32,218,258,227,95,90
65,186,120,-126,-28,153,-26,214,247,206,86,81
46,144,97,-95,-26,120,-19,192,220,163,66,63
12,94,82,-53,-35,88,-10,149,163,120,32,25
-20,46,66,-14,-43,56,0,110,104,76,7,-12
-42,8,50,17,-46,29,10,71,59,30,-16,-23
-49,-15,34,32,-41,9,20,39,24,-6,-49,-41
-49,-25,24,36,-36,0,30,27,-3,-39,-69,-47
-58,-36,22,47,-40,-6,39,23,-11,-57,-77,-43
-60,-43,17,51,-38,-12,40,17,-10,-54,-78,-47
-56,-40,16,47,-36,-12,40,11,-10,-56,-75,-50
-48,-40,9,44,-28,-16,40,6,-10,-54,-72,-50
-58,-40,18,49,-38,-11,40,1,-10,-56,-70,-52
-77,-40,38,58,-57,-1,40,0,-13,-51,-66,-56
-81,-40,40,60,-60,0,36,0,-19,-34,-64,-55
-95,-36,59,65,-77,11,35,-5,-23,-34,-69,-52
-106,-35,71,70,-88,18,35,-5,-28,-35,-70,-47
-98,-35,62,66,-79,13,31,-6,-32,-36,-70,-44
-95,-35,60,65,-77,13,29,-22,-37,-41,-70,-41
-91,-36,55,63,-72,9,32,-34,-40,-40,-69,-36
-84,-34,50,59,-67,8,35,-38,-40,-42,-72,-36
-103,-49,53,76,-78,2,35,-45,-40,-56,-74,-42
-122,-67,55,94,-88,-6,37,-55,-40,-71,-78,-50
-123,-68,55,95,-89,-6,41,-63,-43,-77,-79,-60
-132,-77,55,104,-93,-11,40,-69,-48,-80,-91,-64
-135,-80,55,107,-95,-12,36,-70,-51,-85,-106,-59
-133,-80,53,106,-93,-13,35,-75,-60,-88,-106,-61
-133,-83,50,108,-91,-16,35,-74,-75,-94,-100,-58
-135,-85,49,110,-91,-18,31,-67,-83,-94,-96,-55
-133,-85,48,109,-90,-19,29,-61,-80,-89,-89,-56
-122,-78,43,99,-82,-17,33,-52,-81,-91,-83,-50
-119,-65,54,92,-86,-5,42,-51,-67,-76,-79,-39
-103,-28,75,65,-88,23,81,-10,-17,-35,-45,-15
-71,-3,68,36,-69,32,120,55,39,14,-13,5
-33,-3,30,17,-31,13,100,105,70,38,-1,16
-17,-19,-2,18,-7,-11,42,79,44,24,6,21
-31,-37,-6,34,-12,-21,-1,-26,-23,-17,-29,5
-72,-76,-4,74,-33,-39,-10,-74,-71,-57,-66,-25
-134,-105,29,119,-81,-37,-3,-96,-99,-94,-92,-47
-130,-96,34,113,-82,-31,5,-93,-98,-104,-98,-52
-120,-84,36,102,-78,-24,10,-96,-101,-94,-87,-40
-126,-91,35,108,-80,-28,19,-96,-100,-91,-95,-43
-132,-100,33,116,-82,-33,19,-90,-108,-74,-79,-33
-139,-99,40,118,-89,-29,21,-105,-123,-81,-93,-32
-129,-55,75,92,-102,10,34,-55,-66,-37,-54,-25
-254,83,337,85,-296,210,136,-6,-25,26,-25,6
-311,208,519,52,-415,363,317,382,326,321,143,60
108,509,401,-309,-147,455,119,414,563,845,727,413
1069,401,-668,-735,868,-133,-456,-254,323,930,1089,646
1951,-328,-2279,-811,2115,-1303,-793,-505,114,358,831,411
1754,-497,-2251,-628,2001,-1374,-709,-662,-267,-304,344,247
722,-245,-967,-238,845,-605,-345,-620,-371,-350,74,143
18,-156,-174,69,96,-165,-47,-230,-166,-182,-57,-17
-114,-117,-3,115,-55,-59,10,-150,-175,-185,-141,-67
-143,-97,46,119,-94,-25,29,-129,-169,-163,-137,-72
-191,-89,102,140,-146,6,34,-111,-169,-166,-150,-76
-197,-86,111,141,-154,12,33,-113,-174,-153,-143,-74
-205,-79,126,141,-165,23,37,-93,-176,-141,-143,-75
-212,-74,138,142,-175,32,37,-92,-174,-131,-140,-75
-214,-69,145,141,-180,38,42,-72,-154,-118,-139,-75
-208,-55,153,131,-180,49,38,-67,-141,-113,-137,-69
-199,-41,157,120,-178,58,36,-54,-115,-106,-128,-64
-191,-31,161,111,-176,65,35,-45,-105,-105,-125,-58
-183,-24,160,104,-171,68,34,-29,-80,-87,-108,-52
-182,-19,163,100,-173,72,30,-3,-49,-65,-92,-47
-158,8,166,75,-162,87,30,24,-28,-35,-72,-33
-131,32,163,49,-147,97,28,51,4,-14,-53,-14
-122,54,176,34,-149,115,21,90,48,15,-25,10
-101,91,192,5,-147,142,14,135,97,72,14,33
-68,126,194,-30,-131,160,8,182,149,124,42,58
-32,160,193,-64,-113,176,1,226,195,176,75,88
0,185,185,-93,-92,185,-9,258,243,223,110,113
25,205,180,-115,-78,192,-20,282,282,256,141,124
41,213,172,-128,-66,192,-33,288,298,262,157,121
62,208,145,-135,-42,176,-37,284,293,255,148,115
85,194,110,-140,-13,152,-29,282,286,256,140,110
86,165,79,-126,3,122,-23,280,271,226,130,103
60,124,64,-92,-2,94,-16,250,230,177,114,78
17,73,56,-45,-20,64,-8,196,180,132,88,48
-21,22,43,-1,-32,32,2,148,118,80,51,26
-47,-14,32,30,-39,9,13,98,58,28,27,2
-54,-34,20,44,-37,-6,20,54,18,-16,8,-15
-51,-41,9,46,-30,-16,28,33,-6,-42,-10,-24
-50,-45,5,47,-27,-20,31,28,-17,-53,-27,-36
-50,-45,5,47,-27,-20,29,21,-23,-58,-33,-42
-50,-45,5,47,-28,-20,32,14,-32,-51,-29,-40
-49,-45,4,46,-26,-21,36,7,-39,-44,-30,-40
-58,-45,13,51,-35,-16,35,8,-34,-37,-26,-38
-69,-45,24,57,-46,-10,35,24,-29,-31,-24,-35
-70,-42,29,56,-49,-7,30,36,-23,-35,-26,-35
-71,-39,32,55,-52,-3,30,35,-19,-35,-29,-39
-73,-36,37,54,-54,0,29,28,-11,-35,-31,-46
-73,-33,40,53,-56,3,25,21,-17,-35,-30,-51
-70,-30,40,50,-55,5,25,5,-36,-35,-30,-55
-83,-31,52,57,-67,10,25,-12,-43,-38,-30,-55
-89,-36,53,62,-70,8,25,-21,-46,-47,-32,-55
-82,-39,42,60,-62,1,25,-24,-51,-58,-39,-55
-83,-44,39,63,-61,-2,21,-29,-65,-65,-47,-55
-75,-46,29,60,-51,-8,20,-33,-73,-74,-57,-58
-76,-49,27,62,-51,-11,20,-38,-76,-71,-63,-61
-80,-52,28,66,-54,-12,20,-40,-80,-80,-69,-64
-89,-55,34,72,-61,-10,20,-41,-76,-93,-75,-64
-94,-61,33,77,-63,-13,19,-39,-75,-87,-70,-59
-77,-56,21,66,-49,-17,15,-40,-76,-86,-66,-57
-94,-50,44,71,-68,-3,14,-40,-74,-81,-61,-53
-80,-42,38,61,-59,-2,8,-34,-76,-81,-57,-51
-56,-13,43,34,-49,15,28,-32,-68,-63,-48,-43
-38,27,65,5,-52,46,78,23,-27,-19,-16,-22
18,52,34,-35,-8,42,97,84,22,11,13,-11
37,55,18,-46,9,36,89,140,74,41,32,4
13,23,10,-18,1,16,42,127,65,32,26,17
-19,-14,5,16,-12,-4,-10,15,-18,-17,2,6
-21,-27,-6,24,-7,-16,-9,-34,-59,-57,-22,-27
-47,-56,-9,52,-18,-32,-7,-76,-101,-99,-61,-60
-75,-89,-15,82,-30,-52,-4,-86,-112,-108,-84,-68
-80,-83,-3,82,-38,-43,-1,-86,-104,-102,-81,-58
-89,-85,5,87,-46,-40,1,-94,-108,-109,-92,-59
-102,-89,13,95,-57,-38,5,-97,-91,-100,-88,-53
-112,-70,43,91,-77,-13,7,-123,-109,-112,-100,-49
-98,-40,58,69,-78,9,21,-63,-63,-57,-61,-42
-222,88,310,67,-266,199,111,-53,-39,13,-18,9
-304,217,522,43,-413,369,298,300,266,267,119,57
40,520,480,-280,-220,500,150,389,526,775,665,376
958,474,-484,-716,721,-5,-436,-320,264,834,1004,592
1930,-319,-2249,-805,2090,-1284,-818,-604,13,194,655,286
1890,-585,-2474,-652,2182,-1529,-769,-726,-336,-466,161,113
913,-277,-1190,-318,1052,-733,-432,-688,-415,-454,-18,90
108,-150,-259,21,184,-204,-85,-265,-199,-217,-67,-27
-113,-107,6,110,-59,-50,0,-167,-200,-202,-143,-71
-153,-86,67,119,-110,-9,13,-147,-184,-175,-159,-83
-198,-76,122,137,-160,23,41,-128,-179,-173,-172,-95
-215,-67,147,141,-181,39,42,-136,-175,-167,-170,-95
-211,-59,151,135,-181,46,47,-117,-163,-157,-169,-95
-201,-52,149,127,-175,48,45,-114,-162,-156,-171,-95
-197,-47,150,122,-173,52,51,-85,-150,-141,-169,-96
-188,-38,149,113,-168,55,50,-83,-146,-124,-168,-92
-216,-33,183,125,-200,75,48,-68,-121,-105,-151,-83
-222,-24,198,122,-210,87,43,-54,-97,-100,-139,-75
-204,-11,193,107,-198,91,37,-32,-70,-90,-128,-66
-197,0,197,98,-197,98,34,3,-46,-81,-122,-58
-179,14,193,82,-186,103,28,29,-22,-64,-102,-50
-165,32,197,66,-181,114,25,57,15,-32,-78,-39
-125,61,186,32,-155,123,18,89,61,2,-53,-17
-108,89,197,9,-152,142,11,129,99,50,-9,8
-95,122,217,-14,-156,169,5,176,153,113,26,33
-43,165,207,-61,-125,186,-4,220,215,168,68,59
-12,190,202,-89,-107,196,-11,264,258,217,120,88
19,213,194,-116,-87,203,-13,289,291,257,142,103
34,223,189,-129,-78,205,-7,300,312,279,161,95
36,213,177,-125,-71,195,-2,314,332,278,173,86
50,198,147,-124,-49,172,1,304,338,272,169,77
53,162,109,-108,-29,135,8,291,321,252,153,68
31,125,94,-78,-32,109,8,270,284,203,126,54
-14,85,99,-36,-57,92,28,219,217,159,90,26
-36,45,82,-5,-59,63,50,163,153,110,52,2
-50,17,67,17,-59,42,53,113,97,61,26,-16
-70,-8,62,39,-66,27,67,80,41,20,4,-28
-75,-20,55,47,-65,17,71,72,15,-12,-16,-39
-83,-31,52,57,-67,10,69,68,9,-29,-37,-51
-86,-43,43,64,-64,0,71,63,10,-39,-41,-55
-82,-40,41,61,-61,1,69,59,10,-40,-40,-55
-79,-40,39,60,-59,0,70,54,10,-40,-45,-55
-76,-39,37,57,-56,-1,70,51,10,-37,-45,-55
-94,-35,59,64,-76,12,70,46,6,-34,-44,-55
-103,-35,67,69,-85,16,70,44,5,-35,-40,-55
-96,-33,63,64,-79,15,70,39,5,-29,-40,-55
-94,-28,66,61,-80,18,70,36,0,-24,-40,-55
-90,-25,65,57,-77,20,68,32,0,-18,-40,-56
-90,-22,68,56,-79,22,64,24,-1,-14,-40,-60
-80,-17,63,48,-71,23,65,18,-9,-6,-43,-60
-83,-15,68,49,-75,27,65,10,-17,-13,-47,-60
-92,-9,83,50,-87,36,65,2,-25,-42,-50,-60
-93,-14,79,53,-85,32,65,-4,-32,-46,-54,-60
-103,-34,70,68,-86,18,60,-11,-42,-45,-56,-64
-100,-36,64,67,-81,14,60,-18,-56,-45,-62,-65
-89,-35,54,61,-71,10,59,-24,-63,-45,-69,-65
-87,-35,52,61,-69,8,55,-31,-69,-56,-70,-65
-98,-35,63,67,-80,14,55,-38,-69,-54,-71,-65
-99,-34,65,66,-82,16,58,-38,-63,-56,-69,-64
-94,-26,68,60,-81,21,60,-29,-57,-54,-63,-55
-84,-13,71,49,-77,29,61,-21,-50,-56,-56,-47
-79,-7,72,43,-75,32,69,-18,-48,-50,-53,-39
-70,17,87,27,-79,51,99,28,-23,0,-35,-23
-38,51,89,-7,-63,69,131,86,34,35,-5,-3
1,50,50,-26,-25,50,128,137,82,58,20,19
26,34,8,-30,9,20,77,130,65,53,17,18
3,20,17,-12,-7,18,30,23,4,8,-18,-3
-32,-10,22,20,-26,6,28,-38,-45,-32,-42,-29
-83,-54,28,68,-55,-13,24,-77,-97,-77,-71,-52
-99,-72,26,85,-62,-23,21,-96,-120,-106,-102,-57
-74,-60,14,67,-44,-22,16,-85,-118,-104,-97,-45
-73,-54,19,63,-46,-17,15,-96,-123,-106,-104,-42
-80,-75,4,77,-42,-35,32,-77,-118,-104,-106,-34
-123,-57,65,90,-93,4,41,-96,-132,-103,-100,-26
-117,-46,71,81,-94,12,40,-68,-92,-57,-68,-22
-172,73,245,49,-208,158,97,-52,-74,8,-5,26
-327,204,531,61,-429,367,290,220,153,197,74,57
-94,452,546,-179,-320,498,254,480,496,675,528,309
762,554,-208,-657,484,173,-279,-124,325,848,946,583
1811,-187,-1998,-812,1904,-1093,-749,-609,-8,264,648,319
2067,-620,-2686,-723,2377,-1653,-777,-726,-362,-481,103,11
1183,-324,-1507,-429,1345,-916,-473,-749,-502,-545,-105,18
230,-156,-385,-37,308,-270,-108,-330,-244,-232,-95,7
-84,-94,-10,89,-37,-52,0,-145,-175,-181,-144,-59
-136,-71,65,103,-100,-3,16,-160,-194,-178,-158,-70
-196,-78,119,137,-157,20,46,-129,-190,-163,-157,-70
-221,-75,146,148,-183,35,36,-139,-200,-163,-164,-71
-220,-69,151,144,-185,41,43,-114,-191,-149,-157,-69
-219,-62,157,141,-188,47,36,-116,-206,-147,-163,-71
-218,-58,160,138,-189,51,35,-102,-197,-134,-158,-67
-216,-51,165,133,-190,56,35,-93,-178,-129,-160,-63
-214,-45,169,129,-191,61,31,-81,-148,-120,-149,-57
-207,-37,170,122,-188,66,29,-63,-127,-114,-140,-54
-201,-28,172,114,-186,72,26,-43,-109,-105,-128,-49
-197,-22,176,109,-186,77,23,-22,-86,-96,-107,-45
-187,-12,175,99,-181,82,20,2,-51,-83,-88,-36
-172,10,182,81,-177,96,19,32,-17,-63,-67,-19
-144,45,189,49,-167,116,10,66,15,-30,-49,3
-127,72,199,27,-163,135,2,112,55,23,-17,27
-111,103,214,4,-163,158,-6,150,102,79,25,49
-72,144,215,-36,-144,179,-17,200,164,139,55,75
-30,176,206,-73,-118,190,-32,243,211,181,90,105
12,207,195,-110,-91,200,-43,266,249,209,123,125
22,208,186,-115,-83,197,-39,288,282,239,139,133
40,202,162,-121,-61,181,-33,295,298,238,146,126
78,198,120,-139,-21,158,-30,293,302,228,140,114
87,177,89,-132,-1,132,-25,282,282,211,132,106
72,140,68,-106,2,104,-21,258,248,166,109,88
38,91,53,-65,-8,72,-15,210,198,120,74,62
19,59,40,-39,-11,49,-7,144,133,80,38,32
0,34,33,-17,-17,33,1,91,74,40,3,10
-26,3,29,12,-28,15,9,57,22,2,-23,3
-50,-26,24,38,-37,-1,16,39,-3,-28,-41,-4
-50,-30,20,40,-35,-5,22,34,-5,-44,-46,-12
-39,-24,15,31,-27,-4,28,32,-12,-45,-45,-20
-40,-22,18,31,-29,-2,34,29,-17,-40,-45,-23
-40,-17,23,28,-31,3,39,26,-23,-36,-45,-20
-40,-14,26,27,-32,6,37,24,-23,-31,-45,-20
-43,-11,32,27,-38,10,34,20,-20,-27,-41,-20
-48,-8,40,28,-44,16,31,13,-20,-25,-40,-20
-51,-6,45,28,-47,19,28,9,-20,-22,-40,-20
-50,-2,48,26,-49,23,26,2,-20,-19,-36,-24
-52,1,53,26,-53,26,23,-3,-20,-16,-35,-26
-58,-3,55,30,-56,26,20,-8,-27,-14,-36,-25
-63,-8,55,35,-59,23,20,-14,-35,-25,-40,-25
-74,-15,59,45,-66,21,20,-21,-42,-38,-43,-24
-78,-17,60,47,-69,22,20,-28,-48,-40,-47,-27
-94,-34,60,64,-77,13,20,-34,-51,-40,-50,-30
-107,-52,55,79,-81,1,24,-40,-55,-40,-53,-32
-101,-50,52,75,-77,1,31,-46,-61,-46,-56,-35
-98,-50,48,74,-73,-1,36,-52,-68,-52,-59,-38
-95,-51,44,72,-70,-3,34,-58,-71,-60,-62,-41
-90,-50,41,70,-66,-4,35,-60,-70,-64,-65,-36
-83,-46,36,65,-59,-5,35,-60,-71,-59,-65,-29
-90,-34,56,62,-73,11,39,-59,-69,-47,-56,-23
-98,-25,72,61,-85,23,47,-61,-70,-42,-53,-15
-88,-14,74,50,-81,30,49,-29,-40,-24,-36,-10
-34,31,65,1,-50,48,93,43,19,21,-3,-3
6,54,49,-30,-22,51,118,98,63,51,27,8
-2,36,38,-17,-21,37,81,134,102,67,49,26
-4,18,22,-8,-13,20,34,87,67,43,33,16
-8,7,16,0,-12,11,-11,-7,-12,5,4,-15
-39,-39,0,39,-19,-20,-14,-51,-58,-30,-33,-34
-84,-81,4,83,-44,-38,-7,-99,-116,-75,-68,-59
-70,-83,-13,77,-28,-48,-3,-99,-125,-76,-66,-78
-60,-60,0,60,-30,-30,4,-100,-125,-73,-56,-72
-93,-67,26,80,-59,-20,8,-102,-126,-78,-64,-76
-106,-92,14,99,-60,-39,17,-95,-121,-70,-58,-75
-118,-74,45,96,-81,-14,31,-109,-127,-81,-61,-65
-122,-40,83,81,-102,21,40,-52,-60,-23,-18,-28
-244,98,342,73,-293,220,134,-11,-11,64,37,27
-341,230,571,55,-456,400,321,356,309,333,194,83
82,489,407,-286,-163,448,133,391,538,785,695,389
1109,336,-773,-723,941,-218,-466,-324,251,693,893,508
2054,-461,-2514,-796,2284,-1487,-818,-669,-102,-62,418,119
1908,-622,-2529,-643,2219,-1575,-733,-815,-470,-647,-58,-91
847,-292,-1139,-277,993,-715,-369,-688,-439,-490,-158,-58
73,-159,-232,43,153,-195,-46,-256,-173,-198,-129,-67
-118,-119,-1,119,-58,-60,8,-184,-171,-187,-140,-76
-179,-117,62,148,-121,-27,15,-169,-166,-170,-129,-76
-225,-98,127,161,-175,14,41,-150,-160,-164,-130,-74
-228,-91,137,159,-182,23,48,-151,-159,-149,-127,-71
-229,-80,149,154,-189,34,52,-122,-150,-134,-120,-70
-227,-70,157,148,-192,43,48,-113,-150,-130,-118,-69
-222,-65,157,143,-189,46,52,-91,-141,-122,-111,-64
-219,-57,162,138,-190,52,47,-73,-130,-121,-108,-61
-215,-51,163,133,-189,56,45,-46,-106,-114,-103,-58
-212,-44,168,128,-189,62,45,-38,-87,-112,-96,-53
-209,-38,171,123,-190,66,45,-22,-60,-102,-86,-51
-202,-29,174,115,-188,72,45,-5,-33,-82,-79,-43
-182,-5,178,93,-180,86,45,27,-2,-52,-63,-24
-163,24,187,69,-175,106,38,57,34,-22,-32,-13
-148,42,190,53,-169,115,27,79,69,14,-7,9
-129,65,194,32,-161,129,18,118,114,64,14,41
-98,103,201,-3,-150,152,6,153,162,119,41,62
-69,132,201,-32,-135,167,-11,195,207,163,75,92
-35,165,200,-65,-117,182,-23,229,258,203,122,123
-3,199,202,-98,-103,200,-32,254,290,241,150,128
1,193,192,-97,-96,192,-44,276,306,247,156,121
20,178,158,-99,-69,167,-47,294,323,241,169,114
52,165,113,-109,-31,139,-39,303,319,242,160,109
56,131,75,-94,-10,102,-32,273,305,222,125,91
32,95,63,-63,-16,78,-26,225,269,178,97,58
-1,56,57,-28,-29,56,-18,172,203,135,79,38
-32,15,47,8,-40,31,-10,119,133,91,50,14
-63,-22,41,42,-52,9,-2,73,75,45,18,-13
-76,-41,35,58,-55,-3,6,44,32,13,-3,-23
-75,-45,30,60,-52,-7,13,39,17,-17,-20,-30
-82,-57,25,69,-53,-15,23,38,15,-40,-34,-40
-83,-61,22,72,-52,-20,32,33,9,-38,-37,-46
-75,-60,16,67,-45,-22,31,32,5,-30,-34,-41
-74,-57,17,65,-45,-19,30,28,0,-24,-35,-40
-82,-55,28,68,-55,-13,30,29,0,-18,-35,-40
-92,-55,37,73,-64,-9,30,43,0,-10,-35,-35
-96,-48,48,72,-72,0,30,41,0,-17,-34,-35
-92,-37,55,64,-73,9,28,34,0,-23,-30,-34
-83,-28,55,55,-69,13,23,30,0,-19,-30,-30
-79,-24,55,51,-67,15,20,23,-1,-20,-30,-31
-80,-25,55,52,-67,15,17,19,-10,-20,-30,-27
-98,-42,56,70,-77,6,12,11,-18,-19,-30,-25
-104,-52,52,78,-78,0,9,3,-27,-22,-34,-25
-95,-49,46,72,-71,-1,5,-5,-35,-33,-41,-29
-89,-50,39,69,-64,-6,5,-13,-45,-37,-46,-36
-84,-50,33,67,-58,-8,5,-20,-52,-38,-51,-43
-73,-48,25,60,-49,-11,5,-31,-62,-42,-54,-49
-76,-57,20,66,-47,-18,4,-38,-75,-44,-59,-51
-103,-67,36,85,-69,-15,8,-33,-75,-51,-64,-49
-109,-61,48,85,-78,-7,10,-27,-80,-58,-68,-51
-102,-58,44,80,-73,-6,10,-23,-79,-52,-70,-49
-102,-56,46,79,-74,-5,11,-15,-65,-40,-59,-51
-99,-41,59,70,-79,9,9,-12,-53,-36,-51,-47
-61,0,61,30,-61,30,46,10,-23,-9,-31,-28
-6,42,48,-18,-27,44,100,71,31,37,2,-7
16,58,42,-37,-14,50,109,122,81,67,20,11
9,37,28,-23,-10,33,72,131,80,63,35,6
-13,0,14,6,-14,7,6,62,22,20,27,-2
-29,-20,9,24,-19,-5,-30,-22,-37,-26,-16,-16
-76,-57,19,66,-48,-19,-27,-50,-77,-71,-62,-49
-112,-82,30,96,-71,-26,-19,-72,-104,-94,-83,-62
-93,-76,17,84,-55,-29,-13,-67,-96,-87,-77,-60
-111,-67,44,89,-77,-12,-6,-74,-111,-92,-70,-55
-106,-70,36,88,-70,-17,1,-65,-97,-81,-76,-55
-111,-57,54,84,-82,-1,-2,-74,-101,-89,-82,-48
-123,-55,68,89,-95,6,10,-66,-87,-68,-63,-50
-164,17,180,73,-172,98,57,-29,-45,10,-8,-14
-322,151,473,85,-398,312,224,142,91,150,62,28
-248,290,537,-21,-393,413,338,572,523,551,369,136
389,468,78,-428,155,273,-18,327,559,889,880,461
1516,104,-1412,-810,1464,-654,-616,-342,252,678,959,489
2158,-498,-2656,-830,2408,-1577,-846,-580,-80,-66,478,201
1493,-452,-1944,-520,1719,-1198,-607,-744,-459,-543,59,92
420,-196,-615,-112,518,-405,-208,-511,-354,-339,-53,10
-69,-132,-63,100,-2,-97,-6,-160,-175,-181,-107,-80
-142,-100,42,120,-91,-29,11,-139,-180,-172,-132,-93
-189,-82,107,135,-148,12,39,-103,-163,-152,-136,-102
-225,-76,149,150,-187,36,54,-105,-176,-159,-143,-100
-225,-66,159,146,-192,46,58,-98,-166,-143,-137,-100
-239,-60,179,149,-209,60,56,-86,-173,-146,-142,-96
-239,-52,187,145,-213,67,54,-82,-163,-134,-139,-94
-230,-50,180,140,-205,65,56,-68,-142,-130,-138,-96
-230,-50,180,140,-205,65,54,-56,-116,-123,-129,-87
-225,-50,175,137,-200,62,56,-31,-87,-115,-122,-79
-208,-33,175,120,-191,70,50,-31,-79,-111,-116,-70
-176,-6,170,91,-173,82,40,-14,-69,-100,-104,-62
-166,4,170,81,-168,86,30,10,-61,-90,-91,-54
-150,20,170,65,-160,95,20,34,-32,-73,-74,-46
-130,40,170,45,-150,105,10,60,12,-47,-53,-27
-107,62,169,22,-138,116,0,93,47,-2,-21,-2
-78,96,174,-9,-126,135,-9,130,85,45,16,17
-53,133,187,-41,-120,160,-14,171,137,104,54,47
-13,171,184,-79,-99,177,-21,212,191,167,94,80
-3,190,193,-94,-98,192,-25,235,229,194,130,104
8,208,200,-108,-97,204,-36,252,253,230,150,125
40,213,173,-127,-66,193,-44,259,274,247,144,134
69,206,137,-138,-34,171,-32,251,277,237,131,129
78,182,104,-130,-13,143,-23,238,273,228,120,114
61,139,78,-100,-9,108,-12,228,267,207,109,72
39,101,63,-70,-13,82,1,196,223,176,94,38
21,70,49,-46,-14,59,12,149,167,123,62,25
8,39,31,-24,-12,35,25,111,115,85,23,-2
-18,0,18,9,-18,9,37,74,66,60,-10,-30
-38,-25,13,31,-25,-5,41,49,24,20,-34,-48
-43,-27,17,35,-30,-5,44,44,1,-2,-43,-53
-35,-25,10,30,-22,-7,46,42,-2,-19,-47,-56
-36,-25,11,31,-23,-6,40,39,-6,-28,-59,-63
-33,-25,8,29,-20,-8,47,36,-10,-17,-66,-59
-16,-25,-9,21,-3,-17,51,34,-13,-7,-64,-56
-39,-25,14,32,-26,-5,49,30,-16,0,-65,-53
-40,-20,20,30,-30,0,50,22,-15,0,-65,-48
-44,-20,24,32,-34,2,50,16,-15,4,-65,-45
-63,-19,44,41,-53,12,49,9,-16,5,-69,-49
-52,-15,37,33,-44,11,43,2,-13,7,-70,-50
-51,-15,36,32,-43,10,35,-4,-29,14,-71,-50
-50,-17,33,33,-41,8,30,-11,-44,6,-69,-55
-49,-21,29,35,-39,4,22,-17,-50,-6,-72,-55
-54,-21,33,37,-43,6,15,-25,-60,-17,-84,-55
-63,-26,37,44,-49,5,29,-30,-66,-28,-92,-55
-67,-24,42,45,-54,9,37,-38,-65,-34,-108,-55
-65,-21,44,42,-55,11,31,-47,-64,-40,-117,-55
-85,-45,41,65,-63,-2,30,-52,-82,-46,-114,-55
-91,-52,39,71,-65,-6,27,-54,-92,-48,-115,-54
-79,-45,34,62,-56,-6,24,-51,-93,-68,-116,-59
-79,-45,34,62,-56,-5,26,-49,-96,-79,-119,-64
-68,-40,28,54,-48,-6,24,-51,-99,-72,-121,-58
-73,-40,33,57,-53,-4,26,-49,-100,-69,-123,-55
-81,-39,41,60,-61,1,25,-51,-91,-63,-127,-49
-73,-34,40,53,-56,3,25,-41,-71,-60,-115,-47
-46,19,65,13,-55,42,61,4,-26,-20,-71,-33
-11,58,69,-23,-41,63,89,64,22,28,-41,-4
9,53,44,-31,-18,48,80,118,71,46,-24,9
49,53,5,-51,22,29,42,100,69,43,-20,18
22,16,-6,-19,14,5,3,17,-5,4,-40,2
-28,-28,0,28,-14,-14,-4,-37,-58,-46,-68,-38
-64,-56,9,60,-37,-23,-14,-83,-99,-101,-113,-63
-87,-74,13,81,-50,-30,-7,-89,-107,-122,-135,-78
-89,-68,21,78,-55,-23,-1,-89,-106,-104,-125,-69
-96,-70,27,83,-61,-21,5,-93,-118,-107,-129,-68
-86,-73,13,79,-50,-30,14,-85,-107,-109,-118,-62
-99,-62,38,81,-68,-12,17,-112,-119,-130,-121,-56
-93,-28,65,60,-79,18,25,-65,-65,-87,-75,-57
-181,83,264,49,-223,174,91,-28,-41,-37,-46,-31
-267,191,457,38,-362,324,291,301,248,187,29,-23
28,448,420,-238,-196,434,222,541,591,713,557,275
872,480,-392,-676,631,44,-320,-19,423,990,1158,639
1893,-124,-2016,-885,1955,-1070,-767,-428,229,665,1173,597
1923,-456,-2379,-734,2151,-1417,-753,-608,-154,-99,647,404
873,-283,-1156,-295,1014,-719,-400,-710,-438,-434,156,205
84,-153,-237,35,161,-195,-78,-329,-231,-284,-62,-1
-100,-112,-12,106,-44,-62,3,-143,-157,-249,-175,-93
-150,-89,61,120,-105,-14,23,-158,-167,-231,-196,-91
-178,-74,104,126,-140,14,52,-123,-150,-236,-203,-104
-199,-68,131,133,-165,31,54,-128,-164,-237,-215,-104
-201,-62,139,131,-170,38,56,-105,-181,-229,-228,-96
-194,-56,138,125,-166,40,58,-103,-190,-233,-223,-95
-207,-51,156,129,-182,52,61,-89,-171,-227,-210,-87
-214,-46,168,130,-191,61,59,-80,-155,-225,-205,-86
-207,-39,168,123,-187,65,55,-71,-131,-214,-189,-79
-195,-28,167,111,-181,69,55,-59,-113,-207,-178,-73
-177,-15,161,95,-169,73,54,-49,-92,-188,-163,-65
-183,-3,180,92,-181,88,49,-26,-69,-156,-149,-60
-196,17,212,89,-204,114,51,0,-36,-114,-127,-51
-172,45,217,63,-195,131,47,24,-9,-76,-108,-34
-152,69,221,42,-187,145,38,50,30,-36,-89,-13
-138,96,234,21,-187,165,27,83,72,8,-57,9
-106,137,242,-15,-174,189,18,116,104,50,-13,38
-68,170,238,-51,-153,204,8,160,162,106,42,74
-33,202,236,-85,-135,219,-4,188,200,151,87,108
-2,229,231,-113,-117,229,-9,205,238,178,120,134
-3,229,231,-113,-117,230,-27,232,260,204,137,132
4,219,216,-112,-106,217,-26,237,267,218,155,122
32,209,177,-121,-73,193,-35,229,283,228,144,116
42,201,159,-121,-59,180,-3,234,270,221,150,107
13,157,143,-85,-65,150,-12,205,239,185,101,95
-7,115,121,-54,-64,118,9,176,192,140,62,60
-33,55,88,-11,-61,71,21,121,138,74,133,37
-41,27,68,7,-55,47,-125,95,94,27,55,9
-11,43,54,-16,-33,48,-87,44,32,22,-33,4
