I,II,III,aVR,aVL,aVF,V1,V2,V3,V4,V5,V6
-64,-174,-110,119,23,-142,-40,-30,14,-6,29,39
-70,-178,-108,124,20,-143,-40,-31,12,-8,27,37
-82,-198,-116,141,17,-157,-39,-34,4,-14,18,29
-76,-201,-125,139,24,-162,-41,-39,-3,-20,12,22
-100,-215,-115,158,8,-165,-40,-42,-8,-23,7,17
-104,-216,-112,160,5,-164,-40,-47,-18,-35,-5,6
-98,-207,-108,152,5,-157,-35,-51,-5,-28,3,11
-104,-215,-111,160,4,-163,-19,-41,-18,-50,-21,-11
-84,-193,-109,139,13,-151,-20,-37,0,-18,4,3
-109,-225,-116,167,4,-170,16,-2,-16,-55,-43,-31
-99,-169,-70,134,-15,-119,60,131,107,49,34,9
-3,-73,-70,39,34,-72,55,259,311,222,179,137
324,273,-50,-298,187,111,-232,-48,491,528,559,549
380,589,209,-485,85,399,-508,-645,429,781,916,934
-103,152,255,-24,-179,203,-325,-930,-366,8,218,357
-288,-188,100,237,-194,-43,-150,-760,-657,-448,-244,-97
-184,-168,15,176,-99,-76,-84,-363,-254,-174,-88,-30
-101,-175,-74,138,-14,-124,-22,-111,-75,-83,-52,-42
-65,-148,-83,107,9,-115,-19,-31,26,0,27,23
-72,-156,-85,115,7,-120,-12,0,31,5,16,23
-57,-143,-86,101,15,-115,-17,12,47,31,23,23
-58,-140,-83,99,13,-111,-14,24,66,32,28,37
-48,-136,-88,93,20,-112,-16,31,62,27,41,47
-46,-126,-80,87,17,-103,-15,47,68,42,53,57
-38,-119,-81,79,21,-99,-15,55,64,39,48,59
-34,-106,-73,71,20,-89,-15,56,76,54,60,72
-24,-98,-74,61,25,-86,-15,61,80,57,68,71
-27,-91,-64,59,19,-77,-14,58,98,73,77,84
-16,-85,-70,51,27,-77,-17,71,120,77,93,98
9,-81,-90,36,50,-85,-41,89,141,92,113,114
1,-68,-69,34,35,-68,-47,93,140,109,115,126
12,-45,-57,16,35,-50,-45,99,162,131,140,149
33,-23,-56,-4,45,-39,-53,106,193,159,166,171
60,11,-49,-35,54,-18,-64,119,216,184,193,191
87,40,-47,-63,66,-3,-73,132,254,225,234,234
120,80,-40,-100,80,20,-85,144,291,262,278,274
155,123,-32,-139,93,45,-107,155,341,307,324,313
188,164,-24,-176,106,70,-127,157,381,356,372,368
219,204,-15,-211,117,94,-141,167,422,395,424,416
242,237,-5,-239,124,115,-153,173,447,420,459,449
263,263,1,-263,131,132,-156,163,438,431,467,464
247,255,8,-251,119,131,-153,154,442,432,458,452
229,243,14,-236,107,128,-157,146,430,412,448,438
185,206,21,-195,81,113,-136,136,380,367,403,395
118,143,25,-131,46,84,-95,118,314,299,324,321
63,70,7,-67,28,39,-54,97,246,222,255,245
24,8,-16,-16,20,-3,-26,78,181,158,189,178
21,-31,-52,5,36,-41,-24,60,130,114,131,130
0,-71,-70,36,35,-70,-21,44,89,78,91,91
-15,-88,-74,52,30,-81,-18,34,63,48,69,71
-18,-105,-87,62,35,-96,-15,30,46,35,58,65
-39,-116,-76,78,19,-95,-15,25,35,30,51,55
-41,-117,-76,79,17,-96,-15,21,35,22,47,48
-57,-121,-64,89,3,-92,-15,17,35,14,41,42
-46,-116,-70,81,12,-93,-15,12,35,7,35,37
-21,-114,-93,68,37,-104,-15,10,35,5,30,33
-41,-111,-69,76,14,-90,-15,10,34,5,25,29
-33,-109,-76,71,22,-92,-11,10,30,5,25,24
-24,-104,-80,65,29,-92,-9,10,30,5,24,20
-40,-108,-68,74,14,-88,-10,10,29,5,20,20
-49,-120,-71,85,11,-95,-10,26,24,4,20,19
-62,-120,-58,91,-2,-89,-10,31,25,-1,17,14
-56,-120,-64,88,4,-92,-8,23,23,-5,14,15
-45,-120,-75,83,15,-97,-5,19,16,-7,12,12
-45,-120,-75,83,15,-97,-5,12,9,-12,9,9
-24,-120,-96,72,36,-108,-5,8,2,-14,6,10
-19,-120,-100,70,41,-110,-5,2,-4,-26,4,6
-28,-120,-92,75,32,-105,-5,-4,-10,-45,1,5
-27,-120,-93,73,33,-106,-9,-9,-16,-45,-2,4
-36,-120,-84,78,24,-102,-21,-14,-26,-45,-4,1
-32,-120,-87,77,27,-103,-25,-20,-28,-50,-8,-2
-16,-124,-108,70,46,-115,-25,-25,-25,-50,-10,-4
-15,-125,-110,70,48,-117,-25,-25,-25,-51,-13,-8
-22,-126,-104,74,41,-115,-25,-25,-25,-55,-27,-10
-30,-133,-102,82,36,-117,-25,-25,-25,-60,-31,-12
-38,-135,-98,86,31,-116,-22,-25,-26,-60,-30,-15
-39,-135,-96,88,29,-115,-19,-25,-29,-60,-30,-15
-43,-135,-92,89,25,-113,-16,-28,-30,-59,-30,-19
-45,-135,-90,90,23,-112,-13,-30,-30,-61,-30,-20
-49,-135,-86,92,19,-111,-11,-30,-30,-59,-30,-20
-50,-135,-85,93,18,-110,-8,-30,-32,-63,-30,-25
-53,-135,-82,94,15,-108,-5,-26,-35,-80,-30,-25
-55,-135,-79,95,12,-107,-5,-25,-35,-80,-30,-25
-55,-135,-80,95,13,-107,-5,-25,-39,-80,-30,-25
-60,-135,-75,98,8,-105,-5,-25,-43,-80,-30,-25
-60,-135,-75,98,8,-105,-5,-25,-45,-80,-35,-23
-57,-131,-74,94,9,-102,-2,-23,-50,-79,-33,-16
-50,-119,-69,85,10,-94,4,-16,-47,-70,-26,-11
-39,-110,-71,74,16,-90,5,-11,-39,-61,-20,-6
-20,-82,-63,51,22,-73,11,-4,-31,-49,-12,1
-8,-56,-48,33,20,-52,11,6,-18,-48,-6,4
-5,-40,-35,23,15,-37,24,26,3,-51,2,18
16,-11,-26,-2,21,-18,42,41,23,-49,9,29
7,-5,-12,-1,10,-8,19,23,15,-56,17,22
1,-30,-30,15,16,-30,6,4,-11,-54,14,21
0,-82,-82,41,42,-82,4,-7,-40,-58,-19,2
-26,-118,-92,72,33,-105,-5,-23,-52,-80,-44,-32
-49,-137,-88,93,20,-112,-4,-33,-53,-100,-48,-49
-67,-160,-93,113,13,-126,-6,-46,-72,-109,-63,-63
-69,-156,-87,112,9,-121,-11,-51,-70,-100,-65,-60
-67,-161,-94,114,14,-127,-8,-49,-79,-116,-76,-70
-60,-150,-89,105,15,-119,-13,-57,-72,-104,-63,-59
-59,-159,-100,109,21,-129,-7,-51,-77,-115,-76,-73
-53,-143,-90,98,18,-116,-14,-54,-77,-101,-66,-74
-59,-159,-100,110,21,-129,4,-28,-65,-106,-71,-88
-80,-163,-83,122,2,-123,58,55,-27,-95,-74,-107
-78,-73,5,76,-42,-34,115,223,177,87,58,-8
196,133,-63,-164,130,35,-49,98,320,267,270,232
512,565,53,-539,230,309,-470,-508,436,655,771,747
172,414,243,-293,-36,328,-477,-932,-58,310,514,574
-212,-89,122,150,-167,16,-220,-903,-726,-474,-240,-88
-171,-132,39,151,-104,-46,-121,-529,-460,-354,-210,-138
-127,-122,5,124,-65,-58,-25,-169,-153,-173,-116,-104
-73,-119,-45,96,-14,-82,2,-56,-66,-120,-83,-91
-46,-105,-59,76,7,-82,6,-5,-11,-59,-42,-59
-49,-107,-59,78,5,-82,16,9,-21,-71,-53,-69
-40,-92,-52,66,6,-71,20,21,11,-46,-28,-47
-41,-92,-51,66,6,-71,25,29,6,-54,-40,-53
-33,-77,-44,56,6,-60,18,36,24,-36,-21,-37
-26,-74,-48,50,11,-61,22,51,28,-37,-25,-36
-15,-63,-48,39,17,-55,16,57,36,-27,-14,-27
-14,-58,-44,36,15,-51,15,63,44,-17,-5,-20
-6,-49,-42,28,18,-45,15,65,52,-9,4,-12
-3,-41,-39,22,18,-40,9,75,69,4,17,5
8,-28,-36,10,22,-32,4,81,77,11,20,17
26,-8,-34,-9,31,-21,-1,95,94,36,39,33
31,3,-29,-17,30,-13,-8,106,120,62,58,48
38,21,-17,-29,27,2,-12,114,138,79,79,67
54,45,-9,-49,31,18,-19,132,164,101,108,94
70,78,8,-74,30,43,-31,140,194,132,141,122
98,115,17,-107,40,66,-44,150,235,174,183,162
140,152,13,-147,63,82,-61,174,281,224,232,211
171,204,33,-187,68,118,-82,188,315,271,282,254
200,244,44,-223,78,144,-101,185,356,307,325,296
226,281,54,-254,86,167,-116,180,389,341,369,339
241,312,71,-276,84,191,-128,176,399,358,383,367
258,323,64,-291,97,193,-125,171,401,367,390,371
265,326,61,-296,102,193,-126,167,396,367,391,372
233,289,56,-261,88,173,-118,159,358,327,339,349
182,233,51,-207,65,142,-82,137,296,267,278,280
126,172,47,-149,39,109,-49,117,229,196,206,201
66,98,31,-82,17,64,-24,99,156,122,127,124
32,51,19,-42,6,34,-11,70,96,66,71,60
9,16,7,-13,1,12,-6,50,55,24,24,21
-14,-17,-2,16,-6,-9,-3,40,27,-3,-3,-3
-30,-40,-9,35,-10,-24,-1,27,10,-22,-23,-26
-40,-61,-21,50,-9,-41,3,18,0,-35,-40,-41
-48,-71,-22,60,-13,-46,5,13,-8,-40,-45,-48
-50,-70,-20,60,-15,-45,7,10,-18,-40,-52,-51
-53,-70,-17,62,-18,-43,10,7,-25,-45,-55,-50
-56,-70,-14,64,-21,-42,10,2,-25,-51,-55,-50
-36,-70,-34,53,-1,-52,10,0,-25,-50,-58,-50
-25,-66,-41,46,8,-54,10,5,-25,-50,-60,-51
-32,-65,-32,49,1,-48,10,10,-25,-50,-60,-55
-35,-65,-30,50,-3,-47,15,14,-25,-50,-60,-55
-38,-60,-22,49,-8,-41,20,19,-28,-54,-60,-58
-43,-60,-17,51,-13,-38,24,24,-31,-61,-60,-61
-45,-62,-17,53,-14,-39,23,23,-34,-66,-60,-60
-43,-65,-21,54,-11,-43,19,19,-37,-64,-60,-60
-42,-68,-26,55,-8,-46,17,17,-40,-66,-61,-60
-52,-70,-19,61,-17,-44,14,14,-41,-63,-65,-61
-49,-74,-25,61,-11,-49,11,11,-45,-72,-65,-59
-34,-75,-42,55,4,-58,9,9,-45,-86,-65,-63
-40,-78,-38,59,-1,-58,6,6,-46,-85,-65,-74
-45,-80,-35,63,-5,-57,5,0,-48,-85,-65,-77
-47,-80,-32,64,-8,-56,5,-4,-63,-85,-69,-80
-50,-80,-30,65,-10,-55,5,-9,-85,-84,-70,-83
-53,-80,-28,67,-13,-54,5,-13,-85,-88,-70,-85
-54,-79,-25,67,-15,-51,7,-18,-84,-92,-70,-88
-50,-75,-25,63,-12,-50,14,-20,-86,-97,-69,-91
-53,-75,-22,64,-15,-48,20,-20,-84,-100,-71,-94
-56,-75,-19,65,-18,-47,20,-24,-88,-101,-75,-95
-54,-75,-20,65,-17,-47,21,-26,-90,-99,-75,-95
-46,-76,-30,61,-7,-53,25,-25,-90,-104,-75,-95
-39,-71,-32,55,-4,-51,25,-25,-90,-111,-75,-95
-41,-70,-29,56,-6,-50,22,-25,-90,-109,-75,-95
-40,-69,-29,55,-5,-49,20,-25,-90,-112,-79,-95
-42,-66,-24,55,-8,-45,17,-25,-95,-115,-86,-97
-38,-64,-26,51,-6,-45,14,-25,-99,-115,-90,-100
-44,-68,-24,57,-9,-46,11,-28,-104,-115,-89,-103
-58,-83,-26,71,-16,-54,10,-30,-105,-115,-92,-106
-61,-85,-24,74,-18,-55,15,-33,-105,-115,-95,-109
-58,-85,-27,72,-15,-56,15,-35,-105,-115,-95,-110
-44,-84,-40,64,-2,-61,16,-35,-104,-115,-95,-105
-49,-90,-40,70,-4,-65,20,-35,-106,-114,-95,-105
-60,-99,-39,80,-10,-69,20,-35,-104,-109,-95,-104
-54,-90,-36,73,-9,-63,22,-35,-102,-105,-95,-100
-50,-84,-34,68,-8,-59,26,-35,-98,-103,-95,-101
-40,-75,-35,58,-2,-55,25,-32,-96,-98,-94,-98
-23,-47,-24,35,1,-36,26,-12,-89,-96,-86,-92
-8,-24,-16,16,4,-20,39,5,-67,-87,-74,-78
0,2,2,-1,-2,2,39,19,-64,-72,-74,-59
6,38,32,-22,-13,34,30,36,-65,-75,-74,-53
4,47,42,-25,-19,44,25,30,-65,-75,-76,-53
0,23,23,-12,-11,23,17,11,-64,-74,-73,-47
5,-24,-29,10,17,-26,12,-3,-72,-85,-80,-71
-10,-64,-53,37,22,-58,6,-16,-99,-104,-103,-102
-42,-89,-47,65,3,-68,5,-36,-112,-123,-114,-111
-48,-100,-53,74,3,-76,5,-50,-124,-136,-123,-124
-48,-95,-47,71,0,-71,-1,-54,-119,-127,-121,-118
-53,-106,-53,80,1,-80,1,-56,-122,-136,-137,-124
-61,-105,-45,83,-8,-75,-1,-60,-109,-124,-124,-115
-72,-119,-47,96,-12,-83,11,-49,-107,-134,-133,-125
-67,-110,-43,89,-12,-77,19,-56,-104,-128,-121,-115
-78,-117,-38,98,-20,-77,28,-40,-80,-126,-124,-128
-46,-91,-45,68,0,-67,61,47,-51,-114,-140,-141
-26,-14,12,20,-19,-1,110,202,126,45,-12,-48
208,166,-41,-187,124,62,-49,74,262,211,189,155
544,595,50,-570,247,322,-452,-527,370,586,662,674
222,467,246,-345,-12,356,-467,-938,-85,280,451,542
-197,-25,173,111,-185,74,-202,-898,-742,-476,-275,-124
-183,-99,85,141,-134,-7,-103,-543,-501,-379,-269,-193
-122,-86,37,104,-79,-24,-32,-175,-192,-198,-162,-161
-66,-67,-1,67,-32,-34,4,-62,-112,-149,-128,-138
-47,-59,-12,53,-17,-35,12,-19,-50,-96,-91,-99
-43,-61,-18,53,-12,-40,18,0,-54,-102,-101,-113
-37,-50,-12,44,-12,-31,18,13,-28,-69,-76,-90
-34,-51,-17,43,-9,-34,17,25,-37,-76,-82,-98
-24,-37,-14,31,-5,-25,12,30,-23,-58,-65,-84
-16,-32,-16,25,0,-24,11,36,-21,-58,-63,-83
-7,-19,-12,13,2,-15,7,39,-16,-49,-51,-75
-4,-11,-7,7,2,-9,4,51,-6,-42,-43,-70
3,-1,-5,0,4,-3,9,54,0,-38,-36,-59
6,6,0,-6,3,3,18,62,16,-22,-26,-37
15,18,3,-17,6,10,11,73,29,-4,-19,-28
27,35,7,-31,9,21,4,79,39,19,-3,-17
44,52,8,-48,17,30,-2,84,60,36,23,2
44,71,27,-57,8,49,-10,98,90,55,51,32
46,90,44,-68,1,66,-14,114,119,83,72,55
77,121,44,-99,16,82,-27,127,149,113,99,82
110,161,51,-136,30,106,-42,139,183,150,142,121
150,202,52,-176,49,127,-61,150,231,198,193,164
177,243,66,-210,55,154,-78,165,270,242,232,205
200,285,85,-243,57,185,-101,164,307,283,279,252
237,324,87,-281,75,206,-126,159,346,320,321,297
267,358,91,-313,88,224,-134,157,351,337,342,325
268,363,95,-316,86,229,-131,152,336,341,344,323
261,353,92,-308,84,223,-120,150,327,335,335,309
247,332,84,-290,81,208,-107,141,312,302,320,292
201,278,77,-240,62,178,-94,129,269,249,263,238
141,213,72,-177,35,142,-72,119,207,184,187,170
86,144,58,-115,14,100,-41,103,137,118,119,96
53,91,38,-72,7,64,-21,71,75,67,54,29
24,53,29,-39,-3,41,-16,42,35,24,6,-13
1,22,21,-12,-10,21,-7,24,-2,-8,-34,-46
-11,4,15,3,-13,9,2,17,-25,-27,-52,-62
-25,-13,12,19,-18,-1,3,13,-30,-46,-57,-68
-32,-24,8,28,-20,-8,0,9,-37,-59,-69,-78
-30,-25,5,27,-17,-10,0,4,-42,-60,-74,-85
-25,-25,0,25,-12,-12,-3,0,-41,-60,-77,-85
-27,-25,2,26,-14,-11,-6,6,-37,-60,-80,-89
-43,-37,6,40,-24,-16,-4,11,-35,-60,-82,-90
-45,-40,4,42,-24,-17,-1,16,-32,-60,-86,-92
-29,-34,-5,32,-12,-19,5,22,-29,-56,-82,-96
-26,-33,-7,30,-10,-20,9,28,-34,-55,-80,-95
-27,-26,1,27,-14,-12,14,28,-35,-54,-80,-95
-28,-27,1,27,-14,-12,19,24,-36,-51,-77,-95
-28,-15,13,21,-20,-1,18,25,-34,-49,-74,-95
-45,-19,26,32,-36,4,15,21,-37,-52,-76,-100
-64,-42,23,53,-44,-9,15,20,-48,-63,-90,-105
-58,-40,18,49,-38,-11,12,20,-51,-66,-97,-108
-54,-40,14,46,-34,-13,9,15,-54,-69,-94,-113
-50,-40,10,45,-30,-15,11,10,-57,-72,-96,-115
-28,-40,-11,34,-9,-25,14,6,-64,-79,-105,-115
-17,-41,-24,29,4,-32,17,1,-72,-86,-111,-115
-28,-44,-16,36,-6,-30,19,-3,-74,-84,-109,-115
-28,-45,-17,37,-5,-31,23,-8,-73,-88,-111,-115
-35,-46,-11,40,-11,-28,25,-16,-68,-90,-114,-115
-40,-51,-11,46,-15,-31,23,-26,-74,-90,-116,-115
-42,-49,-7,45,-18,-28,18,-33,-88,-94,-114,-115
-61,-54,7,58,-34,-23,15,-31,-91,-97,-119,-117
-35,-53,-18,44,-8,-35,12,-29,-89,-102,-132,-128
-23,-56,-32,40,5,-44,7,-30,-90,-105,-136,-135
-50,-71,-21,61,-14,-46,5,-30,-90,-105,-134,-134
-54,-70,-17,62,-19,-43,12,-30,-90,-105,-135,-136
-59,-68,-9,64,-25,-39,21,-32,-90,-105,-134,-140
-64,-65,-1,65,-31,-33,23,-36,-90,-105,-136,-140
-58,-65,-7,61,-25,-35,18,-35,-90,-102,-139,-140
-47,-63,-16,56,-16,-39,15,-35,-90,-99,-140,-140
-52,-59,-7,56,-23,-33,12,-36,-89,-100,-140,-140
-56,-57,-1,57,-27,-28,7,-33,-95,-100,-139,-140
-59,-54,5,56,-32,-24,5,-37,-103,-100,-146,-140
-64,-51,14,57,-39,-18,10,-39,-99,-99,-149,-140
-60,-50,10,55,-35,-19,17,-32,-93,-92,-140,-134
-43,-43,0,43,-22,-21,21,-27,-90,-86,-135,-128
-44,-36,8,40,-26,-14,29,-21,-85,-79,-127,-121
-54,-23,31,38,-43,4,32,-16,-80,-74,-123,-115
-32,9,41,12,-37,24,31,-9,-79,-61,-111,-105
-19,43,62,-12,-40,52,42,5,-80,-48,-98,-92
-14,61,76,-24,-45,68,37,12,-79,-50,-98,-77
-15,48,63,-17,-39,55,27,1,-80,-57,-104,-69
-1,40,41,-20,-21,40,19,-15,-80,-58,-103,-79
2,-1,-3,-1,3,-3,15,-24,-80,-66,-113,-104
-35,-53,-18,45,-8,-36,13,-38,-98,-88,-146,-130
-58,-67,-9,63,-24,-38,9,-47,-116,-102,-153,-142
-71,-82,-11,77,-30,-46,8,-64,-131,-113,-166,-156
-81,-83,-2,82,-39,-43,2,-76,-129,-105,-172,-157
-87,-89,-2,88,-42,-45,12,-69,-131,-116,-181,-165
-80,-81,-1,80,-39,-41,15,-67,-116,-105,-168,-154
-82,-104,-22,93,-29,-63,29,-59,-121,-124,-182,-166
-67,-88,-21,77,-23,-54,31,-60,-106,-108,-169,-154
-96,-115,-19,106,-39,-67,41,-42,-107,-120,-177,-167
-92,-105,-14,99,-38,-59,87,47,-60,-97,-175,-187
-75,3,78,36,-76,40,126,212,155,95,-37,-81
154,204,50,-179,52,127,-35,111,315,286,191,172
474,648,174,-561,149,411,-412,-444,452,699,710,709
115,484,368,-300,-127,426,-390,-899,-111,314,409,498
-256,-14,242,134,-249,114,-150,-892,-775,-469,-344,-182
-205,-77,128,141,-167,25,-83,-539,-499,-347,-299,-219
-132,-68,65,100,-98,-1,-2,-200,-215,-180,-224,-193
-72,-40,31,56,-51,-5,20,-73,-113,-109,-174,-173
-73,-39,34,56,-53,-2,27,-31,-72,-61,-138,-141
-62,-36,26,49,-44,-5,41,-10,-68,-67,-155,-147
-55,-25,31,40,-43,3,39,4,-29,-39,-120,-124
-48,-26,22,37,-35,-2,41,14,-38,-46,-128,-129
-41,-14,26,27,-33,6,34,18,-19,-28,-105,-108
-42,-14,28,27,-35,7,36,23,-20,-28,-103,-105
-41,-4,36,22,-38,16,33,26,-10,-19,-89,-91
-41,-1,40,21,-41,19,26,30,-2,-10,-80,-79
-32,12,43,10,-38,27,19,30,5,2,-72,-69
-16,30,46,-7,-32,38,12,29,23,17,-63,-52
-9,42,51,-16,-30,46,4,41,39,36,-49,-33
8,53,45,-31,-19,49,-2,54,53,51,-27,-18
24,64,41,-44,-9,53,-10,59,70,74,-7,-8
30,91,61,-61,-16,76,-19,56,87,93,12,13
59,131,72,-95,-7,102,-27,75,115,118,35,40
66,150,83,-108,-9,116,-36,96,148,156,77,69
83,177,94,-130,-5,135,-49,99,186,194,118,106
127,226,98,-177,14,162,-66,112,230,239,163,154
163,269,106,-216,28,188,-87,116,276,286,212,204
197,308,111,-253,43,209,-106,114,314,330,255,246
229,349,120,-289,54,234,-118,116,340,364,293,284
244,377,133,-311,55,255,-131,114,362,385,323,314
241,378,137,-310,52,258,-131,116,354,381,335,330
238,367,129,-302,54,248,-127,111,337,369,319,320
221,344,123,-283,49,233,-118,95,317,344,291,284
175,290,115,-233,30,202,-86,79,263,291,233,229
119,226,107,-172,5,166,-54,63,186,218,152,150
65,166,101,-115,-18,133,-26,46,117,151,79,71
9,102,93,-56,-42,97,-1,34,64,95,19,13
-25,60,85,-17,-56,72,10,11,19,48,-30,-34
-35,42,77,-4,-56,59,10,-11,-13,17,-62,-57
-36,34,69,1,-53,51,11,-19,-25,-1,-81,-71
-36,26,62,5,-50,44,16,-25,-37,-8,-93,-84
-43,17,60,13,-52,38,14,-33,-47,-12,-100,-88
-45,15,60,15,-53,37,18,-38,-46,-17,-100,-94
-45,15,60,15,-53,37,20,-36,-45,-21,-100,-95
-48,12,60,18,-54,36,20,-31,-45,-26,-100,-97
-51,9,60,21,-56,35,20,-29,-45,-29,-100,-101
-54,11,65,21,-59,37,20,-25,-45,-30,-102,-98
-51,14,65,18,-58,40,20,-20,-47,-34,-106,-95
-51,15,66,18,-59,41,20,-22,-51,-35,-105,-95
-55,15,70,20,-63,42,20,-25,-53,-38,-105,-95
-56,14,70,21,-63,42,20,-25,-56,-40,-105,-95
-52,16,68,18,-61,42,20,-25,-59,-41,-105,-95
-51,12,63,19,-57,37,21,-25,-61,-46,-110,-98
-50,11,60,20,-55,35,17,-29,-64,-45,-109,-103
-49,8,57,20,-53,32,15,-34,-68,-53,-113,-106
-47,6,52,20,-50,29,15,-37,-74,-55,-115,-112
-46,4,49,21,-48,26,11,-45,-81,-56,-116,-119
-62,-17,45,39,-54,14,10,-49,-88,-72,-132,-124
-65,-20,45,42,-55,12,10,-52,-92,-77,-136,-125
-58,-14,45,35,-51,16,5,-63,-99,-80,-134,-125
-58,-13,45,35,-52,16,1,-70,-100,-85,-140,-125
-51,-6,45,28,-47,19,-1,-70,-99,-84,-139,-124
-53,-6,47,29,-50,21,-5,-70,-100,-85,-142,-127
-67,-9,57,38,-62,24,-10,-70,-100,-85,-145,-130
-66,-10,56,38,-61,22,-8,-70,-100,-86,-145,-130
-61,-10,52,35,-56,21,-4,-72,-100,-103,-145,-133
-58,-10,48,34,-53,19,-2,-77,-100,-112,-145,-136
-55,-10,45,32,-50,17,1,-82,-100,-107,-145,-139
-48,-8,40,28,-43,15,4,-84,-100,-105,-141,-140
-45,-3,42,24,-43,19,6,-81,-105,-102,-139,-140
-63,0,63,31,-63,31,9,-78,-105,-99,-140,-140
-62,3,66,29,-64,34,11,-76,-102,-105,-140,-140
-57,8,65,24,-61,36,9,-72,-99,-109,-140,-140
-56,10,66,23,-61,37,13,-70,-96,-101,-139,-140
-35,27,62,4,-49,44,22,-66,-95,-94,-133,-136
-32,46,78,-8,-55,62,33,-51,-87,-87,-126,-124
-20,82,102,-31,-61,92,37,-38,-80,-85,-128,-117
10,119,109,-64,-50,113,25,-39,-80,-85,-130,-120
18,127,109,-72,-46,117,14,-43,-80,-85,-130,-123
10,112,102,-61,-46,106,3,-52,-79,-85,-135,-127
-5,55,60,-25,-33,58,-12,-68,-87,-87,-134,-129
-32,15,46,8,-39,30,-16,-81,-113,-113,-137,-137
-56,0,56,28,-56,27,-12,-93,-130,-128,-153,-154
-65,-21,43,43,-54,11,-7,-105,-147,-142,-163,-167
-71,-28,43,49,-57,7,-7,-107,-145,-142,-160,-162
-79,-45,34,62,-56,-6,3,-103,-159,-151,-185,-168
-73,-43,30,58,-52,-6,-6,-107,-158,-141,-176,-163
-78,-53,25,66,-52,-14,-3,-96,-149,-145,-181,-172
-55,-39,16,47,-35,-11,-6,-105,-146,-143,-182,-170
-67,-51,16,59,-41,-17,-6,-89,-125,-130,-172,-170
-66,-52,15,59,-40,-18,47,-15,-122,-155,-189,-192
-63,37,100,13,-82,68,101,139,57,12,-63,-117
63,170,107,-117,-22,138,7,125,239,188,111,65
458,618,160,-538,149,389,-391,-397,409,603,628,604
268,617,349,-443,-41,483,-495,-924,25,446,564,609
-195,88,283,53,-239,185,-240,-997,-761,-439,-247,-99
-186,-34,153,110,-169,59,-127,-670,-636,-462,-334,-248
-127,-24,103,75,-115,40,-36,-275,-264,-221,-210,-187
-85,-24,61,54,-73,18,8,-115,-153,-166,-180,-178
-67,-6,62,36,-64,28,19,-69,-80,-102,-127,-128
-55,-5,50,30,-53,22,37,-49,-83,-116,-144,-144
-41,-4,37,22,-39,16,34,-35,-57,-81,-113,-121
-65,-17,48,41,-56,15,37,-22,-60,-87,-122,-125
-65,7,72,29,-69,40,33,-15,-45,-71,-101,-112
-57,13,70,22,-64,41,33,-5,-38,-68,-96,-109
-44,26,69,9,-57,47,29,2,-29,-61,-85,-101
-38,33,71,3,-55,51,30,10,-13,-52,-71,-90
-31,39,70,-4,-50,54,25,17,-4,-42,-62,-85
-20,47,67,-14,-44,56,19,28,9,-25,-47,-71
-16,49,65,-17,-41,56,16,37,21,-14,-36,-55
-1,63,64,-31,-33,64,11,44,34,3,-18,-39
19,87,69,-53,-25,78,7,51,55,15,2,-17
20,111,91,-66,-36,101,1,58,81,47,27,10
38,129,91,-84,-27,110,-14,78,112,72,58,29
70,164,94,-117,-12,128,-24,103,152,105,91,65
86,199,113,-143,-13,155,-46,107,196,153,132,110
119,232,113,-176,3,172,-70,120,239,195,182,154
154,274,120,-215,17,196,-74,136,281,249,235,204
179,320,141,-250,19,230,-86,135,324,291,283,254
206,357,151,-282,27,254,-99,131,351,329,322,293
226,378,152,-302,37,265,-111,128,370,351,353,325
237,395,158,-317,39,277,-112,123,373,350,362,337
219,384,166,-302,26,275,-108,121,359,340,350,325
201,355,154,-278,23,254,-103,113,324,304,312,295
174,314,139,-244,18,226,-81,96,260,249,252,235
109,241,131,-175,-11,186,-50,79,187,179,182,158
58,171,113,-115,-28,142,-11,53,117,107,111,82
29,116,87,-73,-30,101,3,27,54,53,50,17
-2,70,72,-34,-37,71,4,11,6,9,7,-25
-22,39,61,-8,-42,49,11,-4,-24,-29,-31,-53
-29,22,50,3,-40,36,13,-17,-49,-47,-58,-69
-40,11,50,15,-45,30,32,-21,-56,-52,-61,-69
-49,1,50,24,-49,25,42,-20,-54,-60,-65,-73
-45,0,45,22,-45,22,39,-20,-55,-64,-64,-86
-45,0,45,22,-45,22,44,-20,-56,-67,-69,-93
-43,0,44,21,-44,22,45,-20,-70,-71,-85,-93
-41,-1,40,21,-40,19,45,-15,-70,-74,-85,-90
-41,-5,35,23,-38,15,40,-10,-65,-78,-85,-90
-38,-5,33,21,-35,14,40,-6,-64,-80,-85,-90
-33,-5,28,19,-30,11,39,-2,-59,-80,-85,-90
-30,-5,25,17,-27,10,34,4,-62,-80,-85,-91
-42,-5,37,23,-39,16,36,3,-65,-80,-85,-95
-46,-9,38,27,-42,14,32,-4,-65,-80,-85,-95
-38,-10,28,24,-33,9,30,-8,-65,-80,-85,-96
-34,-10,23,22,-28,6,30,-14,-65,-82,-85,-101
-30,-15,15,22,-22,0,30,-20,-64,-86,-85,-99
-26,-15,11,20,-18,-2,30,-25,-72,-89,-90,-102
-32,-16,16,24,-24,0,30,-29,-85,-92,-90,-106
-49,-32,17,40,-33,-8,34,-32,-87,-96,-91,-105
-57,-45,13,51,-35,-16,35,-35,-92,-99,-96,-105
-56,-45,11,50,-33,-17,35,-38,-95,-102,-94,-105
-52,-45,7,48,-29,-19,35,-40,-94,-105,-99,-105
-51,-45,5,47,-27,-20,35,-40,-101,-107,-110,-109
-47,-44,3,45,-24,-21,33,-40,-106,-110,-110,-110
-43,-47,-4,45,-19,-25,29,-40,-104,-110,-110,-110
-44,-53,-9,49,-17,-31,30,-40,-105,-110,-110,-110
-42,-56,-14,49,-14,-35,30,-40,-105,-115,-110,-109
-38,-59,-21,49,-9,-40,30,-39,-104,-115,-110,-112
-38,-62,-24,50,-7,-43,30,-35,-112,-115,-110,-115
-44,-65,-21,55,-11,-42,25,-35,-118,-115,-110,-115
-45,-65,-20,55,-12,-42,26,-35,-114,-117,-110,-115
-46,-65,-19,55,-13,-41,23,-36,-111,-120,-110,-115
-51,-65,-15,58,-18,-40,20,-34,-108,-120,-109,-115
-50,-65,-15,58,-17,-40,20,-40,-104,-123,-113,-115
-50,-65,-15,58,-17,-40,19,-48,-106,-126,-115,-115
-50,-65,-15,58,-17,-40,35,-44,-110,-124,-115,-115
-46,-62,-15,54,-15,-38,42,-45,-110,-121,-115,-115
-44,-58,-14,51,-15,-36,39,-41,-110,-118,-115,-115
-39,-55,-16,48,-11,-36,41,-39,-110,-116,-115,-112
-38,-51,-14,45,-12,-32,40,-41,-111,-112,-109,-106
-40,-49,-9,45,-15,-29,40,-30,-103,-111,-103,-101
-37,-34,3,35,-19,-15,46,-17,-85,-107,-96,-94
-19,-11,8,15,-13,-2,58,-7,-71,-94,-85,-92
1,23,22,-12,-11,22,73,2,-61,-82,-54,-65
7,54,46,-31,-20,50,80,19,-59,-75,-24,-37
14,51,37,-33,-12,44,70,28,-61,-74,-31,-48
21,45,24,-33,-2,34,54,7,-58,-69,-44,-57
23,14,-10,-18,16,2,37,-11,-65,-79,-61,-69
-9,-46,-36,28,14,-41,26,-19,-88,-113,-90,-99
-36,-74,-38,55,1,-56,24,-42,-106,-126,-108,-115
-28,-91,-63,60,18,-77,27,-55,-124,-139,-126,-133
-33,-98,-66,66,17,-82,23,-56,-124,-138,-122,-127
-37,-110,-73,74,19,-91,27,-55,-130,-141,-132,-131
-25,-101,-76,63,26,-88,24,-63,-128,-141,-133,-131
-35,-108,-73,72,20,-90,33,-58,-110,-135,-133,-126
-26,-105,-79,66,27,-92,41,-55,-113,-149,-141,-140
-32,-101,-69,67,19,-85,34,-31,-83,-126,-123,-121
-40,-125,-84,83,23,-105,74,29,-89,-146,-153,-163
-40,-36,4,38,-22,-16,118,170,67,-14,-42,-103
80,86,6,-83,37,46,69,201,239,138,104,56
481,479,-2,-480,241,238,-315,-313,363,483,545,529
400,599,199,-500,101,399,-532,-859,140,506,676,715
-91,96,187,-3,-139,142,-269,-946,-622,-321,-94,44
-190,-102,89,146,-139,-6,-107,-667,-649,-493,-326,-225
-128,-77,51,102,-90,-12,-25,-245,-244,-224,-162,-150
-62,-69,-7,65,-27,-38,26,-65,-138,-180,-147,-158
-27,-38,-11,33,-7,-25,36,-17,-61,-104,-83,-101
-31,-60,-29,46,-1,-45,63,16,-55,-110,-94,-116
-16,-52,-36,34,10,-44,61,22,-33,-82,-72,-94
-13,-49,-36,31,12,-42,59,48,-32,-83,-74,-93
-7,-40,-34,24,14,-37,52,56,-25,-75,-64,-84
-5,-34,-30,19,13,-32,47,55,-15,-65,-57,-76
-1,-29,-28,15,14,-29,41,56,-14,-63,-54,-73
-2,-22,-20,12,9,-21,52,54,-2,-53,-41,-62
0,-17,-17,9,9,-17,53,58,8,-48,-34,-60
6,-4,-10,-1,8,-7,43,66,21,-32,-17,-46
13,7,-6,-10,9,1,39,82,30,-21,-1,-34
19,20,1,-19,9,10,30,96,56,-5,16,-20
35,33,-3,-34,19,15,26,101,74,21,32,-3
61,54,-7,-58,34,23,18,120,96,47,56,12
71,83,11,-77,30,47,11,137,123,65,82,34
80,105,25,-92,27,64,1,144,152,98,111,67
99,140,41,-120,29,91,-5,163,197,141,154,106
131,183,51,-157,40,117,-17,182,241,187,195,150
166,216,50,-191,57,133,-38,193,283,228,239,197
199,268,69,-234,64,169,-52,208,327,275,292,246
232,307,75,-270,78,191,-72,209,362,312,332,286
251,328,77,-290,87,202,-81,202,382,341,368,321
253,347,93,-300,80,220,-89,199,383,353,384,338
254,342,88,-299,83,215,-87,193,374,338,376,334
236,317,80,-277,78,199,-71,190,349,315,354,315
193,266,73,-230,59,169,-54,173,297,264,305,263
152,217,66,-185,43,141,-30,144,232,197,235,193
102,161,59,-131,21,110,-2,122,164,125,162,122
46,90,44,-68,0,67,28,102,104,66,96,54
14,41,27,-28,-7,34,29,86,55,21,43,9
-5,8,13,-2,-9,10,34,70,21,-20,14,-25
-5,-10,-5,8,0,-7,47,53,-1,-42,2,-52
-6,-24,-17,15,6,-20,44,45,-9,-51,-7,-55
-20,-34,-14,27,-3,-24,45,45,-14,-57,-18,-55
-26,-37,-10,32,-8,-23,45,44,-19,-64,-25,-60
-36,-40,-3,39,-17,-21,45,40,-25,-65,-28,-68
-20,-40,-21,31,0,-30,47,40,-29,-65,-33,-68
3,-40,-43,18,23,-41,50,42,-26,-65,-35,-64
-5,-40,-36,23,15,-38,50,45,-24,-65,-35,-65
-9,-40,-31,24,11,-35,50,48,-20,-66,-35,-65
-9,-37,-28,23,10,-33,55,51,-18,-62,-35,-65
-13,-34,-21,24,5,-27,55,54,-14,-60,-35,-65
-9,-31,-22,20,7,-26,56,59,-17,-60,-30,-65
-5,-29,-24,17,10,-26,60,58,-37,-57,-30,-65
3,-24,-27,11,16,-26,60,54,-41,-54,-30,-65
10,-29,-39,9,25,-34,58,52,-40,-56,-31,-65
-8,-48,-40,28,17,-44,54,49,-45,-59,-29,-65
-22,-57,-35,40,6,-46,55,46,-45,-63,-34,-67
-27,-62,-35,45,4,-48,51,44,-46,-70,-45,-71
-37,-65,-28,51,-4,-47,50,41,-55,-73,-45,-70
-36,-70,-34,53,-1,-52,50,38,-64,-77,-49,-70
-30,-75,-45,53,8,-60,45,36,-71,-89,-50,-75
-33,-78,-45,56,6,-61,42,32,-75,-91,-52,-79
-38,-83,-45,61,3,-64,38,30,-75,-89,-56,-84
-40,-85,-45,63,3,-65,35,32,-75,-86,-55,-85
-40,-85,-45,63,3,-65,29,38,-75,-84,-59,-85
-42,-85,-43,64,1,-63,34,40,-75,-87,-61,-85
-46,-86,-40,66,-3,-62,45,40,-75,-90,-59,-85
-52,-89,-37,71,-8,-62,48,44,-74,-90,-56,-85
-58,-92,-34,75,-12,-63,52,45,-77,-90,-54,-85
-64,-95,-31,79,-16,-62,51,45,-84,-90,-55,-92
-68,-97,-30,83,-19,-63,50,39,-86,-90,-55,-96
-59,-101,-42,80,-8,-71,49,44,-84,-90,-55,-95
-51,-97,-46,75,-2,-72,45,55,-86,-90,-57,-99
-54,-95,-41,74,-6,-67,45,58,-84,-89,-65,-100
-56,-95,-39,75,-8,-67,47,63,-87,-92,-69,-99
-59,-95,-36,77,-11,-65,50,65,-98,-95,-65,-95
-62,-95,-33,79,-14,-64,50,75,-101,-95,-65,-95
-51,-95,-44,73,-3,-69,50,81,-99,-100,-63,-94
-44,-95,-51,70,4,-72,50,79,-100,-100,-60,-90
-51,-95,-44,73,-3,-69,50,81,-100,-100,-60,-90
-53,-95,-43,74,-5,-68,50,79,-99,-97,-61,-92
-58,-94,-37,76,-10,-65,50,81,-94,-94,-59,-97
-61,-96,-35,79,-13,-65,50,84,-88,-95,-61,-100
-45,-91,-45,68,0,-68,50,84,-85,-89,-71,-95
-32,-77,-45,55,7,-61,49,91,-79,-82,-66,-87
-27,-63,-36,45,5,-49,54,107,-76,-76,-61,-81
-21,-45,-24,33,2,-34,69,121,-67,-69,-47,-74
-7,-16,-9,12,1,-12,82,141,-48,-64,-36,-69
19,24,5,-22,7,15,83,163,-44,-66,-41,-71
18,39,21,-29,-2,30,72,156,-45,-64,-40,-69
6,24,18,-15,-6,21,63,137,-45,-67,-47,-72
15,-15,-30,0,23,-23,55,122,-49,-62,-42,-67
8,-67,-75,30,42,-70,52,109,-77,-79,-55,-80
-20,-95,-75,58,27,-85,45,94,-101,-99,-75,-99
-46,-121,-75,84,15,-97,40,90,-106,-104,-80,-99
-43,-118,-75,81,16,-96,35,89,-122,-116,-94,-111
-57,-125,-68,91,5,-96,34,88,-123,-118,-101,-119
-73,-141,-68,108,-3,-104,37,85,-129,-125,-109,-123
-76,-137,-60,107,-8,-98,31,84,-119,-116,-104,-114
-85,-146,-61,116,-12,-103,42,85,-131,-136,-123,-129
-77,-130,-53,104,-12,-91,25,68,-119,-112,-109,-109
-92,-160,-68,126,-12,-114,56,110,-115,-117,-126,-135
-38,-102,-64,70,13,-83,112,240,-13,-32,-62,-101
52,1,-52,-26,52,-25,117,361,181,123,53,17
376,307,-69,-342,222,119,-164,12,303,371,377,366
513,619,106,-566,203,362,-500,-609,265,617,740,783
26,236,210,-131,-92,222,-326,-834,-422,-39,151,288
-220,-123,97,171,-158,-13,-111,-654,-757,-511,-333,-206
-147,-109,38,128,-92,-35,-42,-238,-341,-241,-181,-137
-97,-108,-11,102,-43,-59,28,30,-161,-145,-146,-142
-62,-90,-27,76,-17,-58,44,98,-85,-71,-79,-85
-67,-90,-23,79,-22,-56,65,136,-56,-57,-71,-77
-45,-80,-35,62,-5,-57,52,140,-48,-53,-64,-74
-40,-74,-34,57,-3,-54,51,152,-27,-41,-49,-60
-31,-67,-36,50,3,-51,47,149,-29,-44,-51,-62
-23,-58,-34,41,6,-46,40,150,-15,-29,-35,-47
-19,-54,-35,37,8,-45,41,149,-16,-33,-36,-49
-6,-41,-35,24,15,-38,39,162,-6,-18,-23,-34
2,-29,-31,14,17,-30,41,178,-2,-11,-21,-30
11,-14,-25,2,18,-19,39,173,11,1,-12,-20
13,-7,-20,-3,17,-13,40,178,23,12,7,-14
17,2,-14,-9,15,-5,40,186,40,33,25,-1
14,5,-8,-9,11,-2,33,184,53,50,37,15
30,26,-4,-27,17,11,23,204,67,62,58,24
59,61,2,-61,28,32,15,222,101,87,80,48
68,76,8,-72,30,42,6,228,134,119,112,80
101,115,13,-108,44,64,-4,253,171,159,156,118
144,163,19,-153,62,91,-18,269,212,196,192,158
170,199,29,-184,70,114,-32,286,253,241,238,202
192,240,48,-216,72,144,-50,296,300,289,291,256
223,275,52,-249,85,163,-65,294,333,325,330,298
252,309,58,-281,97,183,-78,299,357,359,365,334
264,340,76,-302,94,207,-100,298,379,370,389,359
266,336,70,-301,98,203,-105,287,373,370,379,351
255,317,62,-286,96,189,-90,278,350,367,362,337
242,298,56,-270,93,177,-74,267,310,319,341,309
185,231,47,-208,69,139,-53,247,249,258,279,245
119,161,42,-140,38,101,-21,228,188,194,201,170
74,102,28,-88,23,65,17,205,117,123,137,98
26,38,12,-32,7,24,39,178,63,71,79,44
10,6,-4,-8,7,1,40,162,29,33,34,3
9,-12,-20,2,15,-16,40,153,-2,12,12,-27
8,-27,-36,10,22,-31,40,142,-12,2,3,-35
-3,-39,-36,22,17,-38,40,136,-16,-2,-8,-37
-15,-46,-31,31,8,-38,52,131,-21,-8,-17,-40
-15,-44,-29,30,8,-36,56,126,-25,-14,-28,-43
-22,-46,-24,34,2,-35,54,120,-30,-19,-37,-45
-24,-45,-21,34,-1,-32,52,116,-30,-24,-36,-45
-26,-45,-19,36,-3,-31,49,119,-30,-25,-35,-50
-26,-49,-22,38,-2,-35,51,123,-30,-25,-34,-50
-16,-50,-35,34,9,-42,48,128,-30,-25,-30,-51
-15,-50,-35,33,10,-42,55,130,-30,-25,-30,-56
-20,-50,-30,35,5,-40,66,130,-31,-25,-33,-54
-21,-51,-29,36,4,-40,65,130,-35,-26,-35,-58
-25,-49,-24,38,-1,-36,64,124,-35,-24,-36,-60
-21,-48,-27,35,3,-37,60,117,-35,-26,-40,-60
-2,-42,-40,22,19,-40,60,111,-34,-23,-41,-64
-15,-55,-40,35,13,-47,60,104,-42,-27,-44,-65
-36,-76,-40,56,2,-58,60,98,-53,-45,-48,-65
-35,-75,-40,55,3,-57,60,92,-59,-50,-51,-65
-34,-73,-40,54,3,-56,60,88,-70,-53,-54,-65
-30,-70,-39,50,5,-55,60,82,-76,-56,-57,-66
-38,-70,-32,54,-3,-51,59,79,-79,-55,-64,-73
-41,-70,-28,56,-6,-49,56,73,-84,-55,-70,-79
-51,-70,-19,61,-16,-45,55,72,-85,-55,-75,-84
-41,-69,-28,55,-7,-48,55,85,-85,-55,-75,-85
-18,-72,-54,46,18,-63,55,85,-85,-56,-76,-85
-37,-89,-52,63,8,-71,56,80,-86,-59,-80,-90
-46,-91,-45,69,0,-68,52,79,-90,-60,-79,-90
-45,-89,-44,68,-1,-66,50,75,-90,-60,-82,-91
-55,-91,-36,73,-9,-63,50,74,-90,-60,-86,-95
-52,-89,-37,71,-8,-62,47,70,-94,-63,-85,-94
-42,-92,-50,67,4,-70,44,67,-100,-66,-85,-98
-46,-96,-50,71,2,-73,46,63,-100,-65,-84,-100
-55,-101,-45,79,-5,-73,49,60,-100,-64,-86,-100
-60,-104,-44,83,-8,-74,50,56,-100,-60,-89,-96
-66,-105,-39,85,-13,-72,51,55,-100,-59,-92,-95
-65,-105,-40,85,-12,-72,55,55,-101,-66,-95,-95
-73,-105,-32,89,-20,-68,55,51,-96,-71,-97,-90
-70,-105,-35,87,-17,-70,52,49,-95,-69,-101,-90
-50,-105,-55,78,3,-80,50,52,-94,-70,-98,-89
-53,-104,-51,78,0,-77,49,54,-96,-70,-92,-84
-49,-96,-47,73,-1,-71,51,56,-94,-71,-87,-80
-44,-86,-42,65,0,-64,49,59,-97,-66,-84,-78
-43,-80,-37,62,-2,-59,53,61,-107,-52,-79,-73
-27,-59,-33,43,4,-46,71,66,-83,-38,-75,-71
-31,-23,8,27,-19,-7,80,85,-67,-30,-70,-62
-6,25,31,-10,-19,27,81,100,-71,-27,-65,-44
28,44,16,-36,6,30,70,85,-71,-25,-62,-45
19,25,6,-22,6,15,57,69,-75,-19,-54,-44
15,9,-6,-12,11,1,48,57,-76,-26,-65,-53
-2,-35,-33,18,16,-33,44,47,-84,-57,-91,-81
-34,-82,-48,59,7,-65,46,37,-113,-75,-107,-102
-62,-106,-43,84,-9,-74,40,17,-127,-83,-129,-112
-74,-120,-46,98,-14,-83,41,11,-129,-104,-153,-117
-70,-110,-40,90,-15,-74,39,7,-122,-96,-140,-117
-81,-120,-40,100,-20,-79,46,7,-127,-108,-150,-130
-68,-110,-42,89,-12,-76,39,1,-125,-102,-141,-122
-63,-119,-56,91,-3,-87,41,1,-123,-98,-140,-126
-54,-118,-65,86,6,-92,41,1,-130,-104,-144,-128
-68,-120,-53,94,-7,-86,39,8,-106,-82,-132,-117
-69,-140,-71,104,2,-105,95,76,-102,-102,-170,-141
-37,-43,-6,40,-15,-25,152,247,77,50,-48,-65
101,85,-16,-93,59,34,71,254,242,207,108,91
479,510,31,-494,224,270,-314,-252,388,583,588,598
325,589,264,-457,30,426,-440,-779,96,522,630,692
-174,59,233,57,-203,146,-177,-864,-676,-335,-174,-2
-216,-106,110,161,-163,2,-62,-575,-624,-432,-325,-196
-125,-66,59,96,-91,-4,28,-177,-249,-172,-175,-119
-50,-55,-5,53,-22,-30,70,-1,-134,-120,-155,-126
-23,-44,-21,34,-1,-32,64,39,-54,-50,-102,-82
-29,-53,-23,41,-3,-38,72,62,-58,-64,-117,-92
-27,-39,-13,33,-6,-26,62,72,-30,-35,-81,-71
-33,-44,-11,39,-11,-28,78,82,-36,-36,-83,-71
-35,-37,-2,36,-16,-19,70,85,-25,-23,-67,-60
-33,-34,-1,34,-16,-18,64,85,-21,-18,-61,-53
-9,-25,-15,17,3,-20,58,86,-17,-14,-54,-47
-6,-17,-11,12,2,-13,50,98,-3,-6,-44,-38
-10,-10,0,10,-4,-5,47,101,4,-3,-40,-32
-18,-1,16,9,-17,7,50,99,23,15,-26,-16
-16,6,22,5,-19,13,47,102,33,25,-18,-4
-2,14,16,-7,-9,15,38,106,50,41,3,10
18,32,14,-25,1,23,33,119,74,58,22,24
44,53,9,-49,18,31,25,134,100,84,45,47
64,81,17,-72,23,48,20,146,118,114,75,75
79,107,28,-93,26,67,15,149,145,141,99,103
95,136,41,-116,27,88,4,164,187,177,136,139
129,177,48,-153,40,112,-19,193,229,222,185,190
169,221,52,-195,59,136,-36,196,275,271,238,237
199,266,67,-233,66,166,-50,199,310,318,286,287
229,302,73,-266,78,187,-65,200,341,354,324,329
253,337,84,-295,84,210,-81,192,369,373,361,355
269,352,84,-311,92,218,-99,188,366,390,373,370
263,341,78,-302,92,210,-96,180,356,384,365,361
258,335,76,-297,91,205,-86,177,337,352,347,344
222,293,71,-258,76,182,-70,164,283,302,293,298
138,208,69,-173,34,138,-41,142,214,233,212,220
87,147,60,-117,13,103,-14,123,149,172,143,150
44,95,51,-70,-4,73,23,99,83,113,80,89
11,48,37,-30,-13,42,44,77,31,57,30,40
-10,13,22,-2,-16,17,45,64,2,20,-4,1
-21,-18,2,19,-11,-8,50,56,-21,-1,-28,-19
-28,-30,-1,29,-13,-15,48,51,-43,-9,-41,-25
-50,-31,20,40,-35,-5,45,46,-50,-16,-50,-35
-44,-29,16,36,-30,-6,42,43,-52,-22,-50,-43
-40,-35,6,37,-23,-15,40,37,-55,-29,-50,-45
-46,-43,4,44,-25,-19,37,35,-58,-35,-50,-45
-27,-40,-13,34,-7,-26,34,35,-61,-30,-50,-49
-8,-40,-32,24,12,-36,51,35,-57,-30,-50,-51
-22,-40,-18,31,-2,-29,55,35,-52,-29,-45,-50
-33,-40,-6,37,-14,-23,49,35,-49,-25,-45,-50
-18,-41,-23,30,2,-32,47,35,-46,-25,-45,-50
-17,-44,-27,31,6,-36,42,35,-41,-27,-46,-50
-21,-46,-24,34,2,-35,39,35,-41,-38,-44,-50
-19,-45,-26,32,4,-35,36,35,-46,-45,-49,-50
-21,-45,-24,34,2,-35,33,35,-49,-45,-63,-53
-19,-45,-26,32,4,-35,30,35,-53,-49,-65,-56
-23,-47,-24,36,1,-36,27,34,-58,-50,-68,-55
-27,-53,-26,40,-1,-39,24,30,-61,-53,-71,-56
-32,-56,-25,45,-3,-40,27,28,-70,-60,-74,-59
-35,-61,-25,49,-5,-42,33,25,-78,-60,-76,-63
-36,-64,-28,51,-4,-46,36,22,-82,-60,-75,-65
-44,-66,-22,55,-10,-44,40,19,-85,-62,-75,-70
-31,-64,-34,47,2,-48,40,17,-86,-73,-75,-68
-22,-64,-42,43,10,-53,40,14,-89,-80,-75,-64
-19,-58,-39,39,10,-49,40,11,-90,-80,-75,-65
-26,-67,-40,47,7,-53,40,8,-93,-80,-77,-61
-49,-89,-40,69,-5,-65,40,5,-96,-80,-81,-59
-46,-86,-40,66,-3,-62,38,4,-98,-80,-79,-61
-44,-79,-36,62,-4,-57,33,-1,-102,-82,-84,-65
-46,-78,-31,62,-7,-54,30,-4,-104,-86,-85,-73
-41,-70,-28,56,-6,-49,27,-7,-107,-85,-85,-77
-48,-73,-25,61,-12,-49,22,-12,-110,-85,-90,-80
-61,-80,-19,70,-21,-49,20,-15,-110,-85,-90,-83
-54,-80,-27,67,-14,-53,25,-15,-110,-85,-91,-86
-39,-80,-40,60,1,-60,25,-15,-110,-96,-95,-90
-37,-80,-44,59,4,-62,25,-15,-110,-101,-95,-90
-37,-80,-43,58,3,-61,22,-15,-106,-99,-92,-86
-41,-80,-39,60,-1,-60,20,-15,-104,-101,-89,-83
-39,-80,-40,60,0,-60,20,-14,-105,-99,-90,-80
-40,-80,-40,60,0,-60,21,-8,-105,-101,-86,-77
-40,-80,-40,60,0,-60,19,-2,-105,-97,-85,-75
-40,-80,-40,60,0,-59,22,2,-104,-91,-85,-73
-46,-81,-35,64,-6,-58,41,9,-96,-86,-78,-64
-28,-56,-28,42,0,-42,47,13,-86,-79,-70,-56
7,-16,-23,5,15,-19,48,21,-79,-76,-65,-48
26,9,-17,-17,21,-3,53,27,-66,-56,-54,-40
33,24,-8,-28,20,8,55,38,-51,-38,-32,-41
44,44,0,-44,22,22,51,53,-48,-42,-24,-39
29,39,10,-34,9,24,46,39,-54,-47,-25,-41
20,1,-19,-10,19,-9,43,16,-53,-50,-28,-38
15,-41,-56,14,36,-48,37,2,-68,-61,-51,-50
-14,-75,-61,45,24,-68,33,-10,-96,-88,-84,-78
-30,-89,-59,59,15,-74,27,-22,-102,-96,-90,-80
-47,-111,-64,80,8,-87,26,-32,-119,-108,-106,-100
-42,-108,-66,76,12,-86,17,-42,-122,-114,-106,-100
-49,-112,-63,81,7,-87,18,-42,-117,-114,-104,-99
-46,-109,-63,77,9,-86,13,-51,-120,-119,-108,-102
-57,-110,-53,84,-2,-81,13,-47,-108,-108,-99,-95
-54,-113,-59,84,3,-85,9,-40,-123,-125,-115,-108
-53,-95,-42,74,-5,-68,13,-40,-99,-102,-91,-87
-81,-136,-55,109,-12,-96,63,10,-100,-122,-128,-125
-36,-58,-21,47,-7,-39,95,159,33,-7,-45,-68
55,50,-5,-53,30,22,80,220,208,150,93,57
444,414,-30,-429,237,191,-278,-232,345,457,495,488
467,634,167,-551,150,400,-536,-804,204,575,726,778
-59,148,206,-45,-133,177,-285,-954,-558,-203,3,147
-195,-118,77,156,-136,-20,-111,-697,-689,-481,-315,-196
-112,-74,37,93,-74,-18,-37,-272,-271,-196,-146,-112
-46,-70,-24,58,-11,-47,9,-63,-140,-149,-130,-125
-3,-50,-48,27,23,-49,24,-9,-48,-70,-72,-67
-9,-60,-50,35,21,-55,41,19,-41,-66,-85,-78
-1,-47,-46,25,22,-46,34,30,-25,-42,-59,-61
-7,-48,-42,28,18,-45,56,47,-23,-32,-52,-58
-4,-43,-39,24,18,-41,49,49,-21,-28,-41,-52
-3,-37,-34,21,16,-35,42,54,-12,-16,-30,-43
0,-32,-32,16,16,-32,37,56,-6,-16,-29,-38
1,-23,-24,11,13,-23,28,60,16,-3,-16,-16
2,-19,-21,8,12,-19,25,63,20,-3,-16,-10
4,-10,-14,4,9,-12,19,68,34,11,0,2
5,-4,-8,0,7,-6,21,71,41,20,14,3
20,16,-4,-18,12,6,17,80,62,37,33,18
30,31,1,-30,14,16,14,89,82,52,47,37
42,46,4,-44,19,25,16,96,98,73,63,58
70,78,7,-74,31,42,8,114,131,104,89,85
89,101,12,-95,39,56,-10,126,164,130,119,107
110,125,15,-118,47,70,-24,140,201,171,158,146
146,165,18,-155,64,91,-43,148,240,211,204,190
185,214,29,-200,78,121,-62,165,285,258,251,238
217,264,47,-240,85,155,-79,177,331,307,302,291
256,306,50,-281,103,178,-96,169,360,338,346,329
280,333,53,-307,113,193,-107,169,382,365,375,366
274,342,68,-308,103,205,-119,163,387,374,395,376
264,335,71,-300,96,203,-115,161,373,368,394,369
258,327,68,-293,95,197,-105,153,359,356,370,362
232,294,61,-263,85,177,-93,138,318,313,325,316
173,226,54,-200,59,140,-73,125,250,250,261,247
116,164,48,-140,34,106,-46,108,186,180,186,171
65,103,37,-84,14,70,-14,83,120,120,113,101
31,52,21,-42,5,36,1,58,65,72,61,55
11,16,5,-14,3,10,9,44,33,30,24,18
-4,-5,-1,4,-1,-2,21,35,12,9,2,-7
-6,-10,-4,9,-1,-7,25,24,2,-7,-7,-17
-10,-18,-8,14,-1,-13,25,20,-4,-20,-11,-20
-12,-24,-12,18,0,-17,25,20,-11,-19,-15,-24
-17,-32,-15,25,0,-23,25,20,-18,-23,-20,-29
-16,-34,-18,25,2,-26,25,20,-24,-25,-25,-30
-7,-30,-23,19,8,-26,25,20,-22,-26,-29,-31
-5,-31,-26,18,11,-28,25,21,-20,-31,-30,-34
1,-28,-29,13,16,-28,25,25,-20,-30,-30,-36
10,-25,-34,8,22,-29,25,25,-20,-33,-30,-34
9,-25,-34,9,22,-30,25,25,-20,-36,-30,-30
1,-28,-30,14,15,-29,25,25,-21,-35,-31,-30
-4,-34,-30,19,14,-32,29,25,-26,-39,-36,-28
-10,-37,-28,24,9,-32,33,22,-30,-40,-34,-24
-17,-41,-24,30,4,-33,38,16,-33,-40,-38,-25
-21,-46,-26,34,3,-36,39,12,-36,-45,-41,-28
-26,-50,-24,39,-1,-37,35,7,-39,-45,-40,-31
-27,-55,-27,42,0,-41,33,3,-42,-44,-44,-28
-24,-55,-31,39,4,-42,30,-2,-45,-40,-45,-25
-26,-55,-30,40,3,-42,27,-5,-45,-39,-48,-25
-25,-55,-30,40,3,-42,24,-4,-49,-50,-50,-25
-26,-56,-30,41,2,-42,29,-8,-58,-57,-51,-25
-42,-72,-30,57,-6,-51,31,-10,-64,-59,-55,-25
-48,-76,-28,62,-10,-51,29,-10,-65,-63,-56,-28
-48,-71,-24,60,-12,-47,32,-13,-65,-65,-59,-31
-50,-69,-20,59,-15,-44,34,-16,-70,-70,-60,-34
-48,-66,-17,57,-15,-41,38,-19,-70,-70,-63,-35
-53,-64,-12,59,-20,-38,40,-22,-71,-71,-66,-35
-50,-60,-10,55,-20,-35,44,-25,-75,-75,-68,-35
-35,-60,-26,48,-4,-43,45,-24,-75,-74,-72,-35
-26,-59,-33,42,3,-46,42,-20,-75,-77,-74,-35
-43,-71,-27,57,-8,-49,39,-20,-75,-81,-77,-35
-57,-83,-26,70,-15,-54,36,-20,-75,-79,-80,-38
-54,-76,-22,65,-16,-49,33,-20,-79,-84,-80,-42
-56,-75,-19,66,-18,-47,30,-20,-80,-85,-80,-44
-48,-71,-23,60,-13,-47,30,-25,-81,-85,-80,-49
-45,-69,-25,57,-10,-47,30,-34,-85,-90,-80,-49
-49,-82,-33,66,-8,-58,30,-35,-85,-90,-84,-45
-47,-84,-37,66,-5,-60,30,-35,-85,-91,-85,-45
-41,-76,-35,59,-3,-55,30,-35,-85,-95,-85,-45
-40,-75,-35,58,-2,-55,30,-35,-85,-95,-85,-45
-32,-67,-35,50,2,-50,30,-36,-81,-93,-85,-45
-33,-68,-35,51,2,-52,30,-30,-74,-86,-84,-41
-44,-77,-33,61,-5,-55,29,-22,-68,-80,-76,-34
-11,-52,-41,32,15,-46,47,-14,-60,-72,-65,-28
0,-27,-27,14,13,-27,58,-6,-54,-66,-55,-21
-3,-2,2,2,-3,0,60,2,-48,-46,-45,-14
37,40,4,-39,16,22,65,24,-45,-27,-38,-6
45,57,12,-51,17,34,48,25,-43,-32,-35,7
23,36,13,-29,5,24,40,1,-38,-34,-30,2
20,-14,-34,-3,27,-24,37,-15,-57,-52,-46,-16
1,-63,-64,31,33,-63,34,-28,-84,-86,-75,-40
-30,-87,-58,59,14,-72,29,-40,-87,-92,-86,-52
-31,-92,-62,62,16,-77,27,-52,-105,-107,-97,-57
-40,-93,-54,67,7,-73,22,-65,-119,-114,-99,-58
-57,-114,-56,86,0,-85,20,-66,-119,-120,-106,-68
-50,-103,-53,77,2,-78,21,-70,-123,-123,-107,-75
-52,-102,-49,77,-1,-75,18,-63,-115,-114,-100,-75
-48,-98,-50,74,1,-74,25,-55,-127,-130,-114,-88
-51,-90,-39,71,-5,-65,11,-58,-112,-106,-93,-74
-66,-131,-65,99,0,-98,48,-7,-115,-128,-110,-99
-43,-48,-6,46,-18,-27,122,134,30,0,-20,-35
80,50,-30,-65,55,10,80,190,196,144,92,82
459,405,-55,-432,257,175,-269,-244,317,441,488,515
443,628,185,-536,129,406,-503,-817,184,563,725,811
-78,155,233,-39,-156,194,-277,-973,-561,-204,9,185
-215,-109,107,162,-161,-1,-98,-723,-701,-479,-317,-165
-121,-80,41,100,-81,-20,-31,-304,-286,-208,-153,-89
-60,-88,-28,74,-16,-57,25,-97,-164,-154,-133,-105
-33,-63,-30,48,-1,-47,32,-45,-88,-77,-67,-47
-40,-70,-30,55,-5,-49,38,-13,-73,-81,-74,-55
-25,-54,-29,40,2,-41,33,-7,-52,-65,-56,-39
-30,-53,-23,42,-3,-37,35,7,-39,-62,-55,-33
-18,-45,-27,32,5,-36,41,21,-35,-55,-50,-25
-19,-39,-20,29,1,-29,45,32,-23,-39,-41,-10
-19,-35,-16,28,-2,-25,38,29,-22,-34,-39,-5
-16,-26,-10,21,-3,-18,34,36,-10,-15,-25,10
-20,-24,-4,22,-8,-14,30,34,-1,-9,-20,13
-17,-16,1,16,-9,-7,25,39,24,7,2,25
-20,-15,5,17,-12,-5,22,46,35,17,14,35
-5,-8,-3,7,-1,-6,14,51,44,27,27,48
27,5,-22,-15,24,-8,8,65,62,45,47,60
48,31,-17,-39,32,7,1,70,81,72,65,77
53,70,18,-62,17,44,-6,91,113,93,89,101
73,90,18,-82,27,54,-11,107,141,120,116,127
123,124,1,-123,61,62,-21,121,178,166,159,172
147,167,20,-157,63,93,-33,136,224,208,208,220
157,207,51,-182,53,129,-52,142,264,244,243,262
190,256,66,-223,61,161,-79,151,304,287,289,308
233,298,65,-266,84,181,-84,145,341,328,334,351
251,328,77,-290,87,202,-91,143,368,354,371,391
261,341,80,-301,90,210,-112,138,364,350,381,409
261,335,74,-299,94,204,-112,135,353,335,374,402
246,319,73,-283,87,196,-105,128,348,327,367,392
221,288,67,-255,77,177,-87,113,299,301,325,350
158,224,65,-191,46,144,-54,99,232,243,252,276
96,150,54,-123,20,102,-25,78,177,169,177,202
58,97,39,-78,9,68,-6,54,108,102,115,137
23,50,27,-37,-2,38,2,27,52,52,67,85
0,7,7,-3,-4,7,13,10,22,12,25,46
-9,-19,-10,14,1,-14,21,-4,2,-9,4,31
-17,-37,-20,27,2,-28,34,-14,-17,-14,-7,28
-10,-43,-33,27,11,-38,42,-21,-32,-21,-27,22
2,-36,-38,18,20,-37,37,-24,-35,-27,-36,17
-2,-35,-33,19,16,-34,35,-20,-35,-30,-35,11
-26,-56,-30,41,2,-43,32,-20,-32,-30,-35,7
-39,-65,-27,52,-6,-46,29,-20,-30,-30,-35,2
-32,-55,-22,44,-5,-38,40,-20,-30,-30,-35,-1
-30,-50,-20,40,-5,-35,46,-20,-30,-30,-31,-4
-27,-43,-15,36,-6,-29,45,-20,-30,-34,-30,-9
-20,-35,-15,28,-2,-25,45,-20,-30,-35,-30,-10
-29,-42,-13,36,-7,-28,45,-20,-30,-36,-30,-10
-45,-55,-10,50,-17,-32,45,-20,-29,-39,-30,-10
-46,-55,-9,50,-17,-32,42,-20,-32,-41,-32,-10
-42,-56,-14,49,-14,-34,39,-21,-34,-40,-35,-9
-28,-59,-32,44,2,-45,36,-26,-43,-40,-35,-17
-20,-61,-41,40,10,-51,33,-24,-51,-40,-35,-26
-19,-58,-39,39,10,-49,30,-30,-49,-39,-35,-24
-14,-55,-42,35,14,-48,30,-39,-51,-51,-40,-28
-9,-54,-45,32,19,-49,44,-31,-47,-60,-37,-30
-17,-62,-45,40,14,-53,52,-45,-57,-76,-47,-30
-29,-72,-43,51,7,-57,47,-58,-67,-88,-64,-34
-25,-65,-39,45,7,-52,45,-54,-64,-84,-64,-35
-31,-71,-40,51,5,-55,42,-55,-66,-86,-65,-35
-41,-81,-40,61,-1,-61,39,-56,-65,-85,-65,-35
-40,-79,-40,60,0,-59,37,-53,-65,-85,-65,-34
-39,-80,-41,60,1,-61,34,-64,-70,-89,-70,-37
-50,-80,-30,65,-10,-55,31,-76,-70,-90,-75,-40
-41,-80,-39,61,-1,-59,29,-75,-71,-91,-78,-40
-28,-78,-50,53,11,-64,24,-75,-75,-88,-83,-40
-35,-74,-40,55,3,-57,28,-75,-75,-85,-85,-40
-41,-75,-34,58,-3,-55,36,-75,-77,-85,-85,-40
-58,-86,-28,72,-15,-56,35,-71,-80,-85,-84,-37
-71,-91,-20,81,-25,-55,34,-70,-80,-100,-86,-34
-65,-89,-25,77,-20,-57,31,-70,-80,-107,-84,-35
-48,-90,-43,69,-3,-66,29,-66,-80,-104,-81,-35
-44,-90,-46,67,1,-67,33,-64,-80,-102,-78,-35
-49,-90,-41,70,-4,-65,37,-67,-74,-99,-75,-34
-43,-83,-39,63,-2,-61,35,-77,-67,-100,-73,-28
-37,-72,-35,55,0,-54,35,-75,-61,-93,-68,-21
-28,-62,-35,46,4,-48,49,-68,-54,-85,-83,-14
-22,-53,-30,38,4,-41,55,-67,-48,-77,-78,-8
-10,-37,-28,24,9,-32,63,-57,-41,-69,-51,-1
-2,-19,-17,11,8,-18,75,-43,-26,-61,-42,4
0,17,17,-9,-8,17,74,-32,-14,-44,-30,9
-1,47,48,-23,-25,47,82,-37,-18,-43,-30,13
-1,24,26,-12,-14,25,66,-47,-32,-46,-30,18
1,-9,-10,4,6,-10,38,-57,-39,-47,-32,18
-23,-52,-29,38,4,-40,36,-82,-66,-78,-71,-21
-44,-85,-42,64,-1,-63,26,-97,-82,-100,-86,-50
-56,-90,-34,73,-10,-62,21,-103,-85,-106,-92,-48
-61,-94,-34,78,-13,-64,14,-113,-99,-115,-112,-54
-78,-105,-27,92,-26,-66,9,-109,-87,-103,-100,-50
-91,-117,-26,104,-33,-71,29,-110,-94,-118,-113,-62
-69,-102,-33,86,-18,-67,36,-118,-81,-101,-96,-46
-78,-128,-49,103,-14,-88,47,-118,-88,-120,-115,-58
-65,-100,-35,83,-15,-67,43,-126,-78,-98,-95,-42
-90,-129,-40,110,-25,-84,55,-91,-74,-104,-114,-60
-65,-96,-30,81,-17,-63,87,2,-28,-87,-101,-84
-49,-8,40,28,-45,16,123,173,178,93,35,27
198,205,7,-202,95,106,-51,32,338,297,274,310
494,668,174,-581,160,421,-418,-556,432,687,792,831
55,417,363,-236,-154,390,-361,-965,-172,227,400,550
-223,3,226,110,-225,114,-126,-930,-773,-508,-276,-96
-276,-156,120,216,-198,-18,-47,-562,-454,-332,-221,-103
-26,26,52,0,-39,39,30,-226,-183,-180,-131,-85
82,89,7,-86,38,48,35,-128,-97,-117,-111,-58
-372,-350,22,361,-197,-163,44,-106,-38,-80,-58,-12
-379,-363,15,371,-197,-174,55,-90,-44,-80,45,-29
