I,II,III,aVR,aVL,aVF,V1,V2,V3,V4,V5,V6
-54,-60,-6,57,-23,-33,26,6,-26,-75,-73,-55
-105,-57,49,81,-77,-4,40,15,-24,-75,-56,-28
-110,-50,60,80,-85,5,45,16,-19,-75,-50,-34
-83,-47,37,65,-60,-5,35,15,-35,-75,-60,-45
-79,-31,47,55,-63,8,29,14,-41,-69,-51,-45
-90,-20,70,55,-80,25,21,10,-32,-64,-53,-44
-43,-30,13,37,-28,-8,13,10,-31,-59,-74,-40
-24,-32,-9,28,-8,-20,14,10,-24,-53,-76,-40
-57,-26,31,41,-44,3,25,10,-21,-47,-75,-38
-80,-26,54,52,-66,14,25,10,-14,-47,-75,-35
-86,-20,66,53,-76,23,24,10,-8,-54,-75,-33
-70,-18,52,44,-61,17,26,10,-27,-60,-74,-43
-92,-39,53,66,-73,7,24,10,-45,-59,-69,-51
-76,-47,29,62,-52,-9,26,3,-45,-61,-71,-45
-50,-44,6,46,-28,-18,24,-4,-45,-70,-67,-43
-76,-42,34,59,-55,-4,26,-11,-45,-71,-65,-39
-69,-39,30,54,-50,-4,24,-18,-44,-69,-64,-34
-103,-40,63,71,-83,12,30,-28,-47,-72,-72,-39
-32,-36,-5,34,-13,-20,38,-25,-49,-83,-96,-59
24,-30,-54,3,39,-41,8,-34,-62,-101,-95,-86
-77,-35,41,56,-59,3,11,-43,-77,-107,-87,-89
-73,-44,28,59,-50,-8,33,-31,-75,-98,-81,-75
-63,-38,25,50,-43,-7,28,-24,-73,-91,-75,-66
-76,-30,47,53,-61,8,31,-16,-69,-90,-75,-62
-44,-26,18,34,-31,-4,29,-15,-70,-89,-75,-59
-44,-15,29,29,-36,6,30,-15,-66,-85,-75,-56
-46,-22,24,34,-35,1,29,-15,-61,-85,-75,-51
-48,-42,6,45,-27,-18,20,-15,-56,-84,-73,-49
-75,-33,42,53,-58,4,13,-16,-53,-75,-68,-44
-51,-29,22,40,-37,-3,1,-33,-48,-67,-62,-41
-38,-19,19,28,-28,0,12,-31,-42,-58,-59,-38
-66,-6,60,36,-63,27,40,-5,-31,-51,-53,-33
-43,26,68,8,-56,47,57,20,-3,-48,-50,-30
-21,53,74,-17,-47,63,67,40,-11,-43,-58,-31
-43,10,53,16,-48,32,48,38,2,-43,-61,-31
-30,35,65,-3,-47,50,-2,-3,7,-34,-60,-26
24,67,42,-45,-9,54,-37,-36,-31,-40,-60,-25
39,41,3,-40,18,22,-73,-58,-55,-65,-60,-20
2,40,37,-21,-18,38,-91,-80,-89,-75,-60,-20
-32,13,46,9,-39,29,-58,-75,-88,-90,-64,-25
-18,-14,4,16,-11,-5,-39,-67,-79,-91,-66,-24
-51,-59,-8,56,-22,-33,-16,-46,-80,-89,-69,-31
-74,-99,-25,87,-24,-61,16,-24,-70,-92,-72,-45
-55,-109,-55,82,0,-82,31,-26,-70,-87,-67,-55
-61,-118,-57,90,-2,-87,46,-24,-63,-101,-86,-60
-59,-109,-50,84,-4,-79,44,-26,-67,-104,-88,-70
-106,-140,-34,123,-36,-87,47,-25,-62,-105,-92,-67
-76,-137,-61,107,-7,-98,43,-24,-60,-98,-88,-66
-73,-130,-57,102,-8,-93,47,-19,-60,-98,-91,-82
-111,-131,-21,121,-45,-76,40,-20,-55,-95,-92,-69
-92,-132,-40,113,-26,-86,54,-1,-55,-89,-81,-69
-127,-96,31,111,-79,-32,106,98,58,-30,-90,-46
39,-8,-47,-15,43,-28,-2,28,45,111,67,13
421,209,-212,-315,317,-1,-410,-428,-246,385,601,338
977,700,-277,-838,627,211,-1091,-894,-257,1244,1726,1036
1095,471,-624,-783,859,-76,-1303,-1099,-507,1062,1713,1028
403,-184,-587,-109,495,-385,-786,-1016,-1098,-482,198,284
-16,-206,-190,111,87,-197,-340,-580,-820,-740,-322,-49
-53,-132,-79,93,13,-106,-99,-185,-281,-294,-165,-52
-125,-125,1,125,-63,-62,59,-9,-113,-200,-194,-64
-68,-109,-41,89,-13,-75,100,73,-7,-113,-157,-110
-80,-106,-26,93,-27,-65,130,100,27,-100,-167,-133
-126,-81,44,103,-85,-18,137,121,49,-54,-136,-110
-107,-80,27,93,-66,-27,134,112,52,-63,-138,-108
-97,-72,25,84,-60,-23,132,117,76,-60,-133,-94
-57,-76,-19,67,-19,-47,129,113,75,-59,-129,-88
-38,-59,-21,49,-8,-40,130,122,87,-34,-129,-79
-88,-46,41,67,-64,-2,124,149,135,6,-117,-74
-73,-35,38,54,-55,2,113,148,133,-9,-113,-73
-3,-19,-16,11,6,-17,114,152,134,-5,-101,-66
-89,-13,76,51,-83,32,140,165,165,1,-98,-68
-76,21,97,27,-87,58,140,189,197,45,-63,-51
10,13,3,-11,3,8,126,217,242,93,-17,-34
-11,28,39,-8,-25,33,122,238,277,116,2,-19
26,94,68,-61,-21,81,111,280,333,177,39,8
26,122,96,-74,-35,109,106,318,416,242,76,42
59,157,97,-108,-19,126,93,312,437,273,83,56
86,168,82,-127,1,125,73,320,461,324,135,71
70,190,120,-130,-25,154,52,310,472,369,186,121
101,207,106,-155,-3,156,33,271,429,369,198,138
81,176,95,-129,-7,136,26,246,394,372,215,138
66,142,76,-104,-5,109,17,176,309,305,179,112
32,93,61,-63,-15,77,22,128,232,223,143,83
8,54,46,-31,-19,50,36,104,170,155,91,66
29,43,14,-36,7,28,35,54,80,49,-2,24
-32,17,49,7,-40,32,35,40,33,2,-33,1
-99,-30,69,64,-84,19,35,31,12,-14,-45,-24
-106,-42,64,74,-85,10,34,19,0,-29,-55,-46
-78,-37,41,57,-59,2,38,12,-6,-57,-63,-48
-44,-35,9,39,-26,-13,40,6,-13,-73,-67,-41
-51,-32,20,41,-35,-6,40,2,-22,-68,-60,-35
-37,-30,8,33,-23,-11,43,-3,-26,-71,-49,-24
-45,-26,19,36,-32,-4,46,-8,-32,-69,-67,-40
-67,-39,28,53,-47,-6,44,-10,-45,-70,-85,-64
-65,-37,29,51,-47,-4,40,-2,-38,-67,-66,-46
-83,-22,61,52,-72,19,40,2,-30,-61,-65,-42
-53,-14,39,33,-46,12,39,7,-26,-56,-62,-60
-22,-9,13,16,-18,2,34,14,-15,-53,-59,-64
-1,-2,-1,1,0,-1,35,18,-25,-46,-56,-54
15,-6,-20,-5,18,-13,33,17,-37,-50,-56,-52
-47,-24,24,35,-35,0,28,10,-35,-61,-64,-55
-51,-17,34,34,-42,8,25,7,-35,-56,-68,-53
-42,-23,18,32,-30,-2,22,2,-36,-50,-83,-49
-66,-16,50,41,-58,17,17,-2,-33,-60,-86,-45
-32,-28,5,30,-18,-11,15,-8,-43,-84,-84,-43
-36,-49,-13,43,-12,-31,21,-29,-56,-95,-86,-34
-57,-13,44,34,-50,16,18,-37,-55,-96,-84,-55
-80,-14,66,46,-72,26,26,-34,-55,-94,-85,-71
-47,-29,18,38,-32,-6,42,-36,-55,-91,-84,-59
-24,-30,-6,27,-9,-18,38,-34,-55,-89,-85,-68
-61,-28,32,44,-47,2,35,-36,-56,-91,-84,-71
-22,-42,-20,32,0,-31,32,-37,-73,-105,-87,-70
-61,-67,-7,64,-27,-37,30,-35,-90,-112,-88,-70
-93,-56,37,74,-64,-9,28,-30,-80,-109,-77,-70
-60,-53,7,56,-33,-23,23,-28,-70,-111,-67,-69
-81,-49,32,65,-56,-9,20,-23,-64,-109,-62,-66
-83,-50,32,66,-57,-9,16,-19,-61,-110,-73,-63
-63,-47,16,55,-39,-15,13,-25,-58,-108,-93,-61
-29,-43,-15,36,-6,-29,9,-25,-53,-100,-90,-57
-46,-48,-2,47,-22,-25,29,-21,-51,-96,-82,-56
-67,14,81,26,-74,47,49,-13,-38,-73,-75,-49
-41,51,92,-5,-67,71,50,5,-19,-43,-71,-10
-3,33,36,-15,-20,35,51,-1,3,-38,-66,-29
14,34,20,-24,-3,27,21,-15,-12,-33,-64,-56
-38,24,61,7,-50,42,-23,-21,-32,-31,-52,-14
-34,22,56,6,-45,39,-49,-46,-49,-60,-45,-14
-25,14,38,5,-32,26,-50,-61,-71,-77,-36,-24
-21,7,28,7,-24,17,-52,-59,-68,-82,-26,-15
38,22,-15,-30,27,3,-35,-61,-82,-92,-64,-35
-22,2,24,10,-23,13,2,-59,-86,-87,-66,-28
-76,-61,15,69,-46,-23,13,-61,-87,-103,-83,-49
-21,-91,-70,56,25,-80,17,-57,-97,-110,-113,-96
-20,-81,-62,51,21,-71,24,-48,-94,-106,-106,-89
-15,-76,-60,46,23,-68,30,-40,-95,-103,-102,-82
-13,-61,-48,37,18,-54,24,-30,-96,-97,-100,-76
-99,-81,19,90,-59,-31,36,-24,-92,-98,-122,-70
-157,-125,32,141,-94,-46,59,-12,-91,-86,-76,-61
-89,-113,-25,101,-32,-69,57,-22,-85,-100,-79,-60
-32,-87,-55,60,11,-70,40,-51,-88,-110,-110,-92
-74,-71,3,72,-38,-34,71,1,-32,-109,-142,-113
-58,-5,53,32,-56,23,79,97,111,47,-68,-58
146,99,-47,-123,97,25,-157,-169,-101,240,289,154
659,570,-89,-615,374,240,-803,-749,-369,908,1304,760
1020,754,-266,-887,643,244,-1279,-1053,-431,1493,2114,1202
581,54,-528,-317,555,-237,-936,-1014,-919,228,929,618
31,-272,-303,121,168,-288,-424,-712,-1022,-843,-315,-26
-63,-142,-80,103,9,-111,-184,-320,-482,-475,-264,-82
-85,-125,-40,105,-22,-82,3,-83,-169,-240,-200,-68
-89,-89,0,89,-44,-44,95,40,-24,-151,-168,-74
-75,-69,6,72,-40,-31,111,68,16,-113,-161,-104
-57,-45,12,51,-34,-16,122,78,26,-96,-159,-109
-79,-54,24,66,-51,-15,132,106,68,-73,-148,-108
-124,-62,62,93,-93,0,126,124,90,-82,-153,-98
-105,-58,46,81,-76,-5,124,126,102,-66,-131,-86
-102,-62,41,82,-71,-10,122,118,97,-69,-134,-93
-86,-58,28,72,-57,-15,118,120,106,-35,-119,-88
-102,-62,40,81,-71,-11,130,112,113,-20,-119,-87
-107,-52,55,80,-81,1,134,120,112,-4,-110,-79
-81,-38,43,59,-61,2,127,149,132,8,-107,-74
-50,-25,24,37,-37,0,122,164,165,17,-91,-69
-31,3,34,14,-32,19,116,187,213,60,-51,-56
-49,40,88,4,-69,64,111,215,264,99,-35,-47
-16,77,93,-31,-55,85,104,241,317,150,-8,-27
13,88,75,-51,-31,81,92,267,369,197,25,1
44,118,74,-82,-15,96,81,282,402,251,60,29
69,178,109,-123,-21,143,70,286,438,317,122,55
57,183,127,-120,-35,154,53,271,448,344,156,74
87,201,114,-145,-14,157,33,259,444,347,181,122
90,208,117,-149,-14,162,22,246,416,347,214,142
63,156,93,-110,-15,124,10,200,359,333,208,123
51,109,58,-80,-4,83,-5,132,259,237,168,97
38,58,21,-48,8,40,4,82,151,143,102,54
23,23,-1,-23,12,11,18,59,100,76,39,31
-43,-15,28,29,-35,6,32,47,54,8,-8,25
-9,-36,-26,22,9,-31,53,35,19,-31,-52,4
12,-36,-48,12,31,-42,52,29,8,-57,-73,-30
-42,-64,-22,53,-10,-43,44,22,-1,-55,-66,-37
-28,-72,-44,51,8,-58,37,16,-8,-54,-66,-39
-56,-69,-12,62,-22,-40,32,9,-21,-62,-81,-56
-27,-68,-40,48,7,-54,23,6,-30,-65,-86,-68
-66,-64,2,65,-33,-31,36,22,-30,-61,-88,-67
-59,-65,-7,62,-26,-36,58,28,-30,-57,-90,-72
16,-56,-72,20,44,-64,50,21,-30,-54,-84,-67
-38,-42,-4,40,-17,-23,49,20,-30,-50,-77,-39
-55,-38,18,46,-36,-10,44,14,-31,-58,-75,-40
-84,-40,44,62,-64,2,41,12,-35,-62,-75,-36
-73,-40,33,57,-53,-3,37,8,-35,-57,-75,-28
-50,-43,7,46,-28,-18,28,-6,-35,-57,-74,-38
-19,-46,-27,33,5,-36,25,-19,-35,-52,-76,-51
-40,-44,-5,42,-17,-24,11,-5,-38,-62,-76,-60
-117,-38,79,77,-98,20,38,33,-42,-82,-74,-51
-73,-29,44,50,-58,7,56,14,-36,-78,-69,-47
-22,-20,2,21,-12,-9,34,-19,-38,-75,-65,-39
-9,-18,-9,14,0,-13,27,-21,-57,-73,-86,-59
-47,-30,17,39,-32,-7,21,-21,-70,-69,-98,-79
-77,-43,34,60,-56,-4,16,-15,-70,-72,-93,-71
-64,-37,27,50,-45,-5,13,-13,-70,-81,-96,-70
-16,-29,-13,23,-2,-21,6,-8,-71,-91,-94,-65
20,-14,-34,-2,27,-24,7,-5,-67,-90,-95,-63
-41,-21,19,31,-30,-1,27,-10,-65,-90,-92,-59
-39,-59,-20,49,-9,-39,36,-21,-65,-90,-86,-54
-3,-70,-67,37,33,-68,34,-25,-65,-89,-82,-53
-30,-59,-29,45,0,-44,35,-27,-65,-93,-77,-46
-53,-43,10,48,-31,-16,35,-31,-65,-95,-73,-47
-68,-48,20,58,-44,-14,34,-33,-65,-95,-70,-42
-58,-59,-1,58,-28,-29,33,-37,-65,-95,-88,-57
26,-43,-69,9,48,-56,21,-29,-68,-100,-98,-74
-31,-36,-5,33,-13,-20,28,-21,-48,-94,-69,-35
-113,-24,89,68,-101,32,61,-9,-31,-60,-54,-10
-18,21,40,-2,-29,30,59,-1,-37,-44,-54,-30
12,44,32,-28,-10,37,56,14,-34,-46,-49,-43
-7,24,31,-9,-19,27,53,30,-36,-42,-54,-16
6,24,18,-15,-7,21,12,2,-34,-41,-55,3
16,31,15,-24,0,23,-26,-28,-36,-37,-55,-15
15,24,9,-20,3,16,-57,-54,-65,-69,-54,-26
45,19,-25,-32,35,-3,-57,-71,-96,-97,-56,-33
-14,5,19,5,-17,12,-27,-59,-101,-95,-46,-7
-52,-7,45,29,-49,19,-19,-52,-78,-100,-46,2
-21,-73,-52,47,16,-62,-12,-44,-79,-102,-86,-56
-56,-116,-60,86,2,-88,9,-37,-91,-107,-104,-65
-42,-76,-34,59,-4,-55,29,-35,-85,-108,-96,-50
-93,-88,5,91,-49,-41,48,-34,-80,-115,-103,-61
-81,-93,-13,87,-34,-53,54,-33,-77,-113,-101,-76
-37,-86,-49,62,6,-67,53,-28,-71,-118,-107,-94
-93,-79,14,86,-53,-32,44,-32,-73,-113,-94,-81
-77,-77,0,77,-38,-38,48,-23,-77,-116,-87,-68
-26,-68,-42,48,8,-55,35,-27,-72,-117,-98,-68
-35,-71,-36,53,0,-53,48,-20,-71,-103,-112,-87
-59,-42,17,50,-38,-12,76,66,46,-33,-99,-74
27,38,12,-32,7,25,-32,-34,3,157,134,71
367,337,-30,-352,199,153,-505,-548,-338,529,778,468
952,793,-159,-872,555,316,-1235,-1006,-391,1361,1873,1084
937,373,-564,-655,750,-96,-1256,-1067,-643,950,1589,950
288,-233,-521,-27,405,-377,-669,-876,-1066,-588,55,206
-51,-167,-116,109,33,-141,-299,-474,-708,-683,-307,-3
-61,-136,-75,99,7,-105,-86,-157,-256,-294,-202,-61
-57,-101,-43,79,-7,-72,52,-3,-93,-203,-196,-94
-111,-84,26,97,-68,-29,104,72,5,-101,-128,-72
-82,-75,7,78,-44,-34,103,66,4,-131,-165,-139
-71,-35,36,53,-53,1,118,99,55,-81,-131,-96
-126,-86,40,106,-82,-23,130,112,70,-82,-144,-85
-116,-82,34,98,-75,-24,123,115,77,-61,-128,-86
-108,-78,30,92,-69,-24,127,115,89,-52,-127,-82
-96,-74,22,85,-59,-26,124,125,95,-45,-121,-82
-89,-68,21,78,-55,-23,125,131,109,-34,-109,-78
-68,-66,2,67,-35,-32,125,132,111,-23,-104,-79
-73,-54,19,64,-46,-17,125,165,151,23,-92,-67
-107,-40,66,73,-86,13,125,180,180,34,-86,-62
-65,3,69,31,-67,36,125,190,198,46,-75,-50
-37,18,55,9,-46,36,125,217,244,72,-57,-39
-70,36,106,17,-88,71,129,266,303,134,-14,-26
-21,66,87,-23,-54,76,129,290,353,176,3,-20
30,104,74,-68,-22,88,122,304,401,228,46,11
21,146,125,-84,-52,135,110,326,450,301,103,44
54,167,112,-111,-29,139,86,332,474,348,153,72
87,216,130,-152,-22,173,62,317,485,400,204,112
111,219,108,-165,1,164,44,276,457,389,211,102
134,197,63,-166,36,130,30,234,387,366,216,105
82,165,83,-124,0,124,23,179,321,326,196,107
26,115,88,-71,-31,101,24,128,235,225,138,78
55,83,28,-69,13,55,28,94,142,138,69,28
-2,32,34,-15,-18,33,30,74,87,72,19,-9
-40,5,45,17,-43,25,35,38,37,26,-19,1
-33,-1,32,17,-33,16,44,20,-4,-6,-60,-22
-80,-14,66,46,-73,26,45,27,-11,-34,-64,-30
-8,-24,-17,16,5,-20,41,-3,-30,-62,-70,-53
-7,-33,-26,21,9,-30,39,-16,-54,-85,-82,-68
-101,-39,61,70,-81,11,36,-11,-51,-84,-77,-36
-60,-37,23,48,-41,-7,33,-6,-44,-79,-74,-49
12,-31,-43,10,28,-37,30,-1,-39,-77,-71,-52
-37,-27,10,32,-23,-8,30,5,-33,-73,-67,-48
-79,-24,55,51,-67,15,30,9,-31,-68,-65,-53
-48,-17,31,32,-39,7,30,4,-27,-63,-64,-46
-15,-17,-2,16,-6,-10,30,2,-25,-56,-81,-68
-11,-35,-24,23,7,-29,30,-8,-22,-53,-85,-70
-68,-31,37,49,-52,3,30,13,-19,-43,-55,-40
-55,-24,31,39,-43,4,26,34,-26,-55,-59,-50
-23,-19,4,22,-14,-8,25,25,-33,-81,-82,-75
-21,-13,8,17,-14,-2,25,-7,-50,-82,-83,-78
-50,-11,39,30,-44,14,20,-27,-51,-90,-84,-75
-91,-8,83,49,-87,37,21,-6,-27,-90,-86,-39
-60,-28,32,43,-46,2,19,-16,-39,-84,-84,-48
-68,-42,27,55,-48,-7,25,-30,-59,-84,-82,-97
-78,-39,39,59,-59,0,36,-29,-60,-78,-77,-84
-77,-40,37,58,-57,-2,31,-31,-60,-83,-74,-67
-80,-37,43,58,-61,3,28,-29,-60,-89,-71,-66
-45,-28,17,36,-30,-5,25,-30,-60,-85,-65,-56
-41,-24,17,32,-28,-4,21,-31,-61,-86,-66,-55
-81,-14,67,47,-74,26,17,-37,-66,-83,-63,-44
-49,-15,34,32,-41,9,15,-44,-70,-93,-75,-54
-11,-53,-42,32,16,-48,14,-41,-66,-111,-107,-86
-111,-61,51,86,-81,-5,9,-35,-65,-104,-101,-79
-106,-48,58,77,-82,5,11,-30,-65,-97,-86,-66
-29,-46,-17,37,-5,-31,25,-24,-60,-92,-82,-59
-50,-36,14,43,-32,-11,33,-19,-60,-83,-77,-46
-60,-32,29,45,-44,-2,27,-13,-60,-79,-76,-43
-67,-25,43,46,-55,9,33,-10,-52,-74,-72,-37
-40,-19,21,30,-30,1,26,-10,-47,-71,-70,-34
-60,-13,47,36,-53,17,42,-4,-37,-66,-67,-29
-61,28,89,16,-75,58,63,14,-19,-56,-59,-24
21,53,32,-37,-6,42,32,21,-13,-52,-52,-21
30,43,13,-36,8,28,2,-6,-13,-39,-45,-5
22,38,16,-31,3,27,-46,-45,-47,-57,-45,-21
-30,30,60,0,-46,45,-71,-61,-70,-86,-45,-19
16,26,10,-21,3,17,-59,-55,-77,-84,-45,8
56,16,-40,-36,48,-12,-49,-63,-93,-86,-45,0
-21,8,29,7,-25,18,-20,-69,-90,-84,-46,-4
-45,-43,2,44,-23,-20,-1,-57,-88,-88,-64,-29
-57,-96,-40,77,-8,-68,4,-46,-84,-104,-88,-67
-46,-102,-56,74,5,-79,15,-50,-94,-132,-114,-91
-116,-100,16,108,-65,-42,31,-51,-87,-119,-106,-74
-118,-86,32,102,-75,-26,35,-41,-80,-82,-76,-44
-51,-111,-59,81,4,-85,36,-28,-80,-89,-92,-54
-75,-128,-53,101,-10,-90,43,-22,-76,-81,-83,-47
-98,-132,-34,116,-32,-83,55,-10,-76,-89,-96,-51
-97,-114,-17,106,-39,-65,44,-8,-68,-82,-94,-55
-87,-112,-25,99,-31,-68,71,6,-47,-86,-89,-72
-89,-70,18,79,-53,-26,89,88,79,1,-72,-59
62,27,-35,-45,48,-4,-75,-116,-68,140,156,91
484,357,-128,-420,306,114,-615,-677,-374,547,878,555
1040,710,-330,-874,685,190,-1296,-1061,-341,1306,1859,1119
983,204,-779,-593,881,-287,-1245,-1139,-726,581,1256,799
255,-261,-516,3,386,-388,-660,-916,-1095,-723,-91,139
-30,-164,-134,98,52,-149,-284,-464,-627,-579,-243,-19
-21,-150,-130,86,55,-140,-49,-146,-218,-266,-186,-88
-148,-114,33,131,-91,-40,91,14,-62,-161,-166,-91
-144,-121,23,132,-83,-49,129,85,33,-84,-113,-87
-133,-122,11,127,-72,-55,147,97,39,-96,-137,-93
-110,-117,-6,113,-52,-61,151,110,66,-64,-115,-93
-124,-121,3,122,-63,-59,150,121,70,-75,-128,-111
-137,-100,37,118,-86,-32,150,124,77,-54,-115,-90
-101,-96,5,98,-52,-46,150,128,91,-55,-121,-85
-122,-81,41,102,-81,-20,149,153,116,-43,-112,-78
-108,-79,28,93,-68,-25,145,156,123,-26,-106,-76
-93,-70,23,81,-58,-24,145,155,125,-13,-101,-73
-81,-53,28,66,-54,-12,143,163,154,8,-89,-69
-62,-34,28,48,-45,-3,139,180,173,29,-84,-60
-82,-25,57,53,-69,16,141,213,221,69,-73,-44
-36,-5,31,20,-34,13,134,245,268,107,-41,-31
-10,34,44,-12,-27,38,135,276,311,149,-4,-15
-61,71,132,-5,-97,101,139,322,382,210,31,3
-21,102,122,-40,-72,112,128,355,424,260,59,11
41,129,88,-86,-23,108,117,354,464,309,100,40
83,166,82,-125,0,124,99,348,489,365,162,82
86,189,102,-138,-8,145,85,342,495,390,199,117
75,183,108,-130,-16,145,59,322,484,390,206,129
94,168,73,-131,10,121,34,273,437,382,189,117
55,128,73,-92,-9,100,29,202,339,318,183,114
27,87,60,-57,-16,73,31,148,245,231,148,95
-2,55,58,-27,-30,56,47,107,174,154,78,55
-29,-1,28,15,-29,14,51,65,87,65,20,6
-1,-39,-37,20,19,-38,49,34,37,14,-23,-20
-22,-48,-27,35,3,-37,50,19,10,-29,-44,-33
-54,-63,-10,59,-22,-36,50,20,-1,-52,-51,-43
-70,-63,7,66,-38,-28,49,20,-4,-47,-49,-29
-61,-72,-10,67,-25,-41,43,20,-14,-60,-61,-46
-47,-91,-44,70,-1,-67,37,21,-18,-65,-71,-63
-85,-73,12,79,-48,-30,32,18,-16,-58,-62,-58
-45,-64,-19,55,-13,-41,26,15,-15,-55,-60,-61
-18,-55,-36,37,9,-46,20,12,-14,-50,-55,-60
-67,-51,17,59,-42,-17,33,10,-10,-45,-49,-56
-82,-71,11,76,-46,-29,41,6,-10,-45,-55,-55
-69,-52,17,60,-43,-17,35,4,-12,-44,-54,-55
-52,-50,3,51,-27,-23,34,9,-21,-48,-59,-56
-95,-57,38,76,-66,-10,30,16,-35,-51,-75,-53
-94,-49,45,72,-70,-2,28,19,-35,-49,-72,-50
-24,-48,-25,36,1,-36,23,14,-31,-45,-65,-50
-11,-45,-33,28,11,-39,31,8,-29,-43,-62,-48
-52,-50,3,51,-28,-23,41,5,-24,-39,-54,-45
-94,-50,43,72,-68,-3,42,0,-27,-39,-52,-45
-40,-50,-10,45,-15,-30,45,-4,-37,-59,-72,-57
-15,-50,-34,33,9,-42,48,-9,-36,-67,-77,-60
-67,-56,11,61,-39,-22,50,-13,-34,-64,-69,-51
-71,-61,10,66,-40,-26,47,-18,-32,-66,-70,-51
-64,-55,10,59,-36,-22,44,-22,-27,-64,-61,-40
-23,-53,-30,38,4,-41,41,-29,-48,-77,-83,-61
-15,-48,-33,32,9,-41,38,-36,-61,-82,-100,-80
-57,-44,14,51,-35,-15,36,-32,-64,-78,-88,-66
-78,-53,25,65,-51,-14,33,-30,-85,-77,-84,-59
-80,-57,23,68,-51,-17,30,-23,-86,-72,-70,-40
-72,-50,22,61,-47,-14,27,-35,-84,-89,-87,-63
-48,-44,4,45,-25,-20,25,-55,-86,-104,-105,-75
-36,-39,-3,38,-16,-21,22,-45,-83,-92,-91,-63
-94,-32,63,63,-78,15,18,-36,-76,-83,-83,-67
-103,-12,91,57,-97,39,33,-30,-61,-72,-73,-55
-50,20,70,15,-60,44,46,-19,-45,-63,-65,-49
-30,43,73,-7,-52,58,50,-11,-22,-50,-60,-43
-7,57,64,-26,-35,60,61,16,-9,-40,-53,-36
52,74,22,-63,15,48,27,23,-10,-41,-46,-29
3,77,73,-40,-36,75,-20,-25,-11,-39,-41,-18
-20,80,101,-31,-60,90,-52,-61,-45,-53,-37,-3
88,74,-13,-81,50,30,-79,-89,-80,-81,-52,-15
9,40,31,-25,-11,35,-70,-103,-81,-95,-65,-37
-54,22,75,16,-65,48,-58,-94,-80,-96,-69,-25
-33,8,41,12,-37,24,-36,-89,-79,-93,-68,-23
-71,-46,25,58,-47,-11,-7,-73,-81,-100,-78,-47
-56,-83,-27,70,-14,-55,-3,-60,-78,-100,-101,-66
-103,-86,18,95,-60,-34,20,-55,-84,-101,-107,-71
-99,-84,15,92,-57,-34,36,-55,-84,-99,-105,-69
-63,-88,-25,76,-19,-57,34,-54,-86,-93,-103,-69
-84,-89,-4,86,-40,-46,36,-48,-88,-98,-109,-72
-86,-74,11,80,-48,-31,33,-53,-89,-88,-98,-67
-109,-75,34,92,-71,-20,38,-42,-92,-95,-109,-75
-90,-56,34,72,-62,-10,30,-33,-63,-83,-89,-64
-76,-61,15,68,-46,-22,65,-4,-35,-97,-120,-82
-80,-24,56,52,-68,16,75,83,75,14,-79,-63
95,64,-31,-79,63,16,-122,-162,-76,167,198,105
635,466,-169,-550,402,148,-733,-753,-312,685,1032,639
1193,749,-444,-971,818,152,-1343,-1114,-304,1291,1871,1116
867,131,-736,-499,801,-302,-1153,-1188,-832,243,955,669
163,-243,-405,40,284,-324,-596,-904,-1091,-825,-212,80
-37,-113,-76,75,20,-95,-252,-405,-546,-505,-232,-36
-85,-108,-23,97,-31,-66,-44,-131,-212,-256,-193,-64
-76,-60,16,68,-46,-22,69,16,-59,-152,-156,-83
-120,-70,50,95,-84,-11,119,79,4,-116,-144,-106
-169,-87,82,127,-125,-2,121,95,10,-109,-146,-98
-121,-70,51,95,-86,-9,127,113,45,-64,-133,-100
-150,-72,79,110,-115,4,128,109,62,-65,-146,-102
-109,-79,30,94,-69,-24,123,109,73,-43,-135,-97
-42,-70,-28,57,-7,-49,126,120,77,-45,-132,-98
-52,-55,-3,53,-24,-29,119,145,111,-29,-109,-92
-103,-46,58,74,-80,6,121,151,121,-17,-105,-91
-113,-32,81,72,-97,24,119,145,112,-4,-94,-87
-73,-13,60,42,-66,23,115,159,134,21,-86,-78
-59,14,73,22,-66,43,115,195,191,49,-78,-68
-39,25,64,7,-52,44,115,214,218,58,-67,-58
-17,39,56,-11,-37,47,114,241,242,82,-55,-52
-18,57,75,-20,-46,66,124,286,302,146,-9,-34
-33,90,123,-29,-78,106,125,316,373,200,54,22
-8,120,128,-56,-68,123,111,345,422,250,93,54
25,147,121,-86,-48,134,101,362,456,304,115,48
54,190,135,-123,-41,162,84,349,474,343,154,81
105,205,100,-155,2,152,61,338,466,378,193,112
115,200,84,-158,15,142,37,321,452,378,217,112
120,170,50,-146,35,110,28,259,406,350,217,104
89,132,42,-111,23,87,30,196,319,291,192,97
32,97,65,-65,-16,81,32,155,221,185,138,94
23,42,19,-33,2,30,35,108,143,105,57,41
21,-3,-23,-9,22,-13,36,68,79,55,9,9
19,-18,-37,0,28,-27,46,54,43,0,-10,-5
1,-25,-26,12,14,-25,49,43,24,-14,-20,-22
-33,-59,-27,47,-3,-43,41,33,12,-26,-41,-28
-44,-78,-34,62,-5,-56,40,31,-3,-63,-72,-67
-58,-69,-11,64,-24,-39,32,19,-19,-66,-75,-61
-44,-69,-25,57,-9,-47,57,29,5,-64,-74,-46
-39,-63,-23,51,-8,-43,77,54,6,-66,-76,-45
-67,-60,6,64,-37,-27,50,47,-6,-64,-74,-34
-29,-56,-27,43,-1,-41,43,38,-9,-66,-75,-31
-34,-50,-16,42,-9,-33,47,32,-30,-59,-69,-21
-78,-45,33,61,-56,-5,43,23,-26,-53,-63,-22
-39,-40,-1,40,-19,-20,47,19,-16,-45,-56,-43
24,-32,-56,4,40,-44,42,13,-13,-40,-49,-57
-56,-32,23,44,-39,-5,48,10,-2,-32,-43,-54
-105,-42,63,73,-84,10,60,5,-3,-31,-39,-55
-48,-41,8,44,-28,-16,55,0,-26,-56,-62,-55
-94,-40,54,67,-74,7,50,4,-37,-67,-78,-55
-73,-38,35,55,-54,-1,47,2,-34,-64,-73,-54
-49,-35,14,42,-31,-10,41,-6,-36,-66,-79,-56
-82,-34,48,57,-64,7,37,-12,-38,-64,-80,-54
-74,-41,33,58,-53,-4,35,-19,-46,-65,-80,-55
-77,-38,39,57,-58,1,35,-26,-51,-74,-88,-66
-40,-39,1,39,-20,-19,31,-29,-55,-83,-87,-72
-92,-55,36,73,-64,-9,30,-25,-55,-80,-80,-80
-112,-49,63,80,-88,7,30,-25,-55,-77,-80,-74
-47,-32,14,39,-30,-9,25,-26,-55,-74,-81,-57
-68,-23,46,45,-57,12,21,-24,-56,-67,-78,-54
-27,-31,-4,29,-11,-18,19,-34,-73,-91,-92,-64
-28,-47,-19,37,-4,-32,14,-39,-80,-103,-97,-70
-68,-62,5,65,-36,-28,11,-31,-71,-89,-84,-64
-54,-58,-3,56,-25,-30,12,-27,-68,-80,-75,-60
-83,-49,35,66,-59,-7,36,-14,-53,-70,-67,-57
-70,-17,53,44,-62,18,64,8,-27,-61,-59,-48
-73,-8,65,40,-68,28,61,20,-18,-55,-50,-46
-86,-21,65,53,-76,22,54,28,-10,-45,-49,-38
27,34,7,-31,10,20,49,38,-5,-42,-52,-34
34,53,19,-44,7,36,42,29,5,-46,-35,-31
-34,42,75,-4,-55,58,-5,-11,-13,-42,-6,-9
29,42,13,-35,7,28,-68,-67,-65,-74,-43,-38
-28,34,63,-3,-46,48,-72,-83,-71,-94,-79,-20
-14,29,43,-8,-29,36,-59,-78,-68,-87,-72,20
43,7,-36,-25,40,-14,-44,-82,-65,-87,-77,-8
-50,-29,21,39,-35,-4,-12,-73,-65,-82,-71,-23
-42,-69,-27,56,-7,-48,5,-61,-88,-101,-88,-69
-9,-59,-50,34,20,-54,19,-51,-90,-104,-94,-88
-12,-48,-36,30,12,-42,38,-49,-90,-102,-95,-82
-49,-74,-25,62,-12,-50,40,-40,-84,-95,-87,-79
-86,-96,-10,92,-38,-53,40,-38,-87,-95,-89,-78
-66,-84,-18,76,-24,-51,40,-30,-80,-89,-84,-74
-57,-85,-28,71,-14,-57,40,-30,-76,-95,-81,-70
-63,-84,-21,74,-21,-53,39,-27,-69,-108,-100,-74
-79,-72,7,76,-43,-32,48,-19,-62,-89,-69,-57
-78,-85,-7,81,-35,-45,85,19,-18,-114,-151,-113
-31,-14,17,23,-24,2,78,113,96,46,-59,-66
185,114,-71,-150,128,21,-200,-209,-121,267,367,222
783,605,-177,-694,480,214,-899,-802,-302,987,1435,853
1144,677,-468,-910,806,105,-1310,-1069,-414,1322,1942,1099
556,-42,-598,-257,577,-320,-922,-1082,-1014,-102,587,469
-20,-223,-202,122,91,-212,-439,-749,-1032,-866,-312,12
-1,-100,-99,51,49,-99,-185,-308,-448,-423,-215,-69
-59,-94,-35,77,-11,-64,-2,-83,-163,-242,-199,-86
-153,-71,82,112,-118,6,86,36,-19,-138,-145,-91
-144,-86,58,115,-101,-14,120,73,22,-113,-154,-117
-146,-67,78,107,-112,6,134,102,46,-90,-136,-103
-70,-74,-3,72,-34,-38,133,111,61,-79,-130,-106
-60,-65,-4,63,-28,-34,125,111,48,-84,-125,-98
-108,-65,43,86,-75,-11,121,115,75,-51,-112,-96
-95,-65,30,80,-62,-18,115,125,94,-43,-111,-93
-70,-59,11,64,-40,-24,110,151,106,-37,-97,-82
-75,-61,15,68,-45,-23,121,156,117,-19,-93,-73
-117,-59,58,88,-87,-1,118,155,136,13,-84,-60
-110,-49,61,79,-85,6,119,172,161,28,-76,-47
-93,-42,51,67,-71,4,131,187,195,46,-64,-41
-78,-18,59,48,-68,21,124,201,227,73,-43,-34
-27,15,42,6,-35,28,121,214,249,92,-20,-28
8,30,22,-19,-7,26,116,243,307,138,2,-22
-7,72,78,-32,-43,75,112,296,371,212,51,15
6,113,107,-59,-51,110,106,313,406,262,99,52
39,135,95,-87,-28,115,90,328,457,317,144,70
50,155,105,-103,-27,130,65,318,456,344,161,65
91,201,110,-146,-10,155,36,279,437,349,182,85
130,233,103,-181,13,167,3,247,413,351,209,115
141,201,60,-171,40,130,-17,185,331,312,195,101
92,161,69,-127,11,115,10,139,250,252,164,89
25,105,80,-65,-28,92,27,97,167,158,95,56
2,51,50,-27,-24,50,24,54,90,74,30,16
-8,38,46,-15,-27,42,26,35,36,13,-37,-28
-37,-5,32,21,-35,13,24,21,3,-23,-85,-65
-51,-34,18,42,-34,-8,28,10,-10,-43,-87,-65
-51,-26,25,39,-38,-1,36,6,-20,-74,-94,-64
-65,-24,41,45,-53,8,37,-2,-30,-79,-93,-70
-48,-21,27,34,-37,3,33,-2,-32,-75,-86,-68
-20,-15,5,17,-12,-5,31,15,-29,-73,-74,-45
-59,-18,41,38,-49,11,27,14,-31,-69,-67,-43
-102,-43,59,72,-80,8,25,6,-30,-67,-64,-62
-52,-43,9,47,-30,-17,22,2,-31,-64,-65,-64
-15,-32,-16,24,1,-24,8,-5,-29,-69,-64,-61
-71,-26,45,48,-58,10,21,0,-25,-70,-49,-58
-63,-17,47,40,-55,14,38,7,-25,-70,-71,-71
-30,-11,18,20,-24,3,33,5,-25,-75,-77,-56
-40,-10,31,25,-35,10,30,5,-25,-75,-61,-28
-25,-5,20,15,-22,7,27,5,-25,-77,-67,-45
-66,-7,59,36,-62,26,22,5,-29,-80,-64,-59
-106,-31,75,68,-90,22,20,5,-36,-82,-64,-53
-105,-42,63,73,-84,10,25,1,-43,-86,-76,-57
-103,-40,63,71,-83,12,25,-5,-49,-81,-82,-73
-96,-39,57,67,-76,8,26,-9,-54,-80,-79,-58
-102,-48,53,75,-77,2,31,-17,-59,-75,-82,-46
-103,-56,47,80,-75,-4,29,-20,-62,-78,-77,-41
-82,-50,32,66,-57,-9,33,-31,-67,-98,-93,-63
-79,-46,32,62,-55,-7,35,-40,-70,-101,-121,-101
-101,-45,57,73,-79,6,35,-33,-70,-99,-122,-101
-90,-40,49,64,-70,5,35,-25,-69,-100,-126,-98
-91,-39,51,65,-71,6,35,-20,-78,-105,-130,-103
-84,-34,51,59,-67,8,35,-12,-82,-112,-127,-90
-87,-38,49,62,-68,5,30,-13,-73,-108,-118,-42
-97,-52,44,74,-70,-4,30,-27,-68,-106,-107,-44
-40,-20,20,30,-30,0,27,-23,-61,-102,-97,-66
-34,-2,32,18,-33,14,23,-12,-54,-100,-88,-54
-67,-9,58,38,-63,24,36,-3,-49,-97,-77,-52
-52,13,65,19,-59,39,54,8,-37,-81,-68,-45
-29,27,56,1,-43,41,58,16,-26,-69,-57,-40
-3,29,32,-14,-17,30,51,25,-18,-69,-54,-36
-16,18,34,-1,-26,25,39,9,-22,-71,-51,-27
-6,23,28,-9,-17,25,6,-12,-16,-72,-46,-22
4,51,47,-28,-22,49,-32,-32,-27,-76,-45,-9
-3,57,60,-27,-32,58,-40,-58,-67,-75,-35,-5
64,35,-29,-50,46,3,-31,-69,-80,-95,-76,-44
-3,5,8,-1,-5,7,-22,-70,-89,-126,-98,-64
-75,-32,43,53,-59,6,-14,-54,-91,-122,-73,-48
-47,-67,-20,57,-13,-43,20,-42,-85,-119,-78,-28
-62,-82,-20,72,-21,-51,45,-40,-84,-116,-85,-49
-57,-101,-44,79,-6,-72,45,-35,-80,-111,-106,-88
-31,-93,-62,62,16,-78,50,-31,-78,-110,-107,-84
-28,-88,-60,58,16,-74,49,-28,-74,-102,-101,-84
-41,-85,-44,64,2,-65,52,-23,-66,-109,-110,-87
-27,-71,-44,49,9,-58,47,-23,-65,-99,-98,-82
-59,-93,-33,76,-13,-63,59,-13,-53,-104,-112,-86
-102,-85,17,94,-60,-34,67,-17,-56,-97,-97,-69
-76,-98,-22,87,-27,-60,81,21,-29,-88,-130,-87
-19,-48,-29,34,5,-38,86,102,82,15,-81,-65
125,78,-46,-101,85,16,-132,-151,-93,229,286,168
622,509,-113,-565,367,198,-768,-722,-348,836,1205,730
1084,764,-321,-924,702,221,-1300,-1048,-346,1507,2086,1199
751,130,-621,-440,686,-245,-1047,-1048,-803,461,1138,749
151,-257,-408,53,280,-332,-514,-795,-1071,-801,-222,55
-78,-170,-92,124,7,-130,-201,-353,-529,-515,-260,-57
-77,-153,-76,115,0,-114,-10,-87,-172,-235,-186,-54
-77,-110,-33,94,-22,-71,86,28,-38,-161,-189,-92
-117,-126,-8,122,-55,-67,132,94,30,-90,-154,-95
-97,-118,-21,108,-38,-69,135,102,41,-97,-146,-98
-118,-120,-2,119,-58,-61,135,116,82,-66,-112,-99
-115,-120,-5,117,-55,-62,135,115,60,-76,-148,-100
-128,-104,25,116,-76,-39,130,127,85,-52,-151,-93
-91,-103,-12,97,-39,-57,131,140,116,-59,-142,-91
-39,-65,-25,52,-6,-45,128,141,117,-42,-125,-86
-89,-55,34,72,-61,-10,125,138,123,-18,-112,-79
-28,-64,-36,46,4,-50,124,147,147,0,-98,-73
-53,-57,-3,55,-25,-30,134,159,161,14,-87,-50
-104,-43,60,73,-82,8,134,187,191,43,-78,-38
-16,-13,3,15,-10,-5,127,225,227,73,-67,-50
1,0,0,0,0,0,123,224,250,79,-58,-32
-34,21,55,6,-44,37,116,260,311,137,-25,-10
7,70,63,-39,-28,66,113,305,371,200,26,15
15,100,85,-58,-35,93,103,311,415,253,76,53
19,131,111,-75,-46,120,89,323,453,306,110,69
61,153,92,-107,-16,122,75,317,462,350,153,93
57,167,110,-113,-27,138,59,298,449,372,192,117
91,196,105,-143,-8,150,36,271,433,368,194,121
128,182,54,-155,37,117,11,218,372,337,187,103
89,137,47,-113,21,92,14,159,279,259,160,77
21,88,67,-55,-23,77,26,110,203,177,100,55
1,32,31,-17,-15,31,35,71,133,107,49,32
4,3,-2,-4,3,1,41,46,79,47,5,4
7,-10,-16,2,12,-13,40,33,41,0,-51,-34
-10,-27,-17,19,4,-22,40,26,6,-39,-77,-48
-39,-49,-11,44,-13,-30,40,19,-6,-62,-79,-42
-51,-56,-6,54,-22,-31,39,12,-7,-70,-84,-41
-57,-45,12,51,-34,-17,42,6,-29,-68,-83,-37
-53,-44,10,48,-31,-17,45,0,-41,-63,-76,-35
-50,-30,20,39,-35,-5,45,8,-31,-57,-71,-33
-33,-44,-11,38,-11,-27,47,13,-25,-54,-66,-30
-40,-67,-27,54,-6,-47,51,8,-15,-48,-60,-30
-34,-39,-5,36,-14,-22,50,5,-12,-46,-55,-31
-31,-28,4,30,-17,-12,46,2,-15,-49,-50,-29
-60,-32,28,46,-44,-2,39,-3,-16,-52,-51,-32
-38,-26,12,32,-25,-7,32,-6,-19,-55,-49,-19
-64,-26,38,45,-51,6,27,14,-21,-55,-52,-27
-87,-25,62,55,-74,18,17,20,-20,-56,-72,-60
-68,-21,47,45,-58,13,23,9,-20,-60,-76,-61
-56,-20,35,38,-45,7,42,5,-36,-60,-74,-59
-52,-18,34,35,-43,8,38,-5,-48,-54,-76,-57
-49,-26,23,37,-36,-2,35,-11,-43,-59,-74,-54
-5,-38,-32,22,14,-35,33,-18,-46,-75,-75,-56
-38,-52,-15,45,-11,-33,30,-20,-44,-75,-75,-55
-83,-64,19,74,-51,-23,28,-20,-45,-74,-75,-55
-84,-56,28,70,-55,-14,24,-20,-55,-76,-75,-55
-86,-48,37,67,-61,-5,25,-15,-56,-74,-75,-55
-51,-47,4,49,-27,-21,25,-15,-55,-76,-75,-55
-44,-49,-5,47,-19,-27,25,-14,-54,-85,-78,-54
-77,-51,27,64,-52,-12,25,-10,-61,-94,-87,-44
-70,-54,16,62,-43,-19,25,-10,-72,-95,-89,-56
-85,-55,30,70,-57,-12,25,-8,-69,-95,-82,-55
-95,-52,43,73,-69,-4,26,-3,-73,-95,-78,-34
-63,-45,18,54,-40,-13,23,0,-74,-95,-72,-34
-52,-44,8,48,-30,-18,32,3,-76,-93,-66,-28
-50,-36,14,43,-32,-11,49,8,-61,-70,-61,-27
-84,-8,77,46,-81,34,62,11,-20,-50,-56,-19
-34,41,75,-4,-55,58,58,15,-9,-50,-54,-26
39,28,-11,-34,25,9,41,23,-10,-46,-51,-32
-8,-29,-21,19,7,-24,25,8,-10,-44,-49,-16
-13,28,41,-8,-27,35,-10,-12,-8,-40,-37,-5
-9,58,67,-25,-38,62,-30,-32,-28,-40,-28,33
-11,27,38,-8,-25,32,-44,-53,-70,-62,-34,28
20,26,6,-23,7,16,-47,-50,-81,-78,-44,-12
35,6,-29,-20,32,-11,-24,-41,-79,-86,-55,-23
-26,-18,7,22,-16,-5,-12,-33,-81,-86,-52,-30
-59,-50,9,54,-34,-21,5,-27,-80,-96,-73,-51
-19,-84,-65,52,23,-74,21,-40,-80,-109,-90,-75
-61,-109,-48,86,-6,-78,35,-37,-77,-109,-91,-73
-90,-102,-12,96,-38,-57,43,-30,-73,-103,-85,-69
-82,-108,-26,95,-28,-66,46,-29,-72,-100,-82,-65
-63,-111,-48,87,-7,-79,43,-20,-66,-99,-84,-64
-63,-107,-44,85,-10,-75,50,-23,-68,-91,-73,-56
-72,-114,-42,94,-15,-78,74,-5,-59,-110,-105,-77
-98,-94,4,95,-50,-45,65,-12,-64,-80,-68,-92
-94,-122,-28,108,-33,-74,85,36,0,-70,-124,-106
-1,-39,-38,20,19,-38,46,66,77,52,-27,-25
159,100,-59,-129,109,20,-232,-313,-215,232,364,208
694,510,-184,-602,439,162,-873,-858,-399,798,1210,726
1147,659,-488,-903,818,85,-1371,-1109,-373,1307,1922,1124
755,-27,-782,-364,769,-405,-1081,-1110,-900,117,830,594
142,-266,-408,63,275,-337,-543,-800,-1025,-833,-242,24
-35,-124,-89,80,27,-107,-203,-330,-447,-430,-178,-41
-48,-127,-79,88,16,-103,-1,-80,-155,-237,-189,-81
-70,-76,-6,73,-32,-41,83,28,-39,-151,-154,-96
-126,-99,27,112,-77,-35,126,84,16,-112,-153,-114
-168,-85,83,126,-125,-1,130,105,52,-103,-150,-117
-101,-92,9,96,-55,-41,129,113,73,-85,-133,-134
-116,-105,10,111,-63,-47,126,107,59,-96,-139,-136
-151,-75,76,113,-114,1,123,126,86,-56,-123,-101
-92,-53,39,72,-65,-7,121,131,89,-44,-135,-97
-85,-48,37,67,-61,-6,120,129,109,-28,-126,-100
-79,-44,34,62,-56,-5,126,142,124,-24,-132,-113
-60,-37,24,48,-42,-7,129,143,123,-13,-128,-116
-94,-33,61,63,-77,14,131,164,153,12,-105,-87
-102,-25,76,63,-89,25,129,204,187,39,-83,-77
-69,-15,54,42,-62,19,130,214,218,64,-61,-84
-42,21,63,10,-53,42,130,245,271,107,-26,-59
-45,54,99,-5,-72,76,131,290,331,167,13,-27
3,92,89,-48,-44,90,129,322,384,218,43,-19
63,128,65,-96,-1,96,116,350,432,270,75,5
17,145,128,-81,-56,136,102,365,475,331,132,46
61,184,123,-123,-31,153,88,361,477,368,173,69
113,215,102,-164,5,159,69,332,465,388,196,86
87,233,145,-160,-29,189,47,298,464,399,221,106
109,195,86,-152,11,140,38,243,403,357,214,121
64,130,66,-98,-1,98,41,181,301,290,181,103
53,98,45,-76,4,71,44,138,204,199,117,55
50,51,0,-51,25,25,47,93,122,99,39,8
5,14,9,-10,-2,11,50,63,74,43,-6,-17
-16,-13,3,14,-9,-4,49,40,36,1,-22,-35
-64,-42,22,52,-43,-10,44,14,5,-36,-53,-48
-29,-53,-24,42,-3,-38,40,23,-24,-56,-76,-62
-34,-55,-21,44,-6,-37,38,25,-43,-56,-70,-71
-60,-48,12,54,-36,-18,33,19,-38,-49,-65,-50
-79,-44,35,61,-56,-4,30,18,-35,-46,-60,-29
-33,-38,-5,35,-14,-21,33,11,-32,-42,-55,-48
20,-32,-52,6,36,-42,37,10,-27,-35,-48,-53
-81,-29,53,55,-67,12,48,9,-24,-41,-47,-21
-59,-23,36,40,-47,7,51,10,-21,-51,-51,-27
-43,-36,6,40,-24,-15,49,10,-20,-50,-50,-37
-14,-38,-24,27,5,-31,50,10,-21,-55,-48,-40
-7,-19,-12,13,3,-15,50,10,-20,-55,-44,-40
-87,-13,73,50,-79,29,49,7,-20,-55,-49,-32
-55,-12,43,33,-49,15,44,0,-22,-55,-56,-54
-42,-7,35,24,-38,14,38,-11,-26,-56,-51,-56
-49,-5,44,27,-46,20,35,2,-28,-54,-45,-52
-98,-23,75,60,-86,26,30,2,-32,-59,-55,-49
-106,-33,73,69,-90,20,25,-6,-52,-79,-67,-51
-73,-29,44,51,-59,7,30,-6,-56,-81,-68,-75
-80,-29,51,55,-65,11,32,-21,-57,-79,-71,-65
-68,-25,43,46,-55,9,29,-20,-61,-81,-69,-53
-67,-24,43,46,-54,9,30,-21,-61,-79,-66,-56
-58,-28,31,43,-44,1,25,-26,-65,-82,-65,-54
-64,-31,34,47,-49,2,25,-24,-67,-84,-65,-55
-50,-36,14,43,-31,-11,26,-27,-70,-86,-74,-56
-44,-44,0,44,-22,-22,24,-31,-73,-83,-70,-51
-111,-58,52,84,-81,-3,35,-34,-76,-87,-76,-52
-86,-42,44,63,-64,1,41,-38,-71,-83,-96,-44
-31,-37,-5,34,-13,-21,42,-40,-65,-83,-104,-50
-68,-82,-13,75,-27,-47,47,-35,-59,-95,-99,-63
-69,-69,0,69,-34,-34,37,-27,-53,-74,-77,-35
-70,-44,26,57,-48,-9,53,-22,-48,-58,-62,-23
-54,-42,12,48,-32,-15,75,-14,-27,-52,-53,-24
-57,-31,26,44,-41,-3,80,26,-10,-36,-42,-19
-82,-28,54,55,-68,13,97,48,0,-23,-35,-16
-45,-23,22,34,-33,-1,81,45,11,-26,-36,-17
-24,-20,3,22,-14,-8,36,39,9,-32,-35,-5
24,1,-23,-13,23,-11,-2,1,-6,-33,-36,3
18,31,13,-24,2,22,-33,-42,-48,-43,-40,13
-39,41,80,-1,-60,60,-45,-70,-80,-53,-40,33
-17,13,30,2,-24,21,-46,-71,-80,-59,-41,16
21,-6,-27,-7,24,-16,-43,-65,-80,-58,-38,-1
-15,-32,-16,24,1,-24,-15,-65,-85,-73,-53,-14
-54,-69,-15,61,-19,-42,23,-59,-84,-93,-75,-29
-75,-72,3,74,-39,-35,36,-54,-89,-91,-84,-44
-65,-92,-27,79,-19,-59,37,-49,-100,-101,-98,-57
-97,-99,-2,99,-47,-50,50,-42,-88,-101,-96,-46
-112,-124,-12,118,-50,-68,66,-39,-85,-105,-100,-55
-57,-115,-58,86,1,-86,68,-31,-70,-98,-102,-65
-104,-89,15,97,-59,-37,68,-25,-80,-93,-95,-62
-84,-97,-12,91,-36,-55,77,-12,-84,-94,-109,-65
-26,-71,-45,49,10,-57,69,-11,-68,-80,-118,-76
-66,-64,1,65,-33,-31,92,38,-21,-91,-140,-95
-58,-9,49,33,-54,20,70,77,84,57,-6,-25
170,101,-68,-135,119,16,-236,-305,-161,222,329,191
784,588,-197,-686,490,195,-935,-870,-303,865,1276,780
1241,668,-573,-954,907,47,-1405,-1127,-341,1196,1805,1082
740,-62,-802,-339,771,-432,-1059,-1141,-949,-132,597,487
77,-220,-297,72,187,-258,-512,-789,-984,-840,-282,26
-32,-87,-55,60,11,-70,-185,-306,-405,-400,-208,-41
-58,-99,-42,79,-8,-70,7,-73,-155,-239,-197,-79
-78,-67,12,73,-45,-27,87,43,-44,-145,-154,-81
-92,-87,5,89,-48,-41,120,82,-17,-122,-158,-110
-131,-69,62,100,-96,-3,133,104,26,-87,-139,-106
-124,-77,47,100,-85,-15,142,111,65,-64,-127,-99
-107,-69,38,88,-72,-15,132,118,66,-69,-121,-97
-101,-69,32,85,-66,-19,130,147,93,-53,-109,-90
-99,-69,30,84,-64,-20,126,144,87,-55,-111,-90
-93,-62,31,77,-62,-15,119,149,100,-30,-101,-83
-66,-68,-1,67,-32,-34,131,151,128,-16,-100,-82
-90,-57,34,73,-62,-11,141,150,130,-4,-94,-76
-128,-38,90,83,-109,26,140,163,149,15,-79,-57
-85,-22,64,53,-74,21,140,202,190,59,-59,-42
-63,-12,52,37,-57,20,140,228,218,84,-50,-35
-49,10,58,19,-54,34,140,257,266,111,-33,-24
-27,49,76,-11,-52,62,145,314,330,171,3,-2
-10,81,91,-36,-51,86,142,336,372,216,36,15
52,97,45,-75,4,71,130,360,429,265,81,29
63,127,64,-95,-1,96,121,377,483,329,148,86
37,155,118,-96,-41,136,103,369,496,359,184,121
116,197,81,-157,18,139,77,362,489,375,205,119
152,215,62,-184,45,138,50,313,456,372,224,132
113,179,66,-147,23,122,30,246,378,317,209,124
49,130,82,-90,-17,106,28,188,281,257,168,96
17,50,33,-34,-8,41,20,139,201,176,100,50
30,21,-9,-26,20,5,25,100,127,92,43,11
7,17,10,-12,-1,13,41,67,74,34,9,-5
0,-43,-43,22,22,-42,39,54,30,-17,-39,-41
-91,-72,19,81,-55,-26,46,40,-2,-46,-70,-63
-99,-69,30,84,-65,-19,51,31,-7,-51,-70,-58
-36,-71,-35,54,0,-53,49,25,-18,-53,-69,-56
-52,-69,-18,61,-17,-43,51,17,-35,-57,-71,-54
-72,-71,1,71,-36,-35,50,10,-35,-46,-68,-48
-71,-69,2,70,-36,-33,47,1,-28,-55,-75,-57
-40,-63,-22,52,-9,-42,41,14,-25,-72,-86,-71
-45,-58,-12,52,-16,-35,36,22,-19,-70,-84,-70
-64,-52,12,58,-38,-20,33,16,-17,-69,-80,-70
-66,-47,20,56,-43,-13,27,16,-9,-65,-78,-70
-26,-41,-15,33,-6,-27,24,11,-16,-65,-74,-70
-49,-44,5,46,-27,-19,20,10,-31,-63,-73,-68
-93,-46,47,69,-70,1,20,9,-27,-60,-58,-61
-78,-49,29,64,-54,-10,35,15,-23,-57,-49,-64
-31,-49,-18,41,-7,-33,38,22,-21,-54,-74,-81
2,-23,-25,11,13,-24,30,8,-14,-51,-83,-72
-53,-17,36,35,-44,9,27,-2,-22,-50,-78,-52
-60,-35,25,48,-42,-5,19,-15,-42,-71,-81,-59
-64,-36,28,49,-45,-4,17,-26,-39,-82,-79,-66
-72,-28,44,49,-58,8,28,-21,-36,-79,-81,-65
-50,-39,10,45,-30,-14,31,-16,-32,-80,-84,-65
-43,-48,-4,46,-19,-26,29,-11,-30,-75,-85,-60
-10,-16,-7,13,-1,-11,27,-4,-56,-75,-85,-60
-38,-17,21,28,-29,2,24,-1,-67,-75,-85,-59
-75,-32,43,53,-59,5,26,-4,-64,-75,-85,-53
-51,-23,28,37,-40,3,29,-9,-66,-75,-82,-50
-62,-46,15,54,-38,-15,34,-11,-64,-75,-80,-45
-94,-58,36,76,-65,-11,33,-15,-65,-75,-76,-40
-69,-45,23,57,-46,-11,28,-20,-61,-75,-74,-41
-49,-39,10,44,-29,-14,30,-17,-54,-79,-70,-38
-47,-30,18,38,-32,-6,19,-9,-48,-80,-71,-45
-66,-22,44,44,-55,11,38,-1,-41,-72,-78,-48
-65,-13,52,39,-58,19,63,6,-34,-67,-66,-44
-60,12,72,23,-66,42,75,16,-30,-58,-57,-28
-10,47,57,-18,-34,51,74,16,-29,-54,-60,-34
33,49,16,-41,8,32,37,2,-31,-42,-57,-43
-40,41,81,-1,-61,61,-9,-12,-28,-27,-53,-13
11,40,29,-26,-9,35,-55,-43,-42,-58,-49,-42
-2,32,34,-15,-18,33,-59,-73,-78,-91,-47,-61
5,32,28,-19,-11,30,-65,-77,-93,-98,-39,-50
33,5,-28,-19,30,-12,-62,-68,-96,-103,-44,-59
-61,-27,34,44,-48,4,-36,-59,-95,-97,-46,-50
-33,-33,0,33,-17,-16,-28,-56,-92,-103,-70,-65
-35,-73,-38,54,1,-55,-14,-51,-89,-126,-105,-88
-48,-100,-52,74,2,-76,1,-47,-90,-129,-104,-89
-62,-93,-31,78,-15,-61,24,-42,-86,-123,-103,-81
-91,-95,-4,93,-43,-50,33,-38,-78,-116,-96,-79
-74,-97,-22,85,-25,-59,37,-33,-78,-117,-100,-75
-76,-91,-16,84,-30,-53,32,-28,-68,-104,-89,-67
-81,-97,-16,89,-32,-57,39,-25,-71,-111,-107,-79
-74,-82,-8,78,-33,-45,33,-18,-53,-96,-93,-69
-81,-96,-15,89,-33,-55,59,-2,-33,-97,-106,-84
-107,-42,65,74,-86,12,107,93,67,-15,-101,-69
49,18,-32,-33,41,-7,-41,-31,11,114,86,12
502,324,-177,-412,339,73,-559,-584,-279,490,770,451
1107,746,-361,-926,734,192,-1238,-1018,-262,1287,1849,1094
1055,308,-747,-681,900,-219,-1261,-1174,-668,620,1319,829
297,-180,-477,-58,387,-329,-706,-1018,-1156,-741,-68,167
-34,-131,-97,82,32,-114,-309,-514,-684,-621,-267,-25
-31,-103,-72,67,21,-87,-83,-176,-246,-274,-200,-87
-62,-55,6,59,-34,-24,59,-23,-89,-178,-188,-100
-114,-52,62,83,-88,5,123,66,8,-100,-152,-98
-134,-49,85,91,-109,18,127,68,19,-105,-161,-102
-108,-37,72,72,-90,17,124,102,64,-67,-131,-98
-107,-41,66,74,-86,12,132,116,59,-75,-139,-102
-60,-21,39,40,-49,9,128,112,65,-53,-118,-98
-143,-46,97,94,-120,25,133,112,61,-51,-118,-85
-116,-62,54,89,-85,-4,135,101,71,-48,-110,-90
-53,-34,20,43,-36,-7,135,122,101,-38,-103,-103
-92,-25,67,58,-79,21,131,140,113,-33,-101,-88
-92,-31,60,61,-76,14,126,147,129,9,-90,-76
-135,-22,113,79,-124,45,121,166,155,37,-75,-71
-84,14,97,35,-90,55,118,179,190,57,-52,-58
-59,40,99,9,-79,69,111,213,228,93,-47,-58
-29,53,82,-12,-56,67,112,245,262,126,-32,-37
19,98,80,-59,-31,89,122,272,323,188,16,7
-13,139,152,-63,-83,145,109,304,387,248,73,40
53,168,115,-111,-31,141,95,330,435,305,126,66
103,191,88,-147,7,139,79,331,447,333,129,57
85,216,132,-151,-24,174,63,316,432,349,168,90
126,233,107,-180,10,169,42,287,433,376,229,127
124,199,75,-162,24,137,14,232,388,349,220,104
84,159,75,-122,4,117,10,174,303,283,185,90
49,115,66,-82,-8,90,9,122,220,209,134,63
-1,77,77,-39,-39,77,24,74,144,145,85,33
-15,48,63,-17,-40,55,44,40,90,73,31,13
-7,10,17,-2,-12,13,35,33,33,12,-13,-6
-24,-14,10,19,-17,-2,39,31,0,-22,-36,-17
-61,-32,30,46,-45,-1,52,27,-4,-40,-47,-30
-66,-25,41,46,-53,7,50,24,-14,-46,-48,-35
-68,-26,42,47,-54,7,50,21,-20,-47,-61,-42
-19,-48,-28,34,5,-38,47,18,-34,-62,-79,-69
-35,-33,1,34,-18,-16,44,16,-40,-64,-80,-53
-93,-18,75,55,-83,28,45,12,-30,-38,-75,-32
-72,-13,59,42,-65,23,41,10,-25,-48,-73,-35
-54,-12,42,33,-47,14,36,7,-17,-57,-68,-22
-15,-27,-13,21,-1,-20,31,1,-11,-43,-66,-25
-55,-25,31,40,-43,3,28,-4,-21,-33,-60,-7
-50,-18,32,34,-41,7,21,-10,-27,-23,-50,-18
-31,-14,17,23,-24,1,25,2,-24,-19,-40,-11
-100,-4,95,52,-97,45,36,17,-25,-9,-29,26
-104,-17,87,60,-95,34,30,7,-31,-43,-44,-14
-109,-30,79,69,-94,24,25,-2,-46,-78,-58,-29
-108,-25,84,67,-96,29,22,-9,-56,-72,-41,-28
-53,-15,39,34,-46,12,14,-21,-55,-70,-48,-37
-52,-26,26,39,-39,0,22,-8,-55,-66,-73,-37
-78,-45,33,61,-55,-6,46,-9,-55,-61,-75,-41
-79,-45,34,62,-56,-6,51,-35,-55,-61,-75,-39
-89,-44,44,66,-66,0,49,-33,-55,-65,-80,-45
-86,-44,42,64,-64,-1,54,-28,-55,-65,-80,-45
-62,-38,24,50,-43,-6,55,-26,-55,-62,-79,-43
-38,-34,4,36,-21,-15,55,-29,-55,-59,-75,-40
-54,-58,-5,56,-24,-31,50,-30,-55,-65,-75,-37
-39,-65,-26,52,-6,-45,45,-30,-55,-77,-72,-35
-73,-55,17,64,-45,-19,39,-27,-55,-73,-70,-32
-107,-65,42,85,-74,-11,38,-7,-55,-70,-70,-28
-73,-63,10,68,-41,-26,28,-17,-52,-68,-67,-27
-47,-51,-4,49,-22,-27,40,-31,-44,-64,-61,-23
-51,-35,16,43,-33,-10,66,-23,-36,-63,-57,-21
-80,-27,53,53,-66,13,64,-11,-28,-47,-52,-19
-67,-20,47,43,-57,13,70,-5,-21,-40,-48,-13
-54,-18,36,36,-45,9,88,16,-13,-32,-44,-8
-2,-11,-9,7,3,-10,75,31,-4,-23,-36,0
-22,-10,12,16,-17,1,23,-2,-2,-14,-28,-1
-55,0,55,27,-55,27,-13,-39,-11,0,-15,30
-7,19,26,-6,-17,22,-45,-69,-40,-54,-30,28
-7,-22,-15,15,4,-19,-56,-73,-73,-94,-52,-6
-32,-68,-36,50,3,-51,-31,-62,-76,-88,-48,12
-51,-63,-12,57,-19,-38,-13,-56,-73,-95,-54,-8
-39,-65,-26,52,-6,-45,8,-47,-84,-93,-68,-45
-38,-113,-75,76,19,-94,27,-42,-65,-105,-89,-56
-74,-140,-67,107,-3,-103,42,-39,-46,-110,-94,-62
-89,-133,-44,111,-22,-88,52,-41,-61,-112,-102,-66
-72,-135,-63,104,-4,-99,55,-34,-57,-106,-96,-57
-59,-137,-78,98,10,-107,59,-36,-56,-114,-110,-47
-55,-132,-77,93,12,-104,64,-33,-47,-106,-100,-48
-59,-135,-75,97,8,-105,65,-27,-48,-108,-98,-75
-61,-115,-54,89,-3,-84,63,-14,-37,-90,-80,-57
-66,-113,-47,89,-9,-80,76,5,-32,-77,-62,-31
-65,-79,-14,72,-25,-46,96,71,50,-54,-132,-81
36,-17,-53,-9,44,-35,20,31,63,119,56,5
403,249,-154,-326,278,48,-447,-461,-260,482,730,424
974,739,-235,-856,604,252,-1135,-950,-348,1339,1912,1105
933,410,-524,-671,728,-57,-1192,-1084,-657,942,1662,998
244,-242,-487,-1,366,-364,-658,-939,-1138,-615,43,181
-70,-217,-147,144,39,-181,-279,-496,-745,-710,-340,-90
-51,-110,-59,81,4,-84,-82,-168,-273,-298,-202,-94
-30,-87,-57,58,14,-72,53,-3,-82,-209,-198,-112
-10,-75,-64,43,27,-69,105,78,29,-120,-135,-103
-72,-79,-8,75,-31,-43,108,73,24,-121,-169,-143
-61,-68,-7,64,-27,-37,100,89,54,-73,-137,-136
-82,-71,11,76,-46,-29,112,102,72,-86,-147,-132
-120,-62,58,91,-89,-2,112,112,90,-73,-131,-121
-97,-74,23,85,-60,-25,106,102,82,-75,-128,-113
-85,-66,19,76,-52,-23,101,123,100,-70,-125,-106
-60,-51,9,56,-35,-21,94,134,107,-62,-119,-103
-56,-57,-1,57,-27,-29,91,136,104,-55,-119,-99
-49,-56,-7,53,-21,-31,96,140,131,-28,-114,-96
-60,-27,33,43,-46,3,96,152,161,2,-106,-90
-52,-5,48,28,-50,21,91,183,191,33,-95,-92
5,3,-2,-5,3,1,89,185,211,34,-74,-100
-5,36,41,-16,-23,39,84,229,270,99,-38,-58
-35,64,98,-15,-67,81,82,271,335,160,-10,-34
19,112,93,-66,-37,103,77,279,376,201,42,-25
58,144,85,-101,-14,114,73,283,414,265,100,25
85,155,70,-120,8,112,45,270,432,303,124,51
114,202,88,-158,13,145,13,265,435,322,150,57
116,212,96,-164,10,154,6,246,423,314,182,71
134,209,75,-172,29,142,1,211,383,306,180,73
119,188,69,-154,25,128,-6,166,316,266,172,67
70,141,71,-105,-1,106,-9,118,227,188,137,53
37,94,56,-66,-10,75,-4,83,142,116,62,23
-9,39,48,-15,-29,43,8,51,84,51,12,-9
-23,-6,17,14,-20,5,17,30,38,0,-30,-36
-9,-29,-21,19,6,-25,28,25,11,-47,-72,-64
-56,-40,15,48,-35,-12,37,20,4,-71,-87,-75
-34,-41,-7,37,-13,-23,36,14,-3,-70,-81,-61
-31,-27,4,29,-17,-11,33,9,-9,-69,-78,-44
-48,-69,-21,58,-13,-45,30,2,-17,-66,-76,-54
-39,-60,-21,50,-9,-41,28,8,-19,-63,-67,-71
-91,-17,74,54,-82,28,24,12,-14,-69,-81,-63
-77,-33,44,55,-60,5,25,9,-9,-75,-101,-58
-26,-25,0,26,-12,-12,25,10,-5,-72,-101,-53
-8,-23,-14,16,3,-18,24,10,0,-67,-96,-47
-36,-19,17,27,-26,-1,31,9,5,-62,-82,-45
-56,-16,41,35,-48,12,32,3,0,-56,-68,-45
-57,-10,47,33,-52,18,24,-3,-8,-51,-64,-45
-79,-14,65,46,-72,26,17,-8,-15,-46,-66,-46
-69,-25,44,47,-56,9,10,-14,-19,-39,-63,-52
-33,-23,10,28,-22,-6,0,-19,-28,-64,-75,-57
-48,-32,16,40,-32,-8,16,-17,-35,-88,-92,-53
-50,-28,22,39,-36,-3,37,-15,-19,-84,-90,-58
-41,-24,18,32,-29,-3,34,-15,-42,-86,-88,-61
-71,-19,51,45,-61,16,35,-10,-72,-85,-85,-70
-96,-27,69,61,-82,21,34,-10,-69,-85,-84,-81
-95,-52,43,73,-68,-4,36,-9,-71,-82,-84,-58
-100,-55,46,77,-73,-4,33,-6,-70,-80,-75,-43
-83,-46,37,64,-60,-5,30,-15,-70,-80,-70,-44
-33,-47,-13,40,-10,-30,29,-29,-68,-77,-85,-60
-54,-38,16,45,-35,-11,30,-30,-61,-74,-88,-56
-22,-34,-12,28,-5,-23,46,-25,-54,-77,-77,-43
-3,-33,-29,18,13,-31,58,-23,-48,-85,-74,-63
-59,-19,39,39,-49,10,53,-18,-40,-80,-65,-45
-64,-38,25,51,-44,-6,55,-15,-36,-75,-60,-28
-58,-44,14,51,-36,-14,57,-12,-46,-69,-65,-30
-52,-32,20,42,-36,-6,51,-9,-38,-64,-62,-23
-24,-22,2,23,-13,-10,68,-6,-27,-60,-57,-24
-49,-6,43,27,-46,18,46,-3,-37,-80,-50,-18
-30,13,44,8,-37,28,164,4,-55,-127,-46,-21
1,23,22,-12,-11,22,316,16,-55,-134,-36,-19
-25,30,55,-3,-40,42,241,13,-21,-121,-33,-21
