I,II,III,aVR,aVL,aVF,V1,V2,V3,V4,V5,V6
-126,225,351,-50,-239,288,-56,-181,252,176,189,239
-116,231,347,-58,-232,289,-56,-187,241,163,178,233
-130,244,374,-57,-252,308,-52,-173,245,155,174,227
-153,229,382,-38,-267,305,-61,-175,250,180,196,233
-158,225,382,-34,-270,303,-46,-165,237,124,144,211
-136,226,362,-45,-249,294,-67,-133,298,233,222,235
-120,259,379,-70,-249,319,-37,88,543,510,495,316
284,625,341,-455,-29,483,-121,643,1460,1891,1828,1010
347,769,422,-558,-38,595,-456,-496,422,1332,1613,1293
-200,359,560,-80,-380,460,-560,-1881,-1447,-1046,-312,511
-211,212,423,-1,-317,318,-357,-1090,-740,-710,-310,218
-127,249,375,-61,-251,312,-133,-299,93,42,92,266
-166,222,388,-28,-278,305,-54,-120,250,105,119,224
-124,238,361,-57,-242,299,-49,-39,352,249,219,247
-150,224,373,-37,-262,298,-35,-62,310,188,150,219
-108,237,345,-65,-227,291,-43,-23,380,268,206,231
-119,226,345,-54,-232,285,-34,-33,364,227,181,230
-99,238,336,-69,-218,287,-36,-11,390,260,216,232
-69,273,342,-102,-206,307,-34,-5,406,284,232,232
-94,256,350,-81,-222,303,-30,16,429,304,249,256
-64,266,330,-101,-198,298,-29,50,456,333,261,272
-73,257,330,-92,-202,293,-25,67,476,352,258,257
-62,267,329,-103,-196,298,-23,105,518,401,282,274
-14,320,334,-154,-174,327,-19,165,576,451,323,294
-20,314,334,-148,-177,324,-23,219,635,506,375,319
-25,313,338,-144,-182,325,-30,278,690,551,387,340
-20,319,339,-149,-180,328,-30,310,724,584,411,343
-22,318,341,-148,-182,329,-32,295,711,571,423,360
-30,341,370,-156,-200,355,-43,285,698,560,422,377
-21,356,377,-168,-199,366,-47,231,656,547,428,371
-48,325,373,-139,-210,348,-41,143,581,489,399,358
-92,284,376,-96,-234,330,-36,47,478,386,338,334
-99,275,374,-89,-237,324,-31,-48,377,295,282,295
-102,272,374,-85,-238,323,-25,-93,314,236,232,251
-103,266,370,-81,-237,318,-20,-122,281,198,194,229
-108,259,367,-75,-238,313,-14,-130,279,194,177,217
-113,253,366,-70,-240,309,-8,-120,280,195,161,205
-113,246,359,-66,-236,302,-1,-113,279,195,166,206
-124,239,363,-57,-244,301,17,-105,284,195,184,204
-100,248,348,-74,-224,297,37,-95,291,194,187,201
-104,244,348,-70,-226,295,40,-85,296,198,180,198
-128,252,379,-62,-254,315,41,-77,309,217,199,203
-107,294,401,-93,-255,347,38,-47,336,248,244,230
-102,338,441,-118,-272,389,46,0,384,288,267,251
-77,360,438,-142,-258,399,49,37,436,335,310,270
-71,319,390,-124,-231,355,3,-34,375,297,300,262
-71,292,363,-111,-218,327,-30,-137,282,229,233,239
-60,297,358,-119,-209,327,-30,-152,254,222,218,236
-75,280,355,-103,-215,318,-31,-146,238,205,209,226
-57,288,345,-116,-202,316,-23,-143,238,193,211,222
-90,255,344,-83,-217,299,14,-143,221,162,195,212
-117,218,335,-51,-226,277,34,-130,227,174,203,200
-109,224,333,-57,-221,278,38,-145,202,151,184,184
-115,210,325,-48,-221,268,43,-131,227,160,192,183
-133,187,320,-27,-227,253,35,-150,213,148,183,180
-144,174,318,-15,-231,245,50,-131,223,137,171,172
-116,185,302,-35,-209,243,54,-147,224,174,188,178
-136,181,317,-23,-227,249,68,-137,204,122,138,158
-111,183,294,-37,-202,238,49,-84,277,236,214,157
-76,205,280,-65,-178,242,82,105,494,493,477,238
284,572,288,-428,-2,430,1,733,1506,1965,1861,950
335,774,440,-555,-53,607,-332,-228,648,1635,1831,1281
-198,347,545,-75,-372,446,-427,-1672,-1389,-936,-236,442
-217,181,398,18,-307,289,-282,-1043,-838,-791,-390,96
-127,229,356,-51,-242,292,-83,-300,20,-6,62,171
-145,191,336,-23,-241,263,42,-103,202,74,95,115
-100,217,317,-59,-209,267,58,-8,338,255,232,143
-135,190,325,-28,-230,257,76,-27,288,183,168,113
-121,182,303,-31,-212,243,67,8,348,266,223,121
-95,216,311,-61,-203,263,71,-5,324,224,187,117
-86,194,280,-54,-183,237,70,12,353,250,191,109
-93,207,300,-57,-197,254,70,22,368,265,208,130
-101,219,321,-59,-211,270,68,52,379,297,235,155
-92,200,292,-54,-192,246,64,73,413,334,253,156
-74,229,303,-78,-189,266,66,100,438,349,263,152
-88,217,305,-65,-197,261,60,138,482,396,282,158
-62,236,298,-87,-180,267,61,185,537,418,279,150
-19,278,297,-130,-159,288,59,253,608,491,321,170
-18,274,292,-128,-156,283,53,320,674,560,361,202
-9,281,290,-136,-150,286,48,358,717,605,386,215
-6,281,287,-138,-147,284,41,346,720,609,408,232
4,288,284,-147,-140,286,37,343,708,599,410,246
13,317,304,-165,-146,310,31,281,642,559,383,234
-28,324,352,-148,-191,338,27,172,540,471,354,225
-70,288,358,-109,-214,322,21,66,424,372,297,207
-89,268,357,-90,-223,312,17,-33,309,280,238,171
-101,246,347,-73,-224,296,13,-82,279,218,187,157
-101,247,347,-73,-224,297,9,-125,261,182,157,167
-98,261,358,-82,-228,309,49,15,320,250,195,165
-112,336,448,-112,-280,391,55,105,420,339,256,194
-121,440,561,-160,-341,500,26,63,601,507,380,273
-163,503,666,-170,-415,584,-97,-415,485,491,414,310
-178,913,1091,-367,-635,1002,-513,-1650,-332,358,800,672
-55,1136,1191,-541,-623,1163,-1018,-2652,-1566,-48,1339,1261
-18,947,965,-465,-492,956,-1218,-3035,-2595,-1145,1103,1475
-49,847,896,-400,-473,871,-1069,-2638,-2443,-1613,706,1469
-37,490,527,-227,-282,508,-725,-1740,-1712,-1406,266,1156
-49,187,236,-69,-143,212,-425,-1031,-1063,-1016,-37,804
-33,179,212,-73,-123,195,-272,-433,-306,-304,117,633
-69,123,192,-27,-131,158,-81,14,204,129,93,228
-85,104,189,-10,-137,146,69,262,443,315,53,-2
-52,107,158,-28,-105,132,109,370,539,397,80,-6
-82,67,149,7,-116,108,150,448,596,426,41,-59
-94,45,140,24,-117,92,192,532,660,476,43,-83
-94,37,131,29,-113,84,224,609,720,511,38,-109
-110,18,128,46,-119,73,247,715,801,576,40,-137
-101,-8,93,54,-97,42,274,822,891,641,41,-171
-82,-25,57,53,-69,16,304,941,993,726,37,-188
-75,-21,54,48,-64,16,338,1062,1111,820,55,-208
-67,-11,56,39,-61,22,371,1168,1231,923,79,-240
-57,-5,53,30,-55,24,388,1248,1350,1052,126,-249
-44,18,62,13,-53,39,375,1263,1457,1180,200,-240
-16,69,85,-27,-51,77,363,1235,1484,1276,281,-206
-16,117,133,-51,-75,125,334,1140,1446,1290,369,-151
-11,184,195,-86,-103,189,266,951,1320,1246,441,-68
-4,248,252,-122,-128,250,190,721,1103,1129,497,44
-19,286,305,-134,-162,295,110,488,877,939,503,147
-24,307,331,-142,-177,319,44,293,660,741,463,215
-53,287,340,-117,-197,313,-3,137,476,547,394,228
-77,257,333,-90,-205,295,-38,43,346,394,305,212
-88,229,317,-71,-203,273,-46,-13,267,291,224,203
-102,207,309,-53,-206,258,-44,-56,207,220,160,182
-115,187,302,-36,-209,244,-51,-75,165,174,129,169
-125,171,296,-23,-210,233,-49,-87,149,145,118,163
-123,166,289,-22,-206,227,-58,-98,140,139,114,155
-121,161,282,-21,-202,222,-76,-127,135,133,110,151
-120,158,278,-19,-199,218,-76,-138,123,120,105,140
-122,152,274,-15,-198,213,-95,-134,106,106,100,155
-122,150,272,-14,-197,211,-108,-136,92,95,100,173
-131,137,268,-3,-200,202,-104,-135,89,90,100,169
-112,154,266,-22,-190,210,-106,-135,90,85,100,170
-87,177,264,-46,-176,220,-105,-136,85,79,100,170
-98,167,265,-35,-182,216,-105,-153,84,73,100,170
-101,164,265,-32,-183,215,-99,-156,84,68,100,167
-101,157,259,-28,-180,208,-94,-155,80,65,100,164
-129,152,282,-12,-206,217,-89,-156,76,64,100,164
-118,151,268,-17,-193,209,-83,-155,73,65,100,158
-91,161,252,-35,-172,206,-77,-154,69,64,100,164
-116,177,293,-31,-205,235,-78,-149,65,65,100,184
-116,174,289,-29,-203,231,-91,-144,68,68,100,186
-106,176,282,-35,-195,229,-89,-139,71,71,100,184
-102,174,277,-36,-190,225,-92,-136,69,69,100,186
-90,175,266,-42,-178,220,-104,-129,69,70,100,184
-114,175,289,-31,-202,232,-100,-134,63,70,99,186
-112,174,286,-31,-199,229,-92,-135,65,70,101,190
-101,177,278,-38,-190,227,-87,-135,68,78,104,196
-108,170,278,-31,-194,224,-78,-131,73,81,111,197
-86,226,311,-70,-199,268,-75,-93,124,110,137,217
-69,300,369,-116,-219,334,-68,-65,177,150,170,248
-75,309,385,-117,-230,347,-81,-75,181,158,176,256
-96,280,376,-92,-236,328,-125,-118,144,138,161,254
-100,239,340,-70,-220,289,-145,-153,107,106,150,249
-68,229,297,-81,-182,263,-137,-147,90,87,136,243
-43,227,271,-92,-157,249,-137,-139,81,94,138,243
-62,194,257,-66,-160,225,-133,-137,68,75,124,230
-76,172,248,-49,-162,210,-118,-122,77,83,127,246
-82,161,244,-40,-163,202,-105,-127,60,67,115,224
-85,149,234,-32,-160,191,-93,-109,67,65,112,188
-92,138,230,-24,-161,184,-88,-121,58,72,115,187
-95,127,222,-16,-159,175,-70,-111,56,49,98,173
-90,132,222,-21,-156,177,-71,-117,71,92,126,178
-124,117,241,3,-183,179,-48,-115,41,25,77,154
-98,129,227,-16,-163,178,-53,-65,123,118,138,169
-104,123,227,-10,-166,175,-40,36,240,250,259,191
202,412,211,-307,-5,311,-81,607,1115,1457,1459,785
426,741,315,-584,56,528,-429,-97,678,1685,1975,1367
-49,389,438,-170,-243,413,-624,-1690,-1406,-746,44,715
-240,81,321,80,-280,201,-446,-1284,-1206,-1084,-540,169
-131,114,245,8,-188,180,-179,-328,-169,-136,-15,165
-114,113,226,0,-170,169,-57,-97,38,-51,-11,113
-84,124,208,-21,-146,166,-71,3,183,134,116,151
-95,118,213,-11,-154,166,-61,4,152,87,87,145
-86,119,205,-17,-145,161,-70,30,203,129,122,153
-71,131,202,-30,-137,166,-70,28,204,121,115,156
-51,152,203,-51,-127,177,-69,36,216,122,123,155
-109,128,237,-10,-173,182,-71,40,225,145,143,166
-107,135,242,-14,-175,188,-69,45,234,152,126,163
-58,180,238,-61,-148,208,-71,63,268,197,146,179
-70,172,242,-51,-157,207,-69,82,277,203,156,192
-61,176,238,-58,-150,207,-71,101,307,237,169,197
-68,174,242,-53,-155,207,-70,132,339,263,181,205
-62,177,239,-58,-150,208,-70,173,384,300,203,216
-61,176,237,-58,-149,206,-70,213,421,334,212,214
-63,171,235,-54,-149,203,-70,249,446,342,221,212
-26,208,234,-91,-130,221,-70,243,453,329,219,208
-13,224,237,-106,-125,230,-70,238,445,322,219,216
-14,217,231,-102,-122,223,-76,228,434,312,220,232
-23,223,245,-100,-134,234,-82,192,414,303,220,247
-9,229,238,-110,-124,234,-88,144,369,275,217,266
-17,230,247,-106,-132,238,-91,87,319,241,212,255
-58,224,282,-83,-171,253,-88,24,258,206,207,242
-55,208,263,-77,-159,235,-85,-35,196,157,167,223
-75,182,257,-54,-166,220,-83,-55,170,122,141,199
-87,173,261,-43,-174,217,-80,-58,170,114,148,200
-91,169,259,-39,-175,214,-78,-68,173,115,148,200
-104,159,263,-28,-184,211,-74,-61,176,114,153,200
-90,176,266,-44,-178,221,-72,-49,179,117,154,199
-60,203,263,-72,-162,233,-69,-42,180,126,156,201
-50,209,259,-80,-155,233,-65,-31,179,145,153,199
-77,198,275,-61,-176,236,-65,-29,182,164,157,201
-60,222,282,-81,-171,251,-64,-3,224,197,200,238
-29,268,297,-120,-163,283,-67,63,276,233,235,268
-38,289,327,-126,-183,308,-61,81,307,260,258,279
-51,276,327,-112,-189,301,-80,28,282,242,254,270
-35,232,267,-99,-151,249,-114,-45,194,166,213,253
-19,215,234,-98,-127,224,-107,-92,136,127,186,245
-40,198,238,-79,-139,218,-93,-95,116,108,174,229
-46,179,224,-67,-135,201,-85,-93,112,111,173,222
-73,150,223,-39,-148,186,-59,-98,98,93,155,205
-85,128,213,-22,-149,170,-30,-85,106,98,159,195
-89,122,211,-16,-151,166,-16,-97,88,81,116,178
-103,103,206,-1,-155,155,-11,-82,96,74,103,157
-91,110,201,-10,-146,155,-6,-90,87,73,107,142
-85,116,201,-16,-143,158,6,-76,87,37,84,127
-66,121,187,-28,-126,154,4,-75,101,78,114,132
-79,117,196,-19,-138,156,29,-76,69,24,57,104
-41,133,173,-46,-108,153,17,-42,141,123,124,125
-74,118,192,-22,-133,154,46,69,264,268,267,157
229,378,149,-303,39,263,9,717,1216,1563,1490,746
463,669,206,-567,128,438,-331,-4,740,1720,1860,1246
-65,318,383,-126,-224,350,-510,-1629,-1387,-786,-96,543
-207,58,266,74,-237,162,-348,-1191,-1124,-1022,-524,86
-87,122,209,-18,-148,165,-106,-295,-142,-112,-22,147
-107,112,219,-3,-163,165,14,-88,49,-43,-16,97
-39,123,161,-43,-100,142,33,22,216,148,131,119
-62,113,175,-26,-119,144,59,16,160,80,78,92
-44,112,156,-34,-100,134,48,59,220,153,115,96
-53,111,164,-30,-108,137,42,50,220,144,99,97
-80,105,186,-13,-133,145,37,57,229,155,118,111
-81,107,188,-13,-135,147,25,78,249,170,122,120
-77,103,180,-13,-130,142,26,94,260,176,134,118
-66,108,174,-21,-121,141,50,123,303,236,177,147
-43,125,168,-41,-106,146,58,146,323,246,154,143
-38,122,160,-42,-99,141,53,190,377,301,196,147
-36,120,156,-43,-96,138,56,245,430,339,213,142
-7,136,143,-65,-75,139,57,309,493,394,244,156
11,160,148,-86,-69,154,57,363,553,451,293,186
19,190,170,-105,-76,180,44,396,585,487,296,192
-13,193,206,-91,-110,200,32,406,593,499,292,215
2,220,218,-112,-109,219,27,378,570,490,283,228
6,219,213,-113,-104,216,31,311,518,443,273,226
-29,186,216,-79,-123,201,35,232,436,376,272,216
-33,184,217,-76,-125,200,37,120,323,274,227,183
-78,172,251,-47,-165,211,41,13,216,167,162,143
-123,150,274,-14,-199,212,44,-40,144,108,121,113
-116,130,246,-7,-181,188,47,-78,114,60,80,93
-106,122,227,-8,-167,174,49,-86,115,53,61,80
-110,115,225,-3,-168,170,53,-77,116,57,49,74
-111,105,216,3,-164,160,55,-76,119,53,51,68
-118,100,218,8,-168,159,60,-69,120,56,71,60
-136,85,221,26,-179,153,81,-66,121,59,78,56
-134,95,229,19,-181,161,84,-59,126,68,81,45
-87,140,226,-26,-157,183,63,-47,131,67,85,50
-77,157,235,-40,-156,195,67,-33,133,87,95,76
-82,191,273,-55,-178,232,71,-1,154,128,122,96
-57,248,305,-96,-182,277,73,35,206,158,157,120
-55,259,314,-102,-185,286,49,11,202,157,156,117
-32,218,250,-93,-141,234,-3,-65,129,107,137,107
-50,166,216,-59,-133,191,-13,-111,89,74,133,104
-61,176,237,-57,-150,206,-3,-118,72,63,117,92
-43,182,225,-70,-134,204,2,-112,65,64,112,89
-88,135,223,-24,-156,178,9,-115,50,56,83,80
-97,120,217,-11,-157,168,17,-106,43,51,64,77
-94,116,209,-11,-152,162,22,-112,35,54,65,75
-104,104,209,0,-157,157,35,-105,39,32,46,57
-95,102,198,-4,-147,150,29,-101,52,56,63,51
-114,88,202,13,-158,145,32,-107,20,11,25,36
-97,90,187,3,-142,139,26,-85,55,58,60,54
-119,75,193,22,-156,134,24,-115,0,-3,13,37
-100,79,179,10,-140,129,32,-57,58,52,51,60
-101,74,175,13,-138,124,47,-43,97,137,107,48
86,288,202,-187,-58,244,72,506,850,1042,958,416
420,698,278,-559,71,488,-184,488,1248,2121,2108,1189
52,502,450,-277,-200,476,-468,-1184,-844,19,583,814
-234,110,344,61,-289,226,-417,-1518,-1597,-1366,-725,70
-114,80,194,17,-154,137,-203,-526,-438,-353,-183,39
-147,67,214,39,-181,141,-20,-146,-67,-113,-88,15
-85,83,168,1,-127,126,5,-21,107,60,-5,37
-69,104,173,-18,-122,138,5,-8,115,85,15,37
-98,103,201,-3,-150,152,16,9,118,71,23,32
-91,107,199,-8,-145,153,16,17,147,127,47,72
-87,97,184,-6,-135,141,18,16,143,92,33,66
-73,102,175,-15,-124,138,2,33,177,125,75,73
-69,98,167,-15,-118,133,-1,29,162,108,48,68
-69,89,157,-10,-113,123,-14,48,192,150,74,70
-45,109,154,-33,-100,132,-18,64,218,167,82,80
-45,112,157,-34,-101,134,-15,89,250,195,93,85
-29,126,156,-49,-93,141,-16,134,288,237,118,86
-2,153,155,-76,-79,154,-12,184,348,284,140,112
-2,152,154,-76,-78,153,-10,241,405,338,160,126
29,179,150,-104,-61,165,-8,292,451,380,186,134
30,181,151,-105,-60,166,-27,307,465,383,193,146
31,178,146,-105,-58,162,-43,304,455,373,177,147
-3,183,186,-90,-95,184,-38,278,437,352,169,161
-42,173,215,-66,-129,194,-46,203,370,293,153,164
-13,195,207,-91,-110,201,-50,99,263,206,116,150
-32,179,211,-73,-122,195,-51,5,160,107,74,133
-76,134,209,-29,-143,171,-52,-66,80,41,21,108
-85,122,206,-19,-146,164,-49,-98,30,-7,-21,74
-96,109,205,-7,-151,156,-50,-108,21,-47,-38,67
-103,102,205,0,-154,153,-45,-118,2,-48,-54,56
-108,92,200,8,-154,146,-45,-113,-11,-38,-53,29
-118,81,200,19,-159,141,-44,-105,0,-33,-47,32
-106,93,199,6,-152,146,-39,-99,11,-25,-44,52
-72,123,194,-26,-133,158,-39,-91,35,-15,-29,72
-75,120,195,-23,-135,157,-33,-83,39,13,0,76
-66,129,196,-32,-131,162,-33,-64,65,56,36,99
-31,198,229,-84,-130,213,-27,-5,126,93,69,141
-39,215,255,-88,-147,235,-34,29,166,123,89,157
-37,198,236,-81,-137,217,-82,-27,140,100,72,160
-39,168,207,-65,-123,187,-117,-99,66,38,42,153
-34,144,178,-55,-106,161,-125,-147,9,-5,32,145
-16,154,169,-69,-92,161,-117,-150,-21,-35,17,134
-32,136,168,-52,-100,152,-109,-139,-9,-23,14,128
-62,103,164,-21,-113,133,-100,-143,-28,-41,-4,112
-77,85,161,-4,-119,123,-90,-128,-36,-35,-2,98
-88,72,160,8,-124,115,-81,-136,-42,-47,-15,82
-97,59,156,19,-127,107,-69,-120,-30,-66,-21,72
-92,57,149,17,-121,102,-69,-129,-30,-56,-18,66
-103,43,146,30,-125,94,-57,-118,-31,-84,-48,46
-89,47,136,21,-113,91,-63,-116,-11,-36,-26,64
-106,27,133,39,-120,80,-46,-122,-33,-104,-84,42
-92,25,116,33,-104,70,-56,-90,39,-15,3,70
-72,41,113,15,-93,76,-25,-2,126,102,92,73
209,341,132,-276,39,236,-54,594,1034,1317,1255,613
418,670,251,-544,83,460,-418,-56,682,1679,1906,1253
-34,306,340,-136,-187,323,-630,-1671,-1467,-789,-29,636
-190,22,212,84,-201,117,-459,-1301,-1316,-1221,-679,74
-61,72,133,-6,-97,102,-197,-342,-240,-244,-136,73
-79,44,123,17,-101,83,-66,-116,-59,-181,-155,10
-54,54,108,-1,-81,81,-68,-15,88,13,-23,53
-71,49,120,11,-95,84,-52,-10,67,-28,-64,44
-78,51,129,13,-103,90,-47,16,119,17,-28,54
-95,39,134,28,-115,86,-50,17,126,23,-23,61
-61,62,123,-1,-92,92,-49,30,139,26,-18,58
-43,74,117,-16,-80,96,-52,44,158,56,1,71
-45,67,111,-11,-78,89,-54,58,163,55,5,64
-33,70,103,-19,-68,86,-56,84,203,108,42,80
-39,74,112,-18,-76,93,-52,106,225,130,48,100
-19,112,130,-47,-75,121,-50,147,273,180,83,114
3,117,114,-60,-56,115,-50,198,322,221,103,129
3,111,108,-57,-53,109,-46,253,391,275,135,138
-1,125,126,-62,-64,125,-45,312,452,324,158,147
-9,150,160,-71,-85,155,-45,347,489,362,190,173
1,160,159,-81,-79,159,-55,334,502,358,197,182
33,170,136,-102,-52,153,-72,318,477,337,181,183
30,171,140,-101,-55,155,-75,288,438,329,185,191
11,169,158,-90,-74,163,-76,195,351,251,160,183
-15,173,188,-79,-101,180,-76,94,238,166,128,151
-41,143,184,-52,-112,163,-74,15,147,72,62,113
-70,117,187,-24,-128,152,-76,-51,88,13,37,103
-83,100,183,-9,-133,141,-74,-81,39,-30,17,91
-48,141,188,-47,-119,164,-73,-57,71,-1,25,111
5,233,228,-120,-112,231,-99,-11,205,179,198,215
77,400,323,-239,-123,361,-148,69,364,373,408,401
99,563,464,-331,-182,513,-155,166,576,667,693,589
164,937,772,-551,-304,854,-166,547,1122,1274,1254,1002
283,1477,1194,-880,-456,1335,-220,998,1923,2407,2354,1662
89,1730,1641,-909,-777,1685,-140,1059,2021,2374,2606,1925
-203,1641,1844,-719,-1024,1742,121,1211,1873,1288,1390,1401
-289,1070,1358,-391,-824,1214,223,636,1470,832,466,442
-260,516,776,-128,-518,646,22,-351,292,136,37,-8
-121,112,233,4,-177,172,-108,-373,-227,-300,-227,-66
-47,-215,-168,131,61,-191,-94,-296,-235,-300,-293,-181
-38,-256,-217,147,90,-236,-93,-331,-349,-412,-349,-190
-36,-276,-240,156,102,-258,-83,-297,-324,-369,-342,-190
-46,-262,-216,154,85,-239,-77,-325,-331,-391,-348,-181
-32,-247,-215,140,92,-231,-72,-306,-353,-405,-375,-210
-68,-276,-208,172,70,-242,-69,-331,-396,-438,-404,-242
-60,-321,-261,191,101,-291,-72,-344,-419,-488,-443,-261
-29,-364,-335,196,154,-349,-68,-356,-462,-520,-491,-304
-34,-413,-380,224,173,-397,-71,-375,-526,-574,-552,-339
-7,-476,-468,242,231,-472,-70,-383,-575,-610,-602,-377
6,-526,-532,260,269,-529,-75,-399,-635,-647,-632,-391
26,-552,-578,263,302,-565,-91,-397,-658,-646,-635,-383
62,-533,-594,236,328,-563,-104,-387,-646,-611,-597,-351
82,-497,-579,208,330,-538,-128,-363,-597,-529,-503,-286
93,-397,-490,152,292,-443,-133,-273,-475,-376,-351,-164
92,-261,-353,85,223,-307,-124,-184,-332,-233,-199,-54
50,-145,-195,48,123,-170,-97,-124,-194,-125,-89,-1
18,-45,-63,14,41,-54,-59,-79,-83,-55,-26,40
16,17,1,-17,8,9,-52,-75,-13,-31,-4,57
-40,41,81,-1,-61,60,-49,-75,35,-33,-6,54
-66,52,118,7,-92,84,-43,-75,40,-41,-10,51
-32,73,104,-20,-68,88,-41,-75,35,-44,-13,45
-39,75,115,-18,-78,95,-44,-74,33,-49,-17,41
-69,77,146,-4,-107,111,-45,-91,28,-52,-22,36
-64,81,145,-9,-104,113,-45,-101,26,-57,-34,31
-42,78,120,-18,-81,98,-45,-100,21,-62,-36,30
-29,101,131,-36,-80,116,-45,-103,15,-64,-29,30
-23,106,129,-42,-76,117,-43,-115,10,-73,-34,30
-47,91,137,-22,-92,114,-35,-130,4,-77,-41,30
-74,84,158,-5,-116,121,-48,-130,-1,-75,-40,30
-68,75,143,-4,-106,109,-60,-130,-6,-75,-39,30
-65,69,135,-2,-100,102,-49,-130,-14,-72,-36,25
-55,62,116,-4,-86,89,-42,-130,-21,-69,-33,20
-64,52,116,5,-90,84,-34,-128,-27,-71,-39,16
-87,59,146,14,-117,102,-27,-122,-27,-77,-45,12
-77,66,143,5,-110,105,-21,-117,-24,-83,-46,6
-65,64,130,0,-98,97,-16,-114,-25,-94,-44,8
-63,65,128,-1,-96,96,-10,-108,-19,-92,-41,10
-68,65,133,2,-101,99,-5,-106,-21,-86,-40,11
-69,65,134,1,-102,100,-2,-109,-19,-83,-39,15
-66,61,127,3,-97,94,2,-108,-14,-77,-52,16
-67,54,121,6,-94,87,7,-120,-31,-74,-53,7
-67,47,114,10,-91,80,10,-116,-29,-70,-35,3
-66,42,107,12,-87,74,14,-102,-17,-70,-36,22
-69,33,102,18,-86,67,17,-104,-15,-70,-34,26
-62,36,98,13,-80,67,21,-106,-16,-69,-39,19
-24,73,97,-25,-61,85,24,-104,-14,-79,-54,17
-32,61,92,-15,-62,76,27,-107,-17,-86,-39,9
-53,67,121,-7,-87,94,29,-93,-2,-53,-5,17
-35,137,172,-51,-104,154,39,-60,65,-5,33,43
-30,179,209,-74,-120,194,63,-59,98,15,52,66
-17,198,215,-91,-116,206,30,-61,80,25,37,61
-12,157,168,-73,-90,162,-29,-75,56,2,31,47
-31,105,136,-37,-84,120,-36,-123,4,-61,5,35
-28,87,115,-30,-72,101,-29,-131,-17,-78,-5,30
-19,82,102,-32,-61,92,-23,-128,-30,-80,3,23
-30,77,107,-24,-69,92,0,-114,-39,-84,-8,14
-48,38,86,5,-68,62,37,-111,-36,-72,-18,12
-69,16,84,26,-77,50,60,-103,-39,-93,-45,-27
-81,10,91,35,-86,50,51,-93,-21,-60,-20,-28
-57,22,80,17,-69,51,58,-99,-41,-92,-54,-22
-43,26,69,8,-56,47,55,-72,-4,-41,-30,-32
-114,-26,87,70,-100,30,78,-99,-42,-78,-69,-74
-98,-19,79,58,-88,30,86,-32,28,-38,-36,-54
-82,-12,70,47,-76,29,82,-26,65,43,39,-40
111,169,58,-141,26,113,132,486,722,842,807,282
497,569,72,-534,212,321,-125,543,1206,2031,2017,1046
194,401,207,-298,-7,304,-415,-1120,-748,134,654,727
-183,4,187,89,-185,95,-345,-1558,-1648,-1458,-793,-58
-119,-23,96,71,-107,36,-127,-542,-521,-495,-291,-96
-115,-41,74,78,-94,16,63,-119,-107,-203,-150,-120
-87,-44,43,65,-65,0,126,8,56,-71,-76,-123
-84,-31,53,57,-69,11,147,38,61,-33,-70,-110
-80,-32,49,56,-64,8,146,51,60,-44,-89,-121
-66,-17,48,41,-57,15,143,59,107,29,-15,-103
-79,-17,62,48,-70,22,143,71,87,-6,-33,-115
-77,-6,70,42,-74,32,128,78,109,36,-9,-99
-54,17,71,18,-63,44,124,81,103,21,-28,-102
-36,32,68,2,-52,50,111,99,124,57,-15,-94
-45,27,72,9,-59,49,104,115,147,76,-18,-91
-42,19,62,11,-52,40,100,160,195,106,-8,-91
-13,30,43,-9,-28,37,93,172,210,117,17,-88
27,60,33,-44,-4,46,113,222,267,155,46,-87
31,61,30,-46,1,45,140,279,322,205,49,-83
4,61,57,-32,-27,58,131,310,348,212,41,-89
2,76,74,-39,-36,74,142,363,402,243,49,-101
21,89,68,-55,-24,78,159,364,419,242,35,-99
20,91,71,-56,-26,81,153,333,395,201,4,-103
17,86,69,-52,-26,78,142,314,350,168,-30,-107
16,86,70,-51,-28,77,104,245,284,124,-29,-85
3,83,80,-44,-39,82,83,158,209,79,-9,-84
-11,76,87,-33,-49,81,88,84,142,53,4,-89
-20,65,84,-23,-52,74,80,25,78,4,-20,-88
-30,55,85,-13,-58,70,76,-9,27,-29,-51,-107
-39,46,85,-4,-62,65,73,-40,12,-49,-65,-124
-40,45,85,-3,-63,65,66,-46,10,-72,-82,-125
-40,46,86,-4,-63,66,70,-37,5,-59,-73,-125
-40,44,84,-2,-63,64,81,-32,10,-44,-58,-126
-39,47,87,-4,-64,67,75,-24,38,-29,-26,-122
-41,42,83,-1,-62,62,70,-18,60,-3,6,-117
-36,52,89,-8,-63,70,67,-8,58,22,12,-95
-7,72,79,-33,-43,75,60,3,52,33,19,-73
-6,94,99,-44,-53,96,62,13,81,52,48,-76
-15,133,148,-59,-82,141,74,47,134,84,75,-74
22,163,141,-93,-60,152,64,73,162,110,98,-79
8,136,128,-72,-60,132,22,21,126,76,96,-79
-14,82,97,-34,-56,89,7,-56,35,9,42,-83
26,93,67,-60,-21,80,5,-87,-18,-7,21,-98
50,114,64,-83,-7,89,0,-84,-24,-19,17,-98
34,86,52,-60,-10,69,5,-80,-30,-13,13,-86
-1,46,47,-23,-24,47,21,-81,-47,-38,3,-90
-2,36,38,-17,-20,36,46,-71,-38,-39,2,-111
-29,6,35,11,-32,20,56,-80,-56,-60,-26,-149
-45,-17,27,31,-36,5,56,-62,-43,-69,-42,-160
-43,-18,25,30,-34,4,53,-97,-66,-87,-70,-158
-58,-38,20,48,-39,-9,59,-84,-61,-108,-69,-166
-50,-36,14,43,-32,-10,50,-80,-43,-48,-34,-150
-68,-54,14,61,-41,-20,61,-69,-64,-112,-92,-174
-45,-42,3,43,-24,-20,54,-28,15,-5,-15,-145
-26,-12,14,19,-20,1,92,99,172,183,147,-90
285,328,43,-307,121,185,41,707,1193,1586,1499,573
420,631,212,-526,104,421,-313,-38,611,1666,1866,1072
-61,178,239,-58,-151,208,-486,-1498,-1560,-962,-248,282
-179,-131,48,155,-113,-41,-319,-1058,-1240,-1152,-699,-175
-62,-46,16,54,-39,-15,-95,-264,-271,-242,-171,-117
-62,-64,-1,63,-30,-32,21,-55,-88,-185,-177,-168
-18,-50,-33,34,8,-41,39,36,56,7,-46,-117
-25,-57,-31,42,3,-44,45,30,27,-60,-94,-133
-17,-55,-38,37,11,-47,31,62,86,5,-48,-113
-21,-54,-32,38,6,-43,29,54,67,-13,-62,-112
-17,-53,-37,36,10,-45,20,61,87,8,-38,-105
-8,-42,-35,25,14,-38,15,81,109,31,-15,-95
-10,-43,-33,26,12,-37,20,107,120,42,-15,-94
-2,-32,-30,17,14,-31,23,117,147,93,10,-74
0,-30,-30,15,15,-30,27,136,165,104,13,-65
7,-23,-30,8,19,-26,30,174,215,153,34,-51
19,-11,-30,-4,25,-20,35,228,270,191,49,-43
32,4,-29,-18,30,-12,33,303,344,256,87,-32
59,15,-44,-37,51,-14,28,367,403,308,113,-23
72,24,-48,-48,60,-12,25,414,442,343,122,-18
70,32,-38,-51,54,-3,22,419,449,344,113,-10
75,41,-34,-58,54,4,17,397,421,309,103,-5
72,47,-25,-59,48,11,15,344,374,266,97,7
56,35,-21,-45,38,7,11,236,266,181,72,4
36,17,-19,-27,27,-1,6,123,143,90,27,-25
17,-1,-18,-8,18,-9,4,36,47,-5,-28,-44
-26,-38,-12,33,-7,-24,-1,-22,-33,-78,-69,-64
-37,-66,-29,52,-3,-48,-4,-59,-62,-103,-94,-79
-19,-67,-47,43,14,-57,-8,-72,-89,-135,-122,-92
-27,-71,-43,49,8,-56,-10,-69,-101,-143,-135,-105
-38,-85,-47,62,5,-65,-10,-66,-92,-131,-129,-98
-44,-87,-42,66,-1,-64,-10,-63,-90,-124,-122,-94
-25,-74,-49,50,12,-61,-10,-61,-82,-117,-119,-88
-34,-69,-36,52,1,-52,-10,-58,-79,-108,-110,-83
-17,-60,-43,39,13,-51,-5,-57,-67,-105,-95,-75
-26,-31,-5,28,-11,-18,-5,-33,-31,-69,-60,-48
-57,23,80,16,-69,52,-3,23,21,-30,-35,-17
-5,58,63,-27,-34,60,-17,52,48,-14,-27,7
9,26,16,-18,-4,21,-79,-2,11,-11,-24,-12
30,-3,-32,-13,31,-17,-119,-82,-72,-89,-58,-46
27,-19,-47,-3,37,-33,-120,-114,-123,-135,-76,-38
36,-25,-61,-6,49,-42,-121,-107,-121,-137,-79,-30
48,-24,-72,-12,60,-48,-96,-103,-116,-130,-74,-16
7,-63,-70,28,39,-66,-62,-104,-126,-146,-93,-25
-28,-95,-67,61,20,-81,-56,-92,-112,-148,-88,-50
-89,-115,-26,103,-31,-71,-51,-100,-130,-164,-113,-75
-52,-115,-63,84,6,-88,-43,-83,-122,-158,-125,-95
-27,-123,-96,75,35,-109,-41,-93,-138,-154,-120,-87
-53,-141,-88,97,18,-115,-26,-77,-128,-175,-137,-102
-31,-129,-98,80,34,-113,-31,-82,-120,-131,-104,-112
-61,-142,-81,101,11,-111,-5,-76,-138,-194,-157,-136
-44,-129,-85,87,21,-106,0,-49,-66,-98,-69,-114
-24,-98,-73,61,25,-85,39,100,84,67,59,-75
265,245,-20,-255,142,113,-21,657,1037,1401,1353,567
442,547,105,-494,168,325,-404,-185,396,1490,1811,1130
-30,108,138,-39,-84,122,-590,-1660,-1705,-1045,-236,433
-138,-182,-44,160,-47,-112,-381,-1116,-1296,-1204,-710,-86
0,-107,-107,54,54,-107,-107,-238,-295,-281,-203,-97
-47,-143,-96,95,25,-119,8,-62,-136,-261,-230,-144
-4,-126,-122,65,59,-123,18,22,-2,-88,-91,-107
-19,-123,-104,71,43,-113,29,30,-24,-132,-145,-126
-11,-117,-107,64,48,-112,16,71,25,-62,-96,-109
-6,-106,-100,56,47,-103,16,73,23,-79,-104,-111
-15,-107,-92,62,39,-100,10,74,53,-72,-89,-107
-9,-117,-108,63,50,-112,5,81,54,-44,-70,-92
4,-112,-116,54,60,-114,5,94,58,-29,-73,-88
18,-95,-113,39,66,-104,5,118,91,21,-52,-74
18,-103,-121,43,70,-112,4,154,121,42,-50,-74
32,-95,-127,32,80,-111,-1,198,181,96,-11,-57
30,-93,-123,32,76,-108,1,242,231,133,13,-33
55,-65,-120,5,88,-93,-3,301,300,196,58,-16
87,-29,-116,-29,102,-72,-5,357,360,253,86,-6
70,-18,-88,-26,79,-53,-5,396,403,293,105,11
92,-9,-101,-41,97,-55,-9,413,425,298,125,33
116,-2,-119,-57,118,-60,-16,394,402,281,117,39
105,13,-92,-58,98,-40,-22,342,348,250,97,31
98,2,-96,-49,96,-47,-30,252,257,176,61,22
78,-17,-95,-30,87,-56,-33,135,144,79,14,11
39,-57,-95,10,67,-76,-30,46,34,-24,-44,-23
16,-79,-94,32,55,-86,-30,-8,-35,-92,-84,-43
15,-75,-91,30,53,-83,-30,-49,-75,-133,-111,-54
-32,-117,-86,75,27,-101,-30,-65,-113,-166,-137,-80
-46,-129,-82,88,19,-106,-30,-59,-109,-164,-131,-85
-9,-115,-106,62,49,-111,-27,-52,-95,-153,-128,-88
-10,-121,-111,66,51,-116,-21,-49,-90,-146,-125,-88
-6,-109,-103,58,49,-105,-16,-41,-75,-135,-120,-78
-10,-113,-103,62,47,-108,-13,-34,-63,-123,-119,-73
-27,-123,-96,75,35,-109,-6,-21,-48,-108,-111,-67
35,-42,-77,3,56,-59,-5,19,0,-66,-71,-40
40,8,-32,-24,36,-12,15,77,55,-4,-18,-4
2,23,21,-13,-10,22,0,102,91,19,-4,9
39,21,-18,-30,28,2,-54,38,50,-11,-19,16
37,-68,-105,16,71,-86,-66,-45,-55,-89,-67,12
8,-108,-117,50,63,-112,-70,-98,-118,-144,-104,-8
3,-111,-113,55,58,-112,-63,-107,-123,-147,-109,-8
0,-117,-117,59,59,-117,-42,-94,-115,-132,-99,11
-2,-114,-112,58,56,-113,-23,-91,-128,-145,-113,-6
12,-116,-128,52,71,-122,-3,-73,-120,-121,-96,-19
-3,-144,-141,73,69,-142,16,-82,-142,-142,-117,-39
-13,-153,-140,83,63,-146,22,-62,-125,-147,-128,-54
-8,-147,-140,78,66,-143,17,-78,-146,-146,-132,-55
-3,-152,-149,78,73,-151,23,-54,-138,-171,-155,-59
2,-162,-164,80,83,-163,14,-68,-135,-143,-136,-47
-43,-193,-150,118,54,-171,40,-63,-156,-202,-175,-67
-4,-157,-154,81,75,-155,37,-38,-84,-96,-84,-61
15,-130,-144,58,80,-137,91,132,98,90,57,-33
323,221,-102,-271,212,59,33,721,1060,1446,1352,623
504,492,-12,-498,257,239,-404,-320,256,1374,1671,1134
-4,35,38,-16,-21,37,-583,-1785,-1792,-1135,-327,440
-112,-194,-82,153,-15,-138,-335,-1047,-1206,-1121,-664,-33
0,-148,-148,74,74,-147,-62,-199,-266,-269,-198,-61
-48,-196,-149,123,51,-172,65,-15,-137,-253,-244,-115
16,-147,-162,66,89,-154,70,63,-5,-64,-107,-76
17,-140,-157,62,87,-148,69,43,-38,-149,-148,-94
21,-144,-165,62,93,-154,54,79,26,-88,-98,-74
20,-146,-166,64,93,-156,76,73,14,-107,-112,-75
19,-137,-156,59,87,-146,95,106,45,-70,-95,-69
27,-130,-157,52,92,-143,82,101,39,-46,-81,-61
51,-125,-176,37,114,-150,78,122,55,-47,-78,-60
47,-117,-164,35,105,-140,68,152,91,9,-53,-49
21,-131,-151,55,86,-141,62,167,112,20,-51,-49
28,-122,-151,47,90,-136,65,222,179,71,-25,-36
42,-108,-149,33,96,-128,65,265,220,113,-10,-20
58,-89,-147,16,103,-118,61,323,296,173,31,-7
77,-67,-144,-5,111,-105,58,371,341,222,67,4
86,-59,-145,-14,116,-102,53,398,371,259,88,21
98,-42,-140,-28,119,-90,50,417,400,277,95,43
99,-35,-135,-32,117,-85,46,397,373,263,84,53
60,-70,-131,5,95,-100,40,338,327,222,84,44
37,-89,-126,26,82,-108,32,241,222,128,59,37
45,-76,-121,16,83,-98,27,135,107,35,5,13
24,-98,-123,37,73,-110,17,57,23,-43,-41,-18
17,-122,-139,53,78,-130,20,-6,-58,-115,-88,-42
14,-131,-145,59,79,-137,43,-46,-102,-162,-123,-64
-12,-161,-149,87,68,-154,46,-48,-114,-176,-140,-66
8,-161,-169,77,88,-165,46,-38,-106,-166,-140,-63
7,-158,-165,76,86,-161,51,-33,-98,-161,-136,-70
-6,-162,-156,85,75,-159,49,-26,-94,-157,-134,-81
-5,-157,-152,81,74,-154,51,-21,-84,-151,-131,-75
-22,-164,-142,93,60,-153,51,-19,-87,-145,-129,-72
-4,-143,-139,73,68,-141,48,-11,-80,-138,-116,-64
-2,-107,-106,55,52,-106,65,16,-46,-106,-86,-31
32,-61,-93,15,63,-77,85,74,17,-58,-59,-8
55,-36,-91,-10,73,-63,61,101,67,-9,-28,6
24,-82,-106,29,65,-94,20,37,5,-38,-26,9
51,-126,-176,38,114,-150,5,-55,-116,-151,-96,-25
11,-141,-152,65,82,-147,-12,-113,-187,-206,-146,-56
21,-138,-159,59,90,-148,-6,-109,-192,-197,-146,-42
76,-135,-211,29,144,-172,18,-91,-175,-183,-128,-30
54,-141,-195,44,125,-167,37,-89,-178,-199,-129,-42
40,-162,-202,61,121,-182,69,-76,-156,-180,-118,-51
7,-193,-200,93,103,-196,95,-84,-175,-199,-140,-76
-10,-209,-198,109,94,-203,99,-59,-155,-183,-133,-76
-33,-230,-197,132,83,-214,101,-70,-173,-189,-147,-80
-33,-224,-191,129,80,-207,113,-42,-162,-191,-153,-84
-29,-231,-202,131,87,-216,109,-50,-158,-164,-127,-81
-52,-262,-210,158,79,-236,132,-32,-175,-211,-175,-103
-10,-229,-219,120,105,-224,121,-16,-110,-97,-91,-73
47,-165,-212,60,129,-188,175,175,95,113,111,-12
355,152,-203,-253,279,-26,106,783,1057,1491,1390,628
471,350,-122,-410,296,114,-302,-285,172,1213,1454,1008
-13,-84,-71,48,29,-78,-425,-1708,-1802,-1228,-476,297
-138,-305,-166,221,15,-235,-195,-956,-1166,-1053,-622,-72
14,-202,-217,94,116,-209,47,-168,-303,-263,-185,-82
-13,-237,-224,125,106,-230,168,14,-158,-252,-215,-135
2,-225,-227,112,114,-225,166,97,-33,-88,-105,-100
15,-208,-223,97,119,-215,173,75,-87,-149,-157,-128
-3,-224,-221,114,109,-223,166,117,-24,-76,-96,-114
-9,-232,-223,121,107,-227,165,109,-33,-100,-111,-122
18,-228,-246,105,132,-236,166,137,9,-73,-84,-114
17,-221,-239,102,128,-230,167,140,12,-57,-71,-107
20,-213,-233,97,126,-223,175,164,25,-39,-64,-106
20,-205,-226,93,123,-216,176,188,66,6,-37,-95
19,-199,-219,90,119,-209,182,212,92,26,-44,-94
28,-187,-215,80,122,-200,185,255,135,75,-35,-86
37,-177,-214,70,126,-195,185,304,183,108,-23,-78
84,-154,-238,35,161,-196,193,373,270,173,20,-68
103,-132,-234,15,169,-183,189,419,323,227,66,-60
109,-119,-228,5,169,-173,174,452,355,259,86,-56
111,-108,-220,-1,166,-164,173,450,365,266,88,-43
106,-109,-215,2,161,-162,175,424,347,249,91,-24
110,-106,-216,-1,163,-161,175,384,313,226,119,0
81,-102,-183,11,132,-142,175,293,216,168,102,1
49,-118,-167,35,108,-142,175,200,116,83,43,-52
34,-133,-167,50,100,-150,175,109,14,-19,-16,-93
28,-154,-182,63,106,-168,175,34,-73,-118,-91,-117
15,-178,-193,82,104,-186,175,12,-106,-155,-118,-146
1,-186,-187,92,95,-186,175,-4,-126,-163,-137,-155
5,-186,-192,90,99,-189,175,-6,-125,-163,-158,-166
15,-173,-188,79,102,-180,174,5,-122,-155,-151,-183
-1,-193,-191,97,95,-192,180,15,-120,-153,-148,-187
-18,-206,-188,112,85,-197,186,23,-118,-146,-143,-181
19,-173,-192,77,106,-182,189,44,-105,-149,-140,-181
28,-150,-178,61,103,-164,188,63,-83,-150,-135,-178
-1,-120,-119,61,59,-119,181,64,-60,-113,-116,-147
-12,-103,-91,58,40,-96,179,124,-3,-70,-80,-113
1,-106,-107,53,54,-106,144,128,24,-54,-45,-103
39,-103,-142,32,91,-122,115,40,-55,-88,-75,-116
14,-130,-143,58,79,-136,115,-15,-153,-167,-119,-131
20,-147,-166,64,94,-157,114,-53,-192,-171,-120,-121
68,-144,-212,38,141,-178,147,-50,-189,-147,-116,-122
75,-149,-224,38,150,-186,163,-52,-189,-185,-128,-151
51,-160,-212,55,132,-186,156,-52,-194,-203,-141,-173
12,-178,-191,83,102,-184,155,-39,-183,-178,-120,-163
15,-193,-209,90,112,-201,160,-42,-201,-201,-175,-189
-1,-224,-223,113,111,-223,179,-22,-183,-168,-180,-219
-39,-245,-206,142,84,-225,197,-41,-216,-191,-195,-212
2,-223,-225,111,114,-224,195,-13,-190,-184,-195,-190
9,-221,-230,106,120,-225,195,-40,-208,-214,-191,-231
3,-219,-222,108,113,-220,206,-2,-156,-188,-169,-247
5,-213,-218,104,112,-215,189,3,-122,-92,-116,-235
44,-141,-185,49,115,-163,222,319,261,321,286,-70
502,298,-204,-400,353,47,63,762,1190,1861,1821,770
411,377,-33,-394,222,172,-257,-488,-231,811,1231,808
-130,-134,-4,132,-62,-69,-302,-1495,-1890,-1530,-825,-120
-54,-270,-215,162,80,-242,-115,-688,-970,-895,-584,-283
-7,-204,-198,106,96,-201,93,-116,-301,-300,-235,-241
-1,-218,-217,110,108,-217,173,12,-173,-246,-249,-270
33,-220,-253,93,144,-236,176,74,-89,-118,-148,-239
29,-219,-247,95,138,-233,175,77,-102,-175,-199,-260
50,-198,-247,74,149,-222,165,81,-53,-109,-148,-246
24,-196,-220,86,123,-208,163,75,-68,-149,-180,-266
52,-180,-232,64,142,-206,155,108,-10,-78,-120,-227
51,-174,-225,62,138,-199,152,110,-8,-76,-119,-225
46,-177,-223,66,135,-200,147,137,13,-55,-111,-243
33,-184,-217,76,125,-200,144,155,32,-25,-105,-238
35,-179,-214,72,125,-197,140,179,59,-5,-103,-229
29,-177,-206,74,118,-191,136,221,118,54,-66,-216
31,-174,-204,72,118,-189,134,267,168,102,-44,-198
83,-138,-221,28,152,-180,126,330,244,169,-13,-171
89,-112,-201,12,145,-156,119,380,300,225,12,-157
108,-101,-210,-3,159,-155,113,382,301,232,38,-143
132,-85,-217,-23,174,-151,105,369,286,217,29,-121
119,-90,-209,-14,164,-149,95,370,286,227,29,-101
115,-81,-196,-17,156,-138,85,311,225,166,20,-98
105,-80,-185,-13,145,-132,75,195,104,70,-33,-112
48,-121,-169,36,109,-145,68,115,-6,-25,-88,-124
25,-130,-155,53,90,-143,60,54,-90,-92,-129,-140
39,-121,-161,41,100,-141,54,11,-140,-142,-165,-154
20,-104,-124,43,72,-114,48,10,-124,-129,-141,-144
72,-31,-102,-20,87,-66,31,53,-16,46,33,-22
161,181,21,-171,69,101,-11,126,140,240,238,169
157,354,197,-256,-20,275,-46,200,341,516,511,344
193,731,538,-462,-173,634,-49,619,964,1192,1105,769
294,1328,1034,-811,-371,1181,-77,1030,1795,2342,2193,1382
89,1579,1490,-835,-700,1534,7,1060,1740,2043,2242,1587
-166,1343,1509,-589,-838,1425,233,1046,1355,701,822,951
-192,736,929,-272,-561,832,265,319,797,276,-1,33
-147,247,395,-50,-271,321,113,-354,-157,-189,-250,-274
-15,-161,-146,89,66,-153,37,-199,-421,-419,-411,-292
39,-472,-510,217,275,-491,25,-183,-463,-417,-445,-383
47,-540,-587,246,317,-563,25,-205,-598,-555,-534,-411
43,-556,-599,256,321,-577,23,-183,-600,-520,-532,-415
37,-522,-559,243,298,-540,32,-185,-633,-535,-525,-402
43,-516,-559,237,302,-538,47,-164,-617,-532,-535,-412
37,-522,-559,243,298,-540,38,-196,-629,-554,-566,-429
41,-579,-620,269,331,-599,57,-193,-657,-575,-606,-457
35,-620,-656,293,346,-638,61,-205,-693,-621,-654,-502
47,-660,-707,307,377,-684,48,-220,-744,-673,-700,-530
51,-740,-791,345,421,-765,42,-235,-795,-698,-737,-554
91,-760,-851,335,471,-805,23,-236,-832,-703,-747,-539
120,-786,-906,333,513,-845,0,-224,-870,-690,-725,-529
131,-771,-902,321,516,-836,-30,-230,-860,-661,-670,-487
164,-700,-864,268,514,-782,-37,-189,-774,-554,-544,-379
186,-600,-785,207,486,-692,-29,-115,-657,-421,-391,-274
159,-473,-633,157,396,-553,-29,-51,-524,-303,-273,-179
116,-362,-478,123,297,-420,-17,16,-394,-212,-190,-122
100,-286,-385,93,243,-335,12,48,-315,-184,-158,-107
83,-236,-319,77,201,-277,37,68,-271,-190,-170,-116
76,-194,-269,59,173,-231,45,70,-248,-196,-183,-136
38,-199,-237,81,138,-218,45,50,-250,-210,-201,-142
14,-205,-219,96,117,-212,45,37,-253,-220,-209,-147
21,-201,-222,90,121,-211,45,20,-255,-228,-215,-151
22,-196,-217,87,120,-206,45,10,-260,-233,-220,-155
39,-198,-238,80,139,-218,41,1,-267,-235,-213,-160
30,-227,-257,99,144,-242,36,-8,-273,-243,-219,-160
14,-228,-242,107,128,-235,31,-17,-289,-262,-241,-160
15,-221,-236,103,126,-228,29,-25,-290,-268,-252,-159
4,-218,-222,108,113,-220,20,-24,-289,-274,-254,-162
-2,-237,-235,120,117,-235,28,-26,-312,-293,-255,-165
11,-247,-257,118,134,-252,46,-24,-316,-296,-254,-166
8,-238,-245,115,126,-241,40,-27,-313,-294,-255,-170
3,-238,-240,118,122,-239,35,-32,-316,-296,-254,-169
8,-231,-239,112,124,-234,32,-30,-313,-294,-255,-166
-8,-230,-222,120,107,-226,26,-31,-317,-297,-259,-164
19,-224,-243,103,132,-234,23,-27,-319,-300,-262,-166
33,-226,-259,97,146,-242,19,-25,-320,-300,-265,-164
40,-223,-262,92,151,-242,17,-24,-319,-300,-268,-166
39,-221,-259,91,149,-240,14,-28,-320,-300,-271,-162
10,-219,-229,105,120,-223,11,-41,-332,-303,-274,-153
20,-219,-239,100,130,-229,10,-40,-335,-305,-275,-173
-5,-249,-244,128,119,-246,10,-40,-329,-305,-275,-182
25,-249,-274,113,150,-262,10,-40,-327,-304,-275,-179
51,-237,-288,94,170,-262,10,-40,-322,-299,-273,-177
27,-232,-259,103,143,-245,10,-38,-319,-300,-269,-174
24,-224,-247,100,136,-235,10,-32,-316,-298,-267,-176
24,-215,-239,96,132,-227,8,-28,-310,-294,-263,-169
30,-205,-235,88,132,-220,4,-24,-311,-296,-262,-163
12,-216,-228,103,120,-222,0,-19,-301,-291,-259,-157
11,-212,-223,101,117,-218,-1,-13,-304,-282,-255,-149
21,-162,-183,70,102,-172,-7,11,-283,-245,-242,-125
42,-115,-157,37,100,-136,9,60,-229,-214,-205,-98
57,-83,-140,14,98,-112,14,70,-233,-215,-180,-88
59,-92,-151,16,105,-121,-32,38,-232,-206,-179,-82
58,-160,-218,51,139,-188,-61,-15,-285,-254,-211,-106
84,-170,-254,43,169,-211,-60,-58,-351,-316,-256,-135
44,-195,-240,76,142,-217,-44,-56,-335,-299,-255,-142
-26,-238,-212,133,93,-225,-23,-53,-340,-306,-265,-149
25,-225,-250,100,138,-238,-10,-41,-321,-289,-255,-149
32,-232,-264,100,148,-248,2,-46,-327,-291,-263,-155
27,-230,-256,101,142,-243,13,-30,-309,-290,-267,-158
20,-243,-263,112,142,-253,17,-41,-330,-310,-274,-188
0,-255,-256,128,128,-256,15,-23,-333,-332,-292,-208
29,-243,-272,107,151,-257,12,-30,-320,-285,-262,-195
8,-258,-266,125,137,-261,45,-17,-348,-341,-315,-220
25,-242,-267,109,146,-254,29,35,-257,-229,-246,-195
24,-213,-237,95,131,-225,45,135,-138,-97,-112,-161
334,116,-218,-224,276,-51,11,717,767,1135,1118,451
529,413,-116,-471,322,148,-337,1,286,1295,1581,999
45,21,-24,-33,34,-1,-528,-1538,-1802,-1148,-377,320
-109,-279,-170,195,31,-224,-353,-1118,-1564,-1424,-906,-212
2,-239,-241,119,122,-240,-94,-207,-540,-501,-397,-212
7,-248,-255,120,131,-251,47,24,-352,-428,-403,-252
44,-242,-286,99,165,-263,50,112,-225,-236,-273,-224
18,-253,-271,118,144,-261,52,116,-243,-295,-314,-241
10,-243,-253,117,132,-248,41,145,-198,-275,-280,-232
-11,-238,-227,125,108,-232,36,129,-206,-278,-290,-235
31,-229,-261,99,146,-245,29,139,-191,-265,-286,-235
43,-219,-262,88,153,-241,25,132,-181,-241,-274,-226
32,-212,-244,90,138,-228,31,142,-179,-243,-282,-224
63,-191,-255,64,159,-223,29,168,-160,-210,-258,-215
73,-179,-252,54,163,-216,30,175,-142,-198,-260,-209
74,-188,-262,57,168,-224,31,215,-101,-152,-234,-189
57,-208,-265,76,161,-237,32,244,-68,-133,-222,-184
68,-190,-257,61,163,-223,55,295,-6,-101,-210,-181
80,-175,-254,48,167,-214,57,337,21,-80,-202,-176
75,-173,-248,50,161,-210,62,367,52,-80,-195,-175
78,-162,-240,42,159,-201,78,401,80,-83,-187,-167
99,-160,-259,31,179,-210,56,389,86,-88,-203,-177
112,-148,-260,18,186,-203,85,374,87,-88,-218,-185
85,-154,-238,35,162,-196,91,347,24,-108,-221,-169
59,-173,-232,57,146,-202,62,293,-32,-126,-225,-168
52,-177,-229,63,141,-203,68,221,-75,-146,-215,-171
51,-180,-230,65,140,-205,63,148,-149,-200,-218,-168
53,-177,-230,62,142,-203,67,104,-207,-243,-239,-190
41,-188,-230,73,136,-209,63,87,-245,-271,-265,-212
20,-210,-230,95,125,-219,70,91,-263,-288,-284,-221
28,-217,-245,95,137,-231,93,90,-266,-290,-272,-230
58,-195,-252,69,155,-224,92,89,-254,-278,-262,-230
45,-199,-244,78,144,-221,91,91,-238,-257,-252,-230
21,-226,-247,103,134,-236,88,89,-232,-253,-246,-229
21,-215,-237,97,129,-226,100,101,-216,-237,-240,-230
27,-219,-246,96,137,-233,115,108,-206,-229,-230,-228
50,-188,-239,69,145,-213,104,114,-185,-197,-205,-199
88,-115,-203,13,146,-159,97,152,-148,-142,-160,-181
108,-73,-181,-17,145,-127,89,199,-98,-133,-140,-188
104,-68,-172,-17,138,-120,82,180,-89,-135,-133,-186
83,-133,-216,25,150,-174,80,79,-204,-206,-185,-199
62,-175,-237,57,150,-206,80,24,-285,-277,-229,-227
82,-168,-250,43,166,-209,80,24,-305,-270,-211,-227
106,-180,-286,37,196,-233,80,27,-312,-262,-215,-219
78,-197,-275,60,177,-236,94,22,-314,-312,-257,-239
52,-221,-273,85,163,-247,115,28,-309,-326,-250,-268
47,-232,-279,93,163,-255,130,22,-308,-310,-229,-295
33,-228,-261,98,147,-245,136,26,-312,-335,-289,-316
23,-247,-270,112,147,-258,139,27,-294,-299,-268,-300
27,-264,-291,119,159,-277,170,19,-322,-348,-310,-330
78,-230,-308,76,193,-269,161,36,-283,-304,-286,-345
14,-278,-292,132,153,-284,167,7,-323,-354,-312,-373
30,-277,-307,124,169,-292,165,56,-261,-286,-265,-348
52,-244,-296,96,174,-270,159,64,-240,-215,-209,-346
221,-71,-292,-75,257,-181,206,606,496,668,618,15
628,375,-253,-501,440,61,-69,608,926,1828,1859,819
218,179,-39,-199,128,70,-353,-997,-1128,-239,337,405
-136,-282,-147,209,6,-214,-269,-1317,-1888,-1679,-1055,-397
17,-271,-289,127,153,-279,-63,-377,-748,-675,-501,-391
5,-237,-242,116,124,-239,121,-19,-391,-439,-395,-411
85,-221,-307,68,196,-264,174,122,-232,-293,-302,-391
58,-235,-292,89,175,-264,175,126,-226,-274,-301,-380
45,-243,-288,100,167,-265,167,124,-207,-271,-307,-407
66,-216,-282,75,175,-249,156,151,-169,-219,-272,-379
47,-229,-276,91,162,-252,152,163,-159,-237,-285,-372
31,-238,-268,104,150,-253,144,174,-121,-195,-241,-359
20,-241,-261,111,140,-250,146,172,-130,-199,-236,-357
58,-246,-304,95,181,-275,143,193,-94,-142,-211,-349
72,-228,-300,78,186,-264,140,224,-72,-139,-230,-341
94,-197,-291,52,193,-244,140,261,-28,-98,-196,-343
96,-191,-287,47,192,-239,138,295,14,-58,-155,-340
97,-180,-277,42,188,-229,134,353,84,3,-134,-340
106,-169,-275,32,191,-222,136,409,152,67,-136,-343
104,-163,-267,30,186,-215,133,456,199,120,-102,-294
114,-152,-266,20,190,-209,138,480,237,165,-65,-279
121,-138,-259,9,190,-198,144,475,232,148,-77,-301
153,-103,-256,-25,205,-180,129,428,181,105,-82,-306
146,-101,-247,-22,197,-174,107,331,80,17,-109,-310
104,-127,-231,11,168,-179,99,221,-41,-86,-162,-320
102,-134,-236,16,169,-185,96,127,-152,-174,-222,-364
57,-177,-234,60,146,-205,92,69,-236,-251,-252,-386
55,-186,-241,65,148,-213,89,32,-291,-307,-297,-404
44,-193,-237,74,141,-215,82,17,-326,-342,-343,-441
29,-201,-230,87,130,-215,104,15,-343,-353,-356,-453
55,-201,-255,73,155,-228,121,9,-341,-353,-357,-450
-1,-245,-244,123,122,-244,110,6,-333,-346,-345,-442
1,-230,-231,114,117,-230,104,-1,-330,-344,-342,-435
26,-201,-227,88,127,-214,98,4,-323,-337,-333,-430
22,-197,-219,88,121,-208,90,13,-310,-317,-324,-422
41,-177,-217,68,130,-197,88,20,-284,-281,-297,-404
37,-146,-183,54,110,-165,83,59,-247,-234,-253,-375
29,-127,-156,49,93,-142,82,114,-237,-221,-239,-344
36,-117,-153,41,95,-135,76,110,-220,-205,-220,-330
63,-137,-200,37,132,-168,40,37,-260,-239,-249,-327
62,-193,-255,66,159,-224,17,-17,-351,-311,-303,-317
72,-181,-253,55,162,-217,21,-37,-384,-333,-311,-314
89,-170,-258,41,174,-214,21,-33,-377,-330,-309,-304
63,-201,-264,69,164,-232,17,-31,-381,-326,-309,-319
67,-199,-266,66,167,-232,42,-25,-381,-331,-313,-351
48,-232,-279,92,164,-255,62,-19,-375,-314,-308,-352
0,-273,-273,137,137,-273,64,-20,-391,-342,-349,-368
35,-259,-294,112,165,-276,69,-3,-374,-312,-340,-352
38,-269,-308,116,174,-288,76,-16,-409,-349,-374,-358
33,-279,-312,123,173,-296,82,15,-374,-312,-347,-341
17,-290,-306,137,162,-298,76,-11,-407,-331,-379,-342
29,-274,-302,123,166,-288,92,33,-357,-318,-364,-356
59,-273,-333,107,196,-303,99,48,-331,-246,-312,-361
128,-157,-285,15,206,-220,115,447,213,372,249,-132
522,320,-202,-420,362,59,-78,710,955,1746,1644,684
352,271,-81,-311,217,95,-416,-745,-812,231,680,621
-120,-270,-150,195,15,-210,-435,-1453,-2082,-1678,-1006,-201
-31,-350,-319,190,144,-334,-196,-523,-1008,-839,-653,-347
11,-307,-319,148,165,-313,21,-53,-513,-435,-467,-367
43,-316,-359,136,202,-337,83,81,-368,-325,-417,-373
55,-290,-345,117,201,-317,86,111,-315,-246,-364,-353
35,-301,-335,133,186,-318,93,126,-326,-284,-393,-366
75,-287,-362,106,218,-324,88,139,-291,-227,-342,-345
58,-292,-350,118,204,-320,92,119,-316,-268,-369,-354
79,-285,-364,103,222,-324,89,141,-281,-228,-330,-321
67,-282,-350,108,209,-316,91,141,-286,-254,-339,-330
74,-301,-374,114,224,-337,86,175,-260,-205,-329,-325
128,-260,-387,66,258,-324,80,204,-232,-176,-320,-297
114,-256,-369,71,242,-312,76,229,-190,-134,-292,-278
111,-260,-371,74,242,-315,69,266,-147,-84,-269,-265
129,-239,-368,55,249,-303,64,321,-85,-54,-248,-259
116,-255,-371,69,244,-313,59,370,-22,4,-209,-254
141,-228,-369,44,255,-298,53,434,39,55,-174,-234
164,-207,-372,22,268,-289,46,456,63,79,-168,-200
178,-186,-365,4,272,-276,39,448,50,77,-172,-200
155,-201,-356,23,256,-278,33,433,30,62,-168,-201
103,-224,-327,61,215,-275,26,356,-42,1,-185,-200
116,-195,-311,40,214,-253,25,266,-140,-87,-222,-200
109,-236,-344,64,227,-290,25,164,-254,-189,-275,-206
88,-257,-345,85,217,-301,20,87,-347,-280,-331,-244
73,-274,-347,101,211,-311,20,45,-406,-342,-378,-268
36,-315,-351,139,194,-333,19,15,-438,-378,-406,-285
43,-308,-351,132,198,-329,14,15,-454,-389,-421,-292
68,-301,-368,117,218,-334,10,13,-460,-391,-426,-297
78,-284,-361,103,220,-322,8,8,-434,-379,-421,-318
55,-307,-361,126,209,-334,3,17,-434,-364,-417,-311
37,-319,-356,142,197,-338,0,41,-429,-342,-397,-299
44,-311,-355,134,200,-333,4,40,-407,-335,-383,-285
60,-287,-347,114,204,-317,2,41,-381,-328,-368,-259
72,-223,-295,76,183,-259,10,80,-339,-281,-331,-223
99,-187,-286,44,193,-237,28,136,-309,-266,-322,-190
125,-163,-288,19,206,-225,-4,148,-283,-263,-327,-191
115,-206,-321,46,218,-263,-58,81,-332,-271,-321,-203
116,-263,-379,74,247,-321,-64,3,-434,-344,-343,-225
115,-258,-373,72,244,-315,-55,-44,-481,-391,-375,-233
121,-255,-376,68,249,-316,-50,-40,-475,-387,-378,-230
102,-271,-373,85,238,-322,-46,-30,-464,-371,-369,-228
96,-281,-377,93,236,-329,-28,-21,-466,-380,-384,-233
91,-276,-368,93,230,-322,-8,-9,-445,-351,-364,-253
29,-315,-344,143,187,-329,6,-12,-465,-381,-390,-275
54,-337,-391,141,223,-363,18,1,-460,-393,-387,-270
70,-331,-401,130,236,-366,17,-36,-472,-414,-401,-273
50,-348,-399,149,225,-373,35,-13,-447,-402,-414,-269
56,-335,-391,140,224,-363,42,-24,-454,-388,-406,-260
48,-329,-377,140,213,-353,52,10,-443,-418,-436,-279
84,-334,-418,125,252,-376,32,9,-428,-321,-372,-288
100,-288,-388,95,244,-338,82,251,-135,-39,-93,-193
471,137,-334,-304,402,-98,-35,735,808,1408,1333,561
529,311,-218,-419,373,46,-447,-466,-352,826,1199,885
18,-188,-206,85,112,-197,-538,-1652,-2160,-1579,-793,98
-16,-355,-339,186,162,-347,-288,-814,-1350,-1196,-843,-268
70,-298,-368,114,219,-333,-51,-114,-575,-496,-478,-288
47,-349,-397,151,222,-373,40,16,-448,-484,-486,-327
54,-345,-399,146,227,-372,61,109,-317,-332,-362,-296
74,-334,-409,130,242,-371,73,117,-362,-380,-416,-320
60,-329,-389,135,224,-358,56,140,-322,-284,-359,-303
52,-339,-391,144,222,-364,66,140,-343,-342,-387,-314
103,-326,-429,112,266,-377,44,158,-305,-325,-361,-296
62,-342,-404,140,233,-373,37,144,-290,-297,-362,-281
84,-323,-407,119,246,-364,47,158,-273,-281,-355,-274
105,-294,-399,94,253,-346,43,183,-249,-249,-328,-263
77,-316,-392,120,235,-354,46,209,-218,-220,-314,-258
74,-316,-390,121,232,-353,45,252,-165,-164,-276,-244
100,-302,-402,101,251,-352,44,296,-105,-119,-261,-231
131,-283,-414,76,272,-348,52,366,-31,-63,-228,-205
144,-263,-406,60,275,-334,64,418,8,-10,-193,-194
163,-242,-406,40,285,-324,52,436,42,25,-184,-184
170,-234,-405,32,288,-319,44,426,39,15,-184,-181
167,-228,-395,31,281,-311,38,409,18,2,-188,-168
168,-215,-383,24,276,-299,30,372,-20,-29,-180,-146
157,-220,-377,32,267,-298,23,271,-115,-115,-210,-167
133,-233,-365,50,249,-299,15,159,-230,-219,-278,-204
115,-255,-370,70,243,-312,23,67,-340,-315,-335,-253
106,-264,-370,79,238,-317,32,7,-412,-390,-392,-283
98,-272,-370,87,234,-321,28,-19,-454,-430,-420,-293
73,-296,-369,112,221,-332,23,-18,-459,-445,-433,-311
66,-311,-378,123,222,-344,42,-10,-449,-446,-431,-309
73,-320,-392,124,233,-356,65,-6,-446,-428,-424,-310
66,-321,-387,128,227,-353,68,1,-439,-414,-419,-306
78,-308,-387,116,233,-348,74,5,-431,-406,-414,-304
61,-316,-377,128,220,-346,76,18,-418,-394,-407,-305
70,-286,-356,108,213,-320,72,19,-402,-384,-396,-288
68,-248,-316,91,192,-281,89,66,-350,-348,-363,-280
112,-189,-301,39,207,-245,116,132,-325,-290,-318,-243
169,-146,-316,-11,243,-231,88,121,-310,-254,-280,-198
98,-241,-338,72,218,-289,46,60,-332,-293,-288,-214
