I,II,III,aVR,aVL,aVF,V1,V2,V3,V4,V5,V6
601,171,-430,-386,515,-130,-698,-584,-643,36,-1103,424
317,-62,-379,-128,349,-221,-362,-307,-374,-75,-1438,151
-10,-97,-87,53,39,-92,-52,-105,-111,-105,-1658,-21
-15,-87,-72,51,28,-79,61,72,45,-48,-1656,-81
-33,-92,-59,62,13,-76,100,124,93,-45,-1666,-111
-35,-89,-54,63,10,-71,116,130,93,-31,-1657,-109
-33,-90,-57,62,12,-73,128,149,107,-25,-1654,-110
-51,-96,-45,74,-3,-71,125,142,118,-26,-1652,-111
-52,-101,-49,77,-1,-74,125,150,124,-24,-1648,-110
-52,-95,-43,74,-4,-69,126,165,126,-26,-1658,-111
-45,-93,-48,69,2,-70,125,164,124,-24,-1658,-110
-46,-89,-43,68,-1,-65,131,174,132,-28,-1660,-111
-41,-85,-45,63,3,-65,134,186,136,-30,-1661,-110
-43,-82,-39,62,-2,-60,136,194,145,-34,-1665,-111
-40,-80,-40,60,0,-60,139,214,159,-36,-1665,-110
-42,-80,-38,61,-2,-58,149,230,165,-40,-1664,-114
-45,-76,-31,61,-7,-53,154,255,185,-48,-1667,-120
-48,-74,-26,61,-10,-50,160,282,203,-50,-1677,-120
-60,-79,-19,70,-20,-49,170,305,212,-58,-1681,-121
-70,-85,-15,78,-27,-50,181,322,215,-77,-1677,-119
-73,-77,-4,75,-34,-41,182,327,207,-107,-1692,-126
-82,-71,11,76,-47,-29,180,324,201,-150,-1719,-132
-82,-64,17,73,-49,-23,178,313,194,-180,-1726,-124
-66,-57,9,62,-37,-24,175,299,179,-200,-1727,-118
-55,-52,3,54,-29,-25,173,274,149,-199,-1721,-111
-45,-49,-5,47,-20,-27,148,233,114,-186,-1700,-104
-37,-50,-13,44,-12,-32,117,184,91,-173,-1667,-98
-28,-46,-18,37,-5,-32,93,146,77,-131,-1611,-76
-14,-45,-30,30,9,-38,61,114,72,-80,-1559,-51
-10,-45,-35,28,13,-40,41,89,69,-30,-1516,-35
0,-40,-40,20,20,-40,34,83,66,18,-1469,-25
7,-41,-48,17,27,-44,27,80,61,60,-1428,-16
7,-38,-45,16,26,-41,21,77,61,78,-1394,-4
10,-35,-45,13,28,-40,14,72,65,89,-1363,-4
8,-34,-43,13,26,-38,11,70,65,102,-1325,-9
2,-38,-40,18,21,-38,18,75,70,98,-1296,-2
-1,-41,-39,21,19,-40,22,75,70,96,-1277,4
11,-39,-49,14,30,-44,28,74,73,92,-1258,2
10,-47,-57,19,34,-51,34,78,75,90,-1242,-6
4,-49,-54,23,29,-51,38,80,75,88,-1222,-9
-5,-61,-56,34,25,-58,45,84,80,77,-1212,-17
-17,-71,-55,45,19,-63,49,85,80,68,-1199,-20
-16,-71,-55,44,19,-63,44,79,79,59,-1188,-28
-21,-77,-55,50,17,-66,40,72,73,54,-1172,-40
-18,-73,-54,46,18,-63,38,66,66,49,-1135,-38
-15,-71,-56,43,21,-63,33,59,59,43,-1111,-34
-14,-67,-53,41,20,-60,31,53,53,36,-1093,-30
-6,-66,-59,36,27,-62,33,52,46,42,-1071,-27
0,-61,-61,31,31,-61,38,57,49,60,-1048,-24
4,-44,-48,20,26,-46,33,54,51,62,-1027,-28
14,-22,-36,5,25,-29,40,55,62,79,-1006,-10
16,-3,-19,-6,17,-10,68,69,93,112,-970,27
23,18,-5,-20,14,6,72,67,105,122,-930,38
45,53,7,-49,19,30,15,49,95,126,-894,56
58,67,9,-63,24,37,-70,8,70,119,-878,58
79,50,-29,-64,54,10,-93,-15,50,111,-873,48
89,15,-74,-52,82,-29,-89,-33,42,108,-868,43
71,-8,-79,-32,75,-43,-85,-33,40,95,-863,34
38,-37,-75,0,57,-56,-53,-8,37,103,-855,27
17,-51,-67,17,42,-59,-30,5,30,105,-854,24
20,-47,-67,14,44,-57,-31,8,33,117,-833,26
10,-49,-58,20,34,-53,-26,3,32,103,-823,23
25,-32,-57,4,41,-44,-27,21,47,117,-781,28
8,-48,-56,21,32,-52,-23,-15,15,107,-776,21
47,-4,-51,-21,49,-27,-86,-25,37,137,-747,59
-2,-64,-62,33,30,-63,-281,-488,-269,24,-790,36
47,-102,-149,28,98,-125,-526,-1219,-934,-193,-812,33
594,190,-404,-392,499,-106,-1012,-1449,-1247,426,-234,402
914,655,-259,-784,586,198,-1563,-1656,-1489,663,278,912
803,582,-221,-692,512,180,-1260,-1191,-1169,122,36,833
443,-21,-464,-211,454,-243,-464,-330,-404,17,-523,279
80,-97,-177,9,129,-137,-122,-142,-148,-33,-776,68
10,-39,-49,15,30,-44,13,20,5,3,-762,39
-32,-103,-71,68,20,-87,79,101,77,57,-786,-25
-35,-64,-29,50,-3,-46,76,85,90,44,-768,-14
-35,-91,-55,63,10,-73,95,119,116,65,-769,-19
-46,-74,-27,60,-9,-50,90,105,95,47,-764,-14
-44,-83,-39,64,-2,-61,101,128,116,61,-757,-26
-54,-79,-25,66,-15,-52,109,124,121,51,-762,-26
-46,-73,-26,60,-9,-50,115,140,126,56,-757,-24
-50,-73,-23,62,-14,-48,118,151,130,55,-761,-27
-47,-65,-18,56,-14,-42,120,158,143,54,-758,-23
-47,-65,-18,57,-14,-41,127,176,151,56,-760,-28
-45,-58,-13,52,-16,-35,131,189,156,54,-759,-29
-46,-58,-12,52,-17,-34,139,205,172,56,-760,-31
-51,-52,-1,51,-25,-26,146,227,188,47,-760,-29
-55,-49,5,52,-30,-22,155,258,197,40,-759,-34
-68,-46,22,56,-44,-12,170,281,212,31,-760,-46
-74,-41,33,58,-53,-4,183,297,218,13,-768,-45
-81,-39,43,60,-62,2,199,300,208,-17,-787,-49
-92,-34,58,62,-75,12,200,294,200,-51,-805,-61
-87,-29,59,58,-73,15,193,290,191,-82,-823,-64
-87,-25,62,56,-74,18,190,287,174,-108,-830,-61
-89,-20,69,54,-79,24,186,270,150,-104,-824,-55
-76,-15,61,45,-68,22,174,231,123,-91,-817,-52
-63,-12,52,37,-57,20,141,186,98,-84,-788,-44
-49,-6,43,27,-46,18,110,135,78,-48,-741,-15
-34,-1,33,18,-33,15,76,96,64,2,-691,5
-21,2,23,9,-23,12,43,71,54,54,-644,22
-2,8,10,-3,-6,9,34,57,41,97,-605,41
8,9,1,-9,3,5,33,54,36,137,-570,50
3,3,-1,-3,2,1,30,51,34,166,-538,55
-8,-12,-4,11,-2,-8,26,48,38,174,-503,61
-10,-16,-6,13,-1,-11,26,45,53,188,-478,64
-1,-11,-10,6,5,-10,19,45,55,191,-466,57
-1,-10,-9,5,4,-9,22,52,56,189,-454,52
-2,-5,-3,4,1,-3,41,58,65,190,-440,46
-9,-6,3,7,-5,-1,40,60,69,190,-426,41
-17,-8,9,13,-13,0,49,76,68,189,-413,41
-24,-17,7,20,-15,-5,59,89,64,178,-400,38
-26,-25,1,25,-13,-12,62,88,65,167,-389,32
-28,-31,-3,30,-12,-17,64,87,61,154,-380,29
-28,-36,-8,32,-10,-22,59,83,59,150,-367,23
-15,-27,-12,22,-1,-20,61,81,61,150,-347,20
-11,-25,-15,18,3,-20,60,78,60,150,-327,24
-14,-19,-5,17,-4,-12,61,74,61,149,-307,25
-17,-17,1,17,-9,-7,60,79,60,153,-289,27
-11,-4,7,7,-9,1,66,86,62,167,-266,37
7,24,17,-15,-6,20,87,106,82,187,-238,49
17,35,17,-26,0,26,104,124,103,206,-217,59
21,70,49,-46,-14,59,76,116,101,214,-180,78
34,87,53,-60,-10,70,-8,83,72,212,-154,83
51,65,14,-58,18,39,-53,51,40,198,-157,73
70,51,-19,-60,44,16,-52,50,28,193,-152,68
63,25,-39,-44,51,-7,-43,48,22,182,-153,58
41,11,-30,-26,36,-9,-29,52,28,179,-146,54
17,-12,-29,-2,23,-20,-22,47,22,170,-157,51
-1,-18,-18,10,9,-18,-12,53,27,163,-157,58
-10,-31,-21,21,5,-25,-7,51,24,164,-150,52
-22,-26,-4,24,-9,-15,6,63,29,160,-144,57
-16,-26,-11,21,-2,-18,6,67,35,178,-127,54
-7,-18,-11,13,2,-15,-15,49,32,164,-132,55
10,5,-5,-8,8,0,-132,-85,-23,186,-95,77
-54,-97,-44,75,-5,-70,-371,-771,-579,-85,-221,9
228,-11,-238,-108,233,-124,-736,-1307,-1128,2,-28,145
803,433,-370,-618,586,31,-1365,-1503,-1363,669,663,664
926,779,-148,-852,537,315,-1579,-1524,-1447,460,881,1016
701,372,-329,-537,515,22,-874,-716,-803,59,392,606
253,-108,-361,-72,307,-234,-237,-137,-238,62,-90,108
-52,-61,-10,57,-20,-35,-29,-42,-88,19,-150,70
-44,-75,-31,59,-6,-53,94,125,75,77,-162,12
-66,-72,-6,69,-30,-38,111,119,77,80,-176,-17
-65,-60,5,63,-35,-27,128,146,105,84,-156,-11
-70,-71,-1,70,-34,-36,137,160,114,83,-168,-25
-74,-54,20,64,-47,-17,142,161,112,76,-150,-16
-75,-66,9,70,-42,-28,152,178,125,82,-161,-23
-84,-55,30,69,-57,-13,148,174,124,71,-162,-21
-80,-57,22,68,-50,-17,151,182,133,77,-170,-27
-88,-54,34,71,-60,-9,155,188,136,76,-175,-24
-81,-53,28,67,-54,-13,161,206,153,81,-176,-33
-79,-47,32,63,-55,-8,161,219,157,79,-187,-35
-86,-42,44,64,-65,1,175,239,168,74,-191,-36
-84,-39,45,61,-64,2,189,255,181,69,-193,-41
-92,-33,59,63,-75,12,188,276,194,62,-195,-40
-96,-29,67,62,-81,18,200,302,208,58,-211,-46
-103,-26,77,64,-89,25,221,327,219,48,-223,-53
-104,-23,81,64,-92,29,230,340,219,24,-240,-59
-106,-21,85,63,-95,32,241,335,210,-5,-261,-68
-134,-17,117,76,-125,49,241,327,202,-34,-279,-77
-136,-15,121,75,-128,52,231,317,195,-65,-298,-74
-124,-13,111,68,-117,49,227,310,183,-77,-294,-65
-112,-4,109,58,-110,52,217,285,163,-73,-288,-57
-96,4,100,46,-98,51,199,235,135,-70,-278,-49
-85,12,98,36,-92,55,169,195,107,-47,-247,-41
-68,19,87,24,-78,53,131,155,90,-5,-209,-23
-54,16,70,19,-63,42,95,118,74,42,-172,-2
-46,15,61,15,-54,37,77,99,65,84,-147,16
-39,15,54,12,-47,35,74,82,62,121,-125,29
-32,15,47,8,-40,31,71,78,58,148,-102,32
-24,15,39,4,-32,27,68,81,54,166,-92,30
-19,13,32,3,-25,22,66,80,50,178,-86,30
-28,8,36,10,-32,22,64,80,51,180,-79,30
-36,5,41,15,-39,22,59,81,50,180,-73,30
-38,2,40,18,-39,21,73,86,57,173,-65,30
-42,-3,39,23,-41,18,82,90,62,166,-72,23
-47,-5,41,26,-44,17,79,86,61,159,-80,13
-60,-10,50,35,-55,20,91,84,60,151,-73,5
-63,-14,48,38,-55,17,99,85,56,144,-69,-5
-61,-18,43,39,-52,12,104,84,54,137,-62,-13
-62,-20,42,41,-52,11,104,85,51,133,-57,-15
-57,-22,35,39,-46,6,97,84,49,127,-52,-16
-54,-18,37,36,-45,9,93,80,46,124,-44,-20
-52,-12,40,32,-46,14,86,76,45,118,-36,-20
-48,-8,40,28,-44,16,81,73,46,115,-28,-13
-46,-1,46,23,-46,22,85,70,45,120,-22,-5
-41,2,43,19,-43,23,95,63,49,129,-1,3
-36,18,54,9,-46,35,111,80,69,147,27,11
-21,41,62,-10,-42,51,142,110,93,167,40,18
1,81,81,-41,-40,81,139,112,96,177,64,36
10,109,99,-60,-45,104,62,70,79,171,82,46
23,86,63,-55,-21,74,-1,33,57,149,73,38
26,51,24,-39,1,37,-26,37,21,139,69,33
26,23,-2,-24,14,10,-30,32,-12,127,59,27
34,22,-11,-27,22,5,-6,32,1,122,56,22
1,9,8,-5,-4,9,10,28,12,114,48,6
-14,11,26,2,-20,18,26,30,19,103,43,-8
-16,-1,15,8,-15,7,36,38,22,110,42,-28
-27,-2,26,14,-26,12,43,50,18,97,31,-31
-23,-8,14,16,-19,3,42,50,30,116,38,-17
-45,-20,25,32,-35,3,18,34,11,90,21,-30
3,33,31,-18,-14,32,-69,-16,-2,128,68,4
-62,-68,-6,65,-28,-37,-276,-623,-430,-85,-57,-48
120,-41,-162,-39,141,-101,-588,-1274,-1028,-169,-7,0
711,348,-364,-529,537,-8,-1174,-1518,-1316,465,636,476
922,767,-155,-844,538,306,-1564,-1660,-1506,402,965,912
749,513,-236,-630,492,138,-996,-953,-984,-45,577,646
327,-31,-357,-148,342,-194,-274,-221,-312,-54,69,127
-9,-31,-23,20,7,-27,-24,-104,-118,-69,-63,-9
-47,-32,14,39,-30,-8,112,86,57,0,-63,-73
-82,-61,21,71,-52,-19,149,119,80,7,-107,-94
-90,-47,44,68,-67,-1,155,117,85,12,-94,-77
-105,-80,26,92,-65,-27,168,144,102,29,-104,-91
-100,-56,44,77,-71,-6,176,147,105,25,-102,-92
-92,-64,28,77,-60,-17,184,167,120,34,-106,-114
-90,-51,40,70,-65,-5,177,154,110,27,-105,-107
-79,-47,33,62,-56,-7,184,166,123,38,-104,-111
-89,-54,35,71,-62,-9,188,182,128,34,-113,-110
-93,-60,33,76,-63,-13,195,193,138,33,-121,-109
-96,-54,42,75,-68,-6,198,200,141,27,-137,-114
-92,-49,43,70,-67,-3,202,222,153,22,-139,-114
-96,-46,50,71,-73,2,209,243,169,19,-148,-119
-99,-40,59,69,-79,9,217,265,177,14,-159,-120
-100,-37,63,69,-81,13,228,290,197,9,-162,-125
-107,-31,76,69,-91,22,237,313,212,1,-176,-128
-110,-27,83,68,-96,28,243,324,204,-29,-198,-132
-121,-23,98,71,-109,38,249,316,198,-65,-231,-148
-129,-18,111,73,-120,47,245,309,190,-92,-253,-152
-130,-13,116,71,-123,51,239,303,182,-122,-269,-147
-123,-8,115,65,-118,53,232,290,177,-138,-283,-145
-109,-2,107,56,-108,52,228,265,157,-148,-285,-141
-96,3,99,47,-98,51,217,226,130,-140,-270,-141
-82,9,91,37,-87,50,182,184,103,-113,-235,-132
-70,14,84,28,-78,49,146,146,85,-76,-202,-114
-56,12,68,22,-62,39,116,114,75,-26,-173,-87
-41,10,51,15,-46,30,91,93,62,19,-144,-66
-34,10,44,12,-39,27,81,75,57,59,-122,-64
-33,5,38,13,-36,21,78,63,61,90,-108,-60
-25,5,30,10,-28,17,75,65,59,102,-95,-56
-21,4,25,8,-23,14,72,65,64,111,-90,-56
-18,-1,17,9,-18,8,70,65,65,125,-88,-60
-22,-4,18,13,-19,7,70,65,65,129,-85,-60
-38,-7,30,22,-34,11,70,65,70,122,-82,-60
-41,-12,30,27,-35,9,77,69,70,118,-79,-60
-40,-15,25,27,-32,5,94,72,73,112,-94,-59
-44,-20,24,32,-34,2,100,77,76,107,-101,-69
-50,-30,20,40,-35,-5,104,80,72,101,-99,-78
-53,-34,19,43,-35,-7,109,80,70,97,-100,-79
-52,-38,14,45,-33,-12,104,80,67,94,-100,-92
-53,-43,10,48,-32,-16,100,80,64,91,-100,-101
-49,-41,8,45,-29,-16,98,80,61,89,-94,-100
-41,-38,3,39,-22,-17,93,79,60,84,-87,-96
-36,-36,1,36,-18,-17,90,82,65,87,-81,-87
-35,-32,3,33,-19,-14,94,85,65,82,-74,-82
-38,-30,7,34,-23,-11,96,86,66,90,-67,-74
-39,-25,14,32,-26,-6,100,86,65,102,-67,-66
-25,-1,25,13,-25,12,101,84,68,111,-64,-56
-20,11,30,4,-25,20,118,97,94,142,-52,-50
-10,33,43,-11,-26,37,130,103,109,154,-43,-31
15,80,65,-48,-25,73,85,90,108,169,-37,0
32,88,56,-60,-12,72,15,43,84,165,-33,-4
39,65,26,-52,7,46,-28,10,59,144,-30,-11
42,25,-16,-33,29,5,-34,1,53,144,-41,-23
38,3,-35,-20,36,-15,-25,-4,46,134,-57,-35
8,-11,-19,1,14,-15,1,13,46,140,-66,-47
-24,-31,-7,27,-8,-19,24,23,35,127,-83,-59
-22,-33,-12,27,-4,-22,24,35,40,134,-72,-52
-29,-39,-10,34,-9,-24,26,23,29,129,-74,-58
-15,-23,-8,19,-4,-16,23,39,48,140,-58,-46
-25,-40,-15,33,-5,-28,27,14,47,147,-60,-55
-3,-3,0,3,-1,-1,-20,5,40,154,-46,-44
-20,-31,-11,26,-4,-21,-179,-322,-151,105,-84,-59
-38,-106,-69,72,16,-87,-395,-1064,-760,-161,-182,-76
442,131,-311,-287,376,-90,-793,-1405,-1145,277,280,237
813,612,-201,-713,507,205,-1389,-1669,-1441,656,868,771
730,670,-60,-700,395,305,-1317,-1388,-1302,185,744,827
453,108,-344,-280,398,-118,-543,-453,-521,1,190,296
35,-115,-150,40,93,-132,-120,-150,-177,-36,-146,-3
-62,-51,11,57,-36,-20,29,-5,-10,-2,-166,-56
-47,-92,-45,69,-1,-68,105,119,90,65,-188,-114
-65,-63,2,64,-33,-30,111,95,79,43,-185,-94
-65,-89,-24,77,-20,-56,144,141,117,71,-182,-105
-99,-98,1,99,-50,-48,129,128,101,54,-188,-98
-87,-92,-6,90,-40,-49,138,145,115,60,-186,-100
-95,-87,8,91,-51,-39,134,143,109,52,-201,-101
-84,-77,7,80,-45,-35,135,152,117,49,-202,-98
-77,-75,3,75,-40,-36,136,162,121,47,-212,-104
-75,-69,6,72,-40,-31,133,161,125,42,-219,-111
-80,-82,-2,81,-39,-42,146,182,140,53,-227,-116
-90,-89,1,89,-45,-44,150,193,145,50,-229,-115
-87,-84,3,85,-45,-40,151,214,160,41,-235,-121
-95,-77,17,86,-56,-30,155,238,171,33,-244,-120
-95,-72,22,83,-58,-25,165,261,187,23,-251,-125
-94,-70,24,81,-59,-22,176,288,200,14,-257,-125
-101,-67,34,84,-67,-16,184,290,199,-1,-269,-127
-121,-64,57,92,-89,-3,188,280,193,-31,-296,-139
-122,-61,61,92,-92,0,181,275,186,-60,-316,-142
-120,-59,61,89,-90,1,174,265,182,-98,-339,-152
-121,-56,65,88,-93,5,168,261,173,-123,-353,-159
-104,-49,54,76,-79,2,160,247,151,-115,-347,-147
-92,-46,46,69,-69,0,155,212,125,-104,-342,-138
-79,-41,37,60,-58,-1,137,170,99,-97,-316,-124
-64,-36,28,50,-46,-4,110,130,77,-70,-279,-99
-52,-32,20,42,-36,-6,83,95,68,-21,-243,-69
-39,-30,10,34,-25,-10,63,67,64,39,-197,-44
-31,-30,0,30,-15,-15,46,49,59,85,-158,-36
-19,-30,-11,25,-4,-20,37,42,55,114,-132,-29
-13,-30,-17,22,2,-24,40,37,50,140,-113,-23
-14,-30,-16,23,1,-22,40,34,53,156,-85,-15
-18,-30,-12,24,-3,-21,40,29,57,165,-48,-11
-20,-30,-10,25,-5,-20,40,24,59,165,-28,-14
-23,-30,-6,27,-9,-18,40,36,66,158,-8,-17
-26,-31,-5,29,-10,-17,45,46,70,155,18,-19
-20,-28,-8,24,-6,-18,48,49,70,150,30,-23
-30,-41,-11,35,-9,-26,53,47,72,146,42,-24
-44,-57,-14,51,-14,-36,58,44,70,140,57,-28
-42,-59,-17,51,-12,-37,56,45,65,132,79,-37
-44,-64,-20,54,-12,-41,55,40,63,125,90,-41
-46,-66,-20,56,-12,-43,54,40,58,115,101,-44
-42,-61,-20,52,-11,-40,50,39,55,112,128,-48
-49,-69,-20,59,-14,-45,49,35,58,115,143,-56
-52,-71,-20,62,-16,-45,53,33,61,115,171,-57
-42,-62,-20,52,-11,-41,55,30,60,115,208,-44
-33,-53,-20,43,-6,-36,57,27,61,115,229,-36
-30,-43,-14,37,-8,-29,60,25,61,119,246,-23
-24,-21,3,22,-13,-9,60,30,60,132,282,-8
-7,7,15,0,-11,11,80,57,83,159,316,5
-4,32,36,-14,-20,33,90,62,93,181,347,22
20,67,47,-44,-14,57,42,32,76,187,383,41
29,62,33,-46,-2,47,-26,0,60,183,391,56
23,43,20,-34,1,31,-65,-24,43,177,396,60
50,18,-32,-34,41,-7,-77,-45,26,176,395,41
36,-12,-49,-12,43,-30,-68,-43,24,165,393,27
-3,-21,-19,12,8,-20,-36,-34,27,169,398,23
-27,-34,-8,31,-9,-21,-9,-30,22,155,391,16
-27,-39,-11,33,-8,-25,-11,-16,30,161,403,16
-34,-44,-10,39,-12,-27,-7,-21,20,154,401,5
-13,-20,-8,17,-2,-14,-4,0,40,163,427,10
-16,-31,-16,23,0,-23,-9,-18,21,160,429,9
-6,3,9,1,-7,6,-54,-7,28,170,464,38
-25,-29,-4,27,-10,-17,-229,-361,-186,115,444,22
-31,-110,-79,71,24,-94,-461,-1117,-831,-160,340,-14
451,127,-324,-289,387,-98,-879,-1426,-1211,289,819,292
839,599,-240,-719,540,179,-1482,-1667,-1492,666,1410,819
780,663,-117,-721,448,272,-1351,-1362,-1304,193,1276,864
480,91,-389,-285,435,-149,-561,-447,-510,6,733,327
37,-133,-171,49,104,-152,-139,-167,-177,-23,429,44
-69,-48,21,59,-44,-13,-5,-46,-15,13,435,30
-63,-80,-17,72,-23,-48,69,73,86,71,421,-33
-84,-44,40,64,-62,-2,89,75,73,41,425,-25
-83,-76,7,80,-45,-34,105,107,101,60,426,-32
-108,-81,27,94,-68,-27,109,96,97,54,422,-34
-93,-76,17,84,-54,-29,124,119,114,63,426,-40
-98,-77,20,87,-58,-28,118,120,112,54,416,-41
-90,-69,22,79,-56,-23,121,132,127,54,415,-38
-97,-72,24,84,-61,-24,125,129,125,51,408,-42
-103,-64,39,83,-70,-13,128,138,123,48,406,-38
-92,-61,31,76,-61,-14,133,157,134,44,400,-41
-91,-51,40,71,-65,-6,137,169,146,36,396,-39
-89,-47,42,67,-65,-2,145,190,163,33,391,-41
-91,-39,52,64,-71,7,151,207,173,25,386,-38
-91,-34,57,62,-74,11,157,234,189,22,382,-44
-90,-28,61,59,-75,16,177,261,204,12,377,-49
-111,-24,87,67,-99,31,192,280,204,-6,372,-53
-120,-20,101,70,-111,40,193,282,198,-32,349,-70
-125,-15,110,70,-117,47,202,273,194,-62,330,-78
-129,-11,117,69,-123,53,202,265,189,-96,330,-84
-120,-1,119,61,-120,59,193,256,175,-121,329,-81
-140,-10,130,75,-135,60,189,232,149,-119,325,-73
-129,-3,126,66,-127,61,173,190,127,-113,324,-69
-92,21,113,35,-103,67,142,139,102,-113,326,-63
-74,27,101,23,-88,64,109,93,77,-88,355,-49
-55,31,87,12,-71,59,77,62,60,-36,409,-27
-43,29,73,7,-58,51,49,43,43,12,452,-10
-38,27,65,5,-52,46,36,32,34,50,488,0
-40,24,64,7,-52,44,33,26,36,86,523,10
-34,26,60,4,-47,42,26,19,33,108,545,21
-27,31,58,-2,-43,44,22,11,30,122,572,22
-23,30,53,-4,-38,41,15,3,29,132,593,19
-28,30,58,-1,-43,44,15,2,34,128,612,20
-40,30,70,5,-55,50,32,9,35,125,628,15
-40,30,70,5,-55,50,38,16,38,122,634,15
-41,29,70,6,-55,50,41,22,51,120,647,14
-44,26,70,9,-58,47,48,29,49,118,662,7
-49,21,70,14,-60,46,55,34,45,108,674,3
-49,18,67,15,-58,43,55,30,44,100,685,-3
-50,15,65,17,-58,40,55,27,39,91,698,-8
-55,10,65,22,-60,37,55,23,41,84,711,-14
-54,8,62,23,-58,34,56,20,45,86,728,-11
-73,-14,59,43,-66,22,55,16,45,83,740,-5
-70,-9,61,39,-65,26,53,15,48,80,751,-1
-52,13,65,19,-59,39,49,17,51,79,774,6
-47,25,73,11,-60,49,52,13,49,82,796,11
-32,59,91,-13,-62,74,75,33,56,106,825,17
-24,77,101,-27,-63,89,98,45,78,127,852,21
-5,113,118,-54,-61,115,81,29,80,144,880,41
6,129,123,-67,-59,126,-5,1,48,146,908,60
15,107,92,-61,-39,100,-61,-40,22,127,909,49
40,97,57,-68,-9,77,-66,-64,16,123,910,41
20,62,42,-42,-11,52,-75,-73,3,113,909,29
7,49,42,-28,-17,45,-48,-62,3,111,910,22
-13,37,50,-12,-32,43,-14,-63,3,105,909,18
-33,32,65,0,-50,48,-2,-54,10,95,913,22
-31,25,55,3,-43,40,2,-52,16,102,927,14
-32,32,64,0,-48,48,9,-49,14,92,931,15
-26,31,57,-2,-41,44,14,-37,32,115,954,18
-35,26,61,5,-48,44,-1,-56,9,96,957,15
-12,61,74,-25,-43,67,-105,-132,-21,132,991,44
-74,-37,37,56,-56,0,-328,-766,-484,-100,904,-29
135,2,-132,-68,134,-65,-655,-1393,-1087,-153,991,48
704,395,-309,-550,506,43,-1258,-1600,-1358,504,1620,528
920,810,-110,-865,515,350,-1609,-1711,-1514,442,1954,959
736,514,-222,-625,479,146,-1006,-988,-957,-24,1528,652
298,-36,-334,-131,316,-185,-299,-282,-310,-59,1010,115
-43,-7,36,25,-39,14,-53,-173,-126,-62,889,32
-70,14,84,28,-78,49,75,-3,37,-1,893,-29
-79,-7,72,43,-76,32,111,27,58,13,879,-60
-80,9,89,36,-85,49,124,39,75,20,889,-47
-85,-13,72,49,-78,29,136,59,92,22,893,-69
-97,-2,95,49,-96,46,144,59,92,16,913,-53
-91,-14,77,52,-84,31,147,75,103,24,917,-68
-92,-1,91,46,-91,45,148,66,102,16,930,-63
-88,-7,81,47,-84,37,152,84,112,18,926,-66
-92,-5,87,48,-89,41,152,95,118,12,920,-70
-97,-4,93,50,-95,44,159,111,132,11,918,-69
-98,-6,92,52,-94,42,160,117,136,7,911,-73
-104,0,104,52,-104,52,170,127,149,5,909,-76
-108,5,112,52,-110,58,177,147,160,3,903,-81
-117,10,127,53,-122,68,186,167,170,-7,898,-84
-121,16,137,52,-130,77,192,189,190,-18,894,-88
-120,21,141,50,-131,81,207,216,200,-27,889,-93
-125,28,153,48,-139,90,223,230,199,-46,885,-103
-128,39,167,44,-147,103,226,223,190,-77,880,-113
-144,40,184,52,-164,112,233,217,182,-113,879,-122
-149,42,191,54,-171,116,226,212,174,-144,879,-119
-130,54,183,38,-157,118,214,199,166,-157,875,-110
-120,59,179,30,-149,119,207,170,153,-158,874,-102
-110,63,172,23,-141,117,186,126,132,-151,876,-94
-95,73,168,11,-132,120,153,75,104,-138,904,-86
-87,75,162,6,-125,118,122,26,70,-116,949,-67
-61,81,142,-10,-102,111,94,-5,54,-86,999,-52
-43,86,128,-22,-86,107,72,-29,50,-60,1042,-43
-44,80,124,-18,-84,102,63,-41,45,-53,1082,-32
-41,78,118,-19,-80,98,59,-36,42,-56,1123,-23
-40,73,113,-17,-77,93,54,-35,36,-54,1149,-20
-37,70,106,-17,-72,88,50,-35,37,-55,1177,-20
-41,67,107,-13,-74,87,45,-35,41,-55,1190,-20
-46,64,110,-9,-79,87,49,-36,43,-59,1205,-19
-52,61,113,-5,-83,87,56,-34,46,-79,1226,-21
-57,58,115,-1,-86,86,60,-28,49,-94,1253,-24
-54,56,110,-1,-83,82,73,-22,50,-115,1287,-28
-57,53,110,2,-84,81,83,-18,50,-136,1308,-41
-58,50,109,4,-83,79,84,-11,50,-153,1341,-50
-57,47,105,4,-81,76,81,-6,50,-178,1372,-56
-60,45,105,7,-83,75,79,-9,48,-203,1396,-62
-66,41,107,12,-86,74,80,-21,42,-231,1432,-68
-71,40,111,16,-91,75,80,-27,38,-254,1457,-70
-72,37,109,18,-91,73,80,-37,34,-275,1496,-72
-79,32,110,24,-95,71,82,-44,29,-293,1538,-78
-79,30,110,24,-95,70,87,-36,24,-301,1598,-67
-59,51,110,4,-85,80,89,-33,27,-298,1686,-55
-37,84,121,-24,-79,103,91,-17,48,-292,1744,-46
-27,105,132,-39,-80,118,124,4,77,-288,1836,-34
-6,142,147,-68,-77,144,119,-4,79,-284,1912,-34
22,174,152,-98,-65,163,42,-42,50,-279,2021,-35
26,159,133,-92,-53,146,-17,-74,21,-292,2106,-36
31,127,96,-79,-33,111,-40,-90,4,-317,2216,-34
13,91,78,-52,-32,84,-41,-109,-19,-340,2310,-36
-8,74,82,-33,-45,78,-27,-100,-19,-339,2418,-34
-16,61,77,-22,-47,69,3,-101,-13,-341,3032,-49
-22,61,84,-19,-53,72,23,-95,-10,-358,3405,-59
-23,52,75,-15,-49,63,15,-91,0,-353,3313,-60
-34,51,85,-8,-60,68,15,-92,-3,-366,3330,-66
-29,46,75,-9,-52,60,5,-77,15,-340,3318,-57
-42,42,84,0,-63,63,11,-94,3,-358,3218,-58
2,87,86,-45,-42,86,-66,-143,-13,-325,3132,-22
-42,0,41,21,-42,20,-288,-721,-415,-521,2946,-80
99,7,-92,-53,95,-42,-590,-1393,-1018,-643,2896,-36
680,384,-296,-531,487,44,-1166,-1646,-1320,-30,3397,410
927,830,-97,-878,512,366,-1582,-1807,-1520,-37,3692,870
763,599,-164,-681,463,217,-1061,-1153,-1039,-511,3243,649
393,85,-307,-239,350,-111,-326,-383,-349,-527,2652,108
18,70,51,-44,-17,60,-51,-237,-141,-524,2445,-27
-67,31,98,18,-83,64,89,-67,30,-472,2363,-100
-92,-13,79,52,-85,33,127,-21,62,-458,2244,-137
-91,11,102,40,-96,57,134,-9,70,-458,2168,-117
-89,-11,78,50,-83,34,149,14,95,-446,2075,-138
-99,1,100,49,-99,50,150,13,95,-454,1998,-130
-100,-16,84,58,-92,34,158,37,106,-440,1918,-145
-112,-11,101,61,-106,45,152,29,94,-449,1849,-137
-105,-13,92,59,-98,39,167,49,111,-465,1756,-141
-102,-6,96,53,-99,45,170,63,114,-472,1666,-140
-96,-1,95,48,-95,47,171,76,122,-469,1591,-139
-93,1,94,45,-94,47,173,86,133,-475,1506,-144
-92,9,101,42,-97,55,180,104,138,-475,1438,-147
-91,10,102,40,-97,56,183,121,145,-474,1363,-152
-92,18,110,36,-101,64,186,138,164,-468,1290,-155
-94,20,114,37,-104,66,206,164,187,-477,1238,-159
-97,22,119,37,-108,70,215,185,187,-496,1169,-164
-108,26,135,41,-122,80,223,208,179,-515,1102,-170
-127,23,150,52,-139,86,233,208,173,-545,1025,-169
-128,34,161,47,-145,97,237,194,166,-569,1008,-182
-118,48,165,35,-142,106,232,184,159,-605,1022,-191
-112,50,162,31,-137,106,225,171,154,-623,947,-181
-101,55,156,23,-129,105,221,154,139,-612,895,-176
-92,58,150,17,-121,104,201,120,123,-602,874,-168
-82,63,146,9,-114,104,169,80,103,-588,851,-148
-69,64,133,2,-101,98,136,39,77,-556,839,-127
-56,60,116,-2,-86,88,105,3,59,-514,820,-113
-40,57,97,-9,-69,77,84,-15,42,-475,806,-100
-28,55,83,-14,-56,69,77,-31,38,-435,789,-90
-26,51,78,-13,-52,64,73,-43,41,-402,773,-82
-21,49,71,-14,-46,60,68,-40,39,-373,741,-73
-6,59,64,-27,-35,61,64,-35,40,-364,698,-73
0,57,57,-29,-28,57,60,-31,41,-363,650,-75
-9,48,58,-20,-34,53,64,-26,46,-359,604,-75
-18,43,61,-12,-40,52,68,-21,49,-357,565,-74
-24,36,59,-6,-42,47,77,-17,54,-354,525,-76
-32,28,60,2,-47,44,86,-13,59,-358,486,-74
-39,20,60,9,-50,40,83,-7,54,-367,444,-90
-46,14,60,16,-53,37,94,-4,56,-374,409,-110
-52,5,58,23,-55,31,101,1,52,-385,375,-110
-52,0,52,26,-52,26,95,5,49,-391,334,-110
-57,-10,48,33,-52,19,93,-1,50,-389,299,-107
-61,-18,43,39,-52,12,88,-8,46,-390,264,-117
-50,-11,39,30,-45,14,85,-14,45,-389,227,-118
-40,-6,34,23,-37,14,82,-20,45,-390,200,-108
-37,-1,36,19,-37,17,80,-27,46,-384,173,-103
-28,6,34,11,-32,19,76,-28,45,-378,147,-96
-26,9,35,8,-31,22,76,-17,47,-368,129,-88
-23,27,50,-2,-37,38,98,-13,61,-348,112,-80
-13,47,61,-18,-37,54,123,5,87,-320,99,-69
5,81,76,-43,-35,78,119,9,102,-301,86,-35
30,116,86,-74,-28,101,57,-36,80,-299,77,-20
32,110,77,-71,-23,93,-19,-69,51,-300,61,-19
44,82,38,-63,2,60,-41,-87,35,-311,27,-23
38,38,0,-38,19,19,-29,-103,28,-327,-15,-42
33,19,-13,-25,23,3,-18,-80,31,-323,-38,-39
28,12,-16,-19,22,-2,3,-70,26,-314,-64,-62
10,7,-4,-8,7,2,17,-64,23,-318,-94,-76
6,-1,-7,-2,7,-4,14,-57,28,-301,-105,-67
-19,-9,9,13,-14,0,16,-57,28,-314,-134,-66
-7,-4,3,5,-5,-1,12,-39,46,-285,-135,-51
-30,-9,21,19,-25,6,19,-60,23,-294,-161,-56
12,35,23,-24,-6,29,-48,-85,30,-259,-136,-32
-11,-25,-15,18,2,-20,-248,-599,-317,-414,-234,-65
83,-40,-123,-22,103,-81,-490,-1285,-923,-567,-260,-36
603,279,-324,-441,463,-22,-988,-1547,-1231,43,331,366
886,736,-150,-811,518,292,-1499,-1770,-1503,106,744,855
771,581,-190,-676,480,196,-1131,-1196,-1107,-369,410,697
355,8,-347,-181,351,-169,-371,-343,-362,-414,-143,141
-10,-55,-45,33,17,-50,-70,-177,-137,-462,-375,-34
-51,-25,26,38,-39,1,57,-10,32,-394,-393,-95
-92,-79,13,85,-52,-33,112,69,89,-349,-410,-138
-85,-67,18,76,-51,-24,115,70,88,-355,-414,-110
-59,-79,-19,69,-20,-49,131,96,105,-343,-442,-122
-52,-64,-12,58,-20,-38,132,88,98,-359,-444,-107
-41,-68,-28,55,-6,-48,137,109,113,-350,-477,-108
-55,-64,-10,60,-22,-37,135,101,112,-358,-491,-107
-62,-76,-13,69,-24,-44,141,113,126,-349,-503,-113
-67,-72,-5,70,-31,-38,139,126,124,-350,-529,-122
-64,-65,-1,65,-31,-32,140,136,125,-351,-537,-130
-66,-64,1,65,-33,-31,140,145,126,-360,-560,-132
-63,-55,8,59,-35,-23,150,168,141,-360,-573,-127
-66,-58,9,62,-37,-24,158,190,159,-361,-594,-127
-75,-61,14,67,-45,-23,159,209,170,-372,-609,-122
-74,-56,17,65,-45,-19,174,238,186,-378,-631,-132
-72,-51,21,62,-46,-15,183,259,200,-382,-643,-149
-73,-48,25,60,-48,-11,190,280,210,-400,-662,-150
-75,-43,32,59,-53,-5,190,285,201,-438,-706,-151
-81,-38,43,60,-62,2,186,275,190,-464,-730,-150
-80,-35,45,57,-62,4,183,265,180,-493,-756,-158
-71,-32,38,51,-54,3,180,256,163,-517,-782,-163
-64,-30,34,46,-49,2,178,236,144,-520,-779,-153
-54,-27,28,40,-40,0,156,194,121,-508,-770,-149
-47,-25,23,36,-34,-1,127,156,95,-484,-758,-137
-42,-25,16,33,-28,-4,102,119,74,-442,-726,-116
-30,-25,5,27,-17,-10,74,80,66,-386,-696,-92
-18,-25,-6,22,-6,-15,53,49,54,-343,-678,-73
-8,-25,-18,17,6,-21,35,31,47,-300,-657,-58
6,-25,-31,9,19,-28,21,30,50,-260,-646,-46
9,-26,-36,9,23,-31,20,30,50,-229,-643,-44
5,-30,-35,13,20,-32,20,25,52,-216,-638,-45
5,-30,-35,13,20,-32,20,25,55,-213,-636,-45
5,-30,-35,13,20,-32,20,26,55,-206,-630,-45
4,-31,-35,14,20,-32,19,35,58,-202,-633,-45
6,-29,-35,12,21,-31,30,40,63,-195,-648,-41
-2,-37,-35,20,16,-36,40,44,64,-198,-652,-39
-12,-47,-35,30,12,-41,46,56,60,-209,-656,-41
-8,-44,-35,27,14,-39,48,57,57,-214,-662,-57
-16,-51,-34,34,9,-42,44,54,55,-226,-671,-65
-19,-56,-38,38,10,-47,45,51,51,-243,-680,-69
-14,-55,-40,34,13,-47,45,48,50,-249,-674,-81
-11,-55,-44,34,17,-49,45,45,46,-244,-667,-76
-5,-50,-45,28,20,-47,45,44,45,-241,-661,-71
-11,-50,-39,31,14,-44,45,40,45,-238,-653,-68
-16,-50,-34,33,9,-41,45,34,45,-233,-649,-62
-15,-42,-27,29,7,-34,46,32,46,-231,-640,-59
-14,-37,-23,26,5,-30,44,23,43,-219,-629,-46
-11,-27,-16,19,3,-21,49,38,54,-197,-620,-32
2,-7,-9,3,5,-8,72,63,78,-177,-607,-18
25,31,5,-28,10,18,84,67,96,-170,-590,-5
46,68,23,-57,11,45,19,48,85,-169,-584,5
53,63,10,-58,21,36,-63,3,51,-170,-583,14
73,39,-34,-56,53,2,-81,-11,39,-170,-577,26
77,6,-71,-41,74,-32,-86,-32,30,-169,-593,23
56,-9,-65,-24,61,-37,-84,-28,29,-171,-605,5
36,-27,-63,-4,49,-45,-50,-2,31,-158,-608,-9
4,-50,-54,23,29,-52,-24,-1,21,-161,-623,-19
5,-46,-51,21,28,-48,-26,9,29,-143,-611,-22
-1,-46,-45,24,23,-46,-24,2,23,-149,-617,-24
7,-29,-36,11,22,-32,-27,21,37,-131,-600,-4
-7,-42,-36,25,15,-39,-23,2,23,-132,-611,-7
12,-3,-15,-5,14,-9,-66,-5,35,-104,-585,20
-10,-48,-38,29,15,-43,-247,-405,-212,-182,-638,10
12,-111,-122,50,67,-116,-481,-1147,-848,-432,-722,-10
524,151,-373,-338,449,-111,-919,-1442,-1208,85,-206,309
883,623,-260,-753,571,181,-1506,-1663,-1497,388,337,832
799,633,-166,-716,482,233,-1322,-1304,-1264,-102,149,834
492,51,-441,-271,466,-194,-532,-421,-463,-233,-415,279
49,-132,-181,42,115,-156,-141,-161,-161,-258,-709,18
-47,-63,-17,55,-15,-40,-9,-14,-1,-226,-714,4
-26,-97,-72,62,23,-84,69,93,92,-162,-742,-52
-44,-64,-20,54,-12,-41,78,76,80,-165,-732,-49
-27,-73,-46,50,10,-59,92,111,109,-145,-742,-60
-47,-68,-21,58,-13,-44,99,101,96,-157,-747,-53
-52,-83,-32,68,-10,-57,109,118,114,-142,-743,-54
-55,-78,-22,67,-16,-50,103,120,111,-148,-757,-52
-52,-73,-20,62,-16,-46,106,133,118,-141,-760,-48
-51,-73,-21,62,-15,-47,115,145,124,-139,-770,-54
-52,-64,-12,58,-20,-38,121,153,125,-141,-775,-58
-56,-65,-10,61,-23,-37,120,169,137,-135,-779,-62
-59,-58,1,58,-30,-28,120,183,156,-135,-787,-59
-59,-54,4,56,-31,-25,131,200,162,-135,-796,-61
-63,-49,14,56,-38,-18,140,226,179,-140,-799,-70
-62,-45,17,53,-39,-14,145,257,199,-144,-803,-77
-67,-40,27,53,-47,-6,156,276,208,-148,-805,-74
-75,-37,38,56,-56,0,169,292,220,-165,-826,-77
-76,-33,44,54,-60,5,176,300,212,-194,-848,-87
-92,-29,63,61,-78,17,181,294,202,-222,-869,-98
-97,-26,72,61,-84,23,188,285,195,-258,-896,-103
-96,-21,75,58,-85,26,184,274,177,-282,-902,-98
-101,-19,83,60,-92,32,171,248,158,-286,-899,-88
-89,-13,76,51,-82,31,155,210,136,-287,-896,-82
-70,-7,63,39,-66,28,128,162,108,-270,-881,-74
-55,-3,53,29,-54,25,97,113,78,-229,-847,-59
-38,4,42,17,-41,23,64,73,53,-180,-810,-38
-24,9,33,7,-29,21,39,49,44,-132,-771,-17
-18,7,25,5,-22,16,30,41,46,-89,-737,-7
-10,4,14,3,-13,9,24,34,42,-51,-712,-1
-6,6,12,0,-10,9,17,28,40,-26,-692,6
-11,4,16,3,-14,10,11,20,40,-16,-678,13
-8,7,15,0,-12,11,10,16,43,-11,-665,19
-3,12,15,-5,-9,13,9,24,49,-6,-658,17
-8,7,15,0,-12,11,14,25,51,-3,-653,14
-15,5,20,5,-18,12,27,25,60,3,-649,11
-20,0,20,10,-20,10,34,35,63,5,-644,8
-24,-3,21,14,-22,9,41,44,60,-5,-640,5
-32,-7,25,19,-28,9,45,45,60,-14,-635,4
-42,-17,25,29,-33,4,45,44,60,-23,-627,0
-38,-15,23,27,-30,3,46,45,60,-32,-618,-4
-37,-20,17,28,-27,-1,44,44,60,-39,-611,-7
-31,-19,12,24,-21,-3,41,46,64,-48,-603,-12
-20,-11,9,16,-14,-1,39,51,66,-47,-590,-15
-13,-10,3,11,-8,-3,35,50,65,-40,-577,-11
-3,-2,0,3,-1,-1,37,51,65,-35,-562,-2
-12,-2,10,6,-11,4,42,50,66,-30,-548,3
-7,19,27,-6,-17,23,54,51,65,-13,-533,12
5,41,36,-23,-16,38,79,54,87,16,-513,22
10,64,54,-37,-22,58,88,55,104,37,-488,41
37,101,65,-69,-14,82,36,31,81,40,-464,63
47,95,48,-71,0,71,-39,-15,50,29,-465,58
49,67,18,-58,15,43,-70,-30,36,22,-464,50
66,37,-30,-52,48,3,-83,-45,29,17,-470,42
53,20,-32,-36,42,-6,-78,-46,27,9,-478,34
14,4,-10,-9,12,-3,-40,-35,26,10,-471,28
-4,-7,-3,6,0,-5,-18,-34,18,-5,-474,23
-1,-7,-6,4,3,-6,-20,-19,25,1,-463,24
-4,-18,-14,11,5,-16,-12,-24,17,-4,-471,15
-2,-13,-11,7,5,-12,-12,-2,39,17,-456,22
-12,-24,-12,19,0,-18,-13,-19,18,15,-467,7
9,24,15,-17,-3,19,-58,-22,27,35,-429,45
-29,-36,-7,32,-11,-21,-245,-404,-213,-47,-466,26
-3,-102,-100,53,49,-101,-511,-1166,-878,-317,-566,-11
508,163,-345,-335,426,-91,-993,-1479,-1248,157,-79,313
908,648,-260,-778,584,194,-1585,-1670,-1496,511,499,857
844,685,-159,-764,501,263,-1354,-1317,-1262,44,330,877
505,85,-420,-295,463,-168,-533,-423,-486,-128,-251,295
53,-120,-173,34,113,-146,-136,-157,-171,-123,-519,42
-65,-48,17,56,-40,-15,16,-41,-4,-97,-509,36
-62,-87,-25,74,-18,-56,92,77,85,-50,-538,-43
-79,-51,28,65,-53,-11,96,76,78,-57,-526,-32
-65,-65,0,64,-32,-32,118,110,120,-44,-530,-47
-76,-49,28,62,-52,-11,115,96,103,-55,-531,-43
-71,-50,21,60,-46,-14,128,114,117,-47,-528,-48
-83,-52,31,67,-57,-10,131,118,117,-52,-537,-52
-80,-44,36,62,-57,-4,140,130,119,-46,-532,-48
-80,-47,33,63,-56,-7,136,136,129,-44,-539,-52
-80,-43,37,61,-58,-3,136,141,142,-46,-546,-48
-75,-42,33,58,-54,-4,146,154,151,-44,-550,-52
-71,-34,37,52,-54,2,145,164,152,-46,-557,-57
-69,-31,38,50,-53,3,154,185,168,-45,-564,-65
-80,-26,54,53,-66,14,159,201,180,-56,-569,-64
-84,-21,62,52,-73,20,173,228,192,-62,-569,-68
-90,-18,72,54,-81,27,188,254,210,-70,-571,-70
-96,-13,82,54,-88,34,197,272,209,-91,-593,-72
-99,-10,89,55,-94,39,212,280,201,-115,-607,-83
-110,-7,104,58,-106,48,219,273,195,-146,-626,-93
-119,-2,117,60,-118,57,213,262,185,-176,-646,-95
-116,0,116,57,-116,58,205,254,180,-203,-645,-90
-106,7,112,49,-109,60,200,238,168,-213,-635,-82
-95,14,109,40,-102,61,188,201,148,-200,-625,-76
-87,19,106,34,-97,62,161,153,120,-187,-614,-69
-76,25,102,25,-89,63,124,111,90,-166,-581,-54
-53,30,82,11,-68,56,90,80,66,-123,-539,-37
-44,25,69,9,-57,47,63,51,55,-72,-503,-18
-40,25,65,7,-53,45,49,28,55,-33,-471,-7
-35,25,60,5,-48,42,45,25,54,-3,-447,-3
-33,23,56,5,-45,39,40,25,50,27,-427,3
-14,37,51,-12,-33,44,37,22,50,41,-419,8
-9,38,47,-14,-29,42,30,19,52,46,-421,14
-17,28,45,-6,-31,36,33,21,55,50,-417,11
-21,23,45,-1,-33,34,40,25,58,46,-414,4
-30,15,45,7,-38,30,40,31,61,39,-415,1
-35,10,45,12,-40,27,55,39,64,33,-411,-6
-40,6,46,17,-43,26,62,41,69,26,-410,-11
-47,3,51,22,-49,27,69,51,68,19,-409,-18
-50,1,50,25,-50,25,78,56,63,13,-405,-26
-53,-3,50,28,-51,23,78,52,60,8,-405,-43
-54,-4,50,29,-52,22,76,50,57,2,-404,-57
-60,-10,50,35,-54,20,69,46,52,-2,-397,-54
-67,-17,50,42,-58,16,66,46,51,-9,-392,-58
-58,-12,45,35,-51,16,62,41,54,-14,-388,-60
-49,-4,45,26,-47,20,56,41,56,-11,-380,-61
-48,-3,45,25,-46,20,63,39,54,-4,-378,-50
-23,24,48,-1,-36,36,81,45,62,23,-362,-26
-25,47,72,-11,-49,59,107,71,90,46,-335,-20
-19,68,87,-25,-53,77,115,77,105,62,-335,-15
27,114,87,-71,-30,100,59,43,88,78,-334,-5
30,105,76,-68,-23,90,-13,-3,63,63,-335,5
30,69,39,-50,-5,54,-45,-16,40,50,-335,14
21,37,15,-30,3,26,-52,-33,6,46,-334,2
8,20,13,-14,-3,16,-38,-28,-2,38,-339,-9
-9,4,13,3,-11,8,-14,-13,10,42,-339,-27
-39,-6,33,23,-35,13,2,-9,7,28,-348,-38
-31,-2,29,17,-30,13,5,7,23,36,-340,-31
-42,-13,29,27,-35,8,13,6,15,27,-347,-40
-32,-4,28,18,-30,12,18,30,39,41,-326,-28
-33,-14,19,23,-26,2,14,7,28,34,-339,-45
3,40,37,-22,-18,38,-33,6,31,63,-308,-16
-33,-21,12,27,-23,-4,-221,-364,-204,-21,-352,-29
-19,-92,-74,56,28,-82,-487,-1131,-842,-281,-459,-71
501,182,-319,-341,410,-68,-954,-1465,-1211,182,21,253
883,666,-217,-774,550,225,-1541,-1679,-1492,490,585,813
821,707,-113,-764,466,297,-1330,-1321,-1271,34,427,836
494,126,-368,-310,431,-121,-528,-410,-489,-99,-132,271
62,-53,-115,-4,89,-84,-126,-127,-170,-88,-411,2
-53,7,60,23,-57,34,32,14,-3,-57,-410,-43
-78,-72,6,75,-42,-33,107,131,89,-5,-431,-106
-92,-44,48,68,-70,2,106,115,81,-21,-437,-96
-78,-61,17,70,-47,-22,127,152,110,-14,-456,-120
-88,-49,38,68,-63,-5,130,149,102,-25,-456,-113
-74,-49,25,62,-50,-12,138,165,115,-15,-452,-115
-85,-53,32,69,-58,-11,134,163,111,-17,-458,-116
-83,-53,30,68,-56,-11,135,176,123,-14,-452,-114
-86,-57,29,72,-57,-14,136,182,123,-15,-458,-114
-98,-48,50,73,-74,1,142,191,125,-15,-465,-108
-99,-50,49,75,-74,-1,150,205,140,-14,-473,-111
-95,-44,51,70,-73,3,155,214,147,-16,-483,-110
-98,-44,54,71,-76,5,162,231,164,-13,-492,-110
-95,-40,55,67,-75,7,162,243,181,-18,-493,-111
-94,-37,57,65,-75,9,174,266,192,-16,-495,-117
-94,-35,59,65,-76,12,188,288,205,-32,-506,-122
-99,-31,67,65,-83,17,194,297,209,-49,-526,-129
-118,-30,88,74,-103,29,204,295,200,-76,-546,-143
-114,-27,87,70,-100,30,209,288,191,-115,-556,-151
-107,-22,85,64,-96,31,208,280,182,-131,-566,-145
-118,-20,98,69,-108,39,198,275,173,-164,-588,-152
-113,-15,97,64,-104,41,191,262,162,-166,-586,-157
-102,-12,90,57,-96,39,177,232,142,-157,-570,-143
-93,-8,85,50,-89,38,142,187,123,-147,-554,-129
-76,4,80,36,-78,42,109,140,99,-100,-525,-104
-57,6,64,25,-61,35,81,105,72,-60,-488,-82
-41,2,42,19,-42,22,56,77,64,-18,-450,-67
-29,0,29,14,-29,15,45,59,61,29,-415,-53
-22,-4,18,13,-20,7,40,53,57,62,-393,-45
-24,-5,19,14,-21,7,36,50,53,82,-389,-45
-23,-2,20,13,-21,9,31,47,50,102,-387,-45
-16,4,20,6,-18,12,26,42,53,108,-384,-45
-8,10,18,-1,-13,14,25,40,58,104,-380,-44
-12,2,14,4,-13,8,25,46,61,106,-380,-47
-20,-4,16,11,-17,6,36,53,66,101,-384,-45
-22,-11,11,16,-16,0,48,62,70,100,-389,-39
-27,-17,10,22,-18,-4,54,65,71,100,-390,-62
-33,-23,10,28,-21,-6,60,65,71,93,-391,-80
-37,-32,5,34,-21,-13,64,64,67,86,-404,-79
-45,-39,5,41,-25,-17,69,61,65,79,-405,-80
-49,-45,3,47,-26,-21,68,58,61,71,-405,-81
-43,-43,0,43,-21,-21,59,55,59,64,-415,-91
-39,-39,-1,39,-19,-20,53,53,64,61,-413,-97
-43,-40,3,41,-23,-18,45,50,66,70,-405,-94
-45,-36,8,40,-26,-14,37,51,65,80,-399,-91
-49,-35,15,42,-31,-10,33,50,66,80,-393,-89
-54,-36,18,44,-35,-8,34,52,65,83,-386,-78
-43,-17,27,29,-35,5,47,48,66,102,-381,-66
-14,15,28,-1,-21,21,71,60,93,129,-373,-48
2,29,27,-16,-13,28,104,71,119,149,-350,-23
21,59,38,-41,-9,48,68,36,109,163,-329,-12
53,77,25,-65,14,51,-32,1,87,161,-330,-8
45,56,11,-51,17,34,-75,-16,69,148,-330,0
53,25,-28,-39,41,-1,-73,-35,36,148,-329,-10
50,-7,-57,-21,54,-32,-69,-34,14,138,-355,-35
12,-22,-34,6,23,-28,-61,-25,33,142,-364,-40
-16,-35,-19,25,2,-27,-43,-27,40,131,-368,-42
-25,-42,-17,34,-4,-30,-39,-9,51,133,-360,-37
-34,-51,-17,43,-8,-34,-40,-20,50,130,-369,-44
-26,-30,-4,28,-11,-16,-41,7,56,127,-365,-42
-7,-38,-31,22,12,-34,-40,-7,41,148,-366,-43
32,-11,-43,-10,38,-27,-47,-12,35,141,-350,-31
27,-31,-58,2,43,-44,-188,-230,-75,127,-340,-24
-48,-114,-67,81,10,-90,-394,-962,-648,-138,-466,-63
337,64,-272,-200,304,-104,-733,-1379,-1088,166,-108,175
788,526,-262,-657,525,132,-1344,-1645,-1387,677,536,696
778,727,-51,-752,414,338,-1445,-1532,-1399,275,557,896
534,200,-334,-367,434,-67,-728,-621,-643,11,28,433
118,-122,-240,2,179,-180,-198,-185,-187,-9,-389,31
-46,-49,-3,47,-21,-26,-39,-47,-35,-13,-433,-25
-45,-110,-65,78,10,-88,52,108,105,72,-450,-89
-71,-94,-23,83,-24,-58,64,97,91,55,-453,-78
-59,-101,-43,80,-8,-72,79,138,120,72,-445,-78
-76,-102,-26,89,-25,-64,83,130,115,62,-454,-79
-72,-96,-25,84,-23,-60,91,147,130,66,-447,-71
-82,-104,-23,93,-29,-64,90,154,131,66,-451,-81
-82,-100,-18,91,-31,-59,89,154,127,59,-452,-81
-84,-109,-25,97,-29,-66,92,164,139,62,-471,-88
-86,-100,-14,93,-36,-56,88,163,146,58,-469,-83
-80,-98,-18,89,-31,-57,94,182,155,57,-471,-87
-79,-88,-9,84,-35,-48,100,196,159,54,-476,-83
-72,-83,-11,77,-30,-47,108,218,169,54,-474,-89
-70,-75,-6,73,-32,-40,114,244,187,46,-476,-100
-71,-71,0,71,-35,-35,115,267,203,38,-474,-100
-82,-76,6,78,-43,-35,121,300,212,34,-475,-99
-87,-75,12,81,-49,-31,138,323,220,18,-485,-103
-87,-72,16,79,-51,-28,140,325,214,-9,-503,-112
-102,-69,33,85,-67,-18,144,321,208,-37,-521,-121
-106,-66,40,86,-73,-12,149,314,203,-71,-541,-124
-108,-64,43,86,-75,-10,140,307,196,-98,-549,-116
-104,-60,44,82,-74,-8,135,287,178,-116,-540,-107
-87,-55,32,70,-59,-11,123,250,150,-114,-526,-99
-76,-51,25,63,-51,-12,96,201,121,-91,-507,-90
-61,-46,15,54,-38,-16,62,160,93,-56,-471,-81
-48,-41,7,44,-27,-16,33,127,78,2,-427,-63
-43,-42,1,43,-22,-20,12,98,74,56,-383,-38
-39,-46,-6,43,-16,-26,-3,89,68,104,-335,-17
-33,-45,-12,39,-10,-28,-9,86,64,144,-301,-1
-25,-45,-20,35,-2,-32,-16,82,56,167,-275,4
-21,-45,-24,34,2,-34,-24,79,60,183,-245,7
-14,-45,-32,30,9,-38,-31,74,69,195,-222,13
-14,-50,-35,33,11,-42,-33,79,74,196,-206,14
-20,-50,-30,35,5,-40,-26,79,81,192,-189,9
-23,-51,-28,37,3,-39,-19,87,80,190,-177,4
-33,-56,-23,45,-4,-39,-13,96,80,186,-170,-1
-33,-53,-20,43,-6,-36,-5,91,80,185,-161,-4
-45,-64,-19,55,-12,-42,-1,90,80,180,-154,-11
-50,-76,-26,63,-11,-50,0,90,78,170,-146,-9
-46,-77,-31,62,-7,-54,0,90,72,159,-127,-14
-51,-80,-29,66,-11,-55,0,90,67,152,-108,-26
-43,-77,-34,60,-4,-55,0,88,64,155,-95,-21
-38,-74,-35,57,-1,-55,-2,85,58,155,-79,-16
-37,-71,-34,54,-1,-52,-6,83,56,157,-56,-13
-39,-68,-30,54,-4,-49,-9,80,59,160,-45,-8
-42,-65,-23,54,-9,-44,-11,78,62,159,-34,-4
-45,-64,-19,55,-13,-41,-16,74,65,167,0,4
-28,-38,-10,33,-8,-24,-2,74,67,183,27,16
-8,-8,1,8,-4,-3,19,95,93,211,54,23
-1,22,23,-11,-13,22,29,108,112,233,89,44
16,52,36,-34,-10,44,-22,86,94,240,122,75
23,42,19,-33,2,30,-116,35,67,235,139,72
23,29,6,-26,8,17,-139,13,55,224,141,66
33,6,-27,-19,29,-10,-138,-3,50,223,140,61
38,-17,-55,-10,47,-35,-136,-13,46,215,139,54
14,-43,-56,15,35,-49,-108,11,47,220,141,52
-2,-52,-50,27,24,-51,-84,26,37,208,140,53
10,-40,-50,15,31,-45,-79,37,45,214,166,58
-1,-47,-46,24,22,-46,-75,29,37,209,167,51
18,-24,-43,3,31,-34,-73,53,53,216,188,60
-25,-62,-38,44,7,-50,-68,17,34,227,197,49
-15,-23,-8,19,-3,-15,-107,14,36,233,225,64
-17,-41,-24,29,5,-33,-287,-310,-154,182,210,35
-38,-124,-86,81,24,-104,-517,-1069,-800,-85,123,8
446,106,-340,-275,393,-117,-928,-1383,-1183,351,592,319
855,573,-283,-714,568,145,-1538,-1617,-1453,789,1205,850
806,662,-144,-734,475,259,-1443,-1355,-1308,315,1106,934
503,88,-415,-295,459,-163,-644,-432,-517,112,568,402
62,-148,-209,43,136,-178,-202,-129,-166,97,239,97
-61,-65,-4,63,-28,-34,-63,-5,-7,95,224,73
-61,-107,-46,85,-8,-76,23,128,106,156,209,0
-79,-72,8,76,-43,-32,36,116,94,135,209,5
-64,-83,-19,74,-22,-51,54,158,121,152,220,-2
-79,-73,6,76,-42,-33,52,149,110,140,222,-2
-86,-84,2,84,-44,-41,71,169,131,147,232,-5
-98,-88,10,93,-54,-38,70,179,130,143,233,-7
-95,-78,16,86,-55,-31,69,187,137,139,237,0
-96,-82,14,89,-55,-34,72,200,142,142,232,-1
-96,-73,23,85,-59,-25,68,210,142,136,231,6
-96,-76,20,86,-58,-28,75,227,151,135,229,3
-97,-69,27,83,-62,-21,87,245,168,135,228,0
-91,-67,24,78,-57,-21,97,263,183,131,223,-4
-89,-64,26,76,-57,-19,102,284,196,122,220,-7
-95,-59,35,77,-65,-12,113,310,215,114,217,-12
-104,-56,48,80,-76,-4,122,336,219,106,211,-15
-110,-53,57,81,-84,2,132,358,229,97,210,-19
-116,-49,67,82,-92,9,150,358,230,70,197,-24
-126,-45,81,85,-103,18,154,349,216,36,182,-33
-138,-42,96,90,-117,27,145,342,206,9,179,-35
-141,-37,104,89,-123,33,136,336,193,-22,175,-29
-133,-34,98,83,-115,32,127,314,173,-37,173,-22
-120,-30,90,74,-105,30,119,276,153,-32,169,-18
-104,-22,82,63,-93,30,101,235,127,-9,196,-9
-90,-16,74,53,-82,29,68,190,99,27,242,13
-75,-9,66,42,-70,28,33,151,84,69,289,29
-50,-2,48,26,-49,23,7,122,76,117,340,46
-40,0,40,20,-40,20,-9,109,67,161,380,63
-38,0,38,19,-38,19,-25,105,57,192,417,75
-34,0,33,16,-34,16,-30,100,58,216,442,81
-31,0,31,16,-31,16,-24,96,61,237,468,76
-25,0,25,12,-25,12,-21,91,60,236,496,75
-27,0,27,13,-27,13,-18,92,68,234,511,75
-40,-5,35,22,-37,15,-13,96,73,234,523,70
-45,-10,35,27,-40,12,-10,101,78,229,529,70
-47,-13,35,29,-41,11,-6,103,79,231,532,69
-56,-21,35,38,-45,7,1,112,74,227,555,63
-50,-15,35,32,-42,10,8,120,75,221,577,58
-55,-21,34,38,-44,6,14,120,72,214,579,52
-70,-40,30,55,-50,-5,21,119,69,208,586,47
-72,-44,28,58,-49,-8,28,124,70,200,606,40
-67,-43,25,54,-46,-9,31,131,70,196,620,44
-59,-38,22,48,-40,-8,29,127,71,199,633,44
-53,-34,19,43,-36,-7,31,124,70,202,657,47
-49,-29,20,39,-35,-4,30,120,71,205,671,50
-62,-25,37,44,-49,5,30,115,70,207,691,50
-50,-3,47,26,-49,22,41,114,88,236,732,74
-23,27,50,-2,-36,38,75,106,113,264,756,84
-8,63,71,-28,-39,66,62,107,109,273,782,101
21,86,65,-54,-22,76,-48,70,85,278,805,117
19,66,48,-43,-15,57,-97,23,54,261,800,106
6,33,26,-20,-10,29,-92,21,40,254,801,102
22,6,-16,-14,19,-5,-94,18,39,248,797,93
10,-2,-12,-4,11,-7,-71,22,40,248,797,88
-28,-22,6,25,-17,-8,-59,16,32,244,792,83
-36,-29,7,32,-21,-11,-60,24,37,239,797,87
-41,-40,1,40,-20,-19,-61,21,31,243,802,79
-38,-31,7,34,-22,-12,-62,39,30,239,815,82
-31,-38,-6,35,-12,-21,-70,29,27,256,827,79
-38,-33,5,36,-22,-13,-55,21,24,248,831,87
-25,-11,14,18,-19,2,-162,-88,-19,271,874,103
-91,-107,-15,99,-38,-61,-400,-779,-561,13,736,32
196,-24,-220,-86,208,-122,-746,-1327,-1117,81,919,162
757,410,-347,-583,552,31,-1373,-1521,-1366,717,1597,678
879,759,-120,-819,499,319,-1607,-1542,-1454,524,1808,1038
666,354,-312,-510,489,21,-915,-747,-818,130,1327,638
218,-122,-340,-47,279,-231,-268,-153,-239,135,858,155
-77,-76,1,77,-39,-38,-66,-56,-75,103,791,93
-74,-90,-16,82,-29,-53,56,123,87,168,786,38
-108,-86,22,97,-64,-32,80,132,94,174,774,35
-110,-76,34,92,-72,-21,89,149,113,174,785,33
-110,-86,24,98,-67,-31,103,163,120,178,774,16
-106,-69,37,88,-71,-16,109,161,131,171,783,19
-103,-80,23,92,-63,-28,115,174,139,179,777,3
-106,-70,36,88,-70,-17,118,181,132,172,780,8
-98,-72,26,85,-62,-23,125,197,145,177,773,3
-107,-69,38,87,-72,-15,127,193,147,172,770,3
-107,-68,39,88,-73,-14,131,209,163,170,768,-1
-111,-65,46,87,-78,-9,129,219,168,170,762,1
-106,-62,45,83,-75,-8,141,238,183,168,760,4
-105,-59,45,82,-75,-7,152,259,199,164,755,-1
-114,-55,58,84,-85,1,157,280,206,166,749,-7
-119,-55,64,87,-91,4,169,307,224,157,742,-14
-128,-49,78,88,-103,14,185,330,233,141,735,-21
-130,-44,87,87,-108,21,195,342,226,123,727,-28
-139,-39,100,89,-119,30,199,340,220,95,706,-33
-148,-33,115,90,-131,41,199,331,212,61,698,-36
-146,-27,119,86,-132,45,192,318,206,34,700,-40
-145,-26,119,85,-131,46,186,308,200,23,699,-35
-135,-24,110,79,-122,43,183,282,185,21,699,-27
-120,-18,101,69,-110,41,165,239,158,32,700,-22
-110,-15,95,62,-102,40,127,189,122,58,727,-7
-93,-10,84,51,-88,37,94,143,97,101,771,14
-67,-5,62,36,-64,28,67,111,82,155,810,44
-57,-8,49,32,-53,20,47,82,69,191,842,54
-57,-11,45,33,-51,17,39,70,70,224,865,60
-54,-14,40,34,-46,13,36,69,71,253,889,70
-53,-17,36,35,-45,9,33,65,68,269,907,73
-51,-19,31,35,-41,6,28,63,73,281,914,75
-49,-22,27,35,-38,3,25,59,65,283,924,64
-50,-25,25,37,-37,0,29,62,76,279,922,67
-52,-27,25,39,-38,-1,30,66,61,280,931,53
-56,-30,25,43,-41,-2,36,69,90,276,946,61
-58,-33,25,45,-41,-4,49,74,105,274,944,42
-67,-41,26,54,-46,-8,54,75,17,275,944,53
-77,-48,29,62,-53,-9,57,75,-9,264,949,31
