I,II,III,aVR,aVL,aVF,V1,V2,V3,V4,V5,V6
-5,30,35,-13,-20,32,0,-110,-131,-90,-95,-115
-7,28,35,-11,-21,31,-5,-114,-135,-94,-95,-116
-13,22,35,-5,-24,28,-17,-120,-136,-101,-105,-120
-16,19,35,-2,-26,26,-16,-122,-140,-108,-111,-131
-21,14,35,3,-28,24,-11,-125,-142,-110,-109,-136
-26,9,35,8,-30,21,-9,-125,-146,-110,-111,-135
-7,23,30,-8,-19,26,-4,-125,-144,-109,-109,-135
11,36,25,-24,-7,30,-1,-125,-146,-112,-112,-135
4,25,21,-14,-8,22,-2,-125,-155,-120,-120,-134
-4,12,16,-4,-11,14,-10,-125,-155,-121,-120,-131
-8,3,12,2,-10,7,-14,-126,-155,-119,-120,-129
-13,-6,7,10,-10,1,-11,-125,-155,-116,-120,-131
-12,-7,5,9,-8,-1,-8,-125,-155,-115,-120,-128
-17,-5,12,11,-14,3,-5,-122,-154,-114,-119,-133
-28,-4,23,16,-25,9,-3,-119,-148,-109,-113,-144
-30,-6,24,18,-27,9,2,-120,-142,-106,-107,-141
-30,-4,26,16,-28,11,-4,-116,-138,-103,-103,-134
-29,-6,23,17,-26,8,-6,-107,-130,-98,-95,-129
-23,13,36,5,-30,24,5,-102,-128,-96,-93,-124
-10,62,72,-26,-42,67,17,-93,-113,-87,-81,-107
-4,65,70,-31,-37,67,39,-68,-90,-70,-65,-98
0,51,51,-25,-26,51,45,-50,-90,-69,-64,-101
0,40,40,-20,-21,40,27,-62,-91,-72,-67,-100
0,24,23,-12,-12,23,-4,-87,-93,-68,-67,-105
0,12,12,-7,-6,12,-21,-102,-117,-81,-80,-105
-1,-2,0,2,-1,-1,-19,-111,-136,-100,-105,-105
2,-11,-12,5,7,-11,-20,-116,-140,-100,-111,-106
-12,-34,-21,23,4,-27,-22,-114,-144,-100,-110,-104
-5,-54,-49,30,22,-51,-29,-115,-144,-102,-109,-112
-19,-68,-49,43,16,-58,-25,-130,-153,-117,-116,-121
-48,-70,-22,59,-13,-46,-18,-137,-156,-122,-122,-120
-36,-55,-19,45,-8,-36,-14,-133,-151,-118,-118,-120
-35,-45,-11,40,-12,-28,-6,-134,-150,-122,-118,-120
-30,-41,-11,35,-9,-26,-6,-127,-144,-117,-112,-119
-29,-30,-1,30,-14,-16,-1,-134,-147,-123,-118,-118
-26,-29,-3,28,-12,-15,0,-120,-136,-111,-108,-111
-25,-15,10,20,-17,-3,4,-125,-137,-111,-110,-110
-34,-22,12,28,-23,-5,6,-112,-124,-101,-103,-105
-35,-28,7,31,-21,-10,-2,-115,-126,-96,-100,-101
-22,-28,-6,25,-7,-17,13,-99,-106,-105,-106,-103
-33,-159,-126,96,47,-142,103,51,-8,-127,-124,-193
-4,-82,-78,43,37,-80,183,299,381,107,114,-99
301,568,266,-435,17,417,-201,404,998,1176,1182,742
377,1139,763,-758,-193,951,-744,-435,358,1427,1432,1246
50,838,788,-444,-369,813,-732,-1319,-1026,146,149,547
-98,305,403,-103,-251,354,-474,-1099,-1145,-471,-470,-53
-112,161,273,-25,-192,217,-228,-596,-598,-324,-326,-132
-73,78,150,-3,-112,114,-46,-243,-266,-214,-214,-139
-48,37,85,5,-66,60,0,-105,-134,-137,-138,-114
-53,35,88,9,-71,61,30,-84,-104,-131,-140,-111
-30,23,52,3,-41,37,30,-48,-59,-105,-119,-103
-29,24,53,2,-41,38,35,-47,-48,-101,-118,-99
-28,12,40,7,-34,26,40,-26,-35,-92,-106,-93
-36,12,48,12,-42,29,39,-22,-28,-87,-99,-86
-20,28,47,-4,-34,37,45,-9,-19,-85,-92,-84
-13,37,50,-12,-32,43,44,0,-7,-77,-81,-75
-16,35,51,-10,-34,42,46,8,8,-76,-77,-70
-15,33,48,-9,-32,40,44,17,26,-65,-65,-62
-7,46,53,-20,-30,49,54,33,49,-54,-54,-56
4,62,58,-33,-27,60,61,61,80,-42,-41,-50
-4,58,62,-27,-33,60,60,82,101,-33,-34,-43
10,68,58,-39,-24,63,64,110,137,-8,-10,-32
4,69,64,-37,-30,66,78,148,174,22,16,-22
17,95,78,-56,-31,86,88,201,224,48,42,-3
35,118,83,-77,-25,100,85,252,284,89,85,23
43,144,101,-94,-29,123,86,304,345,130,127,42
63,186,123,-125,-30,154,83,356,417,190,185,88
67,206,139,-137,-36,172,79,394,475,245,242,141
83,249,166,-166,-42,207,81,424,523,294,295,177
95,278,183,-187,-45,230,73,409,538,332,332,202
118,308,190,-213,-36,249,52,371,520,325,329,203
96,288,192,-192,-48,240,15,298,459,313,314,194
53,237,184,-145,-66,210,-11,205,354,263,263,174
44,209,165,-127,-61,187,-20,114,233,174,170,120
31,155,125,-93,-47,140,-28,17,114,82,78,53
8,111,102,-60,-47,106,-24,-26,34,10,16,9
-20,79,99,-30,-59,89,-21,-69,-23,-30,-32,-25
-22,67,90,-23,-56,78,-18,-96,-54,-62,-70,-51
-20,65,85,-22,-53,75,-13,-104,-70,-82,-83,-63
-18,58,76,-21,-47,67,-10,-118,-87,-95,-93,-67
-21,56,77,-18,-50,66,-6,-113,-84,-95,-101,-65
-34,49,84,-8,-59,66,-5,-112,-81,-94,-107,-65
-30,51,80,-11,-55,65,-3,-109,-78,-95,-107,-62
-31,50,80,-9,-55,65,1,-110,-75,-95,-99,-59
-29,50,79,-11,-54,64,-1,-110,-74,-94,-93,-61
-16,58,75,-22,-46,66,-6,-110,-69,-89,-86,-66
-19,56,75,-19,-47,65,-9,-109,-64,-84,-79,-66
-26,49,75,-12,-51,62,-12,-105,-60,-80,-75,-61
-30,45,75,-8,-53,60,-17,-105,-56,-75,-75,-59
-38,37,75,0,-57,56,-20,-105,-50,-70,-75,-55
-38,37,75,0,-57,56,-20,-106,-57,-74,-75,-50
-36,39,75,-2,-56,57,-20,-104,-67,-75,-75,-54
-29,45,75,-8,-52,60,-20,-106,-69,-75,-75,-65
-23,47,70,-12,-47,58,-20,-104,-74,-76,-81,-68
-28,42,70,-7,-49,56,-20,-109,-76,-85,-87,-73
-30,39,69,-5,-49,54,-21,-119,-82,-102,-102,-75
-29,36,64,-4,-47,50,-28,-121,-92,-107,-111,-75
-35,31,66,1,-50,48,-34,-132,-109,-109,-109,-83
-32,31,62,0,-47,46,-35,-136,-116,-111,-111,-86
-22,38,59,-8,-41,48,-35,-134,-114,-109,-109,-84
-23,37,60,-7,-42,48,-35,-136,-115,-112,-116,-87
-26,33,60,-4,-43,46,-35,-134,-115,-115,-121,-89
-24,37,61,-7,-43,48,-35,-136,-115,-117,-119,-85
-26,33,59,-3,-43,45,-35,-140,-110,-116,-120,-83
-18,38,56,-10,-38,47,-35,-140,-110,-115,-120,-79
-23,31,53,-4,-38,42,-35,-140,-109,-114,-120,-78
-15,36,50,-10,-33,43,-34,-140,-104,-109,-116,-73
7,57,50,-32,-21,53,-36,-140,-106,-111,-109,-78
-10,58,69,-25,-40,64,-24,-138,-101,-106,-103,-90
-14,84,97,-35,-56,90,-2,-117,-88,-94,-95,-82
-10,86,96,-38,-54,91,14,-102,-64,-94,-92,-82
-19,70,89,-26,-54,79,10,-98,-32,-95,-95,-86
-8,63,71,-28,-40,67,-27,-106,-51,-96,-96,-85
6,53,47,-30,-21,50,-51,-126,-86,-94,-94,-85
3,44,42,-24,-20,42,-49,-132,-104,-103,-106,-85
-15,18,33,-2,-24,26,-50,-138,-123,-121,-121,-89
-19,2,21,8,-20,11,-50,-135,-128,-118,-118,-94
-14,-1,14,7,-14,6,-47,-135,-129,-124,-122,-93
-14,-12,1,13,-7,-5,-41,-133,-125,-131,-130,-89
-28,-35,-7,32,-10,-21,-36,-130,-123,-127,-129,-90
-52,-41,11,47,-32,-15,-31,-129,-119,-123,-125,-90
-56,-33,23,44,-39,-5,-25,-131,-117,-119,-122,-90
-48,-29,19,39,-34,-5,-20,-135,-115,-117,-121,-90
-43,-24,19,33,-31,-2,-16,-134,-111,-111,-116,-85
-38,-15,22,26,-30,3,-13,-137,-111,-112,-115,-86
-32,-16,16,24,-24,0,-17,-131,-108,-104,-104,-83
-22,1,23,10,-22,12,-12,-141,-113,-107,-107,-80
-12,-4,8,7,-10,2,-19,-126,-106,-98,-95,-80
-5,18,23,-7,-15,21,-5,-129,-111,-101,-97,-79
-7,-29,-22,18,7,-25,24,-72,-64,-112,-111,-97
-49,-191,-142,121,47,-167,114,73,45,-147,-147,-210
53,52,-1,-52,27,25,123,336,562,311,310,61
352,790,438,-571,-43,614,-395,241,1000,1390,1392,981
305,1158,853,-732,-274,1006,-867,-786,-54,1137,1142,1150
-5,691,696,-343,-351,693,-747,-1357,-1188,-133,-130,367
-107,246,353,-70,-230,299,-460,-940,-954,-425,-420,-49
-94,155,250,-31,-172,202,-178,-472,-450,-267,-264,-115
-53,65,118,-6,-86,91,-28,-186,-191,-182,-180,-122
-51,27,78,12,-65,52,9,-117,-118,-131,-130,-97
-54,12,67,21,-61,39,33,-87,-98,-132,-132,-98
-38,15,54,11,-47,34,27,-58,-63,-110,-109,-86
-39,16,55,11,-47,35,38,-51,-52,-109,-109,-86
-27,14,41,7,-35,27,40,-34,-30,-93,-93,-77
-23,16,40,3,-32,28,40,-31,-26,-93,-91,-73
-18,17,35,0,-27,26,40,-14,-11,-87,-82,-68
-20,21,42,-1,-31,32,47,-6,-10,-82,-75,-62
-19,19,39,0,-29,29,57,8,2,-79,-70,-58
-16,31,47,-7,-32,39,58,22,26,-70,-56,-53
-24,27,52,-1,-38,39,67,38,45,-54,-46,-49
-6,43,49,-18,-28,46,74,59,72,-32,-34,-44
18,65,47,-42,-15,56,74,81,98,-17,-28,-40
22,66,44,-44,-11,55,88,113,129,-7,-17,-37
17,63,46,-41,-15,55,100,152,167,15,8,-29
8,70,63,-39,-28,66,112,204,227,52,47,-4
23,94,70,-59,-24,82,130,256,289,87,87,24
45,126,81,-86,-18,103,125,316,356,140,132,51
62,173,111,-118,-24,141,115,371,428,201,196,92
73,202,129,-137,-29,165,107,407,487,253,252,136
87,238,151,-163,-32,194,98,421,520,305,303,172
94,270,176,-182,-41,223,88,405,511,324,325,197
92,269,177,-181,-42,223,60,360,496,311,309,207
107,271,164,-189,-29,217,31,288,443,299,296,201
83,236,153,-160,-35,194,15,198,328,243,242,159
47,177,131,-112,-42,154,9,87,190,150,146,97
35,135,100,-85,-32,117,11,17,83,71,66,49
26,95,70,-61,-22,82,7,-32,19,10,6,12
6,60,54,-33,-24,57,5,-82,-38,-29,-37,-21
-12,44,55,-17,-34,50,5,-87,-71,-61,-63,-51
-15,40,55,-13,-35,47,1,-95,-80,-79,-81,-66
-19,35,55,-8,-38,45,0,-117,-96,-83,-97,-69
-24,31,56,-4,-40,43,0,-121,-102,-89,-101,-70
-26,26,52,0,-39,39,0,-124,-109,-93,-104,-70
-26,22,48,1,-37,35,0,-125,-116,-95,-105,-68
-23,19,42,2,-32,30,1,-119,-109,-90,-98,-65
-25,15,39,5,-33,27,5,-116,-106,-85,-94,-62
-21,12,32,4,-27,22,5,-113,-101,-81,-89,-59
-25,7,32,9,-29,19,7,-108,-97,-76,-85,-55
-40,4,44,17,-42,24,10,-105,-92,-71,-81,-55
-27,13,40,7,-34,26,10,-101,-90,-72,-76,-60
-14,18,32,-2,-23,24,6,-100,-87,-76,-75,-60
-14,12,27,1,-21,19,5,-99,-84,-75,-75,-60
-11,7,18,1,-15,13,5,-96,-81,-76,-75,-60
-12,3,15,4,-14,9,5,-95,-80,-75,-75,-62
-16,-1,15,8,-15,6,5,-96,-91,-76,-76,-65
-21,-6,15,13,-18,5,6,-105,-96,-80,-82,-65
-25,-10,15,17,-20,2,11,-111,-102,-88,-89,-71
-35,-20,15,27,-25,-3,15,-120,-112,-88,-90,-78
-41,-26,15,33,-28,-5,20,-126,-114,-81,-90,-80
-35,-24,11,30,-23,-6,16,-125,-116,-90,-95,-80
-36,-26,10,31,-22,-7,15,-125,-119,-96,-96,-80
-33,-23,10,28,-21,-6,15,-125,-120,-94,-95,-80
-39,-34,5,36,-22,-14,10,-125,-120,-95,-93,-80
-56,-51,5,53,-30,-23,10,-121,-120,-95,-89,-80
-53,-46,6,49,-29,-20,10,-119,-120,-95,-90,-80
-53,-41,12,47,-32,-14,10,-120,-120,-92,-92,-80
-58,-38,20,48,-39,-9,9,-119,-120,-87,-89,-79
-56,-32,25,44,-40,-3,11,-121,-119,-85,-83,-81
-63,-29,34,45,-48,2,8,-118,-110,-80,-80,-77
-40,-2,37,21,-38,17,18,-108,-100,-77,-75,-69
-13,29,42,-8,-28,35,33,-95,-87,-72,-70,-63
-14,36,51,-11,-33,43,39,-85,-71,-53,-74,-55
-2,34,37,-16,-20,35,43,-70,-77,-35,-75,-51
5,24,19,-14,-7,21,14,-66,-78,-34,-75,-45
-5,3,8,1,-6,6,-10,-97,-87,-64,-76,-56
-14,-19,-4,17,-5,-11,-13,-119,-119,-94,-88,-74
-4,-19,-15,12,5,-17,-19,-118,-132,-100,-104,-78
-6,-30,-24,18,9,-27,-22,-112,-133,-99,-105,-80
-8,-52,-43,30,18,-47,-28,-109,-133,-103,-106,-81
7,-50,-57,22,32,-53,-30,-104,-128,-105,-109,-84
2,-41,-43,20,23,-41,-20,-99,-131,-105,-111,-86
-22,-56,-34,39,6,-44,-10,-116,-129,-108,-108,-84
-49,-77,-28,63,-10,-52,0,-133,-130,-110,-105,-85
-49,-69,-20,59,-14,-44,15,-129,-132,-109,-105,-93
-51,-67,-16,59,-17,-41,21,-129,-134,-103,-112,-95
-55,-60,-5,58,-25,-32,20,-132,-146,-108,-123,-92
-48,-58,-10,54,-19,-34,20,-126,-139,-99,-110,-88
-45,-52,-7,48,-18,-29,20,-133,-140,-103,-113,-87
-45,-58,-13,52,-16,-35,20,-117,-125,-98,-102,-84
-44,-51,-8,48,-17,-29,24,-133,-131,-97,-101,-91
-15,-69,-54,42,20,-61,33,-79,-104,-111,-115,-105
-49,-195,-146,122,49,-170,137,66,3,-155,-156,-192
24,-13,-37,-6,31,-25,172,337,495,249,248,31
347,686,339,-517,4,512,-331,318,1004,1337,1340,927
349,1097,748,-723,-200,922,-823,-690,51,1220,1225,1198
25,672,647,-349,-311,659,-720,-1362,-1159,-38,-33,446
-108,237,344,-65,-227,290,-437,-980,-997,-401,-398,-17
-101,126,228,-13,-165,177,-161,-490,-486,-257,-258,-99
-65,23,88,21,-77,55,-7,-192,-219,-180,-180,-112
-44,4,48,20,-46,26,33,-110,-125,-122,-122,-87
-47,-12,35,29,-41,11,70,-73,-98,-122,-117,-94
-52,-30,22,40,-37,-3,67,-44,-67,-103,-91,-81
-57,-34,23,46,-40,-5,72,-38,-61,-103,-89,-80
-42,-35,7,39,-25,-14,67,-19,-40,-91,-78,-72
-20,-13,7,16,-13,-2,74,-15,-34,-86,-76,-67
-33,-38,-5,35,-13,-21,82,-1,-25,-78,-70,-64
-44,-48,-4,47,-20,-26,79,8,-14,-70,-62,-59
-11,-17,-5,15,-3,-11,89,28,7,-65,-60,-58
-8,-17,-8,13,1,-12,100,46,27,-51,-46,-51
-17,-28,-10,23,-3,-19,103,57,36,-42,-37,-50
-7,-17,-10,12,2,-13,109,82,57,-27,-22,-44
1,-4,-5,2,3,-4,120,110,91,-7,-2,-38
9,3,-6,-6,7,-1,130,142,126,7,12,-30
13,12,-1,-12,7,5,146,191,176,39,38,-6
15,15,-1,-15,8,7,150,234,223,70,66,8
30,35,5,-33,12,20,162,297,285,106,108,31
39,67,28,-54,5,48,165,362,362,161,162,64
66,110,43,-88,11,76,154,413,426,219,217,100
91,154,63,-123,14,108,151,461,491,276,276,147
99,184,86,-141,6,135,141,472,530,320,323,184
108,216,108,-162,0,161,138,466,544,356,355,218
98,216,118,-157,-10,166,120,420,515,361,354,219
108,211,103,-160,2,157,80,330,439,327,326,206
85,174,90,-130,-3,132,58,224,329,260,261,179
43,117,74,-81,-16,95,43,128,202,172,174,118
38,90,53,-65,-8,71,34,54,104,93,95,65
23,51,28,-38,-3,39,36,-6,29,29,24,20
-10,5,15,3,-13,9,34,-44,-26,-16,-22,-17
-46,-36,10,40,-27,-13,35,-70,-71,-49,-52,-41
-43,-42,2,42,-23,-20,34,-80,-93,-63,-68,-53
-33,-39,-6,36,-14,-22,36,-80,-93,-67,-70,-59
-26,-39,-13,33,-6,-26,40,-80,-101,-70,-69,-61
-21,-34,-12,28,-4,-23,39,-86,-101,-76,-76,-59
-29,-36,-7,33,-11,-21,42,-90,-103,-80,-81,-56
-26,-31,-4,29,-11,-17,45,-83,-111,-73,-75,-55
-26,-27,-1,27,-12,-13,45,-80,-104,-70,-73,-55
-25,-21,4,22,-14,-8,41,-75,-101,-65,-68,-55
-22,-19,4,20,-13,-7,39,-70,-97,-60,-65,-55
-11,-11,0,11,-5,-5,40,-74,-91,-60,-69,-55
-12,-15,-3,14,-5,-9,40,-75,-90,-60,-70,-55
-35,-40,-5,38,-15,-22,40,-76,-90,-61,-70,-55
-31,-40,-9,35,-11,-25,39,-80,-91,-59,-75,-59
-32,-41,-9,37,-11,-25,35,-80,-90,-62,-75,-60
-24,-42,-18,34,-3,-30,35,-80,-98,-73,-76,-60
-6,-38,-33,22,14,-36,35,-80,-100,-76,-80,-65
-12,-42,-30,27,9,-36,35,-80,-101,-75,-83,-65
-10,-36,-26,24,8,-30,35,-80,-117,-83,-87,-64
-23,-45,-23,34,0,-34,31,-85,-121,-84,-89,-60
-38,-57,-19,47,-9,-38,30,-91,-124,-87,-93,-59
-41,-55,-13,48,-13,-34,30,-94,-126,-98,-95,-75
-30,-53,-23,42,-4,-37,25,-95,-124,-101,-99,-81
-13,-50,-37,32,12,-43,25,-95,-125,-100,-99,-79
-16,-50,-34,33,9,-42,25,-95,-125,-100,-94,-80
-12,-47,-35,30,12,-41,25,-96,-125,-100,-95,-80
-8,-43,-35,26,14,-39,25,-96,-125,-100,-95,-80
-15,-49,-35,33,10,-42,25,-93,-121,-100,-95,-74
-21,-53,-32,37,6,-42,26,-91,-114,-100,-96,-68
-17,-44,-27,30,5,-35,24,-87,-107,-100,-90,-64
-12,-35,-23,24,6,-29,39,-86,-101,-94,-80,-57
-25,-27,-2,26,-11,-14,50,-81,-94,-77,-69,-53
-39,-18,22,28,-30,2,54,-64,-88,-68,-63,-47
-23,-7,16,15,-19,4,71,-58,-63,-69,-64,-45
1,2,2,-2,-1,2,65,-62,-41,-74,-69,-44
-1,-12,-11,7,5,-12,52,-58,-69,-75,-70,-47
-9,-41,-32,26,12,-36,47,-67,-102,-78,-77,-62
-33,-72,-39,53,3,-55,39,-85,-120,-92,-97,-64
-42,-89,-47,65,3,-67,31,-85,-127,-95,-101,-56
-31,-91,-60,61,15,-75,24,-85,-122,-94,-100,-57
-15,-88,-74,52,30,-81,18,-83,-121,-96,-98,-49
-15,-108,-94,62,40,-100,14,-79,-117,-94,-94,-56
-33,-121,-88,77,28,-104,27,-81,-115,-97,-96,-80
-13,-94,-81,54,34,-87,36,-83,-114,-92,-98,-79
-26,-96,-70,61,22,-82,35,-92,-120,-101,-114,-85
-51,-117,-66,84,8,-91,35,-82,-119,-109,-119,-96
-45,-106,-61,76,8,-83,35,-83,-117,-104,-113,-89
-43,-100,-57,72,7,-78,35,-76,-112,-98,-106,-86
-39,-97,-58,68,10,-77,36,-73,-108,-92,-98,-81
-39,-82,-43,61,3,-62,42,-73,-106,-88,-94,-76
-26,-95,-69,60,22,-82,38,-60,-98,-81,-85,-72
-21,-77,-56,49,18,-67,49,-70,-93,-80,-83,-55
-32,-170,-138,102,53,-154,91,31,-36,-110,-112,-107
-56,-242,-185,149,65,-213,219,233,193,-69,-68,-171
182,226,43,-204,69,134,38,498,861,763,765,415
435,931,496,-683,-30,713,-572,26,812,1545,1552,1237
187,933,746,-560,-280,839,-776,-1082,-574,654,663,911
-69,377,446,-154,-258,411,-547,-1231,-1203,-349,-345,153
-108,120,228,-7,-168,174,-278,-698,-724,-341,-339,-58
-98,34,132,32,-115,83,-44,-290,-318,-212,-211,-93
-50,-42,8,46,-29,-17,33,-89,-132,-138,-137,-85
-53,-50,3,52,-28,-23,69,-63,-94,-116,-117,-79
-45,-69,-24,57,-10,-46,84,-15,-51,-104,-104,-79
-29,-54,-25,42,-2,-39,84,12,-23,-85,-85,-69
-28,-54,-26,41,-1,-40,91,29,-14,-81,-82,-70
-21,-46,-25,34,3,-36,89,35,-1,-67,-70,-59
-15,-39,-24,28,4,-31,91,46,15,-64,-68,-58
-22,-49,-26,36,2,-37,92,60,37,-53,-58,-50
-27,-51,-23,40,-2,-37,102,72,44,-48,-53,-45
-20,-51,-31,36,5,-40,106,97,65,-38,-43,-41
-19,-49,-30,34,6,-39,103,107,76,-29,-32,-33
-16,-46,-30,31,7,-38,114,126,95,-21,-24,-29
-14,-44,-30,29,8,-37,127,157,132,-3,-7,-20
-14,-44,-30,29,8,-37,133,189,164,18,14,-15
2,-29,-30,13,16,-29,139,222,204,43,39,-4
20,-6,-26,-7,23,-15,142,272,251,69,70,22
6,-9,-15,2,11,-12,155,320,304,92,96,35
18,9,-9,-13,13,0,157,373,372,139,139,66
41,44,3,-42,19,23,146,428,437,191,195,102
52,81,29,-67,11,55,142,485,509,258,261,153
84,138,54,-111,15,95,132,511,573,324,325,206
93,164,71,-129,11,118,126,495,581,343,353,211
96,185,89,-141,3,137,119,484,573,365,369,240
98,195,97,-147,0,145,92,432,541,361,371,259
82,171,89,-127,-3,130,70,341,453,317,327,226
65,137,73,-101,-4,105,65,237,327,240,240,173
34,75,41,-55,-4,58,60,143,214,142,145,108
0,17,17,-9,-9,17,55,78,129,76,77,65
-13,-11,2,12,-8,-4,48,27,53,24,23,31
-14,-27,-13,21,0,-20,46,3,12,-17,-14,-2
-27,-46,-19,37,-4,-32,50,-12,-3,-41,-39,-21
-45,-60,-15,53,-15,-37,52,-21,-11,-60,-61,-38
-43,-59,-15,52,-14,-36,56,-19,-14,-70,-59,-42
-57,-71,-14,64,-22,-42,51,-21,-21,-70,-63,-37
-69,-78,-10,74,-29,-44,50,-20,-27,-66,-67,-34
-58,-68,-10,63,-23,-39,50,-21,-29,-63,-63,-31
-54,-63,-9,58,-22,-36,45,-19,-23,-60,-61,-26
-38,-56,-19,47,-9,-37,45,-15,-16,-59,-57,-25
-28,-54,-26,42,0,-40,44,-15,-10,-55,-55,-25
-30,-54,-25,42,-2,-39,39,-15,-2,-55,-53,-25
-24,-47,-23,36,-1,-34,40,-15,4,-53,-50,-25
-40,-60,-20,50,-10,-40,37,-15,5,-49,-50,-25
-61,-81,-19,71,-21,-50,34,-19,5,-50,-50,-25
-50,-75,-25,63,-12,-50,35,-20,4,-53,-50,-29
-37,-70,-33,54,-2,-51,31,-22,-3,-58,-50,-30
-37,-67,-30,52,-3,-48,30,-26,-9,-60,-50,-32
-30,-60,-30,45,0,-45,29,-26,-16,-60,-58,-35
-34,-64,-30,49,-2,-47,26,-31,-23,-59,-63,-35
-40,-70,-30,55,-5,-50,24,-34,-29,-65,-66,-35
-40,-70,-30,55,-5,-50,26,-36,-34,-71,-70,-36
-43,-69,-26,56,-8,-47,30,-34,-35,-74,-75,-34
-47,-72,-25,60,-11,-48,30,-37,-35,-79,-75,-40
-54,-79,-25,67,-14,-52,30,-48,-39,-80,-77,-50
-57,-82,-25,70,-16,-53,30,-50,-41,-85,-88,-50
-52,-77,-25,65,-13,-51,31,-50,-39,-84,-91,-49
-64,-88,-24,76,-20,-55,29,-50,-34,-79,-89,-45
-76,-94,-18,86,-29,-56,32,-50,-28,-76,-91,-45
-69,-80,-12,75,-28,-46,35,-49,-25,-72,-88,-44
-56,-63,-7,60,-25,-34,35,-41,-20,-69,-81,-36
-31,-31,0,31,-15,-15,39,-31,-16,-64,-71,-29
-17,-12,4,14,-10,-4,42,-24,-5,-65,-63,-23
-29,-17,12,23,-20,-2,64,-8,21,-64,-62,-22
-26,-12,13,18,-19,1,58,9,29,-66,-67,-27
-26,-22,3,24,-14,-9,27,-11,14,-64,-69,-29
-47,-56,-9,52,-19,-32,23,-35,-15,-69,-75,-32
-46,-66,-20,56,-13,-43,17,-43,-34,-92,-91,-37
-40,-71,-31,56,-5,-51,14,-49,-35,-98,-94,-35
-36,-89,-53,63,8,-70,9,-50,-49,-99,-97,-35
-26,-91,-65,59,20,-78,5,-50,-60,-95,-100,-34
-27,-99,-73,63,23,-86,14,-49,-59,-99,-101,-41
-41,-110,-70,76,15,-90,28,-51,-62,-119,-114,-56
-55,-111,-55,83,0,-83,32,-49,-63,-119,-115,-55
-68,-109,-41,89,-13,-75,30,-52,-67,-121,-115,-55
-71,-110,-39,91,-16,-74,30,-48,-62,-124,-115,-55
-74,-105,-31,90,-21,-68,30,-51,-61,-125,-114,-54
-74,-103,-29,89,-23,-65,30,-49,-60,-125,-118,-57
-76,-102,-26,89,-25,-63,30,-49,-57,-118,-117,-59
-79,-94,-15,87,-32,-55,25,-53,-57,-123,-124,-61
-64,-100,-37,82,-13,-68,27,-41,-52,-111,-115,-59
-67,-81,-14,74,-26,-47,35,-55,-48,-119,-125,-59
-60,-171,-111,116,26,-141,69,41,16,-135,-135,-96
-77,-249,-172,163,48,-210,211,248,233,-95,-96,-154
117,193,76,-155,21,134,66,485,866,669,668,380
362,917,556,-640,-97,736,-541,35,862,1524,1527,1235
158,979,821,-569,-332,900,-799,-1033,-488,699,699,976
-75,424,500,-175,-288,462,-579,-1208,-1162,-361,-362,200
-122,124,246,-2,-184,185,-305,-700,-703,-381,-379,-42
-114,37,151,38,-133,94,-67,-295,-287,-260,-257,-84
-80,-51,29,65,-54,-11,18,-74,-86,-175,-177,-72
-74,-53,20,63,-47,-16,54,-36,-44,-148,-154,-64
-50,-56,-6,53,-22,-30,78,2,-9,-142,-145,-62
-29,-50,-21,39,-4,-36,76,12,13,-127,-129,-50
-18,-49,-31,34,7,-40,83,33,30,-127,-126,-50
-32,-63,-30,47,-1,-46,78,48,52,-112,-111,-41
-37,-66,-29,51,-3,-47,81,57,51,-112,-111,-41
-30,-61,-31,45,1,-46,78,73,59,-104,-102,-36
-32,-61,-29,46,-2,-45,88,67,62,-102,-98,-32
-35,-63,-27,50,-3,-45,102,87,82,-97,-93,-31
-54,-78,-24,67,-15,-51,99,102,100,-90,-85,-32
-58,-83,-25,71,-16,-54,100,126,125,-74,-70,-23
-45,-64,-20,55,-12,-42,110,157,153,-52,-52,-12
-36,-56,-20,46,-7,-38,122,179,179,-42,-42,-4
-25,-44,-19,35,-3,-31,134,219,224,-21,-22,13
-25,-36,-11,31,-7,-23,138,257,266,11,11,28
-19,-23,-4,22,-7,-14,149,311,316,40,45,44
6,8,2,-7,2,5,162,375,383,85,86,72
38,50,12,-44,13,31,165,427,454,144,146,111
59,92,33,-76,13,62,165,481,522,199,203,153
70,114,44,-93,13,79,150,508,570,250,251,191
92,157,65,-125,13,111,141,500,592,294,296,226
94,184,90,-140,2,137,123,484,590,313,316,249
99,183,84,-141,7,133,97,447,553,306,308,258
94,167,74,-131,10,120,69,356,470,266,271,234
44,111,67,-77,-12,89,50,242,350,189,192,173
8,55,47,-32,-19,50,50,156,226,97,96,113
-3,19,22,-8,-13,20,50,96,138,23,22,62
-18,-14,5,16,-12,-4,50,55,78,-27,-32,26
-29,-41,-12,35,-9,-26,50,18,28,-66,-69,5
-41,-61,-20,51,-10,-40,50,-4,-1,-90,-89,-3
-58,-84,-26,71,-16,-54,50,-7,-10,-108,-114,-9
-58,-89,-31,73,-13,-60,50,-11,-15,-111,-121,-17
-54,-79,-25,67,-14,-52,50,-14,-23,-109,-119,-25
-53,-76,-23,65,-15,-49,50,-19,-28,-110,-120,-28
-51,-70,-19,60,-16,-44,50,-19,-26,-110,-120,-25
-57,-70,-14,64,-22,-42,50,-14,-21,-110,-120,-22
-47,-69,-21,58,-13,-45,50,-9,-19,-105,-115,-20
-41,-65,-23,54,-8,-44,50,-5,-15,-105,-112,-16
-31,-65,-34,48,2,-49,50,0,-10,-104,-108,-15
-22,-68,-46,45,13,-57,50,4,-12,-100,-105,-19
-30,-75,-45,53,8,-60,49,2,-16,-100,-100,-21
-26,-76,-50,51,13,-62,45,-2,-15,-102,-102,-26
-24,-74,-50,49,13,-61,45,-4,-15,-107,-106,-24
-27,-81,-54,54,14,-67,43,-7,-15,-110,-104,-29
-34,-85,-51,60,9,-68,39,-10,-15,-106,-106,-41
-40,-85,-46,63,3,-65,41,-11,-29,-104,-108,-40
-23,-84,-61,54,19,-73,36,-17,-35,-112,-119,-40
-22,-89,-66,56,22,-77,35,-24,-36,-121,-134,-40
-42,-104,-62,73,10,-82,35,-29,-49,-136,-138,-40
-44,-104,-60,73,9,-82,30,-30,-51,-141,-140,-40
-42,-98,-56,70,7,-77,30,-30,-49,-139,-140,-40
-42,-96,-55,69,7,-75,30,-30,-51,-140,-140,-39
-36,-91,-55,64,10,-73,30,-30,-49,-140,-140,-46
-34,-89,-55,62,10,-71,30,-29,-52,-140,-138,-52
-44,-100,-55,72,6,-77,30,-25,-56,-140,-135,-47
-48,-102,-55,76,4,-78,29,-25,-55,-140,-132,-45
-35,-90,-55,63,11,-73,31,-23,-52,-140,-130,-41
-31,-85,-54,58,12,-69,29,-19,-50,-136,-126,-40
-27,-67,-40,47,6,-53,33,-21,-49,-124,-125,-35
-18,-45,-27,32,5,-36,48,-12,-33,-118,-118,-26
-33,-44,-11,38,-10,-27,67,6,-18,-120,-97,-18
-34,-48,-15,41,-9,-31,69,30,-3,-121,-90,-9
-11,-49,-38,30,13,-43,47,26,6,-125,-90,-5
-11,-64,-52,37,21,-58,35,-6,-20,-125,-105,-12
-14,-90,-76,52,31,-83,29,-28,-50,-129,-136,-35
4,-87,-91,41,48,-89,20,-40,-60,-136,-149,-47
-1,-94,-93,47,46,-93,12,-40,-59,-133,-150,-44
-28,-122,-94,75,33,-108,13,-40,-61,-139,-150,-46
-25,-126,-101,76,38,-113,21,-40,-59,-146,-150,-44
-27,-124,-97,76,36,-110,26,-40,-63,-143,-150,-46
-36,-122,-86,79,25,-103,30,-41,-72,-140,-150,-42
-38,-119,-81,79,21,-100,29,-45,-77,-137,-149,-41
-44,-119,-76,82,16,-97,33,-46,-80,-135,-151,-51
-42,-116,-74,79,16,-94,35,-43,-79,-137,-148,-47
-41,-106,-65,74,12,-86,36,-48,-87,-143,-153,-45
-40,-107,-67,74,14,-87,31,-40,-82,-133,-147,-40
-41,-94,-53,67,6,-73,30,-48,-85,-136,-148,-37
-38,-97,-59,68,10,-78,30,-30,-66,-127,-138,-36
-44,-81,-38,63,-3,-59,30,-42,-73,-125,-137,-40
-28,-114,-85,71,29,-99,46,7,-48,-141,-146,-56
-59,-259,-200,160,71,-229,153,162,70,-180,-180,-160
35,-46,-81,5,58,-63,172,427,562,244,240,80
363,660,297,-512,32,479,-337,373,1030,1318,1320,992
332,1042,711,-687,-190,876,-807,-639,51,1165,1168,1233
21,612,592,-317,-286,602,-693,-1276,-1117,-89,-86,473
-83,191,274,-55,-179,233,-410,-880,-930,-433,-424,21
-92,77,169,7,-131,123,-142,-398,-425,-289,-288,-55
-92,-64,28,77,-60,-18,9,-101,-164,-210,-215,-71
-74,-78,-3,76,-35,-40,54,-28,-89,-152,-157,-55
-46,-72,-26,59,-9,-49,78,5,-55,-152,-157,-61
-32,-79,-46,55,8,-62,72,45,-6,-126,-136,-49
-38,-71,-33,55,-2,-52,77,52,-14,-127,-137,-51
-26,-78,-52,53,13,-65,81,67,-7,-110,-123,-45
-16,-69,-53,43,18,-60,86,68,2,-105,-121,-40
-11,-68,-57,40,23,-62,85,82,13,-98,-114,-37
-6,-60,-54,34,24,-57,85,95,23,-89,-108,-32
-3,-58,-55,31,27,-56,84,104,43,-86,-94,-27
3,-52,-55,25,29,-53,93,119,71,-75,-73,-18
1,-50,-51,25,26,-50,100,136,89,-65,-66,-13
-3,-53,-50,28,24,-51,107,160,112,-41,-53,-6
4,-45,-49,20,27,-47,124,196,142,-17,-33,5
2,-43,-45,21,24,-44,130,224,175,-4,-13,18
8,-37,-45,15,26,-41,137,272,220,20,9,34
26,-18,-44,-4,36,-31,154,325,275,46,39,48
36,4,-32,-20,34,-14,161,374,333,84,83,74
51,34,-17,-42,34,8,164,440,405,135,135,105
70,71,1,-71,34,36,159,493,474,193,192,140
101,123,23,-112,39,73,146,537,534,259,260,196
108,141,33,-125,38,87,135,554,573,301,303,228
103,155,53,-129,25,104,123,531,565,323,318,249
117,187,70,-152,24,128,110,488,539,325,322,262
111,169,58,-141,27,113,82,413,476,302,304,248
95,134,39,-115,28,86,61,304,359,237,242,217
66,81,15,-74,25,47,58,199,237,145,150,152
44,33,-11,-38,27,11,54,124,129,69,72,98
32,0,-32,-16,32,-16,50,68,57,10,10,62
16,-31,-46,8,31,-38,47,32,15,-27,-28,28
9,-41,-50,16,30,-45,43,13,-18,-61,-62,14
-1,-69,-68,36,34,-69,40,4,-41,-82,-87,9
10,-67,-77,29,44,-72,40,1,-51,-79,-84,4
10,-61,-71,25,41,-65,40,-2,-55,-80,-85,-2
-25,-95,-69,60,22,-82,40,-7,-61,-80,-85,-8
-26,-92,-66,60,20,-78,40,-10,-60,-80,-85,-8
-21,-85,-64,53,22,-75,43,-7,-60,-78,-83,-5
-24,-84,-60,54,19,-72,45,-4,-60,-71,-76,-5
-16,-76,-60,46,23,-68,45,-2,-60,-64,-71,-2
-18,-77,-59,47,21,-68,45,2,-57,-58,-65,1
-13,-80,-66,47,26,-73,45,3,-52,-51,-61,-1
-4,-80,-76,43,36,-78,43,10,-49,-45,-60,-4
-5,-80,-75,43,35,-77,40,21,-46,-50,-60,-7
-1,-81,-80,41,39,-80,37,18,-41,-49,-60,-9
1,-79,-80,39,41,-80,35,15,-41,-53,-60,-13
-6,-90,-83,49,39,-87,31,13,-50,-54,-59,-15
-9,-95,-86,52,39,-90,29,10,-55,-58,-64,-18
-2,-86,-85,44,42,-85,39,8,-59,-75,-71,-21
2,-83,-85,41,44,-84,41,1,-65,-75,-69,-19
10,-76,-85,33,48,-80,36,-6,-65,-77,-73,-21
12,-71,-84,30,48,-77,34,-12,-64,-81,-80,-13
4,-76,-80,36,42,-78,30,-19,-73,-79,-80,-17
-2,-82,-80,42,39,-81,30,-25,-81,-80,-84,-32
1,-79,-80,39,41,-79,25,-30,-80,-80,-85,-29
2,-78,-80,38,41,-79,25,-30,-80,-79,-83,-24
-23,-103,-80,63,29,-91,24,-31,-79,-75,-78,-23
-24,-108,-84,66,30,-96,20,-35,-84,-69,-75,-15
-17,-98,-81,58,32,-89,20,-35,-84,-66,-72,-18
-22,-94,-72,58,25,-83,21,-32,-76,-61,-67,-25
-3,-67,-64,36,31,-65,37,-19,-65,-57,-65,-15
4,-44,-48,20,26,-46,55,-8,-61,-51,-55,2
-2,-38,-36,21,17,-37,61,12,-38,-33,-47,19
17,-29,-46,6,31,-37,59,34,-8,-30,-50,19
31,-28,-60,-1,46,-44,38,24,-20,-30,-54,9
18,-52,-70,17,45,-61,13,5,-46,-38,-55,5
2,-80,-82,39,42,-81,5,-4,-75,-68,-69,-3
6,-73,-78,33,42,-75,3,-13,-83,-77,-86,-9
9,-77,-86,34,47,-81,0,-23,-79,-73,-84,-13
-6,-108,-102,57,48,-105,-3,-29,-95,-80,-86,-19
14,-107,-121,47,68,-114,-6,-24,-94,-85,-89,-19
7,-118,-124,56,66,-121,-2,-25,-95,-85,-90,-22
-28,-125,-97,77,34,-111,3,-25,-95,-85,-89,-26
-27,-117,-90,72,32,-103,5,-24,-94,-84,-84,-25
-25,-112,-87,69,31,-99,10,-26,-96,-86,-87,-25
-22,-108,-86,65,32,-97,13,-26,-88,-81,-80,-20
-19,-99,-80,59,30,-89,18,-34,-93,-82,-82,-21
-17,-99,-82,58,33,-90,21,-26,-86,-78,-78,-19
-17,-91,-74,55,29,-82,19,-34,-94,-79,-79,-21
-15,-91,-76,53,31,-83,16,-19,-87,-72,-73,-19
-19,-87,-69,53,25,-78,16,-30,-89,-77,-75,-20
-6,-82,-77,44,36,-79,36,1,-68,-78,-79,-22
-48,-227,-179,138,66,-203,122,130,14,-117,-120,-110
-31,-160,-129,96,49,-144,203,369,392,117,115,-24
319,498,179,-409,70,339,-190,497,1018,1183,1184,817
419,1043,624,-731,-103,834,-750,-368,370,1425,1428,1324
80,736,656,-408,-288,696,-739,-1245,-991,198,200,660
-76,258,334,-91,-206,296,-465,-1004,-1068,-377,-375,87
-82,111,193,-14,-138,151,-190,-494,-539,-247,-249,-28
-47,3,50,22,-49,27,-12,-147,-229,-168,-174,-55
-14,-26,-13,20,0,-19,31,-17,-102,-105,-104,-32
-21,-38,-17,30,-2,-27,67,12,-83,-100,-100,-34
1,-37,-38,18,20,-38,62,46,-54,-76,-84,-19
-27,-51,-24,39,-1,-37,67,57,-45,-70,-83,-26
-36,-70,-34,53,-1,-52,64,71,-32,-60,-74,-29
-18,-46,-28,32,5,-37,75,68,-22,-54,-66,-19
-18,-49,-30,34,6,-39,93,79,-13,-49,-60,-15
-7,-42,-35,25,14,-38,88,85,1,-40,-50,-7
0,-36,-36,18,18,-36,92,105,24,-31,-40,-1
-5,-40,-35,23,16,-38,88,117,36,-18,-24,4
-16,-50,-34,34,9,-42,97,144,65,-6,-13,12
-12,-47,-35,30,12,-41,100,166,89,7,-3,12
-6,-41,-35,24,15,-38,106,186,110,24,12,13
-1,-36,-34,19,17,-35,123,230,153,36,23,34
17,-24,-41,4,30,-32,126,260,182,52,47,52
24,-11,-34,-6,29,-22,136,315,240,91,90,68
37,23,-14,-30,26,4,147,380,304,132,131,92
53,48,-5,-50,29,21,149,436,370,185,184,127
71,82,12,-77,29,47,143,488,434,237,235,160
91,124,33,-108,28,79,135,532,495,292,288,200
110,167,57,-139,26,112,131,555,543,348,343,243
120,193,73,-157,23,133,118,539,541,369,368,269
126,205,79,-166,23,142,94,499,522,373,371,290
139,243,104,-191,17,173,65,432,469,360,361,286
97,190,93,-144,2,141,44,332,371,305,309,245
63,103,40,-84,11,72,39,219,237,212,210,180
53,66,13,-60,20,39,37,133,121,122,125,126
30,29,-1,-30,16,14,34,82,54,59,73,92
-5,-13,-8,10,1,-10,31,39,-4,12,25,49
-13,-26,-14,20,1,-20,29,9,-39,-12,-4,21
-13,-35,-22,24,5,-28,26,3,-63,-34,-31,16
-31,-58,-26,45,-2,-42,21,-4,-76,-47,-51,11
-20,-53,-34,37,8,-43,18,-12,-84,-44,-49,8
-22,-56,-34,40,7,-45,15,-20,-98,-50,-51,2
-17,-53,-36,36,10,-45,10,-24,-106,-56,-52,-2
-32,-66,-34,50,1,-50,13,-15,-110,-73,-71,-10
-46,-98,-53,72,4,-75,22,-9,-104,-81,-82,-18
-27,-106,-79,67,26,-92,33,1,-91,-81,-71,-28
-25,-101,-76,63,26,-89,41,6,-84,-67,-64,-24
0,-70,-70,35,36,-69,57,18,-61,-34,-37,-4
13,-39,-52,13,33,-45,75,36,-38,-29,-19,1
6,-29,-36,12,21,-32,71,30,-35,-32,-22,5
8,-29,-37,11,23,-33,59,26,-27,-28,-18,10
-4,-45,-40,25,18,-42,51,14,-50,-32,-22,6
-3,-57,-54,30,26,-55,41,12,-59,-28,-18,6
-8,-55,-48,31,21,-51,34,-1,-64,-32,-23,2
-2,-53,-50,28,24,-51,26,3,-71,-28,-26,-1
-12,-64,-52,38,20,-58,20,-4,-82,-31,-31,2
-30,-75,-45,53,8,-60,27,-13,-88,-41,-37,14
-17,-76,-59,46,21,-67,23,3,-78,-31,-31,13
-16,-53,-37,35,11,-45,25,-16,-76,-36,-39,-7
-8,-159,-151,83,72,-154,57,74,-43,-83,-85,-70
-51,-249,-198,150,73,-223,189,255,129,-82,-83,-142
198,265,67,-232,66,166,15,534,843,779,781,479
461,996,535,-729,-37,765,-577,49,765,1559,1567,1313
173,960,787,-567,-307,873,-749,-1067,-651,626,634,946
-74,449,522,-188,-299,485,-516,-1153,-1156,-278,-277,224
-108,181,289,-37,-198,235,-257,-604,-668,-236,-237,30
-63,67,130,-2,-97,98,-46,-217,-294,-148,-147,-18
-2,5,6,-2,-4,5,9,-28,-121,-71,-72,-9
-21,-21,0,21,-10,-10,51,8,-83,-52,-63,-10
-29,-51,-21,40,-4,-36,62,54,-48,-42,-55,-11
-26,-49,-23,38,-2,-36,58,60,-46,-34,-39,-8
-7,-49,-42,28,18,-45,67,74,-36,-37,-38,-12
-9,-53,-45,31,19,-49,63,80,-25,-26,-24,-7
2,-53,-55,26,28,-54,70,90,-13,-29,-24,-4
6,-47,-53,21,30,-50,73,104,3,-20,-12,4
3,-43,-46,20,25,-44,81,112,22,-15,-9,6
8,-39,-47,16,28,-43,86,129,48,-5,7,15
4,-34,-38,15,21,-35,89,144,59,6,16,17
14,-31,-45,9,29,-38,96,179,93,32,26,28
21,-29,-50,4,36,-40,103,210,131,64,57,55
20,-27,-46,4,34,-37,107,245,166,78,73,59
19,-25,-44,4,32,-34,109,291,210,97,93,64
20,-19,-39,-1,30,-29,122,343,266,129,125,83
49,13,-36,-30,43,-11,140,414,340,174,172,104
77,45,-32,-61,54,7,136,483,417,230,228,143
81,61,-20,-71,50,20,127,539,483,283,281,185
100,93,-8,-96,54,42,119,575,542,337,336,219
117,119,3,-118,57,61,111,580,572,372,366,244
137,148,11,-142,63,79,104,559,556,387,379,272
131,152,21,-142,55,86,80,488,500,369,370,273
95,115,20,-105,37,67,61,380,397,307,318,236
68,64,-4,-66,35,30,57,270,267,233,236,192
21,-6,-27,-7,24,-16,51,172,146,152,146,131
13,-34,-48,11,31,-41,48,108,63,84,83,77
4,-63,-67,30,36,-65,42,57,8,40,41,45
-34,-104,-70,69,18,-87,40,33,-26,22,8,27
-18,-97,-79,58,31,-88,40,31,-43,11,-3,21
-26,-113,-88,70,31,-100,40,25,-55,-1,-9,16
-48,-132,-85,91,18,-108,40,22,-60,-12,-16,14
-39,-124,-85,82,24,-104,40,15,-60,-24,-22,10
-39,-121,-82,80,21,-101,40,17,-59,-26,-29,5
-37,-116,-79,76,22,-98,36,21,-63,-21,-26,3
-31,-111,-80,71,25,-95,34,20,-66,-19,-20,-5
-21,-111,-90,66,35,-101,35,20,-61,-14,-15,-9
-28,-124,-96,76,35,-110,35,21,-59,-11,-9,-4
-37,-132,-95,85,29,-113,35,23,-55,-7,-3,-10
-36,-129,-93,83,28,-111,34,31,-51,-5,-1,-11
-41,-131,-89,86,24,-110,30,35,-48,-5,-6,-6
-40,-130,-90,85,25,-110,30,28,-45,-2,-11,-5
-36,-130,-94,83,29,-112,28,25,-45,0,-9,0
-33,-133,-100,83,34,-116,24,20,-45,-1,-13,0
-37,-136,-99,86,32,-117,25,15,-45,-6,-15,-5
-27,-135,-107,81,40,-121,21,11,-46,-12,-15,-8
-19,-135,-116,78,49,-126,20,10,-49,-17,-18,-11
-25,-135,-109,80,42,-121,20,10,-61,-23,-21,-16
-30,-135,-106,83,38,-120,15,5,-66,-25,-20,-19
-33,-135,-101,84,35,-118,15,5,-65,-25,-21,-23
-39,-135,-96,87,29,-115,14,5,-64,-25,-28,-25
-53,-150,-97,102,22,-123,10,5,-61,-25,-27,-26
-56,-157,-101,106,23,-128,10,5,-58,-25,-25,-30
-54,-154,-100,104,23,-126,8,5,-55,-32,-25,-30
-56,-156,-100,106,23,-127,4,5,-53,-31,-20,-25
-55,-154,-100,104,23,-127,5,5,-49,-30,-20,-25
-55,-156,-100,105,23,-127,8,5,-53,-29,-19,-24
-55,-159,-105,108,25,-132,12,5,-55,-25,-15,-20
-55,-160,-105,108,24,-132,15,6,-55,-25,-15,-20
-52,-158,-106,105,28,-132,20,4,-55,-25,-15,-18
-43,-153,-110,98,34,-131,20,6,-55,-25,-14,-14
-40,-150,-110,95,35,-130,20,3,-55,-25,-22,-16
-37,-145,-108,91,36,-126,20,-2,-50,-25,-31,-14
-36,-140,-104,88,34,-122,20,0,-50,-25,-30,-16
-32,-137,-105,85,37,-121,20,0,-50,-25,-29,-14
-24,-129,-105,77,40,-116,18,8,-50,-30,-25,-16
-40,-146,-105,93,33,-125,15,3,-50,-27,-25,-29
-55,-160,-104,108,25,-132,12,-4,-47,-25,-25,-31
-45,-146,-101,96,28,-123,10,2,-45,-25,-25,-30
-42,-141,-98,92,28,-119,6,3,-42,-25,-25,-30
-37,-132,-95,85,29,-113,5,9,-39,-25,-25,-30
-40,-133,-93,87,27,-112,8,16,-36,-24,-25,-29
-44,-132,-89,88,23,-110,13,11,-35,-21,-25,-24
-21,-115,-94,68,37,-104,14,9,-42,-15,-24,-26
-53,-153,-99,103,23,-126,10,5,-43,-26,-31,-22
-71,-165,-94,118,12,-129,7,0,-39,-37,-36,-20
-35,-123,-88,79,27,-105,5,2,-40,-34,-35,-20
-49,-134,-85,92,18,-109,1,5,-40,-33,-33,-17
-60,-139,-80,100,10,-109,0,8,-40,-29,-29,-11
-54,-130,-76,92,11,-102,4,11,-40,-30,-30,-8
-51,-127,-77,89,14,-102,12,15,-35,-34,-33,-2
-46,-122,-75,84,15,-98,14,15,-35,-35,-36,-1
-45,-120,-75,83,15,-97,8,11,-35,-35,-33,-28
-40,-115,-75,78,18,-95,2,9,-35,-26,-29,-41
-37,-111,-75,74,19,-93,-2,5,-35,-31,-24,-32
-35,-110,-75,73,20,-92,-9,3,-33,-46,-19,-26
-39,-119,-80,79,21,-99,-13,-1,-28,-44,-16,-20
-45,-125,-81,85,18,-103,-13,3,-22,-41,-9,-20
-49,-125,-76,88,14,-100,-2,5,-19,-38,-24,-20
-46,-121,-75,84,15,-97,-2,6,-13,-36,-34,-25
-51,-121,-70,86,9,-95,-12,11,-10,-33,-25,-22
-45,-116,-70,80,13,-93,-1,9,-4,-24,-20,-15
-48,-100,-52,74,3,-75,14,18,2,-9,-11,-10
-43,-70,-27,57,-7,-49,28,23,10,-2,-7,-5
-13,-38,-26,26,7,-32,38,37,41,9,15,12
-29,-52,-23,41,-3,-37,32,49,45,31,30,27
-31,-75,-44,53,7,-59,5,23,17,19,15,21
-31,-91,-60,61,15,-75,-22,9,6,-1,-2,19
-33,-96,-63,65,15,-79,-24,6,-3,-9,-14,13
-12,-95,-84,54,36,-89,-25,0,-11,-20,-14,11
-30,-113,-83,72,27,-98,-25,-3,-22,-35,-29,-1
-40,-129,-89,85,25,-108,-25,-9,-30,-41,-37,-7
-28,-138,-110,83,41,-124,-30,-13,-28,-40,-34,2
-45,-133,-88,89,22,-110,-30,-17,-24,-38,-36,-6
-51,-127,-77,89,13,-102,-27,-22,-25,-34,-34,-12
-37,-122,-85,80,25,-104,-23,-25,-25,-37,-37,-25
-35,-116,-81,75,24,-98,-22,-20,-24,-29,-30,-32
-36,-112,-76,74,20,-93,-18,-21,-26,-30,-32,-25
-27,-102,-75,65,24,-88,-17,-19,-18,-21,-23,-20
-21,-90,-69,56,24,-79,-14,-22,-18,-24,-26,-18
-60,-124,-63,92,2,-93,-12,-19,-9,-13,-17,-9
-75,-122,-47,99,-14,-84,-11,-15,-9,-21,-27,-15
-44,-112,-68,78,13,-90,1,20,3,-41,-44,-18
-60,-255,-195,157,68,-225,80,142,104,-37,-46,-81
-9,-137,-129,73,60,-133,159,395,520,227,217,17
234,545,312,-390,-39,429,-241,344,970,1252,1249,829
277,1136,859,-707,-291,997,-774,-555,250,1442,1446,1288
-2,797,799,-398,-400,797,-734,-1245,-993,140,142,555
-150,187,338,-19,-244,262,-484,-989,-1068,-469,-482,-61
-133,72,205,30,-169,138,-243,-508,-522,-299,-304,-115
-94,-1,93,47,-93,46,-60,-167,-185,-165,-176,-91
-73,-70,3,72,-38,-33,-22,-38,-58,-79,-90,-70
-68,-76,-8,73,-30,-41,10,-11,-30,-82,-76,-62
-51,-83,-33,68,-9,-58,15,21,18,-59,-57,-50
-62,-82,-20,72,-21,-51,15,43,35,-60,-55,-46
-73,-99,-27,87,-22,-63,31,63,56,-51,-44,-39
-59,-89,-31,74,-14,-60,26,68,68,-33,-35,-33
-42,-89,-47,66,3,-68,35,82,86,-14,-28,-28
-41,-85,-45,64,3,-65,43,92,107,-2,-17,-22
-28,-78,-49,53,10,-63,40,110,115,3,-11,-18
-40,-91,-51,65,6,-71,40,116,124,13,-1,-11
-50,-95,-45,73,-2,-70,39,126,135,19,6,-6
-25,-71,-46,49,10,-58,52,145,165,33,20,-9
-35,-78,-43,57,4,-60,61,160,183,40,33,-14
-33,-86,-53,60,10,-70,59,188,212,61,58,1
-18,-60,-42,39,12,-51,64,222,248,82,79,11
-26,-45,-19,36,-3,-32,76,263,293,111,109,39
1,-10,-11,5,6,-10,88,312,354,158,156,71
22,22,0,-22,11,11,93,351,401,187,185,86
4,33,29,-19,-13,30,94,397,465,241,234,120
39,86,47,-63,-4,67,86,445,535,310,308,169
65,134,69,-99,-2,101,78,454,573,349,345,203
59,159,100,-110,-21,129,67,446,585,381,375,220
63,171,109,-118,-23,139,49,430,580,415,415,257
61,171,110,-116,-25,140,28,383,549,410,400,279
80,180,100,-130,-10,139,8,308,490,381,379,256
61,143,83,-103,-11,113,-12,222,383,330,328,221
21,85,64,-53,-21,74,-30,140,273,241,235,165
8,46,38,-27,-15,42,-30,83,197,171,169,117
-10,8,18,1,-14,13,-25,49,129,123,111,81
-28,-22,7,25,-17,-7,-23,26,97,78,86,40
-38,-37,1,37,-19,-17,-18,14,74,55,62,6
-47,-53,-6,51,-21,-29,-16,8,55,47,32,0
-48,-61,-13,55,-18,-37,-11,4,56,41,29,22
-48,-59,-11,53,-18,-35,-10,-3,54,34,24,25
-54,-61,-7,58,-24,-33,-10,-7,56,28,22,16
-58,-59,-2,59,-28,-30,-6,-14,54,25,18,13
-59,-60,-1,60,-29,-31,-5,-26,56,19,13,6
-45,-60,-15,53,-15,-37,-6,-22,61,36,29,2
-47,-60,-13,54,-17,-37,-19,-16,60,52,40,-5
-55,-60,-5,58,-25,-33,-26,-13,60,44,33,-14
-50,-59,-9,55,-21,-34,-25,-7,60,41,29,-19
-57,-73,-16,66,-20,-45,-25,-6,60,36,23,-14
-60,-82,-22,71,-19,-52,-25,-11,60,31,16,-8
-50,-79,-29,65,-10,-54,-25,-17,55,27,18,-5
-44,-80,-36,62,-4,-58,-26,-20,50,21,21,0
-42,-81,-39,61,-1,-60,-33,-26,45,16,17,5
-24,-79,-55,52,16,-67,-32,-29,42,11,15,1
-16,-78,-62,47,23,-70,-30,-27,35,5,11,-10
-8,-67,-59,37,26,-62,-30,-24,37,0,10,-20
-8,-69,-61,38,27,-64,-26,-27,44,12,6,-29
-33,-93,-60,63,14,-76,-24,-42,36,15,-1,-31
-38,-96,-59,67,11,-77,-26,-46,27,5,-5,-28
-36,-91,-55,64,10,-72,-30,-47,18,-1,-11,-39
-34,-89,-55,62,10,-71,-29,-51,8,-9,-16,-50
-50,-105,-56,78,4,-80,-39,-50,5,-17,-21,-55
-64,-117,-53,91,-5,-85,-46,-50,5,-17,-19,-56
-51,-114,-63,83,6,-88,-45,-50,3,-16,-21,-56
-43,-113,-70,78,14,-91,-45,-50,0,-10,-19,-53
-37,-109,-72,74,17,-90,-45,-50,0,-13,-19,-60
-34,-110,-76,73,21,-93,-45,-50,4,-30,-28,-74
-39,-107,-67,73,14,-87,-41,-45,7,-19,-23,-67
-55,-103,-47,79,-4,-75,-32,-36,13,-4,-13,-56
-62,-74,-12,68,-25,-43,-24,-27,34,6,-1,-51
-51,-53,-1,52,-25,-27,-18,-20,54,21,13,-49
-40,-57,-17,49,-11,-36,-9,-2,54,19,29,-51
-22,-54,-33,38,6,-43,-26,0,36,6,33,-50
-19,-75,-57,47,19,-66,-47,-30,22,-3,11,-50
-32,-100,-67,66,18,-83,-44,-52,17,-18,-2,-66
-42,-113,-71,78,15,-92,-39,-54,11,-18,-13,-81
-37,-115,-78,77,21,-96,-43,-56,6,-16,-25,-70
-21,-114,-93,68,36,-104,-59,-69,-6,-38,-35,-74
-33,-146,-113,90,40,-129,-61,-70,-21,-45,-45,-94
-56,-155,-99,106,22,-127,-59,-70,-27,-49,-48,-106
-65,-143,-78,105,7,-110,-56,-71,-24,-52,-46,-119
-57,-142,-85,100,14,-113,-55,-69,-19,-48,-43,-121
-55,-133,-78,95,12,-105,-54,-70,-19,-52,-47,-120
-54,-130,-76,92,11,-102,-49,-62,-9,-47,-42,-120
-52,-119,-66,86,7,-92,-46,-68,-14,-52,-48,-120
-51,-116,-65,83,8,-90,-43,-62,-26,-51,-50,-119
-51,-106,-55,79,2,-80,-38,-68,-32,-57,-59,-121
-46,-104,-58,75,6,-81,-35,-63,-20,-55,-53,-119
-38,-100,-62,69,12,-81,-38,-62,-21,-53,-55,-122
-53,-113,-60,83,4,-86,-40,-58,-16,-60,-57,-117
-58,-257,-200,158,71,-228,37,84,77,-58,-44,-179
-24,-174,-150,99,63,-162,127,307,439,160,158,-106
219,524,305,-372,-44,414,-234,295,939,1151,1149,672
289,1177,888,-733,-300,1033,-781,-513,307,1444,1450,1183
0,859,859,-430,-429,859,-801,-1274,-985,175,181,494
-129,211,340,-42,-235,276,-537,-1043,-1106,-507,-505,-145
-123,61,183,31,-153,122,-281,-550,-565,-330,-330,-196
-72,18,90,26,-82,54,-102,-214,-207,-186,-188,-164
-56,-61,-5,58,-25,-33,-55,-84,-70,-106,-114,-144
-73,-94,-21,84,-26,-57,-25,-66,-50,-100,-100,-139
-48,-101,-53,75,3,-77,-20,-21,1,-74,-77,-130
-50,-90,-39,71,-5,-64,-16,-6,16,-67,-72,-128
-41,-89,-48,66,4,-68,-8,14,41,-55,-60,-126
-34,-80,-46,57,6,-63,-5,23,46,-44,-49,-121
-25,-76,-51,51,13,-63,3,36,53,-37,-41,-121
-29,-79,-50,54,11,-64,4,41,72,-23,-29,-117
-34,-84,-50,59,8,-66,8,42,72,-19,-22,-112
-22,-79,-57,51,18,-68,10,70,102,-8,-12,-105
-20,-73,-53,47,17,-63,14,93,114,-1,-3,-100
-20,-70,-50,45,15,-60,15,98,123,6,3,-95
-18,-64,-47,41,15,-55,21,125,156,31,26,-89
-19,-61,-42,40,12,-51,33,158,188,49,50,-83
-13,-53,-40,33,13,-46,42,188,225,64,58,-74
-3,-34,-32,19,15,-32,53,243,277,96,90,-49
7,-11,-18,2,13,-14,67,291,336,131,128,-21
25,17,-8,-21,16,4,74,340,395,177,171,4
33,49,15,-41,9,32,71,395,460,232,228,38
61,97,35,-79,13,66,65,440,524,288,283,85
99,159,60,-129,20,109,63,467,568,340,337,130
89,183,94,-136,-3,138,53,449,570,374,365,143
89,191,102,-140,-7,146,21,405,540,368,365,156
96,189,93,-143,1,141,-9,328,470,337,337,158
71,153,81,-112,-5,117,-32,229,363,286,280,121
54,116,62,-85,-4,89,-52,141,247,197,193,60
29,61,32,-46,-1,46,-59,60,126,100,96,-10
-13,-7,6,10,-10,-1,-56,2,36,28,23,-59
-40,-51,-11,46,-14,-31,-55,-34,-11,-19,-27,-97
-34,-61,-27,48,-4,-44,-55,-56,-51,-51,-56,-118
-29,-65,-36,47,4,-50,-55,-63,-76,-66,-75,-123
-30,-71,-42,50,6,-56,-56,-68,-84,-75,-89,-126
-28,-77,-48,53,10,-62,-52,-75,-97,-90,-96,-138
-25,-76,-51,51,13,-63,-50,-75,-102,-98,-102,-147
-23,-72,-49,47,14,-61,-50,-74,-109,-108,-108,-144
-38,-89,-50,64,6,-70,-50,-71,-116,-111,-111,-146
-42,-91,-50,67,4,-70,-50,-70,-114,-109,-110,-145
-31,-82,-51,57,10,-67,-50,-69,-112,-110,-110,-145
-37,-93,-55,66,9,-74,-55,-65,-107,-110,-110,-145
-46,-104,-58,75,6,-81,-55,-66,-104,-109,-109,-145
-37,-99,-63,68,13,-81,-57,-63,-101,-104,-105,-145
-26,-93,-66,60,20,-80,-61,-60,-96,-101,-101,-145
-19,-89,-70,54,26,-79,-60,-60,-97,-98,-98,-146
-10,-80,-70,45,31,-75,-60,-60,-100,-94,-93,-142
-21,-91,-69,56,24,-80,-60,-60,-105,-90,-90,-140
-42,-125,-83,83,21,-104,-60,-60,-108,-94,-94,-140
-45,-136,-92,91,24,-114,-65,-60,-112,-95,-95,-140
-45,-134,-89,89,23,-111,-65,-60,-118,-95,-98,-140
-47,-138,-91,93,22,-114,-66,-61,-112,-95,-100,-139
-45,-140,-94,93,24,-117,-70,-70,-117,-96,-101,-142
-45,-140,-95,93,25,-117,-70,-79,-131,-112,-117,-150
-41,-136,-95,89,27,-115,-67,-80,-129,-116,-121,-150
-30,-135,-105,82,38,-120,-65,-79,-133,-116,-119,-149
-23,-135,-111,79,45,-123,-65,-76,-135,-120,-121,-150
-27,-135,-108,81,41,-121,-65,-74,-135,-120,-119,-149
-28,-134,-106,82,40,-120,-65,-76,-135,-125,-122,-152
-33,-136,-103,85,36,-120,-65,-81,-138,-125,-125,-155
-38,-149,-111,94,37,-130,-65,-85,-145,-121,-125,-155
-34,-150,-117,93,41,-133,-65,-85,-145,-120,-125,-155
-38,-150,-111,94,37,-130,-65,-85,-145,-120,-125,-155
-39,-150,-111,94,36,-131,-65,-85,-145,-115,-125,-155
-46,-150,-105,98,30,-127,-65,-85,-145,-115,-121,-150
-39,-147,-107,94,34,-127,-63,-79,-144,-114,-115,-142
-11,-102,-91,56,40,-96,-52,-65,-129,-100,-109,-134
0,-69,-69,35,35,-69,-43,-55,-111,-86,-103,-125
3,-71,-74,34,39,-72,-45,-26,-94,-80,-80,-121
6,-72,-78,33,43,-75,-47,-21,-76,-80,-59,-126
-3,-109,-106,56,52,-107,-60,-53,-98,-82,-76,-130
-14,-139,-125,76,56,-131,-71,-61,-132,-102,-109,-134
1,-125,-126,62,64,-126,-69,-76,-153,-124,-132,-140
12,-132,-144,61,78,-138,-70,-92,-173,-125,-135,-140
-15,-168,-153,92,69,-160,-75,-88,-175,-125,-134,-146
-13,-172,-160,93,74,-166,-73,-87,-175,-125,-136,-151
4,-175,-179,85,91,-176,-67,-82,-175,-126,-133,-149
-18,-195,-176,107,80,-185,-63,-82,-175,-140,-146,-151
-24,-193,-169,108,73,-181,-56,-77,-175,-139,-144,-149
-24,-186,-162,105,69,-174,-51,-76,-181,-140,-141,-151
-27,-183,-156,106,64,-169,-53,-74,-179,-136,-139,-146
-28,-178,-150,103,61,-164,-56,-76,-180,-133,-133,-144
-31,-174,-143,102,57,-158,-54,-75,-181,-139,-139,-145
-36,-178,-141,107,53,-159,-56,-73,-177,-136,-136,-139
-41,-169,-128,105,44,-149,-55,-75,-181,-146,-146,-141
-41,-175,-134,108,46,-154,-53,-57,-162,-132,-132,-139
-45,-161,-116,103,36,-138,-51,-66,-173,-149,-150,-140
-20,-229,-208,125,94,-219,-7,23,-120,-142,-143,-174
-50,-336,-286,193,118,-311,125,180,52,-131,-131,-255
113,57,-56,-85,85,0,13,399,630,503,499,181
393,841,449,-617,-28,645,-626,45,763,1452,1454,1056
235,994,759,-615,-262,877,-1004,-1018,-535,800,802,944
-4,425,429,-211,-217,427,-771,-1246,-1311,-306,-309,182
-58,92,150,-17,-104,121,-429,-717,-855,-378,-380,-102
-86,-25,60,56,-73,18,-161,-311,-426,-263,-268,-148
-50,-136,-85,93,18,-110,-52,-95,-227,-186,-191,-144
-37,-128,-91,83,27,-109,-13,-49,-176,-156,-160,-137
-20,-145,-125,83,52,-134,9,-6,-143,-146,-151,-139
-9,-145,-136,77,64,-141,7,8,-125,-128,-133,-128
-4,-143,-139,73,68,-141,17,16,-120,-127,-133,-131
-1,-155,-154,78,77,-154,17,31,-104,-109,-118,-122
-13,-159,-146,86,67,-153,25,40,-100,-108,-122,-120
-4,-156,-153,80,75,-154,27,50,-85,-97,-112,-114
-4,-152,-148,78,73,-150,31,56,-79,-93,-110,-110
2,-149,-151,73,77,-150,36,67,-58,-85,-101,-105
2,-145,-146,72,75,-145,39,85,-37,-80,-87,-101
1,-141,-142,70,72,-141,47,104,-18,-69,-78,-99
9,-131,-140,61,74,-135,61,127,10,-50,-56,-94
10,-125,-135,58,73,-130,69,155,30,-34,-39,-92
17,-115,-132,49,75,-123,77,188,66,-12,-17,-88
19,-109,-128,45,74,-119,91,237,117,10,8,-75
39,-79,-118,20,79,-98,108,289,173,49,40,-44
56,-49,-106,-3,81,-77,124,349,238,92,85,-8
64,-25,-89,-19,77,-57,118,402,304,141,134,26
81,15,-66,-48,73,-25,111,452,372,203,193,60
84,42,-42,-62,63,0,103,498,436,258,251,98
119,94,-24,-106,71,35,96,504,476,314,305,141
147,130,-17,-138,81,57,88,481,471,335,322,160
124,117,-6,-120,65,55,60,434,439,328,317,161
97,94,-3,-96,50,45,25,349,366,301,301,139
85,57,-29,-71,57,14,-6,248,240,230,228,102
83,11,-72,-47,77,-30,-28,151,108,140,133,53
68,-31,-99,-18,83,-64,-36,77,5,63,58,-9
33,-81,-113,24,73,-97,-32,29,-67,9,10,-49
10,-121,-132,56,71,-126,-28,-3,-116,-29,-29,-70
15,-128,-143,57,79,-135,-25,-17,-138,-51,-58,-81
11,-138,-149,63,80,-143,-20,-30,-167,-65,-73,-88
7,-143,-150,68,79,-146,-23,-39,-177,-65,-79,-95
11,-139,-150,64,81,-145,-26,-40,-174,-66,-80,-95
14,-140,-155,63,84,-147,-24,-40,-175,-76,-79,-95
15,-140,-155,63,85,-147,-26,-40,-176,-74,-74,-95
15,-140,-155,63,85,-147,-24,-40,-185,-71,-76,-95
15,-140,-155,63,85,-147,-26,-40,-180,-68,-72,-96
10,-145,-155,68,83,-150,-19,-37,-174,-65,-70,-101
16,-139,-155,62,85,-147,-20,-34,-170,-64,-70,-102
9,-146,-155,69,82,-150,-22,-31,-163,-59,-67,-98
-1,-156,-155,79,77,-155,-17,-29,-162,-54,-64,-96
4,-155,-159,76,82,-156,-26,-25,-167,-50,-61,-92
8,-158,-166,76,87,-162,-12,-26,-165,-45,-58,-90
14,-161,-175,74,95,-168,-31,-30,-165,-40,-55,-92
21,-159,-180,69,101,-169,-8,-30,-165,-45,-56,-97
23,-161,-184,70,103,-172,-33,-30,-164,-54,-61,-100
17,-167,-184,75,101,-175,-8,-31,-179,-57,-65,-100
14,-165,-179,75,97,-172,-28,-31,-186,-60,-62,-100
26,-154,-180,64,103,-167,208,-31,-184,-60,-59,-100
34,-146,-180,56,107,-162,1233,-29,-185,-59,-60,-100
0,-180,-180,90,90,-180,1272,-28,-195,-60,-59,-99
-16,-195,-180,105,82,-187,445,-23,-201,-61,-63,-102
3,-176,-180,87,92,-178,302,-29,-199,-68,-71,-118
11,-171,-182,80,97,-176,346,-25,-200,-57,-71,-120
