I,II,III,aVR,aVL,aVF,V1,V2,V3,V4,V5,V6
50,153,103,-102,-27,128,-90,-75,-160,-30,-280,-65
47,147,100,-97,-26,123,-90,-72,-158,-30,-280,-65
48,169,121,-109,-37,145,-90,-66,-152,-30,-280,-65
54,181,126,-118,-36,153,-90,-61,-149,-26,-276,-61
51,176,125,-114,-37,150,-90,-55,-143,-25,-275,-60
51,187,136,-119,-43,161,-91,-50,-140,-25,-274,-60
61,201,140,-131,-39,171,-94,-45,-134,-20,-270,-55
60,200,140,-130,-40,170,-95,-41,-127,-16,-266,-55
60,200,140,-130,-40,170,-98,-38,-121,-14,-263,-54
60,200,140,-130,-40,170,-100,-35,-114,-10,-259,-50
60,199,140,-129,-40,170,-102,-30,-108,-5,-255,-50
60,197,137,-129,-39,167,-105,-31,-102,-7,-255,-52
60,194,134,-127,-37,164,-108,-28,-100,-12,-254,-57
65,196,131,-130,-34,163,-110,-36,-99,-15,-262,-61
66,194,128,-130,-32,161,-115,-52,-101,-18,-272,-64
70,195,125,-133,-28,160,-115,-48,-99,-23,-268,-68
82,207,125,-145,-22,165,-113,-56,-102,-25,-275,-70
80,205,125,-143,-23,165,-124,-70,-114,-20,-289,-70
72,197,125,-135,-27,161,-123,-66,-110,-16,-285,-70
65,190,125,-128,-30,157,-117,-62,-105,-14,-277,-70
52,181,129,-117,-39,155,-113,-58,-100,-10,-272,-70
44,176,131,-110,-44,153,-108,-52,-93,-6,-263,-66
53,180,127,-117,-37,153,-93,-48,-88,-2,-260,-63
75,200,125,-138,-25,163,-72,-41,-76,2,-258,-61
88,210,121,-149,-17,165,-59,-33,-59,9,-254,-56
76,196,120,-136,-22,158,-44,-23,-53,9,-253,-56
87,194,107,-140,-11,150,-38,-2,-46,19,-247,-51
111,178,67,-145,22,122,-20,17,-54,17,-256,-51
117,183,66,-151,26,124,-42,26,-42,18,-253,-49
113,179,66,-146,24,122,-121,10,-46,9,-255,-50
116,178,61,-147,27,119,-164,0,-48,4,-262,-51
116,188,72,-152,22,129,-147,-14,-53,7,-254,-46
112,165,54,-139,29,109,-146,-31,-93,-14,-270,-63
91,196,105,-143,-7,150,-124,-53,-64,8,-252,-52
46,135,89,-91,-22,112,-125,-86,-125,-31,-287,-79
49,196,147,-123,-49,171,-126,-41,-58,11,-257,-49
-8,107,116,-50,-62,111,-111,-75,-141,-40,-284,-79
15,139,124,-77,-55,132,-106,32,-55,-10,-267,-82
-13,69,82,-28,-48,75,262,369,39,-71,-363,-193
508,578,69,-543,219,323,-43,808,528,451,85,177
1300,1984,684,-1643,308,1334,-879,494,1414,1698,1268,1229
776,1169,393,-973,192,780,-1091,-937,46,937,790,937
246,153,-92,-200,169,30,-1072,-1182,-865,-80,-89,244
183,296,114,-240,34,205,-532,-363,-226,36,-131,115
3,90,87,-47,-42,88,-110,-85,-167,-79,-288,-96
18,167,149,-93,-66,158,-112,-15,-43,-19,-243,-66
-28,114,142,-43,-85,128,-50,-6,-72,-40,-278,-94
-17,118,135,-51,-76,126,-69,5,-56,-34,-284,-101
-16,125,141,-54,-79,133,-42,15,-36,-17,-272,-95
-23,96,119,-37,-71,107,-39,17,-52,-37,-289,-107
-13,117,130,-52,-72,124,-28,32,-21,-20,-271,-88
-24,87,111,-31,-68,99,-15,27,-47,-43,-287,-102
-14,104,118,-45,-67,111,-10,34,-24,-32,-277,-89
-23,84,107,-31,-65,96,5,33,-35,-44,-289,-93
-17,91,108,-38,-62,99,11,36,-27,-40,-283,-87
-21,82,103,-31,-62,92,24,39,-34,-46,-289,-83
-18,80,97,-31,-57,89,32,43,-37,-46,-291,-100
-36,77,113,-21,-75,95,54,48,-38,-50,-288,-123
-67,73,140,-3,-104,106,58,50,-43,-55,-287,-126
-75,76,151,-1,-113,113,68,54,-46,-59,-282,-123
-81,68,149,7,-115,108,90,55,-55,-73,-294,-129
-79,72,151,3,-115,111,99,50,-61,-82,-310,-140
-83,66,149,9,-116,107,109,45,-65,-84,-311,-140
-88,71,160,8,-125,115,113,41,-69,-90,-315,-141
-98,99,197,0,-148,148,107,36,-76,-94,-312,-138
-99,113,213,-7,-156,163,93,32,-83,-85,-299,-144
-67,130,198,-32,-133,164,72,27,-81,-75,-288,-131
-45,144,189,-50,-118,166,39,25,-75,-65,-272,-94
-22,148,170,-63,-96,159,4,25,-70,-53,-253,-89
3,133,130,-69,-64,131,-7,21,-64,-38,-246,-90
21,113,92,-67,-36,102,-9,20,-58,-26,-241,-90
26,86,60,-56,-18,73,-13,20,-56,-24,-236,-90
25,62,37,-44,-6,49,-16,11,-62,-26,-230,-90
25,48,22,-37,1,35,-21,-1,-69,-24,-226,-98
19,32,13,-26,3,22,-16,-12,-76,-26,-230,-101
21,23,2,-22,9,13,-10,-23,-80,-24,-230,-96
21,15,-7,-18,14,4,-5,-29,-80,-27,-231,-96
21,6,-15,-13,18,-5,0,-37,-80,-39,-235,-113
12,-6,-18,-3,15,-12,7,-37,-80,-41,-235,-121
2,-25,-27,12,15,-26,9,-29,-80,-39,-232,-119
9,-35,-44,13,27,-39,5,-22,-75,-36,-224,-120
15,-31,-45,8,30,-38,5,-16,-67,-35,-216,-120
20,-24,-45,3,33,-35,5,-5,-59,-35,-208,-120
31,-20,-51,-5,41,-35,5,7,-51,-25,-200,-117
36,-12,-49,-12,43,-30,5,14,-44,-15,-195,-112
40,-12,-52,-14,46,-32,9,21,-40,-4,-190,-109
40,-15,-55,-12,48,-35,10,27,-40,4,-185,-105
44,-16,-60,-14,53,-37,10,35,-38,6,-181,-102
57,-15,-72,-21,65,-43,10,39,-34,9,-176,-98
59,-15,-74,-21,67,-44,10,36,-35,11,-172,-95
53,-15,-68,-19,61,-41,9,33,-38,15,-170,-95
49,-14,-63,-17,57,-39,5,30,-41,14,-170,-93
53,-32,-85,-10,69,-58,5,28,-44,10,-170,-89
56,-42,-98,-7,77,-69,5,24,-46,10,-170,-90
51,-42,-93,-4,72,-68,5,28,-53,10,-169,-86
50,-46,-96,-2,74,-71,5,30,-52,10,-166,-85
54,-41,-94,-6,74,-67,10,30,-45,9,-162,-86
59,-36,-96,-11,78,-66,21,30,-40,14,-158,-85
55,-34,-89,-10,72,-61,30,31,-34,18,-154,-86
62,-29,-91,-16,77,-60,52,29,-28,23,-151,-83
56,-25,-81,-15,69,-53,80,38,-25,26,-147,-80
66,-27,-93,-19,80,-60,89,58,-32,23,-145,-78
90,-41,-132,-24,111,-86,101,62,-26,28,-138,-73
94,-85,-179,-4,137,-132,112,86,-35,21,-140,-74
121,-95,-216,-13,169,-155,90,79,-29,30,-129,-66
105,-119,-224,7,165,-171,47,43,-50,19,-132,-78
98,-113,-211,8,155,-161,3,65,-41,41,-124,-84
90,-113,-203,12,147,-158,3,55,-45,43,-123,-85
75,-118,-193,22,134,-155,-21,49,-57,28,-125,-87
40,-94,-135,27,87,-114,9,34,-34,40,-108,-87
24,-134,-158,55,91,-146,11,23,-78,-1,-130,-109
32,-64,-96,16,64,-80,33,23,-16,42,-95,-72
26,-149,-175,62,101,-162,34,-1,-109,-39,-149,-100
34,-130,-164,48,99,-147,95,159,23,1,-125,-105
17,-257,-274,120,146,-265,464,533,81,-60,-224,-245
658,598,-61,-628,359,269,-64,945,870,775,508,377
1043,1750,707,-1397,167,1228,-770,196,1448,1836,1561,1332
390,509,119,-449,136,314,-722,-1126,-344,614,676,710
109,-238,-347,65,228,-293,-681,-923,-857,-191,-53,110
67,-59,-126,-4,96,-92,-244,-196,-160,28,-3,47
-35,-219,-184,128,75,-202,59,8,-131,-66,-124,-106
-9,-110,-102,59,47,-106,50,52,1,15,-59,-60
-30,-170,-140,100,55,-155,91,54,-52,-27,-111,-116
-11,-129,-118,70,53,-123,67,82,-15,0,-96,-115
-20,-137,-117,79,49,-126,93,79,-24,0,-100,-121
-38,-158,-120,99,41,-139,90,80,-23,-7,-104,-121
-26,-146,-120,86,47,-133,109,81,-7,-2,-92,-111
-35,-168,-132,102,49,-150,118,78,-27,-21,-101,-118
-65,-174,-109,120,23,-142,123,82,-15,-13,-90,-115
-80,-192,-113,137,17,-152,128,78,-33,-30,-103,-138
-87,-185,-98,136,6,-141,132,80,-27,-27,-98,-133
-60,-192,-132,126,36,-162,157,96,-36,-36,-101,-137
-59,-205,-147,132,44,-176,173,102,-38,-39,-100,-140
-79,-217,-138,148,30,-177,183,103,-40,-41,-100,-139
-77,-214,-137,146,30,-175,184,107,-43,-50,-99,-143
-85,-215,-130,150,23,-172,203,111,-45,-65,-95,-144
-88,-215,-127,152,20,-171,216,120,-47,-64,-96,-150
-93,-215,-122,155,15,-168,225,124,-52,-74,-96,-149
-94,-208,-114,151,10,-160,236,118,-59,-86,-95,-156
-92,-197,-106,145,7,-151,227,112,-65,-89,-96,-164
-89,-187,-98,138,5,-143,221,108,-75,-92,-90,-152
-88,-178,-90,133,1,-134,208,101,-83,-79,-80,-142
-89,-173,-84,131,-2,-128,181,97,-80,-70,-69,-133
-97,-171,-73,134,-12,-122,144,90,-75,-59,-54,-125
-95,-166,-71,130,-11,-118,113,81,-73,-45,-33,-119
-58,-163,-105,111,24,-134,109,73,-68,-31,-8,-112
-17,-158,-140,88,61,-149,107,63,-65,-21,1,-106
-15,-167,-153,91,69,-160,103,51,-68,-18,-1,-100
-33,-202,-169,118,68,-185,101,36,-73,-14,1,-100
-24,-206,-182,115,79,-194,99,26,-76,-11,0,-100
-25,-203,-179,114,77,-190,101,19,-81,-6,0,-100
-29,-200,-171,115,71,-185,99,12,-84,-6,3,-101
-38,-200,-162,119,62,-181,100,6,-90,-10,6,-98
-39,-226,-187,133,74,-206,113,-1,-92,-12,9,-109
-26,-228,-202,127,88,-215,115,-4,-89,-15,11,-115
-32,-220,-188,126,79,-204,109,1,-86,-18,15,-108
-31,-216,-186,124,78,-201,107,4,-83,-21,15,-105
-33,-209,-176,121,72,-193,102,7,-80,-16,15,-100
-33,-205,-172,119,69,-188,99,12,-79,-10,16,-95
-35,-200,-166,118,66,-183,96,14,-70,-5,14,-91
-34,-198,-165,117,66,-181,93,20,-60,1,36,-84
-30,-195,-165,113,68,-180,90,30,-51,6,54,-77
-32,-192,-160,113,64,-176,87,30,-45,11,54,-71
-29,-189,-160,109,66,-175,85,30,-40,19,59,-63
-34,-192,-158,113,62,-175,83,30,-35,27,59,-63
-25,-195,-170,111,73,-183,79,30,-28,30,71,-71
-20,-195,-175,107,78,-185,77,30,-26,30,76,-70
-30,-195,-165,113,68,-180,74,27,-30,30,74,-70
-30,-195,-165,113,68,-180,71,21,-30,30,92,-70
-38,-195,-157,116,60,-175,69,16,-30,30,96,-70
-31,-188,-157,110,63,-173,65,12,-30,30,91,-68
-11,-181,-169,96,79,-175,65,7,-31,29,89,-64
-7,-172,-165,89,79,-168,57,6,-25,30,85,-60
-8,-164,-157,86,75,-160,69,11,-15,30,85,-57
-6,-157,-152,82,73,-154,78,17,-5,30,89,-52
-9,-151,-143,80,67,-147,83,20,4,31,95,-49
-10,-150,-141,80,66,-145,100,26,-2,25,94,-51
9,-142,-151,66,80,-146,115,28,4,28,97,-48
27,-168,-195,71,111,-181,146,43,-5,22,92,-52
69,-160,-229,46,150,-194,117,54,5,29,98,-48
76,-163,-239,44,157,-201,53,36,-4,22,92,-51
54,-156,-210,51,133,-183,1,31,-3,25,96,-52
48,-148,-195,50,122,-171,-15,13,-8,22,92,-54
34,-161,-196,64,115,-178,-22,6,-28,8,76,-60
-1,-129,-129,65,64,-129,3,-23,-5,27,92,-49
-31,-181,-149,106,59,-165,8,-52,-59,-14,52,-74
-32,-109,-78,71,23,-93,19,-43,2,35,95,-42
-66,-197,-131,132,33,-164,33,-63,-90,-47,23,-84
-23,-147,-124,86,51,-135,59,58,12,-21,51,-77
-38,-267,-229,153,96,-248,398,398,86,-70,-13,-186
557,500,-57,-528,306,222,-29,861,790,660,578,327
1137,1851,714,-1494,211,1283,-846,294,1519,1789,1668,1310
523,708,184,-615,169,446,-907,-1032,-128,760,943,830
124,-145,-269,10,197,-207,-825,-1028,-844,-96,167,214
60,18,-42,-39,51,-12,-362,-317,-182,29,156,103
-56,-191,-136,124,40,-163,2,-66,-140,-90,8,-69
-36,-84,-47,60,6,-65,-5,-21,-14,7,78,-13
-83,-147,-65,115,-9,-106,42,-19,-62,-41,33,-61
-73,-107,-34,90,-19,-70,32,-12,-40,-20,48,-50
-66,-111,-44,89,-11,-77,52,-16,-42,-26,42,-55
-52,-113,-61,83,5,-87,41,-9,-53,-38,30,-58
-62,-98,-36,80,-13,-67,47,-10,-35,-21,37,-60
-73,-123,-50,99,-12,-86,53,-8,-58,-44,18,-83
-79,-107,-28,94,-25,-67,57,-4,-42,-32,25,-66
-92,-127,-35,110,-29,-81,72,-6,-55,-47,9,-74
-93,-115,-23,104,-35,-69,76,-4,-47,-42,12,-64
-100,-122,-22,111,-39,-72,93,-5,-51,-49,-1,-66
-100,-119,-19,110,-41,-69,96,-5,-51,-54,-5,-69
-106,-120,-13,114,-46,-66,106,-10,-54,-59,-13,-76
-105,-117,-12,111,-46,-64,121,-10,-60,-63,-21,-81
-103,-109,-5,106,-49,-57,137,-10,-69,-66,-27,-79
-111,-107,4,109,-57,-51,152,-10,-76,-71,-35,-83
-117,-99,18,108,-67,-40,166,-9,-86,-81,-36,-85
-124,-94,30,108,-76,-32,174,-12,-91,-90,-40,-85
-144,-89,56,116,-100,-16,167,-18,-103,-85,-39,-80
-164,-73,91,119,-127,9,164,-22,-121,-81,-31,-71
-144,-53,91,98,-117,19,160,-26,-117,-76,-24,-62
-108,-27,81,67,-94,27,132,-31,-114,-72,-14,-54
-90,-17,72,53,-81,27,89,-36,-115,-64,-9,-38
-76,-12,64,44,-70,26,51,-39,-115,-38,7,-21
-51,-6,46,28,-48,20,31,-40,-115,-24,26,-20
-21,-15,6,18,-13,-5,24,-43,-115,-26,25,-20
-20,-31,-11,25,-4,-20,15,-46,-115,-23,25,-15
-36,-56,-20,46,-8,-38,5,-46,-115,-20,23,-15
-31,-61,-30,47,-1,-45,-3,-60,-115,-20,19,-14
-22,-60,-38,42,8,-49,-5,-71,-113,-23,21,-10
-17,-68,-51,42,17,-59,-5,-77,-130,-25,16,-10
-22,-70,-48,46,13,-59,-9,-85,-144,-25,11,-8
-32,-76,-44,54,7,-60,-10,-85,-148,-24,6,-4
-31,-72,-41,51,5,-56,-10,-85,-155,-34,3,-5
-32,-68,-36,51,2,-52,-15,-85,-163,-41,-3,-5
-31,-65,-34,48,2,-49,-15,-85,-164,-35,-4,-5
-31,-60,-30,45,0,-45,-16,-84,-156,-33,0,-5
-28,-58,-30,43,1,-44,-20,-77,-154,-28,0,-5
-21,-51,-30,36,5,-40,-20,-73,-148,-25,0,-5
-14,-44,-30,29,8,-37,-22,-67,-145,-22,0,-4
-7,-38,-30,22,12,-34,-29,-61,-150,-19,0,0
-4,-31,-26,18,11,-28,-35,-56,-150,-20,-4,0
-4,-25,-21,14,9,-23,-35,-58,-153,-20,-5,2
-4,-20,-16,12,6,-18,-36,-61,-155,-19,-5,5
-4,-17,-12,11,4,-14,-34,-59,-156,-22,-10,5
-6,-13,-8,10,2,-10,-40,-61,-164,-24,-10,1
-6,-10,-3,9,-2,-6,-55,-58,-175,-28,-11,0
-6,-6,0,5,-3,-2,-55,-69,-178,-29,-17,0
-10,-3,7,6,-9,2,-55,-82,-183,-32,-23,-4
-5,4,9,1,-8,6,-56,-79,-188,-40,-27,-5
-8,9,16,-1,-12,12,-55,-83,-186,-41,-34,-4
-5,13,18,-4,-12,15,-53,-86,-186,-40,-39,0
-6,21,27,-8,-17,23,-41,-84,-183,-36,-37,0
-47,24,71,11,-59,47,-33,-81,-196,-34,-34,2
-39,37,76,1,-58,56,-22,-73,-205,-37,-32,5
-11,52,63,-21,-37,57,-8,-68,-195,-39,-27,5
-8,48,57,-20,-33,52,9,-61,-194,-41,-26,8
30,64,34,-47,-2,48,27,-53,-184,-40,-24,15
54,56,2,-55,26,29,30,-51,-182,-47,-34,6
65,57,-7,-61,36,25,11,-48,-185,-43,-38,1
69,54,-15,-61,41,20,-66,-63,-210,-48,-45,-5
74,45,-29,-59,52,8,-128,-72,-220,-53,-55,-15
86,60,-26,-72,56,16,-101,-67,-209,-44,-54,-14
51,25,-25,-38,38,0,-102,-65,-235,-59,-80,-28
4,59,55,-32,-26,57,-86,-87,-204,-50,-63,-10
-40,0,41,20,-41,20,-76,-126,-258,-103,-90,-32
-36,54,90,-9,-63,72,-76,-105,-198,-65,-59,-8
-66,-13,53,39,-60,20,-51,-119,-252,-102,-89,-29
-60,18,78,21,-70,48,-80,-34,-190,-78,-98,-32
-87,-2,85,44,-86,42,262,269,-97,-108,-159,-116
365,385,20,-375,172,203,64,769,315,308,197,172
1190,1838,647,-1514,271,1242,-889,607,1295,1544,1348,1199
826,1226,400,-1026,213,812,-1261,-751,149,1022,1064,1065
257,111,-146,-184,201,-18,-1171,-1195,-967,-51,163,357
179,246,67,-212,56,156,-588,-474,-402,-19,79,202
-27,37,63,-5,-45,50,-87,-163,-315,-114,-87,-1
-30,94,124,-32,-77,109,-75,-100,-223,-78,-91,-4
-43,65,108,-11,-76,87,-30,-84,-220,-93,-113,-29
-53,51,104,1,-79,77,-39,-84,-226,-109,-123,-38
-53,67,120,-7,-86,93,-26,-75,-194,-94,-117,-30
-70,29,99,20,-84,64,-19,-78,-218,-119,-147,-50
-68,56,124,6,-96,89,-17,-67,-182,-100,-123,-37
-99,24,123,37,-111,73,3,-70,-209,-122,-137,-52
-92,42,134,25,-114,88,11,-63,-193,-110,-122,-45
-105,25,129,40,-117,77,27,-63,-203,-118,-126,-53
-115,27,142,44,-129,84,29,-59,-199,-114,-129,-52
-112,27,139,43,-126,83,40,-56,-199,-115,-135,-56
-111,30,140,40,-125,85,51,-55,-203,-127,-142,-54
-109,31,139,39,-124,85,56,-50,-204,-128,-142,-56
-109,32,141,38,-125,86,68,-47,-206,-136,-151,-69
-103,36,140,33,-122,88,91,-43,-204,-149,-164,-70
-127,33,161,47,-144,97,111,-40,-206,-152,-166,-70
-143,36,179,54,-162,107,132,-35,-205,-155,-165,-70
-153,33,185,60,-170,109,152,-37,-205,-153,-165,-70
-173,46,219,63,-196,132,158,-47,-205,-147,-165,-69
-162,71,233,45,-198,152,152,-53,-205,-143,-163,-60
-177,79,256,49,-217,167,138,-55,-205,-139,-152,-50
-166,96,262,35,-214,179,111,-55,-205,-133,-143,-41
-112,133,245,-11,-179,188,70,-55,-204,-130,-132,-27
-86,142,228,-28,-158,185,26,-55,-197,-118,-125,-7
-64,128,191,-32,-128,159,-9,-55,-191,-98,-122,1
-41,117,157,-38,-99,137,-30,-60,-184,-93,-118,4
-17,100,117,-42,-67,108,-39,-60,-177,-90,-114,8
-12,84,96,-36,-54,90,-46,-61,-171,-87,-111,11
-11,72,83,-31,-47,77,-50,-78,-166,-82,-107,15
-22,63,85,-21,-54,74,-50,-86,-165,-80,-104,11
-38,55,93,-9,-66,74,-50,-84,-165,-85,-105,10
-12,44,56,-16,-34,50,-50,-85,-160,-85,-105,10
-2,42,44,-21,-23,43,-50,-85,-160,-85,-105,10
2,45,43,-24,-21,44,-46,-85,-159,-85,-105,10
-14,46,60,-17,-37,53,-45,-85,-152,-85,-100,11
-39,50,89,-6,-64,69,-45,-82,-146,-83,-100,15
-32,51,83,-10,-57,66,-40,-76,-139,-78,-99,15
-29,53,83,-12,-56,68,-40,-72,-133,-75,-95,17
-19,60,78,-20,-49,69,-40,-67,-125,-72,-95,21
-18,66,84,-25,-51,75,-40,-63,-115,-67,-95,19
-24,77,101,-26,-63,88,-40,-58,-105,-64,-95,27
-24,75,99,-26,-62,87,-40,-55,-94,-61,-95,37
-24,72,96,-24,-60,84,-39,-55,-90,-60,-95,33
-5,88,93,-42,-49,90,-47,-53,-88,-60,-95,30
-3,87,90,-42,-47,88,-56,-49,-85,-60,-95,28
-8,81,89,-36,-49,84,-55,-50,-81,-60,-95,24
-8,76,84,-35,-46,80,-55,-53,-80,-57,-95,28
-9,70,78,-31,-44,74,-55,-55,-76,-54,-95,30
-10,65,75,-28,-43,70,-55,-55,-69,-55,-95,30
-9,61,70,-26,-39,65,-52,-55,-65,-51,-95,34
-7,58,65,-26,-36,62,-46,-55,-59,-50,-93,35
-13,55,68,-21,-41,61,-42,-54,-54,-50,-87,35
-20,52,73,-16,-47,62,-37,-49,-50,-46,-83,39
-26,48,74,-11,-50,61,-32,-45,-40,-40,-78,40
-6,61,68,-28,-37,64,-28,-43,-30,-36,-74,40
15,75,60,-46,-23,68,-13,-38,-20,-32,-69,40
27,82,55,-55,-14,68,1,-36,-10,-25,-65,42
37,83,46,-60,-5,64,15,-24,-7,-29,-66,59
41,74,34,-58,3,54,21,4,4,-28,-61,68
66,55,-12,-60,39,21,20,19,0,-35,-63,59
82,58,-24,-70,53,17,-20,-4,18,-31,-54,63
69,40,-29,-54,49,5,-96,-32,7,-40,-73,53
64,51,-13,-57,38,19,-109,-28,16,-36,-77,57
44,37,-7,-40,26,15,-85,-31,7,-42,-84,54
41,34,-7,-38,24,13,-98,-31,7,-44,-87,63
2,44,42,-24,-20,43,-69,-66,21,-48,-82,66
-37,4,42,16,-40,23,-84,-81,-13,-77,-103,40
-46,54,100,-4,-73,76,-53,-52,50,-38,-70,65
-50,-36,14,43,-33,-11,-69,-82,-26,-99,-116,10
-19,45,64,-14,-41,55,23,85,110,-46,-84,14
-9,-34,-26,21,9,-30,350,486,177,-85,-150,-67
732,907,175,-820,278,541,-275,914,976,780,614,586
1249,1876,627,-1563,311,1251,-1111,259,1371,1631,1468,1387
594,633,38,-613,278,335,-1279,-1077,-229,525,658,809
247,116,-131,-181,189,-8,-1025,-927,-510,-40,116,349
115,180,65,-148,25,122,-319,-213,18,49,47,198
-43,-20,23,31,-33,2,-61,-61,12,-77,-99,36
-42,75,117,-17,-79,96,-58,-30,102,-15,-54,67
-75,-8,67,41,-71,29,-6,-38,52,-77,-118,18
-49,38,87,5,-68,62,-24,-15,123,-38,-95,42
-63,4,68,29,-66,36,10,-16,98,-50,-109,22
-52,8,60,22,-56,34,3,-8,104,-43,-105,24
-55,7,62,24,-58,34,24,-3,113,-31,-103,20
-80,-8,72,44,-76,31,28,-2,117,-48,-109,12
-83,2,85,40,-84,43,37,7,132,-64,-101,16
-84,-15,69,49,-77,27,52,3,118,-81,-107,7
-84,-8,76,46,-79,33,58,6,130,-71,-107,9
-83,-18,65,50,-73,23,61,4,122,-81,-122,3
-88,-22,66,54,-76,22,73,6,127,-79,-119,2
-94,-24,70,59,-82,23,90,5,124,-81,-124,-1
-87,-17,70,52,-78,27,95,6,125,-85,-125,0
-107,-14,92,60,-99,39,125,19,125,-89,-126,-5
-117,-9,108,63,-113,50,138,22,124,-93,-134,-6
-123,-6,117,64,-120,56,145,17,125,-97,-137,-4
-150,-12,138,80,-144,63,161,15,129,-100,-133,2
-153,-7,146,80,-149,69,154,10,131,-96,-131,7
-160,12,171,74,-166,91,141,7,129,-93,-127,13
-146,36,181,55,-164,108,131,3,130,-89,-125,19
-112,58,169,27,-141,113,110,0,129,-86,-121,24
-92,77,169,8,-131,123,70,-2,131,-82,-103,41
-76,74,149,1,-113,111,36,-5,137,-72,-95,47
-50,61,111,-6,-81,85,14,-9,145,-63,-94,44
-26,43,69,-9,-48,56,1,-10,148,-52,-90,42
-29,13,42,8,-36,27,-10,-14,145,-45,-88,39
-26,-1,26,13,-26,12,-24,-20,145,-45,-85,41
-19,-9,10,14,-14,1,-26,-25,145,-45,-83,44
-18,-17,1,18,-9,-8,-20,-31,145,-45,-79,45
-20,-27,-7,24,-7,-17,-15,-37,145,-46,-80,46
-24,-39,-15,32,-4,-27,-10,-39,148,-42,-80,50
-17,-40,-23,29,3,-31,-3,-34,151,-40,-80,50
-18,-40,-22,29,2,-31,-1,-29,154,-40,-80,52
-17,-36,-20,27,2,-28,-5,-25,156,-36,-75,56
-15,-35,-20,25,3,-27,-5,-20,162,-35,-75,54
-19,-35,-15,27,-2,-25,-5,-16,170,-35,-74,55
-15,-31,-15,24,0,-23,-5,-10,179,-30,-70,55
-14,-28,-14,22,0,-20,-5,-1,185,-25,-70,56
-16,-26,-10,21,-2,-17,-8,8,195,-21,-67,59
-12,-22,-10,17,-1,-16,-11,15,209,-16,-64,60
-10,-20,-10,15,0,-15,-14,27,210,-12,-65,60
-11,-20,-9,15,-1,-14,-17,29,210,-7,-65,60
-3,-21,-17,12,7,-19,-19,22,210,-5,-65,60
10,-19,-29,5,20,-24,-22,17,210,-5,-65,57
9,-21,-30,6,20,-26,-25,11,210,-1,-65,55
-3,-33,-30,18,14,-31,-25,6,210,1,-65,55
-6,-36,-30,21,13,-33,-25,1,210,0,-64,52
-4,-34,-30,19,13,-32,-25,-1,210,0,-68,49
-6,-35,-29,21,12,-32,-25,0,210,0,-75,51
-11,-35,-24,23,7,-29,-21,0,210,0,-75,54
-16,-34,-18,25,2,-26,-20,0,213,0,-75,55
-12,-28,-15,20,2,-21,-20,1,217,0,-75,56
-14,-23,-9,19,-2,-16,-15,4,221,2,-76,60
-11,-18,-7,15,-2,-13,-15,8,225,5,-73,59
-14,-11,3,12,-8,-3,-13,10,230,9,-68,58
-18,-7,11,12,-14,2,8,15,232,10,-65,54
-8,0,8,4,-8,3,31,14,242,15,-61,55
3,0,-2,-1,2,-1,52,27,245,15,-57,67
11,4,-7,-7,8,-1,73,48,244,21,-56,69
31,6,-25,-18,28,-9,68,53,247,25,-58,62
73,-27,-100,-22,87,-64,58,75,240,16,-63,57
71,-41,-112,-15,91,-76,10,46,252,26,-57,57
50,-60,-110,5,80,-85,-73,23,231,12,-71,45
54,-39,-93,-8,74,-66,-77,58,249,29,-59,50
38,-61,-99,12,68,-80,-56,32,222,11,-70,33
31,-42,-73,5,52,-58,-62,28,240,21,-79,38
-17,-51,-34,34,9,-42,-33,-15,223,7,-105,26
-17,-55,-38,36,11,-47,-59,-21,215,-3,-103,20
-24,-16,8,20,-16,-4,-21,-15,237,16,-88,27
-27,-91,-63,59,18,-77,-65,-21,150,-48,-125,-3
-23,-49,-26,36,2,-37,149,229,327,-13,-123,-28
93,-63,-156,-15,124,-110,345,640,442,25,-124,-55
955,1211,255,-1083,350,733,-434,893,1409,1170,911,838
1136,1702,566,-1420,285,1134,-995,-127,1259,1582,1415,1355
377,278,-100,-327,238,89,-1072,-1242,-410,258,396,599
159,60,-99,-109,129,-20,-793,-709,-224,-6,53,279
10,9,0,-9,5,5,-174,-85,187,33,-37,108
-46,-94,-48,70,2,-71,-45,29,195,-46,-125,-2
-22,0,22,12,-22,11,-8,70,281,22,-86,19
-80,-97,-18,88,-31,-57,13,57,220,-39,-131,-26
-65,-38,26,51,-45,-6,5,72,292,4,-96,4
-91,-83,8,86,-49,-37,31,60,246,-28,-127,-24
-84,-55,29,70,-56,-13,22,68,270,-11,-108,-13
-98,-68,30,83,-64,-19,46,70,254,-25,-121,-24
-101,-67,34,83,-67,-16,45,76,254,-27,-121,-26
-92,-54,38,73,-64,-8,70,90,256,-30,-118,-23
-111,-65,46,88,-78,-9,76,99,244,-39,-128,-32
-125,-72,53,99,-89,-10,78,102,249,-32,-122,-42
-130,-82,48,106,-88,-17,80,98,238,-38,-129,-47
-141,-89,52,115,-96,-18,97,102,239,-31,-133,-44
-147,-98,49,123,-97,-24,129,114,233,-47,-136,-46
-144,-93,51,119,-97,-21,132,116,230,-61,-134,-46
-130,-93,37,111,-83,-28,136,114,223,-66,-138,-54
-140,-89,51,115,-96,-19,147,111,218,-69,-146,-56
-150,-91,59,121,-105,-16,151,110,213,-64,-145,-55
-157,-78,79,117,-118,1,145,110,207,-62,-145,-55
-182,-57,125,119,-153,33,137,102,207,-59,-145,-55
-164,-38,126,101,-144,43,131,98,210,-56,-145,-56
-141,-18,123,79,-132,52,123,92,210,-55,-142,-48
-128,2,130,62,-129,66,90,86,213,-48,-122,-33
-88,23,112,32,-100,67,59,81,216,-37,-108,-20
-51,19,71,16,-61,45,50,76,214,-27,-103,-15
-38,2,40,18,-39,21,42,69,211,-15,-95,-13
-23,-17,6,20,-14,-6,32,62,208,-2,-90,-10
-15,-48,-33,32,10,-40,26,56,205,5,-82,-7
-29,-75,-47,52,9,-61,30,49,202,5,-82,-4
-31,-80,-49,56,9,-64,30,44,200,3,-85,-10
-26,-81,-55,54,15,-68,30,38,197,-2,-85,-18
-42,-99,-57,71,8,-78,30,31,195,-8,-85,-24
-48,-101,-53,75,3,-77,30,24,191,-11,-85,-32
-40,-96,-57,68,9,-76,34,18,189,-17,-84,-40
-45,-93,-48,69,2,-71,35,10,185,-20,-80,-43
-37,-90,-52,63,7,-71,37,15,185,-16,-75,-40
-38,-85,-47,62,5,-66,41,23,190,-11,-70,-40
-42,-86,-44,64,1,-64,38,31,190,-9,-67,-38
-38,-98,-60,68,11,-79,34,39,194,-4,-61,-34
-43,-84,-40,64,-1,-62,28,46,195,-1,-62,-36
-31,-67,-36,49,3,-51,25,54,197,3,-65,-34
-38,-65,-27,52,-5,-46,20,54,204,7,-65,-36
-14,-57,-44,36,15,-50,15,71,199,12,-69,-45
17,-54,-71,19,44,-62,19,87,193,15,-71,-45
12,-46,-58,17,35,-51,20,78,189,10,-69,-40
8,-51,-59,22,34,-55,20,73,182,5,-66,-39
-25,-78,-53,52,14,-65,25,66,178,2,-65,-34
-30,-80,-50,55,10,-65,25,59,176,-4,-65,-39
-30,-77,-47,54,9,-62,26,54,193,-3,-65,-46
-30,-74,-44,52,7,-58,30,49,206,1,-65,-40
-25,-71,-46,48,11,-58,30,46,204,3,-63,-35
-26,-70,-44,48,9,-56,32,42,205,6,-58,-32
-15,-60,-45,38,16,-52,37,39,204,8,-53,-27
-29,-81,-53,55,12,-67,33,35,206,11,-49,-23
-43,-93,-50,68,4,-72,44,39,205,13,-44,-17
-58,-88,-30,74,-14,-59,63,40,205,18,-40,-13
-65,-90,-25,78,-20,-57,76,42,204,20,-35,-8
-51,-92,-41,72,-5,-66,101,70,209,24,-36,-5
-16,-85,-69,51,27,-77,107,91,228,39,-33,2
29,-103,-132,37,81,-117,100,94,207,26,-37,-7
49,-102,-151,27,101,-126,70,89,208,29,-33,-8
48,-105,-154,29,101,-130,26,65,188,18,-34,-16
51,-99,-151,24,101,-125,-8,61,183,17,-30,-19
46,-92,-138,23,93,-115,-4,48,178,16,-24,-20
30,-106,-137,38,84,-121,-23,45,154,0,-32,-36
-5,-74,-69,40,32,-71,3,39,176,20,-43,-30
-43,-125,-82,84,20,-103,16,29,119,-21,-86,-56
-44,-56,-12,50,-16,-34,22,43,187,27,-38,-20
-60,-140,-80,100,10,-110,18,8,89,-41,-86,-63
-46,-100,-54,73,5,-77,58,137,205,-6,-63,-72
-84,-233,-149,159,33,-191,457,496,269,-94,-167,-197
534,500,-34,-517,284,233,18,930,949,635,463,326
1128,1904,775,-1516,176,1339,-752,294,1690,1829,1611,1357
461,745,284,-603,88,514,-747,-1084,-3,721,836,830
28,-204,-232,88,130,-218,-723,-1010,-713,-200,14,164
-3,12,15,-4,-9,14,-299,-240,9,24,66,103
-90,-151,-62,121,-14,-106,54,2,71,-79,-71,-68
-33,-25,8,29,-20,-8,40,45,198,-8,-12,-30
-80,-100,-20,90,-29,-59,92,44,146,-50,-46,-68
-77,-81,-4,79,-36,-42,77,67,172,-37,-32,-50
-99,-92,7,95,-53,-42,103,69,167,-37,-32,-55
-107,-112,-5,109,-51,-58,92,70,157,-47,-41,-72
-93,-83,9,88,-51,-37,94,71,175,-32,-31,-66
-96,-107,-11,101,-42,-58,108,69,151,-47,-49,-75
-82,-81,1,82,-42,-39,106,72,162,-36,-42,-67
-83,-96,-13,90,-35,-54,135,74,141,-67,-68,-96
-91,-99,-8,95,-42,-53,152,79,145,-64,-63,-93
-106,-113,-8,110,-49,-60,148,82,132,-65,-65,-98
-108,-109,-1,109,-54,-55,159,85,129,-67,-66,-100
-113,-109,4,110,-58,-52,171,85,123,-72,-63,-101
-129,-122,7,125,-67,-57,174,88,117,-83,-68,-122
-136,-122,14,129,-75,-54,185,90,113,-88,-68,-126
-127,-114,13,120,-70,-50,198,89,105,-101,-81,-125
-139,-108,31,123,-84,-39,209,85,101,-115,-92,-126
-148,-101,48,124,-98,-26,206,78,96,-115,-86,-125
-156,-91,65,123,-111,-13,197,71,90,-116,-84,-124
-161,-78,83,120,-122,2,192,64,85,-130,-79,-118
-158,-67,92,112,-125,12,182,58,80,-129,-76,-112
-140,-48,92,93,-116,22,152,52,73,-115,-71,-107
-107,-29,78,68,-92,24,116,44,71,-100,-55,-93
-86,-18,68,52,-76,25,90,36,77,-73,-29,-69
-60,-7,54,33,-57,23,84,28,77,-60,-6,-64
-63,-33,30,48,-46,-2,86,21,73,-59,-5,-65
-71,-72,0,72,-35,-36,84,9,71,-55,-5,-64
-58,-75,-17,67,-20,-46,85,-8,68,-53,-5,-66
-60,-81,-21,71,-20,-51,85,-23,65,-49,-5,-64
-68,-95,-27,82,-20,-61,85,-32,64,-53,-5,-79
-68,-101,-33,85,-17,-67,85,-39,59,-56,-10,-86
-67,-99,-33,83,-17,-66,85,-48,55,-54,-10,-84
-71,-100,-30,85,-21,-65,85,-55,53,-63,-11,-89
-70,-100,-30,85,-20,-65,85,-63,48,-70,-15,-90
-73,-100,-27,87,-23,-63,84,-62,45,-70,-15,-90
-83,-107,-24,95,-29,-65,80,-54,45,-70,-13,-85
-80,-106,-26,93,-27,-66,78,-48,45,-70,-7,-85
-81,-105,-24,93,-28,-65,75,-41,44,-70,-2,-84
-78,-104,-26,92,-26,-65,72,-35,47,-68,1,-79
-75,-99,-25,88,-25,-61,69,-30,56,-61,6,-80
-76,-100,-25,89,-26,-62,67,-25,63,-56,10,-78
-67,-98,-31,83,-18,-64,64,-21,65,-51,15,-73
-62,-94,-32,78,-14,-63,61,-16,65,-45,22,-70
-72,-96,-24,84,-23,-60,58,-11,65,-40,27,-67
-79,-94,-16,87,-31,-55,56,-12,66,-40,34,-62
-58,-96,-38,77,-9,-67,53,-18,64,-40,33,-59
-42,-94,-52,68,5,-73,50,-22,61,-40,29,-56
-54,-97,-43,76,-5,-70,50,-26,58,-40,31,-55
-71,-110,-39,90,-16,-74,48,-31,55,-40,26,-55
-70,-107,-37,89,-16,-72,44,-35,52,-38,26,-55
-74,-101,-27,88,-23,-64,45,-41,49,-35,23,-56
-67,-99,-32,83,-18,-65,49,-43,52,-32,36,-53
-38,-91,-53,65,8,-72,50,-37,56,-29,52,-46
-34,-91,-57,63,11,-73,74,-33,58,-26,48,-41
-35,-89,-55,62,10,-72,82,-28,61,-24,54,-36
-29,-90,-61,60,16,-75,93,-24,63,-26,55,-30
-29,-91,-62,60,16,-76,127,-18,67,-25,55,-26
-32,-87,-54,60,11,-71,143,-16,55,-24,56,-29
-2,-99,-97,50,48,-98,140,-13,40,-28,53,-32
19,-97,-116,39,68,-106,81,-9,37,-20,58,-28
4,-111,-115,54,59,-113,7,-14,23,-31,54,-39
11,-82,-93,36,52,-87,-28,-24,53,-17,79,-31
-7,-102,-95,55,44,-98,-28,-40,7,-32,56,-35
-22,-73,-52,48,15,-62,-19,-47,20,-22,68,-26
-59,-83,-24,71,-17,-53,5,-92,-2,-50,52,-50
-67,-82,-15,74,-25,-48,-3,-75,-2,-47,50,-46
-87,-46,41,66,-64,-2,32,-82,16,-32,57,-36
-71,-121,-50,96,-11,-85,-23,-71,-50,-71,17,-66
-70,-83,-13,76,-28,-48,200,146,109,-41,25,-83
58,-105,-163,24,110,-134,386,597,237,10,31,-103
901,1268,367,-1085,267,818,-428,803,1305,1243,1127,845
989,1696,706,-1343,141,1201,-954,-301,1063,1579,1578,1322
243,152,-90,-198,166,31,-939,-1266,-694,172,472,497
90,-6,-96,-41,93,-51,-709,-742,-496,-74,163,219
-30,-34,-3,32,-13,-18,-144,-177,-93,-24,108,68
-94,-127,-33,111,-30,-80,-12,-74,-76,-84,46,-28
-87,-35,52,61,-69,8,8,-55,18,-18,86,13
-112,-118,-6,115,-53,-62,46,-41,-45,-71,28,-35
-91,-52,39,71,-65,-6,32,-32,13,-20,61,-5
-127,-119,8,123,-67,-55,54,-33,-25,-54,29,-38
-114,-88,26,101,-70,-31,42,-24,5,-32,45,-22
-126,-105,21,115,-73,-42,58,-23,-10,-43,30,-27
-127,-105,22,116,-74,-41,59,-16,-11,-40,30,-25
-117,-101,15,109,-65,-43,78,-15,-14,-37,29,-23
-112,-110,2,111,-56,-54,80,-12,-24,-43,19,-28
-106,-109,-2,107,-51,-55,92,-9,-21,-36,22,-22
-109,-119,-11,114,-48,-65,111,-6,-32,-45,13,-32
-113,-112,1,113,-57,-55,118,-5,-32,-48,13,-42
-115,-113,2,114,-58,-55,139,-10,-38,-54,8,-46
-121,-109,12,115,-67,-48,146,-10,-44,-58,1,-44
-122,-110,12,116,-67,-49,167,-12,-60,-68,-6,-46
-132,-104,28,117,-79,-38,181,-15,-63,-74,-14,-44
-153,-92,61,122,-106,-15,187,-14,-69,-86,-21,-40
-160,-83,77,122,-118,-3,204,-17,-81,-89,-28,-35
-166,-71,95,118,-130,12,200,-20,-85,-82,-26,-33
-159,-54,105,106,-132,25,191,-30,-97,-78,-15,-28
-136,-32,104,83,-120,36,172,-37,-100,-71,-8,-26
-105,-7,99,56,-102,46,136,-39,-95,-67,3,-14
-85,8,93,38,-89,51,95,-41,-93,-54,22,20
-60,22,83,19,-72,52,67,-39,-88,-32,43,31
-42,4,46,19,-44,25,52,-40,-85,-22,53,30
-33,-30,3,31,-18,-13,37,-39,-81,-18,50,29
-30,-52,-22,41,-4,-37,34,-43,-80,-12,50,25
-33,-76,-43,55,5,-60,30,-52,-79,-6,48,25
-26,-82,-56,55,15,-68,27,-59,-85,-1,44,27
-34,-89,-55,62,11,-72,22,-71,-100,-3,46,30
-42,-97,-55,70,7,-76,20,-79,-114,-8,41,30
-46,-98,-52,73,3,-75,25,-75,-127,-11,40,34
-38,-105,-66,71,14,-85,25,-75,-128,-14,40,35
-29,-101,-72,65,22,-86,26,-74,-132,-19,40,35
-38,-100,-62,69,12,-81,30,-69,-139,-19,40,39
-27,-99,-72,64,23,-85,30,-71,-132,-10,40,42
-10,-96,-86,53,39,-91,27,-67,-124,0,40,45
-11,-94,-84,53,37,-89,24,-59,-116,10,39,47
-17,-97,-80,57,32,-88,25,-51,-109,19,48,52
-22,-100,-78,61,28,-89,25,-43,-104,22,55,55
-26,-100,-74,64,24,-86,25,-36,-101,27,60,60
-20,-100,-80,60,30,-89,24,-30,-98,38,66,63
-2,-100,-98,51,48,-99,21,-30,-93,41,65,68
6,-100,-106,48,56,-103,18,-29,-90,40,65,70
3,-96,-99,47,51,-97,16,-25,-93,37,65,70
2,-95,-97,47,50,-96,12,-25,-95,35,65,74
-2,-94,-92,49,45,-93,10,-27,-94,35,61,75
-3,-91,-88,47,43,-89,7,-32,-95,30,59,75
15,-89,-104,37,59,-96,5,-35,-94,30,60,75
18,-91,-108,37,63,-99,5,-35,-98,29,60,75
1,-99,-100,49,51,-100,5,-35,-106,25,60,75
-2,-98,-96,50,47,-97,5,-35,-103,25,61,75
-4,-94,-90,49,43,-91,5,-35,-101,27,65,74
-6,-92,-86,49,40,-88,13,-36,-98,30,64,77
-1,-86,-85,44,42,-85,20,-32,-93,30,65,82
1,-84,-85,42,44,-85,30,-23,-102,30,64,85
5,-80,-85,38,45,-82,47,-14,-105,30,65,90
6,-79,-85,37,45,-81,64,-6,-100,37,68,94
10,-78,-88,34,49,-82,74,4,-99,45,76,95
42,-70,-112,14,77,-90,85,18,-91,47,83,96
67,-95,-163,14,115,-129,94,22,-94,43,74,92
70,-113,-183,22,127,-148,57,18,-88,55,79,99
66,-134,-200,35,134,-167,-8,6,-112,44,66,91
54,-115,-169,31,112,-142,-39,6,-97,54,75,99
25,-133,-159,54,92,-146,-35,-8,-112,37,62,87
27,-121,-148,47,88,-134,-40,-6,-102,40,63,88
-1,-121,-120,61,60,-120,-16,-31,-109,37,59,86
-15,-134,-119,75,52,-126,-32,-54,-128,17,44,71
-19,-83,-64,51,23,-74,4,-39,-77,47,65,92
-26,-159,-133,93,53,-146,-38,-39,-151,-26,15,41
1,-89,-90,44,46,-89,110,152,15,20,49,34
62,-155,-217,47,140,-186,376,572,92,19,4,-7
837,968,131,-902,352,549,-342,948,999,1016,886,773
1196,1708,513,-1452,341,1110,-1102,122,1173,1679,1592,1445
493,358,-135,-425,314,112,-1230,-1112,-505,470,676,769
210,-6,-216,-102,213,-111,-908,-796,-594,41,228,372
92,9,-83,-51,88,-37,-211,-167,-148,96,153,202
-18,-142,-124,80,53,-132,-2,-51,-164,-21,30,65
-7,-54,-47,30,20,-50,11,-1,-38,45,65,102
-49,-138,-90,94,21,-114,50,-8,-105,-18,8,52
-36,-82,-45,59,5,-63,35,11,-54,14,40,80
-54,-114,-60,84,4,-87,61,9,-83,-18,14,55
-50,-93,-43,72,-4,-68,52,21,-65,-13,22,61
-50,-95,-44,73,-2,-70,68,24,-70,-19,15,53
-52,-100,-47,76,-2,-73,69,25,-78,-23,9,48
-75,-112,-37,94,-19,-74,82,25,-70,-16,10,50
-88,-131,-44,109,-21,-87,93,30,-80,-24,1,42
-84,-120,-36,102,-24,-77,97,51,-71,-16,3,44
-91,-128,-37,110,-26,-83,114,49,-77,-26,-6,38
-95,-126,-31,111,-32,-78,127,50,-76,-30,-5,38
-103,-134,-31,119,-36,-82,138,50,-81,-38,-12,33
-108,-133,-26,121,-41,-79,151,50,-80,-45,-16,31
-116,-141,-26,129,-45,-83,171,48,-84,-44,-20,28
-129,-142,-12,136,-58,-76,193,40,-86,-49,-26,24
-154,-131,23,143,-88,-54,212,37,-85,-61,-30,26
-159,-127,32,143,-95,-47,218,31,-90,-60,-26,30
-157,-113,44,134,-100,-34,212,25,-89,-57,-20,32
-162,-92,70,127,-116,-11,208,20,-92,-54,-15,35
-156,-73,83,114,-119,5,190,20,-99,-51,-9,35
-140,-68,72,104,-106,2,152,20,-95,-50,-4,34
-132,-71,61,101,-97,-5,115,20,-90,-40,1,53
-117,-69,48,92,-82,-10,78,29,-86,-24,6,76
-73,-71,2,72,-38,-34,52,27,-81,-13,11,80
-36,-68,-32,53,-2,-50,43,21,-76,-8,15,81
-13,-74,-61,44,24,-67,39,16,-77,-5,20,78
1,-92,-93,46,47,-92,35,10,-80,-2,25,75
1,-94,-95,47,48,-94,30,5,-81,3,21,75
-17,-112,-95,65,39,-103,25,0,-85,5,20,72
-27,-122,-95,75,34,-108,28,-5,-85,0,20,70
-25,-118,-94,72,35,-106,31,-10,-80,-3,16,67
-23,-133,-110,78,44,-121,30,-13,-80,-6,14,64
-19,-132,-113,76,47,-122,30,-19,-79,-10,17,61
-18,-123,-105,71,44,-114,30,-18,-75,-15,20,60
-17,-118,-101,68,43,-109,30,-11,-75,-13,23,65
-16,-110,-95,63,40,-102,30,-4,-73,-6,25,64
-15,-105,-90,60,38,-97,30,2,-66,1,28,69
-15,-100,-85,58,35,-92,30,10,-61,8,32,69
-10,-95,-86,53,38,-90,30,20,-56,14,34,74
-7,-90,-83,49,38,-86,30,20,-50,20,38,90
-7,-87,-80,47,37,-83,27,20,-45,21,40,90
-1,-80,-79,40,39,-79,22,20,-45,16,45,91
1,-84,-85,42,43,-85,19,20,-45,12,47,95
5,-95,-101,45,53,-97,15,19,-45,7,44,95
5,-95,-100,45,53,-97,12,14,-45,3,45,93
1,-95,-95,48,48,-95,8,9,-44,-2,40,89
-1,-95,-94,48,47,-94,5,4,-48,-5,40,87
-6,-95,-89,51,42,-92,5,0,-50,-5,39,84
-2,-93,-91,47,45,-91,6,-5,-50,-5,35,81
-5,-101,-96,53,46,-98,4,-9,-50,-5,36,80
-12,-105,-93,59,41,-99,6,-10,-50,-5,33,80
6,-99,-105,47,56,-102,7,-13,-50,-2,29,80
15,-98,-112,42,64,-105,12,-16,-45,2,30,80
7,-92,-99,43,53,-96,13,-14,-37,5,33,80
1,-89,-90,44,46,-89,19,-7,-30,10,36,80
-11,-91,-80,52,34,-85,42,-2,-25,13,38,79
-16,-88,-72,52,28,-80,54,7,-16,17,43,81
-27,-92,-65,60,19,-78,82,12,-14,14,43,79
-20,-89,-69,55,24,-78,92,20,-6,13,49,81
32,-89,-121,29,77,-105,98,44,-4,8,49,79
69,-102,-171,17,120,-136,82,40,-1,4,46,79
64,-108,-172,23,118,-140,-4,19,-3,4,43,78
58,-115,-173,28,116,-143,-61,11,-25,-8,32,69
54,-92,-147,19,101,-119,-46,9,-12,4,40,77
47,-119,-166,36,106,-142,-43,-7,-52,-21,17,58
31,-79,-110,24,71,-95,-39,-3,-22,4,36,77
-29,-135,-107,82,39,-121,-22,-23,-67,-29,6,50
-15,-95,-79,55,32,-87,-37,-19,-26,-3,32,72
-19,-103,-84,62,32,-93,-15,-26,-62,-14,13,52
-12,-135,-124,74,57,-130,-46,19,-53,-30,5,40
-46,-118,-72,82,13,-95,274,292,102,-32,-12,5
280,96,-184,-188,232,-44,217,775,369,213,172,143
1155,1508,353,-1332,400,930,-714,824,1375,1458,1311,1152
997,1300,303,-1148,347,801,-1183,-458,592,1273,1312,1252
334,42,-292,-188,313,-125,-1170,-1204,-715,103,368,525
201,104,-96,-152,148,4,-639,-501,-245,87,209,328
30,-62,-91,16,61,-76,-53,-76,-71,2,41,101
-14,-73,-59,43,23,-66,-5,-22,-30,-16,20,70
-39,-72,-33,56,-3,-53,32,-12,-15,0,17,55
-61,-118,-57,90,-1,-87,35,-10,-38,-37,-9,32
-51,-71,-20,61,-15,-46,50,9,4,-12,8,47
-76,-119,-43,98,-16,-81,54,2,-27,-47,-25,19
-69,-84,-15,77,-27,-49,44,15,8,-21,-9,31
-85,-111,-26,99,-30,-68,63,12,-15,-31,-27,11
-89,-98,-9,94,-40,-53,73,20,2,-33,-16,18
-99,-107,-8,104,-45,-57,87,21,-2,-53,-21,10
-110,-108,2,109,-56,-53,83,25,0,-50,-20,9
-116,-109,7,112,-62,-50,98,26,-1,-48,-18,7
-112,-109,3,110,-57,-53,119,24,-7,-56,-24,3
-110,-103,7,106,-58,-48,126,26,-3,-63,-28,2
-110,-107,4,108,-56,-52,135,24,-6,-72,-36,-4
-109,-100,9,104,-59,-46,150,25,-4,-77,-38,-6
-125,-100,24,113,-75,-38,162,25,-6,-84,-41,-10
-135,-100,34,117,-84,-33,174,25,-10,-87,-50,-16
-150,-91,59,120,-104,-16,191,26,-10,-88,-48,-11
-159,-78,81,119,-120,1,200,24,-11,-94,-59,-10
-155,-66,89,111,-122,11,188,20,-15,-99,-68,-20
-163,-51,112,107,-137,30,172,18,-15,-90,-56,-7
-151,-38,113,94,-132,37,153,15,-13,-82,-49,7
-117,-15,102,65,-109,44,122,12,-10,-74,-40,16
-69,24,93,22,-81,59,84,10,-7,-67,-32,23
-47,22,69,12,-58,45,53,6,-4,-62,-24,29
-43,-10,33,26,-38,11,46,-1,0,-56,-15,37
-39,-38,2,39,-20,-18,40,-7,0,-51,-10,38
-16,-49,-34,33,9,-41,32,-14,-5,-44,-10,33
7,-54,-61,24,35,-57,26,-21,-5,-41,-10,27
-17,-82,-65,50,24,-73,19,-26,-5,-44,-10,24
-18,-94,-75,56,29,-84,16,-33,-5,-45,-10,18
-11,-93,-82,52,36,-87,15,-32,-5,-45,-10,15
-13,-92,-79,52,33,-85,15,-29,-7,-45,-10,20
-12,-89,-77,51,33,-83,15,-30,-12,-45,-10,20
-17,-91,-74,54,29,-82,15,-30,-15,-43,-10,20
-14,-89,-75,52,30,-82,15,-30,-9,-39,-10,20
-20,-91,-70,55,25,-80,15,-29,-2,-37,-10,19
-21,-87,-66,55,23,-77,15,-24,4,-34,-9,23
-17,-81,-64,50,23,-72,15,-21,11,-31,-5,25
-17,-76,-59,47,21,-67,15,-18,17,-29,-5,25
-15,-71,-56,43,21,-63,15,-13,23,-26,-5,25
-12,-65,-52,39,20,-58,10,-10,25,-25,-5,25
-10,-60,-50,35,20,-55,6,-14,25,-25,-5,24
-5,-55,-50,30,23,-52,3,-15,25,-25,-1,21
-6,-55,-50,30,23,-52,-1,-15,25,-25,0,18
-3,-54,-51,29,24,-52,-4,-20,25,-27,0,16
0,-49,-49,25,24,-49,-7,-20,30,-30,5,12
-5,-51,-46,29,20,-48,-10,-19,30,-30,5,10
-3,-46,-44,25,21,-45,-13,-21,31,-30,5,7
0,-46,-46,23,24,-46,-16,-19,35,-30,5,5
4,-40,-44,18,24,-42,-19,-27,35,-30,5,5
2,-43,-45,21,23,-43,-20,-40,37,-25,5,2
-5,-68,-63,37,29,-65,-15,-40,44,-25,5,-1
-3,-66,-63,34,30,-64,-9,-39,50,-24,5,1
-1,-56,-55,29,27,-56,-6,-36,53,-20,5,4
0,-53,-53,27,27,-53,0,-35,57,-21,4,6
5,-43,-47,19,26,-45,2,-34,64,-17,5,9
1,-42,-43,21,22,-42,11,-25,71,-11,5,13
-5,-46,-41,25,19,-43,24,-19,71,-7,4,15
-5,-43,-38,24,17,-40,44,-3,82,0,7,18
-8,-50,-42,29,18,-46,76,17,92,3,9,21
19,-46,-66,14,42,-56,87,33,95,12,12,26
66,-55,-121,-6,94,-88,85,52,81,1,9,18
88,-48,-136,-20,112,-91,34,38,89,2,19,19
78,-64,-141,-7,110,-102,-30,9,75,-9,11,12
89,-71,-160,-9,125,-115,-63,33,77,-12,21,10
74,-64,-138,-5,106,-101,-64,31,76,-15,35,8
31,-76,-107,23,70,-92,-60,-3,59,-30,20,-3
13,-43,-56,16,35,-49,-22,-25,87,-12,24,5
-2,-88,-86,46,42,-86,-26,-52,34,-45,-14,-22
13,-20,-33,4,23,-26,-7,-28,101,1,14,2
4,-80,-84,38,44,-82,-4,-53,10,-62,-39,-37
2,-46,-48,22,25,-47,12,97,113,-31,-14,-31
-27,-137,-111,82,42,-124,342,452,178,-93,-98,-131
606,575,-32,-590,319,271,-84,884,779,580,488,364
1282,1789,507,-1536,387,1147,-894,445,1466,1663,1541,1313
719,799,80,-759,319,439,-1126,-979,-11,751,909,890
252,38,-214,-145,233,-89,-1018,-1047,-609,-30,202,315
148,136,-11,-142,79,63,-353,-257,-13,72,146,180
-21,-82,-61,51,20,-72,1,-58,-13,-77,-27,-26
-35,5,40,14,-37,23,-18,9,111,-17,1,1
-75,-61,14,68,-44,-23,45,24,62,-61,-41,-42
-60,-32,28,45,-44,-1,29,37,96,-45,-13,-38
-66,-39,27,52,-47,-5,49,37,94,-50,-40,-61
-66,-47,20,56,-43,-13,52,50,88,-62,-52,-70
-62,-30,31,46,-46,1,65,59,103,-47,-37,-59
-71,-50,22,60,-47,-14,66,51,79,-66,-49,-76
-74,-32,42,52,-58,6,71,63,99,-54,-34,-65
-67,-41,26,54,-46,-7,82,58,80,-64,-43,-75
-75,-39,36,57,-55,-1,87,62,89,-64,-44,-74
-110,-54,57,82,-83,1,105,65,83,-70,-56,-80
-110,-48,61,79,-85,6,114,70,81,-82,-61,-91
-110,-50,59,80,-85,4,121,67,79,-91,-71,-96
-111,-50,61,81,-86,5,126,64,75,-90,-71,-95
-109,-50,59,79,-84,4,140,65,73,-90,-68,-95
-111,-46,65,78,-88,9,159,64,69,-90,-76,-95
-110,-36,74,73,-92,19,164,66,68,-101,-86,-112
-132,-28,104,80,-118,38,156,64,61,-106,-85,-121
-146,-18,128,82,-137,55,150,60,54,-100,-81,-112
-145,-4,141,75,-143,68,140,58,47,-95,-79,-106
-153,24,177,64,-165,100,135,55,41,-90,-76,-99
-130,47,177,41,-153,112,123,52,44,-86,-74,-93
-99,62,162,18,-131,112,91,50,45,-81,-71,-87
-73,67,140,2,-107,104,69,47,45,-77,-68,-82
-46,56,102,-5,-74,79,60,41,45,-71,-65,-79
-16,49,65,-16,-41,57,47,37,45,-66,-62,-73
5,37,32,-22,-14,34,38,32,43,-61,-59,-70
5,23,18,-14,-7,20,32,28,39,-55,-62,-75
4,9,5,-7,-1,7,28,23,37,-50,-65,-87
-10,-13,-3,12,-3,-8,23,19,34,-50,-65,-91
-22,-29,-7,26,-7,-18,19,13,31,-50,-65,-89
-16,-30,-14,23,-1,-22,14,10,30,-50,-65,-91
-12,-31,-19,21,3,-24,19,5,30,-49,-65,-89
-17,-34,-17,26,0,-26,26,0,30,-54,-61,-98
-25,-36,-11,30,-6,-23,25,4,30,-60,-56,-105
-27,-34,-7,31,-10,-20,25,11,30,-52,-54,-99
-23,-26,-3,25,-10,-14,25,18,29,-46,-49,-93
-19,-16,3,17,-11,-7,25,24,33,-39,-45,-89
-15,-9,6,12,-10,-1,23,31,38,-32,-45,-80
-9,3,12,3,-11,7,18,35,36,-30,-45,-85
3,22,19,-13,-8,20,15,37,35,-30,-45,-100
10,27,17,-19,-4,21,12,44,35,-30,-45,-100
6,21,14,-14,-4,17,7,49,35,-30,-45,-100
4,19,15,-12,-6,17,4,48,35,-30,-44,-100
4,14,10,-9,-4,12,13,43,37,-29,-41,-100
1,11,10,-6,-5,11,18,40,40,-26,-38,-98
-2,7,9,-3,-6,8,12,37,40,-23,-36,-94
4,5,1,-5,1,2,7,32,40,-20,-32,-95
11,5,-6,-7,8,0,4,30,40,-17,-30,-91
18,5,-13,-12,15,-4,-1,25,39,-14,-30,-89
25,5,-20,-15,22,-8,-5,25,36,-17,-30,-91
33,5,-28,-19,30,-11,1,24,33,-21,-37,-94
38,12,-26,-25,32,-7,4,19,30,-20,-41,-95
29,10,-19,-19,24,-5,10,20,27,-21,-40,-97
23,10,-13,-16,18,-1,12,22,25,-20,-40,-100
14,9,-5,-11,10,2,25,28,28,-20,-40,-100
16,15,-1,-16,9,7,40,29,30,-20,-40,-97
30,43,14,-37,8,28,51,36,31,-14,-33,-94
41,41,0,-42,20,21,82,62,31,-17,-30,-96
57,36,-22,-46,39,7,84,81,39,-11,-21,-93
81,21,-60,-51,70,-19,72,83,30,-13,-21,-97
98,19,-78,-58,88,-29,38,81,33,-6,-9,-92
80,4,-76,-41,78,-36,-17,65,14,-13,-15,-92
81,5,-75,-43,78,-35,-62,64,12,-9,-18,-87
70,6,-64,-38,67,-29,-53,49,5,-7,-21,-110
64,-11,-76,-26,70,-44,-57,40,-12,-25,-36,-128
26,8,-18,-17,22,-4,-39,33,14,-10,-23,-110
-20,-59,-39,40,10,-49,-29,8,-38,-52,-58,-141
-10,9,19,1,-15,14,-18,28,28,-12,-10,-105
-50,-74,-24,62,-13,-49,5,-11,-67,-77,-60,-155
8,-19,-27,5,18,-23,27,136,69,-36,-49,-153
-16,-118,-101,67,42,-109,368,502,108,-117,-154,-275
582,583,2,-582,290,292,-43,926,738,592,466,234
1222,1917,695,-1570,263,1306,-801,363,1485,1768,1600,1259
561,840,280,-701,140,560,-880,-1068,-156,716,856,752
142,-37,-179,-52,161,-108,-856,-1047,-845,-192,58,93
102,122,20,-112,41,71,-358,-235,-152,-10,65,1
-61,-78,-17,69,-21,-47,-15,-6,-109,-119,-74,-160
-34,39,73,-3,-53,56,-34,40,16,-41,-13,-118
-50,-19,31,35,-41,6,25,49,-39,-74,-65,-170
-42,16,58,13,-50,36,-1,65,-13,-53,-45,-153
-64,17,81,23,-73,49,27,58,-26,-55,-48,-172
-57,3,60,27,-59,31,22,65,-39,-68,-56,-186
-56,17,73,19,-64,45,31,74,-19,-50,-42,-173
-59,-9,50,34,-55,20,45,73,-41,-69,-58,-187
-52,7,58,22,-55,32,53,78,-21,-52,-43,-174
-59,-14,45,37,-52,15,76,79,-37,-66,-55,-185
-62,-8,54,35,-58,23,81,80,-20,-56,-47,-182
-81,-17,64,49,-72,23,85,90,-29,-64,-51,-186
-84,-19,65,51,-75,22,93,103,-39,-86,-60,-188
-87,-22,66,54,-76,22,99,97,-40,-91,-52,-189
-91,-27,64,59,-77,19,115,110,-40,-89,-55,-194
-97,-31,66,63,-82,17,125,121,-40,-102,-76,-204
-86,-24,62,55,-74,19,127,119,-40,-112,-75,-198
-98,-32,66,65,-82,17,144,121,-41,-110,-71,-188
-117,-20,97,68,-107,39,144,120,-61,-115,-69,-210
-104,6,110,49,-107,58,138,121,-77,-115,-65,-215
-115,5,121,55,-119,63,134,114,-85,-108,-64,-199
-117,32,149,42,-133,90,129,102,-99,-105,-55,-191
-106,47,153,29,-129,100,110,91,-102,-99,-44,-184
-84,64,149,10,-117,106,73,79,-100,-96,-36,-177
-43,81,124,-19,-84,102,41,71,-100,-88,-18,-171
-33,61,94,-14,-63,77,23,63,-97,-67,12,-164
-22,47,69,-13,-45,57,26,55,-95,-60,21,-159
-5,39,44,-17,-25,41,24,48,-94,-58,19,-155
-24,12,36,6,-31,24,27,40,-96,-54,23,-155
-45,-16,29,30,-36,6,46,32,-93,-52,25,-156
-30,-21,8,25,-19,-6,51,26,-101,-49,25,-153
-35,-22,13,29,-24,-4,49,18,-121,-54,22,-167
-63,-27,36,44,-49,4,50,11,-127,-55,17,-182
-53,-34,20,43,-36,-7,50,4,-132,-55,14,-179
-43,-48,-5,45,-19,-26,50,0,-135,-55,11,-180
-35,-64,-29,49,-2,-46,50,0,-131,-55,6,-180
-31,-63,-31,47,0,-47,50,0,-128,-55,6,-180
-38,-55,-17,47,-10,-36,50,0,-125,-55,11,-177
-40,-53,-13,47,-13,-33,50,5,-122,-55,14,-173
-46,-47,-1,47,-22,-24,50,24,-119,-55,17,-171
-46,-44,2,45,-23,-21,47,49,-122,-55,22,-168
-36,-39,-4,38,-16,-21,45,56,-126,-51,25,-165
-27,-35,-9,31,-8,-22,42,55,-124,-50,29,-164
-19,-33,-14,26,-2,-23,39,55,-129,-50,36,-165
-7,-28,-21,17,7,-24,35,55,-130,-45,43,-165
-2,-26,-24,15,11,-25,35,55,-129,-45,48,-165
2,-20,-21,9,12,-20,40,53,-131,-45,52,-173
-7,-25,-18,16,5,-21,40,47,-126,-45,59,-175
-25,-41,-16,34,-4,-28,40,43,-142,-45,61,-175
-28,-39,-12,34,-8,-25,40,38,-153,-45,59,-174
-30,-41,-11,35,-10,-26,40,34,-156,-45,61,-176
-30,-39,-9,35,-11,-24,37,29,-174,-45,59,-174
-31,-43,-12,37,-9,-27,35,25,-176,-42,60,-171
-23,-55,-32,39,5,-43,32,26,-175,-39,62,-184
-20,-50,-30,36,5,-40,29,23,-175,-36,67,-184
-29,-45,-15,37,-7,-30,62,21,-175,-34,68,-179
-28,-40,-12,34,-8,-26,92,18,-173,-29,72,-176
-29,-33,-4,31,-12,-18,104,31,-170,-32,77,-171
-17,-32,-15,25,-1,-23,121,70,-170,-35,77,-169
16,-38,-54,11,36,-46,136,80,-169,-36,76,-164
32,-58,-90,13,62,-74,133,85,-172,-43,72,-165
33,-72,-105,20,69,-88,90,79,-177,-38,80,-156
46,-72,-118,13,83,-95,27,65,-206,-52,68,-161
51,-25,-75,-13,63,-50,1,61,-182,-37,84,-149
23,-59,-82,18,53,-70,-5,39,-207,-53,72,-163
17,-44,-60,14,39,-52,-17,32,-191,-40,86,-166
-30,-50,-21,40,-4,-35,12,6,-226,-52,79,-182
-42,-50,-8,46,-17,-29,-6,10,-230,-57,82,-179
-49,-13,36,31,-42,12,33,-7,-206,-41,98,-159
-52,-80,-28,66,-12,-54,-10,13,-265,-83,48,-199
-104,-60,44,82,-73,-8,204,215,-104,-65,61,-248
41,-89,-130,24,86,-110,415,667,8,-42,47,-291
856,1252,396,-1054,230,824,-383,849,1107,1218,1147,669
844,1713,869,-1279,-13,1291,-822,-315,903,1619,1671,1198
145,173,28,-159,58,100,-744,-1259,-971,103,482,329
99,-11,-110,-43,104,-60,-627,-697,-802,-194,151,1
10,24,14,-17,-2,19,-128,-121,-303,-79,147,-129
-63,-63,0,63,-31,-31,13,2,-285,-123,36,-221
-48,55,102,-4,-75,78,21,11,-207,-40,81,-177
-62,-29,33,45,-48,2,47,20,-270,-102,33,-220
-31,24,55,3,-43,39,30,28,-208,-54,71,-184
-52,-23,28,37,-40,3,54,23,-244,-89,44,-211
-67,-8,59,37,-62,25,41,33,-215,-64,61,-193
-104,-53,51,78,-77,-1,57,28,-229,-89,49,-211
-100,-58,42,79,-71,-8,57,36,-225,-109,49,-222
-93,-50,44,71,-68,-3,68,34,-222,-100,52,-222
-90,-61,29,75,-59,-16,77,40,-239,-111,47,-231
-85,-50,35,67,-59,-7,96,39,-238,-108,54,-228
-90,-58,33,73,-61,-12,104,43,-249,-111,45,-231
-84,-47,37,65,-60,-5,106,45,-247,-110,45,-229
-85,-52,34,68,-59,-8,111,44,-253,-124,26,-230
-84,-48,37,65,-60,-5,122,55,-254,-126,30,-231
-76,-44,32,60,-53,-6,140,56,-257,-124,7,-235
-101,-47,54,73,-77,3,144,61,-276,-127,20,-235
-127,-40,87,83,-107,23,151,38,-282,-141,2,-235
-117,-30,87,73,-102,29,147,59,-276,-144,8,-235
-116,-20,95,68,-105,37,141,16,-289,-136,5,-235
-117,-2,115,60,-116,56,135,61,-309,-133,-16,-230
-104,16,121,44,-113,68,131,17,-310,-125,50,-220
-69,41,110,14,-90,76,101,-154,-309,-123,-41,-209
-35,60,95,-13,-65,78,62,-46,-311,-107,250,-182
-39,60,99,-11,-69,79,30,-44,-309,-79,217,-160
-54,59,113,-3,-83,86,-3,-98,-312,-74,-29,-160
-57,60,117,-2,-87,89,1,-132,-315,-76,14,-160
-63,59,122,1,-92,91,10,-90,-315,-74,-96,-160
-69,60,129,4,-99,94,14,-102,-315,-75,314,-160
-40,93,133,-27,-87,113,24,-165,-315,-75,634,-161
