I,II,III,aVR,aVL,aVF,V1,V2,V3,V4,V5,V6
-273,-21,252,147,-262,116,91,-273,410,191,155,34
-293,-20,273,156,-283,126,96,-269,425,191,156,31
-311,-20,290,165,-301,135,95,-278,404,187,153,29
-302,-24,277,163,-289,126,104,-246,426,194,157,32
-293,-13,280,153,-287,134,73,-285,379,186,153,29
-315,-64,250,189,-282,93,163,-147,482,190,152,26
-216,51,267,82,-242,159,173,-22,729,332,289,167
133,521,388,-327,-128,454,-265,-446,782,858,803,692
236,842,606,-540,-185,724,-634,-999,461,1067,1034,944
-130,675,805,-273,-468,740,-697,-1352,-349,368,376,309
-285,226,511,29,-398,368,-462,-1020,-410,-60,-71,-160
-312,-59,252,185,-282,96,-117,-491,56,-14,-29,-130
-348,-58,290,203,-319,116,42,-328,238,41,20,-82
-295,-36,259,165,-277,111,97,-228,401,138,107,-16
-299,-35,264,167,-281,114,95,-222,400,138,113,-5
-290,-35,255,162,-272,110,103,-203,432,154,124,5
-295,-36,259,165,-276,111,106,-199,451,157,136,15
-296,-34,262,165,-279,113,104,-199,443,151,132,15
-301,-44,257,173,-279,106,106,-189,462,167,146,31
-308,-45,262,176,-284,108,104,-189,455,174,153,43
-303,-45,258,174,-280,106,106,-176,468,176,156,47
-299,-41,257,170,-278,108,104,-174,472,176,155,44
-288,-40,248,163,-268,104,106,-165,480,181,161,46
-282,-40,242,161,-262,101,103,-149,480,179,159,44
-269,-33,236,151,-252,101,97,-128,497,183,162,46
-250,-22,228,136,-239,103,93,-118,505,188,167,55
-237,-14,224,125,-230,105,88,-113,507,191,170,65
-220,0,219,110,-219,109,84,-86,543,196,180,71
-200,14,214,92,-207,114,80,-63,567,209,193,84
-203,23,226,89,-215,124,73,-64,574,222,209,101
-178,56,234,61,-206,144,63,-65,575,239,221,116
-155,86,241,34,-198,164,56,-64,581,258,237,132
-151,102,254,24,-203,178,45,-66,587,275,258,154
-152,124,276,14,-214,200,31,-74,573,285,274,174
-145,147,293,-1,-219,220,13,-96,558,278,273,170
-130,165,294,-18,-212,229,4,-130,536,270,263,161
-156,158,314,-1,-236,236,6,-140,507,262,255,153
-168,150,318,9,-243,234,-1,-149,483,255,246,144
-166,142,308,12,-237,225,16,-168,469,244,233,128
-189,106,295,41,-242,200,41,-175,457,223,212,108
-207,65,272,71,-240,168,45,-185,439,192,187,95
-227,37,264,95,-246,150,64,-196,409,162,160,60
-239,19,258,110,-249,138,76,-211,385,142,133,29
-234,14,248,110,-242,131,75,-216,379,127,117,22
-244,10,255,117,-249,132,73,-214,372,119,109,14
-250,8,258,120,-254,133,69,-212,365,110,100,6
-245,4,248,120,-247,125,67,-209,359,102,92,-1
-260,-17,243,138,-251,113,64,-210,355,100,90,-6
-255,-19,235,137,-245,108,70,-204,361,97,90,-9
-241,-11,230,126,-235,109,74,-197,367,94,86,-7
-234,-9,225,121,-229,108,69,-191,371,91,85,-4
-223,-3,220,113,-221,108,66,-184,369,89,85,-5
-215,0,215,107,-215,107,63,-178,370,86,85,-5
-219,-7,212,113,-215,102,58,-174,383,83,86,-5
-223,-18,205,121,-214,93,55,-175,382,81,84,-6
-233,-26,207,129,-220,90,52,-175,375,77,81,-13
-260,-44,216,152,-238,86,46,-174,371,75,78,-19
-266,-56,211,161,-238,77,42,-188,364,73,75,-20
-277,-68,209,172,-243,70,37,-201,360,66,74,-20
-281,-77,204,178,-242,63,33,-204,354,59,68,-25
-275,-74,201,174,-237,63,28,-206,347,53,62,-25
-276,-79,197,178,-236,59,25,-210,341,45,56,-24
-262,-80,182,171,-222,51,25,-207,334,40,51,-35
-286,-80,206,183,-246,62,23,-205,328,34,47,-41
-304,-84,220,194,-262,68,19,-205,322,29,44,-43
-293,-86,207,190,-250,60,21,-205,316,24,41,-46
-293,-90,203,191,-248,56,16,-205,311,18,36,-49
-286,-92,194,189,-240,50,15,-204,306,13,33,-51
-282,-95,187,188,-234,46,15,-212,300,7,29,-50
-293,-103,190,198,-241,43,11,-216,295,5,23,-50
-297,-106,192,201,-244,43,9,-214,290,5,20,-48
-291,-101,189,196,-240,44,12,-212,290,5,15,-44
-289,-99,190,194,-239,45,15,-209,290,5,10,-45
-280,-95,185,187,-232,45,15,-210,290,4,15,-45
-280,-95,185,187,-232,45,15,-205,290,1,16,-45
-283,-100,183,191,-233,42,15,-205,287,-2,15,-45
-289,-109,180,199,-234,35,15,-205,285,-5,13,-41
-288,-111,178,199,-233,33,11,-204,281,-8,9,-40
-280,-107,174,193,-227,33,10,-205,280,-10,11,-40
-277,-104,173,190,-224,34,9,-203,275,-8,6,-40
-268,-101,166,184,-217,33,11,-198,276,-4,5,-40
-272,-99,173,185,-223,37,8,-197,278,-2,0,-38
-265,-90,174,177,-219,41,15,-191,282,2,2,-27
-265,-73,192,169,-228,59,24,-191,280,4,25,-17
-274,-63,210,168,-242,73,18,-188,294,5,45,-8
-253,-59,195,156,-224,68,11,-191,314,24,49,6
-235,-53,181,144,-208,64,1,-189,292,25,40,11
-243,-81,162,162,-202,40,-1,-198,273,3,23,-1
-252,-102,151,177,-202,24,-17,-218,258,-9,10,-26
-253,-106,147,179,-200,21,-14,-198,267,-13,8,-30
-282,-110,172,196,-226,30,-13,-217,238,-28,-1,-31
-292,-113,179,202,-235,32,9,-185,258,-30,0,-26
-269,-90,179,179,-224,44,6,-222,226,-33,-9,-23
-270,-124,146,197,-208,11,62,-116,312,-29,-12,-37
-222,-78,144,150,-183,33,104,64,576,100,118,84
119,361,242,-240,-62,301,-290,-308,643,568,592,568
308,757,450,-532,-71,603,-701,-890,380,848,888,882
-54,644,698,-295,-377,671,-773,-1285,-440,228,305,324
-276,189,465,43,-370,326,-568,-1029,-644,-268,-197,-204
-265,-120,145,192,-205,13,-216,-473,-165,-216,-175,-185
-289,-137,152,213,-220,7,-46,-278,20,-175,-130,-138
-272,-130,142,201,-206,6,1,-192,180,-92,-43,-78
-268,-122,145,194,-206,11,25,-159,215,-73,-25,-43
-254,-108,146,181,-200,19,38,-140,213,-70,-26,-31
-257,-99,158,178,-207,29,44,-132,236,-54,-14,-15
-255,-87,167,171,-211,40,38,-128,230,-54,-15,-12
-238,-85,153,161,-195,34,41,-117,243,-47,-3,-5
-234,-78,157,156,-195,39,40,-117,237,-52,-4,-5
-220,-74,146,147,-183,36,39,-107,247,-43,3,2
-213,-67,146,139,-179,40,44,-105,243,-46,3,4
-214,-63,151,138,-182,44,51,-98,249,-43,8,8
-205,-57,148,131,-176,45,50,-93,257,-38,9,14
-199,-53,146,125,-172,47,48,-93,252,-30,12,19
-188,-49,140,118,-164,45,45,-71,266,-24,19,23
-183,-43,140,113,-161,48,45,-32,287,-17,28,31
-171,-41,130,106,-150,44,42,-23,295,-11,33,32
-155,-26,128,90,-141,51,30,-27,301,-9,39,37
-178,-19,159,99,-168,70,19,-11,316,26,69,67
-162,0,161,81,-161,80,7,14,334,47,93,88
-129,30,158,49,-144,94,-2,12,327,59,106,102
-109,52,161,29,-135,106,-10,0,317,85,130,125
-87,79,166,4,-126,122,-19,-5,309,90,135,136
-94,97,191,-2,-143,144,-24,-24,293,93,139,131
-94,110,205,-8,-150,157,-39,-44,277,88,149,124
-89,111,200,-11,-145,156,-49,-51,257,80,143,118
-94,100,195,-3,-145,147,-37,-67,230,75,126,111
-103,87,189,8,-146,138,-28,-94,207,68,110,104
-113,71,184,21,-148,127,-18,-105,189,55,93,98
-145,33,178,56,-162,106,-7,-111,163,26,67,70
-169,5,174,82,-172,89,2,-105,136,-1,39,41
-192,-25,168,108,-180,71,12,-109,119,-30,17,25
-205,-40,165,122,-185,62,11,-120,97,-44,6,8
-200,-41,159,120,-180,59,9,-118,81,-46,2,-5
-214,-58,156,136,-185,49,16,-132,76,-62,0,-8
-210,-50,160,130,-185,55,21,-133,71,-67,-5,-4
-210,-67,142,138,-176,37,20,-124,68,-63,-8,-18
-213,-72,141,142,-177,34,18,-121,61,-70,-12,-26
-216,-71,145,144,-180,37,15,-112,62,-74,-22,-19
-209,-72,137,140,-173,32,15,-103,74,-69,-20,-20
-187,-52,135,119,-161,41,20,-92,75,-63,-13,-20
-186,-57,130,121,-158,36,22,-83,75,-58,-10,-20
-180,-55,125,117,-152,35,17,-80,73,-51,-5,-20
-175,-55,120,115,-147,32,14,-80,69,-53,0,-20
-173,-56,117,114,-145,30,11,-76,71,-55,-3,-20
-162,-53,109,107,-135,28,6,-75,65,-55,-6,-20
-172,-50,122,111,-147,36,4,-75,55,-55,-5,-20
-182,-45,137,113,-159,46,-3,-84,47,-55,-10,-20
-177,-43,134,110,-155,45,-9,-90,37,-55,-9,-20
-173,-38,135,105,-154,48,-7,-89,29,-54,-12,-25
-170,-35,135,102,-152,50,-4,-101,23,-68,-22,-36
-178,-43,135,110,-156,46,-1,-106,17,-77,-20,-41
-178,-46,131,112,-154,42,2,-104,12,-74,-20,-39
-168,-44,124,106,-146,40,5,-105,6,-79,-18,-36
-163,-43,120,102,-141,39,5,-105,1,-80,-14,-35
-153,-38,114,95,-134,38,5,-105,-4,-79,-15,-35
-150,-42,108,96,-129,32,5,-100,-9,-76,-19,-35
-155,-49,106,102,-130,28,5,-100,-13,-75,-21,-34
-142,-50,92,96,-117,20,5,-100,-18,-75,-20,-38
-141,-45,96,92,-118,25,5,-100,-21,-75,-20,-46
-160,-46,115,103,-137,34,1,-101,-30,-76,-19,-45
-179,-70,109,124,-144,20,0,-97,-35,-72,-21,-43
-176,-73,103,124,-139,15,0,-95,-36,-70,-19,-38
-162,-63,99,112,-130,18,-5,-95,-33,-67,-24,-47
-149,-58,91,103,-120,16,-5,-92,-41,-64,-35,-61
-140,-51,89,96,-114,18,-6,-89,-60,-61,-29,-56
-159,-56,103,107,-131,24,-13,-91,-61,-60,-23,-54
-159,-56,103,107,-131,24,-11,-90,-59,-67,-19,-50
-153,-55,99,104,-125,21,-10,-90,-56,-66,-11,-46
-152,-56,96,103,-123,20,-9,-89,-53,-61,-16,-45
-145,-54,91,100,-118,18,-5,-86,-57,-59,-21,-45
-144,-56,89,100,-116,16,-5,-85,-61,-54,-14,-51
-125,-49,76,87,-100,13,-6,-83,-56,-50,-11,-48
-143,-51,92,97,-118,20,-11,-63,-52,-55,-6,-43
-140,-41,99,91,-119,29,-9,-41,-47,-58,-1,-39
-82,5,87,39,-85,46,-13,-33,-44,-47,3,-34
-67,16,83,25,-75,49,-15,9,-37,-41,16,-29
-64,12,76,25,-70,44,-14,19,-31,-38,27,-19
-66,3,69,31,-67,36,-27,23,-39,-34,12,-19
-79,-17,62,48,-70,23,-50,13,-88,-65,-18,-47
-83,-35,48,59,-66,6,-40,15,-99,-73,-19,-56
-135,-50,84,92,-110,17,-28,50,-95,-69,-20,-54
-163,-48,114,106,-139,33,-27,62,-106,-67,-21,-57
-158,-53,105,105,-131,26,-6,78,-74,-60,-18,-46
-170,-44,126,106,-148,40,-10,39,-119,-63,-23,-56
-152,-63,89,108,-121,12,94,252,74,-12,22,-27
43,156,113,-100,-35,134,-31,242,308,247,278,235
424,645,221,-534,101,432,-523,-298,271,783,814,779
331,834,503,-582,-87,668,-782,-879,-288,658,725,725
-66,533,599,-234,-333,565,-724,-1076,-1000,-90,-5,1
-126,89,215,18,-171,152,-447,-596,-764,-294,-234,-244
-133,-80,53,107,-93,-14,-158,-191,-366,-221,-165,-179
-121,-51,70,86,-95,10,-50,-67,-215,-150,-106,-138
-98,-37,61,68,-79,11,-7,-5,-92,-75,-38,-63
-126,-47,78,87,-102,15,4,-13,-98,-69,-31,-65
-109,-48,61,78,-85,7,6,2,-69,-49,-7,-52
-119,-50,69,84,-93,9,3,-16,-80,-59,-10,-49
-132,-69,63,100,-97,-3,-2,3,-70,-53,-12,-41
-150,-87,63,118,-106,-12,-5,-12,-67,-56,-15,-34
-165,-106,59,136,-112,-23,-9,-30,-66,-57,-16,-38
-165,-109,56,137,-110,-27,-13,-5,-58,-53,-14,-31
-178,-124,54,150,-115,-35,-15,-1,-57,-52,-16,-31
-161,-111,50,136,-105,-31,-15,7,-50,-47,-13,-25
-154,-105,49,129,-101,-28,-15,-4,-48,-46,-17,-22
-161,-117,44,139,-102,-37,-15,0,-37,-43,-7,-19
-122,-84,38,103,-80,-22,-15,23,-23,-36,6,-9
-104,-69,35,86,-69,-17,-15,38,-3,-24,22,-2
-90,-61,30,75,-60,-15,-17,56,18,-17,44,16
-74,-50,25,62,-49,-12,-24,56,34,-1,50,29
-81,-50,31,65,-56,-9,-33,73,49,13,67,39
-61,-21,40,41,-50,9,-41,89,58,26,82,65
-54,9,63,23,-59,35,-49,81,52,55,97,79
-33,37,71,-2,-52,54,-63,69,43,61,113,87
-23,54,76,-16,-50,65,-80,62,38,68,119,96
-42,64,106,-12,-74,85,-83,41,28,76,125,107
-22,93,114,-36,-68,103,-78,17,24,70,121,115
-11,99,110,-44,-61,105,-77,12,12,67,113,105
-22,84,105,-31,-64,94,-73,-1,-4,61,110,95
-37,62,99,-13,-68,80,-70,-15,-18,55,102,84
-61,33,94,14,-78,63,-68,-37,-54,28,79,58
-82,6,88,38,-86,47,-45,-47,-73,2,47,32
-98,-14,84,56,-91,35,-26,-44,-86,-24,23,13
-127,-48,78,87,-102,15,-24,-45,-100,-48,9,-7
-144,-69,75,106,-109,2,-21,-46,-112,-52,0,-22
-142,-72,70,107,-106,-1,-18,-55,-133,-66,-10,-37
-140,-74,65,107,-102,-4,-16,-50,-136,-71,-23,-41
-138,-76,62,106,-99,-7,-13,-42,-139,-77,-33,-37
-147,-91,56,119,-101,-18,-10,-36,-138,-82,-32,-35
-131,-79,52,105,-91,-14,-10,-29,-130,-75,-29,-32
-110,-63,47,86,-78,-8,-10,-24,-127,-74,-26,-30
-109,-67,43,88,-75,-12,-10,-20,-119,-69,-24,-27
-101,-63,38,82,-69,-12,-10,-18,-116,-66,-20,-24
-92,-61,31,76,-61,-14,-14,-14,-119,-62,-21,-20
-83,-59,24,71,-54,-17,-24,-12,-121,-60,-28,-19
-81,-64,17,72,-49,-23,-30,-8,-119,-60,-25,-13
-75,-65,10,70,-42,-28,-30,-11,-121,-57,-25,-21
-66,-65,1,66,-33,-32,-30,-20,-119,-54,-25,-40
-70,-63,8,66,-39,-27,-30,-21,-123,-56,-25,-40
-76,-59,17,68,-47,-21,-30,-19,-129,-64,-25,-40
-74,-61,14,67,-44,-23,-30,-22,-130,-68,-30,-40
-74,-56,18,65,-46,-19,-26,-33,-142,-81,-39,-39
-78,-52,26,65,-52,-12,-24,-36,-146,-89,-42,-43
-70,-45,24,57,-47,-10,-25,-35,-145,-90,-47,-43
-66,-44,22,55,-43,-11,-25,-34,-145,-96,-50,-39
-55,-35,20,45,-38,-7,-26,-30,-146,-99,-50,-41
-54,-40,14,47,-33,-12,-23,-30,-162,-97,-50,-54
-73,-44,29,58,-51,-7,-20,-26,-167,-94,-50,-56
-73,-38,35,55,-54,-1,-20,-24,-163,-95,-50,-55
-101,-75,26,87,-63,-24,-20,-39,-170,-94,-46,-53
-110,-86,24,98,-67,-30,-20,-50,-180,-96,-45,-49
-91,-73,18,82,-54,-27,-20,-45,-180,-93,-45,-51
-86,-72,15,79,-50,-28,-24,-42,-179,-90,-40,-46
-74,-64,9,69,-41,-27,-25,-39,-180,-88,-40,-45
-68,-64,4,65,-35,-30,-25,-34,-180,-84,-39,-45
-58,-60,-3,59,-28,-31,-24,-30,-177,-82,-35,-40
-50,-57,-6,54,-22,-31,-19,-30,-175,-78,-29,-40
-37,-57,-20,47,-8,-38,-16,-30,-171,-90,-40,-42
-17,-49,-32,33,8,-41,-13,-30,-170,-102,-52,-45
-33,-59,-26,47,-3,-42,-8,-30,-164,-96,-50,-49
-54,-78,-24,66,-14,-50,-5,-30,-167,-93,-49,-50
-55,-74,-20,64,-17,-47,-3,-29,-175,-90,-45,-50
-60,-74,-14,67,-22,-44,-9,-24,-177,-84,-45,-50
-46,-70,-23,58,-11,-46,-16,-14,-187,-89,-43,-50
-39,-71,-31,55,-4,-51,-13,-8,-184,-90,-36,-51
-39,-64,-25,52,-7,-44,-9,1,-173,-82,-31,-44
-2,-25,-23,13,11,-24,-6,8,-162,-78,-24,-31
10,-8,-18,-1,15,-13,-1,16,-151,-70,-20,-19
15,1,-14,-7,15,-7,0,30,-148,-66,-14,-15
38,0,-38,-18,38,-19,-18,15,-154,-61,-8,-15
14,-41,-54,14,35,-47,-30,6,-145,-64,-7,-21
-5,-61,-56,34,26,-58,-38,-17,-169,-84,-27,-38
-15,-67,-53,41,19,-60,-25,-15,-175,-83,-40,-38
-36,-63,-26,50,-4,-44,-28,-27,-188,-87,-41,-43
-31,-64,-33,47,1,-48,-16,-7,-165,-80,-34,-47
-34,-57,-24,46,-5,-40,-19,-12,-159,-80,-25,-52
-38,-64,-26,51,-6,-44,3,13,-148,-77,-30,-47
6,-56,-62,25,34,-59,106,238,105,-1,28,28
275,286,10,-280,132,148,-174,21,225,366,394,389
573,754,181,-664,196,467,-651,-589,50,797,844,854
312,787,475,-550,-81,631,-818,-1089,-666,380,466,504
1,381,381,-192,-190,381,-678,-996,-1084,-250,-179,-144
18,-8,-26,-5,22,-17,-336,-410,-656,-300,-234,-232
-13,-104,-92,59,40,-97,-102,-122,-378,-231,-171,-175
18,-74,-92,28,55,-82,-29,-7,-213,-138,-99,-102
35,-64,-99,15,67,-81,-8,40,-153,-94,-54,-55
14,-72,-86,29,50,-79,-3,45,-155,-90,-37,-47
24,-69,-93,22,59,-81,9,64,-121,-72,-3,-28
22,-72,-94,25,58,-82,14,53,-128,-72,-5,-26
45,-75,-120,15,83,-97,23,77,-104,-57,7,-9
46,-77,-123,16,85,-99,38,83,-104,-52,7,6
30,-93,-123,32,77,-108,47,98,-88,-39,23,21
40,-96,-136,28,89,-116,44,120,-81,-31,36,23
72,-95,-167,11,120,-130,49,123,-70,-20,34,27
77,-94,-172,9,125,-133,51,128,-57,-12,36,35
60,-108,-168,24,114,-138,49,133,-46,-3,34,39
59,-115,-174,28,117,-144,46,148,-34,5,36,41
78,-109,-187,16,132,-148,43,163,-27,13,43,53
96,-104,-201,4,149,-153,41,173,-17,19,52,62
116,-102,-218,-7,167,-160,37,197,-9,25,66,71
142,-92,-234,-25,188,-163,36,215,19,59,89,94
149,-76,-225,-36,187,-150,32,221,39,71,101,106
141,-75,-216,-32,179,-145,20,235,56,90,128,133
164,-35,-199,-64,182,-117,7,238,65,123,157,164
194,9,-185,-102,190,-87,-1,212,42,119,154,170
191,22,-169,-106,180,-73,-6,196,29,120,158,168
188,42,-147,-115,167,-52,-11,184,18,120,163,161
195,55,-139,-125,167,-42,-17,167,3,120,153,154
190,50,-140,-120,165,-45,-23,146,-20,117,145,148
184,44,-140,-114,162,-48,-22,121,-41,104,136,141
177,38,-139,-108,158,-50,-9,109,-54,94,124,129
148,5,-142,-77,145,-69,2,102,-78,70,99,104
104,-29,-133,-37,118,-81,14,96,-96,42,59,71
95,-45,-140,-25,118,-93,20,89,-118,24,34,48
90,-64,-154,-13,122,-108,31,82,-124,10,24,35
79,-64,-142,-7,111,-103,32,78,-135,-14,12,21
75,-58,-133,-8,104,-95,27,73,-161,-34,3,10
58,-54,-113,-2,86,-83,47,70,-160,-35,-7,-2
52,-49,-101,-1,77,-75,48,66,-160,-35,-18,-12
53,-45,-98,-4,76,-72,40,62,-158,-35,-25,-23
51,-41,-91,-5,71,-66,37,59,-154,-35,-25,-29
51,-36,-87,-7,69,-61,29,55,-156,-35,-27,-32
49,-32,-81,-8,65,-57,26,55,-151,-30,-31,-35
51,-25,-76,-12,63,-50,20,47,-150,-30,-34,-35
57,-12,-69,-22,64,-40,17,64,-150,-30,-36,-35
64,2,-62,-33,63,-30,14,85,-150,-30,-34,-34
71,15,-56,-43,64,-21,9,74,-150,-30,-36,-52
72,24,-48,-48,60,-12,6,67,-150,-32,-34,-62
86,45,-41,-65,64,2,2,58,-158,-37,-37,-60
83,54,-29,-68,56,12,-2,49,-164,-40,-52,-66
74,55,-19,-64,46,18,-8,41,-170,-40,-57,-64
53,54,2,-54,25,28,-11,30,-182,-43,-64,-73
42,54,13,-48,14,33,-17,26,-193,-52,-76,-94
77,70,-7,-73,42,31,-20,23,-211,-63,-92,-104
52,70,19,-62,17,44,-15,20,-216,-66,-96,-105
26,69,44,-48,-9,57,-10,17,-215,-65,-94,-106
36,71,35,-53,0,53,-6,15,-215,-65,-96,-104
38,69,31,-54,3,50,-1,13,-218,-65,-94,-109
44,73,28,-59,8,51,4,8,-227,-65,-97,-115
54,75,21,-65,16,48,3,5,-219,-64,-99,-115
52,75,23,-64,14,49,-2,2,-233,-71,-106,-114
23,74,51,-49,-15,63,-5,-3,-248,-76,-111,-119
18,76,57,-48,-20,67,-5,-4,-241,-75,-109,-131
20,73,53,-47,-17,63,-5,-11,-241,-73,-110,-128
26,79,54,-53,-14,66,-5,-15,-236,-69,-110,-139
43,90,47,-66,-2,69,-5,-9,-235,-71,-109,-152
37,91,53,-64,-8,72,-6,-5,-234,-72,-115,-149
24,88,63,-56,-20,75,-2,-13,-238,-71,-124,-153
19,86,66,-53,-24,76,1,-22,-250,-70,-125,-156
20,84,63,-52,-22,73,0,-19,-250,-70,-125,-155
25,86,61,-55,-19,73,1,-20,-250,-70,-125,-152
25,84,59,-54,-17,71,-1,-21,-250,-69,-125,-147
25,86,61,-55,-19,73,-4,-19,-249,-75,-124,-144
36,103,68,-70,-16,85,-10,-21,-252,-76,-118,-140
33,102,69,-68,-19,86,-8,-8,-249,-70,-112,-136
32,123,90,-78,-29,106,-1,-2,-239,-64,-107,-134
50,141,91,-96,-21,116,4,13,-236,-58,-101,-127
69,139,70,-104,-1,104,11,29,-224,-51,-97,-128
85,144,59,-115,13,101,-8,11,-216,-42,-94,-133
72,125,53,-99,10,88,-26,3,-240,-56,-107,-134
61,116,54,-88,3,85,-35,-28,-276,-70,-130,-146
52,98,46,-75,3,72,-24,-17,-260,-64,-128,-151
45,95,50,-70,-2,72,-23,-27,-286,-79,-137,-162
44,85,42,-65,1,63,-14,-7,-270,-73,-133,-167
25,83,58,-54,-17,70,-10,-17,-259,-74,-135,-158
51,72,21,-62,15,46,21,21,-244,-80,-137,-166
62,67,4,-65,29,35,124,272,8,21,-47,-87
325,415,90,-371,118,252,-169,56,166,427,349,324
641,869,228,-756,206,548,-636,-562,-28,829,770,742
317,877,560,-597,-122,718,-763,-1069,-807,361,337,341
27,463,436,-245,-204,449,-627,-966,-1204,-263,-287,-281
36,93,57,-65,-11,75,-298,-393,-766,-281,-332,-341
-5,39,43,-18,-25,41,-81,-107,-482,-205,-264,-277
46,57,12,-52,17,34,-21,11,-308,-122,-185,-216
44,58,14,-51,15,36,21,49,-250,-72,-143,-161
41,59,18,-50,11,38,27,68,-248,-57,-128,-153
50,52,2,-51,24,26,31,87,-217,-44,-107,-137
41,50,9,-46,16,29,29,78,-223,-48,-105,-133
64,58,-6,-61,35,26,30,89,-201,-36,-93,-123
76,73,-4,-74,40,34,31,93,-205,-37,-94,-121
90,69,-22,-79,56,23,28,101,-192,-29,-86,-114
90,70,-20,-80,55,25,26,101,-188,-27,-83,-108
89,70,-18,-79,53,26,24,116,-180,-21,-78,-104
95,69,-26,-82,60,22,26,125,-171,-16,-73,-97
101,68,-33,-84,66,17,24,129,-165,-13,-67,-93
102,60,-42,-80,71,9,25,149,-151,-7,-61,-86
102,65,-37,-84,69,14,37,162,-141,-3,-57,-82
123,76,-47,-99,84,14,34,160,-124,9,-48,-73
132,74,-58,-103,95,8,22,189,-101,24,-28,-55
129,83,-46,-105,87,18,13,203,-88,38,-9,-42
153,114,-39,-133,96,38,-1,204,-74,55,2,-27
173,143,-30,-158,101,56,-15,216,-67,78,24,-7
191,160,-31,-176,111,64,-27,207,-63,100,40,9
211,183,-27,-197,119,78,-45,198,-70,115,46,21
202,195,-6,-199,103,94,-58,186,-92,115,56,26
190,207,17,-199,86,111,-55,175,-103,117,53,29
188,213,25,-201,81,119,-52,163,-121,121,47,27
168,200,32,-184,68,116,-50,153,-138,112,43,20
152,195,43,-173,54,119,-46,128,-151,103,40,16
154,177,23,-166,66,100,-46,98,-170,88,22,-3
138,148,9,-143,64,78,-38,91,-190,56,-12,-38
121,120,-1,-120,61,59,-17,84,-219,34,-44,-68
109,97,-12,-103,60,42,9,78,-226,24,-59,-83
104,81,-23,-92,63,29,23,70,-230,12,-61,-85
107,65,-42,-86,74,11,27,66,-247,8,-66,-80
102,58,-44,-80,73,7,34,69,-250,3,-61,-78
105,54,-51,-79,78,2,36,73,-263,0,-55,-74
106,49,-56,-77,81,-3,34,75,-276,9,-44,-66
99,45,-54,-72,76,-4,36,76,-271,24,-23,-49
96,40,-55,-67,75,-7,32,89,-268,45,1,-27
92,37,-55,-64,73,-9,30,91,-275,52,19,-12
88,34,-54,-61,71,-10,30,90,-289,58,27,-2
98,36,-62,-66,80,-13,26,90,-291,69,38,7
105,34,-71,-70,88,-18,25,95,-289,73,46,18
108,38,-70,-73,89,-15,25,106,-293,78,51,27
116,46,-70,-81,92,-11,20,102,-300,76,49,26
114,43,-71,-78,92,-14,20,99,-308,69,46,25
109,40,-68,-74,89,-14,20,96,-328,66,43,24
114,38,-77,-76,95,-20,20,91,-343,61,40,19
119,34,-85,-76,101,-25,20,89,-352,57,39,21
113,33,-79,-73,96,-23,18,84,-364,52,31,17
108,28,-80,-68,94,-26,28,78,-363,44,24,7
105,25,-80,-65,92,-27,30,75,-356,36,17,-1
101,21,-80,-61,90,-29,24,70,-349,28,9,-10
98,17,-80,-57,89,-31,23,65,-342,20,2,-19
91,15,-76,-52,83,-31,16,69,-332,15,-4,-25
82,9,-73,-46,77,-32,15,69,-322,10,-6,-25
75,7,-69,-41,71,-31,23,73,-303,5,-9,-26
65,-1,-67,-31,66,-34,26,76,-283,2,-12,-30
73,13,-59,-43,66,-23,25,71,-272,-4,-14,-30
97,32,-65,-65,81,-17,25,69,-262,-3,-17,-27
107,21,-85,-64,96,-32,25,66,-253,0,-20,-25
101,16,-85,-58,93,-34,25,64,-238,0,-20,-25
94,10,-85,-52,89,-37,25,61,-222,0,-20,-25
86,1,-85,-43,86,-42,25,56,-217,0,-20,-24
89,4,-84,-46,86,-40,25,53,-211,0,-20,-26
83,0,-83,-41,83,-42,25,50,-205,-7,-23,-37
53,-8,-61,-22,57,-34,25,45,-200,-16,-28,-44
71,-4,-75,-33,73,-39,29,46,-183,-20,-29,-44
87,1,-86,-44,86,-42,30,45,-163,-20,-25,-39
62,2,-60,-32,61,-29,30,45,-154,-20,-23,-33
82,9,-73,-46,78,-32,35,45,-146,-20,-19,-30
92,9,-83,-51,88,-37,35,44,-134,-20,-17,-25
99,27,-73,-63,86,-23,35,63,-114,-19,-14,-20
122,46,-76,-83,98,-15,28,52,-107,-11,-12,-15
117,41,-76,-79,96,-17,26,69,-72,5,2,0
136,64,-72,-100,103,-4,19,82,-46,20,6,6
147,52,-94,-99,120,-21,18,55,-57,9,-11,-14
142,25,-117,-83,129,-46,13,33,-84,-19,-27,-37
137,21,-116,-78,126,-47,11,44,-73,-29,-43,-50
98,18,-80,-57,88,-31,10,39,-64,-29,-46,-56
78,11,-67,-44,72,-28,1,35,-70,-26,-46,-55
77,9,-67,-42,72,-29,14,53,-34,-17,-43,-54
77,0,-77,-38,77,-38,25,19,-48,-22,-50,-59
85,-33,-118,-26,101,-75,129,248,166,25,-14,-13
270,220,-50,-245,160,85,-38,210,399,344,312,308
640,699,59,-669,290,379,-532,-343,340,844,806,815
488,859,371,-674,58,615,-745,-897,-301,604,590,627
83,520,436,-302,-177,478,-654,-999,-936,-112,-98,-58
60,77,18,-68,21,47,-367,-479,-620,-252,-283,-266
47,-59,-107,6,77,-83,-93,-128,-264,-173,-209,-205
66,-28,-95,-19,81,-62,-5,4,-101,-115,-129,-127
103,-9,-113,-47,108,-61,20,64,19,-48,-73,-68
79,-13,-92,-33,86,-53,30,62,28,-24,-63,-53
82,-21,-103,-30,93,-62,45,103,76,9,-38,-24
79,-12,-91,-33,85,-51,45,89,72,3,-41,-27
90,-6,-96,-41,94,-51,40,98,91,12,-31,-24
97,1,-97,-48,97,-48,39,99,103,12,-29,-22
117,8,-109,-62,112,-50,34,113,119,17,-24,-20
117,8,-109,-62,113,-51,37,120,131,23,-19,-20
97,-2,-99,-47,98,-50,45,124,144,25,-15,-15
93,-10,-104,-41,99,-57,45,129,140,25,-7,-7
108,-18,-126,-44,117,-72,45,133,157,26,-2,-1
118,-14,-132,-52,125,-73,44,148,191,39,7,6
123,-1,-124,-61,124,-62,47,150,194,40,11,12
129,5,-125,-67,127,-60,50,175,223,61,24,20
147,28,-119,-87,133,-46,40,193,246,79,37,29
148,27,-121,-87,134,-47,30,193,267,84,47,49
157,26,-131,-91,143,-52,20,202,281,101,60,72
195,73,-122,-133,158,-24,11,200,291,117,82,88
210,99,-111,-154,160,-5,3,191,302,141,103,112
223,115,-108,-169,165,4,-7,183,292,156,114,133
208,129,-79,-168,143,25,-21,173,282,158,128,134
204,150,-55,-176,129,47,-36,148,273,158,125,126
218,163,-55,-190,137,53,-39,122,263,151,117,119
216,161,-55,-188,135,53,-25,113,256,146,111,112
219,164,-54,-191,136,55,-12,100,243,140,104,103
175,119,-56,-146,115,31,-7,90,222,124,98,99
137,84,-53,-110,94,15,16,82,207,100,76,83
145,78,-67,-111,106,5,38,76,198,77,52,53
134,47,-87,-90,110,-20,47,69,187,58,33,36
112,28,-84,-70,98,-28,55,62,177,38,19,25
105,19,-85,-61,95,-33,65,57,169,29,10,17
98,13,-85,-55,91,-35,71,50,160,23,1,11
94,9,-85,-51,89,-38,70,50,151,15,-17,3
91,3,-88,-46,89,-43,77,44,150,7,-28,-5
88,-3,-91,-43,90,-47,80,48,149,1,-22,-8
89,-5,-94,-41,92,-50,83,69,155,5,-20,-5
91,-5,-96,-42,94,-51,85,70,168,11,-15,-2
110,-11,-121,-49,116,-66,80,70,170,9,-11,0
124,-9,-133,-57,128,-71,80,70,175,11,-9,4
122,-5,-126,-58,124,-65,80,69,187,12,-5,5
123,-2,-125,-60,124,-64,80,71,190,10,-6,10
125,3,-121,-64,123,-58,79,69,190,10,-2,12
124,4,-120,-64,121,-57,83,80,187,6,0,8
118,1,-117,-59,117,-57,85,83,184,5,0,6
112,-2,-114,-54,113,-58,85,72,185,5,-5,3
107,-4,-111,-52,110,-57,88,65,181,0,-14,0
100,-9,-109,-45,104,-58,91,57,174,-5,-22,-2
96,-8,-104,-43,100,-56,88,51,167,-10,-32,-7
91,-18,-108,-36,100,-63,86,44,161,-13,-35,-5
80,-36,-116,-21,99,-76,98,34,153,-20,-35,0
77,-34,-111,-21,94,-72,96,34,154,-18,-35,-4
80,-29,-109,-25,94,-69,89,46,160,-11,-35,-10
77,-28,-104,-24,91,-66,85,45,155,-25,-35,-15
79,-22,-100,-29,90,-61,78,40,150,-31,-31,-20
82,-20,-102,-31,92,-61,76,39,147,-29,-30,-27
73,-34,-107,-19,90,-70,81,33,141,-31,-30,-29
67,-43,-110,-12,88,-76,85,37,138,-30,-26,-25
67,-38,-105,-14,86,-71,85,45,135,-30,-25,-25
64,-42,-105,-11,85,-73,90,46,134,-30,-26,-25
64,-39,-103,-12,84,-71,90,45,130,-30,-30,-25
60,-41,-100,-10,80,-70,90,45,129,-33,-35,-25
65,-34,-99,-15,82,-67,90,46,144,-36,-36,-21
77,-25,-103,-26,90,-64,89,43,148,-31,-34,-17
64,-37,-101,-13,83,-69,91,59,159,-28,-35,-12
82,-16,-98,-33,90,-57,89,56,158,-25,-35,-8
102,6,-96,-53,99,-45,90,65,168,-21,-32,-4
81,-11,-92,-34,87,-52,75,71,180,-20,-28,3
70,-52,-122,-8,96,-87,67,55,161,-20,-25,-1
55,-73,-128,9,92,-100,65,21,138,-38,-42,-21
48,-90,-138,21,93,-114,64,14,134,-50,-57,-35
26,-95,-121,34,74,-108,67,17,120,-53,-59,-35
10,-96,-107,43,59,-101,61,8,112,-50,-57,-36
-2,-101,-100,52,49,-100,70,30,134,-42,-42,-32
-3,-97,-95,50,46,-96,52,-2,98,-46,-38,-40
24,-144,-168,61,96,-156,164,226,316,4,-12,-20
187,108,-79,-147,133,15,51,251,581,325,292,293
530,617,88,-574,221,353,-450,-267,522,826,804,814
412,827,416,-620,-2,621,-652,-827,-109,607,611,659
28,508,479,-268,-226,493,-564,-959,-752,-113,-95,-39
-28,21,49,4,-39,35,-340,-495,-500,-305,-304,-285
-31,-125,-94,78,32,-109,-70,-147,-154,-222,-233,-215
8,-116,-124,54,67,-120,48,12,29,-135,-143,-126
35,-114,-150,40,93,-132,78,75,149,-64,-68,-56
26,-96,-122,35,74,-109,83,62,145,-52,-57,-43
37,-98,-135,31,86,-116,97,97,185,-34,-42,-25
22,-93,-115,36,69,-104,95,81,177,-30,-42,-26
31,-96,-127,33,79,-111,94,86,194,-20,-31,-19
29,-95,-124,33,77,-109,96,88,203,-16,-27,-15
30,-95,-125,33,78,-110,94,98,205,-11,-21,-11
42,-97,-138,28,90,-117,92,104,218,0,-15,-5
51,-99,-150,24,100,-125,89,122,234,10,-10,-3
52,-101,-153,25,102,-127,91,137,240,25,-4,5
56,-98,-154,22,105,-126,89,124,229,25,1,4
65,-102,-167,19,116,-135,90,127,250,33,11,20
80,-87,-167,4,124,-127,89,155,281,59,17,45
87,-71,-158,-8,123,-114,80,176,293,63,27,45
73,-81,-153,4,113,-117,71,174,298,74,32,47
81,-63,-145,-9,113,-104,63,178,309,92,40,57
111,-31,-142,-40,127,-86,53,187,337,117,62,80
132,-11,-143,-60,138,-77,44,181,348,148,92,107
145,3,-142,-74,143,-69,32,173,348,159,103,114
155,22,-134,-89,144,-56,21,164,344,170,100,125
168,55,-112,-111,140,-28,9,158,331,182,115,137
156,61,-94,-108,124,-16,5,143,323,179,115,134
157,75,-83,-116,120,-4,3,113,308,169,104,125
161,82,-79,-121,120,1,-2,100,288,160,96,116
130,53,-77,-91,103,-12,7,94,260,151,88,109
115,41,-74,-78,94,-16,22,84,236,138,74,93
92,22,-71,-57,81,-24,36,78,221,115,48,66
63,-7,-70,-28,66,-38,57,70,203,92,21,34
43,-55,-98,6,71,-76,69,65,192,73,-15,9
35,-80,-116,23,76,-98,80,57,182,57,-34,0
28,-72,-100,22,64,-86,93,51,172,42,-40,-3
18,-76,-95,30,57,-85,91,44,168,39,-46,-11
16,-79,-95,32,56,-87,90,37,165,41,-50,-28
6,-89,-95,42,51,-92,104,47,162,36,-56,-31
-4,-99,-95,52,46,-97,112,48,157,35,-55,-26
-3,-97,-95,51,46,-96,109,56,154,34,-53,-25
8,-90,-99,41,54,-94,111,72,161,31,-50,-20
17,-89,-106,36,62,-97,109,69,158,28,-49,-20
38,-81,-118,21,78,-99,111,70,167,34,-56,-15
37,-82,-120,23,79,-101,114,70,181,45,-60,-15
30,-84,-114,28,72,-99,115,70,176,45,-55,-14
32,-81,-113,24,73,-97,115,67,173,43,-53,-10
8,-98,-106,45,57,-102,115,64,169,40,-48,-10
5,-101,-106,49,55,-103,114,61,165,40,-45,-12
23,-99,-122,39,72,-110,118,58,167,38,-45,-16
31,-95,-126,32,79,-111,120,56,175,32,-44,-14
28,-96,-124,35,76,-110,120,52,181,28,-46,-16
34,-92,-126,29,80,-109,121,65,175,23,-44,-13
37,-88,-124,26,81,-106,117,68,170,19,-48,-23
16,-109,-125,47,71,-117,125,60,164,14,-60,-41
14,-111,-125,49,69,-118,131,56,159,10,-61,-40
16,-109,-125,47,70,-116,124,50,153,10,-60,-40
19,-107,-126,44,73,-116,123,55,150,9,-60,-40
19,-104,-123,43,72,-113,117,55,150,5,-60,-40
24,-105,-129,41,77,-117,115,56,149,5,-58,-38
32,-97,-128,33,80,-112,127,61,152,8,-51,-31
23,-93,-116,35,70,-104,135,59,147,17,-46,-24
14,-86,-101,36,58,-93,136,64,161,29,-39,-18
15,-80,-95,32,56,-87,133,63,166,23,-36,-11
23,-87,-110,33,67,-98,139,69,173,25,-40,-5
30,-89,-118,30,74,-103,148,66,174,32,-40,-12
43,-93,-136,25,90,-114,149,67,161,13,-43,-23
57,-97,-154,20,106,-125,139,52,146,-5,-51,-38
42,-110,-153,35,98,-132,139,51,147,-6,-50,-46
21,-99,-120,40,71,-109,133,40,144,1,-50,-44
14,-113,-127,50,71,-120,127,32,131,7,-55,-49
1,-127,-129,63,65,-128,136,45,149,16,-54,-49
16,-110,-127,47,72,-118,126,26,124,18,-49,-52
-1,-156,-154,79,77,-155,255,252,324,39,-24,-29
177,115,-62,-146,120,26,102,224,564,361,292,300
518,626,108,-572,205,367,-404,-267,525,889,819,840
351,799,447,-575,-48,623,-617,-782,-79,649,612,663
32,467,435,-250,-201,450,-552,-910,-711,-90,-100,-46
-23,3,26,10,-24,14,-288,-469,-472,-277,-312,-284
-52,-142,-90,97,20,-116,-3,-137,-154,-200,-242,-225
-1,-141,-140,71,70,-140,112,7,27,-106,-149,-134
25,-133,-158,54,92,-145,129,72,146,-29,-80,-58
23,-118,-141,47,82,-129,131,55,135,-31,-73,-49
34,-119,-153,43,94,-136,152,79,167,-16,-54,-33
30,-109,-138,40,84,-123,148,91,156,-15,-52,-34
39,-110,-149,36,94,-129,146,97,179,-5,-40,-25
36,-100,-135,32,86,-117,144,95,186,0,-34,-20
38,-105,-143,34,91,-124,139,101,195,7,-29,-16
19,-114,-133,48,76,-123,142,99,196,15,-23,-9
5,-104,-109,50,57,-107,145,101,193,20,-18,-3
42,-97,-139,28,90,-118,145,99,206,29,-12,5
64,-89,-153,12,109,-121,142,121,216,35,-8,10
66,-82,-148,8,108,-115,137,140,243,58,2,19
76,-73,-149,-1,112,-111,135,134,248,63,10,26
79,-64,-143,-7,111,-104,130,156,249,65,18,42
90,-57,-146,-16,118,-101,127,176,275,82,32,55
97,-44,-140,-26,119,-92,123,185,293,98,50,69
105,-30,-135,-37,120,-83,109,191,310,127,76,95
114,-16,-129,-49,122,-72,91,186,319,147,104,115
123,0,-123,-61,123,-61,75,175,309,162,121,139
149,30,-119,-89,133,-44,70,165,302,174,128,148
156,68,-88,-112,122,-10,68,153,297,174,134,151
165,93,-72,-129,119,10,65,138,275,169,135,159
172,96,-76,-134,124,10,61,125,247,158,125,147
160,85,-74,-122,117,5,60,108,228,151,116,138
144,68,-76,-105,109,-4,63,93,208,138,98,124
112,37,-75,-74,93,-19,71,82,178,110,67,98
92,10,-82,-51,87,-36,96,70,141,80,37,68
64,-19,-83,-22,73,-51,118,63,119,51,9,35
37,-52,-89,7,63,-70,124,57,109,22,-19,12
40,-70,-110,15,75,-90,134,51,97,10,-35,-1
34,-76,-110,21,73,-93,135,46,89,8,-37,-4
35,-75,-109,20,72,-92,135,48,81,6,-42,-9
46,-73,-119,14,82,-96,135,50,72,2,-45,-14
44,-69,-113,13,79,-91,135,50,66,1,-45,-13
31,-70,-101,20,66,-86,135,50,69,-5,-45,-9
18,-78,-96,30,57,-87,130,49,70,-16,-40,-7
16,-78,-93,32,55,-85,130,52,71,-12,-40,-4
32,-67,-99,18,66,-83,130,55,76,-3,-39,-1
41,-64,-105,12,73,-84,130,56,74,2,-35,1
51,-54,-105,2,79,-80,130,50,78,10,-33,4
45,-52,-97,4,71,-74,127,55,85,14,-30,7
32,-80,-112,24,73,-96,123,66,84,11,-26,9
53,-85,-138,16,96,-112,117,65,89,9,-25,13
47,-76,-123,14,86,-99,114,65,94,10,-25,15
52,-73,-125,11,89,-99,108,65,85,10,-25,13
66,-66,-132,0,100,-99,105,65,77,10,-24,8
68,-60,-129,-4,99,-94,113,63,69,8,-27,5
59,-68,-127,5,93,-98,115,57,63,3,-38,2
47,-77,-124,15,86,-100,115,52,57,0,-40,-3
51,-74,-125,12,89,-100,115,48,52,-4,-41,-5
45,-75,-120,16,83,-97,115,44,48,-7,-45,-5
40,-75,-115,18,78,-95,114,39,44,-12,-45,-5
35,-75,-110,20,73,-92,110,46,39,-24,-45,-5
35,-72,-107,18,71,-89,111,51,36,-26,-45,-5
30,-70,-100,20,65,-85,108,46,32,-24,-45,-5
36,-70,-106,17,71,-88,104,42,28,-25,-44,-3
51,-65,-116,8,84,-91,106,40,26,-24,-47,2
49,-65,-114,9,82,-89,100,32,18,-25,-46,4
49,-64,-113,8,81,-88,95,47,25,-17,-40,9
58,-51,-108,-4,83,-79,87,59,24,-16,-35,12
75,-35,-110,-19,93,-73,81,61,29,-9,-30,17
67,-34,-101,-16,84,-67,74,60,45,-7,-22,31
82,-33,-115,-24,99,-74,70,58,35,-4,-26,26
93,-43,-136,-25,115,-89,78,54,21,-5,-44,12
58,-69,-127,6,93,-98,70,42,3,-25,-52,4
47,-79,-127,16,87,-103,81,49,13,-20,-54,3
44,-69,-113,13,79,-91,83,23,-14,-33,-57,-3
36,-83,-119,23,78,-100,97,44,6,-35,-48,-4
34,-64,-98,15,66,-81,71,-5,-22,-31,-53,-10
31,-92,-122,31,77,-107,152,123,75,-5,-36,-16
83,-9,-93,-37,88,-51,186,266,334,141,103,131
423,471,48,-447,187,259,-254,-103,417,658,618,658
591,871,279,-731,156,575,-659,-630,138,929,905,958
236,741,504,-489,-134,622,-734,-1010,-677,241,259,345
44,245,201,-144,-79,223,-508,-721,-811,-256,-243,-177
45,-80,-125,18,85,-102,-146,-196,-348,-213,-208,-164
34,-94,-127,30,81,-110,17,-41,-175,-162,-171,-128
59,-92,-150,17,105,-121,68,51,-22,-69,-87,-47
51,-79,-130,14,90,-104,84,59,5,-48,-56,-15
56,-73,-129,9,93,-101,95,72,25,-34,-53,-14
38,-84,-122,23,80,-102,99,92,39,-27,-42,-1
38,-75,-113,19,76,-94,99,99,52,-25,-40,0
53,-65,-118,7,86,-91,101,125,67,-15,-29,11
53,-58,-111,3,82,-85,99,123,65,-15,-28,12
65,-57,-121,-4,93,-89,101,128,87,-6,-19,20
77,-51,-129,-13,103,-90,100,130,74,-4,-16,25
81,-50,-131,-16,106,-90,99,130,93,2,-10,29
87,-43,-129,-22,109,-86,104,140,108,7,-3,40
77,-53,-130,-12,104,-91,110,137,108,10,4,50
75,-56,-130,-9,103,-93,102,152,127,18,14,54
91,-36,-128,-27,110,-82,96,177,140,27,19,58
74,-47,-121,-13,98,-84,89,181,153,34,37,62
81,-33,-114,-24,98,-73,83,200,182,50,53,81
114,6,-108,-60,111,-51,77,212,191,66,64,90
127,27,-100,-77,113,-36,61,221,207,92,94,113
148,53,-96,-100,122,-21,49,224,237,125,123,153
149,72,-77,-110,113,-3,32,214,231,139,143,167
156,104,-52,-130,104,25,14,211,217,144,154,173
173,130,-43,-151,108,43,9,191,198,150,159,166
163,132,-32,-147,97,50,11,159,172,143,150,158
169,145,-24,-156,96,60,9,138,145,138,145,150
154,133,-22,-143,88,55,10,117,119,128,131,143
124,86,-38,-104,81,24,19,99,96,90,89,122
103,44,-59,-73,81,-7,34,92,60,62,62,79
70,22,-48,-46,59,-13,54,89,45,41,44,52
49,-7,-57,-21,53,-32,64,84,36,9,15,29
40,-36,-76,-2,58,-56,66,79,17,-8,-3,2
40,-51,-90,6,65,-70,72,76,5,-14,-9,-8
40,-61,-101,11,71,-81,69,73,-8,-21,-16,-14
35,-60,-95,13,65,-77,65,71,-18,-28,-24,-15
33,-60,-93,13,63,-76,64,67,-27,-37,-31,-15
27,-60,-88,17,57,-74,58,65,-27,-40,-37,-20
26,-59,-86,17,56,-72,65,65,-23,-40,-41,-19
18,-63,-81,23,50,-71,76,65,-21,-50,-42,-22
10,-65,-75,28,43,-70,75,65,-17,-57,-40,-26
5,-65,-70,30,38,-67,74,65,-15,-56,-40,-25
-2,-65,-64,34,31,-64,70,75,-17,-55,-37,-24
26,-65,-91,20,59,-78,70,81,-21,-55,-34,-20
33,-65,-98,16,66,-82,68,79,-20,-52,-36,-19
32,-70,-102,19,67,-86,64,81,-20,-49,-39,-23
47,-70,-116,12,81,-93,62,86,-20,-51,-40,-25
36,-71,-107,18,71,-89,59,78,-20,-54,-40,-25
27,-75,-103,24,65,-89,56,80,-22,-55,-40,-33
23,-76,-99,26,62,-87,54,91,-26,-55,-40,-36
20,-74,-94,28,58,-84,51,84,-25,-55,-40,-34
17,-76,-92,30,55,-84,50,80,-29,-55,-41,-36
13,-74,-86,31,50,-80,50,76,-30,-66,-39,-34
8,-77,-85,35,47,-81,50,71,-30,-71,-41,-37
12,-85,-97,36,55,-90,50,68,-35,-69,-57,-48
14,-85,-99,36,57,-92,48,64,-38,-77,-61,-51
6,-85,-91,39,49,-88,44,65,-41,-80,-59,-49
10,-80,-89,35,50,-84,45,65,-38,-79,-60,-51
2,-81,-83,40,42,-82,45,65,-49,-84,-60,-49
3,-77,-80,37,42,-78,45,65,-62,-85,-60,-52
7,-81,-88,37,48,-84,45,65,-59,-85,-60,-54
-5,-96,-91,51,43,-93,40,66,-61,-83,-60,-50
-6,-92,-86,49,40,-88,41,67,-59,-80,-60,-50
-4,-88,-85,47,40,-86,39,63,-61,-80,-60,-50
-4,-85,-81,45,39,-83,35,61,-56,-85,-60,-50
-1,-80,-79,40,39,-79,35,58,-56,-85,-68,-62
10,-83,-93,36,52,-88,35,54,-70,-80,-69,-65
9,-85,-94,39,52,-90,35,59,-65,-78,-61,-59
5,-84,-89,40,48,-86,34,58,-61,-74,-60,-58
12,-75,-87,32,50,-81,45,58,-53,-69,-53,-51
23,-58,-81,17,52,-69,41,49,-50,-75,-51,-51
28,-53,-81,13,55,-67,35,73,-43,-74,-53,-54
27,-56,-83,15,55,-69,27,87,-37,-78,-57,-57
37,-61,-98,12,67,-79,21,79,-45,-80,-59,-59
38,-65,-104,14,71,-85,16,70,-73,-79,-62,-63
53,-72,-125,10,89,-98,7,62,-84,-95,-70,-71
32,-81,-113,25,73,-97,21,62,-72,-99,-69,-70
7,-71,-78,33,43,-74,24,41,-100,-96,-72,-70
4,-86,-91,41,48,-89,40,61,-79,-86,-67,-69
-28,-93,-65,61,18,-78,16,26,-115,-91,-74,-71
-21,-115,-94,68,37,-104,114,205,47,-63,-52,-52
117,58,-59,-88,88,0,58,239,274,154,165,146
478,558,80,-518,199,319,-423,-246,290,694,703,689
545,862,318,-704,113,590,-779,-777,-110,772,806,822
168,631,463,-400,-148,547,-809,-1041,-902,43,108,151
29,135,106,-82,-39,120,-490,-608,-819,-306,-262,-253
18,-115,-132,49,75,-123,-145,-125,-370,-233,-207,-212
-12,-111,-99,62,44,-105,-34,-4,-233,-191,-168,-165
18,-97,-115,40,66,-105,13,76,-98,-120,-98,-101
14,-80,-94,33,54,-87,26,85,-95,-106,-85,-78
20,-75,-95,28,58,-85,44,112,-61,-97,-71,-68
-8,-93,-85,51,39,-89,42,110,-54,-101,-62,-62
-10,-103,-93,57,41,-98,39,108,-46,-82,-54,-57
8,-89,-97,41,53,-93,41,114,-34,-73,-46,-47
13,-80,-93,34,53,-86,39,121,-34,-76,-44,-47
22,-72,-94,25,58,-83,41,142,-21,-58,-37,-46
19,-68,-87,25,53,-78,39,145,-19,-52,-35,-45
26,-67,-93,20,60,-79,51,145,-6,-46,-29,-45
17,-63,-80,23,49,-71,51,161,2,-42,-23,-40
23,-61,-84,19,53,-72,49,173,12,-38,-16,-40
39,-59,-97,10,68,-78,50,174,22,-33,-9,-39
39,-51,-90,6,65,-71,44,186,35,-19,-3,-23
46,-44,-90,-1,68,-66,46,204,59,2,8,-7
45,-38,-83,-3,64,-61,43,233,94,24,17,7
55,-28,-82,-14,69,-55,32,244,103,40,29,18
66,-9,-75,-28,70,-42,24,251,123,69,62,45
86,25,-61,-55,73,-18,-1,255,136,97,91,74
120,60,-60,-90,90,0,-22,236,122,110,100,85
126,87,-39,-106,83,23,-38,222,117,122,116,94
125,108,-17,-116,71,45,-55,202,105,117,126,96
139,129,-9,-134,73,60,-61,178,88,114,117,93
119,130,10,-125,54,70,-62,157,60,112,111,91
91,113,21,-102,35,67,-53,140,32,106,103,86
75,87,11,-81,32,49,-37,124,14,89,79,69
52,48,-3,-50,27,22,-19,112,-12,55,40,29
39,11,-29,-25,34,-9,-10,105,-47,16,-3,-15
28,-22,-49,-3,39,-35,-4,97,-74,-21,-25,-45
10,-50,-61,20,36,-55,3,89,-85,-34,-32,-55
0,-67,-67,34,34,-67,9,82,-94,-41,-49,-61
5,-64,-69,29,38,-66,14,80,-109,-56,-65,-76
1,-68,-69,33,35,-68,11,77,-116,-55,-65,-79
-5,-70,-65,38,30,-67,8,74,-120,-55,-65,-75
-8,-71,-63,40,27,-66,6,71,-120,-56,-65,-75
-3,-63,-60,33,28,-61,2,69,-120,-54,-65,-70
2,-54,-56,26,29,-55,0,67,-120,-59,-62,-70
-21,-76,-55,49,17,-65,2,59,-120,-62,-60,-82
-32,-87,-55,60,12,-71,10,71,-117,-60,-60,-87
-27,-84,-57,56,15,-70,15,87,-112,-60,-62,-83
-10,-86,-76,48,34,-81,-1,84,-109,-60,-75,-96
2,-84,-86,41,44,-85,-6,85,-106,-60,-75,-106
-6,-90,-85,49,40,-87,1,85,-101,-60,-70,-101
-11,-95,-85,53,37,-90,3,85,-98,-60,-69,-99
-17,-95,-78,56,31,-86,10,89,-95,-60,-64,-95
-12,-95,-83,53,36,-89,8,87,-94,-60,-67,-90
-23,-95,-71,59,24,-83,5,84,-96,-61,-73,-92
-19,-95,-77,57,29,-86,5,81,-93,-59,-76,-95
-15,-95,-79,55,32,-87,5,78,-106,-63,-79,-95
-30,-96,-66,63,19,-81,5,75,-121,-71,-82,-95
-18,-100,-82,59,32,-91,5,74,-120,-70,-85,-99
-23,-100,-77,62,27,-88,-2,70,-119,-70,-88,-104
-27,-100,-73,64,23,-86,-12,70,-124,-70,-94,-105
-29,-100,-71,65,21,-86,-10,68,-135,-70,-95,-105
-36,-99,-64,68,14,-81,-10,64,-135,-72,-95,-105
-36,-103,-67,70,16,-84,-9,65,-130,-75,-99,-105
-43,-105,-62,75,10,-84,-5,62,-129,-78,-101,-105
-34,-105,-71,70,19,-87,-5,59,-124,-81,-98,-105
-26,-108,-82,67,28,-95,-8,56,-127,-84,-95,-109
-34,-111,-77,73,21,-93,-17,53,-130,-85,-95,-110
-34,-109,-75,72,21,-92,-16,51,-130,-86,-95,-110
-35,-106,-71,70,19,-88,-15,48,-138,-90,-95,-110
-35,-104,-69,69,18,-86,-14,46,-141,-90,-95,-110
-32,-106,-74,70,21,-90,-10,42,-140,-88,-103,-110
-28,-103,-75,66,24,-89,-9,40,-140,-84,-106,-110
-27,-107,-80,67,27,-93,-13,36,-140,-85,-105,-110
-22,-101,-78,62,28,-89,-22,34,-140,-85,-105,-110
-27,-100,-73,64,23,-86,-21,48,-135,-85,-105,-110
-62,-127,-65,95,2,-96,-14,57,-135,-85,-104,-115
-67,-126,-59,97,-3,-92,-11,54,-135,-80,-101,-115
-63,-116,-53,90,-5,-84,-7,56,-135,-80,-100,-117
-68,-113,-44,91,-12,-78,1,55,-135,-80,-100,-120
-41,-103,-62,72,11,-82,-11,55,-137,-80,-100,-120
-34,-102,-68,68,18,-85,-21,51,-136,-79,-99,-117
-29,-104,-76,67,24,-90,-15,48,-134,-85,-106,-111
-25,-110,-86,68,31,-98,-12,47,-135,-92,-110,-106
-27,-102,-76,65,25,-89,-9,40,-135,-86,-104,-101
-21,-93,-72,57,26,-82,-4,42,-135,-86,-101,-94
-31,-100,-69,65,19,-85,-1,39,-132,-78,-97,-92
-26,-96,-70,61,23,-83,16,60,-113,-61,-88,-94
-8,-77,-69,42,31,-73,21,84,-99,-67,-86,-96
-3,-76,-73,39,35,-74,-1,76,-96,-63,-84,-98
-12,-106,-93,59,40,-99,-18,56,-118,-68,-90,-100
-11,-131,-120,71,55,-126,-12,52,-144,-89,-101,-108
-21,-127,-105,75,42,-116,-4,50,-143,-90,-97,-116
-31,-121,-89,77,29,-105,-9,29,-162,-88,-96,-115
-20,-120,-101,70,41,-110,13,50,-132,-80,-88,-108
-24,-111,-87,68,32,-99,-13,5,-161,-85,-89,-113
-55,-161,-107,108,26,-134,83,182,5,-54,-80,-95
51,0,-51,-25,51,-25,30,218,228,145,107,91
431,498,68,-465,181,283,-447,-263,239,672,646,640
497,801,304,-649,96,552,-806,-817,-158,768,763,793
119,577,459,-348,-170,517,-834,-1100,-938,49,70,109
-31,83,113,-26,-72,98,-517,-649,-852,-311,-308,-292
-36,-166,-130,101,47,-147,-175,-163,-397,-241,-259,-261
-74,-152,-78,114,2,-115,-47,-38,-249,-193,-212,-208
-52,-135,-83,94,15,-109,9,60,-109,-118,-139,-132
-51,-134,-83,93,16,-108,8,66,-109,-107,-127,-124
-59,-142,-83,101,12,-112,16,72,-82,-93,-116,-108
-60,-140,-79,100,9,-109,21,78,-82,-88,-112,-105
-58,-138,-80,98,12,-109,25,95,-78,-82,-107,-98
-56,-135,-78,95,12,-106,33,97,-68,-75,-100,-89
-47,-135,-89,91,21,-112,33,92,-70,-72,-97,-86
-35,-131,-97,84,31,-114,41,106,-59,-63,-88,-79
-41,-129,-88,85,23,-108,41,116,-60,-61,-86,-81
-38,-126,-88,83,25,-107,39,119,-52,-54,-79,-78
-41,-122,-82,82,21,-102,41,128,-48,-48,-72,-75
-56,-135,-79,96,12,-107,39,129,-41,-41,-66,-75
-46,-121,-75,84,15,-98,41,144,-33,-34,-58,-73
-45,-110,-66,78,11,-88,38,164,-12,-28,-53,-65
-29,-103,-73,66,22,-88,35,171,3,-21,-46,-61
-13,-95,-82,54,35,-88,46,192,24,-10,-32,-48
-16,-94,-78,55,31,-86,38,203,35,2,-19,-26
25,-57,-83,16,54,-70,23,211,44,24,5,3
45,-20,-65,-12,55,-42,9,208,59,53,32,27
48,13,-35,-30,41,-11,-9,193,55,69,53,40
51,41,-10,-46,30,16,-22,184,46,81,52,54
55,52,-3,-54,29,24,-36,168,28,84,52,56
68,58,-10,-63,39,23,-42,144,1,76,65,51
45,52,7,-49,19,30,-38,123,-16,69,64,48
34,42,7,-38,13,24,-32,110,-30,64,57,46
29,34,5,-31,12,19,-27,96,-62,47,31,32
2,11,8,-7,-3,10,-19,83,-87,19,-6,-2
-19,-31,-12,26,-3,-22,-6,72,-112,-22,-43,-37
-24,-59,-35,42,6,-46,5,63,-135,-50,-70,-64
-42,-83,-41,63,-1,-62,15,52,-152,-73,-83,-84
-72,-107,-35,90,-19,-71,23,43,-180,-104,-105,-100
-86,-119,-33,103,-27,-75,32,37,-180,-105,-116,-111
-92,-120,-29,106,-31,-75,32,32,-180,-104,-119,-115
-97,-121,-24,109,-37,-72,29,29,-190,-105,-124,-116
-93,-125,-33,109,-29,-79,31,23,-188,-105,-125,-119
-81,-125,-44,103,-18,-84,29,20,-199,-114,-125,-120
-82,-127,-45,105,-18,-86,33,25,-211,-115,-124,-123
-87,-132,-45,110,-21,-88,45,31,-209,-115,-132,-126
-90,-135,-45,113,-22,-90,43,37,-204,-115,-136,-125
-81,-135,-54,109,-13,-95,38,46,-202,-115,-134,-125
-81,-135,-53,108,-13,-94,37,51,-197,-115,-132,-125
-87,-135,-48,111,-19,-91,30,49,-195,-111,-129,-125
-88,-135,-46,112,-21,-90,33,55,-199,-110,-131,-125
-95,-136,-40,115,-27,-88,45,65,-200,-110,-134,-125
-91,-132,-41,112,-25,-86,40,60,-200,-110,-135,-125
-85,-130,-45,108,-20,-87,35,55,-200,-110,-135,-125
-73,-130,-57,102,-8,-93,30,49,-199,-111,-135,-125
-69,-130,-61,99,-4,-96,23,43,-203,-108,-135,-128
-74,-130,-56,102,-9,-92,21,39,-208,-120,-137,-132
-76,-130,-55,103,-10,-92,25,34,-211,-131,-145,-135
-84,-134,-50,109,-17,-92,25,29,-209,-130,-149,-135
-85,-135,-50,110,-17,-92,25,24,-214,-135,-151,-135
-84,-135,-50,109,-17,-92,33,20,-224,-135,-155,-135
-86,-136,-49,111,-18,-92,36,14,-230,-135,-155,-135
-73,-132,-59,103,-7,-96,34,17,-238,-135,-155,-131
-71,-130,-59,100,-6,-94,32,20,-241,-134,-155,-130
-75,-130,-55,103,-10,-92,29,20,-239,-135,-155,-130
-78,-130,-52,104,-13,-91,32,19,-237,-134,-155,-130
-83,-130,-48,107,-18,-89,40,15,-234,-136,-155,-129
-86,-129,-44,108,-21,-86,41,15,-236,-140,-159,-132
-85,-126,-41,105,-22,-83,39,14,-237,-140,-160,-137
-72,-125,-52,99,-9,-88,36,21,-235,-140,-160,-135
-78,-124,-47,101,-15,-85,35,24,-235,-140,-160,-135
-83,-119,-35,101,-24,-77,34,16,-235,-140,-159,-135
-64,-121,-57,93,-4,-89,29,13,-235,-140,-166,-135
-56,-120,-65,88,5,-92,26,6,-235,-140,-171,-134
-75,-124,-49,100,-12,-86,23,0,-241,-140,-167,-136
-102,-142,-41,122,-30,-91,19,17,-250,-140,-165,-141
-101,-141,-40,121,-30,-91,14,26,-248,-140,-161,-140
-94,-134,-40,114,-27,-86,20,17,-244,-139,-160,-137
-95,-130,-35,113,-29,-82,26,15,-241,-135,-157,-135
-88,-123,-35,106,-26,-79,25,10,-236,-135,-154,-134
-85,-119,-34,102,-25,-76,25,5,-236,-135,-156,-141
-85,-115,-30,100,-27,-72,25,10,-245,-135,-155,-141
-80,-109,-29,94,-25,-69,26,19,-250,-135,-156,-145
-91,-118,-27,105,-32,-72,24,24,-246,-132,-153,-155
-111,-133,-23,122,-44,-78,20,19,-242,-127,-150,-148
-89,-128,-38,109,-25,-83,20,20,-239,-124,-145,-143
-73,-115,-42,94,-15,-78,20,21,-235,-121,-143,-138
-87,-115,-29,101,-29,-72,20,18,-231,-116,-138,-131
-81,-103,-22,93,-30,-62,21,39,-229,-116,-134,-132
-68,-73,-5,71,-32,-38,15,50,-238,-121,-146,-135
-51,-70,-19,60,-16,-44,13,57,-232,-119,-150,-134
-40,-70,-30,55,-5,-50,4,47,-243,-120,-150,-136
-39,-78,-39,59,0,-58,5,46,-237,-120,-149,-134
-39,-97,-58,69,10,-78,-5,33,-241,-119,-151,-136
-55,-111,-56,83,1,-83,-4,30,-253,-129,-155,-140
-100,-118,-18,109,-40,-68,6,22,-264,-139,-155,-140
-110,-111,0,111,-55,-55,8,8,-272,-132,-155,-140
-93,-111,-18,102,-37,-64,15,20,-243,-118,-153,-139
-111,-118,-8,115,-51,-63,4,-4,-287,-121,-158,-141
-101,-147,-46,124,-27,-96,122,236,-80,-86,-119,-113
79,68,-11,-73,44,29,-15,192,110,167,129,135
434,569,135,-502,149,352,-511,-366,58,709,670,687
385,782,397,-584,-6,590,-817,-918,-470,621,617,661
11,488,478,-250,-234,483,-780,-1086,-1195,-122,-103,-47
-80,33,112,24,-96,72,-436,-553,-953,-349,-360,-323
-101,-170,-68,136,-16,-119,-129,-122,-555,-274,-301,-271
-120,-157,-37,139,-42,-97,-26,-15,-428,-220,-244,-230
-97,-132,-35,115,-31,-84,7,53,-309,-149,-180,-161
-107,-126,-18,117,-44,-72,18,67,-316,-141,-173,-145
-104,-133,-29,119,-37,-81,29,92,-285,-122,-155,-128
-103,-126,-23,115,-40,-74,24,81,-300,-120,-152,-124
-100,-125,-26,113,-36,-76,25,87,-294,-108,-141,-114
-96,-122,-26,109,-35,-73,26,93,-294,-104,-137,-109
-82,-119,-37,101,-22,-78,24,94,-298,-99,-133,-107
-79,-117,-38,98,-20,-78,27,97,-285,-94,-127,-102
-81,-110,-30,96,-25,-70,39,104,-271,-91,-124,-99
-80,-107,-27,94,-26,-67,37,114,-244,-85,-119,-94
-83,-102,-19,93,-32,-61,31,137,-223,-81,-113,-92
-82,-97,-15,90,-33,-56,28,147,-202,-72,-106,-84
-79,-96,-17,88,-30,-57,22,145,-165,-64,-99,-80
-76,-101,-26,89,-25,-63,19,159,-133,-56,-92,-73
-74,-99,-25,87,-24,-62,13,170,-107,-49,-75,-63
-62,-84,-22,73,-20,-52,8,190,-69,-33,-65,-47
-44,-63,-19,54,-12,-41,1,207,-35,-13,-50,-29
-11,-37,-25,24,7,-31,-3,204,-7,0,-35,-8
2,-4,-6,1,4,-5,-13,195,5,17,-20,13
-6,23,29,-8,-18,26,-29,190,45,37,4,25
-13,33,46,-10,-30,40,-45,180,11,43,-2,43
5,63,58,-34,-27,60,-63,164,6,49,35,43
35,115,79,-75,-22,97,-66,141,87,38,-45,40
-30,61,91,-16,-61,76,-64,130,66,41,-65,31
-100,-10,90,54,-95,40,-66,149,79,24,-25,34
