I,II,III,aVR,aVL,aVF,V1,V2,V3,V4,V5,V6
-351,-326,25,338,-187,-150,188,77,30,12,-122,-619
-268,-215,54,241,-161,-80,119,137,146,140,-52,-560
145,22,-124,-83,135,-51,-292,-131,-2,211,292,-269
883,453,-430,-667,656,11,-1087,-740,-528,50,787,195
720,607,-113,-664,417,247,-1171,-1170,-1042,-485,614,243
-81,146,227,-33,-154,186,-631,-1166,-1189,-863,29,-212
-134,-89,45,111,-90,-22,-280,-535,-590,-458,-70,-480
-86,-49,37,68,-61,-6,-51,-163,-203,-154,-26,-537
-88,-63,25,76,-56,-19,26,-74,-109,-101,-45,-588
-49,-38,10,43,-29,-14,56,-7,-50,-50,-28,-596
-70,-46,24,57,-47,-10,94,1,-41,-41,-26,-603
-48,-44,4,46,-26,-20,98,42,8,-10,-10,-611
-37,-21,16,29,-27,-2,113,50,4,-8,-7,-617
-24,-17,7,20,-16,-5,112,74,30,21,1,-614
-17,3,19,7,-18,11,112,82,29,24,8,-612
14,35,20,-25,-3,27,105,101,43,24,13,-609
16,51,34,-34,-9,42,103,110,55,36,29,-609
31,57,26,-45,2,41,99,120,70,51,40,-621
43,57,13,-50,15,35,95,141,92,72,42,-620
53,64,11,-59,21,37,93,153,102,84,44,-611
70,79,9,-74,30,44,89,187,142,114,49,-606
89,99,11,-94,39,55,90,221,177,142,65,-597
97,106,10,-101,43,58,90,240,193,154,75,-587
109,119,10,-114,49,64,90,276,228,179,82,-577
138,155,16,-147,61,85,90,311,282,212,93,-567
157,188,31,-173,62,109,85,360,339,268,127,-557
185,221,36,-203,74,128,77,414,384,305,159,-547
207,249,42,-228,82,145,71,435,417,321,160,-532
223,273,50,-248,86,161,64,442,443,348,178,-515
222,270,48,-246,87,159,56,439,443,341,195,-498
212,256,43,-235,84,149,40,409,416,329,184,-481
201,243,42,-222,80,142,24,343,363,308,173,-490
164,198,34,-181,65,116,24,249,270,244,146,-520
129,138,9,-134,60,73,26,171,183,180,109,-551
88,81,-7,-84,47,36,25,117,124,142,81,-576
50,40,-10,-45,30,14,25,71,76,98,49,-596
21,4,-17,-12,19,-6,25,46,48,59,26,-617
-6,-27,-22,17,8,-24,23,29,28,47,25,-629
-1,-30,-29,16,14,-29,20,11,12,38,25,-626
3,-24,-27,11,15,-25,17,-2,-3,27,25,-624
-8,-20,-13,14,3,-16,14,-6,-9,20,25,-625
-10,-15,-5,13,-2,-10,10,-8,-14,16,25,-624
-10,-11,-2,11,-4,-6,10,-11,-20,14,20,-625
-6,-5,2,5,-3,-1,14,-14,-15,10,17,-623
-6,0,5,3,-6,2,16,-16,-10,5,13,-616
-4,6,9,-1,-7,7,20,-15,-6,7,10,-607
-2,12,13,-5,-8,12,20,-15,-1,10,6,-600
-10,15,26,-3,-18,20,20,-15,4,11,3,-592
-4,33,37,-15,-21,35,20,-15,3,15,0,-586
6,42,36,-24,-15,38,20,-15,-1,15,-3,-584
10,39,30,-25,-10,34,20,-17,-3,9,-6,-581
14,40,26,-28,-6,32,20,-21,-6,4,-10,-578
14,35,21,-25,-4,28,20,-25,-9,-1,-9,-575
19,35,16,-27,1,25,20,-25,-11,-7,-23,-574
17,34,17,-26,0,25,20,-26,-17,-13,-37,-567
5,30,25,-17,-10,27,20,-24,-25,-18,-35,-561
1,30,29,-16,-14,30,19,-29,-31,-31,-35,-556
-1,30,31,-14,-16,30,23,-40,-37,-42,-32,-549
-6,30,36,-13,-21,32,25,-40,-43,-40,-29,-545
-2,30,32,-14,-17,31,25,-40,-46,-40,-31,-539
-3,26,30,-11,-17,28,25,-39,-50,-38,-30,-533
-11,20,30,-4,-21,25,25,-41,-56,-36,-30,-529
-11,15,26,-3,-19,21,25,-37,-65,-34,-30,-520
-16,9,25,3,-21,17,20,-49,-69,-40,-30,-511
-21,4,24,8,-23,14,20,-68,-66,-57,-30,-503
-32,-1,31,16,-31,14,19,-62,-65,-55,-28,-494
-49,-5,44,27,-46,19,15,-59,-65,-48,-23,-486
-53,-5,48,29,-50,21,15,-56,-65,-45,-17,-477
-56,-8,47,32,-51,19,18,-51,-64,-39,-14,-469
-55,-12,44,33,-49,16,30,-48,-68,-35,-8,-461
-56,-15,41,36,-48,13,43,-36,-70,-39,-6,-453
-56,-18,38,37,-47,10,50,-21,-70,-44,-9,-444
-57,-22,35,39,-46,6,50,-12,-70,-58,-12,-437
-60,-25,35,42,-47,5,50,-9,-70,-70,-15,-431
-60,-25,35,42,-47,5,50,-7,-75,-70,-18,-424
-65,-30,35,47,-50,2,49,-3,-74,-70,-21,-419
-64,-29,35,46,-49,3,53,-1,-77,-71,-18,-403
-57,-22,36,39,-46,7,55,2,-79,-69,-12,-385
-52,-17,34,34,-43,8,57,15,-81,-71,-8,-383
-40,-8,32,24,-36,12,59,28,-72,-63,-3,-377
-18,5,23,6,-21,14,61,46,-37,-36,1,-359
11,32,21,-22,-5,26,65,62,-27,-27,6,-332
30,42,12,-37,9,27,69,67,-29,-32,13,-303
37,50,13,-44,12,31,54,63,-18,-29,29,-292
17,61,44,-39,-14,52,16,45,-12,-31,31,-289
6,23,17,-14,-6,20,7,36,-19,-30,20,-284
0,-11,-11,6,5,-11,23,33,-30,-30,9,-280
-16,-32,-15,24,0,-23,33,24,-47,-47,-4,-275
-37,-62,-25,49,-6,-43,44,27,-63,-61,-8,-276
-69,-74,-5,72,-32,-40,45,12,-77,-70,-14,-276
-64,-66,-2,64,-31,-34,28,20,-63,-63,-10,-269
-101,-75,27,88,-64,-23,35,10,-77,-76,-23,-271
-82,-65,17,74,-50,-24,11,18,-64,-58,-13,-261
-91,-76,16,84,-54,-30,68,41,-38,-56,-36,-278
-140,-66,73,103,-106,4,196,173,93,42,-52,-290
-8,81,90,-37,-49,85,107,240,243,238,99,-181
526,333,-193,-429,359,69,-492,-299,-157,179,485,171
1147,709,-438,-927,792,135,-1206,-985,-787,-153,795,591
622,628,6,-625,308,317,-1025,-1369,-1246,-750,409,470
-81,125,207,-22,-144,166,-481,-1069,-1058,-831,-45,49
-39,10,48,14,-43,29,-201,-399,-396,-334,-47,-106
-45,27,72,9,-59,49,-5,-167,-143,-122,-33,-149
-38,-28,11,33,-24,-9,33,-79,-77,-65,-28,-165
-41,-41,0,41,-20,-20,71,-25,-24,-44,-23,-153
-52,-54,-3,53,-24,-28,86,-16,-4,-40,-23,-154
-42,-41,1,41,-21,-20,76,-2,16,-26,-14,-146
-60,-41,19,50,-39,-10,84,0,18,-16,-15,-144
-54,-32,22,42,-37,-5,77,21,33,2,-9,-138
-56,-28,28,41,-42,1,82,22,50,-1,-8,-124
-38,-22,16,30,-26,-3,79,27,68,6,-4,-110
-26,-6,20,15,-23,7,85,40,67,8,-1,-105
-4,6,10,-1,-7,8,85,68,88,11,0,-98
6,18,12,-12,-3,15,86,84,111,27,5,-86
-12,24,37,-6,-25,30,90,84,114,52,12,-71
-4,34,38,-15,-21,36,90,113,146,70,23,-60
13,41,29,-27,-8,35,88,147,182,98,46,-49
33,59,26,-47,3,43,85,179,213,130,50,-28
59,83,24,-72,17,53,82,220,253,156,67,-9
73,95,23,-84,25,59,80,262,291,186,100,6
114,132,18,-123,48,75,76,325,351,235,110,28
139,165,27,-152,56,96,74,376,405,279,127,46
150,186,36,-169,57,111,85,409,447,302,145,68
177,211,34,-194,71,122,78,414,453,307,155,96
183,219,37,-201,73,128,63,392,438,304,171,99
183,214,31,-199,75,122,52,364,414,307,173,90
165,189,23,-177,71,106,47,293,344,264,151,84
137,156,19,-147,59,88,51,203,262,209,126,78
95,97,2,-97,46,49,50,129,184,154,94,68
51,27,-24,-38,37,1,50,78,122,92,58,48
28,-17,-45,-5,37,-31,50,43,82,61,29,27
-1,-48,-47,25,23,-47,50,13,49,34,10,11
-23,-71,-48,47,13,-59,45,0,35,12,3,5
-24,-81,-56,53,16,-68,45,-7,32,-3,-4,0
-25,-80,-55,53,15,-67,44,-15,28,-19,-12,-6
-25,-80,-55,53,15,-67,39,-23,25,-31,-20,-12
-24,-80,-56,53,16,-68,41,-22,20,-31,-24,-14
-26,-79,-53,53,14,-65,37,-17,22,-24,-20,-3
-26,-87,-62,57,18,-74,35,-15,26,-21,-21,10
-20,-97,-76,59,28,-87,35,-11,25,-16,-17,21
-20,-93,-73,57,27,-83,35,-6,25,-11,-15,22
-19,-89,-70,54,25,-80,34,-4,25,-10,-15,19
-28,-96,-68,62,20,-82,37,2,24,-10,-12,20
-37,-102,-65,70,14,-83,49,9,29,-10,-8,20
-33,-96,-63,65,15,-79,45,4,28,-10,-15,20
-37,-97,-59,67,11,-78,36,-8,18,-10,-38,19
-58,-118,-60,88,2,-89,32,-19,10,-16,-41,14
-76,-135,-60,106,-7,-97,23,-30,0,-22,-39,11
-75,-135,-60,105,-7,-97,22,-40,-9,-26,-45,8
-75,-135,-60,105,-7,-97,25,-46,-27,-32,-45,3
-82,-135,-53,109,-14,-94,22,-44,-35,-38,-45,0
-91,-135,-44,114,-23,-89,19,-45,-35,-40,-55,-3
-98,-133,-35,115,-31,-83,16,-44,-35,-40,-61,-8
-100,-129,-30,115,-35,-79,13,-47,-36,-40,-63,-11
-100,-130,-30,115,-35,-80,10,-58,-49,-40,-66,-14
-100,-130,-30,115,-35,-80,11,-60,-51,-40,-71,-19
-100,-130,-30,115,-35,-80,19,-60,-49,-41,-77,-21
-100,-130,-30,115,-35,-80,27,-65,-51,-44,-82,-27
-105,-134,-29,120,-37,-82,27,-65,-50,-45,-84,-34
-110,-135,-25,123,-42,-80,25,-64,-50,-45,-81,-35
-115,-135,-20,125,-47,-77,24,-60,-50,-45,-80,-35
-120,-135,-15,128,-52,-75,21,-58,-50,-45,-79,-34
-124,-135,-11,130,-55,-73,18,-54,-50,-42,-75,-34
-127,-133,-6,130,-61,-69,27,-52,-50,-40,-74,-36
-120,-127,-7,124,-56,-67,41,-49,-50,-40,-84,-31
-109,-124,-14,117,-47,-69,40,-53,-52,-36,-91,-30
-98,-119,-21,109,-38,-70,38,-65,-59,-34,-90,-25
-87,-114,-28,101,-29,-71,35,-65,-60,-36,-87,-25
-76,-110,-34,94,-21,-72,34,-61,-60,-40,-85,-38
-63,-105,-41,84,-11,-73,36,-59,-60,-40,-84,-41
-58,-101,-43,79,-7,-72,34,-56,-60,-40,-83,-40
-60,-96,-36,79,-12,-66,36,-54,-60,-38,-76,-41
-61,-92,-31,77,-15,-61,34,-49,-57,-31,-78,-40
-62,-87,-25,75,-18,-56,37,-43,-48,-26,-89,-40
-62,-81,-19,72,-21,-50,42,-38,-41,-19,-85,-30
-55,-68,-13,62,-21,-40,50,-31,-23,-16,-77,-17
-53,-48,5,50,-29,-21,60,-16,-3,3,-71,-9
-36,-38,-2,37,-17,-20,62,-4,7,16,-64,-1
-17,-34,-17,26,1,-25,44,-5,18,9,-58,8
-22,-36,-14,29,-4,-25,6,-19,4,-1,-56,13
-18,-34,-16,27,0,-25,-6,-26,-19,-9,-48,9
-27,-39,-13,34,-7,-26,7,-41,-34,-26,-66,0
-43,-71,-28,58,-8,-49,13,-59,-56,-52,-106,-9
-89,-103,-14,97,-37,-58,26,-56,-67,-75,-123,-26
-115,-99,16,107,-66,-41,27,-66,-75,-74,-117,-39
-85,-85,0,85,-42,-42,20,-50,-56,-61,-104,-35
-93,-89,4,91,-48,-42,33,-64,-73,-71,-111,-39
-59,-66,-7,63,-25,-36,11,-43,-45,-47,-91,-27
-120,-102,18,111,-68,-42,84,-13,-25,-62,-124,-66
-147,-78,69,113,-108,-4,191,135,143,77,-106,-97
58,99,40,-79,9,69,32,186,295,281,101,64
674,400,-274,-537,473,63,-646,-316,-118,216,534,484
1094,744,-350,-919,722,197,-1211,-895,-692,-120,766,828
380,569,189,-474,95,379,-896,-1244,-1142,-722,269,583
-127,121,248,3,-187,184,-449,-936,-944,-752,-155,154
-61,4,65,28,-63,34,-187,-327,-348,-292,-135,10
-101,-4,97,52,-99,46,-8,-137,-139,-125,-97,-25
-59,-26,33,43,-46,3,4,-60,-62,-72,-79,-41
-80,-35,46,57,-63,5,41,-27,-35,-47,-86,-37
-84,-52,31,68,-57,-10,40,11,-5,-32,-79,-34
-79,-50,29,65,-54,-11,39,37,11,-24,-76,-29
-76,-48,28,62,-51,-10,39,37,10,-24,-73,-28
-61,-44,17,52,-38,-13,32,50,26,-15,-68,-21
-61,-41,20,50,-40,-10,37,56,23,-16,-65,-21
-50,-38,12,43,-31,-13,29,71,41,-5,-53,-30
-47,-31,16,38,-31,-7,30,72,47,3,-48,-28
-34,-24,10,29,-22,-7,25,93,68,28,-38,-23
-26,-17,9,22,-18,-4,22,100,81,44,-31,-19
-24,-11,12,17,-18,1,20,109,78,49,-17,-14
-7,8,15,-1,-11,11,17,145,110,69,-2,-8
8,33,25,-21,-8,29,15,159,129,77,8,3
7,51,44,-29,-19,47,15,181,149,104,33,12
19,66,47,-43,-14,56,15,223,196,138,45,24
26,76,49,-51,-12,62,15,266,251,171,68,57
42,94,52,-68,-5,73,15,299,284,199,88,81
66,121,56,-94,5,88,10,329,309,223,101,81
93,146,52,-119,20,99,2,378,366,264,136,91
128,175,46,-152,41,110,-4,386,383,273,154,99
128,190,63,-159,32,126,-11,357,364,258,164,93
118,180,62,-149,28,121,-17,321,326,250,160,85
115,168,53,-142,31,110,-23,261,275,229,151,80
110,158,48,-134,30,103,-29,194,217,179,127,68
85,125,40,-106,22,83,-25,142,144,134,84,48
45,79,34,-62,5,56,-17,99,84,96,52,27
17,41,24,-29,-4,33,-11,64,47,60,26,7
-4,17,22,-7,-13,19,-4,52,27,37,13,-9
-4,2,5,1,-5,3,2,45,13,19,4,-22
-14,-8,5,11,-9,-2,8,35,1,14,-4,-30
-29,0,28,14,-28,14,17,31,-10,16,-12,-43
-18,5,23,6,-21,13,20,28,-12,11,-19,-52
-31,-11,20,21,-26,4,20,26,-4,10,-15,-47
-35,-17,19,26,-27,1,20,22,0,10,-10,-45
-26,-14,11,20,-18,-2,20,20,8,5,-5,-41
-49,-15,34,32,-41,9,20,18,28,5,-1,-40
-58,-15,43,36,-50,13,20,14,30,5,4,-37
-35,-14,21,25,-28,3,20,15,23,5,7,-34
-29,-19,11,24,-20,-4,20,11,20,5,12,-30
-42,-31,10,36,-26,-10,20,10,14,3,15,-32
-40,-31,9,35,-24,-11,19,10,11,-2,4,-56
-36,-30,7,32,-22,-11,26,5,6,-5,-14,-66
-33,-30,3,31,-18,-13,32,5,1,-8,-27,-65
-40,-30,10,35,-25,-10,26,4,-3,-13,-31,-70
-42,-29,13,35,-28,-8,24,-1,-8,-15,-33,-70
-22,-34,-12,28,-4,-23,19,1,-12,-21,-36,-66
-26,-47,-21,37,-2,-34,15,-3,-23,-26,-39,-65
-32,-51,-19,41,-6,-35,17,-9,-38,-35,-40,-65
-28,-54,-25,42,-1,-40,25,-14,-46,-50,-40,-65
-33,-58,-25,46,-4,-41,29,-20,-45,-50,-40,-64
-38,-60,-22,49,-8,-41,26,-15,-45,-49,-40,-66
-41,-60,-19,50,-11,-39,23,-15,-45,-51,-37,-70
-44,-60,-16,53,-14,-38,20,-14,-44,-49,-35,-70
-46,-60,-13,53,-17,-36,18,-20,-52,-56,-35,-70
-50,-60,-10,55,-20,-35,14,-30,-58,-62,-35,-70
-49,-60,-11,55,-19,-35,18,-17,-54,-58,-35,-70
-37,-57,-20,47,-9,-38,27,-4,-51,-55,-35,-66
-40,-70,-31,55,-4,-50,26,-4,-48,-52,-42,-65
-45,-77,-32,61,-6,-54,25,-6,-45,-50,-53,-65
-45,-74,-29,60,-7,-51,25,-3,-45,-48,-55,-60
-46,-72,-26,60,-10,-49,24,0,-45,-44,-55,-60
-46,-69,-23,58,-11,-46,26,0,-45,-42,-55,-59
-51,-71,-20,61,-15,-45,24,0,-50,-39,-55,-53
-42,-61,-19,52,-12,-40,34,0,-48,-36,-55,-48
-41,-49,-8,45,-16,-28,42,0,-41,-34,-49,-43
-42,-36,6,39,-24,-15,40,7,-36,-28,-43,-36
-20,-18,2,19,-11,-8,39,18,-32,-19,-38,-31
-18,4,22,7,-20,13,33,28,-25,-10,-31,-33
-22,16,38,3,-30,27,38,38,-26,-2,-33,-36
-13,10,23,2,-18,16,19,35,-23,14,-34,-38
-19,0,19,9,-19,9,-13,15,-30,-8,-37,-42
-12,-7,6,9,-9,-1,-16,10,-54,-37,-39,-45
-16,-14,2,15,-9,-6,-6,-2,-77,-55,-41,-44
-38,-33,5,35,-21,-14,-7,-10,-82,-74,-55,-39
-61,-52,9,57,-35,-21,2,-17,-94,-83,-73,-40
-64,-50,14,57,-39,-18,4,-35,-102,-94,-77,-41
-58,-45,13,51,-35,-16,8,-21,-94,-89,-78,-38
-75,-48,27,61,-50,-10,21,-29,-128,-96,-80,-43
-56,-59,-3,57,-26,-30,9,13,-83,-70,-67,-41
-108,-97,11,102,-59,-43,103,40,-44,-69,-118,-86
-109,-36,74,72,-91,19,179,197,145,91,-100,-94
120,141,21,-130,49,81,-47,125,172,258,151,109
782,465,-317,-623,549,74,-789,-426,-272,177,651,561
1031,744,-288,-887,659,228,-1231,-934,-791,-210,774,841
251,448,197,-350,27,323,-814,-1214,-1193,-810,186,510
-115,56,171,29,-143,113,-409,-781,-841,-681,-142,128
-40,4,44,18,-42,24,-158,-228,-277,-228,-92,49
-82,-27,55,54,-68,14,-15,-96,-137,-128,-94,-3
-72,-51,20,61,-46,-15,-7,-15,-68,-72,-84,-22
-93,-48,45,70,-69,-1,18,-6,-60,-65,-86,-26
-78,-47,31,63,-54,-8,12,15,-40,-47,-79,-39
-85,-41,44,63,-64,2,22,22,-28,-37,-77,-35
-79,-40,39,59,-59,-1,24,46,-10,-32,-72,-30
-69,-34,35,51,-51,1,29,69,4,-23,-70,-22
-61,-33,28,46,-44,-2,37,69,22,-18,-80,-16
-46,-28,18,37,-32,-5,61,80,46,0,-69,-9
-38,-26,12,32,-25,-7,73,82,46,11,-57,-1
-28,-23,5,25,-16,-9,81,92,67,27,-50,7
-33,-20,13,26,-23,-3,106,98,79,38,-47,15
-36,-18,17,27,-26,0,104,114,98,49,-42,23
-21,3,24,9,-23,13,106,137,127,69,-22,29
0,22,22,-11,-12,22,110,151,145,91,-3,36
26,44,19,-35,3,31,110,173,185,112,16,45
44,61,16,-53,14,38,108,217,230,146,38,56
47,60,13,-54,17,36,99,268,274,181,60,74
80,90,10,-85,35,50,93,316,323,211,78,92
110,122,11,-116,49,66,85,356,371,245,89,107
121,146,24,-134,48,85,77,380,411,284,122,117
141,180,40,-161,50,110,71,388,410,301,154,128
162,201,39,-182,61,120,65,365,402,301,164,133
165,188,23,-177,71,105,65,309,369,290,159,128
131,141,10,-136,60,76,65,243,296,243,142,125
91,88,-3,-90,47,42,65,167,230,189,123,97
59,45,-14,-52,36,15,65,95,162,137,86,55
31,3,-28,-17,30,-12,67,56,109,91,46,32
1,-44,-45,22,24,-44,70,29,72,63,19,17
-16,-70,-53,43,19,-61,70,7,38,48,10,8
-17,-76,-59,47,21,-67,74,-1,25,43,7,3
-33,-90,-57,62,12,-74,75,-6,20,36,0,0
-30,-97,-67,64,19,-82,74,-10,15,29,-5,-3
-19,-91,-72,55,27,-82,71,-15,12,22,-10,-8
-26,-86,-60,56,17,-72,66,-20,5,22,-16,-11
-27,-81,-55,54,14,-68,64,-17,8,26,-20,-15
-27,-74,-47,51,11,-61,59,-14,16,29,-20,-20
-30,-71,-41,51,5,-56,56,-16,22,33,-20,-24
-40,-75,-35,58,-2,-54,53,-15,29,35,-20,-29
-47,-75,-28,61,-9,-51,48,-16,25,29,-19,-33
-51,-76,-25,64,-12,-51,45,-14,17,23,-21,-38
-58,-80,-23,69,-18,-51,42,-10,11,19,-24,-40
-61,-80,-19,70,-21,-50,37,-10,4,12,-27,-40
-61,-78,-17,70,-21,-47,35,-8,-2,7,-29,-43
-61,-74,-13,68,-23,-44,41,-5,-8,3,-35,-46
-52,-76,-23,64,-14,-49,42,-5,-13,-4,-45,-44
-33,-71,-38,52,3,-54,38,-9,-18,3,-45,-41
-38,-70,-33,54,-2,-51,36,-16,-21,8,-45,-40
-44,-69,-25,57,-9,-47,32,-23,-26,-3,-45,-40
-53,-72,-20,63,-17,-46,30,-29,-30,-12,-45,-40
-76,-88,-12,82,-32,-50,27,-37,-36,-23,-45,-39
-76,-83,-6,80,-35,-44,25,-39,-42,-29,-40,-43
-72,-73,-1,73,-35,-37,25,-35,-49,-33,-40,-45
-67,-67,0,67,-33,-33,25,-35,-51,-35,-40,-46
-58,-58,0,58,-29,-29,25,-35,-50,-43,-40,-50
-56,-56,0,56,-27,-27,25,-35,-50,-48,-40,-51
-52,-52,0,52,-25,-26,30,-35,-50,-44,-42,-54
-51,-50,1,50,-26,-24,30,-32,-50,-45,-46,-55
-53,-46,6,49,-29,-20,31,-27,-52,-41,-45,-58
-56,-45,12,50,-33,-16,35,-24,-56,-40,-45,-60
-57,-42,15,49,-36,-13,35,-21,-55,-40,-45,-62
-57,-37,20,47,-38,-8,33,-16,-55,-40,-45,-68
-59,-34,25,46,-41,-5,29,-16,-55,-39,-49,-71
-52,-31,22,41,-37,-5,27,-27,-55,-44,-52,-76
-45,-26,20,36,-32,-3,24,-40,-67,-59,-56,-80
-46,-26,20,36,-33,-3,21,-42,-68,-65,-59,-80
-50,-30,20,40,-35,-5,20,-39,-60,-65,-60,-80
-49,-30,20,39,-35,-5,26,-36,-57,-65,-60,-80
-54,-32,21,43,-37,-5,33,-33,-49,-65,-60,-80
-61,-36,25,48,-42,-5,33,-30,-46,-65,-60,-80
-60,-35,25,47,-42,-5,30,-29,-49,-65,-60,-80
-57,-32,25,44,-41,-3,27,-25,-50,-62,-60,-80
-53,-27,25,39,-39,-1,25,-25,-53,-59,-55,-80
-49,-25,25,36,-37,0,21,-25,-56,-56,-48,-80
-43,-21,22,32,-32,0,21,-24,-51,-53,-41,-80
-35,-16,19,25,-26,1,20,-25,-38,-50,-34,-69
-31,-14,16,22,-23,1,23,-20,-24,-49,-27,-54
-17,-5,13,11,-15,4,46,-13,-9,-32,-27,-42
-6,4,11,1,-9,7,53,-5,3,-14,-31,-29
9,17,8,-13,0,12,42,-2,15,-1,-30,-18
23,28,5,-26,9,16,31,-14,29,7,-30,-18
11,13,2,-12,4,8,11,-30,6,-15,-31,-25
3,0,-3,-1,3,-1,9,-50,-33,-41,-29,-25
-24,-27,-3,26,-11,-14,19,-65,-57,-61,-41,-38
-43,-60,-16,52,-14,-38,22,-59,-53,-69,-62,-59
-58,-69,-11,63,-23,-40,32,-70,-56,-78,-75,-68
-53,-61,-8,58,-22,-34,20,-61,-39,-61,-65,-62
-71,-69,2,70,-36,-33,31,-66,-42,-70,-75,-68
-70,-61,9,66,-39,-26,19,-68,-28,-54,-65,-62
-85,-77,7,81,-46,-35,45,-42,-24,-57,-79,-77
-152,-95,57,123,-105,-19,168,68,49,-10,-107,-129
-75,32,108,21,-92,70,146,217,259,196,12,-64
342,258,-84,-300,213,87,-333,-221,-49,190,353,248
1052,612,-440,-832,746,86,-1119,-921,-668,-60,751,690
739,597,-142,-668,440,227,-1152,-1330,-1167,-632,493,675
-38,150,188,-56,-113,169,-595,-1173,-1149,-875,-42,248
-44,2,46,20,-45,24,-262,-511,-514,-420,-99,41
-84,-4,80,44,-82,38,-43,-169,-167,-154,-72,-15
-111,-55,55,83,-83,0,23,-72,-73,-88,-78,-63
-96,-57,39,76,-68,-8,39,-25,-25,-55,-65,-73
-104,-57,47,81,-76,-5,57,-14,-16,-34,-62,-77
-70,-46,24,58,-47,-10,61,12,10,-14,-47,-73
-75,-42,33,58,-53,-4,76,17,10,-30,-47,-76
-49,-34,15,41,-32,-9,66,39,34,-19,-44,-75
-58,-30,28,44,-43,0,72,32,37,-18,-46,-74
-64,-41,23,52,-43,-9,69,48,52,-3,-45,-70
-71,-45,26,58,-48,-9,70,66,63,11,-45,-67
-45,-20,25,32,-35,2,66,72,66,20,-45,-65
-30,-5,25,17,-27,9,63,80,80,36,-36,-61
-26,-3,23,14,-25,10,61,95,97,48,-24,-60
-8,8,15,0,-12,11,57,130,125,74,-11,-53
-1,10,12,-5,-7,11,55,154,147,108,7,-32
18,24,6,-21,6,15,57,182,173,127,33,-13
34,34,0,-34,17,16,61,227,223,154,50,2
50,47,-4,-48,27,21,60,265,266,194,66,17
81,81,0,-81,40,40,64,318,317,232,86,29
107,114,7,-111,50,60,65,365,366,263,107,47
125,136,12,-131,56,74,65,399,410,297,132,66
141,160,19,-151,61,89,55,422,431,332,151,91
156,194,37,-175,59,115,39,416,416,329,173,116
149,188,39,-169,55,114,28,387,405,316,176,116
144,174,30,-159,57,101,23,313,350,304,164,107
124,145,21,-134,51,83,20,228,263,255,155,104
77,82,5,-80,36,44,16,152,186,189,120,93
61,50,-11,-55,36,19,13,90,120,133,83,65
39,18,-21,-28,30,-1,9,48,76,94,57,45
12,-15,-28,2,20,-21,23,17,34,72,31,33
-8,-45,-37,26,15,-41,33,3,13,38,20,27
-16,-56,-40,36,13,-48,29,-4,8,22,20,31
-13,-56,-43,35,16,-50,30,-11,0,26,20,30
-25,-70,-45,48,10,-57,26,-19,-5,24,20,30
-30,-70,-40,50,5,-55,24,-27,-13,26,20,30
-29,-69,-40,49,6,-55,25,-27,-13,24,19,29
-27,-66,-39,47,6,-52,25,-18,-7,26,14,26
-29,-64,-35,47,3,-49,25,-9,-3,30,11,25
-32,-67,-35,50,2,-51,25,-2,1,29,8,25
-33,-70,-37,51,2,-53,25,7,7,32,3,25
-32,-74,-42,53,6,-58,25,11,10,35,0,25
-32,-76,-45,55,7,-60,22,22,20,35,-3,23
-40,-80,-40,60,0,-60,20,42,27,32,-8,19
-43,-83,-40,63,-1,-61,20,47,14,26,-11,17
-48,-86,-38,67,-4,-62,20,42,2,22,-15,14
-54,-89,-35,72,-9,-62,20,41,-6,17,-18,11
-58,-91,-34,75,-12,-62,20,37,-13,12,-22,9
-56,-95,-40,76,-7,-67,25,35,-19,9,-25,6
-46,-94,-48,70,1,-70,25,33,-26,1,-25,5
-50,-88,-38,69,-6,-62,26,27,-32,-6,-27,5
-55,-82,-27,69,-14,-54,30,22,-38,-13,-31,5
-60,-78,-17,69,-21,-47,30,19,-40,-21,-29,6
-61,-71,-10,66,-26,-40,28,13,-40,-28,-35,2
-56,-66,-10,61,-22,-38,23,10,-39,-34,-44,0
-58,-68,-10,63,-24,-39,20,16,-34,-36,-45,0
-61,-71,-10,66,-25,-40,17,26,-23,-39,-45,0
-64,-75,-10,69,-27,-42,12,28,-31,-42,-45,0
-66,-74,-8,70,-29,-40,9,23,-42,-45,-45,-1
-65,-70,-5,68,-31,-37,5,17,-39,-45,-45,-4
-66,-68,-2,67,-32,-34,5,14,-41,-45,-41,-7
-66,-65,1,65,-33,-32,4,8,-39,-45,-40,-9
-66,-61,4,63,-35,-28,0,5,-41,-45,-40,-13
-65,-60,5,62,-35,-27,0,16,-35,-48,-40,-15
-68,-63,5,65,-36,-29,2,22,-38,-53,-40,-17
-71,-66,5,68,-38,-31,7,18,-56,-56,-40,-20
-74,-69,5,71,-39,-31,12,16,-54,-55,-40,-20
-77,-72,5,74,-41,-33,15,12,-51,-54,-40,-24
-80,-75,5,77,-42,-35,15,9,-48,-51,-40,-25
-77,-74,3,75,-39,-36,15,13,-45,-49,-40,-25
-68,-68,-1,68,-33,-34,15,15,-44,-52,-40,-31
-64,-64,0,64,-32,-31,15,15,-40,-55,-43,-37
-59,-60,0,59,-29,-30,15,18,-40,-55,-46,-43
-65,-55,10,60,-37,-22,17,21,-39,-55,-44,-45
-73,-51,23,62,-48,-14,21,19,-41,-55,-46,-48
-71,-46,25,58,-48,-10,20,16,-38,-55,-44,-51
-70,-45,25,57,-47,-10,21,15,-49,-50,-47,-54
-68,-43,25,55,-46,-9,20,15,-58,-42,-49,-55
-65,-40,26,52,-45,-6,21,16,-50,-33,-40,-50
-62,-39,23,50,-42,-7,25,13,-37,-26,-32,-46
-45,-9,36,27,-41,13,35,23,-2,-17,-23,-42
-27,17,45,5,-36,31,53,43,25,3,-19,-36
-7,28,35,-11,-21,31,48,54,37,32,-21,-37
9,38,29,-24,-10,34,39,50,32,32,-19,-40
-15,8,23,3,-19,15,36,26,10,-1,-21,-40
-30,-16,14,23,-22,-1,28,9,1,-25,-18,-39
-38,-31,7,34,-22,-12,29,-6,-16,-48,-24,-41
-64,-70,-6,67,-29,-37,16,-9,-22,-59,-48,-54
-94,-89,5,91,-49,-41,30,-19,-36,-79,-58,-64
-92,-85,7,88,-49,-39,36,-27,-29,-75,-52,-63
-108,-92,16,100,-62,-38,44,-29,-26,-72,-58,-73
-119,-93,26,106,-72,-33,36,-39,-31,-75,-52,-75
-106,-94,12,100,-58,-41,50,-8,4,-50,-62,-88
-145,-92,54,118,-99,-19,165,73,71,-5,-82,-131
-82,12,94,35,-88,53,173,239,293,203,3,-78
297,212,-86,-255,191,63,-243,-21,143,287,317,203
1047,564,-482,-805,764,41,-1029,-700,-447,51,728,642
872,680,-192,-776,532,244,-1147,-1193,-1016,-497,558,700
20,284,263,-152,-122,273,-612,-1168,-1137,-844,9,293
-60,41,101,10,-81,70,-280,-590,-576,-494,-129,26
-61,33,94,14,-78,63,-47,-177,-151,-158,-74,-35
-87,-6,82,46,-85,38,40,-76,-52,-79,-82,-72
-60,-21,39,41,-49,9,50,-34,-11,-47,-80,-81
-96,-38,58,66,-76,10,77,-23,-5,-46,-75,-88
-63,-31,32,47,-47,0,65,3,19,-31,-67,-88
-71,-26,45,48,-58,9,73,3,24,-31,-61,-84
-49,-22,27,35,-38,3,68,24,32,-24,-54,-82
-45,-14,31,29,-38,8,71,38,47,-20,-49,-79
-33,-11,22,22,-27,5,68,40,63,-16,-43,-76
-20,-4,17,12,-18,6,62,56,70,-7,-37,-74
-11,2,14,4,-13,7,58,68,83,10,-32,-70
4,9,5,-7,-1,7,53,82,92,27,-26,-62
14,16,2,-15,6,8,49,96,103,45,-21,-56
13,23,10,-18,2,16,45,109,110,56,-15,-49
10,27,17,-19,-4,22,49,135,130,75,-5,-43
27,41,14,-35,6,28,52,154,159,96,5,-37
41,55,13,-48,14,34,55,183,188,118,15,-28
58,68,10,-63,24,38,58,229,240,160,41,-13
75,84,10,-80,32,47,61,279,295,191,60,7
97,112,15,-104,40,63,57,325,336,234,75,28
120,144,24,-133,48,84,45,352,375,268,104,46
133,166,33,-150,50,99,33,379,414,281,132,59
152,191,39,-172,57,114,22,380,410,298,140,72
154,185,31,-170,61,108,10,349,383,295,131,83
147,170,22,-158,62,96,-1,299,346,274,119,75
136,152,16,-144,60,83,-15,227,281,236,109,60
102,109,7,-106,47,57,-26,164,206,184,93,45
65,65,0,-65,33,32,-18,112,139,136,62,15
46,19,-27,-32,36,-4,-9,63,92,96,20,-7
37,-13,-50,-12,44,-32,-1,29,42,47,-16,-23
9,-41,-50,16,30,-45,6,18,17,23,-32,-38
-8,-61,-54,35,23,-57,12,14,16,23,-35,-40
-11,-67,-55,40,22,-61,19,9,10,18,-35,-43
-24,-82,-58,54,17,-70,25,5,7,15,-35,-46
-24,-86,-62,55,19,-73,33,0,1,10,-35,-50
-29,-85,-56,57,14,-70,33,-3,-2,8,-34,-50
-36,-90,-54,63,9,-72,30,-8,-9,4,-38,-46
-41,-90,-50,65,5,-70,30,-9,-15,-1,-40,-43
-44,-89,-45,67,1,-66,30,-5,-10,13,-40,-40
-28,-76,-48,52,10,-61,30,-1,-2,23,-44,-38
-10,-61,-50,35,20,-55,31,1,3,13,-45,-34
-8,-58,-50,33,21,-54,34,7,12,6,-45,-38
-10,-60,-50,35,20,-55,35,-4,11,0,-45,-40
-10,-60,-50,35,20,-55,35,-18,-5,-6,-46,-40
-10,-60,-50,35,20,-55,35,-15,-21,-9,-43,-44
-15,-60,-45,38,15,-52,35,-15,-27,-15,-52,-45
-21,-61,-40,41,10,-51,33,-14,-23,-16,-65,-45
-30,-65,-35,48,3,-50,30,-33,-36,-34,-65,-50
-37,-69,-32,53,-2,-50,30,-48,-53,-57,-64,-50
-45,-70,-26,58,-9,-48,30,-43,-55,-56,-66,-50
-47,-70,-23,59,-12,-46,30,-46,-60,-54,-81,-62
-52,-70,-18,61,-17,-44,31,-45,-56,-56,-87,-66
-56,-70,-14,64,-21,-42,34,-45,-55,-54,-84,-61
-30,-70,-40,50,5,-55,37,-49,-55,-55,-82,-60
-18,-70,-52,44,17,-61,39,-50,-51,-55,-79,-55
-28,-70,-42,49,7,-55,43,-51,-49,-55,-80,-55
-29,-70,-41,50,6,-55,45,-54,-52,-63,-75,-55
-35,-70,-35,53,0,-52,45,-56,-55,-66,-75,-55
-40,-70,-30,55,-5,-50,45,-53,-56,-64,-75,-55
-40,-74,-34,57,-3,-54,45,-50,-59,-65,-75,-55
-40,-75,-35,58,-2,-55,45,-45,-60,-64,-75,-55
-39,-75,-36,58,-1,-55,45,-43,-68,-74,-77,-52
-36,-75,-39,55,2,-57,45,-39,-70,-74,-81,-49
-35,-76,-41,55,3,-58,46,-34,-63,-67,-83,-50
-35,-74,-38,55,2,-56,45,-42,-60,-63,-87,-50
-34,-67,-33,50,0,-49,46,-47,-54,-56,-89,-50
-30,-58,-27,44,-1,-42,45,-44,-50,-51,-91,-50
-26,-49,-23,38,-1,-36,44,-45,-45,-43,-77,-45
-18,-35,-16,27,-1,-25,51,-40,-36,-27,-63,-37
-7,-18,-11,13,2,-15,44,-39,-27,-18,-65,-31
13,3,-10,-8,11,-3,29,-43,-21,-22,-65,-24
28,18,-10,-23,19,4,21,-42,-17,-27,-65,-16
4,-7,-10,1,7,-8,20,-55,-36,-35,-66,-18
-13,-23,-10,18,-1,-16,20,-57,-53,-37,-74,-25
-12,-42,-30,27,9,-35,21,-69,-68,-55,-90,-36
-30,-78,-48,54,10,-63,31,-81,-79,-69,-103,-48
-72,-90,-18,81,-27,-54,46,-89,-96,-80,-114,-59
-63,-80,-18,72,-22,-49,34,-83,-86,-67,-101,-51
-79,-89,-10,84,-34,-49,46,-80,-91,-71,-107,-58
-74,-82,-7,78,-33,-44,34,-86,-95,-67,-97,-52
-75,-86,-11,81,-32,-48,60,-63,-56,-42,-103,-62
-151,-121,30,136,-90,-45,177,-1,2,-6,-147,-125
-42,7,49,17,-45,28,158,172,237,226,-24,-46
374,258,-116,-316,245,70,-293,-69,92,312,360,286
1006,609,-398,-808,702,105,-1006,-626,-430,117,810,756
684,687,3,-685,340,344,-1012,-1086,-963,-443,569,766
-92,275,367,-92,-230,321,-538,-1138,-1145,-840,-44,297
-91,36,128,27,-110,82,-253,-558,-588,-461,-140,55
-85,19,104,33,-95,61,-47,-197,-203,-158,-89,3
-109,-25,84,67,-96,29,8,-119,-134,-100,-94,-33
-93,-34,59,64,-75,12,42,-61,-76,-59,-97,-40
-101,-36,65,68,-83,14,66,-47,-56,-56,-100,-47
-74,-31,42,52,-58,6,61,-13,-19,-29,-78,-38
-83,-29,54,56,-69,12,73,-17,-25,-27,-78,-38
-63,-26,37,44,-49,5,64,-3,-12,-15,-70,-32
-65,-24,41,44,-53,8,66,-1,-10,-14,-70,-29
-53,-21,33,36,-43,6,60,10,0,-9,-64,-26
-50,-14,36,32,-43,11,58,20,10,-4,-61,-21
-46,-11,35,28,-40,12,56,32,26,5,-56,-19
-40,-6,35,23,-37,14,53,59,54,30,-39,-14
-38,-2,35,19,-36,16,51,71,75,50,-25,-11
-30,5,35,12,-33,19,47,78,86,48,-14,-7
-20,14,34,3,-27,23,45,103,93,60,0,2
0,43,44,-22,-22,43,41,144,118,77,15,10
4,61,57,-33,-26,59,40,178,152,106,25,19
16,70,54,-43,-20,62,37,221,201,145,54,30
47,102,55,-75,-4,78,35,267,247,176,84,46
79,134,55,-107,12,94,35,310,291,221,98,67
98,153,55,-126,21,104,35,356,338,248,113,87
118,169,51,-144,33,110,36,368,350,278,131,109
142,186,44,-164,49,115,33,347,343,285,144,130
150,188,38,-170,56,113,30,323,332,276,147,131
144,174,31,-159,56,102,28,275,291,257,138,115
105,129,24,-117,40,76,25,208,213,199,116,99
55,73,19,-64,18,46,22,164,154,147,83,73
15,29,14,-23,0,21,19,118,113,101,53,40
-12,-3,9,7,-10,3,24,71,57,59,21,17
-26,-22,4,24,-15,-9,31,43,29,21,-11,4
-43,-42,1,42,-21,-20,37,29,19,3,-23,-1
-44,-50,-6,48,-19,-27,40,27,7,6,-27,-6
-50,-50,0,50,-25,-24,40,23,5,4,-33,-12
-62,-54,9,58,-35,-22,40,19,1,5,-39,-18
-66,-56,10,61,-38,-22,40,15,-1,5,-44,-18
-62,-52,10,57,-36,-21,40,15,-4,3,-42,-14
-60,-50,10,55,-35,-20,40,15,-5,0,-37,-15
-61,-50,11,55,-36,-20,40,15,0,0,-34,-15
-56,-50,6,53,-31,-22,40,15,0,0,-31,-15
-74,-50,24,61,-49,-12,40,16,0,0,-26,-15
-74,-51,24,62,-49,-13,39,14,0,5,-26,-20
-61,-54,6,58,-33,-24,35,17,0,13,-30,-25
-70,-55,15,63,-42,-20,35,28,-2,13,-33,-29
-69,-58,10,64,-39,-24,35,23,-9,5,-35,-34
-65,-61,4,62,-35,-28,35,14,-16,-1,-39,-38
-60,-60,0,60,-30,-30,35,6,-23,-8,-40,-40
-52,-60,-8,57,-22,-34,32,-5,-29,-14,-37,-41
-52,-60,-8,56,-22,-34,26,-15,-40,-21,-32,-45
-54,-60,-6,57,-24,-32,22,-24,-49,-25,-29,-44
-58,-60,-2,59,-28,-31,17,-25,-50,-25,-26,-40
-59,-59,0,59,-30,-30,13,-25,-50,-42,-21,-40
-59,-55,4,57,-31,-26,8,-25,-54,-59,-20,-40
-60,-55,5,57,-32,-25,5,-25,-55,-60,-20,-40
-56,-55,2,55,-28,-26,5,-25,-54,-60,-20,-40
-53,-56,-3,55,-25,-29,3,-25,-49,-63,-20,-42
-48,-53,-6,51,-21,-30,-1,-25,-46,-66,-20,-45
-53,-62,-9,57,-21,-35,0,-30,-43,-64,-20,-48
-61,-75,-14,69,-24,-44,0,-30,-38,-61,-16,-51
-61,-77,-17,70,-22,-47,0,-30,-35,-58,-15,-54
-66,-86,-20,76,-23,-53,0,-27,-31,-56,-15,-55
-70,-90,-20,80,-25,-55,0,-24,-30,-52,-15,-50
-70,-90,-20,80,-25,-55,0,-25,-30,-50,-15,-47
-66,-90,-24,78,-21,-56,1,-25,-25,-48,-15,-43
-65,-90,-26,78,-20,-57,7,-25,-25,-45,-15,-40
-60,-90,-30,75,-15,-60,14,-25,-25,-45,-15,-35
-62,-91,-29,77,-16,-60,21,-24,-16,-41,-15,-38
-67,-89,-22,78,-22,-56,28,-26,-13,-39,-15,-41
-74,-92,-18,83,-28,-54,34,-20,3,-40,-15,-34
-71,-83,-12,77,-29,-47,39,-4,27,-30,-11,-28
-39,-45,-6,42,-16,-25,46,8,39,-18,1,-21
-27,-28,-1,28,-13,-14,53,17,36,-7,9,-14
-27,-31,-4,29,-12,-17,67,21,37,-3,23,-7
-19,-30,-10,25,-5,-20,57,23,70,3,30,-7
-14,-29,-16,22,1,-22,27,5,70,4,20,-18
-15,-37,-21,26,3,-29,19,-9,45,-5,9,-25
-23,-51,-28,38,2,-39,32,-20,18,-31,-14,-35
-33,-74,-42,53,5,-57,37,-30,-2,-59,-40,-45
-68,-108,-40,88,-14,-74,46,-34,-13,-75,-66,-55
-74,-113,-39,93,-17,-76,52,-53,-30,-76,-74,-56
-67,-106,-39,87,-14,-72,46,-38,-10,-62,-70,-52
-85,-116,-31,101,-27,-73,57,-47,-29,-73,-82,-59
-62,-102,-40,82,-11,-70,37,-16,0,-48,-72,-48
-116,-128,-12,122,-52,-70,106,13,13,-53,-90,-89
-113,-95,19,103,-66,-38,204,173,181,74,-57,-109
47,64,17,-55,15,40,39,139,249,244,132,45
671,366,-305,-518,488,30,-659,-458,-229,159,566,453
1133,675,-458,-904,796,108,-1226,-1010,-782,-210,779,781
386,423,37,-405,175,229,-887,-1273,-1188,-784,273,525
-124,35,159,44,-141,97,-414,-870,-872,-704,-90,145
-43,-8,35,26,-39,13,-153,-275,-260,-240,-48,31
-103,-52,51,77,-76,0,8,-102,-92,-111,-51,-27
-76,-78,-2,77,-37,-40,26,-19,-11,-69,-38,-53
-90,-78,13,84,-51,-32,66,1,6,-62,-40,-60
-75,-79,-4,77,-36,-41,71,30,29,-29,-35,-60
-62,-67,-5,64,-28,-35,75,36,40,-18,-29,-62
-54,-65,-11,59,-21,-37,76,37,47,-22,-34,-66
-38,-54,-16,46,-11,-35,73,41,54,-18,-37,-64
-45,-50,-5,48,-20,-27,77,54,57,-17,-37,-62
-38,-43,-5,41,-16,-24,74,83,90,18,-28,-54
-40,-36,4,38,-22,-16,74,82,95,30,-27,-50
-34,-26,8,30,-20,-9,69,99,103,40,-20,-44
-34,-19,15,26,-24,-2,71,110,104,50,-17,-38
-17,-6,11,12,-14,2,70,126,117,57,-9,-34
-5,5,10,0,-8,7,70,152,148,88,13,-25
14,23,10,-19,2,16,70,176,166,106,26,-15
33,44,11,-38,11,27,70,214,203,120,40,-5
47,55,8,-51,19,31,70,255,248,151,53,4
66,81,16,-74,25,48,70,294,284,188,63,15
76,113,37,-94,19,75,70,352,331,229,91,32
109,151,42,-130,33,97,71,402,369,260,113,46
135,178,42,-157,46,110,66,434,414,304,126,59
156,206,50,-181,53,127,55,449,437,327,151,76
157,220,63,-189,47,141,44,423,415,322,161,87
152,210,58,-181,46,134,32,371,386,310,154,78
147,195,48,-172,49,121,25,288,310,259,147,66
111,156,45,-134,33,100,22,205,219,207,121,48
66,104,38,-85,14,71,18,139,146,147,84,18
24,58,35,-41,-6,46,15,87,95,86,46,-2
9,39,30,-24,-10,34,11,44,48,48,10,-26
-1,25,26,-12,-13,25,7,18,9,17,-8,-48
-10,12,21,-1,-16,16,5,25,12,5,-13,-55
-10,6,16,2,-14,11,5,23,-5,1,-16,-55
-15,-4,11,9,-13,3,5,18,-12,-2,-19,-55
-18,-10,8,14,-13,-1,5,17,-8,-5,-24,-55
-23,-21,1,22,-12,-10,15,10,-12,-10,-24,-55
-28,-25,2,27,-15,-11,23,10,-8,-8,-20,-59
-38,-17,21,27,-29,2,19,10,-22,-5,-20,-60
-37,-11,26,24,-31,7,20,9,-25,-2,-18,-60
-29,-4,24,16,-26,10,20,15,-18,1,-15,-65
-23,3,26,9,-24,14,20,20,-15,4,-15,-65
-22,3,24,9,-23,13,20,20,-10,5,-19,-66
-26,-1,26,13,-26,12,15,20,-6,5,-25,-70
-24,-3,21,14,-22,8,15,20,-8,5,-31,-70
-26,-6,20,16,-22,6,14,20,-15,3,-37,-70
-29,-9,20,19,-24,5,10,14,-18,-4,-40,-70
-26,-11,15,18,-21,2,10,2,-23,-11,-39,-70
-29,-14,15,21,-21,0,8,-9,-27,-18,-43,-74
-34,-19,15,26,-24,-1,4,-21,-33,-24,-45,-75
-36,-21,15,28,-25,-3,5,-25,-42,-30,-45,-75
-41,-26,15,33,-27,-5,5,-27,-41,-35,-48,-75
-44,-30,15,36,-30,-7,5,-30,-39,-35,-51,-75
-45,-30,15,37,-30,-7,4,-33,-41,-35,-54,-74
-45,-30,15,37,-30,-7,1,-35,-40,-37,-56,-70
-41,-30,11,36,-26,-9,-2,-38,-40,-45,-62,-70
-40,-30,10,35,-25,-10,-5,-47,-44,-47,-69,-68
-40,-30,10,35,-25,-10,-8,-49,-56,-44,-74,-64
-40,-30,10,35,-25,-10,-11,-44,-67,-45,-82,-66
-40,-30,10,35,-25,-10,-8,-41,-64,-41,-84,-61
-41,-30,11,36,-26,-9,-2,-38,-58,-40,-80,-55
-47,-30,17,38,-32,-6,3,-33,-55,-40,-78,-50
-53,-30,23,42,-38,-3,6,-30,-50,-40,-75,-44
-58,-29,28,44,-43,0,12,-30,-45,-41,-72,-38
-67,-33,34,49,-50,1,15,-30,-48,-39,-70,-35
-74,-36,38,54,-56,1,10,-30,-51,-48,-67,-35
-76,-35,41,55,-58,3,6,-30,-50,-56,-62,-35
-83,-39,44,60,-63,2,3,-30,-50,-54,-59,-35
-87,-40,47,63,-67,3,0,-29,-50,-55,-56,-35
-91,-40,50,66,-70,5,-5,-25,-49,-55,-51,-35
-93,-44,49,68,-71,2,-3,-25,-45,-55,-51,-31
-91,-47,44,68,-67,-1,1,-22,-43,-51,-55,-30
-90,-50,41,70,-66,-4,0,-20,-39,-49,-55,-30
-90,-52,38,71,-64,-8,0,-20,-37,-50,-55,-25
-89,-55,33,72,-60,-11,-1,-20,-34,-45,-55,-25
-83,-53,30,68,-56,-11,1,-20,-32,-46,-55,-24
-74,-47,26,60,-50,-10,4,-20,-29,-44,-51,-20
-68,-43,25,55,-46,-9,7,-19,-26,-35,-44,-18
-64,-39,25,51,-45,-6,10,-20,-23,-26,-37,-15
-58,-34,25,45,-41,-4,13,-18,-19,-18,-31,-11
-55,-30,25,42,-40,-2,15,-5,-19,-8,-23,-10
-45,-21,24,33,-34,1,18,9,8,13,-21,-6
-26,-8,18,17,-21,5,38,20,30,27,-25,-5
-9,2,11,3,-10,6,34,14,40,40,-25,-5
6,10,4,-8,1,6,12,2,48,35,-27,0
0,-2,-2,1,1,-2,9,-12,17,1,-31,0
-13,-22,-9,18,-1,-15,1,-33,0,-13,-29,-1
-34,-54,-20,44,-7,-37,2,-57,-19,-31,-33,-8
-44,-91,-47,68,2,-69,4,-55,-30,-42,-52,-12
-66,-109,-43,88,-11,-76,19,-62,-36,-48,-74,-18
-64,-102,-38,83,-13,-70,12,-61,-36,-39,-67,-24
-69,-106,-37,88,-16,-72,17,-56,-30,-38,-73,-28
-81,-105,-24,93,-28,-64,25,-69,-44,-36,-75,-35
-72,-108,-36,90,-17,-72,34,-28,-11,-24,-73,-32
-148,-137,11,142,-79,-63,156,36,42,-14,-82,-63
-105,-44,61,74,-83,8,195,202,246,175,-16,-42
204,137,-67,-170,135,35,-167,-68,106,238,238,198
970,487,-484,-728,727,1,-967,-762,-489,33,681,635
995,635,-360,-815,677,137,-1206,-1248,-1042,-476,607,766
108,230,121,-169,-7,175,-684,-1270,-1209,-882,58,399
-50,-12,38,31,-44,13,-313,-656,-642,-530,-99,122
-31,-22,9,26,-19,-7,-55,-204,-180,-166,-55,62
-100,-82,18,91,-59,-32,65,-101,-88,-95,-67,11
-57,-87,-30,72,-13,-58,70,-36,-23,-39,-59,-4
-76,-92,-16,84,-30,-54,99,-27,-16,-19,-59,-9
-48,-90,-42,69,-3,-66,84,2,13,1,-50,-11
-67,-89,-22,78,-22,-56,93,3,20,-2,-49,-15
-57,-91,-34,74,-11,-63,97,25,30,5,-42,-20
-58,-86,-28,72,-15,-57,98,37,35,11,-39,-17
-49,-79,-30,64,-9,-54,89,47,52,23,-35,-15
-39,-69,-30,54,-4,-49,81,62,65,36,-30,-12
-39,-62,-23,51,-8,-42,75,73,77,49,-29,-9
-28,-50,-22,39,-3,-36,66,90,88,61,-22,-6
-22,-39,-16,31,-3,-27,70,109,108,72,-21,-5
-12,-26,-14,20,1,-20,79,138,130,86,-12,2
-2,-11,-10,6,4,-10,80,161,140,95,5,13
8,1,-6,-4,7,-2,80,189,179,121,17,22
23,23,1,-23,11,11,80,224,215,146,29,32
43,48,5,-46,19,26,80,266,249,173,42,44
55,66,11,-61,22,39,81,322,300,212,65,57
80,96,16,-88,32,56,76,368,351,247,84,73
108,130,22,-119,43,75,65,409,395,287,100,91
136,162,27,-149,54,94,55,422,423,313,127,99
155,189,34,-172,60,111,44,406,425,317,141,111
166,206,41,-186,62,123,22,387,407,308,137,118
172,208,36,-191,68,122,6,333,359,277,124,107
141,175,34,-158,53,104,3,257,285,235,114,96
100,130,29,-115,35,79,-1,182,207,178,98,78
65,90,26,-78,19,58,-4,116,128,112,60,52
27,50,22,-39,2,36,-9,69,69,62,27,25
-1,11,13,-5,-7,12,-9,34,30,26,8,5
-19,-17,2,18,-10,-7,-5,12,1,3,-10,1
-14,-21,-7,18,-4,-14,-2,1,-14,-8,-27,-6
-11,-16,-5,14,-3,-10,2,-6,-20,-20,-35,-11
-17,-14,3,15,-9,-5,5,-13,-25,-28,-37,-17
-18,-9,9,13,-14,0,1,-21,-31,-24,-40,-29
-22,-6,16,13,-18,5,0,-28,-37,-21,-40,-31
-27,-5,23,16,-24,9,-2,-27,-39,-18,-40,-30
-31,-5,26,17,-28,10,-6,-21,-34,-13,-40,-28
-30,-5,25,17,-27,10,-3,-17,-29,-10,-40,-24
-30,-5,25,17,-27,10,0,-13,-25,-10,-40,-26
-30,-5,25,17,-27,10,0,-7,-20,-10,-40,-28
-30,-5,25,17,-27,10,0,-6,-15,-10,-40,-31
-30,-5,25,17,-27,10,0,-10,-19,-10,-40,-34
-25,-5,20,15,-22,7,0,-12,-22,-10,-40,-37
-28,-7,20,18,-24,6,3,-16,-25,-11,-42,-40
-33,-14,19,23,-25,2,8,-18,-29,-20,-47,-39
-33,-19,15,26,-24,-2,11,-21,-31,-30,-50,-35
-39,-24,15,31,-27,-4,14,-23,-47,-41,-57,-35
-43,-30,13,36,-28,-9,19,-26,-53,-42,-56,-33
-44,-35,9,39,-26,-12,22,-29,-49,-39,-55,-29
-42,-35,7,38,-24,-14,25,-31,-51,-40,-54,-30
-39,-35,4,36,-21,-16,25,-35,-49,-35,-50,-33
-36,-35,1,36,-18,-16,24,-34,-51,-35,-50,-37
-34,-35,-1,34,-16,-18,30,-30,-49,-34,-48,-39
-31,-35,-4,33,-13,-19,32,-30,-45,-30,-43,-44
-30,-37,-7,34,-11,-22,30,-30,-45,-30,-40,-44
-35,-44,-10,39,-12,-27,30,-30,-45,-30,-36,-40
-38,-50,-12,44,-13,-31,30,-30,-45,-30,-32,-40
-34,-50,-16,42,-9,-32,30,-30,-45,-30,-29,-40
-39,-51,-12,45,-13,-31,31,-30,-48,-34,-26,-40
-46,-55,-10,50,-17,-32,35,-30,-52,-35,-25,-40
-44,-55,-10,49,-17,-32,35,-30,-55,-35,-25,-44
-51,-57,-7,55,-22,-32,38,-30,-59,-40,-25,-45
-56,-60,-4,59,-26,-32,42,-29,-59,-40,-25,-45
-54,-60,-6,57,-24,-32,45,-25,-55,-39,-23,-50
-50,-60,-10,55,-20,-35,49,-25,-55,-35,-17,-50
-50,-60,-10,55,-20,-35,51,-25,-55,-33,-12,-50
-46,-60,-14,53,-16,-36,56,-25,-55,-30,-9,-50
-45,-60,-15,53,-15,-37,61,-25,-55,-27,-3,-50
-42,-60,-17,51,-12,-38,64,-25,-51,-25,0,-50
-33,-60,-27,47,-3,-43,69,-25,-50,-25,-5,-50
-34,-60,-26,48,-4,-43,70,-25,-50,-37,-10,-50
-38,-60,-21,49,-9,-40,70,-25,-45,-40,-14,-46
-44,-63,-19,53,-12,-41,70,-25,-45,-34,-19,-44
-50,-65,-15,58,-17,-40,70,-24,-44,-32,-24,-45
-55,-65,-10,60,-22,-37,69,-20,-39,-27,-23,-45
-51,-64,-13,58,-19,-38,65,-20,-36,-25,-19,-46
-49,-69,-21,59,-14,-45,66,-20,-33,-20,-17,-44
-47,-75,-28,61,-9,-51,65,-19,-28,-13,-14,-38
-43,-76,-33,60,-4,-54,66,-21,-25,-8,-11,-31
-37,-68,-31,53,-2,-49,64,-8,-19,-2,-9,-24
-8,-36,-28,22,10,-32,72,17,-6,4,-5,-18
9,-17,-26,5,17,-21,92,32,6,21,-5,-11
6,-16,-22,5,15,-19,86,28,28,37,-4,-14
15,-5,-20,-5,17,-12,69,17,35,29,0,-18
11,-12,-23,1,18,-17,40,3,10,12,0,-23
7,-32,-39,12,23,-35,24,-4,-13,-6,-4,-27
-6,-52,-46,29,21,-49,54,-16,-42,-25,-20,-32
-40,-86,-46,63,3,-65,67,-25,-53,-39,-41,-48
-67,-104,-37,85,-15,-70,77,-30,-57,-59,-57,-58
-63,-93,-30,78,-16,-61,69,-43,-65,-56,-57,-53
-67,-93,-26,80,-20,-59,66,-35,-53,-52,-60,-57
-72,-86,-14,79,-29,-49,64,-54,-70,-61,-65,-54
-73,-88,-16,81,-28,-52,54,-29,-46,-48,-62,-57
-143,-121,22,132,-82,-49,166,47,13,-26,-77,-92
-117,-48,69,82,-92,10,234,227,243,171,-15,-74
152,117,-35,-134,93,41,-53,74,200,282,220,123
902,432,-470,-667,686,-19,-832,-611,-395,83,633,551
1074,631,-444,-852,759,93,-1196,-1161,-989,-391,651,739
182,292,109,-237,36,200,-715,-1256,-1232,-838,130,395
-129,-14,116,71,-122,51,-301,-716,-741,-573,-83,87
-51,-18,33,34,-41,7,-68,-189,-212,-161,-27,13
-114,-52,62,83,-88,5,52,-71,-96,-74,-42,-31
-95,-72,23,84,-59,-24,70,-7,-26,-33,-49,-50
-108,-67,41,88,-75,-13,97,16,-15,-35,-56,-57
-81,-66,15,73,-47,-26,90,42,4,-24,-46,-60
-81,-60,21,71,-51,-19,98,48,8,-21,-44,-55
-76,-58,17,67,-46,-20,93,47,19,-14,-39,-52
-74,-54,20,64,-47,-16,95,64,36,-1,-34,-48
-70,-49,21,59,-45,-14,95,74,46,6,-31,-45
-58,-40,18,49,-38,-11,94,74,59,18,-25,-41
-56,-34,22,45,-39,-6,92,92,70,28,-22,-37
-44,-27,16,35,-30,-5,89,105,86,36,-16,-29
-33,-17,16,24,-24,-1,91,116,106,53,-11,-21
-23,-8,15,15,-18,3,89,136,132,63,0,-13
-12,3,15,4,-14,9,91,155,157,74,13,-6
-3,11,15,-5,-9,13,89,187,196,111,24,2
11,26,16,-19,-3,20,83,220,220,137,37,11
33,54,21,-44,6,37,76,265,260,160,47,19
47,79,32,-63,8,55,70,308,315,192,61,32
76,107,31,-92,22,69,62,353,351,233,86,48
102,140,38,-121,32,89,56,408,402,262,111,67
109,163,54,-137,28,108,51,440,438,290,134,76
130,189,59,-160,36,124,47,442,442,308,136,94
149,204,56,-177,46,130,43,422,430,297,127,114
145,192,47,-169,49,119,14,371,390,289,119,105
137,178,41,-158,48,109,-3,292,328,249,111,99
108,143,34,-126,37,88,1,210,249,189,103,81
57,85,27,-71,15,56,0,139,175,137,72,47
15,36,21,-26,-3,28,5,86,114,84,36,20
-14,0,14,7,-14,7,5,52,67,51,9,0
-30,-22,8,26,-18,-7,6,32,38,19,-4,-7
-45,-43,1,44,-23,-21,10,23,24,-6,-7,-14
-49,-53,-4,51,-22,-28,9,19,25,-12,-13,-22
-44,-49,-5,47,-19,-27,13,14,24,-15,-18,-29
-42,-47,-5,45,-18,-26,15,10,20,-18,-24,-36
-39,-44,-5,42,-17,-25,15,5,20,-23,-25,-40
-35,-40,-5,38,-15,-22,11,9,22,-25,-25,-40
-37,-40,-4,39,-16,-22,10,10,25,-20,-25,-40
-45,-44,1,44,-22,-21,10,10,28,-20,-25,-40
-51,-47,4,48,-27,-21,6,15,31,-20,-25,-40
-57,-49,7,53,-32,-21,4,15,34,-20,-27,-43
-65,-53,12,59,-38,-21,7,14,35,-20,-30,-48
-70,-55,15,62,-42,-20,10,9,27,-22,-30,-51
-69,-58,11,63,-40,-23,11,6,19,-27,-35,-55
-70,-60,10,65,-40,-25,14,3,10,-30,-35,-55
-70,-60,10,65,-40,-25,15,-2,2,-35,-38,-57
-65,-60,5,62,-35,-27,11,-5,-4,-38,-43,-61
-65,-60,5,62,-35,-27,10,-8,-11,-45,-46,-59
-71,-67,4,68,-37,-31,10,-14,-17,-57,-53,-64
-77,-78,0,78,-38,-39,10,-18,-24,-65,-59,-65
-80,-80,0,80,-40,-40,10,-23,-30,-70,-64,-65
-80,-80,0,80,-40,-40,9,-27,-34,-70,-65,-70
-84,-84,0,84,-42,-42,5,-32,-37,-70,-65,-70
-85,-85,0,85,-42,-42,5,-35,-41,-70,-65,-70
-82,-85,-4,84,-39,-44,3,-34,-44,-70,-65,-70
-84,-90,-5,87,-39,-47,-1,-38,-47,-70,-64,-70
-86,-90,-5,88,-41,-47,0,-40,-52,-72,-60,-70
-84,-90,-5,87,-39,-47,0,-40,-57,-75,-60,-70
-86,-90,-4,89,-41,-47,0,-45,-60,-75,-60,-70
-83,-89,-7,86,-38,-48,0,-46,-65,-75,-60,-66
-83,-93,-10,88,-36,-51,0,-45,-65,-75,-60,-65
-85,-95,-10,90,-37,-52,0,-45,-66,-75,-64,-65
-80,-95,-14,88,-33,-55,-1,-45,-70,-70,-65,-60
-83,-99,-16,91,-34,-57,-5,-45,-70,-70,-65,-60
-89,-100,-11,95,-39,-55,-5,-48,-72,-69,-65,-60
-90,-100,-10,94,-40,-55,-7,-52,-75,-64,-65,-60
-85,-95,-9,90,-38,-52,-11,-55,-75,-66,-64,-60
-85,-91,-6,88,-40,-48,-10,-59,-75,-62,-60,-60
-82,-86,-4,84,-38,-45,-7,-59,-75,-56,-60,-60
-76,-82,-6,79,-34,-44,-1,-52,-74,-51,-58,-60
-64,-74,-10,69,-27,-42,3,-46,-71,-45,-54,-56
-42,-52,-10,47,-16,-31,8,-39,-66,-40,-55,-49
-30,-37,-6,34,-12,-22,12,-32,-64,-32,-51,-45
-29,-29,-1,29,-14,-15,17,-26,-59,-26,-45,-39
-24,-20,4,22,-14,-8,20,-21,-56,-18,-40,-34
-18,-11,7,15,-12,-2,24,-20,-51,-13,-34,-29
-12,1,13,5,-13,7,27,-18,-32,-4,-28,-20
11,25,14,-18,-2,19,29,5,-13,25,-24,-12
42,51,9,-47,16,30,39,30,8,43,-15,-3
53,59,6,-57,23,32,46,28,27,55,-6,4
49,51,2,-50,23,26,23,22,28,55,2,14
40,38,-1,-39,20,18,-11,16,7,39,4,18
30,24,-5,-27,17,9,-19,8,-11,25,-9,8
13,2,-11,-7,12,-5,-7,-7,-28,-4,-24,-4
3,-27,-30,12,16,-28,-8,-22,-41,-20,-41,-25
-31,-53,-22,43,-5,-38,3,-36,-45,-37,-61,-44
-31,-46,-15,39,-8,-31,5,-46,-48,-44,-65,-38
-32,-44,-12,38,-9,-28,10,-34,-38,-35,-68,-40
-43,-40,4,42,-23,-18,23,-47,-56,-48,-72,-41
-26,-33,-7,29,-9,-20,15,-32,-23,-25,-73,-38
-109,-65,44,87,-76,-11,102,25,23,3,-82,-79
-88,12,100,38,-94,56,169,195,222,180,-29,-67
178,175,-3,-176,90,85,-103,50,191,299,205,142
934,477,-457,-705,695,10,-889,-639,-416,70,608,569
1102,684,-418,-893,760,133,-1243,-1223,-1026,-426,607,762
203,354,151,-279,25,253,-761,-1320,-1245,-847,103,423
-75,39,114,18,-95,77,-374,-778,-753,-589,-122,114
-12,20,31,-4,-22,26,-128,-251,-215,-171,-67,45
-68,-3,65,35,-66,31,3,-122,-99,-77,-64,3
-39,-19,21,29,-30,1,15,-62,-31,-37,-56,-10
-71,-28,44,49,-57,8,50,-45,-13,-33,-54,-15
-41,-25,15,33,-28,-5,41,-14,8,-24,-49,-19
-43,-21,22,32,-33,1,52,-4,17,-17,-44,-18
-35,-20,15,27,-25,-3,51,1,26,-13,-41,-15
-36,-15,21,25,-28,3,55,12,42,-1,-40,-12
-36,-15,21,26,-28,2,55,13,48,6,-39,-9
-26,-8,18,17,-22,5,48,29,62,19,-34,-6
-23,0,22,11,-22,11,47,35,72,26,-36,-4
-13,5,18,4,-16,11,42,46,80,31,-32,0
-5,16,21,-5,-14,19,39,71,91,45,-19,8
19,38,19,-29,0,28,34,87,113,57,-8,14
31,51,21,-41,5,36,39,115,136,78,0,21
39,59,20,-49,9,39,40,146,158,101,3,28
61,81,20,-71,20,50,40,181,189,126,11,36
70,93,23,-82,23,58,41,233,235,165,41,53
77,105,28,-92,24,66,40,280,278,195,56,67
108,134,26,-121,41,80,39,335,324,233,67,85
140,155,14,-148,63,84,33,392,383,272,92,106
159,185,27,-172,66,106,26,425,414,294,111,120
172,212,40,-192,66,125,20,423,424,309,138,142
178,208,30,-194,74,119,12,403,409,305,139,146
181,205,24,-193,78,114,6,362,363,280,132,144
162,178,16,-170,73,97,8,303,317,247,131,146
122,131,9,-127,57,70,11,230,232,203,101,123
88,91,3,-90,42,47,14,156,145,143,60,90
50,49,-1,-49,25,24,17,105,77,86,21,60
13,14,1,-14,6,7,20,66,30,46,3,39
0,-1,-1,1,0,-1,19,49,13,22,-1,28
-7,-12,-5,10,-1,-8,15,41,-5,6,-7,22
-21,-26,-5,24,-8,-15,15,29,-22,3,-12,18
-20,-26,-6,23,-6,-16,15,21,-30,-1,-18,14
-15,-25,-10,20,-2,-17,15,19,-33,-4,-18,9
-14,-24,-10,19,-2,-17,15,20,-42,-8,-14,5
-11,-19,-8,16,-2,-13,19,20,-39,-11,-15,5
-18,-21,-2,20,-8,-11,24,20,-29,3,-15,5
-20,-17,3,18,-11,-7,19,19,-23,4,-15,5
-21,-15,6,18,-13,-4,21,15,-13,45,-15,5
-26,-15,11,20,-18,-1,19,15,-12,52,-15,5
-31,-16,16,23,-23,0,21,15,-23,-1,-15,3
-34,-14,19,24,-26,2,19,15,-31,-1,-15,0
-36,-16,21,26,-28,2,17,15,-40,2,-14,-3
-40,-25,15,32,-27,-5,5,12,-49,-2,-20,-6
