I,II,III,aVR,aVL,aVF,V1,V2,V3,V4,V5,V6
-17,0,17,8,-17,9,27,5,-73,-95,176,-164
-34,-2,32,18,-34,15,75,106,43,-62,163,-155
295,149,-146,-222,220,1,-16,172,257,325,529,344
717,376,-341,-546,529,17,-327,-128,75,788,1103,987
140,46,-94,-93,117,-24,-258,-296,-667,-170,426,-61
-214,-212,2,213,-108,-105,-158,-240,-896,-793,-75,-684
-51,-104,-53,78,1,-79,-95,-126,-396,-369,87,-335
-47,-29,17,38,-32,-6,-11,-52,-142,-209,115,-247
-18,-11,6,14,-12,-3,9,-25,-109,-166,140,-203
-26,-10,16,18,-21,2,32,-14,-87,-155,124,-213
-31,-9,22,20,-26,6,22,-11,-79,-151,136,-193
-31,-6,26,19,-28,10,27,-1,-55,-139,135,-193
-13,-5,8,9,-10,2,23,3,-44,-136,133,-189
-9,-4,4,6,-6,0,19,11,-32,-111,133,-178
-19,1,20,8,-19,10,21,16,-20,-106,127,-180
-14,6,19,4,-17,12,17,22,11,-89,132,-167
-15,9,24,3,-20,16,13,26,26,-78,128,-164
4,17,13,-11,-5,15,7,40,46,-59,131,-152
19,28,9,-24,5,19,4,55,83,-43,134,-139
46,51,5,-48,20,27,-1,77,128,-16,159,-113
75,67,-7,-71,41,30,-6,103,176,17,180,-87
101,85,-16,-92,58,34,-10,118,219,42,182,-67
119,114,-5,-116,62,54,-15,121,251,73,196,-54
120,131,11,-126,54,71,-19,110,255,80,200,-56
132,148,15,-140,58,81,-23,102,250,70,199,-55
125,147,22,-136,51,84,-29,93,242,60,208,-55
96,142,46,-119,25,94,-28,83,198,51,204,-55
72,138,66,-105,3,102,-21,55,132,30,180,-53
36,109,73,-73,-19,91,-14,26,61,-8,149,-85
19,82,63,-51,-22,72,-8,11,4,-43,128,-115
10,63,52,-37,-21,57,0,-5,-34,-80,113,-139
0,46,46,-23,-23,46,5,-13,-64,-107,99,-168
-4,36,40,-16,-22,38,-2,-19,-80,-124,90,-179
-5,35,40,-15,-23,37,-9,-17,-89,-136,80,-188
-5,35,40,-15,-23,37,-16,-12,-84,-130,70,-195
-10,30,40,-10,-25,35,-24,-10,-78,-125,64,-197
-10,30,40,-10,-25,35,-32,-6,-73,-122,61,-192
-11,29,40,-9,-26,34,-33,-1,-66,-115,58,-189
-14,25,39,-5,-27,32,-30,-1,-67,-118,53,-186
-28,23,51,2,-40,36,-30,-5,-71,-120,50,-181
-36,20,56,8,-46,37,-30,-8,-74,-120,46,-180
-32,16,48,7,-40,32,-30,-10,-78,-123,45,-180
-29,15,44,7,-37,29,-30,-14,-80,-126,45,-180
-20,18,38,1,-29,28,-35,-16,-75,-124,45,-180
-10,21,31,-6,-21,26,-35,-11,-68,-120,44,-180
-15,18,33,-1,-24,25,-35,-6,-64,-113,46,-181
-11,27,38,-8,-25,32,-35,-1,-57,-108,52,-172
8,56,48,-32,-20,52,-35,2,-52,-101,60,-155
28,88,60,-58,-16,73,-36,8,-52,-83,69,-137
50,111,61,-80,-6,85,-34,9,-56,-78,71,-120
53,106,53,-80,0,80,-58,-6,-55,-86,80,-121
46,94,47,-70,-1,70,-83,-32,-54,-87,82,-113
36,87,51,-62,-8,69,-93,-57,-96,-95,68,-121
51,62,11,-56,20,36,-97,-59,-129,-119,63,-147
40,19,-21,-29,30,-1,-78,-49,-129,-144,46,-170
7,-13,-19,3,13,-16,-54,-49,-131,-144,22,-176
-16,-37,-21,27,3,-29,-24,-37,-128,-159,-8,-203
-31,-44,-13,38,-9,-28,-26,-38,-132,-155,-5,-199
-38,-57,-19,48,-9,-38,-25,-27,-127,-152,-11,-197
-35,-50,-15,43,-10,-32,-23,-25,-130,-162,-18,-197
4,-45,-49,20,27,-47,-29,-19,-121,-142,-10,-177
-14,-46,-32,31,9,-39,-17,-8,-125,-175,-36,-204
-38,-26,12,32,-25,-7,-9,-9,-75,-109,-8,-148
-54,-41,13,47,-33,-14,81,160,88,-41,-30,-140
450,175,-275,-312,362,-50,-123,148,256,436,492,518
712,293,-419,-503,566,-63,-362,-163,-19,610,808,791
-24,-55,-31,39,3,-42,-229,-291,-767,-379,46,-294
-221,-242,-21,232,-100,-131,-164,-207,-803,-692,-241,-584
-60,-147,-87,104,14,-117,-81,-91,-294,-293,-66,-273
-73,-90,-18,82,-28,-54,4,-31,-127,-175,-56,-224
-12,-76,-64,44,27,-70,7,-4,-84,-121,-21,-158
-38,-71,-33,55,-3,-52,28,5,-63,-129,-28,-169
-17,-69,-52,43,18,-60,26,9,-48,-108,-10,-139
-22,-64,-42,44,11,-53,36,20,-26,-100,-10,-138
-16,-61,-45,39,14,-52,28,21,-17,-89,-1,-124
-10,-57,-47,34,19,-52,26,35,0,-71,5,-114
-13,-55,-42,35,15,-49,23,45,15,-55,-5,-106
-3,-51,-48,28,22,-49,18,51,38,-36,-4,-89
-3,-50,-47,27,22,-48,16,70,58,-25,-18,-81
17,-43,-60,13,39,-51,11,80,86,3,5,-56
31,-33,-64,1,48,-48,9,100,123,32,53,-34
48,-20,-68,-14,59,-44,6,123,165,65,60,-2
67,7,-60,-37,64,-26,3,140,215,86,75,13
84,27,-57,-55,70,-15,0,156,252,122,96,34
103,51,-52,-77,78,-1,-1,154,278,154,107,67
107,60,-47,-84,77,6,-5,142,293,165,121,75
109,65,-43,-86,76,11,-8,131,289,184,123,83
97,87,-10,-92,53,38,-11,120,271,187,121,85
72,79,7,-76,32,43,-15,103,223,173,114,76
65,61,-4,-63,35,29,-9,83,168,151,113,73
53,45,-8,-49,30,18,4,72,108,118,103,56
32,14,-18,-23,25,-2,15,61,58,81,76,23
12,-12,-24,0,18,-18,23,49,22,44,44,3
-6,-35,-29,21,12,-32,29,45,-7,27,19,-23
-24,-49,-24,37,1,-36,30,45,-11,24,14,-36
-25,-50,-25,38,0,-37,30,45,-6,26,15,-24
-25,-50,-25,38,0,-37,35,45,-4,24,15,-15
-43,-48,-6,46,-18,-27,35,45,0,26,15,-5
-27,-45,-18,36,-4,-31,35,45,5,40,15,1
-15,-44,-29,30,7,-37,35,45,3,49,21,-1
-28,-48,-20,38,-4,-34,35,45,0,51,26,2
-29,-50,-22,39,-3,-36,35,45,0,56,31,6
-38,-50,-13,44,-12,-31,35,45,0,59,37,4
-26,-50,-24,38,-1,-36,35,45,0,60,43,11
-1,-51,-50,26,24,-50,35,45,0,64,47,24
-12,-60,-48,36,18,-54,35,45,6,65,50,35
-12,-54,-43,33,16,-48,36,45,11,67,53,43
10,-29,-40,10,25,-34,34,45,18,74,56,47
30,-4,-33,-12,31,-18,36,45,21,87,59,63
44,13,-32,-29,38,-9,33,48,33,108,60,75
47,19,-29,-33,38,-5,31,59,57,127,78,89
68,40,-28,-53,47,6,23,49,48,138,87,100
64,41,-23,-52,44,8,1,30,32,135,81,108
49,22,-27,-35,38,-3,-5,31,12,118,70,97
67,0,-67,-33,67,-34,-12,29,-23,110,70,82
35,-65,-99,15,67,-82,4,31,-31,85,49,63
11,-94,-106,42,59,-100,36,28,-30,78,37,64
-17,-120,-103,69,43,-112,47,32,-30,73,21,49
-51,-149,-99,100,24,-124,44,35,-31,64,11,43
-57,-153,-97,105,20,-125,47,35,-30,68,15,45
-58,-146,-89,102,16,-118,53,37,-28,45,-1,20
-13,-136,-123,75,55,-129,45,31,-25,77,26,50
-36,-139,-103,88,34,-120,56,41,-24,61,-28,-10
-32,-97,-65,65,17,-81,58,43,4,117,30,67
-67,-137,-70,103,2,-104,144,177,140,141,-29,27
301,36,-266,-168,283,-115,5,201,320,555,411,629
682,240,-442,-460,562,-101,-271,-61,152,973,1006,1263
76,-35,-111,-20,93,-73,-158,-214,-509,74,254,150
-235,-256,-20,246,-107,-138,-71,-149,-752,-528,-248,-452
-73,-213,-140,143,34,-177,-44,-36,-325,-161,-87,-113
-113,-165,-52,139,-30,-108,51,23,-46,42,-60,-17
-56,-161,-105,109,25,-133,69,57,11,100,4,60
-27,-145,-118,86,46,-131,85,67,42,106,-17,37
-12,-120,-108,67,48,-114,78,68,45,132,1,65
-9,-114,-105,62,48,-109,84,75,56,130,-2,59
-15,-107,-92,61,39,-99,86,76,71,140,2,67
-16,-103,-87,59,36,-95,83,85,81,157,9,71
-13,-96,-83,55,36,-89,82,89,87,156,10,82
6,-91,-98,43,52,-94,75,95,109,194,25,111
2,-86,-88,42,45,-87,75,100,128,200,27,101
3,-81,-85,39,44,-82,69,102,146,216,40,134
17,-78,-94,31,56,-86,66,112,178,236,43,140
35,-73,-108,19,72,-90,62,125,213,261,57,149
55,-48,-103,-3,79,-75,58,135,253,307,67,189
90,-22,-112,-34,102,-67,52,149,300,340,87,218
113,-9,-122,-52,118,-65,49,155,335,370,117,246
110,5,-105,-58,107,-50,43,147,349,389,129,265
107,19,-88,-63,97,-34,40,139,344,390,130,271
110,35,-76,-72,93,-20,45,130,323,377,130,260
102,30,-71,-66,86,-20,45,122,286,363,135,248
73,5,-68,-39,71,-31,44,108,238,341,124,238
42,-19,-62,-11,52,-40,48,89,187,308,102,223
20,-42,-61,11,41,-51,56,82,133,271,82,197
16,-48,-65,16,41,-56,62,78,91,231,54,146
3,-64,-68,31,36,-65,68,73,64,204,35,123
-18,-88,-70,53,26,-79,74,69,59,197,31,123
-17,-91,-73,54,28,-82,70,64,60,193,24,118
-14,-90,-75,52,31,-82,70,60,57,188,20,115
-19,-90,-71,55,26,-80,69,60,54,184,12,110
-26,-90,-64,58,19,-77,65,59,57,179,14,112
-30,-89,-59,60,14,-74,65,55,70,189,33,116
-31,-85,-54,58,12,-70,65,55,68,198,36,119
-32,-83,-51,57,10,-66,65,53,63,193,34,123
-32,-80,-48,56,8,-64,65,49,62,190,36,125
-33,-76,-43,55,5,-59,65,47,55,187,34,125
-35,-75,-40,55,3,-57,65,44,56,181,36,125
-35,-71,-36,53,1,-53,65,41,60,180,34,124
-30,-62,-31,46,1,-46,58,39,60,183,36,125
-27,-54,-28,41,1,-41,51,36,61,187,33,124
-16,-38,-22,27,3,-30,44,31,59,189,46,130
7,-12,-18,2,13,-15,36,29,65,193,55,139
17,22,5,-20,6,14,29,24,67,202,56,142
31,46,15,-39,8,31,23,21,59,198,71,148
45,38,-7,-41,26,16,18,17,53,189,71,148
39,23,-16,-30,27,3,17,15,31,180,56,136
47,-3,-50,-22,48,-26,11,10,9,169,53,136
40,-43,-83,2,62,-63,11,8,1,135,39,98
9,-69,-77,30,44,-73,26,4,-9,105,29,69
-16,-102,-86,60,35,-94,43,10,-16,86,10,49
-28,-111,-83,70,28,-97,43,10,-27,73,-2,33
-23,-108,-85,65,31,-96,37,12,-30,83,9,47
-35,-110,-74,73,20,-92,44,18,-30,60,-18,16
-26,-97,-71,61,23,-83,33,11,-28,82,12,51
-42,-111,-69,77,13,-89,49,37,-15,46,-35,-2
-61,-81,-20,71,-20,-51,39,22,-19,93,5,50
-93,-98,-5,95,-43,-52,117,126,108,125,-38,12
263,76,-187,-170,225,-56,23,182,329,531,350,566
681,329,-352,-505,517,-11,-294,-101,138,1070,1043,1362
146,58,-88,-102,117,-15,-233,-284,-552,129,359,279
-244,-230,14,237,-129,-108,-129,-216,-809,-634,-262,-528
-85,-158,-73,122,-6,-115,-93,-106,-380,-230,-92,-171
-80,-81,-2,81,-39,-41,23,-31,-84,-29,-85,-86
-66,-81,-16,74,-25,-48,37,2,-31,33,-43,-14
-77,-72,5,75,-41,-33,48,11,-5,35,-61,-28
-64,-63,0,63,-32,-31,44,9,-1,31,-49,-15
-52,-58,-6,55,-23,-32,44,13,11,50,-44,-11
-59,-47,11,53,-35,-17,46,15,17,52,-48,-15
-42,-40,1,41,-21,-19,43,15,29,63,-33,0
-34,-30,3,32,-18,-13,41,20,45,61,-37,-8
-18,-24,-6,22,-6,-15,32,28,60,78,-24,12
-10,-18,-8,14,-1,-13,30,34,73,88,-23,12
0,-8,-9,4,5,-8,22,39,98,105,-16,26
15,12,-3,-13,9,4,18,45,128,123,-8,35
38,38,0,-38,19,19,13,61,163,152,7,52
59,52,-6,-55,32,23,8,81,213,175,20,77
81,73,-8,-77,44,33,5,92,255,199,31,102
100,107,7,-104,46,57,1,89,294,229,49,121
110,126,16,-118,47,71,-2,85,304,231,62,120
108,134,26,-121,41,80,-6,80,287,229,67,120
98,134,36,-116,31,85,-10,76,276,232,69,120
79,127,48,-103,15,87,-10,64,237,217,61,122
52,122,70,-87,-9,96,-11,36,174,181,47,111
35,108,74,-72,-20,91,-15,12,109,132,29,70
7,82,75,-45,-34,78,-15,-3,43,84,5,29
-23,52,75,-15,-50,63,-13,-8,9,48,-21,-3
-44,30,75,6,-60,52,-8,-10,-13,19,-38,-18
-45,30,75,7,-60,52,-2,-15,-30,1,-47,-32
-40,30,70,5,-55,50,1,-18,-30,-3,-56,-49
-45,25,70,10,-58,47,7,-22,-30,-6,-63,-50
-44,25,69,9,-57,46,9,-25,-30,-10,-63,-51
-39,26,65,6,-52,46,6,-25,-30,-13,-60,-55
-25,39,65,-7,-45,52,3,-25,-31,-17,-60,-57
-17,51,68,-17,-43,59,0,-25,-34,-20,-57,-60
-19,52,70,-16,-44,61,-2,-25,-38,-24,-54,-63
-21,50,70,-15,-45,60,-6,-31,-41,-27,-57,-65
-20,50,70,-15,-45,60,-3,-36,-44,-32,-69,-62
-25,45,70,-10,-48,57,1,-35,-47,-35,-65,-57
-25,44,70,-10,-48,57,0,-35,-55,-31,-57,-55
-24,46,70,-11,-48,57,1,-43,-60,-24,-52,-51
-28,43,71,-7,-50,56,0,-46,-53,-18,-44,-47
1,67,66,-34,-33,66,0,-41,-42,-11,-39,-43
17,107,89,-63,-36,98,-6,-39,-33,-4,-30,-37
17,127,109,-72,-46,118,-12,-36,-22,2,-20,-27
44,140,96,-93,-26,118,-21,-34,-20,8,-10,-22
54,140,86,-98,-16,113,-47,-47,-20,18,-1,-19
50,124,74,-87,-12,99,-61,-68,-29,9,1,-15
56,119,62,-88,-3,90,-66,-82,-67,-24,-4,-19
31,80,49,-56,-9,64,-60,-81,-97,-59,-23,-41
-23,18,41,3,-32,29,-36,-75,-106,-93,-67,-90
-37,-8,29,22,-33,10,-20,-76,-104,-97,-87,-107
-51,-27,24,39,-38,-1,-6,-67,-109,-118,-102,-130
-36,-18,19,27,-27,1,-14,-69,-116,-118,-94,-117
-31,-18,13,24,-22,-2,-6,-58,-105,-131,-110,-133
-17,-4,13,11,-15,4,-13,-64,-105,-125,-102,-120
-2,-3,-1,2,-1,-2,-10,-53,-89,-119,-108,-124
-23,5,28,9,-26,16,0,-57,-95,-140,-118,-134
-42,22,64,10,-53,42,37,-15,-44,-64,-94,-88
36,41,5,-39,16,23,83,160,168,75,-30,29
581,326,-255,-453,418,35,-198,21,268,723,652,904
522,298,-223,-410,372,37,-351,-272,-251,543,672,755
-159,-134,25,147,-92,-55,-208,-312,-899,-626,-191,-474
-148,-181,-33,165,-57,-107,-152,-220,-667,-611,-266,-452
-46,-41,5,43,-26,-17,-54,-108,-203,-216,-139,-187
-55,-12,43,33,-49,15,0,-60,-106,-177,-130,-174
-33,-17,15,25,-24,-1,12,-41,-75,-126,-96,-131
-51,-20,31,35,-41,5,18,-34,-67,-143,-119,-150
-17,-9,8,13,-13,-1,13,-30,-51,-117,-95,-118
-21,-5,15,13,-18,4,23,-22,-43,-120,-107,-133
2,3,2,-3,0,2,18,-20,-31,-107,-96,-114
0,8,8,-5,-4,8,19,-12,-14,-97,-96,-116
-5,15,20,-5,-13,17,14,-6,2,-87,-87,-109
9,25,16,-17,-4,20,15,1,21,-67,-80,-99
20,32,12,-26,4,22,15,7,38,-49,-75,-92
35,42,7,-39,14,24,15,17,70,-34,-66,-76
41,44,3,-43,19,23,15,38,110,-17,-62,-58
57,57,0,-57,28,28,8,61,161,18,-42,-29
80,90,10,-85,35,50,0,82,209,48,-25,-4
94,116,21,-105,36,68,-8,86,251,80,-11,24
118,137,19,-128,49,78,-16,84,269,100,3,46
117,154,37,-136,40,95,-23,80,269,101,16,52
109,156,47,-133,31,102,-25,77,272,95,26,46
107,152,45,-130,30,98,-25,72,237,90,22,39
84,151,68,-117,8,109,-28,42,182,82,9,33
61,137,76,-99,-7,106,-31,6,119,52,-2,19
31,102,71,-67,-20,86,-29,-21,45,5,-23,-8
10,77,66,-44,-28,71,-26,-36,-9,-44,-48,-45
1,60,59,-31,-29,60,-21,-40,-43,-77,-64,-74
-6,50,56,-22,-31,52,-19,-40,-61,-96,-86,-94
-11,44,55,-17,-33,49,-15,-40,-72,-114,-91,-105
-17,38,55,-11,-36,47,-10,-40,-70,-117,-89,-105
-20,35,55,-8,-38,45,-12,-40,-70,-115,-94,-105
-25,30,55,-3,-40,42,-15,-44,-68,-115,-95,-105
-29,26,55,1,-42,40,-15,-45,-64,-111,-94,-105
-27,28,55,-1,-41,41,-15,-45,-66,-109,-90,-103
-22,32,55,-5,-39,43,-15,-49,-68,-111,-85,-99
-21,34,55,-7,-39,45,-15,-51,-72,-114,-81,-97
-15,40,55,-13,-35,47,-15,-48,-75,-115,-76,-94
-17,39,55,-11,-36,46,-15,-45,-79,-115,-71,-91
-25,35,60,-5,-43,47,-15,-45,-79,-115,-72,-89
-26,33,59,-4,-43,46,-15,-45,-71,-116,-69,-85
-34,27,61,3,-48,44,-14,-45,-63,-111,-59,-78
-10,48,58,-19,-34,53,-18,-45,-55,-97,-52,-73
16,82,67,-49,-26,74,-27,-48,-47,-83,-44,-67
21,109,89,-65,-34,99,-37,-54,-42,-75,-37,-61
36,119,83,-77,-24,100,-43,-56,-33,-75,-32,-42
58,132,73,-95,-8,102,-57,-64,-32,-71,-25,-22
77,140,63,-109,7,101,-69,-80,-59,-69,-21,-30
64,108,44,-86,10,75,-71,-94,-92,-77,-15,-35
38,59,22,-49,8,40,-68,-88,-123,-113,-43,-62
2,15,13,-9,-6,14,-38,-80,-138,-150,-84,-102
-29,-25,5,27,-17,-10,-18,-73,-133,-149,-85,-108
-54,-54,0,54,-27,-27,-9,-62,-136,-171,-101,-127
-44,-52,-8,49,-18,-30,-14,-61,-135,-160,-88,-104
-44,-59,-15,52,-14,-37,1,-46,-134,-171,-101,-127
-44,-50,-6,47,-18,-28,-9,-52,-137,-161,-82,-102
-59,-61,-2,60,-28,-31,9,-31,-132,-166,-94,-117
-55,-48,7,52,-30,-20,7,-46,-125,-164,-83,-109
-65,-41,24,53,-44,-9,31,14,-33,-90,-81,-83
65,17,-48,-41,56,-16,61,166,158,62,4,77
654,291,-363,-472,508,-36,-235,9,250,647,674,882
478,196,-283,-337,380,-43,-306,-268,-304,320,524,538
-214,-197,18,205,-116,-89,-175,-305,-922,-685,-259,-521
-142,-202,-59,172,-41,-130,-159,-183,-617,-558,-236,-393
-68,-75,-8,71,-30,-41,-38,-95,-200,-228,-146,-170
-97,-71,26,84,-61,-22,3,-51,-127,-184,-123,-144
-61,-60,1,60,-30,-30,15,-26,-88,-145,-96,-124
-68,-52,16,59,-42,-18,21,-27,-78,-150,-111,-132
-43,-48,-5,45,-19,-26,19,-19,-57,-123,-87,-105
-45,-42,3,44,-23,-19,28,-17,-48,-126,-96,-109
-29,-37,-8,33,-10,-22,19,-12,-32,-111,-81,-85
-34,-31,3,33,-19,-14,21,-6,-18,-109,-82,-85
-31,-26,5,28,-18,-10,15,1,-6,-97,-73,-75
-24,-15,9,19,-16,-2,14,11,13,-79,-67,-69
-13,-5,8,9,-10,1,10,19,34,-64,-63,-64
8,11,3,-10,2,6,8,26,69,-42,-55,-47
20,22,2,-21,9,12,1,49,106,-17,-39,-19
44,42,-2,-43,23,20,-6,72,150,9,-28,2
73,68,-5,-70,39,31,-13,91,189,30,-20,22
95,91,-4,-92,49,43,-21,100,222,59,7,47
115,119,5,-117,55,62,-28,89,244,78,23,61
120,134,14,-127,53,73,-27,85,237,91,31,69
125,146,21,-136,51,83,-25,78,229,90,44,64
118,154,37,-136,40,95,-25,68,210,84,47,51
74,142,67,-108,3,104,-20,47,155,70,27,41
55,129,74,-92,-10,101,-20,10,89,30,3,24
28,94,67,-61,-20,80,-19,-17,24,-10,-20,0
-9,54,63,-23,-36,58,-15,-30,-22,-48,-43,-21
-10,46,56,-18,-33,51,-13,-36,-46,-71,-61,-46
-12,39,52,-14,-32,45,-10,-34,-62,-86,-76,-66
-14,32,46,-10,-30,39,-7,-38,-66,-104,-76,-66
-16,26,42,-6,-29,34,-4,-40,-65,-107,-74,-63
-16,19,35,-2,-26,27,-9,-40,-64,-104,-76,-59
-18,16,34,1,-26,25,-10,-36,-59,-100,-74,-56
-12,13,25,-1,-19,19,-10,-35,-61,-97,-76,-51
-20,10,30,4,-25,20,-10,-35,-57,-92,-72,-51
-41,8,49,16,-45,28,-10,-30,-55,-90,-66,-58
-37,3,40,17,-39,22,-8,-30,-55,-95,-59,-53
-20,12,32,3,-27,22,-5,-29,-51,-95,-52,-47
-1,21,22,-10,-11,21,-2,-25,-50,-97,-47,-43
-5,12,17,-4,-11,15,0,-25,-50,-100,-38,-36
-10,9,19,1,-15,14,4,-25,-57,-101,-46,-32
-27,0,27,13,-27,13,6,-25,-54,-94,-55,-25
-20,10,29,5,-25,19,1,-25,-45,-72,-39,-15
18,49,31,-34,-7,40,-6,-21,-34,-46,-25,-4
14,81,67,-47,-27,74,-18,-14,-8,-25,-11,19
28,94,65,-61,-19,79,-28,-11,-10,-26,0,37
55,105,50,-80,2,77,-45,-36,-26,-24,11,36
55,100,45,-78,5,72,-58,-61,-39,-25,19,21
55,64,9,-60,23,37,-64,-66,-72,-46,28,21
16,-9,-25,-3,21,-17,-41,-64,-91,-87,6,-13
-34,-73,-39,53,3,-55,-1,-50,-90,-106,-31,-36
-51,-89,-38,70,-6,-63,11,-27,-89,-103,-50,-32
-51,-90,-39,71,-6,-64,13,-25,-92,-106,-55,-35
-23,-99,-76,62,26,-87,13,-23,-88,-91,-41,-18
-32,-104,-72,68,20,-87,23,-16,-90,-106,-58,-37
-16,-92,-76,54,30,-84,14,-21,-81,-81,-29,0
-28,-105,-77,67,25,-91,31,-6,-80,-106,-65,-47
-41,-79,-38,60,-1,-58,22,-8,-53,-65,-32,23
-99,-116,-17,108,-41,-66,98,117,67,-8,-59,9
210,4,-206,-107,208,-100,23,198,262,286,246,392
753,265,-488,-509,620,-112,-290,-50,211,743,874,1079
215,29,-186,-122,201,-79,-224,-273,-481,43,317,246
-288,-281,7,284,-147,-137,-110,-243,-857,-659,-268,-486
-85,-216,-131,151,23,-173,-90,-110,-425,-345,-108,-184
-88,-137,-50,113,-19,-93,20,-32,-99,-125,-84,-71
-74,-144,-70,109,-2,-107,44,6,-44,-83,-31,-15
-67,-137,-70,102,1,-103,59,19,-29,-63,-36,-13
-61,-127,-66,94,3,-96,54,21,-8,-45,-32,9
-44,-120,-76,82,16,-97,54,29,12,-29,-23,19
-49,-113,-64,81,8,-88,57,33,21,-26,-28,22
-33,-108,-75,70,21,-91,63,40,39,-5,-14,38
-36,-102,-66,69,15,-84,67,43,56,7,-18,39
-24,-97,-72,60,24,-84,60,52,74,22,-1,62
-14,-84,-71,49,29,-77,60,59,85,36,1,64
12,-72,-84,31,48,-78,55,73,114,66,17,96
23,-63,-86,20,55,-74,55,85,143,93,27,116
33,-51,-84,10,59,-68,50,96,176,109,40,124
46,-39,-85,-4,66,-61,42,109,217,131,61,146
65,-14,-79,-26,72,-46,36,117,254,171,81,171
103,23,-81,-63,92,-29,28,138,296,206,107,206
118,41,-77,-79,98,-18,25,140,313,224,115,226
121,54,-68,-87,94,-6,25,125,312,237,121,234
120,57,-63,-88,91,-3,25,113,296,231,128,237
80,45,-35,-62,58,4,25,92,254,220,119,227
51,33,-19,-42,35,7,24,72,206,210,114,221
43,12,-31,-27,37,-9,26,60,155,175,108,212
9,-22,-30,7,20,-26,30,54,109,137,79,172
-18,-48,-29,33,6,-38,47,47,72,108,55,138
-30,-61,-31,45,1,-45,61,41,46,89,55,133
-40,-69,-29,55,-5,-49,59,34,39,77,51,125
-35,-69,-34,52,-1,-51,60,31,40,72,49,118
-35,-86,-51,61,8,-68,56,32,41,77,45,110
-39,-93,-54,66,8,-73,54,29,44,78,46,106
-37,-79,-42,58,3,-60,55,30,45,82,51,110
-38,-70,-32,54,-3,-51,55,30,45,84,49,109
-42,-68,-26,56,-8,-46,55,30,45,87,51,121
-47,-70,-24,59,-11,-47,55,30,45,98,48,134
-47,-75,-28,62,-9,-51,55,30,45,101,58,139
-35,-74,-38,55,2,-56,55,30,46,104,64,150
-25,-69,-44,47,9,-57,55,30,44,104,70,157
-21,-71,-50,46,14,-60,55,30,42,99,91,159
-21,-64,-42,43,11,-53,55,30,29,94,89,162
-35,-68,-33,52,0,-50,59,30,30,102,91,165
-21,-48,-27,35,3,-37,63,29,51,125,89,175
-1,-18,-18,10,9,-18,68,33,72,150,98,197
13,-4,-16,-4,14,-10,68,41,93,171,122,216
33,20,-12,-26,22,4,43,33,88,181,116,227
50,37,-13,-43,31,11,23,12,77,196,139,246
50,45,-5,-48,27,20,27,-6,53,190,143,242
34,-9,-44,-12,39,-27,23,-19,29,155,132,221
11,-94,-105,42,59,-99,29,-2,26,107,112,179
-28,-131,-103,80,38,-117,55,14,16,92,83,159
-38,-159,-121,99,42,-140,71,20,12,99,72,150
-16,-144,-128,80,57,-136,70,29,3,89,59,138
-9,-142,-133,76,62,-138,70,31,0,104,66,156
-58,-184,-126,121,34,-155,80,46,0,84,36,128
-60,-186,-127,123,33,-156,69,38,-1,112,59,166
-72,-198,-126,136,27,-162,82,48,1,88,27,120
-61,-175,-114,119,27,-144,78,35,20,119,73,177
-87,-197,-110,142,12,-153,159,144,145,158,25,140
177,-59,-236,-59,207,-147,83,223,341,488,360,591
664,184,-480,-424,572,-148,-226,-32,241,1029,1098,1427
191,1,-190,-95,190,-94,-171,-214,-388,281,500,494
-278,-273,5,275,-141,-134,-62,-186,-745,-529,-197,-379
-95,-260,-166,178,36,-213,-46,-88,-378,-223,-51,-65
-75,-176,-101,126,13,-139,68,7,-41,36,-6,62
-57,-173,-115,115,29,-144,86,45,29,93,49,134
-52,-165,-113,108,31,-139,91,58,54,104,33,121
-55,-155,-100,105,23,-128,90,53,61,124,51,150
-44,-156,-112,101,34,-134,89,55,77,144,66,166
-45,-147,-102,96,28,-124,92,66,93,150,53,152
-33,-146,-113,90,40,-129,88,76,105,161,67,167
-40,-139,-99,90,30,-119,87,78,115,162,53,157
-33,-141,-108,87,38,-124,80,82,122,171,76,173
-19,-136,-116,78,49,-126,79,85,138,189,93,195
0,-122,-122,61,61,-121,74,88,168,224,101,205
11,-108,-119,48,65,-113,71,97,192,237,107,207
17,-98,-115,41,67,-106,67,109,226,257,118,241
32,-83,-115,26,74,-99,61,121,267,288,135,257
69,-45,-114,-12,92,-79,56,130,307,327,148,282
84,-21,-105,-32,95,-63,51,144,347,359,177,322
81,-14,-95,-33,88,-54,44,147,357,373,196,336
83,-1,-85,-41,84,-43,41,138,347,374,186,335
78,2,-76,-40,77,-37,44,127,338,366,181,334
65,-7,-72,-29,69,-39,46,108,306,363,174,336
51,-18,-69,-16,61,-44,51,88,256,345,168,332
39,-26,-65,-6,52,-46,48,79,209,304,162,302
8,-54,-61,23,35,-57,61,73,153,254,142,259
-24,-82,-59,53,18,-70,77,65,109,213,123,222
-38,-92,-54,65,8,-73,77,57,89,188,106,205
-49,-114,-65,82,9,-90,81,51,75,179,93,202
-50,-122,-72,86,11,-97,83,45,74,181,87,196
-48,-114,-65,81,9,-89,86,45,75,177,82,191
-47,-111,-64,79,9,-87,81,45,76,175,79,188
-47,-106,-59,76,7,-82,80,45,80,175,74,182
-46,-102,-55,75,5,-78,80,46,80,175,70,181
-40,-97,-57,69,9,-77,75,42,78,175,77,185
-32,-94,-61,63,15,-77,75,40,73,175,85,186
-24,-90,-65,58,20,-77,74,40,70,175,89,189
-27,-87,-60,57,17,-73,70,36,67,174,90,190
-22,-82,-59,52,19,-70,68,35,61,176,90,193
-26,-80,-54,53,14,-67,64,35,60,180,90,195
-21,-74,-53,48,16,-64,62,35,64,180,89,194
-18,-68,-50,43,16,-59,60,35,66,179,90,195
-13,-59,-45,36,17,-52,56,36,64,181,92,196
50,-19,-69,-15,60,-44,47,34,68,178,101,194
48,3,-45,-25,46,-21,40,36,77,188,117,207
32,17,-15,-24,23,0,35,28,68,200,115,209
67,54,-14,-60,40,20,6,-9,54,199,131,201
67,52,-14,-59,40,19,-6,-17,46,196,147,191
60,14,-46,-36,53,-16,1,-9,16,161,138,182
24,-46,-70,11,47,-58,7,-6,-3,114,117,175
-12,-94,-82,54,35,-88,28,0,-6,92,81,135
-29,-116,-87,73,29,-101,43,2,-9,84,68,117
-45,-130,-85,88,21,-107,59,10,-11,61,41,98
-24,-116,-92,70,34,-104,55,7,-17,69,43,116
-35,-123,-88,79,27,-106,66,15,-11,46,18,87
-25,-105,-79,65,27,-92,53,8,-10,53,30,109
-43,-116,-72,80,15,-94,67,22,7,35,6,84
-38,-95,-57,67,10,-75,53,6,-2,37,7,74
-35,-78,-43,57,5,-60,79,60,69,94,10,79
71,-44,-115,-14,93,-79,109,204,282,289,155,299
591,266,-325,-429,458,-29,-200,16,287,990,960,1303
404,200,-205,-302,304,-2,-284,-257,-289,573,778,864
-191,-192,-1,191,-94,-96,-152,-265,-824,-566,-132,-395
-132,-220,-87,176,-22,-153,-114,-147,-544,-417,-117,-240
-81,-125,-44,103,-19,-84,2,-49,-134,-70,-30,-31
-62,-93,-31,78,-15,-62,38,-5,-39,-11,-19,8
-43,-82,-39,63,-2,-61,51,17,-3,29,7,41
-56,-78,-22,67,-17,-50,52,14,9,14,-8,32
-45,-72,-27,59,-8,-50,46,15,25,37,17,63
-55,-67,-12,61,-21,-39,48,16,35,27,6,42
-19,-61,-42,40,12,-51,42,14,39,40,25,64
-21,-56,-34,39,7,-45,45,18,51,43,19,54
-15,-44,-29,30,7,-36,36,25,71,56,31,63
-11,-35,-25,23,7,-30,36,34,84,70,45,66
9,-9,-18,0,14,-13,31,41,106,87,44,75
25,9,-17,-16,21,-4,27,47,133,99,46,87
24,13,-12,-18,18,1,25,55,164,110,46,100
41,32,-9,-36,25,11,18,66,210,145,65,122
58,53,-5,-55,31,24,11,86,259,181,97,152
84,84,-1,-84,42,41,4,94,294,208,115,178
93,104,11,-99,41,57,-4,85,299,210,126,182
102,121,20,-112,41,70,-11,79,287,202,126,191
84,128,44,-106,20,86,-13,74,277,194,121,194
54,117,63,-86,-4,90,-8,58,262,187,118,180
47,110,63,-79,-9,86,-5,33,208,177,112,168
41,103,63,-72,-11,83,-2,11,141,148,108,142
30,88,58,-59,-14,73,3,-3,86,92,75,99
2,58,57,-31,-28,57,6,-9,38,43,42,72
-6,46,52,-21,-29,49,9,-13,10,17,33,49
-9,43,52,-17,-30,47,10,-18,2,2,20,27
-9,37,46,-14,-28,42,10,-23,-4,-8,9,19
-18,32,49,-7,-34,40,10,-25,-12,-21,5,13
-40,26,66,7,-53,46,10,-25,-20,-22,5,10
-36,28,64,4,-50,46,8,-25,-23,-19,5,5
-26,33,60,-3,-43,46,4,-25,-20,-21,5,0
-24,34,58,-5,-41,45,2,-25,-20,-20,5,3
-25,30,55,-3,-40,42,-1,-25,-20,-20,8,6
-24,30,54,-4,-39,42,-4,-29,-20,-21,11,9
-37,27,65,4,-51,46,-6,-30,-20,-25,10,11
-52,25,77,13,-65,51,-10,-30,-23,-28,15,15
-49,25,74,12,-62,50,-10,-29,-26,-31,15,13
-46,29,75,8,-61,51,-11,-25,-30,-41,16,10
-44,32,76,6,-60,53,-15,-24,-30,-42,20,7
-33,40,73,-4,-53,56,-14,-26,-22,-38,18,4
-10,77,87,-34,-48,82,-18,-24,-17,-23,38,16
-3,109,113,-53,-58,111,-30,-26,-9,-2,59,43
-1,122,123,-60,-63,122,-42,-28,-1,12,52,56
7,143,135,-76,-64,139,-52,-42,8,22,64,54
23,155,132,-89,-55,143,-64,-71,12,13,81,72
35,130,95,-83,-30,112,-63,-72,-17,1,64,69
21,87,65,-54,-22,76,-68,-64,-61,-25,57,42
-30,33,62,-2,-46,47,-56,-57,-74,-79,23,-3
-62,-3,59,33,-61,28,-23,-52,-79,-94,-6,-25
-53,-31,23,42,-38,-4,-11,-44,-92,-109,-17,-52
-41,-36,5,38,-23,-15,-17,-46,-98,-120,-24,-63
-42,-35,7,38,-24,-14,-17,-45,-92,-113,-25,-58
-58,-38,20,48,-38,-9,-17,-43,-98,-134,-38,-81
-45,-27,18,36,-31,-4,-27,-49,-93,-112,-18,-52
-75,-50,26,62,-50,-12,-4,-37,-93,-150,-47,-100
-48,1,49,23,-48,25,-8,-52,-64,-88,-14,-41
-46,3,49,22,-48,26,70,96,100,-34,-45,-45
329,191,-138,-259,233,27,-75,113,281,446,448,606
679,392,-287,-536,483,53,-354,-185,40,832,956,1160
56,20,-36,-38,46,-8,-258,-334,-710,-237,179,-16
-247,-222,25,235,-136,-98,-192,-299,-859,-790,-276,-569
-83,-93,-10,88,-36,-51,-121,-165,-336,-315,-82,-185
-93,-35,57,64,-75,11,-7,-66,-103,-180,-75,-137
-44,-22,21,32,-32,-1,-11,-54,-71,-144,-24,-81
-55,-17,38,36,-46,10,2,-44,-53,-146,-41,-95
-40,-14,26,27,-32,5,-2,-40,-41,-133,-33,-73
-35,-10,25,22,-30,7,5,-32,-25,-120,-29,-71
-34,-7,27,20,-30,10,6,-26,-16,-117,-33,-67
-39,-3,36,21,-37,16,1,-19,3,-97,-25,-53
-43,4,47,20,-45,25,-3,-12,13,-93,-24,-56
-18,16,34,1,-26,25,-10,-6,30,-69,-10,-41
-11,23,34,-7,-23,29,-12,1,45,-59,-7,-40
12,37,25,-25,-7,31,-18,6,74,-46,4,-29
27,48,21,-38,3,34,-21,18,106,-27,11,-24
45,69,24,-57,10,47,-26,37,152,8,28,0
72,92,20,-83,26,56,-31,56,203,41,38,22
90,109,20,-100,35,64,-34,63,235,61,51,45
102,146,44,-124,29,95,-39,58,268,81,76,69
104,159,55,-132,24,107,-46,53,271,95,87,80
106,164,58,-135,24,111,-51,46,260,104,87,93
99,167,68,-133,15,117,-55,43,249,106,78,88
73,159,86,-117,-7,123,-60,28,206,105,69,78
60,162,102,-111,-21,132,-56,-1,149,74,61,65
35,135,100,-86,-32,117,-50,-23,83,14,50,35
9,102,93,-55,-42,97,-45,-41,25,-37,34,3
-2,83,86,-41,-44,84,-39,-46,-14,-73,12,-33
-23,55,79,-16,-51,67,-33,-44,-39,-101,0,-63
-32,38,70,-4,-51,54,-30,-46,-45,-114,-12,-70
-27,40,67,-7,-47,53,-30,-45,-45,-111,-22,-74
-31,40,71,-5,-51,56,-30,-45,-45,-109,-20,-75
-43,39,82,2,-63,60,-30,-49,-45,-106,-20,-75
-32,53,85,-11,-59,69,-30,-50,-46,-103,-19,-75
-18,67,85,-25,-52,76,-30,-52,-47,-100,-21,-75
-27,70,97,-21,-62,83,-27,-56,-44,-101,-18,-75
-28,65,94,-19,-61,79,-24,-54,-41,-106,-28,-74
-28,55,84,-14,-56,69,-21,-48,-38,-108,-51,-71
-32,43,75,-6,-54,59,-18,-43,-35,-112,-49,-66
-44,23,66,10,-55,44,-16,-37,-34,-115,-46,-64
-42,4,46,18,-44,25,-13,-31,-30,-112,-44,-59
-29,-2,26,15,-27,12,-10,-27,-25,-110,-40,-56
-34,-9,24,21,-29,7,-10,-20,-23,-111,-39,-52
-41,-14,27,27,-34,7,-7,-21,-17,-108,-23,-36
-19,21,39,-1,-29,30,-5,-19,-17,-85,-8,-24
12,49,37,-31,-13,43,-4,-21,-1,-62,3,-7
27,57,30,-42,-2,43,-16,-19,29,-48,17,8
46,75,29,-61,8,51,-42,-22,27,-37,37,20
57,78,21,-68,17,49,-59,-55,4,-41,49,34
51,70,19,-61,15,44,-58,-69,-31,-53,40,15
26,30,4,-28,11,16,-44,-67,-58,-84,25,-12
-12,-24,-12,18,0,-18,-28,-56,-70,-128,-13,-49
-30,-55,-25,43,-2,-40,-25,-46,-76,-131,-37,-58
-47,-85,-38,66,-4,-61,-14,-37,-78,-145,-56,-80
-43,-84,-41,64,-1,-62,-16,-43,-86,-139,-46,-73
-53,-89,-37,71,-8,-63,-4,-37,-80,-132,-51,-75
-49,-75,-26,62,-11,-50,-2,-41,-80,-135,-53,-80
-43,-71,-28,57,-7,-50,4,-41,-67,-112,-42,-63
-50,-67,-17,59,-16,-42,26,-26,-69,-136,-70,-96
1,-21,-21,10,12,-21,18,-12,-24,-75,-40,-38
-8,-38,-30,23,11,-34,93,149,152,-9,-44,-12
467,201,-266,-334,366,-32,-124,93,303,533,553,740
642,299,-343,-470,492,-22,-351,-216,-45,647,831,952
-71,-97,-26,84,-22,-61,-214,-331,-778,-440,-21,-247
-206,-236,-30,221,-87,-133,-158,-255,-753,-690,-267,-482
-58,-117,-59,88,1,-87,-73,-112,-239,-263,-85,-154
-65,-78,-13,72,-26,-45,6,-55,-85,-184,-92,-122
-21,-64,-43,43,11,-53,13,-47,-56,-139,-62,-80
-43,-57,-14,51,-14,-35,26,-31,-40,-145,-79,-105
-24,-51,-28,37,2,-39,16,-27,-28,-128,-59,-74
-30,-44,-14,37,-8,-29,23,-18,-11,-123,-63,-83
-23,-38,-15,31,-4,-26,19,-13,0,-117,-56,-70
-22,-32,-10,27,-6,-21,20,-5,16,-105,-51,-64
-20,-25,-6,23,-7,-15,15,0,29,-100,-51,-58
-17,-21,-4,19,-7,-12,15,5,43,-84,-44,-45
-10,-8,2,9,-5,-3,13,12,61,-69,-43,-43
10,3,-7,-6,8,-2,9,16,92,-47,-37,-29
38,28,-10,-33,24,9,11,29,126,-29,-26,-17
69,50,-19,-60,44,15,5,51,164,-4,-11,3
79,63,-16,-71,47,23,-5,73,203,28,2,29
101,96,-5,-98,53,45,-15,84,243,56,17,51
105,114,9,-110,48,61,-25,88,261,69,31,64
119,134,15,-127,52,74,-35,88,254,83,49,65
127,153,25,-140,51,89,-37,78,247,88,49,63
100,151,51,-126,24,101,-34,64,242,78,40,59
75,140,65,-107,5,102,-31,36,200,68,32,57
56,128,72,-92,-8,99,-28,4,137,42,23,48
45,114,68,-80,-12,91,-26,-21,78,-3,10,16
19,81,62,-50,-22,71,-23,-34,24,-45,-15,-14
-2,58,59,-28,-31,58,-20,-39,-13,-75,-32,-39
-8,46,53,-19,-31,49,-17,-43,-39,-98,-52,-63
-18,32,50,-7,-34,41,-15,-45,-51,-111,-66,-75
-20,30,50,-5,-35,40,-11,-50,-58,-117,-63,-75
-20,29,50,-5,-35,40,-9,-47,-58,-117,-74,-75
-23,27,51,-2,-37,39,-14,-45,-53,-113,-75,-75
-26,24,49,1,-38,36,-15,-45,-50,-111,-67,-75
-24,28,52,-2,-38,39,-15,-41,-47,-108,-65,-75
-16,43,59,-14,-38,51,-15,-39,-42,-105,-60,-75
-15,38,53,-11,-34,45,-15,-41,-40,-106,-55,-75
-17,29,46,-6,-31,37,-14,-44,-44,-110,-58,-75
-18,21,38,-2,-28,29,-10,-45,-46,-113,-60,-75
-14,16,30,-1,-22,23,-10,-48,-51,-117,-60,-76
-3,24,27,-11,-15,25,-10,-51,-48,-120,-60,-72
-6,31,38,-13,-22,34,-10,-47,-41,-116,-60,-67
-21,41,62,-10,-42,51,-10,-43,-36,-107,-59,-61
-23,46,69,-12,-46,58,-13,-37,-29,-99,-42,-55
-9,63,72,-28,-41,68,-19,-33,-25,-85,-25,-46
13,91,77,-52,-32,84,-22,-29,-20,-71,-15,-31
32,112,81,-72,-25,96,-28,-24,-21,-68,-5,-31
49,125,75,-87,-13,100,-59,-56,-18,-70,1,-28
51,119,68,-85,-9,93,-79,-87,-32,-69,0,-25
35,99,65,-67,-15,82,-83,-86,-77,-73,-8,-26
31,50,19,-40,6,34,-70,-81,-103,-110,-25,-53
-11,-4,8,7,-10,2,-33,-78,-112,-149,-57,-100
-54,-39,15,46,-34,-12,-13,-76,-109,-150,-69,-101
-69,-62,7,65,-38,-27,-6,-68,-110,-171,-88,-128
-52,-55,-3,53,-24,-29,-15,-71,-111,-159,-78,-118
-56,-66,-10,61,-23,-38,-3,-56,-107,-166,-93,-134
-57,-57,0,58,-28,-28,-18,-62,-109,-154,-78,-117
-49,-72,-23,61,-13,-47,-1,-43,-91,-153,-89,-129
-62,-59,3,60,-32,-27,-4,-53,-98,-156,-88,-127
-70,-31,39,50,-54,4,32,-5,-25,-108,-82,-102
49,16,-33,-32,41,-9,62,149,171,40,5,58
621,291,-331,-456,476,-20,-236,-11,244,634,678,874
483,213,-270,-348,376,-28,-312,-284,-282,333,552,553
-211,-179,31,195,-121,-74,-190,-331,-893,-677,-234,-528
-146,-187,-41,167,-53,-113,-162,-222,-612,-577,-217,-412
-72,-74,-2,73,-35,-38,-49,-103,-191,-247,-131,-198
-98,-64,34,81,-66,-15,-10,-61,-112,-201,-112,-168
-64,-50,14,57,-39,-18,10,-37,-70,-157,-84,-136
-80,-44,36,61,-57,-4,12,-36,-73,-168,-106,-150
-62,-41,21,51,-41,-10,7,-30,-51,-147,-84,-123
-74,-38,37,56,-55,0,13,-26,-38,-152,-96,-134
-58,-33,25,45,-41,-4,7,-22,-23,-139,-86,-113
-55,-31,25,43,-40,-3,10,-16,-9,-130,-88,-117
-42,-25,17,33,-29,-4,3,-9,6,-118,-76,-104
-27,-15,12,21,-20,-1,3,4,26,-98,-69,-95
-11,-5,7,8,-9,1,-1,12,46,-76,-62,-86
9,10,1,-10,4,5,-4,27,83,-50,-53,-74
19,23,3,-21,8,13,-5,39,110,-36,-44,-65
36,42,6,-40,15,24,-12,57,149,-18,-30,-37
57,60,4,-59,26,32,-19,84,197,6,-18,-12
88,94,6,-92,41,50,-26,87,235,36,-2,5
119,122,3,-121,57,62,-34,79,254,56,7,17
124,134,9,-129,57,71,-42,73,247,68,5,30
98,149,51,-124,23,100,-43,66,239,72,5,31
83,144,62,-113,10,103,-36,59,220,57,3,20
69,136,67,-103,1,101,-31,35,173,44,-1,11
39,116,77,-78,-19,96,-26,10,122,18,2,-1
15,84,69,-50,-27,77,-20,-17,63,-16,-14,-26
-6,62,68,-28,-38,65,-16,-40,9,-41,-47,-62
-18,45,63,-14,-41,54,-15,-40,-27,-77,-65,-90
-26,33,59,-3,-43,46,-15,-40,-42,-98,-75,-108
-36,25,61,5,-49,42,-15,-40,-55,-97,-77,-113
-34,25,59,5,-47,41,-15,-40,-65,-95,-74,-109
-37,25,62,6,-50,43,-15,-40,-58,-91,-75,-110
-50,25,74,12,-63,49,-12,-40,-54,-89,-75,-110
-50,25,75,12,-63,50,-10,-40,-48,-85,-75,-110
-45,26,70,9,-58,47,-10,-40,-42,-85,-74,-110
-35,34,69,0,-52,51,-10,-40,-42,-90,-70,-105
-29,36,65,-4,-47,51,-10,-40,-46,-90,-70,-105
-33,31,65,0,-49,48,-10,-40,-44,-93,-70,-104
-23,43,66,-11,-44,54,-15,-39,-47,-96,-70,-100
-17,47,64,-16,-41,55,-15,-41,-54,-92,-71,-101
-27,40,67,-7,-47,53,-16,-38,-58,-87,-65,-98
-33,30,62,1,-48,46,-20,-46,-68,-80,-57,-89
-22,51,73,-15,-48,62,-20,-50,-61,-75,-49,-81
-8,96,104,-45,-56,100,-22,-34,-33,-71,-41,-73
-4,102,106,-50,-55,104,-27,-25,-17,-58,-34,-65
14,127,113,-71,-49,119,-30,-25,-11,-46,-18,-61
35,147,112,-91,-39,129,-46,-50,-13,-30,-13,-55
35,126,91,-80,-29,108,-70,-73,-39,-39,-25,-52
33,109,75,-71,-21,92,-71,-91,-70,-63,-32,-50
26,76,50,-51,-12,63,-59,-93,-96,-106,-40,-78
-10,34,44,-12,-27,39,-43,-73,-102,-156,-69,-126
-33,1,35,16,-34,18,-21,-71,-100,-160,-87,-129
-42,-12,30,27,-36,9,-6,-63,-113,-183,-109,-150
-33,-10,23,21,-27,6,-14,-66,-108,-177,-102,-143
-38,-24,14,30,-25,-5,-6,-55,-98,-183,-118,-165
-45,-20,25,32,-34,3,-14,-58,-99,-172,-104,-147
-62,-35,27,49,-45,-4,-9,-57,-81,-172,-113,-159
-61,-9,52,35,-57,21,-1,-62,-92,-172,-112,-158
-82,6,87,38,-85,46,38,-4,-29,-106,-99,-113
5,27,22,-16,-9,24,76,164,146,1,-36,-1
615,271,-343,-443,479,-36,-209,32,253,542,598,747
518,235,-283,-376,400,-24,-321,-259,-203,330,534,522
-246,-127,118,186,-182,-4,-168,-319,-849,-627,-246,-504
-230,-180,50,205,-140,-65,-147,-223,-649,-592,-261,-442
-114,-53,61,83,-87,4,-55,-118,-206,-264,-149,-227
-122,-32,91,77,-106,29,-1,-69,-102,-208,-140,-182
-88,-37,51,62,-69,7,6,-46,-70,-173,-110,-146
-104,-34,70,69,-87,18,17,-41,-61,-177,-121,-159
-77,-35,41,56,-58,3,13,-35,-43,-155,-98,-133
-86,-35,51,60,-68,7,23,-26,-30,-154,-105,-143
-66,-32,34,49,-49,0,23,-19,-7,-138,-89,-124
-56,-24,32,40,-44,3,24,-9,8,-131,-86,-126
-40,-16,25,28,-32,5,19,-2,20,-118,-76,-112
-23,-8,15,15,-18,3,21,10,48,-97,-67,-100
-22,1,24,10,-23,12,16,22,69,-82,-62,-89
-18,11,28,3,-23,19,14,33,96,-72,-51,-76
-3,14,17,-6,-11,16,15,52,131,-50,-44,-65
42,49,8,-46,17,28,10,69,168,-13,-29,-38
67,63,-4,-65,35,29,7,95,217,16,-3,-7
84,68,-16,-76,50,26,3,116,256,43,13,21
108,104,-4,-106,56,50,0,119,277,60,23,36
104,111,7,-108,48,59,-5,117,281,71,35,47
81,110,30,-96,25,69,-3,101,276,84,29,53
46,103,57,-75,-6,80,1,89,258,95,23,48
38,98,60,-68,-11,79,3,67,213,84,16,47
25,88,63,-57,-20,75,6,42,168,62,9,42
-10,56,66,-23,-38,61,9,22,118,32,3,19
-43,26,69,8,-56,47,11,9,60,-18,-18,-14
-68,4,71,32,-70,37,15,11,24,-43,-34,-40
-55,-4,51,29,-52,23,22,8,19,-54,-35,-46
-42,-8,33,25,-37,12,26,5,21,-55,-33,-47
-49,-14,35,31,-42,10,32,5,19,-50,-30,-45
-56,-20,36,37,-45,7,38,7,20,-49,-27,-40
-58,-24,34,41,-46,5,40,10,20,-45,-25,-38
-58,-21,37,39,-47,8,40,10,17,-44,-22,-33
-64,-19,44,41,-54,12,40,10,15,-39,-19,-30
-67,-21,46,43,-57,12,40,10,15,-36,-21,-26
-61,-19,42,40,-51,11,40,9,15,-33,-19,-25
-61,-21,41,41,-51,10,39,6,15,-28,-22,-25
-57,-19,38,38,-48,10,36,5,16,-25,-26,-20
-50,-22,28,36,-39,2,33,5,20,-21,-20,-20
-50,-34,16,41,-33,-9,30,5,20,-20,-15,-20
-27,-26,1,27,-14,-12,28,7,19,-19,-9,-10
-9,-7,2,8,-5,-2,24,11,26,-3,0,0
-5,15,20,-6,-12,17,32,14,36,18,8,9
2,46,43,-24,-21,44,30,18,54,34,17,23
14,64,50,-39,-18,57,14,20,65,55,31,42
24,60,36,-42,-7,48,3,5,51,56,44,65
19,47,28,-34,-5,38,-7,-22,39,39,39,58
32,44,12,-38,10,27,-17,-36,6,26,26,44
29,-4,-33,-12,31,-18,-4,-30,-31,15,19,30
0,-68,-68,34,34,-67,28,-19,-36,-5,-1,-13
-10,-81,-71,46,30,-76,41,-15,-35,-21,-12,-26
-38,-108,-70,73,16,-89,55,-4,-39,-36,-34,-51
-38,-108,-70,73,16,-89,59,-7,-41,-25,-17,-30
-42,-113,-72,78,15,-92,74,-4,-38,-33,-31,-49
-41,-107,-66,74,12,-86,67,1,-36,-22,-22,-29
-64,-112,-48,88,-8,-80,76,4,-21,-24,-22,-36
-77,-111,-34,94,-21,-72,75,-4,-19,-26,-40,-41
-77,-81,-4,79,-37,-42,83,39,44,40,-32,15
-20,-75,-55,48,17,-65,153,204,223,129,-7,64
565,168,-396,-366,480,-114,-108,121,365,692,713,919
527,203,-325,-365,426,-61,-252,-161,-31,614,759,845
-203,-139,64,171,-133,-38,-77,-239,-695,-390,-128,-350
-198,-249,-51,224,-74,-150,-59,-152,-613,-504,-201,-382
-79,-158,-79,119,0,-118,7,-37,-174,-142,-104,-128
-68,-99,-31,83,-19,-65,75,10,-12,-41,-79,-70
-30,-87,-57,59,14,-72,86,23,19,-1,-29,-25
-58,-83,-25,71,-16,-53,94,32,36,3,-54,-41
-44,-80,-36,63,-4,-58,87,36,58,27,-24,-8
-55,-78,-23,67,-16,-50,98,41,61,28,-40,-20
-29,-75,-46,52,9,-60,93,43,76,40,-20,3
-25,-72,-47,49,11,-59,94,52,85,58,-31,2
-9,-59,-50,34,21,-55,87,56,96,66,-29,14
10,-47,-57,19,34,-52,82,61,114,76,-19,22
17,-39,-56,11,37,-47,79,64,132,89,-14,26
31,-33,-64,1,48,-48,73,70,150,106,-3,42
34,-28,-63,-2,49,-45,70,80,185,133,2,60
50,-21,-71,-15,61,-45,64,96,229,161,16,89
63,-9,-73,-27,68,-41,61,113,271,193,27,112
81,15,-66,-48,74,-25,56,115,308,218,48,128
96,42,-54,-69,75,-6,52,108,320,237,67,140
96,53,-44,-74,70,4,47,104,319,256,70,150
94,74,-20,-83,57,26,45,97,306,256,66,158
70,79,9,-75,31,44,45,93,296,244,61,154
60,63,3,-61,28,33,41,87,272,236,57,152
53,50,-2,-51,27,24,40,67,218,223,52,138
27,37,10,-33,9,23,40,53,159,184,42,107
3,15,13,-9,-5,14,52,49,107,140,33,73
-33,-25,8,28,-20,-8,68,44,82,109,12,51
-45,-45,0,45,-23,-22,70,38,79,97,-12,48
-38,-44,-6,41,-16,-25,73,32,76,94,-21,44
-42,-55,-13,49,-15,-33,76,32,73,89,-28,41
-49,-61,-12,55,-18,-37,79,35,71,86,-34,36
-53,-60,-6,57,-24,-33,80,38,68,79,-30,36
-53,-60,-7,57,-23,-33,75,41,66,93,-25,41
-44,-60,-16,52,-14,-38,75,44,62,105,-21,40
-28,-59,-31,44,2,-45,75,45,60,99,-16,40
-25,-56,-30,41,3,-43,75,40,56,101,-11,40
-29,-54,-26,42,-1,-40,75,40,54,98,-7,40
-38,-56,-18,47,-9,-37,72,39,59,95,-1,40
-37,-54,-17,46,-9,-36,70,35,60,94,4,40
-21,-57,-36,39,8,-46,70,35,62,97,9,39
-18,-48,-30,33,6,-39,70,33,66,104,15,41
6,-16,-22,5,14,-19,70,28,65,112,20,67
12,13,1,-12,5,7,71,25,70,134,25,78
1,35,34,-18,-16,34,62,21,85,149,29,74
14,41,27,-28,-6,34,58,18,84,155,35,85
28,33,5,-30,11,19,60,14,78,166,41,88
32,29,-3,-31,17,13,60,9,68,153,29,73
44,15,-30,-29,37,-8,63,1,30,130,26,67
41,-38,-79,-1,60,-58,65,-6,14,101,16,50
-1,-80,-79,40,39,-80,66,-7,10,77,-2,24
-21,-102,-81,61,30,-91,68,-2,5,74,-12,24
-40,-118,-79,79,20,-98,73,6,2,50,-43,3
-40,-121,-81,80,21,-101,65,5,-5,63,-31,21
-59,-138,-79,99,10,-109,76,20,-1,43,-55,-14
-47,-117,-71,82,12,-94,62,14,1,56,-34,12
-58,-133,-76,95,9,-104,81,20,13,41,-60,-16
-51,-106,-55,79,2,-80,74,18,10,43,-43,11
-37,-110,-74,74,19,-92,127,95,90,99,-58,12
76,-60,-136,-8,106,-98,140,218,293,301,90,233
599,245,-354,-421,476,-55,-189,14,295,958,909,1221
367,160,-207,-264,287,-23,-229,-224,-249,520,646,703
-252,-187,65,220,-158,-61,-85,-222,-767,-543,-236,-490
-151,-228,-77,190,-37,-152,-74,-128,-518,-398,-196,-304
-97,-134,-37,116,-29,-85,40,-28,-111,-65,-129,-114
-78,-102,-24,90,-27,-63,71,13,-11,-8,-88,-60
-35,-102,-67,69,16,-84,69,32,17,18,-72,-40
-50,-91,-41,71,-5,-66,72,29,27,20,-89,-55
-36,-91,-55,64,10,-73,67,31,38,46,-67,-34
-48,-84,-36,67,-6,-60,73,36,47,40,-83,-50
-39,-81,-42,60,2,-61,67,34,59,53,-68,-32
-44,-75,-31,60,-7,-53,67,39,72,52,-75,-44
-35,-65,-31,50,-1,-48,60,39,79,68,-66,-28
-28,-58,-30,43,1,-43,59,42,86,84,-66,-25
-23,-49,-25,36,1,-37,54,45,98,86,-62,-18
-11,-35,-24,23,7,-29,51,45,130,102,-59,-6
13,-23,-36,5,25,-29,47,55,158,124,-58,9
44,-1,-45,-21,45,-23,39,72,198,150,-43,29
49,23,-26,-36,37,-1,33,81,247,177,-32,44
65,44,-21,-54,43,11,25,84,278,197,-23,55
80,64,-16,-72,48,24,20,89,291,207,-11,60
73,77,3,-75,35,39,15,87,287,205,-8,70
78,94,16,-86,30,55,10,74,283,198,-12,72
46,91,45,-69,0,68,7,63,261,194,-17,67
22,84,61,-53,-20,72,1,41,210,182,-20,63
16,78,62,-47,-23,70,2,12,151,146,-26,30
-24,57,81,-17,-53,69,5,0,84,94,-54,-9
-38,38,76,0,-58,57,8,-14,30,46,-86,-43
-40,23,63,8,-51,43,11,-30,1,10,-106,-73
-43,10,53,16,-48,31,14,-30,-5,-8,-113,-87
-51,4,55,23,-54,30,15,-30,-10,-14,-124,-103
-57,6,63,25,-60,34,10,-30,-16,-21,-131,-111
-63,2,65,30,-64,34,10,-30,-22,-29,-129,-117
-84,0,84,42,-84,41,10,-30,-24,-37,-133,-117
-84,0,84,41,-84,42,10,-30,-20,-38,-130,-114
-75,3,78,36,-77,41,10,-30,-21,-35,-130,-115
-68,9,77,29,-72,42,12,-30,-17,-32,-128,-110
-59,12,71,23,-65,41,15,-30,-15,-29,-124,-110
-51,18,69,16,-60,43,15,-30,-14,-26,-126,-110
-45,19,64,12,-55,42,15,-34,-23,-24,-121,-110
-52,13,65,19,-59,39,15,-34,-32,-33,-120,-110
-56,10,65,22,-61,37,15,-30,-28,-38,-120,-110
-60,4,64,27,-62,34,10,-30,-25,-32,-115,-110
-50,19,69,15,-60,43,2,-28,-22,-25,-115,-110
-25,61,85,-18,-55,73,-4,-24,-18,-21,-114,-104
-17,94,111,-39,-64,102,-11,-26,3,-12,-102,-87
-4,105,109,-51,-57,107,-18,-28,12,-5,-90,-75
8,102,94,-55,-43,98,-38,-38,-1,6,-81,-70
2,89,87,-45,-43,88,-51,-65,-10,5,-79,-68
-1,78,79,-39,-40,78,-49,-95,-45,-32,-82,-85
-9,45,54,-18,-32,49,-52,-94,-82,-63,-99,-111
-40,-3,36,21,-38,16,-26,-71,-91,-91,-133,-146
-66,-32,34,49,-50,1,-3,-66,-92,-95,-141,-153
-93,-58,35,75,-64,-11,3,-63,-95,-117,-171,-181
-83,-52,30,68,-56,-11,-4,-68,-96,-121,-167,-182
-85,-56,28,71,-57,-14,4,-61,-93,-128,-182,-196
-75,-41,34,58,-54,-3,-3,-70,-99,-125,-171,-181
-76,-43,33,59,-54,-5,2,-59,-90,-121,-173,-179
-84,-35,49,60,-66,7,10,-58,-98,-133,-186,-189
-67,-6,61,36,-64,27,27,-17,-24,-65,-139,-149
-13,7,20,3,-17,13,77,142,171,46,-118,-66
531,301,-230,-416,380,36,-185,21,283,705,586,855
507,306,-201,-406,354,52,-339,-260,-173,587,676,782
-182,-121,62,151,-122,-29,-194,-333,-868,-608,-262,-542
-193,-197,-4,195,-94,-101,-156,-243,-699,-652,-371,-580
-105,-80,25,93,-65,-28,-67,-126,-224,-239,-236,-292
-91,-37,55,64,-73,9,-9,-80,-116,-181,-249,-264
-48,-21,27,34,-37,3,-4,-58,-75,-123,-209,-208
-66,-19,47,42,-57,14,4,-55,-64,-139,-227,-235
-37,-11,26,24,-31,7,-4,-51,-47,-116,-203,-203
-48,-7,41,27,-45,17,3,-45,-35,-119,-215,-217
-37,-1,36,19,-36,17,-2,-43,-25,-108,-201,-199
-37,5,42,16,-40,23,-1,-36,-9,-97,-202,-201
-25,14,40,6,-33,27,-6,-32,4,-87,-197,-190
-17,23,40,-3,-28,31,-5,-25,24,-70,-187,-180
-10,31,41,-10,-26,36,-8,-20,39,-60,-181,-175
1,40,39,-20,-19,39,-11,-15,69,-43,-170,-162
13,54,40,-34,-14,47,-10,-4,104,-30,-160,-150
37,77,40,-57,-2,58,-16,16,144,0,-144,-127
57,102,44,-80,6,73,-23,42,185,30,-132,-108
78,125,46,-102,16,85,-29,45,219,52,-113,-89
81,147,67,-114,7,107,-36,35,238,72,-104,-85
100,172,72,-136,14,121,-42,29,232,89,-106,-86
112,180,68,-145,22,123,-48,19,222,91,-103,-85
79,170,91,-125,-6,130,-57,13,215,77,-100,-85
50,159,109,-105,-30,134,-56,-1,178,64,-99,-84
43,152,109,-97,-33,130,-49,-29,109,30,-104,-92
24,130,106,-77,-41,118,-46,-53,49,-18,-129,-124
-7,93,100,-43,-53,96,-41,-62,3,-60,-161,-167
-22,74,95,-26,-59,84,-36,-67,-39,-97,-181,-194
-34,57,92,-12,-63,74,-32,-74,-60,-115,-194,-215
-32,53,85,-10,-59,69,-30,-72,-62,-132,-205,-232
-33,56,89,-12,-61,72,-27,-69,-59,-137,-205,-235
-37,55,92,-9,-65,73,-24,-66,-60,-134,-205,-235
-31,60,91,-14,-61,75,-20,-63,-60,-135,-205,-235
-25,60,85,-18,-55,72,-20,-60,-60,-130,-205,-235
-29,59,88,-15,-59,73,-24,-61,-60,-130,-205,-235
-53,55,107,-1,-80,81,-26,-68,-60,-131,-205,-232
-49,55,104,-3,-77,79,-30,-74,-60,-135,-205,-229
-40,55,95,-8,-68,75,-32,-75,-60,-138,-205,-230
-34,55,89,-11,-62,72,-37,-75,-60,-141,-205,-230
-25,55,80,-16,-53,67,-40,-75,-65,-146,-205,-230
-22,54,77,-16,-50,65,-35,-75,-64,-141,-208,-230
-27,55,82,-14,-55,69,-34,-76,-60,-132,-219,-223
-32,57,89,-13,-61,73,-29,-80,-54,-126,-213,-211
-4,93,96,-45,-50,94,-29,-80,-51,-119,-200,-203
18,126,109,-72,-45,117,-23,-82,-46,-115,-188,-191
28,135,106,-82,-39,120,-32,-86,-45,-115,-173,-187
46,145,100,-96,-27,122,-76,-84,-40,-116,-163,-180
39,133,94,-86,-28,113,-88,-91,-43,-113,-166,-175
23,112,89,-68,-33,100,-77,-105,-95,-128,-182,-207
26,87,61,-57,-18,74,-80,-103,-120,-156,-192,-231
-2,47,49,-22,-26,47,-66,-97,-112,-184,-218,-254
-44,16,61,14,-53,38,-43,-98,-119,-186,-238,-263
-65,0,65,32,-65,32,-25,-88,-127,-203,-258,-292
-65,2,67,31,-65,34,-34,-92,-130,-201,-255,-290
-70,-8,62,39,-65,27,-27,-80,-117,-197,-265,-305
-78,-8,70,43,-74,31,-31,-83,-123,-202,-270,-310
-74,-15,59,44,-66,22,-33,-73,-106,-182,-263,-292
-79,-13,67,46,-73,27,-18,-69,-115,-209,-289,-327
-40,17,57,11,-48,36,-8,-67,-85,-155,-257,-266
-30,21,52,5,-41,36,64,95,88,-90,-261,-238
451,259,-193,-354,322,33,-160,45,245,446,327,505
643,330,-314,-486,478,8,-354,-237,-88,562,600,708
-90,-63,28,76,-59,-18,-212,-347,-827,-515,-242,-489
-224,-204,19,214,-121,-92,-184,-273,-804,-766,-489,-715
-61,-74,-13,67,-24,-43,-88,-145,-290,-333,-309,-386
-101,-23,78,61,-89,27,-29,-105,-134,-247,-311,-361
-49,-11,38,30,-44,13,-123,-97,-96,-209,-282,-315
-70,-8,62,39,-66,27,-151,-81,-81,-214,-298,-336
-47,-6,41,26,-44,17,-157,-69,-67,-194,-279,-304
-48,-2,46,25,-47,22,-150,-54,-54,-188,-284,-311
-40,0,40,20,-40,20,-150,-47,-46,-180,-275,-299
-33,2,35,15,-35,19,-144,-38,-34,-168,-269,-295
-27,9,36,8,-32,22,-147,-30,-19,-164,-267,-291
-14,15,29,-1,-22,22,-164,-23,6,-146,-257,-283
-7,23,30,-8,-18,26,-163,-14,29,-131,-255,-276
4,28,24,-17,-10,26,-177,-1,49,-92,-247,-258
14,39,25,-27,-5,31,-172,10,85,11,-242,-247
46,58,11,-52,17,34,-155,27,108,53,-232,-227
