I,II,III,aVR,aVL,aVF,V1,V2,V3,V4,V5,V6
-77,-217,-140,147,31,-179,-277,-704,-929,-600,-370,-195
-81,-112,-31,97,-24,-71,-155,-433,-557,-372,-220,-127
-109,-39,70,74,-90,15,9,-104,-144,-145,-91,-103
-107,-31,76,69,-91,22,60,-34,-64,-110,-78,-104
-111,-29,82,70,-96,27,91,1,-19,-81,-66,-98
-110,-31,79,70,-95,24,99,30,8,-85,-71,-94
-104,-29,75,66,-89,22,102,44,36,-85,-70,-90
-109,-33,76,71,-92,21,106,64,48,-77,-69,-90
-127,-53,74,90,-100,11,110,75,47,-82,-70,-87
-131,-55,75,92,-102,10,124,90,67,-80,-70,-101
-140,-55,85,97,-112,15,135,105,72,-87,-88,-113
-147,-55,91,101,-119,17,145,128,99,-86,-90,-108
-142,-53,90,98,-116,18,155,146,102,-92,-89,-111
-154,-64,90,109,-122,13,165,176,109,-93,-91,-109
-163,-72,91,118,-127,9,171,203,142,-95,-97,-111
-157,-69,88,113,-123,10,196,233,158,-94,-104,-115
-155,-67,88,111,-121,10,222,270,176,-97,-105,-122
-171,-64,107,118,-139,21,241,300,199,-111,-116,-140
-176,-65,111,120,-143,23,264,331,200,-125,-128,-149
-191,-75,115,133,-153,20,286,364,228,-148,-143,-162
-207,-76,131,141,-168,27,306,387,253,-170,-162,-171
-208,-65,143,137,-175,38,318,393,252,-183,-161,-165
-226,-58,168,142,-196,55,324,387,255,-179,-154,-161
-240,-52,188,146,-214,68,312,383,260,-166,-153,-158
-216,-20,195,118,-205,88,302,380,265,-159,-140,-147
-178,27,205,75,-192,116,288,350,256,-120,-94,-113
-127,75,202,26,-164,138,217,272,248,-46,-30,-63
-62,124,186,-31,-124,155,124,177,238,45,39,4
-37,136,173,-50,-106,155,60,94,210,121,102,58
-31,131,162,-50,-97,146,21,33,174,144,122,75
-21,129,150,-54,-86,140,11,-1,135,152,116,81
-16,124,140,-54,-78,131,8,-23,98,151,114,82
-13,121,134,-55,-73,127,3,-41,75,140,109,74
-11,117,128,-53,-70,123,-1,-46,75,133,106,67
-10,115,125,-53,-68,120,-5,-45,75,122,103,59
-4,115,119,-56,-62,117,0,-45,70,116,99,52
-1,115,116,-57,-59,116,3,-45,70,111,97,58
5,115,110,-60,-53,112,6,-45,69,106,94,60
1,115,113,-58,-57,114,11,-40,65,103,91,54
-24,110,134,-44,-79,122,14,-40,63,97,89,52
-31,105,135,-37,-84,120,18,-39,60,94,86,47
-34,101,134,-34,-84,117,20,-35,56,89,83,44
-39,96,135,-29,-88,115,21,-35,55,86,81,40
-43,92,135,-25,-89,113,25,-37,52,83,77,35
-47,87,134,-20,-91,110,24,-41,49,78,75,31
-45,84,129,-19,-88,106,21,-40,50,75,73,26
-51,80,131,-14,-91,105,18,-44,50,71,69,22
-50,77,127,-13,-89,102,15,-46,50,70,70,17
-52,72,124,-11,-89,98,12,-45,48,70,66,15
-57,68,125,-6,-91,96,10,-50,38,65,65,15
-41,81,121,-20,-81,100,8,-49,26,65,65,16
-37,82,120,-22,-79,101,5,-54,15,64,60,14
-46,74,120,-14,-83,97,2,-65,6,60,55,17
-52,67,120,-7,-86,93,-1,-65,-1,60,50,30
-59,61,120,-1,-89,90,-5,-65,-8,60,47,30
-67,54,121,6,-94,87,-5,-65,-14,60,39,25
-69,57,125,6,-98,91,-1,-65,-21,60,49,24
-53,72,125,-10,-89,98,0,-63,-24,60,62,19
-51,76,127,-13,-89,102,1,-59,-18,60,59,21
-52,79,131,-14,-91,105,6,-60,-17,60,61,25
-50,78,128,-14,-89,103,4,-59,-1,59,57,28
-35,104,139,-35,-87,121,11,-60,41,83,76,47
-8,147,155,-70,-82,151,46,-59,81,96,90,61
10,154,143,-82,-67,148,24,-61,84,84,76,49
27,123,96,-75,-35,110,-34,-58,48,75,69,38
10,68,58,-39,-25,63,-40,-63,-4,52,56,23
-16,37,53,-10,-35,45,-36,-80,-53,36,41,6
-28,18,46,5,-37,31,-32,-80,-61,25,23,-9
-38,0,38,19,-38,18,-29,-84,-61,14,14,-27
-40,-9,31,24,-36,11,-25,-84,-71,7,13,-34
-46,-22,25,34,-35,1,-21,-88,-82,-5,6,-39
-62,-28,35,45,-48,3,-21,-89,-74,4,9,-38
-72,-36,36,54,-54,0,-17,-92,-89,-14,-5,-43
-70,-24,46,47,-58,11,-20,-94,-69,1,8,-36
-95,-36,58,66,-77,11,-8,-95,-85,-19,2,-44
-80,-19,61,50,-70,21,-23,-101,-68,0,17,-36
-90,-30,60,60,-74,14,-5,-101,-75,5,15,-37
-80,-21,58,51,-69,18,-26,-112,-76,3,19,-34
-56,8,65,24,-61,36,-10,-112,-33,39,33,-17
-35,38,72,-2,-54,55,-94,-169,13,67,55,12
172,303,130,-238,21,216,-374,-255,461,644,441,274
471,645,174,-558,149,409,-702,-575,468,1122,836,608
1010,1223,213,-1117,398,718,-1349,-1136,503,1949,1529,1199
1098,895,-202,-996,650,347,-1439,-1634,-615,1538,1338,1137
452,-287,-739,-83,596,-513,-944,-1790,-2581,-791,-245,39
41,-463,-504,211,273,-483,-634,-1347,-1972,-1164,-671,-356
-75,-241,-166,158,46,-203,-303,-754,-933,-564,-349,-206
-85,-124,-39,104,-23,-81,-92,-308,-448,-302,-179,-145
-98,-46,52,72,-74,3,50,-67,-43,-59,-41,-89
-134,-64,70,99,-102,3,105,-8,-49,-95,-68,-103
-141,-40,102,90,-121,30,97,37,46,-26,-38,-89
-148,-57,92,102,-120,17,120,47,16,-63,-56,-95
-143,-47,96,94,-119,24,116,67,55,-45,-51,-88
-146,-50,95,97,-121,22,130,79,57,-50,-54,-90
-149,-56,93,102,-121,18,134,90,62,-53,-58,-96
-158,-59,99,108,-129,20,149,118,89,-45,-57,-97
-160,-62,99,111,-130,19,157,135,90,-70,-66,-104
-160,-59,101,109,-131,21,160,155,122,-62,-71,-107
-159,-60,99,109,-129,20,181,183,128,-73,-88,-117
-184,-84,101,134,-142,8,192,208,148,-70,-84,-121
-196,-96,100,146,-147,2,198,234,161,-78,-84,-129
-203,-98,104,150,-153,3,215,269,187,-80,-103,-141
-210,-104,106,157,-158,0,236,305,212,-88,-110,-138
-198,-95,102,146,-150,3,255,337,224,-109,-120,-150
-213,-92,121,152,-167,15,278,380,258,-109,-129,-160
-220,-84,135,152,-177,25,306,415,279,-128,-141,-166
-229,-80,148,154,-188,34,330,440,292,-150,-160,-180
-243,-70,173,156,-208,52,344,467,320,-147,-153,-172
-244,-54,190,149,-217,67,340,474,343,-142,-143,-163
-253,-39,214,146,-233,87,330,461,351,-139,-138,-157
-223,1,224,111,-223,112,318,444,349,-130,-125,-146
-189,45,234,72,-212,139,276,394,345,-78,-89,-110
-142,83,225,29,-184,154,199,292,325,-3,-20,-57
-60,128,188,-34,-125,158,124,183,285,80,52,0
-28,140,168,-56,-98,154,67,94,234,128,79,46
-15,126,141,-56,-78,133,35,32,183,122,73,51
0,118,118,-59,-60,118,29,-5,141,120,72,47
-5,107,112,-51,-59,109,22,-17,109,117,68,45
-10,98,107,-44,-59,102,16,-22,93,112,65,41
-16,88,104,-36,-60,95,8,-30,89,110,64,40
-22,77,99,-28,-60,88,6,-38,83,104,58,37
-24,70,94,-24,-59,82,10,-44,78,98,53,34
-21,70,90,-25,-56,80,11,-41,72,91,47,31
-19,70,90,-25,-55,80,14,-40,67,84,41,28
-20,70,90,-25,-55,80,16,-40,65,78,36,25
-20,71,90,-25,-55,80,14,-40,62,72,32,24
-22,68,90,-23,-56,78,17,-40,59,66,27,19
-30,63,92,-17,-61,77,28,-43,56,61,24,13
-38,57,95,-10,-67,76,31,-45,54,56,21,10
-41,54,95,-7,-68,74,29,-45,49,50,16,5
-50,48,98,1,-74,73,30,-45,43,45,14,0
-55,45,100,5,-78,72,30,-45,39,41,9,-4
-50,50,99,0,-74,74,29,-45,32,38,6,-5
-46,50,96,-3,-71,72,24,-45,27,35,3,-5
-41,50,91,-4,-66,70,21,-45,22,32,-2,-5
-39,50,89,-6,-64,69,18,-45,16,30,-5,-5
-34,50,84,-9,-59,67,13,-63,11,28,-8,-6
-33,48,81,-7,-57,64,10,-72,6,24,-11,-10
-36,41,77,-3,-57,59,6,-69,0,25,-14,-9
-38,37,75,0,-57,56,5,-71,-5,25,-17,-13
-44,31,75,6,-60,52,5,-70,-10,25,-19,-15
-47,25,72,11,-60,48,5,-70,-13,25,-22,-15
-49,20,69,14,-59,45,5,-70,-17,20,-25,-11
-36,35,71,1,-54,52,4,-70,-20,20,-25,-6
-14,56,69,-21,-42,62,0,-70,-25,20,-27,-2
-17,54,71,-19,-45,62,0,-70,-23,20,-30,0
-32,56,87,-12,-60,71,-2,-70,-16,20,-30,-18
-36,54,91,-9,-64,72,-5,-68,-11,22,-26,-20
-37,55,92,-10,-65,73,-5,-63,-4,27,-19,-5
-39,56,96,-9,-68,76,5,-57,-2,29,-13,4
-27,69,95,-21,-61,82,30,-54,20,50,-6,23
0,113,113,-57,-56,113,51,-47,41,65,0,31
6,129,123,-67,-59,126,47,-45,24,62,4,22
-5,83,88,-39,-46,85,6,-48,12,59,-2,13
-22,22,44,0,-33,33,-30,-51,-26,25,-15,2
-32,3,36,14,-34,19,-31,-55,-65,0,-42,-7
-36,-7,29,22,-33,10,-29,-57,-71,-10,-78,-18
-42,-19,23,30,-32,2,-28,-74,-88,-18,-81,-25
-47,-31,16,39,-31,-7,-23,-74,-99,-25,-78,-35
-52,-42,10,47,-31,-16,-26,-80,-106,-42,-85,-43
-70,-54,16,61,-43,-18,-20,-95,-106,-48,-96,-48
-81,-63,18,72,-50,-22,-18,-95,-117,-62,-106,-52
-58,-31,27,44,-42,-2,-24,-96,-100,-32,-86,-38
-65,-40,25,53,-45,-8,-13,-93,-122,-59,-105,-48
-53,-15,38,34,-45,11,-30,-98,-98,-20,-78,-28
-65,-31,34,48,-49,1,-5,-89,-113,-49,-100,-42
-51,-4,47,28,-49,21,-30,-94,-83,-29,-74,-22
-59,-8,52,33,-56,22,5,-78,-70,-31,-81,-32
-10,48,58,-20,-34,53,-107,-109,57,101,-5,30
264,385,121,-325,71,253,-423,-230,557,825,494,391
625,800,175,-713,225,487,-810,-602,572,1376,974,811
1177,1362,185,-1270,496,773,-1507,-1372,418,2174,1680,1445
1065,672,-393,-868,729,139,-1340,-1767,-971,1037,954,981
270,-600,-870,166,570,-734,-594,-1508,-2461,-1313,-796,-320
-106,-573,-466,340,180,-519,-392,-1111,-1717,-1199,-881,-484
-119,-246,-127,183,5,-186,-222,-646,-877,-614,-481,-244
-74,-105,-31,90,-21,-68,-22,-192,-366,-314,-286,-152
-108,-92,16,100,-62,-38,80,7,-110,-142,-208,-115
-120,-109,10,114,-65,-49,96,41,-136,-195,-246,-116
-119,-86,33,102,-76,-26,104,67,-50,-132,-203,-109
-132,-103,29,118,-80,-37,118,78,-73,-174,-224,-145
-119,-87,31,103,-75,-28,116,88,-34,-138,-198,-134
-125,-95,30,110,-77,-33,126,93,-41,-151,-212,-146
-111,-85,26,98,-68,-29,126,109,-24,-140,-210,-145
-134,-109,26,121,-80,-41,131,131,-14,-137,-209,-144
-150,-126,24,138,-87,-51,137,145,-12,-153,-220,-146
-145,-119,27,131,-86,-46,146,167,0,-145,-219,-166
-153,-110,42,131,-97,-34,152,186,5,-149,-220,-178
-168,-122,46,145,-107,-38,168,208,28,-165,-233,-173
-191,-145,45,168,-118,-50,181,234,46,-172,-257,-176
-184,-135,49,159,-116,-43,186,258,74,-170,-255,-175
-178,-127,51,153,-114,-38,201,294,109,-176,-256,-181
-169,-120,49,144,-108,-35,227,333,152,-176,-256,-180
-167,-112,55,139,-111,-28,241,368,191,-174,-255,-180
-185,-103,82,143,-133,-10,252,408,239,-165,-253,-180
-177,-92,84,134,-130,-4,279,447,291,-155,-245,-180
-170,-69,101,119,-135,16,290,480,338,-139,-240,-179
-161,-34,126,97,-143,45,283,511,395,-111,-221,-163
-134,-9,125,71,-130,58,276,516,442,-77,-188,-143
-92,30,122,31,-108,76,260,485,456,-33,-152,-111
-52,69,121,-8,-87,94,221,438,444,33,-109,-68
-16,100,116,-42,-66,108,156,345,394,93,-77,-24
23,105,82,-65,-29,93,87,225,284,92,-74,12
31,70,39,-51,-4,54,45,142,170,62,-76,12
17,19,2,-18,7,10,39,93,78,30,-73,-6
10,-10,-20,1,15,-15,41,66,9,-24,-98,-33
15,-12,-27,-1,21,-19,36,60,-26,-43,-116,-44
13,-34,-47,11,30,-40,35,55,-46,-55,-130,-55
4,-52,-56,25,30,-54,35,49,-55,-72,-148,-66
7,-48,-54,21,30,-51,40,44,-59,-67,-148,-66
-2,-58,-55,30,27,-56,40,38,-61,-86,-154,-87
-11,-66,-55,39,22,-60,41,35,-59,-91,-157,-91
-9,-64,-55,37,24,-60,45,35,-63,-91,-161,-89
-14,-65,-51,40,19,-58,45,35,-69,-97,-166,-91
-20,-65,-44,43,12,-54,43,35,-76,-95,-169,-89
-28,-65,-38,47,5,-51,39,35,-82,-102,-174,-92
-32,-63,-31,48,0,-47,40,32,-87,-103,-175,-95
-32,-55,-24,44,-4,-39,40,29,-90,-108,-176,-99
-45,-66,-21,55,-12,-43,40,26,-96,-123,-185,-104
-48,-76,-27,62,-10,-51,40,23,-103,-130,-190,-105
-36,-70,-34,53,-1,-52,35,20,-107,-130,-190,-105
-30,-65,-35,48,3,-50,35,18,-111,-130,-190,-110
-27,-62,-35,45,4,-49,34,14,-115,-130,-190,-110
-15,-54,-39,34,13,-46,30,8,-118,-129,-190,-111
-22,-62,-40,42,9,-51,30,5,-123,-133,-190,-115
-37,-77,-40,57,2,-58,30,0,-125,-135,-190,-114
-31,-71,-40,51,5,-56,30,-5,-129,-135,-190,-118
-29,-69,-40,49,5,-54,30,-1,-129,-139,-190,-120
-24,-65,-40,44,9,-52,30,0,-126,-140,-190,-120
-21,-60,-40,40,10,-50,30,0,-123,-140,-189,-116
-20,-60,-40,40,10,-50,30,5,-121,-134,-182,-109
-24,-60,-36,42,6,-48,30,5,-117,-127,-176,-103
-36,-60,-24,48,-6,-42,30,6,-115,-121,-169,-96
-16,-33,-17,25,1,-24,34,14,-110,-114,-162,-90
4,9,5,-6,0,6,49,23,-79,-110,-164,-83
10,25,15,-17,-3,19,57,20,-65,-111,-166,-78
29,30,1,-29,13,15,47,7,-63,-110,-167,-66
33,-2,-35,-15,34,-18,14,-4,-78,-110,-170,-75
17,-62,-78,23,48,-70,-14,-15,-133,-133,-171,-104
5,-76,-80,35,43,-78,-16,-23,-148,-134,-176,-104
-10,-89,-80,50,35,-84,-13,-29,-152,-138,-185,-109
-17,-98,-80,57,32,-89,-17,-37,-167,-152,-184,-122
-13,-93,-79,53,34,-86,-13,-41,-171,-156,-185,-129
-19,-99,-80,59,31,-89,-17,-51,-172,-157,-186,-126
-37,-106,-69,72,17,-88,-19,-60,-166,-146,-182,-117
-39,-105,-65,72,13,-85,-19,-61,-178,-158,-190,-119
-32,-83,-52,58,10,-67,-23,-59,-158,-137,-169,-102
-37,-89,-51,63,7,-70,-14,-64,-177,-159,-183,-114
-27,-63,-36,45,5,-49,-29,-78,-140,-117,-155,-110
-46,-81,-35,64,-6,-58,-10,-73,-164,-144,-173,-128
-35,-55,-20,45,-7,-37,-42,-78,-132,-105,-146,-104
-53,-65,-13,59,-20,-39,-10,-80,-122,-120,-157,-119
20,24,3,-22,8,13,-137,-135,24,38,-50,-32
280,362,82,-321,99,222,-460,-279,460,768,461,349
649,785,136,-717,257,461,-856,-678,415,1314,942,769
1176,1304,128,-1241,524,716,-1526,-1376,277,2110,1628,1368
995,527,-468,-761,731,30,-1290,-1711,-1195,871,844,864
247,-660,-907,207,577,-783,-585,-1467,-2556,-1417,-833,-382
-85,-547,-462,316,188,-504,-430,-1068,-1674,-1206,-847,-490
-101,-246,-144,174,21,-195,-237,-611,-850,-632,-466,-273
-58,-121,-63,90,3,-91,-44,-191,-338,-348,-289,-206
-100,-104,-4,103,-48,-54,68,-8,-93,-193,-204,-162
-115,-119,-4,117,-55,-62,83,33,-86,-221,-223,-178
-107,-96,12,101,-59,-42,80,57,-5,-158,-188,-158
-117,-110,6,113,-62,-52,97,71,-25,-202,-212,-169
-109,-91,17,100,-63,-37,92,75,21,-165,-189,-156
-119,-100,19,109,-68,-40,109,87,14,-183,-199,-163
-107,-91,17,99,-61,-37,112,105,36,-172,-193,-165
-117,-102,15,109,-66,-43,118,108,42,-174,-195,-167
-135,-121,14,127,-74,-53,122,130,58,-177,-196,-171
-135,-119,16,127,-76,-51,132,147,80,-172,-193,-172
-136,-122,14,128,-75,-54,144,167,91,-178,-197,-176
-141,-125,17,133,-79,-54,158,198,113,-172,-194,-177
-148,-126,22,136,-84,-52,162,218,128,-179,-201,-180
-152,-123,29,137,-91,-47,174,248,156,-181,-200,-182
-170,-116,54,143,-112,-31,198,279,178,-186,-203,-185
-170,-109,61,140,-115,-24,219,309,197,-193,-213,-190
-173,-103,70,137,-121,-16,232,332,222,-202,-215,-194
-191,-95,96,143,-143,0,246,352,239,-211,-227,-188
-203,-90,113,146,-158,11,265,377,263,-210,-231,-180
-206,-74,132,140,-169,28,268,392,294,-202,-225,-175
-201,-49,152,125,-176,51,261,398,313,-200,-226,-167
-189,-21,168,105,-178,73,248,388,343,-184,-201,-162
-140,21,161,59,-151,91,243,356,349,-147,-161,-143
-94,55,149,19,-122,102,206,305,330,-87,-109,-91
-47,92,139,-23,-93,116,126,224,314,0,-43,-40
2,119,117,-61,-58,118,65,131,268,62,8,1
9,107,98,-58,-45,102,22,66,212,69,23,30
11,94,83,-53,-36,88,6,24,156,62,17,28
10,80,70,-45,-31,75,3,3,111,58,16,20
-1,62,62,-31,-32,62,-3,-1,98,51,12,15
-6,51,58,-23,-32,54,-8,-6,94,46,10,7
-3,49,52,-24,-28,51,-14,-12,89,41,10,1
4,51,46,-28,-21,48,-12,-18,85,40,11,0
9,50,41,-29,-16,45,-9,-18,80,40,12,0
7,50,43,-29,-18,47,-6,-13,83,35,10,0
3,49,46,-27,-21,47,-3,-10,87,35,10,0
0,44,45,-22,-23,45,0,-7,91,34,7,0
-4,41,45,-19,-25,42,0,-2,95,30,5,0
-7,38,45,-16,-26,41,0,0,95,31,5,0
-12,33,45,-11,-29,39,0,-5,95,28,11,0
-15,30,45,-8,-30,37,0,-10,95,25,13,0
-18,27,45,-5,-32,36,0,-15,95,25,8,0
-24,21,45,1,-35,33,0,-19,92,21,5,0
-28,16,45,6,-37,30,-4,-24,89,20,2,0
-32,13,45,9,-39,29,-5,-28,86,20,-3,0
-34,7,41,14,-38,23,-5,-30,83,20,-5,0
-34,6,40,14,-37,23,-10,-30,80,21,0,0
-30,10,40,10,-35,25,-10,-30,79,18,0,0
-23,12,35,5,-29,24,-11,-37,74,15,0,-1
-20,15,35,2,-28,25,-16,-45,68,15,0,-5
-22,12,33,5,-28,22,-14,-45,65,15,0,-5
-23,7,30,8,-27,18,-18,-45,60,15,2,-5
-23,4,27,9,-26,16,-20,-47,56,15,6,-5
-24,1,25,11,-25,12,-20,-50,55,18,8,-5
-25,-4,21,14,-23,8,-16,-50,55,21,12,-1
-24,-5,20,14,-22,7,-9,-50,55,20,14,6
-19,4,24,7,-22,14,-6,-50,55,20,16,13
-19,12,31,4,-26,21,2,-50,54,20,19,19
-18,28,46,-5,-32,37,5,-54,69,20,21,26
7,67,60,-37,-27,63,16,-55,121,50,45,35
8,91,83,-50,-38,87,35,-55,141,69,54,31
-5,78,83,-37,-44,80,24,-59,133,56,41,24
13,47,34,-30,-11,40,-18,-59,122,45,34,18
22,4,-18,-13,20,-7,-43,-61,72,13,21,8
7,-33,-40,13,23,-36,-37,-65,47,-8,11,4
0,-40,-41,20,20,-40,-34,-65,40,-17,-3,-5
-9,-49,-39,29,15,-44,-32,-70,35,-21,-11,-4
-22,-62,-41,42,9,-51,-24,-70,25,-31,-23,-7
-25,-65,-40,45,7,-52,-26,-74,18,-36,-22,-9
-38,-77,-39,57,1,-57,-18,-77,20,-37,-18,-10
-33,-68,-36,51,2,-52,-21,-82,15,-40,-24,-11
-31,-62,-31,47,1,-47,-20,-84,30,-20,-10,-1
-33,-65,-32,49,0,-48,-17,-86,8,-44,-24,-12
-24,-47,-23,36,0,-35,-26,-84,45,-3,-2,6
-33,-62,-29,48,-2,-45,-14,-86,2,-44,-24,-10
-19,-36,-17,28,-1,-26,-42,-89,52,9,17,12
-45,-63,-17,55,-14,-40,-11,-112,33,-24,-8,-3
71,93,22,-82,24,57,-195,-179,277,234,160,122
316,394,78,-355,118,236,-502,-350,630,875,606,452
720,852,132,-786,294,491,-979,-794,547,1438,1104,893
1210,1266,55,-1238,577,660,-1551,-1375,391,2178,1732,1439
908,349,-559,-628,734,-105,-1226,-1726,-1465,578,716,774
239,-593,-832,177,536,-712,-697,-1538,-2515,-1360,-709,-278
-33,-450,-417,242,192,-433,-466,-1026,-1335,-927,-583,-286
-56,-224,-168,140,56,-196,-201,-540,-643,-504,-299,-147
-31,-92,-61,62,15,-77,-21,-151,-119,-212,-122,-84
-78,-101,-23,90,-27,-62,98,6,71,-103,-65,-61
-74,-103,-29,89,-23,-66,97,50,101,-122,-75,-69
-80,-95,-14,88,-33,-55,106,84,165,-77,-53,-55
-90,-106,-16,98,-37,-61,125,92,131,-111,-80,-62
-89,-94,-5,92,-42,-49,132,100,178,-72,-61,-51
-117,-121,-4,119,-56,-62,141,118,159,-91,-78,-57
-126,-125,1,125,-63,-61,137,136,191,-78,-72,-55
-125,-125,0,125,-62,-62,146,147,191,-87,-77,-72
-124,-125,0,124,-61,-62,150,169,206,-86,-82,-77
-134,-134,0,134,-67,-66,157,185,223,-88,-86,-78
-143,-143,-1,143,-71,-72,173,210,231,-92,-92,-83
-132,-138,-6,135,-63,-71,186,241,253,-89,-94,-84
-130,-141,-11,136,-60,-76,201,273,270,-90,-105,-91
-151,-169,-19,160,-66,-94,239,303,293,-98,-106,-93
-158,-174,-16,166,-70,-95,246,337,308,-115,-121,-110
-157,-156,1,156,-79,-77,252,373,326,-119,-130,-123
-172,-148,24,160,-98,-62,284,398,331,-132,-138,-128
-203,-157,46,180,-125,-55,308,428,333,-158,-164,-144
-208,-155,54,181,-131,-50,327,447,358,-177,-175,-152
-209,-136,73,172,-140,-32,330,444,367,-177,-182,-161
-217,-129,88,173,-152,-20,344,432,379,-168,-170,-150
-208,-110,97,159,-152,-6,341,420,394,-165,-147,-127
-177,-67,110,121,-143,21,304,408,388,-140,-117,-103
-109,-6,103,57,-107,49,254,357,379,-69,-63,-52
-50,45,94,2,-72,69,169,259,372,22,12,18
-15,71,86,-29,-51,79,92,168,346,107,89,78
2,75,73,-39,-36,74,43,104,306,138,109,102
11,68,57,-40,-23,62,16,57,264,134,103,113
22,65,42,-44,-10,53,13,21,232,135,106,113
22,60,38,-41,-8,49,9,8,214,130,104,105
23,55,32,-39,-5,44,6,11,206,130,106,102
23,51,29,-37,-3,40,1,10,201,129,103,94
23,46,23,-35,-1,35,1,10,196,124,100,91
21,41,20,-31,0,30,7,10,190,121,98,90
14,38,25,-27,-6,31,11,10,185,118,95,90
3,31,28,-17,-13,29,16,10,181,113,92,90
2,35,33,-19,-15,34,20,10,178,110,90,90
11,46,35,-29,-13,40,25,10,175,106,87,90
5,40,35,-23,-15,37,29,10,172,105,85,88
0,35,35,-18,-18,35,30,10,170,105,85,83
-3,32,35,-15,-19,33,30,10,168,100,80,80
-9,26,35,-9,-22,30,30,10,161,100,80,77
-5,25,30,-10,-19,27,30,10,156,99,79,72
-5,25,30,-10,-18,27,28,10,151,94,74,69
-5,25,30,-10,-18,27,25,10,145,89,71,65
-5,25,30,-10,-18,27,23,8,140,84,68,65
-5,25,30,-10,-18,27,20,5,134,80,63,64
-3,25,28,-11,-16,26,16,2,127,75,60,60
-3,20,23,-9,-13,22,15,0,121,72,64,60
-3,17,20,-7,-12,18,11,-4,114,69,65,62
-3,14,17,-6,-10,15,10,-5,108,66,65,65
-3,9,12,-3,-8,10,10,-8,102,64,70,65
-3,6,9,-1,-7,7,6,-14,99,59,69,65
-3,2,5,0,-5,3,4,-17,100,62,71,65
-2,-2,0,2,0,-1,7,-23,96,64,75,65
-5,-8,-3,7,-1,-5,13,-24,95,68,75,70
2,-8,-10,3,6,-9,23,-15,95,70,80,70
12,8,-4,-10,8,2,29,-7,100,73,79,73
32,53,21,-43,6,36,39,2,141,99,88,94
43,82,39,-62,2,60,54,10,181,108,95,118
54,87,33,-71,11,60,48,14,180,92,85,119
71,74,3,-72,34,38,5,1,144,85,79,105
51,7,-43,-28,47,-18,-29,-13,95,68,68,92
59,-25,-84,-17,72,-54,-28,-28,61,44,59,84
47,-44,-92,-1,69,-68,-19,-44,42,29,46,77
26,-63,-89,18,58,-76,-18,-46,39,27,34,70
28,-62,-90,17,60,-76,-8,-44,35,25,34,62
1,-90,-90,44,46,-90,-7,-46,24,16,33,55
0,-89,-89,45,44,-89,-9,-44,28,22,38,56
3,-84,-87,40,45,-85,-9,-47,13,8,30,53
9,-68,-77,30,43,-72,-15,-54,36,32,41,57
7,-72,-78,33,43,-75,-9,-61,13,15,29,59
17,-51,-68,17,43,-59,-24,-60,38,40,47,81
14,-55,-68,21,41,-61,-6,-63,25,28,36,70
24,-37,-61,7,43,-49,-39,-68,27,33,40,83
21,-25,-46,3,33,-35,-12,-68,50,51,51,78
53,24,-29,-38,41,-3,-107,-125,141,130,106,121
259,299,39,-279,110,169,-393,-226,607,743,515,412
601,655,54,-628,273,354,-758,-593,558,1203,914,753
1156,1219,63,-1188,546,641,-1414,-1153,575,2033,1610,1343
1138,752,-386,-945,762,183,-1398,-1636,-689,1367,1240,1149
473,-396,-869,-38,671,-633,-894,-1735,-2523,-944,-348,39
94,-490,-584,198,339,-536,-596,-1234,-1730,-1078,-622,-259
7,-268,-275,130,142,-271,-266,-665,-768,-507,-299,-96
19,-113,-131,47,75,-122,-76,-234,-298,-263,-125,-30
-21,-67,-46,45,13,-56,73,4,69,-42,-29,17
-49,-100,-52,75,2,-76,111,47,52,-93,-72,13
-40,-69,-29,55,-6,-48,110,77,147,-30,-29,27
-52,-89,-36,71,-8,-63,135,86,116,-66,-47,9
-50,-75,-25,63,-13,-49,124,107,158,-39,-26,12
-58,-81,-24,70,-17,-52,139,119,151,-43,-35,1
-68,-86,-19,77,-24,-52,139,134,161,-44,-37,-3
-72,-86,-14,79,-29,-50,147,154,177,-42,-37,-7
-67,-83,-17,75,-25,-50,164,174,187,-49,-45,-17
-92,-103,-11,97,-40,-57,185,195,214,-41,-42,-21
-95,-105,-10,100,-42,-58,189,220,219,-48,-48,-31
-85,-95,-10,90,-38,-53,192,247,240,-43,-43,-37
-109,-115,-6,112,-52,-60,207,278,249,-57,-56,-45
-125,-119,5,122,-65,-57,228,314,279,-61,-61,-50
-127,-112,15,119,-71,-48,250,351,300,-61,-66,-50
-134,-110,25,122,-79,-42,273,393,325,-60,-72,-52
-142,-104,38,122,-89,-32,291,428,356,-76,-80,-65
-148,-98,50,123,-99,-24,315,465,372,-102,-103,-74
-170,-104,65,137,-117,-19,337,495,389,-109,-105,-82
-176,-88,87,132,-131,-1,338,507,416,-106,-97,-81
-163,-50,113,106,-138,31,333,508,441,-96,-92,-71
-167,-31,136,99,-152,53,327,503,443,-89,-87,-67
-156,-13,143,84,-149,65,327,479,433,-67,-71,-41
-96,40,136,28,-116,88,282,426,426,-22,-28,0
-37,92,129,-28,-84,110,192,322,410,49,33,54
2,113,111,-57,-55,111,111,204,360,126,99,116
31,109,78,-70,-24,93,51,125,297,159,134,142
50,99,49,-74,0,73,38,63,244,156,130,137
60,90,31,-75,14,60,34,28,198,149,121,133
56,81,25,-69,15,52,24,19,169,142,113,127
54,74,20,-64,17,47,18,16,157,134,103,121
54,69,14,-62,20,41,11,13,149,127,96,116
56,64,8,-60,23,35,15,8,140,122,91,111
52,58,6,-55,22,32,18,5,131,117,86,110
42,52,10,-47,16,31,21,8,124,114,83,110
34,47,13,-41,10,30,26,10,117,110,77,110
28,45,17,-37,5,30,29,10,111,106,74,110
26,45,20,-35,2,32,33,14,104,104,68,109
21,45,24,-33,-2,34,35,15,98,96,61,101
20,45,25,-33,-3,35,35,13,92,89,54,94
20,45,25,-33,-3,35,35,10,84,82,48,87
15,40,25,-28,-5,32,35,7,78,74,41,79
15,40,25,-28,-5,32,35,5,70,68,36,73
15,39,24,-27,-4,31,30,1,62,61,34,66
15,34,20,-25,-3,26,30,-1,56,60,31,65
15,36,20,-25,-3,28,29,-3,48,60,28,65
15,32,18,-24,-2,24,25,-6,41,60,25,60
15,30,15,-23,0,22,25,-9,34,60,23,60
15,30,15,-23,0,22,23,-12,26,59,20,59
15,27,12,-21,1,19,18,-15,19,54,17,55
17,24,7,-21,4,15,15,-15,13,51,15,55
22,27,5,-25,8,16,11,-15,6,48,11,55
35,35,0,-35,17,17,8,-15,-1,43,10,55
36,33,-3,-34,19,14,4,-15,-8,40,6,55
36,29,-7,-32,21,11,1,-14,-14,36,0,52
36,26,-10,-31,22,7,-2,-28,-20,35,-5,49
31,22,-10,-27,20,6,-4,-36,-25,35,-11,46
30,17,-12,-23,21,3,-8,-34,-25,30,-17,43
32,16,-16,-24,23,0,-10,-35,-26,30,-19,41
40,25,-15,-32,27,5,-7,-35,-30,30,-14,38
41,30,-12,-36,26,9,2,-35,-31,30,-8,53
47,40,-6,-43,26,17,11,-19,-24,28,-7,67
59,58,-1,-58,30,28,18,6,10,40,7,69
79,81,2,-81,39,41,41,28,39,72,31,84
95,104,9,-100,43,56,43,28,34,88,45,81
80,87,7,-83,37,46,21,14,27,78,33,67
53,25,-28,-38,40,-1,10,4,-3,45,4,58
62,-8,-70,-26,66,-39,-4,-7,-53,6,-18,47
71,-15,-86,-27,79,-50,-15,-14,-69,-12,-38,42
47,-38,-86,-4,67,-62,-26,-21,-85,-27,-48,33
32,-56,-89,12,61,-72,-32,-28,-104,-31,-51,28
15,-77,-92,31,54,-84,-28,-33,-115,-46,-69,16
13,-72,-85,30,49,-78,-31,-41,-111,-34,-65,15
9,-73,-82,32,46,-78,-21,-43,-118,-47,-74,7
9,-67,-76,30,42,-71,-29,-46,-116,-44,-68,12
7,-64,-72,29,40,-68,-19,-45,-117,-41,-68,7
2,-68,-70,34,36,-69,-20,-50,-129,-56,-77,0
1,-58,-59,29,30,-58,-22,-51,-103,-26,-55,14
-14,-77,-63,46,25,-70,-8,-47,-133,-86,-78,-18
-9,-47,-39,28,16,-43,-27,-56,-76,7,-24,18
-14,-70,-56,42,21,-63,-1,-41,-99,-35,-66,-2
162,154,-8,-157,84,73,-245,-111,275,423,242,220
474,513,39,-493,217,275,-549,-283,609,1086,727,595
971,1074,103,-1022,434,588,-1108,-850,553,1782,1361,1168
1299,1232,-68,-1266,683,582,-1569,-1585,-14,2066,1693,1510
728,-39,-768,-344,748,-403,-940,-1614,-1907,-208,102,378
74,-740,-814,333,444,-777,-432,-1241,-2320,-1528,-986,-487
-74,-399,-325,237,126,-362,-332,-846,-1247,-829,-599,-290
-27,-180,-153,104,63,-166,-111,-352,-649,-488,-350,-141
-11,-84,-73,48,31,-78,29,-20,-191,-196,-180,-79
-67,-131,-65,99,-1,-98,98,78,-127,-184,-172,-98
-56,-115,-59,86,1,-87,88,99,-80,-161,-158,-85
-59,-114,-54,87,-2,-84,108,113,-55,-151,-157,-83
-61,-117,-56,89,-2,-86,108,125,-63,-164,-168,-83
-57,-104,-47,80,-5,-75,111,138,-38,-137,-159,-80
-67,-121,-54,94,-6,-87,117,146,-50,-156,-171,-93
-64,-117,-53,91,-6,-85,116,159,-27,-141,-160,-89
-64,-121,-57,93,-4,-88,123,178,-25,-157,-170,-100
-88,-146,-59,117,-14,-102,124,195,-4,-152,-176,-97
-103,-164,-61,133,-21,-112,147,210,7,-159,-184,-110
-102,-158,-56,131,-23,-107,155,231,21,-160,-185,-130
-112,-161,-49,136,-31,-105,160,257,36,-160,-185,-130
-118,-160,-42,139,-38,-101,174,285,50,-160,-185,-134
-124,-160,-36,143,-44,-98,189,319,86,-167,-185,-136
-125,-153,-29,139,-48,-91,199,350,126,-169,-185,-133
-126,-144,-17,135,-54,-80,217,388,168,-163,-186,-130
-130,-136,-5,133,-62,-70,238,429,214,-155,-180,-126
-131,-123,7,127,-69,-58,251,465,261,-152,-172,-124
-120,-102,18,110,-68,-42,273,502,316,-137,-164,-121
-115,-83,32,99,-74,-25,273,527,365,-102,-156,-119
-98,-60,38,79,-68,-11,264,549,416,-86,-147,-110
-66,-20,46,43,-55,13,261,557,455,-34,-109,-80
-23,27,50,-2,-37,38,231,524,462,38,-55,-41
36,70,33,-53,1,51,177,443,437,96,1,7
42,73,31,-58,5,52,115,325,356,136,50,47
58,64,7,-61,25,35,61,223,240,112,46,44
79,35,-43,-56,61,-4,39,156,134,65,16,31
63,-15,-79,-24,71,-47,35,115,58,16,-9,21
60,-32,-92,-14,76,-62,30,100,8,-16,-37,10
57,-36,-93,-10,75,-65,27,99,-22,-35,-49,0
45,-55,-99,5,72,-77,21,95,-36,-50,-55,-8
28,-71,-100,22,64,-86,22,92,-41,-64,-64,-17
31,-70,-100,20,66,-85,26,90,-44,-76,-67,-27
33,-71,-104,20,69,-88,25,90,-49,-74,-69,-29
29,-77,-105,25,67,-91,31,90,-50,-77,-76,-33
31,-73,-104,21,68,-88,38,90,-50,-81,-81,-35
22,-75,-98,27,60,-86,40,90,-50,-79,-77,-39
9,-84,-92,38,51,-88,40,90,-50,-80,-75,-50
6,-81,-87,38,47,-84,40,89,-51,-80,-72,-49
7,-74,-81,33,45,-77,40,85,-57,-80,-69,-53
6,-71,-76,33,41,-73,39,81,-64,-80,-74,-55
13,-62,-75,25,44,-68,36,79,-65,-80,-75,-56
14,-62,-75,25,45,-68,33,74,-66,-81,-75,-60
-4,-78,-75,41,36,-76,30,71,-72,-87,-79,-60
-5,-81,-75,44,35,-78,27,67,-80,-94,-80,-65
0,-75,-74,38,38,-75,25,59,-86,-95,-79,-65
2,-75,-76,37,39,-75,23,53,-93,-95,-75,-61
11,-69,-80,29,46,-75,20,45,-99,-95,-75,-60
9,-70,-80,30,44,-75,17,38,-100,-95,-73,-60
3,-78,-80,37,42,-79,14,30,-105,-94,-69,-60
6,-73,-79,33,43,-76,11,26,-103,-88,-71,-60
18,-63,-81,23,50,-72,10,24,-98,-80,-65,-59
16,-57,-73,20,45,-64,15,26,-91,-74,-56,-50
10,-48,-58,19,34,-53,20,24,-88,-67,-47,-42
22,-24,-45,1,34,-34,22,28,-71,-61,-40,-33
43,8,-35,-25,39,-13,38,49,-38,-64,-23,-26
65,34,-31,-49,48,1,60,50,-30,-66,-10,-26
57,40,-18,-48,37,11,44,36,-22,-65,-10,-25
57,0,-57,-28,57,-29,-6,26,-55,-65,-11,-26
49,-57,-106,4,78,-82,-23,15,-117,-78,-22,-42
22,-80,-103,30,63,-91,-18,5,-125,-89,-33,-52
22,-84,-106,31,65,-95,-15,-3,-133,-100,-46,-61
21,-83,-104,32,63,-94,-14,-13,-146,-102,-57,-68
10,-95,-105,43,58,-100,-8,-21,-151,-109,-66,-71
10,-95,-105,43,58,-100,-14,-27,-156,-112,-70,-70
3,-94,-97,46,50,-95,-14,-39,-157,-108,-69,-74
-4,-93,-89,48,43,-91,-15,-51,-159,-115,-66,-78
-10,-85,-75,48,32,-80,-20,-50,-140,-92,-46,-69
-20,-97,-76,59,28,-86,-16,-49,-158,-117,-57,-75
-7,-69,-62,38,28,-66,-28,-52,-124,-76,-25,-51
-14,-84,-70,49,28,-76,-15,-46,-152,-115,-46,-66
9,-44,-53,18,31,-48,-48,-60,-100,-62,-7,-34
-8,-67,-60,38,26,-63,-16,-64,-117,-81,-24,-56
85,51,-34,-68,60,9,-172,-124,76,152,129,55
343,397,54,-370,144,225,-491,-295,481,857,624,422
736,849,112,-793,312,480,-940,-735,417,1409,1123,863
1245,1306,62,-1276,591,684,-1554,-1426,231,2163,1770,1440
972,392,-580,-682,776,-94,-1222,-1700,-1411,665,781,783
229,-695,-924,233,576,-809,-580,-1429,-2570,-1452,-784,-398
-39,-497,-458,268,210,-477,-427,-1020,-1562,-1074,-664,-412
-61,-228,-168,145,54,-198,-214,-549,-804,-571,-329,-212
-63,-138,-75,101,6,-106,-28,-128,-287,-284,-159,-139
-64,-118,-54,91,-5,-86,74,32,-80,-157,-91,-104
-68,-125,-56,97,-6,-90,85,57,-69,-171,-110,-117
-81,-114,-34,98,-23,-74,86,94,-3,-114,-71,-104
-86,-126,-40,106,-23,-82,97,103,-28,-157,-89,-115
-86,-115,-29,101,-29,-72,102,103,17,-119,-72,-108
-93,-125,-32,109,-30,-78,116,115,9,-140,-85,-122
-98,-123,-26,111,-36,-74,116,129,37,-126,-77,-119
-101,-126,-25,114,-38,-75,127,141,38,-135,-81,-120
-102,-125,-22,114,-40,-73,126,157,56,-138,-81,-121
-108,-125,-16,117,-45,-70,136,184,73,-137,-82,-118
-111,-126,-15,119,-47,-70,144,209,83,-146,-87,-122
-111,-121,-10,116,-50,-65,150,224,104,-142,-84,-126
-111,-118,-7,115,-52,-62,169,249,120,-148,-91,-136
-110,-114,-4,113,-53,-59,182,283,143,-149,-90,-148
-120,-112,8,115,-64,-51,199,315,164,-151,-92,-152
-128,-106,22,117,-75,-42,220,349,186,-157,-100,-149
-150,-105,45,127,-97,-30,240,373,207,-167,-107,-154
-174,-112,61,143,-117,-25,256,393,226,-182,-116,-160
-179,-106,72,142,-125,-17,269,406,237,-202,-115,-156
-191,-93,99,142,-145,3,272,404,251,-207,-108,-151
-181,-72,109,126,-145,18,269,399,273,-197,-108,-147
-163,-35,127,99,-145,46,265,397,289,-183,-90,-138
-134,6,140,64,-137,72,238,376,289,-133,-52,-101
-72,53,125,9,-99,89,188,315,276,-62,2,-52
-14,95,109,-41,-62,102,120,227,255,14,78,-3
12,97,84,-55,-36,90,58,142,216,79,127,45
31,85,54,-58,-12,69,14,81,164,92,130,57
49,78,29,-64,9,54,-6,48,117,86,130,55
45,67,22,-57,11,45,-4,35,87,82,129,54
40,61,21,-50,9,41,-7,29,75,77,125,50
39,55,16,-47,11,35,-10,22,70,73,125,50
34,47,13,-41,10,29,-10,14,66,68,123,48
33,42,9,-38,12,25,-8,7,61,66,118,42
27,32,6,-30,10,19,-4,8,56,62,115,38
30,35,5,-33,13,19,-2,11,55,60,112,33
42,46,5,-45,18,26,1,14,55,57,107,29
34,41,7,-38,13,24,4,16,55,55,105,25
28,39,12,-33,8,25,6,20,55,52,105,25
19,34,15,-27,1,24,9,19,55,49,105,37
14,32,18,-23,-2,25,10,14,54,51,105,39
3,26,23,-15,-10,25,11,16,51,50,105,31
-4,20,25,-9,-15,22,15,12,48,50,105,29
18,38,20,-28,-1,29,15,10,45,49,103,23
19,39,20,-29,-1,29,13,10,42,45,99,20
13,33,20,-23,-4,26,8,7,40,46,97,25
12,31,20,-22,-4,26,5,4,38,42,94,25
5,26,20,-16,-8,23,2,1,33,40,91,25
6,24,18,-15,-6,20,-3,-2,30,40,89,25
6,20,14,-14,-4,17,-6,-5,27,36,86,24
3,19,15,-12,-6,17,-9,-6,22,34,85,28
13,28,15,-21,-1,21,-10,-11,19,35,85,30
20,35,15,-28,2,25,-10,-17,15,34,85,30
13,27,14,-21,-1,21,-10,-20,15,36,86,30
10,21,10,-16,0,15,-10,-25,14,33,82,30
4,15,10,-9,-3,12,-8,-30,10,30,80,31
-2,7,9,-3,-6,8,-4,-26,9,30,80,34
2,7,5,-5,-2,6,-2,-19,13,30,80,36
14,18,4,-16,4,11,1,-15,20,31,80,34
19,27,9,-23,5,18,5,-9,29,28,80,36
23,38,15,-31,3,27,4,-3,31,40,89,34
31,68,37,-49,-3,52,24,1,62,74,113,39
59,107,48,-84,5,77,42,14,103,91,133,62
83,117,33,-100,24,75,38,17,98,81,129,62
63,81,18,-72,22,49,10,9,77,70,122,55
43,23,-20,-32,31,2,-23,3,34,44,100,37
36,-21,-56,-7,46,-38,-26,-4,5,20,74,13
31,-30,-60,0,46,-45,-24,-10,-5,10,65,6
24,-36,-60,6,42,-47,-27,-17,-16,5,62,2
5,-56,-61,26,33,-58,-24,-19,-23,-1,56,-4
0,-58,-58,29,29,-58,-25,-26,-39,-13,48,-11
8,-58,-65,25,37,-61,-21,-33,-39,-9,49,-12
-13,-68,-56,41,22,-62,-17,-37,-51,-18,44,-14
-22,-49,-27,36,3,-38,-19,-44,-24,8,61,-4
-13,-46,-33,30,10,-39,-6,-51,-46,-12,49,-11
2,-25,-28,12,15,-26,-18,-50,-15,20,69,4
-2,-33,-31,17,15,-32,-1,-49,-33,4,53,-6
17,-13,-31,-2,24,-22,-36,-52,-14,20,63,5
8,-18,-25,5,17,-21,-16,-56,15,29,72,-3
42,31,-11,-36,26,10,-105,-116,97,110,131,49
263,318,55,-291,104,186,-403,-236,540,749,559,359
616,704,88,-660,264,396,-786,-591,500,1248,988,727
1147,1246,99,-1197,524,672,-1453,-1179,488,2107,1704,1344
1095,722,-373,-908,734,174,-1399,-1650,-869,1294,1238,1084
419,-441,-860,11,640,-650,-798,-1618,-2585,-1052,-403,-86
24,-523,-547,250,286,-535,-526,-1139,-1743,-1109,-628,-359
-44,-256,-212,151,84,-234,-250,-640,-827,-525,-284,-172
9,-95,-105,43,58,-100,-52,-198,-331,-261,-108,-96
-29,-70,-41,50,6,-55,79,34,18,-55,3,-62
-58,-105,-47,82,-6,-76,118,72,9,-102,-25,-78
-50,-75,-25,62,-12,-50,110,104,95,-40,10,-63
-69,-93,-24,81,-22,-58,130,115,74,-77,-15,-75
-56,-75,-18,66,-19,-47,126,139,118,-47,1,-67
-63,-83,-20,73,-21,-52,140,156,103,-54,-7,-72
-64,-84,-21,74,-21,-52,146,162,121,-53,-7,-74
-72,-91,-19,81,-26,-55,153,174,125,-53,-9,-77
-70,-91,-21,80,-24,-56,164,191,137,-59,-19,-85
-70,-89,-19,80,-26,-54,176,215,169,-51,-18,-89
-92,-112,-21,102,-35,-66,188,235,164,-63,-28,-94
-96,-116,-19,106,-38,-67,198,261,184,-61,-27,-97
-90,-111,-21,101,-34,-66,205,290,194,-71,-39,-109
-91,-110,-19,101,-36,-64,226,327,218,-79,-55,-110
-114,-122,-8,118,-53,-65,244,364,246,-85,-59,-119
-131,-133,-1,132,-65,-67,262,398,259,-87,-63,-134
-137,-127,9,132,-73,-59,289,427,272,-99,-76,-139
-143,-126,17,134,-79,-54,308,455,280,-123,-86,-151
-149,-121,28,135,-88,-47,330,480,297,-136,-97,-150
-174,-121,53,148,-114,-34,341,478,313,-136,-102,-145
-182,-113,70,147,-126,-21,337,473,326,-129,-88,-142
-169,-82,87,125,-127,2,322,469,350,-122,-75,-140
-144,-44,100,94,-122,28,313,465,357,-99,-52,-117
-115,-8,107,61,-111,49,287,431,353,-55,-1,-76
-60,42,102,9,-81,71,207,338,358,33,65,-25
4,92,88,-48,-43,89,128,238,334,132,143,44
29,94,66,-62,-19,80,73,154,280,170,174,80
42,86,44,-64,-1,65,46,98,232,168,168,80
47,85,38,-66,4,61,42,65,191,163,171,77
47,78,31,-63,8,54,33,53,159,158,169,74
52,75,23,-64,14,49,26,48,147,154,170,71
54,69,15,-62,19,42,18,40,141,149,169,69
51,62,12,-57,19,37,17,32,134,145,166,66
41,56,15,-49,13,35,21,27,128,145,163,63
31,49,17,-40,7,33,19,29,121,144,160,61
23,43,20,-33,1,31,20,32,116,140,157,57
17,40,23,-29,-3,32,24,35,114,140,155,55
26,52,26,-39,0,39,28,35,111,138,153,53
37,58,21,-47,8,39,33,35,108,131,148,46
31,51,20,-41,5,35,35,35,105,127,145,41
24,43,20,-33,2,31,35,34,104,121,142,36
16,37,21,-26,-3,28,35,35,99,115,137,30
-5,29,34,-13,-20,31,35,34,93,110,134,26
-15,18,33,-2,-25,26,35,31,90,106,131,25
6,33,27,-20,-10,30,30,28,85,103,128,25
18,42,24,-30,-3,33,30,25,81,100,125,25
13,32,18,-23,-3,25,29,22,76,97,122,25
16,30,15,-24,0,22,24,20,70,95,120,25
15,25,10,-20,2,17,26,18,65,93,118,23
9,19,10,-14,-1,15,22,12,60,88,113,19
20,29,9,-24,5,19,20,7,53,85,110,17
37,41,5,-40,16,22,16,4,50,82,107,14
34,39,6,-37,14,22,14,-1,50,77,102,11
39,42,2,-41,18,22,11,-5,50,75,99,9
54,47,-7,-50,30,19,10,2,51,80,106,18
42,42,0,-42,20,21,21,11,48,81,113,27
31,59,28,-45,2,43,34,19,69,106,130,39
53,100,47,-77,3,73,55,30,112,130,156,63
71,123,52,-97,9,87,50,26,140,121,150,66
69,100,31,-85,19,66,29,16,122,116,140,53
65,45,-20,-55,42,13,26,8,58,109,124,40
55,-3,-58,-25,57,-31,17,-2,14,94,97,13
40,-26,-66,-6,53,-46,11,-8,-3,80,87,-1
41,-24,-65,-8,54,-45,4,-14,-19,60,78,-7
34,-30,-64,-1,50,-47,-1,-18,-26,56,74,-10
11,-55,-66,22,39,-60,2,-23,-46,36,62,-19
22,-42,-64,11,43,-53,-3,-28,-39,34,60,-21
10,-52,-62,21,37,-57,4,-31,-41,28,56,-25
-1,-60,-59,30,29,-59,-4,-38,-42,28,61,-17
23,-32,-55,5,40,-44,4,-42,-34,43,72,-12
40,-15,-56,-12,48,-35,-7,-47,-52,34,70,-12
41,-6,-46,-18,44,-26,-10,-44,-21,66,90,3
39,-16,-55,-11,47,-35,-12,-54,-59,25,68,-9
47,13,-33,-30,40,-10,-30,-48,5,87,106,20
20,-13,-32,-3,26,-22,-15,-81,-26,49,77,5
151,172,21,-161,64,96,-253,-149,323,434,335,194
400,470,71,-435,164,270,-532,-347,566,988,739,502
890,990,101,-940,394,545,-1087,-862,492,1600,1287,988
1275,1208,-67,-1242,671,570,-1531,-1431,135,2067,1712,1384
811,133,-678,-472,745,-273,-1131,-1767,-1937,108,430,518
223,-526,-749,152,486,-637,-736,-1528,-2451,-1282,-627,-293
25,-315,-340,145,182,-327,-431,-917,-1179,-692,-377,-211
-4,-162,-158,83,77,-160,-145,-411,-616,-376,-180,-121
-17,-53,-36,35,10,-44,12,-59,-105,-80,-17,-56
-47,-62,-15,55,-16,-38,110,66,-12,-46,-1,-57
-52,-55,-3,54,-24,-29,100,90,31,-29,13,-56
-82,-77,5,80,-43,-36,120,112,68,-14,24,-52
-81,-76,4,78,-42,-36,116,131,53,-39,18,-59
-89,-72,17,80,-53,-27,142,150,101,-12,25,-51
-94,-79,16,86,-54,-31,158,151,78,-36,4,-60
-98,-72,26,85,-62,-23,155,167,113,-19,9,-62
-98,-74,24,85,-60,-25,162,186,113,-36,-7,-71
-90,-65,26,77,-58,-19,164,205,129,-28,-9,-73
-116,-86,30,101,-72,-28,179,235,146,-30,-18,-77
-116,-86,30,101,-73,-28,187,260,160,-32,-22,-83
-126,-95,30,111,-78,-32,206,286,177,-27,-25,-83
-136,-107,30,122,-83,-38,219,322,196,-36,-31,-90
-126,-97,28,111,-77,-34,236,359,220,-50,-38,-106
-142,-96,47,119,-94,-24,263,401,247,-59,-44,-104
-156,-90,66,123,-111,-12,281,437,271,-61,-52,-114
-166,-86,80,126,-123,-2,302,475,289,-66,-70,-126
-181,-81,100,131,-140,9,337,507,311,-88,-74,-129
-197,-78,118,137,-157,20,351,531,329,-99,-68,-131
-205,-70,134,137,-169,32,342,547,355,-91,-66,-121
-199,-38,161,118,-180,61,338,546,374,-93,-58,-117
-181,12,193,84,-187,102,332,530,367,-82,-59,-107
-146,45,191,50,-169,117,307,480,359,-48,-32,-78
-101,83,184,9,-143,133,231,392,343,12,30,-27
-37,129,165,-46,-101,147,139,279,306,103,100,25
13,140,128,-77,-58,134,80,179,257,160,149,67
34,147,112,-91,-39,129,37,109,210,159,147,82
37,139,102,-88,-33,120,21,63,169,155,138,80
37,126,89,-82,-27,108,18,44,137,152,133,79
38,119,81,-79,-22,100,12,42,119,147,125,75
36,110,75,-73,-20,92,6,38,111,145,120,75
37,107,70,-72,-17,88,1,35,104,139,115,73
36,100,64,-68,-14,82,3,30,98,134,110,67
37,95,58,-66,-11,76,6,32,91,129,105,63
34,90,56,-62,-11,73,9,35,85,123,101,58
25,85,60,-55,-18,72,12,35,79,117,96,54
21,82,60,-52,-20,71,15,35,73,113,93,49
19,78,59,-49,-20,69,14,35,69,107,88,46
14,75,61,-44,-24,67,24,35,62,103,82,41
12,71,59,-41,-23,65,39,30,57,99,79,39
4,67,64,-36,-30,65,36,30,52,94,74,35
-6,65,71,-29,-39,67,35,29,46,89,70,30
-7,62,68,-28,-38,65,35,25,41,86,65,30
-6,59,65,-27,-36,62,30,25,36,83,57,30
-7,55,63,-24,-35,59,30,23,30,81,51,30
-5,55,60,-25,-33,57,29,19,25,77,44,30
2,60,58,-31,-28,59,25,17,20,75,38,30
6,60,54,-33,-24,57,23,14,15,72,32,30
8,60,52,-34,-22,56,20,11,10,69,30,25
11,60,49,-36,-19,54,16,9,6,70,30,25
14,60,46,-37,-16,52,15,6,1,66,26,25
16,60,44,-38,-14,52,11,5,-2,65,25,25
19,60,40,-40,-11,50,10,5,-7,65,25,26
20,60,40,-40,-10,50,10,5,-13,60,21,22
20,60,40,-40,-10,50,6,5,-16,56,18,20
20,60,40,-40,-10,50,5,8,-22,54,16,20
21,60,40,-40,-10,50,6,10,-25,50,12,20
24,64,40,-44,-8,52,10,10,-20,45,10,20
25,65,40,-45,-8,52,10,14,-15,47,7,20
25,64,40,-44,-8,51,12,15,-11,51,5,20
25,66,41,-46,-8,53,16,16,-6,50,5,19
24,62,38,-43,-7,50,14,20,-2,50,5,23
25,88,64,-57,-20,76,21,32,4,66,14,32
50,125,75,-88,-13,100,44,39,18,79,31,43
63,131,68,-97,-3,99,63,30,32,69,35,43
55,110,56,-83,0,82,22,22,15,62,21,32
55,58,3,-56,26,30,-29,15,-36,43,4,19
46,29,-18,-37,32,5,-31,7,-75,18,-12,5
34,20,-13,-27,23,3,-29,0,-86,5,-24,-8
23,7,-17,-14,20,-5,-28,-8,-102,-7,-43,-21
12,-1,-13,-5,13,-7,-24,-15,-111,-11,-53,-32
9,-8,-17,0,14,-12,-25,-23,-123,-31,-60,-38
9,-1,-10,-3,10,-6,-31,-30,-119,-40,-64,-31
-7,-13,-6,10,0,-9,-27,-29,-132,-59,-77,-40
-12,-6,6,8,-9,1,-35,-32,-118,-34,-63,-30
-22,-14,8,18,-15,-3,-24,-27,-130,-50,-75,-39
-16,-2,14,9,-15,6,-36,-33,-124,-33,-68,-33
-23,-6,17,14,-20,6,-25,-27,-118,-31,-66,-34
-22,-5,17,13,-20,6,-34,-32,-136,-41,-74,-41
-21,9,30,6,-26,19,-29,-29,-77,14,-47,-23
-21,2,22,9,-21,12,-40,-25,-52,-8,-61,-35
216,294,78,-255,68,186,-325,-115,426,634,373,286
566,667,101,-617,233,384,-660,-367,609,1225,852,688
1099,1276,177,-1187,461,726,-1321,-1069,512,2008,1543,1299
1230,1051,-179,-1140,704,436,-1489,-1670,-444,1635,1392,1285
493,-330,-824,-81,659,-577,-739,-1543,-2270,-867,-407,-25
-37,-647,-610,342,287,-629,-400,-1149,-2045,-1397,-963,-538
-97,-279,-181,188,42,-230,-282,-715,-1052,-694,-512,-266
-87,-144,-57,116,-15,-100,-73,-238,-517,-405,-306,-160
-90,-78,12,84,-50,-33,58,42,-138,-146,-173,-113
-104,-96,8,100,-55,-44,101,92,-158,-192,-222,-139
-97,-77,19,86,-57,-29,85,123,-79,-134,-186,-117
-103,-89,14,96,-58,-38,105,149,-87,-165,-200,-124
-105,-84,21,94,-62,-31,102,150,-66,-155,-190,-120
-104,-83,20,94,-62,-31,114,161,-57,-158,-185,-123
-114,-95,19,104,-66,-38,115,165,-56,-165,-190,-129
-126,-105,22,116,-74,-41,118,184,-37,-154,-179,-126
-124,-106,18,115,-70,-43,126,201,-38,-165,-200,-141
-131,-106,25,118,-77,-40,125,212,-18,-157,-209,-150
-142,-111,30,127,-86,-41,146,232,-14,-181,-211,-150
-139,-109,30,124,-84,-40,155,258,6,-176,-209,-152
-139,-107,32,123,-85,-37,160,282,14,-171,-211,-156
-137,-101,36,119,-87,-32,183,316,46,-167,-209,-155
-130,-97,33,113,-81,-32,182,342,79,-160,-216,-160
-141,-93,48,117,-94,-22,199,380,116,-156,-219,-161
-143,-87,56,115,-99,-16,222,426,168,-148,-210,-160
-144,-83,61,113,-102,-11,233,458,208,-140,-204,-160
-166,-76,90,120,-128,7,260,501,265,-135,-197,-160
-160,-62,98,110,-129,18,260,541,324,-122,-192,-161
-135,-44,91,89,-112,23,250,573,372,-92,-176,-149
-104,0,104,51,-104,52,242,586,432,-48,-136,-120
-72,45,117,13,-95,81,233,581,464,-4,-105,-80
-28,76,104,-24,-66,89,220,545,460,56,-66,-36
17,110,93,-64,-38,101,161,446,420,120,-21,17
45,126,81,-86,-19,103,103,331,320,129,-8,40
56,120,64,-88,-4,92,61,236,194,100,-5,26
48,86,38,-68,5,62,29,164,86,55,-15,14
38,45,7,-42,16,26,25,125,13,9,-45,-8
28,24,-5,-26,16,9,25,106,-29,-26,-65,-24
25,8,-17,-16,21,-4,25,104,-57,-49,-80,-30
22,-6,-28,-8,25,-16,25,105,-75,-56,-88,-40
23,-12,-35,-5,29,-23,25,104,-83,-72,-96,-47
16,-19,-36,2,26,-27,28,105,-85,-82,-106,-54
5,-27,-32,11,18,-29,32,105,-84,-83,-109,-59
18,-34,-53,8,36,-43,37,105,-98,-97,-118,-71
18,-41,-59,11,39,-49,40,105,-107,-101,-121,-77
12,-38,-50,14,30,-44,40,105,-104,-98,-119,-74
2,-45,-47,22,25,-46,39,105,-106,-114,-121,-76
-17,-56,-39,37,11,-47,41,105,-104,-126,-119,-74
-18,-55,-36,37,9,-45,39,101,-106,-125,-122,-77
-16,-55,-39,35,12,-47,45,94,-109,-125,-141,-89
-15,-55,-40,35,13,-47,56,90,-113,-126,-146,-91
-15,-55,-40,35,13,-47,53,84,-119,-123,-144,-89
-17,-58,-41,38,12,-49,50,79,-128,-130,-145,-86
-34,-73,-39,54,3,-56,47,74,-143,-145,-145,-84
-39,-82,-43,60,2,-62,45,69,-146,-145,-144,-87
-34,-79,-45,57,5,-62,43,65,-149,-145,-140,-90
-35,-80,-45,58,5,-62,36,63,-152,-145,-140,-90
-30,-80,-50,55,10,-65,31,58,-155,-145,-140,-93
-31,-79,-49,55,9,-64,26,55,-160,-145,-140,-95
-17,-76,-59,47,21,-67,20,58,-155,-145,-140,-96
-12,-75,-63,44,26,-69,15,61,-145,-153,-137,-90
-17,-70,-52,44,18,-61,23,60,-135,-154,-134,-82
14,-29,-43,8,29,-36,31,61,-125,-147,-131,-74
17,-4,-22,-6,20,-13,53,75,-114,-145,-129,-60
-1,4,5,-2,-3,4,69,78,-106,-139,-125,-48
27,25,-2,-26,14,11,42,69,-91,-135,-127,-33
25,-27,-52,2,38,-39,-4,63,-118,-139,-129,-45
17,-78,-94,31,56,-86,-27,54,-173,-143,-131,-66
9,-92,-101,41,55,-96,-20,48,-186,-155,-128,-81
-15,-115,-100,65,43,-107,-14,40,-196,-174,-133,-98
-9,-112,-103,60,48,-107,-11,29,-203,-164,-139,-93
-20,-125,-106,73,43,-115,-1,23,-210,-166,-140,-96
-17,-122,-105,70,44,-113,-3,12,-211,-166,-136,-95
-16,-115,-99,66,42,-106,-5,4,-207,-160,-131,-94
-20,-114,-94,67,37,-104,-9,-3,-217,-174,-135,-94
-16,-99,-83,58,34,-91,-15,-8,-199,-151,-121,-79
-25,-109,-83,67,29,-96,-12,-12,-224,-183,-134,-88
-16,-83,-68,50,26,-75,-28,-20,-189,-143,-104,-64
-29,-102,-73,66,22,-87,-12,-22,-214,-188,-126,-80
-16,-69,-53,42,19,-60,-41,-29,-173,-148,-92,-51
-37,-86,-50,62,7,-68,-3,-20,-183,-153,-110,-69
66,37,-29,-51,47,4,-145,-80,5,67,34,34
317,377,61,-347,128,218,-468,-236,430,782,539,410
709,818,109,-764,300,463,-902,-653,383,1340,1035,843
1229,1305,77,-1267,575,691,-1532,-1365,199,2104,1695,1428
965,429,-536,-697,751,-53,-1231,-1661,-1405,665,759,819
236,-677,-912,220,575,-794,-579,-1385,-2613,-1501,-842,-383
-62,-516,-454,289,196,-485,-422,-993,-1654,-1169,-765,-429
-62,-221,-159,142,49,-190,-209,-529,-881,-637,-408,-219
-30,-94,-64,63,17,-79,-27,-112,-360,-343,-226,-144
-88,-111,-23,100,-32,-67,85,55,-143,-223,-159,-117
-97,-122,-25,110,-36,-73,94,90,-136,-242,-175,-133
-98,-108,-10,103,-43,-59,94,111,-74,-183,-142,-118
-111,-128,-18,120,-46,-73,108,119,-102,-226,-165,-131
-109,-114,-4,111,-52,-59,101,138,-58,-187,-141,-120
-115,-122,-8,119,-53,-65,119,147,-65,-206,-150,-129
-112,-112,0,112,-56,-56,118,151,-39,-190,-150,-129
-115,-115,0,115,-57,-57,121,163,-30,-201,-162,-130
-110,-110,0,110,-55,-55,125,177,-16,-201,-160,-130
-113,-107,6,110,-59,-51,139,192,1,-198,-159,-130
-126,-123,4,124,-65,-59,146,214,14,-202,-161,-130
-137,-130,7,133,-72,-61,155,244,34,-198,-159,-130
-135,-124,11,129,-73,-56,164,271,52,-204,-164,-129
-139,-120,19,129,-79,-50,183,296,72,-209,-167,-135
-137,-116,22,126,-79,-47,210,322,94,-216,-173,-150
-146,-111,35,128,-90,-38,220,354,113,-214,-174,-154
-162,-105,57,133,-109,-24,236,387,138,-234,-189,-153
-179,-114,66,146,-122,-24,256,408,160,-252,-198,-148
-186,-105,81,145,-133,-12,271,421,165,-251,-188,-145
-169,-75,94,121,-131,9,274,433,183,-247,-181,-142
-167,-52,115,109,-141,31,266,435,206,-247,-173,-137
-156,-21,134,88,-145,56,263,428,221,-235,-166,-134
-125,1,126,61,-125,63,240,402,217,-193,-136,-109
-65,53,117,6,-91,85,183,337,208,-127,-76,-56
-9,100,108,-46,-59,104,120,248,187,-45,-10,11
15,94,79,-55,-32,86,59,162,138,-12,40,57
35,88,53,-61,-9,70,23,95,84,-13,51,65
38,80,42,-59,-3,61,12,61,30,-7,42,57
41,72,31,-57,5,51,0,51,-2,-5,36,51
47,66,19,-57,14,42,-9,48,-17,0,29,45
44,59,15,-52,14,36,-10,46,-27,-2,23,36
39,54,15,-47,12,35,-10,42,-25,-7,17,41
36,49,13,-43,11,30,-10,40,-25,-10,15,46
33,43,9,-38,12,26,-10,40,-25,-13,15,45
27,38,10,-33,8,24,-10,40,-25,-18,15,43
19,32,13,-26,2,22,-6,40,-25,-20,15,39
15,30,15,-23,0,22,0,41,-28,-20,14,40
15,30,15,-23,0,22,5,42,-31,-20,11,40
15,30,15,-23,0,22,10,38,-30,-20,8,40
14,30,15,-23,0,22,17,35,-30,-20,6,40
17,31,14,-24,2,22,19,32,-30,-19,2,40
25,34,10,-30,7,22,15,27,-31,-23,0,40
25,35,10,-30,7,22,15,24,-36,-25,0,41
27,35,8,-31,9,21,12,20,-39,-25,0,45
31,35,4,-33,13,20,10,20,-44,-25,0,45
30,35,6,-33,11,20,10,19,-51,-25,0,48
32,33,1,-32,15,17,7,15,-58,-30,0,50
28,28,0,-28,14,14,4,15,-64,-30,1,50
22,22,0,-22,11,10,1,13,-67,-31,4,46
24,19,-4,-21,14,7,-2,7,-72,-29,5,45
19,13,-6,-15,12,3,-5,3,-74,-35,5,44
14,11,-3,-12,9,3,-5,-1,-78,-45,5,41
24,24,0,-24,12,12,-5,-6,-80,-45,5,39
22,22,0,-22,11,11,-5,-10,-76,-44,3,42
