I,II,III,aVR,aVL,aVF,V1,V2,V3,V4,V5,V6
-75,-104,-29,90,-23,-66,20,20,-64,-35,-105,-80
-64,-99,-35,81,-14,-67,20,24,-53,-27,-100,-77
-36,-92,-57,65,11,-74,20,30,-27,-13,-87,-71
-27,-86,-59,56,16,-72,20,47,-8,2,-73,-66
-14,-79,-65,47,26,-72,20,62,14,23,-56,-59
-11,-74,-63,43,26,-68,20,82,52,42,-37,-56
-11,-68,-56,40,23,-62,13,128,94,77,-13,-43
8,-63,-71,27,40,-67,5,167,139,110,10,-20
36,-54,-90,9,63,-72,-1,214,189,155,40,6
74,-32,-106,-21,90,-69,-10,278,245,212,82,40
107,-14,-120,-46,114,-67,-15,347,318,273,137,73
140,0,-140,-70,140,-70,-24,436,406,358,200,118
184,17,-167,-100,175,-75,-40,519,497,440,263,165
221,44,-177,-132,199,-66,-42,596,579,513,329,206
272,87,-186,-179,229,-49,-38,671,660,592,400,257
295,103,-192,-199,243,-44,-36,703,715,648,448,292
280,118,-162,-198,220,-22,-31,688,715,657,447,303
250,126,-124,-188,187,1,-29,620,647,596,403,279
189,99,-90,-144,140,4,-13,482,508,465,324,229
120,70,-50,-94,85,10,12,339,349,313,214,162
57,48,-9,-52,33,19,39,221,205,177,107,85
17,32,15,-25,1,23,87,134,102,79,36,38
-4,14,18,-5,-11,16,113,79,45,21,-13,11
-30,-7,22,18,-26,7,107,37,-1,-21,-44,-13
-68,-39,28,53,-47,-5,106,13,-36,-60,-67,-38
-86,-57,29,72,-57,-14,86,3,-51,-76,-83,-52
-79,-54,25,66,-52,-14,57,-1,-50,-79,-77,-48
-78,-56,22,67,-50,-16,37,-6,-50,-86,-76,-46
-75,-55,20,65,-47,-17,25,-10,-50,-91,-72,-43
-72,-55,16,63,-43,-19,25,-15,-50,-96,-70,-39
-68,-53,15,60,-41,-19,26,-12,-48,-95,-68,-42
-60,-48,11,54,-35,-18,23,-4,-42,-99,-64,-47
-55,-45,10,50,-32,-17,32,2,-38,-101,-65,-52
-51,-42,10,46,-31,-16,45,9,-34,-100,-61,-55
-43,-37,5,40,-24,-16,57,16,-29,-100,-59,-60
-39,-35,5,36,-21,-15,70,20,-25,-100,-61,-60
-42,-36,6,38,-24,-15,80,20,-25,-100,-64,-60
-46,-34,12,40,-29,-11,88,20,-25,-100,-67,-60
-60,-41,20,50,-40,-11,84,20,-25,-100,-69,-60
-72,-46,25,59,-48,-10,81,20,-26,-100,-73,-60
-75,-41,33,58,-54,-4,78,21,-24,-100,-75,-60
-69,-38,30,53,-49,-4,74,15,-33,-100,-78,-67
-58,-35,22,46,-39,-6,66,5,-52,-112,-80,-70
-44,-29,16,36,-30,-6,52,-3,-58,-123,-80,-70
-47,-39,8,43,-28,-15,46,-12,-62,-133,-84,-70
-56,-56,0,56,-28,-28,41,-23,-70,-144,-85,-70
-51,-54,-4,53,-23,-29,36,-39,-76,-139,-85,-70
-56,-55,0,55,-27,-27,30,-46,-83,-153,-85,-65
-58,-55,3,56,-30,-26,25,-51,-93,-167,-85,-65
-63,-56,7,59,-35,-24,31,-56,-100,-164,-85,-63
-75,-66,9,70,-41,-28,33,-59,-100,-166,-85,-60
-81,-64,17,73,-48,-23,29,-64,-101,-165,-85,-59
-89,-61,28,74,-58,-16,27,-65,-105,-165,-87,-64
-82,-58,24,70,-53,-17,24,-68,-105,-169,-98,-77
-74,-55,18,64,-46,-18,21,-70,-107,-169,-106,-80
-68,-53,14,60,-41,-19,19,-70,-114,-173,-109,-83
-61,-50,11,55,-36,-20,16,-70,-121,-175,-114,-86
-54,-50,4,51,-29,-22,15,-70,-127,-176,-113,-89
-64,-51,13,57,-38,-19,15,-70,-133,-180,-109,-90
-77,-49,28,63,-52,-11,15,-70,-135,-182,-110,-85
-76,-51,25,63,-51,-12,15,-71,-135,-186,-110,-85
-69,-46,22,57,-45,-11,13,-66,-135,-181,-110,-84
-64,-44,20,54,-41,-12,7,-66,-135,-180,-109,-80
-81,-64,17,72,-48,-23,2,-64,-135,-179,-105,-80
-86,-72,14,78,-50,-28,-1,-68,-130,-183,-105,-80
-81,-69,12,75,-47,-28,-6,-84,-130,-200,-105,-80
-75,-67,8,71,-41,-29,-10,-86,-129,-197,-105,-80
-81,-64,16,72,-48,-23,-4,-84,-124,-191,-105,-80
-97,-65,31,81,-64,-17,3,-81,-126,-188,-107,-80
-86,-60,26,72,-56,-16,9,-80,-122,-182,-111,-80
-79,-55,24,66,-51,-16,16,-79,-119,-178,-110,-85
-70,-50,20,60,-45,-15,22,-74,-120,-176,-110,-85
-61,-47,15,53,-38,-16,28,-71,-116,-172,-109,-85
-59,-41,18,49,-38,-11,30,-68,-115,-171,-105,-85
-69,-42,26,55,-47,-7,30,-63,-115,-166,-100,-86
-89,-50,39,69,-64,-5,34,-59,-106,-166,-96,-83
-72,-28,44,50,-59,8,36,-63,-93,-173,-92,-75
-50,16,66,17,-58,41,35,-65,-84,-152,-85,-67
-10,49,59,-20,-35,54,24,-65,-85,-142,-88,-62
7,65,58,-36,-26,61,2,-64,-85,-148,-90,-59
-24,70,94,-23,-60,82,-17,-66,-85,-149,-90,-61
-20,66,86,-23,-54,76,-34,-66,-86,-153,-90,-60
-14,58,73,-22,-44,65,-35,-70,-83,-154,-90,-60
-15,54,68,-20,-42,61,-34,-77,-101,-160,-91,-60
-36,20,56,8,-46,38,-37,-88,-127,-174,-100,-59
-69,-14,55,41,-62,21,-13,-113,-151,-217,-131,-87
-66,-25,41,46,-54,8,4,-106,-147,-211,-134,-98
-81,-42,40,61,-60,-1,8,-114,-160,-218,-153,-101
-75,-45,30,60,-52,-7,0,-105,-152,-221,-148,-102
-87,-59,28,73,-58,-15,5,-114,-162,-225,-153,-105
-93,-58,35,75,-64,-11,-7,-106,-162,-230,-158,-106
-100,-80,19,90,-59,-30,46,-49,-120,-221,-162,-132
-160,-147,14,154,-87,-66,276,324,31,-256,-319,-291
13,-32,-46,10,30,-39,314,795,563,192,-41,-128
419,507,89,-463,165,298,-200,-84,646,932,890,653
911,1072,161,-992,375,616,-865,-1372,331,1582,1932,1567
653,856,203,-755,225,529,-829,-1747,-295,962,1555,1397
-108,269,377,-81,-243,323,-346,-1500,-989,-464,111,330
-123,33,156,45,-140,94,-94,-651,-525,-397,-165,-19
-31,-17,15,24,-23,-1,11,-153,-115,-128,-63,-4
-84,-49,35,67,-60,-7,39,-102,-146,-216,-142,-88
-68,-69,-1,68,-33,-35,39,-41,-83,-142,-97,-85
-83,-71,12,77,-48,-29,37,-42,-117,-189,-136,-110
-62,-68,-6,65,-28,-37,31,-9,-89,-149,-105,-94
-49,-64,-16,57,-16,-40,30,-14,-99,-166,-119,-103
-11,-58,-47,35,18,-52,24,-3,-90,-149,-109,-100
-9,-54,-45,32,18,-50,21,1,-85,-140,-108,-98
-7,-51,-44,29,19,-47,12,6,-74,-137,-103,-92
2,-43,-46,21,25,-45,6,34,-56,-118,-86,-80
-5,-50,-45,28,21,-48,-2,53,-29,-108,-84,-75
-26,-67,-40,47,7,-53,-10,87,18,-67,-61,-58
3,-48,-51,22,27,-49,-15,121,54,-32,-33,-37
44,-29,-73,-7,59,-51,-25,153,116,13,2,-7
56,-17,-73,-19,64,-45,-35,199,168,71,33,18
86,-2,-88,-42,87,-45,-37,258,221,124,64,35
104,15,-89,-59,96,-37,-34,334,289,183,106,58
141,28,-112,-84,126,-42,-35,425,365,254,155,92
186,40,-146,-112,166,-53,-50,515,446,319,197,121
221,68,-153,-145,186,-42,-54,614,526,408,268,169
253,76,-177,-164,214,-50,-45,702,611,488,336,224
292,94,-198,-193,244,-52,-40,754,669,556,386,260
307,123,-184,-214,246,-30,-32,776,698,596,419,282
281,129,-152,-205,216,-11,-27,746,689,584,416,274
232,122,-109,-177,170,6,-14,631,597,527,377,246
168,103,-66,-135,117,18,7,469,443,389,273,191
122,89,-33,-105,77,28,33,317,284,246,164,112
71,65,-6,-68,39,29,59,194,159,137,83,50
9,18,9,-13,0,13,79,118,79,45,15,5
-32,-10,22,21,-27,6,110,79,34,9,-18,-26
-43,-12,32,28,-37,10,120,44,-4,-17,-43,-48
-64,-35,30,49,-47,-2,110,9,-34,-46,-53,-61
-82,-52,30,67,-56,-11,99,-2,-36,-55,-49,-60
-79,-49,30,64,-55,-10,70,-6,-32,-60,-50,-60
-81,-50,30,65,-55,-10,31,-11,-30,-60,-50,-60
-79,-50,29,64,-54,-10,-10,-15,-26,-60,-50,-60
-74,-50,24,62,-49,-12,-42,-20,-25,-60,-51,-59
-67,-47,21,57,-44,-12,-52,-16,-21,-60,-55,-55
-59,-41,18,50,-38,-11,-46,-10,-20,-61,-55,-55
-50,-36,14,43,-31,-11,-43,-6,-20,-57,-58,-55
-43,-33,10,38,-26,-11,-37,1,-16,-55,-62,-55
-34,-27,7,30,-20,-10,-10,5,-15,-55,-65,-55
-30,-27,3,28,-16,-12,19,13,-17,-52,-69,-59
-45,-38,7,41,-26,-15,31,29,-20,-49,-72,-71
-40,-41,-1,41,-20,-21,46,31,-20,-51,-75,-75
-18,-38,-20,28,1,-29,68,27,-23,-54,-78,-76
-27,-46,-18,37,-4,-32,68,25,-25,-57,-83,-80
-42,-56,-13,50,-14,-34,58,21,-25,-60,-86,-80
-43,-55,-12,49,-15,-33,50,20,-29,-63,-93,-83
-46,-52,-6,49,-20,-28,40,16,-41,-67,-95,-85
-43,-49,-6,46,-19,-27,31,4,-42,-63,-95,-85
-33,-56,-23,44,-5,-39,13,-4,-44,-69,-95,-85
-41,-62,-20,52,-10,-41,8,-17,-63,-86,-95,-86
-59,-56,3,58,-31,-26,11,-33,-70,-93,-95,-90
-69,-54,15,61,-42,-19,10,-38,-85,-96,-96,-92
-70,-49,20,60,-45,-15,16,-41,-97,-99,-103,-95
-65,-45,20,55,-42,-12,14,-45,-94,-102,-109,-98
-65,-45,20,55,-42,-12,21,-45,-96,-105,-114,-101
-62,-45,17,53,-39,-14,43,-45,-95,-110,-115,-96
-59,-45,14,51,-36,-16,46,-46,-95,-109,-115,-95
-56,-45,11,51,-33,-16,45,-43,-98,-115,-119,-95
-53,-45,8,49,-30,-18,44,-54,-100,-123,-121,-90
-50,-45,5,47,-27,-20,39,-66,-100,-120,-118,-90
-55,-51,4,52,-29,-23,41,-61,-100,-120,-115,-91
-60,-57,3,58,-31,-27,37,-58,-99,-120,-115,-95
-70,-63,7,66,-38,-27,29,-55,-101,-120,-115,-95
-92,-65,26,78,-59,-19,23,-50,-105,-121,-115,-95
-93,-65,28,79,-60,-18,15,-52,-105,-124,-115,-95
-85,-65,20,75,-52,-22,7,-59,-109,-125,-118,-95
-82,-65,17,73,-49,-24,2,-66,-110,-125,-120,-99
-74,-65,9,69,-41,-28,8,-72,-112,-125,-120,-100
-71,-65,6,68,-38,-29,23,-78,-115,-124,-120,-100
-74,-65,10,69,-41,-27,27,-80,-116,-127,-120,-100
-75,-65,10,70,-42,-27,19,-80,-120,-130,-120,-100
-75,-65,10,70,-42,-27,12,-80,-120,-133,-120,-99
-75,-65,10,70,-42,-27,5,-79,-120,-136,-120,-92
-73,-63,10,68,-41,-26,-3,-76,-120,-139,-120,-86
-61,-53,8,57,-34,-23,-9,-73,-121,-141,-120,-79
-52,-48,4,49,-28,-22,2,-70,-113,-133,-121,-73
-54,-21,33,37,-43,6,19,-66,-97,-122,-116,-66
-35,13,48,10,-42,30,31,-51,-86,-109,-104,-61
-17,26,43,-5,-30,34,25,-39,-84,-97,-98,-59
1,48,47,-25,-23,47,6,-40,-85,-90,-99,-55
17,59,42,-38,-13,50,-7,-48,-85,-88,-101,-54
-8,47,54,-20,-31,50,-30,-53,-86,-84,-99,-49
-14,33,47,-10,-31,40,-26,-62,-83,-80,-101,-52
-7,2,9,2,-8,6,-11,-75,-95,-87,-99,-53
-45,-42,3,43,-23,-19,2,-83,-126,-115,-105,-68
-80,-56,24,68,-52,-16,25,-88,-143,-146,-131,-99
-85,-63,22,74,-53,-20,39,-81,-141,-141,-127,-98
-86,-65,20,75,-53,-22,42,-102,-163,-168,-135,-103
-66,-58,8,62,-37,-25,36,-101,-147,-157,-124,-102
-84,-78,6,81,-45,-36,46,-109,-161,-173,-136,-118
-75,-77,-2,76,-37,-39,30,-85,-153,-158,-133,-109
-94,-113,-19,104,-37,-66,133,19,-115,-182,-206,-174
-124,-184,-60,154,-32,-122,357,502,184,-106,-289,-311
98,18,-80,-58,89,-31,280,853,751,501,184,13
608,656,47,-632,280,351,-360,-203,669,1240,1270,967
1018,1075,57,-1047,480,566,-914,-1307,308,1671,2111,1759
425,689,264,-557,80,476,-619,-1522,-405,620,1148,1120
-230,166,397,32,-314,281,-177,-1259,-927,-574,-151,87
-92,1,93,45,-92,47,-58,-500,-379,-253,-119,-17
-63,-57,6,59,-34,-25,14,-135,-125,-119,-98,-44
-57,-73,-17,65,-20,-45,17,-98,-127,-159,-125,-95
-32,-83,-51,58,10,-66,21,-53,-71,-105,-88,-81
-54,-92,-37,74,-8,-64,23,-42,-93,-139,-113,-110
-29,-82,-52,56,12,-67,19,-11,-55,-96,-78,-94
-37,-81,-44,59,4,-62,22,-29,-66,-115,-94,-102
-20,-74,-54,47,17,-64,17,-9,-44,-87,-71,-88
-23,-71,-48,47,13,-59,16,-4,-41,-90,-76,-89
-26,-66,-40,46,7,-53,15,8,-17,-66,-61,-83
-3,-59,-57,31,27,-58,13,18,4,-41,-52,-77
28,-56,-83,14,56,-69,4,26,21,-25,-39,-66
31,-49,-79,9,55,-64,-2,70,59,7,-15,-39
36,-44,-79,4,58,-61,-10,94,81,32,0,-21
43,-39,-82,-2,62,-60,-18,125,115,57,26,-13
45,-32,-77,-6,61,-55,-24,166,157,97,55,9
64,-27,-91,-18,78,-59,-19,206,202,150,92,37
93,-15,-107,-39,100,-61,-28,270,267,213,135,68
151,8,-143,-79,147,-67,-46,348,345,294,192,109
202,27,-175,-115,188,-74,-46,434,431,369,255,151
211,45,-166,-128,189,-60,-42,511,522,454,321,201
260,77,-182,-168,221,-52,-40,580,601,537,394,248
294,88,-206,-190,249,-59,-35,624,661,597,446,274
283,90,-193,-186,238,-51,-32,629,695,618,462,296
270,107,-163,-188,216,-27,-28,596,665,592,443,291
198,91,-107,-144,152,-8,-21,494,558,498,372,246
120,58,-61,-89,90,-1,-9,357,410,343,258,177
78,34,-45,-56,61,-5,-2,233,257,206,151,94
36,18,-18,-27,27,0,4,137,141,89,61,35
0,9,9,-4,-5,8,9,75,73,27,10,-4
-19,-7,12,13,-15,2,12,37,21,-7,-20,-27
-27,-20,7,23,-17,-6,18,11,-13,-53,-57,-42
-38,-34,4,35,-21,-14,19,-6,-27,-68,-72,-55
-48,-47,1,47,-24,-23,15,-14,-40,-73,-69,-55
-43,-47,-4,46,-19,-26,13,-19,-45,-79,-71,-56
-40,-45,-4,43,-18,-24,10,-26,-47,-80,-78,-63
-48,-45,3,46,-25,-21,6,-29,-50,-80,-81,-65
-50,-41,8,45,-29,-17,5,-24,-53,-80,-80,-65
-65,-39,26,52,-46,-7,1,-15,-56,-80,-77,-65
-72,-41,31,56,-52,-5,0,-7,-52,-81,-75,-65
-68,-44,24,56,-46,-10,0,1,-47,-82,-75,-66
-70,-46,25,58,-47,-10,-4,8,-45,-79,-71,-63
-58,-42,16,50,-37,-13,-5,10,-40,-76,-68,-61
-70,-40,30,54,-50,-5,-4,13,-37,-74,-66,-57
-87,-40,47,63,-67,3,2,16,-33,-70,-63,-55
-80,-40,40,60,-60,0,9,19,-30,-71,-59,-52
-77,-40,37,58,-57,-1,16,20,-31,-70,-63,-49
-71,-40,31,56,-51,-5,23,14,-29,-70,-70,-60
-76,-44,32,60,-54,-6,22,8,-45,-80,-71,-66
-82,-46,36,64,-59,-5,16,0,-63,-87,-69,-68
-84,-50,35,67,-60,-7,12,-4,-74,-99,-82,-71
-88,-52,35,70,-61,-8,7,-21,-91,-109,-95,-75
-90,-55,35,72,-62,-10,3,-41,-104,-118,-97,-83
-88,-54,34,70,-61,-9,-2,-41,-107,-132,-104,-88
-74,-43,31,59,-52,-6,-7,-45,-105,-137,-110,-90
-94,-65,28,79,-60,-18,-13,-47,-120,-141,-115,-90
-101,-75,25,88,-63,-25,-19,-50,-131,-143,-115,-90
-78,-55,22,66,-50,-16,-17,-53,-134,-146,-116,-90
-76,-56,20,66,-47,-17,-9,-56,-136,-149,-121,-89
-72,-54,18,63,-44,-18,-3,-59,-134,-151,-119,-86
-70,-56,15,62,-42,-21,4,-60,-135,-149,-123,-83
-66,-54,12,60,-38,-21,11,-65,-134,-154,-125,-80
-66,-57,9,61,-37,-23,15,-65,-137,-165,-125,-78
-76,-70,6,72,-40,-32,15,-65,-140,-165,-129,-74
-73,-68,5,70,-39,-31,15,-65,-143,-165,-130,-78
-75,-64,11,69,-43,-26,15,-65,-146,-165,-130,-87
-89,-61,28,75,-59,-16,15,-67,-149,-164,-134,-86
-94,-56,38,75,-66,-9,11,-70,-150,-168,-137,-84
-84,-53,31,69,-57,-11,10,-73,-145,-170,-140,-85
-76,-50,26,63,-51,-12,10,-76,-141,-170,-143,-84
-69,-47,21,58,-45,-13,10,-80,-139,-170,-146,-86
-59,-45,14,51,-36,-15,10,-80,-134,-170,-149,-82
-53,-41,12,47,-32,-15,11,-76,-131,-170,-150,-79
-47,-40,7,44,-27,-16,18,-70,-128,-163,-144,-81
-57,-35,22,46,-39,-6,24,-67,-121,-153,-139,-77
-61,-21,40,41,-51,10,31,-59,-116,-143,-134,-75
-63,-11,52,36,-57,21,38,-33,-111,-132,-127,-75
-69,8,76,30,-73,42,35,-29,-104,-128,-123,-71
-48,30,78,9,-63,54,21,-30,-101,-122,-117,-66
-21,47,68,-13,-45,57,10,-33,-104,-118,-115,-63
-14,50,64,-18,-39,57,0,-52,-111,-115,-115,-60
-19,35,55,-8,-37,45,-9,-66,-111,-108,-114,-54
-19,27,46,-4,-33,36,-16,-73,-123,-132,-116,-59
-23,5,28,9,-26,16,-30,-77,-142,-151,-126,-63
-49,-30,19,39,-34,-6,-18,-105,-173,-175,-162,-88
-69,-58,10,64,-39,-24,1,-103,-173,-181,-168,-107
-80,-74,6,77,-43,-34,17,-106,-181,-185,-177,-112
-69,-67,3,68,-36,-32,19,-110,-182,-196,-182,-109
-69,-78,-9,74,-29,-44,33,-107,-173,-194,-180,-104
-72,-75,-4,73,-34,-39,35,-114,-193,-219,-197,-107
-76,-87,-11,82,-33,-48,53,-63,-148,-188,-189,-113
-136,-166,-29,151,-53,-97,238,197,-64,-255,-351,-290
-13,-116,-103,65,45,-109,356,796,497,117,-186,-229
315,358,43,-336,136,200,-25,353,776,892,680,478
818,1018,200,-918,309,609,-746,-970,487,1682,1900,1542
758,1002,244,-880,257,623,-856,-1482,24,1437,1878,1652
-31,419,451,-194,-241,435,-383,-1445,-864,-198,289,500
-183,78,262,52,-223,170,-128,-839,-722,-517,-260,-21
-33,-14,19,23,-26,3,-32,-217,-161,-103,-76,17
-81,-55,26,68,-53,-14,-2,-121,-157,-196,-165,-71
-54,-70,-16,62,-19,-43,3,-61,-86,-125,-123,-61
-75,-77,-1,76,-36,-39,33,-56,-111,-162,-159,-95
-59,-79,-19,69,-20,-49,38,-38,-91,-140,-131,-81
-40,-81,-41,61,0,-61,54,-26,-86,-132,-132,-86
-29,-75,-46,52,9,-61,53,-20,-91,-121,-126,-86
-24,-73,-49,48,13,-61,47,-4,-67,-101,-113,-83
-17,-68,-51,43,17,-59,44,0,-49,-104,-116,-86
-9,-65,-56,38,24,-61,38,21,-19,-81,-95,-71
-5,-60,-55,33,25,-57,35,30,-17,-72,-91,-69
9,-52,-61,21,36,-56,27,52,18,-35,-61,-56
15,-44,-59,14,37,-51,18,86,61,-3,-30,-53
25,-36,-61,6,43,-48,10,116,99,43,-7,-30
36,-29,-64,-3,50,-46,0,152,149,90,22,-2
73,-16,-89,-29,82,-52,-8,203,197,131,58,18
107,-2,-109,-52,108,-55,-12,265,264,190,96,43
130,16,-114,-73,122,-49,-16,341,341,266,153,77
173,36,-137,-104,155,-50,-20,433,423,350,215,125
203,53,-150,-128,177,-48,-15,519,517,438,282,172
248,77,-171,-162,209,-47,-7,598,600,524,357,222
284,100,-184,-192,234,-41,-1,667,678,605,421,269
287,115,-173,-201,230,-29,6,686,705,647,449,295
278,128,-151,-203,214,-11,13,655,689,626,433,287
235,133,-102,-184,168,15,32,561,608,541,375,251
174,114,-59,-144,117,27,46,416,446,400,274,187
106,78,-28,-92,67,25,55,270,281,243,159,105
46,44,-2,-45,24,20,70,161,146,119,58,36
4,14,9,-9,-3,11,79,97,67,35,-4,-14
-24,-8,16,16,-20,4,91,50,22,-20,-45,-47
-40,-17,22,28,-31,2,87,15,-22,-44,-77,-70
-53,-24,29,39,-41,2,73,-4,-41,-56,-81,-76
-55,-25,30,40,-42,2,60,-12,-39,-61,-80,-74
-56,-26,30,41,-43,2,32,-20,-43,-75,-80,-76
-59,-24,34,41,-46,5,20,-31,-45,-86,-80,-75
-62,-27,36,44,-49,4,20,-33,-45,-84,-80,-75
-72,-38,34,55,-53,-2,17,-27,-45,-85,-80,-75
-70,-40,30,55,-50,-5,13,-23,-45,-85,-80,-75
-66,-40,26,53,-46,-7,23,-19,-44,-85,-80,-75
-67,-44,23,55,-44,-10,41,-14,-41,-86,-80,-75
-65,-47,18,56,-41,-14,40,-10,-38,-89,-80,-76
-55,-40,15,47,-35,-12,40,-3,-35,-91,-80,-72
-67,-52,15,59,-41,-18,40,4,-33,-90,-80,-70
-80,-66,15,72,-47,-25,40,11,-29,-91,-80,-70
-74,-59,16,66,-45,-21,40,13,-33,-89,-80,-70
-68,-54,14,60,-40,-20,35,8,-35,-93,-80,-70
-70,-51,19,60,-44,-15,32,5,-36,-95,-80,-70
-75,-45,30,60,-52,-7,28,2,-40,-95,-88,-70
-65,-40,25,52,-45,-7,25,-3,-40,-98,-90,-71
-79,-63,17,71,-48,-23,20,-5,-51,-101,-92,-74
-75,-63,12,69,-43,-25,22,-12,-63,-100,-95,-75
-49,-47,3,48,-26,-22,26,-20,-72,-106,-96,-74
-54,-52,2,53,-28,-25,24,-28,-79,-112,-103,-75
-60,-47,13,53,-36,-17,25,-36,-87,-119,-105,-75
-68,-45,23,57,-45,-11,24,-42,-97,-125,-105,-76
-80,-45,34,62,-56,-5,26,-49,-101,-118,-105,-85
-78,-43,35,60,-56,-4,29,-55,-105,-131,-105,-87
-93,-63,30,78,-62,-16,32,-55,-109,-147,-105,-84
-105,-77,28,91,-66,-24,35,-55,-113,-144,-106,-85
-96,-71,25,83,-61,-22,38,-55,-118,-145,-110,-85
-92,-69,23,80,-58,-22,41,-55,-120,-145,-112,-85
-85,-64,21,75,-52,-22,38,-55,-123,-145,-115,-86
-78,-61,17,69,-47,-21,35,-55,-126,-142,-118,-91
-73,-58,15,65,-44,-21,32,-65,-129,-139,-120,-96
-66,-54,12,60,-38,-21,29,-79,-132,-141,-120,-100
-64,-56,9,60,-36,-23,26,-73,-135,-139,-120,-96
-78,-51,27,64,-52,-12,25,-75,-133,-144,-120,-95
-87,-49,37,68,-62,-6,30,-96,-129,-150,-120,-95
-80,-51,29,65,-54,-11,30,-94,-130,-145,-120,-90
-72,-43,29,57,-50,-7,30,-91,-130,-140,-119,-90
-79,-56,23,67,-50,-16,30,-89,-130,-136,-115,-90
-86,-66,20,77,-53,-23,30,-85,-129,-131,-115,-90
-84,-59,24,71,-54,-17,32,-85,-125,-128,-113,-90
-83,-59,24,70,-53,-17,40,-77,-119,-123,-109,-90
-79,-53,27,66,-53,-13,45,-71,-113,-119,-111,-90
-72,-52,21,62,-47,-15,50,-64,-106,-114,-106,-91
-71,-36,35,53,-53,0,47,-57,-88,-109,-96,-84
-53,4,57,24,-56,31,29,-58,-79,-105,-87,-71
-22,32,54,-6,-38,43,15,-62,-81,-102,-82,-60
-11,43,55,-17,-33,49,-11,-65,-79,-98,-84,-54
-9,47,56,-19,-33,51,-32,-69,-81,-95,-86,-57
-16,39,54,-12,-35,46,-28,-71,-78,-89,-85,-51
-31,24,55,3,-43,39,-23,-75,-86,-92,-93,-51
-29,16,45,7,-37,30,-20,-81,-104,-106,-87,-47
-55,-21,34,38,-44,7,-14,-91,-130,-132,-101,-62
-78,-51,27,64,-52,-12,-9,-90,-147,-149,-130,-94
-73,-59,14,66,-44,-22,3,-88,-143,-148,-133,-100
-92,-77,15,84,-53,-31,14,-93,-159,-176,-154,-116
-85,-86,-1,85,-41,-43,20,-91,-139,-161,-142,-111
-92,-87,5,89,-48,-41,31,-115,-163,-189,-160,-121
-70,-78,-9,74,-30,-43,25,-93,-133,-166,-136,-105
-119,-134,-15,127,-52,-75,150,45,-95,-213,-229,-194
-111,-171,-59,141,-26,-115,345,585,244,-90,-278,-298
157,114,-43,-136,100,35,178,654,725,565,299,130
644,783,139,-714,252,461,-515,-586,566,1345,1441,1118
962,1101,139,-1032,411,619,-956,-1521,197,1650,2106,1739
305,607,301,-456,2,454,-601,-1633,-623,368,935,961
-217,120,337,49,-277,228,-215,-1174,-936,-596,-189,55
-66,-7,59,36,-63,26,-80,-382,-289,-187,-89,-1
-84,-65,19,75,-51,-23,3,-131,-138,-166,-123,-52
-68,-77,-9,73,-29,-43,16,-87,-117,-163,-118,-79
-70,-91,-21,80,-24,-56,31,-41,-86,-132,-107,-69
-66,-97,-32,82,-16,-64,21,-43,-104,-149,-126,-82
-44,-90,-46,67,2,-68,18,-22,-72,-106,-101,-68
-56,-90,-34,73,-11,-62,14,-29,-87,-123,-114,-81
-40,-85,-44,63,2,-64,7,-8,-64,-92,-89,-70
-48,-85,-37,66,-5,-61,6,-3,-70,-103,-97,-70
-39,-80,-41,59,1,-60,-3,21,-51,-81,-75,-61
-40,-76,-36,58,-2,-56,-9,46,-31,-62,-62,-58
-38,-71,-33,55,-2,-52,-16,56,-1,-34,-48,-51
-28,-67,-38,48,5,-52,-24,80,36,0,-28,-46
14,-61,-75,24,44,-68,-30,103,69,24,-6,-38
39,-44,-83,3,61,-63,-38,142,114,53,22,-16
37,-28,-66,-4,52,-47,-40,196,169,98,52,9
75,-15,-90,-30,83,-53,-41,256,231,155,93,38
111,-2,-113,-54,112,-57,-62,334,296,219,143,69
142,12,-130,-77,135,-58,-66,419,376,294,198,109
185,33,-152,-109,169,-59,-65,507,468,380,262,159
238,67,-171,-152,204,-52,-70,601,556,465,327,205
262,80,-182,-170,222,-51,-70,675,636,539,383,244
267,97,-170,-182,218,-36,-69,716,692,601,432,280
292,134,-157,-213,224,-12,-53,714,702,606,434,289
267,137,-131,-202,199,3,-33,653,664,564,405,267
203,123,-80,-163,141,21,-20,522,534,465,342,224
132,92,-40,-112,86,26,-4,366,365,315,229,160
64,56,-8,-59,35,24,26,234,219,176,121,79
12,30,18,-21,-3,23,61,139,107,74,38,19
-19,7,26,5,-23,16,88,79,41,4,-16,-19
-29,-5,24,17,-27,9,104,32,-10,-48,-53,-47
-58,-30,28,44,-42,-1,92,13,-41,-74,-69,-58
-71,-41,30,56,-51,-5,80,6,-52,-81,-77,-60
-66,-36,30,51,-48,-3,69,-6,-55,-85,-82,-55
-61,-35,26,48,-43,-4,39,-15,-58,-88,-79,-55
-57,-33,25,44,-41,-4,8,-25,-62,-92,-81,-54
-54,-30,25,42,-40,-2,-18,-31,-65,-95,-80,-50
-51,-31,20,41,-36,-5,-35,-32,-62,-91,-80,-50
-76,-55,20,66,-48,-17,-34,-26,-59,-90,-80,-52
-74,-55,19,64,-46,-18,-29,-17,-56,-90,-80,-55
-48,-34,14,41,-31,-10,-27,-8,-53,-85,-80,-55
-44,-36,9,40,-26,-13,-14,-1,-50,-85,-80,-59
-39,-35,5,37,-21,-15,9,0,-51,-85,-80,-60
-35,-35,0,35,-17,-17,34,0,-56,-85,-81,-60
-30,-35,-5,33,-12,-20,41,5,-55,-85,-86,-59
-35,-36,-1,35,-16,-18,35,4,-55,-85,-90,-64
-41,-41,0,41,-21,-20,30,9,-55,-85,-93,-75
-45,-43,2,43,-23,-20,24,18,-55,-84,-96,-77
-53,-47,6,50,-29,-20,19,7,-59,-90,-99,-81
-53,-50,3,51,-28,-23,14,-5,-70,-99,-102,-85
-47,-47,0,47,-23,-23,9,-15,-77,-106,-104,-82
-41,-44,-3,43,-19,-23,6,-25,-85,-111,-106,-80
-36,-41,-5,39,-15,-23,3,-32,-94,-116,-110,-80
-30,-38,-8,34,-11,-23,-2,-39,-94,-119,-110,-80
-24,-35,-11,30,-6,-22,-5,-45,-106,-124,-113,-80
-30,-36,-6,33,-11,-21,-2,-55,-117,-128,-115,-80
-40,-45,-5,43,-18,-25,4,-64,-118,-133,-115,-85
-46,-50,-5,49,-20,-27,8,-65,-124,-135,-120,-90
-49,-50,0,50,-25,-25,13,-65,-125,-135,-120,-93
-50,-50,0,50,-25,-25,17,-65,-126,-135,-121,-98
-51,-50,1,50,-26,-24,22,-66,-130,-135,-125,-100
-57,-50,6,53,-32,-22,24,-70,-132,-134,-125,-100
-60,-50,11,55,-35,-19,28,-70,-135,-141,-125,-100
-66,-51,14,58,-40,-18,30,-70,-138,-146,-125,-100
-74,-55,19,64,-46,-18,33,-70,-141,-144,-125,-100
-75,-55,20,65,-47,-17,36,-70,-136,-145,-121,-100
-77,-57,20,67,-48,-19,31,-70,-135,-145,-119,-100
-81,-60,20,71,-51,-20,30,-69,-135,-145,-120,-100
-80,-60,20,70,-50,-20,30,-71,-130,-149,-119,-100
-77,-56,20,67,-48,-18,26,-69,-130,-150,-121,-100
-74,-55,19,64,-46,-17,24,-72,-131,-150,-118,-100
-76,-55,21,65,-48,-17,27,-84,-135,-150,-115,-100
-74,-55,19,64,-46,-17,30,-86,-138,-150,-115,-100
-76,-55,20,65,-47,-17,32,-84,-141,-150,-115,-100
-85,-54,32,69,-58,-11,36,-81,-145,-150,-115,-100
-85,-49,36,67,-61,-6,38,-80,-141,-150,-114,-99
-77,-43,34,60,-56,-4,42,-80,-140,-150,-119,-95
-72,-40,32,56,-52,-4,46,-70,-140,-150,-124,-87
-64,-34,30,49,-47,-2,51,-63,-141,-151,-117,-82
-61,-33,29,47,-45,-2,54,-54,-138,-143,-109,-74
-64,-15,49,40,-57,17,52,-47,-115,-123,-100,-68
-44,24,67,9,-56,45,49,-48,-91,-102,-92,-61
-23,41,64,-10,-44,53,46,-51,-73,-91,-86,-43
-17,48,65,-16,-41,56,42,-49,-63,-89,-85,-35
-15,51,65,-18,-40,58,5,-53,-72,-91,-85,-35
-14,50,64,-18,-39,57,-18,-77,-87,-88,-84,-31
-34,27,62,3,-48,44,-5,-87,-99,-92,-86,-30
-65,-16,49,40,-57,17,-1,-92,-115,-112,-85,-35
-79,-35,44,56,-61,4,19,-108,-145,-135,-112,-64
-89,-55,34,72,-61,-11,36,-103,-143,-138,-122,-75
-111,-85,26,97,-68,-29,44,-106,-145,-139,-124,-78
-100,-75,24,87,-62,-25,38,-105,-154,-145,-133,-79
-86,-78,8,81,-46,-35,40,-103,-144,-131,-127,-72
-86,-70,16,78,-51,-26,42,-103,-156,-154,-147,-99
-61,-71,-10,66,-26,-40,39,-70,-132,-138,-131,-102
-151,-144,7,148,-79,-68,218,134,-78,-183,-266,-232
-70,-119,-48,95,-11,-83,371,700,366,66,-188,-240
256,260,4,-258,125,132,52,395,698,738,540,346
795,936,140,-866,327,538,-664,-929,500,1487,1668,1330
920,991,71,-955,424,531,-921,-1641,17,1365,1872,1612
103,376,274,-240,-86,325,-471,-1603,-817,-45,516,657
-189,55,244,67,-217,149,-142,-908,-723,-465,-187,18
-20,-13,7,17,-14,-3,-33,-218,-142,-72,-57,25
-83,-65,18,74,-50,-24,25,-94,-117,-131,-125,-65
-48,-78,-30,63,-9,-53,31,-43,-79,-92,-87,-74
-62,-89,-27,76,-17,-58,47,-29,-81,-110,-106,-83
-46,-89,-43,68,-2,-66,31,-12,-70,-107,-100,-81
-44,-91,-48,68,2,-69,26,4,-57,-100,-93,-74
-47,-88,-41,68,-3,-64,17,9,-58,-106,-94,-78
-36,-85,-49,61,7,-67,12,27,-41,-84,-78,-67
-44,-85,-41,65,-1,-63,8,23,-38,-80,-75,-72
-34,-83,-48,59,7,-65,3,35,-6,-53,-53,-61
-42,-78,-36,60,-3,-57,0,61,14,-44,-46,-56
-19,-75,-55,47,19,-65,-6,82,39,-22,-31,-46
5,-68,-73,32,39,-70,-4,102,65,14,-19,-40
10,-57,-67,23,39,-62,-6,134,100,52,4,-29
35,-47,-83,6,59,-65,-3,173,144,72,30,-7
69,-37,-106,-16,88,-72,-13,233,193,117,62,19
91,-24,-115,-33,103,-69,-30,303,256,173,91,42
125,-14,-140,-55,133,-77,-32,383,328,234,137,66
175,13,-162,-93,168,-74,-43,472,407,315,199,106
213,41,-172,-127,192,-65,-61,559,499,397,263,150
259,54,-204,-156,231,-74,-73,651,585,471,328,198
308,77,-232,-192,270,-77,-68,710,656,550,386,247
323,89,-234,-206,278,-72,-58,744,707,606,433,284
309,102,-207,-206,257,-52,-51,741,708,600,432,293
275,117,-158,-196,216,-20,-38,649,655,557,402,269
200,105,-96,-152,148,4,-14,504,521,446,321,214
121,76,-45,-98,83,15,25,355,358,299,204,142
53,35,-18,-43,36,8,61,239,227,183,119,84
2,1,-1,-1,1,0,92,157,122,95,49,34
-24,-13,11,18,-17,-1,103,90,54,36,-3,-7
-56,-30,26,43,-41,-2,92,43,3,-8,-44,-34
-59,-26,33,42,-46,4,83,16,-22,-36,-66,-50
-58,-33,25,45,-41,-4,63,10,-18,-48,-66,-51
-80,-57,23,68,-51,-17,43,5,-26,-54,-71,-55
-62,-51,11,56,-37,-20,40,-1,-40,-59,-74,-58
-47,-48,-1,48,-23,-24,40,-7,-41,-60,-73,-60
-61,-45,16,53,-38,-14,36,-9,-38,-60,-69,-60
-61,-40,21,51,-41,-9,35,-5,-48,-60,-70,-60
-57,-38,19,48,-38,-9,35,-2,-61,-61,-70,-60
-55,-34,21,44,-37,-6,41,2,-55,-66,-70,-60
-52,-32,19,42,-35,-6,63,5,-51,-65,-70,-60
-49,-29,21,39,-35,-4,70,9,-47,-68,-75,-60
-42,-26,16,34,-29,-5,63,18,-41,-71,-83,-68
-40,-25,15,32,-27,-5,78,25,-40,-70,-85,-75
-45,-30,15,37,-30,-7,75,34,-40,-74,-85,-76
-49,-34,15,41,-32,-9,54,39,-41,-75,-85,-80
-50,-35,15,42,-32,-10,46,31,-39,-75,-86,-82
-51,-35,16,43,-33,-9,34,24,-41,-75,-84,-86
-55,-35,20,45,-37,-7,26,18,-38,-75,-88,-89
-55,-36,19,45,-37,-7,25,7,-49,-75,-105,-92
-57,-34,22,45,-39,-6,25,-10,-77,-86,-111,-96
-61,-36,25,48,-43,-5,25,-27,-79,-105,-112,-99
-58,-34,25,45,-41,-4,25,-36,-84,-105,-117,-100
-63,-38,25,50,-44,-6,25,-39,-85,-106,-118,-103
-83,-58,25,70,-53,-16,25,-40,-86,-111,-123,-106
-81,-56,25,68,-53,-15,25,-41,-107,-109,-124,-105
-70,-46,24,57,-47,-11,25,-55,-113,-113,-130,-105
-71,-43,29,57,-50,-7,25,-64,-116,-119,-138,-105
-68,-31,36,49,-52,2,25,-65,-121,-124,-133,-105
-69,-36,33,52,-51,-2,26,-65,-119,-123,-130,-105
-80,-50,30,65,-55,-10,32,-65,-120,-119,-127,-105
-78,-50,28,64,-53,-11,40,-65,-120,-120,-122,-101
-73,-50,24,61,-49,-12,48,-65,-120,-120,-120,-99
-77,-50,27,63,-52,-11,45,-68,-124,-120,-127,-104
-85,-50,35,67,-60,-7,40,-70,-125,-120,-138,-105
-83,-48,35,65,-59,-6,38,-70,-125,-127,-140,-105
-79,-45,35,61,-56,-5,33,-70,-129,-135,-140,-102
-72,-42,30,57,-51,-6,30,-70,-131,-135,-140,-100
-69,-39,30,54,-50,-4,26,-70,-128,-134,-140,-100
-64,-36,29,50,-46,-3,20,-78,-125,-138,-140,-104
-59,-34,25,46,-42,-5,15,-82,-125,-147,-138,-105
-67,-42,25,54,-46,-8,9,-77,-123,-146,-133,-105
-62,-40,22,51,-42,-8,3,-76,-119,-139,-130,-110
-73,-53,20,63,-47,-17,1,-70,-121,-137,-127,-111
-79,-61,18,70,-48,-21,7,-70,-124,-131,-123,-109
-46,-7,39,26,-42,16,13,-59,-108,-127,-120,-83
-28,30,58,-2,-43,44,18,-37,-98,-120,-114,-60
-30,29,59,0,-44,43,26,-36,-101,-110,-108,-57
-11,46,57,-18,-35,51,10,-33,-99,-108,-100,-50
5,56,51,-31,-24,54,-27,-48,-102,-112,-95,-48
-3,44,47,-21,-25,45,-41,-63,-98,-109,-86,-41
-17,27,45,-5,-31,36,-42,-71,-106,-108,-83,-41
-36,-2,35,19,-35,16,-53,-95,-131,-135,-109,-60
-70,-44,26,56,-47,-9,-51,-120,-160,-175,-146,-86
-82,-63,19,72,-50,-22,-47,-122,-162,-188,-156,-99
-75,-70,5,72,-40,-32,-38,-115,-155,-187,-157,-104
-77,-72,5,75,-41,-33,-36,-128,-168,-206,-170,-116
-70,-77,-6,74,-32,-41,-28,-109,-152,-188,-158,-111
-70,-62,8,66,-39,-27,-22,-133,-198,-215,-181,-121
-56,-67,-11,62,-23,-39,-15,-100,-151,-182,-161,-112
-128,-165,-37,146,-45,-101,140,75,-98,-232,-277,-239
-82,-187,-105,135,11,-145,329,647,328,-14,-267,-309
239,156,-84,-197,161,36,110,701,830,714,428,226
757,841,85,-799,336,463,-611,-543,589,1463,1641,1309
884,1065,181,-975,352,622,-909,-1345,204,1592,2070,1774
117,540,423,-329,-153,482,-466,-1432,-637,169,654,758
-250,96,345,77,-298,220,-148,-1062,-899,-634,-281,-32
-75,-24,51,49,-63,13,-66,-353,-270,-168,-78,11
-97,-67,29,82,-63,-19,-22,-149,-166,-170,-140,-56
-70,-86,-16,78,-27,-50,-23,-105,-128,-145,-114,-74
-87,-101,-14,94,-36,-57,-11,-70,-111,-136,-118,-92
-72,-104,-32,88,-20,-68,-11,-58,-122,-145,-127,-95
-42,-100,-59,72,9,-79,-4,-36,-96,-116,-110,-84
-49,-100,-51,75,1,-75,0,-42,-110,-133,-120,-96
-41,-98,-58,70,9,-78,-5,-24,-81,-100,-92,-84
-42,-95,-53,69,6,-74,-15,-26,-71,-105,-97,-95
-41,-95,-54,69,7,-74,-24,-13,-38,-79,-73,-82
-43,-93,-50,68,4,-71,-32,-12,-24,-63,-60,-63
-21,-84,-63,53,21,-73,-42,23,6,-28,-39,-49
-8,-78,-69,43,31,-73,-44,62,31,11,-27,-38
5,-71,-76,34,40,-73,-46,73,57,33,-7,-18
17,-64,-80,24,49,-72,-50,116,109,70,30,3
51,-59,-109,4,80,-84,-50,165,151,122,63,20
81,-48,-129,-16,105,-88,-57,210,203,179,102,43
110,-22,-132,-44,121,-76,-63,281,279,255,167,87
169,12,-156,-90,162,-72,-58,361,365,332,230,132
198,29,-168,-113,183,-69,-57,443,461,422,298,179
228,41,-188,-134,208,-74,-53,515,540,505,367,221
265,70,-195,-167,229,-62,-51,569,616,571,419,256
273,87,-186,-180,229,-49,-49,604,675,631,463,291
255,83,-172,-168,213,-44,-40,591,670,640,465,306
201,74,-128,-137,164,-27,-32,530,619,582,426,280
141,66,-75,-103,108,-4,-23,413,489,438,324,210
94,58,-36,-76,64,11,-14,284,331,285,203,137
46,33,-13,-39,29,10,0,182,199,155,104,68
7,10,2,-9,3,6,12,95,97,43,18,15
-9,5,15,2,-12,10,25,45,37,-8,-26,-15
-26,-3,23,15,-24,10,35,19,-8,-45,-57,-38
-33,-8,25,20,-29,8,35,10,-34,-77,-74,-55
-43,-18,25,30,-33,3,35,7,-38,-87,-80,-63
-68,-43,25,55,-46,-9,32,0,-51,-90,-85,-64
-71,-47,25,59,-48,-11,30,-5,-62,-93,-88,-72
-67,-42,25,54,-46,-8,29,-10,-57,-96,-92,-73
-64,-40,24,52,-44,-8,36,-5,-55,-95,-91,-70
-56,-36,20,46,-37,-8,46,-5,-52,-95,-90,-70
-55,-35,20,45,-37,-7,55,-4,-49,-95,-90,-70
-51,-31,20,41,-35,-5,61,1,-47,-95,-90,-70
-50,-30,20,40,-35,-5,60,-1,-42,-96,-90,-71
-50,-30,20,40,-35,-5,60,2,-40,-93,-90,-74
-42,-26,16,33,-29,-5,60,5,-36,-90,-90,-75
-39,-24,15,31,-26,-5,59,4,-31,-87,-90,-75
-42,-26,15,34,-28,-6,56,9,-31,-84,-90,-75
-45,-30,15,37,-30,-7,53,10,-37,-81,-90,-74
-44,-30,15,37,-30,-7,50,9,-41,-80,-90,-78
-49,-32,16,40,-32,-8,48,5,-44,-91,-93,-80
-58,-36,22,46,-39,-6,44,-3,-50,-100,-98,-80
-63,-35,28,48,-45,-3,48,-8,-62,-106,-101,-84
-68,-35,33,51,-50,-1,50,-17,-74,-113,-106,-85
-74,-35,39,54,-56,2,50,-20,-77,-115,-109,-85
-75,-35,40,55,-57,2,50,-33,-89,-125,-110,-90
-76,-35,41,55,-58,2,45,-55,-102,-132,-109,-90
-79,-35,44,56,-61,5,45,-55,-110,-128,-111,-90
-82,-36,46,58,-63,5,44,-54,-106,-135,-109,-90
-89,-45,43,67,-66,-1,40,-56,-114,-145,-113,-89
-88,-50,38,69,-63,-6,40,-54,-140,-149,-125,-93
-80,-50,30,65,-55,-9,43,-58,-140,-154,-125,-95
-74,-50,24,62,-49,-13,45,-60,-139,-153,-126,-95
-68,-50,18,58,-43,-16,45,-62,-141,-149,-130,-95
-60,-50,10,55,-35,-20,49,-65,-140,-150,-130,-95
-64,-46,17,55,-40,-14,51,-65,-138,-150,-130,-95
-67,-45,22,56,-44,-11,49,-69,-134,-150,-130,-90
-64,-44,19,54,-41,-12,45,-70,-136,-150,-130,-90
-61,-41,20,51,-40,-10,38,-70,-134,-155,-130,-89
-59,-39,20,49,-40,-10,34,-70,-135,-155,-130,-84
-60,-40,20,50,-39,-10,27,-72,-134,-156,-130,-86
-61,-40,21,50,-41,-9,22,-77,-131,-160,-134,-82
-77,-52,25,64,-51,-13,19,-79,-130,-160,-135,-79
-89,-65,24,77,-57,-20,20,-76,-131,-158,-135,-81
-84,-58,26,71,-55,-16,20,-69,-129,-151,-135,-77
-72,-49,23,60,-47,-13,20,-67,-131,-145,-136,-75
-68,-28,41,48,-54,7,31,-60,-126,-138,-133,-75
-63,-8,55,35,-59,24,35,-43,-108,-130,-122,-69
-38,11,49,13,-44,30,26,-40,-104,-125,-113,-64
-27,40,66,-7,-47,53,23,-38,-105,-125,-102,-58
-25,45,70,-10,-48,57,9,-52,-106,-124,-95,-53
-27,34,62,-4,-45,48,-19,-66,-102,-119,-94,-46
-30,31,61,0,-46,46,-24,-70,-113,-120,-95,-46
-33,17,50,8,-42,33,-27,-79,-127,-124,-96,-45
-57,-18,39,37,-48,10,-17,-105,-151,-148,-122,-61
-77,-48,29,63,-53,-10,-4,-119,-176,-176,-151,-89
-78,-64,15,71,-46,-24,11,-110,-162,-171,-158,-100
-83,-65,18,73,-50,-23,20,-121,-180,-192,-176,-117
-86,-80,6,83,-46,-37,26,-107,-158,-165,-155,-109
-90,-78,12,84,-51,-33,42,-123,-185,-187,-176,-126
-76,-75,0,75,-38,-37,32,-88,-164,-168,-152,-109
-126,-147,-21,136,-53,-84,176,56,-123,-201,-257,-210
-113,-167,-54,140,-29,-110,380,599,247,-68,-307,-317
144,124,-20,-134,82,52,216,706,779,629,328,156
649,816,167,-732,241,491,-462,-517,606,1442,1509,1179
890,1130,240,-1010,325,685,-877,-1392,248,1738,2130,1778
223,623,400,-423,-89,511,-509,-1501,-578,389,875,931
-218,140,358,39,-288,249,-141,-1114,-927,-611,-241,23
-66,-14,52,40,-59,19,-15,-363,-278,-157,-97,3
-87,-83,4,85,-45,-40,49,-121,-133,-126,-141,-42
-58,-85,-28,72,-15,-56,52,-72,-105,-129,-130,-70
-44,-91,-47,68,2,-69,71,-37,-76,-103,-117,-78
-56,-101,-44,79,-6,-72,61,-37,-96,-127,-137,-92
-46,-100,-54,73,4,-77,53,-15,-63,-91,-110,-78
-53,-94,-41,74,-6,-67,43,-19,-83,-113,-117,-91
-47,-88,-42,68,-2,-65,32,1,-54,-85,-85,-80
-31,-83,-52,57,11,-68,30,5,-48,-92,-88,-89
-3,-77,-74,40,35,-75,30,22,-20,-70,-72,-80
-4,-73,-69,38,33,-70,27,29,0,-60,-67,-70
9,-66,-75,29,42,-71,24,53,28,-37,-48,-58
14,-61,-75,24,45,-68,25,89,58,-7,-27,-42
23,-55,-78,16,51,-66,16,112,90,27,-6,-26
37,-50,-87,7,62,-68,4,153,137,68,18,-9
54,-41,-95,-6,75,-68,-7,199,185,112,52,15
89,-29,-118,-30,104,-73,-18,251,246,166,94,44
113,-17,-130,-48,122,-73,-23,325,318,234,145,78
150,1,-149,-76,150,-73,-29,411,403,316,212,125
203,31,-172,-116,187,-70,-34,500,499,405,279,170
233,55,-178,-144,206,-61,-40,577,580,495,347,213
254,78,-175,-166,214,-48,-45,643,658,578,414,263
272,102,-170,-187,221,-34,-38,670,705,624,459,295
278,117,-162,-197,220,-22,-29,658,715,635,468,299
249,116,-133,-182,190,-8,-21,593,661,589,436,282
188,104,-84,-146,136,10,-11,458,501,440,338,220
125,88,-38,-106,81,25,7,311,342,279,215,139
72,51,-21,-61,46,15,32,190,200,143,108,64
38,21,-17,-29,27,2,52,110,90,49,35,5
4,-4,-9,0,6,-6,69,59,28,-3,-15,-33
-29,-32,-3,31,-13,-17,71,31,-16,-53,-59,-48
-40,-36,4,38,-22,-16,66,14,-32,-69,-70,-53
-39,-34,5,36,-22,-15,65,-1,-47,-76,-75,-70
-43,-38,5,40,-24,-17,55,-8,-51,-88,-81,-72
-47,-41,5,43,-26,-18,39,-18,-50,-90,-79,-69
-43,-38,5,40,-24,-16,28,-27,-49,-90,-80,-71
-40,-35,5,37,-22,-15,23,-27,-44,-93,-80,-70
-38,-33,5,35,-21,-14,20,-19,-46,-96,-80,-70
-33,-28,5,30,-19,-11,17,-13,-42,-94,-80,-72
-44,-39,5,41,-24,-17,12,-6,-40,-91,-80,-76
-51,-46,5,48,-28,-20,10,1,-40,-85,-80,-75
-45,-40,5,42,-25,-17,15,6,-37,-81,-80,-75
-44,-38,5,40,-24,-16,20,10,-35,-77,-80,-75
-34,-33,1,34,-17,-16,23,10,-36,-71,-80,-76
-30,-30,0,30,-15,-15,30,6,-39,-72,-83,-79
-33,-33,0,33,-16,-17,27,1,-42,-75,-85,-82
-31,-36,-4,34,-13,-20,18,-4,-44,-79,-88,-86
-29,-35,-6,32,-11,-20,7,-8,-48,-79,-91,-89
-33,-36,-3,35,-14,-20,-2,-13,-50,-86,-94,-93
-49,-50,0,50,-24,-25,-1,-16,-52,-96,-97,-95
-58,-56,3,57,-30,-26,0,-22,-63,-97,-101,-95
-60,-55,5,57,-32,-25,1,-29,-71,-100,-104,-95
-64,-55,9,59,-36,-23,5,-36,-77,-104,-108,-95
-65,-55,10,60,-37,-22,6,-43,-88,-108,-110,-95
-62,-55,7,58,-34,-24,2,-49,-95,-113,-110,-95
-55,-51,4,53,-29,-24,-11,-54,-104,-115,-114,-95
-58,-50,9,54,-34,-20,-11,-55,-117,-124,-115,-95
-66,-50,16,57,-41,-17,-4,-55,-121,-134,-115,-95
-60,-45,15,52,-37,-15,-1,-55,-119,-135,-120,-95
-60,-45,15,52,-37,-15,4,-54,-120,-134,-120,-97
-60,-46,15,53,-37,-15,8,-57,-120,-135,-120,-100
-59,-44,15,51,-37,-14,13,-60,-120,-134,-120,-103
-60,-46,14,53,-36,-16,16,-61,-125,-136,-119,-106
-52,-43,10,48,-31,-16,20,-64,-129,-145,-123,-109
-60,-49,10,55,-35,-19,23,-65,-134,-151,-125,-110
-76,-66,10,71,-42,-28,28,-68,-133,-150,-125,-110
-72,-62,10,67,-41,-25,30,-72,-129,-150,-129,-110
-67,-58,9,63,-38,-24,25,-76,-130,-150,-130,-110
-69,-55,15,62,-41,-20,17,-81,-126,-150,-130,-110
-64,-50,14,57,-39,-18,11,-84,-124,-147,-130,-110
-69,-48,21,58,-45,-13,4,-82,-126,-144,-130,-108
-80,-44,36,62,-58,-4,-3,-80,-129,-147,-130,-103
-73,-45,27,59,-50,-9,-3,-80,-135,-150,-130,-100
-69,-45,24,57,-46,-10,1,-75,-133,-146,-131,-97
-60,-45,14,52,-37,-15,4,-74,-126,-139,-128,-92
-53,-27,26,39,-39,-1,5,-76,-120,-135,-118,-91
-52,4,56,24,-54,30,24,-79,-109,-128,-107,-83
-37,17,55,9,-46,36,26,-82,-93,-125,-98,-73
-22,33,55,-6,-39,44,9,-85,-88,-125,-94,-62
-2,49,51,-24,-27,50,-6,-88,-93,-122,-95,-57
-3,47,50,-22,-27,48,-39,-91,-101,-121,-96,-61
-16,34,50,-9,-33,42,-47,-92,-104,-118,-94,-60
-18,26,44,-4,-31,34,-38,-99,-115,-129,-96,-67
-28,7,34,10,-31,20,-39,-100,-133,-139,-96,-62
-64,-37,27,50,-45,-5,-29,-111,-155,-170,-126,-84
-72,-52,20,62,-46,-16,-15,-110,-156,-184,-145,-108
-79,-68,11,73,-45,-28,4,-109,-158,-174,-145,-108
-93,-84,9,88,-51,-37,5,-113,-176,-188,-159,-113
-87,-90,-4,88,-42,-47,16,-104,-158,-168,-147,-105
-97,-94,3,96,-49,-46,21,-117,-173,-195,-167,-117
-71,-89,-18,80,-26,-53,26,-82,-140,-166,-139,-105
-145,-154,-9,150,-68,-82,201,115,-90,-226,-269,-235
-77,-143,-66,110,-5,-104,355,698,348,-4,-231,-274
242,238,-4,-240,122,117,78,504,738,714,495,300
734,899,165,-816,284,531,-645,-841,521,1484,1662,1317
864,1022,159,-944,352,591,-934,-1572,90,1492,1980,1676
105,464,359,-285,-127,411,-504,-1567,-766,50,603,711
-236,66,302,85,-269,184,-182,-986,-801,-545,-217,19
-89,-45,44,67,-66,-1,-57,-264,-177,-111,-73,35
-121,-88,33,104,-77,-27,4,-111,-135,-153,-148,-59
-74,-83,-9,79,-32,-46,16,-56,-102,-109,-115,-75
-85,-87,-2,86,-41,-44,45,-33,-98,-117,-134,-86
-81,-90,-9,86,-36,-50,37,-23,-96,-112,-128,-83
-74,-90,-16,82,-29,-53,42,-3,-79,-93,-114,-74
-76,-91,-15,83,-30,-53,37,-10,-88,-117,-121,-78
-62,-89,-27,75,-18,-57,34,10,-56,-96,-102,-66
-59,-81,-22,70,-18,-51,36,16,-49,-97,-109,-69
-40,-71,-31,56,-4,-51,30,39,-28,-74,-87,-57
-34,-63,-29,49,-2,-46,26,51,-15,-67,-78,-56
-19,-55,-36,38,9,-46,19,69,18,-40,-65,-48
-7,-50,-43,29,18,-46,14,101,48,-10,-53,-44
2,-45,-47,21,25,-45,8,118,76,20,-34,-32
16,-38,-54,11,35,-46,-5,161,122,58,-4,-13
35,-34,-69,0,52,-51,-19,217,173,106,32,13
76,-12,-88,-32,82,-50,-32,278,237,163,68,42
116,6,-110,-61,113,-51,-46,352,306,226,118,72
155,22,-133,-88,144,-56,-49,440,387,303,181,115
193,39,-155,-116,174,-58,-54,533,484,389,251,166
221,45,-176,-133,198,-65,-66,612,564,468,317,216
274,92,-182,-183,228,-45,-60,682,643,544,378,256
290,116,-174,-203,232,-29,-52,713,687,586,423,288
276,121,-155,-198,215,-17,-46,704,681,580,421,294
235,126,-108,-180,171,9,-28,619,625,529,388,271
173,107,-66,-140,119,21,-5,453,479,408,300,218
125,87,-38,-105,81,24,21,309,317,262,182,142
54,36,-18,-45,35,9,50,199,185,142,90,74
6,-4,-10,-1,8,-7,77,116,95,59,25,20
-17,-21,-5,19,-6,-13,106,69,36,-3,-20,-10
-32,-32,0,32,-16,-16,120,38,-6,-45,-56,-20
-32,-28,4,30,-18,-12,111,17,-20,-63,-66,-27
-41,-32,9,36,-25,-11,98,2,-31,-72,-65,-38
-38,-28,10,33,-24,-9,89,-10,-43,-75,-64,-44
-47,-37,10,42,-28,-13,61,-12,-56,-75,-60,-40
-65,-46,18,55,-41,-14,21,-9,-59,-74,-59,-40
-47,-27,21,37,-34,-3,-3,-12,-52,-79,-66,-38
-51,-31,19,41,-35,-6,-21,-16,-48,-81,-71,-34
-74,-42,32,58,-53,-4,-19,-9,-41,-80,-70,-36
-74,-39,35,56,-54,-2,-6,-3,-36,-79,-70,-38
-70,-41,29,55,-49,-6,1,4,-31,-75,-70,-41
-67,-40,27,53,-47,-6,16,11,-29,-75,-69,-44
-62,-40,22,51,-42,-9,38,15,-26,-73,-73,-47
-56,-36,20,46,-38,-8,53,20,-24,-69,-75,-50
-60,-34,26,47,-43,-4,61,20,-19,-71,-77,-50
-61,-31,30,46,-46,0,63,20,-23,-70,-80,-52
-58,-28,30,43,-44,1,57,18,-36,-70,-81,-56
-55,-25,30,40,-42,2,53,14,-34,-89,-84,-54
-55,-25,30,40,-42,2,49,16,-38,-97,-85,-59
-75,-45,30,60,-52,-8,44,10,-44,-94,-84,-60
-81,-51,30,66,-56,-11,39,2,-49,-96,-87,-60
-79,-49,30,64,-55,-10,35,-6,-60,-95,-92,-65
-80,-50,30,65,-55,-10,31,-14,-62,-95,-97,-65
-81,-51,30,66,-55,-10,28,-21,-74,-95,-100,-65
-90,-61,30,75,-60,-15,25,-28,-88,-95,-105,-65
-91,-60,30,75,-60,-15,20,-34,-90,-95,-105,-65
-84,-56,28,70,-55,-14,22,-39,-93,-96,-105,-65
-77,-54,23,65,-49,-16,29,-40,-96,-94,-105,-65
-68,-51,17,59,-43,-16,35,-40,-100,-102,-105,-65
-63,-49,14,56,-39,-17,40,-40,-100,-116,-107,-69
-54,-45,8,50,-31,-18,46,-40,-101,-115,-110,-70
-50,-45,5,47,-27,-20,53,-41,-105,-115,-110,-70
-57,-45,12,51,-34,-16,55,-49,-104,-115,-110,-70
-60,-45,15,52,-37,-15,61,-50,-107,-115,-110,-70
-60,-45,15,52,-37,-15,63,-50,-111,-115,-110,-71
-58,-43,15,50,-36,-14,56,-50,-110,-115,-114,-76
-55,-39,16,46,-35,-11,52,-50,-110,-115,-115,-79
-54,-41,14,47,-34,-13,46,-50,-110,-115,-115,-80
-59,-39,20,49,-39,-9,40,-46,-111,-115,-115,-80
-72,-41,31,56,-51,-5,35,-44,-114,-114,-115,-80
-83,-53,30,68,-56,-11,35,-41,-115,-110,-112,-80
-85,-55,30,70,-57,-12,35,-38,-115,-110,-110,-80
-85,-55,30,70,-57,-12,35,-36,-115,-108,-110,-81
-84,-54,30,69,-56,-11,35,-33,-115,-105,-107,-86
-90,-60,29,75,-59,-15,34,-48,-113,-104,-104,-91
-92,-66,26,79,-59,-20,38,-55,-108,-111,-106,-94
-76,-52,24,64,-50,-14,47,-45,-105,-114,-115,-92
-73,-50,23,61,-48,-13,55,-40,-102,-105,-110,-86
-68,-51,16,60,-42,-18,60,-32,-97,-98,-101,-82
-59,-26,33,43,-46,3,54,-26,-95,-88,-94,-78
-49,11,61,19,-55,36,44,-21,-83,-87,-85,-72
-28,31,60,-1,-45,45,38,-19,-71,-91,-81,-71
-6,54,60,-24,-33,57,28,-15,-56,-89,-78,-75
2,63,60,-32,-29,61,23,-16,-54,-90,-76,-76
-8,52,60,-22,-34,56,15,-43,-76,-90,-72,-74
-18,38,57,-10,-38,47,12,-65,-86,-90,-70,-75
-35,6,42,14,-38,24,4,-82,-105,-101,-72,-75
-55,-27,27,41,-41,0,0,-108,-140,-133,-99,-79
-71,-51,20,60,-45,-15,23,-119,-161,-158,-132,-105
-73,-61,12,67,-42,-24,36,-110,-152,-155,-132,-116
-81,-71,10,75,-45,-30,36,-121,-174,-176,-146,-130
-75,-75,0,75,-37,-37,31,-109,-158,-156,-134,-126
-73,-77,-4,75,-34,-40,41,-120,-173,-173,-152,-141
-47,-70,-23,58,-11,-46,26,-109,-157,-162,-137,-132
-96,-111,-15,103,-40,-63,112,-12,-118,-196,-201,-183
-117,-175,-57,147,-30,-116,330,457,132,-144,-306,-333
114,24,-90,-68,102,-33,270,823,700,452,161,-21
588,661,73,-624,257,367,-360,-181,656,1187,1233,923
1016,1097,80,-1057,468,588,-928,-1286,315,1627,2083,1721
466,709,243,-588,111,476,-654,-1532,-402,622,1180,1136
-215,172,386,21,-301,279,-208,-1284,-953,-568,-129,98
-84,11,95,37,-90,53,-73,-510,-400,-272,-130,-43
-32,-35,-3,34,-15,-18,9,-128,-140,-137,-106,-63
-62,-73,-11,67,-25,-42,23,-98,-142,-172,-137,-103
-50,-90,-40,71,-5,-65,33,-46,-87,-115,-103,-90
-58,-88,-30,74,-14,-59,31,-52,-118,-151,-136,-110
-44,-84,-39,64,-2,-62,26,-30,-80,-111,-106,-90
-49,-81,-32,66,-9,-56,27,-35,-98,-131,-120,-101
-39,-76,-36,58,-1,-56,20,-23,-72,-109,-96,-91
-37,-74,-38,56,1,-56,21,-9,-66,-99,-96,-95
0,-68,-68,35,34,-68,24,11,-49,-67,-83,-85
7,-64,-71,28,39,-67,24,20,-33,-56,-71,-79
10,-60,-69,25,40,-64,15,32,-12,-39,-61,-73
15,-55,-70,20,43,-62,10,66,31,-7,-46,-64
20,-51,-70,16,45,-60,2,90,43,15,-30,-61
40,-44,-84,2,62,-64,-4,121,80,55,-1,-41
55,-32,-87,-11,71,-59,-10,166,133,99,31,-9
88,-19,-108,-34,98,-63,-20,208,176,140,60,11
113,-12,-125,-50,119,-68,-30,273,246,208,105,43
151,8,-143,-79,147,-68,-40,356,325,290,169,97
198,30,-168,-114,183,-69,-50,434,410,367,237,147
243,58,-185,-150,214,-64,-52,507,498,445,300,188
278,79,-199,-178,238,-60,-46,578,575,521,351,221
279,74,-205,-176,241,-65,-42,621,643,591,412,269
285,87,-199,-186,242,-55,-39,621,678,627,441,295
258,96,-162,-177,210,-32,-23,588,652,598,421,280
196,84,-112,-140,154,-14,1,485,548,489,346,232
142,75,-67,-109,104,4,24,345,402,351,233,162
90,64,-26,-77,57,19,38,218,258,211,129,91
30,30,1,-30,14,15,31,135,147,108,46,27
-10,-3,7,6,-8,2,24,80,68,42,-7,-5
-25,-16,8,21,-16,-4,17,27,24,-19,-52,-29
-43,-30,13,36,-28,-8,9,-4,3,-48,-79,-45
-50,-35,15,42,-32,-10,3,-15,-15,-56,-80,-45
-53,-38,15,45,-34,-11,-4,-21,-18,-69,-83,-45
-56,-41,15,48,-36,-12,-10,-27,-23,-76,-85,-45
-53,-40,13,46,-33,-13,-16,-35,-26,-74,-86,-45
-47,-40,7,43,-27,-16,-22,-39,-31,-78,-90,-44
-44,-40,4,42,-24,-18,-24,-36,-35,-81,-90,-40
-38,-39,-1,38,-18,-20,-11,-30,-32,-80,-90,-40
-28,-34,-5,31,-11,-19,-1,-26,-29,-77,-90,-38
-36,-29,7,32,-21,-11,1,-21,-26,-74,-90,-34
-44,-24,20,34,-32,-2,4,-17,-24,-71,-86,-36
-32,-21,11,26,-21,-4,7,-12,-20,-68,-85,-30
-27,-14,13,20,-19,-1,10,-10,-21,-65,-85,-35
-50,-23,27,36,-38,2,10,-10,-27,-66,-81,-54
-59,-36,23,47,-41,-6,10,-10,-30,-71,-79,-56
-55,-34,20,45,-37,-6,10,-10,-35,-74,-82,-55
-53,-36,17,44,-35,-9,10,-10,-38,-79,-93,-55
-48,-33,15,40,-31,-9,10,-17,-43,-84,-96,-55
-53,-40,13,47,-33,-14,10,-27,-46,-88,-93,-54
-56,-48,8,52,-31,-20,7,-38,-55,-91,-99,-62
-44,-41,2,42,-23,-19,2,-45,-76,-97,-109,-74
-49,-50,-1,50,-24,-25,-1,-45,-82,-104,-110,-76
-55,-61,-6,58,-24,-33,-4,-44,-83,-107,-109,-80
-48,-59,-10,53,-19,-34,-9,-46,-87,-110,-110,-84
-66,-57,9,61,-37,-24,-9,-44,-94,-114,-109,-86
-68,-52,16,60,-42,-18,-5,-46,-105,-116,-111,-92
-59,-52,8,55,-33,-22,-5,-51,-111,-123,-115,-99
-51,-47,4,49,-28,-21,-5,-52,-116,-129,-115,-96
-45,-47,-2,46,-21,-25,-5,-62,-114,-130,-115,-95
-59,-67,-8,63,-25,-37,-5,-67,-118,-130,-115,-95
-59,-67,-8,63,-25,-37,-8,-68,-120,-130,-115,-91
-56,-58,-2,58,-27,-30,-12,-72,-119,-141,-119,-89
-58,-56,1,57,-29,-27,-15,-74,-124,-146,-120,-92
-52,-46,6,49,-29,-19,-18,-76,-125,-144,-125,-95
-62,-52,10,57,-36,-21,-22,-82,-125,-146,-124,-95
-68,-65,3,67,-36,-31,-25,-89,-125,-144,-119,-95
-51,-57,-6,54,-22,-31,-25,-90,-125,-146,-120,-95
-47,-54,-7,51,-20,-30,-25,-90,-124,-149,-117,-95
-61,-56,6,58,-33,-25,-28,-90,-120,-150,-114,-91
-68,-51,17,59,-42,-17,-40,-90,-120,-153,-115,-90
-65,-50,15,57,-40,-17,-50,-89,-120,-156,-118,-90
-60,-49,10,55,-35,-19,-43,-81,-120,-152,-121,-85
-64,-57,7,60,-35,-25,-38,-73,-120,-147,-125,-85
-57,-57,0,57,-29,-28,-31,-65,-117,-141,-125,-84
-49,-44,5,47,-27,-19,-14,-56,-113,-137,-117,-78
-48,-20,28,34,-38,4,-4,-55,-100,-129,-109,-72
-40,7,48,16,-44,27,-1,-55,-85,-126,-103,-66
-38,13,51,12,-45,32,5,-55,-83,-129,-103,-61
-21,28,49,-3,-36,38,-1,-54,-85,-130,-106,-60
-6,41,47,-17,-27,44,-26,-58,-90,-134,-105,-60
-19,25,44,-4,-32,34,-32,-70,-90,-134,-104,-59
-37,9,46,14,-42,27,-25,-78,-98,-139,-107,-61
-52,-14,38,32,-45,12,-25,-89,-120,-147,-104,-60
-80,-46,35,63,-57,-5,-17,-109,-152,-193,-140,-90
-97,-69,28,83,-62,-20,-18,-103,-153,-202,-155,-116
-92,-71,21,81,-57,-25,-10,-105,-163,-197,-154,-120
-87,-72,15,79,-51,-28,-6,-108,-167,-206,-158,-121
-101,-102,-1,102,-50,-51,4,-99,-145,-190,-151,-117
-104,-101,3,102,-53,-49,10,-111,-161,-222,-170,-125
-87,-111,-24,99,-31,-68,32,-67,-123,-199,-158,-128
-150,-181,-31,165,-59,-105,217,179,-51,-259,-324,-297
-58,-146,-88,102,15,-117,355,782,495,103,-184,-274
275,307,33,-291,121,170,10,444,815,893,685,422
774,983,209,-879,282,596,-710,-865,524,1687,1914,1501
757,1010,253,-884,251,631,-844,-1402,93,1520,1979,1676
-29,425,453,-198,-242,439,-371,-1378,-792,-120,394,537
-212,57,269,77,-241,163,-107,-847,-745,-549,-249,-46
-65,-41,24,53,-44,-9,5,-215,-164,-103,-72,-21
-111,-79,33,95,-72,-22,44,-101,-151,-182,-165,-93
-23,-53,-30,38,3,-41,46,-50,-93,-114,-109,-89
-103,-125,-22,114,-41,-73,73,-43,-98,-144,-141,-110
78,53,-25,-65,51,14,68,-29,-78,-123,-127,-88
199,170,-30,-184,114,70,70,-15,-64,-118,-124,-116
27,-23,-50,-2,39,-36,73,-13,-63,-122,-119,-58
64,4,-60,-33,62,-28,63,1,-42,-97,-100,-129
54,5,-49,-29,52,-22,60,-1,-38,-101,-98,-21
47,-8,-55,-19,51,-32,48,26,-10,-63,-68,-139
56,11,-45,-33,50,-17,62,45,8,-67,-55,3
44,-11,-55,-16,50,-33,48,63,37,-73,-36,-125
62,11,-52,-36,57,-20,58,93,56,-80,-25,64
