I,II,III,aVR,aVL,aVF,V1,V2,V3,V4,V5,V6
4,124,120,-64,-59,122,-94,45,-1,-42,19,-21
-2,119,121,-59,-62,120,-80,45,-6,-57,10,-29
-12,113,125,-51,-69,119,-46,42,-12,-75,-6,-47
-41,105,145,-32,-93,125,-19,39,-20,-87,-18,-55
-53,97,150,-22,-102,124,-11,36,-27,-90,-24,-55
-53,90,144,-19,-99,117,-4,34,-35,-93,-31,-59
-58,85,143,-14,-101,114,3,30,-39,-96,-39,-60
-54,81,136,-14,-95,108,9,30,-42,-100,-46,-62
-58,78,136,-11,-97,107,15,29,-45,-106,-53,-67
-53,75,128,-11,-91,101,15,25,-48,-113,-55,-70
-58,70,128,-6,-93,98,15,25,-51,-113,-55,-73
-46,72,118,-13,-82,95,15,28,-48,-109,-55,-78
-50,75,125,-13,-88,100,15,30,-43,-110,-55,-80
-99,78,178,10,-139,128,15,30,-40,-110,-55,-76
-100,80,181,10,-140,130,17,33,-37,-110,-51,-73
-84,85,168,-1,-126,126,21,35,-32,-110,-46,-71
-80,85,165,-2,-123,124,20,35,-29,-105,-44,-67
-74,80,154,-3,-114,117,20,40,-26,-100,-39,-65
-70,80,150,-6,-110,115,20,40,-21,-96,-35,-63
-66,78,144,-6,-105,111,20,39,-19,-91,-35,-60
-67,76,143,-5,-105,109,26,41,-14,-86,-35,-60
-67,72,139,-2,-104,105,33,37,-11,-82,-35,-60
-44,92,136,-25,-91,114,39,56,-8,-77,-35,-60
-22,113,134,-46,-78,123,46,78,-1,-72,-35,-60
-30,109,138,-40,-84,123,53,73,5,-66,-35,-55
-34,110,144,-39,-89,127,57,78,13,-59,-29,-55
-37,110,147,-37,-92,128,64,81,20,-56,-24,-54
-43,110,153,-34,-98,131,65,78,25,-59,-19,-50
-44,110,154,-33,-99,132,73,89,36,-62,-13,-50
-33,115,147,-41,-90,131,76,90,31,-65,-7,-48
-26,114,141,-44,-84,127,56,84,19,-67,-7,-43
-25,109,134,-42,-79,121,18,42,6,-71,-10,-37
-20,108,128,-44,-74,118,-11,17,5,-71,-9,-34
-20,101,121,-41,-71,111,-8,11,-4,-79,-14,-28
-22,101,123,-40,-73,112,-6,5,-6,-80,-15,-25
-45,81,126,-19,-85,103,1,7,-10,-87,-15,-29
-66,58,124,4,-95,91,-1,-11,-20,-91,-22,-36
-85,41,126,22,-106,84,10,9,-17,-105,-33,-53
-95,28,123,33,-109,75,11,-11,-55,-125,-42,-59
-114,15,129,49,-122,72,35,43,-2,-110,-54,-68
-139,-13,126,76,-132,56,53,23,-23,-143,-73,-86
-105,45,150,29,-128,97,198,341,251,16,-40,-83
123,326,203,-224,-40,264,469,1039,1048,687,334,144
612,849,236,-731,188,542,161,1049,1680,1569,1010,645
651,878,227,-765,212,552,-480,87,928,1109,962,747
198,319,121,-259,38,220,-671,-1010,-707,-343,233,351
-37,7,45,15,-41,26,-497,-893,-884,-632,-103,59
-196,-152,44,174,-120,-54,-254,-361,-411,-395,-166,-91
-194,-159,35,176,-114,-62,-110,-188,-255,-310,-168,-132
-106,-51,55,79,-80,2,-58,-48,-90,-194,-118,-112
-137,-51,86,93,-111,17,-34,-70,-91,-193,-126,-116
-115,-31,85,72,-100,27,-29,-48,-55,-166,-114,-104
-120,-34,86,77,-103,26,-30,-46,-69,-179,-114,-102
-117,-27,90,72,-104,31,-30,-42,-63,-170,-107,-96
-112,-22,90,67,-101,34,-30,-29,-57,-169,-103,-94
-108,-20,88,64,-98,34,-30,-34,-64,-172,-99,-92
-88,-9,79,49,-83,34,-34,-26,-53,-162,-90,-87
-78,-5,73,41,-75,34,-43,-33,-57,-168,-85,-86
-58,7,65,25,-62,36,-50,-28,-49,-159,-77,-83
-46,11,57,18,-52,34,-61,-31,-50,-162,-68,-69
-29,22,51,3,-40,36,-83,-26,-45,-152,-53,-43
-17,28,45,-6,-31,36,-112,-25,-44,-116,-40,-23
9,54,45,-32,-19,50,-136,-26,-38,-96,-24,-2
40,83,44,-62,-2,63,-142,-25,-33,-89,3,17
62,102,40,-82,11,71,-137,-26,-28,-77,29,32
84,124,40,-104,22,81,-135,-23,-21,-73,29,42
74,116,42,-95,15,79,-131,-17,-16,-75,22,36
57,109,52,-83,3,80,-131,-12,-11,-78,18,28
43,102,58,-73,-8,80,-117,-7,-10,-81,11,20
13,84,71,-49,-29,77,-82,-1,-10,-84,7,12
-26,70,96,-22,-61,82,-49,4,-10,-86,0,5
-45,57,101,-6,-73,79,-22,2,-10,-90,-10,-3
-47,52,99,-2,-73,75,-2,-1,-11,-95,-18,-9
-54,43,97,5,-76,70,5,0,-16,-98,-27,-17
-56,37,93,9,-75,65,7,0,-19,-104,-36,-25
-69,28,96,20,-83,62,10,1,-22,-108,-40,-28
-58,29,87,15,-73,58,14,-1,-27,-110,-40,-25
-44,46,90,-1,-67,68,15,-5,-30,-113,-40,-25
-63,51,114,6,-89,82,19,-5,-30,-116,-40,-25
-59,53,112,3,-86,82,20,-5,-30,-120,-40,-25
-49,56,105,-4,-78,80,20,-5,-30,-120,-36,-25
-45,60,104,-8,-75,82,25,-5,-30,-115,-35,-25
-35,60,95,-13,-65,77,25,-1,-30,-115,-35,-25
-46,56,102,-5,-75,78,26,5,-29,-115,-30,-25
-61,55,116,3,-89,85,31,10,-23,-115,-30,-25
-64,52,115,5,-90,83,29,16,-17,-115,-30,-25
-64,49,113,7,-89,81,33,21,-12,-117,-30,-24
-61,49,110,6,-86,80,35,26,-6,-120,-30,-20
-50,60,110,-5,-80,85,35,30,-1,-120,-30,-20
-52,56,108,-2,-80,82,38,30,4,-120,-30,-18
-52,52,104,0,-78,77,41,30,5,-121,-30,-15
-56,46,102,5,-79,74,40,30,4,-120,-27,-16
-55,43,99,6,-77,71,40,30,5,-114,-22,-12
-57,38,96,9,-76,67,40,34,5,-105,-19,-7
-53,42,95,5,-74,68,40,41,7,-100,-15,-5
-5,95,99,-45,-52,97,66,65,17,-89,-11,0
-2,115,117,-57,-59,115,80,86,35,-63,-9,3
-19,107,127,-45,-73,117,76,72,38,-54,-4,7
-1,111,112,-56,-57,111,67,62,28,-55,-1,10
43,110,67,-77,-12,88,24,44,12,-55,2,10
43,109,66,-76,-12,87,3,37,5,-54,7,10
9,117,108,-63,-50,112,7,23,-10,-56,10,9
-3,104,107,-50,-55,105,2,11,-20,-56,5,11
-47,50,98,-2,-73,74,10,19,-20,-65,-9,2
-56,41,96,7,-76,68,13,13,-25,-69,-20,-10
-65,22,87,21,-76,54,26,36,-10,-78,-33,-27
-74,11,84,31,-79,47,26,13,-36,-97,-45,-30
-86,-7,79,46,-82,36,42,53,4,-81,-45,-41
-121,-55,66,88,-93,5,71,34,-17,-92,-57,-55
-107,13,120,47,-113,66,227,353,259,50,-33,-47
114,280,166,-198,-26,223,481,1063,1055,702,344,177
618,793,175,-706,221,484,198,1070,1666,1574,1012,679
657,836,179,-746,238,507,-427,70,887,1095,958,773
167,297,130,-232,19,213,-629,-991,-723,-327,238,382
-92,-29,62,60,-77,17,-451,-868,-882,-625,-102,82
-159,-175,-15,167,-72,-94,-225,-353,-413,-411,-147,-50
-148,-170,-22,159,-63,-95,-82,-178,-264,-323,-139,-64
-116,-93,23,104,-69,-35,-13,-49,-101,-216,-108,-57
-113,-72,41,92,-76,-15,10,-55,-100,-213,-115,-63
-118,-54,65,86,-92,5,10,-37,-66,-183,-102,-58
-131,-64,67,97,-99,1,10,-35,-78,-192,-103,-61
-93,-54,39,73,-65,-7,10,-29,-73,-184,-96,-54
-99,-56,44,77,-71,-6,11,-18,-66,-181,-92,-56
-127,-55,72,91,-99,8,8,-19,-74,-182,-87,-54
-116,-49,68,82,-92,10,-2,-12,-62,-175,-78,-49
-109,-43,65,76,-87,11,-14,-17,-64,-173,-74,-51
-97,-35,62,66,-79,13,-25,-9,-54,-162,-65,-47
-90,-30,61,60,-75,15,-37,-10,-54,-159,-61,-38
-75,-22,53,49,-64,15,-62,-11,-47,-150,-51,-27
-32,-16,16,24,-24,0,-81,-15,-44,-141,-34,-14
4,2,-2,-3,3,0,-109,-15,-38,-129,-12,10
29,31,1,-30,14,16,-135,-18,-31,-115,13,40
57,56,-2,-56,29,27,-137,-21,-25,-88,26,46
80,86,6,-83,36,46,-132,-20,-17,-74,24,44
58,93,35,-75,11,64,-125,-16,-11,-74,22,44
32,83,51,-57,-10,67,-121,-10,-13,-70,19,39
14,68,54,-42,-20,61,-96,-5,-15,-68,16,41
-21,38,59,-9,-40,48,-58,0,-15,-64,15,36
-36,28,64,4,-50,46,-26,7,-20,-68,5,25
-43,24,68,9,-56,46,3,9,-20,-82,-11,14
-58,19,77,19,-67,48,21,5,-21,-85,-22,2
-84,16,100,34,-92,57,28,5,-32,-85,-27,0
-94,10,103,42,-99,57,32,5,-45,-85,-30,0
-88,7,95,40,-92,51,36,5,-47,-85,-33,0
-91,1,92,45,-92,46,41,5,-44,-85,-38,0
-87,-3,84,45,-85,40,45,8,-41,-83,-40,0
-89,-7,81,48,-85,37,50,13,-38,-79,-35,-3
-97,-13,84,55,-90,35,50,16,-35,-77,-35,-5
-100,-14,86,56,-93,36,51,19,-34,-74,-35,-5
-91,-9,82,50,-87,36,55,24,-29,-71,-35,-9
-83,-3,80,43,-81,38,55,26,-26,-69,-36,-11
-80,0,80,40,-80,40,57,31,-23,-65,-32,-9
-71,6,76,32,-74,41,61,35,-18,-57,-30,-6
-66,8,74,29,-70,41,60,40,-15,-51,-30,-5
-53,22,75,15,-64,48,60,45,-12,-44,-26,-5
-43,31,75,6,-59,53,60,48,-6,-37,-25,-5
-56,20,75,18,-66,47,60,53,-2,-37,-25,-6
-62,12,75,25,-69,43,65,55,3,-40,-20,-2
-73,2,75,35,-74,38,65,59,7,-40,-20,0
-81,-6,75,43,-78,34,66,63,11,-44,-20,0
-95,-19,76,57,-85,29,71,67,16,-46,-20,0
-107,-23,84,64,-95,30,69,72,22,-44,-20,0
-101,-17,84,59,-92,33,74,79,26,-40,-18,0
-108,-13,95,60,-101,40,89,83,30,-40,-15,6
-97,8,105,44,-101,56,101,83,36,-39,-11,12
-93,25,118,34,-106,71,99,79,30,-41,-10,16
-81,35,117,23,-99,76,87,76,22,-39,-5,23
-35,45,79,-5,-57,62,78,74,15,-44,-6,27
-17,56,72,-20,-45,64,70,38,5,-57,-9,34
-16,55,71,-19,-44,63,65,18,2,-64,-12,46
-25,40,65,-8,-45,52,57,11,-9,-70,-15,44
-32,33,64,-1,-48,48,51,20,-1,-68,-17,32
-41,16,57,12,-49,36,46,10,-17,-80,-21,25
-42,15,58,13,-50,36,48,19,-6,-73,-21,16
-63,-18,45,40,-54,13,54,15,-22,-89,-46,5
-102,-55,47,78,-74,-4,51,20,-8,-83,-40,1
-109,-78,31,93,-70,-23,63,49,-1,-100,-48,-33
-133,-80,53,106,-93,-13,125,119,44,-73,-74,-56
-66,63,129,1,-98,96,371,725,635,338,111,41
379,498,118,-439,130,308,452,1265,1500,1254,719,446
739,906,168,-823,285,537,-44,773,1564,1654,1165,849
375,587,211,-481,82,399,-524,-493,52,390,626,630
-42,94,135,-27,-88,114,-501,-1050,-1012,-631,-15,209
-136,-113,23,124,-79,-45,-301,-584,-628,-476,-145,14
-176,-239,-63,208,-56,-150,-152,-281,-375,-353,-184,-84
-133,-169,-35,151,-49,-102,-57,-122,-203,-221,-136,-70
-107,-124,-18,115,-44,-71,-14,-42,-111,-153,-114,-50
-95,-115,-21,105,-37,-67,10,-41,-110,-134,-109,-51
-92,-103,-11,98,-40,-57,19,-21,-82,-106,-92,-44
-93,-107,-13,100,-40,-60,23,-37,-106,-114,-93,-45
-87,-93,-6,90,-40,-49,17,-24,-87,-95,-82,-39
-88,-94,-6,92,-41,-50,7,-34,-101,-98,-81,-40
-80,-84,-4,82,-38,-44,0,-27,-91,-85,-72,-32
-75,-81,-6,78,-35,-43,-8,-25,-90,-83,-69,-27
-70,-75,-5,73,-32,-40,-17,-25,-86,-76,-61,-23
-53,-69,-16,61,-18,-43,-34,-24,-82,-68,-53,-15
-30,-64,-34,47,2,-49,-50,-26,-79,-63,-49,-13
-12,-59,-47,36,17,-52,-66,-24,-74,-55,-31,2
13,-43,-55,16,34,-49,-92,-29,-72,-39,2,25
27,-25,-52,0,40,-39,-123,-30,-64,-17,29,41
53,-20,-74,-16,63,-47,-125,-31,-58,1,36,57
69,-15,-84,-27,77,-49,-117,-34,-51,10,31,61
55,-10,-65,-23,60,-37,-111,-35,-44,10,26,56
54,-3,-57,-25,55,-29,-105,-33,-38,10,23,52
48,-1,-49,-23,48,-25,-94,-26,-35,10,17,47
38,-5,-43,-16,41,-23,-66,-18,-35,10,14,43
29,-7,-36,-10,33,-21,-32,-10,-35,10,8,39
19,-10,-29,-4,24,-19,-3,-2,-35,10,1,33
10,-14,-24,2,17,-18,18,4,-35,10,-6,27
3,-15,-18,6,11,-16,37,6,-38,10,-13,22
-9,-19,-11,14,1,-15,45,5,-41,10,-19,16
-24,-28,-4,26,-9,-16,48,5,-44,9,-24,11
-36,-34,3,35,-19,-15,52,5,-47,6,-29,10
-50,-41,9,46,-29,-16,55,6,-50,3,-32,10
-52,-45,7,48,-29,-19,60,10,-49,0,-38,10
-49,-45,4,47,-26,-20,58,9,-44,-2,-39,10
-50,-45,5,47,-27,-20,54,13,-46,-6,-35,10
-51,-45,6,48,-28,-19,56,15,-42,-2,-35,11
-56,-45,11,50,-33,-17,51,15,-40,1,-35,15
-56,-42,15,49,-35,-13,50,18,-40,0,-35,15
-51,-39,12,45,-31,-13,50,21,-37,0,-35,17
-42,-36,6,39,-23,-15,45,24,-34,0,-31,20
-35,-33,2,34,-18,-16,45,27,-31,1,-30,20
-27,-30,-3,29,-12,-16,45,30,-28,4,-30,17
-23,-30,-7,27,-8,-18,45,32,-25,7,-25,15
-18,-30,-12,24,-3,-21,45,35,-23,10,-25,15
-15,-30,-15,23,0,-22,47,35,-20,13,-24,15
-15,-30,-15,23,0,-22,50,34,-18,15,-19,15
-16,-31,-15,24,0,-22,53,35,-15,17,-16,16
-15,-30,-15,23,0,-22,56,34,-11,21,-13,20
-9,-24,-15,17,3,-19,60,41,-10,25,-8,20
4,-7,-11,2,8,-9,60,50,-4,28,-5,20
12,5,-7,-8,9,-1,71,67,10,33,-1,20
22,21,-2,-21,12,9,95,83,29,35,4,20
55,55,0,-55,27,27,94,76,30,30,9,20
21,33,13,-27,4,22,72,75,23,27,12,19
2,2,0,-2,1,1,34,37,14,22,18,21
70,34,-36,-52,53,-1,17,19,10,21,19,19
91,49,-42,-70,66,4,28,20,-1,14,11,21
70,31,-39,-50,54,-4,30,19,-5,14,4,18
37,-2,-39,-17,38,-20,42,28,-13,2,-3,12
8,-26,-33,10,21,-29,42,18,-26,-8,-11,-9
-2,-38,-36,21,17,-37,55,38,-26,-18,-16,-42
-21,-53,-32,37,6,-42,53,14,-45,-43,-26,-51
-36,-58,-22,47,-7,-39,66,50,1,-31,-31,-62
-60,-81,-21,70,-19,-51,98,46,-22,-58,-58,-59
-72,-45,27,58,-49,-9,259,413,305,138,-18,-50
201,263,62,-233,70,162,507,1113,1162,906,430,197
691,813,123,-753,284,468,219,1085,1740,1757,1099,700
653,804,151,-729,251,477,-383,51,811,1108,948,728
155,241,86,-199,34,163,-563,-985,-792,-351,185,302
-66,-56,9,61,-37,-23,-378,-792,-844,-565,-121,21
-98,-232,-134,166,18,-182,-183,-336,-415,-367,-157,-123
-106,-250,-144,178,19,-196,-64,-179,-283,-281,-150,-144
-72,-148,-76,110,3,-112,7,-23,-98,-156,-110,-113
-78,-138,-60,108,-9,-99,19,-35,-117,-160,-118,-124
-71,-111,-40,91,-15,-75,21,-8,-89,-127,-102,-117
-61,-108,-47,85,-6,-77,20,-13,-90,-138,-101,-121
-50,-95,-45,73,-2,-69,20,-9,-82,-126,-92,-119
-45,-88,-43,67,-1,-65,20,-1,-72,-124,-87,-120
-30,-81,-51,56,11,-66,19,-3,-79,-121,-82,-120
3,-71,-74,35,38,-72,11,0,-70,-113,-73,-119
11,-67,-78,28,45,-72,-1,-8,-73,-117,-69,-121
22,-56,-78,17,50,-67,-9,-3,-68,-112,-60,-119
35,-50,-85,8,60,-67,-24,-7,-69,-111,-56,-121
41,-40,-82,0,62,-61,-39,-4,-57,-110,-38,-109
68,-33,-102,-17,86,-67,-71,-5,-48,-105,-15,-86
105,-12,-117,-46,111,-65,-100,-5,-38,-78,8,-54
118,5,-114,-61,116,-54,-113,-5,-30,-64,24,-30
126,10,-116,-68,121,-52,-125,-6,-27,-61,39,-31
153,39,-114,-95,133,-37,-116,-4,-23,-55,51,-30
168,51,-117,-109,142,-32,-107,-6,-19,-52,44,-30
141,39,-102,-90,121,-31,-97,6,-15,-45,37,-30
101,33,-68,-67,84,-17,-60,28,-17,-47,31,-31
79,22,-57,-50,68,-17,-23,36,-21,-54,19,-46
65,14,-51,-39,58,-18,3,35,-23,-59,1,-69
42,-2,-44,-20,43,-23,31,35,-26,-65,-12,-86
17,-21,-38,2,28,-29,49,35,-29,-69,-18,-93
4,-27,-31,12,18,-29,59,35,-31,-70,-22,-96
-11,-34,-23,23,6,-29,61,38,-34,-70,-27,-99
-34,-42,-7,38,-13,-24,74,41,-37,-70,-31,-102
-52,-50,2,51,-27,-23,86,39,-39,-70,-36,-105
-52,-54,-2,53,-25,-27,77,41,-43,-68,-39,-106
-37,-45,-8,41,-14,-27,75,39,-45,-64,-40,-110
-22,-35,-13,29,-5,-24,70,41,-43,-65,-40,-110
-2,-25,-22,14,10,-23,65,45,-37,-65,-40,-110
12,-20,-32,4,22,-26,69,45,-33,-65,-40,-110
11,-20,-31,5,21,-25,71,51,-28,-65,-38,-110
7,-20,-27,7,17,-23,74,48,-24,-58,-35,-114
5,-20,-25,8,15,-22,76,61,-19,-47,-32,-115
1,-20,-21,10,11,-21,80,86,-16,-38,-29,-115
1,-19,-19,9,10,-19,79,85,-15,-34,-25,-115
9,-15,-24,3,17,-19,75,85,-15,-35,-25,-115
10,-15,-25,3,18,-20,76,85,-15,-35,-30,-114
10,-15,-25,3,18,-20,72,85,-15,-35,-30,-110
14,-15,-29,0,22,-22,70,83,-13,-34,-30,-110
15,-15,-31,0,23,-22,70,79,-8,-31,-30,-110
17,-12,-29,-3,23,-20,73,80,-6,-30,-31,-110
18,-5,-23,-7,21,-14,76,80,-1,-30,-28,-110
15,-1,-15,-7,15,-7,80,80,2,-24,-21,-107
16,6,-10,-11,12,-2,83,81,7,-25,-16,-102
13,11,-2,-12,8,4,88,86,10,-22,-11,-99
14,18,4,-16,5,11,113,111,22,-1,-5,-96
56,58,2,-57,27,29,119,117,50,10,-1,-91
86,83,-3,-84,44,40,99,99,42,13,-4,-90
92,70,-22,-81,57,23,86,85,13,15,-5,-90
107,68,-39,-88,73,14,78,71,5,20,-6,-89
98,57,-42,-77,70,7,79,73,2,18,-11,-91
98,51,-47,-74,72,2,73,58,-12,7,-9,-89
90,42,-48,-66,69,-3,73,65,-7,6,-12,-90
40,-15,-55,-12,48,-35,69,44,-28,-9,-23,-96
23,-29,-53,3,38,-41,73,57,-28,-7,-30,-116
14,-35,-49,11,31,-42,78,45,-61,-25,-41,-123
-18,-59,-41,39,12,-50,69,49,-37,-21,-47,-130
-32,-69,-37,51,3,-52,89,76,-15,-40,-57,-148
-36,-56,-20,47,-8,-38,151,173,44,-19,-63,-138
32,71,39,-52,-4,54,425,809,651,404,105,-64
470,547,77,-509,196,312,460,1251,1509,1341,737,361
819,926,107,-873,356,516,-124,735,1535,1671,1148,751
441,507,66,-475,188,286,-585,-507,-18,355,570,487
75,56,-18,-65,46,19,-529,-1010,-1022,-602,-26,105
-38,-135,-98,87,30,-116,-298,-480,-594,-432,-146,-87
-130,-274,-143,202,7,-208,-122,-194,-356,-337,-181,-188
-57,-164,-107,111,25,-136,-18,-29,-190,-207,-139,-171
-16,-116,-100,66,43,-108,16,42,-113,-145,-127,-168
-8,-104,-96,56,44,-99,20,48,-104,-123,-115,-161
-6,-91,-86,49,41,-89,20,71,-72,-98,-102,-153
-17,-99,-82,58,33,-90,19,51,-96,-110,-104,-150
-11,-85,-74,48,31,-79,20,67,-77,-94,-96,-144
-19,-90,-71,54,27,-80,20,55,-91,-102,-96,-144
-10,-80,-70,45,30,-74,15,63,-82,-92,-89,-139
-8,-78,-70,43,31,-74,1,59,-84,-94,-88,-137
-1,-70,-69,36,34,-69,-9,60,-76,-84,-81,-135
26,-65,-91,20,59,-78,-21,61,-71,-77,-74,-129
36,-60,-97,12,67,-78,-36,59,-67,-72,-68,-116
50,-44,-94,-3,72,-68,-58,61,-59,-57,-61,-103
76,-20,-96,-27,86,-58,-92,63,-56,-40,-43,-83
101,7,-94,-53,98,-44,-118,66,-48,-17,-14,-63
118,23,-95,-70,106,-36,-122,64,-41,-3,11,-48
119,32,-87,-75,103,-28,-117,65,-32,5,17,-38
126,43,-83,-84,104,-19,-110,65,-23,13,11,-40
125,48,-77,-86,101,-15,-105,66,-22,23,9,-40
112,41,-71,-76,91,-15,-101,74,-25,32,4,-39
101,34,-67,-67,83,-16,-76,82,-25,31,1,-51
88,28,-61,-58,74,-16,-35,85,-25,24,-2,-69
75,20,-55,-48,65,-17,5,85,-25,21,-13,-83
66,16,-50,-40,57,-17,32,85,-25,16,-22,-94
47,3,-44,-25,46,-20,45,85,-31,12,-38,-99
22,-17,-38,-2,30,-27,55,85,-38,7,-51,-102
13,-21,-34,4,23,-27,55,84,-43,5,-49,-108
10,-19,-29,5,20,-24,55,80,-45,5,-51,-109
1,-24,-26,12,14,-25,55,80,-48,1,-55,-105
-2,-24,-23,13,11,-23,55,78,-51,-1,-54,-105
-8,-26,-18,17,6,-22,54,74,-55,1,-58,-105
3,-12,-15,5,9,-13,51,75,-55,4,-60,-105
12,1,-11,-7,12,-5,48,78,-51,9,-60,-105
3,-7,-10,2,7,-8,45,83,-48,11,-63,-101
-6,-16,-10,11,2,-12,43,86,-45,16,-66,-100
-18,-24,-5,21,-6,-14,39,89,-42,19,-64,-100
-11,-15,-5,14,-3,-10,42,94,-40,23,-60,-100
8,2,-6,-4,7,-2,46,95,-38,31,-55,-100
23,9,-14,-16,19,-2,44,95,-32,38,-51,-99
37,11,-26,-23,31,-7,49,95,-27,43,-46,-95
34,10,-25,-22,29,-7,50,95,-24,41,-41,-95
21,10,-11,-15,16,0,50,95,-19,39,-40,-95
12,10,-2,-11,7,4,55,95,-14,40,-40,-95
15,10,-5,-12,10,2,54,98,-11,39,-40,-95
27,17,-10,-22,18,3,57,100,-9,39,-40,-92
36,24,-12,-30,24,6,60,100,-6,42,-40,-90
51,34,-17,-42,34,8,61,106,-2,45,-40,-90
60,39,-20,-50,40,10,60,105,0,49,-35,-90
65,50,-15,-58,40,18,61,106,2,50,-30,-90
73,73,0,-73,36,36,71,118,6,45,-25,-90
69,76,7,-73,30,41,62,106,7,44,-22,-90
76,75,-2,-75,38,36,55,98,12,46,-15,-90
90,75,-15,-82,52,29,17,80,0,43,-18,-90
100,76,-24,-88,61,26,-21,68,-1,48,-26,-89
98,72,-26,-84,61,23,-15,48,-14,40,-33,-91
93,68,-25,-80,59,22,-10,41,-17,36,-39,-89
71,46,-25,-58,48,10,0,37,-27,26,-48,-91
51,25,-25,-38,38,0,1,20,-31,21,-54,-108
31,8,-23,-19,27,-7,15,32,-16,14,-60,-123
24,5,-19,-14,21,-7,-6,-7,-37,1,-68,-125
-2,-12,-10,7,4,-11,14,46,5,15,-68,-127
-54,-64,-10,59,-22,-36,51,40,-30,-17,-96,-157
6,15,9,-11,-1,12,215,421,296,184,-53,-158
257,323,66,-291,95,194,451,1107,1131,929,397,131
711,851,140,-782,285,496,94,1026,1692,1738,1054,634
699,794,94,-747,302,444,-521,-11,769,1096,894,652
235,228,-7,-232,121,110,-667,-1033,-796,-300,162,246
24,-29,-53,3,38,-41,-479,-816,-833,-497,-126,-25
-82,-228,-146,156,32,-187,-257,-338,-414,-296,-184,-160
-46,-193,-147,119,51,-169,-121,-175,-266,-197,-182,-172
33,-58,-91,13,62,-74,-56,-26,-103,-71,-133,-157
-7,-80,-73,44,33,-76,-33,-54,-108,-68,-125,-159
-7,-63,-56,35,25,-59,-36,-30,-73,-46,-107,-147
-9,-69,-60,39,26,-64,-39,-35,-91,-61,-109,-147
-10,-64,-53,37,22,-58,-42,-28,-80,-56,-99,-139
-12,-64,-52,38,21,-58,-44,-23,-79,-61,-95,-139
-12,-61,-49,36,19,-55,-47,-34,-83,-60,-90,-135
-3,-56,-53,30,26,-55,-52,-26,-71,-54,-84,-132
3,-56,-59,27,32,-57,-58,-35,-72,-56,-79,-131
12,-50,-62,20,37,-56,-63,-33,-61,-54,-73,-127
18,-50,-68,17,43,-59,-71,-36,-59,-55,-68,-118
25,-46,-71,10,48,-58,-99,-31,-51,-55,-63,-107
45,-33,-78,-5,62,-55,-122,-30,-48,-49,-54,-86
67,-9,-77,-29,72,-43,-152,-31,-39,-27,-29,-54
101,26,-74,-63,87,-23,-170,-30,-32,-9,-1,-29
134,59,-76,-96,105,-8,-163,-31,-23,4,21,-24
133,59,-75,-95,104,-8,-161,-28,-16,18,33,-26
125,50,-75,-87,100,-12,-157,-24,-19,38,28,-28
119,45,-74,-82,96,-14,-154,-18,-20,39,17,-30
103,37,-66,-69,84,-15,-137,-15,-20,27,8,-32
90,32,-58,-61,74,-12,-103,-10,-20,20,-4,-43
73,22,-50,-47,61,-14,-67,-5,-20,10,-20,-52
48,6,-42,-27,45,-18,-41,-8,-22,1,-38,-63
27,-10,-37,-8,32,-23,-25,-13,-25,-12,-50,-77
15,-19,-34,3,24,-26,-17,-15,-28,-22,-52,-85
6,-26,-31,10,19,-28,-13,-20,-31,-30,-54,-85
-5,-33,-28,19,12,-30,-8,-23,-34,-38,-58,-85
-7,-32,-25,20,9,-28,-4,-27,-35,-46,-60,-85
-3,-27,-24,15,10,-25,1,-30,-35,-48,-63,-84
-6,-24,-19,15,7,-21,4,-30,-35,-44,-65,-88
-6,-20,-14,14,4,-17,7,-30,-35,-45,-65,-90
-6,-16,-10,11,2,-13,10,-30,-35,-45,-65,-90
-9,-14,-5,12,-1,-9,13,-30,-35,-45,-65,-93
-6,-8,-1,7,-2,-4,15,-25,-33,-45,-64,-96
-2,-1,1,1,-1,0,15,-17,-28,-40,-60,-94
2,6,4,-4,-2,5,15,-9,-25,-40,-60,-91
6,13,6,-10,0,9,15,-1,-22,-40,-59,-84
0,10,10,-5,-6,10,15,6,-17,-40,-55,-81
-14,-5,9,10,-12,2,15,10,-14,-40,-55,-76
-5,-12,-8,9,2,-10,15,9,-11,-38,-57,-71
2,-10,-12,4,7,-11,20,13,-8,-34,-60,-72
-1,-10,-9,5,4,-10,20,15,-6,-32,-60,-75
1,-10,-10,4,5,-10,21,15,-2,-29,-60,-78
-1,-11,-10,6,4,-11,26,18,-1,-26,-60,-81
2,-8,-10,3,6,-9,24,22,2,-25,-60,-85
-13,-24,-11,18,-1,-17,28,23,11,-18,-55,-85
6,-21,-27,8,17,-24,36,28,20,-8,-48,-78
54,17,-36,-35,45,-9,44,29,27,-1,-44,-70
68,33,-34,-50,51,0,55,33,35,9,-37,-62
79,44,-35,-61,57,4,68,44,27,10,-33,-54
83,48,-35,-65,59,6,77,45,18,10,-27,-50
72,37,-34,-54,53,1,47,27,11,13,-25,-50
71,34,-37,-52,54,-1,-10,-9,-2,16,-25,-50
64,25,-39,-45,52,-7,-29,-14,-4,15,-21,-50
60,19,-41,-39,50,-11,-28,-27,-17,9,-20,-50
54,15,-39,-34,46,-11,-17,-21,-11,7,-20,-50
25,-16,-41,-4,33,-29,-14,-40,-29,-3,-32,-58
11,-28,-39,8,25,-33,-6,-33,-18,1,-52,-66
-17,-60,-44,39,14,-52,3,-42,-36,-14,-68,-76
-32,-79,-47,56,7,-62,3,-46,-29,-6,-75,-78
-42,-83,-41,63,0,-62,39,-14,-15,-10,-82,-93
-33,-83,-50,58,9,-66,94,76,48,25,-78,-130
27,52,25,-40,1,39,359,693,643,411,78,-45
424,506,81,-465,171,293,403,1141,1479,1313,679,387
821,905,84,-863,368,494,-170,626,1520,1672,1105,773
468,520,52,-495,208,286,-624,-592,16,405,564,546
67,30,-38,-48,52,-4,-591,-1115,-1008,-561,-32,146
-46,-148,-101,98,28,-124,-356,-601,-598,-406,-163,-50
-130,-261,-132,196,1,-196,-165,-302,-339,-291,-207,-132
-74,-170,-96,122,11,-133,-70,-147,-171,-157,-162,-122
-40,-123,-83,82,21,-103,-27,-75,-96,-101,-129,-125
-41,-123,-82,82,21,-102,-20,-78,-107,-95,-116,-126
-46,-115,-70,81,12,-92,-20,-54,-80,-83,-113,-124
-58,-126,-68,92,5,-96,-20,-74,-95,-97,-118,-124
-62,-121,-59,92,-1,-90,-20,-59,-72,-84,-112,-114
-63,-128,-66,96,2,-97,-20,-69,-80,-95,-118,-110
-56,-120,-64,89,5,-92,-25,-63,-68,-84,-111,-102
-49,-115,-66,82,9,-91,-35,-66,-67,-76,-107,-96
-36,-106,-70,71,17,-88,-45,-65,-64,-62,-99,-90
-27,-98,-71,62,22,-84,-55,-64,-58,-52,-93,-83
-24,-91,-68,58,22,-79,-71,-66,-57,-43,-86,-73
14,-72,-86,29,50,-79,-92,-64,-51,-29,-69,-61
55,-47,-102,-4,79,-74,-115,-69,-39,-7,-45,-44
60,-35,-94,-12,77,-64,-143,-70,-29,17,-18,-23
71,-23,-93,-24,82,-58,-159,-70,-24,38,-9,-4
76,-13,-88,-31,82,-50,-155,-70,-16,52,-11,0
82,-3,-85,-39,84,-44,-147,-70,-9,49,-9,-1
90,9,-81,-49,85,-36,-141,-69,-2,45,-10,4
87,12,-74,-49,80,-31,-133,-63,-2,42,-9,5
79,9,-70,-44,74,-30,-101,-56,-8,37,-13,5
66,1,-64,-33,65,-31,-60,-49,-12,34,-25,-13
61,3,-58,-32,60,-27,-29,-42,-16,30,-37,-38
29,-27,-56,-1,43,-41,-15,-36,-21,25,-47,-52
10,-50,-60,20,35,-55,-9,-39,-26,21,-55,-60
14,-47,-60,16,37,-53,0,-40,-29,16,-63,-60
-12,-72,-60,42,24,-65,7,-40,-33,11,-65,-60
-17,-77,-60,47,22,-68,14,-45,-37,12,-65,-60
-13,-73,-60,43,24,-66,15,-45,-40,16,-65,-60
-16,-72,-56,44,20,-64,15,-44,-45,18,-65,-60
-19,-69,-50,45,15,-59,20,-40,-43,21,-65,-60
-24,-69,-45,47,11,-57,20,-40,-39,24,-60,-60
-25,-65,-40,45,8,-52,21,-38,-40,26,-56,-60
-30,-63,-33,47,2,-48,26,-34,-36,29,-53,-60
-28,-60,-31,44,2,-45,31,-36,-35,32,-50,-59
-22,-57,-35,40,7,-46,35,-31,-35,36,-45,-55
-19,-54,-35,37,8,-45,40,-25,-30,39,-47,-55
-16,-51,-35,34,10,-43,45,-20,-30,43,-50,-55
5,-30,-35,13,20,-33,49,-15,-29,48,-50,-55
-9,-44,-35,27,13,-39,50,-8,-25,55,-54,-55
-45,-77,-31,61,-7,-54,50,-6,-25,59,-55,-55
-45,-74,-29,60,-7,-51,50,-10,-23,56,-54,-55
-42,-72,-30,57,-6,-51,50,-10,-20,53,-50,-55
-40,-69,-30,54,-5,-50,51,-11,-18,50,-50,-55
-36,-66,-30,51,-2,-47,55,-9,-14,47,-49,-55
-35,-65,-30,50,-2,-47,56,-11,-11,45,-45,-55
-30,-60,-30,45,0,-45,54,-1,-9,47,-46,-50
-22,-52,-30,37,4,-41,68,16,6,62,-42,-45
-16,-46,-30,31,7,-38,82,40,29,78,-37,-40
-9,-39,-30,24,11,-34,70,45,41,90,-32,-36
-2,-32,-30,17,14,-30,62,40,35,95,-29,-31
3,-31,-34,14,18,-32,54,33,16,84,-24,-32
7,-29,-36,11,22,-32,18,-9,11,80,-20,-37
7,-32,-39,13,23,-35,6,-31,5,70,-26,-42
15,-28,-42,7,29,-35,17,-33,-6,64,-31,-46
-15,-59,-43,38,14,-51,34,-24,-3,59,-38,-51
-31,-79,-49,55,9,-64,46,-38,-24,47,-42,-55
-30,-77,-47,53,9,-62,53,-21,-12,52,-48,-64
-72,-127,-54,100,-9,-90,48,-38,-51,32,-69,-81
-72,-121,-50,97,-11,-85,50,-7,-26,46,-83,-86
-57,-119,-62,89,2,-90,75,9,-22,16,-85,-93
-73,-99,-26,86,-24,-62,155,162,108,95,-77,-106
36,75,40,-56,-2,57,424,853,803,609,156,26
513,553,41,-533,236,297,371,1191,1612,1546,829,506
783,846,64,-815,359,455,-228,475,1353,1587,1087,797
343,379,36,-362,153,207,-609,-778,-302,158,420,477
-36,-48,-13,42,-11,-30,-512,-1066,-1006,-533,-85,123
-101,-211,-110,157,5,-160,-297,-512,-525,-335,-173,-52
-121,-296,-175,209,27,-235,-141,-273,-333,-256,-210,-129
-78,-193,-115,136,19,-154,-55,-118,-154,-116,-160,-109
-68,-159,-91,114,11,-125,-22,-92,-107,-88,-136,-111
-75,-146,-71,111,-1,-108,-8,-95,-95,-67,-124,-102
-73,-141,-68,107,-2,-104,-15,-69,-77,-68,-124,-97
-70,-143,-74,107,2,-109,-20,-82,-89,-74,-127,-94
-69,-134,-65,102,-2,-99,-25,-69,-69,-65,-123,-87
-56,-138,-82,97,13,-109,-32,-79,-77,-75,-127,-86
-31,-131,-99,81,34,-115,-36,-72,-63,-62,-121,-81
-26,-127,-102,76,38,-114,-41,-77,-66,-63,-115,-78
-21,-118,-97,69,39,-108,-39,-73,-59,-53,-107,-74
-18,-113,-95,66,39,-104,-47,-68,-57,-49,-101,-68
-9,-105,-96,57,44,-100,-70,-66,-53,-43,-89,-58
-12,-101,-90,57,39,-96,-91,-61,-49,-29,-64,-44
28,-75,-103,24,66,-89,-117,-58,-44,-8,-36,-19
76,-43,-119,-16,98,-80,-132,-54,-35,16,-12,10
70,-40,-110,-15,90,-75,-126,-51,-28,38,5,27
72,-37,-109,-18,91,-73,-124,-50,-18,47,13,23
73,-34,-107,-19,91,-70,-119,-50,-17,42,16,20
70,-31,-100,-19,85,-65,-116,-50,-20,39,22,17
85,-30,-115,-27,100,-72,-109,-50,-20,36,25,12
58,-36,-94,-11,76,-64,-84,-47,-20,31,9,10
13,-42,-55,15,34,-48,-50,-45,-20,29,-12,3
9,-45,-55,18,32,-50,-12,-42,-21,23,-21,-8
-13,-62,-49,38,18,-55,18,-39,-24,16,-27,-17
-40,-81,-41,61,1,-61,30,-36,-27,10,-35,-25
-40,-79,-39,60,0,-59,30,-35,-29,2,-43,-30
-50,-81,-31,66,-10,-56,30,-40,-33,-4,-49,-38
-40,-85,-46,63,4,-65,30,-40,-35,-2,-50,-43
-21,-85,-64,53,22,-74,30,-41,-38,2,-50,-41
-28,-83,-55,55,14,-69,28,-45,-40,3,-50,-40
-32,-79,-47,56,7,-63,24,-45,-40,7,-50,-40
-42,-80,-39,61,-1,-59,25,-43,-40,9,-50,-40
-46,-80,-33,63,-6,-56,22,-39,-40,11,-52,-40
-57,-80,-24,69,-16,-52,19,-40,-40,20,-55,-42
-44,-80,-36,62,-4,-57,22,-40,-35,30,-55,-45
-18,-75,-57,47,20,-67,17,-40,-35,43,-55,-45
-24,-75,-51,50,14,-62,34,-39,-34,47,-55,-45
-26,-75,-49,51,12,-62,53,-36,-30,44,-55,-45
-30,-75,-44,53,8,-60,47,-33,-30,45,-55,-45
-35,-75,-40,55,3,-57,46,-30,-28,45,-55,-40
-35,-73,-38,54,2,-55,42,-27,-24,45,-55,-40
-32,-66,-34,50,1,-50,39,-25,-22,45,-55,-39
-26,-62,-36,44,5,-48,42,-23,-19,45,-56,-35
-25,-56,-31,41,3,-43,46,-17,-17,44,-53,-36
-20,-50,-30,35,5,-40,48,-13,-14,45,-48,-33
-15,-45,-30,30,8,-37,52,-8,-9,45,-43,-28
-14,-39,-25,27,6,-32,54,-4,0,46,-38,-25
-8,-33,-25,21,8,-29,56,1,5,48,-34,-21
-4,-29,-25,17,11,-27,65,7,15,54,-29,-17
1,-23,-24,11,13,-23,66,16,30,60,-26,-14
14,-17,-31,2,23,-23,50,14,22,56,-23,-10
21,-16,-37,-2,29,-26,9,-37,-6,49,-21,-10
21,-13,-34,-3,28,-24,-2,-49,-11,46,-16,-8
18,-18,-36,1,27,-27,1,-51,-30,36,-16,-6
23,-11,-34,-6,29,-23,0,-50,-34,37,-17,-3
-12,-48,-36,30,12,-41,7,-47,-37,23,-33,-12
-37,-74,-37,56,0,-55,1,-57,-33,16,-53,-32
-33,-74,-41,53,4,-57,13,-35,-22,10,-61,-47
-30,-69,-40,49,5,-54,10,-64,-37,-8,-65,-52
-21,-61,-39,41,9,-50,53,-18,0,2,-61,-58
-82,-123,-41,103,-20,-82,78,-28,-33,-32,-101,-86
-57,-55,2,56,-29,-26,252,383,331,192,-41,-69
228,272,43,-250,92,157,482,1068,1168,952,414,211
697,774,78,-736,309,426,109,947,1680,1727,1046,702
654,709,54,-681,300,381,-490,-121,703,1031,868,723
138,135,-2,-137,70,67,-627,-1116,-840,-355,128,294
-62,-126,-64,94,2,-95,-437,-867,-820,-491,-143,33
-107,-276,-169,192,31,-223,-222,-382,-395,-283,-175,-100
-104,-261,-157,182,27,-208,-81,-226,-257,-190,-163,-132
-71,-169,-99,120,14,-134,-34,-100,-105,-75,-134,-110
-78,-162,-84,120,3,-123,-31,-106,-113,-84,-144,-114
-69,-142,-72,106,2,-106,-24,-78,-76,-50,-127,-99
-83,-155,-72,120,-6,-114,-20,-89,-92,-61,-130,-98
-86,-149,-63,118,-11,-106,-13,-79,-79,-45,-119,-91
-98,-157,-59,128,-19,-107,-11,-76,-76,-41,-117,-87
-99,-155,-56,127,-21,-105,-17,-76,-77,-36,-111,-85
-87,-151,-64,119,-11,-107,-25,-67,-66,-29,-106,-80
-72,-145,-73,109,0,-108,-30,-72,-66,-30,-103,-77
-56,-137,-80,97,12,-108,-39,-68,-56,-24,-97,-73
-35,-131,-97,83,31,-114,-42,-71,-54,-24,-94,-65
-26,-124,-98,75,36,-111,-55,-69,-46,-19,-82,-55
-7,-118,-110,63,52,-114,-87,-67,-43,-17,-63,-39
29,-97,-126,34,77,-111,-111,-65,-33,-5,-37,-12
57,-61,-118,2,88,-89,-119,-66,-23,7,-9,18
92,-22,-114,-35,104,-68,-114,-65,-13,15,10,38
94,-14,-108,-40,101,-60,-109,-65,-4,19,20,42
87,-16,-103,-35,95,-59,-102,-63,-5,24,28,40
82,-14,-96,-34,90,-55,-98,-59,-3,23,21,31
65,-16,-81,-24,74,-49,-88,-53,0,12,10,22
55,-13,-68,-21,62,-41,-56,-50,0,4,1,14
35,-23,-59,-6,47,-41,-22,-45,-2,-5,-13,5
16,-37,-54,11,35,-45,7,-40,-13,-14,-29,-5
-12,-61,-49,37,18,-55,28,-44,-21,-21,-45,-15
-40,-82,-43,61,2,-62,40,-45,-30,-26,-50,-25
-40,-78,-37,59,-1,-58,40,-45,-40,-31,-52,-34
-43,-75,-33,59,-5,-54,41,-50,-45,-37,-55,-43
-44,-73,-28,59,-8,-50,45,-50,-45,-43,-58,-49
-44,-69,-25,58,-10,-47,45,-49,-45,-43,-61,-45
-47,-68,-22,58,-12,-45,47,-44,-45,-39,-56,-42
-45,-62,-17,54,-14,-39,51,-41,-45,-37,-55,-40
-43,-58,-14,51,-14,-36,53,-38,-43,-34,-55,-36
-44,-54,-10,49,-16,-31,56,-33,-37,-31,-50,-35
-43,-48,-5,46,-19,-26,59,-30,-32,-29,-50,-32
-44,-45,-1,45,-21,-23,61,-26,-29,-25,-49,-29
-55,-51,4,52,-29,-23,65,-20,-24,-18,-45,-30
-75,-72,3,73,-39,-34,65,-15,-20,-14,-43,-30
-76,-81,-4,79,-36,-42,66,-9,-15,-8,-40,-31
-65,-73,-8,69,-28,-40,70,-4,-10,-2,-37,-28
-56,-70,-14,63,-21,-42,71,1,-5,2,-35,-25
-45,-65,-20,55,-12,-42,67,5,-2,7,-32,-25
-36,-60,-24,49,-6,-42,65,5,4,10,-29,-25
-16,-56,-41,37,13,-48,65,7,7,13,-31,-26
-12,-55,-43,34,16,-49,65,11,10,17,-30,-24
-23,-55,-33,39,5,-44,66,9,13,20,-31,-34
-26,-55,-29,41,2,-42,64,15,16,27,-29,-41
-34,-53,-19,44,-7,-36,79,25,20,36,-25,-31
-4,-21,-17,13,7,-19,89,32,19,38,-25,-23
-3,5,9,-1,-6,7,105,41,33,32,-22,-14
-39,-11,28,25,-34,8,130,28,46,27,-20,-7
6,-4,-10,0,8,-7,115,28,39,24,-20,-3
54,27,-27,-40,41,-1,65,-3,26,17,-24,3
56,33,-23,-44,40,5,34,-43,23,17,-25,8
52,25,-27,-38,40,-1,36,-53,8,6,-25,14
59,36,-23,-47,41,6,33,-49,4,1,-30,8
14,-13,-27,0,21,-20,37,-48,-6,-11,-30,-10
-42,-63,-21,52,-10,-41,31,-56,-19,-17,-31,-24
-25,-46,-21,35,-2,-33,40,-38,-10,-26,-40,-32
-72,-91,-19,82,-26,-55,36,-63,-29,-41,-50,-37
-84,-104,-20,94,-32,-61,48,-12,8,-34,-56,-43
-90,-111,-21,101,-34,-66,78,-18,-8,-73,-72,-68
-109,-65,44,87,-76,-10,257,372,324,135,-23,-65
196,261,65,-229,65,163,504,1073,1160,883,407,213
714,767,53,-741,330,410,149,976,1697,1686,1053,707
688,736,48,-712,320,392,-470,-81,752,1035,893,738
152,181,29,-166,61,105,-614,-1091,-790,-351,167,338
-80,-116,-36,98,-22,-76,-429,-875,-828,-526,-123,57
-128,-276,-149,202,11,-212,-212,-384,-407,-325,-176,-81
-126,-256,-130,191,2,-192,-74,-226,-255,-222,-164,-97
-68,-139,-71,104,2,-104,-14,-92,-105,-112,-121,-80
-86,-147,-60,117,-13,-103,-1,-109,-107,-138,-120,-81
-73,-125,-51,100,-11,-88,0,-86,-73,-113,-99,-68
-70,-127,-57,99,-6,-92,0,-90,-88,-124,-102,-66
-63,-116,-54,90,-4,-85,0,-82,-77,-113,-96,-59
-55,-111,-55,83,0,-83,0,-74,-75,-115,-94,-55
-52,-108,-56,80,2,-82,-1,-74,-77,-117,-91,-51
-51,-103,-52,77,1,-78,-9,-67,-68,-112,-89,-46
-38,-107,-69,73,16,-88,-21,-73,-69,-118,-84,-42
-11,-99,-88,55,38,-93,-29,-68,-61,-112,-74,-37
-22,-101,-79,62,29,-90,-41,-71,-61,-117,-67,-30
-19,-98,-78,59,30,-88,-54,-71,-55,-110,-59,-26
4,-70,-73,33,39,-71,-82,-75,-53,-95,-49,-1
31,-38,-69,4,50,-54,-111,-75,-47,-72,-15,33
80,-17,-97,-31,88,-57,-112,-75,-42,-49,3,47
95,-8,-104,-43,100,-56,-109,-75,-37,-45,15,56
99,6,-93,-52,96,-43,-110,-74,-29,-45,45,53
113,25,-88,-69,101,-31,-103,-71,-25,-45,47,47
86,6,-81,-46,84,-37,-107,-66,-29,-45,33,44
54,-16,-70,-19,62,-43,-97,-62,-30,-45,22,38
36,-21,-57,-7,47,-39,-62,-57,-31,-54,6,35
21,-30,-51,5,36,-40,-29,-53,-35,-69,-6,28
8,-36,-44,14,27,-40,-3,-48,-35,-86,-18,18
-8,-46,-37,27,15,-41,14,-45,-37,-91,-27,10
-17,-48,-31,32,7,-39,27,-45,-41,-89,-35,0
-21,-45,-25,33,3,-35,35,-45,-43,-94,-45,-8
-24,-45,-20,35,-2,-32,36,-45,-46,-95,-53,-10
-25,-45,-20,35,-2,-32,40,-45,-49,-94,-55,-13
-27,-46,-19,36,-4,-32,42,-45,-52,-91,-55,-16
-28,-43,-15,36,-6,-29,45,-45,-55,-88,-55,-19
-50,-66,-15,59,-17,-40,47,-45,-57,-86,-55,-20
-66,-79,-13,73,-27,-46,50,-45,-61,-82,-54,-20
-55,-63,-7,59,-24,-35,53,-45,-58,-80,-51,-20
-55,-57,-2,56,-26,-29,56,-44,-51,-78,-48,-20
-55,-54,1,54,-28,-26,60,-39,-46,-73,-46,-20
-58,-51,7,54,-32,-22,60,-36,-41,-70,-42,-21
-59,-49,10,54,-34,-19,60,-33,-35,-67,-40,-17
-50,-44,5,47,-27,-20,60,-28,-30,-62,-38,-15
-52,-47,5,49,-28,-21,60,-25,-26,-59,-35,-15
-55,-50,5,52,-30,-22,60,-21,-23,-55,-35,-12
-55,-50,5,52,-30,-22,60,-20,-20,-55,-35,-9
-55,-50,5,52,-30,-22,62,-20,-17,-55,-35,-11
-53,-50,3,51,-28,-24,65,-20,-15,-55,-35,-15
-46,-50,-4,48,-21,-27,68,-21,-14,-56,-35,-15
-35,-46,-11,41,-12,-28,71,-18,-9,-53,-35,-16
-20,-36,-17,28,-1,-26,74,-11,-5,-48,-35,-20
-4,-29,-25,17,11,-27,76,0,-1,-45,-35,-20
-8,-21,-13,15,3,-17,81,5,3,-42,-35,-18
-12,-13,-2,13,-5,-7,91,21,6,-37,-33,-13
-30,-9,21,19,-26,6,94,32,12,-35,-27,-10
-43,2,45,20,-44,23,97,22,18,-40,-22,-7
-10,-10,0,10,-4,-5,60,-12,-3,-47,-19,-2
39,0,-38,-19,38,-19,17,-44,-18,-51,-13,0
62,36,-27,-49,44,4,25,-55,-22,-58,-11,-6
49,36,-13,-42,30,11,28,-75,-35,-64,-16,-12
12,8,-5,-10,8,1,36,-56,-32,-67,-25,-19
-21,-26,-5,24,-7,-16,40,-68,-55,-79,-29,-26
-35,-39,-5,38,-15,-22,46,-42,-37,-80,-43,-32
-52,-57,-5,55,-23,-31,54,-58,-50,-109,-62,-39
-46,-51,-5,49,-20,-28,54,-32,-22,-102,-57,-38
-43,-43,0,43,-21,-21,75,-4,-32,-127,-73,-49
-62,-31,30,46,-46,-1,157,117,77,-54,-85,-68
38,115,77,-77,-19,95,430,806,759,446,147,55
475,589,114,-532,180,351,383,1149,1555,1376,814,513
763,863,100,-813,331,481,-224,455,1347,1486,1104,809
371,426,55,-399,158,241,-608,-779,-269,110,459,512
-13,18,32,-3,-23,25,-519,-1104,-1020,-634,-65,156
-126,-175,-50,151,-38,-112,-292,-536,-534,-435,-151,-20
-158,-246,-88,202,-34,-167,-115,-281,-326,-326,-181,-94
-83,-133,-49,108,-17,-91,-37,-141,-152,-201,-139,-78
-73,-101,-28,87,-22,-65,-15,-99,-105,-201,-133,-80
-74,-91,-17,82,-29,-53,-1,-94,-97,-193,-123,-74
-55,-77,-22,66,-17,-49,2,-77,-78,-184,-110,-70
-50,-70,-19,60,-15,-44,-1,-86,-93,-186,-107,-69
-75,-95,-20,85,-27,-57,0,-69,-71,-171,-99,-62
-86,-106,-20,96,-32,-63,0,-75,-82,-175,-101,-61
-71,-91,-19,81,-26,-55,1,-64,-68,-161,-93,-56
-72,-92,-21,82,-25,-56,-2,-66,-72,-163,-92,-53
-63,-82,-19,72,-22,-50,-12,-60,-69,-153,-87,-49
-58,-79,-21,68,-18,-50,-25,-58,-66,-149,-81,-41
-57,-76,-19,67,-19,-47,-33,-55,-65,-144,-75,-28
-30,-60,-30,45,1,-45,-59,-56,-64,-132,-56,-14
17,-23,-40,3,29,-31,-94,-61,-60,-118,-24,12
64,9,-55,-36,60,-23,-111,-60,-52,-98,9,32
102,28,-73,-65,87,-22,-120,-63,-47,-88,29,44
102,37,-66,-69,84,-14,-121,-65,-39,-83,32,59
94,39,-55,-66,74,-8,-119,-65,-32,-77,24,58
78,33,-45,-55,61,-5,-122,-61,-32,-71,18,50
66,25,-40,-45,53,-7,-112,-55,-36,-66,10,45
59,20,-39,-39,49,-9,-78,-50,-38,-68,2,37
55,12,-42,-33,48,-15,-39,-45,-41,-74,-4,32
27,6,-20,-16,23,-7,-6,-38,-44,-77,-12,25
-25,1,26,12,-26,13,19,-36,-45,-82,-19,15
-31,0,31,15,-31,15,29,-40,-50,-86,-26,7
-25,0,25,12,-25,12,32,-40,-58,-91,-34,-2
-23,0,24,11,-24,12,34,-42,-63,-96,-41,-11
-18,0,18,9,-18,9,38,-46,-65,-100,-45,-15
-14,1,15,6,-15,8,40,-45,-65,-96,-45,-15
-15,5,21,5,-18,13,42,-42,-65,-94,-45,-17
-29,5,34,12,-32,19,45,-36,-65,-95,-45,-20
-40,5,45,17,-43,25,45,-32,-65,-90,-45,-20
-45,5,50,20,-48,27,45,-27,-60,-90,-45,-17
-45,5,50,20,-48,27,45,-23,-55,-89,-40,-14
-41,9,50,16,-46,29,46,-18,-51,-84,-40,-15
-31,19,50,6,-41,34,49,-14,-46,-79,-39,-15
-26,24,50,1,-38,37,52,-11,-41,-74,-35,-15
-31,15,47,8,-39,31,55,-8,-37,-70,-35,-14
-38,5,42,16,-40,23,58,-3,-35,-65,-33,-10
-44,-5,39,25,-42,17,60,0,-32,-62,-29,-10
-43,-7,36,25,-39,14,62,-4,-29,-59,-30,-10
-31,-1,31,16,-31,15,65,-5,-26,-56,-30,-10
-28,3,31,12,-30,17,65,-5,-24,-53,-30,-10
-28,7,35,10,-32,21,65,-6,-22,-51,-30,-6
-22,13,35,4,-28,23,66,-5,-18,-49,-25,0
-22,16,37,3,-30,26,64,-4,-15,-40,-25,5
-17,23,40,-3,-29,32,71,11,-12,-31,-24,11
-12,28,40,-8,-26,34,72,22,-10,-23,-20,17
-3,33,36,-15,-20,35,78,36,-6,-15,-20,20
19,48,29,-34,-5,38,99,45,1,-16,-18,20
27,49,22,-38,2,35,85,33,15,-13,-14,20
23,39,16,-31,3,27,32,14,-6,-12,-12,20
37,46,9,-42,14,27,-5,-2,-30,-8,-8,20
41,47,6,-45,18,26,-1,-18,-39,-13,-6,20
18,28,10,-23,3,19,5,-24,-42,-23,-4,17
-1,9,10,-4,-5,9,14,-17,-43,-39,-14,9
-15,-3,12,9,-13,4,17,-37,-56,-52,-27,6
-31,-15,16,22,-23,1,28,-16,-33,-53,-35,-2
-41,-27,14,33,-27,-6,29,-46,-50,-74,-52,-6
-39,-27,12,33,-25,-7,46,-3,-10,-58,-43,-12
-55,-53,2,54,-28,-25,65,5,-42,-94,-72,-52
-63,-22,41,42,-52,9,189,253,174,30,-66,-54
122,211,89,-167,16,150,461,983,953,657,282,151
627,726,99,-677,264,412,264,1115,1649,1555,962,638
764,853,89,-809,338,471,-362,206,1046,1269,1027,808
276,328,52,-302,112,189,-635,-956,-604,-178,303,439
-35,-32,3,33,-19,-14,-476,-975,-953,-609,-93,126
-123,-204,-81,164,-21,-142,-242,-423,-475,-378,-163,-36
-138,-241,-103,190,-18,-171,-99,-240,-315,-293,-174,-83
-80,-145,-65,113,-7,-105,-35,-81,-155,-158,-116,-59
-90,-133,-43,112,-23,-88,-9,-81,-138,-149,-126,-63
-74,-105,-32,90,-21,-68,-3,-76,-109,-129,-112,-50
-51,-88,-37,70,-7,-62,-5,-68,-111,-137,-110,-47
-45,-79,-34,63,-6,-56,-6,-72,-110,-136,-104,-41
-44,-79,-35,62,-4,-57,-11,-60,-99,-133,-97,-40
-46,-81,-35,64,-5,-58,-9,-74,-105,-138,-95,-40
-41,-78,-38,60,-1,-58,-13,-66,-92,-129,-87,-34
-40,-82,-42,61,1,-62,-21,-72,-93,-131,-86,-36
-35,-73,-38,54,2,-56,-28,-69,-83,-125,-79,-34
-20,-62,-42,41,11,-52,-41,-71,-80,-124,-77,-25
-10,-48,-38,29,14,-43,-70,-68,-73,-120,-64,-15
16,-28,-43,6,30,-35,-88,-64,-69,-118,-41,2
56,-7,-63,-24,60,-35,-100,-66,-63,-98,-15,34
72,11,-61,-41,66,-25,-134,-61,-58,-77,8,62
87,33,-54,-60,71,-11,-141,-60,-53,-64,24,72
92,42,-50,-66,71,-4,-134,-60,-46,-49,39,69
82,39,-43,-61,63,-2,-127,-54,-41,-45,41,66
79,41,-39,-60,59,1,-121,-49,-36,-42,30,63
65,40,-25,-52,45,7,-113,-44,-35,-39,23,58
52,40,-11,-46,31,14,-82,-38,-35,-37,13,56
39,39,-1,-39,20,19,-45,-32,-35,-34,1,48
23,28,5,-26,9,16,-14,-32,-35,-39,-14,33
6,17,11,-12,-2,13,-2,-35,-36,-45,-25,20
-12,5,17,3,-15,10,0,-35,-41,-50,-32,15
-24,-4,20,14,-22,8,6,-35,-44,-57,-40,13
-25,-5,20,15,-22,7,10,-35,-47,-59,-43,10
-24,-4,20,14,-22,8,15,-34,-52,-63,-40,7
-19,0,20,9,-19,10,18,-31,-55,-65,-37,4
-21,0,20,11,-21,10,24,-28,-51,-68,-35,9
-18,2,20,8,-19,11,29,-26,-50,-71,-31,10
-14,6,20,4,-17,12,32,-22,-50,-66,-30,10
-36,4,39,16,-38,21,38,-20,-45,-65,-30,15
-31,13,44,9,-37,28,39,-18,-45,-65,-30,15
-18,17,35,0,-27,26,35,-11,-44,-65,-30,16
-18,14,32,1,-25,23,36,-4,-39,-65,-30,20
-9,15,24,-3,-17,19,33,2,-34,-64,-29,20
-11,10,21,0,-16,16,30,9,-30,-59,-32,20
-16,10,26,3,-21,18,30,15,-25,-54,-35,20
-30,9,39,10,-34,23,34,15,-20,-50,-35,20
-37,5,42,16,-40,23,41,16,-16,-45,-35,16
-33,3,36,15,-35,19,46,20,-15,-41,-35,15
-32,-1,31,16,-32,15,50,19,-15,-36,-35,15
-29,-4,26,16,-27,11,54,22,-11,-30,-32,15
-26,-6,20,16,-22,6,58,26,-10,-22,-24,15
-16,-1,16,8,-16,7,62,29,-9,-16,-18,16
-16,6,22,5,-19,13,66,31,1,-8,-11,22
-22,12,34,5,-28,23,68,44,9,-6,-4,28
-16,22,38,-4,-27,30,84,60,23,-10,0,33
2,35,33,-19,-16,34,96,49,31,-10,0,39
14,44,30,-29,-8,37,73,41,12,-9,0,44
25,51,26,-38,-1,38,22,22,-13,-11,-1,42
32,55,23,-44,4,39,-2,1,-11,-8,1,36
26,44,19,-35,3,31,7,-18,-24,-16,-1,32
13,28,15,-21,-1,21,12,-14,-22,-21,-2,27
-16,-8,8,12,-12,-1,21,-14,-34,-30,-10,23
-23,-19,4,21,-13,-7,23,-20,-35,-40,-12,18
-28,-29,-1,29,-13,-15,35,-5,-22,-60,-18,12
-33,-44,-10,39,-11,-27,35,-30,-34,-63,-24,-1
-33,-34,0,33,-16,-17,55,28,3,-51,-24,-3
-99,-76,23,87,-61,-26,82,39,-21,-71,-76,-35
-89,-4,85,46,-88,41,262,474,391,199,6,-17
243,327,84,-285,79,205,472,1184,1276,1022,520,310
716,817,101,-766,307,459,129,1046,1725,1746,1134,782
601,751,150,-676,225,450,-434,-92,609,898,881,761
78,190,112,-134,-17,151,-570,-1050,-892,-440,128,340
-102,-71,31,87,-67,-20,-387,-761,-801,-531,-129,69
-132,-232,-100,182,-16,-166,-202,-327,-419,-370,-157,-62
-129,-235,-107,182,-11,-171,-98,-182,-284,-263,-149,-86
-93,-136,-42,115,-25,-89,-39,-38,-131,-150,-105,-60
-110,-124,-14,117,-48,-69,-18,-40,-134,-147,-96,-59
-83,-85,-2,84,-40,-43,-13,-16,-87,-109,-85,-47
-72,-88,-16,81,-28,-52,-16,-29,-100,-127,-89,-47
-68,-83,-16,76,-25,-49,-14,-26,-87,-116,-81,-39
-61,-85,-25,73,-18,-55,-15,-30,-87,-121,-82,-34
-57,-86,-29,71,-13,-57,-15,-32,-84,-120,-78,-29
-51,-84,-33,68,-8,-58,-21,-24,-77,-118,-71,-22
-46,-82,-36,65,-5,-59,-34,-26,-77,-112,-63,-16
-36,-70,-35,53,0,-52,-44,-19,-65,-99,-54,-9
-32,-65,-33,49,1,-49,-63,-19,-63,-89,-49,-2
-5,-54,-49,30,22,-52,-82,-15,-53,-69,-33,3
19,-46,-64,14,42,-55,-102,-14,-48,-56,-12,17
30,-33,-63,2,47,-48,-135,-10,-42,-42,19,37
39,-22,-61,-8,51,-41,-151,-6,-37,-30,38,52
48,-8,-56,-19,52,-32,-144,-3,-32,-21,48,74
68,14,-54,-40,61,-20,-136,2,-26,-10,69,76
88,39,-49,-64,68,-5,-128,5,-19,-1,65,70
102,56,-46,-79,74,5,-121,9,-16,0,57,69
85,44,-41,-64,63,1,-98,15,-19,0,52,63
57,30,-27,-43,41,1,-65,20,-20,0,43,61
33,20,-13,-26,23,3,-35,25,-20,0,36,55
15,11,-4,-13,9,3,-13,32,-20,0,29,47
5,6,1,-6,2,3,0,34,-19,-4,22,41
-5,2,6,1,-6,4,12,30,-23,-10,14,33
-15,-3,13,9,-13,5,19,30,-25,-15,7,26
-25,-7,17,16,-21,5,26,28,-25,-21,1,19
-35,-12,23,23,-29,5,33,24,-29,-27,-3,15
-63,-37,25,49,-43,-6,39,25,-31,-30,-6,13
-78,-53,25,65,-52,-14,45,29,-29,-30,-9,10
-75,-46,28,60,-51,-9,49,30,-26,-30,-14,7
-76,-45,31,60,-53,-7,50,30,-21,-30,-14,4
-69,-40,29,55,-49,-5,50,30,-19,-30,-9,9
-62,-36,26,49,-44,-5,50,30,-14,-30,-4,10
-58,-34,24,45,-40,-5,50,31,-11,-27,0,10
-47,-27,19,37,-33,-4,52,35,-7,-22,5,10
-41,-21,19,31,-30,-1,56,35,-5,-19,10,9
-27,-16,12,21,-19,-2,55,33,-5,-15,14,11
-42,-15,27,28,-34,6,55,46,-5,-11,15,15
-69,-15,55,42,-61,20,55,57,-5,-9,15,15
-61,-10,50,35,-55,20,55,54,-6,-1,15,17
-52,-10,42,31,-47,15,59,53,0,9,14,20
-45,-9,36,27,-40,13,60,49,4,20,16,19
-29,-3,27,16,-28,12,64,50,9,29,22,24
-17,4,21,7,-19,12,65,54,13,36,28,30
-27,16,42,6,-35,29,68,56,21,40,33,35
-9,44,52,-18,-31,48,92,80,51,40,39,40
4,50,46,-27,-21,48,107,83,54,39,44,47
7,50,43,-29,-18,46,91,66,42,41,46,49
16,56,40,-36,-13,48,59,50,33,39,45,44
17,52,35,-35,-10,44,19,5,25,41,45,41
56,85,29,-71,13,57,10,-14,21,36,45,37
37,81,44,-59,-3,62,17,-11,9,28,45,34
13,32,19,-23,-3,25,25,8,12,25,45,29
9,-1,-10,-3,9,-5,30,0,-8,12,27,27
-18,-20,-2,19,-7,-11,38,26,16,15,11,16
-21,-34,-13,27,-4,-23,44,13,-3,-5,-1,12
-52,-62,-10,57,-21,-36,54,35,26,8,-5,2
-53,-70,-17,62,-17,-43,86,42,8,-21,-19,-37
-27,-34,-7,31,-10,-20,177,185,134,49,-30,-37
75,139,63,-107,6,101,443,881,862,606,239,112
521,653,131,-587,195,392,401,1224,1681,1607,936,577
749,940,191,-845,279,565,-168,522,1414,1651,1186,857
302,470,168,-386,67,318,-539,-715,-260,182,504,530
-36,37,72,0,-54,54,-452,-1008,-971,-540,-25,158
-92,-146,-54,119,-19,-100,-250,-477,-500,-348,-108,-2
-120,-243,-122,182,1,-182,-103,-250,-314,-272,-136,-70
-60,-150,-90,106,15,-120,-22,-93,-126,-130,-83,-71
-43,-116,-73,79,15,-94,0,-52,-78,-103,-56,-64
-39,-98,-60,68,11,-79,14,-44,-56,-80,-49,-52
-31,-85,-54,59,12,-69,17,-33,-42,-74,-50,-43
-29,-80,-52,55,12,-66,14,-47,-58,-73,-51,-40
-20,-65,-45,43,13,-55,15,-34,-37,-58,-48,-40
-24,-66,-42,45,10,-54,10,-45,-52,-59,-52,-37
-17,-58,-41,38,12,-49,10,-34,-39,-42,-45,-34
-10,-58,-48,35,19,-53,9,-36,-40,-40,-40,-36
-2,-51,-49,27,24,-50,-3,-31,-31,-27,-31,-27
4,-50,-54,24,29,-52,-14,-29,-28,-21,-27,-19
16,-41,-57,12,37,-49,-33,-26,-22,-10,-18,-11
33,-28,-61,-2,47,-44,-61,-24,-16,2,6,0
50,-14,-64,-18,57,-38,-88,-21,-9,23,38,15
92,25,-67,-58,79,-20,-113,-20,8,40,68,51
120,50,-70,-85,95,-10,-121,-21,16,40,83,72
122,50,-72,-85,97,-11,-119,-19,15,40,100,84
126,50,-76,-88,101,-13,-121,-20,15,40,105,90
119,50,-69,-84,94,-9,-117,-17,15,40,97,82
97,50,-47,-73,72,2,-87,-11,15,41,97,81
84,50,-34,-67,59,8,-50,-4,15,36,75,62
72,44,-28,-58,49,8,-18,2,12,30,48,38
60,39,-21,-49,40,9,16,9,6,25,37,28
48,34,-14,-41,31,10,49,15,2,19,29,19
35,28,-7,-31,21,10,66,15,-3,14,20,10
27,22,-5,-24,16,9,65,15,-7,9,10,0
19,17,-2,-18,10,7,65,15,-12,4,6,-5
13,15,1,-14,6,7,65,15,-15,-1,3,-5
11,15,4,-14,3,10,64,15,-15,-5,0,-6
9,15,6,-13,1,10,67,17,-17,-10,-2,-10
5,15,9,-10,-2,11,70,21,-21,-15,-6,-10
2,16,14,-9,-6,14,70,20,-20,-11,-2,-7
-9,7,16,1,-13,12,70,20,-17,-5,1,-5
-22,-1,20,12,-21,9,70,20,-12,1,0,-5
-40,-15,25,27,-32,5,70,20,-9,6,0,-5
-35,-12,23,23,-29,5,74,27,-6,12,0,-5
7,23,16,-15,-5,19,75,36,-1,19,0,-5
22,33,12,-28,5,22,75,45,1,26,4,-1
21,26,6,-24,7,16,75,53,6,33,5,0
27,27,0,-27,13,13,74,55,12,39,5,0
26,21,-5,-23,15,8,77,58,15,44,5,0
32,21,-11,-26,21,5,79,61,20,50,5,0
34,17,-17,-25,25,0,83,64,24,56,7,2
32,11,-21,-21,26,-5,85,66,25,61,12,6
34,7,-27,-21,31,-10,89,71,24,69,15,4
31,-2,-33,-14,32,-17,89,81,27,77,18,9
58,25,-33,-41,45,-4,97,87,46,86,23,10
73,44,-30,-58,51,7,116,98,58,93,26,10
80,51,-30,-66,55,10,113,113,53,89,30,17
104,76,-28,-90,65,24,96,116,46,86,30,20
94,72,-23,-83,58,24,79,86,39,82,31,32
96,68,-28,-81,62,19,75,49,32,79,35,31
92,66,-26,-79,59,19,74,45,27,73,35,49
93,60,-34,-76,64,13,74,45,20,90,35,36
84,58,-26,-71,55,15,68,41,15,128,35,36
65,31,-34,-48,49,-1,72,39,9,137,35,11
29,4,-25,-17,27,-10,75,41,6,134,35,14
