I,II,III,aVR,aVL,aVF,V1,V2,V3,V4,V5,V6
-25,0,26,12,-26,13,60,97,161,37,-10,-10
-22,6,28,8,-25,17,66,111,171,54,-4,-8
-9,14,23,-3,-16,18,73,134,194,65,4,-2
2,22,20,-12,-10,21,77,169,226,75,12,1
13,30,17,-22,-2,23,89,212,256,102,23,6
11,24,12,-18,-1,18,108,258,284,128,31,10
25,35,9,-30,8,22,134,307,321,157,49,17
52,58,5,-55,23,31,159,359,373,197,70,25
53,53,0,-53,26,26,169,401,398,206,76,31
65,60,-5,-62,34,28,188,439,429,223,85,38
84,76,-8,-80,46,34,196,459,445,236,85,42
86,71,-14,-78,50,28,182,444,427,221,78,45
77,64,-13,-70,45,25,178,434,420,209,75,52
64,58,-6,-61,35,26,159,391,372,186,66,48
50,51,1,-50,24,26,109,293,287,151,64,37
34,41,7,-38,13,24,68,190,199,104,52,26
9,24,15,-16,-3,19,43,105,116,59,17,10
-24,-4,19,14,-22,7,30,53,55,23,-4,-6
-40,-24,16,32,-28,-4,19,23,14,-7,-11,-18
-42,-27,15,34,-28,-6,8,5,-8,-21,-24,-28
-40,-25,15,32,-27,-5,9,-10,-27,-29,-41,-37
-40,-25,15,32,-27,-5,12,-25,-36,-37,-51,-40
-37,-21,15,28,-26,-3,14,-39,-40,-48,-50,-43
-34,-20,15,26,-25,-2,18,-42,-48,-47,-54,-46
-35,-20,15,27,-25,-2,21,-39,-52,-45,-56,-49
-30,-15,15,22,-22,0,18,-40,-58,-45,-52,-50
-31,-16,15,23,-22,0,14,-40,-60,-41,-49,-45
-28,-13,15,20,-21,1,15,-40,-64,-39,-45,-40
-25,-10,15,17,-20,2,15,-42,-65,-43,-42,-35
-25,-9,15,17,-20,2,15,-45,-76,-55,-38,-32
-28,-13,14,20,-21,0,14,-48,-81,-60,-34,-25
-48,-32,16,40,-31,-8,11,-50,-79,-63,-46,-28
-51,-36,14,43,-32,-11,8,-55,-88,-68,-61,-35
-50,-34,16,42,-33,-9,5,-58,-90,-70,-60,-37
-45,-36,9,40,-27,-13,2,-55,-91,-70,-60,-40
-14,-35,-20,25,4,-27,0,-49,-88,-70,-60,-44
-16,-36,-20,26,3,-27,-2,-62,-98,-70,-59,-45
-37,-34,3,36,-20,-15,-7,-81,-116,-70,-63,-45
-49,-41,7,45,-28,-17,-10,-79,-115,-80,-65,-45
-50,-46,4,48,-27,-21,-13,-75,-115,-82,-65,-45
-46,-45,1,45,-23,-21,-18,-74,-115,-79,-69,-45
-38,-43,-5,41,-17,-23,-19,-69,-114,-81,-70,-41
-38,-39,-2,39,-18,-20,-16,-71,-117,-78,-70,-40
-58,-40,18,49,-38,-11,-13,-75,-129,-86,-75,-40
-69,-43,26,56,-48,-8,-11,-74,-136,-91,-75,-40
-76,-52,24,63,-50,-13,-7,-83,-134,-90,-76,-40
-79,-54,25,66,-52,-14,-5,-92,-138,-89,-80,-41
-74,-50,25,61,-50,-12,-2,-89,-140,-84,-80,-50
-75,-50,25,62,-50,-12,0,-90,-140,-85,-78,-52
-75,-48,27,61,-51,-10,0,-90,-136,-83,-71,-46
-75,-44,30,59,-52,-6,0,-90,-130,-76,-64,-42
-76,-46,30,61,-53,-7,-1,-85,-125,-70,-58,-37
-65,-35,30,50,-47,-2,2,-71,-119,-63,-51,-33
-41,-11,30,26,-35,9,6,-59,-113,-56,-45,-28
-29,2,31,13,-30,16,37,-34,-81,-44,-40,-25
-30,16,46,7,-38,31,57,-15,-54,-29,-40,-23
-27,16,43,5,-35,29,57,-5,-55,-18,-38,-19
-5,6,11,0,-8,8,68,1,-46,-11,-36,-17
22,0,-22,-11,22,-11,25,-39,-73,-27,-33,-13
8,-37,-45,15,26,-41,-27,-78,-127,-60,-40,-17
-6,-57,-51,32,22,-53,-34,-73,-127,-59,-38,-12
6,-68,-74,31,40,-71,-30,-88,-141,-77,-51,-19
-24,-83,-59,54,18,-71,-21,-91,-160,-83,-60,-35
-68,-87,-19,78,-24,-53,-21,-100,-167,-89,-70,-47
-70,-83,-13,77,-28,-48,-9,-100,-166,-100,-76,-51
-57,-86,-29,71,-13,-57,-15,-98,-166,-97,-86,-64
-61,-87,-26,74,-17,-56,-26,-99,-179,-107,-93,-70
-37,-79,-43,58,3,-61,-24,-83,-155,-86,-75,-62
-52,-97,-45,74,-3,-71,-17,-101,-175,-122,-96,-86
-16,-65,-49,41,17,-57,2,-17,-90,-53,-41,-52
6,-68,-74,31,40,-71,48,79,28,44,-11,-36
381,275,-106,-328,243,85,112,592,809,1010,718,429
1087,690,-397,-888,742,146,-292,573,1359,1994,1604,1039
695,489,-206,-592,451,141,-693,-632,-42,672,850,705
-64,148,212,-42,-138,179,-512,-1000,-1097,-698,-135,137
-85,-83,2,84,-43,-40,-394,-649,-824,-607,-217,-48
-61,-137,-76,99,8,-106,-242,-387,-511,-375,-169,-83
-71,-82,-11,76,-30,-46,-54,-138,-245,-184,-118,-56
-77,-75,2,76,-39,-36,-26,-88,-152,-104,-85,-57
-101,-66,35,83,-68,-15,6,-37,-120,-89,-76,-54
-88,-71,16,79,-52,-27,2,-29,-94,-78,-70,-55
-85,-63,22,74,-53,-20,11,-17,-82,-78,-66,-55
-77,-66,11,71,-43,-27,14,-2,-59,-64,-59,-55
-72,-62,10,67,-40,-26,17,1,-54,-63,-56,-52
-53,-49,4,51,-29,-22,24,15,-37,-48,-46,-44
-38,-38,0,38,-19,-19,24,20,-32,-42,-42,-41
-29,-28,1,29,-15,-14,33,38,-18,-22,-34,-34
-22,-23,-1,22,-10,-12,32,51,-5,-5,-28,-29
-17,-16,1,16,-8,-7,41,67,11,5,-22,-24
-8,-9,-1,9,-4,-5,51,86,30,15,-13,-17
-5,-3,2,3,-3,0,58,100,51,25,-5,-13
-5,2,8,1,-7,5,58,119,67,35,4,-7
-4,7,11,-1,-8,8,70,152,102,56,14,-1
-7,9,17,-1,-12,13,89,197,157,99,26,3
10,29,20,-19,-5,24,93,228,185,113,37,10
33,47,15,-40,9,31,126,262,220,135,48,18
44,52,8,-48,17,30,154,320,274,173,68,26
54,58,5,-56,24,31,158,355,305,185,83,35
63,60,-3,-62,33,28,174,380,331,193,92,38
66,60,-7,-63,36,26,185,412,353,185,90,35
71,55,-16,-63,43,19,177,419,352,176,82,32
90,48,-42,-69,66,3,161,403,344,167,77,30
85,44,-41,-64,63,2,144,361,305,159,68,26
61,37,-24,-49,42,6,111,279,230,141,64,25
46,33,-13,-39,29,10,76,178,151,100,54,19
29,26,-3,-27,16,11,49,99,69,60,25,5
10,15,5,-12,2,10,34,51,18,21,6,-4
-12,2,14,4,-13,8,25,13,-9,-11,-1,-12
-30,-9,20,20,-25,5,16,-22,-41,-33,-10,-21
-45,-20,24,32,-34,2,15,-36,-55,-49,-20,-27
-62,-33,29,47,-45,-2,15,-39,-62,-52,-28,-38
-72,-38,34,54,-53,-2,15,-45,-71,-55,-31,-45
-67,-34,33,51,-50,-1,15,-45,-69,-56,-34,-47
-60,-32,29,46,-44,-1,14,-45,-71,-54,-38,-50
-53,-29,24,41,-39,-2,8,-45,-75,-57,-41,-53
-48,-26,23,37,-35,-1,2,-45,-74,-61,-45,-56
-41,-25,16,33,-28,-4,-3,-47,-78,-60,-45,-51
-48,-30,18,38,-33,-6,-9,-51,-80,-59,-46,-50
-63,-30,33,46,-48,1,-14,-53,-81,-61,-50,-50
-59,-31,28,45,-44,-1,-15,-56,-84,-59,-50,-50
-53,-36,18,44,-35,-8,-15,-59,-88,-63,-53,-50
-46,-34,12,40,-29,-11,-15,-61,-90,-79,-62,-50
-41,-38,4,39,-22,-17,-15,-64,-91,-84,-66,-50
-46,-47,-1,46,-22,-24,-15,-65,-95,-88,-65,-50
-62,-46,15,54,-38,-15,-14,-68,-95,-89,-65,-50
-71,-43,27,56,-49,-8,-10,-70,-101,-85,-65,-50
-64,-41,24,52,-44,-8,-10,-72,-103,-85,-66,-50
-63,-37,26,49,-44,-5,-8,-76,-99,-85,-69,-46
-60,-35,25,47,-42,-5,-4,-74,-101,-85,-72,-44
-59,-34,25,46,-41,-4,-5,-75,-96,-85,-75,-45
-72,-44,29,58,-50,-7,-8,-75,-95,-93,-77,-45
-81,-51,30,66,-56,-10,-12,-75,-95,-96,-81,-45
-80,-50,30,65,-55,-10,-15,-83,-89,-94,-77,-44
-77,-48,30,63,-53,-9,-19,-86,-97,-95,-74,-40
-75,-45,30,60,-52,-6,-19,-85,-106,-95,-75,-40
-74,-45,28,59,-51,-8,-14,-85,-105,-95,-75,-40
-67,-42,25,54,-46,-8,-16,-85,-105,-95,-75,-40
-62,-39,23,50,-42,-8,-12,-84,-105,-95,-75,-40
-60,-41,20,50,-40,-11,-10,-80,-104,-95,-69,-37
-56,-40,17,47,-36,-11,-10,-78,-106,-95,-64,-32
-55,-40,14,47,-35,-12,-6,-75,-105,-96,-59,-30
-58,-39,19,48,-38,-10,0,-71,-106,-94,-53,-26
-49,-23,26,35,-37,1,6,-71,-104,-82,-48,-22
-35,-6,30,20,-32,12,12,-62,-73,-65,-42,-18
-41,-3,38,22,-40,18,38,-43,-58,-64,-40,-15
-36,1,37,17,-36,19,59,-20,-60,-64,-36,-15
-16,4,21,6,-19,12,63,-22,-60,-65,-34,-13
-1,9,9,-4,-5,9,62,-36,-59,-70,-31,-10
8,10,2,-9,3,6,5,-51,-62,-69,-28,-9
13,-8,-21,-2,17,-14,-39,-78,-82,-73,-28,-15
34,-20,-54,-7,45,-37,-39,-85,-85,-74,-21,-21
14,-39,-53,12,34,-45,-42,-93,-93,-88,-36,-31
-9,-50,-42,30,17,-46,-35,-85,-93,-82,-51,-34
-19,-60,-41,40,12,-50,-37,-104,-117,-109,-75,-47
-48,-74,-26,61,-11,-50,-32,-100,-120,-120,-78,-48
-48,-83,-36,65,-6,-59,-39,-98,-119,-119,-83,-57
-55,-79,-24,67,-15,-51,-31,-90,-124,-127,-87,-54
-43,-78,-35,60,-4,-57,-39,-77,-110,-116,-76,-53
-58,-87,-30,73,-14,-58,-29,-89,-137,-142,-88,-69
-20,-69,-48,45,14,-58,14,-9,-53,-73,-53,-44
12,-37,-49,13,31,-43,88,127,122,87,12,-16
484,353,-132,-418,308,110,108,729,1031,1197,839,502
1168,684,-484,-926,826,100,-399,497,1361,1905,1530,993
621,380,-241,-500,431,69,-741,-819,-262,328,599,549
-74,14,88,29,-81,51,-544,-1030,-1140,-804,-236,43
-34,-119,-85,77,26,-102,-413,-633,-736,-562,-229,-57
-69,-118,-50,94,-10,-84,-211,-361,-414,-331,-179,-76
-55,-74,-18,65,-18,-46,-59,-132,-179,-152,-105,-69
-25,-38,-13,32,-6,-25,-21,-93,-118,-106,-76,-66
-29,-25,4,27,-16,-10,11,-46,-83,-85,-68,-59
-25,-28,-3,26,-10,-15,9,-42,-68,-73,-64,-54
-31,-20,11,25,-21,-4,20,-24,-56,-63,-64,-49
-27,-19,8,23,-17,-5,18,-9,-32,-44,-55,-44
-29,-13,16,21,-22,1,21,1,-36,-47,-57,-41
2,-11,-13,5,8,-12,24,20,-26,-33,-46,-37
-7,-6,1,7,-4,-2,47,30,-15,-24,-40,-33
-24,-4,20,13,-21,8,57,46,9,-7,-30,-30
-23,0,24,11,-24,12,53,54,24,2,-22,-26
-32,6,37,13,-35,21,57,68,46,13,-17,-20
-40,-3,37,21,-39,17,53,83,62,22,-10,-15
-34,-2,31,18,-33,14,67,102,81,37,-5,-9
-9,15,24,-3,-17,19,81,123,107,60,0,-4
6,24,18,-15,-6,21,89,160,137,82,11,1
21,32,11,-26,5,21,104,207,182,110,33,7
46,51,5,-49,21,28,119,244,222,131,48,14
50,50,0,-50,25,25,131,291,266,156,50,21
59,54,-5,-56,32,24,155,350,317,185,67,27
89,79,-10,-84,49,35,183,388,356,210,81,34
94,81,-13,-87,54,33,193,422,387,227,84,38
99,80,-19,-89,59,30,193,454,395,230,83,43
98,80,-18,-89,58,31,203,456,390,231,80,44
88,80,-9,-84,49,35,195,430,382,223,79,37
82,79,-3,-80,42,38,148,379,333,191,75,33
61,65,4,-63,28,35,104,295,258,151,75,28
36,51,15,-44,10,33,67,179,169,108,56,21
7,39,31,-23,-12,35,34,100,99,61,27,17
-13,26,39,-7,-26,33,20,47,52,32,9,7
-27,15,42,6,-34,28,20,6,6,13,-2,-9
-48,7,55,20,-52,31,19,-8,-10,-8,-6,-25
-52,3,55,24,-54,29,15,-25,-15,-23,-11,-31
-53,-3,51,28,-52,24,15,-30,-24,-29,-18,-29
-57,-9,49,33,-53,20,15,-32,-30,-36,-22,-33
-59,-14,45,36,-52,15,15,-35,-38,-43,-29,-35
-63,-19,44,41,-53,13,15,-44,-50,-45,-40,-35
-58,-20,37,39,-48,8,15,-52,-56,-49,-40,-31
-52,-20,33,36,-43,6,15,-49,-54,-51,-41,-30
-47,-20,27,33,-37,3,15,-51,-55,-55,-45,-30
-42,-20,22,31,-32,1,9,-50,-55,-55,-45,-26
-35,-20,15,27,-25,-2,2,-50,-55,-50,-47,-24
-43,-20,23,31,-33,2,-4,-54,-56,-50,-50,-27
-58,-20,38,39,-48,9,-11,-57,-54,-48,-53,-29
-54,-20,34,37,-44,7,-18,-62,-62,-45,-56,-38
-48,-20,29,34,-39,4,-18,-68,-71,-44,-59,-46
-52,-28,24,40,-38,-2,-15,-71,-70,-52,-60,-45
-52,-32,21,42,-36,-5,-15,-69,-70,-55,-60,-45
-41,-27,14,33,-27,-6,-15,-72,-70,-59,-60,-45
-48,-25,23,36,-35,-1,-15,-80,-69,-70,-60,-45
-59,-21,38,40,-49,8,-16,-80,-73,-72,-60,-45
-52,-19,33,36,-42,6,-19,-79,-75,-76,-60,-45
-54,-28,26,41,-40,-1,-20,-81,-78,-79,-60,-45
-51,-31,20,40,-35,-6,-20,-79,-81,-83,-60,-45
-42,-30,12,35,-27,-8,-20,-82,-80,-85,-60,-45
-34,-28,6,31,-20,-11,-20,-85,-80,-85,-60,-45
-33,-24,8,28,-20,-8,-18,-85,-80,-85,-60,-41
-41,-25,16,33,-28,-5,-14,-85,-80,-85,-60,-40
-56,-36,20,46,-38,-8,-15,-85,-79,-85,-65,-40
-72,-45,27,58,-49,-9,-15,-85,-82,-80,-65,-40
-73,-43,30,58,-51,-6,-15,-81,-92,-80,-66,-40
-67,-38,30,53,-48,-4,-15,-88,-90,-80,-70,-39
-62,-32,30,47,-46,-1,-10,-89,-90,-80,-70,-35
-56,-26,30,41,-43,1,-2,-83,-89,-81,-68,-33
-52,-21,30,36,-41,4,4,-79,-92,-77,-65,-30
-43,-17,26,30,-34,5,12,-75,-84,-65,-66,-27
-28,-9,19,18,-23,5,17,-56,-54,-52,-52,-25
-19,-6,13,12,-16,3,27,-27,-37,-55,-37,-22
-3,2,5,0,-5,3,37,-18,-29,-54,-34,-19
6,5,0,-5,3,2,36,4,-23,-57,-32,-20
20,12,-7,-16,13,2,34,7,-17,-59,-29,-20
32,21,-11,-26,21,5,-19,-54,-46,-60,-25,-20
12,-18,-30,3,22,-24,-68,-78,-74,-59,-26,-22
17,-50,-66,17,42,-58,-60,-71,-66,-52,-28,-24
6,-54,-60,25,33,-57,-57,-84,-87,-73,-45,-26
-13,-55,-42,35,14,-48,-51,-82,-95,-87,-54,-33
-32,-65,-33,49,0,-49,-49,-111,-122,-121,-76,-58
-48,-61,-13,55,-17,-37,-41,-98,-117,-116,-76,-57
-52,-69,-17,61,-17,-43,-41,-106,-121,-123,-88,-71
-67,-67,1,67,-34,-33,-32,-96,-122,-120,-87,-67
-64,-71,-7,68,-29,-39,-32,-94,-113,-116,-90,-70
-56,-80,-24,68,-16,-51,-26,-100,-133,-127,-103,-75
17,-64,-82,24,50,-73,3,5,-38,-53,-53,-39
47,-22,-69,-12,58,-45,86,177,182,148,60,13
600,402,-198,-501,399,102,44,742,1109,1314,959,581
1195,663,-532,-929,863,65,-497,304,1166,1740,1477,965
503,324,-180,-413,341,72,-731,-956,-492,80,436,449
-123,-3,120,63,-122,59,-497,-995,-1124,-828,-277,0
-63,-141,-78,102,8,-110,-393,-611,-716,-559,-241,-84
-84,-126,-41,105,-21,-83,-178,-321,-386,-312,-171,-69
-62,-75,-12,69,-24,-43,-50,-108,-150,-127,-89,-52
-64,-55,9,59,-36,-23,-29,-71,-116,-102,-79,-55
-71,-43,28,57,-49,-7,2,-14,-65,-65,-64,-46
-69,-46,23,57,-45,-11,-5,-23,-55,-54,-65,-46
-74,-39,36,56,-55,-1,17,-4,-49,-58,-59,-40
-64,-39,26,52,-45,-6,28,0,-36,-49,-53,-38
-65,-32,33,49,-49,1,45,12,-17,-46,-51,-33
-56,-28,28,42,-42,0,49,26,7,-32,-41,-30
-54,-24,31,39,-42,3,52,35,8,-28,-37,-27
-50,-19,31,34,-41,6,58,57,31,-14,-28,-22
-49,-14,35,31,-41,10,59,76,44,-5,-23,-20
-47,-11,36,29,-41,12,62,92,64,10,-17,-13
-42,-7,34,24,-38,13,64,100,82,20,-9,-5
-42,-6,36,24,-38,15,65,129,103,39,-2,3
-35,0,35,17,-35,17,80,153,133,60,3,11
-17,15,32,1,-24,23,98,186,167,82,23,19
6,30,25,-18,-10,28,98,234,209,106,46,27
36,56,20,-46,8,38,115,279,250,136,59,35
40,54,14,-47,13,34,134,327,300,174,73,40
45,54,9,-49,18,31,139,370,336,181,82,40
76,80,4,-78,36,41,166,418,376,209,97,42
95,90,-5,-93,50,42,188,459,415,237,101,47
110,95,-15,-102,62,40,184,480,434,224,93,49
126,100,-26,-113,76,37,187,480,442,216,90,46
120,94,-26,-107,73,33,176,455,409,204,82,39
107,82,-25,-94,65,28,131,387,348,175,78,36
92,69,-23,-80,58,23,96,283,267,140,69,31
57,54,-2,-55,29,26,70,175,180,101,47,27
17,32,15,-25,0,23,35,92,106,58,22,19
-21,4,25,8,-23,14,19,36,42,14,-3,-10
-42,-9,33,25,-37,12,21,-9,4,-24,-15,-29
-43,-14,29,28,-36,8,18,-25,-10,-37,-26,-37
-47,-21,25,33,-36,2,15,-31,-22,-38,-38,-41
-50,-27,23,39,-37,-2,15,-36,-31,-44,-45,-39
-51,-34,18,43,-34,-8,13,-34,-39,-51,-45,-44
-55,-39,16,46,-35,-11,9,-37,-56,-54,-44,-45
-57,-40,16,48,-37,-12,7,-44,-64,-50,-48,-45
-67,-40,27,54,-47,-7,4,-46,-65,-50,-50,-50
-79,-40,40,59,-60,0,1,-42,-66,-51,-50,-50
-75,-41,34,58,-54,-3,-1,-57,-69,-48,-50,-50
-75,-48,27,61,-51,-10,-4,-67,-71,-63,-50,-50
-71,-46,25,58,-48,-10,-5,-64,-68,-70,-49,-50
-61,-37,25,49,-43,-6,-5,-66,-65,-62,-46,-47
-57,-31,25,44,-41,-3,-5,-65,-65,-58,-45,-45
-48,-24,25,36,-36,0,-5,-65,-65,-51,-45,-45
-45,-20,25,32,-35,2,-3,-65,-65,-46,-45,-42
-45,-21,25,32,-35,2,0,-65,-64,-49,-45,-39
-37,-17,20,27,-28,1,0,-65,-70,-60,-47,-41
-28,-15,13,21,-20,-1,4,-65,-79,-70,-50,-44
-23,-15,8,18,-15,-3,6,-65,-81,-74,-53,-47
-23,-21,2,22,-12,-9,4,-67,-79,-76,-56,-50
-37,-35,2,36,-19,-16,-2,-75,-82,-73,-61,-52
-50,-40,10,45,-30,-15,-13,-80,-93,-84,-65,-56
-53,-40,13,46,-33,-13,-20,-83,-96,-92,-65,-52
-62,-40,22,51,-42,-9,-20,-88,-95,-87,-65,-50
-74,-40,34,57,-54,-3,-20,-90,-95,-85,-65,-50
-71,-40,31,55,-51,-4,-20,-90,-96,-82,-65,-50
-64,-40,24,52,-44,-8,-20,-85,-101,-79,-65,-50
-60,-40,20,50,-40,-10,-19,-85,-99,-83,-65,-50
-53,-40,13,46,-33,-13,-15,-84,-103,-97,-65,-60
-51,-40,11,45,-31,-14,-9,-79,-105,-100,-65,-62
-64,-40,23,52,-44,-8,-6,-81,-105,-94,-65,-56
-66,-39,27,52,-47,-6,-1,-77,-101,-93,-66,-54
-55,-31,24,43,-39,-3,3,-69,-89,-87,-62,-49
-44,-23,21,34,-32,-1,8,-63,-81,-86,-55,-46
-33,-14,19,24,-26,2,14,-55,-69,-67,-48,-42
-15,-1,14,7,-14,6,21,-44,-58,-45,-40,-36
-9,9,18,-1,-14,13,43,-25,-45,-46,-36,-29
-7,27,34,-10,-21,30,45,-15,-39,-43,-34,-22
10,22,11,-16,-1,16,46,-7,-42,-47,-37,-16
46,17,-28,-31,37,-5,25,-21,-38,-42,-33,-9
69,25,-44,-47,56,-9,-33,-69,-69,-57,-38,-19
46,-2,-47,-22,47,-24,-51,-68,-72,-67,-32,-24
27,-32,-58,3,43,-45,-47,-82,-81,-74,-38,-36
6,-50,-56,22,31,-53,-41,-99,-110,-103,-56,-42
-28,-63,-35,46,3,-49,-38,-99,-113,-110,-61,-45
-55,-63,-8,59,-23,-35,-32,-111,-127,-120,-80,-57
-53,-63,-10,58,-21,-36,-28,-104,-119,-129,-81,-58
-60,-66,-6,63,-27,-35,-25,-121,-137,-151,-93,-72
-53,-51,3,52,-28,-24,-12,-95,-109,-125,-73,-49
-66,-76,-10,71,-28,-43,-14,-131,-145,-160,-107,-71
-30,-57,-28,44,-1,-42,2,-53,-86,-95,-78,-52
18,-61,-79,22,49,-70,28,32,15,-25,-55,-54
212,157,-55,-184,133,51,130,438,585,646,431,232
977,619,-358,-798,667,130,-153,738,1432,1872,1470,924
959,594,-365,-776,662,114,-653,-348,433,1096,1138,840
72,254,182,-163,-56,217,-567,-1055,-966,-533,10,227
-120,-29,91,74,-105,31,-413,-749,-903,-705,-239,-31
-74,-131,-57,103,-8,-94,-287,-475,-542,-434,-186,-81
-97,-91,6,94,-51,-42,-87,-203,-272,-242,-142,-61
-47,-70,-23,59,-12,-47,-39,-105,-141,-132,-87,-51
-50,-40,9,45,-29,-15,2,-50,-92,-102,-67,-44
-43,-47,-4,44,-19,-25,5,-34,-58,-74,-53,-45
-58,-45,13,51,-35,-16,23,-29,-57,-71,-54,-44
-56,-44,12,50,-34,-16,32,-10,-35,-55,-44,-38
-62,-47,15,54,-38,-16,26,-10,-36,-49,-41,-41
-63,-42,21,53,-41,-10,40,9,-23,-37,-34,-36
-57,-38,19,47,-38,-9,42,11,-16,-31,-30,-33
-55,-28,27,41,-41,0,41,29,-5,-25,-27,-29
-46,-23,22,34,-34,-1,39,45,12,-16,-23,-25
-39,-19,20,29,-30,1,41,56,32,-4,-20,-22
-36,-21,15,28,-26,-2,38,74,61,12,-15,-19
-30,-18,13,24,-22,-2,51,104,83,36,-12,-14
2,11,9,-6,-4,9,66,125,110,63,1,-10
28,32,5,-30,11,18,71,142,134,75,11,-5
22,27,5,-25,8,16,87,182,162,89,27,-1
31,36,5,-34,13,20,96,217,204,114,41,5
46,51,5,-49,20,28,115,264,245,142,48,15
44,49,5,-47,20,26,142,314,295,169,73,26
48,53,5,-51,21,29,159,348,335,200,88,39
56,60,3,-58,27,31,176,387,361,220,91,40
80,60,-20,-70,50,20,185,412,381,221,96,40
99,59,-40,-79,69,10,180,427,388,210,93,45
103,63,-40,-83,71,11,171,431,391,198,88,40
112,72,-40,-92,76,16,150,391,360,187,84,32
107,69,-38,-88,73,15,113,304,291,164,80,25
70,53,-17,-62,44,18,78,214,209,126,63,17
26,25,-1,-26,13,12,53,137,132,82,34,11
0,6,6,-3,-3,6,40,60,65,39,5,3
-12,-1,11,7,-11,4,31,13,15,4,-14,-4
-19,-11,8,15,-13,-1,24,-12,-12,-16,-22,-11
-47,-19,27,33,-37,4,17,-28,-26,-31,-33,-19
-65,-28,36,46,-50,4,9,-30,-38,-41,-40,-26
-57,-30,27,43,-42,-1,2,-30,-45,-44,-40,-33
-55,-30,25,42,-40,-2,3,-30,-45,-50,-40,-35
-53,-33,20,43,-36,-7,6,-30,-49,-48,-40,-35
-51,-36,15,43,-33,-10,5,-30,-50,-45,-40,-39
-46,-34,12,40,-28,-11,5,-37,-52,-45,-40,-41
-37,-31,6,33,-21,-12,5,-45,-56,-41,-40,-39
-28,-26,1,27,-14,-12,4,-45,-54,-40,-40,-35
-21,-23,-2,23,-9,-13,0,-45,-59,-41,-40,-35
-12,-20,-8,16,-2,-14,0,-45,-60,-44,-40,-34
-5,-14,-9,10,3,-11,0,-45,-60,-49,-39,-30
-18,-22,-4,20,-6,-13,0,-45,-66,-53,-43,-30
-31,-32,-1,31,-15,-16,0,-45,-72,-55,-49,-32
-32,-30,2,30,-17,-13,-3,-52,-78,-55,-58,-35
-37,-30,7,33,-22,-11,-6,-67,-80,-55,-62,-35
-41,-31,10,36,-25,-10,-9,-72,-81,-55,-60,-35
-35,-29,7,32,-21,-10,-12,-74,-85,-61,-60,-35
-39,-35,4,37,-21,-15,-14,-77,-85,-68,-57,-35
-48,-42,6,45,-27,-18,-17,-80,-90,-70,-54,-39
-44,-40,4,41,-24,-17,-20,-79,-95,-73,-56,-40
-46,-40,7,43,-27,-16,-20,-74,-98,-76,-59,-39
-60,-40,19,50,-40,-10,-20,-76,-103,-79,-64,-43
-60,-39,21,50,-40,-9,-20,-72,-105,-81,-66,-45
-61,-41,20,51,-40,-10,-20,-70,-105,-84,-65,-45
-62,-44,18,53,-40,-13,-20,-69,-105,-85,-65,-45
-55,-41,14,47,-34,-13,-20,-75,-105,-85,-65,-45
-55,-40,16,47,-35,-11,-19,-83,-105,-85,-64,-45
-51,-40,11,46,-31,-14,-14,-80,-105,-85,-68,-40
-49,-40,9,44,-29,-15,-16,-80,-105,-83,-70,-40
-46,-41,5,43,-26,-17,-12,-80,-105,-79,-70,-39
-43,-37,6,40,-24,-15,-10,-79,-105,-80,-70,-34
-54,-35,19,44,-36,-8,-11,-81,-105,-76,-70,-36
-57,-34,22,45,-39,-6,-5,-75,-102,-75,-70,-33
-56,-37,19,46,-37,-8,4,-67,-90,-76,-63,-26
-35,-14,21,25,-28,3,13,-58,-77,-64,-53,-19
-13,7,19,3,-16,12,21,-43,-63,-50,-42,-13
-16,5,21,5,-19,12,35,-36,-44,-39,-37,-5
-14,4,18,5,-17,11,34,-42,-46,-41,-41,0
-5,-1,4,3,-5,2,32,-38,-43,-40,-40,-6
13,2,-12,-7,12,-5,12,-43,-48,-41,-39,-11
11,-24,-34,7,23,-29,-29,-78,-78,-74,-41,-17
-3,-47,-44,26,21,-45,-36,-79,-82,-73,-38,-21
-20,-54,-34,37,7,-44,-35,-84,-102,-81,-49,-30
-38,-62,-24,50,-7,-43,-35,-93,-108,-90,-56,-30
-48,-68,-20,59,-14,-44,-36,-105,-120,-102,-75,-42
-51,-62,-10,57,-20,-36,-34,-97,-123,-112,-83,-43
-50,-67,-17,59,-16,-42,-32,-101,-124,-115,-93,-45
-62,-65,-3,64,-29,-34,-21,-103,-129,-111,-90,-49
-51,-62,-11,57,-20,-36,-14,-92,-117,-89,-77,-46
-89,-90,-1,90,-43,-45,-7,-106,-135,-108,-91,-58
-35,-73,-37,54,1,-55,5,-10,-42,-53,-55,-36
15,-54,-69,20,42,-61,77,120,112,69,-5,-16
439,340,-99,-389,269,120,124,687,982,1156,808,504
1128,707,-420,-917,774,143,-351,525,1385,1960,1573,1037
640,422,-219,-531,429,101,-711,-745,-155,449,696,609
-79,57,136,11,-108,96,-510,-1006,-1101,-779,-192,73
-77,-124,-47,101,-15,-85,-397,-640,-755,-602,-215,-54
-76,-132,-56,104,-10,-94,-210,-369,-429,-370,-172,-68
-71,-82,-11,77,-29,-47,-42,-135,-178,-175,-107,-55
-77,-60,18,68,-47,-21,-24,-83,-101,-116,-74,-57
-77,-38,39,58,-58,1,10,-35,-72,-111,-63,-49
-64,-43,21,53,-42,-11,7,-37,-53,-88,-56,-46
-64,-32,32,48,-48,0,22,-18,-45,-67,-54,-42
-52,-32,20,41,-36,-5,28,-10,-26,-52,-44,-39
-52,-25,27,38,-39,1,42,-2,-23,-52,-43,-37
-40,-22,18,31,-29,-2,46,12,-7,-40,-35,-33
-40,-19,20,30,-30,0,45,22,-3,-38,-30,-31
-38,-15,23,27,-30,4,51,27,8,-23,-25,-28
-38,-14,24,26,-31,5,49,45,20,-10,-19,-26
-36,-9,26,22,-31,8,57,71,45,3,-14,-22
-33,-10,23,21,-28,7,66,75,72,19,-9,-20
-26,1,27,12,-27,14,63,95,92,32,0,-16
-13,9,22,1,-18,15,69,124,121,45,9,-15
-6,23,29,-9,-17,25,80,158,152,73,21,-11
-5,36,41,-15,-23,38,81,202,186,96,27,0
2,35,32,-19,-15,33,111,253,233,119,42,10
26,52,26,-39,0,39,138,297,276,152,59,20
41,60,19,-51,11,40,159,354,318,176,67,25
59,71,12,-65,23,41,182,402,361,195,84,27
81,89,8,-85,36,48,186,430,389,214,89,30
79,81,2,-80,38,41,199,457,411,224,82,42
75,74,-1,-74,38,36,201,447,409,213,78,43
74,68,-7,-71,41,30,183,433,398,198,72,35
68,58,-9,-63,38,24,146,391,360,176,66,32
59,53,-6,-56,32,23,105,288,276,144,62,24
45,42,-3,-43,24,19,83,190,195,105,49,21
27,26,-1,-26,13,12,50,112,120,61,22,9
7,10,4,-9,1,7,18,47,58,20,4,-5
-22,-1,21,11,-22,10,11,5,14,-8,-7,-18
-35,-9,26,22,-30,8,6,-9,-9,-32,-27,-37
-34,-24,10,29,-22,-7,1,-16,-16,-54,-44,-41
-57,-31,26,44,-42,-3,-6,-33,-30,-56,-45,-39
-74,-30,45,52,-59,7,-9,-41,-40,-59,-45,-40
-63,-30,34,46,-48,2,-6,-40,-42,-62,-45,-40
-50,-26,24,38,-37,0,-3,-41,-46,-65,-45,-40
-47,-24,22,35,-34,-1,0,-39,-49,-64,-45,-40
-51,-26,25,38,-38,0,3,-46,-53,-59,-45,-40
-56,-31,25,43,-41,-3,5,-56,-55,-60,-45,-40
-60,-35,25,47,-42,-5,3,-55,-55,-60,-45,-40
-60,-35,26,47,-42,-5,-2,-55,-55,-60,-45,-40
-59,-35,24,47,-41,-5,-5,-55,-55,-60,-45,-40
-56,-35,21,45,-38,-7,-9,-55,-55,-64,-45,-40
-51,-35,16,43,-33,-9,-13,-59,-62,-65,-45,-40
-49,-35,13,42,-31,-11,-16,-67,-73,-65,-45,-40
-44,-35,10,40,-27,-12,-19,-70,-77,-70,-45,-40
-40,-35,5,37,-22,-15,-20,-72,-82,-70,-45,-40
-42,-34,8,38,-25,-13,-20,-76,-85,-72,-46,-42
-51,-36,15,43,-32,-10,-20,-71,-85,-75,-50,-45
-49,-34,15,41,-31,-9,-19,-70,-85,-77,-52,-48
-44,-29,15,36,-30,-7,-23,-70,-85,-80,-55,-51
-55,-40,15,47,-35,-12,-25,-70,-86,-80,-58,-55
-61,-46,15,53,-37,-16,-25,-70,-84,-80,-60,-60
-63,-48,15,55,-39,-16,-25,-69,-89,-80,-60,-64
-66,-51,15,58,-41,-18,-25,-81,-100,-80,-60,-63
-69,-54,15,61,-42,-20,-24,-86,-100,-80,-60,-59
-70,-55,15,62,-42,-20,-20,-84,-100,-81,-60,-57
-65,-50,15,57,-40,-17,-15,-85,-100,-85,-60,-54
-68,-50,17,59,-43,-16,-11,-85,-99,-85,-59,-51
-69,-49,20,59,-45,-14,-6,-85,-101,-85,-55,-50
-64,-45,20,54,-41,-12,-1,-80,-104,-85,-55,-50
-66,-45,20,56,-42,-12,-2,-80,-105,-85,-55,-50
-62,-43,20,52,-41,-11,-9,-80,-105,-82,-55,-50
-56,-36,21,46,-38,-7,-14,-80,-105,-76,-55,-50
-53,-29,24,41,-39,-2,-20,-80,-106,-72,-51,-50
-48,-23,25,35,-37,1,-25,-77,-101,-67,-46,-48
-40,-16,24,28,-32,4,-13,-64,-90,-64,-42,-41
-37,-6,31,21,-34,12,6,-52,-72,-57,-37,-34
-25,8,33,9,-29,20,28,-39,-56,-37,-33,-27
-5,13,18,-4,-12,15,44,-24,-41,-24,-28,-21
-3,6,9,-2,-6,7,46,-12,-29,-25,-25,-19
4,-1,-5,-1,4,-3,53,8,-31,-26,-25,-21
12,-7,-20,-2,16,-13,21,-25,-47,-24,-33,-19
19,-15,-33,-2,26,-24,-9,-77,-85,-45,-44,-21
31,-32,-63,0,48,-47,-11,-61,-85,-50,-36,-18
10,-58,-69,24,40,-63,-25,-74,-97,-60,-51,-24
-7,-59,-52,33,22,-55,-30,-89,-117,-79,-70,-42
-21,-63,-42,42,11,-53,-41,-99,-120,-85,-83,-62
-53,-67,-14,60,-19,-40,-39,-104,-135,-96,-94,-68
-66,-66,0,66,-33,-33,-45,-94,-130,-90,-91,-68
-84,-76,8,80,-46,-34,-47,-110,-144,-105,-102,-76
-60,-66,-6,63,-26,-36,-48,-85,-122,-81,-84,-68
-76,-88,-12,82,-32,-49,-52,-121,-152,-114,-111,-85
-16,-50,-34,33,9,-42,1,-31,-79,-69,-52,-45
23,-44,-67,11,45,-55,47,61,24,-6,-45,-46
251,188,-63,-219,157,62,125,526,654,750,476,278
1073,640,-433,-856,752,103,-227,734,1429,1874,1465,926
945,532,-413,-738,679,59,-727,-484,279,902,988,752
34,112,78,-73,-22,95,-599,-1117,-1079,-657,-100,129
-85,-108,-24,96,-30,-66,-442,-752,-921,-711,-269,-78
-33,-133,-100,83,34,-116,-299,-462,-521,-412,-200,-80
-81,-90,-8,86,-36,-48,-89,-171,-243,-217,-146,-63
-51,-68,-17,60,-17,-42,-45,-94,-125,-126,-95,-57
-40,-47,-6,44,-17,-26,-6,-51,-88,-107,-78,-51
-20,-42,-22,31,2,-32,-3,-25,-53,-79,-64,-46
-20,-29,-9,25,-5,-19,8,-17,-53,-76,-67,-43
-12,-25,-12,18,1,-18,17,6,-28,-57,-56,-37
-16,-25,-9,20,-3,-17,30,10,-21,-49,-56,-34
-32,-40,-8,36,-12,-23,46,28,-4,-35,-48,-29
-39,-40,-2,40,-18,-21,47,31,5,-23,-40,-24
-30,-25,4,27,-17,-10,54,43,10,-13,-32,-20
-29,-21,9,25,-19,-6,56,58,32,2,-24,-15
-30,-14,15,22,-22,0,60,75,57,13,-18,-11
-33,-13,21,23,-27,4,65,99,73,29,-8,-6
-36,-5,30,21,-33,12,76,124,97,48,0,1
-22,7,30,7,-26,18,79,139,119,63,9,8
-7,23,30,-8,-19,26,88,175,153,87,19,14
-6,24,30,-9,-19,26,109,215,193,112,34,21
0,31,30,-15,-15,30,120,252,232,140,46,26
33,62,29,-48,2,45,136,311,278,163,62,23
48,72,24,-61,12,48,164,363,331,192,81,38
56,75,18,-65,19,46,180,415,379,216,89,60
74,89,15,-82,29,52,190,452,406,230,101,63
81,91,10,-86,35,50,197,484,435,246,107,68
87,92,5,-90,41,48,189,502,445,236,103,70
79,96,17,-88,30,56,182,481,434,227,100,60
69,90,20,-79,24,55,178,438,393,218,97,51
70,85,15,-78,27,50,141,352,319,175,92,42
64,77,13,-71,26,45,91,243,231,129,71,34
49,59,9,-54,20,34,67,140,142,89,42,22
9,31,22,-20,-6,26,52,71,71,36,14,5
-28,-1,27,14,-28,12,42,37,30,-4,-8,-3
-36,-13,23,24,-29,4,33,-6,5,-18,-27,-9
-38,-17,21,27,-29,2,24,-35,-19,-36,-41,-16
-42,-24,18,33,-29,-3,18,-35,-33,-48,-49,-22
-42,-28,14,35,-28,-7,10,-35,-42,-54,-50,-29
-54,-34,20,44,-36,-7,2,-35,-45,-61,-50,-34
-66,-35,31,50,-48,-1,-3,-34,-46,-58,-50,-36
-65,-35,30,50,-47,-2,-1,-37,-44,-56,-50,-40
-66,-40,26,52,-46,-6,1,-40,-50,-52,-50,-39
-65,-41,25,52,-45,-8,3,-41,-61,-50,-50,-35
-59,-38,20,49,-39,-9,7,-45,-60,-50,-50,-35
-55,-35,20,45,-37,-7,1,-45,-60,-50,-50,-35
-59,-35,25,46,-41,-5,1,-49,-60,-61,-50,-35
-61,-36,25,48,-42,-5,-2,-50,-60,-66,-50,-35
-59,-34,25,46,-41,-4,-5,-51,-63,-65,-54,-38
-61,-36,25,48,-43,-6,-5,-64,-69,-64,-61,-43
-61,-36,25,48,-43,-5,-27,-72,-86,-78,-65,-47
-73,-47,25,59,-49,-11,-38,-74,-91,-92,-65,-50
-74,-50,24,61,-49,-12,-34,-76,-89,-89,-65,-50
-47,-26,21,37,-34,-2,-35,-79,-94,-90,-65,-50
-54,-36,18,44,-35,-9,-29,-81,-95,-90,-65,-50
-63,-47,16,55,-39,-16,-31,-83,-95,-89,-65,-50
-55,-44,11,49,-33,-16,-28,-86,-95,-93,-69,-50
-56,-43,12,50,-34,-15,-24,-89,-95,-95,-70,-50
-38,-39,-1,39,-19,-20,-26,-92,-95,-95,-70,-50
-32,-41,-9,37,-11,-24,-25,-95,-95,-95,-69,-50
-36,-36,0,36,-17,-18,-25,-94,-95,-95,-65,-50
-45,-35,10,39,-27,-12,-24,-89,-97,-95,-65,-49
-55,-35,20,45,-37,-7,-20,-91,-100,-95,-65,-45
-38,-35,3,36,-20,-16,-17,-87,-100,-95,-65,-45
-41,-35,5,38,-23,-15,-13,-85,-104,-95,-65,-43
-58,-35,24,46,-41,-5,-10,-85,-106,-95,-69,-39
-64,-47,17,55,-40,-15,-5,-82,-104,-95,-70,-40
-67,-51,16,58,-41,-17,-9,-79,-101,-93,-70,-43
-61,-49,12,55,-36,-18,-21,-80,-94,-86,-70,-46
-54,-47,6,50,-30,-20,-21,-80,-91,-81,-70,-50
-50,-43,6,46,-28,-18,-14,-80,-86,-77,-69,-49
-39,-47,-8,43,-15,-28,-13,-79,-83,-70,-59,-41
-34,-20,14,27,-24,-3,-2,-62,-72,-66,-45,-30
-34,12,45,11,-40,28,33,-45,-42,-47,-36,-20
-24,5,30,9,-27,17,55,-34,-31,-33,-35,-17
-14,0,14,7,-14,7,49,-27,-39,-35,-35,-22
-8,-9,0,9,-4,-4,36,-12,-37,-35,-31,-24
-3,-12,-10,8,4,-11,-2,-30,-53,-45,-28,-26
8,-23,-31,8,20,-27,-36,-84,-88,-59,-33,-31
17,-39,-56,12,37,-47,-34,-82,-92,-72,-34,-29
-4,-50,-46,27,22,-48,-36,-93,-105,-98,-51,-38
-28,-63,-36,46,4,-49,-30,-107,-114,-94,-55,-36
-42,-74,-32,58,-5,-53,-31,-117,-129,-111,-70,-50
-48,-67,-20,58,-14,-43,-28,-111,-125,-116,-80,-58
-39,-70,-31,55,-4,-50,-27,-105,-117,-111,-86,-60
-60,-76,-16,68,-22,-46,-25,-105,-123,-118,-90,-64
-54,-79,-25,67,-14,-52,-20,-86,-99,-96,-74,-62
-65,-81,-16,73,-24,-48,-23,-105,-127,-126,-95,-72
-2,-47,-45,25,22,-46,-6,-22,-57,-68,-42,-44
15,-64,-79,25,47,-72,48,81,61,31,-7,-49
393,291,-102,-342,247,94,99,617,864,1014,732,433
1141,692,-449,-916,795,121,-316,566,1377,1918,1581,1027
725,481,-244,-603,484,118,-685,-672,-31,601,814,683
-57,121,179,-32,-118,150,-504,-1018,-1063,-711,-144,114
-94,-118,-24,106,-35,-70,-396,-659,-791,-628,-230,-58
-84,-145,-61,115,-11,-103,-232,-398,-461,-373,-172,-66
-72,-92,-20,82,-26,-56,-53,-147,-208,-181,-105,-50
-60,-64,-3,62,-28,-33,-15,-86,-114,-108,-71,-45
-65,-37,28,51,-46,-4,24,-39,-73,-83,-62,-31
-64,-51,14,57,-38,-18,18,-33,-53,-63,-57,-31
-75,-39,36,57,-55,-2,29,-14,-42,-59,-55,-30
-63,-41,22,52,-43,-9,29,-1,-25,-45,-47,-26
-65,-40,25,52,-45,-7,32,3,-20,-41,-46,-25
-54,-36,18,45,-36,-9,37,16,-5,-26,-38,-25
-48,-32,16,39,-32,-8,33,16,0,-17,-34,-20
-38,-27,12,32,-25,-7,38,39,17,-5,-27,-13
-34,-24,10,29,-22,-7,40,47,29,0,-22,-9
-35,-18,17,26,-25,0,40,51,45,8,-17,-3
-25,-15,10,20,-17,-2,53,80,70,26,3,3
-20,-10,10,15,-15,0,69,102,101,50,18,8
-15,-5,9,10,-12,2,75,121,127,72,26,14
-5,0,5,2,-5,3,84,151,147,83,34,21
23,28,5,-26,8,16,98,188,195,112,44,27
46,50,4,-48,21,27,111,242,233,140,58,35
53,52,-1,-52,27,25,132,285,271,166,68,39
58,54,-4,-55,31,25,150,325,318,187,77,41
69,62,-7,-65,38,27,160,372,344,207,88,39
83,70,-12,-77,48,29,177,419,390,228,96,45
80,67,-13,-73,47,27,174,436,417,227,95,51
91,64,-27,-77,58,18,163,437,416,219,92,49
98,62,-36,-79,67,12,155,430,405,213,89,59
82,58,-25,-70,53,16,146,375,359,206,85,58
71,56,-15,-63,42,20,121,301,290,173,85,48
59,54,-5,-56,31,24,80,206,206,115,66,44
35,38,3,-37,16,20,57,111,126,64,34,29
12,20,8,-16,2,13,41,46,59,23,12,7
0,12,12,-6,-6,12,28,10,19,-1,-3,-11
-16,4,20,6,-18,12,18,-4,-1,-18,-12,-28
-27,-4,22,15,-24,9,14,-15,-19,-28,-21,-36
-38,-9,28,23,-33,9,16,-23,-32,-31,-29,-35
-50,-10,39,30,-45,14,11,-29,-36,-38,-40,-35
-43,-9,34,26,-38,12,10,-25,-38,-41,-47,-35
-39,-11,28,25,-34,9,10,-24,-41,-39,-45,-35
-33,-10,23,21,-28,6,5,-39,-44,-41,-45,-35
-27,-10,17,18,-22,3,5,-46,-45,-40,-45,-35
-34,-22,13,28,-23,-4,4,-45,-45,-41,-45,-35
-36,-26,9,31,-22,-8,0,-45,-45,-44,-46,-35
-35,-24,10,30,-22,-7,0,-45,-45,-49,-49,-35
-32,-22,10,27,-21,-6,0,-45,-47,-53,-50,-35
-29,-19,10,24,-19,-5,0,-46,-51,-55,-50,-39
-31,-20,11,26,-21,-5,0,-44,-53,-58,-50,-41
-34,-20,14,26,-24,-2,0,-50,-56,-61,-50,-40
-40,-20,19,30,-30,0,0,-60,-59,-65,-52,-40
-37,-20,18,28,-27,-1,0,-60,-64,-65,-56,-39
-35,-20,15,27,-25,-2,-5,-61,-68,-66,-55,-41
-35,-19,15,27,-25,-2,-5,-66,-70,-70,-55,-45
-34,-23,11,28,-23,-5,-6,-64,-73,-70,-54,-45
-40,-30,10,35,-24,-10,-11,-68,-75,-72,-56,-47
-40,-30,10,35,-25,-10,-9,-78,-82,-78,-60,-50
-45,-30,15,37,-30,-7,-13,-81,-86,-80,-60,-50
-50,-30,20,40,-35,-5,-15,-79,-84,-80,-60,-50
-53,-30,23,41,-38,-3,-15,-80,-85,-80,-57,-50
-58,-30,28,44,-43,-1,-19,-80,-84,-75,-54,-50
-60,-30,30,45,-45,0,-21,-81,-90,-75,-56,-50
-64,-30,33,46,-49,1,-19,-84,-95,-73,-59,-50
-65,-30,36,47,-51,2,-16,-85,-95,-70,-60,-51
-70,-30,40,50,-55,5,-13,-85,-95,-69,-61,-55
-69,-29,40,49,-54,5,-11,-85,-95,-74,-65,-55
-61,-26,36,43,-48,5,-7,-85,-95,-88,-65,-57
-58,-25,33,41,-45,4,-5,-83,-91,-90,-62,-60
-56,-25,30,41,-43,2,-2,-79,-89,-90,-60,-60
-52,-25,27,38,-39,1,0,-80,-90,-90,-60,-56
-50,-26,25,37,-37,0,0,-80,-90,-89,-60,-50
-49,-22,27,36,-38,2,4,-80,-90,-91,-60,-45
-46,-14,32,30,-39,9,6,-81,-89,-81,-60,-39
-41,-7,34,24,-38,14,5,-68,-78,-70,-51,-34
-29,13,42,8,-36,27,22,-48,-58,-53,-33,-29
-15,27,41,-6,-28,34,43,-20,-37,-30,-28,-24
-2,25,27,-11,-15,25,51,-2,-28,-22,-30,-21
7,21,14,-14,-3,17,56,6,-29,-32,-30,-18
19,18,-2,-18,10,8,36,3,-22,-31,-34,-14
29,15,-14,-22,21,1,-23,-46,-47,-41,-35,-9
39,3,-36,-21,38,-16,-56,-85,-86,-71,-37,-16
45,-12,-56,-16,51,-34,-51,-86,-83,-67,-32,-22
17,-32,-49,8,33,-40,-48,-96,-98,-77,-42,-35
11,-31,-42,10,27,-36,-41,-92,-106,-90,-51,-38
-12,-51,-39,31,14,-44,-40,-105,-117,-105,-72,-42
-49,-66,-17,57,-15,-41,-31,-96,-111,-107,-74,-48
-56,-70,-14,63,-21,-42,-33,-102,-109,-115,-75,-67
-69,-75,-5,72,-32,-40,-27,-97,-113,-119,-73,-65
-49,-78,-29,64,-10,-53,-26,-90,-96,-113,-64,-62
-63,-91,-28,78,-17,-59,-26,-104,-120,-127,-89,-77
-22,-66,-44,44,11,-55,-4,-14,-38,-53,-56,-50
-7,-60,-53,34,23,-57,67,115,114,65,-1,-39
456,328,-129,-392,292,99,101,701,982,1146,818,475
1165,699,-466,-932,815,116,-381,502,1356,1935,1564,1012
635,397,-238,-516,436,79,-723,-781,-197,434,667,574
-91,17,109,37,-100,63,-505,-1012,-1120,-773,-212,33
-98,-152,-55,125,-21,-103,-394,-643,-764,-580,-233,-82
-102,-154,-52,128,-25,-103,-217,-377,-442,-351,-185,-91
-76,-98,-23,87,-26,-61,-56,-136,-194,-171,-112,-65
-77,-71,6,74,-41,-32,-23,-89,-120,-107,-79,-60
-83,-50,34,66,-58,-8,13,-39,-88,-86,-69,-53
-74,-56,18,64,-46,-19,4,-33,-67,-66,-62,-50
-79,-48,31,63,-55,-8,17,-15,-51,-62,-62,-45
-68,-47,20,57,-44,-13,16,-4,-25,-44,-53,-40
-73,-45,28,58,-50,-8,27,5,-21,-41,-52,-37
-64,-41,23,52,-43,-9,41,23,-7,-25,-45,-34
-56,-35,21,46,-38,-7,39,26,-3,-19,-40,-36
-50,-30,20,40,-35,-5,41,39,13,-8,-32,-34
-44,-25,19,34,-32,-2,39,48,29,-2,-26,-35
-39,-18,21,29,-30,1,41,63,51,13,-19,-34
-33,-14,19,24,-25,2,50,84,64,31,-10,-26
-33,-8,24,20,-28,8,60,106,84,47,-2,-19
-35,-5,30,20,-32,12,64,139,119,62,7,-13
-30,0,30,15,-30,15,72,168,149,77,16,-5
-25,5,30,10,-28,17,84,202,187,111,28,4
-20,10,30,5,-25,20,101,254,230,129,40,13
9,39,30,-24,-11,34,122,299,286,163,58,21
41,67,26,-54,7,46,132,349,335,198,69,30
58,73,15,-66,22,43,156,394,377,215,80,40
68,73,5,-71,31,39,177,420,420,237,93,46
76,69,-6,-72,41,31,173,446,430,234,88,45
99,70,-28,-84,64,21,168,451,423,221,80,45
102,67,-36,-84,69,15,166,428,413,214,75,45
90,64,-25,-77,57,19,136,381,365,197,65,45
83,65,-18,-74,50,24,90,294,280,161,60,44
57,48,-8,-52,32,20,68,190,195,112,49,28
25,27,2,-26,11,14,35,102,116,63,20,10
0,14,15,-7,-8,15,5,38,48,19,-3,0
-26,3,29,12,-28,16,5,-10,-8,-8,-18,-10
-42,-11,30,27,-36,9,5,-31,-37,-28,-34,-28
-55,-29,26,42,-41,-1,5,-31,-41,-43,-36,-44
-62,-38,24,50,-43,-7,5,-35,-40,-45,-35,-45
-54,-33,21,44,-37,-6,4,-38,-40,-48,-35,-45
-49,-30,19,40,-34,-5,0,-40,-40,-51,-35,-45
-43,-27,16,34,-29,-6,0,-43,-39,-54,-35,-45
-36,-22,15,29,-25,-3,-1,-45,-43,-55,-35,-45
-35,-20,14,27,-25,-3,-6,-45,-44,-55,-35,-45
-28,-19,9,23,-18,-5,-5,-45,-60,-55,-35,-45
-39,-28,11,33,-24,-8,-7,-45,-76,-55,-35,-45
-43,-36,7,39,-24,-14,-11,-45,-75,-55,-35,-45
-22,-35,-13,29,-4,-23,-10,-50,-75,-55,-35,-45
-21,-35,-14,29,-3,-24,-10,-55,-75,-57,-41,-41
-32,-35,-3,33,-14,-19,-10,-59,-74,-64,-47,-40
-39,-35,4,37,-21,-15,-10,-60,-78,-70,-53,-40
-48,-35,13,41,-30,-10,-15,-60,-80,-75,-55,-40
-51,-36,15,43,-32,-10,-19,-60,-81,-78,-55,-40
-48,-34,15,41,-31,-9,-24,-67,-85,-83,-55,-42
-55,-40,15,47,-35,-13,-23,-70,-85,-85,-55,-45
-66,-51,15,58,-40,-18,-20,-71,-92,-85,-56,-48
-65,-50,15,57,-40,-17,-20,-75,-104,-85,-59,-50
-63,-49,15,56,-39,-16,-20,-75,-106,-85,-60,-53
-60,-45,15,52,-37,-15,-20,-80,-105,-85,-62,-56
-60,-45,15,52,-37,-15,-20,-85,-105,-89,-66,-51
-60,-45,15,52,-37,-15,-25,-89,-105,-90,-68,-50
-60,-45,15,52,-37,-15,-25,-88,-105,-90,-71,-50
-58,-45,13,51,-35,-16,-26,-84,-107,-90,-74,-50
-53,-45,8,49,-30,-18,-30,-85,-110,-89,-76,-49
-48,-45,3,46,-25,-21,-30,-85,-110,-93,-80,-53
-46,-45,0,45,-23,-22,-28,-85,-110,-95,-80,-65
-60,-50,10,54,-35,-20,-24,-85,-110,-95,-81,-65
-77,-50,27,63,-52,-11,-22,-80,-110,-98,-85,-65
-82,-50,32,66,-57,-9,-19,-80,-117,-101,-85,-65
-78,-50,29,64,-54,-11,-16,-88,-128,-99,-83,-65
-75,-50,25,62,-50,-12,-14,-86,-133,-95,-76,-64
-69,-47,22,58,-45,-12,-8,-76,-126,-88,-69,-58
-52,-34,18,43,-35,-8,1,-72,-121,-84,-63,-53
-37,-23,14,29,-25,-4,10,-63,-116,-77,-57,-46
-40,-14,26,27,-33,6,21,-49,-93,-61,-47,-41
-43,-11,32,27,-37,10,43,-31,-62,-49,-39,-36
-34,-4,30,19,-32,13,50,-14,-53,-47,-25,-34
-16,-3,13,9,-14,5,60,-20,-45,-53,-24,-35
13,6,-7,-9,9,0,46,-28,-35,-54,-24,-30
8,-1,-10,-3,9,-5,-25,-61,-79,-55,-27,-30
5,-40,-45,18,25,-42,-47,-85,-105,-56,-40,-31
23,-41,-64,10,44,-53,-43,-75,-94,-63,-40,-37
-6,-48,-41,27,18,-44,-46,-95,-117,-96,-63,-46
-27,-61,-34,44,4,-48,-43,-102,-121,-100,-72,-43
-33,-60,-28,47,-3,-44,-48,-111,-131,-119,-90,-61
-53,-73,-20,63,-16,-47,-39,-97,-118,-117,-88,-58
-75,-98,-23,86,-26,-60,-40,-117,-132,-133,-101,-64
-76,-83,-8,80,-34,-45,-24,-102,-119,-120,-94,-56
-78,-95,-17,86,-30,-56,-28,-121,-128,-135,-104,-63
-70,-88,-18,79,-26,-53,-11,-107,-124,-130,-110,-59
-19,-70,-51,45,16,-60,14,-4,-24,-56,-77,-54
61,13,-48,-37,54,-17,102,238,269,253,128,56
761,488,-273,-625,517,107,-10,765,1220,1503,1127,711
1213,685,-528,-949,871,78,-571,101,989,1603,1420,979
406,324,-81,-365,243,121,-689,-1024,-645,-107,305,406
-127,5,131,60,-129,68,-468,-931,-1068,-786,-266,15
-73,-136,-63,104,-4,-99,-376,-584,-654,-517,-222,-63
-88,-113,-25,101,-31,-69,-156,-296,-347,-292,-170,-52
-56,-70,-14,63,-21,-42,-46,-119,-143,-137,-104,-28
-49,-48,1,48,-25,-23,-14,-75,-90,-110,-91,-29
-44,-37,7,40,-25,-15,7,-29,-45,-76,-71,-19
-45,-36,10,40,-27,-12,6,-26,-42,-74,-70,-19
-51,-28,23,39,-37,-2,22,1,-24,-59,-64,-11
-47,-26,21,36,-34,-3,25,8,-10,-50,-57,-11
-43,-20,24,31,-33,2,25,22,2,-41,-53,-21
-33,-17,16,25,-24,0,27,32,19,-29,-46,-21
-31,-15,16,23,-23,1,43,46,36,-23,-40,-14
-25,-13,12,18,-18,0,38,53,51,-13,-30,-8
-19,-10,9,14,-14,0,48,71,55,-2,-23,-1
-23,-9,14,16,-18,2,57,85,72,16,-16,6
-26,0,26,13,-26,13,60,109,102,34,-8,12
-17,10,26,3,-22,18,65,143,132,51,2,17
-2,23,25,-11,-14,23,69,163,159,71,12,25
16,40,24,-28,-5,32,81,202,189,101,22,20
28,47,19,-38,4,33,89,241,216,119,28,17
33,54,21,-44,6,37,118,284,270,147,44,40
43,61,18,-52,12,39,129,343,322,176,60,45
72,82,11,-77,30,46,146,395,362,205,75,54
97,101,4,-100,47,52,169,430,399,236,96,68
102,99,-2,-100,52,48,174,466,426,249,103,64
110,100,-10,-105,60,45,185,490,440,255,98,66
114,100,-14,-107,64,42,180,491,426,251,91,65
111,100,-11,-106,61,45,171,467,413,239,84,65
104,97,-7,-100,56,45,135,388,362,211,78,64
82,77,-4,-79,43,36,90,289,274,166,64,55
59,59,-1,-59,30,29,65,191,183,115,36,46
43,45,2,-44,20,23,41,101,103,71,12,32
19,32,13,-26,3,22,27,45,49,29,-11,15
-3,19,22,-9,-12,21,21,14,12,0,-33,0
-13,8,21,3,-17,14,16,3,-5,-10,-43,-13
-22,-2,20,12,-21,8,13,1,-14,-18,-45,-28
-33,-13,20,23,-26,3,7,-3,-21,-28,-45,-36
-43,-22,20,32,-31,-1,6,-7,-28,-36,-45,-35
-45,-26,20,35,-32,-2,10,-10,-36,-41,-45,-35
-47,-25,23,36,-34,-1,10,-14,-43,-44,-45,-35
-51,-25,25,37,-38,0,12,-21,-45,-49,-45,-35
-49,-25,25,37,-37,0,16,-30,-45,-50,-45,-34
-54,-26,29,40,-41,1,15,-39,-45,-50,-45,-30
-60,-30,31,45,-45,0,12,-44,-45,-50,-45,-30
-60,-30,29,45,-44,0,7,-48,-45,-51,-45,-30
-56,-30,25,42,-40,-2,4,-51,-46,-60,-45,-30
-55,-30,25,42,-40,-2,0,-50,-55,-69,-49,-30
-54,-31,24,42,-39,-3,-4,-50,-60,-71,-50,-30
-47,-27,20,37,-33,-4,-7,-50,-62,-74,-50,-29
-45,-25,20,35,-32,-2,-10,-50,-66,-77,-50,-32
-45,-25,20,35,-32,-2,-10,-55,-68,-80,-50,-40
-41,-21,20,31,-30,0,-10,-61,-76,-80,-49,-40
-40,-20,20,30,-30,0,-10,-60,-80,-80,-45,-40
-40,-20,20,30,-30,0,-10,-59,-80,-80,-45,-40
-48,-28,20,38,-34,-4,-14,-68,-80,-80,-43,-39
-53,-33,20,43,-37,-6,-15,-72,-79,-80,-39,-41
-54,-29,25,41,-39,-2,-15,-70,-81,-80,-40,-45
-56,-31,25,43,-41,-2,-19,-69,-79,-83,-43,-45
-54,-26,28,39,-41,1,-21,-74,-82,-87,-48,-45
-57,-26,31,41,-44,2,-18,-81,-93,-89,-53,-45
-50,-23,27,36,-38,2,-15,-80,-96,-93,-54,-45
-51,-28,23,39,-37,-2,-13,-79,-94,-95,-50,-49
-58,-41,17,50,-37,-12,-10,-75,-95,-99,-47,-50
-54,-39,14,46,-34,-12,-7,-75,-95,-100,-45,-50
-48,-40,8,44,-28,-16,-4,-73,-94,-96,-41,-54
-45,-40,5,42,-25,-17,-2,-85,-90,-94,-40,-56
-72,-40,32,56,-52,-4,1,-95,-89,-95,-37,-53
-80,-38,42,59,-61,2,4,-85,-91,-95,-32,-50
-76,-34,42,55,-58,4,7,-79,-89,-96,-30,-50
-83,-36,47,59,-65,6,9,-74,-93,-94,-26,-51
-64,-16,48,40,-56,16,13,-58,-77,-68,-22,-39
-38,13,51,12,-45,32,32,-37,-50,-41,-19,-17
-13,26,39,-7,-26,32,51,-22,-49,-29,-20,-10
2,27,25,-15,-12,26,53,-10,-49,-14,-19,-10
12,23,11,-18,0,17,58,-1,-56,-10,-21,-10
33,27,-5,-30,18,11,36,-1,-52,-18,-19,-9
38,17,-21,-27,29,-2,-14,-44,-68,-54,-21,-11
36,-19,-55,-8,46,-37,-29,-74,-87,-75,-24,-13
26,-43,-69,8,48,-56,-27,-82,-83,-74,-27,-25
12,-40,-52,14,32,-46,-24,-88,-99,-86,-39,-32
-27,-59,-32,44,3,-45,-26,-92,-116,-102,-60,-41
-71,-74,-4,73,-34,-39,-25,-100,-123,-113,-73,-57
-58,-64,-7,62,-26,-35,-25,-97,-110,-109,-74,-56
-73,-78,-5,76,-34,-41,-26,-109,-119,-132,-95,-69
-55,-59,-4,58,-26,-31,-13,-80,-92,-105,-77,-56
-76,-83,-8,80,-34,-45,-13,-109,-113,-138,-103,-81
-30,-69,-39,49,5,-54,1,-43,-74,-95,-61,-62
38,-61,-98,12,68,-79,23,22,0,-28,-49,-64
194,138,-56,-166,125,41,110,425,556,636,429,232
961,626,-334,-793,647,145,-149,727,1403,1902,1514,945
949,597,-352,-773,651,122,-629,-315,485,1215,1210,876
61,227,166,-144,-53,196,-552,-1012,-939,-486,25,231
-125,-22,103,73,-114,41,-410,-760,-954,-742,-259,-42
-84,-143,-59,114,-12,-101,-326,-511,-600,-478,-203,-83
-106,-109,-4,108,-51,-56,-114,-212,-305,-273,-158,-73
-67,-91,-24,79,-21,-57,-53,-100,-142,-134,-93,-67
-75,-74,1,75,-38,-36,-15,-55,-106,-110,-73,-58
-55,-62,-7,59,-24,-35,5,-29,-66,-79,-57,-50
-71,-61,11,66,-41,-25,8,-21,-53,-73,-59,-46
-76,-59,17,67,-46,-21,17,3,-34,-55,-49,-44
-69,-58,11,63,-40,-23,19,7,-30,-50,-46,-45
-65,-54,11,59,-37,-21,28,24,-17,-41,-40,-39
-60,-56,4,57,-32,-26,29,25,-5,-32,-34,-41
-51,-49,2,50,-27,-23,41,31,4,-27,-28,-38
-42,-42,0,42,-21,-21,49,49,29,-14,-20,-31
-44,-38,6,40,-25,-15,50,66,51,-5,-15,-24
-42,-33,9,38,-25,-11,52,72,58,12,-7,-17
-37,-30,6,33,-22,-12,55,92,78,32,-2,-11
-17,-12,5,14,-11,-4,56,123,102,46,6,-5
8,12,5,-10,1,8,65,143,130,73,12,0
17,18,1,-17,8,9,76,176,159,90,19,7
26,25,0,-25,13,12,87,214,195,105,29,14
27,28,1,-28,13,15,115,259,253,147,46,21
33,39,6,-36,14,22,122,316,300,177,71,27
53,62,10,-58,21,36,140,346,335,202,80,33
64,67,4,-65,30,35,156,388,369,227,90,43
75,62,-13,-68,43,25,158,426,394,228,104,52
93,71,-22,-82,57,24,181,438,400,223,103,51
106,88,-18,-97,62,35,172,437,390,213,96,46
93,81,-12,-87,53,34,153,406,375,207,88,43
75,69,-6,-72,40,32,121,337,320,196,84,38
63,60,-3,-61,33,29,74,234,224,135,61,33
38,50,13,-44,12,31,45,135,142,83,21,22
-7,28,35,-11,-21,31,28,69,77,48,-3,7
-56,-21,35,38,-45,7,25,32,29,4,-16,-9
-67,-32,35,49,-51,1,20,-12,-6,-17,-31,-24
-81,-41,40,61,-60,-1,16,-37,-32,-36,-39,-24
-90,-50,40,70,-65,-5,12,-27,-41,-54,-42,-32
-70,-30,39,50,-54,4,7,-41,-54,-67,-62,-53
-63,-30,34,46,-49,2,5,-57,-65,-76,-68,-57
-58,-29,29,44,-43,0,5,-54,-65,-75,-64,-54
-49,-24,25,36,-36,0,5,-54,-63,-75,-65,-51
-45,-25,20,35,-32,-2,5,-50,-60,-75,-60,-48
-43,-27,16,35,-29,-5,5,-50,-60,-75,-60,-45
-35,-24,11,29,-23,-7,1,-53,-63,-78,-60,-46
-30,-20,10,25,-20,-4,-3,-56,-65,-80,-60,-50
-19,-10,9,15,-14,0,-6,-55,-65,-80,-60,-50
-25,-19,6,21,-15,-6,-10,-56,-66,-80,-60,-50
-46,-41,5,43,-25,-18,-8,-68,-69,-80,-59,-50
-45,-40,5,42,-25,-17,-4,-72,-71,-80,-71,-50
-45,-39,6,42,-26,-16,-5,-67,-68,-85,-82,-50
-31,-38,-7,34,-12,-22,-1,-75,-79,-85,-79,-50
-35,-33,1,34,-18,-16,1,-86,-93,-85,-83,-50
-47,-37,10,42,-28,-13,-1,-85,-95,-85,-85,-49
-36,-40,-4,38,-16,-21,-6,-84,-99,-85,-85,-52
-27,-41,-14,34,-6,-27,-26,-94,-104,-85,-81,-56
-16,-39,-23,28,4,-31,-37,-101,-105,-85,-80,-55
-18,-37,-19,28,1,-28,-32,-100,-105,-85,-80,-54
-21,-34,-13,28,-3,-24,-30,-98,-105,-85,-75,-51
-25,-35,-10,30,-7,-22,-26,-94,-105,-86,-75,-49
-48,-53,-5,51,-22,-28,-25,-95,-106,-98,-76,-52
-61,-62,-1,62,-30,-31,-21,-91,-111,-101,-82,-55
-56,-59,-3,58,-26,-31,-20,-89,-115,-99,-89,-55
-48,-61,-12,55,-18,-36,-20,-90,-111,-100,-86,-51
-46,-60,-13,53,-16,-36,-15,-85,-110,-100,-85,-50
-50,-60,-10,55,-20,-35,-15,-85,-110,-100,-85,-49
-45,-55,-10,50,-17,-32,-14,-84,-106,-94,-80,-46
-40,-50,-10,45,-15,-30,-9,-78,-104,-89,-80,-44
-36,-46,-10,41,-13,-28,-3,-71,-108,-84,-79,-47
-32,-41,-10,36,-11,-25,0,-65,-108,-78,-74,-53
-30,-37,-7,34,-12,-22,6,-58,-99,-73,-70,-50
-23,-21,2,22,-12,-9,8,-50,-83,-66,-65,-45
-12,-9,3,10,-7,-3,23,-54,-60,-66,-61,-44
1,2,1,-2,0,2,38,-53,-51,-60,-59,-37
14,2,-11,-8,12,-4,34,-59,-60,-60,-60,-36
32,-7,-38,-12,35,-22,33,-57,-56,-55,-55,-30
33,-12,-45,-10,39,-28,-7,-68,-68,-56,-54,-33
-9,-40,-31,25,11,-35,-48,-97,-103,-78,-58,-49
-30,-55,-24,43,-3,-39,-45,-93,-105,-79,-57,-51
-57,-68,-11,63,-23,-39,-38,-99,-112,-89,-64,-59
-91,-83,8,87,-49,-38,-26,-96,-108,-83,-54,-58
-98,-88,10,93,-53,-39,-24,-105,-119,-97,-73,-63
-93,-81,12,87,-52,-34,-12,-92,-110,-92,-80,-64
-88,-88,0,88,-44,-44,-15,-96,-110,-99,-94,-80
-92,-83,9,88,-50,-37,-5,-81,-102,-95,-91,-72
-74,-82,-8,78,-33,-45,-3,-77,-91,-90,-95,-75
-83,-78,4,81,-43,-37,0,-77,-104,-109,-108,-80
-30,-55,-25,43,-2,-39,27,-5,-31,-36,-64,-62
-2,-34,-31,18,15,-32,54,149,166,169,52,-11
524,408,-115,-466,319,146,90,707,1117,1423,1043,642
1091,721,-370,-906,731,175,-407,360,1266,2016,1674,1097
442,400,-42,-421,242,179,-634,-768,-325,317,595,558
-131,69,199,31,-165,134,-429,-879,-1045,-767,-216,58
-83,-110,-26,97,-28,-68,-383,-570,-704,-545,-206,-73
-102,-129,-27,116,-37,-78,-127,-297,-382,-315,-167,-76
-86,-77,9,81,-47,-34,-144,-112,-159,-136,-89,-54
-72,-50,21,61,-46,-14,312,-71,-94,-81,-73,-56
-44,-39,5,41,-24,-17,331,-21,-47,-50,-78,-45
-40,-39,2,39,-21,-18,-60,-27,-45,-38,-78,-46
-36,-26,10,31,-23,-8,337,-6,-20,-33,-83,-37
-29,-24,5,26,-17,-9,102,-4,-77,-23,-83,-36
-35,-20,15,28,-25,-3,-292,4,-91,-21,-86,-27
-31,-27,5,29,-18,-10,-349,10,-49,-15,-84,-23
-34,-27,6,30,-20,-10,-308,11,-77,-26,-86,-40
-39,-32,7,35,-23,-12,-308,21,-54,-28,-84,-53
