I,II,III,aVR,aVL,aVF,V1,V2,V3,V4,V5,V6
-60,-40,20,50,-40,-10,-27,-110,-90,-84,-71,-35
-60,-40,20,50,-40,-10,-43,-107,-87,-78,-72,-32
-60,-41,19,50,-39,-11,-33,-100,-79,-70,-63,-26
-50,-28,22,39,-36,-3,3,-96,-74,-62,-55,-21
-25,-8,17,16,-20,4,14,-86,-65,-50,-47,-15
-23,8,31,7,-27,20,21,-79,-56,-38,-49,-11
0,28,29,-14,-15,28,24,-70,-43,-27,-51,-17
31,28,-3,-30,17,12,-2,-61,-33,-20,-49,-25
26,6,-20,-16,23,-7,-61,-106,-87,-58,-52,-33
29,-7,-36,-11,33,-22,-70,-123,-107,-66,-48,-35
17,-30,-47,7,32,-38,-54,-119,-105,-65,-50,-35
4,-55,-59,25,32,-57,-54,-123,-105,-65,-41,-35
-31,-55,-25,43,-3,-40,-39,-125,-103,-64,-42,-35
-54,-55,-2,55,-26,-28,-47,-126,-117,-88,-63,-36
-57,-69,-12,63,-22,-40,-47,-121,-119,-97,-70,-39
-54,-72,-18,63,-18,-45,-43,-132,-137,-115,-79,-47
-44,-65,-21,55,-11,-43,-37,-114,-107,-94,-69,-46
-49,-68,-19,58,-14,-43,-26,-140,-149,-130,-83,-53
1,-58,-59,28,30,-58,-29,-107,-93,-81,-62,-38
-55,-65,-11,60,-22,-38,7,-138,-148,-124,-81,-55
-143,-31,112,87,-127,40,102,-33,-53,-104,-111,-81
-246,36,282,105,-264,158,455,257,282,137,-63,-99
0,99,99,-49,-50,99,390,825,1057,933,341,99
642,113,-529,-377,585,-208,-572,916,1578,1712,935,499
795,-17,-812,-389,804,-414,-1406,-875,-533,154,573,498
699,-32,-731,-333,715,-381,-1617,-2061,-2156,-1313,84,400
480,96,-384,-287,432,-144,-1196,-1518,-1490,-905,194,474
125,143,18,-134,53,80,-546,-815,-801,-484,123,320
22,75,53,-49,-16,64,-160,-248,-265,-194,-8,71
-23,-6,18,14,-20,6,8,-76,-121,-121,-58,-20
-59,-35,24,47,-41,-5,21,-30,-88,-97,-57,-30
-69,-52,17,60,-43,-17,34,-2,-47,-67,-54,-37
-56,-44,11,50,-33,-16,70,6,-53,-77,-56,-34
-47,-36,11,41,-29,-12,88,37,-18,-50,-46,-40
-33,-33,0,33,-17,-16,84,33,-26,-58,-49,-41
-24,-20,4,22,-14,-8,85,62,-1,-39,-38,-38
-40,-27,12,34,-26,-7,87,69,-2,-33,-43,-35
-33,-46,-13,39,-9,-29,107,95,18,-15,-45,-30
-41,-31,10,36,-25,-10,136,128,50,-3,-39,-28
-34,-24,10,29,-22,-7,137,136,68,11,-32,-23
-84,-26,58,55,-70,16,155,169,96,26,-26,-20
-122,-25,97,73,-109,36,158,214,129,36,-19,-17
-89,-15,74,52,-81,29,195,256,163,56,-10,-12
-72,12,84,30,-78,48,250,315,216,86,0,-9
-70,3,73,33,-72,38,257,373,265,118,10,-6
-62,14,76,24,-69,44,274,439,322,155,21,-1
-32,54,86,-11,-59,69,315,512,395,201,37,1
-41,67,108,-13,-74,87,350,585,463,244,54,8
-60,84,145,-12,-103,114,360,652,534,291,74,13
-61,96,156,-18,-109,126,374,697,599,341,100,26
-37,118,155,-41,-96,136,382,716,635,371,125,45
-13,141,154,-65,-84,147,346,685,623,381,128,46
-26,132,157,-53,-92,144,289,637,587,384,129,54
-9,131,140,-62,-74,135,241,538,524,357,136,60
7,110,103,-59,-48,106,176,381,398,278,109,50
9,77,68,-43,-30,72,111,234,251,196,70,40
13,56,43,-34,-15,49,70,122,149,124,44,30
1,28,27,-15,-14,27,37,45,70,67,24,18
-9,8,18,0,-14,13,20,-18,-1,25,10,6
-30,-9,21,19,-25,5,4,-56,-40,-19,-4,-4
-32,-17,15,24,-23,-1,-13,-85,-64,-40,-12,-21
-52,-34,18,43,-35,-8,-16,-92,-72,-43,-19,-31
-51,-61,-10,57,-20,-35,-11,-89,-82,-48,-36,-29
-47,-70,-24,59,-11,-47,-9,-109,-101,-69,-42,-34
-59,-47,12,53,-35,-17,-4,-107,-107,-83,-35,-36
-13,-26,-13,19,1,-19,-2,-101,-112,-76,-36,-34
-24,-40,-15,32,-4,-27,6,-96,-115,-76,-29,-36
-38,-45,-7,41,-15,-26,34,-90,-108,-71,-32,-34
-23,-38,-15,31,-4,-26,42,-86,-97,-70,-53,-36
-38,-34,4,36,-21,-15,37,-80,-83,-66,-56,-41
-21,-28,-7,25,-6,-17,36,-75,-71,-59,-54,-41
-18,-21,-3,20,-7,-12,32,-71,-58,-56,-57,-40
-37,-24,14,30,-25,-5,30,-67,-50,-49,-69,-39
-37,-22,14,29,-25,-4,27,-61,-51,-44,-79,-35
-48,-33,15,40,-31,-9,24,-62,-50,-40,-74,-34
-47,-52,-6,49,-20,-29,19,-66,-51,-41,-76,-41
-47,-49,-2,49,-22,-25,18,-64,-49,-39,-72,-46
-86,-50,36,68,-61,-7,10,-67,-51,-47,-70,-45
-85,-48,36,66,-60,-6,14,-82,-67,-64,-70,-44
-68,-42,26,55,-47,-7,30,-86,-71,-66,-70,-40
-59,-38,21,48,-40,-8,13,-84,-69,-64,-82,-40
-47,-33,14,40,-30,-9,2,-87,-71,-67,-83,-40
-37,-29,8,33,-22,-11,-15,-91,-77,-70,-73,-40
-29,-24,5,27,-17,-9,-28,-89,-84,-70,-69,-40
-16,-25,-9,21,-3,-17,-24,-93,-90,-69,-60,-40
-3,-25,-22,14,10,-23,-26,-102,-92,-70,-56,-40
-29,-25,4,27,-16,-10,-25,-99,-87,-69,-71,-40
-34,-27,7,31,-21,-10,-25,-101,-84,-72,-73,-46
-10,-23,-13,17,2,-18,-21,-118,-81,-76,-63,-50
0,-13,-14,7,7,-13,-12,-114,-77,-65,-59,-44
-18,-6,12,12,-15,3,-5,-102,-73,-56,-50,-38
-17,3,20,7,-19,12,1,-92,-70,-43,-46,-31
-12,12,24,0,-18,18,19,-82,-68,-22,-41,-24
-12,20,32,-4,-23,26,18,-73,-66,-6,-39,-21
20,30,9,-25,5,19,-1,-66,-62,-5,-34,-17
31,8,-23,-19,27,-7,-44,-98,-85,-42,-31,-15
42,-18,-59,-12,51,-38,-77,-116,-114,-64,-31,-11
58,-8,-66,-25,62,-36,-50,-116,-124,-68,-37,-10
47,-2,-49,-22,48,-25,-35,-113,-115,-57,-33,-15
32,-10,-41,-11,37,-25,-35,-119,-124,-64,-37,-33
-1,-41,-40,21,20,-40,-36,-121,-120,-83,-57,-52
-33,-68,-34,51,1,-51,-27,-128,-138,-104,-67,-64
-14,-50,-35,32,11,-42,-33,-125,-130,-98,-65,-68
-35,-63,-28,49,-3,-45,-25,-127,-116,-86,-62,-70
-54,-86,-31,70,-11,-58,-21,-139,-134,-105,-71,-74
-49,-83,-33,66,-8,-58,-31,-113,-84,-60,-56,-71
-91,-69,22,80,-56,-24,-7,-124,-145,-132,-89,-88
-175,-11,164,92,-170,77,199,64,58,-27,-101,-95
-211,72,283,69,-247,177,536,438,502,364,43,-59
242,137,-105,-190,173,16,68,966,1400,1385,621,254
759,118,-641,-438,699,-261,-946,291,1008,1462,935,552
798,72,-726,-434,762,-327,-1530,-1603,-1432,-547,359,435
680,59,-621,-369,650,-281,-1524,-2024,-2117,-1359,77,390
390,103,-287,-246,338,-92,-938,-1310,-1282,-816,151,426
85,114,30,-100,27,72,-384,-631,-645,-436,68,236
20,27,6,-24,7,16,-95,-166,-186,-152,-6,12
-3,-13,-10,8,4,-11,23,-65,-107,-120,-60,-46
-39,-43,-4,42,-17,-23,28,-17,-43,-71,-50,-52
-46,-49,-4,48,-21,-26,63,1,-45,-73,-48,-61
-41,-36,6,38,-23,-15,72,26,-34,-68,-45,-52
-30,-54,-24,42,-2,-39,83,35,-20,-58,-37,-57
-70,-49,20,60,-45,-14,85,52,-7,-59,-37,-50
-90,-50,40,69,-65,-5,94,74,14,-47,-46,-51
-80,-51,30,65,-55,-10,117,90,16,-48,-52,-50
-47,-49,-2,48,-23,-25,111,103,26,-41,-48,-56
-86,-51,34,68,-60,-8,136,133,53,-33,-45,-70
-127,-46,82,86,-104,18,168,180,95,-1,-38,-64
-94,-43,51,68,-72,4,174,204,117,19,-33,-58
-92,-38,54,65,-73,8,184,249,152,31,-28,-49
-48,-27,21,37,-34,-3,204,297,192,50,-21,-51
-106,-17,89,62,-97,36,268,372,253,98,-4,-49
-98,14,113,42,-106,63,290,445,317,137,10,-29
-36,32,68,2,-52,50,309,510,373,167,21,-21
-64,40,104,12,-84,72,339,591,445,218,35,-17
-43,67,110,-13,-77,89,356,658,521,265,50,-9
-57,65,122,-5,-90,93,386,727,596,320,75,-7
-37,91,128,-27,-82,109,377,780,667,380,97,2
-8,129,137,-61,-73,133,367,777,694,411,115,34
-10,125,135,-58,-72,129,326,732,677,417,137,52
19,141,121,-80,-51,130,280,669,648,400,138,61
47,157,111,-102,-32,134,233,538,551,356,127,65
49,131,82,-90,-17,107,153,373,400,273,119,52
14,81,67,-48,-27,74,90,231,263,180,91,43
-21,37,58,-8,-40,48,46,122,156,115,54,32
-37,8,46,14,-42,27,22,41,69,49,16,19
-43,-3,40,23,-41,18,9,-17,6,10,-5,8
-15,-7,8,11,-11,1,-9,-57,-38,-25,-21,-1
4,-14,-18,6,11,-16,-24,-79,-64,-56,-42,-6
-2,-18,-16,10,7,-17,-24,-84,-67,-54,-46,-11
-13,-35,-22,24,5,-28,-17,-98,-85,-66,-49,-17
-26,-41,-15,34,-5,-28,-13,-101,-92,-75,-53,-22
-16,-35,-19,25,2,-26,-6,-100,-89,-80,-55,-28
13,-34,-47,10,30,-40,-1,-99,-91,-88,-55,-30
23,-27,-51,2,37,-39,-11,-95,-95,-95,-55,-30
8,-26,-34,9,22,-30,-15,-95,-94,-95,-55,-30
9,-23,-32,8,21,-27,-7,-96,-99,-95,-57,-30
-37,-39,-2,38,-17,-20,-2,-103,-110,-108,-73,-42
-88,-53,35,70,-61,-9,6,-89,-94,-94,-74,-46
-72,-46,26,59,-49,-9,21,-94,-83,-79,-67,-41
-60,-46,14,53,-36,-16,24,-90,-80,-79,-64,-40
-54,-40,14,47,-34,-13,26,-72,-72,-74,-58,-35
-33,-42,-9,37,-12,-25,23,-75,-68,-71,-55,-36
-22,-34,-12,28,-5,-22,17,-75,-62,-70,-55,-41
-66,-35,31,50,-49,-2,29,-75,-60,-70,-55,-40
-87,-60,27,73,-57,-16,18,-75,-59,-70,-55,-40
-57,-45,11,51,-34,-17,-1,-77,-55,-70,-55,-40
-41,-37,4,39,-23,-16,-8,-81,-55,-70,-55,-40
-45,-53,-8,49,-18,-31,-17,-89,-70,-70,-57,-39
-49,-58,-9,54,-20,-34,-22,-102,-82,-70,-60,-42
-26,-54,-28,40,1,-41,-22,-118,-81,-70,-60,-46
-12,-44,-32,28,10,-37,-20,-121,-78,-69,-60,-45
-27,-50,-23,38,-1,-36,-20,-120,-87,-74,-60,-45
-41,-55,-14,48,-13,-34,-16,-120,-95,-80,-59,-45
-54,-56,-1,55,-26,-28,-14,-120,-96,-81,-55,-45
-62,-55,8,58,-34,-23,-17,-121,-93,-78,-50,-47
-50,-54,-5,52,-22,-29,-24,-128,-100,-85,-46,-54
-33,-63,-30,48,-1,-46,-37,-138,-110,-83,-41,-60
-36,-25,11,31,-23,-7,-25,-112,-94,-73,-37,-44
-52,4,56,24,-54,30,11,-82,-63,-58,-32,-23
-9,5,14,2,-12,10,10,-86,-36,-29,-30,-20
23,19,-3,-21,13,8,1,-79,-28,-30,-30,-21
-4,9,13,-3,-8,11,-5,-80,-40,-44,-30,-16
19,-12,-31,-4,25,-21,-66,-124,-89,-67,-31,-15
28,-7,-36,-10,32,-21,-89,-148,-121,-81,-28,-14
53,0,-53,-26,53,-27,-65,-145,-122,-83,-27,-16
53,-12,-65,-20,59,-38,-69,-143,-116,-75,-22,-13
-15,-30,-15,22,1,-22,-65,-148,-126,-88,-35,-23
-42,-64,-22,53,-10,-43,-62,-141,-116,-94,-61,-53
-47,-66,-19,56,-14,-42,-51,-155,-132,-105,-71,-63
-30,-51,-21,40,-4,-36,-55,-140,-121,-98,-69,-59
-39,-57,-18,48,-10,-37,-42,-138,-123,-97,-69,-60
-27,-54,-27,41,0,-40,-45,-135,-135,-111,-73,-61
-30,-56,-26,43,-2,-40,-34,-113,-103,-79,-63,-56
-65,-52,13,59,-39,-19,17,-137,-156,-148,-95,-78
-157,-5,152,81,-155,73,207,76,101,-2,-103,-111
-189,84,273,52,-232,179,499,493,610,498,114,-39
349,128,-221,-238,285,-47,-25,929,1409,1465,704,300
802,45,-757,-423,779,-356,-1035,-57,563,1058,813,508
713,-43,-756,-335,735,-400,-1543,-1932,-1838,-1002,173,356
624,14,-610,-319,617,-298,-1463,-2083,-2127,-1441,-19,356
347,109,-238,-228,292,-64,-862,-1275,-1222,-788,99,388
77,100,22,-88,27,61,-320,-575,-568,-377,43,194
57,32,-25,-45,41,3,-75,-153,-159,-131,-36,-1
-43,-19,23,31,-33,2,8,-89,-129,-117,-87,-55
-97,-34,63,65,-80,14,32,-34,-50,-53,-72,-45
-72,-36,36,54,-53,0,63,-21,-42,-58,-71,-45
-61,-34,27,48,-43,-3,56,3,-27,-45,-64,-41
-62,-32,30,47,-45,-1,73,24,-12,-41,-58,-35
-46,-24,22,35,-34,-1,71,38,8,-41,-57,-38
7,7,-1,-7,4,3,82,65,26,-30,-51,-51
-88,-34,55,61,-71,10,107,93,28,-22,-51,-45
-117,-37,80,77,-98,21,113,120,52,1,-45,-37
-54,7,61,23,-57,34,132,143,73,15,-37,-31
-70,-7,63,39,-66,28,146,181,109,38,-29,-24
-64,2,66,31,-65,33,166,222,139,56,-21,-22
-74,1,76,36,-75,38,179,263,174,68,-14,-18
-73,2,75,35,-74,38,204,320,221,84,-3,-15
-54,20,75,16,-65,47,234,390,272,118,9,-10
-56,30,86,13,-72,58,257,468,340,159,20,-8
-68,45,113,11,-91,79,297,548,416,208,42,1
-32,78,109,-23,-71,93,325,625,482,247,52,8
-53,90,144,-19,-99,117,348,709,561,296,63,13
-73,102,175,-15,-124,138,349,776,639,363,94,34
-27,126,154,-50,-91,140,342,818,692,399,107,28
-47,126,172,-40,-110,149,342,813,714,424,129,38
-21,143,164,-62,-93,153,306,764,699,438,154,64
-4,150,153,-73,-79,151,249,671,644,416,142,63
-14,125,140,-56,-77,132,183,518,519,350,124,60
19,103,85,-62,-33,94,110,349,365,254,95,49
35,100,65,-68,-15,82,60,208,239,170,62,42
26,71,45,-49,-9,57,32,100,129,101,38,28
-2,27,29,-13,-16,28,10,21,48,55,9,5
18,23,5,-20,6,14,-13,-35,-4,11,-16,-18
8,-16,-23,4,16,-19,-31,-76,-53,-33,-44,-36
-83,-43,40,63,-62,-2,-31,-98,-75,-30,-64,-36
-81,-38,43,59,-62,3,-25,-100,-77,-38,-65,-34
-44,-42,2,43,-23,-20,-20,-102,-85,-60,-65,-32
-54,-44,10,49,-32,-17,-17,-105,-93,-66,-65,-28
-39,-46,-7,43,-15,-26,-10,-106,-102,-79,-66,-35
-35,-43,-7,39,-13,-25,-14,-107,-114,-91,-70,-45
-35,-56,-21,46,-7,-38,-27,-101,-117,-89,-70,-45
-30,-41,-11,35,-9,-26,-18,-97,-108,-85,-74,-45
-25,-22,3,23,-14,-9,-8,-93,-100,-82,-76,-42
-19,-31,-12,25,-4,-21,4,-88,-91,-77,-71,-40
-22,-29,-7,26,-7,-18,21,-84,-84,-75,-65,-40
-34,-30,4,32,-19,-13,18,-80,-78,-70,-60,-40
-80,-30,50,55,-65,10,15,-76,-71,-63,-55,-39
-56,-30,26,43,-41,-2,12,-73,-65,-59,-48,-42
-37,-30,7,33,-22,-11,9,-69,-57,-53,-47,-55
-73,-28,46,50,-59,9,29,-65,-57,-47,-50,-55
-54,-22,32,38,-43,5,33,-70,-60,-47,-52,-50
-43,-22,22,32,-32,0,12,-80,-60,-51,-56,-49
-28,-14,14,21,-21,0,4,-88,-76,-53,-54,-45
-20,-19,1,20,-10,-9,1,-93,-91,-55,-58,-44
-47,-54,-7,51,-20,-30,-2,-99,-98,-67,-67,-40
-76,-58,18,67,-47,-19,-7,-100,-101,-69,-62,-40
-68,-46,22,57,-45,-11,-9,-101,-99,-61,-59,-40
-17,-37,-20,28,1,-28,-17,-110,-102,-59,-56,-40
-42,-54,-12,48,-15,-33,-28,-112,-104,-53,-51,-40
-82,-70,11,76,-46,-29,-23,-109,-106,-50,-51,-37
-70,-54,16,62,-42,-19,-16,-110,-109,-64,-57,-32
-44,-50,-5,47,-19,-27,-14,-110,-111,-73,-65,-29
-48,-38,11,43,-29,-13,-5,-110,-105,-63,-60,-26
-57,-16,41,36,-49,12,-3,-108,-95,-51,-51,-21
-7,-2,5,5,-6,1,9,-78,-69,-39,-43,-21
20,18,-2,-19,11,8,27,-65,-48,-25,-33,-25
16,-2,-18,-7,17,-10,30,-74,-44,-17,-30,-22
-4,-24,-20,15,8,-22,34,-63,-29,-3,-29,-19
27,-12,-39,-7,33,-25,-11,-105,-79,-25,-32,-22
45,-25,-70,-10,58,-47,-71,-146,-127,-63,-27,-17
15,-51,-66,18,41,-58,-85,-148,-127,-79,-42,-28
21,-65,-86,22,54,-75,-72,-149,-123,-76,-66,-50
-5,-49,-44,28,20,-46,-42,-151,-126,-82,-67,-50
-14,-57,-43,36,15,-50,-43,-149,-126,-87,-72,-53
-37,-87,-50,62,7,-68,-33,-149,-120,-72,-73,-67
-46,-84,-38,66,-4,-61,-30,-153,-134,-96,-78,-68
-30,-85,-55,58,13,-70,-25,-138,-107,-92,-72,-64
-53,-86,-32,70,-10,-59,-14,-156,-137,-111,-79,-67
-29,-84,-55,57,14,-69,-24,-131,-87,-75,-71,-63
-76,-79,-3,77,-36,-41,22,-153,-135,-111,-78,-68
-120,-24,95,72,-107,35,117,-16,-21,-59,-117,-105
-230,24,254,103,-242,139,442,319,382,256,-34,-117
57,87,31,-72,13,59,304,830,1111,1067,433,134
745,73,-672,-408,708,-300,-660,535,1148,1419,851,446
773,-57,-829,-358,801,-443,-1417,-1375,-1103,-383,358,409
673,-22,-695,-325,684,-358,-1588,-2304,-2396,-1631,-127,321
495,100,-395,-297,445,-147,-1145,-1601,-1564,-1060,38,374
162,136,-26,-149,94,55,-495,-816,-790,-530,74,272
92,56,-36,-74,64,10,-129,-261,-268,-207,-35,15
-11,-33,-22,22,6,-27,16,-88,-112,-111,-64,-68
-21,-44,-23,33,1,-33,33,-26,-50,-80,-55,-48
-35,-44,-10,40,-12,-27,46,4,-23,-65,-52,-60
-81,-53,29,67,-55,-12,36,5,-31,-61,-50,-52
-65,-75,-10,70,-28,-42,65,29,-8,-36,-43,-58
-50,-66,-15,58,-17,-40,100,37,-7,-42,-51,-54
-69,-54,16,61,-42,-19,84,58,23,-26,-51,-55
-57,-49,8,53,-32,-20,92,79,34,-28,-44,-53
-36,-39,-3,38,-16,-21,126,98,55,-18,-37,-49
-80,-36,45,58,-62,5,137,130,79,-5,-31,-51
-68,-26,42,47,-55,8,144,164,102,18,-24,-45
-66,-22,43,44,-54,10,155,195,128,37,-19,-40
-60,-14,46,37,-53,15,157,238,164,46,-14,-34
-80,-14,66,46,-73,26,186,291,208,77,-12,-29
-107,-15,92,61,-100,38,208,353,256,105,2,-24
-56,24,80,16,-68,52,240,429,325,145,31,-15
-63,44,107,9,-85,76,275,514,393,192,44,-5
-76,38,114,18,-96,76,297,584,453,229,50,6
-56,70,127,-7,-92,98,334,672,551,293,81,14
-31,95,126,-33,-79,110,340,741,622,338,100,26
-33,109,142,-38,-88,125,355,787,675,382,120,40
-54,126,179,-36,-117,152,369,816,718,420,150,41
-22,126,147,-52,-85,136,321,777,701,414,149,39
-13,120,133,-54,-73,126,268,700,666,401,142,47
-3,121,125,-59,-64,123,218,580,578,370,144,50
7,113,106,-60,-49,109,154,420,440,298,129,43
-15,75,90,-30,-52,82,98,264,294,204,84,40
-21,51,71,-15,-46,61,52,133,172,128,43,35
-25,41,66,-9,-46,53,29,62,97,79,19,31
-13,15,28,-1,-21,21,26,-5,30,24,-3,23
3,5,2,-4,1,3,13,-64,-17,-23,-29,8
-26,-17,9,21,-17,-3,2,-79,-44,-39,-47,-5
-61,-49,11,55,-36,-19,-4,-93,-74,-60,-42,-14
-27,-36,-9,32,-9,-23,-11,-96,-87,-72,-40,-21
-5,-25,-20,15,7,-22,-17,-95,-90,-69,-40,-28
-56,-34,22,45,-39,-6,-24,-95,-93,-70,-39,-30
-46,-35,11,41,-28,-12,-30,-107,-96,-78,-54,-30
-23,-34,-11,29,-6,-22,-11,-119,-99,-80,-61,-30
-51,-31,20,40,-36,-5,17,-107,-100,-73,-55,-30
-73,-30,43,51,-58,7,20,-101,-93,-70,-54,-30
-82,-30,51,56,-67,10,19,-91,-85,-65,-48,-31
-73,-30,43,51,-58,6,20,-85,-77,-61,-46,-35
-73,-30,42,51,-57,6,19,-80,-63,-57,-46,-38
-67,-30,37,49,-52,3,21,-75,-55,-53,-42,-37
-64,-30,34,46,-49,2,24,-72,-50,-49,-36,-32
-85,-31,54,58,-70,12,26,-65,-45,-46,-30,-29
-87,-33,55,60,-71,11,30,-69,-42,-41,-49,-26
-86,-44,42,65,-64,-1,27,-75,-35,-41,-62,-20
-71,-34,37,52,-54,1,19,-76,-38,-46,-59,-23
-48,-23,24,35,-36,0,13,-72,-47,-43,-63,-30
-67,-51,16,59,-41,-18,5,-94,-75,-60,-65,-49
-38,-50,-12,44,-13,-30,-2,-113,-92,-72,-65,-60
-3,-31,-28,18,13,-29,-10,-109,-89,-69,-61,-52
-32,-26,6,29,-18,-10,2,-110,-93,-68,-55,-48
-34,-21,12,27,-23,-4,14,-110,-95,-64,-50,-41
-26,-19,7,22,-16,-6,5,-110,-96,-66,-44,-36
-24,-14,9,19,-16,-2,0,-115,-90,-60,-38,-31
-9,-10,-1,9,-4,-5,-9,-116,-88,-57,-36,-30
-42,-18,25,30,-33,3,-13,-109,-80,-46,-42,-24
-58,-39,19,48,-38,-10,-24,-111,-88,-53,-51,-30
-4,13,16,-5,-10,14,-28,-107,-107,-71,-38,-47
13,64,51,-39,-19,57,9,-83,-78,-38,-8,-33
7,51,43,-30,-18,47,35,-72,-49,-16,8,-20
6,46,40,-26,-17,43,37,-69,-38,-4,19,-14
-2,40,41,-19,-22,40,28,-56,-20,8,23,-8
9,32,22,-21,-6,27,-1,-85,-53,-32,18,-5
54,28,-26,-41,40,1,-51,-134,-104,-51,21,1
71,23,-49,-47,60,-12,-69,-148,-118,-49,15,4
55,19,-36,-37,45,-8,-57,-141,-114,-51,15,13
46,15,-31,-30,38,-8,-44,-139,-113,-47,14,-3
10,-3,-13,-3,12,-8,-39,-140,-120,-75,-12,-35
-10,-13,-3,12,-3,-7,-35,-128,-106,-85,-27,-40
6,-17,-23,5,15,-20,-27,-153,-132,-111,-42,-47
17,-32,-49,7,33,-40,-30,-139,-104,-91,-30,-43
-22,-48,-27,35,3,-37,-13,-151,-130,-92,-23,-47
-28,-52,-24,40,-1,-38,-26,-124,-96,-79,-11,-43
-36,-38,-2,37,-17,-20,-2,-136,-114,-86,-21,-47
-79,-8,71,44,-75,31,62,-84,-83,-74,-77,-90
-197,50,248,73,-223,149,371,230,280,160,-16,-110
-71,111,182,-20,-127,146,494,708,890,820,343,81
581,89,-492,-335,536,-201,-338,786,1350,1524,870,426
822,-40,-862,-391,842,-450,-1240,-860,-456,159,588,464
689,-79,-767,-305,728,-423,-1574,-2313,-2377,-1568,-40,332
558,30,-528,-294,543,-249,-1289,-1839,-1837,-1248,61,397
224,118,-105,-171,164,6,-619,-988,-956,-616,176,364
30,63,32,-47,-1,47,-187,-360,-368,-265,68,103
-56,-33,23,45,-39,-5,-6,-96,-121,-122,18,-15
-69,-37,32,53,-51,-2,28,-51,-84,-100,1,-11
-44,-30,15,37,-29,-7,60,-6,-26,-58,12,-41
-64,-41,23,52,-43,-9,76,14,-42,-71,12,-38
-27,-25,1,26,-14,-12,62,56,-10,-42,18,-36
-21,-21,0,21,-10,-10,67,50,-1,-46,33,-32
-62,-30,32,46,-47,1,93,66,25,-27,52,-28
-56,-6,50,31,-53,22,119,81,26,-22,49,-24
-61,-20,42,40,-51,11,118,92,44,-11,50,-37
-83,-46,37,64,-60,-4,125,121,55,-3,50,-56
-67,-40,27,53,-47,-6,123,148,70,10,49,-49
-78,-53,26,65,-52,-13,139,185,106,34,55,-43
-59,-42,17,50,-38,-12,136,228,132,40,59,-36
-41,-6,35,23,-38,14,162,283,185,68,73,-29
-85,-1,84,42,-85,42,213,349,239,100,93,-25
-88,-2,86,44,-87,42,226,433,304,147,115,-25
-61,1,62,30,-62,31,249,497,355,175,101,-26
-41,45,87,-2,-64,66,302,574,425,215,117,-20
-74,90,164,-8,-120,127,347,673,529,288,118,-12
-67,83,151,-8,-109,116,345,725,589,326,42,-4
-34,110,144,-38,-89,126,359,787,664,381,33,20
-48,134,182,-44,-115,158,361,813,716,428,59,45
-13,135,148,-61,-81,141,336,789,709,425,56,44
-22,135,158,-57,-91,146,315,734,680,416,51,40
-29,135,164,-54,-97,150,252,612,601,387,45,37
-15,112,127,-49,-72,119,167,456,463,300,27,31
-16,76,91,-30,-54,83,104,296,316,207,-5,31
20,60,40,-40,-10,50,67,174,197,138,-32,18
2,24,22,-13,-10,23,35,78,101,72,-50,-2
-15,-24,-10,20,-2,-17,14,8,12,24,-79,-25
-27,-52,-25,40,-1,-38,7,-22,-45,-15,-102,-45
-49,-56,-7,53,-21,-31,-1,-54,-54,-55,-101,-45
-46,-54,-8,51,-19,-31,-8,-74,-79,-71,-114,-44
-33,-56,-23,45,-5,-39,-30,-89,-98,-79,-128,-41
-4,-56,-52,30,24,-53,-30,-102,-97,-91,-131,-39
-33,-54,-21,44,-5,-37,-10,-100,-103,-94,-130,-42
-44,-56,-12,51,-15,-34,-11,-99,-104,-99,-130,-47
-36,-54,-18,45,-9,-36,-9,-95,-110,-103,-130,-55
-45,-56,-11,51,-16,-34,-8,-96,-108,-109,-130,-50
-35,-56,-21,46,-7,-38,-3,-93,-100,-116,-141,-53
-94,-62,33,78,-63,-14,-7,-89,-95,-103,-140,-67
-119,-65,54,91,-86,-5,14,-87,-87,-87,-132,-61
-107,-65,42,85,-74,-11,30,-82,-81,-84,-126,-57
-108,-79,29,93,-68,-25,1,-81,-70,-80,-119,-52
-67,-28,39,47,-53,6,36,-69,-62,-74,-112,-47
-79,-16,63,47,-71,23,41,-58,-65,-69,-102,-44
-84,-49,35,66,-60,-7,15,-48,-65,-62,-100,-30
-66,-35,32,50,-49,-1,27,-58,-67,-62,-100,-48
-64,-43,21,53,-42,-11,17,-77,-71,-65,-100,-64
-54,-38,16,45,-35,-11,13,-73,-69,-65,-99,-56
-43,-42,1,42,-22,-21,7,-83,-81,-65,-104,-56
-35,-57,-22,46,-7,-39,1,-99,-91,-65,-115,-52
-46,-42,4,44,-25,-18,-3,-103,-90,-64,-115,-50
-54,-42,12,48,-32,-15,-10,-109,-90,-68,-114,-48
-57,-47,10,52,-33,-18,-15,-113,-90,-74,-111,-44
-48,-43,5,46,-26,-19,-20,-118,-89,-76,-110,-42
-49,-41,8,44,-28,-16,-14,-119,-95,-80,-109,-39
-42,-40,2,40,-22,-18,-8,-111,-103,-78,-100,-36
-59,-39,21,49,-40,-9,0,-100,-91,-68,-90,-34
-86,-33,53,60,-70,10,6,-91,-77,-60,-80,-31
-70,-25,45,47,-57,10,14,-79,-64,-51,-71,-26
-35,-21,15,28,-25,-3,16,-81,-63,-53,-68,-24
-14,8,22,3,-18,15,8,-73,-55,-58,-64,-19
-18,22,40,-2,-29,31,-8,-82,-60,-56,-60,-16
40,-6,-46,-16,43,-26,-74,-133,-106,-77,-57,-12
24,-33,-57,5,41,-45,-97,-145,-121,-77,-52,-3
-9,-34,-25,22,8,-29,-70,-136,-122,-53,-53,1
35,-11,-46,-12,41,-28,-62,-133,-115,-32,-44,12
-34,-67,-33,51,0,-50,-44,-139,-127,-70,-71,-26
-58,-93,-35,76,-11,-64,-44,-125,-111,-90,-89,-65
-35,-62,-27,49,-4,-44,-35,-136,-126,-100,-99,-64
-39,-65,-25,52,-6,-45,-39,-124,-107,-84,-107,-56
-44,-67,-22,56,-10,-44,-28,-133,-113,-87,-91,-54
-59,-75,-16,67,-21,-45,-33,-132,-115,-88,-80,-50
-50,-70,-20,61,-15,-45,-22,-120,-85,-62,-64,-39
-88,-68,21,78,-54,-23,49,-130,-146,-147,-120,-79
-209,-32,177,120,-193,73,250,89,90,-23,-148,-130
-251,-4,247,127,-249,121,556,476,536,393,2,-99
318,43,-275,-180,296,-116,28,1042,1474,1444,633,267
802,-17,-819,-393,810,-417,-1036,52,584,1008,811,535
699,-111,-811,-294,755,-461,-1570,-1922,-1930,-1088,148,394
607,22,-585,-314,595,-281,-1472,-2017,-2066,-1350,42,401
276,145,-131,-210,203,7,-848,-1193,-1112,-666,166,400
16,106,90,-61,-37,98,-303,-490,-483,-310,27,169
-6,1,7,2,-7,4,-58,-112,-126,-113,-42,-7
-64,-53,10,58,-37,-21,30,-66,-108,-95,-48,-29
-49,-77,-28,64,-10,-52,18,-4,-44,-49,-36,-29
-83,-86,-4,84,-39,-44,50,-10,-59,-84,-36,-30
-55,-72,-17,64,-19,-44,79,5,-32,-57,-46,-38
-29,-70,-40,50,6,-55,80,-1,-26,-53,-70,-62
-76,-61,15,68,-45,-22,88,39,4,-35,-47,-53
-65,-60,5,62,-35,-27,95,59,25,-9,-37,-48
-67,-53,14,60,-40,-19,91,69,44,9,-37,-41
-63,-49,13,56,-38,-18,81,101,65,19,-28,-34
-38,-44,-7,41,-15,-25,113,111,72,18,-28,-30
-53,-31,22,42,-37,-4,138,150,105,36,-23,-25
-56,-30,26,43,-41,-3,132,177,118,44,-22,-24
-35,-5,30,20,-32,12,174,221,154,59,-18,-17
-58,-6,52,32,-55,23,193,274,199,84,-4,-16
-45,0,45,22,-45,22,223,333,249,125,21,-10
-35,12,47,11,-41,29,269,406,317,168,43,-2
-56,12,68,22,-62,39,288,473,377,204,59,7
1,79,78,-40,-39,78,317,561,461,262,84,26
-6,77,82,-36,-44,80,321,626,532,305,76,11
-31,84,115,-27,-73,99,333,677,599,347,90,22
13,150,137,-81,-62,143,347,723,667,413,143,64
10,134,123,-72,-57,128,320,711,662,426,152,63
27,148,121,-88,-47,134,276,667,646,422,149,57
62,172,111,-117,-25,141,234,573,586,392,142,53
29,124,95,-77,-33,110,177,429,458,314,122,46
-2,85,87,-42,-44,85,112,291,322,240,87,42
29,73,44,-52,-8,58,64,159,198,161,61,33
16,50,34,-33,-9,41,32,69,114,98,47,21
-29,20,49,4,-39,34,14,8,35,39,29,9
-14,-2,12,8,-13,5,-8,-43,-21,-5,15,2
20,-19,-40,0,30,-29,-21,-77,-69,-39,-22,-19
18,-25,-44,4,31,-34,-19,-97,-94,-65,-37,-39
-19,-52,-33,35,7,-42,-22,-94,-89,-67,-35,-41
-61,-65,-4,63,-28,-34,-26,-87,-89,-69,-33,-44
-88,-47,40,67,-64,-3,-21,-103,-97,-77,-48,-47
-64,-49,15,57,-39,-17,-16,-121,-112,-87,-73,-49
-39,-50,-11,44,-14,-30,-13,-112,-106,-91,-69,-53
-34,-50,-16,42,-9,-33,-6,-106,-103,-94,-69,-55
-54,-55,-1,55,-26,-28,-7,-99,-100,-92,-65,-58
-81,-54,27,67,-54,-13,-18,-93,-95,-84,-65,-61
-52,-57,-5,54,-23,-31,-37,-87,-92,-79,-62,-53
-38,-60,-22,49,-8,-40,-25,-74,-78,-75,-43,-42
-52,-60,-9,57,-22,-34,9,-75,-70,-73,-39,-46
-65,-59,6,62,-36,-26,4,-75,-71,-70,-43,-44
-96,-61,35,78,-65,-13,-22,-77,-68,-67,-49,-45
-83,-53,30,68,-56,-11,-35,-84,-65,-64,-51,-51
-60,-34,26,47,-43,-4,-20,-90,-65,-69,-50,-46
-43,-29,15,36,-29,-7,-13,-95,-66,-70,-50,-44
-25,-19,6,22,-15,-6,-32,-96,-83,-70,-50,-39
-66,-29,37,47,-51,4,-41,-101,-100,-70,-50,-37
-81,-55,26,68,-53,-14,-39,-100,-97,-70,-52,-31
-37,-55,-18,46,-9,-36,-43,-116,-107,-71,-55,-39
-20,-54,-34,37,7,-44,-45,-136,-126,-76,-55,-52
-42,-51,-9,46,-16,-30,-45,-134,-125,-79,-55,-49
-36,-49,-13,43,-12,-31,-53,-135,-125,-77,-55,-49
-23,-49,-26,37,2,-37,-50,-135,-125,-74,-55,-45
-19,-35,-16,27,-2,-25,-41,-135,-125,-71,-50,-45
-9,-21,-12,15,2,-17,-33,-134,-124,-69,-43,-43
-6,-11,-5,9,0,-7,-25,-125,-118,-65,-38,-36
-8,-4,4,6,-5,0,-15,-121,-115,-66,-32,-32
-18,0,17,9,-18,8,4,-123,-108,-70,-28,-26
-6,6,12,-1,-9,9,1,-126,-107,-70,-25,-20
-18,-15,3,16,-10,-6,-26,-123,-98,-74,-25,-15
24,-12,-36,-5,30,-24,-80,-136,-114,-76,-26,-10
50,-3,-53,-24,52,-28,-107,-171,-152,-80,-23,-5
75,-17,-92,-29,83,-54,-97,-175,-140,-94,-27,-2
94,-9,-102,-42,98,-55,-90,-138,-113,-86,-14,5
-43,-28,15,35,-29,-6,-49,-146,-134,-98,-20,1
-27,-22,4,25,-15,-9,-48,-156,-131,-93,-39,-17
-8,-49,-42,29,17,-46,-53,-162,-156,-102,-55,-48
-43,-85,-42,64,0,-63,-57,-159,-169,-119,-66,-58
-18,-66,-48,42,15,-57,-53,-144,-149,-95,-59,-57
-42,-65,-23,54,-9,-44,-57,-160,-193,-132,-78,-67
-16,-51,-35,34,10,-43,-60,-124,-134,-80,-55,-59
-48,-46,2,47,-25,-22,-1,-162,-207,-145,-86,-82
-87,8,96,39,-91,52,106,-40,-56,-85,-117,-96
-227,29,256,99,-242,142,455,247,280,181,-63,-115
111,104,-7,-107,59,48,241,866,1193,1140,467,154
750,124,-626,-437,688,-251,-769,625,1330,1662,987,555
726,-20,-746,-353,736,-383,-1484,-1279,-1056,-214,506,499
643,25,-618,-334,631,-296,-1584,-2047,-2156,-1331,143,439
435,139,-297,-286,366,-79,-1089,-1412,-1368,-802,220,478
142,174,32,-158,55,102,-484,-733,-726,-436,112,272
54,62,8,-58,23,34,-144,-226,-241,-168,-5,47
-34,-35,0,34,-17,-17,-12,-127,-161,-140,-46,-23
-19,-17,2,18,-10,-7,-8,-70,-94,-90,-32,-34
-20,-30,-10,26,-4,-20,16,-48,-84,-77,-52,-50
-28,-22,7,25,-17,-7,23,-38,-82,-79,-50,-44
-55,-27,28,41,-41,0,35,-17,-61,-62,-49,-46
-51,-23,28,36,-39,3,50,-11,-67,-70,-52,-44
-50,-31,18,40,-34,-6,45,11,-43,-52,-48,-40
-28,-16,12,22,-20,-2,41,18,-44,-56,-50,-40
17,25,8,-22,4,16,65,50,-9,-36,-44,-42
29,24,-5,-26,16,9,77,68,15,-30,-43,-46
16,26,10,-21,3,17,83,88,38,-13,-39,-46
-52,24,76,13,-64,50,117,136,65,-6,-37,-51
-24,25,49,-1,-37,37,130,179,92,13,-35,-50
-21,26,47,-3,-34,36,146,209,129,42,-24,-34
-26,43,70,-9,-48,56,180,270,183,59,8,-13
-47,31,78,8,-63,54,225,336,236,102,19,-6
-91,24,115,33,-103,69,259,396,294,133,26,-17
15,106,92,-61,-39,99,286,486,380,197,49,-15
23,140,117,-82,-47,128,304,545,444,242,55,5
-8,129,137,-61,-73,133,311,603,518,276,73,15
15,130,115,-73,-50,122,316,650,584,339,95,28
-4,155,159,-76,-82,157,306,657,607,365,117,56
8,164,156,-87,-74,160,278,642,618,374,135,71
32,161,130,-97,-49,145,223,562,570,350,133,76
44,179,135,-112,-46,157,159,447,471,306,125,72
34,142,108,-89,-37,125,93,301,330,235,102,57
60,132,72,-97,-7,102,41,161,194,147,72,48
51,104,53,-78,-1,79,0,58,94,85,37,37
4,50,46,-27,-22,48,-38,-18,13,31,8,28
4,39,34,-22,-15,36,-48,-61,-42,-14,-2,17
-6,22,28,-8,-17,25,-49,-100,-84,-45,-13,8
-3,15,18,-6,-11,16,-61,-123,-111,-74,-30,1
-2,10,12,-5,-7,11,-66,-133,-124,-82,-38,-3
5,7,3,-6,1,5,-65,-140,-132,-86,-40,-9
32,2,-30,-17,31,-14,-66,-144,-149,-102,-47,-15
41,-2,-44,-19,43,-23,-65,-148,-164,-111,-65,-18
-7,-10,-3,9,-2,-7,-66,-149,-167,-124,-72,-29
-9,-13,-4,11,-2,-8,-63,-155,-162,-125,-68,-32
10,-24,-34,8,22,-29,-58,-153,-173,-150,-91,-56
-70,-38,32,54,-51,-3,-54,-142,-167,-153,-90,-57
-54,-8,46,31,-50,19,-50,-125,-127,-112,-58,-25
-16,-4,12,10,-14,4,-45,-118,-116,-106,-63,-47
-12,7,19,2,-16,13,-42,-110,-100,-94,-56,-44
16,22,6,-19,5,14,-38,-108,-98,-91,-64,-46
13,17,4,-15,4,10,-34,-102,-92,-78,-59,-52
15,14,0,-14,7,7,-31,-97,-97,-88,-56,-46
21,8,-13,-14,17,-3,-26,-96,-94,-83,-56,-55
-13,2,15,5,-14,8,-22,-75,-93,-85,-38,-27
-51,-22,29,36,-40,3,-8,-78,-97,-78,-59,-50
48,36,-12,-42,30,12,-16,15,41,70,70,10
4,-46,-50,22,27,-48,74,241,221,118,-111,-166
-295,-322,-26,309,-134,-174,492,822,705,191,-624,-690
-612,-512,100,562,-355,-206,1105,1700,1601,624,-892,-1040
-1020,-762,259,891,-640,-251,1686,2219,2245,902,-1125,-1292
-1393,-1020,372,1207,-882,-324,2151,2041,1638,-92,-1531,-1462
-1475,-1025,450,1250,-963,-287,2204,1096,95,-1420,-1784,-1430
-1256,-845,411,1050,-833,-217,1747,131,-824,-1648,-1526,-1156
-821,-578,243,699,-532,-167,1211,-158,-842,-1251,-995,-716
-473,-310,164,391,-318,-73,821,-118,-557,-757,-545,-382
-353,-189,164,271,-258,-12,700,-83,-358,-475,-306,-224
-275,-145,129,210,-202,-8,944,-17,-251,-312,-184,-139
-173,-86,87,130,-130,0,875,-31,-219,-218,-78,-55
-18,18,36,0,-27,27,263,-203,-277,-180,11,40
128,126,-2,-127,65,62,-168,-269,-290,-100,109,125
195,132,-62,-163,128,35,-292,-305,-294,-87,138,159
211,119,-92,-165,151,14,-339,-349,-292,-85,145,175
232,166,-65,-198,148,50,-373,-332,-285,-61,192,202
255,191,-63,-223,159,64,-423,-363,-285,-27,208,210
178,201,23,-190,77,112,-434,-388,-278,-6,236,240
169,231,61,-200,54,146,-450,-391,-277,17,283,280
283,290,7,-287,138,148,-489,-392,-272,44,324,313
292,314,22,-303,135,168,-536,-403,-269,69,382,363
290,330,40,-310,125,184,-591,-430,-265,113,445,418
394,415,21,-405,186,218,-647,-437,-245,180,538,490
467,454,-13,-461,240,221,-714,-431,-207,257,633,565
540,495,-46,-517,293,224,-788,-428,-160,347,726,634
593,529,-64,-561,329,232,-881,-426,-110,439,810,688
623,566,-57,-594,339,254,-954,-382,-22,552,894,746
699,611,-88,-654,393,262,-996,-310,79,667,945,764
715,603,-111,-659,413,246,-996,-226,179,749,940,748
713,597,-117,-655,415,240,-971,-127,278,797,931,732
666,561,-105,-613,385,228,-922,-40,344,814,877,668
569,508,-61,-539,315,223,-813,55,397,789,780,588
509,453,-56,-481,282,198,-682,128,397,708,660,492
422,386,-37,-404,229,174,-525,174,385,615,538,386
294,298,3,-296,145,150,-383,185,356,492,408,280
197,224,27,-210,85,125,-252,167,285,358,278,178
113,164,51,-138,31,108,-134,164,232,260,181,120
51,82,31,-67,10,56,-67,133,157,156,97,61
54,47,-7,-50,30,19,-24,82,98,64,43,15
-22,24,46,-1,-34,35,15,58,65,28,12,16
-86,-35,51,60,-68,8,46,30,10,-5,-27,-14
-80,-63,17,71,-48,-22,48,-7,-10,-42,-39,-46
-80,-60,20,69,-50,-20,45,-19,-13,-53,-39,-45
-56,-60,-4,58,-26,-31,45,-25,-22,-63,-58,-50
-52,-61,-9,57,-22,-35,45,-33,-27,-66,-63,-51
-33,-58,-25,46,-4,-42,45,-31,-34,-60,-65,-55
-29,-65,-36,48,4,-51,45,-26,-35,-58,-65,-55
-42,-76,-34,59,-3,-55,49,-21,-35,-54,-76,-55
-43,-75,-32,59,-5,-53,54,-18,-35,-49,-87,-55
-65,-93,-29,79,-18,-61,58,-12,-35,-61,-85,-57
-50,-103,-53,77,1,-78,59,-11,-35,-72,-90,-62
-44,-96,-51,70,4,-73,56,-20,-36,-73,-90,-57
-48,-94,-46,71,-1,-70,52,-29,-41,-85,-87,-55
-51,-90,-40,71,-6,-65,50,-30,-39,-91,-85,-50
-58,-84,-25,71,-16,-54,46,-30,-43,-93,-85,-54
-32,-92,-60,62,15,-76,46,-35,-67,-96,-85,-66
-37,-105,-68,71,16,-86,40,-35,-71,-99,-85,-65
-53,-106,-53,80,1,-79,42,-36,-69,-100,-84,-65
-52,-104,-52,78,1,-78,59,-40,-71,-95,-80,-65
-60,-105,-45,83,-7,-75,55,-40,-70,-95,-80,-65
-77,-122,-45,100,-16,-83,47,-40,-70,-94,-80,-65
-83,-122,-38,103,-22,-80,42,-40,-65,-90,-80,-65
-77,-114,-37,96,-20,-75,34,-44,-65,-90,-80,-65
-76,-110,-34,93,-21,-72,29,-51,-65,-89,-80,-65
-49,-103,-54,76,3,-78,25,-55,-65,-96,-80,-73
-34,-99,-65,67,16,-82,25,-55,-65,-101,-80,-76
-49,-95,-45,72,-1,-70,25,-57,-67,-95,-80,-70
-49,-95,-46,72,-1,-71,25,-60,-70,-93,-80,-68
-52,-95,-43,74,-4,-69,26,-60,-70,-88,-81,-63
-48,-95,-47,72,0,-71,20,-63,-70,-84,-86,-59
-52,-95,-43,74,-4,-69,11,-68,-71,-89,-91,-67
-53,-101,-48,77,-2,-74,2,-69,-76,-94,-94,-73
-56,-116,-61,87,2,-88,-4,-64,-74,-89,-92,-66
-80,-125,-44,103,-18,-84,7,-61,-70,-85,-87,-62
-85,-121,-35,103,-25,-78,20,-58,-69,-83,-84,-58
-73,-116,-43,95,-14,-79,29,-53,-64,-78,-81,-52
-47,-113,-66,80,9,-89,29,-51,-67,-75,-76,-51
-42,-108,-65,75,12,-86,32,-45,-69,-78,-76,-55
-42,-105,-63,74,11,-84,45,-53,-71,-81,-81,-55
-58,-102,-44,80,-7,-72,42,-55,-68,-79,-85,-54
-32,-97,-65,65,17,-81,36,-56,-78,-83,-90,-63
-48,-95,-47,72,0,-70,33,-73,-93,-91,-86,-67
-106,-90,16,97,-61,-36,27,-52,-62,-89,-84,-64
-72,-91,-19,82,-26,-55,24,-44,-51,-86,-85,-65
-51,-88,-37,70,-7,-62,19,-49,-58,-84,-80,-60
-36,-96,-59,66,12,-77,14,-43,-54,-80,-80,-60
-41,-111,-70,77,14,-90,10,-61,-56,-80,-79,-60
-39,-99,-60,69,11,-80,5,-66,-55,-80,-75,-60
-24,-84,-60,55,18,-72,0,-64,-55,-80,-75,-60
-27,-78,-51,53,12,-64,6,-66,-55,-80,-75,-60
-24,-73,-48,49,12,-60,19,-64,-63,-79,-75,-60
-24,-65,-41,45,9,-53,25,-66,-65,-81,-75,-60
-27,-63,-36,46,4,-49,33,-55,-50,-74,-71,-56
-23,-52,-30,38,4,-41,35,-44,-37,-62,-64,-49
-38,-49,-11,44,-13,-30,44,-31,-28,-49,-59,-44
-55,-28,28,41,-41,0,64,-27,-30,-42,-55,-38
-28,-29,-2,28,-13,-15,41,-23,-29,-38,-50,-30
-18,-82,-65,50,24,-73,17,-18,-29,-28,-48,-25
-16,-81,-66,49,25,-73,-5,-63,-63,-51,-43,-17
-18,-72,-54,46,18,-63,-45,-94,-88,-78,-40,-11
-7,-77,-70,42,32,-73,-35,-91,-85,-76,-37,-13
7,-74,-81,33,45,-77,-4,-94,-81,-77,-33,-17
-4,-75,-71,40,34,-73,-6,-102,-92,-85,-52,-32
-22,-89,-67,55,23,-77,1,-95,-80,-79,-75,-53
-39,-97,-58,69,10,-77,13,-103,-103,-106,-89,-62
-34,-89,-54,62,10,-71,13,-86,-77,-85,-81,-58
-42,-89,-47,65,3,-68,34,-96,-101,-103,-88,-62
-29,-82,-53,56,12,-67,17,-84,-84,-93,-83,-58
-33,-82,-49,57,8,-65,20,-76,-86,-88,-84,-61
-79,-69,10,74,-44,-30,62,-43,-89,-126,-110,-78
-197,-19,178,108,-188,79,345,236,249,94,-90,-114
-45,97,142,-26,-94,119,458,750,904,754,237,38
526,163,-363,-344,445,-100,-296,1025,1719,1850,931,456
770,88,-682,-429,726,-297,-1189,-435,213,923,845,578
694,51,-643,-373,669,-296,-1559,-2052,-2040,-1122,227,426
496,101,-396,-298,446,-147,-1234,-1725,-1732,-1109,173,440
187,127,-60,-157,124,33,-603,-941,-923,-590,135,366
41,31,-10,-36,26,10,-214,-364,-402,-317,11,97
-30,-54,-24,42,-3,-38,4,-70,-113,-128,-38,-39
-28,-33,-4,31,-12,-18,51,-31,-91,-125,-67,-45
-29,-46,-17,37,-6,-31,64,5,-22,-71,-57,-59
-78,-74,4,76,-41,-35,74,1,-46,-90,-64,-67
-54,-65,-11,59,-21,-38,102,48,-15,-59,-66,-71
-27,-53,-26,40,0,-39,128,68,-20,-67,-77,-65
-60,-56,4,58,-32,-26,115,87,-4,-71,-67,-63
-65,-55,10,60,-37,-22,123,90,12,-64,-65,-59
-54,-55,-1,54,-26,-27,143,102,31,-51,-61,-55
-48,-56,-8,52,-20,-31,150,122,54,-37,-55,-52
-64,-52,13,58,-38,-20,136,143,69,-44,-52,-49
-86,-50,36,68,-61,-7,167,186,102,-13,-43,-50
-65,-46,20,55,-42,-13,175,208,119,-4,-38,-45
-107,-45,61,76,-83,8,199,258,162,11,-31,-45
-110,-35,75,72,-92,20,231,322,206,51,-24,-44
-71,-24,46,47,-58,11,244,372,245,68,-19,-40
-107,-6,101,56,-104,47,306,452,311,111,-13,-41
-93,36,129,28,-111,82,326,522,369,148,-7,-37
-77,46,123,15,-101,84,347,581,425,177,-2,-35
-71,55,127,8,-99,91,386,642,479,213,4,-35
-30,94,124,-32,-77,109,397,697,541,245,9,-31
-53,114,167,-30,-110,140,402,737,592,275,7,-29
-51,120,171,-35,-112,146,389,735,594,276,1,-26
-51,117,169,-33,-110,143,378,683,566,259,-3,-24
-77,111,188,-18,-133,149,352,605,521,238,-8,-19
-49,105,154,-28,-102,129,302,521,464,206,-12,-22
-44,89,133,-23,-89,110,229,403,370,158,-17,-30
-35,68,103,-17,-69,85,154,282,268,114,-21,-30
-13,46,59,-17,-37,53,109,183,182,79,-27,-30
-13,32,45,-10,-29,38,76,95,113,40,-30,-27
-21,15,36,2,-29,25,52,44,64,12,-35,-24
-8,19,27,-6,-17,23,34,7,18,-7,-40,-25
1,20,19,-11,-10,19,23,-25,-5,-21,-40,-35
9,12,2,-11,3,7,19,-47,-20,-31,-40,-41
-8,-14,-6,12,-1,-10,13,-61,-44,-43,-40,-39
-38,-43,-5,41,-16,-24,8,-61,-56,-51,-40,-44
7,3,-5,-4,6,-1,1,-65,-57,-57,-39,-45
27,23,-4,-25,15,9,5,-64,-67,-67,-43,-44
31,10,-21,-20,26,-6,32,-54,-66,-69,-52,-41
30,8,-22,-19,25,-6,46,-71,-52,-58,-49,-40
3,-3,-6,0,5,-4,44,-73,-48,-47,-46,-40
-5,-6,-1,6,-2,-3,45,-51,-43,-44,-43,-39
-18,-10,8,13,-13,-1,45,-50,-39,-42,-40,-41
-12,5,18,3,-15,11,45,-46,-34,-34,-39,-37
-10,5,14,2,-12,10,43,-43,-30,-28,-35,-35
-46,-20,26,33,-36,3,37,-39,-31,-21,-35,-35
-59,-17,42,38,-50,12,33,-34,-30,-20,-33,-32
-50,-11,40,30,-45,14,28,-52,-30,-20,-29,-29
-45,-7,38,25,-41,15,24,-62,-30,-16,-31,-32
-33,1,34,15,-34,17,19,-59,-32,-14,-34,-40
-32,4,36,14,-35,20,15,-61,-37,-17,-36,-41
-30,-1,29,15,-29,14,10,-66,-39,-30,-34,-36
-37,-14,22,25,-29,4,5,-84,-59,-48,-32,-35
-19,-13,5,16,-12,-4,2,-97,-76,-56,-29,-30
4,19,15,-11,-6,17,-5,-93,-75,-54,-30,-32
-20,26,46,-4,-33,36,-3,-98,-80,-56,-41,-49
-35,11,46,11,-40,28,4,-95,-88,-54,-39,-45
-24,17,41,4,-33,29,12,-86,-90,-57,-30,-40
-16,23,39,-3,-28,31,17,-74,-73,-51,-22,-35
-18,40,58,-11,-38,49,26,-66,-63,-33,-15,-28
-21,46,67,-13,-44,56,29,-74,-53,-15,-7,-26
41,64,23,-52,9,43,12,-73,-35,-16,2,-4
55,33,-22,-44,38,6,-24,-127,-94,-71,-3,-22
-23,-25,-1,24,-11,-13,-73,-158,-131,-84,-17,-42
30,5,-25,-17,27,-10,-71,-137,-111,-66,-24,-17
50,14,-36,-32,43,-10,-37,-139,-96,-53,-13,-14
-38,-28,10,33,-24,-9,-34,-150,-122,-76,-48,-45
-51,-56,-5,53,-23,-30,-37,-145,-134,-98,-66,-56
-55,-63,-8,59,-23,-35,-29,-155,-146,-109,-65,-56
-43,-63,-21,53,-11,-42,-33,-146,-136,-99,-66,-54
-46,-65,-19,56,-13,-42,-27,-150,-138,-94,-62,-55
-54,-74,-21,64,-17,-48,-46,-156,-151,-105,-71,-56
-40,-60,-19,50,-10,-39,-44,-135,-116,-67,-51,-50
-100,-39,61,69,-80,11,1,-141,-163,-139,-95,-78
-161,51,213,55,-187,132,205,78,82,-5,-101,-96
-206,100,306,53,-256,203,470,447,534,437,77,-61
255,94,-161,-174,208,-34,-27,929,1348,1379,638,267
817,60,-757,-438,787,-349,-993,66,623,1033,798,501
774,-57,-831,-359,803,-444,-1569,-1885,-1807,-1022,128,338
635,-23,-658,-306,647,-341,-1535,-2138,-2185,-1488,-62,342
362,113,-250,-237,306,-68,-945,-1320,-1263,-807,114,392
94,132,38,-114,28,85,-379,-601,-590,-369,44,199
4,19,15,-12,-6,17,-82,-153,-165,-105,-29,0
-19,11,30,4,-25,20,20,-78,-118,-89,-44,-27
-36,19,55,8,-46,37,31,-30,-64,-45,-48,-32
-95,-29,67,61,-81,19,48,-11,-58,-54,-73,-61
-70,-11,59,40,-64,24,50,17,-20,-38,-62,-52
-42,14,56,14,-49,35,57,24,-13,-34,-55,-57
-42,11,54,15,-48,32,50,32,-7,-35,-50,-54
-77,-29,48,53,-62,9,47,41,6,-23,-41,-55
-21,37,58,-8,-40,47,76,73,27,-18,-39,-53
22,63,41,-43,-10,52,106,101,47,1,-32,-49
-53,9,62,22,-58,35,115,121,58,9,-30,-47
-47,59,106,-6,-77,82,132,174,112,38,-27,-43
-7,98,105,-46,-57,101,147,199,133,63,-22,-41
-31,73,104,-22,-68,88,152,245,162,71,-20,-39
-37,70,106,-17,-72,88,171,313,216,90,-9,-35
-35,68,103,-17,-69,85,205,374,261,118,5,-30
-43,73,116,-15,-80,94,233,457,328,166,19,-27
-54,74,128,-10,-92,101,274,534,397,206,36,-22
-45,77,121,-17,-83,99,297,603,460,240,44,-15
1,149,148,-75,-74,148,323,703,564,315,79,12
4,172,167,-89,-82,169,349,764,638,372,102,28
-13,151,164,-69,-89,157,327,786,677,406,123,36
-28,148,176,-60,-102,162,333,811,709,452,163,66
-10,144,154,-67,-82,149,316,759,684,446,159,72
26,144,117,-85,-46,130,239,635,615,398,140,61
26,119,93,-73,-33,105,172,473,481,338,126,55
19,80,61,-50,-22,70,111,313,326,244,108,45
-5,32,37,-14,-21,34,53,170,193,150,81,40
3,7,4,-5,-1,6,22,67,95,88,48,26
21,-5,-25,-7,23,-15,3,21,25,41,13,15
-37,-39,-2,38,-17,-21,-14,-37,-32,-1,-6,4
-49,-53,-3,51,-23,-27,-25,-71,-55,-27,-6,-4
3,-43,-46,20,25,-45,-37,-88,-82,-49,-36,-19
19,-49,-68,15,44,-58,-32,-106,-102,-70,-53,-43
-1,-73,-71,37,36,-72,-18,-104,-98,-75,-49,-42
-8,-77,-69,43,31,-73,-8,-109,-107,-74,-51,-39
0,-71,-71,35,36,-70,-3,-115,-116,-77,-50,-41
-23,-90,-67,57,22,-79,0,-116,-115,-80,-50,-39
-41,-100,-59,71,9,-79,3,-113,-115,-79,-51,-41
-39,-90,-51,64,6,-70,7,-127,-124,-86,-58,-39
-40,-85,-45,63,3,-65,11,-135,-122,-92,-55,-40
-37,-77,-40,57,2,-58,15,-113,-109,-87,-55,-40
-34,-71,-37,53,2,-54,13,-110,-100,-85,-55,-40
-42,-74,-32,58,-5,-52,9,-111,-91,-82,-54,-52
-47,-75,-28,61,-9,-52,10,-109,-90,-79,-64,-56
-52,-75,-23,64,-14,-49,10,-111,-90,-78,-66,-55
-54,-75,-21,64,-16,-47,10,-109,-85,-73,-65,-55
-54,-77,-23,66,-15,-50,10,-107,-86,-72,-63,-55
-63,-81,-18,72,-23,-49,5,-104,-83,-68,-59,-55
-29,-80,-51,54,11,-65,-3,-106,-80,-66,-60,-49
-33,-77,-44,55,6,-60,-3,-104,-80,-64,-64,-43
-64,-83,-19,74,-22,-50,3,-105,-77,-57,-65,-35
-24,-75,-51,49,14,-63,6,-103,-76,-54,-65,-30
2,-48,-51,23,27,-49,11,-86,-72,-43,-69,-20
-49,-79,-30,64,-9,-54,-3,-109,-92,-60,-71,-27
-66,-93,-27,80,-19,-60,-16,-125,-100,-75,-68,-39
-32,-55,-23,44,-4,-39,3,-102,-78,-56,-64,-27
-24,-50,-26,38,1,-38,28,-87,-59,-40,-52,-18
-20,-45,-25,33,3,-35,42,-80,-51,-30,-35,-8
-21,-44,-23,33,2,-34,23,-60,-29,-9,-29,-4
-15,-45,-30,31,8,-38,4,-70,-41,-10,-31,-6
-9,-45,-36,27,14,-40,-23,-128,-100,-63,-30,-5
32,-44,-76,7,54,-60,-73,-146,-112,-85,-30,-5
23,-47,-70,12,47,-58,-81,-146,-111,-87,-31,-5
-5,-48,-43,27,19,-45,-65,-141,-107,-81,-35,-24
-28,-61,-33,44,3,-47,-51,-144,-137,-91,-66,-49
-110,-93,17,101,-63,-38,-46,-134,-128,-80,-69,-42
-100,-108,-8,104,-46,-58,-28,-148,-136,-100,-71,-46
-27,-87,-60,57,17,-73,-28,-149,-123,-105,-71,-39
-49,-77,-28,64,-11,-52,-5,-156,-120,-108,-67,-38
-84,-102,-18,93,-33,-60,-8,-160,-130,-121,-88,-62
-68,-106,-38,88,-15,-72,-32,-141,-97,-91,-76,-58
-108,-97,12,103,-60,-42,18,-151,-153,-169,-122,-91
-183,-15,168,99,-176,76,239,64,86,-33,-140,-111
-228,41,269,93,-248,154,565,456,529,382,10,-87
309,76,-234,-192,271,-79,67,1037,1464,1399,617,248
789,22,-768,-405,778,-373,-983,153,718,1068,819,533
697,-92,-789,-302,743,-440,-1561,-1846,-1803,-1008,154,375
595,-12,-607,-291,601,-309,-1501,-2045,-2089,-1379,14,385
233,127,-106,-180,169,11,-877,-1234,-1161,-719,151,394
8,132,124,-70,-58,128,-329,-540,-521,-346,32,178
-54,-5,48,29,-51,21,-77,-141,-136,-121,-37,17
-124,-57,67,90,-96,5,9,-98,-114,-135,-68,-43
-86,-57,29,72,-57,-14,20,-46,-34,-93,-58,-48
-79,-67,12,73,-45,-28,51,-42,-53,-100,-61,-44
-57,-56,1,56,-29,-27,44,-8,-37,-75,-51,-34
-80,-55,25,67,-52,-15,55,5,-28,-65,-47,-31
-63,-49,15,56,-39,-17,62,19,-13,-52,-42,-20
-58,-46,11,52,-34,-17,77,49,9,-34,-35,-31
-92,-42,50,67,-71,4,107,65,30,-28,-34,-47
-95,-53,43,74,-69,-5,95,80,57,-12,-28,-41
-47,-4,43,25,-45,19,109,104,63,-7,-27,-38
-76,-17,60,46,-68,21,150,136,94,8,-20,-35
-103,-31,72,67,-87,20,151,161,114,15,-21,-31
-57,19,76,19,-67,47,159,207,151,45,-10,-29
-51,27,78,12,-65,52,199,267,198,72,-6,-22
-49,32,81,8,-65,57,226,326,246,100,-13,-16
-54,26,80,14,-68,53,243,399,307,144,21,-9
-51,27,79,12,-66,53,274,463,366,175,33,-2
-73,31,104,21,-89,68,289,531,437,224,41,2
-13,102,116,-45,-65,109,333,630,539,291,80,25
19,160,142,-90,-62,151,376,699,617,359,110,42
-23,148,170,-63,-97,159,351,719,654,396,137,46
-36,140,176,-52,-107,158,311,723,677,403,136,53
-31,151,183,-60,-107,167,276,679,665,408,124,45
18,184,166,-101,-74,175,234,581,602,392,116,42
24,167,142,-96,-59,154,175,451,482,328,103,37
25,128,104,-76,-40,115,109,297,337,231,94,33
18,92,73,-55,-28,82,61,173,213,152,63,27
-8,55,63,-24,-36,59,24,74,109,86,13,8
-27,30,57,-2,-42,43,-3,2,22,26,-7,-12
-14,30,45,-8,-30,37,-10,-30,-24,-19,-8,-22
-18,16,35,1,-27,25,-35,-74,-66,-60,-34,-40
-29,-8,21,19,-25,6,-41,-108,-102,-76,-61,-61
-36,-16,21,26,-28,2,-19,-104,-102,-84,-65,-59
-52,-37,15,44,-33,-11,-37,-105,-118,-97,-67,-61
-46,-34,12,40,-28,-11,-40,-106,-125,-105,-81,-66
-27,-14,12,21,-19,-1,-27,-103,-124,-108,-91,-64
1,-27,-28,13,15,-27,-30,-114,-132,-111,-90,-71
-33,-15,19,24,-26,2,-10,-102,-117,-114,-86,-50
-37,-1,36,18,-36,17,-14,-102,-120,-110,-85,-38
-48,-51,-4,50,-22,-27,-26,-111,-126,-104,-82,-64
-44,-45,0,44,-22,-22,-15,-94,-109,-102,-80,-75
-27,-35,-8,31,-9,-22,-5,-87,-100,-87,-79,-65
-27,-11,16,19,-21,2,16,-84,-86,-68,-75,-60
17,1,-16,-9,17,-8,20,-81,-77,-70,-75,-52
12,-12,-24,1,18,-18,11,-79,-81,-66,-75,-45
-22,2,24,10,-24,13,10,-74,-79,-59,-75,-65
-69,-47,22,58,-45,-12,3,-76,-83,-59,-75,-77
-15,2,17,6,-16,10,-1,-82,-85,-47,-72,-77
-24,-12,12,18,-18,0,-5,-89,-86,-64,-66,-81
-63,-57,6,60,-34,-25,-27,-87,-81,-87,-62,-74
7,-3,-10,-2,8,-6,-36,-79,-82,-79,-56,-71
-27,-42,-14,35,-6,-27,-25,-76,-92,-78,-54,-67
17,15,-2,-16,9,6,-9,-66,-82,-69,-45,-62
24,25,1,-25,11,13,-5,-76,-89,-77,-44,-56
-44,-34,10,38,-27,-11,-18,-100,-108,-98,-60,-49
-24,2,27,11,-25,14,-8,-89,-91,-82,-62,-43
-52,-11,41,31,-46,15,9,-82,-82,-77,-54,-36
-45,5,51,20,-48,28,15,-79,-74,-83,-29,-30
-12,24,36,-6,-24,30,8,-72,-63,-85,-22,-24
5,-2,-6,-2,6,-4,-49,-105,-100,-92,-31,-19
34,-24,-58,-5,46,-40,-106,-131,-124,-94,-25,-13
68,15,-52,-41,60,-18,-81,-129,-129,-105,-10,-7
48,4,-44,-26,46,-20,-55,-115,-118,-94,0,-9
-23,-76,-53,50,15,-64,-55,-118,-128,-106,-42,-42
-35,-55,-19,45,-8,-37,-51,-99,-112,-95,-57,-56
-30,-58,-27,44,-1,-42,-48,-106,-125,-102,-63,-61
-18,-52,-34,35,8,-43,-45,-120,-139,-118,-82,-85
-16,-42,-26,30,5,-34,-47,-130,-142,-113,-87,-93
-12,-59,-47,36,18,-53,-47,-144,-165,-136,-98,-95
-53,-84,-31,69,-11,-57,-56,-123,-125,-93,-84,-97
-87,-85,2,86,-45,-41,-19,-152,-199,-175,-125,-105
-86,63,149,11,-118,106,185,41,30,-53,-121,-130
-210,85,295,62,-253,190,512,347,378,244,-43,-117
197,122,-75,-160,136,24,177,949,1340,1288,534,200
689,86,-603,-387,646,-258,-847,457,1146,1537,958,545
757,20,-736,-388,747,-358,-1474,-1433,-1324,-467,422,539
704,104,-601,-404,652,-248,-1470,-1927,-2048,-1282,149,480
268,75,-193,-171,230,-59,-990,-1315,-1270,-789,169,397
45,136,91,-90,-23,113,-402,-647,-639,-441,34,187
22,56,34,-40,-6,45,-102,-168,-166,-140,-39,3
-20,-8,12,14,-16,1,8,-85,-131,-125,-56,-47
-74,-5,69,39,-71,32,60,-20,-54,-71,-37,-42
-141,-66,75,103,-107,4,74,-21,-49,-84,-65,-44
-97,-45,52,71,-74,3,55,-6,-28,-73,-53,-37
-100,-45,55,72,-77,5,47,3,-11,-63,-50,-37
-85,-30,55,56,-70,12,87,22,-6,-65,-48,-34
-82,-26,56,54,-69,15,120,46,20,-45,-39,-31
-86,-26,60,56,-73,17,113,53,18,-48,-39,-30
-72,-12,60,42,-66,24,116,79,42,-32,-29,-29
-33,32,65,1,-49,48,119,105,69,-22,-25,-25
-53,12,65,20,-59,38,132,135,96,5,-17,-25
-42,-18,24,29,-33,3,153,158,112,17,-11,-23
-29,9,38,10,-33,23,170,195,144,33,-5,-17
-68,26,93,21,-81,59,211,255,192,64,2,-13
-71,18,89,26,-80,53,224,305,230,86,10,-8
-74,18,92,28,-83,55,242,367,289,125,19,-4
-37,50,87,-7,-62,68,321,447,371,179,33,1
-26,75,101,-24,-64,88,340,509,437,224,47,-7
-4,107,110,-52,-57,108,331,573,508,272,56,-4
-29,110,139,-41,-85,125,357,641,594,337,86,29
-49,143,192,-48,-121,167,353,682,653,394,96,47
-1,175,176,-87,-89,175,330,677,675,418,99,46
1,160,159,-81,-80,159,286,635,660,420,130,61
15,160,145,-88,-66,153,230,554,601,402,130,70
15,147,132,-82,-59,139,159,415,472,337,107,55
11,121,111,-66,-50,116,104,259,311,238,71,41
4,84,80,-44,-38,82,72,154,192,157,42,23
-11,53,63,-21,-37,58,18,50,89,84,20,14
-24,42,67,-9,-46,54,-11,-6,16,32,-14,1
-8,33,41,-12,-25,37,-11,-62,-37,-11,-37,-7
-2,18,21,-9,-12,19,-24,-83,-75,-46,-51,-24
-6,5,11,0,-9,8,-20,-106,-92,-68,-63,-37
-5,-10,-4,8,0,-7,-31,-124,-103,-82,-80,-38
-48,-19,29,33,-38,5,-42,-112,-97,-92,-93,-45
-44,-35,9,39,-26,-13,-25,-149,-40,-90,-89,-31
-36,-41,-5,39,-16,-22,-32,-77,21,-88,-90,-54
-22,-24,-1,23,-10,-12,-8,-180,16,-102,-92,-20
-21,-29,-8,25,-6,-19,-22,-24,14,-30,-86,-71
8,-8,-16,0,12,-12,-4,-260,15,44,-91,2
-19,-19,0,19,-10,-9,-40,-517,16,26,-4,156
-81,-19,61,50,-71,21,17,-18,16,-25,19,21
-117,-69,48,93,-83,-10,306,21,15,23,-25,-21
-46,-6,40,26,-43,17,239,-54,34,109,3,19
