I,II,III,aVR,aVL,aVF,V1,V2,V3,V4,V5,V6
390,262,-127,-326,258,68,-132,44,528,998,796,488
636,549,-87,-592,361,230,-697,-257,557,1353,1214,814
520,696,176,-608,171,436,-1312,-886,-151,697,944,779
-32,416,448,-192,-240,432,-1055,-1298,-1115,-583,-30,210
-32,273,304,-121,-168,288,-591,-751,-740,-455,-144,32
-37,110,147,-37,-92,129,-186,-243,-282,-190,-89,-14
-46,8,54,19,-50,31,-11,-85,-172,-143,-95,-43
-26,-11,15,18,-21,2,35,8,-67,-69,-67,-38
-57,-43,14,50,-35,-14,75,26,-60,-87,-89,-51
-31,-38,-6,35,-12,-22,77,68,-13,-46,-60,-31
-37,-47,-10,42,-13,-28,96,62,-15,-57,-69,-39
1,-33,-34,16,18,-33,94,74,9,-29,-45,-26
4,-31,-35,14,20,-33,105,95,26,-15,-39,-26
9,-25,-34,9,22,-30,104,104,51,4,-21,-20
17,-18,-36,1,27,-27,105,118,71,12,-8,-18
17,-15,-32,0,24,-23,105,131,83,34,2,-15
20,-6,-26,-7,24,-16,104,151,113,48,16,-11
17,-4,-21,-6,19,-12,106,179,135,59,30,-4
23,7,-16,-15,20,-4,103,215,170,87,50,17
49,39,-9,-44,29,15,111,249,216,122,79,37
66,61,-5,-63,35,27,116,294,272,176,112,53
82,84,2,-83,40,43,111,351,333,226,144,78
108,117,10,-113,49,63,109,419,410,297,195,123
133,152,19,-142,56,86,105,489,493,372,258,161
150,182,31,-166,60,106,101,557,570,434,306,192
171,201,30,-186,70,115,98,603,637,496,346,223
189,216,27,-203,81,121,92,612,662,513,356,225
192,217,24,-205,84,120,88,606,650,506,340,210
184,205,20,-195,82,112,84,559,604,473,321,194
143,163,20,-153,61,91,79,441,485,370,258,166
82,95,13,-89,34,54,75,297,330,247,167,111
45,51,6,-48,19,28,69,168,197,137,86,53
25,24,-2,-24,13,11,64,76,97,52,23,17
-5,-13,-8,10,1,-10,59,21,30,0,-21,-16
-16,-34,-17,25,1,-25,53,-23,-9,-36,-38,-36
-18,-35,-17,27,0,-25,47,-48,-28,-60,-47,-43
-32,-45,-12,39,-10,-28,42,-62,-37,-72,-58,-47
-30,-62,-32,46,1,-47,40,-69,-48,-83,-64,-50
-29,-62,-33,46,2,-47,37,-68,-50,-89,-70,-55
-28,-53,-25,41,-1,-39,34,-65,-50,-87,-70,-55
-29,-51,-22,40,-3,-36,31,-65,-50,-84,-70,-56
-28,-42,-14,35,-7,-28,30,-65,-50,-81,-70,-60
-31,-42,-10,37,-10,-26,30,-65,-51,-78,-70,-60
-55,-60,-5,58,-25,-32,30,-65,-48,-76,-68,-58
-58,-60,-2,60,-28,-31,30,-62,-41,-74,-61,-51
-47,-46,2,46,-24,-22,30,-56,-34,-70,-54,-44
-47,-41,5,44,-26,-18,30,-52,-28,-70,-48,-38
-45,-36,10,41,-27,-12,27,-48,-21,-68,-40,-31
-42,-34,8,38,-25,-13,25,-43,-15,-65,-36,-30
-32,-29,3,30,-18,-12,25,-40,-15,-65,-39,-30
-26,-26,0,26,-12,-13,25,-40,-15,-69,-42,-30
-20,-22,-3,21,-8,-12,25,-40,-15,-70,-45,-30
-8,-16,-8,12,1,-12,26,-40,-15,-70,-47,-29
-34,-43,-9,38,-12,-26,29,-40,-14,-70,-50,-33
-67,-59,9,63,-38,-25,30,-40,-18,-72,-53,-35
-61,-52,9,56,-35,-21,30,-43,-24,-75,-56,-35
-52,-51,1,51,-27,-25,30,-47,-29,-75,-59,-40
-48,-47,0,48,-24,-23,30,-52,-35,-78,-60,-40
-36,-44,-9,40,-13,-26,28,-55,-40,-82,-63,-41
-41,-48,-6,45,-17,-27,23,-57,-43,-85,-65,-45
-37,-53,-16,45,-10,-34,20,-60,-48,-89,-67,-44
-23,-54,-31,39,4,-43,17,-63,-50,-94,-71,-47
-25,-55,-30,40,3,-42,12,-68,-50,-95,-73,-51
-26,-55,-29,41,2,-42,10,-70,-54,-98,-76,-54
-30,-55,-25,43,-2,-40,10,-70,-55,-100,-79,-58
-29,-55,-26,43,-1,-41,10,-70,-55,-101,-80,-61
-34,-55,-21,44,-6,-38,10,-70,-60,-105,-80,-65
-28,-59,-30,44,1,-44,10,-70,-60,-105,-80,-65
-18,-60,-42,39,12,-51,10,-70,-60,-105,-80,-66
-25,-60,-34,43,5,-47,8,-70,-60,-105,-80,-70
-27,-60,-33,44,3,-47,5,-70,-60,-105,-81,-70
-31,-59,-28,45,-2,-44,5,-70,-60,-101,-77,-68
-37,-62,-25,50,-6,-43,5,-70,-60,-100,-75,-64
-36,-65,-29,50,-3,-46,5,-70,-60,-100,-75,-62
-37,-68,-30,52,-3,-48,6,-71,-60,-96,-72,-59
-40,-70,-30,55,-5,-50,9,-75,-60,-94,-69,-56
-44,-74,-30,59,-6,-51,12,-75,-59,-96,-71,-54
-45,-75,-30,60,-7,-52,14,-75,-55,-100,-76,-50
-41,-71,-30,56,-5,-51,18,-75,-55,-100,-76,-50
-36,-66,-30,51,-3,-47,20,-75,-55,-102,-74,-49
-31,-62,-31,46,0,-46,18,-71,-55,-105,-76,-45
-32,-57,-25,45,-3,-41,14,-66,-55,-105,-74,-45
-35,-53,-17,44,-9,-34,15,-63,-53,-99,-76,-43
-36,-47,-11,42,-13,-29,15,-57,-45,-86,-73,-39
-24,-28,-4,26,-10,-16,15,-53,-40,-75,-66,-37
-11,-10,1,10,-6,-4,32,-43,-33,-65,-61,-34
-18,-11,7,14,-12,-2,47,-30,-22,-57,-54,-31
-16,-8,7,12,-11,-1,45,-24,-14,-49,-52,-30
-22,1,23,10,-23,12,16,-27,-5,-47,-54,-35
-8,16,24,-4,-17,19,-29,-56,-24,-54,-57,-35
20,15,-5,-18,12,5,-46,-85,-53,-59,-59,-36
41,7,-34,-23,37,-13,-42,-83,-54,-64,-63,-41
57,-3,-60,-27,59,-31,-36,-88,-56,-76,-65,-39
18,-40,-58,11,39,-49,-31,-91,-54,-83,-66,-45
-17,-71,-54,45,18,-62,-24,-89,-70,-100,-90,-74
-29,-80,-51,54,11,-65,-21,-99,-91,-115,-106,-85
-48,-95,-47,72,0,-71,-14,-89,-80,-112,-103,-88
-59,-101,-43,80,-8,-72,-13,-103,-91,-120,-108,-92
-57,-98,-40,77,-8,-69,-8,-86,-78,-109,-101,-88
-71,-105,-35,88,-18,-70,-4,-103,-92,-122,-110,-93
-69,-102,-33,86,-17,-67,-2,-86,-79,-109,-99,-87
-80,-109,-29,94,-25,-69,6,-85,-88,-118,-104,-94
-79,-101,-22,90,-28,-62,1,-84,-87,-104,-94,-86
-67,-108,-41,88,-13,-74,20,-53,-75,-96,-93,-93
-54,-108,-53,81,0,-81,13,-92,-94,-109,-96,-84
0,-115,-115,58,57,-115,264,404,276,100,-35,-71
95,-24,-119,-35,107,-71,310,411,507,443,213,74
567,438,-129,-503,348,155,-632,-176,676,1183,987,644
668,675,7,-672,330,341,-1430,-628,317,990,1061,805
110,478,368,-294,-129,423,-1287,-1228,-789,-279,184,333
-69,306,375,-119,-222,340,-759,-921,-767,-474,-128,72
-38,144,182,-53,-110,163,-279,-314,-261,-195,-90,0
-61,30,91,15,-76,60,-53,-139,-133,-133,-90,-32
-61,-21,40,41,-51,10,29,-11,-27,-64,-69,-38
-76,-49,27,62,-51,-11,67,11,-15,-68,-78,-43
-71,-59,11,65,-41,-24,83,58,34,-37,-63,-38
-72,-63,9,67,-40,-26,99,70,41,-37,-66,-42
-53,-54,-1,53,-26,-27,99,83,53,-19,-57,-39
-43,-51,-8,47,-17,-29,100,86,68,-9,-51,-40
-31,-44,-13,38,-9,-28,100,90,71,3,-40,-33
-27,-38,-11,33,-8,-25,100,109,85,20,-30,-23
-25,-34,-9,30,-8,-21,100,119,104,30,-18,-16
-14,-25,-11,19,-1,-18,107,144,123,43,-3,-6
-6,-15,-9,10,2,-12,118,170,140,59,10,2
6,-5,-11,0,9,-8,124,208,182,91,33,13
15,8,-7,-11,11,1,130,238,216,110,51,32
23,24,1,-24,11,12,134,283,258,144,75,47
35,44,9,-40,13,26,135,341,308,196,109,71
59,76,17,-68,21,46,133,409,377,249,153,102
98,123,24,-111,37,73,129,493,462,321,203,137
128,168,40,-148,43,104,125,566,536,389,248,172
149,197,48,-173,50,122,122,626,602,448,291,198
161,212,51,-186,55,131,117,656,642,483,316,214
161,216,55,-189,53,136,114,651,650,482,322,207
158,205,48,-182,55,126,106,613,616,465,312,202
129,170,41,-150,44,105,94,514,509,396,266,182
86,120,34,-103,26,77,83,368,358,273,189,133
46,72,26,-59,10,49,71,220,216,161,104,79
11,31,19,-21,-4,24,57,105,105,68,39,25
-14,-2,12,8,-13,5,43,34,30,5,-4,-5
-28,-18,10,23,-18,-4,35,-11,-13,-31,-37,-12
-35,-28,7,31,-21,-10,32,-45,-46,-58,-54,-19
-44,-40,4,42,-24,-18,28,-58,-71,-69,-61,-27
-50,-49,1,50,-26,-24,25,-64,-76,-73,-65,-35
-48,-49,-1,49,-24,-25,20,-70,-78,-78,-65,-38
-49,-53,-4,52,-23,-28,22,-70,-81,-79,-68,-35
-52,-61,-9,57,-21,-35,26,-70,-80,-75,-70,-36
-49,-56,-8,53,-20,-32,24,-70,-80,-72,-70,-32
-46,-51,-5,49,-21,-27,29,-70,-80,-70,-66,-30
-46,-48,-2,47,-22,-25,30,-68,-80,-67,-65,-30
-43,-42,1,42,-22,-20,30,-62,-81,-65,-65,-27
-45,-41,4,43,-25,-18,35,-58,-78,-65,-60,-24
-51,-45,6,48,-28,-20,35,-53,-75,-65,-60,-21
-55,-45,10,49,-32,-17,35,-49,-75,-65,-59,-18
-64,-45,19,54,-41,-13,35,-44,-75,-65,-55,-15
-62,-45,17,53,-39,-13,35,-41,-75,-65,-56,-17
-57,-45,12,51,-34,-17,33,-38,-76,-66,-53,-19
-54,-48,6,51,-30,-21,29,-35,-79,-70,-50,-28
-52,-51,2,51,-27,-24,30,-33,-80,-70,-50,-37
-44,-50,-6,47,-19,-28,30,-28,-80,-70,-53,-32
-40,-48,-8,44,-16,-28,30,-42,-80,-70,-56,-30
-72,-68,5,70,-38,-31,30,-56,-79,-70,-55,-27
-79,-76,3,77,-41,-37,25,-57,-83,-74,-55,-23
-67,-68,-1,68,-33,-35,25,-60,-85,-75,-54,-34
-63,-68,-5,66,-29,-36,24,-60,-85,-75,-56,-46
-54,-61,-8,58,-23,-34,19,-59,-89,-75,-60,-41
-45,-60,-15,53,-15,-38,21,-61,-90,-75,-60,-38
-34,-65,-31,49,-1,-47,17,-59,-90,-75,-60,-35
-41,-68,-27,55,-7,-47,15,-61,-95,-75,-60,-30
-53,-73,-20,63,-16,-46,15,-59,-95,-75,-60,-32
-56,-75,-19,65,-18,-47,11,-52,-95,-75,-63,-39
-69,-78,-10,74,-29,-44,9,-69,-95,-75,-67,-45
-64,-81,-17,73,-24,-49,11,-76,-94,-75,-70,-45
-47,-77,-30,62,-8,-53,14,-69,-98,-78,-74,-45
-53,-75,-22,64,-14,-48,15,-67,-100,-89,-74,-45
-56,-71,-16,64,-20,-43,15,-62,-100,-91,-70,-44
-60,-69,-10,65,-25,-39,15,-59,-103,-87,-70,-48
-73,-75,-2,74,-35,-38,14,-56,-106,-85,-70,-57
-73,-75,-2,75,-35,-39,18,-51,-104,-81,-70,-56
-68,-75,-7,72,-30,-41,20,-48,-101,-80,-70,-55
-66,-75,-10,70,-27,-42,20,-45,-96,-83,-70,-54
-69,-75,-5,72,-31,-40,24,-39,-94,-88,-70,-50
-74,-75,-1,75,-36,-38,25,-49,-90,-90,-70,-50
-76,-75,1,75,-38,-36,25,-63,-85,-90,-69,-52
-81,-75,6,78,-43,-35,25,-59,-87,-90,-72,-55
-84,-74,10,79,-46,-32,25,-61,-90,-90,-76,-55
-85,-76,8,80,-46,-34,25,-60,-84,-90,-70,-58
-73,-73,0,73,-37,-37,25,-60,-77,-90,-64,-61
-60,-65,-4,63,-28,-34,25,-59,-71,-84,-59,-59
-58,-58,0,58,-29,-28,27,-45,-63,-67,-53,-56
-55,-47,8,50,-31,-19,37,-31,-62,-58,-50,-50
-51,-39,13,45,-32,-13,54,-24,-66,-60,-48,-47
-28,-12,16,20,-22,2,62,-25,-69,-61,-45,-42
-9,12,21,-1,-15,16,45,-25,-73,-65,-42,-33
-3,4,7,-1,-5,5,-7,-47,-75,-64,-39,-22
6,-3,-9,-2,8,-5,-38,-85,-81,-69,-44,-13
20,-9,-29,-5,24,-19,-30,-90,-87,-75,-47,-18
21,-27,-48,3,34,-37,-24,-89,-93,-82,-51,-31
-18,-62,-44,40,13,-52,-18,-95,-100,-92,-62,-43
-45,-91,-46,69,1,-69,-10,-92,-109,-102,-76,-49
-56,-100,-43,78,-6,-71,-6,-99,-124,-114,-90,-58
-58,-105,-47,82,-5,-76,1,-84,-115,-120,-103,-73
-64,-106,-42,85,-10,-74,4,-98,-126,-133,-107,-79
-57,-100,-43,79,-7,-71,10,-82,-114,-117,-104,-79
-41,-102,-61,72,10,-81,13,-97,-125,-127,-121,-81
-33,-97,-64,65,15,-80,18,-87,-116,-110,-108,-80
-48,-103,-55,76,3,-79,25,-85,-108,-117,-115,-94
-44,-97,-53,71,4,-74,21,-93,-116,-109,-105,-79
-54,-103,-49,79,-2,-76,32,-48,-79,-109,-104,-76
-64,-111,-46,88,-9,-78,7,-87,-110,-125,-105,-66
7,-123,-130,58,69,-126,240,448,282,116,-12,-56
100,-38,-138,-31,119,-88,336,484,595,446,230,78
567,441,-125,-504,346,158,-505,-262,593,1171,1018,666
661,706,45,-684,308,375,-1313,-798,126,960,1108,847
93,479,386,-287,-146,433,-1246,-1347,-941,-389,155,329
-56,294,350,-119,-203,321,-750,-997,-881,-560,-160,58
-36,131,167,-48,-102,149,-274,-332,-302,-220,-92,-4
-50,28,78,10,-64,53,-51,-137,-168,-154,-99,-46
-19,-8,11,14,-15,1,23,-6,-45,-74,-74,-47
-31,-43,-13,37,-9,-28,63,19,-27,-69,-83,-53
-14,-38,-24,26,5,-31,77,58,17,-30,-64,-48
-13,-41,-29,27,8,-35,86,71,32,-33,-65,-52
2,-36,-38,17,20,-37,83,87,45,-19,-53,-49
-1,-35,-34,18,17,-34,89,98,55,-13,-48,-48
-3,-35,-32,19,15,-33,95,104,55,-7,-42,-41
1,-29,-30,14,16,-29,94,124,77,14,-29,-34
6,-24,-29,9,18,-26,98,138,86,31,-18,-27
8,-18,-26,6,17,-22,100,160,106,53,-7,-21
10,-11,-21,0,16,-16,100,177,125,65,7,-8
25,6,-19,-15,22,-6,96,205,161,92,27,9
44,30,-14,-36,29,8,95,246,203,133,58,21
69,59,-11,-64,40,24,95,287,245,169,87,44
98,90,-8,-94,53,41,90,341,301,210,120,70
118,114,-3,-116,60,55,91,408,375,273,175,101
138,137,0,-138,69,69,89,472,449,334,210,135
173,176,3,-175,85,90,83,535,520,392,252,162
194,202,8,-198,93,104,76,596,594,463,312,194
214,225,11,-220,102,118,69,616,630,503,338,211
217,242,24,-230,96,133,63,596,618,506,329,208
203,227,24,-215,89,125,55,573,596,486,319,206
188,207,19,-198,84,113,60,488,505,410,268,170
151,168,17,-160,66,92,68,345,355,290,175,108
95,106,11,-101,41,59,64,212,220,173,101,59
48,59,11,-53,18,34,58,103,105,79,35,10
45,37,-8,-41,26,14,55,32,33,10,-16,-18
25,17,-7,-21,16,5,50,-12,-14,-28,-47,-32
7,0,-6,-3,7,-3,46,-43,-43,-51,-61,-53
22,-5,-27,-8,25,-16,41,-61,-55,-68,-70,-65
14,-10,-23,-2,19,-16,40,-69,-79,-77,-76,-67
3,-16,-20,6,12,-18,40,-70,-86,-92,-74,-70
-3,-21,-17,12,7,-19,40,-70,-85,-100,-75,-72
-16,-27,-11,22,-2,-19,40,-70,-85,-100,-75,-76
-28,-39,-11,34,-9,-25,38,-70,-85,-100,-75,-73
-49,-41,8,44,-28,-16,35,-69,-85,-100,-72,-66
-61,-40,21,50,-41,-9,32,-63,-82,-100,-67,-62
-53,-40,13,47,-33,-13,30,-58,-79,-98,-65,-56
-42,-40,2,41,-22,-19,26,-53,-76,-93,-60,-50
-32,-39,-7,36,-13,-23,25,-46,-73,-90,-57,-45
-28,-34,-6,32,-11,-20,25,-41,-71,-87,-54,-40
-26,-31,-5,29,-11,-17,25,-47,-68,-82,-50,-40
-23,-28,-5,26,-9,-16,25,-51,-65,-80,-46,-39
-17,-23,-6,21,-5,-15,25,-49,-65,-80,-43,-35
-22,-20,3,21,-12,-8,25,-51,-65,-80,-38,-35
-29,-20,9,24,-19,-5,25,-49,-65,-80,-35,-37
-18,-20,-2,19,-8,-11,25,-51,-65,-80,-38,-44
-11,-20,-10,16,-1,-15,25,-54,-68,-80,-43,-50
-2,-20,-18,11,8,-19,25,-57,-71,-82,-46,-50
0,-20,-21,10,10,-20,25,-60,-70,-85,-53,-54
-1,-20,-19,10,9,-20,25,-63,-71,-88,-59,-55
1,-19,-21,9,11,-20,21,-65,-80,-91,-64,-57
-19,-38,-19,28,1,-28,20,-65,-89,-94,-65,-61
-26,-47,-21,37,-2,-33,20,-65,-91,-97,-65,-59
-25,-44,-19,34,-3,-31,15,-65,-88,-99,-69,-64
-21,-46,-24,34,2,-35,15,-65,-95,-103,-70,-65
-4,-44,-40,24,19,-42,15,-65,-106,-106,-70,-65
-6,-46,-40,26,17,-42,15,-65,-105,-102,-70,-70
-17,-53,-36,36,10,-44,15,-70,-103,-100,-70,-70
-22,-56,-34,40,6,-45,15,-70,-100,-97,-70,-71
-24,-53,-30,38,4,-41,15,-70,-99,-94,-70,-75
-35,-64,-29,49,-2,-46,15,-70,-103,-90,-69,-74
-47,-71,-24,60,-12,-47,11,-70,-105,-90,-77,-78
-43,-69,-26,57,-9,-47,10,-70,-105,-98,-90,-80
-48,-70,-22,59,-13,-46,10,-70,-108,-101,-90,-80
-50,-70,-19,60,-16,-45,10,-70,-111,-99,-91,-85
-49,-70,-21,60,-14,-46,10,-70,-109,-100,-94,-85
-56,-70,-14,63,-21,-41,11,-70,-106,-100,-95,-85
-46,-70,-24,58,-11,-47,15,-70,-99,-101,-94,-85
-40,-69,-30,55,-5,-49,15,-65,-96,-108,-90,-85
-52,-72,-20,63,-16,-46,15,-60,-91,-106,-90,-83
-60,-74,-14,67,-22,-44,19,-55,-87,-100,-88,-76
-56,-64,-8,61,-24,-36,29,-51,-82,-95,-84,-69
-60,-58,2,59,-31,-28,35,-46,-75,-89,-86,-62
-61,-48,13,54,-37,-18,45,-43,-67,-84,-78,-56
-44,-42,2,43,-23,-20,47,-38,-61,-78,-63,-50
-17,-19,-2,18,-7,-10,28,-35,-65,-77,-53,-46
6,18,12,-13,-3,15,-6,-51,-66,-72,-47,-45
2,19,17,-10,-8,17,-38,-85,-82,-98,-61,-45
-14,-2,12,8,-13,5,-39,-102,-97,-117,-71,-45
-25,-23,2,24,-13,-10,-29,-98,-94,-116,-70,-45
-37,-41,-4,39,-16,-22,-25,-102,-96,-122,-70,-48
-60,-73,-13,67,-23,-43,-17,-97,-99,-118,-74,-64
-91,-110,-19,101,-36,-64,-11,-103,-122,-148,-103,-78
-87,-118,-31,102,-28,-74,-7,-94,-118,-157,-112,-79
-70,-122,-52,96,-9,-87,-3,-96,-121,-162,-118,-84
-69,-123,-54,96,-7,-88,-3,-92,-121,-158,-117,-85
-79,-126,-47,103,-15,-87,5,-83,-116,-160,-123,-90
-81,-124,-43,103,-19,-83,0,-95,-127,-163,-126,-90
-85,-125,-40,105,-22,-82,11,-67,-100,-152,-121,-94
-93,-126,-32,110,-30,-79,5,-104,-129,-164,-127,-98
-85,-123,-38,104,-23,-80,16,-47,-79,-122,-106,-90
-93,-132,-39,113,-27,-86,13,-107,-133,-162,-133,-103
-44,-137,-93,91,24,-115,123,238,127,22,-56,-79
4,-116,-121,56,63,-118,367,612,581,330,116,7
348,263,-85,-305,216,89,-172,17,646,1006,831,526
641,701,61,-671,290,381,-1086,-562,412,1307,1329,953
157,566,409,-361,-127,487,-1234,-1189,-669,-24,433,496
-149,302,451,-76,-301,376,-863,-1195,-1066,-692,-189,71
-69,166,235,-48,-153,200,-387,-458,-427,-292,-114,18
-95,30,125,33,-111,77,-97,-173,-201,-182,-113,-25
-85,-24,61,54,-72,18,5,-24,-82,-103,-63,-29
-103,-58,45,80,-74,-6,54,18,-40,-83,-67,-42
-100,-72,29,86,-64,-21,60,31,-19,-47,-56,-42
-95,-69,25,82,-60,-21,83,64,21,-33,-52,-45
-92,-71,20,81,-56,-25,91,66,20,-33,-48,-38
-82,-68,14,75,-48,-27,90,85,40,-8,-39,-30
-74,-65,9,69,-41,-28,90,83,41,6,-35,-25
-71,-65,6,68,-38,-30,90,110,66,29,-16,-16
-72,-62,11,67,-41,-25,90,121,78,29,-7,-13
-56,-46,10,51,-33,-18,93,139,92,47,9,-6
-49,-34,16,41,-32,-9,98,162,114,67,22,-1
-26,-12,13,19,-20,0,102,189,146,92,44,5
-15,7,22,4,-19,14,105,224,185,122,67,22
-1,23,24,-11,-13,24,107,265,226,159,94,49
4,45,41,-25,-19,42,110,318,283,213,123,61
14,76,62,-45,-24,69,107,377,347,271,168,88
53,113,60,-83,-4,86,103,443,424,342,234,137
81,146,64,-114,8,105,100,516,508,418,288,173
117,183,65,-151,26,124,96,580,577,482,330,208
134,209,76,-172,28,143,92,607,626,531,370,233
146,222,76,-184,34,149,88,623,638,542,391,229
147,211,65,-179,41,138,85,607,619,525,376,221
135,193,59,-164,38,126,82,521,544,475,329,207
109,160,50,-135,29,105,80,394,405,358,247,149
67,107,40,-87,13,73,76,255,251,224,151,78
34,58,24,-46,5,41,75,150,133,132,83,39
-2,11,13,-4,-8,12,71,61,51,66,32,8
-32,-24,7,28,-19,-8,64,3,-8,14,-5,-17
-38,-34,4,36,-20,-15,58,-22,-39,-26,-28,-30
-35,-37,-1,36,-16,-19,51,-42,-63,-46,-43,-40
-43,-48,-5,46,-19,-26,44,-45,-75,-51,-52,-45
-38,-51,-13,45,-13,-31,38,-55,-76,-65,-55,-47
-31,-49,-18,41,-7,-33,35,-57,-80,-74,-55,-50
-36,-50,-14,44,-11,-32,35,-54,-82,-72,-55,-53
-38,-50,-12,44,-13,-31,33,-55,-85,-70,-55,-56
-40,-49,-9,45,-15,-29,29,-49,-85,-70,-55,-51
-39,-44,-6,42,-16,-25,30,-51,-85,-70,-51,-50
-36,-41,-5,39,-16,-22,30,-47,-85,-70,-50,-50
-39,-38,1,38,-20,-18,30,-45,-85,-70,-50,-45
-35,-33,2,34,-18,-16,30,-46,-81,-66,-50,-45
-14,-30,-15,22,1,-22,30,-42,-77,-63,-50,-44
-3,-34,-31,19,14,-32,30,-40,-74,-61,-50,-40
-5,-35,-31,20,14,-33,28,-41,-70,-57,-50,-40
-10,-35,-25,23,8,-30,25,-44,-65,-55,-50,-38
-20,-40,-20,30,0,-30,22,-47,-67,-57,-50,-34
-22,-40,-17,31,-2,-28,20,-49,-71,-61,-50,-35
-32,-42,-9,37,-11,-25,17,-53,-70,-63,-51,-38
-27,-45,-17,36,-5,-31,15,-55,-74,-67,-54,-41
-9,-45,-36,28,14,-41,12,-58,-75,-82,-57,-44
-9,-44,-35,27,14,-40,7,-60,-75,-89,-59,-47
-12,-47,-34,30,11,-40,5,-62,-81,-92,-63,-49
-22,-58,-36,41,7,-47,0,-65,-87,-97,-72,-51
-27,-61,-34,44,4,-47,-3,-66,-93,-102,-80,-55
-23,-59,-36,41,7,-47,-7,-69,-96,-109,-84,-55
-22,-61,-39,42,8,-50,-10,-72,-100,-110,-81,-57
-18,-59,-41,38,12,-50,-10,-75,-105,-110,-80,-61
-24,-63,-39,44,8,-51,-12,-73,-105,-110,-80,-60
-31,-71,-40,51,5,-56,-16,-69,-105,-110,-80,-64
-29,-69,-40,49,6,-55,-15,-70,-105,-110,-79,-65
-31,-66,-35,48,2,-50,-12,-70,-105,-111,-84,-65
-11,-64,-53,37,22,-58,-9,-70,-102,-115,-95,-65
3,-59,-63,28,33,-61,-10,-71,-99,-114,-95,-64
-7,-63,-55,35,24,-59,-10,-73,-100,-117,-95,-66
-23,-78,-55,51,16,-66,-10,-85,-96,-120,-95,-70
-35,-85,-50,60,8,-67,-9,-96,-94,-120,-95,-70
-36,-85,-49,60,7,-67,-5,-94,-96,-120,-95,-72
-43,-88,-45,66,2,-67,-5,-95,-99,-120,-95,-75
-52,-91,-39,71,-6,-65,-3,-95,-104,-120,-95,-75
-51,-87,-36,70,-8,-61,1,-95,-103,-120,-95,-72
-54,-85,-31,69,-10,-58,-1,-91,-99,-120,-95,-66
-59,-84,-25,71,-16,-54,4,-84,-97,-119,-95,-62
-49,-79,-31,65,-9,-55,11,-78,-94,-111,-92,-57
-45,-81,-36,63,-4,-58,18,-70,-91,-103,-84,-53
-34,-61,-27,48,-3,-43,24,-66,-89,-95,-78,-48
-12,-33,-21,23,5,-27,31,-71,-84,-87,-71,-44
-12,-26,-14,19,2,-20,34,-70,-74,-81,-65,-39
-13,-20,-7,17,-3,-13,22,-72,-72,-80,-60,-36
-5,-13,-8,10,2,-11,13,-76,-77,-76,-56,-38
15,-5,-20,-5,18,-12,-14,-73,-79,-74,-52,-41
35,3,-32,-19,33,-14,-52,-89,-98,-69,-46,-44
50,8,-41,-29,45,-16,-55,-96,-109,-72,-47,-47
70,1,-70,-35,70,-34,-47,-95,-110,-94,-59,-50
48,-39,-87,-4,68,-63,-46,-102,-117,-104,-74,-51
2,-82,-84,41,43,-83,-39,-97,-118,-119,-96,-61
-17,-102,-85,60,34,-93,-37,-110,-133,-145,-113,-79
-27,-112,-86,70,30,-99,-30,-100,-126,-144,-107,-88
-33,-117,-84,76,26,-101,-25,-110,-132,-148,-113,-94
-30,-113,-83,71,27,-97,-18,-101,-120,-136,-107,-93
-46,-123,-77,85,16,-99,-10,-106,-124,-142,-113,-97
-43,-117,-74,80,16,-95,-7,-109,-120,-133,-107,-93
-52,-124,-72,88,10,-98,5,-100,-115,-134,-106,-97
-60,-124,-64,92,2,-94,0,-128,-133,-141,-106,-94
-57,-124,-68,91,6,-96,13,-80,-97,-121,-91,-94
-63,-129,-66,96,2,-98,-13,-148,-154,-150,-112,-93
22,-101,-124,40,73,-112,184,295,187,52,-41,-65
71,-61,-133,-5,102,-97,368,492,494,351,146,26
474,344,-130,-409,302,107,-410,-108,616,1067,867,554
726,706,-21,-716,373,342,-1323,-544,441,1183,1183,871
209,535,326,-373,-59,431,-1331,-1187,-674,-112,335,427
-39,341,380,-151,-209,360,-844,-1078,-903,-560,-127,101
-14,187,201,-87,-107,194,-338,-388,-337,-229,-91,23
-51,35,86,8,-69,60,-77,-173,-176,-159,-97,-31
-37,-17,20,27,-28,1,27,-34,-62,-87,-68,-33
-39,-36,3,37,-21,-16,73,-6,-41,-80,-76,-39
-29,-46,-16,38,-6,-31,78,31,-11,-49,-57,-32
-34,-49,-16,42,-9,-32,88,53,8,-44,-56,-37
-17,-42,-25,30,4,-33,89,55,24,-33,-48,-34
-17,-39,-22,28,2,-30,91,80,38,-18,-43,-35
-20,-34,-14,27,-3,-24,89,79,39,-9,-41,-33
-18,-29,-11,24,-3,-20,107,105,64,8,-33,-28
-20,-23,-3,22,-8,-13,117,120,66,15,-33,-27
-12,-11,1,12,-6,-5,113,135,92,34,-22,-22
-1,4,5,-2,-3,4,120,159,117,50,-3,-20
17,15,-1,-16,9,7,120,194,145,80,18,-9
34,30,-4,-32,19,13,120,233,181,110,34,16
45,43,-1,-44,23,21,128,272,224,152,51,36
66,74,9,-70,28,41,133,333,283,199,90,61
90,103,13,-97,38,58,130,395,345,247,135,93
108,131,23,-120,42,77,127,470,426,322,187,125
133,174,42,-154,45,108,124,540,502,393,231,156
149,197,48,-173,50,122,121,596,572,457,276,191
179,229,50,-204,64,139,120,645,628,503,324,220
188,228,41,-208,73,134,113,640,633,516,319,216
160,211,51,-186,55,131,102,613,607,505,307,209
139,205,66,-172,36,136,93,537,539,442,273,187
99,156,58,-128,20,106,82,395,401,324,199,138
50,103,53,-77,-2,78,72,247,252,200,126,90
20,66,46,-43,-13,56,63,121,136,107,61,44
-10,24,35,-7,-23,29,52,46,50,38,11,8
-25,-1,24,13,-25,11,44,-3,-12,-23,-30,-11
-21,-9,11,15,-16,1,39,-42,-55,-56,-45,-28
-38,-32,6,34,-22,-13,34,-60,-65,-57,-46,-39
-51,-48,3,49,-27,-22,28,-67,-69,-64,-50,-41
-49,-49,0,49,-25,-24,22,-70,-76,-76,-52,-44
-52,-54,-2,53,-25,-28,20,-75,-79,-80,-57,-47
-43,-49,-6,46,-18,-27,20,-75,-85,-80,-62,-50
-42,-44,-2,43,-19,-23,20,-76,-83,-80,-64,-49
-38,-37,0,38,-19,-18,20,-76,-80,-80,-61,-45
-33,-33,0,33,-16,-16,20,-71,-81,-80,-56,-43
-31,-27,4,28,-17,-11,20,-69,-76,-78,-54,-40
-28,-23,5,25,-16,-9,25,-64,-75,-73,-50,-37
-40,-34,6,36,-22,-14,25,-61,-75,-67,-45,-35
-40,-31,9,35,-25,-11,25,-58,-70,-64,-51,-32
-47,-24,23,35,-35,-1,25,-55,-70,-59,-57,-30
-52,-20,31,36,-41,5,25,-55,-69,-55,-54,-30
-42,-12,30,27,-36,8,25,-52,-65,-60,-55,-30
-40,-12,29,26,-35,9,25,-49,-65,-60,-55,-30
-44,-19,25,31,-34,2,25,-51,-67,-61,-54,-31
-54,-28,25,41,-39,-1,25,-54,-72,-65,-58,-35
-59,-37,22,48,-41,-7,25,-56,-75,-65,-60,-37
-51,-38,14,44,-32,-12,24,-54,-82,-65,-60,-40
-39,-32,8,35,-23,-11,20,-58,-92,-65,-63,-43
-30,-30,0,30,-15,-15,20,-60,-95,-65,-65,-46
-17,-25,-8,21,-4,-16,20,-60,-95,-65,-65,-49
-8,-22,-14,15,3,-17,20,-64,-95,-65,-65,-52
-10,-19,-10,15,0,-15,20,-65,-95,-65,-65,-55
-28,-30,-2,29,-12,-16,22,-65,-95,-73,-65,-55
-50,-50,0,50,-25,-25,26,-65,-102,-81,-65,-55
-48,-48,-1,48,-23,-24,25,-64,-106,-85,-64,-55
-44,-43,1,44,-22,-21,25,-68,-105,-85,-68,-58
-41,-42,-1,41,-20,-21,25,-70,-105,-87,-70,-61
-36,-35,1,36,-18,-17,25,-70,-105,-91,-70,-64
-33,-36,-3,35,-15,-19,30,-74,-105,-89,-73,-67
-24,-43,-19,33,-2,-30,30,-75,-105,-94,-76,-70
-33,-48,-16,41,-8,-32,30,-75,-105,-95,-74,-70
-42,-52,-9,47,-17,-30,30,-75,-105,-95,-71,-70
-41,-46,-5,44,-18,-25,30,-75,-105,-100,-70,-70
-59,-56,2,57,-31,-27,28,-75,-105,-100,-70,-70
-62,-59,4,60,-33,-27,23,-75,-105,-101,-70,-70
-60,-62,-2,61,-29,-32,20,-75,-105,-105,-70,-70
-62,-71,-9,67,-26,-40,17,-73,-105,-105,-73,-70
-54,-69,-16,62,-19,-42,12,-69,-105,-105,-75,-70
-69,-92,-23,81,-23,-57,11,-70,-104,-105,-75,-70
-75,-97,-22,86,-27,-59,14,-70,-106,-105,-75,-70
-71,-84,-14,78,-28,-49,21,-70,-109,-101,-69,-70
-71,-79,-8,75,-31,-43,24,-70,-103,-92,-62,-69
-70,-70,0,70,-35,-35,29,-59,-96,-86,-56,-63
-58,-53,5,55,-32,-23,34,-44,-89,-78,-49,-57
-38,-27,12,32,-25,-7,37,-33,-81,-71,-42,-51
-32,-14,17,23,-24,1,53,-29,-69,-61,-42,-46
-26,-3,23,14,-24,9,51,-28,-68,-54,-46,-41
-23,7,30,8,-27,18,26,-22,-72,-49,-45,-35
-13,10,22,1,-18,16,-10,-44,-77,-52,-45,-29
15,19,4,-17,5,12,-41,-70,-93,-75,-45,-26
44,13,-30,-28,37,-8,-36,-69,-98,-84,-45,-31
35,-13,-48,-10,41,-30,-29,-77,-106,-92,-47,-29
-1,-45,-44,24,21,-44,-23,-73,-108,-92,-60,-37
-35,-81,-46,58,6,-63,-14,-81,-118,-106,-87,-65
-57,-96,-39,76,-9,-67,-12,-95,-136,-131,-103,-74
-61,-103,-41,82,-10,-72,-4,-84,-135,-128,-109,-75
-71,-108,-37,89,-16,-72,-7,-98,-143,-134,-112,-80
-71,-108,-37,90,-17,-72,-4,-80,-127,-129,-107,-78
-85,-116,-31,101,-27,-73,-6,-101,-144,-143,-114,-83
-80,-111,-31,96,-24,-71,-6,-79,-126,-125,-105,-76
-86,-112,-26,99,-30,-69,-1,-98,-143,-139,-116,-92
-78,-101,-23,90,-27,-62,0,-87,-130,-120,-99,-87
-66,-103,-37,85,-15,-70,18,-86,-127,-129,-107,-91
-52,-107,-56,80,2,-81,28,-74,-120,-117,-89,-82
7,-123,-130,58,69,-126,308,470,293,113,-19,-63
148,22,-125,-85,137,-52,253,327,511,489,284,136
641,500,-141,-570,391,179,-776,-283,617,1211,1035,714
631,685,54,-658,288,370,-1493,-764,100,817,939,777
68,472,404,-271,-168,438,-1255,-1306,-910,-407,109,294
-36,303,340,-134,-188,321,-701,-853,-721,-452,-113,78
-21,137,159,-58,-90,148,-244,-274,-262,-194,-88,8
-25,34,60,-5,-43,47,-51,-113,-152,-144,-83,-10
-27,-9,18,18,-22,4,24,6,-53,-90,-68,-10
-57,-42,15,49,-36,-13,71,10,-40,-90,-71,-21
-31,-35,-4,33,-13,-20,82,61,5,-49,-55,-21
-32,-38,-7,35,-12,-22,96,71,6,-52,-56,-31
-22,-40,-18,32,-2,-29,101,86,21,-39,-45,-25
-24,-36,-12,31,-5,-24,100,97,35,-35,-39,-20
-15,-35,-19,25,2,-27,100,104,54,-22,-27,-15
1,-30,-31,15,16,-30,100,124,68,-8,-18,-9
-7,-30,-24,19,9,-27,100,138,79,-3,-8,-4
0,-18,-18,9,9,-18,107,163,103,21,3,1
9,-2,-11,-4,10,-6,117,189,129,48,13,10
7,3,-4,-5,5,0,125,213,160,70,32,19
33,34,1,-34,16,17,129,253,194,105,60,33
64,72,7,-68,29,39,126,312,250,149,92,53
72,82,10,-77,31,46,121,361,297,192,120,78
87,103,16,-95,35,59,119,426,364,246,155,99
124,143,18,-134,53,80,115,508,445,320,209,127
162,181,20,-172,71,100,111,577,520,392,262,167
186,221,35,-204,75,128,108,638,597,450,296,197
197,231,33,-214,82,132,101,671,634,488,312,210
190,219,29,-205,81,123,96,657,645,503,306,205
186,212,26,-199,80,119,91,613,603,481,292,196
164,184,21,-174,71,102,85,510,488,389,251,167
109,128,19,-119,45,73,80,356,344,266,175,115
52,65,13,-59,20,38,69,216,206,156,98,64
7,12,6,-10,0,9,54,110,102,73,41,23
-15,-16,-1,15,-7,-8,43,40,27,17,-6,-2
-22,-29,-7,26,-7,-18,36,-6,-28,-27,-41,-21
-24,-39,-14,32,-5,-26,32,-40,-55,-53,-53,-36
-30,-41,-11,36,-9,-26,26,-62,-65,-69,-59,-48
-43,-53,-10,48,-16,-31,20,-61,-78,-80,-60,-57
-50,-60,-10,55,-20,-35,15,-59,-81,-85,-62,-60
-57,-62,-6,60,-25,-34,10,-61,-80,-86,-66,-60
-64,-69,-5,67,-29,-36,10,-59,-85,-83,-63,-60
-60,-66,-5,63,-27,-35,10,-61,-85,-80,-60,-60
-60,-65,-5,63,-27,-35,10,-57,-84,-80,-60,-60
-61,-65,-4,64,-28,-35,10,-55,-80,-78,-60,-55
-49,-65,-16,57,-16,-40,10,-55,-80,-75,-60,-50
-52,-65,-13,59,-19,-39,10,-52,-80,-72,-60,-45
-63,-63,0,63,-31,-31,10,-50,-80,-69,-60,-42
-61,-59,2,60,-32,-29,10,-51,-81,-66,-60,-36
-63,-57,6,60,-34,-25,10,-55,-76,-65,-60,-33
-63,-54,9,58,-35,-22,9,-56,-75,-66,-60,-29
-65,-51,14,58,-40,-18,5,-55,-75,-65,-60,-32
-63,-49,14,56,-39,-17,5,-55,-71,-65,-61,-49
-60,-50,10,55,-35,-20,5,-55,-70,-63,-65,-50
-75,-67,8,70,-41,-29,5,-57,-71,-60,-65,-45
-74,-70,4,72,-39,-32,5,-62,-77,-60,-65,-44
-66,-64,2,65,-33,-31,5,-65,-84,-64,-65,-39
-62,-62,-1,62,-30,-31,5,-70,-89,-65,-65,-42
-53,-57,-4,55,-25,-30,5,-70,-90,-66,-69,-45
-40,-55,-14,48,-12,-34,5,-71,-90,-75,-70,-45
-32,-50,-18,41,-7,-34,5,-75,-90,-85,-70,-45
-35,-50,-15,43,-10,-32,5,-75,-89,-94,-70,-45
-34,-49,-15,42,-9,-31,5,-75,-91,-95,-70,-45
-32,-45,-13,39,-9,-29,5,-75,-95,-95,-70,-45
-35,-44,-9,39,-12,-26,5,-75,-95,-95,-70,-45
-39,-48,-10,44,-14,-29,5,-75,-97,-94,-70,-45
-28,-54,-25,41,-1,-39,5,-75,-100,-100,-70,-45
-28,-59,-32,44,2,-45,3,-75,-100,-108,-70,-45
-41,-70,-29,55,-6,-49,0,-80,-100,-107,-70,-45
-40,-70,-31,55,-4,-51,-3,-80,-100,-104,-74,-45
-40,-69,-29,55,-5,-49,-6,-80,-100,-105,-78,-44
-40,-70,-30,55,-5,-50,-10,-80,-100,-105,-83,-47
-40,-69,-30,55,-5,-49,-10,-80,-100,-105,-84,-55
-40,-70,-30,55,-5,-50,-5,-83,-100,-104,-80,-55
-40,-70,-30,55,-5,-50,-5,-85,-100,-99,-80,-55
-40,-70,-31,55,-5,-50,-5,-86,-100,-96,-80,-55
-41,-70,-29,55,-6,-50,-5,-83,-100,-93,-80,-55
-37,-70,-33,54,-2,-51,-6,-90,-100,-88,-80,-54
-27,-70,-43,49,8,-56,-2,-90,-101,-86,-76,-50
-35,-52,-17,44,-9,-34,11,-73,-93,-79,-70,-49
-26,-28,-2,28,-12,-14,22,-66,-78,-66,-65,-51
-4,-19,-15,12,6,-16,33,-55,-66,-55,-59,-49
-1,-12,-11,6,5,-11,43,-37,-59,-50,-54,-53
4,7,3,-6,0,5,47,-29,-62,-51,-49,-35
0,22,21,-11,-11,21,14,-41,-58,-49,-45,-1
-2,12,15,-5,-9,13,-37,-65,-68,-51,-45,-2
5,4,-1,-4,3,1,-46,-72,-89,-48,-43,-10
0,-5,-4,3,2,-4,-39,-70,-90,-58,-39,-15
-5,-15,-10,10,3,-12,-39,-98,-91,-75,-41,-23
-19,-35,-16,27,-1,-25,-32,-98,-90,-74,-44,-38
-50,-71,-21,61,-15,-46,-31,-103,-114,-98,-68,-62
-46,-73,-26,60,-9,-49,-26,-109,-116,-104,-85,-62
-50,-82,-32,66,-8,-57,-18,-110,-114,-116,-96,-73
-65,-104,-39,85,-13,-71,-14,-110,-118,-121,-100,-85
-66,-104,-38,85,-14,-70,-4,-97,-109,-117,-98,-89
-68,-99,-30,84,-19,-64,-2,-113,-125,-128,-97,-95
-63,-95,-32,79,-15,-63,10,-81,-101,-116,-88,-91
-72,-94,-22,83,-25,-57,5,-120,-133,-140,-97,-93
-60,-85,-25,73,-17,-55,18,-63,-92,-108,-78,-85
-95,-112,-17,103,-39,-64,5,-139,-146,-164,-111,-98
-38,-117,-79,77,21,-98,84,119,26,-30,-65,-79
17,-112,-129,48,73,-121,378,608,497,248,51,-36
300,180,-120,-240,210,30,-15,72,581,800,608,362
731,644,-88,-687,409,278,-1042,-547,445,1283,1242,873
348,612,264,-480,41,438,-1388,-1160,-497,212,608,601
-77,374,451,-148,-265,412,-1004,-1332,-1110,-657,-127,142
-58,204,262,-73,-160,233,-468,-595,-546,-350,-124,34
-67,55,121,6,-94,88,-112,-216,-234,-185,-107,-13
-48,-4,44,26,-46,20,3,-66,-120,-102,-84,-29
-73,-51,22,62,-47,-15,62,1,-59,-75,-83,-49
-62,-62,0,62,-31,-31,85,12,-42,-58,-74,-52
-54,-61,-7,58,-24,-34,95,63,-6,-37,-64,-43
-51,-62,-11,56,-20,-36,96,65,-10,-35,-61,-39
-34,-55,-21,45,-6,-37,94,85,20,-13,-44,-30
-30,-55,-25,43,-2,-40,96,85,23,-11,-40,-25
-19,-49,-30,34,6,-40,95,106,48,5,-25,-15
-23,-46,-24,35,1,-35,95,124,63,11,-15,-8
-8,-34,-26,22,9,-30,102,142,82,25,1,1
0,-22,-23,11,12,-22,111,166,108,59,12,14
16,-3,-19,-7,18,-11,109,186,134,78,23,24
48,27,-21,-38,34,3,110,223,176,99,50,43
44,29,-15,-36,29,7,110,270,215,148,76,67
60,46,-15,-53,37,15,110,314,267,188,104,86
91,89,-2,-90,46,43,109,377,335,235,145,101
97,122,25,-110,35,73,101,440,407,296,191,106
125,150,25,-138,50,87,95,510,489,366,252,128
162,187,25,-175,68,105,87,587,568,435,298,170
209,235,26,-222,92,130,79,621,625,488,334,195
223,247,24,-235,99,135,73,627,648,506,366,211
212,241,28,-227,92,134,66,615,642,506,365,221
194,221,27,-208,84,123,65,556,579,474,326,195
120,163,43,-142,39,103,65,442,453,362,245,144
63,112,49,-88,7,80,60,296,308,235,147,79
30,70,39,-50,-5,54,60,171,177,131,67,26
-6,29,36,-12,-21,32,59,84,84,43,9,-12
-35,-6,30,20,-32,12,54,24,23,-12,-37,-42
-61,-37,25,49,-43,-6,51,-22,-11,-39,-59,-50
-64,-47,17,55,-40,-14,48,-43,-32,-61,-62,-53
-56,-44,11,50,-33,-16,43,-50,-57,-66,-67,-54
-43,-40,3,41,-23,-18,40,-59,-71,-77,-80,-62
-43,-44,-1,44,-21,-22,40,-60,-74,-89,-99,-72
-42,-55,-13,49,-14,-34,40,-60,-71,-84,-99,-70
-24,-55,-31,40,4,-43,40,-60,-64,-86,-90,-69
-26,-53,-27,40,1,-39,40,-60,-61,-81,-85,-66
-28,-46,-18,37,-5,-32,40,-61,-57,-79,-77,-64
-25,-39,-14,32,-5,-26,39,-56,-51,-81,-71,-67
-29,-33,-5,31,-12,-19,35,-50,-52,-80,-70,-70
-23,-24,-2,24,-10,-13,35,-45,-56,-80,-70,-70
-10,-23,-13,17,2,-18,33,-40,-55,-80,-70,-70
-16,-32,-16,25,0,-24,30,-33,-55,-80,-70,-70
-32,-43,-11,38,-10,-27,30,-31,-55,-80,-71,-70
-35,-45,-10,40,-12,-27,34,-35,-55,-78,-68,-67
-37,-43,-5,40,-16,-24,35,-35,-55,-74,-65,-65
-33,-38,-5,36,-14,-21,35,-37,-55,-76,-62,-65
-27,-37,-10,32,-8,-23,39,-41,-55,-71,-60,-65
-18,-33,-15,26,-1,-23,41,-40,-55,-70,-56,-65
-10,-28,-18,19,5,-23,38,-44,-55,-70,-55,-66
-26,-50,-24,38,0,-37,35,-49,-57,-75,-58,-72
-35,-58,-23,47,-6,-40,32,-52,-60,-88,-61,-79
-35,-53,-18,44,-8,-35,30,-57,-60,-91,-64,-80
-40,-52,-12,46,-14,-32,27,-60,-60,-94,-67,-80
-40,-49,-9,45,-16,-29,24,-63,-60,-97,-70,-79
-45,-49,-3,47,-21,-25,22,-68,-60,-100,-70,-75
-58,-58,0,58,-29,-28,19,-70,-65,-103,-70,-75
-56,-67,-11,62,-22,-39,16,-70,-65,-107,-69,-75
-53,-64,-11,59,-21,-37,13,-70,-68,-110,-75,-75
-58,-69,-11,63,-23,-39,11,-70,-88,-107,-83,-75
-54,-71,-17,63,-18,-44,8,-70,-105,-104,-94,-71
-48,-68,-20,58,-14,-44,5,-70,-105,-101,-101,-70
-50,-77,-26,64,-12,-51,5,-66,-105,-99,-95,-70
-57,-86,-29,71,-13,-57,5,-65,-101,-94,-93,-70
-54,-85,-31,69,-11,-57,5,-65,-99,-100,-88,-70
-55,-85,-30,70,-12,-57,5,-65,-100,-112,-85,-70
-55,-85,-30,70,-12,-57,8,-65,-95,-108,-82,-70
-56,-85,-29,70,-13,-57,11,-63,-95,-105,-79,-70
-50,-81,-32,66,-9,-56,14,-60,-94,-103,-80,-70
-36,-76,-40,56,2,-57,17,-58,-89,-99,-75,-70
-33,-73,-40,53,4,-56,20,-55,-91,-98,-75,-70
-27,-67,-40,47,7,-53,22,-51,-86,-90,-74,-65
-25,-64,-39,45,8,-51,24,-50,-68,-84,-66,-57
-22,-54,-32,38,5,-43,35,-47,-53,-78,-58,-49
-20,-47,-26,34,3,-36,43,-44,-52,-70,-50,-41
-1,-21,-21,11,10,-21,40,-40,-45,-68,-44,-36
37,17,-20,-27,28,-1,18,-43,-53,-58,-34,-35
33,13,-20,-23,26,-3,-23,-71,-103,-69,-39,-35
23,1,-22,-12,22,-10,-50,-90,-136,-74,-43,-35
33,-10,-43,-11,38,-26,-46,-88,-139,-73,-52,-35
37,-22,-59,-7,48,-40,-41,-98,-149,-97,-66,-35
17,-43,-60,13,39,-52,-36,-91,-148,-105,-76,-40
-26,-86,-60,56,17,-72,-29,-109,-152,-125,-111,-67
-36,-96,-60,66,12,-78,-26,-114,-149,-124,-115,-80
-34,-94,-60,64,13,-77,-18,-105,-149,-125,-115,-82
-38,-98,-60,68,11,-79,-14,-107,-153,-126,-113,-79
-45,-112,-67,79,11,-89,-4,-88,-143,-123,-108,-80
-51,-117,-65,84,8,-91,-2,-104,-159,-136,-114,-77
-34,-109,-75,72,21,-92,10,-75,-127,-121,-104,-72
-41,-112,-71,77,15,-91,6,-119,-151,-140,-119,-80
-19,-101,-82,60,32,-91,5,-71,-103,-108,-98,-67
-15,-112,-97,64,41,-104,-3,-137,-145,-143,-125,-88
20,-124,-144,52,82,-134,62,82,1,-22,-84,-79
67,-135,-202,34,135,-168,351,602,468,254,32,-45
350,164,-187,-257,269,-12,5,146,575,819,603,360
747,655,-92,-701,420,281,-981,-470,506,1349,1299,908
394,639,245,-517,74,442,-1328,-1077,-425,289,655,617
-5,387,391,-191,-198,389,-999,-1303,-1131,-677,-148,120
17,214,197,-116,-90,205,-499,-611,-568,-375,-137,17
-4,56,60,-26,-33,58,-153,-231,-243,-215,-117,-34
20,0,-20,-10,20,-10,-33,-93,-130,-148,-97,-53
9,-39,-49,15,29,-44,26,-23,-63,-105,-95,-63
23,-54,-77,16,50,-65,44,-13,-53,-97,-90,-57
60,-46,-106,-7,83,-76,62,36,-6,-72,-78,-54
63,-47,-110,-8,87,-79,67,38,-11,-69,-75,-52
51,-41,-92,-5,72,-66,74,67,19,-37,-55,-49
7,-41,-49,18,28,-44,86,79,27,-28,-49,-44
-14,-37,-22,26,4,-29,89,101,57,-6,-25,-24
-23,-29,-6,26,-8,-17,101,122,79,11,-11,-12
-32,-21,11,26,-22,-5,112,144,107,35,4,0
-39,-12,27,25,-33,7,115,167,132,62,19,10
-39,-7,32,23,-35,12,120,194,149,80,31,19
-21,7,28,7,-25,18,120,222,193,107,57,34
-14,18,31,-2,-23,24,120,253,227,137,79,59
12,41,29,-26,-9,35,120,302,275,177,105,76
46,75,29,-60,8,52,120,358,340,236,152,100
55,105,50,-81,2,77,121,433,413,304,204,132
97,151,55,-124,21,103,119,506,491,376,258,171
141,189,47,-165,47,118,108,563,559,446,303,211
166,211,45,-189,60,128,96,611,617,492,334,214
170,233,63,-202,54,148,85,621,616,511,342,223
149,227,78,-189,36,152,75,594,603,515,342,231
122,186,64,-154,29,124,67,537,562,458,319,204
92,145,53,-119,20,99,61,424,433,348,251,159
55,98,42,-77,6,70,53,281,285,228,159,104
16,50,34,-33,-9,42,46,158,150,111,78,49
-10,16,26,-3,-18,21,39,65,60,33,24,3
-24,-6,18,15,-21,6,35,10,8,-21,-13,-14
-25,-15,10,20,-17,-3,35,-30,-37,-58,-29,-27
-37,-31,6,34,-22,-12,35,-63,-67,-76,-47,-44
-45,-42,3,43,-24,-19,35,-66,-75,-85,-57,-45
-53,-39,14,45,-33,-12,35,-65,-77,-85,-55,-45
-73,-36,36,54,-54,0,31,-65,-82,-85,-55,-45
-68,-33,35,50,-51,1,30,-65,-85,-85,-51,-45
-61,-30,30,45,-45,0,30,-64,-85,-85,-48,-45
-57,-29,28,42,-42,0,25,-60,-85,-85,-55,-45
-48,-25,23,36,-35,-1,25,-60,-85,-85,-66,-45
-47,-25,22,36,-34,-1,24,-60,-85,-85,-65,-45
-43,-25,18,34,-30,-3,20,-60,-82,-85,-65,-45
-40,-25,16,32,-28,-5,20,-60,-76,-85,-65,-45
-38,-25,12,31,-25,-6,20,-60,-71,-85,-65,-47
-31,-21,9,26,-20,-6,20,-60,-68,-85,-63,-51
-33,-20,13,26,-23,-3,20,-60,-62,-81,-59,-53
-45,-20,26,32,-35,3,16,-60,-61,-78,-60,-56
-53,-15,37,34,-45,11,15,-60,-65,-75,-56,-59
-48,-15,34,31,-40,9,15,-61,-65,-72,-54,-61
-41,-16,25,28,-33,4,10,-65,-70,-70,-56,-64
-41,-21,19,31,-30,-1,10,-67,-70,-71,-60,-65
-36,-26,11,31,-23,-7,9,-70,-73,-84,-65,-65
-33,-29,4,31,-18,-12,5,-74,-82,-91,-68,-65
-44,-42,2,43,-23,-20,5,-75,-85,-89,-73,-64
-51,-44,7,47,-29,-18,5,-79,-89,-90,-75,-68
-46,-36,9,41,-27,-13,5,-80,-90,-90,-75,-70
-41,-35,6,37,-23,-14,5,-80,-90,-90,-79,-70
-31,-28,3,29,-17,-12,5,-84,-90,-90,-80,-70
-27,-27,0,27,-13,-13,5,-86,-91,-90,-80,-70
-37,-40,-3,38,-17,-21,5,-83,-95,-90,-84,-70
-35,-40,-5,38,-15,-22,5,-80,-94,-90,-87,-65
-30,-35,-5,33,-12,-20,5,-80,-97,-90,-90,-65
-30,-35,-5,33,-12,-20,5,-80,-101,-91,-92,-64
-23,-28,-6,26,-9,-16,5,-80,-99,-95,-96,-60
-26,-35,-10,31,-8,-22,5,-80,-104,-95,-92,-60
-31,-46,-15,39,-8,-31,5,-80,-105,-95,-89,-62
-24,-42,-18,33,-3,-30,5,-80,-105,-98,-90,-65
-21,-40,-19,30,-1,-29,5,-80,-109,-101,-86,-65
-21,-34,-13,28,-4,-23,5,-80,-110,-105,-85,-68
-33,-45,-12,39,-10,-29,5,-80,-109,-104,-85,-71
-57,-63,-6,60,-25,-34,5,-81,-103,-100,-80,-69
-52,-58,-6,56,-23,-32,5,-88,-97,-98,-80,-66
-29,-61,-32,45,1,-46,4,-86,-93,-95,-80,-61
-35,-68,-33,52,-1,-50,7,-75,-86,-92,-80,-59
-28,-53,-25,41,-1,-39,19,-68,-81,-90,-81,-54
-16,-38,-22,27,3,-30,34,-59,-76,-86,-76,-51
-20,-33,-14,27,-3,-23,42,-55,-64,-74,-61,-47
-14,-26,-12,20,-1,-19,30,-53,-57,-68,-49,-43
-13,-9,4,11,-8,-3,12,-48,-42,-70,-49,-37
-4,7,11,-2,-8,9,-2,-63,-53,-70,-52,-34
16,9,-6,-13,11,2,-20,-86,-77,-75,-54,-29
29,-7,-35,-11,32,-21,-32,-91,-75,-75,-58,-24
13,-34,-47,11,30,-40,-28,-99,-98,-79,-59,-31
-13,-55,-42,35,15,-49,-22,-104,-103,-92,-67,-39
-54,-93,-39,74,-7,-66,-17,-106,-109,-108,-91,-67
-73,-120,-47,97,-13,-84,-12,-112,-134,-123,-99,-90
-56,-122,-66,89,5,-94,-6,-100,-124,-124,-102,-93
-67,-126,-58,97,-4,-92,-2,-110,-138,-130,-113,-96
-71,-124,-53,98,-8,-89,4,-92,-128,-118,-110,-93
-81,-126,-45,104,-17,-85,8,-105,-142,-133,-118,-97
-83,-124,-41,104,-20,-82,13,-88,-127,-117,-104,-92
-80,-126,-47,103,-16,-86,18,-95,-126,-131,-115,-99
-76,-118,-42,97,-16,-80,19,-90,-121,-119,-104,-91
-95,-144,-49,120,-23,-96,14,-72,-98,-116,-104,-105
-95,-145,-50,120,-22,-97,21,-73,-100,-129,-112,-90
-31,-141,-110,86,40,-125,286,435,279,119,-21,-59
75,-50,-124,-12,99,-87,325,390,478,434,209,75
545,403,-142,-474,343,130,-589,-194,617,1150,950,629
656,669,13,-662,321,341,-1426,-649,278,1008,1062,802
102,483,382,-293,-140,432,-1312,-1275,-843,-282,186,342
-76,297,373,-110,-225,335,-764,-964,-835,-502,-138,72
-44,134,178,-45,-111,155,-274,-324,-306,-210,-97,-12
-72,11,83,31,-78,47,-54,-148,-176,-151,-102,-57
-64,-36,28,50,-46,-4,18,-16,-64,-83,-75,-61
-66,-65,1,66,-33,-32,74,11,-52,-86,-79,-62
-41,-65,-24,53,-8,-44,100,50,-7,-44,-58,-59
-37,-62,-24,50,-6,-43,109,57,1,-42,-59,-59
-31,-59,-28,45,-1,-43,109,67,10,-29,-50,-53
-37,-55,-18,47,-9,-37,111,86,22,-21,-46,-56
-43,-55,-12,49,-15,-33,113,89,28,-15,-40,-50
-42,-49,-7,46,-18,-28,116,109,55,0,-34,-41
-45,-43,3,44,-24,-20,114,127,63,7,-27,-33
-38,-36,3,37,-20,-16,116,154,91,28,-12,-23
-30,-29,1,30,-15,-14,113,171,110,48,-2,-16
-20,-22,-1,21,-9,-11,122,197,140,72,17,-8
-7,-2,5,4,-6,1,135,239,185,103,37,3
8,22,15,-15,-4,18,136,282,221,138,59,22
26,51,25,-39,0,38,141,337,279,185,98,50
51,86,35,-69,8,61,138,407,347,244,142,82
77,114,37,-96,20,75,131,487,423,315,195,124
111,144,33,-128,39,89,126,560,502,385,249,162
160,186,26,-173,67,106,120,617,565,441,292,187
170,213,43,-192,64,128,115,645,605,478,319,197
163,216,53,-190,55,135,108,641,611,497,315,185
166,205,39,-186,63,122,100,609,586,490,307,172
142,176,33,-159,54,104,92,519,498,409,275,164
107,129,23,-118,42,76,84,377,360,292,198,123
66,81,15,-74,25,48,77,229,213,178,109,68
29,40,10,-35,9,25,67,113,101,84,40,25
-3,2,5,0,-4,3,58,40,35,27,1,-9
-26,-26,0,26,-12,-13,47,-13,-19,-15,-37,-23
-35,-42,-7,39,-13,-24,40,-41,-56,-48,-59,-41
-31,-41,-10,36,-10,-25,35,-47,-71,-71,-60,-47
-32,-42,-10,37,-11,-26,30,-61,-80,-78,-60,-44
-48,-58,-10,53,-19,-34,27,-73,-89,-78,-60,-46
-51,-60,-10,56,-20,-35,21,-70,-90,-75,-60,-44
-49,-60,-10,54,-19,-35,22,-70,-90,-75,-59,-45
-51,-60,-9,56,-21,-35,26,-70,-90,-75,-55,-41
-43,-60,-17,51,-13,-38,25,-70,-90,-75,-53,-36
-33,-60,-28,47,-2,-44,25,-70,-90,-75,-50,-32
-35,-60,-24,48,-6,-42,25,-68,-87,-70,-47,-27
-42,-61,-18,52,-12,-39,30,-63,-83,-70,-45,-23
-42,-57,-15,50,-13,-36,38,-60,-79,-70,-42,-18
-45,-55,-9,50,-17,-32,38,-57,-76,-70,-40,-15
-49,-55,-6,52,-21,-31,34,-52,-71,-70,-40,-15
-52,-52,0,52,-26,-25,35,-51,-71,-73,-40,-15
-57,-49,8,53,-32,-20,35,-54,-76,-76,-40,-15
-55,-51,4,53,-30,-23,35,-58,-74,-75,-41,-15
-52,-54,-2,53,-25,-28,35,-60,-78,-79,-46,-18
-51,-56,-5,54,-22,-30,30,-66,-81,-80,-49,-21
-44,-54,-10,49,-17,-32,27,-62,-80,-80,-54,-19
-41,-55,-15,48,-12,-35,23,-58,-84,-80,-62,-21
-44,-55,-12,50,-16,-33,20,-53,-87,-80,-64,-20
-43,-52,-9,47,-16,-30,15,-51,-92,-80,-60,-20
-55,-65,-10,60,-22,-38,18,-74,-95,-80,-57,-35
-61,-71,-10,66,-25,-40,31,-82,-95,-80,-55,-42
-54,-64,-10,59,-22,-36,31,-79,-95,-82,-51,-39
-51,-62,-11,57,-20,-36,30,-78,-95,-85,-50,-37
-42,-57,-15,50,-13,-36,29,-74,-95,-88,-54,-34
-40,-54,-15,47,-12,-35,24,-76,-91,-91,-56,-36
-38,-56,-18,47,-9,-37,26,-79,-90,-94,-54,-39
-31,-54,-23,43,-4,-38,22,-80,-90,-95,-56,-40
-31,-56,-26,44,-2,-41,19,-80,-90,-95,-60,-40
-18,-54,-35,36,9,-44,20,-80,-89,-95,-64,-39
-19,-56,-37,38,9,-46,20,-79,-93,-95,-69,-44
-38,-72,-35,56,-1,-53,20,-82,-100,-95,-70,-55
-37,-71,-35,54,-1,-53,20,-85,-100,-95,-70,-55
-34,-64,-31,49,-1,-47,15,-85,-100,-95,-70,-55
-30,-59,-29,45,0,-44,15,-85,-100,-95,-70,-55
-23,-54,-32,39,5,-42,15,-85,-100,-95,-69,-55
-11,-46,-35,29,12,-40,15,-85,-98,-95,-65,-55
-17,-52,-35,35,9,-44,15,-80,-94,-95,-65,-55
-32,-67,-35,50,2,-51,18,-80,-95,-95,-65,-55
-29,-64,-35,47,3,-50,33,-79,-95,-95,-65,-55
-28,-63,-35,46,4,-49,40,-75,-95,-95,-65,-55
-28,-59,-31,44,1,-45,42,-76,-95,-95,-62,-55
-35,-60,-25,48,-5,-42,45,-72,-88,-94,-57,-53
-35,-54,-19,45,-8,-37,47,-59,-80,-96,-54,-47
-26,-39,-13,33,-6,-26,51,-47,-72,-91,-50,-42
-25,-35,-10,30,-7,-22,46,-45,-64,-80,-47,-39
-20,-30,-10,25,-5,-20,35,-45,-57,-67,-43,-34
-11,-21,-10,16,0,-15,23,-46,-50,-61,-41,-30
28,18,-9,-23,18,4,14,-43,-40,-60,-38,-35
55,43,-11,-49,33,16,-19,-54,-62,-57,-35,-35
34,27,-7,-31,20,10,-54,-84,-96,-54,-32,-36
46,15,-31,-30,38,-8,-55,-84,-96,-56,-29,-41
29,-29,-58,0,44,-44,-55,-85,-102,-84,-35,-39
-2,-56,-53,30,26,-54,-49,-86,-108,-87,-45,-45
-12,-64,-51,38,20,-57,-36,-84,-112,-97,-60,-64
-48,-95,-48,72,0,-71,-29,-102,-131,-123,-75,-87
-55,-101,-46,79,-5,-73,-16,-89,-122,-116,-83,-96
-57,-100,-43,79,-7,-71,-14,-101,-127,-125,-93,-95
-59,-99,-40,79,-10,-70,-7,-81,-109,-113,-89,-97
-70,-102,-32,86,-19,-66,-3,-95,-116,-128,-102,-103
-66,-97,-31,82,-18,-64,0,-78,-100,-111,-95,-96
-75,-99,-24,87,-25,-61,8,-82,-101,-121,-101,-98
-69,-89,-20,79,-24,-54,5,-76,-105,-110,-82,-84
-76,-93,-17,85,-29,-55,17,-41,-86,-106,-78,-84
-48,-82,-35,65,-6,-58,7,-80,-112,-111,-74,-73
33,-82,-115,24,74,-98,243,485,329,144,19,-53
117,10,-108,-63,112,-49,300,471,607,510,296,130
580,481,-98,-530,339,191,-562,-287,578,1220,1098,722
593,723,130,-658,231,426,-1315,-842,57,886,1089,836
29,484,456,-257,-214,470,-1212,-1382,-991,-458,127,308
-79,287,366,-104,-222,326,-712,-950,-835,-545,-146,49
-56,139,195,-42,-126,166,-242,-299,-279,-212,-90,-6
-57,36,92,10,-75,64,-40,-124,-151,-147,-88,-38
-43,-11,32,27,-37,11,31,0,-36,-57,-72,-42
-57,-41,17,49,-37,-12,69,17,-27,-55,-86,-48
-35,-39,-4,37,-16,-21,85,67,25,-14,-69,-43
-30,-38,-8,34,-11,-22,92,72,34,-12,-80,-43
-14,-33,-20,24,3,-26,88,85,46,3,-70,-38
-17,-31,-14,25,-1,-22,91,94,46,8,-67,-41
-16,-30,-13,23,-1,-21,89,99,49,12,-61,-34
-14,-23,-8,18,-3,-15,90,119,75,30,-55,-28
9,-13,-23,2,16,-17,91,134,86,38,-50,-23
38,0,-38,-18,38,-19,96,153,114,45,-45,-15
28,-2,-30,-13,29,-16,101,172,139,66,-21,-5
30,1,-28,-15,29,-13,104,213,170,101,13,9
47,24,-23,-35,35,0,102,240,199,126,21,16
71,55,-15,-63,43,20,99,276,242,156,45,32
89,85,-5,-87,47,40,100,332,294,205,88,65
95,99,4,-97,45,51,95,397,363,267,142,105
131,138,7,-135,62,72,96,463,442,331,199,135
169,179,10,-174,79,95,94,524,510,393,234,161
184,199,15,-192,84,107,83,581,574,453,279,193
211,228,17,-220,96,123,70,606,608,498,313,222
207,232,26,-220,90,129,61,600,619,507,302,230
182,217,35,-200,74,125,60,572,587,476,288,206
163,191,28,-177,67,109,60,488,492,405,255,173
120,140,20,-130,50,79,55,355,356,291,178,127
73,90,16,-82,28,53,55,231,215,174,95,69
45,47,2,-46,21,25,54,119,109,82,27,9
12,18,6,-15,3,11,49,48,34,17,-26,-25
-31,-10,21,20,-26,5,46,3,-20,-28,-60,-26
-52,-39,13,46,-32,-13,43,-33,-52,-62,-74,-40
-55,-46,9,50,-31,-18,38,-36,-65,-73,-79,-47
-48,-45,3,46,-25,-21,35,-50,-70,-82,-82,-47
-42,-45,-3,44,-19,-24,39,-57,-78,-86,-84,-51
-42,-45,-3,44,-19,-24,40,-54,-84,-84,-88,-49
-49,-45,4,46,-26,-20,40,-61,-82,-89,-90,-50
-51,-40,11,45,-31,-14,40,-60,-79,-90,-93,-50
-25,-35,-10,31,-7,-22,40,-60,-76,-89,-95,-50
-20,-30,-9,25,-6,-19,39,-60,-73,-86,-95,-51
-36,-28,8,32,-22,-10,35,-61,-70,-83,-95,-47
-22,-18,4,20,-13,-7,35,-58,-71,-81,-95,-45
-34,-30,5,32,-19,-12,35,-55,-75,-78,-95,-45
-60,-61,-1,60,-29,-31,35,-56,-75,-75,-91,-45
-62,-60,2,61,-32,-29,35,-52,-75,-78,-86,-45
-70,-55,15,62,-42,-20,31,-49,-75,-81,-84,-46
-64,-54,10,59,-37,-22,25,-51,-75,-80,-79,-49
-54,-49,5,51,-30,-22,20,-54,-78,-80,-76,-52
-51,-52,-1,51,-25,-26,15,-57,-84,-80,-72,-56
-49,-56,-7,53,-21,-31,8,-60,-87,-80,-70,-59
-50,-61,-11,55,-20,-36,6,-63,-92,-85,-70,-63
-48,-65,-16,57,-16,-40,13,-66,-95,-85,-70,-65
-51,-65,-14,59,-18,-39,12,-69,-95,-87,-70,-65
-49,-66,-17,58,-15,-41,10,-72,-100,-92,-70,-69
-55,-64,-9,60,-23,-36,10,-76,-100,-95,-75,-70
-58,-69,-11,63,-23,-39,5,-80,-103,-101,-75,-70
-42,-79,-37,61,-2,-58,5,-80,-108,-105,-76,-75
-41,-83,-42,62,1,-62,5,-81,-111,-105,-81,-75
-42,-85,-43,64,1,-64,5,-85,-109,-105,-79,-75
-38,-85,-47,62,5,-66,5,-85,-112,-105,-83,-75
-39,-88,-49,63,5,-69,5,-82,-125,-105,-85,-76
-42,-91,-49,66,4,-70,5,-80,-125,-105,-85,-72
-45,-89,-44,67,0,-66,5,-80,-125,-109,-89,-70
-43,-86,-43,65,0,-64,1,-80,-125,-110,-90,-70
-44,-83,-39,63,-2,-61,0,-80,-125,-108,-90,-70
-44,-81,-36,63,-4,-58,0,-80,-124,-103,-84,-70
-42,-77,-35,60,-3,-56,-5,-74,-118,-100,-79,-69
-36,-75,-39,56,2,-56,-5,-67,-115,-97,-74,-65
-32,-73,-42,52,5,-57,-4,-61,-110,-92,-68,-57
-31,-62,-31,47,0,-46,4,-54,-105,-90,-62,-56
-17,-53,-37,35,10,-45,14,-47,-99,-83,-58,-45
-20,-41,-21,31,1,-31,21,-46,-85,-73,-52,-46
6,-24,-31,10,19,-27,34,-51,-77,-65,-51,-34
6,-1,-7,-3,7,-4,28,-52,-80,-59,-37,-33
21,15,-6,-18,13,4,-10,-57,-80,-61,-19,-16
