I,II,III,aVR,aVL,aVF,V1,V2,V3,V4,V5,V6
-6,55,61,-24,-34,57,-49,75,113,138,34,-32
-19,47,66,-14,-43,57,-39,72,92,109,12,-61
-36,32,68,2,-52,50,-33,64,62,57,-36,-109
-46,16,62,15,-54,39,-37,62,42,17,-70,-127
-75,-17,58,46,-66,20,-41,36,25,-9,-81,-132
-101,-48,53,74,-77,2,-37,14,8,-29,-90,-147
-86,-36,49,61,-67,6,-35,14,0,-48,-89,-148
-61,-18,43,39,-52,12,-33,-3,-2,-50,-86,-139
-80,-30,49,55,-64,9,-31,1,-6,-44,-83,-137
-110,-46,64,78,-87,9,-29,12,-10,-42,-80,-114
-82,-38,44,59,-63,3,-27,39,-8,-38,-79,-93
-85,-30,54,57,-69,12,-17,63,8,-34,-75,-96
-116,-25,91,70,-104,33,18,58,14,-29,-75,-99
-102,-17,86,59,-94,34,27,65,32,-20,-73,-103
-112,-17,95,64,-103,39,18,63,54,-15,-69,-105
-112,-24,88,68,-100,32,19,76,46,-4,-71,-113
-50,7,57,22,-54,32,4,127,71,22,-65,-114
-6,57,63,-25,-35,60,-36,128,87,23,-60,-116
6,61,55,-33,-25,58,-103,57,57,14,-53,-113
26,44,17,-35,4,30,-120,22,40,6,-49,-118
59,36,-23,-48,41,6,-110,-11,3,-8,-59,-136
51,30,-21,-40,36,4,-98,-30,-27,-42,-80,-154
10,12,2,-11,4,7,-59,-17,-37,-66,-90,-165
-1,2,3,-1,-2,3,-37,9,-36,-51,-86,-157
-73,-37,36,55,-55,0,-26,5,-41,-72,-96,-157
-150,-69,82,109,-116,6,-22,2,-33,-44,-75,-143
-207,-75,132,141,-169,28,3,49,6,-66,-84,-148
-231,-79,152,154,-191,37,23,9,12,-29,-67,-138
-280,-121,158,200,-219,18,183,449,283,-94,-204,-277
-94,54,148,20,-121,101,190,758,616,241,-16,-153
305,456,151,-381,76,304,-241,-396,-123,782,680,455
122,271,149,-197,-13,210,-476,-1611,-1489,-217,357,387
-110,-69,41,89,-75,-14,-362,-1279,-1378,-836,-249,-62
-31,-25,5,28,-18,-10,-204,-430,-434,-277,-170,-130
-41,-33,8,37,-24,-12,-116,-121,-141,-160,-153,-156
24,-9,-32,-7,28,-21,-82,-35,-32,-87,-136,-152
32,-6,-39,-13,35,-22,-63,-3,-5,-65,-126,-141
-8,-38,-30,23,11,-33,-57,31,4,-67,-117,-132
-15,-34,-20,25,3,-27,-15,55,28,-47,-98,-117
-48,-31,17,39,-33,-7,22,48,37,-50,-97,-113
-94,-32,62,63,-78,15,37,49,80,-5,-79,-97
-126,-20,107,73,-116,43,60,65,103,27,-71,-93
-144,34,178,55,-161,106,95,103,146,62,-34,-81
-116,73,189,21,-152,131,116,125,175,72,4,-74
-38,128,166,-45,-102,147,115,181,221,135,43,-50
12,159,147,-85,-67,152,99,201,234,155,58,-23
95,203,107,-149,-6,155,75,194,243,174,80,-2
157,244,87,-201,35,166,43,190,280,209,103,29
177,252,75,-215,51,163,-4,182,295,226,113,42
189,263,74,-226,57,168,-42,179,290,269,147,39
184,261,77,-223,53,169,-80,145,281,268,161,40
167,240,73,-204,47,156,-97,117,253,244,152,40
82,190,108,-137,-13,149,-92,99,205,216,149,40
34,157,123,-96,-45,140,-87,88,161,188,136,39
14,140,126,-77,-56,133,-64,91,129,145,87,5
-29,123,151,-47,-90,137,-29,87,108,85,35,-35
-25,111,136,-43,-80,123,9,85,90,60,25,-65
-19,109,128,-45,-73,118,29,85,76,27,18,-95
-12,113,125,-51,-68,118,39,81,68,2,3,-95
-16,102,119,-43,-68,110,43,80,64,2,-9,-88
-2,113,116,-56,-60,115,33,79,59,-12,-24,-87
16,126,109,-71,-47,117,28,81,55,6,-31,-77
-3,112,115,-55,-59,113,20,79,50,-5,-29,-64
-7,116,123,-55,-65,119,14,82,53,-49,-32,-50
-6,114,120,-54,-63,117,11,86,58,-35,-28,-42
2,114,113,-58,-56,113,22,91,60,-33,-33,-33
-28,116,144,-44,-86,130,42,95,88,-6,-34,-29
-49,107,157,-29,-103,132,51,96,106,35,2,-17
14,154,140,-84,-63,147,66,122,126,46,20,-4
73,203,130,-138,-29,166,62,153,160,86,34,11
118,237,119,-178,-1,177,39,177,186,87,45,33
186,290,104,-238,41,196,-27,129,193,70,50,49
214,291,78,-253,68,184,-75,77,166,99,68,69
188,249,61,-219,63,155,-71,72,125,88,53,65
121,191,70,-156,25,130,-88,51,91,55,42,62
23,123,100,-73,-39,111,-60,61,77,3,8,40
-1,102,102,-51,-52,102,-34,69,65,-19,-1,24
-27,92,120,-32,-74,106,2,102,76,-21,1,27
-75,74,148,0,-112,111,38,97,62,-20,-9,28
-77,97,174,-10,-126,135,61,125,79,-11,-16,48
-44,134,178,-45,-111,156,76,92,56,-16,-15,62
-19,150,169,-66,-94,160,159,268,183,21,-36,11
-17,155,173,-69,-95,164,311,809,659,99,-88,-72
361,511,150,-436,105,330,43,444,565,698,529,435
431,688,257,-559,86,473,-297,-770,-611,478,790,791
-4,252,257,-124,-131,254,-256,-1280,-1446,-725,-24,243
-47,93,139,-23,-93,116,-183,-739,-851,-597,-229,-25
-29,110,138,-41,-84,124,-113,-167,-157,-114,-59,9
-67,51,117,8,-92,84,-44,2,-25,-87,-67,-31
-78,31,109,23,-93,69,-26,62,60,-4,-23,-13
-77,21,98,28,-88,59,-22,46,68,-45,-64,-26
-75,23,98,26,-87,61,-6,22,86,-42,-70,8
-94,9,103,42,-98,55,35,-20,102,-27,-60,40
-52,54,106,-2,-79,80,46,-32,121,26,-20,45
-52,55,107,-1,-80,81,44,-12,157,67,21,39
-24,93,117,-34,-71,105,50,15,177,63,42,36
-24,131,154,-54,-89,142,53,30,192,80,49,29
9,135,126,-73,-58,130,39,42,205,94,53,40
47,154,107,-101,-31,131,17,91,220,97,76,80
56,163,107,-110,-26,135,3,123,243,119,98,111
118,212,94,-166,12,153,-17,133,273,149,121,131
109,217,108,-164,0,162,-54,123,293,209,170,159
64,204,139,-134,-38,171,-77,114,305,255,213,193
15,189,174,-102,-80,181,-99,106,300,246,215,197
-21,162,183,-71,-102,172,-124,100,291,244,219,206
-18,155,173,-69,-96,164,-106,98,255,240,214,207
2,163,161,-83,-80,162,-91,93,208,208,181,200
16,167,151,-92,-67,158,-86,91,171,121,141,171
23,156,133,-90,-55,144,-54,83,141,76,114,127
49,152,103,-101,-27,127,-12,96,124,70,82,115
48,140,92,-94,-22,116,13,113,105,40,52,91
41,129,88,-85,-24,108,27,115,91,21,34,73
34,115,82,-75,-24,98,36,119,82,17,20,76
29,106,77,-68,-24,91,47,131,76,2,24,75
23,92,69,-58,-23,80,72,137,69,-17,21,75
2,84,83,-43,-41,83,60,133,62,-22,12,75
10,114,104,-62,-48,109,46,143,56,-39,6,75
-5,96,101,-46,-53,98,56,126,55,-37,-4,70
-49,68,117,-9,-83,92,55,106,56,-54,-8,66
-70,74,144,-2,-107,109,55,116,53,-36,8,63
-80,56,135,12,-108,95,55,115,70,31,45,60
-57,68,125,-6,-91,96,56,127,101,28,58,55
-33,82,115,-25,-74,98,44,154,95,15,45,62
6,96,90,-51,-42,92,10,172,112,32,73,92
59,127,68,-93,-4,97,-47,151,130,42,94,103
72,121,49,-97,11,85,-94,114,105,38,83,94
83,118,35,-101,23,77,-94,105,91,14,72,85
79,94,16,-87,31,55,-75,84,45,0,60,76
55,62,7,-59,24,34,-38,87,28,-19,35,60
31,26,-5,-28,18,10,-20,95,15,-48,8,42
11,-9,-20,0,15,-14,-7,124,-4,-41,17,36
-18,-23,-5,20,-6,-14,12,122,-16,-79,14,25
-22,-18,4,20,-13,-7,32,124,-20,-77,12,28
-42,-10,32,26,-37,11,46,131,-11,-98,-14,11
-89,-61,28,75,-58,-17,65,133,-2,-84,-3,13
-130,-117,13,123,-71,-52,209,583,373,-63,-128,-101
27,89,62,-58,-18,76,128,704,639,335,143,112
218,406,188,-312,15,297,-227,-233,-184,661,768,694
-111,135,245,-12,-178,190,-295,-1125,-1431,-427,257,471
-380,-256,124,318,-252,-66,-193,-968,-1365,-957,-307,23
-320,-256,64,287,-192,-95,-137,-296,-485,-365,-140,21
-302,-259,43,280,-172,-108,-74,4,-174,-219,-128,-14
-253,-252,1,252,-126,-125,-47,89,-91,-168,-113,-28
-274,-300,-26,287,-124,-162,-32,83,-53,-176,-113,-20
-270,-323,-53,297,-108,-188,-27,31,-49,-176,-113,-4
-218,-266,-49,242,-84,-157,-18,10,-25,-133,-101,11
-211,-259,-47,235,-82,-153,-9,-18,-24,-132,-107,24
-222,-253,-31,238,-95,-142,4,-22,-8,-117,-91,32
-252,-271,-19,262,-117,-144,39,-23,8,-110,-93,30
-215,-229,-14,223,-101,-121,56,11,39,-63,-77,28
-151,-170,-19,161,-66,-94,47,44,59,-43,-55,45
-93,-129,-36,111,-28,-83,41,70,85,-26,-20,93
-46,-100,-54,73,4,-77,34,88,98,-17,3,117
-44,-99,-54,72,5,-76,28,91,115,9,14,136
-36,-72,-36,54,0,-53,19,111,149,64,34,152
-25,-58,-33,41,4,-45,-11,128,187,110,78,172
-46,-60,-14,53,-16,-37,-54,120,186,132,102,164
-89,-77,11,83,-50,-33,-94,109,167,126,88,130
-128,-111,16,119,-72,-47,-119,101,143,118,86,104
-158,-149,9,154,-83,-70,-135,84,94,81,71,83
-207,-199,8,203,-107,-95,-133,56,57,29,38,51
-227,-229,-2,228,-112,-115,-117,33,7,-33,-12,0
-208,-237,-29,223,-89,-133,-99,7,-47,-100,-76,-54
-230,-273,-43,251,-93,-158,-73,-11,-64,-117,-109,-95
-206,-265,-58,236,-74,-161,-42,-24,-80,-130,-125,-108
-148,-202,-55,175,-46,-128,-13,-38,-86,-144,-131,-90
-162,-198,-36,180,-63,-117,3,-34,-84,-137,-129,-71
-171,-202,-31,187,-70,-117,15,-35,-86,-142,-131,-65
-172,-195,-24,184,-74,-109,23,-35,-85,-139,-130,-54
-194,-216,-21,205,-86,-118,9,-34,-86,-141,-130,-52
-242,-258,-16,250,-113,-137,-9,-40,-92,-157,-140,-60
-279,-291,-12,285,-133,-151,-22,-38,-106,-157,-150,-65
-285,-290,-4,287,-140,-147,-20,-46,-104,-147,-141,-75
-300,-274,26,287,-163,-124,-17,-65,-90,-138,-126,-89
-290,-261,28,275,-159,-116,-14,-61,-83,-116,-112,-91
-239,-221,18,230,-128,-102,-9,-31,-61,-90,-98,-84
-182,-179,3,180,-92,-88,-20,-3,-29,-77,-85,-74
-129,-163,-34,146,-47,-98,-54,6,-4,-82,-80,-67
-75,-136,-61,106,-7,-98,-110,-47,-21,-79,-80,-69
-15,-102,-88,59,37,-95,-120,-78,-32,-84,-75,-71
22,-85,-107,32,65,-96,-112,-80,-47,-87,-75,-70
3,-114,-117,55,60,-115,-104,-101,-84,-85,-88,-71
-12,-153,-141,83,65,-147,-64,-102,-98,-129,-120,-99
-53,-189,-136,121,42,-162,-45,-97,-103,-128,-136,-129
-84,-187,-103,136,10,-145,-19,-79,-106,-156,-144,-151
-77,-177,-100,128,12,-139,10,-86,-110,-144,-133,-142
-131,-207,-76,169,-26,-142,46,-41,-81,-155,-159,-158
-108,-177,-69,143,-19,-123,36,-85,-116,-158,-138,-146
-171,-227,-57,199,-57,-142,155,243,113,-144,-214,-213
-154,-176,-22,165,-66,-99,265,726,564,37,-177,-213
166,221,55,-193,55,137,-120,-110,91,705,524,356
44,169,125,-107,-40,147,-419,-1460,-1343,52,494,507
-269,-232,37,250,-152,-98,-336,-1488,-1660,-933,-211,37
-266,-246,20,255,-142,-113,-198,-649,-674,-440,-219,-91
-265,-212,52,238,-158,-80,-62,-211,-193,-163,-143,-96
-267,-240,26,253,-146,-107,3,-103,-75,-121,-131,-99
-262,-238,24,249,-143,-106,33,-43,-10,-60,-106,-85
-237,-230,7,233,-122,-111,47,-23,-28,-85,-121,-89
-184,-188,-5,186,-89,-96,93,-11,8,-39,-99,-78
-145,-168,-23,157,-61,-95,120,-44,1,-58,-109,-78
-163,-188,-25,176,-69,-106,124,-58,32,-30,-94,-78
-147,-188,-41,168,-53,-114,147,-38,51,-33,-95,-102
-65,-140,-75,102,6,-107,146,6,63,-14,-84,-122
-45,-124,-78,84,17,-101,125,24,59,-1,-79,-163
-27,-121,-94,75,33,-107,103,60,74,11,-73,-176
-22,-109,-87,65,33,-98,82,100,98,33,-59,-155
-9,-89,-80,49,36,-84,48,121,119,51,-36,-114
14,-92,-105,39,60,-98,-3,133,147,80,-8,-81
6,-72,-78,33,42,-75,-54,128,176,129,29,-42
-6,-32,-27,19,11,-29,-81,134,224,201,92,20
-37,-13,24,24,-30,5,-99,118,233,242,131,47
-66,6,72,30,-69,38,-101,91,219,267,160,73
-125,-16,109,71,-117,46,-96,70,206,259,164,72
-144,-9,136,76,-140,63,-59,63,180,220,152,56
-148,-21,127,84,-138,53,-9,61,132,169,119,33
-180,-75,105,127,-142,15,27,38,91,107,57,-24
-129,-65,64,97,-96,-1,74,7,72,58,24,-62
-85,-65,20,75,-53,-22,85,-9,40,13,-16,-97
-53,-75,-22,65,-15,-49,90,-21,4,-20,-60,-114
0,-68,-68,34,34,-68,82,-53,-33,-47,-80,-115
25,-62,-87,19,56,-74,40,-68,-50,-61,-85,-138
45,-68,-113,11,79,-90,10,-67,-45,-75,-80,-139
10,-94,-104,42,57,-99,-9,-55,-38,-90,-78,-131
-28,-87,-59,58,15,-73,-17,-31,-30,-77,-73,-128
-63,-90,-27,77,-18,-58,-29,-13,-24,-69,-70,-113
-150,-128,22,139,-86,-53,-31,20,1,-55,-66,-87
-228,-153,75,190,-151,-39,-14,40,23,-40,-59,-72
-275,-144,131,209,-203,-6,20,44,41,-10,-35,-61
-240,-85,155,163,-198,34,58,66,66,26,-13,-46
-187,-44,143,115,-165,49,94,93,87,39,9,-30
-175,-40,135,108,-155,47,114,125,118,61,40,6
-112,15,127,49,-119,70,100,95,117,54,35,22
4,83,79,-43,-38,81,90,50,97,55,25,14
54,67,13,-61,20,40,86,29,67,45,15,7
70,42,-28,-56,48,7,75,-20,19,28,-2,-15
79,17,-63,-48,71,-23,71,-25,-3,-5,-30,-60
51,-24,-75,-13,63,-49,61,-36,-38,-50,-59,-102
6,-54,-60,24,33,-57,53,-28,-41,-47,-82,-132
-30,-73,-44,52,7,-58,34,-41,-52,-62,-90,-158
-79,-101,-23,90,-28,-62,18,-32,-38,-63,-77,-182
-120,-119,2,119,-61,-58,-3,-34,-52,-85,-96,-203
-132,-95,37,113,-84,-29,18,6,-18,-47,-93,-215
-226,-164,62,194,-144,-51,217,590,386,-103,-229,-363
33,88,55,-61,-11,71,106,563,547,442,182,-46
277,397,120,-337,79,258,-328,-844,-521,680,755,525
-81,60,141,10,-111,100,-394,-1687,-1658,-534,188,275
-204,-117,87,160,-145,-15,-205,-1031,-1098,-695,-200,-48
-105,-15,90,60,-97,37,-25,-287,-245,-131,-71,-60
-172,-80,92,126,-132,6,82,-67,-78,-104,-88,-93
-171,-91,80,131,-126,-5,114,27,32,-17,-47,-74
-118,-83,35,101,-76,-24,130,44,29,-37,-67,-81
-91,-76,15,83,-53,-30,141,69,63,-14,-56,-73
-64,-63,1,63,-32,-31,152,45,79,-9,-53,-87
-24,-42,-18,34,-2,-30,144,26,74,-7,-59,-90
-7,-11,-4,9,-1,-7,143,32,97,16,-40,-80
-5,11,16,-3,-11,13,138,16,113,29,-21,-81
0,44,45,-22,-23,44,135,56,149,67,-2,-71
22,65,43,-44,-10,54,131,91,164,76,3,-71
57,90,33,-74,12,61,125,145,193,105,22,-60
115,140,26,-128,44,83,119,181,218,123,50,-49
158,161,4,-160,77,82,114,187,226,142,67,-34
167,157,-10,-161,88,73,107,200,246,186,89,-9
146,150,3,-148,71,76,69,193,253,211,125,10
94,119,25,-107,34,71,24,182,240,222,134,-3
35,103,68,-69,-17,86,-12,146,235,239,147,-7
4,90,86,-47,-41,88,-20,100,215,237,164,40
2,90,88,-46,-43,88,-21,62,178,215,154,49
-35,80,115,-23,-75,97,-5,36,152,174,131,37
-52,49,101,1,-77,75,33,23,128,126,96,22
3,70,67,-37,-32,68,57,14,98,70,47,-37
43,88,46,-66,-2,67,93,15,80,35,20,-72
40,82,42,-62,-1,62,106,15,66,32,14,-93
54,87,33,-71,10,60,94,15,55,27,4,-105
67,96,28,-82,19,62,91,14,49,22,-3,-107
55,78,23,-67,16,50,81,27,42,3,-18,-138
34,44,11,-39,11,27,77,42,36,-16,-36,-139
-14,24,38,-5,-27,31,77,46,28,-22,-35,-119
-38,19,57,9,-47,38,81,55,27,-31,-35,-115
-34,20,54,7,-44,36,84,48,40,-33,-36,-112
-51,21,72,15,-62,46,86,46,65,-26,-34,-108
-78,12,90,33,-84,51,99,36,71,-17,-36,-106
-48,21,69,13,-58,45,115,37,78,-5,-17,-97
32,78,46,-56,-7,62,129,75,114,29,1,-80
103,145,42,-124,30,93,112,102,137,63,19,-79
183,199,16,-191,84,107,69,111,151,62,43,-83
223,204,-19,-213,121,92,6,48,142,59,45,-85
230,191,-39,-211,134,76,-46,10,129,58,49,-88
235,193,-42,-214,138,76,-48,-5,98,52,52,-91
213,184,-29,-198,121,77,-42,-28,82,42,38,-100
145,149,4,-147,70,76,-25,-12,88,17,17,-109
99,118,19,-109,40,68,5,-8,81,32,13,-101
64,112,48,-88,7,80,42,25,96,19,-8,-93
35,111,75,-73,-20,93,55,30,80,30,15,-63
-6,101,107,-48,-57,103,97,79,107,17,25,-52
-21,99,120,-39,-71,109,114,42,74,13,17,-22
-3,93,96,-45,-50,94,216,275,236,0,-54,-102
57,146,88,-102,-16,116,337,768,681,129,-59,-141
397,487,90,-442,153,288,3,157,381,768,611,458
350,533,182,-442,84,357,-263,-1104,-908,242,673,686
10,123,113,-67,-52,118,-173,-1338,-1471,-824,-104,158
41,58,16,-50,12,37,-82,-629,-686,-483,-163,-10
46,111,65,-79,-10,88,9,-115,-117,-120,-54,-1
30,67,37,-49,-4,52,54,23,17,-60,-78,-41
28,50,22,-39,2,36,78,71,89,-2,-50,-50
17,24,7,-20,5,15,79,42,67,-33,-69,-60
99,91,-8,-95,53,41,99,37,97,-5,-37,-39
121,112,-10,-116,65,50,114,-12,108,-7,-27,-40
105,115,10,-110,47,62,108,-46,144,45,0,-26
99,137,37,-118,31,87,117,-9,162,50,16,-26
88,134,46,-111,20,90,115,15,192,74,43,-16
87,165,78,-126,4,121,123,35,213,113,66,-14
81,167,85,-124,-2,125,112,65,217,105,75,-2
136,191,55,-164,40,123,100,116,228,110,83,31
178,230,52,-204,63,141,90,138,252,135,94,44
164,218,54,-191,55,136,73,132,290,182,127,76
150,211,61,-180,44,135,59,129,292,203,155,92
116,202,86,-159,15,144,31,126,316,234,187,88
93,196,103,-145,-5,149,-10,118,320,275,219,130
58,189,131,-124,-37,160,-28,80,295,254,220,163
50,183,133,-117,-42,158,-20,63,269,207,205,156
51,175,123,-113,-36,149,-11,67,238,169,188,142
58,173,115,-116,-29,144,8,64,212,148,162,113
83,175,92,-129,-5,133,42,65,167,114,114,62
74,145,71,-110,1,107,78,66,131,80,70,13
67,129,62,-98,2,95,90,64,117,45,62,-5
74,145,71,-109,1,107,110,67,99,9,59,-7
86,153,67,-119,9,110,131,69,85,-2,55,-8
54,118,65,-86,-6,91,128,66,67,-24,38,-1
27,92,66,-60,-20,79,125,56,56,-29,13,-1
47,111,64,-79,-9,87,120,53,55,-52,3,-29
40,108,68,-75,-14,87,123,90,54,-66,-7,-33
31,91,60,-61,-15,75,128,103,56,-48,-5,3
8,96,88,-52,-40,91,129,99,54,-47,6,22
-45,77,122,-16,-84,99,121,99,75,-25,9,35
-93,47,140,22,-117,94,109,111,79,-11,21,56
-106,37,144,34,-125,90,102,144,77,-15,31,62
-100,16,116,42,-109,66,79,157,106,-5,30,59
-51,47,98,2,-75,72,42,189,117,11,31,66
30,104,75,-67,-23,89,-6,148,112,0,28,64
89,129,40,-109,24,84,-34,69,105,20,55,67
102,122,20,-113,41,71,-21,72,93,41,73,82
81,96,15,-89,33,55,-1,67,55,2,53,76
92,83,-10,-87,51,36,42,74,26,-19,21,62
125,67,-58,-96,92,4,54,66,-4,-60,-21,31
138,62,-76,-100,107,-7,67,73,-17,-102,-40,-7
92,27,-65,-59,79,-19,89,62,-42,-135,-49,-26
39,-26,-65,-7,52,-45,87,64,-50,-112,-41,-41
-3,-51,-49,27,23,-50,96,61,-32,-118,-53,-45
-12,-65,-53,39,21,-59,118,91,-7,-97,-69,-81
-60,-92,-32,76,-14,-62,264,585,413,-39,-153,-206
105,131,26,-118,39,78,160,620,633,385,216,97
288,441,153,-365,67,296,-187,-369,-274,605,756,617
-70,134,203,-32,-137,168,-202,-1156,-1442,-506,196,320
-252,-193,59,222,-155,-67,-121,-949,-1281,-901,-310,-119
-149,-109,41,129,-95,-34,-54,-303,-414,-302,-133,-88
-115,-97,18,106,-67,-39,52,-20,-118,-186,-106,-79
-85,-106,-21,96,-31,-64,84,29,-34,-111,-82,-74
-130,-133,-3,132,-63,-68,103,32,5,-117,-83,-50
-117,-166,-48,142,-34,-107,104,17,0,-111,-82,-30
-99,-157,-58,128,-21,-107,105,-12,15,-92,-81,-23
-58,-143,-84,101,13,-113,106,-38,11,-100,-100,-27
-44,-135,-91,90,24,-113,104,-16,19,-76,-88,-20
-29,-123,-93,76,32,-108,107,-5,32,-82,-89,-21
15,-102,-117,43,66,-109,102,6,37,-63,-69,-19
30,-88,-118,29,74,-103,90,45,40,-64,-60,-40
51,-79,-130,15,91,-105,59,83,68,-48,-43,-40
-5,-124,-119,64,57,-121,23,74,69,-35,-30,-26
-36,-130,-94,83,29,-111,4,70,91,-20,-16,-21
-65,-120,-55,93,-5,-87,-30,65,120,10,-4,-16
-92,-118,-26,105,-33,-72,-60,58,142,52,4,-9
-112,-118,-5,115,-53,-61,-75,54,151,99,55,21
-181,-151,30,165,-105,-60,-86,27,138,104,80,50
-171,-137,34,154,-102,-51,-86,6,129,91,66,59
-152,-129,23,140,-87,-53,-76,0,101,72,56,59
-139,-122,17,130,-78,-53,-35,-5,60,25,44,62
-121,-116,4,118,-62,-56,3,-12,21,-19,10,40
-118,-124,-7,121,-55,-65,33,-13,-3,-63,-36,-17
-71,-95,-24,83,-23,-59,47,-10,-18,-96,-71,-59
-73,-108,-34,91,-19,-71,37,-8,-34,-109,-98,-71
-79,-117,-38,99,-21,-77,28,-4,-49,-115,-100,-87
-100,-148,-48,124,-26,-98,17,-2,-77,-155,-133,-117
-146,-193,-47,169,-49,-119,9,2,-86,-178,-154,-123
-176,-213,-37,195,-69,-125,2,-8,-86,-170,-155,-117
-216,-252,-35,234,-90,-143,-3,-24,-115,-208,-179,-117
-227,-255,-27,241,-100,-141,-12,-42,-132,-208,-186,-112
-265,-279,-14,272,-125,-146,-6,-76,-127,-190,-195,-111
-279,-267,12,273,-145,-127,36,-99,-113,-180,-187,-108
-279,-242,37,260,-158,-102,47,-106,-99,-156,-165,-101
-266,-244,22,255,-144,-111,34,-81,-86,-138,-150,-91
-233,-201,32,216,-132,-84,47,-39,-57,-112,-136,-84
-179,-149,31,164,-105,-59,55,13,-27,-94,-128,-85
-110,-102,8,106,-59,-47,32,21,4,-82,-117,-52
-100,-107,-8,104,-45,-57,-29,-62,-21,-81,-112,-24
-64,-120,-56,92,-3,-88,-69,-87,-53,-65,-98,-11
-11,-110,-99,60,45,-104,-71,-85,-71,-85,-98,-32
-48,-163,-115,106,34,-139,-75,-84,-101,-137,-152,-95
-119,-225,-106,173,-7,-165,-78,-85,-128,-171,-204,-135
-142,-241,-99,192,-21,-170,-83,-87,-146,-194,-222,-177
-192,-284,-92,238,-49,-188,-87,-77,-158,-220,-241,-209
-209,-295,-86,252,-61,-190,-98,-77,-157,-186,-218,-197
-240,-314,-74,278,-83,-194,-83,-43,-140,-206,-233,-209
-237,-308,-70,273,-83,-189,-68,-79,-164,-189,-217,-193
-242,-296,-54,269,-94,-175,84,327,150,-179,-289,-281
-150,-170,-20,160,-65,-95,127,675,553,101,-136,-190
183,226,43,-205,70,134,-256,-284,-104,655,540,419
-2,79,81,-38,-42,80,-430,-1473,-1508,-218,304,415
-248,-283,-35,266,-106,-159,-280,-1332,-1591,-988,-335,-76
-117,-208,-91,163,-13,-149,-136,-526,-598,-406,-234,-137
-132,-195,-63,164,-35,-128,-6,-171,-214,-210,-188,-151
-130,-191,-61,161,-34,-126,55,-48,-96,-153,-190,-152
-135,-186,-52,161,-41,-119,77,3,-45,-115,-173,-157
-130,-201,-70,166,-30,-135,70,-12,-59,-136,-182,-181
-116,-190,-74,153,-20,-132,63,-14,-28,-101,-162,-169
-130,-192,-62,161,-34,-127,60,-38,-35,-117,-169,-180
-117,-174,-57,146,-30,-115,53,-30,-8,-88,-148,-173
-134,-173,-40,154,-47,-106,52,-28,4,-83,-143,-202
-170,-163,7,166,-88,-78,47,-8,38,-48,-122,-238
-199,-162,37,180,-118,-62,44,27,63,-19,-92,-257
-208,-151,57,179,-132,-47,39,64,98,12,-65,-231
-179,-106,74,142,-126,-16,41,80,124,35,-42,-178
-131,-64,67,98,-99,1,43,100,142,53,-21,-119
-103,-30,73,67,-88,21,36,126,183,97,-6,-66
-62,3,65,29,-64,34,22,116,214,144,31,-54
-58,27,85,15,-72,56,14,111,235,193,86,-39
-101,14,115,43,-108,64,-4,103,232,220,120,-10
-117,6,123,55,-120,64,-16,96,230,222,139,23
-77,47,123,14,-100,85,-13,89,212,201,125,19
-48,43,91,2,-70,67,-8,55,149,161,95,-29
-44,0,44,22,-44,22,-4,25,97,96,46,-74
-42,-51,-9,47,-16,-30,-34,20,47,11,-33,-140
-36,-85,-50,61,7,-67,-57,12,1,-32,-83,-193
12,-79,-90,34,51,-84,-56,-36,-31,-69,-109,-212
23,-78,-101,28,62,-89,-60,-76,-61,-98,-140,-265
0,-86,-86,44,43,-86,-66,-102,-78,-111,-149,-321
-40,-105,-66,73,13,-85,-60,-116,-86,-119,-133,-347
-116,-126,-11,121,-52,-69,-33,-99,-70,-99,-114,-334
-196,-134,62,165,-128,-36,4,-82,-39,-69,-100,-278
-255,-140,114,197,-184,-13,27,-39,-21,-54,-73,-217
-312,-138,174,225,-243,17,39,-7,0,-35,-53,-134
-386,-130,256,258,-321,63,101,13,47,4,-34,-46
-421,-110,311,265,-366,101,159,49,76,25,-12,20
-420,-103,317,262,-368,106,184,74,81,39,4,71
-365,-93,273,229,-319,89,211,121,100,50,24,80
-209,22,231,93,-221,127,210,174,120,62,27,73
-67,88,155,-10,-111,122,189,226,128,57,15,61
31,84,52,-58,-11,68,105,182,93,35,-2,12
123,98,-25,-111,74,37,5,104,45,22,-22,-22
185,73,-112,-129,148,-19,-42,64,6,-13,-57,-46
220,37,-183,-128,201,-73,-83,-5,-42,-55,-89,-90
233,13,-220,-123,226,-103,-99,-33,-72,-104,-122,-146
253,3,-250,-128,251,-123,-95,-81,-100,-125,-149,-218
214,-17,-231,-98,223,-124,-79,-76,-96,-158,-173,-270
127,-37,-164,-45,145,-100,-76,-82,-103,-148,-149,-262
7,-68,-74,31,41,-71,-43,-47,-63,-102,-112,-242
-77,-48,29,62,-53,-9,-6,-46,-51,-96,-103,-181
-186,-71,115,128,-150,22,110,109,67,-55,-94,-131
-326,-122,204,224,-265,41,348,752,533,-19,-162,-180
-73,236,309,-82,-191,272,164,451,513,655,407,300
-77,386,463,-155,-271,424,-202,-999,-741,580,806,783
-528,-36,492,282,-510,228,-197,-1519,-1586,-603,143,424
-593,-155,438,374,-515,141,-31,-731,-798,-473,-93,180
-496,-75,421,286,-458,173,103,-135,-100,-47,14,168
-381,-76,305,229,-343,114,114,-32,8,-83,-24,70
-273,-82,191,177,-232,55,66,22,53,-22,-27,19
-208,-131,78,169,-142,-26,21,-6,2,-62,-91,-51
-62,-122,-60,92,0,-91,-19,-18,-8,-74,-123,-110
38,-126,-164,44,102,-145,-51,-77,-45,-133,-180,-187
128,-130,-258,2,193,-194,-81,-157,-70,-154,-215,-265
233,-117,-350,-58,291,-233,-79,-177,-92,-186,-250,-362
279,-79,-358,-100,319,-218,-51,-142,-64,-165,-230,-396
267,-22,-289,-122,278,-155,-6,-66,-16,-94,-165,-362
215,2,-213,-108,213,-105,37,23,40,-49,-126,-302
161,34,-126,-97,143,-46,50,118,99,-1,-80,-230
127,43,-84,-84,105,-20,36,171,131,26,-38,-157
68,48,-20,-58,44,14,24,200,173,87,8,-67
17,49,33,-33,-8,41,-9,207,208,142,52,-9
-37,49,86,-6,-62,67,-59,203,256,201,102,56
-71,84,155,-7,-113,119,-111,207,276,255,157,107
-58,92,150,-17,-104,121,-158,171,272,265,167,122
-24,113,137,-45,-80,124,-186,118,244,237,163,100
26,100,74,-63,-24,86,-189,74,182,191,138,48
35,43,8,-39,13,25,-182,48,118,135,73,-17
84,30,-53,-57,68,-11,-181,28,50,37,-3,-136
159,30,-129,-95,144,-49,-161,-9,5,-33,-75,-231
193,15,-177,-103,185,-81,-133,-22,-31,-65,-109,-245
249,12,-237,-130,243,-112,-129,-48,-67,-101,-141,-238
292,44,-248,-168,270,-102,-125,-74,-79,-124,-156,-227
281,57,-224,-169,252,-83,-122,-70,-78,-123,-147,-218
228,42,-186,-135,207,-72,-118,-68,-66,-103,-136,-207
176,38,-138,-107,157,-49,-114,-63,-67,-99,-120,-198
107,32,-75,-69,90,-21,-123,-38,-43,-94,-107,-173
38,23,-15,-30,26,3,-114,-11,-5,-85,-93,-143
-39,12,50,13,-45,31,-101,7,12,-76,-82,-137
-159,-25,135,92,-147,55,-77,29,40,-58,-73,-130
-222,-34,188,128,-205,77,-18,34,48,-25,-60,-126
-246,-16,230,131,-238,107,31,64,79,11,-29,-113
-200,9,209,95,-204,108,71,106,107,36,-14,-94
-93,50,144,21,-119,97,81,130,103,36,-9,-89
-6,95,101,-44,-54,98,62,138,109,13,-2,-91
91,133,42,-112,24,87,26,76,68,16,-3,-90
137,117,-20,-126,78,48,-27,35,37,-1,-22,-117
146,77,-70,-111,108,4,-59,-4,0,-37,-57,-147
157,45,-112,-101,134,-33,-72,-58,-54,-66,-73,-164
144,11,-133,-77,138,-61,-72,-85,-70,-117,-118,-198
147,3,-145,-75,146,-71,-83,-112,-89,-128,-141,-198
88,-46,-133,-21,111,-89,-95,-95,-81,-151,-147,-202
68,-36,-104,-15,86,-70,-97,-105,-63,-106,-116,-197
93,40,-53,-66,73,-6,-56,-63,-26,-91,-107,-203
50,51,1,-51,24,26,-43,-84,-40,-82,-95,-207
-80,-15,65,47,-72,25,95,253,192,-94,-166,-314
-60,54,114,3,-87,84,211,781,646,136,-79,-267
328,477,149,-403,89,313,-151,3,230,770,633,383
180,448,268,-314,-44,358,-387,-1316,-1116,60,548,526
-177,68,245,54,-211,157,-280,-1374,-1454,-837,-163,39
-91,56,147,17,-120,101,-157,-572,-552,-351,-139,-51
-92,43,135,24,-114,89,-27,-139,-96,-102,-63,-43
-58,29,87,14,-73,57,11,-72,-17,-71,-57,-81
25,55,30,-40,-3,43,29,-33,46,-22,-26,-89
133,108,-25,-120,78,41,60,-34,59,-42,-51,-100
199,134,-65,-167,132,34,83,-23,96,-14,-53,-90
238,113,-125,-176,181,-5,70,-53,81,-28,-65,-104
284,135,-149,-210,217,-7,41,-89,96,-18,-62,-97
220,111,-109,-165,164,1,26,-93,93,-21,-73,-105
182,123,-60,-152,121,31,11,-66,114,10,-59,-108
176,135,-40,-155,108,47,-6,-40,156,26,-31,-86
160,121,-39,-140,99,41,-37,-20,168,67,-23,-71
157,131,-26,-144,91,52,-58,23,184,83,-8,-26
198,175,-22,-186,110,76,-59,53,213,83,33,33
211,219,8,-216,101,113,-55,88,248,144,77,78
191,251,59,-222,66,155,-52,138,294,221,139,126
171,278,106,-225,32,192,-48,162,320,273,187,154
175,304,129,-240,23,216,-44,187,329,296,226,171
206,324,118,-266,44,221,-42,197,321,294,240,185
190,293,103,-242,43,198,-37,177,279,252,215,186
196,273,77,-235,59,175,-37,145,217,204,182,150
212,246,34,-229,88,140,-31,111,161,137,121,84
202,196,-7,-199,104,94,-32,77,121,47,46,-1
229,184,-45,-206,137,69,-25,35,79,12,6,-67
258,186,-73,-222,165,56,-10,-7,62,10,-14,-90
262,182,-80,-222,171,51,-32,-54,66,-12,-46,-105
253,180,-73,-216,163,53,-64,-66,69,-46,-46,-110
191,180,-11,-186,101,85,-72,-49,71,-53,-31,-112
111,169,58,-140,26,113,-52,-34,75,-36,-20,-88
33,137,103,-85,-35,120,-35,-1,75,-17,-7,-49
-50,130,180,-40,-115,154,-40,35,83,11,11,-12
-95,127,222,-16,-159,174,-15,72,120,30,34,29
-132,120,252,6,-192,186,28,87,141,50,47,47
-149,120,269,14,-209,194,46,81,147,56,62,52
-149,113,262,17,-206,187,66,107,156,71,59,62
-93,174,267,-41,-180,220,100,144,168,77,72,80
22,220,198,-121,-88,209,129,176,180,67,90,109
104,225,122,-165,-9,173,111,196,177,69,68,104
174,250,76,-212,48,163,52,145,155,59,63,72
264,274,10,-269,127,142,15,69,114,62,68,53
305,267,-38,-286,171,114,-2,50,69,36,31,15
290,191,-99,-240,194,45,-10,51,19,-9,-13,-35
273,148,-125,-211,198,11,-17,52,12,-75,-39,-55
274,161,-113,-217,193,24,-28,33,-13,-108,-58,-64
243,142,-101,-192,171,20,-36,65,-23,-91,-72,-122
123,75,-48,-99,85,13,-52,69,-25,-112,-65,-149
67,80,13,-73,26,47,-41,96,-5,-74,-43,-137
-10,83,93,-37,-51,87,-31,96,25,-83,-46,-156
-118,35,153,41,-136,94,18,172,83,-40,-9,-144
-148,35,183,56,-165,108,190,686,521,54,-86,-235
48,298,250,-173,-101,273,74,662,703,566,353,122
202,607,405,-405,-102,506,-261,-322,-219,687,877,705
-177,227,404,-25,-290,315,-241,-1085,-1365,-515,189,366
-362,-122,240,242,-301,58,-122,-837,-1155,-816,-253,2
-182,16,199,83,-191,107,-62,-186,-313,-250,-58,44
-78,59,137,9,-107,98,53,100,-32,-83,-49,11
10,92,82,-51,-36,87,106,152,60,-17,8,24
62,103,41,-83,10,72,132,139,71,-52,-16,-26
123,63,-60,-93,91,1,114,113,61,-30,-63,-63
153,55,-99,-104,126,-22,67,60,51,-94,-98,-111
134,34,-99,-84,116,-32,33,35,47,-73,-94,-155
99,7,-93,-53,96,-43,-6,34,51,-34,-67,-154
105,47,-58,-76,82,-5,-18,56,72,-63,-68,-175
98,80,-18,-89,57,31,-28,89,110,1,-42,-149
66,76,11,-71,27,43,-51,123,121,21,-1,-78
58,82,24,-70,17,53,-61,179,164,41,35,-17
29,59,31,-44,-1,45,-62,183,175,65,61,42
-8,63,71,-28,-40,67,-72,204,193,96,101,97
15,125,110,-71,-48,117,-79,229,243,171,133,134
38,154,116,-96,-40,135,-70,239,278,206,164,178
26,151,125,-89,-50,138,-64,239,280,228,185,174
44,160,116,-103,-36,138,-58,232,254,228,203,159
33,103,70,-68,-19,87,-51,233,215,177,177,150
68,83,15,-75,26,49,-47,226,158,129,136,121
99,67,-32,-83,65,17,-43,208,87,48,75,63
74,19,-55,-46,64,-18,-40,182,35,-8,5,-38
73,-20,-92,-26,83,-56,-37,168,-3,-62,-21,-89
74,-36,-111,-19,93,-73,-34,171,-19,-104,-55,-107
82,-19,-101,-31,91,-60,-26,174,-22,-97,-74,-119
58,-36,-93,-10,76,-64,-17,177,-44,-96,-83,-111
32,-14,-46,-8,39,-30,-8,182,-46,-90,-90,-91
-12,-16,-3,14,-4,-9,0,169,-44,-89,-92,-32
-80,-59,20,69,-50,-19,10,185,-46,-81,-96,12
-88,-55,33,71,-61,-10,20,199,-45,-130,-102,16
-114,-71,43,93,-78,-14,30,193,-71,-176,-115,-1
-164,-126,38,144,-101,-44,48,167,-85,-132,-110,-31
-241,-179,62,210,-151,-58,76,126,-89,-134,-102,-71
-312,-220,92,266,-202,-64,81,124,-100,-155,-96,-94
-294,-233,61,263,-177,-86,68,126,-88,-130,-88,-73
-272,-213,59,242,-165,-77,57,119,-55,-108,-84,-47
-207,-156,51,181,-129,-52,36,122,-32,-87,-67,-38
-141,-109,33,125,-87,-38,13,113,-21,-72,-50,-40
-143,-111,32,127,-87,-40,-27,68,-29,-59,-51,-40
-132,-104,28,118,-80,-37,-37,59,-20,-47,-48,-40
-140,-108,32,124,-85,-38,-24,43,-37,-70,-54,-40
-182,-154,28,168,-105,-63,-8,39,-73,-85,-72,-48
-212,-179,33,196,-122,-73,29,79,-79,-119,-92,-59
-224,-201,23,213,-123,-89,35,104,-109,-163,-129,-50
-277,-257,20,267,-148,-118,29,116,-141,-192,-174,-70
-271,-262,9,267,-140,-127,22,108,-150,-179,-167,-74
-260,-256,4,258,-132,-126,16,124,-143,-196,-181,-88
-243,-269,-27,257,-108,-148,4,81,-176,-202,-181,-88
-233,-326,-93,279,-70,-209,121,412,82,-214,-284,-195
-154,-240,-87,197,-33,-163,144,766,483,36,-182,-145
214,183,-31,-198,123,76,-214,23,-35,557,477,458
70,105,35,-88,17,69,-406,-1111,-1393,-224,279,503
-253,-316,-63,285,-94,-189,-346,-1177,-1689,-1083,-414,-6
-143,-275,-132,210,-5,-203,-266,-447,-770,-581,-342,-100
-143,-228,-86,186,-28,-157,-151,-30,-292,-281,-252,-103
-166,-262,-96,214,-35,-179,-110,92,-173,-221,-221,-109
-191,-264,-73,228,-59,-168,-80,118,-117,-174,-198,-100
-206,-275,-69,241,-69,-172,-42,93,-129,-194,-224,-110
-208,-271,-62,240,-72,-167,-31,71,-102,-166,-199,-100
-158,-276,-119,217,-19,-197,-20,24,-112,-182,-207,-109
-105,-257,-152,181,24,-204,-16,31,-85,-162,-190,-110
-110,-233,-123,172,7,-178,6,34,-67,-158,-190,-133
-80,-211,-131,146,26,-171,41,51,-34,-131,-180,-150
-34,-179,-145,107,56,-162,39,96,-8,-111,-168,-141
41,-125,-167,43,104,-146,26,150,13,-80,-146,-88
86,-89,-175,2,131,-132,15,168,31,-46,-116,-36
154,-46,-200,-54,178,-123,0,166,51,-28,-100,6
179,-17,-196,-81,188,-106,-26,168,89,23,-66,41
116,-41,-157,-38,137,-99,-75,152,113,64,-25,30
58,-53,-110,-2,84,-81,-118,141,133,102,9,1
21,-50,-70,15,46,-60,-142,125,127,139,34,-34
-68,-110,-42,89,-13,-76,-163,108,111,126,49,-63
-145,-173,-28,159,-58,-100,-165,102,93,110,40,-94
-149,-187,-38,168,-55,-112,-139,93,48,71,5,-112
-139,-185,-46,162,-46,-115,-120,62,1,4,-29,-113
-124,-187,-64,156,-30,-125,-77,28,-33,-41,-67,-124
-134,-208,-74,171,-30,-141,-25,4,-65,-82,-108,-135
-116,-213,-97,164,-9,-155,-8,-13,-93,-116,-138,-149
-86,-204,-118,145,16,-161,20,-19,-99,-123,-146,-151
-78,-191,-113,135,18,-152,18,-30,-118,-147,-139,-153
-66,-182,-116,125,26,-149,-12,-34,-156,-193,-169,-193
-76,-187,-110,132,17,-148,-22,-31,-154,-201,-185,-217
-81,-185,-104,133,12,-144,-26,-31,-145,-193,-178,-214
-96,-174,-77,135,-9,-125,-28,-14,-140,-185,-178,-215
-142,-194,-52,169,-45,-123,-54,-2,-129,-158,-174,-215
-180,-214,-34,197,-73,-123,-68,7,-119,-121,-173,-197
-215,-208,7,212,-111,-100,-63,16,-105,-103,-166,-174
-247,-224,23,235,-135,-100,-67,22,-96,-98,-160,-184
-268,-235,33,252,-150,-101,-64,54,-78,-90,-150,-180
-260,-241,18,250,-139,-111,-66,85,-70,-85,-134,-157
-216,-225,-9,221,-103,-117,-90,114,-45,-74,-122,-126
-150,-176,-25,163,-62,-100,-120,94,-29,-68,-109,-67
-57,-116,-59,87,1,-87,-123,54,-36,-41,-98,-44
29,-78,-107,25,69,-92,-107,48,-46,-48,-104,-46
58,-89,-146,15,102,-117,-97,41,-86,-67,-94,-31
61,-89,-150,15,106,-119,-64,50,-96,-99,-115,-50
111,-64,-175,-23,143,-119,-55,37,-98,-115,-134,-74
131,-52,-182,-40,157,-117,-54,55,-89,-123,-137,-76
165,-13,-178,-76,172,-95,-56,29,-104,-121,-130,-78
192,5,-187,-98,189,-91,-55,41,-83,-121,-129,-117
172,-9,-181,-81,177,-95,-51,-6,-92,-134,-133,-122
101,-94,-194,-3,148,-144,13,160,17,-125,-183,-197
46,-122,-168,38,107,-145,187,754,462,-92,-269,-311
374,248,-126,-310,250,61,-81,257,299,593,339,172
414,325,-89,-369,251,118,-496,-1216,-1060,353,620,530
2,-96,-98,47,50,-97,-454,-1559,-1769,-845,-96,122
-76,-213,-137,145,31,-175,-296,-736,-897,-600,-250,-107
-65,-180,-115,123,25,-148,-139,-179,-252,-186,-126,-120
-83,-184,-101,134,9,-142,-56,-52,-114,-159,-145,-166
-78,-169,-91,124,7,-129,-24,8,-8,-58,-95,-158
-113,-174,-61,144,-26,-117,12,8,-10,-76,-105,-160
-110,-145,-35,128,-37,-90,26,32,46,-11,-73,-147
-86,-108,-22,97,-32,-64,55,8,51,-15,-59,-144
-88,-107,-18,98,-35,-62,88,-17,73,6,-44,-136
-137,-133,5,135,-71,-64,127,6,90,12,-37,-134
-118,-92,26,104,-72,-33,142,31,105,28,-35,-136
-65,-39,26,52,-45,-7,147,64,137,61,-21,-134
-12,-1,11,6,-12,5,140,121,152,77,13,-136
67,28,-39,-47,53,-6,131,176,158,100,28,-134
97,20,-77,-58,86,-28,120,192,153,94,19,-127
136,14,-122,-75,129,-54,48,187,156,87,15,-122
181,9,-172,-95,176,-81,-31,172,170,117,23,-106
147,-13,-159,-67,153,-86,-78,152,180,153,49,-64
106,-27,-133,-39,120,-80,-132,120,173,179,78,-25
82,-8,-90,-36,86,-49,-149,89,165,208,118,8
69,13,-56,-41,62,-21,-129,79,160,212,132,34
69,30,-39,-49,54,-4,-90,79,152,206,124,33
13,16,3,-14,5,9,-43,74,133,172,113,25
4,22,18,-13,-8,20,5,72,130,132,90,20
95,102,7,-99,44,55,71,70,124,113,60,12
132,124,-8,-128,70,58,100,67,102,74,33,8
149,119,-30,-134,89,44,90,64,71,44,12,-4
167,104,-63,-135,115,20,79,65,34,29,-5,-20
159,53,-105,-106,132,-26,50,65,13,0,-36,-68
137,24,-113,-80,124,-44,14,65,-8,-32,-49,-123
96,-11,-107,-42,102,-58,-24,65,-21,-48,-57,-154
68,-49,-117,-10,93,-82,-69,64,-34,-53,-84,-184
4,-110,-114,53,59,-112,-103,66,-44,-72,-90,-184
-27,-119,-92,73,33,-105,-94,65,-29,-64,-82,-158
-21,-94,-73,58,26,-83,-47,66,-17,-50,-77,-122
-55,-89,-34,72,-10,-62,-13,63,4,-32,-63,-73
-27,-21,7,24,-17,-7,39,77,46,16,-31,-30
26,44,17,-35,4,30,105,133,81,37,-4,13
74,101,28,-88,23,64,106,191,124,76,30,59
125,145,20,-135,52,82,88,196,144,99,52,52
135,135,-1,-135,68,67,64,134,114,102,47,43
109,107,-2,-108,56,52,29,79,82,81,26,32
51,46,-5,-48,28,20,18,39,38,29,10,-42
5,-22,-27,9,16,-24,17,29,3,2,-13,-109
-15,-72,-58,44,22,-65,12,8,-21,-39,-55,-158
-6,-68,-62,38,28,-65,8,9,-25,-51,-57,-184
-34,-73,-40,54,3,-56,6,17,-38,-66,-67,-184
-55,-81,-26,68,-14,-54,7,9,-45,-43,-67,-171
-36,-51,-15,43,-10,-33,31,40,-18,-64,-83,-179
-17,-35,-18,26,1,-26,32,0,-19,-37,-57,-153
-56,-89,-33,73,-11,-61,223,464,269,-89,-175,-274
108,66,-42,-87,75,12,257,798,617,246,18,-139
461,466,5,-464,228,236,-167,-297,-79,773,715,505
212,270,58,-241,77,164,-361,-1509,-1427,-199,397,470
-114,-99,16,106,-65,-41,-255,-1252,-1381,-829,-205,39
-50,-53,-3,52,-23,-28,-108,-392,-443,-270,-118,-31
-10,-14,-4,12,-3,-9,-1,-70,-125,-130,-97,-79
63,-6,-68,-28,66,-37,26,10,-16,-62,-78,-89
77,-30,-108,-23,93,-69,36,56,20,-39,-78,-90
89,-15,-104,-37,97,-59,22,65,31,-46,-83,-91
125,18,-106,-71,115,-44,17,48,54,-20,-57,-83
155,59,-96,-107,125,-18,29,15,60,-7,-50,-86
168,120,-48,-143,107,36,65,36,107,29,-30,-85
129,110,-19,-119,74,45,84,45,124,46,-16,-92
128,110,-18,-119,73,46,83,59,141,75,13,-101
111,112,1,-111,55,56,80,79,143,57,23,-111
128,106,-22,-117,75,42,76,118,170,87,28,-95
178,120,-58,-149,118,30,74,140,185,110,33,-69
160,107,-53,-133,107,27,58,122,182,112,41,-49
154,98,-56,-125,105,20,45,93,199,142,44,-34
126,78,-48,-102,87,15,15,75,230,182,83,0
91,81,-10,-85,50,35,-27,64,245,240,137,19
83,119,36,-101,23,77,-27,51,242,245,139,16
46,129,84,-88,-19,106,-15,48,238,243,172,56
33,156,123,-95,-45,139,-10,37,233,263,204,84
34,166,132,-100,-49,148,14,45,227,241,196,79
13,168,154,-91,-71,161,54,73,201,208,181,63
25,181,157,-103,-66,169,77,72,165,146,127,23
50,152,102,-101,-26,126,73,63,133,93,77,-24
31,101,70,-66,-20,85,69,58,88,69,42,-74
108,126,18,-117,45,72,58,50,58,31,-1,-109
192,153,-39,-172,116,57,38,44,45,-3,-39,-135
216,144,-72,-180,144,36,19,31,9,-34,-67,-148
257,138,-118,-197,187,10,10,24,-12,-62,-72,-144
234,113,-120,-174,177,-4,-7,10,-5,-72,-68,-128
231,113,-118,-172,175,-2,-39,-5,1,-54,-78,-101
207,106,-102,-156,154,2,-34,-5,6,-51,-75,-84
155,115,-41,-135,98,37,-6,11,41,-31,-55,-73
111,104,-7,-107,59,48,2,12,64,-9,-65,-78
68,121,53,-95,7,87,13,9,74,-5,-40,-67
66,156,89,-111,-11,122,34,42,119,36,15,-37
71,163,92,-117,-11,127,30,87,141,56,54,5
107,234,128,-171,-11,181,7,145,189,103,80,51
135,269,134,-202,0,201,-2,102,208,145,98,101
194,320,126,-257,33,223,-10,46,187,131,126,173
208,330,122,-269,43,225,-19,55,176,128,123,188
170,287,117,-229,26,202,-1,37,138,117,115,154
144,247,103,-196,20,175,26,40,118,65,60,111
106,178,72,-142,16,125,40,21,73,22,10,75
100,125,25,-112,37,75,53,28,53,-21,-6,15
71,87,16,-79,28,51,43,3,36,-57,-23,-31
52,80,28,-67,12,54,43,17,57,-64,-29,-57
81,91,10,-86,35,51,27,-14,39,-48,-30,-89
90,126,36,-108,27,80,84,111,116,-3,-32,-132
49,112,63,-80,-8,87,242,662,586,54,-94,-215
310,429,119,-369,95,273,9,406,586,660,475,260
358,626,268,-492,45,447,-332,-778,-511,539,823,689
-68,219,287,-76,-178,253,-278,-1347,-1433,-684,64,254
-134,79,213,27,-174,146,-171,-843,-918,-647,-193,3
-96,121,217,-13,-157,169,-75,-205,-162,-109,-4,86
-129,69,199,30,-164,134,14,24,2,-66,10,92
-76,68,144,4,-110,106,48,106,82,15,49,115
-25,81,106,-28,-66,93,93,109,88,9,25,127
10,96,86,-54,-38,91,96,90,111,18,41,134
61,88,27,-74,17,57,95,74,108,-7,31,152
164,149,-14,-156,89,67,96,72,106,-17,37,162
201,170,-31,-185,116,69,83,67,117,-16,30,99
232,158,-75,-195,153,41,63,66,123,7,20,36
256,150,-105,-203,180,22,9,59,145,12,14,-1
266,149,-116,-207,191,16,-43,62,142,5,5,-31
359,251,-109,-305,234,70,-103,110,159,39,56,-26
375,292,-83,-333,228,104,-147,77,156,19,37,4
315,275,-40,-295,177,117,-143,58,182,76,71,64
328,306,-22,-317,175,142,-159,70,217,130,120,121
292,302,10,-297,140,156,-152,60,235,161,124,137
248,293,45,-271,102,169,-123,97,266,227,202,184
182,270,88,-226,47,178,-104,125,253,229,222,207
129,242,113,-186,8,177,-79,131,229,222,219,211
152,245,93,-199,29,169,-40,137,213,188,205,242
91,177,86,-134,2,131,-9,116,165,101,150,196
39,92,53,-65,-7,72,-11,105,107,50,85,108
32,60,28,-46,2,44,-8,105,76,10,22,40
59,69,9,-64,25,39,5,102,70,-26,20,18
81,79,-2,-80,41,38,28,99,65,-25,16,17
88,68,-20,-78,53,24,36,104,59,-20,-11,-10
155,126,-29,-140,91,48,29,141,54,-19,-7,-21
143,134,-10,-138,76,62,22,154,49,-15,8,-15
90,78,-12,-84,51,33,-17,141,40,-16,0,-9
20,51,32,-36,-6,41,-55,135,29,-48,-8,-4
-36,14,50,11,-43,32,-65,129,28,-55,-17,2
-57,-12,46,34,-51,17,-51,109,31,-28,-32,15
-126,-47,79,86,-102,15,-26,77,32,-35,-30,45
-107,-26,81,67,-94,28,-8,76,36,-38,-18,56
-82,-4,78,43,-80,37,22,109,36,-31,-12,64
-72,12,84,30,-78,47,60,161,57,-4,9,117
22,94,72,-58,-25,83,59,188,93,40,48,138
83,127,43,-105,20,85,48,167,98,47,59,127
93,123,29,-108,32,76,49,132,76,39,48,126
80,106,27,-94,27,66,51,129,60,33,43,121
25,39,14,-33,5,26,49,117,25,12,23,95
-67,-57,10,62,-38,-23,52,114,-17,-32,-28,41
-98,-95,3,96,-50,-46,83,107,-51,-76,-49,18
-120,-128,-9,124,-55,-68,71,86,-62,-103,-79,-9
-179,-186,-7,183,-86,-96,51,52,-75,-140,-111,-8
-160,-192,-32,176,-64,-111,47,50,-90,-128,-99,36
-180,-190,-10,185,-84,-100,50,78,-69,-141,-118,5
-167,-203,-36,185,-65,-119,39,41,-67,-119,-100,-4
-159,-238,-79,198,-39,-158,143,432,263,-112,-223,-125
-17,-49,-32,33,7,-40,119,650,599,263,45,51
201,266,65,-234,68,165,-234,-254,-137,637,644,606
-135,26,161,54,-148,93,-299,-1193,-1419,-397,200,389
-400,-315,84,358,-242,-115,-151,-1077,-1444,-1000,-352,-78
-280,-247,33,263,-156,-107,-90,-424,-555,-380,-214,-90
-279,-237,42,258,-160,-97,8,-80,-181,-190,-165,-81
-290,-270,19,280,-154,-125,67,-6,-85,-138,-144,-49
-269,-260,9,264,-139,-125,117,2,-40,-90,-134,-16
-218,-256,-38,237,-90,-147,136,-24,-36,-120,-135,31
-185,-246,-61,216,-62,-153,130,-77,-10,-101,-121,51
-182,-254,-71,218,-56,-162,151,-116,-13,-85,-124,31
-176,-244,-68,210,-54,-156,166,-127,10,-63,-108,25
-155,-231,-76,193,-39,-153,169,-142,18,-66,-100,15
-116,-211,-95,164,-10,-153,178,-123,35,-51,-86,28
-105,-197,-92,151,-6,-144,152,-108,56,-49,-79,33
-82,-193,-111,138,15,-152,110,-84,64,-38,-73,31
-47,-192,-144,120,49,-168,76,-50,70,-10,-65,29
-40,-188,-147,114,53,-167,10,-29,74,12,-56,35
-52,-193,-141,123,45,-167,-32,-17,85,35,-38,58
-44,-183,-139,114,48,-161,-59,0,123,88,1,75
-93,-174,-81,133,-6,-127,-81,9,146,123,31,70
-157,-180,-23,169,-67,-101,-78,27,145,147,61,76
-158,-151,7,154,-82,-72,-75,57,137,173,89,100
-186,-142,44,164,-115,-48,-52,55,117,151,77,105
-189,-147,42,168,-115,-52,-7,52,99,117,63,100
-144,-143,1,143,-72,-70,42,50,71,72,32,92
-114,-147,-32,131,-41,-89,56,45,27,15,-15,52
-87,-143,-56,115,-15,-99,41,46,-12,-22,-58,-1
-68,-159,-90,114,11,-124,34,23,-44,-55,-94,-45
-59,-184,-125,121,33,-154,19,-10,-66,-82,-120,-80
-51,-209,-158,131,54,-184,-7,-38,-95,-118,-153,-108
-79,-246,-167,163,44,-206,-27,-59,-112,-141,-168,-131
-96,-259,-163,178,34,-211,-50,-97,-125,-155,-177,-140
-88,-267,-179,178,46,-223,-78,-130,-161,-193,-202,-128
-90,-291,-201,191,56,-246,-102,-132,-160,-190,-201,-109
-80,-280,-200,180,60,-240,-100,-129,-145,-171,-191,-100
-80,-247,-167,164,44,-207,-56,-124,-139,-150,-187,-96
-67,-218,-151,143,42,-184,-28,-109,-116,-115,-161,-88
-48,-187,-139,118,46,-163,-15,-79,-91,-101,-124,-81
-2,-131,-129,67,64,-130,20,-19,-48,-69,-99,-69
53,-77,-131,12,93,-103,36,55,-25,-40,-93,-44
82,-44,-127,-19,105,-85,31,75,-7,-40,-96,-11
127,4,-123,-65,125,-60,0,22,-7,-41,-95,30
77,-60,-136,-8,107,-98,-37,-29,-34,-38,-100,32
4,-133,-137,65,71,-135,-36,-63,-55,-43,-100,13
-44,-164,-121,104,39,-142,-29,-123,-90,-62,-103,-13
-116,-241,-125,179,5,-183,-10,-159,-107,-104,-124,-58
-91,-218,-127,155,18,-172,27,-182,-98,-98,-113,-51
-98,-213,-114,156,8,-163,64,-186,-87,-110,-114,-40
-73,-187,-114,131,21,-150,93,-195,-92,-84,-102,-14
-64,-162,-98,113,17,-129,132,-148,-64,-76,-102,-6
-78,-167,-89,123,6,-127,138,-148,-88,-90,-88,17
-91,-169,-78,130,-6,-123,221,106,89,-71,-157,-52
-152,-200,-48,177,-51,-124,332,654,524,8,-198,-142
181,153,-27,-167,104,63,-21,59,220,668,444,358
164,172,9,-168,77,90,-384,-1342,-1184,221,547,581
-209,-278,-69,244,-69,-173,-328,-1537,-1748,-907,-181,101
-191,-308,-117,250,-37,-212,-198,-693,-817,-536,-259,-74
-161,-257,-95,209,-33,-176,-53,-188,-252,-178,-158,-61
-74,-232,-158,153,42,-195,-2,-65,-127,-150,-167,-63
-20,-182,-163,101,72,-172,25,3,-28,-62,-130,-31
-3,-169,-165,87,81,-167,50,18,-33,-75,-142,-13
28,-151,-180,62,104,-165,44,33,9,-18,-116,22
30,-138,-168,54,100,-153,68,30,1,-36,-114,38
85,-82,-167,-1,126,-125,67,27,39,2,-77,83
99,-36,-135,-32,117,-85,95,50,81,31,-53,121
81,-12,-93,-34,87,-52,108,101,118,69,-32,128
66,-7,-73,-29,70,-40,105,127,148,100,-4,118
82,0,-82,-41,82,-41,88,157,169,95,4,110
64,-11,-75,-26,70,-43,38,167,188,122,21,105
55,-42,-98,-6,77,-70,-7,148,186,122,20,96
117,-44,-161,-37,139,-102,-51,139,190,135,19,92
157,-12,-169,-72,163,-90,-97,119,207,175,33,82
145,-11,-156,-67,151,-83,-130,92,219,196,60,86
134,-1,-136,-67,135,-68,-129,71,223,245,117,94
149,54,-95,-102,122,-20,-121,68,224,288,160,106
157,102,-54,-129,105,24,-101,65,211,284,182,140
153,122,-30,-137,91,46,-59,60,194,248,171,147
135,108,-27,-121,81,40,-17,57,171,215,129,110
81,59,-22,-70,51,19,20,53,128,169,91,60
24,3,-21,-14,22,-8,37,43,86,103,50,21
-20,-49,-29,35,5,-39,25,30,52,57,2,-14
-50,-90,-40,70,-5,-65,7,21,10,14,-37,-50
-93,-131,-38,112,-27,-84,-5,14,-24,-18,-52,-52
-72,-128,-56,101,-8,-92,-13,8,-32,-34,-56,-29
-57,-134,-77,95,10,-105,-20,-2,-29,-39,-68,-23
-58,-145,-87,101,15,-116,-20,-16,-26,-34,-71,-18
-5,-104,-100,55,48,-102,-20,-15,-23,-28,-61,-6
-7,-99,-92,54,42,-95,-31,-5,-20,-26,-55,-1
0,-87,-87,44,44,-87,-19,11,-18,-19,-46,9
5,-77,-82,36,44,-79,3,23,-3,-17,-39,12
17,-58,-75,21,47,-67,24,35,23,-2,-26,22
60,-18,-78,-21,70,-48,49,57,52,33,-10,27
100,19,-81,-60,91,-31,60,75,70,49,-1,27
151,68,-84,-109,117,-8,59,99,88,72,12,63
148,61,-87,-104,118,-13,22,71,93,80,17,64
188,100,-88,-144,138,6,-33,23,77,81,35,81
223,126,-97,-175,160,15,-47,21,74,73,40,105
160,54,-107,-107,133,-26,-37,0,47,57,23,86
123,30,-93,-76,108,-31,-4,-5,16,48,14,78
74,-10,-84,-31,79,-47,28,-5,0,12,-10,57
46,-39,-86,-3,66,-62,28,4,2,3,-14,48
54,-30,-84,-11,69,-57,33,14,-5,-19,-24,40
29,-57,-86,15,58,-72,25,10,-12,0,-22,60
29,-49,-78,11,54,-64,38,32,-6,-32,-39,42
49,-28,-76,-10,63,-52,19,-6,-28,-5,-22,29
-10,-102,-92,57,41,-97,151,409,251,-58,-144,-75
115,18,-97,-66,106,-39,180,742,604,224,-2,16
460,367,-93,-413,276,137,-261,-322,-67,775,671,614
294,204,-90,-249,192,56,-463,-1591,-1427,-155,414,611
-45,-130,-85,88,20,-107,-324,-1363,-1432,-829,-179,186
-8,-89,-81,49,37,-85,-161,-505,-470,-264,-93,134
5,-66,-71,31,38,-68,-34,-167,-128,-89,-64,106
1,-66,-67,33,34,-66,8,-52,-15,-7,-45,110
16,-56,-72,20,44,-64,55,10,37,6,-29,117
1,-61,-62,30,32,-61,100,48,47,7,-30,110
15,-51,-66,18,41,-58,147,60,85,43,-15,106
34,-53,-87,10,60,-69,133,22,66,18,-20,88
51,-49,-100,-1,76,-74,112,26,83,41,-8,83
52,-54,-107,1,80,-80,91,26,84,29,-8,61
45,-57,-102,6,74,-79,59,31,97,61,-2,35
48,-47,-95,0,72,-71,48,34,130,86,9,10
66,-26,-92,-20,79,-59,33,75,146,99,41,23
102,18,-84,-60,93,-32,26,116,177,131,60,63
150,70,-80,-110,115,-5,13,117,209,163,98,122
198,100,-97,-149,148,1,2,123,225,201,128,170
234,149,-85,-191,160,32,-12,128,283,265,169,224
208,172,-36,-190,122,68,-33,129,309,317,232,282
155,172,17,-164,69,95,-42,139,292,331,262,306
142,171,30,-157,56,100,-34,135,279,326,262,305
129,161,32,-145,48,96,-29,108,232,303,234,282
101,134,32,-118,34,83,-22,78,173,253,194,250
95,80,-15,-87,55,33,16,59,130,175,148,190
103,49,-54,-75,78,-3,44,34,91,110,96,136
94,2,-92,-48,93,-45,59,-2,51,69,53,119
122,0,-121,-61,122,-61,71,-14,38,50,32,120
190,61,-128,-125,159,-33,77,-32,36,33,22,120
202,66,-136,-134,169,-35,88,-41,32,25,17,120
190,66,-124,-128,157,-28,81,-40,29,24,13,120
207,92,-115,-149,161,-11,73,-34,24,20,6,121
179,74,-106,-126,142,-16,67,5,29,18,1,135
143,70,-73,-106,108,-1,58,33,30,9,4,140
106,60,-46,-83,76,6,56,61,41,34,14,140
13,12,-1,-13,7,5,54,87,47,46,20,140
-22,18,40,2,-31,29,56,89,61,44,35,140
-9,26,35,-9,-22,30,54,103,88,54,48,140
9,39,30,-24,-10,34,55,124,87,46,41,138
50,73,22,-62,14,47,72,135,108,74,69,179
116,119,4,-118,56,61,69,160,127,110,93,216
186,161,-25,-174,105,68,12,100,118,111,95,228
245,183,-62,-214,153,60,-42,1,116,117,119,235
273,193,-80,-233,177,56,-35,-5,105,114,105,220
238,153,-86,-195,162,33,-29,-22,70,94,100,203
200,121,-79,-160,139,20,-21,-25,63,63,71,170
163,99,-64,-131,113,17,-17,-8,47,45,32,154
120,71,-49,-95,84,11,-15,13,45,40,35,145
95,62,-33,-78,63,15,0,21,33,1,21,135
151,114,-37,-132,94,38,4,86,13,-26,35,134
128,94,-34,-111,81,30,36,63,11,-62,11,99
112,79,-33,-95,72,23,64,34,27,-20,19,91
120,65,-56,-93,88,5,222,560,418,0,-109,-44
326,272,-53,-299,190,109,123,598,633,470,247,232
568,604,36,-586,266,320,-299,-550,-286,716,852,816
139,250,111,-195,14,180,-327,-1421,-1435,-447,267,526
-53,-23,30,38,-42,4,-219,-1041,-1186,-775,-185,115
12,32,20,-23,-4,25,-101,-337,-352,-209,-9,125
78,115,37,-97,21,76,-4,-69,-59,-66,6,92
-125,-88,37,106,-81,-26,34,25,-6,21,38,118
-380,-323,58,351,-219,-133,137,22,-32,-48,0,154
