I,II,III,aVR,aVL,aVF,V1,V2,V3,V4,V5,V6
-149,-79,71,114,-110,-4,-39,-119,-149,-119,-150,-105
-132,-71,61,101,-96,-5,-32,-112,-144,-113,-147,-102
-150,-54,96,102,-123,21,-18,-102,-137,-103,-139,-96
-122,-14,108,68,-115,47,-9,-92,-123,-92,-133,-89
-112,8,119,52,-116,63,-9,-85,-103,-83,-125,-82
-121,24,145,48,-133,84,16,-85,-93,-69,-121,-63
-82,69,151,6,-117,110,23,-85,-94,-40,-100,-37
-54,81,134,-14,-94,107,-21,-85,-98,-33,-74,-45
-55,62,117,-4,-86,89,-39,-85,-100,-39,-69,-53
-74,26,100,24,-87,63,-32,-87,-105,-37,-71,-52
-111,-33,78,71,-94,23,-33,-94,-110,-59,-97,-62
-132,-85,48,108,-90,-18,-27,-107,-134,-103,-139,-97
-149,-105,44,126,-96,-30,-26,-120,-149,-111,-148,-115
-157,-124,33,140,-95,-45,-24,-113,-148,-107,-154,-112
-146,-120,25,133,-85,-47,-18,-112,-154,-115,-168,-120
-159,-131,28,144,-93,-51,-17,-111,-144,-102,-160,-108
-156,-155,1,155,-78,-76,-6,-101,-159,-122,-172,-126
-136,-109,28,123,-82,-40,-13,-114,-137,-92,-154,-100
-129,-201,-72,166,-28,-136,33,-39,-168,-161,-200,-163
-196,-215,-19,206,-88,-117,259,219,-147,-272,-327,-292
-114,71,185,21,-150,128,407,454,51,-106,-208,-128
226,811,585,-519,-180,698,-77,48,495,659,441,671
338,1055,717,-697,-190,886,-709,-729,669,1198,903,1215
117,100,-17,-109,67,42,-706,-1035,-171,328,495,471
-96,-317,-221,207,63,-269,-358,-724,-586,-321,31,-143
-134,-173,-39,154,-48,-106,-62,-211,-220,-139,-124,-117
-130,-179,-49,155,-40,-114,17,-49,-131,-118,-168,-106
-153,-128,25,140,-89,-51,12,-39,-105,-99,-151,-70
-123,-140,-17,131,-53,-78,42,-11,-95,-99,-169,-83
-93,-119,-26,106,-33,-72,42,-13,-90,-94,-165,-73
-100,-122,-23,111,-39,-72,47,7,-77,-84,-172,-71
-99,-119,-19,109,-40,-69,47,9,-79,-87,-170,-72
-112,-111,1,111,-56,-54,51,20,-63,-76,-169,-64
-109,-114,-5,112,-52,-59,50,27,-65,-80,-171,-67
-77,-102,-25,90,-26,-63,50,35,-53,-70,-169,-59
-88,-108,-20,98,-34,-64,51,34,-49,-71,-171,-60
-104,-113,-9,109,-48,-60,48,44,-40,-60,-165,-54
-111,-110,1,110,-55,-54,45,56,-34,-46,-160,-54
-124,-101,23,112,-74,-39,40,71,-29,-35,-155,-49
-100,-99,1,100,-51,-48,38,87,-13,-21,-147,-32
-74,-88,-14,81,-29,-50,33,97,12,-4,-146,-4
-80,-69,12,74,-46,-28,30,123,44,28,-128,36
-25,-29,-5,27,-10,-17,24,146,64,68,-83,65
42,14,-28,-28,35,-7,12,166,96,119,-41,115
45,43,-2,-44,24,20,2,184,143,168,1,180
64,92,27,-78,18,59,-14,202,178,217,37,225
94,129,34,-112,30,81,-26,198,217,271,81,286
117,160,43,-139,37,101,-37,195,239,285,103,309
102,161,59,-132,22,110,-28,192,219,268,71,278
46,95,49,-71,-1,72,2,140,153,201,29,216
-15,25,40,-6,-28,32,12,75,66,107,-27,121
-63,-33,30,48,-46,-2,18,12,-4,27,-90,44
-93,-87,6,90,-49,-40,16,-32,-52,-32,-122,-6
-115,-121,-5,118,-55,-63,14,-47,-86,-57,-135,-38
-129,-142,-13,135,-57,-77,16,-64,-109,-81,-146,-56
-136,-155,-19,146,-58,-87,14,-76,-110,-90,-146,-60
-129,-155,-26,142,-51,-90,16,-75,-110,-94,-145,-60
-123,-155,-32,139,-45,-93,12,-75,-115,-101,-145,-60
-121,-155,-34,138,-43,-95,10,-75,-115,-99,-140,-60
-107,-155,-48,131,-29,-101,10,-75,-114,-101,-140,-60
-104,-154,-51,129,-26,-102,10,-72,-110,-100,-140,-61
-111,-156,-45,134,-32,-100,10,-67,-108,-101,-140,-65
-110,-154,-44,132,-32,-99,11,-65,-105,-98,-140,-65
-117,-157,-40,137,-38,-98,14,-60,-102,-94,-140,-67
-125,-164,-39,145,-43,-101,17,-57,-100,-95,-140,-70
-116,-149,-33,133,-41,-91,19,-54,-97,-95,-140,-70
-111,-139,-29,125,-41,-84,23,-50,-94,-95,-136,-67
-92,-139,-47,116,-22,-93,25,-51,-91,-95,-135,-65
-80,-135,-55,108,-12,-95,25,-48,-88,-89,-135,-65
-91,-132,-41,112,-25,-86,25,-45,-86,-84,-135,-60
-90,-130,-41,110,-25,-85,25,-45,-84,-79,-135,-60
-103,-131,-27,117,-38,-79,25,-41,-80,-73,-134,-59
-109,-138,-29,124,-39,-84,25,-40,-75,-68,-129,-54
-87,-132,-45,110,-21,-88,25,-40,-73,-62,-126,-49
-98,-162,-65,130,-16,-113,20,-40,-68,-59,-122,-44
-100,-189,-89,145,-5,-139,20,-40,-64,-60,-118,-41
-94,-163,-69,129,-13,-115,18,-41,-71,-56,-115,-34
-120,-195,-75,158,-22,-135,16,-45,-76,-55,-112,-43
-134,-209,-75,172,-29,-142,14,-47,-74,-55,-109,-51
-133,-203,-70,168,-31,-136,20,-50,-75,-55,-106,-50
-141,-211,-69,176,-36,-140,30,-53,-75,-55,-103,-48
-147,-210,-63,179,-42,-136,31,-56,-75,-54,-100,-44
-105,-207,-102,157,-1,-154,26,-49,-71,-61,-99,-45
-84,-170,-86,127,2,-128,25,-36,-62,-61,-94,-41
-81,-151,-70,116,-5,-110,44,-25,-55,-44,-90,-30
-76,-136,-60,106,-8,-98,60,-14,-44,-32,-84,-20
-86,-124,-38,105,-24,-81,78,-6,-35,-30,-82,-9
-63,-93,-30,78,-16,-61,87,8,-24,-8,-67,21
-37,-68,-31,53,-3,-49,44,17,-16,18,-41,42
-38,-82,-44,60,4,-63,15,11,-7,12,-38,39
-9,-74,-65,41,28,-69,30,8,0,9,-44,42
-2,-99,-97,51,48,-98,31,3,-10,5,-43,36
-55,-149,-94,103,20,-121,25,-22,-26,-19,-59,1
-81,-199,-118,140,18,-158,26,-45,-57,-49,-88,-42
-109,-230,-121,170,6,-176,19,-55,-58,-52,-95,-41
-110,-245,-134,178,12,-189,22,-54,-62,-70,-109,-49
-87,-213,-126,151,19,-170,17,-57,-58,-63,-103,-42
-63,-221,-158,143,48,-189,31,-53,-59,-64,-105,-45
-47,-213,-166,130,60,-189,42,-57,-64,-71,-108,-49
-65,-212,-147,139,42,-179,30,-41,-52,-53,-94,-35
-83,-315,-232,199,75,-273,146,82,-111,-171,-196,-158
-137,-220,-83,178,-27,-152,409,393,-14,-207,-265,-222
53,215,162,-135,-55,188,361,452,259,140,34,144
396,996,600,-697,-102,798,-293,-186,735,1018,762,1048
359,753,394,-557,-18,574,-720,-832,539,1055,906,1120
113,-200,-313,44,213,-257,-526,-915,-368,6,317,199
-38,-261,-223,150,93,-242,-197,-478,-378,-223,4,-97
-62,-188,-126,126,32,-157,32,-66,-70,-72,-74,-44
-48,-169,-121,109,37,-144,60,-17,-61,-98,-81,-46
-58,-141,-82,100,12,-111,65,13,-31,-60,-84,-34
-52,-168,-116,110,32,-142,80,34,-49,-78,-105,-54
-53,-139,-86,96,17,-112,71,42,-31,-54,-101,-39
-47,-159,-111,103,32,-135,78,52,-28,-63,-113,-54
-52,-143,-91,98,19,-117,73,38,-11,-59,-102,-48
-48,-146,-98,97,25,-121,76,58,-4,-59,-107,-49
-49,-136,-87,93,19,-111,78,84,3,-62,-102,-46
-60,-131,-71,96,6,-101,80,86,0,-58,-99,-44
-46,-127,-81,87,18,-103,81,88,-17,-59,-101,-41
-32,-118,-86,75,27,-102,84,90,-1,-46,-94,-40
-15,-114,-99,65,42,-106,86,93,11,-38,-87,-30
-12,-98,-87,55,38,-92,83,111,27,-28,-79,-7
12,-76,-88,32,50,-82,76,121,43,-5,-71,14
29,-42,-72,6,51,-57,69,139,61,21,-63,28
45,-10,-55,-17,50,-32,63,164,88,38,-41,51
90,32,-58,-61,74,-13,53,185,120,79,-11,94
116,72,-44,-93,80,14,38,201,159,140,31,145
154,104,-50,-129,102,27,28,220,198,197,69,201
205,157,-48,-181,126,55,30,238,233,244,100,251
218,182,-36,-200,127,73,33,242,265,289,149,308
209,181,-27,-195,118,77,37,236,272,285,161,321
184,174,-10,-179,97,81,39,200,241,245,135,286
119,108,-11,-113,65,48,45,143,169,186,90,215
57,35,-23,-46,40,6,54,83,86,85,28,112
30,-20,-50,-5,40,-35,54,31,17,12,-24,47
15,-58,-73,22,44,-65,49,-1,-34,-31,-61,3
-7,-74,-67,41,30,-70,50,-21,-37,-60,-73,-23
-23,-107,-84,65,31,-95,66,-35,-51,-63,-74,-39
-20,-117,-97,69,39,-107,68,-40,-73,-71,-76,-57
-20,-114,-94,67,38,-104,60,-40,-69,-77,-79,-54
-19,-112,-93,66,37,-103,57,-40,-70,-79,-81,-55
-20,-109,-89,64,34,-99,49,-40,-70,-83,-76,-55
-20,-110,-91,65,35,-100,45,-40,-70,-85,-75,-54
-15,-105,-90,60,38,-97,40,-37,-74,-89,-75,-56
-16,-106,-90,61,38,-97,40,-34,-75,-90,-75,-54
-14,-103,-89,59,38,-96,40,-31,-75,-86,-75,-55
-18,-101,-82,60,32,-91,40,-28,-75,-85,-76,-55
-21,-99,-78,60,28,-88,40,-26,-75,-85,-80,-55
-32,-104,-72,68,20,-88,40,-23,-74,-80,-80,-55
-48,-114,-66,81,10,-90,52,-20,-71,-80,-80,-55
-43,-104,-61,74,9,-82,56,-20,-70,-79,-80,-55
-41,-98,-57,70,8,-77,51,-20,-70,-75,-80,-55
-38,-90,-52,64,7,-71,50,-20,-70,-76,-84,-55
-37,-86,-49,61,6,-67,46,-19,-70,-72,-85,-55
-21,-66,-45,44,12,-55,44,-25,-72,-70,-85,-59
3,-39,-42,18,23,-40,41,-30,-76,-70,-85,-60
-17,-53,-36,36,9,-44,36,-30,-78,-71,-84,-60
-32,-64,-33,48,1,-48,34,-29,-81,-69,-86,-65
-23,-51,-27,37,2,-39,29,-32,-84,-73,-90,-65
-23,-46,-24,35,1,-35,26,-43,-88,-85,-90,-66
4,-37,-41,16,23,-38,22,-47,-98,-85,-90,-70
4,-30,-35,13,20,-32,20,-48,-105,-84,-90,-70
-32,-56,-24,44,-3,-40,20,-52,-104,-86,-90,-70
-30,-64,-34,47,2,-48,16,-54,-107,-84,-86,-70
-17,-53,-37,36,10,-45,15,-58,-110,-87,-84,-70
-16,-49,-33,33,9,-41,15,-61,-111,-93,-85,-66
-3,-41,-37,22,17,-39,22,-55,-106,-88,-80,-60
2,-28,-30,13,16,-29,31,-46,-92,-81,-80,-56
-24,3,27,10,-26,15,40,-37,-78,-74,-79,-49
-24,37,61,-7,-42,48,48,-29,-68,-68,-63,-43
-10,50,60,-21,-35,55,52,-24,-59,-57,-43,-39
-9,61,70,-26,-40,66,64,-26,-57,-42,-27,-22
21,88,67,-55,-23,78,40,-22,-60,-45,-18,-6
53,95,42,-74,5,68,8,-19,-60,-45,-19,-5
52,61,9,-56,21,35,11,-21,-60,-44,-21,1
31,19,-13,-25,22,3,10,-21,-60,-46,-19,-3
2,-17,-19,7,11,-17,10,-47,-79,-54,-37,-32
-24,-68,-43,46,10,-55,11,-66,-113,-87,-64,-64
-21,-81,-60,51,20,-71,9,-65,-111,-87,-56,-61
-19,-91,-71,55,26,-81,11,-64,-118,-93,-65,-75
-35,-79,-44,57,5,-61,8,-66,-113,-88,-64,-67
-40,-91,-51,66,6,-71,11,-64,-114,-90,-65,-71
-45,-92,-47,69,1,-69,9,-62,-119,-94,-68,-72
-45,-98,-53,72,5,-76,18,-53,-106,-80,-56,-61
-64,-205,-140,135,38,-172,125,54,-162,-198,-157,-185
-100,-141,-40,121,-30,-90,379,351,-76,-236,-230,-251
100,299,199,-200,-49,248,339,410,189,93,73,99
465,1099,634,-782,-84,866,-315,-204,677,973,815,1016
446,891,445,-669,0,668,-745,-839,495,1022,965,1104
143,-47,-190,-47,167,-118,-555,-930,-406,-14,355,175
-1,-147,-146,74,72,-146,-216,-510,-430,-252,51,-121
-34,-82,-48,58,7,-65,-16,-95,-137,-113,-18,-89
-27,-60,-33,44,3,-46,11,-35,-125,-135,-62,-106
-6,-25,-20,16,7,-22,29,-16,-94,-93,-66,-84
-14,-58,-44,36,15,-51,43,-14,-113,-111,-74,-105
-13,-30,-18,22,3,-24,41,-16,-94,-92,-69,-87
-15,-45,-31,30,8,-37,37,-7,-99,-99,-79,-94
-13,-29,-16,21,2,-22,30,-13,-92,-92,-73,-88
-10,-32,-22,21,6,-27,25,-1,-88,-87,-73,-88
-22,-42,-20,32,0,-31,21,5,-87,-97,-67,-85
-27,-45,-18,36,-4,-31,42,15,-80,-104,-64,-85
-17,-40,-23,29,3,-32,46,22,-82,-95,-61,-81
-19,-31,-12,25,-3,-21,45,42,-67,-79,-56,-69
-8,-27,-19,18,6,-23,50,62,-52,-68,-54,-61
29,-18,-47,-6,38,-32,50,66,-35,-52,-45,-49
40,-14,-54,-12,47,-34,49,76,-25,-42,-35,-37
16,0,-17,-8,16,-8,41,106,3,-21,-23,-18
41,44,3,-42,19,23,33,127,31,5,-3,13
106,72,-34,-89,69,19,25,145,54,45,36,58
127,97,-30,-112,78,33,18,167,96,103,79,107
149,151,2,-150,74,76,4,182,130,156,117,161
180,192,12,-186,84,102,-23,188,170,199,159,214
229,232,2,-230,113,117,-39,189,197,243,201,260
247,267,20,-257,113,143,-39,178,200,257,215,273
186,248,62,-217,62,155,-26,152,175,227,197,237
115,180,64,-148,25,122,-10,107,105,153,141,172
43,103,60,-73,-9,81,-9,38,28,52,69,80
-8,34,43,-13,-26,38,-15,-12,-34,-20,21,0
-35,-19,15,27,-25,-2,-21,-43,-79,-69,-17,-41
-28,-41,-13,35,-7,-27,-26,-62,-111,-92,-40,-66
-40,-42,-2,41,-18,-22,-31,-83,-125,-110,-44,-82
-62,-45,17,54,-39,-14,-35,-102,-136,-128,-57,-94
-59,-50,9,55,-34,-20,-35,-99,-142,-128,-70,-96
-74,-46,28,60,-51,-9,-37,-97,-139,-127,-64,-100
-61,-28,33,44,-47,2,-40,-93,-137,-124,-59,-114
-20,-11,9,15,-14,-2,-40,-100,-134,-125,-53,-109
-45,-16,29,31,-37,6,-36,-111,-135,-125,-46,-103
-88,-35,53,61,-70,9,-29,-106,-135,-125,-51,-98
-72,-35,37,54,-54,1,-23,-104,-135,-124,-54,-92
-63,-29,33,46,-48,2,-16,-99,-135,-120,-47,-88
-58,-30,28,44,-43,-1,-9,-96,-135,-120,-43,-84
-44,-23,21,33,-32,-1,-3,-93,-136,-120,-36,-82
-42,-31,11,36,-26,-10,0,-88,-132,-120,-31,-79
-83,-56,27,69,-54,-15,0,-85,-123,-120,-39,-76
-81,-55,26,67,-53,-14,0,-80,-114,-117,-46,-74
-60,-47,12,53,-36,-17,0,-77,-108,-112,-44,-71
-69,-45,25,57,-47,-10,0,-73,-100,-109,-46,-70
-57,-42,15,50,-36,-14,-3,-70,-95,-106,-45,-70
-62,-38,23,50,-43,-7,-9,-65,-86,-101,-45,-70
-38,-36,2,37,-20,-17,-14,-68,-88,-100,-50,-70
-22,-34,-11,28,-5,-22,-17,-69,-105,-110,-50,-72
-57,-31,26,44,-41,-3,-23,-75,-110,-115,-51,-75
-74,-56,19,65,-46,-18,-24,-86,-112,-115,-55,-75
-45,-42,4,44,-24,-19,-20,-84,-115,-115,-55,-75
-28,-38,-10,33,-9,-24,-20,-85,-118,-115,-52,-75
-46,-78,-32,62,-7,-55,-20,-85,-121,-115,-49,-75
-47,-71,-24,59,-11,-47,-20,-85,-116,-113,-50,-75
-32,-51,-19,42,-6,-35,-20,-85,-111,-110,-46,-75
-32,-58,-26,45,-3,-41,-16,-84,-106,-107,-45,-75
-73,-73,1,73,-36,-36,-10,-86,-102,-105,-45,-75
-91,-78,12,84,-51,-33,-4,-84,-97,-101,-38,-76
-47,-66,-20,57,-13,-43,1,-87,-94,-101,-30,-73
-36,-38,-2,37,-17,-20,7,-58,-85,-93,-22,-63
-36,-10,26,23,-31,8,13,-36,-75,-72,-15,-54
0,-3,-3,2,1,-3,28,-47,-65,-65,-6,-46
4,20,16,-12,-7,18,11,-43,-56,-63,6,-27
21,70,49,-46,-14,59,-27,-59,-55,-59,24,-13
52,84,32,-68,10,57,-31,-78,-55,-57,32,-18
50,71,21,-61,14,46,-30,-76,-54,-53,23,-21
34,26,-7,-30,20,10,-30,-83,-57,-64,11,-26
3,-28,-31,13,17,-29,-30,-84,-83,-93,-4,-47
-33,-70,-37,52,2,-53,-30,-89,-106,-132,-34,-82
-58,-92,-34,75,-12,-63,-27,-103,-112,-143,-49,-90
-56,-113,-57,85,2,-85,-20,-104,-144,-163,-54,-100
-64,-99,-35,82,-14,-67,-17,-107,-145,-152,-46,-91
-77,-116,-39,96,-19,-77,-12,-102,-148,-150,-52,-97
-58,-108,-50,84,-4,-78,-5,-108,-155,-146,-50,-96
-39,-112,-72,76,17,-92,-11,-88,-147,-135,-48,-91
-87,-220,-133,154,24,-176,101,48,-169,-250,-152,-213
-131,-134,-3,133,-64,-69,364,355,-53,-268,-215,-260
109,327,218,-218,-55,272,277,387,234,107,126,140
460,1110,650,-785,-95,880,-383,-251,711,989,877,1053
387,814,427,-600,-21,620,-752,-854,459,937,960,1051
103,-110,-213,4,158,-161,-541,-904,-404,-94,348,139
-6,-164,-158,85,76,-160,-208,-481,-381,-273,57,-120
-60,-151,-91,106,15,-120,-4,-96,-115,-139,-13,-95
-79,-132,-52,106,-13,-92,10,-47,-100,-153,-33,-98
-58,-92,-34,75,-12,-63,21,-18,-59,-118,-35,-84
-59,-120,-61,90,2,-91,33,-11,-76,-136,-51,-107
-55,-88,-33,72,-11,-61,35,-7,-55,-116,-45,-92
-59,-109,-49,84,-5,-79,43,8,-60,-125,-48,-99
-61,-84,-23,73,-18,-53,41,6,-48,-115,-43,-85
-42,-97,-55,70,7,-76,48,28,-45,-115,-47,-86
-61,-111,-51,86,-5,-81,48,43,-61,-118,-44,-80
-53,-106,-54,80,1,-80,50,51,-64,-120,-46,-73
-20,-106,-85,63,33,-95,45,52,-66,-127,-40,-81
-23,-100,-77,62,27,-89,45,58,-45,-106,-31,-77
-19,-101,-81,60,31,-91,46,84,-18,-83,-25,-52
-14,-93,-80,53,33,-86,44,86,2,-62,-15,-36
-1,-77,-76,39,38,-76,46,93,14,-42,-10,-24
9,-65,-75,29,42,-70,42,124,30,-24,8,1
42,-34,-75,-4,59,-54,36,137,57,1,29,26
62,-8,-70,-27,66,-39,31,162,89,45,57,66
86,15,-71,-50,78,-28,18,189,131,106,107,130
142,74,-68,-108,105,3,-2,208,168,153,148,182
167,114,-54,-140,110,30,-24,215,204,200,188,227
197,152,-45,-175,121,53,-33,206,228,242,234,282
196,176,-20,-186,108,77,-26,203,231,252,244,300
145,157,12,-151,66,84,-19,180,200,228,209,270
81,98,17,-89,32,57,-13,116,126,144,144,185
40,21,-20,-30,30,1,-5,56,45,40,76,81
15,-18,-33,1,25,-25,-1,15,-24,-31,30,21
-46,-69,-23,58,-11,-46,-4,-26,-66,-76,-8,-30
-75,-98,-23,87,-26,-60,-11,-49,-94,-107,-34,-61
-77,-96,-19,86,-29,-57,-14,-59,-106,-121,-36,-69
-79,-95,-16,88,-31,-55,-19,-70,-109,-124,-35,-75
-81,-94,-14,88,-33,-54,-24,-70,-121,-130,-35,-79
-89,-98,-9,93,-39,-53,-25,-69,-119,-129,-35,-84
-72,-83,-11,78,-30,-46,-29,-74,-124,-136,-35,-85
-73,-111,-38,93,-17,-75,-29,-74,-124,-139,-31,-85
-85,-130,-46,108,-19,-88,-22,-68,-115,-132,-30,-85
-85,-121,-35,103,-24,-78,-17,-65,-109,-127,-30,-85
-87,-122,-35,105,-26,-78,-12,-60,-103,-122,-25,-85
-90,-117,-28,103,-31,-72,-4,-55,-98,-114,-25,-85
-121,-146,-25,134,-48,-86,-14,-52,-106,-126,-25,-80
-142,-155,-13,149,-64,-84,-25,-47,-114,-142,-25,-77
-133,-132,1,132,-66,-66,-18,-44,-105,-134,-25,-73
-99,-133,-34,117,-32,-84,-14,-41,-97,-131,-25,-70
-86,-139,-53,113,-16,-96,-8,-36,-90,-127,-25,-64
-93,-125,-33,109,-30,-79,-2,-36,-82,-120,-25,-67
-96,-112,-16,104,-40,-64,-2,-40,-80,-123,-22,-79
-106,-109,-3,108,-52,-56,-5,-40,-80,-125,-16,-81
-73,-105,-32,89,-20,-68,-8,-40,-76,-128,-11,-79
-58,-102,-44,80,-7,-73,-11,-43,-74,-131,-8,-76
-85,-98,-13,92,-36,-55,-14,-46,-75,-134,-2,-74
-93,-94,-1,93,-45,-47,-16,-44,-75,-135,-1,-77
-89,-109,-20,99,-35,-64,-19,-46,-75,-130,-5,-80
-81,-116,-35,99,-22,-75,-20,-53,-75,-130,-7,-80
-92,-115,-23,104,-34,-69,-20,-56,-75,-130,-10,-79
-101,-108,-7,105,-46,-57,-20,-59,-74,-130,-13,-87
-73,-89,-16,81,-28,-52,-19,-62,-77,-130,-15,-96
-54,-73,-20,64,-17,-46,-23,-65,-84,-128,-18,-98
-71,-62,9,67,-40,-26,-25,-64,-78,-121,-23,-102
-120,-80,40,100,-80,-20,-25,-55,-70,-114,-24,-105
-113,-62,51,87,-81,-6,-24,-45,-62,-108,-18,-101
-56,-25,31,40,-43,3,-20,-34,-54,-101,-15,-91
-72,-29,43,50,-57,7,-13,-33,-47,-94,-10,-83
-81,4,86,38,-83,45,-9,-35,-38,-90,-6,-73
-50,49,100,0,-75,74,0,-35,-27,-78,5,-50
-15,71,86,-29,-51,79,-7,-35,-19,-51,35,-36
-3,79,82,-38,-43,80,-38,-35,-17,-43,44,-43
-19,74,94,-28,-57,84,-48,-36,-9,-49,33,-42
-29,55,84,-13,-56,69,-42,-33,-18,-50,20,-49
-74,0,75,37,-75,37,-42,-52,-41,-74,10,-67
-108,-57,51,83,-80,-3,-36,-70,-74,-119,-17,-99
-134,-84,50,109,-91,-17,-36,-71,-77,-117,-37,-112
-126,-113,13,119,-69,-50,-32,-69,-87,-126,-42,-117
-111,-101,10,106,-60,-45,-30,-71,-90,-131,-40,-114
-125,-104,21,114,-72,-41,-32,-70,-87,-128,-39,-112
-113,-113,0,113,-56,-56,-26,-66,-103,-144,-59,-122
-95,-86,9,90,-51,-38,-39,-53,-80,-124,-55,-102
-105,-181,-76,143,-14,-128,59,44,-141,-224,-130,-214
-168,-139,29,154,-98,-55,326,339,-43,-266,-228,-306
18,269,251,-144,-117,260,340,483,234,38,38,17
343,1025,682,-684,-170,853,-240,-59,698,889,759,907
312,946,634,-629,-161,790,-726,-762,599,1055,986,1109
77,28,-50,-52,64,-11,-596,-929,-309,47,446,217
-74,-166,-92,120,10,-129,-256,-527,-417,-287,66,-165
-95,-115,-20,105,-38,-67,-26,-100,-112,-130,-37,-114
-74,-95,-21,85,-26,-58,20,-26,-87,-138,-48,-127
-105,-35,70,70,-87,17,25,10,-36,-103,-39,-108
-147,-96,51,121,-99,-22,35,41,-53,-119,-45,-121
-127,-62,65,94,-96,2,27,42,-38,-97,-36,-102
-104,-58,46,81,-74,-6,32,49,-40,-99,-43,-106
-126,-76,50,101,-88,-13,24,42,-37,-91,-38,-95
-116,-72,44,93,-79,-14,26,47,-32,-88,-41,-91
-97,-58,40,78,-68,-9,24,47,-31,-92,-43,-87
-98,-59,38,78,-68,-10,19,56,-17,-83,-52,-83
-93,-62,32,77,-62,-15,14,64,-15,-87,-54,-87
-91,-63,28,77,-59,-18,9,59,-1,-82,-49,-83
-81,-66,15,73,-47,-26,6,76,4,-76,-50,-87
-73,-63,11,68,-42,-26,-2,92,15,-65,-50,-82
-55,-59,-4,57,-25,-31,9,108,43,-48,-40,-52
-48,-47,1,48,-24,-23,14,138,59,-23,-15,-16
-49,-28,21,39,-35,-4,1,150,79,16,14,13
-1,18,19,-9,-10,18,-10,170,116,50,51,56
47,59,13,-54,17,36,-23,178,157,113,89,111
69,93,24,-81,23,58,-33,190,194,166,129,156
96,137,40,-116,28,88,-56,206,219,202,182,215
129,168,39,-149,44,104,-68,214,264,266,212,268
149,197,48,-173,50,122,-53,218,285,289,234,284
132,211,79,-172,26,145,-42,181,256,262,206,254
59,150,91,-105,-16,120,-33,130,196,171,132,174
-13,67,80,-27,-46,73,-24,67,114,72,74,80
-37,30,67,4,-53,48,-17,13,52,-3,23,-5
-79,-21,58,50,-69,18,-20,-19,9,-59,-11,-55
-110,-58,52,84,-81,-2,-27,-36,-17,-72,-33,-67
-102,-53,49,77,-75,-2,-31,-42,-34,-94,-43,-78
-77,-33,44,55,-60,5,-39,-62,-43,-103,-40,-85
-79,-40,40,59,-59,0,-38,-66,-40,-97,-40,-85
-120,-72,48,96,-84,-12,-31,-65,-40,-96,-40,-87
-122,-69,52,95,-87,-8,-24,-70,-40,-92,-40,-86
-117,-70,46,93,-82,-12,-18,-70,-40,-90,-40,-85
-107,-69,39,88,-73,-15,-10,-69,-40,-92,-44,-84
-115,-78,37,96,-76,-20,-5,-63,-40,-95,-45,-80
-130,-98,32,114,-81,-33,-12,-56,-40,-95,-45,-79
-111,-79,31,95,-71,-24,-23,-49,-40,-99,-44,-86
-99,-72,27,85,-63,-22,-28,-42,-40,-101,-40,-90
-92,-67,25,79,-58,-21,-23,-36,-41,-99,-38,-82
-78,-58,20,67,-49,-18,-20,-35,-37,-95,-35,-76
-37,-55,-18,46,-9,-36,-17,-35,-23,-87,-32,-70
-44,-41,3,43,-23,-19,-12,-30,-14,-78,-29,-62
-83,-62,21,72,-51,-20,-9,-30,-9,-67,-35,-63
-89,-66,23,78,-56,-21,-4,-29,-4,-59,-43,-66
-119,-65,54,92,-86,-5,6,-25,2,-53,-40,-62
-112,-74,38,93,-75,-17,8,-25,8,-46,-37,-60
-79,-52,27,65,-53,-12,1,-25,8,-40,-35,-56
-76,-59,17,67,-47,-21,-4,-25,2,-31,-32,-54
-63,-61,3,62,-33,-29,-9,-24,-2,-38,-29,-59
-63,-53,10,58,-36,-21,-16,-35,-6,-53,-35,-61
-99,-54,45,76,-72,-5,-19,-41,-11,-55,-44,-68
-117,-48,69,82,-93,10,-16,-39,-15,-60,-46,-67
-112,-50,62,81,-87,6,-13,-41,-20,-63,-55,-64
-129,-58,71,93,-99,6,-11,-39,-24,-58,-66,-65
-131,-62,69,97,-99,3,-7,-41,-30,-53,-60,-60
-121,-50,71,85,-96,10,-5,-36,-26,-46,-57,-61
-100,-32,68,66,-84,18,-3,-29,-9,-42,-52,-59
-71,3,75,34,-73,39,3,-22,6,-36,-45,-53
-68,44,113,12,-91,78,7,-15,21,-35,-37,-46
-61,48,109,6,-85,78,11,-10,28,-33,-31,-43
-44,73,117,-15,-81,95,16,2,45,0,-19,-28
-32,89,121,-29,-76,105,-5,-8,65,19,3,-8
-25,77,102,-26,-64,89,-27,-23,69,13,10,3
-14,69,83,-27,-49,76,-22,-19,80,12,30,9
-29,21,51,4,-40,35,-17,-20,70,5,17,-1
-67,-35,32,51,-49,-2,-14,-23,19,-27,-35,-35
-104,-81,23,92,-63,-29,-8,-34,-9,-68,-60,-79
-112,-93,19,102,-65,-37,-6,-37,-1,-71,-72,-88
-100,-99,1,99,-50,-49,2,-32,-9,-77,-80,-91
-99,-108,-9,104,-45,-58,4,-39,-1,-62,-68,-78
-93,-132,-38,113,-27,-84,14,-30,-8,-70,-83,-86
-98,-90,7,94,-52,-41,16,-39,-7,-55,-66,-68
-85,-130,-45,108,-20,-87,27,2,-25,-73,-93,-92
-147,-191,-44,169,-51,-118,204,198,-29,-196,-234,-235
-140,2,142,69,-141,72,447,508,128,-147,-214,-211
169,610,441,-390,-136,525,179,360,485,412,256,370
371,1164,793,-767,-211,978,-535,-429,835,1183,888,1160
215,497,282,-356,-33,389,-759,-966,229,729,757,796
7,-179,-187,86,97,-183,-448,-816,-471,-177,202,-22
-84,-105,-20,95,-32,-62,-115,-281,-202,-143,-33,-110
-93,-110,-16,101,-38,-63,37,7,-7,-44,-91,-77
-107,-59,47,83,-77,-6,33,31,25,-40,-77,-65
-139,-62,77,100,-108,8,44,70,61,-12,-90,-57
-127,-55,72,91,-99,8,45,52,41,-20,-93,-62
-113,-39,75,76,-94,18,52,76,57,-1,-92,-49
-114,-55,59,85,-86,2,63,92,44,-8,-100,-54
-97,-34,63,65,-79,14,58,88,54,8,-98,-44
-88,-35,54,61,-71,9,59,96,46,6,-100,-46
-79,-16,63,47,-70,23,53,93,45,12,-93,-40
-69,-14,54,41,-61,20,56,99,46,9,-93,-38
-55,-6,49,30,-52,21,51,109,62,11,-88,-36
-47,2,49,22,-48,26,44,112,68,20,-86,-33
-33,3,36,15,-35,20,41,126,72,25,-85,-24
-22,31,53,-4,-37,41,34,142,97,45,-75,-9
-68,33,101,17,-85,67,29,149,112,56,-59,4
-49,59,108,-5,-79,83,24,173,143,86,-47,34
0,102,102,-52,-51,102,17,193,171,123,-27,73
12,115,102,-64,-45,108,12,220,202,154,8,110
61,159,98,-110,-19,128,-1,244,249,225,50,176
116,218,103,-167,6,160,-27,260,294,279,79,229
127,253,126,-190,0,189,-47,279,327,315,123,272
142,274,132,-208,5,203,-47,276,345,354,161,324
162,289,127,-226,17,208,-46,265,348,335,148,308
113,256,144,-185,-16,200,-22,234,308,292,107,265
45,186,141,-116,-48,163,5,175,223,204,49,179
-11,110,122,-50,-67,116,15,122,133,97,-9,72
-50,57,108,-4,-79,82,26,75,84,50,-61,22
-52,40,92,6,-72,65,20,31,64,11,-93,-14
-56,33,89,12,-73,61,14,14,41,-20,-96,-34
-59,29,87,15,-73,58,10,10,30,-35,-103,-44
-57,22,79,17,-68,50,3,1,25,-42,-106,-52
-72,18,90,27,-81,54,-1,-6,20,-39,-104,-59
-66,12,78,27,-72,45,-6,-13,17,-41,-109,-62
-80,9,89,35,-85,49,-9,-12,11,-40,-115,-59
-109,3,112,52,-111,57,-12,-9,8,-40,-115,-60
-99,0,99,49,-99,49,-17,-11,3,-44,-115,-60
-80,17,96,31,-88,56,-20,-10,2,-49,-115,-60
-70,20,90,25,-80,55,-17,-11,-4,-44,-115,-63
-71,13,84,29,-78,49,-14,-9,-3,-41,-113,-72
-72,8,80,31,-76,44,-11,-3,21,-38,-109,-71
-68,4,72,32,-70,38,-9,4,26,-33,-111,-66
-70,-5,65,37,-68,30,-4,11,17,-30,-106,-64
-60,1,61,29,-60,31,-9,17,33,-27,-105,-59
-23,24,47,-1,-36,35,-21,24,46,-24,-105,-56
-52,23,74,14,-63,48,-20,22,41,-21,-100,-52
-75,16,91,30,-84,53,-19,19,38,-18,-100,-50
-51,15,66,18,-59,40,-16,20,35,-15,-100,-47
-69,3,72,33,-70,37,-14,20,30,-13,-100,-44
-82,-13,69,48,-75,28,-17,21,28,-10,-100,-40
-78,-8,71,43,-74,31,-19,18,24,-9,-102,-40
-65,5,69,30,-67,37,-21,15,22,-17,-105,-46
-64,9,73,27,-69,41,-19,12,19,-32,-108,-53
-50,41,91,4,-71,66,-26,9,16,-44,-111,-55
-30,47,77,-9,-54,61,-40,5,14,-44,-114,-54
-38,42,80,-2,-60,61,-38,2,11,-52,-115,-66
-34,67,101,-17,-68,84,-34,-1,9,-61,-109,-69
-58,63,121,-3,-90,92,-31,-5,8,-56,-103,-60
-50,49,99,0,-75,74,-26,-4,3,-54,-99,-55
-30,50,80,-10,-55,65,-24,1,12,-50,-93,-47
-41,94,134,-26,-88,114,-19,19,36,-46,-88,-42
-11,132,143,-61,-77,137,-21,32,55,-42,-82,-35
-22,141,163,-59,-93,152,-15,30,59,-22,-73,-27
-12,178,191,-83,-102,184,-18,29,61,-9,-51,-19
33,182,149,-108,-58,165,-45,26,74,-11,-28,-11
26,162,136,-94,-55,149,-52,23,82,-6,-25,-5
13,140,128,-77,-58,134,-49,28,80,-4,-24,4
-13,99,112,-43,-63,105,-51,19,57,-12,-39,-13
-23,46,70,-12,-47,58,-49,-7,22,-47,-73,-64
-41,14,56,13,-49,35,-51,-15,15,-87,-93,-77
-47,9,56,19,-52,32,-46,-4,11,-94,-98,-76
-44,-6,38,25,-41,16,-41,-11,-2,-100,-104,-88
-86,-8,77,47,-81,34,-39,-25,2,-88,-94,-84
-88,-17,71,52,-79,27,-31,-11,-18,-105,-111,-104
-79,1,80,39,-79,40,-29,-12,-5,-82,-106,-76
-70,-88,-18,79,-26,-53,17,38,-35,-129,-145,-138
-117,-99,18,108,-67,-40,240,285,-18,-241,-276,-270
-62,162,224,-50,-143,193,428,559,162,-121,-190,-149
272,883,611,-578,-170,747,-42,191,585,591,399,585
423,1235,812,-830,-195,1024,-742,-637,817,1217,926,1211
240,316,76,-278,82,196,-792,-1006,-5,434,612,565
33,-171,-205,69,119,-187,-433,-708,-505,-302,112,-111
-63,-20,43,42,-53,11,-112,-174,-130,-140,-62,-108
-92,-38,54,65,-73,8,-24,25,-31,-99,-127,-113
-72,32,104,20,-89,68,-27,37,-9,-82,-117,-95
-38,33,72,2,-55,52,4,60,6,-80,-128,-102
-72,52,124,10,-98,87,3,45,2,-83,-128,-98
-87,45,132,21,-110,88,8,72,30,-71,-130,-92
-68,34,103,17,-86,68,3,78,30,-79,-136,-98
-58,39,98,9,-78,68,6,82,41,-66,-133,-87
-79,18,97,30,-88,57,5,84,31,-59,-132,-89
-66,54,119,6,-93,87,4,84,38,-68,-123,-82
-16,91,107,-38,-62,99,14,109,33,-87,-121,-80
-16,90,106,-37,-61,97,12,125,35,-62,-116,-75
-9,91,100,-41,-54,95,4,125,47,-56,-112,-71
4,96,92,-50,-44,94,-3,131,57,-50,-107,-57
1,94,93,-47,-46,93,-11,136,79,-39,-99,-43
-18,103,120,-43,-70,111,-18,142,90,-17,-91,-29
0,127,127,-64,-64,127,-22,173,119,18,-74,-3
46,166,119,-106,-36,142,-30,197,152,45,-49,33
68,190,122,-129,-27,155,-24,219,184,95,-22,79
101,238,137,-170,-18,187,-34,257,236,145,21,123
132,293,161,-212,-15,226,-65,267,260,195,72,182
150,310,159,-230,-5,234,-69,274,293,257,117,249
161,325,164,-243,-2,245,-62,272,321,288,141,281
147,330,183,-239,-18,256,-56,242,311,264,124,273
105,296,191,-201,-43,244,-49,201,256,205,87,212
44,225,181,-135,-68,203,-43,132,164,132,28,126
-5,151,156,-74,-81,153,-43,71,83,58,-35,39
-24,98,122,-37,-73,110,-46,38,24,4,-81,-29
-50,65,115,-8,-83,90,-49,9,-9,-31,-106,-56
-55,59,114,-2,-85,86,-52,-9,-32,-65,-120,-88
-59,60,118,-1,-89,89,-55,-16,-46,-77,-126,-102
-83,54,137,14,-111,95,-54,-22,-48,-74,-128,-99
-75,57,132,9,-104,94,-49,-30,-55,-78,-130,-103
-65,69,134,-2,-100,101,-51,-34,-52,-80,-125,-101
-54,66,120,-6,-87,92,-47,-30,-50,-80,-125,-98
-47,59,106,-6,-77,82,-44,-30,-50,-76,-125,-95
-52,54,106,-2,-80,80,-45,-30,-46,-75,-124,-92
-51,48,98,2,-75,73,-41,-30,-45,-75,-126,-89
-61,35,96,12,-79,66,-38,-30,-45,-70,-122,-92
-93,5,97,44,-95,51,-34,-26,-45,-70,-120,-96
-90,11,101,40,-95,55,-31,-22,-45,-69,-120,-95
-65,27,92,18,-79,60,-26,-16,-45,-65,-116,-95
-68,25,92,21,-80,58,-26,-13,-45,-66,-115,-94
-57,46,103,5,-80,74,-38,-6,-46,-63,-114,-91
-44,50,94,-3,-70,72,-41,-7,-42,-60,-111,-90
-17,43,60,-14,-39,51,-39,-19,-40,-60,-104,-90
-27,43,69,-8,-48,56,-40,-21,-40,-63,-116,-90
-71,36,107,17,-89,71,-39,-19,-40,-65,-132,-90
-54,36,89,9,-72,62,-41,-20,-40,-65,-129,-90
-53,40,93,6,-73,66,-45,-21,-40,-65,-130,-90
-62,48,109,6,-86,78,-45,-18,-55,-65,-130,-90
-48,52,100,-3,-74,76,-45,-35,-63,-66,-130,-90
-52,57,109,-3,-81,83,-48,-52,-66,-72,-134,-90
-61,59,120,1,-90,90,-54,-49,-71,-79,-135,-90
-60,56,116,2,-89,86,-61,-50,-75,-80,-135,-94
-58,53,112,2,-85,82,-60,-50,-83,-85,-135,-99
-60,51,110,4,-85,80,-60,-50,-83,-84,-135,-102
-54,47,101,3,-78,74,-60,-52,-78,-77,-136,-107
-64,45,108,9,-87,76,-61,-51,-75,-73,-146,-110
-80,46,126,16,-103,86,-58,-45,-72,-67,-144,-103
-63,62,125,0,-95,94,-35,-41,-67,-62,-127,-92
-46,90,136,-23,-91,113,-14,-36,-65,-55,-116,-83
-60,105,165,-23,-113,135,-16,-32,-53,-59,-108,-72
-47,126,173,-40,-111,150,-9,-27,-36,-64,-107,-67
-18,159,177,-71,-97,168,-13,-18,-35,-37,-97,-57
2,172,170,-87,-84,171,-59,-42,-36,-23,-78,-52
16,168,153,-92,-69,160,-75,-63,-34,-27,-69,-39
-2,126,128,-62,-65,127,-65,-59,-36,-32,-70,-27
-18,84,102,-33,-61,93,-66,-66,-52,-39,-81,-51
-54,26,80,14,-67,53,-59,-64,-90,-70,-108,-85
-95,-14,81,54,-87,33,-58,-77,-114,-97,-125,-100
-91,-20,71,55,-81,25,-53,-81,-125,-101,-130,-108
-96,-32,64,64,-80,16,-50,-78,-136,-111,-138,-113
-97,-31,66,64,-81,17,-51,-80,-128,-103,-135,-107
-91,-39,52,65,-71,7,-47,-69,-148,-124,-151,-124
-102,4,106,49,-103,54,-57,-85,-128,-103,-140,-103
-83,-103,-19,93,-32,-61,1,-20,-152,-151,-181,-170
-122,-123,-1,122,-60,-61,231,236,-138,-255,-289,-291
-47,168,215,-60,-132,191,385,475,39,-130,-181,-159
289,886,597,-588,-154,741,-101,80,489,629,436,625
418,1160,743,-789,-163,951,-748,-706,695,1217,924,1213
206,223,17,-215,94,120,-753,-1033,-148,371,540,493
-3,-213,-210,109,104,-211,-408,-729,-585,-308,61,-139
-52,-69,-16,61,-18,-42,-114,-205,-222,-128,-82,-116
-67,-80,-13,74,-27,-46,-24,-36,-131,-92,-133,-116
-101,-28,74,64,-88,23,-13,-29,-99,-78,-130,-92
-85,-42,43,63,-63,0,5,1,-93,-79,-138,-104
-87,-32,55,60,-71,11,1,-5,-92,-77,-135,-99
-85,-39,46,62,-65,4,13,13,-80,-67,-141,-99
-72,-32,40,52,-55,4,15,14,-84,-71,-140,-102
-73,-28,44,51,-59,8,19,26,-72,-61,-136,-93
-74,-26,48,50,-60,10,15,23,-74,-65,-135,-92
-83,-22,61,52,-72,19,15,32,-63,-57,-134,-84
-50,-10,40,30,-45,15,15,46,-60,-57,-135,-82
-41,18,59,11,-50,38,15,56,-54,-54,-135,-76
-61,-13,48,36,-55,17,16,60,-48,-48,-134,-72
-51,-11,41,31,-46,15,11,70,-36,-37,-126,-59
-65,5,69,30,-67,37,4,96,-22,-28,-114,-47
-44,19,64,12,-54,41,-3,107,-3,-14,-104,-28
-3,61,64,-30,-34,63,-9,125,22,14,-87,-5
28,95,67,-62,-20,81,-16,152,58,60,-51,32
59,125,66,-92,-4,95,-20,175,88,103,-12,79
97,178,80,-138,8,129,-39,189,122,154,18,123
131,236,105,-184,13,170,-51,194,167,204,55,188
143,264,121,-204,11,192,-58,212,192,252,106,247
174,284,110,-229,32,196,-77,217,195,282,122,268
140,277,138,-209,1,207,-72,184,181,262,116,261
92,250,158,-171,-33,203,-51,134,138,200,88,201
57,193,136,-125,-40,164,-40,73,57,102,10,102
8,122,113,-65,-53,117,-36,19,-22,17,-59,19
-12,68,80,-28,-46,74,-33,-26,-69,-42,-98,-46
-61,23,84,19,-72,53,-30,-60,-107,-84,-116,-80
-81,4,85,39,-84,44,-24,-78,-135,-95,-113,-83
-70,1,71,34,-70,36,-35,-81,-138,-106,-119,-90
-82,-5,76,43,-79,35,-47,-80,-143,-116,-126,-101
-76,2,78,37,-77,39,-44,-80,-144,-111,-125,-100
-51,17,68,17,-60,43,-45,-80,-139,-110,-123,-100
-50,12,63,19,-57,38,-45,-80,-138,-108,-120,-101
-48,8,56,19,-52,32,-45,-75,-134,-104,-119,-99
-32,4,36,14,-35,20,-42,-70,-132,-109,-124,-106
-39,-1,38,19,-38,18,-38,-66,-130,-116,-124,-111
-48,6,55,21,-52,30,-45,-61,-127,-113,-130,-106
-66,10,77,28,-72,43,-56,-57,-121,-110,-141,-104
-63,19,81,22,-72,50,-50,-52,-116,-108,-136,-100
-66,14,79,26,-72,46,-45,-50,-113,-103,-133,-95
-87,-7,80,47,-84,37,-42,-50,-107,-117,-130,-98
-67,12,79,27,-73,45,-35,-47,-104,-125,-125,-100
-76,30,106,23,-92,68,-41,-44,-100,-117,-128,-95
-77,37,115,20,-96,76,-47,-45,-100,-113,-130,-95
-55,49,104,3,-80,76,-41,-50,-101,-106,-130,-92
-61,39,100,11,-80,69,-38,-49,-98,-101,-128,-87
-49,66,115,-9,-82,90,-35,-60,-114,-103,-138,-104
-62,70,132,-4,-97,101,-29,-72,-127,-109,-144,-117
-84,36,120,24,-102,78,-39,-69,-124,-110,-137,-114
-77,41,117,18,-97,79,-52,-70,-125,-109,-132,-115
-78,45,123,16,-101,84,-54,-70,-125,-111,-126,-115
-52,40,92,6,-72,65,-52,-70,-124,-115,-120,-115
-62,36,98,13,-81,67,-50,-66,-135,-118,-126,-112
-70,31,100,19,-85,65,-50,-64,-140,-121,-131,-109
-28,28,56,0,-42,41,-45,-65,-141,-125,-130,-110
-63,20,84,21,-74,52,-45,-60,-150,-121,-128,-105
-61,23,83,19,-72,53,-45,-60,-150,-114,-125,-105
-30,36,66,-4,-48,51,-37,-59,-149,-110,-125,-104
-46,36,82,4,-64,59,-31,-54,-150,-103,-123,-100
-46,57,103,-5,-75,79,-24,-48,-134,-100,-116,-101
-42,81,123,-20,-83,102,-17,-44,-123,-91,-110,-94
-33,100,133,-34,-83,116,-12,-40,-100,-88,-106,-97
-29,148,177,-60,-104,162,-11,-35,-71,-73,-92,-79
2,168,165,-85,-82,166,-42,-39,-70,-49,-82,-44
18,170,152,-94,-67,160,-60,-40,-69,-45,-85,-32
26,154,128,-90,-51,141,-53,-41,-87,-43,-85,-25
21,105,83,-63,-31,94,-56,-55,-103,-61,-85,-43
-25,50,75,-13,-50,62,-51,-65,-120,-97,-103,-80
-48,15,63,16,-56,39,-49,-77,-152,-129,-130,-109
-49,18,68,15,-59,43,-51,-90,-147,-132,-128,-110
-54,-9,46,31,-50,18,-43,-84,-153,-140,-133,-113
-70,1,71,34,-70,36,-45,-82,-143,-129,-126,-100
-92,-36,56,64,-74,10,-36,-70,-147,-140,-135,-109
-113,-47,67,80,-90,10,-38,-68,-145,-131,-125,-93
-80,-65,14,72,-47,-25,-27,-56,-158,-143,-142,-124
-106,-141,-35,124,-35,-88,144,107,-177,-256,-263,-261
-110,1,111,54,-111,56,391,429,-48,-238,-269,-259
174,576,402,-375,-114,489,167,313,283,271,187,282
435,1213,778,-825,-172,996,-518,-423,714,1120,854,1134
314,609,295,-462,10,451,-773,-956,210,751,735,834
49,-183,-232,67,141,-207,-502,-877,-574,-220,178,-22
-63,-116,-53,90,-5,-84,-174,-374,-357,-226,-55,-146
-77,-92,-15,85,-31,-53,-19,-53,-138,-120,-122,-121
-75,-48,27,61,-51,-11,-11,-28,-132,-123,-110,-113
-68,-40,28,53,-48,-6,7,7,-95,-96,-120,-116
-68,-52,15,60,-41,-18,6,5,-111,-104,-121,-125
-64,-38,26,51,-45,-5,12,15,-87,-82,-122,-115
-79,-51,28,65,-53,-12,17,22,-93,-96,-128,-125
-92,-41,51,67,-71,5,20,26,-78,-84,-122,-116
-73,-40,32,56,-52,-4,26,34,-77,-86,-125,-123
-68,-28,40,48,-53,5,24,38,-69,-85,-118,-113
-61,-22,40,42,-50,9,29,34,-62,-80,-121,-108
-48,-5,43,26,-45,19,31,41,-57,-73,-115,-101
-67,-20,47,43,-57,13,27,66,-48,-65,-110,-94
-61,-13,48,37,-54,18,19,67,-45,-59,-104,-88
-21,29,51,-4,-36,40,12,78,-27,-47,-98,-77
-6,38,44,-16,-25,41,5,93,-13,-28,-94,-68
13,45,32,-29,-10,38,-3,106,9,3,-79,-41
36,86,50,-61,-7,68,-9,134,36,31,-56,-1
53,127,74,-90,-10,101,-3,158,68,72,-22,43
91,154,64,-123,13,109,-15,167,109,131,24,98
128,192,63,-160,32,127,-37,188,150,181,72,154
188,247,59,-218,64,153,-43,219,189,232,119,208
214,265,52,-240,81,158,-48,220,213,271,145,250
180,268,88,-224,46,178,-37,189,215,267,143,250
148,256,108,-202,20,181,-27,141,175,226,121,209
88,177,89,-132,-1,132,-18,89,99,137,62,125
27,105,78,-66,-26,91,-9,45,26,54,-4,28
2,61,60,-32,-29,60,-11,4,-34,-6,-44,-35
-9,18,27,-5,-18,22,-8,-34,-77,-67,-86,-79
-44,-15,29,29,-36,7,-20,-62,-106,-78,-103,-101
-79,-36,44,57,-61,4,-32,-75,-120,-91,-98,-109
-83,-47,36,65,-59,-6,-28,-75,-120,-109,-101,-119
-80,-44,36,62,-58,-4,-25,-75,-120,-100,-99,-120
-65,-34,31,49,-47,-1,-23,-74,-120,-101,-100,-120
-61,-31,30,46,-45,-1,-18,-83,-120,-96,-103,-120
-60,-20,40,40,-49,9,-26,-92,-118,-94,-106,-120
-74,-24,50,49,-62,13,-31,-87,-113,-111,-109,-119
-69,-58,11,63,-40,-24,-25,-85,-110,-114,-111,-114
-67,-67,0,67,-33,-34,-20,-81,-106,-107,-115,-116
-99,-63,36,80,-67,-13,-16,-80,-103,-104,-114,-113
-47,-60,-13,54,-17,-36,-12,-76,-99,-98,-109,-109
-24,-61,-38,43,7,-49,-8,-69,-96,-95,-104,-111
-74,-75,-1,75,-36,-38,-21,-62,-93,-90,-100,-106
-85,-76,10,80,-47,-33,-30,-56,-91,-90,-95,-105
-74,-74,0,74,-37,-37,-21,-48,-87,-89,-90,-105
-67,-76,-9,72,-29,-42,-18,-47,-85,-85,-87,-100
-62,-74,-12,68,-25,-43,-11,-56,-85,-86,-84,-100
-85,-77,8,81,-46,-34,-5,-53,-85,-82,-81,-100
-84,-80,4,82,-44,-38,-16,-66,-85,-80,-78,-100
-61,-80,-19,70,-21,-49,-21,-82,-84,-78,-76,-99
-54,-81,-26,68,-14,-53,-20,-79,-86,-76,-73,-101
-52,-79,-26,66,-13,-52,-18,-80,-83,-73,-71,-98
-44,-82,-37,63,-4,-59,-14,-80,-95,-88,-67,-103
-16,-74,-57,45,21,-65,-15,-79,-112,-106,-65,-116
-21,-69,-48,45,14,-58,-19,-86,-110,-105,-61,-112
-13,-59,-46,37,16,-52,-31,-94,-109,-105,-59,-108
-18,-58,-40,38,11,-48,-38,-90,-105,-105,-69,-105
-47,-98,-51,73,2,-74,-31,-85,-105,-105,-69,-100
-47,-90,-43,69,-2,-66,-22,-82,-102,-103,-62,-98
-57,-84,-28,71,-14,-56,-13,-76,-89,-93,-58,-91
-57,-86,-28,72,-15,-57,-5,-72,-78,-83,-51,-86
-42,-45,-3,44,-20,-24,5,-67,-68,-73,-47,-78
-33,-35,-2,34,-15,-18,15,-62,-57,-58,-38,-67
-53,-20,33,36,-43,6,40,-59,-49,-46,-27,-58
-21,29,50,-4,-36,39,35,-54,-41,-32,-14,-47
28,48,20,-39,4,34,-1,-50,-40,-29,-9,-42
27,42,15,-35,6,29,-6,-56,-32,-23,-4,-35
33,5,-27,-19,30,-11,-4,-53,-31,-19,-1,-31
8,-50,-57,21,33,-53,-6,-66,-62,-46,-10,-48
-30,-105,-75,68,23,-90,-3,-84,-93,-78,-40,-86
-40,-125,-85,83,23,-105,-20,-86,-117,-111,-73,-112
-45,-140,-95,92,26,-117,-25,-85,-125,-126,-80,-113
-77,-166,-90,122,7,-128,-15,-81,-123,-128,-82,-119
-81,-145,-64,113,-9,-104,-16,-82,-112,-118,-73,-112
-70,-168,-98,119,14,-132,-2,-71,-122,-136,-81,-130
-64,-139,-75,102,5,-107,-7,-82,-98,-110,-65,-107
-61,-210,-149,136,44,-179,29,-36,-137,-165,-111,-162
-141,-259,-118,200,-11,-188,253,208,-123,-267,-226,-289
-64,2,67,31,-65,34,424,468,55,-133,-135,-167
286,727,441,-507,-77,583,-2,131,479,572,476,577
441,1087,646,-765,-103,866,-628,-614,741,1184,1010,1198
223,214,-9,-219,116,103,-677,-961,-31,425,636,553
12,-278,-290,134,151,-284,-359,-729,-521,-267,133,-111
-53,-181,-127,117,37,-154,-69,-228,-208,-140,-19,-133
-48,-196,-148,122,50,-172,25,-20,-110,-120,-69,-125
-39,-135,-95,87,28,-115,34,-21,-70,-83,-51,-91
-74,-178,-104,126,16,-141,59,-1,-67,-99,-65,-102
-77,-166,-89,122,6,-127,55,-6,-66,-109,-58,-94
-44,-158,-114,101,35,-136,66,13,-53,-93,-60,-90
-21,-146,-125,84,52,-135,64,25,-60,-100,-61,-92
-42,-153,-111,98,35,-132,66,35,-47,-85,-59,-84
-46,-165,-120,106,37,-142,70,36,-50,-89,-60,-85
-41,-146,-105,93,32,-125,70,33,-42,-79,-51,-77
-56,-172,-116,114,30,-144,70,38,-39,-76,-48,-77
-57,-159,-102,108,23,-130,64,61,-30,-69,-42,-70
-49,-151,-103,100,27,-127,61,73,-24,-63,-36,-69
-20,-146,-126,84,53,-136,57,75,-17,-59,-32,-55
-7,-129,-122,68,58,-125,53,90,-4,-43,-25,-42
22,-92,-113,35,68,-102,50,97,13,-18,-17,-35
40,-50,-90,5,65,-69,43,110,29,3,-9,-20
42,-24,-66,-9,55,-45,28,131,57,38,18,16
84,32,-52,-57,68,-10,15,152,91,67,49,66
120,88,-32,-103,76,27,0,172,130,117,95,121
165,137,-28,-151,96,54,-19,190,170,182,141,182
205,166,-39,-186,122,63,-24,201,206,232,184,239
233,196,-37,-214,135,79,-30,195,240,266,225,276
215,212,-3,-214,109,104,-29,165,230,256,216,266
147,169,22,-158,63,95,-8,126,177,203,169,211
86,95,9,-90,38,52,-5,79,99,103,95,111
50,22,-28,-36,39,-3,-4,24,25,14,33,29
21,-37,-58,8,40,-47,0,-20,-26,-47,-2,-21
-24,-84,-61,54,19,-72,0,-51,-65,-86,-33,-70
-38,-91,-53,65,8,-72,5,-76,-84,-107,-45,-91
-53,-104,-51,78,-1,-77,5,-81,-86,-117,-45,-99
-44,-114,-70,79,13,-92,6,-83,-84,-107,-42,-104
-28,-111,-83,70,28,-97,10,-86,-86,-105,-39,-105
-41,-119,-78,80,19,-98,10,-89,-82,-100,-41,-98
-37,-118,-81,78,22,-100,10,-90,-80,-95,-36,-95
-41,-121,-80,81,19,-100,10,-85,-80,-99,-35,-90
-33,-113,-80,73,24,-96,9,-80,-80,-99,-35,-85
-36,-117,-81,77,23,-99,11,-75,-80,-104,-30,-94
-37,-112,-75,75,19,-93,9,-71,-80,-110,-27,-95
-18,-114,-96,66,40,-105,12,-66,-74,-102,-23,-90
-26,-151,-125,89,50,-138,28,-63,-68,-96,-20,-88
-29,-154,-125,92,48,-139,31,-58,-63,-89,-15,-83
-20,-144,-124,82,52,-134,29,-55,-57,-83,-17,-80
-23,-145,-121,84,49,-133,30,-52,-53,-77,-21,-77
-17,-135,-119,76,51,-127,30,-47,-50,-75,-20,-74
-16,-138,-122,77,54,-130,29,-45,-47,-75,-20,-71
-20,-146,-126,84,53,-136,25,-45,-44,-71,-20,-69
-2,-135,-133,69,66,-134,25,-45,-41,-69,-20,-65
0,-134,-134,67,67,-134,25,-45,-40,-71,-15,-66
-14,-118,-104,67,45,-111,25,-45,-40,-74,-15,-70
-19,-127,-109,73,45,-117,26,-44,-40,-75,-14,-69
-18,-154,-136,87,59,-145,21,-48,-40,-75,-10,-72
7,-124,-132,59,70,-128,20,-50,-40,-75,-10,-75
-1,-129,-128,65,64,-129,19,-50,-39,-75,-8,-75
-25,-150,-125,88,50,-137,16,-54,-43,-77,-4,-71
-19,-140,-121,79,51,-130,15,-55,-45,-81,-5,-70
-25,-141,-116,84,45,-128,16,-54,-45,-79,-5,-69
-15,-136,-121,76,53,-128,32,-50,-45,-80,-5,-72
-2,-133,-131,68,65,-132,42,-45,-38,-91,-5,-75
-5,-146,-141,76,68,-143,46,-42,-27,-83,2,-67
8,-128,-136,60,72,-132,49,-37,-18,-68,12,-59
16,-92,-108,38,62,-100,58,-34,-7,-47,23,-48
18,-82,-100,32,59,-91,74,-32,1,-23,30,-35
8,-68,-75,30,42,-71,70,-29,9,-18,30,-23
9,-21,-30,6,20,-25,62,-26,27,-12,45,-3
81,11,-70,-46,75,-29,41,-24,29,-9,72,18
112,10,-102,-61,107,-46,23,-31,20,-4,86,24
76,-30,-106,-23,91,-68,26,-28,15,1,86,3
46,-79,-125,17,86,-101,24,-35,3,-24,64,-28
6,-109,-115,52,61,-112,25,-61,-35,-57,17,-60
-13,-140,-128,77,58,-134,25,-67,-58,-71,-8,-71
-5,-165,-160,85,78,-162,25,-64,-53,-82,-14,-75
-7,-155,-148,81,71,-151,26,-70,-66,-88,-22,-78
-3,-139,-137,71,67,-138,23,-72,-57,-68,-15,-71
7,-146,-153,69,80,-149,27,-66,-76,-84,-34,-90
-8,-90,-82,49,37,-86,21,-63,-64,-56,-9,-56
-4,-187,-183,96,90,-185,44,-17,-93,-128,-49,-128
-68,-240,-172,154,52,-205,253,210,-77,-229,-174,-251
-12,-9,3,10,-7,-3,452,494,111,-104,-87,-137
364,709,345,-537,9,527,36,180,523,578,520,596
543,1138,595,-841,-26,867,-603,-554,806,1242,1093,1274
305,276,-29,-291,167,123,-661,-920,74,498,717,628
57,-258,-315,100,186,-286,-339,-713,-448,-230,189,-68
25,-154,-179,65,103,-167,-34,-205,-146,-105,65,-78
38,-177,-215,70,127,-196,61,-7,-43,-70,12,-75
25,-126,-152,51,89,-139,70,7,-13,-28,20,-41
28,-141,-169,57,99,-154,91,44,-6,-37,7,-55
12,-133,-145,61,79,-139,81,28,-9,-36,9,-47
28,-130,-158,52,93,-144,91,56,8,-25,4,-43
32,-132,-164,51,98,-148,89,58,2,-33,-1,-48
13,-127,-140,58,77,-134,89,66,17,-20,5,-38
32,-115,-147,42,89,-130,86,77,13,-27,4,-40
17,-105,-121,44,69,-113,84,72,8,-14,10,-32
31,-108,-139,38,85,-123,86,85,16,-14,11,-32
81,-83,-164,1,123,-123,84,96,42,-8,17,-26
63,-85,-149,11,106,-117,86,99,48,-3,20,-24
63,-79,-142,8,102,-110,82,106,51,-1,25,-13
59,-76,-135,9,97,-105,78,123,67,13,29,-1
80,-74,-154,-3,117,-113,73,138,83,29,35,17
125,-43,-169,-41,147,-106,69,158,110,61,45,42
138,-13,-151,-62,144,-82,65,188,144,104,73,75
175,37,-138,-106,157,-51,55,213,174,139,116,122
215,90,-125,-152,170,-17,36,229,213,191,163,182
260,144,-116,-202,187,15,26,241,248,247,214,244
294,187,-107,-240,200,40,24,249,281,297,258,301
316,213,-103,-264,209,55,26,244,298,329,284,338
295,228,-67,-261,181,80,24,225,284,326,282,334
240,180,-60,-210,150,60,27,183,249,281,248,285
201,116,-85,-158,143,15,45,116,179,186,186,187
134,52,-82,-93,108,-15,44,66,107,100,116,100
93,-9,-101,-42,97,-54,49,35,54,40,68,47
96,-39,-135,-28,115,-86,62,0,19,0,50,4
78,-63,-140,-7,109,-101,58,-19,4,-14,50,-6
45,-79,-124,17,85,-102,56,-24,-4,-21,50,-12
41,-80,-122,20,82,-101,52,-29,-19,-21,50,-20
39,-80,-119,20,79,-99,50,-33,-32,-20,50,-27
42,-78,-120,18,82,-99,48,-36,-31,-19,52,-34
63,-70,-133,4,98,-102,44,-35,-27,-28,56,-30
69,-64,-134,-2,102,-99,45,-35,-25,-37,55,-30
63,-57,-121,-3,92,-89,44,-35,-21,-35,55,-29
62,-51,-112,-5,87,-81,46,-35,-20,-33,55,-25
80,-45,-125,-17,103,-85,43,-35,-20,-30,56,-26
74,-55,-129,-9,102,-91,55,-33,-20,-30,59,-22
47,-75,-122,14,85,-98,67,-27,-20,-26,61,-20
40,-77,-117,19,78,-96,64,-24,-20,-25,59,-20
54,-66,-121,7,88,-93,65,-20,-20,-23,62,-20
76,-58,-134,-9,105,-96,65,-15,-19,-20,70,-20
75,-51,-126,-12,101,-88,65,-15,-14,-19,70,-20
70,-47,-117,-11,94,-81,62,-14,-11,-15,69,-20
80,-41,-121,-19,101,-81,59,-10,-8,-13,66,-20
82,-38,-120,-22,101,-78,61,-10,-4,-10,64,-20
89,-33,-122,-28,106,-77,59,-8,0,-6,67,-20
96,-28,-124,-34,110,-76,61,-1,-1,-5,70,-20
86,-26,-112,-30,100,-69,59,-7,1,-1,72,-18
75,-23,-98,-26,87,-60,55,-19,-4,0,75,-13
79,-39,-118,-20,99,-78,56,-22,-16,1,78,-10
84,-51,-135,-16,110,-93,52,-20,-12,4,81,-7
80,-45,-125,-17,103,-85,50,-16,-5,6,76,-2
84,-42,-126,-20,105,-84,50,-15,-4,3,74,0
82,-40,-121,-21,101,-80,54,-10,4,-9,76,-6
87,-32,-119,-27,103,-75,65,-10,3,-8,73,-5
78,-47,-125,-15,101,-86,70,-21,-7,3,79,7
72,-52,-123,-9,98,-87,70,-33,-1,9,77,6
88,-39,-127,-24,108,-83,69,-23,10,18,80,-5
81,-41,-123,-19,102,-82,83,15,33,31,96,-4
84,2,-81,-43,83,-39,99,32,55,44,105,18
78,29,-49,-53,63,-10,103,29,52,50,117,35
92,41,-51,-66,71,-5,101,31,55,59,123,45
161,104,-57,-132,109,23,89,29,77,76,147,70
188,135,-53,-161,120,41,83,31,80,83,166,78
180,123,-57,-151,118,33,77,27,70,83,165,80
172,74,-98,-123,134,-11,73,24,68,67,160,69
131,26,-104,-78,118,-39,66,19,50,56,151,59
89,-33,-122,-28,106,-77,61,16,15,26,139,34
83,-56,-139,-13,111,-97,63,8,14,6,125,9
71,-60,-131,-5,101,-95,65,7,17,6,113,3
48,-84,-132,18,90,-107,66,1,13,1,108,-5
63,-84,-147,11,105,-115,71,-4,27,12,108,-1
68,-107,-175,20,122,-141,81,-3,11,-5,99,-20
67,-71,-138,2,103,-104,80,-11,25,17,105,-3
66,-159,-225,46,146,-192,138,59,-25,-61,49,-77
-9,-187,-178,98,84,-182,371,319,12,-117,-28,-171
96,102,6,-99,45,54,517,552,227,64,103,7
475,859,384,-667,45,621,25,155,678,827,759,816
595,1127,532,-861,31,829,-574,-559,862,1356,1230,1356
339,221,-118,-280,229,51,-548,-857,40,483,752,582
134,-195,-328,31,231,-261,-222,-588,-347,-120,286,-10
83,-112,-195,15,139,-153,56,-97,-19,22,191,19
77,-130,-207,26,143,-168,134,74,54,40,136,11
76,-87,-163,5,120,-124,124,89,87,72,145,40
77,-113,-191,18,134,-152,143,105,86,54,137,25
85,-90,-175,3,130,-133,136,95,89,59,138,37
106,-100,-206,-2,156,-153,150,122,101,55,134,35
116,-91,-206,-12,161,-148,168,151,119,53,134,38
87,-114,-201,14,145,-158,169,157,129,63,143,42
92,-118,-211,14,151,-164,164,156,124,62,151,39
109,-83,-193,-13,151,-137,161,162,133,70,156,48
102,-118,-220,9,161,-169,157,156,128,72,154,53
116,-120,-236,2,176,-178,153,172,149,76,156,56
125,-101,-226,-12,175,-163,150,179,158,76,154,57
134,-91,-224,-21,179,-157,145,193,160,88,165,77
145,-74,-219,-36,182,-146,143,213,173,108,175,92
152,-60,-212,-45,182,-136,138,220,201,133,184,109
186,-38,-224,-74,205,-131,135,237,222,160,215,143
224,-4,-228,-110,226,-116,150,262,243,191,238,181
249,39,-211,-144,230,-86,140,291,287,233,274,226
296,91,-205,-193,250,-57,119,303,333,289,331,289
326,125,-201,-225,263,-38,109,320,370,342,379,342
334,161,-173,-247,253,-6,98,323,402,395,425,394
356,198,-158,-277,256,20,92,312,426,420,426,426
345,207,-138,-275,241,34,94,311,412,397,414,418
287,165,-122,-226,204,22,109,273,363,343,393,354
188,63,-126,-125,157,-31,136,214,283,249,324,255
179,16,-163,-98,171,-73,146,164,202,159,261,178
187,-29,-217,-79,202,-123,138,112,157,108,219,120
115,-78,-193,-19,155,-135,137,94,124,75,199,88
117,-91,-207,-13,162,-149,132,86,109,65,199,75
99,-133,-232,17,166,-182,129,75,105,60,195,65
82,-128,-210,23,146,-169,142,70,100,52,193,58
99,-118,-217,10,158,-168,145,61,97,46,189,47
92,-111,-203,10,148,-157,139,57,91,39,192,41
110,-106,-216,-2,164,-161,137,47,92,41,198,40
112,-103,-215,-4,164,-159,132,49,96,39,201,40
103,-98,-201,-2,152,-149,130,65,98,44,206,40
85,-118,-203,17,144,-160,138,65,101,56,209,39
97,-102,-199,3,148,-150,141,65,104,53,210,42
113,-102,-216,-5,165,-159,139,64,106,49,210,45
93,-109,-202,8,148,-156,142,70,109,46,210,45
98,-99,-197,1,148,-148,145,86,110,41,209,49
95,-98,-192,2,144,-145,145,86,111,41,212,50
89,-93,-182,2,136,-137,144,84,116,47,215,53
120,-86,-206,-17,163,-146,146,84,114,54,218,55
118,-90,-208,-14,164,-149,144,77,118,51,221,56
109,-98,-208,-5,159,-153,146,87,127,49,223,60
132,-89,-221,-21,177,-155,162,100,126,50,227,60
124,-80,-204,-22,164,-141,162,94,123,50,229,60
125,-75,-200,-25,163,-137,153,88,120,50,233,64
125,-75,-200,-25,163,-137,148,83,118,52,235,65
122,-75,-197,-23,160,-136,140,76,114,56,237,66
118,-75,-193,-21,156,-134,135,77,118,54,240,69
116,-75,-192,-20,155,-133,131,88,120,51,239,71
114,-74,-188,-20,152,-131,128,95,120,49,244,68
114,-70,-184,-22,149,-127,125,95,120,44,245,65
130,-56,-186,-36,158,-121,123,95,115,47,245,65
82,-73,-155,-4,119,-114,118,96,116,58,249,65
95,-83,-178,-6,137,-130,134,93,113,62,252,65
120,-50,-170,-35,146,-110,165,104,129,67,254,71
132,-11,-142,-60,137,-77,161,118,148,79,261,90
150,13,-137,-81,143,-62,175,120,160,91,273,81
147,26,-121,-87,134,-47,194,125,171,95,278,95
137,52,-85,-94,111,-17,182,118,179,95,287,94
