I,II,III,aVR,aVL,aVF,V1,V2,V3,V4,V5,V6
-147,-209,-62,178,-42,-135,206,-273,-488,-551,-438,-265
-93,-122,-29,108,-32,-76,93,-99,-173,-210,-205,-154
32,-59,-92,14,62,-76,4,21,48,19,-68,-69
49,-36,-85,-6,67,-60,38,64,73,23,-89,-82
42,-39,-81,-1,62,-60,27,92,108,60,-67,-71
32,-43,-75,5,54,-59,30,111,112,76,-65,-70
33,-37,-70,2,52,-53,28,123,124,93,-57,-66
19,-34,-53,8,37,-44,22,137,161,112,-47,-63
-4,-30,-26,17,11,-28,27,162,189,129,-44,-66
-6,-27,-20,17,7,-23,52,186,214,160,-34,-63
-12,-23,-11,18,0,-17,75,214,238,181,-30,-66
-10,-17,-7,13,-1,-12,78,231,260,196,-21,-64
1,-8,-9,4,5,-8,94,243,293,214,-16,-65
6,-4,-11,-1,9,-7,101,278,324,245,-9,-58
23,15,-8,-19,15,3,89,301,341,259,0,-47
55,54,-1,-55,28,27,67,305,364,278,14,-39
61,66,5,-64,28,36,55,305,378,307,31,-23
63,76,14,-70,24,45,42,317,414,347,72,4
70,97,28,-84,21,62,33,319,426,355,131,39
68,101,33,-84,17,66,22,284,391,344,152,61
59,85,26,-72,16,55,13,232,338,323,140,55
43,62,19,-53,12,40,-8,190,259,248,129,47
30,43,13,-37,8,28,-21,142,185,174,95,41
17,22,5,-20,6,13,-2,99,128,118,58,30
9,10,1,-10,4,5,16,92,95,79,37,19
9,-3,-12,-2,11,-8,31,89,81,60,28,8
-1,-28,-27,15,13,-27,41,83,75,52,20,-3
-19,-30,-11,25,-4,-21,47,81,65,52,15,-4
-24,-31,-7,28,-9,-18,46,83,55,45,7,-9
-28,-26,2,27,-15,-11,53,88,60,44,1,-10
-28,-25,3,26,-15,-11,52,81,61,38,5,-15
-35,-25,9,30,-22,-7,57,90,81,56,8,-16
-44,-29,15,36,-29,-7,60,78,80,61,20,-6
-43,-32,11,37,-27,-10,57,96,97,57,16,-2
-55,-29,27,42,-41,-1,75,100,104,90,29,15
-30,-45,-14,37,-7,-30,9,62,124,144,84,27
66,-5,-71,-30,69,-38,-164,-213,-75,200,506,265
163,113,-50,-138,106,31,-488,-1028,-996,-360,820,572
142,228,86,-185,27,157,-683,-1648,-1882,-1394,193,486
23,-104,-127,41,75,-115,-477,-1547,-2033,-1955,-697,42
-183,-424,-240,304,29,-331,-11,-919,-1431,-1547,-908,-317
-273,-174,98,223,-185,-38,259,-208,-423,-484,-398,-236
-135,-34,101,84,-118,33,87,52,35,30,-37,-88
-79,-18,61,49,-70,21,28,91,95,60,-29,-62
-79,3,82,38,-81,42,80,117,147,116,3,-39
-74,-22,51,48,-62,14,62,124,141,118,-9,-48
-79,-15,64,47,-71,24,76,149,162,139,-4,-43
-76,-31,45,54,-60,6,62,166,182,144,-4,-46
-77,-32,45,54,-61,6,67,190,208,167,-7,-45
-68,-32,36,50,-52,2,65,190,217,179,0,-41
-87,-25,62,55,-74,18,70,190,227,186,0,-40
-86,-19,67,52,-76,24,78,190,245,199,9,-39
-77,-14,63,45,-69,24,82,200,259,217,10,-36
-65,1,67,31,-66,34,101,242,301,252,17,-35
-43,34,78,4,-61,56,106,283,353,285,30,-34
-33,53,86,-10,-60,69,100,316,389,332,54,-22
-4,70,74,-33,-39,72,92,358,434,370,80,-7
25,95,70,-60,-23,82,86,381,473,398,106,13
34,97,62,-66,-14,79,74,374,475,423,149,42
35,91,56,-63,-10,73,49,367,458,430,188,69
36,88,52,-62,-8,69,25,328,409,390,190,70
35,84,49,-59,-8,66,-11,231,307,297,162,57
3,49,46,-26,-22,47,-37,140,208,214,112,46
-7,37,43,-16,-25,40,-27,94,150,152,76,35
7,47,40,-27,-16,43,-17,72,119,105,59,27
-5,37,42,-16,-23,39,3,64,108,87,50,23
-13,35,48,-11,-31,42,40,65,106,84,47,17
-35,30,65,2,-50,47,51,66,102,86,40,12
-48,25,74,11,-61,49,49,63,98,84,35,6
-41,21,63,10,-52,42,53,74,95,85,30,2
-41,14,55,13,-48,34,45,90,90,84,25,-1
-34,11,45,12,-40,28,36,90,82,80,25,-4
-33,4,37,14,-35,20,24,90,75,80,24,-7
-35,-1,34,17,-34,16,16,91,69,77,20,-10
-36,-7,30,22,-32,11,3,88,59,74,20,-9
-37,-10,27,23,-32,8,-18,78,59,75,20,-4
-32,-10,22,21,-27,5,8,66,69,71,20,-1
-34,-15,20,24,-27,2,36,55,70,70,20,2
-41,-15,25,27,-32,5,36,46,70,70,20,7
-35,-11,24,23,-30,6,42,45,70,65,20,10
-38,-8,31,23,-34,11,54,45,70,65,19,7
-57,-4,53,30,-54,24,64,45,69,64,16,1
-56,-1,55,28,-56,27,56,46,61,56,13,-4
-43,4,47,19,-45,25,45,44,55,50,11,-7
-35,6,41,14,-39,23,33,38,48,42,7,-13
-21,13,34,4,-28,23,14,32,39,34,5,-14
-4,27,31,-11,-18,29,3,28,33,27,2,-10
-12,26,38,-7,-25,32,9,21,32,25,0,-7
-24,14,38,5,-31,26,18,16,37,25,0,-5
-26,9,36,8,-32,22,27,20,39,25,4,-2
-27,0,26,13,-26,13,34,35,41,25,6,1
-27,-5,21,16,-24,8,47,42,46,25,4,2
-26,-11,15,19,-20,2,49,40,43,25,7,9
-23,-18,4,20,-13,-6,51,51,48,24,2,9
-33,-21,12,26,-22,-4,52,44,41,36,11,16
-34,-25,9,29,-21,-8,55,61,49,46,7,17
-23,14,37,4,-30,25,58,51,42,47,16,21
-21,-4,17,12,-19,7,45,70,47,49,15,14
-48,17,65,15,-56,41,59,54,54,59,11,8
3,35,32,-19,-15,33,-29,-1,44,71,49,36
96,-43,-140,-26,118,-91,-148,-149,-34,114,278,168
176,97,-79,-136,127,9,-412,-895,-680,-122,719,508
196,268,71,-232,62,169,-638,-1575,-1519,-903,439,566
73,46,-27,-60,50,10,-534,-1727,-1936,-1673,-465,176
-80,-308,-228,195,74,-268,-215,-1339,-1663,-1611,-843,-186
-254,-277,-23,265,-115,-149,276,-447,-715,-760,-566,-282
-199,-105,94,151,-146,-5,264,5,-92,-142,-169,-122
-39,-59,-20,49,-9,-40,39,80,62,10,-47,-18
-26,-20,6,23,-15,-7,66,136,120,74,-38,-29
-17,-13,4,14,-10,-4,40,137,127,97,-31,-23
-39,-3,36,21,-37,16,57,151,147,115,-38,-26
-35,10,45,12,-40,27,54,141,132,108,-32,-24
-30,13,44,8,-37,28,57,147,136,111,-38,-25
-41,6,48,17,-45,27,63,145,147,110,-33,-25
-57,1,58,28,-58,29,60,144,164,107,-44,-25
-79,-2,77,40,-77,37,69,165,185,133,-47,-29
-66,-6,60,36,-63,27,72,203,207,155,-46,-39
-64,-10,54,37,-59,22,89,241,241,161,-64,-53
-59,-13,47,36,-53,17,102,290,279,178,-76,-63
-63,-21,42,42,-52,11,134,322,308,210,-79,-72
-69,-30,39,49,-54,5,139,319,321,217,-88,-81
-56,-23,33,39,-44,5,121,320,326,210,-92,-96
-46,-15,31,31,-38,7,114,328,339,210,-83,-89
-44,-10,34,27,-39,12,102,338,363,229,-67,-73
-36,1,38,17,-37,19,88,327,364,240,-29,-51
-14,26,40,-6,-28,33,69,287,333,232,18,-9
-1,44,45,-22,-23,44,47,234,273,210,48,11
7,49,43,-28,-18,46,34,186,201,159,51,14
14,50,36,-33,-11,43,30,145,144,118,46,19
19,50,31,-35,-6,40,25,111,108,93,44,18
25,50,25,-38,0,37,22,90,90,73,40,14
23,38,15,-31,4,26,15,80,76,61,36,12
15,17,2,-16,6,10,19,70,66,49,29,9
11,4,-6,-7,8,-1,36,62,59,37,22,6
6,-7,-13,1,10,-10,32,58,53,32,16,4
-13,-22,-9,18,-2,-15,14,53,46,36,8,0
-25,-24,0,25,-12,-12,-11,47,42,39,6,0
-19,-14,4,16,-11,-5,-29,41,47,41,12,-1
-23,-7,15,15,-19,4,-32,44,51,44,18,-5
-30,-5,25,17,-27,10,-29,51,54,45,22,-6
-23,-1,22,12,-23,11,-25,58,62,52,30,-2
-15,0,15,8,-15,7,-22,67,74,61,32,0
-2,11,13,-5,-7,11,-16,62,81,68,40,0
15,18,3,-16,6,10,-16,58,83,68,43,4
10,13,2,-12,4,7,-9,57,80,65,39,5
4,8,4,-6,0,5,-9,48,73,61,43,6
-5,3,8,1,-7,5,3,55,76,59,34,14
-14,0,14,7,-14,7,25,54,65,56,40,12
-18,-8,10,12,-14,1,30,74,68,54,29,-2
-8,20,29,-6,-19,24,18,57,65,61,38,2
15,20,5,-18,5,12,7,72,84,58,11,-34
-17,11,28,3,-23,20,7,64,66,60,21,-26
18,-13,-32,-3,25,-23,-35,55,70,75,72,0
129,-48,-177,-40,153,-112,-154,-101,0,150,360,177
246,131,-115,-188,180,8,-494,-909,-741,-124,915,611
242,282,40,-262,100,161,-676,-1554,-1610,-999,519,620
83,13,-70,-47,76,-29,-521,-1637,-1949,-1728,-486,176
-101,-298,-198,200,49,-248,-168,-1165,-1536,-1534,-816,-201
-277,-216,61,246,-168,-77,255,-324,-567,-643,-510,-287
-175,-59,116,117,-145,28,165,-15,-65,-93,-127,-122
-64,-37,28,50,-45,-5,2,57,60,23,-47,-53
-80,-30,50,55,-65,9,44,101,111,74,-46,-72
-46,-31,15,38,-30,-8,12,93,111,77,-35,-70
-48,-26,22,36,-34,-2,26,128,143,108,-36,-72
-20,-25,-5,23,-7,-14,12,124,137,106,-24,-69
-2,-22,-20,12,9,-21,17,138,149,117,-25,-67
2,-13,-15,6,8,-14,29,143,149,134,-34,-64
0,-9,-9,5,4,-9,29,162,176,139,-43,-65
-3,1,4,1,-4,3,67,176,200,150,-35,-73
-3,4,7,-1,-5,5,84,209,242,190,-34,-78
-5,15,20,-5,-13,17,70,251,296,231,-30,-71
2,37,35,-20,-16,35,62,264,319,238,-25,-66
10,42,32,-26,-11,37,56,287,367,285,-22,-59
22,49,27,-35,-3,38,49,341,417,328,-3,-56
37,60,23,-49,6,41,43,387,467,363,35,-36
59,76,18,-68,20,47,36,390,474,395,70,-7
69,74,6,-72,31,40,28,360,452,390,116,10
76,62,-14,-69,45,24,10,309,412,365,132,39
73,58,-15,-65,44,21,-2,238,306,290,112,45
66,47,-19,-56,42,14,0,169,214,211,100,31
61,36,-25,-49,43,5,4,134,161,161,75,23
32,15,-16,-23,24,0,7,109,121,109,52,12
15,7,-7,-11,10,0,11,76,81,70,33,3
-4,-3,1,3,-2,-1,16,51,40,42,12,-6
-18,-2,17,10,-17,7,11,20,28,28,1,-14
-14,23,37,-5,-26,30,5,-8,31,12,-3,-25
-26,5,31,10,-28,18,-1,-12,29,7,-6,-24
-9,3,12,3,-11,7,-4,4,31,29,-9,-26
9,9,0,-9,4,4,21,36,29,37,-14,-22
7,-3,-10,-1,8,-6,39,63,36,34,-14,-14
5,-16,-21,5,13,-18,47,73,51,36,-7,-9
-8,-43,-35,26,14,-39,50,82,50,47,4,1
-16,-51,-34,34,9,-42,42,87,51,51,-6,-32
-26,-55,-29,40,2,-41,34,83,50,44,-26,-30
-23,-49,-25,36,1,-37,26,88,50,42,-23,-2
-12,-32,-20,22,4,-26,19,91,48,37,-17,-23
-7,-21,-13,14,3,-17,-12,71,22,34,-12,-30
-14,-12,2,13,-8,-5,-27,25,0,30,-7,-30
-22,-6,16,13,-18,5,-24,-16,-1,30,0,-29
-26,1,27,12,-26,13,-23,-18,-4,30,-5,-31
-16,7,23,4,-20,15,-19,-13,-6,29,-4,-29
5,15,9,-10,-2,12,-20,4,7,31,-10,-29
-7,4,11,1,-9,7,7,20,12,27,-12,-24
-17,-20,-3,18,-6,-12,30,46,42,26,-13,-22
-49,-43,6,46,-27,-18,36,45,53,24,-21,-20
-41,-52,-11,47,-15,-31,21,42,49,27,-11,-24
-46,-49,-3,48,-21,-26,25,53,64,23,-40,-45
-25,-42,-17,34,-4,-29,11,27,60,65,20,3
94,-51,-145,-21,120,-98,-43,2,66,177,209,100
167,52,-116,-109,141,-32,-288,-598,-478,33,765,478
216,295,79,-256,68,187,-642,-1432,-1429,-697,883,749
116,211,95,-164,10,153,-637,-1683,-1957,-1597,-88,428
-20,-216,-196,118,88,-206,-364,-1425,-1841,-1784,-746,18
-212,-318,-106,265,-53,-212,86,-667,-1012,-1080,-677,-268
-240,-126,114,183,-177,-6,234,-106,-248,-320,-323,-241
-53,-53,0,53,-26,-27,39,10,3,-42,-65,-65
-45,-46,-1,45,-21,-23,55,87,87,21,-72,-67
-29,-41,-12,35,-8,-26,50,103,97,53,-59,-65
-13,-38,-26,26,7,-32,50,119,125,88,-62,-62
-3,-32,-29,17,13,-30,83,149,154,130,-59,-71
7,-29,-37,11,22,-33,85,181,177,143,-55,-79
-9,-23,-14,16,3,-18,100,196,199,143,-55,-66
-5,-20,-15,13,5,-17,96,200,205,162,-48,-51
-19,-16,3,17,-11,-6,92,205,217,183,-49,-51
-18,-11,7,14,-12,-2,80,197,241,192,-42,-42
-26,-7,19,16,-22,6,80,199,266,211,-52,-65
-25,-1,23,13,-24,11,76,254,312,248,-54,-85
-12,1,13,5,-13,6,73,304,365,280,-46,-80
8,9,2,-9,3,5,70,325,394,286,-43,-72
24,14,-10,-18,17,2,71,363,445,332,-29,-66
35,14,-22,-24,28,-4,71,407,493,392,-6,-57
68,35,-33,-51,50,1,70,429,509,417,45,-20
86,57,-29,-72,57,14,70,397,489,416,96,16
95,68,-27,-81,61,20,71,354,427,382,118,41
71,58,-13,-64,41,22,63,278,329,304,122,63
32,47,15,-40,8,30,25,154,202,191,79,53
24,39,15,-31,4,27,3,71,98,98,40,20
16,26,10,-21,3,18,2,35,44,56,25,3
12,20,8,-16,2,14,-4,34,24,39,1,-2
6,9,3,-8,1,5,-9,36,25,31,-11,-9
1,2,1,-2,0,1,-8,34,25,27,-18,-16
-2,-9,-7,6,2,-8,-2,36,24,21,-23,-23
6,-12,-17,3,12,-15,5,29,25,15,-29,-27
15,-15,-30,0,23,-22,8,36,26,10,-35,-38
-13,-51,-38,32,13,-44,24,75,44,17,-31,-40
-17,-50,-33,34,8,-41,36,112,73,28,-30,-42
-4,-29,-25,16,11,-27,48,111,78,39,-26,-45
-6,-25,-20,16,7,-22,71,95,71,51,-25,-46
-5,-16,-12,11,4,-13,66,82,66,49,-23,-66
-4,-12,-7,8,2,-9,54,63,61,45,-20,-71
0,-3,-3,2,2,-3,43,53,54,42,-17,-63
3,1,-2,-2,2,-1,25,57,51,37,-14,-63
5,8,3,-7,1,5,11,53,54,34,-12,-56
9,13,4,-11,2,8,-3,57,54,35,-8,-55
15,20,5,-18,5,12,-14,53,63,38,-8,-51
28,28,0,-28,14,13,-17,60,76,42,0,-47
16,12,-4,-14,9,4,1,75,75,39,-5,-48
7,6,-1,-6,4,2,8,75,78,41,7,-39
11,-14,-26,2,19,-20,25,95,97,40,1,-44
4,-24,-28,10,16,-25,33,67,76,39,5,-32
-4,-22,-18,13,7,-19,45,79,90,43,-14,-42
-43,-6,37,24,-40,16,49,25,60,36,-32,-32
24,-6,-30,-9,27,-18,-19,14,91,114,62,12
119,-10,-129,-54,124,-70,-162,-207,-77,141,414,214
196,182,-14,-189,104,84,-519,-1052,-933,-248,970,647
194,303,109,-249,42,206,-688,-1620,-1763,-1157,526,623
77,-21,-98,-28,87,-59,-522,-1625,-2058,-1922,-542,174
-58,-340,-283,199,113,-311,-148,-1091,-1555,-1637,-830,-183
-231,-232,-1,231,-115,-117,242,-309,-568,-693,-532,-299
-149,-77,72,113,-110,-2,154,12,-41,-98,-147,-141
-28,-38,-10,33,-9,-24,62,106,107,51,-48,-62
-39,-26,13,32,-26,-6,100,135,147,71,-61,-64
-29,-59,-30,44,1,-44,80,156,175,105,-40,-57
-22,-48,-26,35,2,-37,96,196,204,140,-51,-69
0,-30,-30,16,15,-30,91,190,212,153,-41,-65
-10,-27,-18,19,4,-22,110,189,229,159,-45,-74
-9,-22,-13,16,2,-17,78,182,227,162,-37,-74
-14,-18,-4,16,-5,-11,66,179,235,172,-42,-76
-26,-13,13,19,-19,0,74,175,239,179,-46,-75
-34,-10,24,22,-29,7,66,191,269,203,-41,-75
-41,-11,31,26,-36,10,74,236,311,235,-38,-76
-38,2,40,17,-39,21,66,279,359,269,-32,-70
-18,38,57,-10,-38,47,81,320,424,322,-29,-61
5,52,48,-29,-22,50,97,384,480,373,-14,-53
21,61,40,-41,-10,50,92,450,547,426,18,-43
38,69,31,-53,3,49,73,477,585,472,68,-3
37,60,24,-49,6,42,44,432,563,484,128,38
36,54,18,-46,9,36,32,358,495,446,139,55
36,46,10,-41,12,28,28,292,397,361,121,63
35,39,5,-37,15,21,21,209,291,260,104,48
35,31,-3,-33,19,14,16,124,181,170,64,27
19,16,-3,-17,11,7,12,66,107,100,33,14
1,3,2,-3,0,2,3,36,63,49,12,-1
-16,-7,8,12,-12,0,3,23,28,30,5,-15
-28,-18,10,23,-19,-4,23,25,25,29,5,-33
-40,-22,18,31,-29,-2,27,29,28,33,3,-37
-39,-20,18,29,-28,-1,23,29,33,34,0,-34
-35,-19,16,27,-25,-1,25,44,46,36,-1,-31
-29,-22,8,25,-18,-7,17,85,71,49,6,-28
-21,-18,3,19,-12,-7,22,102,107,56,7,-26
-23,-22,1,23,-12,-11,22,89,88,59,21,-22
-7,-23,-16,15,5,-19,26,112,91,58,15,-21
-39,-23,16,30,-27,-3,27,90,91,93,30,-14
0,-6,-7,3,4,-7,-23,64,136,183,112,35
110,8,-102,-59,106,-47,-177,-284,-157,145,560,313
81,83,2,-82,39,42,-431,-1119,-1180,-570,751,549
-47,189,236,-71,-142,212,-504,-1645,-2016,-1716,-140,321
-115,-147,-32,131,-41,-90,-268,-1467,-2051,-2172,-1002,-120
-191,-414,-223,303,17,-318,111,-744,-1260,-1452,-938,-346
-206,-170,36,188,-121,-66,211,-99,-273,-367,-342,-211
-60,-44,16,52,-37,-14,47,41,55,24,-32,-65
-39,-48,-9,43,-14,-28,36,90,108,55,-37,-60
-58,-41,16,49,-37,-12,37,142,163,112,-1,-51
-47,-44,3,45,-25,-20,21,137,164,110,-15,-50
-58,-37,21,47,-40,-8,23,139,181,136,-8,-43
-44,-41,3,43,-24,-19,12,132,183,140,-10,-39
-46,-31,15,38,-30,-8,23,132,195,150,-12,-36
-32,-28,4,29,-18,-12,18,129,194,153,-6,-34
-27,-22,5,24,-16,-8,21,135,195,162,-4,-35
-18,-12,6,15,-12,-3,24,151,216,186,6,-29
5,15,11,-10,-3,13,30,172,246,207,8,-31
2,23,21,-13,-10,22,42,184,279,236,21,-27
-3,21,24,-9,-14,23,44,212,311,269,35,-22
18,53,35,-36,-9,44,35,252,348,307,71,-3
36,81,45,-59,-5,63,27,271,375,333,104,30
62,107,45,-85,8,76,19,312,414,386,144,59
85,131,46,-108,19,88,12,329,435,429,205,97
93,139,46,-116,24,92,4,291,413,414,228,106
96,128,32,-113,32,80,-4,233,350,361,221,97
67,84,17,-76,25,50,-12,174,265,283,179,88
31,42,11,-36,10,26,-19,122,185,204,122,66
17,26,9,-22,4,17,-14,73,117,135,73,38
11,21,10,-16,0,15,-4,29,80,91,48,13
11,14,3,-13,4,9,2,22,78,78,39,4
1,7,6,-4,-3,6,12,41,86,82,22,5
-4,2,6,1,-6,4,18,36,81,76,24,4
-12,2,14,5,-13,8,30,57,96,77,9,-4
-16,8,24,4,-20,16,21,58,81,72,17,5
-14,6,20,4,-17,13,18,66,91,82,-5,-12
-31,18,48,6,-40,33,17,17,50,81,12,-11
21,28,7,-24,7,17,-23,-12,52,104,45,6
72,-12,-84,-30,78,-48,-114,-191,-93,119,303,149
147,75,-73,-111,110,1,-405,-931,-959,-394,699,467
166,216,49,-191,58,132,-612,-1548,-1878,-1425,177,436
77,-97,-174,10,126,-136,-441,-1481,-2083,-2060,-749,16
-108,-385,-277,247,85,-331,42,-762,-1330,-1507,-887,-309
-227,-169,58,197,-142,-55,282,-82,-321,-432,-399,-258
-95,-44,51,70,-73,4,61,36,5,5,-43,-76
-59,-36,23,47,-41,-7,22,82,85,66,-28,-46
-52,-10,42,30,-46,15,75,120,144,97,-24,-56
4,-17,-21,7,13,-18,70,134,144,93,-29,-67
20,0,-20,-10,20,-10,76,172,166,127,-32,-66
12,-1,-13,-6,12,-7,49,164,172,128,-31,-64
-21,11,32,5,-27,21,55,162,186,131,-44,-64
-14,14,28,0,-22,21,44,159,187,129,-42,-58
-14,15,30,-1,-23,22,44,160,193,130,-39,-61
-12,15,27,-2,-20,21,37,160,197,136,-30,-56
-7,15,22,-4,-15,18,35,159,208,154,-25,-52
-7,15,22,-4,-15,18,43,168,233,191,-17,-50
-2,14,16,-6,-9,15,48,202,270,212,-11,-45
18,35,16,-27,1,25,50,237,311,239,-5,-42
30,42,12,-36,9,27,53,263,340,270,13,-37
48,55,6,-52,21,31,61,302,382,307,50,-17
92,90,-1,-91,46,44,54,320,415,344,99,14
111,104,-7,-108,59,49,47,313,417,351,139,47
110,95,-15,-102,62,40,41,301,385,338,151,52
102,82,-19,-92,60,31,33,269,317,289,139,39
86,71,-16,-78,51,27,21,203,239,210,106,31
74,60,-15,-66,44,22,5,119,158,150,72,20
62,47,-15,-54,39,16,4,66,105,101,48,11
53,38,-15,-45,34,11,10,50,78,70,38,4
49,34,-14,-41,31,10,15,49,64,70,34,-3
50,32,-18,-41,34,7,20,53,66,70,29,-11
49,29,-20,-39,34,4,27,55,64,65,25,-18
47,26,-21,-36,34,2,30,56,66,65,20,-24
49,24,-25,-36,37,-1,41,66,64,64,23,-26
45,21,-24,-32,35,-1,48,70,75,60,26,-25
59,20,-39,-39,49,-9,53,90,95,56,25,-25
82,19,-63,-50,73,-22,62,110,85,53,25,-25
90,15,-76,-52,82,-30,53,98,76,48,25,-25
83,15,-68,-49,75,-26,39,83,68,45,24,-25
70,13,-57,-41,63,-22,31,63,57,42,16,-25
51,3,-48,-27,49,-22,23,36,52,37,9,-25
34,-3,-37,-15,36,-20,13,26,43,34,3,-25
12,-13,-26,1,19,-19,10,33,42,31,-7,-25
-18,-17,0,18,-9,-8,5,27,32,25,-12,-21
-31,-17,14,24,-22,-2,12,33,29,27,-13,-18
-53,-12,41,32,-46,14,31,27,25,29,-7,-14
-48,-11,36,29,-42,13,28,33,29,31,-4,-10
-51,-8,44,29,-47,18,43,42,36,28,-2,-7
-37,-3,35,20,-35,16,42,45,35,31,6,-2
-45,-14,32,29,-38,9,50,88,59,33,4,8
-62,-6,56,33,-59,25,41,69,63,62,41,25
40,-22,-63,-9,52,-42,-47,28,79,146,152,84
110,19,-91,-64,101,-36,-270,-466,-357,46,571,367
154,223,69,-188,42,146,-603,-1296,-1281,-590,746,634
97,201,104,-149,-4,152,-652,-1700,-1978,-1557,-27,421
-29,-248,-219,139,95,-233,-410,-1537,-2044,-1961,-826,-53
-219,-390,-171,305,-24,-280,49,-766,-1204,-1269,-798,-295
-287,-148,138,218,-212,-5,263,-115,-285,-331,-315,-181
-116,-61,56,88,-86,-2,61,11,5,6,-68,-40
-79,-27,51,53,-65,12,39,64,84,75,-63,-35
-60,-14,46,37,-53,16,52,98,106,98,-43,-36
-38,-16,22,27,-30,3,55,122,125,104,-41,-39
-38,-6,32,21,-35,12,89,155,161,143,-38,-40
-25,-5,20,14,-22,7,73,166,178,147,-43,-43
-27,1,28,13,-28,14,79,164,195,160,-46,-45
-10,22,32,-6,-21,27,69,156,192,162,-48,-48
-36,44,80,-4,-58,62,68,172,217,178,-54,-63
-67,10,76,28,-72,43,65,183,242,206,-57,-73
-76,-8,68,42,-72,30,71,191,245,205,-79,-88
-79,-15,64,47,-71,24,88,216,271,206,-89,-97
-73,-19,54,45,-63,18,99,240,295,211,-97,-107
-62,-11,51,36,-57,20,103,258,315,209,-117,-116
-49,-6,43,28,-46,18,112,273,333,215,-113,-107
-39,0,39,19,-39,20,123,314,364,240,-111,-102
-29,5,33,12,-31,19,121,361,411,275,-87,-85
-7,21,28,-8,-18,25,104,360,432,312,-22,-46
18,39,21,-29,-2,30,83,321,405,323,39,-3
26,52,26,-39,0,38,60,267,338,290,70,25
4,47,43,-25,-20,44,19,200,265,229,63,20
-5,34,38,-15,-22,36,-7,137,185,166,52,12
27,27,0,-27,13,13,-24,92,116,114,38,6
36,19,-17,-27,26,0,-33,48,69,60,22,-3
26,13,-13,-19,19,0,-26,19,40,22,17,-8
30,6,-24,-18,27,-9,-21,24,40,19,11,-6
25,5,-20,-15,22,-7,-14,29,40,21,6,-1
8,5,-3,-6,5,1,-11,34,40,19,0,1
-2,0,2,1,-2,1,9,48,40,30,-5,6
8,0,-8,-4,8,-4,37,65,41,48,4,9
12,2,-10,-7,11,-4,34,91,68,63,17,13
7,22,15,-15,-4,19,25,92,89,77,28,22
17,52,35,-34,-10,43,17,80,85,87,37,26
20,52,32,-37,-6,42,9,76,81,97,36,25
21,44,23,-32,-1,33,3,69,77,96,35,25
22,38,16,-30,3,27,-4,65,73,85,34,25
16,31,15,-24,0,22,-9,57,70,78,30,26
15,25,10,-20,2,17,-16,56,66,70,30,23
10,20,10,-15,0,15,-19,53,64,65,27,18
8,12,4,-11,2,8,-10,62,65,66,25,15
0,6,6,-3,-4,6,6,72,65,63,21,11
-20,-1,19,10,-20,9,19,64,64,60,20,8
-28,-9,20,18,-24,5,44,65,67,60,14,3
-25,-7,18,16,-22,6,43,54,63,58,17,3
-7,-3,4,5,-5,0,36,58,68,54,13,-4
-7,7,14,-1,-11,11,44,45,61,55,17,-2
21,5,-15,-13,18,-5,38,55,69,57,15,-9
17,32,15,-24,1,23,54,46,61,50,11,-11
32,34,2,-33,15,18,-8,20,61,74,48,10
122,7,-115,-65,119,-54,-136,-136,-32,129,282,144
199,91,-108,-145,153,-8,-425,-848,-699,-114,720,467
198,231,33,-215,82,132,-714,-1586,-1643,-960,526,571
102,9,-93,-55,97,-42,-652,-1786,-2174,-1882,-394,210
-17,-428,-411,223,197,-419,-289,-1342,-1867,-1885,-929,-250
-202,-317,-115,259,-43,-216,143,-472,-797,-874,-586,-300
-140,-62,77,101,-108,8,126,-2,-78,-106,-100,-88
15,-36,-50,11,33,-43,-6,52,33,13,-27,-37
-17,1,18,8,-17,9,47,82,81,58,-28,-41
-29,-9,21,19,-24,6,29,99,98,70,-18,-40
-54,-4,50,28,-52,23,44,109,129,83,-20,-47
-48,-5,43,26,-45,19,45,124,148,115,-9,-43
-41,-7,35,24,-37,14,52,153,166,136,-13,-49
-39,-2,37,20,-38,18,61,168,198,144,-8,-50
-27,-2,25,14,-26,11,63,173,208,153,-8,-54
-24,4,27,9,-26,15,72,186,230,176,-4,-56
-20,4,24,8,-23,14,68,207,247,176,-6,-59
-27,9,36,8,-32,22,75,233,279,205,-9,-60
-23,10,32,6,-27,21,75,269,315,232,-14,-58
-10,16,26,-3,-18,21,74,332,371,266,-13,-52
0,30,30,-16,-15,30,67,358,416,297,-6,-49
3,58,56,-31,-27,57,81,344,432,300,1,-44
2,62,61,-32,-30,61,95,338,456,338,25,-30
8,61,53,-35,-23,56,79,328,470,378,84,-1
37,89,52,-63,-8,70,49,317,450,367,144,44
40,85,45,-63,-2,64,24,269,379,332,152,56
28,64,35,-46,-4,49,17,200,288,266,136,44
29,56,27,-43,1,41,9,145,205,180,107,38
26,44,18,-35,4,31,2,97,140,124,73,29
9,18,9,-14,0,13,4,79,98,87,49,22
-9,-6,3,7,-6,-2,15,80,67,53,37,9
-7,-12,-4,10,-1,-8,25,80,55,40,27,-2
-10,-20,-11,15,1,-15,41,79,51,39,20,-18
-5,-23,-18,14,7,-20,66,82,53,38,19,-28
0,-14,-14,7,7,-14,79,87,77,33,15,-23
9,12,3,-10,3,7,55,75,88,42,12,-20
19,31,12,-26,3,21,7,56,65,66,10,-17
11,21,10,-16,0,15,-9,47,49,54,12,-12
5,14,10,-9,-3,12,-11,42,50,43,20,-10
-4,6,10,-1,-8,8,-18,40,51,46,24,-14
-9,1,10,4,-10,5,-23,35,55,44,21,-15
-2,8,10,-3,-6,9,-30,32,55,46,20,-15
0,6,6,-3,-3,6,-26,29,50,44,20,-15
0,-1,0,1,0,0,-22,30,47,48,20,-15
-3,-8,-5,6,1,-6,-17,46,43,50,19,-13
-3,-14,-11,9,4,-12,-13,51,40,50,22,-10
-5,-22,-17,13,6,-19,-6,51,35,51,25,-10
-5,-24,-19,15,7,-21,12,49,39,50,25,-10
-8,-19,-11,14,2,-15,44,66,59,51,25,-10
-19,-22,-3,21,-8,-12,69,92,68,48,25,-11
-9,-5,5,7,-7,0,63,79,58,41,25,-14
0,13,14,-7,-7,13,55,63,45,34,16,-17
-4,6,11,-1,-8,8,50,42,36,28,4,-20
-6,5,11,1,-9,7,35,18,24,20,-8,-22
-8,0,8,4,-8,4,21,19,18,16,-13,-26
-15,-3,12,9,-13,4,12,10,7,19,-10,-22
-15,-6,8,11,-11,1,5,8,0,20,-9,-19
-21,-11,10,16,-15,0,4,4,1,20,-8,-21
-19,-14,5,16,-11,-5,-2,-4,-3,20,-2,-19
-20,-18,2,19,-11,-8,13,17,13,20,-8,-21
-32,-20,12,26,-22,-4,17,5,5,21,6,-18
-19,-27,-8,23,-5,-18,39,48,40,31,10,-15
-62,-16,45,39,-53,14,73,46,52,52,21,-4
12,-10,-22,-1,17,-16,17,43,77,113,74,17
142,15,-127,-78,134,-56,-151,-262,-135,130,386,209
208,173,-35,-190,121,69,-519,-1132,-965,-293,758,552
197,270,74,-234,61,172,-688,-1698,-1764,-1187,256,497
56,-71,-126,8,91,-98,-523,-1737,-2052,-1839,-646,42
-107,-374,-267,241,80,-320,-125,-1158,-1531,-1514,-850,-280
-238,-226,12,232,-124,-107,258,-308,-532,-575,-460,-269
-140,-92,48,116,-94,-22,135,-12,-47,-74,-116,-116
-32,-46,-14,39,-9,-30,42,37,48,4,-61,-68
-46,-37,9,42,-27,-13,83,90,88,54,-47,-74
-39,-56,-17,47,-11,-36,62,109,110,74,-37,-66
-43,-30,12,36,-27,-9,80,113,125,90,-35,-65
-33,-25,7,29,-20,-9,80,136,143,114,-24,-59
-34,-11,23,22,-28,6,126,196,196,147,-21,-57
-43,-6,37,24,-40,15,118,206,215,162,-14,-54
-45,-4,41,24,-43,19,102,204,233,176,-24,-55
-37,0,37,18,-37,18,82,206,242,183,-28,-55
-30,2,32,14,-31,17,53,204,247,185,-32,-55
-26,6,31,10,-29,18,57,216,262,187,-43,-56
-17,7,23,5,-20,15,54,228,278,195,-50,-63
-17,15,32,0,-25,23,55,264,305,211,-50,-79
-15,19,33,-2,-24,26,55,295,336,224,-49,-80
-6,16,22,-5,-15,19,54,311,360,235,-53,-81
-3,13,15,-5,-9,14,51,346,384,268,-29,-77
18,23,5,-21,6,14,50,358,415,312,27,-36
25,23,-3,-24,14,10,50,349,414,318,92,11
41,29,-12,-35,26,8,53,321,368,309,112,38
50,44,-5,-47,27,19,50,276,305,271,102,37
13,35,22,-25,-4,29,31,208,246,202,93,27
17,29,12,-23,2,20,18,122,178,146,57,21
31,23,-8,-27,19,7,13,88,130,105,32,12
17,16,-2,-16,9,6,7,57,97,65,18,7
10,12,2,-11,4,7,4,33,75,47,1,1
-1,5,7,-2,-4,6,-1,36,76,52,1,-3
-11,0,11,6,-11,5,-5,34,74,48,0,-7
-20,-4,15,12,-17,5,1,44,77,51,0,-13
-31,-22,9,26,-19,-7,10,54,73,48,8,-14
-35,-36,-1,35,-16,-18,34,78,80,55,16,-10
-23,-25,-2,24,-10,-13,47,82,97,67,30,-4
-17,-12,5,14,-11,-3,58,83,109,62,34,-5
-27,-6,21,16,-23,7,63,72,103,73,44,4
-9,-3,6,6,-8,1,41,74,103,85,36,3
-6,-1,5,3,-6,2,39,66,101,84,43,0
23,3,-20,-12,21,-8,28,63,94,70,39,-20
14,6,-8,-10,11,-1,46,101,125,105,37,-13
-7,-1,6,4,-7,3,6,67,100,111,42,10
72,-36,-108,-18,90,-72,-87,-12,63,128,216,97
152,27,-125,-89,139,-49,-330,-594,-447,-4,745,467
151,206,55,-178,47,130,-579,-1387,-1429,-868,502,555
-16,27,43,-6,-30,35,-485,-1665,-2013,-1826,-547,132
-146,-298,-152,222,4,-225,-171,-1301,-1715,-1739,-955,-229
-225,-238,-13,231,-106,-125,254,-427,-702,-792,-601,-284
-166,-96,70,131,-117,-13,229,29,-52,-104,-147,-111
-31,-42,-11,36,-10,-26,37,74,70,22,-36,-31
-35,-30,6,33,-20,-12,102,137,135,72,-52,-45
-21,-32,-10,27,-5,-20,70,144,138,98,-38,-36
-26,-19,7,22,-17,-6,66,165,156,107,-45,-43
-31,-20,11,25,-21,-4,30,158,143,104,-37,-36
-24,-12,12,17,-17,0,-9,165,152,113,-40,-35
-18,-11,7,14,-13,-1,15,166,167,147,-33,-35
-28,-3,25,15,-26,11,30,167,187,146,-35,-31
-29,8,38,10,-34,23,43,183,223,176,-36,-30
2,21,19,-12,-9,20,38,192,231,210,-34,-30
11,26,15,-19,-2,20,40,219,263,218,-37,-13
23,24,1,-23,10,12,43,267,308,247,-16,1
34,27,-7,-30,20,10,55,299,348,292,4,-14
39,22,-17,-30,28,2,66,323,385,323,5,-27
70,39,-30,-54,50,5,85,377,431,350,27,-10
94,56,-38,-75,65,9,90,392,473,394,73,29
91,60,-31,-75,61,14,49,362,465,431,125,52
80,61,-19,-71,49,21,5,327,401,389,139,68
61,50,-11,-55,35,19,-2,251,320,286,121,82
41,42,1,-42,20,21,-4,182,232,219,104,72
26,33,7,-30,9,20,-9,139,167,170,81,58
9,23,15,-16,-3,19,-12,91,119,107,46,37
-9,9,18,0,-14,13,-16,78,73,74,6,13
-2,-8,-6,5,2,-7,-9,81,59,64,-11,8
7,-17,-23,6,15,-20,-3,79,60,58,-17,5
3,-33,-36,15,20,-35,4,82,60,55,-28,1
8,-41,-48,17,28,-44,23,77,59,51,-26,-2
8,-35,-44,14,26,-39,44,88,62,48,-22,-6
5,-30,-34,13,20,-31,57,89,67,44,-16,0
6,-25,-31,9,19,-28,53,84,80,42,-12,0
2,-18,-20,8,12,-19,43,79,76,37,-8,0
2,-16,-18,8,10,-17,31,72,67,36,-3,-2
-3,-21,-18,12,8,-19,24,70,62,31,-23,-24
12,-19,-30,4,21,-24,11,57,49,31,-21,-23
17,-24,-41,4,29,-32,3,51,51,25,-30,-20
1,-23,-24,11,13,-23,-12,20,36,8,-20,-8
8,-28,-36,10,22,-32,-7,42,50,-11,-35,-6
-37,-18,19,28,-28,1,6,11,21,8,-41,3
19,-17,-36,-1,28,-27,-51,5,62,98,54,27
109,-1,-110,-54,109,-55,-169,-235,-127,91,411,239
157,178,21,-167,67,99,-482,-1067,-990,-333,920,659
158,283,125,-221,16,203,-628,-1605,-1779,-1224,451,608
29,-16,-45,-7,37,-30,-453,-1576,-1991,-1855,-550,159
-121,-317,-196,219,38,-256,-76,-1029,-1448,-1509,-814,-208
-228,-214,13,221,-120,-100,290,-243,-489,-593,-488,-307
-117,-78,38,98,-77,-20,141,45,-20,-70,-119,-131
-16,-54,-38,36,11,-46,5,91,80,16,-62,-81
-33,-43,-10,38,-11,-26,38,114,113,56,-69,-96
-24,-41,-17,33,-3,-29,9,113,120,76,-54,-85
-22,-12,9,17,-15,-1,17,126,130,92,-60,-94
-3,-9,-6,6,1,-7,16,121,139,109,-46,-87
-6,-12,-6,9,0,-9,64,149,177,141,-53,-96
-2,-14,-12,8,6,-13,80,174,199,164,-48,-94
2,-18,-20,8,11,-19,99,199,230,176,-51,-95
2,-20,-22,9,12,-21,108,241,281,214,-50,-95
11,-18,-30,4,21,-24,94,300,332,256,-50,-95
10,-12,-21,1,16,-17,93,345,383,280,-49,-96
8,-9,-17,1,12,-13,83,363,426,306,-41,-103
4,-4,-9,0,7,-6,78,401,463,332,-34,-101
13,11,-3,-12,8,4,72,426,498,352,-30,-90
41,44,4,-43,18,24,58,417,509,377,-7,-79
54,65,11,-60,21,38,30,409,504,401,40,-56
50,75,25,-62,12,50,24,357,469,399,90,-26
48,101,52,-75,-2,76,26,259,374,331,109,17
49,103,54,-76,-3,79,25,186,278,251,94,33
38,75,37,-57,0,56,25,140,195,183,84,19
22,49,26,-36,-2,37,26,101,124,114,58,8
12,28,16,-20,-3,22,20,75,83,61,28,-3
5,15,10,-10,-3,12,24,62,58,30,18,-9
8,3,-5,-5,6,-1,42,63,54,25,8,-16
3,-8,-11,3,8,-9,32,56,44,20,1,-22
15,-16,-32,1,24,-24,18,54,39,14,-10,-29
11,-37,-48,13,30,-42,13,50,30,8,-4,-25
-1,-47,-46,24,23,-46,1,42,26,6,2,-25
-7,-37,-30,22,11,-33,1,36,32,14,4,-25
-15,-38,-23,27,5,-31,-15,12,25,20,16,-23
-15,-22,-7,19,-4,-15,-20,27,37,28,13,-29
-30,10,41,10,-36,25,-17,38,42,53,29,-12
44,28,-15,-36,29,6,-38,26,85,130,114,37
118,10,-108,-64,113,-49,-193,-418,-378,-31,528,294
81,143,62,-112,10,102,-441,-1253,-1420,-845,601,502
-12,204,216,-96,-114,210,-462,-1643,-2090,-1873,-303,240
-89,-207,-118,148,15,-162,-165,-1304,-1946,-2091,-1026,-192
-167,-334,-167,251,1,-250,217,-479,-963,-1156,-765,-312
-146,-86,61,116,-103,-12,194,13,-111,-189,-186,-164
-24,-44,-20,34,-2,-32,5,43,33,15,-14,-87
-13,-40,-26,27,7,-33,22,88,83,46,-31,-70
-21,-34,-13,27,-3,-23,8,90,102,83,-9,-58
-21,-33,-11,27,-5,-22,4,89,97,71,-18,-59
-26,-24,2,25,-14,-10,0,92,103,92,-4,-51
-22,-24,-2,23,-10,-13,-8,88,101,99,-5,-47
-28,-15,13,21,-20,-1,-10,108,138,115,2,-47
-27,-16,11,21,-18,-2,7,112,152,121,7,-61
-37,-15,22,25,-29,3,54,132,166,146,9,-57
-34,4,38,15,-36,21,53,162,193,165,17,-48
-19,31,50,-6,-35,41,44,163,214,183,17,-43
-6,38,43,-16,-25,41,56,182,248,223,34,-35
-1,38,39,-19,-20,38,60,224,292,256,55,-24
26,59,33,-43,-4,46,45,233,310,277,76,-10
53,81,27,-67,13,54,28,236,325,294,93,7
55,80,25,-68,15,52,-10,243,338,328,134,38
70,112,42,-91,14,76,-44,222,326,350,198,77
69,125,57,-98,6,91,-41,178,292,325,205,89
41,91,50,-66,-5,70,-34,127,231,269,181,77
19,66,47,-43,-14,56,-28,85,159,190,143,65
1,42,41,-21,-21,41,-20,46,96,122,89,42
-15,23,37,-4,-26,30,-16,21,55,78,52,28
-21,14,35,3,-28,24,-7,20,44,50,37,24
-24,11,35,6,-30,23,2,20,46,50,34,18
-24,8,31,8,-28,19,13,20,42,50,29,13
-26,3,30,12,-28,16,22,20,40,50,25,7
-30,0,30,15,-30,15,21,28,40,50,20,5
-29,-5,24,16,-26,10,18,34,44,50,23,5
-35,-13,22,24,-28,4,15,41,45,56,29,5
-33,-19,13,26,-23,-3,13,47,47,63,33,5
-40,-12,29,26,-34,8,9,41,57,63,34,5
-54,-7,47,30,-50,19,13,39,51,54,28,5
-41,-3,38,21,-39,17,27,34,44,48,24,5
-46,-12,34,29,-40,11,24,31,37,40,19,5
-64,-36,28,49,-45,-4,15,26,29,32,15,5
-57,-35,22,45,-39,-6,9,15,22,26,10,5
-53,-35,18,44,-35,-8,1,3,16,20,7,5
-43,-33,10,38,-27,-11,-6,-7,14,15,4,3
-33,-28,5,30,-19,-11,-8,-6,11,10,1,-1
-45,-47,-3,46,-21,-25,1,-3,8,6,-2,0
-43,-53,-10,48,-16,-31,8,-1,6,1,-5,0
-25,-38,-13,32,-6,-25,6,3,3,2,-6,0
-6,-32,-26,19,10,-28,5,6,0,6,-11,0
-2,-17,-15,9,7,-16,5,1,0,4,-16,-9
-5,9,14,-2,-10,12,5,-15,0,1,-19,-23
-10,11,21,-1,-16,16,6,-31,0,0,-17,-28
-24,1,25,11,-25,13,2,-31,0,-2,-12,-21
-33,-3,30,18,-31,13,-4,-30,0,-6,-10,-16
-26,0,26,13,-26,13,-9,-29,0,-8,-5,-11
-15,7,21,4,-18,14,-14,-24,0,-11,-2,-5
-6,11,17,-3,-12,14,-21,-26,0,-14,2,0
4,17,13,-11,-4,15,-24,-23,0,-15,5,5
15,24,8,-20,3,16,-17,-16,1,-9,5,9
17,22,4,-20,6,13,-3,-11,6,-2,7,14
21,22,1,-21,10,11,7,-6,9,4,11,19
31,29,-2,-30,16,13,12,0,12,11,10,18
30,23,-7,-26,18,8,15,5,18,13,7,13
25,15,-10,-20,17,2,9,10,18,8,4,10
23,9,-14,-16,18,-2,3,14,28,5,1,7
14,-1,-15,-6,15,-8,-1,13,32,2,-2,2
13,-2,-15,-5,14,-9,-7,8,19,-3,-5,0
19,-1,-19,-9,19,-10,-13,5,10,-5,-5,0
24,4,-21,-14,22,-8,-13,2,1,-1,-5,0
26,7,-19,-16,22,-5,-6,-3,0,4,-5,0
21,8,-13,-14,17,-2,-2,-4,0,6,-5,0
39,33,-6,-36,22,14,4,-18,-5,11,-5,0
43,43,1,-43,21,22,10,-28,-5,14,-5,0
23,31,8,-27,7,19,15,-18,-4,18,-2,0
9,23,14,-17,-3,18,22,-4,5,23,2,0
8,19,11,-14,-2,15,32,4,13,29,5,0
16,20,5,-18,5,12,46,25,23,34,9,0
20,20,0,-20,10,10,40,46,21,30,9,0
26,21,-5,-23,16,7,25,28,12,22,3,0
30,18,-12,-24,21,3,11,9,4,16,-3,0
43,29,-14,-36,28,8,-5,0,-4,8,-8,0
47,37,-10,-42,28,13,-34,-16,-11,5,-14,0
41,30,-10,-36,25,10,-55,-38,-24,5,-19,0
37,30,-8,-33,23,11,-42,-34,-25,5,-17,0
30,25,-4,-27,17,10,-28,-12,-11,5,-11,0
30,25,-5,-27,17,10,-19,-3,0,5,-6,0
28,19,-9,-23,18,5,-5,8,9,12,-3,0
30,14,-16,-21,22,-1,10,17,17,21,3,0
31,9,-23,-20,27,-7,30,31,25,30,4,1
32,3,-29,-17,30,-13,36,36,33,33,0,4
34,-3,-36,-15,35,-19,22,30,31,27,1,1
36,-3,-39,-16,38,-21,8,27,24,23,-3,0
40,8,-33,-24,36,-13,-4,21,18,19,-5,0
39,12,-27,-25,33,-7,-18,17,11,13,-5,0
47,25,-22,-36,34,1,-23,9,4,10,-2,0
40,24,-16,-32,27,4,-17,2,-2,10,0,-3
54,38,-16,-45,34,11,-13,-3,-5,10,0,-5
72,58,-14,-65,43,22,-9,-18,-5,9,5,-8
36,24,-11,-30,23,6,-4,-18,-6,13,5,-11
19,10,-8,-15,13,1,1,-8,0,21,6,-15
24,10,-14,-17,18,-2,9,5,10,28,10,-15
29,0,-29,-15,29,-14,22,32,21,34,10,-11
29,-2,-30,-13,30,-16,35,34,31,30,15,-8
19,-11,-30,-4,24,-20,35,25,26,25,15,-5
25,-5,-30,-10,28,-18,3,20,19,20,18,-2
27,-3,-30,-12,29,-16,-49,14,13,17,21,0
32,3,-29,-17,30,-13,-62,16,5,10,19,2
45,24,-21,-34,33,1,-49,15,0,13,21,6
35,22,-13,-28,23,5,-40,15,7,31,19,8
38,31,-6,-34,22,12,-16,15,16,36,22,11
45,42,-2,-43,24,19,-9,15,25,35,25,14
33,34,1,-34,16,17,-19,15,33,35,27,15
29,34,4,-32,12,19,-22,15,35,35,31,21
19,28,9,-23,5,18,-36,15,38,35,26,23
16,25,9,-21,3,17,-34,14,41,38,25,19
19,21,3,-20,8,12,-13,21,44,43,25,17
24,19,-4,-21,14,7,-8,26,45,41,20,14
31,20,-11,-25,21,4,-5,25,40,38,20,10
33,15,-18,-23,25,-1,-21,24,36,36,21,10
39,15,-24,-27,31,-4,-40,21,31,33,30,15
36,15,-21,-25,28,-3,-39,20,28,30,40,15
25,15,-9,-20,16,3,-42,23,20,34,40,16
19,18,0,-18,9,9,-16,24,26,48,40,20
13,22,9,-18,2,15,18,28,45,50,39,20
9,26,18,-18,-5,22,14,38,44,50,41,18
8,24,16,-16,-5,20,9,37,39,50,38,14
6,21,16,-14,-5,18,4,27,34,50,36,12
5,18,13,-12,-4,15,-3,27,31,50,32,9
3,16,13,-9,-6,14,-7,15,24,44,29,6
7,13,7,-10,0,10,-14,17,28,46,28,5
-3,10,13,-4,-8,11,-20,7,25,42,22,12
6,7,1,-7,2,3,-35,4,23,42,33,23
-2,3,5,-1,-4,4,-39,3,24,38,30,24
3,1,-2,-2,3,-1,-61,-13,13,45,41,28
18,8,-10,-12,14,-1,-64,19,40,50,28,27
24,54,29,-39,-3,42,-64,-21,51,72,43,34
95,63,-32,-79,63,15,-103,-49,69,170,187,97
131,91,-40,-111,85,26,-274,-501,-342,79,594,375
193,315,122,-254,36,218,-604,-1369,-1283,-524,857,677
152,320,168,-237,-8,244,-668,-1778,-1999,-1480,145,496
37,-162,-199,62,118,-180,-443,-1615,-2082,-1958,-727,-3
-121,-357,-236,239,58,-296,-11,-865,-1286,-1332,-748,-280
-216,-158,58,187,-137,-49,241,-170,-345,-397,-314,-210
-34,-61,-27,48,-4,-44,77,-4,-11,-23,-52,-79
28,-18,-46,-5,37,-32,36,62,78,41,-43,-46
-4,-31,-27,18,12,-29,40,76,84,62,-33,-47
-1,-42,-41,22,20,-41,29,78,85,86,-27,-57
-8,-23,-15,16,3,-19,52,97,129,113,-22,-55
-26,-18,8,22,-17,-5,54,110,148,113,-13,-55
-50,-7,43,28,-47,18,100,121,151,120,-35,-56
-47,-9,38,28,-42,15,109,131,162,119,-51,-54
-50,-2,48,25,-49,23,111,149,186,126,-54,-57
-44,0,44,22,-44,21,110,165,190,127,-58,-60
-49,-4,45,26,-47,20,109,193,206,134,-63,-64
-58,-13,45,35,-52,16,113,171,201,130,-65,-75
-64,-19,44,41,-54,12,74,150,156,91,-96,-98
-72,-26,46,48,-58,10,36,158,143,73,-123,-113
-96,-59,38,77,-67,-10,34,153,142,67,-141,-118
-110,-83,27,97,-69,-28,43,156,137,47,-169,-136
-118,-100,18,109,-67,-41,43,155,136,25,-191,-150
-130,-117,13,123,-71,-52,57,155,128,9,-206,-147
-117,-107,10,112,-63,-49,76,178,140,7,-200,-142
-99,-92,7,95,-53,-43,67,193,150,-6,-194,-138
-75,-74,1,74,-38,-36,60,187,162,13,-188,-131
-51,-51,1,51,-26,-25,53,179,168,55,-147,-97
-28,-36,-8,32,-10,-22,45,170,154,76,-77,-50
-8,-25,-17,16,5,-20,40,161,151,101,-24,-11
13,-15,-28,1,21,-21,30,131,131,94,11,20
25,-4,-29,-10,27,-17,15,117,109,89,30,32
-2,10,12,-4,-7,11,-14,70,62,76,34,37
-32,-2,30,17,-31,14,-49,-4,37,73,37,34
-41,-6,35,23,-38,15,-70,-26,35,69,32,35
-56,-19,38,37,-47,9,-61,-22,26,62,43,41
-58,-22,36,40,-47,7,-62,-13,34,68,46,67
-29,-27,2,28,-15,-12,-56,5,15,51,49,73
-31,13,44,9,-37,28,-55,40,134,225,147,93
-58,69,127,-6,-93,98,-87,-47,171,397,453,258
-29,11,40,8,-34,25,-36,51,285,513,528,265
-108,166,273,-29,-191,219,102,243,296,104,-220,51
-515,-48,467,281,-491,209,472,258,0,-683,-1184,-375
-769,-536,233,653,-501,-152,989,807,502,-331,-1269,-772
-602,-439,163,520,-382,-138,1173,1368,1202,461,-646,-598
-426,-316,109,371,-267,-103,1150,1511,1387,643,-291,-344
-394,-354,40,374,-216,-157,1123,1443,1152,397,-284,-297
-349,-337,11,343,-180,-163,768,697,403,-7,-222,-212
-173,-202,-29,188,-72,-115,292,110,44,-65,-56,-77
-49,-83,-34,66,-8,-58,26,-2,-14,-23,46,26
-11,-67,-55,39,22,-61,-150,-173,-161,-72,59,54
27,-36,-63,4,46,-50,-198,-229,-190,-80,68,62
37,-34,-71,-1,54,-52,-201,-240,-220,-94,63,53
61,-16,-77,-22,69,-46,-225,-256,-238,-99,79,78
105,4,-101,-54,103,-49,-242,-271,-264,-106,104,104
139,27,-112,-83,125,-42,-247,-294,-282,-108,134,104
157,47,-111,-102,134,-32,-279,-293,-288,-108,156,133
169,52,-117,-110,142,-32,-348,-348,-331,-123,176,165
178,61,-117,-119,147,-28,-381,-424,-377,-144,197,168
182,60,-122,-122,152,-31,-404,-462,-409,-142,231,191
181,69,-112,-125,146,-21,-443,-522,-457,-152,277,248
182,83,-99,-132,140,-8,-501,-587,-504,-152,316,281
201,117,-84,-159,142,16,-547,-626,-517,-119,359,301
214,162,-51,-188,132,55,-553,-623,-496,-91,372,321
197,167,-30,-182,113,68,-532,-576,-447,-63,338,307
173,134,-38,-153,105,48,-470,-477,-354,-6,280,250
121,88,-32,-104,76,28,-372,-321,-227,50,219,177
78,42,-37,-59,57,2,-280,-192,-117,70,163,150
28,-7,-35,-10,32,-21,-180,-73,-22,122,133,105
-12,-44,-32,28,11,-38,-107,-15,6,124,60,46
-12,-43,-31,28,10,-37,-45,74,90,142,72,28
-61,-48,13,54,-37,-17,-19,103,130,121,43,-6
-3,-129,-126,66,61,-127,-39,59,105,168,173,85
97,-105,-202,4,150,-153,-27,174,286,495,614,274
180,-39,-219,-71,200,-128,10,385,541,562,281,166
176,-329,-505,77,341,-417,225,541,453,4,-653,-252
-193,-662,-469,428,139,-566,587,571,222,-499,-1142,-616
-453,-634,-181,544,-135,-407,918,941,618,-166,-982,-718
-342,-481,-139,412,-101,-310,1012,1376,1120,311,-557,-541
-238,-392,-154,315,-42,-273,992,1478,1176,361,-355,-385
-178,-326,-148,252,-15,-237,902,1182,759,115,-295,-312
-99,-218,-118,159,10,-168,561,479,174,-140,-212,-155
-7,-71,-64,39,29,-68,257,107,7,-101,-81,-55
81,58,-23,-69,52,17,19,-25,-55,-82,12,6
120,148,28,-134,46,88,-113,-157,-126,-88,56,77
122,189,66,-156,28,127,-117,-205,-163,-77,89,116
130,199,68,-165,31,133,-139,-241,-195,-82,90,123
161,240,79,-200,41,159,-137,-258,-210,-93,90,117
161,273,112,-217,24,193,-154,-322,-270,-144,96,123
159,279,120,-219,19,199,-195,-376,-330,-172,93,115
188,304,116,-246,36,210,-241,-418,-382,-201,100,136
197,338,141,-268,28,239,-299,-481,-426,-228,129,173
202,365,163,-284,19,264,-362,-552,-487,-228,161,204
228,387,160,-308,34,273,-416,-608,-524,-219,220,255
250,403,153,-327,48,278,-463,-626,-522,-201,303,299
243,396,153,-320,45,274,-498,-632,-514,-152,348,322
247,383,135,-315,56,259,-502,-621,-490,-105,338,317
246,342,96,-294,74,219,-446,-532,-403,-46,323,273
199,290,91,-245,54,190,-351,-395,-273,17,279,219
180,250,71,-215,54,160,-260,-264,-151,63,202,144
145,179,34,-162,56,106,-145,-122,-41,97,151,63
90,121,31,-106,29,76,-49,-15,36,97,110,24
70,94,25,-82,22,59,-1,29,74,89,71,-8
55,75,20,-65,18,47,24,60,83,82,59,-34
47,61,14,-54,17,37,26,84,84,74,61,-35
45,54,9,-49,17,31,23,86,82,67,60,-35
53,55,3,-54,24,29,19,75,75,66,60,-35
55,50,-4,-52,29,23,16,65,74,70,60,-35
50,48,-1,-49,26,23,11,58,66,70,58,-35
69,69,0,-69,34,35,11,60,66,70,51,-35
80,79,-1,-79,40,39,19,63,71,70,46,-35
86,68,-18,-76,52,25,26,65,74,70,41,-35
89,63,-26,-76,57,18,48,80,92,68,35,-35
68,54,-15,-61,41,19,59,87,102,64,30,-35
52,47,-5,-49,28,21,54,84,99,62,25,-35
58,60,3,-59,27,31,52,86,101,59,21,-35
67,66,0,-67,33,33,49,85,100,56,18,-35
66,61,-5,-63,35,28,46,85,100,55,15,-35
66,59,-7,-62,37,26,44,79,91,48,10,-35
68,56,-12,-62,39,22,40,70,78,40,12,-35
69,54,-15,-61,41,19,35,65,70,34,15,-31
62,51,-12,-57,37,20,31,55,70,26,15,-30
56,46,-10,-51,32,18,26,50,70,18,15,-30
54,44,-10,-49,32,16,22,42,70,18,15,-25
50,40,-10,-45,30,15,17,37,70,31,14,-25
44,35,-10,-39,26,12,31,57,69,42,11,-25
52,41,-11,-46,31,14,52,65,65,41,8,-25
61,45,-15,-52,38,15,59,58,59,36,5,-25
52,37,-15,-44,33,11,60,54,56,34,3,-25
45,30,-15,-37,30,7,53,49,51,29,-1,-25
40,26,-14,-32,27,5,53,45,47,25,3,-25
31,14,-16,-22,23,-1,35,40,42,27,5,-21
31,27,-4,-29,17,12,-2,43,40,30,5,-20
35,51,16,-44,10,33,-6,46,37,33,9,-20
35,50,15,-43,10,32,-5,49,33,36,10,-20
39,50,10,-45,15,30,-3,52,52,39,9,-20
42,50,8,-46,17,29,1,54,67,40,5,-21
47,50,3,-49,22,26,-2,58,64,40,5,-25
48,48,0,-48,24,24,12,60,68,40,4,-25
41,44,3,-43,18,24,42,56,70,40,0,-25
37,42,6,-40,15,23,51,54,70,42,0,-25
34,38,5,-36,14,21,49,55,66,48,2,-25
27,37,10,-32,8,23,62,54,64,50,8,-21
23,33,10,-28,6,21,59,56,65,50,13,-15
22,33,11,-28,5,22,49,53,60,53,16,-10
5,24,19,-15,-7,22,41,50,60,56,21,-4
28,54,26,-41,1,40,34,50,60,54,25,1
60,93,33,-77,14,63,28,48,60,51,30,6
57,89,32,-73,12,60,21,44,60,49,30,11
61,90,29,-76,16,59,14,45,59,51,31,14
64,91,26,-78,19,58,7,48,61,48,35,17
66,89,23,-78,22,56,10,52,58,58,34,22
72,93,21,-83,26,57,42,65,69,76,37,25
84,102,18,-93,33,60,74,87,90,80,41,29
95,111,16,-103,40,63,90,97,100,85,39,30
102,115,12,-109,45,63,106,100,105,89,44,30
108,118,10,-113,49,64,105,104,105,91,45,35
119,125,7,-122,56,66,97,109,105,94,45,35
128,132,4,-131,62,68,92,107,105,96,50,36
115,124,9,-120,53,66,72,103,106,103,47,40
103,118,15,-111,44,66,58,100,102,102,41,37
89,111,21,-100,34,66,53,96,95,94,37,33
78,102,24,-91,27,63,45,91,87,88,31,29
77,96,20,-87,28,58,40,89,81,81,25,26
71,89,18,-80,26,53,32,85,73,75,20,21
70,84,14,-77,27,49,35,79,70,75,25,21
67,79,12,-73,27,45,58,94,71,83,26,30
64,73,9,-68,27,41,59,105,67,85,27,33
54,68,13,-61,20,40,55,99,66,78,23,24
46,62,17,-54,14,39,47,88,63,75,26,23
35,48,12,-42,11,30,43,87,64,70,19,16
-2,17,19,-8,-10,18,34,55,48,65,20,13
-43,-34,9,38,-26,-12,-7,42,48,60,19,9
-90,-67,23,78,-56,-21,-19,20,26,38,-7,-7
-136,-114,22,125,-79,-46,-39,11,20,30,-6,-13
-219,-167,53,193,-136,-57,-30,0,-2,5,-60,-48
-245,-225,20,235,-132,-102,-72,-60,-30,34,-45,-44
-258,-348,-90,303,-84,-219,-203,-172,-79,79,136,51
-352,-357,-5,355,-173,-181,-512,-896,-799,-223,600,378
-407,-220,187,314,-297,-17,-838,-1715,-1784,-998,660,597
-510,-407,103,459,-306,-152,-788,-1901,-2266,-1889,-315,230
-665,-908,-243,786,-211,-575,-498,-1556,-2079,-2053,-1031,-264
-875,-980,-105,927,-385,-542,-59,-749,-1134,-1217,-859,-455
-863,-763,101,813,-482,-331,12,-255,-356,-404,-438,-351
-690,-682,7,686,-348,-337,-190,-166,-134,-155,-239,-231
-662,-625,37,643,-349,-293,-171,-102,-57,-98,-229,-224
-606,-585,20,595,-313,-282,-180,-91,-42,-68,-208,-208
-569,-550,18,560,-293,-266,-148,-55,-16,-38,-208,-206
-535,-516,19,525,-277,-248,-106,-29,19,-23,-198,-197
-481,-476,5,478,-243,-235,-83,-7,47,-15,-192,-190
-425,-434,-9,430,-208,-221,-35,24,64,10,-187,-186
-384,-389,-5,386,-189,-196,-13,50,89,30,-180,-180
-365,-339,26,352,-195,-156,2,67,123,44,-177,-181
-318,-301,17,309,-167,-142,10,70,128,48,-172,-179
-291,-273,18,281,-154,-127,32,87,146,62,-167,-175
-264,-250,14,256,-138,-118,51,115,175,65,-167,-175
-231,-220,10,226,-120,-105,70,130,181,66,-187,-177
-208,-198,11,203,-109,-93,70,142,205,76,-206,-186
-200,-185,14,192,-107,-85,70,166,221,73,-218,-207
-187,-172,15,179,-101,-78,69,198,223,67,-239,-210
-170,-155,15,162,-92,-70,81,221,241,65,-254,-203
-161,-146,15,153,-88,-65,124,245,258,59,-246,-197
-116,-100,15,108,-65,-42,161,285,285,56,-237,-193
-77,-65,12,70,-44,-26,164,294,296,71,-228,-175
-33,-29,4,31,-18,-13,153,281,288,93,-188,-137
37,33,-4,-34,20,14,146,269,278,109,-128,-90
94,82,-13,-88,53,35,135,224,245,111,-66,-44
148,130,-18,-139,83,56,120,169,199,109,-12,-6
180,154,-26,-167,103,64,76,132,160,118,31,27
201,171,-31,-186,116,70,39,105,147,125,65,43
207,182,-25,-194,116,78,40,105,153,128,77,57
237,214,-23,-225,130,95,41,105,156,128,93,65
257,239,-18,-248,137,110,45,106,158,151,116,75
250,236,-15,-242,132,110,45,128,167,174,136,91
259,240,-19,-250,139,111,54,136,177,182,154,100
267,247,-20,-257,143,113,80,143,188,201,161,109
275,256,-20,-265,147,117,92,163,206,210,168,110
280,260,-20,-270,150,120,101,175,222,217,171,109
280,259,-21,-270,151,119,123,193,236,224,175,110
