I,II,III,aVR,aVL,aVF,V1,V2,V3,V4,V5,V6
-117,-210,-94,164,-12,-151,497,514,407,150,-80,-100
-130,-206,-75,168,-27,-140,513,515,416,150,-91,-110
-136,-189,-53,163,-41,-121,530,523,415,150,-111,-127
-135,-161,-26,149,-54,-93,544,518,413,149,-109,-131
-134,-119,15,126,-74,-52,528,505,410,151,-111,-127
-133,-93,40,113,-86,-26,504,483,408,155,-111,-122
-135,-79,56,107,-95,-11,451,435,391,150,-126,-118
-126,-73,53,99,-89,-10,388,374,344,132,-129,-112
-112,-74,38,93,-74,-18,320,288,282,116,-104,-93
-102,-77,26,89,-64,-25,253,215,239,111,-80,-66
-67,-72,-5,70,-30,-39,192,160,189,106,-28,-23
-25,-79,-54,52,15,-66,126,113,137,102,16,20
-8,-82,-74,45,33,-78,95,83,106,98,46,52
-4,-88,-84,47,41,-86,89,60,94,93,74,65
4,-76,-80,37,42,-78,87,59,90,83,81,65
61,-17,-78,-21,70,-48,84,61,82,70,84,79
67,-41,-108,-13,88,-74,81,59,76,61,80,78
35,-76,-111,20,73,-94,79,61,70,47,75,70
42,-66,-108,12,75,-87,80,58,74,62,73,69
35,-72,-106,19,71,-89,79,65,76,84,68,61
40,-64,-104,13,72,-84,86,68,73,84,65,62
40,-65,-105,13,73,-85,96,73,79,91,62,67
31,-66,-97,18,65,-81,93,85,72,88,57,65
26,-70,-96,22,61,-82,101,83,80,95,54,60
13,-76,-89,31,52,-82,106,79,96,105,51,58
30,-71,-101,20,65,-85,99,76,87,97,46,53
53,-67,-120,8,86,-93,96,71,81,91,44,50
51,-61,-112,5,82,-86,91,69,74,84,35,45
46,-58,-104,6,75,-81,86,62,67,77,25,37
44,-52,-96,5,70,-74,82,56,62,69,15,31
42,-48,-90,3,66,-69,76,49,55,62,5,23
30,-70,-101,20,66,-85,71,42,51,56,-3,16
19,-83,-101,32,60,-92,66,36,42,48,-9,9
21,-79,-100,29,60,-90,60,35,33,40,-16,2
21,-78,-99,29,60,-89,55,35,24,32,-21,7
8,-94,-102,43,55,-98,50,35,16,24,-19,13
9,-105,-114,48,62,-109,50,35,6,16,-23,18
17,-96,-112,39,65,-103,49,36,7,8,-25,25
11,-94,-105,42,59,-99,45,33,24,0,-26,21
10,-92,-102,41,56,-97,45,30,24,-8,-20,12
7,-87,-94,41,50,-90,43,30,18,-16,-18,5
4,-86,-90,41,48,-88,39,30,17,-18,-38,-13
21,-83,-103,31,62,-93,35,30,10,-11,-32,-22
37,-69,-106,16,72,-87,32,30,11,-7,-15,-15
48,-54,-102,4,75,-78,26,34,17,-1,-7,-9
51,-56,-107,3,80,-81,26,33,22,5,-2,-4
52,-52,-105,0,79,-78,34,44,29,9,0,1
99,-12,-111,-44,105,-61,24,57,25,32,4,7
123,12,-110,-68,116,-49,9,50,15,41,9,13
107,3,-104,-55,105,-50,-8,43,6,31,9,18
108,-27,-135,-40,121,-80,-18,37,-5,27,2,16
83,-42,-125,-20,104,-83,-12,29,-9,19,-3,3
48,-43,-91,-2,70,-67,-8,26,-13,13,-9,-4
0,-87,-87,44,44,-87,-3,33,-14,7,-13,-17
-30,-105,-75,68,22,-89,1,30,-26,-1,-31,-48
-37,-101,-64,69,14,-82,6,30,-31,-9,-49,-63
-48,-109,-61,78,7,-84,13,28,-24,-17,-49,-63
-45,-101,-56,73,6,-78,25,23,-25,-23,-55,-62
-61,-117,-56,90,-2,-87,15,28,-16,-32,-55,-57
-56,-106,-50,81,-3,-78,14,17,-17,-40,-54,-53
-37,-87,-50,62,7,-68,9,25,-19,-42,-57,-52
-79,-130,-51,104,-14,-90,1,11,-37,-34,-51,-43
-57,-105,-48,81,-5,-76,7,23,-23,-32,-60,-49
-32,-86,-53,59,11,-69,-8,3,-37,-20,-68,-61
-32,-143,-111,87,40,-126,69,135,82,44,-69,-76
101,-153,-254,26,178,-203,221,553,548,388,95,-30
208,-35,-244,-86,226,-139,192,423,625,768,403,167
548,219,-330,-383,439,-55,-717,-476,138,975,968,634
806,502,-305,-654,555,99,-1858,-1565,-647,1066,1669,1253
573,692,119,-633,227,405,-1928,-2063,-1456,269,1538,1470
524,645,121,-585,201,383,-1477,-1621,-1417,-409,1098,1416
489,503,14,-496,237,259,-1037,-1014,-879,-195,949,1274
239,356,118,-298,60,237,-605,-570,-514,-154,562,861
70,183,113,-126,-22,148,-308,-271,-295,-155,160,409
-50,113,163,-32,-106,138,-127,-134,-202,-125,-59,98
-109,52,161,28,-135,106,-12,-5,-106,-104,-131,-29
-125,2,127,61,-126,64,59,61,-49,-60,-152,-90
-135,-27,108,81,-121,40,98,96,-18,-65,-179,-124
-115,-85,30,100,-73,-27,135,144,34,-39,-171,-128
-105,-120,-16,112,-44,-68,171,180,51,-36,-173,-140
-103,-136,-33,119,-34,-84,182,187,49,-20,-168,-146
-92,-135,-43,114,-24,-89,179,191,50,-13,-165,-151
-98,-133,-35,116,-31,-84,181,208,51,-5,-166,-150
-92,-130,-38,112,-27,-83,179,213,48,-5,-174,-157
-108,-130,-22,119,-43,-76,182,226,60,-5,-181,-165
-121,-128,-7,125,-56,-68,171,215,55,-6,-193,-180
-85,-123,-38,104,-23,-80,180,224,69,-23,-203,-181
-82,-121,-39,102,-22,-80,195,250,95,-14,-199,-178
-98,-115,-18,107,-39,-67,208,256,100,3,-201,-174
-84,-115,-30,100,-27,-72,228,284,120,-1,-200,-183
-72,-107,-34,90,-19,-70,243,309,141,5,-200,-214
-102,-128,-26,115,-37,-77,275,334,167,16,-211,-222
-139,-161,-22,150,-58,-92,295,346,183,11,-210,-222
-134,-148,-14,141,-60,-81,323,343,197,22,-204,-228
-90,-97,-7,94,-42,-52,358,365,232,38,-196,-246
-97,-94,3,95,-50,-45,377,395,263,51,-201,-254
-145,-135,10,140,-77,-62,400,412,286,63,-232,-258
-144,-117,27,130,-86,-44,425,425,308,63,-243,-258
-144,-92,52,117,-98,-19,432,426,308,58,-244,-259
-153,-72,81,112,-117,4,421,415,298,50,-252,-285
-169,-52,116,110,-142,32,417,408,293,45,-265,-293
-160,-46,114,102,-136,34,407,397,283,37,-268,-282
-138,-36,102,87,-120,33,366,349,279,32,-252,-271
-118,-22,95,70,-106,36,309,276,256,22,-243,-254
-106,-20,85,63,-95,33,240,211,209,3,-232,-230
-64,9,73,27,-68,41,163,136,156,-11,-203,-208
12,48,36,-30,-12,42,105,72,110,-19,-155,-176
46,41,-5,-44,25,18,61,33,79,-31,-105,-135
81,42,-39,-62,60,1,41,7,59,-39,-65,-97
82,43,-38,-63,60,3,31,-9,43,-41,-36,-76
83,34,-49,-59,66,-7,20,-25,30,-54,-24,-74
106,33,-73,-69,89,-20,20,-36,25,-58,-25,-71
98,31,-66,-65,82,-17,19,-37,20,-76,-25,-68
111,26,-85,-69,98,-29,16,-34,14,-101,-25,-64
138,42,-96,-90,117,-27,14,-31,8,-100,-30,-68
132,41,-90,-87,111,-24,17,-29,6,-99,-34,-77
77,-10,-88,-33,82,-48,16,-25,12,-96,-39,-74
54,-30,-84,-12,69,-56,15,-26,18,-95,-37,-71
84,5,-79,-44,81,-37,14,-33,23,-94,-29,-68
79,-1,-80,-39,80,-41,11,-32,34,-88,-22,-65
66,-39,-105,-13,86,-72,9,-29,36,-84,-16,-66
39,-55,-95,8,67,-75,11,-27,35,-79,-14,-72
34,-65,-99,16,67,-82,20,-23,33,-75,-15,-79
63,-65,-127,1,96,-96,22,-21,29,-70,-14,-80
49,-64,-114,8,82,-89,18,-19,30,-70,-16,-80
33,-66,-99,17,67,-83,16,-23,27,-70,-14,-80
30,-63,-94,17,62,-78,13,-28,21,-70,-19,-80
18,-68,-86,25,53,-77,10,-35,17,-70,-31,-81
8,-76,-84,34,46,-80,9,-45,12,-70,-31,-78
-14,-89,-75,52,31,-82,4,-45,8,-71,-26,-66
-35,-106,-71,70,19,-88,1,-44,3,-75,-24,-51
-10,-104,-94,57,43,-99,-2,-45,-8,-87,-20,-41
-4,-99,-95,52,46,-97,-7,-44,-10,-91,-15,-37
-23,-99,-76,61,27,-87,-10,-46,-14,-89,-17,-34
-24,-93,-69,59,23,-81,-10,-50,-20,-87,-24,-30
-39,-99,-60,69,11,-79,-10,-50,-26,-84,-29,-27
-61,-116,-55,89,-3,-85,-10,-51,-29,-85,-34,-23
-73,-120,-47,96,-13,-83,-10,-55,-25,-80,-31,-11
-65,-109,-45,87,-10,-77,-10,-55,-23,-76,-26,4
-57,-102,-45,80,-6,-73,-10,-53,-20,-74,-24,14
-53,-94,-41,74,-6,-67,-10,-46,-16,-69,-19,21
-47,-87,-40,67,-3,-63,-10,-41,-15,-66,-16,27
-45,-85,-40,65,-2,-62,-10,-36,-11,-62,-12,35
-33,-69,-36,51,2,-52,-10,-30,-10,-54,-8,38
-15,-47,-32,31,9,-39,-10,-26,-10,-44,-3,36
-4,-34,-30,19,13,-32,-15,-31,-10,-37,0,32
12,-11,-23,0,17,-16,-30,-37,-10,-40,5,48
46,3,-42,-24,44,-19,-51,-43,-11,-41,9,65
50,-32,-81,-9,66,-56,-50,-57,-25,-40,13,57
17,-76,-93,30,55,-85,-39,-60,-31,-40,19,50
28,-61,-90,17,59,-75,-34,-59,-29,-42,16,45
12,-67,-79,28,46,-72,-25,-65,-31,-52,4,35
-31,-103,-72,67,21,-87,-18,-64,-28,-67,-20,20
-27,-101,-74,65,24,-87,-9,-66,-41,-83,-36,8
-19,-94,-75,57,28,-84,0,-59,-45,-86,-34,4
-13,-90,-77,52,32,-83,6,-57,-45,-84,-43,-5
-5,-84,-79,45,37,-81,16,-54,-49,-86,-48,-10
7,-76,-82,35,45,-79,16,-48,-49,-83,-42,-18
-25,-99,-74,62,25,-86,19,-49,-52,-86,-49,-32
-30,-103,-73,67,22,-88,10,-36,-41,-78,-40,-26
-61,-118,-57,90,-2,-88,16,-43,-47,-75,-61,-49
-60,-122,-62,91,1,-92,6,-12,-28,-66,-65,-58
-25,-96,-71,61,23,-83,19,-23,-43,-69,-56,-51
4,-171,-174,84,89,-172,128,219,199,59,-32,-64
142,-127,-269,-7,205,-197,291,576,640,506,201,16
339,105,-235,-222,287,-65,7,123,464,771,541,253
747,370,-376,-558,561,-3,-1174,-931,-147,991,1229,825
807,623,-185,-715,496,219,-2007,-1899,-983,864,1732,1369
571,720,149,-646,211,434,-1788,-2067,-1592,-110,1351,1436
578,623,45,-600,266,334,-1320,-1468,-1268,-424,1038,1356
442,480,37,-461,203,258,-873,-920,-742,-174,851,1123
209,315,106,-262,51,210,-486,-516,-458,-181,404,660
56,177,120,-117,-32,148,-233,-284,-290,-151,75,251
-33,98,132,-33,-83,115,-70,-150,-190,-149,-78,27
-80,30,110,25,-95,70,21,-30,-96,-102,-133,-61
-73,19,92,27,-83,55,72,7,-53,-71,-144,-113
-77,-40,38,58,-57,-1,113,63,-11,-61,-138,-130
-93,-105,-12,99,-40,-58,138,113,31,-33,-136,-134
-93,-141,-48,117,-22,-95,140,127,55,-17,-134,-146
-122,-190,-69,156,-26,-129,157,147,58,-4,-129,-159
-118,-189,-71,154,-24,-130,167,171,73,-5,-132,-161
-122,-190,-68,156,-27,-129,163,174,76,3,-135,-160
-126,-190,-65,159,-31,-127,182,185,77,6,-135,-167
-127,-189,-62,158,-33,-125,197,199,99,11,-139,-162
-132,-191,-60,161,-36,-125,201,200,99,15,-151,-177
-132,-188,-56,161,-38,-122,210,224,114,14,-160,-192
-142,-192,-50,167,-46,-121,215,247,121,16,-169,-195
-144,-188,-44,166,-50,-116,218,253,121,20,-174,-192
-148,-187,-39,168,-55,-113,238,275,145,19,-177,-191
-123,-157,-34,140,-44,-95,267,302,167,24,-174,-189
-127,-154,-28,141,-49,-91,268,316,184,29,-179,-195
-151,-174,-22,163,-64,-98,293,341,201,40,-198,-222
-123,-140,-16,132,-53,-78,338,390,235,64,-201,-227
-121,-132,-12,127,-54,-72,359,411,256,78,-200,-224
-130,-130,0,130,-65,-65,390,432,269,81,-200,-226
-144,-120,24,132,-83,-48,405,468,293,90,-203,-224
-168,-119,49,143,-108,-35,418,478,308,98,-215,-226
-180,-102,78,141,-129,-12,441,489,312,91,-231,-223
-205,-95,110,150,-157,7,440,478,304,84,-252,-229
-215,-65,151,140,-183,43,424,468,300,78,-259,-235
-201,-29,172,115,-186,71,382,439,292,68,-253,-227
-194,-18,177,106,-185,79,333,375,262,64,-245,-220
-182,-7,176,94,-179,84,283,318,212,48,-240,-196
-143,1,144,71,-144,72,205,235,160,18,-228,-175
-94,29,124,32,-110,76,138,177,115,9,-196,-144
-50,46,96,2,-73,71,87,132,79,6,-154,-92
-17,45,62,-14,-40,53,41,79,47,2,-110,-48
6,52,46,-29,-20,49,13,46,18,-1,-74,-17
7,42,35,-25,-14,38,4,28,2,-6,-60,2
28,57,28,-43,0,42,5,26,-10,-8,-59,13
29,48,18,-39,5,33,5,20,-19,-25,-55,5
9,24,15,-17,-3,19,5,17,-20,-36,-52,-11
9,24,15,-17,-3,20,5,10,-19,-36,-50,-22
-6,9,15,-2,-10,12,7,13,-15,-33,-48,-25
13,28,15,-21,-1,22,13,32,-11,-40,-44,-25
27,41,15,-34,6,28,17,36,-8,-53,-42,-40
5,16,12,-11,-4,14,21,34,-3,-46,-39,-53
-9,-3,6,6,-7,1,26,35,0,-34,-36,-62
-23,-21,2,21,-12,-9,30,34,-3,-28,-34,-73
-11,-14,-3,13,-4,-8,24,35,-6,-29,-30,-82
8,0,-8,-4,8,-4,19,32,-5,-30,-30,-86
-17,-26,-10,22,-4,-18,14,29,-6,-30,-29,-90
-49,-52,-4,51,-22,-28,8,30,-5,-29,-25,-98
-63,-62,1,62,-32,-30,2,26,-6,-37,-24,-100
-62,-57,5,59,-33,-26,-3,24,-14,-46,-28,-100
-45,-34,11,39,-28,-11,-6,26,-21,-44,-30,-100
-41,-28,12,34,-27,-7,-8,14,-28,-48,-31,-100
-56,-32,25,44,-41,-3,-11,0,-27,-50,-35,-100
-52,-28,24,40,-38,-2,-14,-15,-24,-50,-36,-99
-55,-26,28,40,-41,1,-16,-26,-25,-53,-39,-96
-71,-25,46,47,-58,10,-24,-25,-25,-56,-44,-93
-65,-21,44,43,-55,12,-36,-25,-25,-55,-45,-91
-60,-21,39,41,-49,9,-48,-25,-24,-60,-45,-87
-55,-17,38,36,-47,11,-53,-25,-20,-59,-45,-85
-84,-27,57,55,-70,15,-49,-25,-15,-60,-45,-83
-51,4,56,23,-53,30,-47,-40,-12,-72,-45,-76
-18,34,53,-9,-36,43,-44,-46,-9,-59,-45,-71
-54,3,57,25,-56,30,-41,-44,-6,-48,-40,-66
-67,-14,53,40,-60,19,-39,-49,-3,-50,-40,-60
-89,-31,58,60,-73,13,-37,-50,-1,-56,-39,-55
-70,-19,52,44,-61,16,-32,-50,2,-57,-35,-48
-54,6,61,23,-58,33,-31,-43,12,-44,-36,-40
-30,37,67,-4,-49,52,-27,-34,25,-35,-32,-35
-1,73,74,-36,-38,73,-25,-25,34,-26,-19,-26
-21,71,92,-25,-57,81,-25,-21,41,-24,-7,-12
-9,76,85,-34,-47,80,-24,-27,50,-21,1,2
16,80,64,-48,-24,72,-66,-29,50,-18,7,14
47,73,26,-60,10,49,-89,-25,44,-16,13,27
53,42,-11,-47,32,15,-75,-24,40,-15,22,32
26,-15,-41,-5,34,-28,-71,-25,35,-33,22,25
-3,-33,-31,18,14,-32,-63,-24,31,-45,14,19
-9,-12,-3,11,-3,-7,-37,-24,34,-45,7,13
-8,-9,-1,8,-3,-4,-16,-17,39,-45,0,5
-19,-13,6,16,-13,-3,-14,-17,30,-45,-7,1
-6,-2,5,3,-5,1,-12,-10,31,-46,-15,-2
-22,-17,4,19,-13,-6,-8,-9,24,-44,-12,-4
-43,-36,7,39,-24,-14,-5,-3,21,-60,-25,-9
-36,-34,2,34,-18,-16,-5,0,22,-70,-26,-9
-39,-30,9,34,-24,-10,2,3,22,-70,-23,-9
-22,-27,-4,24,-9,-15,0,14,30,-64,-11,-3
-20,-24,-4,22,-8,-13,11,6,16,-64,-10,-3
-1,2,3,-1,-2,2,4,31,43,-58,1,1
0,-2,-2,1,0,-2,34,9,19,-61,11,-7
62,-48,-111,-7,87,-79,150,310,317,108,40,-20
158,-17,-175,-70,166,-95,309,611,716,549,260,76
343,193,-150,-268,247,21,-108,1,402,753,605,336
769,447,-323,-608,546,61,-1334,-1075,-240,970,1301,914
773,670,-104,-721,439,283,-1990,-1961,-1086,752,1716,1408
567,773,206,-670,180,489,-1702,-2017,-1578,-225,1312,1426
603,671,68,-637,267,369,-1254,-1391,-1183,-408,1052,1387
427,522,95,-475,166,308,-807,-870,-690,-178,859,1173
175,348,173,-262,1,260,-441,-492,-409,-216,411,686
64,228,164,-147,-50,196,-212,-279,-262,-177,78,298
0,165,165,-83,-83,165,-56,-153,-176,-194,-79,64
-46,109,155,-31,-101,131,39,-47,-108,-157,-127,-36
-76,77,153,-1,-115,114,87,-2,-64,-128,-142,-81
-63,25,88,19,-75,56,118,44,-18,-127,-143,-105
-31,-18,13,25,-22,-3,148,90,13,-105,-145,-93
-37,-68,-30,53,-4,-48,156,103,34,-86,-146,-102
-55,-97,-42,76,-6,-69,174,117,43,-74,-144,-105
-58,-93,-36,76,-11,-64,188,126,42,-73,-146,-111
-64,-96,-32,81,-16,-64,182,128,45,-64,-143,-125
-66,-94,-27,80,-19,-60,207,150,63,-61,-142,-125
-73,-96,-22,85,-25,-59,217,157,74,-55,-135,-124
-75,-94,-19,84,-28,-56,213,162,70,-49,-138,-128
-69,-81,-12,75,-28,-47,216,176,79,-44,-157,-152
-84,-90,-6,87,-38,-48,221,199,107,-38,-162,-163
-90,-91,-1,91,-44,-46,234,217,118,-33,-160,-158
-84,-80,4,81,-44,-38,239,238,130,-26,-158,-162
-81,-74,7,77,-44,-33,264,263,153,-8,-155,-159
-79,-66,13,72,-46,-26,293,288,176,9,-155,-162
-78,-65,14,71,-45,-25,307,312,196,16,-166,-183
-83,-74,9,79,-46,-32,335,346,214,30,-174,-196
-119,-98,21,109,-70,-38,358,376,238,45,-183,-199
-152,-99,53,125,-102,-23,378,402,266,58,-185,-203
-145,-84,61,115,-103,-11,396,430,278,58,-188,-209
-152,-89,63,120,-107,-13,409,441,287,62,-207,-221
-174,-69,105,121,-139,18,430,448,308,75,-210,-217
-177,-54,123,116,-150,34,432,441,298,67,-226,-214
-195,-52,143,124,-169,45,421,427,285,61,-237,-211
-207,-35,172,121,-190,68,389,398,274,54,-226,-206
-184,-25,159,104,-171,67,325,337,241,48,-221,-204
-162,2,164,80,-163,83,259,271,198,39,-214,-189
-129,19,148,55,-139,83,190,208,137,16,-204,-166
-73,26,99,23,-86,62,123,140,89,5,-175,-124
-49,31,80,9,-65,55,73,87,53,1,-135,-93
-11,15,26,-3,-19,21,34,59,14,2,-86,-55
31,9,-22,-20,26,-7,11,46,4,9,-32,-6
24,4,-19,-14,21,-7,-2,40,6,14,-7,5
22,6,-16,-13,19,-5,-11,29,-10,19,-16,25
28,12,-16,-20,22,-2,-13,22,-28,16,-19,38
31,-6,-37,-12,34,-21,-9,24,-29,15,-12,33
20,-33,-53,7,36,-42,-5,25,-21,15,-11,34
13,-38,-51,13,32,-45,-2,27,-20,15,-6,29
22,-31,-53,5,38,-42,3,31,-13,14,-2,30
24,-23,-47,0,35,-35,6,30,-11,18,1,35
36,-19,-55,-9,46,-37,13,30,2,25,4,45
60,-9,-69,-25,65,-39,28,35,20,37,6,47
46,-21,-67,-12,57,-44,32,35,19,52,10,37
49,-42,-90,-3,70,-66,26,28,30,61,8,49
61,-34,-95,-13,78,-64,19,25,40,69,1,63
59,-28,-87,-15,73,-57,13,20,32,64,-3,53
75,-9,-84,-33,79,-46,6,16,26,58,-11,45
41,-39,-79,-1,60,-59,-6,10,19,54,-13,36
17,-57,-73,20,45,-64,-4,2,12,46,-29,26
43,-28,-72,-7,58,-50,-5,-6,8,48,-51,25
55,-58,-112,2,84,-85,-12,-13,4,54,-49,25
53,-67,-120,7,87,-93,-17,-23,2,50,-46,22
42,-64,-106,11,75,-85,-23,-39,-1,43,-43,19
39,-66,-105,14,72,-85,-24,-46,-4,39,-41,20
29,-66,-94,19,62,-80,-38,-51,-5,32,-38,21
7,-84,-90,38,49,-87,-40,-56,-12,28,-46,16
15,-70,-85,28,50,-78,-34,-65,-21,22,-67,2
21,-62,-83,21,53,-72,-33,-74,-30,16,-66,-13
15,-66,-80,25,48,-73,-26,-76,-38,9,-64,-2
8,-69,-77,31,43,-73,-26,-79,-40,2,-65,4
-4,-79,-75,42,36,-77,-29,-81,-40,-4,-59,-29
27,-45,-72,10,50,-59,-31,-85,-40,-10,-61,-53
31,-33,-64,1,48,-48,-27,-84,-50,-14,-59,-59
-6,-63,-57,35,26,-60,-23,-79,-56,-15,-61,-62
-5,-56,-51,31,23,-53,-18,-73,-54,-15,-68,-65
18,-26,-44,4,32,-35,-16,-70,-55,-15,-71,-65
48,2,-46,-24,47,-22,-36,-65,-55,-15,-70,-65
60,16,-44,-38,52,-14,-50,-61,-55,-15,-70,-65
73,27,-46,-49,59,-9,-41,-56,-58,-15,-71,-66
68,24,-44,-45,56,-9,-54,-50,-60,-15,-51,-70
61,14,-47,-38,54,-16,-93,-75,-60,-16,-34,-71
66,4,-62,-35,64,-29,-101,-90,-62,-14,-39,-70
50,-30,-80,-10,65,-55,-99,-90,-66,-23,-47,-71
43,-36,-79,-3,62,-57,-99,-89,-63,-31,-37,-71
8,-39,-47,16,28,-43,-89,-90,-73,-43,-39,-68
-20,-87,-67,54,24,-76,-82,-101,-93,-69,-73,-92
-35,-113,-78,74,22,-95,-75,-93,-91,-70,-76,-118
-44,-109,-65,77,11,-87,-65,-79,-84,-70,-88,-124
-36,-99,-63,68,14,-81,-59,-72,-78,-70,-97,-126
-58,-97,-39,78,-9,-68,-46,-69,-76,-70,-94,-122
-63,-100,-36,82,-13,-68,-39,-59,-65,-71,-96,-137
-70,-104,-34,88,-18,-69,-34,-60,-66,-76,-93,-150
-87,-110,-23,98,-32,-66,-31,-46,-53,-86,-98,-151
-105,-110,-5,107,-50,-57,-32,-52,-55,-83,-88,-147
-56,-119,-63,87,4,-91,-20,-37,-43,-100,-94,-153
7,-71,-79,32,43,-75,-35,-41,-37,-87,-85,-146
-36,-107,-71,71,18,-89,22,72,53,-40,-92,-159
50,-147,-197,48,124,-172,184,488,480,294,45,-152
178,-13,-191,-82,184,-102,187,420,586,645,348,44
570,229,-341,-400,455,-56,-600,-419,120,849,919,535
847,593,-254,-720,550,169,-1732,-1550,-673,969,1651,1165
517,757,240,-637,138,498,-1936,-2189,-1571,76,1481,1354
497,684,187,-591,155,435,-1513,-1758,-1547,-623,1008,1268
507,572,66,-540,220,319,-1037,-1052,-904,-314,888,1156
252,372,120,-312,66,246,-590,-591,-530,-218,478,704
98,211,113,-155,-8,161,-319,-311,-316,-208,103,252
-23,150,173,-64,-99,162,-138,-167,-200,-187,-62,7
-71,94,165,-12,-118,129,-20,-49,-106,-179,-142,-153
-104,51,155,27,-130,103,51,14,-54,-133,-158,-209
-101,25,126,38,-114,75,95,77,-24,-132,-175,-221
-129,-61,68,94,-98,4,122,114,32,-113,-170,-234
-132,-119,13,125,-72,-53,145,126,42,-102,-159,-217
-123,-109,14,116,-68,-47,148,143,68,-86,-151,-200
-149,-104,44,126,-96,-30,162,152,87,-82,-148,-217
-124,-101,23,112,-73,-39,167,159,84,-73,-144,-215
-107,-89,18,98,-62,-36,163,165,87,-65,-138,-211
-93,-101,-8,97,-42,-54,167,174,82,-61,-135,-210
-128,-133,-5,131,-61,-69,177,186,93,-58,-140,-205
-159,-138,21,148,-90,-58,199,202,93,-56,-139,-205
-150,-132,17,141,-83,-57,211,221,104,-52,-145,-210
-168,-147,21,157,-94,-63,219,242,135,-47,-145,-210
-139,-135,3,137,-71,-66,234,255,140,-41,-147,-211
-138,-133,5,135,-71,-63,244,272,142,-35,-144,-216
-126,-146,-20,136,-53,-83,256,286,151,-28,-147,-214
-108,-128,-20,118,-43,-74,269,300,161,-17,-153,-223
-153,-157,-4,155,-74,-80,294,333,197,-8,-128,-231
-176,-176,0,176,-88,-88,322,355,233,2,-158,-229
-166,-152,14,159,-90,-69,334,372,238,9,-179,-222
-144,-154,-11,149,-66,-82,359,398,265,20,-179,-239
-198,-145,53,171,-125,-46,375,411,278,31,-209,-249
-210,-143,67,176,-138,-38,380,414,281,43,-213,-202
-201,-139,62,170,-132,-38,376,407,314,62,-217,-209
-225,-103,123,164,-174,10,368,393,313,59,-221,-253
-195,-98,97,146,-146,0,363,384,295,46,-227,-249
-188,-84,104,136,-146,10,331,365,280,40,-228,-236
-177,-48,129,112,-153,40,285,318,255,33,-222,-220
-169,-52,117,110,-143,32,235,264,225,28,-218,-181
-152,-49,104,101,-128,27,185,196,184,20,-189,-122
-112,-46,66,79,-88,10,135,121,128,-12,-157,-79
-81,-45,36,63,-58,-4,87,75,89,-41,-127,-45
-63,-45,18,54,-40,-13,70,39,54,-39,-94,-17
-44,-60,-16,52,-14,-37,64,1,21,-36,-67,-4
-44,-50,-6,47,-19,-28,55,-18,19,-34,-58,17
-25,-38,-13,31,-6,-25,50,-18,20,-30,-59,37
24,-20,-43,-2,34,-31,45,-11,20,-31,-61,45
20,-28,-48,4,34,-38,39,-6,20,-41,-59,50
1,-68,-69,34,35,-69,33,-1,20,-39,-61,48
-38,-69,-31,54,-3,-50,31,5,20,-22,-68,45
-40,-64,-24,52,-8,-43,35,9,19,-11,-46,45
7,-59,-66,26,37,-63,44,21,29,-4,-27,45
15,-55,-70,20,43,-62,55,27,40,-1,-27,45
19,-50,-69,15,44,-59,60,31,44,2,-19,45
27,-46,-73,10,50,-60,58,41,41,7,-18,38
30,-63,-93,17,62,-78,55,36,40,9,-9,26
33,-60,-93,13,63,-76,51,31,39,21,-17,21
31,-54,-85,12,58,-69,49,26,34,24,-39,17
36,-48,-84,7,60,-66,45,19,36,17,-40,26
17,-59,-77,21,47,-68,46,16,32,13,-40,36
8,-66,-74,29,41,-69,56,8,24,6,-40,28
36,-34,-70,-1,53,-51,51,1,16,1,-40,24
49,-19,-68,-15,59,-43,44,-6,8,-4,-40,18
53,-12,-65,-20,59,-38,38,-13,0,-9,-36,12
52,-9,-61,-21,57,-35,31,-22,-4,-12,-34,8
50,-9,-60,-21,55,-34,25,-22,-7,-18,-39,1
52,-5,-57,-23,55,-30,26,-13,-9,-19,-40,-6
49,-3,-52,-23,51,-28,35,-2,-13,-13,-33,-13
49,0,-49,-25,49,-24,33,6,-15,-6,-29,-19
50,4,-46,-26,47,-21,29,-11,-13,1,-22,-13
45,4,-41,-24,42,-18,26,-10,-7,8,-18,-2
60,19,-41,-40,50,-11,21,2,-4,14,-13,6
92,47,-45,-69,68,1,21,8,1,19,-17,16
93,48,-45,-70,69,1,28,27,16,25,-33,3
107,62,-45,-84,75,9,26,31,22,31,-34,3
121,75,-45,-97,83,15,17,26,16,37,-27,32
108,67,-41,-87,74,12,9,24,13,40,-24,36
102,63,-39,-82,70,12,0,19,10,40,-21,34
86,50,-36,-67,61,7,-6,16,3,42,14,35
108,76,-32,-92,70,22,-40,12,16,39,31,28
135,90,-45,-112,90,22,-70,11,20,35,18,22
128,46,-83,-87,105,-19,-66,11,1,33,12,15
141,26,-115,-83,127,-44,-57,7,-6,28,4,9
109,22,-88,-65,98,-33,-52,5,-15,26,-6,-1
55,-2,-57,-26,56,-29,-47,5,-25,15,-31,-30
30,-21,-51,-4,41,-36,-45,6,-35,-16,-53,-47
3,-33,-36,15,19,-34,-40,4,-47,-44,-74,-51
-14,-46,-33,30,10,-39,-36,7,-43,-46,-79,-49
-27,-51,-24,40,-2,-37,-37,3,-46,-48,-81,-41
-26,-47,-21,37,-3,-33,-38,6,-49,-54,-87,-66
-24,-40,-16,33,-4,-27,-45,11,-57,-54,-52,-82
-28,-38,-10,33,-9,-23,-41,23,-47,-57,-48,-78
-18,-27,-10,23,-4,-18,-53,16,-38,-51,-39,-73
-47,-29,17,38,-32,-6,-46,10,-40,-52,-47,-74
-48,-51,-3,49,-22,-27,-43,17,-16,-48,-43,-66
-60,-90,-30,76,-15,-60,-10,17,-37,-49,-38,-84
16,-119,-135,52,76,-127,106,345,294,159,-4,-107
133,-56,-189,-38,161,-122,203,552,633,583,258,7
363,142,-221,-252,292,-40,-210,-28,322,806,685,330
780,490,-290,-635,535,100,-1374,-1099,-320,1051,1478,986
665,769,104,-717,280,436,-2033,-2043,-1266,608,1757,1432
449,776,327,-613,61,551,-1737,-2016,-1696,-401,1202,1388
529,650,121,-589,203,385,-1267,-1314,-1159,-423,973,1290
317,461,144,-389,87,302,-802,-768,-644,-182,718,981
91,278,187,-185,-48,232,-448,-420,-384,-189,269,494
8,182,174,-95,-83,178,-236,-217,-228,-147,3,114
-67,98,164,-16,-116,131,-83,-82,-130,-153,-115,-53
-108,41,149,33,-129,95,-3,-3,-61,-106,-109,-87
-168,-7,161,88,-164,76,46,60,-26,-97,-125,-131
-151,-52,99,101,-125,24,92,104,26,-66,-138,-149
-107,-66,41,86,-74,-12,121,143,66,-41,-140,-159
-116,-94,22,105,-69,-36,137,177,94,-45,-136,-159
-130,-116,14,123,-71,-51,144,166,101,-45,-133,-154
-110,-111,-1,110,-54,-56,154,174,99,-51,-130,-153
-104,-97,7,101,-55,-45,167,175,104,-51,-132,-149
-129,-95,34,112,-81,-30,166,174,105,-57,-149,-147
-114,-95,19,104,-66,-38,177,182,105,-52,-150,-144
-137,-95,42,116,-89,-26,203,194,111,-44,-149,-145
-153,-95,59,124,-105,-18,207,201,117,-38,-152,-145
-141,-96,45,118,-92,-25,217,207,121,-31,-156,-145
-133,-90,42,111,-87,-24,239,218,133,-24,-160,-145
-98,-65,33,81,-66,-16,256,226,153,-18,-164,-146
-95,-67,27,81,-61,-20,282,252,171,-10,-166,-144
-101,-78,23,89,-62,-27,305,272,185,-5,-165,-140
-83,-68,14,75,-49,-26,322,291,211,4,-165,-140
-84,-72,12,78,-48,-30,339,321,226,15,-165,-140
-114,-68,46,91,-80,-11,367,347,251,28,-165,-140
-131,-72,59,101,-95,-6,392,369,277,45,-176,-141
-112,-61,52,86,-82,-4,398,380,289,55,-176,-136
-84,-16,69,50,-76,26,426,394,318,63,-177,-136
-90,-15,75,52,-82,30,438,392,318,65,-198,-154
-108,-5,103,56,-106,49,441,380,308,58,-202,-162
-113,41,154,36,-134,97,448,375,304,55,-193,-158
-94,79,174,7,-134,126,414,355,295,50,-188,-162
-68,100,168,-16,-119,134,368,315,285,46,-180,-149
-66,91,157,-13,-112,124,313,255,256,39,-175,-121
-50,99,148,-25,-100,123,240,193,208,25,-167,-97
-26,95,121,-35,-74,108,178,134,158,15,-141,-72
18,98,81,-58,-32,89,131,78,115,5,-101,-36
74,127,53,-101,10,90,94,38,74,-5,-60,15
84,122,37,-103,23,79,69,12,48,-14,-31,43
80,110,30,-95,25,70,58,5,35,-21,-23,38
84,106,22,-95,30,64,51,3,23,-28,-26,37
77,93,16,-85,31,54,43,-1,18,-34,-29,33
60,70,9,-65,25,39,36,-3,12,-43,-31,30
45,47,2,-46,21,25,30,-6,9,-55,-35,29
40,36,-4,-38,22,16,25,-5,4,-63,-34,24
33,19,-14,-26,23,2,20,-6,0,-66,-29,19
19,-7,-26,-6,23,-16,16,-5,6,-61,-30,15
5,-32,-37,14,21,-34,11,-5,11,-60,-27,10
0,-47,-47,24,24,-47,12,-5,16,-55,-25,5
4,-41,-45,19,25,-42,19,-4,22,-55,-25,2
7,-40,-47,17,27,-43,25,0,28,-60,-29,-4
6,-58,-63,26,35,-60,18,15,27,-60,-30,-8
-2,-62,-61,32,29,-61,7,16,18,-60,-30,-12
-6,-57,-52,32,23,-54,1,5,7,-60,-35,-17
-19,-66,-47,43,14,-56,-11,-1,-2,-63,-35,-22
-40,-79,-39,60,-1,-59,-13,-10,-1,-65,-36,-25
-47,-81,-34,64,-6,-57,-10,-16,0,-69,-40,-25
-42,-79,-37,61,-2,-58,-10,-22,0,-70,-40,-25
-40,-81,-41,61,0,-61,-11,-28,-1,-70,-40,-25
-39,-80,-40,59,0,-60,-9,-31,1,-70,-40,-24
-41,-80,-39,60,-1,-59,-12,-36,-7,-71,-40,-32
-42,-76,-35,59,-3,-56,-28,-39,-22,-83,-44,-41
-34,-69,-35,52,1,-52,-31,-42,-20,-86,-45,-39
-46,-79,-33,63,-7,-56,-29,-44,-20,-85,-45,-41
-30,-59,-29,44,0,-44,-31,-48,-21,-90,-50,-39
-16,-43,-27,30,6,-35,-29,-57,-19,-90,-50,-42
-44,-68,-24,57,-10,-46,-30,-56,-21,-89,-50,-53
-46,-67,-21,57,-12,-44,-31,-49,-24,-84,-50,-56
-46,-64,-19,55,-13,-41,-30,-46,-27,-81,-50,-65
-46,-62,-16,54,-15,-38,-31,-41,-29,-78,-50,-67
-44,-59,-15,52,-15,-36,-28,-36,-33,-73,-50,-64
-39,-55,-15,48,-12,-35,-37,-38,-36,-70,-50,-65
-36,-48,-12,42,-12,-30,-54,-41,-33,-64,-44,-60
-46,-43,2,44,-24,-20,-58,-39,-30,-51,-31,-60
-24,-37,-12,31,-6,-24,-57,-41,-31,-42,-20,-59
2,-36,-38,17,20,-36,-74,-39,-29,-46,-15,-55
13,-34,-47,11,31,-40,-111,-45,-30,-48,-16,-56
25,-64,-88,20,57,-76,-117,-59,-28,-52,-15,-53
25,-85,-110,30,68,-98,-96,-58,-26,-54,-19,-49
12,-87,-100,38,56,-94,-86,-53,-23,-61,-29,-51
-12,-107,-95,60,41,-100,-77,-52,-26,-68,-33,-57
-39,-127,-87,83,24,-107,-70,-45,-26,-74,-45,-86
-67,-148,-81,108,7,-115,-62,-46,-34,-102,-71,-127
-72,-148,-76,110,2,-112,-56,-44,-51,-107,-78,-137
-69,-141,-72,105,2,-106,-55,-45,-56,-102,-72,-139
-77,-140,-63,109,-7,-102,-50,-46,-57,-108,-78,-141
-64,-126,-62,95,0,-94,-50,-43,-56,-102,-72,-143
-65,-117,-53,91,-6,-85,-43,-49,-66,-108,-78,-152
-47,-104,-57,76,5,-80,-46,-34,-52,-103,-81,-148
-55,-101,-47,78,-4,-74,-37,-40,-69,-107,-82,-156
-37,-94,-57,65,10,-75,-42,-15,-49,-104,-82,-154
-12,-88,-76,51,32,-82,-26,-33,-55,-95,-73,-158
-3,-133,-130,68,64,-131,64,177,146,15,-56,-162
139,-104,-243,-17,191,-173,218,560,600,434,145,-96
288,55,-233,-171,261,-89,34,196,457,703,450,94
682,323,-359,-502,520,-18,-1040,-788,-93,941,1110,643
818,600,-218,-709,518,190,-1957,-1797,-932,882,1693,1228
537,718,181,-628,178,449,-1845,-2097,-1656,-95,1359,1351
564,671,108,-618,228,389,-1417,-1535,-1388,-504,1010,1306
460,523,63,-492,198,293,-983,-972,-844,-239,878,1122
208,358,149,-283,29,253,-571,-558,-511,-217,466,682
78,232,154,-156,-38,193,-309,-288,-320,-191,100,257
-35,139,173,-52,-104,156,-134,-155,-219,-203,-87,-10
-58,103,161,-23,-110,132,-30,-42,-130,-180,-142,-120
-82,78,160,2,-122,119,25,10,-93,-141,-156,-172
-96,8,104,44,-100,56,67,55,-35,-126,-169,-199
-87,-63,24,75,-55,-19,96,97,-1,-102,-169,-208
-101,-113,-12,107,-44,-63,113,120,8,-103,-171,-221
-97,-119,-22,108,-37,-70,109,133,13,-90,-169,-219
-112,-132,-19,122,-46,-75,110,143,16,-87,-170,-221
-130,-150,-21,140,-54,-85,130,150,22,-79,-170,-224
-120,-140,-20,130,-50,-80,144,160,24,-71,-170,-226
-122,-142,-20,132,-51,-81,144,168,32,-84,-170,-223
-119,-136,-17,127,-50,-76,153,173,34,-74,-170,-220
-120,-134,-14,128,-53,-74,163,190,50,-55,-170,-220
-131,-146,-16,139,-57,-81,172,207,66,-51,-171,-220
-145,-159,-14,152,-65,-86,195,226,76,-44,-166,-220
-162,-177,-16,170,-73,-96,213,259,99,-38,-161,-220
-162,-176,-14,170,-74,-95,235,280,114,-26,-155,-224
-164,-169,-5,167,-80,-86,259,304,140,-11,-150,-226
-167,-164,4,165,-85,-80,285,335,161,2,-143,-227
-170,-153,17,161,-93,-68,319,368,193,22,-142,-231
-157,-140,17,148,-87,-61,348,400,224,39,-153,-228
-156,-131,26,143,-91,-52,369,422,233,46,-155,-225
-157,-122,35,139,-95,-43,394,443,266,60,-156,-225
-171,-116,55,143,-113,-30,416,452,277,66,-165,-225
-196,-108,88,151,-142,-10,432,460,283,65,-175,-225
-183,-68,115,125,-149,23,454,462,291,77,-183,-225
-211,-55,156,133,-184,50,445,447,280,75,-179,-220
-215,-48,167,131,-191,59,403,422,269,63,-173,-212
-220,-24,196,121,-207,86,358,372,243,59,-170,-203
-230,-21,209,125,-219,94,297,303,206,22,-164,-181
-191,-15,176,103,-184,80,224,229,161,-16,-162,-151
-165,-9,156,87,-160,73,165,164,115,-11,-142,-117
-118,-4,114,61,-116,55,109,116,66,-6,-93,-85
-78,2,80,38,-79,41,51,65,35,-1,-50,-46
-56,17,73,20,-65,44,28,36,29,6,-10,0
-48,22,70,13,-59,46,31,34,23,9,19,31
-63,4,67,29,-65,35,28,31,15,6,21,46
-65,-3,62,34,-63,29,25,28,11,1,20,44
-72,-12,60,42,-66,24,24,25,17,-1,20,49
-72,-17,55,44,-63,18,28,26,23,-6,20,56
-75,-28,47,51,-61,10,30,35,27,-9,20,55
-85,-44,41,64,-63,-1,31,41,34,-13,17,55
-67,-33,34,50,-50,1,35,39,39,-22,13,50
-71,-43,28,57,-49,-7,35,43,44,-34,9,50
-63,-46,17,54,-40,-14,39,53,46,-11,6,49
-38,-29,9,33,-23,-9,38,60,55,23,1,42
-25,-25,0,25,-12,-12,33,63,57,24,1,36
-9,-18,-9,14,0,-13,30,56,50,21,8,29
-13,-9,4,11,-9,-2,26,49,47,18,7,23
-12,-10,2,11,-6,-4,22,41,42,15,1,16
-14,-19,-4,17,-5,-11,19,34,38,12,-3,10
-3,-14,-11,9,4,-12,15,28,33,10,-8,5
36,-3,-39,-16,38,-21,15,22,30,12,-12,-1
42,-5,-47,-18,45,-25,14,18,30,17,-17,-7
26,-18,-44,-3,35,-31,10,13,25,13,-21,-10
24,-22,-46,0,35,-34,10,9,25,17,-27,-10
26,-18,-44,-4,35,-31,8,4,20,12,-30,-10
31,-22,-52,-4,42,-37,4,0,10,-27,-35,-10
37,-19,-55,-8,46,-37,5,-5,3,-28,-39,-14
29,-20,-49,-4,39,-35,5,-10,-6,-11,-41,-24
27,-24,-51,-2,40,-37,5,-13,-11,-16,-39,-28
25,-23,-48,-1,37,-35,5,-21,-16,-19,-41,-25
23,-36,-58,7,41,-47,0,-16,-20,-24,-39,-25
54,-33,-87,-10,71,-60,-8,-18,-24,-28,-41,-25
46,-51,-97,3,72,-74,-14,-23,-37,-33,-61,-25
31,-68,-98,19,65,-83,-21,-36,-40,-35,-67,-25
42,-51,-93,5,68,-72,-28,-54,-34,-38,-64,-28
31,-54,-85,12,58,-69,-28,-42,-32,-41,-62,-37
57,-22,-80,-17,68,-51,-24,-32,-27,-28,-59,-39
69,-3,-72,-33,71,-37,-25,-27,-24,-8,-60,-35
68,-1,-69,-33,69,-35,-25,-32,-20,-5,-53,-35
96,25,-71,-61,83,-22,-25,-35,-13,-4,-45,-34
85,17,-69,-51,77,-25,-26,-30,-10,0,-40,-36
103,32,-72,-67,87,-20,-30,-21,3,-1,-32,-28
116,49,-67,-82,91,-9,-51,-23,15,22,-27,-7
113,34,-80,-73,96,-23,-77,-46,1,28,-22,0
140,23,-117,-81,129,-47,-89,-50,-15,13,-16,3
138,8,-130,-73,134,-61,-80,-43,-21,3,-10,6
120,-8,-128,-56,124,-68,-62,-38,-17,-8,-5,10
58,-41,-99,-9,79,-70,-46,-34,-28,-28,-22,3
27,-48,-75,10,52,-61,-35,-25,-41,-44,-41,-13
28,-42,-70,7,49,-56,-22,-33,-38,-45,-58,-24
3,-59,-62,28,33,-60,-13,-40,-34,-45,-72,-36
-7,-63,-57,35,25,-60,-6,-40,-30,-44,-71,-39
-7,-57,-49,32,21,-53,2,-41,-28,-46,-77,-43
15,-47,-63,16,39,-55,7,-38,-20,-43,-77,-45
13,-46,-59,17,36,-52,24,-44,-25,-40,-82,-42
35,-28,-62,-4,49,-45,17,-30,-12,-32,-83,-39
31,-27,-57,-2,44,-42,23,-43,-31,-31,-85,-36
3,-59,-62,28,33,-60,19,-23,-6,-23,-92,-34
-12,-72,-60,42,24,-65,20,-50,-28,-27,-83,-48
51,-71,-122,10,86,-96,108,178,180,76,-46,-64
171,-57,-228,-57,199,-142,283,582,655,498,153,11
276,102,-174,-189,225,-36,43,136,474,757,464,224
716,379,-336,-547,526,21,-1131,-936,-143,942,1095,753
837,611,-227,-724,532,192,-1996,-1903,-935,909,1665,1318
591,763,172,-677,209,467,-1802,-2096,-1561,8,1389,1429
619,687,68,-653,275,377,-1356,-1506,-1309,-416,1031,1378
499,539,40,-520,229,290,-915,-953,-781,-175,888,1212
268,416,148,-342,59,282,-520,-536,-446,-174,478,766
67,232,165,-150,-50,199,-266,-290,-282,-151,85,303
-31,151,182,-61,-106,166,-97,-146,-178,-145,-87,42
-47,123,170,-38,-109,146,5,-36,-81,-136,-141,-57
-85,91,175,-4,-130,133,55,2,-50,-115,-182,-130
-73,32,104,20,-89,68,105,54,2,-97,-189,-152
-83,-40,43,62,-63,1,148,111,52,-63,-171,-134
-67,-60,7,63,-37,-26,161,138,71,-51,-164,-125
-43,-61,-18,52,-13,-39,174,144,87,-34,-158,-117
-42,-55,-13,49,-14,-34,177,160,100,-33,-161,-123
-44,-54,-10,49,-17,-31,189,167,104,-23,-156,-141
-47,-51,-4,49,-22,-27,201,181,117,-18,-155,-150
-48,-49,-1,49,-24,-25,206,189,124,-10,-155,-152
-81,-76,5,78,-43,-35,229,204,131,-21,-163,-155
-74,-65,8,69,-41,-29,230,216,137,-30,-168,-146
-83,-72,11,78,-47,-30,230,227,143,-12,-164,-157
-127,-114,14,120,-70,-50,247,246,152,-2,-167,-183
-116,-96,20,105,-67,-38,267,266,171,8,-161,-181
-121,-89,32,105,-76,-28,293,284,199,12,-161,-181
-105,-77,28,91,-66,-24,308,307,214,18,-160,-179
-97,-68,29,82,-63,-19,323,333,231,24,-167,-184
-98,-77,21,87,-59,-28,338,353,244,27,-178,-213
-77,-44,33,60,-55,-5,378,395,276,56,-166,-215
-79,-40,40,59,-59,0,408,430,309,78,-156,-217
-85,-46,40,65,-62,-3,424,454,327,90,-142,-220
-118,-22,96,70,-107,37,461,476,352,105,-163,-222
-143,-39,104,91,-123,32,470,483,362,105,-188,-236
-148,-24,124,86,-136,49,467,482,363,102,-187,-234
-151,36,187,58,-169,111,455,461,349,97,-193,-243
-131,59,190,36,-161,124,420,428,323,90,-197,-248
-147,38,185,54,-166,111,370,376,296,85,-199,-231
-135,42,177,46,-156,109,302,306,251,80,-194,-215
-85,87,171,-1,-128,129,236,237,200,71,-175,-187
-85,77,163,4,-124,119,172,169,151,59,-135,-158
-49,71,121,-11,-85,96,113,119,109,48,-97,-131
-21,54,74,-16,-48,64,61,81,73,36,-66,-85
-6,30,36,-12,-21,33,29,38,47,25,-34,-43
50,74,24,-63,13,49,21,9,35,13,-17,-17
30,53,23,-42,3,38,11,1,25,3,-10,-20
-20,-1,19,11,-20,9,3,-4,15,-12,-3,-29
6,23,17,-15,-6,20,-8,-9,5,-27,5,-21
18,32,13,-26,2,22,-25,-15,-5,-27,-13,-13
-14,16,30,-2,-22,23,-24,-19,-16,-25,-24,-16
-31,3,33,14,-32,18,-17,-16,-30,-25,-31,-45
-58,-37,21,47,-39,-8,-12,-14,-27,-25,-50,-65
-56,-41,15,49,-36,-13,-6,-10,-14,-25,-27,-64
-65,-65,0,65,-32,-32,-9,-8,-14,-25,-27,-66
-55,-63,-7,59,-24,-35,-17,-4,-15,-30,-46,-69
-20,-43,-23,32,2,-33,-20,-9,-16,-30,-48,-70
-86,-104,-18,95,-34,-61,-24,-27,-21,-30,-62,-69
-84,-79,4,82,-44,-37,-25,-31,-20,-30,-38,-38
-57,-81,-24,69,-16,-52,-26,-30,-20,-29,-29,-23
-75,-119,-44,97,-15,-81,-29,-30,-20,-33,-61,-49
-42,-76,-34,59,-3,-55,-30,-30,-20,-35,-56,-40
-46,-78,-32,62,-7,-55,-29,-29,-24,-35,-53,-27
-58,-86,-28,72,-15,-56,-21,-34,-26,-39,-56,-24
-77,-98,-22,88,-27,-60,-32,-48,-32,-40,-57,-15
-58,-79,-20,69,-19,-50,-42,-50,-18,-40,-76,-10
-49,-49,0,49,-24,-24,-39,-50,-27,-40,-81,-1
-72,-81,-9,77,-31,-44,-38,-54,-57,-40,-79,-3
-53,-105,-52,79,0,-78,-34,-55,-55,-40,-84,-11
-26,-81,-55,54,14,-68,-35,-54,-53,-40,-85,-18
2,-47,-49,23,25,-48,-31,-51,-50,-40,-85,-23
-41,-88,-46,65,3,-67,-29,-48,-50,-40,-79,-21
-41,-82,-41,62,0,-61,-30,-45,-48,-40,-74,-18
-6,-40,-34,23,15,-37,-29,-42,-42,-40,-69,-15
-19,-49,-30,34,6,-40,-31,-40,-38,-40,-63,-12
-19,-40,-21,30,2,-31,-28,-38,-33,-40,-57,-10
-28,-55,-26,42,-1,-40,-25,-33,-29,-40,-54,-12
-16,-63,-47,40,15,-55,-22,-30,-24,-33,-56,-20
-16,-44,-28,30,6,-35,-20,-27,-21,-25,-54,-25
-13,-31,-18,22,3,-25,-17,-22,-14,-19,-56,-33
-2,-24,-22,13,10,-23,-14,-20,-12,-17,-57,-39
4,-10,-14,4,9,-12,-22,-15,-5,-22,-49,-17
2,-5,-6,2,4,-5,-40,-12,-3,-26,-42,21
4,10,6,-7,-1,7,-39,-7,7,-2,-22,18
40,23,-17,-32,28,3,-44,-5,44,20,-9,22
70,34,-36,-51,53,-1,-82,-12,37,4,-16,36
103,42,-61,-72,82,-10,-89,-18,5,-24,-23,18
70,-22,-91,-24,81,-56,-80,-34,-6,-37,-28,28
56,-9,-65,-23,60,-37,-69,-38,-1,-35,-26,22
54,8,-46,-31,50,-19,-42,-31,11,-33,-15,3
-5,-50,-45,28,20,-48,-33,-23,12,-48,-22,-24
-23,-61,-39,42,8,-50,-32,-18,6,-66,-53,-62
-26,-61,-35,44,5,-48,-24,-11,2,-66,-62,-66
-24,-55,-31,40,4,-43,-21,-6,-2,-61,-51,-69
-21,-46,-24,34,2,-35,-11,-6,-10,-63,-52,-72
-20,-42,-22,31,1,-32,-8,2,-7,-56,-40,-77
-22,-34,-12,29,-5,-23,2,-4,-15,-66,-39,-72
-38,-51,-13,45,-13,-31,6,12,-4,-63,-36,-45
-68,-69,0,69,-34,-34,1,-5,-18,-66,-47,-48
-15,-19,-4,17,-5,-11,19,10,-1,-56,-59,-55
-24,-72,-48,48,12,-59,27,6,-13,-44,-57,-71
-4,-111,-107,58,52,-109,92,178,137,6,-63,-101
130,-49,-179,-40,155,-114,237,566,576,418,152,-21
227,16,-211,-121,219,-97,121,313,529,706,471,180
693,320,-373,-506,533,-27,-824,-623,-1,929,1123,714
837,688,-149,-763,493,269,-1836,-1735,-871,882,1738,1324
491,773,282,-632,104,527,-1839,-2170,-1672,-149,1381,1413
530,662,132,-596,199,396,-1393,-1608,-1431,-588,997,1333
465,524,59,-494,202,291,-919,-958,-813,-277,828,1128
191,320,129,-255,31,224,-490,-529,-473,-220,403,661
48,150,101,-99,-26,125,-258,-290,-278,-190,93,264
-86,74,160,5,-123,117,-85,-144,-190,-199,-106,-13
-141,3,144,69,-142,73,17,-34,-100,-148,-131,-85
-166,-31,136,98,-151,52,82,10,-45,-107,-114,-124
-164,-59,105,111,-134,23,122,56,-17,-114,-187,-236
-120,-128,-8,124,-56,-68,129,87,18,-94,-157,-209
-150,-188,-38,170,-56,-113,158,113,61,-74,-133,-176
-134,-184,-50,159,-41,-117,170,128,72,-62,-144,-197
-100,-166,-67,133,-16,-116,174,136,76,-78,-139,-198
-105,-158,-54,132,-25,-106,176,134,88,-73,-138,-192
-96,-149,-53,122,-21,-101,173,130,91,-71,-134,-189
-92,-139,-47,115,-22,-92,180,129,112,-69,-132,-183
-87,-145,-59,116,-14,-102,189,148,116,-63,-129,-181
-125,-155,-30,141,-47,-92,192,158,119,-58,-142,-198
-135,-145,-10,140,-62,-77,187,153,121,-53,-143,-207
-92,-140,-48,116,-21,-94,208,189,132,-46,-134,-187
-88,-132,-44,111,-22,-88,228,214,159,-43,-128,-214
-128,-126,2,127,-65,-62,244,232,168,-28,-121,-251
-155,-124,30,139,-92,-47,259,257,184,2,-114,-203
-147,-121,26,134,-86,-47,268,275,204,15,-129,-201
-141,-118,23,129,-82,-48,295,303,227,24,-156,-247
-127,-116,11,121,-68,-52,312,325,252,30,-161,-266
-132,-113,19,122,-75,-47,336,361,272,45,-162,-263
-144,-107,37,125,-90,-35,344,381,302,49,-168,-274
-156,-87,69,121,-112,-9,361,390,328,64,-187,-292
-147,-59,88,103,-117,14,381,400,329,101,-191,-272
-126,-44,82,85,-104,19,366,390,331,100,-189,-260
-169,-40,129,104,-149,44,360,384,344,95,-191,-254
-175,-20,156,97,-165,68,354,378,335,94,-190,-248
-153,19,173,67,-163,96,329,361,318,87,-189,-239
-148,31,180,58,-164,105,275,317,292,87,-183,-241
-137,30,167,54,-152,99,228,255,247,77,-182,-225
-126,29,156,48,-141,92,173,190,205,60,-162,-174
-86,42,129,22,-108,85,107,128,144,45,-119,-146
-78,27,106,25,-92,66,66,76,86,27,-73,-104
-70,5,74,32,-72,39,32,42,59,15,-49,-63
-26,28,54,-1,-40,41,10,23,41,7,-50,-58
-35,5,39,15,-37,22,11,12,31,2,-50,-31
-46,-16,30,31,-38,7,18,8,30,-8,-50,-8
-25,5,29,10,-27,17,23,-1,29,-33,-51,-17
-40,-20,20,30,-30,0,29,13,26,-27,-48,-16
-38,-42,-4,40,-17,-23,26,34,24,-10,-45,-7
1,-11,-12,5,7,-11,25,35,25,-1,-45,-5
3,10,7,-7,-2,8,25,39,24,10,-45,6
-7,-2,6,5,-6,2,20,42,25,16,-45,-3
-16,-35,-19,26,2,-27,20,45,25,28,-41,-13
7,-43,-49,18,28,-46,20,44,25,30,-40,9
23,-35,-58,7,41,-46,33,37,33,25,-40,-6
31,-26,-57,-2,45,-42,40,33,32,20,-35,-37
53,-10,-63,-21,58,-36,33,27,22,15,-34,-40
9,-55,-64,24,37,-59,29,21,15,8,-36,-39
12,-56,-67,22,40,-61,23,16,7,6,-40,-41
31,-38,-69,3,50,-54,17,11,1,13,-40,-38
16,-55,-71,19,44,-63,13,4,-5,10,-36,-42
27,-41,-69,7,48,-55,5,-2,-10,5,-35,-48
31,-41,-71,5,51,-56,0,-9,-16,1,-34,-33
38,-31,-69,-4,53,-49,16,-16,-21,-9,-31,-31
36,-30,-66,-3,51,-48,20,-21,-25,-12,-29,-33
31,-18,-49,-6,41,-33,9,-27,-25,-26,-33,-23
22,-20,-42,0,32,-31,3,-33,-25,-46,-45,-21
34,-42,-77,5,56,-59,-7,-38,-25,-50,-45,-11
34,-21,-55,-6,45,-38,-10,-44,-24,-53,-45,-13
-10,-45,-35,28,13,-40,-10,-49,-49,-59,-43,-33
-11,-63,-52,38,21,-57,-10,-46,-63,-60,-39,-34
14,-49,-63,18,39,-56,-9,-40,-58,-57,-41,-25
38,-40,-78,1,58,-59,-11,-35,-61,-53,-36,-19
22,-36,-58,7,41,-47,-9,-30,-60,-51,-35,-13
30,-24,-54,-3,42,-38,-7,-22,-60,-43,-34,-5
63,3,-60,-32,61,-29,0,-23,-54,-53,-31,-17
44,14,-30,-29,37,-8,-3,-43,-47,-70,-30,-40
71,55,-16,-63,43,19,-12,-46,-41,-60,-28,-37
92,69,-23,-81,57,23,-5,-44,-34,-47,-17,-28
100,87,-12,-93,56,37,1,-46,-27,-50,-8,-21
123,98,-25,-110,74,36,-20,-42,-28,-51,4,-20
124,83,-42,-104,83,20,-66,-58,-43,-53,14,-16
119,67,-52,-92,85,8,-82,-81,-49,-58,3,-15
165,49,-116,-106,140,-34,-71,-77,-44,-42,30,-10
173,60,-113,-116,142,-26,-69,-67,-65,-58,19,-11
86,17,-69,-52,77,-25,-62,-65,-74,-73,-24,-29
93,-6,-99,-43,96,-53,-55,-50,-50,-60,-23,-27
101,0,-101,-50,101,-50,-51,-70,-73,-76,-57,-53
82,-7,-89,-37,85,-48,-41,-81,-96,-90,-57,-49
23,-64,-87,21,56,-76,-38,-74,-95,-98,-68,-52
27,-53,-79,13,53,-66,-23,-60,-90,-101,-94,-83
129,48,-81,-88,105,-17,-23,-66,-79,-85,-84,-31
97,25,-71,-61,84,-23,-9,-96,-72,-79,-95,-25
19,-55,-74,18,47,-64,-10,-79,-57,-115,-88,-69
-53,-119,-66,86,7,-93,-36,-105,-97,-144,-102,-78
26,-48,-74,11,50,-61,-5,-71,-74,-115,-102,-76
82,16,-66,-49,74,-24,15,-65,-65,-95,-73,-70
55,-71,-125,8,90,-97,95,107,97,4,-52,-75
118,-93,-211,-12,165,-152,228,479,528,387,113,-4
206,32,-174,-119,190,-71,106,221,482,689,424,225
672,350,-322,-510,496,14,-825,-692,-25,960,1119,812
812,675,-136,-743,474,269,-1856,-1772,-869,939,1756,1438
497,800,302,-649,97,551,-1864,-2179,-1664,-64,1422,1533
519,709,190,-614,164,449,-1407,-1623,-1445,-559,999,1452
421,524,103,-473,159,313,-955,-1006,-856,-259,830,1230
184,336,153,-260,15,244,-531,-569,-511,-218,422,761
21,155,134,-88,-57,144,-263,-291,-296,-189,90,360
-99,71,170,14,-134,120,-103,-169,-215,-186,-109,84
-148,-17,132,82,-140,57,-9,-55,-116,-177,-168,-23
-195,-64,131,129,-163,33,66,12,-63,-140,-170,-68
-190,-86,104,138,-146,9,96,55,-37,-122,-192,-103
-159,-146,13,153,-86,-67,124,98,-1,-99,-190,-106
-133,-161,-28,148,-53,-94,147,130,40,-94,-185,-105
-155,-221,-66,189,-44,-144,154,137,73,-77,-171,-94
-166,-228,-62,197,-52,-144,168,164,68,-72,-167,-90
-148,-193,-44,171,-52,-118,172,179,73,-59,-159,-87
-154,-210,-57,182,-48,-133,184,175,79,-51,-152,-90
-148,-207,-59,177,-44,-133,191,191,85,-43,-146,-91
-146,-201,-55,174,-46,-128,209,188,99,-33,-140,-95
-137,-189,-52,163,-43,-120,222,206,99,-31,-135,-96
-134,-182,-47,158,-43,-114,223,230,108,-30,-135,-100
-135,-179,-44,157,-45,-111,233,243,133,-25,-128,-100
-145,-185,-40,165,-52,-113,247,264,138,-26,-140,-105
-160,-196,-35,178,-62,-115,258,282,156,-17,-166,-113
-156,-188,-32,172,-62,-110,262,312,187,2,-163,-108
-158,-183,-25,171,-66,-104,272,323,201,23,-158,-125
-149,-178,-28,164,-60,-102,295,344,218,41,-157,-141
-143,-172,-29,158,-57,-100,329,375,244,55,-149,-145
-135,-169,-34,152,-50,-101,349,394,258,67,-152,-162
-126,-164,-38,146,-44,-101,369,423,280,76,-147,-158
-156,-159,-3,158,-76,-81,389,438,309,90,-161,-168
-188,-154,35,171,-111,-59,390,440,310,87,-196,-207
-195,-147,47,171,-121,-50,393,442,312,88,-202,-212
-217,-143,74,179,-145,-34,407,445,314,96,-198,-204
-226,-136,90,180,-158,-23,396,433,305,87,-201,-200
-225,-131,94,178,-160,-18,351,394,293,84,-198,-193
-238,-124,114,181,-175,-5,304,351,261,74,-188,-189
-205,-121,84,162,-144,-18,236,286,208,49,-175,-177
-184,-135,50,159,-117,-42,170,208,153,27,-157,-167
-170,-135,35,153,-102,-50,124,153,110,12,-122,-145
-120,-120,0,120,-60,-60,62,97,70,4,-86,-105
-97,-115,-18,106,-39,-67,26,54,35,-3,-51,-67
-101,-124,-24,112,-38,-74,13,34,14,-8,-26,-46
-93,-125,-32,109,-30,-78,-4,25,2,-22,-25,-41
-88,-121,-33,105,-28,-76,-5,19,-8,-36,-25,-36
-92,-118,-26,105,-33,-72,-6,12,-17,-33,-25,-32
-97,-116,-19,107,-39,-67,-10,6,-29,-40,-24,-27
-90,-103,-13,96,-38,-58,-10,0,-36,-48,-29,-25
-68,-74,-6,71,-31,-39,-4,7,-30,-41,-46,-41
-63,-63,0,63,-31,-31,1,18,-24,-36,-48,-64
-56,-62,-5,59,-26,-33,6,27,-19,-30,-44,-60
-48,-77,-29,62,-9,-53,12,38,-14,-25,-42,-50
-36,-83,-46,60,5,-64,18,47,-10,-20,-39,-68
-19,-63,-44,41,13,-53,18,58,-8,-17,-36,-97
-24,-63,-40,44,8,-51,14,63,-5,-13,-35,-115
-10,-47,-37,29,14,-42,15,57,-1,-10,-39,-113
-14,-46,-32,30,9,-38,11,52,-1,-5,-56,-131
-18,-49,-30,33,6,-39,10,49,11,-8,-65,-147
42,8,-35,-24,38,-13,10,44,16,-13,-56,-137
34,1,-33,-17,34,-16,5,40,8,-20,-53,-135
8,-19,-27,6,18,-23,0,35,5,-25,-46,-130
20,-3,-23,-8,21,-13,-4,35,0,-20,-42,-125
19,1,-18,-10,19,-9,-10,34,-5,-21,-36,-128
25,11,-14,-18,19,-1,-12,30,-5,-18,-36,-131
9,0,-9,-5,9,-4,-23,30,-5,-34,-59,-132
17,13,-4,-14,10,4,-41,28,-5,-52,-62,-129
29,35,7,-32,11,21,-39,24,-5,-49,-49,-126
37,40,3,-38,16,21,-41,22,-5,-50,-42,-123
77,47,-29,-62,53,9,-45,19,-5,-50,-37,-121
84,49,-35,-67,59,7,-45,16,-5,-50,-35,-118
59,51,-8,-55,34,21,-43,14,-5,-46,-30,-113
53,49,-4,-50,28,22,-34,10,-5,-39,-27,-107
69,63,-7,-66,38,28,-28,10,-5,-35,-23,-103
74,64,-10,-69,42,26,-21,10,-5,-29,-20,-96
66,58,-8,-61,37,25,-14,10,-1,-24,-20,-91
52,55,3,-54,24,29,-9,10,5,-19,-17,-101
36,48,12,-42,12,29,-3,12,10,-11,-14,-89
58,90,32,-74,13,61,3,20,15,-4,-15,-71
55,92,37,-74,8,65,9,24,22,1,-11,-65
50,101,51,-75,-1,76,-11,38,24,17,-5,-55
87,146,58,-117,14,102,-44,27,18,24,0,-50
95,119,24,-108,36,71,-55,6,11,12,7,-51
94,103,9,-99,42,55,-49,2,5,1,9,-50
94,95,1,-94,46,47,-40,-3,-2,-10,2,-51
76,73,-2,-75,39,35,-34,-7,-8,-19,-3,-50
50,62,12,-57,19,37,-24,-13,-15,-27,-16,-50
30,49,19,-40,5,34,-21,-15,-20,-35,-38,-60
16,44,29,-30,-7,36,-18,-26,-27,-43,-53,-67
-7,34,41,-14,-25,38,-15,-29,-23,-41,-49,-64
-28,27,55,1,-42,41,-13,-32,-27,-39,-58,-64
12,60,48,-36,-18,54,-7,-28,-23,-41,-74,-60
26,70,43,-49,-9,56,-16,-31,-26,-34,-66,-59
-8,36,44,-14,-26,40,-10,-29,-30,-36,-69,-59
5,33,28,-19,-12,30,-16,-38,-28,-34,-60,-52
-34,29,63,2,-49,46,-2,-45,-28,-43,-63,-55
-36,23,59,6,-48,41,-12,-26,-14,-37,-58,-44
-25,-5,19,15,-22,7,6,-18,-14,-38,-73,-72
50,-46,-96,-2,73,-70,131,331,336,181,-11,-64
154,21,-133,-87,143,-55,237,523,676,617,251,62
381,217,-164,-299,273,26,-272,-148,336,811,646,373
831,508,-323,-669,577,92,-1534,-1258,-349,1024,1401,1010
745,757,12,-751,366,384,-2106,-2131,-1234,624,1688,1440
527,779,252,-654,138,515,-1737,-2032,-1610,-339,1194,1436
558,641,83,-600,237,362,-1281,-1374,-1140,-402,954,1337
318,489,171,-404,73,330,-818,-873,-670,-183,693,1022
75,319,243,-197,-84,281,-459,-503,-404,-213,247,550
-23,202,225,-90,-124,213,-232,-312,-259,-218,-25,171
-90,135,225,-23,-158,179,-87,-181,-165,-212,-135,-16
-130,74,204,28,-167,138,-10,-84,-80,-156,-149,-71
-157,33,191,62,-174,112,55,-38,-42,-140,-170,-106
-143,-34,110,88,-126,38,91,7,-2,-106,-165,-129
-128,-80,48,104,-87,-16,117,42,26,-94,-164,-147
-144,-99,44,122,-94,-27,137,61,44,-97,-166,-145
-142,-111,32,126,-87,-39,132,70,47,-92,-163,-145
-152,-125,26,138,-89,-49,141,89,51,-91,-166,-146
-157,-135,22,146,-89,-57,150,98,60,-89,-164,-144
-140,-125,15,132,-77,-55,152,105,68,-89,-166,-146
-139,-128,11,133,-75,-58,170,115,77,-80,-164,-145
-134,-132,2,133,-68,-64,180,121,87,-77,-165,-156
-139,-128,11,133,-75,-58,196,142,98,-71,-165,-163
-152,-133,19,142,-86,-57,213,157,99,-65,-165,-173
-140,-128,12,134,-76,-58,224,165,114,-60,-171,-185
-139,-132,8,136,-74,-62,240,181,124,-61,-178,-188
-135,-134,1,134,-68,-66,256,199,136,-54,-183,-192
-92,-95,-3,94,-44,-49,283,239,168,-32,-186,-195
-100,-97,3,99,-51,-47,310,270,184,-17,-184,-195
-126,-101,25,113,-75,-38,333,295,210,-9,-189,-197
-123,-84,39,103,-81,-23,356,322,225,0,-190,-201
-139,-81,58,110,-99,-11,375,342,242,9,-191,-199
-131,-66,65,98,-98,-1,397,366,266,24,-193,-203
-125,-56,68,90,-96,6,415,382,277,36,-199,-211
-149,-44,105,96,-127,30,424,385,286,36,-212,-208
-154,-35,119,94,-136,41,429,386,276,31,-219,-205
-173,-25,149,99,-161,62,417,381,267,29,-224,-202
-184,-15,169,99,-176,77,392,354,259,24,-219,-200
-168,-5,163,86,-165,78,337,296,229,21,-213,-198
-158,11,169,73,-163,89,271,234,196,16,-207,-194
-113,33,146,40,-130,89,211,178,152,-1,-209,-195
