I,II,III,aVR,aVL,aVF,V1,V2,V3,V4,V5,V6
-108,-48,60,78,-84,6,244,526,519,359,23,-73
-150,-57,92,103,-121,17,254,531,522,348,0,-93
-138,-45,93,91,-115,24,273,533,521,326,-20,-107
-153,-41,113,97,-133,36,258,516,485,314,-30,-116
-159,-16,143,87,-151,63,233,456,439,285,-48,-115
-134,-17,117,75,-125,50,209,380,365,225,-40,-113
-134,-63,71,99,-102,3,170,293,278,178,-30,-85
-97,-67,30,82,-64,-18,129,208,205,143,-24,-57
-73,-56,17,64,-45,-19,94,135,127,106,-18,-46
-68,-55,13,62,-40,-21,54,78,61,61,-15,-38
-43,-53,-10,48,-16,-31,34,45,31,25,-9,-35
-15,-55,-40,36,12,-47,35,39,26,14,-6,-30
-20,-72,-51,46,16,-61,35,40,21,16,-1,-25
-28,-77,-49,53,11,-63,35,36,17,20,1,-22
-23,-73,-50,48,14,-61,36,34,12,23,9,-19
-24,-74,-50,49,13,-62,32,35,10,28,20,-16
-27,-77,-50,52,12,-63,30,39,20,30,15,-14
-8,-55,-48,32,21,-51,30,40,30,36,10,-8
23,-16,-39,-3,31,-27,30,43,40,49,5,-5
9,-22,-31,7,20,-26,30,45,49,52,-2,1
7,-55,-61,24,34,-57,30,47,50,44,-3,-8
19,-68,-87,25,53,-77,36,54,49,38,3,-23
17,-54,-71,18,44,-62,36,49,43,30,13,-27
31,-26,-57,-2,44,-41,34,42,35,22,12,-37
4,-49,-53,23,29,-51,35,36,29,16,4,-33
-12,-82,-69,47,29,-75,35,29,22,10,1,-29
18,-82,-100,32,59,-90,35,23,16,9,-7,-31
18,-86,-104,34,62,-95,33,17,11,5,-10,-29
8,-89,-97,41,52,-92,29,14,6,3,-21,-30
0,-93,-93,47,47,-92,27,9,2,-8,-36,-30
-9,-95,-86,52,39,-90,24,7,-4,-18,-32,-29
-15,-96,-81,56,33,-88,21,2,-6,-14,-28,-25
-9,-93,-85,51,39,-89,20,1,-14,-5,-23,-21
-10,-98,-87,54,39,-92,16,7,-19,2,-18,-18
15,-64,-78,25,47,-71,14,13,-11,7,-11,-13
49,-24,-73,-12,61,-49,9,20,-2,19,-3,-10
46,-20,-66,-13,56,-42,14,24,7,25,5,-7
62,3,-59,-33,61,-28,32,42,18,39,12,-4
64,12,-52,-37,58,-20,3,52,37,65,33,-4
113,72,-40,-92,76,16,-62,18,24,62,73,40
150,88,-61,-119,105,13,-101,-30,-10,33,65,61
123,41,-83,-82,103,-21,-108,-65,-44,4,45,51
114,33,-81,-74,97,-23,-74,-47,-49,1,30,45
49,-50,-99,0,74,-74,-32,-29,-52,-28,-21,-7
-1,-117,-116,59,58,-116,-17,-25,-49,-29,-38,-35
-10,-113,-103,62,47,-108,-2,-19,-49,-57,-52,-55
1,-117,-118,58,60,-117,6,-22,-55,-57,-39,-60
-12,-113,-101,62,45,-106,19,-8,-37,-48,-58,-75
3,-123,-127,60,65,-124,31,20,-12,-38,-33,-62
57,-123,-180,33,118,-151,119,359,331,259,53,-50
283,24,-259,-153,271,-117,36,536,701,804,560,222
748,426,-323,-587,535,52,-460,-304,187,947,1394,822
494,687,192,-591,151,439,-879,-1963,-1670,-766,674,794
-193,497,690,-152,-442,594,-979,-2815,-2862,-2354,-695,281
-259,302,561,-22,-411,431,-869,-1960,-1984,-1734,-788,-2
-157,202,359,-23,-258,280,-588,-1020,-1050,-961,-511,-74
-113,48,161,33,-138,104,-251,-466,-497,-470,-277,-65
-36,-46,-11,41,-12,-29,-47,-62,-79,-103,-97,-70
-42,-88,-46,65,2,-67,0,-10,-35,-61,-70,-62
-60,-114,-54,88,-3,-84,20,46,20,-5,-44,-59
-60,-131,-71,96,5,-101,33,62,32,-3,-46,-56
-57,-129,-73,93,8,-101,46,64,46,14,-34,-51
-38,-103,-65,71,13,-84,47,72,52,19,-30,-51
-18,-83,-65,51,24,-73,49,85,63,32,-23,-49
-36,-90,-54,63,10,-72,67,110,93,52,-16,-47
-12,-75,-63,44,26,-69,77,120,110,88,-9,-44
31,-48,-79,8,55,-63,79,147,136,112,2,-45
13,-54,-67,21,40,-61,82,160,159,117,8,-41
6,-51,-57,23,32,-54,87,187,183,148,18,-39
10,-39,-49,15,29,-44,87,211,203,158,25,-41
11,-27,-39,8,26,-33,96,242,251,192,35,-38
-7,-39,-32,23,13,-35,103,278,288,222,42,-51
-27,-49,-22,38,-2,-35,114,308,325,243,46,-67
-18,-34,-17,26,0,-25,147,377,396,293,50,-64
-39,-39,0,39,-20,-20,174,438,451,325,45,-65
-85,-38,47,61,-66,4,202,485,499,356,42,-68
-115,-27,88,71,-101,30,218,517,539,366,34,-92
-132,-17,114,74,-123,48,233,515,541,350,13,-115
-152,-10,143,81,-147,66,257,507,535,339,-15,-115
-154,2,157,76,-156,79,262,500,509,313,-42,-113
-163,-4,160,83,-161,78,250,467,462,280,-52,-106
-180,-27,154,103,-166,63,216,388,397,239,-48,-100
-141,-8,133,74,-137,62,174,297,300,192,-37,-84
-96,14,109,41,-103,61,139,214,220,151,-28,-60
-71,3,74,34,-72,38,108,147,152,117,-23,-33
-63,-25,38,44,-51,6,82,97,93,71,-20,-19
-85,-50,34,67,-59,-8,56,53,53,40,-17,-15
-71,-45,26,57,-48,-9,41,26,30,40,-12,-10
-31,-39,-7,35,-12,-23,39,25,30,36,-10,-6
-14,-35,-21,25,4,-28,36,24,25,33,-2,-3
-6,-26,-20,16,7,-23,33,21,24,31,3,8
-28,-48,-20,38,-4,-34,30,19,19,30,-4,15
-24,-44,-20,34,-2,-32,31,24,21,40,-1,7
-1,-21,-20,11,10,-20,35,40,43,51,4,1
13,-10,-22,-1,18,-16,35,45,52,48,6,-6
28,2,-26,-14,27,-12,35,48,52,45,11,-13
14,-10,-24,-1,19,-17,35,53,57,42,15,-17
5,-28,-33,12,20,-31,35,49,59,40,13,-22
2,-47,-49,23,26,-48,32,44,52,38,7,-27
2,-49,-51,24,27,-49,29,38,43,29,3,-30
10,-32,-42,11,26,-37,26,33,36,21,-1,-25
13,-28,-41,7,27,-34,23,27,29,13,-6,-21
21,-13,-34,-4,28,-23,21,23,23,5,-10,-19
15,-16,-31,0,23,-23,18,19,16,1,-19,-14
-23,-64,-41,43,10,-52,15,17,9,-4,-33,-10
-9,-42,-33,26,13,-37,15,14,3,-6,-35,-12
30,-21,-50,-4,40,-35,12,10,-4,-11,-35,-19
20,-48,-69,15,45,-58,10,10,-9,-14,-39,-26
8,-55,-63,24,36,-59,10,5,-19,-18,-41,-33
-13,-73,-60,43,24,-66,11,2,-23,-37,-40,-39
9,-53,-62,22,36,-57,9,-5,-10,-34,-29,-29
55,10,-45,-32,50,-17,14,0,4,-10,-6,-11
40,29,-11,-34,25,9,32,15,17,3,8,-8
43,23,-19,-33,31,2,41,37,32,18,22,2
62,26,-36,-44,48,-4,39,63,42,26,33,6
68,26,-42,-47,55,-8,5,34,28,27,42,16
143,96,-47,-119,95,24,-55,-6,4,31,77,56
150,107,-43,-128,96,31,-84,-26,-29,-2,73,59
105,59,-46,-81,75,6,-67,-54,-61,-38,52,56
83,33,-50,-58,66,-8,-23,-41,-55,-56,25,33
32,-46,-78,7,55,-61,2,-37,-57,-72,-7,-1
10,-72,-82,31,46,-77,30,-24,-41,-61,-29,-39
-56,-131,-75,94,9,-103,49,-23,-48,-92,-67,-63
-60,-141,-81,101,11,-111,35,-15,-29,-67,-51,-52
-19,-77,-58,48,20,-67,40,4,-39,-79,-56,-51
5,-115,-119,55,62,-117,76,104,52,4,-19,-40
73,-105,-177,16,125,-141,148,476,473,382,114,-40
491,164,-327,-328,409,-81,-106,349,619,920,856,412
806,562,-243,-684,524,159,-642,-898,-420,468,1312,904
185,584,399,-385,-107,491,-925,-2491,-2345,-1607,68,600
-291,386,677,-48,-484,531,-947,-2677,-2725,-2348,-864,151
-175,297,472,-61,-323,384,-773,-1583,-1589,-1400,-661,-15
-126,167,292,-21,-209,229,-448,-815,-863,-805,-426,-71
-91,19,109,36,-100,64,-135,-291,-331,-317,-192,-81
-48,-62,-14,55,-17,-38,2,-23,-68,-90,-90,-74
-35,-85,-50,60,8,-67,1,7,-52,-70,-63,-61
-43,-99,-56,72,7,-78,17,59,-6,-40,-47,-65
-40,-96,-56,68,9,-76,27,52,11,-34,-48,-64
-38,-91,-53,65,8,-72,39,79,53,4,-34,-66
-41,-91,-50,66,4,-71,57,78,50,4,-33,-69
-37,-85,-48,61,6,-66,61,85,65,29,-23,-71
-43,-87,-44,66,1,-66,60,97,74,23,-33,-69
-22,-70,-48,46,13,-58,60,104,83,33,-29,-63
17,-33,-50,8,34,-41,60,118,108,71,-19,-56
12,-38,-49,13,31,-43,60,140,133,88,-13,-49
-7,-61,-54,34,24,-57,63,171,164,107,-3,-42
3,-52,-55,25,29,-53,81,204,199,137,3,-36
6,-49,-55,22,31,-52,107,257,252,177,16,-39
2,-30,-32,14,17,-31,114,294,291,205,26,-46
-21,-16,5,19,-13,-5,128,336,333,241,38,-52
-9,3,12,3,-11,8,146,397,397,287,43,-53
-36,10,47,13,-42,28,157,438,442,307,32,-64
-132,-37,95,84,-113,29,194,491,492,333,24,-92
-110,-15,95,62,-103,40,239,546,544,353,15,-102
-100,9,108,46,-104,58,263,556,545,350,6,-98
-149,-2,147,75,-148,72,266,540,527,341,-6,-108
-153,19,171,67,-162,94,254,520,504,313,-23,-119
-143,27,169,58,-156,98,224,474,455,266,-39,-121
-182,-26,156,103,-169,65,193,382,376,221,-42,-118
-159,-10,149,84,-154,69,165,300,297,190,-33,-86
-88,33,121,27,-104,76,125,224,226,145,-22,-56
-98,-17,80,57,-89,31,87,145,145,94,-13,-44
-91,-45,46,68,-68,0,59,92,77,57,-14,-30
-47,-32,15,39,-31,-8,42,50,36,27,-20,-24
-26,-38,-12,32,-6,-25,30,34,21,9,-24,-21
-43,-76,-33,60,-5,-54,28,36,16,-9,-23,-18
1,-32,-33,16,17,-32,31,33,14,-18,-18,-13
47,22,-24,-34,35,-1,30,31,12,-8,-15,-10
-6,-19,-13,13,4,-16,30,29,8,3,-11,-6
-31,-50,-19,41,-6,-34,30,33,14,12,-7,-5
4,-36,-40,16,23,-38,29,50,28,26,-4,0
11,-51,-62,20,37,-56,25,57,41,33,-6,-2
-3,-73,-70,39,34,-71,25,59,40,27,-11,-31
29,-33,-63,2,46,-48,23,71,34,22,-10,-42
59,0,-59,-29,59,-29,19,69,30,19,-10,-39
47,-8,-55,-19,51,-31,20,59,26,14,-10,-41
22,-28,-50,3,36,-39,16,52,21,9,-10,-40
-1,-48,-47,25,23,-47,12,44,17,5,-10,-40
-2,-45,-43,24,21,-44,9,37,12,0,-15,-37
12,-27,-39,7,26,-33,6,31,7,-4,-15,-32
12,-25,-37,7,24,-30,1,26,4,-9,-16,-29
21,-10,-31,-5,26,-20,1,21,-2,-13,-20,-25
43,-7,-50,-18,46,-28,6,14,-5,-18,-20,-21
10,-58,-68,24,40,-63,10,11,-15,-27,-18,-19
-18,-90,-72,54,27,-81,15,14,-24,-26,-14,-15
-13,-87,-75,50,31,-80,20,18,-17,-19,-10,-11
-18,-84,-67,51,25,-75,24,20,-15,-15,-7,-8
-16,-79,-63,48,24,-71,26,24,-11,-10,-2,-3
-8,-64,-56,36,24,-60,25,25,-7,-7,0,0
19,-33,-52,8,35,-42,24,29,-5,0,10,5
39,-6,-45,-16,42,-25,29,38,14,5,20,15
65,29,-36,-47,50,-3,22,60,38,33,36,25
93,70,-23,-81,58,23,-26,40,34,45,48,34
89,73,-16,-80,52,28,-91,-11,6,18,42,52
105,58,-47,-81,76,6,-116,-40,-33,-18,26,55
122,35,-87,-78,104,-25,-98,-59,-61,-36,20,48
116,32,-84,-73,100,-26,-46,-34,-62,-32,2,37
37,-47,-85,5,61,-66,0,-32,-65,-35,-21,6
-49,-127,-78,88,15,-102,31,-25,-49,-47,-53,-26
-26,-101,-75,64,25,-88,35,-36,-63,-73,-66,-25
-16,-91,-75,54,30,-83,41,-24,-36,-43,-54,-39
-35,-97,-62,66,14,-79,44,-29,-67,-81,-79,-48
-14,-137,-123,75,55,-130,77,145,89,58,-18,-57
81,-91,-172,5,126,-131,156,547,526,464,175,-7
599,224,-376,-411,487,-76,-189,198,507,912,955,510
871,580,-291,-725,580,145,-756,-1221,-718,216,1191,898
148,497,349,-322,-101,423,-1018,-2768,-2593,-1843,-150,513
-274,286,560,-6,-418,422,-1012,-2652,-2635,-2232,-877,101
-91,275,366,-92,-229,320,-749,-1423,-1413,-1224,-590,8
-79,146,225,-34,-152,185,-394,-722,-755,-685,-366,-26
-71,-15,56,43,-63,20,-104,-218,-249,-246,-177,-54
-30,-83,-53,57,11,-67,-3,-11,-61,-89,-109,-60
-25,-93,-68,60,22,-81,12,8,-38,-53,-75,-63
-21,-86,-65,54,22,-75,45,53,12,-24,-66,-62
-30,-94,-64,62,17,-78,45,47,13,-23,-68,-55
1,-59,-60,29,31,-59,54,78,49,7,-52,-54
30,-28,-58,-1,44,-42,57,77,56,18,-42,-49
31,-24,-54,-3,43,-39,61,97,72,38,-26,-46
33,-25,-57,-4,45,-41,67,105,93,38,-19,-42
0,-68,-68,34,34,-68,68,113,110,62,-9,-39
-13,-76,-63,45,25,-69,75,135,129,76,-1,-35
11,-43,-54,16,33,-48,87,169,168,106,9,-32
11,-34,-45,12,28,-40,95,201,193,133,22,-27
16,-21,-37,3,27,-29,100,224,220,156,34,-25
29,-3,-31,-13,30,-17,105,262,263,198,45,-31
30,17,-13,-24,21,2,117,314,317,231,60,-37
12,21,9,-17,2,15,134,365,366,274,66,-44
-26,16,42,5,-34,29,169,429,420,322,65,-49
-45,13,58,15,-52,35,214,496,489,371,67,-52
-82,10,92,36,-87,51,240,547,539,398,63,-54
-136,4,140,66,-138,72,257,570,570,399,61,-59
-149,13,162,68,-156,87,263,560,575,396,37,-83
-162,37,200,63,-181,118,268,550,557,387,13,-89
-183,33,216,75,-200,124,267,539,526,361,16,-82
-184,30,214,77,-199,122,249,487,475,321,15,-77
-172,27,199,72,-186,113,211,402,389,260,15,-71
-150,22,171,64,-161,96,159,305,303,194,15,-63
-122,21,142,50,-132,81,111,215,232,145,10,-42
-92,-2,90,47,-91,43,79,146,143,98,7,-33
-65,-27,38,46,-51,5,59,86,73,51,3,-30
-45,-19,26,32,-35,3,45,40,39,12,0,-24
-16,-10,6,13,-11,-2,33,29,24,3,-5,-21
-37,-53,-16,45,-11,-34,26,30,26,6,-3,-16
-50,-77,-28,64,-11,-52,21,29,23,4,2,-15
-15,-60,-45,38,15,-52,16,31,20,6,5,-10
-22,-54,-31,38,5,-43,10,29,20,4,8,-13
-16,-43,-27,30,6,-35,6,38,22,12,13,-30
-5,-36,-31,21,13,-33,10,49,36,22,15,-30
-12,-41,-29,27,9,-35,14,58,41,20,9,-25
-16,-46,-30,31,8,-38,19,66,39,20,4,-23
-26,-56,-30,41,2,-43,18,59,40,20,-1,-18
-29,-59,-30,44,1,-44,14,52,39,20,-8,-15
-10,-45,-35,28,13,-40,15,46,40,20,-12,-18
1,-33,-34,17,18,-34,15,39,38,16,-18,-23
0,-38,-38,19,19,-38,15,33,31,9,-20,-24
20,-50,-69,15,45,-59,14,30,24,3,-20,-20
6,-69,-75,32,41,-72,10,27,17,-4,-20,-20
-5,-71,-66,39,30,-68,10,25,11,-11,-20,-20
6,-59,-65,27,36,-62,10,22,5,-17,-19,-20
6,-52,-58,23,32,-54,10,19,0,-21,-16,-20
21,-34,-55,7,38,-44,9,24,0,-20,-15,-17
-6,-56,-49,31,22,-52,11,25,-1,-23,-16,-15
-29,-77,-47,53,9,-62,9,27,-4,-24,-15,-15
-23,-65,-43,44,11,-54,12,30,-5,-25,-15,-10
-12,-52,-40,32,15,-46,20,31,-1,-18,-13,-10
17,-19,-36,2,26,-27,17,30,11,-7,-4,-8
27,-3,-30,-11,28,-16,42,47,23,8,-2,2
57,-3,-60,-27,58,-31,75,80,55,50,24,14
111,36,-74,-74,92,-19,24,72,63,64,45,36
134,68,-66,-101,100,1,-79,9,12,38,39,48
126,48,-78,-87,102,-15,-119,-53,-35,-12,26,35
124,27,-97,-75,110,-35,-109,-69,-57,-38,14,36
96,5,-91,-50,93,-43,-60,-49,-50,-40,-6,19
39,-47,-87,4,64,-67,-5,-58,-62,-75,-43,-24
-4,-89,-85,46,41,-87,29,-38,-46,-67,-50,-46
-26,-100,-74,63,24,-87,31,-45,-64,-92,-66,-46
-37,-118,-81,78,22,-99,24,-30,-47,-67,-52,-46
-81,-139,-59,110,-11,-99,28,-28,-45,-93,-82,-69
-43,-156,-113,100,36,-134,44,40,20,-35,-56,-53
21,-130,-150,55,86,-140,156,460,415,320,74,-48
452,111,-341,-281,396,-115,-90,339,549,775,682,326
969,498,-470,-733,719,14,-671,-880,-344,491,1215,829
420,540,120,-480,150,330,-976,-2547,-2230,-1390,187,618
-232,322,554,-45,-394,438,-1006,-2882,-2789,-2301,-789,192
-176,231,407,-28,-291,319,-821,-1716,-1648,-1416,-627,36
-132,126,258,3,-195,192,-477,-882,-874,-793,-404,-8
-106,0,106,53,-106,53,-145,-338,-352,-335,-208,-40
-67,-64,3,65,-35,-30,-3,-36,-68,-110,-107,-60
-71,-90,-19,81,-26,-54,16,-10,-37,-98,-78,-52
-34,-78,-44,56,5,-60,39,37,18,-43,-55,-57
-23,-68,-45,46,11,-56,42,34,13,-42,-52,-54
-22,-69,-47,46,12,-58,50,62,41,-11,-36,-56
-22,-73,-51,48,15,-62,52,58,41,-10,-41,-53
-26,-74,-48,51,12,-61,56,78,56,11,-32,-49
-35,-79,-44,57,5,-62,61,84,67,17,-33,-47
-45,-83,-38,65,-3,-60,63,98,85,36,-25,-43
-52,-87,-35,70,-8,-61,70,127,126,73,-12,-41
-61,-90,-29,76,-16,-60,70,133,145,81,1,-39
-26,-52,-26,39,0,-38,71,160,168,117,14,-36
-23,-43,-20,33,-1,-31,86,188,197,145,18,-35
-27,-42,-15,34,-6,-28,96,232,237,175,41,-34
-4,-13,-9,9,3,-11,119,284,292,215,52,-30
-14,-17,-3,16,-5,-10,137,331,335,252,57,-30
-22,-12,9,17,-15,-2,157,389,398,305,65,-32
-61,-9,52,35,-57,21,191,446,457,331,56,-44
-105,-10,95,57,-100,42,208,490,499,361,50,-69
-128,6,135,61,-132,70,249,537,538,383,42,-79
-146,17,163,64,-155,90,279,568,553,387,34,-74
-163,24,188,69,-176,106,277,570,563,381,28,-76
-213,11,224,101,-219,117,273,544,537,349,21,-72
-210,15,225,98,-218,120,251,478,477,310,18,-70
-177,38,215,69,-196,126,210,389,393,254,14,-70
-176,19,194,78,-185,106,170,292,293,191,10,-65
-140,4,144,68,-142,74,131,220,213,137,7,-54
-76,6,82,35,-79,44,97,153,138,85,3,-24
-49,-10,39,29,-44,14,72,87,82,41,0,-3
-58,-49,10,53,-34,-19,54,48,35,18,0,-6
-17,-46,-29,32,6,-37,41,25,13,3,-2,-4
10,-27,-36,9,23,-31,30,25,16,-2,-6,-6
-3,-32,-29,18,13,-31,24,25,14,6,-5,-4
-1,-28,-27,15,13,-28,21,25,16,11,-1,-5
-30,-50,-20,40,-4,-35,17,24,13,16,0,-5
-45,-67,-22,56,-11,-45,14,27,19,23,0,-5
-37,-64,-27,51,-5,-45,9,53,18,30,0,-6
-36,-66,-30,51,-3,-47,17,59,24,43,1,12
-25,-65,-40,45,8,-52,27,50,50,47,-2,15
0,-65,-65,33,33,-65,25,45,49,37,-5,0
1,-69,-70,34,36,-69,22,37,44,30,-6,-17
-7,-70,-63,39,28,-66,20,29,42,23,-9,-27
-9,-70,-62,40,26,-66,16,22,36,15,-10,-25
-17,-69,-53,43,18,-60,15,16,35,7,-13,-24
5,-71,-76,34,40,-73,12,12,28,1,-16,-21
26,-68,-94,21,60,-81,7,9,17,-7,-14,-19
24,-61,-86,19,55,-73,4,5,8,-14,-16,-23
35,-51,-86,8,61,-68,1,2,3,-21,-14,-31
37,-44,-80,4,59,-62,-4,-2,-3,-25,-17,-31
38,-43,-81,3,59,-62,-6,-6,-7,-27,-20,-27
50,-28,-79,-11,65,-53,-12,-12,-11,-31,-20,-26
33,-52,-84,9,59,-68,-18,-15,-15,-33,-23,-21
17,-84,-101,34,59,-92,-23,-19,-7,-35,-25,-20
20,-83,-103,32,61,-93,-30,-24,1,-30,-25,-16
34,-80,-114,23,74,-97,-19,-15,9,-19,-22,-7
76,-34,-111,-21,94,-72,8,11,15,-10,-12,-1
95,4,-91,-49,93,-43,43,50,32,26,18,7
106,22,-84,-64,95,-31,37,67,56,45,52,29
170,87,-83,-128,126,2,-49,33,39,26,60,54
193,106,-87,-149,139,9,-121,-11,10,16,52,58
146,58,-87,-102,116,-14,-130,-61,-33,-9,36,47
118,25,-92,-72,105,-33,-106,-70,-61,-26,30,46
78,-13,-91,-32,85,-52,-33,-45,-58,-43,1,24
16,-81,-97,33,57,-89,9,-49,-65,-51,-28,-15
-27,-121,-94,75,33,-107,22,-26,-48,-58,-40,-47
-19,-114,-94,67,38,-104,28,-41,-67,-80,-38,-44
-5,-103,-98,54,47,-101,42,-9,-39,-43,-22,-49
-17,-102,-85,60,34,-93,48,-16,-56,-84,-36,-53
10,-98,-109,44,60,-103,89,189,140,95,8,-47
146,-51,-197,-47,172,-124,132,536,552,495,232,34
753,252,-501,-503,627,-124,-282,27,395,836,978,550
948,574,-374,-761,661,100,-824,-1468,-958,-47,1012,856
135,491,356,-313,-111,423,-980,-2845,-2620,-1939,-249,480
-237,337,574,-50,-405,455,-920,-2468,-2388,-2020,-773,156
-124,244,368,-60,-247,306,-688,-1296,-1262,-1101,-522,37
-133,106,239,13,-186,172,-345,-669,-678,-621,-327,-23
-75,-13,62,44,-68,24,-63,-170,-193,-187,-146,-48
-42,-76,-34,59,-4,-55,43,-5,-46,-80,-88,-52
-45,-83,-38,64,-3,-61,57,24,-9,-26,-51,-44
-37,-105,-68,71,16,-86,64,60,31,5,-38,-46
-33,-101,-68,67,18,-84,64,67,35,-7,-26,-39
-31,-91,-60,61,15,-75,64,100,62,29,-18,-41
-29,-88,-59,58,15,-73,57,89,60,40,-22,-33
-26,-78,-51,52,13,-64,57,99,75,52,-14,-44
-24,-73,-49,48,13,-61,49,108,79,50,-16,-55
-24,-68,-44,46,11,-56,56,127,106,65,-8,-44
-15,-61,-45,39,15,-53,85,151,133,103,8,-38
-14,-59,-45,37,16,-52,95,171,155,114,18,-28
-2,-47,-45,25,22,-45,101,207,193,147,39,-27
-12,-58,-46,36,17,-52,100,240,223,186,43,-34
-40,-74,-34,57,-3,-54,104,276,267,195,40,-35
-28,-39,-11,34,-9,-25,131,331,325,254,69,-35
-32,-11,21,21,-26,5,152,371,371,292,74,-35
-26,21,47,2,-37,34,184,434,433,334,77,-35
-37,44,81,-4,-60,62,215,495,490,385,82,-35
-69,61,130,4,-100,95,246,539,540,398,72,-34
-71,78,149,-4,-111,114,274,576,565,416,73,-24
-104,74,178,15,-142,126,290,580,564,411,57,-53
-153,75,229,39,-191,152,304,588,567,404,29,-84
-165,76,241,44,-203,158,280,536,524,382,18,-78
-153,67,220,43,-187,143,245,468,464,321,14,-81
-138,51,188,43,-163,119,213,396,383,258,10,-60
-110,40,150,34,-130,94,176,291,285,192,4,-33
-79,34,113,22,-96,73,136,209,198,134,1,-30
-64,24,87,20,-76,55,90,126,117,95,-8,-27
-31,18,49,6,-40,33,61,84,70,46,-25,-24
-12,9,21,2,-17,15,46,71,31,15,-23,-21
-21,-4,17,12,-19,6,44,59,18,15,-15,-19
4,16,11,-10,-4,13,45,58,22,15,-10,-16
-10,-3,8,6,-9,2,40,50,18,15,-2,-14
-41,-39,2,40,-21,-18,40,45,22,15,4,-15
-30,-31,-1,31,-14,-16,39,41,18,16,2,-15
-12,-30,-17,21,3,-23,35,44,23,20,-1,-15
5,-26,-31,10,19,-28,35,56,42,20,0,-17
8,-21,-30,6,19,-25,35,61,46,20,-5,-26
11,-19,-30,4,21,-24,35,60,44,20,-5,-33
17,-13,-30,-2,24,-21,35,60,45,20,-7,-31
25,-5,-29,-10,27,-17,32,60,45,20,-10,-30
14,-18,-32,2,23,-24,27,60,44,20,-15,-30
2,-33,-35,16,18,-34,24,58,37,19,-23,-30
8,-28,-36,11,22,-31,20,51,32,11,-30,-31
13,-27,-40,7,27,-33,17,47,26,4,-34,-27
18,-22,-40,2,29,-30,13,40,21,-2,-30,-25
24,-22,-46,-1,35,-34,6,35,15,-12,-30,-25
34,-18,-51,-8,43,-34,-1,30,7,-25,-30,-25
4,-42,-46,19,25,-44,-8,23,1,-32,-31,-25
-15,-58,-44,37,15,-51,-16,12,-6,-33,-30,-25
-35,-74,-39,54,3,-56,-23,5,-14,-39,-34,-36
-89,-125,-36,108,-26,-81,-21,7,-24,-45,-51,-55
-74,-107,-33,91,-20,-70,-15,4,-35,-40,-46,-63
-46,-74,-29,60,-8,-51,-9,8,-30,-36,-31,-55
-50,-74,-25,63,-12,-49,-6,1,-5,-32,-19,-45
-21,-43,-22,32,1,-32,5,19,18,-26,-2,-35
28,11,-17,-20,23,-3,-6,48,24,-12,13,-19
66,51,-15,-58,40,18,-76,3,2,1,22,4
71,45,-26,-58,48,9,-125,-41,-34,-11,31,29
62,11,-51,-37,56,-20,-118,-63,-59,-29,38,47
69,-1,-70,-34,70,-36,-89,-60,-53,-47,22,44
15,-46,-60,16,38,-53,-50,-52,-50,-67,-19,-2
-41,-110,-70,76,14,-89,-21,-52,-54,-51,-37,-49
-55,-111,-56,83,0,-83,7,-38,-71,-82,-79,-74
-53,-117,-64,85,5,-90,2,-45,-89,-94,-74,-71
-47,-107,-59,77,6,-83,8,-24,-69,-70,-69,-80
-28,-92,-63,60,18,-77,33,-14,-66,-76,-67,-68
2,-122,-124,60,63,-123,102,267,220,161,-12,-90
198,-5,-203,-97,201,-104,48,507,606,646,390,108
762,363,-398,-562,580,-18,-415,-193,241,896,1293,758
619,638,19,-628,300,328,-826,-1706,-1370,-482,892,890
-184,523,707,-170,-446,614,-887,-2692,-2719,-2221,-568,350
-343,317,661,13,-502,489,-807,-2080,-2130,-1888,-866,30
-215,212,427,1,-321,319,-583,-1096,-1135,-1027,-548,-38
-153,67,220,43,-187,143,-248,-511,-556,-525,-316,-76
-101,-60,41,80,-71,-9,-25,-82,-123,-138,-128,-87
-103,-110,-7,107,-47,-58,11,-9,-56,-81,-98,-84
-80,-126,-46,103,-17,-85,28,32,-11,-34,-79,-85
-76,-125,-49,100,-13,-86,38,62,11,-15,-75,-85
-66,-126,-59,96,-3,-92,33,55,16,0,-68,-85
-74,-123,-49,99,-12,-86,37,79,35,11,-60,-82
-73,-102,-29,88,-22,-65,34,75,34,29,-55,-76
-55,-86,-31,70,-11,-58,35,85,53,49,-48,-72
-54,-83,-29,68,-12,-55,35,104,74,47,-41,-68
-48,-79,-31,64,-9,-55,34,117,88,73,-29,-62
-46,-76,-29,61,-8,-52,36,126,106,91,-21,-60
-40,-71,-31,55,-4,-51,44,156,140,102,-8,-60
-31,-72,-40,52,5,-56,55,187,166,141,7,-60
-35,-76,-41,56,3,-58,73,221,208,171,19,-60
-42,-71,-29,57,-6,-50,89,265,256,198,28,-60
-39,-59,-21,49,-9,-40,100,305,298,252,42,-61
-40,-48,-8,44,-16,-28,121,354,355,287,48,-56
-66,-37,29,51,-47,-4,149,406,407,315,43,-59
-103,-28,74,66,-88,23,164,444,440,345,39,-65
-124,-16,108,70,-116,45,197,479,481,352,35,-87
-142,-9,134,75,-138,62,226,501,503,350,18,-104
-166,-3,163,85,-164,79,234,497,497,351,-10,-118
-189,-3,186,96,-188,92,238,471,470,317,-36,-129
-199,2,201,98,-200,102,221,429,420,263,-57,-117
-178,11,189,84,-184,100,204,372,372,227,-57,-114
-169,-11,157,90,-163,73,176,298,303,184,-40,-99
-137,-13,124,74,-130,56,135,220,222,139,-24,-72
-102,-11,91,57,-97,40,101,148,155,100,-19,-60
-89,-34,54,62,-71,10,77,91,105,54,-21,-49
-82,-62,20,72,-51,-21,62,50,56,19,-20,-41
-67,-56,10,61,-38,-23,47,28,25,14,-20,-39
-31,-24,7,27,-19,-8,41,12,26,15,-20,-40
-46,-46,0,46,-22,-23,34,8,24,15,-18,-39
-52,-56,-4,54,-24,-30,27,16,21,15,-15,-23
-34,-45,-11,39,-11,-28,21,21,19,15,-12,-18
-30,-43,-12,37,-9,-27,15,27,23,20,-9,-31
-11,-35,-24,24,6,-29,21,34,38,20,-6,-37
5,-36,-40,16,23,-38,31,38,41,21,-4,-35
6,-34,-40,15,23,-37,33,41,47,25,-13,-31
4,-35,-40,15,23,-37,29,44,47,25,-18,-28
8,-35,-42,14,25,-38,30,47,41,23,-14,-23
14,-35,-49,11,32,-42,30,50,40,16,-15,-20
21,-34,-55,7,38,-44,30,49,35,9,-11,-16
25,-29,-55,3,40,-42,30,42,32,3,-9,-15
27,-29,-55,1,41,-42,25,36,28,-4,-10,-15
31,-23,-54,-4,43,-39,21,29,21,-10,-9,-15
32,-23,-56,-4,44,-39,18,22,14,-15,-11,-14
35,-17,-52,-9,43,-34,15,16,8,-18,-9,-17
25,-20,-45,-2,35,-32,10,11,1,-23,-17,-22
8,-29,-37,10,23,-32,12,9,-4,-25,-27,-21
30,-2,-32,-13,31,-17,16,6,-8,-25,-23,-17
29,-6,-35,-12,32,-20,15,4,-12,-25,-21,-15
20,-22,-43,1,32,-32,19,1,-16,-24,-17,-11
42,-14,-56,-14,50,-35,21,0,-19,-25,-15,-10
71,8,-62,-40,67,-27,19,13,-6,-13,-11,-3
99,36,-63,-67,80,-14,26,16,3,-1,6,12
97,30,-66,-63,81,-18,39,46,24,17,28,26
110,46,-64,-77,87,-9,33,68,55,39,45,45
146,80,-65,-112,105,7,-33,15,25,40,54,67
165,99,-66,-131,115,16,-108,-37,-5,19,49,73
152,89,-63,-120,107,13,-106,-63,-31,-25,39,77
137,58,-80,-97,108,-11,-71,-58,-47,-27,37,73
84,6,-77,-45,80,-35,-29,-52,-57,-55,-3,27
25,-61,-85,18,55,-72,21,-54,-63,-65,-24,-12
11,-84,-95,36,53,-89,49,-44,-58,-68,-48,-32
11,-86,-96,38,53,-91,42,-54,-78,-81,-48,-32
-10,-93,-83,52,36,-87,42,-35,-53,-70,-57,-52
-24,-107,-83,66,30,-95,43,-26,-58,-81,-54,-42
40,-91,-131,26,86,-111,129,285,236,172,21,-53
247,18,-229,-132,238,-105,110,557,641,649,389,123
789,377,-411,-583,600,-17,-388,-141,312,973,1285,747
738,641,-96,-690,417,272,-872,-1752,-1330,-350,947,890
-55,461,516,-203,-286,489,-989,-2845,-2798,-2193,-472,398
-235,307,542,-36,-389,424,-904,-2167,-2175,-1858,-758,96
-117,217,334,-50,-226,275,-619,-1135,-1142,-1004,-494,3
-128,75,203,26,-166,139,-263,-560,-591,-558,-306,-42
-50,-10,40,29,-45,15,-29,-102,-131,-153,-118,-58
-35,-65,-30,51,-3,-47,34,-7,-41,-79,-71,-53
-8,-51,-43,30,18,-47,46,33,6,-27,-39,-49
-11,-65,-54,38,22,-59,55,57,6,-16,-41,-49
-27,-84,-57,56,15,-70,55,71,19,2,-33,-43
-27,-77,-50,53,11,-63,61,86,55,17,-27,-44
-26,-77,-51,52,13,-64,69,83,76,35,-23,-37
-3,-73,-70,38,34,-71,76,95,99,54,-16,-35
-31,-95,-63,63,16,-79,76,86,93,47,-9,-49
-5,-61,-56,33,25,-58,80,127,120,74,4,-37
35,-14,-49,-10,42,-32,80,155,140,113,11,-22
17,-19,-36,1,27,-27,91,180,174,137,29,-26
7,-22,-29,8,18,-25,103,213,208,154,40,-27
-11,-29,-18,20,4,-23,102,239,234,187,40,-31
-31,-41,-11,37,-10,-26,113,275,282,210,38,-31
-27,-29,-1,28,-13,-15,133,325,332,241,45,-36
-30,-12,19,21,-24,3,149,387,388,301,56,-40
-37,-6,31,21,-33,12,176,436,442,330,52,-44
-53,4,57,24,-55,30,209,492,491,356,47,-56
-84,10,94,37,-89,52,235,535,536,386,43,-64
-104,20,124,41,-114,72,260,548,541,380,37,-75
-152,1,154,75,-153,77,270,541,527,354,14,-92
-184,-5,179,94,-181,87,270,523,514,328,-18,-93
-155,35,190,59,-173,113,270,491,479,314,-27,-83
-138,45,183,46,-161,114,240,420,423,264,-24,-75
-142,28,170,57,-157,99,186,331,333,196,-21,-65
-119,1,121,59,-120,61,142,238,230,149,-18,-60
-81,-8,73,44,-76,32,101,155,154,97,-15,-49
-39,1,39,19,-39,20,73,102,103,54,-14,-27
-15,-3,11,9,-13,4,52,56,52,22,-10,-14
-8,-11,-2,10,-3,-6,35,17,17,3,-10,-16
14,-18,-31,2,23,-24,25,9,15,-11,-8,-14
18,-25,-42,4,30,-33,12,11,15,-22,-4,-10
6,-33,-39,13,23,-36,8,9,15,-20,-6,-10
0,-38,-38,19,19,-38,10,10,15,-14,-1,-8
0,-35,-35,18,18,-34,10,9,15,-9,3,-4
11,-23,-34,6,23,-28,10,15,21,-3,8,-5
14,-29,-43,8,29,-36,10,25,27,2,9,-5
12,-48,-60,18,37,-54,10,33,34,8,4,-5
17,-43,-60,13,39,-51,5,32,41,20,-1,-5
13,-47,-60,17,37,-53,5,27,43,32,-5,-9
17,-43,-61,13,40,-51,4,24,38,28,-10,-14
13,-46,-59,16,37,-52,-1,20,35,17,-14,-16
-11,-72,-61,41,25,-66,1,16,32,10,-19,-21
-2,-61,-60,32,29,-60,-3,13,27,0,-25,-23
2,-59,-61,28,31,-60,-7,9,25,-8,-31,-28
4,-61,-65,29,34,-62,-12,5,14,-12,-35,-33
5,-60,-65,28,35,-62,-14,3,-8,-18,-43,-39
-10,-78,-68,44,29,-73,-11,-2,-24,-21,-55,-50
-10,-81,-71,45,31,-76,-6,-5,-25,-27,-51,-45
-11,-80,-68,45,29,-74,-4,-10,-26,-30,-45,-40
0,-81,-81,41,40,-81,1,-18,-24,-24,-40,-35
10,-78,-88,34,49,-82,6,-23,-25,-18,-33,-28
15,-58,-74,22,45,-66,2,-29,-23,-13,-29,-24
27,-37,-64,5,46,-50,1,-19,-15,-7,-23,-19
41,-22,-64,-9,53,-43,-2,-15,12,-2,-21,-17
45,-23,-68,-11,57,-46,27,10,52,3,-9,-4
90,9,-80,-49,85,-35,41,54,66,19,24,18
126,47,-79,-86,102,-16,-40,23,37,31,28,31
92,11,-80,-51,86,-34,-124,-32,-10,8,25,36
120,29,-91,-75,106,-30,-130,-69,-40,-32,15,39
153,60,-93,-106,122,-16,-104,-75,-48,-40,14,49
91,8,-83,-49,87,-37,-65,-54,-42,-42,-1,28
25,-56,-81,16,53,-68,-3,-59,-51,-59,-31,-16
-9,-82,-73,45,32,-77,30,-38,-36,-58,-38,-44
-12,-82,-69,47,29,-75,23,-52,-56,-85,-47,-43
-1,-83,-82,43,40,-82,26,-28,-33,-51,-29,-48
-34,-108,-75,71,21,-91,26,-43,-48,-93,-56,-53
-6,-128,-122,68,58,-124,76,115,91,43,-14,-49
124,-53,-177,-35,151,-115,147,534,517,440,151,-19
630,252,-379,-441,504,-63,-194,221,535,878,886,452
978,601,-377,-789,678,112,-766,-1152,-611,328,1234,877
295,527,232,-411,31,379,-1026,-2725,-2488,-1666,4,570
-238,311,549,-37,-394,430,-1008,-2689,-2623,-2177,-758,187
-128,248,376,-60,-252,312,-777,-1471,-1429,-1243,-539,47
-113,135,248,-11,-181,191,-424,-760,-789,-731,-369,-21
-111,-12,99,62,-105,43,-126,-250,-277,-279,-175,-56
-56,-67,-11,61,-22,-39,7,-5,-47,-106,-98,-68
-21,-65,-43,43,11,-54,33,28,-23,-67,-69,-62
-27,-86,-59,57,17,-73,44,70,20,-22,-53,-67
-34,-86,-51,60,9,-69,42,70,25,-16,-51,-64
-13,-82,-69,48,28,-75,49,101,47,10,-37,-66
-7,-81,-74,44,34,-77,50,102,41,11,-35,-60
-12,-79,-66,46,27,-72,57,128,72,41,-23,-51
-19,-81,-62,50,21,-71,67,139,89,49,-16,-42
-23,-79,-56,52,16,-67,73,153,114,60,-4,-36
-29,-81,-52,55,11,-66,75,182,138,84,5,-40
-32,-79,-47,56,8,-63,75,194,151,116,14,-40
-38,-81,-43,60,3,-61,75,213,183,138,22,-40
-49,-69,-20,60,-15,-45,76,250,213,155,30,-40
-47,-47,1,47,-24,-23,95,288,251,193,37,-40
-46,-35,10,40,-28,-12,121,340,306,233,47,-40
-46,-27,19,36,-32,-4,141,404,359,269,60,-41
-49,-18,31,33,-40,6,171,463,416,323,63,-40
-73,-11,63,42,-68,26,205,525,480,366,61,-41
-112,-5,107,58,-109,51,243,578,533,383,59,-56
-153,0,153,76,-153,76,267,611,553,388,61,-68
-195,8,203,93,-199,105,279,613,543,377,48,-82
-233,7,240,112,-237,124,289,607,531,368,18,-85
-235,8,242,113,-239,125,276,585,526,342,7,-75
-249,-15,233,132,-241,108,258,513,467,300,3,-70
-270,-43,227,156,-249,92,235,425,379,254,-3,-62
-221,-30,191,125,-206,81,192,328,290,185,-8,-57
-165,-26,140,95,-152,57,135,228,193,119,-14,-48
-125,-14,111,70,-118,48,81,146,119,70,-15,-32
-81,-13,68,47,-75,27,57,91,62,31,-15,-23
-69,-39,29,54,-49,-5,50,53,29,-1,-15,-24
-63,-46,17,54,-39,-14,42,30,9,-24,-16,-28
-54,-46,8,50,-30,-19,34,30,-10,-25,-14,-30
-39,-41,-2,40,-18,-22,27,30,-17,-26,-17,-34
-39,-72,-33,56,-3,-52,24,30,-11,-31,-27,-35
-26,-75,-49,51,12,-61,25,30,-4,-24,-25,-32
4,-38,-42,18,23,-40,25,30,2,-16,-20,-29
-1,-42,-41,22,20,-42,25,33,9,-8,-18,-26
6,-31,-37,13,22,-34,25,36,20,2,-13,-23
4,-30,-35,13,20,-32,19,49,36,13,-10,-20
18,-20,-38,1,28,-29,17,55,43,18,-14,-21
18,-22,-40,2,30,-31,9,56,38,14,-21,-28
-25,-66,-40,46,8,-53,18,61,35,12,-26,-30
-11,-50,-39,30,15,-44,42,55,32,9,-30,-30
10,-31,-41,11,26,-36,38,45,27,6,-30,-30
-6,-44,-38,25,17,-41,32,37,25,4,-30,-30
-8,-56,-47,32,20,-51,29,27,18,-1,-30,-30
1,-65,-66,33,34,-65,23,19,10,-8,-30,-29
3,-66,-69,32,36,-68,20,14,1,-14,-34,-25
5,-69,-74,32,39,-71,15,15,-5,-20,-42,-25
-2,-75,-73,39,36,-73,12,14,-18,-29,-45,-23
-9,-72,-63,41,27,-68,9,16,-31,-31,-38,-20
-8,-65,-56,37,24,-60,5,15,-23,-27,-35,-21
-7,-55,-48,31,21,-51,0,20,-15,-23,-29,-19
-6,-47,-41,27,17,-43,3,22,-7,-22,-27,-21
-1,-42,-41,22,20,-41,12,17,-1,-13,-10,-17
40,1,-39,-20,39,-19,35,52,22,25,20,2
67,22,-45,-45,56,-11,45,83,48,53,38,22
87,31,-55,-58,71,-12,-15,54,44,49,45,34
108,45,-63,-77,85,-8,-100,1,15,29,43,43
96,28,-68,-62,82,-20,-130,-34,-36,-2,30,37
99,28,-71,-63,84,-21,-114,-45,-55,-18,25,37
68,-10,-78,-28,73,-44,-69,-32,-44,-21,9,31
1,-73,-74,36,38,-73,-23,-41,-57,-46,-22,-13
-50,-107,-57,79,4,-82,9,-23,-36,-47,-39,-55
-73,-123,-50,99,-11,-86,19,-34,-55,-73,-53,-57
-60,-118,-58,89,-1,-88,20,-17,-34,-47,-29,-51
-82,-122,-40,102,-21,-80,27,-15,-49,-70,-52,-62
-29,-120,-90,75,31,-105,51,75,30,6,-19,-55
68,-89,-157,11,113,-123,157,504,470,364,107,-40
520,154,-366,-337,443,-105,-106,328,583,830,746,377
994,516,-478,-755,736,19,-736,-958,-396,493,1241,855
422,527,105,-474,158,316,-1014,-2603,-2272,-1417,168,617
-217,333,550,-59,-383,441,-1000,-2830,-2730,-2233,-764,204
-172,242,414,-35,-293,328,-840,-1650,-1590,-1337,-603,42
-138,123,262,7,-200,192,-487,-860,-862,-756,-405,-41
-94,21,115,36,-105,67,-149,-316,-332,-311,-208,-78
-36,-23,12,29,-24,-5,-4,-6,-54,-80,-99,-59
-57,-72,-15,65,-21,-43,13,5,-47,-53,-73,-47
-24,-65,-40,45,8,-53,39,48,14,-4,-55,-50
-50,-88,-38,69,-6,-63,39,48,21,-12,-54,-43
-55,-102,-47,78,-4,-74,45,76,47,10,-42,-43
-9,-70,-61,40,26,-65,57,83,55,26,-39,-39
-24,-79,-55,52,15,-67,53,93,72,40,-30,-37
-28,-80,-52,54,12,-66,59,111,92,47,-24,-34
-39,-86,-47,63,5,-66,60,115,101,56,-18,-35
-26,-63,-38,45,6,-50,60,134,117,80,-11,-35
-4,-31,-27,18,12,-29,65,165,154,121,7,-35
4,-14,-17,5,11,-15,74,185,184,133,26,-34
11,3,-8,-7,10,-2,87,219,216,154,36,-29
-5,-4,0,5,-2,-2,109,259,255,196,47,-26
-2,7,8,-3,-5,7,130,311,308,241,58,-23
-41,-19,22,30,-31,1,142,355,358,270,52,-19
-50,-4,46,27,-48,20,179,413,416,308,69,-15
-18,61,78,-21,-49,69,221,503,500,371,90,-21
-60,53,113,3,-87,83,248,554,546,405,77,-34
-94,55,149,19,-122,102,272,582,575,414,68,-44
-131,56,187,37,-159,121,289,585,579,402,56,-61
-170,53,224,58,-198,138,300,586,568,389,40,-68
-186,55,242,66,-214,148,290,568,551,366,24,-60
-195,42,238,76,-217,140,277,511,493,332,15,-54
-188,44,232,71,-210,138,248,418,410,285,14,-47
-212,-9,202,110,-207,96,200,304,314,214,10,-41
-171,-17,154,94,-162,68,149,232,228,160,7,-35
-71,36,107,17,-89,71,106,167,147,110,5,-30
-53,-1,53,27,-53,26,76,98,84,66,3,-27
-39,-18,21,28,-30,1,48,53,46,39,-2,-23
-35,-19,16,26,-25,-1,30,31,9,6,-7,-20
-48,-35,13,41,-30,-11,19,21,-8,-14,-11,-14
-57,-50,8,53,-33,-21,5,18,-12,-14,-16,-19
-58,-59,-2,59,-28,-30,-6,20,-20,-8,-29,-31
-17,-31,-14,24,-1,-22,-4,21,-1,-1,-29,-30
-9,-34,-25,22,9,-30,0,35,25,5,-21,-26
-3,-36,-34,20,16,-35,3,40,34,13,-19,-24
-8,-46,-38,27,15,-42,8,42,35,19,-13,-20
0,-40,-40,20,20,-40,11,45,34,17,-10,-20
5,-49,-54,22,29,-51,14,49,35,14,-15,-24
-8,-75,-67,42,29,-70,16,54,35,11,-15,-27
18,-47,-65,15,42,-55,20,50,33,8,-16,-31
22,-43,-65,11,44,-54,18,47,26,5,-20,-35
18,-47,-65,15,42,-56,14,45,19,4,-20,-33
21,-43,-64,11,43,-54,16,41,13,-2,-20,-29
21,-46,-68,13,45,-57,11,40,5,-10,-20,-27
17,-55,-72,20,45,-63,10,36,0,-16,-20,-24
18,-59,-77,21,48,-68,9,29,-7,-23,-20,-21
30,-49,-79,10,55,-64,5,23,-14,-29,-19,-20
28,-47,-76,10,52,-61,0,15,-22,-34,-21,-25
32,-39,-71,4,52,-55,-4,9,-29,-35,-24,-28
32,-36,-69,2,51,-52,-8,5,-36,-35,-30,-33
25,-39,-65,7,45,-52,-15,-2,-37,-34,-28,-39
16,-44,-61,14,39,-52,-10,0,-27,-35,-24,-31
21,-37,-58,8,40,-47,6,11,-22,-33,-26,-18
79,25,-54,-51,66,-14,41,45,11,0,0,-7
117,61,-56,-89,86,3,53,77,40,34,32,11
110,55,-55,-82,82,0,14,66,35,35,42,27
134,80,-55,-106,94,12,-60,23,4,28,43,46
158,86,-72,-122,115,7,-121,-26,-32,13,34,52
155,78,-77,-116,116,0,-116,-57,-63,-30,20,37
125,48,-76,-86,100,-14,-83,-52,-79,-49,13,28
39,-33,-72,-2,56,-52,-33,-47,-93,-60,-29,6
3,-75,-78,37,41,-76,2,-45,-91,-52,-42,-11
-22,-94,-72,58,25,-82,22,-35,-86,-80,-61,-43
-52,-130,-78,92,13,-104,24,-41,-99,-97,-72,-54
-57,-136,-79,97,12,-107,29,-22,-74,-78,-68,-65
-48,-135,-88,92,20,-111,42,-11,-73,-96,-62,-57
16,-129,-145,57,81,-137,124,312,236,171,31,-55
235,-17,-252,-109,244,-134,97,543,588,578,333,90
851,320,-531,-585,690,-105,-412,-188,229,781,1076,635
853,572,-281,-712,566,145,-895,-1787,-1311,-410,818,787
5,421,416,-213,-206,418,-995,-2955,-2785,-2144,-470,363
-263,254,517,4,-391,385,-917,-2313,-2248,-1893,-770,82
-125,207,333,-41,-229,270,-652,-1196,-1168,-1016,-488,-12
-109,87,196,11,-153,141,-286,-579,-592,-549,-290,-53
-55,-27,29,41,-42,1,-42,-112,-149,-163,-122,-69
-47,-83,-36,66,-5,-60,19,-24,-71,-92,-81,-64
-44,-93,-49,69,3,-71,42,7,-18,-40,-56,-65
-26,-87,-60,57,17,-73,48,44,16,-21,-50,-66
-26,-86,-60,56,18,-73,53,51,24,-15,-34,-64
-24,-84,-60,54,18,-71,61,74,52,-7,-26,-61
-19,-79,-60,49,21,-69,59,89,56,4,-22,-59
-9,-69,-60,39,26,-64,61,112,69,28,-16,-60
-3,-63,-60,33,29,-61,59,105,77,39,-13,-54
0,-53,-53,27,27,-53,60,119,96,57,-7,-56
-9,-53,-45,31,18,-48,60,138,119,70,-4,-52
-19,-56,-37,38,10,-47,62,154,145,98,4,-46
-26,-53,-27,40,1,-40,70,185,168,114,11,-41
-40,-57,-18,49,-11,-37,74,226,204,148,26,-36
-34,-42,-7,38,-13,-24,79,265,251,193,47,-30
-22,-15,7,19,-14,-4,108,316,308,230,60,-26
-24,-1,24,12,-23,11,142,375,370,274,69,-30
-49,-6,43,27,-46,18,165,440,432,316,83,-33
-65,26,91,20,-79,58,192,506,490,362,92,-39
-102,54,157,24,-130,105,224,553,529,386,88,-52
-150,30,180,60,-165,105,264,577,556,395,83,-56
-168,29,197,69,-183,113,287,586,568,388,61,-69
-225,8,233,109,-229,120,284,585,548,373,37,-75
-241,15,257,113,-249,136,268,543,500,341,24,-68
-216,36,252,90,-235,144,231,463,431,292,10,-65
-206,12,218,97,-212,114,185,364,341,238,4,-60
-160,1,161,80,-161,81,141,260,255,163,-1,-56
-130,-23,107,76,-118,42,103,180,175,107,-5,-51
-101,-23,78,62,-89,27,77,114,107,65,-10,-44
-40,0,40,19,-40,20,57,64,53,31,-15,-37
-28,-14,14,21,-21,0,47,44,14,14,-12,-33
-43,-32,11,37,-27,-10,43,42,9,9,-9,-27
-34,-29,5,31,-19,-12,37,39,11,10,-6,-21
-30,-31,0,30,-15,-15,31,34,10,10,-3,-16
-23,-29,-6,26,-8,-17,26,30,10,10,-1,-11
-23,-35,-12,29,-6,-23,29,32,10,10,2,-10
-18,-43,-25,31,4,-34,30,37,17,18,5,-8
4,-40,-43,18,24,-41,30,40,26,33,5,-4
8,-39,-47,16,27,-43,35,44,34,37,5,-6
10,-35,-45,13,28,-40,35,49,45,31,5,-22
9,-36,-45,14,27,-40,34,48,52,26,5,-34
-8,-48,-41,28,17,-44,29,41,42,20,1,-35
-11,-50,-39,30,14,-45,23,36,34,15,-6,-34
-8,-51,-43,30,17,-47,20,30,25,4,-13,-39
-12,-65,-52,39,20,-58,15,25,15,-14,-19,-46
-8,-56,-49,32,21,-52,10,19,9,-28,-26,-40
1,-51,-52,25,26,-52,10,12,3,-30,-29,-32
4,-72,-76,34,41,-74,10,6,-1,-30,-25,-27
2,-76,-78,37,41,-77,10,-2,-7,-30,-25,-17
-1,-71,-70,36,34,-70,10,-6,-13,-29,-25,-18
-3,-70,-67,36,32,-68,10,-16,-13,-36,-25,-35
-12,-71,-58,42,23,-64,11,-22,-7,-39,-26,-35
-13,-69,-57,41,22,-63,17,-13,-2,-31,-20,-28
-3,-71,-69,38,33,-70,20,-5,2,-26,-15,-26
4,-61,-65,29,35,-63,26,3,7,-22,-9,-19
40,-16,-56,-12,48,-35,22,9,10,-12,-3,-16
68,13,-54,-40,61,-20,35,30,30,5,2,-4
89,33,-56,-61,72,-11,54,51,55,37,31,19
114,61,-53,-87,83,4,9,44,58,52,57,31
130,68,-61,-99,95,3,-73,-3,35,43,69,54
155,78,-77,-116,115,1,-113,-55,-9,12,63,58
149,69,-80,-109,114,-5,-107,-78,-57,-26,43,41
96,14,-82,-55,89,-34,-78,-62,-56,-28,12,25
31,-56,-87,13,59,-71,-22,-55,-64,-56,-26,-10
-16,-97,-82,57,33,-89,22,-44,-56,-51,-40,-49
-58,-115,-57,86,0,-85,34,-43,-61,-61,-61,-71
-43,-116,-73,80,16,-95,27,-44,-64,-48,-35,-59
-49,-113,-64,81,8,-88,29,-27,-38,-51,-44,-77
-16,-119,-103,68,44,-111,36,20,-14,-27,-12,-62
39,-96,-134,29,87,-115,152,393,351,277,79,-55
362,68,-294,-215,328,-113,-8,438,604,713,546,215
1004,449,-557,-727,781,-54,-591,-563,-56,660,1196,764
635,578,-56,-607,345,261,-924,-2180,-1783,-950,460,695
-200,340,540,-70,-371,440,-950,-2869,-2746,-2223,-671,263
-242,236,478,3,-360,356,-835,-1911,-1844,-1560,-683,83
-152,181,332,-15,-242,256,-552,-966,-948,-830,-426,9
-126,43,169,42,-148,106,-218,-419,-420,-385,-238,-35
-86,-72,14,79,-50,-29,-34,-48,-62,-84,-102,-59
-72,-101,-28,87,-22,-64,9,-12,-15,-43,-69,-54
-37,-85,-48,61,6,-67,44,40,37,-1,-57,-55
-31,-87,-55,60,12,-71,45,53,36,-2,-58,-56
-24,-79,-55,52,15,-67,44,60,44,18,-47,-54
-18,-76,-58,47,20,-66,50,81,57,27,-45,-54
-20,-80,-60,50,20,-70,49,93,77,39,-38,-48
-43,-103,-60,73,9,-82,52,101,86,53,-31,-48
-25,-80,-55,52,16,-67,53,118,104,68,-23,-43
2,-43,-45,21,24,-44,58,140,128,81,-14,-41
-8,-43,-35,26,14,-39,59,154,138,95,-8,-39
-10,-37,-27,24,9,-32,64,182,163,121,2,-35
-10,-33,-22,21,6,-27,71,203,189,151,15,-27
-18,-30,-11,24,-3,-20,83,244,230,192,32,-21
-35,-30,5,32,-20,-12,99,296,279,226,50,-15
-56,-27,30,41,-43,2,115,343,333,267,64,-7
-70,-19,51,44,-60,16,139,397,395,309,80,-8
-88,-13,76,50,-82,31,174,466,453,347,84,-17
-116,-6,110,61,-113,52,213,530,514,390,76,-26
-134,1,135,66,-135,68,245,573,556,421,69,-34
-161,14,175,73,-168,94,264,584,557,422,63,-45
-192,29,222,81,-207,125,268,576,543,404,56,-55
-206,32,238,87,-222,135,261,561,534,379,49,-48
-198,26,224,86,-211,125,264,528,513,347,42,-37
-192,22,214,85,-203,117,245,453,440,299,36,-27
-179,17,196,80,-187,106,187,352,346,237,29,-20
-134,13,148,60,-141,80,144,260,262,183,18,-19
-91,6,97,42,-94,52,105,170,172,121,7,-15
-58,-10,48,33,-53,19,71,111,103,70,-5,-12
-45,-41,4,43,-24,-18,57,66,59,43,-14,-10
-37,-54,-17,45,-10,-35,42,43,35,24,-19,-8
-20,-42,-22,31,1,-32,35,45,23,10,-22,-3
-11,-36,-26,24,8,-31,32,39,17,-9,-28,0
-7,-35,-28,21,11,-31,28,38,21,-15,-29,3
-4,-35,-31,19,14,-32,25,34,20,8,-23,8
-1,-35,-34,18,17,-35,20,38,20,34,-17,10
1,-35,-36,18,19,-36,22,48,31,41,-13,5
6,-33,-39,14,23,-36,25,50,36,43,-6,-1
10,-30,-40,10,25,-35,28,50,34,45,-1,-4
13,-29,-42,9,27,-35,31,50,38,40,-3,-9
18,-29,-47,6,33,-37,34,56,40,36,-6,-14
28,-19,-47,-4,38,-33,35,57,39,33,-9,-15
25,-28,-53,2,39,-41,28,49,31,29,-12,-16
13,-46,-58,17,36,-52,21,43,18,26,-17,-2
10,-45,-55,18,33,-50,14,35,7,21,-23,7
-3,-45,-42,24,20,-44,6,27,-1,8,-28,-11
1,-39,-40,19,21,-39,-1,21,-8,-2,-34,-29
12,-57,-70,23,41,-63,-8,15,-14,-6,-39,-37
2,-75,-77,37,40,-76,-17,10,-24,-13,-43,-34
7,-66,-73,30,40,-69,-25,6,-26,-16,-48,-27
1,-75,-76,38,39,-75,-34,1,-36,-29,-49,-41
-6,-80,-74,44,34,-77,-30,-3,-52,-41,-43,-56
22,-54,-76,17,49,-65,-25,-3,-47,-32,-37,-50
33,-42,-74,5,54,-58,-22,5,-45,-29,-33,-46
47,-29,-76,-8,61,-52,-16,9,-40,-22,-25,-42
78,3,-75,-40,76,-35,-15,15,-25,-18,-22,-21
103,28,-75,-65,88,-23,8,50,6,-9,-13,-11
129,53,-76,-91,102,-11,26,73,31,30,6,-4
161,88,-73,-124,117,7,-36,46,15,24,13,35
182,104,-78,-143,130,13,-116,-12,-23,3,28,56
162,93,-69,-127,116,11,-123,-50,-64,-18,22,46
156,70,-86,-113,121,-8,-97,-53,-74,-37,9,54
106,13,-93,-59,100,-40,-51,-46,-68,-44,-6,17
23,-63,-86,20,54,-74,-11,-49,-83,-72,-40,-23
-13,-93,-80,53,34,-86,28,-25,-72,-74,-69,-52
-20,-90,-70,56,25,-80,35,-29,-88,-90,-82,-59
-2,-73,-71,38,35,-72,36,-2,-68,-69,-64,-50
-27,-101,-74,64,23,-87,42,-6,-71,-86,-70,-53
8,-126,-134,59,71,-130,63,123,55,36,-34,-52
105,-75,-179,-15,142,-127,151,519,483,424,144,-19
656,187,-469,-421,562,-141,-193,219,499,867,909,493
1043,605,-437,-824,739,84,-731,-1072,-600,283,1214,943
243,580,337,-412,-47,458,-860,-2466,-2307,-1627,-27,590
-304,319,623,-8,-464,471,-828,-2513,-2524,-2173,-850,132
-163,263,426,-50,-295,345,-685,-1459,-1451,-1287,-638,-17
-133,154,287,-11,-210,220,-387,-750,-763,-725,-401,-54
-81,7,89,37,-85,48,-97,-254,-261,-285,-197,-73
-48,-67,-18,58,-15,-42,15,-24,-49,-100,-104,-67
-37,-85,-48,61,6,-66,27,-6,-30,-71,-72,-64
-31,-83,-52,57,11,-67,45,46,18,-26,-58,-63
-40,-87,-47,63,4,-67,37,49,15,-19,-59,-58
-34,-88,-55,61,11,-71,42,70,45,6,-48,-61
-28,-92,-64,60,18,-77,61,78,58,8,-47,-59
-25,-88,-63,57,19,-75,72,95,81,29,-39,-61
-23,-78,-55,51,16,-67,69,95,94,43,-35,-60
-12,-65,-53,39,21,-59,70,101,111,47,-27,-60
-8,-55,-47,32,20,-51,70,129,134,66,-21,-58
-2,-45,-44,24,21,-44,70,147,156,85,-15,-55
3,-35,-38,16,21,-36,75,172,178,104,-7,-53
5,-25,-31,10,18,-27,77,203,201,136,2,-50
8,-19,-26,6,17,-22,85,236,242,166,12,-47
-4,-22,-18,13,7,-20,103,274,278,198,27,-45
7,-6,-13,0,10,-9,125,328,331,243,47,-49
16,34,18,-26,-1,26,152,393,399,302,58,-53
-15,48,62,-17,-39,55,164,439,446,344,52,-56
-41,50,91,-5,-66,70,185,488,500,364,39,-62
-77,55,132,10,-105,94,227,520,532,380,28,-70
-111,51,161,30,-136,106,251,519,525,368,16,-81
-148,45,193,51,-171,118,263,517,519,344,-2,-81
-179,38,217,70,-198,127,265,501,497,320,-21,-75
-170,35,205,67,-188,120,245,448,441,279,-30,-69
-165,29,194,67,-179,111,204,350,358,227,-30,-64
-135,27,161,54,-149,94,157,262,275,177,-30,-59
-103,14,117,44,-110,66,114,195,197,133,-30,-48
-85,-9,76,47,-80,34,78,119,125,81,-30,-35
-58,-16,42,37,-50,13,60,75,79,37,-30,-26
-60,-42,18,51,-39,-12,46,43,44,13,-24,-25
-49,-53,-4,51,-22,-28,36,20,24,4,-18,-25
-30,-33,-3,31,-14,-17,33,20,25,3,-14,-20
-37,-24,13,30,-25,-5,29,20,24,-1,-7,-20
-28,-18,10,23,-18,-4,26,25,27,-3,-3,-19
-15,-10,5,12,-10,-2,21,24,30,-6,3,-15
-10,-6,4,7,-6,-1,20,34,29,-1,5,-16
8,5,-3,-6,5,1,19,51,34,5,5,-12
-2,-5,-3,4,0,-4,24,49,35,10,8,-10
-30,-48,-18,40,-6,-33,31,50,35,15,10,-9
-30,-63,-33,47,1,-48,25,50,35,22,10,-15
-28,-55,-27,42,0,-41,20,50,35,24,-1,-22
-16,-54,-38,35,12,-46,16,49,33,16,-20,-34
-3,-50,-47,27,22,-48,11,41,23,6,-36,-50
5,-43,-48,19,27,-45,10,34,11,-1,-41,-50
-6,-61,-55,34,24,-58,10,27,0,-14,-40,-50
-17,-70,-53,44,18,-61,10,19,-9,-27,-40,-50
-5,-54,-50,30,23,-52,10,12,-10,-25,-40,-50
-8,-55,-47,32,20,-51,10,6,-10,-24,-39,-48
-11,-55,-44,34,17,-50,10,1,-15,-26,-36,-41
-14,-54,-41,34,14,-47,16,-4,-16,-24,-35,-37
-17,-56,-39,36,12,-47,23,-7,-14,-26,-36,-31
-18,-53,-35,36,9,-44,23,-12,-9,-20,-35,-26
-15,-50,-35,33,10,-42,19,-13,-2,-14,-35,-20
-17,-51,-34,34,8,-42,16,-5,0,-9,-33,-16
-7,-37,-30,22,12,-34,13,7,7,-3,-22,-14
36,6,-30,-21,33,-12,8,12,8,2,-18,-17
72,39,-33,-55,52,3,36,44,29,35,10,-8
98,46,-52,-72,75,-3,56,63,66,51,42,25
135,70,-65,-102,99,2,-19,19,36,30,36,43
140,72,-68,-106,104,2,-106,-40,-5,22,35,38
129,60,-69,-94,99,-5,-113,-80,-45,-14,26,32
136,60,-76,-98,106,-8,-76,-75,-65,-34,27,32
79,4,-75,-41,77,-35,-26,-63,-54,-45,5,4
29,-54,-83,12,56,-68,16,-64,-63,-58,-19,-28
-17,-95,-78,56,31,-87,34,-46,-43,-65,-46,-54
-33,-113,-80,73,24,-96,26,-57,-64,-87,-54,-53
-7,-89,-82,48,38,-85,25,-31,-29,-56,-37,-56
-31,-105,-74,68,22,-89,20,-43,-31,-83,-56,-55
5,-119,-124,57,65,-122,95,187,155,98,-1,-65
138,-50,-189,-44,164,-119,147,521,566,512,230,14
725,269,-456,-496,590,-93,-308,29,427,917,1058,580
964,637,-327,-801,645,155,-836,-1398,-883,80,1159,920
144,531,387,-337,-122,458,-952,-2737,-2547,-1860,-186,524
-297,264,561,16,-429,413,-909,-2444,-2389,-2025,-788,129
-179,186,365,-4,-272,275,-692,-1339,-1294,-1127,-540,-13
-151,73,225,39,-188,149,-345,-693,-691,-637,-339,-46
-95,-51,44,73,-70,-3,-78,-198,-202,-200,-148,-57
-97,-118,-21,108,-38,-69,-2,-53,-66,-95,-103,-56
-65,-116,-51,91,-7,-84,1,-34,-25,-58,-78,-54
-33,-102,-69,68,18,-85,21,16,17,-24,-52,-56
-55,-115,-60,85,3,-87,28,20,24,-19,-43,-54
-51,-113,-61,82,5,-87,44,49,51,2,-35,-54
-55,-110,-55,83,0,-82,49,51,50,7,-31,-49
-52,-102,-50,77,-1,-76,50,71,75,28,-21,-51
-54,-96,-42,75,-5,-69,50,75,77,37,-17,-46
-53,-89,-36,72,-9,-62,50,91,90,54,-9,-44
-53,-82,-29,68,-12,-55,52,117,117,72,0,-46
-52,-76,-24,65,-14,-50,60,147,153,100,11,-39
-53,-70,-16,62,-18,-43,74,184,174,123,25,-38
-56,-65,-9,61,-23,-37,76,214,201,150,39,-32
-63,-66,-3,64,-29,-34,96,260,249,188,50,-31
-72,-61,10,66,-41,-25,117,303,290,224,60,-26
-82,-47,35,64,-58,-6,131,352,347,268,68,-25
-96,-33,62,64,-79,14,154,414,405,314,62,-36
-105,-24,82,64,-93,29,184,474,458,348,54,-39
-138,-19,119,79,-129,50,212,517,499,371,48,-76
-183,-13,170,98,-176,78,234,538,517,378,38,-57
-197,-9,188,103,-193,90,263,542,527,364,25,-128
-203,-1,202,101,-202,100,260,527,513,349,9,-125
-219,-3,216,111,-217,106,251,506,483,321,-8,9
-219,-10,209,115,-214,99,247,453,426,268,-16,0
-211,-20,191,116,-201,85,211,362,337,208,-13,-2
