I,II,III,aVR,aVL,aVF,V1,V2,V3,V4,V5,V6
-262,-124,138,192,-199,7,117,29,719,-35,10,-106
-262,-126,136,194,-198,5,115,31,718,-35,9,-105
-249,-120,129,184,-189,4,116,30,711,-38,5,-105
-259,-120,139,189,-199,9,125,29,708,-41,2,-106
-262,-146,116,204,-189,-15,117,33,704,-43,-4,-103
-278,-158,120,218,-199,-18,136,42,695,-48,-3,-108
-224,-206,18,215,-121,-94,118,190,768,-25,7,-84
-83,17,101,33,-92,59,61,275,976,215,193,47
480,582,102,-531,189,341,-473,173,1206,749,747,580
952,962,10,-957,471,486,-1120,-317,878,786,996,951
438,724,286,-581,76,505,-929,-998,160,72,472,539
-46,165,211,-60,-129,188,-497,-916,-15,-353,20,85
-182,-129,53,155,-117,-38,-186,-341,297,-250,-39,-67
-242,-165,77,204,-160,-44,54,-28,553,-127,-48,-101
-206,-158,48,182,-127,-55,102,51,611,-85,-41,-92
-234,-161,73,197,-154,-43,120,55,614,-73,-40,-103
-232,-160,72,196,-152,-44,120,63,622,-67,-37,-100
-269,-160,109,215,-189,-25,126,66,618,-62,-34,-107
-268,-157,111,212,-189,-22,128,71,625,-56,-32,-103
-260,-148,112,204,-186,-18,132,76,624,-51,-24,-97
-262,-143,119,202,-191,-12,136,80,625,-47,-21,-93
-252,-135,117,194,-184,-9,129,87,629,-42,-14,-88
-252,-129,124,190,-188,-3,131,92,631,-40,-9,-84
-219,-95,124,157,-171,14,130,98,634,-35,-4,-79
-194,-63,131,129,-162,33,130,107,637,-32,5,-73
-190,-59,131,124,-161,36,130,112,639,-27,15,-65
-187,-49,137,117,-162,44,128,131,643,-8,25,-56
-183,-44,139,114,-161,47,123,162,656,13,37,-38
-148,-2,146,75,-147,72,120,183,671,29,58,-17
-118,42,160,38,-139,100,117,202,691,53,88,2
-114,57,170,28,-142,113,113,224,707,80,114,22
-75,101,175,-14,-125,138,109,237,705,103,137,48
-56,119,175,-32,-116,147,106,232,699,113,148,62
-44,131,175,-44,-109,153,101,226,696,108,143,59
-33,142,175,-55,-104,158,98,221,690,107,136,60
-45,130,175,-43,-111,153,95,214,687,103,129,57
-38,131,169,-47,-103,150,90,211,678,101,122,54
-34,123,157,-45,-96,140,92,198,657,98,117,56
-41,104,146,-32,-94,125,95,182,637,70,104,33
-80,55,134,12,-107,94,95,164,615,37,81,2
-125,1,126,61,-125,63,98,138,592,14,55,-16
-125,-5,119,65,-121,57,101,120,566,-1,35,-30
-140,-28,112,84,-126,42,99,110,543,-8,27,-40
-158,-54,104,106,-131,25,96,97,532,-18,19,-52
-152,-54,97,103,-124,21,94,88,524,-27,11,-63
-158,-64,95,111,-126,15,95,85,515,-34,4,-65
-158,-63,95,110,-126,16,95,82,506,-35,-1,-65
-154,-59,95,106,-125,17,95,79,497,-35,1,-68
-156,-61,95,108,-125,16,97,75,491,-35,-3,-71
-151,-56,95,103,-123,20,100,75,484,-35,-5,-69
-149,-55,94,102,-121,19,103,80,476,-36,-5,-66
-144,-55,90,99,-117,17,106,80,469,-40,-9,-65
-140,-50,90,95,-115,20,109,80,462,-40,-10,-65
-140,-50,90,95,-115,20,110,80,459,-43,-10,-65
-139,-50,90,95,-115,20,110,80,460,-45,-10,-65
-141,-51,90,96,-116,20,110,78,459,-45,-10,-68
-135,-49,86,92,-111,18,110,74,460,-48,-11,-70
-129,-49,80,89,-104,15,110,72,460,-53,-16,-70
-110,-35,75,73,-92,20,109,69,451,-56,-19,-73
-101,-32,70,66,-85,19,113,66,439,-59,-22,-76
-115,-52,63,83,-88,5,115,64,427,-64,-27,-74
-120,-58,62,89,-90,1,115,61,417,-64,-30,-71
-140,-75,64,107,-102,-5,119,59,413,-60,-27,-70
-145,-77,68,111,-106,-4,121,60,410,-58,-23,-70
-134,-64,70,99,-101,3,120,60,406,-55,-20,-70
-134,-61,73,97,-103,6,116,61,403,-52,-16,-70
-124,-48,76,85,-99,14,110,58,399,-49,-11,-73
-121,-48,74,84,-97,13,106,55,396,-53,-11,-75
-110,-28,82,69,-96,27,101,55,389,-58,-18,-75
-83,8,91,37,-87,50,97,51,386,-60,-22,-79
-65,40,105,12,-85,72,94,50,380,-65,-28,-80
-55,38,93,8,-74,65,96,50,377,-68,-34,-80
-87,-27,60,57,-73,16,93,44,369,-72,-38,-84
-118,-56,62,87,-89,2,97,34,339,-74,-47,-87
-120,-73,47,96,-83,-13,93,31,324,-88,-59,-89
-138,-92,46,115,-92,-23,96,19,316,-106,-68,-94
-126,-93,33,109,-79,-29,100,16,313,-106,-68,-94
-128,-99,29,113,-78,-35,98,6,301,-118,-78,-97
-118,-90,28,103,-72,-31,108,6,301,-115,-75,-93
-113,-100,13,107,-63,-43,98,6,289,-132,-89,-97
-129,-113,16,121,-72,-48,116,28,287,-120,-81,-99
-65,-168,-103,117,19,-135,105,157,357,-79,-58,-100
29,29,0,-29,15,14,41,217,546,131,104,30
649,589,-60,-619,354,264,-500,83,733,609,625,576
1120,952,-168,-1035,644,392,-1129,-450,365,596,836,902
569,728,159,-649,205,443,-922,-1077,-288,-48,363,504
80,178,98,-129,-9,138,-510,-948,-404,-412,-56,76
-21,-95,-75,58,27,-85,-197,-368,-80,-300,-122,-70
-97,-158,-60,128,-18,-109,42,-67,165,-184,-109,-99
-130,-185,-56,158,-37,-120,83,-2,223,-155,-103,-92
-149,-162,-13,156,-68,-87,111,23,236,-133,-94,-97
-149,-164,-15,157,-67,-89,107,31,239,-130,-88,-94
-150,-150,0,151,-75,-75,114,37,243,-119,-81,-96
-146,-146,0,146,-73,-73,115,45,249,-113,-77,-93
-144,-137,7,141,-76,-64,117,51,252,-105,-71,-87
-144,-131,13,137,-79,-58,122,56,257,-97,-65,-83
-140,-124,16,132,-78,-54,115,61,260,-89,-60,-78
-134,-109,25,121,-80,-41,115,66,263,-81,-54,-74
-115,-85,30,100,-72,-28,110,69,268,-74,-47,-69
-92,-54,38,73,-65,-8,108,76,270,-65,-41,-63
-79,-36,44,57,-61,4,105,94,279,-55,-34,-52
-77,-27,50,52,-63,11,104,111,294,-44,-28,-43
-68,-11,57,39,-62,23,98,130,304,-28,-21,-31
-60,6,65,27,-63,35,91,152,332,-7,-3,-14
-36,37,73,-1,-55,55,85,168,356,26,27,2
27,106,79,-67,-26,92,78,185,361,61,61,25
50,134,84,-93,-17,109,71,194,363,72,86,48
56,147,90,-102,-17,118,66,189,357,74,93,63
60,155,95,-108,-17,125,64,184,355,73,88,68
49,144,95,-97,-23,119,61,180,350,65,85,59
46,143,96,-95,-25,119,58,175,346,62,82,53
33,133,100,-83,-34,116,55,171,344,57,77,45
31,132,101,-82,-35,116,56,159,328,53,75,37
2,99,97,-50,-48,97,60,137,307,48,58,33
-32,52,84,-10,-59,68,60,118,289,16,29,5
-32,41,72,-5,-52,56,60,99,274,-13,4,-28
-36,28,64,4,-50,46,60,77,244,-23,-13,-42
-40,18,59,11,-50,38,60,66,208,-36,-22,-50
-59,-5,54,32,-57,24,63,59,197,-43,-30,-53
-75,-27,47,51,-61,10,66,52,193,-48,-41,-56
-66,-23,43,44,-54,10,69,44,187,-51,-43,-60
-57,-20,37,39,-47,8,72,37,181,-54,-39,-65
-51,-17,35,34,-43,9,74,38,176,-59,-40,-63
-47,-12,35,29,-41,11,77,41,171,-59,-37,-59
-42,-10,31,26,-37,10,80,44,169,-55,-34,-60
-45,-16,30,31,-37,7,80,47,170,-52,-36,-60
-64,-34,30,49,-47,-2,82,50,170,-50,-39,-60
-70,-46,24,58,-46,-11,86,49,170,-47,-42,-61
-66,-47,19,56,-42,-14,84,44,169,-44,-44,-64
-64,-50,14,57,-39,-18,82,41,162,-49,-48,-67
-61,-53,8,57,-34,-23,79,38,156,-54,-50,-70
-58,-55,3,56,-30,-26,76,33,149,-57,-52,-72
-56,-58,-3,57,-26,-30,73,30,142,-62,-57,-76
-55,-60,-5,58,-25,-32,70,26,136,-67,-60,-73
-55,-60,-5,58,-25,-32,71,25,131,-70,-63,-69
-55,-60,-5,58,-25,-32,75,24,124,-73,-68,-71
-55,-60,-5,58,-25,-32,77,21,117,-75,-70,-66
-55,-59,-4,58,-25,-31,80,19,111,-79,-66,-65
-52,-53,-1,53,-26,-27,84,21,104,-81,-65,-65
-49,-47,1,48,-25,-23,86,27,101,-76,-64,-60
-46,-42,5,43,-25,-18,82,31,107,-71,-60,-60
-42,-35,7,38,-25,-13,77,35,115,-66,-60,-58
-34,-24,10,29,-22,-7,74,31,111,-63,-62,-55
4,17,13,-11,-4,15,71,25,107,-57,-65,-55
14,34,20,-24,-4,27,65,21,102,-56,-68,-57
-13,18,30,-3,-22,24,67,13,98,-62,-71,-62
-14,5,19,5,-17,11,69,10,93,-68,-74,-64
-41,-29,12,35,-26,-8,74,2,79,-74,-76,-76
-51,-57,-5,54,-23,-31,74,2,63,-78,-79,-85
-53,-63,-10,59,-21,-36,79,-5,49,-84,-84,-89
-77,-97,-20,88,-28,-59,80,-3,49,-84,-85,-91
-89,-114,-25,102,-32,-69,82,-10,38,-92,-92,-96
-69,-95,-26,82,-21,-60,89,-10,41,-90,-92,-99
-63,-107,-43,86,-10,-75,84,-3,30,-101,-96,-100
-47,-78,-31,63,-7,-54,98,8,30,-94,-81,-99
30,-107,-136,39,83,-121,63,134,92,-68,-87,-101
105,32,-73,-69,89,-20,22,201,263,113,49,17
708,558,-150,-633,429,204,-484,59,422,545,544,535
1232,938,-293,-1085,763,322,-1130,-483,70,550,767,884
718,750,32,-734,343,391,-947,-1101,-533,-39,335,515
170,212,42,-191,64,127,-534,-989,-656,-397,-87,88
34,-79,-113,22,74,-96,-233,-434,-348,-304,-164,-54
-38,-128,-89,83,26,-108,5,-99,-99,-184,-150,-89
-46,-145,-99,96,26,-122,63,-17,-39,-150,-147,-86
-55,-128,-73,92,9,-100,86,-1,-11,-127,-138,-93
-62,-132,-70,97,4,-101,79,11,-4,-122,-133,-95
-69,-122,-53,96,-7,-88,86,12,2,-109,-127,-100
-73,-120,-47,97,-13,-84,89,20,10,-101,-123,-98
-69,-113,-44,91,-13,-78,89,25,15,-94,-117,-94
-66,-102,-36,85,-15,-69,88,30,22,-87,-114,-93
-60,-92,-33,76,-13,-62,83,36,27,-81,-109,-88
-58,-83,-25,71,-16,-54,87,41,33,-74,-104,-86
-49,-71,-22,60,-13,-47,84,47,37,-68,-98,-84
-47,-64,-17,56,-15,-40,86,53,44,-58,-87,-75
-27,-42,-15,35,-6,-28,84,62,49,-45,-78,-59
-14,-24,-10,19,-1,-17,78,77,54,-34,-64,-45
-10,-17,-6,14,-2,-11,73,98,61,-20,-42,-22
37,33,-4,-35,20,15,67,117,72,8,-23,-3
54,58,4,-57,25,31,62,138,92,31,-2,16
84,96,12,-90,35,54,56,146,116,58,17,44
113,132,20,-123,46,76,52,145,128,78,39,58
113,141,28,-127,42,84,47,146,123,79,56,65
125,159,34,-142,45,97,44,145,117,77,51,65
130,174,44,-153,43,109,41,146,113,70,46,61
140,188,49,-164,45,118,36,141,106,64,41,58
143,184,41,-164,50,112,36,130,102,59,35,55
123,157,34,-141,45,95,40,119,89,54,30,54
87,114,27,-101,30,71,42,107,67,38,14,39
57,76,19,-67,19,47,45,89,49,17,-10,13
40,53,13,-47,13,33,48,67,33,-3,-40,-12
24,29,6,-27,9,17,50,50,19,-21,-61,-26
-5,-5,0,5,-2,-2,53,33,10,-37,-71,-33
-17,-21,-5,19,-6,-13,56,24,0,-49,-77,-43
-13,-24,-11,19,-1,-17,55,20,-10,-50,-80,-52
-14,-30,-16,22,1,-23,55,15,-16,-50,-83,-59
-12,-33,-21,23,5,-27,54,12,-19,-50,-88,-60
-13,-39,-25,27,6,-32,56,5,-22,-49,-91,-60
-18,-43,-25,31,4,-33,60,7,-27,-51,-95,-60
-20,-45,-25,33,3,-35,60,10,-30,-55,-95,-60
-20,-45,-25,33,3,-35,62,10,-34,-55,-96,-61
-23,-48,-25,36,1,-36,65,13,-35,-57,-100,-65
-23,-51,-28,37,3,-39,65,16,-35,-60,-100,-65
-18,-49,-31,33,7,-40,65,14,-40,-60,-100,-65
-13,-46,-34,30,11,-40,65,11,-40,-63,-100,-65
-7,-44,-37,26,16,-40,65,8,-41,-68,-100,-65
-7,-46,-39,26,17,-42,65,6,-46,-71,-100,-69
-2,-44,-42,23,20,-42,65,2,-51,-74,-100,-70
-1,-46,-45,24,22,-46,66,0,-54,-79,-99,-70
3,-42,-45,20,25,-43,70,0,-62,-79,-110,-74
11,-33,-45,11,28,-39,70,0,-73,-75,-118,-75
-11,-56,-45,34,17,-50,70,0,-70,-72,-114,-74
-15,-60,-45,38,16,-52,70,0,-70,-70,-115,-69
-11,-52,-41,31,15,-46,70,0,-70,-66,-115,-64
-15,-50,-35,32,10,-42,73,0,-70,-65,-115,-60
-13,-43,-30,28,9,-36,78,-5,-70,-61,-116,-55
-15,-40,-25,28,5,-32,79,-5,-66,-54,-119,-50
-5,-23,-18,14,7,-20,74,-6,-65,-48,-120,-53
21,6,-16,-13,19,-5,71,-11,-63,-40,-119,-57
66,35,-30,-50,48,3,67,-9,-59,-35,-120,-60
66,23,-42,-44,54,-9,64,-13,-61,-27,-119,-64
38,-17,-56,-10,47,-36,59,-18,-94,-56,-123,-66
12,-43,-56,16,34,-49,64,-27,-120,-84,-125,-79
-13,-75,-62,44,25,-68,65,-31,-123,-84,-136,-89
-25,-89,-64,57,20,-76,64,-41,-134,-95,-152,-94
-14,-81,-67,48,27,-74,68,-43,-134,-91,-147,-96
-12,-87,-76,49,32,-81,61,-41,-145,-88,-152,-104
-7,-74,-67,41,30,-70,72,-36,-143,-76,-148,-103
2,-85,-87,42,44,-85,63,-28,-145,-76,-152,-100
-36,-99,-63,68,14,-81,79,-30,-148,-61,-152,-98
31,-134,-165,52,99,-149,67,78,-99,-65,-134,-96
100,-39,-139,-30,120,-89,37,162,41,40,-44,-33
604,434,-170,-518,387,132,-370,62,218,459,384,426
1273,883,-391,-1077,832,246,-1084,-413,-36,570,708,864
894,798,-96,-846,494,351,-1035,-1073,-633,52,366,595
265,285,20,-275,123,152,-606,-1086,-847,-372,-100,135
95,-59,-154,-18,125,-107,-311,-545,-583,-330,-215,-53
-9,-146,-138,78,65,-142,-46,-166,-297,-197,-198,-94
-34,-177,-142,106,54,-159,25,-59,-210,-159,-194,-87
-38,-156,-118,97,40,-137,61,-32,-192,-127,-183,-93
-41,-157,-115,99,37,-136,65,-19,-180,-118,-178,-95
-40,-147,-107,94,33,-127,66,-15,-171,-108,-172,-95
-44,-140,-96,92,27,-118,73,-7,-163,-97,-167,-93
-40,-133,-93,87,27,-113,71,-1,-155,-90,-161,-88
-40,-123,-83,82,22,-103,78,5,-147,-82,-156,-85
-34,-117,-83,76,25,-100,70,12,-142,-76,-150,-81
-31,-108,-77,69,23,-92,70,21,-135,-69,-142,-77
-23,-98,-75,61,26,-86,66,30,-132,-62,-136,-74
-15,-85,-71,50,28,-78,63,38,-127,-53,-129,-68
-5,-73,-67,39,31,-70,61,47,-123,-42,-113,-57
0,-58,-58,30,29,-58,58,62,-117,-28,-89,-48
6,-44,-50,19,28,-46,51,81,-98,-9,-67,-36
26,-15,-41,-5,33,-28,44,93,-74,17,-48,-19
58,24,-35,-41,46,-5,38,110,-52,29,-32,5
95,65,-30,-80,63,18,29,122,-44,53,-13,32
124,98,-25,-111,74,36,23,120,-42,74,9,52
146,124,-22,-135,83,51,16,120,-39,69,24,60
154,139,-15,-146,85,61,14,120,-37,71,36,60
163,146,-17,-154,90,64,11,120,-34,70,40,62
178,157,-21,-168,99,68,8,120,-39,70,32,65
173,154,-19,-163,96,67,5,111,-46,71,24,66
157,133,-24,-145,90,54,6,99,-52,58,16,61
120,94,-25,-106,72,34,13,88,-62,42,9,44
76,51,-25,-63,50,13,17,77,-84,24,-7,21
50,19,-31,-34,40,-6,23,57,-100,2,-31,-2
36,0,-36,-18,36,-18,29,38,-112,-11,-53,-23
32,-11,-42,-10,37,-26,34,22,-132,-17,-69,-35
25,-22,-48,-1,37,-35,35,7,-145,-24,-72,-38
17,-33,-50,8,34,-41,35,5,-154,-30,-69,-42
-3,-56,-53,30,26,-54,35,2,-155,-38,-70,-45
-11,-67,-56,40,23,-62,35,-1,-155,-38,-70,-50
-5,-64,-59,34,28,-61,35,-4,-155,-34,-70,-48
-3,-63,-61,33,29,-62,36,-5,-155,-35,-70,-44
6,-59,-65,27,35,-61,40,-1,-155,-31,-70,-45
4,-61,-65,29,35,-62,40,2,-151,-30,-70,-45
10,-57,-66,24,38,-61,42,5,-150,-30,-70,-45
17,-54,-70,18,44,-62,45,8,-150,-35,-70,-45
17,-52,-69,17,43,-61,45,10,-150,-35,-70,-50
27,-46,-72,10,50,-59,41,8,-149,-36,-73,-50
9,-66,-75,29,43,-71,40,3,-152,-40,-78,-51
-8,-83,-75,46,33,-78,40,0,-154,-40,-81,-56
1,-74,-75,37,38,-74,36,-4,-161,-42,-84,-54
2,-73,-75,36,39,-74,34,-8,-174,-45,-89,-58
6,-68,-74,31,40,-71,37,-11,-175,-48,-89,-60
12,-64,-76,27,44,-70,40,-15,-175,-51,-84,-60
-3,-76,-73,40,35,-75,40,-15,-175,-55,-86,-60
0,-80,-80,40,41,-79,43,-16,-175,-55,-83,-61
24,-70,-94,23,59,-82,46,-19,-175,-50,-79,-59
17,-65,-82,24,49,-73,45,-20,-175,-45,-81,-56
15,-58,-73,21,44,-65,41,-17,-175,-40,-75,-54
15,-47,-62,16,39,-55,34,-15,-175,-37,-70,-55
23,-29,-52,3,37,-40,31,-15,-174,-30,-61,-55
49,2,-47,-25,48,-22,24,-11,-175,-32,-57,-55
46,15,-32,-30,39,-8,19,-10,-175,-37,-47,-58
62,-10,-72,-26,67,-41,15,-10,-187,-40,-49,-59
42,-56,-98,7,70,-76,21,-18,-208,-59,-76,-65
5,-89,-94,43,50,-92,24,-27,-212,-70,-83,-62
-17,-112,-96,65,40,-104,26,-39,-216,-74,-92,-74
-45,-139,-94,93,25,-116,34,-45,-219,-79,-105,-93
-38,-135,-98,87,30,-116,32,-55,-224,-76,-108,-93
-47,-140,-93,94,23,-117,40,-61,-224,-72,-112,-99
-31,-146,-114,89,42,-130,28,-58,-215,-70,-119,-100
-39,-139,-100,89,31,-119,42,-56,-211,-64,-117,-108
-2,-192,-189,97,94,-190,36,55,-182,-65,-117,-110
79,-74,-153,-2,116,-114,15,147,-41,61,-17,-26
599,396,-204,-497,401,96,-389,46,134,451,409,418
1286,842,-444,-1064,865,199,-1105,-437,-123,571,733,863
904,755,-149,-829,527,302,-1079,-1100,-711,62,404,608
279,267,-12,-273,146,127,-651,-1129,-919,-360,-57,149
107,-88,-195,-9,151,-141,-354,-592,-673,-318,-179,-40
26,-164,-190,70,108,-177,-87,-199,-396,-196,-152,-89
46,-143,-189,49,118,-166,-10,-89,-301,-141,-126,-78
2,-142,-145,70,74,-143,25,-60,-279,-116,-124,-87
-8,-135,-126,72,59,-130,38,-46,-258,-111,-116,-88
-1,-125,-124,63,62,-124,41,-44,-252,-101,-109,-90
-27,-144,-117,85,45,-130,53,-37,-242,-95,-103,-88
-41,-159,-118,100,39,-138,47,-32,-234,-87,-97,-83
-34,-143,-109,89,38,-126,54,-26,-227,-78,-92,-82
-25,-136,-110,81,43,-123,54,-20,-221,-70,-86,-77
-23,-125,-103,74,40,-114,56,-12,-214,-61,-81,-76
-20,-119,-99,69,40,-109,52,-6,-207,-53,-74,-73
-19,-113,-94,66,38,-104,46,1,-202,-42,-71,-61
18,-72,-90,27,54,-81,39,15,-193,-33,-59,-46
21,-64,-86,22,54,-75,32,27,-178,-22,-45,-34
32,-49,-81,9,56,-64,26,49,-165,-2,-32,-19
62,-12,-74,-25,68,-43,20,65,-148,22,-12,2
62,-5,-67,-28,65,-36,15,78,-132,43,13,23
97,36,-61,-66,79,-13,8,91,-117,61,38,39
132,78,-54,-105,93,12,1,90,-107,85,62,62
148,98,-50,-123,99,24,-5,90,-109,91,77,72
173,124,-50,-148,111,36,-13,90,-110,89,76,69
177,127,-50,-152,113,38,-13,90,-109,94,75,71
164,114,-50,-139,107,32,-9,89,-111,95,74,69
159,109,-50,-134,104,29,-11,80,-109,95,69,71
151,101,-50,-126,100,25,-6,70,-116,84,71,63
130,77,-53,-103,91,12,-5,60,-131,67,66,48
93,36,-57,-64,75,-10,-5,44,-135,49,49,35
43,-9,-52,-16,48,-30,-1,22,-163,15,14,7
44,-19,-64,-12,54,-41,2,5,-189,-1,-17,-15
44,-42,-86,0,65,-63,5,-9,-195,-4,-24,-20
3,-82,-85,40,44,-83,8,-19,-198,-10,-30,-25
0,-85,-85,43,43,-85,10,-20,-194,-13,-38,-30
1,-85,-85,42,44,-85,12,-21,-195,-20,-43,-37
-1,-86,-84,44,42,-85,17,-24,-195,-18,-41,-39
1,-84,-85,42,44,-85,20,-26,-195,-11,-40,-35
-1,-86,-85,44,42,-85,23,-23,-195,-6,-39,-35
-4,-89,-85,47,41,-87,28,-20,-195,-1,-35,-35
-6,-91,-85,49,40,-87,31,-20,-195,5,-35,-35
-5,-89,-85,48,40,-87,34,-20,-195,10,-37,-35
-5,-90,-85,48,40,-87,35,-20,-195,3,-40,-38
0,-89,-89,45,45,-89,35,-20,-195,-4,-43,-43
1,-92,-94,46,48,-93,35,-23,-197,-11,-46,-46
0,-97,-96,49,48,-97,35,-26,-200,-19,-49,-49
1,-100,-100,50,50,-100,35,-29,-203,-27,-50,-54
1,-104,-105,52,53,-104,35,-32,-206,-28,-50,-55
-5,-107,-103,56,49,-105,35,-35,-213,-25,-50,-55
-13,-111,-98,62,42,-104,35,-35,-216,-25,-50,-55
-5,-100,-95,53,45,-97,35,-34,-214,-25,-50,-55
3,-88,-92,42,48,-90,35,-35,-215,-25,-50,-55
5,-82,-87,39,46,-84,30,-34,-214,-25,-52,-55
7,-79,-85,37,46,-82,23,-35,-215,-30,-55,-51
14,-75,-89,30,52,-82,19,-35,-220,-30,-55,-50
39,-56,-94,9,67,-75,12,-35,-225,-31,-55,-50
64,-31,-95,-16,80,-63,8,-35,-228,-36,-55,-50
75,-27,-102,-24,89,-64,6,-37,-232,-34,-55,-49
30,-73,-102,22,66,-87,13,-55,-239,-38,-62,-52
-3,-112,-109,57,54,-110,17,-54,-245,-43,-72,-63
-8,-117,-110,62,51,-113,20,-56,-250,-58,-77,-75
-28,-138,-109,83,41,-123,29,-59,-250,-71,-80,-74
-36,-148,-112,92,38,-130,27,-60,-256,-69,-83,-75
-57,-163,-106,110,24,-134,40,-60,-256,-72,-88,-80
-43,-159,-116,101,37,-137,31,-51,-262,-74,-90,-79
-41,-146,-105,94,33,-125,53,-53,-253,-77,-92,-81
-7,-219,-212,113,103,-215,47,59,-208,-63,-102,-72
58,-120,-178,31,118,-149,29,158,-81,82,-14,-19
547,335,-212,-441,379,62,-343,72,107,465,394,399
1270,806,-464,-1038,867,171,-1082,-398,-132,598,732,865
950,752,-198,-851,574,277,-1086,-1077,-736,99,420,626
292,249,-43,-270,168,103,-655,-1138,-969,-342,-50,155
99,-108,-207,5,153,-158,-369,-623,-736,-316,-164,-36
1,-184,-185,92,93,-184,-95,-207,-432,-184,-142,-78
15,-172,-187,79,102,-179,-5,-67,-321,-125,-132,-70
-8,-175,-166,92,79,-170,34,-41,-308,-102,-127,-79
-19,-170,-151,95,66,-160,48,-26,-289,-93,-123,-81
-25,-170,-145,97,60,-157,46,-24,-284,-82,-116,-85
-39,-169,-130,104,45,-149,55,-17,-271,-73,-111,-82
-38,-163,-125,101,44,-144,52,-11,-265,-66,-106,-75
-51,-162,-111,107,30,-136,60,-7,-257,-59,-101,-73
-45,-156,-110,101,33,-133,59,0,-251,-53,-97,-67
-54,-156,-103,105,25,-129,58,8,-244,-45,-92,-63
-32,-130,-98,82,33,-114,51,16,-237,-41,-88,-58
-5,-97,-92,51,44,-94,46,24,-231,-30,-83,-51
-1,-88,-87,45,43,-88,41,31,-214,-16,-69,-41
3,-79,-83,38,43,-81,34,47,-198,2,-51,-33
6,-71,-77,33,42,-74,31,68,-181,23,-35,-22
21,-53,-74,16,47,-63,23,87,-164,37,-18,-2
45,-23,-69,-11,57,-46,16,108,-147,67,2,25
78,14,-64,-46,71,-25,10,124,-128,89,32,51
123,63,-60,-93,92,1,1,128,-123,100,59,76
152,92,-60,-122,105,16,-6,122,-120,108,67,87
162,102,-60,-132,111,21,-13,120,-117,101,61,83
173,113,-60,-143,116,26,-15,116,-112,101,57,81
168,108,-59,-138,113,24,-15,111,-110,96,52,77
159,97,-62,-128,111,17,-15,109,-116,95,48,75
155,89,-65,-121,110,12,-15,97,-123,89,43,72
134,70,-65,-102,99,2,-15,86,-142,76,29,55
100,32,-69,-66,84,-18,-10,68,-159,65,13,39
52,-18,-70,-17,61,-44,-6,38,-181,37,-7,15
29,-41,-70,6,50,-55,-4,22,-199,15,-31,-12
12,-62,-74,25,43,-68,1,12,-204,5,-54,-21
-11,-88,-77,50,33,-82,4,-1,-216,-3,-66,-27
-7,-87,-79,47,36,-83,7,-9,-220,-13,-65,-35
-7,-90,-83,49,38,-86,10,-10,-220,-19,-65,-43
-9,-94,-85,52,38,-89,13,-10,-220,-15,-65,-48
-7,-95,-87,51,41,-91,16,-15,-220,-15,-65,-46
-9,-99,-90,54,41,-95,19,-15,-220,-15,-62,-45
-10,-100,-90,55,40,-95,21,-14,-220,-15,-59,-45
-7,-101,-94,54,43,-97,24,-9,-220,-15,-56,-45
-9,-104,-95,57,44,-100,27,-3,-220,-18,-53,-45
-10,-105,-95,58,43,-100,30,0,-220,-21,-50,-47
-11,-106,-95,59,42,-101,32,5,-219,-19,-51,-50
-15,-110,-95,63,40,-102,36,10,-221,-20,-56,-50
-17,-112,-95,65,39,-103,32,7,-225,-20,-59,-54
-21,-115,-95,68,38,-105,29,2,-224,-21,-62,-56
-23,-118,-95,71,36,-107,31,-1,-227,-25,-67,-54
-29,-121,-92,75,32,-106,26,-4,-231,-25,-70,-51
-26,-116,-89,71,32,-102,25,-9,-229,-28,-67,-46
-16,-107,-90,62,37,-98,25,-10,-233,-30,-64,-44
-10,-99,-90,55,40,-94,20,-10,-235,-30,-62,-39
0,-90,-90,45,45,-90,13,-10,-234,-33,-58,-35
8,-82,-90,37,50,-86,9,-10,-240,-36,-56,-37
21,-74,-94,27,58,-84,3,-10,-239,-34,-53,-42
43,-56,-99,7,71,-77,-3,-10,-242,-36,-50,-45
75,-26,-100,-24,88,-63,-2,-14,-245,-34,-50,-48
83,-24,-107,-29,95,-66,1,-20,-244,-37,-48,-53
31,-76,-107,23,69,-91,10,-26,-261,-49,-68,-55
-2,-113,-111,58,55,-112,9,-29,-272,-57,-94,-66
-18,-118,-99,69,41,-109,19,-39,-272,-59,-95,-76
-34,-137,-103,85,35,-120,18,-37,-276,-62,-103,-75
-31,-125,-94,78,32,-109,27,-43,-280,-68,-104,-81
-40,-132,-93,86,27,-112,32,-36,-278,-68,-97,-81
-53,-144,-91,98,19,-117,34,-44,-283,-74,-100,-87
-49,-151,-101,100,26,-126,49,-16,-268,-61,-86,-81
-4,-220,-217,112,107,-218,15,109,-200,-35,-101,-84
137,-5,-143,-66,140,-74,-29,167,-13,178,71,58
823,522,-300,-672,561,111,-600,-1,90,566,548,595
1287,858,-429,-1072,858,214,-1198,-610,-321,484,687,870
684,614,-69,-649,376,272,-955,-1172,-878,-90,238,456
178,103,-75,-140,126,14,-580,-992,-936,-379,-134,63
30,-153,-183,62,107,-168,-283,-452,-634,-268,-166,-60
-56,-201,-145,129,45,-173,-57,-130,-385,-163,-143,-81
-22,-185,-163,104,71,-174,-8,-48,-306,-123,-136,-71
-43,-181,-139,112,48,-160,29,-26,-290,-95,-128,-78
-39,-175,-136,107,49,-155,31,-14,-279,-82,-123,-74
-51,-166,-116,109,33,-141,41,-10,-275,-73,-115,-75
-56,-163,-108,110,27,-135,40,-2,-267,-68,-109,-71
-54,-153,-98,104,22,-125,39,4,-261,-60,-100,-68
-61,-147,-86,104,13,-116,41,10,-252,-54,-92,-66
-58,-137,-79,98,11,-108,39,17,-243,-45,-84,-61
-61,-132,-71,96,5,-101,41,28,-231,-35,-77,-61
-50,-119,-69,85,9,-93,36,38,-216,-26,-68,-56
-42,-105,-63,74,11,-84,33,48,-203,-13,-57,-45
-29,-88,-59,59,15,-73,29,57,-188,1,-39,-33
-1,-56,-54,29,27,-55,25,80,-175,22,-14,-18
25,-25,-49,0,37,-37,22,103,-161,47,7,-1
45,3,-42,-24,44,-19,19,122,-149,63,28,16
57,21,-36,-39,46,-7,13,142,-122,89,47,37
73,44,-29,-58,51,7,6,154,-93,109,68,57
114,91,-23,-103,68,34,0,167,-88,131,92,78
135,118,-17,-127,76,50,-8,165,-84,147,106,92
130,115,-15,-122,72,50,-14,158,-82,144,106,91
130,115,-15,-122,72,50,-12,154,-77,146,103,86
120,109,-11,-114,66,49,-9,147,-75,144,101,84
117,108,-9,-113,63,49,-6,143,-80,146,97,79
112,101,-10,-107,61,45,-3,136,-78,139,96,77
92,76,-15,-84,54,30,-1,118,-91,114,89,68
56,35,-22,-45,39,6,2,93,-114,84,63,36
13,-14,-26,1,19,-19,5,73,-133,59,43,16
2,-30,-32,14,18,-31,5,52,-151,47,27,12
-4,-43,-38,24,17,-40,5,37,-166,40,12,3
7,-31,-38,12,23,-34,5,31,-176,29,9,-4
6,-29,-35,12,21,-32,5,24,-175,22,5,-11
-32,-67,-35,50,2,-51,9,16,-175,24,2,-17
-36,-71,-35,54,0,-53,10,9,-175,27,-3,-20
-34,-69,-35,52,0,-51,10,3,-175,29,-5,-23
-35,-71,-36,54,0,-53,15,-2,-172,32,0,-26
-30,-69,-39,49,5,-54,15,-5,-169,36,0,-29
-30,-71,-40,50,5,-56,16,-8,-166,32,1,-30
-33,-73,-40,53,3,-56,22,-13,-163,30,5,-30
-36,-76,-40,56,3,-57,29,-15,-160,30,4,-30
-35,-75,-40,55,3,-57,36,-27,-160,26,7,-30
-42,-80,-38,61,-2,-58,43,-46,-160,24,11,-30
-46,-81,-34,64,-6,-57,49,-76,-160,26,9,-30
-47,-79,-32,63,-7,-55,47,-101,-160,29,14,-28
-45,-74,-29,59,-8,-51,44,-112,-160,30,15,-25
-39,-65,-26,52,-6,-46,41,-127,-160,30,15,-22
-36,-60,-24,49,-6,-42,38,-136,-156,30,20,-19
-30,-51,-21,41,-5,-36,35,-141,-155,30,20,-16
-31,-47,-16,40,-7,-32,35,-147,-155,28,21,-15
-24,-37,-14,31,-5,-25,35,-153,-150,25,25,-15
-10,-20,-10,15,0,-15,34,-161,-150,22,25,-15
-17,-21,-4,20,-7,-12,36,-169,-151,19,23,-15
-8,-16,-9,12,0,-12,33,-180,-163,16,16,-15
-40,-50,-11,45,-14,-30,37,-197,-175,14,12,-17
-82,-102,-20,92,-31,-61,37,-201,-182,10,6,-24
-84,-103,-19,94,-32,-61,42,-201,-192,4,0,-31
-96,-124,-28,110,-34,-76,39,-195,-194,1,-5,-37
-88,-118,-30,103,-29,-74,44,-195,-196,-4,-11,-45
-83,-117,-34,100,-24,-75,48,-190,-193,-8,-16,-50
-79,-117,-38,98,-20,-77,40,-189,-198,-9,-23,-55
-77,-114,-37,96,-20,-76,65,-186,-176,11,-27,-54
-36,-179,-143,108,54,-161,37,-59,-93,35,-24,-56
124,31,-93,-77,108,-31,-9,54,115,247,177,91
723,565,-159,-644,441,203,-513,-75,290,715,704,636
1159,934,-225,-1046,692,354,-1126,-654,-78,698,919,968
600,696,96,-648,251,396,-928,-1309,-726,41,427,549
76,162,85,-119,-5,123,-538,-1214,-853,-301,-10,95
-23,-119,-95,71,36,-107,-252,-645,-538,-207,-52,-29
-77,-187,-110,132,17,-148,-37,-315,-301,-109,-37,-62
-65,-168,-103,117,19,-135,6,-231,-222,-57,-23,-58
-106,-164,-59,135,-23,-111,46,-209,-190,-23,-3,-56
-107,-159,-52,133,-27,-105,53,-198,-177,7,16,-53
-110,-151,-41,130,-34,-96,61,-191,-168,14,23,-48
-114,-151,-36,133,-39,-93,63,-183,-158,20,25,-45
-112,-142,-30,127,-41,-85,64,-176,-143,28,32,-41
-120,-142,-22,131,-49,-81,70,-168,-123,34,34,-36
-101,-118,-17,109,-42,-67,69,-160,-114,40,47,-32
-80,-88,-8,84,-35,-48,68,-152,-106,45,63,-27
-81,-84,-3,83,-38,-43,61,-144,-97,53,70,-23
-91,-86,4,88,-47,-41,60,-136,-91,57,77,-18
-65,-53,12,59,-38,-20,55,-122,-78,69,92,-8
-31,-9,21,20,-26,6,51,-108,-57,81,110,12
-25,4,30,10,-27,17,49,-89,-39,99,132,38
-29,9,38,10,-34,23,40,-65,-23,121,154,46
23,65,42,-44,-10,53,31,-38,-4,147,176,69
72,119,47,-96,12,83,23,-24,26,173,202,99
71,121,50,-96,10,86,12,-25,51,195,238,122
71,128,58,-100,6,93,13,-23,50,212,262,132
68,142,74,-106,-3,108,16,-20,46,211,254,129
80,154,73,-117,3,114,15,-20,45,210,251,134
77,145,69,-111,4,107,15,-22,40,209,246,135
74,140,66,-107,4,103,14,-33,40,204,242,135
64,126,61,-95,1,93,17,-42,33,206,234,124
14,72,58,-43,-23,65,20,-57,23,198,209,102
-9,46,55,-19,-32,50,22,-85,10,166,175,71
-14,38,52,-12,-34,45,25,-106,-17,142,139,52
-23,27,50,-2,-37,38,28,-123,-30,127,127,48
-29,17,46,5,-38,32,31,-138,-32,112,119,40
-42,2,44,19,-43,23,33,-145,-36,108,110,34
-53,-5,49,29,-51,22,36,-153,-39,102,101,28
-59,-9,50,34,-54,21,39,-155,-40,98,95,22
-61,-11,50,36,-55,19,42,-155,-40,94,94,20
-66,-16,50,41,-58,17,45,-155,-40,89,90,20
-68,-19,50,43,-59,16,45,-155,-40,86,87,20
-76,-26,50,51,-63,12,45,-155,-40,85,85,20
-97,-47,50,72,-73,1,45,-150,-40,85,83,20
-102,-52,50,77,-76,0,45,-150,-40,85,80,15
-95,-46,50,70,-72,2,45,-149,-40,85,77,15
-95,-44,51,70,-72,3,45,-145,-40,82,74,14
-88,-39,49,63,-69,5,41,-145,-40,79,70,10
-91,-37,54,63,-72,8,40,-147,-41,80,70,9
-90,-34,56,61,-72,11,40,-150,-38,79,74,12
-90,-36,54,63,-71,9,35,-149,-34,80,78,19
-91,-34,57,62,-74,11,35,-153,-32,80,81,24
-58,-7,51,32,-55,21,34,-155,-28,81,86,29
-37,28,65,4,-51,46,30,-155,-26,81,90,36
-34,23,57,5,-46,40,30,-160,-23,77,88,39
-36,18,54,8,-45,36,30,-163,-38,75,84,36
-17,65,82,-24,-50,73,30,-167,-58,71,82,29
-19,46,65,-13,-42,55,30,-169,-65,70,79,26
-71,-12,59,41,-65,23,34,-176,-69,65,75,21
-89,-42,47,65,-67,2,36,-174,-63,61,75,17
-97,-53,44,75,-71,-4,38,-175,-66,54,69,12
-114,-71,43,93,-79,-13,43,-175,-64,50,62,8
-131,-96,35,113,-83,-30,42,-173,-66,43,56,6
-125,-82,42,103,-83,-20,50,-178,-65,39,48,0
-93,-69,24,81,-58,-22,46,-169,-55,32,44,0
-113,-85,28,99,-70,-29,58,-157,-42,18,34,-10
-76,-148,-72,112,-2,-110,72,-27,23,57,34,-11
22,20,-3,-21,12,8,40,86,189,255,190,94
543,553,10,-548,266,281,-432,19,430,750,718,594
1081,972,-109,-1026,594,431,-1103,-411,204,888,1053,1039
650,804,154,-727,248,479,-1006,-1125,-515,232,600,689
90,241,152,-166,-31,196,-583,-1183,-781,-267,86,183
-37,-79,-42,58,3,-60,-282,-627,-476,-200,-22,43
-70,-127,-56,99,-7,-91,-43,-268,-206,-60,-1,5
-88,-143,-56,116,-16,-99,12,-163,-117,-10,36,-1
-115,-131,-16,124,-49,-74,52,-141,-86,13,41,-3
-117,-131,-14,124,-51,-72,56,-130,-71,21,42,-7
-128,-125,4,126,-66,-60,53,-127,-64,29,47,-9
-130,-121,10,125,-70,-55,61,-121,-58,38,49,-11
-128,-114,14,120,-71,-49,58,-114,-51,45,58,-3
-122,-98,24,109,-73,-36,61,-111,-44,54,61,1
-113,-85,27,99,-70,-29,54,-102,-38,60,68,6
-112,-75,36,93,-74,-19,56,-92,-31,60,74,12
-103,-64,39,84,-71,-12,55,-83,-24,59,82,17
-96,-56,40,76,-68,-8,55,-71,-18,64,93,24
-82,-37,44,59,-63,3,56,-57,-8,82,101,35
-52,-8,44,29,-48,18,52,-43,13,103,118,48
-39,11,50,13,-44,30,44,-22,31,116,137,60
-37,36,73,0,-55,54,36,6,64,141,152,74
-30,46,76,-8,-53,60,28,31,92,168,178,91
10,85,74,-48,-32,79,21,54,107,189,202,115
40,115,75,-78,-18,95,15,67,122,212,221,136
52,127,75,-90,-12,100,15,64,120,218,236,143
80,154,74,-118,3,114,14,60,113,211,243,138
75,144,69,-109,3,106,10,57,109,206,236,135
67,137,71,-102,-2,104,10,52,102,201,229,131
62,129,67,-96,-3,98,12,50,98,194,223,127
56,121,65,-89,-4,92,18,38,91,191,215,124
48,114,65,-81,-9,89,23,22,75,168,212,109
23,85,61,-54,-19,73,26,3,59,135,179,84
-8,49,58,-21,-33,53,31,-29,43,112,139,55
-41,13,54,13,-48,34,35,-49,26,99,131,37
-56,-5,51,31,-53,22,35,-57,13,93,124,31
-64,-18,46,41,-54,14,35,-61,6,86,117,24
-76,-30,46,52,-61,8,35,-63,2,79,111,16
-80,-29,50,55,-65,11,35,-66,-4,73,104,9
-80,-31,49,56,-65,9,35,-69,-10,67,100,2
-87,-34,52,60,-69,9,37,-70,-15,65,94,0
-91,-36,55,63,-73,10,42,-70,-20,65,91,0
-88,-34,55,61,-71,10,45,-70,-20,61,86,-4
-83,-27,55,55,-69,14,48,-70,-21,60,82,-5
-78,-23,55,50,-66,16,53,-70,-25,60,77,-5
-72,-17,55,44,-63,19,56,-70,-25,55,75,-10
-67,-12,55,39,-61,21,59,-68,-27,55,75,-10
-59,-4,55,31,-57,25,60,-63,-31,55,71,-10
-74,-19,55,46,-64,18,60,-60,-33,54,69,-10
-105,-50,55,77,-80,2,60,-57,-36,55,70,-11
-102,-47,55,74,-79,4,61,-52,-39,52,74,-8
-90,-36,54,63,-72,9,58,-49,-40,50,75,-4
-86,-30,56,57,-70,13,51,-55,-40,50,76,-6
-63,-9,54,36,-58,22,44,-59,-39,46,81,-1
-30,26,56,1,-44,41,38,-64,-41,45,79,0
-16,37,53,-11,-35,45,31,-69,-39,45,83,1
-23,37,60,-8,-42,48,25,-72,-41,40,85,4
-30,57,87,-14,-59,71,30,-80,-38,37,74,5
-43,30,72,6,-58,51,31,-84,-48,32,60,0
-77,-16,61,46,-69,22,35,-91,-85,19,47,-28
-105,-55,50,80,-77,-3,38,-92,-94,10,42,-39
-130,-90,40,110,-85,-25,39,-98,-98,-4,35,-43
-125,-89,35,107,-80,-27,44,-100,-98,-9,32,-44
-108,-90,18,99,-63,-36,44,-104,-104,-12,23,-48
-113,-90,23,101,-68,-33,57,-105,-105,-17,22,-50
-88,-89,-1,88,-43,-45,49,-88,-104,-16,14,-51
-115,-99,17,107,-66,-41,70,-91,-109,-32,11,-62
-92,-160,-68,127,-12,-114,59,12,-49,-21,20,-28
11,-34,-44,12,28,-39,28,118,113,149,121,37
511,489,-22,-499,266,233,-384,55,349,614,592,483
1116,931,-185,-1022,650,373,-1105,-360,147,778,932,955
755,811,56,-783,349,433,-1064,-1061,-533,184,556,663
160,277,118,-219,20,197,-628,-1157,-826,-323,52,172
5,-66,-72,31,39,-69,-307,-605,-538,-274,-71,-7
-58,-115,-57,87,0,-86,-29,-219,-243,-130,-31,-53
-82,-129,-47,105,-17,-88,44,-120,-163,-87,-23,-59
-109,-123,-15,116,-46,-69,74,-95,-131,-59,-18,-61
-113,-122,-8,118,-52,-65,75,-85,-121,-54,-12,-59
-124,-120,4,122,-64,-58,77,-79,-122,-53,-7,-60
-131,-119,12,125,-71,-54,83,-72,-115,-48,-1,-60
-127,-115,12,121,-70,-51,82,-66,-113,-46,3,-58
-131,-108,23,119,-77,-42,88,-60,-109,-44,6,-53
-128,-104,24,115,-76,-40,83,-53,-105,-40,9,-50
-129,-96,33,112,-81,-31,86,-42,-97,-32,12,-47
-121,-85,36,103,-78,-24,84,-33,-91,-26,15,-42
-116,-72,43,94,-79,-14,85,-22,-85,-19,16,-39
-107,-59,48,83,-77,-5,85,-12,-74,-12,24,-33
-93,-37,56,65,-74,9,83,-3,-52,3,34,-23
-79,-8,71,43,-75,31,76,18,-33,20,41,-16
-44,31,75,6,-60,53,69,43,-15,47,59,-2
-28,51,78,-12,-53,64,63,65,0,75,82,28
0,82,82,-41,-41,82,56,88,29,96,108,53
29,113,84,-71,-28,99,50,108,52,120,134,71
29,130,101,-80,-36,116,45,111,50,123,146,79
53,157,104,-105,-26,130,45,102,50,118,143,73
59,156,96,-108,-19,126,43,96,47,117,137,70
59,153,94,-107,-18,124,40,89,44,112,134,67
70,158,88,-114,-10,123,40,83,46,111,129,62
61,146,85,-104,-12,115,42,76,27,107,125,60
34,114,79,-74,-23,96,45,59,2,84,108,49
-7,66,72,-30,-40,69,45,36,-14,52,79,25
-41,25,66,8,-54,45,49,13,-25,28,54,2
-51,8,59,21,-55,33,50,2,-50,12,37,-11
-54,-1,53,27,-53,26,50,-6,-68,2,31,-17
-71,-24,47,47,-58,11,55,-15,-69,-10,24,-24
-91,-47,45,68,-68,-1,55,-24,-75,-19,16,-31
-96,-51,45,73,-70,-2,55,-30,-78,-20,9,-38
-91,-50,41,70,-66,-4,55,-30,-81,-20,2,-38
-93,-54,39,73,-66,-7,54,-30,-84,-24,0,-34
-96,-55,41,76,-68,-7,57,-30,-86,-25,0,-35
-99,-55,44,76,-71,-5,64,-30,-91,-25,0,-35
-98,-49,49,74,-73,0,69,-30,-88,-25,0,-35
-95,-44,51,69,-73,3,75,-30,-85,-25,0,-35
-94,-39,56,66,-75,8,79,-30,-82,-25,-5,-39
-93,-33,60,63,-76,13,82,-30,-80,-25,-8,-44
-84,-26,58,55,-71,16,85,-30,-77,-25,-12,-46
-84,-30,54,56,-69,13,87,-30,-74,-28,-15,-51
-88,-36,52,62,-70,7,91,-35,-79,-33,-20,-55
-83,-34,49,59,-66,7,87,-35,-80,-37,-18,-55
-82,-36,46,59,-63,5,85,-35,-80,-40,-15,-55
-80,-34,45,56,-62,5,86,-35,-80,-40,-15,-55
-85,-36,49,61,-67,6,82,-34,-80,-40,-12,-55
-82,-30,53,56,-67,11,80,-37,-81,-40,-9,-55
-75,-20,55,47,-65,17,80,-40,-86,-40,-11,-54
-69,-8,60,39,-65,26,80,-43,-89,-40,-15,-51
-25,31,57,-3,-41,44,79,-46,-92,-40,-21,-49
-1,49,50,-24,-26,49,81,-50,-97,-40,-28,-48
-14,28,42,-7,-28,34,79,-50,-99,-39,-32,-42
-59,-23,36,41,-47,6,81,-55,-111,-54,-43,-54
-105,-78,27,91,-66,-25,77,-55,-121,-73,-65,-71
-114,-93,21,104,-67,-36,74,-61,-125,-80,-78,-76
-138,-117,21,128,-79,-47,77,-62,-126,-84,-80,-82
-133,-116,17,124,-74,-49,67,-66,-134,-89,-87,-87
-136,-111,25,124,-80,-43,76,-64,-133,-93,-86,-95
-137,-123,14,130,-75,-54,62,-48,-138,-95,-96,-98
-117,-98,19,107,-68,-39,88,-51,-130,-81,-91,-107
-85,-170,-85,128,0,-127,77,50,-83,-81,-85,-114
11,-65,-76,28,43,-70,66,154,53,44,-4,-43
474,409,-65,-441,269,172,-311,92,274,476,436,395
1130,855,-275,-992,702,290,-1066,-335,71,650,801,873
853,790,-64,-822,458,363,-1060,-1018,-565,112,463,635
203,272,69,-238,67,170,-624,-1123,-849,-363,-34,151
7,-79,-86,36,47,-82,-319,-600,-592,-330,-147,-49
-92,-151,-59,122,-16,-105,-40,-179,-286,-208,-135,-106
-81,-143,-62,113,-9,-102,41,-57,-192,-146,-131,-97
-103,-139,-36,121,-33,-87,81,-31,-171,-121,-119,-102
-128,-139,-11,134,-58,-75,87,-17,-159,-115,-116,-104
-127,-133,-7,130,-59,-70,86,-15,-156,-107,-106,-105
-141,-134,7,137,-74,-63,94,-9,-146,-102,-103,-105
-134,-125,9,129,-72,-58,92,-5,-141,-93,-97,-98
-141,-119,22,130,-81,-49,97,-1,-135,-89,-91,-95
-137,-113,24,125,-80,-44,88,5,-126,-82,-87,-89
-138,-105,32,121,-85,-36,91,13,-113,-76,-77,-85
-134,-99,36,116,-85,-31,90,18,-102,-69,-60,-80
-126,-83,42,104,-84,-20,90,27,-89,-62,-42,-75
-98,-50,48,74,-73,-2,91,38,-78,-57,-25,-67
-80,-28,53,54,-66,12,87,55,-63,-47,-17,-61
-63,-4,59,33,-61,27,81,79,-40,-29,-11,-53
-51,15,66,17,-59,40,76,97,-17,-6,-3,-28
-40,29,69,5,-54,49,71,123,3,24,19,2
-10,63,73,-26,-42,67,65,147,19,56,43,22
29,103,74,-67,-22,88,60,162,31,76,61,43
50,128,78,-89,-14,102,55,160,43,81,80,59
48,142,94,-95,-23,118,55,153,39,92,81,62
67,158,90,-113,-12,124,54,150,30,107,77,56
68,149,82,-109,-7,115,50,142,25,98,72,52
61,138,77,-100,-8,107,50,139,15,85,68,48
64,133,69,-99,-2,101,52,128,10,74,63,43
49,113,64,-82,-7,89,55,101,1,50,35,38
19,77,58,-48,-19,67,58,64,-11,24,3,13
-27,26,52,0,-40,39,61,33,-34,2,-22,-17
-63,-15,48,39,-55,16,64,12,-57,-14,-40,-37
-68,-27,41,47,-54,7,65,-1,-60,-24,-50,-58
-68,-32,36,50,-52,2,65,-7,-63,-30,-59,-66
-78,-40,38,59,-58,-1,65,-14,-66,-35,-60,-65
-89,-48,41,69,-65,-3,65,-21,-69,-40,-60,-65
-97,-53,44,75,-70,-5,65,-28,-70,-47,-65,-65
-98,-51,47,74,-72,-2,65,-28,-65,-48,-65,-65
-98,-48,50,73,-74,1,67,-24,-62,-45,-65,-61
-94,-45,49,70,-71,1,72,-25,-58,-42,-65,-60
-87,-43,44,64,-65,1,75,-21,-55,-40,-65,-60
-80,-39,41,59,-60,1,78,-20,-50,-37,-65,-60
-77,-40,38,58,-57,-1,83,-20,-52,-34,-65,-60
-61,-27,33,43,-47,3,86,-20,-55,-39,-65,-61
-70,-41,29,55,-49,-6,90,-20,-55,-45,-68,-65
-107,-67,40,87,-73,-14,90,-20,-59,-51,-73,-68
-110,-64,46,87,-78,-9,91,-20,-60,-54,-76,-70
-110,-65,44,87,-76,-11,95,-20,-60,-50,-79,-73
-110,-65,46,87,-77,-10,95,-18,-55,-50,-84,-76
-110,-66,45,87,-77,-10,93,-15,-55,-48,-84,-72
-109,-63,46,85,-77,-9,89,-11,-53,-44,-79,-68
-105,-56,50,80,-77,-3,85,-9,-50,-46,-76,-64
-100,-50,50,75,-75,0,82,-6,-50,-41,-73,-61
-93,-42,51,67,-72,4,77,-4,-50,-40,-68,-56
-93,-37,56,64,-74,9,75,-12,-50,-40,-65,-56
-69,-14,55,41,-62,20,75,-20,-50,-34,-68,-62
-43,10,53,16,-48,31,75,-28,-51,-36,-72,-65
-28,18,46,4,-38,32,75,-36,-48,-32,-73,-71
-62,-24,38,43,-50,7,74,-43,-70,-52,-79,-73
-108,-73,35,91,-71,-19,76,-46,-87,-85,-97,-82
-107,-85,22,95,-64,-31,75,-47,-89,-90,-107,-93
-140,-115,24,127,-82,-45,83,-53,-97,-90,-111,-97
-135,-126,9,130,-72,-58,77,-51,-93,-89,-116,-93
-135,-122,13,128,-74,-54,86,-60,-99,-92,-120,-96
-134,-135,-1,134,-67,-68,85,-42,-98,-87,-124,-94
-124,-125,-1,125,-61,-63,82,-45,-103,-98,-123,-94
-143,-159,-16,151,-63,-88,103,-3,-81,-96,-111,-111
-84,-165,-82,125,-1,-123,99,131,9,-46,-109,-112
133,128,-5,-130,69,61,-26,154,209,224,133,114
881,655,-226,-768,553,214,-703,-85,250,597,625,679
1125,870,-254,-998,690,308,-1155,-728,-245,384,640,815
459,534,75,-497,192,304,-805,-1184,-748,-213,129,341
94,68,-27,-81,61,20,-458,-881,-709,-412,-177,6
-52,-140,-88,96,18,-114,-161,-346,-378,-273,-184,-101
-92,-140,-49,116,-21,-94,31,-86,-169,-169,-155,-109
-82,-139,-56,111,-13,-97,69,-35,-122,-140,-146,-101
-122,-142,-19,132,-52,-80,101,-17,-97,-119,-143,-108
-120,-139,-19,130,-51,-78,92,-9,-93,-110,-138,-102
-140,-141,-1,141,-69,-71,102,-6,-86,-100,-134,-106
-133,-133,1,133,-67,-65,101,2,-78,-90,-129,-99
-137,-126,12,131,-74,-57,106,6,-73,-83,-124,-98
-137,-120,18,128,-77,-51,103,11,-66,-77,-118,-94
-132,-109,23,120,-77,-42,97,20,-59,-73,-111,-91
-112,-80,32,96,-72,-24,96,30,-49,-66,-104,-90
-98,-61,36,79,-67,-12,91,42,-41,-62,-97,-85
-99,-54,45,76,-72,-4,88,54,-31,-52,-88,-76
-96,-46,50,71,-73,1,84,67,-14,-39,-78,-68
-86,-31,55,58,-70,11,80,93,12,-23,-63,-58
-57,2,58,27,-57,30,72,119,27,-4,-44,-35
-12,50,61,-19,-37,55,66,133,45,26,-15,-12
3,69,66,-36,-32,67,59,154,67,61,12,8
22,91,69,-56,-24,80,53,175,78,76,33,33
73,146,73,-109,0,109,47,177,81,84,51,50
73,154,81,-114,-4,117,45,172,80,94,60,52
56,145,89,-101,-16,117,45,170,80,99,65,49
75,160,85,-118,-5,122,41,165,80,93,59,51
90,167,77,-128,6,122,39,162,80,86,53,49
96,166,71,-131,12,119,40,158,73,79,46,51
80,144,64,-113,8,104,45,146,62,73,40,48
30,88,58,-59,-14,72,50,131,53,58,28,20
-2,50,52,-24,-27,51,54,118,42,28,-9,-13
-34,16,50,9,-42,33,58,101,32,9,-27,-37
-65,-18,47,41,-55,14,63,85,24,-8,-31,-46
-70,-25,44,47,-57,9,65,77,15,-19,-40,-44
-73,-33,40,53,-57,4,65,73,6,-20,-45,-48
-80,-40,40,60,-60,0,68,67,0,-24,-53,-50
-92,-47,45,69,-68,-1,71,61,0,-26,-55,-50
-99,-54,45,76,-72,-5,69,56,-1,-30,-55,-50
-105,-60,45,82,-75,-7,66,59,-5,-29,-55,-50
-105,-60,45,82,-75,-7,65,65,-5,-25,-55,-50
-105,-60,45,82,-75,-7,65,70,-3,-25,-55,-50
-103,-60,43,81,-73,-9,65,77,4,-25,-56,-50
-99,-59,39,79,-69,-10,65,80,11,-25,-59,-51
-103,-63,40,83,-71,-11,65,80,18,-25,-62,-56
-101,-65,36,83,-68,-14,65,80,24,-28,-65,-59
-100,-65,35,82,-67,-15,65,80,21,-33,-67,-62
-100,-65,35,82,-67,-15,65,80,20,-36,-71,-67
-100,-65,35,82,-67,-15,65,84,20,-39,-67,-70
-99,-64,35,81,-67,-14,64,85,20,-44,-64,-67
-95,-61,35,78,-65,-13,61,85,19,-44,-66,-64
-90,-54,36,72,-62,-9,60,85,22,-39,-61,-62
-86,-51,34,68,-60,-8,61,85,29,-34,-60,-58
-84,-46,38,65,-60,-4,60,84,35,-30,-59,-56
-82,-41,40,62,-61,0,60,80,40,-25,-56,-54
-77,-37,40,57,-58,1,62,80,35,-20,-53,-50
-63,-23,40,43,-51,8,66,80,28,-24,-51,-51
-56,-15,41,36,-48,13,65,80,25,-31,-47,-47
-33,18,50,7,-42,34,65,80,17,-38,-45,-45
-6,38,44,-16,-25,40,66,76,13,-44,-44,-44
-37,-4,32,20,-34,14,64,73,7,-52,-46,-50
-82,-55,28,68,-55,-13,72,68,1,-56,-55,-58
-86,-74,13,80,-49,-30,68,68,-6,-62,-63,-65
-104,-80,24,92,-64,-28,72,58,-13,-66,-64,-79
-134,-118,15,126,-74,-51,68,64,-18,-69,-68,-81
-138,-114,24,126,-81,-44,70,63,-28,-77,-73,-76
-134,-117,16,125,-75,-50,74,77,-14,-75,-74,-68
-147,-125,23,136,-85,-51,77,75,-15,-93,-82,-68
-120,-116,4,118,-62,-56,97,92,4,-77,-76,-53
-90,-169,-79,130,-5,-124,73,236,88,-36,-78,-64
93,84,-9,-88,51,38,-10,289,277,200,129,91
821,613,-208,-717,514,202,-619,81,359,585,620,634
1167,900,-266,-1033,716,317,-1157,-538,-74,451,716,855
582,629,47,-605,267,337,-870,-1071,-620,-131,238,423
118,118,1,-118,58,59,-493,-824,-641,-391,-111,54
-9,-100,-92,55,42,-96,-188,-276,-307,-259,-140,-48
-60,-146,-87,104,14,-116,16,11,-86,-160,-124,-86
-81,-140,-60,110,-10,-100,53,84,-27,-128,-113,-85
-121,-131,-10,126,-56,-70,79,96,-8,-99,-105,-85
-127,-131,-3,129,-62,-67,74,107,2,-91,-102,-85
-130,-120,10,125,-70,-55,83,111,13,-81,-95,-85
-128,-119,9,123,-68,-55,83,117,22,-77,-90,-85
-129,-110,19,119,-74,-46,89,122,31,-69,-85,-80
-129,-107,22,117,-75,-42,89,129,37,-63,-79,-75
-127,-99,27,113,-77,-36,84,135,43,-57,-74,-70
-130,-96,34,113,-82,-31,83,146,52,-48,-68,-66
-121,-83,39,102,-80,-22,79,158,62,-40,-63,-62
-112,-66,45,89,-78,-10,77,168,70,-31,-56,-56
-98,-48,50,73,-74,1,74,187,79,-19,-45,-44
-92,-35,56,63,-74,10,71,204,97,-5,-32,-28
-69,-7,62,38,-66,28,64,222,119,11,-19,-7
-40,28,68,6,-54,48,58,243,132,32,6,12
-8,63,71,-28,-40,67,51,262,148,56,39,38
22,96,74,-60,-26,85,45,267,170,79,59,61
45,123,78,-84,-17,100,39,264,172,82,62,73
88,168,80,-128,4,124,35,266,170,80,60,86
91,166,75,-129,7,121,35,264,170,81,60,85
84,156,71,-120,6,113,35,265,165,76,56,77
84,153,69,-119,8,110,35,262,165,75,55,72
78,143,64,-111,7,103,35,254,164,75,55,63
78,139,61,-109,9,100,39,247,155,66,50,59
48,105,57,-77,-5,81,40,241,147,54,50,49
13,68,55,-41,-21,61,40,223,138,41,49,24
-9,43,52,-17,-30,47,45,203,130,25,45,5
-22,27,49,-2,-36,38,45,194,123,9,46,-5
-30,16,46,6,-38,31,46,187,116,-1,43,-18
-42,3,45,19,-43,23,50,180,108,-6,32,-27
-55,-10,45,32,-50,18,50,172,100,-11,24,-30
-63,-18,45,40,-53,13,50,166,97,-17,15,-30
-67,-22,45,44,-56,11,50,170,99,-23,5,-30
-73,-28,45,50,-58,8,50,174,103,-25,0,-30
-79,-34,45,56,-62,5,54,179,105,-25,-4,-30
-84,-39,45,61,-64,3,55,183,108,-25,-6,-30
-82,-37,45,59,-63,4,55,188,110,-25,-11,-30
-80,-35,45,57,-62,5,60,190,106,-25,-14,-30
-80,-35,45,57,-62,5,60,190,105,-26,-18,-30
-80,-35,45,57,-62,5,60,190,105,-29,-28,-30
-79,-35,44,56,-61,5,60,190,105,-33,-36,-32
-77,-36,40,57,-58,2,60,189,106,-36,-45,-35
-77,-40,36,58,-57,-1,60,185,103,-39,-55,-38
-73,-40,33,56,-53,-3,60,185,100,-40,-59,-41
-70,-40,30,55,-50,-5,60,184,97,-40,-62,-44
-65,-40,25,52,-45,-7,64,180,95,-40,-65,-45
-68,-40,28,54,-48,-6,65,179,91,-40,-67,-40
-72,-36,36,54,-54,0,65,182,89,-41,-71,-40
-71,-27,44,49,-57,9,65,185,94,-39,-68,-41
-70,-19,51,45,-60,16,65,185,101,-36,-63,-40
-67,-11,56,39,-61,23,64,188,107,-33,-60,-41
-67,-4,63,35,-64,29,57,191,114,-30,-56,-37
-51,12,63,19,-58,37,53,189,123,-28,-53,-35
-26,33,59,-4,-43,46,47,186,121,-24,-49,-35
-3,53,56,-26,-30,55,41,181,112,-28,-51,-32
-2,53,55,-26,-29,54,37,179,106,-36,-48,-29
-42,7,49,18,-45,27,37,175,98,-44,-58,-31
-96,-43,53,69,-74,5,43,169,91,-51,-83,-46
-117,-66,51,91,-84,-7,41,174,84,-56,-93,-62
-129,-71,59,99,-94,-5,50,173,79,-62,-106,-71
-122,-70,51,96,-87,-9,47,179,81,-66,-111,-69
-135,-78,57,106,-96,-10,52,170,78,-65,-109,-72
-151,-95,56,123,-103,-19,39,181,82,-65,-112,-67
-133,-91,42,112,-87,-25,34,167,78,-65,-106,-73
-118,-108,10,113,-64,-48,26,204,82,-65,-128,-61
-64,-113,-48,89,-8,-80,16,350,175,-39,-131,-41
167,164,-3,-165,84,81,-79,369,376,236,138,156
918,701,-217,-809,567,242,-743,116,405,603,616,709
1146,926,-219,-1036,683,353,-1179,-530,-73,393,631,842
474,578,104,-526,185,341,-831,-973,-565,-194,135,372
85,112,26,-99,29,69,-480,-648,-515,-381,-165,45
-47,-98,-50,73,2,-74,-183,-118,-191,-243,-179,-68
-74,-110,-36,93,-19,-73,-8,135,8,-148,-155,-84
-80,-104,-23,92,-28,-63,27,184,47,-111,-146,-79
-108,-101,7,105,-58,-47,54,194,73,-98,-146,-88
-117,-94,22,105,-69,-36,46,206,90,-92,-141,-86
-146,-92,54,119,-100,-19,57,211,88,-83,-138,-93
-134,-86,48,110,-90,-19,55,216,95,-76,-134,-84
-138,-82,56,110,-96,-13,61,220,105,-69,-131,-77
-129,-73,56,101,-93,-8,59,224,112,-64,-126,-69
-124,-65,59,95,-91,-3,54,231,116,-59,-124,-61
-118,-56,62,86,-89,3,56,244,124,-52,-119,-55
-114,-48,65,81,-89,8,52,255,123,-48,-116,-47
-107,-36,71,72,-89,17,50,265,140,-41,-112,-42
-104,-30,74,66,-89,22,50,282,157,-27,-103,-37
-89,-9,80,49,-84,35,46,300,171,-13,-92,-24
-49,35,84,6,-66,59,37,324,199,1,-79,-2
-12,73,85,-31,-49,79,29,351,217,22,-57,26
19,105,86,-63,-34,95,21,365,235,48,-27,42
40,132,92,-86,-27,112,14,370,254,76,5,59
52,150,98,-101,-23,123,10,370,265,101,24,81
65,169,104,-117,-20,136,6,372,265,106,25,81
101,209,108,-155,-4,158,3,375,265,104,25,77
107,211,104,-159,1,157,-2,375,265,102,25,75
94,195,101,-144,-4,148,-5,371,265,99,25,71
93,190,97,-142,-3,144,-2,359,262,101,25,70
60,154,93,-108,-17,123,4,350,250,88,14,65
21,111,90,-66,-35,100,8,339,239,72,-11,55
-7,79,87,-36,-47,83,12,324,227,54,-45,45
-21,63,84,-22,-53,73,18,307,219,28,-72,17
-22,59,81,-19,-52,70,20,295,213,12,-87,-5
-25,54,78,-15,-52,66,20,289,206,6,-95,-8
-27,48,75,-11,-51,61,20,282,199,-1,-98,-14
-34,43,76,-5,-55,59,20,276,192,-9,-101,-17
-43,37,80,3,-62,58,20,268,192,-17,-105,-23
-45,35,80,5,-63,57,20,266,195,-18,-110,-24
-45,35,80,5,-63,57,23,271,195,-15,-108,-20
-49,31,80,9,-65,56,26,274,195,-12,-104,-20
-50,30,80,10,-65,55,29,277,195,-9,-105,-20
-47,30,77,8,-62,53,32,282,195,-6,-105,-20
-50,24,74,12,-62,49,35,285,195,-5,-105,-20
-52,19,71,17,-62,45,35,285,195,-10,-106,-24
-54,14,68,20,-62,41,35,285,195,-10,-109,-25
-57,7,65,24,-61,36,35,285,194,-10,-112,-25
-63,3,66,30,-65,34,35,285,196,-10,-114,-30
-73,-3,70,38,-71,34,35,285,192,-10,-118,-30
-76,-7,69,41,-72,31,35,285,190,-13,-120,-30
-82,-10,72,46,-77,31,35,285,190,-15,-120,-30
-89,-13,76,51,-82,31,35,285,186,-15,-120,-30
-92,-17,74,54,-83,28,35,285,184,-15,-120,-30
-97,-21,76,58,-86,27,34,285,185,-15,-120,-30
-87,-13,74,50,-80,30,36,285,190,-14,-120,-30
-87,-9,77,48,-82,34,32,281,189,-11,-119,-26
-81,3,84,38,-82,44,32,279,196,-4,-114,-19
-53,32,86,10,-70,59,26,280,212,-1,-102,-15
-27,58,85,-16,-56,71,26,280,220,4,-97,-9
-2,83,85,-41,-44,84,22,280,223,8,-82,-3
-7,106,112,-50,-60,109,18,279,218,13,-57,-2
-23,95,118,-37,-71,107,30,274,215,25,-48,-7
-45,50,95,-2,-70,72,41,269,212,48,-58,-19
-72,15,87,28,-80,51,83,264,207,60,-61,-18
-96,-13,83,54,-89,35,97,260,204,59,-68,-38
-113,-31,82,72,-97,25,163,255,200,93,-111,-43
-113,-36,77,74,-95,21,82,252,195,101,-105,-60
-111,-34,76,72,-93,21,-112,249,191,101,-98,-50
-103,-36,67,69,-85,16,-68,251,189,75,-77,-82
