I,II,III,aVR,aVL,aVF,V1,V2,V3,V4,V5,V6
-9,20,29,-5,-19,24,-5,15,0,-105,-145,-110
-7,31,38,-12,-23,34,-2,21,3,-106,-146,-110
-14,41,55,-14,-35,48,17,45,18,-101,-149,-107
-22,7,29,7,-26,18,37,66,38,-99,-153,-104
-9,-2,7,6,-8,2,48,93,53,-96,-155,-101
4,-6,-10,2,7,-8,72,129,66,-93,-161,-99
-22,-41,-20,32,-1,-31,85,151,66,-108,-167,-96
-27,-61,-34,44,4,-47,96,173,66,-124,-184,-93
-36,-74,-38,55,1,-56,106,189,64,-152,-203,-91
-30,-72,-43,51,7,-58,115,197,66,-155,-201,-87
-6,-41,-35,24,15,-38,121,201,68,-140,-181,-85
23,-23,-45,0,34,-34,105,208,108,-83,-125,-82
39,-6,-44,-16,42,-25,48,203,122,-15,-66,-66
23,8,-15,-15,19,-4,-20,135,83,-20,-47,-54
42,11,-31,-26,36,-10,-21,44,52,-2,-33,-44
31,6,-25,-18,28,-9,4,8,9,-40,-61,-43
39,-9,-49,-15,44,-29,8,3,17,-9,-45,-39
10,-8,-18,-1,14,-13,16,-24,-24,-57,-68,-33
5,-35,-41,15,23,-38,38,50,51,-16,-65,-51
18,-17,-35,-1,27,-26,107,192,184,95,-61,-73
151,112,-38,-131,94,37,65,428,706,725,466,142
357,382,26,-370,165,204,-160,177,807,1453,1455,651
-22,479,501,-229,-261,490,-200,-886,-929,-250,750,743
-218,189,407,14,-313,298,-138,-1192,-1665,-1455,-277,457
24,29,5,-27,10,17,-117,-498,-586,-472,-66,262
9,-26,-35,9,22,-30,32,-28,-44,-79,-51,35
3,-105,-108,51,56,-106,100,88,61,6,-78,-53
8,-109,-117,51,62,-113,58,108,90,40,-53,-45
29,-102,-131,36,80,-116,29,112,89,32,-60,-54
62,-89,-152,13,107,-120,12,97,101,60,-33,-49
13,-102,-115,44,64,-108,13,61,89,31,-47,-58
-8,-70,-62,40,27,-66,14,53,100,57,-28,-47
1,-59,-60,29,31,-59,24,59,91,36,-34,-43
7,-61,-68,27,38,-64,28,62,98,51,-24,-38
3,-51,-53,24,28,-52,37,73,103,59,-18,-32
4,-51,-55,24,30,-53,40,82,118,85,-5,-24
4,-43,-47,20,26,-45,41,98,146,124,15,-14
5,-39,-44,17,25,-41,50,118,173,158,53,-7
14,-27,-41,6,28,-34,44,141,204,192,95,15
25,-18,-43,-3,35,-30,31,149,227,229,137,46
40,-11,-50,-14,45,-31,24,140,232,261,185,72
42,-5,-47,-18,45,-26,1,124,227,277,219,100
54,13,-40,-33,47,-13,-22,113,224,273,244,114
76,17,-60,-46,68,-21,-32,102,223,270,258,122
87,-12,-99,-37,94,-55,-59,93,209,253,229,113
80,-48,-128,-16,104,-88,-74,83,172,196,167,81
26,-89,-115,31,71,-101,-54,78,117,114,75,51
0,-108,-108,54,54,-107,-13,83,78,77,37,24
-21,-106,-86,64,33,-96,32,75,63,45,8,-8
-27,-119,-92,73,33,-105,63,88,68,42,-4,-36
-51,-118,-66,85,8,-92,65,69,54,52,-1,-29
-39,-122,-83,81,22,-102,85,111,93,34,-52,-50
5,-118,-123,56,64,-120,173,281,241,135,-61,-99
81,-22,-103,-29,91,-62,155,498,559,400,101,-16
275,221,-54,-248,165,84,-35,374,758,1098,1041,451
10,420,410,-215,-200,415,-140,-538,-298,490,1113,732
-288,245,533,21,-411,389,-136,-1157,-1410,-1070,-54,470
-93,32,125,30,-109,78,-151,-655,-804,-710,-154,299
2,-39,-41,19,21,-40,-81,-97,-108,-105,-26,116
-24,-140,-116,82,46,-127,14,8,-49,-143,-141,-51
-38,-153,-116,96,39,-134,24,31,7,-47,-102,-43
-34,-147,-113,91,40,-130,32,41,-2,-84,-144,-56
-39,-144,-105,92,33,-124,51,70,18,-39,-112,-69
-43,-155,-112,100,35,-133,78,95,45,-41,-128,-98
-19,-146,-127,83,54,-137,98,109,70,-25,-116,-95
-23,-108,-85,66,31,-97,94,132,85,-12,-114,-92
-27,-121,-94,74,34,-107,92,156,99,-9,-119,-93
-26,-114,-88,70,32,-101,90,178,115,7,-118,-87
-15,-107,-91,61,38,-99,87,174,123,-6,-122,-97
-17,-106,-89,61,36,-97,75,179,137,-6,-120,-100
-8,-104,-96,56,44,-99,63,180,125,-18,-127,-91
11,-106,-117,48,65,-112,53,169,115,-21,-124,-77
-1,-104,-103,52,51,-103,20,166,103,-30,-120,-65
-15,-106,-91,61,38,-98,-11,153,92,-24,-105,-49
-5,-87,-82,46,39,-84,-10,128,83,-10,-96,-43
17,-62,-79,23,48,-70,-6,109,74,-5,-59,-46
1,-70,-71,35,36,-70,-6,94,67,-1,-37,-44
-14,-81,-68,48,27,-74,16,87,52,0,-43,-46
-10,-69,-60,40,25,-64,39,83,43,9,-36,-51
-6,-70,-64,38,29,-67,58,87,44,-1,-50,-52
7,-59,-66,27,37,-62,79,83,47,13,-38,-48
11,-56,-67,23,39,-61,82,87,46,-3,-54,-51
11,-65,-76,27,44,-70,82,85,54,13,-45,-49
-4,-75,-71,40,34,-73,86,90,44,1,-63,-51
35,-80,-115,23,75,-97,95,174,90,19,-83,-92
42,-25,-66,-8,54,-45,113,301,229,98,-79,-82
196,108,-88,-152,141,10,-36,367,518,557,447,187
277,370,93,-324,92,231,-284,-183,252,987,1276,623
-107,352,460,-123,-284,406,-261,-1136,-1109,-389,566,627
-132,112,243,10,-188,177,-232,-1176,-1463,-1266,-278,336
42,50,8,-46,17,29,-213,-456,-494,-401,-93,141
-40,-38,1,39,-20,-18,-30,-64,-101,-124,-121,-47
-19,-87,-67,53,25,-77,30,6,-45,-102,-117,-94
-23,-103,-80,63,28,-91,53,36,14,-72,-115,-93
-24,-119,-94,72,35,-106,74,46,7,-90,-135,-116
-19,-98,-79,59,30,-89,74,66,28,-48,-114,-115
-18,-102,-83,60,33,-92,92,86,37,-61,-130,-123
13,-88,-101,38,57,-94,89,105,62,-25,-111,-118
-13,-87,-74,51,31,-80,100,109,64,-29,-120,-121
-23,-84,-61,54,19,-73,103,127,92,-8,-111,-119
-13,-86,-73,50,31,-79,95,160,118,6,-100,-121
5,-80,-85,38,45,-82,63,190,147,44,-85,-116
41,-49,-89,4,65,-69,14,204,164,65,-81,-106
53,-34,-87,-9,71,-61,-25,204,148,48,-77,-100
46,-35,-82,-5,65,-58,-31,181,134,34,-71,-90
26,-34,-61,4,44,-47,-22,136,112,18,-69,-85
7,-36,-43,15,26,-39,-21,105,89,17,-62,-77
17,-32,-49,8,33,-40,-14,94,73,7,-53,-72
26,-30,-56,3,41,-43,-11,87,72,6,-40,-65
30,-30,-60,0,45,-45,-5,48,48,-2,-40,-57
46,-30,-76,-7,61,-53,3,31,15,-7,-45,-50
35,-40,-75,3,55,-57,11,29,-7,-16,-54,-40
22,-51,-73,15,48,-62,25,30,-26,-41,-56,-37
26,-47,-73,11,50,-60,39,31,-24,-24,-41,-31
23,-41,-64,9,44,-52,49,26,-15,-36,-55,-53
14,-65,-79,26,47,-72,54,38,20,9,-27,-57
-1,-64,-63,33,32,-64,55,32,15,-24,-58,-69
58,-66,-124,4,91,-95,74,141,114,44,-46,-102
86,-36,-122,-24,104,-79,98,261,219,134,-34,-94
280,143,-137,-211,208,3,5,445,677,745,544,150
415,375,-41,-395,228,167,-207,166,735,1370,1392,603
-1,419,420,-209,-211,419,-246,-930,-843,-206,568,624
-149,213,361,-32,-255,287,-214,-1290,-1550,-1296,-344,346
22,69,47,-46,-13,58,-242,-624,-640,-505,-134,182
45,37,-8,-41,26,15,-115,-153,-149,-152,-97,30
68,-12,-80,-27,74,-46,-21,-55,-69,-84,-106,-37
31,-40,-71,5,51,-55,-14,-28,-38,-81,-110,-48
21,-62,-83,21,52,-72,6,-10,-29,-85,-115,-53
32,-61,-94,14,63,-77,10,-9,-12,-64,-109,-46
25,-59,-84,17,55,-72,27,-2,-2,-75,-120,-59
26,-60,-87,18,56,-73,41,20,14,-46,-101,-98
48,-54,-103,3,76,-79,45,54,37,-37,-107,-118
64,-56,-119,-3,92,-88,21,63,57,-4,-93,-122
59,-53,-112,-2,86,-83,10,74,65,10,-93,-120
73,-43,-116,-15,95,-79,8,102,104,43,-85,-96
78,-30,-107,-24,93,-68,6,119,127,53,-77,-82
79,-22,-101,-28,90,-62,-4,151,145,62,-70,-73
76,-17,-93,-30,85,-55,-53,164,160,74,-60,-61
84,-14,-98,-35,91,-55,-55,153,151,68,-55,-47
118,13,-105,-66,112,-46,-26,142,143,71,-41,-33
144,48,-96,-96,120,-24,-19,131,133,69,-34,-24
134,41,-93,-87,113,-26,-9,110,129,62,-37,-22
89,3,-87,-46,88,-42,-1,73,108,55,-32,-13
54,-25,-79,-14,67,-52,9,46,65,43,-38,-29
56,-33,-89,-12,73,-60,27,30,45,37,-31,-58
48,-46,-93,0,71,-69,24,15,26,25,-41,-58
43,-59,-102,8,73,-80,7,9,11,8,-62,-54
47,-56,-103,5,75,-80,-9,-10,-16,-7,-70,-55
70,-38,-107,-16,89,-72,-25,-24,-26,-17,-78,-52
72,-31,-103,-20,88,-66,-25,-42,-27,-15,-58,-48
61,-45,-105,-7,83,-75,-24,-27,-22,-32,-70,-53
79,-27,-107,-26,93,-67,-49,-30,-18,3,-37,-38
65,-36,-101,-14,83,-68,-51,-24,-14,-13,-76,-44
87,-54,-141,-16,115,-98,9,103,93,48,-108,-72
106,-4,-110,-51,108,-56,47,296,312,205,-53,-71
277,155,-122,-216,199,16,-24,458,767,866,657,234
269,431,162,-350,53,296,-123,-105,414,1151,1377,679
-145,378,523,-117,-335,451,-97,-1087,-1018,-388,448,595
-143,112,255,15,-199,183,-97,-1079,-1233,-1027,-249,311
64,62,-2,-64,33,30,-117,-380,-366,-265,-59,141
36,-13,-48,-12,42,-30,-23,-49,-60,-105,-118,-44
18,-61,-79,22,49,-70,19,-14,-26,-53,-98,-95
5,-50,-56,23,31,-53,18,19,-5,-40,-116,-96
-24,-87,-64,56,20,-75,15,26,-7,-48,-111,-99
-43,-95,-52,70,5,-74,8,32,5,-29,-117,-87
-64,-109,-45,87,-9,-77,6,29,6,-42,-132,-78
-68,-97,-30,83,-19,-63,-1,30,26,-23,-111,-68
-53,-68,-16,61,-18,-42,4,30,35,-30,-117,-57
-64,-66,-2,65,-30,-34,12,33,51,-7,-100,-61
-76,-63,13,69,-44,-25,40,78,79,-1,-100,-100
-75,-50,25,62,-50,-12,74,123,122,27,-92,-107
-78,-41,37,59,-57,-2,100,158,157,54,-89,-96
-80,-34,46,57,-63,5,106,189,169,60,-85,-89
-79,-28,51,54,-65,12,106,204,166,61,-82,-77
-75,-26,50,51,-62,11,91,204,156,60,-77,-68
-73,-23,50,48,-61,13,50,192,147,60,-75,-58
-67,-23,44,44,-55,10,32,172,139,59,-64,-50
-62,-15,46,38,-54,15,22,145,131,64,-43,-42
-83,-42,42,62,-62,0,9,112,111,63,-39,-44
-111,-72,40,91,-75,-16,8,59,73,55,-30,-45
-106,-70,36,88,-71,-17,17,32,56,38,-32,-45
-97,-69,28,83,-63,-21,22,23,47,35,-19,-43
-100,-70,29,84,-64,-20,30,24,42,22,-25,-56
-86,-71,15,78,-51,-28,38,28,49,36,-16,-68
-92,-67,25,80,-59,-21,57,19,34,19,-22,-62
-76,-75,1,75,-38,-37,61,35,49,25,-22,-64
-71,-62,9,66,-40,-26,57,16,28,21,-12,-55
-54,-86,-32,70,-11,-59,91,102,83,23,-46,-73
-42,-71,-28,57,-7,-49,110,220,202,121,-74,-121
49,23,-25,-36,37,-1,74,376,493,417,225,34
237,260,23,-248,107,141,-110,153,600,1135,1212,528
-83,421,504,-169,-294,462,-215,-886,-710,166,947,726
-265,207,472,28,-369,339,-197,-1283,-1620,-1327,-219,454
-8,74,82,-33,-45,77,-228,-626,-737,-625,-151,250
-39,15,55,12,-47,35,-98,-139,-102,-74,-59,71
-84,-59,25,71,-54,-17,13,-25,-43,-106,-124,-45
-76,-36,40,56,-58,2,29,-8,-2,-24,-78,-76
-79,-52,26,65,-52,-13,58,21,-1,-64,-119,-116
-71,-54,17,62,-43,-19,52,47,50,-15,-82,-112
-58,-53,5,55,-31,-24,62,69,47,-38,-105,-116
-36,-70,-33,53,-1,-51,59,93,63,-17,-89,-115
-49,-76,-27,63,-11,-51,60,96,77,-17,-93,-115
-33,-66,-33,50,0,-49,60,109,70,-15,-91,-116
-24,-53,-28,38,2,-40,60,121,98,6,-85,-107
-31,-63,-32,47,1,-47,57,133,125,27,-87,-99
-43,-72,-29,58,-7,-50,41,141,139,57,-78,-84
-39,-66,-28,53,-5,-47,29,150,154,79,-54,-55
-43,-66,-23,55,-10,-44,18,155,162,94,-34,-38
-29,-52,-22,40,-3,-37,27,160,186,106,-22,-33
-2,-18,-15,10,7,-16,47,168,191,110,-5,-24
-10,17,28,-4,-19,22,45,161,189,119,4,-18
-13,29,42,-9,-28,35,42,153,193,123,33,-11
-19,10,29,4,-24,19,40,137,170,100,47,-21
-29,-5,24,17,-26,9,35,103,124,96,39,-39
-37,-17,20,27,-28,2,36,75,79,41,12,-51
-35,-31,4,33,-19,-13,28,64,60,32,5,-62
-54,-46,8,50,-31,-18,24,44,24,9,-16,-70
-23,-62,-39,43,8,-50,16,48,24,5,-16,-71
-3,-54,-51,29,24,-52,9,11,-10,-1,-26,-69
-2,-75,-73,39,36,-74,-4,34,30,-5,-40,-71
17,-83,-100,33,59,-91,19,153,127,67,-59,-89
50,-4,-54,-23,51,-28,45,328,454,393,156,-2
247,236,-11,-241,129,112,-95,265,799,1325,1228,461
19,439,421,-229,-201,430,-159,-612,-480,336,1108,751
-272,249,521,11,-397,385,-131,-1182,-1672,-1428,-145,539
-57,56,113,0,-85,84,-168,-649,-855,-747,-103,382
-28,8,37,10,-33,22,-57,-131,-152,-121,-5,167
-90,-77,14,83,-52,-31,44,-12,-69,-128,-145,-40
-75,-81,-6,78,-35,-43,47,20,-3,-44,-91,-85
-75,-79,-3,77,-36,-41,60,33,-16,-100,-133,-128
-55,-82,-27,69,-14,-54,51,41,3,-48,-104,-115
-47,-78,-31,63,-8,-54,43,42,-3,-73,-128,-116
-28,-82,-54,56,13,-68,28,50,7,-51,-116,-113
-33,-85,-52,59,9,-68,14,57,15,-49,-120,-107
-38,-87,-49,63,6,-68,11,54,30,-32,-122,-118
-41,-80,-38,61,-1,-59,3,49,44,-10,-118,-120
-46,-76,-30,61,-7,-53,19,75,71,3,-120,-118
-60,-81,-21,71,-19,-50,49,121,113,22,-109,-113
-82,-91,-9,87,-37,-50,49,148,136,28,-112,-110
-88,-90,-3,89,-42,-46,42,163,144,47,-104,-105
-99,-89,10,93,-54,-39,38,167,137,42,-103,-103
-102,-93,9,97,-56,-41,31,161,133,37,-97,-99
-78,-73,5,76,-42,-34,27,161,130,28,-87,-96
-49,-41,7,45,-28,-17,20,147,107,23,-71,-93
-20,-22,-2,21,-9,-11,10,103,64,14,-67,-89
-23,-42,-18,33,-2,-30,-16,62,26,-3,-73,-86
-42,-67,-26,55,-8,-47,-28,19,-10,-13,-66,-84
-30,-74,-44,52,7,-59,-18,-8,-31,-41,-76,-85
-35,-66,-31,51,-2,-48,-14,-18,-37,-36,-63,-79
-48,-68,-20,59,-14,-44,-5,-12,-34,-47,-77,-81
-31,-64,-32,48,1,-48,1,-17,-36,-20,-53,-82
-39,-63,-24,52,-7,-43,26,-1,-27,-22,-51,-83
-37,-111,-75,74,19,-93,69,98,47,4,-85,-122
-42,-81,-39,62,-1,-60,116,262,224,116,-131,-168
115,50,-65,-83,90,-7,36,430,621,640,422,95
171,359,188,-265,-9,273,-153,-71,321,1104,1387,616
-200,409,609,-105,-405,509,-148,-1000,-1076,-317,662,644
-177,143,319,17,-249,231,-170,-1016,-1363,-1207,-258,358
32,61,29,-47,2,44,-217,-387,-435,-341,-39,187
-44,-31,12,38,-28,-10,-81,-60,-96,-110,-101,-12
-10,-62,-51,36,21,-56,-33,-4,-53,-80,-115,-84
17,-33,-50,9,33,-41,-33,3,-8,-40,-100,-68
18,-40,-58,11,38,-49,0,19,-6,-63,-122,-67
20,-27,-47,4,34,-37,27,45,23,-21,-97,-92
13,-40,-53,13,34,-46,38,44,21,-43,-121,-110
24,-32,-56,5,40,-44,41,52,56,-9,-98,-97
21,-36,-57,8,40,-46,48,71,66,-17,-111,-100
27,-34,-62,4,45,-48,43,91,91,10,-101,-92
28,-36,-64,4,46,-50,47,117,122,27,-101,-90
24,-41,-65,9,45,-53,44,136,132,35,-100,-86
27,-39,-66,7,47,-52,47,155,138,33,-98,-79
46,-41,-87,-3,67,-64,33,167,134,26,-94,-76
52,-40,-92,-6,72,-66,5,164,136,28,-85,-68
48,-40,-88,-4,68,-64,7,159,135,20,-80,-65
51,-41,-92,-5,71,-66,15,158,135,22,-73,-58
49,-39,-87,-5,68,-63,20,151,135,45,-59,-44
30,-33,-64,2,47,-48,28,117,114,50,-39,-17
21,-25,-46,2,34,-35,33,81,83,36,-33,9
32,-20,-52,-6,42,-36,33,64,62,24,-37,-19
42,-12,-54,-15,48,-33,25,49,46,16,-32,-47
50,-6,-56,-22,53,-30,22,40,32,3,-38,-46
52,-10,-62,-21,58,-36,17,31,29,-4,-32,-43
39,-18,-57,-10,48,-37,12,19,29,-14,-33,-39
34,-30,-64,-2,50,-47,9,24,32,-9,-27,-36
25,-30,-55,3,40,-42,-16,13,27,3,-17,-29
34,-31,-65,-1,50,-48,-26,20,33,-1,-26,-33
49,-6,-55,-22,52,-30,-26,10,26,23,1,-35
30,-40,-70,5,51,-55,-20,56,51,15,-31,-47
33,-69,-102,18,68,-85,35,181,159,86,-56,-67
78,-4,-82,-37,80,-43,71,384,431,270,23,-23
284,192,-91,-238,187,50,-54,394,749,978,866,366
118,445,327,-282,-104,386,-166,-435,-66,761,1226,699
-244,333,577,-44,-411,454,-127,-1215,-1379,-930,82,462
-84,152,236,-34,-160,194,-172,-886,-1083,-997,-277,233
22,111,89,-67,-34,100,-120,-256,-246,-209,-86,91
-4,7,11,-1,-8,9,14,-40,-73,-137,-166,-59
9,-34,-43,13,26,-38,0,0,-17,-66,-108,-86
0,-47,-47,23,24,-47,-11,23,-5,-100,-141,-106
35,-50,-85,8,60,-68,-35,28,4,-79,-118,-95
40,-41,-82,1,62,-61,-58,40,16,-68,-125,-89
53,-41,-94,-6,74,-68,-46,52,31,-49,-120,-84
35,-58,-93,12,64,-75,-27,78,66,-16,-111,-75
19,-67,-86,24,53,-76,4,93,77,-31,-116,-70
14,-58,-72,22,43,-65,22,99,81,-27,-103,-100
6,-58,-64,26,35,-61,41,105,89,-17,-108,-125
8,-51,-59,22,34,-55,64,116,112,-3,-113,-117
2,-50,-52,24,27,-51,74,132,110,-3,-131,-122
-8,-56,-48,32,20,-52,77,128,103,-4,-135,-119
-28,-70,-42,49,7,-56,86,122,98,-40,-150,-121
-25,-59,-34,43,5,-46,95,120,87,-69,-166,-117
-29,-54,-25,42,-2,-39,90,112,78,-69,-158,-115
-40,-82,-42,61,1,-62,54,112,67,-52,-134,-104
-3,-62,-59,33,29,-61,-10,80,49,-17,-99,-82
23,-29,-52,3,38,-40,-65,41,30,-9,-75,-64
29,-28,-57,0,44,-43,-71,42,32,0,-50,-43
47,-22,-69,-12,58,-45,-65,38,28,1,-35,-24
44,-18,-61,-13,53,-39,-54,42,32,9,-25,-12
26,-14,-40,-6,34,-27,-22,37,28,16,-20,-27
41,0,-41,-20,41,-20,3,43,30,13,-20,-49
24,-9,-34,-7,29,-21,19,43,27,34,-3,-42
-8,-33,-25,21,9,-29,26,46,19,13,-16,-42
-1,-29,-27,15,13,-28,30,47,28,52,2,-37
-19,-30,-10,24,-5,-20,37,44,15,12,-31,-33
19,-33,-52,7,35,-43,75,166,137,89,-17,-64
37,20,-17,-28,27,1,125,304,285,194,6,-60
224,181,-43,-202,133,69,-21,389,674,795,653,246
260,416,156,-338,51,286,-271,-154,326,1086,1347,684
-146,399,546,-127,-346,473,-274,-1130,-1263,-657,349,618
-181,132,313,24,-248,223,-243,-1127,-1475,-1305,-370,325
-29,3,32,12,-30,17,-233,-454,-489,-367,-113,149
-20,-28,-8,24,-6,-18,-81,-111,-115,-136,-126,-4
-17,-70,-53,44,18,-61,-5,-28,-22,-51,-88,-34
-44,-77,-32,61,-6,-54,7,6,0,-48,-107,-53
-39,-82,-43,61,2,-62,28,24,10,-43,-110,-71
-36,-85,-48,61,6,-66,30,36,20,-25,-108,-73
-14,-78,-65,47,26,-71,31,46,21,-35,-114,-77
-14,-70,-56,42,21,-62,43,60,34,-11,-96,-69
-19,-64,-45,42,14,-55,65,70,36,-21,-104,-69
-19,-66,-47,43,14,-56,64,76,58,2,-89,-62
-4,-47,-43,26,20,-45,65,91,77,6,-93,-61
20,-23,-43,2,32,-33,66,97,107,30,-79,-52
21,-18,-38,-2,30,-28,34,93,121,44,-67,-62
27,-14,-41,-7,34,-27,-17,91,124,48,-48,-67
24,-9,-33,-8,29,-21,-62,87,126,56,-32,-56
20,-5,-25,-7,23,-15,-89,86,129,57,-24,-52
18,0,-18,-9,18,-9,-91,82,131,67,-9,-45
8,0,-8,-3,7,-4,-66,74,126,94,14,-42
16,7,-8,-11,12,0,-26,66,126,105,30,-39
8,-1,-9,-4,8,-5,3,58,123,89,17,-34
4,-8,-12,2,9,-10,19,51,85,56,3,-31
10,-3,-14,-3,12,-8,33,45,54,25,-6,-28
-5,-22,-16,14,6,-19,41,46,51,22,-13,-24
16,-19,-35,2,26,-27,57,44,44,17,-17,-26
32,-17,-49,-7,41,-33,70,47,40,10,-29,-22
26,-13,-40,-6,33,-26,73,43,33,11,-23,-35
27,-11,-38,-8,33,-24,74,44,30,0,-28,-64
27,-11,-38,-8,32,-24,66,39,31,19,-12,-57
22,-1,-24,-11,23,-12,67,39,28,11,-20,-55
35,-11,-46,-12,41,-29,34,38,33,28,-5,-54
40,-17,-57,-11,48,-36,4,27,29,31,-4,-44
67,-74,-141,4,104,-107,9,127,105,64,-18,-70
75,-67,-143,-4,109,-105,42,319,295,180,-28,-105
206,51,-154,-128,180,-51,7,533,719,661,372,72
335,310,-24,-322,179,143,-203,165,680,1295,1325,562
-51,429,480,-189,-266,454,-249,-894,-720,59,845,679
-253,168,421,43,-337,294,-199,-1247,-1497,-1230,-215,404
-58,33,90,12,-74,61,-216,-619,-672,-533,-97,259
-51,-18,33,35,-42,7,-70,-133,-119,-102,-59,89
-65,-113,-47,89,-9,-80,35,-25,-39,-82,-92,3
-61,-118,-57,90,-2,-87,41,8,-8,-39,-76,-41
-46,-126,-80,86,18,-103,54,17,-23,-72,-109,-101
-28,-125,-98,77,36,-112,51,28,3,-32,-88,-93
-31,-123,-92,78,31,-108,57,38,-1,-55,-115,-103
-29,-127,-98,79,35,-112,61,56,22,-28,-91,-94
-36,-125,-89,81,27,-107,70,69,33,-26,-97,-91
-2,-94,-91,48,45,-92,71,89,49,-8,-85,-87
14,-75,-89,31,52,-82,75,129,86,20,-87,-81
14,-76,-90,31,53,-83,72,168,136,49,-92,-81
21,-68,-89,23,55,-79,54,208,174,72,-92,-79
14,-66,-80,26,48,-73,40,216,165,59,-99,-77
14,-60,-74,23,44,-67,16,214,153,46,-99,-74
1,-57,-58,28,30,-57,-7,216,143,14,-112,-75
-21,-55,-34,38,7,-44,-14,172,110,-15,-105,-70
-26,-55,-29,41,2,-42,-10,111,73,-15,-90,-65
-25,-55,-31,40,3,-42,-4,83,56,-15,-75,-61
-25,-55,-30,40,3,-42,-1,60,45,-15,-51,-56
-25,-55,-30,40,3,-42,4,25,23,-14,-39,-52
-25,-55,-30,40,3,-42,8,9,4,-16,-41,-47
-28,-55,-27,42,0,-41,13,3,0,-24,-38,-41
-31,-55,-24,43,-3,-39,22,-4,-4,-37,-36,-36
-29,-55,-27,43,-1,-41,33,-11,-5,-34,-35,-31
-31,-54,-23,43,-4,-39,41,-11,-11,-35,-33,-24
-24,-52,-28,38,2,-39,41,16,-8,-36,-27,-21
-17,-38,-21,28,3,-29,34,24,-8,-32,-19,-9
-14,-32,-18,23,2,-24,34,42,-1,-39,-20,0
-14,-19,-5,16,-4,-12,19,39,-2,-22,-4,15
-13,-12,1,12,-7,-5,-37,25,4,-25,-13,25
-21,-8,12,14,-16,2,-64,5,5,0,-8,11
-17,-4,14,10,-15,5,-38,7,10,-2,-35,-24
9,-43,-52,17,31,-47,20,114,95,32,-59,-76
1,-21,-22,10,12,-22,85,291,258,126,-82,-105
197,136,-60,-166,128,38,-6,468,715,713,477,139
253,424,171,-338,41,297,-190,-14,526,1181,1322,611
-139,440,579,-151,-359,509,-177,-979,-885,-245,576,603
-222,157,379,32,-301,268,-138,-1130,-1385,-1205,-296,300
-37,84,121,-24,-79,102,-146,-499,-569,-464,-109,146
-35,38,73,-1,-54,55,-12,-69,-120,-156,-110,-26
-81,-36,45,58,-63,4,63,10,-63,-108,-126,-94
-87,-25,62,56,-74,18,51,45,-24,-84,-128,-90
-76,-23,53,49,-64,15,55,51,-20,-106,-137,-87
-64,-1,63,33,-64,31,11,54,-2,-71,-122,-80
-39,19,59,10,-49,39,-16,42,-1,-84,-135,-68
-29,28,56,0,-43,42,-14,29,4,-60,-118,-53
-32,23,55,4,-44,39,-16,22,7,-65,-130,-95
-25,28,54,-2,-40,41,-14,17,8,-42,-116,-103
-15,37,51,-11,-33,44,-16,49,30,-20,-107,-94
-13,36,49,-11,-31,42,-14,85,77,6,-95,-96
-21,29,50,-4,-35,39,-5,112,103,25,-87,-89
-5,28,33,-12,-19,30,7,139,120,27,-83,-91
-2,15,17,-7,-10,16,22,168,138,38,-77,-82
-29,-25,3,27,-16,-11,35,173,138,40,-71,-73
-27,-37,-10,32,-8,-23,41,162,135,40,-67,-63
-15,-35,-20,25,3,-27,43,155,128,40,-54,-53
-7,-34,-27,21,10,-30,47,148,127,39,-35,-49
-7,-31,-24,19,8,-27,51,134,110,41,-35,-45
0,-28,-28,15,14,-28,43,104,73,36,-35,-43
3,-36,-39,17,21,-37,23,89,55,27,-35,-36
-18,-46,-28,32,6,-37,-16,87,55,19,-35,-36
-24,-28,-4,26,-10,-16,-37,41,29,-11,-35,-45
-26,-28,-2,27,-12,-15,-29,-19,-15,-35,-31,-42
-30,-37,-7,34,-11,-22,-26,-32,-21,-38,-29,-33
-29,-32,-3,31,-13,-17,-19,-23,-8,-34,-31,-28
-44,-30,14,36,-29,-7,-14,-21,-7,-25,-28,-20
-57,-27,30,42,-43,1,-8,-11,4,-26,-33,-15
-54,-24,30,39,-41,3,6,-11,8,-11,-25,-26
-54,-23,32,38,-43,4,29,7,16,-17,-29,-41
-35,-19,16,27,-26,-1,49,28,35,1,-15,-39
-28,-18,10,23,-19,-4,50,40,40,-1,-21,-40
1,-15,-16,7,9,-16,55,59,60,18,-6,-48
-3,-15,-12,9,5,-13,55,40,47,26,-6,-38
-16,-65,-49,41,16,-57,101,136,103,25,-58,-71
11,-65,-76,27,44,-70,201,318,242,121,-91,-139
147,50,-97,-98,121,-23,157,634,717,572,249,3
329,336,7,-333,161,171,-70,441,999,1399,1225,473
12,496,483,-254,-236,489,-197,-733,-256,495,971,659
-260,255,515,2,-388,385,-193,-1389,-1418,-1086,-194,389
-61,109,169,-24,-115,139,-222,-890,-904,-751,-248,194
12,100,88,-56,-38,94,-154,-274,-251,-212,-124,50
-7,24,30,-8,-19,27,-47,-88,-116,-140,-158,-54
-11,-5,6,8,-9,1,-23,-72,-72,-87,-130,-63
-23,-18,5,20,-14,-6,-6,-44,-64,-107,-150,-68
-8,-33,-25,21,9,-29,2,-30,-42,-71,-121,-61
2,-40,-43,19,23,-41,23,-7,-23,-81,-131,-82
22,-36,-58,7,41,-47,48,23,-2,-54,-113,-107
45,-29,-74,-8,60,-52,50,52,16,-38,-114,-104
60,-25,-85,-17,73,-55,50,63,30,-25,-103,-101
65,-18,-82,-23,74,-50,60,94,70,7,-92,-98
62,-14,-76,-24,70,-45,67,137,110,34,-96,-95
56,-10,-66,-23,61,-38,61,166,132,47,-93,-94
51,-8,-59,-21,55,-33,53,166,137,51,-98,-85
43,-5,-47,-19,46,-26,42,134,121,29,-100,-77
26,-2,-27,-12,27,-14,33,113,105,2,-101,-69
16,0,-16,-8,16,-7,29,99,96,-23,-96,-57
4,-4,-7,0,6,-5,30,82,84,-36,-85,-44
-2,-11,-9,7,4,-10,30,73,76,-21,-75,-29
7,-14,-20,4,14,-17,30,59,62,-20,-52,-22
5,-23,-28,9,17,-25,30,36,43,-21,-34,0
14,-23,-38,5,26,-30,32,22,34,-15,-45,-2
6,-39,-46,17,26,-42,44,26,30,-17,-59,-45
-14,-65,-51,39,19,-58,61,30,29,-12,-52,-56
-14,-65,-51,40,19,-58,74,30,21,-17,-57,-53
-6,-65,-60,36,27,-62,77,40,23,-14,-54,-61
-8,-65,-57,36,25,-60,69,41,13,-14,-54,-68
-2,-61,-60,32,29,-60,19,43,18,-19,-59,-72
9,-34,-43,13,26,-38,-56,10,11,-7,-48,-68
16,-28,-44,6,30,-35,-49,-25,-11,-32,-66,-72
27,-18,-46,-4,37,-32,-18,-70,-35,-28,-40,-68
21,-25,-46,2,34,-35,-16,-58,-43,-60,-75,-69
15,-56,-71,21,43,-63,34,65,68,14,-99,-101
24,-10,-34,-7,29,-22,69,236,254,128,-56,-66
280,168,-112,-224,196,28,-74,346,664,819,721,277
247,417,169,-332,38,293,-214,-332,199,1010,1342,675
-179,313,492,-68,-335,402,-128,-1249,-1251,-664,272,548
-99,105,204,-4,-152,155,-119,-1064,-1273,-1108,-309,249
24,57,33,-41,-5,45,-128,-360,-367,-276,-67,90
-44,-58,-14,52,-14,-36,14,-53,-98,-142,-133,-61
-7,-65,-59,37,26,-62,49,-5,-36,-59,-95,-90
-11,-67,-56,39,23,-61,44,37,-3,-59,-117,-79
8,-91,-99,42,54,-95,35,62,10,-52,-108,-83
23,-59,-82,18,52,-70,-32,62,24,-36,-102,-74
15,-61,-77,23,46,-69,-61,49,18,-43,-103,-77
0,-64,-65,32,33,-64,-54,48,12,-17,-88,-78
-2,-61,-59,31,29,-60,-27,53,20,-22,-93,-78
7,-52,-59,23,33,-55,-4,56,58,1,-78,-63
7,-46,-53,20,30,-49,4,72,83,19,-80,-50
14,-39,-53,13,34,-46,16,98,107,47,-60,-25
14,-35,-49,10,32,-41,32,128,140,87,-49,6
14,-32,-46,9,31,-39,46,152,160,109,-39,-19
8,-28,-37,10,22,-32,47,166,164,110,-33,-38
5,-25,-29,10,17,-27,44,163,164,115,-24,-26
12,-20,-32,4,22,-25,46,171,170,119,15,-21
22,-5,-27,-8,25,-16,44,174,180,129,42,-16
43,3,-40,-23,41,-19,46,150,162,121,35,-21
50,-5,-55,-22,53,-30,42,127,128,111,26,-20
54,-13,-67,-20,61,-40,1,109,101,87,12,-24
58,-39,-97,-10,78,-67,-63,78,82,78,1,-24
29,-56,-84,14,57,-70,-63,9,25,38,-30,-31
16,-69,-85,26,51,-77,-32,-22,0,4,-38,-33
7,-68,-75,30,41,-71,-45,-33,-17,4,-28,-3
1,-69,-70,34,36,-69,-42,-21,-25,-10,-36,-6
12,-58,-70,23,41,-64,-45,-13,-13,9,-15,-5
-9,-65,-55,38,23,-60,-19,18,-4,-25,-43,-3
16,-71,-88,28,52,-79,40,138,95,61,-83,-84
32,-15,-47,-9,40,-30,79,319,310,216,-22,-85
238,150,-88,-194,162,31,2,479,866,1106,849,276
192,420,228,-306,-19,324,-149,-250,217,1087,1367,693
-209,339,548,-65,-379,443,-154,-1242,-1459,-899,278,619
-69,127,196,-29,-133,161,-187,-956,-1236,-1077,-175,411
73,91,17,-82,28,54,-156,-237,-259,-169,34,214
24,-3,-27,-10,26,-15,-50,15,-69,-123,-99,-45
55,-30,-85,-12,70,-57,-57,47,5,-33,-84,-76
-2,-47,-45,25,22,-46,-31,49,7,-60,-101,-62
-19,-75,-56,47,19,-65,4,51,11,-48,-92,-70
-26,-60,-34,43,4,-46,21,49,11,-43,-114,-72
-26,-61,-35,44,4,-48,20,51,7,-51,-130,-85
-33,-59,-26,46,-4,-42,24,49,15,-37,-106,-76
-38,-61,-23,50,-7,-41,24,57,29,-43,-108,-83
-27,-60,-33,44,3,-46,34,80,55,-12,-88,-78
-21,-56,-35,39,7,-45,69,120,83,15,-86,-82
-15,-45,-30,30,7,-37,77,140,111,32,-74,-90
5,-36,-40,16,23,-38,78,169,134,41,-67,-84
15,-36,-51,11,33,-43,72,210,172,79,-56,-74
11,-28,-39,9,25,-33,59,239,193,87,-43,-67
29,-7,-36,-11,32,-21,57,254,208,94,-32,-53
53,27,-26,-40,39,0,27,271,225,98,-13,-37
65,42,-22,-53,44,10,-20,244,211,90,-6,-35
52,33,-18,-42,35,7,-15,135,137,72,-1,-35
46,26,-20,-36,33,3,2,83,75,37,-3,-35
30,18,-12,-24,21,3,6,41,37,9,-9,-34
28,9,-19,-18,23,-5,17,9,17,-18,-20,-36
42,4,-38,-23,40,-17,23,25,17,-11,-21,-44
13,-26,-39,6,26,-32,31,35,8,-24,-37,-58
17,-38,-55,11,36,-46,38,38,10,-17,-35,-52
40,-11,-51,-14,45,-31,42,30,-3,-27,-47,-58
51,-7,-59,-22,55,-33,52,35,8,-25,-47,-61
32,-8,-40,-12,36,-24,56,26,15,14,-43,-56
42,-55,-97,7,70,-75,85,98,46,11,-82,-85
24,-62,-87,19,56,-74,157,258,188,86,-118,-120
136,64,-72,-100,103,-4,146,510,598,464,169,-2
319,332,12,-326,153,172,-33,315,742,1246,1215,499
-7,511,518,-253,-263,515,-121,-675,-475,391,1117,757
-180,306,486,-63,-333,395,-135,-1144,-1406,-1095,-17,538
37,155,118,-96,-41,137,-210,-620,-699,-584,-59,337
47,124,77,-86,-15,100,-102,-146,-125,-105,-15,69
58,49,-9,-53,33,20,-15,-28,-52,-111,-111,-63
70,43,-26,-56,48,8,-24,-4,3,-30,-71,-51
65,30,-35,-48,50,-2,-4,12,-7,-76,-107,-87
85,32,-53,-58,69,-10,5,32,25,-31,-86,-83
43,-11,-55,-16,49,-33,42,45,24,-56,-127,-84
46,-20,-66,-13,56,-43,45,60,48,-28,-122,-81
61,-2,-62,-29,61,-32,55,83,67,-22,-125,-76
45,-18,-63,-14,54,-40,67,104,79,-4,-127,-76
53,1,-53,-27,53,-26,84,133,113,26,-111,-70
55,5,-49,-30,52,-22,101,175,149,48,-85,-65
66,23,-43,-44,54,-10,86,215,184,77,-72,-59
98,59,-39,-79,68,10,80,239,208,82,-77,-41
105,69,-36,-87,70,16,70,235,219,99,-74,-63
81,51,-30,-66,55,10,60,201,194,79,-77,-95
67,46,-20,-56,43,13,45,155,156,43,-74,-97
30,20,-10,-24,20,5,11,116,125,28,-72,-102
-19,-23,-4,21,-8,-13,-33,80,96,16,-68,-100
-33,-51,-18,42,-7,-34,-58,41,57,6,-66,-101
-57,-97,-40,77,-8,-68,-54,7,26,-7,-61,-99
-73,-113,-40,93,-17,-76,-46,-14,-11,-29,-62,-103
-80,-119,-40,100,-20,-80,-33,-21,-45,-43,-81,-110
-88,-134,-46,111,-21,-89,-13,-24,-41,-39,-77,-96
-103,-146,-43,125,-30,-94,7,-13,-33,-40,-74,-86
-105,-151,-46,128,-29,-98,28,0,-24,-37,-72,-93
-120,-154,-35,137,-42,-95,35,17,-18,-31,-63,-90
-122,-155,-33,139,-43,-94,36,52,-10,-42,-69,-91
-92,-114,-22,103,-35,-68,31,39,-8,-32,-50,-88
-114,-132,-18,123,-48,-75,24,25,-6,-50,-62,-87
-123,-135,-12,129,-55,-73,16,-27,-28,-23,-35,-84
-112,-127,-15,120,-48,-71,5,-30,-29,-32,-61,-85
-87,-173,-86,131,0,-129,35,91,78,2,-110,-141
-57,-142,-85,100,15,-113,58,276,292,152,-100,-157
134,7,-127,-70,131,-60,-41,434,727,782,556,136
120,301,181,-210,-31,241,-208,-139,352,1110,1362,605
-278,322,599,-22,-439,460,-231,-1096,-1098,-448,488,593
-266,71,337,97,-302,204,-221,-1120,-1373,-1249,-325,333
-90,-13,77,51,-84,32,-211,-477,-506,-429,-116,202
-88,-81,7,85,-47,-37,-66,-99,-120,-181,-149,-20
-73,-131,-58,102,-7,-95,7,-22,-53,-120,-130,-116
-72,-119,-47,96,-12,-83,7,1,-35,-92,-130,-103
-42,-114,-72,78,16,-93,26,30,-15,-99,-135,-119
-43,-105,-62,74,10,-83,30,56,26,-56,-123,-109
-46,-111,-66,79,10,-88,30,56,42,-65,-142,-112
-48,-114,-66,82,9,-90,19,49,54,-44,-128,-105
-55,-118,-63,87,4,-90,13,45,47,-54,-144,-105
-53,-123,-71,88,9,-97,6,41,52,-41,-137,-100
-50,-123,-73,87,12,-98,1,39,50,-42,-144,-100
-44,-121,-76,83,16,-98,-4,33,48,-37,-146,-93
-43,-117,-74,80,16,-95,-11,53,63,-34,-149,-84
-39,-115,-76,78,19,-95,-14,93,86,-36,-152,-78
-40,-111,-71,75,16,-91,-11,110,90,-34,-148,-55
-37,-105,-68,71,15,-86,-6,118,86,-36,-153,-91
-36,-100,-64,68,15,-81,-4,118,84,-36,-143,-117
-32,-93,-62,63,15,-77,1,110,79,-22,-106,-92
-34,-89,-55,62,10,-72,5,106,77,-8,-70,-69
-24,-83,-59,54,18,-71,2,89,72,-13,-54,-52
-1,-79,-78,40,39,-79,-11,65,53,-19,-55,-62
7,-75,-82,34,45,-78,-21,42,25,-24,-55,-64
2,-69,-72,34,37,-70,-34,25,-2,-30,-57,-59
5,-79,-84,37,45,-81,-57,14,-12,-36,-63,-61
9,-80,-89,36,49,-84,-61,-1,-16,-33,-56,-57
-9,-75,-66,42,29,-71,-59,-23,-26,-38,-59,-55
-22,-72,-50,47,14,-60,-59,-45,-33,-31,-45,-55
-27,-64,-37,45,6,-50,-25,-37,-31,-38,-49,-58
-26,-66,-41,46,8,-53,7,-17,-14,-33,-39,-62
-35,-63,-28,50,-3,-45,12,-21,-15,-31,-35,-62
-31,-67,-36,49,3,-51,25,4,0,-23,-38,-70
-45,-62,-17,54,-14,-40,29,-9,5,1,-10,-65
-20,-68,-48,44,14,-58,55,54,58,11,-56,-81
8,-71,-79,32,44,-75,130,214,185,110,-77,-135
70,11,-59,-40,64,-24,124,403,480,344,85,-50
285,238,-47,-262,166,95,-61,348,791,1137,1051,393
71,436,364,-254,-147,400,-203,-446,-129,693,1233,705
-252,267,519,-7,-386,392,-177,-1131,-1386,-1051,-38,487
-116,43,159,36,-138,101,-214,-851,-1034,-953,-278,251
-32,-6,26,19,-29,10,-189,-284,-275,-232,-68,74
-27,-68,-42,48,8,-55,-62,-68,-96,-157,-147,-85
1,-78,-80,39,41,-79,-38,-44,-49,-83,-100,-98
-25,-93,-68,60,22,-80,-25,-22,-42,-114,-138,-106
-20,-96,-76,58,28,-85,5,-11,-13,-81,-110,-106
-35,-77,-42,56,3,-59,48,6,8,-83,-125,-102
-64,-80,-15,72,-24,-47,74,35,21,-54,-119,-101
-29,-37,-8,33,-10,-22,67,52,28,-34,-119,-99
-16,-27,-11,22,-2,-19,74,59,37,-32,-122,-97
-34,-43,-9,38,-12,-26,73,76,62,-10,-104,-86
-33,-44,-10,39,-11,-26,77,91,87,8,-98,-80
-24,-34,-10,29,-6,-21,65,109,114,33,-82,-71
13,3,-10,-8,11,-3,25,115,117,37,-79,-64
25,15,-10,-20,17,2,-25,105,109,41,-67,-58
34,24,-10,-29,22,7,-73,95,106,39,-62,-51
49,39,-10,-44,30,15,-83,84,98,45,-53,-44
35,25,-10,-30,22,8,-75,73,94,43,-50,-38
61,48,-13,-54,36,17,-70,61,89,51,-25,-31
78,59,-19,-68,48,20,-61,50,74,57,21,-34
55,29,-26,-42,41,1,-43,43,53,44,15,-36
25,20,-5,-23,14,8,-16,35,32,30,-8,-45
-14,3,17,5,-15,10,18,29,16,2,-24,-65
-16,-2,14,8,-15,6,47,20,0,-9,-37,-59
-7,9,16,-1,-12,12,50,17,-1,-13,-36,-52
-9,1,10,4,-10,5,50,24,0,-12,-28,-46
-31,-19,11,25,-20,-4,49,31,0,-20,-31,-39
-23,-15,8,18,-15,-3,51,38,6,-18,-21,-35
6,12,5,-9,0,8,48,45,3,-19,-21,-33
11,1,-10,-6,11,-5,37,63,7,-14,-25,-30
11,-1,-12,-5,11,-6,-8,51,-8,-6,-28,-25
17,10,-7,-14,12,2,-61,10,-11,-15,-47,-27
17,4,-13,-11,15,-5,-56,-43,-31,11,-27,-9
13,-3,-16,-5,15,-9,-42,7,-2,-17,-60,-60
31,10,-21,-20,26,-5,18,146,122,66,-75,-140
83,59,-25,-71,54,17,66,360,399,277,9,-90
290,247,-43,-268,166,102,-69,408,789,1043,899,298
155,498,342,-327,-94,420,-190,-330,39,907,1333,676
-235,373,608,-69,-422,490,-138,-1124,-1337,-859,130,525
-151,145,296,3,-224,220,-159,-920,-1172,-1032,-298,308
-13,118,130,-53,-72,124,-133,-300,-333,-230,-88,143
-13,49,62,-18,-37,55,1,-29,-87,-133,-167,-46
4,15,11,-9,-4,13,25,20,-41,-49,-115,-91
-6,11,17,-3,-12,14,35,43,-38,-69,-154,-117
0,-2,-3,1,2,-3,21,38,-24,-50,-132,-115
-4,0,4,2,-4,2,-15,42,-17,-49,-135,-114
19,8,-10,-13,14,-1,-31,45,-10,-49,-130,-113
36,25,-11,-31,24,7,-48,44,0,-35,-121,-108
19,6,-13,-12,15,-3,-37,48,6,-41,-124,-112
15,23,8,-19,3,15,-28,49,28,-25,-111,-102
5,45,40,-26,-18,42,-13,70,40,-24,-112,-96
3,49,46,-27,-22,47,8,107,74,15,-94,-89
21,65,44,-44,-12,54,23,142,118,51,-86,-82
19,49,30,-34,-6,39,37,177,147,70,-76,-80
42,46,5,-44,19,25,46,191,148,71,-71,-78
39,31,-8,-34,23,12,52,189,140,69,-64,-75
10,-22,-32,6,21,-27,59,190,135,66,-59,-75
1,-50,-51,25,26,-50,61,190,131,64,-44,-70
2,-51,-53,24,27,-52,45,161,107,64,-20,-62
24,-50,-74,14,49,-61,15,103,66,56,-21,-56
23,-50,-73,13,48,-61,-17,57,42,38,-26,-49
15,-51,-66,18,41,-59,-24,24,15,12,-30,-43
17,-47,-64,16,40,-55,-17,10,-12,2,-34,-37
2,-56,-57,27,30,-57,-9,10,-20,-2,-45,-31
-11,-66,-55,39,22,-61,0,11,-27,-9,-57,-24
-12,-59,-47,36,18,-53,8,9,-34,-13,-49,-17
-27,-72,-45,50,10,-59,17,15,-19,-10,-42,-11
-33,-73,-39,53,3,-56,25,23,3,5,-34,-5
-27,-62,-36,45,5,-49,34,35,15,15,-25,-12
-28,-59,-31,44,2,-45,51,52,28,21,-22,-22
-17,-48,-31,32,7,-40,55,53,24,26,-23,-29
7,-48,-55,21,31,-52,56,64,18,19,-32,-40
8,-46,-54,20,31,-49,60,52,10,15,-27,-42
-4,-74,-70,39,33,-72,61,50,5,2,-41,-54
-4,-91,-87,48,42,-89,26,36,-2,3,-32,-50
-8,-89,-82,49,37,-85,-17,-3,-11,-15,-47,-51
1,-92,-93,45,47,-92,-34,-25,-13,-10,-36,-50
-1,-85,-83,43,41,-84,-49,-23,-11,-7,-39,-47
-17,-121,-104,69,44,-112,20,83,56,14,-113,-100
-20,-107,-87,64,34,-96,123,273,232,131,-134,-126
153,40,-113,-96,133,-36,66,526,719,675,349,91
239,332,93,-286,73,213,-121,139,663,1298,1348,602
-115,438,553,-162,-334,495,-194,-886,-676,123,867,708
-264,175,439,44,-352,307,-181,-1231,-1439,-1173,-258,400
-100,-5,95,52,-97,45,-180,-687,-775,-638,-197,206
-27,-11,16,19,-21,2,-58,-143,-165,-165,-123,-13
-13,-53,-40,33,14,-47,51,-1,-32,-79,-128,-115
-30,-88,-58,59,15,-73,47,35,8,-36,-102,-108
-24,-85,-62,55,19,-73,44,64,27,-63,-128,-118
-16,-90,-74,54,29,-82,39,68,39,-38,-103,-106
-23,-92,-69,58,23,-81,34,82,28,-61,-124,-105
-33,-95,-63,64,15,-79,17,52,21,-49,-109,-99
-36,-92,-56,64,10,-73,-15,10,16,-59,-126,-94
-26,-76,-49,51,12,-62,-22,-8,9,-48,-118,-93
-21,-65,-44,43,12,-54,-3,19,18,-34,-113,-80
-24,-65,-41,44,9,-52,22,56,47,-11,-110,-80
-29,-66,-37,48,5,-51,43,82,80,11,-101,-113
-30,-64,-34,48,2,-49,55,111,107,13,-99,-112
-34,-62,-28,48,-3,-45,55,139,124,22,-91,-104
-17,-59,-42,38,13,-51,55,161,127,24,-90,-101
5,-60,-65,28,35,-63,56,158,119,18,-87,-93
1,-53,-54,26,28,-53,54,151,113,9,-85,-89
4,-42,-46,19,25,-44,56,143,106,30,-65,-62
27,-41,-67,7,47,-54,47,140,100,57,-32,-48
35,-35,-70,0,53,-52,39,126,94,42,-30,-51
35,-36,-71,0,53,-53,20,113,79,30,-31,-52
39,-29,-68,-5,53,-48,-32,90,65,22,-26,-55
13,-32,-45,10,29,-38,-36,31,32,-28,-53,-54
-20,-47,-26,34,3,-36,-10,-5,-14,-45,-51,-48
-28,-51,-23,40,-3,-36,5,-16,-25,-56,-61,-52
-22,-51,-29,37,4,-39,18,-22,-9,-43,-48,-46
-27,-44,-17,36,-5,-30,24,-22,-21,-55,-62,-45
-16,-63,-48,40,17,-55,34,-10,1,-49,-51,-45
-29,-59,-30,44,1,-44,39,-21,-16,-43,-50,-46
-26,-63,-37,45,5,-50,56,46,26,-32,-72,-67
-27,-40,-13,33,-6,-26,133,192,181,96,-34,-76
90,61,-29,-75,59,16,115,396,547,468,257,63
331,297,-35,-314,183,131,-110,205,724,1250,1272,538
47,440,393,-244,-173,416,-185,-767,-617,217,1004,747
-195,197,392,-2,-293,294,-124,-1230,-1664,-1404,-223,478
21,49,28,-35,-4,39,-130,-654,-819,-715,-175,301
36,19,-17,-27,26,1,-59,-119,-125,-113,-89,125
6,-68,-73,31,40,-70,19,7,-41,-106,-139,-15
5,-73,-79,34,42,-75,17,38,6,-12,-93,-54
-11,-86,-74,49,32,-80,-15,64,20,-61,-134,-73
-4,-77,-73,41,35,-75,-21,21,44,-17,-100,-67
-13,-72,-58,43,23,-65,-9,-2,29,-42,-122,-93
-8,-68,-60,38,27,-64,-6,12,38,-21,-99,-88
-14,-59,-45,37,16,-52,4,17,33,-25,-102,-84
-21,-66,-45,44,12,-55,8,34,38,-17,-94,-83
-30,-64,-34,47,2,-49,14,48,60,4,-86,-76
-28,-59,-30,44,1,-44,21,75,95,19,-69,-60
-27,-50,-23,39,-2,-36,28,97,123,49,-35,-32
-22,-39,-17,31,-2,-28,34,103,141,75,-9,-13
-3,-10,-8,7,3,-9,41,130,168,119,26,33
9,9,0,-9,5,4,45,144,195,146,66,42
7,15,7,-11,0,11,37,138,205,157,95,8
1,27,26,-14,-13,26,33,141,194,153,105,-3
4,24,20,-14,-9,22,25,136,186,157,110,-9
12,3,-9,-7,11,-3,24,135,173,150,91,-16
29,-25,-54,-1,42,-39,-2,137,153,120,76,-22
29,-41,-70,6,50,-55,-51,101,112,68,48,-29
33,-39,-72,3,53,-55,-54,49,63,28,16,-37
14,-52,-66,19,40,-58,-46,2,17,-12,-17,-51
-9,-76,-67,43,29,-71,-34,-2,-2,-38,-39,-59
-13,-76,-64,45,26,-70,-7,3,3,-29,-29,-59
-21,-83,-62,52,21,-72,11,14,3,-42,-37,-61
-25,-82,-57,54,16,-69,23,21,12,-14,-11,-58
-51,-84,-34,68,-8,-59,37,24,7,-44,-33,-62
-18,-101,-83,60,33,-92,79,117,83,16,-59,-104
-16,-57,-41,37,12,-49,152,319,300,117,-75,-126
190,102,-88,-146,139,7,51,469,744,832,636,184
210,354,144,-282,32,249,-137,-160,317,1076,1323,607
-207,318,525,-55,-367,421,-118,-1130,-1190,-627,382,545
-165,102,266,31,-216,184,-149,-1025,-1270,-1102,-185,335
-11,31,42,-11,-26,36,-126,-330,-320,-258,33,180
-47,-71,-24,59,-11,-47,61,-22,-55,-145,-84,-27
-42,-139,-97,91,27,-117,93,47,10,-68,-77,-80
-48,-138,-89,93,21,-113,87,73,28,-71,-86,-80
-9,-128,-120,69,56,-124,92,106,57,-57,-82,-85
-1,-116,-115,59,57,-116,52,136,96,-21,-73,-77
6,-105,-111,50,59,-108,28,117,90,-26,-81,-82
-6,-88,-82,48,38,-85,20,114,103,-24,-67,-78
-12,-81,-69,47,28,-75,19,116,97,-46,-72,-81
-16,-78,-61,47,23,-69,11,115,107,-17,-59,-79
-36,-85,-48,61,6,-67,12,122,103,-14,-61,-75
-27,-70,-43,49,8,-56,34,118,123,-3,-52,-68
-34,-69,-35,52,1,-52,44,129,134,-3,-50,-60
-31,-71,-41,51,5,-56,49,142,128,1,-45,-56
2,-39,-41,19,21,-40,65,136,132,6,-38,-43
9,-35,-44,14,26,-39,66,131,129,1,-35,-23
-18,-64,-47,42,15,-55,70,127,131,-3,-27,-6
-30,-79,-48,55,10,-64,68,122,129,-4,-23,-3
-9,-80,-71,45,31,-75,64,119,122,7,-18,14
11,-78,-89,34,50,-84,66,113,109,22,-12,12
19,-93,-112,37,66,-102,64,111,98,20,-12,-35
23,-118,-141,48,82,-129,67,102,87,17,-5,-41
35,-113,-148,39,91,-130,40,101,77,7,-4,-34
56,-92,-149,18,103,-120,8,93,70,7,2,-34
43,-81,-124,20,84,-102,4,92,59,-3,-6,-26
37,-79,-117,21,77,-98,3,72,52,-7,-6,-27
30,-69,-100,20,65,-84,-3,12,42,-7,-2,-19
33,-71,-103,19,68,-87,15,8,42,-17,-18,-22
27,-55,-82,14,55,-68,28,-15,27,2,3,-12
15,-85,-99,35,57,-92,52,38,47,-27,-36,-21
46,-112,-157,33,102,-134,137,184,156,34,-83,-76
101,-45,-146,-28,123,-95,169,428,465,270,57,-1
301,146,-155,-223,228,-4,8,419,833,1083,956,408
140,366,226,-253,-44,296,-137,-491,33,871,1264,753
-210,224,434,-7,-322,328,-115,-1275,-1279,-814,170,544
-87,0,86,43,-86,43,-122,-895,-997,-854,-176,282
16,-57,-73,21,45,-65,-39,-216,-198,-151,-49,128
-1,-138,-136,70,68,-137,102,6,-39,-112,-114,-69
20,-145,-164,63,92,-154,103,50,23,-18,-56,-93
14,-133,-147,60,80,-139,79,89,31,-47,-93,-81
16,-132,-148,59,82,-140,41,84,33,-30,-72,-83
-9,-123,-113,66,52,-118,23,89,34,-32,-83,-72
-15,-120,-105,68,45,-112,27,65,17,-33,-79,-73
1,-105,-106,52,54,-105,20,24,21,-26,-70,-64
6,-103,-110,48,58,-106,20,30,45,-23,-70,-56
6,-109,-114,52,60,-111,24,55,73,6,-58,-47
-2,-115,-114,59,56,-114,35,82,95,19,-59,-50
2,-107,-110,53,56,-108,41,117,128,43,-50,-50
13,-98,-110,43,62,-104,62,154,155,56,-48,-52
15,-94,-109,40,63,-101,79,182,176,75,-44,-56
19,-92,-112,37,65,-102,82,191,176,75,-40,-54
19,-88,-107,35,63,-98,87,190,180,78,-37,-56
35,-86,-121,26,79,-104,83,188,182,79,-31,-56
47,-84,-131,19,89,-107,90,184,185,89,12,-34
43,-79,-121,18,82,-100,112,182,182,108,54,-19
46,-103,-148,29,97,-125,117,180,163,99,56,-21
42,-109,-151,34,97,-130,101,173,149,94,49,-19
42,-98,-140,28,91,-119,56,155,123,88,44,-14
21,-96,-117,38,70,-107,-2,77,76,55,35,-16
-11,-89,-78,50,34,-83,-20,3,34,24,25,-12
1,-86,-87,43,45,-86,-12,-17,11,16,14,-3
18,-81,-99,32,58,-89,-4,-26,3,7,3,5
11,-77,-87,33,49,-82,4,-30,-7,-1,-18,15
1,-76,-77,38,39,-76,12,-35,-17,-15,-43,-14
-30,-94,-64,62,17,-79,37,-28,-25,-34,-44,-49
-50,-112,-63,81,7,-87,46,-24,-34,-34,-36,-49
-35,-109,-74,72,19,-91,45,-21,-26,-22,-32,-50
-24,-111,-87,68,32,-99,50,-8,-13,-9,-25,-50
2,-109,-110,54,56,-109,50,15,-3,5,-22,-50
16,-107,-124,46,70,-115,60,42,8,34,-19,-50
4,-117,-122,57,63,-119,66,52,16,40,-20,-49
10,-109,-119,49,65,-113,65,59,29,40,-16,-51
4,-102,-106,49,55,-103,63,55,32,48,-12,-48
4,-103,-107,50,55,-104,100,93,46,39,-24,-53
5,-85,-89,40,47,-87,154,121,68,61,-30,-41
9,-77,-86,34,48,-81,146,120,78,59,-39,-9
12,-71,-83,30,48,-77,69,71,53,63,-17,5
5,-83,-88,39,47,-86,0,76,53,30,-38,-21
19,-76,-95,28,57,-85,40,175,118,52,-101,-86
52,-35,-87,-8,69,-60,91,382,356,239,-63,-77
272,160,-112,-216,192,24,-59,517,817,968,747,265
212,476,265,-344,-27,371,-242,-168,403,1257,1512,706
-156,418,574,-131,-365,496,-231,-1008,-886,-221,634,666
-172,137,309,18,-241,222,-190,-1077,-1245,-1045,-191,359
-75,37,112,18,-93,74,-160,-599,-641,-488,-158,105
-42,10,52,16,-48,31,-89,-130,-181,-183,-170,-41
-49,-22,27,35,-38,3,-32,-37,-73,-81,-139,-57
-65,-33,32,49,-48,0,-7,-16,-68,-82,-155,-89
-47,-28,18,37,-33,-5,-4,5,-48,-72,-150,-102
-46,-27,19,36,-32,-4,-2,4,-37,-66,-148,-88
-31,-23,9,27,-20,-7,2,29,-25,-70,-153,-86
-37,-21,16,29,-26,-3,4,33,-17,-56,-140,-76
-40,-17,23,29,-31,2,7,52,-8,-62,-144,-71
-41,-13,29,27,-35,8,37,97,21,-26,-135,-79
-31,6,37,12,-34,21,39,119,49,-5,-135,-87
-23,16,39,4,-31,27,-13,110,56,2,-129,-89
-20,22,42,-1,-31,32,-56,109,77,10,-133,-102
-2,40,43,-20,-23,42,-78,104,92,11,-138,-104
3,50,47,-27,-22,48,-87,101,75,-5,-137,-97
30,68,38,-49,-4,53,-93,98,50,-34,-152,-92
33,72,39,-53,-3,55,-94,92,31,-63,-171,-87
1,67,67,-34,-33,67,-88,88,24,-62,-167,-81
4,76,72,-41,-34,74,-80,85,20,-48,-148,-77
21,98,77,-60,-29,87,-74,68,14,-36,-132,-74
26,107,81,-67,-28,94,-67,40,9,-42,-137,-77
24,103,79,-64,-28,91,-62,17,-6,-40,-132,-89
19,106,88,-63,-35,97,-49,5,-29,-50,-141,-90
22,104,82,-63,-30,93,-26,4,-39,-47,-139,-91
-8,106,114,-49,-62,110,-9,0,-57,-54,-140,-87
-17,105,122,-44,-70,113,19,-3,-53,-59,-150,-116
-16,103,119,-44,-68,111,41,-3,-56,-54,-151,-152
-43,119,163,-38,-104,141,21,-22,-69,-89,-170,-151
-51,152,204,-51,-128,178,-30,-97,-113,-70,-145,-137
-51,154,205,-52,-128,179,-58,-101,-118,-105,-179,-140
-21,148,169,-63,-96,158,-39,9,12,-1,-168,-187
-10,221,231,-106,-121,226,-16,210,280,221,-77,-169
221,406,186,-314,17,296,-180,314,750,1012,784,206
219,679,460,-449,-121,570,-341,-344,18,899,1333,646
-191,597,789,-203,-490,693,-271,-1137,-1501,-1027,162,519
-117,321,438,-102,-277,379,-295,-952,-1297,-1206,-344,255
47,286,239,-167,-96,262,-257,-351,-375,-267,-114,68
-19,222,242,-102,-131,232,-107,-75,-118,-170,-202,-125
-17,195,212,-89,-114,203,-93,-57,-84,-111,-164,-139
-40,203,243,-81,-142,223,-83,-62,-96,-141,-228,-187
-47,189,235,-71,-141,212,-73,-54,-84,-122,-218,-226
-62,192,254,-66,-158,223,-70,-56,-83,-118,-229,-233
-76,182,259,-53,-168,220,-61,-55,-80,-128,-253,-252
-55,228,283,-86,-170,255,-58,-60,-73,-142,-241,-248
-58,231,290,-87,-174,260,-52,-66,-70,-161,-264,-257
-60,252,313,-96,-187,282,-30,-65,-62,-139,-258,-245
-45,313,358,-135,-201,335,-61,-89,-59,-140,-246,-233
-39,348,387,-155,-214,368,-143,-118,-52,-115,-221,-223
-30,395,425,-183,-227,409,-166,-114,-48,-90,-197,-211
-16,412,428,-198,-223,420,-194,-115,-44,-74,-163,-205
-1,441,442,-220,-222,442,-227,-116,-45,-65,-143,-196
4,483,479,-243,-238,481,-229,-114,-45,-55,-117,-195
5,494,490,-250,-243,492,-223,-119,-45,-53,-85,-194
9,515,506,-262,-249,510,-215,-120,-46,-60,-89,-196
2,516,514,-259,-256,515,-209,-120,-49,-62,-93,-195
2,505,503,-254,-251,504,-202,-122,-66,-69,-108,-194
0,502,503,-251,-252,502,-197,-126,-95,-111,-158,-220
-3,489,492,-243,-248,490,-191,-124,-132,-150,-185,-238
-3,490,493,-244,-248,492,-183,-122,-158,-168,-209,-238
-5,498,503,-247,-254,501,-179,-139,-169,-191,-237,-236
-18,488,507,-236,-263,497,-169,-136,-174,-193,-237,-226
-34,466,501,-216,-268,483,-166,-128,-161,-179,-228,-219
-23,439,461,-208,-242,450,-136,-124,-151,-170,-218,-211
-35,387,422,-176,-229,405,-98,-82,-146,-162,-215,-204
-69,347,417,-139,-243,382,-93,-65,-155,-157,-200,-200
-48,360,407,-156,-228,383,-82,-70,-158,-164,-195,-199
-34,362,396,-164,-215,379,-111,-135,-158,-150,-177,-201
-41,351,393,-155,-217,372,-134,-158,-154,-160,-182,-198
-22,346,368,-163,-195,357,-148,-130,-132,-150,-181,-203
-33,334,366,-151,-200,350,-152,-146,-145,-148,-174,-198
-12,319,331,-154,-172,325,-129,-52,-65,-129,-216,-233
-11,329,339,-159,-176,334,-81,123,122,19,-245,-316
108,399,291,-254,-92,345,-65,402,597,515,144,-143
249,690,441,-470,-96,565,-265,113,617,1171,1192,368
-88,887,975,-400,-532,931,-344,-913,-694,136,901,568
-273,671,944,-199,-609,807,-319,-1383,-1590,-1343,-346,319
-64,540,604,-238,-334,572,-377,-930,-1036,-948,-406,92
-31,483,514,-226,-273,499,-257,-344,-371,-380,-299,-95
-63,442,505,-190,-285,473,-163,-167,-208,-300,-347,-228
-67,438,504,-186,-286,471,-141,-145,-183,-235,-306,-279
-65,438,504,-187,-285,471,-130,-131,-168,-253,-339,-318
-54,462,517,-204,-286,489,-134,-130,-154,-236,-314,-297
-44,17,61,14,-53,39,32,34,-1,-92,-171,-151
-40,-423,-383,232,172,-403,206,190,147,73,-22,-24
-46,-526,-481,286,217,-503,278,256,197,103,0,15
-47,-601,-554,324,253,-577,301,289,259,146,53,61
-44,-603,-559,323,258,-581,265,255,281,161,67,81
-37,-636,-599,337,281,-617,219,239,280,176,72,100
-30,-648,-618,340,294,-633,200,277,299,188,70,100
-12,-642,-630,327,309,-635,199,308,322,180,58,105
-21,-648,-627,335,303,-637,192,326,323,176,57,118
-12,-642,-630,327,310,-636,187,326,310,164,45,110
-1,-648,-646,325,323,-647,180,319,303,160,48,107
-15,-640,-625,328,305,-632,188,313,294,159,53,103
-11,-630,-619,321,305,-625,192,305,281,154,71,96
-6,-618,-612,312,304,-615,191,300,266,153,105,98
-7,-608,-602,308,298,-605,209,271,233,151,110,110
-6,-603,-597,305,296,-600,211,245,204,144,101,110
-6,-595,-589,301,292,-592,209,216,178,137,100,111
-11,-589,-578,301,284,-583,211,210,162,109,83,109
-30,-583,-553,307,262,-568,210,212,162,120,92,112
-49,-575,-525,312,238,-550,220,206,139,85,66,106
-28,-561,-534,295,253,-547,226,218,153,108,83,102
-56,-558,-502,307,224,-530,240,193,117,69,58,94
-47,-566,-519,306,237,-542,300,288,197,99,79,67
-53,-493,-440,273,193,-466,352,404,349,229,76,43
98,-332,-431,117,265,-381,221,499,751,774,560,242
308,-30,-338,-139,323,-184,-48,137,687,1411,1576,750
-70,60,130,5,-100,94,-113,-849,-914,-185,844,820
-229,-240,-11,234,-109,-125,-77,-1070,-1537,-1381,-225,513
-8,-339,-330,174,161,-334,-79,-433,-512,-397,8,353
-29,-352,-323,191,148,-337,40,-6,14,-25,40,142
-30,-421,-391,225,181,-406,109,92,95,18,21,45
-22,-400,-378,212,178,-389,97,95,105,61,17,49
-22,-405,-383,214,181,-394,115,110,108,31,0,34
-17,-396,-379,207,181,-388,124,133,127,77,20,45
-22,-393,-371,208,175,-382,129,141,120,55,-6,37
-12,-386,-374,199,181,-380,136,142,149,85,14,42
-12,-375,-363,194,175,-369,146,152,158,85,-2,19
-20,-371,-350,196,165,-360,145,155,171,77,10,-11
-18,-345,-327,181,155,-336,145,173,188,95,2,3
7,-311,-318,152,163,-314,146,170,203,120,17,-1
1,-297,-297,148,149,-297,144,185,214,135,31,12
14,-271,-286,129,150,-279,144,189,233,166,39,15
25,-243,-268,109,147,-255,127,207,256,176,79,16
14,-216,-229,102,122,-222,123,262,289,263,104,40
44,-152,-197,54,121,-174,100,221,304,197,145,31
9,-172,-181,81,95,-176,-21,194,249,262,127,90
48,-132,-180,42,114,-156,-125,48,212,150,158,33
11,-169,-180,79,96,-174,-104,96,153,199,110,103
46,-134,-180,44,113,-157,-141,-16,143,128,98,-3
232,53,-180,-143,206,-64,-36,83,107,-518,12,107
204,24,-180,-114,192,-78,138,-238,-6,-369,-141,364
