I,II,III,aVR,aVL,aVF,V1,V2,V3,V4,V5,V6
19,-100,-119,41,69,-110,0,-74,564,-41,-106,70
16,-98,-114,41,65,-106,0,-69,557,-43,-108,70
15,-92,-107,39,61,-99,7,-64,546,-36,-105,69
12,-89,-102,39,57,-95,15,-58,537,-32,-98,70
10,-83,-93,36,52,-88,23,-53,529,-26,-90,69
8,-81,-89,37,48,-85,32,-46,535,-20,-85,71
22,-56,-78,17,50,-66,32,-47,553,-15,-75,87
40,-15,-55,-12,48,-35,19,-51,570,6,-60,98
72,25,-47,-49,60,-11,7,-56,579,37,-41,118
119,67,-52,-93,85,7,-5,-61,570,41,-25,141
131,83,-48,-107,89,17,-22,-60,563,45,-18,151
90,35,-54,-62,72,-9,-27,-60,558,46,-21,148
46,-48,-94,2,70,-71,-25,-60,535,7,-50,106
23,-92,-115,35,70,-103,-22,-84,505,-24,-78,74
13,-134,-147,61,80,-140,-19,-121,447,-74,-121,53
10,-141,-151,65,81,-146,-17,-111,455,-63,-117,43
2,-145,-147,72,75,-146,-12,-117,446,-66,-122,28
7,-149,-156,71,82,-152,-15,-108,443,-56,-120,25
1,-137,-138,68,70,-137,-5,-112,451,-45,-116,16
29,-171,-199,71,114,-185,-6,-41,454,-55,-131,2
71,-124,-195,27,133,-159,81,306,742,95,-59,37
127,123,-4,-125,65,59,121,449,1020,392,212,259
218,665,446,-442,-114,555,70,203,1507,1342,1089,954
128,786,658,-457,-266,722,-79,-561,1237,1300,1156,1097
-11,270,281,-130,-146,275,-473,-1166,-7,-56,94,388
-23,-71,-47,47,12,-59,-439,-749,-164,-353,-222,59
-41,-153,-113,97,37,-133,-127,-314,226,-159,-141,49
-35,-141,-106,88,35,-123,-55,-129,394,-89,-126,34
4,-137,-140,67,72,-138,4,-8,484,-16,-77,37
17,-138,-155,60,87,-146,13,-7,463,-34,-98,21
18,-128,-146,55,82,-137,21,45,508,1,-75,24
23,-130,-153,53,88,-142,32,46,502,-8,-80,23
31,-117,-147,43,89,-132,35,67,524,16,-70,35
38,-114,-152,38,95,-133,47,85,537,26,-64,34
40,-105,-145,33,93,-125,43,103,554,38,-52,36
41,-98,-139,29,91,-119,49,125,580,51,-38,40
42,-90,-132,24,88,-111,50,149,594,67,-29,40
47,-79,-126,16,87,-102,49,184,628,92,-7,50
66,-54,-119,-6,93,-86,45,218,665,117,12,65
77,-26,-103,-25,90,-64,45,274,712,150,36,78
88,1,-87,-44,87,-43,45,333,762,181,61,97
104,35,-69,-69,86,-17,45,419,826,229,97,121
117,71,-46,-94,81,12,46,518,903,289,144,152
141,127,-15,-134,78,56,39,598,977,358,201,200
169,191,23,-180,73,107,27,666,1048,430,269,251
188,249,61,-219,63,155,16,689,1098,500,333,303
198,302,103,-250,47,202,5,680,1116,558,385,353
203,332,128,-268,37,230,-12,623,1106,582,414,383
199,335,136,-267,31,235,-28,498,1041,575,416,383
183,310,128,-247,27,219,-30,350,922,512,383,361
147,233,86,-190,30,159,-27,203,771,387,287,289
105,140,35,-123,35,87,-24,90,629,252,179,193
73,59,-14,-66,43,22,-19,20,534,157,95,130
48,-5,-53,-21,51,-28,-16,-27,469,96,33,82
36,-37,-73,0,55,-54,-13,-56,425,51,-4,59
23,-54,-77,16,51,-66,-8,-70,395,29,-27,47
16,-59,-75,22,45,-66,-5,-69,381,17,-38,39
14,-61,-75,24,44,-68,-2,-65,379,5,-45,41
10,-65,-75,28,43,-70,3,-62,376,5,-46,39
10,-65,-75,28,43,-70,4,-57,373,5,-44,41
10,-65,-75,28,43,-70,1,-54,370,0,-45,39
16,-65,-81,25,49,-73,-2,-51,368,0,-45,41
20,-65,-85,23,53,-75,-5,-50,364,-1,-45,47
19,-65,-85,23,53,-75,-8,-50,358,-6,-45,45
31,-65,-96,17,64,-80,-10,-51,354,-5,-45,45
35,-67,-101,16,68,-83,-10,-49,349,-8,-45,45
29,-70,-99,20,64,-85,-10,-57,345,-11,-45,45
30,-70,-101,20,65,-85,-10,-66,340,-10,-45,45
30,-70,-100,20,65,-85,-10,-65,331,-14,-45,41
26,-74,-100,24,64,-87,-10,-65,324,-16,-45,38
25,-80,-105,28,65,-92,-10,-69,316,-15,-45,33
25,-80,-105,28,65,-92,-14,-72,309,-16,-44,31
27,-80,-106,27,66,-93,-15,-77,301,-22,-47,25
30,-80,-110,25,70,-95,-15,-80,292,-30,-57,26
31,-80,-110,24,70,-95,-15,-80,285,-30,-62,39
27,-81,-108,27,67,-94,-15,-80,276,-32,-65,39
22,-76,-98,28,60,-87,-13,-76,275,-38,-59,40
18,-69,-87,26,53,-78,-4,-69,274,-37,-47,39
15,-63,-78,24,47,-70,4,-63,278,-32,-39,54
27,-32,-58,3,43,-45,12,-55,296,-11,-25,69
52,15,-37,-33,44,-11,20,-51,309,18,-13,85
72,54,-18,-63,45,17,-2,-48,321,40,3,113
86,91,5,-89,41,48,-35,-64,319,34,11,126
101,107,6,-104,47,56,-42,-77,314,19,25,145
93,57,-36,-75,64,11,-36,-74,315,13,21,119
55,-24,-79,-15,67,-51,-36,-75,285,-10,-24,101
23,-71,-94,24,59,-82,-31,-91,254,-26,-51,107
20,-106,-125,43,73,-116,-30,-117,203,-72,-96,105
16,-108,-125,47,71,-116,-28,-102,208,-57,-92,114
9,-116,-125,54,68,-120,-21,-106,203,-61,-97,110
10,-117,-127,54,69,-122,-25,-95,203,-54,-95,191
1,-107,-108,53,55,-107,-10,-100,211,-41,-91,185
35,-139,-174,52,105,-157,-21,-45,220,-64,-105,142
68,-97,-165,15,117,-131,66,306,510,89,-22,148
121,152,32,-137,44,92,112,433,790,401,249,302
212,680,468,-446,-128,574,65,200,1284,1346,1124,987
124,797,673,-461,-275,735,-55,-495,1042,1293,1171,1094
-24,309,334,-143,-179,321,-443,-1131,-199,-59,99,357
-38,-38,1,38,-20,-18,-441,-741,-377,-352,-219,15
-47,-130,-83,89,18,-106,-135,-308,-3,-186,-155,-22
-47,-113,-66,80,10,-89,-53,-142,161,-123,-129,-36
-6,-109,-103,58,49,-106,-1,-5,261,-42,-70,-24
10,-109,-120,50,65,-114,7,-18,237,-63,-91,-29
13,-99,-112,43,62,-105,13,26,274,-29,-68,-20
17,-100,-117,42,67,-108,21,34,266,-42,-76,-21
18,-89,-107,35,63,-98,18,54,290,-23,-64,-22
27,-86,-112,29,70,-99,27,68,297,-23,-62,-43
30,-77,-106,24,68,-91,22,86,310,-16,-55,-46
27,-71,-98,23,63,-85,21,113,339,-3,-44,-39
31,-59,-90,14,60,-74,19,128,354,9,-40,-37
36,-45,-81,4,59,-63,20,158,384,32,-29,-30
41,-29,-71,-6,56,-50,20,189,418,53,-20,-27
52,-7,-59,-22,55,-32,20,241,468,89,7,-21
64,18,-46,-41,55,-14,16,303,520,133,39,-3
74,45,-29,-59,51,8,9,376,585,177,69,16
90,83,-7,-87,49,38,6,460,660,233,108,41
115,136,21,-126,47,78,-1,535,733,297,168,82
140,194,54,-167,43,123,-6,598,805,369,233,125
157,254,97,-206,30,175,-12,617,854,442,294,171
176,306,129,-241,23,217,-35,599,849,483,342,208
175,334,160,-255,7,247,-55,553,835,497,364,232
166,343,178,-255,-6,260,-65,448,789,487,365,231
150,315,165,-233,-8,240,-66,307,666,415,320,190
106,241,134,-174,-14,187,-56,167,515,286,218,115
67,148,82,-108,-8,115,-49,58,387,170,120,35
26,66,39,-46,-7,52,-41,-11,289,74,36,-45
8,13,5,-11,2,9,-34,-57,214,2,-28,-99
5,-17,-22,7,13,-19,-29,-85,175,-32,-65,-121
-13,-38,-25,26,6,-32,-26,-99,156,-62,-94,-146
-17,-45,-28,31,6,-36,-23,-99,149,-71,-100,-159
-17,-48,-31,32,7,-39,-18,-94,146,-73,-101,-161
-15,-50,-35,33,10,-42,-15,-89,139,-90,-113,-170
-22,-55,-33,39,6,-44,-11,-83,134,-90,-115,-175
-27,-57,-29,42,1,-43,-10,-77,128,-90,-115,-177
-24,-55,-30,39,3,-42,-10,-75,124,-90,-114,-180
-25,-55,-30,40,3,-42,-10,-75,120,-91,-117,-184
-21,-50,-30,35,5,-40,-10,-75,118,-108,-125,-185
-19,-50,-31,35,5,-40,-11,-75,113,-111,-125,-190
-12,-50,-38,31,13,-44,-19,-75,110,-110,-125,-189
-9,-50,-41,29,16,-45,-20,-76,105,-115,-126,-185
-11,-50,-39,31,14,-45,-20,-83,95,-115,-125,-193
-8,-50,-41,29,17,-45,-20,-87,87,-116,-126,-196
-2,-51,-49,26,23,-50,-20,-90,77,-120,-135,-195
1,-49,-50,24,26,-50,-20,-94,69,-120,-141,-195
-10,-60,-50,35,20,-55,-20,-99,63,-126,-144,-209
-16,-66,-50,41,18,-57,-20,-100,55,-131,-149,-217
-15,-65,-50,40,18,-57,-20,-101,49,-129,-150,-208
-11,-70,-59,41,24,-64,-20,-104,42,-136,-150,-220
-3,-63,-60,33,29,-62,-21,-105,36,-140,-149,-230
0,-56,-56,28,28,-55,-18,-104,38,-134,-143,-234
6,-46,-52,20,29,-49,-13,-97,41,-129,-135,-235
9,-41,-50,16,30,-45,-5,-93,44,-122,-130,-231
5,-27,-31,11,18,-29,0,-87,46,-118,-121,-225
6,8,2,-7,2,5,8,-82,56,-110,-117,-222
11,50,39,-31,-15,44,15,-75,79,-95,-102,-213
24,95,71,-60,-24,83,-21,-78,92,-83,-69,-181
66,134,68,-100,-1,101,-52,-99,80,-88,-72,-167
73,121,48,-97,12,84,-47,-101,75,-82,-71,-177
26,34,8,-30,9,21,-44,-98,59,-96,-91,-213
-6,-34,-27,20,11,-30,-42,-106,24,-131,-130,-255
-25,-78,-53,52,15,-66,-34,-129,-20,-165,-159,-290
-27,-113,-85,70,29,-99,-36,-141,-46,-194,-183,-304
-30,-104,-73,67,21,-89,-28,-128,-24,-181,-174,-303
-30,-117,-87,73,29,-102,-28,-138,-49,-202,-187,-325
-30,-103,-73,66,21,-88,-22,-121,-18,-155,-163,-320
-30,-117,-87,74,28,-102,-20,-131,-44,-189,-185,-332
9,-130,-140,61,75,-135,-2,67,102,-106,-137,-316
37,-11,-49,-13,43,-30,99,371,404,68,-43,-262
115,384,269,-250,-77,326,76,305,743,680,530,203
136,833,696,-485,-280,764,28,-71,1125,1498,1282,799
-17,639,657,-311,-337,648,-213,-844,224,563,597,400
-92,140,232,-24,-162,186,-514,-1018,-711,-473,-268,-251
-72,-97,-25,85,-23,-61,-298,-484,-432,-356,-270,-368
-88,-131,-42,110,-23,-87,-80,-258,-177,-270,-233,-362
-66,-113,-47,89,-9,-80,-33,-84,-34,-151,-169,-341
-19,-121,-102,70,42,-111,19,-29,1,-150,-157,-343
-14,-112,-98,63,42,-104,16,-29,5,-139,-149,-338
-15,-116,-101,66,43,-108,31,10,39,-118,-136,-333
-10,-109,-99,60,45,-104,28,6,39,-123,-135,-332
2,-103,-105,50,54,-104,31,39,70,-96,-120,-326
9,-99,-108,45,59,-103,30,47,75,-98,-121,-324
1,-92,-93,45,48,-92,29,70,93,-74,-109,-316
-1,-87,-86,44,43,-87,33,86,107,-60,-101,-314
7,-67,-74,30,41,-70,30,114,137,-36,-76,-308
18,-48,-67,15,43,-57,30,141,166,-18,-65,-305
22,-35,-57,7,40,-46,30,178,201,9,-49,-296
30,-19,-49,-6,40,-33,30,238,253,46,-20,-279
46,9,-37,-27,41,-14,30,303,313,89,6,-257
64,45,-19,-54,42,13,27,383,381,140,46,-231
84,89,4,-87,40,46,17,465,453,202,93,-196
111,146,34,-129,38,90,9,538,532,278,155,-148
136,202,67,-169,34,134,0,583,588,344,217,-96
151,257,106,-204,22,181,-9,592,618,405,274,-51
164,305,141,-235,11,223,-19,571,621,443,317,-19
153,321,168,-237,-8,245,-30,502,587,438,328,-2
146,317,171,-232,-13,244,-43,376,503,411,315,-9
130,273,144,-202,-7,208,-48,236,372,328,253,-57
79,178,99,-128,-11,138,-37,106,230,199,152,-135
42,89,47,-66,-3,68,-28,17,116,91,56,-215
13,22,9,-18,2,15,-17,-30,33,8,-21,-281
-19,-24,-6,22,-6,-15,-10,-70,-32,-50,-69,-320
-33,-49,-16,41,-8,-32,-11,-91,-63,-80,-90,-337
-35,-63,-28,50,-4,-45,-8,-96,-79,-95,-102,-350
-34,-71,-37,53,2,-54,-5,-96,-86,-105,-114,-361
-30,-75,-45,53,8,-60,-5,-89,-93,-105,-115,-366
-30,-75,-45,53,8,-60,-7,-86,-95,-108,-115,-364
-29,-75,-46,52,9,-60,-10,-81,-95,-111,-115,-365
-25,-75,-50,50,13,-62,-10,-76,-106,-110,-115,-365
-25,-75,-50,50,13,-62,-10,-77,-112,-110,-115,-365
-27,-79,-52,53,13,-65,-10,-81,-109,-110,-111,-369
-21,-80,-60,51,19,-70,-10,-80,-111,-110,-110,-376
-16,-80,-65,48,25,-72,-15,-80,-125,-110,-110,-380
-16,-85,-69,51,27,-76,-15,-80,-132,-110,-110,-379
-14,-85,-70,49,29,-77,-15,-81,-137,-110,-110,-383
-17,-87,-70,52,27,-78,-15,-84,-153,-111,-110,-385
-20,-90,-70,55,25,-80,-15,-87,-157,-109,-110,-385
-20,-90,-70,55,25,-80,-15,-94,-161,-119,-110,-389
-20,-90,-70,55,25,-80,-15,-100,-170,-132,-110,-390
-20,-90,-70,55,25,-80,-15,-103,-176,-129,-110,-390
-15,-90,-75,53,30,-82,-15,-107,-181,-130,-110,-389
-10,-90,-80,50,35,-85,-15,-112,-186,-134,-110,-391
-17,-98,-81,58,32,-89,-15,-115,-191,-135,-110,-395
-15,-101,-86,58,35,-93,-10,-115,-196,-140,-110,-397
-17,-100,-82,59,32,-91,-10,-115,-205,-139,-110,-400
-17,-97,-80,57,32,-88,-9,-115,-213,-135,-110,-403
-14,-95,-81,54,34,-87,-4,-115,-215,-136,-110,-406
-16,-95,-79,55,32,-87,-6,-115,-209,-134,-100,-403
-5,-86,-81,45,38,-83,-2,-109,-202,-137,-90,-396
-10,-68,-58,39,25,-63,4,-86,-194,-123,-80,-384
-5,-30,-25,18,11,-28,9,-75,-167,-93,-67,-375
17,16,-1,-17,9,8,16,-74,-155,-73,-50,-359
44,56,11,-50,16,33,-10,-79,-155,-55,-33,-335
64,89,25,-77,19,57,-41,-91,-151,-55,-20,-329
61,80,19,-71,21,50,-40,-90,-149,-46,-12,-316
37,3,-34,-19,35,-15,-36,-89,-155,-68,-41,-343
0,-63,-63,31,32,-63,-36,-93,-181,-102,-63,-388
-5,-101,-96,54,45,-98,-29,-124,-226,-133,-91,-410
-10,-140,-130,75,60,-135,-32,-146,-260,-174,-123,-437
-25,-133,-108,80,41,-120,-23,-129,-239,-155,-107,-435
-24,-147,-122,86,49,-134,-19,-139,-261,-184,-124,-446
-31,-134,-103,82,36,-119,-13,-118,-239,-144,-105,-432
-25,-141,-116,84,45,-128,-6,-131,-250,-167,-126,-450
14,-160,-173,73,94,-166,2,40,-138,-107,-94,-442
56,-66,-122,5,90,-94,107,375,159,59,-15,-402
141,284,143,-212,-1,214,111,388,477,561,452,-25
173,790,617,-481,-222,704,61,6,920,1462,1288,652
43,652,608,-348,-283,630,-191,-841,181,773,820,412
-52,120,172,-34,-112,146,-525,-1115,-869,-384,-134,-291
-58,-122,-63,90,3,-92,-320,-572,-669,-351,-211,-476
-76,-162,-86,119,5,-124,-80,-269,-368,-235,-165,-469
-52,-134,-82,93,15,-108,-25,-93,-223,-135,-115,-444
-4,-133,-129,69,63,-131,33,-29,-185,-119,-93,-459
3,-121,-124,59,64,-122,29,-20,-196,-118,-94,-467
3,-118,-121,58,62,-119,45,26,-148,-88,-80,-459
3,-118,-121,58,62,-119,44,32,-147,-95,-84,-461
3,-111,-114,55,59,-112,49,61,-110,-67,-69,-452
4,-112,-116,55,60,-114,52,70,-106,-71,-72,-452
2,-107,-110,53,56,-108,54,91,-95,-51,-56,-446
15,-94,-109,40,62,-101,54,114,-74,-41,-47,-439
32,-72,-105,20,69,-88,48,142,-39,-17,-32,-431
40,-62,-102,12,71,-82,51,170,-5,8,-15,-420
40,-49,-89,5,64,-68,49,213,28,27,1,-406
54,-19,-73,-17,64,-46,50,265,73,54,22,-388
73,12,-61,-43,67,-24,50,337,129,90,44,-373
87,44,-42,-65,64,1,56,427,200,145,81,-349
96,88,-8,-92,52,40,58,517,281,208,132,-310
114,146,32,-131,41,89,47,596,358,280,190,-263
148,212,64,-181,42,138,38,653,422,352,252,-212
164,268,103,-216,30,185,28,667,470,424,314,-166
181,317,136,-249,22,226,8,642,479,471,365,-126
177,343,165,-260,6,254,-12,580,455,478,388,-101
160,344,184,-252,-12,264,-22,448,385,461,373,-100
148,307,159,-228,-6,233,-21,291,257,385,326,-132
104,219,115,-161,-6,167,-15,153,115,265,230,-212
69,128,59,-99,5,93,-11,53,-6,147,124,-298
41,52,11,-47,15,31,-6,-10,-98,55,43,-370
14,-3,-16,-5,15,-9,-1,-53,-161,-9,-15,-424
5,-32,-37,13,22,-34,3,-74,-196,-50,-49,-447
1,-43,-45,21,23,-44,5,-77,-214,-67,-68,-465
-4,-49,-45,27,21,-47,8,-74,-226,-74,-75,-475
-11,-55,-44,33,17,-50,11,-71,-225,-76,-78,-478
-7,-55,-48,31,21,-51,14,-68,-224,-75,-80,-484
-5,-55,-50,30,23,-52,15,-65,-226,-75,-88,-482
-4,-55,-51,30,24,-53,10,-65,-224,-75,-91,-479
0,-55,-55,28,28,-55,10,-65,-225,-75,-89,-480
1,-55,-56,28,29,-56,9,-65,-225,-78,-86,-480
1,-58,-59,29,30,-58,5,-65,-224,-81,-84,-480
1,-61,-62,30,32,-62,5,-65,-230,-80,-85,-480
0,-64,-64,32,33,-64,5,-65,-235,-80,-85,-484
-1,-67,-66,34,33,-66,5,-69,-240,-80,-85,-488
-6,-70,-64,39,29,-67,5,-70,-244,-81,-85,-493
-4,-70,-67,37,31,-68,5,-73,-253,-85,-85,-495
12,-70,-82,29,47,-76,5,-75,-260,-85,-85,-495
13,-73,-86,31,50,-80,5,-76,-265,-87,-88,-502
6,-78,-84,36,46,-81,10,-80,-278,-95,-91,-510
5,-80,-85,38,45,-82,10,-83,-281,-100,-94,-510
5,-80,-85,38,45,-82,10,-85,-283,-100,-95,-510
4,-80,-84,38,44,-81,10,-88,-287,-102,-95,-510
0,-80,-80,40,40,-80,11,-92,-290,-106,-95,-509
0,-80,-80,40,40,-80,7,-97,-290,-104,-95,-512
0,-80,-80,40,40,-80,5,-100,-294,-106,-95,-515
-4,-84,-80,44,38,-82,5,-100,-305,-107,-95,-518
-5,-85,-80,45,38,-82,1,-101,-304,-102,-98,-520
-5,-91,-85,48,40,-88,0,-99,-296,-94,-92,-515
-3,-96,-93,49,45,-94,0,-102,-288,-88,-83,-510
6,-71,-77,33,42,-74,8,-86,-279,-80,-75,-506
19,-29,-48,6,34,-38,15,-54,-273,-76,-68,-501
26,10,-16,-18,21,-3,27,-38,-258,-63,-53,-497
39,44,5,-42,17,25,23,-45,-233,-43,-30,-476
66,81,15,-74,25,48,-15,-69,-231,-39,-29,-465
82,104,22,-94,30,63,-28,-77,-236,-38,-32,-461
82,73,-9,-77,45,32,-24,-74,-238,-34,-27,-463
52,-1,-53,-25,52,-27,-24,-74,-266,-61,-46,-502
11,-55,-67,22,39,-61,-20,-88,-291,-89,-71,-519
-7,-109,-103,59,48,-106,-19,-121,-338,-132,-112,-521
-7,-129,-122,69,58,-125,-20,-121,-341,-139,-122,-504
-13,-120,-107,67,47,-113,-7,-112,-320,-127,-116,-486
-12,-133,-121,72,55,-126,-8,-119,-336,-142,-126,-472
-15,-111,-95,63,40,-103,6,-100,-296,-109,-103,-441
-2,-138,-136,70,67,-137,6,-91,-338,-147,-132,-442
37,-127,-164,46,100,-145,53,166,-150,-32,-83,-409
79,20,-59,-49,68,-19,139,439,141,155,51,-286
185,483,298,-334,-57,391,103,337,569,917,772,316
155,849,694,-502,-270,771,45,-226,766,1463,1315,796
-2,473,476,-236,-239,474,-295,-1038,-334,306,441,279
-53,23,76,15,-65,49,-487,-980,-986,-445,-230,-255
-59,-111,-52,85,-3,-81,-195,-441,-619,-267,-178,-320
-55,-122,-67,88,6,-94,-43,-197,-403,-203,-149,-291
-24,-109,-84,67,31,-97,12,-32,-281,-111,-106,-265
-2,-120,-118,61,59,-119,39,-12,-278,-117,-114,-267
-7,-112,-105,59,50,-108,40,17,-252,-94,-94,-251
-8,-116,-108,63,50,-112,56,40,-230,-87,-89,-240
-2,-105,-103,54,51,-104,51,53,-225,-77,-82,-215
1,-98,-99,48,50,-98,68,75,-199,-59,-70,-186
13,-90,-103,39,58,-96,68,87,-187,-54,-65,-159
22,-82,-104,30,63,-93,71,114,-159,-31,-50,-143
22,-75,-97,27,60,-85,70,131,-142,-14,-44,-136
26,-61,-87,18,57,-73,69,164,-115,4,-30,-118
30,-50,-80,10,55,-65,71,196,-90,16,-14,-96
36,-34,-70,-1,53,-51,67,244,-49,48,6,-65
54,-7,-61,-24,58,-33,65,302,5,89,35,-32
64,20,-44,-42,53,-11,65,375,64,127,62,-8
83,61,-22,-72,52,19,62,466,133,178,101,30
101,111,11,-106,45,61,59,558,213,240,148,71
124,168,44,-147,40,106,60,634,289,302,199,113
153,235,82,-194,35,158,51,675,353,377,272,185
167,290,123,-228,22,206,38,681,391,444,333,242
179,334,156,-257,11,245,27,656,394,485,375,284
171,348,177,-260,-3,262,7,569,357,492,391,314
173,341,168,-257,2,254,-5,418,271,450,379,304
141,294,152,-218,-6,223,-9,261,144,357,312,257
82,193,111,-138,-15,152,-8,130,2,232,202,181
57,104,47,-81,5,75,0,40,-115,112,106,109
33,38,5,-35,14,21,6,-17,-201,25,27,54
-1,-13,-11,7,5,-12,13,-57,-254,-27,-22,19
-17,-38,-21,28,2,-29,19,-79,-282,-60,-52,14
-16,-50,-34,33,9,-41,25,-85,-302,-73,-62,15
-19,-58,-40,39,11,-49,30,-80,-311,-86,-76,12
-21,-61,-40,41,10,-50,30,-75,-314,-98,-89,9
-20,-60,-40,40,10,-50,30,-72,-312,-100,-86,11
-17,-57,-40,37,12,-48,30,-65,-309,-100,-83,18
-15,-54,-40,34,13,-46,30,-68,-306,-100,-79,32
-13,-56,-42,35,15,-49,27,-71,-304,-108,-76,43
-14,-60,-46,37,16,-52,25,-70,-299,-111,-71,58
-15,-60,-45,38,15,-52,25,-74,-302,-109,-71,81
-16,-61,-45,39,15,-53,25,-76,-312,-111,-79,93
-21,-65,-45,44,13,-55,25,-75,-318,-109,-80,108
-19,-65,-46,42,14,-55,25,-81,-326,-111,-80,119
-18,-67,-50,43,16,-58,25,-88,-335,-114,-80,133
-21,-71,-50,46,15,-61,25,-92,-350,-119,-80,149
-20,-69,-50,45,15,-59,25,-96,-358,-124,-91,164
-18,-71,-53,45,17,-62,25,-99,-363,-130,-96,176
-19,-74,-55,47,19,-65,26,-102,-366,-136,-94,189
-21,-76,-55,49,17,-65,22,-105,-364,-135,-96,224
-19,-75,-55,47,18,-65,20,-108,-368,-135,-95,246
-20,-75,-55,48,18,-65,20,-110,-375,-135,-95,257
-28,-83,-56,56,14,-69,20,-114,-383,-134,-106,271
-26,-86,-59,56,17,-72,20,-115,-385,-140,-111,290
-24,-85,-60,54,18,-72,20,-111,-388,-151,-111,303
-25,-85,-60,55,18,-72,25,-108,-390,-149,-115,319
-25,-86,-60,55,18,-72,25,-106,-384,-147,-115,341
-23,-84,-61,54,19,-72,29,-102,-378,-143,-108,364
-26,-82,-56,54,15,-69,29,-100,-370,-140,-98,389
-33,-73,-39,53,3,-56,35,-97,-364,-139,-91,424
-21,-36,-15,29,-3,-25,47,-94,-356,-123,-80,471
-1,12,14,-6,-8,13,35,-95,-338,-103,-70,513
10,54,44,-33,-17,49,16,-95,-329,-73,-46,575
38,96,58,-68,-10,77,7,-94,-329,-64,-33,632
50,104,54,-77,-2,79,1,-96,-324,-61,-36,680
32,63,31,-48,0,47,1,-98,-329,-63,-34,711
3,-4,-6,1,4,-5,10,-103,-353,-107,-63,711
-30,-54,-25,42,-2,-39,19,-117,-377,-128,-82,717
-35,-97,-63,66,14,-80,21,-147,-425,-174,-118,716
-45,-118,-73,81,14,-96,17,-145,-426,-176,-124,751
-54,-119,-65,87,5,-92,24,-141,-427,-178,-126,780
-45,-124,-79,84,17,-101,15,-141,-430,-182,-129,797
-58,-112,-55,85,-1,-84,26,-132,-399,-153,-112,842
-25,-137,-112,81,43,-124,22,-102,-415,-182,-132,852
25,-104,-129,40,77,-117,82,206,-168,-40,-71,887
63,91,28,-78,18,60,153,415,117,199,127,1086
157,598,441,-378,-143,519,116,255,599,1085,948,1763
104,837,733,-471,-315,785,30,-355,600,1326,1236,2068
-47,395,442,-174,-245,418,-336,-1109,-604,33,224,1423
-84,7,91,38,-87,49,-445,-902,-1022,-452,-243,1012
-96,-105,-10,101,-43,-57,-142,-403,-637,-280,-166,992
-74,-95,-21,84,-26,-58,-21,-196,-465,-215,-156,1004
-26,-90,-64,59,19,-77,31,-33,-353,-136,-97,1026
-28,-115,-86,71,29,-100,51,-34,-358,-161,-105,1010
-22,-102,-79,62,29,-90,58,1,-322,-111,-86,1045
-15,-103,-88,59,37,-95,71,21,-310,-113,-87,1050
-17,-93,-76,55,30,-84,70,36,-299,-94,-77,1052
-13,-89,-76,52,32,-82,78,60,-275,-83,-69,1057
-14,-83,-69,49,28,-76,73,73,-260,-74,-64,1063
-7,-72,-66,40,30,-69,76,93,-235,-57,-52,1064
0,-60,-61,30,31,-60,74,109,-221,-46,-40,1069
1,-50,-52,25,27,-51,75,141,-189,-22,-20,1081
8,-38,-47,15,28,-42,75,173,-151,-2,-5,1082
20,-18,-38,-1,29,-28,75,221,-105,31,18,1101
33,7,-26,-20,29,-9,75,284,-53,65,43,1119
44,33,-11,-38,27,11,75,356,6,108,73,1137
62,66,5,-64,28,35,75,448,76,162,113,1158
86,118,32,-103,27,75,75,539,158,229,165,1193
113,180,67,-146,23,123,66,609,229,300,227,1234
136,238,102,-188,17,169,53,652,288,369,291,1279
150,289,139,-220,5,213,42,649,324,427,347,1326
162,334,172,-248,-5,252,25,617,313,458,387,1349
158,349,191,-254,-17,270,9,524,273,452,402,1358
144,334,191,-239,-24,263,-6,375,190,414,376,1342
113,270,157,-192,-22,213,-12,226,60,321,298,1273
68,170,102,-119,-17,136,-4,101,-74,193,195,1181
29,85,56,-57,-14,70,4,22,-181,90,102,1099
0,18,19,-9,-10,18,12,-34,-254,14,33,1026
-21,-27,-6,24,-7,-17,19,-74,-303,-40,-11,980
-30,-47,-16,39,-7,-31,27,-91,-328,-68,-35,952
-30,-54,-24,42,-3,-39,30,-97,-339,-78,-50,934
-35,-65,-30,50,-2,-47,31,-95,-341,-86,-56,919
-40,-69,-30,55,-5,-50,36,-91,-339,-93,-60,906
-39,-70,-31,55,-4,-51,34,-88,-340,-95,-65,897
-35,-70,-35,53,0,-52,30,-83,-340,-95,-65,887
-35,-70,-35,53,0,-52,30,-80,-340,-95,-65,877
-35,-70,-35,53,0,-52,30,-80,-340,-95,-65,870
-35,-70,-35,53,0,-52,30,-80,-340,-95,-65,866
-39,-74,-35,57,-1,-54,31,-80,-340,-95,-66,860
-40,-75,-35,58,-2,-55,27,-80,-340,-96,-69,854
-42,-78,-36,60,-3,-56,25,-81,-340,-94,-70,850
-33,-80,-47,57,7,-64,25,-89,-353,-100,-70,842
-28,-81,-53,55,13,-67,22,-94,-361,-114,-70,832
-29,-85,-56,58,14,-71,19,-95,-364,-115,-70,824
-25,-85,-61,55,18,-72,21,-95,-370,-118,-73,814
-25,-85,-60,55,18,-72,25,-95,-383,-120,-76,806
-29,-89,-60,59,16,-75,25,-96,-404,-121,-75,797
-30,-90,-60,60,15,-75,25,-100,-419,-125,-76,787
-32,-91,-60,61,14,-75,25,-104,-432,-125,-79,777
-31,-95,-64,64,17,-79,25,-105,-445,-128,-80,767
-30,-95,-65,63,18,-80,25,-105,-454,-131,-80,759
-28,-95,-67,62,20,-81,25,-104,-464,-129,-80,750
-24,-95,-71,59,24,-82,25,-112,-470,-132,-80,742
-30,-99,-69,64,19,-83,25,-121,-478,-135,-80,733
-36,-100,-65,68,14,-82,25,-120,-483,-135,-80,727
-35,-100,-65,68,15,-82,24,-120,-486,-135,-81,720
-36,-99,-63,68,14,-81,28,-120,-493,-131,-85,715
-32,-91,-59,61,14,-75,31,-120,-485,-122,-78,713
-22,-84,-62,53,20,-73,29,-113,-474,-114,-69,709
-19,-67,-47,43,14,-57,46,-97,-465,-106,-61,708
-13,-31,-18,22,3,-24,66,-88,-455,-97,-50,703
-7,14,21,-4,-14,17,52,-90,-455,-78,-34,713
13,58,44,-36,-16,51,23,-94,-450,-63,-11,731
40,85,46,-63,-3,65,10,-105,-449,-67,1,737
35,77,42,-56,-4,59,-1,-111,-444,-63,11,742
32,28,-4,-30,18,11,-1,-109,-447,-68,-14,719
11,-31,-42,10,27,-37,5,-110,-471,-93,-48,676
-32,-91,-58,62,13,-74,13,-132,-505,-122,-73,634
-37,-129,-93,83,29,-111,14,-153,-546,-167,-108,601
-45,-124,-79,85,17,-101,18,-133,-523,-148,-91,596
-51,-140,-88,96,19,-114,21,-141,-538,-166,-109,582
-53,-131,-78,92,13,-104,22,-122,-515,-139,-90,582
-60,-136,-76,98,9,-106,32,-132,-526,-154,-100,567
-7,-156,-149,82,71,-152,34,-16,-469,-128,-103,577
21,-90,-111,34,66,-100,138,326,-172,33,-25,589
108,223,116,-166,-4,169,153,399,141,453,376,901
162,738,576,-450,-207,656,109,97,643,1383,1242,1603
27,687,659,-357,-316,673,-70,-703,110,933,960,1480
-65,188,254,-62,-160,221,-437,-1156,-1028,-291,-37,763
-108,-87,21,97,-64,-33,-324,-693,-988,-359,-194,547
-120,-147,-27,134,-46,-87,-56,-318,-663,-241,-141,533
-75,-129,-55,102,-9,-92,10,-122,-512,-167,-101,518
-44,-138,-94,91,26,-116,70,-28,-451,-116,-79,513
-38,-135,-97,87,30,-116,68,-26,-456,-124,-80,501
-32,-135,-102,84,35,-118,85,18,-411,-97,-59,499
-24,-132,-107,78,42,-119,88,27,-414,-101,-67,486
-23,-119,-96,71,36,-107,90,52,-388,-67,-50,484
-17,-114,-97,66,40,-105,97,60,-380,-67,-53,482
-14,-102,-88,58,38,-95,93,81,-354,-54,-39,486
-7,-93,-86,50,40,-90,99,102,-331,-39,-29,484
0,-80,-80,41,40,-80,99,126,-307,-18,-17,485
2,-67,-70,33,36,-68,101,159,-272,3,3,495
12,-49,-61,19,36,-55,96,198,-237,28,22,499
23,-25,-49,1,36,-37,95,249,-192,53,39,504
40,2,-38,-21,39,-18,95,315,-139,89,63,515
46,29,-17,-37,31,6,90,404,-74,138,98,530
60,70,11,-65,24,40,90,493,3,189,142,555
91,126,35,-109,27,80,89,576,84,261,205,592
113,186,73,-150,20,130,78,644,153,329,263,636
134,243,109,-189,12,176,66,666,212,400,324,680
149,296,148,-223,0,222,53,650,233,456,385,723
148,331,183,-240,-17,257,35,607,218,470,409,733
143,333,190,-239,-23,262,23,487,171,458,405,718
128,308,180,-219,-26,244,25,326,59,400,367,703
83,226,143,-155,-30,185,26,183,-80,289,278,636
35,124,89,-80,-27,106,24,70,-208,164,169,535
5,43,38,-24,-16,40,30,-3,-313,68,82,449
-14,-15,0,15,-7,-7,41,-52,-375,4,25,389
-33,-45,-12,39,-11,-28,45,-78,-415,-42,-18,347
-55,-72,-17,64,-19,-44,45,-91,-440,-70,-42,322
-61,-86,-25,74,-17,-56,45,-93,-449,-85,-52,308
-52,-84,-32,69,-10,-58,45,-89,-451,-92,-65,294
-46,-85,-40,66,-3,-62,45,-87,-447,-95,-71,285
-40,-85,-45,63,3,-65,44,-84,-445,-95,-70,277
-39,-85,-45,63,3,-65,40,-81,-441,-99,-70,267
-44,-89,-45,67,1,-66,40,-80,-439,-100,-70,259
-45,-90,-45,68,0,-67,40,-85,-440,-96,-70,254
-46,-90,-45,69,-1,-67,40,-85,-439,-95,-70,251
-47,-95,-47,71,0,-71,40,-85,-442,-95,-70,247
-44,-95,-52,70,5,-73,42,-85,-453,-114,-78,243
-40,-95,-55,68,8,-75,46,-85,-462,-127,-81,240
-35,-95,-60,65,13,-77,44,-87,-465,-124,-80,236
-35,-95,-60,65,13,-77,46,-95,-470,-126,-80,229
-34,-95,-62,65,14,-78,43,-100,-469,-125,-80,222
-30,-95,-65,63,18,-80,49,-100,-473,-128,-91,215
-30,-95,-66,63,19,-80,57,-103,-484,-133,-96,209
-36,-98,-62,67,13,-80,52,-105,-489,-136,-94,203
-45,-104,-60,74,8,-82,50,-107,-490,-140,-95,199
-45,-105,-60,75,8,-82,47,-112,-490,-140,-94,200
-49,-105,-56,78,4,-81,44,-115,-490,-140,-95,197
-55,-110,-55,83,0,-82,45,-115,-490,-140,-89,194
-55,-110,-55,83,0,-82,45,-115,-497,-144,-96,195
-48,-109,-61,79,7,-85,45,-114,-504,-155,-111,197
-41,-104,-63,73,11,-83,45,-121,-499,-155,-109,202
-50,-106,-56,78,4,-81,44,-122,-492,-157,-111,202
-61,-112,-51,87,-5,-82,45,-112,-486,-161,-110,206
-65,-110,-45,88,-10,-77,36,-105,-478,-155,-110,202
-41,-82,-41,62,0,-61,44,-97,-473,-145,-109,220
-24,-52,-28,38,2,-40,67,-98,-466,-134,-96,268
-26,-34,-8,30,-9,-21,63,-101,-458,-125,-90,296
-8,23,30,-8,-19,26,61,-99,-459,-96,-64,350
9,68,59,-38,-26,63,35,-102,-459,-79,-39,413
40,85,45,-63,-3,65,7,-107,-462,-81,-33,494
30,58,29,-44,0,43,21,-98,-464,-81,-30,569
-31,-23,8,27,-20,-7,32,-96,-465,-114,-63,609
-48,-74,-26,61,-11,-49,30,-118,-478,-138,-91,667
-57,-120,-63,89,3,-92,31,-159,-534,-193,-136,685
-63,-130,-67,97,2,-98,27,-158,-532,-200,-140,704
-67,-127,-61,97,-3,-94,27,-151,-524,-202,-139,702
-64,-135,-72,100,4,-103,23,-150,-528,-203,-141,692
-66,-120,-54,93,-6,-86,24,-136,-503,-177,-126,691
-53,-155,-101,104,24,-128,19,-116,-521,-205,-151,673
-4,-122,-118,63,57,-120,91,192,-255,-54,-82,677
34,97,63,-66,-15,80,158,371,21,190,130,830
121,593,472,-357,-176,532,112,179,501,1072,941,1463
60,798,738,-429,-339,768,24,-353,522,1279,1174,1681
-93,390,483,-149,-288,436,-311,-1035,-672,-16,172,1029
-113,16,129,49,-121,72,-421,-843,-1079,-462,-255,622
-126,-130,-4,128,-60,-67,-137,-387,-721,-298,-188,566
-110,-127,-17,119,-46,-72,-18,-223,-565,-265,-177,554
-74,-121,-47,97,-13,-84,45,-73,-442,-173,-121,557
-49,-130,-81,90,17,-105,68,-63,-445,-188,-131,543
-43,-121,-77,82,18,-99,68,-28,-406,-158,-112,545
-50,-128,-77,90,14,-102,81,-6,-396,-166,-116,530
-41,-113,-72,77,16,-92,69,14,-383,-145,-105,525
-40,-108,-69,74,15,-88,80,28,-361,-133,-101,514
-32,-97,-65,65,17,-81,79,31,-344,-120,-95,506
-29,-90,-61,60,16,-75,81,54,-314,-98,-79,509
-25,-80,-56,53,16,-68,80,73,-295,-86,-71,513
-21,-69,-48,45,14,-59,80,105,-260,-59,-52,513
-16,-61,-44,39,14,-52,80,134,-227,-46,-39,509
-6,-44,-38,25,16,-40,75,181,-184,-20,-24,510
3,-21,-25,9,14,-23,72,234,-134,12,2,518
20,14,-6,-17,13,4,68,304,-66,58,32,531
42,52,11,-47,15,31,64,391,15,117,76,559
63,93,30,-78,16,61,61,471,92,175,130,591
82,150,68,-117,7,109,56,536,168,248,186,632
105,209,105,-157,0,157,45,576,231,320,249,669
118,260,142,-189,-12,200,32,581,269,382,307,704
129,305,176,-217,-24,240,19,547,267,412,343,735
121,317,196,-219,-38,256,1,462,221,400,346,734
97,295,198,-196,-51,246,-8,329,127,357,318,708
76,246,171,-161,-48,208,-1,187,-10,248,240,642
31,155,124,-94,-47,140,4,69,-149,115,128,548
-11,68,79,-29,-45,73,9,-21,-258,9,33,461
-39,5,43,16,-41,24,15,-75,-333,-72,-37,391
-61,-43,17,52,-39,-13,20,-101,-377,-125,-87,342
-70,-61,10,66,-40,-25,25,-119,-401,-146,-111,310
-78,-70,8,74,-43,-31,25,-121,-409,-155,-116,296
-80,-76,5,77,-42,-36,29,-119,-405,-169,-122,286
-76,-74,2,75,-38,-36,30,-120,-401,-170,-129,279
-75,-75,0,75,-37,-37,30,-119,-398,-169,-130,271
-71,-75,-3,73,-33,-39,30,-121,-395,-171,-135,263
-70,-75,-5,73,-32,-40,30,-117,-390,-169,-134,260
-70,-75,-5,73,-32,-40,30,-115,-392,-173,-130,257
-65,-75,-10,70,-27,-42,30,-115,-395,-175,-130,254
-65,-75,-10,70,-27,-42,30,-115,-395,-177,-130,251
-64,-75,-11,70,-26,-43,24,-115,-395,-180,-130,249
-60,-75,-16,68,-22,-45,18,-115,-402,-181,-130,247
-60,-74,-14,68,-22,-44,14,-120,-410,-185,-130,242
-60,-81,-21,71,-19,-51,7,-120,-409,-185,-130,239
-60,-86,-26,73,-16,-56,3,-121,-412,-188,-130,235
-60,-85,-24,73,-18,-55,-1,-126,-419,-191,-131,231
-56,-85,-29,71,-13,-57,1,-124,-420,-187,-132,228
-55,-85,-30,70,-12,-57,2,-128,-420,-185,-129,225
-61,-91,-30,76,-15,-60,0,-130,-420,-185,-133,225
-59,-94,-35,77,-11,-64,0,-130,-420,-185,-140,225
-54,-88,-34,72,-10,-61,-3,-134,-420,-185,-140,225
-55,-92,-37,73,-9,-64,-6,-135,-418,-186,-140,225
-49,-89,-40,69,-5,-64,-4,-135,-415,-188,-140,224
-51,-92,-41,71,-5,-67,1,-129,-415,-179,-140,226
-68,-102,-34,85,-17,-67,11,-122,-415,-171,-135,222
-61,-61,-1,61,-30,-31,17,-117,-396,-162,-111,233
-47,-25,22,36,-34,-1,28,-114,-366,-156,-97,257
-37,9,46,14,-42,27,24,-116,-349,-134,-85,260
-19,56,75,-19,-47,65,-10,-111,-342,-100,-54,281
6,92,86,-50,-40,89,-31,-110,-347,-103,-47,294
24,100,75,-62,-26,87,-30,-110,-347,-96,-43,289
-4,19,23,-8,-13,21,-29,-103,-350,-117,-64,272
-38,-52,-14,45,-12,-33,-31,-114,-360,-154,-101,241
-63,-97,-34,81,-14,-65,-28,-145,-397,-187,-128,223
-65,-129,-65,97,1,-96,-31,-155,-423,-213,-145,217
-68,-121,-54,95,-7,-87,-19,-144,-401,-194,-134,217
-70,-137,-67,104,-2,-102,-15,-152,-417,-215,-147,202
-68,-121,-53,95,-7,-87,-4,-137,-380,-179,-124,210
-67,-141,-74,104,4,-107,3,-147,-413,-218,-149,188
-29,-155,-126,92,49,-140,20,68,-255,-127,-114,187
-2,-35,-34,19,16,-35,118,370,47,45,-13,241
92,373,281,-233,-95,327,89,302,413,663,568,705
98,807,708,-453,-305,757,35,-98,794,1435,1270,1283
-51,591,643,-270,-347,617,-222,-897,-115,510,603,888
-111,119,230,-4,-171,174,-522,-1051,-1004,-464,-209,275
-141,-109,33,125,-87,-38,-294,-505,-734,-354,-225,148
-143,-146,-2,144,-70,-74,-76,-267,-480,-271,-195,141
-91,-123,-32,107,-29,-78,-16,-91,-324,-163,-126,177
-64,-133,-68,99,2,-101,24,-41,-294,-163,-108,167
-57,-120,-64,89,4,-92,11,-32,-276,-150,-101,167
-56,-122,-65,89,5,-93,32,13,-240,-130,-92,165
-51,-116,-65,84,8,-90,29,12,-243,-129,-92,158
-44,-109,-64,77,10,-86,41,41,-211,-101,-80,162
-38,-103,-66,71,14,-84,43,51,-199,-101,-78,162
-36,-95,-58,66,11,-76,47,73,-168,-81,-63,167
-35,-90,-54,63,9,-72,53,94,-147,-72,-57,163
-26,-73,-47,50,11,-60,54,123,-115,-45,-38,168
-14,-57,-43,36,14,-50,56,152,-74,-21,-17,177
0,-37,-36,19,18,-36,57,192,-35,10,1,184
7,-12,-19,3,13,-15,61,245,8,49,23,192
16,11,-5,-14,10,3,60,314,71,85,53,208
33,43,10,-39,11,26,55,402,146,137,93,240
47,88,41,-67,3,64,45,488,231,201,146,273
78,146,68,-112,5,106,37,559,307,269,201,309
100,212,112,-157,-6,162,28,613,373,346,265,362
118,271,153,-195,-18,212,19,629,424,409,327,410
132,316,184,-224,-26,250,3,605,432,451,372,441
133,337,205,-235,-36,270,-13,534,399,456,391,459
138,335,198,-237,-30,266,-27,400,318,423,377,448
97,284,186,-191,-45,235,-38,246,197,346,317,399
50,190,140,-120,-45,165,-31,118,61,219,212,313
14,96,82,-55,-34,89,-23,27,-58,102,110,218
-21,23,44,-1,-33,33,-15,-34,-141,15,34,150
-38,-21,17,29,-27,-2,-7,-72,-192,-38,-18,106
-55,-46,9,50,-31,-19,-2,-91,-221,-68,-44,83
-58,-54,4,56,-30,-25,3,-100,-234,-85,-56,68
-69,-69,0,69,-34,-34,6,-105,-236,-92,-64,55
-72,-77,-5,75,-33,-41,9,-102,-235,-99,-68,50
-64,-74,-10,69,-27,-41,14,-96,-235,-109,-77,42
-62,-76,-13,69,-24,-44,14,-92,-231,-111,-81,36
-59,-75,-16,67,-21,-45,9,-84,-230,-109,-80,29
-61,-75,-14,69,-23,-45,11,-81,-230,-111,-80,25
-58,-75,-17,67,-20,-46,7,-84,-225,-110,-80,25
-55,-75,-20,65,-17,-47,5,-85,-225,-110,-80,25
-55,-75,-20,65,-17,-47,5,-89,-224,-110,-75,25
-55,-75,-20,65,-17,-47,2,-90,-220,-111,-75,25
-54,-75,-20,64,-16,-47,-1,-92,-220,-115,-74,25
-58,-78,-19,68,-19,-48,-4,-96,-222,-115,-70,21
-56,-80,-25,68,-16,-52,-7,-95,-229,-115,-70,16
-52,-80,-28,66,-12,-54,-10,-103,-235,-115,-73,11
-59,-85,-25,72,-17,-55,-10,-110,-238,-115,-75,7
-61,-85,-25,74,-17,-55,-10,-110,-243,-117,-76,3
-59,-85,-25,72,-16,-55,-10,-113,-244,-121,-80,-2
-59,-83,-25,72,-17,-54,-10,-116,-246,-125,-80,-6
-52,-78,-25,66,-13,-51,-10,-112,-247,-125,-85,-12
-46,-76,-30,61,-8,-52,-11,-108,-246,-126,-83,-16
-44,-72,-28,58,-8,-49,-5,-102,-244,-125,-76,-20
-47,-67,-20,57,-13,-43,5,-98,-239,-126,-71,-25
-50,-66,-15,58,-17,-40,15,-94,-241,-119,-65,-19
-43,-41,2,42,-22,-20,26,-89,-217,-93,-60,4
-32,-1,31,16,-32,15,38,-91,-193,-73,-44,17
-10,47,57,-18,-34,51,25,-88,-195,-53,-22,29
13,86,73,-49,-30,79,-18,-98,-194,-49,-16,53
29,97,68,-63,-20,82,-34,-111,-196,-48,-11,59
15,61,46,-38,-16,53,-26,-110,-194,-43,-3,52
-21,-19,2,20,-12,-9,-27,-109,-195,-74,-30,25
-35,-60,-25,48,-5,-42,-22,-119,-210,-96,-66,-14
-53,-106,-53,79,1,-79,-19,-150,-260,-148,-113,-57
-60,-121,-61,91,0,-91,-20,-142,-250,-141,-112,-64
-58,-116,-58,87,0,-87,-7,-145,-248,-144,-117,-67
-52,-117,-65,85,7,-91,-10,-139,-248,-140,-115,-64
-61,-108,-48,84,-6,-78,10,-141,-229,-127,-111,-63
-38,-145,-107,92,35,-126,-1,-87,-217,-144,-126,-77
-5,-103,-98,54,47,-101,70,256,52,-3,-57,-57
55,130,75,-93,-10,102,127,401,324,273,196,145
150,656,506,-403,-178,581,69,171,829,1199,1052,824
51,801,749,-426,-349,775,-59,-528,651,1231,1165,989
-79,318,396,-120,-238,357,-444,-1175,-583,-96,130,301
-111,-34,76,72,-93,21,-456,-823,-814,-441,-236,-79
-141,-137,4,139,-72,-66,-143,-370,-425,-259,-166,-105
-109,-125,-16,117,-46,-70,-49,-177,-254,-195,-138,-78
-67,-118,-51,93,-8,-84,11,-42,-153,-118,-90,-74
-53,-118,-65,86,6,-91,19,-46,-163,-134,-102,-90
-48,-105,-57,77,5,-81,32,-5,-114,-100,-79,-76
-45,-107,-62,76,8,-84,40,4,-107,-107,-84,-78
-43,-95,-53,70,5,-74,38,27,-82,-87,-70,-70
-37,-94,-57,66,10,-75,48,40,-68,-81,-64,-66
-34,-86,-52,60,10,-68,42,56,-50,-64,-52,-68
-33,-79,-46,56,7,-62,51,83,-21,-45,-38,-69
-27,-66,-39,47,6,-53,49,95,-4,-31,-29,-60
-22,-54,-32,39,5,-43,50,133,37,-6,-14,-51
-12,-39,-26,26,7,-32,50,172,73,15,-4,-45
-3,-18,-15,10,6,-16,48,222,123,44,20,-35
12,8,-4,-10,8,2,46,283,182,75,41,-20
33,44,12,-39,11,28,42,362,252,126,75,8
48,84,35,-66,6,59,40,455,339,185,122,37
66,132,66,-99,-1,99,36,543,423,255,173,77
89,194,105,-142,-8,149,36,616,497,334,238,126
115,258,142,-187,-14,200,28,645,562,405,303,175
132,315,183,-224,-26,249,9,638,592,463,361,228
136,349,213,-243,-39,281,-6,597,584,483,399,263
128,358,231,-243,-52,295,-23,484,533,469,400,269
110,334,225,-222,-58,279,-28,328,424,415,360,241
71,247,176,-159,-53,211,-20,179,284,300,265,163
21,147,126,-84,-52,136,-17,64,153,170,151,68
-1,67,68,-33,-34,67,-12,-10,55,65,61,-4
-18,7,25,5,-22,15,-8,-55,-14,-2,0,-58
-44,-31,13,37,-28,-9,-3,-88,-55,-43,-38,-98
-53,-56,-3,55,-25,-29,0,-104,-66,-65,-62,-105
-59,-65,-5,63,-27,-35,0,-99,-74,-76,-73,-120
-65,-69,-4,68,-30,-36,2,-96,-82,-84,-79,-136
-61,-71,-9,66,-26,-40,6,-93,-83,-89,-85,-136
-60,-69,-10,64,-25,-40,4,-88,-81,-100,-85,-145
-60,-70,-10,65,-25,-40,10,-85,-76,-100,-85,-146
-53,-70,-17,62,-18,-43,12,-85,-74,-99,-85,-144
-42,-70,-28,56,-7,-49,9,-85,-70,-101,-85,-141
-41,-78,-37,60,-2,-58,11,-85,-65,-99,-85,-139
-40,-81,-41,61,0,-61,10,-86,-68,-103,-89,-141
-36,-76,-40,56,2,-58,11,-85,-71,-105,-90,-140
-34,-75,-40,54,4,-57,9,-87,-70,-105,-90,-140
-31,-71,-40,51,5,-55,5,-90,-74,-109,-90,-140
-30,-70,-40,50,5,-55,5,-91,-75,-110,-91,-139
-35,-75,-40,55,3,-57,5,-89,-76,-111,-100,-146
-40,-80,-40,60,0,-60,5,-94,-79,-108,-105,-158
-39,-80,-40,59,1,-60,5,-104,-82,-119,-105,-161
-43,-83,-39,63,-2,-61,9,-106,-85,-132,-110,-159
-47,-88,-41,67,-3,-64,11,-110,-83,-129,-110,-162
-47,-84,-37,66,-5,-60,9,-108,-79,-133,-107,-172
-50,-86,-35,69,-7,-61,11,-101,-81,-135,-101,-177
-51,-85,-34,68,-8,-59,9,-94,-80,-136,-97,-183
-55,-85,-30,70,-12,-57,11,-87,-79,-129,-92,-176
-55,-85,-31,70,-12,-57,9,-81,-81,-117,-88,-168
-48,-56,-9,52,-19,-32,22,-74,-60,-104,-82,-159
-30,-6,23,18,-26,8,50,-72,-32,-88,-77,-153
-8,36,44,-14,-26,40,38,-68,-19,-72,-58,-143
2,72,71,-37,-35,71,20,-79,-7,-53,-33,-124
23,107,85,-65,-31,96,16,-97,3,-57,-31,-121
30,92,62,-61,-17,77,8,-94,5,-51,-26,-117
-2,18,20,-9,-11,19,6,-90,-19,-69,-50,-142
-31,-38,-6,35,-12,-22,4,-94,-38,-97,-72,-173
-47,-91,-44,70,-1,-68,7,-123,-84,-142,-108,-205
-56,-127,-70,92,7,-98,2,-128,-106,-160,-133,-234
-68,-126,-58,97,-5,-91,8,-120,-92,-139,-129,-240
-63,-138,-74,101,5,-106,1,-126,-112,-154,-142,-245
-65,-118,-53,92,-6,-85,11,-113,-83,-115,-125,-241
-52,-145,-93,98,21,-118,11,-110,-117,-155,-148,-257
-11,-139,-128,75,59,-133,62,164,87,-64,-89,-239
29,23,-6,-25,17,8,155,429,379,131,48,-138
128,490,362,-309,-117,425,116,297,800,884,744,421
96,843,747,-470,-326,795,44,-254,982,1412,1271,858
-46,467,512,-211,-279,489,-303,-1029,-130,256,401,319
-101,16,117,42,-109,67,-491,-948,-763,-481,-245,-211
-147,-131,16,139,-81,-57,-187,-425,-384,-292,-188,-281
-132,-147,-16,140,-58,-81,-35,-211,-175,-227,-178,-289
-80,-128,-48,104,-16,-87,18,-47,-49,-130,-116,-277
-58,-138,-80,98,11,-108,48,-27,-41,-137,-124,-281
-51,-124,-73,88,11,-98,51,5,-13,-114,-111,-274
-51,-127,-76,89,13,-101,70,29,12,-107,-103,-274
-43,-118,-75,81,16,-96,63,37,21,-100,-99,-270
-36,-110,-74,73,20,-92,74,64,44,-83,-86,-265
-31,-106,-75,68,22,-90,73,73,57,-78,-83,-264
-31,-95,-64,63,17,-79,76,98,87,-56,-67,-257
-27,-83,-56,55,15,-69,79,115,108,-49,-62,-256
-23,-67,-44,46,11,-56,80,149,140,-26,-47,-247
-18,-54,-35,36,9,-44,83,183,172,-1,-34,-233
-9,-33,-24,21,8,-28,85,227,219,28,-13,-220
7,-9,-16,1,11,-12,85,289,274,62,13,-207
21,18,-3,-19,12,7,85,360,340,104,48,-188
36,52,16,-44,9,34,85,449,416,158,87,-157
59,100,41,-80,8,71,85,540,500,221,136,-121
84,164,79,-124,2,121,74,619,579,298,203,-81
107,230,123,-168,-8,176,56,664,640,362,264,-39
125,285,160,-205,-18,222,42,664,674,420,327,11
135,325,190,-230,-28,258,28,636,672,467,372,50
124,334,210,-230,-43,272,20,543,640,466,381,60
111,319,208,-216,-48,263,20,391,550,429,361,48
84,262,178,-173,-47,220,20,241,409,325,285,-13
34,159,126,-97,-46,142,20,113,268,189,172,-110
-2,68,71,-33,-36,69,20,24,154,80,74,-193
-23,4,27,9,-25,15,20,-28,80,4,9,-258
-42,-44,-2,43,-20,-23,20,-66,33,-48,-36,-300
-54,-68,-14,61,-19,-41,20,-85,12,-83,-68,-324
-59,-78,-18,68,-20,-48,20,-85,6,-97,-83,-342
-62,-84,-22,73,-19,-53,20,-85,-1,-102,-89,-351
-63,-90,-27,77,-18,-58,20,-83,-9,-107,-92,-357
-60,-90,-30,75,-15,-60,24,-79,-17,-109,-97,-364
-60,-90,-30,75,-15,-60,25,-80,-18,-106,-105,-370
-58,-90,-32,74,-13,-61,25,-80,-15,-105,-105,-376
-54,-90,-36,73,-9,-62,25,-80,-12,-105,-100,-379
-55,-90,-35,73,-10,-62,25,-80,-9,-105,-99,-380
-55,-94,-39,74,-8,-66,23,-80,-6,-105,-94,-379
-55,-95,-40,75,-7,-67,17,-80,-5,-108,-97,-383
-56,-95,-40,75,-7,-67,12,-81,-10,-110,-100,-395
-59,-100,-40,80,-9,-70,9,-90,-14,-112,-101,-399
-61,-100,-40,80,-11,-70,4,-96,-17,-115,-105,-402
-58,-100,-42,79,-8,-71,0,-100,-21,-116,-105,-413
-55,-100,-45,78,-5,-72,6,-104,-24,-120,-108,-414
-51,-100,-49,75,-1,-74,8,-106,-28,-120,-111,-421
-50,-100,-50,75,0,-75,4,-109,-30,-120,-109,-430
-49,-99,-50,74,1,-75,5,-111,-30,-120,-112,-436
-46,-100,-54,74,4,-77,5,-115,-30,-120,-117,-451
-47,-103,-56,76,5,-79,5,-115,-30,-120,-115,-456
-55,-109,-54,82,0,-81,5,-118,-30,-121,-115,-459
-61,-109,-49,85,-6,-79,11,-120,-24,-123,-114,-465
-59,-100,-41,79,-8,-70,17,-120,-14,-112,-108,-460
-53,-91,-38,72,-7,-64,21,-110,-7,-104,-112,-455
-49,-71,-22,60,-13,-46,27,-86,1,-91,-101,-448
-44,-37,7,41,-26,-15,34,-80,11,-84,-83,-444
-25,10,36,7,-31,23,30,-79,33,-68,-62,-438
-2,52,54,-25,-28,53,-1,-88,43,-44,-43,-433
20,80,60,-50,-20,70,-30,-101,31,-45,-33,-431
22,68,46,-45,-12,56,-30,-99,31,-39,-17,-421
5,-4,-9,0,7,-6,-26,-100,17,-70,-60,-453
-28,-58,-30,43,2,-44,-25,-103,18,-87,-94,-493
-59,-116,-57,87,0,-86,-19,-138,-23,-129,-123,-525
-56,-137,-81,97,13,-109,-23,-141,-42,-137,-141,-540
-66,-139,-74,102,4,-106,-11,-138,-28,-126,-143,-545
-55,-147,-92,101,19,-119,-13,-143,-33,-137,-150,-546
-45,-119,-74,82,15,-97,2,-137,-1,-106,-136,-539
-44,-163,-119,104,37,-141,1,-113,-28,-149,-161,-564
-17,-148,-131,83,58,-140,61,191,203,-29,-97,-550
26,35,10,-31,8,22,143,418,481,193,89,-418
135,538,403,-337,-134,470,103,277,959,1046,885,221
110,807,697,-459,-294,752,18,-343,1000,1355,1234,552
-61,369,430,-154,-246,399,-343,-1109,-196,89,247,-92
-117,-28,89,72,-103,30,-465,-925,-637,-434,-253,-555
-117,-150,-33,134,-42,-92,-159,-409,-244,-249,-180,-602
-115,-152,-37,134,-39,-95,-31,-189,-52,-181,-177,-587
-82,-139,-57,110,-12,-98,22,-46,66,-91,-117,-574
-59,-146,-87,103,14,-116,44,-35,57,-118,-125,-591
-56,-132,-76,94,10,-104,44,9,95,-80,-108,-580
-54,-137,-83,96,15,-109,55,23,101,-87,-109,-587
-51,-124,-74,88,12,-99,53,40,119,-75,-101,-583
-43,-119,-76,81,17,-97,62,58,141,-67,-95,-585
-36,-110,-74,73,19,-92,61,68,153,-58,-92,-581
-37,-102,-65,70,15,-83,66,101,181,-38,-78,-573
-34,-93,-60,64,13,-76,66,125,201,-27,-72,-568
-25,-78,-52,52,14,-65,75,158,235,2,-55,-560
-22,-65,-43,44,11,-54,75,188,269,20,-40,-554
-21,-49,-28,35,4,-38,70,240,321,52,-16,-538
-5,-20,-15,13,5,-18,69,303,375,85,12,-518
9,11,1,-10,4,6,65,382,444,132,44,-496
25,49,24,-37,1,36,64,476,519,191,91,-461
53,100,47,-77,3,73,53,564,601,255,146,-420
78,160,82,-119,-2,120,41,635,677,331,212,-370
104,219,115,-162,-6,167,30,675,741,399,274,-320
122,269,148,-196,-13,208,18,675,771,460,330,-273
127,313,186,-220,-30,249,0,637,759,490,373,-239
123,324,201,-224,-39,262,-13,536,725,490,374,-222
108,302,194,-205,-43,248,-8,389,635,445,348,-241
68,233,165,-151,-49,199,-2,239,496,332,269,-312
20,134,115,-77,-48,124,2,113,360,205,150,-409
-14,52,66,-19,-41,59,9,31,257,100,50,-494
-37,-9,27,23,-32,9,13,-22,193,28,-16,-550
-58,-52,6,55,-32,-23,19,-56,148,-18,-53,-593
-80,-78,1,79,-40,-38,20,-75,121,-54,-81,-611
-83,-86,-3,85,-39,-45,21,-78,116,-66,-92,-616
-77,-84,-8,81,-34,-46,25,-73,111,-68,-100,-632
-73,-86,-12,80,-30,-49,25,-67,108,-76,-109,-635
-75,-91,-17,83,-29,-54,25,-63,102,-83,-110,-635
-71,-91,-20,81,-26,-55,25,-56,101,-82,-110,-641
-69,-89,-20,79,-25,-55,25,-51,105,-79,-110,-644
-71,-90,-20,81,-25,-55,21,-54,105,-80,-110,-649
-70,-90,-20,80,-25,-55,20,-55,105,-80,-110,-650
-70,-90,-20,80,-25,-55,20,-56,105,-79,-110,-649
-70,-90,-20,80,-25,-55,15,-61,105,-82,-110,-650
-71,-90,-20,80,-26,-55,15,-65,101,-84,-110,-649
-68,-90,-21,79,-23,-55,14,-69,96,-89,-110,-651
-65,-90,-25,78,-20,-57,10,-76,91,-89,-110,-655
-65,-90,-25,78,-20,-57,10,-80,87,-95,-114,-658
-66,-91,-25,79,-20,-57,10,-80,82,-110,-115,-666
-70,-95,-25,83,-22,-60,10,-84,79,-110,-115,-670
-65,-93,-28,79,-18,-61,10,-84,73,-113,-115,-674
-58,-89,-31,73,-14,-60,14,-80,69,-116,-115,-674
-63,-91,-28,77,-17,-59,20,-80,64,-112,-114,-677
-65,-90,-25,78,-20,-57,25,-80,60,-107,-108,-681
-71,-90,-18,81,-26,-54,31,-80,55,-98,-100,-676
-73,-91,-17,83,-28,-54,37,-80,55,-93,-95,-672
-59,-61,-3,60,-27,-32,40,-76,86,-85,-86,-667
-46,-18,28,32,-36,5,32,-74,103,-76,-82,-663
-21,31,52,-5,-37,41,27,-76,116,-61,-72,-650
-2,72,73,-35,-38,72,13,-74,138,-41,-51,-635
24,89,65,-57,-20,77,-11,-76,122,-31,-46,-626
17,71,53,-44,-18,62,-10,-74,118,-27,-42,-614
-35,-6,29,20,-32,12,-10,-66,102,-63,-64,-646
-59,-66,-7,63,-26,-37,-9,-84,72,-90,-92,-682
-72,-113,-41,93,-15,-77,-3,-123,39,-141,-137,-709
-65,-132,-67,99,1,-99,-7,-115,38,-147,-151,-717
-79,-140,-60,110,-9,-100,1,-108,43,-143,-150,-723
-84,-156,-72,121,-6,-114,-2,-109,24,-173,-166,-738
-92,-145,-54,119,-19,-99,6,-91,51,-133,-150,-728
-80,-168,-88,124,5,-128,7,-94,28,-172,-175,-758
-28,-141,-112,85,42,-126,67,185,255,-44,-107,-744
6,28,22,-17,-8,25,134,421,538,161,45,-614
115,520,404,-318,-145,462,93,289,998,970,795,-12
78,817,739,-448,-331,777,34,-243,1161,1424,1250,385
-78,432,510,-177,-294,470,-306,-1027,18,197,311,-210
-131,17,148,57,-139,82,-484,-932,-568,-460,-286,-724
-159,-138,21,148,-90,-58,-203,-426,-220,-295,-228,-802
-137,-143,-7,140,-65,-75,-55,-211,-22,-239,-210,-782
-97,-130,-33,114,-31,-81,2,-41,116,-144,-164,-756
-80,-137,-57,109,-11,-96,31,-29,108,-158,-176,-783
-69,-123,-55,96,-7,-89,36,3,135,-121,-152,-771
-65,-127,-63,96,-1,-95,54,24,156,-130,-151,-773
-65,-119,-53,92,-6,-85,51,40,173,-127,-143,-769
-68,-116,-48,92,-10,-82,58,60,196,-112,-134,-764
-71,-112,-41,92,-15,-76,53,66,201,-109,-131,-766
-72,-106,-34,89,-19,-69,56,93,227,-90,-121,-769
-63,-92,-29,78,-16,-61,52,110,245,-82,-117,-764
-57,-78,-20,68,-18,-49,49,144,280,-50,-97,-751
-50,-64,-14,57,-18,-39,51,179,319,-25,-77,-743
-39,-42,-4,41,-17,-23,49,221,359,0,-58,-728
-24,-24,1,24,-12,-11,51,278,408,30,-37,-715
-8,10,19,-1,-14,14,49,352,474,63,-6,-698
4,49,45,-27,-21,47,41,441,552,123,31,-665
26,92,65,-59,-20,78,29,524,635,190,76,-626
59,159,100,-109,-21,130,18,594,710,260,136,-582
83,220,137,-152,-27,178,6,633,781,341,214,-533
101,275,174,-188,-36,224,-9,627,819,402,274,-488
106,316,210,-211,-52,263,-27,598,815,423,298,-468
109,327,218,-218,-55,272,-35,509,774,409,305,-468
92,307,215,-200,-62,261,-28,369,670,368,282,-465
40,236,196,-138,-78,215,-20,226,521,248,188,-528
2,136,135,-69,-67,135,-12,97,375,107,61,-636
-33,56,88,-12,-61,72,-4,17,271,4,-34,-715
-64,-7,57,35,-60,24,2,-34,198,-76,-95,-773
-84,-51,33,68,-58,-9,8,-67,151,-118,-136,-809
-95,-66,29,81,-61,-18,13,-88,119,-150,-165,-827
-102,-77,25,89,-63,-26,16,-104,104,-168,-177,-832
-109,-87,22,98,-65,-32,22,-101,106,-176,-189,-842
-108,-91,17,99,-62,-37,24,-96,103,-185,-191,-846
-106,-91,14,98,-60,-38,21,-91,100,-183,-189,-843
-100,-90,11,95,-56,-39,18,-88,100,-181,-191,-845
-98,-89,10,94,-54,-40,16,-82,97,-180,-188,-844
-95,-85,10,90,-52,-37,12,-81,94,-180,-193,-844
-94,-85,10,89,-51,-37,10,-86,95,-180,-196,-850
-98,-88,10,93,-54,-38,8,-85,91,-179,-195,-856
-98,-90,7,94,-53,-41,5,-85,89,-187,-195,-848
-94,-90,4,92,-49,-42,5,-85,90,-196,-196,-857
-96,-90,5,92,-50,-42,5,-85,85,-194,-194,-871
-94,-90,5,92,-49,-42,5,-89,81,-200,-197,-873
-96,-91,5,93,-51,-42,5,-96,78,-209,-208,-878
-99,-94,4,96,-51,-45,0,-100,74,-210,-211,-882
-97,-96,1,96,-48,-47,0,-100,71,-209,-209,-886
-100,-101,0,101,-50,-50,-2,-103,67,-211,-211,-889
-96,-97,-1,97,-47,-49,-5,-108,64,-217,-210,-894
-89,-95,-5,93,-41,-50,-6,-109,62,-226,-211,-898
-89,-94,-6,92,-41,-50,-2,-103,58,-226,-222,-906
-87,-89,-2,88,-42,-46,4,-95,57,-214,-225,-906
-97,-91,6,93,-52,-42,9,-89,53,-205,-221,-897
-105,-71,34,88,-69,-18,15,-81,66,-194,-208,-889
-83,-38,45,60,-64,4,20,-75,89,-180,-187,-882
-69,-2,67,35,-67,32,26,-77,102,-166,-168,-873
-65,51,116,7,-91,83,0,-85,123,-154,-153,-853
-41,80,121,-20,-81,100,-31,-100,116,-147,-142,-850
-28,66,95,-19,-62,80,-30,-105,103,-140,-132,-836
-56,5,61,25,-58,32,-29,-105,94,-168,-166,-863
-87,-61,26,73,-56,-17,-27,-104,64,-195,-199,-910
-102,-107,-5,104,-48,-56,-23,-132,36,-241,-232,-937
-105,-138,-34,121,-35,-85,-26,-148,32,-268,-253,-956
-112,-137,-25,124,-43,-81,-19,-141,41,-259,-245,-959
-118,-148,-30,134,-44,-88,-18,-149,26,-277,-258,-961
-110,-126,-16,118,-47,-71,-14,-137,49,-236,-237,-945
-115,-139,-25,127,-45,-82,-10,-151,15,-275,-251,-976
-77,-158,-81,118,2,-119,-2,30,141,-198,-204,-951
-50,-70,-21,60,-14,-45,98,325,433,-68,-164,-928
15,310,296,-163,-141,303,102,305,791,521,374,-520
50,770,720,-410,-335,744,16,-61,1175,1332,1117,71
-91,678,768,-294,-430,723,-152,-677,553,712,665,-183
