I,II,III,aVR,aVL,aVF,V1,V2,V3,V4,V5,V6
3,-14,-17,6,10,-15,-50,-40,-25,-14,27,31
17,-9,-26,-4,22,-17,-52,-46,-29,-10,44,49
22,-3,-26,-9,24,-14,-50,-52,-36,-2,48,58
30,6,-23,-17,26,-8,-34,-45,-39,4,33,47
2,-25,-27,12,15,-26,-8,-42,-41,-2,22,36
-36,-59,-22,48,-7,-40,15,-37,-39,-7,20,0
-62,-90,-28,76,-17,-59,37,-35,-42,-20,10,-14
-68,-102,-34,86,-17,-68,46,-35,-38,-17,13,-16
-43,-83,-40,64,-2,-61,46,-32,-45,-40,-1,-24
-65,-95,-30,81,-18,-62,43,-28,-43,-27,4,-16
-97,-119,-22,108,-37,-71,49,-32,-50,-52,-15,-23
-71,-99,-28,85,-21,-63,38,-17,-49,-35,-23,-20
-144,-188,-44,166,-50,-115,116,-7,-68,-114,-101,-91
-184,-409,-225,297,20,-317,215,14,-102,-220,-213,-203
-55,-384,-329,220,137,-356,31,22,-64,23,-38,-90
326,-61,-387,-132,357,-224,-640,-217,-159,312,357,266
760,546,-214,-653,487,165,-1347,-510,-147,937,1071,806
634,685,51,-659,291,367,-1155,-547,-159,830,1111,894
248,247,-1,-248,124,123,-497,-398,-339,-18,328,391
23,105,82,-64,-30,93,-135,-156,-166,-78,53,89
-96,-32,64,64,-80,16,45,1,-5,-33,14,1
-107,-117,-10,112,-48,-63,83,34,-6,-48,-25,-43
-99,-94,5,97,-52,-44,94,55,14,-17,-14,-43
-92,-114,-23,103,-34,-68,113,64,9,-35,-31,-48
-80,-92,-12,86,-34,-52,118,82,42,-8,-13,-41
-79,-108,-28,94,-26,-68,126,97,49,-22,-24,-42
-68,-88,-19,78,-24,-53,126,106,55,-7,-17,-38
-85,-102,-17,94,-34,-59,148,124,63,-10,-21,-47
-117,-129,-11,123,-52,-70,153,132,71,-4,-20,-63
-116,-124,-8,120,-54,-65,154,141,91,4,-14,-70
-114,-116,-2,115,-56,-59,165,159,110,16,-9,-74
-86,-91,-4,89,-41,-47,187,194,138,28,-3,-79
-69,-84,-16,77,-26,-50,218,231,171,41,2,-78
-75,-86,-10,80,-32,-48,238,264,207,62,7,-67
-76,-82,-6,79,-35,-43,273,329,267,95,15,-57
-72,-80,-8,76,-32,-43,314,400,333,132,30,-48
-52,-80,-28,66,-12,-54,347,455,393,164,40,-40
-39,-76,-37,57,-1,-56,364,522,465,208,53,-38
-9,-67,-58,38,25,-62,360,562,512,241,73,-29
17,-59,-76,22,47,-68,351,570,525,249,87,-4
34,-50,-84,8,59,-67,327,556,515,244,93,13
50,-47,-97,-1,74,-72,277,490,462,232,92,18
41,-49,-91,4,66,-70,210,389,362,190,79,27
16,-62,-79,23,48,-71,150,278,241,139,64,28
-13,-65,-52,40,20,-58,105,167,127,78,43,21
-41,-65,-23,53,-9,-44,65,91,52,29,25,16
-48,-62,-14,56,-17,-37,36,43,6,15,20,11
-43,-58,-15,51,-14,-36,21,10,-23,3,15,5
-48,-63,-15,56,-16,-39,20,-5,-35,-2,10,0
-28,-42,-15,35,-6,-28,20,-15,-48,-10,3,7
-48,-63,-15,56,-16,-39,15,-20,-50,-18,1,16
-73,-87,-14,80,-29,-50,15,-28,-50,-23,9,26
-59,-68,-9,63,-25,-38,15,-34,-50,-21,18,28
-60,-66,-6,64,-27,-36,15,-28,-50,-19,16,18
-57,-59,-3,58,-27,-31,15,-17,-50,-20,7,10
-55,-53,2,54,-28,-25,15,-10,-46,-20,1,1
-56,-52,4,53,-30,-23,15,-10,-43,-20,-7,-7
-75,-55,20,65,-47,-17,15,-10,-41,-23,-14,-18
-85,-60,25,72,-55,-17,19,-10,-37,-25,-21,-25
-78,-63,14,70,-46,-24,20,-10,-35,-27,-25,-25
-76,-66,10,70,-42,-27,20,-10,-35,-30,-25,-25
-68,-67,2,67,-35,-32,20,-15,-35,-31,-28,-25
-68,-71,-4,70,-32,-37,20,-19,-35,-34,-31,-25
-66,-68,-2,67,-31,-35,19,-21,-35,-35,-34,-25
-67,-64,3,65,-35,-30,15,-26,-36,-35,-37,-20
-61,-56,4,58,-32,-25,15,-28,-33,-34,-40,-20
-41,-53,-13,47,-14,-33,15,-39,-39,-41,-39,-20
-30,-45,-14,38,-8,-30,14,-47,-47,-44,-33,-20
-51,-42,9,47,-30,-16,16,-49,-42,-35,-29,-20
-64,-42,22,53,-43,-10,10,-51,-40,-30,-25,-18
-38,-5,33,21,-36,14,1,-48,-36,-23,-21,-11
-39,6,45,16,-42,25,-9,-46,-35,-15,-15,-4
-32,6,38,13,-36,22,-16,-44,-35,-19,-12,2
-33,1,34,16,-34,17,-32,-53,-38,-25,-6,10
-5,23,28,-10,-17,25,-71,-84,-52,-30,-1,14
45,67,22,-56,11,44,-90,-95,-64,-39,1,28
10,28,18,-19,-4,23,-83,-84,-68,-36,10,38
-2,-6,-4,4,1,-5,-62,-80,-73,-39,7,20
-37,-20,18,28,-27,-1,-34,-79,-73,-29,3,10
-81,-52,30,66,-55,-11,-21,-81,-80,-50,-19,-15
-75,-66,10,70,-42,-28,-19,-79,-78,-62,-39,-36
-105,-84,21,94,-63,-31,-11,-81,-83,-69,-47,-45
-95,-88,7,91,-51,-40,-7,-78,-86,-72,-45,-51
-90,-65,25,77,-57,-20,-1,-76,-83,-69,-42,-53
-76,-72,4,73,-39,-34,11,-69,-96,-87,-49,-58
-96,-88,8,92,-51,-40,39,-68,-83,-76,-62,-58
-193,-269,-76,231,-59,-172,151,-53,-140,-248,-226,-172
-132,-395,-264,264,66,-329,155,20,-63,-147,-192,-192
115,-230,-344,58,230,-286,-266,-64,-48,126,91,35
603,296,-308,-449,455,-6,-1059,-314,-122,615,681,526
788,793,4,-791,392,398,-1375,-479,-32,1076,1224,945
415,522,108,-469,153,315,-840,-461,-234,371,704,650
123,208,85,-166,19,146,-298,-278,-295,-147,103,191
-27,80,107,-27,-67,93,-72,-109,-100,-73,3,24
-82,-68,15,75,-48,-26,24,-36,-65,-113,-65,-51
-90,-51,40,70,-65,-5,44,-6,-37,-69,-59,-49
-76,-48,28,62,-52,-10,69,3,-35,-82,-79,-49
-64,-36,28,50,-46,-4,80,8,-22,-64,-73,-57
-99,-65,34,82,-66,-16,83,18,-11,-61,-69,-69
-77,-51,26,64,-51,-12,89,38,-1,-56,-70,-64
-75,-41,33,58,-54,-3,93,47,14,-44,-62,-54
-79,-56,23,67,-51,-16,108,50,25,-45,-65,-51
-66,-44,22,55,-44,-11,114,67,46,-31,-57,-41
-73,-46,27,60,-50,-9,119,75,57,-28,-62,-38
-70,-33,37,51,-54,2,136,92,77,-17,-55,-34
-65,-31,34,48,-49,1,162,130,108,-11,-55,-36
-56,-21,35,38,-46,7,190,166,150,2,-55,-31
-53,-18,35,35,-43,8,219,201,189,23,-45,-29
-41,-6,36,23,-38,15,264,256,252,59,-34,-30
-25,4,29,11,-27,16,301,321,330,96,-21,-23
-30,-14,17,22,-23,1,331,379,385,128,-9,-16
-4,1,4,1,-4,2,344,446,448,172,13,-10
29,26,-4,-27,16,11,333,479,488,206,37,-1
54,30,-24,-42,39,3,327,476,482,203,47,11
85,31,-54,-58,70,-11,290,455,466,188,43,28
72,28,-44,-50,58,-8,226,370,391,174,32,29
65,36,-29,-50,47,4,163,262,267,125,23,19
65,44,-21,-54,43,11,102,155,156,62,12,12
48,38,-9,-43,28,14,53,58,63,14,-8,4
31,30,0,-31,15,15,23,1,11,-18,-24,-2
11,21,10,-16,0,16,13,-34,-31,-34,-37,-7
-10,8,18,1,-14,12,7,-58,-60,-50,-43,-10
-30,-3,27,16,-28,12,-3,-73,-59,-56,-39,-13
-37,-10,27,23,-32,8,-8,-75,-61,-54,-41,-18
-34,-13,21,23,-27,3,-6,-70,-65,-58,-39,-21
-30,-14,17,22,-23,1,-5,-69,-68,-60,-41,-24
-37,-24,13,30,-24,-5,-5,-64,-72,-60,-39,-25
-8,-1,7,4,-8,3,-5,-67,-75,-56,-37,-25
-2,4,6,-2,-4,5,-6,-79,-71,-55,-49,-25
-39,-22,17,31,-28,-3,-3,-81,-70,-55,-50,-25
-51,-20,30,35,-41,5,2,-79,-70,-55,-50,-27
-46,-15,31,30,-39,8,8,-76,-65,-55,-49,-31
-43,-18,25,30,-33,3,11,-75,-65,-57,-53,-29
-58,-38,20,48,-39,-8,17,-74,-66,-60,-69,-31
-56,-42,14,49,-35,-14,20,-70,-70,-60,-70,-34
-47,-38,9,43,-28,-15,15,-70,-72,-59,-70,-38
-45,-41,4,43,-24,-18,15,-70,-76,-61,-70,-47
-39,-39,0,39,-20,-20,14,-70,-71,-56,-70,-47
-40,-39,0,40,-20,-19,10,-70,-71,-56,-69,-43
-31,-34,-2,33,-14,-17,10,-82,-92,-72,-64,-41
-23,-28,-5,26,-8,-17,12,-86,-93,-72,-58,-37
-20,-25,-5,23,-7,-15,15,-84,-86,-63,-55,-35
-21,-19,2,20,-11,-8,19,-82,-81,-58,-50,-33
-39,-17,21,28,-30,2,21,-80,-75,-51,-46,-26
-44,-4,40,24,-42,18,25,-80,-70,-46,-42,-19
-14,18,32,-2,-23,25,25,-81,-66,-45,-34,-13
13,26,13,-19,-1,19,-1,-78,-64,-44,-28,-5
22,25,3,-24,9,13,-53,-89,-71,-39,-19,-1
41,38,-3,-39,22,17,-79,-113,-94,-40,-18,13
91,78,-13,-84,51,32,-70,-112,-102,-43,-19,23
67,56,-11,-61,39,22,-64,-109,-106,-58,-21,12
25,14,-11,-20,18,1,-58,-107,-110,-61,-18,2
11,3,-8,-7,9,-3,-51,-104,-111,-58,-28,-7
-18,-30,-12,24,-3,-20,-43,-101,-118,-70,-49,-23
-4,-25,-21,15,8,-23,-33,-98,-106,-64,-47,-37
-19,-57,-38,38,10,-48,-22,-96,-115,-92,-74,-43
-26,-70,-43,48,9,-56,-14,-86,-104,-79,-68,-32
-21,-59,-38,41,8,-48,-5,-86,-116,-83,-70,-35
4,-56,-59,26,32,-57,-1,-75,-102,-64,-54,-27
-77,-108,-31,93,-23,-69,54,-76,-134,-128,-122,-92
-174,-322,-148,248,-13,-235,166,-58,-206,-261,-283,-199
-53,-351,-298,202,123,-324,74,-14,-63,-51,-145,-122
301,-103,-404,-99,353,-254,-511,-87,-72,222,212,171
760,468,-292,-614,526,88,-1243,-271,11,869,892,715
763,792,29,-778,367,411,-1212,-412,86,1055,1172,953
384,471,87,-428,148,279,-614,-392,-217,242,530,545
93,224,131,-159,-20,177,-230,-240,-219,-46,75,164
-28,56,84,-15,-56,70,-45,-98,-92,-37,-17,38
-63,-36,27,49,-45,-4,23,-48,-80,-90,-62,-14
-94,-39,56,66,-75,9,49,-34,-50,-64,-71,-34
-95,-69,26,81,-60,-21,69,-22,-53,-85,-85,-35
-86,-50,36,67,-60,-6,67,-17,-34,-68,-77,-45
-77,-55,23,66,-50,-16,80,-6,-29,-76,-82,-58
-75,-45,30,60,-52,-7,81,1,-17,-67,-79,-49
-74,-42,31,58,-52,-5,87,11,-6,-70,-80,-49
-84,-40,43,62,-63,1,100,18,5,-64,-76,-43
-93,-39,54,66,-73,7,122,31,18,-51,-69,-40
-88,-41,47,64,-67,3,141,55,35,-45,-66,-40
-92,-39,53,66,-72,7,158,82,66,-29,-60,-39
-88,-40,47,64,-68,4,183,112,100,-16,-57,-41
-77,-23,54,50,-65,15,207,154,140,12,-51,-39
-71,-3,68,37,-70,33,237,207,188,34,-36,-44
-62,3,65,29,-64,34,277,270,254,64,-24,-39
-45,12,57,17,-51,34,323,345,331,118,-1,-17
-15,36,51,-11,-33,43,354,412,404,159,27,-5
-5,40,44,-18,-25,42,357,462,454,191,36,7
4,32,28,-18,-12,29,356,495,489,225,57,22
20,31,11,-25,5,20,323,485,491,231,75,40
12,22,10,-17,0,16,262,443,449,218,68,55
28,35,8,-32,10,21,201,349,350,180,67,50
40,44,4,-43,18,24,116,216,203,96,53,42
3,10,7,-7,-2,8,58,110,96,34,23,36
4,15,11,-10,-3,13,28,42,23,-1,4,29
8,24,16,-16,-4,19,8,-5,-34,-41,-12,23
-38,-19,20,29,-29,0,3,-49,-63,-58,-25,17
-48,-31,16,39,-32,-7,-3,-62,-79,-60,-24,12
-45,-30,15,37,-30,-7,-6,-59,-84,-65,-26,6
-44,-29,15,36,-29,-7,-12,-61,-85,-65,-40,1
-48,-33,15,40,-32,-8,-15,-59,-85,-65,-46,-4
-30,-16,15,23,-22,-1,-10,-60,-85,-65,-45,-5
-25,-9,16,16,-21,4,-10,-60,-88,-65,-45,-5
-75,-44,31,59,-53,-7,-9,-60,-90,-65,-45,-5
-82,-46,36,64,-59,-5,-4,-59,-90,-66,-45,-4
-76,-41,34,58,-55,-3,-6,-54,-90,-70,-49,-6
-76,-41,35,58,-56,-2,-2,-49,-91,-70,-50,-12
-75,-40,35,57,-55,-3,0,-45,-89,-70,-50,-18
-81,-46,35,63,-58,-5,0,-40,-87,-70,-50,-24
-78,-46,31,62,-54,-7,3,-35,-83,-70,-51,-29
-81,-51,30,66,-55,-11,5,-39,-81,-77,-65,-34
-79,-49,30,64,-55,-10,5,-40,-77,-81,-70,-35
-75,-50,25,62,-50,-12,-2,-40,-75,-80,-70,-38
-76,-50,25,62,-51,-12,-9,-40,-77,-80,-70,-40
-72,-48,24,60,-48,-12,-16,-41,-81,-81,-70,-42
-80,-60,20,70,-49,-20,-18,-57,-103,-85,-81,-46
-81,-60,21,70,-51,-19,-12,-60,-101,-80,-75,-39
-60,-41,18,51,-39,-11,-7,-54,-87,-72,-64,-32
-60,-22,38,41,-49,8,-4,-52,-83,-67,-63,-26
-49,5,54,22,-52,30,2,-46,-81,-58,-57,-19
-7,30,37,-12,-22,33,5,-45,-87,-56,-49,-14
-6,23,29,-8,-18,26,-15,-50,-89,-60,-40,-10
-19,1,20,9,-20,10,-57,-63,-93,-60,-31,-8
2,31,29,-17,-14,29,-91,-83,-95,-60,-35,-4
17,58,40,-38,-12,49,-101,-94,-95,-60,-35,-2
31,34,3,-33,14,18,-94,-90,-103,-66,-37,2
26,5,-21,-15,24,-8,-59,-90,-106,-73,-42,-8
-13,-24,-11,19,0,-17,-31,-88,-104,-66,-38,-25
-37,-54,-16,46,-10,-35,-27,-85,-111,-86,-65,-36
-49,-58,-9,53,-19,-33,-26,-85,-109,-80,-73,-34
-38,-46,-8,42,-15,-26,-18,-84,-110,-76,-78,-27
-38,-56,-18,48,-10,-37,-20,-75,-103,-82,-72,-46
-93,-101,-8,97,-42,-54,-10,-70,-98,-104,-77,-86
-58,-94,-36,76,-10,-65,-3,-62,-97,-95,-74,-75
-79,-84,-5,82,-37,-44,44,-57,-109,-122,-110,-100
-172,-301,-129,237,-21,-215,155,-66,-186,-286,-281,-218
-65,-383,-318,224,127,-350,74,-37,-142,-129,-187,-180
251,-160,-410,-45,331,-284,-475,-180,-193,127,127,74
725,392,-333,-559,529,30,-1287,-477,-205,699,788,615
800,763,-37,-782,418,363,-1371,-578,-119,929,1139,913
418,419,1,-419,209,210,-718,-472,-341,105,463,498
121,191,71,-156,25,131,-250,-260,-284,-169,22,121
-18,67,86,-25,-52,76,-41,-87,-78,-74,-30,-5
-31,-31,0,30,-15,-15,30,-38,-71,-122,-95,-70
-51,-10,41,30,-45,15,49,-15,-35,-83,-88,-69
-89,-73,15,81,-52,-29,65,-2,-39,-112,-116,-92
-104,-60,44,82,-74,-8,65,6,-29,-92,-104,-87
-102,-67,35,84,-68,-15,83,19,-18,-103,-106,-84
-85,-65,20,75,-52,-22,87,30,0,-82,-101,-82
-94,-63,30,78,-61,-16,100,51,21,-65,-95,-75
-96,-67,30,81,-63,-18,98,67,28,-64,-95,-77
-88,-56,32,72,-60,-12,108,75,44,-54,-86,-76
-81,-57,25,69,-53,-16,133,89,57,-57,-84,-72
-74,-49,25,61,-50,-11,147,119,90,-35,-76,-66
-71,-51,20,61,-45,-15,173,150,126,-21,-72,-63
-70,-50,20,59,-45,-15,197,188,157,-8,-66,-57
-64,-50,14,57,-39,-17,231,244,217,23,-60,-53
-57,-49,8,53,-32,-21,271,306,282,62,-50,-46
-33,-32,1,33,-17,-15,311,377,352,103,-41,-39
-11,-16,-5,14,-3,-10,336,442,420,139,-29,-33
1,-15,-16,7,9,-15,324,493,467,170,-7,-23
30,-15,-45,-7,37,-30,317,512,498,202,24,-8
55,-10,-65,-22,60,-37,295,511,509,216,49,5
64,-11,-75,-26,69,-42,254,467,467,198,44,11
60,-9,-69,-26,65,-39,197,358,360,157,31,14
40,-4,-45,-18,43,-24,124,236,242,98,21,11
23,-1,-23,-11,23,-12,73,129,129,45,10,0
16,6,-10,-10,12,-2,39,51,46,6,2,-6
6,4,-3,-5,4,0,17,-1,-7,-17,-6,-18
-3,1,3,1,-3,2,9,-27,-38,-31,-21,-34
-14,-7,8,10,-11,0,6,-49,-55,-46,-36,-36
-25,-7,18,16,-22,5,3,-61,-66,-53,-38,-35
-54,-24,30,39,-42,3,-2,-60,-64,-56,-35,-33
-59,-29,30,44,-44,0,-5,-65,-67,-59,-35,-29
-52,-22,30,37,-41,3,-8,-65,-71,-61,-35,-30
-77,-47,30,62,-53,-9,-13,-77,-70,-65,-35,-33
-64,-34,30,49,-47,-2,-14,-78,-67,-64,-35,-36
-39,-10,29,25,-34,9,-10,-68,-65,-60,-38,-39
-38,-6,32,22,-35,13,-8,-63,-65,-60,-41,-40
-34,1,36,16,-35,18,-5,-56,-61,-60,-39,-40
-18,17,35,0,-27,25,-2,-59,-60,-60,-41,-40
-49,-14,35,31,-42,10,0,-61,-62,-60,-39,-46
-92,-57,35,74,-63,-11,3,-59,-65,-63,-43,-59
-79,-43,35,60,-57,-4,6,-61,-65,-67,-51,-69
-66,-34,33,50,-49,0,9,-59,-65,-70,-50,-70
-67,-39,28,53,-47,-5,10,-63,-65,-74,-50,-70
-65,-44,22,54,-43,-11,3,-72,-65,-74,-50,-70
-55,-35,20,45,-37,-7,0,-70,-73,-69,-50,-70
-41,-29,12,35,-26,-8,-5,-64,-75,-64,-49,-68
-34,-22,12,28,-23,-4,-10,-56,-68,-60,-42,-61
-42,-18,24,30,-32,3,-5,-55,-65,-55,-36,-57
-54,0,54,26,-54,27,0,-40,-60,-51,-29,-51
-45,37,81,4,-64,59,8,-42,-54,-47,-23,-45
-11,41,52,-16,-32,46,7,-68,-59,-44,-16,-40
3,39,37,-21,-17,38,-14,-63,-59,-45,-16,-30
-1,40,41,-19,-21,40,-62,-73,-65,-44,-14,-13
10,55,45,-32,-18,50,-93,-92,-86,-45,-11,-8
41,80,39,-61,0,60,-91,-91,-85,-47,-9,-16
45,64,19,-55,13,41,-84,-88,-87,-57,-10,-23
8,18,9,-13,-1,13,-55,-84,-92,-63,-12,-29
-28,-19,9,23,-18,-5,-39,-81,-91,-60,-21,-46
-37,-39,-2,38,-17,-20,-37,-77,-99,-73,-47,-65
-17,-20,-3,19,-6,-11,-34,-73,-95,-61,-50,-74
-36,-46,-10,41,-13,-27,-28,-71,-105,-81,-65,-78
-36,-43,-7,40,-14,-25,-28,-69,-91,-66,-49,-69
-50,-40,10,44,-30,-15,-20,-70,-98,-90,-58,-74
-45,-57,-12,51,-17,-34,-16,-61,-86,-75,-41,-65
-88,-95,-8,92,-40,-51,48,-70,-103,-129,-107,-139
-156,-321,-165,238,5,-243,165,-27,-163,-284,-276,-241
-19,-341,-322,181,152,-332,54,10,-59,-50,-118,-153
286,-80,-366,-102,326,-223,-550,-209,-179,210,227,138
733,530,-203,-631,467,164,-1299,-520,-205,831,939,684
699,786,87,-742,306,436,-1251,-603,-173,906,1150,879
266,335,69,-301,98,202,-613,-459,-407,12,377,418
88,177,88,-133,0,132,-216,-235,-261,-147,2,48
-34,46,80,-6,-57,62,-44,-71,-82,-79,-40,-48
-96,-64,32,80,-64,-16,15,-26,-70,-103,-80,-78
-83,-34,49,59,-66,8,33,-26,-38,-56,-63,-87
-84,-62,22,73,-53,-20,56,-11,-42,-80,-78,-92
-76,-42,34,59,-55,-4,60,1,-21,-51,-64,-89
-77,-55,22,65,-49,-16,71,15,-20,-63,-74,-95
-72,-48,24,60,-48,-12,75,14,-8,-46,-68,-95
-65,-46,19,56,-42,-13,79,26,0,-46,-71,-94
-68,-43,25,55,-46,-9,84,46,8,-39,-68,-86
-69,-36,33,52,-50,-1,99,54,29,-27,-56,-77
-62,-33,28,48,-44,-2,112,76,54,-23,-49,-70
-60,-29,31,45,-46,1,119,103,78,-7,-36,-62
-37,-8,29,22,-33,10,155,142,117,15,-30,-56
-44,-13,31,28,-37,9,189,188,160,33,-23,-49
-59,-35,24,47,-41,-5,212,233,207,46,-18,-43
-36,-24,12,29,-23,-6,255,301,278,86,-12,-36
-24,-25,-1,25,-12,-12,282,359,337,125,1,-29
-10,-19,-9,15,-1,-14,304,410,393,160,11,-24
14,-15,-29,1,22,-22,317,463,448,202,34,-9
43,-18,-61,-13,52,-39,299,469,467,229,57,6
57,-20,-77,-19,67,-48,270,454,455,229,54,14
48,-21,-69,-13,59,-45,229,420,414,205,49,26
70,23,-47,-46,58,-12,174,320,314,162,43,33
83,47,-36,-65,59,5,109,200,191,101,38,25
59,30,-28,-44,43,1,58,96,84,48,29,16
47,27,-20,-37,33,3,28,27,8,12,3,8
29,19,-10,-23,19,4,7,-7,-26,-14,-13,-2
13,12,0,-13,6,6,0,-41,-47,-31,-18,-10
-4,6,11,-1,-8,8,-2,-62,-53,-42,-27,-20
-25,-1,24,13,-25,11,-5,-67,-48,-41,-27,-28
-8,18,26,-6,-17,22,-8,-66,-46,-40,-25,-24
9,31,22,-20,-7,26,-11,-65,-43,-40,-25,-21
5,25,20,-15,-8,22,-6,-65,-40,-40,-25,-18
0,17,17,-9,-9,17,-3,-65,-41,-40,-25,-13
-3,10,13,-4,-8,12,1,-65,-45,-42,-25,-10
-26,2,28,11,-27,15,4,-61,-45,-49,-31,-14
-47,-5,43,26,-45,19,9,-60,-49,-55,-38,-20
-21,15,35,3,-28,25,8,-60,-51,-60,-40,-25
-34,-2,32,18,-33,15,5,-60,-50,-60,-40,-32
-65,-38,28,51,-46,-5,5,-60,-50,-60,-40,-34
-56,-34,22,45,-39,-5,5,-61,-50,-61,-45,-30
-55,-35,20,45,-37,-7,5,-65,-50,-59,-48,-30
-55,-35,20,45,-37,-7,5,-65,-50,-63,-53,-30
-55,-35,20,45,-37,-7,21,-65,-55,-72,-55,-30
-55,-35,20,45,-37,-8,26,-69,-61,-71,-55,-30
-50,-29,21,39,-35,-4,19,-70,-58,-68,-55,-26
-42,-24,19,33,-30,-2,17,-70,-64,-65,-55,-24
-44,-19,26,31,-35,3,12,-70,-70,-62,-55,-25
-35,-13,23,24,-29,5,10,-69,-62,-60,-48,-25
-41,-8,33,24,-36,12,16,-72,-56,-58,-39,-26
-61,-3,59,32,-60,28,14,-74,-49,-55,-31,-24
-46,7,53,19,-50,30,17,-76,-45,-51,-22,-15
-30,15,45,8,-38,30,4,-73,-44,-50,-17,-5
-13,25,38,-6,-26,32,-49,-88,-61,-45,-10,7
15,45,30,-30,-8,38,-81,-109,-80,-46,-7,23
32,56,24,-44,4,40,-75,-104,-82,-49,1,32
20,38,19,-29,0,28,-65,-98,-89,-50,5,24
-2,7,9,-3,-6,8,-52,-95,-91,-51,-7,9
-19,-13,6,16,-12,-3,-33,-90,-89,-50,-27,2
-46,-50,-5,48,-20,-27,-23,-86,-97,-66,-55,-8
-60,-67,-8,64,-26,-38,-20,-81,-92,-54,-52,-10
-63,-73,-10,68,-27,-41,-13,-77,-98,-67,-59,-22
-52,-68,-15,60,-18,-41,-12,-72,-85,-53,-51,-23
-44,-71,-28,58,-8,-49,-3,-68,-95,-66,-59,-34
-15,-67,-52,41,19,-59,-2,-65,-85,-55,-52,-37
-78,-107,-29,93,-24,-67,62,-72,-114,-118,-122,-81
-165,-333,-168,249,1,-250,172,-54,-173,-277,-286,-207
-49,-366,-316,208,134,-341,69,-20,-37,-57,-144,-133
294,-131,-425,-81,360,-277,-494,-95,-52,235,208,167
752,448,-304,-600,528,72,-1235,-291,12,858,889,706
754,782,28,-768,363,405,-1218,-428,79,1041,1177,957
358,420,63,-389,147,241,-607,-387,-217,210,499,540
104,222,118,-163,-8,170,-223,-224,-193,-81,57,168
-14,65,80,-26,-47,72,-34,-78,-43,-43,-17,30
-39,-48,-9,43,-15,-28,32,-33,-43,-76,-64,-19
-38,-31,8,35,-23,-11,43,-16,-15,-43,-67,-26
-35,-56,-21,45,-6,-38,67,2,-18,-65,-81,-41
-27,-37,-10,32,-8,-23,69,11,1,-48,-71,-33
-26,-51,-25,39,0,-38,76,20,6,-54,-82,-36
-9,-37,-28,23,10,-32,81,25,18,-41,-79,-34
-35,-61,-25,48,-5,-43,96,33,25,-39,-79,-35
-56,-67,-11,62,-23,-38,105,38,34,-33,-73,-35
-52,-48,3,50,-27,-22,115,57,56,-27,-67,-31
-45,-45,0,44,-22,-22,130,76,76,-20,-63,-29
-54,-42,12,47,-32,-15,146,97,108,3,-55,-26
-50,-26,24,38,-36,-1,168,138,139,22,-52,-23
-40,-12,28,26,-34,8,197,175,177,39,-45,-20
-71,-26,45,48,-57,9,233,223,228,55,-37,-18
-42,4,46,19,-44,25,273,286,287,92,-31,-11
-28,2,31,13,-29,16,299,346,349,126,-23,-3
-34,-10,24,21,-29,7,322,411,417,168,-3,4
13,26,13,-20,0,19,329,463,473,213,17,13
45,53,9,-49,18,31,313,478,499,226,38,18
56,57,1,-56,27,29,299,466,492,231,54,25
71,54,-17,-62,43,18,250,426,456,227,49,35
77,56,-21,-66,49,17,178,336,363,181,39,31
70,56,-14,-62,42,21,118,210,228,113,32,20
63,50,-13,-56,38,18,66,112,103,56,12,10
33,31,-3,-32,18,14,32,50,22,10,-13,0
6,18,12,-12,-3,15,12,-2,-19,-21,-33,-10
6,14,9,-10,-2,11,2,-46,-59,-43,-46,-20
7,12,5,-10,1,8,-4,-66,-71,-54,-48,-30
-4,9,13,-3,-8,10,-11,-69,-80,-55,-53,-36
-12,6,18,3,-16,12,-17,-74,-92,-55,-59,-35
-9,5,14,2,-12,9,-24,-75,-89,-55,-55,-39
-17,-1,17,8,-17,8,-22,-75,-91,-55,-55,-40
-29,1,30,14,-29,15,-19,-75,-90,-56,-54,-40
-39,-9,30,24,-34,10,-20,-75,-90,-60,-50,-45
-21,4,25,8,-23,15,-15,-75,-87,-60,-50,-45
-12,12,24,0,-18,18,-16,-74,-85,-60,-52,-46
-37,-18,19,27,-28,1,-14,-71,-85,-64,-59,-50
-45,-22,22,33,-34,0,-10,-66,-80,-66,-65,-52
-44,-18,26,31,-35,3,-11,-64,-80,-71,-69,-55
-46,-21,25,33,-35,2,-7,-59,-82,-74,-74,-58
-46,-21,25,33,-36,1,-5,-56,-85,-79,-77,-60
-20,5,25,7,-23,15,-5,-55,-88,-86,-85,-60
-23,2,25,10,-24,13,-9,-55,-90,-91,-89,-60
-49,-27,23,38,-36,-2,-10,-55,-94,-96,-86,-60
-49,-29,20,39,-34,-5,-10,-55,-95,-100,-81,-60
-48,-29,19,39,-33,-5,-10,-65,-99,-105,-78,-60
-40,-25,15,32,-27,-5,-10,-75,-99,-100,-74,-59
-34,-20,14,27,-24,-3,-9,-79,-93,-92,-71,-54
-16,16,32,0,-24,24,-1,-80,-87,-86,-68,-49
-10,30,40,-11,-25,35,2,-79,-81,-82,-62,-46
19,51,31,-35,-6,41,19,-81,-83,-85,-56,-40
48,75,26,-62,11,50,7,-79,-92,-86,-50,-30
11,33,21,-22,-5,27,-61,-85,-94,-84,-45,-20
33,52,19,-43,7,36,-91,-94,-88,-86,-51,-10
65,81,16,-73,24,48,-89,-102,-103,-84,-49,-4
26,40,14,-34,6,27,-80,-111,-124,-89,-54,-12
7,16,9,-12,-1,12,-56,-110,-126,-91,-55,-29
-16,-6,10,11,-13,2,-40,-110,-127,-90,-57,-44
-49,-46,3,47,-26,-21,-30,-110,-134,-114,-92,-54
-50,-46,5,48,-28,-21,-30,-109,-132,-109,-92,-58
-53,-55,-2,54,-26,-28,-21,-108,-138,-129,-103,-67
-42,-46,-3,44,-20,-24,-21,-100,-126,-114,-95,-69
-49,-53,-4,51,-22,-28,-13,-99,-134,-136,-110,-85
-54,-52,2,53,-28,-25,4,-93,-126,-120,-98,-75
-104,-86,18,95,-61,-33,51,-106,-147,-174,-150,-130
-176,-327,-151,252,-12,-239,152,-90,-207,-322,-312,-239
-67,-369,-302,218,118,-335,13,-65,-121,-111,-168,-162
298,-112,-410,-93,354,-261,-642,-250,-227,161,188,135
775,468,-308,-621,541,80,-1381,-511,-214,765,864,668
763,709,-54,-735,408,327,-1269,-545,-118,827,1059,846
329,323,-6,-326,167,158,-605,-416,-344,10,353,408
57,171,114,-114,-29,143,-212,-236,-254,-145,2,73
-68,16,85,26,-76,50,-24,-67,-98,-82,-53,-39
-109,-81,28,95,-68,-26,30,-22,-88,-107,-100,-83
-100,-43,57,71,-79,8,42,-19,-47,-76,-82,-78
-106,-79,28,92,-67,-26,72,-1,-53,-97,-93,-81
-112,-71,41,91,-76,-14,76,7,-30,-73,-79,-79
-101,-76,25,88,-63,-25,83,21,-27,-84,-84,-80
-101,-61,39,81,-70,-11,97,27,-15,-70,-78,-81
-105,-58,47,82,-76,-5,108,32,-2,-68,-76,-88
-107,-53,54,80,-80,0,111,47,17,-63,-72,-87
-107,-46,61,76,-83,7,127,68,37,-51,-68,-82
-99,-45,54,72,-76,5,148,94,59,-36,-65,-80
-92,-37,55,64,-73,8,163,123,95,-20,-60,-75
-85,-35,49,60,-67,7,185,162,124,-5,-58,-72
-78,-30,48,54,-63,9,217,207,165,22,-51,-69
-71,-26,45,48,-58,9,250,257,215,45,-46,-63
-67,-24,43,45,-54,9,290,334,282,77,-41,-56
-52,-19,33,35,-42,7,318,399,350,115,-19,-49
-42,-17,25,29,-33,4,342,454,412,155,13,-43
-28,-11,17,19,-22,2,343,504,460,196,31,-37
-7,-4,3,6,-5,-1,327,518,482,215,49,-25
19,10,-9,-14,13,1,317,513,496,235,73,1
68,36,-33,-52,50,1,260,453,447,220,77,17
63,32,-31,-47,46,1,181,334,324,151,64,11
23,17,-5,-20,14,6,125,226,203,96,53,7
0,8,8,-4,-4,7,75,127,108,52,43,3
-30,0,30,15,-30,14,34,41,32,8,38,-2
-42,-5,37,23,-39,16,10,-9,-23,-25,35,-6
-38,-7,31,22,-34,12,-2,-28,-52,-35,32,-10
-49,-19,30,34,-39,5,-8,-40,-64,-42,27,-9
-67,-41,25,53,-46,-8,-5,-61,-60,-53,24,-13
-65,-40,25,52,-45,-7,-5,-66,-63,-58,20,-15
-56,-36,20,46,-38,-7,-5,-64,-72,-70,15,-15
-55,-35,20,45,-37,-7,-5,-62,-68,-71,11,-10
-49,-30,19,39,-34,-5,-5,-60,-65,-69,6,-2
-45,-31,14,37,-29,-8,0,-60,-63,-73,1,-7
-50,-34,16,41,-32,-9,0,-56,-59,-75,2,-14
-50,-36,14,42,-31,-11,1,-53,-63,-75,8,-19
-51,-34,17,42,-33,-8,5,-50,-69,-78,11,-26
-66,-36,30,51,-47,-3,5,-48,-70,-81,17,-32
-61,-34,27,47,-43,-3,2,-44,-70,-80,20,-40
-55,-35,21,45,-38,-7,0,-48,-70,-80,16,-43
-42,-23,18,32,-30,-2,-4,-50,-70,-80,13,-40
-19,-8,12,13,-15,2,-6,-51,-70,-80,10,-35
-47,-38,9,42,-28,-14,-10,-56,-73,-80,7,-33
-56,-54,2,54,-29,-26,-10,-54,-79,-80,5,-28
-41,-44,-4,43,-18,-24,-6,-51,-75,-78,7,-25
-42,-43,-1,43,-20,-22,-3,-45,-70,-71,19,-21
-45,-33,12,38,-28,-10,2,-40,-67,-64,23,-14
-51,-13,39,32,-45,13,3,-37,-61,-58,31,-8
-32,6,38,13,-36,22,14,-30,-62,-50,46,12
-1,30,31,-15,-16,30,19,-34,-66,-46,49,21
-2,22,24,-10,-13,23,-18,-48,-64,-39,54,24
18,29,11,-24,3,20,-71,-74,-71,-34,54,35
53,81,28,-67,12,54,-87,-86,-77,-26,47,33
33,68,36,-51,-2,52,-97,-102,-91,-35,48,29
2,28,25,-15,-12,26,-81,-114,-115,-77,41,23
-9,4,14,2,-12,9,-36,-87,-110,-74,41,20
-20,-13,7,16,-14,-3,-28,-83,-104,-74,31,13
-18,-24,-6,21,-6,-15,-24,-87,-101,-78,18,5
-26,-29,-3,28,-11,-16,-14,-83,-90,-68,11,1
-25,-42,-18,34,-3,-30,-10,-87,-93,-84,-9,-10
-41,-61,-21,51,-10,-41,-5,-83,-79,-55,-3,-13
-64,-96,-32,80,-16,-63,-12,-83,-92,-89,-36,-33
-33,-54,-21,43,-6,-37,2,-67,-77,-55,-15,-29
-125,-189,-64,157,-30,-126,110,-63,-121,-192,-142,-120
-150,-396,-246,273,49,-320,169,-24,-146,-234,-226,-193
64,-282,-346,109,205,-313,-102,-54,-117,46,9,-39
472,93,-380,-282,426,-144,-869,-352,-228,408,487,374
804,710,-94,-757,449,308,-1425,-594,-149,1042,1198,916
584,642,57,-613,263,349,-1038,-564,-239,606,950,816
213,211,-2,-212,107,104,-428,-390,-382,-154,192,292
24,129,105,-77,-41,117,-117,-162,-151,-73,34,85
-66,-35,31,50,-49,-2,27,-49,-57,-70,-24,19
-90,-62,28,76,-59,-16,52,-40,-36,-45,-24,-26
-94,-61,34,77,-63,-13,74,-15,-13,-42,-12,-42
-83,-69,14,75,-48,-27,83,7,-12,-46,-14,-40
-78,-51,26,64,-52,-13,77,18,10,-28,2,-35
-69,-62,6,65,-37,-28,84,31,11,-39,0,-35
-65,-50,15,58,-40,-17,100,37,28,-18,3,-29
-54,-47,7,50,-30,-20,108,49,36,-24,-15,-31
-60,-50,10,55,-34,-20,117,67,51,-10,-23,-30
-75,-71,4,73,-39,-34,126,80,62,-10,-33,-30
-62,-56,5,58,-33,-25,142,100,86,3,-21,-30
-51,-49,2,50,-26,-24,166,125,114,19,-6,-30
-40,-46,-6,43,-17,-26,189,168,153,35,4,-31
-11,-20,-9,16,-1,-14,222,216,202,66,12,-25
-23,-40,-16,32,-3,-28,250,262,249,94,22,-17
-37,-58,-21,47,-8,-39,282,334,320,128,35,-9
-12,-38,-26,25,7,-32,314,404,389,169,45,-1
0,-32,-33,16,17,-32,327,462,453,211,70,6
22,-27,-50,3,36,-38,316,498,493,245,91,19
54,-24,-78,-15,67,-51,302,498,496,248,96,34
73,-15,-88,-29,80,-51,275,465,476,233,90,37
71,-7,-78,-31,75,-42,218,396,410,219,84,34
67,3,-64,-35,65,-30,158,285,297,167,79,31
58,16,-42,-36,49,-13,99,156,174,95,63,28
39,7,-32,-23,35,-12,54,78,89,55,42,25
13,-13,-26,0,20,-19,30,20,32,34,23,24
-1,-20,-19,11,9,-19,20,-23,-5,22,14,19
-11,-24,-13,17,2,-18,10,-35,-25,11,11,16
-37,-43,-6,40,-16,-24,4,-57,-49,-1,7,13
-23,-24,-2,24,-10,-13,1,-60,-48,-17,3,8
-14,-13,1,13,-7,-5,-3,-53,-40,-23,0,5
-20,-16,4,18,-11,-6,-6,-52,-39,-19,-4,2
-16,-9,7,12,-12,-1,-11,-45,-31,-20,-10,-1
-21,-11,10,16,-15,-1,-6,-47,-31,-20,-15,-4
-3,9,11,-3,-7,10,0,-50,-43,-19,-21,-7
-14,2,16,6,-15,9,5,-50,-46,-22,-27,-10
-38,-17,21,28,-29,2,11,-50,-45,-25,-31,-11
-50,-26,24,38,-37,-1,17,-50,-43,-26,-45,-17
-50,-28,22,39,-36,-3,19,-50,-40,-29,-51,-24
-35,-17,19,26,-27,1,13,-54,-40,-30,-49,-28
-53,-37,17,44,-34,-10,7,-55,-44,-42,-62,-31
-61,-48,13,54,-37,-17,3,-58,-49,-46,-66,-34
-53,-43,11,48,-32,-16,-4,-60,-53,-41,-64,-37
-55,-47,8,51,-31,-19,-9,-62,-54,-40,-65,-40
-48,-43,5,45,-26,-19,-7,-67,-49,-35,-65,-39
-51,-46,5,48,-28,-21,0,-66,-46,-35,-65,-35
-46,-41,5,43,-25,-18,3,-62,-43,-28,-60,-33
-38,-23,15,30,-26,-4,8,-60,-38,-21,-60,-30
-35,6,41,14,-38,23,12,-56,-35,-15,-59,-27
-11,39,51,-14,-31,45,19,-54,-38,-12,-55,-25
-10,32,42,-12,-26,37,36,-59,-43,-20,-55,-21
2,38,36,-21,-17,37,6,-64,-46,-26,-55,-10
36,65,28,-51,4,46,-55,-86,-56,-31,-54,0
34,54,20,-44,7,37,-67,-104,-59,-41,-56,11
29,44,15,-37,7,30,-52,-100,-68,-42,-53,10
32,38,6,-35,13,22,-38,-99,-88,-53,-57,-5
-5,14,19,-5,-12,16,-25,-95,-83,-49,-53,-14
-43,-16,28,29,-35,6,2,-93,-86,-64,-75,-32
-61,-47,14,54,-38,-16,21,-90,-85,-77,-102,-54
-95,-75,20,84,-57,-27,18,-88,-83,-73,-110,-74
-81,-77,4,79,-42,-36,13,-84,-91,-80,-116,-76
-65,-53,12,58,-38,-20,8,-79,-86,-65,-111,-75
-59,-64,-6,61,-26,-35,7,-79,-105,-89,-128,-85
-46,-48,-2,48,-22,-25,19,-69,-89,-68,-117,-77
-135,-208,-73,172,-31,-140,122,-75,-160,-248,-277,-199
-142,-386,-244,265,51,-315,178,-42,-121,-233,-321,-257
80,-262,-342,91,211,-302,-140,-59,-47,44,-64,-57
544,168,-376,-356,460,-104,-903,-256,-117,465,457,385
834,751,-83,-792,458,333,-1353,-443,25,1082,1119,871
559,633,75,-596,242,354,-917,-478,-131,574,799,737
208,266,58,-237,74,162,-359,-346,-308,-113,98,253
25,149,124,-87,-50,136,-108,-159,-128,-80,-64,22
-51,-7,44,29,-48,18,11,-73,-85,-114,-133,-54
-57,-20,37,38,-47,8,40,-50,-58,-87,-144,-80
-67,-37,30,52,-49,-3,63,-37,-44,-92,-151,-92
-61,-37,23,49,-41,-7,72,-28,-38,-88,-150,-89
-60,-31,29,45,-44,-1,73,-15,-23,-77,-143,-90
-54,-38,16,46,-34,-10,84,-4,-25,-84,-145,-91
-67,-43,24,55,-45,-9,97,8,-8,-70,-137,-89
-71,-50,21,60,-46,-14,93,9,-7,-76,-140,-91
-62,-30,32,46,-47,1,102,34,23,-65,-129,-89
-76,-33,42,55,-59,4,120,68,44,-56,-127,-91
-84,-25,59,54,-71,17,131,77,57,-36,-120,-89
-77,-22,55,49,-66,16,165,101,91,-24,-115,-90
-64,-17,46,40,-55,15,192,137,122,-9,-110,-89
-50,-8,42,28,-45,17,223,184,170,12,-103,-81
-33,0,33,16,-33,16,259,246,231,41,-91,-73
-20,9,30,5,-25,19,295,313,298,84,-74,-65
-4,17,20,-7,-12,18,326,382,369,122,-52,-58
14,28,14,-21,0,21,335,437,428,158,-27,-49
33,35,2,-34,15,18,339,472,464,192,-9,-35
49,35,-15,-42,31,10,324,486,476,213,2,-20
64,35,-29,-49,46,3,275,461,455,209,5,-7
84,35,-49,-59,66,-7,206,381,371,175,14,5
80,35,-45,-57,62,-5,135,265,252,116,9,13
57,35,-22,-46,39,7,77,151,137,51,-16,-10
38,35,-3,-36,20,16,37,69,49,10,-37,-30
29,35,6,-33,11,21,7,14,-12,-19,-55,-30
26,33,6,-30,10,19,-5,-34,-54,-55,-64,-45
14,26,12,-20,1,19,-10,-62,-81,-72,-69,-51
14,22,8,-18,3,15,-15,-67,-87,-69,-71,-49
0,16,15,-8,-8,15,-18,-65,-83,-73,-69,-50
-21,10,31,5,-26,20,-24,-65,-86,-75,-70,-50
-26,4,30,11,-28,17,-23,-65,-84,-75,-69,-50
-33,-3,30,18,-31,13,-19,-65,-87,-79,-72,-46
-28,2,30,13,-30,16,-20,-65,-97,-80,-76,-45
-29,0,29,15,-29,15,-20,-62,-95,-80,-75,-45
-38,-6,31,22,-34,12,-20,-59,-90,-80,-75,-40
-40,-4,36,21,-37,16,-20,-56,-88,-79,-75,-40
-51,-17,34,34,-42,8,-15,-54,-84,-82,-76,-40
-41,-1,40,20,-41,19,-15,-50,-79,-85,-80,-39
-43,6,49,18,-46,27,-14,-51,-88,-86,-80,-50
-63,-22,41,42,-52,9,-10,-55,-96,-89,-83,-56
-52,-19,33,35,-42,7,-11,-55,-95,-90,-85,-54
-38,-11,27,24,-32,8,-10,-59,-94,-93,-85,-64
-27,-11,16,19,-22,3,-11,-66,-97,-96,-85,-66
-24,-1,23,12,-23,11,-9,-70,-108,-99,-85,-64
-43,-3,40,23,-42,18,-12,-69,-113,-99,-85,-65
-78,-36,41,57,-59,3,-28,-73,-116,-92,-85,-64
-69,-31,38,50,-53,3,-28,-75,-113,-87,-85,-66
-49,2,51,23,-50,27,-19,-75,-108,-81,-75,-60
-53,26,79,13,-66,52,-17,-74,-95,-76,-60,-50
-38,44,81,-3,-60,62,-2,-76,-81,-78,-48,-40
-24,47,71,-12,-48,59,-5,-74,-77,-80,-44,-31
-1,63,64,-31,-33,63,-56,-78,-84,-80,-46,-24
5,61,56,-33,-26,58,-101,-100,-106,-84,-41,-17
0,50,50,-25,-25,50,-100,-111,-113,-86,-40,-12
-12,39,50,-14,-31,44,-85,-114,-113,-85,-39,-3
-22,27,50,-2,-36,38,-72,-116,-117,-93,-47,-2
-15,35,50,-10,-33,42,-58,-115,-118,-93,-51,-14
-67,-16,51,42,-59,17,-48,-121,-121,-101,-62,-40
-91,-43,48,67,-69,2,-44,-120,-120,-100,-83,-67
-87,-37,50,62,-69,6,-38,-118,-144,-118,-103,-77
-87,-51,36,69,-61,-7,-32,-113,-148,-116,-98,-74
-78,-34,44,56,-61,6,-28,-106,-137,-98,-82,-75
-86,-62,25,74,-55,-18,-19,-106,-147,-113,-89,-75
-105,-71,34,88,-70,-18,6,-95,-132,-122,-111,-87
-186,-215,-29,201,-78,-122,101,-100,-221,-310,-275,-206
-142,-342,-199,242,29,-270,109,-85,-153,-219,-253,-227
125,-211,-336,44,231,-273,-339,-145,-142,47,23,-11
616,266,-350,-441,483,-42,-1163,-392,-243,499,582,461
824,749,-76,-787,450,337,-1417,-508,-72,968,1118,879
492,531,39,-512,226,285,-832,-425,-225,338,658,631
180,264,84,-222,48,174,-326,-298,-321,-167,68,173
-25,126,151,-51,-88,138,-100,-121,-133,-98,-32,13
-95,-33,62,64,-79,14,15,-31,-106,-139,-95,-47
-72,-13,59,42,-65,23,32,-21,-69,-100,-90,-77
-84,-37,46,61,-65,4,57,1,-63,-112,-97,-81
-75,-30,45,52,-60,8,56,10,-51,-98,-95,-79
-68,-22,46,45,-57,11,72,27,-33,-93,-94,-80
-88,-52,36,70,-62,-7,82,36,-24,-92,-97,-80
-94,-49,45,71,-69,-2,83,34,-5,-79,-91,-79
-77,-26,51,51,-63,12,98,42,11,-81,-88,-81
-84,-20,64,51,-74,22,100,61,32,-68,-80,-79
-80,-18,62,49,-71,22,119,88,55,-55,-77,-77
-72,-11,61,41,-66,25,141,111,87,-32,-69,-74
-66,-9,57,37,-61,24,164,149,125,-12,-66,-71
-57,-3,55,29,-56,26,195,188,164,6,-54,-68
-42,9,51,17,-47,30,223,234,203,35,-39,-65
-26,24,50,1,-38,37,269,305,277,71,-27,-64
-18,28,46,-5,-32,36,307,366,342,98,-19,-59
-13,22,35,-5,-24,28,324,427,401,131,-11,-57
3,21,19,-12,-8,20,333,488,462,161,0,-44
13,16,4,-15,4,10,325,510,497,195,27,-17
33,15,-18,-24,25,-1,313,502,513,203,57,-2
73,28,-44,-50,58,-8,284,490,494,190,55,14
77,34,-44,-55,60,-5,212,398,403,169,47,22
55,18,-37,-36,46,-9,140,255,265,108,42,15
42,10,-32,-25,37,-11,85,150,155,54,22,9
43,20,-23,-31,32,-1,41,60,68,12,4,4
21,13,-8,-16,14,2,20,-2,-4,-25,-10,-12
8,11,3,-10,3,7,10,-41,-49,-46,-23,-29
-5,-13,-9,9,2,-11,0,-56,-61,-52,-25,-30
4,-6,-10,2,7,-8,-5,-63,-61,-48,-29,-30
2,8,6,-5,-2,7,-7,-62,-59,-62,-30,-31
-44,-25,19,35,-32,-3,-10,-58,-64,-71,-25,-31
-35,-14,21,25,-28,3,-13,-74,-79,-72,-25,-30
-32,-15,17,23,-24,1,-16,-75,-81,-76,-23,-30
-18,-3,15,10,-17,5,-11,-70,-79,-78,-20,-30
-5,6,11,0,-8,9,-5,-69,-76,-80,-19,-30
-34,-25,10,29,-22,-7,0,-64,-74,-84,-24,-33
-33,-26,7,29,-19,-9,5,-67,-76,-85,-33,-35
-24,-21,2,22,-13,-10,12,-70,-75,-85,-29,-47
-21,-22,-1,22,-10,-11,13,-70,-75,-89,-31,-56
-8,-12,-4,11,-2,-8,10,-70,-75,-91,-43,-54
3,-6,-9,1,6,-7,7,-70,-75,-88,-46,-55
-10,-19,-9,15,0,-14,5,-70,-75,-85,-45,-55
-31,-36,-4,34,-13,-20,2,-66,-79,-85,-44,-55
-38,-43,-5,41,-16,-24,-1,-65,-80,-85,-48,-55
-44,-48,-5,46,-19,-26,4,-65,-80,-85,-51,-55
-33,-39,-5,36,-13,-22,5,-65,-84,-85,-49,-55
-39,-43,-5,42,-17,-24,5,-65,-86,-80,-50,-55
-51,-52,-1,51,-24,-26,5,-65,-83,-71,-49,-55
-32,-20,13,26,-22,-3,5,-65,-76,-63,-51,-55
-18,21,38,-2,-28,29,5,-65,-64,-54,-28,-38
-3,34,37,-16,-21,36,-2,-65,-56,-48,2,-13
9,37,28,-23,-10,32,3,-65,-45,-42,9,-6
16,39,23,-28,-3,31,-22,-64,-46,-38,14,1
26,42,16,-35,5,29,-72,-81,-68,-30,21,8
47,62,15,-55,16,38,-74,-100,-77,-26,23,14
39,53,14,-47,12,34,-62,-101,-89,-42,16,21
8,20,11,-14,-2,15,-53,-94,-103,-66,-5,8
1,9,8,-5,-4,8,-43,-86,-99,-64,-17,-7
-18,-6,12,12,-15,3,-34,-89,-100,-68,-27,-29
-46,-48,-2,47,-22,-25,-28,-91,-102,-85,-38,-42
-74,-71,3,73,-38,-34,-21,-89,-96,-84,-41,-39
-67,-80,-14,74,-26,-47,-13,-92,-103,-100,-61,-47
-60,-69,-9,65,-25,-38,-10,-88,-86,-75,-46,-42
-60,-81,-21,71,-19,-51,0,-90,-101,-108,-66,-52
-44,-72,-28,58,-7,-49,2,-70,-77,-68,-43,-51
-132,-173,-40,153,-46,-106,100,-63,-120,-190,-156,-132
-150,-377,-227,264,39,-302,175,-38,-120,-268,-260,-207
17,-317,-334,150,176,-325,-77,-69,-67,-8,-46,-82
419,57,-362,-238,391,-152,-809,-359,-259,310,379,283
793,670,-123,-731,458,273,-1415,-611,-173,956,1097,828
616,660,44,-638,286,351,-1087,-589,-231,626,962,806
227,246,19,-236,104,132,-458,-421,-414,-156,189,287
24,171,147,-98,-62,159,-146,-193,-178,-101,-1,40
-56,1,57,27,-57,29,-6,-59,-101,-106,-54,-43
-93,-69,24,81,-58,-23,24,-43,-72,-92,-81,-82
-96,-42,54,69,-75,6,49,-30,-27,-74,-77,-80
-74,-43,31,58,-52,-6,65,-17,-26,-84,-85,-82
-92,-49,43,70,-67,-3,74,-9,-6,-60,-75,-78
-108,-85,23,96,-65,-30,86,-2,-11,-72,-84,-78
-91,-63,28,77,-59,-18,83,10,5,-48,-77,-74
-79,-62,16,70,-47,-23,89,21,6,-50,-81,-76
-66,-52,15,59,-40,-18,105,34,28,-32,-73,-75
-58,-49,9,53,-33,-20,124,73,52,-26,-71,-74
-55,-51,4,53,-30,-23,138,94,69,-17,-68,-82
-49,-49,1,49,-25,-24,153,115,94,-10,-63,-84
-46,-51,-5,49,-20,-28,176,148,118,-5,-61,-75
-41,-49,-9,45,-16,-29,209,201,172,31,-53,-69
-30,-49,-19,40,-6,-34,250,271,239,66,-38,-62
-20,-45,-25,33,3,-35,278,332,304,98,-25,-56
-8,-43,-35,25,14,-38,305,398,369,141,-9,-49
-1,-40,-39,21,19,-39,324,455,421,172,14,-37
18,-37,-55,10,37,-46,310,498,465,199,28,-25
45,-34,-79,-5,63,-56,298,498,473,219,51,-19
47,-33,-79,-7,63,-56,270,463,452,218,65,-16
50,-25,-74,-12,62,-49,213,399,392,189,51,-12
47,-25,-72,-11,60,-48,153,292,275,135,41,-9
54,-14,-68,-20,61,-41,99,175,158,85,30,-4
32,-25,-57,-3,45,-41,56,78,69,39,14,-10
-8,-51,-43,30,18,-47,24,15,5,3,-2,-20
-6,-38,-32,22,13,-35,10,-24,-37,-7,-15,-30
-19,-38,-19,29,0,-28,5,-38,-54,-11,-19,-39
-3,-17,-15,10,6,-16,-3,-45,-55,-16,-27,-40
-12,-27,-15,20,2,-21,-11,-54,-63,-20,-29,-40
-59,-74,-15,67,-22,-44,-18,-55,-66,-25,-25,-40
-53,-68,-15,61,-19,-41,-17,-55,-64,-29,-25,-40
-56,-71,-15,64,-20,-43,-12,-52,-66,-36,-22,-40
-58,-76,-18,67,-19,-46,-10,-50,-65,-40,-20,-44
-51,-74,-23,63,-13,-49,-5,-50,-65,-40,-20,-45
-49,-73,-24,61,-12,-48,-2,-54,-69,-40,-24,-46
-37,-57,-20,47,-8,-38,2,-55,-71,-44,-35,-47
-31,-51,-20,41,-5,-35,5,-55,-70,-52,-40,-45
-26,-46,-20,36,-3,-33,5,-60,-70,-55,-40,-45
-23,-43,-20,33,-1,-31,5,-60,-70,-58,-40,-40
-20,-40,-20,30,0,-30,5,-61,-71,-60,-40,-40
-17,-34,-16,26,0,-25,5,-65,-76,-63,-40,-39
-29,-43,-14,37,-7,-29,2,-65,-78,-66,-48,-34
-41,-52,-11,46,-15,-31,-1,-65,-82,-61,-52,-29
-41,-49,-8,45,-16,-28,-4,-65,-85,-60,-47,-24
-45,-51,-6,48,-20,-28,-6,-65,-82,-60,-45,-21
-46,-49,-3,48,-21,-26,-10,-65,-79,-59,-41,-14
-52,-51,1,51,-27,-24,-9,-65,-76,-61,-39,-23
-56,-44,12,49,-33,-16,-4,-65,-73,-59,-45,-26
-46,-31,15,39,-30,-8,-5,-65,-70,-53,-47,-17
-55,-20,35,37,-45,7,-4,-65,-71,-46,-39,-12
-62,-7,55,34,-58,24,-6,-65,-76,-40,-28,-4
-46,2,48,21,-47,25,-2,-65,-74,-32,-15,2
-14,27,41,-7,-27,33,-25,-63,-78,-27,-6,7
10,41,31,-26,-10,35,-73,-79,-80,-32,-5,13
24,42,18,-33,2,30,-92,-102,-79,-34,-5,18
52,59,7,-56,22,33,-99,-113,-91,-36,0,25
33,45,13,-39,10,29,-84,-116,-101,-42,1,20
-7,15,22,-5,-14,18,-55,-108,-100,-39,-2,12
-26,4,30,11,-28,17,-35,-105,-98,-46,-13,4
-68,-47,21,57,-45,-13,-27,-101,-103,-75,-36,-8
-91,-69,21,80,-56,-24,-30,-93,-96,-69,-41,-18
-78,-61,17,69,-47,-22,-21,-105,-104,-82,-49,-38
-63,-53,10,58,-37,-22,-24,-108,-96,-67,-40,-39
-62,-47,15,55,-38,-16,-16,-103,-104,-82,-50,-42
-34,-41,-7,37,-13,-24,-4,-94,-95,-70,-40,-36
-90,-83,7,87,-49,-37,52,-95,-114,-123,-108,-83
-170,-314,-144,242,-13,-229,163,-57,-180,-280,-253,-198
-73,-371,-297,222,112,-334,75,-6,-54,-71,-121,-148
238,-122,-360,-58,299,-241,-488,-148,-114,196,197,141
714,472,-242,-593,478,115,-1241,-389,-97,816,892,697
722,792,70,-757,326,431,-1226,-493,-20,986,1176,922
310,404,94,-358,108,249,-609,-424,-303,129,466,498
98,202,104,-150,-4,153,-220,-235,-237,-117,54,134
-16,69,84,-27,-51,76,-35,-80,-70,-44,6,-8
-41,-37,3,38,-22,-17,29,-35,-65,-81,-54,-30
-8,19,26,-6,-17,22,53,-15,-24,-45,-48,-28
-52,-32,20,41,-36,-6,74,-3,-35,-67,-61,-61
-67,-39,28,53,-48,-5,71,8,-13,-45,-51,-52
-64,-40,24,52,-44,-7,83,18,-12,-53,-57,-55
-65,-41,24,52,-44,-8,86,27,0,-43,-54,-50
-67,-39,28,52,-48,-5,93,38,8,-40,-53,-50
-86,-40,46,63,-66,3,103,46,16,-32,-48,-49
-81,-29,52,55,-67,12,108,73,37,-21,-42,-41
-74,-26,48,50,-61,11,120,81,47,-16,-39,-39
-68,-16,52,42,-59,17,146,98,84,3,-33,-33
-61,-12,49,36,-55,18,172,134,122,21,-30,-29
-54,-4,50,29,-52,23,204,174,166,43,-23,-24
-33,9,42,11,-37,26,240,229,227,65,-12,-18
-30,7,37,11,-34,22,273,283,281,93,-2,-10
-28,-1,28,14,-28,13,309,347,344,130,8,-2
-2,6,7,-2,-5,6,338,412,412,169,28,6
15,7,-9,-11,12,-1,345,467,471,203,45,13
36,18,-18,-27,27,0,348,485,497,229,63,34
74,36,-38,-55,55,-1,319,473,489,243,80,53
81,29,-53,-55,67,-12,261,437,453,229,70,58
67,23,-43,-45,55,-10,200,343,358,179,60,59
44,14,-30,-29,37,-7,128,226,235,124,50,53
29,8,-21,-18,25,-6,76,131,128,75,34,46
9,0,-9,-4,9,-4,44,67,47,36,18,39
-7,-9,-2,8,-2,-5,25,24,2,14,5,32
-3,11,14,-4,-9,12,20,-9,-27,3,5,26
-23,15,38,4,-31,27,15,-32,-44,-3,5,28
-34,6,41,14,-38,23,10,-40,-49,-7,0,30
-36,3,39,16,-38,21,3,-41,-51,-12,0,30
-40,0,40,20,-40,20,1,-45,-55,-16,-1,35
-50,-10,40,30,-44,14,5,-47,-53,-21,-6,35
-38,2,40,18,-39,21,5,-46,-49,-24,-10,34
-36,4,40,16,-38,21,5,-45,-50,-27,-10,28
-62,-22,40,42,-51,9,5,-44,-46,-30,-10,22
-60,-20,40,40,-50,10,5,-40,-45,-33,-10,17
-67,-19,48,43,-58,14,9,-41,-46,-36,-10,11
-70,-18,52,44,-60,16,19,-38,-50,-35,-10,6
-60,-13,47,36,-52,17,23,-35,-51,-35,-11,1
-63,-17,46,39,-54,14,20,-36,-50,-35,-19,0
-78,-37,41,57,-59,2,17,-31,-51,-35,-26,0
-89,-48,40,69,-64,-4,15,-30,-49,-40,-33,0
-84,-47,36,65,-60,-5,11,-31,-53,-40,-32,0
-89,-54,35,71,-62,-9,10,-34,-55,-40,-27,1
-108,-54,53,81,-80,-1,6,-35,-55,-40,-25,6
-111,-50,62,81,-86,6,5,-35,-55,-40,-20,9
-106,-43,62,74,-84,9,5,-36,-55,-38,-16,12
-106,-39,67,72,-86,13,5,-34,-55,-32,-14,17
-101,-32,68,67,-84,18,5,-38,-49,-29,-8,20
-99,-28,71,63,-85,22,5,-38,-43,-23,-2,23
-95,-19,76,57,-85,28,16,-31,-39,-20,3,27
-83,7,90,38,-87,49,24,-26,-33,-13,9,29
-88,21,109,34,-99,65,28,-21,-27,-3,13,32
-86,25,110,31,-99,67,33,-15,-27,7,20,35
-69,37,106,16,-88,72,25,-10,-32,14,28,40
-71,32,104,19,-88,68,-1,-29,-35,11,35,49
-61,40,101,10,-82,70,-40,-47,-42,7,45,59
-54,44,99,5,-77,71,-50,-53,-54,3,48,61
-56,45,101,6,-79,73,-37,-57,-59,1,35,57
-64,35,99,15,-82,67,-27,-52,-62,-7,16,52
-100,0,100,50,-100,49,-13,-49,-58,-5,9,52
-131,-30,101,81,-116,35,-4,-47,-62,-16,-8,38
-153,-56,97,104,-125,20,-1,-43,-59,-18,-11,18
-154,-51,103,102,-128,26,5,-50,-62,-25,-19,8
-141,-58,83,100,-112,13,8,-49,-68,-33,-25,5
-154,-34,120,94,-137,42,14,-51,-60,-27,-24,0
-156,-39,117,97,-136,38,16,-55,-72,-47,-40,-5
-184,-68,116,126,-149,23,35,-53,-55,-28,-28,-21
-269,-204,65,236,-167,-69,142,-57,-134,-211,-189,-114
-254,-369,-114,312,-70,-241,171,1,-101,-161,-203,-143
-36,-267,-230,151,97,-248,-224,-63,-74,106,57,31
435,178,-257,-306,346,-40,-1028,-320,-171,508,571,492
701,697,-4,-699,352,346,-1380,-466,-20,1028,1159,926
428,550,123,-490,152,336,-869,-410,-133,502,803,744
66,235,169,-151,-52,202,-330,-269,-254,-69,184,308
-162,126,287,18,-225,206,-69,-93,-77,-30,49,98
-234,-29,205,131,-220,88,64,17,-31,-68,-15,25
-246,-43,203,144,-225,80,80,28,9,-39,-20,-3
-265,-62,203,163,-234,70,115,54,18,-49,-34,-16
-262,-56,206,158,-233,75,125,65,31,-48,-45,-18
-258,-49,210,154,-234,80,119,59,48,-48,-48,-25
-190,-48,142,119,-165,47,118,62,42,-54,-53,-30
-145,-49,96,97,-120,23,111,58,47,-45,-73,-45
-124,-67,57,95,-90,-5,112,62,44,-47,-92,-59
-83,-50,33,66,-58,-8,102,57,45,-37,-82,-67
-63,-43,19,53,-41,-12,114,68,48,-36,-80,-78
-40,-28,12,34,-26,-8,137,93,79,-30,-72,-80
-22,-18,3,20,-12,-7,149,120,103,-23,-67,-80
-1,-7,-6,4,3,-6,173,162,139,-2,-62,-80
12,-2,-14,-5,14,-8,206,208,188,13,-52,-74
34,9,-25,-21,29,-8,234,262,237,33,-43,-67
46,1,-45,-23,45,-22,276,327,304,70,-33,-61
40,-18,-58,-11,49,-38,314,402,377,112,-18,-54
71,14,-57,-42,64,-21,310,455,434,148,-1,-48
107,37,-70,-72,89,-17,312,497,474,177,11,-38
133,43,-90,-88,111,-23,301,502,486,187,32,-28
140,47,-93,-93,116,-23,252,459,462,174,48,-17
150,55,-94,-102,122,-19,205,398,401,164,46,-11
156,60,-97,-108,126,-18,137,265,273,112,30,-6
115,45,-70,-79,92,-12,77,147,150,45,14,0
76,35,-41,-55,59,-3,35,77,73,0,-1,-6
66,25,-41,-46,53,-7,-2,12,7,-51,-30,-12
52,14,-38,-33,45,-11,-16,-26,-35,-72,-47,-16
43,9,-34,-26,39,-12,-27,-50,-58,-77,-44,-22
36,4,-32,-20,34,-14,-42,-67,-75,-83,-45,-28
28,-1,-29,-14,28,-15,-50,-75,-83,-85,-45,-32
24,-4,-28,-10,27,-16,-50,-75,-86,-88,-44,-43
8,-12,-20,2,14,-16,-50,-76,-91,-91,-53,-50
29,4,-25,-17,27,-11,-50,-73,-94,-94,-61,-50
62,14,-48,-37,54,-17,-53,-89,-97,-96,-59,-49
49,-8,-58,-20,54,-33,-55,-108,-100,-99,-60,-53
48,-19,-67,-14,58,-43,-55,-104,-103,-102,-59,-70
51,-27,-78,-12,65,-53,-55,-106,-105,-105,-63,-78
52,-27,-80,-12,66,-53,-55,-105,-107,-107,-79,-81
57,-24,-81,-16,69,-52,-60,-105,-111,-114,-91,-86
53,-26,-78,-14,66,-52,-65,-102,-113,-120,-94,-90
66,-25,-91,-20,79,-58,-69,-99,-116,-128,-104,-101
81,-25,-106,-28,94,-65,-68,-101,-119,-133,-116,-107
72,-27,-99,-22,86,-63,-64,-95,-120,-129,-115,-103
54,-41,-96,-6,75,-68,-66,-96,-120,-130,-115,-101
41,-50,-91,5,66,-71,-65,-94,-120,-130,-115,-97
40,-46,-86,3,64,-66,-65,-96,-120,-130,-115,-95
41,-42,-82,1,62,-62,-64,-112,-117,-130,-113,-93
39,-37,-76,-1,58,-56,-60,-116,-114,-124,-107,-88
37,-33,-71,-2,54,-52,-55,-114,-110,-117,-104,-85
39,-26,-65,-6,52,-45,-50,-116,-107,-111,-98,-82
50,-10,-60,-20,55,-35,-46,-114,-102,-104,-96,-77
76,22,-55,-49,65,-16,-40,-117,-100,-98,-83,-75
108,52,-56,-79,82,-2,-43,-120,-106,-92,-67,-69
93,41,-52,-67,73,-5,-47,-119,-103,-89,-65,-63
78,13,-65,-45,71,-26,-80,-121,-108,-91,-61,-54
110,31,-78,-70,94,-23,-123,-117,-100,-88,-59,-29
145,74,-71,-109,108,1,-132,-138,-118,-93,-56,-24
136,73,-63,-105,100,5,-111,-142,-138,-106,-54,-34
94,35,-58,-64,76,-11,-72,-115,-105,-114,-61,-35
60,7,-53,-33,57,-23,-57,-114,-108,-105,-62,-56
21,-27,-48,3,35,-37,-43,-116,-133,-115,-91,-81
18,-32,-51,8,35,-41,-34,-114,-127,-106,-89,-79
-4,-40,-36,22,16,-38,-29,-116,-131,-112,-95,-85
-16,-66,-50,41,17,-58,-21,-114,-131,-120,-96,-86
-6,-49,-44,28,19,-46,-21,-110,-126,-108,-85,-90
-18,-86,-68,52,26,-77,-1,-107,-135,-122,-98,-91
-24,-64,-41,45,9,-52,31,-99,-116,-105,-91,-100
-115,-227,-112,172,-2,-169,132,-99,-182,-280,-264,-229
-80,-395,-315,237,118,-355,144,-45,-123,-191,-238,-238
188,-207,-394,10,291,-300,-271,-155,-160,43,24,-23
626,280,-346,-453,486,-33,-1069,-506,-316,496,599,444
803,770,-33,-787,418,368,-1397,-666,-213,980,1177,878
484,496,12,-490,236,253,-873,-595,-394,244,631,599
162,179,17,-171,73,97,-328,-371,-397,-240,30,128
6,94,88,-50,-42,91,-81,-127,-122,-87,-31,-33
-28,-67,-39,48,6,-53,12,-56,-98,-125,-92,-102
-23,-26,-3,25,-10,-14,33,-38,-58,-78,-87,-107
-40,-52,-13,46,-13,-32,60,-24,-53,-104,-111,-106
-74,-83,-10,79,-32,-46,61,-13,-41,-88,-103,-105
-73,-73,0,74,-36,-36,68,-3,-24,-89,-101,-104
-65,-74,-8,70,-28,-41,71,13,-20,-94,-101,-106
-65,-56,9,60,-37,-23,82,41,-1,-78,-93,-104
-53,-49,4,51,-29,-22,89,47,-1,-77,-97,-108
-83,-65,18,74,-51,-23,91,49,15,-59,-87,-110
-77,-70,7,73,-42,-31,113,61,29,-54,-85,-110
-57,-49,8,52,-32,-20,123,86,57,-38,-78,-113
-46,-47,-1,46,-22,-23,136,119,84,-27,-73,-115
-49,-44,5,46,-26,-19,167,145,125,-9,-68,-115
-61,-45,15,53,-38,-15,199,212,186,18,-61,-108
-48,-45,4,46,-26,-20,232,264,240,47,-49,-97
-26,-46,-19,36,-3,-32,269,323,299,78,-38,-87
6,-42,-48,18,27,-45,296,403,367,124,-15,-67
24,-28,-52,2,39,-40,298,444,438,172,11,-51
68,-20,-88,-24,78,-54,291,498,466,201,23,-39
71,-20,-91,-25,81,-55,277,446,463,199,31,-26
68,-20,-88,-24,78,-54,240,468,441,198,49,-14
58,-20,-78,-19,68,-48,190,331,362,170,48,8
47,-21,-68,-13,58,-44,120,272,237,102,44,-3
126,-12,-137,-57,132,-75,104,145,104,39,75,7
81,-14,-95,-34,89,-54,145,-154,233,-7,55,28
