I,II,III,aVR,aVL,aVF,V1,V2,V3,V4,V5,V6
-97,-111,-14,104,-41,-62,57,-13,-48,-71,-67,-36
-98,-107,-9,102,-44,-57,51,-14,-41,-73,-64,-35
-78,-106,-28,92,-25,-66,49,2,-36,-79,-66,-36
-145,-117,28,131,-86,-44,153,83,18,-79,-97,-71
-186,-30,156,108,-171,63,269,223,170,-51,-122,-102
-48,98,146,-25,-97,122,283,425,526,291,82,-12
236,369,133,-303,51,251,-3,264,647,772,553,319
453,148,-305,-300,379,-79,-332,-78,135,464,556,496
340,-87,-427,-126,383,-257,-300,-253,-317,-54,178,318
155,-53,-208,-51,182,-131,-270,-376,-442,-171,9,176
15,-234,-249,110,132,-241,-176,-219,-346,-188,-62,82
-62,-219,-157,141,48,-188,2,-54,-166,-135,-66,21
-66,-182,-116,124,25,-149,56,-28,-120,-111,-56,8
-72,-166,-94,119,11,-130,68,-4,-73,-89,-57,-13
-61,-136,-75,99,7,-105,40,-4,-47,-76,-47,-8
-65,-143,-78,104,7,-110,40,16,-34,-64,-48,-4
-64,-120,-56,92,-3,-88,54,23,-18,-43,-40,1
-52,-126,-74,89,12,-100,56,31,-16,-39,-39,7
-37,-115,-78,76,21,-96,63,29,-9,-30,-34,13
-43,-114,-71,79,14,-92,80,45,-9,-25,-31,13
-44,-108,-65,76,11,-86,84,52,-2,-17,-26,9
-46,-102,-57,74,6,-79,71,45,-2,-11,-25,6
-45,-96,-51,71,3,-73,63,45,8,-6,-25,2
-23,-88,-65,56,21,-77,52,41,25,4,-25,0
-3,-83,-80,44,39,-81,42,39,33,7,-26,12
25,-76,-100,26,63,-88,26,36,38,22,-19,30
42,-69,-111,14,77,-90,14,52,38,53,-5,41
52,-51,-103,0,78,-77,2,56,33,62,12,61
57,-47,-104,-4,80,-75,-3,55,38,65,31,65
56,-43,-99,-7,78,-71,-19,60,52,85,57,78
80,-16,-96,-32,88,-56,-49,61,67,110,89,114
97,1,-96,-49,97,-47,-69,58,94,145,132,134
129,34,-96,-81,112,-31,-93,48,115,192,183,183
181,51,-130,-116,155,-39,-126,36,127,231,227,223
199,69,-131,-134,165,-31,-168,25,144,270,273,252
263,117,-146,-190,205,-15,-204,33,170,309,323,297
328,144,-184,-236,255,-20,-233,42,186,344,369,318
331,157,-174,-244,252,-8,-242,39,197,367,384,346
323,161,-162,-242,242,0,-221,40,209,360,379,345
283,159,-123,-221,203,18,-186,56,221,348,364,309
240,138,-102,-189,171,18,-146,77,222,312,319,263
163,92,-71,-127,117,10,-84,98,206,255,263,216
86,50,-36,-67,61,7,-24,105,187,205,198,169
57,22,-34,-39,45,-6,6,95,152,135,142,100
28,2,-27,-15,27,-12,28,91,109,82,96,49
14,-13,-27,0,21,-19,44,83,78,58,61,30
-27,-29,-2,28,-12,-15,50,74,63,38,43,17
-65,-43,22,54,-43,-10,57,65,50,25,25,8
-68,-50,18,59,-42,-16,74,57,34,12,8,1
-73,-61,12,67,-42,-24,67,51,17,6,0,-6
-68,-59,9,63,-39,-25,48,46,12,1,-1,-14
-58,-55,3,56,-30,-26,45,41,18,-4,-5,-22
-54,-53,1,53,-27,-25,45,35,20,-10,-8,-23
-68,-50,19,59,-44,-15,45,30,24,-15,-10,-18
-68,-48,20,58,-44,-14,45,25,29,-10,-12,-12
-58,-42,16,50,-37,-13,45,25,29,-10,-17,-9
-49,-37,11,43,-30,-12,43,24,24,-9,-20,-4
-48,-34,13,41,-30,-10,38,20,18,-4,-23,0
-65,-28,37,46,-51,4,32,20,15,-7,-28,-7
-70,-27,43,48,-56,8,29,22,10,4,-30,-14
-76,-40,36,58,-56,-2,23,25,6,11,-30,-21
-79,-39,40,59,-60,1,21,25,1,6,-30,-25
-63,-34,29,48,-46,-2,25,25,-5,3,-30,-25
-76,-33,43,54,-60,5,35,24,-10,0,-30,-25
-78,-26,52,52,-65,13,55,21,-16,-5,-30,-25
-72,-41,30,56,-51,-6,55,18,-21,-15,-32,-25
-97,-50,47,73,-72,-2,50,16,-26,-23,-35,-25
-74,-40,35,57,-54,-2,49,12,-31,-33,-35,-25
-58,-35,23,46,-40,-6,45,10,-29,-40,-34,-25
-46,-27,19,36,-32,-3,44,8,-33,-41,-39,-25
-47,-22,25,34,-36,2,39,5,-36,-38,-45,-25
-66,-22,44,43,-54,11,41,5,-34,-45,-45,-25
-59,-31,28,45,-43,-1,38,1,-39,-56,-44,-25
-73,-41,33,57,-53,-4,34,0,-39,-55,-53,-34
-72,-40,32,56,-52,-4,36,0,-35,-54,-62,-41
-66,-39,28,52,-47,-5,31,-4,-33,-50,-59,-40
-64,-35,29,49,-46,-3,30,-9,-30,-50,-56,-40
-56,-35,22,45,-38,-7,30,-8,-27,-47,-54,-40
-69,-37,32,53,-50,-2,30,-1,-24,-45,-49,-40
-94,-45,49,69,-72,2,30,-7,-30,-45,-52,-41
-96,-49,47,72,-72,-1,31,-15,-30,-42,-54,-45
-88,-46,42,67,-65,-2,35,-15,-30,-39,-50,-45
-82,-43,39,62,-60,-2,35,-15,-30,-42,-50,-45
-75,-40,34,57,-55,-3,37,-15,-30,-58,-50,-45
-68,-38,31,53,-49,-3,40,-15,-30,-61,-50,-45
-62,-34,27,48,-44,-3,40,-14,-30,-59,-50,-45
-58,-34,24,45,-41,-5,36,-11,-31,-60,-54,-45
-42,-24,18,33,-30,-3,35,-9,-28,-60,-55,-45
-72,-37,35,54,-53,-1,35,-11,-35,-59,-55,-45
-102,-55,47,78,-74,-4,30,-9,-41,-55,-54,-45
-89,-44,44,66,-66,0,30,-14,-39,-55,-58,-47
-83,-41,43,62,-63,1,29,-29,-44,-53,-70,-50
-70,-31,39,51,-54,4,24,-30,-46,-50,-70,-53
-66,-25,40,45,-53,7,26,-30,-44,-50,-69,-55
-52,-16,36,34,-44,10,22,-30,-41,-59,-71,-59
-45,-14,31,29,-38,9,20,-30,-39,-66,-69,-60
-69,-43,26,55,-47,-8,20,-30,-34,-68,-72,-57
-63,-40,24,51,-43,-8,21,-25,-39,-70,-75,-54
-36,-21,15,28,-25,-3,20,-25,-47,-65,-75,-51
-39,-16,22,27,-30,3,19,-25,-44,-60,-77,-49
-59,-14,45,36,-51,15,15,-25,-41,-56,-80,-45
-61,-15,46,38,-53,16,15,-25,-39,-51,-80,-47
-60,-16,44,38,-52,14,34,-28,-34,-46,-76,-55
-65,-13,53,39,-59,20,42,-30,-37,-46,-75,-59
-74,-27,47,51,-61,10,39,-30,-42,-56,-75,-60
-82,-35,47,58,-65,6,41,-34,-40,-69,-71,-60
-32,-13,19,22,-25,3,40,-35,-35,-70,-69,-60
-2,-6,-3,4,1,-4,40,-34,-33,-70,-71,-60
-66,-17,49,41,-57,16,38,-30,-29,-70,-76,-60
-75,-26,48,50,-61,11,34,-30,-24,-70,-81,-59
-75,-24,51,50,-63,13,35,-29,-33,-69,-84,-56
-91,-25,65,58,-77,19,35,-25,-41,-64,-82,-53
-80,-25,56,53,-68,15,34,-25,-40,-59,-77,-51
-90,-26,65,58,-77,19,37,-22,-40,-54,-75,-47
-71,-17,54,44,-62,18,32,-20,-41,-50,-70,-45
-44,31,75,7,-60,52,52,-16,-32,-45,-66,-43
-25,51,76,-13,-51,63,73,-14,-13,-42,-64,-36
-36,66,102,-15,-69,84,65,-10,-9,-39,-58,-29
-36,108,145,-36,-91,126,54,-10,-10,-35,-52,-22
-23,107,130,-42,-77,118,21,-21,-9,-35,-48,-16
-5,98,103,-47,-54,100,-9,-39,-16,-27,-41,-10
13,68,55,-41,-21,61,-11,-50,-32,-38,-36,-16
-18,16,34,0,-26,25,-1,-49,-38,-48,-40,-22
-30,-18,12,24,-20,-3,2,-52,-41,-72,-63,-31
-59,-37,22,48,-40,-8,12,-47,-47,-97,-86,-57
-73,-42,31,57,-52,-5,2,-55,-49,-92,-84,-55
-67,-65,3,66,-34,-31,7,-44,-41,-99,-86,-61
-74,-54,20,64,-46,-17,11,-52,-32,-88,-87,-62
-76,-99,-23,88,-26,-61,35,-25,-33,-95,-101,-64
-134,-64,70,99,-102,3,163,70,23,-105,-135,-110
-139,3,142,68,-141,72,258,253,233,-32,-129,-121
58,206,148,-132,-45,177,209,419,611,429,186,44
402,402,0,-402,201,201,-171,131,517,714,580,375
505,81,-424,-293,464,-171,-363,-185,-54,222,402,428
314,-5,-320,-154,317,-162,-254,-330,-369,-144,77,228
136,-23,-159,-57,147,-91,-288,-400,-437,-187,-28,113
19,-190,-209,86,114,-199,-139,-196,-298,-182,-89,27
-32,-145,-112,89,40,-128,7,-83,-165,-136,-85,-24
-53,-138,-85,96,16,-111,28,-57,-138,-135,-86,-50
-31,-88,-58,60,14,-73,44,-29,-76,-104,-78,-51
0,-77,-77,39,38,-77,26,-33,-62,-93,-70,-43
-7,-79,-72,43,33,-76,19,-17,-45,-83,-66,-44
-3,-68,-65,36,31,-66,32,-23,-36,-71,-55,-36
-8,-73,-65,40,29,-68,58,-18,-36,-65,-59,-35
-5,-62,-57,33,26,-59,35,-16,-34,-56,-62,-31
-9,-64,-55,37,23,-59,23,-15,-37,-54,-56,-28
-2,-53,-51,27,25,-52,15,-13,-33,-48,-49,-26
18,-51,-69,17,44,-60,34,-10,-24,-44,-43,-21
2,-44,-45,21,24,-45,47,-10,-10,-40,-36,-21
1,-38,-40,19,21,-39,29,-8,-1,-33,-30,-16
-8,-34,-27,21,10,-30,22,-4,6,-23,-23,-10
11,-29,-40,9,25,-35,7,-6,12,-12,-13,0
65,-27,-92,-19,79,-60,-8,-1,19,-3,-6,7
66,-23,-88,-22,78,-55,-28,0,26,7,6,13
63,-21,-84,-20,74,-52,-48,0,32,22,31,39
75,-8,-84,-33,80,-46,-67,0,39,41,47,57
94,16,-78,-55,86,-31,-83,0,51,81,84,87
117,31,-86,-74,101,-27,-117,-1,64,116,123,116
158,52,-106,-105,132,-26,-147,-13,76,151,160,150
211,83,-129,-147,170,-23,-178,-25,86,185,205,187
277,112,-165,-194,221,-26,-226,-31,111,221,254,218
310,135,-175,-222,243,-20,-247,-29,138,268,314,269
318,152,-167,-235,242,-8,-274,-33,150,296,346,295
359,178,-181,-268,270,-2,-282,-37,177,327,369,314
324,182,-142,-253,233,20,-259,-12,183,326,376,316
268,169,-99,-218,183,35,-217,17,191,294,355,292
222,159,-63,-190,142,48,-154,43,209,263,309,243
149,130,-19,-139,84,55,-106,73,196,217,242,169
100,94,-6,-97,53,44,-58,84,161,171,184,113
52,57,4,-55,24,30,-9,78,122,130,136,69
25,35,10,-30,7,22,29,71,93,89,93,33
-13,26,39,-7,-26,32,43,64,62,57,62,15
-34,17,51,9,-43,34,37,51,38,38,34,-1
-27,11,38,8,-33,25,36,36,27,17,10,-22
-53,4,57,25,-55,30,32,26,14,1,11,-26
-65,-12,53,38,-59,20,30,24,10,0,7,-25
-68,-25,43,46,-55,9,32,21,8,-2,-9,-24
-56,-24,32,39,-44,4,39,18,5,-6,-20,-19
-39,-18,21,28,-30,1,45,16,2,-3,-22,-21
-61,-12,48,36,-54,18,38,13,0,0,-16,-16
-59,-8,51,33,-55,22,31,11,-3,3,-14,-24
-35,-1,34,18,-35,16,24,7,-9,5,-10,-38
-29,4,32,12,-31,18,16,5,-12,9,-5,-32
-27,1,28,13,-28,14,8,1,-18,10,-8,-31
-39,-9,30,24,-34,10,7,1,-19,7,-13,-27
-38,-13,24,25,-31,5,17,-7,-15,2,-10,-24
-33,-10,23,21,-28,6,28,-18,-15,0,-10,-28
-44,-6,38,25,-41,16,35,-13,-15,-5,-22,-30
-35,-2,32,18,-33,15,39,-6,-19,-8,-27,-33
-45,1,46,22,-46,23,40,0,-26,-13,-24,-36
-44,7,51,18,-48,29,40,8,-32,-33,-26,-39
-54,-10,44,32,-49,16,40,14,-40,-37,-25,-41
-79,-32,47,55,-63,7,40,20,-44,-34,-25,-44
-65,-29,36,47,-50,3,40,29,-40,-36,-27,-45
-63,-30,33,47,-48,1,40,34,-41,-35,-32,-47
-35,-30,5,32,-20,-12,40,29,-37,-35,-45,-53
-37,-30,6,33,-22,-12,40,25,-35,-38,-45,-55
-68,-29,39,48,-53,5,40,23,-34,-34,-40,-55
-65,-22,42,43,-53,10,40,18,-39,-42,-39,-54
-70,-18,53,44,-61,17,40,15,-55,-60,-35,-51
-76,-12,64,44,-70,25,43,18,-52,-58,-36,-48
-66,-6,60,36,-63,27,45,21,-46,-54,-45,-45
-53,-1,52,26,-52,25,45,24,-43,-51,-50,-43
-51,-4,47,27,-49,21,45,27,-37,-45,-50,-39
-51,-13,38,32,-44,12,45,30,-34,-46,-50,-43
-54,-19,35,36,-44,8,44,29,-30,-50,-50,-46
-53,-25,28,39,-40,1,41,23,-30,-50,-50,-45
-47,-25,22,36,-34,-1,39,16,-30,-46,-46,-52
-56,-25,31,40,-43,3,41,9,-30,-45,-44,-55
-69,-26,43,47,-55,9,39,2,-30,-44,-45,-55
-77,-23,54,50,-65,15,40,-4,-26,-41,-45,-55
-87,-37,49,62,-68,6,42,-2,-23,-38,-46,-55
-89,-47,43,68,-66,-2,45,5,-18,-43,-43,-65
-80,-41,39,60,-60,0,45,6,-17,-35,-40,-67
-68,-38,29,53,-49,-4,37,14,-10,-38,-39,-63
-80,-35,45,58,-62,5,49,29,-13,-61,-36,-61
-105,-31,74,68,-89,21,50,29,-33,-59,-34,-57
-94,-30,64,62,-79,16,38,22,-36,-56,-43,-54
-71,-29,42,50,-56,6,41,18,-35,-54,-55,-58
-61,-26,35,43,-47,4,40,11,-33,-50,-55,-60
-58,-24,34,41,-46,5,39,5,-29,-49,-56,-60
-78,-27,52,52,-65,12,43,13,-30,-45,-60,-64
-83,-30,53,56,-68,11,45,22,-34,-45,-60,-66
-78,-30,48,53,-63,9,42,16,-45,-45,-56,-64
-75,-32,43,53,-58,5,38,11,-45,-45,-42,-61
-76,-36,40,56,-57,2,35,8,-46,-44,-28,-58
-68,-34,34,50,-50,0,29,2,-50,-52,-31,-56
-59,-40,18,49,-38,-11,33,1,-47,-58,-35,-52
-89,-48,41,68,-65,-4,35,7,-44,-53,-35,-50
-98,-45,53,71,-75,4,35,14,-41,-52,-35,-47
-89,-40,49,65,-69,4,35,15,-38,-48,-35,-45
-87,-38,49,63,-68,5,35,15,-35,-45,-35,-45
-86,-33,53,59,-69,9,46,15,-34,-44,-35,-42
-64,-31,33,47,-48,1,32,15,-29,-40,-45,-39
-63,-24,39,43,-50,7,47,15,-24,-40,-46,-42
-72,-7,65,40,-69,29,78,16,-20,-40,-38,-50
-23,28,51,-3,-38,40,82,25,-15,-41,-33,-47
-19,65,84,-23,-52,74,84,39,-12,-33,-27,-41
-40,75,114,-18,-77,94,71,40,-8,-21,-23,-38
-39,99,138,-31,-88,118,65,36,-5,-19,-17,-32
-41,102,143,-31,-92,122,26,28,-2,-21,-14,-28
-36,90,126,-27,-81,107,-10,8,0,-19,-8,-25
-13,90,103,-39,-58,96,-8,-4,-11,-21,-5,-21
-14,47,61,-16,-38,54,3,-5,-19,-19,-14,-19
-44,13,57,15,-51,35,5,-15,-30,-26,-25,-13
-65,-26,39,45,-52,7,17,-17,-40,-44,-38,-23
-81,-38,43,59,-62,3,33,-26,-42,-48,-48,-42
-77,-50,26,63,-51,-12,33,-21,-41,-55,-63,-51
-85,-41,45,62,-64,2,31,-8,-30,-40,-65,-56
-71,-45,25,58,-48,-10,18,-4,-38,-50,-78,-69
-114,-63,50,88,-82,-6,109,75,11,-35,-92,-102
-133,9,143,62,-138,76,227,230,183,2,-100,-132
-35,83,118,-24,-76,100,288,486,560,328,84,-53
231,319,89,-275,71,204,10,321,628,729,488,245
509,193,-316,-351,412,-61,-347,-130,66,356,436,405
364,-49,-413,-157,388,-231,-258,-246,-287,-74,89,246
144,41,-103,-92,124,-31,-237,-357,-351,-129,-27,101
54,-116,-170,32,112,-143,-200,-283,-327,-172,-92,35
-14,-183,-169,99,78,-176,-35,-77,-184,-123,-108,-13
-27,-133,-106,80,40,-119,14,-44,-135,-109,-99,-46
-31,-121,-90,76,30,-105,45,-11,-89,-89,-101,-52
-10,-83,-73,47,32,-78,33,-17,-56,-71,-92,-45
-23,-96,-74,60,25,-85,28,-14,-40,-63,-93,-45
-25,-84,-59,55,17,-71,21,-9,-26,-49,-86,-40
-29,-87,-58,58,15,-72,11,-12,-26,-49,-82,-40
-35,-84,-48,60,7,-65,8,-7,-18,-37,-76,-40
-34,-76,-42,55,4,-58,22,-5,-16,-34,-71,-40
-29,-69,-39,49,5,-54,34,3,-10,-26,-65,-40
-36,-60,-24,48,-6,-41,23,5,-7,-24,-61,-40
-32,-56,-24,44,-4,-40,23,10,-2,-21,-54,-38
-16,-50,-33,33,9,-41,17,15,1,-18,-65,-51
-20,-44,-24,33,2,-34,11,11,4,-11,-60,-40
23,-39,-61,8,42,-50,4,4,9,0,-40,-13
51,-33,-85,-9,68,-59,-3,-3,11,9,-34,-8
47,-30,-78,-9,62,-54,-8,-9,19,20,-1,1
54,-27,-81,-14,68,-53,-30,-16,27,30,32,8
61,-23,-84,-19,73,-53,-61,-20,35,40,48,19
62,-21,-83,-20,73,-52,-77,-19,43,55,79,48
80,-9,-89,-35,84,-49,-95,-21,50,91,123,87
107,13,-94,-60,100,-40,-130,-17,66,128,157,123
174,44,-130,-109,152,-43,-172,-35,80,156,197,159
235,65,-170,-150,202,-52,-212,-57,82,186,243,189
265,94,-171,-179,218,-38,-253,-63,94,212,279,221
322,115,-207,-218,264,-46,-290,-77,95,241,312,260
317,119,-198,-217,257,-40,-300,-70,109,255,339,270
315,134,-181,-224,248,-23,-277,-58,130,249,340,256
276,126,-150,-200,213,-12,-242,-32,140,245,314,239
195,114,-81,-155,138,17,-194,9,177,236,286,209
169,105,-64,-136,116,20,-130,51,187,199,241,176
93,80,-13,-86,53,33,-70,77,180,154,186,132
38,53,16,-46,11,34,-32,69,166,115,133,66
3,22,20,-13,-9,21,6,63,127,79,86,27
-42,8,50,16,-46,28,37,55,94,46,44,10
-54,-16,38,35,-46,11,41,47,70,14,13,-4
-93,-40,53,66,-73,6,45,41,64,2,3,-14
-100,-39,61,70,-81,10,54,33,58,-2,-5,-33
-75,-40,35,57,-55,-3,52,25,50,-8,-13,-41
-91,-40,51,65,-71,6,46,17,44,-13,-27,-40
-83,-40,43,61,-63,1,41,9,39,-19,-41,-40
-61,-39,22,50,-41,-9,35,2,37,-24,-39,-40
-41,-33,8,36,-24,-12,30,0,33,-25,-41,-36
-42,-26,16,34,-29,-5,25,0,30,-25,-45,-35
-73,-19,54,46,-63,17,25,0,27,-25,-45,-35
-60,-13,47,36,-54,17,25,1,22,-25,-45,-31
-44,-5,39,24,-42,17,26,-1,19,-26,-45,-29
-37,-16,21,26,-29,2,24,-4,16,-30,-46,-32
-64,-28,36,46,-50,4,29,-8,11,-33,-53,-35
-94,-24,70,58,-82,23,32,-16,9,-37,-56,-35
-83,-21,62,52,-73,20,30,-23,3,-40,-54,-35
-85,-19,66,52,-76,23,30,-28,-3,-43,-56,-35
-78,-14,64,46,-71,25,26,-26,-8,-46,-55,-35
-83,-17,66,50,-74,25,26,-21,-14,-49,-56,-36
-98,-27,71,62,-84,21,23,-19,-18,-52,-60,-42
-94,-25,69,59,-81,22,34,-15,-24,-55,-59,-49
-93,-20,73,57,-83,26,48,-10,-25,-56,-68,-46
-93,-18,75,55,-84,28,41,-12,-26,-60,-76,-45
-89,-13,75,50,-81,31,40,-16,-29,-60,-75,-45
-80,-10,70,45,-75,30,37,-14,-31,-60,-73,-45
-70,-10,60,40,-65,25,34,-11,-28,-60,-70,-45
-63,-14,49,38,-56,17,39,-9,-25,-59,-70,-46
-69,-24,46,46,-57,11,40,-11,-26,-69,-74,-60
-72,-29,43,50,-58,7,40,-8,-23,-80,-81,-66
-88,-23,65,55,-76,21,40,-21,-38,-84,-87,-65
-105,-40,65,72,-85,13,40,-38,-52,-81,-90,-70
-105,-51,54,77,-79,2,39,-33,-49,-80,-90,-70
-107,-39,68,73,-88,14,34,-31,-50,-79,-90,-70
-78,-35,43,56,-60,4,36,-28,-50,-75,-90,-70
-67,-27,40,47,-53,6,32,-24,-50,-75,-90,-70
-66,-20,45,43,-55,12,30,-28,-54,-77,-86,-70
-66,-30,36,47,-51,3,30,-30,-55,-81,-85,-69
-70,-36,34,53,-51,-1,27,-33,-55,-84,-85,-72
-64,-35,29,49,-46,-3,24,-36,-60,-87,-85,-75
-58,-35,23,46,-40,-6,25,-39,-60,-90,-85,-76
-48,-36,12,41,-29,-12,26,-40,-61,-92,-86,-79
-76,-41,36,58,-56,-2,22,-35,-65,-96,-95,-81
-61,-40,21,51,-41,-9,36,-35,-64,-92,-97,-76
-61,-37,24,49,-42,-6,45,-35,-68,-89,-94,-75
-92,-34,58,62,-74,12,36,-35,-70,-90,-95,-75
-66,-32,34,48,-50,1,33,-35,-70,-90,-90,-70
-81,-27,53,54,-67,13,26,-32,-70,-90,-90,-70
-104,-32,72,68,-87,20,20,-30,-70,-90,-91,-69
-95,-45,49,70,-71,2,31,-30,-70,-85,-95,-64
-89,-46,43,67,-66,-1,41,-26,-70,-85,-100,-61
-87,-42,45,64,-66,1,39,-25,-70,-84,-97,-58
-84,-35,50,60,-67,7,43,-25,-69,-80,-92,-53
-79,-27,52,53,-65,13,45,-19,-60,-81,-90,-50
-78,-22,57,50,-67,17,46,-14,-50,-77,-85,-50
-57,3,60,27,-59,31,50,-7,-40,-72,-82,-50
-42,47,90,-3,-66,68,63,-2,-37,-65,-78,-50
-53,77,129,-12,-91,103,69,4,-41,-61,-68,-50
-40,103,143,-31,-92,123,52,10,-43,-64,-55,-49
-35,119,153,-42,-94,135,37,-8,-47,-65,-53,-44
-32,106,139,-37,-86,122,28,-33,-50,-65,-56,-41
-2,97,99,-48,-51,98,20,-46,-51,-64,-54,-37
4,60,56,-32,-26,58,19,-41,-58,-66,-56,-34
-28,16,44,6,-36,30,15,-33,-64,-67,-55,-29
-51,-23,28,36,-39,2,16,-29,-72,-82,-65,-43
-72,-35,37,54,-54,1,40,-18,-73,-69,-70,-45
-72,-49,23,60,-48,-12,36,-21,-73,-76,-74,-40
-77,-52,25,64,-51,-13,46,-30,-58,-97,-96,-74
-63,-40,24,51,-43,-8,33,-39,-55,-101,-101,-72
-82,-91,-9,86,-37,-50,82,21,-40,-103,-111,-82
-163,-22,141,92,-152,59,236,138,60,-86,-125,-112
-107,63,170,22,-139,116,324,378,370,104,-37,-84
144,327,183,-236,-20,254,149,407,685,656,385,164
486,352,-134,-419,310,109,-270,17,340,653,618,460
473,3,-470,-238,472,-233,-308,-214,-208,65,275,370
204,13,-191,-108,197,-89,-245,-362,-404,-155,29,188
91,-76,-167,-7,129,-121,-266,-339,-408,-193,-44,95
25,-165,-190,70,107,-177,-67,-109,-231,-160,-94,7
-14,-105,-92,60,39,-98,24,-51,-136,-127,-83,-8
-20,-99,-79,60,29,-89,52,-23,-102,-117,-84,-29
-22,-60,-37,41,8,-48,49,-15,-63,-73,-74,-39
-23,-73,-50,48,14,-61,17,-14,-57,-72,-71,-46
-35,-61,-26,48,-4,-43,29,-3,-41,-61,-65,-50
-34,-59,-25,47,-4,-42,46,-3,-40,-61,-60,-42
-19,-58,-38,39,10,-48,52,7,-30,-55,-55,-38
-25,-52,-27,39,1,-39,43,8,-25,-50,-50,-32
-20,-60,-40,40,11,-50,43,14,-18,-47,-47,-27
-35,-60,-25,48,-4,-42,36,16,-12,-39,-41,-21
-34,-40,-6,37,-14,-22,35,20,-7,-34,-37,-25
6,-28,-34,11,20,-31,28,25,0,-22,-29,-25
-2,-29,-28,15,13,-28,17,22,5,-10,-22,-18
10,-24,-33,7,22,-28,8,20,10,0,-16,-15
19,-22,-41,2,30,-31,-3,20,19,10,-7,-10
22,-20,-42,-1,32,-31,-12,16,33,25,1,-7
49,-14,-63,-17,56,-38,-19,15,35,37,17,7
57,-2,-59,-28,58,-30,-31,15,45,58,43,36
93,13,-80,-53,86,-34,-52,8,63,85,71,60
130,36,-94,-83,111,-29,-73,0,69,117,110,85
141,62,-79,-101,110,-8,-106,-8,85,161,157,126
180,77,-103,-128,141,-13,-154,-16,108,192,197,156
248,110,-138,-179,193,-14,-188,-23,123,235,246,200
295,137,-158,-215,226,-10,-225,-32,139,278,291,246
341,150,-191,-245,266,-20,-267,-29,163,314,335,279
371,162,-209,-266,290,-23,-284,-16,177,341,369,306
342,168,-175,-255,258,-3,-290,-9,193,343,370,300
314,176,-138,-245,226,18,-261,8,208,339,361,290
261,159,-102,-209,181,28,-201,43,198,310,318,248
178,119,-59,-148,118,30,-134,69,189,259,252,186
106,84,-21,-94,63,31,-74,80,182,211,198,136
62,61,-1,-61,31,30,-53,75,167,159,144,84
31,35,4,-33,13,20,-13,65,137,111,97,36
-5,12,17,-4,-11,14,32,58,94,69,54,2
-17,-1,15,9,-16,7,29,50,59,42,19,-28
-38,-15,23,26,-30,4,41,43,41,22,-3,-46
-63,-25,38,43,-50,6,50,36,28,-6,-20,-44
-67,-36,31,51,-49,-2,40,29,19,-24,-34,-45
-67,-37,30,52,-48,-3,35,22,15,-25,-37,-45
-56,-29,27,42,-41,-1,27,12,10,-25,-35,-45
-49,-26,23,37,-36,-1,21,17,7,-25,-35,-44
-43,-19,24,31,-33,2,25,26,1,-25,-31,-38
-22,-14,8,18,-15,-3,33,19,2,-24,-29,-33
-21,-9,13,15,-17,2,30,16,10,-20,-32,-27
-34,-3,31,18,-32,14,26,11,14,-21,-35,-22
-28,2,31,13,-30,16,23,6,10,-17,-38,-15
-19,9,29,5,-24,19,18,3,2,-15,-40,-27
-21,6,27,7,-24,16,15,-2,-4,-15,-44,-37
-23,0,24,11,-23,12,16,-5,-11,-19,-45,-34
-32,-6,26,19,-29,10,14,-8,-17,-31,-49,-36
-55,-11,45,33,-50,17,20,-13,-23,-37,-50,-35
-72,-19,53,45,-62,17,31,-15,-25,-48,-50,-35
-91,-38,53,64,-72,7,28,-10,-28,-54,-50,-35
-98,-41,58,69,-78,8,25,-10,-31,-50,-51,-35
-99,-40,60,69,-79,10,23,-10,-34,-50,-55,-35
-99,-40,59,70,-79,9,19,-10,-36,-50,-58,-35
-84,-40,44,62,-64,2,23,-11,-34,-50,-62,-35
-66,-39,27,52,-47,-5,32,-7,-36,-50,-65,-36
-59,-35,24,47,-41,-5,35,-5,-34,-54,-65,-40
-58,-33,26,45,-42,-3,35,-5,-39,-61,-65,-40
-54,-29,25,41,-39,-2,34,-1,-50,-66,-65,-36
-53,-27,25,40,-38,-1,31,0,-50,-70,-65,-35
-47,-23,25,34,-36,1,28,0,-50,-70,-65,-35
-59,-34,25,46,-42,-5,26,-5,-50,-70,-66,-35
-78,-47,32,62,-54,-7,22,-10,-48,-67,-70,-35
-75,-44,31,60,-53,-6,20,-13,-44,-60,-69,-36
-74,-45,29,60,-51,-7,20,-19,-46,-57,-72,-45
-76,-45,31,60,-53,-7,20,-18,-55,-51,-75,-51
-73,-45,28,59,-50,-8,20,-13,-55,-49,-75,-50
-80,-42,39,61,-59,-1,20,-10,-51,-42,-75,-50
-82,-36,46,59,-64,5,20,-7,-49,-41,-75,-49
-76,-31,45,53,-60,7,20,-2,-46,-65,-75,-51
-71,-28,43,50,-57,7,30,-1,-45,-72,-75,-48
-60,-20,39,40,-49,9,31,-4,-51,-69,-75,-45
-65,-25,40,45,-53,8,27,-7,-55,-71,-74,-45
-80,-37,43,58,-61,3,25,-9,-55,-69,-70,-45
-83,-35,48,59,-65,6,21,-13,-55,-70,-70,-45
-83,-35,49,59,-66,7,20,-14,-55,-70,-70,-44
-77,-32,45,54,-61,6,14,-17,-62,-70,-70,-55
-71,-29,42,50,-57,7,30,-33,-58,-70,-70,-61
-72,-32,40,52,-56,4,41,-36,-56,-70,-70,-59
-76,-40,36,58,-56,-2,31,-34,-65,-70,-70,-60
-72,-37,34,54,-53,-1,28,-35,-65,-70,-70,-60
-70,-31,40,50,-55,4,22,-35,-65,-70,-70,-60
-69,-26,43,48,-56,8,14,-34,-65,-70,-70,-60
-57,-19,37,38,-47,9,27,-29,-65,-70,-71,-60
-62,-16,47,39,-54,15,34,-31,-64,-70,-75,-60
-86,-25,60,55,-73,17,21,-27,-60,-69,-75,-60
-84,-32,52,58,-68,10,20,-25,-56,-64,-75,-60
-64,-15,49,39,-56,17,21,-25,-53,-62,-75,-61
-73,-33,40,53,-56,3,19,-22,-49,-58,-75,-65
-97,-53,44,75,-71,-4,21,-19,-43,-55,-75,-65
-96,-36,61,66,-78,12,19,-16,-65,-67,-75,-67
-85,-29,57,57,-71,14,24,-13,-76,-71,-75,-71
-73,-19,53,46,-63,17,25,-11,-66,-69,-75,-70
-61,-11,49,36,-55,19,24,-8,-63,-71,-76,-67
-46,1,47,22,-46,24,26,-3,-56,-69,-74,-64
-23,14,37,4,-31,26,23,4,-51,-70,-69,-66
-27,35,62,-4,-45,48,47,7,-46,-63,-65,-65
-24,75,99,-26,-62,87,74,19,-45,-55,-60,-65
-11,94,105,-41,-59,99,63,24,-45,-48,-56,-64
-16,112,128,-48,-72,120,25,10,-45,-38,-51,-39
-5,126,131,-61,-68,128,-17,2,-45,-38,-50,-28
6,111,104,-58,-49,107,-19,-4,-44,-39,-49,-31
4,70,66,-37,-32,68,-15,-11,-46,-45,-46,-29
-21,29,50,-4,-36,40,-8,-17,-44,-43,-45,-31
-53,-2,51,27,-52,24,-8,-25,-46,-53,-46,-29
-61,-23,38,42,-49,7,8,-20,-44,-62,-53,-42
-79,-35,43,57,-61,4,32,-21,-54,-69,-58,-49
-89,-67,22,78,-55,-22,40,-20,-57,-79,-74,-63
-64,-29,35,47,-49,3,42,-17,-53,-66,-64,-55
-79,-60,20,69,-49,-20,43,18,-47,-84,-80,-70
-151,-45,106,97,-128,30,145,102,38,-66,-105,-104
-156,34,190,61,-173,111,293,292,254,-5,-86,-91
16,208,191,-112,-88,199,269,483,646,425,193,40
390,403,14,-397,188,208,-142,218,592,736,593,368
555,108,-447,-332,501,-169,-372,-154,-20,241,429,436
350,-4,-354,-172,352,-179,-253,-332,-347,-134,91,235
159,0,-158,-79,159,-79,-275,-415,-391,-180,-12,114
20,-177,-198,79,109,-187,-149,-202,-283,-203,-75,25
-35,-143,-108,89,37,-126,8,-74,-141,-143,-74,-14
-25,-113,-88,70,32,-101,40,-65,-111,-128,-83,-41
-34,-67,-32,51,-1,-49,63,-8,-63,-112,-87,-50
-16,-44,-29,30,7,-36,48,-8,-41,-90,-83,-36
-12,-38,-26,25,7,-31,53,2,-32,-83,-82,-29
-44,-55,-11,50,-16,-33,45,1,-30,-80,-72,-23
-69,-82,-14,76,-27,-48,45,7,-27,-74,-70,-26
-60,-63,-3,62,-28,-33,42,10,-21,-64,-61,-25
-35,-68,-33,52,0,-50,35,13,-21,-58,-53,-25
-16,-58,-42,37,13,-50,32,21,-12,-49,-42,-25
-25,-56,-31,41,3,-43,27,24,-4,-43,-33,-19
-35,-51,-17,43,-9,-34,23,31,5,-32,-23,-16
-41,-44,-3,42,-19,-23,18,36,14,-23,-15,-11
-10,-38,-28,24,10,-33,11,39,25,-15,-10,-7
23,-30,-53,4,38,-42,-1,34,38,-6,-2,-1
26,-25,-51,0,39,-37,-8,28,45,8,5,17
52,-15,-67,-18,60,-41,-31,25,46,22,14,26
71,-5,-76,-32,73,-40,-35,20,51,32,30,46
81,5,-75,-43,78,-35,-43,16,51,53,55,70
92,18,-74,-54,82,-28,-74,11,59,80,82,84
119,36,-83,-78,101,-23,-86,5,75,114,117,121
163,56,-107,-109,134,-25,-129,0,86,162,162,160
211,81,-130,-146,170,-24,-171,-6,100,204,210,190
267,99,-168,-183,218,-34,-199,-12,110,244,256,234
325,124,-201,-224,262,-38,-247,-14,127,282,301,282
359,159,-200,-259,279,-20,-285,-9,143,311,352,311
363,161,-202,-261,282,-20,-288,-11,165,325,373,321
343,156,-186,-249,265,-15,-253,1,186,319,359,317
289,158,-131,-223,210,14,-215,34,201,312,335,287
226,140,-86,-182,156,26,-177,63,209,284,293,242
153,117,-36,-135,94,41,-112,100,197,231,233,197
108,94,-14,-101,61,40,-46,113,182,190,172,138
46,56,10,-51,18,32,-4,98,146,146,124,91
-28,34,62,-4,-45,48,21,88,104,105,85,60
-27,22,49,2,-38,35,30,76,67,65,57,25
-33,3,36,15,-35,19,49,65,49,32,37,3
-50,-7,43,29,-46,17,56,52,45,19,9,-21
-56,-18,38,37,-47,9,47,44,36,5,-10,-37
-64,-22,42,43,-53,10,45,39,30,-1,-15,-34
-58,-20,38,39,-48,9,39,33,21,0,-20,-35
-57,-17,40,36,-48,12,36,29,21,0,-25,-35
-45,-14,31,29,-37,8,31,20,18,0,-32,-35
-46,-11,35,28,-40,12,25,28,27,0,-34,-39
-65,-10,56,37,-60,23,20,42,39,-3,-30,-40
-55,-11,44,32,-49,17,14,28,27,-8,-31,-40
-40,-9,31,25,-36,11,8,18,17,-11,-27,-45
-39,-12,28,25,-34,8,6,14,8,-14,-25,-45
-22,-2,20,12,-21,9,22,10,2,-19,-24,-46
-13,4,18,4,-16,11,31,7,-2,-19,-32,-53
-13,-5,8,9,-10,1,29,2,-7,-16,-44,-59
-19,-11,8,14,-13,-1,33,-1,-11,-13,-47,-60
-50,-19,31,34,-40,6,35,-4,-16,-29,-52,-60
-60,-26,34,43,-46,3,35,-7,-19,-42,-55,-60
-57,-32,25,44,-41,-4,31,-10,-20,-39,-57,-60
-58,-36,22,46,-39,-7,30,-13,-20,-43,-60,-61
-52,-38,14,45,-33,-12,30,-15,-20,-45,-63,-65
-52,-41,11,46,-32,-15,30,-15,-19,-45,-65,-65
-59,-44,15,51,-36,-15,30,-15,-23,-39,-68,-65
-65,-45,20,55,-42,-12,31,-15,-32,-51,-71,-65
-68,-45,24,56,-46,-11,35,-15,-36,-62,-70,-65
-73,-45,29,59,-51,-8,35,-15,-35,-59,-70,-65
-78,-45,33,61,-55,-6,35,-15,-35,-61,-70,-65
-80,-45,35,62,-57,-5,35,-20,-35,-60,-70,-65
-80,-45,35,62,-57,-5,35,-20,-35,-60,-70,-66
-78,-43,35,60,-56,-4,35,-20,-41,-60,-70,-70
-72,-37,35,54,-53,-1,36,-20,-45,-60,-70,-70
-69,-35,35,51,-52,0,45,-20,-45,-60,-70,-70
-63,-27,36,45,-49,4,47,-18,-45,-60,-70,-70
-78,-44,34,60,-55,-5,42,-15,-45,-59,-73,-70
-106,-62,44,84,-75,-9,39,-15,-45,-63,-76,-70
-109,-59,49,84,-79,-5,36,-15,-45,-65,-79,-70
-100,-61,40,80,-70,-10,31,-15,-49,-66,-82,-70
-95,-60,35,77,-65,-12,31,-15,-50,-70,-84,-70
-87,-60,27,74,-57,-17,36,-19,-50,-70,-87,-70
-78,-56,21,67,-49,-17,40,-20,-50,-74,-90,-71
-71,-55,16,63,-43,-19,45,-20,-49,-75,-90,-75
-70,-54,15,62,-42,-19,42,-20,-53,-75,-90,-75
-84,-51,33,67,-58,-9,39,-19,-55,-75,-90,-75
-81,-49,32,65,-57,-8,40,-23,-55,-75,-90,-75
-76,-51,26,63,-51,-12,40,-25,-55,-72,-86,-75
-89,-67,22,78,-55,-23,41,-25,-55,-70,-85,-72
-80,-66,14,72,-46,-26,38,-25,-54,-70,-85,-69
-68,-56,12,62,-40,-22,36,-25,-50,-67,-80,-66
-56,-54,2,54,-28,-26,34,-24,-47,-64,-80,-63
-66,-46,20,55,-43,-13,32,-21,-43,-66,-79,-60
-79,-42,36,60,-57,-3,27,-18,-40,-71,-75,-58
-67,-35,32,51,-49,-1,42,-16,-34,-72,-75,-55
-59,-31,28,45,-43,-2,60,-12,-41,-68,-75,-55
-45,-20,25,32,-35,3,61,-10,-49,-66,-75,-53
-30,-9,20,20,-25,5,59,-6,-40,-62,-75,-50
-25,-1,24,13,-24,11,63,6,-31,-60,-71,-50
-54,41,95,6,-74,68,90,25,-19,-58,-64,-46
-56,67,123,-5,-90,94,94,20,-18,-53,-57,-39
-23,105,128,-41,-76,116,52,-3,-21,-50,-51,-33
-14,128,142,-57,-78,135,11,-19,-19,-47,-43,-25
-27,96,123,-35,-75,110,21,-34,-20,-42,-40,-19
-40,69,109,-15,-74,88,32,-47,-22,-40,-39,-14
-40,17,57,12,-49,37,29,-46,-29,-46,-41,-14
-56,-19,37,37,-46,9,26,-43,-57,-64,-56,-39
-63,-49,13,56,-38,-18,23,-39,-67,-84,-74,-60
-73,-51,23,62,-48,-14,21,-36,-63,-80,-83,-65
-96,-74,21,85,-58,-26,18,-33,-67,-90,-95,-72
-100,-72,27,86,-63,-22,50,-26,-62,-78,-97,-80
-78,-60,19,69,-48,-20,42,-20,-69,-81,-98,-80
-110,-89,21,99,-65,-34,111,34,-6,-77,-115,-100
-183,-23,160,102,-171,69,245,176,143,-50,-132,-129
-104,63,167,20,-136,115,316,430,505,242,24,-71
220,329,110,-275,55,219,64,321,665,720,460,217
488,225,-262,-356,375,-19,-322,-103,154,452,502,427
348,-64,-412,-142,380,-238,-280,-258,-264,-54,132,282
142,20,-122,-81,132,-51,-232,-357,-378,-165,-28,125
52,-105,-156,26,104,-130,-217,-301,-367,-209,-88,41
-38,-180,-143,109,52,-161,-54,-121,-208,-149,-98,-26
-43,-130,-86,87,21,-108,-2,-84,-146,-126,-87,-51
-42,-98,-56,70,7,-77,8,-37,-105,-107,-91,-58
-41,-65,-24,54,-8,-44,19,-9,-70,-78,-80,-49
-33,-77,-44,56,6,-61,23,-4,-55,-77,-82,-49
-30,-57,-27,44,-1,-42,28,1,-39,-66,-75,-43
-16,-59,-43,38,14,-51,32,2,-40,-69,-73,-40
-39,-49,-10,44,-15,-29,47,9,-31,-59,-69,-37
-45,-45,0,45,-22,-23,59,10,-27,-56,-66,-32
-23,-46,-23,34,1,-34,40,16,-21,-49,-62,-30
-13,-43,-30,28,9,-36,25,23,-16,-44,-59,-25
-3,-41,-38,22,18,-39,23,23,-9,-38,-53,-22
-7,-39,-32,24,13,-35,13,19,-2,-31,-46,-18
-1,-38,-37,20,18,-38,9,20,4,-23,-38,-13
2,-31,-33,15,17,-31,-2,16,11,-4,-23,-6
13,-26,-39,7,26,-32,-12,15,14,4,-10,1
37,-20,-57,-8,47,-39,-25,15,16,15,5,7
50,-9,-59,-21,55,-34,-35,10,14,32,18,17
93,10,-83,-51,88,-36,-51,5,21,52,37,36
119,26,-93,-72,106,-34,-77,1,33,81,69,58
129,42,-88,-85,108,-23,-96,-4,44,111,103,85
156,56,-99,-106,127,-21,-133,-8,57,146,139,120
195,70,-125,-132,159,-27,-170,-14,69,187,185,154
243,93,-149,-168,196,-28,-211,-31,84,222,234,191
265,117,-148,-191,206,-16,-265,-44,97,259,285,237
299,136,-163,-217,230,-13,-293,-47,116,302,330,281
341,153,-189,-247,265,-18,-288,-43,122,317,350,305
351,180,-171,-265,261,4,-277,-40,135,316,359,298
319,187,-131,-253,225,28,-262,-19,157,311,343,278
240,157,-83,-198,161,36,-205,17,169,293,306,239
167,122,-45,-144,106,39,-150,53,172,251,253,188
81,89,8,-85,36,48,-93,80,156,186,189,136
53,63,11,-58,21,36,-42,84,139,146,145,84
20,48,28,-35,-4,38,-2,75,124,100,93,40
-47,34,81,7,-64,57,34,69,95,52,48,3
-35,16,52,9,-44,34,38,62,56,37,24,-16
-51,3,53,24,-52,28,48,55,34,23,7,-32
-51,-2,50,26,-50,24,44,47,22,12,-2,-44
-60,-5,55,32,-57,25,34,41,11,4,-13,-47
-75,-8,66,41,-70,29,29,34,9,-5,-21,-52
-72,-13,59,42,-65,23,19,28,6,-13,-35,-52
-90,-15,75,52,-82,29,17,23,3,-22,-42,-46
-78,-10,68,44,-73,29,23,17,1,-21,-40,-42
-81,-10,70,45,-76,30,33,11,-2,-20,-39,-37
-69,-9,60,39,-64,25,32,6,-4,-19,-35,-33
-43,-5,38,24,-40,16,29,8,-8,-15,-35,-28
-44,-5,39,24,-41,17,26,17,-10,-15,-30,-25
-58,-7,50,32,-54,21,23,19,-14,-15,-30,-23
-59,-12,48,35,-53,18,21,15,-15,-15,-30,-19
-57,-15,42,36,-49,13,19,15,-11,-15,-30,-17
-62,-20,42,41,-52,11,14,13,-1,-15,-30,-13
-52,-20,33,36,-43,6,9,10,4,-14,-33,-23
-61,-21,40,41,-50,9,6,10,-2,-33,-54,-40
-65,-25,40,45,-52,7,-1,7,-8,-47,-62,-40
-73,-25,48,48,-60,11,13,2,-13,-44,-59,-40
-65,-23,42,44,-53,10,39,0,-19,-45,-58,-38
-19,-19,-1,19,-9,-10,40,-5,-24,-55,-54,-34
-35,-20,14,27,-24,-3,35,-8,-29,-61,-55,-36
-54,-20,35,37,-45,8,34,-12,-30,-59,-58,-38
-48,-20,27,34,-38,4,27,-15,-30,-64,-61,-42
-50,-19,30,35,-40,5,27,-15,-35,-66,-60,-44
-54,-15,39,35,-46,11,19,-17,-35,-64,-61,-49
-54,-15,40,34,-46,12,19,-20,-34,-61,-70,-49
-67,-15,52,40,-59,18,42,-20,-36,-59,-72,-44
-90,-16,74,53,-81,29,47,-16,-33,-61,-67,-46
-82,-14,68,48,-74,27,41,-15,-40,-60,-64,-42
-88,-22,66,55,-76,21,41,-15,-51,-60,-61,-40
-97,-31,66,64,-81,17,36,-15,-50,-62,-55,-40
-90,-30,60,60,-75,15,35,-15,-49,-67,-58,-45
-84,-29,55,56,-69,13,35,-16,-45,-70,-70,-51
-71,-25,46,48,-58,10,35,-20,-45,-65,-72,-50
-67,-25,43,46,-54,9,35,-20,-43,-65,-76,-50
-55,-23,32,39,-43,4,36,-22,-39,-64,-79,-50
-51,-19,33,35,-42,7,34,-26,-41,-66,-78,-50
-78,-21,57,50,-68,18,40,-25,-39,-64,-74,-48
-77,-19,58,48,-68,19,51,-29,-49,-67,-81,-45
-71,-21,50,46,-61,14,45,-30,-61,-81,-96,-42
-89,-41,49,65,-69,4,40,-30,-60,-79,-93,-40
-87,-45,42,66,-64,-2,37,-30,-59,-75,-90,-36
-75,-37,39,56,-57,1,30,-30,-55,-73,-87,-35
-71,-36,35,53,-52,-1,33,-29,-55,-70,-85,-35
-68,-39,29,54,-49,-5,35,-25,-53,-68,-82,-35
-81,-40,41,61,-61,0,39,-25,-50,-62,-76,-36
-92,-40,52,66,-72,6,40,-23,-47,-57,-71,-34
-89,-40,49,64,-69,4,34,-19,-44,-54,-67,-50
-92,-40,51,66,-72,5,28,-20,-41,-48,-59,-62
-86,-38,48,62,-67,5,20,-23,-40,-46,-57,-52
-83,-31,52,57,-67,10,15,-26,-53,-70,-75,-51
-68,-24,43,46,-55,10,6,-33,-55,-88,-74,-44
-55,-17,37,36,-46,10,14,-32,-55,-82,-81,-40
-37,-11,26,24,-32,7,28,-29,-59,-81,-97,-48
-26,-4,21,15,-23,8,22,-30,-61,-77,-91,-51
-70,-18,53,44,-61,17,30,-25,-58,-74,-89,-50
-65,-32,33,48,-49,0,43,-25,-55,-77,-85,-47
-59,-25,33,42,-46,4,37,-24,-53,-84,-80,-45
-61,-20,41,41,-51,10,27,-19,-48,-90,-78,-43
-56,-12,44,33,-49,16,24,-14,-64,-83,-72,-55
-50,-7,43,28,-46,18,10,-10,-60,-74,-68,-65
6,17,11,-12,-3,14,23,-5,-39,-65,-63,-55
-31,47,78,-8,-55,63,53,-2,-40,-57,-59,-49
-53,61,114,-4,-84,87,43,7,-35,-55,-54,-43
-17,93,111,-38,-64,101,28,9,-33,-51,-50,-35
-22,97,119,-38,-71,108,15,-6,-31,-50,-50,-26
1,84,83,-43,-41,83,5,-22,-29,-45,-49,-17
4,69,65,-37,-30,67,-9,-48,-42,-46,-45,-9
-18,28,46,-5,-32,37,-11,-56,-40,-48,-44,8
-44,-6,38,25,-41,16,0,-55,-53,-62,-54,4
-79,-53,26,66,-52,-13,13,-55,-68,-85,-79,-34
-73,-45,28,59,-50,-9,27,-55,-62,-75,-77,-36
-65,-55,10,60,-37,-22,30,-55,-66,-88,-84,-38
-85,-70,15,78,-50,-27,24,-50,-55,-86,-95,-60
-82,-80,1,80,-41,-39,19,-35,-67,-93,-92,-47
-132,-90,41,111,-86,-24,119,39,-25,-93,-113,-84
-176,-12,164,93,-170,76,244,187,129,-82,-139,-135
-91,107,198,-9,-145,152,283,413,488,210,31,-48
257,376,120,-316,68,247,23,319,682,726,494,267
548,209,-339,-378,444,-66,-349,-69,167,469,545,467
401,-51,-452,-175,427,-252,-355,-307,-333,-67,168,313
215,16,-199,-115,207,-92,-311,-430,-445,-167,13,162
81,-140,-221,30,152,-181,-232,-288,-379,-198,-45,66
1,-151,-152,75,77,-152,-40,-101,-204,-164,-81,-5
-32,-120,-89,76,29,-104,19,-77,-142,-143,-85,-37
-79,-128,-49,104,-15,-88,31,-37,-101,-124,-87,-60
-61,-90,-28,76,-16,-59,30,-26,-73,-103,-76,-53
-58,-99,-41,79,-8,-70,29,-15,-54,-102,-77,-56
-43,-74,-30,59,-6,-52,31,-8,-40,-90,-69,-51
-37,-75,-38,57,0,-56,28,-4,-38,-88,-65,-48
-29,-67,-38,48,5,-52,25,6,-27,-78,-70,-56
-19,-67,-48,43,15,-57,18,8,-24,-74,-79,-64
-25,-64,-39,44,8,-51,15,7,-14,-66,-67,-58
-24,-59,-35,42,6,-47,10,2,-30,-59,-57,-50
-28,-60,-32,44,2,-46,6,1,-33,-53,-48,-45
-29,-53,-25,41,-2,-39,-9,-3,-19,-46,-37,-37
-15,-52,-36,34,10,-43,-16,-6,-11,-43,-28,-32
24,-45,-69,11,47,-57,-9,-3,1,-38,-17,-24
35,-40,-74,3,55,-57,-4,1,9,-13,-8,-17
39,-32,-71,-4,56,-51,-20,5,17,13,6,-12
74,-27,-101,-23,88,-64,-36,8,27,33,27,7
97,-13,-110,-42,104,-62,-41,13,40,50,53,27
128,18,-111,-73,119,-46,-56,15,61,73,83,53
144,29,-115,-86,129,-42,-86,10,69,101,112,81
156,46,-110,-101,133,-31,-115,5,80,139,154,116
213,69,-143,-141,178,-37,-160,0,108,186,198,153
270,96,-174,-183,222,-39,-197,-3,119,225,247,186
315,132,-183,-223,249,-25,-226,-9,144,273,303,236
344,145,-199,-244,271,-27,-266,-8,171,311,341,271
349,165,-184,-257,266,-9,-277,0,189,335,371,306
343,172,-170,-257,256,1,-268,4,215,347,384,310
308,165,-143,-236,225,10,-225,34,227,334,359,278
248,166,-81,-207,164,42,-168,72,228,314,314,239
178,141,-37,-159,107,52,-129,91,221,264,263,172
113,100,-13,-106,62,43,-85,94,207,209,196,117
53,59,6,-57,23,33,-22,84,177,159,130,68
6,34,28,-21,-11,31,26,77,135,114,87,26
-19,24,43,-3,-31,33,48,69,97,94,62,-4
-27,11,38,8,-33,24,59,62,64,60,30,-29
-33,-3,30,18,-32,13,51,56,47,25,-2,-42
-69,-16,53,43,-61,18,43,49,41,16,-7,-53
-77,-16,61,46,-68,22,37,43,34,9,-11,-58
-65,-14,50,39,-57,18,26,35,27,3,-17,-53
-69,-15,54,42,-61,19,32,32,18,-5,-20,-50
-47,-15,32,31,-39,9,46,21,18,-9,-36,-47
-55,-16,39,35,-47,12,46,28,31,-6,-42,-42
-65,-12,52,38,-58,20,43,45,31,-3,-36,-41
-51,-10,41,30,-46,16,41,38,24,0,-34,-39
-58,-7,52,33,-55,22,38,34,21,2,-29,-45
-55,-4,50,29,-52,23,46,28,16,5,-25,-56
-47,-1,47,24,-47,23,55,22,11,3,-27,-55
-46,0,46,22,-46,23,48,18,7,-1,-31,-55
-48,-5,43,26,-45,19,40,14,2,1,-33,-55
-52,-10,42,30,-47,16,36,16,-3,-4,-36,-55
-35,-13,21,24,-28,4,24,11,-7,-5,-39,-55
-47,-19,28,33,-37,4,35,10,-11,-5,-44,-55
-79,-17,61,48,-70,22,56,9,-15,-13,-48,-55
-58,-12,46,35,-52,17,50,6,-22,-21,-50,-55
-48,-16,32,32,-39,8,45,3,-30,-35,-50,-55
-50,-14,36,32,-42,11,42,0,-38,-35,-50,-55
-51,-16,34,33,-42,9,36,-2,-40,-40,-50,-55
-71,-36,35,53,-53,0,37,-6,-44,-57,-50,-55
-76,-42,35,58,-55,-3,41,-2,-45,-53,-50,-56
-75,-39,36,56,-55,-1,39,0,-41,-50,-50,-54
-71,-41,30,56,-51,-5,42,0,-38,-48,-50,-61
-65,-39,26,52,-45,-6,54,0,-35,-44,-50,-66
-59,-41,18,50,-39,-11,56,0,-33,-47,-50,-65
-61,-44,17,52,-38,-14,54,0,-28,-45,-50,-64
-50,-45,5,47,-27,-20,51,-5,-39,-44,-50,-59
-56,-45,11,50,-33,-17,49,-13,-52,-62,-50,-61
-67,-45,22,56,-44,-11,51,-13,-49,-72,-51,-57
-71,-46,25,58,-47,-10,49,-9,-50,-69,-54,-55
-104,-42,62,73,-83,9,50,-10,-50,-70,-58,-51
-101,-36,64,68,-82,13,50,-6,-50,-70,-60,-52
-84,-31,53,57,-69,11,50,-5,-54,-70,-60,-65
-81,-26,55,54,-68,14,50,-5,-55,-65,-60,-65
-65,-19,45,42,-55,13,46,-1,-55,-65,-61,-64
-63,-17,46,39,-54,15,43,2,-55,-65,-64,-61
-77,-25,52,51,-64,13,38,5,-55,-64,-67,-60
-80,-25,54,52,-66,14,37,8,-55,-66,-71,-59
-86,-24,62,55,-74,19,29,11,-55,-62,-74,-53
-69,-19,50,44,-59,15,36,8,-55,-60,-78,-49
-66,-22,44,43,-55,11,57,2,-55,-60,-80,-44
-108,-42,66,74,-87,12,57,-2,-55,-60,-80,-40
-111,-46,65,78,-88,9,53,-6,-55,-59,-84,-35
-109,-44,65,76,-86,10,51,-11,-51,-61,-85,-32
-111,-46,66,78,-88,10,47,-15,-49,-70,-85,-29
-109,-45,64,76,-86,10,45,-15,-50,-70,-85,-33
-112,-44,68,78,-90,12,47,-15,-50,-64,-85,-48
-107,-38,70,72,-88,16,51,-15,-50,-63,-85,-51
-101,-31,71,66,-86,20,54,-15,-49,-56,-85,-50
-94,-25,69,59,-81,22,55,-16,-43,-57,-86,-50
-88,-16,72,52,-80,27,59,-12,-37,-69,-83,-50
-80,-13,67,47,-74,27,61,-3,-31,-65,-76,-49
-71,4,75,33,-73,40,60,8,-26,-60,-71,-43
-51,37,88,7,-70,62,77,16,-25,-54,-64,-36
-48,72,120,-12,-84,96,93,18,-25,-49,-61,-30
-42,106,148,-32,-95,127,80,8,-25,-44,-64,-22
-27,106,133,-40,-80,119,44,-15,-25,-46,-66,-16
-18,101,119,-42,-69,110,19,-21,-25,-45,-64,-14
7,92,85,-50,-39,89,8,-21,-34,-45,-65,-16
-32,47,80,-8,-57,63,3,-17,-38,-51,-65,-14
-63,13,76,24,-69,44,8,-16,-41,-58,-66,-17
-69,-22,47,45,-57,12,23,-13,-42,-81,-77,-48
-100,-37,63,68,-81,13,28,-18,-49,-94,-77,-63
-96,-56,40,76,-68,-8,11,-27,-63,-99,-91,-57
-113,-56,58,84,-85,1,8,-30,-48,-84,-91,-66
-105,-70,34,87,-69,-18,23,-16,-52,-90,-98,-71
-137,-72,65,104,-100,-3,123,69,4,-64,-98,-86
-176,-12,163,93,-170,75,250,221,180,-24,-91,-112
-74,70,144,2,-109,107,315,486,567,303,82,-33
217,297,80,-257,68,188,7,313,620,704,496,261
463,187,-275,-325,369,-44,-353,-140,54,327,450,424
342,6,-336,-174,339,-164,-247,-219,-267,-100,93,271
173,51,-122,-112,147,-36,-229,-344,-369,-169,-28,137
39,-118,-158,40,99,-138,-194,-294,-355,-225,-93,70
-41,-169,-128,105,43,-148,-26,-70,-186,-157,-100,11
-37,-120,-84,79,24,-102,29,-42,-135,-133,-93,-24
-65,-99,-34,82,-15,-66,53,-18,-78,-115,-92,-43
-43,-71,-28,57,-7,-49,25,-7,-51,-90,-83,-39
-45,-79,-33,62,-6,-55,25,5,-36,-87,-83,-41
-48,-68,-20,58,-14,-44,26,14,-23,-78,-73,-36
-47,-70,-23,59,-12,-46,26,21,-22,-78,-71,-35
-37,-65,-27,51,-4,-46,28,27,-10,-65,-63,-35
-19,-64,-44,41,13,-53,20,23,-8,-60,-59,-30
-15,-53,-38,34,12,-46,20,26,1,-50,-51,-30
-3,-39,-36,22,17,-37,13,24,4,-38,-43,-26
-5,-32,-27,19,11,-29,11,26,5,-26,-36,-25
1,-29,-30,14,15,-29,7,24,6,-7,-27,-23
3,-30,-34,14,19,-32,-2,17,10,10,-22,-16
12,-25,-37,7,25,-31,-13,12,10,27,-14,-9
29,-25,-55,-1,42,-40,-22,7,12,28,-8,-3
31,-24,-55,-3,43,-40,-34,1,21,40,-2,4
55,-15,-70,-20,63,-43,-49,-3,29,61,8,16
72,-9,-81,-31,77,-45,-63,-10,37,73,25,42
69,8,-61,-38,65,-26,-75,-14,44,104,68,78
132,30,-102,-81,117,-36,-92,-21,51,129,107,107
169,44,-125,-107,146,-40,-121,-25,58,165,145,140
194,60,-134,-127,164,-36,-159,-34,62,198,188,163
280,93,-187,-186,233,-47,-203,-57,69,229,231,197
309,120,-189,-214,249,-34,-244,-75,75,271,279,245
320,125,-195,-222,257,-34,-286,-90,85,291,307,271
343,148,-195,-246,269,-23,-305,-86,102,310,334,291
332,167,-165,-249,248,1,-280,-72,115,308,344,291
288,167,-122,-227,204,22,-252,-50,139,293,328,273
232,163,-70,-197,150,46,-195,-12,155,280,292,240
183,141,-41,-162,112,50,-126,25,145,246,225,180
125,110,-14,-117,69,48,-75,52,133,200,170,120
90,78,-11,-84,50,33,-36,50,122,150,127,71
47,39,-8,-43,27,15,-18,42,103,102,73,31
-10,14,24,-3,-17,19,21,36,82,63,34,7
-21,6,27,7,-24,16,48,28,62,38,8,-8
-27,-2,25,14,-26,11,44,21,47,25,-10,-24
-58,-11,47,34,-52,17,45,14,39,19,-26,-40
-69,-25,44,46,-56,9,45,9,30,12,-41,-45
-55,-24,32,39,-43,4,45,4,22,4,-47,-45
-38,-15,23,27,-31,4,45,0,17,-2,-50,-44
-23,-10,13,16,-17,1,41,-5,11,-10,-45,-54
-31,-2,29,16,-30,14,38,-10,6,-13,-45,-60
-35,3,38,16,-37,20,34,-6,-1,-7,-45,-51
-18,7,24,5,-21,15,31,0,-4,-6,-45,-49
-11,3,14,4,-13,8,27,5,0,0,-45,-40
-15,9,24,3,-20,16,23,11,-1,-2,-47,-39
-38,-6,32,22,-35,13,17,17,2,-12,-51,-27
-60,-31,29,46,-45,-1,6,19,-10,-24,-42,-31
-56,-25,30,40,-43,2,18,14,-22,-44,-53,-60
-51,-22,30,36,-40,4,36,11,-19,-46,-68,-60
-46,-16,30,31,-38,7,35,8,-20,-45,-64,-59
-48,-23,26,35,-37,2,35,3,-20,-51,-66,-61
-55,-32,22,43,-39,-5,35,1,-20,-49,-65,-59
-45,-29,16,37,-30,-6,34,-5,-20,-51,-65,-61
-44,-29,15,36,-29,-6,37,-14,-20,-49,-65,-60
-27,-24,3,25,-14,-10,40,-23,-20,-51,-64,-60
-29,-25,4,27,-16,-11,40,-29,-28,-65,-75,-60
-64,-29,36,46,-50,3,42,-25,-30,-71,-81,-60
-57,-27,30,42,-43,2,45,-25,-30,-73,-80,-60
-49,-25,24,37,-36,0,45,-23,-30,-76,-80,-64
-48,-25,23,36,-35,0,41,-19,-30,-79,-80,-65
-55,-42,13,48,-34,-14,40,-21,-40,-80,-80,-65
-73,-49,24,60,-48,-13,40,-16,-46,-75,-75,-65
-71,-42,29,57,-50,-6,35,-15,-49,-71,-75,-64
-62,-37,25,49,-43,-6,35,-14,-50,-68,-74,-68
-47,-31,16,39,-31,-7,35,-11,-51,-65,-70,-70
-48,-27,22,37,-35,-2,45,-8,-55,-60,-69,-70
-56,-19,37,37,-46,9,56,-17,-55,-62,-73,-74
-61,-34,28,47,-44,-3,51,-31,-53,-65,-74,-75
-61,-42,19,52,-40,-11,48,-25,-50,-65,-80,-75
-59,-35,23,47,-40,-6,45,-20,-47,-64,-90,-69
-60,-35,25,47,-42,-5,40,-16,-44,-70,-84,-63
-56,-30,26,43,-41,-2,38,-11,-40,-81,-78,-59
-54,-30,24,41,-39,-2,34,-7,-40,-75,-74,-53
-53,-25,28,39,-40,1,32,-5,-45,-70,-65,-47
-63,-25,37,44,-49,6,29,-5,-45,-67,-77,-47
-58,-24,34,41,-46,5,25,-1,-45,-60,-91,-55
-49,-20,29,34,-39,4,25,1,-45,-62,-90,-59
-43,-20,23,31,-33,1,24,-1,-45,-65,-90,-56
-41,-23,18,31,-29,-2,34,-4,-47,-65,-90,-54
-43,-32,11,37,-27,-10,41,-5,-50,-65,-90,-56
-44,-31,13,37,-28,-9,36,-6,-50,-70,-87,-54
-56,-30,27,43,-42,-1,34,-11,-50,-78,-84,-56
-55,-30,25,42,-40,-2,30,-9,-50,-80,-85,-54
-60,-34,26,46,-43,-4,27,-13,-50,-80,-85,-57
-65,-42,23,53,-43,-9,24,-15,-54,-80,-85,-77
-61,-39,22,50,-41,-9,26,-15,-55,-80,-85,-81
-57,-40,17,49,-37,-12,19,-19,-55,-80,-85,-79
-69,-40,29,55,-49,-5,22,-21,-55,-76,-85,-81
-96,-40,56,68,-76,8,17,-20,-56,-71,-85,-80
-89,-40,49,64,-69,5,10,-15,-53,-69,-85,-79
-72,-24,48,48,-60,12,35,-7,-46,-64,-85,-74
-51,-14,37,32,-44,11,39,-1,-41,-61,-80,-69
-53,12,64,21,-59,38,47,6,-35,-60,-72,-65
-59,46,104,6,-82,75,62,13,-30,-60,-64,-60
-31,66,97,-18,-65,82,63,13,-31,-60,-56,-56
-42,90,133,-24,-88,111,45,3,-28,-55,-50,-51
-71,79,150,-4,-111,115,9,-12,-25,-56,-50,-47
-50,75,125,-13,-88,100,-16,-32,-25,-54,-50,-44
-14,64,78,-25,-46,70,-28,-39,-28,-56,-50,-40
-26,24,51,1,-39,37,-17,-47,-52,-55,-51,-37
-49,2,52,23,-51,27,-17,-58,-67,-56,-47,-34
-82,-47,35,64,-58,-6,-9,-48,-64,-66,-60,-47
-104,-61,43,83,-73,-9,-6,-51,-65,-71,-64,-50
-95,-79,16,87,-55,-32,-6,-41,-66,-91,-81,-67
-109,-70,39,89,-74,-15,4,-42,-64,-76,-86,-79
-98,-92,6,95,-52,-43,-5,-26,-50,-103,-97,-69
-139,-76,63,107,-101,-7,97,54,8,-108,-111,-109
-189,9,199,90,-194,104,243,223,167,-55,-108,-124
-65,147,212,-41,-139,179,254,444,561,326,108,-5
291,392,101,-342,94,247,-93,249,645,797,570,330
526,154,-372,-340,449,-109,-396,-117,79,408,518,483
360,-34,-394,-163,377,-213,-310,-322,-359,-94,141,290
159,-4,-163,-78,162,-83,-315,-431,-463,-171,-2,149
35,-183,-217,74,126,-200,-218,-235,-357,-199,-71,59
-38,-162,-124,100,43,-143,-40,-88,-192,-145,-71,6
-46,-125,-79,86,17,-102,-25,-69,-150,-138,-83,-25
-56,-98,-42,78,-7,-70,-6,-19,-89,-107,-85,-55
-49,-73,-24,61,-12,-48,-3,-11,-67,-84,-73,-46
-42,-80,-38,61,-2,-58,14,-1,-62,-87,-74,-47
-33,-62,-30,48,-1,-46,24,-3,-50,-77,-62,-41
-34,-67,-33,50,0,-49,27,2,-46,-79,-62,-38
-31,-55,-23,43,-4,-39,38,5,-36,-72,-54,-35
-31,-53,-22,42,-4,-37,34,5,-32,-69,-55,-30
-31,-46,-15,39,-8,-30,29,13,-23,-60,-55,-27
-33,-41,-8,37,-12,-24,25,18,-18,-55,-54,-23
-26,-35,-9,31,-8,-22,20,17,-11,-47,-56,-20
14,-30,-44,8,29,-37,16,13,-5,-42,-51,-15
27,-26,-52,-1,40,-38,10,11,0,-32,-40,-13
25,-23,-48,-1,37,-35,-1,8,8,-13,-27,-2
33,-19,-52,-7,43,-35,-7,5,13,1,-15,8
30,-17,-47,-7,39,-31,-19,3,21,9,-5,17
61,-11,-72,-25,67,-41,-24,0,28,21,12,26
88,7,-81,-48,85,-37,-44,0,32,41,31,34
95,15,-80,-55,87,-32,-76,0,55,77,67,66
112,33,-79,-73,96,-23,-95,0,75,116,111,101
150,68,-82,-109,116,-7,-130,1,94,149,153,132
203,89,-113,-146,158,-12,-166,-7,116,194,200,174
244,103,-141,-173,192,-18,-216,-18,130,229,244,213
294,145,-149,-219,222,-2,-255,-15,147,283,301,250
329,174,-155,-251,242,9,-260,-12,162,315,340,288
348,180,-168,-264,258,6,-280,-9,185,323,364,308
333,184,-149,-258,240,17,-277,-5,201,339,368,295
287,174,-113,-230,200,30,-236,4,205,311,347,269
248,171,-77,-210,162,47,-186,47,221,285,312,230
174,139,-35,-156,104,52,-111,77,212,242,236,172
106,90,-16,-97,60,36,-52,69,174,175,165,113
75,68,-7,-71,41,30,-17,66,149,129,115,58
39,49,10,-44,14,29,25,61,117,81,67,18
18,40,23,-29,-3,31,47,57,87,44,36,-7
-9,22,31,-6,-20,26,43,52,68,19,21,-20
-63,-14,49,38,-56,17,41,47,48,3,4,-30
-68,-29,39,48,-53,5,61,40,31,-5,-18,-41
-57,-22,35,39,-45,6,66,36,22,-25,-37,-42
-79,-21,58,50,-68,18,58,30,25,-26,-42,-36
-69,-18,51,43,-59,16,58,24,28,-12,-36,-31
-49,-13,36,31,-42,12,51,24,31,-19,-34,-29
-46,-17,29,31,-37,6,51,14,34,-17,-29,-21
-9,2,11,3,-9,6,56,22,35,0,-26,-23
-40,-5,34,22,-37,14,71,-2,30,0,-19,-32
-47,18,64,14,-56,41,99,52,30,0,10,-46
-54,-19,35,36,-44,8,107,75,30,0,26,-42
-7,-5,3,6,-5,-1,100,-3,29,0,29,-8
142,141,-1,-142,72,70,103,1,39,0,35,4
