I,II,III,aVR,aVL,aVF,V1,V2,V3,V4,V5,V6
47,77,30,-62,9,54,63,163,143,68,-34,-71
26,53,28,-40,-1,40,44,94,77,41,-29,-70
-4,36,39,-16,-22,37,9,19,0,-10,-25,-68
-11,38,48,-14,-30,43,-16,-20,-54,-47,-14,-87
15,40,25,-28,-5,32,-22,-44,-79,-74,-30,-71
-2,33,36,-16,-19,34,-18,-56,-90,-91,-53,-61
-8,34,42,-13,-25,38,-16,-55,-93,-90,-49,-66
16,54,38,-35,-11,46,-12,-57,-95,-90,-47,-51
8,51,43,-30,-18,47,-10,-61,-99,-89,-44,-82
3,31,28,-17,-12,29,-8,-60,-100,-96,-51,-93
-20,29,49,-5,-35,39,-3,-57,-97,-102,-56,-88
-29,34,62,-3,-46,48,0,-51,-92,-100,-55,-91
-16,29,45,-7,-31,37,3,-47,-89,-99,-53,-89
-21,23,44,-1,-33,33,8,-43,-86,-95,-50,-91
-17,20,37,-2,-27,28,10,-37,-81,-95,-50,-79
-17,14,32,1,-25,23,4,-37,-82,-95,-55,-100
-14,11,25,1,-20,18,-3,-39,-84,-95,-64,-113
-25,5,30,9,-28,17,-9,-50,-92,-95,-66,-108
-37,0,38,18,-38,19,-16,-55,-101,-95,-64,-104
-41,-6,35,23,-38,14,-23,-60,-104,-95,-65,-93
-44,-9,35,26,-39,12,-23,-75,-108,-102,-73,-86
-35,0,35,17,-35,17,-19,-82,-113,-105,-74,-77
-30,5,35,12,-33,20,-21,-90,-114,-98,-68,-73
-10,24,34,-8,-22,29,-19,-83,-105,-88,-64,-69
4,47,42,-26,-19,44,-21,-64,-99,-82,-60,-64
9,76,67,-43,-29,71,-1,-37,-82,-70,-49,-57
26,117,90,-71,-32,103,31,-12,-56,-56,-36,-43
52,150,98,-101,-23,124,48,11,-54,-53,-19,-33
52,164,112,-108,-30,137,36,21,-56,-56,2,-30
35,134,99,-85,-32,116,-14,-6,-52,-54,7,-27
30,73,43,-52,-7,58,-60,-47,-78,-59,-9,-24
49,42,-7,-45,28,17,-88,-107,-130,-103,-43,-20
88,61,-27,-74,57,17,-84,-133,-165,-135,-69,-20
70,51,-19,-60,44,16,-65,-129,-176,-127,-70,-31
31,15,-15,-23,23,0,-59,-131,-175,-135,-75,-62
11,5,-7,-8,9,-1,-53,-129,-174,-147,-85,-81
3,-7,-10,3,7,-9,-44,-131,-176,-146,-91,-86
6,-3,-9,-1,8,-6,-41,-127,-174,-141,-88,-86
-40,-21,19,30,-29,-1,-32,-120,-179,-145,-79,-82
-61,-45,16,53,-38,-14,-31,-109,-180,-169,-88,-89
-8,-12,-4,10,-2,-8,-27,-106,-185,-165,-69,-80
-17,-23,-6,20,-5,-14,-20,-93,-181,-167,-125,-115
-46,-58,-12,52,-17,-35,-30,-121,-171,-183,-133,-102
-27,-95,-68,61,21,-82,63,131,5,-99,-128,-112
109,159,49,-134,30,104,218,677,638,397,126,78
435,589,154,-512,140,371,-182,50,703,1246,1016,712
782,994,213,-888,284,603,-1502,-1878,-349,1794,1953,1414
749,1237,488,-993,130,863,-2152,-2793,-1190,1243,2083,1750
339,694,355,-517,-8,525,-1296,-1896,-1250,-96,1020,1143
60,197,137,-129,-39,167,-491,-826,-800,-546,98,323
-66,76,142,-5,-104,108,-173,-343,-367,-298,-92,43
-99,-63,36,81,-68,-13,34,-52,-162,-214,-162,-66
-69,-59,10,64,-40,-24,94,62,-51,-132,-144,-103
-109,-111,-2,110,-54,-56,130,101,-37,-127,-170,-133
-95,-120,-25,108,-35,-72,143,138,-1,-111,-173,-143
-77,-124,-47,101,-15,-85,151,153,18,-101,-178,-132
-98,-141,-43,120,-27,-92,173,187,32,-95,-172,-146
-102,-128,-26,115,-38,-76,182,193,54,-81,-181,-160
-124,-134,-10,129,-57,-72,184,212,75,-79,-206,-140
-106,-123,-17,115,-44,-70,202,237,100,-65,-196,-154
-95,-127,-32,111,-31,-79,214,263,122,-63,-202,-195
-119,-120,-1,120,-59,-61,233,313,162,-51,-200,-196
-115,-119,-4,117,-56,-61,256,344,186,-46,-198,-193
-107,-124,-17,116,-44,-70,256,373,216,-35,-208,-200
-111,-121,-10,116,-50,-65,292,430,265,-20,-219,-215
-134,-115,19,125,-76,-48,327,493,321,16,-227,-220
-156,-105,50,130,-103,-27,357,556,388,43,-247,-224
-167,-106,62,137,-114,-22,391,604,441,54,-245,-224
-140,-81,59,111,-100,-11,413,654,503,95,-235,-213
-153,-93,60,123,-106,-16,433,709,560,123,-227,-207
-161,-101,60,131,-110,-20,421,715,600,152,-220,-197
-114,-60,54,86,-84,-2,403,712,632,191,-206,-192
-90,-41,48,65,-68,3,377,687,621,215,-165,-159
-42,-3,39,22,-40,17,300,561,536,211,-118,-97
-16,-5,11,10,-13,3,189,388,377,172,-74,-55
23,8,-14,-15,19,-3,112,228,217,119,-38,-19
47,35,-13,-40,29,11,62,95,92,45,-18,2
48,17,-31,-32,39,-7,19,19,19,6,4,-3
52,7,-46,-29,49,-19,9,-27,-24,-11,12,-7
26,4,-22,-15,24,-8,3,-55,-65,-45,-4,-12
48,46,-2,-47,24,22,-5,-53,-72,-55,-15,-15
57,40,-17,-48,37,12,-12,-64,-69,-69,-30,-22
12,-15,-28,2,20,-21,-19,-69,-71,-78,-44,-34
0,-24,-24,13,12,-24,-14,-58,-69,-73,-35,-31
0,-25,-25,13,13,-25,-9,-54,-71,-77,-25,-24
1,-16,-18,8,9,-17,-4,-45,-67,-73,-19,-20
6,-19,-24,6,15,-21,2,-41,-65,-77,-21,-12
-5,-7,-2,6,-1,-4,8,-38,-65,-73,-18,-12
4,22,18,-13,-7,20,8,-35,-65,-76,-33,-32
-27,-24,3,25,-15,-10,2,-33,-66,-109,-62,-49
-23,-38,-15,31,-4,-26,-2,-29,-64,-118,-51,-50
13,-31,-43,9,28,-37,-8,-29,-71,-113,-41,-50
13,-29,-43,8,28,-35,-10,-23,-72,-117,-38,-51
24,-25,-49,1,37,-37,-18,-37,-80,-114,-51,-48
-7,-28,-21,17,8,-24,1,-38,-77,-116,-67,-55
-23,-2,21,12,-22,10,1,-31,-72,-115,-60,-65
-31,-46,-14,39,-8,-30,-38,-67,-110,-115,-57,-62
-25,-60,-35,43,5,-47,-29,-66,-110,-116,-52,-55
14,-26,-39,6,27,-32,-8,-53,-92,-104,-44,-39
30,4,-26,-17,28,-11,15,-28,-67,-83,-22,-17
48,69,21,-59,14,45,45,4,-30,-45,-6,-7
44,81,37,-63,3,59,52,16,-15,-21,10,10
70,91,22,-81,24,56,35,29,-5,-8,41,17
97,107,10,-102,43,58,-7,-9,-22,-6,28,10
11,35,25,-23,-7,30,-50,-54,-67,-60,-16,7
-5,-17,-12,11,4,-15,-87,-110,-137,-113,-49,-19
31,-13,-44,-8,38,-29,-89,-146,-174,-126,-66,-18
9,-14,-23,3,16,-18,-75,-136,-168,-129,-67,-11
-1,-36,-34,19,17,-35,-72,-137,-172,-136,-70,-37
-23,-56,-34,40,6,-45,-67,-131,-169,-143,-76,-59
-21,-50,-29,35,4,-39,-62,-131,-171,-153,-73,-83
-18,-38,-20,28,2,-29,-58,-126,-169,-154,-98,-83
-55,-70,-14,63,-20,-42,-53,-123,-170,-167,-113,-72
-86,-96,-10,91,-38,-53,-48,-111,-171,-189,-117,-89
-84,-65,20,74,-52,-22,-42,-113,-169,-182,-103,-70
-43,-75,-32,59,-5,-53,-30,-94,-171,-192,-111,-88
-12,-95,-83,54,36,-89,-38,-108,-180,-192,-109,-85
-10,-112,-102,61,46,-107,65,142,6,-101,-103,-88
124,123,-1,-124,63,61,245,677,643,391,128,44
430,527,96,-479,167,311,-208,-50,595,1134,903,645
784,924,140,-854,322,532,-1558,-1977,-441,1652,1795,1338
814,1217,403,-1016,205,810,-2204,-2809,-1135,1277,2032,1698
401,764,363,-583,18,564,-1377,-1973,-1250,-23,1095,1202
65,227,162,-146,-49,194,-533,-893,-839,-527,166,395
-62,68,130,-3,-96,98,-181,-357,-371,-288,-59,42
-101,-73,28,87,-64,-23,28,-70,-167,-230,-160,-119
-73,-81,-8,77,-32,-44,97,61,-48,-151,-148,-124
-79,-109,-29,94,-25,-68,121,96,-41,-149,-182,-128
-105,-137,-32,121,-36,-84,143,138,0,-139,-186,-154
-102,-131,-29,117,-36,-79,169,165,13,-133,-168,-158
-85,-125,-40,106,-23,-82,171,184,32,-134,-176,-163
-81,-111,-29,96,-26,-70,169,192,57,-116,-158,-172
-84,-115,-32,99,-25,-73,189,225,69,-114,-164,-184
-96,-120,-24,108,-36,-72,199,251,94,-97,-184,-177
-91,-113,-22,102,-34,-68,207,279,114,-91,-211,-195
-102,-120,-18,111,-41,-69,229,318,149,-73,-208,-207
-115,-129,-14,122,-50,-71,260,349,179,-63,-211,-207
-122,-138,-16,130,-53,-77,277,392,215,-51,-209,-221
-151,-164,-14,158,-68,-89,305,440,254,-33,-211,-241
-138,-150,-12,144,-63,-80,339,500,310,-8,-213,-244
-137,-126,11,132,-74,-57,382,569,378,22,-226,-250
-140,-113,27,127,-83,-43,421,632,438,39,-243,-247
-141,-103,37,122,-89,-33,452,692,505,78,-245,-249
-165,-96,68,130,-116,-13,474,740,567,124,-239,-255
-151,-85,65,118,-108,-10,466,757,611,144,-226,-239
-125,-68,57,97,-91,-5,453,749,637,167,-213,-215
-100,-51,49,75,-74,-1,403,712,626,187,-171,-176
-81,-47,34,64,-58,-6,325,596,545,183,-120,-129
-57,-32,25,44,-40,-3,215,413,385,152,-81,-82
-18,-7,11,12,-15,2,104,229,222,101,-42,-46
25,28,2,-26,11,14,50,102,99,56,-21,-26
42,29,-12,-35,27,8,11,26,16,8,-20,-20
4,-11,-15,4,9,-13,-6,-34,-45,-50,-18,-15
9,-17,-26,4,18,-21,-14,-59,-80,-72,-13,-9
15,-9,-25,-3,20,-17,-27,-69,-80,-70,-19,-3
8,-11,-19,1,14,-15,-26,-74,-80,-71,-26,-1
33,-1,-35,-16,35,-18,-20,-65,-77,-69,-23,-10
15,-12,-27,-2,21,-19,-15,-60,-74,-66,-19,-18
-7,-35,-28,22,11,-32,-9,-53,-75,-64,-16,-27
-10,-32,-22,22,6,-27,-4,-46,-70,-67,-10,-27
-8,-27,-19,18,6,-23,1,-42,-67,-70,-13,-24
-14,-27,-13,20,0,-20,5,-39,-64,-74,-34,-24
-6,-17,-11,12,2,-14,8,-37,-60,-75,-44,-17
3,-26,-29,12,16,-27,12,-33,-55,-75,-37,-26
11,-16,-27,3,19,-21,15,-31,-58,-75,-50,-45
44,-10,-54,-17,49,-32,10,-31,-73,-74,-61,-48
5,-54,-59,25,32,-56,2,-36,-74,-77,-55,-49
-32,-73,-40,53,4,-56,-4,-48,-77,-80,-52,-43
-20,-66,-46,44,13,-56,-12,-58,-97,-83,-49,-47
-17,-59,-42,38,13,-50,-20,-60,-101,-87,-43,-41
-13,-52,-39,32,13,-45,-23,-61,-99,-90,-53,-47
-5,-41,-36,23,16,-38,-21,-80,-93,-95,-76,-78
-11,-42,-32,27,11,-37,-18,-87,-107,-95,-61,-72
-19,-49,-30,34,6,-39,-23,-86,-111,-95,-36,-80
9,7,-2,-8,5,2,0,-56,-65,-77,-27,-47
12,67,56,-40,-22,61,44,-17,-36,-47,-11,17
22,93,71,-57,-25,82,64,-5,-21,-30,-5,17
31,102,70,-66,-20,86,47,11,-9,-16,10,22
19,84,65,-52,-23,74,-8,-20,-10,-23,15,13
74,79,6,-76,34,42,-53,-61,-42,-55,-18,-18
76,14,-62,-45,69,-24,-102,-125,-128,-107,-42,-31
6,-63,-69,29,38,-66,-112,-166,-171,-135,-39,-36
-18,-52,-34,36,8,-43,-76,-140,-158,-133,-23,-34
-26,-54,-28,40,1,-40,-69,-140,-161,-141,-54,-49
-27,-59,-32,43,3,-45,-60,-139,-154,-139,-77,-57
-15,-43,-28,29,7,-35,-50,-141,-150,-140,-64,-57
-36,-68,-32,52,-2,-50,-47,-143,-155,-141,-84,-81
-53,-99,-46,76,-3,-72,-40,-146,-162,-140,-81,-77
-46,-105,-59,76,6,-81,-40,-144,-179,-156,-91,-95
-47,-90,-43,68,-1,-66,-33,-140,-179,-144,-79,-103
-53,-101,-48,77,-2,-74,-31,-128,-173,-156,-90,-116
-36,-103,-67,70,16,-85,-24,-123,-162,-157,-96,-110
4,-130,-134,63,69,-132,60,85,-36,-109,-109,-113
83,50,-33,-67,58,8,217,623,567,317,70,3
376,466,90,-422,143,278,-133,81,677,1072,826,572
812,863,50,-838,381,456,-1493,-1857,-355,1537,1680,1239
868,1183,315,-1026,276,748,-2291,-2837,-1126,1205,1964,1628
446,801,355,-623,45,578,-1492,-2064,-1243,19,1151,1215
98,250,151,-174,-27,201,-600,-984,-869,-540,189,429
-54,89,143,-17,-99,115,-222,-408,-381,-308,-49,98
-77,-48,29,62,-52,-10,5,-104,-169,-211,-130,-81
-57,-86,-29,72,-13,-58,85,44,-50,-138,-137,-123
-137,-148,-11,143,-63,-79,131,87,-28,-140,-141,-121
-123,-153,-29,139,-47,-91,153,132,21,-124,-140,-148
-81,-140,-59,110,-11,-99,153,149,37,-107,-157,-122
-86,-147,-61,117,-13,-104,160,171,47,-97,-184,-122
-81,-133,-52,107,-15,-92,166,194,74,-70,-172,-155
-87,-138,-51,112,-18,-94,194,221,92,-70,-186,-167
-100,-143,-43,122,-28,-93,204,248,121,-55,-181,-156
-113,-154,-41,133,-36,-98,213,272,134,-50,-187,-155
-105,-139,-34,123,-36,-86,245,308,170,-27,-179,-149
-113,-154,-41,134,-36,-97,257,336,192,-8,-176,-185
-115,-154,-39,135,-38,-97,280,383,229,7,-171,-198
-106,-143,-37,125,-34,-90,310,444,288,21,-173,-194
-125,-147,-22,136,-51,-84,344,501,337,35,-202,-203
-156,-144,12,150,-84,-65,384,568,401,60,-209,-211
-171,-147,25,159,-98,-61,413,636,466,81,-206,-210
-174,-138,36,155,-105,-50,442,689,525,111,-194,-211
-155,-119,36,137,-95,-41,444,725,579,138,-211,-229
-125,-92,32,108,-78,-30,433,760,633,165,-214,-203
-96,-69,26,82,-61,-21,426,767,665,201,-163,-170
-84,-60,24,72,-54,-18,408,735,662,215,-139,-142
-62,-45,17,54,-39,-14,322,611,575,201,-106,-100
-27,-31,-4,29,-11,-18,198,421,415,168,-55,-52
-20,-21,-1,21,-9,-11,118,256,257,123,-22,-9
23,-14,-37,-5,31,-26,58,108,109,55,0,7
55,-11,-66,-22,61,-38,27,30,31,5,0,16
53,-1,-54,-25,54,-28,11,-20,-20,-14,2,15
50,-4,-54,-23,52,-28,-7,-54,-60,-37,6,5
32,-20,-52,-6,42,-35,-4,-49,-62,-51,3,0
-1,-42,-41,22,20,-41,-15,-50,-70,-56,-3,-8
-23,-65,-42,44,10,-53,-27,-53,-76,-56,-11,-18
0,-63,-64,32,32,-63,-19,-55,-72,-60,-17,-14
-6,-59,-53,32,23,-55,-16,-48,-70,-63,-26,-27
-20,-61,-42,41,11,-51,-12,-45,-67,-67,-32,-26
-25,-59,-34,42,4,-46,-6,-40,-64,-70,-32,-26
-33,-61,-28,47,-2,-44,-3,-35,-75,-73,-30,-60
-27,-59,-32,43,3,-45,5,-39,-82,-81,-28,-55
-31,-56,-24,44,-3,-40,19,-40,-79,-82,-24,-46
-27,-54,-27,41,0,-40,18,-40,-82,-78,-26,-42
-25,-49,-23,38,-1,-36,12,-45,-78,-73,-43,-32
-18,-49,-32,34,7,-40,9,-45,-83,-72,-51,-30
-15,-42,-27,29,6,-34,3,-46,-72,-64,-45,-22
-25,-50,-25,38,0,-37,0,-51,-71,-70,-43,-20
-45,-72,-27,59,-9,-49,-7,-49,-81,-90,-38,-9
-85,-74,11,80,-48,-31,-15,-58,-80,-89,-35,-17
-37,-66,-28,52,-4,-47,-23,-63,-102,-85,-32,-42
-11,-63,-52,38,21,-57,-31,-59,-98,-81,-26,-32
-39,-71,-32,55,-3,-51,-29,-60,-88,-80,-23,-19
-18,-37,-19,27,1,-27,22,-31,-63,-63,-18,-12
-49,2,50,23,-49,26,54,-9,-38,-44,-5,-3
-34,34,68,-1,-51,51,42,9,-23,-20,14,4
22,60,38,-41,-9,49,24,26,-7,3,29,14
24,33,9,-29,7,21,-33,-9,-42,-22,14,8
30,-5,-35,-12,32,-20,-85,-64,-92,-57,-6,-8
24,-35,-60,6,42,-47,-103,-117,-143,-96,-14,-18
9,-36,-44,14,27,-40,-79,-128,-148,-108,-26,-10
-4,-35,-30,20,13,-32,-57,-123,-140,-111,-36,-16
-39,-79,-39,59,0,-59,-60,-126,-155,-129,-63,-54
-50,-98,-47,74,-1,-72,-55,-125,-158,-136,-69,-59
-35,-92,-57,63,12,-74,-51,-125,-176,-160,-75,-63
-28,-79,-50,54,11,-64,-52,-120,-175,-159,-77,-68
-21,-70,-50,46,15,-60,-45,-113,-174,-151,-71,-66
-32,-78,-46,56,7,-62,-41,-105,-171,-156,-102,-91
-62,-86,-24,74,-18,-55,-30,-101,-169,-139,-99,-80
-68,-126,-58,97,-5,-92,-22,-88,-167,-156,-118,-90
-13,-124,-111,69,49,-117,-21,-90,-137,-168,-102,-66
26,-115,-141,45,84,-128,92,236,94,-40,-93,-83
157,153,-4,-155,81,74,229,734,746,562,272,154
569,612,43,-591,263,327,-299,-43,768,1495,1243,845
946,1081,135,-1014,405,608,-1661,-1953,-301,1845,2067,1532
801,1208,407,-1004,197,807,-2069,-2609,-1141,932,1901,1711
309,547,238,-428,35,392,-1114,-1623,-1152,-299,773,974
31,109,78,-70,-24,93,-417,-699,-672,-475,44,243
-43,21,63,11,-53,42,-123,-262,-294,-249,-90,17
-87,-106,-19,96,-34,-62,49,-11,-114,-168,-148,-85
-75,-107,-32,91,-21,-69,92,65,-30,-115,-127,-91
-72,-139,-68,106,-2,-103,129,105,-31,-135,-163,-133
-58,-121,-63,90,3,-92,128,126,3,-111,-160,-145
-67,-125,-58,96,-4,-91,147,148,10,-114,-159,-142
-108,-159,-51,134,-28,-105,158,178,34,-103,-159,-126
-115,-159,-44,137,-35,-101,147,188,55,-98,-145,-139
-126,-162,-36,144,-45,-99,164,212,70,-96,-170,-185
-111,-157,-47,134,-32,-102,192,231,88,-86,-208,-184
-101,-163,-62,132,-19,-112,193,254,98,-84,-211,-185
-101,-157,-56,129,-22,-106,198,285,128,-73,-209,-185
-115,-158,-43,137,-36,-101,223,329,163,-52,-210,-177
-139,-177,-39,158,-50,-108,237,366,198,-39,-213,-200
-104,-170,-65,137,-19,-117,267,411,249,-26,-227,-212
-118,-160,-42,139,-38,-101,311,480,304,15,-237,-208
-146,-153,-7,150,-69,-80,340,540,359,37,-255,-235
-141,-149,-9,145,-66,-79,368,591,421,56,-257,-249
-152,-151,1,151,-76,-75,391,632,471,96,-251,-250
-153,-140,13,146,-83,-64,398,659,516,120,-251,-230
-119,-125,-5,122,-57,-65,388,674,550,133,-248,-211
-111,-98,13,104,-62,-42,382,680,571,163,-225,-206
-105,-73,31,89,-68,-21,339,619,548,162,-204,-174
-54,-50,4,52,-28,-23,253,490,450,147,-148,-126
-13,-20,-7,17,-2,-13,163,333,310,118,-77,-87
20,-1,-21,-9,21,-11,74,172,158,52,-52,-62
25,3,-22,-14,23,-9,20,50,44,-10,-50,-42
24,12,-12,-18,18,0,-6,-14,-23,-50,-49,-23
34,20,-14,-27,23,3,-15,-28,-54,-55,-46,9
-8,-11,-3,10,-3,-7,-18,-51,-79,-73,-44,4
-44,-50,-6,47,-19,-27,-26,-76,-89,-90,-47,-26
-29,-19,10,24,-19,-4,-17,-70,-82,-83,-50,-40
4,20,16,-12,-6,18,-10,-64,-97,-86,-49,-52
12,4,-7,-8,9,-1,1,-59,-105,-85,-67,-47
-24,0,24,12,-24,12,3,-53,-95,-85,-76,-44
-52,-27,25,39,-39,-1,-7,-51,-90,-86,-68,-43
-75,-68,7,71,-41,-30,-6,-47,-82,-87,-66,-37
-42,-48,-6,45,-18,-26,-2,-45,-76,-85,-68,-43
-25,-34,-8,30,-8,-21,1,-41,-88,-81,-70,-35
-50,-27,24,38,-37,-1,5,-41,-97,-80,-72,-50
-10,-13,-2,11,-3,-7,10,-39,-94,-75,-76,-75
17,-9,-26,-4,22,-17,7,-42,-96,-74,-74,-47
11,16,6,-14,2,11,0,-38,-94,-92,-70,-17
21,21,0,-21,10,10,-11,-47,-97,-103,-68,-40
8,-23,-31,8,20,-27,-25,-82,-113,-103,-64,-72
-33,-38,-6,35,-13,-22,-25,-86,-115,-107,-62,-64
-7,-2,5,4,-6,2,-25,-84,-115,-109,-60,-57
-10,6,15,2,-13,11,-25,-86,-115,-112,-55,-52
-41,-5,37,23,-39,16,-25,-84,-116,-116,-48,-43
-2,-8,-6,5,2,-6,-23,-84,-113,-109,-39,-40
11,0,-11,-5,11,-6,0,-54,-91,-85,-42,-25
10,63,54,-37,-22,58,41,-26,-62,-57,-34,-18
22,102,81,-62,-30,91,61,-8,-38,-45,-4,-14
29,93,64,-61,-18,78,51,12,-28,-46,4,-15
28,88,60,-58,-16,74,9,3,-24,-53,-7,-8
10,48,37,-29,-14,42,-29,-29,-41,-52,-18,-12
29,13,-16,-21,22,-2,-63,-89,-108,-73,-43,-35
67,10,-57,-38,62,-24,-105,-134,-164,-112,-66,-1
49,-4,-53,-22,51,-28,-90,-132,-143,-99,-65,-15
16,-4,-21,-6,19,-12,-58,-135,-131,-101,-67,-63
-21,-28,-7,25,-7,-17,-51,-137,-149,-123,-83,-59
-67,-67,0,67,-33,-34,-48,-141,-149,-127,-76,-49
-58,-70,-12,64,-23,-41,-51,-142,-167,-152,-91,-58
-40,-57,-17,49,-12,-37,-51,-148,-168,-148,-91,-37
-27,-62,-35,44,4,-48,-48,-139,-161,-151,-77,-59
-2,-49,-47,26,23,-48,-54,-137,-161,-147,-101,-87
-35,-50,-15,43,-10,-33,-33,-125,-150,-141,-129,-47
-63,-62,2,62,-32,-30,-33,-110,-157,-149,-138,-60
-30,-81,-51,55,11,-66,13,-26,-98,-113,-111,-72
36,-12,-49,-12,43,-31,189,484,369,146,-27,-30
277,363,86,-320,95,224,159,624,894,927,611,415
697,813,117,-755,290,464,-798,-847,339,1758,1660,1166
889,1227,338,-1058,275,782,-2031,-2548,-818,1640,2199,1715
570,988,418,-779,76,703,-1734,-2347,-1280,403,1512,1481
119,289,169,-204,-25,229,-714,-1152,-969,-485,361,606
-43,96,139,-27,-92,118,-268,-492,-483,-375,-48,110
-91,-29,62,60,-76,16,-20,-159,-213,-214,-131,-57
-101,-109,-8,105,-46,-58,80,23,-68,-155,-134,-126
-59,-90,-31,75,-14,-60,112,74,-21,-134,-147,-135
-89,-141,-52,115,-18,-96,144,110,-2,-134,-189,-159
-96,-129,-33,113,-31,-81,140,124,27,-117,-165,-156
-88,-128,-39,108,-24,-83,159,150,35,-123,-182,-167
-93,-121,-27,107,-33,-74,161,168,49,-112,-171,-157
-79,-124,-46,102,-16,-85,167,184,63,-106,-176,-162
-92,-127,-35,110,-28,-81,181,202,82,-89,-180,-174
-97,-118,-21,108,-37,-69,198,236,109,-78,-184,-177
-100,-132,-32,116,-33,-82,212,274,144,-68,-195,-195
-77,-129,-52,103,-12,-90,221,298,158,-57,-211,-193
-68,-115,-47,92,-11,-81,238,335,181,-48,-218,-199
-81,-114,-33,98,-24,-73,260,389,231,-29,-213,-218
-101,-121,-21,111,-40,-71,296,441,280,8,-218,-214
-159,-159,0,160,-79,-79,329,487,329,21,-238,-243
-118,-137,-19,128,-49,-78,362,561,392,42,-232,-252
-145,-122,22,134,-83,-50,410,626,465,99,-217,-253
-202,-138,64,169,-132,-37,419,660,515,122,-232,-271
-135,-94,41,114,-87,-26,410,688,548,137,-238,-254
-119,-84,35,101,-77,-24,405,697,589,170,-214,-215
-80,-70,10,75,-45,-30,378,684,586,180,-177,-206
-10,-24,-14,17,2,-19,322,600,542,171,-141,-196
-3,-18,-15,11,6,-16,236,458,436,157,-93,-118
-8,-24,-16,16,4,-19,142,293,268,118,-43,-59
-6,-18,-12,12,3,-14,55,140,132,56,-9,-39
1,-9,-10,4,6,-10,15,51,33,8,-4,-32
1,-9,-10,4,6,-9,4,3,-25,-24,-10,-37
11,5,-6,-8,9,0,-18,-31,-58,-68,-11,-33
9,15,6,-12,2,10,-31,-49,-73,-90,-17,-36
-31,-18,13,24,-22,-2,-28,-48,-69,-89,-19,-34
-12,-6,6,9,-9,0,-22,-44,-71,-90,-21,-42
13,12,-1,-12,7,5,-19,-41,-70,-90,-18,-56
7,3,-4,-5,6,-1,-14,-37,-70,-90,-25,-51
-12,-6,7,9,-9,1,-10,-34,-71,-91,-29,-46
-4,-13,-9,9,3,-11,-1,-28,-76,-96,-37,-39
42,-5,-47,-18,45,-26,13,-22,-81,-101,-61,-37
-3,-40,-37,21,17,-38,20,-18,-85,-104,-59,-66
-13,-47,-34,30,11,-40,28,-11,-82,-105,-68,-71
-7,-30,-23,19,8,-26,34,-6,-79,-105,-73,-46
-47,-32,16,39,-31,-8,26,-11,-81,-105,-58,-48
-43,-21,22,32,-32,1,13,-23,-80,-105,-64,-63
-31,-21,10,26,-20,-5,3,-36,-80,-105,-64,-61
-2,-8,-6,5,2,-7,-3,-40,-81,-106,-56,-53
-32,-26,6,29,-19,-10,-7,-55,-88,-110,-54,-49
-70,-45,24,57,-47,-11,-12,-72,-94,-109,-48,-43
-47,-30,17,39,-32,-6,-16,-69,-92,-113,-45,-39
-26,-21,5,23,-15,-7,-22,-70,-86,-114,-50,-34
-23,-6,17,14,-20,6,-28,-78,-83,-117,-49,-31
-30,3,33,13,-31,18,-16,-64,-78,-101,-52,-20
-5,43,47,-19,-26,45,17,-34,-45,-69,-26,4
0,85,84,-43,-42,84,41,-6,-20,-47,7,18
18,88,70,-54,-26,79,43,25,-12,-39,17,33
36,74,38,-55,-1,55,3,5,-13,-41,28,43
50,62,12,-56,19,36,-49,-27,-32,-38,21,39
76,36,-40,-56,58,-2,-80,-77,-96,-80,5,30
34,-14,-48,-10,41,-31,-92,-133,-160,-124,-23,26
11,-25,-36,7,24,-30,-74,-125,-161,-117,-28,15
-3,-33,-31,18,14,-32,-51,-122,-165,-124,-41,-18
-31,-59,-28,45,-1,-43,-52,-117,-169,-141,-72,-28
-54,-77,-23,66,-16,-50,-63,-113,-170,-150,-66,-49
-81,-92,-11,87,-35,-52,-65,-111,-186,-170,-111,-81
-31,-79,-48,55,9,-63,-70,-133,-182,-171,-123,-54
-12,-90,-78,51,33,-83,-69,-140,-180,-168,-116,-50
-9,-80,-71,45,32,-75,-78,-129,-175,-169,-126,-50
-14,-91,-77,53,32,-84,-70,-131,-172,-159,-110,-67
-40,-125,-85,82,23,-104,-76,-101,-169,-180,-134,-97
-10,-118,-108,64,49,-113,-41,-64,-147,-186,-111,-65
10,-84,-94,37,52,-89,127,382,236,27,-77,-69
213,251,38,-232,88,144,151,619,801,707,424,289
581,677,96,-630,242,387,-687,-732,321,1544,1441,1010
823,1112,289,-968,267,700,-1977,-2535,-794,1739,2151,1643
629,1059,430,-844,99,744,-1922,-2593,-1294,717,1784,1646
186,384,198,-285,-6,291,-897,-1377,-1089,-401,610,818
-21,99,119,-39,-70,108,-341,-573,-578,-436,-6,181
-55,-2,53,28,-54,26,-85,-205,-256,-236,-107,-7
-30,-96,-66,64,18,-81,63,30,-92,-171,-147,-78
-70,-134,-64,103,-3,-99,96,72,-43,-131,-150,-114
-88,-160,-72,125,-8,-115,121,127,-28,-140,-188,-144
-53,-127,-74,90,11,-100,126,154,19,-113,-170,-141
-70,-153,-83,111,7,-117,139,170,28,-117,-185,-151
-62,-137,-76,100,7,-106,154,205,58,-101,-183,-138
-69,-143,-74,107,2,-108,160,211,63,-95,-185,-136
-63,-134,-71,98,4,-102,179,241,90,-88,-192,-128
-70,-140,-69,105,0,-104,192,274,118,-77,-189,-162
-105,-181,-75,143,-15,-128,189,289,122,-73,-210,-186
-83,-157,-75,120,-4,-116,205,322,152,-61,-225,-176
-73,-147,-75,111,1,-111,232,367,196,-43,-226,-183
-65,-141,-76,103,6,-108,259,415,237,-23,-224,-177
-68,-136,-68,103,0,-102,284,470,284,-1,-225,-194
-93,-129,-36,112,-28,-83,311,531,339,13,-233,-216
-106,-122,-16,114,-44,-68,359,600,403,54,-243,-216
-148,-158,-10,154,-69,-84,394,653,465,91,-255,-215
-147,-147,0,147,-74,-73,405,706,518,99,-239,-217
-126,-118,8,121,-67,-54,409,746,579,141,-216,-225
-127,-105,22,116,-74,-41,413,761,624,177,-215,-226
-82,-66,16,74,-49,-25,397,749,626,196,-199,-201
-40,-43,-3,42,-18,-23,329,671,593,203,-153,-157
-56,-52,4,54,-30,-24,237,522,484,186,-109,-108
-37,-30,7,33,-22,-11,132,329,305,145,-72,-58
32,19,-13,-26,23,3,50,170,157,80,-26,-19
81,39,-42,-60,61,-1,-1,60,49,26,-19,-11
79,27,-52,-53,65,-12,-39,-9,-32,-7,-41,-28
55,7,-49,-31,52,-21,-47,-41,-73,-38,-47,-38
50,-2,-52,-24,51,-27,-54,-66,-89,-65,-44,-32
27,-28,-56,1,42,-42,-42,-78,-94,-72,-40,-31
26,6,-21,-16,23,-7,-34,-80,-89,-67,-37,-28
40,37,-3,-38,21,16,-61,-81,-83,-65,-32,-24
30,-9,-39,-10,35,-24,-60,-74,-79,-62,-30,-28
5,-23,-28,9,17,-25,-42,-52,-71,-59,-36,-29
-19,-24,-5,22,-7,-14,-35,-39,-73,-67,-42,-35
-9,-33,-23,21,7,-28,-27,-41,-80,-76,-46,-34
-5,-31,-27,18,11,-29,-21,-38,-80,-78,-44,-41
-4,-27,-24,16,10,-25,-14,-35,-81,-82,-45,-39
7,-18,-24,6,16,-21,-8,-35,-85,-89,-45,-30
-43,-42,1,43,-22,-20,-3,-38,-85,-90,-44,-75
-61,-84,-24,72,-18,-54,-4,-43,-85,-91,-64,-79
-14,-84,-69,49,28,-76,-5,-47,-85,-97,-76,-59
-17,-68,-51,43,18,-59,-6,-51,-86,-106,-68,-62
-10,-56,-46,34,18,-51,-10,-58,-93,-113,-63,-49
-16,-51,-35,34,10,-43,-10,-61,-100,-116,-59,-54
-27,-36,-10,32,-8,-23,-13,-59,-101,-113,-49,-54
-8,-45,-37,27,15,-41,-27,-79,-110,-120,-59,-58
-36,-71,-36,54,0,-54,-23,-89,-113,-124,-94,-67
-39,-42,-3,41,-18,-22,-15,-80,-109,-119,-85,-43
1,-7,-8,3,5,-7,-4,-69,-95,-106,-53,-22
16,44,28,-30,-6,36,37,-28,-52,-65,-31,-9
24,82,58,-53,-18,70,54,-7,-36,-44,-20,5
18,85,67,-52,-24,76,47,3,-42,-46,-14,18
37,86,50,-61,-7,68,11,-5,-37,-37,-5,19
41,37,-4,-39,22,16,-37,-47,-52,-52,-12,-8
-14,-26,-12,20,-1,-18,-68,-99,-114,-104,-33,-26
-22,-63,-41,43,10,-52,-87,-142,-165,-143,-47,-26
-6,-65,-59,36,27,-62,-68,-139,-164,-145,-43,-18
-23,-69,-45,46,12,-57,-49,-136,-165,-145,-55,-27
-44,-92,-48,69,2,-70,-39,-133,-165,-146,-83,-53
-42,-88,-46,65,2,-67,-27,-131,-164,-143,-82,-58
-40,-92,-52,66,6,-72,-25,-127,-165,-147,-88,-64
-51,-93,-42,73,-5,-67,-23,-126,-158,-147,-85,-67
-57,-101,-44,79,-7,-72,-17,-122,-162,-155,-94,-83
-52,-90,-38,71,-7,-64,-19,-119,-170,-153,-87,-84
-48,-81,-33,65,-8,-56,-11,-118,-185,-160,-95,-76
-46,-97,-51,72,3,-74,-14,-113,-178,-166,-120,-78
-16,-118,-102,67,43,-110,24,-61,-139,-159,-107,-108
36,-49,-84,7,60,-66,212,463,322,93,-74,-77
231,300,69,-266,81,184,149,483,750,755,476,322
602,693,91,-648,255,392,-907,-1157,11,1393,1377,962
830,1112,282,-971,273,697,-2150,-2717,-925,1539,2001,1561
610,1028,418,-819,96,723,-1881,-2489,-1226,592,1628,1508
183,405,222,-294,-20,313,-839,-1335,-1046,-429,531,737
-34,145,178,-56,-106,161,-309,-570,-534,-397,20,176
-91,5,96,43,-94,50,-39,-199,-229,-230,-113,-53
-94,-94,-1,94,-46,-47,93,10,-81,-160,-161,-132
-92,-115,-24,104,-34,-69,129,66,-30,-125,-149,-139
-87,-147,-60,117,-13,-103,168,119,-12,-136,-172,-170
-84,-128,-44,106,-20,-86,175,145,34,-107,-160,-165
-87,-132,-45,110,-21,-89,182,165,40,-115,-174,-169
-57,-121,-64,89,4,-93,193,186,59,-92,-164,-178
-65,-117,-52,91,-6,-84,212,214,81,-82,-153,-165
-85,-120,-35,103,-25,-77,229,250,105,-70,-151,-196
-115,-154,-39,135,-37,-96,236,258,111,-64,-184,-212
-135,-168,-33,152,-51,-101,242,282,128,-59,-193,-179
-127,-158,-31,143,-48,-94,263,318,162,-47,-188,-176
-128,-158,-30,143,-49,-94,294,365,199,-34,-191,-200
-133,-151,-18,142,-57,-84,316,413,243,-18,-206,-203
-146,-144,3,145,-74,-70,344,466,299,1,-210,-185
-154,-132,22,142,-88,-54,387,535,357,33,-206,-247
-161,-122,38,141,-99,-42,414,598,416,47,-239,-269
-148,-102,46,125,-97,-28,439,664,478,64,-242,-229
-138,-87,51,112,-94,-18,476,720,543,106,-239,-241
-131,-72,59,101,-95,-6,479,764,601,143,-241,-218
-123,-44,78,83,-101,17,470,791,647,174,-233,-225
-122,-35,87,78,-104,25,456,776,673,195,-209,-212
-73,-20,53,47,-63,17,388,701,628,198,-145,-128
9,28,19,-18,-5,23,290,542,495,183,-88,-99
61,57,-4,-59,32,26,181,350,334,144,-49,-67
58,56,-2,-57,29,26,96,188,177,92,-22,-36
76,49,-27,-62,51,11,52,74,57,34,-15,-28
72,24,-48,-48,59,-11,18,9,-3,-18,-15,-15
16,6,-11,-11,13,-2,4,-31,-50,-40,-16,-14
5,-1,-6,-2,6,-4,0,-59,-87,-52,-13,-37
-7,-11,-4,9,-1,-7,-5,-72,-90,-66,-23,-52
5,-20,-24,8,15,-22,-8,-76,-84,-70,-32,-11
20,-26,-46,3,34,-35,-14,-75,-82,-69,-24,-12
11,-25,-37,7,25,-31,-13,-76,-77,-73,-17,-20
18,-23,-41,2,30,-32,-8,-70,-75,-75,-11,-11
13,-20,-33,4,24,-26,-5,-60,-71,-75,-4,-24
7,-29,-36,12,22,-32,-2,-54,-70,-78,-1,6
-14,-51,-37,33,11,-43,3,-49,-70,-81,-28,-11
-14,-56,-41,35,14,-48,5,-44,-70,-84,-58,-40
-16,-55,-39,36,12,-47,-1,-41,-70,-87,-57,-33
-18,-54,-36,37,9,-45,-7,-35,-72,-90,-50,-31
-21,-56,-35,39,7,-45,-11,-39,-80,-91,-46,-30
-27,-54,-27,40,1,-40,-18,-46,-84,-95,-39,-23
0,-39,-40,20,20,-39,-23,-51,-92,-97,-36,-26
-44,-66,-22,56,-11,-44,-23,-72,-110,-95,-41,-61
-40,-76,-36,58,-2,-56,-16,-76,-110,-95,-48,-55
-8,-60,-52,35,22,-56,-11,-74,-110,-93,-58,-43
-32,-61,-28,47,-2,-44,-7,-76,-110,-89,-55,-47
-26,-48,-22,37,-2,-35,2,-74,-110,-91,-39,-37
-19,-36,-17,28,-1,-26,2,-75,-108,-79,-28,-38
24,17,-7,-21,16,5,32,-39,-67,-54,-19,-31
69,82,13,-76,28,47,56,-14,-34,-50,-12,-20
70,79,8,-75,31,43,40,-5,-35,-50,-6,-10
47,68,21,-58,13,45,24,-2,-34,-50,-5,32
51,63,12,-57,19,37,-11,-25,-36,-48,-5,46
56,25,-32,-40,44,-4,-60,-73,-82,-68,-10,26
41,-15,-56,-13,49,-35,-104,-147,-153,-115,-18,32
23,-33,-55,5,39,-44,-97,-167,-176,-106,-8,28
-10,-31,-21,21,5,-25,-62,-157,-174,-101,-26,14
-22,-50,-28,36,3,-39,-58,-154,-176,-142,-80,-25
-37,-74,-37,56,1,-55,-56,-147,-174,-145,-79,-48
-50,-84,-33,67,-9,-58,-50,-143,-176,-144,-73,-51
-39,-75,-37,58,-1,-55,-51,-137,-173,-147,-74,-50
-53,-86,-33,70,-10,-59,-41,-135,-165,-142,-64,-45
-69,-111,-42,90,-13,-76,-44,-129,-163,-149,-79,-49
-41,-97,-57,69,8,-77,-30,-131,-154,-131,-56,-37
-45,-114,-69,80,12,-92,-30,-117,-151,-142,-99,-80
-31,-122,-91,77,30,-106,-23,-104,-151,-153,-112,-63
12,-86,-97,37,55,-91,120,245,100,-10,-82,-64
175,185,10,-180,82,97,233,699,752,602,315,212
608,611,3,-609,302,307,-375,-212,663,1463,1256,875
921,1064,143,-993,389,603,-1751,-2114,-423,1751,2017,1523
743,1135,392,-939,175,763,-2068,-2629,-1136,876,1860,1709
314,534,219,-424,47,376,-1088,-1609,-1122,-320,749,971
10,143,133,-76,-62,138,-411,-702,-664,-465,37,279
-70,30,99,20,-84,64,-120,-269,-284,-244,-81,46
-34,-67,-33,51,-1,-49,30,-39,-132,-186,-167,-86
-41,-85,-45,63,2,-65,75,46,-46,-107,-138,-120
-82,-137,-55,110,-14,-96,124,107,-30,-125,-171,-127
-105,-149,-44,127,-30,-96,123,125,11,-107,-175,-105
-113,-158,-45,136,-34,-101,142,146,24,-109,-166,-146
-108,-161,-54,135,-27,-107,149,172,33,-103,-172,-147
-88,-149,-61,119,-13,-105,151,184,52,-97,-167,-142
-86,-143,-58,115,-14,-100,168,220,81,-86,-173,-149
-91,-145,-54,119,-19,-99,175,235,102,-65,-170,-172
-78,-131,-53,105,-12,-92,208,270,124,-59,-171,-191
-76,-124,-47,100,-14,-85,222,306,149,-42,-169,-185
-81,-143,-63,112,-9,-103,240,341,183,-19,-171,-193
-91,-153,-62,122,-14,-107,273,393,224,8,-168,-188
-105,-151,-45,128,-30,-98,284,434,266,21,-189,-192
-111,-146,-34,129,-38,-90,316,496,328,35,-210,-188
-121,-140,-20,131,-50,-80,351,556,385,52,-217,-199
-122,-133,-10,128,-56,-71,388,622,449,83,-224,-205
-126,-127,-1,127,-63,-63,407,678,511,110,-215,-194
-117,-113,4,115,-60,-55,398,692,545,124,-213,-216
-125,-107,19,116,-72,-44,390,708,580,155,-202,-217
-137,-97,40,117,-89,-28,381,706,612,186,-205,-183
-59,-37,22,48,-40,-7,346,663,585,190,-193,-148
-26,-17,8,21,-17,-4,266,543,494,184,-127,-101
-33,-27,6,30,-19,-11,169,358,344,153,-80,-67
10,-7,-17,-1,14,-12,84,207,188,95,-40,-47
30,-13,-43,-8,36,-28,30,87,71,45,-10,-39
21,-32,-53,6,38,-43,18,7,-10,-3,-8,-41
62,0,-61,-30,62,-30,12,-23,-33,-27,-4,-37
32,-1,-33,-15,32,-17,2,-50,-54,-26,-14,-35
-19,-40,-21,30,1,-30,-4,-68,-81,-46,-33,-35
34,-27,-62,-3,48,-44,-11,-64,-83,-57,-38,-32
42,-13,-55,-14,48,-33,-19,-59,-76,-52,-11,-29
63,18,-45,-40,54,-14,-27,-55,-69,-49,-18,-29
66,21,-45,-43,56,-12,-28,-50,-63,-57,-38,-23
10,-19,-29,5,20,-24,-24,-45,-55,-101,-24,-30
2,-27,-29,13,16,-28,-26,-42,-59,-130,-59,-51
17,4,-12,-10,15,-4,-25,-39,-63,-136,-78,-48
5,-2,-7,-2,6,-4,-26,-44,-74,-140,-64,-55
-13,-23,-9,18,-2,-16,-25,-55,-84,-135,-64,-58
-13,-13,0,13,-6,-6,-20,-55,-87,-132,-55,-32
-21,-37,-16,29,-2,-26,-15,-55,-90,-129,-51,-11
-28,-38,-10,33,-9,-24,-10,-55,-87,-124,-54,-41
3,-29,-32,13,18,-30,-7,-55,-105,-121,-58,-62
18,-27,-46,5,32,-36,1,-53,-113,-117,-55,-22
29,-5,-34,-11,32,-20,-11,-45,-108,-111,-52,-16
50,0,-50,-25,50,-24,-25,-40,-112,-104,-50,-12
52,9,-43,-30,47,-17,-13,-32,-108,-97,-45,-37
39,9,-30,-24,34,-10,-6,-27,-112,-92,-46,-49
7,28,21,-18,-7,24,6,-20,-95,-71,-33,1
28,86,59,-58,-16,72,37,-10,-57,-44,-5,6
62,112,50,-87,6,81,55,6,-29,-32,19,25
57,107,50,-82,3,79,41,31,-17,-26,23,41
82,126,44,-105,19,85,0,1,-27,-21,8,25
64,91,27,-78,18,59,-47,-46,-63,-42,-5,15
30,29,-1,-30,15,14,-80,-94,-121,-95,-21,-17
77,26,-51,-51,64,-12,-94,-133,-159,-131,-44,-33
43,21,-22,-32,32,-1,-82,-129,-161,-135,-57,-29
13,7,-6,-10,9,1,-62,-126,-159,-135,-50,-30
7,-23,-30,8,19,-26,-55,-123,-161,-135,-55,-31
-39,-45,-6,42,-16,-25,-48,-121,-160,-149,-71,-57
-23,-37,-14,30,-4,-25,-44,-116,-160,-165,-92,-87
-37,-53,-16,45,-10,-34,-39,-129,-167,-166,-78,-67
-60,-83,-24,72,-18,-53,-29,-129,-176,-173,-85,-78
-42,-66,-24,54,-9,-45,-40,-123,-166,-169,-73,-54
-43,-74,-31,59,-6,-52,-30,-104,-160,-179,-74,-72
-42,-91,-49,67,4,-70,-30,-107,-164,-171,-101,-97
-2,-101,-99,52,49,-99,33,46,-43,-112,-104,-99
86,48,-38,-67,62,5,219,609,527,267,45,-15
349,429,80,-389,134,254,49,461,919,1156,843,577
772,897,126,-835,323,511,-1117,-1268,123,1863,1867,1318
841,1260,420,-1051,210,840,-2100,-2644,-966,1451,2178,1764
435,813,378,-624,28,595,-1486,-2066,-1239,107,1258,1313
93,202,109,-148,-8,155,-574,-956,-850,-539,181,420
-36,65,101,-15,-69,83,-216,-405,-397,-324,-52,49
-97,-76,20,86,-58,-28,7,-96,-172,-208,-143,-111
-94,-107,-14,101,-40,-60,79,38,-64,-158,-181,-108
-92,-117,-25,105,-33,-71,112,88,-30,-145,-167,-119
-99,-122,-23,111,-38,-72,128,114,0,-133,-183,-157
-81,-122,-41,102,-20,-81,140,141,6,-125,-168,-150
-95,-164,-69,130,-13,-117,158,163,18,-125,-180,-182
-114,-168,-54,141,-30,-111,156,171,48,-114,-172,-178
-110,-173,-63,141,-23,-118,161,196,57,-112,-176,-179
-113,-170,-56,142,-28,-113,162,211,67,-112,-199,-190
-142,-181,-39,162,-51,-110,180,243,93,-108,-215,-203
-149,-163,-14,156,-67,-88,198,281,140,-67,-198,-175
-149,-155,-6,152,-71,-81,231,327,180,-48,-199,-188
-164,-167,-3,166,-80,-85,256,364,209,-28,-202,-207
-160,-147,12,153,-86,-67,275,407,250,-8,-196,-185
-177,-153,23,165,-100,-65,305,459,293,-6,-222,-222
-164,-149,15,156,-89,-67,332,506,344,18,-242,-246
-144,-133,11,138,-77,-61,366,572,411,59,-242,-229
-173,-152,20,162,-96,-66,398,626,470,94,-237,-234
-165,-147,18,156,-92,-64,408,650,511,107,-252,-259
-140,-117,23,129,-82,-47,407,684,556,131,-260,-243
-144,-107,37,126,-91,-35,406,695,591,168,-221,-212
-102,-94,8,98,-55,-42,365,652,579,174,-196,-207
-33,-61,-28,47,-2,-44,280,556,507,162,-169,-165
-18,-34,-16,26,-1,-24,181,402,372,141,-103,-106
-46,-37,9,41,-27,-14,97,245,229,99,-61,-57
-49,-33,16,41,-32,-8,37,118,101,34,-57,-37
-35,-31,3,33,-19,-14,-7,28,0,-32,-54,-34
-31,-30,2,30,-16,-14,-15,-28,-58,-65,-49,-37
-7,-26,-18,17,6,-22,-19,-51,-79,-79,-50,-50
-15,-58,-43,37,14,-50,-30,-71,-96,-101,-45,-50
-19,-53,-34,37,7,-43,-25,-79,-102,-106,-44,-50
9,-37,-46,14,28,-41,-20,-71,-99,-105,-64,-50
-17,-40,-23,29,3,-31,-15,-72,-101,-110,-72,-51
-41,-52,-11,47,-15,-32,-8,-67,-100,-110,-65,-48
-29,-56,-27,43,-1,-41,-4,-66,-99,-109,-65,-50
-22,-47,-25,35,2,-36,3,-62,-95,-105,-60,-68
-36,-60,-23,49,-6,-41,9,-60,-93,-105,-60,-48
-48,-50,-2,50,-23,-26,6,-60,-90,-103,-65,-40
-21,-43,-22,32,1,-32,5,-57,-87,-99,-68,-72
-2,-36,-34,19,16,-35,4,-55,-85,-100,-73,-71
-3,-25,-22,14,9,-23,-2,-56,-89,-103,-75,-63
-32,-55,-23,43,-4,-39,-6,-60,-91,-106,-75,-59
-40,-54,-14,47,-13,-33,-11,-60,-90,-109,-75,-54
-25,-39,-14,32,-5,-26,-15,-62,-90,-112,-75,-55
-51,-55,-3,53,-24,-29,-20,-65,-90,-114,-75,-54
-50,-51,-2,50,-24,-26,-16,-66,-98,-115,-75,-56
-30,-48,-17,39,-6,-32,-5,-61,-107,-107,-75,-54
-36,-42,-6,39,-14,-24,4,-47,-113,-109,-73,-57
-24,-24,0,24,-12,-12,16,-33,-95,-89,-45,-40
-20,9,29,5,-25,19,31,-18,-58,-57,-18,-11
-17,51,68,-17,-43,59,56,6,-37,-54,-7,8
26,81,55,-54,-15,68,46,29,-25,-56,4,3
49,88,39,-69,5,63,7,15,-25,-60,-2,0
36,49,12,-43,12,30,-28,-27,-55,-58,-19,12
43,10,-33,-26,38,-12,-76,-99,-122,-88,-38,-18
24,-26,-49,1,37,-37,-90,-142,-174,-124,-58,-44
2,-39,-41,19,22,-40,-68,-125,-175,-105,-52,-32
3,-30,-33,14,19,-31,-48,-125,-175,-113,-63,-30
-27,-58,-32,42,3,-45,-49,-125,-180,-138,-75,-64
-37,-64,-27,51,-5,-45,-50,-128,-180,-140,-78,-67
-34,-68,-34,51,0,-50,-50,-130,-180,-163,-119,-67
-52,-78,-26,65,-13,-52,-51,-131,-173,-164,-94,-62
-53,-87,-34,70,-9,-61,-48,-125,-172,-167,-84,-67
-41,-67,-26,54,-7,-46,-53,-123,-167,-162,-103,-65
-64,-78,-14,71,-25,-45,-34,-116,-162,-167,-99,-59
-51,-111,-60,81,5,-85,-44,-115,-166,-165,-103,-95
7,-95,-102,44,55,-98,22,9,-85,-118,-123,-95
47,3,-44,-25,45,-20,194,554,428,172,-11,-30
287,365,79,-326,104,222,74,503,854,980,707,464
717,822,105,-770,306,463,-999,-1153,130,1740,1703,1209
833,1210,378,-1022,227,794,-2103,-2657,-938,1570,2182,1728
455,889,434,-672,10,662,-1638,-2245,-1283,314,1444,1424
99,229,130,-164,-15,179,-681,-1093,-959,-536,278,514
-33,87,121,-27,-77,104,-254,-474,-459,-374,-74,82
-84,-61,23,72,-53,-19,-17,-145,-204,-227,-129,-79
-82,-147,-64,115,-8,-105,70,28,-70,-162,-144,-126
-88,-130,-41,109,-23,-85,104,72,-27,-142,-136,-107
-86,-152,-66,119,-10,-109,123,112,-6,-144,-174,-168
-82,-136,-54,109,-14,-95,145,135,21,-121,-188,-173
-77,-138,-61,108,-8,-99,154,154,36,-123,-186,-177
-77,-122,-45,100,-16,-83,161,166,67,-103,-174,-174
-51,-117,-66,84,8,-91,171,177,69,-101,-196,-176
-42,-110,-68,76,13,-88,175,212,92,-86,-186,-174
-61,-106,-45,84,-8,-75,184,246,113,-79,-183,-173
-63,-112,-50,88,-6,-81,201,284,144,-73,-166,-164
-89,-126,-37,108,-25,-81,239,320,180,-65,-186,-192
-87,-135,-47,111,-20,-91,247,347,199,-60,-208,-213
-88,-154,-66,122,-11,-110,268,395,242,-41,-198,-210
-94,-141,-48,118,-23,-94,294,445,291,-13,-218,-210
-92,-109,-16,101,-38,-62,323,509,354,21,-232,-207
-125,-121,4,123,-64,-59,366,579,411,41,-237,-253
-113,-107,6,109,-59,-51,393,634,474,82,-206,-258
-104,-101,3,102,-53,-49,419,684,530,122,-227,-251
-94,-78,16,86,-55,-31,419,707,566,137,-238,-224
-79,-61,18,69,-48,-21,414,707,611,181,-192,-199
-103,-96,7,99,-54,-44,383,682,612,193,-187,-207
-56,-54,2,55,-29,-26,306,594,553,189,-141,-148
-8,-16,-8,13,0,-12,213,443,425,174,-80,-94
-1,-3,-2,2,1,-3,123,273,267,122,-29,-51
15,10,-5,-12,9,3,43,123,121,60,-2,-34
51,20,-31,-35,41,-5,-5,33,34,6,-18,-14
74,45,-29,-59,51,8,-5,-9,-16,-23,-23,28
-2,-16,-14,10,6,-15,-26,-53,-69,-66,-32,20
-24,-40,-16,32,-4,-28,-40,-68,-82,-84,-45,15
7,-26,-33,10,20,-30,-31,-62,-78,-75,-37,7
10,-32,-42,11,26,-37,-32,-61,-76,-74,-37,1
21,-18,-40,-1,31,-28,-27,-57,-72,-69,-41,-6
7,-27,-34,11,20,-30,-25,-55,-70,-65,-39,-32
38,7,-31,-23,34,-11,-23,-53,-70,-69,-41,-32
25,-18,-44,-3,35,-31,-20,-49,-70,-83,-44,-25
-24,-60,-36,43,6,-48,-17,-47,-71,-85,-46,-30
8,-20,-28,6,18,-24,-14,-44,-69,-86,-48,-30
-6,-38,-32,22,13,-34,-11,-41,-72,-91,-51,-29
-18,-45,-27,32,5,-35,-10,-40,-79,-90,-51,-31
-8,-33,-25,21,9,-29,-15,-45,-82,-95,-58,-28
-9,-33,-24,21,8,-28,-20,-45,-75,-99,-59,-35
3,-17,-20,7,11,-18,-25,-44,-76,-97,-56,-34
-29,-49,-20,39,-4,-35,-29,-67,-96,-109,-69,-29
-23,-64,-40,44,9,-52,-34,-79,-101,-113,-61,-24
-3,-37,-34,20,16,-36,-33,-72,-95,-103,-52,-17
-6,-23,-17,15,6,-19,-18,-68,-93,-98,-57,-15
-4,-15,-11,10,4,-13,-10,-66,-90,-91,-51,0
-8,27,35,-10,-22,31,22,-45,-66,-72,-34,-17
8,72,64,-40,-28,68,47,-18,-31,-49,-17,6
26,76,51,-51,-13,63,35,-6,-12,-44,-8,49
62,96,33,-79,15,64,24,2,-13,-47,2,44
53,64,11,-58,20,37,-22,-25,-34,-42,13,41
30,6,-24,-18,27,-9,-73,-86,-86,-74,5,26
56,-22,-78,-16,67,-50,-81,-136,-145,-116,-5,7
42,-31,-73,-5,58,-52,-69,-142,-151,-114,-24,-31
17,-22,-40,3,29,-31,-54,-136,-149,-117,-54,-36
4,-48,-52,22,28,-50,-49,-135,-162,-134,-77,-36
-19,-74,-55,47,18,-64,-51,-130,-165,-144,-82,-57
-46,-100,-54,73,4,-76,-46,-130,-169,-152,-85,-63
-53,-101,-47,77,-3,-74,-46,-142,-170,-156,-94,-65
-51,-93,-42,72,-4,-67,-43,-146,-175,-164,-90,-66
-57,-98,-41,77,-7,-69,-43,-134,-177,-169,-99,-72
-52,-83,-31,68,-10,-57,-29,-140,-181,-156,-72,-53
-33,-101,-68,67,18,-84,-23,-119,-184,-167,-99,-95
-23,-116,-94,70,35,-105,-16,-111,-178,-179,-115,-63
10,-100,-110,46,60,-105,123,262,132,-34,-101,-67
172,186,14,-179,79,99,230,655,729,539,248,151
455,584,128,-520,163,356,-449,-461,408,1310,1148,817
797,1012,215,-905,291,613,-1833,-2347,-645,1707,1958,1452
743,1157,414,-950,164,785,-2094,-2725,-1204,1033,1919,1685
265,564,299,-415,-17,431,-1109,-1674,-1162,-212,877,1022
-5,159,164,-77,-85,161,-421,-731,-680,-477,77,274
-85,29,114,28,-99,71,-108,-282,-288,-246,-92,46
-84,-101,-17,93,-34,-59,61,-31,-117,-160,-148,-88
-74,-118,-43,96,-15,-80,113,62,-30,-89,-147,-133
-73,-127,-54,100,-9,-90,151,111,-12,-106,-172,-148
-61,-109,-48,85,-6,-78,169,159,31,-85,-163,-147
-121,-172,-51,147,-35,-111,199,167,36,-92,-181,-156
-124,-174,-49,149,-37,-112,196,186,62,-84,-180,-166
-113,-157,-44,136,-35,-100,200,211,80,-80,-173,-188
-116,-161,-46,139,-35,-104,205,234,90,-79,-172,-167
-105,-144,-39,124,-32,-92,198,255,105,-69,-173,-157
-107,-147,-41,127,-33,-94,215,273,124,-66,-203,-200
-95,-130,-36,113,-29,-83,242,321,169,-56,-192,-199
-96,-120,-24,108,-36,-72,276,377,210,-51,-194,-206
-132,-147,-16,140,-58,-81,296,410,240,-33,-208,-201
-153,-157,-4,155,-74,-80,318,460,280,-12,-198,-215
-148,-141,7,144,-77,-67,360,529,335,7,-215,-239
-153,-134,19,143,-85,-57,406,596,398,33,-233,-234
-157,-123,34,140,-96,-44,435,654,464,59,-229,-235
-148,-112,36,130,-92,-38,456,701,517,85,-234,-230
-161,-107,55,134,-108,-26,481,766,590,139,-234,-231
-161,-99,62,130,-111,-18,472,780,637,172,-237,-224
-127,-83,44,105,-85,-19,460,758,640,181,-210,-185
-88,-47,41,67,-64,-3,404,700,606,197,-156,-157
-43,-17,27,30,-35,5,286,555,499,180,-111,-116
-26,3,29,11,-27,16,189,377,352,136,-65,-61
-25,15,40,4,-32,27,103,205,189,79,-33,-47
-13,10,23,1,-19,17,48,81,65,16,-23,-50
38,33,-6,-35,22,13,14,2,-16,-27,-25,-53
-14,-15,-1,14,-6,-8,-19,-46,-78,-65,-26,-54
-75,-45,31,60,-53,-7,-41,-65,-100,-91,-23,-45
-29,-9,19,19,-24,4,-47,-65,-100,-90,-32,-42
-42,-34,9,38,-25,-12,-44,-60,-100,-89,-41,-34
-30,-38,-8,34,-11,-22,-45,-59,-100,-86,-38,-41
-27,-24,3,26,-15,-10,-45,-55,-100,-85,-34,-36
-30,-26,5,28,-17,-10,-43,-54,-99,-85,-31,-29
21,-20,-41,0,31,-31,-33,-46,-91,-85,-25,-59
18,-6,-24,-6,21,-14,-20,-38,-83,-85,-26,-63
17,-24,-41,4,29,-32,-12,-38,-87,-85,-43,-53
-6,-42,-37,24,16,-39,-9,-41,-91,-85,-52,-48
-37,-40,-3,39,-17,-21,-6,-40,-89,-85,-52,-42
-27,-46,-18,37,-4,-32,-4,-40,-91,-89,-56,-32
-30,-47,-17,39,-6,-32,1,-40,-90,-90,-59,-45
-19,-50,-32,35,6,-41,-3,-41,-90,-90,-60,-75
-37,-49,-11,43,-13,-30,1,-46,-96,-90,-55,-72
-49,-42,8,45,-28,-17,12,-49,-93,-92,-52,-66
-23,-47,-24,35,1,-35,-4,-60,-104,-103,-48,-63
-24,-54,-30,39,3,-42,-15,-77,-110,-105,-44,-58
-5,-30,-25,18,11,-28,-31,-69,-111,-89,-41,-48
15,1,-14,-8,14,-6,-18,-42,-93,-78,-37,-36
16,45,29,-31,-7,37,27,-7,-44,-59,-24,-23
30,77,47,-54,-9,62,54,14,-24,-37,-8,-14
38,71,34,-55,1,52,49,30,0,-28,10,6
60,83,23,-72,18,53,2,18,-8,-18,35,23
53,61,8,-57,22,34,-41,-31,-62,-43,11,16
13,-10,-23,-1,18,-17,-83,-88,-113,-92,-23,2
21,-50,-72,15,47,-61,-106,-146,-160,-128,-33,-34
3,-46,-49,22,27,-47,-77,-131,-166,-142,-50,-21
-22,-32,-9,27,-6,-21,-67,-111,-164,-141,-50,-20
-24,-70,-46,47,11,-58,-72,-123,-166,-147,-73,-67
-47,-80,-33,64,-7,-56,-68,-125,-164,-139,-80,-74
-38,-69,-31,53,-3,-50,-71,-130,-167,-142,-83,-76
-54,-110,-56,82,1,-83,-70,-127,-162,-138,-95,-74
-91,-137,-46,115,-23,-91,-66,-124,-168,-142,-103,-74
-96,-128,-32,112,-31,-80,-60,-124,-161,-139,-99,-77
-106,-139,-33,123,-36,-86,-43,-117,-169,-139,-104,-111
-91,-138,-47,115,-22,-92,-44,-124,-159,-160,-110,-120
-68,-137,-69,103,0,-103,16,-23,-93,-137,-97,-105
11,-37,-48,13,29,-42,170,492,361,133,-22,-31
271,331,59,-301,106,195,73,494,825,874,605,422
713,782,69,-748,322,425,-977,-1103,167,1592,1561,1110
904,1167,262,-1036,320,714,-2160,-2644,-869,1490,2041,1645
569,937,368,-753,100,652,-1773,-2336,-1240,350,1456,1461
163,327,164,-245,-1,245,-755,-1199,-977,-489,413,641
-40,88,128,-25,-84,108,-292,-512,-479,-368,-10,139
-96,-43,53,69,-74,5,-32,-153,-209,-217,-118,7
-88,-108,-20,98,-34,-63,72,26,-73,-143,-141,-75
-78,-119,-42,99,-18,-80,107,79,-35,-127,-136,-119
-86,-155,-68,120,-9,-111,139,123,-16,-130,-167,-158
-104,-157,-53,131,-25,-105,142,132,17,-112,-159,-180
-82,-156,-74,119,-3,-115,158,152,24,-127,-144,-172
-65,-151,-86,109,11,-118,163,172,41,-112,-152,-167
-66,-146,-80,107,7,-113,177,183,49,-117,-185,-156
-46,-146,-100,97,27,-123,183,200,78,-114,-180,-174
-31,-136,-105,83,37,-120,199,243,107,-97,-186,-203
-72,-143,-71,108,0,-107,210,275,115,-74,-186,-192
-122,-183,-61,153,-30,-122,223,304,147,-61,-182,-189
-101,-169,-69,136,-16,-119,246,349,184,-54,-199,-184
-95,-157,-62,127,-17,-109,270,394,225,-27,-218,-175
-94,-160,-66,127,-14,-113,301,457,278,2,-224,-188
-87,-154,-67,121,-9,-110,325,516,331,3,-224,-219
-159,-153,6,156,-82,-73,386,599,410,53,-220,-230
-153,-150,3,152,-78,-73,425,654,466,94,-214,-233
-102,-140,-38,121,-32,-88,424,692,515,105,-210,-234
-98,-112,-14,105,-42,-62,440,738,583,152,-205,-225
-94,-97,-3,96,-45,-50,442,749,619,177,-201,-213
-72,-86,-14,79,-29,-50,419,742,622,194,-189,-174
-53,-73,-19,63,-17,-46,356,663,582,196,-160,-140
-32,-61,-29,47,-2,-45,260,506,461,179,-93,-109
19,-45,-65,13,42,-55,164,319,291,140,-36,-70
6,-36,-43,15,25,-40,80,154,133,71,-19,-57
8,-34,-41,13,25,-37,22,45,25,21,-3,-66
31,-31,-62,1,46,-46,6,-13,-26,-21,-4,-58
9,-28,-37,10,23,-33,2,-46,-66,-56,-15,-20
4,-25,-29,10,17,-26,-6,-64,-82,-68,-24,-15
3,-26,-29,12,16,-27,-12,-65,-79,-70,-36,-31
-7,-30,-23,19,8,-26,-19,-75,-81,-70,-40,-22
-8,-30,-22,19,7,-26,-17,-76,-80,-74,-40,-27
-10,-30,-20,20,5,-25,-14,-70,-80,-75,-39,-24
-36,-30,5,33,-21,-12,-16,-67,-79,-75,-41,-25
-43,-29,14,36,-29,-7,-15,-62,-77,-80,-38,-59
-31,-35,-4,33,-14,-19,-16,-57,-72,-82,-42,-43
-17,-56,-39,37,12,-47,-14,-56,-89,-96,-51,-26
2,-55,-56,27,29,-55,-10,-55,-107,-106,-47,-48
-9,-55,-45,32,18,-50,-10,-56,-104,-104,-45,-49
-19,-56,-38,38,10,-47,-8,-55,-108,-105,-39,-49
-14,-50,-36,32,11,-43,-4,-55,-111,-105,-50,-58
-54,-70,-17,62,-18,-43,-5,-68,-109,-106,-73,-66
-39,-59,-20,49,-9,-39,-9,-65,-116,-103,-92,-65
-11,-58,-47,35,19,-52,-21,-76,-123,-110,-94,-64
-60,-75,-16,68,-22,-45,-28,-89,-115,-112,-86,-66
-50,-39,11,45,-30,-14,-14,-74,-106,-96,-65,-53
-20,2,22,9,-21,12,8,-59,-89,-83,-29,-23
-5,36,40,-16,-23,38,36,-31,-62,-63,-20,-6
35,85,50,-60,-8,67,55,0,-28,-30,-16,9
59,109,50,-84,4,79,52,10,-12,-20,-1,11
63,114,51,-89,6,82,17,-16,-26,-21,7,0
53,94,42,-74,5,68,-48,-64,-67,-62,-32,-10
51,42,-9,-46,30,16,-82,-113,-122,-114,-43,-20
65,28,-37,-46,51,-5,-83,-132,-141,-116,-17,-19
55,21,-34,-37,44,-6,-71,-128,-140,-119,-39,-23
47,12,-35,-29,41,-12,-56,-126,-138,-121,-44,-15
6,-30,-35,13,21,-32,-54,-122,-148,-133,-50,-39
-52,-86,-34,70,-9,-60,-46,-119,-164,-139,-78,-73
-48,-84,-36,67,-6,-60,-44,-128,-167,-147,-103,-76
-49,-76,-27,62,-11,-51,-39,-136,-162,-149,-96,-61
-50,-81,-30,66,-10,-55,-33,-127,-168,-151,-103,-68
-45,-66,-21,56,-12,-43,-34,-127,-162,-144,-98,-54
-56,-75,-20,66,-18,-47,-19,-118,-167,-143,-98,-53
-41,-85,-44,63,2,-64,-33,-117,-180,-172,-117,-94
-17,-101,-85,59,34,-93,21,8,-85,-143,-132,-124
53,35,-19,-44,36,8,204,543,447,213,7,-41
345,435,90,-391,127,262,70,482,920,1086,780,520
779,889,110,-834,334,499,-1063,-1199,166,1810,1798,1266
875,1263,388,-1070,243,825,-2106,-2631,-901,1500,2216,1763
511,914,403,-713,54,659,-1558,-2136,-1182,197,1382,1379
107,259,152,-183,-23,205,-622,-1028,-898,-547,231,462
-71,86,157,-8,-114,121,-226,-443,-428,-345,-71,101
-117,-40,77,78,-97,19,8,-122,-191,-216,-137,-39
-136,-122,14,129,-75,-54,82,32,-75,-151,-149,-100
-97,-123,-26,111,-35,-74,107,64,-45,-133,-146,-122
-71,-128,-57,100,-6,-92,135,111,-27,-134,-180,-160
-79,-122,-43,100,-17,-82,148,133,6,-118,-186,-146
-87,-146,-59,117,-14,-102,165,154,22,-101,-199,-148
-104,-155,-50,130,-27,-102,165,174,53,-85,-185,-154
-88,-152,-64,120,-12,-108,160,174,46,-102,-188,-180
-98,-151,-53,125,-23,-102,179,209,77,-83,-181,-163
-131,-156,-26,144,-52,-91,187,234,97,-80,-178,-165
-129,-159,-30,144,-50,-94,200,257,120,-70,-190,-151
-136,-162,-26,149,-55,-94,232,300,161,-59,-211,-178
-133,-166,-32,149,-50,-99,240,333,185,-50,-199,-232
-119,-158,-39,139,-40,-98,261,378,233,-23,-221,-219
-121,-148,-27,135,-47,-87,275,418,266,-1,-250,-221
-122,-143,-21,133,-51,-82,309,483,330,30,-243,-215
-128,-138,-10,134,-59,-74,354,555,404,49,-249,-216
-136,-136,0,136,-67,-68,375,603,454,78,-251,-241
-127,-117,10,122,-68,-54,407,655,520,123,-250,-245
-110,-92,18,101,-64,-37,409,672,554,135,-246,-247
-103,-76,28,89,-65,-24,405,676,581,169,-232,-203
-85,-65,20,75,-52,-22,372,657,580,180,-194,-173
-43,-56,-14,50,-14,-35,291,557,512,162,-144,-156
-2,-23,-21,12,10,-21,211,408,390,147,-95,-90
36,1,-36,-18,36,-17,121,240,229,97,-46,-50
44,-10,-54,-17,50,-32,48,102,87,45,-33,-32
7,-13,-20,3,14,-16,4,14,1,-12,-36,-22
18,-1,-19,-8,18,-10,-18,-38,-57,-55,-34,-14
32,-7,-38,-13,36,-22,-28,-58,-90,-69,-35,-5
5,-27,-32,12,19,-29,-33,-72,-93,-82,-46,1
24,8,-16,-16,20,-4,-26,-70,-98,-93,-51,10
32,30,-2,-31,17,14,-21,-59,-99,-93,-43,-8
22,5,-17,-13,19,-6,-16,-52,-94,-106,-43,-19
6,-19,-24,7,15,-21,-9,-44,-91,-122,-36,3
-11,-32,-21,21,5,-26,-6,-39,-88,-119,-36,0
1,-6,-7,2,4,-6,-15,-34,-83,-123,-50,-27
-39,-34,5,37,-22,-14,-16,-28,-80,-125,-60,-29
-48,-38,10,43,-29,-13,-8,-22,-85,-125,-93,-27
-13,2,15,5,-13,8,-4,-22,-85,-120,-96,-21
11,-9,-20,-1,16,-15,2,-26,-85,-112,-74,-19
38,-1,-38,-18,38,-19,8,-24,-86,-115,-73,-15
7,-19,-27,6,17,-23,8,-29,-84,-118,-66,-10
15,-13,-28,0,22,-20,-3,-31,-87,-120,-63,-27
-8,-46,-38,28,15,-42,-12,-29,-87,-123,-57,-18
17,-42,-58,13,38,-50,-28,-44,-102,-126,-53,-48
10,-25,-36,7,23,-30,-26,-48,-104,-114,-46,-63
-36,-45,-8,41,-14,-26,-14,-38,-91,-91,-33,-25
23,31,9,-27,7,20,3,-28,-73,-75,-28,-21
-34,23,57,5,-46,40,37,-7,-48,-61,-6,-12
58,121,63,-90,-3,92,48,20,-36,-54,8,-1
-33,16,48,8,-41,32,28,18,-31,-56,9,-8
86,125,39,-105,23,81,-11,-14,-40,-55,-9,-16
-41,-24,17,33,-30,-4,-51,-57,-81,-87,-16,5
115,87,-28,-101,71,30,-83,-104,-143,-119,-61,19
-102,-156,-53,129,-24,-104,-91,-123,-159,-115,-41,38
