I,II,III,aVR,aVL,aVF,V1,V2,V3,V4,V5,V6
-155,-104,50,130,-102,-27,95,31,41,-683,58,-109
-147,-98,49,122,-98,-24,101,40,51,-661,73,-102
-139,-87,52,113,-95,-17,106,63,74,-619,89,-88
-142,-78,64,110,-103,-7,104,104,115,-578,123,-75
-123,-63,60,93,-92,-1,105,129,145,-527,143,-60
-97,-42,54,69,-75,6,105,161,179,-484,175,-36
-76,-26,50,51,-63,12,106,182,207,-445,202,-19
-56,-13,43,34,-49,14,98,204,233,-404,218,6
-44,-3,41,23,-42,19,83,237,266,-359,252,33
-40,5,46,17,-43,25,70,236,287,-313,281,50
-36,13,49,12,-43,31,58,229,283,-276,303,71
-20,35,55,-8,-38,45,46,223,268,-247,300,70
-13,47,60,-17,-37,53,35,192,253,-257,285,56
-33,27,60,3,-47,43,26,143,197,-287,265,49
-77,-17,60,47,-68,21,25,77,124,-332,214,33
-103,-43,60,73,-81,8,24,16,62,-397,161,-5
-113,-53,60,83,-86,3,20,-31,10,-433,117,-42
-131,-71,60,101,-95,-5,20,-71,-37,-456,84,-74
-136,-68,68,101,-102,0,19,-87,-66,-467,67,-87
-152,-81,71,117,-111,-5,30,-88,-63,-472,61,-85
-162,-93,69,127,-115,-12,36,-103,-75,-469,54,-90
-156,-89,67,122,-112,-10,35,-116,-86,-456,46,-90
-154,-91,63,122,-109,-13,33,-115,-91,-448,39,-94
-157,-90,67,123,-112,-11,29,-115,-102,-432,35,-95
-163,-89,73,126,-118,-8,30,-115,-99,-413,35,-95
-157,-88,68,122,-112,-10,26,-115,-100,-402,35,-100
-159,-99,60,129,-109,-20,25,-115,-100,-392,35,-100
-152,-98,54,125,-103,-21,25,-115,-100,-373,35,-99
-134,-90,44,112,-88,-23,20,-115,-97,-352,35,-93
-133,-89,45,111,-89,-22,20,-115,-91,-333,39,-87
-145,-82,63,113,-104,-9,19,-115,-87,-312,40,-83
-145,-79,66,112,-105,-6,15,-115,-83,-293,40,-76
-137,-73,64,104,-100,-4,15,-115,-77,-279,40,-71
-131,-65,66,98,-98,0,15,-115,-76,-268,40,-73
-125,-60,65,92,-94,2,15,-115,-85,-257,38,-75
-114,-50,64,82,-89,7,15,-115,-91,-249,32,-75
-132,-72,59,102,-95,-6,15,-114,-89,-240,27,-80
-157,-97,60,127,-108,-18,15,-120,-96,-231,24,-80
-150,-89,60,119,-105,-14,15,-125,-101,-219,18,-80
-144,-85,59,115,-101,-13,15,-125,-100,-208,15,-80
-141,-79,62,110,-101,-9,15,-121,-100,-194,8,-80
-126,-73,53,99,-90,-9,16,-119,-95,-180,7,-80
-133,-70,63,101,-98,-3,20,-120,-95,-167,17,-80
-128,-59,69,94,-98,5,20,-119,-94,-151,28,-80
-119,-51,68,85,-93,8,19,-121,-90,-139,38,-75
-124,-37,87,80,-106,25,25,-118,-85,-104,45,-65
-90,-24,66,57,-78,21,14,-115,-83,-64,57,-55
-79,-9,70,44,-74,30,-2,-115,-78,-54,61,-46
-89,21,110,33,-100,65,-23,-116,-76,-47,59,-45
-65,36,102,14,-84,69,-49,-115,-76,-38,60,-46
-58,25,83,16,-71,54,-48,-114,-73,-31,60,-44
-60,13,73,24,-67,42,-40,-121,-88,-29,60,-46
-73,-8,66,40,-69,29,-35,-122,-90,-31,51,-57
-117,-58,59,87,-88,0,-26,-133,-115,-29,36,-76
-131,-80,51,105,-91,-14,-22,-157,-147,-31,20,-91
-137,-94,43,115,-90,-25,-15,-164,-135,-28,5,-90
-153,-111,42,132,-98,-34,-10,-165,-144,-30,-8,-90
-156,-110,46,133,-101,-32,-5,-159,-137,-19,-7,-101
-171,-127,44,148,-107,-41,2,-158,-141,-15,-17,-107
-172,-122,49,147,-110,-36,5,-157,-145,-8,-16,-99
-171,-122,49,146,-110,-36,14,-149,-140,3,-21,-102
-167,-115,51,141,-109,-32,13,-157,-154,-1,-7,-93
-176,-118,59,147,-117,-29,28,-136,-131,31,-2,-99
-169,-112,58,140,-113,-27,23,-157,-164,3,-19,-95
-177,-117,59,147,-118,-29,45,-143,-124,10,-21,-108
-261,-144,117,202,-189,-14,136,-213,-220,-43,-151,-231
-240,-146,94,193,-167,-26,207,-72,-32,175,11,-165
159,100,-59,-129,109,20,-77,452,595,786,673,380
806,625,-181,-716,493,222,-718,909,1281,1606,1745,1369
856,595,-261,-726,558,167,-918,807,1423,1735,1892,1583
234,107,-127,-170,181,-10,-646,-280,-41,173,325,452
-171,-67,104,119,-137,18,-339,-760,-819,-602,-446,-219
-189,-45,144,117,-166,49,-110,-351,-338,-170,-167,-140
-154,-46,108,100,-131,31,-7,-220,-229,-80,-104,-133
-152,-83,69,117,-110,-7,43,-134,-127,20,-26,-95
-145,-105,40,125,-92,-32,42,-114,-117,38,-26,-92
-156,-116,40,136,-98,-38,56,-100,-103,56,-18,-88
-161,-122,39,142,-101,-41,68,-83,-81,58,-10,-78
-151,-115,35,132,-93,-40,63,-83,-89,48,-10,-78
-150,-115,35,132,-92,-40,67,-62,-66,74,3,-67
-145,-110,35,127,-90,-37,62,-63,-74,61,-8,-74
-144,-109,35,126,-90,-37,77,-46,-56,62,-12,-78
-137,-102,35,119,-86,-33,85,-43,-56,52,-26,-76
-122,-87,35,104,-78,-26,75,-28,-41,94,-7,-69
-114,-78,36,95,-74,-21,70,-15,-32,113,7,-65
-108,-74,34,90,-70,-20,63,-1,-12,110,27,-58
-121,-72,49,96,-85,-11,55,11,12,117,44,-54
-133,-69,64,101,-99,-2,64,27,33,124,49,-40
-123,-65,58,94,-90,-3,71,57,51,149,68,-27
-116,-66,50,91,-83,-8,65,84,77,162,59,-15
-85,-41,44,63,-64,2,63,117,112,191,98,-7
-40,-6,34,23,-36,13,58,143,139,233,144,1
-26,8,34,9,-31,21,55,165,172,242,145,28
-32,22,54,5,-43,38,50,181,189,250,178,45
-21,32,54,-6,-38,43,42,206,212,274,193,63
-4,44,48,-20,-26,46,36,234,237,293,209,85
8,55,47,-32,-20,51,28,231,249,320,239,110
27,66,40,-47,-7,53,21,223,272,345,271,138
24,66,42,-45,-9,53,14,212,264,336,289,131
10,56,47,-33,-19,51,9,182,233,319,284,118
-3,52,56,-25,-30,54,4,134,182,280,251,109
-37,28,65,4,-51,46,0,73,113,209,186,75
-67,-2,65,34,-66,31,-5,27,58,149,134,28
-77,-12,65,44,-71,26,-10,-17,9,102,90,-17
-84,-23,61,53,-72,19,-7,-49,-31,73,55,-35
-92,-32,60,62,-76,14,-2,-61,-56,69,35,-38
-91,-31,60,61,-75,14,1,-70,-65,70,25,-46
-90,-29,60,60,-75,15,4,-70,-65,71,9,-45
-90,-30,59,60,-75,15,9,-82,-65,75,1,-41
-91,-30,61,60,-76,16,9,-85,-65,75,11,-39
-108,-30,77,69,-92,23,5,-79,-65,75,31,-36
-109,-28,81,68,-95,26,5,-77,-65,74,47,-34
-101,-22,79,62,-90,28,5,-72,-58,76,45,-31
-99,-19,81,59,-90,31,5,-69,-55,73,32,-28
-93,-13,80,53,-86,33,5,-66,-50,83,40,-26
-90,-10,79,50,-84,34,2,-63,-44,100,64,-22
-75,-2,74,38,-74,36,-1,-61,-73,93,56,-20
-67,1,68,33,-68,35,-4,-57,-89,89,46,-22
-75,-10,65,42,-69,27,-7,-55,-83,83,39,-26
-82,-22,60,52,-70,18,-10,-55,-90,77,28,-25
-88,-32,56,59,-72,12,-11,-55,-90,73,22,-31
-85,-32,54,58,-69,11,-16,-74,-90,69,14,-52
-87,-28,60,57,-74,16,-21,-82,-95,68,7,-62
-97,-26,72,62,-84,22,-24,-85,-94,62,-1,-59
-90,-22,68,56,-79,23,-30,-89,-98,63,-8,-58
-85,-20,65,52,-75,22,-26,-84,-101,55,-6,-55
-80,-18,63,49,-71,22,-20,-85,-99,77,-2,-54
-67,-8,59,38,-63,25,-15,-85,-100,111,3,-65
-65,-2,64,33,-64,30,-9,-85,-100,109,5,-69
-58,8,66,25,-62,37,-4,-85,-100,111,-9,-60
-58,12,70,23,-64,41,0,-80,-98,108,-9,-54
-59,28,87,15,-74,57,-10,-80,-92,124,8,-47
-56,46,102,5,-80,74,-1,-80,-88,134,17,-41
-45,48,92,-2,-69,70,-11,-79,-83,139,23,-37
-18,94,112,-39,-65,103,-64,-83,-80,151,43,-34
-14,118,132,-52,-73,124,-79,-74,-73,141,63,-32
-16,93,110,-39,-63,101,-82,-89,-83,140,57,-28
-14,91,105,-39,-60,97,-81,-112,-109,135,47,-26
-24,68,93,-22,-59,80,-60,-109,-117,130,38,-24
-34,28,62,2,-48,45,-46,-109,-114,126,18,-38
-43,0,43,22,-43,21,-37,-111,-116,116,-6,-55
-78,-53,25,65,-51,-14,-33,-110,-125,111,-32,-60
-87,-78,9,82,-48,-34,-26,-106,-131,103,-46,-65
-97,-73,24,85,-60,-24,-23,-106,-139,94,-49,-75
-125,-78,47,101,-85,-16,-14,-102,-151,92,-71,-91
-111,-65,46,87,-78,-9,-17,-110,-162,76,-74,-89
-114,-77,37,96,-76,-20,-29,-98,-146,79,-63,-85
-104,-60,44,82,-74,-8,-38,-113,-166,88,-67,-84
-99,-71,28,85,-63,-21,-18,-97,-144,123,-53,-79
-73,-30,43,51,-57,6,-17,-110,-163,109,-56,-79
-60,-19,41,39,-50,11,6,-111,-149,117,-56,-79
-159,-81,78,120,-118,-2,84,-130,-187,43,-164,-176
-191,-54,137,122,-164,42,162,-141,-191,73,-141,-202
8,-3,-12,-2,10,-8,77,273,333,608,338,151
583,519,-64,-550,323,227,-513,731,969,1388,1353,1032
923,732,-191,-827,556,270,-926,964,1530,2114,2211,1715
532,255,-277,-393,404,-11,-741,255,640,1057,1091,964
61,83,22,-72,19,53,-462,-663,-748,-498,-401,-74
-100,64,164,18,-132,114,-219,-450,-532,-306,-340,-181
-87,21,108,32,-97,64,-73,-190,-241,-51,-154,-131
-78,-18,60,48,-69,21,6,-111,-160,-2,-128,-121
-99,-58,41,78,-70,-8,32,-53,-87,83,-105,-107
-94,-52,41,73,-67,-5,33,-67,-110,60,-116,-113
-89,-57,31,73,-59,-13,37,-39,-70,105,-85,-96
-83,-54,30,68,-56,-12,37,-50,-91,98,-95,-100
-76,-56,20,66,-48,-17,42,-30,-64,131,-77,-89
-74,-55,20,64,-46,-17,40,-33,-71,144,-81,-88
-77,-66,11,71,-44,-27,45,-22,-59,146,-70,-81
-89,-62,27,75,-58,-17,46,-12,-52,145,-66,-77
-97,-46,51,72,-74,2,47,-4,-45,146,-62,-73
-81,-40,41,60,-61,0,52,11,-35,142,-53,-68
-70,-33,36,51,-53,1,46,18,-29,168,-48,-61
-56,-28,29,42,-42,0,44,36,-8,189,-41,-51
-46,-23,23,34,-34,0,63,54,20,165,-32,-44
-32,-17,15,24,-23,-1,64,78,56,191,-15,-33
-5,3,8,1,-7,5,58,103,75,223,14,-19
-7,21,28,-8,-17,24,57,132,102,218,27,-4
-8,28,36,-10,-22,32,51,171,148,247,63,17
10,44,34,-28,-12,39,49,178,162,270,90,36
35,71,35,-53,0,52,41,195,179,272,86,36
34,69,35,-52,0,52,33,222,216,300,123,75
36,71,35,-54,0,53,25,233,229,313,146,108
69,102,33,-86,18,68,17,242,251,330,171,105
86,111,25,-99,30,68,10,236,262,334,197,120
79,101,22,-90,28,61,-1,231,261,338,220,140
84,97,13,-91,35,55,-9,201,241,339,218,146
75,87,12,-81,31,50,-23,154,183,284,157,119
37,85,48,-61,-6,66,-31,116,138,233,125,91
21,71,51,-46,-15,61,-25,74,74,157,88,55
8,44,35,-26,-14,39,-21,36,15,81,19,19
2,31,29,-17,-14,30,-17,5,-10,52,-16,9
-5,13,19,-4,-12,16,-11,-15,-37,45,-29,-1
-18,3,21,7,-20,12,-12,-26,-51,42,-50,-7
-13,6,19,4,-17,12,-16,-37,-50,37,-50,-25
-16,5,21,5,-19,12,-15,-45,-48,33,-41,-32
-15,4,20,6,-18,12,-15,-43,-64,28,-65,-38
-11,7,17,2,-14,11,-15,-39,-75,45,-82,-51
-8,-4,4,6,-6,0,-16,-36,-66,50,-75,-43
-10,-17,-8,14,-1,-12,-19,-31,-63,51,-73,-40
-11,-4,6,8,-9,1,-20,-29,-57,46,-69,-35
15,23,9,-19,3,16,-20,-25,-50,45,-64,-30
22,49,27,-36,-3,38,-20,-25,-57,54,-62,-27
3,47,44,-25,-21,45,-22,-25,-60,26,-55,-19
4,39,35,-22,-16,37,-32,-25,-57,65,-53,-15
-3,32,34,-15,-19,33,-41,-25,-53,106,-47,-8
-4,25,29,-10,-17,26,-38,-27,-50,89,-43,-4
-9,16,26,-4,-18,21,-36,-51,-68,87,-65,1
-8,14,23,-3,-16,18,-32,-62,-78,78,-76,5
18,38,19,-28,-1,28,-31,-59,-69,73,-63,0
21,38,17,-30,1,27,-28,-61,-71,68,-63,-9
17,30,14,-24,1,22,-38,-60,-64,64,-53,-18
16,27,11,-21,2,18,-56,-60,-66,66,-53,-23
10,19,10,-15,0,14,-49,-55,-91,61,-92,-32
0,16,16,-8,-8,16,-46,-55,-95,60,-99,-32
-10,10,20,0,-15,15,-41,-55,-86,60,-87,-23
-15,10,25,2,-20,17,-36,-55,-85,53,-84,-18
-12,16,28,-2,-20,22,-33,-56,-78,61,-75,-10
21,55,34,-38,-7,44,-29,-52,-75,82,-69,-5
23,58,36,-41,-7,47,-32,-50,-75,89,-59,4
20,53,33,-37,-7,43,-27,-50,-75,96,-53,17
60,123,63,-91,-2,92,-62,-50,-76,101,-44,26
71,143,72,-107,0,107,-88,-50,-75,96,-43,41
65,119,55,-92,5,87,-75,-51,-75,95,-46,43
58,104,46,-82,6,75,-72,-53,-76,91,-45,36
34,66,32,-50,1,49,-64,-57,-84,90,-52,29
14,29,16,-22,-1,22,-57,-52,-82,80,-47,24
-9,-8,1,8,-4,-3,-52,-64,-97,51,-81,5
-41,-48,-7,44,-17,-27,-46,-84,-119,41,-123,-25
-29,-40,-11,35,-9,-25,-41,-80,-119,29,-130,-32
-26,-42,-15,34,-5,-28,-35,-72,-113,20,-135,-29
-47,-68,-21,58,-13,-44,-29,-66,-110,9,-134,-31
-32,-55,-23,44,-4,-39,-26,-60,-109,-12,-131,-29
-29,-53,-24,41,-2,-39,-15,-56,-102,2,-125,-30
-29,-42,-13,36,-8,-27,-14,-87,-136,-13,-128,-27
-22,-39,-17,31,-2,-28,0,-72,-112,13,-117,-11
-39,-40,-2,39,-18,-21,-2,-87,-138,-3,-113,-13
-83,-59,24,70,-53,-17,20,-78,-117,1,-116,-33
-135,-55,80,95,-107,12,96,-147,-211,-103,-253,-151
-161,-62,99,112,-130,18,174,-138,-187,-47,-216,-172
88,62,-26,-75,57,17,11,329,407,561,373,262
700,592,-108,-646,404,242,-609,865,1149,1455,1487,1189
955,670,-285,-812,620,192,-936,1081,1689,2115,2202,1741
503,184,-319,-343,411,-67,-726,217,562,786,884,889
37,35,-2,-36,20,16,-439,-621,-719,-670,-483,-58
-57,71,128,-7,-93,99,-180,-352,-414,-365,-314,-96
-30,44,74,-7,-52,59,-44,-154,-200,-188,-198,-60
-44,5,49,19,-47,27,37,-88,-117,-144,-165,-57
-64,-33,30,48,-47,-2,54,-42,-79,-100,-114,-37
-68,-49,19,58,-43,-15,56,-46,-96,-127,-133,-38
-69,-56,14,62,-41,-21,70,-19,-57,-94,-106,-29
-67,-54,13,61,-39,-21,66,-25,-79,-116,-121,-39
-64,-55,8,60,-36,-23,72,-4,-50,-92,-102,-32
-61,-55,6,57,-33,-24,76,-6,-59,-104,-107,-37
-60,-55,4,57,-31,-25,87,6,-43,-104,-96,-34
-51,-53,-1,52,-25,-27,84,11,-40,-111,-92,-33
-33,-44,-11,39,-11,-27,85,17,-26,-104,-88,-26
-23,-36,-13,30,-5,-24,86,30,-14,-99,-80,-21
-20,-28,-8,24,-5,-18,84,42,1,-96,-78,-16
-16,-21,-5,19,-5,-13,90,57,22,-90,-67,-10
-11,-13,-2,13,-5,-7,95,76,34,-79,-54,-5
-8,-5,3,6,-5,-1,102,100,68,-48,-40,0
-3,3,6,0,-4,4,103,126,94,-32,-25,10
0,11,11,-6,-6,11,113,157,126,-22,3,41
2,19,17,-11,-7,18,123,182,158,-7,24,54
11,33,22,-22,-6,27,113,207,186,4,53,65
15,43,28,-29,-7,35,100,232,221,23,81,87
29,59,30,-44,-1,44,90,251,239,42,96,95
52,82,30,-67,11,56,80,264,261,56,126,115
62,92,30,-77,16,61,70,258,280,73,150,127
65,95,30,-80,17,62,60,251,274,87,179,144
76,106,30,-91,23,68,51,243,261,95,206,163
89,119,30,-104,29,75,44,211,240,70,194,154
61,97,36,-80,13,66,37,164,189,-2,151,126
24,62,38,-43,-8,50,31,109,128,-75,97,86
9,43,34,-27,-13,38,24,65,69,-146,43,55
-3,29,32,-13,-18,31,21,25,20,-208,12,25
-9,20,29,-6,-19,24,26,-12,-9,-261,-12,-2
-16,10,26,2,-21,18,24,-23,-37,-310,-60,-9
-24,0,25,11,-24,12,28,-29,-51,-327,-81,-14
-25,-5,20,15,-22,7,30,-30,-50,-337,-79,-19
-31,-10,21,21,-26,5,30,-33,-50,-356,-84,-25
-33,-15,18,24,-26,1,41,-41,-51,-376,-84,-30
-48,-22,26,35,-36,2,47,-40,-49,-382,-88,-30
-65,-24,41,44,-52,8,44,-39,-52,-387,-90,-30
-57,-17,40,37,-48,11,47,-35,-65,-403,-90,-30
-51,-11,40,31,-45,14,55,-34,-65,-407,-90,-30
-46,-6,40,26,-43,17,52,-39,-60,-418,-90,-31
-46,-5,41,25,-42,17,46,-46,-59,-425,-90,-27
-41,-5,36,23,-38,16,43,-45,-54,-430,-86,-25
-44,-1,43,22,-43,21,37,-45,-56,-439,-85,-25
-51,0,51,25,-51,26,33,-46,-61,-450,-85,-25
-46,-1,45,23,-45,21,30,-44,-59,-460,-85,-25
-50,-7,43,28,-46,18,30,-48,-63,-469,-85,-25
-53,-15,38,34,-45,11,30,-50,-65,-491,-85,-25
-55,-20,35,37,-45,7,31,-52,-65,-508,-84,-25
-67,-28,39,47,-52,5,29,-55,-61,-517,-86,-26
-74,-33,40,54,-57,3,34,-56,-60,-529,-96,-24
-72,-32,40,52,-56,3,41,-59,-80,-555,-109,-32
-69,-28,40,49,-55,6,35,-62,-87,-572,-116,-41
-66,-26,39,46,-52,6,33,-65,-84,-581,-115,-39
-66,-23,43,45,-54,9,28,-67,-86,-595,-115,-40
-72,-20,52,46,-62,16,25,-79,-84,-604,-115,-40
-65,-20,45,42,-54,12,28,-85,-86,-613,-115,-40
-59,-11,48,34,-53,18,35,-78,-80,-622,-112,-35
-77,-8,68,42,-72,29,39,-74,-75,-631,-109,-25
-64,8,72,28,-68,39,33,-67,-70,-629,-106,-15
-42,26,68,8,-55,46,27,-62,-65,-629,-103,-5
-30,47,76,-9,-53,61,22,-60,-58,-631,-101,1
-4,79,83,-38,-44,81,16,-60,-56,-629,-100,6
-1,72,73,-36,-37,73,12,-60,-62,-635,-102,10
3,65,61,-34,-29,63,7,-59,-57,-645,-97,15
-18,32,50,-7,-34,41,3,-61,-69,-675,-106,20
-22,16,38,3,-30,27,0,-58,-71,-686,-111,10
-25,2,27,11,-26,14,11,-70,-77,-706,-132,-20
-77,-57,20,67,-48,-18,19,-90,-108,-750,-170,-44
-98,-79,19,88,-58,-29,30,-96,-102,-761,-167,-44
-113,-92,21,103,-67,-35,48,-103,-107,-785,-180,-48
-114,-96,19,105,-66,-38,57,-98,-103,-787,-190,-48
-107,-86,21,97,-64,-33,55,-106,-106,-801,-193,-55
-107,-88,19,98,-63,-34,52,-105,-105,-814,-195,-69
-100,-80,20,90,-60,-30,52,-104,-102,-821,-192,-71
-102,-80,21,91,-62,-29,46,-115,-112,-828,-190,-70
-104,-87,17,96,-60,-35,59,-101,-93,-818,-188,-77
-107,-83,24,95,-65,-29,52,-122,-121,-859,-194,-73
-135,-97,38,116,-87,-29,93,-109,-108,-858,-216,-92
-221,-85,136,153,-178,25,182,-222,-250,-1000,-346,-202
-209,-101,108,155,-158,4,225,-97,-69,-800,-184,-128
189,156,-32,-172,110,62,-78,466,617,-69,568,464
838,680,-158,-758,497,260,-741,1070,1486,925,1755,1450
929,626,-303,-777,616,161,-978,981,1624,1047,1893,1635
337,167,-170,-252,254,-2,-670,-156,87,-652,286,578
-77,-17,61,47,-69,22,-291,-595,-660,-1461,-545,-112
-126,-12,114,69,-120,51,-52,-256,-248,-1055,-298,-93
-123,-53,70,88,-97,9,52,-159,-176,-997,-244,-90
-145,-98,47,121,-96,-25,100,-80,-88,-929,-182,-82
-148,-97,52,122,-100,-22,113,-75,-90,-937,-181,-86
-146,-106,39,126,-92,-33,116,-55,-76,-928,-172,-86
-152,-114,38,133,-95,-38,115,-44,-60,-918,-159,-84
-135,-105,30,120,-82,-37,131,-42,-61,-922,-160,-87
-126,-99,27,112,-76,-36,136,-29,-39,-904,-146,-78
-117,-93,24,104,-70,-34,134,-29,-44,-911,-154,-76
-110,-85,26,97,-68,-29,136,-17,-24,-896,-146,-70
-118,-94,24,105,-70,-35,134,-15,-19,-899,-146,-67
-126,-98,28,111,-77,-35,136,-2,0,-890,-145,-61
-133,-88,45,110,-89,-21,139,9,15,-887,-142,-57
-128,-83,44,105,-86,-19,140,29,40,-883,-129,-49
-114,-74,41,94,-77,-16,141,48,62,-875,-117,-40
-100,-61,39,81,-69,-11,145,77,78,-858,-94,-33
-85,-50,35,67,-60,-7,145,104,110,-832,-61,-26
-76,-40,35,58,-55,-2,143,128,141,-816,-51,-14
-74,-30,44,52,-59,7,138,161,181,-799,-20,6
-76,-20,55,48,-65,17,135,193,215,-765,14,28
-62,-7,55,34,-58,24,132,221,237,-750,26,43
-44,10,55,17,-50,32,127,245,280,-722,69,71
-30,25,55,2,-43,40,125,267,309,-691,99,97
-16,39,55,-12,-36,47,115,274,328,-693,114,108
-10,42,53,-16,-32,48,99,265,339,-667,155,135
-12,37,49,-12,-31,43,88,261,331,-652,166,154
-16,35,51,-10,-34,42,81,245,315,-658,151,144
-16,30,46,-8,-31,38,74,202,272,-689,139,131
-18,27,45,-5,-32,36,67,141,206,-751,104,113
-22,23,45,-1,-34,34,61,72,129,-812,52,81
-39,13,51,13,-45,32,55,20,71,-884,-7,51
-71,-9,62,40,-66,27,51,-19,26,-912,-56,28
-98,-42,56,70,-77,7,48,-43,-10,-946,-91,8
-94,-51,43,72,-69,-4,45,-56,-27,-959,-116,-5
-82,-50,32,66,-57,-9,43,-68,-43,-921,-118,-15
-95,-70,25,82,-60,-23,39,-74,-52,-918,-122,-34
-101,-76,25,88,-63,-25,41,-81,-50,-915,-132,-46
-100,-75,25,87,-62,-25,49,-86,-49,-910,-139,-47
-98,-73,25,85,-61,-24,50,-103,-67,-908,-146,-50
-95,-69,26,81,-60,-21,50,-112,-77,-903,-145,-56
-93,-71,22,82,-58,-24,50,-109,-74,-898,-145,-61
-86,-66,20,76,-52,-23,50,-110,-75,-887,-145,-57
-85,-65,20,75,-52,-22,49,-110,-75,-881,-145,-55
-81,-65,16,72,-48,-24,44,-109,-75,-870,-143,-51
-75,-61,15,67,-45,-23,39,-106,-71,-859,-139,-50
-75,-59,15,67,-45,-22,35,-104,-70,-847,-135,-46
-69,-62,8,65,-38,-27,30,-106,-70,-838,-132,-45
-63,-65,-2,64,-30,-33,25,-104,-70,-832,-127,-40
-56,-66,-10,61,-23,-38,22,-107,-69,-825,-125,-40
-49,-69,-20,59,-14,-44,17,-126,-78,-819,-138,-64
-43,-71,-28,57,-8,-49,14,-132,-92,-812,-140,-71
-42,-72,-30,57,-5,-51,11,-126,-94,-808,-156,-70
-52,-82,-30,67,-11,-56,6,-143,-100,-804,-172,-69
-56,-86,-30,71,-13,-57,5,-151,-109,-801,-169,-76
-44,-85,-41,65,-1,-62,5,-149,-112,-797,-170,-86
-39,-85,-46,63,4,-66,5,-150,-117,-794,-167,-84
-34,-84,-50,59,8,-66,5,-150,-124,-790,-162,-85
-31,-93,-62,63,16,-77,5,-150,-121,-784,-160,-85
-31,-94,-64,63,17,-79,6,-145,-114,-782,-155,-85
-16,-71,-55,44,20,-63,1,-140,-110,-773,-152,-81
5,-44,-49,20,27,-46,-3,-135,-103,-746,-148,-75
14,-29,-43,7,29,-36,-8,-132,-101,-714,-145,-70
14,-21,-35,4,25,-27,-12,-125,-106,-696,-145,-65
27,-9,-36,-8,32,-23,-18,-131,-105,-694,-145,-58
27,-5,-32,-11,30,-19,-49,-151,-109,-696,-146,-57
37,-6,-43,-15,41,-25,-59,-150,-110,-694,-145,-60
60,-15,-74,-22,67,-44,-49,-150,-110,-695,-145,-60
47,-28,-76,-9,62,-52,-45,-151,-105,-695,-145,-61
24,-50,-74,13,49,-61,-37,-146,-101,-686,-143,-57
-16,-94,-78,56,31,-85,-31,-177,-133,-702,-172,-91
-39,-125,-87,82,24,-106,-25,-194,-159,-709,-200,-116
-37,-132,-95,85,29,-113,-20,-187,-163,-695,-216,-114
-43,-135,-92,89,25,-113,-19,-193,-168,-696,-222,-114
-37,-141,-104,89,34,-122,-14,-186,-160,-680,-218,-120
-35,-139,-104,87,34,-121,-14,-195,-171,-687,-228,-137
-35,-142,-107,89,36,-124,-9,-190,-158,-688,-221,-134
-39,-138,-100,89,31,-119,-8,-199,-174,-699,-228,-137
-41,-141,-100,91,30,-121,2,-193,-167,-684,-215,-133
-37,-138,-101,87,32,-119,13,-193,-169,-687,-224,-137
-58,-132,-74,95,9,-102,13,-204,-178,-684,-221,-136
-100,-142,-42,122,-29,-92,71,-212,-187,-674,-271,-199
-167,-143,24,155,-96,-59,152,-301,-302,-740,-360,-296
-61,-113,-51,87,-5,-82,148,-11,73,-339,-20,-71
478,284,-193,-381,335,45,-309,588,805,464,895,705
1016,651,-366,-834,691,142,-905,1068,1571,1304,1877,1583
818,385,-432,-602,625,-23,-936,545,1085,725,1269,1253
206,29,-177,-117,191,-74,-576,-562,-474,-891,-264,141
-49,-58,-9,53,-20,-33,-215,-564,-590,-997,-492,-200
-57,-63,-6,59,-25,-34,-48,-258,-224,-641,-278,-143
-65,-108,-43,87,-11,-76,20,-203,-201,-621,-258,-154
-60,-129,-69,95,5,-99,62,-135,-111,-537,-202,-138
-65,-126,-61,96,-2,-93,62,-148,-140,-553,-218,-150
-65,-136,-71,101,4,-103,77,-120,-104,-501,-190,-142
-65,-133,-67,99,2,-100,85,-122,-112,-492,-192,-147
-63,-142,-79,103,9,-111,86,-106,-96,-470,-179,-142
-59,-143,-84,102,13,-114,83,-97,-87,-457,-174,-138
-61,-137,-76,99,8,-107,80,-89,-79,-448,-169,-136
-60,-133,-73,96,7,-103,79,-75,-58,-426,-159,-131
-60,-126,-66,93,3,-96,83,-66,-52,-403,-157,-128
-60,-122,-62,91,1,-92,85,-51,-32,-368,-147,-124
-60,-116,-56,88,-2,-86,85,-40,-26,-349,-141,-120
-55,-109,-55,82,0,-82,88,-24,-7,-326,-134,-113
-47,-102,-55,75,4,-79,91,-9,12,-304,-126,-109
-42,-96,-54,69,7,-75,89,24,34,-279,-112,-102
-33,-89,-56,62,11,-72,86,48,65,-240,-99,-99
-22,-76,-53,49,16,-64,85,71,97,-194,-84,-89
-11,-61,-50,36,20,-55,84,114,132,-150,-63,-67
1,-49,-50,24,26,-49,79,139,163,-110,-31,-48
14,-36,-50,11,33,-43,81,162,191,-82,0,-27
24,-25,-50,0,37,-37,76,186,219,-51,22,-9
39,-11,-50,-14,45,-31,65,203,240,-10,51,8
51,-2,-53,-24,52,-27,53,213,258,29,75,27
74,18,-57,-45,65,-19,42,198,281,54,99,49
105,40,-65,-72,85,-12,33,189,284,63,103,62
96,31,-65,-63,80,-17,23,170,245,54,89,53
77,17,-60,-47,68,-22,15,114,190,22,73,43
61,2,-59,-32,60,-28,4,54,123,-21,28,21
40,-15,-54,-12,47,-34,2,2,50,-73,-26,-12
22,-34,-56,6,40,-45,6,-42,0,-132,-74,-48
1,-59,-60,29,31,-59,4,-81,-46,-168,-113,-86
-17,-77,-60,47,22,-68,9,-106,-72,-182,-139,-103
-26,-86,-60,56,18,-72,10,-113,-71,-184,-150,-103
-26,-85,-60,55,18,-72,10,-115,-82,-178,-154,-108
-23,-83,-60,53,19,-71,15,-115,-91,-174,-160,-115
-25,-81,-56,53,16,-68,15,-118,-89,-170,-171,-115
-24,-79,-55,52,16,-66,16,-121,-93,-165,-176,-116
-30,-84,-55,58,13,-69,14,-119,-95,-161,-174,-113
-44,-95,-50,69,4,-72,24,-116,-95,-154,-175,-123
-41,-90,-49,65,5,-70,32,-115,-99,-148,-175,-136
-30,-81,-51,56,11,-66,27,-115,-101,-141,-175,-129
-22,-77,-55,50,17,-66,25,-115,-100,-134,-170,-125
-12,-67,-55,40,22,-61,21,-115,-100,-129,-165,-122
-17,-71,-55,45,20,-63,20,-118,-100,-123,-161,-116
-31,-86,-55,59,12,-71,16,-120,-101,-116,-156,-115
-27,-81,-55,54,14,-68,15,-120,-105,-109,-152,-115
-20,-78,-59,49,20,-68,14,-124,-105,-102,-150,-115
-15,-75,-60,45,23,-67,11,-125,-105,-96,-165,-115
-9,-69,-60,39,25,-64,9,-125,-105,-91,-176,-115
-16,-76,-60,46,22,-68,12,-119,-105,-86,-175,-115
-20,-81,-60,51,20,-70,22,-125,-109,-81,-180,-122
-22,-80,-58,51,18,-69,20,-141,-110,-78,-180,-126
-22,-78,-55,50,17,-66,20,-139,-110,-72,-183,-128
-21,-75,-54,48,17,-64,18,-141,-109,-69,-186,-131
-10,-75,-65,43,28,-70,14,-145,-104,-63,-183,-134
-14,-83,-69,49,28,-76,16,-145,-106,-55,-179,-135
-26,-86,-60,56,17,-73,14,-143,-102,-50,-173,-136
-26,-80,-55,53,15,-67,16,-136,-99,-42,-170,-140
-34,-81,-47,58,6,-64,13,-131,-100,-37,-165,-140
-14,-56,-42,35,14,-49,20,-126,-96,-27,-161,-138
12,-22,-34,5,24,-28,25,-120,-95,-9,-156,-131
15,-13,-28,-1,22,-20,27,-115,-95,15,-150,-124
17,-2,-19,-7,18,-11,17,-115,-91,37,-145,-118
24,6,-18,-15,21,-6,-17,-115,-90,42,-141,-111
47,8,-39,-27,43,-15,-41,-116,-93,37,-132,-106
83,16,-67,-49,75,-25,-51,-114,-94,33,-136,-104
88,7,-81,-47,84,-37,-39,-116,-97,29,-155,-107
65,-16,-80,-24,73,-48,-25,-115,-92,23,-158,-102
29,-56,-85,14,57,-71,-15,-127,-109,21,-167,-117
-12,-96,-84,55,36,-90,-5,-151,-143,23,-199,-153
-12,-105,-93,59,41,-99,4,-148,-137,27,-210,-160
-17,-116,-100,66,42,-108,18,-152,-143,23,-211,-160
-25,-126,-101,76,38,-113,27,-154,-143,27,-213,-160
-25,-124,-99,75,37,-111,25,-155,-146,23,-216,-160
-24,-125,-101,74,39,-112,24,-154,-144,27,-217,-160
-19,-126,-108,73,45,-117,28,-146,-135,33,-221,-156
-18,-122,-104,70,43,-112,21,-155,-149,27,-221,-155
-34,-130,-96,82,31,-113,32,-135,-127,46,-217,-154
-33,-118,-85,76,26,-101,25,-157,-158,20,-225,-156
-48,-134,-86,91,20,-110,61,-144,-137,43,-233,-180
-150,-125,24,137,-87,-50,143,-232,-256,-31,-340,-291
-139,-133,5,136,-72,-64,210,-141,-130,127,-221,-250
221,68,-153,-144,187,-42,-32,373,493,752,434,288
879,572,-308,-726,593,132,-683,978,1305,1651,1515,1259
1040,554,-485,-797,762,35,-965,973,1515,1799,1675,1516
433,130,-303,-281,367,-86,-708,-166,61,274,204,500
38,-48,-86,5,62,-67,-322,-679,-740,-510,-574,-198
-12,-58,-46,35,17,-52,-69,-302,-302,-102,-327,-177
-52,-80,-29,67,-11,-54,21,-185,-213,4,-273,-190
-39,-126,-87,82,25,-106,67,-109,-132,68,-214,-177
-40,-129,-89,85,25,-109,73,-109,-124,84,-212,-175
-40,-130,-90,85,25,-110,92,-97,-118,113,-209,-172
-39,-130,-91,85,26,-111,95,-84,-98,117,-197,-164
-41,-129,-88,85,24,-109,94,-84,-105,114,-200,-164
-40,-131,-91,85,26,-111,96,-65,-80,126,-185,-154
-41,-125,-84,84,22,-105,94,-64,-84,117,-189,-155
-36,-120,-84,78,25,-102,96,-47,-63,156,-177,-146
-35,-115,-80,75,22,-97,98,-39,-58,165,-177,-144
-31,-109,-78,71,23,-93,101,-22,-43,178,-170,-137
-29,-104,-75,67,23,-89,100,-10,-30,203,-167,-131
-24,-99,-75,62,26,-86,105,6,-16,212,-161,-124
-16,-91,-75,54,30,-83,105,25,13,224,-146,-118
-9,-83,-74,46,33,-79,106,45,34,255,-134,-108
1,-75,-75,38,38,-75,114,73,54,282,-120,-93
6,-68,-74,31,41,-71,127,104,82,307,-109,-81
18,-58,-75,21,47,-66,127,127,107,333,-94,-63
36,-43,-79,3,58,-61,119,158,145,358,-72,-44
50,-30,-80,-10,65,-55,112,184,173,393,-43,-21
63,-17,-80,-23,72,-48,104,210,191,425,-11,3
74,-6,-80,-34,77,-42,98,232,208,445,6,20
86,6,-80,-46,83,-37,88,239,234,476,26,35
91,14,-77,-52,84,-32,73,244,252,503,50,52
98,23,-75,-60,86,-25,60,236,248,523,68,78
104,29,-75,-66,89,-23,52,216,254,517,80,83
92,21,-71,-56,81,-25,46,182,224,478,47,68
79,9,-69,-44,74,-30,39,126,158,458,10,55
71,1,-70,-36,71,-34,32,63,83,410,-25,24
53,-17,-70,-18,62,-43,26,11,20,351,-81,-3
28,-42,-70,7,49,-56,25,-27,-21,312,-115,-21
14,-56,-70,21,42,-63,25,-57,-59,278,-150,-47
10,-60,-70,25,40,-65,25,-74,-78,270,-180,-61
11,-60,-70,25,40,-65,24,-77,-86,269,-185,-67
5,-62,-67,29,37,-65,32,-79,-93,271,-193,-74
-1,-66,-65,34,32,-65,35,-83,-95,269,-199,-75
0,-65,-65,33,33,-65,36,-85,-95,274,-200,-76
3,-62,-65,30,34,-63,50,-85,-95,292,-200,-79
6,-59,-65,27,35,-62,50,-85,-95,298,-200,-81
5,-60,-65,28,35,-62,45,-85,-95,300,-201,-78
5,-60,-65,28,35,-62,44,-84,-95,306,-198,-73
5,-60,-65,28,35,-62,40,-81,-95,308,-195,-65
5,-60,-65,28,35,-62,39,-80,-95,311,-195,-59
5,-60,-65,28,35,-62,35,-80,-95,322,-193,-53
4,-60,-64,28,34,-62,32,-80,-94,341,-189,-45
8,-60,-68,26,38,-64,30,-80,-98,350,-190,-58
10,-60,-70,25,40,-65,26,-82,-100,350,-194,-67
10,-60,-70,25,40,-65,25,-87,-101,350,-195,-64
13,-60,-73,24,43,-66,25,-90,-105,350,-196,-65
16,-60,-76,23,46,-67,25,-95,-105,350,-199,-65
14,-60,-74,23,44,-67,25,-95,-112,346,-201,-65
11,-60,-71,24,41,-65,25,-98,-120,345,-198,-70
9,-60,-70,25,39,-65,25,-100,-123,344,-206,-74
11,-59,-70,24,41,-64,24,-100,-126,340,-221,-75
17,-53,-70,18,44,-61,20,-100,-125,339,-218,-83
23,-47,-70,12,47,-59,20,-100,-125,341,-215,-85
26,-42,-68,9,47,-55,20,-100,-125,345,-212,-79
27,-36,-63,5,45,-49,20,-100,-125,345,-210,-77
29,-32,-60,1,45,-46,20,-99,-125,345,-208,-72
36,-20,-56,-8,46,-38,16,-95,-119,355,-197,-69
57,4,-53,-30,55,-24,9,-95,-113,378,-188,-65
63,14,-49,-39,56,-17,2,-94,-106,391,-177,-60
73,27,-46,-50,59,-9,-4,-90,-100,400,-170,-56
94,53,-41,-74,67,6,-11,-90,-93,408,-170,-52
85,48,-37,-67,61,6,-33,-90,-89,397,-171,-47
105,37,-67,-70,86,-15,-41,-89,-102,389,-170,-46
119,28,-91,-73,104,-31,-31,-91,-112,381,-170,-53
96,8,-88,-52,91,-39,-25,-89,-116,370,-171,-46
71,-22,-93,-24,82,-57,-15,-104,-133,356,-184,-54
36,-58,-94,12,65,-75,-10,-127,-162,336,-211,-83
23,-74,-96,26,60,-85,-2,-123,-169,332,-220,-90
17,-85,-102,35,59,-93,2,-127,-172,322,-220,-93
14,-92,-106,40,60,-99,8,-123,-168,323,-221,-98
10,-88,-98,39,54,-93,14,-125,-172,314,-227,-100
7,-91,-97,42,52,-94,18,-128,-170,312,-223,-99
3,-90,-93,44,48,-91,26,-127,-167,309,-223,-101
-2,-88,-86,45,42,-87,22,-136,-177,297,-218,-99
10,-93,-103,42,57,-98,30,-120,-159,308,-215,-101
3,-85,-88,42,45,-86,18,-143,-186,279,-216,-98
-26,-96,-70,61,22,-83,62,-120,-169,311,-234,-128
-124,-97,28,110,-76,-34,146,-223,-291,241,-340,-234
-117,-118,-1,117,-58,-59,203,-89,-110,420,-176,-159
317,135,-181,-226,249,-23,-64,486,557,1070,521,425
975,614,-360,-794,667,127,-690,1090,1371,1946,1573,1384
1041,535,-506,-787,773,15,-902,981,1415,1892,1523,1492
430,148,-282,-289,355,-66,-650,-243,-127,310,26,428
68,6,-62,-37,65,-28,-309,-660,-775,-292,-577,-173
32,-15,-47,-8,40,-31,-62,-250,-301,131,-313,-130
-1,-44,-43,23,22,-44,24,-168,-223,209,-255,-144
-3,-78,-75,40,37,-76,73,-84,-140,278,-197,-124
-13,-81,-67,47,27,-74,79,-83,-149,268,-204,-121
-20,-90,-70,55,25,-80,83,-65,-133,284,-192,-116
-24,-90,-66,57,21,-78,85,-55,-118,289,-189,-110
-22,-85,-63,54,21,-74,88,-54,-119,289,-188,-111
-16,-84,-68,50,26,-76,91,-37,-96,306,-176,-102
-11,-79,-68,45,29,-74,89,-40,-98,307,-194,-103
-8,-79,-71,44,32,-75,95,-21,-78,311,-191,-96
-4,-72,-69,38,33,-70,94,-17,-75,315,-176,-94
3,-67,-71,32,37,-69,97,0,-62,335,-165,-89
7,-63,-69,28,38,-66,100,12,-49,335,-154,-87
11,-56,-67,23,39,-61,100,31,-27,355,-130,-82
12,-52,-64,20,38,-57,99,46,-7,364,-118,-79
16,-45,-61,14,39,-53,109,74,12,382,-101,-74
23,-35,-58,6,41,-46,122,103,31,408,-78,-62
30,-25,-55,-2,43,-40,118,123,60,421,-72,-54
39,-15,-53,-12,46,-34,116,152,90,449,-51,-41
50,0,-50,-25,50,-25,112,179,124,472,-24,-24
64,14,-50,-39,57,-18,110,208,157,493,-9,-8
72,25,-48,-48,60,-11,108,224,167,515,15,5
88,44,-44,-65,66,0,99,247,189,537,36,19
100,55,-45,-77,73,4,91,267,209,551,54,38
103,62,-41,-82,72,10,83,259,222,563,76,58
112,73,-40,-93,76,16,76,255,243,590,102,78
108,68,-40,-88,74,14,68,247,239,606,102,78
93,58,-35,-75,64,11,61,217,205,583,89,63
87,51,-36,-69,61,8,54,167,149,532,70,57
72,38,-34,-55,53,2,46,108,82,472,27,34
51,14,-37,-32,44,-11,38,56,24,418,-22,-2
45,-4,-50,-20,48,-27,37,24,-21,368,-68,-22
40,-11,-50,-14,45,-30,40,2,-56,328,-92,-43
24,-26,-50,1,37,-37,40,-12,-76,314,-110,-58
14,-36,-50,11,33,-43,43,-25,-84,304,-116,-68
19,-31,-50,6,35,-41,46,-46,-93,291,-121,-76
20,-28,-49,4,35,-39,44,-49,-96,285,-126,-75
19,-24,-44,3,32,-34,41,-41,-95,285,-119,-75
18,-21,-38,2,28,-29,38,-39,-92,283,-117,-75
17,-17,-35,0,26,-26,35,-34,-90,280,-112,-75
15,-15,-30,0,23,-22,33,-29,-90,279,-109,-72
10,-15,-25,3,18,-20,29,-36,-86,282,-106,-69
21,-15,-36,-3,29,-25,32,-42,-83,285,-99,-70
26,-15,-41,-6,34,-27,40,-37,-80,285,-96,-70
24,-16,-39,-4,32,-27,41,-35,-78,285,-91,-70
20,-19,-40,0,30,-29,39,-32,-74,285,-86,-70
25,-20,-46,-2,36,-33,36,-29,-78,284,-87,-70
32,-20,-51,-6,41,-35,35,-34,-87,280,-91,-70
29,-21,-49,-4,39,-35,35,-35,-94,274,-94,-70
31,-19,-50,-6,41,-35,35,-35,-101,271,-95,-70
27,-23,-50,-2,39,-36,35,-39,-108,266,-96,-70
25,-25,-50,0,38,-37,36,-41,-110,262,-101,-74
22,-25,-46,2,35,-35,34,-38,-110,257,-99,-75
16,-29,-45,7,30,-36,37,-50,-114,249,-103,-78
15,-30,-45,8,30,-37,46,-62,-115,242,-105,-80
10,-30,-40,10,25,-35,42,-59,-114,236,-105,-81
16,-24,-40,4,28,-32,38,-60,-110,226,-109,-88
20,-18,-39,-1,30,-29,35,-60,-105,223,-110,-84
22,-13,-35,-4,29,-24,30,-60,-101,238,-110,-78
26,-7,-33,-9,30,-19,32,-56,-96,241,-99,-75
29,0,-29,-15,29,-14,36,-49,-92,239,-84,-70
59,32,-27,-45,43,2,34,-42,-87,259,-73,-65
68,44,-24,-55,45,10,30,-36,-85,274,-68,-62
79,53,-26,-66,52,14,18,-29,-85,269,-65,-57
107,83,-24,-94,65,29,-9,-26,-86,262,-62,-55
103,75,-28,-88,65,23,-30,-31,-85,255,-58,-51
108,62,-45,-85,76,8,-28,-34,-85,247,-54,-46
97,41,-56,-69,76,-7,-20,-39,-90,241,-63,-46
81,10,-72,-45,76,-31,-12,-45,-96,232,-60,-51
62,-13,-75,-24,69,-44,9,-50,-116,223,-81,-82
29,-40,-68,5,49,-54,19,-57,-132,214,-103,-104
15,-53,-68,20,42,-61,22,-64,-134,207,-106,-101
-2,-63,-61,33,30,-61,24,-74,-144,195,-125,-108
-6,-66,-61,36,28,-63,28,-67,-136,197,-120,-114
-6,-61,-54,34,24,-57,37,-73,-142,193,-118,-114
-4,-60,-55,32,26,-57,32,-69,-139,193,-109,-106
0,-56,-56,29,28,-56,33,-69,-138,190,-107,-107
-1,-54,-53,28,26,-53,24,-80,-144,186,-100,-97
-1,-62,-60,32,29,-61,29,-66,-122,190,-112,-108
-22,-61,-39,42,9,-50,25,-91,-147,159,-121,-115
-55,-67,-11,61,-22,-39,69,-71,-130,182,-116,-128
-160,-84,76,121,-118,-4,161,-170,-239,122,-219,-241
-133,-107,26,120,-79,-40,214,9,-20,335,-54,-154
345,164,-180,-254,262,-8,-73,620,663,990,652,458
1045,632,-413,-839,729,110,-716,1199,1460,1801,1665,1431
1051,536,-515,-793,783,10,-885,978,1373,1633,1509,1467
373,140,-233,-256,303,-47,-594,-308,-241,66,0,320
13,21,9,-17,2,15,-302,-676,-800,-452,-533,-230
-29,-3,26,16,-28,11,-69,-228,-303,-8,-240,-143
-24,-41,-17,33,-3,-29,18,-125,-226,80,-177,-152
-23,-55,-33,39,5,-44,69,-41,-130,172,-130,-127
-51,-65,-13,58,-19,-39,88,-44,-131,159,-132,-125
-28,-80,-51,54,12,-65,87,-28,-102,168,-113,-112
-22,-77,-55,50,17,-66,96,-18,-91,196,-105,-103
-23,-71,-48,47,12,-59,93,-16,-92,190,-97,-98
-23,-68,-45,46,11,-56,96,2,-72,202,-82,-86
-26,-62,-36,44,6,-49,94,4,-77,196,-80,-83
-25,-59,-34,42,4,-46,96,21,-58,203,-70,-71
-26,-52,-26,39,0,-39,94,23,-55,206,-69,-65
-21,-46,-25,34,2,-35,89,36,-41,210,-60,-55
-14,-39,-25,27,6,-32,91,52,-32,229,-57,-47
-8,-33,-25,21,9,-28,89,61,-14,243,-49,-38
-1,-26,-25,14,13,-25,97,74,2,255,-36,-27
4,-21,-24,9,14,-22,107,109,22,274,-25,-18
11,-10,-20,0,16,-15,103,123,46,284,-8,-7
19,0,-20,-10,20,-10,101,148,75,307,10,1
29,11,-19,-20,24,-4,97,179,104,323,33,13
56,42,-15,-49,35,13,95,200,125,348,57,23
75,61,-15,-67,45,22,93,225,152,380,82,41
78,61,-17,-69,48,22,86,250,179,396,99,58
78,57,-21,-67,49,18,79,280,199,408,115,70
95,75,-20,-85,57,27,72,285,214,423,146,95
108,88,-20,-98,64,33,66,295,238,446,157,109
113,85,-28,-99,70,28,58,306,252,462,174,121
124,94,-31,-109,77,31,51,284,243,455,187,122
112,83,-30,-97,71,26,44,246,218,443,173,111
100,70,-30,-85,65,20,36,202,168,409,158,107
90,60,-30,-75,60,15,29,153,104,357,112,85
66,37,-30,-51,48,3,24,102,47,308,64,55
47,21,-26,-33,36,-2,35,55,1,248,27,28
36,15,-21,-25,28,-3,41,16,-39,200,3,14
29,10,-19,-20,24,-4,39,8,-60,175,-11,10
19,4,-14,-11,16,-5,40,11,-60,166,-33,5
9,-2,-11,-4,10,-6,40,9,-60,163,-35,2
4,-4,-8,0,6,-5,40,11,-59,158,-31,-4
3,1,-2,-1,2,-1,35,9,-66,154,-29,-3
4,5,1,-4,1,3,35,13,-71,149,-25,1
-5,1,7,2,-6,4,34,15,-65,145,-25,-1
-10,0,10,5,-10,5,30,15,-63,145,-19,0
-5,0,5,2,-5,2,30,19,-58,144,-13,-1
1,1,0,-1,0,0,30,20,-55,140,-6,-5
12,8,-4,-9,8,1,30,20,-59,140,1,-5
16,7,-9,-11,12,-1,30,14,-60,138,8,-5
16,2,-14,-8,14,-5,30,8,-63,133,8,-5
15,0,-15,-7,15,-7,30,4,-65,130,-3,-5
10,-5,-15,-2,13,-10,29,-2,-67,126,-11,-7
7,-8,-15,1,11,-11,26,-8,-71,122,-20,-12
3,-12,-15,5,9,-13,25,-13,-88,119,-30,-15
0,-15,-15,8,8,-15,25,-17,-102,113,-35,-18
-1,-15,-15,8,8,-15,25,-20,-99,102,-35,-23
-4,-15,-10,10,4,-12,25,-23,-103,95,-36,-24
-9,-15,-6,12,-1,-11,27,-28,-105,84,-40,-21
-11,-15,-4,14,-3,-10,31,-30,-105,80,-40,-18
-12,-11,1,11,-7,-5,29,-26,-102,80,-37,-16
-8,-5,3,6,-5,-1,31,-23,-96,79,-29,-12
-9,1,10,3,-9,5,29,-20,-91,81,-21,-10
-12,6,19,3,-16,12,31,-18,-88,78,-13,-8
-4,31,34,-14,-19,32,47,-14,-82,104,-6,3
23,49,26,-36,-2,37,40,-17,-80,128,3,12
30,52,21,-41,5,36,28,-21,-80,122,12,24
42,94,52,-68,-5,72,-6,-20,-80,134,23,28
81,117,36,-100,22,76,-42,-21,-81,133,27,38
91,109,17,-100,37,63,-36,-19,-79,120,18,51
91,107,17,-99,37,62,-31,-21,-81,108,10,42
61,71,10,-66,25,40,-26,-24,-78,88,0,36
14,20,6,-17,3,13,-19,-30,-92,66,-14,30
-5,-3,2,4,-4,0,-16,-46,-124,44,-46,22
-15,-22,-7,18,-4,-14,-8,-44,-123,46,-70,18
-8,-35,-27,22,10,-31,0,-46,-126,44,-71,10
-11,-47,-37,30,13,-42,7,-45,-125,40,-68,5
-17,-51,-34,34,9,-42,15,-43,-123,41,-71,-3
-14,-48,-35,31,11,-41,18,-51,-129,35,-69,-9
-19,-56,-36,38,9,-46,18,-44,-121,41,-67,-14
-20,-52,-32,37,7,-42,11,-58,-142,26,-67,-11
-22,-59,-36,41,7,-47,12,-42,-117,41,-61,8
-46,-56,-10,51,-18,-33,14,-69,-153,17,-70,-5
-52,-64,-12,58,-20,-38,51,-40,-116,28,-62,-34
-113,-61,52,86,-82,-4,122,-95,-184,-47,-179,-147
-151,-90,60,120,-105,-15,213,-37,-99,69,-115,-156
169,57,-112,-113,140,-27,53,468,495,648,466,311
809,624,-184,-716,496,220,-584,942,1170,1482,1569,1303
1028,737,-291,-882,659,223,-884,992,1519,1873,2012,1736
462,237,-225,-349,343,6,-635,5,250,462,569,738
-10,33,43,-11,-27,37,-371,-688,-822,-638,-480,-106
-44,59,103,-8,-73,80,-142,-312,-391,-248,-244,-114
-51,21,72,15,-62,46,-30,-122,-200,-104,-140,-97
-46,-12,34,29,-40,11,24,-37,-109,-30,-80,-71
-31,-23,8,26,-19,-7,57,-4,-77,9,-62,-68
-21,-19,2,20,-12,-8,59,-8,-87,6,-63,-66
-15,-21,-5,18,-5,-13,68,11,-57,45,-47,-54
-11,-20,-9,16,-1,-14,59,2,-74,46,-53,-56
-14,-20,-6,18,-4,-12,59,21,-46,63,-37,-44
-10,-18,-8,15,-1,-13,53,16,-57,50,-44,-47
14,-13,-27,0,21,-19,49,40,-38,65,-34,-44
14,-11,-25,-2,20,-17,60,40,-38,56,-36,-46
12,-6,-18,-3,15,-12,66,40,-23,65,-30,-45
12,-3,-14,-4,13,-8,65,63,1,67,-30,-45
8,1,-8,-4,8,-3,65,82,19,84,-20,-40
8,5,-2,-6,5,2,65,95,38,114,-4,-32
13,11,-2,-12,8,5,65,113,41,115,8,-26
23,17,-6,-19,14,6,68,137,61,131,26,-19
27,22,-5,-24,16,8,73,168,96,155,38,-13
51,46,-5,-48,28,21,74,190,123,175,67,-3
63,58,-5,-60,34,27,69,209,146,198,81,8
57,52,-5,-54,31,23,66,238,177,218,94,19
93,83,-10,-88,51,36,63,253,193,242,126,35
126,112,-15,-119,70,48,58,272,208,258,138,51
128,110,-18,-119,73,46,56,286,235,277,153,73
133,109,-24,-121,79,42,49,277,240,295,171,88
141,119,-22,-130,82,48,37,272,235,310,190,97
138,124,-14,-131,75,55,26,268,233,329,225,125
122,116,-6,-118,64,55,15,247,221,315,223,132
107,109,2,-108,52,55,9,204,176,272,185,103
94,104,9,-99,42,56,6,152,119,230,146,55
77,92,15,-85,31,53,3,101,61,189,97,20
59,77,18,-68,20,47,-2,60,17,136,53,9
33,59,27,-46,3,43,-5,31,-9,98,34,-12
15,45,30,-30,-8,38,-1,16,-42,93,11,-36
7,32,25,-20,-10,28,0,15,-56,86,-7,-42
-5,18,23,-7,-14,20,0,15,-59,78,-4,-39
17,36,18,-27,-1,27,4,15,-61,72,-1,-40
32,47,15,-40,8,31,5,15,-60,63,3,-40
34,45,11,-40,11,28,4,15,-60,72,5,-40
51,60,10,-55,20,35,-1,15,-60,85,0,-38
47,57,10,-52,18,33,-7,15,-57,78,0,-32
45,50,5,-48,20,27,-10,15,-55,69,-3,-27
45,49,5,-48,20,27,-15,15,-55,66,-6,-24
33,39,6,-36,13,23,-20,15,-52,55,1,-18
38,48,11,-43,14,29,-17,11,-49,61,24,-15
50,65,14,-58,18,40,-15,5,-50,83,31,-20
39,58,19,-48,10,38,-15,0,-55,76,20,-20
30,50,21,-40,4,35,-15,-6,-54,66,13,-20
25,45,19,-35,3,32,-15,-11,-58,58,4,-22
16,36,21,-26,-3,28,-16,-17,-63,48,-3,-27
19,37,19,-28,0,28,-20,-20,-73,41,-9,-30
16,41,24,-28,-4,32,-20,-23,-77,34,-17,-36
11,39,28,-26,-9,34,-20,-25,-74,27,-21,-45
23,44,21,-34,1,32,-20,-29,-93,19,-31,-43
31,45,14,-38,8,29,-20,-30,-96,13,-39,-39
39,45,7,-42,16,26,-17,-30,-94,13,-34,-36
52,50,-2,-50,27,24,-14,-34,-96,20,-28,-31
52,50,-1,-51,26,24,-11,-36,-94,22,-23,-29
33,50,16,-42,9,33,-9,-33,-94,29,-17,-24
22,54,32,-38,-6,43,-4,-28,-85,31,-13,-19
38,89,50,-64,-6,69,-7,-22,-75,38,-7,-14
48,89,41,-69,4,65,-2,-18,-65,45,-3,-10
63,99,36,-82,13,68,-26,-11,-56,46,-1,-6
87,164,78,-126,4,120,-76,-6,-49,70,22,-1
71,154,84,-113,-7,119,-80,-12,-47,69,30,9
70,144,74,-107,-2,109,-73,-27,-64,57,22,19
80,137,57,-109,11,97,-72,-38,-82,53,16,11
47,74,27,-61,10,50,-62,-31,-77,42,10,8
19,38,18,-29,0,28,-48,-39,-88,22,-1,-10
14,21,7,-18,3,14,-35,-58,-115,-3,-36,-48
8,5,-3,-6,5,1,-29,-56,-106,-2,-48,-55
13,-2,-15,-5,15,-9,-23,-62,-115,-13,-58,-58
33,-8,-41,-12,38,-24,-20,-59,-114,-13,-59,-59
14,-9,-23,-2,18,-16,-14,-64,-114,-23,-60,-66
-14,-14,0,14,-7,-7,-13,-68,-122,-27,-52,-66
-16,-15,1,15,-8,-7,-3,-61,-113,-30,-63,-65
-15,-7,9,11,-12,1,-1,-79,-132,-55,-78,-66
-20,-15,5,17,-12,-5,15,-58,-108,-5,-38,-62
-23,-4,20,13,-22,8,15,-85,-146,-35,-59,-69
-34,-24,10,29,-22,-7,30,-55,-100,-19,-68,-76
-107,-28,79,68,-93,25,111,-113,-191,-111,-184,-202
-126,-48,78,87,-102,15,192,-21,-58,58,-60,-158
212,161,-51,-186,131,55,-40,470,552,693,573,351
829,697,-132,-762,480,282,-687,939,1241,1548,1686,1314
947,656,-291,-801,619,183,-939,989,1576,1936,2087,1672
450,218,-231,-334,340,-7,-692,-11,220,393,542,632
69,100,31,-85,19,65,-413,-645,-780,-677,-477,-133
-53,79,131,-13,-93,105,-157,-299,-350,-252,-231,-108
-67,40,107,13,-88,74,-39,-144,-202,-134,-145,-102
-37,12,49,12,-44,30,20,-62,-106,-55,-86,-85
-33,-3,30,18,-31,13,43,-34,-80,-42,-88,-89
-46,-19,27,32,-36,4,45,-16,-75,-41,-80,-84
-62,-40,23,50,-42,-8,60,5,-49,-19,-70,-79
-57,-36,20,47,-38,-8,58,1,-60,-28,-73,-81
-46,-31,14,38,-30,-8,62,20,-33,-5,-57,-73
-43,-26,18,34,-30,-4,59,19,-41,-12,-62,-77
-41,-20,21,30,-31,1,68,31,-22,2,-48,-74
-41,-15,26,27,-33,5,80,30,-19,2,-46,-76
-39,-10,30,24,-34,10,80,34,-11,11,-37,-75
-32,-2,30,17,-31,14,80,38,9,15,-31,-73
-30,4,34,13,-32,19,80,54,31,48,-26,-69
-24,11,35,6,-30,23,80,67,37,69,-13,-71
-20,17,37,1,-29,27,80,90,63,68,7,-51
-21,20,41,1,-31,30,80,120,95,90,26,-23
1,41,40,-21,-20,40,81,140,119,110,43,-13
12,52,40,-32,-14,46,80,164,147,130,58,-3
19,59,40,-39,-11,49,80,192,174,152,88,12
49,90,40,-70,5,65,80,221,203,179,124,30
61,106,45,-84,8,75,73,236,224,204,143,40
55,99,45,-78,4,72,64,253,250,222,158,54
69,115,46,-92,11,80,56,271,275,254,195,82
75,125,51,-100,12,88,46,280,295,286,247,110
83,132,49,-108,17,90,35,289,312,284,259,132
92,145,53,-119,20,99,23,274,310,272,258,132
75,130,55,-103,10,92,12,230,273,264,249,125
59,116,57,-88,1,86,3,177,213,220,200,102
43,102,59,-72,-9,80,2,127,145,149,149,63
26,88,62,-57,-18,74,6,80,86,89,98,25
4,73,70,-39,-33,71,8,43,42,40,58,1
-9,56,65,-24,-38,61,11,30,9,1,40,-3
-10,50,60,-20,-35,55,14,19,-5,-21,24,-11
-13,42,55,-15,-34,48,16,7,-8,-30,14,-19
-12,36,48,-12,-30,41,19,0,-12,-43,8,-26
-19,27,46,-4,-33,36,24,-4,-15,-52,1,-33
-31,22,53,4,-42,37,25,-6,-20,-55,-5,-35
-34,24,59,5,-47,41,25,-11,-18,-69,-13,-35
-36,25,61,6,-49,43,25,-14,-14,-76,-13,-35
-40,29,69,5,-54,49,25,-18,-16,-75,-6,-35
-41,30,70,6,-56,50,25,-21,-15,-74,1,-34
-36,33,70,1,-53,51,25,-20,-15,-77,7,-31
-29,41,70,-6,-50,55,25,-20,-15,-72,14,-29
-30,40,70,-5,-50,55,33,-20,-11,-79,19,-31
-30,40,70,-5,-50,55,34,-20,-10,-94,15,-29
-30,40,70,-5,-50,55,27,-25,-10,-96,15,-31
-30,40,70,-5,-50,55,24,-25,-10,-95,14,-28
-32,38,70,-3,-52,54,18,-26,-10,-92,9,-24
-35,34,70,1,-53,51,15,-30,-12,-118,11,-46
-35,36,70,0,-53,52,20,-30,-21,-135,7,-57
-38,31,69,3,-53,50,20,-32,-29,-134,5,-54
-35,30,65,2,-49,47,21,-36,-37,-140,5,-56
-36,30,66,3,-51,47,25,-38,-44,-149,5,-55
-37,26,62,5,-50,44,24,-41,-41,-168,5,-55
-35,25,60,5,-48,42,27,-48,-40,-180,6,-49
-38,22,60,8,-49,41,31,-48,-40,-186,9,-43
-44,19,63,12,-53,41,30,-41,-40,-181,14,-39
-51,22,72,14,-62,47,30,-36,-40,-179,16,-32
-43,39,82,2,-63,61,30,-29,-37,-175,21,-28
-32,69,101,-19,-67,85,30,-26,-34,-175,23,-22
-31,76,106,-23,-69,91,23,-29,-35,-190,29,-14
-19,86,105,-34,-62,95,12,-31,-35,-190,48,-8
6,129,123,-68,-59,126,1,-30,-35,-192,49,-1
21,140,119,-81,-50,130,-29,-31,-37,-187,52,5
27,125,98,-76,-35,111,-43,-29,-39,-202,60,9
19,108,89,-63,-36,98,-28,-32,-41,-235,49,14
-10,72,83,-31,-47,77,-15,-26,-37,-230,46,10
-41,34,75,4,-58,54,-5,-41,-51,-261,31,-17
-65,3,68,31,-66,35,1,-69,-78,-301,-12,-43
-71,-11,60,41,-65,24,11,-62,-73,-292,-30,-52
-77,-20,56,48,-66,18,17,-68,-77,-298,-31,-61
-84,-33,50,58,-67,8,24,-62,-75,-291,-28,-65
-95,-46,49,70,-72,2,25,-71,-82,-298,-32,-71
-95,-51,44,72,-69,-3,24,-85,-80,-293,-28,-72
-86,-46,39,66,-62,-3,32,-83,-80,-297,-29,-77
-85,-41,44,62,-64,2,26,-91,-93,-305,-23,-74
-84,-42,42,63,-63,0,37,-82,-72,-290,-15,-75
-86,-30,56,58,-71,13,27,-102,-100,-315,-23,-76
-121,-45,76,83,-98,15,70,-81,-82,-277,-36,-99
-226,-54,172,140,-199,59,166,-196,-222,-387,-168,-219
-211,-66,145,139,-178,39,244,-68,-40,-181,-14,-147
198,179,-19,-188,108,79,-61,535,660,540,714,432
886,709,-177,-797,531,266,-785,1234,1603,1559,1879,1419
1000,673,-327,-836,663,173,-1037,1187,1804,1715,2028,1633
371,207,-165,-289,268,21,-739,-67,177,17,442,578
-51,41,93,5,-72,67,-366,-600,-669,-825,-381,-128
-125,42,166,41,-146,104,-99,-267,-261,-425,-148,-122
-128,4,132,62,-130,68,14,-153,-170,-311,-103,-106
-132,-36,96,84,-114,29,84,-65,-78,-226,-47,-95
-157,-51,106,104,-131,27,107,-74,-88,-240,-49,-103
-145,-50,95,97,-120,22,115,-57,-70,-212,-42,-99
-145,-50,94,97,-119,22,120,-51,-55,-189,-33,-100
-140,-50,90,95,-115,20,120,-50,-57,-182,-34,-101
-136,-50,86,93,-111,17,120,-35,-33,-160,-21,-100
-133,-48,85,90,-109,18,120,-38,-36,-158,-23,-107
-129,-44,85,86,-106,20,121,-24,-17,-134,-9,-103
-130,-45,85,87,-107,20,117,-25,-17,-127,-8,-108
-130,-45,86,87,-107,20,133,-14,-4,-101,2,-110
-129,-45,83,86,-105,19,142,-13,1,-79,7,-110
-135,-44,91,89,-112,23,139,1,28,-52,14,-105
-149,-39,110,94,-129,36,140,23,47,-36,29,-95
-137,-26,110,82,-123,42,140,39,53,-19,40,-85
-128,-19,110,74,-119,45,154,71,79,4,56,-76
-117,-6,111,62,-113,52,164,100,110,46,75,-58
-109,1,110,54,-109,55,169,120,137,92,96,-38
-95,14,109,40,-102,61,166,143,162,118,114,-23
-62,43,105,9,-83,73,159,172,195,153,142,-10
-53,52,105,0,-79,78,155,195,224,192,171,7
-38,68,106,-15,-72,87,148,214,251,241,202,35
-26,78,103,-26,-65,90,143,227,283,276,236,54
-26,87,114,-31,-70,100,123,216,295,311,257,76
-25,101,126,-38,-76,113,102,212,298,343,285,92
-33,92,125,-30,-79,108,86,202,291,333,294,84
-37,86,123,-25,-81,104,70,164,254,319,265,77
-41,80,121,-19,-81,100,64,113,203,290,220,72
-50,69,119,-10,-85,93,66,48,135,240,170,40
-76,47,123,14,-100,85,62,-5,69,191,121,-4
-101,28,129,36,-115,78,60,-43,27,160,80,-32
-112,12,124,50,-118,68,60,-63,3,158,62,-47
-121,-3,118,62,-119,58,64,-76,-12,153,52,-61
-119,-6,113,62,-116,54,65,-95,-26,151,39,-75
-115,-9,106,62,-110,48,65,-95,-32,145,31,-75
-121,-13,108,67,-114,47,70,-96,-39,147,26,-74
-125,-15,110,70,-117,47,70,-101,-40,157,21,-76
-127,-15,111,71,-118,48,70,-99,-40,168,18,-76
-130,-15,115,72,-122,50,70,-103,-45,187,12,-86
-130,-15,115,72,-122,50,70,-106,-45,203,11,-100
-137,-15,122,76,-129,53,70,-105,-44,224,16,-97
-141,-15,126,78,-133,55,70,-106,-40,242,21,-91
-138,-13,125,75,-131,56,71,-105,-39,261,25,-88
-134,-9,125,71,-130,57,66,-106,-41,276,30,-82
-136,-11,125,73,-130,57,65,-110,-39,300,35,-81
-131,-7,124,68,-127,58,64,-110,-42,317,35,-85
-125,-4,121,64,-122,58,61,-111,-30,335,35,-85
-125,-7,118,66,-121,55,59,-108,-13,355,35,-87
-123,-7,116,64,-119,54,61,-114,-14,366,35,-91
-131,-19,112,75,-121,46,75,-99,-16,388,35,-89
-125,-15,110,70,-117,47,74,-86,-17,391,34,-94
-139,-29,111,84,-125,41,76,-101,-12,401,28,-81
-132,-24,108,78,-120,42,69,-101,-3,416,22,-60
-167,-33,133,100,-150,50,72,-96,-8,426,16,-82
-173,-13,161,92,-167,73,63,-79,-93,442,11,-120
