I,II,III,aVR,aVL,aVF,V1,V2,V3,V4,V5,V6
80,-20,-99,-30,89,-59,0,15,-4,-20,-39,-30
76,-17,-93,-29,85,-55,1,19,1,-16,-33,-30
74,-11,-85,-32,80,-47,5,25,9,-9,-22,-26
71,-5,-76,-33,74,-40,8,31,17,-3,-20,-24
69,-1,-69,-34,69,-35,13,37,24,5,-20,-21
81,19,-62,-50,71,-21,15,43,25,9,-20,-20
84,26,-58,-55,70,-15,10,45,25,6,-20,-31
70,16,-53,-43,61,-18,10,45,25,2,-20,-31
61,11,-50,-36,55,-19,10,45,25,0,-18,-30
51,4,-47,-27,49,-21,10,45,25,-5,-13,-29
38,-4,-42,-17,40,-22,10,45,28,-3,-10,-24
39,-1,-40,-19,40,-20,12,50,36,4,-7,-26
39,9,-30,-24,34,-10,15,54,42,9,-2,-22
43,25,-18,-33,30,3,16,53,46,15,1,-19
22,10,-12,-16,17,-1,21,49,45,15,-10,-20
16,8,-8,-12,12,0,19,50,45,15,-18,-20
38,34,-3,-36,20,15,15,65,50,15,-12,-20
20,22,1,-21,9,11,15,72,50,15,-7,-19
4,9,5,-7,-1,7,15,69,51,14,-4,-15
-43,-15,27,29,-35,6,15,67,49,19,2,-15
-72,-34,38,53,-54,2,14,64,55,36,5,-15
-46,-11,34,28,-40,11,18,65,70,41,1,-15
-32,2,34,15,-33,17,20,65,70,39,-3,-15
-27,3,30,12,-29,16,21,65,69,41,-5,-13
-29,0,29,15,-29,14,25,65,71,39,-10,-8
-28,6,34,11,-32,20,25,67,67,41,-7,-5
-21,24,45,-2,-33,34,29,66,65,37,-5,-2
-14,31,45,-9,-30,38,30,64,65,35,-5,3
-15,29,45,-7,-30,37,30,65,62,35,-5,5
-15,30,45,-8,-30,37,30,64,59,31,-5,0
-19,26,45,-4,-32,35,29,66,61,30,0,-4
-25,19,44,2,-34,31,32,63,64,30,0,-6
-24,16,40,4,-32,27,35,74,67,25,1,-11
-32,8,40,12,-37,24,35,86,69,25,5,-15
-34,6,40,14,-37,22,35,84,73,25,5,-15
-46,-6,41,26,-43,17,35,85,80,25,3,-15
-44,-5,39,24,-42,17,35,85,80,25,-2,-15
-23,24,47,-1,-35,35,35,85,80,25,-5,-15
-37,26,64,5,-51,45,35,89,80,25,-8,-15
-47,18,65,14,-56,41,35,90,80,25,-13,-15
-44,20,65,12,-55,42,35,90,78,25,-16,-20
-60,10,70,25,-66,40,36,90,75,25,-20,-20
-56,13,69,22,-63,41,34,89,72,25,-20,-20
-57,15,72,21,-64,43,36,91,69,30,-20,-20
-53,22,75,15,-64,48,38,95,66,30,-20,-20
-25,50,75,-13,-51,62,42,95,65,31,-20,-18
-22,59,80,-18,-52,69,39,96,71,36,-18,-13
-26,53,79,-13,-53,65,44,95,77,34,-13,-11
-37,53,90,-8,-64,71,70,96,87,40,-9,-7
-44,66,111,-11,-78,88,65,90,88,48,-4,-3
-41,90,131,-24,-86,110,51,82,77,45,1,1
-13,123,136,-55,-75,129,9,72,70,41,4,5
21,116,94,-69,-37,105,-52,53,63,40,9,13
27,71,44,-49,-9,57,-74,34,55,34,11,16
17,27,10,-22,3,18,-69,32,56,37,17,24
24,37,13,-31,5,25,-42,55,54,43,18,28
-21,26,47,-3,-34,36,-13,78,65,48,19,-2
-91,-40,51,66,-71,5,18,72,55,35,10,-19
-75,-25,49,50,-62,12,46,78,59,36,5,-8
-72,-21,51,46,-61,15,58,85,53,28,-1,-6
-63,-16,47,40,-55,15,51,88,47,18,-13,-3
-58,-4,54,31,-56,25,60,95,61,32,-9,7
-63,-5,58,34,-61,26,43,78,72,47,-15,-2
-41,7,48,17,-45,27,38,166,202,107,20,-8
-61,-89,-28,75,-16,-58,9,29,138,48,-7,-34
102,-109,-211,4,157,-160,-264,-667,-247,166,150,119
463,-30,-494,-216,479,-262,-857,-1638,-1155,39,401,467
666,181,-485,-423,575,-151,-1465,-2224,-1705,-46,765,982
654,379,-275,-517,464,52,-1446,-1987,-1283,389,1273,1459
379,174,-205,-276,292,-15,-799,-1119,-839,67,712,881
22,1,-21,-12,21,-10,-143,-205,-215,-170,-53,44
-94,-15,79,54,-86,32,85,122,122,31,-48,-42
-115,-51,64,83,-89,6,113,175,114,9,-67,-71
-129,-46,83,87,-106,18,161,244,201,66,-65,-94
-123,-48,75,86,-98,13,153,251,189,50,-66,-89
-127,-42,86,84,-106,21,174,275,226,64,-86,-109
-122,-38,84,80,-103,22,185,272,224,66,-80,-100
-125,-36,89,80,-106,26,190,286,241,57,-90,-116
-122,-31,91,76,-106,30,199,299,253,64,-81,-110
-116,-31,85,73,-100,27,207,318,246,56,-91,-121
-132,-52,81,92,-106,14,216,322,254,63,-90,-130
-137,-63,74,99,-106,6,214,320,246,58,-104,-135
-128,-58,70,93,-99,5,220,335,256,59,-105,-139
-124,-61,63,92,-94,1,219,338,254,48,-115,-142
-118,-59,59,89,-89,0,224,346,251,43,-130,-146
-115,-61,55,87,-85,-2,238,353,246,36,-133,-144
-114,-59,55,86,-85,-2,240,352,242,23,-136,-141
-112,-61,51,86,-81,-5,233,347,234,5,-135,-140
-107,-59,49,83,-78,-5,226,343,206,-9,-134,-141
-130,-64,66,97,-98,1,219,338,176,-27,-139,-140
-136,-76,60,106,-98,-8,211,314,153,-65,-145,-141
-110,-72,38,91,-74,-17,205,276,137,-78,-135,-134
-100,-67,34,83,-67,-16,194,235,124,-79,-124,-112
-83,-59,25,71,-54,-17,172,195,100,-89,-108,-93
-68,-49,19,58,-43,-15,143,151,57,-87,-83,-74
-51,-42,9,46,-30,-16,109,109,13,-78,-62,-52
-40,-32,8,36,-24,-11,76,80,-17,-70,-47,-28
-51,-26,24,38,-37,-1,46,52,-28,-61,-36,-8
-41,-16,26,28,-33,5,23,23,-26,-51,-22,1
-35,-10,25,22,-30,7,19,13,-25,-38,-3,8
-24,-1,23,12,-23,11,20,9,-25,-28,10,13
-8,11,19,-1,-14,15,16,4,-25,-23,15,11
-13,7,20,3,-17,13,14,1,-23,-17,23,8
-1,23,24,-11,-13,23,15,-6,-12,-14,21,6
-21,7,28,6,-24,17,21,7,-3,-9,14,2
-59,-25,34,42,-46,4,32,32,8,-5,8,0
-57,-25,32,40,-44,3,38,48,19,-11,0,-3
-61,-25,36,43,-48,5,51,63,35,-18,-5,-10
-76,-25,51,50,-63,13,66,74,46,-21,-15,-18
-70,-25,45,47,-57,10,64,87,39,-19,-21,-24
-64,-24,40,44,-52,8,68,102,35,-21,-31,-34
-54,-17,37,35,-45,10,77,112,32,-19,-36,-37
-13,18,31,-3,-22,24,87,124,26,-22,-35,-39
-13,15,28,-1,-21,21,94,129,27,-34,-52,-53
-60,-37,23,48,-41,-6,87,120,30,-36,-57,-56
-67,-47,20,57,-43,-13,81,114,33,-34,-53,-53
-60,-44,17,51,-38,-13,76,108,36,-31,-52,-51
-59,-47,12,53,-35,-17,71,100,35,-29,-49,-49
-53,-43,10,48,-31,-16,65,90,35,-32,-51,-52
-63,-48,15,55,-39,-16,60,82,35,-35,-50,-55
-57,-42,14,49,-35,-14,54,73,35,-35,-50,-55
-65,-48,16,56,-40,-16,48,64,36,-37,-50,-55
-59,-39,20,49,-39,-9,44,58,32,-41,-50,-55
-25,-5,20,15,-22,7,39,52,30,-40,-50,-55
-52,-33,19,42,-35,-7,40,48,30,-37,-47,-52
-51,-47,4,48,-27,-21,40,41,27,-34,-42,-47
-53,-29,24,40,-38,-3,40,36,24,-31,-39,-44
-80,-32,48,56,-64,8,40,38,26,-28,-36,-41
-72,-29,44,50,-58,7,40,41,29,-25,-31,-36
-76,-31,46,53,-61,7,41,40,31,-23,-29,-34
-73,-28,45,50,-59,8,38,40,30,-11,-21,-28
-23,21,45,1,-34,33,46,41,33,4,-13,-23
0,52,51,-26,-26,51,46,39,42,7,-5,-18
-23,52,75,-15,-49,63,45,26,39,2,3,-11
7,79,72,-43,-33,75,12,10,26,-1,8,-7
31,71,40,-52,-4,55,-53,0,19,-4,12,0
28,35,7,-32,10,21,-82,-15,6,-9,14,7
46,10,-36,-28,41,-13,-86,-22,6,-10,19,14
48,-6,-54,-21,51,-30,-75,-11,5,-10,19,18
30,-13,-43,-8,37,-28,-40,4,1,-10,4,-5
17,-20,-38,2,28,-29,4,15,1,-13,-12,-31
-1,-33,-32,17,16,-32,18,22,-3,-25,-19,-46
-22,-43,-21,33,0,-32,42,31,11,-25,-13,-53
-18,-40,-23,29,3,-31,42,20,4,-38,-15,-55
-23,-27,-4,25,-9,-15,45,24,27,-17,-8,-56
-16,-29,-13,23,-2,-21,26,7,11,-5,-10,-53
-24,-11,13,17,-18,1,15,54,86,46,-1,-58
-14,-34,-19,24,3,-26,47,81,166,58,8,-48
40,-119,-160,40,100,-139,-122,-398,-117,33,30,-4
306,-135,-441,-85,373,-288,-583,-1314,-843,16,227,217
677,7,-670,-341,674,-331,-1306,-2109,-1657,-197,490,638
723,313,-410,-518,567,-49,-1627,-2259,-1609,62,998,1221
572,329,-243,-450,407,43,-1206,-1692,-1159,177,1068,1258
235,72,-163,-154,199,-45,-492,-708,-631,-212,253,388
-3,-6,-3,5,0,-4,8,-14,-33,-118,-97,-84
-6,-19,-13,12,3,-15,93,114,75,-27,-39,-63
-49,-20,29,34,-39,5,136,181,122,-26,-73,-104
-51,-17,34,33,-42,8,163,210,150,9,-55,-95
-85,-51,34,68,-59,-8,166,228,147,3,-86,-130
-100,-55,44,77,-71,-5,181,250,174,37,-76,-124
-88,-55,33,71,-60,-11,169,240,171,24,-82,-123
-94,-55,39,74,-66,-8,190,270,203,33,-86,-131
-83,-55,28,69,-55,-13,193,282,203,29,-83,-140
-88,-55,33,72,-60,-11,199,299,210,30,-89,-155
-94,-43,51,68,-72,4,213,312,210,31,-91,-157
-84,-27,57,55,-70,14,225,329,220,26,-109,-169
-88,-33,54,60,-71,10,240,345,238,23,-111,-177
-114,-58,55,86,-84,-1,248,358,246,18,-126,-188
-115,-60,55,87,-85,-2,249,383,259,16,-141,-186
-110,-55,55,82,-82,0,263,397,279,11,-149,-185
-110,-54,56,81,-82,1,273,403,281,9,-157,-185
-104,-50,55,77,-80,2,263,400,267,-7,-162,-179
-106,-49,57,77,-82,4,254,401,257,-28,-163,-181
-115,-45,70,80,-92,12,246,398,244,-45,-156,-178
-104,-42,62,73,-83,10,235,367,218,-54,-153,-167
-81,-38,43,59,-62,2,217,323,188,-55,-147,-158
-70,-35,34,52,-51,0,180,269,162,-55,-128,-133
-58,-30,27,44,-42,-1,134,204,125,-55,-108,-100
-41,-21,21,31,-31,0,88,149,85,-55,-86,-77
-28,-13,15,20,-21,1,55,106,54,-55,-63,-58
-10,-4,6,7,-8,1,42,73,31,-51,-42,-38
-8,1,9,3,-9,5,33,44,16,-44,-26,-28
-30,-8,21,19,-25,6,25,26,12,-38,-25,-18
-35,-16,19,26,-26,1,22,25,9,-31,-25,-8
-21,-7,14,14,-17,3,18,25,6,-24,-25,-10
-14,-1,12,7,-13,5,16,21,1,-20,-25,-10
-1,6,7,-3,-4,6,8,20,1,-20,-25,-11
15,20,5,-18,5,12,19,20,8,-20,-29,-16
8,12,5,-10,1,8,30,22,14,-20,-31,-15
-9,-2,7,6,-8,2,31,30,19,-20,-34,-17
-29,-18,11,23,-20,-3,29,38,20,-20,-37,-21
-36,-27,9,32,-22,-9,33,39,21,-23,-39,-22
-37,-14,24,25,-30,5,49,59,24,-27,-41,-28
-49,-11,38,30,-43,13,49,76,27,-28,-50,-37
-71,-35,36,53,-53,1,53,74,23,-32,-65,-50
-60,-31,29,45,-44,-1,42,76,27,-28,-55,-46
-23,2,25,10,-24,13,50,79,42,-9,-35,-26
17,83,66,-50,-25,74,39,171,162,99,44,40
99,224,125,-162,-13,174,35,367,351,266,183,152
212,396,184,-304,13,290,-24,479,521,451,357,307
308,582,273,-445,17,427,-170,305,644,622,552,484
305,718,413,-511,-54,565,-283,-78,674,704,662,596
279,821,542,-550,-132,681,-420,-434,734,758,748,670
204,884,680,-544,-238,781,-545,-870,651,730,759,667
202,893,691,-548,-245,792,-968,-1409,301,751,863,780
345,736,391,-541,-23,563,-1290,-1544,-196,772,1026,966
353,532,179,-443,87,355,-1100,-1260,-351,716,992,939
248,509,260,-379,-6,384,-945,-1120,-371,613,838,795
148,431,283,-290,-67,357,-790,-1076,-748,310,588,590
101,227,126,-164,-13,176,-479,-761,-711,2,361,388
6,4,-2,-5,4,1,-94,-250,-307,-146,77,130
-80,-131,-51,106,-14,-91,150,90,-82,-171,-172,-123
-86,-168,-82,127,-2,-124,183,151,-21,-174,-233,-202
-108,-195,-86,152,-11,-140,184,156,-43,-187,-258,-219
-78,-210,-132,144,27,-170,178,179,-31,-184,-265,-221
-33,-237,-204,135,86,-220,175,202,-36,-183,-263,-218
-28,-254,-226,141,99,-239,168,225,-44,-199,-275,-230
-45,-275,-230,160,92,-252,210,249,-43,-216,-294,-254
-71,-301,-230,186,80,-265,268,271,-56,-232,-323,-289
-91,-323,-232,207,71,-277,273,279,-76,-258,-352,-312
-118,-354,-235,237,59,-295,287,294,-93,-279,-368,-327
-128,-364,-236,247,54,-300,311,308,-116,-308,-386,-336
-145,-382,-238,264,47,-310,328,326,-140,-324,-404,-349
-155,-416,-261,286,53,-339,337,326,-166,-353,-428,-370
-137,-431,-295,284,79,-363,338,317,-183,-383,-444,-377
-140,-430,-291,285,75,-360,332,312,-184,-392,-441,-372
-146,-430,-285,288,70,-357,326,304,-182,-407,-432,-371
-140,-420,-280,280,70,-349,321,295,-175,-402,-427,-360
-111,-385,-273,248,81,-329,299,268,-169,-388,-417,-330
-57,-325,-268,192,106,-297,263,243,-164,-374,-377,-290
-40,-284,-244,162,102,-264,226,211,-157,-345,-322,-238
-31,-237,-206,134,88,-221,185,166,-139,-305,-264,-178
0,-164,-165,82,83,-164,148,124,-109,-257,-201,-123
1,-127,-129,63,65,-128,129,90,-73,-212,-146,-83
-5,-107,-101,56,48,-104,95,66,-54,-170,-104,-57
15,-70,-85,28,51,-77,59,53,-42,-130,-59,-29
10,-39,-49,15,30,-44,52,46,-28,-91,-28,-10
-12,-33,-20,23,4,-26,48,39,-17,-59,-13,-10
-4,-23,-19,13,8,-21,43,31,-4,-42,-3,-9
0,-16,-16,8,8,-16,39,23,0,-32,-5,-6
9,-4,-13,-2,11,-8,35,25,2,-23,-5,-4
19,8,-11,-14,15,-1,28,30,5,-18,-7,-6
-9,-17,-8,14,-1,-13,30,36,8,-15,-11,-10
-21,-26,-5,24,-7,-15,37,41,10,-11,-9,-10
-7,-15,-8,11,0,-11,34,40,14,-7,-10,-14
-3,-14,-11,8,4,-12,35,40,25,-4,-10,-15
4,-6,-9,1,7,-7,35,40,35,-1,-10,-11
9,-1,-10,-4,10,-5,35,40,40,4,-10,-10
6,-4,-10,-1,8,-7,33,37,42,7,-10,-10
4,-4,-8,0,7,-6,29,34,45,10,-8,-10
-1,-7,-6,4,3,-6,27,31,48,15,-5,-10
2,1,-1,-1,2,0,24,28,51,13,-3,-9
23,21,-2,-22,12,9,21,26,46,10,0,-5
-1,17,18,-8,-9,17,19,23,45,10,3,-5
-26,11,37,7,-31,23,16,20,45,10,5,-5
-18,9,27,5,-23,18,13,17,40,10,8,-5
-19,1,21,9,-20,11,11,15,40,10,13,-5
-13,2,15,6,-14,8,7,11,39,15,16,-1
-1,5,6,-2,-4,5,5,10,35,15,19,0
-2,6,8,-2,-5,7,2,10,35,15,24,0
-4,9,13,-3,-9,11,0,10,32,15,24,0
-9,11,20,-1,-14,15,0,10,30,14,20,1
-19,5,24,7,-22,15,0,10,30,18,20,-2
-14,6,21,4,-18,13,0,10,34,20,20,-7
-18,2,20,8,-19,11,1,10,35,20,20,-6
-5,15,20,-5,-13,17,4,10,35,20,20,-2
15,35,20,-25,-3,27,5,10,39,20,20,0
9,29,20,-19,-5,24,5,10,41,20,20,4
4,22,19,-13,-8,20,5,10,38,15,20,5
8,17,9,-12,-1,13,5,10,35,15,20,2
-3,4,7,-1,-5,5,5,14,35,14,20,-1
-38,-7,31,22,-34,12,5,15,33,10,19,-4
-37,-3,33,20,-35,15,5,15,29,10,15,-7
-19,6,25,6,-22,15,5,15,30,12,15,-10
-7,15,22,-5,-15,18,5,15,30,15,13,-9
3,17,14,-10,-5,15,5,15,30,15,9,-5
-8,4,11,2,-10,7,1,15,30,15,10,-3
-32,-18,15,25,-23,-2,0,15,30,15,6,0
-34,-14,20,24,-27,3,0,15,30,15,5,3
-16,8,24,4,-20,15,0,15,31,15,5,5
-10,13,23,-1,-17,17,0,15,38,15,5,2
12,31,19,-21,-4,25,0,11,37,15,5,-3
24,41,17,-33,3,29,0,10,35,15,5,-6
20,34,14,-27,3,24,0,10,35,15,5,-9
20,30,11,-25,4,21,0,10,30,18,5,-14
24,34,10,-29,7,21,0,10,29,20,5,-14
18,35,17,-27,0,26,-1,9,31,20,5,-9
7,35,28,-21,-11,31,7,5,36,24,5,-6
-2,35,38,-17,-21,36,10,5,40,25,9,-3
-20,36,56,-8,-38,45,19,20,53,25,13,1
1,63,61,-32,-30,62,20,23,71,29,17,5
-1,74,74,-37,-38,74,31,11,77,34,22,1
23,109,86,-66,-32,97,17,4,64,33,27,1
62,123,61,-93,1,92,-66,-6,53,29,31,10
37,60,23,-49,7,42,-103,-13,44,25,26,20
58,43,-15,-50,36,14,-118,-23,42,22,21,25
53,27,-26,-40,40,0,-106,-28,39,18,18,34
31,13,-18,-22,24,-2,-55,-22,33,13,11,22
46,32,-14,-39,30,9,-18,-10,33,13,10,-13
28,20,-8,-24,18,6,-6,-6,27,6,3,-28
6,4,-2,-5,4,1,5,7,42,14,7,-20
-35,-25,11,30,-23,-7,4,4,29,-1,-1,-16
-66,-31,34,48,-50,2,16,13,60,10,0,-14
-40,-28,12,34,-26,-7,25,0,48,8,6,-4
-44,-34,10,39,-27,-12,-23,27,91,49,9,-11
-17,-23,-5,20,-6,-14,24,101,190,85,30,-23
29,-83,-112,27,71,-97,-76,-276,1,69,42,-9
274,-99,-373,-87,324,-236,-496,-1163,-609,125,252,209
662,28,-634,-345,648,-303,-1198,-2056,-1565,-140,479,609
729,272,-457,-500,593,-93,-1642,-2330,-1688,52,978,1191
621,329,-292,-475,456,19,-1277,-1794,-1193,286,1209,1374
295,103,-192,-199,243,-45,-548,-804,-684,-156,394,540
-5,9,14,-2,-10,11,-30,-64,-47,-112,-39,-53
-15,10,25,3,-21,17,89,103,102,19,11,-34
-36,4,40,16,-38,22,123,181,141,11,-54,-80
-51,-9,43,30,-47,17,155,221,181,45,-40,-92
-64,-27,36,46,-50,4,154,224,174,26,-53,-106
-67,-22,44,44,-55,11,187,258,216,62,-48,-110
-105,-49,56,76,-80,4,189,257,196,43,-76,-118
-129,-45,84,87,-106,19,191,268,212,54,-77,-124
-105,-33,72,69,-88,20,189,282,209,49,-71,-115
-104,-32,72,68,-88,20,197,303,220,49,-83,-129
-83,-20,63,51,-73,22,208,314,232,51,-86,-141
-79,-20,59,49,-69,19,214,327,239,39,-99,-150
-92,-39,54,65,-73,7,221,341,257,36,-110,-155
-85,-36,50,60,-67,7,219,352,267,26,-118,-161
-93,-44,49,68,-71,2,223,362,259,20,-122,-160
-102,-59,43,80,-72,-8,232,358,252,13,-125,-160
-106,-43,62,74,-84,9,231,353,246,4,-125,-160
-108,-35,73,72,-90,18,225,349,237,-9,-135,-161
-92,-27,65,59,-78,19,221,341,232,-20,-137,-160
-85,-20,64,52,-74,22,216,338,214,-36,-129,-154
-77,-18,59,48,-68,20,212,323,192,-58,-126,-143
-66,-10,56,38,-61,22,204,291,179,-74,-120,-137
-63,-11,53,37,-58,20,178,250,151,-76,-117,-122
-43,3,46,20,-44,24,150,207,110,-75,-109,-87
-24,15,39,4,-32,27,119,163,80,-73,-80,-61
-29,3,32,13,-31,18,81,118,49,-69,-59,-48
-11,15,26,-2,-19,20,47,74,22,-71,-49,-37
15,35,20,-25,-2,27,18,39,5,-65,-37,-28
24,40,16,-32,4,27,9,20,-11,-56,-29,-17
26,40,15,-33,6,27,3,11,-11,-48,-23,-8
27,42,15,-35,5,28,-5,9,-4,-39,-15,-1
31,46,15,-39,8,30,-13,6,-1,-23,-10,10
30,45,15,-38,7,30,-19,3,4,-4,-10,21
24,41,17,-33,3,29,-15,0,8,-6,-7,15
14,35,21,-25,-4,27,-7,1,13,-20,-4,7
7,30,23,-19,-8,26,-1,15,18,-25,-8,2
-1,25,25,-13,-13,25,6,28,24,-25,-17,-8
-22,18,40,2,-31,29,13,46,29,-25,-27,-17
-31,16,47,7,-39,31,22,61,25,-25,-38,-28
-22,23,44,-1,-33,33,33,68,21,-25,-39,-37
-15,27,42,-6,-29,35,41,80,19,-30,-46,-40
-6,33,39,-14,-23,36,48,88,14,-39,-62,-51
-3,38,40,-18,-21,39,49,91,11,-42,-67,-61
11,46,35,-29,-12,40,52,95,7,-46,-73,-59
-9,27,35,-10,-22,31,64,89,5,-52,-83,-63
-52,-18,34,34,-42,8,60,84,2,-52,-92,-72
-45,-16,29,31,-37,7,52,79,-1,-48,-91,-71
-37,-6,31,22,-34,12,47,73,-4,-46,-84,-66
-26,1,27,12,-27,14,39,68,-5,-43,-81,-64
-1,24,25,-12,-14,25,33,62,0,-41,-76,-59
-7,14,21,-4,-14,17,39,60,3,-39,-72,-56
-27,-7,20,17,-23,6,47,60,8,-31,-67,-53
-26,-12,15,19,-20,1,49,60,17,-24,-61,-47
-21,-3,17,11,-19,7,53,60,24,-17,-57,-43
-24,23,47,0,-35,35,56,61,33,-18,-51,-39
-4,65,68,-31,-36,66,51,50,39,-21,-45,-34
24,88,64,-56,-20,76,43,35,31,-19,-40,-30
24,77,53,-50,-15,65,-12,19,16,-20,-35,-23
17,66,49,-42,-16,57,-87,-11,-2,-20,-36,-14
58,54,-4,-56,31,25,-112,-26,-20,-18,-33,-6
87,40,-47,-63,66,-3,-122,-19,-32,-16,-31,4
46,16,-29,-31,37,-6,-90,-12,-37,-12,-28,16
19,-2,-21,-8,20,-11,-36,-9,-35,-11,-37,6
15,4,-11,-10,13,-3,-4,1,-24,-14,-55,-26
5,-4,-9,0,7,-7,7,3,-29,-31,-63,-41
-12,-12,0,12,-5,-6,17,15,-13,-22,-56,-32
-22,-20,2,20,-12,-9,22,16,-20,-25,-54,-25
-20,-10,10,15,-15,0,27,28,-5,-20,-52,-22
-11,-5,7,8,-9,1,39,21,-1,-5,-44,-8
2,2,0,-3,1,0,-1,40,46,31,-45,-19
-8,-4,4,6,-6,1,29,130,173,82,-21,-24
5,-81,-86,38,46,-83,-37,-174,30,66,-3,-14
229,-92,-321,-68,275,-207,-408,-1018,-527,164,201,180
600,12,-588,-306,594,-288,-1076,-1966,-1481,-14,488,598
729,305,-424,-517,577,-59,-1592,-2370,-1747,100,981,1201
613,412,-202,-513,407,105,-1359,-1945,-1302,386,1294,1463
310,130,-180,-220,245,-25,-644,-958,-815,-82,496,645
30,0,-30,-15,30,-15,-73,-116,-138,-163,-122,-46
-13,-11,2,12,-7,-4,75,103,77,6,-68,-42
-46,-39,7,42,-26,-16,106,159,97,-13,-102,-94
-62,-33,29,47,-45,-2,145,212,152,33,-88,-99
-59,-36,23,47,-40,-6,145,228,141,18,-97,-108
-58,-30,27,43,-42,-1,164,252,182,47,-97,-119
-62,-29,33,45,-48,3,166,251,173,39,-96,-110
-96,-36,61,65,-78,12,174,268,200,45,-106,-122
-96,-45,51,70,-73,3,176,277,205,48,-103,-120
-88,-37,51,63,-70,7,182,299,219,48,-114,-135
-79,-32,48,55,-63,8,192,314,224,52,-113,-141
-65,-21,44,42,-54,11,208,330,231,43,-124,-153
-91,-42,48,66,-69,3,219,356,260,42,-127,-166
-119,-69,50,94,-84,-10,221,373,269,34,-138,-176
-106,-56,51,81,-78,-2,235,391,287,32,-146,-182
-106,-56,49,81,-77,-3,241,405,299,26,-152,-188
-110,-49,61,79,-85,6,242,418,296,21,-159,-189
-113,-46,67,79,-90,10,239,418,288,10,-155,-199
-99,-38,61,69,-80,11,232,403,282,-3,-151,-196
-78,-19,59,49,-69,20,226,398,273,-14,-146,-172
-106,-52,54,78,-80,1,222,369,245,-28,-142,-159
-107,-56,51,81,-79,-3,202,315,209,-33,-133,-144
-80,-33,47,57,-63,7,158,259,170,-30,-113,-115
-67,-29,39,48,-53,5,115,187,134,-30,-84,-82
-53,-20,33,36,-42,6,76,122,100,-30,-59,-54
-40,-15,25,28,-32,5,43,80,60,-30,-47,-32
-13,4,17,4,-16,11,27,51,31,-30,-34,-16
0,10,11,-5,-6,10,17,33,17,-25,-19,-10
1,7,5,-4,-2,6,4,19,11,-20,-8,-5
-9,-4,5,6,-7,0,3,11,6,-15,-4,1
-2,3,5,-1,-3,4,5,3,3,-11,-5,7
21,26,5,-24,8,15,5,-8,-3,-6,-5,9
6,11,5,-9,0,8,10,-7,-4,-5,-5,5
-2,2,3,0,-3,2,10,-1,2,-5,-6,5
-1,-2,-1,1,1,-1,11,2,8,-5,-9,5
-10,-9,1,9,-5,-4,17,7,13,-5,-12,5
-24,-25,-1,25,-11,-13,22,12,19,-5,-14,6
-40,-38,2,39,-20,-17,29,37,23,-6,-18,0
-60,-34,26,47,-43,-3,33,60,26,-9,-20,-8
-64,-36,28,50,-46,-3,37,61,29,-12,-22,-14
-52,-35,17,43,-34,-8,41,67,32,-14,-27,-22
-49,-35,14,42,-31,-10,45,70,35,-18,-32,-29
-40,-35,5,37,-22,-15,48,69,35,-21,-34,-36
-36,-35,1,35,-18,-16,52,73,39,-18,-31,-40
-40,-35,4,37,-22,-15,55,75,40,-14,-30,-39
-40,-35,5,37,-22,-15,51,76,36,-12,-30,-43
-41,-35,6,37,-23,-15,44,70,34,-9,-30,-45
-37,-34,3,35,-20,-16,37,61,31,-6,-30,-45
-41,-25,15,33,-28,-5,31,52,29,-5,-28,-41
-50,-19,32,35,-41,6,24,47,24,-11,-21,-34
-39,-9,29,24,-34,10,21,51,26,-18,-14,-28
-33,-2,31,17,-32,14,37,50,31,-17,-8,-21
-38,-9,29,24,-33,10,49,53,29,-2,-1,-14
-35,7,42,14,-39,25,58,56,41,12,4,-9
-16,53,69,-19,-43,61,60,57,47,9,17,-5
34,96,62,-65,-14,78,26,38,45,20,26,-3
29,72,43,-50,-8,57,-29,-6,39,18,24,0
28,33,4,-30,12,18,-76,-25,11,-3,26,4
81,25,-56,-53,68,-16,-92,-24,-13,-5,24,4
77,14,-63,-45,69,-24,-74,-16,-15,-9,26,11
43,-3,-46,-20,44,-24,-40,-11,-16,-16,22,8
3,-32,-35,15,19,-34,8,0,-4,-16,17,-13
-7,-44,-36,26,14,-39,27,13,-8,-26,11,-32
-4,-38,-34,21,15,-35,31,26,4,-21,6,-38
-10,-40,-31,25,11,-35,39,26,4,-17,1,-30
-3,-35,-31,19,15,-32,34,19,12,-12,-6,-32
-9,-33,-25,21,9,-29,48,25,34,-3,2,-23
-4,-39,-36,22,17,-37,24,9,20,14,-3,-24
11,-27,-38,8,25,-32,41,77,134,57,10,-15
12,-85,-97,37,55,-91,-14,-137,40,8,-2,-9
138,-143,-281,2,210,-212,-347,-923,-459,61,124,97
539,-81,-620,-229,580,-350,-1002,-1816,-1296,-24,399,456
769,176,-594,-472,681,-209,-1593,-2289,-1702,-37,771,976
680,372,-308,-526,494,32,-1478,-2067,-1351,286,1210,1403
452,204,-248,-328,350,-22,-862,-1250,-941,14,742,924
130,31,-99,-80,114,-34,-208,-322,-304,-203,-19,81
1,-32,-32,16,17,-32,79,69,64,-16,-52,-56
-28,-55,-27,42,-1,-41,103,130,77,-8,-50,-60
-50,-34,16,42,-33,-9,157,203,149,35,-66,-95
-43,-36,7,39,-25,-14,158,215,146,41,-54,-85
-61,-35,25,48,-42,-5,169,232,181,44,-73,-107
-52,-31,22,41,-37,-4,178,241,186,51,-58,-95
-57,-31,26,43,-42,-2,179,259,200,47,-81,-114
-55,-29,26,42,-40,-1,186,273,212,58,-82,-112
-53,-23,30,38,-41,3,199,285,214,52,-86,-114
-94,-63,31,78,-62,-16,207,291,223,52,-105,-140
-105,-76,29,90,-67,-23,208,308,222,41,-116,-154
-84,-53,31,69,-57,-11,218,333,234,37,-115,-155
-87,-52,34,69,-60,-9,230,358,254,29,-119,-160
-97,-49,49,72,-73,0,245,381,279,23,-131,-168
-97,-51,46,74,-72,-2,255,399,287,16,-144,-173
-107,-50,58,78,-82,4,267,419,282,0,-151,-184
-127,-50,76,88,-102,13,269,414,269,-16,-158,-188
-112,-48,64,80,-88,8,259,402,259,-28,-158,-182
-92,-42,49,67,-70,3,251,395,245,-38,-150,-176
-82,-39,43,60,-62,2,239,375,218,-56,-145,-169
-69,-33,35,51,-52,1,214,332,193,-68,-140,-166
-59,-30,29,44,-44,0,171,267,169,-64,-121,-135
-46,-23,23,34,-34,0,116,201,136,-59,-92,-92
-26,-12,14,19,-20,0,63,138,100,-54,-74,-79
-29,-3,26,15,-28,12,26,82,62,-48,-53,-62
-28,8,36,10,-32,22,9,44,36,-42,-33,-44
2,21,19,-12,-9,20,-3,29,26,-37,-26,-36
24,32,8,-28,8,20,-13,17,23,-33,-19,-29
30,31,1,-31,15,16,-22,10,21,-27,-12,-23
30,26,-4,-27,16,11,-21,9,17,-24,-6,-16
33,24,-9,-28,21,7,-16,5,15,-18,0,-10
35,19,-15,-27,25,2,-14,3,12,-15,5,-5
35,15,-20,-25,27,-2,-9,-1,10,-20,5,-5
29,18,-10,-23,19,4,-6,2,10,-20,5,-4
32,30,-1,-31,16,14,-3,9,10,-20,5,0
53,43,-10,-48,32,16,4,16,10,-20,6,0
23,26,3,-24,10,14,9,22,10,-19,2,-3
-15,2,17,6,-16,10,14,29,14,-23,-6,-11
-4,10,14,-3,-10,12,21,35,15,-25,-12,-19
-1,14,16,-7,-9,15,24,42,15,-28,-20,-27
-2,9,11,-4,-7,10,36,53,15,-31,-28,-35
-7,3,10,2,-9,6,45,60,15,-29,-34,-38
-14,-4,10,9,-12,3,46,64,15,-33,-35,-46
-15,-10,5,12,-10,-2,51,65,15,-35,-35,-51
-24,-19,5,21,-15,-6,47,65,15,-35,-35,-50
-16,-13,3,14,-10,-4,41,65,15,-35,-35,-49
-20,-20,0,20,-10,-10,34,65,15,-35,-35,-45
-30,-31,-1,31,-15,-16,28,63,15,-35,-33,-45
-11,-8,3,9,-7,-2,20,58,20,-31,-30,-43
-23,-19,5,20,-14,-7,16,55,20,-24,-27,-38
-47,-38,9,42,-28,-14,22,52,21,-18,-24,-36
-11,-1,10,6,-11,5,33,48,19,-11,-21,-31
12,29,17,-21,-3,23,44,45,25,-4,-20,-28
5,55,50,-30,-22,52,44,39,33,-1,-16,-25
4,70,66,-38,-32,68,48,30,23,-5,-11,-19
10,75,65,-43,-27,70,-5,19,12,-5,-10,-7
31,68,37,-50,-3,52,-75,-10,3,-4,-3,3
34,30,-4,-32,19,12,-83,-29,-12,-6,-4,5
82,44,-37,-63,59,3,-98,-27,-29,1,14,28
94,37,-57,-65,75,-10,-85,-39,-37,1,26,37
13,-25,-38,6,26,-31,-28,-28,-32,-6,1,8
-9,-35,-27,22,9,-31,15,-5,-21,-5,-6,-11
0,-29,-29,15,14,-29,20,-9,-22,-13,-19,-17
-13,-31,-19,22,3,-25,40,4,-4,-10,-26,-11
-28,-51,-23,39,-2,-37,37,0,-11,-20,-27,-7
-29,-39,-11,35,-9,-25,32,12,16,-5,-24,-7
-32,-38,-6,35,-13,-21,36,10,8,3,-18,4
-13,-13,0,13,-6,-6,-16,23,49,40,-21,-8
20,-16,-36,-1,28,-26,17,58,140,52,-10,-15
18,-118,-136,50,78,-127,-95,-373,-107,2,-9,1
266,-127,-393,-69,330,-260,-554,-1267,-759,49,188,205
663,-20,-683,-321,673,-351,-1275,-2058,-1588,-120,460,608
717,253,-464,-485,591,-105,-1656,-2288,-1664,24,887,1144
571,341,-230,-456,401,55,-1305,-1832,-1244,226,1100,1334
287,109,-177,-198,232,-34,-624,-895,-758,-145,378,567
3,-12,-15,5,9,-13,-62,-120,-106,-142,-114,-30
-53,-32,21,43,-37,-5,86,87,76,-8,-58,-37
-67,-21,46,43,-56,13,110,157,112,-7,-92,-86
-83,-34,49,58,-66,8,133,185,140,42,-77,-82
-98,-51,47,75,-72,-2,141,195,135,21,-88,-102
-97,-39,59,68,-78,10,162,220,173,36,-86,-104
-96,-45,51,70,-74,3,161,218,166,28,-87,-102
-91,-33,58,61,-74,13,179,241,193,36,-97,-112
-93,-41,52,67,-72,6,180,247,195,35,-94,-113
-77,-20,57,48,-67,19,203,273,207,36,-107,-124
-84,-23,60,53,-72,18,206,278,204,42,-113,-126
-135,-63,72,99,-103,4,205,293,210,38,-123,-152
-120,-36,84,77,-102,24,221,324,230,37,-118,-149
-121,-36,86,78,-103,25,229,345,254,26,-122,-154
-130,-46,84,88,-107,19,240,368,277,19,-137,-169
-126,-40,86,82,-106,23,251,390,285,11,-146,-180
-125,-41,84,82,-105,21,251,400,288,4,-152,-190
-122,-35,87,78,-104,26,241,391,279,-7,-151,-186
-132,-35,97,83,-114,31,232,389,274,-19,-145,-184
-120,-29,91,74,-105,31,223,382,248,-36,-139,-181
-112,-32,80,72,-96,24,212,360,218,-46,-134,-176
-107,-34,73,70,-90,19,182,311,197,-47,-128,-159
-88,-26,62,57,-75,18,134,236,160,-45,-104,-125
-65,-8,56,36,-60,24,86,173,121,-45,-72,-86
-40,11,51,15,-46,31,51,119,88,-43,-44,-54
-38,10,48,14,-43,29,24,71,57,-39,-29,-35
-32,10,42,11,-37,26,-3,29,29,-40,-21,-23
-31,10,41,10,-36,25,-13,5,7,-36,-9,-13
-35,10,45,12,-40,27,-17,0,-3,-30,-1,-6
-29,16,45,6,-37,30,-23,-8,-9,-25,0,1
-16,29,45,-7,-31,37,-28,-14,-16,-19,0,7
-8,37,45,-15,-27,41,-35,-22,-23,-14,4,15
-29,16,45,6,-37,30,-31,-24,-22,-10,6,19
-29,12,42,9,-36,27,-22,-19,-16,-10,4,16
-9,30,39,-11,-24,34,-14,-21,-12,-10,0,11
-4,31,36,-14,-20,33,-6,-17,-7,-10,0,9
-6,28,34,-11,-20,30,1,-15,-3,-10,0,4
-1,29,30,-14,-16,29,10,-15,2,-10,0,1
-9,20,29,-5,-20,24,19,-11,5,-15,1,-3
-2,22,24,-11,-14,23,33,3,5,-23,-7,-11
-19,0,20,9,-20,10,44,23,7,-31,-22,-18
-84,-41,42,62,-63,0,45,26,10,-35,-35,-25
-78,-31,47,54,-62,7,45,29,10,-35,-40,-33
-57,-21,36,39,-46,7,45,29,6,-35,-40,-38
-50,-18,32,34,-41,7,45,24,5,-35,-39,-36
-41,-17,24,28,-33,3,44,26,5,-35,-48,-30
-55,-29,26,41,-40,-1,39,22,0,-32,-52,-26
-64,-41,23,52,-44,-8,35,19,0,-29,-44,-22
-61,-41,20,51,-40,-10,33,20,-1,-26,-40,-16
-53,-32,20,43,-36,-6,28,16,-6,-23,-34,-18
-58,-40,18,49,-37,-11,25,14,-5,-21,-29,-21
-23,-9,14,15,-19,3,28,10,-6,-19,-24,-16
-2,13,16,-6,-9,14,31,8,-5,-13,-18,-14
-29,-14,15,21,-22,1,34,5,-5,-7,-11,-10
-21,-6,15,13,-18,4,36,5,0,-3,-4,-6
-22,27,49,-3,-36,38,41,24,9,5,3,-3
-25,70,94,-23,-59,82,36,19,17,8,9,4
-7,88,95,-41,-51,91,2,-2,24,8,14,8
14,81,67,-48,-27,74,-57,-24,0,1,15,15
35,58,23,-47,6,40,-96,-40,-29,0,17,19
70,39,-31,-55,51,3,-117,-40,-45,-5,21,26
72,32,-40,-52,55,-4,-95,-34,-46,-9,17,26
17,-2,-19,-7,18,-10,-51,-30,-42,-12,-4,19
-25,-18,7,22,-16,-5,-16,-19,-47,-39,-26,8
-42,-75,-33,59,-5,-54,92,104,75,40,13,11
-35,-189,-153,112,59,-171,242,340,265,174,55,2
-3,-275,-272,139,135,-273,327,578,450,310,123,15
51,-282,-333,116,192,-307,296,704,574,437,218,78
112,-207,-320,48,216,-263,235,744,650,505,285,137
123,-164,-287,20,206,-226,214,751,743,597,374,212
167,-170,-337,2,253,-254,211,865,882,675,454,291
296,-157,-452,-70,375,-304,174,987,1215,975,659,429
571,-228,-798,-171,685,-513,-77,388,693,1004,860,668
915,-307,-1222,-303,1069,-764,-553,-419,-235,810,1042,928
636,-117,-752,-259,694,-434,-532,-420,-64,807,809,670
94,49,-45,-71,70,2,-100,-180,48,281,129,72
-25,30,55,-3,-40,42,-3,-111,-126,-102,-65,-57
-72,36,108,18,-91,72,5,-81,-85,-89,-66,-60
-80,35,115,23,-98,74,14,-106,-108,-130,-100,-98
-75,35,110,20,-93,72,-2,-106,-98,-102,-85,-85
-89,35,124,27,-107,79,6,-109,-124,-143,-134,-118
-81,35,116,23,-99,75,-8,-113,-128,-150,-120,-118
-97,33,130,32,-114,81,-3,-128,-141,-157,-130,-122
-91,29,120,30,-106,74,-16,-157,-172,-175,-146,-119
-106,27,133,39,-120,79,-25,-179,-192,-185,-156,-120
-108,24,132,41,-120,78,-34,-211,-236,-212,-165,-127
-108,51,159,28,-134,105,-47,-246,-272,-237,-172,-137
-128,64,192,32,-160,128,-57,-287,-318,-275,-192,-140
-115,78,192,18,-154,135,-67,-326,-355,-301,-209,-141
-118,81,199,18,-159,140,-75,-365,-392,-338,-234,-158
-134,80,214,27,-174,147,-72,-393,-409,-362,-244,-167
-117,111,228,2,-172,169,-68,-409,-409,-382,-236,-169
-121,109,231,6,-176,170,-65,-409,-406,-392,-229,-161
-134,96,230,19,-182,163,-60,-401,-396,-381,-220,-150
-138,92,230,23,-185,161,-57,-389,-392,-374,-214,-141
-148,83,230,33,-189,156,-51,-360,-381,-359,-202,-128
-128,83,211,22,-170,147,-46,-330,-345,-330,-184,-117
-95,85,180,5,-138,132,-40,-290,-291,-291,-158,-104
-65,85,150,-11,-108,117,-32,-238,-231,-248,-132,-82
-54,74,128,-10,-91,100,-23,-172,-159,-201,-112,-63
-51,56,108,-3,-80,82,-12,-110,-95,-160,-82,-47
-28,43,71,-8,-50,57,-3,-70,-54,-120,-59,-38
-15,35,51,-10,-33,43,1,-19,-6,-83,-50,-40
-11,33,44,-11,-28,38,3,19,25,-63,-40,-40
-7,24,31,-9,-19,28,6,37,24,-42,-34,-40
-4,22,25,-9,-15,23,10,47,27,-31,-36,-40
-12,12,25,-1,-19,19,9,43,32,-26,-32,-40
-2,23,25,-11,-14,24,23,46,42,-21,-30,-36
18,44,25,-31,-3,34,33,55,55,-18,-30,-35
-17,8,24,4,-21,16,29,55,55,-12,-26,-35
-24,1,26,11,-25,13,30,55,55,-11,-24,-30
1,29,29,-15,-14,29,30,55,55,-16,-25,-30
-6,28,34,-11,-20,31,30,55,56,-20,-25,-31
-20,20,40,0,-30,30,30,53,49,-24,-25,-37
-26,14,40,6,-33,27,37,50,20,-30,-25,-41
-32,8,40,12,-36,23,45,47,4,-28,-18,-40
-40,0,40,20,-40,20,45,44,6,-35,-30,-39
-23,17,40,3,-32,28,45,40,3,-46,-50,-34
-13,25,38,-7,-26,31,45,41,0,-45,-50,-36
-16,16,32,0,-24,23,45,43,0,-45,-50,-32
-14,13,28,0,-21,20,45,52,3,-45,-50,-30
-18,5,24,6,-21,14,40,61,5,-45,-50,-30
-16,2,19,7,-18,10,40,60,5,-43,-50,-26
-21,-6,15,13,-17,4,39,60,8,-39,-50,-24
-22,-12,10,17,-15,-1,35,60,11,-37,-50,-26
-14,-3,11,9,-12,4,36,60,9,-34,-50,-30
-8,0,8,3,-8,4,32,57,23,-31,-50,-30
-18,-12,6,15,-12,-3,30,55,37,-28,-50,-31
-20,-17,4,18,-12,-6,29,55,34,-26,-45,-35
-19,-10,9,14,-14,-1,27,55,35,-22,-41,-35
-30,-4,27,17,-28,11,23,54,31,-20,-39,-33
-34,1,35,16,-35,17,27,57,30,-18,-34,-29
-32,8,40,12,-37,24,23,60,31,-10,-31,-27
-3,31,35,-14,-19,33,31,68,35,-5,-28,-24
0,56,56,-28,-29,56,58,81,54,2,-23,-21
-8,67,75,-29,-42,70,57,73,52,12,-18,-20
25,83,57,-54,-16,70,38,61,40,23,-14,-14
80,129,49,-104,15,88,-33,47,33,27,-9,-8
84,120,36,-102,24,78,-81,31,23,20,-4,0
39,57,18,-48,10,37,-91,16,22,11,-13,5
57,36,-20,-46,38,8,-99,14,27,7,-22,14
71,23,-48,-47,60,-12,-59,35,23,-4,-30,10
28,9,-20,-18,24,-5,-14,49,27,-7,-41,-17
-6,-9,-3,8,-1,-6,17,49,24,-6,-42,-33
-10,-18,-9,15,0,-13,27,56,24,-5,-39,-38
-20,-13,7,17,-13,-3,42,59,35,3,-29,-33
-31,-18,13,24,-22,-2,43,49,26,-3,-32,-33
-21,-7,14,14,-18,4,51,54,52,12,-20,-28
-17,-16,1,16,-9,-7,49,36,35,4,-24,-26
-7,1,8,3,-7,4,56,109,144,73,-7,-24
-3,-19,-16,11,7,-18,52,73,174,65,2,-15
75,-90,-165,8,121,-127,-159,-486,-128,110,67,35
394,-65,-459,-164,426,-262,-684,-1431,-890,138,341,323
706,127,-578,-416,642,-225,-1385,-2196,-1691,-48,652,804
701,369,-332,-534,516,18,-1587,-2230,-1535,296,1190,1369
510,292,-219,-401,364,36,-1091,-1542,-1093,256,1077,1224
193,67,-126,-129,159,-30,-375,-532,-510,-184,173,280
-12,9,21,1,-17,15,35,51,46,-58,-65,-77
-11,13,23,-2,-17,18,93,149,90,-2,-35,-49
-42,-2,40,21,-40,19,140,222,156,23,-92,-114
-52,-19,34,35,-43,7,153,238,168,37,-62,-97
-58,-23,34,40,-46,5,162,261,182,32,-84,-126
-61,-24,37,42,-48,7,178,276,202,64,-71,-119
-50,-18,32,33,-41,7,182,283,204,48,-88,-127
-70,-33,38,51,-54,3,197,303,230,60,-89,-130
-76,-43,32,59,-54,-5,201,312,223,52,-97,-131
-76,-38,38,57,-57,1,210,333,239,57,-101,-141
-85,-38,47,61,-66,4,213,341,242,53,-98,-143
-86,-34,52,60,-68,8,221,366,263,45,-101,-150
-88,-34,54,61,-71,10,234,396,287,40,-99,-148
-115,-59,56,86,-85,-1,243,404,296,31,-114,-167
-135,-73,62,104,-98,-6,248,420,303,27,-128,-177
-125,-68,56,96,-91,-6,258,443,300,19,-139,-185
-138,-74,63,105,-100,-6,263,454,287,12,-145,-187
-154,-75,79,114,-116,2,259,447,276,-2,-150,-180
-143,-75,69,109,-106,-3,257,439,265,-11,-147,-175
-129,-68,60,98,-94,-4,253,418,249,-25,-138,-169
-109,-57,52,83,-80,-2,222,373,233,-41,-133,-162
-92,-48,44,70,-67,-2,185,323,211,-40,-125,-144
-77,-41,36,59,-57,-2,153,262,177,-40,-109,-114
-60,-33,27,46,-44,-2,107,197,132,-37,-84,-77
-43,-22,21,33,-32,0,68,141,92,-34,-55,-51
-23,-13,10,18,-17,-1,42,100,63,-35,-36,-36
-6,-6,0,6,-2,-3,27,63,28,-29,-31,-27
14,1,-13,-7,13,-6,17,39,5,-24,-24,-21
26,7,-18,-16,22,-5,4,33,5,-19,-18,-14
24,14,-10,-19,17,1,3,23,5,-13,-14,-9
18,11,-7,-14,12,1,6,20,5,-7,-12,-3
5,5,0,-5,3,2,4,20,5,-3,-9,0
8,12,4,-11,2,8,6,20,6,1,-5,5
1,13,12,-7,-6,12,4,20,11,-1,-5,10
-24,5,29,9,-27,17,7,19,14,1,5,7
-29,2,30,13,-30,16,19,36,19,14,13,2
-36,-6,30,21,-32,11,26,47,26,12,4,0
-39,-8,30,23,-34,11,27,47,33,6,-2,-5
-26,3,30,12,-28,17,30,51,39,1,-10,-8
-29,0,29,14,-29,15,38,67,46,-5,-18,-11
-32,-8,24,20,-28,8,40,81,49,-10,-24,-27
-32,-14,19,23,-25,2,50,83,44,-15,-33,-37
-51,-37,15,44,-33,-11,62,93,45,-17,-42,-33
-61,-51,10,56,-35,-21,59,98,42,-22,-45,-39
-55,-50,5,52,-30,-22,63,93,39,-25,-48,-50
-57,-49,8,53,-32,-20,65,90,40,-28,-51,-50
-56,-45,11,51,-33,-17,65,86,36,-33,-54,-50
-59,-44,14,51,-36,-15,61,82,35,-35,-55,-50
-62,-48,15,55,-38,-17,54,80,35,-30,-49,-50
-52,-44,8,48,-30,-17,50,70,35,-25,-42,-49
-43,-38,5,40,-24,-16,43,54,35,-21,-36,-43
-30,-30,0,30,-15,-15,41,43,36,-16,-29,-36
-20,-25,-5,23,-7,-15,46,38,41,-11,-23,-30
-19,-13,6,16,-13,-3,50,33,45,-7,-17,-22
-26,13,39,6,-32,26,56,29,51,-4,-15,-17
-26,30,56,-2,-41,43,55,24,46,-1,-15,-12
15,64,49,-40,-17,56,28,20,35,3,-15,-9
16,58,42,-37,-13,50,-28,3,25,4,-15,0
6,0,-7,-3,6,-3,-75,-27,17,1,-14,10
31,-31,-62,1,47,-46,-93,-37,10,-10,-11,20
24,-41,-65,9,44,-52,-87,-34,8,-6,-9,34
17,-45,-62,14,40,-53,-50,-31,1,-3,-10,28
6,-48,-54,21,30,-50,3,-15,-1,-3,-12,14
-5,-56,-51,30,24,-53,26,-5,-5,-11,-22,12
-9,-53,-44,31,18,-48,24,-1,2,-16,-33,3
-8,-46,-38,27,15,-42,43,2,10,-15,-29,1
-10,-46,-36,28,14,-41,39,-5,8,-30,-31,-9
-10,-34,-25,22,8,-29,43,8,28,-11,-22,-7
-5,-41,-36,23,16,-38,24,-13,14,-8,-26,-1
-19,-31,-11,26,-4,-21,27,60,122,54,-12,9
-3,-65,-62,35,30,-63,6,-54,96,30,-14,15
79,-140,-219,31,149,-179,-261,-753,-326,43,59,80
431,-121,-552,-155,492,-336,-877,-1671,-1127,34,322,403
744,97,-647,-420,695,-275,-1534,-2259,-1700,-73,642,883
689,354,-335,-521,512,9,-1547,-2173,-1442,233,1112,1372
485,239,-246,-362,366,-4,-1016,-1465,-1046,104,885,1124
165,33,-132,-99,149,-50,-326,-487,-447,-220,68,233
-18,-28,-10,23,-4,-19,66,36,41,-60,-89,-42
-50,-64,-14,57,-18,-39,102,110,74,-21,-48,-27
-80,-62,18,70,-49,-22,153,183,144,2,-80,-90
-57,-48,9,52,-33,-19,155,193,141,15,-71,-77
-69,-37,32,53,-50,-2,177,217,168,16,-95,-104
-106,-72,35,88,-70,-18,189,228,187,32,-82,-112
-110,-76,34,92,-71,-21,184,230,184,28,-96,-131
-104,-66,38,84,-71,-14,195,244,198,38,-97,-136
-99,-68,31,83,-65,-18,191,262,191,26,-110,-144
-104,-60,44,82,-74,-7,201,286,199,29,-114,-161
-120,-59,60,89,-90,0,208,287,192,23,-117,-180
-115,-54,61,85,-87,3,224,316,210,21,-122,-198
-114,-55,59,85,-86,2,234,345,234,20,-129,-201
-116,-55,61,86,-88,2,251,370,257,14,-140,-208
-114,-55,59,84,-86,2,266,395,271,8,-146,-214
-118,-55,63,86,-90,4,267,416,266,0,-158,-220
-136,-70,65,103,-100,-2,259,429,259,-5,-154,-231
-143,-75,69,109,-106,-3,254,422,250,-16,-148,-229
-138,-67,71,102,-104,2,245,414,243,-41,-146,-218
-140,-66,74,103,-107,4,240,397,233,-58,-139,-211
-130,-54,76,91,-103,11,230,360,211,-57,-136,-198
-93,-40,53,66,-73,6,177,299,180,-55,-128,-178
-51,-27,23,39,-37,-2,128,228,141,-55,-107,-141
-39,-23,16,30,-27,-3,95,168,99,-51,-77,-103
-30,-19,12,24,-21,-3,57,125,70,-50,-52,-83
-19,-14,5,16,-12,-4,29,85,41,-50,-38,-62
-12,-12,0,12,-6,-6,10,48,8,-45,-25,-43
-2,-7,-6,5,2,-6,4,37,-2,-41,-20,-39
-6,-15,-9,10,2,-12,-3,31,-4,-39,-18,-40
22,10,-12,-16,16,-1,-9,24,-8,-34,-15,-36
27,12,-15,-19,21,-1,-16,17,-11,-30,-11,-35
-3,-18,-15,11,7,-17,-19,11,-15,-32,-10,-35
0,-15,-15,8,8,-15,-12,9,-11,-36,-13,-35
1,-14,-15,7,9,-15,-8,11,-10,-38,-16,-35
-1,-16,-15,9,7,-16,-3,8,-10,-41,-19,-35
1,-14,-15,7,9,-14,4,16,-10,-44,-22,-35
-1,-16,-15,9,8,-15,8,35,-11,-45,-25,-35
-2,-10,-8,6,3,-9,16,38,-9,-40,-26,-38
-8,-9,-1,9,-4,-5,29,42,-5,-36,-31,-40
-25,-13,12,18,-19,0,39,53,-1,-34,-34,-41
-31,-4,27,17,-29,11,49,62,2,-29,-40,-43
-58,-35,23,46,-40,-6,58,73,6,-26,-49,-57
-52,-35,17,44,-35,-9,59,79,10,-27,-51,-67
-32,-18,14,25,-23,-2,56,76,6,-33,-49,-65
-52,-44,8,48,-30,-18,51,72,5,-45,-45,-63
-42,-38,4,40,-23,-17,49,69,5,-45,-46,-60
-36,-35,1,35,-18,-17,45,65,0,-41,-43,-61
-30,-33,-3,32,-14,-17,41,61,0,-39,-39,-56
-24,-30,-5,27,-9,-17,39,58,-1,-36,-41,-55
-17,-27,-10,22,-3,-19,34,55,-4,-33,-39,-55
-12,-20,-8,16,-2,-14,37,52,-9,-30,-41,-51
-4,-8,-4,7,0,-6,34,49,-11,-25,-39,-50
-16,-17,-1,17,-7,-9,36,45,-16,-23,-40,-49
-33,-29,4,31,-18,-13,35,46,-10,-18,-41,-40
-18,-14,4,16,-11,-5,33,49,-2,-15,-37,-29
-9,17,26,-4,-17,21,44,55,7,-10,-26,-22
24,76,51,-50,-14,63,36,56,46,18,9,-1
24,127,103,-76,-40,115,30,90,93,60,39,26
100,252,152,-176,-26,201,-48,196,224,192,146,115
215,380,165,-298,25,272,-101,356,368,339,288,236
296,478,182,-387,57,330,-190,373,486,485,440,381
423,654,232,-539,95,443,-337,91,559,609,606,544
418,771,353,-595,33,562,-436,-280,579,674,703,646
315,818,503,-567,-94,660,-515,-602,648,718,761,691
177,856,679,-517,-252,767,-637,-1018,524,697,764,689
216,848,632,-532,-208,740,-1048,-1458,187,761,899,814
352,694,342,-523,5,518,-1235,-1491,-225,783,1036,961
292,495,203,-394,44,349,-1057,-1234,-391,708,959,912
219,483,264,-351,-22,373,-922,-1157,-450,571,810,768
148,418,270,-283,-61,343,-743,-1091,-796,302,604,597
110,207,97,-158,6,151,-494,-805,-789,4,394,442
39,-3,-42,-18,40,-22,-139,-335,-392,-169,137,201
-58,-146,-89,102,16,-117,150,78,-104,-169,-117,-87
-94,-199,-105,147,6,-152,221,177,-10,-169,-198,-187
-108,-211,-102,160,-3,-156,227,193,-12,-172,-210,-199
-97,-213,-116,155,10,-164,248,241,0,-168,-227,-223
-131,-240,-109,186,-11,-174,264,251,-8,-172,-236,-236
-135,-249,-114,192,-10,-181,284,279,-4,-173,-255,-255
-125,-266,-141,196,9,-204,297,287,-8,-189,-276,-272
-127,-286,-159,207,16,-222,314,298,-22,-207,-303,-295
-138,-313,-175,226,18,-244,334,318,-31,-229,-325,-315
-153,-351,-197,252,22,-274,351,334,-48,-253,-359,-342
-141,-364,-224,253,42,-294,367,351,-76,-289,-393,-368
-152,-397,-245,275,47,-321,379,355,-107,-312,-414,-382
-159,-433,-274,297,58,-353,392,355,-126,-339,-446,-404
-144,-439,-295,291,76,-367,391,355,-125,-372,-467,-422
-150,-451,-300,301,75,-375,380,355,-118,-388,-479,-416
-161,-462,-300,312,70,-381,371,356,-113,-396,-483,-402
-121,-422,-300,271,90,-360,359,349,-107,-387,-461,-389
-86,-383,-297,235,105,-340,327,326,-101,-378,-434,-361
-67,-344,-278,206,106,-311,289,302,-82,-354,-396,-318
-43,-289,-246,166,102,-267,252,264,-62,-320,-344,-271
-43,-245,-202,145,80,-224,210,211,-46,-287,-299,-226
-36,-188,-152,112,59,-170,170,170,-28,-240,-242,-174
-24,-129,-105,77,41,-117,130,126,-19,-191,-173,-124
-18,-84,-66,51,24,-75,89,80,-21,-150,-124,-86
-7,-49,-42,28,18,-45,62,46,-19,-110,-85,-50
-14,-27,-13,21,-1,-20,48,26,-15,-79,-46,-30
-36,-19,17,27,-27,0,35,21,-15,-60,-32,-18
-43,-16,27,29,-34,5,29,16,-13,-50,-28,-9
-47,-12,35,29,-41,11,30,13,-8,-40,-22,-10
-53,-9,44,31,-48,17,27,7,-5,-30,-16,-10
-44,-4,40,24,-42,18,24,6,-2,-24,-11,-10
-37,-3,35,20,-36,16,25,14,3,-25,-14,-10
-28,3,31,12,-29,17,28,22,5,-22,-15,-10
-27,0,26,13,-27,13,31,28,0,-19,-17,-15
-31,-10,21,20,-26,5,34,31,0,-20,-20,-18
-37,-15,22,26,-29,3,37,33,-1,-20,-21,-23
-43,-17,26,29,-34,5,40,37,-5,-20,-25,-25
-12,12,24,0,-18,17,40,46,-5,-20,-25,-25
-15,6,21,5,-19,13,40,46,-3,-20,-25,-28
-32,-14,18,23,-25,2,40,44,4,-20,-25,-30
-24,-8,15,15,-20,3,40,45,11,-19,-25,-29
-23,-10,13,16,-18,1,37,44,17,-14,-22,-26
-15,-6,9,10,-12,1,32,45,25,-11,-17,-21
-16,-4,13,10,-14,4,29,41,29,-8,-14,-19
-28,-9,18,18,-23,4,26,37,26,-2,-10,-14
-45,-21,25,33,-35,2,22,34,23,-2,-7,-11
-46,-17,29,31,-37,6,18,30,21,13,-3,-7
-37,-11,26,23,-31,7,15,27,17,27,0,-5
-30,-8,22,19,-26,7,12,23,15,24,3,-2
-22,-2,20,12,-21,9,10,20,17,25,5,1
-19,1,20,9,-19,10,6,17,25,25,8,5
-3,17,20,-7,-12,18,5,15,29,25,11,5
4,23,20,-13,-8,21,1,11,26,24,6,1
-4,16,21,-6,-13,18,0,10,23,20,5,-2
-9,15,24,-3,-17,19,0,13,21,20,5,-5
-17,11,27,3,-22,19,-5,18,17,20,5,-8
-23,6,29,9,-27,17,-5,21,15,20,5,-10
-27,6,33,10,-30,19,-4,24,17,20,6,-8
-25,9,35,7,-30,22,1,29,21,23,10,-3
-13,25,38,-6,-25,31,4,30,33,27,10,0
-23,18,41,2,-32,29,8,30,36,29,12,3
-42,3,45,19,-43,23,12,30,35,35,16,8
-31,16,48,7,-40,32,16,31,35,32,14,10
-17,34,51,-8,-34,42,20,30,39,37,20,10
5,75,70,-40,-32,72,22,31,45,49,28,9
27,105,77,-66,-25,91,7,19,38,41,38,16
21,96,76,-59,-28,86,-51,-9,30,33,44,38
38,78,40,-58,-2,59,-94,-24,25,28,40,41
82,59,-23,-70,52,18,-116,-40,19,16,40,35
92,47,-45,-69,68,1,-124,-39,19,23,40,32
75,32,-43,-53,59,-5,-85,-24,14,41,41,26
47,16,-31,-31,39,-7,-44,-13,12,38,35,22
15,1,-15,-8,15,-7,-11,1,10,33,26,17
1,-6,-8,3,5,-7,-13,2,12,26,16,8
-4,-7,-3,6,-1,-4,-7,14,28,27,9,4
-8,-14,-6,11,-1,-9,-9,10,23,15,-1,-5
-16,-13,3,15,-9,-4,-3,28,49,30,0,-9
-14,-13,0,14,-7,-6,-3,17,36,31,15,-4
-6,-4,2,5,-3,-1,-34,51,103,67,35,1
-3,-40,-37,22,17,-38,-18,36,145,55,20,6
51,-93,-145,21,98,-119,-158,-501,-150,44,52,41
351,-82,-433,-135,393,-257,-674,-1418,-886,27,262,283
708,58,-650,-383,679,-296,-1418,-2162,-1687,-196,510,699
741,323,-418,-532,579,-47,-1643,-2230,-1580,98,1014,1257
572,303,-269,-437,420,17,-1168,-1616,-1105,191,1065,1274
238,85,-153,-161,195,-34,-469,-656,-569,-194,244,409
-8,33,41,-13,-24,37,-7,-3,6,-83,-86,-43
-37,16,53,10,-45,34,62,114,93,0,-28,-30
-66,2,69,32,-68,35,115,182,143,21,-65,-84
-62,-3,59,33,-60,27,137,214,173,54,-39,-65
-67,-12,55,39,-61,21,145,225,179,35,-57,-82
-71,-16,55,43,-63,20,162,247,209,54,-47,-87
-72,-26,46,49,-59,10,149,254,206,39,-59,-99
-89,-28,61,58,-75,16,170,265,228,49,-64,-105
-88,-25,62,56,-75,18,176,273,225,43,-66,-91
-78,-12,67,45,-72,27,180,297,240,50,-74,-107
-113,-26,88,69,-100,31,195,304,246,47,-72,-124
-140,-43,97,91,-119,26,207,314,258,42,-87,-125
-126,-38,88,82,-107,25,205,332,275,42,-97,-130
-129,-42,88,85,-108,22,211,356,293,36,-104,-149
-121,-38,82,79,-102,22,222,370,304,36,-110,-157
-116,-38,78,77,-97,20,237,391,295,32,-117,-164
-131,-32,99,81,-114,33,247,396,293,23,-127,-176
-149,-38,110,93,-129,36,244,394,283,12,-125,-174
-126,-27,100,76,-113,36,249,410,285,3,-113,-166
-69,26,95,21,-82,60,250,395,284,-12,-130,-160
-93,-6,87,49,-90,40,218,355,248,-28,-144,-149
-111,-29,82,70,-96,26,172,309,221,-42,-122,-127
-64,9,73,27,-68,41,131,241,200,-55,-97,-102
-45,11,55,17,-50,33,97,184,170,-53,-63,-74
-32,10,41,11,-36,25,64,133,137,-49,-40,-36
-34,5,40,15,-38,22,33,78,90,-46,-39,-19
-37,6,43,16,-40,24,8,42,51,-41,-34,-17
-22,15,38,3,-30,26,-3,12,38,-38,-32,-13
-8,22,31,-7,-20,26,-7,-1,36,-26,-28,-10
9,33,24,-22,-8,28,-13,-3,32,-11,-5,-6
13,31,18,-22,-3,24,-19,-7,28,-1,8,-2
20,31,10,-26,5,20,-24,-10,25,1,2,0
14,29,15,-22,0,21,-21,-15,37,5,0,0
7,27,19,-17,-6,22,-11,-12,41,4,-5,0
-9,23,32,-8,-21,28,-5,-3,35,-1,-9,0
-29,26,55,1,-43,41,4,5,35,0,-11,0
-31,24,55,3,-44,39,11,14,30,0,-16,-6
-38,18,56,10,-47,37,19,31,29,0,-21,-12
-20,41,61,-11,-41,51,42,52,42,0,-26,-19
-35,24,59,5,-47,41,52,56,46,-5,-29,-26
-62,1,63,30,-62,31,52,60,41,-13,-36,-33
-43,22,65,10,-55,44,56,75,39,-19,-34,-37
-41,26,68,7,-55,47,48,88,36,-27,-36,-45
-54,18,72,18,-63,45,59,97,34,-35,-53,-58
-40,7,47,16,-43,26,73,96,31,-40,-54,-60
-35,-11,23,22,-29,6,65,95,28,-40,-50,-60
-33,-5,28,19,-31,11,62,94,26,-40,-43,-59
-42,-16,26,29,-34,5,57,90,22,-40,-62,-65
-63,-40,23,51,-43,-8,53,90,20,-40,-81,-74
-43,-23,20,33,-31,-1,49,88,18,-40,-69,-65
-29,-11,18,19,-23,3,42,79,15,-36,-63,-59
-23,-11,13,17,-18,0,38,72,12,-35,-54,-53
-35,-9,26,22,-31,8,31,67,9,-35,-52,-49
-53,-11,42,32,-48,16,28,53,6,-31,-56,-51
-48,-9,38,29,-43,14,19,58,5,-29,-54,-49
-45,-10,35,27,-40,12,25,46,11,-30,-56,-51
-41,-8,33,24,-37,12,26,66,18,-20,-54,-49
-29,-1,29,15,-29,14,31,50,24,-14,-56,-46
-33,0,33,16,-33,16,39,67,32,-5,-49,-43
-10,48,58,-19,-34,53,50,47,33,4,-43,-39
2,74,72,-38,-35,72,59,42,22,-1,-39,-36
3,96,94,-50,-46,95,-1,59,13,3,-32,-32
42,118,76,-80,-17,96,-25,-36,2,-6,-40,-30
50,57,8,-54,21,32,-131,244,-11,2,-29,-30
101,76,-24,-88,63,26,-60,164,-38,-14,-42,-27
20,1,-19,-10,20,-9,179,-68,-105,3,-26,-24
-46,-57,-11,52,-18,-34,177,14,-173,-30,-51,-26
45,24,-21,-34,33,2,159,-145,-235,-3,46,-37
