I,II,III,aVR,aVL,aVF,V1,V2,V3,V4,V5,V6
-44,-6,39,25,-41,16,11,-14,-128,-199,-284,-105
-50,4,55,23,-53,29,21,-4,-118,-184,-272,-96
-9,44,52,-18,-31,48,43,19,-113,-168,-268,-83
-27,32,59,-2,-44,45,51,34,-115,-169,-272,-84
-19,35,53,-8,-36,44,30,25,-119,-164,-276,-85
42,50,8,-47,17,29,-11,-3,-119,-164,-279,-89
12,-32,-44,10,28,-38,-53,-26,-124,-194,-278,-102
5,-51,-56,24,31,-53,-71,-39,-134,-203,-273,-106
32,-37,-69,3,51,-53,-72,-62,-143,-196,-268,-103
9,-43,-52,17,31,-48,-57,-52,-135,-223,-298,-108
-39,-65,-26,52,-7,-45,-55,-70,-150,-238,-312,-120
-55,-90,-36,73,-9,-63,-34,-79,-164,-234,-329,-154
-55,-64,-9,59,-22,-36,-40,-90,-165,-229,-321,-148
-78,-69,9,73,-43,-30,-23,-83,-160,-222,-328,-161
-79,-61,18,69,-48,-21,-33,-76,-153,-219,-323,-161
-62,-43,20,52,-41,-11,27,-8,-117,-206,-327,-163
-42,25,67,8,-55,46,199,288,131,-57,-258,-122
184,199,15,-192,84,107,-1,491,587,470,333,264
715,482,-233,-598,474,124,-489,462,1006,1008,1203,844
1249,778,-470,-1012,859,154,-1186,-315,888,1205,1987,1475
1068,501,-567,-784,818,-33,-1347,-1010,187,657,1481,1195
345,50,-295,-197,320,-122,-643,-683,-432,-339,-32,156
29,-4,-33,-12,31,-19,-201,-336,-435,-464,-441,-161
-33,-43,-10,38,-11,-26,-53,-132,-200,-270,-359,-160
-99,-82,17,90,-58,-32,12,-68,-184,-294,-407,-194
-109,-89,20,99,-64,-35,28,-71,-168,-243,-366,-176
-147,-88,60,117,-103,-14,76,-14,-141,-259,-392,-193
-133,-79,54,105,-93,-12,66,-17,-129,-238,-370,-178
-110,-79,31,94,-70,-24,77,4,-113,-233,-375,-184
-113,-70,42,91,-77,-14,75,9,-106,-224,-364,-178
-109,-70,39,90,-74,-16,80,35,-89,-210,-359,-180
-91,-60,31,75,-61,-14,79,44,-82,-205,-356,-174
-114,-55,60,84,-87,3,74,59,-68,-192,-348,-170
-119,-47,72,83,-95,12,70,81,-63,-189,-351,-169
-82,-41,41,61,-61,0,80,93,-52,-178,-349,-162
-98,-36,61,67,-79,12,100,131,-40,-173,-350,-161
-103,-31,72,67,-87,20,99,157,-16,-162,-350,-156
-90,-28,63,59,-76,17,110,174,16,-153,-345,-151
-83,-22,61,53,-72,19,125,215,37,-134,-321,-147
-95,-19,76,57,-86,28,154,276,79,-110,-311,-143
-79,-7,71,43,-75,31,183,343,126,-80,-310,-138
-78,3,82,37,-80,42,200,400,169,-60,-311,-134
-83,25,108,29,-96,66,231,460,221,-43,-303,-125
-35,68,103,-17,-69,86,243,519,272,-5,-270,-115
-31,68,99,-18,-65,83,238,560,313,16,-253,-105
-55,49,103,3,-79,75,228,571,337,29,-248,-95
-49,83,132,-18,-91,108,221,553,330,23,-240,-90
-13,109,122,-48,-68,116,212,504,299,20,-234,-84
-6,93,99,-44,-53,96,164,400,247,6,-232,-80
-12,82,94,-35,-54,88,105,282,184,-27,-235,-72
-7,81,89,-37,-48,85,54,172,113,-51,-235,-73
-32,53,85,-11,-58,68,19,87,30,-88,-235,-88
-65,23,88,20,-76,55,10,36,-16,-114,-243,-94
-40,28,68,6,-55,48,1,-17,-68,-149,-265,-114
-5,8,13,-1,-10,10,-8,-43,-101,-170,-277,-136
-18,2,20,7,-19,11,-7,-38,-94,-162,-273,-134
-58,0,57,29,-58,28,-3,-44,-102,-166,-278,-135
-85,-33,52,58,-68,9,1,-51,-111,-180,-288,-135
-76,-31,46,53,-61,7,4,-49,-114,-183,-292,-135
-54,-22,33,38,-43,5,9,-46,-107,-175,-295,-135
-21,9,30,5,-26,20,9,-43,-104,-171,-298,-125
-70,-8,62,39,-66,27,5,-40,-99,-165,-303,-138
-90,-29,61,59,-75,16,5,-40,-94,-159,-304,-151
-66,-15,51,40,-59,18,4,-40,-91,-156,-298,-142
-74,-28,47,51,-60,9,12,-41,-84,-153,-294,-136
-50,-10,40,29,-45,15,18,-40,-81,-150,-288,-129
-68,-17,50,42,-58,16,11,-41,-77,-147,-281,-123
-72,-23,49,48,-60,13,7,-39,-71,-144,-282,-117
-69,-15,53,42,-61,19,2,-45,-73,-147,-285,-114
-66,-12,54,39,-60,20,-3,-61,-75,-154,-285,-115
-69,-9,60,39,-64,25,-7,-65,-76,-162,-285,-115
-67,4,71,31,-68,37,-10,-82,-88,-173,-285,-115
-47,15,63,16,-55,38,-10,-95,-99,-175,-284,-115
-73,-14,59,43,-66,22,-9,-101,-100,-175,-280,-115
-66,-17,50,41,-57,16,-16,-113,-97,-175,-280,-115
-69,-8,61,39,-65,26,-13,-108,-94,-175,-279,-115
-99,-23,77,60,-88,27,-6,-102,-91,-175,-275,-115
-101,-25,76,63,-88,26,2,-98,-90,-168,-276,-116
-62,20,82,21,-72,51,7,-90,-83,-159,-273,-112
-20,62,82,-22,-51,72,22,-88,-71,-150,-257,-93
-17,77,94,-30,-56,85,51,-76,-67,-144,-250,-85
-12,90,102,-40,-57,96,48,-60,-70,-146,-249,-85
0,88,88,-44,-44,88,49,-60,-73,-144,-244,-84
17,76,60,-47,-22,68,18,-59,-76,-146,-244,-86
19,43,24,-31,-3,33,-36,-72,-79,-144,-237,-82
26,9,-17,-17,21,-4,-51,-85,-81,-146,-245,-89
27,5,-22,-16,25,-8,-72,-103,-95,-165,-245,-80
24,-22,-45,-1,35,-33,-69,-105,-103,-178,-249,-94
-4,-33,-29,18,13,-31,-67,-97,-104,-173,-241,-96
-64,-38,26,51,-45,-6,-59,-101,-112,-175,-254,-110
-50,-65,-15,58,-18,-40,-45,-85,-128,-201,-300,-144
-29,-55,-25,43,-2,-40,-42,-99,-134,-205,-289,-135
-56,-38,18,47,-37,-10,-24,-72,-89,-196,-271,-134
-84,-39,45,61,-64,3,-26,-68,-79,-165,-244,-107
-107,-48,59,78,-82,5,136,141,18,-121,-301,-167
44,125,81,-85,-18,103,155,431,397,223,24,57
474,387,-87,-430,281,150,-209,507,866,810,809,582
1034,666,-368,-850,701,149,-864,101,989,1129,1686,1222
1258,694,-563,-976,910,66,-1437,-843,508,933,1909,1485
716,228,-488,-472,602,-130,-1038,-954,-236,26,582,591
114,-15,-128,-49,121,-71,-356,-450,-489,-505,-414,-123
-17,-12,5,15,-11,-4,-121,-189,-244,-280,-361,-148
-76,-47,29,61,-52,-9,-15,-17,-126,-211,-380,-188
-85,-21,64,53,-75,21,1,-3,-117,-200,-344,-173
-115,-59,55,87,-85,-2,19,35,-96,-192,-327,-180
-162,-70,92,116,-127,11,36,36,-96,-194,-317,-171
-123,-53,70,88,-96,8,38,19,-84,-178,-299,-165
-118,-77,41,97,-79,-18,42,50,-82,-184,-287,-165
-130,-71,59,100,-94,-6,39,59,-70,-169,-263,-155
-149,-60,89,104,-119,15,40,57,-63,-168,-268,-156
-138,-50,89,94,-113,19,46,47,-54,-158,-254,-148
-111,-45,66,78,-88,10,48,47,-40,-153,-255,-151
-96,-31,66,63,-81,17,62,77,-27,-147,-243,-149
-118,-40,78,79,-98,19,88,107,-13,-138,-222,-150
-137,-48,88,92,-112,20,85,106,9,-126,-207,-150
-107,-17,90,62,-98,36,83,121,32,-107,-198,-146
-94,-12,83,53,-88,35,98,150,59,-96,-191,-143
-70,10,81,30,-75,45,104,182,80,-93,-181,-139
-83,-9,74,46,-79,32,126,246,118,-62,-164,-136
-79,-8,71,43,-75,32,164,314,173,-21,-136,-131
-29,43,72,-7,-50,57,175,363,206,5,-114,-129
-58,33,91,13,-75,62,201,441,261,48,-101,-112
-46,36,83,5,-65,59,220,495,307,66,-96,-96
-13,69,82,-28,-48,75,223,530,347,88,-84,-93
-18,110,129,-46,-74,119,223,550,367,114,-76,-86
12,120,108,-66,-48,114,185,491,332,102,-101,-76
4,106,102,-55,-49,103,146,416,296,89,-103,-68
9,106,97,-58,-44,102,98,306,253,57,-85,-68
16,80,65,-48,-25,72,47,183,185,19,-80,-72
-13,41,55,-14,-34,48,26,107,112,-18,-80,-78
-15,25,39,-5,-27,32,17,32,55,-44,-72,-78
-5,20,25,-8,-15,22,2,-37,6,-81,-85,-97
6,13,6,-10,0,9,-5,-62,-16,-122,-94,-97
-20,5,25,7,-23,15,9,-54,-28,-119,-91,-96
-40,1,41,19,-40,20,11,-51,-61,-120,-129,-140
-28,-6,22,17,-25,8,5,-47,-70,-118,-139,-147
-24,-9,16,16,-20,3,4,-41,-68,-133,-137,-143
-40,-20,20,30,-29,0,-1,-37,-65,-146,-144,-148
-38,-13,25,25,-31,5,4,-28,-60,-136,-143,-149
-29,-8,21,19,-25,6,11,-17,-58,-132,-149,-151
-34,-24,11,29,-22,-6,14,-9,-54,-126,-149,-152
-62,-16,46,39,-54,15,26,4,-48,-121,-154,-156
-73,-28,44,50,-58,8,27,3,-59,-120,-155,-154
-37,-34,3,36,-20,-15,16,-12,-76,-119,-152,-152
-51,-22,29,36,-40,3,8,-6,-75,-116,-147,-148
-21,15,36,3,-28,24,1,1,-75,-115,-145,-145
-59,-22,36,40,-47,7,-6,7,-74,-116,-140,-142
-107,-68,39,87,-73,-14,-12,15,-76,-121,-137,-138
-32,11,43,10,-38,27,-20,19,-74,-121,-134,-135
-67,-2,65,34,-66,31,-23,25,-88,-128,-145,-132
-89,-39,50,64,-69,5,-19,28,-87,-116,-166,-130
-43,-24,19,33,-30,-2,-15,29,-82,-114,-164,-127
-9,-30,-20,20,6,-25,-9,23,-117,-156,-167,-124
27,-3,-30,-12,28,-16,-31,21,-121,-154,-163,-129
-34,-45,-11,39,-11,-28,-35,18,-122,-160,-173,-144
-41,-50,-9,46,-16,-29,-20,13,-114,-165,-174,-138
20,42,22,-31,-1,32,0,53,-86,-121,-125,-107
0,66,66,-33,-33,65,37,70,-76,-108,-124,-104
-20,51,71,-15,-46,60,41,73,-61,-103,-146,-123
-8,58,66,-25,-37,62,34,98,-66,-93,-137,-120
51,102,51,-78,0,77,21,88,-61,-70,-114,-120
41,51,10,-46,15,30,-46,67,-80,-91,-122,-120
40,-5,-45,-17,43,-25,-96,48,-118,-153,-157,-120
100,38,-62,-69,81,-12,-92,35,-123,-151,-153,-120
59,-4,-62,-27,61,-33,-88,26,-128,-143,-146,-119
13,-62,-75,25,44,-68,-82,21,-111,-171,-150,-118
-11,-56,-45,34,17,-50,-79,0,-115,-169,-142,-104
-17,-48,-30,32,7,-39,-65,-13,-149,-162,-188,-139
-15,-44,-29,30,7,-36,-58,-54,-154,-152,-185,-130
-25,-52,-27,39,1,-39,-31,-26,-119,-145,-179,-146
-35,-31,4,33,-19,-13,-32,-3,-111,-132,-154,-140
-83,-39,44,61,-63,2,55,86,-38,-93,-173,-142
-16,62,77,-23,-47,69,155,326,200,66,-91,-81
299,291,-7,-295,153,142,-69,445,632,645,630,404
810,580,-231,-695,520,174,-553,234,872,1114,1598,1066
1172,802,-370,-987,771,215,-1203,-677,414,1105,2310,1650
878,440,-438,-659,657,1,-1180,-1103,-227,460,1512,1146
270,46,-224,-158,247,-89,-516,-621,-529,-410,-80,47
10,9,-1,-9,5,4,-185,-282,-357,-364,-326,-167
-38,-38,1,38,-19,-18,-45,-59,-114,-155,-234,-137
-57,-27,30,42,-44,2,-1,-12,-119,-194,-278,-165
-44,-39,4,41,-24,-17,0,-27,-106,-161,-228,-172
-86,-81,5,83,-45,-38,24,-14,-112,-185,-254,-189
-76,-64,13,70,-44,-25,39,-22,-100,-161,-225,-172
-52,-39,13,45,-32,-13,60,0,-71,-162,-257,-186
-59,-47,13,53,-36,-17,52,2,-73,-148,-265,-176
-65,-55,10,60,-37,-22,56,17,-79,-154,-261,-180
-61,-57,4,59,-32,-26,54,19,-70,-149,-253,-174
-27,-47,-21,37,-3,-34,56,29,-53,-122,-244,-172
-48,-57,-9,52,-19,-32,48,22,-50,-118,-241,-170
-73,-80,-7,77,-33,-43,60,33,-45,-111,-231,-165
-96,-74,22,85,-58,-26,82,67,-35,-114,-227,-165
-101,-67,34,83,-67,-16,81,85,-5,-103,-220,-159
-82,-63,19,72,-50,-22,76,107,23,-88,-215,-154
-65,-56,9,60,-36,-23,98,151,66,-51,-208,-149
-63,-49,14,55,-38,-17,116,207,112,-44,-201,-143
-77,-33,43,55,-60,5,124,264,155,-37,-195,-138
-20,18,38,1,-29,28,149,332,212,12,-184,-132
-29,9,38,10,-34,23,165,388,262,41,-176,-126
-30,3,33,13,-31,18,191,454,325,85,-156,-121
19,53,35,-36,-8,44,189,498,371,123,-123,-115
23,68,45,-45,-12,56,177,501,382,127,-107,-108
26,72,46,-50,-10,59,164,469,371,114,-95,-99
21,74,53,-48,-16,63,126,403,337,101,-93,-93
57,89,33,-73,12,61,84,315,280,116,-96,-89
37,56,20,-47,8,38,41,190,197,81,-94,-91
18,26,9,-22,4,17,13,109,114,28,-95,-89
24,22,-2,-23,13,10,-5,53,44,-7,-95,-91
20,1,-19,-10,19,-9,-17,-4,-16,-39,-94,-89
37,-8,-44,-14,41,-26,-27,-31,-52,-61,-113,-86
20,-26,-45,4,33,-35,-33,-50,-66,-94,-138,-104
12,-33,-45,11,29,-39,-36,-60,-73,-97,-139,-106
-10,-54,-44,33,17,-49,-40,-64,-91,-114,-163,-126
-15,-70,-54,43,20,-62,-34,-59,-106,-134,-174,-144
-4,-56,-52,30,24,-54,-28,-53,-105,-128,-157,-138
-16,-52,-37,34,11,-44,-23,-50,-105,-131,-162,-141
-17,-57,-40,37,12,-48,-18,-45,-105,-129,-165,-139
-19,-59,-40,39,10,-50,-12,-41,-105,-131,-165,-140
-4,-44,-40,24,18,-42,-9,-35,-103,-126,-165,-136
23,-17,-40,-3,32,-28,-3,-25,-99,-120,-165,-129
4,-36,-40,16,22,-38,0,-15,-100,-115,-165,-122
-32,-70,-38,52,3,-54,-5,-5,-97,-109,-165,-117
-17,-51,-34,34,9,-42,-10,1,-94,-103,-163,-107
-10,-45,-35,28,13,-39,-14,3,-96,-101,-156,-111
-29,-60,-32,45,2,-46,-19,7,-99,-115,-149,-130
-42,-71,-28,56,-7,-49,-24,10,-102,-120,-143,-132
-25,-57,-32,41,4,-44,-23,7,-104,-122,-135,-134
-20,-35,-15,28,-2,-25,-19,4,-108,-126,-131,-138
-56,-71,-15,63,-20,-42,-20,1,-110,-128,-135,-140
-40,-89,-49,64,5,-68,-20,-2,-108,-131,-143,-138
-26,-76,-50,51,12,-63,-20,-5,-103,-126,-143,-134
-29,-78,-50,53,11,-63,-20,-4,-101,-122,-140,-136
-19,-70,-50,44,16,-60,-13,4,-96,-117,-142,-135
-36,-69,-33,53,-1,-51,-7,12,-92,-113,-128,-118
-40,-51,-11,46,-15,-31,-1,20,-90,-108,-108,-106
-52,-34,18,43,-35,-8,7,29,-78,-94,-104,-103
-16,-3,13,9,-15,5,6,30,-62,-74,-99,-85
23,21,-1,-22,12,10,-4,28,-53,-67,-98,-75
-12,-42,-30,28,9,-36,-55,12,-85,-93,-91,-85
26,-67,-93,20,60,-80,-82,-4,-97,-105,-90,-98
49,-57,-106,4,77,-81,-81,-21,-95,-116,-96,-93
25,-84,-108,30,66,-96,-92,-38,-119,-131,-92,-95
49,-75,-124,13,87,-99,-74,-25,-119,-127,-101,-98
7,-82,-89,38,48,-85,-67,-29,-127,-119,-98,-89
-50,-132,-82,91,16,-107,-56,-8,-121,-146,-129,-124
-26,-138,-111,82,43,-124,-52,-18,-120,-151,-125,-123
-23,-116,-94,70,35,-105,-41,6,-104,-149,-131,-130
-15,-73,-58,45,21,-65,-44,10,-95,-145,-115,-95
-8,-72,-64,40,29,-68,38,97,-28,-90,-137,-128
-11,-13,-2,12,-5,-7,144,368,231,86,-44,-84
256,202,-54,-229,155,74,-61,515,697,709,689,400
784,531,-253,-657,518,139,-519,406,1046,1263,1684,1065
1161,770,-392,-965,776,189,-1147,-423,739,1411,2513,1714
905,396,-508,-650,706,-56,-1192,-952,24,772,1794,1252
264,-45,-309,-109,286,-177,-541,-559,-458,-312,89,115
30,-70,-100,20,65,-85,-178,-230,-344,-344,-238,-138
-4,-100,-96,53,46,-97,-60,-41,-125,-158,-133,-137
-81,-141,-60,111,-10,-100,-4,3,-128,-212,-206,-175
-75,-145,-70,111,-2,-108,8,11,-104,-149,-166,-160
-81,-142,-61,112,-10,-102,34,39,-108,-177,-193,-179
-80,-138,-58,109,-11,-98,27,37,-97,-147,-165,-163
-80,-137,-56,109,-11,-96,50,51,-89,-153,-176,-175
-84,-134,-50,109,-17,-92,56,41,-84,-142,-163,-167
-81,-131,-50,106,-16,-90,54,47,-72,-134,-161,-168
-84,-131,-46,108,-19,-88,56,54,-68,-133,-158,-162
-85,-126,-41,105,-22,-83,55,70,-57,-121,-148,-158
-68,-113,-45,90,-11,-78,71,73,-46,-121,-152,-158
-68,-97,-29,83,-20,-63,82,78,-22,-111,-137,-148
-58,-80,-22,69,-17,-51,94,96,-28,-108,-149,-156
-68,-112,-44,90,-11,-78,108,112,-6,-97,-173,-165
-99,-130,-31,115,-33,-81,103,129,35,-88,-166,-160
-91,-121,-30,106,-30,-75,112,151,55,-69,-154,-156
-97,-118,-20,108,-38,-69,147,203,103,-37,-144,-152
-74,-86,-12,80,-31,-48,168,258,150,-2,-131,-147
-47,-53,-6,50,-20,-29,195,308,194,17,-118,-142
-25,-24,0,24,-12,-12,218,372,251,36,-97,-133
-34,-26,9,30,-21,-8,247,423,303,68,-84,-122
-52,-26,25,39,-39,-1,269,456,345,93,-70,-112
-29,14,43,7,-36,28,270,477,367,116,-40,-95
-6,36,41,-15,-24,38,252,452,361,101,-40,-87
52,34,-18,-43,35,7,204,362,323,83,-53,-85
56,38,-18,-47,37,10,153,254,268,86,-28,-60
49,41,-8,-45,28,16,92,151,197,59,-25,-53
24,-5,-29,-9,26,-17,41,54,120,23,-24,-62
-26,-35,-9,31,-8,-22,18,-20,52,-15,-29,-78
-17,-54,-37,36,10,-45,12,-67,5,-43,-45,-92
-25,-78,-53,52,14,-65,13,-99,-17,-57,-49,-91
-30,-78,-48,54,9,-63,7,-119,-48,-84,-74,-113
-20,-73,-53,46,17,-63,7,-125,-61,-95,-80,-120
-30,-69,-39,49,5,-54,1,-128,-58,-92,-79,-122
-34,-98,-64,67,15,-81,-14,-136,-78,-107,-97,-144
-14,-89,-75,51,31,-82,-15,-134,-76,-111,-101,-145
-11,-72,-60,42,25,-66,-9,-120,-69,-105,-99,-145
-4,-61,-57,33,27,-59,-5,-121,-65,-104,-102,-145
-15,-63,-48,40,17,-55,-2,-126,-58,-100,-105,-145
-63,-106,-43,85,-10,-74,16,-111,-54,-99,-105,-144
-59,-98,-39,78,-9,-68,32,-94,-47,-94,-107,-137
-46,-82,-37,64,-4,-59,22,-89,-43,-88,-111,-133
-51,-85,-34,69,-8,-59,16,-90,-37,-85,-110,-127
-53,-84,-31,69,-10,-58,8,-90,-32,-80,-107,-121
-58,-85,-28,71,-15,-56,0,-89,-24,-75,-104,-116
-50,-85,-35,68,-7,-60,-3,-100,-43,-91,-105,-111
-38,-84,-47,62,5,-65,2,-112,-63,-102,-105,-109
-47,-87,-40,67,-3,-63,2,-109,-62,-109,-105,-106
-65,-103,-38,84,-13,-70,-6,-120,-67,-116,-104,-103
-72,-106,-34,90,-18,-70,-11,-143,-70,-115,-98,-101
-76,-104,-27,90,-24,-65,-9,-149,-67,-114,-91,-99
-63,-106,-44,85,-9,-75,-11,-166,-64,-123,-85,-93
-38,-80,-42,59,3,-61,-5,-177,-59,-123,-78,-87
-10,-41,-31,25,11,-35,1,-164,-58,-117,-72,-82
13,-11,-24,-1,19,-17,7,-152,-52,-101,-66,-76
20,4,-16,-12,18,-6,37,-129,-31,-68,-62,-72
26,18,-8,-21,16,5,48,-97,-9,-51,-56,-67
37,23,-14,-30,26,5,29,-112,-15,-61,-53,-64
37,-25,-62,-6,50,-43,-15,-162,-54,-91,-47,-62
17,-46,-63,15,40,-54,-39,-152,-60,-87,-43,-53
54,-48,-102,-3,78,-75,-66,-171,-71,-110,-61,-66
87,-70,-158,-8,123,-114,-87,-212,-102,-149,-84,-94
35,-83,-118,24,76,-100,-62,-187,-99,-145,-89,-99
-36,-115,-79,76,22,-97,-59,-195,-107,-144,-74,-96
-71,-137,-66,105,-2,-102,-38,-171,-108,-146,-99,-103
-78,-133,-55,106,-11,-94,-40,-179,-118,-144,-94,-86
-77,-133,-56,105,-10,-94,-30,-154,-105,-142,-94,-95
-59,-112,-53,86,-3,-83,-36,-149,-99,-129,-82,-78
-66,-102,-36,84,-15,-69,45,-96,-54,-108,-104,-108
-42,-14,28,28,-35,7,190,197,191,33,-50,-84
230,196,-34,-213,131,81,1,388,698,633,605,343
765,486,-279,-625,522,104,-488,385,1165,1238,1541,954
1192,746,-446,-969,819,150,-1200,-397,1024,1465,2340,1575
1018,451,-569,-734,793,-59,-1287,-1060,326,896,1785,1253
388,14,-374,-201,381,-179,-580,-739,-353,-227,183,191
25,-55,-80,15,53,-67,-174,-432,-373,-375,-240,-107
-46,-114,-68,80,12,-91,-43,-222,-159,-174,-145,-95
-74,-115,-42,95,-16,-78,28,-166,-161,-219,-194,-141
-70,-117,-46,94,-12,-81,35,-177,-115,-162,-147,-124
-131,-151,-20,141,-55,-85,53,-143,-110,-181,-168,-138
-115,-116,-2,115,-56,-59,51,-150,-88,-155,-155,-124
-73,-123,-50,98,-12,-87,71,-123,-72,-154,-175,-133
-81,-127,-46,104,-17,-86,80,-122,-71,-145,-164,-128
-57,-96,-39,76,-8,-67,80,-104,-54,-135,-162,-130
-71,-108,-37,90,-17,-72,80,-93,-53,-134,-160,-128
-85,-118,-32,102,-26,-75,80,-73,-38,-121,-153,-122
-82,-114,-32,98,-25,-72,80,-59,-31,-120,-153,-122
-97,-120,-23,109,-37,-72,86,-43,-18,-109,-142,-115
-130,-120,10,125,-70,-55,118,2,3,-111,-139,-117
-115,-118,-3,116,-56,-60,131,20,25,-108,-130,-136
-43,-77,-34,60,-4,-55,129,40,51,-79,-125,-139
-39,-67,-27,53,-6,-47,143,90,88,-54,-117,-123
-70,-95,-25,83,-22,-60,163,136,124,-45,-130,-124
-62,-81,-18,72,-22,-49,187,200,169,-15,-126,-115
-51,-57,-6,54,-23,-31,213,254,217,19,-102,-92
-51,-40,11,45,-30,-14,242,317,267,45,-91,-78
-67,-33,35,50,-51,1,261,381,326,81,-76,-65
-72,-19,53,46,-62,16,267,413,361,91,-62,-59
-48,1,49,23,-48,25,272,437,373,101,-42,-61
-79,-9,70,43,-74,31,275,413,374,124,-30,-53
-43,32,76,5,-60,54,236,355,353,108,-25,-43
54,80,26,-67,13,53,159,267,295,84,-17,-45
31,42,11,-37,10,26,96,151,221,62,-11,-45
2,13,11,-8,-5,12,52,58,149,33,-7,-44
5,-18,-23,7,14,-20,22,-26,70,0,-27,-45
18,-46,-64,14,41,-55,10,-90,8,-39,-57,-48
11,-56,-67,23,39,-61,7,-109,-28,-63,-67,-55
-17,-68,-51,43,17,-59,3,-125,-44,-69,-68,-65
-28,-67,-39,48,6,-53,0,-148,-56,-90,-73,-71
-51,-93,-41,72,-5,-67,-5,-158,-61,-102,-75,-73
-47,-103,-57,76,5,-80,-3,-161,-59,-99,-81,-77
-45,-98,-52,72,3,-75,4,-166,-60,-101,-88,-80
-49,-98,-49,74,1,-73,11,-169,-60,-100,-92,-76
-48,-93,-45,71,-1,-69,17,-174,-59,-100,-96,-75
-49,-96,-47,72,0,-71,25,-173,-62,-100,-94,-75
-39,-90,-51,64,6,-70,29,-170,-63,-100,-91,-75
-39,-89,-49,64,5,-69,26,-170,-50,-100,-88,-74
-35,-85,-51,60,9,-67,23,-166,-44,-100,-85,-77
-32,-81,-49,57,9,-65,21,-165,-45,-100,-83,-81
-55,-106,-52,81,-1,-79,17,-165,-45,-100,-79,-78
-77,-115,-38,96,-19,-76,15,-181,-45,-100,-83,-74
-61,-102,-41,81,-9,-71,12,-202,-45,-100,-85,-71
-46,-103,-57,75,6,-80,9,-213,-49,-100,-85,-66
-43,-97,-54,70,5,-75,11,-222,-57,-100,-84,-66
-48,-104,-56,76,4,-79,6,-235,-76,-107,-86,-73
-34,-89,-54,62,10,-71,6,-242,-83,-107,-95,-72
5,-51,-56,23,31,-53,4,-234,-77,-99,-90,-70
-25,-69,-43,47,9,-56,13,-225,-68,-89,-79,-71
-45,-68,-23,57,-11,-45,15,-219,-65,-82,-73,-70
-26,-35,-9,31,-8,-22,28,-209,-45,-60,-51,-69
4,-1,-5,-1,5,-3,74,-207,-16,-43,-40,-64
23,43,20,-33,1,31,72,-199,-25,-49,-39,-59
-28,-11,16,19,-22,3,33,-207,-42,-54,-42,-56
-18,-87,-69,53,26,-78,-24,-246,-74,-83,-63,-49
41,-54,-95,7,68,-74,-45,-240,-89,-101,-73,-55
43,-53,-96,6,69,-75,-52,-247,-85,-100,-67,-56
17,-116,-133,50,75,-124,-70,-262,-94,-106,-65,-64
-7,-138,-130,72,62,-133,-50,-247,-80,-99,-67,-69
-38,-135,-97,87,29,-116,-46,-274,-101,-109,-75,-66
-62,-143,-81,103,9,-112,-40,-270,-127,-129,-103,-99
-75,-143,-68,109,-3,-106,-58,-285,-128,-110,-89,-93
-59,-128,-69,93,6,-98,-28,-254,-108,-114,-106,-107
-41,-82,-41,62,0,-61,-9,-250,-80,-96,-72,-71
-80,-107,-27,94,-26,-67,75,-153,-39,-90,-118,-116
-32,-48,-15,40,-8,-31,169,134,215,98,-5,-48
299,208,-91,-253,195,59,-64,307,739,707,707,433
889,535,-354,-711,621,90,-597,199,1114,1197,1600,1044
1254,690,-564,-972,908,63,-1297,-661,858,1266,2213,1566
920,313,-607,-617,763,-147,-1230,-1166,96,518,1339,1006
291,-26,-317,-132,304,-171,-504,-778,-439,-367,-49,47
-22,-87,-65,55,22,-76,-169,-483,-328,-305,-200,-95
-86,-146,-60,116,-13,-103,-38,-291,-142,-165,-130,-117
-89,-114,-25,102,-32,-69,28,-243,-125,-167,-154,-125
-97,-127,-30,112,-33,-79,32,-215,-90,-134,-143,-109
-115,-139,-23,127,-46,-81,25,-193,-92,-154,-162,-121
-96,-115,-19,106,-38,-67,35,-201,-75,-112,-137,-104
-89,-109,-20,100,-35,-64,71,-155,-68,-105,-149,-114
-101,-113,-12,107,-44,-62,71,-142,-59,-92,-133,-101
-113,-126,-14,120,-49,-70,78,-122,-50,-91,-136,-105
-116,-125,-8,120,-53,-66,79,-112,-44,-84,-129,-99
-120,-125,-5,122,-57,-64,84,-94,-34,-78,-129,-96
-132,-124,9,128,-70,-57,85,-77,-27,-75,-131,-96
-114,-110,3,112,-58,-54,94,-61,-7,-65,-128,-94
-100,-106,-7,103,-46,-56,96,-31,2,-55,-132,-98
-136,-119,16,128,-76,-51,112,-18,30,-46,-124,-100
-143,-104,40,123,-91,-32,153,11,52,-43,-118,-97
-104,-84,20,94,-62,-31,157,64,74,-19,-109,-92
-79,-72,7,75,-42,-33,165,120,121,11,-102,-88
-85,-60,25,72,-55,-17,190,189,167,35,-94,-84
-80,-54,26,67,-53,-14,215,258,220,57,-83,-76
-88,-50,38,68,-62,-6,242,321,269,89,-70,-65
-110,-57,53,84,-81,-2,253,374,306,107,-58,-55
-89,-40,49,64,-68,4,259,415,337,118,-43,-45
-53,-2,51,27,-51,24,268,423,360,130,-30,-38
-26,24,49,1,-38,36,253,398,357,117,-24,-31
-21,31,52,-5,-36,41,214,327,319,105,-23,-24
-13,22,35,-4,-25,28,163,213,259,96,-19,-19
14,13,-1,-14,7,6,111,101,188,77,-17,-20
10,-15,-25,3,18,-20,58,-2,113,55,-14,-20
-20,-39,-20,30,0,-29,26,-72,47,31,-18,-19
-24,-54,-30,40,3,-42,22,-117,-3,-1,-40,-41
-39,-90,-51,65,6,-71,16,-142,-35,-26,-55,-53
-48,-99,-51,73,2,-75,13,-141,-45,-46,-55,-48
-48,-90,-42,70,-3,-66,7,-137,-45,-58,-62,-51
-34,-86,-52,60,9,-69,6,-134,-66,-59,-72,-64
-23,-81,-58,52,18,-69,14,-130,-86,-65,-77,-72
-52,-73,-21,63,-15,-46,23,-126,-80,-64,-73,-69
-50,-83,-33,67,-8,-58,24,-124,-75,-66,-79,-71
-59,-101,-42,80,-8,-71,28,-116,-69,-70,-85,-70
-60,-96,-36,79,-12,-66,40,-109,-63,-70,-86,-70
-48,-93,-45,71,-1,-69,37,-97,-59,-68,-104,-82
-60,-89,-29,75,-15,-59,31,-83,-55,-61,-99,-84
-69,-87,-18,78,-25,-52,28,-85,-55,-56,-81,-78
-74,-82,-7,78,-33,-44,22,-86,-55,-51,-76,-74
-66,-93,-27,80,-19,-60,20,-84,-55,-44,-74,-69
-40,-84,-44,62,2,-63,20,-86,-59,-41,-75,-66
-29,-62,-33,46,2,-47,19,-84,-60,-45,-68,-63
-48,-80,-31,64,-8,-55,21,-91,-61,-49,-71,-60
-65,-92,-27,78,-18,-59,19,-98,-65,-40,-66,-58
-79,-97,-18,88,-30,-58,22,-90,-66,-37,-54,-55
-53,-89,-36,71,-8,-63,12,-96,-64,-53,-73,-53
-27,-70,-43,49,8,-56,-2,-94,-55,-49,-73,-38
-5,-31,-26,18,11,-28,27,-81,-45,-37,-56,-31
14,0,-15,-7,15,-7,37,-73,-34,-25,-49,-32
18,12,-6,-15,11,3,49,-62,-26,-15,-44,-13
28,34,6,-31,10,20,60,-52,-18,-15,-45,0
-4,11,14,-4,-9,12,28,-51,-19,-15,-45,-5
10,-32,-43,11,27,-38,-18,-89,-46,-31,-45,-10
13,-52,-65,19,39,-58,-49,-106,-62,-52,-45,-18
11,-48,-59,19,35,-53,-60,-117,-67,-63,-46,-24
70,-54,-124,-7,97,-89,-78,-143,-78,-69,-53,-30
25,-89,-114,32,70,-101,-72,-139,-90,-79,-73,-39
-30,-107,-76,69,23,-91,-60,-162,-103,-82,-74,-48
-39,-114,-76,77,19,-95,-44,-145,-107,-80,-88,-67
-62,-124,-62,93,1,-93,-44,-167,-124,-102,-90,-63
-49,-111,-62,80,7,-86,-24,-166,-114,-120,-101,-82
-66,-81,-14,74,-26,-47,-26,-129,-88,-68,-72,-53
-93,-95,-2,94,-46,-48,49,-46,-54,-39,-108,-94
-26,12,38,7,-32,25,182,252,197,115,-6,-32
251,214,-37,-232,143,88,-28,448,675,651,632,402
814,484,-330,-649,572,77,-558,350,1002,1115,1491,976
1271,710,-562,-990,917,74,-1260,-449,795,1169,2148,1543
1014,378,-636,-696,825,-129,-1294,-1030,55,483,1362,1059
313,-18,-331,-147,322,-175,-585,-639,-502,-357,-26,87
-12,-57,-44,35,16,-50,-179,-280,-365,-305,-200,-84
-38,-74,-36,56,0,-55,-44,-58,-158,-112,-131,-107
-79,-89,-11,84,-33,-50,17,24,-150,-139,-166,-124
-88,-99,-12,94,-38,-55,27,13,-120,-120,-137,-116
-102,-108,-6,106,-48,-57,41,44,-114,-124,-161,-128
-105,-102,3,103,-53,-50,39,57,-96,-103,-142,-113
-99,-95,4,97,-52,-45,55,91,-83,-103,-156,-125
-96,-84,13,90,-54,-35,53,97,-74,-91,-147,-110
-113,-88,25,100,-69,-31,63,133,-62,-84,-151,-118
-106,-95,11,100,-58,-42,65,151,-57,-79,-150,-111
-95,-72,23,83,-58,-25,66,167,-44,-71,-149,-109
-108,-63,45,85,-76,-9,88,192,-36,-71,-151,-111
-95,-87,9,91,-52,-39,96,201,-22,-62,-149,-109
-100,-82,18,90,-59,-32,101,225,0,-62,-148,-111
-116,-78,38,97,-77,-19,107,264,26,-47,-138,-109
-126,-86,40,106,-83,-23,116,291,53,-28,-132,-106
-129,-88,40,108,-84,-24,124,311,73,-25,-123,-101
-125,-89,36,107,-81,-26,141,348,112,-2,-116,-99
-112,-77,35,94,-73,-21,173,389,164,33,-105,-95
-87,-52,35,69,-61,-9,202,447,217,68,-89,-91
-60,-15,45,37,-52,15,218,499,262,94,-78,-87
-77,-12,65,44,-70,26,224,534,297,112,-71,-83
-100,-9,91,54,-95,41,220,555,329,123,-66,-77
-68,21,89,24,-79,55,211,548,330,117,-61,-74
-37,43,80,-3,-59,61,207,527,330,115,-54,-68
-9,66,75,-29,-42,70,173,470,300,111,-51,-65
4,62,58,-33,-27,60,125,367,243,110,-54,-70
0,45,45,-23,-22,44,75,246,180,103,-55,-70
-23,12,35,5,-29,24,28,140,100,81,-54,-70
-25,-1,24,12,-25,12,7,65,43,37,-55,-69
-9,3,13,3,-11,8,-18,20,-1,4,-54,-72
-30,-28,2,29,-16,-13,-32,-9,-34,-4,-57,-92
-37,-48,-11,42,-13,-29,-29,-24,-61,-22,-68,-96
-35,-53,-19,44,-8,-36,-27,-15,-83,-36,-77,-94
-26,-58,-32,43,3,-45,-24,-7,-76,-54,-88,-100
-14,-58,-44,36,15,-51,-21,1,-72,-67,-90,-100
-29,-64,-35,47,3,-49,-19,8,-92,-63,-91,-100
-43,-70,-27,57,-7,-48,-16,14,-101,-61,-96,-100
-33,-54,-21,44,-6,-37,-9,20,-94,-57,-94,-99
-29,-43,-14,36,-7,-28,-6,15,-92,-55,-109,-109
-34,-42,-8,38,-13,-24,-1,15,-88,-53,-115,-116
-37,-37,0,37,-18,-18,4,14,-83,-49,-105,-115
-37,-33,4,35,-20,-14,3,9,-82,-51,-100,-113
-53,-31,22,42,-38,-4,-2,11,-77,-49,-92,-109
-61,-25,37,43,-49,5,-5,6,-88,-51,-89,-110
-54,-30,24,41,-38,-3,-8,-5,-105,-49,-84,-106
-54,-42,12,48,-33,-14,-14,-17,-115,-54,-83,-104
-44,-39,5,41,-25,-16,-14,-28,-125,-66,-76,-105
-44,-41,3,42,-24,-18,-24,-38,-120,-65,-77,-104
-32,-32,0,32,-16,-15,-26,-43,-115,-65,-84,-106
-45,-40,4,43,-24,-18,-25,-36,-112,-67,-82,-104
-64,-17,48,40,-56,16,-22,-29,-105,-59,-86,-98
6,41,35,-24,-15,38,10,-22,-107,-34,-74,-91
16,46,30,-31,-8,38,35,-15,-110,-16,-59,-86
-40,35,74,2,-57,54,39,-9,-110,-10,-47,-85
-25,42,67,-9,-46,54,23,-2,-110,1,-41,-84
25,66,40,-46,-8,53,-14,-5,-110,0,-48,-82
46,33,-13,-39,29,10,-63,-29,-110,-28,-48,-77
52,17,-35,-34,43,-9,-77,-59,-120,-41,-57,-84
74,29,-45,-52,59,-8,-92,-92,-134,-60,-52,-82
37,-31,-69,-3,53,-50,-87,-89,-138,-85,-61,-91
-6,-56,-50,31,22,-53,-70,-95,-149,-86,-76,-107
-45,-68,-23,57,-11,-45,-76,-119,-163,-85,-88,-117
-76,-68,9,72,-42,-29,-51,-112,-162,-96,-112,-135
-51,-53,-2,52,-24,-27,-44,-120,-161,-79,-96,-123
-54,-53,0,54,-27,-26,-30,-91,-150,-75,-114,-139
-67,-39,28,53,-48,-6,-36,-118,-138,-46,-86,-110
-105,-59,46,82,-75,-7,91,53,-9,13,-114,-146
10,97,87,-54,-38,92,124,299,307,290,165,41
415,354,-61,-384,238,146,-192,360,734,908,997,595
959,651,-307,-804,633,172,-760,-57,781,1227,1928,1271
1126,694,-433,-910,779,130,-1325,-1006,218,1016,2261,1607
626,250,-376,-438,500,-63,-1006,-1077,-371,201,979,733
120,24,-96,-72,108,-36,-358,-554,-534,-398,-194,-94
-68,-17,50,42,-59,17,-121,-286,-282,-186,-146,-117
-105,-74,31,89,-68,-21,-3,-117,-135,-109,-161,-153
-104,-82,22,93,-63,-30,14,-113,-142,-107,-165,-141
-102,-98,5,100,-53,-46,43,-78,-116,-77,-154,-145
-81,-40,41,60,-61,0,48,-65,-126,-94,-163,-147
-130,-70,59,100,-94,-6,40,-58,-112,-66,-149,-144
-142,-93,50,117,-96,-21,52,-44,-109,-77,-186,-169
-115,-63,52,89,-83,-5,50,-43,-96,-58,-170,-157
-103,-58,45,80,-73,-7,69,-29,-79,-63,-172,-158
-92,-46,46,68,-68,0,80,-29,-81,-59,-162,-148
-134,-93,41,113,-87,-26,81,-17,-81,-55,-159,-144
-119,-92,27,106,-73,-32,79,-14,-62,-56,-155,-139
-90,-42,48,66,-69,3,80,2,-30,-47,-150,-134
-124,-56,68,90,-96,5,83,28,-5,-34,-149,-132
-108,-43,64,75,-86,10,91,34,12,-19,-142,-128
-87,-23,64,55,-76,20,100,52,25,-12,-141,-126
-122,-54,68,88,-95,7,118,105,68,8,-135,-122
-76,-27,50,51,-63,11,143,150,115,35,-127,-119
-42,1,43,21,-42,21,159,205,166,71,-118,-115
-65,6,70,29,-67,38,176,267,222,108,-109,-111
-60,12,72,24,-66,42,190,298,252,118,-93,-109
-75,-9,66,42,-71,28,205,359,322,154,-78,-95
-55,13,68,20,-62,40,209,391,360,181,-65,-82
-24,36,60,-7,-42,48,191,359,339,169,-48,-67
-26,49,74,-12,-50,61,187,319,324,162,-27,-50
-7,76,82,-35,-45,79,156,244,284,153,-7,-49
23,72,49,-48,-13,60,93,130,225,142,3,-50
-12,29,42,-9,-27,35,51,13,146,123,9,-49
-16,23,39,-4,-27,31,23,-65,63,81,5,-51
-3,23,26,-10,-15,24,9,-120,-3,38,-9,-49
-24,-4,20,14,-22,7,7,-157,-45,17,-19,-54
-11,-7,5,9,-8,-1,3,-176,-59,7,-33,-54
-35,-33,2,34,-19,-15,0,-181,-77,1,-43,-57
-46,-58,-12,52,-16,-34,-5,-172,-92,-6,-55,-67
-51,-53,-2,52,-24,-27,-3,-166,-89,-13,-66,-65
-40,-40,0,40,-20,-20,2,-160,-90,-19,-65,-65
-61,-52,9,56,-35,-21,5,-150,-90,-24,-65,-65
-114,-72,42,93,-78,-15,8,-154,-90,-26,-66,-65
-39,-41,-3,40,-18,-22,13,-163,-88,-29,-64,-66
-22,-31,-9,27,-6,-20,16,-153,-82,-31,-70,-59
-49,-48,1,49,-25,-23,21,-141,-79,-35,-78,-65
-28,-38,-11,33,-8,-25,31,-138,-73,-34,-73,-71
-52,-48,4,50,-27,-22,33,-140,-71,-30,-70,-69
-44,-28,16,36,-30,-6,26,-140,-74,-31,-67,-70
-35,6,41,14,-38,23,19,-144,-77,-28,-62,-70
-63,-17,46,40,-55,14,13,-145,-80,-25,-59,-70
-68,-24,44,46,-56,10,5,-145,-83,-25,-56,-66
-81,-35,46,57,-63,6,0,-151,-86,-28,-53,-61
-100,-56,44,78,-72,-6,6,-158,-83,-37,-51,-59
-98,-53,45,75,-71,-4,13,-158,-76,-39,-48,-54
-83,-42,41,63,-62,-1,20,-147,-70,-26,-46,-51
-42,-7,35,24,-39,14,26,-138,-62,-11,-44,-48
-9,32,41,-12,-26,36,34,-126,-56,-2,-32,-44
-15,34,49,-10,-32,41,49,-121,-59,2,-26,-46
-3,36,39,-16,-21,37,56,-118,-61,4,-23,-41
15,45,30,-30,-8,37,41,-126,-59,10,-20,-40
-5,17,22,-7,-13,19,0,-162,-62,8,-18,-40
-13,-10,3,11,-8,-3,-22,-177,-69,-2,-14,-39
-12,-21,-9,17,-2,-15,-35,-190,-91,-22,-19,-42
19,-32,-51,7,36,-42,-64,-215,-114,-51,-18,-36
21,-67,-89,23,55,-78,-45,-204,-113,-63,-26,-54
-29,-91,-62,60,17,-76,-36,-218,-117,-59,-23,-63
-39,-88,-48,64,5,-68,-21,-205,-113,-60,-51,-79
-61,-97,-36,79,-12,-66,-20,-206,-131,-64,-56,-75
-68,-96,-28,82,-20,-62,-7,-195,-114,-45,-46,-72
-78,-84,-6,81,-36,-44,0,-183,-103,-43,-56,-65
-108,-91,17,99,-62,-36,41,-144,-74,-19,-42,-77
-76,-31,45,53,-60,7,198,112,131,86,-21,-98
139,158,19,-149,60,88,56,270,529,584,529,274
630,456,-174,-543,402,141,-353,273,962,1188,1481,903
1076,741,-336,-908,706,202,-994,-413,801,1392,2363,1583
981,528,-453,-754,717,38,-1257,-1145,146,976,2094,1456
398,75,-322,-236,360,-123,-665,-869,-426,-83,443,330
-2,-54,-52,28,26,-52,-201,-494,-450,-365,-214,-128
-58,-60,-2,59,-28,-30,-42,-251,-186,-82,-50,-77
-112,-84,28,98,-70,-28,28,-153,-169,-120,-126,-138
-138,-110,28,124,-83,-41,40,-169,-130,-83,-90,-116
-133,-118,15,125,-73,-51,68,-138,-114,-95,-108,-128
-131,-112,20,121,-75,-46,62,-142,-108,-86,-93,-115
-139,-111,28,125,-84,-41,83,-100,-89,-78,-91,-115
-150,-104,46,127,-97,-29,91,-90,-92,-79,-89,-111
-148,-106,42,126,-94,-32,91,-84,-74,-62,-83,-108
-157,-105,52,131,-104,-26,97,-77,-70,-65,-97,-116
-148,-104,44,126,-96,-30,97,-73,-56,-51,-91,-113
-141,-99,41,120,-91,-29,108,-57,-48,-50,-98,-117
-128,-96,33,112,-80,-31,111,-50,-40,-41,-93,-112
-123,-91,33,107,-78,-29,120,-22,-31,-36,-96,-110
-143,-81,62,112,-103,-9,129,8,-16,-32,-95,-110
-140,-75,66,107,-103,-4,129,26,-5,-19,-90,-106
-123,-61,62,92,-92,0,148,70,34,3,-81,-99
-111,-53,58,82,-84,3,159,118,72,12,-71,-93
-90,-31,58,60,-74,13,184,181,120,40,-60,-86
-70,-20,50,44,-59,15,216,246,169,66,-48,-79
-78,-20,58,49,-67,19,236,310,214,88,-35,-73
-83,15,98,34,-91,57,261,377,278,129,-25,-66
-62,41,103,11,-83,72,264,414,306,142,-15,-59
-55,41,95,7,-75,68,264,410,317,144,-5,-53
-61,48,109,6,-85,78,265,408,314,154,5,-44
-56,49,106,3,-81,77,244,372,285,142,20,-31
-33,50,83,-9,-58,66,184,256,232,117,25,-22
-20,61,81,-21,-51,71,122,148,168,101,30,-25
-21,48,69,-14,-45,58,78,63,103,85,26,-25
-8,29,37,-11,-23,33,50,-16,36,58,16,-24
-21,7,28,7,-24,17,41,-79,-11,28,8,-26
-16,7,23,4,-19,15,40,-111,-45,7,-2,-24
-17,0,17,9,-17,8,39,-124,-68,-8,-12,-33
-44,-31,13,37,-28,-9,35,-136,-83,-19,-27,-50
-40,-38,3,39,-21,-17,34,-146,-104,-37,-38,-59
-67,-41,26,53,-46,-7,39,-146,-112,-57,-35,-60
-94,-54,40,74,-66,-7,45,-136,-108,-53,-35,-60
-110,-91,19,100,-64,-36,45,-132,-120,-45,-54,-72
-95,-71,24,83,-59,-23,45,-113,-116,-39,-58,-74
-77,-45,32,61,-55,-7,45,-93,-101,-34,-50,-67
-77,-49,29,63,-53,-10,45,-84,-95,-31,-46,-64
-75,-46,29,60,-51,-8,43,-78,-92,-28,-40,-59
-70,-35,35,52,-52,0,39,-71,-87,-23,-35,-54
-71,-28,43,50,-57,7,40,-64,-85,-20,-31,-50
-88,-65,23,76,-55,-21,40,-57,-85,-24,-26,-50
-96,-74,23,85,-59,-25,40,-51,-82,-25,-24,-49
-117,-66,52,91,-84,-7,40,-45,-80,-25,-20,-45
-97,-67,30,82,-63,-18,35,-36,-80,-23,-14,-44
-83,-64,20,73,-51,-22,35,-46,-87,-33,-24,-54
-88,-60,28,73,-58,-16,36,-57,-84,-41,-30,-60
-88,-64,24,75,-56,-19,34,-55,-75,-41,-26,-55
-81,-41,40,61,-60,-1,37,-54,-67,-39,-19,-50
-82,-22,60,52,-70,19,37,-57,-60,-44,-18,-47
-59,15,74,22,-66,44,65,-36,-49,-17,1,-31
-16,47,63,-16,-40,55,94,2,-20,32,34,-1
-25,27,51,-1,-38,39,93,-1,-19,24,36,1
-21,23,44,-1,-33,33,63,-34,-45,9,33,-4
-25,5,30,10,-28,17,14,-53,-58,1,27,-6
-19,6,25,6,-22,15,8,-51,-63,1,43,-10
-15,-28,-13,21,-1,-20,-25,-86,-84,-16,29,-17
-30,-72,-42,51,6,-57,-37,-112,-99,-57,-2,-35
-32,-44,-12,38,-10,-28,1,-95,-82,-51,19,-31
-34,-58,-24,46,-5,-41,2,-107,-95,-46,8,-46
-82,-109,-27,96,-27,-68,20,-85,-113,-74,-38,-88
-110,-118,-8,114,-51,-63,16,-101,-111,-60,-31,-62
-93,-98,-4,95,-44,-51,40,-77,-90,-50,-31,-69
-92,-48,43,70,-67,-3,28,-76,-89,-37,-6,-51
-86,-44,42,65,-64,-1,110,5,-46,-17,-39,-82
-87,-2,85,44,-86,41,242,297,194,126,32,-46
205,225,20,-215,92,122,17,490,718,740,710,400
792,566,-226,-678,508,170,-486,476,1174,1328,1652,1020
1194,789,-404,-991,799,192,-1176,-327,1000,1506,2392,1616
956,434,-522,-695,739,-44,-1208,-934,269,846,1696,1187
274,7,-267,-140,270,-130,-506,-603,-408,-224,137,145
-42,-30,13,36,-27,-8,-124,-306,-373,-278,-161,-79
-96,-76,20,86,-58,-28,19,-109,-143,-83,-66,-85
-181,-103,78,142,-129,-13,94,-58,-150,-126,-124,-119
-179,-106,73,142,-126,-16,87,-47,-120,-91,-83,-109
-161,-94,67,127,-114,-13,90,-3,-128,-111,-108,-124
-148,-80,68,113,-107,-6,96,1,-111,-83,-81,-100
-145,-89,56,117,-100,-16,113,17,-92,-86,-92,-109
-143,-83,60,112,-101,-11,114,34,-84,-73,-78,-92
-136,-86,50,110,-92,-18,119,52,-74,-65,-84,-101
-145,-85,61,114,-103,-12,129,47,-71,-60,-97,-118
-122,-74,48,97,-85,-12,130,84,-62,-48,-93,-120
-133,-67,66,99,-99,0,130,93,-50,-45,-97,-120
-124,-51,73,87,-98,11,147,116,-22,-33,-94,-119
-70,-34,37,52,-53,2,155,137,-4,-31,-96,-120
-128,-73,55,100,-91,-9,156,132,7,-18,-95,-120
-128,-67,60,98,-94,-3,165,174,31,2,-77,-104
-95,-36,59,65,-77,11,191,222,67,23,-53,-84
-116,-29,87,72,-102,29,210,267,103,41,-45,-78
-97,-14,83,55,-90,34,226,318,147,59,-38,-73
-91,-4,87,47,-89,41,259,386,200,88,-32,-69
-81,3,84,38,-83,43,288,445,245,120,-19,-64
-67,20,87,23,-77,53,307,487,281,141,-11,-60
-70,57,128,6,-99,92,333,543,339,172,16,-53
-46,69,115,-12,-81,92,326,550,356,182,47,-42
-35,60,95,-13,-65,77,280,500,322,156,45,-32
-45,61,106,-9,-75,83,253,447,302,154,44,-23
-36,69,105,-17,-71,86,211,358,267,156,54,-18
-28,53,81,-13,-55,67,144,233,184,125,54,-16
-8,37,44,-15,-26,40,84,127,94,80,41,-21
-26,13,38,7,-32,25,47,59,33,45,30,-34
-49,-7,42,28,-45,17,36,8,-12,24,20,-38
-43,-9,34,26,-39,13,34,-34,-41,12,12,-43
-87,-51,36,69,-61,-7,36,-61,-64,4,6,-59
-104,-70,34,86,-69,-17,34,-68,-66,-4,-2,-61
-104,-65,40,84,-72,-12,36,-72,-59,-12,-9,-59
-108,-58,50,83,-79,-4,32,-75,-60,-19,-14,-60
-79,-49,30,64,-54,-10,26,-70,-53,-20,-31,-60
-83,-47,36,65,-59,-5,42,-70,-60,-20,-36,-59
-76,-30,46,53,-61,7,45,-70,-71,-20,-31,-54
-88,-55,33,71,-60,-11,38,-70,-70,-20,-30,-55
-103,-70,33,86,-68,-18,54,-70,-67,-20,-25,-55
-79,-57,22,68,-51,-17,61,-72,-64,-20,-25,-55
-85,-61,24,73,-54,-19,58,-76,-68,-20,-26,-55
-87,-54,33,71,-60,-10,64,-78,-70,-20,-23,-51
-84,-53,32,68,-58,-10,70,-80,-70,-21,-18,-45
-71,-47,24,59,-47,-11,63,-80,-70,-19,-17,-40
-67,-46,21,56,-43,-12,58,-79,-70,-22,-9,-35
-50,-38,12,43,-31,-12,53,-87,-70,-11,-16,-27
-57,-46,11,52,-34,-17,47,-90,-64,-20,-35,-31
-94,-68,26,81,-60,-21,45,-86,-59,-36,-28,-37
-64,-42,23,53,-43,-9,37,-80,-54,-22,-19,-24
-76,-17,59,46,-67,21,58,-78,-48,-1,-6,-13
-72,10,82,30,-77,46,79,-64,-42,9,9,-3
-30,34,65,-2,-48,49,77,-26,-41,14,21,7
4,66,62,-35,-29,64,89,-11,-48,45,33,18
-16,35,51,-10,-34,43,63,-24,-48,41,28,13
-50,-16,35,33,-42,9,15,-56,-63,21,22,5
18,5,-14,-11,16,-5,1,-68,-76,10,17,0
5,-11,-17,3,11,-14,-27,-70,-79,-5,7,-10
-16,-37,-20,27,2,-28,-43,-97,-96,-13,0,-14
24,-43,-67,10,46,-55,-24,-83,-112,-54,-17,-26
-24,-64,-40,44,8,-52,-25,-90,-133,-68,-25,-29
-104,-127,-23,116,-41,-75,-8,-79,-134,-69,-45,-50
-60,-78,-17,69,-21,-47,-6,-80,-130,-66,-29,-41
-54,-56,-3,55,-26,-29,7,-86,-124,-56,-31,-48
-75,-71,4,73,-39,-33,14,-66,-111,-53,-21,-45
-76,-42,35,59,-55,-4,42,-51,-94,-33,-25,-43
-108,-27,81,67,-94,27,211,210,96,66,-23,-40
134,184,50,-159,42,117,101,439,550,562,510,330
626,438,-188,-532,407,125,-379,458,1018,1126,1358,888
1192,724,-468,-957,830,128,-1103,-197,984,1340,2158,1514
1149,561,-587,-854,868,-13,-1349,-984,327,862,1806,1360
438,72,-367,-255,402,-147,-686,-765,-389,-135,311,340
-7,-45,-38,26,16,-41,-196,-393,-454,-338,-193,-41
-104,-74,30,88,-67,-22,-47,-180,-206,-127,-79,-40
-97,-64,33,80,-65,-15,44,-59,-180,-127,-118,-74
-127,-66,61,96,-94,-2,58,-72,-154,-78,-89,-56
-177,-104,73,140,-125,-15,81,-46,-142,-93,-123,-88
-167,-90,78,128,-122,-6,91,-37,-125,-72,-106,-69
-170,-86,84,128,-127,-1,110,7,-101,-62,-106,-70
-144,-74,70,109,-107,-2,106,4,-101,-56,-99,-60
-117,-68,49,92,-82,-9,111,4,-86,-45,-92,-54
-130,-61,69,95,-99,4,115,26,-83,-44,-92,-50
-162,-81,81,121,-121,0,115,28,-73,-31,-88,-44
-168,-89,79,128,-123,-4,120,39,-66,-30,-90,-44
-155,-72,83,113,-119,5,120,61,-52,-21,-83,-39
-170,-85,85,127,-127,0,119,82,-33,-15,-86,-37
-161,-76,85,118,-122,4,131,103,-13,-6,-81,-34
-132,-44,89,88,-110,22,148,141,13,5,-76,-32
-125,-35,90,80,-107,27,161,184,49,21,-73,-24
-130,-37,93,83,-111,27,175,224,70,29,-69,-18
-148,-53,95,100,-121,21,199,293,110,60,-57,-12
-137,-40,97,88,-116,28,231,364,166,99,-41,-4
-97,4,101,46,-99,52,252,426,209,116,-30,1
-100,14,114,42,-107,64,269,482,254,138,-20,7
-83,38,121,23,-103,79,291,523,292,157,-13,14
-43,71,114,-14,-79,92,291,547,297,159,-7,21
-51,57,107,-3,-79,82,260,517,289,152,-1,28
-30,70,101,-20,-66,85,229,465,270,147,3,34
-14,80,94,-33,-55,87,187,387,229,135,9,49
-39,49,88,-5,-64,68,128,268,161,110,13,58
-49,30,79,10,-64,54,69,163,75,80,18,51
-47,16,64,15,-56,40,33,98,10,44,19,44
-49,6,55,22,-52,30,21,57,-39,9,11,38
-34,-5,29,19,-31,12,12,36,-76,-5,4,30
-27,-5,23,16,-25,9,15,32,-91,-10,-2,26
-86,-30,56,58,-71,13,15,29,-97,-28,-11,29
-102,-38,64,70,-83,12,14,25,-94,-37,-26,31
-93,-30,62,61,-77,16,30,22,-96,-34,-28,27
-73,-53,19,63,-46,-17,36,18,-111,-35,-43,25
-49,-51,-2,50,-24,-26,28,15,-115,-35,-61,25
-76,-48,28,62,-52,-10,26,12,-106,-35,-53,21
-70,-47,23,58,-46,-12,29,10,-103,-34,-49,20
-80,-43,37,61,-58,-3,31,6,-96,-30,-43,20
-108,-43,65,75,-86,10,30,5,-91,-30,-37,15
-100,-36,64,67,-81,13,28,1,-93,-30,-35,15
-95,-35,60,65,-77,12,24,-6,-96,-29,-35,14
-87,-30,56,58,-72,13,25,-10,-95,-31,-36,9
-79,-26,54,52,-66,14,22,-16,-96,-32,-34,11
-74,-25,49,49,-61,11,17,-22,-110,-37,-36,7
-60,-16,43,38,-51,13,14,-25,-116,-38,-33,5
-58,-18,40,38,-48,11,11,-41,-120,-43,-31,5
-40,-5,34,22,-37,14,5,-53,-124,-44,-16,1
-62,-31,31,46,-46,0,7,-66,-130,-46,-28,-1
-80,-45,35,62,-57,-5,21,-85,-142,-58,-56,0
-42,24,66,9,-54,45,36,-83,-118,-26,-21,8
-50,33,83,8,-67,58,45,-80,-96,-8,7,21
-36,51,87,-8,-62,69,64,-85,-99,-6,16,36
-25,57,81,-16,-53,68,79,-84,-99,27,24,41
-23,32,55,-5,-39,43,65,-90,-104,24,15,37
17,53,35,-36,-9,44,29,-89,-105,5,9,33
46,33,-14,-39,30,10,-6,-94,-109,-5,4,31
21,2,-19,-12,20,-8,-17,-111,-111,-18,-6,24
12,-23,-35,6,24,-29,-45,-138,-115,-37,-8,25
14,-57,-71,22,42,-64,-47,-141,-128,-52,-18,11
-34,-68,-34,51,0,-50,-37,-146,-144,-61,-32,3
-73,-76,-3,74,-35,-39,-31,-163,-157,-86,-55,-6
-90,-68,23,79,-56,-22,-18,-149,-152,-85,-58,-26
-76,-58,19,67,-47,-19,-14,-158,-154,-61,-44,-26
-74,-61,14,67,-44,-23,5,-131,-142,-72,-59,-34
-67,-33,33,50,-50,0,13,-122,-115,-39,-22,2
-90,-17,74,53,-82,28,158,71,3,16,-48,-32
26,130,104,-78,-39,117,150,328,349,345,273,184
444,345,-99,-394,271,123,-225,354,782,924,1059,699
1022,660,-362,-841,692,149,-870,-105,840,1196,1929,1359
1236,694,-542,-965,889,76,-1371,-998,321,931,2080,1579
633,180,-453,-406,543,-137,-948,-1037,-355,54,736,643
73,-19,-92,-27,83,-55,-304,-512,-530,-378,-195,-14
-62,-39,22,51,-42,-8,-72,-252,-263,-165,-115,-20
-145,-99,46,122,-96,-27,39,-95,-161,-141,-144,-65
-133,-65,68,99,-101,2,54,-87,-163,-102,-120,-32
-138,-83,55,111,-96,-14,73,-62,-141,-85,-120,-42
-135,-66,69,100,-102,2,82,-37,-136,-81,-118,-31
-137,-72,65,104,-101,-3,84,-20,-109,-63,-106,-23
-152,-66,86,108,-119,10,86,-2,-102,-72,-109,-38
-128,-56,73,92,-100,8,82,1,-92,-57,-96,-48
-127,-54,73,90,-100,10,104,13,-85,-62,-99,-53
-122,-41,81,81,-101,20,106,27,-78,-53,-89,-48
-126,-43,83,84,-104,19,103,48,-69,-52,-88,-52
-119,-32,87,75,-103,28,102,68,-56,-42,-81,-49
-126,-43,83,84,-104,20,97,77,-43,-36,-100,-49
-104,-18,86,61,-95,34,107,98,-5,-30,-100,-42
-78,6,84,36,-81,45,131,139,25,-14,-86,-38
-134,-45,89,89,-112,22,144,164,31,-4,-81,-34
-120,-43,77,82,-98,17,142,214,70,19,-76,-29
-86,-22,63,54,-74,20,158,264,110,43,-72,-26
-120,-16,104,68,-112,44,184,317,161,75,-67,-16
-104,3,107,50,-105,55,198,368,203,95,-59,-3
-82,22,103,30,-93,62,225,425,257,123,-30,8
-78,52,131,13,-105,91,248,476,318,168,-11,17
-22,66,89,-22,-56,77,237,463,323,163,-6,28
-15,68,84,-27,-50,76,226,457,323,153,1,40
-50,71,122,-11,-86,96,213,438,310,147,8,49
-42,69,112,-14,-77,90,174,355,276,138,21,63
-31,68,100,-19,-66,84,124,246,216,125,32,72
-18,65,83,-23,-51,74,76,147,145,107,41,84
-29,41,69,-6,-50,55,38,73,89,89,36,87
-47,19,66,14,-57,42,14,2,27,56,21,74
-54,5,59,24,-56,31,5,-31,-14,23,9,65
-71,-17,54,44,-62,18,-5,-57,-53,-23,-14,56
-78,-30,48,54,-63,8,-13,-90,-85,-47,-32,49
-85,-43,42,64,-63,-1,-5,-87,-85,-40,-29,43
-68,-29,38,48,-53,4,1,-81,-86,-35,-31,35
-56,-26,30,41,-42,1,18,-79,-82,-30,-44,32
-89,-60,28,74,-58,-16,33,-71,-98,-22,-45,35
-53,-35,18,44,-36,-8,40,-72,-103,-22,-45,35
-52,-30,22,41,-37,-4,50,-77,-86,-36,-45,35
-101,-49,52,75,-76,1,42,-75,-86,-31,-45,35
-74,-34,41,54,-57,3,36,-68,-81,-17,-45,35
-86,-35,52,60,-69,8,29,-65,-79,-19,-29,39
-101,-25,76,63,-88,25,23,-60,-76,-28,-45,44
-78,-22,56,49,-67,17,17,-55,-75,-35,-58,47
-57,-16,41,37,-49,12,9,-52,-75,-27,-31,52
-83,-33,50,58,-66,8,3,-48,-77,-20,-28,55
-127,-71,56,99,-91,-8,-5,-56,-97,-40,-51,55
-86,-49,37,67,-61,-6,23,-61,-100,-42,-62,55
-61,-20,42,40,-51,11,34,-60,-101,-34,-59,55
-54,-16,38,34,-45,11,17,-60,-115,-27,-64,54
-78,-31,46,54,-62,7,8,-61,-110,-22,-66,64
-132,-65,67,99,-100,1,-12,-66,-103,-48,-66,71
-85,-32,53,58,-69,10,-3,-57,-96,-47,-48,73
-60,4,64,27,-62,34,14,-47,-89,-25,-23,78
-45,32,78,6,-62,55,27,-26,-83,-8,-12,80
-15,70,85,-28,-50,77,59,4,-51,10,-3,91
-20,70,89,-25,-55,79,57,15,-34,25,6,104
-12,57,69,-23,-40,62,18,13,-66,16,8,96
-32,25,57,4,-45,41,-15,-3,-86,-24,1,101
1,25,24,-13,-12,24,-36,-15,-93,-39,-6,104
49,32,-17,-41,33,8,-64,-57,-126,-35,-13,96
23,-11,-35,-5,29,-23,-72,-80,-140,-37,-17,85
-3,-53,-50,28,24,-51,-63,-77,-156,-63,-29,73
-4,-30,-26,17,12,-28,-54,-102,-162,-87,-54,73
-49,-46,3,48,-26,-21,-41,-95,-153,-107,-79,64
-115,-109,6,112,-61,-51,-41,-97,-165,-94,-60,77
-52,-62,-10,58,-21,-35,-19,-70,-127,-88,-76,52
-21,-7,14,14,-17,4,-18,-76,-104,-54,-44,81
-96,-50,46,73,-71,-2,98,82,-9,8,-54,42
19,73,54,-46,-18,63,141,305,264,241,159,180
343,321,-23,-332,183,149,-135,364,691,852,970,725
869,651,-218,-760,543,216,-674,14,785,1220,1941,1412
1148,762,-386,-955,766,188,-1246,-912,239,1103,2436,1859
670,296,-374,-483,522,-39,-1024,-1081,-363,315,1266,1054
157,39,-118,-98,138,-40,-387,-564,-549,-395,-115,115
32,38,6,-35,12,22,-113,-251,-316,-204,-118,58
-36,-26,10,30,-23,-8,-4,-64,-178,-105,-69,22
-114,-67,47,90,-80,-10,26,-64,-167,-126,-106,20
-129,-108,22,118,-75,-43,51,-42,-126,-103,-105,19
-123,-76,47,100,-85,-14,65,-16,-131,-112,-122,5
-137,-79,58,108,-97,-11,69,-12,-109,-80,-94,13
-144,-93,51,118,-97,-21,79,2,-110,-94,-111,-5
-113,-82,32,97,-72,-25,72,15,-100,-74,-90,8
-83,-60,24,72,-53,-18,78,45,-83,-78,-97,19
-109,-46,63,77,-86,8,79,45,-73,-70,-87,33
-107,-56,52,81,-79,-2,80,60,-62,-65,-92,29
-92,-52,40,72,-65,-6,80,66,-57,-64,-105,30
-82,-33,48,57,-65,8,84,85,-43,-52,-101,31
-90,-45,45,68,-67,0,99,113,-19,-35,-98,29
-119,-49,70,84,-94,10,100,130,1,-15,-93,31
-97,-36,61,66,-79,12,116,180,34,-13,-88,29
-67,-38,29,52,-48,-4,142,227,68,3,-82,30
-79,-33,46,56,-62,7,139,279,92,27,-74,30
-106,-38,68,72,-87,15,150,344,138,45,-71,27
-109,-20,89,64,-99,34,185,423,195,86,-51,52
-76,16,92,30,-84,54,197,478,245,109,-37,73
-69,11,80,29,-75,45,192,501,275,114,-46,70
-49,27,77,11,-63,52,191,543,309,128,-31,76
-2,69,71,-33,-37,70,185,551,333,149,-16,85
1,65,64,-34,-31,65,187,531,313,153,-4,93
-5,57,62,-26,-33,59,164,464,269,136,12,113
-15,49,63,-17,-39,56,111,355,210,118,24,124
-43,27,70,7,-56,49,68,265,139,87,39,117
-85,-21,65,53,-74,22,40,175,61,42,38,111
-63,-29,34,46,-48,2,30,121,0,8,27,104
-1,16,18,-8,-10,17,20,100,-28,2,18,97
-27,-21,6,24,-16,-7,14,65,-61,-14,7,91
-50,-47,3,49,-26,-22,13,58,-85,-24,1,86
-25,-40,-15,33,-5,-27,9,66,-89,-31,-6,82
-36,-34,2,35,-19,-16,6,64,-88,-39,-13,78
-81,-29,51,55,-66,11,6,66,-84,-38,-19,73
-91,-72,19,81,-54,-26,-2,63,-100,-58,-33,70
-67,-42,25,54,-46,-9,8,72,-105,-62,-35,68
-73,-12,60,42,-66,23,22,85,-96,-56,-29,64
-74,-18,56,46,-64,19,20,87,-92,-54,-27,63
-47,-6,41,26,-44,17,19,94,-86,-50,-22,58
-55,-8,47,31,-51,19,16,102,-80,-47,-19,69
-77,4,81,36,-79,43,14,100,-71,-45,-16,85
-105,-30,76,67,-91,22,16,93,-62,-45,-11,85
-130,-59,71,94,-100,6,29,89,-56,-41,-9,84
-110,-45,65,77,-87,10,32,82,-65,-39,-4,80
-84,-43,42,63,-62,-1,24,78,-74,-42,0,80
-66,-33,33,49,-49,0,20,72,-75,-53,-2,78
-77,-28,48,52,-62,10,14,70,-75,-56,-10,89
-90,-23,67,56,-78,22,8,70,-75,-54,-10,96
-88,-23,65,55,-76,21,5,66,-74,-56,-10,91
-107,-38,69,73,-88,15,6,65,-68,-54,-22,88
-87,-14,73,51,-80,29,3,64,-63,-57,-16,83
-28,39,67,-6,-47,52,30,82,-57,-47,0,105
-33,52,86,-10,-60,69,48,94,-51,-30,13,121
-56,48,104,4,-80,76,49,105,-46,-29,31,129
-38,55,94,-9,-66,74,51,123,-48,-30,40,137
-19,50,69,-16,-44,59,23,106,-52,-30,34,134
-11,6,17,2,-14,11,-22,66,-59,-30,31,142
-6,-11,-5,9,0,-8,-44,59,-71,-32,26,139
36,25,-10,-30,22,7,-53,52,-90,-47,22,135
30,0,-30,-15,30,-15,-49,48,-94,-63,18,128
-9,-21,-12,15,2,-16,-35,44,-97,-76,9,120
-60,-52,8,56,-34,-22,-29,31,-118,-76,8,117
-125,-94,32,109,-78,-30,-21,55,-128,-105,-17,97
-81,-57,24,69,-53,-16,-26,47,-120,-94,-19,98
-65,-45,20,54,-42,-12,-5,70,-107,-76,-18,70
-88,-21,67,54,-77,22,0,46,-98,-53,16,78
-102,-33,69,68,-85,17,125,178,-2,-19,-37,43
-34,73,107,-20,-70,89,193,453,298,234,171,190
334,335,2,-335,166,168,-94,602,850,924,991,729
884,634,-250,-759,567,192,-661,375,1091,1326,1901,1366
1182,739,-442,-960,812,148,-1274,-527,721,1336,2414,1819
744,319,-425,-531,584,-53,-1059,-833,-30,477,1313,1081
210,6,-204,-107,207,-99,-366,-390,-463,-374,-152,171
115,-10,-125,-52,120,-67,-162,-261,-273,-211,-190,138
