I,II,III,aVR,aVL,aVF,V1,V2,V3,V4,V5,V6
195,-280,-474,43,335,-377,10,-30,-116,-145,-50,-10
192,-280,-471,44,331,-375,12,-32,-122,-146,-51,-13
186,-280,-466,47,326,-373,17,-37,-126,-150,-55,-19
184,-276,-460,46,323,-368,19,-40,-130,-157,-63,-24
180,-275,-455,48,318,-365,16,-44,-134,-165,-70,-30
175,-275,-450,50,313,-362,11,-46,-136,-165,-71,-34
175,-264,-439,45,307,-351,8,-44,-140,-165,-75,-31
173,-239,-411,33,292,-325,5,-51,-137,-165,-73,-30
165,-200,-365,18,266,-283,0,-54,-129,-165,-69,-30
158,-184,-342,13,250,-263,3,-42,-121,-165,-67,-30
157,-182,-339,13,248,-260,8,-33,-113,-155,-64,-31
155,-178,-333,12,244,-255,23,-29,-106,-139,-61,-27
153,-174,-327,11,241,-250,37,-30,-105,-128,-59,-25
152,-171,-323,10,237,-247,35,-30,-105,-124,-56,-25
149,-167,-316,9,232,-241,35,-30,-105,-122,-55,-21
146,-158,-305,6,226,-231,31,-49,-105,-119,-55,-19
116,-159,-275,21,195,-217,30,-74,-105,-116,-55,-21
79,-160,-239,41,159,-200,30,-99,-107,-115,-54,-24
71,-160,-230,45,150,-195,25,-128,-114,-122,-58,-29
65,-160,-224,48,145,-192,20,-152,-137,-142,-67,-32
56,-160,-217,52,137,-188,15,-170,-153,-158,-66,-40
55,-156,-211,51,133,-184,12,-177,-150,-155,-65,-44
57,-142,-199,42,128,-170,6,-171,-150,-151,-64,-41
56,-128,-184,36,121,-156,7,-166,-151,-148,-60,-37
55,-117,-172,31,114,-144,15,-161,-149,-143,-60,-34
57,-109,-166,26,112,-137,21,-154,-150,-140,-63,-30
61,-100,-161,20,111,-130,28,-151,-146,-136,-65,-25
64,-92,-156,14,110,-124,33,-153,-144,-133,-65,-28
63,-86,-149,11,106,-117,31,-157,-146,-129,-65,-30
67,-79,-146,7,107,-112,28,-153,-138,-125,-65,-33
62,-72,-135,5,99,-103,26,-158,-143,-122,-66,-36
59,-65,-124,3,92,-94,21,-152,-138,-119,-69,-38
51,-61,-112,5,81,-86,22,-160,-152,-130,-80,-44
41,-64,-106,12,74,-85,15,-175,-161,-128,-84,-43
39,-64,-103,13,71,-84,10,-187,-174,-153,-102,-56
40,-52,-92,6,66,-72,-5,-199,-184,-158,-104,-65
40,-56,-96,8,68,-76,-6,-193,-164,-164,-116,-76
38,-38,-76,0,57,-57,-22,-215,-193,-162,-105,-64
39,-47,-87,4,63,-67,-26,-188,-144,-140,-98,-61
17,0,-17,-8,17,-9,-18,-217,-209,-160,-107,-59
5,67,63,-36,-29,65,56,-74,-26,24,24,11
138,172,35,-155,51,103,113,138,479,630,548,333
578,399,-179,-488,379,110,-492,191,1270,1728,1529,1006
745,272,-473,-508,609,-101,-1067,56,1448,1624,1395,1026
358,3,-355,-180,357,-176,-728,-408,131,214,290,377
117,-57,-174,-30,146,-115,-235,-351,-338,-173,-31,73
52,-68,-120,8,86,-93,-38,-94,-79,-69,-54,-19
7,-52,-59,23,33,-55,13,-125,-180,-138,-116,-74
6,-55,-60,25,33,-57,32,-86,-112,-105,-117,-79
-21,-47,-26,34,3,-36,43,-99,-144,-127,-132,-79
-38,-43,-5,40,-16,-24,44,-85,-122,-107,-113,-69
-45,-40,5,42,-24,-17,49,-79,-120,-113,-122,-70
-44,-32,11,38,-27,-10,50,-59,-108,-105,-109,-61
-47,-31,16,39,-32,-7,55,-35,-76,-101,-111,-59
-50,-24,26,37,-37,1,55,-16,-66,-94,-104,-55
-49,-21,28,35,-39,4,58,26,-32,-80,-97,-52
-42,-16,26,29,-34,5,61,57,-10,-66,-92,-50
-30,-9,21,19,-25,6,61,114,34,-40,-83,-46
-22,-3,19,12,-20,8,77,163,67,-26,-78,-45
-10,5,14,2,-12,9,92,224,125,0,-63,-40
1,11,10,-6,-5,10,106,293,189,23,-53,-32
4,16,12,-10,-5,14,128,354,258,65,-30,-24
17,36,19,-27,-1,27,147,418,319,108,-3,-16
31,55,25,-43,3,40,154,450,354,134,6,-9
31,60,29,-45,0,45,150,461,374,149,28,6
34,78,44,-56,-5,61,130,413,339,136,42,24
24,99,75,-62,-26,87,83,274,238,119,32,26
-17,84,101,-34,-59,92,45,140,119,85,24,19
-52,62,114,-5,-84,88,34,49,27,38,14,12
-87,51,138,18,-113,94,36,-21,-36,1,6,6
-149,33,182,58,-166,107,41,-60,-82,-21,-2,-1
-198,13,211,93,-205,112,47,-67,-107,-30,-10,-7
-221,-8,212,114,-216,102,57,-64,-110,-42,-15,-10
-237,-18,219,127,-227,100,58,-65,-110,-53,-25,-13
-229,-6,223,118,-226,108,47,-66,-113,-56,-30,-14
-210,1,212,104,-211,106,41,-63,-114,-62,-39,-19
-203,1,203,101,-203,102,30,-72,-118,-65,-41,-19
-199,-7,192,103,-195,92,25,-77,-114,-75,-47,-24
-194,-11,183,102,-189,86,26,-83,-126,-90,-51,-25
-188,-16,172,102,-180,78,22,-77,-113,-83,-42,-26
-190,-26,164,107,-177,69,30,-83,-127,-89,-50,-33
-185,-18,167,101,-176,74,18,-79,-115,-69,-37,-24
-180,-19,161,99,-171,71,36,-78,-121,-83,-48,-30
-168,4,171,81,-169,87,35,-83,-127,-61,-31,-11
-175,-6,169,91,-172,81,69,-48,-86,-68,-43,-25
-156,48,204,54,-180,126,75,-25,-80,-43,-6,9
-116,132,248,-8,-182,190,104,180,249,227,180,110
118,321,203,-220,-43,262,-1,213,729,986,905,587
535,541,6,-538,264,273,-708,-101,1178,1751,1654,1168
424,330,-93,-377,258,118,-943,-495,574,878,916,811
54,140,86,-98,-16,113,-422,-513,-366,-128,119,274
-71,97,168,-13,-120,132,-104,-94,-104,3,103,126
-136,17,153,59,-145,85,6,-11,-16,-36,-18,11
-142,10,152,66,-147,80,38,-26,-99,-80,-43,-16
-154,-20,134,87,-144,56,46,5,-72,-99,-84,-56
-168,-31,137,99,-153,53,49,-18,-124,-133,-98,-68
-170,-37,133,103,-151,48,49,6,-84,-108,-95,-73
-171,-35,136,103,-153,50,57,-7,-106,-121,-112,-74
-168,-33,134,100,-151,51,56,6,-86,-101,-96,-62
-167,-32,135,99,-151,51,65,20,-85,-105,-98,-63
-161,-28,133,94,-147,52,77,46,-46,-94,-85,-52
-155,-33,122,94,-138,44,87,72,-14,-85,-82,-50
-146,-34,112,90,-129,39,94,116,16,-61,-75,-43
-141,-38,103,89,-122,32,101,169,69,-35,-68,-38
-120,-40,80,80,-100,20,115,227,117,-6,-58,-33
-96,-43,52,69,-74,4,122,297,177,27,-47,-27
-78,-46,32,62,-55,-7,118,350,229,59,-35,-21
-54,-41,13,47,-33,-14,113,402,283,98,-12,-17
-27,-35,-8,31,-9,-21,109,437,329,124,12,-8
-4,-30,-26,17,11,-27,105,444,363,145,31,6
-8,-23,-16,16,4,-19,88,424,353,158,55,21
-33,-20,13,26,-23,-4,59,322,271,144,55,22
-67,-20,47,43,-57,13,30,167,142,86,28,9
-96,-20,75,58,-85,27,23,51,27,22,-4,-2
-103,-20,83,61,-93,31,25,-20,-53,-24,-28,-13
-110,-20,90,65,-100,35,26,-61,-96,-59,-43,-27
-117,-20,97,68,-107,38,30,-79,-108,-73,-58,-35
-112,-20,91,66,-102,35,31,-82,-115,-76,-61,-35
-106,-20,86,62,-96,33,27,-80,-115,-78,-63,-36
-102,-21,81,62,-92,29,13,-76,-118,-81,-66,-40
-109,-34,75,71,-92,20,1,-75,-121,-85,-69,-40
-116,-46,70,81,-93,12,-13,-70,-121,-85,-70,-37
-115,-43,72,79,-94,14,-14,-71,-126,-86,-70,-35
-111,-35,75,72,-93,20,20,-74,-124,-84,-69,-31
-105,-30,75,67,-89,22,50,-82,-125,-86,-71,-30
-97,-21,75,58,-86,27,59,-91,-127,-84,-68,-24
-92,-18,74,54,-83,28,69,-92,-122,-85,-72,-26
-85,-10,76,47,-80,33,64,-102,-125,-86,-66,-31
-87,-8,79,47,-83,35,61,-94,-113,-83,-64,-41
-108,-2,106,55,-107,52,59,-100,-128,-90,-67,-40
-99,3,102,48,-101,52,51,-87,-112,-78,-60,-38
-94,3,97,46,-96,49,54,-94,-127,-95,-73,-44
-99,-5,94,52,-96,44,45,-83,-115,-73,-54,-34
-89,-11,78,50,-84,34,57,-84,-107,-87,-68,-43
-71,58,129,6,-101,94,77,-57,-89,-34,-7,7
-67,84,151,-9,-109,117,238,148,203,225,185,101
217,254,36,-235,90,145,58,204,715,1016,931,585
658,396,-262,-527,460,67,-710,166,1372,1708,1531,1053
499,170,-329,-334,413,-79,-914,-219,740,806,731,628
145,21,-124,-83,134,-51,-421,-487,-348,-139,15,130
44,8,-36,-26,40,-14,-54,-169,-200,-113,-18,-3
-33,-4,29,19,-31,12,45,-93,-124,-135,-92,-80
-44,-4,40,24,-42,18,53,-91,-158,-131,-94,-91
-61,-17,44,39,-52,13,55,-65,-126,-134,-117,-113
-82,-18,64,50,-73,23,47,-83,-166,-145,-124,-114
-85,-28,57,56,-71,14,48,-58,-134,-134,-129,-118
-84,-26,59,55,-71,16,39,-71,-148,-138,-131,-121
-77,-24,53,50,-65,15,44,-44,-121,-121,-122,-116
-81,-27,54,53,-67,13,58,-23,-118,-123,-125,-115
-68,-23,45,45,-56,11,68,21,-84,-106,-116,-110
-72,-33,39,52,-55,3,91,69,-50,-89,-112,-109
-77,-44,32,60,-54,-6,112,114,-13,-67,-101,-105
-72,-46,26,59,-49,-10,136,160,36,-56,-94,-104
-68,-38,30,53,-49,-4,151,214,74,-36,-82,-95
-35,-6,30,20,-32,12,159,286,145,9,-62,-85
-18,12,30,3,-25,21,163,343,203,39,-47,-75
-13,16,29,-2,-21,23,153,390,248,59,-30,-64
-6,25,31,-9,-19,28,141,432,293,86,-7,-51
3,29,27,-16,-12,28,132,445,298,89,8,-43
14,44,30,-29,-9,37,106,378,270,84,26,-45
-18,45,63,-13,-41,54,61,234,178,69,16,-46
-42,29,71,6,-57,50,38,95,55,19,-23,-49
-50,19,69,15,-60,44,24,-2,-31,-32,-41,-50
-69,6,75,31,-72,41,12,-65,-92,-71,-60,-53
-78,-3,75,40,-76,35,19,-99,-119,-92,-72,-56
-93,-17,75,54,-84,29,26,-100,-126,-99,-67,-59
-109,-35,74,71,-91,20,23,-102,-132,-106,-64,-59
-104,-28,76,65,-90,24,19,-112,-135,-109,-61,-54
-85,-12,73,48,-79,30,16,-108,-135,-110,-56,-55
-84,2,86,41,-85,44,11,-106,-130,-109,-56,-55
-90,12,102,39,-96,57,10,-103,-129,-110,-65,-55
-88,10,99,39,-93,55,28,-100,-124,-109,-75,-54
-95,7,103,44,-99,55,34,-99,-127,-113,-85,-59
-100,5,105,47,-103,55,22,-95,-143,-119,-93,-64
-103,2,105,50,-104,53,11,-95,-147,-116,-90,-60
-109,-1,109,55,-109,54,1,-95,-142,-115,-90,-60
-113,4,116,54,-115,60,0,-95,-140,-115,-90,-60
-114,5,119,54,-117,62,0,-95,-136,-115,-90,-60
-109,5,114,52,-112,60,0,-95,-135,-115,-90,-60
-106,10,116,47,-111,62,0,-96,-136,-115,-94,-57
-103,9,113,47,-108,61,0,-95,-135,-116,-96,-54
-98,11,110,44,-104,60,4,-96,-136,-116,-95,-51
-95,15,111,40,-104,62,6,-94,-133,-115,-95,-48
-91,15,106,38,-99,60,9,-98,-139,-115,-96,-46
-88,11,100,38,-94,55,11,-110,-146,-114,-93,-43
-87,4,92,41,-90,48,16,-110,-145,-111,-90,-40
-87,0,87,43,-87,43,13,-111,-145,-110,-85,-39
-85,-8,77,46,-80,34,10,-109,-139,-109,-83,-41
-86,-8,78,47,-82,34,10,-112,-142,-105,-79,-39
-86,-5,81,45,-83,38,10,-106,-138,-104,-73,-40
-82,-1,81,41,-81,40,11,-103,-151,-105,-85,-37
-82,-2,80,42,-80,39,8,-95,-140,-92,-83,-28
-87,-10,77,48,-82,33,16,-90,-136,-96,-81,-28
-84,-7,77,45,-81,35,13,-88,-132,-81,-64,-16
-89,-20,70,54,-79,25,18,-74,-115,-83,-66,-18
-96,-12,84,54,-90,35,12,-84,-129,-74,-49,-4
-87,-25,62,56,-75,18,17,-46,-97,-66,-48,-7
-86,30,117,28,-102,73,16,-68,-152,-72,-31,15
-70,104,174,-17,-123,139,96,79,57,114,106,84
98,211,113,-154,-8,162,105,270,578,754,654,420
608,437,-171,-522,389,132,-539,388,1458,1797,1570,1060
752,293,-459,-522,605,-83,-1070,211,1457,1472,1266,968
318,37,-282,-177,300,-122,-709,-390,-11,91,197,331
95,-7,-102,-44,98,-54,-233,-330,-384,-200,-64,56
15,-38,-53,12,34,-45,-77,-101,-140,-114,-90,-34
-37,-37,0,37,-18,-18,-36,-140,-240,-168,-129,-65
-35,-56,-21,46,-7,-38,2,-80,-166,-152,-132,-83
-39,-55,-16,47,-11,-35,23,-87,-200,-169,-141,-95
-50,-55,-5,53,-22,-30,39,-39,-154,-140,-118,-87
-85,-62,23,73,-54,-19,60,-23,-140,-142,-120,-92
-84,-59,25,71,-55,-16,70,-7,-120,-125,-107,-88
-80,-56,24,67,-52,-16,73,14,-99,-119,-112,-91
-54,-27,26,40,-40,0,77,32,-93,-111,-109,-89
-38,-14,24,25,-30,5,80,64,-60,-100,-109,-85
-37,-11,26,24,-32,7,83,87,-42,-91,-111,-85
-23,-5,18,14,-21,6,89,123,-9,-76,-106,-83
-16,-3,13,9,-14,5,92,155,17,-59,-95,-80
0,5,5,-3,-3,5,97,221,77,-29,-82,-80
19,18,-1,-18,10,8,110,286,132,-8,-69,-78
29,21,-7,-25,18,7,130,345,179,13,-55,-69
32,19,-13,-25,23,3,128,398,223,32,-42,-63
40,20,-20,-30,30,0,114,411,244,48,-28,-57
66,37,-29,-51,47,4,98,398,245,51,-14,-43
57,49,-8,-53,32,20,51,307,188,35,-10,-32
23,47,23,-35,0,35,12,164,89,19,-9,-36
-3,38,41,-18,-23,40,-2,56,-5,-14,-15,-39
-25,25,51,0,-38,38,-7,-22,-77,-55,-38,-40
-35,14,49,10,-42,32,-2,-74,-129,-83,-61,-57
-45,6,51,19,-48,28,0,-93,-153,-104,-78,-73
-52,-5,47,28,-49,21,10,-102,-160,-117,-93,-82
-48,-10,38,29,-43,14,12,-112,-165,-113,-91,-83
-51,-25,27,38,-39,1,20,-107,-155,-124,-98,-81
-55,-37,19,46,-37,-9,13,-114,-167,-133,-99,-75
-45,-35,10,40,-27,-12,-8,-105,-151,-125,-96,-73
-39,-34,5,36,-21,-14,-9,-115,-170,-137,-98,-70
-23,-27,-4,25,-10,-15,-29,-105,-150,-121,-89,-61
-19,-32,-13,25,-3,-22,-12,-104,-167,-141,-104,-72
-9,-18,-9,14,1,-13,-22,-95,-159,-119,-83,-56
-20,-24,-4,22,-8,-14,8,-83,-143,-136,-106,-76
-26,19,45,3,-35,31,17,-53,-120,-79,-51,-53
13,82,69,-48,-28,75,65,217,316,268,170,53
308,310,1,-309,153,155,-84,237,892,1141,985,598
714,478,-236,-596,475,121,-776,-191,1098,1598,1512,1077
521,194,-327,-357,424,-66,-857,-733,34,324,526,562
195,79,-115,-137,155,-18,-343,-633,-653,-378,-80,129
105,60,-45,-82,75,7,-88,-117,-132,-50,6,34
1,-49,-50,24,26,-49,16,-89,-142,-138,-98,-92
-14,-44,-29,29,8,-36,22,-80,-152,-133,-91,-79
-22,-58,-36,40,7,-47,36,-58,-120,-156,-134,-117
-24,-60,-36,43,6,-48,45,-69,-153,-159,-132,-114
-36,-84,-48,60,6,-66,43,-41,-112,-148,-136,-114
-41,-88,-48,65,4,-68,49,-52,-142,-162,-143,-121
-28,-82,-54,55,13,-67,57,-23,-110,-151,-129,-117
-27,-82,-55,55,14,-68,72,-4,-111,-166,-133,-123
-17,-75,-59,46,21,-66,86,40,-68,-131,-121,-112
-13,-73,-60,43,24,-67,97,84,-30,-114,-123,-110
-9,-69,-60,39,26,-64,96,116,-2,-94,-114,-103
-23,-82,-59,53,18,-71,101,156,39,-82,-112,-98
-14,-79,-66,47,26,-72,104,222,91,-47,-103,-93
18,-69,-87,26,53,-78,105,294,161,0,-74,-84
34,-61,-95,14,65,-78,112,346,220,38,-44,-63
45,-53,-97,5,71,-75,125,394,269,72,-22,-43
57,-45,-102,-6,80,-73,128,429,308,101,-4,-31
57,-40,-97,-9,77,-68,122,432,332,129,23,-17
56,-40,-96,-8,76,-68,113,395,324,134,48,-12
48,-40,-88,-3,68,-64,104,272,223,102,32,-6
10,-40,-50,16,30,-44,92,123,88,39,3,0
-12,-40,-28,26,8,-34,81,28,-17,-20,-24,-16
-9,-40,-31,25,11,-36,68,-26,-83,-58,-54,-37
-4,-33,-28,19,12,-30,37,-75,-118,-91,-75,-51
-12,-37,-25,25,6,-30,-5,-117,-155,-116,-83,-61
-21,-47,-26,34,3,-36,-42,-121,-162,-121,-86,-59
-23,-45,-22,34,0,-33,-35,-116,-156,-120,-90,-62
-24,-44,-20,34,-2,-31,-11,-114,-155,-121,-86,-65
-20,-40,-20,30,0,-30,1,-109,-149,-120,-81,-65
-23,-40,-17,32,-3,-28,15,-106,-146,-121,-79,-63
-27,-41,-14,35,-6,-27,28,-101,-141,-117,-74,-56
-30,-45,-15,38,-7,-30,39,-86,-126,-104,-70,-51
-23,-46,-23,35,0,-34,53,-74,-114,-93,-70,-45
-16,-44,-28,30,6,-35,70,-74,-113,-84,-69,-40
-27,-46,-19,37,-3,-33,76,-77,-117,-86,-71,-41
-32,-43,-11,38,-10,-27,80,-83,-121,-84,-69,-39
-40,-48,-8,44,-15,-28,73,-81,-120,-85,-71,-41
-57,-48,9,52,-33,-20,58,-92,-129,-86,-70,-39
-61,-52,9,56,-35,-21,43,-100,-124,-85,-74,-40
-62,-49,14,56,-38,-18,5,-123,-149,-111,-81,-43
-57,-50,6,53,-32,-22,-27,-128,-148,-115,-79,-49
-61,-51,9,56,-35,-21,-36,-125,-158,-125,-91,-53
-47,-43,4,44,-25,-19,-42,-117,-143,-101,-65,-45
-46,-44,2,45,-24,-21,-14,-99,-131,-115,-82,-57
-43,22,65,10,-54,43,21,-76,-133,-76,-41,-20
13,59,46,-36,-17,52,142,158,168,175,159,94
242,215,-27,-228,134,94,71,281,719,968,916,596
633,377,-256,-505,444,60,-557,216,1408,1782,1611,1112
519,227,-293,-373,406,-33,-862,-164,894,998,886,749
141,75,-66,-108,103,5,-439,-496,-257,-72,56,183
34,4,-30,-19,32,-13,-89,-203,-214,-110,-23,29
-54,-32,22,43,-38,-5,-7,-77,-107,-91,-60,-12
-87,-28,59,57,-73,16,14,-87,-156,-109,-61,-36
-77,-32,45,54,-61,6,15,-45,-103,-120,-87,-54
-74,-28,45,51,-60,8,15,-62,-135,-131,-97,-56
-60,-31,29,45,-45,-1,15,-31,-96,-120,-92,-59
-58,-30,28,44,-43,0,14,-36,-105,-128,-101,-63
-47,-40,7,43,-27,-17,17,-15,-80,-115,-97,-63
-41,-66,-25,54,-8,-45,27,2,-74,-124,-102,-69
-33,-75,-42,54,5,-58,47,39,-51,-111,-94,-70
-29,-68,-39,48,6,-53,74,77,-8,-93,-90,-67
-25,-65,-40,45,8,-52,104,127,35,-74,-82,-63
-23,-59,-36,41,7,-47,120,182,68,-62,-76,-60
-27,-56,-29,42,1,-42,110,220,96,-44,-69,-56
-18,-44,-26,31,4,-34,102,257,145,-22,-60,-53
1,-18,-19,9,10,-18,98,295,184,-3,-51,-48
17,3,-14,-10,15,-5,93,346,233,20,-38,-43
30,21,-9,-25,19,6,86,367,265,44,-25,-42
42,42,0,-42,21,21,83,373,271,76,7,-17
45,54,8,-50,18,31,72,322,251,84,30,7
26,43,17,-35,4,30,57,211,173,62,20,-1
12,36,24,-24,-6,30,60,105,77,24,7,-8
-2,23,25,-11,-14,24,60,27,8,-21,-6,-13
-40,-15,25,27,-32,4,62,-19,-38,-58,-31,-28
-64,-39,25,51,-44,-6,65,-55,-72,-82,-51,-40
-59,-34,25,46,-41,-4,66,-77,-90,-91,-51,-40
-54,-29,26,41,-40,-1,54,-85,-93,-94,-49,-41
-54,-24,30,39,-41,2,33,-93,-98,-92,-43,-45
-47,-17,30,32,-38,6,30,-93,-107,-89,-54,-45
-47,-13,34,29,-40,10,30,-86,-105,-86,-79,-45
-42,-7,35,24,-38,14,30,-81,-98,-83,-84,-45
-42,-5,37,23,-39,16,30,-76,-94,-80,-85,-45
-46,-5,41,26,-43,17,30,-70,-88,-81,-85,-45
-41,-1,40,21,-40,19,33,-66,-82,-85,-85,-45
-44,0,44,21,-44,21,36,-70,-82,-85,-86,-45
-45,0,46,22,-45,22,39,-70,-86,-85,-82,-52
-52,-8,44,30,-48,18,41,-71,-85,-85,-80,-62
-55,-15,40,35,-47,12,45,-76,-85,-85,-80,-66
-56,-16,40,36,-47,12,44,-75,-85,-82,-80,-69
-53,-14,39,33,-45,12,33,-78,-86,-79,-80,-73
-51,-16,35,33,-42,9,20,-81,-89,-76,-80,-75
-63,-28,35,45,-48,3,11,-80,-92,-73,-80,-71
-51,-14,37,32,-44,12,6,-80,-94,-70,-80,-70
-42,3,44,19,-43,23,1,-79,-98,-70,-80,-70
-45,5,50,20,-48,27,-2,-81,-100,-78,-80,-70
-45,12,57,16,-51,34,-8,-84,-102,-76,-80,-70
-38,17,55,11,-47,36,-9,-87,-105,-75,-77,-72
-25,23,48,0,-36,36,-5,-90,-105,-75,-75,-76
-21,23,44,-1,-33,33,-5,-93,-105,-71,-74,-78
-22,15,37,3,-30,26,-5,-96,-105,-70,-70,-82
-24,9,33,7,-29,21,-5,-92,-106,-72,-70,-84
-24,2,27,11,-26,14,-5,-89,-110,-89,-82,-86
-24,-4,19,14,-21,7,-8,-90,-118,-97,-87,-89
-22,-9,13,15,-17,1,-14,-90,-120,-93,-81,-90
-32,-27,5,30,-18,-11,-14,-90,-120,-97,-81,-90
-40,-42,-2,41,-18,-22,-9,-91,-124,-93,-75,-89
-27,-36,-10,32,-8,-23,-3,-93,-124,-97,-76,-91
-25,-28,-3,27,-11,-15,0,-98,-127,-99,-77,-87
-24,-24,0,24,-12,-11,4,-97,-126,-100,-83,-81
-25,-14,11,19,-18,-1,11,-106,-133,-100,-85,-74
-35,-12,24,23,-29,6,4,-102,-118,-90,-74,-67
-42,-3,38,22,-40,17,2,-109,-132,-102,-72,-62
-34,-1,33,17,-33,15,-8,-102,-115,-83,-54,-53
-33,3,36,14,-34,19,-9,-106,-123,-99,-58,-52
-27,11,38,8,-33,24,-19,-107,-121,-80,-31,-35
-10,16,27,-3,-19,21,-40,-93,-105,-89,-39,-34
-10,100,110,-45,-60,105,-42,-77,-105,-50,-13,-2
16,141,125,-79,-55,133,51,185,263,284,229,123
246,294,48,-270,99,171,-27,292,838,1184,1080,675
645,463,-182,-554,413,141,-654,157,1514,2149,1896,1282
564,261,-303,-412,433,-21,-928,-192,986,1273,1097,883
164,4,-160,-84,162,-78,-488,-497,-269,-72,64,199
50,-57,-107,4,78,-82,-139,-197,-220,-111,-42,21
10,-39,-49,15,29,-43,-11,-39,-89,-61,-78,-27
-17,-38,-21,28,2,-29,22,-72,-154,-91,-85,-61
-13,-42,-30,28,9,-36,15,-34,-90,-111,-118,-93
-27,-48,-21,38,-3,-34,13,-51,-132,-130,-138,-97
-25,-54,-28,40,2,-41,6,-27,-88,-106,-124,-93
-23,-46,-23,35,0,-34,4,-32,-97,-121,-135,-93
-22,-47,-25,35,2,-36,-1,-17,-70,-104,-122,-88
-22,-41,-19,32,-1,-30,11,5,-59,-112,-128,-91
-20,-41,-20,30,0,-30,15,26,-33,-104,-123,-83
-17,-38,-20,27,2,-29,30,63,6,-94,-115,-79
-11,-31,-20,21,5,-25,59,117,36,-62,-99,-74
-4,-24,-20,14,8,-22,79,173,91,-34,-87,-67
8,-17,-25,5,17,-21,109,229,141,-8,-79,-63
19,-11,-30,-4,24,-20,129,292,195,23,-69,-57
42,-4,-47,-19,45,-25,122,340,243,42,-62,-52
46,-18,-64,-14,56,-41,114,381,285,74,-47,-45
44,-28,-71,-8,58,-49,106,412,316,93,-33,-41
72,-14,-86,-29,80,-50,94,421,317,101,-19,-35
79,-2,-82,-38,81,-42,70,394,313,114,-9,-19
74,7,-68,-40,71,-30,34,315,284,118,16,3
74,16,-58,-45,66,-21,3,199,186,95,36,23
64,16,-48,-40,56,-15,-1,86,85,53,18,13
39,-1,-40,-19,40,-20,1,14,7,11,-2,-13
8,-22,-31,7,20,-26,-4,-31,-48,-34,-27,-27
-3,-24,-21,14,9,-22,-5,-58,-76,-53,-46,-35
-6,-14,-8,11,1,-11,-5,-70,-94,-65,-58,-45
-11,-7,3,9,-7,-2,2,-78,-97,-82,-67,-52
-14,2,16,6,-15,8,13,-73,-91,-80,-64,-50
-24,3,27,10,-26,15,22,-66,-86,-80,-65,-50
-28,-4,24,16,-25,9,33,-59,-83,-77,-61,-47
-22,-11,12,16,-17,0,37,-52,-77,-74,-59,-44
-23,-17,5,20,-14,-6,35,-46,-76,-76,-62,-46
-29,-24,5,26,-17,-10,35,-41,-80,-79,-64,-45
-35,-30,5,32,-20,-12,35,-40,-80,-81,-68,-45
-29,-24,5,26,-17,-9,35,-41,-82,-80,-70,-45
-23,-18,5,20,-14,-6,35,-39,-86,-80,-73,-45
-16,-11,5,13,-10,-2,40,-43,-85,-80,-76,-45
-18,-5,13,11,-15,4,40,-60,-82,-80,-68,-43
-31,4,35,13,-33,19,41,-68,-80,-80,-52,-38
-26,21,47,2,-37,34,46,-63,-80,-80,-42,-35
-25,20,45,2,-35,32,44,-56,-80,-80,-38,-32
-32,13,45,9,-39,29,48,-49,-80,-80,-51,-27
-36,9,45,13,-41,27,51,-42,-81,-79,-61,-26
-43,2,45,20,-44,23,56,-36,-85,-76,-59,-29
-47,-2,45,24,-46,21,66,-38,-84,-73,-60,-32
-56,-9,47,32,-51,19,61,-43,-87,-70,-60,-35
-71,-21,50,46,-61,15,54,-46,-90,-68,-60,-37
-85,-32,53,58,-69,10,48,-53,-90,-64,-56,-41
-85,-29,56,56,-70,13,40,-59,-93,-68,-55,-38
-75,-16,59,46,-67,21,35,-64,-98,-70,-55,-33
-73,-13,60,43,-66,23,28,-66,-101,-70,-50,-30
-69,-15,54,42,-61,19,21,-71,-106,-70,-50,-27
-62,-15,48,38,-54,16,14,-76,-111,-70,-51,-22
-56,-15,41,35,-48,13,6,-78,-113,-70,-58,-19
-60,-25,34,42,-47,4,-1,-88,-123,-75,-63,-27
-69,-42,27,55,-48,-7,-8,-92,-127,-93,-73,-28
-68,-50,18,59,-43,-16,-14,-90,-124,-99,-83,-24
-57,-50,7,53,-32,-21,-19,-90,-125,-94,-80,-25
-48,-50,-2,49,-23,-26,-25,-85,-120,-95,-77,-21
-48,-50,-1,49,-24,-25,-29,-85,-120,-95,-75,-20
-54,-50,4,52,-29,-23,-20,-84,-119,-95,-71,-20
-55,-49,6,51,-30,-21,-4,-80,-114,-96,-70,-15
-52,-41,11,47,-31,-15,3,-78,-111,-95,-67,-11
-48,-34,14,41,-31,-10,-2,-75,-108,-96,-65,-7
-45,-27,18,36,-31,-4,-8,-71,-103,-94,-65,0
-55,-28,27,42,-41,-1,-11,-69,-101,-96,-65,-4
-56,-30,26,43,-41,-2,-17,-76,-103,-94,-64,-16
-55,-30,24,42,-40,-2,-19,-97,-121,-97,-66,-36
-54,-30,25,41,-39,-2,-16,-120,-143,-121,-82,-62
-49,-30,19,40,-34,-6,-13,-117,-137,-128,-93,-76
-52,-31,21,41,-36,-5,-10,-114,-139,-121,-87,-77
-56,-35,21,45,-38,-7,-8,-104,-130,-115,-84,-74
-74,-47,27,60,-50,-10,-4,-103,-134,-115,-83,-72
-74,-50,24,62,-49,-12,-4,-92,-126,-103,-73,-67
-73,-48,25,60,-48,-12,6,-77,-121,-108,-78,-68
-68,-41,27,54,-47,-7,7,-68,-112,-91,-62,-60
-67,-46,21,56,-44,-12,17,-53,-92,-87,-66,-60
-70,-32,37,51,-54,3,18,-69,-112,-76,-50,-45
-51,-33,18,42,-34,-8,4,-39,-79,-59,-49,-46
-45,17,62,14,-53,39,-8,-66,-130,-81,-42,-29
-30,79,110,-25,-70,95,77,79,88,98,92,39
116,205,89,-160,13,147,85,218,561,754,681,409
553,450,-103,-501,328,173,-507,163,1302,1877,1691,1106
655,346,-309,-500,482,18,-972,-30,1329,1615,1407,1026
260,114,-147,-187,203,-16,-633,-442,22,159,267,342
69,49,-20,-59,44,14,-195,-292,-303,-173,-15,50
-16,2,18,7,-17,10,-21,-31,-34,-92,-37,-32
-72,-3,69,37,-70,32,29,-56,-109,-141,-74,-68
-60,-22,38,41,-49,8,51,9,-38,-103,-72,-76
-47,-34,13,40,-30,-10,49,-5,-77,-132,-98,-77
-21,-44,-24,33,2,-34,41,14,-52,-111,-92,-73
-25,-50,-25,38,0,-37,40,15,-57,-119,-107,-77
-2,-42,-40,22,19,-40,32,20,-57,-106,-101,-73
6,-37,-42,16,24,-39,31,37,-43,-104,-111,-77
2,-28,-30,14,16,-29,36,33,-46,-99,-108,-81
5,-23,-28,9,17,-25,49,71,-23,-91,-102,-81
3,-16,-18,7,11,-17,71,109,0,-88,-96,-80
10,-11,-21,0,16,-16,89,151,48,-66,-88,-79
13,-4,-17,-4,15,-10,101,201,91,-49,-84,-75
17,2,-15,-9,16,-6,113,255,142,-25,-69,-75
21,9,-12,-15,16,-1,135,328,212,23,-46,-72
25,16,-10,-21,17,3,146,407,290,74,-20,-52
42,21,-21,-31,31,0,137,464,341,103,0,-36
65,26,-39,-45,52,-6,129,491,368,117,9,-24
71,23,-48,-47,59,-12,122,490,379,111,21,-12
76,35,-41,-55,58,-3,112,428,347,98,28,-10
80,46,-34,-63,57,6,75,300,248,94,18,-6
62,35,-27,-48,45,3,45,162,123,55,6,-5
46,25,-21,-35,33,1,43,44,14,-11,-12,-13
23,13,-10,-18,16,1,39,-36,-62,-59,-42,-36
-2,1,3,0,-2,2,36,-73,-102,-88,-60,-56
-15,-10,5,12,-10,-2,31,-77,-122,-102,-70,-63
-25,-21,5,23,-15,-8,31,-75,-125,-105,-81,-62
-34,-28,5,31,-19,-11,38,-75,-125,-105,-82,-55
-43,-38,5,40,-24,-16,44,-71,-125,-103,-79,-50
-49,-44,5,46,-27,-19,39,-69,-125,-100,-80,-45
-50,-39,11,44,-30,-14,22,-72,-125,-100,-80,-38
-50,-33,16,41,-33,-9,11,-84,-132,-102,-79,-37
-53,-30,23,41,-38,-3,-1,-93,-143,-107,-82,-39
-48,-25,23,36,-35,-1,-10,-98,-145,-110,-85,-43
-40,-20,19,30,-29,0,-18,-101,-146,-115,-87,-45
-44,-23,20,34,-32,-1,-26,-100,-151,-123,-90,-49
-52,-32,20,42,-36,-6,-34,-101,-149,-123,-93,-50
-54,-34,20,44,-36,-7,-38,-100,-146,-118,-102,-46
-50,-30,21,40,-35,-4,-15,-101,-144,-116,-104,-45
-50,-26,24,37,-37,-1,7,-99,-141,-113,-99,-46
-52,-23,30,37,-41,3,20,-95,-138,-107,-93,-45
-46,-18,28,32,-37,4,35,-95,-134,-106,-90,-46
-36,-15,22,25,-28,3,31,-93,-136,-109,-85,-43
-34,-18,16,26,-25,-1,24,-89,-134,-110,-80,-40
-34,-23,12,28,-23,-5,17,-91,-136,-110,-83,-35
-28,-24,4,26,-16,-10,9,-85,-134,-110,-85,-33
-21,-20,1,20,-11,-9,3,-86,-136,-111,-90,-29
-25,-20,5,22,-15,-7,2,-106,-146,-111,-90,-24
-32,-19,12,25,-22,-4,7,-124,-171,-130,-97,-30
-32,-12,20,22,-26,4,3,-127,-178,-129,-91,-28
-42,-19,23,31,-32,2,12,-120,-169,-130,-92,-33
-43,-6,37,24,-40,15,8,-132,-191,-131,-89,-38
-39,-9,30,24,-34,10,13,-115,-166,-126,-89,-44
-34,8,42,13,-38,25,17,-137,-192,-137,-93,-38
-23,4,27,9,-25,15,22,-110,-154,-111,-83,-41
-38,25,63,6,-51,44,29,-123,-189,-126,-92,-37
-38,129,167,-45,-103,148,66,-54,-109,-23,-1,23
24,211,187,-118,-82,198,193,167,330,420,373,242
439,455,16,-447,211,236,-290,311,1185,1580,1374,900
790,458,-332,-623,560,63,-1042,392,1880,2073,1703,1177
485,157,-328,-321,406,-86,-886,-122,684,717,640,597
173,41,-132,-107,152,-45,-335,-358,-344,-146,26,156
84,8,-76,-46,80,-34,-70,-60,-99,-66,-5,35
9,-16,-25,4,17,-21,0,-75,-172,-103,-78,-30
-28,-53,-25,41,-2,-39,30,-49,-149,-99,-97,-56
-52,-65,-13,59,-20,-39,50,-54,-145,-137,-138,-88
-50,-57,-7,54,-21,-32,48,-60,-160,-136,-132,-89
-57,-59,-3,58,-27,-30,51,-48,-136,-142,-136,-94
-60,-52,8,56,-34,-22,49,-63,-156,-143,-135,-96
-59,-52,7,55,-33,-22,50,-41,-137,-129,-134,-99
-51,-48,3,50,-27,-23,50,-33,-139,-132,-137,-101
-39,-46,-7,43,-15,-27,56,6,-92,-116,-123,-92
-28,-39,-12,34,-8,-25,73,48,-56,-92,-111,-86
-14,-36,-22,25,4,-28,91,103,0,-61,-96,-76
-4,-31,-27,17,12,-29,112,164,49,-34,-77,-70
6,-27,-34,11,20,-30,131,237,111,3,-52,-59
29,-19,-48,-5,39,-33,147,323,202,54,-23,-37
54,6,-49,-30,51,-21,157,400,282,111,14,-18
77,35,-42,-56,59,-3,146,465,348,156,37,2
90,51,-39,-71,64,6,132,502,390,181,53,12
76,43,-33,-59,55,4,113,497,401,171,60,22
63,33,-29,-48,46,2,83,427,363,157,47,36
47,26,-21,-36,34,2,44,280,249,127,43,36
22,15,-8,-18,15,3,19,128,101,49,24,23
4,5,2,-5,1,4,20,14,-24,-25,-20,-4
-33,-26,7,29,-20,-9,20,-57,-104,-82,-57,-34
-65,-56,10,60,-37,-23,20,-94,-146,-115,-82,-56
-56,-53,3,54,-30,-25,21,-103,-157,-115,-83,-68
-43,-47,-4,45,-19,-26,18,-99,-154,-115,-79,-65
-33,-44,-11,39,-10,-27,15,-99,-155,-113,-81,-65
-26,-38,-12,33,-7,-25,15,-94,-150,-109,-76,-64
-39,-35,4,37,-21,-15,15,-96,-149,-110,-75,-60
-46,-30,16,38,-31,-7,15,-112,-152,-113,-75,-60
-43,-27,16,34,-29,-5,15,-116,-155,-117,-79,-62
-38,-23,15,30,-26,-4,19,-114,-155,-120,-82,-66
-31,-20,11,26,-21,-4,26,-116,-157,-123,-86,-64
-24,-15,10,19,-17,-2,33,-115,-161,-126,-89,-69
-28,-20,7,24,-17,-6,39,-116,-160,-135,-93,-70
-30,-44,-13,37,-8,-28,46,-111,-157,-137,-102,-70
-30,-55,-25,43,-2,-40,49,-105,-149,-131,-101,-77
-30,-55,-25,43,-2,-40,38,-100,-143,-127,-100,-76
-30,-55,-25,43,-2,-40,25,-94,-136,-122,-99,-69
-30,-55,-25,43,-2,-40,14,-88,-129,-117,-95,-66
-30,-55,-25,43,-2,-40,1,-86,-125,-115,-96,-61
-31,-53,-22,42,-4,-38,-9,-91,-126,-116,-94,-57
-32,-46,-14,39,-9,-30,-21,-96,-126,-115,-88,-55
-32,-39,-8,36,-12,-23,-19,-99,-124,-115,-85,-55
-31,-33,-1,32,-15,-17,-6,-105,-135,-115,-82,-55
-33,-25,8,29,-20,-9,5,-106,-141,-114,-76,-55
-36,-20,16,28,-26,-2,12,-102,-139,-119,-76,-55
-40,-14,26,27,-33,5,15,-101,-141,-121,-66,-55
-44,-16,27,30,-35,5,21,-95,-138,-125,-74,-60
-38,-12,25,24,-31,6,24,-96,-143,-129,-94,-60
-35,-11,24,23,-30,6,22,-99,-141,-130,-96,-60
-32,-9,23,20,-27,7,18,-119,-160,-138,-100,-60
-31,-13,18,22,-24,2,12,-113,-161,-131,-100,-60
-44,-23,21,33,-33,-1,14,-110,-176,-140,-108,-59
-40,-28,13,34,-26,-7,2,-104,-166,-125,-99,-52
-48,-43,5,45,-26,-19,11,-90,-154,-130,-101,-58
-25,-23,2,24,-13,-10,5,-101,-165,-116,-83,-51
-23,-24,-1,23,-10,-13,19,-64,-124,-112,-88,-59
-66,19,84,23,-75,51,34,-83,-178,-116,-58,-29
-54,76,130,-11,-92,103,148,95,78,102,104,65
150,232,82,-191,33,157,92,251,639,835,752,481
631,428,-203,-530,417,112,-663,372,1578,1927,1673,1102
677,248,-429,-462,553,-90,-1079,206,1485,1482,1240,928
249,32,-217,-140,233,-93,-629,-359,-16,73,196,297
43,-7,-51,-18,47,-29,-184,-219,-271,-156,-22,41
-42,-27,14,34,-28,-7,-20,-19,-63,-76,-63,-45
-86,-32,54,59,-69,10,25,-52,-155,-124,-91,-84
-93,-46,47,70,-70,0,62,15,-70,-110,-88,-100
-105,-45,60,75,-82,7,71,-8,-120,-139,-104,-107
-112,-60,52,85,-82,-4,69,27,-83,-130,-109,-103
-127,-71,56,98,-91,-7,71,23,-99,-148,-128,-107
-130,-75,54,102,-92,-10,69,39,-90,-131,-116,-104
-135,-80,55,107,-95,-12,70,47,-86,-127,-118,-106
-130,-76,54,103,-92,-11,74,66,-78,-118,-112,-103
-119,-73,46,96,-82,-13,85,99,-48,-110,-108,-98
-104,-69,36,86,-70,-16,87,131,-24,-94,-106,-95
-119,-60,59,89,-88,-1,91,191,38,-63,-97,-91
-127,-50,78,88,-102,13,89,219,78,-40,-78,-87
-108,-40,67,74,-87,13,102,285,140,-4,-56,-85
-88,-24,64,56,-76,20,126,371,220,34,-38,-75
-60,-2,58,31,-59,28,147,436,289,78,-16,-59
-34,17,52,8,-43,34,159,507,358,124,12,-47
-15,38,52,-12,-34,45,150,542,402,159,37,-27
-3,56,59,-27,-32,57,146,537,409,172,55,-14
-12,53,65,-21,-39,59,117,458,351,162,52,-11
-41,35,76,3,-59,55,78,302,215,116,43,-6
-60,21,81,20,-71,51,73,165,87,49,27,-7
-68,12,80,28,-74,46,66,80,2,-6,-7,-14
-73,6,79,33,-76,42,58,41,-52,-47,-26,-19
-89,-1,88,45,-88,43,50,15,-81,-58,-43,-24
-120,-8,112,64,-116,52,47,-20,-107,-66,-52,-31
-147,-13,133,80,-140,60,51,-42,-129,-85,-48,-34
-165,-19,146,92,-155,63,50,-39,-130,-88,-54,-31
-165,-19,145,91,-155,62,50,-34,-130,-85,-61,-29
-167,-23,145,95,-156,61,50,-29,-130,-85,-59,-30
-170,-25,145,97,-157,60,50,-23,-131,-85,-56,-30
-171,-26,145,98,-158,60,53,-17,-128,-84,-53,-29
-166,-31,135,98,-150,51,62,-12,-126,-86,-51,-33
-140,-28,112,84,-126,42,68,-8,-123,-86,-48,-34
-132,-32,100,82,-116,34,80,-2,-118,-95,-63,-38
-122,-27,96,74,-109,34,87,-2,-120,-94,-62,-38
-125,-40,85,83,-105,22,85,10,-109,-106,-69,-41
-133,-51,82,91,-107,15,70,-34,-131,-108,-78,-34
-117,-48,69,82,-93,10,52,-82,-118,-99,-78,-34
-107,-38,69,72,-88,15,38,-130,-131,-106,-75,-31
-89,-32,57,60,-73,12,28,-141,-113,-86,-63,-25
-71,-14,57,42,-64,21,45,-124,-112,-105,-73,-30
-66,55,121,6,-94,88,39,-99,-90,-70,-48,-14
-31,121,152,-45,-91,136,165,59,201,216,187,137
380,437,57,-409,161,247,-177,72,947,1347,1231,829
725,552,-173,-638,449,189,-916,-142,1465,1869,1668,1184
403,202,-201,-302,302,0,-783,-510,405,541,566,568
121,37,-84,-79,102,-23,-260,-486,-378,-208,-16,118
50,-10,-60,-20,55,-35,-38,-152,-103,-111,-13,9
-38,-60,-22,49,-8,-41,42,-141,-154,-167,-101,-59
-57,-75,-18,66,-20,-46,55,-132,-131,-131,-107,-67
-74,-84,-10,79,-32,-47,70,-120,-125,-153,-135,-87
-71,-72,-1,72,-35,-36,62,-123,-136,-142,-120,-86
-77,-75,2,76,-39,-36,66,-106,-113,-141,-126,-89
-71,-67,4,68,-37,-31,65,-105,-119,-140,-120,-83
-60,-66,-6,63,-26,-36,65,-72,-85,-131,-118,-81
-54,-61,-7,58,-23,-34,71,-63,-92,-134,-125,-79
-46,-59,-13,53,-16,-36,69,-46,-70,-123,-125,-75
-44,-61,-17,53,-13,-39,71,-26,-60,-126,-123,-74
-37,-59,-22,48,-8,-40,69,14,-31,-111,-115,-70
-27,-63,-36,46,4,-49,71,66,5,-95,-112,-68
-4,-77,-73,41,35,-75,67,124,45,-71,-104,-65
20,-92,-112,36,66,-101,64,184,99,-54,-100,-61
42,-85,-127,21,85,-106,66,239,147,-25,-89,-61
74,-60,-134,-7,104,-97,64,292,202,12,-64,-53
101,-32,-133,-34,117,-82,78,337,255,42,-37,-32
109,-15,-124,-47,116,-69,88,336,270,66,-11,-4
100,4,-96,-52,98,-46,75,276,243,55,1,6
72,16,-56,-44,63,-20,64,173,161,42,-6,-5
46,10,-36,-27,41,-13,52,44,48,16,-14,-13
26,0,-26,-13,26,-12,39,-42,-29,-36,-34,-22
16,-6,-22,-4,19,-14,25,-87,-80,-67,-58,-31
12,-15,-27,2,20,-21,11,-118,-117,-93,-73,-46
6,-22,-29,8,18,-25,-1,-127,-137,-117,-86,-64
7,-25,-32,9,20,-28,-19,-137,-151,-125,-90,-71
-2,-37,-35,20,17,-36,-28,-152,-159,-127,-90,-74
-11,-45,-34,29,12,-40,-21,-151,-160,-135,-90,-83
-24,-52,-28,38,2,-40,-16,-149,-160,-143,-90,-87
-24,-44,-21,34,-1,-32,-11,-150,-160,-138,-90,-84
-11,-25,-14,18,2,-19,-5,-150,-160,-135,-88,-85
-16,-23,-7,20,-4,-15,0,-151,-159,-132,-85,-85
-18,-19,-1,18,-8,-10,6,-148,-154,-127,-86,-85
-13,-16,-3,15,-5,-9,9,-143,-149,-126,-83,-87
-5,-11,-7,8,1,-9,15,-137,-145,-129,-80,-90
1,-11,-12,5,7,-11,12,-134,-140,-132,-80,-90
-2,-20,-18,12,8,-19,0,-128,-134,-135,-84,-90
-7,-30,-22,19,8,-26,-12,-125,-142,-137,-91,-90
-12,-41,-29,26,9,-35,-22,-130,-155,-141,-100,-90
-8,-42,-34,25,13,-37,-20,-139,-167,-138,-102,-87
-7,-39,-32,23,12,-35,-12,-141,-168,-132,-96,-84
-12,-36,-24,24,6,-30,-6,-147,-172,-131,-92,-81
-12,-33,-21,23,5,-27,1,-143,-167,-125,-86,-78
-16,-30,-14,23,-1,-22,4,-146,-172,-125,-84,-76
-22,-30,-8,26,-7,-19,-4,-146,-169,-116,-76,-72
-31,-37,-6,34,-12,-22,-3,-142,-165,-118,-78,-71
-26,-37,-11,32,-8,-24,-11,-146,-170,-112,-72,-63
-24,-39,-15,32,-4,-27,-11,-126,-155,-110,-75,-65
-23,-26,-3,25,-10,-14,-16,-144,-181,-111,-68,-56
-17,-25,-8,22,-4,-16,-27,-110,-143,-97,-69,-57
-25,16,41,4,-33,28,-33,-135,-196,-112,-67,-45
-12,68,80,-28,-46,74,41,4,-33,30,42,18
115,156,41,-136,37,98,122,246,462,575,519,309
558,373,-185,-466,372,94,-390,345,1308,1637,1450,935
766,335,-431,-550,598,-48,-977,249,1586,1639,1364,981
367,74,-293,-220,330,-109,-758,-339,246,294,312,359
66,-38,-104,-14,85,-71,-258,-367,-362,-186,-44,37
-5,-37,-32,21,14,-35,-24,-50,-75,-89,-45,-19
-28,-25,3,27,-15,-11,21,-84,-141,-140,-86,-58
-21,-23,-2,21,-9,-12,41,-33,-101,-106,-93,-72
-19,-13,6,16,-12,-3,37,-49,-130,-129,-117,-77
-1,-11,-10,7,4,-10,30,-36,-114,-115,-107,-73
-2,-18,-15,10,7,-16,29,-28,-111,-119,-119,-81
1,-24,-25,12,13,-24,21,-31,-115,-112,-116,-79
4,-31,-35,14,20,-33,21,-14,-100,-108,-127,-82
14,-37,-51,12,33,-43,19,-9,-105,-108,-130,-88
8,-45,-53,19,31,-49,31,29,-72,-99,-119,-83
6,-38,-43,16,25,-40,53,57,-45,-100,-111,-76
20,-20,-40,0,30,-29,82,113,6,-65,-97,-69
12,-14,-26,1,19,-20,109,165,51,-36,-78,-63
16,-11,-27,-2,21,-18,137,228,100,-19,-59,-55
35,-4,-38,-15,36,-21,161,288,149,5,-47,-46
50,9,-41,-29,45,-16,160,329,197,28,-35,-38
59,18,-40,-38,49,-11,147,389,237,46,-28,-29
77,10,-67,-43,72,-28,133,414,260,63,-21,-25
89,0,-90,-44,90,-45,110,408,270,74,-14,-21
68,-2,-70,-33,69,-36,69,345,231,78,-9,-17
39,1,-39,-20,39,-19,18,211,135,56,-11,-14
13,-1,-14,-6,14,-8,-16,91,45,15,-9,-9
-12,-17,-5,15,-4,-11,-19,8,-21,-26,-22,-15
-22,-22,0,22,-11,-11,-11,-42,-70,-58,-52,-23
-22,-14,8,18,-15,-3,-4,-69,-94,-69,-60,-29
-24,-10,14,17,-19,1,2,-70,-102,-71,-62,-37
-25,-4,20,14,-22,7,6,-71,-108,-75,-66,-44
-24,2,27,11,-26,14,9,-85,-112,-79,-68,-51
-22,4,25,9,-24,14,13,-92,-114,-81,-70,-55
-21,-4,17,12,-19,6,15,-100,-134,-91,-73,-55
-25,-14,11,20,-18,-2,9,-105,-151,-109,-78,-55
-25,-20,4,22,-14,-7,4,-107,-149,-110,-82,-55
-34,-37,-3,36,-15,-20,-1,-110,-152,-111,-94,-59
-56,-59,-3,58,-26,-31,-7,-113,-155,-120,-103,-66
-59,-55,4,57,-31,-25,-13,-116,-155,-122,-102,-75
-55,-46,9,51,-32,-18,-13,-111,-153,-116,-97,-77
-56,-42,14,49,-35,-14,-6,-106,-146,-112,-94,-69
-53,-32,21,43,-37,-5,0,-101,-139,-107,-91,-65
-57,-33,24,45,-40,-4,8,-98,-133,-103,-86,-59
-61,-40,21,51,-41,-9,13,-92,-125,-98,-85,-54
-58,-40,18,49,-38,-11,28,-91,-121,-95,-85,-49
-56,-40,16,47,-36,-12,42,-95,-124,-96,-85,-45
-52,-40,12,46,-32,-14,34,-95,-128,-93,-85,-45
-50,-40,10,45,-30,-15,28,-95,-129,-89,-85,-43
-48,-38,10,43,-29,-14,20,-95,-133,-90,-85,-39
-41,-31,10,36,-26,-10,12,-95,-135,-93,-81,-40
-36,-27,9,31,-22,-8,6,-98,-136,-98,-80,-43
-31,-21,11,26,-21,-5,-1,-107,-150,-100,-80,-48
-24,-15,9,20,-16,-3,-7,-109,-152,-100,-80,-64
-21,-10,10,16,-15,0,-14,-119,-162,-100,-81,-71
-22,-17,5,19,-13,-6,-22,-115,-165,-108,-77,-80
-31,-27,3,29,-17,-12,-22,-115,-165,-119,-77,-86
-32,-31,1,31,-17,-14,-18,-116,-159,-111,-72,-83
-33,-38,-5,36,-13,-21,-9,-106,-155,-119,-79,-87
-35,-35,0,35,-17,-17,-8,-117,-158,-112,-71,-82
-29,-45,-16,37,-6,-30,5,-98,-140,-116,-79,-88
-25,-36,-10,31,-7,-23,10,-115,-176,-113,-69,-80
-14,-32,-18,23,2,-25,19,-76,-138,-102,-66,-83
-34,13,47,10,-41,30,17,-110,-182,-115,-68,-62
-44,101,145,-29,-95,123,92,-3,-30,47,62,9
94,215,121,-155,-14,168,198,274,496,610,538,302
569,435,-134,-501,351,150,-313,396,1335,1643,1446,922
798,365,-433,-581,616,-34,-953,273,1551,1578,1352,962
404,112,-292,-258,348,-90,-749,-329,219,269,322,376
130,37,-93,-83,111,-28,-243,-362,-360,-164,-10,71
69,9,-60,-39,65,-25,-44,-38,-70,-79,-20,-16
34,-6,-39,-14,37,-23,-6,-75,-145,-122,-68,-64
18,-34,-52,9,35,-43,25,-23,-103,-103,-82,-84
-29,-67,-38,48,4,-52,27,-36,-137,-145,-119,-109
-35,-77,-43,56,4,-60,29,-25,-140,-135,-115,-105
-39,-75,-36,57,-1,-55,34,-13,-131,-134,-121,-102
-51,-75,-24,63,-13,-49,37,-18,-119,-126,-106,-96
-40,-54,-14,48,-13,-34,58,10,-82,-118,-104,-93
-25,-21,3,23,-14,-9,72,33,-73,-105,-95,-88
-24,-7,17,15,-20,5,94,67,-39,-80,-90,-83
-22,6,28,7,-25,17,116,102,-9,-70,-84,-78
0,21,21,-11,-10,21,116,148,31,-53,-74,-70
21,27,6,-24,7,16,109,191,68,-25,-67,-64
25,19,-6,-22,15,6,106,254,123,7,-51,-57
41,11,-30,-25,35,-9,101,316,179,29,-39,-50
60,3,-57,-31,58,-27,97,371,232,53,-27,-40
59,-4,-64,-27,62,-34,94,409,263,70,-20,-30
43,-16,-58,-13,51,-37,96,422,278,74,-11,-20
39,-10,-50,-14,45,-30,104,413,277,83,-2,-15
55,13,-41,-34,48,-14,85,353,241,85,7,-15
49,26,-22,-37,35,2,67,236,165,65,18,-15
20,23,3,-21,8,13,68,108,58,25,3,-15
-11,17,28,-4,-20,22,59,21,-21,-25,-24,-15
-34,14,48,10,-41,31,59,-28,-62,-53,-36,-19
-38,9,46,14,-42,27,43,-59,-88,-66,-42,-20
-32,5,36,13,-35,20,-3,-65,-105,-76,-50,-20
-29,-1,28,14,-28,14,-32,-65,-111,-78,-54,-25
-28,-8,21,18,-24,6,-48,-65,-109,-82,-57,-25
-28,-14,14,21,-21,0,-53,-67,-110,-85,-59,-26
-28,-21,8,24,-18,-6,-45,-75,-110,-89,-63,-30
-28,-28,0,28,-14,-14,-41,-75,-110,-90,-65,-32
-25,-28,-4,27,-10,-16,-21,-75,-114,-92,-67,-35
-21,-20,0,21,-10,-10,10,-75,-115,-95,-70,-38
-17,-15,3,16,-10,-6,37,-74,-115,-96,-70,-40
-14,-7,7,10,-11,0,52,-77,-120,-100,-70,-40
-10,-1,9,6,-10,4,65,-80,-120,-100,-70,-40
-11,6,17,2,-15,11,72,-81,-119,-103,-69,-40
-21,15,37,3,-29,26,63,-85,-114,-105,-66,-40
-29,12,40,9,-35,26,47,-85,-111,-105,-61,-40
-36,3,40,16,-38,21,31,-82,-108,-100,-59,-39
-42,-2,40,22,-41,19,29,-78,-104,-92,-55,-34
-50,-10,40,30,-45,15,31,-74,-101,-83,-51,-29
-54,-15,40,35,-47,12,30,-71,-96,-76,-47,-25
-59,-15,44,37,-51,14,31,-65,-94,-80,-45,-20
-67,-15,52,41,-59,18,40,-67,-91,-80,-45,-15
-69,-15,54,42,-61,19,53,-69,-88,-80,-42,-19
-87,-15,72,50,-79,28,52,-71,-86,-81,-39,-25
-87,-15,72,51,-79,28,46,-68,-84,-79,-41,-30
-84,-17,67,50,-75,24,41,-76,-102,-85,-44,-35
-88,-27,60,57,-74,16,36,-84,-104,-89,-47,-42
-93,-38,55,65,-74,9,30,-95,-120,-98,-66,-44
-102,-51,51,76,-76,0,25,-109,-134,-100,-70,-38
-88,-40,48,64,-68,3,26,-110,-139,-105,-71,-42
-73,-18,55,46,-64,18,24,-112,-150,-91,-62,-35
-60,-18,42,39,-50,11,26,-96,-129,-88,-64,-37
-74,-1,73,37,-73,36,25,-112,-156,-83,-56,-33
-67,4,71,31,-69,37,25,-81,-112,-67,-53,-30
-58,64,122,-3,-90,92,29,-112,-142,-85,-45,-6
-73,109,182,-18,-128,145,120,26,33,73,81,60
67,183,116,-125,-25,149,234,322,556,646,571,362
522,401,-121,-461,321,140,-201,436,1392,1730,1531,1008
733,350,-383,-541,558,-16,-822,261,1642,1732,1476,1075
350,116,-234,-233,292,-59,-674,-343,300,362,382,446
83,25,-58,-54,71,-17,-199,-358,-323,-154,-31,86
35,-3,-39,-16,37,-21,-5,-37,-43,-41,-24,13
-25,-33,-8,29,-8,-20,37,-67,-134,-90,-63,-31
-44,-58,-14,51,-14,-36,50,-25,-88,-101,-87,-59
-55,-48,7,52,-31,-20,54,-37,-101,-123,-107,-68
-53,-43,10,47,-31,-16,55,-23,-87,-103,-94,-63
-59,-36,23,47,-41,-6,58,-12,-73,-107,-104,-65
-66,-29,36,47,-51,3,77,-8,-75,-99,-97,-59
-60,-31,29,45,-44,-1,89,25,-48,-95,-102,-61
-41,-29,12,35,-26,-8,82,43,-44,-92,-93,-58
-28,-31,-3,29,-12,-17,76,86,-9,-78,-77,-51
-21,-29,-9,25,-6,-19,69,114,17,-64,-66,-47
-16,-33,-16,25,0,-24,65,150,56,-41,-54,-40
-13,-35,-22,24,5,-28,65,195,85,-22,-47,-35
4,-26,-30,11,17,-27,65,256,141,12,-38,-30
22,-13,-35,-4,29,-24,65,324,202,39,-23,-23
37,-3,-40,-17,39,-21,65,385,263,85,2,-12
47,4,-43,-25,45,-20,61,447,331,137,23,-3
56,9,-47,-32,51,-19,54,476,361,152,38,8
77,14,-62,-45,69,-24,48,468,364,146,54,17
86,20,-66,-53,76,-22,41,412,324,134,56,25
59,24,-34,-41,46,-5,34,279,221,116,47,34
11,18,8,-15,1,12,29,156,115,72,38,29
-28,7,35,10,-32,21,20,69,30,20,14,14
-31,-2,29,16,-30,14,11,4,-43,-34,-20,-12
-23,-16,7,19,-15,-4,9,-34,-81,-76,-50,-36
-37,-38,-1,37,-18,-19,6,-46,-93,-85,-56,-42
-41,-46,-4,44,-18,-25,3,-47,-99,-85,-54,-45
-43,-45,-2,44,-20,-23,1,-51,-97,-85,-55,-50
-49,-45,4,47,-26,-20,-2,-54,-94,-85,-55,-50
-53,-45,8,49,-30,-18,-4,-66,-95,-88,-55,-51
-58,-45,12,51,-35,-16,-8,-70,-95,-97,-58,-55
-61,-43,18,51,-39,-12,-10,-70,-95,-100,-64,-55
-59,-39,19,49,-39,-10,-14,-70,-96,-100,-66,-57
-55,-40,14,47,-35,-12,-15,-70,-102,-100,-70,-61
-53,-40,14,46,-34,-13,-11,-70,-109,-100,-73,-64
-48,-40,8,44,-28,-16,-10,-67,-106,-108,-77,-68
-63,-40,23,51,-43,-8,-10,-64,-99,-109,-81,-70
-84,-34,49,59,-66,7,-10,-61,-93,-102,-74,-65
-94,-43,50,69,-72,3,-10,-58,-86,-97,-67,-60
-101,-51,50,76,-75,0,-10,-55,-79,-91,-61,-56
-91,-43,48,67,-69,2,-10,-56,-76,-86,-53,-51
-87,-42,44,64,-65,1,-10,-60,-80,-85,-51,-47
-77,-32,45,54,-61,7,-10,-62,-82,-84,-55,-42
-58,-17,41,37,-49,11,-17,-65,-85,-81,-55,-40
-53,-24,29,38,-41,2,-33,-69,-89,-79,-57,-40
-59,-36,23,47,-41,-6,-42,-69,-89,-82,-61,-37
-60,-35,25,47,-42,-5,-37,-78,-97,-94,-59,-34
-51,-25,25,37,-38,0,-27,-94,-107,-103,-65,-35
-39,-14,25,26,-32,5,-25,-101,-118,-113,-75,-45
-35,-10,25,22,-30,7,-25,-101,-122,-117,-80,-46
-46,-10,36,28,-41,13,-25,-100,-119,-112,-80,-45
-46,-10,36,28,-41,13,-25,-99,-120,-110,-80,-44
-41,-14,26,27,-33,6,-25,-96,-120,-106,-80,-40
-47,-26,22,36,-34,-2,-24,-95,-120,-104,-80,-40
-46,-33,13,39,-30,-10,-19,-95,-120,-106,-80,-42
-37,-28,9,33,-23,-9,-16,-95,-120,-105,-80,-46
-26,-23,3,24,-14,-10,-12,-95,-120,-106,-81,-45
-16,-17,-1,17,-7,-9,-8,-95,-120,-105,-80,-45
-2,-11,-9,7,4,-10,-5,-95,-120,-104,-80,-44
-3,-6,-3,4,0,-4,-9,-95,-120,-118,-79,-41
-33,0,34,16,-34,17,-10,-99,-123,-127,-70,-39
-38,15,52,11,-45,33,-10,-112,-128,-124,-59,-35
-25,23,48,1,-37,35,-15,-114,-133,-125,-57,-33
-38,16,53,11,-46,34,-14,-116,-143,-126,-62,-29
-48,5,53,21,-51,29,-15,-114,-137,-123,-62,-34
-64,-7,56,35,-60,24,-7,-115,-141,-133,-70,-44
-68,-16,51,42,-59,17,-5,-116,-140,-127,-67,-38
-73,-35,39,54,-56,2,1,-109,-137,-133,-74,-42
-81,-49,32,65,-56,-9,5,-111,-145,-126,-67,-39
-73,-61,12,66,-42,-24,9,-94,-122,-120,-72,-41
-59,-41,18,50,-38,-12,17,-108,-142,-122,-71,-41
-51,-55,-4,52,-23,-30,10,-80,-102,-98,-59,-47
-47,-15,32,31,-40,9,27,-103,-133,-127,-55,-40
-24,67,91,-22,-58,79,62,47,50,37,71,35
72,159,87,-116,-8,123,128,311,560,618,562,349
472,434,-38,-453,255,198,-240,269,1263,1755,1617,1056
668,440,-229,-554,448,105,-836,10,1445,1846,1660,1199
298,161,-137,-230,217,12,-704,-457,206,363,445,498
51,20,-31,-35,40,-5,-234,-394,-365,-217,-37,71
6,-8,-14,1,10,-11,-22,-51,-37,-50,2,6
-12,5,17,4,-15,11,35,-47,-100,-99,-55,-35
-4,-20,-16,12,6,-18,48,0,-63,-106,-83,-66
-26,-45,-19,36,-4,-32,43,-6,-74,-151,-109,-88
-29,-51,-21,40,-4,-36,30,-1,-72,-141,-100,-83
-30,-51,-20,40,-5,-35,27,12,-64,-133,-112,-86
-32,-49,-17,41,-8,-33,29,7,-70,-119,-109,-84
-35,-51,-16,44,-10,-33,34,24,-45,-95,-115,-85
-36,-49,-14,43,-11,-31,36,30,-48,-75,-116,-84
-31,-54,-23,43,-4,-38,41,49,-27,-60,-107,-79
-28,-67,-40,48,6,-53,42,70,-15,-54,-100,-76
-15,-67,-52,41,19,-60,57,117,24,-41,-90,-73
-8,-58,-50,33,21,-54,70,172,70,-23,-79,-68
-9,-53,-44,31,18,-48,75,241,131,8,-57,-66
8,-45,-53,19,31,-49,98,319,212,57,-38,-54
30,-40,-70,6,50,-55,108,392,293,132,-19,-32
36,-29,-65,-3,51,-47,114,452,357,173,7,-21
45,-15,-60,-15,53,-37,121,491,404,199,25,-14
52,-2,-55,-25,54,-28,110,511,428,215,44,-6
54,6,-48,-30,51,-20,100,474,407,200,55,-2
68,24,-45,-46,56,-10,83,361,326,184,63,2
59,32,-27,-45,43,2,58,228,206,148,64,8
28,16,-11,-22,19,2,37,107,86,86,41,9
11,3,-7,-7,9,-2,6,21,1,19,9,0
-3,-7,-5,5,1,-6,-7,-26,-51,-9,-16,-12
-14,-14,0,14,-7,-7,0,-50,-79,-27,-24,-23
-24,-21,3,22,-13,-9,6,-53,-75,-47,-37,-36
-31,-23,8,27,-19,-7,12,-48,-73,-51,-51,-46
-33,-17,16,25,-24,-1,22,-43,-71,-55,-47,-48
-22,-12,10,17,-16,-1,49,-37,-67,-49,-45,-44
-1,-9,-7,5,3,-8,71,-32,-65,-43,-45,-42
-6,-3,2,5,-4,0,81,-26,-67,-39,-45,-39
-29,0,30,14,-30,15,79,-21,-71,-32,-45,-36
-34,-11,23,22,-28,6,66,-20,-73,-28,-45,-35
-36,-25,11,30,-23,-7,60,-18,-76,-23,-50,-35
-38,-41,-3,40,-17,-22,38,-14,-79,-34,-50,-35
-26,-44,-18,35,-4,-31,-9,-17,-80,-46,-51,-35
-26,-37,-11,31,-7,-23,-41,-40,-75,-44,-55,-35
-30,-33,-3,31,-13,-18,-42,-53,-75,-48,-55,-35
-31,-26,5,28,-18,-10,-24,-47,-74,-50,-53,-33
-33,-21,12,27,-22,-4,2,-45,-69,-50,-48,-28
-43,-16,27,29,-34,5,16,-41,-71,-47,-45,-25
-56,-15,41,35,-48,13,20,-36,-67,-45,-42,-22
-54,-15,39,35,-46,12,25,-36,-64,-45,-37,-17
-50,-10,40,30,-45,15,28,-41,-65,-40,-36,-15
-50,-10,40,30,-45,15,34,-39,-61,-40,-40,-20
-49,-9,40,29,-45,15,33,-43,-60,-41,-50,-24
-43,-4,39,24,-41,17,25,-45,-60,-46,-60,-26
-36,-6,30,21,-33,12,20,-45,-60,-51,-60,-30
-23,-3,20,13,-21,8,12,-48,-59,-53,-63,-35
-27,-17,10,21,-18,-3,7,-52,-64,-65,-65,-35
-41,-41,0,41,-20,-20,-15,-69,-86,-80,-67,-35
-28,-38,-10,33,-8,-24,-37,-89,-95,-84,-75,-35
-14,-32,-18,23,2,-25,-33,-96,-95,-83,-80,-35
-16,-28,-11,22,-2,-19,-30,-92,-95,-79,-80,-35
-18,-21,-3,20,-7,-12,-27,-86,-95,-77,-81,-35
-18,-16,1,17,-9,-8,-22,-83,-95,-74,-85,-40
-28,-11,17,19,-23,3,-20,-76,-95,-71,-85,-45
-33,-6,27,19,-30,10,-24,-76,-95,-69,-82,-48
-26,-1,25,13,-25,11,-25,-80,-95,-67,-80,-51
-23,2,25,10,-24,13,-25,-82,-95,-63,-80,-49
-12,8,20,2,-17,14,-25,-85,-95,-73,-80,-51
-10,9,20,1,-15,14,-25,-85,-105,-91,-80,-55
-15,4,19,6,-18,11,-22,-85,-111,-90,-81,-55
-9,1,10,3,-9,5,-20,-85,-109,-90,-84,-55
-4,-3,1,3,-2,-1,-20,-85,-114,-87,-85,-55
1,-6,-7,3,4,-7,-17,-85,-115,-84,-84,-54
8,-10,-18,1,13,-14,-14,-86,-115,-86,-86,-57
3,-13,-17,5,10,-15,-16,-90,-119,-89,-84,-60
-2,-16,-15,9,7,-15,-19,-90,-120,-91,-89,-62
-4,-19,-15,12,5,-17,-20,-90,-120,-89,-100,-65
-11,-22,-10,17,-1,-16,-20,-90,-120,-91,-100,-68
-15,-25,-10,20,-2,-17,-20,-89,-120,-89,-101,-70
-15,-24,-9,19,-3,-16,-20,-95,-122,-93,-105,-70
-16,-20,-4,19,-6,-12,-22,-103,-129,-102,-105,-70
-19,-18,1,18,-10,-8,-26,-100,-136,-101,-103,-70
-20,-15,5,17,-12,-5,-25,-100,-144,-101,-99,-70
-22,-12,10,17,-16,-1,-28,-100,-143,-100,-95,-71
-24,-9,15,16,-20,2,-31,-100,-133,-95,-92,-69
-22,-11,12,16,-17,0,-28,-100,-122,-95,-87,-65
-17,-9,8,13,-12,-1,-45,-97,-114,-97,-85,-65
-15,-11,4,12,-9,-3,-50,-93,-113,-100,-90,-63
-10,-9,1,10,-6,-4,-43,-92,-119,-100,-90,-59
-7,-11,-4,9,-1,-7,-34,-87,-117,-99,-91,-60
-3,-9,-6,6,2,-7,-8,-86,-125,-102,-96,-64
8,-4,-12,-2,10,-8,-4,-85,-123,-98,-93,-70
12,-6,-19,-3,16,-12,-5,-93,-128,-110,-98,-78
19,-3,-22,-8,21,-12,-7,-100,-133,-114,-92,-78
25,-8,-33,-8,29,-20,-10,-98,-130,-123,-98,-81
21,-1,-22,-10,22,-11,-10,-118,-154,-124,-95,-77
22,-6,-28,-8,25,-17,-8,-102,-132,-113,-94,-82
20,11,-10,-15,15,1,-2,-118,-156,-121,-93,-78
27,6,-21,-16,24,-8,0,-94,-119,-96,-81,-81
19,25,6,-22,6,15,7,-105,-155,-126,-97,-77
26,106,80,-66,-27,93,63,9,-25,3,6,-14
146,174,28,-160,59,101,169,289,475,548,469,261
505,410,-95,-458,300,157,-163,272,1157,1667,1495,957
718,415,-303,-566,510,56,-762,91,1509,1928,1660,1164
395,111,-284,-252,339,-86,-718,-363,356,517,513,497
121,-26,-147,-47,134,-87,-287,-392,-376,-211,-55,50
78,-22,-100,-28,90,-61,-77,-56,-69,-70,-48,-33
27,-1,-29,-13,28,-15,-14,-55,-97,-152,-102,-78
27,-8,-35,-9,32,-21,11,-1,-54,-90,-83,-83
