I,II,III,aVR,aVL,aVF,V1,V2,V3,V4,V5,V6
-21,9,31,6,-26,20,-35,-60,-89,-73,-68,39
-42,-14,28,28,-35,7,-35,-65,-95,-95,-91,9
-69,-44,25,56,-47,-9,-34,-69,-101,-116,-115,-25
-71,-49,22,60,-46,-14,-33,-72,-100,-110,-107,-34
-71,-54,16,62,-43,-19,-28,-71,-110,-130,-118,-60
-88,-71,17,79,-53,-27,-32,-67,-96,-100,-97,-57
-91,-86,4,88,-47,-41,-23,-74,-106,-135,-127,-79
-73,-58,16,65,-44,-21,-24,-66,-93,-90,-89,-67
-92,-79,13,85,-52,-33,-11,-73,-104,-145,-140,-111
-119,-68,51,94,-85,-8,46,-43,-99,-164,-177,-165
-75,-32,43,53,-59,5,108,159,80,-52,-120,-129
436,511,75,-474,180,293,0,619,741,1016,859,543
946,1014,69,-980,438,541,-422,543,1075,2090,1975,1413
461,523,62,-492,200,292,-557,-411,65,573,841,883
-60,199,258,-70,-159,228,-274,-628,-493,-511,-189,78
-77,83,161,-3,-119,122,-92,-204,-204,-183,-112,-72
-95,-84,11,89,-52,-37,-22,-119,-160,-240,-200,-150
-82,-71,11,77,-46,-30,11,-64,-110,-155,-134,-153
-105,-121,-16,113,-44,-68,26,-52,-114,-176,-160,-171
-98,-103,-5,101,-47,-54,27,-40,-112,-155,-141,-163
-91,-113,-22,103,-34,-68,23,-25,-101,-141,-133,-160
-98,-116,-18,107,-40,-67,26,-28,-107,-151,-136,-158
-92,-112,-21,102,-35,-66,25,-14,-93,-124,-113,-151
-98,-119,-21,109,-38,-69,24,-13,-92,-137,-120,-152
-77,-101,-24,90,-26,-62,34,23,-72,-110,-100,-144
-54,-84,-31,69,-11,-57,47,39,-65,-101,-98,-142
-33,-64,-31,49,-1,-48,44,62,-39,-62,-69,-123
-9,-49,-40,29,16,-44,52,113,-1,-26,-38,-103
25,-9,-34,-8,30,-21,56,168,44,25,5,-73
57,28,-29,-42,43,0,54,229,107,98,69,-37
106,82,-24,-94,65,29,55,303,186,196,157,19
152,135,-17,-143,84,59,55,374,263,288,241,76
188,174,-13,-181,100,80,55,429,325,359,310,120
235,229,-5,-232,120,112,51,471,383,424,375,163
234,244,10,-239,111,126,47,474,399,438,391,173
181,220,39,-201,70,129,44,432,371,402,362,149
116,168,52,-142,32,109,39,327,297,311,284,94
61,102,41,-82,10,72,36,197,178,175,164,12
25,59,34,-42,-5,46,33,93,70,51,63,-66
-20,6,26,7,-23,16,28,25,-12,-36,-15,-121
-58,-39,19,48,-38,-10,25,-14,-58,-86,-66,-147
-69,-53,15,61,-42,-19,22,-59,-91,-113,-91,-154
-67,-52,15,59,-41,-18,17,-78,-110,-115,-102,-155
-66,-51,15,58,-40,-17,14,-78,-104,-115,-100,-150
-84,-69,15,76,-49,-27,11,-81,-105,-113,-100,-145
-89,-74,15,81,-52,-29,10,-79,-105,-109,-100,-142
-81,-62,18,71,-49,-22,10,-80,-105,-110,-100,-135
-79,-58,21,69,-49,-19,10,-80,-105,-107,-99,-138
-71,-51,20,61,-45,-15,10,-80,-102,-104,-104,-143
-64,-44,20,54,-41,-12,12,-79,-99,-101,-110,-136
-77,-55,22,66,-50,-16,16,-74,-96,-98,-102,-131
-79,-54,25,66,-52,-14,19,-71,-93,-95,-96,-126
-66,-27,39,47,-52,6,23,-68,-91,-94,-89,-120
-63,-22,40,42,-51,9,25,-63,-88,-85,-83,-115
-59,-20,40,40,-49,10,31,-62,-79,-75,-77,-108
-48,-7,41,28,-44,16,38,-48,-66,-66,-62,-99
-34,5,39,14,-36,22,45,-18,-43,-47,-48,-91
-22,46,69,-12,-46,57,70,22,2,-12,-40,-82
36,82,46,-60,-5,64,60,27,24,10,-38,-76
54,57,3,-56,25,30,12,-17,-29,-15,-35,-71
45,37,-9,-41,27,14,-11,-50,-66,-48,-32,-66
76,50,-26,-63,51,12,-26,-45,-66,-56,-30,-59
45,43,-1,-44,22,21,-26,-43,-77,-59,-27,-55
-24,-6,18,15,-21,6,-19,-66,-91,-75,-54,-95
-85,-74,12,79,-48,-30,-16,-88,-114,-129,-118,-149
-98,-80,18,88,-58,-30,-10,-90,-105,-129,-118,-148
-93,-81,12,87,-52,-34,-9,-89,-103,-129,-120,-151
-97,-79,18,87,-57,-30,1,-91,-102,-133,-121,-148
-106,-93,13,99,-60,-40,3,-87,-90,-113,-107,-141
-121,-105,15,113,-68,-45,11,-94,-108,-143,-129,-152
-108,-92,17,100,-62,-37,-3,-78,-97,-101,-98,-138
-124,-112,12,118,-68,-50,23,-80,-116,-157,-155,-172
-142,-91,51,116,-96,-20,82,-55,-91,-156,-174,-193
-54,-21,32,37,-43,6,120,184,134,20,-68,-126
557,597,40,-577,258,318,-31,656,816,1204,1052,652
969,911,-58,-940,513,426,-448,426,912,1833,1793,1317
336,354,18,-345,159,186,-484,-534,-141,181,477,609
-120,129,249,-4,-185,188,-186,-581,-457,-481,-220,-20
-113,2,115,55,-114,58,-37,-167,-179,-176,-123,-110
-126,-95,31,110,-78,-32,32,-106,-151,-243,-184,-168
-99,-79,20,89,-60,-29,54,-53,-106,-144,-117,-151
-136,-140,-4,138,-66,-72,62,-64,-134,-189,-165,-179
-122,-114,8,118,-65,-53,59,-51,-119,-151,-130,-162
-114,-126,-12,120,-50,-69,60,-45,-117,-153,-141,-163
-118,-125,-7,122,-55,-66,60,-37,-115,-148,-133,-158
-104,-123,-19,114,-42,-71,60,-19,-105,-129,-124,-151
-109,-128,-19,118,-44,-73,60,-16,-98,-136,-128,-151
-100,-121,-20,110,-40,-70,61,4,-73,-113,-111,-133
-79,-100,-21,90,-29,-60,74,21,-62,-110,-107,-123
-48,-67,-19,57,-14,-43,75,55,-34,-72,-78,-107
-26,-47,-21,36,-2,-34,75,97,-2,-29,-41,-86
-11,-30,-19,21,4,-24,75,145,40,18,3,-60
36,15,-21,-25,28,-3,77,215,101,94,68,-12
94,75,-19,-84,56,27,81,301,187,191,160,56
152,132,-21,-142,86,55,80,363,257,279,246,119
211,192,-19,-201,115,87,80,413,314,353,310,174
225,221,-3,-223,114,108,75,458,371,405,370,210
214,230,16,-222,99,123,75,455,379,426,385,229
157,197,40,-178,58,119,74,400,341,379,339,205
96,147,51,-122,23,99,60,298,261,268,258,141
60,102,42,-81,9,72,46,156,140,137,137,60
0,36,36,-18,-18,36,36,48,44,15,33,-18
-52,-23,30,37,-41,3,32,-6,-21,-63,-39,-69
-77,-56,21,66,-49,-17,29,-51,-68,-110,-80,-99
-91,-68,23,79,-57,-22,25,-82,-91,-128,-101,-106
-108,-83,25,95,-66,-29,22,-91,-100,-127,-120,-111
-119,-92,27,105,-73,-32,18,-90,-100,-128,-116,-116
-109,-79,30,94,-69,-24,15,-90,-100,-123,-112,-114
-99,-68,31,83,-64,-19,15,-99,-97,-121,-109,-115
-99,-64,35,81,-66,-15,15,-99,-95,-118,-105,-115
-97,-62,35,79,-66,-13,15,-94,-95,-115,-102,-115
-98,-59,39,78,-68,-10,15,-92,-92,-114,-98,-110
-96,-56,40,76,-67,-7,11,-87,-89,-109,-95,-106
-97,-55,42,76,-69,-6,10,-85,-91,-106,-95,-103
-99,-50,49,74,-74,0,10,-79,-89,-102,-95,-100
-96,-46,50,71,-73,2,5,-74,-91,-99,-95,-95
-90,-40,50,65,-70,5,5,-69,-89,-94,-96,-98
-88,-38,50,63,-69,6,6,-63,-80,-99,-91,-99
-81,-31,51,56,-65,9,16,-59,-72,-96,-82,-87
-62,-14,48,38,-55,17,24,-47,-48,-68,-73,-79
-36,25,61,6,-48,42,49,-18,-16,-42,-44,-56
16,77,62,-47,-23,69,61,22,13,-14,-26,-33
24,57,33,-41,-5,45,-4,-13,-11,-10,-35,-29
37,35,-2,-36,20,16,-48,-76,-68,-51,-41,-31
78,54,-24,-66,51,15,-42,-80,-71,-71,-39,-29
47,45,-2,-46,24,21,-40,-80,-68,-73,-43,-31
-22,2,24,9,-23,13,-35,-84,-84,-86,-71,-61
-88,-65,23,76,-56,-21,-32,-97,-103,-123,-117,-110
-105,-78,27,91,-66,-25,-28,-105,-99,-119,-113,-130
-105,-82,23,93,-64,-29,-26,-102,-100,-118,-115,-136
-106,-80,26,92,-66,-26,-23,-100,-102,-124,-117,-136
-105,-80,25,92,-65,-27,-27,-93,-96,-102,-101,-130
-120,-98,22,109,-71,-38,-22,-95,-105,-134,-125,-137
-100,-78,22,89,-61,-28,-29,-87,-85,-89,-94,-120
-133,-106,27,119,-80,-39,-3,-102,-102,-149,-152,-165
-157,-86,72,121,-114,-7,59,-72,-79,-156,-173,-185
-81,-39,42,60,-61,1,107,121,86,-37,-114,-152
503,531,28,-517,237,280,-25,594,744,1047,922,573
993,910,-83,-951,537,413,-438,467,932,1796,1769,1304
382,370,-13,-376,197,178,-505,-497,-82,255,526,646
-106,156,262,-25,-184,209,-212,-612,-442,-474,-221,10
-97,36,133,30,-115,84,-63,-183,-177,-176,-118,-86
-128,-107,21,117,-74,-43,0,-120,-160,-241,-197,-158
-93,-74,19,83,-56,-27,13,-82,-118,-142,-122,-139
-131,-143,-11,137,-60,-77,25,-82,-133,-186,-160,-170
-136,-132,4,134,-70,-64,33,-64,-115,-153,-127,-150
-108,-121,-13,114,-47,-67,27,-55,-110,-154,-131,-151
-94,-102,-8,98,-43,-55,32,-54,-107,-152,-126,-145
-107,-124,-17,116,-45,-70,28,-46,-93,-135,-114,-136
-107,-118,-11,113,-48,-64,37,-27,-88,-140,-118,-137
-74,-83,-9,78,-32,-46,43,-3,-70,-116,-103,-122
-65,-77,-12,71,-26,-44,41,4,-54,-108,-103,-117
-49,-57,-8,53,-21,-32,40,40,-23,-70,-74,-104
-23,-36,-13,30,-5,-25,40,75,4,-43,-49,-87
9,-6,-15,-1,12,-11,40,130,44,12,2,-51
44,29,-15,-36,29,7,40,189,102,79,64,2
95,79,-15,-87,55,32,40,255,172,163,147,61
153,139,-14,-145,83,62,40,329,247,259,234,126
208,192,-16,-200,112,88,40,382,309,333,305,181
232,220,-12,-226,121,104,40,423,357,392,359,217
231,236,5,-234,113,121,40,433,378,407,379,238
191,224,33,-208,79,129,47,392,349,364,355,224
131,184,53,-157,38,118,48,293,279,278,272,170
70,116,46,-93,12,80,40,154,160,147,147,86
8,47,39,-28,-16,43,35,43,51,25,37,9
-21,12,33,4,-27,22,30,-9,-8,-49,-24,-36
-57,-31,25,44,-40,-3,24,-56,-57,-103,-74,-72
-81,-62,19,71,-50,-21,19,-84,-85,-126,-102,-89
-77,-64,13,70,-45,-25,14,-85,-96,-128,-104,-90
-84,-75,9,80,-47,-33,8,-95,-102,-133,-116,-90
-88,-85,3,86,-45,-41,2,-102,-106,-135,-121,-86
-79,-82,-3,81,-37,-42,2,-104,-110,-135,-119,-85
-79,-82,-3,81,-38,-42,5,-101,-110,-135,-120,-85
-76,-72,4,73,-39,-34,5,-99,-110,-135,-120,-85
-96,-87,9,91,-52,-39,-1,-101,-110,-135,-120,-87
-116,-103,14,109,-65,-44,-2,-100,-111,-129,-115,-86
-100,-80,21,90,-60,-30,14,-100,-106,-123,-110,-83
-98,-73,25,85,-61,-24,26,-98,-101,-119,-106,-81
-96,-66,30,81,-62,-18,26,-94,-98,-112,-101,-77
-79,-48,31,64,-55,-9,25,-92,-92,-108,-97,-75
-70,-42,28,56,-49,-6,25,-86,-89,-101,-92,-73
-67,-31,36,49,-52,3,26,-87,-75,-88,-85,-64
-51,-25,27,38,-39,1,24,-65,-63,-73,-76,-56
-42,0,42,20,-42,21,38,-39,-39,-49,-56,-38
6,62,56,-34,-25,59,55,-33,-4,-15,-27,-18
36,62,26,-49,5,44,22,-29,-27,-14,-22,-15
24,23,-1,-24,12,11,-39,-65,-70,-57,-37,-15
45,22,-24,-33,34,-1,-62,-87,-84,-76,-32,-15
31,13,-19,-22,25,-3,-54,-91,-86,-76,-42,-14
13,9,-4,-10,8,2,-47,-102,-85,-85,-62,-27
-40,-45,-4,43,-18,-24,-41,-104,-105,-116,-99,-75
-98,-96,2,97,-50,-47,-33,-113,-123,-137,-128,-107
-95,-91,4,93,-49,-43,-30,-107,-114,-121,-111,-105
-106,-98,7,102,-56,-46,-30,-113,-118,-140,-130,-115
-96,-82,14,89,-55,-34,-28,-107,-106,-112,-108,-106
-110,-96,14,103,-61,-41,-24,-112,-110,-137,-131,-128
-101,-74,27,88,-64,-23,-26,-105,-102,-116,-113,-113
-115,-104,11,110,-63,-46,-12,-92,-111,-127,-128,-125
-154,-111,43,132,-99,-34,31,-96,-111,-166,-177,-159
-144,-106,39,125,-91,-33,78,-11,-39,-145,-208,-185
178,182,4,-180,87,93,57,361,386,426,319,171
921,848,-73,-884,497,387,-271,650,981,1713,1625,1147
725,593,-132,-659,428,230,-554,-125,346,976,1135,1029
-41,133,174,-46,-108,153,-347,-750,-462,-445,-138,161
-106,128,234,-11,-170,180,-102,-334,-256,-257,-142,-37
-111,-66,44,89,-78,-11,-28,-130,-148,-210,-172,-124
-134,-104,29,119,-81,-37,7,-111,-131,-199,-155,-143
-120,-118,2,119,-61,-58,11,-77,-103,-159,-139,-145
-137,-128,8,132,-72,-60,20,-92,-114,-181,-158,-155
-106,-109,-3,107,-51,-55,24,-69,-92,-141,-126,-135
-111,-118,-7,115,-52,-62,26,-73,-103,-165,-148,-145
-88,-99,-11,94,-39,-54,24,-44,-86,-133,-120,-128
-83,-104,-21,94,-31,-63,33,-33,-90,-144,-129,-133
-90,-112,-22,101,-34,-66,42,-22,-76,-120,-112,-121
-91,-118,-27,105,-32,-72,39,1,-58,-109,-110,-112
-74,-98,-25,86,-25,-61,38,21,-36,-86,-94,-104
-39,-70,-32,55,-3,-51,34,48,-3,-52,-66,-87
-23,-57,-34,40,6,-45,35,88,33,-19,-38,-58
16,-16,-32,0,24,-24,44,156,84,47,27,-8
75,47,-27,-61,50,10,45,223,140,127,107,45
118,94,-24,-106,71,34,41,272,205,213,185,104
189,168,-21,-178,105,73,39,344,276,296,269,170
230,213,-16,-221,123,98,36,394,333,360,332,215
237,224,-13,-230,125,105,35,403,363,391,360,235
204,219,15,-211,94,117,28,383,348,374,347,230
128,175,47,-151,41,110,21,322,303,311,290,192
80,128,48,-104,16,88,14,208,213,199,191,121
31,74,43,-53,-6,58,7,89,96,71,76,43
-40,0,40,20,-40,20,-2,3,10,-28,-13,-15
-84,-47,37,65,-60,-5,-2,-50,-46,-87,-68,-54
-97,-65,32,81,-64,-16,0,-74,-75,-118,-97,-77
-111,-80,30,96,-70,-25,-11,-107,-90,-136,-111,-80
-110,-75,35,92,-72,-20,0,-111,-90,-129,-110,-80
-105,-69,35,87,-70,-17,8,-109,-89,-122,-110,-80
-103,-65,39,84,-71,-13,0,-110,-90,-116,-110,-80
-98,-58,40,78,-69,-9,-1,-103,-90,-109,-110,-81
-96,-54,42,75,-69,-5,-6,-106,-89,-104,-109,-80
-95,-50,45,72,-70,-2,-9,-102,-84,-99,-106,-80
-95,-50,45,72,-70,-2,-13,-100,-85,-100,-103,-80
-92,-48,44,70,-68,-2,-17,-99,-85,-98,-101,-80
-100,-44,56,72,-78,6,-22,-104,-85,-94,-97,-79
-107,-46,61,77,-83,7,-25,-109,-85,-96,-95,-76
-109,-54,55,81,-82,0,-20,-102,-80,-91,-92,-73
-102,-48,54,75,-78,3,-12,-97,-72,-85,-84,-70
-92,-45,47,68,-69,1,-6,-88,-64,-77,-77,-68
-85,-37,48,61,-66,5,1,-85,-57,-72,-68,-65
-36,-2,33,19,-34,15,7,-59,-47,-64,-62,-62
-11,33,45,-11,-28,39,24,-13,-18,-30,-47,-42
10,69,60,-40,-25,64,46,16,27,0,-31,-30
45,66,21,-56,12,43,-6,-4,14,-1,-29,-29
33,28,-5,-31,19,11,-74,-71,-53,-36,-39,-24
77,53,-24,-65,51,14,-71,-102,-76,-55,-55,-24
83,59,-24,-71,53,18,-64,-98,-74,-56,-54,-16
11,17,6,-14,2,11,-58,-102,-80,-68,-62,-37
-51,-40,10,46,-30,-15,-51,-113,-100,-103,-105,-88
-76,-67,9,72,-43,-29,-45,-116,-112,-130,-125,-112
-78,-73,5,75,-41,-34,-41,-114,-100,-120,-114,-116
-101,-99,2,100,-52,-48,-39,-119,-103,-141,-128,-130
-81,-81,1,81,-41,-40,-40,-112,-89,-117,-103,-118
-102,-99,3,100,-52,-48,-40,-117,-90,-143,-127,-133
-114,-81,33,97,-74,-24,-40,-119,-92,-118,-109,-117
-123,-111,12,117,-67,-49,-37,-126,-108,-137,-144,-132
-140,-88,52,114,-95,-18,14,-91,-91,-158,-165,-168
-124,-72,52,97,-88,-10,81,16,-8,-119,-183,-193
231,239,8,-235,112,123,33,385,439,499,387,219
971,874,-97,-922,533,388,-313,641,971,1711,1647,1165
717,578,-140,-647,428,219,-556,-175,276,869,1033,975
-26,171,197,-73,-112,184,-336,-738,-453,-443,-161,144
-115,114,229,0,-173,171,-106,-323,-239,-232,-133,-55
-127,-89,39,108,-83,-25,-34,-163,-147,-211,-189,-143
-113,-87,26,100,-69,-30,-10,-127,-118,-190,-158,-145
-122,-127,-6,124,-58,-66,-3,-88,-115,-167,-151,-158
-127,-123,3,125,-65,-60,15,-99,-126,-171,-159,-164
-90,-102,-12,97,-39,-57,16,-74,-106,-128,-132,-149
-97,-113,-16,105,-40,-64,14,-81,-116,-153,-150,-158
-74,-95,-20,85,-27,-57,17,-62,-99,-121,-125,-142
-75,-102,-27,89,-23,-64,25,-57,-98,-136,-137,-149
-65,-88,-23,77,-21,-55,26,-41,-77,-116,-121,-133
-63,-90,-27,77,-18,-58,25,-23,-67,-106,-121,-125
-57,-81,-24,70,-16,-52,25,7,-50,-82,-96,-111
-33,-59,-26,47,-4,-42,25,45,-20,-50,-60,-92
2,-27,-29,13,16,-28,25,88,17,-12,-22,-62
44,4,-40,-24,42,-18,20,145,68,55,35,-16
88,44,-44,-65,66,0,20,211,128,132,104,38
133,98,-36,-115,84,31,20,277,197,216,190,100
176,146,-29,-161,102,58,20,329,260,295,261,153
223,200,-23,-211,122,88,21,397,321,364,326,205
248,235,-13,-241,131,110,18,418,361,401,372,242
226,226,0,-226,112,113,13,382,342,384,354,233
156,192,35,-174,60,113,10,311,286,317,289,190
90,143,53,-117,18,97,7,196,196,206,191,122
39,83,44,-61,-3,63,2,90,94,86,86,51
-7,34,41,-14,-24,37,0,5,11,-6,0,-4
-38,-4,34,21,-36,15,5,-48,-45,-64,-52,-50
-68,-40,28,54,-48,-6,5,-70,-76,-101,-82,-79
-86,-61,24,73,-55,-18,6,-83,-93,-119,-100,-86
-97,-78,19,87,-58,-29,10,-91,-103,-124,-103,-88
-104,-80,25,92,-64,-27,10,-80,-102,-121,-109,-85
-109,-74,35,91,-71,-20,8,-85,-97,-118,-111,-85
-107,-72,35,89,-71,-18,2,-108,-94,-116,-106,-85
-102,-67,35,84,-68,-16,-3,-104,-90,-112,-114,-85
-95,-65,30,80,-62,-17,-6,-105,-86,-110,-119,-85
-90,-59,30,75,-60,-14,-12,-105,-83,-108,-112,-80
-81,-52,29,67,-55,-11,-15,-105,-80,-103,-108,-81
-80,-46,34,63,-57,-6,-10,-105,-78,-100,-101,-78
-90,-39,51,64,-70,5,-10,-100,-75,-97,-97,-75
-81,-32,49,57,-65,8,-10,-101,-71,-92,-90,-75
-84,-33,52,58,-68,9,-10,-96,-70,-90,-82,-72
-93,-38,55,65,-73,8,-10,-95,-66,-82,-74,-70
-83,-28,56,55,-69,14,-9,-92,-60,-75,-67,-66
-71,-17,54,44,-63,18,-11,-73,-52,-57,-58,-66
-44,12,57,15,-50,34,20,-42,-23,-22,-38,-45
7,64,57,-36,-26,61,44,0,22,5,-19,-19
25,42,17,-34,4,30,-7,3,14,11,-12,-13
30,6,-24,-18,27,-9,-69,-45,-44,-23,-32,-12
73,35,-38,-54,56,-1,-75,-85,-52,-49,-44,-7
75,41,-34,-58,54,3,-59,-96,-57,-46,-35,-5
18,6,-11,-12,15,-3,-51,-108,-83,-60,-53,-29
-41,-45,-4,44,-18,-25,-45,-123,-102,-89,-91,-65
-73,-79,-6,77,-33,-42,-36,-122,-113,-120,-121,-104
-86,-89,-3,88,-41,-46,-32,-118,-108,-114,-118,-108
-103,-111,-8,107,-47,-59,-23,-134,-120,-133,-138,-114
-104,-105,-1,105,-51,-52,-19,-132,-111,-116,-121,-106
-109,-115,-6,112,-51,-61,-16,-128,-114,-132,-137,-114
-120,-109,11,114,-65,-49,-11,-121,-108,-129,-127,-109
-133,-128,5,130,-69,-61,-14,-116,-103,-122,-125,-106
-149,-130,19,139,-84,-55,18,-106,-114,-163,-176,-148
-179,-145,34,162,-107,-55,73,-39,-65,-152,-214,-199
99,90,-9,-95,54,40,91,283,293,283,172,76
862,758,-105,-810,483,326,-220,659,929,1569,1479,1039
834,634,-200,-734,516,217,-542,12,460,1167,1285,1122
65,174,110,-119,-23,142,-359,-716,-414,-324,-50,268
-133,101,235,16,-184,168,-108,-395,-295,-289,-175,-30
-120,-99,21,110,-71,-39,-21,-156,-165,-187,-175,-128
-143,-140,4,142,-74,-68,8,-123,-147,-181,-177,-154
-122,-156,-33,139,-44,-94,17,-73,-111,-143,-149,-151
-136,-173,-37,155,-49,-105,22,-85,-132,-191,-181,-168
-121,-152,-31,137,-45,-91,24,-54,-108,-141,-144,-147
-125,-165,-39,145,-43,-102,47,-58,-120,-169,-173,-159
-114,-149,-35,132,-39,-92,44,-38,-106,-137,-148,-142
-102,-152,-51,127,-26,-101,45,-35,-106,-147,-157,-148
-96,-155,-59,126,-18,-107,46,-21,-87,-131,-143,-137
-79,-147,-68,113,-5,-107,43,-3,-75,-119,-141,-127
-51,-115,-64,83,6,-89,49,11,-59,-94,-122,-118
-37,-108,-70,73,17,-89,50,37,-32,-60,-87,-96
-20,-90,-70,55,25,-80,50,72,-8,-33,-54,-70
24,-45,-69,11,47,-57,50,145,52,34,6,-27
60,-4,-65,-28,62,-34,50,204,111,106,67,31
114,54,-60,-84,87,-3,50,273,183,198,151,95
169,111,-58,-140,114,26,50,341,252,276,228,153
196,143,-53,-169,124,45,50,386,305,338,296,203
244,193,-51,-219,147,71,52,425,354,393,342,241
238,199,-39,-218,138,80,50,417,350,384,340,240
183,171,-12,-177,97,80,50,357,311,328,296,212
121,140,19,-131,51,79,50,242,233,237,202,158
18,51,32,-35,-7,41,50,122,118,107,89,75
-24,2,26,10,-25,14,50,45,37,14,4,18
-40,-18,22,29,-30,1,47,-13,-19,-49,-51,-26
-81,-64,17,72,-49,-23,42,-53,-68,-102,-93,-61
-83,-71,13,77,-48,-29,40,-65,-80,-115,-110,-72
-79,-70,8,74,-44,-31,35,-69,-87,-119,-112,-75
-74,-69,5,71,-39,-31,32,-71,-91,-121,-111,-70
-83,-78,5,80,-44,-36,28,-69,-88,-119,-109,-70
-84,-79,5,81,-44,-37,24,-71,-95,-121,-110,-70
-87,-81,5,84,-46,-38,18,-69,-95,-120,-110,-70
-105,-100,5,102,-54,-47,15,-71,-95,-120,-110,-70
-94,-86,9,90,-51,-39,11,-74,-94,-126,-112,-72
-120,-106,14,112,-67,-46,3,-88,-99,-128,-122,-94
-103,-86,17,94,-60,-34,32,-100,-106,-118,-120,-82
-63,-41,22,52,-42,-9,49,-91,-100,-110,-112,-61
-87,-63,25,74,-56,-19,41,-82,-96,-101,-106,-60
-86,-60,26,73,-56,-17,41,-75,-91,-95,-99,-62
-70,-49,21,60,-45,-14,36,-68,-87,-88,-93,-70
-62,-42,20,52,-41,-10,35,-68,-82,-84,-83,-65
-45,-26,19,35,-32,-3,38,-49,-69,-74,-74,-58
-36,-11,25,23,-30,7,60,-13,-41,-41,-51,-35
-21,36,56,-8,-39,46,77,20,1,-33,-33,-15
4,47,44,-26,-20,45,60,18,11,-35,-35,-10
18,16,-2,-17,10,7,15,-30,-38,-37,-35,-4
53,34,-19,-43,36,7,-20,-56,-73,-63,-42,1
81,41,-40,-60,60,0,-33,-66,-77,-77,-49,4
27,-6,-33,-10,30,-19,-25,-91,-95,-85,-58,-27
-51,-56,-4,54,-23,-30,1,-92,-104,-101,-83,-65
-99,-110,-10,105,-44,-60,12,-100,-125,-138,-130,-104
-114,-126,-11,120,-52,-68,18,-109,-137,-134,-128,-116
-122,-132,-10,127,-55,-71,16,-108,-137,-145,-145,-123
-111,-115,-4,114,-54,-59,16,-101,-125,-137,-134,-118
-117,-122,-6,120,-55,-64,12,-97,-121,-138,-134,-120
-113,-111,2,112,-57,-54,13,-96,-116,-148,-143,-124
-105,-104,1,104,-53,-51,5,-82,-105,-124,-117,-110
-155,-131,25,143,-90,-53,30,-87,-127,-184,-182,-154
-176,-125,51,150,-113,-37,104,-38,-82,-163,-204,-193
-48,-46,2,47,-25,-22,127,198,151,52,-39,-74
703,616,-87,-659,395,264,-98,674,829,1300,1199,816
990,762,-228,-876,609,267,-489,297,689,1513,1591,1280
210,244,33,-227,88,138,-445,-658,-314,-104,214,476
-114,156,270,-22,-192,213,-132,-511,-375,-378,-190,14
-104,-51,53,78,-78,1,-17,-137,-172,-171,-153,-94
-147,-154,-7,151,-70,-80,30,-110,-176,-236,-217,-157
-131,-143,-12,137,-59,-77,52,-59,-127,-150,-157,-144
-147,-179,-32,163,-57,-105,49,-74,-153,-199,-207,-183
-114,-147,-33,130,-40,-90,51,-50,-129,-150,-169,-161
-117,-163,-46,140,-35,-104,50,-51,-138,-171,-191,-176
-109,-145,-36,127,-36,-90,50,-40,-129,-149,-166,-163
-106,-148,-42,127,-31,-95,52,-30,-123,-148,-165,-160
-104,-147,-44,126,-30,-95,56,-19,-109,-143,-157,-153
-93,-155,-62,124,-16,-108,55,-5,-93,-123,-147,-145
-84,-141,-57,113,-13,-99,58,12,-80,-116,-136,-139
-67,-130,-63,98,-1,-96,61,45,-57,-91,-104,-117
-27,-99,-72,63,23,-85,59,84,-31,-58,-72,-92
6,-63,-69,28,38,-65,56,144,20,7,-13,-56
43,-26,-69,-8,56,-47,51,204,80,74,48,-11
101,38,-64,-69,82,-13,48,275,152,163,132,61
146,80,-66,-113,106,7,45,340,226,249,216,126
201,143,-59,-172,130,42,39,397,289,322,284,176
223,176,-47,-199,134,65,46,438,338,370,337,216
226,192,-33,-209,129,79,57,431,357,385,344,220
184,171,-13,-177,98,79,51,391,323,352,306,195
117,126,9,-122,54,67,49,309,252,258,240,143
55,77,22,-66,16,49,45,176,141,131,129,67
-10,10,21,0,-16,15,40,73,38,17,28,3
-62,-45,17,53,-39,-13,38,14,-34,-56,-42,-52
-127,-112,15,119,-70,-48,33,-31,-86,-114,-95,-90
-116,-105,12,110,-64,-46,30,-46,-96,-133,-109,-96
-88,-79,9,84,-48,-34,26,-61,-107,-132,-115,-94
-95,-88,7,91,-51,-40,23,-67,-113,-147,-124,-91
-97,-94,3,95,-50,-46,19,-63,-114,-146,-124,-88
-99,-98,1,98,-50,-48,16,-67,-116,-145,-125,-86
-87,-91,-4,90,-41,-47,13,-64,-114,-145,-130,-82
-80,-84,-4,82,-38,-44,10,-66,-116,-140,-132,-80
-86,-83,3,84,-45,-39,8,-67,-114,-140,-121,-78
-77,-71,6,73,-41,-32,3,-60,-112,-139,-113,-73
-105,-63,42,84,-73,-10,14,-78,-106,-131,-121,-70
-153,-93,60,122,-106,-16,29,-85,-102,-119,-109,-67
-138,-95,42,116,-90,-26,21,-76,-97,-111,-93,-62
-124,-87,37,105,-80,-25,22,-73,-93,-100,-88,-60
-113,-89,24,101,-68,-32,16,-66,-88,-95,-80,-51
-101,-83,18,92,-59,-33,16,-63,-78,-88,-76,-39
-80,-69,11,74,-45,-29,17,-52,-67,-81,-67,-27
-34,-28,6,31,-20,-10,20,-33,-44,-74,-63,-22
-11,37,48,-13,-30,42,57,7,-8,-30,-28,5
-4,47,52,-22,-28,49,40,17,18,-17,5,37
2,2,0,-2,1,1,-2,-25,-28,-42,-11,40
22,1,-21,-11,21,-9,-40,-65,-75,-63,-34,39
52,19,-33,-36,42,-7,-58,-86,-80,-72,-32,41
41,2,-39,-21,40,-18,-23,-88,-99,-70,-31,39
-28,-57,-29,42,1,-42,-19,-92,-107,-104,-68,13
-84,-113,-29,99,-27,-71,-21,-101,-131,-149,-118,-38
-98,-118,-20,108,-39,-69,-17,-104,-129,-133,-115,-45
-109,-129,-20,119,-44,-74,-27,-120,-125,-154,-127,-45
-109,-121,-11,115,-49,-66,-29,-125,-126,-164,-136,-47
-110,-119,-9,115,-51,-64,-29,-114,-115,-147,-128,-40
-119,-121,-2,120,-58,-61,-20,-118,-127,-171,-149,-55
-116,-106,10,110,-62,-48,-24,-99,-109,-123,-112,-29
-134,-130,4,131,-69,-62,-2,-111,-135,-194,-176,-67
-158,-130,28,144,-93,-51,60,-72,-97,-187,-220,-124
-77,-85,-9,81,-34,-47,112,158,105,-39,-128,-66
561,557,-4,-559,283,276,-75,632,804,1217,1105,793
976,938,-39,-957,507,449,-507,397,918,1930,1952,1556
303,420,117,-361,93,268,-530,-605,-155,221,565,811
-146,183,329,-19,-238,256,-217,-626,-445,-473,-207,95
-119,4,123,57,-121,63,-61,-190,-190,-197,-158,-43
-154,-140,14,147,-84,-63,6,-132,-181,-277,-241,-108
-135,-137,-1,136,-67,-68,27,-73,-123,-186,-164,-105
-165,-197,-31,181,-67,-114,30,-78,-144,-230,-208,-153
-150,-166,-15,159,-67,-91,31,-65,-126,-181,-169,-126
-132,-168,-36,150,-48,-101,29,-62,-131,-185,-181,-122
-126,-152,-25,139,-50,-88,32,-57,-126,-173,-169,-113
-119,-151,-33,135,-43,-92,28,-50,-122,-162,-163,-106
-118,-147,-29,132,-44,-87,26,-45,-112,-164,-162,-105
-111,-141,-30,126,-40,-85,25,-21,-85,-139,-143,-93
-105,-135,-31,120,-37,-83,25,-5,-84,-125,-137,-94
-75,-103,-29,89,-23,-66,34,29,-55,-88,-97,-77
-48,-84,-36,66,-6,-60,34,71,-15,-49,-64,-48
-23,-58,-35,41,6,-46,30,122,19,14,-12,-14
7,-28,-35,11,21,-31,27,178,72,76,47,30
80,45,-35,-62,57,5,22,254,153,173,135,102
128,93,-35,-110,81,29,20,312,218,251,214,156
155,118,-36,-136,95,41,20,365,269,317,272,195
196,172,-24,-184,110,74,40,419,336,387,341,244
194,197,3,-195,95,99,46,433,369,409,363,261
166,207,41,-187,62,123,46,388,341,386,334,242
121,178,57,-149,32,117,53,295,274,294,262,201
66,112,46,-89,10,79,40,182,166,164,145,122
-8,32,39,-12,-24,35,32,61,52,44,32,41
-56,-25,31,40,-43,3,27,-4,-19,-39,-40,-12
-65,-41,24,53,-44,-9,20,-40,-65,-82,-80,-46
-86,-65,20,76,-53,-22,15,-73,-92,-112,-106,-62
-100,-82,17,91,-59,-32,7,-81,-99,-125,-119,-67
-105,-90,15,97,-60,-37,2,-79,-100,-128,-121,-70
-95,-83,12,89,-53,-36,-7,-82,-93,-125,-116,-70
-89,-79,9,84,-49,-35,-9,-94,-90,-125,-115,-76
-89,-75,14,82,-51,-31,-4,-96,-85,-125,-110,-75
-93,-70,23,81,-58,-23,-1,-95,-80,-125,-109,-71
-107,-81,26,94,-66,-27,2,-92,-96,-125,-125,-69
-100,-76,24,88,-62,-26,7,-89,-99,-121,-126,-66
-87,-62,26,74,-56,-18,10,-90,-91,-114,-115,-64
-84,-60,24,72,-54,-17,6,-85,-90,-108,-110,-60
-89,-63,26,76,-58,-18,5,-82,-83,-101,-104,-60
-93,-62,31,77,-62,-15,5,-78,-80,-94,-98,-59
-85,-54,32,69,-58,-11,1,-75,-73,-89,-93,-54
-77,-48,29,62,-53,-9,-1,-70,-65,-80,-87,-56
-66,-39,27,52,-47,-5,2,-69,-57,-71,-80,-53
-40,-17,24,28,-32,3,11,-64,-50,-61,-71,-44
-20,10,30,5,-25,19,27,-44,-37,-43,-54,-36
-16,55,71,-20,-44,63,49,7,9,-12,-32,-29
6,65,59,-36,-27,62,25,25,15,10,-18,-24
28,36,8,-32,10,22,-42,-50,-40,-30,-29,-18
31,18,-14,-24,22,2,-68,-96,-80,-66,-39,-14
34,15,-19,-24,27,-2,-65,-95,-91,-65,-27,-5
9,23,14,-16,-3,18,-45,-104,-90,-75,-41,-16
-52,-25,27,38,-39,1,-23,-113,-98,-94,-84,-70
-90,-74,16,82,-52,-28,-25,-124,-111,-134,-131,-114
-98,-81,17,90,-58,-32,-25,-117,-106,-126,-127,-112
-111,-107,4,109,-57,-52,-25,-123,-114,-148,-146,-127
-107,-101,6,104,-57,-47,-25,-118,-107,-137,-136,-129
-114,-117,-3,115,-56,-59,-26,-121,-111,-145,-149,-143
-129,-113,16,120,-72,-48,-16,-121,-111,-144,-151,-146
-127,-113,14,120,-70,-49,-12,-115,-104,-123,-138,-141
-153,-128,24,140,-88,-52,17,-130,-123,-195,-196,-189
-172,-131,41,151,-106,-45,85,-27,-54,-168,-208,-226
66,82,16,-74,25,49,95,296,303,226,136,17
783,798,15,-791,383,406,-206,677,995,1664,1544,1020
850,783,-66,-816,458,358,-576,84,633,1518,1622,1301
107,236,130,-172,-12,183,-453,-755,-390,-255,114,379
-129,128,257,0,-194,192,-162,-475,-363,-373,-191,-66
-108,-60,48,84,-78,-6,-47,-165,-160,-205,-179,-154
-138,-121,17,129,-77,-52,4,-129,-146,-237,-212,-190
-127,-130,-3,128,-61,-67,19,-81,-111,-158,-159,-193
-130,-150,-20,141,-55,-85,21,-93,-132,-207,-197,-221
-115,-131,-16,123,-49,-74,20,-64,-105,-149,-152,-198
-119,-147,-28,134,-46,-87,20,-68,-115,-175,-175,-210
-113,-135,-22,125,-46,-78,20,-49,-100,-143,-148,-196
-110,-142,-33,126,-39,-87,20,-45,-98,-148,-153,-198
-109,-138,-28,123,-40,-83,21,-36,-89,-136,-143,-192
-126,-162,-36,144,-45,-98,19,-22,-82,-126,-137,-183
-83,-121,-38,102,-22,-79,23,3,-68,-106,-126,-177
-56,-99,-43,77,-6,-70,31,46,-30,-69,-87,-162
-44,-89,-46,67,1,-67,30,74,-2,-44,-55,-143
16,-29,-44,7,30,-36,30,133,44,29,7,-107
48,3,-45,-25,47,-21,31,200,109,105,76,-58
92,55,-38,-73,65,8,29,266,181,196,154,2
141,111,-30,-126,86,40,31,334,250,281,237,61
175,153,-22,-164,98,66,22,393,312,349,301,109
207,192,-15,-199,111,89,26,435,362,408,356,143
207,203,-4,-205,105,99,41,425,373,411,375,155
158,179,21,-168,68,100,37,373,338,357,321,124
90,129,39,-109,25,84,32,262,248,251,219,54
58,100,42,-79,8,71,28,134,135,125,116,-19
26,62,36,-44,-5,49,23,41,41,23,26,-85
-50,-21,29,36,-40,4,18,-27,-26,-55,-45,-139
-86,-63,23,74,-54,-20,12,-63,-63,-96,-87,-169
-73,-57,16,65,-44,-21,8,-76,-80,-114,-100,-179
-75,-65,10,70,-42,-27,1,-82,-92,-122,-112,-180
-81,-75,6,77,-43,-35,-4,-91,-97,-127,-121,-185
-79,-75,3,77,-41,-36,-1,-90,-93,-135,-119,-184
-74,-74,0,74,-37,-36,0,-90,-90,-133,-120,-180
-74,-76,-2,75,-35,-39,0,-90,-90,-129,-120,-180
-67,-73,-5,70,-30,-39,5,-90,-88,-126,-120,-180
-80,-83,-3,82,-38,-43,5,-88,-84,-121,-116,-180
-100,-91,9,95,-54,-41,4,-84,-85,-119,-109,-180
-91,-77,14,84,-52,-31,-6,-86,-81,-115,-106,-177
-89,-71,18,80,-54,-26,-3,-85,-80,-110,-99,-172
-86,-67,19,76,-52,-23,8,-86,-80,-108,-94,-169
-77,-61,16,68,-46,-22,2,-84,-75,-103,-88,-165
-69,-55,14,61,-41,-20,1,-79,-75,-101,-82,-161
-67,-51,15,59,-41,-18,-4,-67,-75,-95,-74,-159
-54,-38,15,45,-34,-11,-3,-59,-66,-82,-69,-151
-27,-13,14,20,-21,0,23,-40,-43,-69,-53,-143
-13,36,49,-12,-31,43,49,0,3,-35,-28,-135
19,60,41,-40,-11,51,44,7,23,-11,-25,-130
49,40,-9,-44,29,15,-20,-25,-19,-30,-24,-121
43,21,-23,-32,33,-1,-72,-70,-57,-60,-31,-117
48,11,-36,-30,42,-12,-72,-92,-70,-73,-36,-107
57,22,-36,-39,46,-7,-52,-87,-74,-79,-39,-107
5,-22,-27,8,16,-24,-36,-101,-85,-94,-68,-147
-46,-73,-26,60,-10,-49,-33,-122,-113,-136,-114,-192
-66,-81,-15,74,-26,-48,-29,-120,-109,-141,-126,-202
-95,-110,-15,102,-39,-62,-27,-119,-110,-148,-137,-201
-98,-103,-5,101,-46,-54,-19,-123,-112,-155,-138,-202
-101,-103,-2,102,-49,-52,-23,-115,-106,-140,-127,-195
-112,-106,6,108,-59,-50,-15,-127,-115,-172,-149,-203
-105,-89,15,97,-60,-37,-26,-112,-92,-131,-127,-184
-131,-117,14,124,-72,-51,2,-114,-105,-185,-184,-211
-146,-99,47,122,-96,-26,56,-81,-76,-169,-207,-253
-70,-49,20,59,-45,-14,91,143,118,-15,-115,-186
533,539,6,-536,263,272,-53,591,764,1105,987,591
994,883,-111,-938,552,386,-487,401,881,1773,1778,1290
363,352,-12,-358,187,170,-525,-557,-126,193,493,607
-117,151,268,-18,-193,209,-213,-622,-436,-487,-230,-40
-105,15,120,45,-113,68,-68,-200,-176,-188,-141,-137
-134,-128,6,130,-70,-61,-8,-160,-164,-251,-216,-218
-116,-100,17,108,-66,-41,0,-105,-109,-156,-143,-201
-147,-154,-7,150,-70,-81,16,-105,-116,-200,-182,-223
-130,-131,0,131,-65,-65,21,-89,-100,-165,-148,-209
-120,-139,-19,130,-50,-79,21,-75,-96,-169,-154,-210
-112,-130,-18,122,-47,-74,27,-69,-91,-164,-147,-207
-100,-127,-27,114,-36,-76,24,-51,-79,-148,-147,-199
-101,-126,-25,114,-38,-75,26,-51,-81,-154,-149,-201
-93,-118,-24,106,-34,-71,25,-35,-67,-135,-131,-188
-88,-114,-26,102,-31,-70,41,-16,-57,-126,-128,-181
-78,-105,-28,92,-25,-66,47,22,-26,-85,-95,-170
-57,-88,-31,72,-13,-59,41,59,6,-53,-69,-146
18,-23,-41,3,30,-32,40,102,46,6,-16,-94
62,17,-45,-39,53,-13,36,167,111,73,48,-50
89,52,-36,-70,62,8,34,240,178,157,125,-5
158,124,-34,-140,96,44,45,310,253,256,214,62
201,173,-28,-187,115,72,51,373,319,326,287,119
226,201,-25,-213,125,88,50,409,365,381,343,156
240,231,-9,-235,125,111,48,417,392,404,364,179
208,224,16,-216,96,119,44,387,372,372,338,170
159,194,35,-177,61,115,45,290,301,287,264,117
87,132,45,-110,20,89,41,161,191,155,151,35
20,62,42,-41,-11,51,35,46,83,33,45,-45
-11,25,36,-8,-23,31,30,-22,9,-45,-29,-91
-60,-26,33,43,-46,3,24,-59,-37,-98,-73,-122
-79,-53,26,66,-53,-13,19,-88,-65,-130,-98,-141
-72,-45,26,58,-49,-9,14,-92,-80,-126,-113,-140
-74,-44,30,59,-52,-7,10,-104,-83,-125,-116,-137
-69,-39,30,54,-50,-5,10,-111,-80,-125,-114,-135
-65,-35,30,50,-47,-2,8,-109,-80,-120,-115,-135
-66,-37,29,52,-48,-3,4,-111,-80,-120,-115,-132
-76,-41,35,58,-56,-3,6,-109,-80,-120,-114,-129
-79,-39,40,59,-59,0,1,-111,-80,-122,-109,-131
-82,-41,41,61,-62,0,0,-108,-80,-119,-106,-134
-83,-40,43,61,-63,1,-1,-105,-80,-115,-103,-135
-99,-51,48,75,-73,-2,-4,-103,-80,-112,-98,-135
-86,-49,37,68,-62,-6,-6,-100,-80,-107,-95,-134
-90,-51,40,70,-65,-5,-4,-97,-81,-104,-100,-140
-122,-57,65,89,-94,4,4,-95,-79,-99,-98,-144
-80,-15,65,47,-72,24,12,-89,-68,-90,-88,-137
-77,-11,66,44,-71,27,21,-73,-57,-86,-85,-133
-70,-6,63,37,-66,28,26,-59,-31,-72,-67,-119
-22,47,69,-13,-46,58,47,-33,14,-35,-41,-97
31,92,61,-62,-15,76,52,-3,39,-12,-39,-89
70,87,17,-79,26,52,0,-46,2,-24,-40,-90
59,47,-12,-53,35,17,-47,-98,-45,-54,-41,-87
82,54,-28,-68,55,13,-52,-102,-62,-60,-39,-84
72,58,-14,-65,42,22,-38,-117,-68,-59,-42,-84
15,18,3,-16,6,11,-27,-125,-73,-79,-66,-105
-57,-56,2,56,-29,-27,-24,-141,-98,-127,-121,-160
-76,-65,11,70,-43,-27,-17,-139,-109,-134,-135,-180
-83,-75,8,79,-46,-33,-17,-142,-113,-136,-140,-186
-140,-129,11,135,-75,-59,-35,-158,-115,-157,-156,-198
-114,-104,11,109,-62,-46,-46,-146,-103,-138,-138,-190
-82,-75,6,78,-44,-34,-25,-150,-110,-165,-161,-201
-62,-59,3,60,-32,-28,-23,-133,-91,-121,-119,-178
-78,-76,2,77,-40,-37,0,-141,-104,-173,-170,-207
-131,-81,51,106,-91,-15,54,-117,-77,-176,-196,-242
-88,-60,28,73,-57,-16,86,65,72,-68,-151,-216
482,482,0,-482,240,241,-32,532,685,944,822,479
1040,908,-132,-974,586,388,-431,470,928,1779,1765,1268
454,402,-52,-428,253,175,-532,-500,-42,335,594,677
-110,153,263,-22,-187,208,-239,-677,-447,-483,-236,-19
-84,58,142,13,-113,100,-70,-234,-177,-187,-143,-129
-129,-106,23,117,-75,-41,-5,-167,-147,-247,-235,-206
-121,-102,19,111,-69,-41,18,-117,-102,-162,-166,-200
-148,-164,-16,156,-65,-90,25,-104,-130,-202,-202,-236
-143,-144,-2,144,-70,-73,34,-91,-113,-174,-174,-222
-119,-143,-24,131,-47,-83,38,-82,-108,-169,-175,-217
-102,-123,-20,113,-41,-71,41,-81,-112,-169,-172,-213
-81,-113,-32,97,-24,-72,39,-67,-87,-147,-151,-201
-84,-113,-29,98,-27,-71,41,-66,-87,-154,-154,-202
-64,-94,-30,79,-17,-62,39,-40,-69,-123,-131,-185
-64,-93,-30,79,-17,-61,41,-21,-61,-120,-121,-178
-40,-75,-35,58,-2,-55,46,6,-36,-86,-91,-157
-10,-57,-46,34,18,-51,50,46,-8,-60,-68,-136
23,-24,-47,1,35,-35,47,101,41,-6,-20,-102
61,10,-50,-36,55,-20,42,151,91,65,36,-57
101,53,-48,-77,74,3,39,212,148,135,105,-4
178,130,-48,-154,112,41,36,288,233,237,199,73
202,161,-41,-181,121,60,30,333,283,304,262,120
207,176,-31,-192,119,73,33,382,333,367,318,160
277,251,-25,-264,151,113,42,422,372,412,364,199
263,250,-13,-256,138,118,37,380,353,377,337,181
178,192,14,-185,81,103,34,285,287,288,261,129
104,139,35,-122,34,87,31,162,179,165,160,54
35,69,34,-52,0,52,26,47,75,56,57,-23
-11,19,31,-4,-21,25,24,-23,4,-31,-23,-74
-51,-23,28,36,-39,2,20,-69,-46,-88,-72,-108
-73,-50,23,61,-48,-13,20,-92,-82,-121,-105,-130
-77,-57,20,67,-48,-18,18,-98,-94,-135,-121,-138
-85,-65,20,75,-52,-22,14,-116,-91,-138,-119,-136
-80,-60,20,70,-50,-19,15,-122,-90,-146,-120,-135
-61,-41,20,51,-40,-10,18,-119,-90,-140,-120,-135
-82,-62,20,72,-51,-21,20,-121,-90,-135,-120,-135
-96,-76,20,86,-58,-28,20,-120,-90,-132,-118,-135
-76,-56,20,66,-48,-17,20,-119,-89,-126,-113,-134
-86,-55,31,70,-58,-12,20,-115,-84,-123,-110,-130
-85,-50,35,67,-60,-7,18,-112,-81,-118,-106,-128
-84,-47,37,65,-60,-4,15,-110,-78,-115,-102,-125
-84,-44,41,64,-62,-1,15,-106,-73,-112,-100,-122
-75,-39,36,57,-56,-1,13,-105,-71,-107,-95,-120
-71,-36,35,53,-53,0,8,-101,-65,-105,-91,-116
-65,-31,34,48,-49,1,11,-90,-56,-96,-86,-110
-51,-14,37,32,-44,11,12,-81,-45,-85,-83,-105
-15,15,30,-1,-23,23,22,-68,-35,-67,-73,-99
-14,36,50,-11,-32,43,48,-38,-4,-32,-50,-83
20,84,63,-52,-22,73,45,-1,27,-12,-27,-70
48,67,19,-58,15,43,-9,-25,0,-22,-27,-66
18,20,2,-19,8,11,-67,-91,-49,-55,-52,-63
66,56,-10,-60,37,23,-65,-102,-73,-53,-44,-57
90,69,-21,-79,55,24,-46,-98,-76,-50,-41,-55
17,31,14,-24,1,22,-42,-114,-77,-80,-69,-84
-56,-36,21,46,-38,-7,-36,-123,-87,-119,-116,-136
-81,-61,20,71,-51,-20,-34,-119,-85,-129,-141,-156
-76,-57,19,67,-47,-19,-30,-119,-84,-129,-143,-160
-79,-65,14,72,-47,-25,-25,-122,-88,-143,-151,-168
-81,-63,18,72,-49,-22,-24,-117,-80,-125,-133,-154
-89,-81,8,85,-48,-36,-11,-123,-94,-159,-162,-169
-81,-64,17,72,-49,-23,-6,-106,-81,-109,-123,-148
-101,-81,20,91,-60,-30,5,-108,-90,-155,-160,-179
-153,-95,58,124,-105,-18,47,-76,-77,-168,-193,-233
-131,-84,47,107,-89,-19,105,70,54,-88,-174,-226
438,441,3,-439,217,222,-12,502,625,827,724,420
1051,921,-130,-986,590,395,-407,522,931,1758,1752,1259
489,431,-58,-460,273,186,-526,-424,25,433,680,729
-112,154,267,-21,-190,210,-253,-676,-437,-480,-225,10
-71,95,167,-12,-119,131,-59,-218,-163,-189,-128,-103
-98,-83,15,90,-56,-34,1,-139,-137,-243,-217,-194
-100,-89,11,95,-55,-39,13,-87,-89,-161,-153,-182
-106,-134,-28,120,-39,-80,22,-74,-94,-187,-182,-211
-98,-116,-18,107,-39,-67,34,-73,-91,-170,-164,-204
-85,-115,-30,101,-27,-72,39,-58,-81,-159,-160,-203
-90,-112,-22,101,-33,-67,41,-60,-86,-166,-162,-209
-73,-99,-26,86,-23,-62,40,-40,-74,-142,-142,-201
-81,-107,-26,95,-27,-66,40,-38,-74,-147,-149,-209
-85,-105,-20,95,-32,-62,41,-15,-57,-122,-131,-192
-64,-95,-31,80,-16,-63,36,5,-49,-117,-127,-181
-38,-78,-41,58,1,-59,40,31,-28,-88,-98,-166
-9,-49,-40,29,16,-45,56,65,4,-63,-71,-147
23,-16,-39,-4,31,-28,55,108,41,-14,-25,-113
66,26,-41,-46,53,-7,55,173,93,54,32,-62
109,69,-40,-89,74,15,55,242,160,137,109,-4
145,108,-37,-127,91,35,55,302,230,224,191,59
214,180,-34,-197,124,73,53,373,300,304,266,124
252,216,-36,-233,143,90,49,417,350,369,327,166
272,239,-33,-255,152,103,51,436,384,395,354,191
253,244,-8,-248,130,118,46,412,362,362,340,186
189,210,21,-200,84,115,45,315,299,289,275,144
122,159,38,-141,42,98,45,201,210,183,168,71
34,73,40,-53,-3,56,38,90,103,62,64,-10
-14,20,34,-3,-25,27,31,17,37,-24,-3,-69
-38,-5,32,22,-35,13,24,-26,-18,-75,-57,-104
-46,-19,27,32,-36,3,17,-54,-52,-99,-87,-117
-52,-27,25,39,-39,-1,8,-66,-68,-119,-106,-128
-77,-47,30,62,-53,-8,9,-77,-77,-131,-122,-135
-74,-41,33,57,-53,-3,22,-74,-74,-129,-119,-135
-64,-27,38,45,-51,5,18,-75,-76,-130,-120,-135
-60,-20,40,40,-50,10,12,-75,-74,-130,-120,-135
-63,-23,40,43,-51,9,9,-75,-75,-130,-119,-135
-71,-31,40,51,-56,4,3,-72,-74,-126,-117,-133
-64,-24,40,44,-52,8,1,-69,-69,-119,-113,-128
-62,-21,41,41,-52,10,4,-70,-71,-116,-112,-125
-72,-17,55,44,-63,19,6,-65,-67,-109,-108,-122
-65,-10,55,37,-60,22,4,-65,-65,-104,-106,-117
-68,-18,50,43,-59,16,6,-64,-65,-98,-104,-115
-67,-17,50,42,-58,17,4,-55,-61,-91,-96,-109
-31,11,42,10,-37,26,7,-46,-55,-82,-87,-106
-14,38,52,-12,-33,45,22,-35,-50,-75,-79,-101
2,40,39,-21,-18,39,18,-18,-43,-59,-67,-98
10,55,45,-33,-17,50,38,21,-12,-32,-50,-89
54,111,57,-83,-1,83,51,48,32,-26,-45,-61
97,115,18,-106,39,66,9,27,17,-22,-44,-54
74,71,-3,-73,38,34,-41,-10,-38,-39,-46,-62
101,79,-22,-90,62,28,-57,-33,-53,-49,-44,-59
93,76,-17,-84,55,29,-46,-36,-60,-55,-44,-60
33,43,11,-38,11,27,-43,-47,-66,-75,-67,-80
-26,-11,14,18,-20,1,-38,-62,-75,-100,-114,-128
-72,-54,18,62,-44,-18,-31,-68,-94,-137,-140,-162
-66,-54,12,60,-38,-21,-30,-70,-94,-135,-137,-162
-67,-58,9,62,-37,-24,-22,-72,-98,-144,-153,-171
-56,-46,10,51,-33,-18,-21,-66,-87,-120,-133,-163
-56,-57,-1,56,-27,-29,-14,-75,-96,-144,-161,-179
-59,-41,18,50,-38,-11,-13,-65,-83,-108,-136,-165
-74,-65,9,69,-42,-28,-2,-63,-91,-137,-160,-185
-109,-66,43,88,-76,-12,49,-37,-59,-165,-184,-224
-120,-80,40,99,-80,-20,99,84,34,-122,-196,-254
330,321,-9,-325,169,156,33,495,506,599,492,238
1043,909,-134,-976,588,388,-339,662,971,1736,1702,1178
694,562,-131,-628,412,216,-538,-216,194,724,939,883
-19,211,230,-96,-125,220,-285,-658,-433,-425,-165,84
-73,120,193,-24,-133,156,-88,-250,-202,-201,-123,-102
-93,-91,2,92,-47,-44,-13,-120,-142,-235,-198,-197
-113,-94,19,104,-65,-38,27,-67,-98,-164,-153,-198
-87,-111,-24,99,-31,-67,37,-48,-102,-169,-161,-217
-87,-103,-16,95,-35,-59,42,-52,-108,-174,-159,-220
-69,-104,-35,87,-16,-69,39,-34,-90,-147,-140,-207
-65,-107,-42,86,-11,-75,41,-36,-96,-167,-153,-206
-64,-107,-44,86,-10,-75,41,-15,-77,-136,-126,-190
-68,-116,-48,93,-10,-82,46,-7,-81,-147,-137,-191
-58,-100,-42,79,-8,-70,45,20,-65,-119,-117,-175
-46,-94,-48,71,1,-71,45,36,-55,-113,-117,-169
-24,-74,-50,49,13,-62,45,59,-39,-84,-97,-157
3,-58,-61,28,32,-59,45,98,-13,-55,-70,-136
41,-29,-70,-6,55,-49,44,141,22,-17,-31,-101
96,26,-70,-61,82,-22,40,204,77,49,30,-56
127,55,-72,-91,100,-8,40,268,137,124,101,-8
161,92,-69,-126,114,12,40,334,205,211,183,47
220,160,-60,-189,139,50,40,402,274,293,259,108
259,208,-52,-233,155,78,40,450,327,360,328,161
287,243,-45,-265,166,99,45,471,359,398,364,189
273,239,-34,-256,154,102,44,451,358,390,350,187
227,223,-5,-225,116,109,40,382,313,330,298,151
162,174,12,-168,75,93,37,270,222,218,199,80
77,94,17,-86,30,56,32,150,112,96,87,1
26,44,18,-35,3,31,29,66,37,4,9,-60
-9,3,12,3,-11,7,26,19,-11,-53,-39,-96
-23,-15,8,19,-15,-4,23,-16,-55,-88,-78,-118
-26,-23,4,24,-15,-9,20,-20,-64,-107,-90,-133
-32,-33,-1,33,-15,-17,18,-26,-69,-109,-96,-135
-25,-30,-5,28,-9,-17,14,-39,-82,-105,-107,-135
-46,-45,1,45,-23,-22,16,-34,-80,-105,-103,-135
-49,-56,-7,53,-21,-32,24,-35,-80,-105,-101,-135
-22,-38,-16,30,-3,-27,25,-35,-75,-105,-98,-135
-22,-32,-9,27,-6,-20,25,-35,-75,-105,-95,-131
-24,-29,-5,27,-9,-17,25,-35,-74,-102,-94,-126
-24,-26,-2,25,-10,-13,25,-32,-69,-99,-89,-124
-28,-24,5,26,-16,-9,24,-27,-71,-96,-86,-119
-24,-20,4,21,-14,-7,19,-24,-67,-93,-83,-116
-26,-20,6,23,-16,-6,21,-21,-64,-90,-79,-112
-25,-10,16,17,-20,3,18,-17,-66,-89,-75,-106
-17,-5,13,11,-15,4,24,-14,-61,-81,-72,-101
-3,6,9,-2,-6,7,34,-9,-54,-75,-59,-95
7,11,4,-10,2,7,44,10,-32,-55,-48,-91
12,37,25,-25,-7,31,75,47,-14,-19,-27,-73
55,92,37,-74,9,64,69,62,0,3,-1,-54
82,84,2,-83,40,43,25,44,6,1,-3,-48
96,64,-31,-80,63,16,-22,2,-48,-38,-16,-47
97,55,-42,-76,69,6,-39,-24,-77,-60,-20,-41
67,43,-24,-55,45,10,-16,-23,-74,-60,-33,-40
35,22,-12,-28,23,5,-5,-40,-79,-70,-55,-75
-21,-38,-18,30,-1,-28,-2,-53,-89,-106,-102,-119
-47,-59,-12,53,-17,-35,2,-57,-93,-115,-107,-128
-59,-76,-17,68,-21,-47,4,-66,-96,-121,-111,-137
-57,-76,-19,67,-18,-47,11,-63,-106,-139,-132,-136
-45,-72,-27,59,-8,-49,11,-55,-101,-124,-121,-131
-57,-81,-24,70,-16,-52,24,-59,-111,-153,-147,-142
-52,-67,-15,59,-18,-41,29,-45,-96,-118,-114,-125
-81,-104,-24,93,-28,-64,38,-53,-116,-166,-163,-168
-116,-98,18,107,-67,-40,82,-23,-90,-162,-186,-206
-91,-98,-7,95,-42,-53,144,147,53,-78,-156,-201
488,435,-53,-461,271,190,2,603,656,935,839,503
1079,900,-179,-989,629,360,-422,536,910,1799,1830,1347
511,465,-46,-488,278,210,-504,-442,-49,385,688,795
-77,217,294,-70,-186,255,-207,-620,-441,-438,-170,65
-78,56,134,11,-106,95,-37,-174,-176,-169,-124,-98
-96,-128,-33,112,-31,-80,21,-101,-176,-242,-219,-182
-92,-122,-30,107,-31,-76,42,-55,-136,-167,-150,-182
-104,-154,-50,129,-27,-101,61,-55,-141,-200,-189,-208
-97,-139,-42,119,-27,-90,68,-47,-129,-175,-163,-191
-92,-159,-66,126,-13,-113,63,-39,-123,-172,-169,-188
-79,-150,-71,115,-4,-110,67,-36,-121,-174,-167,-182
-81,-158,-77,120,-2,-118,61,-9,-110,-156,-154,-172
-90,-164,-74,128,-8,-119,61,-3,-109,-163,-161,-172
-71,-147,-75,109,2,-111,59,12,-92,-142,-145,-157
-63,-137,-75,100,6,-106,70,27,-85,-137,-144,-153
-28,-107,-79,68,26,-93,83,60,-60,-93,-107,-130
-4,-81,-77,43,37,-79,80,100,-27,-55,-72,-98
39,-46,-85,4,62,-65,72,142,20,-4,-26,-68
102,-1,-103,-50,102,-52,65,210,72,65,36,-28
141,38,-104,-89,122,-33,57,282,137,146,118,39
181,80,-101,-130,141,-10,51,343,212,241,208,113
219,129,-90,-174,154,20,56,401,270,306,274,160
260,180,-80,-220,170,50,62,449,326,369,330,203
266,196,-70,-231,167,63,64,455,356,406,356,235
213,168,-44,-190,128,62,72,428,349,374,329,219
178,149,-29,-163,103,59,73,345,286,299,270,174
135,105,-30,-120,82,37,66,215,180,179,163,105
79,49,-30,-64,54,9,62,110,82,63,54,31
25,-4,-30,-11,28,-17,56,26,-10,-23,-30,-21
-21,-51,-30,36,5,-40,50,-14,-58,-79,-80,-55
-34,-64,-30,49,-2,-47,45,-35,-81,-107,-99,-71
-51,-80,-29,66,-10,-54,40,-60,-106,-128,-114,-68
-51,-87,-36,69,-7,-61,40,-64,-112,-136,-115,-63
-42,-84,-42,63,0,-62,39,-66,-116,-135,-115,-60
-49,-86,-37,68,-6,-61,35,-64,-114,-135,-115,-56
-70,-105,-35,88,-18,-70,34,-63,-110,-142,-123,-52
-79,-110,-32,95,-23,-71,41,-56,-102,-139,-130,-49
-69,-98,-29,84,-20,-63,45,-58,-96,-129,-122,-40
-61,-94,-32,78,-14,-63,38,-75,-90,-123,-116,-24
-54,-82,-28,68,-13,-54,34,-73,-81,-113,-109,-17
-66,-91,-25,79,-20,-58,31,-67,-89,-114,-103,-10
-81,-102,-22,92,-30,-62,23,-64,-96,-107,-98,0
-76,-93,-17,85,-30,-55,37,-58,-96,-95,-91,17
-66,-82,-16,75,-25,-48,55,-56,-93,-86,-85,41
-56,-70,-14,63,-21,-42,56,-48,-99,-76,-78,41
-19,-54,-35,37,8,-44,53,-34,-75,-64,-72,52
-8,-22,-14,15,4,-18,65,6,-33,-30,-52,88
1,22,21,-12,-10,21,74,31,-8,4,-38,110
49,57,8,-53,20,33,35,12,0,17,-41,133
42,24,-18,-33,30,3,7,-27,-58,-21,-46,134
60,-5,-66,-27,63,-35,-8,-59,-84,-50,-45,150
67,-4,-71,-31,70,-38,-19,-50,-76,-46,-43,177
-23,-71,-48,47,13,-59,-7,-64,-101,-65,-62,166
-65,-116,-51,90,-6,-83,-1,-89,-121,-99,-104,121
-60,-110,-49,85,-5,-79,10,-83,-131,-126,-132,97
-80,-130,-49,105,-15,-89,20,-78,-126,-117,-129,104
-90,-142,-52,116,-19,-97,26,-82,-136,-137,-157,93
-78,-124,-46,101,-16,-84,25,-68,-122,-109,-131,116
-93,-153,-59,123,-17,-106,28,-90,-142,-146,-160,120
-87,-144,-57,116,-15,-100,33,-93,-138,-114,-132,145
-112,-165,-53,139,-29,-109,26,-85,-137,-123,-151,114
-125,-162,-37,144,-44,-99,66,-75,-139,-179,-216,88
-126,-173,-47,150,-40,-110,129,47,-46,-161,-251,65
224,187,-37,-205,130,75,63,436,452,555,421,517
951,909,-42,-930,496,433,-306,628,1053,2023,1926,1630
653,632,-21,-643,337,305,-549,-241,309,1123,1309,1483
-56,163,219,-53,-138,191,-320,-785,-510,-446,-131,509
-97,67,163,15,-130,115,-85,-337,-295,-258,-189,233
-122,-159,-37,140,-42,-98,2,-146,-189,-224,-256,158
-107,-157,-49,132,-29,-102,37,-109,-154,-199,-222,153
-98,-190,-91,144,-3,-140,46,-71,-147,-182,-212,137
-116,-205,-89,160,-13,-147,53,-68,-156,-201,-222,139
-87,-187,-99,137,6,-143,48,-48,-136,-161,-190,171
-95,-197,-102,146,4,-149,51,-56,-148,-193,-211,170
-81,-178,-97,130,8,-137,50,-39,-131,-167,-179,202
-81,-186,-105,134,12,-145,49,-42,-134,-182,-193,217
-70,-180,-110,125,20,-145,45,-30,-119,-161,-170,233
-63,-182,-119,123,28,-150,40,-15,-118,-161,-167,238
-56,-164,-109,110,27,-136,38,13,-104,-136,-152,252
-48,-160,-112,104,32,-136,33,43,-75,-106,-126,289
-7,-139,-132,73,63,-135,29,82,-34,-55,-81,331
47,-86,-133,19,90,-109,40,151,31,33,-6,373
78,-47,-125,-15,102,-86,46,216,88,109,69,431
121,-1,-121,-60,121,-61,44,289,166,211,168,498
153,38,-114,-95,133,-38,49,342,233,292,236,541
209,98,-111,-154,160,-6,51,394,294,363,302,583
238,140,-98,-189,168,21,50,429,344,423,354,617
225,147,-78,-186,151,34,45,405,338,416,332,605
173,127,-46,-149,109,40,40,330,297,340,280,560
84,46,-38,-65,61,4,36,211,196,213,167,477
31,-10,-41,-10,36,-25,31,101,83,85,48,396
-23,-61,-38,42,8,-49,26,17,-9,-21,-38,342
-64,-122,-57,93,-3,-90,22,-48,-74,-84,-100,290
-103,-159,-56,131,-23,-108,20,-76,-107,-109,-128,261
-107,-164,-57,136,-24,-111,17,-98,-129,-134,-145,259
-85,-152,-67,119,-9,-109,14,-117,-139,-147,-143,260
-89,-149,-61,119,-14,-105,11,-115,-141,-145,-151,259
-80,-139,-59,110,-11,-99,9,-113,-139,-144,-155,260
-81,-135,-54,109,-13,-95,5,-110,-140,-140,-150,260
-94,-145,-51,120,-22,-98,5,-110,-140,-140,-148,260
-101,-149,-48,125,-27,-98,4,-108,-137,-138,-143,260
-93,-137,-44,115,-24,-90,0,-105,-135,-132,-140,260
-89,-134,-45,112,-21,-89,0,-105,-135,-128,-136,260
-80,-125,-45,103,-17,-85,2,-105,-131,-123,-134,260
-75,-120,-45,98,-15,-82,9,-104,-130,-119,-135,263
-87,-132,-45,110,-21,-88,14,-107,-130,-114,-135,265
-82,-121,-39,102,-21,-80,20,-115,-124,-109,-135,265
-97,-133,-36,116,-31,-84,9,-116,-115,-99,-134,264
-99,-129,-31,114,-34,-80,3,-114,-112,-92,-121,266
-60,-88,-27,74,-16,-57,22,-83,-96,-78,-107,269
-36,-56,-19,47,-8,-37,45,-60,-63,-51,-88,284
-43,-39,4,41,-23,-17,50,-59,-37,-19,-58,310
-27,-40,-13,33,-7,-27,-8,-65,-55,-7,-50,317
12,-40,-52,14,32,-46,-52,-102,-104,-47,-73,308
34,-40,-74,3,54,-57,-39,-111,-110,-65,-74,309
45,-38,-83,-3,64,-60,-30,-108,-109,-68,-76,294
-11,-85,-74,48,32,-79,-20,-127,-119,-83,-105,256
-72,-148,-76,110,2,-112,-14,-145,-140,-121,-156,226
-98,-167,-69,133,-14,-118,-11,-160,-157,-139,-174,212
-119,-189,-70,154,-24,-129,-9,-159,-153,-138,-170,196
-119,-184,-66,152,-26,-125,-2,-162,-159,-151,-189,164
-120,-181,-61,151,-29,-121,-2,-157,-149,-122,-179,160
-135,-200,-65,167,-35,-132,6,-164,-162,-156,-198,142
-121,-171,-50,146,-35,-110,9,-156,-146,-104,-155,157
-116,-182,-66,149,-25,-124,32,-152,-146,-159,-207,130
-148,-186,-37,167,-55,-111,90,-127,-128,-188,-256,65
-98,-164,-66,131,-16,-115,149,80,58,-71,-195,86
435,421,-14,-428,224,204,29,552,743,1069,873,812
922,923,1,-922,460,461,-409,451,1057,2153,2017,1711
395,406,11,-401,192,208,-536,-542,0,554,811,1129
-119,102,222,8,-171,162,-240,-746,-538,-542,-253,279
-120,-22,98,71,-109,38,-48,-290,-239,-213,-185,117
-169,-213,-44,191,-62,-128,29,-203,-199,-271,-272,29
-146,-190,-45,168,-50,-117,56,-158,-151,-189,-209,27
-149,-229,-79,189,-35,-154,70,-151,-169,-229,-238,-3
-154,-222,-68,188,-43,-144,70,-142,-169,-208,-220,-12
-123,-220,-97,172,-13,-159,72,-125,-155,-197,-216,-16
-134,-220,-86,177,-24,-153,89,-120,-158,-205,-219,-12
-118,-210,-92,164,-13,-150,91,-101,-140,-179,-204,-14
-122,-212,-90,167,-16,-151,94,-95,-139,-193,-205,-35
-130,-219,-89,175,-21,-153,97,-79,-121,-164,-188,-21
-91,-185,-94,138,2,-139,108,-65,-104,-159,-191,-16
-62,-162,-100,112,20,-131,111,-34,-77,-127,-151,-5
-53,-163,-110,109,29,-137,109,6,-46,-90,-116,6
-31,-135,-104,83,37,-119,112,58,-1,-32,-64,28
20,-97,-117,38,69,-107,118,127,56,41,4,71
54,-41,-95,-6,75,-67,121,206,136,132,92,126
133,16,-117,-74,125,-50,119,262,208,228,179,184
162,76,-86,-119,124,-5,121,324,277,311,253,228
200,113,-87,-156,144,12,119,373,340,378,312,267
175,132,-43,-153,108,44,121,374,362,406,343,281
-80,125,205,-22,-143,165,118,345,339,375,321,252
-55,95,150,-20,-102,122,125,255,271,276,227,196
35,62,28,-49,3,45,140,132,164,161,126,114
-66,-11,55,39,-60,21,141,23,60,37,16,35
-197,-70,127,133,-162,28,146,-57,-26,-63,-77,-26
-285,-99,186,192,-236,43,135,-103,-69,-113,-119,-68
-276,-124,153,200,-214,14,127,-126,-129,-142,-146,-94
