I,II,III,aVR,aVL,aVF,V1,V2,V3,V4,V5,V6
-7,18,25,-5,-16,21,-215,-182,56,159,267,171
-19,10,29,4,-24,19,-208,-186,46,150,260,167
-22,16,38,3,-30,26,-202,-187,46,157,262,171
-14,16,30,-1,-23,23,-196,-179,48,143,250,157
-74,113,186,-20,-131,149,-166,-198,24,161,265,177
-14,123,138,-55,-77,130,-65,-7,226,309,378,259
173,173,0,-173,86,87,129,535,891,774,649,426
515,252,-263,-383,389,-5,-114,968,2025,1618,1128,728
428,-211,-639,-108,534,-425,-580,286,1239,907,691,402
46,-361,-407,158,226,-383,-501,-429,-310,-223,14,-34
39,-114,-153,38,96,-134,-280,-236,-121,-19,153,97
14,-67,-81,27,48,-74,-224,-199,15,82,213,133
-27,-19,8,23,-17,-5,-198,-217,-9,91,210,131
-37,-20,17,28,-27,-2,-200,-184,46,121,233,147
-69,-8,60,38,-64,26,-192,-202,-2,98,216,133
-51,0,51,25,-51,26,-191,-175,38,128,233,148
-52,4,56,24,-55,30,-186,-185,6,109,226,141
-38,18,56,10,-47,36,-183,-164,36,131,243,148
-33,20,53,6,-43,36,-178,-163,32,123,238,148
-24,35,58,-6,-41,46,-170,-150,55,133,245,160
-25,38,63,-7,-44,50,-164,-133,68,136,246,162
-15,59,74,-22,-45,67,-158,-106,84,152,254,167
-3,75,78,-37,-41,77,-147,-72,121,175,267,179
-7,84,91,-39,-49,87,-129,-38,148,186,277,185
7,113,106,-61,-50,110,-105,8,204,221,300,203
25,149,124,-87,-50,136,-83,55,259,256,321,226
43,190,147,-117,-52,168,-67,114,331,301,355,253
59,231,172,-145,-57,202,-58,159,394,351,386,281
79,263,184,-171,-52,223,-61,178,429,386,415,306
97,279,181,-188,-42,230,-74,174,441,397,437,323
100,275,175,-188,-37,225,-92,149,421,387,430,336
97,266,170,-182,-37,217,-118,108,381,378,420,330
83,245,163,-164,-40,204,-147,48,321,352,403,312
66,204,138,-135,-36,171,-172,-16,244,310,372,293
48,159,111,-104,-32,135,-194,-77,179,271,342,263
29,124,95,-76,-34,109,-201,-117,132,229,316,243
15,102,87,-58,-36,94,-204,-139,96,198,300,228
11,92,81,-52,-35,87,-208,-161,76,189,292,215
11,85,74,-49,-32,80,-213,-170,69,183,287,210
12,79,68,-46,-28,73,-220,-170,62,175,282,205
11,72,61,-42,-25,66,-217,-170,56,167,276,200
3,66,63,-35,-31,65,-213,-170,49,162,271,193
3,68,65,-36,-32,66,-210,-170,46,164,273,191
6,71,65,-39,-29,68,-205,-167,50,167,275,196
10,80,70,-45,-30,75,-207,-165,53,169,277,199
16,85,70,-50,-28,77,-210,-165,58,172,280,204
16,87,71,-52,-28,79,-210,-165,59,179,281,205
15,90,76,-53,-30,82,-214,-165,55,180,285,205
19,93,74,-57,-28,84,-216,-165,55,180,285,210
20,95,75,-58,-28,85,-214,-169,55,180,284,210
20,95,75,-58,-28,85,-211,-170,55,180,285,210
20,95,75,-58,-28,85,-209,-170,55,179,284,210
15,94,79,-55,-32,86,-212,-171,57,182,289,209
27,108,81,-67,-28,94,-207,-170,62,189,295,215
42,141,99,-92,-29,120,-213,-172,67,197,303,225
45,155,110,-100,-33,132,-202,-177,70,206,309,235
67,166,99,-117,-16,132,-205,-180,74,213,316,244
113,205,92,-159,10,148,-265,-185,81,234,338,264
132,217,85,-175,23,151,-287,-185,86,249,344,275
114,189,75,-152,19,132,-276,-185,74,230,327,254
86,159,74,-123,6,116,-272,-185,62,215,319,241
63,123,61,-93,1,92,-263,-183,50,191,306,230
40,101,61,-71,-11,81,-250,-196,28,166,293,219
17,65,48,-41,-16,56,-237,-193,34,168,287,212
1,46,46,-24,-23,46,-224,-196,15,148,267,197
6,49,42,-27,-18,45,-217,-189,26,158,269,199
-3,29,33,-13,-18,31,-206,-189,7,129,247,181
-1,44,46,-22,-24,45,-199,-192,13,146,255,188
-7,15,22,-4,-14,18,-169,-169,3,117,231,165
-59,119,178,-31,-118,148,-132,-184,-18,137,247,183
-9,141,150,-66,-80,145,-47,-27,165,281,353,261
169,178,9,-173,80,93,155,511,786,704,600,418
516,274,-242,-395,379,16,-87,973,1934,1557,1091,715
487,-187,-674,-150,581,-431,-561,345,1277,939,698,420
87,-367,-454,140,271,-411,-471,-405,-305,-214,-2,-10
54,-112,-166,29,110,-138,-258,-246,-183,-53,125,103
50,-42,-91,-4,71,-66,-207,-193,-18,76,205,148
-19,-4,15,12,-17,6,-172,-216,-65,77,194,141
-17,0,17,8,-17,8,-172,-179,-11,105,216,154
-29,15,44,7,-36,29,-161,-198,-51,86,206,146
-15,21,36,-3,-26,29,-156,-168,1,113,228,164
-23,23,46,0,-35,34,-149,-174,-21,108,216,162
-16,33,49,-9,-33,41,-143,-153,11,139,229,167
-17,34,51,-9,-34,42,-138,-148,8,125,226,163
-16,43,58,-14,-37,50,-131,-134,23,132,232,165
-12,47,59,-17,-35,52,-127,-122,37,133,239,169
-13,53,66,-21,-40,60,-121,-101,45,147,250,180
0,68,68,-34,-34,68,-110,-62,79,167,260,190
8,86,77,-47,-35,81,-86,-27,112,181,271,200
15,109,94,-62,-39,101,-60,24,169,218,294,222
27,138,111,-82,-43,124,-41,77,224,252,307,237
47,177,130,-112,-42,153,-36,132,293,303,344,264
71,222,152,-147,-41,187,-34,182,362,351,388,294
96,253,157,-175,-30,205,-25,187,402,383,410,317
118,265,147,-192,-15,206,-30,179,409,390,426,331
123,268,146,-196,-12,207,-51,160,393,374,417,320
134,271,136,-203,-1,203,-83,117,373,379,409,321
106,239,133,-173,-14,186,-115,68,299,345,391,313
65,190,124,-128,-30,157,-140,5,241,311,373,299
59,147,88,-103,-15,117,-162,-56,169,259,341,268
47,125,78,-87,-15,101,-177,-106,115,240,313,234
42,111,69,-77,-14,90,-183,-128,78,224,304,232
27,103,76,-65,-24,89,-190,-133,61,206,299,225
72,138,65,-105,3,101,-211,-115,158,308,373,289
101,295,194,-199,-46,244,-197,-74,376,507,507,391
175,354,179,-265,-2,266,-114,340,1084,941,700,471
177,-177,-354,0,266,-265,269,1059,1173,446,239,63
-108,-884,-776,497,334,-830,849,1403,312,-768,-719,-712
-295,-1195,-900,745,303,-1047,967,1026,-294,-1160,-1046,-991
-356,-994,-638,675,142,-816,654,163,-694,-1046,-860,-801
-357,-466,-109,411,-123,-287,419,-175,-545,-593,-438,-415
-250,-158,92,204,-171,-33,514,153,-89,-142,-73,-115
-178,-110,69,144,-123,-20,631,285,18,-26,39,-20
-133,-103,29,118,-81,-37,367,88,-54,-6,92,44
-41,-11,30,26,-36,9,62,-38,-46,102,207,153
47,110,63,-79,-8,86,-126,-106,38,257,341,270
64,155,91,-110,-14,122,-269,-232,52,282,378,306
82,187,104,-135,-11,145,-322,-291,65,305,404,327
98,209,111,-154,-6,160,-359,-302,74,336,436,352
104,248,144,-176,-21,196,-374,-299,104,377,467,383
140,328,189,-235,-25,258,-404,-300,155,444,527,436
160,382,222,-271,-31,301,-415,-301,211,511,587,488
199,448,248,-324,-25,348,-453,-299,296,612,666,559
278,569,291,-424,-7,430,-576,-294,399,749,791,668
349,663,314,-506,17,489,-654,-283,510,884,909,774
418,742,324,-580,47,533,-704,-276,610,994,1000,847
436,786,351,-611,42,568,-749,-266,682,1075,1058,895
433,791,359,-612,37,575,-752,-255,713,1094,1072,908
418,772,354,-595,32,563,-742,-243,700,1065,1054,889
371,713,342,-542,14,527,-714,-221,649,1002,999,841
331,639,308,-485,12,473,-646,-189,576,889,898,747
273,531,258,-402,7,394,-543,-150,485,748,766,633
210,412,202,-311,4,306,-438,-128,388,604,631,517
150,305,155,-227,-3,230,-349,-131,301,475,514,415
106,222,116,-164,-5,169,-259,-128,224,375,430,342
78,172,94,-125,-8,133,-206,-125,159,299,373,287
46,132,85,-89,-20,108,-194,-125,111,246,330,249
32,104,71,-68,-20,87,-179,-125,76,212,295,230
21,89,68,-55,-23,78,-175,-139,54,195,277,219
11,81,70,-46,-30,76,-173,-149,41,180,271,207
3,72,70,-37,-34,71,-169,-156,30,172,264,197
-7,63,70,-28,-39,66,-167,-160,15,168,256,192
-14,56,70,-21,-42,62,-164,-164,1,162,249,187
-15,55,70,-20,-43,62,-165,-171,-10,156,242,183
-10,54,64,-23,-38,59,-165,-169,-15,151,239,178
-7,50,57,-22,-32,53,-165,-172,-20,146,240,174
-1,50,51,-24,-26,50,-165,-175,-26,144,236,175
6,50,44,-28,-19,47,-164,-174,-32,144,234,175
12,50,37,-31,-12,43,-166,-179,-34,140,234,175
15,50,34,-33,-9,42,-170,-186,-30,140,230,175
14,50,35,-32,-10,42,-169,-190,-31,138,230,175
15,50,35,-33,-10,42,-172,-189,-28,134,228,172
14,49,35,-32,-10,42,-175,-192,-25,135,225,169
12,47,35,-30,-11,41,-174,-195,-25,135,224,170
8,43,35,-26,-15,39,-179,-195,-29,135,231,170
11,50,39,-31,-15,45,-180,-199,-36,135,236,170
20,61,40,-40,-10,50,-180,-200,-40,135,235,169
21,60,40,-40,-9,50,-180,-200,-40,135,233,165
18,59,40,-38,-11,49,-180,-200,-40,135,229,165
16,55,39,-35,-12,47,-180,-200,-40,135,230,165
12,55,43,-34,-16,48,-180,-200,-40,135,226,165
10,55,45,-33,-18,50,-180,-200,-44,134,225,165
10,55,45,-33,-18,50,-180,-200,-45,130,225,167
6,55,49,-31,-22,52,-180,-200,-45,130,220,170
5,55,50,-30,-23,52,-180,-200,-45,130,219,170
5,55,50,-30,-23,52,-183,-200,-45,130,221,170
1,55,55,-28,-27,55,-185,-196,-45,130,225,170
5,60,55,-33,-25,57,-185,-194,-45,126,225,170
5,60,55,-33,-25,57,-185,-195,-45,125,225,170
5,60,56,-33,-25,58,-185,-194,-45,125,225,170
5,59,54,-32,-25,56,-185,-195,-45,125,225,170
5,64,59,-35,-27,61,-185,-193,-45,125,221,170
9,75,66,-43,-29,71,-185,-190,-45,125,220,170
12,75,63,-44,-26,69,-185,-190,-45,125,220,170
15,75,60,-45,-23,67,-185,-190,-45,125,215,170
17,75,58,-46,-21,66,-185,-190,-45,125,215,170
21,75,54,-49,-17,65,-181,-190,-45,125,215,170
17,73,55,-45,-19,64,-179,-190,-44,125,215,170
15,69,55,-42,-20,61,-180,-190,-40,129,215,169
15,70,55,-43,-20,62,-179,-190,-40,130,215,165
11,66,55,-39,-22,60,-181,-190,-40,130,215,165
10,65,55,-38,-23,60,-178,-190,-40,135,215,164
10,65,55,-38,-23,60,-175,-189,-40,135,218,160
6,65,59,-35,-27,62,-175,-185,-36,136,220,159
0,64,64,-32,-33,64,-175,-181,-30,140,219,162
6,71,65,-39,-30,68,-175,-178,-25,145,221,168
19,106,87,-63,-34,97,-175,-173,-19,148,229,183
17,129,112,-73,-48,121,-176,-170,-14,152,236,192
18,128,110,-74,-46,119,-171,-174,-8,158,232,187
63,165,102,-114,-20,133,-200,-175,-5,180,252,208
106,203,97,-155,4,150,-229,-178,-5,207,280,234
104,190,86,-148,9,138,-220,-179,-5,197,270,225
74,157,83,-116,-4,120,-216,-182,-6,185,258,213
45,117,72,-81,-13,94,-213,-185,-9,175,245,203
28,98,70,-63,-22,84,-206,-186,-31,159,219,187
7,67,61,-37,-27,63,-205,-183,-34,156,213,174
-15,43,58,-14,-37,50,-193,-181,-52,132,200,154
-12,41,53,-15,-32,47,-186,-180,-43,141,205,159
-19,22,41,-2,-30,32,-174,-178,-51,117,191,150
-19,30,50,-6,-35,40,-165,-173,-43,127,195,156
-21,4,26,8,-24,15,-154,-155,-37,107,190,146
-76,93,169,-9,-123,131,-94,-150,-48,117,198,152
-32,124,155,-46,-94,139,-20,-9,119,257,291,224
163,161,-2,-162,82,79,171,496,694,658,532,377
511,291,-220,-401,366,36,12,918,1770,1493,1026,690
478,-93,-570,-192,524,-331,-535,261,1186,962,695,448
48,-329,-377,140,213,-353,-562,-517,-390,-224,-44,-26
3,-130,-134,64,69,-132,-297,-331,-318,-121,35,50
18,-66,-84,24,51,-75,-197,-186,-97,24,134,112
-56,-28,28,42,-42,-1,-156,-199,-141,26,114,103
-48,-18,29,33,-38,5,-153,-165,-70,75,141,117
-74,-13,62,43,-68,24,-142,-187,-112,48,125,101
-60,-1,59,31,-60,29,-138,-165,-70,79,142,109
-57,2,59,27,-58,30,-131,-176,-86,62,133,101
-54,12,67,21,-61,39,-124,-165,-68,83,143,111
-46,16,62,14,-55,39,-120,-157,-63,81,141,111
-43,25,68,9,-56,46,-111,-141,-47,92,152,117
-31,31,62,0,-47,46,-107,-130,-25,98,157,122
-35,37,72,-1,-54,54,-98,-124,-11,104,159,129
-31,51,82,-10,-57,66,-93,-90,15,122,166,131
-20,91,111,-36,-65,101,-86,-46,52,141,176,140
-26,101,127,-38,-76,113,-68,1,96,173,206,169
-19,107,126,-44,-73,116,-54,50,135,204,229,180
8,139,131,-73,-62,134,-39,99,193,237,253,197
37,167,130,-102,-46,148,-33,141,243,269,271,217
64,194,130,-129,-33,162,-35,173,287,304,284,224
67,197,131,-132,-32,164,-36,183,301,308,297,229
59,188,129,-123,-36,159,-41,170,294,300,298,234
53,183,131,-118,-39,157,-37,157,287,298,290,234
47,175,128,-111,-41,151,-52,132,263,291,284,225
55,170,115,-113,-30,142,-82,88,229,288,277,219
65,162,97,-114,-17,130,-114,43,196,282,271,211
52,135,83,-94,-16,109,-133,-4,160,263,265,204
34,106,72,-70,-20,89,-139,-44,125,238,254,196
28,88,60,-58,-16,74,-145,-71,95,217,236,185
26,78,52,-52,-13,65,-149,-94,78,207,223,174
19,74,55,-47,-18,64,-160,-108,74,202,216,162
14,69,55,-42,-20,62,-160,-114,69,197,209,155
10,65,55,-38,-23,60,-155,-115,63,191,202,152
5,61,55,-34,-25,58,-154,-115,57,186,196,148
5,59,54,-32,-25,56,-149,-119,52,188,190,144
5,64,59,-34,-27,61,-151,-120,50,191,190,141
6,71,65,-39,-29,67,-156,-120,50,193,190,137
5,70,65,-38,-30,67,-158,-120,50,197,189,135
5,70,65,-38,-30,67,-165,-121,50,205,196,135
5,71,65,-38,-30,67,-177,-119,49,203,200,135
4,69,65,-37,-30,66,-173,-130,45,198,195,135
8,73,65,-41,-29,69,-171,-142,45,196,193,135
6,74,68,-40,-32,71,-167,-139,45,190,188,134
9,80,71,-44,-31,75,-165,-141,44,191,184,135
9,79,70,-44,-30,75,-162,-140,44,194,188,135
9,92,83,-51,-38,87,-159,-140,48,200,190,135
10,113,104,-62,-47,108,-161,-140,50,207,190,135
18,117,99,-68,-41,107,-159,-140,51,216,200,134
66,154,88,-110,-11,120,-203,-153,54,225,218,155
91,173,82,-132,4,127,-242,-164,65,245,239,169
77,145,69,-111,4,107,-235,-165,72,250,239,153
52,117,65,-85,-7,91,-230,-165,56,225,215,143
32,86,54,-60,-11,70,-213,-164,49,217,200,130
6,56,50,-31,-22,53,-187,-166,27,183,168,102
-32,9,42,11,-37,25,-180,-164,17,163,152,89
-53,-22,31,37,-42,5,-170,-160,2,149,138,75
-45,-12,33,29,-39,10,-163,-157,6,160,141,72
-47,-32,15,39,-31,-9,-156,-151,7,149,131,58
-59,-20,39,39,-49,10,-148,-153,-9,148,128,52
-40,-34,7,37,-23,-14,-139,-140,14,159,130,42
-86,14,100,36,-93,57,-85,-143,-16,119,96,22
-72,45,117,13,-95,81,-23,-23,122,241,184,86
81,39,-41,-60,61,-1,156,407,606,570,388,212
402,206,-196,-304,299,5,115,909,1739,1522,956,574
467,-99,-566,-184,516,-332,-368,519,1620,1399,876,495
71,-400,-471,165,271,-436,-495,-337,-90,-18,4,-69
-34,-193,-159,114,63,-176,-270,-286,-326,-152,-68,-86
-4,-107,-103,56,50,-105,-170,-85,-12,100,83,-3
-70,-71,-1,70,-34,-36,-133,-145,-86,68,62,-38
-65,-54,11,59,-37,-21,-130,-117,1,124,102,-8
-78,-52,26,64,-52,-13,-126,-137,-45,84,72,-25
-64,-33,31,49,-47,-1,-123,-121,-5,118,93,-9
-60,-32,28,46,-44,-2,-121,-124,-16,98,80,-15
-56,-17,39,36,-47,11,-118,-120,-2,114,88,-8
-45,-14,31,29,-38,8,-115,-116,10,113,90,-10
-42,-3,39,22,-40,18,-106,-110,15,121,91,-11
-47,3,50,21,-49,26,-101,-95,40,134,96,-9
-45,19,63,13,-55,41,-94,-89,50,127,98,-10
-37,32,69,3,-53,50,-88,-61,86,159,110,6
-28,42,70,-7,-49,56,-82,-17,116,177,122,18
-20,62,82,-21,-51,72,-77,24,164,200,148,30
-5,102,108,-49,-57,105,-72,66,220,237,164,42
12,145,132,-79,-61,138,-69,124,288,280,189,63
26,188,162,-107,-68,175,-63,157,350,331,229,101
47,229,182,-138,-67,205,-60,177,373,355,255,127
55,252,197,-154,-71,224,-54,179,368,351,252,123
64,267,203,-166,-70,235,-64,145,356,348,243,115
55,247,193,-151,-69,220,-94,97,318,342,235,107
38,217,179,-128,-71,198,-115,43,257,316,228,100
35,185,150,-111,-57,167,-136,-9,188,274,213,89
20,147,127,-84,-54,137,-152,-63,121,227,183,64
5,117,112,-61,-54,114,-157,-109,66,184,152,36
-2,95,97,-47,-50,96,-165,-134,20,152,128,13
-5,90,95,-43,-50,92,-165,-157,-9,135,117,4
-7,85,92,-39,-49,88,-165,-161,-24,127,106,-2
-10,79,89,-35,-50,84,-165,-159,-30,121,94,-10
-13,73,86,-31,-49,79,-165,-165,-38,114,90,-18
-14,71,85,-29,-49,77,-165,-165,-41,107,90,-24
-15,76,91,-30,-54,83,-165,-165,-36,101,88,-25
-23,74,97,-26,-61,85,-165,-165,-35,103,84,-25
-27,78,105,-26,-66,91,-164,-165,-30,105,85,-25
-29,80,110,-25,-70,95,-166,-165,-30,105,88,-25
-30,80,110,-25,-70,95,-164,-165,-35,110,91,-25
-26,84,110,-29,-68,96,-168,-165,-35,110,89,-25
-25,85,110,-30,-68,97,-176,-168,-37,111,90,-25
-23,87,110,-32,-66,98,-174,-171,-40,115,89,-25
-21,90,112,-35,-67,101,-170,-170,-41,114,91,-25
-28,89,117,-31,-73,102,-168,-171,-38,115,95,-25
-34,87,120,-26,-77,103,-163,-170,-36,114,94,-25
-13,128,141,-58,-77,134,-168,-171,-34,115,106,-18
-14,150,164,-68,-89,157,-170,-176,-36,114,111,-6
-19,153,172,-67,-96,162,-169,-179,-34,116,110,1
30,203,174,-117,-72,188,-215,-184,-35,126,129,19
68,221,153,-145,-42,187,-250,-185,-35,127,133,40
64,194,130,-129,-34,162,-236,-186,-32,114,123,31
32,163,131,-98,-50,147,-223,-192,-50,104,118,17
4,122,118,-64,-57,120,-211,-187,-52,95,105,9
-20,96,116,-38,-68,106,-197,-186,-80,70,80,-17
-38,69,107,-16,-73,88,-189,-181,-93,65,73,-40
-50,50,100,0,-76,75,-179,-180,-103,36,57,-48
-47,58,104,-5,-75,81,-176,-177,-98,36,57,-43
-50,36,87,6,-69,61,-166,-172,-99,16,39,-52
-53,54,106,-1,-80,80,-161,-180,-105,13,37,-58
-47,23,69,12,-58,46,-142,-169,-93,8,27,-58
-94,99,193,-3,-144,146,-102,-194,-153,-16,11,-41
-65,169,234,-52,-150,201,-33,-66,11,141,126,17
54,197,143,-126,-45,170,163,392,518,489,341,153
382,370,-12,-376,197,179,19,870,1646,1429,897,515
474,-44,-518,-215,496,-281,-437,504,1516,1240,757,373
107,-384,-490,139,299,-437,-434,-276,-153,-149,-93,-185
9,-146,-155,69,82,-150,-225,-267,-372,-254,-137,-183
13,-47,-60,17,37,-54,-169,-148,-113,-54,-10,-101
-41,4,45,18,-43,24,-143,-197,-201,-83,-36,-127
-38,20,58,8,-48,39,-135,-158,-115,-7,4,-95
-62,19,81,22,-72,50,-121,-178,-158,-48,-18,-105
-55,32,87,12,-71,59,-116,-159,-118,-17,5,-87
-60,30,90,15,-75,60,-107,-163,-130,-33,-2,-90
-56,42,98,6,-77,70,-99,-149,-116,-22,8,-83
-55,41,96,7,-76,68,-93,-139,-110,-24,12,-80
-55,49,104,3,-80,76,-83,-132,-106,-17,16,-77
-52,51,103,0,-77,76,-78,-111,-80,-2,24,-72
-53,56,109,-2,-81,82,-71,-96,-72,3,27,-67
-39,74,113,-18,-77,94,-59,-63,-38,23,35,-55
-31,89,120,-29,-76,105,-34,-27,0,35,38,-49
-20,109,129,-45,-75,119,-12,21,50,60,47,-37
-12,141,153,-64,-83,147,8,68,105,89,68,-17
-1,179,180,-89,-91,179,26,121,175,138,100,12
19,221,201,-120,-91,211,21,177,249,194,140,41
38,256,219,-147,-91,237,10,191,299,238,173,67
63,280,217,-171,-77,248,4,182,300,246,175,83
65,280,215,-173,-75,247,-8,173,285,239,170,80
78,279,202,-179,-62,240,-20,143,266,233,168,71
68,282,213,-175,-72,247,-55,91,208,202,164,63
21,232,212,-127,-96,222,-86,31,130,164,147,56
18,172,153,-95,-68,162,-96,-27,56,126,113,38
6,138,132,-72,-63,135,-116,-79,1,88,76,18
-14,107,121,-47,-68,113,-122,-108,-39,59,54,7
-15,95,110,-40,-63,102,-119,-124,-71,37,45,-1
-14,90,104,-38,-59,97,-121,-133,-87,26,32,-10
-6,85,91,-40,-49,88,-119,-143,-87,19,22,-19
-9,82,90,-36,-50,86,-120,-145,-85,12,20,-16
-14,76,90,-31,-52,82,-120,-139,-85,4,20,-15
-15,75,90,-30,-53,82,-120,-137,-81,-3,20,-15
-15,75,90,-30,-53,82,-120,-132,-80,-2,20,-15
-15,75,90,-30,-53,82,-120,-130,-80,0,20,-15
-15,75,90,-30,-53,82,-120,-135,-75,0,25,-13
-15,74,90,-29,-53,82,-120,-135,-75,5,25,-9
-14,76,90,-31,-53,82,-119,-135,-75,5,26,-7
-11,79,90,-34,-51,84,-121,-135,-75,6,30,-4
-8,82,90,-37,-49,86,-119,-135,-76,12,30,-1
-6,85,90,-40,-48,87,-121,-138,-73,17,30,0
-8,85,93,-39,-51,89,-119,-141,-69,22,29,6
2,116,115,-59,-57,115,-112,-140,-62,29,42,15
8,146,138,-77,-65,141,-109,-143,-59,34,57,23
12,149,137,-80,-63,143,-97,-146,-54,40,62,30
50,174,124,-112,-37,149,-136,-144,-49,50,69,40
91,205,114,-148,-12,160,-185,-141,-57,59,82,51
93,194,102,-144,-5,148,-178,-139,-51,52,81,44
57,151,94,-104,-19,122,-168,-141,-63,34,63,33
29,119,90,-74,-31,104,-163,-140,-74,25,51,28
13,93,81,-53,-34,87,-138,-140,-93,-1,25,15
-18,65,82,-24,-51,73,-115,-139,-115,-11,14,10
-37,29,66,4,-52,47,-106,-132,-112,-24,2,-2
-34,41,75,-4,-55,58,-103,-139,-122,-37,-6,-9
-26,30,56,-3,-41,43,-99,-130,-109,-40,-12,-18
-38,32,70,3,-54,51,-91,-141,-135,-63,-29,-26
-19,33,52,-7,-36,42,-94,-129,-100,-43,-15,-27
-63,22,85,20,-74,53,-54,-136,-162,-80,-40,-59
-80,124,204,-22,-142,164,-16,-109,-118,6,29,6
2,111,109,-57,-54,109,158,214,200,183,139,92
251,292,41,-272,105,166,223,785,1155,928,580,378
524,140,-385,-332,454,-122,-227,841,1842,1410,845,504
246,-395,-641,74,444,-517,-428,42,422,197,89,-1
13,-273,-286,130,150,-279,-207,-305,-493,-438,-262,-200
58,-69,-127,5,93,-97,-117,-132,-149,-133,-63,-67
-16,-37,-20,27,3,-28,-75,-151,-202,-161,-80,-67
-26,-1,24,13,-25,11,-49,-122,-152,-114,-45,-45
-44,-16,28,30,-36,6,-46,-124,-174,-124,-59,-50
-49,0,49,24,-48,24,-36,-117,-167,-112,-55,-41
-38,-6,32,22,-35,13,-32,-106,-140,-100,-52,-37
-44,2,46,21,-45,24,-23,-108,-148,-104,-59,-35
-35,1,36,17,-35,18,-20,-88,-115,-84,-47,-28
-33,9,42,12,-38,25,-10,-84,-122,-90,-48,-33
-28,17,45,6,-37,31,-2,-62,-94,-73,-35,-26
-31,22,52,4,-42,37,6,-42,-87,-74,-33,-26
-27,30,57,-2,-42,43,18,-18,-53,-57,-23,-25
-19,40,59,-10,-40,49,30,10,-16,-36,-11,-20
-10,62,71,-26,-41,66,50,50,23,-7,3,-4
-6,84,90,-39,-48,87,73,109,75,23,22,20
11,123,113,-67,-51,118,98,164,135,57,52,42
27,165,138,-97,-56,151,104,220,206,109,84,76
50,204,153,-127,-52,178,95,262,259,145,110,101
78,226,148,-152,-35,186,89,255,283,171,125,115
73,216,143,-145,-35,179,84,243,279,175,120,123
72,208,136,-140,-32,172,66,214,252,157,111,113
65,198,132,-132,-33,165,33,160,204,137,103,105
50,166,117,-108,-33,141,4,103,136,103,96,97
47,129,82,-88,-18,105,-15,46,64,57,78,83
34,90,57,-62,-12,73,-23,-6,0,12,50,62
20,61,41,-41,-11,51,-30,-51,-51,-14,23,45
11,45,35,-29,-12,40,-40,-75,-73,-33,7,28
4,35,31,-20,-13,32,-43,-80,-84,-46,1,20
3,27,24,-15,-10,25,-50,-80,-95,-55,-6,19
-1,18,19,-8,-10,18,-55,-80,-95,-63,-14,15
-5,8,13,-2,-9,10,-50,-80,-96,-65,-21,13
-5,5,10,0,-8,7,-48,-79,-100,-65,-23,9
-6,5,10,0,-8,7,-43,-75,-100,-65,-18,12
-2,5,8,-2,-5,6,-40,-75,-98,-65,-15,16
0,5,4,-3,-3,5,-37,-75,-94,-64,-12,18
0,5,5,-3,-3,5,-34,-75,-92,-61,-7,21
1,9,8,-5,-4,9,-36,-75,-89,-56,-4,24
7,20,13,-14,-3,16,-34,-73,-86,-54,0,26
14,29,15,-22,-1,22,-36,-70,-85,-50,0,29
15,29,15,-22,0,22,-33,-67,-80,-46,1,32
16,31,15,-24,0,23,-30,-65,-74,-43,5,34
13,28,15,-21,-1,21,-23,-61,-70,-36,5,38
24,46,22,-35,1,34,-22,-60,-62,-31,7,41
38,63,25,-50,7,43,-13,-55,-58,-25,17,46
50,61,11,-56,19,36,-17,-58,-52,-20,23,50
95,99,4,-97,45,51,-71,-78,-50,-2,41,76
138,125,-13,-131,75,56,-87,-86,-51,35,85,121
140,99,-42,-119,91,28,-75,-84,-48,18,72,107
97,59,-38,-78,67,10,-72,-87,-68,-22,40,75
59,17,-42,-38,50,-12,-66,-89,-85,-31,33,63
30,-9,-39,-10,34,-24,-57,-91,-105,-54,1,43
19,-32,-51,7,36,-42,-39,-87,-98,-62,-11,40
9,-63,-72,27,41,-67,-25,-82,-111,-88,-24,27
-3,-64,-61,34,29,-63,-23,-79,-101,-78,-21,28
-1,-80,-79,41,39,-79,-12,-71,-105,-91,-34,14
-9,-51,-42,30,17,-46,-9,-74,-111,-87,-35,14
3,-72,-75,35,39,-73,9,-57,-89,-88,-38,13
-60,-32,28,46,-44,-2,50,-61,-165,-102,-34,23
-61,0,61,30,-61,30,103,32,-49,5,40,74
93,6,-87,-49,90,-40,324,462,416,284,193,164
418,178,-240,-298,329,-31,207,1002,1556,1167,716,502
502,-198,-701,-152,601,-449,-305,612,1405,933,555,357
132,-513,-645,191,389,-579,-320,-219,-241,-329,-219,-150
24,-280,-303,128,164,-291,-79,-171,-390,-338,-205,-98
34,-193,-227,80,131,-210,-7,-44,-114,-150,-75,-6
-30,-149,-120,89,45,-134,33,-94,-188,-177,-89,-12
-22,-139,-117,81,48,-128,34,-48,-116,-115,-54,9
-41,-140,-99,91,29,-119,35,-69,-163,-148,-75,-8
-30,-127,-97,78,34,-112,43,-44,-117,-114,-53,6
-33,-129,-96,81,32,-112,50,-49,-132,-130,-61,-4
-32,-117,-85,74,27,-101,59,-34,-113,-113,-51,3
-29,-117,-88,73,30,-102,63,-24,-100,-115,-48,7
-29,-106,-77,67,25,-91,72,-10,-92,-106,-43,12
-19,-102,-82,61,32,-92,76,13,-69,-93,-36,20
-16,-93,-77,55,31,-85,85,31,-57,-85,-32,22
-13,-88,-75,51,31,-81,100,67,-22,-61,-26,28
-3,-79,-76,41,37,-77,118,99,12,-46,-18,41
14,-57,-71,22,43,-64,151,152,59,-13,1,54
29,-30,-59,1,45,-45,173,209,116,21,27,71
42,1,-42,-21,42,-20,174,272,186,65,55,103
65,41,-24,-53,44,8,168,327,251,114,91,128
91,73,-18,-82,54,27,161,349,303,156,128,158
91,74,-17,-82,53,29,153,350,323,178,131,174
77,65,-11,-71,44,26,146,327,304,170,122,165
70,60,-10,-66,40,25,138,283,272,157,114,157
77,46,-31,-61,54,7,118,233,225,132,106,149
68,4,-64,-36,66,-29,98,172,154,90,99,136
55,-33,-88,-11,72,-60,83,108,85,51,73,121
44,-64,-108,10,76,-85,70,56,36,11,47,102
33,-105,-139,36,86,-122,64,26,-4,-19,31,86
25,-121,-146,48,86,-134,61,11,-40,-34,15,80
15,-130,-146,58,80,-137,57,10,-57,-44,10,75
23,-141,-164,59,93,-152,53,10,-54,-46,8,69
26,-139,-165,57,96,-152,50,5,-55,-45,5,63
25,-140,-165,58,95,-152,46,4,-55,-45,2,61
25,-140,-165,58,95,-152,45,6,-55,-45,0,65
25,-139,-165,58,95,-152,45,10,-52,-44,3,65
22,-141,-164,60,93,-152,45,10,-47,-40,6,70
15,-145,-159,65,88,-152,44,10,-45,-40,9,70
15,-145,-160,65,88,-152,46,10,-40,-38,12,73
15,-145,-160,65,88,-152,50,10,-37,-34,15,76
15,-145,-160,65,88,-152,52,10,-34,-35,16,75
15,-145,-160,65,88,-152,55,10,-30,-31,20,80
17,-139,-156,61,87,-147,58,10,-26,-26,20,79
23,-126,-149,52,86,-138,61,9,-23,-22,20,81
31,-115,-145,42,88,-130,63,10,-19,-17,24,87
37,-102,-139,33,88,-120,68,9,-14,-13,32,94
43,-91,-134,24,89,-112,59,5,-16,-8,33,100
48,-80,-128,16,88,-104,38,6,-14,2,42,112
47,-80,-127,17,87,-104,35,2,-17,15,69,138
85,-74,-159,-5,123,-116,35,0,-13,15,71,144
114,-79,-194,-17,155,-137,35,1,-18,-7,53,124
101,-116,-217,8,159,-166,35,-4,-38,-17,44,112
90,-145,-235,27,163,-190,34,-5,-50,-40,24,99
50,-175,-224,63,137,-199,43,-6,-59,-69,11,91
22,-214,-236,96,129,-225,54,-8,-69,-88,2,83
7,-218,-225,105,116,-221,71,-12,-87,-105,-8,71
11,-223,-234,106,122,-228,69,-9,-70,-100,-8,70
6,-219,-225,107,116,-222,81,-18,-92,-124,-28,59
12,-198,-210,93,111,-204,74,-14,-66,-101,-19,71
-1,-212,-211,107,105,-211,95,-14,-98,-142,-35,48
-99,-166,-68,133,-15,-117,146,-13,-84,-89,12,78
-51,-204,-153,128,52,-178,263,208,88,12,65,118
225,-61,-286,-82,256,-173,451,806,873,564,390,323
563,-59,-622,-252,593,-340,81,1055,1792,1207,760,547
376,-560,-936,92,656,-748,-353,205,622,227,145,110
29,-572,-601,271,316,-586,-169,-301,-534,-551,-317,-167
70,-337,-406,134,238,-371,25,-14,-185,-239,-114,0
35,-302,-337,134,186,-320,84,1,-160,-213,-99,10
5,-259,-264,127,135,-261,104,0,-137,-177,-73,28
6,-269,-275,132,141,-272,106,14,-115,-167,-67,29
-7,-258,-252,133,122,-255,120,3,-131,-164,-64,28
5,-259,-264,127,135,-261,115,23,-95,-145,-47,36
-7,-256,-249,132,122,-252,123,11,-114,-154,-51,32
0,-252,-252,126,126,-252,128,33,-77,-132,-35,39
-4,-249,-246,127,121,-247,137,37,-80,-138,-36,40
-2,-240,-238,122,118,-239,141,53,-56,-124,-23,51
-4,-237,-234,121,115,-235,153,72,-45,-119,-21,55
-6,-231,-224,119,109,-227,166,91,-20,-107,-13,63
-3,-223,-220,113,109,-221,172,123,16,-93,-1,70
9,-203,-212,97,111,-208,202,168,50,-70,14,85
24,-179,-203,78,113,-190,223,221,103,-35,27,98
43,-144,-187,51,115,-165,235,281,169,5,53,118
59,-108,-167,24,113,-137,243,342,237,52,89,146
83,-76,-159,-3,121,-117,233,379,294,96,120,175
101,-59,-160,-21,131,-110,226,378,318,116,144,199
99,-60,-159,-20,129,-110,218,368,306,107,144,197
100,-60,-160,-20,130,-110,211,351,289,101,136,190
99,-60,-159,-19,129,-109,194,307,255,93,133,185
85,-86,-171,0,129,-128,171,242,197,62,118,181
74,-125,-199,26,136,-162,155,176,128,24,92,159
66,-161,-226,47,146,-193,138,123,68,-14,62,126
52,-196,-248,73,150,-222,130,84,24,-56,37,110
42,-215,-257,87,150,-236,125,69,-9,-76,23,93
28,-237,-265,104,147,-251,120,59,-33,-87,10,85
22,-252,-274,115,148,-263,117,46,-41,-96,3,82
26,-249,-275,112,151,-261,111,41,-40,-94,-1,78
25,-250,-275,113,150,-262,110,40,-40,-95,-6,75
25,-250,-275,113,150,-262,110,40,-40,-95,-10,70
25,-250,-275,113,150,-262,110,40,-40,-95,-15,72
27,-247,-273,111,150,-260,110,40,-38,-95,-11,75
27,-243,-270,108,149,-256,110,42,-34,-94,-9,78
26,-241,-267,108,147,-254,109,45,-35,-90,-10,81
27,-238,-264,106,146,-251,106,45,-35,-90,-10,85
26,-236,-262,105,144,-248,105,45,-35,-88,-11,85
26,-233,-259,103,143,-246,105,45,-34,-84,-9,86
30,-227,-257,99,144,-242,117,44,-31,-86,-4,90
36,-217,-254,91,145,-235,120,40,-27,-81,2,89
41,-210,-251,85,146,-230,114,36,-24,-77,5,92
46,-202,-248,78,147,-224,112,34,-19,-72,10,95
51,-194,-245,72,148,-219,107,29,-16,-68,14,101
67,-178,-245,56,156,-211,105,26,-15,-62,19,103
117,-135,-252,9,185,-193,88,22,-15,-43,39,123
141,-106,-247,-18,195,-176,70,19,-16,-25,45,141
129,-130,-259,1,194,-194,70,21,-12,-21,33,127
111,-176,-287,33,199,-231,70,16,-33,-48,25,115
96,-201,-297,53,196,-248,70,15,-48,-63,18,106
67,-227,-295,81,181,-261,90,15,-65,-84,-5,93
34,-262,-296,114,166,-279,99,15,-75,-97,-15,88
21,-284,-305,131,163,-294,110,16,-83,-112,-31,71
8,-284,-292,138,151,-288,119,13,-79,-106,-32,69
22,-288,-310,133,166,-298,120,19,-83,-115,-48,58
12,-276,-288,132,150,-282,131,9,-92,-118,-48,55
28,-278,-306,125,167,-292,123,23,-73,-113,-40,50
-57,-271,-214,164,79,-242,172,4,-124,-136,-55,37
-105,-262,-157,184,26,-209,220,61,-33,-39,18,96
46,-254,-300,105,173,-277,421,484,338,175,142,172
352,-113,-465,-119,409,-289,419,1124,1460,986,619,473
561,-360,-921,-100,741,-640,-135,830,1546,951,573,411
202,-689,-891,244,547,-790,-289,-150,-134,-309,-209,-110
22,-508,-530,244,276,-519,-20,-173,-460,-449,-276,-110
63,-391,-455,164,259,-422,99,45,-95,-184,-102,7
-35,-366,-330,201,148,-348,147,-20,-171,-207,-112,-14
-17,-334,-318,176,151,-326,144,27,-89,-138,-76,22
-30,-334,-304,183,137,-319,153,8,-130,-175,-100,9
-16,-314,-297,165,141,-305,160,27,-99,-150,-84,18
-15,-317,-302,166,144,-309,161,25,-103,-159,-93,17
-19,-306,-288,163,135,-297,168,42,-99,-155,-89,20
-9,-304,-295,156,143,-299,169,59,-84,-150,-84,21
-15,-297,-282,156,134,-289,176,61,-82,-146,-79,23
-9,-292,-282,151,137,-287,179,83,-58,-131,-69,28
-12,-284,-272,148,131,-278,188,97,-48,-130,-66,29
-6,-275,-269,141,132,-272,203,130,-12,-103,-56,33
-2,-264,-262,133,130,-263,220,161,21,-78,-52,42
5,-238,-243,117,124,-241,236,205,62,-58,-32,56
16,-206,-222,95,119,-214,258,265,115,-25,-7,68
35,-170,-205,68,120,-187,278,326,186,21,21,99
69,-130,-199,31,134,-164,277,380,257,69,56,131
100,-96,-196,-2,148,-145,269,409,309,113,86,153
104,-88,-192,-8,148,-140,263,404,322,130,106,153
97,-91,-188,-3,143,-139,256,397,310,121,106,143
96,-89,-185,-3,140,-137,233,360,289,113,97,138
89,-94,-183,3,136,-138,201,296,240,102,88,128
75,-125,-201,25,138,-163,185,231,170,61,60,124
59,-169,-228,55,144,-198,168,168,97,10,25,108
39,-210,-248,86,144,-229,159,122,43,-28,-6,83
23,-241,-263,109,143,-252,157,89,1,-64,-27,62
18,-257,-275,120,147,-266,153,72,-30,-86,-42,46
11,-269,-281,129,146,-275,150,66,-54,-102,-58,39
10,-270,-279,130,144,-275,145,59,-67,-114,-71,33
10,-270,-280,130,145,-275,143,51,-64,-111,-80,26
5,-274,-280,134,143,-277,139,44,-62,-110,-80,19
4,-275,-279,135,142,-277,140,36,-59,-110,-80,13
2,-274,-275,137,139,-274,140,43,-56,-110,-80,10
2,-269,-271,134,137,-270,140,52,-53,-110,-80,10
3,-266,-269,131,136,-267,140,49,-50,-109,-79,10
2,-262,-264,131,133,-263,135,50,-50,-105,-75,10
3,-258,-261,128,132,-259,135,50,-50,-105,-72,10
2,-255,-257,127,130,-256,134,50,-50,-103,-70,13
-2,-252,-249,127,123,-250,135,53,-50,-99,-66,16
-6,-246,-240,126,118,-243,135,55,-50,-101,-65,19
-10,-243,-233,126,112,-238,133,54,-51,-96,-66,22
-13,-237,-225,125,106,-231,130,55,-46,-90,-65,25
5,-216,-221,105,113,-218,129,55,-39,-85,-65,26
28,-191,-219,82,124,-205,142,54,-33,-80,-62,31
42,-175,-217,67,130,-196,116,49,-24,-72,-58,34
39,-174,-214,68,127,-194,92,46,-21,-71,-62,42
44,-175,-219,66,132,-197,96,43,-7,-68,-62,42
70,-174,-244,52,158,-209,97,38,-18,-87,-69,28
62,-192,-254,65,158,-223,101,34,-53,-122,-68,22
38,-220,-258,91,148,-238,99,32,-60,-145,-74,4
-1,-250,-249,126,124,-250,110,28,-77,-166,-108,-19
-21,-285,-264,154,122,-275,118,33,-89,-176,-124,-34
-22,-286,-264,155,122,-275,132,27,-102,-191,-135,-52
-17,-281,-264,149,124,-272,134,33,-86,-194,-128,-56
-20,-289,-269,155,125,-278,138,28,-104,-217,-147,-64
-12,-268,-256,141,122,-262,130,30,-88,-206,-132,-48
-38,-295,-258,167,110,-276,154,34,-106,-235,-158,-60
-84,-214,-130,149,23,-172,208,23,-94,-173,-139,-36
-16,-209,-193,112,89,-201,299,225,82,-74,-40,5
135,-208,-343,37,240,-275,518,825,801,409,243,186
489,-167,-656,-161,573,-411,255,1212,1878,1189,689,463
402,-554,-955,76,679,-754,-255,405,890,342,175,88
-8,-644,-636,326,314,-640,-166,-277,-542,-660,-436,-285
7,-413,-419,203,213,-416,76,-10,-253,-389,-261,-149
-28,-372,-344,200,158,-358,146,53,-151,-323,-219,-120
-69,-324,-255,197,93,-289,164,46,-161,-300,-202,-106
-61,-325,-264,193,102,-294,160,66,-113,-275,-187,-102
-78,-314,-235,196,79,-274,167,44,-151,-291,-197,-109
-58,-304,-246,181,94,-275,169,65,-106,-261,-175,-100
-70,-301,-231,186,80,-266,176,47,-132,-276,-184,-109
-59,-288,-230,174,86,-259,187,63,-104,-252,-167,-99
-61,-285,-224,174,82,-255,201,64,-106,-258,-172,-102
-58,-273,-215,166,78,-244,200,79,-84,-239,-163,-95
-58,-269,-210,164,76,-239,204,88,-72,-234,-162,-95
-56,-258,-202,157,73,-229,205,107,-53,-221,-158,-90
-51,-244,-193,148,71,-218,211,140,-21,-202,-153,-90
-46,-220,-174,134,64,-197,233,170,12,-185,-150,-80
-33,-191,-158,112,63,-174,248,221,61,-156,-132,-65
-23,-156,-133,90,56,-144,262,269,120,-112,-107,-49
-9,-116,-107,62,49,-111,267,327,191,-64,-69,-16
16,-74,-90,29,53,-82,261,365,251,-26,-38,8
36,-40,-76,2,56,-58,255,356,273,16,-24,24
33,-33,-66,0,50,-49,251,349,263,24,-14,25
26,-37,-63,6,45,-49,232,330,257,14,0,18
27,-32,-60,3,44,-45,207,287,222,-3,-1,14
36,-54,-90,10,63,-72,190,233,162,-38,-26,3
25,-101,-125,38,75,-113,174,178,90,-82,-60,-20
3,-134,-137,66,70,-135,163,135,23,-141,-101,-54
-6,-173,-167,90,81,-170,159,94,-19,-189,-127,-78
-14,-196,-182,105,84,-189,153,71,-62,-231,-153,-103
-26,-204,-179,115,77,-191,148,67,-85,-252,-172,-116
-38,-219,-181,129,71,-200,142,59,-94,-259,-178,-119
-49,-228,-179,139,65,-204,137,51,-101,-267,-186,-134
-48,-228,-181,138,67,-204,134,43,-99,-264,-185,-135
-46,-222,-176,134,65,-198,135,42,-104,-265,-185,-134
-49,-219,-170,134,60,-194,135,45,-105,-265,-185,-136
-49,-214,-165,131,59,-189,134,46,-104,-264,-185,-134
-50,-209,-159,130,54,-184,151,50,-101,-260,-185,-137
-52,-206,-154,130,51,-180,161,50,-96,-254,-185,-140
-54,-203,-148,129,47,-175,152,45,-94,-251,-185,-140
-56,-201,-145,129,44,-172,150,45,-89,-246,-185,-140
-52,-197,-145,125,47,-170,145,45,-86,-241,-185,-140
-50,-196,-145,123,48,-171,140,45,-82,-238,-185,-140
-47,-192,-144,120,49,-168,143,45,-80,-234,-181,-137
-33,-179,-146,107,57,-163,145,44,-81,-230,-175,-131
-35,-167,-133,101,49,-150,150,46,-80,-227,-170,-127
-44,-148,-104,96,30,-126,148,43,-79,-221,-164,-122
-27,-126,-99,76,36,-112,142,49,-81,-221,-159,-118
3,-97,-100,47,52,-98,120,52,-79,-202,-152,-112
16,-84,-100,34,58,-92,91,44,-82,-189,-151,-111
27,-72,-99,23,63,-85,89,37,-78,-190,-148,-108
29,-77,-106,24,67,-91,93,29,-82,-189,-152,-112
17,-121,-138,52,78,-129,95,22,-98,-207,-147,-108
10,-151,-161,71,86,-156,104,17,-104,-222,-156,-115
-31,-180,-150,106,60,-165,129,13,-126,-238,-193,-152
-55,-215,-159,135,52,-187,136,16,-125,-252,-209,-167
-69,-221,-152,145,42,-186,144,9,-137,-267,-227,-179
-68,-223,-156,146,45,-189,159,10,-122,-251,-219,-186
-75,-229,-154,153,40,-192,169,13,-142,-277,-236,-204
-81,-217,-136,149,28,-176,162,19,-134,-252,-222,-199
-87,-236,-149,162,31,-192,168,20,-144,-277,-247,-206
-169,-186,-17,178,-76,-101,210,17,-154,-253,-232,-184
-105,-184,-79,145,-12,-132,303,210,46,-107,-117,-118
127,-75,-202,-26,164,-138,496,760,734,379,166,61
443,-10,-454,-216,448,-232,270,1167,1860,1283,696,401
355,-477,-832,61,594,-654,-193,491,1060,556,251,78
-34,-618,-585,326,276,-601,-121,-207,-490,-642,-486,-405
-54,-371,-317,213,132,-344,89,4,-318,-452,-360,-295
-63,-311,-249,187,93,-280,149,80,-180,-356,-292,-271
-103,-270,-167,187,32,-218,182,46,-208,-338,-288,-280
-98,-257,-159,177,31,-208,177,67,-152,-302,-265,-261
-119,-247,-128,183,5,-187,182,39,-197,-331,-280,-271
-105,-238,-133,172,14,-185,179,52,-153,-298,-258,-253
-115,-233,-118,174,2,-175,180,35,-180,-318,-267,-261
-109,-222,-113,166,2,-167,181,51,-155,-296,-264,-248
-111,-217,-106,164,-2,-161,178,53,-157,-304,-276,-250
-110,-205,-95,158,-7,-150,186,60,-139,-290,-261,-244
-109,-199,-90,154,-9,-145,191,79,-127,-286,-255,-240
-108,-188,-80,148,-14,-134,200,94,-108,-280,-249,-238
-100,-175,-75,138,-12,-125,221,123,-73,-270,-236,-226
-93,-159,-65,126,-14,-112,232,154,-37,-254,-225,-218
-81,-130,-49,106,-16,-89,247,198,15,-215,-207,-207
-70,-91,-22,81,-24,-56,265,252,66,-173,-181,-188
-53,-48,5,51,-29,-21,269,301,137,-126,-143,-158
-34,-3,30,18,-32,13,266,335,205,-84,-109,-126
-22,32,53,-5,-38,42,254,331,238,-58,-103,-118
-7,57,64,-25,-35,60,246,320,234,-61,-106,-121
2,59,57,-31,-28,58,228,304,222,-59,-103,-120
-7,46,53,-20,-30,49,198,271,193,-60,-107,-126
-12,25,37,-7,-24,30,179,226,127,-90,-103,-124
-29,-26,3,28,-16,-11,162,167,54,-136,-116,-129
-52,-69,-17,61,-17,-43,151,119,-11,-189,-155,-162
-63,-101,-38,82,-12,-69,146,84,-69,-231,-184,-190
-78,-132,-54,106,-12,-92,142,62,-107,-261,-211,-200
-86,-143,-58,115,-14,-100,137,54,-135,-276,-225,-215
-89,-148,-59,119,-15,-103,132,49,-155,-291,-237,-223
-99,-153,-54,127,-22,-104,129,45,-159,-306,-247,-226
-98,-154,-55,127,-21,-105,130,40,-162,-304,-244,-229
-97,-149,-53,123,-22,-101,142,35,-167,-306,-245,-231
-96,-145,-49,121,-23,-97,145,35,-174,-310,-245,-240
-92,-143,-51,117,-20,-97,139,35,-171,-310,-245,-238
-94,-138,-45,116,-24,-91,137,35,-164,-308,-243,-234
-98,-135,-36,117,-30,-85,132,35,-160,-303,-237,-231
-105,-132,-27,119,-39,-79,129,35,-153,-300,-233,-226
-104,-126,-21,115,-41,-73,126,33,-149,-296,-228,-224
-96,-122,-25,110,-35,-74,124,30,-145,-292,-224,-218
-87,-117,-30,102,-28,-73,126,27,-145,-289,-219,-212
-87,-113,-26,101,-30,-69,124,24,-145,-285,-216,-208
-92,-108,-16,100,-38,-62,126,21,-145,-278,-215,-201
-85,-95,-9,90,-38,-52,122,19,-146,-271,-216,-197
-88,-72,16,80,-52,-27,120,17,-144,-263,-214,-190
-82,-48,33,64,-57,-7,126,11,-146,-262,-217,-181
-72,-29,43,50,-57,7,95,7,-144,-265,-207,-172
-64,-16,47,40,-55,15,72,2,-146,-264,-189,-165
-41,-13,28,27,-34,7,76,-3,-144,-269,-169,-165
-29,-16,14,22,-21,-1,74,-6,-145,-270,-175,-164
-48,-43,6,45,-27,-18,76,-11,-165,-272,-204,-171
-64,-67,-3,66,-30,-35,75,-8,-175,-285,-220,-188
-75,-114,-38,95,-18,-76,101,-14,-193,-294,-239,-205
-104,-173,-69,139,-18,-121,116,-13,-195,-318,-254,-231
-116,-142,-26,129,-45,-84,120,-17,-214,-345,-275,-243
-104,-119,-16,111,-44,-67,122,-11,-196,-325,-268,-237
-106,-134,-28,120,-39,-81,128,-8,-213,-351,-283,-249
-92,-100,-7,96,-42,-53,131,-8,-220,-330,-273,-241
-116,-134,-18,125,-49,-75,140,6,-226,-353,-288,-250
-179,-53,127,116,-153,37,181,-13,-260,-334,-279,-225
-119,-24,95,71,-107,35,262,149,-72,-188,-170,-165
50,22,-28,-36,39,-3,461,680,554,236,90,2
391,122,-269,-257,330,-73,267,1137,1715,1146,607,332
360,-347,-707,-6,534,-527,-203,553,1107,557,234,46
-41,-543,-501,292,230,-522,-146,-189,-518,-697,-522,-440
-73,-288,-215,181,71,-252,68,-67,-437,-557,-439,-353
-88,-211,-123,150,17,-167,113,-12,-263,-427,-354,-291
-136,-154,-18,146,-59,-86,138,-36,-304,-434,-353,-291
-127,-165,-38,146,-44,-101,135,1,-240,-387,-324,-272
-151,-155,-4,153,-73,-80,144,-17,-294,-418,-337,-280
-129,-137,-8,133,-61,-72,148,9,-251,-382,-311,-262
-139,-134,4,136,-71,-64,156,2,-283,-400,-319,-266
-133,-120,14,126,-73,-53,159,17,-261,-378,-302,-255
-135,-118,17,126,-75,-50,163,20,-258,-382,-303,-254
-135,-105,30,120,-82,-37,171,27,-242,-372,-295,-249
-134,-101,32,117,-83,-34,167,41,-225,-364,-289,-246
-132,-89,43,110,-87,-22,179,58,-209,-362,-286,-242
-118,-65,53,91,-86,-6,193,79,-172,-346,-276,-239
-119,-54,65,86,-92,5,210,119,-138,-318,-269,-222
-104,-35,69,69,-86,17,232,168,-92,-279,-253,-191
-86,6,92,40,-90,49,245,219,-38,-242,-229,-174
-78,50,128,14,-103,89,264,274,29,-196,-197,-150
-48,102,151,-27,-100,126,262,310,101,-148,-166,-119
-35,138,173,-52,-104,156,245,323,144,-112,-134,-85
-20,164,185,-73,-103,174,234,312,138,-109,-119,-68
-3,170,173,-84,-88,171,219,297,128,-111,-120,-71
-9,152,161,-71,-85,156,189,258,96,-108,-119,-68
-18,133,151,-58,-84,142,161,198,36,-129,-127,-77
-38,96,133,-29,-85,114,146,138,-35,-176,-154,-100
-53,54,108,-1,-80,81,130,80,-113,-232,-198,-135
-76,16,92,30,-84,54,122,37,-168,-268,-228,-162
-103,-21,82,61,-92,31,118,19,-205,-292,-247,-176
-105,-36,69,70,-86,16,112,12,-228,-313,-269,-195
-96,-34,62,65,-78,13,106,2,-241,-323,-274,-198
-95,-36,59,66,-77,11,101,-7,-250,-330,-278,-202
-96,-40,56,67,-76,8,103,-14,-255,-330,-282,-206
-94,-40,53,67,-74,6,105,-16,-257,-329,-279,-204
-87,-38,50,63,-68,6,105,-19,-254,-330,-280,-205
-85,-34,51,60,-67,8,105,-21,-255,-330,-280,-205
-93,-35,58,64,-75,11,105,-25,-255,-328,-280,-205
-95,-31,64,62,-79,16,104,-24,-255,-322,-280,-200
-97,-30,67,63,-83,19,99,-20,-254,-317,-280,-200
-101,-30,71,65,-86,21,100,-20,-249,-313,-280,-199
-102,-24,77,63,-89,26,98,-20,-250,-309,-280,-194
-102,-19,84,60,-93,33,94,-20,-250,-304,-280,-196
-98,-13,85,55,-91,36,96,-20,-250,-300,-280,-192
-93,-8,85,50,-89,38,90,-24,-250,-292,-278,-186
-95,1,96,47,-95,48,91,-26,-247,-286,-271,-182
-86,30,116,28,-102,73,84,-25,-244,-279,-266,-176
-74,64,138,4,-106,101,88,-26,-241,-272,-259,-170
-75,73,149,1,-112,111,97,-24,-238,-272,-256,-165
-36,101,137,-33,-87,118,53,-33,-234,-275,-259,-165
-1,125,126,-62,-64,125,33,-49,-235,-276,-261,-165
-3,111,115,-54,-59,113,35,-53,-225,-273,-259,-164
-9,97,107,-44,-58,102,36,-56,-239,-278,-267,-166
-32,73,104,-21,-68,88,33,-55,-268,-271,-262,-164
-61,33,94,14,-78,63,41,-54,-279,-288,-269,-183
-82,14,96,34,-89,55,61,-57,-287,-305,-289,-207
-91,-12,79,51,-85,34,66,-52,-301,-319,-306,-225
-105,-9,96,57,-100,43,83,-52,-312,-329,-314,-224
-121,-30,91,75,-105,30,84,-40,-294,-314,-311,-226
-125,-23,102,74,-113,39,92,-44,-320,-330,-325,-234
-83,-3,80,43,-81,38,85,-32,-285,-297,-309,-223
-127,-7,120,67,-124,56,112,-32,-334,-334,-338,-247
-169,98,267,36,-219,182,153,-16,-281,-257,-268,-184
-74,74,148,0,-111,111,308,263,1,-85,-147,-115
187,216,30,-202,78,123,433,886,954,621,250,135
484,100,-384,-292,434,-142,-5,1008,1729,1149,541,295
207,-419,-626,106,417,-522,-317,105,281,-40,-196,-205
-93,-350,-257,222,82,-303,-90,-277,-740,-726,-606,-442
-50,-140,-90,96,20,-115,49,-31,-371,-405,-388,-287
-125,-95,30,110,-77,-32,85,-74,-412,-405,-386,-278
-137,-50,86,93,-111,18,114,-55,-360,-339,-351,-254
-140,-50,90,95,-114,19,114,-54,-359,-349,-363,-262
-145,-33,112,89,-129,40,116,-59,-357,-344,-359,-260
-142,-34,108,88,-125,37,114,-48,-329,-332,-351,-258
-160,-22,138,91,-149,58,126,-48,-341,-339,-360,-262
-143,-18,125,81,-134,53,123,-25,-309,-321,-346,-254
-145,-8,137,76,-141,64,127,-24,-318,-329,-348,-256
-131,3,134,63,-133,68,122,-8,-287,-313,-334,-250
-118,15,133,51,-126,74,134,0,-275,-314,-332,-249
-117,32,148,42,-133,90,161,31,-253,-305,-323,-245
-115,41,156,37,-136,98,160,60,-224,-294,-318,-244
-106,64,170,21,-138,116,186,99,-187,-266,-311,-230
-96,87,184,4,-140,135,206,155,-137,-231,-292,-217
-82,126,208,-22,-145,167,221,208,-69,-191,-262,-196
-59,176,235,-59,-147,205,228,267,2,-144,-218,-163
-44,213,257,-85,-150,235,214,299,62,-94,-191,-134
-23,252,275,-115,-149,263,209,295,102,-59,-188,-120
-7,265,272,-129,-140,268,198,286,113,-61,-184,-120
-3,259,263,-128,-133,260,184,262,92,-58,-181,-120
-8,252,260,-123,-134,255,162,214,43,-66,-176,-119
-27,213,240,-94,-134,226,131,158,-22,-108,-177,-123
-39,170,209,-65,-125,189,111,100,-102,-157,-205,-146
-48,139,186,-46,-117,162,104,50,-167,-211,-249,-185
-72,99,171,-14,-122,135,98,7,-215,-246,-276,-210
-89,75,164,6,-127,119,90,-21,-249,-265,-286,-220
-86,72,157,7,-122,114,84,-33,-265,-281,-298,-232
-85,66,151,9,-118,108,78,-39,-275,-280,-308,-241
-81,63,144,9,-112,103,75,-40,-279,-280,-311,-247
-83,57,141,13,-112,99,75,-40,-280,-280,-316,-252
-90,55,146,17,-119,100,73,-45,-280,-280,-318,-255
-82,61,143,10,-113,102,69,-45,-280,-278,-326,-260
-91,62,153,14,-122,107,70,-45,-280,-273,-330,-260
-97,75,171,11,-134,123,66,-45,-278,-270,-325,-260
-85,90,175,-3,-130,132,64,-45,-271,-266,-323,-260
-85,90,174,-3,-129,132,65,-45,-264,-262,-318,-260
-84,94,178,-5,-131,135,60,-45,-258,-259,-315,-258
-85,95,180,-5,-133,137,60,-45,-250,-254,-312,-254
-83,97,180,-7,-131,138,58,-49,-245,-247,-309,-256
-81,103,184,-11,-133,143,54,-51,-240,-241,-306,-251
-84,113,197,-15,-141,155,54,-50,-241,-234,-303,-250
-76,146,221,-35,-149,183,47,-55,-238,-227,-300,-250
-70,166,236,-48,-154,201,60,-54,-235,-221,-298,-244
-63,173,236,-55,-149,204,46,-56,-235,-206,-294,-239
-11,213,224,-102,-118,219,3,-76,-234,-193,-295,-233
32,251,218,-142,-93,234,-6,-81,-237,-195,-295,-229
26,232,206,-129,-90,219,-16,-81,-231,-193,-294,-220
-4,196,200,-96,-102,197,-23,-86,-257,-201,-296,-225
-37,157,194,-60,-115,175,-17,-85,-274,-209,-295,-238
-61,126,187,-33,-124,156,-2,-91,-283,-234,-324,-265
-83,105,188,-12,-135,146,8,-90,-303,-254,-346,-286
-101,73,174,14,-138,123,24,-91,-319,-270,-358,-295
-106,78,184,14,-145,130,37,-98,-314,-265,-361,-304
-108,59,167,25,-138,112,44,-91,-311,-270,-368,-309
-128,67,195,31,-161,131,60,-97,-331,-268,-374,-302
-113,49,163,32,-138,106,49,-81,-308,-240,-361,-295
-151,100,251,25,-201,175,85,-90,-360,-265,-366,-301
-148,209,357,-31,-253,283,132,-37,-268,-172,-297,-246
-27,179,206,-76,-117,192,324,339,98,29,-179,-169
294,331,38,-312,128,184,365,965,1226,872,312,133
480,68,-412,-274,446,-172,-152,767,1478,979,362,130
88,-352,-439,132,264,-395,-357,-196,-236,-362,-463,-413
-85,-157,-72,121,-6,-114,-102,-304,-741,-639,-623,-487
-47,-21,26,33,-36,3,12,-93,-362,-355,-435,-348
-140,11,151,64,-146,81,59,-154,-431,-385,-456,-363
-113,54,167,29,-141,111,66,-111,-348,-312,-413,-341
-128,48,176,40,-152,111,63,-129,-384,-346,-434,-356
-132,67,199,33,-166,132,67,-114,-360,-320,-416,-347
-124,75,199,24,-161,136,63,-112,-360,-327,-419,-351
-126,85,211,20,-169,148,66,-105,-361,-321,-414,-350
-118,81,200,18,-159,140,67,-89,-345,-314,-409,-343
-118,91,209,13,-164,150,73,-86,-346,-312,-411,-340
-119,106,225,6,-172,165,76,-67,-321,-295,-403,-332
-124,115,239,4,-181,176,83,-57,-313,-294,-404,-329
-120,113,233,3,-177,173,89,-30,-281,-271,-398,-322
-108,127,235,-10,-172,181,104,3,-246,-251,-397,-317
-94,158,252,-32,-173,204,121,46,-206,-226,-383,-308
-80,185,265,-53,-172,225,138,100,-150,-192,-362,-285
-59,228,287,-85,-173,257,146,157,-86,-147,-334,-258
-47,274,321,-114,-184,298,140,205,-27,-101,-300,-237
-20,319,339,-150,-180,329,134,219,25,-64,-284,-225
-8,345,353,-169,-181,349,129,203,28,-41,-285,-222
-10,349,359,-169,-185,354,123,194,14,-40,-284,-218
-4,349,353,-173,-179,351,101,175,-2,-38,-285,-215
-9,334,343,-163,-176,338,72,117,-49,-59,-284,-208
-23,292,316,-135,-170,304,48,49,-115,-104,-290,-218
-43,242,285,-100,-164,263,37,1,-181,-148,-320,-251
-60,204,264,-72,-162,234,33,-41,-241,-193,-357,-280
-69,186,255,-59,-162,220,27,-82,-285,-222,-384,-304
-76,173,249,-49,-163,211,21,-105,-314,-246,-405,-315
-78,165,242,-44,-161,203,16,-116,-334,-261,-415,-321
-71,164,235,-46,-154,199,15,-121,-336,-265,-419,-327
-71,160,231,-45,-151,195,15,-120,-333,-265,-420,-329
-76,158,233,-41,-155,195,15,-118,-339,-267,-421,-326
-87,154,241,-34,-164,198,15,-114,-345,-270,-425,-324
-96,157,253,-30,-175,204,15,-115,-340,-270,-425,-325
-95,163,258,-34,-177,210,14,-115,-335,-267,-422,-324
-95,168,263,-37,-179,215,10,-115,-332,-262,-419,-325
-86,178,265,-47,-176,221,10,-115,-326,-259,-417,-322
-86,184,270,-49,-179,227,10,-115,-322,-255,-414,-319
-91,186,277,-48,-184,231,10,-115,-319,-252,-411,-320
-88,186,273,-50,-181,229,10,-115,-317,-249,-409,-316
-80,204,284,-62,-183,244,13,-116,-315,-243,-405,-315
-64,254,317,-95,-191,285,16,-115,-311,-236,-397,-315
-69,260,330,-96,-200,295,12,-115,-309,-229,-391,-307
-48,273,321,-113,-185,297,-13,-118,-306,-223,-384,-302
9,321,312,-165,-152,317,-61,-141,-304,-214,-377,-305
22,324,303,-173,-141,313,-75,-161,-306,-217,-375,-305
14,297,283,-155,-135,289,-62,-160,-305,-211,-373,-307
-11,253,264,-122,-137,258,-53,-160,-326,-226,-389,-312
-41,227,267,-93,-154,247,-43,-160,-345,-243,-398,-307
-66,195,261,-65,-164,228,-36,-159,-356,-257,-425,-327
-99,170,269,-36,-184,219,-28,-159,-380,-279,-458,-358
-103,158,260,-28,-182,208,-24,-152,-374,-282,-457,-359
-109,158,268,-25,-189,213,-14,-158,-388,-297,-465,-362
-101,156,257,-27,-180,206,-12,-152,-370,-279,-458,-359
-112,146,259,-17,-186,202,-2,-157,-390,-306,-473,-371
-107,159,266,-26,-186,212,-6,-155,-371,-286,-458,-357
-115,141,256,-13,-186,198,16,-141,-393,-316,-482,-375
-165,260,426,-48,-296,343,63,-141,-400,-270,-444,-340
-96,275,372,-89,-234,324,164,50,-189,-127,-331,-257
115,363,247,-239,-66,305,370,641,565,396,-35,-74
466,391,-74,-428,270,158,94,1054,1686,1218,434,200
343,-115,-458,-114,400,-286,-373,285,728,372,-90,-176
-43,-211,-168,127,63,-189,-256,-401,-771,-690,-738,-572
-32,28,60,1,-46,44,-49,-180,-543,-449,-574,-437
-64,99,163,-18,-114,130,-3,-155,-451,-378,-524,-422
-110,156,266,-23,-188,211,18,-170,-467,-351,-508,-420
-100,148,247,-24,-174,197,13,-145,-417,-325,-493,-403
-118,158,276,-20,-198,217,23,-163,-447,-341,-503,-406
-104,165,269,-30,-187,217,29,-140,-402,-311,-483,-389
-113,173,285,-31,-199,229,50,-151,-424,-325,-494,-393
-105,183,288,-39,-197,235,51,-130,-392,-302,-475,-380
-108,183,291,-38,-200,237,49,-130,-395,-308,-487,-380
-108,191,299,-42,-203,244,52,-118,-375,-291,-491,-371
-98,199,297,-51,-198,248,48,-109,-363,-286,-483,-367
-98,209,307,-56,-203,258,54,-85,-341,-277,-472,-359
-87,223,310,-69,-198,266,68,-49,-307,-267,-461,-352
-83,241,324,-79,-204,283,87,-13,-273,-244,-442,-346
-78,264,342,-93,-210,303,109,36,-224,-207,-423,-328
-56,302,358,-123,-207,329,127,89,-166,-171,-398,-305
-35,346,382,-156,-209,364,139,148,-100,-123,-362,-278
-18,386,403,-184,-211,394,142,182,-47,-81,-326,-263
-2,421,423,-210,-213,422,129,176,-5,-39,-301,-259
13,440,426,-227,-207,433,121,163,-5,-29,-299,-253
13,433,420,-223,-204,426,104,154,-22,-32,-301,-248
1,422,421,-211,-210,421,76,119,-44,-41,-298,-242
3,400,398,-202,-198,399,48,58,-105,-77,-314,-239
-8,357,365,-175,-187,361,22,-2,-179,-125,-347,-259
-31,307,338,-138,-184,322,13,-65,-246,-169,-381,-289
-48,275,323,-114,-186,299,0,-109,-299,-208,-408,-311
-57,259,316,-101,-187,288,-8,-132,-336,-224,-427,-328
