I,II,III,aVR,aVL,aVF,V1,V2,V3,V4,V5,V6
-3,124,127,-61,-65,125,247,-258,-125,74,136,159
2,148,146,-75,-73,147,204,-300,-151,76,125,132
-110,92,203,9,-157,147,157,-231,-145,79,133,13
-95,110,205,-8,-150,157,168,-181,-147,129,160,43
-45,135,180,-45,-113,157,151,-214,-122,118,132,62
-126,137,262,-6,-194,199,188,-125,-44,191,216,11
-27,222,249,-98,-138,236,238,-75,18,251,258,90
-45,195,240,-76,-142,217,102,-97,44,239,199,13
-68,178,246,-55,-157,211,101,-49,60,270,225,110
19,253,233,-136,-107,243,84,-76,79,255,235,290
-100,213,313,-57,-207,263,63,-147,69,251,228,176
-27,300,327,-137,-177,313,218,-128,54,254,293,190
28,318,290,-173,-131,304,157,-157,-23,170,290,257
-99,145,244,-23,-171,194,180,-244,-155,49,228,225
-28,205,233,-89,-131,219,137,-314,-204,-16,206,211
7,190,183,-98,-88,186,37,-369,-263,-60,172,154
-43,75,118,-16,-80,96,54,-364,-326,-126,132,23
-6,138,144,-66,-75,140,-25,-353,-309,-120,106,100
3,123,120,-63,-59,121,28,-352,-318,-107,119,187
66,192,126,-129,-30,158,55,-340,-275,-111,133,-13
-33,113,146,-40,-89,129,81,-340,-252,-96,87,-160
-124,9,134,57,-129,71,-18,-347,-266,-101,99,-196
-16,119,135,-52,-76,127,-27,-341,-211,-62,155,-169
-112,17,129,47,-120,73,110,-355,-263,-68,106,-102
-33,80,112,-24,-73,96,44,-363,-290,-89,77,38
46,135,89,-90,-22,112,16,-376,-280,-87,117,160
-43,90,133,-24,-88,111,4,-380,-291,-96,84,63
-1,149,150,-75,-76,149,69,-324,-266,-72,88,-51
25,141,116,-83,-46,129,104,-291,-244,-23,150,-48
47,185,138,-116,-46,161,98,-338,-235,-16,158,68
123,216,93,-170,15,154,101,-350,-264,-66,171,161
59,142,83,-101,-12,112,70,-323,-219,-21,174,169
0,155,155,-78,-78,155,-7,-342,-242,-47,191,328
109,175,66,-143,22,120,6,-332,-279,-85,161,219
73,110,37,-92,18,73,68,-382,-275,-76,92,-115
79,176,97,-128,-10,137,77,-395,-324,-129,143,-124
-6,87,92,-41,-49,89,70,-389,-324,-129,159,-167
0,80,79,-40,-40,79,0,-362,-304,-109,157,-183
84,148,64,-116,10,105,68,-364,-311,-116,136,-162
27,175,148,-101,-61,161,-13,-397,-303,-115,125,-146
110,297,187,-204,-39,242,-55,-304,-244,-58,171,102
114,274,160,-194,-23,217,-47,-296,-213,-24,194,249
86,342,255,-214,-85,298,-105,-273,-158,33,241,287
101,351,250,-226,-75,301,41,-300,-179,18,255,331
135,325,190,-230,-28,257,75,-344,-241,-46,278,247
48,234,185,-141,-69,209,6,-394,-317,-116,202,85
126,222,97,-174,14,159,-47,-425,-354,-157,193,-46
150,180,31,-165,59,105,-52,-409,-351,-165,125,-273
-4,-4,0,4,-2,-2,15,-411,-386,-195,67,-398
38,5,-33,-21,35,-14,-36,-378,-343,-152,101,-357
30,-69,-98,20,64,-83,-15,-484,-416,-228,-18,-428
160,38,-121,-99,141,-41,15,-443,-423,-239,68,-355
124,20,-105,-72,115,-42,-119,-357,-385,-205,37,-231
52,10,-42,-31,47,-16,-29,-357,-386,-206,64,-278
122,62,-60,-92,91,1,136,-389,-377,-197,107,-255
-22,40,62,-9,-42,51,-55,-405,-347,-167,123,-112
-46,66,112,-10,-79,89,-32,-316,-348,-167,73,-276
92,66,-26,-79,59,20,106,-491,-473,-288,180,-157
359,274,-85,-316,222,94,-334,-888,-705,-513,611,389
576,-503,-1079,-36,828,-791,-584,-1359,-1484,-1298,-279,-422
349,-932,-1281,292,815,-1107,-369,-1245,-1470,-1266,-840,-1119
74,-145,-219,35,146,-181,-129,-551,-516,-346,-176,-496
113,102,-11,-107,61,46,-78,-333,-316,-167,37,-414
67,21,-46,-43,56,-13,-8,-358,-340,-158,28,-566
108,105,-3,-107,56,51,164,-313,-284,-110,46,-451
168,143,-25,-156,96,59,155,-301,-310,-109,116,-347
-20,-26,-7,23,-6,-16,23,-258,-271,-76,88,-248
45,106,62,-76,-9,84,56,-272,-268,-48,109,-297
41,113,72,-77,-16,92,205,-256,-249,-28,106,-337
-51,-31,20,41,-36,-6,30,-217,-242,-36,73,-250
86,155,69,-120,8,112,87,-226,-233,-19,82,-234
-9,124,134,-58,-72,129,199,-198,-196,-26,56,-245
24,125,101,-75,-39,113,80,-220,-217,-29,122,-184
50,95,45,-72,2,70,112,-203,-220,-15,76,-143
-167,-8,158,87,-162,75,23,-152,-190,33,80,-194
-47,83,130,-18,-88,106,88,-142,-129,65,145,-364
-80,59,139,10,-110,99,209,-107,-71,99,141,-492
-96,104,201,-4,-149,152,217,-107,-74,127,171,-441
36,244,208,-140,-86,226,262,-84,-3,182,176,-366
-97,181,278,-42,-188,229,168,-66,-1,173,178,-227
-194,46,240,74,-217,143,-87,-77,-46,130,143,-238
-40,201,241,-81,-141,221,-16,-82,2,185,197,-190
8,261,253,-134,-123,256,209,-72,5,184,295,61
-79,153,232,-37,-156,192,77,-144,-87,110,223,-13
-53,175,228,-62,-140,201,62,-227,-141,46,187,-50
-89,50,139,19,-115,94,93,-266,-212,-45,140,-124
-16,52,68,-18,-42,59,-39,-345,-294,-113,109,-82
-56,61,116,-3,-86,89,15,-358,-303,-137,108,-1
-112,30,142,41,-127,86,112,-372,-324,-152,41,-97
-95,-20,75,57,-85,27,20,-406,-361,-188,15,-76
-72,0,72,36,-72,36,127,-336,-311,-139,16,-64
-15,110,125,-47,-70,117,107,-284,-219,-45,49,-35
-104,-11,93,57,-98,41,38,-335,-300,-126,-20,-162
-73,15,88,29,-81,52,136,-293,-275,-98,-23,17
3,141,138,-72,-67,139,18,-238,-203,-37,85,165
-21,115,137,-47,-79,126,75,-288,-227,-55,97,-82
-105,20,125,43,-116,72,134,-279,-203,-37,70,12
-50,72,122,-11,-86,96,105,-272,-258,-82,0,88
-58,57,115,0,-87,86,-64,-305,-271,-100,-26,-66
-98,5,102,46,-100,53,-91,-236,-222,-48,60,39
-14,121,135,-54,-74,128,160,-208,-213,-14,95,248
-61,51,113,5,-87,82,92,-235,-242,-67,62,210
-54,25,80,14,-67,52,44,-213,-254,-91,48,138
-75,56,131,9,-103,93,-88,-226,-256,-85,7,20
-73,88,161,-7,-118,124,-24,-210,-221,-53,63,28
-36,105,141,-35,-89,122,237,-215,-220,-53,92,201
-105,-10,95,57,-100,42,70,-233,-268,-95,-13,144
-74,95,170,-11,-122,132,92,-184,-232,-69,8,173
-56,175,231,-60,-144,203,131,-132,-213,-19,87,94
-119,79,198,19,-159,139,-34,-197,-231,-38,50,-37
-56,142,198,-44,-127,170,88,-221,-193,-27,74,131
1,224,222,-113,-111,223,193,-109,-134,76,142,100
28,256,228,-142,-100,241,61,-126,-133,35,107,17
-13,293,306,-140,-160,299,4,-91,-131,60,159,195
30,305,274,-168,-122,289,-44,-44,-121,112,226,213
83,286,203,-185,-60,244,-54,-190,-185,-16,145,51
-149,142,291,4,-220,216,62,-162,-214,-44,95,-52
-103,76,179,13,-141,128,87,-91,-196,-27,66,-85
-70,44,114,13,-92,79,68,-124,-232,-34,-11,-20
-89,-2,87,45,-88,43,31,-104,-212,-39,-30,-35
-36,4,39,16,-37,21,80,-58,-171,-13,-47,-105
-109,63,171,23,-140,117,142,-44,-165,29,-51,-126
-112,33,145,39,-128,88,191,-43,-131,26,-36,-36
-60,-29,32,44,-46,1,53,-68,-157,8,-8,138
-32,69,101,-19,-67,85,10,-54,-126,23,-8,216
-113,28,141,42,-127,84,145,-68,-136,41,37,266
-129,88,217,20,-173,152,20,-28,-141,61,24,272
-236,-69,166,152,-201,48,183,-11,-155,1,-113,159
-22,117,139,-48,-80,127,8,-361,-321,-165,371,625
331,126,-204,-228,267,-39,-418,-778,-816,-654,286,786
238,-804,-1042,283,641,-923,-346,-1111,-1445,-1279,-783,-133
-4,-641,-637,323,317,-638,-250,-644,-805,-640,-641,-221
-166,-83,83,125,-125,0,56,-70,-35,123,-84,221
-101,-56,45,78,-73,-6,210,-48,-78,77,-89,184
-60,44,104,8,-82,73,49,177,63,217,23,198
-130,33,163,48,-146,98,51,142,65,223,38,58
-146,-4,142,75,-144,68,77,145,79,233,18,-121
-81,34,115,23,-98,74,190,270,152,298,79,-59
-74,142,216,-34,-145,179,181,176,108,287,4,-52
-125,104,229,11,-177,166,226,132,85,258,-54,-171
-155,-13,142,84,-149,64,338,124,99,242,-41,-215
-242,-51,192,146,-217,70,166,145,134,291,-44,-189
-96,107,202,-6,-149,154,178,223,162,313,58,-154
-134,127,261,3,-198,194,250,231,175,324,57,-83
-178,77,255,50,-216,166,212,268,210,357,55,-81
-25,222,247,-99,-137,234,137,339,251,396,25,-107
-215,65,280,75,-247,172,135,282,259,409,10,-130
-181,9,190,86,-186,99,219,279,312,458,128,-293
-187,167,354,10,-271,260,204,372,362,510,149,-202
-170,206,376,-18,-273,291,140,449,439,585,170,-28
-115,186,301,-36,-209,243,175,419,416,567,134,-62
-245,130,375,57,-310,252,210,357,352,498,151,-55
-241,86,327,77,-284,206,36,343,327,467,118,-93
-231,97,327,66,-279,212,-31,313,289,432,94,-66
-162,140,302,11,-232,221,80,217,250,394,128,-80
-237,63,299,87,-268,181,178,165,188,338,78,-154
-248,48,296,100,-273,172,239,158,179,302,84,-124
-237,47,284,94,-261,165,181,126,103,266,-4,-79
-356,-91,265,224,-311,87,68,39,50,232,-71,-240
-304,-59,245,181,-275,93,144,-14,67,204,-19,-258
-198,25,223,86,-210,124,16,31,67,218,-81,-150
-130,68,198,30,-164,133,-26,-6,116,249,-97,-198
-231,-22,209,126,-220,93,176,29,89,212,-22,-207
-300,-71,229,185,-264,79,138,83,77,224,-113,-262
-164,60,224,52,-194,142,127,92,136,294,-85,-141
-181,-1,180,91,-180,90,36,114,154,307,-33,-140
-317,-3,314,160,-316,155,74,90,163,325,-41,-93
-327,-63,264,195,-296,100,73,30,102,277,-48,-72
-305,-77,228,191,-266,75,45,43,135,293,-120,-262
-342,-19,323,180,-332,152,163,107,202,347,-77,-210
-269,6,275,131,-272,140,130,107,194,337,-43,-193
-180,68,247,56,-214,157,119,102,222,370,4,-232
-232,23,254,104,-243,138,159,15,179,330,-30,-261
-213,49,262,82,-237,155,177,8,168,316,-39,-124
-267,-29,239,148,-253,105,137,112,220,366,59,-127
-290,35,325,128,-307,179,86,143,219,370,49,-228
-169,40,209,65,-189,124,108,93,193,340,-8,-294
-364,-150,214,256,-289,32,68,55,184,328,-101,-334
-317,-11,307,164,-312,148,7,105,220,368,-93,-304
-109,91,200,8,-155,145,121,96,254,398,-68,-407
-272,86,358,93,-315,222,97,75,243,389,-31,-344
-324,103,428,111,-376,265,72,129,252,399,57,-243
-257,144,400,56,-329,272,130,120,289,433,27,-167
-168,263,431,-48,-300,347,195,113,335,465,138,-203
-171,251,422,-41,-297,336,133,114,314,441,204,-192
-191,226,417,-18,-304,321,-3,86,216,341,102,-106
-184,148,332,18,-259,240,110,80,180,313,66,-44
-279,9,288,135,-284,148,93,53,191,347,41,-65
-299,-32,267,165,-283,117,40,55,168,325,-53,-339
-353,-75,278,214,-316,101,-77,74,195,343,-122,-298
-314,-61,253,187,-283,96,-65,94,227,362,-41,-279
-249,-74,175,161,-212,51,151,107,227,359,-32,-409
-330,-169,161,249,-246,-4,102,101,218,350,-71,-388
-401,-198,203,299,-302,2,-19,103,218,347,-51,-367
-381,-192,189,286,-285,-1,2,147,297,426,-82,-219
-237,-81,157,159,-197,38,173,81,262,402,-103,-164
-277,8,285,134,-281,146,292,62,263,406,-47,-203
-353,-139,214,245,-283,38,205,104,194,322,-83,-66
-50,219,269,-85,-160,244,-81,-227,-18,113,398,543
137,18,-119,-78,128,-50,-345,-801,-615,-480,363,603
-57,-992,-935,525,439,-963,-419,-1122,-1176,-1043,-715,-290
-116,-636,-520,376,202,-577,-178,-528,-389,-263,-523,-406
-219,-139,80,179,-149,-29,53,33,323,446,-44,-153
-281,-202,80,241,-180,-60,56,-1,267,392,-113,-304
-295,-134,161,214,-228,13,168,183,372,501,60,-234
-316,-171,145,243,-230,-13,134,222,402,535,17,-187
-290,-152,138,221,-214,-7,52,161,387,513,32,-179
-275,-81,194,178,-234,56,191,225,418,541,62,-145
-183,-31,151,107,-167,60,217,187,460,584,4,-263
-289,-125,164,207,-227,19,142,138,452,578,61,-201
-222,-14,208,117,-215,97,183,220,462,582,129,-103
-223,-37,187,130,-205,75,52,262,498,601,123,-135
-332,-152,180,242,-256,14,3,213,481,580,29,-203
-287,-106,181,196,-234,37,207,218,476,583,26,-141
-247,-100,147,173,-196,24,262,172,453,561,89,4
-238,-33,205,136,-221,85,192,199,476,594,77,-69
-281,-45,236,163,-258,95,160,286,544,667,149,-44
-287,-55,232,171,-259,88,174,322,595,717,206,12
-288,-55,233,171,-260,88,156,352,637,757,184,19
-147,94,241,26,-194,167,247,344,662,780,204,114
-229,42,271,93,-251,156,157,323,630,746,223,84
-323,-90,233,207,-278,71,6,334,596,709,234,12
-140,103,242,18,-191,172,57,307,596,707,202,111
-167,66,233,50,-201,149,48,72,495,605,168,102
-103,70,173,16,-138,121,32,-6,393,503,148,150
-56,89,145,-16,-101,117,-12,124,384,496,123,348
-242,-51,191,147,-216,69,66,-3,343,452,52,194
-206,-63,142,134,-174,40,57,-92,262,369,15,182
-127,-59,68,93,-98,5,-157,-36,265,372,41,223
-116,-41,75,78,-95,17,28,-16,269,380,11,149
-101,-64,36,83,-68,-14,197,41,282,398,-1,165
-201,-131,71,166,-136,-30,74,-45,278,392,-29,84
-203,-120,83,161,-143,-18,101,-85,238,346,-38,215
-88,-84,4,86,-46,-40,14,-68,279,378,-25,311
-165,-115,50,140,-108,-33,-12,-86,264,364,-14,291
-167,-86,82,126,-124,-2,23,-24,247,356,-15,290
-147,-103,44,125,-95,-30,19,-6,300,414,-40,154
-185,-95,90,140,-137,-2,55,51,340,454,9,115
-117,-11,106,64,-111,47,12,16,322,431,7,192
-167,-65,102,116,-134,18,-8,14,307,412,13,243
-158,-99,59,129,-108,-20,-81,-9,299,407,38,268
-150,-86,64,118,-107,-11,-59,-95,249,360,7,234
-178,-79,99,128,-139,10,-68,-11,241,351,20,116
-129,-61,69,95,-99,4,33,71,277,384,41,240
-151,-95,56,123,-104,-20,134,83,298,404,25,316
-181,-148,33,164,-107,-57,-10,9,291,399,41,149
-110,-70,41,90,-76,-15,-67,0,284,390,37,176
-32,-45,-13,39,-10,-29,-25,3,276,380,23,219
-51,-84,-33,68,-9,-58,-46,-22,269,368,54,274
-97,-38,59,67,-78,10,-44,25,257,352,49,282
25,99,73,-62,-24,86,27,16,290,395,95,280
42,160,118,-101,-39,138,-31,-25,323,437,58,245
-76,104,180,-15,-128,142,-14,48,314,426,56,276
22,152,130,-88,-54,141,-113,99,320,421,145,352
40,128,89,-84,-25,108,-60,6,272,374,116,377
-5,147,152,-71,-79,149,62,-62,232,336,112,535
31,78,47,-55,-8,63,-98,-87,183,286,74,508
-21,-71,-49,46,14,-60,-132,-106,135,233,4,282
-123,-101,21,112,-72,-40,-236,-72,157,263,-36,147
-87,-201,-114,144,14,-157,-65,-63,158,257,-79,224
-55,-171,-115,113,30,-143,148,-118,151,205,-113,204
-18,-97,-79,58,31,-88,42,-34,193,279,-87,229
18,-116,-135,49,77,-125,48,-12,203,310,-69,296
-91,-177,-86,135,-2,-132,-18,-67,157,244,-101,227
-27,-171,-144,99,59,-158,-39,-64,139,237,-109,393
11,-2,-13,-4,12,-8,-86,-102,182,278,-6,610
-177,-164,13,171,-95,-76,-90,-71,136,229,-89,493
-83,-110,-27,96,-27,-68,-105,-265,-27,69,92,527
309,184,-125,-246,217,29,-411,-772,-338,-240,516,886
489,-611,-1100,61,795,-855,-604,-1252,-1111,-1012,-342,256
271,-978,-1249,353,760,-1113,-632,-981,-995,-905,-878,-364
-11,-341,-330,176,159,-335,-292,-269,-32,57,-260,113
-125,-205,-80,166,-22,-143,121,-40,189,280,-115,234
-114,-179,-65,147,-25,-122,189,28,243,332,-90,198
-113,-140,-27,127,-43,-83,35,-8,234,325,-86,267
-82,-100,-18,91,-32,-59,93,-80,177,265,-101,205
67,34,-33,-51,50,0,107,-45,261,345,-13,285
-35,-141,-107,88,37,-124,-55,-60,232,315,-74,229
-85,-79,6,82,-45,-37,95,-54,237,329,-57,179
17,115,98,-66,-41,107,148,6,275,360,15,245
-19,-20,-1,20,-9,-10,176,36,268,350,-34,224
-108,-130,-22,119,-43,-76,132,-31,205,284,-96,233
-136,-100,36,118,-86,-32,64,-28,228,306,-79,318
-130,-55,76,92,-103,10,36,-40,237,347,-46,416
-171,-154,17,162,-94,-68,78,-21,234,335,-31,386
-125,-93,31,109,-78,-31,149,84,302,387,-58,329
-189,-42,147,115,-168,52,43,136,360,448,-32,416
-173,-47,126,110,-149,39,148,58,368,455,55,427
-209,9,218,99,-213,113,78,39,308,381,76,312
-142,76,218,32,-180,147,61,231,411,497,107,216
49,187,138,-118,-45,162,220,217,445,507,130,211
-140,28,168,55,-154,98,98,127,363,384,112,310
-176,-19,157,97,-167,69,100,47,331,401,119,301
-82,74,155,4,-119,114,97,-53,230,309,113,233
-54,51,105,1,-80,78,4,-149,135,215,52,266
-64,-14,50,39,-57,18,43,-219,46,116,1,255
-178,-110,68,144,-123,-21,30,-217,8,83,-55,200
-194,-56,138,125,-166,41,-51,-235,11,117,-93,173
-123,-76,47,100,-84,-15,-35,-167,-16,89,-93,115
-209,-210,-1,210,-104,-106,-140,-214,-31,62,-124,47
-181,-165,15,173,-98,-75,-86,-255,-43,24,-103,142
-55,-106,-51,81,-2,-78,94,-251,-71,33,-120,136
-177,-139,38,158,-107,-50,-14,-255,-53,61,-134,119
-121,-121,-1,121,-60,-61,-12,-192,-13,93,-66,167
-6,-4,2,5,-4,-1,89,-258,-6,102,-75,146
-183,-74,109,129,-146,17,6,-287,-57,58,-95,234
-252,-176,75,214,-163,-51,-101,-336,-101,11,-95,184
-153,-88,64,120,-108,-12,9,-343,-82,2,-113,241
-127,-81,45,104,-85,-18,55,-180,-10,74,-47,253
-81,-38,44,59,-62,3,60,-132,77,149,-62,58
-59,-8,51,33,-55,22,24,-185,58,140,-58,75
-149,-71,79,110,-114,4,-99,-201,42,135,-20,54
-154,-75,79,114,-116,2,73,-208,66,147,-86,63
-35,-7,28,21,-32,10,29,-249,26,103,-82,167
-106,-20,86,63,-96,32,-163,-260,14,85,-73,139
-185,-59,125,122,-155,33,-50,-235,-6,72,-62,219
-169,-35,134,102,-151,49,-57,-248,-13,61,-69,380
-184,-72,112,128,-148,20,40,-288,-10,73,-79,365
-157,-124,32,140,-94,-45,121,-294,-40,37,-94,303
-50,0,51,25,-50,25,28,-300,-15,38,-67,409
-12,91,104,-40,-58,97,62,-262,-23,89,4,438
-148,20,169,64,-158,94,-24,-213,9,109,-3,383
-121,131,252,-5,-187,191,-33,-149,116,177,52,442
-86,176,262,-46,-174,219,-51,-157,82,164,118,313
-48,220,267,-86,-158,243,-135,-239,52,122,79,107
-49,178,227,-65,-138,202,-62,-265,32,102,9,109
-90,-6,84,48,-87,39,-83,-305,-57,14,-39,79
-52,-43,9,47,-30,-17,-9,-272,-51,48,-83,6
-112,-106,6,109,-58,-50,100,-237,-28,98,-102,48
-28,-90,-62,59,17,-75,25,-245,-32,88,-148,9
-34,-76,-42,55,4,-59,-60,-236,-6,99,-89,130
-105,-151,-46,128,-29,-98,30,-204,41,113,-99,127
-68,-177,-109,123,21,-143,-2,-232,36,94,-181,-73
-122,-162,-40,142,-41,-101,-92,-281,-24,77,-168,-182
-120,-157,-37,139,-42,-97,-32,-293,-30,72,-180,-113
-118,-26,92,72,-105,33,-56,-260,46,111,-50,132
-226,-154,72,190,-148,-41,30,-304,-73,2,-194,-14
6,84,78,-45,-36,81,-149,-542,-162,-94,244,397
436,67,-369,-251,403,-151,-639,-1046,-663,-598,302,527
378,-995,-1373,309,875,-1184,-749,-1413,-1355,-1290,-880,-435
143,-739,-882,299,512,-810,-387,-801,-689,-628,-742,-447
-11,-115,-104,63,47,-110,-53,-208,84,145,-160,-44
-92,-199,-107,145,8,-153,-44,-214,109,177,-179,15
-156,-172,-16,164,-70,-93,-157,-184,119,179,-148,58
-141,-177,-36,159,-52,-106,-23,-200,114,177,-173,-5
-26,-102,-76,64,25,-88,171,-190,126,212,-130,106
-85,-144,-59,114,-13,-101,131,-159,119,165,-151,63
-122,-142,-21,132,-50,-81,61,-115,148,195,-110,46
-59,-68,-9,63,-25,-38,70,-67,164,230,-97,175
-76,-61,16,68,-46,-22,141,-53,170,229,-143,88
-100,-74,26,86,-63,-24,120,-14,198,261,-106,117
16,58,42,-37,-13,50,120,16,254,310,-81,2
54,71,17,-63,18,44,88,45,288,349,-81,-133
-39,-48,-9,43,-15,-29,60,33,282,342,-103,-75
-40,-3,37,21,-38,17,67,-21,289,348,-106,-178
11,20,9,-16,1,14,14,37,274,333,-88,-46
-77,11,88,32,-82,49,108,139,332,384,-81,48
-21,78,99,-28,-60,88,125,200,439,489,-38,38
51,134,83,-93,-16,108,103,234,475,530,37,218
-16,108,124,-46,-70,116,125,234,460,508,82,187
56,149,93,-103,-19,121,118,247,451,514,82,240
-58,69,127,-6,-92,98,25,158,385,460,36,332
48,73,25,-61,11,49,-71,89,319,376,46,297
61,92,31,-77,15,61,-1,21,232,285,14,395
-30,12,42,8,-36,27,-5,-71,147,205,-76,336
93,62,-31,-78,62,15,12,-83,121,177,-50,280
-87,-64,23,75,-55,-20,-28,-115,43,95,-81,339
66,0,-66,-33,66,-32,-48,-147,62,111,-120,375
141,33,-108,-86,124,-38,66,-156,78,114,-116,352
-4,-101,-96,53,47,-98,60,-126,16,79,-188,303
28,9,-19,-19,24,-5,-31,-90,40,104,-143,361
-25,-27,-2,26,-11,-15,5,-65,76,125,-99,305
78,17,-61,-47,70,-22,114,-85,57,126,-189,204
97,131,34,-114,31,82,92,-4,57,115,-158,287
-57,-22,35,39,-46,6,-35,31,73,137,-180,234
60,39,-20,-49,40,9,27,38,110,162,-139,90
84,75,-10,-79,46,32,79,83,105,151,-88,159
20,13,-8,-17,14,3,-44,23,79,139,-191,155
21,58,37,-39,-8,47,75,109,110,160,-87,245
53,117,64,-85,-6,90,23,150,113,169,-77,328
87,149,63,-118,12,106,23,156,131,186,-120,241
-89,-20,69,54,-79,24,20,144,61,121,-127,275
52,82,30,-67,10,56,7,179,85,137,-146,303
91,161,70,-126,10,115,124,250,150,195,-112,306
-16,12,28,2,-22,20,77,202,92,150,-138,258
-21,80,101,-29,-61,90,150,215,126,170,-85,292
-24,94,117,-35,-71,105,-13,179,137,194,-80,401
19,65,46,-42,-13,55,77,215,104,202,-115,292
-104,56,160,24,-132,108,167,218,71,201,-133,257
9,124,115,-67,-53,119,15,216,83,209,-147,405
-13,191,205,-89,-109,198,60,311,123,194,-62,503
-120,155,274,-18,-197,214,102,319,187,216,48,571
20,311,292,-165,-136,301,85,364,231,272,107,522
-5,317,322,-156,-163,319,-26,353,184,234,108,524
-108,163,272,-28,-190,217,74,292,93,131,-13,493
-116,139,255,-11,-186,197,21,245,9,59,-143,375
-95,116,211,-11,-153,163,37,224,35,85,-135,424
-169,20,189,74,-180,104,49,244,10,75,-146,458
-200,-109,90,154,-145,-9,38,313,8,93,-158,440
-211,-130,81,171,-146,-25,198,331,29,77,-182,207
-135,-51,84,93,-110,17,28,329,31,66,-161,102
-98,-79,19,88,-58,-29,81,418,87,130,-144,140
-134,-75,58,104,-96,-8,141,427,85,118,-152,192
-213,-89,124,151,-168,18,65,441,87,123,-109,207
-220,-56,164,138,-192,54,106,418,79,114,-122,38
-86,120,206,-17,-146,163,141,466,166,208,-95,140
-244,-125,119,184,-181,-3,138,426,50,90,-157,204
-15,191,206,-88,-110,198,-140,96,-190,-155,249,707
205,-61,-265,-72,235,-163,-360,-472,-848,-805,62,820
42,-1037,-1079,497,561,-1057,-352,-778,-1379,-1344,-973,106
-22,-564,-543,293,261,-553,-140,-67,-486,-449,-654,239
-141,-151,-10,146,-65,-80,95,509,178,214,-128,497
-168,-93,74,131,-121,-10,2,523,171,204,-164,403
-189,-39,150,114,-169,55,108,572,227,259,-106,352
-192,-143,49,167,-120,-46,245,643,206,238,-122,245
-224,-22,202,122,-213,90,99,731,289,326,-64,165
-105,5,111,50,-108,58,166,658,254,291,-105,172
-94,7,101,43,-97,53,160,630,211,258,-126,238
-243,-70,173,156,-208,51,173,657,224,266,-108,178
-178,-78,100,128,-138,11,192,700,237,283,-61,156
-209,-26,183,118,-196,78,190,731,312,331,-78,276
-298,-112,186,205,-242,37,228,707,320,323,-130,255
-264,-78,185,171,-224,53,192,776,317,363,-38,325
-191,34,225,78,-208,129,196,812,355,403,-42,384
-227,-26,201,126,-214,87,64,729,315,361,-74,173
-150,51,202,49,-176,126,170,803,363,408,0,219
-147,69,216,39,-182,143,271,947,472,517,88,258
-309,-19,290,163,-299,136,209,933,487,538,110,240
-220,115,335,52,-278,225,232,928,513,564,128,238
-292,35,327,128,-309,181,253,921,485,547,164,257
-220,101,321,59,-271,211,227,862,455,521,194,355
-97,171,268,-37,-183,219,124,791,409,455,148,236
-264,-1,263,132,-263,130,104,700,301,335,113,383
-118,71,189,23,-154,130,144,593,204,244,119,524
-175,46,221,65,-198,133,149,627,152,193,60,571
-221,-12,209,116,-215,98,150,666,167,217,40,626
-26,69,94,-22,-60,81,226,637,171,226,35,445
-107,59,166,24,-137,112,-8,644,170,225,36,471
-244,-108,136,176,-190,14,-62,533,74,131,-66,382
-145,-21,124,82,-134,51,178,456,3,78,-117,264
-72,42,114,15,-93,78,69,453,43,104,-23,280
-236,-184,52,210,-144,-66,100,518,23,83,-100,191
-163,-38,125,100,-144,43,173,610,85,178,-33,205
-108,19,127,44,-118,73,106,574,120,145,25,63
-119,-26,93,73,-106,33,138,530,90,107,-88,85
-134,-55,79,95,-107,12,151,558,71,152,-17,157
-206,-132,74,169,-139,-29,153,574,34,110,-40,-13
-63,69,132,-3,-98,101,168,567,81,148,-2,88
20,112,92,-66,-36,102,82,531,56,121,25,207
11,95,84,-53,-37,89,55,503,-5,94,-58,236
-98,44,142,27,-120,93,56,578,9,100,-17,225
-182,-82,100,132,-141,9,71,529,20,60,-31,200
-100,4,104,48,-102,54,119,456,-31,5,-64,245
-134,2,136,66,-135,69,-15,515,-62,-29,-66,260
-167,-12,154,89,-160,70,-29,577,14,35,-15,243
-115,-16,99,66,-107,41,115,556,-33,-7,-29,209
-203,-117,86,160,-144,-16,142,546,-57,-43,-35,232
-126,-57,68,91,-97,6,72,562,14,36,9,98
57,76,19,-66,19,48,54,530,-24,10,34,138
53,176,123,-114,-36,149,67,588,29,37,81,342
34,186,152,-110,-60,169,132,486,20,96,78,302
-21,168,189,-74,-106,179,121,459,-40,87,112,315
-49,196,246,-74,-148,221,2,530,-16,66,99,257
-77,141,218,-33,-147,179,45,404,-101,-65,46,204
-73,126,198,-27,-136,162,99,378,-146,-116,73,346
-13,86,99,-37,-56,92,82,359,-180,-116,5,326
-120,-87,33,103,-76,-27,22,342,-240,-175,-90,184
-144,-94,49,119,-96,-22,71,373,-198,-132,-60,156
-74,-101,-27,88,-24,-64,84,400,-187,-120,-101,212
-76,-122,-46,100,-15,-84,15,388,-214,-130,-60,336
7,-68,-75,31,41,-71,-14,402,-199,-98,-53,384
-56,-136,-80,97,12,-108,12,402,-244,-180,-142,313
-187,-185,2,186,-94,-91,134,296,-240,-178,-62,352
-91,-203,-113,147,11,-158,49,294,-235,-173,-122,401
-57,-18,39,38,-48,10,22,323,-231,-170,-91,436
-94,-51,43,73,-69,-4,177,341,-207,-158,-112,261
94,-19,-114,-37,104,-66,20,96,-394,-355,147,389
391,218,-173,-304,282,22,-325,-409,-801,-747,467,818
311,-677,-987,183,649,-832,-518,-839,-1502,-1463,-480,166
136,-964,-1100,414,618,-1032,-523,-547,-1249,-1200,-887,-255
112,-189,-301,39,206,-244,-198,201,-270,-251,-245,7
-59,-173,-114,117,28,-144,69,373,-150,-115,-96,-67
-7,-140,-132,74,63,-136,176,380,-179,-102,-106,11
46,-44,-90,-1,68,-67,147,391,-121,-109,-80,105
-4,-79,-75,42,36,-77,95,380,-140,-134,-68,139
-85,-109,-24,97,-30,-66,144,393,-114,-87,-72,149
-64,-108,-45,86,-10,-76,56,309,-167,-132,-104,81
115,9,-106,-62,110,-48,184,327,-170,-133,-86,4
29,-26,-55,-1,42,-40,180,429,-121,-97,-79,-120
-40,-3,37,22,-39,17,-1,408,-123,-88,-96,-249
-16,-45,-29,31,6,-37,36,336,-128,-104,-81,-259
12,-4,-16,-4,14,-10,103,373,-87,-58,-54,-172
60,63,3,-62,28,33,105,394,-108,-76,-36,-180
42,5,-37,-23,40,-16,113,416,-90,-73,-62,-303
-90,-31,59,60,-74,14,103,473,-12,-1,-82,-340
-161,-53,108,106,-134,27,79,508,54,63,43,-200
-25,39,64,-7,-45,51,158,506,85,96,55,-118
89,126,37,-108,26,81,127,512,95,100,62,-95
51,133,82,-92,-16,108,92,465,83,84,118,-52
3,94,91,-49,-44,92,133,420,16,20,45,-54
14,132,118,-73,-52,125,133,410,4,5,79,37
62,153,91,-108,-15,122,86,340,-54,-54,117,148
71,109,38,-90,16,74,-27,231,-154,-155,95,95
72,105,33,-88,19,68,-2,89,-245,-249,54,80
55,85,30,-70,12,57,14,53,-354,-357,-23,132
2,12,10,-8,-4,11,-110,72,-405,-410,-53,-30
48,-18,-66,-15,57,-42,-156,173,-361,-364,-98,-52
62,17,-44,-39,53,-14,-20,233,-292,-303,-101,64
108,45,-63,-77,86,-9,-22,196,-303,-298,-61,-74
105,61,-44,-83,74,9,-81,186,-315,-305,-57,-122
-5,-64,-59,35,27,-61,-39,87,-362,-376,-126,-161
22,-65,-87,22,54,-76,-55,111,-380,-388,-154,-135
133,89,-44,-111,89,22,14,127,-361,-373,-133,-68
57,-11,-68,-23,63,-39,-102,99,-390,-395,-129,-182
58,-37,-95,-11,77,-65,-62,83,-378,-390,-128,-201
176,84,-92,-130,134,-4,-79,19,-381,-390,-111,-229
19,-30,-49,6,34,-40,-158,28,-391,-379,-109,-200
48,-10,-58,-19,53,-34,25,-20,-397,-408,-126,-191
157,103,-54,-129,105,24,-92,24,-379,-385,-95,-250
33,47,14,-40,9,30,15,158,-312,-341,-85,-160
-49,-10,39,30,-44,15,-81,153,-307,-335,-11,-246
84,64,-20,-74,52,22,-185,105,-328,-318,-5,-299
124,117,-7,-120,65,55,66,68,-320,-335,-49,-86
23,8,-15,-15,18,-3,-53,53,-351,-377,-73,-133
114,53,-61,-83,88,-4,-54,28,-367,-381,-91,-250
84,72,-13,-78,48,29,-95,-5,-346,-366,-44,-264
19,-10,-29,-4,23,-19,-163,-4,-396,-419,-120,-276
105,32,-73,-68,89,-21,-55,-15,-394,-413,-83,-229
92,120,29,-106,31,74,-109,52,-344,-365,-58,-318
45,126,80,-86,-18,103,-61,68,-332,-337,-78,-313
82,159,77,-121,2,118,14,59,-296,-296,27,-372
102,272,170,-187,-35,221,-116,109,-289,-304,23,-438
118,279,161,-199,-22,220,-84,76,-289,-302,106,-404
61,217,155,-139,-47,186,-154,-5,-315,-335,90,-466
29,83,54,-57,-13,68,-293,-115,-407,-431,-64,-473
141,35,-107,-88,124,-36,-24,-163,-457,-481,-105,-551
158,66,-92,-112,125,-13,54,-154,-454,-469,-106,-499
19,-39,-58,10,38,-48,-75,-76,-434,-465,-87,-345
-24,-109,-85,67,31,-97,-169,-26,-415,-478,-152,-419
39,-76,-115,19,78,-96,-179,-28,-402,-437,-130,-498
12,-88,-100,38,57,-94,-9,19,-356,-379,-123,-482
73,-89,-161,8,117,-125,-125,-25,-371,-398,-152,-554
60,-78,-138,9,99,-108,-137,-53,-370,-394,-98,-295
-17,-97,-80,57,32,-88,-34,-105,-390,-415,-134,-103
6,-9,-15,1,11,-12,-3,6,-368,-392,-63,-185
-148,-146,1,147,-74,-72,99,-28,-410,-438,-139,-134
109,111,2,-110,53,56,-309,-554,-647,-671,256,254
625,92,-533,-358,579,-221,-674,-909,-1145,-1165,256,336
524,-919,-1442,198,983,-1180,-704,-1050,-1640,-1659,-849,-618
203,-690,-893,244,549,-792,-478,-575,-1006,-1027,-713,-663
88,-45,-133,-21,111,-88,-85,-72,-314,-341,-200,-85
27,-99,-127,36,77,-113,8,-101,-372,-400,-254,-246
-57,-62,-5,60,-26,-33,-25,26,-345,-372,-159,-369
58,-5,-63,-26,60,-34,31,57,-339,-373,-186,-346
55,-21,-76,-17,66,-48,-55,-61,-339,-380,-149,-202
-39,-90,-51,64,6,-70,-51,-107,-339,-370,-150,-145
54,11,-43,-32,48,-16,145,57,-299,-330,-86,-144
34,9,-25,-21,29,-8,-25,123,-253,-286,-39,-78
50,-11,-62,-19,56,-36,12,71,-245,-272,-115,-184
52,35,-17,-43,34,9,-2,97,-224,-243,-87,-260
107,41,-66,-74,86,-12,38,93,-216,-221,-90,-331
70,49,-22,-59,46,13,171,154,-154,-178,-82,-405
-47,49,95,-1,-71,72,-131,156,-142,-178,-82,-383
132,134,2,-133,64,68,1,178,-116,-146,-114,-378
6,14,8,-10,-1,11,145,210,-72,-108,-93,-324
-80,-16,64,48,-72,23,61,174,-72,-96,-41,-345
62,151,89,-107,-14,120,137,251,-23,-38,-20,-443
13,165,152,-89,-70,159,42,327,62,45,12,-467
48,159,111,-104,-32,135,-18,263,52,16,59,-534
-4,83,87,-40,-46,85,-28,129,-21,-61,5,-378
45,159,113,-102,-34,136,-42,61,-62,-86,53,-205
111,204,92,-158,9,148,63,206,-96,-132,96,-185
57,98,41,-77,8,69,-76,258,-79,-111,36,-67
9,22,13,-16,-2,18,-79,80,-166,-194,-17,-282
-23,14,38,5,-30,26,-12,54,-216,-248,-80,-351
141,138,-4,-140,72,67,-141,61,-186,-221,-92,-344
78,-2,-80,-38,79,-41,-115,-16,-273,-311,-130,-425
49,-28,-76,-10,62,-52,-114,-51,-270,-308,-135,-280
161,83,-78,-122,119,3,-151,-44,-231,-271,-109,-229
74,4,-70,-39,72,-33,-147,-79,-257,-297,-138,-171
131,42,-89,-86,110,-23,-130,-140,-293,-328,-177,-135
189,72,-117,-130,152,-22,-41,-22,-270,-285,-154,-22
89,40,-48,-64,68,-4,29,60,-220,-248,-124,-26
-21,-63,-42,42,10,-52,-90,30,-204,-247,-158,-79
-5,-78,-73,42,34,-75,-156,-38,-218,-254,-159,-106
99,61,-37,-80,68,12,-67,-56,-236,-276,-133,-171
86,32,-54,-59,70,-11,-93,44,-193,-230,-136,-172
144,126,-18,-135,80,54,-184,-9,-200,-244,-141,-216
164,90,-73,-127,118,8,-86,-6,-170,-219,-95,-219
14,-92,-107,39,61,-99,-52,20,-154,-194,-103,-332
50,99,49,-75,0,74,-4,-88,-225,-264,-133,-266
145,115,-30,-130,87,42,-59,-57,-205,-245,-103,-110
132,58,-74,-95,103,-8,-252,10,-189,-230,-89,-147
104,86,-18,-95,61,34,-57,-34,-186,-229,-106,-139
72,24,-47,-48,59,-11,-31,-41,-175,-219,-146,-52
118,72,-46,-95,82,13,-109,-35,-193,-238,-106,-18
156,77,-79,-117,117,-1,-172,-106,-210,-257,-84,-249
110,-1,-111,-55,110,-55,-182,-67,-197,-239,-107,-252
119,92,-27,-105,73,32,-36,-13,-159,-200,-104,-122
105,187,82,-146,11,134,-42,-35,-153,-198,-106,-246
51,132,82,-92,-16,107,-99,-88,-142,-183,-64,-198
156,267,112,-212,22,189,-123,-42,-105,-150,31,-191
254,390,136,-322,58,263,-69,98,-68,-111,100,-108
127,253,127,-190,0,190,-107,7,-89,-134,48,107
8,55,47,-32,-20,51,-281,-101,-200,-247,-49,-56
127,80,-47,-103,87,16,-145,-89,-208,-248,-52,-71
129,26,-104,-77,116,-39,37,-117,-219,-267,-112,-177
22,-86,-108,32,65,-97,-140,-87,-237,-285,-150,-507
193,48,-145,-120,169,-48,-51,-118,-187,-240,-65,-454
201,13,-188,-107,194,-87,-43,-170,-259,-305,-120,-458
56,-58,-114,1,86,-86,-109,-80,-240,-278,-163,-508
39,-114,-153,38,96,-133,-216,-79,-227,-280,-139,-525
25,-118,-143,47,84,-130,-240,-6,-185,-241,-130,-574
97,-86,-182,-5,140,-134,124,-33,-153,-216,-129,-514
4,-49,-53,23,28,-51,-12,-135,-207,-257,-68,-504
-64,-99,-35,82,-14,-67,-24,-129,-272,-314,-174,-666
219,156,-63,-187,141,47,-185,-353,-348,-400,209,-159
619,260,-360,-439,489,-50,-682,-736,-729,-778,405,135
534,-872,-1406,169,970,-1138,-605,-1270,-1541,-1585,-788,-929
208,-899,-1107,346,657,-1002,-469,-891,-1153,-1200,-884,-1189
155,-69,-224,-43,190,-146,-224,-129,-236,-296,-185,-760
129,-44,-173,-42,151,-108,-60,-66,-160,-240,-174,-701
235,119,-116,-176,175,2,39,22,-122,-226,-70,-443
86,-33,-119,-26,103,-76,101,-40,-180,-259,-127,-342
20,-70,-90,25,55,-80,-75,-7,-206,-255,-126,-358
39,-21,-60,-9,50,-40,31,49,-176,-237,-94,-406
-46,-103,-56,75,5,-79,85,3,-171,-242,-129,-472
39,-12,-51,-13,45,-31,43,19,-95,-175,-87,-402
22,-41,-63,10,43,-52,56,8,-139,-188,-68,-401
88,62,-26,-75,57,18,61,59,-152,-165,-48,-432
-28,-39,-10,34,-9,-25,-42,-9,-149,-189,-122,-479
12,37,25,-24,-7,31,-96,74,-117,-182,-74,-439
39,66,27,-53,6,46,141,100,-91,-150,-46,-398
-39,-35,4,36,-22,-15,-8,35,-85,-143,-77,-414
83,131,48,-107,17,89,-76,107,-10,-89,-18,-367
-27,32,59,-3,-43,45,163,147,34,-57,-15,-419
27,75,48,-51,-11,61,139,229,77,12,36,-423
48,184,136,-116,-44,159,94,261,132,78,72,-368
-140,47,187,47,-164,117,-24,260,149,96,61,-317
-69,55,124,7,-97,89,-4,214,118,59,95,-193
62,168,106,-116,-22,137,97,209,110,44,112,-185
-20,63,83,-22,-51,72,13,143,65,9,95,-240
-2,34,36,-16,-19,35,-14,-62,-74,-139,25,-217
91,124,33,-108,29,78,-89,-42,-115,-174,-6,-249
57,29,-29,-43,43,0,-131,-67,-146,-212,-3,-364
119,47,-72,-82,95,-13,-84,-151,-210,-259,-33,-484
82,37,-45,-59,63,-4,-44,-119,-213,-237,-69,-491
-5,-52,-47,29,21,-50,-56,-122,-187,-249,-72,-493
95,33,-63,-64,79,-15,-137,-107,-175,-241,-58,-669
92,37,-55,-64,73,-9,17,-109,-154,-222,-88,-642
57,11,-47,-34,52,-18,-102,-140,-129,-201,-80,-517
103,29,-74,-65,88,-23,-135,-191,-151,-219,-116,-584
19,-68,-87,25,53,-77,35,-144,-129,-198,-93,-543
25,-60,-85,18,55,-72,-98,-106,-127,-189,-76,-563
90,-31,-120,-29,105,-75,-10,-126,-119,-190,-130,-571
55,10,-45,-32,50,-17,63,-14,-42,-117,-53,-461
121,84,-37,-102,79,23,31,-23,-32,-107,-74,-545
-19,-23,-4,21,-7,-13,-62,-106,-86,-161,-84,-595
-71,-50,21,60,-46,-14,-115,-97,-93,-158,-47,-546
212,76,-136,-143,174,-29,-94,-96,-54,-121,-59,-522
122,91,-31,-106,76,30,24,-69,-33,-101,-38,-517
65,10,-54,-38,60,-22,22,-118,-63,-125,-54,-572
168,17,-150,-92,159,-66,-139,-138,-99,-169,-48,-478
103,21,-82,-62,92,-30,-95,-121,-72,-145,-55,-475
94,40,-54,-66,74,-7,-113,-117,-68,-143,-67,-570
56,71,15,-64,21,43,-80,-58,-58,-129,-41,-456
84,29,-56,-56,70,-13,-61,-142,-54,-128,-46,-451
59,-8,-67,-26,63,-37,-73,-154,-83,-157,-54,-451
81,0,-80,-40,81,-40,56,-169,-78,-153,-52,-341
143,29,-114,-86,128,-42,-53,-223,-105,-198,-36,-443
157,99,-58,-128,107,20,-132,-107,-40,-116,-10,-547
187,174,-13,-180,100,80,27,-134,9,-75,39,-523
30,143,112,-87,-41,127,-60,-51,13,-71,88,-496
111,206,95,-159,8,150,-28,7,107,45,93,-357
172,270,98,-222,37,184,27,-64,88,-3,147,-312
24,134,109,-79,-43,121,-178,-30,67,-40,87,-392
58,107,49,-82,4,78,-136,-180,-38,-123,40,-503
58,155,97,-107,-20,126,-106,-212,-140,-215,62,-570
31,-25,-56,-3,44,-40,-103,-182,-94,-177,-62,-468
110,-4,-114,-53,113,-59,8,-153,-64,-131,-40,-432
47,-59,-106,7,76,-82,-98,-137,-78,-143,-66,-605
-44,-177,-133,111,45,-155,-67,-230,-146,-226,-150,-619
71,-60,-131,-5,101,-95,43,-181,-120,-202,-116,-602
116,-64,-180,-26,148,-122,25,-163,-95,-184,-91,-632
122,8,-114,-64,118,-53,32,-148,-56,-143,-22,-542
103,-69,-172,-16,138,-120,-7,-254,-121,-206,-95,-575
54,72,18,-63,18,45,-104,-242,-129,-213,-38,-476
-17,-12,5,14,-11,-4,56,-133,-114,-191,-20,-748
151,30,-121,-90,136,-45,-139,-326,-185,-270,286,-472
519,125,-393,-322,456,-134,-630,-820,-614,-700,356,-133
511,-869,-1380,179,946,-1124,-617,-1322,-1417,-1496,-722,-981
249,-812,-1061,282,655,-936,-571,-811,-917,-997,-764,-915
47,-154,-201,54,124,-177,-27,-142,-69,-156,-121,-429
1,-160,-161,80,81,-160,167,-151,-83,-175,-133,-407
14,-53,-67,19,40,-59,5,-120,-44,-131,-84,-381
-38,-147,-109,92,36,-128,113,-78,-44,-138,-109,-439
-5,-110,-105,58,51,-108,4,-38,-31,-112,-96,-453
136,66,-71,-101,103,-2,36,-16,30,-51,-54,-413
25,35,10,-30,7,22,97,-35,49,-53,-43,-288
7,11,3,-9,2,7,110,-64,38,-64,1,-302
54,-74,-129,10,92,-101,-79,-60,10,-108,-57,-368
-27,-110,-83,69,28,-97,50,13,74,-52,-42,-421
85,7,-78,-46,81,-35,65,-37,97,-47,-25,-305
134,98,-35,-116,84,31,73,-8,99,-26,-12,-78
11,46,35,-29,-12,40,229,142,148,62,55,-94
-133,-51,82,92,-107,16,-75,120,163,73,-1,-122
-49,-5,44,27,-47,19,46,74,200,116,38,-163
51,57,6,-54,22,31,111,106,210,126,37,-211
27,29,2,-28,13,15,2,140,246,149,32,-134
51,87,36,-69,8,61,187,178,289,201,174,-82
19,157,138,-88,-60,147,189,191,266,181,146,-187
76,156,80,-117,-2,118,157,240,322,229,164,-218
81,123,42,-102,19,82,72,260,353,255,186,-125
19,111,93,-65,-37,102,11,155,266,167,125,-6
77,145,69,-111,4,107,94,92,167,75,125,180
13,55,43,-34,-15,49,-10,-36,84,-5,111,86
9,14,6,-11,1,10,-122,-151,-36,-127,88,42
34,-18,-53,-8,44,-35,-56,-109,-60,-148,30,192
-23,-62,-39,43,8,-50,22,-97,-32,-118,16,49
37,-12,-49,-13,43,-30,18,-8,-32,-123,-37,-172
15,-8,-23,-3,19,-15,18,-2,25,-69,-43,-186
-72,-80,-8,76,-31,-44,39,-47,75,-41,28,-171
51,-29,-80,-11,65,-54,33,-54,72,-57,-33,-281
80,-1,-81,-39,80,-41,-99,-91,50,-92,-51,-308
34,-61,-95,14,65,-78,-66,-98,40,-109,-40,-228
0,-3,-3,2,2,-3,89,-139,15,-101,-44,-258
-74,-52,23,62,-48,-14,1,-67,15,-81,-38,-225
39,-3,-42,-18,41,-23,-7,-1,77,-23,-30,-175
10,36,26,-23,-8,31,61,-9,108,-23,11,-122
35,22,-13,-28,24,4,86,-13,89,-23,63,54
90,69,-20,-79,54,24,36,-7,86,-3,31,47
-76,-7,69,41,-72,31,-9,61,115,20,36,154
-51,-37,14,44,-32,-11,83,19,119,14,56,297
-11,-25,-14,18,2,-19,93,-57,84,-43,-12,266
-107,-56,51,81,-79,-2,-42,-30,80,-37,47,256
9,47,38,-29,-14,42,-42,52,125,-9,95,175
23,88,65,-56,-21,76,35,57,126,21,66,29
-124,-54,70,88,-97,8,73,-69,86,0,29,73
-68,-9,59,38,-64,25,120,-17,109,-11,58,173
-78,-3,75,40,-77,36,-53,-18,74,-32,20,36
-99,-14,86,57,-92,36,-49,-13,74,-46,-5,49
-33,54,87,-11,-60,70,90,51,124,17,40,77
25,68,42,-47,-9,55,96,-34,93,5,17,133
-14,148,162,-68,-88,155,71,85,129,18,113,180
-29,175,204,-73,-117,189,-43,116,191,109,156,141
13,208,195,-111,-91,201,-2,124,279,139,179,207
19,237,218,-128,-100,228,-52,168,156,89,168,190
-23,130,153,-53,-88,141,-136,90,133,-41,107,191
-96,78,174,9,-135,125,-5,-58,60,-18,33,154
57,127,70,-93,-7,99,96,47,100,-8,16,171
-35,-14,21,24,-28,4,50,62,128,-13,-29,36
-110,3,113,53,-111,58,125,75,70,57,-35,41
68,84,16,-77,26,50,141,149,278,-49,56,172
-154,-132,22,143,-88,-55,-65,-428,-637,622,-90,120
-184,-127,57,155,-120,-35,69,-227,-413,789,-103,165
-39,-93,-53,66,7,-73,140,87,466,86,-41,192
-127,-150,-23,139,-52,-86,8,17,140,123,-94,125
-104,-29,75,66,-89,23,-93,110,226,85,-57,134
-139,-33,105,86,-122,36,3,33,179,42,-86,257
-168,-144,23,156,-96,-60,218,30,66,-25,-78,135
151,266,115,-209,18,190,-90,-237,-26,-162,422,720
379,-15,-394,-182,386,-204,-367,-795,-726,-794,61,652
133,-1010,-1143,439,638,-1076,-365,-1129,-1217,-1347,-879,-457
-17,-535,-518,276,251,-526,-217,-465,-406,-487,-524,-306
-58,8,66,25,-62,37,48,-52,151,15,-141,133
-162,-166,-4,164,-79,-85,64,-41,96,-20,-136,172
-81,-15,66,48,-74,26,42,188,251,141,-68,64
-211,-123,87,167,-149,-18,-11,74,227,128,-57,68
-289,-188,101,238,-195,-43,32,34,228,115,-38,80
-163,-25,137,94,-150,56,224,98,259,130,-78,-54
-123,21,144,51,-134,82,295,166,296,163,39,76
-132,11,142,60,-137,76,244,58,234,101,-43,26
-153,26,179,63,-166,103,183,5,215,89,-80,94
-82,79,161,1,-122,120,210,145,321,191,43,312
-144,-7,137,76,-141,65,120,118,333,203,-35,54
-183,-3,180,93,-181,89,152,184,349,219,35,-112
-167,13,180,77,-173,96,197,245,371,234,62,10
-189,-1,189,95,-189,94,115,217,362,223,19,64
-96,76,172,10,-134,124,129,274,419,283,16,-94
-128,70,198,29,-163,133,83,319,496,361,-20,-241
-261,44,305,108,-284,175,73,335,525,392,65,-151
-203,131,334,36,-269,232,131,327,527,380,140,-84
-197,107,305,45,-251,206,214,317,536,385,160,15
-99,166,266,-34,-183,216,202,299,504,364,122,46
36,281,246,-159,-105,263,182,309,497,358,172,42
-106,110,216,-2,-161,162,162,109,402,264,180,89
-63,108,171,-23,-117,139,95,-8,265,128,105,77
-73,70,143,2,-108,106,112,75,243,109,102,140
-194,-20,174,107,-184,76,61,16,192,55,-6,125
-144,35,179,54,-161,107,31,84,223,91,18,118
-189,-47,141,117,-165,47,-46,90,239,82,28,171
-146,29,174,58,-160,101,-23,63,232,67,-65,165
-116,76,192,20,-154,133,31,39,242,107,-30,105
-110,-35,75,72,-92,20,-17,-92,124,-10,-96,17
-48,23,71,12,-60,47,24,29,180,49,-45,90
-168,-3,166,85,-167,81,90,125,289,155,50,111
-200,-88,112,144,-156,12,159,91,260,84,-33,100
-219,-61,158,140,-188,48,-36,95,271,78,-83,-1
-179,2,181,88,-180,91,20,65,263,101,-77,-158
-115,41,156,37,-135,98,115,130,260,116,-49,13
-125,23,147,51,-136,85,-1,133,289,150,-15,69
29,115,85,-72,-28,100,76,104,289,160,-6,58
-20,104,125,-43,-72,114,18,152,276,139,-28,105
-152,-19,133,85,-143,57,-2,104,271,100,-21,107
-79,-1,78,40,-78,38,-1,68,247,77,-20,155
-161,-2,159,81,-160,78,68,170,288,139,66,213
-192,20,212,86,-202,116,120,227,316,187,89,276
-54,52,106,1,-80,79,134,154,293,142,75,261
-139,-52,87,95,-113,17,118,106,242,110,34,254
-79,-10,68,44,-73,29,-64,100,181,137,-30,233
59,152,93,-106,-17,122,79,121,246,146,67,180
-39,87,126,-25,-82,106,68,147,245,119,40,220
-97,-5,92,51,-94,43,-39,140,215,98,40,323
-176,-69,107,123,-141,19,-88,116,228,96,-1,337
-187,-23,164,104,-176,71,-127,109,224,111,-9,368
-91,178,269,-44,-180,223,101,183,324,187,172,466
108,317,209,-213,-51,263,1,283,397,274,252,567
69,253,184,-162,-57,218,11,211,344,195,214,597
-77,196,274,-60,-176,235,63,105,272,120,129,494
-50,144,194,-47,-123,169,-4,94,214,56,103,470
-146,-24,122,85,-134,48,-11,55,206,-9,38,402
-91,-60,32,75,-61,-14,-105,35,169,-5,8,230
-112,-141,-30,127,-41,-85,-59,2,146,-43,16,159
-116,-127,-10,122,-53,-68,7,-26,169,-50,-52,135
-67,-93,-26,80,-20,-59,112,-5,149,-54,-22,181
-62,-56,6,59,-34,-25,72,4,173,-37,-10,135
-62,-96,-34,79,-14,-65,-49,-8,112,-79,-33,185
-105,-154,-48,130,-28,-100,41,79,151,-6,29,349
-38,-75,-37,57,0,-56,132,103,211,64,30,320
-72,-6,66,39,-69,30,122,35,172,49,23,327
-45,-77,-32,61,-7,-55,147,33,99,-21,-104,229
83,135,52,-110,16,93,-77,-170,-22,-170,352,665
340,119,-221,-230,280,-51,-524,-751,-563,-713,439,881
282,-937,-1220,328,751,-1078,-609,-1230,-1292,-1445,-711,48
64,-768,-831,352,448,-799,-339,-659,-615,-770,-609,-52
-4,-126,-122,65,59,-123,19,47,212,49,9,234
-84,-220,-136,152,27,-178,106,114,190,30,-45,224
-26,-20,6,23,-16,-6,80,176,259,112,26,300
-128,-125,3,126,-65,-60,85,167,270,115,62,228
-119,-173,-55,146,-32,-113,0,155,285,121,114,126
-39,-77,-38,58,-1,-57,111,166,295,135,57,178
6,-62,-68,28,37,-65,202,130,297,144,39,266
45,18,-27,-31,36,-4,211,142,293,138,67,175
89,53,-36,-71,62,9,153,158,310,148,83,160
155,73,-82,-114,119,-4,21,160,309,143,96,215
-30,-86,-56,58,13,-71,47,146,247,81,50,133
-65,-133,-69,100,2,-101,162,148,275,109,73,178
-29,-15,14,22,-21,0,87,221,349,185,120,206
-65,-105,-40,85,-12,-73,-44,183,332,167,140,105
21,-16,-38,-2,30,-27,92,229,351,185,159,185
15,115,101,-65,-43,108,198,385,456,289,174,232
3,84,81,-43,-40,82,130,315,446,277,191,258
-86,12,98,37,-92,55,-33,274,433,268,165,199
-95,-4,91,50,-93,43,15,320,473,269,158,137
119,229,109,-174,5,169,202,318,483,286,261,269
100,175,74,-138,13,125,106,279,410,279,222,226
51,134,83,-93,-16,109,48,243,358,216,215,347
98,201,103,-150,-3,152,76,155,319,148,228,383
158,106,-51,-132,104,27,3,-15,173,1,116,194
138,103,-35,-120,87,34,-93,-43,113,-41,130,307
51,0,-51,-26,51,-25,-149,-3,92,-56,68,292
34,-74,-108,20,71,-91,-55,-51,65,-102,2,139
8,-66,-74,29,41,-69,-83,-94,82,-106,14,212
47,-94,-141,24,94,-117,-197,-72,84,-118,-3,232
52,-74,-125,11,89,-99,-86,-31,108,-85,6,133
63,18,-45,-40,54,-13,-9,-20,125,-80,19,178
32,7,-25,-20,28,-9,6,-42,115,-84,45,77
55,-73,-128,9,92,-100,84,-93,82,-122,-24,-192
118,-51,-169,-33,144,-110,16,-86,65,-116,-26,-179
119,38,-81,-78,100,-21,-58,-61,82,-79,-11,-44
146,148,2,-147,72,75,61,-80,114,-115,-30,18
75,10,-65,-42,70,-27,-39,-110,107,-127,-31,115
112,-57,-169,-27,140,-113,-108,-117,86,-121,-24,237
92,14,-77,-53,85,-31,-26,-48,106,-101,12,225
51,-60,-111,5,81,-85,-67,-20,125,-109,26,165
-5,-103,-98,54,47,-100,-141,-63,127,-87,110,211
-44,-96,-52,71,4,-74,-140,-105,91,-75,61,176
178,48,-130,-113,154,-41,3,-140,18,-163,-46,-6
157,24,-133,-90,145,-54,2,-58,74,-104,6,39
94,-38,-132,-28,113,-85,-4,44,153,-26,40,184
126,-16,-142,-55,134,-78,-85,-28,122,-68,24,134
49,-69,-118,10,83,-93,-153,-51,125,-48,39,272
96,-26,-122,-35,110,-74,-124,-62,85,-96,5,193
121,75,-46,-98,84,14,-177,-64,129,-63,36,130
89,98,9,-94,40,53,2,-21,169,-27,57,256
156,72,-84,-114,120,-6,47,-71,117,-71,78,175
177,252,75,-214,51,163,-138,28,207,46,202,313
163,287,124,-226,19,205,-138,5,200,21,180,364
145,123,-22,-134,83,50,-101,-108,115,-91,127,408
65,75,11,-70,27,43,-151,-89,79,-115,111,216
-15,-4,11,10,-14,3,-121,-133,52,-149,62,31
53,-120,-172,34,113,-146,-39,-107,58,-160,-25,196
162,-117,-279,-22,221,-198,-74,-103,40,-155,-32,153
33,-163,-196,66,115,-179,-94,-117,43,-133,-32,199
-54,-219,-165,137,56,-192,-169,-111,63,-173,-108,181
88,-91,-180,2,134,-136,-82,-114,67,-160,-52,151
113,-70,-183,-22,149,-126,48,-145,27,-173,6,157
-18,-133,-115,75,49,-124,48,-106,47,-170,1,169
64,-191,-255,64,160,-223,38,-84,63,-131,-25,127
85,-78,-163,-4,124,-120,-162,-138,42,-163,-19,-10
-41,-108,-67,75,13,-87,31,-127,-19,-203,-101,16
275,135,-140,-205,207,-3,-129,-336,-116,-290,296,421
575,222,-353,-398,464,-65,-709,-778,-524,-708,499,627
510,-856,-1367,173,939,-1111,-700,-1312,-1311,-1490,-612,-226
337,-886,-1223,275,780,-1055,-473,-937,-933,-1114,-789,-438
62,-257,-320,98,191,-288,-151,-148,-19,-198,-106,-74
-64,-251,-187,158,62,-219,-100,-55,98,-116,-59,-217
-64,-147,-83,106,10,-115,-87,20,148,-94,12,-125
-10,-211,-201,111,96,-205,59,10,138,-99,-8,-28
-34,-193,-159,114,63,-176,-50,-1,122,-87,-45,-53
29,-27,-57,-1,43,-42,-41,-16,148,-55,43,-26
119,-46,-164,-36,142,-105,52,-93,118,-116,26,-34
34,-89,-123,28,79,-106,49,-29,95,-101,-20,-125
98,-33,-131,-32,114,-82,12,-17,91,-82,-1,-166
95,-25,-120,-34,108,-73,-35,22,152,-66,24,-173
39,-56,-95,9,67,-75,33,57,176,-53,86,-64
48,-59,-107,6,77,-82,91,3,149,-73,82,6
51,-44,-94,-3,73,-69,21,-16,139,-67,23,-20
10,-67,-76,29,43,-71,10,67,206,-2,65,-108
-10,-63,-52,37,21,-58,76,168,256,57,63,-169
14,-31,-46,9,30,-38,-27,153,264,77,103,54
75,54,-21,-65,48,16,-4,170,304,112,174,158
38,92,54,-65,-8,72,57,303,423,228,166,80
-86,18,104,34,-95,60,-40,275,426,231,198,-17
30,109,79,-70,-25,94,25,195,333,134,187,64
73,106,33,-90,20,70,21,138,286,87,152,87
105,60,-45,-82,75,7,-21,80,224,70,179,61
153,124,-28,-138,90,48,-64,93,215,58,190,182
59,42,-17,-50,38,12,-185,-78,91,-113,137,51
169,69,-100,-119,134,-15,-171,-150,-11,-221,53,96
243,85,-157,-164,200,-36,-99,-58,54,-143,100,290
124,-67,-190,-28,157,-129,-51,-127,-9,-197,67,227
169,-24,-194,-72,181,-109,-83,-116,-59,-238,36,187
62,-99,-161,19,111,-130,-90,-82,-8,-194,72,130
5,-136,-141,66,73,-138,27,-148,-41,-237,0,83
158,-44,-202,-57,180,-123,-46,-164,-68,-262,-18,95
158,-70,-228,-44,194,-149,-184,-125,-41,-237,-38,116
207,14,-193,-110,200,-89,-118,-117,-5,-193,22,233
73,-71,-144,-1,109,-107,-104,-116,7,-202,33,257
150,-39,-189,-55,170,-113,-209,-101,27,-181,13,217
226,-1,-227,-112,226,-114,-165,-79,94,-132,45,163
81,-99,-180,9,131,-139,-72,-80,86,-222,6,140
103,-79,-181,-12,142,-130,-178,-114,63,-189,41,198
196,39,-157,-117,176,-59,-163,-52,82,-137,59,204
256,101,-155,-179,205,-27,-24,11,124,-148,58,226
125,-82,-207,-21,167,-145,30,-36,128,-88,47,137
155,-15,-170,-70,162,-93,15,-94,44,-150,34,15
165,32,-133,-99,149,-50,-104,-52,58,-140,52,147
129,2,-127,-65,128,-63,-133,-19,117,-96,27,109
157,-7,-165,-75,161,-86,-139,-72,84,-153,65,-42
193,-54,-247,-69,220,-151,-179,-83,71,-152,98,73
236,-11,-247,-112,242,-129,-181,-58,91,-150,71,215
213,-15,-227,-99,220,-121,-250,-55,86,-144,35,175
205,71,-134,-138,169,-32,-114,-61,97,-121,52,137
263,177,-87,-220,175,45,24,-33,144,-78,107,271
366,278,-88,-322,227,95,-61,17,174,-23,149,372
335,262,-73,-298,204,94,-30,33,203,-6,202,352
299,247,-53,-273,176,97,-84,23,210,5,252,214
247,202,-45,-225,146,78,-178,-57,134,-101,175,214
183,74,-109,-128,145,-17,-297,-99,63,-193,40,111
231,104,-127,-167,179,-12,-234,-47,67,-143,86,-43
139,-95,-234,-22,187,-164,-90,-89,34,-183,-14,-12
146,-82,-228,-32,187,-155,-146,-86,47,-168,-11,40
227,7,-220,-117,223,-106,-70,-44,103,-125,36,90
246,-28,-274,-109,260,-151,-51,-42,105,-133,-26,95
288,73,-215,-180,251,-71,-106,-41,105,-125,17,169
166,-69,-235,-48,201,-152,-178,-90,101,-154,-11,203
191,-130,-321,-31,257,-225,-54,-58,95,-121,16,68
275,-3,-278,-136,277,-141,-53,-50,66,-153,16,-26
228,120,-108,-173,168,6,-70,-8,117,-133,56,-70
203,-16,-219,-93,210,-117,-7,-88,34,-183,8,-286
454,292,-161,-373,307,66,-467,-390,-98,-311,489,346
814,32,-782,-423,798,-375,-715,-880,-704,-910,260,397
727,-906,-1633,90,1181,-1270,-680,-1090,-1185,-1392,-808,-586
415,-484,-899,35,657,-691,-380,-481,-396,-599,-433,-422
303,-9,-312,-147,308,-160,-43,-45,155,-48,-21,-203
314,0,-314,-157,314,-157,-119,60,197,-43,-16,-111
190,-11,-201,-89,195,-106,-60,156,256,26,41,92
191,-32,-223,-79,207,-127,-57,158,258,45,39,79
348,153,-195,-251,271,-21,-69,187,295,71,111,83
240,91,-149,-165,194,-29,14,148,242,24,48,25
267,91,-176,-179,221,-42,27,151,284,59,125,46
347,110,-237,-228,292,-64,24,134,289,15,29,-131
204,39,-165,-122,185,-63,-36,167,263,21,23,-141
263,128,-135,-195,199,-4,-22,212,275,80,111,-37
245,82,-163,-164,204,-40,-112,170,266,43,68,-122
184,54,-129,-119,156,-37,-235,213,284,66,105,-46
235,94,-142,-164,188,-24,-53,255,332,115,71,-39
220,102,-118,-161,169,-8,152,309,367,143,120,-135
228,147,-80,-187,153,33,157,306,376,159,167,-228
182,146,-36,-164,109,55,156,310,401,177,135,-200
176,146,-29,-161,102,58,49,414,457,248,195,-50
210,205,-5,-207,107,100,4,382,484,256,205,-38
144,196,52,-170,45,124,87,371,446,223,206,-37
228,223,-6,-225,117,108,43,392,433,246,244,13
259,282,23,-271,118,152,-74,333,423,190,249,148
148,169,21,-159,63,95,-180,276,348,138,256,306
186,154,-32,-170,109,61,-9,233,278,89,268,207
249,207,-42,-228,145,82,-133,146,190,-56,158,2
229,114,-115,-171,172,-1,-184,52,74,-148,97,-12
