I,II,III,aVR,aVL,aVF,V1,V2,V3,V4,V5,V6
-55,20,75,17,-65,47,50,-40,-40,-50,-60,-80
-57,18,75,19,-66,46,50,-41,-40,-51,-60,-80
-64,11,75,26,-70,43,50,-45,-40,-55,-56,-81
-67,4,71,32,-69,37,46,-45,-44,-60,-57,-85
-71,-1,70,37,-71,34,44,-45,-45,-68,-73,-84
-83,-13,70,48,-76,28,46,-45,-45,-72,-76,-80
-93,-29,64,60,-79,18,49,-45,-45,-77,-73,-80
-89,-32,58,60,-73,13,50,-46,-45,-79,-80,-80
-85,-35,50,60,-67,7,51,-42,-45,-76,-91,-80
-84,-39,45,61,-65,3,56,-40,-45,-73,-88,-79
-74,-39,35,56,-55,-2,54,-40,-46,-71,-85,-86
-73,-33,40,52,-56,4,55,-37,-42,-67,-82,-90
-68,-26,43,47,-55,8,55,-34,-33,-65,-80,-82
-74,-19,55,47,-64,17,55,-35,-25,-63,-77,-76
-74,8,81,33,-77,44,71,-30,-16,-56,-68,-69
-53,36,89,8,-71,62,63,-29,-10,-51,-60,-63
-57,60,117,-1,-87,88,45,-42,-1,-45,-51,-56
-47,98,145,-26,-96,121,0,-71,-5,-40,-46,-39
-23,125,148,-52,-85,136,-34,-86,-29,-40,-44,-22
-20,105,125,-42,-72,114,4,-61,-40,-39,-39,-27
-40,45,84,-3,-62,64,22,-47,-41,-45,-44,-53
-63,-13,50,38,-56,18,28,-47,-45,-71,-79,-88
-70,-47,23,59,-47,-12,53,-42,-47,-92,-113,-117
-74,-58,16,66,-45,-21,63,-39,-55,-97,-121,-125
-69,-61,8,65,-38,-26,66,-34,-59,-103,-127,-125
-74,-70,3,72,-38,-33,70,-39,-57,-106,-135,-138
-85,-90,-5,88,-40,-48,74,-40,-53,-103,-134,-149
-92,-101,-9,97,-41,-55,75,-41,-57,-103,-134,-144
-85,-90,-5,88,-39,-47,74,-39,-52,-93,-127,-134
-82,-88,-6,85,-38,-46,76,-41,-58,-98,-129,-131
-78,-81,-3,80,-37,-42,74,-39,-51,-85,-122,-121
-65,-74,-9,70,-28,-41,78,-30,-49,-90,-122,-119
-74,-71,3,73,-38,-34,82,-26,-47,-74,-115,-113
-14,-54,-40,35,13,-47,84,9,5,-33,-101,-122
25,-64,-89,20,57,-76,72,57,112,65,-70,-120
121,105,-16,-113,68,45,-55,-70,139,363,264,112
311,576,266,-444,22,421,-519,-702,-467,472,1102,653
310,862,552,-586,-121,707,-927,-1219,-1170,145,1612,1093
128,416,288,-273,-80,352,-484,-614,-896,-336,752,683
-5,-104,-99,55,47,-102,114,237,-231,-341,-121,-9
-19,-100,-81,60,31,-90,188,329,27,-88,-114,-120
-55,-74,-19,64,-18,-46,163,150,52,-81,-127,-110
-69,-77,-8,74,-30,-42,108,42,47,-57,-130,-118
-58,-60,-2,59,-28,-31,82,2,28,-55,-125,-118
-58,-66,-8,62,-25,-36,82,-4,25,-57,-137,-137
-47,-50,-3,49,-22,-26,71,-21,18,-45,-120,-120
-48,-54,-6,52,-21,-30,75,-24,15,-50,-130,-126
-41,-46,-5,44,-17,-25,65,-27,11,-38,-116,-116
-36,-47,-10,42,-12,-28,66,-24,4,-37,-122,-116
-29,-42,-12,36,-8,-26,60,-26,13,-24,-111,-111
-25,-40,-15,33,-5,-27,58,-40,19,-19,-122,-109
-19,-38,-18,29,0,-28,56,-46,28,-10,-124,-111
-14,-34,-21,24,4,-27,52,-45,37,-1,-106,-104
-20,-36,-16,28,-2,-25,51,-45,47,10,-99,-106
-25,-34,-10,30,-7,-22,47,-45,61,29,-89,-104
-34,-36,-2,35,-15,-19,39,-44,75,47,-82,-95
-27,-24,4,25,-15,-10,31,-40,92,75,-68,-85
-22,-11,11,16,-16,0,23,-39,103,93,-48,-75
-12,7,19,2,-16,13,16,-39,139,126,-11,-64
12,37,25,-25,-7,31,3,-35,168,167,24,-39
28,75,46,-52,-9,60,-18,-35,188,208,41,-3
41,100,59,-71,-9,80,-37,-38,215,256,101,41
50,136,86,-93,-18,111,-62,-46,210,280,146,77
89,200,111,-145,-11,155,-82,-62,202,301,167,101
85,213,128,-149,-21,170,-102,-70,197,322,207,130
80,215,135,-147,-28,175,-111,-82,187,314,214,129
107,227,120,-167,-7,173,-94,-90,168,275,199,127
75,178,103,-127,-15,140,-67,-81,128,226,167,103
40,113,73,-77,-17,93,-38,-78,76,160,105,45
3,62,59,-32,-29,60,-17,-71,29,91,46,-5
-15,36,50,-11,-33,43,6,-66,-3,43,-6,-52
-27,13,41,7,-34,27,33,-68,-20,1,-53,-80
-60,-20,40,40,-50,9,40,-74,-37,-25,-59,-88
-69,-33,36,50,-52,1,42,-77,-46,-39,-73,-99
-75,-41,33,58,-54,-4,45,-82,-47,-52,-93,-112
-76,-45,30,61,-53,-7,48,-85,-51,-59,-91,-115
-73,-44,29,58,-50,-7,51,-85,-46,-58,-96,-119
-69,-46,23,57,-46,-11,50,-85,-45,-71,-98,-117
-60,-43,17,52,-38,-13,50,-85,-45,-76,-106,-114
-63,-50,13,57,-38,-19,50,-85,-40,-71,-109,-115
-66,-61,6,63,-36,-27,50,-81,-40,-70,-102,-110
-56,-55,1,55,-28,-26,51,-80,-39,-66,-98,-110
-53,-50,3,51,-28,-23,48,-79,-35,-65,-92,-109
-59,-47,12,53,-35,-17,44,-76,-33,-58,-87,-105
-54,-41,14,47,-34,-13,38,-74,-30,-47,-81,-106
-50,-40,10,45,-30,-15,35,-77,-27,-41,-77,-102
-50,-40,10,45,-30,-15,30,-82,-25,-34,-74,-100
-48,-40,8,44,-28,-16,25,-80,-21,-28,-71,-100
-45,-40,4,42,-24,-18,37,-79,-20,-21,-69,-100
-45,-39,6,41,-25,-16,41,-80,-20,-15,-65,-100
-54,-54,0,54,-27,-26,39,-80,-21,-34,-65,-100
-57,-61,-5,59,-26,-33,41,-79,-19,-51,-65,-100
-48,-60,-11,54,-18,-35,39,-88,-24,-49,-65,-99
-46,-60,-14,53,-16,-37,41,-92,-35,-50,-77,-102
-51,-60,-10,55,-21,-35,44,-89,-35,-50,-81,-105
-50,-60,-11,55,-19,-35,47,-90,-34,-50,-79,-105
-47,-55,-7,51,-20,-31,50,-85,-31,-52,-77,-110
-64,-69,-5,67,-29,-37,53,-84,-29,-57,-74,-110
-71,-75,-4,73,-33,-39,55,-86,-31,-60,-76,-115
-55,-67,-13,61,-21,-40,57,-92,-37,-54,-76,-117
-41,-64,-22,53,-9,-43,60,-96,-41,-48,-72,-108
-43,-60,-18,52,-12,-39,60,-94,-39,-43,-65,-103
-37,-42,-4,40,-16,-23,59,-96,-40,-37,-60,-95
-39,-16,23,27,-31,3,68,-94,-40,-33,-55,-89
-33,13,46,10,-40,29,60,-98,-40,-30,-43,-83
-22,41,63,-10,-43,52,9,-125,-41,-27,-27,-81
-4,65,70,-31,-37,67,-32,-148,-44,-24,-23,-80
25,88,63,-57,-19,75,-22,-138,-48,-21,-20,-81
5,57,52,-32,-24,54,3,-121,-49,-18,-13,-79
-21,5,26,8,-23,15,23,-119,-55,-27,-42,-87
-44,-54,-10,49,-16,-32,38,-115,-53,-52,-65,-120
-53,-93,-40,73,-6,-67,40,-112,-61,-66,-75,-132
-33,-87,-54,60,10,-70,57,-108,-70,-71,-96,-129
-38,-96,-58,67,10,-77,68,-104,-71,-80,-99,-131
-49,-106,-57,78,5,-81,63,-99,-69,-76,-100,-130
-50,-104,-54,78,3,-79,67,-93,-64,-75,-100,-125
-51,-106,-55,79,3,-80,71,-92,-66,-75,-101,-129
-49,-104,-55,77,4,-80,77,-82,-61,-68,-98,-134
-52,-106,-54,79,2,-80,73,-92,-59,-74,-103,-137
-45,-102,-56,74,6,-79,76,-87,-45,-63,-95,-131
-31,-93,-62,62,16,-77,74,-98,-47,-65,-98,-133
-14,-84,-70,49,28,-77,74,-92,-33,-38,-80,-126
0,-108,-108,54,54,-107,88,-16,26,-14,-71,-139
47,-76,-124,15,86,-100,57,-7,138,173,27,-95
205,205,0,-205,102,102,-184,-328,-128,376,508,247
356,659,303,-507,26,481,-771,-1094,-943,291,1319,819
313,700,387,-507,-38,544,-878,-1161,-1179,13,1449,1029
142,130,-12,-136,77,59,-229,-263,-605,-313,439,437
32,-186,-218,77,126,-202,157,238,-117,-222,-125,-71
-17,-104,-87,61,36,-95,177,169,17,-51,-58,-71
-19,-82,-64,51,23,-73,133,6,26,-57,-101,-83
-6,-73,-67,40,31,-69,84,-46,32,-23,-76,-90
-15,-76,-61,45,23,-68,93,-41,20,-42,-89,-94
-8,-70,-62,39,27,-66,83,-71,20,-32,-85,-91
-6,-64,-58,35,27,-61,81,-62,13,-36,-80,-81
-4,-62,-58,33,28,-60,77,-66,10,-36,-81,-81
-7,-58,-51,33,22,-54,71,-65,29,-27,-71,-68
-12,-62,-50,37,19,-56,68,-64,36,-25,-74,-81
-13,-59,-46,36,16,-52,62,-64,35,-13,-64,-84
-20,-61,-41,41,10,-51,61,-55,35,-12,-66,-79
-19,-59,-40,40,10,-50,56,-53,35,1,-56,-74
-27,-59,-32,44,3,-46,52,-45,45,15,-51,-70
-16,-50,-34,33,9,-42,49,-40,61,31,-44,-66
10,-40,-50,15,30,-45,44,-35,82,52,-37,-59
4,-30,-34,14,19,-32,37,-29,100,72,-32,-47
4,-18,-22,7,14,-20,31,-22,117,94,-22,-34
31,3,-28,-16,30,-13,24,-15,144,122,-3,-23
43,33,-9,-38,26,12,19,-10,183,166,36,-3
34,61,27,-48,4,43,10,-1,216,212,61,21
63,101,38,-82,12,69,0,-3,250,256,106,59
91,135,44,-113,23,89,-26,-15,276,297,155,102
92,169,77,-131,8,123,-54,-26,271,329,184,135
103,207,104,-155,-1,155,-73,-39,260,345,228,171
122,233,111,-178,5,172,-95,-43,247,332,254,200
136,236,100,-186,18,168,-91,-54,217,319,263,209
114,204,90,-160,12,147,-85,-59,171,280,240,185
83,162,78,-123,2,120,-62,-52,123,218,193,138
59,99,40,-80,10,69,-26,-48,69,153,129,82
44,53,9,-49,17,31,-8,-41,21,80,60,35
35,38,3,-37,16,20,10,-37,-10,32,15,3
25,21,-4,-22,14,8,24,-37,-32,5,-15,-23
19,8,-12,-13,15,-2,36,-50,-44,-25,-37,-39
6,-13,-20,4,13,-17,40,-61,-55,-46,-55,-39
-22,-45,-23,34,1,-34,39,-60,-57,-45,-55,-35
-32,-52,-20,42,-6,-36,40,-59,-54,-45,-55,-35
-29,-49,-20,39,-5,-35,40,-55,-56,-45,-55,-35
-28,-48,-20,38,-4,-34,40,-56,-55,-45,-58,-35
-24,-44,-20,34,-2,-31,39,-52,-55,-45,-60,-35
-25,-46,-20,36,-2,-32,35,-50,-54,-45,-61,-43
-25,-41,-16,33,-4,-28,35,-50,-49,-53,-74,-46
-25,-40,-15,33,-5,-27,35,-47,-46,-56,-76,-45
-25,-40,-15,33,-5,-27,35,-44,-43,-52,-75,-43
-30,-40,-10,35,-10,-25,35,-47,-38,-50,-75,-40
-30,-40,-10,35,-10,-25,32,-60,-35,-46,-75,-40
-30,-40,-10,35,-10,-25,30,-58,-31,-45,-74,-37
-31,-40,-9,36,-11,-25,27,-54,-30,-42,-68,-34
-14,-40,-26,27,6,-33,24,-51,-30,-40,-63,-31
-9,-40,-31,24,11,-36,20,-46,-30,-40,-57,-28
-14,-41,-26,28,6,-33,20,-44,-30,-35,-51,-25
-15,-39,-24,28,5,-31,25,-39,-31,-35,-46,-26
-16,-37,-21,27,3,-29,25,-34,-40,-36,-48,-30
-5,-23,-19,14,7,-21,29,-29,-42,-34,-51,-30
-9,-31,-22,20,7,-27,30,-25,-39,-36,-50,-30
-22,-56,-34,40,6,-45,32,-19,-40,-33,-50,-30
-19,-55,-36,38,9,-45,36,-27,-35,-40,-50,-30
-19,-53,-34,37,8,-44,34,-36,-35,-55,-51,-34
-19,-50,-31,35,6,-41,35,-34,-35,-55,-60,-35
-20,-49,-29,34,5,-39,35,-35,-35,-56,-69,-35
-22,-53,-31,38,5,-42,35,-35,-35,-60,-70,-35
-19,-55,-35,37,8,-45,40,-35,-35,-60,-70,-35
-24,-59,-35,42,5,-47,40,-33,-47,-58,-70,-34
-25,-60,-35,43,5,-47,43,-27,-48,-51,-70,-29
-19,-65,-46,43,14,-56,46,-22,-40,-44,-69,-23
-23,-64,-41,44,9,-52,45,-19,-36,-38,-57,-20
-30,-57,-27,44,-1,-42,45,-13,-29,-31,-45,-14
-26,-35,-8,31,-9,-21,48,-11,-26,-25,-39,-11
-8,5,13,1,-10,9,53,-13,-25,-19,-34,1
5,37,33,-21,-14,35,31,-26,-24,-13,-23,23
8,73,65,-41,-29,69,-19,-53,-19,-5,-11,32
15,89,74,-52,-30,81,-38,-57,-20,0,2,40
38,87,48,-63,-5,67,-17,-37,-22,9,12,33
29,41,12,-35,9,26,-2,-28,-25,3,-1,21
9,-16,-25,4,17,-20,8,-24,-41,-29,-23,4
-2,-46,-43,24,21,-44,36,-19,-52,-47,-50,-21
-29,-76,-48,53,10,-62,47,-16,-49,-48,-68,-16
-21,-85,-64,53,22,-74,45,-9,-49,-53,-70,-27
-40,-104,-65,72,13,-84,51,-8,-63,-56,-71,-44
-43,-108,-65,76,11,-87,49,-3,-62,-53,-65,-38
-32,-98,-65,66,17,-81,53,-7,-59,-61,-67,-41
-33,-96,-63,65,15,-79,67,1,-52,-57,-62,-34
-11,-88,-77,49,33,-82,63,0,-51,-64,-62,-36
-8,-85,-77,47,35,-81,59,-1,-44,-49,-50,-36
-15,-92,-77,54,31,-84,60,10,-33,-45,-47,-39
-29,-92,-63,60,17,-77,50,-5,-25,-33,-41,-45
1,-103,-104,51,53,-103,63,45,16,-10,-27,-41
41,-105,-146,32,94,-126,40,99,113,93,-30,-41
143,57,-86,-99,114,-15,-56,-20,97,334,246,146
338,456,119,-397,109,287,-542,-712,-601,373,940,627
418,743,325,-580,46,533,-998,-1251,-1219,234,1521,1112
273,368,95,-320,89,231,-539,-571,-863,-131,924,830
95,-101,-195,3,145,-148,38,218,-282,-286,7,151
50,-93,-143,22,97,-118,161,320,23,-53,-51,16
8,-70,-78,31,43,-73,144,157,80,-23,-36,14
-16,-80,-65,48,25,-72,85,47,71,-12,-50,-11
-3,-70,-67,36,33,-68,89,62,82,1,-27,3
-12,-79,-68,46,29,-73,74,52,77,-4,-45,-15
-14,-72,-58,43,23,-64,64,49,84,13,-25,-8
-17,-76,-58,47,21,-66,60,47,84,7,-36,-18
-15,-66,-50,41,18,-58,48,45,85,21,-26,-9
-16,-63,-48,40,16,-55,46,53,85,20,-29,-11
-16,-58,-42,38,13,-50,32,47,84,27,-24,-9
-19,-53,-35,36,8,-44,37,52,86,32,-25,-4
-17,-50,-33,34,8,-42,45,53,90,35,-20,-7
-22,-43,-21,32,0,-32,40,60,98,36,-12,-1
-8,-36,-27,22,10,-31,35,72,102,55,-10,7
16,-26,-42,5,29,-34,32,79,108,71,-1,15
-10,-20,-10,16,0,-15,26,85,144,86,1,25
-8,-10,-3,10,-2,-6,23,92,172,116,10,31
15,6,-9,-10,12,-1,12,104,194,143,26,45
45,34,-10,-39,27,12,5,108,228,177,50,55
57,60,3,-58,27,31,-5,104,262,219,84,77
41,86,44,-63,-2,65,-14,102,298,262,120,120
73,122,50,-98,11,86,-25,99,321,307,167,148
90,162,71,-126,9,116,-57,96,346,348,207,188
114,211,97,-162,8,154,-74,94,340,373,242,225
120,232,112,-176,4,172,-99,91,324,373,279,257
92,238,146,-165,-28,192,-114,88,307,367,291,274
102,225,123,-164,-11,174,-103,86,264,346,273,250
93,177,83,-135,5,130,-86,82,219,290,232,220
50,123,73,-87,-12,98,-45,80,166,216,173,178
38,72,34,-55,2,53,-16,78,114,136,115,124
22,28,6,-25,7,17,-1,73,77,84,71,77
-5,0,5,2,-5,3,10,70,41,47,33,54
-6,-8,-2,7,-2,-5,16,67,14,13,10,42
-9,-16,-7,13,-1,-11,27,62,9,0,5,30
-11,-24,-13,18,2,-18,29,60,10,-2,0,25
-19,-32,-13,25,-3,-22,31,65,6,-6,-6,20
-27,-36,-9,32,-9,-22,34,65,4,-9,-11,14
-24,-34,-11,29,-6,-22,35,66,6,-12,-16,8
-24,-30,-6,28,-9,-18,35,70,9,-19,-21,5
-24,-29,-5,27,-9,-17,35,70,12,-26,-19,5
-19,-24,-5,22,-7,-14,35,70,14,-33,-25,5
-27,-27,1,27,-14,-13,35,70,17,-39,-33,5
-53,-47,6,49,-29,-20,35,70,21,-36,-30,5
-58,-46,13,52,-35,-16,34,70,17,-31,-31,4
-50,-37,13,43,-31,-11,30,70,15,-29,-28,10
-40,-31,9,36,-25,-11,28,70,15,-24,-25,17
-32,-25,7,28,-19,-9,25,70,15,-21,-25,25
-24,-20,4,22,-14,-8,22,70,15,-18,-22,28
-16,-15,1,15,-8,-6,20,70,15,-15,-19,25
-12,-13,-1,12,-5,-7,20,70,19,-12,-16,25
0,-4,-4,2,2,-4,20,70,20,-9,-13,23
-12,-19,-7,16,-2,-13,20,72,20,-6,-10,19
-27,-37,-10,32,-8,-23,20,75,20,-5,-11,20
-24,-36,-12,31,-6,-24,19,78,20,-10,-18,20
-24,-41,-17,33,-4,-28,22,81,18,-15,-22,20
-23,-43,-20,33,-1,-31,25,84,13,-19,-29,20
-23,-46,-23,35,1,-34,27,85,10,-24,-34,20
-13,-41,-28,27,8,-35,30,80,7,-28,-36,20
-10,-40,-30,25,10,-35,33,80,2,-33,-39,18
-14,-40,-25,28,6,-32,36,78,-1,-35,-41,15
-11,-35,-25,24,8,-30,31,75,-4,-35,-45,12
-10,-34,-24,23,7,-29,30,74,-5,-35,-44,10
-18,-37,-19,28,1,-28,30,78,-5,-35,-38,6
-19,-40,-21,30,1,-30,25,80,-5,-34,-32,5
-13,-30,-17,22,3,-24,25,81,-6,-30,-27,8
-12,-19,-7,16,-2,-13,25,85,-1,-24,-21,14
-17,-11,6,14,-11,-2,36,84,10,-21,-16,17
-28,1,28,13,-28,14,47,96,23,-16,-18,23
-19,16,35,1,-27,25,36,81,31,-12,-10,41
8,58,50,-33,-21,54,0,57,28,-7,-1,43
14,85,71,-50,-28,78,-41,62,24,-2,17,63
2,70,68,-36,-34,69,-34,62,21,5,35,78
-8,54,62,-24,-35,58,-14,67,16,10,25,61
-13,26,39,-7,-26,32,-8,68,13,-1,-6,49
-28,-17,11,22,-19,-3,2,72,9,-18,-41,34
-61,-62,-1,61,-30,-31,10,85,3,-39,-52,16
-60,-75,-15,68,-22,-45,20,85,1,-56,-53,3
-33,-77,-43,55,5,-59,31,81,-6,-64,-60,-3
-38,-89,-51,64,7,-70,37,78,-8,-65,-66,-7
-41,-91,-50,66,4,-70,43,76,-17,-65,-70,-11
-40,-89,-49,65,5,-69,43,74,-29,-66,-71,-17
-34,-85,-51,60,9,-67,51,83,-22,-63,-71,-19
-37,-86,-49,62,6,-67,48,80,-23,-67,-78,-17
-36,-82,-46,60,5,-64,43,90,-10,-50,-71,-12
-37,-79,-42,58,3,-60,38,88,-17,-51,-76,-19
-29,-63,-34,46,3,-49,28,92,8,-29,-64,-10
-3,-89,-87,46,42,-88,49,140,57,-8,-62,-27
39,-70,-110,16,75,-90,30,160,182,177,16,14
216,204,-12,-210,114,96,-197,-143,-27,406,476,324
398,654,255,-526,71,454,-805,-961,-872,353,1274,887
370,718,348,-544,11,533,-951,-1071,-1171,85,1406,1130
165,149,-16,-156,90,66,-290,-132,-625,-274,442,542
32,-152,-185,60,109,-168,103,397,-118,-215,-107,51
17,-55,-73,19,45,-64,135,331,64,-26,-41,42
-25,-67,-42,46,9,-54,104,174,68,-44,-78,-3
-35,-56,-21,46,-7,-38,68,112,71,-15,-59,-12
-30,-56,-26,44,-2,-41,74,133,67,-23,-77,-22
-30,-56,-26,44,-2,-41,53,118,64,-14,-75,-22
-33,-56,-24,45,-4,-40,52,122,66,-9,-66,-13
-52,-79,-26,66,-13,-52,44,119,67,-7,-71,-18
-44,-71,-27,58,-8,-49,40,123,75,1,-58,-7
-33,-65,-31,49,-1,-48,37,126,80,4,-63,-12
-29,-58,-29,43,1,-44,30,126,87,14,-68,-15
-19,-54,-35,37,8,-44,28,131,89,19,-73,-17
-14,-49,-35,32,10,-42,24,130,97,25,-63,-14
-11,-45,-34,28,12,-39,22,135,111,34,-61,-14
-15,-41,-25,28,5,-33,19,137,120,47,-56,-10
-21,-36,-15,29,-3,-25,16,140,127,53,-51,-10
-26,-30,-4,28,-11,-17,15,147,142,73,-47,-7
-14,-24,-10,20,-2,-17,8,160,169,105,-27,9
-12,-18,-6,15,-3,-12,-2,160,208,132,-9,20
-21,6,27,7,-24,16,-12,161,230,161,16,37
7,36,29,-22,-11,33,-24,166,250,204,54,67
38,70,33,-54,2,51,-42,160,286,251,90,109
56,112,55,-84,0,83,-66,151,303,295,136,145
74,148,74,-111,0,111,-87,143,298,323,171,176
87,190,103,-139,-9,147,-113,134,288,339,203,215
100,213,114,-157,-7,163,-123,130,282,343,235,235
121,223,102,-173,10,162,-113,130,271,322,240,240
106,197,91,-152,8,144,-105,130,235,291,219,217
49,128,78,-89,-15,103,-97,130,177,228,170,168
25,83,58,-54,-17,70,-73,130,125,153,100,114
-5,33,38,-15,-21,35,-42,126,93,93,44,54
-33,-10,23,21,-28,7,-27,125,54,38,5,14
-44,-34,10,39,-27,-11,-13,125,25,2,-28,-8
-62,-59,3,60,-33,-28,-4,120,20,-14,-57,-20
-57,-58,-1,58,-28,-29,0,120,15,-29,-74,-26
-61,-66,-6,64,-27,-35,5,119,9,-41,-79,-33
-75,-85,-10,80,-32,-47,9,115,4,-49,-83,-35
-72,-87,-14,80,-28,-50,14,113,-2,-51,-88,-35
-62,-89,-27,76,-18,-58,18,109,-5,-50,-91,-34
-62,-93,-31,77,-15,-62,20,107,-5,-59,-99,-38
-69,-95,-26,83,-21,-61,20,104,-5,-66,-118,-46
-68,-93,-24,81,-22,-58,23,102,-5,-65,-127,-45
-69,-89,-21,79,-24,-55,26,99,-5,-65,-122,-45
-68,-87,-19,78,-24,-53,24,96,-5,-65,-120,-45
-68,-83,-16,76,-26,-49,21,93,-5,-65,-117,-44
-67,-82,-15,75,-26,-48,18,90,-5,-67,-115,-47
-63,-78,-15,71,-24,-46,16,91,-5,-70,-112,-50
-61,-76,-15,69,-22,-46,12,95,-5,-70,-109,-50
-58,-72,-14,66,-21,-43,10,95,-4,-70,-106,-50
-51,-70,-19,61,-16,-44,8,95,5,-70,-103,-50
-32,-68,-36,50,2,-52,5,95,7,-70,-100,-50
-22,-63,-41,42,10,-51,2,95,4,-74,-101,-54
-32,-71,-39,52,4,-55,-1,92,1,-75,-105,-55
-41,-82,-41,62,0,-61,-4,87,-2,-75,-105,-55
-40,-79,-39,59,0,-59,-5,84,-5,-75,-105,-55
-38,-78,-40,58,1,-59,0,81,-4,-75,-108,-55
-39,-74,-35,57,-2,-54,0,76,1,-75,-112,-56
-39,-75,-35,58,-2,-55,1,76,0,-75,-116,-61
-56,-90,-34,74,-10,-62,6,85,-3,-75,-125,-66
-59,-96,-37,78,-11,-66,4,94,-6,-75,-127,-69
-35,-91,-56,63,10,-73,8,95,-9,-75,-124,-67
-34,-89,-55,62,10,-71,12,95,-11,-75,-125,-63
-43,-87,-44,65,1,-65,18,95,-15,-72,-125,-62
-46,-82,-36,65,-4,-59,21,95,-13,-67,-125,-57
-63,-89,-26,77,-18,-57,27,94,-3,-64,-124,-56
-61,-69,-8,66,-26,-38,30,85,18,-61,-118,-53
-43,-20,23,31,-33,2,14,75,25,-56,-117,-49
-26,19,45,3,-36,32,-10,65,11,-55,-103,-33
-17,43,60,-13,-39,51,-51,64,0,-55,-76,-5
-26,36,62,-5,-45,49,-68,71,-16,-55,-67,-10
-10,22,32,-6,-21,27,-47,76,-21,-54,-83,-19
-49,-22,27,35,-38,2,-28,80,-19,-65,-107,-35
-86,-70,17,78,-51,-26,-8,84,-31,-87,-128,-62
-60,-102,-42,81,-9,-72,2,89,-42,-96,-151,-72
-68,-131,-63,100,-3,-97,10,89,-39,-97,-159,-83
-70,-129,-59,100,-6,-94,20,93,-42,-102,-160,-93
-68,-132,-64,101,-1,-98,28,101,-46,-104,-160,-99
-71,-139,-67,106,-2,-103,31,101,-43,-103,-159,-99
-81,-134,-53,108,-14,-94,29,98,-44,-101,-162,-101
-62,-128,-66,95,2,-97,31,102,-33,-95,-157,-98
-53,-123,-70,89,9,-96,30,97,-36,-99,-164,-102
-68,-118,-51,93,-9,-84,30,103,-23,-85,-155,-98
-73,-122,-49,97,-12,-85,31,103,-26,-98,-166,-101
-63,-118,-55,91,-4,-87,29,110,-16,-66,-149,-94
-28,-127,-99,78,36,-113,37,162,54,-24,-143,-94
2,-92,-94,46,48,-93,11,179,179,125,-79,-70
165,170,6,-167,79,88,-180,-58,72,419,430,258
336,652,316,-495,10,484,-719,-767,-698,397,1308,855
281,777,496,-529,-108,636,-937,-1026,-1185,-24,1454,1097
85,182,97,-134,-6,139,-330,-199,-673,-403,398,490
-17,-203,-186,110,85,-194,114,469,-84,-270,-220,-63
-9,-121,-112,65,51,-116,129,439,68,-76,-147,-73
-46,-120,-73,83,14,-96,112,238,62,-87,-191,-98
-66,-109,-43,88,-12,-75,50,133,64,-53,-165,-99
-56,-104,-48,80,-3,-76,36,134,59,-62,-172,-101
-58,-104,-46,81,-6,-75,32,117,57,-51,-172,-110
-57,-93,-36,75,-10,-64,27,112,55,-46,-163,-99
-62,-98,-36,80,-12,-67,26,109,55,-43,-166,-104
-69,-92,-24,81,-22,-58,19,102,56,-34,-155,-94
-66,-97,-31,82,-17,-64,19,100,54,-32,-159,-97
-59,-93,-34,77,-12,-64,11,94,56,-23,-149,-91
-60,-96,-36,79,-12,-66,8,100,54,-21,-150,-90
-60,-94,-35,78,-12,-64,3,104,57,-12,-140,-90
-51,-86,-35,69,-8,-60,-2,103,64,-9,-133,-90
-37,-73,-35,56,-1,-54,-5,100,72,5,-125,-90
-34,-67,-33,51,-1,-49,-11,100,92,18,-117,-90
-42,-72,-29,57,-7,-50,-16,100,102,32,-108,-81
-32,-58,-26,45,-3,-41,-22,100,111,53,-93,-69
-13,-36,-23,25,5,-29,-27,101,132,76,-80,-55
16,-4,-19,-6,17,-11,-34,107,167,117,-37,-25
31,22,-10,-26,20,6,-64,106,193,161,-2,3
27,46,20,-37,3,33,-84,100,214,196,19,32
61,108,47,-85,7,78,-99,96,237,234,64,65
71,131,60,-101,5,95,-121,91,227,270,113,107
66,150,84,-109,-9,117,-145,87,219,281,156,140
98,193,95,-146,1,143,-166,85,210,270,172,153
104,191,87,-148,8,139,-161,85,201,258,175,167
85,164,79,-125,3,121,-155,85,172,217,156,137
56,128,71,-92,-8,99,-135,85,129,158,92,90
29,92,63,-61,-18,78,-98,85,91,99,35,46
9,47,38,-28,-15,42,-66,80,32,41,-23,-3
-5,8,13,-2,-9,10,-47,75,-8,-10,-70,-31
-25,-25,1,25,-13,-12,-45,70,-32,-49,-97,-60
-47,-56,-9,52,-19,-33,-38,66,-48,-72,-123,-70
-44,-61,-17,53,-13,-39,-33,61,-49,-83,-133,-72
-47,-63,-17,55,-14,-40,-27,58,-54,-88,-138,-90
-53,-67,-14,61,-19,-41,-22,53,-58,-94,-143,-92
-54,-69,-15,62,-20,-42,-20,50,-59,-95,-146,-95
-63,-73,-10,68,-26,-41,-16,47,-54,-95,-150,-100
-65,-75,-10,70,-27,-42,-14,42,-49,-104,-151,-98
-64,-73,-9,68,-27,-40,-10,39,-45,-104,-150,-93
-65,-69,-5,67,-30,-37,-10,35,-40,-99,-150,-87
-62,-71,-8,66,-27,-39,-14,35,-35,-97,-150,-84
-55,-66,-11,61,-22,-38,-17,34,-32,-92,-150,-79
-51,-65,-14,58,-18,-39,-20,29,-29,-89,-150,-74
-48,-65,-17,57,-15,-41,-22,31,-26,-86,-146,-71
-40,-60,-20,50,-10,-40,-26,27,-24,-81,-141,-68
-38,-57,-19,47,-9,-38,-22,25,-20,-79,-139,-65
-39,-54,-14,47,-12,-34,-19,25,-21,-75,-135,-63
-34,-50,-16,42,-9,-32,-20,25,-25,-70,-130,-59
-32,-45,-13,39,-9,-29,-16,25,-25,-72,-132,-63
-38,-47,-9,43,-14,-28,-15,25,-29,-79,-136,-65
-41,-52,-11,46,-15,-31,-15,30,-36,-85,-134,-66
-50,-56,-5,53,-22,-30,-15,30,-42,-89,-139,-71
-53,-59,-6,57,-24,-32,-15,30,-45,-92,-140,-69
-58,-62,-4,60,-27,-32,-15,30,-47,-94,-140,-66
-63,-65,-1,64,-31,-32,-15,30,-50,-98,-145,-65
-68,-68,1,68,-34,-33,-15,28,-53,-100,-144,-65
-68,-70,-2,69,-33,-36,-13,23,-56,-101,-144,-65
-43,-68,-25,56,-9,-46,-6,20,-51,-105,-137,-64
-49,-62,-13,56,-18,-37,-1,16,-45,-105,-138,-69
-58,-58,0,58,-29,-29,4,13,-40,-99,-151,-69
-63,-55,8,59,-35,-23,11,9,-34,-92,-139,-64
-57,-44,13,50,-35,-15,14,20,-28,-86,-125,-57
-41,-19,22,30,-31,1,22,28,-25,-79,-115,-53
-52,20,72,16,-62,46,10,17,-25,-73,-105,-46
-35,49,84,-7,-60,66,-41,0,-24,-68,-96,-34
-20,81,101,-31,-60,91,-71,-26,-34,-62,-86,-34
-8,104,112,-48,-60,107,-74,-17,-51,-60,-80,-35
-5,68,73,-32,-39,70,-58,13,-57,-52,-74,-39
-23,15,38,4,-30,26,-28,15,-61,-71,-101,-38
-44,-37,7,41,-25,-15,-17,15,-65,-99,-137,-51
-62,-69,-6,66,-28,-37,-11,18,-73,-113,-151,-83
-70,-80,-11,75,-29,-45,-4,20,-75,-129,-158,-90
-74,-91,-17,83,-28,-54,3,20,-75,-131,-161,-90
-69,-89,-21,79,-24,-55,9,14,-79,-129,-159,-91
-64,-93,-30,79,-17,-61,7,17,-80,-131,-163,-89
-69,-96,-27,83,-21,-61,4,13,-81,-128,-173,-89
-71,-94,-24,83,-23,-59,6,17,-73,-122,-163,-82
-78,-95,-17,87,-30,-55,-1,13,-77,-130,-166,-88
-71,-85,-14,79,-29,-49,0,14,-64,-114,-152,-82
-62,-71,-10,67,-26,-40,2,9,-72,-128,-159,-88
-59,-61,-2,61,-28,-31,13,8,-51,-111,-142,-82
-15,-85,-69,50,27,-77,33,79,12,-64,-139,-79
18,-62,-81,22,50,-71,-1,107,113,112,-80,-52
160,195,35,-177,62,115,-209,-180,-106,311,362,233
343,652,308,-498,17,480,-784,-951,-931,242,1179,806
311,738,427,-525,-59,583,-965,-1117,-1240,1,1431,1101
136,189,52,-163,42,120,-335,-242,-691,-344,467,537
19,-132,-151,57,85,-141,85,324,-161,-291,-173,-19
-7,-53,-46,31,20,-50,115,284,20,-87,-109,-40
-50,-59,-9,54,-20,-33,85,105,11,-95,-150,-55
-75,-50,25,62,-50,-12,47,29,14,-58,-133,-65
-63,-47,17,55,-40,-15,44,49,9,-69,-141,-70
-59,-45,13,52,-36,-16,27,33,5,-58,-136,-73
-50,-38,12,44,-31,-13,32,36,5,-54,-128,-66
-43,-39,4,40,-23,-18,30,29,16,-53,-132,-68
-41,-33,8,36,-24,-12,30,33,34,-43,-120,-63
-52,-36,16,44,-33,-10,31,36,34,-42,-124,-64
-69,-29,39,49,-54,5,27,34,35,-30,-117,-58
-74,-30,44,52,-59,7,24,41,39,-27,-122,-61
-68,-31,37,49,-52,3,19,39,40,-18,-119,-56
-68,-35,33,51,-50,-1,18,39,41,-14,-121,-54
-61,-35,26,47,-43,-4,11,35,46,-1,-118,-56
-56,-36,20,46,-38,-8,10,34,68,14,-107,-47
-56,-22,35,39,-45,6,4,41,92,30,-97,-38
-39,12,51,14,-45,31,-2,50,110,54,-79,-27
-22,32,54,-5,-39,43,-9,57,141,92,-54,-8
-9,60,68,-26,-39,64,-16,56,177,138,-34,5
-3,88,91,-43,-47,89,-21,51,212,173,1,32
13,116,103,-65,-45,109,-46,49,240,212,36,65
41,165,124,-104,-41,144,-62,44,268,260,78,101
48,193,145,-121,-49,169,-85,41,279,298,129,140
49,207,159,-128,-55,183,-113,37,263,310,159,170
58,249,191,-154,-67,220,-128,34,254,312,191,205
75,279,204,-177,-65,241,-140,35,219,294,198,203
68,247,179,-158,-55,212,-123,35,176,244,181,179
27,171,144,-99,-58,157,-91,35,129,188,142,139
-7,116,123,-55,-65,120,-61,35,66,117,65,87
-36,72,108,-18,-73,90,-37,30,26,53,4,41
-63,31,94,16,-79,62,-17,30,-16,5,-41,5
-53,32,85,10,-69,59,-3,29,-46,-35,-76,-17
-63,11,75,26,-69,43,1,25,-59,-56,-90,-38
-96,-27,69,62,-82,20,6,25,-68,-63,-100,-31
-97,-31,66,63,-81,17,12,23,-64,-69,-109,-34
-92,-30,62,61,-77,16,17,19,-65,-79,-111,-56
-87,-28,59,58,-73,15,23,17,-61,-80,-114,-54
-78,-24,54,50,-66,15,25,14,-60,-80,-116,-55
-78,-26,52,52,-65,13,25,11,-60,-79,-122,-55
-75,-27,48,51,-61,10,25,9,-55,-88,-126,-55
-80,-34,45,56,-62,5,25,10,-56,-97,-124,-53
-82,-41,41,62,-62,0,25,10,-54,-94,-125,-49
-78,-38,40,58,-59,1,20,10,-50,-95,-125,-51
-95,-35,60,65,-77,12,20,10,-50,-95,-125,-46
-103,-32,70,67,-86,18,19,10,-48,-95,-124,-45
-89,-30,59,59,-75,14,14,12,-44,-92,-119,-44
-82,-28,55,55,-68,13,16,15,-42,-86,-122,-41
-69,-21,48,45,-58,13,12,18,-39,-82,-107,-38
-55,-16,39,36,-47,11,10,21,-36,-78,-81,-35
-68,-11,57,39,-62,22,10,24,-34,-72,-79,-33
-67,-5,63,36,-65,29,6,25,-42,-71,-80,-29
-41,-1,41,21,-41,20,5,20,-59,-75,-79,-32
-38,-6,31,22,-34,12,4,20,-58,-78,-80,-35
-45,-16,30,30,-37,7,18,19,-50,-82,-79,-38
-52,-22,30,37,-41,4,28,14,-49,-85,-84,-41
-62,-32,30,47,-46,-1,24,16,-41,-89,-85,-44
-62,-32,30,47,-46,-1,25,12,-43,-90,-85,-45
-59,-30,29,44,-44,0,25,10,-65,-90,-85,-45
-54,-30,24,41,-39,-2,25,10,-71,-94,-84,-45
-57,-31,26,43,-41,-2,25,6,-69,-95,-90,-44
-65,-42,22,53,-43,-10,25,5,-70,-93,-97,-48
-66,-46,19,56,-42,-13,25,5,-70,-90,-100,-50
-64,-44,20,54,-42,-11,25,11,-70,-85,-105,-53
-71,-46,25,58,-47,-10,24,17,-64,-83,-101,-56
-84,-44,40,64,-62,-2,26,21,-58,-78,-94,-47
-87,-45,41,66,-64,-2,21,27,-51,-74,-87,-39
-79,-25,55,51,-67,15,21,33,-44,-84,-81,-31
-61,13,74,24,-68,43,32,33,-37,-82,-74,-21
-54,28,82,13,-68,55,21,25,-33,-68,-61,-14
-43,70,114,-14,-79,92,-17,21,-29,-69,-47,-2
-39,91,130,-26,-85,110,-45,19,-27,-70,-43,6
-35,83,118,-24,-77,100,-38,15,-22,-72,-53,20
-26,65,91,-20,-59,78,-27,15,-18,-75,-51,17
-46,7,54,19,-50,30,-18,15,-46,-77,-71,-18
-51,-32,19,42,-35,-7,-3,15,-68,-95,-106,-39
-79,-72,7,75,-43,-33,10,15,-73,-106,-122,-46
-95,-92,3,93,-49,-44,23,20,-75,-110,-134,-52
-86,-89,-3,88,-42,-46,25,21,-73,-116,-140,-55
-81,-90,-8,86,-37,-49,32,25,-68,-109,-141,-50
-77,-92,-15,85,-31,-53,35,28,-68,-112,-147,-51
-98,-108,-10,103,-43,-59,38,29,-63,-108,-146,-48
-93,-104,-11,98,-40,-57,42,35,-69,-112,-152,-45
-91,-94,-3,93,-44,-49,32,31,-72,-108,-155,-46
-84,-91,-7,88,-38,-49,32,42,-64,-113,-152,-45
-76,-71,6,73,-41,-32,17,32,-74,-124,-145,-55
-66,-80,-15,73,-25,-47,35,51,-33,-89,-107,-47
-41,-125,-84,84,21,-104,39,100,37,-24,-114,-65
30,-17,-48,-6,39,-33,-7,68,112,210,62,59
217,328,111,-273,53,219,-378,-467,-396,317,633,463
348,685,337,-517,5,511,-964,-1213,-1190,227,1349,1020
263,499,235,-381,14,367,-746,-842,-1077,-69,1113,997
77,-24,-101,-26,89,-63,-93,73,-465,-362,99,299
-4,-119,-115,62,56,-117,134,326,-89,-167,-146,25
-36,-68,-31,52,-2,-49,129,194,0,-63,-78,37
-67,-90,-23,78,-22,-56,70,77,12,-90,-130,-6
-70,-73,-3,72,-33,-38,65,55,28,-62,-111,13
-75,-80,-5,78,-34,-42,62,50,22,-78,-136,-7
-77,-72,5,74,-41,-33,48,45,33,-60,-115,-1
-85,-76,9,80,-46,-33,46,46,28,-66,-123,-11
-71,-67,4,69,-37,-31,40,39,33,-55,-114,-13
-81,-61,20,71,-50,-20,47,41,36,-51,-114,-16
-91,-54,37,72,-64,-9,44,44,33,-46,-117,-21
-77,-47,30,62,-53,-9,45,45,46,-37,-112,-22
-66,-42,25,54,-45,-8,45,46,66,-28,-121,-26
-58,-35,23,46,-40,-6,44,50,73,-17,-117,-16
-67,-53,13,60,-40,-20,41,50,76,-7,-108,-12
-74,-48,26,61,-50,-11,34,53,92,12,-96,-3
-79,-33,46,55,-62,6,31,60,117,27,-84,2
-65,-20,45,42,-55,12,26,63,134,47,-69,10
-58,-11,48,34,-53,18,22,68,157,68,-55,18
-41,11,52,15,-46,31,18,78,193,106,-40,26
0,49,49,-25,-25,49,8,81,225,146,-13,62
5,75,70,-40,-33,72,-3,79,257,186,26,86
7,102,95,-55,-44,98,-22,79,287,232,80,121
36,150,114,-94,-39,132,-52,74,307,266,123,159
61,194,134,-128,-37,164,-63,76,310,299,161,191
67,212,146,-140,-40,179,-90,69,302,305,202,236
52,229,176,-141,-62,202,-116,44,280,298,205,241
35,222,187,-128,-77,204,-104,38,240,285,188,239
43,204,162,-124,-60,183,-81,42,200,233,180,211
10,142,132,-76,-61,137,-53,45,157,173,142,155
-46,63,109,-9,-78,86,-27,43,108,112,78,116
-69,31,100,19,-85,65,-8,39,64,48,26,69
-86,6,92,40,-89,49,8,41,30,-2,-12,35
-94,-11,83,52,-88,35,19,36,20,-35,-45,23
-100,-26,74,63,-87,23,29,35,17,-48,-69,16
-111,-41,69,76,-90,14,30,35,10,-57,-82,8
-121,-50,71,86,-96,10,29,35,5,-62,-85,1
-117,-50,67,84,-92,8,32,35,0,-65,-89,-10
-115,-50,65,82,-90,7,35,35,-5,-70,-91,-23
-115,-50,65,82,-90,7,36,35,-5,-75,-88,-25
-120,-50,70,85,-95,10,39,35,-6,-78,-96,-25
-127,-48,79,87,-103,15,41,33,-10,-83,-103,-25
-124,-44,80,84,-101,17,36,29,-10,-85,-107,-24
-127,-46,81,86,-103,17,35,30,-8,-85,-115,-21
-126,-41,85,83,-106,22,34,30,-3,-88,-109,-16
-128,-40,88,84,-108,24,31,30,3,-91,-103,-14
-131,-40,92,85,-111,26,29,30,6,-89,-98,-9
-131,-36,95,83,-113,29,32,25,12,-85,-91,-6
-124,-33,91,79,-107,29,35,20,15,-80,-93,-3
-115,-31,84,73,-100,26,35,15,10,-76,-95,1
-108,-27,80,67,-94,26,35,12,6,-72,-95,4
-99,-25,74,62,-86,24,35,6,4,-66,-99,8
-94,-25,69,59,-81,22,35,7,-1,-67,-100,10
-89,-25,63,57,-76,19,35,18,-4,-71,-100,5
-95,-35,60,65,-77,12,35,20,-8,-70,-104,0
-104,-43,60,74,-81,8,35,20,-10,-74,-107,-4
-106,-46,60,76,-82,7,35,20,-10,-75,-110,-9
-111,-51,60,81,-85,5,34,20,-14,-75,-112,-13
-114,-54,60,84,-87,2,37,21,-15,-80,-115,-18
-115,-55,60,85,-87,2,40,24,-15,-82,-115,-23
-115,-55,60,85,-87,2,40,25,-20,-86,-115,-29
-115,-55,60,85,-87,2,40,25,-20,-90,-115,-35
-115,-55,60,85,-87,2,40,25,-21,-88,-115,-29
-113,-53,60,83,-86,3,40,25,-25,-84,-115,-23
-105,-46,59,75,-82,7,40,23,-25,-82,-115,-19
-93,-39,54,66,-73,7,40,19,-22,-79,-122,-12
-88,-32,56,59,-72,12,41,20,-13,-75,-118,-8
-80,-27,53,53,-66,13,56,20,-4,-75,-108,-2
-73,-6,67,40,-70,30,62,19,3,-65,-101,2
-79,19,98,30,-89,58,60,21,16,-55,-90,7
-62,49,110,6,-86,79,33,0,23,-55,-78,9
-54,70,124,-8,-90,97,-15,-22,16,-55,-64,27
-47,70,117,-12,-82,93,-12,-17,9,-55,-65,41
-28,69,97,-21,-63,83,5,-12,3,-55,-73,25
-56,22,78,17,-67,49,15,-9,-5,-55,-80,9
-97,-46,51,71,-74,3,39,-3,-13,-64,-103,-13
-121,-88,33,105,-77,-27,44,0,-28,-85,-118,-37
-126,-107,18,116,-72,-44,45,4,-32,-95,-131,-48
-124,-108,16,116,-70,-45,61,9,-29,-95,-147,-55
-122,-111,11,116,-67,-50,67,11,-31,-94,-144,-55
-116,-110,6,112,-61,-51,75,17,-29,-88,-145,-55
-112,-110,3,111,-57,-53,79,18,-32,-92,-146,-62
-102,-115,-13,109,-44,-64,76,19,-28,-85,-142,-57
-110,-117,-7,114,-51,-61,75,13,-26,-87,-151,-65
-95,-97,-3,96,-46,-50,74,15,-12,-73,-136,-63
-102,-93,10,97,-56,-41,76,10,-9,-79,-132,-68
-93,-97,-4,95,-44,-50,73,8,0,-65,-125,-70
-37,-108,-71,72,18,-90,81,67,27,-31,-132,-67
-18,-94,-76,56,29,-85,63,100,146,111,-87,-43
131,138,7,-135,62,72,-95,-101,93,403,343,234
314,614,301,-464,6,457,-629,-821,-646,435,1183,799
287,798,512,-543,-113,655,-935,-1197,-1189,94,1500,1159
101,260,159,-181,-29,209,-368,-399,-759,-327,566,640
-11,-161,-150,86,70,-155,135,335,-159,-288,-163,18
-18,-108,-89,63,35,-98,182,336,52,-77,-114,-13
-52,-111,-59,82,3,-85,156,157,69,-74,-136,-31
-76,-106,-29,91,-23,-67,112,53,66,-38,-121,-50
-80,-97,-17,89,-32,-57,105,47,60,-41,-115,-47
-76,-99,-24,87,-25,-61,90,36,57,-30,-114,-56
-73,-87,-14,80,-29,-50,86,30,50,-20,-116,-42
-70,-88,-18,80,-26,-53,82,28,52,-19,-136,-49
-66,-77,-11,72,-27,-44,77,17,55,-7,-118,-38
-45,-77,-31,61,-7,-54,72,18,58,-8,-123,-42
-21,-67,-46,44,13,-56,75,29,61,3,-113,-40
-30,-67,-37,49,4,-52,90,38,64,5,-112,-40
-40,-71,-31,56,-4,-51,79,33,70,12,-106,-37
-41,-66,-24,54,-8,-45,72,36,68,19,-99,-34
-46,-62,-16,54,-14,-39,64,34,89,31,-93,-31
-34,-57,-23,46,-5,-40,57,35,99,39,-86,-30
-22,-53,-31,37,5,-41,52,40,110,55,-79,-21
-25,-49,-23,37,-1,-36,46,44,137,81,-64,-8
-16,-38,-22,27,3,-30,42,50,156,113,-38,3
-4,-13,-9,9,2,-11,34,48,189,153,-8,23
19,36,17,-28,1,26,31,44,218,189,10,41
53,66,13,-60,20,39,11,41,246,229,53,75
54,84,30,-69,12,57,-22,37,262,261,100,104
70,138,69,-104,0,103,-43,35,267,292,143,141
93,177,84,-135,4,131,-65,19,260,312,182,186
88,188,100,-138,-6,144,-74,-3,245,302,201,202
86,184,98,-135,-6,141,-87,-23,228,287,217,211
78,161,83,-120,-2,122,-86,-19,191,247,198,193
59,133,74,-96,-8,104,-49,3,155,194,161,156
39,97,58,-68,-10,77,-25,5,115,146,110,103
18,48,30,-34,-6,39,10,5,74,95,47,43
-15,-3,11,9,-13,4,42,9,41,46,-1,7
-43,-36,7,39,-24,-15,49,10,18,1,-35,-11
-46,-47,-1,46,-22,-24,55,10,12,-34,-57,-15
-41,-51,-9,46,-16,-30,62,5,7,-54,-71,-23
-34,-50,-16,42,-9,-33,73,5,4,-55,-70,-31
-27,-49,-23,38,-2,-36,75,4,-2,-55,-70,-37
-37,-62,-25,50,-6,-43,74,0,-5,-60,-74,-45
-41,-66,-25,54,-8,-46,79,0,0,-60,-81,-48
-35,-64,-28,50,-3,-46,80,2,5,-59,-85,-45
-51,-81,-31,66,-10,-55,80,11,9,-55,-85,-45
-53,-82,-29,68,-11,-56,84,18,14,-56,-90,-43
-49,-74,-25,62,-11,-50,85,16,18,-53,-86,-39
-45,-71,-25,58,-10,-48,85,11,23,-50,-79,-40
-42,-65,-24,54,-9,-44,85,9,25,-50,-73,-36
-42,-62,-20,52,-11,-41,85,4,25,-47,-66,-33
-36,-56,-20,46,-8,-37,83,1,29,-43,-60,-29
-35,-57,-23,46,-6,-39,78,-3,30,-39,-56,-26
-28,-61,-33,45,2,-46,72,-5,30,-36,-53,-21
-24,-60,-35,43,6,-47,69,-5,30,-31,-50,-21
-25,-60,-35,43,5,-47,63,-9,30,-31,-47,-26
-26,-60,-34,44,4,-47,60,-10,30,-37,-45,-24
-23,-59,-36,42,7,-47,71,-10,30,-40,-45,-28
-39,-72,-33,56,-3,-52,76,-15,31,-45,-45,-30
-36,-80,-43,58,4,-61,78,-15,27,-48,-45,-30
-15,-80,-66,48,26,-73,81,-15,25,-51,-45,-33
-15,-79,-64,48,25,-71,84,-15,25,-54,-45,-36
-15,-80,-65,48,25,-72,85,-14,21,-57,-45,-34
-16,-81,-65,49,24,-72,80,-18,20,-60,-50,-37
-6,-71,-65,39,30,-68,80,-20,20,-60,-55,-49
-25,-87,-63,56,19,-75,78,-20,20,-60,-55,-45
-37,-92,-55,65,9,-73,75,-20,20,-60,-55,-37
-29,-80,-51,54,11,-65,74,-20,21,-65,-56,-31
-30,-69,-38,50,4,-53,79,-19,19,-61,-51,-24
-8,-47,-39,28,16,-43,95,-12,25,-51,-41,-19
-11,-28,-17,19,3,-22,114,4,32,-43,-34,-11
-26,-9,18,17,-22,4,97,1,30,-43,-22,-1
-17,26,42,-5,-30,34,57,-43,31,-46,-5,5
16,75,59,-46,-22,67,55,-73,27,-45,7,19
32,80,48,-56,-8,63,56,-57,25,-49,21,32
15,51,35,-33,-10,43,54,-47,25,-51,14,20
-24,-4,20,14,-22,7,56,-52,19,-50,-13,-4
-41,-64,-23,53,-9,-44,60,-47,13,-64,-42,-31
-26,-92,-65,59,20,-78,83,-45,5,-81,-62,-51
-31,-101,-70,66,20,-86,84,-42,-1,-79,-59,-54
-26,-100,-74,63,24,-86,80,-39,-8,-80,-60,-59
-29,-104,-75,67,23,-89,88,-38,-11,-80,-61,-60
-26,-106,-80,66,28,-93,92,-32,-9,-79,-59,-60
-32,-111,-79,71,24,-94,89,-34,-12,-79,-60,-66
-34,-109,-75,72,20,-92,91,-25,-7,-72,-49,-64
-38,-106,-67,72,15,-86,89,-28,-14,-76,-52,-66
-47,-107,-59,77,7,-83,90,-23,-6,-63,-38,-57
-59,-117,-58,88,-1,-87,97,-25,-14,-72,-44,-62
-64,-106,-43,85,-10,-75,90,-30,-4,-59,-30,-58
28,-104,-132,38,80,-118,107,27,60,-26,-15,-60
71,-83,-154,6,113,-118,88,56,179,159,45,-29
183,165,-18,-174,100,74,-114,-205,-1,383,481,263
374,627,253,-501,60,440,-691,-984,-819,333,1290,828
355,735,380,-545,-13,557,-910,-1189,-1183,80,1546,1132
175,183,8,-179,83,95,-273,-310,-652,-284,604,576
56,-155,-211,50,134,-183,165,287,-123,-250,-60,12
26,-87,-114,31,70,-101,191,256,69,-48,-7,-3
-6,-98,-92,52,43,-94,164,69,67,-58,-42,-30
-2,-81,-78,42,38,-79,119,-7,65,-26,-25,-41
4,-74,-79,35,42,-76,124,11,63,-36,-30,-40
4,-69,-74,33,39,-71,107,-9,55,-29,-33,-52
9,-58,-67,25,38,-62,104,-5,57,-25,-22,-45
1,-63,-64,31,32,-63,98,-19,59,-28,-29,-48
-1,-57,-56,30,27,-56,94,-27,69,-18,-21,-43
-4,-57,-53,31,25,-55,93,-20,70,-14,-24,-44
-10,-54,-44,32,17,-49,86,-18,75,-2,-18,-39
0,-55,-54,28,27,-54,85,-11,77,3,-20,-41
12,-48,-59,18,36,-53,80,-8,80,12,-11,-37
10,-40,-50,16,30,-45,78,-3,94,24,-4,-32
10,-35,-45,13,28,-40,75,2,102,39,2,-30
10,-27,-37,8,24,-32,72,9,114,49,11,-25
9,-21,-30,7,20,-26,70,16,127,74,19,-21
8,-13,-21,3,15,-17,67,23,145,94,32,-19
32,19,-13,-25,22,3,59,30,189,125,59,-7
52,48,-3,-50,27,22,51,36,216,160,75,2
52,70,18,-62,17,44,41,46,240,199,102,29
67,102,34,-85,16,68,24,46,284,254,148,75
90,143,52,-117,19,97,-2,37,308,289,190,105
104,182,78,-143,13,130,-22,31,309,321,238,147
124,228,104,-176,10,165,-42,24,301,341,272,182
134,260,126,-198,4,193,-67,18,287,331,294,202
119,245,126,-182,-4,186,-64,13,258,323,292,215
110,229,119,-170,-5,174,-51,7,210,288,276,188
91,192,101,-142,-6,147,-45,1,161,229,253,136
67,136,68,-102,-1,102,-7,-4,118,164,189,88
48,96,49,-72,0,72,35,-5,75,94,124,45
20,53,33,-37,-7,43,45,-5,37,34,77,8
4,24,19,-14,-8,21,49,-5,9,-3,41,-17
2,18,16,-10,-7,17,52,-5,-2,-19,21,-35
6,15,9,-11,-2,12,59,-6,-6,-35,15,-50
6,11,5,-9,0,8,61,-13,-11,-40,10,-57
10,7,-3,-9,6,2,58,-19,-15,-42,4,-60
8,4,-4,-6,5,0,57,-20,-20,-45,-1,-65
-2,0,2,1,-2,1,53,-20,-24,-49,-6,-61
-12,-7,4,9,-8,-1,58,-20,-25,-60,-11,-60
-30,-18,13,24,-21,-3,58,-20,-25,-60,-16,-60
-13,-18,-5,16,-3,-12,56,-18,-25,-60,-20,-60
9,1,-7,-5,8,-3,55,-15,-25,-60,-17,-59
1,-7,-8,3,5,-7,55,-12,-24,-60,-12,-62
-15,-30,-15,23,0,-22,74,-10,-18,-60,-10,-66
-21,-10,11,15,-15,1,77,-7,-12,-57,-6,-60
-1,9,10,-4,-6,9,66,-4,-7,-53,-2,-56
15,19,5,-18,5,12,61,-9,-1,-49,1,-51
26,30,4,-29,11,17,51,-10,4,-46,6,-46
26,23,-3,-24,14,10,47,-10,1,-41,12,-42
23,19,-4,-20,13,7,49,-10,0,-42,15,-40
15,13,-3,-14,9,5,55,-10,0,-45,20,-40
5,7,2,-6,2,4,55,-9,-5,-46,25,-40
-1,2,4,-1,-3,3,56,-5,-5,-49,22,-40
-11,-4,7,7,-8,2,60,-5,-6,-50,16,-40
-7,3,10,2,-9,6,59,-5,-10,-50,12,-46
-5,4,9,1,-8,6,63,-5,-12,-50,7,-52
-21,-17,4,18,-12,-6,65,-5,-15,-61,3,-58
-20,-21,-1,21,-9,-11,65,-1,-18,-66,-2,-60
-10,-16,-5,13,-2,-10,65,0,-21,-64,-5,-60
-5,-15,-10,10,3,-12,65,0,-16,-65,-5,-64
4,-10,-14,3,9,-11,65,4,-14,-65,-5,-66
6,-10,-16,3,11,-13,65,6,-15,-65,-5,-64
-2,-15,-13,9,6,-14,65,3,-14,-60,-5,-60
-5,-25,-21,15,8,-23,65,0,-16,-54,-1,-54
9,-7,-15,-1,12,-11,65,-3,-13,-51,6,-51
6,35,28,-21,-11,31,66,-5,-10,-46,12,-46
-3,46,48,-22,-26,47,75,-9,-10,-42,19,-42
7,54,47,-30,-21,50,64,-10,-10,-37,25,-37
23,83,61,-53,-19,72,31,-16,-10,-35,40,-35
52,122,69,-87,-9,95,-3,-35,-9,-35,57,-35
86,143,56,-115,15,99,-19,-47,-14,-32,57,-31
62,111,49,-87,6,80,-1,-36,-15,-29,47,-30
21,53,33,-37,-6,43,23,-21,-17,-31,33,-29
-2,-7,-4,5,1,-6,42,-11,-37,-62,9,-57
-26,-50,-24,38,-1,-37,53,-10,-46,-89,-19,-88
-12,-57,-45,34,17,-51,58,-10,-46,-88,-33,-90
-7,-60,-54,34,24,-57,61,-9,-51,-91,-36,-96
-11,-64,-53,38,21,-59,58,-12,-46,-90,-35,-100
-6,-66,-60,36,27,-63,65,-7,-44,-89,-34,-96
-11,-70,-60,40,24,-65,69,-8,-47,-97,-37,-94
-5,-72,-67,39,32,-69,70,1,-42,-102,-31,-87
-14,-76,-63,46,25,-70,61,-4,-50,-103,-32,-88
-4,-73,-69,39,33,-71,65,8,-38,-85,-17,-78
-7,-77,-70,42,32,-73,53,2,-38,-97,-23,-82
-4,-73,-69,38,33,-70,58,10,-19,-66,-5,-79
31,-78,-109,24,71,-93,75,76,39,-28,-9,-79
69,-43,-111,-12,90,-77,40,98,161,144,62,-49
231,202,-29,-216,130,86,-164,-216,-91,347,503,230
417,642,225,-530,95,433,-770,-1036,-937,296,1269,789
399,696,297,-548,51,497,-899,-1114,-1189,68,1446,1037
204,150,-54,-177,128,48,-254,-187,-640,-296,504,464
82,-115,-197,17,140,-156,133,326,-134,-240,-37,-13
55,-42,-97,-6,76,-69,168,257,52,-39,50,-23
8,-62,-70,27,40,-66,117,96,47,-76,-14,-69
0,-52,-52,27,26,-52,79,50,60,-46,2,-72
1,-56,-57,28,29,-56,78,56,59,-54,-10,-81
-3,-56,-53,30,25,-54,68,44,64,-43,-12,-82
-5,-53,-49,29,23,-50,70,49,66,-37,-10,-77
-2,-54,-51,28,25,-53,62,41,63,-36,-20,-83
-1,-46,-45,24,22,-46,61,40,67,-26,-7,-76
-4,-47,-44,26,21,-45,57,42,63,-27,-10,-78
-2,-40,-38,21,18,-39,54,45,70,-18,1,-69
-3,-40,-37,22,17,-38,52,45,82,-17,1,-70
0,-30,-30,15,15,-30,48,45,87,-8,9,-64
8,-24,-32,8,20,-28,46,46,83,5,11,-61
21,-14,-36,-3,29,-25,44,50,105,19,20,-57
23,-7,-30,-8,27,-18,39,58,122,28,30,-49
25,1,-24,-13,25,-11,36,60,135,53,40,-41
48,28,-19,-38,33,4,33,71,164,83,54,-33
57,44,-13,-50,35,15,29,83,194,105,69,-26
78,69,-9,-73,43,30,25,83,225,139,98,-8
85,93,7,-89,39,50,21,77,262,184,130,14
87,126,39,-107,24,82,9,72,298,235,169,43
110,168,59,-139,25,113,-21,69,318,271,205,87
132,213,81,-172,25,147,-45,64,323,303,251,129
145,252,107,-199,19,179,-68,59,313,324,292,156
145,259,114,-203,15,187,-92,56,297,311,308,176
164,269,104,-217,30,187,-96,53,273,303,322,180
151,238,86,-195,33,162,-89,50,226,268,301,155
114,186,72,-150,20,129,-64,47,165,198,254,111
75,139,63,-107,6,101,-28,45,111,134,191,58
44,81,38,-63,3,59,4,43,66,72,128,6
39,47,8,-44,15,28,24,39,25,25,84,-28
27,28,1,-28,13,14,29,37,-5,-16,52,-48
24,21,-3,-22,13,8,42,34,-27,-44,38,-62
25,15,-9,-20,17,3,45,31,-32,-49,25,-73
24,9,-15,-16,19,-3,38,29,-30,-63,19,-75
24,5,-20,-14,22,-7,38,26,-30,-72,16,-75
16,-4,-20,-6,18,-12,30,25,-26,-73,12,-79
24,4,-20,-14,22,-8,33,25,-25,-78,9,-80
27,7,-20,-17,23,-6,49,25,-25,-80,5,-80
14,-6,-20,-4,17,-12,51,25,-25,-80,2,-85
6,-15,-21,5,13,-18,49,23,-25,-80,-3,-85
-6,-24,-17,15,6,-20,46,18,-25,-80,-6,-85
-13,-27,-14,20,1,-20,45,15,-25,-80,-9,-85
-20,-30,-10,25,-5,-20,44,12,-26,-81,-14,-85
-23,-30,-7,27,-8,-18,40,7,-22,-77,-14,-83
-27,-30,-2,29,-13,-16,38,5,-20,-75,-9,-80
-31,-30,1,31,-16,-15,35,10,-20,-75,-4,-80
-7,-30,-23,19,8,-26,32,10,-20,-71,0,-76
7,-30,-37,12,22,-33,29,11,-20,-69,5,-74
4,-30,-34,14,19,-32,34,15,-21,-71,10,-76
6,-30,-36,12,21,-32,35,15,-24,-74,6,-79
4,-31,-35,14,20,-32,35,12,-25,-75,5,-80
5,-29,-35,12,20,-31,35,10,-25,-75,5,-80
6,-32,-38,13,22,-34,34,10,-25,-75,0,-80
5,-35,-40,15,23,-37,37,10,-27,-75,0,-79
5,-35,-40,15,23,-37,40,10,-30,-77,-1,-83
-7,-50,-43,29,18,-46,40,10,-34,-81,-7,-85
-11,-57,-46,35,18,-52,40,15,-35,-86,-10,-85
-10,-54,-44,32,17,-49,40,15,-30,-89,-15,-89
-11,-52,-41,32,15,-47,40,16,-30,-92,-20,-90
-10,-49,-39,29,15,-44,40,20,-30,-94,-17,-90
-10,-51,-40,31,15,-46,41,20,-30,-98,-14,-90
-16,-56,-40,36,12,-47,46,20,-30,-100,-15,-90
-19,-58,-40,38,11,-49,50,20,-27,-98,-15,-90
-11,-54,-43,33,16,-48,50,20,-25,-93,-15,-90
-7,-55,-48,31,21,-51,50,20,-25,-90,-14,-90
-4,-66,-62,35,30,-64,50,20,-25,-87,-9,-87
-8,-54,-46,31,20,-50,49,20,-25,-82,-7,-81
-15,-27,-12,21,-2,-19,60,19,-25,-80,-2,-75
-7,-6,1,6,-4,-2,73,27,-19,-69,-1,-71
7,18,12,-13,-3,15,65,24,-14,-55,7,-58
11,45,34,-28,-12,39,31,8,-8,-42,25,-42
42,93,51,-68,-5,71,-23,-15,-3,-40,30,-40
76,108,32,-92,22,70,-31,-14,4,-37,45,-38
35,51,15,-43,10,33,9,13,-1,-34,49,-32
3,-1,-4,-1,4,-2,26,15,-35,-62,14,-54
7,-38,-45,16,27,-41,34,19,-51,-84,-20,-83
-5,-85,-80,45,37,-82,47,22,-49,-96,-34,-98
-1,-102,-100,52,50,-101,57,25,-51,-106,-39,-106
1,-99,-100,49,50,-100,63,25,-56,-105,-43,-106
0,-100,-100,50,50,-100,72,24,-54,-106,-45,-104
7,-99,-107,46,57,-102,77,26,-54,-111,-55,-104
-2,-105,-103,54,51,-104,72,22,-49,-109,-57,-101
-5,-112,-107,59,51,-110,78,34,-50,-106,-52,-98
-8,-111,-102,60,47,-106,82,32,-48,-103,-59,-109
2,-105,-107,52,55,-106,87,35,-41,-93,-49,-103
-3,-105,-102,54,50,-104,86,20,-51,-100,-63,-102
10,-98,-109,44,59,-103,90,39,-9,-76,-39,-84
57,-112,-168,28,113,-139,95,112,51,-24,-22,-90
111,-45,-157,-33,134,-100,46,103,167,210,106,-22
293,282,-11,-288,152,135,-269,-345,-190,410,692,373
434,715,282,-575,76,498,-873,-1136,-1041,307,1460,943
328,595,267,-462,30,431,-792,-964,-1131,-61,1264,975
134,-1,-135,-67,135,-68,-89,9,-525,-369,235,282
64,-162,-226,49,145,-194,172,385,-85,-195,-95,-94
42,-87,-129,22,86,-107,171,260,36,-68,-23,-66
10,-110,-121,51,65,-115,150,109,32,-79,-69,-99
18,-93,-111,38,64,-102,121,72,33,-45,-38,-88
16,-101,-116,43,66,-108,121,83,28,-61,-58,-98
16,-93,-108,38,62,-100,104,66,25,-43,-45,-95
15,-96,-111,41,63,-103,109,68,26,-47,-46,-94
8,-100,-108,46,58,-103,101,59,47,-38,-46,-97
3,-100,-104,49,54,-102,99,65,51,-34,-41,-91
0,-106,-106,54,54,-106,95,65,51,-28,-42,-92
-2,-106,-104,54,51,-105,91,65,57,-20,-38,-88
-6,-112,-106,59,50,-108,89,71,55,-15,-38,-91
-3,-107,-104,55,51,-105,85,69,63,-7,-28,-89
3,-98,-101,47,52,-99,84,73,69,-2,-23,-91
12,-88,-99,38,56,-93,80,75,76,14,-16,-83
19,-80,-100,31,60,-90,79,75,99,26,-8,-67
24,-69,-94,23,59,-81,70,80,113,47,-5,-56
50,-47,-97,-1,74,-71,61,82,131,74,5,-44
61,-29,-90,-16,76,-59,53,92,155,93,13,-37
69,-8,-76,-30,73,-41,43,104,185,129,36,-17
92,15,-77,-53,84,-31,29,98,221,175,88,18
99,47,-52,-73,75,-2,6,91,236,210,118,42
113,97,-16,-105,64,41,-11,83,262,248,164,84
115,128,13,-121,51,70,-35,76,266,271,201,121
130,156,26,-144,52,91,-60,68,251,277,218,148
140,176,36,-158,52,106,-73,66,232,266,262,165
120,164,44,-142,38,104,-84,64,199,249,260,150
124,139,15,-132,54,77,-69,66,171,215,226,134
101,103,2,-102,49,52,-36,65,131,161,183,97
73,54,-20,-63,46,17,-5,64,87,109,114,42
54,10,-44,-32,48,-16,25,68,41,45,59,0
15,-35,-50,11,33,-42,46,60,6,-4,15,-28
19,-62,-82,22,50,-72,54,72,-10,-34,-22,-52
2,-77,-78,38,40,-78,61,54,-20,-58,-30,-68
17,-64,-81,23,49,-72,67,83,-25,-65,-38,-74
-9,-84,-75,47,33,-79,73,13,-33,-70,-49,-82
-17,-90,-73,54,29,-82,75,-149,-38,-72,-58,-77
-14,-95,-80,55,33,-87,75,-117,-35,-80,-59,-87
-34,-108,-73,71,20,-90,79,-99,-35,-87,-70,-99
17,-81,-98,32,58,-89,80,-123,-33,-86,-64,-94
-83,-150,-67,117,-8,-109,80,-99,-31,-83,-37,-92
167,62,-105,-114,136,-22,85,-63,-28,-88,-21,-89
167,121,-46,-144,107,38,87,-49,-38,-82,1,-85
76,-37,-112,-19,94,-74,91,-52,-73,-88,1,-85
12,19,8,-15,2,13,93,-39,-117,-76,-2,-89
-257,-14,244,136,-251,115,101,-39,-171,-95,2,-90
