I,II,III,aVR,aVL,aVF,V1,V2,V3,V4,V5,V6
97,-13,-110,-41,103,-61,-57,-65,-135,-69,-33,-53
91,-11,-102,-40,97,-57,-57,-63,-132,-65,-30,-50
76,-11,-86,-32,82,-49,-46,-54,-119,-60,-27,-47
96,-48,-145,-23,121,-96,-59,-51,-151,-85,-44,-65
88,-136,-224,24,156,-180,119,270,-33,-113,-132,-157
225,70,-155,-147,189,-43,175,491,359,225,89,4
396,951,555,-674,-80,753,-411,-219,914,1130,988,824
233,1002,769,-618,-269,885,-978,-1103,116,617,881,898
67,155,88,-111,-11,122,-965,-1217,-1139,-630,-52,138
86,-37,-123,-25,105,-80,-501,-507,-677,-468,-159,-78
76,8,-68,-42,72,-30,-135,22,-169,-174,-66,-44
67,-8,-76,-29,72,-42,-69,80,-122,-139,-52,-44
78,10,-68,-44,73,-29,-33,112,-37,-77,-23,-37
83,1,-82,-41,82,-41,-31,95,-63,-88,-34,-43
85,19,-67,-52,76,-23,-22,122,-10,-49,-12,-31
86,12,-74,-49,79,-31,-15,123,-20,-54,-18,-36
88,24,-64,-56,76,-20,-9,126,8,-28,-3,-28
89,24,-65,-56,77,-20,-8,133,16,-20,-2,-29
102,31,-71,-66,86,-20,-22,140,29,-5,10,-18
113,38,-75,-75,94,-18,-19,172,57,9,22,-11
117,42,-76,-79,96,-17,-19,174,63,17,27,-2
128,54,-74,-91,101,-9,-15,200,88,37,50,17
145,68,-77,-106,111,-4,-14,239,123,61,74,34
157,94,-63,-125,110,15,-18,278,166,101,100,60
165,127,-38,-146,101,44,-27,343,213,139,134,84
185,164,-21,-174,102,72,-34,401,266,190,173,123
227,214,-13,-220,120,100,-46,466,328,253,225,176
260,274,15,-267,122,144,-65,533,389,314,285,228
283,336,53,-310,114,195,-92,566,446,378,350,286
317,395,78,-356,119,236,-125,600,495,430,407,341
334,450,116,-392,109,283,-146,596,526,475,466,397
351,481,130,-416,110,306,-163,561,523,498,504,432
360,472,112,-416,123,292,-157,521,486,471,488,421
328,414,87,-371,120,250,-146,422,420,410,432,378
272,315,43,-294,114,179,-139,308,305,300,337,307
205,205,0,-205,102,102,-104,198,189,176,233,210
150,107,-44,-128,97,31,-75,114,92,85,152,132
145,49,-96,-96,120,-24,-70,52,17,10,97,83
134,12,-122,-73,128,-55,-65,4,-22,-34,60,56
110,-6,-116,-52,114,-61,-59,-12,-44,-46,44,51
102,-9,-112,-46,107,-60,-54,-27,-46,-46,46,47
87,-19,-105,-34,96,-62,-50,-25,-43,-43,43,42
76,-25,-102,-25,89,-63,-50,-21,-41,-42,40,38
60,-33,-93,-13,77,-63,-50,-20,-37,-38,40,33
55,-39,-93,-8,74,-66,-51,-15,-35,-44,38,30
73,-40,-113,-16,93,-76,-49,-16,-31,-59,34,30
76,-40,-116,-18,96,-77,-52,-19,-30,-61,32,28
73,-40,-114,-16,94,-77,-65,-20,-34,-59,29,24
77,-39,-116,-18,96,-77,-65,-20,-36,-56,26,25
72,-42,-114,-15,93,-78,-60,-20,-35,-54,24,21
71,-45,-116,-13,94,-80,-59,-21,-35,-57,21,17
82,-46,-128,-18,105,-87,-54,-19,-35,-62,16,14
82,-49,-131,-16,107,-90,-56,-21,-36,-70,14,10
73,-51,-124,-11,99,-87,-54,-32,-45,-69,9,6
72,-53,-125,-9,99,-88,-55,-36,-47,-73,5,3
62,-56,-118,-3,91,-87,-54,-44,-44,-75,7,0
63,-59,-122,-2,93,-90,-53,-56,-46,-77,10,0
76,-61,-138,-7,107,-99,-67,-58,-45,-80,14,0
70,-67,-137,-1,104,-102,-63,-56,-46,-77,15,-1
66,-62,-128,-2,98,-94,-53,-54,-43,-74,20,0
61,-63,-124,2,93,-93,-47,-56,-33,-71,19,3
78,-39,-118,-19,98,-78,-38,-50,-20,-69,21,18
91,-5,-97,-43,94,-51,-32,-22,-9,-53,39,34
118,29,-88,-74,103,-29,-15,-11,6,-48,55,48
166,75,-91,-121,129,-8,-43,-9,29,-50,74,57
150,49,-101,-99,125,-26,-84,-16,8,-51,60,44
129,9,-120,-69,125,-55,-78,-43,-17,-49,45,34
116,-27,-143,-44,130,-84,-75,-47,-29,-52,26,21
87,-58,-145,-14,116,-102,-75,-61,-42,-65,11,19
72,-72,-144,0,109,-108,-67,-59,-42,-77,3,14
76,-76,-152,0,115,-114,-74,-64,-51,-75,3,11
66,-79,-145,6,106,-112,-74,-55,-37,-72,0,9
58,-98,-157,20,108,-127,-80,-64,-55,-81,-9,0
40,-92,-132,26,87,-112,-71,-58,-34,-67,2,7
42,-110,-152,34,98,-131,-81,-62,-56,-85,-38,-22
55,-170,-224,58,140,-197,-15,55,-39,-119,-71,-69
89,-199,-288,55,189,-243,191,464,198,-44,-72,-105
281,467,186,-374,47,327,-40,241,821,772,626,497
272,1066,794,-669,-262,930,-658,-658,770,1048,1137,1067
47,394,347,-221,-150,371,-968,-1265,-685,-239,296,465
17,-145,-162,64,90,-153,-721,-892,-951,-653,-194,-29
32,-103,-135,35,84,-118,-268,-127,-207,-222,-66,-6
39,-84,-123,23,81,-103,-95,60,-85,-136,-38,-7
63,-55,-119,-4,92,-87,-64,96,9,-71,5,17
57,-71,-128,8,93,-100,-47,107,23,-77,-4,8
65,-62,-127,-2,97,-94,-49,99,49,-43,12,21
65,-66,-130,1,98,-98,-42,118,66,-34,16,21
61,-66,-127,3,95,-97,-40,109,67,-21,40,26
62,-57,-120,-2,91,-88,-35,128,92,-2,54,33
70,-48,-118,-10,94,-83,-32,123,94,5,51,38
78,-33,-111,-22,95,-72,-30,143,129,24,62,48
79,-29,-108,-25,94,-69,-45,158,144,30,68,48
89,-14,-103,-37,96,-58,-50,176,171,53,83,62
108,12,-95,-60,101,-41,-54,216,202,74,99,80
123,38,-85,-80,104,-23,-53,255,236,105,124,101
134,62,-72,-98,103,-5,-64,300,278,139,152,123
154,100,-54,-127,104,23,-84,357,331,186,190,149
177,154,-24,-165,100,65,-101,419,391,245,241,193
211,213,2,-212,104,107,-125,477,461,315,305,251
255,277,23,-266,116,150,-149,522,516,379,366,312
287,338,50,-313,118,194,-191,542,556,432,423,364
313,382,69,-348,122,225,-216,537,558,460,468,411
326,402,76,-364,124,239,-229,513,542,455,469,432
295,363,67,-329,114,215,-211,432,502,414,431,398
247,271,24,-259,111,147,-162,317,387,304,345,317
175,151,-24,-163,99,63,-126,202,267,185,232,220
119,56,-63,-87,91,-4,-103,95,163,84,148,144
94,1,-93,-47,94,-46,-88,30,85,8,88,88
65,-44,-109,-10,87,-76,-80,-19,47,-35,52,55
67,-63,-130,-2,98,-96,-77,-48,21,-62,36,50
55,-75,-130,10,93,-102,-73,-58,7,-67,20,45
43,-82,-125,20,84,-103,-70,-74,2,-65,15,39
45,-79,-124,17,85,-101,-65,-72,-1,-65,13,34
39,-81,-119,21,79,-100,-67,-66,-4,-65,10,28
41,-80,-120,19,80,-100,-71,-63,-9,-65,7,25
40,-80,-120,20,80,-100,-69,-57,-9,-65,4,25
40,-80,-120,20,80,-100,-70,-54,-5,-62,9,23
40,-80,-120,20,80,-100,-69,-49,-3,-60,10,19
40,-80,-120,20,80,-100,-71,-46,0,-60,10,20
38,-82,-120,22,79,-101,-74,-43,3,-60,10,16
38,-86,-124,24,81,-104,-77,-39,5,-60,10,15
37,-88,-125,26,81,-106,-80,-35,1,-60,9,15
34,-91,-125,29,80,-108,-82,-40,-1,-60,5,10
29,-95,-124,33,77,-109,-86,-48,-4,-60,5,10
25,-95,-120,35,73,-107,-82,-53,-7,-60,5,9
30,-90,-120,30,75,-105,-79,-60,-9,-60,5,4
30,-90,-120,30,75,-105,-80,-60,-12,-60,5,6
31,-89,-120,29,76,-104,-80,-61,-15,-64,2,2
36,-85,-120,24,78,-102,-80,-65,-15,-65,-3,0
31,-85,-116,27,74,-100,-80,-65,-15,-65,-6,0
30,-85,-115,28,73,-100,-80,-73,-15,-70,-9,-4
30,-85,-115,28,73,-100,-80,-76,-15,-70,-14,-6
30,-85,-115,28,73,-100,-80,-75,-11,-70,-15,-5
31,-85,-115,28,73,-100,-80,-73,-10,-70,-15,-5
28,-85,-113,29,71,-99,-80,-69,-10,-70,-15,-5
26,-84,-110,29,69,-97,-78,-71,-10,-70,-16,-4
26,-82,-108,28,67,-94,-71,-65,-10,-70,-15,2
28,-77,-105,25,67,-91,-66,-57,-9,-70,-16,8
24,-77,-100,27,63,-88,-60,-51,0,-65,-9,11
35,-67,-102,16,69,-84,-55,-43,8,-55,4,21
55,-32,-87,-11,71,-59,-56,-40,16,-41,16,20
92,31,-61,-61,76,-15,-52,-36,37,-35,41,42
125,75,-50,-100,87,12,-69,-36,38,-34,51,60
110,35,-75,-72,92,-19,-91,-34,20,-37,32,41
90,-11,-101,-40,96,-55,-82,-39,9,-33,14,31
60,-43,-103,-8,82,-72,-75,-60,-3,-51,-7,4
32,-76,-108,22,70,-92,-71,-77,-16,-72,-12,-15
23,-89,-112,34,67,-100,-60,-76,-22,-82,-21,-25
23,-92,-114,35,68,-103,-55,-95,-29,-87,-30,-34
16,-87,-102,36,59,-94,-40,-87,-23,-81,-33,-28
11,-100,-111,45,61,-105,-35,-91,-48,-92,-45,-34
5,-89,-93,42,50,-91,-20,-93,-39,-77,-36,-26
5,-100,-105,47,56,-102,-16,-77,-55,-92,-51,-33
20,-151,-171,66,96,-161,29,9,-32,-110,-84,-69
39,-216,-255,89,147,-236,234,396,151,-88,-149,-148
211,372,161,-292,25,266,91,272,747,660,479,381
229,1092,863,-661,-317,977,-507,-576,913,1166,1143,1047
5,491,485,-248,-240,488,-870,-1234,-504,-73,369,522
-39,-164,-126,102,43,-145,-686,-986,-1047,-719,-270,-85
-39,-132,-94,86,28,-113,-235,-223,-293,-279,-144,-87
-47,-112,-65,80,9,-88,-9,30,-104,-159,-99,-64
-8,-84,-76,46,34,-80,19,67,-21,-84,-48,-40
-11,-92,-81,51,35,-86,40,84,5,-81,-53,-45
-8,-85,-77,47,35,-81,47,65,7,-68,-42,-35
-8,-81,-73,45,32,-77,55,84,39,-53,-34,-30
-10,-83,-73,46,31,-77,59,67,41,-46,-32,-27
-6,-74,-67,40,31,-71,60,87,65,-23,-20,-16
2,-64,-66,31,35,-65,60,96,75,-18,-19,-12
11,-46,-57,18,34,-51,60,113,110,12,-3,0
17,-37,-54,10,36,-45,61,133,118,24,-1,5
27,-20,-47,-3,37,-33,57,156,146,49,19,14
39,-4,-43,-17,41,-23,49,185,170,65,41,22
57,25,-32,-41,44,-3,41,218,203,90,55,39
67,44,-23,-55,45,10,33,265,246,129,73,68
94,82,-12,-88,52,35,26,316,291,170,109,100
127,134,8,-131,59,71,8,379,353,226,159,132
148,190,43,-169,52,116,-20,436,418,294,216,187
186,264,78,-225,54,171,-50,485,474,360,285,253
216,322,106,-269,55,214,-74,517,533,414,334,300
237,378,141,-308,47,260,-102,504,558,457,386,350
270,410,140,-340,65,275,-123,494,548,471,414,376
268,392,124,-330,71,258,-116,454,529,450,388,370
216,324,108,-271,54,216,-79,352,442,367,327,314
148,219,70,-184,39,144,-33,239,312,237,219,209
81,109,29,-95,26,69,1,133,196,121,118,117
39,23,-16,-31,28,3,32,54,100,33,44,47
19,-32,-51,7,35,-41,46,-8,40,-22,-15,-2
-9,-75,-66,42,29,-70,45,-52,3,-62,-54,-34
-26,-93,-67,60,21,-80,44,-71,-27,-87,-69,-49
-32,-95,-63,64,16,-79,40,-80,-36,-90,-74,-54
-34,-95,-62,64,14,-78,38,-78,-35,-90,-76,-56
-37,-95,-58,66,11,-76,49,-74,-35,-93,-74,-54
-40,-95,-56,68,9,-76,61,-72,-35,-96,-78,-58
-41,-95,-54,68,7,-74,60,-69,-35,-94,-80,-60
-43,-90,-47,67,2,-68,60,-66,-32,-91,-80,-63
-34,-90,-56,62,11,-73,60,-65,-30,-90,-80,-66
-27,-89,-61,58,17,-75,56,-69,-31,-90,-80,-69
-26,-85,-59,55,17,-71,55,-72,-30,-90,-81,-71
-25,-85,-60,55,18,-72,55,-75,-30,-90,-84,-75
-23,-83,-60,53,19,-71,55,-78,-30,-93,-87,-75
-20,-80,-60,50,20,-70,55,-80,-30,-95,-90,-76
-22,-77,-56,50,17,-66,55,-82,-31,-99,-93,-81
-22,-74,-52,48,15,-63,67,-86,-29,-101,-95,-79
-23,-71,-48,47,13,-59,71,-85,-41,-105,-97,-83
-24,-70,-45,47,10,-57,69,-86,-52,-105,-101,-85
-32,-70,-39,51,4,-55,67,-84,-49,-100,-100,-85
-21,-70,-49,46,14,-59,63,-88,-53,-100,-100,-89
-8,-70,-62,39,27,-66,66,-95,-56,-100,-111,-90
-11,-70,-59,40,24,-65,56,-93,-55,-100,-116,-90
-9,-70,-60,39,25,-65,54,-105,-52,-99,-114,-90
-13,-73,-60,43,24,-66,77,-110,-49,-104,-115,-90
-15,-75,-60,45,23,-67,80,-104,-46,-115,-115,-90
-18,-75,-57,47,20,-66,74,-102,-43,-115,-115,-90
-21,-75,-54,48,17,-64,73,-97,-40,-115,-112,-89
-20,-75,-56,48,19,-66,66,-95,-39,-115,-109,-93
-20,-74,-54,48,17,-64,65,-89,-35,-115,-110,-95
-14,-70,-56,43,21,-63,60,-83,-36,-115,-110,-96
-9,-63,-54,36,23,-58,61,-78,-33,-109,-110,-96
-10,-59,-49,34,20,-54,59,-73,-29,-102,-109,-91
-1,-47,-47,25,23,-47,62,-66,-31,-96,-102,-88
23,-10,-33,-6,29,-22,95,-68,-22,-88,-87,-82
40,27,-13,-33,26,7,119,-70,-5,-88,-83,-81
41,69,28,-55,7,48,104,-70,24,-89,-85,-85
52,80,28,-66,12,54,54,-70,31,-91,-85,-88
51,38,-12,-45,31,13,43,-69,-1,-96,-85,-93
30,0,-29,-15,30,-14,57,-85,-23,-93,-85,-93
4,-39,-43,18,24,-41,49,-101,-48,-108,-106,-103
-31,-59,-28,45,-1,-43,51,-111,-52,-118,-116,-105
-40,-71,-31,55,-4,-50,49,-119,-63,-135,-124,-109
-48,-67,-19,58,-15,-43,44,-123,-59,-125,-116,-101
-56,-72,-16,65,-20,-44,46,-116,-58,-135,-129,-108
-41,-70,-29,56,-6,-49,45,-126,-66,-134,-122,-104
-34,-66,-31,50,-1,-49,54,-114,-48,-132,-125,-102
-20,-87,-68,54,24,-77,47,-116,-86,-148,-141,-130
-37,-183,-146,110,55,-164,181,139,-18,-188,-219,-221
53,-28,-81,-12,67,-54,286,373,332,96,-42,-92
186,872,686,-529,-251,779,-115,-168,1004,1090,883,728
40,978,939,-509,-450,958,-644,-1000,345,688,831,829
-117,80,197,18,-157,139,-739,-1230,-1064,-675,-180,21
-77,-145,-68,111,-4,-106,-409,-607,-723,-559,-300,-182
-47,-65,-18,56,-14,-41,-44,-65,-169,-217,-160,-127
-40,-44,-4,41,-18,-24,64,11,-117,-164,-128,-124
-29,-18,11,23,-20,-4,79,60,-29,-95,-93,-103
-31,-31,0,31,-15,-16,89,52,-57,-110,-105,-108
-27,-12,15,19,-21,2,93,62,-5,-68,-82,-85
-27,-19,8,23,-18,-5,93,66,-5,-75,-87,-83
-24,-6,18,15,-21,5,88,71,22,-47,-66,-64
-21,-5,16,13,-18,5,91,78,32,-37,-59,-61
-16,9,25,3,-21,16,84,82,49,-20,-47,-52
-13,17,30,-2,-22,23,86,102,65,-5,-38,-46
-2,30,32,-14,-18,31,84,119,78,9,-32,-34
18,56,39,-37,-11,47,78,143,115,36,-17,-19
29,76,47,-53,-9,61,71,173,137,57,5,-5
44,100,56,-72,-7,78,64,216,179,90,36,31
55,125,70,-90,-8,97,58,260,218,126,64,50
85,171,86,-128,-1,129,43,318,272,177,107,83
116,220,104,-168,6,162,17,380,335,234,156,134
140,276,137,-208,1,206,-20,438,395,299,216,184
175,340,165,-257,4,252,-45,482,453,367,281,247
206,396,190,-301,7,293,-71,498,491,416,341,298
235,448,213,-342,11,330,-106,484,498,445,380,338
228,451,224,-340,2,337,-107,455,485,442,380,352
196,410,213,-303,-9,311,-84,383,428,394,348,315
157,328,171,-243,-7,249,-49,267,304,281,260,242
88,212,123,-150,-18,167,-10,156,167,152,154,150
24,112,88,-68,-33,100,18,51,62,57,68,70
-8,51,59,-22,-33,55,50,-9,-15,-18,4,12
-22,19,41,1,-32,30,62,-52,-58,-59,-31,-25
-35,4,40,16,-38,22,59,-85,-76,-75,-46,-35
-41,0,40,20,-40,20,61,-88,-90,-85,-52,-39
-43,-4,39,24,-41,17,60,-100,-98,-89,-59,-43
-50,-10,41,30,-45,15,60,-98,-97,-90,-60,-45
-50,-12,38,31,-44,13,55,-91,-95,-90,-60,-50
-58,-22,35,40,-46,6,55,-87,-95,-90,-60,-50
-69,-37,32,53,-50,-2,55,-80,-95,-90,-60,-50
-63,-34,30,49,-46,-2,55,-75,-95,-87,-60,-50
-56,-30,26,43,-41,-1,56,-71,-96,-85,-60,-50
-51,-27,24,39,-37,-1,52,-74,-100,-85,-60,-50
-56,-22,33,38,-44,5,50,-77,-100,-82,-60,-51
-55,-20,36,37,-46,8,50,-80,-100,-79,-60,-54
-45,-15,30,30,-37,7,50,-83,-100,-81,-60,-57
-44,-15,28,29,-36,6,50,-85,-100,-85,-64,-59
-37,-15,23,26,-29,4,50,-87,-104,-91,-66,-63
-36,-16,20,26,-28,2,45,-91,-105,-98,-65,-65
-41,-14,28,27,-34,6,45,-94,-105,-100,-65,-68
-54,-22,32,38,-42,5,45,-97,-105,-101,-65,-70
-66,-39,27,52,-46,-6,45,-101,-106,-105,-64,-70
-65,-40,25,52,-45,-7,45,-104,-112,-105,-72,-74
-80,-40,40,60,-60,0,43,-105,-115,-105,-81,-75
-87,-40,47,63,-67,3,39,-108,-115,-105,-79,-75
-84,-40,44,61,-64,2,40,-111,-115,-105,-83,-75
-86,-40,46,62,-66,2,40,-107,-115,-105,-85,-75
-80,-35,44,57,-62,5,40,-105,-115,-105,-85,-75
-77,-32,45,54,-61,6,40,-105,-115,-102,-81,-75
-73,-28,45,50,-59,8,35,-105,-115,-99,-80,-75
-70,-25,45,47,-57,10,35,-105,-115,-100,-80,-73
-65,-20,45,42,-55,12,34,-105,-115,-96,-75,-69
-68,-23,45,45,-56,11,30,-105,-115,-95,-75,-70
-72,-27,45,49,-58,9,30,-105,-114,-95,-74,-70
-71,-24,47,47,-58,11,32,-105,-110,-91,-70,-70
-77,-26,51,51,-64,12,40,-105,-110,-87,-71,-70
-66,-19,48,42,-57,15,45,-105,-108,-84,-68,-65
-74,-22,52,48,-63,15,50,-102,-103,-79,-64,-60
-60,-13,47,36,-53,17,53,-96,-108,-76,-67,-57
-31,25,56,3,-43,40,57,-78,-89,-71,-53,-51
-37,45,81,-4,-59,63,78,-62,-54,-59,-29,-34
-16,89,105,-37,-61,97,78,-69,-50,-58,-23,-24
-4,106,110,-52,-57,108,36,-70,-49,-61,-26,-26
0,65,66,-33,-33,65,15,-76,-60,-60,-23,-25
-21,34,55,-7,-38,44,34,-85,-74,-62,-33,-27
-53,-1,52,26,-52,25,42,-98,-98,-84,-56,-40
-74,-23,51,49,-63,14,40,-110,-99,-95,-65,-55
-83,-38,45,60,-63,3,37,-109,-101,-99,-79,-69
-79,-33,46,55,-62,7,30,-116,-100,-91,-71,-61
-85,-36,49,60,-66,6,32,-100,-97,-97,-80,-70
-84,-37,47,60,-65,5,19,-116,-107,-95,-79,-69
-89,-29,59,59,-73,14,33,-92,-90,-91,-78,-69
-75,-56,19,65,-47,-18,14,-99,-126,-112,-90,-82
-95,-157,-63,126,-16,-110,160,167,-40,-157,-175,-175
27,21,-6,-24,17,7,279,443,348,154,9,-41
206,899,693,-553,-244,795,-213,-160,955,1078,907,772
57,1038,982,-548,-463,1010,-817,-1056,250,675,900,923
-119,194,313,-38,-216,253,-882,-1291,-1072,-590,-52,171
-110,-73,37,92,-73,-18,-446,-610,-695,-491,-219,-102
-107,-16,90,61,-98,37,-65,-39,-164,-185,-107,-72
-107,-20,86,64,-96,32,10,17,-124,-148,-98,-59
-101,-9,92,55,-96,41,45,74,-31,-78,-71,-49
-101,-21,80,60,-90,30,57,58,-51,-86,-76,-56
-96,-10,85,53,-90,37,61,71,-5,-49,-58,-43
-95,-18,77,57,-85,29,66,72,-18,-57,-64,-49
-91,-6,85,48,-88,40,59,66,2,-34,-49,-40
-84,1,85,41,-84,42,61,79,5,-25,-50,-35
-75,9,85,33,-80,47,59,91,16,-10,-40,-24
-66,20,87,23,-77,53,60,114,49,4,-24,-16
-62,32,94,15,-78,63,60,134,68,20,-9,-8
-57,48,105,4,-81,76,58,163,98,49,5,3
-40,65,106,-13,-73,85,51,193,125,69,20,15
-26,90,115,-32,-71,102,44,239,168,99,51,39
-16,115,131,-50,-74,123,37,283,212,137,78,63
8,153,145,-81,-69,149,31,343,269,188,121,95
50,209,159,-130,-55,184,12,404,332,250,174,141
84,275,191,-180,-54,232,-15,465,400,317,236,194
119,341,221,-230,-51,281,-41,515,462,384,301,260
153,402,249,-278,-49,326,-73,516,503,439,363,315
168,447,279,-308,-56,363,-102,504,522,472,408,362
192,460,269,-326,-39,364,-114,483,517,476,414,381
173,429,256,-301,-42,342,-99,412,459,430,386,353
106,339,232,-223,-63,285,-66,301,349,321,297,282
44,217,173,-131,-65,195,-33,178,216,192,186,181
-10,112,122,-51,-66,117,-8,77,109,91,96,99
-44,43,86,0,-65,65,12,9,33,20,30,40
-73,-4,69,38,-71,32,29,-38,-21,-37,-13,1
-97,-34,62,65,-79,13,32,-69,-46,-67,-38,-13
-103,-45,58,74,-80,6,30,-84,-68,-71,-41,-17
-103,-49,53,76,-78,2,30,-87,-75,-69,-39,-24
-103,-54,49,78,-75,-3,25,-85,-74,-71,-40,-29
-97,-53,44,74,-70,-4,25,-82,-76,-76,-40,-30
-90,-50,40,70,-65,-5,26,-79,-75,-73,-41,-30
-90,-50,40,70,-65,-5,30,-76,-75,-69,-45,-30
-85,-47,39,66,-62,-4,35,-74,-75,-66,-45,-30
-79,-44,35,62,-57,-5,31,-71,-80,-61,-46,-30
-80,-46,34,62,-56,-6,29,-68,-80,-61,-50,-32
-93,-49,43,71,-68,-3,30,-66,-80,-66,-50,-35
-104,-54,51,79,-77,-1,30,-63,-81,-65,-48,-38
-100,-58,43,79,-71,-7,31,-60,-80,-68,-45,-40
-100,-60,40,80,-70,-10,28,-63,-81,-71,-42,-44
-95,-60,35,77,-65,-12,25,-66,-93,-70,-39,-45
-88,-60,28,74,-58,-16,25,-65,-101,-74,-36,-48
-100,-60,40,80,-70,-10,25,-65,-108,-77,-35,-50
-110,-60,50,85,-80,-5,25,-72,-123,-80,-42,-51
-102,-60,42,81,-72,-9,25,-80,-130,-83,-49,-56
-97,-60,37,78,-67,-11,29,-82,-139,-87,-55,-61
-92,-60,32,76,-62,-14,30,-89,-151,-90,-54,-64
-84,-60,23,72,-54,-18,30,-95,-151,-90,-59,-69
-101,-59,41,79,-71,-9,35,-95,-151,-90,-66,-70
-119,-63,56,91,-87,-3,35,-96,-148,-86,-65,-70
-116,-70,46,93,-81,-11,34,-100,-156,-85,-65,-70
-113,-70,43,91,-78,-13,30,-100,-175,-85,-65,-69
-106,-70,36,88,-71,-17,30,-97,-175,-85,-64,-72
-101,-70,31,85,-66,-19,28,-95,-174,-85,-68,-75
-104,-70,34,86,-69,-18,24,-95,-176,-86,-70,-77
-105,-70,35,87,-70,-17,26,-95,-174,-90,-70,-80
-105,-70,35,87,-70,-17,21,-95,-178,-90,-75,-80
-104,-70,35,87,-70,-17,20,-95,-180,-90,-75,-80
-106,-70,35,87,-71,-17,19,-90,-180,-90,-76,-80
-104,-70,35,86,-69,-17,16,-90,-180,-90,-80,-80
-106,-71,35,88,-71,-17,14,-89,-180,-87,-81,-81
-102,-68,34,85,-68,-17,18,-84,-180,-79,-78,-79
-98,-63,35,80,-66,-14,37,-85,-173,-72,-68,-70
-96,-60,35,77,-65,-12,39,-82,-168,-66,-60,-62
-72,-38,34,55,-53,-2,49,-73,-160,-59,-51,-54
-67,-5,63,36,-65,29,77,-62,-144,-52,-38,-38
-48,37,85,5,-67,61,82,-55,-138,-53,-21,-18
-5,63,67,-29,-36,65,48,-55,-142,-55,-3,-5
-9,33,42,-12,-26,37,8,-54,-145,-56,-10,-13
-49,-10,38,29,-43,14,12,-60,-147,-53,-33,-27
-71,-42,29,56,-49,-7,17,-83,-179,-70,-57,-50
-92,-63,29,77,-60,-17,19,-98,-185,-85,-65,-64
-93,-75,18,84,-55,-28,22,-97,-195,-93,-80,-73
-84,-68,16,76,-50,-26,17,-111,-204,-87,-78,-67
-93,-69,24,81,-58,-23,24,-94,-194,-91,-85,-72
-88,-69,19,78,-53,-25,15,-108,-210,-92,-86,-80
-104,-57,47,80,-75,-5,26,-87,-186,-84,-86,-85
-83,-84,-1,83,-41,-42,12,-99,-219,-103,-97,-96
-91,-178,-87,135,-2,-132,124,112,-164,-151,-158,-171
-19,-88,-69,53,25,-78,286,457,162,64,-62,-114
169,757,588,-463,-210,672,-90,-6,837,1012,816,664
66,1080,1014,-573,-475,1047,-707,-914,382,859,1002,975
-128,220,348,-46,-239,284,-874,-1289,-1079,-491,16,211
-130,-149,-19,139,-55,-83,-502,-707,-921,-561,-261,-136
-117,-61,56,89,-86,-3,-93,-59,-289,-191,-127,-84
-121,-68,53,94,-87,-7,11,34,-225,-143,-110,-77
-113,-53,60,82,-86,4,45,79,-126,-76,-74,-62
-110,-66,44,88,-77,-11,64,70,-146,-92,-86,-71
-105,-56,49,80,-77,-3,64,77,-107,-59,-65,-58
-100,-62,38,81,-69,-12,67,83,-109,-52,-68,-63
-97,-52,44,74,-70,-4,63,78,-99,-21,-56,-56
-93,-45,48,69,-70,1,67,97,-90,-12,-52,-51
-92,-41,51,66,-71,5,63,97,-74,-5,-43,-44
-84,-27,56,55,-70,14,61,113,-44,11,-31,-37
-62,-8,54,35,-58,22,58,129,-37,12,-23,-31
-48,13,60,17,-54,36,55,155,-9,33,-12,-20
-51,24,75,13,-63,49,53,184,20,64,0,-4
-39,43,82,-2,-60,62,49,220,58,91,26,17
-14,73,86,-30,-50,79,48,270,99,126,55,37
7,109,102,-59,-48,106,40,325,156,177,99,70
37,157,120,-97,-42,138,24,385,212,228,148,115
69,218,149,-144,-40,183,-1,448,280,303,212,175
104,287,183,-196,-40,235,-40,498,344,373,281,236
139,355,216,-247,-39,285,-68,517,390,427,336,290
159,405,246,-283,-44,326,-94,500,416,467,383,344
168,424,256,-296,-44,339,-97,490,411,474,402,362
157,400,243,-279,-44,321,-83,441,367,449,375,344
108,321,213,-215,-53,267,-67,327,261,350,301,280
49,206,157,-127,-54,181,-24,217,132,221,194,177
4,99,96,-52,-46,97,8,119,14,110,86,94
-44,11,56,16,-50,33,35,42,-79,25,16,26
-86,-49,37,67,-61,-6,62,-10,-134,-21,-25,-25
-104,-77,27,90,-65,-24,65,-49,-157,-51,-54,-50
-104,-90,14,97,-59,-37,66,-68,-167,-65,-61,-56
-99,-93,6,95,-52,-43,69,-73,-178,-71,-65,-54
-103,-98,5,100,-54,-46,73,-68,-180,-75,-65,-56
-106,-101,5,103,-56,-48,75,-65,-180,-75,-67,-60
-98,-98,0,98,-49,-49,75,-62,-180,-75,-71,-65
-109,-109,0,109,-54,-55,75,-57,-180,-75,-70,-68
-117,-116,1,117,-58,-57,75,-55,-181,-75,-70,-73
-96,-112,-16,104,-40,-64,75,-60,-177,-75,-70,-76
-92,-110,-18,101,-37,-63,70,-60,-175,-76,-70,-75
-98,-107,-8,103,-44,-57,70,-61,-175,-80,-70,-75
-102,-105,-3,104,-49,-54,69,-66,-171,-80,-70,-75
-106,-101,4,103,-55,-48,65,-64,-170,-80,-71,-76
-99,-100,-1,100,-49,-50,65,-68,-170,-80,-76,-79
-93,-100,-7,97,-43,-53,67,-70,-170,-80,-82,-80
-88,-101,-13,95,-38,-56,70,-71,-170,-84,-89,-80
-85,-98,-14,92,-36,-56,70,-82,-170,-87,-96,-80
-98,-106,-8,102,-45,-57,70,-87,-170,-92,-101,-91
-119,-125,-7,123,-56,-66,66,-89,-169,-95,-105,-96
-123,-125,-2,124,-60,-63,64,-92,-174,-95,-104,-94
-125,-125,0,125,-62,-62,66,-95,-185,-97,-107,-99
-119,-125,-6,122,-56,-65,63,-95,-185,-100,-110,-100
-117,-128,-11,123,-53,-70,74,-95,-184,-100,-110,-100
-125,-143,-17,134,-54,-80,81,-95,-188,-96,-113,-104
-125,-145,-21,135,-51,-82,79,-95,-189,-95,-117,-107
-125,-145,-20,135,-52,-82,80,-95,-194,-95,-120,-110
-125,-145,-20,135,-52,-82,80,-95,-200,-95,-124,-113
-125,-144,-20,134,-52,-82,80,-95,-202,-95,-126,-115
-120,-141,-20,130,-50,-80,76,-95,-201,-96,-132,-117
-120,-139,-19,130,-50,-79,75,-95,-200,-100,-139,-120
-125,-140,-16,133,-55,-77,75,-95,-200,-99,-140,-120
-126,-139,-14,133,-56,-76,75,-95,-200,-103,-140,-120
-131,-141,-10,136,-61,-76,75,-95,-201,-106,-140,-121
-130,-139,-9,135,-61,-74,75,-94,-198,-105,-141,-120
-145,-148,-3,147,-71,-75,76,-96,-192,-100,-139,-113
-136,-146,-10,141,-62,-78,72,-87,-188,-92,-130,-103
-93,-110,-17,101,-37,-63,93,-69,-185,-84,-121,-96
-85,-71,14,78,-49,-28,112,-65,-175,-68,-113,-83
-61,-27,34,44,-47,3,103,-61,-165,-62,-113,-63
-39,-15,24,27,-31,4,102,-60,-164,-66,-117,-58
-50,-44,5,47,-27,-19,96,-59,-166,-71,-121,-65
-63,-69,-6,66,-28,-37,91,-64,-163,-71,-122,-66
-97,-109,-13,103,-42,-61,88,-90,-187,-81,-129,-90
-125,-132,-7,128,-58,-69,81,-99,-200,-93,-131,-106
-130,-146,-15,138,-57,-80,83,-101,-207,-105,-138,-113
-131,-146,-15,139,-57,-80,82,-116,-216,-100,-132,-108
-137,-148,-12,143,-62,-80,90,-103,-209,-109,-137,-111
-141,-158,-17,149,-62,-87,87,-117,-225,-111,-135,-111
-149,-147,2,148,-75,-72,98,-104,-200,-105,-132,-107
-134,-173,-40,153,-47,-106,87,-106,-234,-119,-151,-125
-129,-268,-139,199,5,-203,166,97,-181,-162,-223,-207
-60,-192,-133,126,37,-163,314,399,122,21,-140,-163
81,651,570,-367,-245,611,-23,-51,798,994,742,610
-25,976,1000,-476,-513,988,-592,-913,402,874,926,900
-215,99,315,58,-265,207,-740,-1255,-1074,-523,-89,119
-183,-248,-65,216,-59,-156,-444,-712,-950,-603,-337,-184
-129,-144,-15,136,-57,-79,-75,-91,-302,-206,-177,-121
-141,-147,-6,144,-68,-76,44,27,-232,-143,-159,-119
-141,-127,14,133,-77,-56,79,67,-132,-75,-114,-93
-136,-139,-2,137,-67,-70,99,57,-155,-91,-129,-104
-133,-122,10,127,-71,-56,92,59,-108,-52,-103,-83
-129,-128,2,128,-65,-63,98,73,-111,-55,-106,-86
-124,-117,7,120,-65,-55,93,79,-94,-32,-91,-75
-117,-107,9,112,-63,-49,96,87,-68,-19,-77,-68
-108,-98,10,103,-58,-44,94,93,-61,-3,-60,-58
-97,-86,11,92,-54,-37,91,119,-39,20,-45,-46
-87,-78,9,83,-48,-34,87,127,-25,27,-39,-39
-77,-67,10,72,-44,-28,83,146,14,54,-26,-23
-61,-48,13,54,-36,-17,80,179,38,82,-6,-3
-48,-19,29,33,-38,5,76,217,72,113,23,23
-36,6,41,15,-39,23,72,263,117,149,54,43
-6,47,53,-21,-30,50,59,316,169,198,91,76
22,96,73,-59,-26,84,33,376,229,258,143,123
61,154,93,-107,-16,123,0,438,298,327,206,177
99,222,123,-161,-12,172,-30,492,362,397,270,240
133,285,152,-210,-9,218,-58,518,412,459,338,299
156,336,180,-246,-12,258,-84,511,436,492,386,351
163,352,188,-258,-12,270,-106,490,432,493,402,368
167,338,171,-253,-2,254,-102,431,384,467,378,348
110,263,153,-187,-22,208,-63,322,276,374,301,294
32,144,112,-88,-40,127,-20,203,140,239,192,196
-22,36,59,-7,-41,47,21,98,28,122,84,111
-56,-43,13,49,-34,-15,49,21,-52,48,9,48
-88,-93,-5,91,-42,-49,57,-31,-103,-3,-28,5
-112,-120,-8,117,-52,-64,60,-61,-126,-37,-49,-3
-115,-132,-17,124,-49,-74,60,-71,-132,-44,-52,-7
-121,-143,-22,132,-49,-82,60,-77,-134,-50,-50,-12
-116,-145,-29,131,-43,-87,60,-85,-131,-50,-50,-16
-114,-145,-30,129,-42,-87,60,-82,-128,-50,-46,-20
-116,-145,-30,130,-42,-87,60,-73,-125,-50,-44,-20
-114,-145,-30,129,-42,-87,60,-68,-122,-50,-46,-20
-116,-146,-30,131,-42,-87,60,-60,-119,-48,-49,-20
-112,-142,-30,127,-41,-86,60,-56,-122,-45,-51,-20
-109,-140,-31,124,-39,-85,60,-60,-126,-45,-50,-19
-105,-140,-35,123,-35,-87,58,-60,-125,-41,-51,-23
-102,-140,-38,121,-32,-89,55,-60,-129,-40,-49,-25
-98,-140,-42,119,-28,-91,52,-60,-130,-41,-53,-26
-95,-141,-45,119,-25,-92,49,-60,-130,-45,-56,-30
-103,-145,-41,124,-30,-93,45,-62,-135,-45,-54,-30
-105,-145,-40,125,-32,-92,46,-66,-135,-49,-67,-35
-109,-148,-40,129,-34,-94,47,-69,-135,-63,-75,-35
-115,-151,-36,133,-40,-93,45,-73,-135,-66,-76,-37
-115,-150,-34,133,-40,-91,45,-76,-135,-64,-80,-44
-115,-150,-35,133,-40,-92,45,-79,-141,-66,-83,-50
-122,-150,-28,136,-47,-89,44,-84,-150,-64,-85,-54
-116,-150,-35,133,-40,-92,46,-85,-154,-61,-85,-58
-99,-150,-50,125,-24,-100,50,-85,-151,-60,-85,-60
-105,-150,-45,128,-30,-97,50,-85,-148,-59,-85,-60
-115,-155,-40,135,-37,-97,50,-85,-145,-55,-93,-64
-118,-155,-37,137,-40,-96,47,-85,-143,-54,-95,-65
-124,-155,-30,140,-47,-92,44,-85,-139,-64,-95,-65
-123,-155,-33,139,-45,-93,46,-89,-143,-71,-100,-65
-112,-154,-42,134,-34,-98,50,-91,-145,-70,-100,-65
-112,-158,-45,135,-33,-101,51,-87,-140,-68,-99,-65
-115,-160,-45,138,-35,-102,46,-85,-140,-64,-95,-65
-115,-160,-45,138,-35,-102,44,-85,-140,-66,-95,-65
-115,-160,-45,138,-35,-102,41,-85,-140,-61,-96,-63
-115,-161,-45,138,-35,-103,40,-85,-140,-61,-95,-58
-122,-159,-38,141,-42,-98,46,-85,-137,-57,-96,-54
-123,-152,-29,137,-47,-90,43,-77,-127,-55,-88,-49
-110,-130,-21,120,-44,-75,55,-68,-118,-52,-73,-45
-76,-86,-10,81,-33,-48,82,-57,-107,-29,-59,-36
-47,-45,3,46,-25,-21,95,-53,-98,5,-37,-22
-28,-11,18,19,-23,4,68,-57,-88,34,-26,-17
-16,-15,1,16,-8,-7,30,-61,-82,9,-36,-14
-32,-61,-29,46,-1,-45,44,-66,-100,-16,-44,-8
-57,-110,-53,83,-1,-81,46,-74,-127,-30,-72,-28
-94,-141,-47,117,-23,-94,45,-91,-135,-38,-81,-45
-116,-161,-45,139,-35,-103,53,-91,-145,-52,-81,-52
-121,-166,-45,144,-38,-105,46,-98,-149,-52,-79,-49
-128,-162,-34,145,-46,-98,54,-84,-137,-47,-76,-53
-122,-170,-47,146,-37,-108,45,-96,-149,-56,-78,-58
-142,-158,-17,150,-62,-87,57,-85,-128,-41,-69,-50
-115,-173,-58,144,-28,-115,28,-94,-157,-63,-92,-66
-114,-248,-134,181,10,-190,115,64,-109,-89,-147,-119
-63,-240,-177,152,57,-208,316,463,144,27,-134,-135
138,501,362,-320,-112,431,5,130,778,890,637,534
92,1045,953,-569,-431,999,-659,-809,604,1061,1070,1045
-122,314,436,-96,-279,375,-920,-1318,-863,-261,181,397
-151,-193,-42,173,-54,-118,-581,-846,-985,-573,-256,-70
-144,-159,-14,152,-65,-86,-124,-118,-274,-167,-131,-75
-168,-173,-5,171,-81,-89,41,40,-177,-115,-119,-85
-145,-148,-2,147,-71,-75,67,77,-87,-43,-85,-57
-120,-155,-35,137,-42,-95,87,77,-92,-48,-95,-62
-102,-137,-35,120,-33,-86,96,70,-62,-17,-76,-45
-95,-131,-36,113,-29,-83,95,81,-53,-15,-76,-44
-92,-121,-28,107,-32,-74,94,80,-50,-3,-65,-35
-86,-108,-22,97,-32,-65,96,99,-29,14,-53,-29
-86,-104,-19,95,-33,-61,94,97,-28,24,-47,-25
-81,-92,-11,86,-34,-51,92,117,2,48,-30,-14
-79,-84,-5,82,-37,-44,86,129,14,54,-14,-6
-72,-69,3,71,-38,-33,82,157,42,73,7,5
-63,-55,9,59,-36,-23,77,185,66,90,17,17
-44,-26,18,35,-30,-4,72,221,100,124,36,37
-17,10,27,3,-23,19,69,270,141,160,66,58
-2,39,40,-19,-21,39,55,326,188,202,101,90
24,86,62,-56,-19,74,42,391,252,262,157,134
67,154,87,-110,-11,120,23,456,323,329,216,190
103,224,121,-164,-9,172,-8,512,386,399,283,253
132,290,159,-211,-14,224,-34,542,438,462,347,312
168,353,185,-261,-9,269,-69,537,468,506,400,363
174,384,210,-279,-18,296,-79,514,468,518,428,393
166,372,206,-270,-20,289,-62,465,435,499,420,385
141,310,170,-226,-15,240,-50,364,343,422,357,335
74,193,119,-134,-23,156,-19,241,209,290,241,238
12,77,65,-45,-27,71,8,131,89,168,136,144
-26,-9,16,17,-21,4,28,48,-3,78,63,78
-46,-63,-17,55,-14,-40,49,-8,-68,22,13,27
-75,-102,-27,89,-23,-64,51,-52,-101,-6,-16,11
-80,-120,-40,100,-20,-80,47,-68,-118,-21,-29,7
-71,-120,-48,96,-12,-84,45,-74,-124,-25,-40,-1
-76,-120,-44,99,-16,-82,41,-79,-124,-25,-46,-7
-74,-120,-46,97,-14,-82,39,-76,-120,-25,-44,-14
-78,-120,-42,100,-18,-81,44,-73,-120,-25,-48,-19
-78,-117,-40,98,-19,-78,45,-71,-118,-25,-50,-20
-74,-114,-40,94,-16,-77,45,-67,-114,-25,-50,-20
-79,-115,-36,98,-21,-76,44,-65,-116,-25,-50,-20
-78,-111,-33,95,-23,-72,40,-63,-111,-25,-50,-20
-81,-110,-29,96,-26,-69,40,-60,-110,-25,-50,-21
-83,-110,-27,97,-28,-68,38,-60,-110,-25,-50,-25
-86,-105,-19,96,-33,-62,34,-57,-106,-25,-50,-27
-80,-105,-26,92,-27,-65,35,-54,-104,-29,-52,-30
-64,-105,-41,85,-11,-72,35,-56,-107,-30,-55,-34
-65,-105,-40,85,-12,-72,35,-54,-110,-33,-55,-35
-65,-104,-40,85,-12,-72,35,-58,-111,-35,-55,-39
-68,-108,-40,88,-13,-74,35,-69,-114,-36,-60,-40
-75,-115,-40,95,-17,-77,35,-81,-115,-41,-70,-43
-77,-115,-38,96,-19,-76,33,-85,-118,-46,-76,-45
-84,-118,-35,102,-24,-76,30,-85,-123,-49,-75,-46
-89,-121,-31,105,-29,-76,25,-85,-126,-54,-75,-50
-88,-117,-29,102,-29,-73,23,-85,-130,-55,-78,-50
-90,-115,-25,103,-32,-70,18,-85,-130,-56,-83,-50
-86,-111,-26,99,-30,-68,14,-85,-130,-59,-84,-50
-67,-109,-42,88,-12,-75,26,-85,-130,-61,-80,-50
-59,-105,-46,83,-6,-76,32,-85,-130,-58,-80,-47
-61,-105,-44,84,-8,-75,29,-85,-133,-55,-80,-44
-64,-109,-45,87,-9,-77,28,-84,-135,-52,-80,-41
-65,-110,-45,88,-10,-77,24,-86,-135,-50,-80,-39
-65,-110,-44,88,-11,-76,25,-90,-135,-47,-84,-34
-71,-110,-39,91,-16,-75,28,-90,-135,-44,-85,-40
-69,-110,-41,89,-14,-75,31,-90,-135,-42,-85,-51
-73,-111,-38,92,-18,-74,35,-90,-135,-39,-85,-50
-83,-118,-35,101,-24,-76,36,-90,-135,-37,-86,-49
-85,-121,-36,103,-25,-78,41,-85,-135,-33,-83,-45
-89,-120,-30,105,-29,-75,44,-74,-124,-31,-73,-46
-78,-98,-20,88,-29,-59,49,-60,-102,-28,-60,-42
-40,-49,-10,45,-15,-29,68,-46,-82,-14,-44,-22
1,0,-1,0,1,-1,69,-43,-78,9,-22,-9
10,18,8,-14,1,13,60,-45,-80,24,-13,-10
-12,-9,3,11,-7,-3,55,-45,-82,7,-29,-4
-46,-57,-11,52,-17,-33,51,-48,-92,-18,-45,-10
-73,-99,-27,86,-23,-63,44,-71,-116,-36,-66,-42
-79,-117,-39,98,-20,-78,39,-79,-121,-50,-81,-53
-77,-134,-56,106,-10,-95,33,-88,-138,-62,-89,-59
-86,-128,-42,107,-22,-85,30,-105,-132,-49,-80,-57
-84,-132,-48,109,-18,-90,31,-93,-137,-61,-94,-66
-83,-124,-41,104,-20,-82,23,-105,-142,-50,-86,-63
-87,-120,-33,104,-27,-76,28,-86,-131,-57,-91,-65
-77,-158,-81,118,2,-119,21,-81,-159,-78,-109,-83
-74,-255,-181,165,53,-218,180,237,-52,-117,-195,-183
57,12,-45,-34,51,-17,255,435,379,288,81,34
181,920,739,-551,-279,829,-244,-235,948,1180,988,867
16,879,863,-448,-424,871,-800,-1084,52,544,778,844
-134,2,136,65,-135,69,-802,-1215,-1147,-621,-162,65
-84,-169,-85,127,1,-127,-379,-490,-636,-408,-227,-113
-54,-96,-42,75,-6,-68,-48,9,-189,-146,-131,-75
-71,-98,-27,85,-22,-62,26,56,-142,-96,-108,-66
-71,-91,-20,81,-25,-55,53,101,-66,-51,-84,-57
-70,-95,-25,83,-23,-60,68,78,-81,-56,-91,-62
-70,-86,-16,78,-27,-51,70,98,-28,-23,-71,-49
-71,-92,-21,82,-25,-57,72,92,-37,-30,-76,-54
-67,-79,-12,73,-27,-45,75,99,-10,-7,-58,-43
-58,-75,-17,67,-20,-46,75,108,-4,4,-57,-41
-57,-68,-10,63,-23,-39,70,112,11,28,-45,-34
-53,-57,-4,55,-24,-30,67,129,28,38,-39,-29
-37,-38,-1,37,-18,-20,64,146,46,49,-31,-24
-27,-20,7,23,-17,-6,59,175,68,72,-13,-18
-15,-6,9,10,-12,2,56,195,93,90,8,-4
3,22,20,-13,-9,21,52,241,142,124,39,19
14,51,37,-33,-12,44,39,290,184,160,59,36
46,94,48,-70,-1,70,29,347,241,210,99,75
85,155,70,-120,7,112,4,415,314,280,160,129
120,217,97,-169,11,157,-21,471,382,341,215,179
160,294,133,-227,14,213,-46,514,440,405,279,240
191,361,171,-276,10,266,-78,531,493,466,349,303
213,411,198,-312,7,304,-99,525,513,494,391,344
211,425,214,-319,-1,319,-114,493,505,496,405,351
190,385,195,-288,-2,290,-106,422,454,455,376,328
156,308,153,-232,1,230,-66,310,332,348,277,258
87,188,101,-137,-8,144,-23,191,201,215,161,161
24,74,50,-49,-14,62,2,94,85,98,61,71
-8,7,15,0,-11,11,23,20,13,26,-7,1
-24,-41,-17,33,-3,-29,39,-34,-32,-16,-52,-44
-40,-76,-36,59,-2,-56,40,-62,-76,-50,-77,-55
-60,-95,-35,78,-12,-65,40,-73,-88,-60,-84,-59
-63,-98,-35,82,-14,-66,45,-78,-90,-65,-87,-70
-68,-103,-35,86,-16,-68,45,-75,-90,-70,-84,-70
-70,-105,-35,88,-17,-70,46,-75,-90,-70,-85,-73
-72,-105,-33,89,-19,-68,50,-75,-90,-70,-85,-76
-75,-105,-30,90,-22,-67,50,-75,-90,-70,-84,-77
-75,-105,-30,90,-22,-67,50,-75,-88,-70,-87,-81
-74,-105,-30,89,-22,-67,50,-70,-83,-72,-90,-82
-71,-100,-29,86,-21,-65,50,-70,-80,-76,-93,-87
-68,-100,-32,84,-18,-66,50,-70,-77,-75,-95,-89
-54,-99,-45,77,-4,-72,50,-70,-72,-75,-98,-91
-50,-95,-45,73,-2,-70,50,-70,-70,-75,-102,-94
-54,-95,-40,75,-6,-67,50,-72,-83,-76,-105,-95
-59,-98,-39,78,-10,-68,51,-78,-85,-80,-108,-99
-66,-100,-35,84,-16,-67,48,-81,-86,-80,-112,-100
-64,-100,-36,82,-14,-68,45,-86,-94,-80,-116,-103
-62,-104,-42,83,-10,-72,45,-89,-96,-82,-119,-105
-60,-106,-45,84,-7,-75,45,-90,-99,-86,-124,-106
-60,-105,-45,83,-7,-75,45,-94,-102,-89,-127,-110
-60,-105,-45,83,-7,-75,45,-95,-105,-92,-132,-110
-60,-105,-45,83,-7,-75,48,-97,-105,-96,-135,-114
-60,-105,-45,83,-7,-75,52,-100,-105,-99,-135,-118
-64,-105,-41,85,-11,-73,55,-103,-105,-102,-139,-123
-65,-105,-40,85,-12,-72,55,-106,-105,-105,-140,-125
-67,-107,-40,87,-13,-73,57,-109,-109,-107,-143,-125
-70,-110,-40,90,-15,-75,60,-110,-110,-111,-146,-129
-69,-110,-40,90,-15,-75,60,-105,-110,-107,-144,-132
-72,-110,-38,91,-17,-74,63,-105,-110,-104,-145,-134
-58,-110,-53,84,-2,-81,66,-104,-110,-105,-145,-138
-54,-109,-56,82,1,-82,64,-99,-109,-102,-145,-141
-56,-106,-50,81,-2,-78,66,-100,-102,-100,-145,-138
-50,-99,-49,75,-1,-74,64,-97,-96,-100,-140,-128
-54,-98,-44,76,-4,-71,67,-88,-88,-91,-132,-122
-43,-87,-44,65,1,-66,73,-80,-84,-77,-126,-112
-42,-51,-9,47,-16,-30,88,-71,-66,-68,-118,-106
-14,-4,10,9,-12,3,106,-74,-34,-64,-97,-109
14,29,15,-21,-1,21,69,-75,-22,-63,-88,-110
-10,2,12,4,-11,7,31,-74,-47,-58,-98,-111
-3,-41,-38,22,18,-39,37,-82,-74,-68,-112,-107
-13,-79,-65,46,26,-71,41,-97,-100,-100,-137,-117
-55,-111,-55,83,0,-83,46,-108,-112,-108,-147,-134
-61,-125,-64,93,2,-94,45,-105,-116,-124,-162,-145
-68,-125,-57,96,-5,-90,44,-109,-115,-117,-156,-144
-68,-130,-62,99,-3,-96,46,-99,-107,-121,-163,-153
-74,-133,-58,104,-8,-95,44,-108,-117,-121,-159,-153
-85,-124,-39,105,-23,-81,43,-92,-99,-115,-158,-157
-68,-143,-75,106,4,-109,36,-110,-133,-131,-176,-164
-61,-234,-173,148,56,-203,139,98,-80,-167,-240,-234
16,-155,-171,70,93,-163,270,392,226,27,-150,-186
141,693,551,-417,-205,622,-45,-75,890,991,736,597
32,999,967,-516,-468,983,-587,-924,470,842,893,864
-153,116,269,18,-211,193,-744,-1264,-990,-550,-130,68
-114,-219,-105,167,-4,-162,-460,-722,-867,-615,-368,-226
-71,-107,-35,89,-17,-71,-91,-102,-219,-224,-209,-162
-86,-112,-26,99,-30,-69,32,10,-153,-167,-186,-170
-68,-92,-24,81,-22,-58,55,56,-63,-95,-142,-148
-56,-103,-47,80,-4,-75,79,48,-78,-109,-160,-157
-50,-88,-38,69,-6,-62,78,48,-38,-72,-139,-139
-59,-92,-33,76,-13,-62,85,54,-36,-74,-145,-142
-56,-82,-27,69,-14,-54,84,45,-20,-54,-135,-131
-59,-75,-17,67,-21,-46,90,62,-2,-45,-129,-126
-49,-70,-21,60,-14,-45,90,79,7,-33,-108,-115
-26,-60,-34,43,4,-47,83,96,33,-12,-91,-101
-23,-49,-26,37,2,-37,76,112,45,6,-91,-90
-13,-27,-14,21,0,-20,69,141,74,29,-76,-73
-1,-8,-6,5,3,-7,61,163,100,43,-59,-63
5,12,6,-9,-1,9,54,200,137,72,-26,-41
16,30,14,-23,1,21,47,248,181,109,5,-17
41,70,28,-56,6,49,34,299,233,160,40,19
88,129,41,-109,23,85,24,366,302,219,94,69
127,190,63,-159,32,126,-5,426,371,288,155,121
151,255,104,-203,24,179,-36,477,428,358,220,182
188,321,133,-255,28,227,-70,502,482,416,283,241
211,377,167,-294,22,272,-103,501,506,454,335,290
232,407,175,-319,28,291,-110,482,503,465,362,319
233,393,160,-313,36,276,-107,418,463,431,340,308
172,313,141,-242,15,226,-77,320,360,339,268,243
100,193,93,-147,3,143,-34,201,228,212,162,142
38,82,43,-60,-3,62,3,91,105,89,50,48
2,5,3,-4,-1,4,34,17,22,11,-22,-16
-36,-49,-13,43,-11,-31,45,-33,-34,-34,-68,-58
-53,-81,-28,67,-13,-55,45,-71,-74,-72,-89,-80
-45,-90,-46,68,1,-68,45,-90,-80,-90,-84,-86
-51,-96,-45,74,-3,-70,45,-91,-80,-90,-85,-90
-50,-95,-45,73,-2,-70,45,-89,-80,-91,-85,-90
-55,-95,-40,75,-7,-67,45,-86,-80,-95,-85,-90
-55,-95,-40,75,-7,-67,45,-85,-80,-95,-85,-90
-55,-94,-39,75,-8,-66,45,-84,-80,-92,-85,-90
-56,-91,-35,74,-11,-62,46,-80,-77,-90,-85,-90
-55,-90,-35,73,-10,-62,51,-78,-74,-90,-85,-90
-54,-89,-35,72,-9,-62,50,-75,-71,-86,-85,-90
-50,-85,-35,68,-7,-60,46,-72,-68,-85,-85,-90
-50,-85,-35,68,-7,-60,45,-70,-65,-86,-85,-90
-48,-87,-40,68,-4,-63,40,-71,-66,-91,-90,-90
-50,-91,-41,70,-5,-66,41,-70,-71,-98,-93,-89
-50,-90,-40,70,-5,-65,46,-72,-74,-103,-98,-98
-54,-94,-40,74,-6,-67,45,-81,-79,-105,-100,-106
-56,-95,-40,75,-7,-67,45,-88,-80,-106,-100,-105
-55,-95,-40,75,-7,-67,45,-91,-80,-110,-105,-105
-64,-100,-36,82,-14,-68,45,-96,-80,-110,-110,-105
-65,-100,-35,83,-15,-67,46,-99,-80,-117,-113,-104
-66,-100,-35,83,-15,-67,49,-103,-80,-128,-118,-107
-69,-100,-31,85,-19,-65,50,-105,-80,-130,-120,-109
-71,-100,-29,86,-21,-65,50,-106,-92,-130,-119,-114
-66,-97,-32,82,-17,-64,50,-111,-96,-130,-115,-120
-59,-94,-35,77,-12,-65,50,-110,-94,-130,-115,-120
-60,-95,-35,78,-12,-65,50,-110,-95,-129,-115,-120
-56,-91,-35,74,-10,-63,50,-106,-95,-126,-115,-120
-55,-90,-35,73,-10,-62,50,-105,-95,-123,-115,-120
-54,-89,-35,72,-10,-62,50,-105,-90,-121,-117,-120
-55,-86,-31,71,-11,-58,50,-101,-90,-117,-120,-120
-53,-83,-30,68,-11,-56,51,-100,-91,-116,-120,-121
-51,-82,-30,66,-10,-56,55,-100,-90,-113,-120,-120
-51,-77,-25,64,-13,-51,55,-99,-90,-106,-121,-121
-51,-76,-25,64,-12,-51,56,-101,-87,-100,-119,-119
-45,-68,-23,57,-10,-46,54,-94,-77,-95,-114,-114
-30,-30,0,30,-14,-15,60,-72,-68,-90,-98,-98
-23,-2,21,12,-22,9,79,-64,-45,-71,-75,-75
0,38,38,-19,-19,38,78,-65,-23,-42,-67,-67
19,44,25,-32,-4,34,39,-65,-40,-40,-72,-72
14,-2,-16,-6,15,-9,18,-65,-50,-68,-68,-68
5,-31,-36,14,20,-33,20,-72,-63,-89,-73,-74
-30,-66,-36,48,3,-51,22,-99,-86,-100,-92,-91
-60,-92,-32,76,-13,-62,41,-103,-88,-109,-105,-108
-61,-102,-41,81,-10,-71,36,-119,-114,-121,-111,-112
-63,-99,-36,81,-13,-67,31,-121,-104,-121,-110,-107
-60,-111,-50,86,-5,-80,28,-117,-116,-131,-118,-120
-62,-104,-42,84,-10,-73,21,-126,-110,-117,-103,-109
-62,-113,-51,88,-5,-82,20,-114,-116,-132,-115,-120
-52,-150,-98,101,23,-124,51,-62,-118,-142,-145,-147
-37,-233,-196,135,80,-214,260,338,52,-151,-224,-241
135,234,99,-185,18,167,179,338,616,479,274,174
206,1076,870,-641,-332,973,-444,-511,950,1164,1067,951
-17,686,703,-335,-360,694,-900,-1268,-319,120,506,613
-99,-67,33,83,-66,-17,-753,-1132,-1103,-720,-261,-67
-42,-104,-62,73,10,-82,-275,-337,-395,-345,-196,-124
-49,-82,-33,66,-8,-57,-14,-6,-126,-191,-140,-110
-49,-66,-17,57,-16,-42,25,30,-62,-128,-106,-96
-50,-71,-21,60,-15,-46,60,80,-21,-111,-101,-98
-51,-72,-21,61,-15,-46,64,56,-21,-99,-99,-95
-43,-67,-24,55,-10,-45,65,81,25,-76,-87,-89
-42,-73,-32,58,-5,-52,67,70,15,-75,-89,-92
-41,-60,-19,50,-10,-39,70,77,45,-51,-77,-82
-38,-58,-20,48,-9,-39,70,85,50,-49,-72,-81
-35,-44,-9,39,-12,-26,70,108,76,-25,-52,-71
-23,-30,-7,27,-7,-19,70,121,85,-14,-43,-68
-12,-13,0,13,-6,-6,70,136,108,9,-25,-61
-7,-1,6,3,-6,2,70,169,139,33,-14,-42
4,16,12,-10,-4,14,70,199,169,52,9,-18
25,45,20,-35,2,32,68,250,210,80,40,6
52,76,24,-64,13,50,55,302,255,125,68,38
72,123,51,-98,11,87,37,367,307,176,120,76
111,183,72,-147,19,127,20,430,373,239,175,123
152,250,98,-201,27,174,-4,488,448,315,244,187
183,319,136,-251,23,227,-35,534,508,381,306,246
217,382,164,-300,26,273,-65,529,548,435,360,303
231,427,196,-329,17,311,-91,512,556,456,414,345
227,426,199,-327,14,312,-97,488,540,449,407,348
206,383,177,-294,14,280,-83,405,474,397,362,317
154,293,140,-224,7,216,-53,284,345,279,272,233
84,168,84,-126,0,125,-13,165,214,150,156,135
28,64,36,-46,-4,50,21,72,108,49,65,57
-1,-1,0,1,0,0,36,8,38,-21,3,-7
-26,-48,-22,37,-2,-35,43,-39,-9,-67,-33,-38
-33,-71,-38,52,3,-54,45,-68,-33,-85,-52,-48
-27,-79,-53,53,13,-66,45,-74,-37,-86,-51,-56
-34,-90,-55,62,11,-72,50,-76,-41,-90,-50,-55
-35,-90,-55,63,10,-72,50,-80,-40,-92,-50,-55
-35,-91,-55,63,10,-72,51,-78,-40,-96,-50,-55
-40,-94,-55,68,8,-74,55,-73,-40,-92,-50,-55
-40,-96,-56,68,8,-76,55,-70,-40,-89,-51,-58
-34,-94,-59,64,13,-76,55,-67,-40,-90,-55,-62
-29,-90,-60,60,16,-75,55,-62,-35,-86,-55,-65
-31,-90,-60,61,14,-75,55,-60,-35,-84,-55,-68
-27,-88,-60,57,17,-74,52,-65,-35,-86,-55,-72
-25,-85,-60,55,18,-72,49,-65,-35,-89,-55,-75
-25,-85,-60,55,18,-72,46,-65,-35,-92,-59,-75
-29,-89,-60,59,16,-74,43,-65,-37,-94,-60,-75
-30,-91,-60,60,15,-75,41,-65,-42,-98,-63,-75
-25,-90,-65,58,20,-77,38,-67,-43,-100,-65,-75
-30,-95,-65,63,18,-80,36,-71,-49,-103,-66,-80
-28,-95,-66,62,20,-80,32,-73,-49,-107,-72,-89
-26,-96,-70,61,22,-83,30,-76,-52,-112,-79,-96
-30,-100,-70,65,20,-86,26,-82,-64,-115,-83,-101
-32,-99,-67,66,18,-83,24,-87,-66,-110,-86,-105
-38,-103,-64,71,13,-83,34,-83,-64,-110,-89,-105
-40,-105,-65,73,13,-85,36,-88,-61,-109,-92,-105
-44,-105,-61,75,9,-83,35,-104,-59,-105,-95,-105
-41,-101,-60,71,9,-81,35,-105,-60,-105,-94,-105
-40,-99,-59,70,10,-79,35,-100,-60,-107,-90,-109
-44,-100,-56,73,6,-77,35,-99,-60,-110,-90,-110
-42,-95,-53,69,6,-74,30,-95,-60,-111,-90,-110
-45,-95,-50,70,3,-72,31,-93,-60,-115,-90,-110
-47,-95,-48,71,1,-71,28,-91,-60,-115,-90,-110
-52,-95,-44,74,-3,-70,25,-87,-57,-111,-87,-109
-44,-95,-51,70,4,-73,25,-85,-53,-110,-80,-103
-32,-95,-63,64,16,-78,28,-80,-50,-109,-76,-96
-29,-103,-74,66,23,-88,38,-80,-46,-111,-69,-89
-3,-72,-69,38,33,-70,45,-74,-44,-104,-64,-82
-7,-41,-35,24,14,-38,64,-51,-27,-79,-58,-76
-9,-19,-10,14,1,-14,64,-43,-12,-63,-38,-78
41,29,-12,-35,26,8,49,-29,-5,-62,-28,-81
60,6,-54,-33,57,-24,45,-49,-9,-55,-43,-85
37,-43,-80,3,59,-61,37,-83,-25,-60,-66,-87
7,-74,-81,34,44,-77,31,-87,-48,-96,-84,-93
-24,-102,-78,63,28,-90,23,-100,-59,-111,-91,-105
-32,-114,-82,73,25,-98,20,-99,-70,-130,-105,-118
-40,-119,-79,79,20,-99,13,-103,-74,-128,-101,-112
-46,-126,-80,86,17,-102,14,-98,-73,-131,-104,-116
-29,-118,-90,74,31,-104,5,-124,-81,-127,-99,-116
-35,-111,-76,73,21,-93,8,-95,-64,-121,-93,-111
-36,-137,-101,87,33,-119,21,-93,-93,-135,-107,-128
-36,-237,-201,137,82,-219,155,147,-20,-172,-204,-221
61,-105,-166,22,114,-136,280,441,334,79,-58,-119
218,761,543,-490,-163,651,-103,-78,977,1010,831,675
90,980,889,-535,-400,934,-678,-941,409,732,898,886
-96,104,200,-4,-148,152,-814,-1277,-987,-583,-82,104
-76,-206,-130,141,27,-168,-457,-676,-739,-575,-294,-182
-24,-109,-85,67,31,-96,-80,-54,-143,-223,-151,-130
-14,-110,-96,62,41,-103,19,22,-89,-176,-129,-134
-26,-100,-74,63,24,-86,58,77,2,-115,-94,-116
-27,-106,-80,67,27,-93,73,66,-14,-116,-107,-125
-32,-96,-64,64,16,-80,69,74,32,-78,-88,-109
-38,-102,-64,71,13,-83,71,78,26,-87,-91,-113
-34,-93,-59,64,13,-76,68,70,51,-71,-80,-103
-29,-88,-60,59,16,-74,79,85,73,-67,-78,-101
-23,-84,-61,53,19,-72,80,96,72,-48,-68,-96
-16,-75,-59,45,22,-67,73,106,91,-26,-56,-91
-2,-63,-61,33,29,-61,70,116,102,-18,-49,-85
7,-47,-54,20,31,-50,64,150,130,3,-34,-58
19,-30,-49,5,34,-39,61,172,154,21,-20,-40
40,-3,-43,-18,42,-23,67,210,193,48,4,-29
69,34,-35,-52,52,-1,61,259,241,85,31,-12
95,76,-19,-85,57,28,46,313,291,131,68,24
109,125,16,-117,46,70,29,371,353,184,121,74
144,194,50,-169,47,122,5,434,422,255,182,128
188,265,76,-226,56,170,-25,487,486,329,249,186
212,325,113,-269,49,219,-57,512,534,389,316,246
244,380,136,-312,53,258,-82,517,552,427,365,301
250,402,152,-326,49,277,-98,485,546,425,381,312
226,384,158,-305,34,270,-85,417,507,394,356,295
198,318,120,-258,39,219,-46,314,399,302,275,230
132,196,65,-164,33,130,3,195,268,169,163,125
69,82,13,-76,28,47,50,101,156,59,66,45
25,-5,-31,-10,28,-18,78,22,69,-31,-10,-31
-6,-63,-57,34,26,-59,95,-39,14,-85,-63,-83
-8,-85,-77,47,34,-81,102,-74,-28,-118,-93,-99
-22,-102,-80,62,29,-91,103,-89,-38,-136,-101,-111
-26,-106,-80,66,28,-92,108,-99,-35,-134,-100,-116
-24,-106,-81,65,29,-93,110,-102,-35,-135,-99,-121
-28,-111,-83,69,28,-97,115,-97,-32,-135,-96,-124
-11,-109,-99,60,44,-104,115,-96,-29,-135,-94,-129
-9,-110,-101,60,46,-105,115,-92,-32,-133,-98,-130
-11,-110,-99,60,44,-105,115,-90,-45,-130,-113,-130
-14,-110,-96,62,41,-102,114,-88,-45,-130,-116,-130
-16,-110,-95,64,39,-102,118,-84,-41,-130,-114,-130
-15,-109,-95,62,40,-102,120,-82,-39,-130,-116,-131
-26,-112,-86,69,30,-99,120,-79,-35,-131,-114,-135
-19,-116,-97,67,40,-106,123,-77,-35,-134,-117,-135
-15,-115,-101,65,44,-108,126,-74,-35,-139,-119,-138
-18,-114,-96,66,40,-105,124,-78,-49,-143,-123,-140
-17,-111,-94,65,38,-102,121,-89,-57,-146,-125,-140
-17,-109,-91,63,37,-100,118,-91,-54,-149,-126,-143
-25,-114,-88,70,32,-101,116,-88,-56,-152,-124,-147
-33,-121,-88,77,27,-104,112,-94,-54,-156,-128,-152
-16,-120,-104,68,44,-112,110,-104,-56,-159,-140,-155
-15,-120,-105,68,45,-112,110,-108,-59,-162,-140,-157
-20,-120,-100,70,40,-110,110,-111,-62,-164,-139,-160
-21,-120,-99,70,39,-109,110,-116,-66,-168,-141,-163
-25,-120,-95,73,35,-107,110,-119,-69,-170,-139,-165
-26,-120,-94,73,34,-106,110,-122,-70,-170,-141,-165
-31,-120,-90,76,29,-105,110,-125,-70,-174,-147,-165
-29,-120,-91,74,31,-105,111,-123,-70,-176,-148,-166
-33,-121,-88,77,27,-104,109,-115,-70,-174,-142,-164
-34,-119,-85,77,25,-101,112,-109,-69,-169,-139,-158
-33,-118,-85,76,26,-101,107,-102,-70,-162,-136,-151
-30,-112,-82,71,26,-96,120,-96,-61,-156,-131,-144
-22,-101,-79,62,28,-90,130,-90,-48,-149,-129,-137
18,-63,-82,23,50,-72,135,-86,-42,-147,-112,-131
57,-20,-77,-18,67,-49,144,-85,-45,-150,-108,-133
50,-35,-85,-7,68,-60,104,-85,-50,-151,-111,-138
45,-63,-108,9,76,-85,91,-93,-47,-154,-108,-139
6,-91,-96,43,51,-93,99,-124,-70,-157,-127,-154
-32,-109,-77,71,23,-93,93,-136,-74,-156,-132,-169
-46,-127,-81,86,18,-104,97,-137,-87,-171,-144,-176
-60,-124,-64,92,2,-94,94,-140,-86,-161,-142,-165
-65,-131,-67,98,1,-99,96,-127,-79,-169,-149,-174
-79,-133,-54,107,-13,-93,94,-137,-85,-162,-142,-167
-63,-129,-67,96,3,-98,95,-117,-62,-164,-144,-169
-39,-159,-120,99,41,-139,106,-116,-91,-175,-159,-189
-34,-253,-219,144,93,-236,232,168,-3,-220,-253,-284
69,-34,-103,-17,86,-69,290,351,382,137,-11,-108
174,867,693,-520,-260,780,-99,-280,964,1078,910,729
3,833,830,-418,-414,831,-586,-1083,176,494,703,687
-145,-59,85,102,-115,13,-659,-1246,-1114,-762,-275,-103
-70,-196,-126,133,28,-161,-332,-597,-670,-556,-310,-228
-36,-115,-79,76,21,-96,2,-82,-156,-254,-183,-192
-50,-122,-72,86,11,-97,95,-21,-109,-199,-156,-175
-47,-104,-58,76,6,-81,107,37,-23,-147,-123,-181
-37,-104,-67,71,15,-85,111,35,-40,-149,-137,-144
-51,-104,-53,78,1,-79,111,42,6,-110,-123,-184
-20,-78,-58,50,19,-68,112,41,-10,-117,-117,-111
-53,-103,-51,78,-1,-77,105,44,19,-91,-115,-189
-39,-52,-13,46,-13,-33,104,47,27,-87,-80,-81
-102,-96,7,99,-54,-44,99,46,38,-71,-198,380
-9,-35,-26,22,9,-30,95,68,63,-62,-201,93
72,-42,-114,-15,94,-78,97,81,76,-36,2,-79
-87,-278,-191,183,52,-234,104,74,113,-86,1,69
