I,II,III,aVR,aVL,aVF,V1,V2,V3,V4,V5,V6
-258,-255,2,256,-129,-126,946,-4157,-646,252,82,-248
-257,-259,-1,258,-128,-130,942,-4158,-646,268,99,-244
-264,-276,-12,270,-126,-144,933,-4148,-628,266,95,-233
-263,-283,-20,274,-121,-151,933,-4129,-627,244,70,-243
-239,-269,-31,254,-104,-150,926,-4082,-577,260,86,-218
-175,-217,-42,196,-66,-130,966,-3840,-328,380,176,-174
186,310,124,-249,31,217,645,-4151,-369,717,682,410
482,559,77,-520,202,318,264,-4706,-673,680,868,725
-63,-140,-77,102,7,-108,542,-4674,-943,109,160,-45
-419,-392,27,405,-223,-182,817,-4321,-811,80,-44,-365
-338,-280,58,309,-198,-111,851,-4054,-555,239,106,-242
-348,-318,30,332,-189,-143,892,-4010,-543,202,59,-278
-306,-279,27,292,-166,-126,865,-3967,-495,231,84,-248
-318,-288,31,303,-174,-128,867,-3936,-490,214,62,-265
-317,-276,41,296,-179,-117,847,-3936,-481,222,62,-250
-297,-264,33,280,-165,-115,842,-3925,-480,222,59,-257
-307,-271,36,289,-172,-117,824,-3929,-470,209,39,-251
-299,-265,34,282,-166,-115,801,-3920,-497,202,27,-258
-268,-233,35,250,-151,-99,826,-3919,-493,230,58,-275
-257,-222,35,239,-146,-93,801,-3908,-497,222,53,-267
-267,-234,33,251,-150,-101,779,-3896,-594,203,34,-270
-296,-269,26,282,-161,-121,773,-3949,-521,204,40,-263
-285,-264,21,274,-153,-121,759,-4008,-470,191,29,-266
-257,-240,17,248,-136,-112,750,-4002,-472,190,31,-262
-247,-239,8,243,-128,-115,749,-3992,-443,177,23,-257
-237,-230,7,233,-122,-111,742,-3977,-431,199,23,-255
-202,-205,-3,203,-99,-104,743,-3937,-404,208,16,-250
-243,-232,11,237,-127,-110,736,-3855,-390,203,17,-247
-247,-227,19,237,-133,-104,713,-3765,-358,232,45,-243
-187,-203,-15,195,-86,-109,695,-3694,-342,236,58,-235
-182,-203,-22,192,-80,-112,689,-3655,-335,234,58,-227
-115,-134,-19,124,-48,-76,828,-3622,-331,235,67,-217
-112,-134,-21,123,-45,-78,950,-3616,-336,227,79,-218
-133,-152,-19,143,-57,-85,990,-3598,-334,221,73,-220
-160,-182,-21,171,-69,-101,1000,-3594,-342,214,63,-220
-155,-170,-15,163,-70,-93,929,-3592,-337,207,57,-225
-177,-183,-7,180,-85,-95,869,-3532,-342,201,48,-225
-217,-219,-2,218,-107,-111,817,-3694,-370,195,42,-225
-180,-170,10,174,-95,-80,766,-3822,-370,187,34,-225
-228,-231,-4,230,-112,-118,690,-3778,-366,180,27,-225
-225,-262,-38,244,-94,-150,629,-3782,-364,173,19,-225
-195,-235,-40,215,-77,-138,593,-3752,-360,165,12,-225
-208,-248,-39,228,-84,-143,561,-3718,-360,159,18,-225
-225,-269,-44,247,-90,-156,554,-3670,-354,155,21,-221
-217,-262,-45,240,-86,-153,547,-3626,-353,151,20,-219
-196,-241,-45,219,-76,-143,540,-3598,-345,149,16,-220
-244,-282,-38,264,-103,-160,532,-3572,-349,143,15,-215
-265,-292,-27,279,-119,-159,525,-3508,-334,155,15,-215
-261,-279,-18,271,-121,-148,518,-3423,-361,170,-1,-214
-263,-269,-7,266,-128,-138,509,-3377,-431,163,-20,-210
-245,-244,1,244,-123,-121,502,-3332,-399,159,-29,-210
-234,-223,11,228,-122,-106,494,-3272,-368,152,-23,-205
-226,-207,19,217,-122,-94,487,-3208,-369,147,-16,-206
-230,-199,31,214,-130,-84,478,-3166,-351,142,-10,-187
-208,-147,61,177,-134,-43,473,-3104,-328,159,0,-144
-208,-125,82,166,-145,-21,465,-3038,-316,178,7,-133
-197,-99,98,148,-148,-1,449,-2985,-293,175,18,-129
-180,-96,84,137,-131,-6,423,-2955,-291,190,15,-125
-189,-140,49,164,-119,-45,385,-2921,-320,190,5,-147
-125,-98,27,111,-75,-35,373,-2834,-303,171,-5,-159
-108,-110,-3,109,-52,-56,375,-2773,-292,162,-15,-152
-136,-154,-18,145,-59,-86,375,-2732,-295,148,-20,-155
-166,-189,-23,177,-71,-106,374,-2677,-296,138,-29,-147
-212,-244,-32,228,-90,-138,376,-2600,-292,127,-41,-152
-220,-260,-41,240,-89,-150,374,-2544,-300,120,-51,-160
-214,-284,-70,249,-72,-176,375,-2480,-289,116,-58,-160
-199,-274,-76,237,-61,-175,376,-2435,-301,104,-54,-153
-163,-255,-92,210,-35,-173,372,-2361,-289,106,-37,-132
-189,-266,-77,228,-56,-171,380,-2302,-298,88,-47,-143
-159,-259,-100,209,-29,-179,368,-2223,-320,109,-30,-117
-91,-223,-132,158,20,-177,389,-1934,-157,244,57,-61
303,337,34,-320,134,185,67,-2166,-163,595,578,527
587,573,-14,-580,300,279,-299,-2708,-466,558,758,837
19,-139,-158,61,89,-149,-8,-2690,-778,-8,37,66
-246,-350,-104,299,-71,-227,272,-2339,-681,-55,-178,-231
-175,-274,-99,225,-38,-186,315,-2040,-450,110,-68,-105
-237,-327,-90,282,-73,-208,387,-1943,-448,90,-116,-154
-208,-292,-84,250,-62,-188,388,-1901,-407,110,-76,-144
-241,-322,-81,282,-80,-202,388,-1862,-404,89,-95,-170
-200,-271,-71,236,-64,-171,384,-1828,-379,94,-77,-154
-167,-238,-71,203,-48,-154,381,-1773,-344,86,-81,-162
-181,-243,-63,213,-59,-153,381,-1711,-342,81,-81,-161
-196,-263,-67,230,-64,-165,375,-1653,-328,81,-88,-157
-201,-263,-62,232,-70,-162,372,-1613,-325,78,-99,-157
-185,-245,-60,215,-63,-152,366,-1566,-314,78,-92,-150
-179,-239,-60,209,-59,-149,362,-1525,-309,73,-97,-152
-172,-235,-63,204,-54,-149,358,-1479,-299,75,-93,-145
-155,-223,-68,189,-43,-145,351,-1429,-292,70,-96,-145
-165,-236,-71,201,-47,-153,357,-1383,-284,60,-90,-141
-173,-249,-76,212,-48,-163,370,-1347,-276,72,-86,-137
-165,-238,-73,202,-46,-155,363,-1316,-265,97,-84,-135
-171,-252,-82,212,-44,-167,355,-1269,-252,94,-79,-130
-134,-230,-96,182,-18,-163,351,-1213,-234,91,-76,-127
-109,-204,-95,157,-7,-149,340,-1168,-212,90,-72,-124
-115,-210,-95,163,-10,-152,347,-1130,-206,95,-62,-118
-81,-176,-95,129,7,-135,339,-1097,-198,123,-53,-112
-50,-146,-95,99,23,-120,316,-1059,-193,132,-54,-107
-57,-149,-93,103,18,-121,328,-1031,-185,126,-56,-101
-52,-141,-89,97,19,-115,337,-1018,-169,124,-54,-96
-72,-162,-90,117,10,-126,333,-1004,-197,121,-56,-98
-53,-143,-90,98,19,-116,332,-989,-223,120,-53,-101
-72,-162,-90,117,9,-126,328,-976,-217,109,-60,-99
-129,-219,-90,174,-19,-154,331,-962,-217,91,-75,-100
-109,-205,-95,157,-7,-150,329,-950,-213,78,-75,-99
-107,-210,-103,159,-2,-156,330,-932,-210,74,-78,-101
-96,-200,-105,149,5,-153,330,-908,-209,72,-81,-105
-109,-215,-106,162,-1,-161,329,-881,-203,69,-81,-105
-133,-243,-110,188,-11,-177,345,-852,-197,66,-87,-107
-127,-237,-110,182,-8,-173,351,-822,-192,64,-95,-110
-117,-222,-105,170,-6,-163,346,-793,-186,60,-95,-110
-120,-225,-105,173,-7,-165,344,-776,-182,60,-91,-107
-160,-263,-104,212,-28,-183,340,-758,-174,59,-88,-104
-157,-256,-100,206,-28,-178,339,-736,-160,55,-85,-105
-147,-247,-100,197,-23,-174,335,-717,-152,54,-84,-105
-141,-238,-97,189,-22,-167,329,-698,-146,58,-79,-105
-130,-218,-88,174,-21,-153,326,-687,-139,60,-73,-104
-136,-215,-79,176,-28,-147,321,-673,-132,59,-70,-91
-94,-166,-72,130,-11,-118,317,-652,-126,61,-65,-76
-83,-130,-47,107,-17,-88,312,-631,-120,73,-61,-65
-89,-110,-21,100,-34,-65,308,-614,-111,94,-56,-55
-62,-81,-19,71,-21,-49,302,-609,-106,102,-49,-44
-69,-91,-22,80,-23,-56,298,-605,-102,110,-46,-38
-54,-78,-24,66,-15,-50,294,-603,-120,110,-38,-40
-43,-95,-53,69,6,-74,288,-596,-137,110,-35,-40
-35,-111,-77,73,21,-94,288,-596,-133,107,-26,-42
-30,-124,-94,77,32,-108,277,-588,-144,70,-28,-45
-93,-193,-100,143,4,-146,289,-581,-166,61,-52,-45
-96,-194,-99,145,2,-146,318,-573,-168,67,-55,-55
-81,-197,-116,139,18,-156,341,-561,-188,50,-74,-75
-72,-191,-119,131,24,-154,358,-560,-197,48,-72,-65
-77,-201,-124,139,24,-162,369,-536,-183,33,-78,-69
-74,-186,-112,130,19,-149,362,-544,-201,31,-72,-61
-80,-202,-122,141,21,-161,366,-497,-168,32,-76,-61
-106,-237,-131,172,12,-183,379,-504,-210,26,-75,-63
-48,-236,-188,143,70,-212,406,-334,-77,67,-48,-72
73,-26,-99,-23,86,-62,369,-186,123,294,183,169
535,649,114,-592,210,382,-37,-659,0,682,824,926
491,451,-40,-471,265,205,-162,-1039,-349,368,605,773
-92,-262,-170,178,39,-216,195,-928,-620,-173,-139,-59
-111,-242,-131,177,10,-186,338,-593,-381,-43,-113,-95
-75,-221,-147,148,37,-184,384,-418,-224,38,-55,-47
-103,-231,-128,167,13,-179,400,-411,-264,19,-70,-87
-89,-218,-129,154,21,-173,395,-370,-223,34,-49,-64
-107,-231,-125,170,10,-178,404,-377,-241,10,-69,-84
-97,-220,-123,159,13,-171,389,-361,-218,20,-46,-63
-96,-227,-131,162,18,-178,393,-348,-221,2,-62,-75
-78,-212,-134,146,28,-173,383,-319,-214,10,-48,-68
-118,-250,-132,184,7,-191,381,-303,-209,9,-52,-76
-83,-210,-126,147,22,-168,376,-301,-210,10,-50,-75
-55,-180,-124,118,35,-152,371,-282,-201,14,-45,-74
-71,-190,-119,130,25,-154,367,-263,-202,14,-46,-76
-60,-180,-120,120,30,-150,362,-242,-194,16,-43,-73
-54,-189,-135,121,41,-162,358,-223,-187,19,-43,-73
-59,-201,-142,130,42,-171,353,-193,-177,21,-37,-68
-93,-228,-135,161,22,-182,345,-176,-169,19,-47,-67
-83,-218,-135,151,26,-176,336,-166,-158,22,-46,-63
-44,-174,-130,109,43,-152,328,-151,-145,26,-19,-61
-31,-162,-131,97,50,-146,318,-135,-135,30,-8,-59
-17,-153,-136,85,60,-144,310,-129,-130,35,-2,-53
-7,-142,-135,75,64,-138,302,-130,-124,40,9,-47
-1,-136,-135,69,67,-136,296,-127,-120,42,13,-43
6,-129,-135,62,71,-131,288,-124,-112,54,23,-36
13,-123,-136,55,74,-129,280,-126,-111,68,38,-31
21,-112,-133,46,78,-123,274,-127,-109,60,35,-33
18,-103,-121,43,70,-111,266,-135,-109,50,27,-36
14,-92,-106,39,60,-99,259,-157,-127,40,22,-34
11,-83,-94,36,53,-88,252,-174,-144,24,14,-36
4,-75,-79,36,41,-77,243,-188,-159,8,9,-44
-9,-67,-58,38,25,-62,238,-194,-170,-7,4,-53
-25,-60,-34,43,5,-47,223,-190,-187,-17,-2,-67
-40,-52,-12,46,-14,-32,197,-190,-200,-30,-5,-77
-43,-43,0,43,-21,-22,185,-188,-208,-38,-10,-84
-43,-32,11,37,-26,-10,178,-185,-219,-49,-14,-90
-42,-23,19,32,-30,-2,169,-185,-221,-61,-18,-100
-37,-1,36,19,-36,17,163,-185,-225,-63,-33,-110
-44,32,76,6,-60,54,152,-185,-227,-71,-46,-114
-56,49,105,4,-81,76,136,-185,-239,-80,-54,-126
-60,66,125,-3,-93,95,120,-185,-250,-87,-56,-131
-71,79,150,-5,-111,114,108,-185,-249,-95,-54,-129
-85,82,167,1,-126,124,96,-185,-250,-98,-55,-134
-78,93,171,-7,-125,132,85,-179,-249,-104,-55,-135
-48,133,181,-43,-115,157,75,-173,-251,-110,-54,-135
-34,150,184,-58,-109,167,67,-165,-247,-100,-49,-130
-37,174,211,-68,-124,193,62,-160,-245,-95,-44,-122
-15,259,274,-122,-145,266,52,-149,-241,-87,-39,-116
1,307,305,-154,-152,306,47,-135,-240,-81,-35,-109
40,343,303,-192,-132,323,37,-108,-235,-80,-31,-103
41,335,294,-189,-127,314,31,-106,-235,-78,-32,-98
30,315,285,-173,-128,300,11,-139,-264,-104,-44,-111
82,357,275,-219,-97,316,31,-138,-276,-112,-48,-127
82,353,271,-217,-95,312,67,-135,-276,-118,-57,-126
65,330,265,-198,-101,297,17,-129,-271,-132,-69,-131
43,308,265,-176,-112,287,21,-129,-285,-137,-73,-137
19,276,257,-147,-119,266,58,-120,-301,-158,-88,-156
17,274,258,-146,-121,266,10,-117,-309,-161,-83,-162
15,266,251,-141,-118,258,-70,-97,-301,-157,-76,-156
8,254,246,-132,-119,250,-135,-90,-308,-164,-81,-169
14,257,243,-136,-115,250,-227,-68,-304,-154,-64,-157
8,236,229,-122,-111,233,-298,-44,-301,-166,-77,-176
21,262,241,-142,-110,251,-331,-26,-298,-144,-55,-154
58,249,192,-153,-67,220,-334,242,-81,-58,-13,-127
390,720,331,-555,29,525,-610,66,-17,274,438,384
775,1134,359,-955,208,747,-1044,-556,-307,370,791,880
339,482,144,-411,97,313,-863,-695,-662,-208,135,197
-56,164,219,-54,-138,191,-545,-394,-630,-360,-232,-260
51,314,263,-183,-106,288,-480,-105,-357,-167,-86,-127
42,261,219,-151,-89,240,-418,-58,-329,-187,-109,-167
52,283,232,-168,-90,257,-412,-38,-298,-160,-77,-140
44,259,216,-152,-86,237,-392,-21,-284,-175,-89,-154
35,259,223,-147,-94,241,-383,-22,-289,-169,-80,-150
39,252,213,-146,-87,232,-375,-5,-274,-169,-74,-148
26,242,216,-134,-96,229,-374,-3,-280,-172,-79,-150
28,249,221,-139,-97,234,-372,11,-266,-162,-77,-140
21,240,219,-130,-99,229,-369,27,-269,-168,-83,-149
22,243,221,-132,-100,232,-372,48,-259,-161,-78,-142
23,238,215,-131,-96,226,-412,57,-257,-161,-81,-147
26,241,215,-134,-95,228,-550,64,-252,-159,-81,-144
25,239,214,-133,-95,226,-664,67,-247,-160,-86,-145
25,240,215,-133,-95,227,-715,85,-244,-160,-85,-145
25,240,215,-133,-95,227,-755,103,-235,-160,-85,-145
25,239,214,-132,-95,226,-788,123,-225,-160,-85,-145
23,251,228,-137,-103,239,-809,153,-214,-160,-85,-145
33,269,236,-151,-102,252,-813,179,-206,-160,-83,-141
38,272,234,-155,-99,253,-814,210,-201,-155,-76,-135
43,278,235,-161,-97,256,-837,227,-196,-149,-71,-130
69,304,235,-187,-83,269,-878,249,-193,-145,-66,-124
82,316,234,-200,-77,275,-902,252,-187,-141,-59,-118
83,319,236,-202,-76,277,-921,215,-186,-135,-56,-116
89,323,234,-207,-73,278,-949,182,-190,-137,-59,-120
85,320,235,-203,-75,277,-954,163,-193,-140,-62,-120
43,293,250,-169,-104,271,-944,153,-194,-148,-65,-120
0,255,254,-128,-127,254,-939,144,-201,-154,-67,-120
-7,240,247,-117,-127,243,-932,137,-212,-158,-74,-120
-13,230,243,-109,-128,237,-925,110,-209,-166,-81,-120
-6,234,240,-114,-123,237,-921,80,-210,-170,-85,-119
-19,215,233,-99,-126,224,-909,80,-226,-180,-99,-137
-15,227,242,-106,-129,235,-905,80,-228,-187,-107,-147
-13,200,213,-94,-114,207,-889,80,-218,-183,-103,-144
-30,223,253,-97,-142,238,-878,80,-213,-188,-108,-146
-13,282,295,-134,-155,288,-898,80,-205,-203,-119,-145
-33,173,206,-70,-120,189,-890,85,-201,-201,-115,-145
-32,209,240,-89,-136,224,-872,93,-188,-194,-107,-138
-27,244,271,-109,-149,257,-854,115,-165,-190,-101,-130
-34,198,232,-82,-133,215,-830,135,-138,-183,-94,-122
-29,197,226,-84,-128,212,-815,172,-113,-179,-89,-114
-18,164,183,-73,-100,173,-789,222,-90,-170,-78,-106
18,172,153,-95,-68,162,-770,258,-67,-160,-65,-95
21,170,149,-96,-64,159,-764,289,-50,-150,-55,-83
2,167,165,-85,-81,165,-759,315,-35,-140,-45,-69
-1,180,180,-90,-91,180,-754,354,-8,-129,-35,-54
32,215,183,-124,-76,199,-747,406,25,-105,-25,-43
53,229,176,-141,-62,202,-745,451,58,-84,-19,-39
54,222,168,-138,-58,195,-744,477,86,-77,-21,-37
63,226,163,-145,-51,195,-745,475,81,-100,-17,-33
70,225,155,-148,-43,190,-752,493,88,-118,-15,-31
58,211,154,-135,-49,182,-748,505,96,-113,-15,-30
23,170,148,-97,-63,159,-737,506,96,-120,-18,-29
3,150,146,-77,-72,148,-726,509,93,-133,-28,-39
4,145,141,-75,-69,143,-719,510,97,-143,-38,-55
-13,125,138,-56,-76,131,-704,515,93,-157,-59,-64
-10,126,136,-59,-73,131,-701,517,100,-156,-50,-52
-16,109,125,-46,-71,116,-681,533,117,-169,-61,-58
-18,112,130,-47,-75,121,-676,541,113,-165,-55,-45
9,121,112,-65,-52,116,-654,579,155,-154,-65,-49
13,140,127,-77,-57,133,-636,559,143,-149,-48,-41
13,99,86,-56,-37,92,-600,755,314,-109,-6,-59
176,326,150,-251,13,237,-637,839,497,122,225,198
675,944,269,-810,203,606,-1080,327,333,434,786,895
561,637,76,-599,243,356,-1169,3,-37,52,468,633
-19,31,51,-6,-35,41,-775,175,-217,-372,-176,-102
-44,103,148,-30,-96,125,-638,526,66,-201,-82,-85
-17,84,101,-34,-59,92,-586,683,212,-151,-63,-52
-25,74,99,-25,-62,87,-551,691,206,-145,-76,-62
-21,71,93,-25,-57,82,-538,731,238,-128,-54,-47
-52,42,95,5,-74,68,-518,730,223,-138,-70,-58
-5,84,90,-40,-48,87,-513,756,235,-120,-52,-43
-10,79,89,-34,-50,84,-499,767,227,-126,-59,-56
-26,63,89,-19,-58,76,-496,776,232,-116,-47,-46
-40,43,83,-2,-61,63,-484,780,228,-122,-40,-53
-5,82,87,-39,-46,84,-479,798,250,-119,-60,-49
23,102,80,-63,-29,91,-472,818,264,-120,-112,-50
7,88,81,-48,-37,84,-465,816,258,-121,-110,-50
7,86,79,-46,-36,82,-459,833,261,-119,-108,-46
0,76,76,-39,-38,76,-452,847,260,-117,-112,-45
-2,72,73,-35,-38,72,-446,869,259,-112,-108,-41
3,73,70,-38,-34,71,-441,884,262,-111,-109,-38
25,93,68,-60,-22,80,-436,900,276,-107,-102,-35
29,93,64,-61,-18,78,-431,914,284,-105,-101,-34
34,105,71,-70,-19,88,-427,918,285,-103,-96,-27
64,138,74,-101,-5,106,-422,937,293,-96,-93,-18
76,143,67,-110,4,105,-418,946,307,-89,-89,-10
95,157,63,-126,16,110,-411,986,304,-83,-86,-2
116,172,56,-144,30,114,-403,1042,293,-75,-81,4
129,180,51,-155,39,115,-395,1045,286,-71,-78,10
119,165,47,-142,36,106,-387,1033,275,-63,-75,16
93,137,44,-116,24,90,-380,1020,264,-62,-70,19
83,124,41,-104,20,82,-370,1006,246,-88,-73,14
79,117,38,-98,21,77,-360,993,232,-97,-75,15
75,111,36,-94,20,73,-350,982,222,-93,-82,13
71,104,33,-88,18,69,-342,976,214,-96,-90,9
67,97,30,-82,18,63,-337,968,205,-94,-91,10
64,95,30,-79,17,62,-332,961,195,-96,-95,6
67,95,28,-81,19,61,-326,953,191,-99,-93,5
71,95,24,-84,23,60,-321,951,188,-100,-89,5
69,95,25,-82,21,60,-316,955,185,-100,-90,5
67,95,28,-82,19,61,-310,954,183,-100,-90,5
63,95,31,-79,16,62,-305,955,179,-100,-90,5
67,101,34,-84,16,67,-299,954,183,-100,-90,5
63,99,37,-81,13,68,-293,955,185,-100,-84,5
60,100,40,-80,10,70,-289,954,185,-94,-77,5
57,101,43,-79,7,72,-284,954,185,-88,-71,5
44,96,52,-70,-4,73,-278,956,183,-84,-64,5
63,117,54,-91,4,85,-274,952,196,-77,-58,11
80,143,62,-112,9,102,-270,989,209,-73,-52,35
80,163,84,-122,-2,123,-265,1028,209,-67,-46,58
81,167,85,-124,-2,126,-265,1037,219,-64,-41,68
111,188,77,-150,17,132,-265,1047,239,-66,-36,77
128,199,72,-164,28,135,-265,1029,237,-64,-29,76
124,187,63,-156,30,125,-270,1014,231,-66,-26,71
108,164,57,-136,25,110,-266,1002,225,-63,-23,68
89,137,48,-113,20,92,-260,990,208,-75,-35,66
100,140,40,-121,30,90,-251,981,189,-101,-62,59
74,107,33,-91,20,70,-248,967,179,-101,-60,60
51,75,24,-63,13,49,-238,972,180,-109,-63,49
68,85,17,-77,25,51,-235,956,165,-106,-59,45
63,65,2,-64,30,33,-222,969,172,-102,-60,38
66,64,-2,-64,34,31,-215,945,152,-104,-62,28
74,59,-15,-66,44,22,-208,968,175,-92,-56,30
44,40,-4,-42,24,18,-183,959,151,-102,-64,12
92,52,-41,-72,66,6,-176,1028,208,-76,-35,19
154,119,-35,-137,94,42,-132,1273,446,42,61,114
584,686,103,-635,240,394,-491,895,378,375,580,739
813,807,-6,-810,409,400,-817,348,38,268,657,920
271,164,-108,-217,189,28,-483,371,-253,-283,-56,144
89,64,-25,-76,56,20,-235,698,-112,-259,-180,-45
125,98,-26,-112,75,36,-182,944,133,-123,-55,60
67,52,-15,-59,40,19,-139,957,127,-138,-87,9
87,76,-11,-81,49,32,-145,975,147,-107,-56,44
51,42,-9,-46,30,16,-128,985,137,-128,-81,15
63,62,0,-62,31,31,-129,988,140,-110,-69,31
41,40,-1,-41,21,20,-117,992,141,-118,-78,23
43,50,7,-47,18,29,-114,984,136,-114,-72,31
33,37,3,-36,15,19,-110,986,134,-114,-69,31
29,37,8,-33,10,22,-105,983,131,-117,-69,27
70,80,10,-75,30,45,-103,985,155,-113,-62,45
54,64,10,-59,22,37,-97,984,149,-117,-63,44
51,58,7,-55,22,32,-96,984,142,-114,-58,46
57,60,4,-59,26,31,-94,985,137,-113,-57,45
62,64,1,-63,30,32,-95,983,128,-107,-51,44
67,65,-2,-65,34,31,-95,989,126,-105,-49,47
69,65,-4,-67,37,30,-95,1006,132,-100,-44,49
111,104,-7,-107,59,48,-94,1008,140,-96,-41,53
122,113,-10,-118,66,51,-96,1027,145,-94,-38,55
118,106,-12,-112,65,47,-100,1036,158,-89,-31,58
130,115,-15,-122,73,49,-100,1034,168,-83,-26,67
121,102,-19,-112,69,41,-105,1035,174,-80,-19,76
146,126,-20,-136,83,53,-104,1026,171,-75,-16,92
189,166,-24,-177,106,71,-106,1018,164,-70,-3,108
177,152,-25,-164,101,63,-113,1010,157,-73,18,120
166,141,-25,-153,95,58,-102,1002,151,-76,19,124
152,127,-25,-139,88,51,-92,992,143,-74,10,117
138,113,-25,-125,82,43,-83,981,122,-76,4,112
123,99,-24,-111,73,38,-79,969,106,-74,-4,106
94,75,-20,-85,57,27,-81,961,101,-76,-11,101
83,62,-20,-73,51,21,-76,958,96,-82,-18,96
46,29,-18,-37,32,5,-75,955,92,-87,-20,94
57,43,-15,-49,36,14,-75,953,88,-95,-20,95
88,73,-15,-80,51,29,-69,950,83,-95,-24,95
72,60,-12,-66,41,24,-62,950,80,-90,-25,95
65,57,-7,-61,36,25,-56,955,80,-89,-24,96
55,50,-4,-52,29,23,-49,957,80,-85,-20,100
54,54,0,-54,27,26,-42,961,80,-84,-12,100
52,55,3,-54,23,29,-40,976,80,-80,-6,102
51,57,7,-54,22,32,-40,980,80,-75,1,106
43,60,17,-52,13,38,-40,979,80,-74,7,104
30,60,30,-45,0,45,-40,984,80,-67,13,109
31,73,42,-52,-5,57,-39,985,80,-67,21,114
29,91,62,-61,-17,76,-40,984,79,-49,29,124
44,131,87,-88,-22,108,-39,991,97,-16,48,147
67,160,93,-114,-13,126,-41,999,107,-15,64,161
80,162,82,-121,-1,122,-39,989,97,-20,68,164
82,155,73,-119,4,114,-44,969,88,-22,66,166
90,152,62,-121,14,106,-60,956,81,-26,61,162
80,135,54,-108,12,95,-58,937,70,-31,58,155
79,126,47,-103,16,86,-53,927,56,-32,56,150
62,102,40,-82,11,71,-48,918,39,-38,49,141
26,59,33,-43,-3,46,-45,907,26,-47,50,138
21,45,25,-33,-2,34,-38,903,21,-58,40,127
29,50,22,-40,3,35,-36,885,5,-64,39,128
26,35,9,-31,8,22,-28,898,7,-71,33,123
25,36,11,-31,7,23,-22,877,-14,-72,27,124
37,29,-7,-33,22,11,-21,897,15,-65,29,121
19,20,1,-20,9,10,-3,866,-11,-79,23,117
65,27,-39,-46,52,-6,21,965,70,-32,41,118
133,100,-32,-116,82,34,20,1166,278,121,172,236
609,689,80,-650,265,384,-369,756,188,446,713,881
771,722,-49,-746,410,336,-635,262,-147,278,694,951
103,14,-89,-58,96,-38,-282,299,-440,-246,2,189
-40,-21,18,30,-29,-1,-56,647,-268,-163,-65,61
49,61,12,-55,18,36,-16,859,-74,-61,9,151
-20,0,21,10,-21,10,20,864,-90,-92,-23,114
-3,5,7,-1,-5,6,15,897,-46,-52,14,143
-20,-18,2,19,-11,-8,35,886,-59,-65,1,117
-2,-5,-3,4,1,-4,32,890,-40,-43,-18,131
-5,-17,-12,12,3,-15,53,891,-36,-49,-84,121
21,8,-13,-15,17,-2,62,887,-32,-38,-73,132
5,-11,-16,4,11,-14,58,888,-26,-34,-67,135
-13,-28,-15,21,1,-21,65,881,-28,-30,-63,134
-7,-28,-21,18,7,-25,64,882,-20,-24,-52,136
-11,-30,-19,21,4,-24,66,877,-22,-24,-51,133
1,-21,-23,10,12,-22,69,875,-16,-18,-41,137
0,-25,-26,13,13,-25,70,873,-12,-18,-39,133
9,-16,-24,4,16,-19,70,869,-6,-14,-32,137
3,-22,-26,10,15,-24,70,864,-1,-12,-27,131
6,-18,-24,6,16,-21,70,884,5,-4,-21,145
43,17,-26,-29,34,-5,68,899,10,-1,-15,157
56,27,-29,-41,42,0,64,898,19,6,-8,154
57,24,-33,-40,44,-4,60,904,35,12,-1,161
67,27,-40,-47,53,-6,57,911,51,15,6,158
98,58,-40,-78,69,9,51,921,69,34,17,173
114,75,-40,-95,77,17,51,918,74,42,30,180
100,59,-40,-79,70,9,53,905,67,39,38,186
95,55,-40,-75,67,7,58,889,63,38,34,201
85,42,-42,-63,63,0,58,866,56,34,28,194
78,32,-46,-55,61,-6,65,849,51,36,25,190
63,18,-44,-40,53,-13,83,832,46,31,20,184
38,-10,-49,-14,44,-29,86,819,40,30,15,178
17,-33,-51,8,34,-42,102,812,35,30,12,174
3,-46,-49,22,26,-47,113,806,29,25,7,169
6,-57,-63,26,35,-60,108,797,23,25,4,170
-3,-75,-71,39,34,-73,115,790,19,25,1,167
-13,-82,-69,48,28,-76,114,782,14,25,-4,164
-8,-79,-70,44,31,-74,117,742,16,25,-4,165
-10,-80,-70,45,30,-75,118,712,13,25,2,179
-33,-102,-69,67,18,-86,123,716,22,25,8,187
-45,-110,-66,78,11,-88,139,713,47,25,12,184
-36,-99,-63,68,14,-81,141,715,51,25,19,186
-35,-95,-60,65,13,-77,139,714,49,25,23,185
-30,-87,-57,59,14,-72,140,716,51,25,29,185
-26,-81,-55,54,15,-67,140,720,50,26,31,193
-22,-74,-53,48,16,-63,139,718,50,23,28,200
-18,-67,-50,43,16,-58,141,722,50,39,45,209
-15,-61,-46,39,16,-53,138,716,55,52,56,211
-9,-53,-45,31,18,-49,153,738,82,70,79,228
-2,-41,-40,22,19,-40,165,755,100,100,105,240
16,-25,-41,4,29,-33,166,761,112,114,107,242
20,-18,-37,-1,29,-27,179,768,136,122,113,266
43,-10,-53,-16,49,-32,140,737,128,112,109,265
82,-13,-95,-34,88,-54,115,720,113,93,100,252
79,-35,-114,-22,97,-75,124,705,99,83,94,246
57,-65,-122,4,90,-93,115,696,91,76,85,235
20,-98,-118,39,70,-108,134,683,75,68,79,217
-8,-129,-121,69,57,-125,144,678,69,62,75,194
-36,-155,-119,96,42,-137,144,667,63,52,66,186
-30,-151,-121,91,46,-135,150,656,61,50,68,195
-30,-156,-125,94,47,-140,159,660,62,42,56,180
-19,-141,-123,80,52,-132,144,642,49,46,59,191
-20,-150,-130,86,55,-140,151,664,67,40,52,179
-19,-133,-114,77,47,-123,145,628,39,37,56,179
13,-162,-175,75,94,-168,183,827,222,86,73,174
238,116,-122,-177,180,-3,89,846,368,326,370,503
761,689,-72,-725,416,309,-380,272,136,554,859,1114
494,274,-221,-383,357,26,-383,-22,-232,129,444,727
-61,-265,-204,163,72,-234,19,176,-337,-193,-90,128
17,-136,-153,60,85,-144,138,510,-48,-2,50,191
-17,-178,-161,98,72,-169,187,624,55,20,57,175
-51,-194,-143,123,46,-169,197,616,60,28,48,177
-34,-183,-149,109,57,-165,205,639,104,37,56,179
-64,-202,-137,133,36,-169,226,634,94,29,39,166
-63,-199,-137,132,37,-168,228,646,112,44,52,176
-73,-210,-138,142,33,-174,232,640,105,41,39,161
-59,-200,-140,129,41,-170,232,664,130,49,49,169
-60,-202,-142,131,41,-172,236,666,136,41,42,161
-54,-199,-145,127,45,-172,234,662,134,42,47,162
-51,-197,-146,125,48,-171,240,662,140,39,44,158
-39,-189,-150,114,56,-169,240,658,139,42,46,161
-54,-214,-160,134,54,-187,243,661,141,46,51,165
-52,-219,-167,136,58,-193,246,649,138,48,49,164
-24,-206,-182,116,79,-194,244,661,150,52,51,165
-19,-205,-186,113,84,-195,245,680,171,53,53,165
-7,-194,-187,101,90,-190,245,681,198,57,58,165
1,-190,-191,94,96,-190,245,684,206,59,60,168
18,-173,-191,78,104,-182,245,688,212,63,60,172
49,-146,-195,49,122,-170,244,689,234,68,59,176
57,-137,-195,40,126,-166,240,700,246,72,67,182
53,-141,-195,44,124,-168,240,699,258,86,85,193
56,-139,-195,42,126,-166,239,685,255,94,91,202
54,-140,-195,43,125,-167,234,676,246,91,95,208
25,-170,-195,73,111,-183,235,661,242,102,113,227
16,-178,-195,81,106,-186,237,647,228,97,112,227
14,-181,-195,84,104,-188,240,628,212,77,97,212
-17,-212,-195,115,89,-203,252,619,197,69,88,203
-21,-216,-195,119,88,-206,256,603,191,63,79,194
-21,-214,-194,118,87,-204,254,590,184,59,81,196
-26,-216,-190,121,82,-202,255,540,178,53,79,193
-24,-214,-190,119,83,-202,255,409,170,46,75,190
-24,-214,-190,119,83,-202,255,344,166,48,75,190
-19,-209,-190,114,85,-199,260,342,169,50,72,187
-21,-211,-190,116,85,-200,260,337,170,50,69,185
-23,-209,-187,116,82,-198,261,342,170,49,65,181
-28,-210,-182,119,77,-196,277,338,168,51,62,179
-41,-220,-179,131,69,-200,281,341,182,49,57,175
-41,-216,-175,129,67,-196,279,338,197,46,55,175
-29,-201,-171,115,71,-186,280,332,194,45,61,179
-36,-204,-168,120,66,-186,279,327,194,45,67,182
-56,-221,-165,139,55,-193,296,322,213,68,72,189
-52,-217,-165,135,57,-191,302,316,221,77,67,195
-44,-206,-163,125,60,-184,295,311,219,74,84,203
-41,-200,-159,120,60,-179,295,309,220,72,102,205
-30,-190,-160,110,65,-175,290,310,220,69,99,206
-28,-184,-156,106,64,-170,290,309,221,71,105,210
-17,-168,-151,93,67,-159,295,310,223,74,105,209
-3,-149,-147,76,72,-148,297,309,244,91,110,223
-8,-150,-141,79,67,-145,305,313,254,102,119,236
-11,-150,-139,81,64,-144,297,321,274,104,130,238
-21,-152,-131,87,55,-141,272,309,290,100,132,239
-9,-156,-146,83,69,-151,256,300,277,91,120,248
22,-154,-176,66,100,-165,245,290,267,83,112,256
23,-157,-180,67,102,-168,243,279,258,76,104,245
0,-173,-173,87,87,-173,256,272,251,69,94,230
-46,-218,-172,132,64,-195,266,260,245,66,92,225
-93,-261,-168,177,38,-214,273,257,243,60,82,211
-82,-244,-162,163,40,-202,267,247,229,56,82,210
-61,-247,-186,154,63,-216,272,264,238,53,71,199
-49,-236,-187,143,69,-212,269,249,214,45,70,191
-35,-230,-195,133,80,-212,269,272,246,49,72,189
-51,-233,-182,142,66,-207,281,253,237,39,66,172
4,-212,-216,104,110,-214,291,342,322,65,75,174
85,-122,-207,19,146,-164,307,545,567,226,214,311
515,481,-34,-498,274,223,-65,155,502,590,797,997
648,527,-121,-587,384,203,-338,-322,161,444,798,1102
35,-197,-232,81,133,-214,4,-280,-146,-121,135,282
-120,-298,-178,209,29,-238,226,35,31,-83,50,112
-53,-246,-194,150,71,-220,268,256,267,37,83,191
-98,-280,-182,190,43,-231,300,265,240,11,50,145
-71,-252,-182,162,56,-217,293,292,275,43,73,180
-99,-280,-181,190,41,-230,308,304,269,21,49,154
-88,-262,-175,175,43,-218,297,319,277,44,64,172
-98,-274,-176,187,39,-225,301,321,274,33,48,163
-83,-257,-173,171,45,-215,315,324,267,36,53,182
-75,-251,-176,164,51,-213,320,333,268,36,46,183
-65,-239,-174,153,55,-207,315,323,260,33,45,172
-56,-230,-174,144,59,-202,311,324,260,37,44,169
-58,-227,-170,142,56,-198,308,317,253,32,38,157
-50,-219,-170,134,60,-194,303,315,260,32,38,154
-50,-221,-170,135,60,-195,311,311,259,28,32,151
-37,-206,-169,122,66,-188,308,310,267,28,33,158
-56,-226,-170,141,57,-198,286,307,260,20,26,148
-29,-202,-173,116,72,-187,313,335,279,49,48,160
2,-176,-178,88,90,-177,335,360,309,79,68,178
-13,-193,-180,103,84,-186,318,351,303,73,63,173
3,-177,-180,87,91,-178,311,365,308,75,66,175
15,-177,-192,81,104,-184,300,389,310,75,64,175
38,-157,-195,60,117,-176,295,389,310,74,65,175
57,-132,-189,37,123,-160,289,384,306,80,67,179
56,-132,-187,38,122,-159,286,382,294,83,78,193
49,-132,-181,42,115,-157,275,376,287,79,87,202
8,-172,-180,82,95,-176,285,375,277,73,89,197
-16,-201,-184,109,85,-192,315,353,267,70,94,195
-5,-190,-185,98,91,-187,315,323,248,65,80,190
-6,-190,-185,98,89,-187,314,316,229,61,67,186
-2,-187,-185,95,92,-186,316,309,223,56,62,183
4,-181,-185,89,95,-183,313,303,212,49,55,176
-26,-209,-183,118,78,-196,314,295,208,42,51,169
-50,-229,-179,139,65,-204,307,290,196,36,44,162
-58,-235,-177,147,60,-205,314,294,190,29,36,154
-44,-217,-174,131,65,-195,345,295,217,25,52,147
-18,-189,-171,103,77,-180,352,294,219,25,51,144
-33,-202,-169,118,68,-186,348,295,213,25,40,145
-41,-206,-166,124,63,-186,351,295,212,25,38,145
-43,-204,-161,123,60,-182,349,297,205,24,27,144
-44,-203,-159,123,57,-180,349,305,204,26,28,146
-44,-198,-154,121,55,-176,345,303,200,26,27,143
-51,-201,-151,126,50,-176,342,315,198,41,38,156
-34,-181,-148,108,57,-164,340,336,195,57,61,172
-16,-158,-142,88,63,-150,336,334,191,54,60,169
-13,-151,-137,82,62,-144,335,335,189,55,60,170
-13,-147,-134,80,61,-140,338,334,193,55,60,170
-12,-141,-129,77,59,-135,341,335,196,55,60,169
-10,-135,-124,73,57,-129,343,335,193,58,60,174
-14,-130,-116,73,51,-123,348,347,209,67,72,181
-6,-108,-102,58,48,-105,348,382,225,78,89,190
20,-77,-97,29,59,-87,337,410,230,87,94,200
27,-75,-102,24,65,-88,326,419,230,94,101,209
33,-72,-105,20,69,-88,314,410,221,90,103,211
43,-67,-110,12,76,-88,310,403,234,82,110,221
42,-83,-125,21,83,-104,310,390,226,76,115,218
48,-92,-140,22,94,-116,310,387,201,70,96,192
4,-126,-130,61,67,-128,310,372,189,61,81,178
-30,-166,-137,98,54,-152,308,369,191,60,79,172
-31,-185,-154,109,62,-169,316,355,180,49,67,152
-29,-184,-154,107,63,-169,312,348,181,50,71,155
-31,-189,-158,110,64,-173,319,344,175,37,53,137
-12,-169,-157,91,73,-163,310,327,164,45,62,143
-12,-176,-165,94,77,-171,319,344,174,47,55,129
-16,-170,-154,93,69,-162,314,300,141,35,62,122
27,-196,-223,85,126,-209,358,536,350,95,72,121
168,108,-60,-138,114,24,270,554,500,401,412,501
589,776,187,-683,201,482,-160,64,379,806,1103,1321
424,356,-69,-390,246,144,-162,-209,19,330,652,912
-116,-308,-191,212,38,-249,170,-140,-247,-196,-103,68
-115,-208,-94,162,-10,-151,283,197,46,-14,0,122
-69,-226,-157,148,44,-192,341,349,184,10,17,121
-41,-221,-180,131,70,-200,342,335,163,22,17,114
-27,-213,-186,121,80,-199,342,356,185,31,26,126
-54,-240,-186,148,66,-212,348,346,168,19,14,104
-26,-214,-188,120,82,-201,369,373,211,52,47,125
-21,-213,-192,117,86,-202,377,368,201,38,33,103
-19,-206,-187,113,84,-196,365,370,202,50,45,116
-27,-213,-186,121,79,-199,368,366,198,42,37,106
-25,-204,-179,114,78,-191,359,364,194,47,42,107
-27,-206,-178,117,76,-192,361,365,196,44,38,105
-31,-204,-173,118,71,-189,359,370,202,39,34,103
-30,-200,-170,115,70,-185,360,378,207,42,37,101
-21,-195,-173,108,76,-184,360,371,203,38,31,96
-7,-190,-184,99,88,-187,359,372,206,41,31,96
0,-186,-186,94,93,-186,360,367,204,39,29,90
-1,-182,-181,91,90,-181,356,390,206,36,34,90
3,-176,-179,87,91,-178,352,406,204,49,35,89
14,-161,-176,74,96,-169,349,411,212,56,33,89
25,-149,-174,63,100,-161,345,438,238,67,42,110
46,-125,-171,40,109,-148,341,437,246,79,46,123
59,-108,-168,25,114,-138,338,428,245,79,57,122
56,-110,-166,27,111,-137,335,423,244,85,73,126
51,-111,-162,30,106,-136,335,414,248,99,88,150
52,-108,-161,28,106,-135,332,411,237,104,96,163
44,-113,-157,35,100,-135,329,390,207,95,90,154
24,-131,-155,54,90,-143,330,362,187,89,88,154
30,-137,-168,54,100,-152,333,345,172,82,83,148
37,-132,-169,48,104,-150,335,329,161,76,80,145
19,-142,-161,61,91,-151,335,318,148,71,76,140
0,-160,-159,80,80,-159,335,314,130,64,69,129
-10,-163,-153,87,72,-158,335,308,116,57,63,122
-22,-171,-149,96,64,-160,333,302,108,51,56,112
-13,-174,-161,94,74,-167,330,297,106,43,49,105
-1,-165,-164,83,82,-164,330,292,102,41,46,105
-3,-160,-157,81,77,-158,330,289,99,45,50,105
0,-152,-153,76,77,-152,330,290,95,45,50,105
0,-146,-146,73,73,-146,330,290,95,49,52,105
-4,-145,-141,75,69,-143,326,290,106,50,56,105
-8,-145,-136,77,65,-140,321,289,111,51,54,108
-11,-145,-134,79,62,-139,316,286,109,56,56,111
-14,-145,-131,79,59,-138,313,283,111,59,53,109
-17,-145,-128,81,56,-136,307,280,109,64,59,111
-18,-144,-126,82,54,-135,305,277,111,65,75,115
-12,-135,-123,74,56,-129,305,275,114,65,75,115
-10,-129,-119,70,54,-124,305,274,115,69,75,117
-8,-119,-111,64,52,-115,305,275,115,71,75,120
-7,-114,-108,61,51,-110,305,275,115,68,74,119
-2,-95,-93,49,46,-94,305,275,115,83,76,127
10,-57,-67,24,39,-62,304,286,117,96,80,140
11,-49,-60,19,36,-54,314,290,126,104,85,148
22,-37,-59,8,40,-47,311,287,131,110,93,147
14,-56,-70,21,42,-63,278,281,122,100,102,142
-2,-92,-91,47,45,-91,245,283,121,95,107,140
19,-90,-109,36,64,-100,239,267,113,87,105,134
36,-87,-123,25,79,-105,240,244,113,82,90,133
17,-102,-119,43,68,-110,241,231,104,74,74,126
-2,-122,-120,62,59,-121,238,225,97,68,74,117
-21,-143,-121,82,50,-132,242,222,93,60,61,95
-18,-148,-131,83,57,-139,234,207,79,53,60,88
-24,-161,-138,93,57,-149,235,215,83,46,50,85
-25,-147,-122,86,49,-135,229,188,61,39,43,80
-8,-140,-132,74,62,-136,226,217,103,50,37,85
-47,-155,-108,101,31,-131,226,174,68,37,12,66
9,-158,-166,75,88,-162,251,322,199,57,31,44
104,-4,-108,-49,106,-56,256,485,417,263,235,234
504,670,166,-587,169,418,-161,2,313,694,900,1008
588,609,21,-598,283,315,-391,-384,23,477,847,1040
7,-141,-148,67,77,-144,-39,-332,-297,-141,26,150
-79,-124,-45,102,-16,-84,152,-33,-116,-77,-69,-4
-11,-92,-80,52,35,-86,199,184,109,3,10,62
-57,-139,-82,99,12,-110,219,173,76,-38,-21,7
-11,-70,-59,41,24,-64,202,192,108,-3,9,23
-37,-83,-46,60,4,-64,205,176,87,-26,-16,-12
-39,-49,-10,44,-14,-30,190,180,99,-7,3,3
-29,-28,1,28,-15,-13,188,175,94,-24,-16,-15
-19,-11,8,14,-13,-1,178,174,94,-23,-14,-11
-44,-36,8,40,-25,-14,174,182,98,-32,-22,-19
-21,-8,13,15,-17,2,169,178,92,-34,-28,-23
-4,11,15,-4,-10,13,164,182,98,-38,-32,-25
-16,-1,15,8,-16,7,160,178,92,-56,-35,-32
-12,4,15,3,-13,9,155,181,99,-54,-28,-35
-20,-5,15,12,-17,5,151,182,98,-56,-28,-42
-19,-4,15,11,-17,6,142,187,104,-55,-23,-39
-18,-3,15,10,-16,6,136,182,116,-55,-21,-44
-8,7,15,0,-12,11,128,194,112,-53,-19,-46
-3,16,19,-7,-11,17,121,208,127,-48,-15,-44
3,23,20,-13,-9,22,114,213,140,-46,-8,-42
29,48,20,-38,4,34,103,235,144,-41,-5,-38
48,68,20,-58,14,44,91,238,160,-38,3,-36
54,75,20,-64,17,47,80,250,158,-34,6,-32
61,79,19,-70,21,49,71,249,149,-31,17,-30
87,102,15,-95,36,59,70,250,160,-29,49,-28
95,108,13,-102,41,60,70,252,161,-27,55,-22
62,71,10,-66,26,40,65,216,133,-24,44,-19
27,34,6,-31,10,20,65,200,114,-27,38,-14
31,36,5,-34,13,20,64,184,100,-52,29,-17
55,56,1,-56,26,29,60,169,75,-61,23,-32
19,19,0,-19,9,9,60,161,54,-61,18,-45
-20,-20,0,20,-10,-10,57,146,49,-75,15,-66
-23,-23,0,23,-11,-11,55,141,49,-76,12,-62
-16,-16,0,16,-8,-8,55,140,62,-74,7,-62
-9,-8,1,8,-5,-3,55,140,69,-72,5,-88
-10,-5,5,7,-8,0,55,140,60,-68,10,-91
-7,-2,5,4,-6,1,55,140,57,-76,10,-89
-29,-21,7,25,-18,-7,55,140,49,-85,10,-90
-35,-25,10,30,-23,-7,55,145,46,-80,10,-90
-28,-18,10,23,-19,-4,54,145,49,-75,9,-89
-23,-10,13,16,-18,1,48,145,50,-72,13,-82
-22,-4,18,13,-20,7,43,145,50,-66,15,-78
-24,-4,20,14,-22,8,37,145,50,-65,18,-72
20,46,25,-34,-3,35,31,153,50,-65,21,-66
38,65,27,-52,5,46,26,152,48,-65,24,-61
22,57,35,-39,-7,46,21,143,43,-65,27,-56
13,62,50,-38,-19,56,19,138,40,-65,29,-54
8,58,50,-33,-21,54,16,130,37,-65,39,-56
11,61,50,-36,-19,55,14,126,32,-61,47,-53
4,55,51,-29,-24,52,10,129,30,-56,44,-61
5,54,49,-29,-23,51,11,130,34,-54,45,-69
-2,49,51,-23,-26,50,20,134,37,-49,44,-57
0,50,49,-25,-25,49,26,135,39,-46,45,-48
16,78,62,-47,-23,69,33,138,44,-42,49,-37
27,109,82,-68,-28,95,30,154,59,-38,56,-31
42,124,82,-83,-20,102,16,159,71,-32,69,-26
62,136,74,-99,-6,105,5,151,70,-29,68,-21
87,154,68,-121,9,111,-19,144,60,-24,63,-14
78,137,58,-108,10,97,-38,138,50,-20,58,-10
72,126,53,-99,9,89,-42,127,38,-38,54,-22
54,98,44,-76,4,71,-37,125,16,-56,49,-37
4,45,41,-25,-19,43,-35,112,-7,-65,43,-64
1,35,33,-18,-16,34,-32,115,-2,-87,34,-83
0,30,31,-15,-16,30,-27,102,-13,-90,23,-80
1,23,22,-12,-11,23,-31,105,-8,-79,19,-77
0,19,19,-10,-9,19,-16,96,-17,-83,2,-85
22,34,12,-28,4,23,-23,93,-16,-69,6,-73
-2,-1,1,1,-2,-1,-5,110,1,-75,-15,-87
10,14,4,-11,3,9,-16,104,9,-45,-9,-81
43,16,-27,-29,35,-6,4,358,213,23,22,-78
291,421,130,-357,80,275,-165,223,262,329,448,394
733,907,174,-820,279,540,-629,-381,15,513,894,971
356,323,-33,-340,194,145,-522,-530,-325,-25,296,377
-94,-79,15,86,-54,-31,-151,-264,-363,-262,-161,-188
-4,68,72,-32,-38,69,-80,33,-85,-72,-30,-110
-21,8,28,6,-25,18,-29,114,-38,-79,-44,-143
-16,18,34,-1,-25,26,-31,123,-21,-62,-17,-117
-38,-11,27,25,-32,7,-30,130,-8,-72,-39,-116
-51,-19,32,35,-41,7,-25,117,-23,-72,-43,-113
-24,6,29,9,-27,17,-27,125,-8,-73,-33,-110
-23,6,29,8,-26,17,-23,115,-21,-78,-38,-120
-18,19,38,-1,-28,28,-32,129,-11,-71,-27,-110
-20,26,46,-4,-33,36,-29,124,-17,-78,-31,-119
-46,-1,45,23,-46,21,-31,124,-14,-73,-35,-112
-48,-3,45,25,-47,20,-30,152,-15,-77,-53,-119
-12,34,45,-12,-29,39,-30,156,-15,-74,-46,-120
-19,26,45,-4,-32,35,-33,154,-14,-75,-44,-120
1,43,42,-22,-21,42,-35,156,-12,-71,-40,-120
9,46,37,-27,-14,41,-35,154,-5,-66,-35,-120
5,39,35,-23,-15,37,-38,159,-2,-64,-33,-120
48,78,30,-63,8,54,-41,176,3,-59,-29,-116
44,71,27,-58,9,48,-39,192,7,-56,-31,-114
33,57,23,-45,5,40,-45,196,12,-52,-26,-111
84,104,20,-94,32,62,-44,214,17,-46,-24,-107
104,124,20,-114,42,72,-49,217,23,-41,-25,-105
98,118,20,-108,39,69,-65,206,28,-36,-14,-103
101,121,20,-111,40,71,-65,201,35,-30,0,-98
100,120,20,-110,40,70,-66,191,29,-25,13,-95
96,120,24,-108,36,71,-71,187,16,-25,22,-92
85,110,25,-98,30,67,-69,167,4,-24,20,-87
67,93,26,-81,20,60,-72,142,-23,-39,12,-85
44,83,39,-64,2,61,-76,130,-42,-46,6,-90
28,69,41,-48,-7,54,-74,118,-59,-45,-1,-89
23,59,36,-41,-7,47,-76,108,-80,-60,-8,-92
13,48,34,-31,-11,41,-74,109,-79,-60,-12,-95
4,34,30,-19,-13,32,-76,110,-82,-61,-18,-95
15,45,30,-30,-8,37,-79,110,-89,-59,-21,-96
-17,13,30,2,-24,21,-80,110,-98,-65,-27,-103
-16,14,30,1,-23,21,-93,110,-109,-85,-44,-118
30,60,30,-45,-1,44,-91,110,-106,-80,-42,-116
24,54,30,-39,-4,41,-81,110,-99,-75,-36,-109
19,49,30,-34,-5,39,-77,110,-95,-70,-33,-105
19,52,32,-36,-7,42,-68,110,-88,-63,-27,-98
1,40,39,-21,-20,39,-66,110,-85,-59,-24,-94
7,53,46,-30,-20,49,-71,110,-85,-54,-20,-88
11,62,50,-36,-20,56,-73,110,-84,-56,-20,-84
5,55,50,-30,-23,52,-84,110,-89,-52,-18,-79
39,89,50,-64,-6,69,-96,110,-96,-50,-14,-75
42,92,50,-67,-4,71,-95,110,-94,-50,-16,-70
31,81,50,-56,-10,65,-94,110,-90,-47,-11,-66
26,77,51,-51,-13,63,-90,112,-88,-44,-5,-65
20,69,49,-45,-15,59,-90,116,-84,-41,0,-65
12,63,51,-37,-20,57,-87,113,-87,-38,6,-65
11,60,49,-35,-19,54,-81,117,-99,-36,11,-66
41,93,52,-67,-6,72,-73,128,-90,-34,16,-64
46,94,48,-70,-1,71,-68,133,-80,-25,21,-59
42,100,58,-72,-8,79,-59,153,-69,-17,24,-56
14,108,94,-61,-40,100,-56,166,-54,-8,29,-52
29,120,91,-75,-31,105,-60,176,-33,-1,36,-49
55,158,103,-107,-24,130,-69,181,-31,6,46,-44
55,148,93,-102,-19,120,-113,172,-57,9,47,-43
87,134,46,-110,20,90,-132,171,-46,3,35,-35
84,127,43,-105,20,84,-135,163,-56,-12,29,-43
56,91,35,-74,10,62,-110,163,-73,-42,19,-64
38,71,32,-55,3,51,-94,157,-85,-53,10,-73
32,55,24,-44,4,39,-112,163,-92,-58,3,-89
26,46,20,-36,2,33,-106,158,-99,-62,-10,-93
20,36,16,-28,2,26,-110,161,-91,-57,-12,-86
11,22,12,-17,-1,17,-98,162,-93,-64,-26,-95
11,25,14,-18,-2,20,-107,153,-91,-54,-17,-84
3,3,0,-3,1,1,-92,166,-83,-70,-36,-93
26,43,17,-35,5,29,-117,151,-93,-50,-28,-94
25,6,-18,-16,22,-6,-92,401,119,19,3,-106
288,416,127,-352,80,272,-211,321,193,334,423,363
700,918,217,-809,241,567,-662,-267,-29,554,907,981
376,399,24,-388,176,211,-577,-449,-388,21,339,410
-36,19,55,8,-46,37,-226,-224,-484,-261,-169,-202
-21,81,103,-30,-62,92,-159,79,-198,-83,-54,-135
-23,26,49,-2,-36,37,-105,176,-139,-86,-63,-164
0,49,49,-25,-25,49,-105,172,-124,-65,-45,-145
-13,28,41,-8,-27,35,-100,182,-103,-71,-50,-143
-12,35,48,-12,-30,41,-96,161,-118,-72,-53,-143
-19,25,43,-3,-31,34,-94,165,-98,-66,-45,-135
-17,29,46,-7,-32,37,-88,151,-107,-74,-55,-145
-17,25,42,-5,-30,33,-96,150,-94,-66,-45,-135
-37,0,38,19,-38,19,-94,172,-96,-73,-54,-144
-4,46,50,-21,-27,48,-95,193,-87,-67,-47,-136
-43,12,55,15,-49,33,-96,189,-85,-73,-49,-143
-53,3,55,24,-54,29,-113,190,-80,-80,-67,-157
-8,45,52,-19,-30,48,-116,191,-75,-78,-70,-161
-11,38,49,-14,-31,44,-114,189,-71,-74,-73,-160
-15,35,50,-10,-33,43,-116,195,-61,-71,-74,-160
-29,17,46,6,-38,31,-114,193,-54,-66,-79,-160
-9,35,45,-14,-28,40,-116,202,-46,-64,-103,-159
41,86,45,-64,-2,65,-123,220,-39,-60,-111,-155
47,88,40,-68,3,64,-127,223,-34,-56,-109,-151
30,70,40,-50,-5,54,-135,223,-31,-53,-110,-148
30,72,41,-51,-6,57,-146,237,-27,-48,-124,-143
49,95,45,-72,2,70,-145,244,-23,-45,-115,-140
66,111,45,-89,11,77,-142,235,-20,-45,-98,-136
69,116,47,-93,10,82,-138,229,-24,-45,-102,-130
75,125,51,-100,12,88,-151,222,-26,-45,-98,-125
70,119,50,-94,10,84,-162,216,-32,-45,-95,-119
54,104,50,-79,2,77,-159,209,-48,-45,-94,-113
30,80,50,-55,-10,65,-160,197,-60,-46,-97,-111
13,63,50,-38,-19,56,-160,185,-80,-55,-105,-117
8,57,50,-33,-21,53,-160,176,-94,-62,-109,-125
-16,35,50,-9,-33,42,-156,175,-96,-66,-111,-123
5,53,49,-29,-22,51,-154,175,-100,-74,-108,-136
24,68,44,-47,-11,57,-155,175,-100,-75,-119,-152
14,60,46,-37,-16,52,-154,175,-104,-75,-126,-149
18,60,42,-39,-12,51,-156,175,-106,-75,-125,-150
15,55,40,-35,-13,47,-153,178,-101,-75,-123,-150
15,55,40,-35,-12,47,-151,181,-95,-74,-119,-150
8,49,41,-29,-16,45,-147,183,-90,-69,-120,-147
8,47,39,-28,-16,43,-145,189,-84,-63,-116,-144
-6,37,43,-16,-24,39,-141,200,-79,-60,-110,-141
7,66,59,-36,-26,62,-139,200,-74,-55,-105,-138
35,94,60,-64,-13,77,-152,199,-70,-50,-99,-136
20,83,63,-52,-22,72,-156,200,-70,-53,-93,-133
13,85,72,-49,-29,78,-154,199,-70,-55,-91,-131
10,76,66,-43,-28,71,-155,203,-70,-55,-95,-127
16,79,63,-48,-24,71,-155,205,-70,-55,-95,-125
-4,56,60,-26,-33,58,-155,205,-67,-55,-95,-121
-6,47,53,-21,-30,50,-150,208,-62,-54,-92,-120
3,67,65,-35,-31,66,-146,211,-60,-48,-89,-120
-30,44,75,-7,-53,59,-143,208,-55,-41,-91,-119
-34,45,78,-6,-56,61,-139,213,-51,-35,-90,-130
3,81,78,-42,-38,79,-135,230,-48,-27,-90,-127
22,113,91,-68,-35,102,-133,246,-44,-22,-89,-110
-26,97,123,-36,-75,110,-125,256,-46,-16,-82,-101
-2,117,119,-58,-61,118,-121,268,-42,-15,-76,-100
62,170,109,-116,-24,139,-141,273,-40,-14,-69,-100
47,149,102,-98,-28,125,-175,266,-39,-10,-63,-95
51,144,93,-98,-21,118,-190,259,-40,-10,-55,-95
40,129,89,-84,-25,108,-186,251,-40,-11,-62,-96
10,89,79,-50,-35,84,-178,248,-39,-25,-81,-101
-6,71,76,-33,-41,73,-179,238,-60,-38,-89,-123
-17,47,65,-15,-41,56,-168,244,-56,-54,-107,-146
-24,41,66,-9,-45,53,-174,232,-66,-62,-111,-145
-60,-5,55,33,-58,25,-176,239,-53,-57,-117,-146
-39,19,58,10,-48,38,-172,236,-68,-64,-135,-154
2,52,50,-27,-24,51,-180,260,-53,-55,-120,-148
-28,19,47,4,-38,33,-160,249,-58,-65,-126,-161
-34,13,47,10,-40,30,-186,267,-38,-42,-123,-156
-5,27,32,-11,-19,29,-140,528,208,63,-57,-110
374,603,229,-489,73,416,-402,287,225,430,487,504
686,915,229,-801,228,572,-805,-255,-32,503,790,924
193,238,45,-216,74,141,-573,-331,-384,-91,74,172
-121,-11,110,65,-115,49,-287,-62,-361,-225,-267,-257
-27,86,112,-30,-70,99,-229,214,-93,-73,-147,-173
-38,36,73,0,-56,54,-184,247,-91,-116,-181,-216
-18,61,78,-22,-48,69,-195,261,-54,-80,-148,-182
-37,35,72,0,-55,53,-187,269,-50,-90,-160,-195
-36,42,77,-4,-57,59,-191,272,-43,-76,-148,-183
-44,30,74,7,-59,52,-189,286,-26,-72,-145,-189
-49,37,87,5,-68,62,-190,269,-32,-71,-147,-192
-35,49,84,-7,-60,66,-197,289,-17,-62,-142,-187
-41,40,80,0,-61,60,-196,303,-21,-65,-148,-193
-38,42,79,-2,-58,60,-211,306,-10,-55,-142,-187
-38,35,73,1,-56,54,-225,304,-10,-57,-147,-192
-44,35,79,4,-62,57,-226,305,-3,-61,-144,-189
-51,34,85,8,-69,59,-229,307,2,-66,-145,-191
-24,61,85,-19,-55,73,-231,315,5,-64,-145,-190
-20,64,83,-22,-52,73,-232,319,10,-68,-145,-190
-25,55,80,-15,-53,67,-238,322,14,-71,-145,-190
-25,54,80,-15,-53,67,-243,334,19,-69,-145,-185
-34,49,82,-8,-58,65,-259,338,26,-66,-142,-182
13,99,85,-56,-36,92,-272,362,35,-61,-137,-179
46,130,85,-89,-20,107,-276,382,45,-58,-134,-174
33,118,85,-76,-26,101,-279,381,63,-55,-130,-171
27,112,85,-70,-29,98,-280,386,73,-50,-126,-167
20,105,85,-63,-33,95,-297,381,66,-52,-123,-165
6,95,90,-51,-42,92,-309,374,58,-55,-120,-165
24,114,90,-69,-33,102,-313,368,50,-55,-117,-161
14,104,90,-59,-38,97,-316,360,43,-55,-115,-159
-24,66,90,-21,-57,78,-314,354,33,-55,-111,-161
13,103,90,-58,-39,96,-311,348,16,-56,-109,-159
-8,79,87,-36,-48,83,-310,343,0,-59,-113,-161
-47,38,85,4,-66,61,-309,335,-7,-62,-118,-158
-2,83,85,-41,-44,84,-305,329,-11,-64,-121,-164
-5,80,85,-38,-45,82,-305,323,-15,-71,-133,-187
-26,59,85,-17,-55,72,-305,315,-20,-76,-141,-191
-30,55,85,-13,-58,70,-305,319,-25,-75,-139,-188
-76,13,89,31,-83,51,-305,321,-22,-75,-143,-186
-57,33,90,12,-74,62,-305,331,-17,-75,-145,-182
-2,87,90,-42,-46,88,-305,340,-15,-75,-145,-180
-11,79,90,-34,-51,85,-305,330,-10,-72,-141,-176
-19,71,89,-26,-54,80,-304,348,-7,-67,-134,-175
-22,70,92,-24,-58,81,-306,357,-3,-64,-127,-171
-37,59,95,-11,-66,77,-303,353,0,-61,-121,-169
-48,47,95,0,-71,71,-309,356,-1,-56,-114,-170
-19,76,95,-29,-57,85,-325,354,3,-55,-110,-170
-7,88,95,-41,-51,91,-324,355,5,-55,-110,-170
-20,76,95,-29,-58,85,-326,350,5,-55,-110,-170
-23,77,100,-27,-62,88,-330,348,8,-55,-110,-170
-32,68,100,-18,-66,84,-330,345,11,-55,-110,-170
-32,67,100,-18,-66,83,-327,342,14,-55,-110,-170
-41,59,100,-9,-71,80,-324,339,17,-52,-107,-170
-37,62,99,-12,-68,80,-325,340,20,-46,-103,-170
-52,51,103,0,-78,77,-321,340,21,-41,-99,-167
-44,67,112,-12,-78,89,-319,351,27,-37,-96,-162
-28,111,138,-42,-83,124,-320,389,35,-33,-91,-159
-35,126,161,-45,-98,143,-325,405,44,-28,-91,-156
-4,150,154,-73,-79,152,-327,413,56,-25,-96,-151
-2,149,150,-74,-76,149,-336,414,63,-24,-94,-151
11,155,144,-84,-66,149,-359,402,70,-26,-97,-155
4,142,139,-73,-68,140,-378,388,58,-23,-101,-155
-23,111,134,-44,-78,122,-386,381,52,-33,-98,-154
-37,92,129,-28,-83,111,-383,374,42,-50,-104,-161
-47,79,126,-16,-87,103,-388,366,31,-63,-119,-178
-37,84,121,-23,-80,102,-381,364,36,-82,-139,-202
-36,84,121,-24,-79,102,-389,348,30,-75,-132,-198
-46,66,112,-11,-79,89,-378,358,43,-74,-136,-202
-49,70,119,-11,-85,94,-381,338,23,-70,-129,-206
-57,53,110,1,-84,81,-380,382,52,-65,-128,-202
-53,65,118,-6,-86,91,-370,357,25,-60,-137,-208
2,61,59,-31,-29,60,-385,478,132,-26,-110,-216
70,167,97,-119,-14,132,-363,677,359,133,46,-43
497,815,318,-657,90,566,-748,243,280,525,663,695
587,798,211,-693,188,504,-995,-179,-31,338,635,736
33,125,92,-79,-30,108,-649,-135,-346,-235,-147,-120
-98,66,164,16,-131,114,-467,176,-171,-186,-246,-261
-70,79,149,-5,-110,113,-423,396,38,-101,-153,-186
-98,60,158,19,-128,108,-400,380,14,-131,-175,-252
-74,80,154,-4,-114,117,-410,407,60,-97,-146,-221
-94,60,154,16,-124,107,-400,403,41,-111,-178,-245
-79,78,156,0,-118,117,-409,429,57,-90,-170,-232
-89,59,148,15,-119,103,-402,439,61,-102,-176,-244
-85,67,152,9,-119,109,-407,431,62,-99,-168,-239
-90,57,147,17,-119,102,-412,443,74,-100,-167,-244
-89,57,146,16,-118,101,-418,436,72,-101,-165,-246
-91,54,145,18,-118,99,-423,443,79,-99,-164,-244
-85,57,143,14,-115,100,-425,443,79,-100,-166,-252
-50,89,139,-19,-95,114,-432,450,80,-93,-164,-247
-50,90,140,-20,-95,115,-443,454,93,-96,-166,-257
-55,85,140,-15,-98,112,-445,461,102,-94,-165,-260
-54,86,140,-16,-97,113,-446,465,100,-95,-164,-260
-64,75,140,-5,-102,107,-463,472,104,-95,-157,-257
-40,95,135,-28,-88,115,-471,493,113,-92,-151,-255
-12,120,132,-54,-72,126,-473,503,131,-89,-145,-254
-15,112,128,-49,-72,120,-483,504,137,-86,-137,-262
-35,91,125,-28,-80,108,-487,523,148,-83,-131,-269
1,120,119,-61,-59,119,-504,536,166,-80,-126,-259
38,162,124,-100,-44,143,-522,526,168,-81,-121,-252
9,150,140,-80,-66,145,-523,521,170,-85,-116,-243
5,144,140,-74,-68,142,-528,514,175,-84,-113,-242
-5,136,141,-66,-73,138,-530,507,162,-87,-107,-245
-17,128,145,-56,-81,136,-530,502,144,-91,-106,-245
-22,123,145,-51,-84,134,-533,494,133,-89,-120,-249
-31,111,143,-40,-87,127,-536,487,122,-95,-129,-250
-34,105,139,-35,-87,122,-532,480,109,-98,-130,-251
-46,94,140,-24,-93,117,-540,472,101,-104,-131,-253
-50,87,136,-19,-93,111,-551,466,99,-111,-129,-258
-56,78,134,-12,-95,106,-549,469,96,-109,-134,-258
-61,75,136,-7,-98,105,-549,470,93,-111,-140,-265
-67,68,134,-1,-101,101,-550,470,90,-109,-137,-262
-71,64,136,3,-104,100,-549,469,91,-123,-133,-269
-78,56,134,11,-107,95,-551,473,98,-132,-130,-261
-81,54,135,13,-109,94,-548,485,104,-129,-124,-269
-89,47,136,21,-113,91,-553,485,105,-130,-130,-259
