I,II,III,aVR,aVL,aVF,V1,V2,V3,V4,V5,V6
-12,-32,-20,22,4,-26,126,125,110,30,-65,-85
-29,-45,-16,37,-6,-30,123,126,113,36,-64,-85
-30,-39,-9,34,-10,-24,128,132,124,57,-59,-81
-29,-32,-3,31,-13,-17,136,145,132,75,-57,-79
-26,-21,5,23,-15,-8,121,144,140,82,-51,-75
-27,-19,9,23,-18,-5,160,139,156,78,-52,-76
-54,-49,5,52,-29,-22,150,138,163,82,-65,-90
-26,-34,-8,30,-9,-21,135,132,157,77,-64,-83
-20,22,42,-1,-32,32,159,155,164,87,-30,-58
6,89,83,-48,-38,86,155,180,181,124,-4,-32
56,116,60,-86,-2,88,152,172,183,129,4,-19
49,104,55,-77,-3,79,124,182,197,143,38,-3
76,122,46,-99,14,84,67,142,179,131,38,31
59,112,52,-86,3,82,-33,50,108,56,-4,31
21,79,58,-51,-19,68,-58,28,57,24,0,20
18,62,44,-40,-13,53,28,73,97,73,24,9
22,55,33,-39,-5,44,83,108,128,86,19,-4
-21,4,25,8,-23,14,111,107,91,42,-31,-34
-98,-77,22,87,-59,-27,104,99,86,33,-66,-77
-109,-90,19,100,-63,-35,116,106,84,30,-63,-81
-94,-80,14,86,-53,-33,132,92,71,16,-68,-80
-105,-94,11,99,-58,-41,129,111,75,17,-61,-79
-130,-116,13,123,-71,-51,132,101,58,0,-70,-81
-131,-116,15,124,-73,-50,126,119,80,19,-58,-79
-179,-132,47,155,-113,-42,151,121,78,10,-67,-91
-151,-80,71,115,-111,-5,316,246,198,91,-32,-71
-56,78,134,-11,-95,106,363,298,347,295,83,-5
172,218,46,-195,63,132,-695,-807,-293,198,270,179
695,216,-479,-455,587,-131,-2111,-2061,-1284,-82,637,541
1014,145,-869,-580,942,-362,-2472,-2578,-1976,-449,819,766
1153,234,-919,-693,1036,-342,-2493,-3140,-2773,-1104,832,931
1182,238,-944,-710,1063,-352,-2545,-3620,-3520,-1857,727,1037
972,50,-922,-511,947,-436,-2306,-3573,-3625,-2233,487,963
805,-132,-937,-336,872,-534,-1846,-3004,-3120,-2137,255,819
590,-307,-897,-141,744,-602,-1313,-2275,-2450,-1891,-81,553
399,-293,-692,-53,546,-492,-886,-1581,-1735,-1464,-200,373
306,-104,-409,-101,358,-256,-514,-932,-1006,-902,-170,276
152,-74,-227,-39,190,-150,-197,-352,-418,-459,-180,121
3,-109,-113,53,58,-111,54,26,-65,-195,-164,-32
-148,-84,64,116,-106,-10,274,331,256,63,-160,-127
-240,-85,156,162,-198,35,409,542,480,249,-120,-159
-242,-80,163,161,-202,41,466,581,521,270,-114,-185
-267,-85,183,176,-225,49,516,667,595,335,-121,-189
-276,-83,193,179,-234,55,547,702,627,362,-123,-205
-296,-79,217,188,-256,69,551,745,664,354,-125,-216
-311,-77,234,194,-272,78,580,806,720,380,-131,-221
-311,-74,237,192,-274,81,620,857,773,413,-140,-246
-342,-70,271,206,-307,100,680,954,856,470,-143,-256
-361,-61,300,211,-330,119,724,1026,914,491,-177,-276
-412,-58,353,235,-382,147,767,1109,989,515,-202,-306
-410,-46,365,228,-387,159,826,1191,1065,559,-219,-333
-423,-49,374,235,-398,162,887,1280,1147,613,-229,-360
-483,-23,460,253,-472,218,952,1363,1231,666,-234,-378
-482,-36,445,259,-463,204,932,1377,1263,690,-241,-390
-477,-57,420,267,-448,181,889,1339,1258,728,-212,-385
-434,-29,405,231,-419,188,830,1257,1210,734,-174,-351
-355,-16,339,185,-346,161,712,1130,1099,705,-120,-297
-291,30,321,130,-306,175,593,952,948,654,-44,-225
-229,31,260,99,-245,145,455,740,749,524,-9,-161
-204,-4,199,103,-202,97,350,558,560,398,-1,-115
-178,-21,158,99,-167,68,272,434,423,310,5,-76
-157,-41,116,99,-136,37,209,339,318,224,9,-60
-160,-31,129,95,-144,49,183,269,248,162,7,-54
-135,-31,104,82,-119,36,162,220,192,105,-1,-44
-149,-68,80,108,-114,6,150,195,162,64,-11,-38
-104,-23,81,63,-93,29,137,189,149,51,-16,-38
-84,-12,72,47,-78,30,129,175,142,49,-31,-41
-140,-71,69,106,-104,-1,130,172,145,51,-59,-39
-122,-60,61,91,-91,0,129,167,145,49,-63,-42
-113,-53,61,83,-87,4,134,174,143,50,-56,-53
-129,-43,87,86,-108,22,150,185,148,49,-50,-49
-139,-20,119,79,-129,49,176,181,174,66,-40,-37
-114,16,130,48,-122,73,201,207,207,112,-15,-28
-114,35,149,39,-132,92,211,221,230,140,-4,-21
-92,91,183,0,-137,137,187,215,258,164,14,-11
-84,111,195,-13,-140,153,119,175,243,185,27,6
-61,118,179,-29,-120,148,68,135,194,171,16,36
11,172,161,-91,-75,166,42,135,187,161,43,54
-73,79,152,-3,-113,115,59,146,181,150,38,28
-104,27,131,38,-118,79,101,171,169,141,24,9
-123,-26,97,74,-110,35,126,179,166,117,-15,-20
-139,-74,65,106,-102,-4,139,167,137,64,-56,-56
-87,-51,37,69,-62,-7,122,170,131,53,-44,-52
-159,-108,51,133,-105,-28,119,138,125,45,-69,-48
-171,-104,67,137,-119,-18,100,115,118,40,-67,-43
-121,-58,63,89,-92,2,108,131,115,33,-50,-39
-111,-43,68,76,-89,12,124,115,101,23,-43,-36
-168,-107,61,137,-114,-23,130,131,108,34,-52,-62
-207,-120,87,164,-147,-16,230,165,129,29,-64,-68
-140,-6,134,73,-137,63,404,326,313,194,14,-28
-19,132,151,-56,-85,141,-166,-232,20,258,155,68
454,234,-220,-344,337,7,-1637,-1587,-974,54,542,421
928,223,-705,-575,816,-241,-2378,-2339,-1747,-209,899,756
1016,246,-769,-631,892,-261,-2382,-2806,-2434,-717,972,931
1053,289,-764,-671,908,-237,-2482,-3378,-3276,-1500,931,1070
943,172,-771,-557,857,-299,-2333,-3490,-3649,-2137,686,1033
794,-5,-799,-394,797,-402,-1930,-3071,-3305,-2208,417,906
628,-174,-802,-226,715,-488,-1416,-2379,-2623,-1955,134,686
392,-291,-684,-50,538,-487,-949,-1688,-1902,-1570,-81,459
282,-207,-489,-37,386,-348,-602,-1074,-1191,-1039,-116,316
168,-125,-294,-21,231,-209,-280,-476,-556,-579,-146,156
75,-109,-184,18,130,-146,-28,-49,-135,-281,-173,-5
-68,-73,-5,71,-32,-39,183,216,154,-43,-177,-120
-188,-71,117,130,-153,23,353,450,404,176,-154,-166
-227,-62,165,144,-196,51,415,551,509,264,-151,-184
-252,-61,191,156,-221,65,435,582,541,272,-148,-196
-236,-54,182,145,-209,64,470,618,591,297,-141,-202
-273,-51,222,162,-248,85,504,674,637,331,-140,-210
-274,-42,232,158,-253,94,552,738,690,374,-129,-218
-268,-40,228,153,-248,94,599,788,745,397,-145,-235
-343,-69,274,206,-308,102,637,859,807,415,-174,-266
-356,-60,296,207,-326,118,685,934,873,441,-197,-284
-357,-58,299,207,-328,121,736,1014,938,470,-232,-323
-416,-44,372,230,-394,164,808,1119,1028,518,-248,-352
-416,-5,411,210,-413,202,856,1181,1088,543,-258,-358
-426,-32,394,228,-409,181,876,1229,1135,564,-283,-401
-398,-4,395,201,-396,195,899,1271,1197,629,-264,-408
-343,42,386,150,-365,214,876,1253,1204,677,-218,-394
-360,21,382,169,-371,201,807,1185,1163,684,-180,-367
-338,27,365,155,-352,196,699,1055,1074,676,-123,-296
-296,15,311,140,-304,163,565,876,923,623,-63,-242
-242,-4,238,123,-240,117,440,695,736,523,-11,-188
-135,47,183,44,-159,115,351,539,567,419,25,-121
-92,57,149,17,-120,103,266,388,414,305,25,-93
-83,18,101,32,-92,60,186,276,285,198,1,-83
-62,3,64,29,-63,33,146,221,209,133,-13,-67
-79,-16,63,47,-71,23,114,182,157,87,-23,-53
-41,17,58,12,-50,37,119,165,133,53,-36,-42
-21,30,50,-5,-36,40,134,153,122,45,-43,-45
-54,-10,44,32,-49,17,126,153,116,44,-47,-45
-43,-6,37,24,-40,15,136,156,123,46,-42,-48
-73,-35,38,53,-55,1,133,153,122,43,-42,-55
-90,-25,65,58,-77,20,137,156,129,49,-37,-39
-45,42,87,1,-66,64,158,158,144,72,-35,-42
-74,2,75,36,-74,38,153,154,145,76,-62,-69
-113,-39,73,76,-93,17,143,144,145,75,-57,-65
-86,-26,59,56,-72,16,130,136,142,73,-44,-56
-99,-16,83,57,-91,34,147,157,173,100,-36,-52
-122,-14,108,68,-115,46,173,168,208,133,-27,-43
-69,22,92,23,-80,56,161,160,208,131,-19,-39
-67,52,118,7,-93,85,157,163,214,138,4,-25
-58,76,135,-9,-97,105,149,154,220,151,17,-12
28,168,141,-99,-57,154,141,161,225,180,47,2
36,146,110,-91,-37,128,90,121,180,150,64,23
44,117,74,-81,-15,95,18,46,127,95,53,30
44,139,95,-92,-26,117,-18,15,114,94,57,32
17,112,94,-65,-39,103,7,50,111,99,46,35
52,114,63,-83,-6,88,88,109,153,132,50,44
-34,7,42,13,-38,24,112,86,145,86,28,5
-130,-94,36,111,-83,-29,99,77,95,17,-33,-59
-109,-78,31,93,-70,-23,110,107,88,30,-41,-70
-85,-56,29,70,-56,-13,99,82,79,21,-40,-70
-49,-29,20,39,-34,-5,111,114,98,22,-43,-69
-92,-71,22,82,-57,-25,113,107,89,19,-47,-71
-62,-75,-13,69,-24,-44,84,90,91,16,-42,-68
-64,-60,3,62,-33,-28,130,117,97,15,-41,-74
-127,-58,69,92,-97,5,324,234,201,89,-19,-77
-77,45,123,16,-100,84,334,250,286,226,50,-35
164,171,7,-168,78,89,-763,-754,-325,166,273,183
711,194,-517,-452,614,-161,-2120,-1881,-1160,23,716,578
1059,188,-872,-623,965,-342,-2399,-2310,-1737,-215,959,825
1158,239,-919,-698,1038,-340,-2413,-2874,-2520,-798,1002,989
1164,193,-971,-678,1067,-389,-2507,-3396,-3308,-1570,926,1096
1055,86,-969,-570,1012,-441,-2298,-3408,-3520,-2049,681,1041
906,-49,-954,-429,930,-501,-1860,-2966,-3137,-2059,406,896
634,-267,-901,-183,768,-584,-1350,-2315,-2510,-1860,76,625
444,-287,-731,-78,588,-509,-925,-1640,-1791,-1468,-90,430
319,-150,-469,-84,394,-309,-576,-1018,-1088,-968,-112,298
194,-103,-297,-45,246,-200,-248,-430,-494,-545,-153,124
105,-46,-151,-30,128,-98,21,1,-90,-238,-176,-8
-83,-70,12,77,-47,-29,225,264,193,-6,-164,-129
-202,-91,111,146,-157,10,391,476,418,167,-141,-168
-195,-46,149,120,-172,51,441,538,486,213,-147,-174
-217,-72,145,144,-180,36,457,578,535,242,-144,-199
-240,-61,179,150,-209,59,515,645,590,282,-145,-194
-275,-66,209,170,-241,71,539,676,618,294,-151,-215
-269,-57,212,163,-241,78,577,728,670,313,-157,-228
-294,-63,231,178,-263,84,609,773,708,326,-181,-260
-323,-57,266,190,-295,104,644,846,770,358,-193,-292
-298,0,298,148,-298,149,723,939,855,404,-201,-291
-377,-49,328,213,-352,139,768,1004,916,414,-241,-331
-424,-64,360,244,-391,147,820,1081,985,440,-273,-359
-430,-44,387,237,-408,171,874,1162,1064,487,-290,-384
-437,-39,398,238,-417,179,912,1235,1133,528,-293,-397
-454,-28,426,240,-440,199,933,1270,1183,582,-271,-383
-451,-15,436,233,-443,210,907,1255,1197,626,-237,-381
-389,-2,387,195,-388,192,834,1188,1150,647,-195,-366
-347,-3,345,175,-346,171,707,1055,1043,637,-139,-311
-237,51,288,93,-263,170,594,899,904,593,-70,-224
-194,31,225,81,-210,128,448,701,712,476,-24,-169
-195,-14,181,104,-188,83,329,515,519,357,4,-123
-133,8,141,62,-137,75,276,401,386,284,25,-77
-106,-9,97,57,-102,44,189,295,275,190,21,-58
-51,2,53,24,-52,27,155,223,203,130,11,-50
-11,24,35,-7,-23,30,147,193,168,91,4,-50
-57,-33,25,45,-41,-4,136,152,122,54,-7,-50
-73,-61,12,67,-42,-25,142,128,89,26,-18,-50
-68,-41,28,54,-48,-7,138,130,89,8,-30,-50
-87,-36,51,62,-69,7,141,130,90,12,-47,-52
-82,-32,50,57,-65,9,139,133,89,7,-49,-57
-76,-22,53,49,-64,15,140,136,91,6,-41,-59
-81,-25,55,52,-68,15,140,133,88,2,-40,-54
-78,-22,56,50,-67,17,139,148,100,13,-32,-48
-71,11,82,30,-77,46,167,164,135,47,-31,-43
-45,65,109,-10,-77,87,209,188,179,99,-8,-37
0,131,131,-66,-66,130,208,216,219,143,22,-29
-16,148,164,-66,-90,156,157,190,225,153,25,-22
-30,136,167,-53,-99,151,94,138,187,161,45,-13
16,138,122,-77,-53,129,44,100,148,134,52,-3
32,129,97,-80,-33,113,18,91,144,115,46,6
28,120,92,-74,-32,106,50,119,149,125,45,14
-4,72,76,-35,-41,74,107,134,146,107,23,-7
-75,-15,60,45,-68,22,118,122,111,64,-25,-48
-101,-50,51,75,-76,0,112,108,73,30,-57,-68
-108,-67,41,87,-74,-13,121,113,79,22,-64,-76
-119,-84,35,101,-76,-25,118,96,70,11,-78,-81
-109,-86,23,98,-65,-32,120,103,82,15,-71,-78
-109,-91,18,99,-63,-36,116,86,75,1,-79,-85
-96,-90,6,93,-51,-42,108,88,92,7,-70,-81
-103,-101,2,102,-52,-49,123,92,81,-6,-82,-90
-118,-70,48,93,-83,-11,285,180,143,44,-79,-67
-109,49,158,30,-133,103,360,240,274,227,20,-28
158,217,59,-188,50,138,-702,-699,-253,216,240,158
715,218,-497,-467,606,-139,-2130,-1810,-1065,67,643,538
1031,155,-877,-593,954,-360,-2435,-2212,-1594,-183,858,762
1152,219,-933,-685,1042,-357,-2441,-2729,-2282,-683,907,924
1202,194,-1008,-697,1104,-407,-2538,-3310,-3117,-1406,856,1020
1106,71,-1035,-588,1070,-482,-2305,-3403,-3425,-1921,637,979
920,-96,-1016,-412,968,-556,-1895,-2993,-3090,-1971,365,848
660,-276,-936,-192,798,-605,-1390,-2367,-2506,-1817,11,577
482,-274,-757,-104,620,-515,-948,-1696,-1796,-1433,-141,388
314,-158,-472,-78,394,-315,-589,-1049,-1106,-935,-150,263
192,-98,-291,-47,242,-194,-255,-454,-532,-547,-199,102
63,-73,-136,5,100,-104,4,-60,-166,-286,-220,-32
-103,-64,39,83,-71,-12,243,240,157,-13,-203,-128
-169,-62,108,115,-138,23,390,464,388,180,-152,-156
-221,-89,132,154,-176,22,443,525,436,213,-136,-162
-205,-47,158,125,-181,56,469,595,510,254,-129,-184
-221,-33,187,127,-204,77,492,616,527,269,-147,-199
-277,-86,191,182,-234,52,546,635,552,282,-174,-219
-258,-56,203,157,-230,73,575,704,617,309,-160,-224
-276,-47,229,161,-252,90,605,772,670,335,-164,-227
-317,-39,277,178,-297,119,643,844,735,360,-188,-250
-315,-25,290,170,-302,133,693,915,795,395,-217,-276
-314,-1,313,157,-313,156,775,1014,879,454,-225,-290
-364,10,374,177,-368,192,832,1109,958,499,-221,-308
-433,-44,389,238,-411,172,864,1166,1020,526,-248,-352
-455,-43,413,249,-434,185,900,1222,1083,568,-252,-372
-479,-30,449,254,-464,209,920,1263,1144,631,-220,-371
-456,-32,424,244,-440,196,878,1259,1159,669,-186,-353
-348,24,372,162,-360,198,795,1176,1115,675,-144,-303
-303,26,329,138,-317,178,677,1016,1002,643,-87,-249
-231,34,265,98,-248,149,548,835,830,568,-35,-187
-161,70,230,45,-196,150,429,651,656,476,3,-135
-136,70,206,33,-171,138,328,493,503,369,39,-84
-65,69,135,-2,-100,102,250,354,362,256,30,-50
-88,-2,86,45,-87,41,170,249,240,157,0,-51
-88,-32,56,59,-71,12,139,194,176,109,-21,-49
-56,-13,44,34,-50,15,131,155,142,89,-33,-46
-84,-2,81,43,-82,39,123,125,114,63,-35,-45
-65,-5,60,35,-63,27,123,118,85,32,-52,-46
-56,-30,25,43,-40,-3,113,121,66,10,-62,-50
-61,-31,31,46,-46,0,115,119,66,9,-58,-50
-26,-26,0,26,-13,-13,98,120,53,-6,-61,-50
-67,-22,44,44,-55,11,101,120,71,9,-76,-50
-94,-25,69,59,-82,22,127,123,105,46,-74,-50
-6,15,22,-5,-14,18,124,140,121,57,-63,-53
-54,-6,48,30,-51,21,125,151,136,66,-58,-56
-120,-62,58,91,-89,-3,125,149,134,59,-51,-60
-95,-41,54,68,-74,6,125,150,137,67,-44,-59
-106,-49,57,77,-81,4,122,150,141,78,-38,-55
-79,-28,51,53,-65,11,116,149,139,71,-34,-55
-22,31,53,-4,-38,42,110,147,137,72,-32,-55
-35,11,46,12,-41,28,107,144,133,65,-29,-54
-78,-25,53,52,-65,14,98,144,137,67,-25,-56
-60,-24,36,42,-48,5,96,137,133,59,-26,-47
-54,18,72,18,-63,45,113,146,141,73,5,-30
-74,69,142,2,-108,105,123,169,172,113,44,-17
0,109,109,-54,-55,108,143,162,180,120,46,-5
70,151,81,-111,-6,116,113,151,185,119,50,2
63,140,76,-102,-7,108,46,140,168,103,50,12
74,124,50,-99,12,87,-21,80,115,87,50,17
72,109,37,-91,17,73,-73,23,105,87,50,28
68,94,26,-81,21,60,-29,53,118,81,50,35
42,82,40,-62,1,61,23,85,102,82,48,36
-29,33,63,-2,-46,48,46,74,79,46,18,8
-64,-24,40,44,-52,8,67,66,67,2,-28,-41
-59,-43,16,51,-37,-13,81,87,68,11,-45,-46
-49,-27,22,38,-35,-3,87,90,61,13,-43,-45
-63,-51,13,56,-38,-19,84,88,59,16,-34,-44
-85,-61,24,73,-54,-18,95,95,54,14,-34,-46
-46,-11,34,28,-40,11,86,81,58,14,-26,-42
-46,-41,5,43,-25,-18,109,107,64,16,-30,-55
-104,-60,44,82,-74,-7,207,133,89,28,-47,-71
-100,28,128,36,-114,77,393,302,292,182,20,-43
35,193,158,-114,-62,175,-195,-273,62,248,164,76
513,289,-224,-401,368,32,-1736,-1580,-780,107,519,422
966,191,-774,-578,870,-291,-2511,-2243,-1475,-149,798,695
1132,219,-913,-675,1022,-347,-2511,-2703,-2125,-629,825,827
1229,275,-955,-752,1091,-340,-2589,-3349,-2989,-1361,791,966
1139,151,-988,-644,1063,-418,-2481,-3631,-3510,-1980,595,953
943,-38,-981,-452,962,-509,-2124,-3317,-3303,-2090,370,848
767,-189,-956,-289,862,-572,-1607,-2667,-2733,-1954,51,628
570,-239,-809,-165,690,-524,-1103,-1974,-2071,-1676,-197,402
354,-172,-526,-91,440,-349,-721,-1321,-1371,-1174,-197,280
226,-50,-276,-88,252,-163,-371,-676,-706,-670,-177,159
159,1,-159,-80,159,-78,-66,-159,-230,-324,-150,39
-17,1,18,8,-18,10,176,157,82,-81,-137,-85
-188,-50,137,119,-162,43,352,419,355,125,-123,-161
-216,-65,151,140,-183,42,436,534,463,215,-119,-186
-224,-54,170,139,-197,58,482,590,509,249,-121,-193
-264,-66,198,165,-231,66,492,646,563,273,-118,-197
-283,-60,223,171,-252,81,517,674,594,286,-127,-211
-279,-71,209,174,-244,69,565,721,631,310,-135,-228
-281,-60,221,170,-251,80,595,783,686,340,-150,-242
-319,-58,262,188,-290,102,639,863,755,376,-153,-257
-327,-52,275,189,-301,111,678,936,821,398,-168,-275
-348,-40,308,194,-328,134,732,1025,904,440,-187,-285
-383,-57,325,220,-354,134,782,1112,977,483,-205,-321
-395,-42,353,218,-374,155,847,1209,1075,532,-222,-355
-427,-25,402,226,-414,188,893,1292,1158,585,-224,-363
-418,-6,412,212,-415,203,910,1317,1202,623,-216,-371
-435,-13,423,224,-429,205,930,1328,1224,667,-199,-369
-444,-33,412,238,-428,189,870,1286,1214,696,-173,-361
-364,4,368,180,-366,185,761,1160,1136,676,-125,-334
-300,30,330,135,-315,179,645,985,979,609,-65,-274
-256,11,266,122,-261,138,518,791,806,529,-25,-210
-213,-24,188,118,-200,82,398,606,618,420,-17,-164
-157,-19,138,87,-147,59,303,454,461,310,-13,-117
-98,-7,91,52,-94,42,234,321,333,215,-11,-82
-54,1,55,26,-55,28,185,227,231,141,-15,-62
-46,-2,44,24,-45,21,157,174,162,90,-34,-54
-65,-21,44,42,-54,11,138,139,121,53,-42,-56
-58,-9,49,33,-53,20,135,134,106,33,-40,-52
-64,-14,50,39,-57,18,131,131,89,12,-55,-50
-76,-22,55,49,-65,16,130,129,82,-2,-61,-49
-116,-62,54,88,-85,-3,124,125,60,-14,-87,-70
-129,-79,50,104,-90,-14,126,125,66,0,-104,-84
-116,-66,50,91,-83,-8,147,116,102,-2,-97,-83
-121,-70,50,96,-85,-10,150,111,105,-18,-96,-81
-107,-57,50,82,-78,-4,153,137,111,8,-87,-74
-117,-67,50,92,-83,-9,153,145,113,31,-84,-71
-76,-25,52,50,-64,13,159,160,131,50,-76,-66
-71,-10,61,40,-66,25,150,167,167,68,-69,-62
-90,6,96,42,-93,51,181,185,191,111,-43,-57
-74,59,133,7,-104,96,210,203,215,141,-15,-48
-57,83,141,-14,-99,112,177,194,219,146,-17,-38
11,149,138,-81,-64,143,143,176,215,164,21,-25
45,156,111,-101,-33,133,78,125,180,138,41,-10
49,132,83,-91,-17,107,38,98,124,115,26,2
18,129,111,-73,-47,119,31,100,116,110,21,10
-9,96,105,-44,-57,100,59,115,132,97,10,14
-8,37,45,-15,-26,40,97,129,133,83,-3,-7
-61,-43,18,52,-39,-13,84,119,99,38,-49,-53
-75,-56,18,65,-46,-18,78,116,68,19,-64,-58
-59,-29,30,44,-44,1,75,118,66,18,-52,-45
-105,-72,33,88,-69,-20,63,108,62,10,-68,-61
-124,-109,16,116,-70,-46,111,124,66,14,-72,-70
-110,-95,15,102,-62,-40,132,103,53,-2,-81,-72
-83,-85,-2,84,-40,-44,111,126,67,18,-66,-66
-122,-92,30,107,-76,-31,160,120,69,6,-87,-76
-122,-26,96,74,-109,35,375,297,251,137,-34,-46
-27,119,145,-46,-86,132,235,166,274,295,88,18
266,224,-42,-245,154,91,-1090,-1137,-567,121,327,254
774,203,-571,-488,672,-184,-2309,-2232,-1508,-148,710,633
984,171,-814,-577,899,-322,-2461,-2688,-2163,-551,831,817
1101,284,-816,-692,958,-266,-2508,-3252,-2967,-1213,849,981
1136,281,-855,-708,995,-287,-2485,-3580,-3574,-1912,728,1052
929,88,-842,-508,885,-376,-2162,-3371,-3512,-2213,446,937
712,-141,-853,-285,782,-497,-1672,-2737,-2939,-2092,161,750
505,-303,-809,-101,657,-556,-1162,-2009,-2235,-1784,-111,510
432,-195,-627,-118,530,-411,-749,-1324,-1490,-1264,-126,383
274,-102,-376,-86,325,-239,-399,-697,-797,-755,-124,241
107,-143,-250,18,179,-197,-135,-199,-298,-410,-187,70
26,-100,-126,37,76,-112,102,120,26,-152,-176,-51
-135,-91,44,113,-89,-23,303,388,314,104,-147,-131
-203,-92,111,148,-157,9,402,549,486,247,-138,-156
-196,-72,123,134,-159,25,435,586,523,258,-141,-178
-193,-52,142,122,-167,45,464,643,580,296,-140,-173
-225,-58,167,142,-196,54,496,688,622,328,-139,-181
-209,-64,146,136,-177,41,530,741,660,347,-141,-208
-212,-24,189,118,-200,82,570,817,744,390,-144,-202
-287,-32,255,160,-271,111,609,875,798,413,-155,-216
-318,-72,247,195,-282,87,662,923,836,424,-200,-271
-346,-82,264,213,-305,91,710,1018,918,467,-206,-286
-322,-56,267,189,-294,105,761,1109,994,496,-211,-297
-365,-52,314,208,-339,131,828,1174,1068,525,-248,-345
-411,-57,354,234,-382,148,869,1243,1132,568,-252,-368
-377,-33,344,205,-360,155,881,1298,1189,626,-250,-370
-417,-40,378,228,-398,169,886,1306,1226,665,-241,-373
-378,-26,352,201,-365,163,832,1245,1186,684,-210,-359
-345,-7,339,176,-342,166,728,1133,1122,697,-163,-324
-317,-23,293,170,-305,135,625,981,1004,656,-91,-259
-214,-9,206,111,-210,99,491,798,820,571,-23,-186
-174,7,181,83,-178,94,378,620,642,443,0,-137
-125,18,143,53,-134,80,291,458,479,334,10,-92
-117,-11,106,64,-112,47,211,335,345,245,15,-52
-85,-2,83,43,-84,40,178,273,268,182,3,-35
-53,15,67,19,-60,41,151,227,208,134,-8,-34
-90,-34,55,62,-72,10,138,183,167,87,-32,-36
-77,-30,46,53,-61,8,133,152,150,83,-46,-40
-59,-19,40,39,-49,10,124,149,134,73,-47,-39
-31,-2,30,16,-30,14,121,150,133,69,-51,-47
-31,-6,25,18,-28,10,109,150,138,69,-46,-47
-49,-31,18,40,-33,-7,124,149,140,63,-45,-42
-60,-39,20,49,-40,-9,142,151,145,64,-40,-62
-70,-60,10,64,-40,-24,143,162,146,56,-40,-66
-33,3,36,15,-34,19,148,178,166,70,-33,-64
-74,6,80,34,-77,43,139,188,186,90,-39,-65
-76,-37,39,57,-57,1,132,191,195,90,-36,-65
-52,-28,25,40,-38,-1,121,189,195,92,-23,-63
-56,18,74,18,-65,46,139,189,204,115,-22,-41
-12,102,115,-45,-64,108,174,210,237,160,26,-17
-46,70,117,-12,-82,93,152,189,237,180,39,-4
-10,114,124,-52,-67,118,129,161,232,184,45,10
27,153,126,-90,-50,140,74,129,194,162,72,17
12,131,120,-72,-54,126,-7,86,152,127,61,24
64,193,128,-129,-33,160,-11,90,156,121,55,40
63,150,87,-107,-12,118,27,101,157,117,51,30
18,65,47,-42,-15,56,60,112,149,97,34,2
-56,-26,29,41,-42,1,79,101,103,53,-18,-43
-95,-79,17,87,-56,-31,73,80,79,38,-49,-71
-74,-78,-3,76,-35,-40,75,89,85,37,-50,-70
-107,-81,26,94,-67,-27,77,81,74,25,-58,-76
-111,-81,31,96,-71,-25,70,91,75,24,-52,-76
-82,-86,-4,84,-39,-44,85,98,69,11,-57,-82
-87,-83,4,85,-45,-39,71,88,66,20,-53,-75
-79,-85,-6,81,-36,-45,94,116,63,7,-56,-70
-75,-40,35,57,-55,-2,235,219,161,63,-33,-54
-93,15,108,39,-101,61,347,322,309,207,21,-42
76,165,89,-121,-7,127,-429,-480,-164,186,199,110
577,239,-339,-408,458,-50,-1891,-1782,-1108,53,640,502
984,204,-780,-594,882,-288,-2404,-2375,-1788,-180,953,789
1072,282,-790,-677,931,-254,-2409,-2847,-2494,-703,1038,979
1080,290,-791,-685,935,-250,-2525,-3376,-3303,-1521,959,1106
980,179,-801,-579,890,-311,-2309,-3419,-3574,-2123,674,1039
723,-55,-778,-333,750,-416,-1901,-2966,-3198,-2157,387,886
601,-195,-795,-203,698,-495,-1377,-2250,-2517,-1905,107,660
499,-199,-698,-150,599,-449,-945,-1593,-1794,-1485,-66,457
257,-190,-447,-33,352,-318,-604,-1030,-1122,-987,-131,305
169,-127,-295,-21,232,-211,-273,-437,-508,-543,-156,147
93,-107,-201,7,147,-154,-20,-34,-118,-256,-169,-13
-50,-66,-16,58,-17,-41,205,241,176,-20,-174,-130
-133,-43,90,88,-112,24,353,462,421,186,-156,-164
-172,-58,114,115,-143,28,415,514,478,229,-158,-189
-186,-53,133,120,-159,40,445,568,525,262,-148,-208
-201,-48,153,124,-177,52,476,612,568,285,-148,-215
-208,-35,173,122,-190,68,506,661,623,311,-138,-214
-241,-30,211,135,-226,90,547,714,678,341,-149,-231
-228,-13,215,120,-222,101,584,756,714,349,-175,-267
-249,-26,222,137,-235,98,627,831,780,378,-203,-293
-343,-73,270,207,-306,98,691,900,828,385,-236,-328
-350,-60,290,205,-319,115,743,987,900,408,-260,-350
-340,-46,295,193,-317,124,805,1052,963,444,-297,-384
-382,-43,339,213,-360,148,873,1127,1026,479,-318,-419
-401,-28,373,214,-387,172,892,1201,1105,518,-332,-441
-414,-31,383,222,-398,176,890,1226,1141,557,-325,-454
-395,-1,394,198,-394,196,894,1245,1174,626,-287,-432
-347,17,364,165,-356,190,812,1194,1162,669,-228,-387
-297,28,325,135,-311,176,682,1039,1046,644,-169,-338
-222,41,263,90,-242,152,571,843,873,565,-118,-277
-174,25,199,74,-187,112,450,663,692,472,-56,-207
-154,22,175,66,-165,98,342,505,527,378,-15,-154
-104,19,123,42,-114,71,242,369,378,273,-3,-116
-53,22,75,15,-65,48,188,272,267,190,-6,-79
-2,57,59,-28,-31,57,182,213,210,131,-4,-63
8,46,38,-27,-15,42,168,170,169,83,-11,-69
-51,-25,27,38,-39,1,136,129,119,50,-37,-70
-30,-25,5,27,-17,-10,110,108,84,35,-53,-70
-34,-15,20,24,-27,3,121,111,86,34,-60,-69
-68,-23,46,45,-57,11,124,109,83,17,-58,-71
-44,-9,35,26,-39,13,125,110,81,-10,-67,-69
-53,-24,29,39,-41,2,125,110,80,-9,-75,-68
-56,-31,25,43,-40,-3,121,107,80,-8,-69,-59
-37,-1,36,19,-37,17,162,140,120,12,-65,-51
-43,-6,37,24,-40,16,178,156,131,32,-62,-82
-56,22,79,17,-68,51,182,160,158,53,-52,-68
-23,81,104,-29,-64,93,172,170,191,72,-33,-47
-18,90,109,-37,-63,99,173,174,214,110,2,-38
17,166,149,-92,-66,157,147,174,249,149,32,15
117,225,108,-171,4,166,50,129,178,105,19,23
110,192,82,-151,14,137,20,71,112,91,0,13
61,132,71,-96,-5,101,23,57,120,96,9,5
19,73,55,-46,-18,64,66,96,135,85,22,-4
12,42,30,-27,-9,36,87,129,134,68,-3,-17
-2,-16,-13,9,6,-15,88,113,94,12,-48,-54
-97,-76,20,86,-58,-28,112,104,89,2,-56,-61
-91,-89,2,90,-46,-43,111,101,76,-11,-69,-68
-22,-64,-42,43,10,-53,107,89,53,-32,-78,-65
-45,-82,-38,64,-3,-60,113,97,52,-28,-76,-57
-13,-38,-25,26,6,-31,108,77,43,-33,-85,-50
16,-12,-29,-2,22,-20,106,81,73,-19,-81,-51
-93,-102,-10,98,-42,-56,162,80,61,-35,-89,-89
-86,-45,41,66,-64,-2,370,265,222,70,-43,-78
-29,85,114,-29,-72,99,102,9,150,161,53,-8
346,218,-128,-282,237,45,-1293,-1223,-636,76,375,293
908,219,-689,-563,799,-235,-2321,-2069,-1364,-45,796,668
1083,196,-887,-639,985,-345,-2381,-2457,-1946,-382,939,847
1142,260,-882,-701,1012,-311,-2489,-3069,-2778,-1037,969,1027
1069,167,-902,-617,985,-368,-2458,-3457,-3435,-1775,813,1076
939,51,-887,-495,913,-418,-2115,-3270,-3388,-2075,568,992
761,-137,-898,-312,830,-517,-1647,-2692,-2875,-1995,271,798
528,-283,-811,-122,670,-547,-1162,-2029,-2210,-1731,-43,530
369,-211,-580,-79,474,-395,-761,-1381,-1482,-1245,-98,394
218,-132,-350,-42,285,-241,-420,-771,-827,-769,-129,235
114,-90,-204,-11,159,-147,-119,-231,-307,-403,-172,74
-45,-75,-30,60,-7,-52,129,103,21,-152,-178,-48
-168,-69,99,118,-133,15,306,360,313,87,-169,-130
-197,-59,138,128,-168,39,424,501,460,212,-151,-154
-217,-52,165,135,-191,56,463,541,499,238,-146,-170
-264,-65,199,165,-232,67,485,605,568,280,-130,-161
-264,-69,195,166,-229,63,538,624,588,280,-143,-180
-268,-57,211,162,-239,77,564,674,633,304,-157,-197
-298,-55,243,177,-270,93,592,739,685,338,-166,-212
-302,-41,261,172,-281,110,647,815,754,376,-171,-230
-361,-47,314,203,-337,133,687,893,820,393,-194,-254
-354,-8,346,181,-350,169,738,959,887,416,-215,-280
-374,-23,351,198,-362,164,803,1030,955,458,-242,-311
-447,-76,371,261,-408,147,847,1105,1018,482,-280,-354
-461,-37,424,248,-442,193,902,1203,1115,538,-275,-359
-473,-31,442,252,-457,205,919,1256,1174,573,-267,-374
-454,-24,430,239,-442,203,907,1254,1192,620,-238,-372
-419,-2,418,210,-418,208,877,1231,1182,668,-195,-336
-367,6,373,180,-370,189,764,1134,1129,644,-149,-293
-289,48,337,121,-314,192,631,965,983,593,-81,-229
-215,65,280,75,-248,172,497,777,793,525,-20,-168
-163,42,206,60,-185,124,374,604,624,426,17,-106
-115,40,155,37,-135,98,294,462,468,310,16,-57
-94,21,115,36,-105,68,219,338,336,211,5,-36
-94,-8,86,51,-90,39,162,241,229,133,-2,-31
-86,-15,72,50,-79,28,146,199,175,89,-12,-26
-95,-26,69,60,-81,21,139,179,142,69,-20,-23
-67,-1,66,33,-66,32,126,161,117,51,-29,-17
-47,17,64,15,-55,40,123,158,107,44,-38,-17
-76,-18,59,47,-67,20,125,163,104,44,-50,-38
-87,-34,54,60,-70,10,124,168,105,45,-51,-40
-44,5,49,20,-47,26,129,169,109,48,-48,-28
-49,-3,46,26,-47,21,130,164,110,54,-60,-42
-87,-48,39,67,-63,-4,130,165,97,57,-66,-51
-82,-44,38,63,-60,-2,134,162,119,63,-65,-49
-103,-41,63,71,-83,11,135,159,153,87,-63,-50
-103,-39,65,71,-84,13,139,160,158,91,-59,-50
-80,-25,55,52,-67,15,139,162,158,88,-61,-50
-69,7,75,31,-72,41,154,183,178,123,-49,-46
-69,39,108,15,-89,73,167,197,203,150,-23,-35
-58,63,121,-3,-89,92,161,186,205,148,-10,-24
-17,93,110,-38,-64,102,143,183,221,156,6,-10
43,140,97,-92,-28,118,90,171,206,178,40,29
74,162,88,-119,-7,125,37,113,154,144,67,57
58,140,82,-99,-12,111,21,77,150,112,58,46
33,108,75,-70,-22,91,7,75,152,114,45,41
0,72,73,-36,-37,72,28,98,149,111,34,33
-39,-3,36,21,-38,17,79,135,137,92,-11,-14
-72,-72,0,72,-36,-36,92,125,83,40,-38,-51
-33,-33,-1,33,-16,-17,107,133,84,27,-43,-60
-67,-46,21,56,-44,-13,114,123,107,22,-61,-66
-109,-91,19,100,-64,-36,104,119,115,18,-64,-64
-84,-69,15,76,-50,-27,112,121,112,11,-65,-65
-85,-70,15,77,-50,-27,96,101,119,5,-60,-61
-60,-57,3,58,-31,-27,117,130,120,17,-60,-55
-112,-59,53,86,-83,-3,253,174,138,45,-51,-49
-122,-12,110,67,-116,49,408,304,297,199,7,-42
69,170,100,-120,-16,135,-351,-352,-31,245,174,90
566,249,-317,-407,442,-34,-1898,-1563,-824,129,570,448
1014,228,-787,-622,901,-279,-2446,-2084,-1401,-51,869,744
1147,252,-895,-699,1020,-321,-2388,-2555,-2066,-493,938,888
1193,195,-998,-693,1095,-401,-2535,-3211,-2944,-1233,888,1006
1109,92,-1018,-600,1063,-463,-2401,-3432,-3415,-1852,678,993
939,-45,-985,-447,962,-515,-2029,-3116,-3191,-1975,426,864
697,-252,-949,-222,823,-600,-1518,-2494,-2623,-1838,110,632
493,-292,-785,-100,639,-538,-1045,-1809,-1925,-1503,-76,416
349,-162,-511,-94,430,-336,-678,-1172,-1222,-1024,-106,301
212,-110,-322,-51,267,-216,-332,-577,-625,-616,-169,147
88,-100,-188,6,138,-143,-50,-125,-211,-318,-196,-16
-45,-55,-10,50,-18,-32,194,189,108,-55,-172,-119
-142,-48,94,95,-118,23,362,445,376,162,-146,-166
-209,-91,118,149,-163,13,409,512,441,211,-152,-191
-232,-95,137,163,-185,21,434,552,479,241,-155,-205
-246,-76,170,161,-208,47,491,619,538,279,-158,-204
-243,-73,170,158,-207,48,520,641,568,283,-163,-218
-260,-58,203,159,-231,72,541,682,613,308,-166,-233
-272,-51,220,161,-246,84,578,735,660,336,-181,-255
-288,-48,239,168,-263,95,642,823,733,377,-192,-260
-327,-49,279,188,-303,114,702,907,800,413,-207,-271
-345,-44,301,194,-323,129,727,965,848,425,-231,-318
-375,-38,337,206,-356,150,790,1059,931,470,-251,-341
-407,-48,358,227,-382,155,838,1152,1008,518,-256,-366
-425,-18,407,221,-416,194,888,1236,1085,564,-254,-378
-426,20,445,203,-436,232,934,1286,1161,633,-257,-367
-394,18,412,188,-404,215,891,1259,1152,654,-237,-369
-366,0,366,183,-366,183,821,1202,1115,664,-189,-345
-304,18,322,143,-313,170,726,1097,1057,657,-135,-293
-249,27,276,111,-263,152,591,921,898,595,-80,-231
-216,12,229,102,-223,120,456,724,713,503,-32,-168
-103,48,151,27,-127,99,339,548,544,390,-14,-131
-66,18,84,24,-75,51,240,394,379,280,-18,-103
-70,1,71,34,-70,36,183,288,274,200,-23,-73
-21,45,66,-12,-44,55,168,222,209,150,-27,-64
-10,41,50,-16,-30,45,153,173,156,96,-32,-65
-11,23,33,-6,-22,28,130,146,116,52,-39,-65
-11,11,22,0,-17,16,107,131,90,28,-50,-65
-34,-18,16,26,-25,-1,104,127,90,19,-63,-64
-58,-50,8,54,-33,-21,110,120,89,21,-66,-69
-46,-44,3,45,-24,-20,112,118,90,19,-62,-70
-18,-27,-10,23,-4,-18,120,111,90,21,-60,-70
-8,-7,1,7,-4,-3,130,110,89,18,-56,-75
-29,9,38,9,-33,23,133,130,104,30,-55,-75
-35,36,72,-1,-54,54,157,150,131,60,-46,-74
-40,70,111,-15,-75,90,187,180,170,95,-20,-49
-38,96,134,-29,-86,115,186,184,204,132,2,-31
22,152,130,-88,-54,141,151,175,211,155,12,-29
76,180,104,-129,-14,142,86,140,195,155,-2,-26
99,188,88,-144,5,138,29,93,155,127,-6,-24
92,172,81,-132,5,126,9,93,133,106,13,-10
51,117,66,-84,-8,91,46,103,145,105,5,-17
3,64,61,-34,-29,62,88,115,143,104,-11,-39
-50,10,60,20,-55,35,117,118,130,71,-52,-82
-62,-4,58,33,-60,27,140,107,113,38,-66,-101
-109,-33,76,70,-92,22,143,117,111,43,-42,-81
-150,-58,92,104,-121,17,134,101,105,36,-39,-78
-144,-60,85,102,-114,12,139,122,116,45,-34,-62
-150,-68,82,109,-116,7,131,109,106,35,-64,-58
-101,-21,80,61,-90,29,142,119,122,45,-54,-43
-115,-44,70,79,-92,13,165,122,108,26,-53,-59
-188,-84,103,136,-145,9,321,204,176,73,-51,-82
-160,50,210,55,-185,130,380,241,310,263,59,-19
130,210,80,-170,24,145,-772,-829,-300,178,257,174
679,255,-424,-467,551,-84,-2165,-1998,-1187,-30,650,556
1020,226,-794,-623,907,-284,-2430,-2420,-1773,-318,834,780
1124,243,-881,-683,1002,-318,-2478,-2999,-2566,-953,817,901
1116,219,-898,-667,1006,-339,-2546,-3534,-3370,-1730,732,1008
997,89,-908,-543,952,-409,-2320,-3542,-3557,-2156,503,956
866,-55,-921,-405,894,-488,-1844,-3016,-3096,-2089,284,836
590,-284,-874,-153,733,-579,-1322,-2321,-2461,-1884,-62,551
395,-275,-670,-59,533,-472,-906,-1634,-1748,-1463,-181,369
298,-95,-393,-101,346,-244,-524,-983,-1020,-905,-122,285
153,-64,-217,-45,185,-140,-214,-406,-442,-488,-150,127
5,-54,-59,25,33,-57,61,2,-58,-191,-145,-3
-100,-29,70,64,-84,20,286,288,241,52,-147,-104
-137,15,152,61,-145,83,446,521,476,236,-126,-121
-225,-52,173,138,-198,60,472,559,516,269,-116,-154
-261,-83,178,172,-219,47,474,598,546,278,-116,-176
-293,-61,232,177,-262,85,548,671,602,323,-112,-176
-318,-82,236,200,-277,77,551,709,637,329,-126,-206
-307,-66,240,187,-274,87,569,772,693,353,-139,-207
-312,-69,242,190,-277,86,627,832,744,391,-142,-222
-317,-64,253,190,-285,95,678,926,830,433,-137,-234
-359,-60,299,209,-329,119,727,1014,908,466,-148,-251
-381,-61,320,221,-350,129,773,1087,966,487,-180,-287
-400,-59,340,229,-370,140,838,1178,1045,536,-202,-313
-409,-60,349,234,-379,144,886,1260,1120,587,-213,-350
-433,-61,372,246,-402,156,904,1327,1187,632,-216,-366
-455,-41,414,248,-435,186,902,1333,1233,685,-197,-360
-401,-19,382,210,-391,181,869,1286,1222,718,-159,-344
-325,-5,320,165,-323,157,781,1198,1148,704,-109,-297
-279,4,282,137,-281,143,647,1037,1016,659,-61,-246
-207,28,235,89,-221,132,511,834,832,569,-27,-189
-129,55,184,37,-157,120,391,645,643,458,2,-125
-94,46,140,24,-118,93,288,479,466,345,21,-90
-74,19,93,28,-84,56,212,335,315,227,12,-74
-92,-28,65,60,-78,18,169,251,228,153,-1,-52
-61,-2,59,31,-60,28,159,211,167,102,-7,-43
-39,7,46,16,-43,26,146,174,123,72,-18,-39
-75,-35,40,55,-57,2,133,145,110,50,-44,-33
-76,-46,30,61,-53,-7,112,128,109,16,-61,-32
-48,-25,23,36,-35,-1,107,122,111,17,-39,-22
-50,-34,16,42,-33,-9,145,106,109,21,-46,-41
-78,-76,2,77,-40,-37,151,127,110,18,-68,-66
-57,-43,14,50,-35,-14,151,164,111,21,-63,-65
-72,-38,34,55,-53,-2,155,165,117,19,-65,-71
-89,-42,48,65,-68,3,159,168,138,44,-58,-71
-63,-38,25,50,-44,-6,169,171,139,62,-62,-77
-51,-35,16,43,-33,-9,160,175,144,58,-56,-71
-90,-35,54,62,-71,9,151,173,162,67,-52,-64
-88,-32,57,60,-72,12,145,167,157,77,-44,-51
-9,18,27,-5,-18,22,135,159,170,97,-29,-32
-43,-36,7,39,-25,-14,123,165,181,117,-60,-65
-70,-28,42,49,-56,7,142,173,180,114,-41,-57
-21,67,87,-23,-54,77,160,169,185,114,-3,-26
-24,76,100,-27,-62,88,168,161,187,123,5,-22
-10,80,90,-35,-50,84,146,155,182,124,29,-3
51,120,69,-86,-9,95,95,151,182,109,35,24
94,153,59,-124,17,106,37,105,146,95,33,30
75,123,48,-99,13,85,-40,68,68,87,16,23
49,90,41,-70,4,65,-26,80,74,78,7,17
48,84,37,-66,5,60,52,97,121,76,39,14
24,54,30,-39,-3,42,61,105,110,43,21,1
-28,-8,20,18,-23,6,64,85,91,-13,-48,-48
-54,-49,5,51,-29,-22,95,93,90,-14,-65,-71
-45,-59,-14,52,-15,-36,93,88,79,-16,-68,-70
-38,-73,-36,56,-1,-54,82,81,74,-14,-70,-70
-46,-77,-30,62,-7,-53,89,92,73,-14,-66,-76
-60,-73,-13,67,-23,-43,68,73,73,-18,-65,-74
-62,-77,-15,69,-23,-46,88,117,87,1,-62,-73
-108,-74,34,91,-71,-20,197,164,113,19,-68,-69
-96,11,106,42,-101,59,403,333,324,193,1,-36
97,218,121,-158,-12,169,-155,-228,55,248,148,67
485,274,-211,-379,347,32,-1678,-1625,-925,68,511,403
873,192,-681,-533,777,-244,-2439,-2378,-1698,-173,849,720
1029,265,-764,-647,896,-250,-2445,-2818,-2381,-669,935,902
1065,326,-739,-695,901,-206,-2533,-3382,-3225,-1447,908,1053
994,236,-758,-615,876,-261,-2372,-3527,-3636,-2099,649,1006
819,39,-781,-429,800,-371,-1978,-3119,-3311,-2179,382,877
631,-181,-813,-225,722,-497,-1479,-2423,-2654,-1958,120,674
466,-257,-722,-104,594,-489,-1018,-1747,-1952,-1604,-93,457
312,-185,-497,-63,405,-341,-650,-1118,-1232,-1060,-79,349
211,-135,-346,-38,279,-240,-326,-517,-601,-586,-102,194
132,-114,-246,-8,189,-180,-74,-76,-169,-291,-174,7
-30,-91,-62,60,16,-76,150,196,118,-73,-180,-121
-150,-74,76,112,-112,1,330,437,389,153,-159,-166
-161,-50,111,105,-136,30,422,545,501,252,-159,-185
-187,-74,113,130,-150,20,440,579,523,263,-166,-200
-246,-88,158,166,-202,35,476,645,584,297,-166,-204
-263,-77,185,170,-224,54,499,666,609,309,-172,-243
-257,-76,181,166,-219,53,526,708,652,330,-163,-246
-261,-69,192,164,-226,62,579,774,709,355,-173,-246
-268,-61,207,164,-237,73,605,829,752,363,-218,-288
-314,-73,241,193,-277,83,667,903,817,389,-227,-301
-395,-83,311,239,-353,114,724,981,887,410,-254,-325
-404,-67,337,235,-370,135,773,1065,953,442,-298,-363
-386,-53,333,219,-359,140,836,1140,1024,489,-311,-389
-397,-43,354,219,-375,156,865,1205,1097,516,-329,-427
-432,-45,387,238,-409,171,881,1245,1148,561,-330,-434
-450,-50,399,250,-425,174,860,1225,1161,606,-320,-439
-396,-40,356,218,-376,158,803,1189,1157,645,-275,-419
-341,-15,326,178,-333,155,719,1077,1084,643,-204,-358
-283,16,299,133,-291,157,591,891,929,575,-139,-305
-218,28,245,95,-232,136,455,714,755,504,-78,-226
-159,23,182,68,-171,102,344,538,579,410,-33,-165
-95,27,122,34,-109,74,256,388,423,300,-12,-125
-64,24,88,20,-76,55,178,268,297,207,-6,-97
-49,21,70,14,-60,45,134,198,226,142,-7,-86
-55,5,60,25,-57,32,118,167,175,100,-19,-72
-53,-2,51,28,-52,24,109,143,132,77,-31,-69
-17,24,40,-4,-29,32,105,118,113,66,-46,-66
-59,-23,36,41,-48,7,100,87,83,38,-43,-63
-71,-49,22,60,-47,-13,97,77,66,14,-58,-61
-58,-28,30,43,-44,1,90,96,58,5,-79,-57
-85,-34,50,59,-67,8,93,114,57,-1,-62,-55
-42,0,42,21,-42,21,101,117,86,24,-52,-52
-57,22,79,17,-68,50,137,137,127,57,-37,-44
-48,64,112,-8,-80,88,176,156,160,83,-22,-34
-20,99,120,-40,-70,109,176,173,187,120,-10,-27
-31,120,151,-45,-91,136,158,171,228,162,18,-17
19,161,142,-90,-62,151,98,139,223,172,5,-13
32,146,115,-89,-42,130,49,125,198,149,-4,6
13,114,101,-64,-44,107,40,111,201,144,26,35
-15,83,98,-34,-57,90,68,131,201,145,21,24
-41,42,83,-1,-62,62,127,156,191,146,14,14
-67,-6,61,36,-64,27,147,146,147,115,-11,-14
-39,-31,8,35,-24,-11,138,134,118,72,-62,-53
-36,-60,-25,48,-5,-42,136,139,117,65,-83,-60
-113,-67,46,89,-79,-10,131,130,97,49,-87,-53
-83,-54,28,68,-55,-13,125,136,98,47,-82,-49
-69,-60,8,64,-38,-26,129,125,84,33,-88,-47
-70,-52,18,61,-44,-17,130,131,95,36,-82,-35
-91,-91,0,91,-45,-45,142,130,84,16,-88,-62
-142,-84,58,113,-100,-12,309,224,167,55,-68,-61
-98,38,136,30,-117,87,360,276,295,223,8,-32
126,189,62,-158,32,125,-678,-679,-264,206,241,166
662,212,-450,-436,556,-119,-2077,-1841,-1141,48,670,547
1027,209,-817,-618,922,-304,-2385,-2286,-1716,-194,909,788
1139,302,-837,-721,988,-267,-2380,-2810,-2447,-724,983,980
1159,245,-915,-702,1037,-334,-2496,-3374,-3291,-1526,897,1058
996,99,-897,-547,947,-399,-2271,-3412,-3541,-2045,640,1000
837,-61,-898,-388,868,-479,-1853,-2944,-3140,-2058,367,860
638,-242,-880,-198,759,-560,-1337,-2264,-2482,-1852,51,603
478,-236,-714,-121,596,-474,-901,-1591,-1740,-1413,-83,435
320,-139,-459,-90,390,-299,-555,-977,-1056,-912,-108,291
175,-123,-298,-25,237,-210,-217,-395,-484,-523,-176,111
26,-119,-145,46,86,-132,21,-10,-114,-269,-210,-58
-101,-33,69,67,-85,18,274,290,215,10,-190,-122
-102,-5,97,54,-99,45,421,499,430,202,-162,-144
-204,-88,117,146,-160,14,428,528,443,205,-156,-193
-253,-94,159,173,-206,32,460,584,510,241,-144,-189
-238,-76,162,157,-200,43,474,627,559,261,-145,-213
-254,-67,187,160,-220,60,502,671,592,280,-146,-239
-227,-23,205,125,-216,91,563,735,649,319,-142,-232
-258,-25,234,141,-246,104,601,798,699,354,-159,-251
-303,-48,255,175,-278,103,627,859,763,372,-182,-281
-327,-28,299,178,-313,135,701,941,829,403,-193,-297
-367,-47,320,207,-344,137,774,1020,896,440,-221,-335
-355,-14,340,184,-347,163,823,1115,997,496,-240,-352
-335,37,372,149,-354,204,861,1192,1065,552,-248,-371
-398,-11,387,204,-392,187,893,1224,1112,560,-258,-394
-439,-16,423,227,-431,203,909,1278,1183,625,-238,-385
-385,0,386,192,-385,193,861,1258,1190,679,-189,-368
-309,34,343,137,-326,188,781,1165,1130,682,-128,-318
-279,37,316,121,-298,176,667,1004,997,642,-76,-271
-229,24,253,102,-241,138,526,809,821,547,-21,-214
-183,35,218,74,-201,126,407,635,641,450,29,-157
-157,-8,149,82,-153,71,296,468,467,328,42,-123
-27,57,83,-15,-55,70,234,346,344,234,26,-64
-21,45,65,-12,-43,55,197,244,241,152,10,-55
-113,-64,49,88,-81,-7,141,174,158,78,0,-79
-74,-31,42,52,-58,5,130,154,129,64,-10,-71
-71,-33,38,52,-54,2,126,136,109,42,-17,-70
-54,-23,32,38,-43,5,118,127,97,27,-28,-67
-36,-10,27,23,-31,8,117,130,100,26,-38,-64
-68,-47,21,57,-44,-13,108,129,99,16,-41,-63
-43,-21,22,32,-33,1,110,137,107,15,-39,-52
-80,-40,40,59,-60,0,95,131,101,3,-40,-50
-46,-1,46,23,-46,23,120,140,109,17,-59,-37
-40,6,46,16,-43,26,158,170,140,63,-63,-46
-107,-64,43,85,-74,-11,143,166,140,72,-55,-80
-80,-31,50,55,-65,9,131,162,138,68,-52,-76
-90,-27,63,59,-77,18,125,160,141,71,-44,-68
-80,-27,53,53,-66,12,116,154,138,69,-40,-64
-60,-18,42,39,-51,12,111,152,143,71,-35,-58
-48,-15,32,31,-40,8,101,135,145,69,-35,-55
-92,-32,61,62,-76,14,96,125,144,70,-31,-48
-121,-43,78,82,-99,17,121,122,146,69,-30,-47
-49,0,49,24,-49,24,132,134,143,74,-24,-38
-17,59,76,-21,-47,68,137,160,166,112,16,-28
-13,91,104,-39,-58,97,146,158,181,125,37,-13
0,88,88,-44,-45,88,118,149,181,124,39,0
24,107,82,-66,-29,94,83,133,186,134,57,20
47,116,68,-82,-11,92,-2,87,135,99,67,31
35,102,67,-69,-16,85,-73,33,107,83,64,11
59,103,43,-81,8,73,-37,43,114,89,65,40
61,93,32,-78,15,62,39,102,125,100,65,49
-46,15,60,15,-53,37,87,110,117,83,24,4
-93,-43,50,68,-71,3,85,70,79,18,-30,-36
-108,-74,33,91,-70,-20,84,78,83,1,-49,-57
-116,-95,21,105,-69,-37,87,77,73,0,-57,-52
-90,-84,6,87,-48,-38,80,79,72,9,-48,-45
-77,-86,-9,81,-34,-47,82,85,67,11,-45,-44
-65,-77,-13,71,-26,-45,79,70,63,14,-41,-36
-89,-80,9,84,-48,-36,91,120,83,25,-33,-37
-113,-66,47,89,-79,-9,201,139,100,24,-37,-60
-112,-17,95,64,-103,39,415,295,261,168,-5,-54
-9,114,124,-53,-67,119,-177,-220,35,239,123,56
479,250,-230,-364,354,10,-1708,-1470,-739,138,507,403
1006,252,-756,-629,881,-252,-2447,-2111,-1382,-46,826,711
1124,233,-891,-678,1006,-329,-2433,-2555,-2009,-451,906,860
1171,233,-938,-702,1054,-352,-2540,-3181,-2854,-1134,907,1012
1126,141,-985,-633,1055,-422,-2432,-3479,-3415,-1810,698,1006
933,-34,-967,-449,950,-500,-2084,-3218,-3265,-1999,442,901
737,-209,-946,-263,842,-577,-1579,-2592,-2708,-1871,140,684
515,-322,-837,-96,676,-579,-1092,-1914,-2035,-1564,-95,457
321,-231,-553,-45,437,-392,-724,-1263,-1317,-1067,-107,354
183,-128,-311,-28,247,-219,-365,-638,-679,-635,-135,205
91,-138,-229,24,161,-183,-98,-169,-251,-341,-190,42
-88,-134,-46,111,-20,-90,154,149,60,-87,-185,-79
-179,-99,81,139,-129,-9,369,452,372,155,-153,-114
-187,-76,111,131,-149,17,421,547,464,231,-154,-128
-232,-96,136,164,-184,20,466,562,487,235,-156,-159
-230,-80,150,154,-190,35,508,627,558,281,-158,-161
-253,-87,166,170,-209,39,520,666,584,304,-161,-167
-271,-94,177,183,-224,41,568,722,632,323,-160,-181
-320,-76,244,197,-281,84,593,769,684,358,-167,-198
-322,-67,255,194,-288,94,635,832,736,382,-167,-197
-323,-81,242,202,-282,80,685,906,794,406,-182,-219
-368,-95,272,231,-320,88,741,989,864,442,-199,-251
-375,-67,309,221,-342,121,807,1083,951,475,-214,-268
-419,-58,361,239,-390,151,862,1170,1033,519,-229,-285
-417,-46,371,231,-394,162,928,1250,1111,571,-237,-302
-436,-51,385,244,-411,167,937,1297,1165,613,-247,-336
-463,-59,404,261,-433,172,918,1295,1190,642,-235,-342
-434,-39,394,236,-414,177,869,1257,1176,663,-201,-317
-395,-24,371,209,-383,173,778,1154,1105,660,-155,-270
-299,4,303,148,-301,153,667,986,971,609,-91,-204
-225,18,243,103,-234,130,519,804,798,530,-38,-143
-180,17,197,81,-188,107,407,626,624,435,-8,-92
-146,2,148,72,-147,75,323,465,466,324,12,-61
-125,-19,106,72,-115,43,236,345,331,239,13,-44
-88,-25,63,57,-75,18,183,258,237,177,-3,-33
-63,-19,44,40,-53,12,153,198,185,122,-12,-27
-45,-8,37,26,-40,14,142,170,148,90,-24,-24
-69,-37,32,53,-51,-2,136,158,130,56,-39,-26
-46,-24,22,35,-34,-1,129,146,113,34,-40,-24
-32,-4,28,18,-30,12,122,143,104,41,-56,-26
-98,-39,59,68,-78,10,116,145,106,40,-73,-24
-101,-35,66,68,-84,15,111,148,102,40,-76,-31
-87,-22,65,54,-76,21,112,150,101,41,-86,-52
-81,-19,62,49,-71,21,138,154,96,39,-82,-55
-77,-5,71,41,-74,33,155,155,111,45,-76,-54
-96,-12,84,54,-90,36,154,158,122,49,-72,-56
-118,-39,79,79,-98,20,156,165,131,58,-63,-54
-87,-22,65,54,-76,22,151,159,150,76,-62,-57
-59,34,93,13,-77,63,181,195,194,119,-29,-30
-65,76,140,-6,-103,108,205,238,236,164,11,2
-61,70,131,-4,-96,100,187,221,239,165,19,12
-22,102,124,-40,-73,112,177,228,243,177,26,20
52,169,117,-111,-33,143,124,204,224,182,37,29
28,136,108,-82,-40,122,37,133,179,132,26,35
-5,98,103,-47,-54,100,-15,110,113,89,5,36
15,103,88,-59,-37,95,-1,105,119,93,22,52
25,104,79,-65,-27,91,56,122,160,119,53,50
17,84,67,-51,-25,75,112,127,131,91,20,21
-60,1,61,30,-61,30,122,93,97,40,-52,-27
-95,-43,52,69,-73,4,115,101,76,38,-68,-52
-100,-52,48,76,-74,-2,117,91,65,31,-63,-40
-108,-65,43,86,-75,-11,107,89,67,28,-64,-39
-37,0,36,18,-36,18,115,89,61,23,-57,-22
-42,-5,37,23,-40,16,107,76,55,15,-63,-59
-71,-47,24,59,-47,-11,124,97,58,5,-57,-119
-112,-67,45,89,-78,-11,225,130,99,20,-51,-135
-119,6,125,56,-122,66,408,305,304,201,8,-120
63,228,165,-145,-51,196,-237,-342,31,249,167,43
520,287,-233,-404,377,27,-1817,-1700,-883,35,496,377
1018,262,-756,-639,886,-247,-2528,-2340,-1582,-231,756,631
1129,264,-865,-696,997,-300,-2497,-2782,-2232,-695,796,777
1182,287,-895,-734,1038,-304,-2591,-3402,-3104,-1441,760,914
1139,207,-932,-673,1035,-362,-2470,-3639,-3580,-2057,569,906
932,-15,-947,-458,940,-481,-2105,-3306,-3334,-2155,326,793
744,-210,-953,-267,849,-581,-1579,-2626,-2726,-1988,20,567
519,-294,-812,-112,666,-553,-1084,-1902,-2023,-1642,-174,363
385,-130,-515,-127,450,-322,-702,-1233,-1284,-1102,-145,269
251,-38,-289,-107,270,-163,-357,-616,-642,-629,-145,131
110,-40,-150,-35,130,-95,-60,-145,-207,-306,-165,-11
-51,-46,5,48,-28,-20,180,165,103,-63,-166,-143
-174,-66,109,119,-141,21,366,440,381,165,-145,-192
-196,-18,178,107,-187,80,437,551,486,242,-133,-188
-260,-72,188,166,-224,58,440,566,505,235,-129,-219
-245,-61,184,153,-215,61,496,633,564,291,-128,-224
-244,-63,181,153,-212,59,525,680,598,313,-133,-229
-276,-71,205,173,-240,67,558,746,656,335,-126,-241
-233,0,233,116,-233,116,608,802,717,375,-137,-250
-278,-35,243,156,-260,103,653,856,766,394,-147,-274
-289,-43,245,166,-267,101,710,944,832,423,-151,-291
-312,-32,280,172,-296,124,762,1026,907,469,-161,-307
-392,-38,353,215,-372,157,801,1116,992,510,-186,-335
-381,-23,358,202,-370,167,843,1189,1069,545,-219,-363
-395,-26,369,211,-382,171,891,1259,1134,596,-223,-386
-411,-13,398,212,-404,193,917,1302,1191,645,-211,-395
-418,-14,404,216,-411,195,896,1302,1216,688,-187,-378
-380,4,384,187,-382,194,836,1248,1190,712,-141,-348
-272,65,337,103,-304,200,761,1124,1122,698,-91,-301
-248,38,286,105,-268,162,623,940,957,628,-51,-257
-205,8,214,98,-210,111,474,736,755,513,-18,-200
-145,24,169,60,-157,97,351,558,586,400,0,-133
-125,33,158,45,-142,96,273,405,428,295,14,-88
-62,41,102,10,-82,71,216,282,299,203,16,-61
-40,18,58,11,-49,38,156,207,214,138,4,-58
-44,9,53,17,-49,31,138,172,170,92,-5,-54
-55,-9,46,32,-50,19,127,127,120,70,-32,-51
-28,19,47,4,-38,33,122,111,98,62,-44,-45
6,47,41,-27,-18,44,117,126,102,47,-51,-50
-74,-34,40,54,-57,3,111,123,95,33,-66,-70
-107,-62,45,85,-76,-8,106,128,95,20,-65,-70
-102,-45,58,73,-80,6,109,128,87,13,-65,-70
-137,-60,77,99,-107,8,141,135,101,31,-65,-70
-119,-59,60,88,-89,1,156,150,117,42,-65,-70
-107,-53,54,80,-80,0,151,149,113,38,-63,-68
-85,-26,59,55,-72,16,149,149,132,54,-57,-64
-54,0,54,26,-54,27,144,150,139,77,-52,-62
-54,-2,52,28,-53,25,141,149,133,85,-49,-59
-74,-26,49,50,-61,11,137,152,134,76,-43,-55
-97,-26,71,61,-84,23,135,167,153,85,-42,-55
-39,65,104,-14,-71,84,152,185,192,121,-16,-45
-21,109,130,-44,-75,119,178,175,194,136,21,-29
-28,93,120,-33,-74,106,165,178,197,144,25,-18
18,115,97,-67,-39,106,94,163,193,133,32,-7
44,127,83,-85,-20,104,5,96,128,83,35,1
52,120,67,-86,-8,93,-70,67,94,66,36,14
48,105,57,-76,-5,81,-32,82,105,80,33,13
50,100,50,-75,0,75,61,100,102,73,35,19
6,46,40,-26,-17,42,78,91,90,44,8,-4
-75,-44,31,60,-53,-7,68,65,71,19,-64,-69
-80,-55,25,67,-53,-15,81,83,66,14,-71,-76
-63,-42,21,53,-42,-11,104,94,61,3,-68,-74
-67,-47,20,57,-44,-13,89,82,47,-10,-72,-80
-60,-49,11,54,-35,-19,93,101,50,-6,-66,-78
-60,-44,16,52,-38,-14,76,74,31,-21,-71,-83
-28,-32,-5,30,-11,-18,87,112,50,-5,-56,-75
-54,-36,18,45,-36,-9,163,146,80,7,-78,-88
-87,15,102,36,-94,58,366,318,253,138,-30,-58
-12,148,159,-68,-86,153,94,11,159,253,84,18
349,278,-71,-314,210,103,-1339,-1325,-697,103,393,311
847,257,-590,-552,719,-166,-2393,-2266,-1549,-129,763,661
1047,261,-786,-654,917,-262,-2447,-2707,-2211,-553,876,839
1154,396,-758,-775,956,-181,-2528,-3293,-3047,-1278,896,1026
1075,293,-782,-683,928,-244,-2485,-3599,-3636,-2017,679,1026
863,84,-778,-473,821,-347,-2134,-3307,-3479,-2222,403,907
664,-124,-787,-270,726,-455,-1626,-2630,-2861,-2031,155,720
490,-258,-748,-116,620,-503,-1126,-1923,-2163,-1730,-96,483
399,-146,-545,-126,472,-345,-759,-1272,-1432,-1228,-117,370
254,-72,-326,-91,290,-199,-409,-661,-763,-722,-116,217
150,-77,-227,-36,189,-152,-125,-154,-265,-367,-165,48
-9,-58,-49,34,20,-53,103,147,43,-138,-179,-91
-95,-3,92,49,-94,44,316,407,326,99,-136,-164
-136,-4,133,70,-134,64,409,540,468,214,-130,-182
-203,-53,151,128,-176,49,435,567,488,226,-149,-204
-212,-51,160,131,-186,55,469,635,556,274,-133,-198
-242,-42,199,142,-220,78,493,676,600,294,-154,-204
-237,-37,200,137,-218,81,521,728,636,315,-159,-227
-254,-22,232,138,-242,104,565,785,690,341,-177,-242
-264,-22,243,143,-253,110,632,844,743,365,-184,-257
-297,-58,239,178,-268,90,688,913,804,383,-213,-280
-362,-66,297,214,-329,115,727,980,863,396,-236,-306
-375,-55,320,215,-347,133,789,1067,941,443,-243,-334
-375,-50,325,213,-350,137,841,1152,1014,483,-297,-358
-397,-42,355,220,-376,156,898,1215,1076,520,-256,-381
-424,-30,393,227,-408,181,931,1269,1152,580,-309,-383
-413,-28,386,220,-399,179,900,1276,1178,618,-225,-368
-371,-3,368,187,-369,182,861,1245,1180,664,-284,-359
-316,21,337,148,-327,179,760,1144,1119,677,-130,-331
-267,23,290,122,-278,156,639,978,983,629,-149,-268
-206,32,237,87,-222,134,522,792,814,541,-418,-200
