I,II,III,aVR,aVL,aVF,V1,V2,V3,V4,V5,V6
105,-45,-151,-30,128,-97,-90,40,-50,-31,-105,-25
102,-47,-149,-27,126,-98,-90,40,-50,-28,-105,-25
95,-51,-146,-21,121,-98,-91,40,-50,-27,-105,-25
86,-56,-142,-15,115,-99,-89,40,-50,-49,-116,-36
91,-49,-139,-21,115,-94,-91,40,-50,-50,-122,-40
116,-47,-163,-34,140,-105,-88,39,-49,-49,-119,-40
108,-39,-148,-34,128,-93,-86,35,-45,-51,-121,-39
85,-38,-123,-23,104,-81,-80,29,-37,-49,-119,-41
83,-27,-109,-27,97,-68,-75,26,-31,-50,-122,-39
89,8,-81,-48,85,-36,-88,20,-25,-33,-115,-26
79,42,-37,-60,58,3,-109,18,-16,-19,-91,2
101,108,8,-105,46,58,-136,10,-18,-5,-80,38
85,124,40,-105,22,82,-102,-5,-20,2,-75,43
66,107,40,-87,13,73,-96,-12,-45,-22,-87,22
105,81,-24,-93,65,28,-127,-4,-67,-45,-112,-13
95,35,-60,-65,77,-12,-109,25,-67,-45,-116,-21
72,-14,-86,-29,79,-49,-104,40,-70,-45,-132,-19
43,-65,-108,12,76,-87,-95,41,-76,-90,-173,-58
66,-87,-153,11,109,-120,-84,38,-95,-110,-180,-67
97,-105,-202,4,150,-153,-75,42,-83,-113,-195,-75
78,-100,-177,11,128,-138,-65,48,-89,-107,-181,-70
91,-114,-205,12,149,-159,-56,73,-78,-121,-203,-82
87,-85,-171,-1,129,-128,-55,57,-81,-110,-188,-77
94,-116,-210,11,152,-163,-44,63,-78,-111,-194,-78
92,-76,-168,-8,130,-122,-45,59,-63,-101,-196,-77
86,-111,-196,13,141,-153,-33,42,-74,-69,-157,-46
61,-136,-196,38,129,-166,-31,125,22,-160,-336,-168
18,-110,-129,46,73,-119,-21,209,100,-61,-349,-223
280,251,-29,-266,154,111,-119,368,460,748,605,524
342,1154,812,-748,-236,983,-325,58,424,1917,2267,1857
-29,611,640,-292,-335,626,-196,-417,-511,770,1196,1204
-129,-166,-37,147,-46,-101,-79,-392,-1010,-1160,-971,-418
-34,-142,-108,88,37,-125,-110,-190,-745,-851,-739,-449
29,-324,-354,148,192,-339,-53,82,-350,-464,-506,-311
76,-167,-243,46,160,-205,-83,140,-146,-300,-386,-208
82,-120,-202,19,142,-161,-96,117,-70,-71,-173,-53
81,-117,-198,18,140,-158,-93,132,-21,-87,-194,-62
83,-86,-169,2,127,-127,-100,112,-1,-11,-95,10
97,-104,-200,4,149,-152,-98,121,15,-27,-112,6
102,-70,-172,-15,137,-121,-102,113,25,14,-55,39
112,-83,-195,-14,154,-139,-95,123,45,10,-52,41
116,-61,-178,-27,147,-119,-96,122,51,34,-19,60
116,-64,-181,-26,149,-122,-90,126,56,50,13,65
129,-42,-172,-43,151,-107,-89,130,68,61,43,92
145,-20,-165,-62,155,-92,-84,129,82,101,76,121
170,6,-164,-88,167,-79,-86,126,99,111,103,131
170,26,-144,-98,156,-59,-99,119,115,154,160,191
149,40,-108,-94,128,-34,-110,116,125,183,201,224
155,63,-92,-109,123,-14,-128,111,139,242,265,272
170,97,-73,-133,121,12,-125,107,142,302,336,336
199,151,-48,-175,123,52,-156,101,137,353,424,413
200,191,-9,-195,104,91,-195,87,135,427,515,503
208,236,28,-223,90,132,-185,73,131,459,582,572
229,293,64,-261,82,178,-184,53,127,463,597,615
191,308,117,-250,37,212,-179,33,122,457,587,607
175,299,124,-237,25,211,-176,29,103,439,577,593
162,276,114,-219,24,195,-169,27,82,402,509,567
132,225,93,-179,19,159,-147,24,67,341,388,466
117,168,51,-143,33,109,-128,21,49,255,238,341
102,108,5,-105,48,56,-108,19,44,173,103,229
77,57,-21,-67,49,18,-99,16,25,97,-4,143
69,16,-53,-43,61,-18,-91,13,-12,35,-87,89
67,-17,-83,-25,76,-50,-83,11,-21,0,-123,55
58,-28,-86,-15,73,-57,-76,7,-24,-16,-137,48
50,-34,-84,-8,67,-58,-70,4,-28,-18,-158,45
43,-41,-84,-1,64,-62,-67,7,-31,-22,-187,41
50,-47,-98,-1,74,-72,-63,11,-36,-26,-191,37
12,-54,-66,22,39,-60,-59,13,-31,-30,-190,35
2,-58,-60,29,31,-59,-56,16,-30,-28,-195,40
18,-61,-80,22,49,-70,-52,19,-29,-24,-195,43
33,-64,-97,15,66,-80,-50,21,-26,-22,-194,46
56,-67,-123,6,90,-94,-50,26,-24,-19,-190,51
42,-70,-112,14,77,-91,-46,36,-27,-16,-190,54
40,-70,-110,15,75,-90,-44,38,-30,-15,-189,58
36,-70,-106,18,71,-87,-45,31,-30,-21,-214,60
29,-70,-99,21,64,-85,-40,24,-32,-28,-229,60
28,-70,-98,21,63,-84,-40,17,-35,-34,-223,60
20,-70,-90,25,55,-80,-40,11,-36,-41,-238,60
17,-70,-87,27,52,-79,-40,5,-33,-47,-252,59
15,-66,-82,26,49,-74,-40,0,-54,-52,-260,55
17,-61,-78,23,47,-69,-45,-5,-73,-56,-268,50
17,-56,-73,20,46,-64,-75,-10,-69,-53,-271,45
16,-53,-69,18,43,-61,-65,-13,-70,-68,-275,41
24,-47,-71,11,48,-59,-34,-20,-70,-85,-278,36
22,-44,-66,11,45,-54,-34,-18,-70,-86,-283,37
6,-61,-67,28,36,-64,-36,-15,-66,-90,-285,42
-13,-74,-61,44,24,-67,-33,-15,-60,-92,-278,45
7,-66,-74,30,40,-70,-37,-11,-55,-96,-269,49
30,-73,-103,22,66,-88,-34,-10,-50,-93,-260,52
35,-46,-80,6,57,-62,-25,-10,-43,-86,-252,56
36,-4,-40,-15,38,-22,-51,-19,-42,-82,-250,59
3,11,8,-7,-3,9,-63,-30,-44,-76,-251,70
32,79,47,-56,-8,63,-58,-43,-46,-69,-249,78
76,112,37,-94,19,74,-58,-48,-43,-66,-251,72
90,118,28,-104,30,73,-54,-43,-52,-70,-249,69
66,84,17,-75,24,50,-55,-37,-93,-77,-257,63
32,18,-14,-25,23,3,-50,-34,-107,-83,-266,61
32,-18,-50,-7,41,-33,-45,-29,-105,-86,-268,39
15,-63,-78,24,47,-70,-40,-23,-104,-98,-299,6
-2,-91,-89,47,44,-90,-38,-28,-107,-94,-304,4
13,-104,-117,46,66,-110,-29,-21,-103,-119,-329,-8
18,-99,-116,41,67,-107,-33,-30,-107,-123,-326,-3
-16,-137,-121,77,53,-129,-27,-20,-104,-137,-346,-22
12,-108,-120,48,67,-114,-33,-30,-104,-126,-332,-14
30,-142,-172,56,101,-157,-38,-20,-108,-136,-345,-23
33,-100,-133,34,83,-116,1,-12,-98,-142,-353,-22
12,-134,-146,62,79,-140,24,-16,-115,-117,-316,-14
-3,-162,-159,83,78,-160,37,60,-36,-213,-453,-126
11,-99,-111,45,61,-105,76,130,44,-152,-508,-181
215,180,-35,-197,125,72,-57,312,388,552,272,411
396,1077,681,-737,-143,879,-313,70,520,2007,2065,1798
18,620,603,-319,-292,611,-137,-411,-407,1124,1245,1319
-201,-209,-7,205,-97,-108,12,-479,-1088,-1044,-995,-321
-67,-185,-118,126,26,-151,-79,-294,-802,-831,-840,-379
-8,-340,-332,174,163,-336,-19,-29,-411,-465,-618,-277
52,-196,-248,72,151,-222,-28,19,-189,-323,-518,-187
67,-143,-210,38,139,-176,-25,30,-73,-78,-295,-13
83,-133,-216,25,149,-174,-17,42,-38,-113,-323,-37
78,-105,-182,14,130,-143,-23,27,-12,-19,-229,31
66,-131,-197,32,132,-164,-38,42,5,-48,-250,17
68,-100,-168,16,118,-134,-71,29,13,-11,-191,42
82,-100,-182,9,133,-141,-60,41,22,-16,-187,38
102,-63,-165,-20,134,-113,-63,39,28,-4,-148,46
104,-64,-168,-20,137,-116,-62,40,37,26,-116,55
109,-49,-158,-30,134,-104,-68,44,41,42,-95,55
108,-38,-146,-35,127,-91,-68,45,59,58,-55,78
116,-20,-136,-48,126,-77,-74,45,83,74,-28,117
130,6,-125,-68,128,-59,-74,45,98,109,19,149
127,18,-109,-72,117,-45,-78,45,116,142,60,178
136,54,-82,-95,109,-14,-99,45,138,205,127,238
161,95,-66,-128,113,14,-97,45,146,259,201,290
168,118,-51,-143,109,33,-93,46,144,320,292,367
198,178,-20,-188,109,79,-88,42,149,391,385,441
219,213,-6,-216,113,103,-140,34,150,428,443,497
217,251,34,-234,92,142,-186,8,152,432,491,549
193,290,97,-242,48,193,-167,-23,135,419,506,560
157,269,111,-213,23,190,-154,-36,98,411,471,551
127,273,146,-200,-10,209,-126,-47,80,398,423,529
89,234,144,-162,-28,189,-104,-46,67,337,324,438
87,166,79,-127,4,122,-103,-45,53,251,170,308
75,122,47,-99,14,84,-72,-44,42,158,42,207
35,57,21,-46,7,39,-16,-39,30,76,-64,118
28,6,-22,-17,25,-8,25,-40,20,28,-138,47
30,-19,-49,-6,40,-34,-4,-40,11,-14,-170,17
10,-42,-52,16,32,-47,-37,-40,3,-38,-197,14
-4,-61,-56,33,26,-58,-5,-40,-8,-56,-207,15
9,-55,-64,23,37,-60,10,-40,-7,-65,-210,10
22,-50,-72,14,47,-61,11,-41,-5,-57,-225,10
32,-47,-79,8,56,-63,7,-39,-5,-53,-233,11
41,-40,-81,0,61,-60,20,-36,0,-46,-236,16
43,-42,-85,0,64,-64,18,-33,0,-41,-242,22
43,-46,-88,2,66,-67,-14,-31,-2,-43,-245,25
42,-48,-90,3,66,-69,8,-27,-5,-46,-251,30
53,-52,-105,-1,79,-79,18,-24,-8,-49,-257,34
55,-53,-108,0,82,-81,19,-27,-10,-53,-262,32
44,-56,-100,7,72,-78,26,-30,-14,-54,-268,27
43,-54,-97,6,70,-75,20,-33,-15,-58,-274,24
36,-53,-89,8,63,-71,16,-36,-20,-58,-279,20
11,-75,-86,32,49,-80,9,-39,-28,-67,-285,16
7,-82,-89,38,48,-86,5,-40,-34,-85,-290,13
12,-78,-90,33,51,-84,-2,-40,-42,-92,-293,8
9,-81,-90,36,49,-86,-3,-40,-50,-96,-296,2
10,-79,-90,34,50,-85,4,-40,-53,-103,-300,-2
11,-79,-90,34,51,-85,14,-40,-50,-118,-305,-9
15,-72,-88,29,52,-79,20,-39,-47,-121,-303,-14
17,-66,-82,25,50,-74,28,-43,-45,-119,-295,-12
19,-60,-79,21,49,-69,41,-45,-41,-120,-289,-7
22,-51,-73,15,48,-62,27,-45,-40,-120,-282,-4
22,-48,-70,13,47,-59,9,-44,-37,-119,-275,-1
11,-37,-47,13,29,-41,2,-46,-33,-103,-270,4
-14,-18,-4,16,-5,-11,-7,-44,-29,-93,-265,5
-7,27,33,-10,-20,30,-11,-42,-26,-97,-258,22
14,81,67,-47,-27,74,-24,-69,-21,-98,-250,43
33,126,93,-80,-30,110,-37,-84,-21,-102,-245,35
41,121,80,-81,-20,100,-32,-77,-43,-103,-236,24
59,58,-1,-59,30,28,-10,-71,-52,-107,-238,12
81,34,-47,-57,64,-6,29,-64,-49,-113,-244,-1
24,-24,-48,0,36,-36,43,-58,-51,-122,-249,-21
10,-62,-72,26,41,-67,36,-50,-44,-131,-264,-44
13,-105,-118,46,66,-111,37,-49,-47,-132,-267,-54
-11,-139,-128,76,58,-133,31,-41,-44,-155,-277,-67
0,-119,-119,60,59,-118,30,-46,-53,-150,-259,-60
0,-136,-136,68,69,-136,29,-32,-48,-171,-284,-79
2,-107,-108,53,55,-107,37,-43,-51,-148,-254,-63
9,-138,-147,65,78,-142,70,-27,-51,-175,-282,-87
9,-95,-104,43,57,-99,61,-28,-46,-161,-250,-75
28,-145,-173,59,101,-159,74,-12,-50,-152,-242,-77
-14,-140,-127,77,57,-133,82,58,42,-222,-390,-200
-42,-132,-90,87,24,-111,80,157,143,-120,-376,-225
268,333,65,-301,102,199,-45,326,536,819,701,601
366,1097,730,-732,-182,913,-212,32,554,2154,2325,1863
-97,331,428,-117,-262,380,-20,-381,-453,664,840,890
-246,-251,-5,248,-120,-128,110,-430,-1012,-1179,-1026,-519
-72,-192,-120,132,24,-156,65,-227,-657,-712,-602,-394
-9,-364,-356,187,174,-360,85,29,-276,-483,-521,-348
22,-179,-201,79,112,-190,66,60,-88,-267,-328,-210
5,-164,-169,80,87,-166,69,77,-6,-102,-182,-119
3,-141,-144,70,73,-142,62,77,42,-113,-187,-115
18,-122,-140,53,79,-131,55,70,69,-35,-95,-66
28,-125,-153,49,91,-139,51,74,71,-58,-103,-87
62,-74,-136,7,99,-105,41,66,84,4,-16,-52
63,-90,-153,14,108,-121,38,71,94,2,-5,-60
38,-99,-137,31,88,-117,28,62,106,21,27,-38
61,-79,-140,9,101,-109,24,67,112,13,51,-34
76,-52,-127,-12,102,-89,11,64,135,37,88,-23
80,-43,-123,-18,102,-83,3,65,167,77,126,1
90,-27,-117,-31,103,-71,-8,65,171,88,161,28
98,-7,-104,-45,101,-55,-28,65,177,133,219,63
134,39,-95,-86,114,-28,-30,65,182,171,274,100
128,51,-77,-89,103,-13,-31,65,195,224,343,155
127,81,-46,-104,87,17,-27,65,201,294,438,227
114,102,-12,-108,62,45,-43,66,191,349,525,296
134,167,34,-151,50,100,-79,59,187,404,612,365
169,242,73,-206,48,157,-86,30,179,416,682,428
117,244,127,-181,-5,186,-89,8,171,405,695,446
125,268,143,-197,-9,205,-104,-8,155,399,685,440
129,270,141,-200,-6,205,-124,-19,139,394,672,437
91,258,168,-175,-39,213,-94,-13,123,365,607,391
68,207,139,-138,-36,173,-32,-10,107,298,492,306
33,133,100,-83,-34,116,1,-7,92,231,358,187
20,75,55,-48,-17,65,17,-2,74,144,217,67
20,20,1,-20,9,10,22,0,60,67,131,-14
19,-19,-38,0,29,-28,30,17,36,26,76,-65
0,-51,-51,25,26,-51,36,32,13,-9,37,-94
-11,-64,-54,38,22,-59,41,30,10,-34,28,-135
4,-66,-70,31,37,-68,60,30,7,-36,15,-139
-5,-79,-74,42,34,-76,76,30,4,-30,5,-126
-20,-96,-76,58,29,-86,49,30,1,-28,-4,-125
-9,-90,-81,50,36,-85,31,31,0,-23,-11,-114
-1,-85,-85,43,43,-85,77,34,5,-20,-18,-111
1,-82,-82,41,42,-82,73,39,5,-24,-26,-105
1,-76,-77,38,39,-76,61,41,5,-26,-33,-102
-9,-75,-66,42,30,-70,60,45,3,-25,-36,-98
13,-75,-88,31,51,-81,22,50,-4,-25,-35,-95
40,-75,-116,18,79,-95,21,48,-11,-25,-35,-90
30,-74,-104,22,67,-89,22,42,-18,-26,-35,-90
20,-77,-97,28,59,-86,50,37,-24,-31,-35,-91
18,-72,-90,27,54,-81,77,34,-30,-36,-36,-89
-3,-85,-82,44,40,-83,63,28,-35,-39,-41,-111
1,-79,-80,39,41,-79,58,25,-38,-44,-45,-122
41,-39,-80,-1,61,-59,49,30,-42,-47,-47,-119
24,-53,-77,15,51,-65,42,30,-45,-51,-52,-124
-14,-89,-74,52,30,-81,40,30,-50,-54,-55,-125
-12,-87,-75,50,31,-81,36,30,-48,-59,-52,-124
-30,-98,-68,64,19,-83,34,30,-44,-59,-48,-120
-31,-91,-60,61,15,-75,31,28,-45,-51,-47,-112
-1,-56,-56,29,28,-56,29,21,-41,-43,-43,-110
-2,-41,-39,22,19,-40,26,16,-40,-35,-41,-102
-27,-29,-1,28,-13,-15,23,11,-40,-29,-39,-99
-32,14,47,9,-40,30,20,5,-34,-13,-13,-88
11,89,78,-50,-34,83,17,0,-36,11,4,-50
19,112,93,-66,-37,102,15,-6,-33,3,-5,-49
19,112,93,-66,-37,102,17,-19,-43,-10,-8,-61
40,85,45,-63,-3,65,25,-21,-83,-21,-12,-79
28,23,-5,-26,17,9,28,-6,-100,-40,-19,-107
8,-21,-29,7,18,-24,36,6,-101,-41,-19,-107
-17,-63,-46,40,15,-55,39,18,-97,-66,-59,-134
-19,-82,-63,51,22,-72,43,19,-97,-88,-68,-150
-31,-126,-96,79,33,-111,48,31,-93,-96,-75,-163
-48,-143,-95,96,24,-119,48,29,-95,-92,-65,-167
-28,-156,-128,92,50,-142,59,42,-88,-97,-68,-175
-39,-127,-88,83,24,-107,49,43,-89,-95,-66,-178
-39,-150,-110,95,36,-130,91,49,-91,-92,-56,-174
-36,-122,-86,79,25,-104,103,61,-75,-103,-77,-196
-58,-132,-74,95,8,-103,110,43,-102,-80,-14,-160
-24,-172,-148,98,63,-160,117,106,-15,-136,-157,-258
-27,-126,-99,77,36,-112,80,186,81,-58,-239,-368
154,97,-57,-125,105,20,27,358,386,593,532,227
277,1042,765,-660,-245,903,-205,123,485,1729,2240,1631
-52,750,801,-349,-427,776,-99,-302,-256,1012,1665,1316
-256,-170,86,213,-171,-42,111,-331,-882,-982,-693,-457
-174,-132,42,153,-108,-45,4,-238,-805,-1004,-758,-683
-61,-318,-256,190,98,-287,40,40,-404,-503,-374,-456
-15,-244,-229,130,107,-236,57,133,-159,-340,-291,-380
-7,-159,-152,83,73,-155,38,94,-69,-76,-27,-179
18,-169,-187,75,103,-177,41,116,-16,-69,-38,-180
27,-99,-126,36,77,-112,19,89,-13,-3,61,-126
30,-124,-153,47,92,-138,27,98,6,18,63,-137
26,-89,-114,32,70,-101,39,88,10,50,110,-113
29,-102,-131,37,80,-116,36,97,27,58,118,-97
30,-84,-113,27,72,-99,15,95,51,57,148,-82
33,-79,-112,23,73,-95,0,94,68,79,189,-66
49,-59,-107,5,78,-83,-41,96,77,81,202,-56
63,-37,-99,-13,81,-68,-20,93,86,114,250,-18
82,-19,-101,-31,92,-60,15,92,87,136,285,9
94,-3,-98,-46,96,-50,-10,89,106,169,332,40
93,28,-65,-61,79,-18,-25,91,128,210,389,82
87,58,-29,-72,58,14,-45,89,124,254,459,142
82,76,-5,-79,43,35,-55,91,125,294,530,199
127,147,20,-137,53,84,-74,87,125,359,635,298
136,190,54,-163,41,121,-94,75,126,426,732,386
138,243,106,-191,16,174,-121,62,119,444,786,442
160,291,131,-226,14,211,-122,50,106,454,812,496
110,280,170,-195,-31,225,-87,33,95,439,802,496
118,299,181,-209,-32,240,-117,28,83,417,787,485
102,291,190,-197,-44,240,-100,29,72,385,722,441
45,246,201,-146,-78,224,-53,32,60,314,589,331
35,185,150,-110,-58,167,-46,34,50,242,433,198
0,107,108,-54,-54,107,-29,38,40,178,282,76
-6,51,56,-23,-31,53,-23,53,29,112,170,-17
-3,11,14,-4,-9,12,-16,49,7,53,89,-83
-4,4,8,0,-6,6,-8,40,-9,18,33,-127
-30,-27,2,28,-16,-12,-4,34,-11,-13,-1,-150
-60,-61,-1,61,-29,-31,12,24,-14,-35,-15,-152
-64,-70,-6,68,-28,-38,31,22,-16,-35,-24,-154
-89,-99,-10,94,-39,-55,36,27,-20,-35,-36,-158
-78,-94,-15,86,-31,-54,34,33,-19,-35,-37,-160
-62,-84,-23,73,-19,-53,35,37,-15,-35,-35,-158
-52,-81,-29,67,-11,-55,35,44,-15,-33,-35,-149
-35,-71,-36,53,1,-53,35,49,-15,-12,-30,-141
-31,-73,-43,52,6,-58,39,47,-15,4,-31,-133
-29,-75,-46,52,9,-60,40,44,-15,5,-29,-126
-34,-79,-45,57,5,-61,40,45,-18,10,-33,-125
-35,-81,-46,58,5,-63,40,45,-21,9,-57,-125
-40,-84,-44,63,3,-64,40,45,-19,0,-61,-125
-39,-85,-46,63,4,-65,39,47,-21,-10,-60,-125
-36,-80,-44,58,4,-62,33,50,-20,-20,-60,-125
-39,-80,-41,60,1,-60,27,53,-21,-29,-61,-128
-40,-80,-40,60,0,-60,23,55,-37,-33,-77,-130
-41,-80,-38,61,-1,-59,16,58,-43,-38,-87,-130
-45,-81,-36,63,-5,-58,11,61,-37,-41,-88,-130
-44,-76,-32,60,-6,-54,6,56,-35,-51,-91,-130
-10,-62,-52,37,21,-57,4,50,-31,-58,-94,-129
-8,-47,-39,28,15,-42,6,45,-26,-50,-88,-124
-32,-28,4,30,-18,-12,-1,39,-26,-39,-81,-119
-22,9,32,6,-27,20,1,33,-31,-38,-75,-114
-38,33,72,2,-55,52,-2,31,-34,-40,-72,-108
-32,78,110,-24,-71,94,-9,35,-37,-41,-75,-101
-17,127,144,-55,-81,135,-20,40,-41,-46,-76,-101
-34,95,129,-31,-82,111,-48,42,-45,-43,-76,-98
-30,41,71,-6,-51,56,-22,47,-49,-54,-84,-103
-32,0,33,15,-33,16,4,49,-50,-56,-74,-95
-56,-64,-7,60,-24,-35,2,53,-51,-78,-108,-110
-88,-104,-16,96,-36,-60,10,57,-53,-111,-154,-147
-61,-118,-58,89,-1,-88,12,57,-57,-109,-150,-148
-49,-127,-78,88,15,-102,21,66,-52,-119,-165,-157
-73,-143,-70,108,-1,-107,31,59,-59,-111,-153,-152
-41,-155,-114,98,36,-134,50,72,-50,-129,-178,-168
-70,-150,-80,110,5,-115,41,56,-59,-108,-155,-157
-82,-195,-112,139,15,-153,51,73,-52,-123,-186,-176
-69,-121,-52,95,-8,-86,60,59,-56,-108,-168,-168
-69,-176,-107,123,19,-141,55,61,-43,-103,-173,-171
-64,-176,-111,120,24,-143,74,154,46,-168,-333,-291
-36,-165,-129,101,47,-147,91,268,167,16,-243,-257
218,388,170,-303,23,279,-68,377,536,986,978,708
186,1122,936,-655,-375,1029,-245,-17,323,1895,2382,1873
-188,297,484,-55,-336,390,-27,-370,-624,250,673,725
-239,-233,6,236,-122,-114,109,-298,-957,-1269,-1075,-657
-127,-214,-86,171,-20,-149,60,-100,-612,-707,-601,-487
-60,-372,-313,216,127,-342,79,154,-249,-444,-490,-410
-28,-192,-164,110,68,-177,55,169,-77,-209,-279,-248
-37,-189,-151,114,57,-170,57,157,-16,-57,-152,-152
-38,-148,-110,94,36,-128,46,159,20,-66,-148,-141
-20,-140,-120,80,50,-130,38,142,42,-2,-66,-89
8,-135,-144,64,76,-139,31,146,58,-20,-88,-107
9,-116,-125,54,68,-121,20,139,64,24,-21,-71
7,-126,-133,60,70,-129,1,149,73,17,-18,-80
2,-108,-111,53,57,-109,10,147,83,46,13,-58
-1,-114,-114,58,57,-114,39,153,93,58,38,-46
-4,-103,-100,54,48,-101,29,155,121,88,84,-19
3,-95,-97,46,50,-95,25,154,145,105,113,7
26,-62,-89,18,58,-75,17,150,147,126,147,37
30,-52,-83,11,57,-68,11,150,158,174,197,82
42,-34,-75,-4,59,-54,5,150,175,211,247,110
72,13,-59,-42,66,-23,-1,150,183,266,322,171
83,55,-28,-69,55,14,-19,150,179,318,406,250
110,102,-7,-106,58,47,-64,146,175,385,503,328
112,145,33,-129,39,89,-78,135,173,436,585,402
105,185,80,-145,12,132,-72,125,168,453,630,462
106,222,116,-164,-5,169,-71,114,166,451,637,491
60,228,169,-145,-55,198,-67,89,158,444,627,491
36,217,181,-127,-73,199,-66,78,143,437,605,481
28,202,175,-115,-74,188,-61,81,130,390,525,415
27,162,135,-94,-54,148,-44,79,115,317,385,303
9,91,82,-50,-37,86,-28,80,102,242,239,184
-19,29,48,-5,-33,38,-7,79,83,154,104,77
-33,-27,6,30,-20,-10,28,81,57,78,-3,-12
-62,-75,-14,69,-24,-44,42,85,47,35,-59,-63
-59,-80,-21,70,-19,-50,39,85,43,2,-87,-82
-80,-107,-28,94,-26,-67,41,85,37,-20,-112,-102
-96,-130,-34,113,-31,-82,39,85,31,-20,-131,-106
-79,-120,-41,100,-18,-80,40,85,26,-20,-134,-104
-76,-121,-45,99,-16,-82,42,85,29,-18,-138,-109
-71,-116,-45,94,-13,-80,53,85,30,-14,-144,-110
-70,-114,-45,92,-12,-80,84,85,30,-15,-147,-110
-67,-113,-45,90,-11,-78,90,85,35,-15,-152,-103
-60,-105,-45,83,-7,-75,81,85,35,-15,-155,-95
-58,-103,-45,81,-6,-74,80,83,35,-15,-159,-88
-48,-97,-49,72,1,-72,73,80,35,-15,-163,-78
-43,-93,-50,68,4,-72,70,77,35,-15,-166,-78
-39,-89,-50,64,6,-69,65,75,35,-16,-172,-81
-26,-81,-55,54,15,-68,65,71,35,-25,-180,-80
-52,-107,-55,80,1,-81,64,70,35,-35,-188,-84
-67,-123,-56,96,-6,-89,60,67,30,-45,-197,-85
-58,-118,-61,88,1,-89,61,62,22,-54,-206,-85
-60,-121,-61,90,1,-91,57,59,16,-61,-211,-90
-53,-120,-67,87,7,-93,55,56,8,-67,-218,-94
-53,-120,-67,87,7,-93,55,52,0,-70,-222,-98
-43,-115,-73,79,15,-94,55,48,-3,-69,-226,-104
-51,-115,-63,83,6,-89,54,46,0,-73,-224,-103
-55,-111,-56,84,1,-83,56,38,3,-75,-226,-95
-37,-110,-73,74,18,-91,54,52,5,-75,-243,-89
-65,-104,-39,85,-13,-72,61,70,8,-71,-239,-82
-75,-70,5,73,-40,-32,85,56,10,-60,-222,-77
-64,-39,25,51,-44,-7,83,49,5,-51,-217,-75
-70,-1,69,35,-69,34,54,33,-2,-43,-211,-75
-59,47,106,6,-83,76,29,1,-9,-46,-209,-75
-58,62,120,-2,-89,91,20,-5,-15,-43,-205,-75
-63,38,102,12,-83,70,10,2,-23,-59,-206,-74
-43,-11,32,27,-37,10,2,10,-27,-108,-241,-78
-44,-46,-2,45,-20,-24,35,14,-34,-115,-243,-82
-73,-85,-12,79,-30,-48,60,24,-38,-116,-250,-98
-95,-129,-33,112,-31,-81,59,26,-44,-117,-273,-108
-89,-163,-73,126,-8,-118,60,32,-42,-122,-289,-124
-82,-145,-64,114,-9,-104,63,29,-38,-121,-289,-125
-100,-183,-82,142,-9,-132,99,29,-44,-121,-294,-127
-97,-171,-74,134,-11,-122,100,34,-34,-137,-310,-136
-92,-172,-80,132,-5,-126,100,22,-48,-117,-292,-124
-75,-172,-98,124,12,-135,102,49,-29,-156,-338,-151
-76,-134,-58,106,-9,-96,95,23,-43,-114,-282,-113
-90,-223,-134,157,22,-178,109,81,3,-171,-363,-168
-119,-123,-4,121,-57,-63,108,123,75,-210,-490,-280
9,-56,-65,23,37,-60,115,269,265,134,-186,-62
291,742,451,-517,-80,596,-126,281,631,1521,1496,1227
74,931,857,-503,-392,894,-152,-215,92,1832,2031,1742
-283,-99,184,191,-233,43,138,-446,-886,-456,-342,77
-225,-228,-3,226,-110,-115,114,-330,-910,-1122,-1051,-605
-134,-314,-180,224,24,-247,82,-59,-452,-502,-581,-353
-93,-324,-231,209,69,-277,93,93,-182,-424,-595,-345
-60,-168,-108,114,25,-138,72,55,-45,-127,-315,-148
-49,-198,-149,124,50,-173,83,80,14,-125,-334,-146
-34,-128,-94,81,30,-110,66,64,31,-73,-252,-92
-31,-155,-125,93,47,-140,72,73,51,-51,-226,-80
-25,-121,-96,73,36,-108,70,69,63,-34,-193,-74
-22,-123,-102,73,40,-112,67,63,76,4,-149,-54
-16,-110,-94,64,39,-102,75,67,83,-8,-148,-57
-12,-97,-85,55,37,-91,31,60,105,21,-103,-31
-9,-94,-85,52,38,-89,10,61,125,20,-90,-27
0,-74,-74,37,37,-73,59,59,125,52,-43,1
3,-66,-70,32,37,-68,52,57,146,78,-21,26
6,-46,-52,20,29,-49,22,54,170,121,15,58
20,-19,-39,-1,30,-29,-1,56,173,142,58,93
42,24,-18,-33,30,3,-16,54,194,184,112,149
49,52,3,-50,22,27,-26,56,209,248,194,219
67,88,21,-77,23,54,-37,53,204,299,268,282
86,150,64,-119,11,107,-48,43,198,376,361,363
85,195,110,-140,-13,152,-40,31,191,426,444,444
96,217,121,-157,-13,169,-61,20,184,431,468,500
71,254,183,-163,-56,218,-103,7,178,427,474,513
55,275,220,-165,-83,247,-69,-13,171,418,471,498
52,250,198,-151,-74,224,-64,-21,160,397,427,489
18,210,192,-114,-88,200,-48,-19,148,353,318,437
-2,171,173,-85,-88,172,5,-20,138,280,186,344
-41,110,151,-35,-97,130,2,-20,123,193,45,228
-70,46,116,12,-94,81,25,-20,100,109,-88,129
-84,-10,75,47,-80,32,66,-24,76,40,-170,71
-108,-64,45,86,-76,-10,72,-34,65,-3,-216,30
-109,-80,29,94,-69,-25,66,-39,65,-29,-246,20
-118,-93,25,105,-72,-33,66,-33,64,-43,-275,15
-123,-107,16,115,-69,-45,61,-26,60,-46,-288,7
-102,-93,10,97,-56,-41,59,-19,60,-49,-293,1
-94,-92,2,93,-48,-45,83,-12,62,-52,-300,-5
-120,-124,-4,122,-58,-64,92,-6,65,-55,-305,0
-117,-133,-16,125,-50,-74,89,-9,68,-54,-309,3
-96,-119,-23,108,-37,-70,87,-10,71,-50,-312,6
-94,-115,-20,104,-37,-67,84,-10,74,-48,-314,10
-85,-105,-20,95,-32,-62,85,-15,75,-45,-318,15
-86,-101,-15,94,-36,-58,81,-15,70,-42,-319,13
-82,-98,-16,91,-33,-57,78,-16,65,-39,-324,5
-89,-96,-7,92,-40,-51,76,-20,61,-47,-337,-1
-100,-92,8,96,-54,-42,72,-22,56,-60,-342,-8
-95,-90,5,92,-50,-42,70,-25,51,-70,-345,-14
-89,-89,0,89,-45,-45,68,-28,47,-80,-348,-20
-89,-91,-1,90,-44,-46,64,-30,41,-88,-353,-26
-103,-111,-8,107,-47,-59,65,-34,34,-96,-355,-32
-110,-118,-8,114,-51,-63,64,-35,28,-100,-350,-39
-75,-100,-25,87,-25,-62,66,-35,20,-102,-350,-45
-39,-101,-62,70,12,-81,64,-40,16,-105,-350,-53
-45,-109,-64,77,10,-87,61,-40,20,-108,-350,-53
-32,-88,-55,60,12,-71,60,-41,28,-110,-350,-50
-24,-77,-54,51,15,-66,60,-46,34,-106,-347,-50
-49,-80,-31,65,-9,-55,61,-49,41,-100,-338,-46
-76,-66,9,71,-42,-28,58,-53,43,-96,-327,-45
-79,-32,47,55,-63,7,73,-57,38,-90,-317,-46
-53,18,71,17,-62,44,52,-60,36,-82,-301,-50
-31,65,97,-17,-64,81,19,-64,32,-81,-295,-54
-24,90,114,-33,-69,102,20,-65,28,-77,-282,-59
-17,57,74,-20,-46,66,20,-66,24,-92,-290,-62
-25,-13,12,19,-18,-1,20,-64,21,-128,-326,-70
-41,-42,-1,41,-19,-21,22,-66,14,-120,-324,-79
-64,-98,-35,81,-14,-66,66,-64,10,-118,-332,-101
-57,-135,-79,96,11,-107,93,-63,7,-144,-331,-107
-45,-146,-102,96,29,-124,89,-55,-1,-164,-336,-117
-76,-165,-89,121,7,-127,85,-51,5,-161,-335,-136
-101,-201,-100,151,0,-150,84,-50,5,-155,-319,-145
-99,-201,-102,150,2,-151,80,-37,18,-170,-334,-173
-94,-185,-91,139,-1,-138,79,-47,14,-144,-297,-160
-89,-203,-114,146,13,-158,91,-21,31,-180,-333,-184
-77,-144,-67,111,-5,-105,80,-41,25,-137,-279,-153
-79,-212,-133,146,27,-172,116,10,43,-183,-335,-198
-126,-173,-47,150,-40,-109,141,65,128,-236,-462,-330
-74,-154,-80,114,3,-117,123,183,281,-28,-299,-238
241,548,307,-394,-33,427,-135,284,718,1252,1206,907
170,954,783,-562,-307,868,-196,-111,438,2062,2240,1737
-263,-32,231,146,-247,100,101,-439,-639,-72,63,244
-272,-275,-3,274,-134,-139,42,-424,-901,-1213,-1075,-706
-142,-318,-176,231,17,-247,41,-150,-462,-593,-541,-470
-100,-405,-305,253,103,-355,116,75,-145,-487,-543,-465
-60,-199,-139,130,39,-169,75,44,6,-207,-276,-287
-67,-220,-154,144,43,-186,96,59,64,-152,-229,-265
-69,-182,-113,126,22,-147,74,43,103,-110,-168,-229
-53,-209,-156,131,52,-182,80,40,125,-72,-129,-209
-35,-179,-144,107,54,-161,70,37,127,-86,-114,-217
-33,-171,-138,102,52,-154,60,38,140,-49,-45,-190
-29,-167,-139,98,55,-153,49,52,159,-64,-36,-201
-22,-145,-123,84,51,-134,36,41,163,-32,4,-178
-11,-140,-129,76,59,-134,35,67,187,-28,6,-180
-2,-114,-111,58,55,-112,35,75,210,-1,64,-160
-7,-115,-108,61,51,-111,34,66,212,31,106,-126
2,-86,-87,42,45,-87,38,65,223,64,137,-88
12,-55,-68,22,40,-61,46,58,232,95,191,-60
12,-37,-49,12,31,-43,8,55,242,143,249,-29
37,-1,-38,-18,38,-19,-18,49,241,197,332,37
63,49,-14,-56,39,17,-28,44,234,258,421,103
77,99,21,-88,28,59,-56,38,231,316,512,180
56,116,60,-86,-2,88,-66,33,226,355,604,252
49,157,108,-103,-30,132,-64,25,222,371,645,290
49,190,141,-120,-46,166,-66,-2,216,365,656,315
38,201,163,-120,-63,182,-64,-20,198,362,644,305
62,225,163,-144,-51,193,-67,-32,182,352,625,290
30,187,157,-109,-64,171,-50,-38,174,304,542,236
-21,132,152,-56,-87,142,-13,-30,165,235,407,126
-37,70,107,-17,-72,88,0,-24,156,158,267,6
-65,-4,61,34,-63,28,9,-18,137,65,134,-100
-112,-78,34,95,-73,-22,26,-11,120,8,66,-168
-112,-118,-6,115,-53,-62,47,-5,110,-24,14,-222
-91,-120,-29,106,-30,-75,69,0,97,-54,-16,-242
-116,-149,-33,133,-41,-91,57,3,90,-71,-20,-248
-112,-150,-38,131,-37,-94,35,7,90,-76,-35,-259
-106,-145,-39,125,-33,-92,53,10,90,-74,-46,-253
-86,-144,-58,115,-14,-101,76,15,90,-79,-56,-252
-72,-140,-67,107,-3,-103,72,15,90,-80,-54,-249
-76,-140,-64,108,-6,-101,68,15,90,-80,-56,-246
-65,-131,-66,99,0,-98,65,15,85,-75,-61,-245
-95,-160,-65,128,-15,-112,60,15,85,-75,-60,-239
-105,-170,-65,138,-20,-117,60,15,84,-74,-63,-234
-96,-156,-60,126,-18,-108,60,15,79,-70,-66,-229
-98,-155,-57,127,-21,-105,60,11,80,-69,-69,-223
-91,-144,-54,118,-18,-99,60,6,78,-74,-73,-217
-92,-142,-50,117,-21,-96,60,4,71,-91,-75,-217
-99,-144,-45,122,-26,-95,60,0,66,-97,-82,-224
-99,-147,-47,123,-26,-97,65,-4,61,-100,-92,-230
-94,-150,-56,122,-19,-103,65,-7,55,-104,-97,-235
-88,-152,-64,120,-12,-108,66,-11,50,-108,-100,-235
-86,-157,-70,121,-7,-113,70,-13,44,-110,-103,-236
-83,-153,-69,118,-7,-110,70,-16,39,-110,-108,-240
-89,-161,-72,125,-8,-116,68,-19,34,-110,-110,-240
-98,-173,-75,136,-11,-124,64,-21,28,-110,-104,-238
-87,-162,-75,125,-6,-119,65,-24,22,-110,-98,-232
-80,-152,-72,116,-4,-112,65,-25,22,-110,-94,-228
-85,-143,-58,114,-13,-100,65,-25,27,-108,-87,-223
-86,-135,-49,111,-18,-92,65,-25,29,-98,-83,-219
-87,-108,-21,98,-33,-65,58,-26,26,-92,-78,-214
-69,-61,8,65,-38,-26,50,-26,23,-73,-72,-212
-77,-21,56,49,-66,18,44,-51,21,-53,-66,-208
-85,21,106,32,-95,63,36,-62,17,-46,-60,-205
-64,34,98,15,-81,66,29,-60,16,-38,-55,-203
-89,-7,83,48,-86,38,27,-87,12,-71,-49,-198
-82,-41,40,61,-61,-1,31,-73,10,-106,-57,-202
-62,-63,-1,63,-30,-32,56,-58,6,-95,-54,-195
-96,-127,-31,112,-32,-79,69,-53,4,-109,-76,-220
-85,-141,-57,113,-14,-99,65,-45,2,-140,-95,-244
-102,-180,-78,141,-12,-128,74,-40,-3,-152,-101,-246
-151,-218,-67,185,-42,-142,71,-30,-1,-150,-109,-257
-121,-229,-108,175,-6,-168,79,-34,-10,-147,-97,-247
-112,-226,-114,169,2,-170,62,-23,2,-156,-118,-257
-120,-217,-97,169,-11,-157,61,-40,-13,-141,-88,-240
-105,-242,-138,174,17,-190,98,-17,2,-166,-126,-262
-132,-195,-63,163,-34,-128,84,-45,-6,-143,-82,-237
-115,-263,-148,189,16,-205,94,-11,24,-164,-117,-261
-117,-189,-72,153,-22,-131,64,68,113,-166,-267,-403
-48,-179,-130,114,41,-155,94,191,283,130,-37,-267
196,511,315,-354,-60,413,-70,221,620,1202,1435,926
51,1000,951,-526,-450,976,-203,-212,244,1674,2370,1747
-300,28,329,136,-314,179,73,-431,-601,-224,218,219
-267,-242,25,255,-146,-108,78,-365,-837,-1270,-1016,-817
-167,-303,-135,235,-16,-219,42,-179,-514,-671,-461,-548
-135,-428,-292,282,79,-360,102,21,-163,-468,-416,-519
-80,-221,-142,150,31,-181,63,11,-42,-207,-149,-308
-55,-233,-179,144,62,-206,75,31,40,-97,-69,-229
-40,-167,-126,104,43,-146,53,17,73,-63,-24,-202
-34,-188,-154,112,60,-171,51,16,83,-15,39,-164
-35,-174,-139,104,53,-156,43,15,97,-25,41,-158
-31,-168,-138,99,54,-153,35,6,99,18,82,-113
-27,-172,-145,100,59,-158,31,9,112,23,97,-117
-27,-155,-128,91,51,-141,21,2,116,51,147,-96
-23,-149,-127,86,52,-138,18,7,127,47,153,-97
-15,-124,-109,69,48,-116,9,3,131,67,191,-75
-15,-119,-104,67,45,-111,3,6,142,114,224,-42
-7,-95,-88,51,40,-91,-4,3,154,129,266,-7
10,-69,-79,30,45,-74,-12,-4,172,167,322,39
30,-27,-57,-1,44,-42,-20,-8,195,219,386,86
41,5,-36,-23,39,-15,-25,-14,193,259,462,157
35,44,9,-39,13,26,-40,-20,189,321,551,228
43,78,36,-61,3,57,-48,-24,186,369,647,314
52,118,66,-85,-7,91,-72,-35,181,414,736,410
41,168,126,-105,-43,147,-99,-47,179,425,760,446
35,183,149,-109,-57,166,-91,-71,165,412,751,438
41,229,188,-135,-74,209,-82,-90,147,411,760,427
22,228,206,-126,-92,217,-75,-103,133,386,725,420
-21,171,192,-75,-106,181,-64,-112,122,339,620,368
-46,127,173,-41,-110,150,-57,-93,111,265,484,258
-70,59,129,5,-100,94,-36,-84,100,187,338,134
-90,-1,90,45,-90,44,-4,-84,90,112,197,13
-113,-54,59,83,-86,3,7,-79,80,48,107,-65
-127,-77,50,102,-89,-13,8,-77,70,7,50,-125
-130,-90,40,110,-84,-25,14,-74,62,-14,2,-154
-134,-120,14,127,-74,-52,15,-72,56,-19,-24,-148
-113,-118,-5,116,-54,-61,22,-69,48,-24,-38,-153
-101,-114,-13,108,-43,-63,18,-66,40,-27,-41,-155
-92,-111,-19,102,-37,-65,22,-63,37,-33,-40,-155
-79,-106,-28,93,-25,-67,18,-60,40,-34,-41,-151
-70,-104,-34,87,-18,-68,25,-58,40,-30,-40,-142
-56,-98,-42,77,-7,-70,61,-55,40,-28,-40,-134
-47,-92,-45,70,-1,-68,42,-55,40,-25,-40,-126
-42,-87,-45,65,2,-66,23,-55,40,-22,-40,-119
-37,-82,-45,60,4,-63,26,-55,37,-20,-40,-115
-29,-74,-45,52,9,-59,22,-55,34,-24,-40,-115
-49,-103,-54,76,3,-78,17,-58,31,-31,-40,-115
-72,-124,-52,98,-10,-88,30,-61,28,-37,-44,-115
-72,-118,-46,95,-13,-82,51,-60,25,-44,-64,-115
-80,-121,-41,101,-19,-81,22,-60,26,-51,-78,-118
-85,-119,-34,102,-25,-77,12,-60,30,-55,-77,-123
-89,-120,-31,105,-29,-76,22,-59,30,-55,-89,-126
-82,-116,-34,100,-24,-75,22,-61,30,-55,-103,-129
-79,-114,-36,97,-21,-75,30,-57,30,-63,-106,-134
-80,-115,-35,98,-22,-75,27,-68,30,-66,-109,-134
-68,-110,-42,89,-13,-76,21,-81,27,-62,-112,-128
-74,-110,-37,92,-19,-74,14,-64,24,-60,-115,-124
-61,-109,-48,85,-6,-78,7,-57,21,-56,-114,-120
-51,-103,-52,77,1,-77,1,-61,18,-55,-109,-115
-84,-87,-4,85,-40,-46,-7,-63,15,-52,-104,-112
-74,-51,23,62,-48,-14,-15,-66,14,-51,-101,-106
-72,-11,62,41,-67,25,-23,-71,8,-49,-94,-102
-93,29,122,32,-108,75,-32,-81,1,-50,-91,-97
-79,49,128,15,-103,88,-33,-82,-5,-49,-85,-92
-57,42,98,7,-78,70,-30,-79,-13,-52,-82,-90
-48,4,51,22,-49,27,-30,-74,-18,-83,-119,-88
-79,-36,42,57,-60,3,-25,-73,-24,-93,-130,-108
-94,-76,18,85,-56,-29,-17,-66,-29,-101,-140,-136
-98,-132,-34,115,-32,-82,-12,-65,-33,-110,-159,-137
-68,-161,-93,114,13,-127,-3,-61,-39,-115,-172,-143
-51,-153,-102,102,26,-128,2,-53,-40,-129,-199,-148
-110,-201,-92,156,-9,-147,9,-55,-49,-118,-185,-139
-107,-212,-104,160,-1,-158,22,-40,-33,-135,-210,-159
-118,-191,-73,155,-22,-132,36,-50,-41,-113,-176,-139
-117,-232,-115,175,-1,-174,44,-26,-24,-138,-216,-162
-122,-178,-56,150,-33,-117,35,-40,-30,-115,-174,-133
-125,-252,-127,188,1,-189,39,-5,-15,-133,-198,-148
-86,-178,-92,132,3,-135,38,62,56,-192,-375,-305
-55,-155,-99,105,22,-127,52,187,216,75,-185,-199
192,470,277,-331,-43,373,-111,260,573,1123,1190,906
115,1088,973,-602,-429,1030,-247,-189,226,1793,2340,1881
-277,127,403,75,-340,265,-22,-473,-697,-45,347,507
-274,-266,8,269,-140,-129,77,-390,-946,-1289,-1103,-687
-157,-254,-97,206,-30,-176,34,-177,-564,-664,-554,-445
-97,-399,-302,248,103,-350,37,54,-222,-459,-509,-400
-43,-194,-151,118,55,-173,1,54,-81,-211,-257,-215
-35,-216,-180,126,73,-198,-4,57,6,-96,-164,-131
-49,-169,-120,109,36,-144,-16,40,34,-78,-141,-115
-61,-176,-115,119,28,-145,-21,30,44,-23,-76,-77
-52,-168,-116,110,32,-141,-22,38,51,-42,-86,-90
-50,-151,-102,101,26,-126,-21,34,58,-6,-30,-57
-45,-157,-112,102,34,-134,-19,43,74,-5,-33,-68
-39,-133,-94,86,28,-113,-22,41,100,33,10,-44
-33,-136,-103,84,35,-119,-18,47,113,40,22,-30
-28,-115,-87,72,30,-101,-23,44,109,55,66,-7
-13,-99,-86,56,37,-93,-22,45,109,77,90,16
0,-77,-77,39,38,-76,-46,45,126,117,137,54
14,-57,-71,22,43,-64,-77,45,151,144,192,89
27,-39,-65,7,46,-52,-74,45,162,193,247,139
31,-11,-43,-10,37,-27,-77,44,169,251,325,203
44,43,-1,-43,22,21,-72,35,176,308,403,264
55,83,28,-69,13,56,-90,26,198,383,514,363
80,150,70,-115,5,110,-115,18,193,414,592,433
59,202,142,-131,-42,172,-127,8,173,426,637,485
23,189,166,-106,-72,177,-148,-2,151,427,653,509
65,223,158,-144,-47,190,-151,-20,123,432,644,493
86,239,153,-163,-33,196,-146,-32,113,411,614,485
48,196,148,-122,-50,172,-107,-30,102,353,521,433
-6,132,138,-64,-72,134,-61,-30,92,293,379,320
-46,55,102,-5,-74,78,-40,-28,73,211,219,183
-55,11,65,22,-60,38,-16,-24,52,123,92,76
-75,-47,28,60,-51,-9,-2,-25,32,56,2,13
-84,-92,-8,88,-38,-49,6,-21,19,15,-52,-32
-65,-109,-44,87,-10,-77,12,-16,17,-19,-79,-62
-66,-132,-66,100,1,-99,19,-12,13,-39,-112,-83
-73,-136,-63,105,-5,-100,27,-7,10,-40,-127,-86
-83,-140,-57,112,-13,-98,29,-3,5,-44,-135,-85
-89,-143,-54,117,-17,-98,32,2,5,-46,-140,-84
-99,-147,-49,123,-25,-98,27,4,5,-50,-143,-80
-107,-150,-44,129,-32,-96,39,8,5,-49,-149,-80
-78,-145,-67,112,-5,-106,43,10,5,-45,-155,-78
-70,-145,-76,108,3,-110,18,13,5,-46,-166,-75
-79,-145,-66,112,-6,-105,12,16,5,-45,-168,-72
-80,-145,-65,113,-7,-105,8,11,0,-46,-173,-69
-87,-145,-58,117,-14,-101,3,10,-5,-44,-174,-66
-87,-142,-55,115,-16,-99,-1,10,-9,-53,-180,-65
-90,-140,-50,115,-20,-95,-5,10,-14,-70,-206,-70
-86,-137,-51,111,-17,-93,1,10,-18,-78,-214,-70
-86,-134,-48,110,-18,-91,6,9,-23,-86,-215,-70
-73,-130,-57,102,-8,-94,12,4,-29,-92,-220,-70
-53,-130,-77,92,12,-103,19,-2,-34,-95,-223,-70
-62,-135,-73,99,6,-103,30,-5,-39,-99,-227,-73
-64,-135,-71,99,4,-102,42,-10,-46,-104,-230,-75
-69,-136,-67,103,0,-101,39,-15,-49,-105,-230,-78
-75,-140,-65,108,-5,-102,30,-12,-46,-105,-232,-81
-78,-140,-62,109,-8,-101,25,-7,-43,-109,-235,-85
-83,-138,-54,111,-15,-96,15,-4,-40,-111,-235,-84
-80,-127,-47,104,-16,-87,10,-1,-38,-108,-231,-81
-66,-107,-41,87,-13,-74,1,4,-34,-96,-225,-79
-65,-80,-15,73,-25,-47,-10,4,-38,-81,-221,-76
-90,-38,52,64,-70,6,-20,-10,-40,-79,-215,-73
-118,-7,111,62,-114,51,-35,-23,-41,-83,-207,-69
-113,35,147,39,-130,91,-38,-38,-45,-88,-206,-73
-80,60,140,10,-110,100,-55,-47,-44,-91,-212,-74
-85,4,89,40,-87,46,-51,-41,-55,-99,-218,-76
-92,-42,50,66,-70,4,-14,-36,-68,-108,-227,-80
-73,-66,6,69,-39,-30,-9,-34,-70,-114,-237,-79
-74,-108,-34,91,-20,-71,-7,-26,-80,-148,-262,-97
-87,-131,-44,109,-21,-87,-5,-26,-93,-158,-265,-102
-96,-164,-67,130,-14,-115,6,-16,-88,-164,-281,-114
-83,-177,-94,130,6,-135,35,-19,-88,-157,-271,-107
-78,-199,-121,139,22,-160,55,-10,-85,-170,-288,-119
-105,-188,-83,147,-11,-135,46,-10,-82,-163,-282,-115
-113,-224,-111,169,-1,-167,52,-6,-87,-165,-285,-118
-101,-177,-76,139,-13,-126,42,6,-60,-183,-308,-131
-96,-186,-89,141,-3,-137,44,1,-75,-150,-263,-105
-99,-195,-96,148,-1,-145,73,57,-22,-225,-396,-203
-120,-136,-16,128,-52,-76,75,106,39,-198,-485,-285
83,63,-20,-74,52,21,-10,292,343,369,157,195
288,971,684,-630,-198,827,-258,130,564,1852,1990,1610
-52,659,711,-304,-382,685,-125,-369,-266,1287,1533,1396
-327,-248,80,287,-203,-84,62,-481,-1048,-988,-839,-322
-214,-238,-24,226,-95,-130,-70,-305,-829,-974,-875,-510
-144,-377,-233,261,45,-305,9,-7,-395,-517,-563,-345
-97,-258,-160,178,32,-209,46,89,-186,-401,-517,-300
-70,-171,-100,121,15,-135,-5,57,-74,-166,-283,-145
-57,-170,-113,114,28,-141,-6,63,-9,-187,-306,-154
-31,-116,-85,73,28,-101,-14,43,-1,-88,-197,-77
-28,-141,-114,84,43,-127,-6,50,13,-109,-206,-95
-18,-107,-89,63,36,-98,-13,40,22,-74,-158,-71
-12,-120,-108,66,48,-114,-8,40,28,-71,-146,-69
-9,-102,-93,56,42,-97,-15,35,41,-58,-118,-63
-5,-95,-90,50,43,-92,-20,38,52,-37,-83,-45
6,-71,-77,32,42,-73,-26,44,63,-32,-61,-32
26,-42,-68,8,47,-54,-29,45,77,-2,-18,4
29,-25,-53,-2,41,-39,-25,50,94,20,3,25
32,-1,-33,-15,32,-17,-23,53,101,55,46,62
56,34,-22,-45,39,6,-43,55,117,87,94,109
78,65,-13,-71,45,26,-70,47,141,145,157,156
106,104,-2,-105,54,51,-61,43,147,191,238,220
126,153,27,-140,49,89,-74,37,141,259,330,298
123,194,71,-159,26,133,-93,31,137,320,419,366
137,252,116,-194,10,184,-102,27,131,364,496,436
142,298,156,-220,-7,227,-127,17,125,398,526,478
132,315,183,-224,-26,249,-122,-3,121,391,511,480
132,339,207,-236,-38,273,-107,-41,109,376,510,487
105,346,241,-226,-68,293,-97,-57,94,345,473,449
86,295,209,-191,-62,251,-61,-49,82,273,358,365
58,219,161,-139,-51,190,-35,-46,69,187,229,263
18,152,134,-86,-58,143,-33,-39,58,109,95,144
14,102,88,-59,-37,95,-12,-34,42,27,-11,60
13,58,46,-35,-17,51,6,-29,24,-34,-81,10
25,34,9,-30,7,22,35,-25,18,-71,-122,-37
35,35,1,-35,17,18,63,-23,15,-92,-133,-70
28,35,7,-32,10,20,57,-19,11,-96,-148,-76
27,35,8,-31,9,21,53,-17,8,-100,-156,-74
32,35,4,-34,13,19,48,-15,4,-103,-164,-79
34,33,0,-34,17,16,44,-12,1,-108,-170,-80
33,30,-3,-31,18,13,40,-6,0,-110,-169,-79
38,30,-8,-34,23,11,35,-1,0,-105,-174,-75
38,28,-10,-33,24,9,36,2,0,-105,-175,-70
34,24,-10,-29,21,7,32,8,1,-105,-178,-66
36,25,-11,-31,23,7,32,9,-3,-105,-192,-62
34,28,-6,-31,20,10,26,5,-6,-104,-201,-56
25,33,8,-29,8,21,44,6,-5,-109,-204,-57
12,34,21,-23,-5,27,64,3,-9,-121,-209,-62
10,30,20,-20,-5,25,52,0,-10,-126,-214,-65
18,30,12,-24,3,21,45,0,-10,-132,-218,-68
24,30,6,-27,9,18,35,-3,-16,-139,-222,-73
31,30,-1,-31,16,14,31,-8,-23,-145,-225,-76
37,30,-7,-33,22,11,37,-11,-29,-155,-228,-68
46,34,-12,-40,29,11,38,-14,-36,-149,-233,-83
52,35,-17,-43,34,9,43,-19,-43,-156,-235,-98
54,35,-20,-45,37,7,45,-21,-45,-180,-230,-91
64,41,-23,-52,44,8,50,-25,-45,-178,-226,-90
66,38,-28,-52,47,5,50,-25,-45,-174,-223,-86
73,43,-30,-58,51,6,50,-25,-45,-171,-219,-85
58,44,-14,-51,36,15,50,-25,-45,-166,-215,-81
48,59,11,-54,18,35,50,-24,-44,-164,-213,-69
30,67,37,-48,-4,51,48,-30,-41,-151,-209,-61
4,76,72,-40,-34,73,37,-28,-38,-136,-205,-51
58,160,102,-109,-22,131,29,-46,-35,-133,-202,-50
71,210,139,-141,-34,175,20,-63,-32,-140,-196,-49
46,194,148,-120,-51,170,11,-56,-29,-146,-196,-51
78,156,78,-118,0,117,16,-56,-33,-150,-198,-49
106,123,17,-115,44,70,23,-50,-41,-166,-210,-50
101,101,0,-101,50,50,29,-51,-48,-169,-206,-76
77,63,-14,-69,45,24,37,-45,-62,-186,-229,-109
55,38,-17,-46,36,10,40,-41,-81,-201,-254,-127
29,-15,-44,-7,37,-29,54,-34,-80,-212,-266,-140
13,-29,-42,8,27,-35,58,-30,-80,-209,-256,-132
31,-51,-82,10,56,-66,65,-25,-88,-215,-255,-140
44,-31,-74,-7,59,-53,63,-15,-81,-225,-261,-143
37,-45,-82,4,60,-64,70,-22,-88,-210,-239,-130
42,-43,-85,0,64,-64,71,-2,-68,-246,-267,-150
38,-25,-63,-7,51,-44,63,-26,-73,-195,-193,-106
38,-77,-115,20,77,-96,73,35,-24,-264,-295,-181
13,15,2,-14,6,9,91,85,42,-279,-429,-299
136,61,-76,-99,106,-8,103,231,232,50,-106,-69
444,889,445,-666,-1,667,-142,275,662,1535,1630,1245
236,999,762,-618,-263,881,-161,-180,175,1878,2104,1674
-181,-7,174,93,-177,84,96,-469,-885,-501,-291,-2
-115,-92,23,103,-69,-34,46,-382,-931,-1136,-915,-600
3,-167,-170,82,87,-168,23,-90,-472,-549,-457,-391
32,-166,-198,67,115,-182,34,84,-211,-489,-478,-391
71,-37,-108,-17,90,-73,8,57,-68,-201,-198,-187
91,-32,-123,-29,107,-77,27,69,-18,-206,-197,-192
100,29,-71,-64,85,-21,20,55,11,-128,-108,-148
98,-3,-101,-47,99,-52,9,55,23,-116,-100,-148
119,48,-71,-83,95,-11,-7,50,42,-109,-69,-139
118,38,-80,-78,99,-21,-4,54,57,-83,-22,-128
94,26,-68,-60,81,-21,-5,56,57,-92,-4,-131
114,50,-64,-82,88,-7,-6,55,61,-64,44,-116
150,91,-59,-120,105,16,-4,62,88,-59,62,-118
147,99,-49,-123,98,25,-6,59,105,-20,110,-88
155,108,-47,-131,100,31,-16,58,95,-1,131,-84
151,116,-34,-133,92,41,-38,54,128,36,170,-58
165,145,-20,-154,93,62,-57,55,154,73,228,-21
182,186,4,-184,88,95,-55,55,148,119,298,30
179,209,29,-195,75,119,-79,55,151,153,364,81
210,292,82,-251,64,186,-95,55,165,223,450,140
218,314,96,-267,61,205,-80,44,168,304,564,237
224,332,109,-278,57,220,-111,30,159,329,630,294
217,391,174,-304,21,282,-121,15,153,341,677,338
208,412,204,-310,2,308,-111,-15,147,337,720,360
199,426,228,-313,-15,327,-110,-36,123,330,704,350
176,412,236,-294,-30,324,-103,-46,93,308,656,340
158,377,219,-268,-31,298,-100,-66,84,259,558,261
119,317,198,-218,-40,257,-83,-51,78,191,423,144
92,246,154,-169,-31,200,-51,-24,70,115,295,40
77,192,115,-134,-20,153,-2,-21,54,39,175,-69
63,146,83,-105,-10,114,22,-15,29,-20,96,-137
64,122,57,-93,3,89,18,-10,0,-62,43,-176
67,107,40,-87,13,73,21,-3,-17,-92,17,-203
72,98,26,-85,22,62,19,0,-19,-91,14,-199
74,90,16,-82,29,52,21,-11,-24,-107,5,-200
71,80,9,-76,31,45,14,-10,-29,-115,0,-200
69,72,2,-71,33,37,-7,0,-28,-106,-8,-200
72,68,-4,-70,38,32,-7,11,-23,-103,-10,-198
73,62,-11,-67,42,25,8,18,-20,-96,-10,-191
74,59,-14,-66,44,22,12,15,-17,-91,-10,-186
61,53,-7,-56,34,22,6,15,-12,-90,-10,-181
52,49,-3,-50,27,23,1,13,-10,-90,-10,-175
57,61,4,-60,26,33,-4,10,-19,-89,-10,-171
50,58,8,-54,21,33,-10,10,-31,-110,-17,-189
67,83,15,-75,26,49,-16,7,-42,-123,-25,-197
84,106,22,-95,31,64,10,4,-52,-121,-31,-194
62,92,30,-77,16,60,38,1,-57,-128,-39,-196
56,88,32,-72,12,60,31,-2,-60,-128,-46,-194
85,79,-6,-82,45,36,26,-5,-63,-132,-50,-196
97,72,-25,-84,61,23,21,-6,-68,-152,-50,-199
77,71,-6,-74,42,32,14,-12,-71,-156,-50,-202
65,68,4,-67,31,36,11,-18,-74,-155,-50,-205
59,72,13,-66,23,43,3,-22,-75,-160,-50,-207
47,66,19,-57,14,42,-4,-29,-75,-160,-50,-211
52,77,25,-65,13,51,-11,-33,-75,-159,-45,-207
64,98,35,-81,14,66,-19,-40,-75,-152,-37,-201
55,91,36,-74,9,64,-26,-39,-73,-147,-31,-194
38,108,70,-73,-16,88,-31,-41,-70,-143,-24,-188
24,136,111,-80,-44,123,-29,-39,-70,-136,-19,-181
42,180,139,-111,-49,159,-31,-43,-70,-132,-12,-175
71,243,172,-157,-51,207,-29,-80,-70,-132,-9,-174
50,265,215,-158,-82,240,-32,-85,-69,-141,-11,-175
47,234,187,-141,-70,210,-49,-79,-81,-139,-5,-174
68,172,104,-120,-18,138,-34,-77,-92,-154,-7,-176
59,155,96,-108,-19,125,-16,-72,-96,-168,-2,-175
62,121,58,-92,2,89,-10,-69,-104,-176,-41,-201
51,85,34,-69,8,60,0,-65,-103,-201,-82,-236
38,60,22,-49,8,41,7,-61,-109,-206,-77,-246
34,43,9,-39,12,26,13,-53,-107,-210,-82,-250
32,36,4,-34,13,20,17,-56,-114,-208,-65,-247
43,28,-15,-35,29,6,22,-40,-120,-221,-83,-261
39,48,10,-43,14,29,25,-53,-139,-206,-54,-246
49,14,-35,-32,42,-11,33,-36,-115,-218,-82,-260
45,64,19,-54,12,41,37,-54,-116,-202,-51,-232
52,-1,-53,-25,52,-27,52,-38,-102,-213,-70,-249
18,0,-18,-8,18,-9,85,59,11,-237,-223,-373
76,17,-59,-47,68,-21,89,179,159,2,-63,-294
333,644,310,-489,11,476,-140,240,490,995,1290,779
210,1254,1044,-733,-417,1149,-248,-160,228,1633,2444,1774
-142,347,489,-103,-316,418,39,-451,-631,-78,496,405
-173,-43,130,108,-152,43,98,-411,-958,-1342,-991,-811
-79,-51,29,65,-54,-11,22,-221,-678,-821,-470,-572
-10,-235,-225,123,108,-229,45,48,-313,-564,-390,-512
54,-14,-67,-20,61,-40,25,46,-163,-317,-140,-326
81,3,-78,-42,80,-37,24,4,-101,-187,-37,-241
81,48,-34,-64,57,8,11,-5,-68,-167,-24,-224
87,40,-47,-63,67,-3,2,-18,-54,-114,61,-182
84,35,-49,-59,66,-6,4,-20,-40,-126,59,-179
87,48,-39,-67,63,5,10,-24,-35,-93,103,-125
122,70,-53,-96,87,8,19,-17,-21,-87,108,-119
134,101,-34,-117,84,33,23,-21,-14,-48,156,-92
118,82,-36,-100,77,23,32,-13,-2,-38,169,-91
115,97,-19,-106,67,39,32,-16,8,-24,201,-71
101,83,-17,-92,59,33,-13,-12,19,5,240,-42
107,109,1,-108,53,55,-51,-10,33,40,280,1
140,143,3,-142,68,73,-54,-10,40,65,326,38
128,181,53,-155,37,117,-61,-10,61,113,394,82
136,214,79,-175,28,146,-66,-10,85,169,477,158
155,237,82,-196,36,159,-73,-10,77,206,556,227
160,299,139,-230,11,219,-78,-21,71,263,652,321
178,348,169,-263,4,258,-87,-39,65,297,736,404
174,384,210,-279,-18,297,-102,-53,58,299,770,465
182,420,238,-302,-28,329,-124,-62,51,293,756,490
165,440,276,-303,-56,358,-119,-85,35,291,747,481
134,430,296,-282,-82,363,-87,-97,19,267,726,461
92,387,295,-240,-102,341,-72,-91,5,225,628,378
44,337,293,-191,-125,315,-57,-89,-5,173,493,262
64,275,211,-169,-74,243,-39,-84,-17,95,353,146
51,213,162,-132,-56,187,5,-81,-28,25,205,25
16,162,146,-89,-66,154,38,-78,-42,-25,102,-62
15,136,121,-75,-53,128,33,-73,-53,-75,42,-113
11,129,118,-70,-54,123,37,-70,-55,-117,0,-132
9,120,110,-65,-51,115,33,-66,-58,-127,-18,-143
4,110,106,-57,-52,108,41,-62,-61,-127,-30,-165
5,104,100,-55,-48,102,61,-59,-64,-132,-39,-168
11,105,95,-58,-42,100,58,-55,-65,-134,-40,-161
14,105,91,-59,-39,97,54,-55,-65,-135,-40,-156
17,105,88,-61,-36,96,51,-54,-65,-131,-40,-150
20,105,85,-63,-33,95,45,-50,-65,-128,-40,-145
22,105,83,-64,-31,93,46,-50,-65,-126,-42,-140
26,105,79,-65,-27,91,50,-52,-65,-121,-45,-135
22,105,83,-64,-31,93,53,-56,-67,-121,-48,-130
19,105,85,-63,-33,95,55,-55,-74,-118,-50,-127
21,105,84,-63,-32,95,59,-59,-79,-124,-54,-121
19,105,86,-62,-34,95,60,-60,-85,-146,-55,-122
20,103,83,-62,-32,93,63,-60,-90,-152,-60,-129
11,99,88,-56,-38,93,65,-65,-93,-147,-64,-134
28,101,73,-64,-23,87,65,-65,-96,-155,-78,-141
14,96,83,-55,-35,89,65,-66,-100,-169,-101,-144
-25,94,119,-34,-73,106,65,-70,-105,-171,-104,-147
-26,97,123,-36,-75,110,64,-71,-105,-169,-109,-150
-26,97,122,-36,-74,109,60,-67,-105,-170,-108,-152
-24,105,130,-41,-77,117,60,-65,-105,-170,-104,-156
-30,98,128,-34,-80,113,58,-65,-105,-169,-105,-152
5,131,127,-68,-61,129,55,-65,-105,-165,-105,-147
6,157,151,-82,-73,154,55,-65,-106,-166,-105,-141
-12,175,187,-81,-100,180,58,-65,-109,-165,-106,-137
25,246,221,-136,-98,233,60,-85,-112,-164,-109,-110
36,274,238,-155,-101,256,60,-91,-114,-165,-110,-76
47,290,242,-168,-98,266,60,-86,-118,-168,-110,-76
47,239,192,-143,-73,215,59,-85,-120,-176,-115,-99
32,176,145,-104,-57,160,62,-80,-121,-181,-116,-119
20,140,120,-81,-50,130,64,-80,-129,-192,-114,-125
9,88,79,-49,-35,83,68,-74,-129,-214,-163,-164
-2,65,68,-32,-35,66,69,-76,-139,-234,-187,-190
-16,41,58,-13,-37,49,75,-67,-138,-260,-196,-190
-29,41,70,-6,-49,55,73,-72,-147,-243,-181,-178
-31,13,44,9,-38,28,82,-61,-144,-248,-205,-185
-34,38,72,-3,-53,55,104,-66,-144,-235,-211,-171
-37,-3,34,20,-36,15,113,-59,-149,-230,-218,-177
-31,28,59,1,-45,44,101,-56,-136,-239,-235,-191
-34,-9,25,21,-30,8,89,-74,-161,-209,-199,-172
-41,-20,21,30,-31,0,104,4,-82,-290,-324,-277
-36,50,86,-7,-61,68,126,78,12,-209,-345,-339
182,324,141,-253,20,232,41,246,333,498,478,294
277,1223,946,-751,-334,1084,-176,10,408,1704,2213,1696
-63,800,863,-369,-463,832,-54,-452,-453,792,1388,1219
-242,-32,211,137,-227,89,129,-492,-1073,-1231,-905,-505
-137,-15,122,76,-129,53,25,-314,-847,-1051,-785,-602
-54,-175,-121,115,34,-148,97,-19,-429,-598,-484,-430
-29,-62,-33,46,2,-47,134,54,-207,-439,-388,-343
-20,-15,6,17,-13,-4,83,27,-137,-202,-182,-167
-10,3,12,3,-11,7,91,37,-94,-220,-195,-186
5,48,43,-27,-19,45,78,15,-74,-135,-77,-115
27,44,17,-36,5,30,89,18,-59,-146,-97,-120
14,86,72,-50,-30,79,71,9,-48,-116,-48,-95
13,67,54,-40,-21,61,89,19,-39,-114,-35,-92
27,80,52,-54,-13,66,61,18,-31,-105,5,-81
45,72,28,-59,8,50,68,26,-23,-89,21,-64
69,109,39,-89,15,74,41,23,-16,-83,43,-52
46,135,89,-91,-22,112,43,37,-5,-37,103,-19
42,144,102,-93,-30,123,279,20,6,-16,115,-6
74,165,91,-120,-9,128,234,44,22,13,157,28
78,203,125,-141,-24,163,164,-9,54,75,224,94
66,220,153,-143,-44,186,214,-158,71,118,287,137
98,246,148,-172,-25,196,176,-152,72,163,367,193
140,313,173,-226,-17,243,214,-129,76,234,462,277
