I,II,III,aVR,aVL,aVF,V1,V2,V3,V4,V5,V6
56,-9,-65,-23,60,-37,-14,80,123,168,113,83
51,-10,-61,-20,56,-35,-3,80,102,140,85,62
25,-21,-46,-2,36,-33,12,77,79,98,50,41
25,-29,-54,2,39,-41,17,74,70,71,32,32
9,-48,-57,20,33,-52,24,70,57,40,2,19
-23,-75,-52,49,15,-63,31,70,52,33,-14,8
3,-72,-75,34,39,-73,37,63,58,38,-27,5
13,-67,-80,27,47,-73,43,78,61,38,-33,5
8,-64,-72,28,40,-68,47,99,66,44,-22,5
13,-57,-70,22,41,-63,52,104,75,44,-12,6
35,-53,-88,9,62,-71,55,108,89,49,-3,-3
56,-47,-102,-4,79,-74,66,132,116,52,8,-12
49,-42,-91,-3,70,-67,77,147,118,42,11,-7
56,-34,-90,-11,74,-62,77,134,109,35,0,-5
40,-44,-84,2,63,-64,68,125,93,24,-13,-2
16,-64,-81,24,49,-72,56,89,66,18,-24,1
2,-71,-73,34,38,-72,51,64,55,-11,-37,-5
-23,-77,-54,50,16,-65,48,65,41,-38,-58,-14
-26,-76,-51,51,13,-63,62,66,36,-34,-71,-22
-27,-75,-48,51,11,-61,71,64,29,-36,-69,-32
-31,-74,-43,53,7,-59,65,66,26,-30,-63,-34
-33,-77,-44,55,6,-60,64,64,21,-32,-64,-36
-37,-73,-35,55,0,-54,57,57,16,-28,-54,-33
-28,-77,-49,53,11,-63,57,53,14,-38,-58,-37
-31,-66,-35,49,2,-50,49,39,3,-52,-68,-45
-23,-68,-45,46,12,-57,47,45,4,-65,-79,-53
-12,-75,-63,43,26,-69,34,21,-16,-56,-68,-44
-6,-81,-75,44,34,-78,34,48,-3,-55,-67,-43
-19,-82,-63,51,22,-73,21,12,-37,-59,-68,-41
-37,-43,-6,40,-16,-24,20,-1,-16,-4,-24,-6
-13,-30,-17,22,2,-23,-25,-123,-141,62,81,78
171,89,-82,-130,126,4,-321,-646,-472,507,640,467
490,-112,-602,-189,546,-357,-458,-757,-433,664,964,693
527,-486,-1012,-20,770,-750,-330,-498,-352,20,446,381
312,-408,-720,48,517,-564,-227,-350,-340,-345,-13,98
131,-257,-388,63,260,-323,-81,-130,-166,-252,-139,-5
17,-148,-166,66,92,-157,8,11,-31,-123,-113,-35
-11,-89,-78,50,34,-83,44,60,30,-63,-87,-47
-35,-90,-54,63,10,-72,72,92,51,-54,-101,-58
-56,-76,-20,66,-18,-47,71,95,63,-47,-90,-52
-52,-82,-30,67,-11,-55,79,98,65,-53,-99,-57
-54,-71,-17,62,-18,-43,80,101,69,-48,-92,-54
-50,-72,-21,61,-15,-46,80,104,70,-51,-101,-57
-53,-66,-13,60,-20,-39,80,107,70,-47,-108,-57
-44,-62,-18,54,-13,-40,80,109,69,-45,-104,-54
-16,-60,-44,38,14,-51,80,113,73,-42,-106,-52
-12,-55,-44,34,17,-49,80,114,73,-39,-101,-47
-15,-52,-37,34,11,-44,76,118,78,-32,-100,-46
-18,-50,-31,34,7,-40,69,120,95,-18,-100,-43
-33,-59,-26,47,-3,-42,63,120,98,-5,-89,-34
-28,-49,-21,39,-3,-35,56,124,117,19,-75,-19
-13,-27,-14,20,1,-21,49,126,122,37,-60,-11
-1,-11,-10,6,5,-10,43,125,135,59,-36,0
5,1,-4,-3,4,-1,31,120,158,86,-24,10
15,17,2,-16,6,9,16,114,163,111,-8,18
41,46,4,-44,18,25,5,108,184,149,29,50
70,59,-11,-64,41,23,-10,102,189,177,57,76
99,64,-36,-81,67,14,-17,97,182,203,87,89
91,61,-30,-76,61,15,-37,89,178,218,112,101
95,50,-45,-72,70,2,-64,83,170,221,126,122
111,42,-69,-76,89,-13,-55,75,167,217,127,135
96,33,-63,-64,79,-15,-45,67,158,202,114,122
89,23,-66,-55,77,-22,-32,61,146,194,104,113
75,11,-64,-43,70,-26,-15,55,134,157,82,93
61,-4,-66,-28,64,-35,12,55,100,102,45,69
42,-17,-59,-12,50,-37,35,55,74,60,-6,35
8,-28,-36,10,22,-32,36,55,68,25,-47,-2
2,-60,-62,30,32,-61,52,55,61,4,-56,-12
11,-73,-84,31,47,-78,63,57,53,-6,-71,-16
9,-69,-78,30,44,-74,65,60,46,-12,-82,-21
13,-68,-81,28,47,-74,70,60,39,-20,-82,-25
15,-65,-79,25,48,-72,73,64,35,-27,-86,-30
13,-64,-77,26,45,-70,75,69,32,-34,-85,-26
6,-67,-72,31,39,-69,75,70,30,-30,-85,-24
-5,-74,-69,40,32,-71,80,70,26,-33,-88,-25
-2,-68,-66,35,32,-66,80,70,24,-52,-95,-25
1,-61,-61,30,31,-61,79,70,29,-53,-95,-26
4,-54,-59,25,32,-56,75,70,30,-45,-94,-24
7,-48,-55,21,31,-51,70,70,32,-42,-96,-20
13,-42,-55,15,34,-48,68,65,36,-34,-95,-20
15,-40,-55,13,35,-47,63,60,33,-31,-94,-18
16,-39,-55,12,36,-47,60,55,30,-29,-88,-15
13,-42,-55,15,34,-48,60,51,27,-30,-87,-15
-3,-55,-52,29,25,-53,60,46,25,-30,-81,-19
-5,-54,-49,29,22,-51,60,42,21,-29,-81,-31
-2,-48,-46,26,22,-47,60,40,20,-48,-101,-37
-4,-47,-43,25,20,-45,60,37,17,-56,-107,-36
0,-40,-40,20,20,-40,59,34,12,-56,-104,-32
-1,-41,-40,21,19,-40,55,31,9,-60,-102,-30
-16,-56,-40,36,12,-47,55,29,5,-60,-99,-27
-19,-67,-48,43,15,-57,55,26,2,-65,-101,-24
-18,-69,-52,43,17,-60,55,25,-2,-65,-104,-29
-20,-67,-47,43,14,-57,55,25,-4,-65,-107,-30
-20,-65,-45,43,13,-55,55,25,-8,-65,-109,-30
-23,-64,-42,44,10,-53,55,25,-10,-65,-113,-35
-22,-61,-39,41,8,-50,55,23,-14,-63,-116,-35
-13,-59,-46,36,16,-52,55,18,-15,-59,-112,-34
-10,-62,-52,36,21,-57,55,15,-12,-61,-109,-29
-13,-64,-51,38,19,-57,54,12,-10,-56,-107,-26
-12,-60,-47,36,17,-53,50,7,-10,-55,-104,-23
-16,-61,-45,39,14,-52,50,5,-26,-55,-101,-18
-15,-57,-42,36,14,-49,50,5,-30,-50,-99,-15
-18,-55,-37,36,10,-46,50,5,-21,-50,-96,-18
1,-54,-55,27,28,-54,50,5,-19,-50,-91,-27
12,-60,-72,24,43,-66,46,5,-13,-50,-89,-29
-8,-77,-69,42,31,-73,45,5,-10,-50,-84,-25
-4,-75,-70,39,33,-72,45,5,-10,-50,-81,-25
9,-61,-70,26,40,-65,45,5,-10,-50,-77,-25
14,-55,-70,21,42,-62,45,5,-10,-50,-75,-25
10,-63,-74,27,42,-69,46,5,-10,-50,-75,-25
11,-66,-77,28,45,-72,50,5,-10,-50,-75,-21
16,-64,-80,24,49,-71,53,5,-12,-50,-75,-20
8,-61,-70,27,39,-65,57,10,-17,-45,-76,-20
3,-59,-62,28,32,-60,60,10,-19,-45,-79,-15
-7,-61,-54,34,23,-57,57,10,-16,-43,-82,-15
-19,-59,-41,39,11,-50,54,10,-15,-40,-85,-14
4,-60,-64,28,34,-62,51,11,-15,-39,-87,-10
15,-60,-75,23,45,-67,48,7,-15,-44,-91,-8
4,-60,-64,28,34,-62,46,1,-16,-56,-88,-4
2,-61,-62,30,32,-61,43,-4,-13,-53,-82,-2
-1,-55,-53,28,26,-54,40,-11,-8,-49,-79,1
4,-48,-52,22,28,-50,46,13,-2,-46,-73,-7
9,-40,-49,15,29,-44,51,32,1,-41,-70,-18
16,-36,-52,10,34,-44,49,29,6,-39,-63,-13
24,-24,-48,0,36,-36,50,31,11,-28,-54,-6
19,-31,-50,6,35,-40,58,29,15,-15,-46,1
9,-31,-39,11,24,-35,54,38,29,-5,-37,6
46,22,-23,-34,34,0,41,41,32,6,-35,18
65,4,-61,-34,63,-28,30,13,20,13,-31,33
32,-41,-72,5,52,-56,21,-20,13,6,-29,28
64,2,-63,-32,63,-30,20,-26,2,-4,-25,22
70,7,-63,-38,66,-28,20,-25,-4,-10,-25,18
7,-49,-57,21,32,-53,20,-24,-7,-27,-38,10
-12,-67,-55,40,22,-61,20,-26,-13,-36,-40,6
-10,-71,-60,40,25,-65,40,-23,-13,-41,-39,15
-12,-75,-63,44,26,-69,45,-24,-20,-44,-41,19
-8,-71,-63,40,28,-67,45,-17,-17,-48,-48,8
-11,-71,-60,41,24,-65,45,-22,-26,-53,-53,2
-9,-67,-58,38,24,-63,44,-19,-23,-55,-65,-4
-5,-69,-64,37,30,-66,47,-18,-29,-61,-69,-16
-7,-59,-52,33,23,-55,35,-26,-32,-39,-48,-7
1,-70,-71,35,37,-70,40,-8,-24,-51,-55,-14
-22,-22,0,22,-11,-11,18,-48,-44,-19,-12,8
-22,-11,11,16,-17,0,40,-16,-22,7,3,21
63,58,-6,-60,34,26,-130,-340,-283,266,296,236
325,133,-192,-229,258,-30,-464,-796,-475,898,996,714
569,-248,-817,-160,693,-532,-425,-621,-271,920,1132,784
469,-489,-958,10,713,-723,-268,-367,-234,208,540,425
244,-318,-562,38,403,-440,-179,-244,-232,-237,20,130
95,-168,-263,37,179,-215,-53,-85,-105,-177,-102,32
33,-72,-105,20,69,-88,15,11,-8,-88,-81,5
9,-51,-60,21,35,-55,51,54,24,-78,-88,-43
-10,-41,-31,26,11,-36,60,57,41,-66,-79,-50
-10,-35,-25,22,8,-30,59,58,64,-73,-77,-47
-15,-32,-17,23,1,-24,69,69,58,-64,-75,-44
-27,-28,-1,28,-13,-14,76,87,61,-66,-83,-39
-27,-32,-4,29,-12,-18,71,85,60,-64,-82,-36
-17,-29,-12,23,-3,-20,67,85,60,-60,-77,-34
-20,-31,-11,26,-4,-21,64,86,64,-58,-75,-48
-7,-30,-23,19,8,-26,60,85,65,-55,-71,-50
-12,-28,-16,20,2,-22,57,82,65,-52,-65,-44
-34,-24,10,29,-22,-6,51,79,66,-50,-69,-42
-42,-20,21,31,-31,0,47,80,69,-43,-73,-37
-29,-8,21,19,-25,6,42,80,83,-24,-54,-34
-3,16,19,-6,-12,17,38,80,101,-10,-46,-32
19,35,16,-27,1,25,34,81,109,20,-27,-23
24,38,14,-31,5,26,26,93,125,57,8,-4
12,47,35,-30,-11,41,16,98,144,89,32,26
19,61,42,-40,-11,51,8,91,160,118,60,50
28,68,39,-48,-6,53,-2,84,178,150,89,66
40,80,40,-60,-1,60,-22,77,194,193,123,88
57,88,31,-73,13,59,-35,71,197,233,170,114
76,94,18,-86,29,56,-40,65,200,265,206,133
87,95,8,-91,39,51,-54,59,198,289,226,145
88,90,2,-90,43,46,-67,53,187,297,229,155
91,89,-3,-89,47,43,-65,46,180,287,217,160
91,85,-6,-88,48,39,-54,39,171,271,206,151
96,84,-12,-90,54,35,-47,33,153,255,194,137
89,76,-13,-82,51,31,-37,27,125,224,168,118
87,66,-21,-76,54,22,-29,25,98,166,137,87
85,60,-25,-72,54,17,-20,22,72,119,107,76
51,42,-9,-46,30,16,-12,19,54,86,64,55
28,14,-14,-21,21,0,-6,16,46,45,33,18
34,1,-33,-17,33,-16,1,15,42,23,23,19
33,-3,-36,-15,35,-19,8,20,36,8,10,23
19,-13,-31,-3,25,-22,14,23,30,-6,0,18
14,-16,-29,1,22,-22,11,27,25,-12,-7,17
3,-23,-26,10,15,-24,10,30,20,-20,-14,12
-10,-34,-24,22,7,-29,10,35,20,-24,-18,11
-9,-28,-19,18,5,-23,10,33,18,-19,-23,8
-12,-19,-7,16,-3,-12,9,29,15,-16,-24,-4
-14,-12,2,13,-8,-5,14,31,14,-13,-20,-20
-20,-7,13,13,-16,3,26,26,18,-8,-18,-21
-16,3,18,6,-17,10,25,25,23,-5,-15,-10
-9,16,24,-4,-17,20,22,24,21,-1,-12,0
4,34,30,-19,-14,32,19,21,16,0,-10,10
28,45,18,-37,5,31,16,18,13,0,-6,19
6,37,31,-22,-13,34,14,15,10,4,0,26
-11,32,43,-10,-28,38,11,12,4,6,5,33
-5,30,35,-13,-20,32,10,10,13,4,12,32
-4,30,34,-13,-19,32,10,8,19,-4,14,28
-2,27,29,-12,-16,27,10,3,7,-11,6,24
-1,24,26,-12,-14,25,10,0,0,-17,-1,18
3,25,23,-14,-10,24,12,-3,-10,-26,-8,15
1,19,19,-10,-9,19,15,-8,-18,-32,-16,10
-2,13,15,-6,-9,13,15,-11,-20,-32,-22,5
-7,6,12,0,-10,8,18,-14,-24,-29,-29,1
-7,-1,7,4,-7,3,21,-17,-26,-32,-33,0
-13,-8,5,10,-9,-1,19,-20,-29,-43,-38,0
-6,-8,-1,7,-2,-4,16,-23,-30,-46,-40,0
-2,-5,-2,3,1,-3,13,-25,-30,-45,-40,0
-20,-2,19,11,-19,8,11,-25,-30,-45,-40,-1
-18,1,19,8,-18,10,7,-25,-30,-45,-40,-5
-28,-12,16,20,-21,2,4,-25,-30,-45,-40,-5
-18,-15,4,16,-11,-5,7,-25,-30,-46,-40,-5
-19,-1,19,10,-19,9,10,-25,-32,-57,-36,-5
-41,2,42,19,-42,22,13,-25,-35,-61,-35,-5
-20,-6,14,13,-16,4,16,-20,-35,-59,-35,-8
-6,-7,-1,7,-2,-4,19,-20,-35,-60,-35,-11
13,-2,-15,-5,14,-8,20,-18,-35,-59,-35,-14
3,-19,-23,8,13,-20,15,-16,-35,-61,-35,-16
-14,-32,-18,23,2,-25,15,-13,-35,-57,-43,-20
-3,-24,-21,14,10,-22,15,-24,-35,-55,-45,-18
-4,-24,-19,14,8,-21,15,-40,-35,-55,-39,-15
3,-17,-20,7,12,-19,16,-41,-35,-51,-38,-14
1,-16,-17,8,9,-16,12,-45,-38,-50,-32,-11
5,-8,-12,2,9,-10,10,-48,-40,-50,-30,-9
20,11,-9,-16,15,1,10,-50,-40,-50,-40,-17
13,7,-6,-10,9,1,10,-48,-40,-50,-41,-27
3,2,-1,-2,2,1,10,-41,-40,-50,-40,-23
-10,-13,-3,11,-3,-7,10,-34,-40,-50,-39,-17
-20,-32,-11,26,-4,-21,10,-27,-40,-49,-35,-11
-19,-29,-10,24,-4,-20,10,-21,-40,-51,-34,-6
-22,-31,-8,27,-7,-19,10,-15,-40,-49,-38,2
-28,-30,-2,29,-13,-16,10,-22,-40,-53,-43,4
-43,-30,13,36,-28,-8,9,-30,-40,-63,-41,0
-18,-30,-12,24,-3,-21,13,-30,-40,-57,-38,-3
14,-10,-25,-2,20,-17,15,-30,-40,-47,-36,-5
-3,-13,-10,8,4,-11,15,-30,-40,-41,-32,-2
-3,-27,-25,15,11,-26,15,-30,-40,-40,-30,3
-19,-25,-5,22,-6,-15,15,-30,-40,-40,-30,4
-37,-23,13,30,-24,-5,14,-30,-40,-40,-30,-12
-21,-21,0,21,-11,-10,11,-30,-35,-40,-30,-17
-14,-17,-3,16,-5,-10,10,-30,-35,-40,-30,-14
-4,-16,-12,10,5,-13,10,-30,-33,-40,-30,-15
14,-11,-24,-1,19,-17,10,-30,-30,-40,-30,-10
15,-10,-25,-2,20,-17,10,-28,-29,-40,-25,-10
4,-14,-18,5,11,-16,13,-23,-33,-40,-25,-11
-9,-24,-15,17,3,-19,15,-20,-42,-40,-25,-20
-29,-38,-9,34,-9,-24,15,-16,-40,-39,-25,-22
-1,-7,-6,4,3,-7,15,-13,-32,-35,-25,-14
2,8,6,-5,-2,7,15,-9,-26,-33,-23,-11
-20,7,28,6,-25,17,15,-6,-19,-30,-17,-4
3,40,36,-22,-17,38,8,-4,-12,-27,-13,1
2,37,34,-20,-16,35,1,-6,-12,-25,-9,6
11,48,37,-30,-13,42,-6,-3,-21,-22,-4,11
38,87,49,-63,-6,68,-13,-11,-29,-17,0,14
38,86,48,-63,-5,67,-33,-39,-37,-14,7,18
34,75,41,-55,-4,58,-48,-47,-45,-12,14,21
35,74,39,-55,-2,56,-36,-41,-50,-5,23,26
12,44,32,-28,-10,37,-28,-39,-50,-7,18,17
-21,11,32,5,-27,21,-25,-35,-51,-19,-2,-2
-23,2,25,10,-25,14,-18,-29,-49,-39,-29,-21
-23,4,27,9,-25,15,-17,-30,-52,-54,-39,-25
-22,-2,20,12,-21,9,-9,-22,-45,-62,-42,-29
-25,-5,20,15,-22,7,-14,-28,-48,-60,-45,-34
-21,-3,18,12,-19,7,-16,-22,-42,-58,-46,-34
-30,-19,11,24,-20,-4,-13,-27,-47,-64,-54,-42
-38,-16,22,27,-30,3,-19,-25,-44,-53,-42,-37
-33,-26,7,29,-20,-9,-9,-28,-44,-67,-51,-52
-50,22,72,14,-61,47,-27,-62,-62,-38,-29,-32
-29,28,57,0,-44,43,-17,-51,-66,-26,-3,2
58,127,68,-93,-5,97,-209,-405,-332,269,322,221
304,161,-143,-232,223,9,-497,-732,-446,890,991,667
503,-264,-768,-119,636,-516,-425,-506,-215,916,1106,723
391,-447,-838,29,615,-643,-284,-318,-193,251,545,387
191,-263,-454,37,322,-358,-191,-220,-214,-208,39,106
68,-118,-187,25,128,-152,-77,-89,-121,-165,-79,-3
10,-40,-50,16,30,-45,-33,-10,-41,-98,-64,-30
-14,-21,-6,18,-4,-14,18,37,-4,-102,-85,-63
-29,-3,25,16,-27,11,42,43,3,-89,-89,-70
-52,-8,44,30,-48,18,37,48,10,-99,-98,-84
-65,-1,64,33,-65,31,35,49,13,-92,-99,-99
-45,12,57,17,-51,34,30,53,21,-97,-100,-100
-33,20,53,6,-43,36,27,55,25,-93,-102,-100
-33,21,54,6,-44,38,23,57,29,-87,-105,-99
-27,19,45,4,-36,32,20,61,32,-83,-106,-101
-35,21,56,7,-46,38,20,59,34,-77,-101,-99
-49,33,82,8,-66,58,20,64,38,-72,-90,-93
-35,42,77,-4,-56,59,20,65,39,-66,-77,-86
-24,39,63,-8,-44,51,20,65,47,-59,-69,-79
-20,40,60,-10,-40,50,16,73,60,-47,-63,-73
-19,41,60,-11,-40,51,9,81,64,-34,-56,-66
-32,38,70,-3,-51,53,3,85,67,-27,-50,-63
-23,63,86,-20,-55,75,-4,85,87,-1,-39,-57
-6,96,102,-45,-55,99,-11,85,110,39,0,-37
-4,96,100,-46,-53,97,-16,85,118,70,35,-10
-4,92,96,-44,-51,94,-30,85,136,106,65,4
1,96,95,-49,-47,95,-43,81,151,149,109,33
31,125,94,-78,-32,109,-58,74,149,182,136,66
51,137,86,-94,-18,111,-78,68,151,197,147,64
49,127,78,-88,-15,102,-81,61,149,224,175,78
56,126,70,-91,-7,98,-79,54,151,242,190,86
58,119,61,-89,-1,90,-81,48,147,226,178,78
56,116,60,-86,-2,88,-79,38,120,209,172,75
49,109,60,-79,-6,84,-81,26,106,195,157,71
35,95,60,-65,-13,77,-68,15,77,154,122,58
25,85,60,-55,-18,72,-52,6,45,96,87,28
14,75,60,-45,-23,67,-43,5,33,55,55,8
10,65,55,-38,-23,60,-32,4,16,22,20,-13
3,49,46,-26,-21,47,-22,1,9,-3,-2,-29
-11,27,38,-8,-24,32,-15,-1,2,-17,-18,-37
-14,15,29,-1,-22,22,-15,1,-5,-30,-32,-39
-17,7,24,5,-21,15,-14,5,-13,-45,-43,-40
-28,-2,26,14,-26,12,-9,5,-18,-50,-50,-49
-27,-2,24,14,-25,11,-11,7,-16,-50,-50,-51
-24,2,25,11,-25,13,-7,11,-13,-55,-50,-49
-26,3,29,11,-28,16,-5,10,-10,-55,-51,-49
-24,7,31,8,-28,19,-5,14,-7,-67,-58,-69
-18,9,28,4,-23,18,-1,24,-5,-70,-61,-74
-12,12,23,-1,-18,17,1,28,-5,-64,-59,-64
-24,19,43,2,-34,31,-1,25,-5,-62,-60,-62
-22,27,49,-3,-36,37,-4,22,-5,-57,-60,-54
-17,29,45,-6,-31,37,-6,20,-5,-55,-60,-51
-33,28,60,2,-47,43,-4,16,-5,-50,-60,-50
-36,23,60,6,-49,41,-5,15,-5,-51,-60,-49
-28,27,55,0,-42,41,-5,12,-10,-48,-60,-54
-11,43,54,-16,-33,48,-3,6,-15,-45,-60,-61
-5,44,49,-19,-27,46,1,1,-19,-45,-60,-63
-17,36,52,-9,-35,44,-2,-2,-24,-45,-59,-67
-33,29,62,2,-48,45,-18,-8,-29,-65,-62,-70
-34,24,58,5,-46,40,-21,-9,-32,-75,-68,-66
-37,13,51,12,-44,32,-16,-5,-37,-73,-71,-65
-27,17,44,5,-36,30,-15,-5,-40,-86,-74,-65
-11,28,38,-9,-25,33,-10,-5,-45,-90,-77,-65
-17,13,29,2,-23,21,-9,-5,-50,-90,-80,-65
-27,5,33,11,-30,19,-6,-5,-50,-95,-80,-66
-47,0,47,24,-47,23,-5,-8,-50,-95,-80,-75
-40,-8,32,24,-36,12,-5,-11,-50,-95,-80,-81
-39,-14,25,26,-32,6,-4,-14,-50,-95,-80,-80
-44,-20,24,31,-34,2,-6,-15,-52,-95,-84,-80
-42,-15,27,28,-34,6,-2,-15,-56,-95,-85,-80
-56,-12,44,33,-50,16,0,-15,-58,-95,-86,-80
-54,-8,45,31,-50,18,0,-15,-61,-95,-89,-80
-49,-5,45,26,-46,20,0,-15,-64,-95,-91,-80
-45,0,45,22,-45,22,1,-15,-66,-95,-88,-80
-47,-2,45,24,-46,21,-2,-18,-69,-95,-85,-80
-50,-6,44,27,-46,19,-15,-21,-70,-100,-85,-80
-44,-5,40,25,-42,17,-15,-19,-70,-100,-83,-80
-43,-5,38,24,-40,16,-10,-21,-70,-101,-79,-80
-39,-5,34,21,-36,15,-9,-25,-70,-105,-80,-80
-32,-1,32,16,-32,15,-4,-25,-68,-105,-84,-80
-26,4,30,11,-28,17,-7,-25,-63,-102,-83,-78
-24,3,26,10,-25,14,-10,-25,-60,-100,-95,-78
-32,-7,25,19,-28,8,-13,-25,-57,-100,-101,-81
-38,-18,20,28,-29,1,-15,-29,-52,-100,-84,-79
-35,-15,20,25,-27,2,-18,-30,-50,-100,-80,-80
-29,-17,13,22,-20,-2,-21,-30,-58,-100,-81,-80
-29,-7,22,17,-25,8,-16,-30,-63,-105,-78,-80
-29,21,49,4,-39,35,-15,-30,-58,-103,-85,-90
-24,27,50,-2,-37,38,-14,-29,-55,-97,-92,-91
-26,24,50,1,-39,36,-11,-24,-52,-93,-78,-86
-18,32,50,-7,-34,41,-9,-22,-47,-89,-67,-84
-30,34,64,-2,-47,48,-12,-17,-45,-84,-64,-79
-32,38,70,-3,-51,54,-24,-16,-44,-80,-59,-76
3,62,59,-33,-28,60,-26,-8,-45,-76,-59,-72
-10,68,78,-29,-45,72,-18,2,-44,-70,-50,-70
-11,74,85,-32,-48,79,-32,-26,-45,-67,-54,-70
8,85,77,-46,-35,80,-51,-52,-60,-60,-53,-70
0,71,71,-36,-36,71,-46,-49,-66,-63,-28,-75
-4,62,66,-29,-35,64,-38,-49,-65,-68,-21,-77
-22,42,64,-10,-43,52,-30,-44,-65,-78,-39,-81
-47,14,61,17,-55,37,-22,-43,-66,-101,-68,-84
-55,4,58,25,-57,31,-16,-39,-64,-107,-80,-88
-52,2,54,25,-53,28,-14,-37,-63,-104,-82,-93
-54,-1,53,27,-53,26,-11,-30,-56,-103,-85,-96
-50,-7,43,28,-46,18,-7,-24,-55,-102,-86,-101
-55,-9,46,32,-50,18,-7,-22,-51,-96,-82,-93
-53,-21,32,37,-42,5,-1,-7,-44,-121,-89,-94
-39,0,38,19,-38,19,-4,-22,-52,-109,-80,-85
-44,-17,28,30,-35,5,6,-20,-53,-112,-92,-88
-34,30,63,2,-49,46,-14,-43,-75,-88,-67,-77
-45,59,103,-7,-75,81,-14,-41,-63,-69,-53,-75
-24,91,115,-33,-70,103,-135,-284,-279,58,118,59
192,251,59,-222,66,155,-447,-728,-521,614,733,505
450,-67,-517,-191,484,-292,-491,-659,-346,844,1056,701
472,-399,-871,-36,672,-635,-348,-378,-235,371,683,450
283,-322,-606,20,445,-464,-242,-237,-240,-136,142,138
94,-207,-302,57,198,-254,-97,-95,-145,-237,-105,-29
15,-51,-65,18,40,-58,-22,-12,-59,-135,-94,-58
-25,-19,6,21,-15,-7,-5,36,-8,-121,-119,-93
-61,-13,48,36,-54,17,15,59,0,-108,-134,-111
-68,1,69,34,-68,35,29,60,5,-110,-129,-117
-72,-2,70,37,-71,34,30,61,7,-109,-132,-122
-74,11,85,31,-80,48,25,64,11,-103,-127,-119
-68,13,82,27,-75,47,24,65,15,-107,-126,-121
-61,39,100,11,-80,69,20,66,18,-100,-124,-119
-58,40,97,9,-77,68,21,70,26,-97,-124,-115
-53,40,93,6,-73,66,30,72,30,-91,-117,-108
-44,45,88,0,-67,66,32,75,37,-88,-113,-104
-40,44,84,-2,-62,64,29,78,41,-83,-109,-98
-33,47,79,-7,-56,63,30,81,50,-78,-104,-92
-46,42,88,2,-67,65,25,83,50,-66,-100,-88
-55,53,107,1,-81,80,26,86,50,-51,-89,-77
-42,70,112,-14,-77,91,23,89,76,-34,-65,-68
-37,70,107,-17,-72,88,14,92,86,-6,-39,-57
-32,73,105,-21,-69,89,1,95,99,19,-18,-46
-21,102,124,-41,-73,113,-10,94,117,45,5,-31
7,133,126,-71,-60,129,-20,89,135,85,28,-13
22,136,113,-79,-46,124,-40,84,151,126,68,5
28,135,107,-82,-40,121,-45,80,156,161,108,38
35,134,98,-85,-32,116,-58,75,159,182,128,59
47,140,93,-94,-23,116,-66,71,153,207,161,77
62,148,86,-105,-12,116,-68,64,147,222,181,95
55,134,79,-95,-13,106,-84,52,141,211,170,86
53,125,72,-89,-10,99,-76,41,136,204,157,78
48,115,67,-82,-10,91,-64,30,125,179,144,69
40,105,65,-73,-12,84,-53,22,101,141,116,54
33,95,62,-64,-15,78,-40,17,70,100,69,31
11,69,59,-40,-24,64,-31,12,38,49,23,-2
-6,50,56,-22,-31,53,-24,6,17,9,-7,-21
-12,42,54,-15,-33,48,-19,1,7,-26,-28,-38
-16,34,51,-9,-34,42,-14,3,1,-45,-46,-48
-24,26,50,-1,-37,38,-11,6,-6,-51,-52,-45
-29,19,49,5,-39,34,-6,9,-13,-55,-55,-43
-32,14,45,9,-39,29,1,12,-19,-60,-60,-55
-35,9,43,13,-39,26,8,14,-17,-76,-60,-71
-51,5,56,23,-54,30,14,17,-14,-80,-62,-69
-67,0,67,33,-67,33,22,19,-11,-79,-68,-71
-66,-4,62,35,-63,28,24,23,-8,-81,-72,-75
-62,-2,60,32,-61,28,20,25,-6,-79,-75,-75
-41,16,57,12,-49,36,20,29,-3,-81,-83,-75
-24,30,54,-4,-39,41,20,30,-1,-79,-88,-75
-36,24,59,6,-48,41,20,27,3,-75,-85,-75
-44,18,61,13,-53,40,20,24,5,-76,-82,-75
-53,14,68,19,-61,41,20,21,9,-72,-79,-75
-65,4,69,30,-67,37,20,18,11,-70,-76,-76
-55,14,69,20,-62,41,20,15,6,-70,-75,-79
-45,36,81,4,-64,58,20,14,0,-70,-80,-83
-32,35,67,-2,-50,51,20,9,-5,-70,-80,-85
-28,34,62,-4,-45,48,19,6,-11,-69,-80,-90
-41,36,77,2,-59,56,15,3,-17,-87,-80,-88
-37,34,71,1,-54,52,15,-2,-20,-96,-79,-85
-33,35,69,-1,-51,52,13,-5,-30,-95,-83,-85
-39,26,65,6,-52,45,9,-9,-40,-101,-85,-85
-46,14,60,16,-53,37,10,-10,-41,-100,-86,-85
-57,4,60,27,-59,32,10,-13,-39,-105,-90,-85
-74,-14,60,44,-66,23,10,-15,-45,-105,-90,-89
-80,-19,60,49,-70,20,10,-16,-54,-105,-94,-90
-71,-12,60,42,-65,24,10,-20,-57,-105,-95,-90
-68,-8,60,38,-64,26,11,-20,-59,-105,-95,-90
-61,-1,60,31,-60,29,8,-20,-63,-103,-95,-89
-51,4,55,23,-54,29,5,-16,-66,-99,-94,-92
-48,2,50,23,-49,26,5,-15,-62,-97,-97,-95
-47,-2,45,24,-46,21,5,-15,-60,-93,-100,-95
-47,-5,42,25,-44,18,5,-15,-57,-92,-100,-95
-44,-9,35,26,-39,12,5,-14,-54,-87,-100,-95
-47,-9,38,28,-42,14,8,-19,-51,-99,-99,-95
-49,-2,46,25,-47,22,10,-31,-50,-116,-95,-100
-38,4,42,17,-40,22,10,-28,-61,-115,-95,-98
-28,6,34,11,-32,20,10,-23,-61,-115,-95,-94
-23,3,27,10,-25,15,10,-22,-60,-115,-95,-95
-24,-3,20,13,-22,8,8,-14,-59,-115,-95,-95
-28,-18,10,23,-18,-4,5,-20,-54,-113,-95,-95
-27,-1,26,14,-27,13,2,-31,-56,-109,-95,-94
-18,23,41,-3,-30,32,0,-30,-52,-107,-95,-91
-28,19,47,5,-37,33,-3,-30,-50,-104,-95,-88
-51,16,67,17,-59,41,-6,-30,-50,-101,-95,-85
-51,14,65,18,-58,39,-1,-30,-46,-99,-95,-82
-55,10,64,22,-60,36,3,-28,-44,-95,-88,-80
-54,12,66,21,-60,38,9,-17,-46,-87,-77,-78
-27,36,63,-5,-45,49,12,-7,-49,-81,-68,-71
-15,60,74,-23,-45,67,18,2,-52,-74,-61,-64
-20,61,81,-21,-50,71,19,18,-54,-70,-57,-58
-22,58,80,-18,-51,69,-7,5,-58,-70,-51,-50
-14,66,80,-26,-47,73,-30,-30,-60,-70,-45,-46
-16,65,80,-25,-48,72,-45,-46,-62,-69,-40,-44
-10,70,80,-30,-45,75,-44,-46,-65,-71,-41,-46
1,77,77,-39,-38,77,-34,-43,-65,-68,-39,-43
-23,46,69,-12,-46,57,-25,-39,-64,-74,-44,-49
-35,30,65,2,-50,48,-18,-38,-66,-91,-61,-67
-44,14,58,15,-51,35,-14,-33,-63,-104,-73,-84
-52,3,55,24,-54,29,-12,-34,-63,-109,-80,-90
-54,2,56,26,-55,29,-9,-27,-57,-108,-83,-89
-62,-12,50,37,-56,19,-6,-32,-63,-117,-92,-91
-56,-3,53,30,-55,25,-6,-24,-58,-121,-96,-87
-49,-4,45,26,-47,20,-8,-24,-61,-127,-99,-94
-32,19,51,6,-42,35,-14,-28,-63,-107,-81,-81
-19,7,26,6,-22,16,-8,-9,-65,-123,-91,-89
-35,37,72,-2,-54,55,-24,-49,-85,-87,-63,-69
-50,63,113,-7,-82,88,-7,-45,-68,-61,-44,-43
-4,143,147,-70,-76,145,-176,-373,-331,113,182,129
226,243,17,-235,104,130,-480,-797,-549,625,787,555
465,-133,-597,-166,531,-365,-464,-638,-355,659,942,644
448,-413,-861,-17,654,-636,-335,-377,-263,154,505,353
262,-308,-570,23,416,-439,-219,-227,-230,-223,45,82
81,-179,-259,49,170,-218,-80,-85,-123,-244,-136,-47
8,-45,-53,19,31,-49,-19,-7,-46,-127,-111,-64
-39,-10,29,24,-34,9,16,41,-3,-114,-120,-90
-56,13,68,21,-62,40,20,52,2,-97,-112,-95
-50,28,78,11,-64,53,27,52,8,-96,-110,-95
-69,28,98,20,-83,63,35,49,11,-94,-110,-96
-62,32,94,15,-78,63,41,50,16,-87,-103,-94
-69,28,96,20,-82,62,45,51,21,-87,-107,-96
-70,32,102,19,-86,67,39,49,24,-80,-101,-92
-71,27,98,22,-84,63,41,52,29,-77,-101,-88
-62,39,102,12,-82,70,37,63,32,-71,-100,-82
-52,46,98,3,-76,72,35,69,36,-68,-97,-79
-57,44,101,6,-80,72,35,72,35,-63,-92,-74
-53,46,98,3,-76,72,31,77,42,-58,-89,-69
-59,44,103,7,-81,73,24,80,61,-48,-82,-64
-50,61,112,-6,-81,86,18,80,69,-35,-77,-55
-49,78,127,-14,-88,102,11,84,79,-20,-64,-50
-53,87,141,-17,-98,114,4,86,93,5,-36,-41
-29,106,135,-39,-82,120,-2,85,106,29,-11,-23
-19,112,130,-47,-75,121,-14,85,122,60,21,-5
-2,125,127,-62,-65,126,-29,85,132,107,58,26
22,143,121,-82,-50,132,-40,84,149,140,86,51
32,150,118,-91,-43,134,-49,76,156,174,120,72
54,164,111,-109,-29,137,-62,69,147,202,153,98
70,174,104,-122,-17,139,-71,62,145,216,174,111
72,169,97,-121,-13,133,-70,54,139,227,178,111
71,162,91,-117,-10,126,-70,48,136,215,173,100
74,158,85,-116,-6,121,-71,41,128,198,170,92
69,149,80,-109,-6,114,-68,35,111,179,149,83
44,124,80,-84,-19,102,-48,30,94,150,111,72
23,102,79,-63,-28,90,-27,24,70,100,70,53
12,86,74,-49,-32,80,-14,19,47,39,32,32
-6,70,76,-33,-41,72,0,13,30,-1,3,12
-19,54,72,-18,-46,63,5,10,22,-28,-16,-14
-25,44,70,-9,-48,56,5,10,16,-37,-31,-25
-29,41,70,-6,-50,56,5,10,9,-45,-43,-26
-30,36,66,-3,-49,51,9,10,3,-57,-50,-23
-33,32,64,0,-49,48,10,10,-4,-54,-50,-30
-38,27,66,5,-52,46,10,13,-1,-56,-51,-46
-46,24,69,11,-58,46,10,19,0,-53,-55,-45
-51,19,70,16,-61,45,10,23,0,-63,-54,-45
-52,17,69,17,-61,43,11,27,5,-86,-57,-45
-59,12,71,24,-65,41,15,33,5,-85,-62,-44
-59,11,69,24,-64,40,19,35,5,-85,-67,-48
-47,26,73,10,-60,49,20,35,5,-85,-70,-50
-46,31,77,7,-61,54,20,35,5,-85,-66,-54
-53,29,82,12,-68,56,20,35,5,-83,-61,-56
-64,31,95,16,-79,62,20,35,5,-75,-59,-60
-65,29,94,18,-80,61,20,35,5,-72,-55,-60
-58,31,89,14,-74,60,20,32,2,-65,-50,-55
-47,40,87,3,-67,63,20,29,-2,-61,-52,-52
-42,40,83,1,-63,61,20,26,-3,-54,-56,-48
-41,40,81,1,-61,60,20,23,-8,-57,-55,-45
-40,37,77,1,-59,57,20,20,-8,-76,-55,-40
-41,33,75,3,-59,54,16,19,-16,-82,-55,-42
-35,37,72,-1,-54,54,15,14,-35,-83,-55,-48
-54,15,70,19,-62,42,15,8,-35,-87,-60,-52
-55,12,67,21,-61,39,15,5,-36,-89,-60,-55
-33,28,61,3,-48,44,15,0,-41,-90,-61,-55
-34,23,56,5,-46,39,16,-5,-39,-92,-65,-55
-32,21,53,5,-42,37,20,-9,-43,-96,-65,-55
-30,17,47,7,-39,32,20,-10,-45,-95,-63,-55
-29,17,46,6,-38,31,20,-10,-45,-92,-60,-55
-46,4,50,21,-48,26,20,-10,-45,-89,-57,-57
-52,1,54,25,-53,27,20,-10,-45,-86,-54,-60
-42,14,55,13,-48,34,24,-10,-45,-84,-50,-60
-48,7,55,20,-52,31,25,-10,-40,-80,-50,-60
-49,6,55,21,-52,30,25,-10,-40,-81,-55,-60
-53,2,55,25,-55,28,25,-10,-39,-85,-55,-60
-54,0,54,26,-54,26,25,-10,-35,-84,-55,-55
-52,-2,50,27,-51,23,23,-10,-35,-87,-55,-55
-56,-5,50,31,-53,22,20,-13,-33,-90,-55,-55
-53,-6,47,29,-50,20,17,-18,-29,-90,-55,-55
-55,-11,45,32,-50,17,15,-21,-30,-86,-55,-55
-55,-10,45,32,-50,17,12,-24,-30,-81,-55,-53
-54,-5,48,29,-51,21,9,-29,-30,-76,-55,-50
-55,-5,51,30,-53,22,14,-29,-30,-73,-55,-47
-55,-5,50,30,-52,22,18,-22,-25,-67,-55,-44
-60,-4,56,32,-57,25,21,-18,-25,-65,-49,-41
-60,-6,53,32,-56,24,24,-12,-24,-76,-43,-39
-59,1,60,28,-60,31,29,-6,-19,-74,-38,-35
-54,22,76,16,-65,48,29,-1,-20,-58,-32,-27
-32,43,75,-6,-54,59,21,5,-19,-45,-28,-21
-33,42,75,-5,-55,58,14,14,-20,-39,-23,-14
-33,43,76,-6,-54,59,4,18,-20,-34,-17,-8
-6,69,75,-32,-41,72,-1,-3,-20,-30,-14,-2
-17,56,73,-20,-45,65,-14,-34,-35,-25,-8,6
-21,44,65,-12,-43,55,-28,-38,-41,-20,-5,12
20,79,59,-50,-20,69,-22,-31,-40,-25,2,19
25,77,53,-51,-14,65,-12,-24,-40,-34,0,9
-13,32,45,-10,-29,38,-6,-18,-40,-51,-27,-9
-39,2,41,18,-40,21,0,-11,-35,-62,-46,-15
-44,-12,32,28,-38,10,5,-6,-35,-68,-52,-26
-42,-11,31,26,-36,10,10,-6,-36,-66,-48,-30
-44,-24,20,34,-32,-2,17,-2,-33,-74,-52,-41
-43,-22,21,32,-32,0,20,-9,-38,-73,-49,-43
-29,-21,8,25,-18,-6,26,1,-32,-75,-50,-47
-36,-14,23,25,-29,5,18,-13,-48,-79,-51,-51
-50,-1,49,25,-49,24,21,-7,-30,-75,-46,-49
-49,-11,38,30,-44,14,14,-34,-55,-92,-57,-63
-43,43,87,0,-65,65,15,-16,-32,-34,-17,-30
-27,50,77,-12,-52,63,-9,-93,-108,26,51,37
99,186,87,-142,6,136,-311,-607,-466,389,501,371
369,89,-280,-229,324,-95,-511,-811,-498,730,968,687
500,-357,-857,-71,679,-607,-380,-536,-307,341,713,505
374,-411,-785,19,580,-598,-266,-334,-266,-143,224,198
157,-263,-420,53,289,-341,-136,-161,-191,-248,-59,20
42,-111,-153,35,97,-132,-31,-21,-77,-149,-85,-18
-3,-18,-15,11,6,-17,6,52,-9,-77,-46,-27
-53,-12,41,33,-47,14,47,72,12,-70,-73,-58
-42,18,60,12,-51,38,55,67,25,-58,-66,-63
-61,17,78,22,-70,47,55,82,41,-61,-67,-78
-79,24,103,28,-91,63,55,91,57,-53,-61,-71
-55,17,72,19,-64,44,55,90,54,-51,-57,-69
-54,15,69,19,-62,42,56,88,57,-48,-55,-65
-47,13,60,17,-54,37,52,85,61,-42,-61,-60
-56,8,65,24,-60,36,50,85,59,-38,-64,-58
-63,13,77,25,-70,45,50,90,65,-33,-55,-50
-53,21,73,15,-63,47,50,100,63,-29,-50,-47
-48,29,77,9,-63,53,50,107,69,-25,-42,-41
-34,37,71,-2,-52,54,50,110,80,-16,-36,-35
-43,44,86,-1,-65,65,45,115,90,-3,-29,-31
-43,51,94,-4,-68,72,37,119,100,8,-24,-22
-23,59,83,-18,-54,71,32,117,112,27,-13,-13
-11,68,79,-29,-45,73,24,115,136,65,23,1
21,92,70,-57,-25,81,18,115,151,115,66,29
35,102,66,-69,-16,83,11,110,173,152,95,55
39,107,68,-73,-15,87,-1,110,197,188,130,75
43,125,82,-84,-20,104,-18,109,205,229,171,96
60,138,77,-99,-9,107,-36,98,206,259,196,118
78,135,57,-106,10,96,-41,87,197,282,219,135
85,135,50,-110,17,92,-50,74,191,293,233,142
106,150,43,-128,31,96,-50,66,183,287,226,139
102,141,39,-122,31,90,-39,61,176,282,217,135
92,124,32,-109,30,78,-33,56,169,266,209,136
66,94,28,-80,19,61,-24,52,143,232,193,124
48,70,22,-59,13,45,-17,48,113,188,166,101
47,66,20,-56,13,43,-8,43,93,129,116,65
27,47,20,-37,3,33,3,40,72,84,73,33
16,35,19,-25,-2,27,12,40,55,53,52,20
-8,25,33,-9,-21,29,27,38,47,27,37,11
-14,15,29,0,-22,22,35,34,41,18,27,4
-7,4,12,1,-10,8,36,35,34,14,15,-3
-24,-18,6,21,-15,-6,40,35,29,10,5,-11
-35,-30,5,32,-20,-12,40,35,31,5,0,-17
-34,-30,4,31,-19,-13,40,35,27,1,-5,-24
-30,-30,0,30,-15,-15,40,36,25,-5,-11,-31
-30,-30,0,30,-15,-15,51,40,25,-13,-17,-35
-28,-30,-3,29,-13,-16,56,40,21,-19,-20,-35
-25,-29,-3,27,-11,-16,55,40,20,-27,-11,-35
-31,-23,8,27,-19,-7,61,40,20,-35,-17,-35
-30,-16,14,22,-22,-1,59,40,21,-38,-36,-35
-36,-10,26,22,-31,8,56,52,19,-33,-34,-36
-50,-2,48,26,-49,23,51,55,25,-27,-28,-31
-47,4,51,22,-49,27,48,49,36,-22,-25,-25
-47,2,50,23,-49,26,45,47,31,-16,-20,-20
-53,-3,50,28,-51,23,39,42,28,-11,-15,-14
-54,-4,50,29,-52,22,46,39,25,-10,-15,-8
-46,3,49,22,-48,26,51,35,21,-8,-15,-6
-39,2,41,18,-40,21,49,30,18,-4,-16,-15
-36,-2,35,19,-35,16,50,26,11,-6,-13,-20
-31,-5,27,18,-29,11,50,21,6,-14,-11,-17
-28,-9,20,18,-24,5,50,17,1,-21,-9,-13
-22,-11,11,16,-17,0,50,12,-5,-27,-18,-20
-44,-27,17,35,-30,-5,50,10,-9,-36,-43,-31
-64,-36,28,50,-46,-4,50,10,-5,-41,-45,-30
-58,-34,24,46,-41,-5,50,7,2,-40,-39,-28
-54,-35,19,45,-36,-8,50,4,6,-40,-38,-25
-49,-35,14,41,-31,-10,50,6,12,-40,-31,-25
-46,-35,11,40,-28,-12,55,9,18,-40,-31,-27
-39,-36,3,37,-21,-16,55,12,18,-43,-34,-34
-57,-40,17,49,-37,-11,56,14,12,-48,-36,-40
-63,-40,23,51,-43,-9,60,18,7,-49,-35,-40
-31,-40,-9,35,-11,-24,60,20,4,-44,-35,-40
-34,-56,-21,45,-7,-38,60,22,-2,-46,-35,-40
-41,-62,-21,51,-10,-41,60,25,-5,-42,-35,-40
-35,-55,-20,45,-7,-37,60,25,-5,-40,-35,-37
-36,-55,-20,46,-8,-37,60,25,-5,-40,-31,-35
-29,-50,-21,39,-4,-35,60,25,-3,-36,-30,-32
-33,-51,-18,42,-7,-34,60,24,-4,-31,-30,-29
-25,-54,-29,40,2,-41,55,21,-5,-26,-30,-26
-20,-55,-35,38,8,-45,55,18,-6,-23,-30,-25
-31,-59,-28,45,-1,-43,55,15,-10,-16,-29,-36
-34,-59,-25,47,-5,-41,55,12,-10,-18,-24,-31
-48,-68,-20,58,-14,-44,55,9,-8,-26,-21,-16
-32,-47,-15,40,-8,-31,57,13,1,-21,-18,-11
-11,-22,-12,17,1,-17,62,21,9,-17,-13,-6
-17,-26,-9,21,-3,-17,67,29,17,-13,-10,-4
-15,-25,-10,20,-2,-17,70,37,24,-8,-6,1
-19,-24,-5,22,-7,-14,61,45,20,1,0,4
-7,-12,-5,10,-1,-8,48,34,20,16,10,8
5,0,-5,-2,5,-2,37,13,18,23,15,16
-11,3,14,4,-13,8,31,2,13,29,16,26
-9,9,18,0,-14,13,26,-7,10,28,25,33
3,7,4,-5,0,6,20,-11,4,26,25,32
-17,-30,-13,24,-2,-21,27,-8,-1,17,9,25
-43,-64,-21,53,-11,-42,38,-12,-7,1,-1,11
-44,-70,-25,57,-10,-47,53,-8,-10,-15,-14,-7
-48,-73,-25,61,-12,-49,55,-13,-20,-26,-25,-20
-48,-74,-26,61,-10,-50,55,-6,-16,-34,-33,-32
-28,-74,-46,51,9,-60,55,-5,-17,-40,-37,-37
-26,-65,-39,46,6,-52,54,-7,-10,-29,-31,-32
-32,-71,-40,52,4,-56,58,2,-9,-38,-40,-39
-28,-56,-28,42,1,-42,43,-7,-8,-20,-31,-30
-36,-68,-32,52,-2,-50,46,12,1,-35,-52,-42
-30,-49,-19,40,-5,-33,20,-30,-21,-10,-11,-4
-36,-48,-12,42,-12,-30,49,12,33,42,27,22
19,19,0,-19,9,9,-71,-222,-187,218,235,170
260,154,-106,-207,182,24,-387,-696,-437,796,892,625
488,-214,-702,-137,595,-458,-375,-569,-253,946,1133,759
432,-544,-976,56,705,-760,-224,-311,-188,295,615,447
216,-378,-594,82,405,-486,-154,-234,-216,-205,68,147
85,-199,-284,57,185,-241,-41,-84,-98,-164,-84,14
-10,-115,-105,62,48,-110,23,12,-5,-61,-63,-8
-51,-83,-32,67,-9,-57,52,52,35,-57,-83,-33
-37,-62,-26,50,-5,-44,75,69,56,-40,-82,-42
-42,-59,-17,50,-12,-38,80,77,67,-44,-91,-58
-34,-53,-19,44,-7,-36,80,75,63,-38,-85,-63
-36,-48,-12,42,-12,-30,80,73,68,-35,-77,-55
-27,-39,-12,33,-7,-25,80,72,70,-29,-74,-53
-40,-49,-9,45,-16,-29,80,68,69,-23,-68,-47
-52,-57,-5,55,-23,-31,76,72,74,-19,-71,-43
-36,-33,3,34,-19,-15,75,93,76,-12,-69,-38
-40,-31,9,35,-24,-11,75,102,81,-8,-70,-36
-41,-25,16,32,-28,-4,70,99,83,1,-70,-32
-42,-19,22,30,-32,2,70,101,96,7,-59,-30
-38,-14,24,25,-31,5,69,99,110,14,-45,-26
-23,-8,15,15,-19,3,62,100,108,32,-32,-26
-15,-3,12,9,-14,4,56,100,128,54,-13,-15
-19,6,25,6,-23,16,49,100,142,80,12,8
-11,13,23,-1,-17,18,43,100,152,110,36,22
13,34,22,-23,-5,28,34,100,183,139,61,43
36,50,14,-43,11,32,22,101,199,179,99,61
42,67,25,-55,8,46,11,98,203,218,135,87
37,76,39,-56,-2,57,-1,93,205,254,162,110
44,66,22,-55,11,43,-14,88,205,274,187,121
49,65,16,-57,16,40,-29,84,205,295,220,149
49,58,9,-54,20,34,-32,80,196,320,231,166
53,55,2,-54,25,29,-24,69,183,296,216,158
65,61,-4,-63,34,28,-18,51,171,269,207,149
70,60,-10,-65,40,25,-11,38,153,259,192,142
54,49,-6,-51,30,21,-4,34,126,216,156,118
32,27,-4,-29,17,12,5,32,102,160,114,85
5,-4,-8,0,6,-6,15,29,82,116,76,62
-12,-28,-16,20,3,-22,27,26,64,82,41,46
-13,-43,-30,28,9,-36,37,25,49,39,21,33
-9,-54,-44,32,18,-49,36,30,43,11,14,23
-1,-47,-46,25,22,-46,50,30,45,8,8,16
-3,-47,-44,25,21,-45,66,30,45,4,1,9
-19,-60,-41,39,11,-51,61,30,45,1,-6,3
-21,-60,-39,40,9,-49,58,29,45,-4,-12,-5
-13,-56,-43,34,15,-49,55,34,44,-7,-17,-9
-8,-53,-45,31,19,-49,51,36,40,-10,-23,-6
-9,-50,-42,30,16,-46,48,35,40,-15,-29,-1
-10,-49,-38,29,14,-44,44,33,39,-12,-27,1
-10,-45,-35,28,13,-40,45,29,35,-7,-24,6
-14,-45,-31,30,9,-37,45,30,34,-4,-21,9
-17,-45,-28,31,6,-36,45,34,38,-1,-18,8
-21,-45,-24,33,2,-35,45,35,38,4,-15,4
-19,-45,-25,33,3,-35,49,35,34,4,-16,6
-15,-40,-25,28,5,-32,50,35,35,-1,-20,19
1,-24,-25,12,13,-24,49,35,31,0,-20,21
3,-21,-25,9,14,-23,53,34,30,-3,-20,16
-15,-35,-20,26,3,-27,55,26,30,-6,-20,14
-20,-35,-15,28,-2,-25,55,18,25,-5,-20,11
-24,-34,-10,29,-7,-21,55,10,20,-10,-23,9
-28,-36,-8,33,-10,-22,55,2,16,-18,-27,6
-35,-33,1,34,-18,-16,55,-3,11,-24,-30,-1
-30,-39,-9,34,-10,-23,50,-6,7,-31,-31,-4
-18,-50,-31,34,7,-40,45,-9,2,-35,-29,-9
-20,-50,-30,35,5,-40,40,-12,0,-35,-38,-14
-21,-51,-30,36,5,-40,37,-14,0,-46,-50,-13
-29,-55,-27,42,0,-41,31,-17,-4,-51,-50,-9
-31,-55,-24,43,-3,-40,32,-20,-5,-49,-50,-7
-27,-53,-25,41,-1,-39,36,-20,-5,-51,-50,-4
-30,-49,-20,39,-5,-35,34,-22,-10,-49,-50,-1
-33,-50,-17,42,-8,-33,36,-26,-10,-51,-51,0
-37,-50,-13,44,-12,-31,34,-25,-11,-54,-55,-5
-40,-50,-10,45,-15,-30,44,-22,-15,-57,-55,-5
-45,-50,-5,48,-20,-27,51,-20,-15,-60,-56,-7
-38,-45,-7,42,-15,-26,43,-20,-17,-63,-60,-10
-32,-45,-13,39,-9,-29,40,-20,-21,-66,-60,-10
-29,-45,-16,37,-6,-31,35,-20,-25,-63,-62,-8
-24,-45,-21,34,-1,-32,30,-20,-25,-59,-66,-4
-34,-45,-12,40,-10,-28,30,-20,-26,-57,-69,-6
-34,-43,-8,39,-13,-25,30,-20,-30,-54,-73,-4
-25,-36,-11,30,-7,-23,30,-20,-30,-51,-75,-18
-24,-29,-5,27,-9,-17,30,-20,-28,-49,-69,-28
-21,-22,-1,22,-10,-12,30,-20,-21,-46,-63,-19
-19,-16,3,17,-10,-7,32,-16,-16,-41,-58,-11
-20,-10,10,14,-15,0,35,-10,-11,-39,-52,-3
-22,-3,19,13,-20,7,37,-5,-5,-34,-47,4
-29,5,34,11,-31,19,41,1,0,-31,-38,17
-34,13,47,10,-40,29,35,7,4,-28,-28,26
-24,21,45,1,-35,33,25,8,6,-23,-20,24
-21,24,45,-2,-34,34,15,-16,2,-20,-17,25
-34,11,45,11,-40,28,-1,-45,-10,-16,-13,27
-15,31,46,-9,-30,38,-19,-50,-23,-13,-10,25
13,48,34,-31,-11,41,-20,-47,-31,-9,-5,18
3,10,7,-7,-2,9,4,-44,-29,-22,-7,13
-15,-19,-4,17,-6,-11,13,-46,-34,-40,-19,7
-20,-27,-7,24,-6,-17,17,-40,-35,-50,-26,0
-27,-43,-16,35,-5,-29,26,-40,-37,-57,-41,-9
-44,-58,-15,51,-14,-36,17,-40,-42,-53,-60,-13
-47,-70,-23,59,-11,-46,34,-30,-38,-65,-68,-25
-52,-60,-8,57,-21,-34,36,-32,-43,-55,-62,-26
-59,-69,-9,64,-25,-39,31,-16,-35,-68,-68,-28
-65,-62,2,63,-33,-30,20,-25,-46,-67,-63,-21
-58,-49,9,53,-34,-19,16,-1,-32,-63,-64,-19
-49,-43,6,45,-27,-18,7,-35,-49,-54,-58,-19
-70,0,70,35,-70,35,-6,-46,-40,-4,-25,1
-39,21,60,8,-49,40,-39,-131,-137,26,53,64
124,190,66,-157,29,128,-320,-606,-457,470,555,426
387,25,-362,-205,375,-168,-473,-712,-392,920,1080,766
502,-428,-930,-37,717,-679,-325,-397,-190,618,890,617
335,-436,-771,51,553,-603,-227,-251,-217,0,306,274
123,-278,-401,78,262,-339,-108,-142,-159,-235,-59,61
23,-127,-149,52,86,-138,-19,-49,-74,-125,-88,9
-1,-42,-41,22,20,-41,18,11,-16,-87,-85,-16
-32,-39,-6,35,-13,-22,60,45,9,-77,-94,-42
-77,-38,39,57,-58,1,65,52,12,-72,-90,-49
-79,-43,36,61,-57,-4,65,59,22,-77,-98,-51
-77,-34,43,55,-59,4,65,60,26,-67,-93,-49
-80,-42,39,61,-59,-2,65,60,39,-73,-101,-51
-73,-32,40,53,-56,4,65,60,45,-66,-100,-50
-70,-29,40,50,-55,5,60,60,45,-63,-99,-48
-65,-22,43,43,-54,10,57,61,46,-58,-94,-45
-64,-18,46,41,-55,14,53,65,50,-53,-89,-42
-55,-11,44,33,-49,16,50,68,49,-50,-86,-39
-50,-5,46,27,-48,20,46,72,54,-44,-80,-36
-42,12,54,15,-48,33,43,74,67,-37,-75,-35
-24,23,47,0,-35,35,38,80,78,-19,-59,-28
-24,21,45,1,-35,33,35,84,82,4,-44,-17
-12,53,65,-21,-39,58,32,80,103,22,-22,-9
-19,63,83,-22,-51,72,27,75,126,57,7,5
-24,65,89,-21,-57,77,25,73,125,84,26,18
1,82,81,-42,-40,81,13,68,142,118,50,39
22,98,76,-60,-27,87,-5,65,160,156,82,56
35,105,70,-70,-18,87,-20,73,164,195,119,81
40,104,65,-72,-13,84,-36,70,164,239,159,117
64,125,61,-94,1,92,-47,60,156,255,188,133
73,127,54,-100,9,90,-47,53,149,257,202,144
64,115,51,-90,6,82,-39,45,141,249,194,142
62,108,46,-85,8,77,-31,38,134,243,180,130
57,98,41,-78,8,69,-23,31,127,230,172,125
41,85,43,-63,-1,64,-15,24,118,198,146,106
16,61,46,-39,-15,53,-9,16,93,145,100,74
8,53,45,-31,-19,49,0,8,60,88,63,52
-4,39,43,-18,-23,40,5,7,33,48,34,37
-27,12,39,8,-34,25,14,10,19,18,12,21
-38,3,41,18,-40,21,31,10,17,2,-7,6
-36,-3,33,19,-34,15,31,10,13,-17,-30,-12
-22,-7,15,14,-18,4,30,10,10,-31,-36,-24
-17,-14,3,16,-10,-6,29,10,5,-30,-34,-25
-26,-18,8,22,-17,-5,24,15,5,-30,-36,-25
-38,-22,16,29,-27,-3,25,15,5,-30,-35,-25
-58,-36,22,47,-40,-7,24,15,5,-30,-35,-25
-64,-35,29,49,-46,-2,31,16,5,-31,-41,-26
-63,-30,32,46,-47,1,37,13,5,-40,-47,-30
-66,-29,37,47,-51,3,32,25,5,-49,-53,-30
-60,-20,40,40,-50,10,30,37,0,-50,-55,-30
-55,-12,43,33,-49,15,27,34,0,-50,-59,-30
-50,-3,47,26,-48,22,23,35,0,-50,-60,-26
-45,4,50,20,-48,27,40,35,0,-50,-56,-25
-43,10,54,16,-49,32,51,35,0,-52,-54,-25
-38,17,55,10,-47,36,42,32,-2,-55,-50,-25
-36,19,55,8,-46,37,40,27,-5,-55,-48,-25
-31,23,53,4,-42,38,35,25,-5,-55,-44,-27
-25,25,50,0,-38,37,30,20,-5,-55,-47,-30
-26,21,47,2,-37,34,34,17,-6,-55,-55,-31
-30,15,45,7,-38,30,35,13,-4,-51,-49,-28
-31,10,42,10,-37,26,35,10,-18,-50,-56,-40
-35,4,39,15,-37,22,35,7,-32,-50,-72,-56
-46,-2,44,24,-45,21,35,5,-30,-50,-68,-55
-49,-3,45,26,-46,21,34,1,-30,-50,-65,-55
-45,0,45,22,-45,22,29,0,-30,-51,-63,-55
-39,6,45,16,-42,25,26,-4,-30,-65,-59,-55
-48,-3,45,25,-47,21,23,-5,-30,-71,-63,-53
-61,-18,44,39,-52,13,18,-5,-35,-69,-65,-49
-55,-16,39,35,-47,11,15,-10,-35,-70,-65,-47
-53,-12,41,32,-46,14,20,-10,-36,-70,-65,-44
-47,-10,37,29,-42,13,21,-11,-41,-70,-65,-41
-41,-6,35,23,-37,14,20,-15,-39,-70,-65,-40
-40,-5,35,22,-37,15,20,-15,-43,-70,-65,-44
-43,-8,35,25,-39,13,20,-15,-45,-70,-65,-47
-54,-11,43,32,-49,16,20,-15,-45,-70,-65,-51
-57,-14,43,36,-49,14,16,-15,-45,-70,-65,-55
-49,-14,35,31,-41,10,15,-11,-45,-69,-65,-53
-41,-10,31,25,-36,11,15,-9,-44,-65,-63,-49
-42,-8,34,25,-38,13,15,-10,-41,-65,-60,-50
-39,-4,35,21,-37,16,15,-10,-38,-65,-60,-50
-45,-9,36,27,-40,13,16,-11,-36,-65,-60,-50
-55,-15,41,35,-48,13,20,-8,-32,-65,-60,-50
-43,-3,39,23,-41,18,20,-5,-30,-61,-60,-45
-51,-8,43,29,-46,17,20,-5,-27,-55,-53,-45
-63,-11,52,36,-58,21,20,-3,-21,-49,-42,-44
-33,23,55,5,-44,39,20,1,-14,-44,-34,-40
-12,43,55,-16,-34,48,21,-1,-7,-39,-28,-40
-17,38,55,-11,-36,46,24,5,-1,-33,-21,-38
-16,39,55,-12,-36,47,15,13,6,-26,-15,-34
-23,32,55,-5,-40,44,3,-16,-15,-20,-16,-33
-13,40,53,-13,-34,46,-18,-38,-40,-12,-13,-28
21,68,47,-45,-13,57,-31,-31,-40,-6,-11,-27
19,62,43,-40,-12,52,-20,-29,-40,-11,-9,-23
-9,29,38,-10,-24,33,-7,-22,-40,-32,-16,-31
-34,-1,33,17,-34,16,1,-20,-40,-56,-38,-54
-44,-14,31,29,-37,8,6,-14,-40,-60,-50,-55
-53,-30,22,41,-37,-4,12,-11,-45,-62,-51,-56
-57,-35,21,46,-38,-6,16,-10,-45,-63,-50,-54
-45,-35,10,39,-27,-12,25,-8,-44,-67,-58,-57
-39,-26,12,32,-26,-7,21,-13,-47,-57,-52,-51
-28,-31,-3,29,-12,-16,19,-5,-42,-62,-58,-52
-30,-21,9,25,-19,-6,6,-19,-52,-52,-52,-48
-49,-22,26,35,-37,2,6,-10,-48,-54,-57,-50
-44,-2,42,23,-43,20,-8,-38,-70,-52,-55,-52
-47,46,94,0,-71,70,-5,-38,-56,-28,-25,-27
-24,76,100,-27,-62,88,-67,-204,-203,46,77,49
149,257,109,-203,19,183,-383,-678,-500,517,620,446
409,37,-372,-223,391,-167,-491,-718,-401,827,1038,716
490,-411,-901,-39,696,-656,-341,-410,-189,452,747,499
332,-379,-712,24,522,-545,-239,-258,-194,-57,239,205
142,-235,-377,47,260,-306,-96,-128,-157,-226,-66,-3
24,-108,-132,42,78,-120,-13,-17,-54,-119,-99,-48
-37,-25,12,31,-24,-6,24,37,-4,-76,-92,-47
-72,-18,54,45,-62,18,54,57,0,-73,-98,-61
-80,-9,71,44,-75,30,53,60,8,-67,-92,-57
-79,-13,66,46,-73,27,56,60,14,-73,-97,-68
-76,-3,73,40,-74,34,54,60,21,-67,-90,-63
-76,-9,68,43,-71,29,56,60,27,-72,-90,-67
-70,17,87,27,-79,52,55,59,30,-67,-86,-70
-55,43,98,6,-77,70,52,62,30,-62,-83,-70
-58,39,97,10,-78,68,47,65,33,-56,-80,-68
-64,40,104,12,-84,72,44,67,36,-51,-79,-61
-63,40,104,11,-84,71,41,70,33,-44,-74,-57
-62,39,101,11,-82,70,36,73,41,-41,-69,-51
-57,43,99,7,-78,71,34,75,49,-28,-65,-45
-46,53,99,-4,-73,75,28,75,59,-16,-61,-40
-49,59,109,-5,-79,84,22,75,70,2,-53,-33
-45,66,110,-11,-78,88,18,75,81,28,-33,-26
-33,78,111,-22,-73,94,11,75,95,49,-14,-16
-25,104,130,-40,-78,117,7,75,109,80,15,2
-14,136,151,-61,-83,143,-3,74,128,117,53,28
-7,148,154,-71,-81,151,-16,68,137,157,85,54
17,154,136,-86,-60,145,-31,62,151,196,119,75
38,160,122,-100,-42,141,-52,57,160,230,155,103
45,159,114,-102,-35,136,-58,51,154,256,183,124
49,155,106,-102,-29,130,-53,46,148,254,194,134
54,152,98,-103,-22,125,-52,41,140,241,196,135
57,147,90,-102,-17,118,-48,34,135,234,189,122
59,145,85,-103,-13,115,-45,27,123,217,168,117
46,128,81,-87,-18,104,-44,21,103,182,136,102
23,101,78,-62,-28,90,-28,14,72,135,98,67
13,87,74,-50,-31,80,-10,8,43,85,60,42
3,73,71,-38,-34,72,-5,5,28,45,25,23
-9,59,68,-25,-38,63,0,3,20,11,4,6
-19,45,63,-14,-41,54,6,0,17,-11,-3,-7
-27,32,60,-2,-44,46,11,-4,13,-16,-8,-17
-27,30,57,-2,-42,43,16,-5,10,-19,-11,-16
-22,30,52,-4,-37,40,21,-1,5,-23,-16,-11
-20,30,50,-5,-35,40,24,11,8,-25,-20,-8
-25,29,54,-3,-40,41,27,18,17,-19,-13,-5
-24,31,55,-4,-40,42,32,33,28,-6,-6,0
-22,34,56,-6,-40,45,34,48,37,0,1,-3
-22,38,60,-8,-41,49,43,64,58,18,3,-5
-4,56,61,-26,-32,58,48,79,75,28,-5,-6
2,59,57,-31,-28,58,41,66,59,4,-11,-5
-6,50,56,-23,-31,52,37,49,37,-17,-17,-6
-8,45,53,-19,-30,49,32,22,18,-30,-26,-19
-29,36,66,-4,-48,51,27,-2,4,-40,-47,-17
-51,32,84,10,-68,58,24,0,-7,-60,-66,-36
-51,25,76,13,-64,51,26,1,-20,-73,-73,-64
-52,22,74,14,-63,48,24,-2,-37,-68,-69,-58
-70,16,85,27,-78,50,25,2,-43,-76,-70,-58
-77,13,89,32,-83,51,25,-3,-47,-75,-71,-54
-67,8,75,29,-71,42,25,-3,-43,-75,-68,-50
-73,1,74,35,-74,37,23,-10,-47,-83,-76,-51
-78,1,78,38,-78,39,17,-12,-44,-76,-77,-43
-83,-19,64,51,-73,22,19,-13,-44,-83,-86,-45
-82,-3,80,42,-81,38,8,-25,-54,-67,-72,-34
-64,-10,54,37,-59,22,17,-12,-50,-80,-90,-40
-67,24,92,21,-80,58,-1,-54,-80,-60,-64,-25
-71,41,112,15,-91,76,-3,-46,-66,-44,-36,-25
-5,117,122,-57,-63,119,-142,-323,-292,148,202,154
246,207,-39,-226,142,84,-455,-744,-496,672,831,598
476,-186,-662,-145,569,-424,-439,-588,-295,650,934,645
397,-449,-846,26,622,-647,-283,-345,-239,49,405,314
187,-315,-502,65,344,-408,-180,-234,-245,-277,-20,53
37,-174,-210,69,124,-192,-47,-82,-126,-211,-139,-57
-31,-47,-16,39,-7,-31,0,-12,-50,-98,-118,-56
-68,-19,49,43,-58,15,36,33,-13,-85,-129,-68
-79,7,86,36,-83,46,42,45,-9,-72,-123,-77
-61,15,76,23,-69,45,50,44,-2,-74,-125,-78
-76,17,93,30,-85,55,39,47,1,-67,-124,-83
-91,27,118,31,-105,73,52,49,6,-66,-116,-93
-89,17,106,36,-98,61,38,51,11,-59,-115,-92
-90,15,106,37,-98,61,51,51,16,-67,-108,-84
-89,8,97,41,-93,52,43,56,26,-79,-105,-80
-88,3,92,42,-91,48,46,57,32,-59,-98,-73
-96,-3,93,49,-94,45,229,62,38,-74,-89,-69
-95,0,95,47,-95,47,197,63,42,-38,-81,-60
-64,32,96,16,-80,63,354,67,45,-79,-72,-52
-49,45,94,1,-72,69,295,69,52,62,-63,-43
-51,45,96,3,-74,70,-134,80,62,237,-52,-45
-73,46,119,13,-96,82,-187,73,72,171,-27,-82
