I,II,III,aVR,aVL,aVF,V1,V2,V3,V4,V5,V6
-91,-110,-19,100,-36,-65,5,-5,-15,-25,-5,60
-96,-104,-8,100,-43,-56,-2,-13,-11,-21,-1,64
-95,-81,14,87,-54,-33,-10,-23,-3,-16,4,69
-83,-60,23,72,-53,-19,-19,-33,3,-10,10,74
-79,-60,19,70,-49,-20,-36,-44,9,-5,15,80
-81,-60,21,70,-51,-19,-61,-64,16,0,20,84
-79,-60,19,69,-49,-20,-100,-106,-4,-5,15,81
-81,-60,21,71,-51,-19,-107,-113,-25,-10,12,79
-79,-60,19,69,-49,-20,-88,-97,-34,-14,9,75
-77,-68,10,72,-43,-29,-77,-86,-35,-20,3,72
-62,-76,-14,69,-24,-45,-49,-52,-43,-20,4,72
-64,-92,-29,78,-17,-60,-31,-30,-45,-33,-11,62
-78,-118,-40,98,-19,-78,-2,-5,-50,-30,-21,46
-83,-140,-57,112,-13,-98,22,-2,-45,-51,-41,24
-82,-137,-55,110,-14,-95,46,12,-30,-44,-17,36
-66,-152,-86,109,10,-118,52,29,-36,-66,-37,18
-100,-147,-47,124,-27,-97,80,74,128,-6,-8,30
-13,30,44,-8,-29,37,49,67,243,263,214,223
351,499,148,-425,101,324,-355,-320,185,665,876,909
704,717,14,-711,345,365,-677,-637,-213,719,1205,1315
446,142,-304,-293,375,-81,-540,-565,-1020,-314,57,336
-8,-376,-368,192,180,-372,-248,-364,-1338,-1083,-801,-469
-91,-454,-363,273,136,-408,9,-87,-1079,-898,-701,-442
-193,-441,-248,317,28,-344,104,30,-672,-622,-552,-379
-205,-331,-126,268,-39,-228,96,18,-296,-309,-275,-192
-150,-259,-110,205,-20,-184,95,30,-122,-166,-158,-102
-142,-222,-81,182,-30,-151,90,29,-43,-113,-110,-61
-115,-199,-84,158,-15,-142,87,35,-6,-68,-74,-20
-124,-193,-69,159,-28,-131,83,37,14,-62,-72,-17
-113,-178,-65,145,-24,-121,78,40,26,-41,-56,1
-113,-172,-59,142,-26,-115,71,40,34,-38,-59,-1
-106,-159,-53,133,-26,-105,64,39,46,-24,-44,12
-102,-151,-49,127,-26,-100,57,41,57,-19,-44,15
-98,-140,-41,119,-28,-90,51,39,70,-8,-32,24
-92,-130,-38,111,-26,-84,45,36,81,0,-19,31
-84,-118,-34,101,-25,-76,37,31,95,10,-5,36
-70,-103,-32,87,-19,-67,29,29,112,23,11,48
-61,-89,-29,75,-16,-59,21,24,137,43,34,68
-30,-56,-26,44,-2,-41,14,21,168,79,67,101
3,-21,-24,10,14,-22,-2,16,194,113,98,134
27,6,-21,-16,24,-7,-23,2,202,135,119,166
65,47,-18,-56,42,15,-42,-12,195,132,120,207
82,67,-15,-74,48,25,-52,-20,191,124,120,227
72,60,-12,-66,42,24,-56,-23,184,118,120,214
64,54,-10,-59,37,22,-61,-26,179,108,120,206
59,49,-10,-54,34,19,-65,-30,173,104,118,193
53,43,-10,-48,31,16,-71,-35,148,86,90,165
25,15,-10,-20,17,2,-63,-33,118,54,57,129
-4,-14,-10,9,3,-12,-42,-27,96,33,27,93
-18,-28,-10,23,-4,-19,-25,-23,72,18,2,65
-36,-46,-10,41,-13,-27,-11,-19,49,-4,-21,42
-60,-70,-10,65,-25,-40,-1,-14,27,-28,-48,25
-80,-90,-10,85,-35,-50,4,-9,12,-45,-66,10
-90,-100,-10,95,-40,-55,8,-6,2,-55,-82,-4
-97,-107,-10,102,-43,-59,13,-5,-11,-63,-95,-14
-109,-118,-9,113,-49,-64,17,-5,-15,-73,-100,-21
-111,-124,-13,117,-49,-68,22,-5,-15,-79,-105,-28
-105,-120,-15,113,-45,-67,26,-6,-15,-75,-110,-34
-105,-120,-15,113,-45,-67,32,-2,-15,-76,-117,-41
-105,-120,-15,113,-45,-67,35,0,-15,-73,-119,-44
-105,-120,-15,113,-45,-67,40,0,-14,-69,-113,-39
-105,-120,-15,113,-45,-67,45,4,-8,-71,-108,-36
-106,-117,-10,112,-48,-63,41,6,-1,-64,-102,-33
-104,-114,-10,109,-46,-62,40,4,6,-51,-96,-28
-102,-111,-9,107,-47,-60,40,1,12,-41,-91,-25
-103,-108,-5,106,-49,-56,35,0,19,-40,-86,-21
-100,-106,-5,103,-47,-55,35,0,16,-40,-85,-20
-98,-103,-5,101,-46,-54,35,0,9,-40,-85,-20
-95,-100,-5,98,-45,-52,35,0,5,-40,-85,-20
-95,-100,-5,98,-45,-52,35,0,-1,-40,-85,-20
-96,-100,-5,98,-45,-52,35,0,-6,-43,-86,-20
-94,-100,-6,97,-44,-52,35,0,-12,-46,-91,-20
-96,-100,-4,99,-46,-52,35,0,-15,-49,-94,-20
-95,-96,-1,95,-46,-48,32,0,-15,-52,-97,-20
-92,-90,2,91,-47,-43,27,0,-15,-55,-102,-20
-89,-86,4,87,-46,-41,25,-6,-15,-54,-106,-21
-88,-79,8,83,-48,-35,20,-11,-15,-48,-102,-17
-83,-74,9,79,-46,-32,17,-16,-10,-42,-94,-10
-85,-68,16,76,-50,-26,13,-22,-4,-36,-87,-5
-98,-54,45,76,-71,-4,4,-28,3,-30,-81,1
-79,-27,52,53,-65,13,-10,-34,9,-21,-73,7
-49,-1,49,25,-49,24,-19,-50,16,-15,-70,10
-51,1,51,25,-51,26,-40,-66,19,-5,-69,11
-54,-5,49,30,-51,21,-69,-65,-8,-2,-71,9
-58,-6,51,32,-54,22,-70,-59,-29,-9,-69,11
-59,-13,47,36,-53,17,-71,-52,-33,-15,-70,9
-52,-14,38,32,-44,12,-57,-50,-35,-24,-75,11
-53,-26,27,39,-40,1,-15,-37,-41,-28,-82,4
-71,-54,17,62,-44,-18,14,-17,-42,-42,-94,-18
-88,-80,8,83,-48,-36,42,7,-47,-38,-92,-27
-97,-101,-4,99,-47,-52,43,5,-50,-52,-110,-54
-87,-99,-11,93,-38,-55,55,26,-55,-43,-100,-49
-83,-101,-18,93,-33,-59,78,50,-42,-52,-124,-63
-111,-96,15,103,-63,-40,106,91,123,15,-96,-41
-21,78,99,-29,-60,88,63,82,209,266,140,168
330,549,218,-440,56,383,-320,-303,158,686,829,882
664,763,99,-714,282,431,-635,-607,-193,780,1181,1310
423,229,-193,-326,308,18,-492,-538,-945,-249,27,323
-14,-295,-281,155,134,-288,-203,-338,-1271,-1045,-917,-516
-110,-393,-283,252,87,-337,57,-47,-1040,-879,-810,-511
-189,-373,-183,281,-2,-278,165,102,-661,-612,-629,-449
-209,-286,-77,248,-66,-181,158,120,-308,-325,-393,-276
-154,-216,-62,186,-46,-139,160,112,-130,-188,-269,-174
-133,-170,-37,152,-47,-104,124,91,-47,-125,-215,-126
-101,-136,-35,119,-32,-86,100,79,-8,-80,-166,-94
-108,-129,-21,119,-43,-75,100,61,15,-70,-160,-89
-104,-119,-15,111,-44,-66,95,60,25,-49,-144,-71
-101,-112,-11,107,-45,-61,94,57,31,-46,-143,-68
-98,-102,-4,100,-46,-53,90,54,42,-30,-130,-52
-91,-94,-2,93,-44,-48,89,51,49,-24,-126,-49
-90,-86,5,88,-47,-40,84,49,61,-12,-115,-38
-82,-75,7,79,-44,-34,78,46,69,0,-105,-31
-76,-64,12,70,-44,-26,75,41,82,13,-96,-23
-56,-41,15,48,-35,-13,69,39,102,33,-77,-2
-36,-18,18,27,-27,0,66,34,121,52,-54,16
-31,-8,23,19,-27,7,58,31,148,72,-26,39
-7,18,25,-6,-16,22,41,27,176,98,8,69
32,57,25,-45,3,41,25,15,181,134,51,110
63,88,25,-76,19,56,16,2,180,156,87,147
73,98,25,-86,24,62,9,-5,181,149,87,149
67,92,25,-80,20,59,2,-5,180,139,74,140
67,91,24,-80,21,57,-6,-5,181,132,66,134
59,87,28,-73,15,57,-13,-5,170,111,48,129
56,86,30,-71,12,58,-11,-5,146,80,22,110
49,78,30,-64,9,54,0,-3,123,53,-11,72
12,46,34,-29,-11,39,10,1,99,28,-43,35
-18,17,36,0,-27,26,20,3,71,7,-72,7
-36,-2,34,19,-35,16,30,6,47,-5,-91,-13
-54,-23,30,38,-42,3,40,9,28,-17,-107,-30
-70,-40,30,55,-50,-5,49,11,7,-31,-122,-44
-79,-50,29,65,-54,-11,53,14,-3,-45,-133,-55
-87,-62,25,74,-56,-19,56,15,-9,-57,-144,-63
-97,-72,25,84,-61,-24,60,16,-16,-60,-155,-69
-102,-75,27,89,-64,-24,63,21,-22,-63,-160,-77
-110,-78,32,94,-71,-23,67,19,-29,-66,-159,-85
-116,-81,35,98,-76,-23,70,23,-26,-69,-162,-88
-122,-84,38,103,-80,-23,70,25,-19,-70,-165,-85
-128,-85,43,107,-85,-21,72,25,-13,-64,-165,-83
-124,-79,45,101,-84,-17,75,29,-6,-58,-161,-80
-119,-74,45,96,-82,-14,75,30,1,-51,-155,-77
-114,-69,45,91,-79,-12,71,30,7,-44,-150,-75
-108,-63,45,85,-76,-9,70,30,10,-37,-144,-72
-103,-58,45,80,-74,-6,70,30,10,-37,-139,-66
-97,-52,44,74,-70,-4,65,30,10,-41,-134,-61
-97,-50,48,73,-73,-1,65,30,10,-39,-130,-58
-97,-47,50,72,-73,1,64,30,10,-44,-130,-52
-94,-44,50,69,-72,2,60,28,7,-45,-127,-50
-90,-40,50,65,-70,5,60,24,2,-45,-125,-50
-90,-40,50,65,-70,5,60,22,-1,-50,-125,-50
-94,-45,50,69,-71,2,60,19,-4,-50,-128,-50
-90,-45,45,67,-67,0,60,16,-9,-51,-130,-50
-90,-45,45,67,-67,0,57,14,-9,-55,-130,-50
-90,-45,45,67,-67,0,51,11,-5,-56,-130,-47
-91,-46,45,68,-68,0,47,6,-3,-53,-130,-41
-86,-42,44,63,-64,1,43,4,0,-44,-129,-37
-80,-28,51,54,-65,11,37,-1,4,-36,-120,-32
-79,-7,73,43,-76,33,35,-4,6,-28,-110,-28
-75,18,93,28,-84,55,26,-8,1,-20,-99,-23
-75,37,111,18,-93,74,24,-14,-8,-15,-91,-18
-70,45,116,12,-93,80,0,-21,-14,-15,-89,-11
-65,50,115,7,-90,82,-41,-24,-22,-14,-85,-3
-61,54,115,3,-88,85,-43,-27,-30,-16,-85,1
-56,59,115,-2,-86,87,-32,-30,-35,-13,-78,11
-50,64,114,-8,-83,89,-25,-32,-42,-19,-83,3
-39,60,98,-11,-69,79,-18,-37,-39,-27,-88,-3
-41,30,71,5,-56,51,-2,-27,-49,-37,-101,-17
-76,-11,65,44,-71,27,26,-3,-44,-49,-110,-40
-108,-51,58,79,-83,4,56,24,-55,-53,-118,-61
-117,-68,49,92,-83,-9,66,26,-41,-73,-133,-82
-117,-71,46,93,-81,-12,84,49,-33,-65,-126,-81
-127,-97,30,112,-78,-33,68,53,-12,-89,-149,-112
-121,-48,73,84,-97,13,80,79,175,49,-58,-50
63,207,144,-135,-40,175,-1,17,227,353,263,265
506,718,212,-613,147,465,-418,-411,123,785,1051,1095
715,781,66,-748,324,423,-626,-660,-363,640,1084,1216
293,111,-183,-202,238,-36,-417,-506,-1106,-530,-287,25
-55,-296,-241,176,93,-268,-136,-265,-1258,-1062,-928,-552
-110,-352,-242,231,66,-297,93,1,-971,-818,-744,-507
-207,-321,-114,265,-46,-218,152,97,-561,-553,-551,-433
-191,-202,-11,197,-90,-106,132,83,-230,-256,-298,-230
-150,-157,-7,154,-72,-82,124,84,-97,-157,-215,-180
-127,-116,12,121,-69,-52,112,76,-18,-92,-158,-128
-103,-91,12,97,-57,-39,107,74,7,-58,-134,-95
-102,-77,25,89,-63,-26,101,67,27,-47,-124,-79
-93,-65,28,79,-60,-18,96,66,42,-32,-110,-65
-93,-61,33,77,-63,-14,90,62,54,-28,-106,-61
-86,-50,36,67,-61,-6,85,60,65,-12,-85,-44
-84,-45,39,64,-61,-3,79,57,71,-7,-70,-41
-80,-35,44,57,-62,4,73,54,81,6,-52,-29
-75,-29,46,52,-60,8,69,52,87,15,-44,-24
-73,-23,50,48,-61,13,63,44,97,28,-27,-15
-65,-13,52,38,-58,20,57,40,117,46,-9,-6
-47,9,55,19,-51,31,52,34,138,74,12,12
-18,40,58,-11,-39,49,32,29,170,99,44,44
14,74,60,-44,-23,67,13,24,199,131,81,79
46,106,60,-76,-7,83,-6,8,201,165,118,117
79,139,60,-109,9,100,-35,-4,200,164,127,149
92,151,60,-122,16,106,-42,-7,199,160,118,158
85,145,60,-115,12,102,-39,-11,194,155,115,152
80,139,60,-109,10,99,-39,-14,197,152,107,152
73,134,61,-103,5,97,-34,-19,183,136,103,140
63,128,65,-96,-1,96,-36,-19,152,94,94,100
32,96,64,-64,-16,80,-32,-14,125,67,66,62
-2,66,67,-32,-35,66,-22,-9,98,48,32,31
-23,48,70,-13,-47,59,-13,-5,71,31,0,6
-51,19,70,16,-61,44,-2,0,47,15,-27,-11
-69,1,70,34,-70,35,6,4,30,-1,-43,-26
-76,-6,70,41,-72,32,11,9,22,-17,-49,-37
-83,-13,70,48,-76,29,16,10,16,-30,-56,-44
-89,-19,70,54,-79,25,22,10,8,-30,-64,-51
-96,-26,70,61,-83,22,28,15,0,-31,-72,-57
-100,-32,69,66,-84,18,30,15,-3,-35,-73,-65
-99,-35,65,67,-82,15,30,16,0,-35,-69,-69
-103,-38,65,70,-84,14,30,20,2,-34,-70,-66
-105,-40,65,72,-85,12,30,20,5,-29,-66,-65
-108,-43,65,75,-86,11,30,20,8,-24,-65,-65
-111,-46,65,78,-87,10,30,20,10,-20,-65,-65
-102,-41,61,72,-82,10,25,20,13,-15,-58,-66
-99,-40,60,70,-80,10,25,16,19,-10,-50,-63
-100,-40,60,70,-80,10,25,15,24,-7,-42,-56
-95,-35,60,65,-77,12,25,15,27,-4,-34,-51
-95,-35,60,65,-77,12,25,10,33,-1,-27,-46
-94,-34,60,64,-77,13,23,10,34,2,-25,-40
-87,-27,60,57,-73,16,17,10,29,5,-25,-35
-83,-23,60,53,-71,18,12,10,26,5,-21,-30
-77,-17,60,47,-68,21,9,10,23,5,-20,-30
-72,-12,60,42,-66,24,4,10,18,5,-20,-29
-66,-6,60,36,-62,27,-1,10,15,5,-15,-25
-65,-2,63,33,-64,30,-4,10,18,5,-15,-25
-64,1,65,31,-65,33,-9,7,23,4,-16,-23
-62,3,65,29,-64,34,-11,2,26,9,-15,-18
-63,7,70,28,-67,38,-16,0,30,16,-16,-13
-60,10,70,25,-65,40,-19,-5,34,23,-11,-8
-59,12,71,24,-65,41,-24,-8,35,29,3,-4
-43,45,88,-2,-65,66,-36,-12,26,37,18,1
-28,68,97,-20,-63,82,-47,-25,19,38,25,4
-31,63,95,-16,-64,79,-73,-52,13,35,31,7
-28,66,94,-20,-62,80,-97,-83,3,35,34,9
-27,64,91,-18,-59,77,-92,-84,-1,33,39,13
-23,67,89,-22,-57,78,-84,-71,-11,29,45,16
-27,61,89,-17,-59,75,-83,-71,-9,30,40,12
-20,43,63,-12,-42,53,-55,-51,-15,26,30,4
-34,5,38,14,-36,21,-31,-24,-17,8,8,-10
-72,-33,38,52,-55,2,-4,4,-17,6,11,-24
-83,-57,25,70,-54,-16,4,20,-25,-17,-11,-53
-103,-73,31,88,-67,-21,22,27,1,-8,0,-32
-92,-82,10,87,-51,-36,51,49,-20,-23,-25,-38
-116,-88,28,102,-71,-30,50,73,114,28,-7,-24
-7,91,99,-42,-53,95,39,84,222,254,200,121
307,513,206,-410,50,359,-292,-233,195,705,829,760
625,780,155,-702,234,467,-637,-629,-112,935,1358,1352
521,346,-175,-433,348,85,-567,-603,-902,-74,319,477
47,-264,-311,109,179,-287,-293,-381,-1262,-1030,-779,-493
-98,-388,-290,244,96,-339,-25,-113,-1083,-906,-713,-531
-152,-346,-194,249,21,-270,85,61,-715,-607,-531,-464
-180,-232,-52,206,-64,-142,104,83,-298,-302,-273,-265
-110,-134,-24,122,-43,-79,93,81,-106,-125,-124,-148
-112,-111,1,112,-56,-55,76,71,-21,-63,-84,-112
-91,-91,0,90,-45,-45,69,67,14,-12,-33,-72
-98,-93,5,95,-51,-43,60,59,38,0,-25,-74
-92,-80,11,86,-51,-34,55,53,53,18,-3,-55
-90,-77,13,83,-51,-32,45,51,61,19,-5,-54
-88,-68,20,78,-54,-23,39,47,73,33,10,-41
-79,-57,22,68,-51,-17,32,45,83,39,13,-33
-78,-48,30,63,-54,-9,29,41,99,50,24,-23
-68,-37,32,52,-50,-2,27,40,112,60,37,-12
-66,-28,38,47,-52,4,24,36,122,71,48,-3
-58,-17,41,37,-49,12,21,29,136,86,67,9
-44,1,45,21,-45,23,19,23,161,101,87,25
-23,26,50,-1,-37,38,12,16,190,129,117,51
13,64,52,-39,-20,58,-8,9,217,161,147,78
48,105,57,-77,-4,81,-38,4,221,198,186,116
80,140,60,-110,10,100,-70,-4,220,211,216,146
110,166,57,-138,26,111,-86,-11,224,200,211,141
117,171,54,-144,31,112,-85,-18,226,192,204,134
112,163,51,-137,30,106,-85,-26,225,183,198,128
111,159,48,-135,31,104,-85,-33,209,173,191,120
103,148,45,-126,29,96,-85,-32,183,149,169,116
64,110,46,-87,8,78,-85,-29,146,117,134,93
27,77,50,-52,-12,63,-76,-26,117,92,112,60
6,56,50,-31,-22,52,-63,-23,95,64,87,37
-21,32,52,-6,-37,42,-52,-20,68,42,60,12
-48,8,56,19,-52,32,-44,-19,47,26,37,-13
-66,-12,55,38,-60,21,-36,-15,29,10,22,-28
-71,-19,52,45,-61,16,-28,-15,20,1,13,-42
-72,-23,49,48,-60,12,-21,-13,14,-6,2,-51
-75,-29,46,52,-60,8,-15,-9,7,-13,-7,-57
-78,-35,43,56,-61,4,-15,-11,1,-21,-11,-64
-80,-40,40,60,-60,0,-14,-6,-5,-28,-13,-71
-86,-45,41,65,-63,-1,-10,-5,1,-27,-16,-78
-90,-45,45,67,-67,0,-11,-5,8,-22,-19,-78
-91,-46,44,68,-67,-1,-7,0,14,-20,-20,-72
-98,-50,47,74,-73,-1,-5,0,21,-15,-14,-68
-101,-50,50,76,-76,0,-5,0,27,-12,-9,-63
-97,-48,50,73,-73,1,-5,0,33,-8,-4,-59
-91,-41,50,66,-70,4,-5,0,35,-5,2,-54
-86,-36,50,61,-68,6,-5,0,35,-5,7,-51
-81,-31,50,56,-65,9,-9,0,38,-3,13,-48
-75,-25,50,50,-62,12,-14,0,41,1,15,-45
-70,-20,50,45,-60,15,-16,-3,39,0,15,-43
-65,-15,50,40,-57,17,-20,-6,35,-3,19,-39
-65,-15,50,40,-57,17,-25,-9,30,-8,20,-43
-64,-14,50,39,-57,18,-23,-12,25,-11,20,-45
-59,-9,50,34,-55,20,-20,-14,22,-14,20,-45
-61,-11,50,36,-56,20,-20,-17,16,-19,20,-49
-57,-7,50,32,-53,21,-20,-19,17,-19,20,-51
-56,-2,54,28,-55,26,-20,-23,20,-14,20,-50
-56,4,60,26,-58,32,-20,-24,20,-9,19,-45
-56,10,66,22,-61,38,-27,-29,24,-5,22,-37
-57,14,71,21,-65,43,-34,-30,26,1,26,-31
-49,27,76,11,-63,51,-44,-35,25,5,28,-24
-38,44,83,-3,-60,63,-50,-43,20,6,31,-17
-27,62,89,-18,-58,75,-62,-51,12,4,34,-15
-30,67,96,-19,-63,81,-86,-79,7,6,36,-11
-42,59,101,-9,-72,80,-92,-91,-2,4,30,-10
-55,56,111,-1,-83,83,-89,-85,-6,5,27,-5
-47,51,99,-2,-73,75,-86,-78,-14,5,24,-5
-31,46,77,-8,-54,62,-86,-76,-15,-7,18,-12
-19,40,59,-11,-39,49,-78,-66,-21,-12,18,-18
-33,9,42,11,-38,26,-53,-45,-23,-22,13,-32
-49,-20,29,34,-39,4,-27,-17,-27,-3,27,-35
-56,-47,10,51,-33,-18,-29,-14,-34,-10,12,-58
-58,-52,6,55,-32,-23,-3,-3,-29,11,28,-55
-26,-49,-24,38,-1,-36,13,39,-40,6,13,-78
-80,-64,16,72,-47,-24,57,49,122,21,22,-64
7,122,115,-64,-54,118,27,43,263,243,224,114
326,550,224,-438,51,386,-343,-288,224,661,870,795
640,752,112,-696,264,432,-629,-665,-149,778,1282,1289
500,281,-219,-390,359,31,-556,-609,-975,-219,188,342
36,-280,-316,122,176,-298,-297,-385,-1346,-1051,-796,-526
-91,-391,-299,241,104,-345,-29,-115,-1091,-904,-701,-522
-149,-345,-196,248,24,-270,90,42,-683,-630,-518,-462
-168,-236,-68,202,-50,-152,114,67,-296,-312,-261,-273
-118,-165,-48,142,-35,-107,99,76,-106,-154,-129,-169
-115,-135,-20,125,-47,-77,64,61,-27,-106,-79,-128
-74,-91,-18,83,-28,-54,34,59,6,-58,-31,-92
-68,-77,-9,73,-29,-43,29,48,23,-48,-30,-91
-59,-61,-2,60,-28,-32,28,42,38,-25,-5,-73
-61,-58,3,59,-32,-27,23,37,46,-23,-5,-74
-58,-47,11,52,-34,-18,21,30,59,-8,9,-60
-56,-41,15,48,-35,-13,19,27,66,-1,14,-57
-57,-34,22,45,-39,-5,14,22,79,10,22,-44
-53,-27,25,40,-39,-1,5,18,91,21,32,-35
-54,-21,33,37,-43,6,-3,13,107,33,44,-25
-52,-15,37,33,-44,11,-11,6,130,51,63,-8
-46,-3,43,24,-44,20,-17,-1,152,74,85,11
-12,34,45,-11,-29,39,-28,-8,180,102,114,39
23,68,45,-46,-11,56,-37,-16,204,133,148,69
52,100,49,-76,1,74,-60,-22,205,159,186,105
90,140,50,-115,19,95,-87,-29,205,159,214,134
101,151,50,-126,26,100,-92,-35,206,152,212,136
91,141,50,-116,20,95,-98,-40,205,148,203,134
87,137,50,-112,18,93,-101,-45,206,140,195,130
78,128,50,-103,14,89,-106,-52,187,138,189,131
74,124,50,-99,12,87,-110,-54,160,123,170,117
62,113,50,-87,6,81,-101,-50,136,92,132,82
28,75,48,-52,-10,61,-86,-50,114,65,105,55
1,46,45,-24,-22,45,-72,-48,89,43,79,28
-10,32,42,-11,-26,37,-58,-45,60,21,52,1
-27,12,39,7,-33,25,-47,-45,37,-3,34,-23
-42,-6,36,24,-39,14,-39,-42,19,-20,17,-42
-55,-20,35,37,-45,7,-30,-37,10,-27,5,-53
-67,-32,35,49,-51,1,-22,-34,4,-34,-3,-65
-72,-37,35,54,-53,-1,-18,-30,-3,-42,-9,-75
-78,-43,35,60,-56,-4,-12,-27,-9,-50,-17,-81
-81,-46,35,63,-58,-6,-9,-23,-15,-54,-25,-84
-87,-51,35,69,-61,-8,-4,-20,-10,-49,-28,-87
-88,-55,33,71,-60,-11,1,-20,-2,-46,-25,-92
-79,-50,29,65,-54,-10,5,-18,4,-43,-23,-95
-81,-50,30,66,-56,-10,5,-14,11,-39,-20,-92
-79,-49,30,64,-54,-9,6,-15,17,-35,-17,-86
-75,-45,30,60,-52,-7,10,-11,23,-32,-15,-82
-75,-45,30,60,-52,-8,10,-10,25,-29,-12,-78
-68,-43,25,55,-46,-8,8,-10,25,-26,-7,-73
-65,-40,25,52,-45,-7,3,-10,28,-23,-4,-69
-61,-37,24,48,-42,-6,0,-10,31,-20,-1,-64
-54,-34,20,44,-36,-7,-3,-10,29,-21,4,-58
-51,-31,21,41,-36,-5,-8,-10,25,-25,4,-55
-47,-30,17,38,-32,-6,-10,-10,20,-27,0,-50
-45,-30,15,37,-30,-7,-10,-10,15,-30,0,-46
-45,-30,15,37,-30,-7,-10,-10,12,-33,-2,-41
-45,-30,15,37,-30,-7,-10,-10,6,-36,-6,-40
-45,-30,15,37,-30,-7,-10,-13,7,-31,-5,-40
-46,-31,15,38,-30,-7,-10,-18,10,-26,-2,-36
-50,-28,22,38,-36,-3,-12,-20,10,-22,4,-36
-49,-18,32,33,-40,7,-19,-24,14,-17,8,-34
-47,-7,39,27,-43,16,-24,-29,16,-12,13,-29
-47,3,49,22,-48,26,-29,-31,15,-9,17,-23
-45,22,67,11,-56,44,-36,-39,10,-10,22,-19
-30,42,72,-6,-51,56,-38,-42,3,-10,24,-15
-24,45,69,-11,-47,57,-75,-64,0,-9,28,-10
-25,45,70,-10,-48,57,-115,-102,-8,-11,29,-14
-25,45,70,-10,-48,57,-105,-106,-11,-9,34,-15
-25,46,71,-10,-49,58,-92,-100,-19,-14,36,-19
-20,44,64,-12,-42,54,-74,-90,-19,-21,28,-22
-4,35,39,-16,-22,37,-41,-55,-24,-24,18,-23
-11,8,18,1,-14,13,-14,-31,-26,-35,1,-30
-42,-29,13,35,-27,-8,17,-9,-27,-48,5,-35
-50,-57,-7,54,-21,-32,27,0,-35,-76,-7,-65
-61,-64,-3,63,-29,-33,47,7,-28,-73,8,-60
-75,-78,-3,76,-35,-40,48,31,-44,-95,-8,-82
-91,-77,13,84,-52,-32,82,62,106,-20,27,-63
36,112,76,-74,-20,94,79,79,252,203,199,100
348,517,168,-433,90,342,-294,-251,210,640,814,749
663,760,98,-711,282,429,-619,-636,-130,851,1314,1309
540,354,-186,-447,363,84,-539,-592,-868,-140,271,438
40,-220,-260,90,150,-240,-278,-381,-1225,-1046,-755,-513
-133,-370,-236,252,52,-303,1,-103,-1062,-933,-701,-567
-132,-341,-209,236,39,-275,130,82,-707,-652,-554,-483
-129,-233,-105,181,-12,-169,156,102,-308,-355,-291,-285
-71,-144,-73,107,2,-108,147,100,-125,-187,-143,-169
-67,-115,-48,92,-10,-81,118,89,-41,-126,-99,-124
-52,-93,-40,73,-6,-66,95,84,1,-74,-47,-80
-53,-91,-38,73,-7,-64,85,75,20,-61,-44,-80
-46,-75,-29,60,-8,-51,83,69,35,-44,-25,-68
-45,-71,-27,58,-9,-49,75,65,40,-40,-26,-69
-39,-57,-18,49,-10,-37,70,65,59,-25,-12,-58
-9,-26,-17,18,4,-21,64,63,73,-15,-8,-57
5,-8,-13,2,9,-10,61,59,89,-2,6,-43
7,-4,-11,-2,9,-7,58,61,101,11,17,-26
14,6,-7,-10,10,-1,55,56,117,25,32,-8
40,35,-5,-37,22,15,52,50,138,39,53,18
60,58,-3,-59,31,27,50,45,156,56,72,40
80,80,0,-80,39,40,46,39,182,82,102,70
120,120,0,-120,60,59,30,34,215,116,136,102
160,160,0,-160,80,79,14,29,245,155,175,135
199,199,1,-199,99,100,5,25,250,167,188,165
236,235,-1,-235,118,117,2,25,240,156,180,170
244,241,-4,-242,124,118,-2,23,235,152,180,160
243,236,-7,-239,124,114,-5,19,226,143,174,155
240,231,-9,-235,125,110,-10,20,220,139,172,145
240,228,-13,-234,126,107,-8,23,209,128,164,140
233,217,-15,-224,123,101,3,29,183,96,139,128
195,182,-13,-188,104,85,12,33,158,72,109,96
155,146,-8,-150,81,69,33,38,135,57,83,66
123,118,-5,-120,63,56,57,42,109,41,62,42
103,101,-2,-102,52,49,63,47,81,25,43,25
85,88,3,-87,41,46,67,50,59,8,26,9
75,79,5,-78,35,42,72,49,52,0,13,-1
76,77,1,-77,37,39,76,53,48,-3,7,-7
75,73,-2,-74,38,35,81,55,43,-7,3,-14
74,70,-5,-72,39,32,84,55,39,-10,-1,-21
73,65,-7,-69,39,28,89,58,35,-15,-6,-28
78,67,-11,-72,44,28,91,61,41,-13,-10,-28
79,72,-7,-75,43,32,95,64,46,-7,-5,-24
79,75,-5,-76,41,35,100,67,51,-3,-5,-22
83,78,-5,-80,44,36,98,70,57,2,-4,-19
88,83,-5,-85,46,38,93,69,62,6,1,-16
90,85,-5,-87,47,40,90,65,68,11,-1,-14
90,85,-6,-87,48,39,87,65,70,14,2,-11
94,85,-9,-89,51,37,82,65,70,15,9,-5
97,85,-12,-91,54,36,80,65,70,16,14,-1
99,85,-14,-91,56,35,85,65,70,20,19,4
103,85,-18,-94,60,34,85,61,69,20,25,8
102,82,-20,-92,61,31,86,60,65,18,29,13
100,80,-20,-90,60,30,90,60,60,15,25,15
100,80,-20,-90,60,30,90,60,55,12,25,15
97,76,-20,-86,58,28,88,60,52,9,24,15
94,75,-20,-84,57,27,84,58,46,6,20,15
96,75,-20,-86,57,27,85,55,47,5,20,15
99,79,-20,-89,59,30,84,55,51,9,22,20
96,82,-14,-89,55,33,86,56,50,13,26,26
93,86,-7,-89,50,39,84,55,50,16,30,31
89,89,-1,-89,45,44,82,56,50,21,34,38
90,96,6,-93,42,50,77,50,50,24,38,42
109,122,13,-116,48,67,77,40,44,28,41,48
125,140,15,-133,54,77,66,30,35,33,44,52
137,152,15,-145,61,83,21,-6,30,39,49,58
143,158,15,-151,64,86,8,-27,20,44,52,61
132,147,15,-140,58,81,15,-19,15,50,55,66
124,140,15,-132,54,77,19,-15,7,56,61,71
126,130,4,-128,61,66,22,-7,5,41,54,57
131,122,-10,-126,70,56,33,12,6,26,45,48
121,97,-24,-109,73,36,63,37,-1,0,24,27
96,58,-38,-77,66,10,94,67,3,-5,10,20
87,35,-52,-61,69,-8,111,86,-5,-27,-23,-7
65,16,-49,-40,57,-16,121,97,11,-15,-8,-8
61,24,-37,-42,49,-6,136,118,1,-30,-9,-24
57,20,-37,-38,47,-8,122,170,123,-8,-11,-36
108,120,13,-114,47,66,131,191,291,216,158,105
391,518,127,-455,132,322,-129,-110,241,630,740,701
739,867,128,-803,306,497,-532,-493,12,1037,1448,1470
691,561,-130,-626,410,215,-500,-498,-642,238,657,817
231,-56,-287,-87,259,-171,-219,-313,-1140,-841,-618,-310
-8,-279,-271,144,132,-275,55,-42,-1036,-864,-723,-438
-4,-272,-268,138,132,-270,206,143,-716,-660,-574,-417
-22,-214,-191,118,85,-202,203,140,-327,-360,-349,-281
18,-122,-140,52,79,-131,195,146,-107,-159,-162,-128
50,-77,-127,14,89,-102,186,150,-14,-95,-108,-96
66,-50,-116,-8,91,-83,180,153,47,-28,-44,-37
68,-44,-112,-12,90,-78,177,155,67,-19,-36,-36
65,-35,-100,-15,83,-67,173,148,84,2,-13,-19
68,-29,-98,-19,83,-63,170,151,91,-2,-14,-17
71,-23,-93,-24,82,-58,165,149,103,11,-1,-7
75,-16,-92,-30,84,-53,163,150,110,15,4,0
77,-10,-88,-33,83,-49,156,150,119,27,12,7
85,-1,-85,-42,85,-43,151,145,131,40,24,17
91,7,-83,-49,87,-38,146,137,145,52,33,23
96,16,-80,-56,88,-32,139,131,158,72,52,32
109,32,-77,-70,93,-23,136,123,177,91,73,46
131,56,-75,-93,103,-9,123,115,202,117,100,72
155,83,-72,-119,113,6,104,110,222,146,131,103
188,119,-69,-154,128,24,78,100,226,156,145,135
233,159,-74,-195,153,42,64,91,225,154,147,168
259,183,-75,-221,167,54,62,83,229,158,150,190
261,187,-75,-224,168,56,58,73,230,160,153,187
256,181,-75,-218,165,53,55,66,230,161,156,176
256,181,-75,-218,166,53,50,65,221,150,152,170
242,167,-75,-204,158,46,52,65,209,125,143,151
207,132,-75,-169,141,28,59,65,194,103,118,118
183,108,-75,-145,129,16,66,65,165,82,85,89
157,82,-75,-119,115,4,72,66,134,65,59,64
122,47,-75,-84,98,-14,79,71,107,48,38,42
97,22,-75,-59,86,-26,87,74,90,28,25,24
83,5,-78,-44,81,-36,95,77,74,13,12,7
76,-4,-80,-36,79,-42,103,82,63,0,4,-5
67,-12,-80,-27,74,-46,111,85,58,-7,-2,-11
59,-21,-80,-19,70,-51,118,89,50,-11,-10,-18
53,-26,-79,-14,67,-52,120,90,45,-16,-18,-24
50,-32,-81,-9,66,-57,123,90,37,-20,-24,-32
50,-35,-85,-7,68,-60,126,90,37,-25,-21,-34
45,-40,-85,-2,65,-62,129,90,44,-21,-20,-30
40,-45,-85,3,63,-65,130,90,51,-14,-19,-30
43,-42,-85,0,64,-63,125,90,57,-8,-15,-30
48,-37,-85,-5,67,-61,125,90,64,-1,-16,-30
47,-35,-81,-6,65,-58,124,90,70,6,-13,-30
49,-30,-80,-9,64,-55,120,90,70,12,-6,-26
53,-27,-80,-13,67,-53,120,90,70,15,1,-19
52,-23,-75,-14,64,-49,118,87,70,17,7,-13
54,-21,-75,-16,64,-47,113,84,70,20,14,-5
58,-17,-75,-20,67,-46,110,81,70,23,20,-2
60,-15,-75,-22,68,-45,107,78,68,26,20,-5
64,-12,-75,-25,69,-43,102,75,63,21,20,-5
65,-9,-75,-28,70,-42,99,74,57,15,20,-5
61,-14,-75,-23,68,-44,95,70,54,10,20,-5
60,-15,-75,-22,68,-45,95,71,48,4,20,-5
56,-16,-72,-20,64,-43,95,67,45,-2,22,-2
46,-20,-66,-13,56,-42,95,65,50,-4,27,4
41,-21,-62,-10,51,-41,96,65,55,4,32,8
39,-18,-57,-10,48,-37,92,62,60,11,37,13
44,-8,-53,-18,49,-30,83,59,63,18,41,17
64,16,-48,-40,56,-16,71,56,70,24,46,22
96,51,-45,-73,70,3,64,53,67,29,50,26
119,74,-45,-96,82,14,36,23,58,34,49,29
119,77,-42,-98,80,17,14,7,49,38,52,33
115,75,-40,-95,77,17,15,16,41,42,53,36
113,75,-39,-94,76,17,20,19,33,46,58,42
124,76,-48,-100,85,14,22,26,21,34,49,32
131,71,-61,-101,96,5,25,31,18,31,43,24
114,38,-77,-76,95,-19,44,38,1,22,26,9
78,-8,-86,-34,82,-47,71,58,2,12,18,2
61,-38,-99,-11,81,-68,88,83,-10,-2,22,6
50,-60,-110,5,80,-84,93,77,1,-25,22,2
58,-59,-118,0,88,-88,117,95,-12,-18,45,11
39,-84,-122,22,81,-103,117,118,40,-17,22,-4
35,-27,-62,-3,49,-44,146,159,255,127,103,32
242,291,49,-266,96,170,-3,38,269,444,454,383
586,724,138,-655,224,431,-415,-404,136,950,1265,1205
759,684,-74,-721,416,305,-548,-593,-398,637,1110,1158
408,45,-362,-227,385,-158,-348,-421,-1156,-631,-300,-53
70,-342,-412,136,241,-376,-63,-177,-1243,-1026,-758,-547
21,-353,-375,166,198,-364,140,70,-885,-752,-588,-456
-48,-295,-247,172,100,-271,171,167,-476,-470,-416,-359
-14,-185,-171,100,79,-178,160,175,-170,-192,-156,-170
10,-141,-151,66,81,-146,155,159,-43,-108,-98,-115
38,-96,-134,29,86,-115,147,137,24,-45,-32,-60
70,-66,-136,-1,103,-101,141,124,48,-26,-8,-44
67,-56,-123,-5,95,-90,136,110,61,-9,7,-40
73,-48,-121,-12,97,-84,129,108,69,3,15,-31
65,-48,-113,-9,89,-80,122,104,80,11,20,-30
70,-40,-109,-15,90,-74,116,101,93,24,32,-20
66,-38,-104,-14,85,-70,109,96,104,32,35,-19
68,-31,-99,-18,84,-65,103,93,118,53,46,-6
71,-24,-96,-23,84,-60,98,89,131,64,55,2
72,-17,-90,-27,81,-53,92,83,146,77,79,13
76,-11,-87,-32,82,-48,86,80,160,91,101,22
85,1,-84,-42,84,-41,82,75,186,116,125,36
108,27,-81,-67,95,-27,73,71,222,143,154,69
142,64,-78,-102,110,-7,52,64,249,169,188,104
182,107,-75,-144,129,15,18,51,256,201,212,145
209,136,-73,-172,141,31,-4,40,248,204,210,179
204,134,-70,-169,137,32,-7,34,241,195,207,186
197,130,-67,-163,132,31,-11,28,233,187,205,178
192,127,-65,-159,128,31,-14,25,226,180,200,174
183,122,-61,-152,122,30,-19,20,218,168,201,163
180,120,-59,-150,120,30,-19,15,189,132,176,125
166,102,-64,-134,115,19,-7,18,158,107,139,91
142,76,-65,-109,103,5,11,21,137,88,118,66
123,58,-65,-90,94,-3,33,24,118,69,92,38
85,20,-65,-52,75,-22,43,27,93,54,67,19
50,-16,-65,-17,58,-40,47,29,68,38,52,5
42,-22,-64,-9,53,-42,53,31,54,25,38,-8
35,-25,-60,-5,48,-42,59,35,46,13,29,-20
31,-29,-60,-1,46,-44,64,35,38,8,23,-31
28,-32,-60,2,44,-46,69,37,27,5,16,-43
24,-36,-60,6,42,-47,70,41,28,2,9,-50
21,-39,-60,9,41,-49,70,39,30,-3,2,-50
18,-42,-60,12,39,-51,74,44,30,-5,2,-50
15,-45,-60,15,38,-52,76,45,35,0,9,-50
12,-48,-60,18,37,-54,73,45,35,5,13,-50
9,-51,-60,21,34,-55,70,50,36,9,19,-48
13,-48,-60,18,37,-54,67,50,41,14,25,-45
18,-41,-59,12,38,-49,65,48,46,18,30,-45
21,-34,-55,7,38,-44,61,45,50,23,35,-45
27,-27,-55,1,41,-41,60,43,55,25,35,-45
34,-21,-55,-6,45,-38,57,40,60,25,36,-45
40,-15,-55,-12,48,-35,52,37,57,28,40,-40
45,-11,-55,-17,50,-32,49,35,52,31,40,-40
45,-10,-55,-17,50,-32,46,32,49,29,37,-39
45,-10,-55,-17,50,-32,41,29,46,25,35,-35
45,-10,-55,-17,50,-32,40,26,41,25,35,-35
44,-10,-55,-16,50,-32,40,23,41,24,35,-33
48,-8,-55,-19,52,-31,40,20,46,20,35,-30
53,-1,-54,-26,53,-27,40,19,49,19,35,-31
53,5,-48,-29,50,-21,40,13,52,22,40,-27
54,13,-41,-33,48,-14,41,7,57,29,47,-25
56,18,-37,-37,46,-9,34,4,60,37,51,-25
63,40,-23,-51,43,8,22,-6,57,42,57,-19
71,67,-4,-69,38,31,9,-6,53,50,63,-13
77,73,-5,-74,41,34,-5,-26,50,54,63,-9
83,78,-5,-80,44,36,-32,-61,47,50,59,-2
87,82,-5,-84,46,38,-64,-66,42,43,54,2
91,86,-5,-88,47,40,-63,-61,31,39,53,4
96,91,-5,-93,50,43,-52,-57,10,33,46,-7
92,77,-15,-85,53,31,-41,-58,3,26,45,-12
102,64,-39,-83,70,12,-14,-39,-3,25,41,-19
92,39,-53,-66,72,-7,7,-11,2,0,30,-30
60,-2,-62,-29,61,-32,35,25,-2,-5,34,-30
54,-25,-78,-14,66,-51,44,35,0,-28,15,-49
55,-16,-71,-19,63,-44,63,53,2,-13,26,-44
50,-23,-73,-13,62,-48,100,51,12,-17,11,-72
31,-14,-45,-9,38,-29,121,69,172,61,68,-51
137,189,52,-164,42,121,47,50,252,346,297,197
489,656,167,-573,161,411,-358,-313,204,722,1004,919
814,816,2,-815,406,408,-675,-577,-210,743,1295,1262
559,234,-326,-396,442,-46,-502,-505,-1029,-302,53,231
138,-267,-406,65,272,-336,-195,-316,-1316,-1047,-763,-579
64,-313,-377,124,221,-345,33,-43,-1032,-831,-632,-550
-37,-289,-253,163,108,-271,108,97,-621,-555,-482,-437
-56,-196,-140,127,42,-168,96,121,-254,-245,-195,-226
8,-117,-125,55,66,-121,102,121,-83,-108,-83,-138
15,-85,-100,36,58,-92,99,93,-4,-56,-33,-104
33,-63,-96,15,64,-79,101,70,29,-9,6,-74
28,-58,-86,15,57,-72,98,62,45,-1,15,-62
37,-46,-83,5,60,-64,91,61,60,22,39,-41
39,-40,-79,1,59,-59,87,56,69,24,41,-42
43,-30,-73,-6,58,-51,80,53,83,43,57,-27
47,-23,-70,-12,59,-47,75,49,94,51,60,-24
49,-15,-64,-17,57,-39,70,46,107,63,72,-14
50,-8,-58,-21,54,-33,63,41,122,73,79,-5
53,2,-50,-27,52,-24,55,39,134,83,90,5
66,21,-44,-43,55,-11,47,34,152,103,106,22
82,44,-37,-63,59,3,40,31,176,131,129,42
105,72,-32,-88,68,20,31,26,198,166,160,73
127,97,-30,-112,78,34,14,15,236,198,196,105
162,136,-27,-149,94,54,-15,4,253,207,231,140
189,165,-24,-176,106,70,-41,-8,244,204,237,169
185,165,-20,-175,102,72,-46,-15,240,206,232,170
186,166,-20,-176,102,72,-48,-18,233,204,231,164
194,169,-25,-181,109,72,-51,-22,229,206,226,160
196,171,-25,-183,110,73,-54,-25,213,199,226,156
194,168,-26,-181,110,70,-56,-30,192,177,213,142
193,162,-30,-177,111,66,-44,-28,172,152,182,107
165,135,-29,-150,97,53,-30,-24,143,125,155,74
118,86,-33,-102,75,26,-18,-22,112,102,128,43
91,56,-35,-73,63,10,-11,-19,84,78,102,17
74,39,-35,-56,54,2,-4,-16,62,57,85,0
65,27,-39,-46,52,-6,3,-14,43,45,71,-14
57,16,-41,-36,48,-12,9,-11,27,34,61,-24
43,4,-39,-24,41,-17,15,-10,18,22,56,-30
35,-1,-36,-16,35,-18,19,-10,20,15,51,-35
28,-7,-35,-10,32,-20,23,-10,20,15,48,-41
25,-10,-35,-7,30,-22,27,-11,20,13,42,-47
20,-15,-35,-2,28,-25,30,-7,20,10,41,-49
16,-20,-36,3,26,-27,35,-5,19,9,45,-45
16,-16,-32,1,24,-24,33,-5,24,13,47,-46
15,-15,-30,0,23,-22,29,-1,30,22,50,-43
15,-15,-30,0,23,-22,30,0,35,30,53,-40
15,-15,-30,0,23,-22,30,0,40,39,55,-40
14,-16,-30,1,23,-22,30,0,47,45,58,-36
16,-14,-30,-1,24,-21,29,0,49,48,63,-31
20,-10,-30,-5,25,-20,26,0,45,52,66,-26
22,-8,-30,-7,26,-19,23,0,45,55,69,-23
25,-5,-30,-10,28,-17,20,0,43,60,74,-17
28,-2,-30,-13,29,-16,17,-2,39,58,74,-16
31,0,-30,-16,31,-15,15,-5,40,53,70,-20
31,3,-28,-17,29,-12,13,-5,36,50,70,-20
30,6,-24,-17,27,-9,8,-5,32,47,68,-20
30,5,-25,-17,27,-10,5,-5,29,42,64,-20
26,5,-21,-16,23,-8,2,-5,26,40,65,-20
24,4,-20,-14,21,-7,-3,-10,21,44,68,-17
26,6,-20,-16,23,-7,-5,-17,21,47,74,-10
27,14,-12,-20,19,1,-12,-20,31,50,79,-5
24,21,-2,-23,13,9,-22,-28,40,53,82,1
29,37,8,-33,10,22,-30,-32,51,56,88,7
49,63,14,-56,17,38,-40,-41,51,53,90,11
50,71,21,-61,14,46,-49,-70,40,49,90,15
42,69,27,-56,7,48,-49,-76,30,51,91,15
39,73,34,-56,2,53,-51,-68,20,45,89,15
34,75,41,-55,-4,57,-49,-65,12,47,92,16
56,76,20,-66,18,48,-51,-57,5,42,88,14
69,62,-6,-65,37,28,-50,-54,0,39,87,10
53,27,-26,-40,39,1,-28,-43,-9,20,64,-12
31,-2,-33,-14,32,-17,3,-20,-11,19,58,-20
13,-26,-40,7,27,-32,23,0,-22,21,46,-21
-1,-32,-31,17,15,-32,32,5,-17,15,40,-20
-4,-38,-34,21,15,-36,48,21,-21,29,44,-12
-17,-48,-31,33,7,-39,25,38,60,4,14,-23
20,20,0,-20,10,10,41,94,208,154,129,22
259,347,88,-303,85,217,-123,-68,235,490,560,430
671,793,122,-732,274,457,-562,-562,84,849,1273,1193
745,582,-163,-663,454,209,-659,-715,-585,332,809,868
270,-85,-355,-92,313,-220,-381,-478,-1250,-802,-479,-297
12,-352,-364,170,189,-358,-99,-216,-1214,-1004,-725,-607
-35,-355,-321,195,143,-338,77,17,-856,-727,-581,-515
-107,-269,-162,188,28,-215,102,82,-438,-430,-361,-366
-54,-166,-112,110,29,-138,90,81,-158,-179,-125,-193
-31,-120,-90,76,30,-105,89,82,-54,-115,-79,-161
8,-72,-80,33,44,-76,80,71,7,-51,-15,-112
9,-70,-79,31,44,-75,77,70,30,-39,-12,-109
-5,-71,-66,38,30,-68,70,61,46,-23,7,-97
0,-66,-66,33,33,-65,65,59,57,-15,10,-90
-11,-66,-55,38,23,-60,60,54,71,-6,18,-84
-11,-64,-52,38,21,-58,54,52,82,6,28,-73
-16,-59,-43,38,14,-51,49,49,95,10,33,-68
-8,-46,-38,28,15,-42,44,46,106,25,47,-56
-8,-39,-31,23,12,-34,36,45,119,39,53,-50
1,-24,-24,12,13,-24,29,39,133,54,69,-37
19,-2,-21,-8,20,-11,23,32,147,70,86,-26
33,17,-16,-24,24,0,13,26,169,94,107,-8
51,37,-14,-44,32,11,9,19,201,119,131,22
72,63,-9,-68,41,26,-6,13,234,147,158,57
113,108,-5,-110,59,51,-32,7,241,166,192,72
148,141,-7,-144,77,67,-41,-7,233,163,208,69
151,140,-12,-145,81,64,-44,-15,228,156,204,70
151,136,-15,-143,82,60,-48,-14,223,149,202,65
151,133,-18,-142,84,57,-51,-17,214,143,197,65
152,129,-23,-141,88,53,-56,-20,185,129,170,63
138,114,-25,-125,81,44,-50,-20,157,102,135,41
104,83,-21,-94,62,31,-40,-18,136,75,103,11
70,51,-18,-60,44,16,-30,-13,108,49,65,-22
36,21,-16,-28,26,2,-20,-10,83,27,37,-48
10,-2,-12,-4,11,-7,-10,-7,60,9,17,-67
-5,-15,-10,10,3,-13,0,-2,36,-7,-1,-82
-19,-26,-8,23,-5,-17,9,0,24,-20,-17,-94
-34,-38,-5,36,-14,-21,16,5,20,-30,-30,-106
-40,-45,-5,43,-17,-25,22,5,15,-41,-36,-114
-43,-48,-5,46,-19,-26,29,6,12,-48,-43,-122
-47,-52,-5,50,-21,-28,36,10,6,-45,-49,-132
-50,-55,-5,53,-22,-30,42,10,7,-45,-56,-135
-60,-60,0,60,-30,-30,45,12,14,-45,-59,-135
-57,-58,0,57,-28,-29,45,15,21,-45,-55,-135
-56,-54,1,55,-28,-26,45,18,27,-45,-53,-135
-61,-56,5,58,-33,-25,45,21,34,-41,-50,-135
-56,-51,5,53,-30,-23,45,24,40,-35,-47,-134
-55,-50,5,52,-30,-22,41,25,40,-30,-45,-128
-55,-50,5,52,-30,-22,40,20,41,-25,-41,-122
-51,-45,5,47,-27,-20,40,20,45,-18,-40,-118
-46,-42,5,44,-25,-18,36,20,45,-16,-40,-111
-44,-39,5,41,-25,-16,34,20,43,-20,-36,-106
-39,-35,4,36,-21,-15,37,20,40,-20,-34,-108
-31,-30,1,31,-16,-15,40,22,37,-20,-37,-111
-28,-30,-2,29,-13,-16,40,26,34,-20,-39,-110
-25,-30,-5,28,-10,-17,40,25,30,-20,-43,-110
-22,-30,-7,26,-8,-18,40,25,30,-24,-45,-110
-19,-30,-11,25,-4,-21,40,25,34,-25,-49,-109
-23,-30,-7,27,-8,-18,37,24,37,-25,-51,-105
-31,-30,1,31,-16,-15,29,22,40,-25,-47,-103
-31,-23,8,27,-19,-7,23,18,43,-25,-43,-100
-26,-12,14,19,-19,1,15,17,46,-23,-39,-96
-30,-3,27,16,-29,12,10,11,43,-19,-36,-95
-34,9,43,12,-39,26,3,11,37,-15,-30,-91
-18,27,45,-5,-32,36,-11,3,31,-13,-31,-88
13,58,45,-36,-16,52,-34,-33,27,-8,-35,-84
38,82,45,-60,-4,63,-59,-42,19,-5,-34,-81
31,76,45,-54,-8,61,-58,-39,16,-9,-38,-76
26,71,45,-49,-10,57,-47,-37,9,-15,-39,-75
30,66,36,-48,-4,51,-41,-35,2,-25,-42,-86
18,41,23,-30,-3,32,-31,-29,-3,-26,-42,-87
-16,0,16,8,-16,8,-18,10,-14,-40,-64,-102
-63,-40,23,51,-42,-8,27,30,-13,-35,-62,-101
-61,-44,17,53,-39,-13,39,41,-26,-38,-70,-117
-70,-43,27,56,-48,-8,50,56,4,-33,-62,-117
-54,-31,23,42,-38,-4,64,67,-14,-35,-64,-129
-66,-41,24,53,-45,-8,83,147,94,-19,-77,-150
-27,29,55,-1,-41,42,117,190,260,164,59,-27
263,400,136,-332,63,268,-183,-110,215,557,596,524
611,745,133,-678,239,438,-542,-579,26,945,1291,1281
575,463,-113,-519,344,175,-525,-624,-637,215,569,693
90,-128,-218,20,154,-173,-311,-367,-1164,-904,-677,-410
-146,-357,-211,252,32,-283,-40,-111,-1076,-973,-810,-550
-139,-354,-215,247,38,-284,114,98,-764,-702,-661,-524
-167,-284,-117,226,-25,-201,124,125,-351,-416,-430,-390
-127,-200,-73,164,-27,-136,115,116,-121,-202,-249,-243
-105,-160,-55,133,-25,-107,111,123,-34,-130,-200,-207
-74,-121,-47,98,-13,-84,105,117,22,-65,-134,-146
-72,-113,-41,93,-15,-77,100,122,48,-49,-129,-147
-75,-105,-31,90,-22,-68,94,115,68,-28,-109,-129
-72,-99,-27,86,-22,-63,88,112,71,-28,-108,-127
-74,-93,-18,84,-28,-55,84,106,83,-18,-95,-117
-70,-86,-16,78,-26,-51,77,103,89,-12,-89,-110
-73,-82,-9,77,-32,-45,73,98,100,-5,-82,-106
-72,-76,-4,74,-34,-40,67,93,111,10,-71,-98
-74,-73,2,73,-38,-35,58,89,126,19,-67,-95
-73,-67,5,69,-39,-31,49,83,147,34,-53,-86
-67,-62,5,64,-35,-28,40,80,168,47,-41,-69
-26,-21,5,23,-15,-8,31,75,196,68,-23,-43
21,26,5,-24,8,15,21,71,214,98,8,-13
51,56,5,-54,23,30,4,66,217,112,44,17
95,96,2,-96,47,49,-25,60,222,110,67,48
113,113,0,-113,57,56,-41,55,224,110,65,74
103,103,0,-103,51,52,-39,50,230,105,61,72
98,98,0,-98,49,49,-42,43,229,105,57,63
90,90,0,-90,45,45,-45,41,215,104,55,59
83,85,1,-84,41,43,-46,45,202,92,34,41
72,77,5,-75,34,41,-42,44,184,74,-1,8
47,54,8,-51,19,31,-22,47,161,52,-26,-21
9,19,10,-14,-1,14,-4,50,133,34,-53,-42
-32,-19,14,25,-23,-3,10,50,103,18,-72,-64
-51,-35,15,43,-33,-10,22,53,82,2,-93,-88
-60,-41,19,50,-39,-11,27,56,64,-14,-111,-106
-71,-51,20,61,-45,-15,33,59,47,-30,-125,-118
-77,-57,20,67,-48,-18,36,62,35,-37,-137,-129
-90,-65,25,77,-57,-20,42,64,35,-41,-140,-141
-97,-72,25,84,-61,-24,45,66,35,-46,-143,-145
-105,-79,26,92,-65,-26,40,70,30,-50,-146,-145
-117,-87,30,102,-74,-28,40,70,30,-55,-149,-145
-124,-95,30,110,-77,-32,40,72,31,-51,-150,-145
-129,-99,30,114,-79,-34,40,76,36,-44,-145,-145
-122,-93,30,108,-76,-31,41,75,41,-38,-142,-141
-116,-86,30,101,-73,-27,37,75,45,-31,-138,-134
-113,-79,33,96,-73,-23,35,75,50,-24,-134,-128
-108,-72,36,90,-72,-18,35,75,55,-18,-131,-121
-106,-67,39,86,-72,-13,31,75,51,-15,-127,-114
-102,-61,41,81,-72,-9,30,75,50,-12,-125,-109
-106,-60,45,82,-76,-7,30,74,50,-10,-125,-104
-103,-59,44,81,-73,-7,25,70,45,-7,-125,-100
-95,-56,40,76,-67,-8,25,70,45,-5,-125,-95
-94,-54,40,74,-67,-7,24,70,44,-8,-126,-90
-97,-57,40,76,-68,-8,20,70,39,-13,-129,-90
-100,-60,40,80,-70,-10,20,70,34,-16,-132,-90
-100,-60,40,80,-70,-10,23,67,30,-19,-134,-90
-106,-63,44,84,-75,-9,25,64,25,-24,-138,-90
-116,-65,51,90,-83,-7,25,61,20,-24,-141,-90
-123,-66,57,94,-90,-4,25,58,24,-19,-138,-89
-122,-58,64,90,-93,3,25,55,31,-16,-133,-80
-114,-43,71,79,-93,13,25,54,38,-12,-127,-70
-105,-29,76,66,-90,24,16,45,45,-8,-123,-60
-100,-8,92,54,-96,42,3,35,49,-5,-119,-50
-88,13,101,37,-95,57,-9,28,42,-1,-114,-44
-69,30,99,19,-84,64,-27,17,38,-1,-111,-38
-71,30,101,21,-86,65,-61,18,33,2,-109,-30
-76,23,99,26,-88,61,-87,21,26,3,-110,-25
-81,20,101,31,-91,61,-78,19,22,8,-103,-19
-83,15,98,34,-90,56,-66,26,14,1,-106,-31
-76,11,86,32,-81,48,-60,23,17,-5,-107,-36
-73,-2,71,37,-72,34,-31,29,8,-19,-121,-45
-97,-39,58,68,-77,9,-4,45,11,-32,-134,-54
-108,-66,42,87,-74,-12,31,67,3,-35,-127,-56
-110,-88,22,99,-66,-32,40,72,7,-52,-137,-71
-98,-83,15,90,-56,-34,69,82,12,-40,-119,-61
-73,-86,-13,79,-29,-49,100,117,28,-67,-145,-89
-112,-79,34,95,-72,-22,101,133,224,56,-89,-55
26,194,168,-110,-71,180,-3,71,288,343,214,239
346,641,296,-494,25,468,-418,-348,165,866,1012,1084
556,697,141,-626,207,419,-653,-659,-277,785,1132,1290
295,145,-151,-220,223,-3,-440,-470,-990,-426,-214,105
-134,-312,-178,223,22,-245,-145,-208,-1175,-969,-921,-526
-208,-382,-175,296,-17,-278,73,48,-942,-795,-787,-489
-212,-343,-131,278,-41,-237,164,149,-552,-570,-626,-442
-187,-235,-47,211,-70,-141,167,126,-202,-258,-360,-233
-156,-180,-24,168,-65,-102,143,136,-75,-163,-274,-168
-150,-143,7,147,-78,-68,111,125,8,-93,-209,-112
-132,-121,11,126,-71,-55,92,127,41,-65,-174,-83
-137,-119,18,127,-77,-50,86,123,60,-49,-160,-78
-125,-102,23,113,-73,-39,82,119,69,-36,-144,-61
-126,-98,28,112,-77,-34,77,116,74,-34,-141,-59
-122,-88,35,105,-78,-26,73,112,86,-17,-124,-42
-121,-83,38,102,-79,-23,69,109,90,-10,-120,-41
-119,-76,43,97,-81,-16,63,104,103,9,-106,-28
-114,-69,45,91,-80,-11,57,102,114,19,-99,-24
-107,-58,49,83,-78,-4,52,94,128,34,-82,-12
-99,-45,54,71,-76,5,46,90,146,53,-64,7
-87,-34,54,60,-70,10,42,84,169,78,-42,27
-60,-10,50,35,-55,19,33,79,198,105,-17,52
-31,19,50,6,-41,35,20,74,220,131,11,77
9,56,48,-33,-20,52,-11,66,221,137,49,116
47,92,44,-70,1,68,-35,59,217,134,57,138
51,96,45,-74,2,71,-35,52,215,136,48,132
47,95,48,-71,-1,71,-39,44,211,134,45,130
42,95,53,-69,-6,74,-41,37,210,136,37,125
40,96,56,-69,-8,76,-45,38,200,129,34,121
22,81,59,-52,-19,70,-44,40,175,103,23,118
-25,40,64,-8,-45,52,-30,40,153,77,-9,85
-45,19,64,13,-55,41,-16,45,129,58,-33,52
-68,-8,60,38,-64,25,-6,45,101,37,-47,33
-110,-50,60,80,-84,5,1,46,77,20,-64,13
-121,-61,60,91,-91,-1,7,50,58,10,-80,-3
-119,-59,60,89,-89,0,14,50,43,-3,-96,-19
-123,-63,60,93,-91,-1,21,50,30,-12,-106,-35
-129,-65,63,97,-96,-1,27,50,24,-17,-112,-44
-130,-65,65,97,-97,0,30,50,26,-20,-119,-51
-134,-69,65,101,-99,-2,30,53,22,-23,-125,-58
-140,-75,65,107,-103,-5,32,56,20,-28,-133,-66
-145,-80,65,112,-105,-7,36,59,20,-30,-133,-73
-151,-86,65,118,-108,-10,35,62,23,-24,-126,-72
-157,-92,65,124,-111,-13,32,65,28,-18,-122,-64
-159,-94,65,126,-112,-14,29,64,31,-11,-116,-58
-153,-88,65,120,-109,-11,26,60,34,-4,-110,-51
-146,-81,65,113,-105,-8,23,60,39,2,-105,-44
-140,-74,65,106,-102,-4,21,60,39,8,-100,-39
-129,-67,61,98,-95,-3,18,60,34,10,-95,-33
-121,-61,59,91,-90,-1,15,60,36,13,-90,-28
-120,-60,60,90,-90,0,12,56,32,16,-87,-22
-120,-60,60,90,-90,0,10,55,30,19,-81,-16
-120,-60,60,90,-90,0,6,55,30,20,-82,-11
-120,-60,60,90,-90,0,5,55,26,15,-86,-6
-119,-59,60,89,-90,0,5,55,21,15,-85,-5
-122,-62,60,92,-91,-1,5,54,16,14,-85,-5
-125,-65,60,95,-92,-2,5,49,13,10,-85,-5
-125,-65,60,95,-92,-2,5,45,7,10,-85,-5
-124,-65,59,95,-91,-2,5,43,6,12,-80,-4
-130,-65,65,97,-97,0,4,38,11,17,-75,2
-138,-65,73,102,-105,3,-2,36,16,20,-71,9
-142,-61,81,101,-111,10,-9,31,21,23,-66,16
-142,-53,89,98,-115,17,-15,27,25,28,-61,23
-121,-24,97,72,-109,36,-23,22,30,31,-57,29
-116,2,118,56,-117,60,-27,18,27,35,-51,34
-110,16,127,47,-119,71,-42,12,20,35,-47,35
-63,56,119,3,-91,88,-65,-34,18,35,-40,40
-39,76,115,-19,-78,95,-66,-62,11,35,-35,41
-49,60,109,-6,-79,84,-60,-50,9,35,-30,45
-51,53,104,-1,-78,78,-59,-42,2,34,-35,44
-61,37,99,12,-80,68,-52,-35,-3,21,-45,35
-80,8,88,36,-84,48,-51,-17,-12,20,-45,30
-107,-32,75,69,-90,21,-39,6,-19,3,-61,16
-131,-66,65,98,-97,-1,-11,38,-23,6,-56,17
-119,-69,51,94,-85,-9,1,53,-38,1,-71,0
-105,-63,42,84,-73,-10,17,62,-30,15,-45,0
-83,-52,31,68,-57,-10,27,86,-53,16,-47,-18
-116,-61,55,88,-86,-3,103,102,112,32,-34,-23
-80,55,136,12,-108,95,85,130,261,266,143,144
199,469,270,-335,-36,370,-287,-175,192,663,746,770
555,769,214,-663,170,491,-632,-577,-71,893,1342,1393
477,375,-102,-426,289,136,-590,-553,-806,55,398,636
30,-217,-247,94,138,-231,-314,-346,-1267,-932,-723,-400
-124,-379,-255,252,66,-316,-47,-70,-1101,-892,-726,-484
-187,-366,-178,277,-4,-272,61,121,-738,-618,-594,-404
-255,-292,-37,273,-109,-164,58,148,-347,-324,-337,-237
-204,-208,-4,206,-99,-106,53,146,-139,-132,-169,-107
-176,-166,10,171,-93,-78,52,121,-45,-76,-120,-73
-148,-133,16,140,-82,-58,46,113,6,-20,-66,-25
-154,-130,23,142,-88,-53,44,101,27,-11,-63,-19
-148,-116,32,132,-90,-42,37,89,39,8,-37,2
-142,-108,34,125,-88,-37,33,85,46,10,-37,5
-139,-99,40,119,-90,-29,28,80,59,22,-20,19
-132,-91,41,111,-87,-24,21,79,67,30,-14,26
-131,-83,47,107,-89,-18,17,73,78,39,1,32
-125,-75,50,100,-87,-12,10,71,87,54,16,40
-118,-65,53,91,-85,-5,2,65,102,69,27,44
-105,-49,56,77,-81,3,-6,57,120,88,47,57
-96,-37,59,66,-77,11,-14,51,135,102,61,78
-79,-17,62,48,-70,22,-21,43,159,123,83,103
-56,9,65,23,-60,37,-36,36,182,160,117,131
-24,41,65,-9,-45,53,-62,29,186,178,154,169
9,74,65,-42,-28,69,-87,15,185,174,176,187
17,82,65,-50,-24,73,-97,-3,186,176,170,184
11,76,65,-44,-27,70,-101,-7,185,175,162,186
9,74,65,-42,-28,70,-106,-4,185,175,156,184
4,69,65,-37,-31,67,-110,-5,176,173,147,187
5,67,61,-36,-29,64,-116,0,159,148,142,178
-1,59,59,-29,-30,59,-108,0,133,118,121,141
-30,30,60,0,-45,45,-93,1,108,97,90,117
-60,0,60,30,-60,30,-81,6,85,78,67,100
-91,-30,60,61,-75,15,-72,4,59,62,50,73
-123,-65,59,94,-91,-3,-66,8,37,43,38,55
-137,-82,55,109,-95,-13,-59,10,19,30,27,45
-142,-87,55,114,-98,-16,-53,10,11,25,19,32
-149,-94,55,121,-102,-19,-46,13,6,17,12,23
-156,-101,55,128,-105,-23,-41,19,1,9,5,17
-162,-107,55,134,-109,-26,-39,24,-6,2,-2,12
-164,-113,51,139,-108,-31,-35,27,-8,4,-9,9
-165,-115,50,140,-107,-32,-34,33,-6,10,-4,3
-165,-115,50,140,-107,-32,-29,35,4,16,-4,0
-164,-119,45,141,-104,-36,-31,35,9,20,4,5
-166,-121,45,143,-106,-37,-36,35,15,27,2,10
-164,-120,44,141,-104,-38,-34,35,25,33,13,14
-155,-115,40,135,-97,-37,-39,35,22,98,9,19
-156,-116,40,136,-98,-37,-38,34,49,138,20,23
-153,-113,40,133,-96,-36,-43,42,16,127,27,28
-151,-111,40,131,-95,-35,-30,57,-42,158,19,34
-150,-109,40,130,-95,-35,-17,69,-52,126,53,39
-149,-113,36,130,-92,-38,12,78,-61,183,12,44
-151,-116,35,133,-93,-41,35,84,-142,44,77,50
-148,-114,34,130,-91,-40,63,91,-122,-240,-4,54
-149,-118,31,133,-89,-43,106,97,22,-199,86,55
-140,-110,29,125,-84,-40,-10,104,-44,-220,3,55
-156,-124,32,139,-93,-45,-83,108,-81,-260,32,55
-28,13,41,8,-35,27,-39,112,-47,-231,561,55
144,215,71,-180,36,143,-36,115,-78,-280,348,55
