I,II,III,aVR,aVL,aVF,V1,V2,V3,V4,V5,V6
-24,136,160,-56,-92,148,115,24,-29,-144,-74,175
5,162,156,-84,-76,159,115,0,-40,-140,-70,175
10,158,149,-84,-69,153,115,-27,-15,-139,-65,175
19,162,143,-90,-62,152,115,-23,-11,-135,-60,175
18,153,135,-86,-59,144,115,-27,-26,-132,-57,175
27,158,130,-92,-52,144,115,-23,-25,-126,-50,174
11,151,140,-81,-65,145,109,-27,-20,-120,-54,168
-14,143,157,-65,-86,150,102,-23,-24,-116,-60,160
5,165,160,-85,-78,162,96,-27,-35,-108,-62,154
-6,153,160,-74,-83,156,89,-25,-21,-127,-66,146
-17,147,164,-65,-90,155,82,-5,-14,-147,-61,137
-13,151,164,-70,-88,157,82,-46,-50,-141,-61,140
-14,153,167,-70,-91,160,90,-61,-59,-137,-58,144
13,185,173,-99,-80,179,84,-42,-44,-131,-55,165
5,194,189,-100,-92,191,85,-42,-40,-127,-54,180
9,199,190,-104,-91,195,105,-26,-25,-125,-40,173
53,252,199,-153,-73,225,89,-35,-15,-124,-27,187
31,265,234,-148,-102,249,47,-62,-49,-125,-14,193
30,270,241,-150,-106,255,27,-83,-86,-124,-16,196
63,285,223,-174,-80,254,31,-100,-83,-126,-12,196
50,245,196,-148,-73,220,31,-108,-98,-136,-23,185
36,215,179,-126,-72,197,29,-105,-111,-165,-63,174
27,161,134,-94,-54,147,52,-92,-98,-165,-68,148
1,95,94,-48,-47,95,47,-99,-121,-182,-83,123
-2,95,97,-47,-50,96,78,-76,-101,-202,-87,117
-3,87,90,-42,-47,88,78,-93,-103,-203,-82,107
-33,59,92,-13,-62,75,93,-67,-103,-209,-89,100
-31,66,97,-18,-64,81,98,-31,-48,-129,-76,101
-19,128,147,-55,-83,137,175,148,201,60,23,127
76,261,185,-168,-55,223,175,199,409,589,485,352
226,674,448,-450,-111,561,-552,-651,-185,1202,1244,826
460,1053,593,-757,-67,822,-1328,-1298,-563,1983,2041,1310
651,748,97,-700,277,422,-1593,-1316,-605,1918,1905,1266
549,314,-234,-431,391,40,-1442,-1318,-1203,87,625,774
384,81,-303,-232,343,-111,-981,-1073,-1372,-1010,-198,418
139,-85,-224,-26,181,-154,-533,-752,-1022,-947,-403,178
-74,-31,43,53,-58,6,-153,-424,-632,-776,-450,39
-77,7,85,35,-81,45,31,-174,-291,-478,-325,21
-77,-2,75,40,-76,36,122,-50,-148,-370,-259,18
-74,-2,72,38,-73,35,181,47,-60,-296,-216,22
-73,-16,57,44,-64,20,202,49,-28,-264,-203,18
-89,-30,59,59,-74,14,226,76,-11,-244,-191,21
-83,-31,51,56,-67,10,219,104,8,-211,-179,22
-69,-11,58,40,-63,23,232,115,49,-216,-179,20
-75,-21,53,48,-64,15,244,153,85,-210,-172,15
-67,-15,53,41,-60,19,245,145,86,-209,-173,13
-53,-4,49,29,-51,22,257,152,114,-192,-164,9
-80,-30,50,55,-65,10,260,178,143,-167,-169,4
-72,-22,50,47,-61,14,293,219,188,-152,-175,12
-70,-20,50,45,-59,14,316,256,233,-131,-167,18
-93,-43,50,68,-71,3,319,290,276,-97,-161,11
-69,-37,32,52,-50,-2,348,365,347,-73,-155,9
-54,-33,21,43,-37,-6,362,385,389,-49,-150,5
-51,-31,20,41,-35,-5,388,435,447,-24,-151,0
-42,-24,18,33,-30,-3,398,491,494,-9,-149,1
-39,-25,14,31,-26,-5,393,471,482,-22,-151,4
-28,-14,14,20,-21,0,397,461,479,-38,-148,8
-33,-13,20,23,-26,4,390,414,434,-56,-155,9
-53,-15,38,34,-45,11,374,377,394,-74,-176,15
-35,43,78,-4,-57,60,333,355,366,-80,-159,13
-19,69,88,-25,-54,78,285,273,288,-94,-130,23
-24,70,94,-23,-59,82,246,208,225,-96,-115,45
-23,94,117,-36,-71,106,212,146,160,-93,-91,54
-35,87,122,-26,-79,104,179,107,117,-97,-76,72
-22,101,123,-40,-73,112,141,87,95,-93,-74,73
-15,102,117,-44,-67,110,121,25,35,-97,-70,64
-21,93,113,-36,-67,103,117,-6,0,-115,-69,62
-19,90,109,-36,-64,100,108,-12,-14,-123,-64,53
-37,67,104,-16,-71,85,101,-23,-26,-127,-67,52
-14,87,101,-36,-58,94,93,-27,-35,-138,-83,59
2,100,98,-51,-48,99,91,-24,-40,-147,-86,57
-8,88,95,-41,-52,91,102,-15,-30,-154,-84,51
-10,82,93,-36,-51,87,111,-10,-20,-154,-86,46
-13,77,89,-32,-51,83,109,3,-10,-148,-83,40
-28,64,92,-18,-60,78,109,18,2,-140,-89,35
-52,56,109,-2,-81,82,123,33,13,-135,-96,30
-71,41,112,15,-92,76,134,46,8,-127,-90,30
-69,32,101,18,-85,66,131,36,0,-122,-96,30
-13,80,93,-33,-54,86,124,19,11,-122,-99,30
-20,66,86,-24,-53,76,117,19,2,-130,-90,30
-49,33,82,7,-65,58,111,11,-18,-140,-85,28
-40,39,80,1,-60,59,104,3,-13,-140,-77,23
-48,27,75,10,-61,50,101,-9,-25,-140,-71,17
-43,29,72,7,-58,50,99,-21,-41,-140,-75,14
-48,20,68,14,-58,43,95,-6,-40,-141,-73,8
-49,13,62,18,-56,37,94,-14,-42,-138,-66,4
-19,56,75,-19,-48,66,89,-44,-47,-128,-60,16
3,116,113,-60,-55,115,96,-37,-22,-120,-56,37
-28,112,139,-42,-84,125,101,-28,-15,-117,-51,39
-13,118,132,-53,-73,125,95,-22,-37,-111,-49,39
2,163,161,-83,-79,161,87,-13,-24,-92,-44,55
-17,158,176,-71,-97,167,56,-50,-44,-105,-41,58
11,188,176,-100,-83,182,27,-80,-69,-117,-41,64
23,186,162,-105,-70,174,31,-73,-67,-113,-47,60
45,138,92,-92,-24,115,31,-76,-84,-129,-50,44
25,119,94,-72,-35,106,32,-68,-80,-141,-58,32
-11,80,90,-35,-51,85,56,-77,-94,-161,-88,12
-19,45,64,-13,-42,54,68,-84,-94,-185,-97,-6
-48,18,66,15,-57,42,77,-73,-82,-185,-98,-25
-55,9,64,22,-60,37,59,-92,-130,-192,-119,-32
-65,1,66,32,-65,33,95,-39,-92,-173,-114,-28
-49,16,65,16,-58,41,107,-13,-27,-115,-99,-36
-32,56,87,-12,-60,71,219,203,248,93,31,6
93,213,120,-153,-13,166,134,174,403,675,532,243
264,685,421,-475,-79,553,-706,-769,-220,1345,1324,747
477,973,497,-725,-10,735,-1466,-1335,-504,2136,2083,1188
676,668,-8,-672,341,330,-1683,-1284,-595,1789,1760,1070
543,266,-277,-404,410,-6,-1475,-1308,-1242,-142,437,590
366,18,-348,-192,357,-164,-957,-1058,-1348,-1050,-265,239
124,-124,-248,1,186,-186,-491,-717,-985,-933,-437,11
-117,-92,25,104,-70,-34,-139,-413,-599,-745,-460,-114
-112,-49,63,80,-87,7,46,-155,-267,-446,-322,-130
-105,-61,44,83,-74,-8,132,-45,-151,-362,-275,-127
-80,-47,33,63,-56,-7,186,26,-65,-288,-229,-119
-96,-75,21,85,-58,-27,203,62,-34,-259,-221,-124
-131,-103,28,117,-80,-37,237,100,-6,-249,-217,-130
-90,-68,22,78,-56,-22,252,97,25,-231,-212,-130
-78,-52,26,64,-52,-13,253,117,48,-230,-212,-131
-86,-56,30,70,-57,-13,256,166,84,-215,-202,-128
-63,-46,17,54,-40,-14,259,153,80,-216,-215,-140
-77,-60,17,68,-47,-22,260,171,112,-200,-218,-152
-119,-86,33,103,-76,-26,263,187,142,-183,-212,-149
-109,-82,27,96,-68,-28,283,199,165,-166,-207,-150
-118,-94,23,106,-70,-35,304,241,221,-153,-201,-150
-114,-96,18,105,-66,-39,330,285,269,-132,-196,-150
-84,-73,10,78,-47,-31,366,355,340,-95,-192,-155
-80,-75,5,78,-42,-35,387,392,390,-71,-190,-173
-64,-76,-12,70,-25,-44,393,429,433,-64,-189,-187
-41,-74,-33,58,-4,-53,400,461,470,-60,-183,-183
-43,-76,-33,60,-5,-54,403,472,454,-66,-188,-189
-56,-78,-22,67,-17,-49,393,454,440,-85,-208,-202
-37,-58,-20,48,-8,-39,381,411,428,-91,-208,-192
-44,-45,-1,45,-21,-23,369,397,388,-106,-200,-178
-59,-33,25,45,-42,-4,341,325,335,-131,-196,-165
-31,6,37,12,-34,21,297,262,287,-123,-177,-152
-16,29,45,-7,-31,36,242,225,224,-107,-152,-146
-26,39,65,-7,-46,52,196,142,166,-101,-134,-139
-50,37,87,6,-68,62,153,73,112,-99,-117,-133
-42,39,81,1,-62,60,119,29,57,-100,-102,-125
-9,62,71,-27,-40,66,105,4,22,-101,-100,-121
-2,61,63,-30,-32,62,91,-4,-11,-98,-100,-123
-2,52,54,-25,-29,53,88,-19,-37,-113,-100,-134
5,51,46,-28,-21,49,91,-22,-46,-126,-100,-146
-9,44,53,-17,-32,48,89,-20,-45,-125,-100,-144
-25,42,67,-9,-46,54,90,-20,-46,-129,-112,-147
-25,35,61,-5,-43,47,95,-19,-45,-134,-116,-151
-24,35,59,-6,-42,47,101,-22,-41,-149,-114,-149
-19,35,54,-9,-37,44,108,-4,-39,-145,-116,-156
-17,34,52,-8,-35,42,109,-12,-36,-136,-114,-160
-10,36,46,-13,-29,41,101,-22,-34,-132,-116,-159
-48,-7,40,27,-44,16,99,4,-39,-123,-121,-166
-66,-14,53,40,-59,19,93,12,-46,-120,-120,-171
-28,23,51,2,-40,37,91,9,-45,-119,-113,-169
-25,16,40,4,-33,28,100,3,-44,-120,-110,-170
-27,11,38,8,-33,24,96,0,-61,-119,-105,-178
-20,7,27,6,-24,17,91,-6,-73,-121,-100,-180
-29,-2,27,15,-28,12,88,-7,-68,-119,-112,-175
-36,-3,33,20,-34,14,83,-25,-73,-132,-117,-173
-35,-16,19,25,-27,2,78,-27,-87,-146,-115,-169
-31,25,56,3,-44,40,86,4,-83,-135,-113,-165
-34,70,104,-18,-70,87,93,-11,-74,-128,-108,-157
-27,64,91,-18,-60,77,86,-35,-70,-117,-112,-156
30,119,89,-74,-30,103,88,-30,-44,-116,-87,-143
16,147,131,-82,-58,139,65,-28,-46,-113,-60,-125
-28,118,146,-45,-87,132,22,-53,-89,-119,-69,-125
5,153,148,-79,-72,150,5,-65,-104,-124,-64,-118
21,138,117,-80,-48,127,5,-63,-109,-117,-62,-119
34,101,67,-68,-17,84,-7,-94,-142,-158,-94,-108
17,79,62,-48,-23,70,6,-89,-147,-181,-117,-105
9,31,22,-20,-7,26,32,-75,-135,-175,-115,-153
-7,10,16,-2,-12,13,41,-74,-139,-201,-129,-177
-65,-49,16,57,-40,-16,70,-56,-121,-180,-130,-182
-69,-63,6,66,-37,-29,52,-67,-130,-181,-135,-183
-52,-58,-7,55,-22,-32,77,-34,-115,-168,-117,-171
-37,-30,7,33,-22,-12,87,10,-37,-85,-95,-172
-8,52,60,-22,-34,56,190,265,304,235,118,-88
120,246,126,-183,-3,186,51,146,389,905,745,218
294,743,450,-519,-78,596,-752,-763,-205,1633,1604,739
535,910,375,-723,80,642,-1387,-1212,-445,2298,2220,1109
616,491,-125,-553,370,183,-1564,-1299,-832,1326,1440,836
421,132,-289,-276,355,-79,-1345,-1341,-1495,-666,53,325
285,-80,-364,-102,325,-222,-870,-1022,-1406,-1177,-443,38
67,-139,-206,36,137,-173,-437,-682,-989,-978,-552,-160
-122,-95,28,108,-75,-33,-97,-324,-543,-682,-468,-248
-120,-103,17,111,-69,-42,42,-101,-264,-410,-325,-235
-81,-99,-18,90,-32,-58,116,-10,-160,-354,-277,-211
-68,-110,-42,90,-13,-76,157,57,-92,-288,-243,-207
-86,-118,-32,103,-27,-75,175,90,-58,-271,-250,-205
-86,-118,-33,102,-26,-75,177,82,-22,-235,-238,-199
-86,-117,-30,101,-28,-73,184,80,-48,-234,-238,-197
-82,-108,-26,96,-28,-67,209,146,-23,-224,-222,-193
-69,-107,-38,88,-15,-72,202,149,15,-207,-214,-190
-60,-100,-40,80,-10,-70,215,160,41,-196,-213,-190
-57,-97,-41,77,-8,-69,227,182,69,-183,-207,-188
-56,-92,-36,74,-10,-63,236,204,96,-175,-205,-184
-54,-90,-35,73,-10,-62,241,239,129,-149,-200,-186
-48,-83,-35,66,-6,-59,245,257,166,-124,-198,-180
-56,-98,-42,77,-7,-70,264,292,214,-97,-194,-182
-62,-122,-60,92,-1,-90,289,352,278,-70,-192,-196
-58,-116,-59,87,1,-88,309,394,338,-49,-188,-194
-59,-111,-53,85,-3,-82,322,423,374,-34,-185,-191
-55,-108,-52,82,-1,-80,339,461,410,-23,-190,-188
-58,-103,-45,81,-6,-73,334,452,404,-7,-189,-185
-52,-98,-45,76,-4,-71,321,432,386,-20,-193,-183
-65,-96,-31,81,-16,-64,314,411,365,-57,-196,-172
-70,-91,-21,80,-24,-56,286,366,311,-79,-191,-157
-66,-92,-26,79,-20,-59,248,305,250,-96,-188,-140
-74,-71,3,72,-38,-34,211,247,192,-94,-158,-123
-55,-26,30,40,-42,2,169,194,140,-81,-135,-98
-59,-12,47,35,-53,17,135,133,89,-73,-111,-77
-58,-7,51,33,-54,22,108,89,50,-80,-86,-64
-54,-4,50,29,-51,22,82,69,15,-86,-91,-56
-43,7,50,18,-47,28,64,54,-27,-85,-89,-53
-45,4,50,20,-48,27,57,44,-52,-94,-90,-50
-40,12,52,14,-46,31,56,40,-89,-123,-91,-47
-47,-24,23,35,-35,-1,51,36,-112,-146,-89,-43
-67,-47,20,56,-43,-13,48,30,-109,-150,-115,-60
-19,8,26,5,-22,17,43,27,-102,-155,-132,-63
-37,-22,15,29,-25,-4,40,21,-89,-151,-129,-44
-50,-34,16,42,-33,-9,57,21,-87,-147,-130,-44
-29,-22,7,25,-17,-7,61,37,-78,-143,-130,-44
-32,-25,7,28,-19,-9,59,41,-69,-140,-129,-49
-44,-17,27,30,-35,5,60,55,-63,-133,-121,-44
-43,-15,28,29,-35,6,60,59,-70,-114,-89,-23
-29,-11,18,20,-23,3,59,50,-78,-114,-81,-20
-44,-30,14,37,-29,-8,53,47,-71,-131,-119,-20
-32,-28,4,30,-18,-12,46,39,-72,-136,-124,-16
-26,-23,2,25,-14,-10,39,35,-68,-134,-114,-15
-30,-18,12,24,-21,-3,32,30,-78,-135,-111,-15
-28,-16,12,22,-19,-2,25,30,-99,-135,-105,-10
-7,-8,-1,7,-3,-5,31,30,-100,-135,-101,-3
-20,-9,11,14,-15,1,36,30,-105,-131,-97,3
-34,-5,29,19,-31,11,36,31,-104,-125,-91,11
-30,18,48,5,-39,33,34,30,-89,-122,-88,16
-44,26,70,9,-57,48,38,31,-81,-115,-78,26
12,77,65,-45,-27,71,46,30,-78,-102,-58,45
23,106,83,-65,-31,95,17,31,-70,-87,-53,58
-1,84,84,-42,-43,84,-17,0,-97,-110,-67,52
23,117,94,-70,-36,105,-45,-39,-146,-139,-75,72
38,127,89,-83,-26,108,-47,-32,-135,-131,-61,96
17,60,43,-38,-13,51,-38,-31,-147,-148,-74,85
3,38,35,-21,-16,37,-28,-26,-157,-164,-91,74
-21,-16,5,18,-13,-6,-16,-21,-151,-167,-103,50
-42,-64,-22,54,-10,-43,-13,-22,-162,-196,-134,41
-27,-63,-36,45,4,-49,5,-16,-144,-179,-128,47
-66,-111,-45,89,-11,-78,-8,-36,-182,-181,-128,43
-70,-118,-48,95,-11,-83,45,20,-132,-164,-107,46
-58,-75,-16,67,-21,-45,47,70,-33,-71,-76,43
-21,0,21,10,-21,10,150,270,260,200,102,113
120,203,83,-162,18,143,15,120,283,775,679,425
271,700,429,-486,-80,565,-792,-777,-383,1392,1502,950
497,892,395,-694,50,644,-1416,-1214,-626,2063,2128,1309
594,470,-125,-532,359,173,-1563,-1213,-853,1443,1560,1083
435,110,-324,-272,379,-107,-1343,-1213,-1395,-387,260,585
258,-136,-393,-61,326,-265,-904,-950,-1364,-1083,-351,273
40,-199,-238,80,139,-218,-476,-609,-970,-936,-499,83
-88,-122,-33,105,-27,-77,-137,-262,-537,-654,-446,8
-88,-142,-53,115,-17,-97,-3,-57,-264,-403,-311,2
-96,-132,-36,114,-29,-84,69,30,-167,-337,-274,3
-68,-136,-67,102,0,-101,115,100,-111,-260,-233,12
-65,-136,-70,101,3,-103,124,115,-78,-253,-221,13
-74,-134,-59,104,-7,-96,141,137,-34,-226,-206,24
-74,-136,-62,105,-6,-99,156,165,-15,-215,-197,22
-79,-129,-51,104,-14,-90,158,175,0,-204,-191,25
-77,-130,-52,104,-13,-91,160,186,28,-190,-188,36
-68,-125,-56,97,-5,-90,159,196,45,-185,-200,33
-50,-122,-72,87,11,-97,178,221,81,-170,-202,30
-57,-120,-63,89,3,-91,184,259,108,-164,-193,27
-58,-119,-61,89,1,-89,185,269,131,-150,-185,25
-56,-124,-68,91,6,-96,213,291,182,-135,-178,22
-67,-141,-74,104,3,-107,228,325,224,-108,-171,19
-65,-140,-75,103,5,-107,255,371,283,-76,-165,19
-72,-140,-68,106,-2,-104,278,430,347,-45,-158,20
-62,-140,-78,102,8,-109,291,464,389,-34,-151,19
-51,-136,-85,94,17,-110,304,473,412,-34,-144,21
-63,-140,-77,102,7,-108,306,477,413,-36,-138,26
-53,-124,-71,89,9,-97,298,470,399,-32,-147,25
-41,-105,-65,73,12,-85,282,442,366,-47,-163,25
-44,-98,-54,71,6,-76,262,391,321,-83,-154,24
-52,-76,-25,64,-13,-50,225,345,282,-86,-139,40
-50,-54,-5,52,-22,-29,184,285,215,-82,-127,66
-41,-30,11,36,-26,-9,148,220,159,-81,-118,79
-66,-22,45,44,-55,11,110,189,124,-79,-95,92
-59,-10,49,34,-54,19,71,115,50,-81,-68,103
-46,-10,37,28,-41,13,38,67,2,-80,-63,109
-81,-50,31,66,-56,-10,29,62,-25,-79,-60,111
-59,-41,18,49,-39,-11,28,52,-41,-87,-57,109
-38,-20,18,29,-28,-1,24,50,-52,-103,-52,105
-55,-24,31,40,-43,3,22,42,-62,-117,-50,105
-47,-22,25,34,-36,1,19,37,-56,-119,-56,104
-46,-26,20,36,-32,-3,17,38,-49,-115,-55,98
-36,-18,18,27,-27,0,13,53,-42,-111,-54,92
-25,-18,7,21,-16,-5,18,54,-37,-108,-56,87
-35,-11,24,23,-29,7,31,65,-29,-103,-54,81
-31,-11,20,21,-26,4,32,83,-34,-101,-56,75
-53,-26,27,39,-40,0,28,75,-12,-113,-65,87
-75,-22,53,48,-63,15,26,69,5,-111,-63,97
-68,-34,34,51,-50,0,22,63,-12,-104,-59,94
-47,-24,23,35,-35,-1,20,55,-9,-100,-56,95
-20,0,20,10,-20,9,17,51,-10,-94,-51,95
-28,-8,20,18,-23,5,14,54,-15,-88,-50,95
-29,-9,20,19,-25,6,15,55,-18,-90,-50,99
-34,-14,20,24,-27,2,11,56,-23,-102,-59,100
-36,-17,19,27,-27,1,10,60,-25,-99,-58,100
-36,-21,15,29,-26,-3,11,61,-27,-95,-51,104
-23,3,26,10,-24,14,10,58,-23,-94,-46,104
-19,46,65,-14,-42,55,11,50,-14,-88,-37,108
-27,62,89,-18,-58,75,8,41,-11,-90,-31,116
-19,63,82,-22,-51,72,18,33,2,-80,-20,115
-44,50,94,-4,-69,72,2,26,-21,-84,-24,114
-2,97,99,-47,-51,98,-37,16,-49,-110,-31,125
33,156,123,-95,-45,139,-55,5,-32,-117,-15,144
18,129,111,-74,-46,119,-64,-22,-54,-113,-6,147
20,66,46,-43,-13,56,-71,-45,-94,-119,-29,138
-7,37,44,-15,-25,40,-54,-27,-85,-145,-57,122
-7,3,10,2,-9,7,-42,-17,-81,-141,-65,83
-35,-49,-14,42,-10,-31,-31,-14,-80,-154,-74,48
-55,-60,-5,57,-25,-32,-11,-1,-71,-153,-68,49
-39,-65,-26,52,-6,-45,-33,-8,-111,-179,-99,41
-87,-113,-26,100,-30,-69,5,16,-77,-181,-103,38
-82,-82,0,82,-41,-41,17,57,27,-67,-57,36
-31,5,36,12,-33,20,129,269,316,178,108,92
85,195,110,-140,-13,152,-35,84,324,752,661,390
258,699,441,-479,-92,570,-873,-833,-347,1386,1468,905
497,903,405,-700,46,654,-1529,-1283,-551,2137,2157,1301
624,481,-143,-552,383,169,-1683,-1237,-692,1631,1692,1105
473,100,-373,-286,423,-136,-1422,-1187,-1272,-265,380,601
308,-129,-438,-89,373,-283,-946,-912,-1253,-984,-237,284
59,-212,-271,77,165,-241,-506,-587,-879,-880,-422,64
-130,-174,-44,152,-42,-109,-184,-303,-510,-690,-441,-61
-112,-181,-70,146,-21,-125,-33,-77,-207,-396,-278,-74
-82,-136,-53,109,-14,-94,56,41,-83,-320,-216,-48
-65,-135,-70,100,3,-103,88,94,-3,-250,-186,-44
-73,-149,-76,111,2,-113,118,122,32,-221,-185,-46
-78,-142,-63,110,-7,-102,134,138,56,-195,-175,-40
-79,-147,-68,114,-5,-108,145,151,74,-188,-170,-40
-89,-144,-54,117,-17,-99,154,192,110,-184,-171,-40
-86,-145,-59,116,-13,-102,147,204,124,-174,-169,-45
-72,-139,-66,106,-3,-102,157,191,126,-166,-171,-45
-56,-128,-72,92,8,-100,178,238,188,-135,-169,-47
-61,-129,-69,95,4,-99,182,255,210,-120,-170,-51
-84,-155,-71,119,-6,-113,199,268,234,-108,-165,-61
-75,-145,-69,110,-3,-107,224,319,295,-87,-149,-56
-78,-150,-72,114,-3,-111,226,354,343,-69,-147,-61
-72,-159,-87,116,7,-123,267,411,418,-46,-143,-77
-59,-133,-73,96,7,-103,298,463,476,-1,-133,-71
-44,-128,-83,86,20,-105,306,506,528,30,-136,-69
-8,-123,-115,66,54,-119,315,514,547,33,-135,-65
-15,-118,-103,67,44,-110,305,499,531,23,-138,-61
-18,-114,-96,66,39,-105,299,496,530,20,-141,-58
-26,-110,-83,68,28,-96,288,468,498,1,-139,-51
-53,-99,-45,76,-4,-72,275,446,467,-22,-133,-46
-37,-77,-41,57,2,-59,243,385,407,-42,-125,-40
-24,-64,-40,44,8,-52,191,302,331,-54,-114,-28
-45,-54,-9,50,-17,-32,153,252,278,-36,-92,-7
-26,-17,9,21,-17,-4,122,189,213,-34,-62,11
6,21,15,-14,-5,18,93,139,169,-40,-33,28
-13,13,26,0,-20,19,54,104,130,-42,-29,31
-25,2,28,11,-27,15,25,71,88,-46,-31,26
-28,-7,21,17,-24,7,22,61,71,-42,-29,24
-35,-21,14,27,-24,-3,16,47,62,-62,-38,21
-41,-29,11,35,-26,-9,13,30,61,-78,-46,19
-60,-55,5,57,-32,-25,7,48,56,-74,-57,15
-71,-68,3,69,-37,-32,5,70,52,-75,-61,15
-55,-63,-8,59,-23,-35,21,56,50,-78,-59,14
-39,-68,-28,54,-5,-48,18,46,43,-81,-60,9
-41,-72,-31,57,-5,-51,37,74,75,-76,-60,11
-33,-62,-29,47,-1,-45,58,90,99,-73,-59,8
-19,-50,-31,34,6,-40,53,77,98,-70,-55,4
-14,-43,-29,29,8,-36,64,72,109,-66,-50,5
-22,-53,-31,38,4,-42,60,65,105,-62,-45,5
-29,-63,-34,47,3,-49,52,55,97,-60,-42,6
-31,-67,-35,49,2,-51,46,68,91,-57,-35,4
-28,-62,-35,45,4,-49,40,76,83,-54,-44,1
-33,-68,-35,51,1,-51,39,58,71,-51,-51,-2
-54,-89,-35,72,-9,-62,35,55,73,-49,-45,-5
-48,-83,-35,66,-6,-59,33,60,82,-61,-43,-7
-31,-73,-42,52,6,-57,30,51,75,-64,-39,-11
-24,-60,-36,42,6,-48,30,49,73,-54,-35,-7
-32,-35,-3,33,-14,-19,31,42,69,-49,-32,5
-28,-5,23,16,-26,9,29,34,63,-40,-24,18
-22,15,37,3,-30,26,34,55,85,-36,-20,25
-8,30,38,-11,-23,33,30,59,96,-33,-14,26
14,62,48,-38,-17,54,2,39,85,-29,-7,39
-20,57,77,-19,-48,67,-32,4,83,-36,-5,44
-10,88,98,-40,-54,93,-57,6,74,-22,30,55
75,85,11,-80,32,48,-48,23,70,-27,25,69
35,-11,-46,-12,41,-28,-40,-19,48,-74,-18,55
-32,-21,11,27,-22,-5,-21,-13,37,-90,-28,38
-32,-50,-18,41,-7,-34,-21,-15,27,-96,-46,1
-54,-110,-55,82,1,-82,-9,3,23,-113,-63,-26
-35,-114,-79,75,22,-96,-3,8,25,-96,-62,-30
-20,-103,-83,62,32,-93,-3,-9,4,-115,-67,-42
-45,-116,-70,80,13,-92,43,48,53,-77,-56,-28
-62,-107,-45,85,-8,-75,50,104,174,8,-34,-36
5,-7,-12,1,8,-9,178,326,505,360,221,57
175,284,108,-230,33,196,-227,-115,306,1000,864,425
361,795,434,-578,-37,614,-1177,-1080,-344,1715,1711,959
614,835,220,-724,197,527,-1699,-1277,-360,2329,2176,1225
658,363,-295,-510,477,34,-1733,-1249,-688,1209,1336,893
467,54,-413,-261,440,-179,-1329,-1148,-1224,-572,142,431
297,-168,-465,-64,381,-316,-809,-815,-1058,-917,-283,145
12,-246,-258,117,136,-252,-400,-531,-699,-792,-420,-59
-157,-206,-48,182,-54,-127,-112,-222,-325,-532,-356,-136
-118,-198,-80,159,-19,-139,16,-35,-74,-310,-236,-147
-69,-157,-88,114,9,-122,99,57,34,-248,-198,-144
-52,-154,-103,103,26,-128,126,100,92,-171,-163,-145
-57,-153,-96,105,20,-125,153,135,124,-159,-157,-145
-53,-164,-111,108,29,-137,170,164,168,-134,-152,-146
-87,-174,-87,130,0,-130,166,178,180,-140,-157,-139
-85,-167,-82,127,-2,-125,196,186,233,-129,-154,-141
-51,-171,-120,112,34,-145,208,161,256,-125,-155,-169
-60,-172,-112,116,26,-142,203,195,250,-121,-155,-172
-52,-163,-110,107,29,-136,207,224,258,-102,-154,-179
-67,-175,-109,121,21,-141,219,249,288,-84,-161,-190
-91,-194,-102,143,6,-147,240,286,331,-68,-166,-186
-74,-189,-115,132,20,-151,258,322,371,-59,-162,-204
-69,-190,-121,130,26,-156,283,383,434,-35,-160,-225
-77,-191,-114,134,18,-152,305,429,493,-8,-157,-231
-50,-189,-139,120,44,-164,329,455,532,6,-155,-249
-41,-185,-144,113,52,-165,341,497,577,22,-152,-265
-39,-181,-142,110,51,-161,333,524,602,26,-142,-263
-14,-175,-161,94,74,-168,330,509,583,16,-143,-259
-38,-186,-149,112,56,-167,322,494,563,-1,-159,-256
-34,-168,-134,101,50,-150,319,466,540,-23,-161,-251
-25,-133,-108,79,42,-120,304,422,497,-30,-155,-249
-42,-125,-83,84,21,-104,254,356,432,-37,-156,-240
-23,-100,-76,62,27,-88,209,298,378,-34,-123,-230
-13,-80,-66,47,27,-73,170,242,337,-20,-77,-220
-12,-75,-63,44,26,-69,130,171,270,-10,-62,-210
-10,-66,-57,38,24,-61,89,119,208,-1,-48,-204
-10,-62,-52,36,21,-57,54,93,162,8,-40,-201
-8,-53,-45,31,19,-49,48,69,128,14,-40,-197
-9,-50,-41,30,16,-45,45,30,115,3,-37,-194
-22,-84,-62,53,20,-73,41,23,113,-10,-34,-189
-32,-102,-70,67,19,-86,37,28,110,-13,-39,-193
-31,-92,-61,61,16,-76,34,24,107,-26,-64,-214
-26,-89,-63,58,19,-76,44,40,105,-42,-64,-214
-17,-81,-64,49,24,-73,48,60,102,-55,-70,-218
-7,-83,-76,45,35,-79,51,66,98,-60,-86,-248
-5,-85,-80,45,39,-82,54,58,92,-52,-80,-249
-12,-85,-73,49,31,-79,55,58,89,-46,-75,-241
-15,-88,-73,51,29,-81,48,50,83,-39,-69,-239
-26,-91,-66,59,20,-78,47,53,81,-32,-64,-233
-21,-88,-67,55,23,-77,64,70,84,-34,-60,-229
-17,-96,-79,56,31,-87,60,57,75,-51,-78,-228
-25,-103,-79,64,27,-91,52,40,67,-53,-85,-230
-6,-79,-73,43,34,-76,46,31,57,-38,-64,-230
-13,-85,-72,49,29,-78,39,24,48,-41,-67,-228
-39,-105,-66,72,13,-85,35,16,34,-47,-70,-224
-23,-88,-66,56,22,-77,31,11,18,-46,-66,-226
4,-81,-85,39,45,-83,29,0,12,-46,-60,-221
4,-59,-63,28,34,-61,22,19,25,-43,-54,-215
20,-5,-25,-7,22,-14,23,63,49,-40,-50,-207
3,-18,-21,8,13,-19,15,55,44,-39,-45,-201
-7,-11,-4,9,-1,-7,31,39,32,-24,-43,-208
49,61,12,-55,18,36,22,15,23,1,-38,-193
50,55,5,-52,22,29,-31,-14,9,-1,-35,-176
48,79,30,-64,9,54,-52,-35,-5,-13,-31,-170
64,82,17,-73,23,49,-51,-41,-20,-26,-31,-170
64,-9,-72,-27,68,-40,-44,-31,-43,-51,-28,-170
58,-45,-103,-7,81,-74,-27,-27,-55,-65,-36,-170
29,-69,-98,20,64,-84,-18,-3,-43,-62,-61,-196
5,-95,-100,45,53,-98,-25,-23,-61,-88,-84,-222
-32,-135,-102,84,35,-118,-13,-41,-75,-107,-92,-229
-50,-164,-114,108,32,-139,-22,-44,-88,-116,-98,-227
-40,-160,-120,100,40,-140,35,-4,-47,-80,-85,-219
-26,-117,-91,72,32,-104,39,43,38,8,-56,-200
-7,-42,-35,25,14,-38,133,283,359,295,141,-135
111,154,43,-132,34,99,34,210,483,957,740,161
321,657,337,-489,-8,497,-763,-685,-100,1675,1605,714
549,846,297,-698,126,571,-1423,-1164,-361,2352,2247,1069
637,444,-193,-540,415,125,-1611,-1234,-705,1534,1563,823
474,74,-401,-274,437,-163,-1409,-1300,-1384,-457,178,331
295,-166,-461,-64,378,-314,-942,-1000,-1339,-1079,-387,9
53,-252,-305,99,179,-278,-508,-645,-920,-888,-501,-182
-110,-192,-82,151,-14,-136,-159,-296,-487,-598,-418,-259
-93,-190,-97,142,2,-143,-24,-67,-201,-323,-282,-256
-80,-189,-109,134,15,-148,35,29,-94,-261,-245,-236
-58,-183,-125,121,34,-154,105,87,-30,-180,-195,-234
-67,-183,-116,125,25,-149,125,119,14,-179,-188,-236
-52,-178,-127,115,38,-152,126,154,65,-160,-176,-233
-40,-183,-144,112,52,-163,132,134,56,-137,-182,-236
-63,-195,-133,129,35,-164,138,146,77,-133,-180,-233
-63,-198,-135,131,36,-166,152,163,93,-129,-180,-228
-53,-180,-127,116,38,-153,160,176,116,-108,-178,-222
-46,-172,-125,109,40,-148,172,215,145,-92,-167,-218
-44,-169,-125,107,41,-147,175,226,156,-81,-158,-211
-38,-170,-132,105,47,-151,195,270,218,-52,-149,-207
-35,-169,-134,102,50,-152,213,301,248,-25,-151,-200
-50,-173,-123,112,36,-147,217,320,282,4,-147,-196
-60,-185,-125,123,33,-155,244,368,341,9,-145,-211
-50,-188,-139,119,45,-163,269,416,398,36,-148,-214
-40,-192,-152,116,56,-172,295,471,455,76,-150,-206
-37,-199,-162,118,63,-181,301,482,467,77,-150,-201
-40,-192,-153,116,57,-173,296,474,468,70,-150,-192
-42,-186,-144,114,52,-165,283,465,444,55,-150,-184
-40,-178,-139,109,50,-158,267,434,408,42,-150,-176
-30,-157,-127,94,49,-142,248,399,382,29,-156,-168
-19,-135,-116,78,49,-125,218,346,322,18,-149,-161
-31,-110,-78,71,24,-94,187,281,257,16,-120,-141
-44,-95,-51,70,4,-73,139,240,215,4,-92,-108
-22,-68,-46,46,12,-57,91,188,158,17,-73,-81
-21,-63,-42,42,11,-52,59,129,98,30,-59,-67
-53,-93,-39,73,-7,-66,42,87,47,19,-48,-62
-58,-78,-20,68,-18,-49,36,80,22,12,-49,-59
-35,-72,-38,54,2,-55,29,76,15,4,-51,-56
-20,-80,-60,51,20,-70,21,48,-27,-3,-53,-51
-30,-79,-50,55,10,-64,13,45,-52,-23,-57,-51
-29,-80,-51,54,11,-66,13,44,-44,-40,-52,-57
-38,-84,-46,61,4,-64,15,41,-38,-51,-67,-66
-41,-85,-44,64,2,-65,16,38,-31,-60,-81,-67
-27,-85,-58,56,16,-71,21,45,-24,-55,-73,-57
-25,-85,-59,55,18,-72,22,56,-19,-51,-69,-50
-30,-85,-54,58,12,-70,19,72,-11,-47,-63,-42
-53,-105,-52,79,0,-79,19,80,-5,-42,-56,-36
-29,-76,-47,53,9,-61,31,67,3,-37,-61,-35
-3,-48,-45,26,21,-46,31,89,20,-29,-65,-35
-30,-74,-44,52,8,-59,17,89,13,-28,-61,-36
-27,-77,-51,52,12,-64,13,65,-2,-23,-57,-33
-24,-81,-57,53,17,-68,19,62,-28,-20,-54,-40
-36,-87,-51,62,8,-69,20,59,-48,-16,-50,-47
-30,-81,-51,55,11,-65,14,61,-46,-13,-50,-33
-56,-101,-45,79,-5,-73,13,60,-60,-38,-59,-23
-46,-93,-47,70,1,-70,8,61,-63,-44,-58,-13
-22,-52,-30,38,4,-41,4,58,-57,-33,-50,-5
-40,-33,7,37,-24,-13,14,51,-51,-27,-45,3
-21,-6,16,13,-18,5,14,44,-46,-22,-39,25
-4,16,20,-6,-12,18,1,38,-44,-16,-34,41
12,39,27,-26,-8,32,-19,30,-46,-18,-27,44
0,53,53,-27,-27,53,-45,15,-62,-19,-23,46
10,86,76,-48,-33,80,-71,-11,-74,-12,-20,65
31,68,36,-50,-3,52,-80,-23,-87,-37,-32,66
28,15,-14,-21,21,1,-74,-27,-92,-39,-28,60
1,-5,-5,2,3,-5,-50,-9,-91,-50,-37,36
-47,-71,-25,59,-11,-48,-42,-6,-130,-85,-84,-2
-39,-89,-50,65,6,-69,-35,8,-137,-94,-100,6
-23,-87,-63,55,20,-75,-27,19,-121,-89,-90,14
-25,-107,-82,66,28,-94,-28,-12,-132,-113,-99,8
-49,-114,-64,82,8,-89,27,33,-83,-82,-92,10
-27,-79,-52,53,12,-65,32,107,31,22,-50,16
15,-7,-21,-4,18,-14,140,339,359,373,210,118
132,254,123,-194,4,188,-136,24,234,973,838,470
322,772,450,-547,-65,611,-992,-908,-426,1616,1677,1016
524,807,284,-666,120,545,-1520,-1194,-565,2207,2170,1295
563,351,-212,-457,387,69,-1589,-1201,-900,1198,1344,969
395,38,-357,-216,376,-160,-1303,-1172,-1407,-581,107,490
230,-170,-399,-30,315,-284,-844,-857,-1246,-984,-348,214
4,-211,-215,103,110,-213,-433,-539,-857,-825,-480,25
-70,-152,-83,111,7,-117,-135,-216,-458,-539,-385,-52
-37,-157,-120,97,42,-138,-25,-25,-210,-303,-254,-31
-44,-146,-101,95,28,-123,43,61,-114,-257,-215,-11
-33,-147,-113,90,40,-130,81,110,-61,-185,-184,-28
-70,-164,-94,117,12,-129,103,129,-29,-165,-181,-37
-72,-161,-89,117,9,-124,122,155,18,-149,-165,-27
-67,-157,-90,112,12,-123,119,148,27,-142,-168,-24
-76,-165,-89,120,7,-126,133,179,59,-123,-161,-16
-67,-160,-93,114,13,-126,140,196,80,-119,-159,-8
-61,-155,-93,109,16,-124,145,192,92,-114,-155,-21
-50,-147,-97,99,23,-121,158,223,125,-98,-151,-27
-57,-149,-92,103,18,-120,166,246,152,-78,-150,-24
-58,-148,-90,103,16,-119,179,276,196,-59,-146,-24
-69,-159,-90,114,10,-125,193,300,235,-48,-144,-19
-90,-177,-87,134,-2,-132,215,361,300,-28,-141,-21
-73,-157,-85,115,6,-121,233,424,367,2,-138,-18
-80,-166,-86,124,3,-126,255,430,402,27,-135,-15
-77,-173,-96,125,10,-134,279,477,458,62,-135,-15
-50,-160,-110,105,30,-135,279,508,473,68,-135,-15
-52,-157,-105,105,26,-131,270,491,452,44,-135,-15
-64,-163,-99,114,18,-131,260,474,451,42,-135,-16
-64,-156,-92,110,14,-123,248,430,413,21,-135,-16
-66,-120,-55,93,-5,-87,227,399,365,-9,-134,-4
-71,-94,-23,83,-24,-58,191,368,330,-16,-125,7
-64,-71,-7,68,-28,-38,150,283,253,-15,-112,21
-57,-57,0,57,-28,-29,110,209,190,-15,-92,41
-61,-41,20,51,-40,-10,78,171,149,-11,-54,57
-81,-39,42,60,-61,2,53,121,95,-8,-37,72
-73,-38,34,55,-53,-2,14,79,47,-15,-41,76
-68,-42,27,55,-48,-7,-14,63,12,-13,-41,73
-61,-39,22,50,-42,-8,-16,60,-7,-34,-47,70
-51,-38,12,44,-31,-13,-14,60,-24,-57,-44,65
-82,-69,13,76,-48,-28,-20,60,-35,-64,-58,63
-61,-32,29,46,-45,-1,-20,60,-33,-75,-63,58
-54,-23,31,39,-42,4,5,60,-27,-67,-47,55
-83,-58,25,70,-54,-16,12,60,-21,-61,-45,55
-76,-52,24,64,-49,-14,-2,60,-17,-55,-42,55
-72,-54,17,63,-44,-18,-1,60,-10,-47,-39,55
-51,-35,16,42,-33,-9,5,60,-1,-43,-36,55
-42,-28,14,35,-28,-7,9,59,13,-37,-34,56
-57,-41,16,49,-37,-12,14,72,19,-33,-31,54
-45,-33,13,39,-29,-10,19,75,18,-29,-30,48
-71,-49,22,60,-47,-13,18,68,33,-23,-29,42
-87,-62,25,74,-56,-18,12,69,34,-20,-25,38
-77,-59,18,68,-47,-21,7,60,27,-25,-24,30
-101,-60,40,80,-70,-10,4,62,26,-27,-29,27
-73,-60,14,67,-44,-23,-2,52,15,-36,-41,36
-50,-62,-11,56,-20,-36,-4,51,5,-43,-41,42
-61,-47,14,54,-37,-17,-6,37,-8,-37,-40,39
-55,-20,35,37,-45,7,8,19,-13,-36,-40,40
-54,18,72,18,-63,45,25,40,-1,-30,-30,57
-63,11,74,25,-69,42,24,26,4,-31,-25,51
-22,51,73,-15,-48,62,27,45,31,-24,-3,64
23,120,97,-72,-37,108,-18,30,25,-20,17,88
0,100,100,-50,-50,100,-58,-22,-21,-35,15,77
-24,107,131,-42,-77,118,-67,-23,-31,-24,14,75
-13,81,93,-34,-53,87,-71,-37,-34,-29,6,67
28,35,7,-32,10,21,-66,-45,-61,-54,-1,63
0,13,13,-6,-7,13,-49,-32,-67,-72,-20,53
-74,-63,11,69,-42,-26,-46,-36,-72,-93,-58,16
-58,-79,-21,68,-18,-50,-34,-20,-69,-106,-74,-7
-57,-96,-38,77,-10,-67,-28,-18,-72,-98,-70,-20
-106,-144,-38,125,-34,-91,-31,-15,-80,-114,-87,-28
-71,-119,-48,95,-11,-83,19,41,-22,-72,-65,-9
-65,-71,-6,68,-29,-38,48,106,112,32,-19,-1
-23,13,35,5,-29,24,147,312,422,409,260,109
128,309,181,-219,-27,245,-277,-167,158,1022,916,483
309,809,500,-559,-96,654,-1177,-1114,-487,1708,1753,1018
565,804,239,-685,163,521,-1643,-1277,-518,2242,2160,1235
579,330,-249,-454,414,40,-1668,-1255,-883,1031,1232,869
405,28,-378,-216,391,-175,-1291,-1172,-1346,-661,72,413
208,-196,-404,-6,307,-300,-787,-824,-1129,-917,-311,138
-54,-222,-168,138,57,-194,-388,-524,-758,-783,-443,-51
-116,-144,-28,130,-43,-86,-107,-220,-365,-507,-351,-124
-101,-158,-57,129,-22,-107,8,-53,-147,-294,-247,-115
-114,-143,-29,129,-42,-86,80,40,-60,-237,-202,-107
-104,-144,-40,124,-32,-92,110,95,4,-167,-168,-111
-116,-138,-21,127,-47,-80,123,108,27,-162,-176,-110
-99,-134,-35,117,-31,-84,141,139,67,-130,-161,-109
-91,-143,-52,117,-20,-97,144,140,74,-131,-164,-111
-91,-139,-48,115,-21,-94,165,174,119,-116,-155,-107
-97,-148,-52,122,-22,-99,181,173,127,-123,-153,-106
-106,-154,-48,130,-28,-101,182,178,137,-123,-155,-115
-83,-134,-51,108,-15,-92,184,213,185,-93,-151,-113
-89,-138,-49,114,-20,-94,190,231,209,-82,-147,-126
-98,-148,-50,123,-24,-99,215,268,250,-52,-142,-137
-81,-132,-51,106,-15,-91,236,301,293,-21,-138,-129
-80,-128,-49,104,-15,-88,254,352,353,-13,-133,-129
-76,-145,-70,111,-3,-107,268,391,406,7,-131,-124
-73,-152,-79,113,3,-115,302,450,467,44,-131,-119
-82,-149,-68,116,-7,-108,327,486,512,62,-127,-127
-87,-150,-63,119,-12,-107,317,486,509,65,-125,-131
-96,-150,-54,123,-21,-102,308,489,511,61,-124,-130
-103,-150,-46,127,-28,-98,297,453,482,36,-129,-127
-97,-134,-37,116,-29,-86,284,438,437,13,-136,-124
-81,-109,-28,95,-26,-68,259,403,387,-6,-139,-126
-64,-70,-6,67,-29,-37,226,340,340,-20,-130,-118
-65,-42,22,53,-43,-10,190,264,287,-21,-106,-97
-66,-30,36,48,-51,3,150,211,219,-18,-88,-69
-67,-18,49,42,-58,15,116,161,171,-15,-66,-65
-62,-12,50,37,-56,19,80,84,112,-14,-53,-72
-54,-8,45,31,-49,18,45,61,47,-7,-55,-69
-48,-4,44,26,-45,20,14,33,4,-19,-55,-71
-38,1,40,19,-39,21,-1,8,-11,-35,-59,-69
-60,-21,39,41,-49,9,0,11,-23,-34,-61,-71
-80,-46,34,62,-57,-6,2,-3,-41,-48,-59,-87
-71,-40,31,56,-51,-5,11,2,-39,-51,-60,-91
-62,-34,28,47,-44,-3,19,19,-36,-49,-59,-89
-55,-32,23,43,-38,-4,25,20,-34,-50,-60,-91
-41,-20,20,30,-30,0,25,21,-30,-51,-59,-89
-48,-25,23,36,-36,-1,25,20,-29,-64,-60,-91
-70,-33,37,51,-53,2,40,35,-23,-59,-58,-98
-82,-36,46,59,-63,5,45,41,-16,-46,-53,-100
-70,-30,40,50,-55,5,38,38,-14,-40,-57,-101
-63,-25,38,44,-50,6,35,42,-2,-31,-51,-97
-88,-54,34,70,-60,-10,30,-5,-29,-49,-67,-117
-46,-17,29,31,-38,6,25,-12,-62,-55,-76,-130
-19,9,28,4,-24,18,30,19,-59,-33,-52,-111
-31,-16,15,23,-23,0,32,11,-61,-30,-50,-109
-46,-22,24,34,-35,1,30,9,-58,-30,-51,-105
-59,-26,33,42,-45,3,30,5,-76,-45,-56,-102
-33,-11,22,22,-28,5,26,-2,-81,-42,-53,-98
-35,35,70,0,-53,52,25,11,-62,-17,-45,-95
-46,62,108,-9,-77,85,25,-3,-57,-12,-41,-100
-34,63,97,-15,-66,80,15,-26,-50,3,-34,-98
-23,75,98,-27,-61,87,4,-9,-56,5,-31,-90
-3,80,83,-38,-43,81,-3,-19,-72,-29,-27,-86
38,138,100,-88,-31,118,-37,-53,-87,-35,-25,-90
33,155,122,-94,-44,138,-51,-67,-84,-24,-20,-90
18,94,76,-56,-29,85,-35,-61,-96,-34,-20,-91
8,63,55,-36,-24,59,-37,-62,-138,-67,-28,-89
-30,15,44,7,-37,30,-18,-65,-132,-75,-45,-114
-59,-39,20,49,-39,-10,-12,-84,-136,-83,-70,-142
-83,-75,8,79,-45,-33,4,-63,-128,-90,-76,-152
-57,-69,-11,64,-23,-40,-2,-57,-128,-76,-91,-173
-61,-86,-25,74,-17,-55,12,-62,-138,-106,-102,-185
-92,-116,-24,104,-34,-70,30,-27,-88,-53,-70,-201
-51,-21,31,36,-41,5,70,109,102,98,-4,-176
54,86,32,-70,11,59,156,303,449,604,386,-2
203,442,239,-323,-18,340,-443,-336,123,1329,1131,413
436,933,498,-685,-31,715,-1333,-1162,-337,2185,2012,950
660,767,107,-713,276,436,-1734,-1270,-399,2360,2108,1032
587,311,-276,-449,432,17,-1685,-1334,-1062,531,828,570
416,58,-359,-237,388,-150,-1216,-1194,-1484,-952,-191,163
195,-152,-347,-21,271,-249,-724,-844,-1180,-950,-415,-81
-59,-159,-100,109,21,-129,-326,-523,-785,-763,-474,-255
-116,-111,4,113,-60,-53,-84,-231,-408,-458,-373,-305
-111,-126,-15,119,-48,-70,23,-86,-228,-301,-293,-306
-68,-116,-48,92,-10,-82,96,7,-140,-223,-236,-304
-50,-121,-72,86,11,-96,117,47,-77,-177,-218,-301
-67,-127,-60,97,-3,-93,144,71,-46,-173,-215,-300
-72,-137,-65,105,-3,-101,146,91,-13,-147,-205,-299
-77,-134,-58,106,-9,-95,152,99,-2,-147,-207,-294
-79,-135,-56,108,-11,-95,170,129,29,-125,-200,-296
-78,-135,-57,107,-10,-96,176,146,57,-123,-200,-294
-56,-134,-79,95,12,-106,178,158,77,-110,-195,-300
-54,-135,-81,95,14,-108,190,180,100,-104,-194,-318
-56,-135,-79,95,12,-106,204,202,131,-87,-191,-321
-54,-135,-81,95,14,-107,217,244,183,-52,-188,-319
-56,-135,-80,95,13,-107,240,276,224,-42,-186,-321
-54,-135,-80,95,14,-107,257,322,280,-22,-182,-319
-47,-137,-90,92,22,-113,275,365,339,5,-181,-322
-42,-152,-110,97,34,-130,304,407,389,21,-182,-330
-44,-151,-107,98,32,-129,314,443,426,30,-187,-325
-40,-141,-102,91,31,-121,309,440,420,23,-183,-317
-39,-137,-98,88,30,-117,300,446,404,15,-188,-312
-30,-123,-93,76,32,-107,296,431,403,10,-198,-303
-14,-102,-88,58,37,-95,282,381,374,-1,-195,-302
-5,-83,-78,44,37,-80,247,331,326,-27,-187,-294
-6,-73,-67,39,31,-69,202,303,301,-28,-156,-280
-9,-62,-53,36,23,-58,158,216,211,-24,-132,-264
-27,-52,-25,39,-1,-38,138,140,134,-22,-113,-234
-40,-36,3,38,-21,-16,98,108,102,5,-90,-219
-18,-22,-4,20,-6,-13,54,48,52,-6,-90,-217
-25,-27,-3,26,-11,-15,46,26,28,-11,-78,-213
-45,-32,12,38,-28,-10,39,2,-12,-5,-76,-210
-20,-20,-1,20,-9,-10,32,-11,-39,-14,-65,-205
-11,-18,-7,15,-2,-12,26,-15,-43,-19,-51,-207
-17,-33,-15,25,-1,-24,19,-43,-67,-55,-79,-212
-4,-40,-36,22,16,-38,21,-38,-61,-66,-87,-208
-15,-51,-36,33,11,-43,18,-28,-53,-57,-84,-213
-23,-46,-23,35,0,-34,24,-25,-42,-57,-85,-214
-35,-56,-22,46,-6,-39,35,-20,-37,-51,-93,-214
-25,-69,-43,47,9,-56,35,-16,-52,-49,-107,-227
7,-41,-49,17,28,-45,30,-4,-42,-45,-98,-223
3,-35,-38,16,21,-36,31,1,-31,-41,-83,-210
-1,-34,-33,18,16,-33,50,11,-29,-40,-76,-209
-10,-37,-27,24,9,-32,47,14,-34,-39,-86,-216
-15,-31,-16,23,1,-23,31,6,-22,-36,-79,-213
-27,-49,-22,38,-2,-36,26,-2,-31,-33,-88,-210
-31,-78,-46,55,8,-62,22,-6,-44,-40,-105,-207
-35,-74,-38,55,2,-56,20,-22,-33,-51,-93,-205
-47,-80,-33,64,-7,-56,15,-44,-68,-45,-87,-200
-20,-42,-22,31,2,-32,18,-44,-54,-41,-77,-173
-32,-2,30,17,-31,14,25,-34,-21,-37,-75,-158
-18,21,39,-2,-29,30,15,-29,-54,-30,-75,-153
6,41,35,-24,-15,38,7,-23,-57,-29,-71,-146
10,58,47,-34,-19,52,1,-13,-40,-14,-69,-139
37,83,46,-60,-5,65,-18,-36,-56,-29,-71,-133
16,81,65,-49,-24,73,-45,-72,-75,-36,-74,-126
49,124,75,-87,-13,99,-88,-90,-96,-41,-76,-122
64,94,30,-79,17,62,-87,-93,-109,-57,-74,-113
22,19,-4,-20,13,7,-56,-92,-106,-52,-74,-114
-9,8,18,0,-14,13,-38,-79,-102,-71,-85,-148
-28,-47,-19,37,-4,-33,-42,-82,-140,-104,-103,-172
-15,-76,-61,46,23,-68,-28,-69,-135,-108,-95,-169
-27,-84,-57,56,16,-70,-28,-68,-124,-89,-101,-169
-38,-86,-48,63,5,-67,-14,-70,-131,-109,-124,-169
-25,-74,-49,50,12,-61,41,-13,-58,-47,-86,-148
-12,-43,-31,28,10,-37,53,92,103,104,-15,-136
59,45,-14,-52,37,15,137,311,450,591,378,25
217,420,203,-319,7,311,-279,-170,201,1271,1137,483
418,881,463,-650,-23,672,-1079,-1012,-362,1959,1964,1010
593,708,115,-650,239,411,-1480,-1226,-583,2017,1977,1058
500,276,-224,-388,362,26,-1507,-1350,-1215,341,694,559
322,15,-306,-168,314,-145,-1161,-1244,-1546,-1036,-294,149
161,-160,-321,0,241,-240,-711,-873,-1193,-1014,-499,-55
-76,-147,-71,112,-2,-109,-314,-506,-725,-745,-502,-186
-114,-131,-17,123,-48,-73,-75,-182,-327,-426,-359,-212
-73,-138,-65,106,-4,-101,11,-56,-170,-281,-291,-207
-54,-132,-78,94,12,-105,91,6,-89,-202,-237,-193
-50,-163,-113,107,32,-138,105,47,-44,-148,-208,-186
-52,-152,-100,103,24,-126,128,92,-12,-135,-203,-176
-35,-143,-108,90,37,-126,138,107,28,-112,-194,-169
-42,-146,-104,94,31,-125,137,110,60,-112,-193,-161
-39,-144,-105,92,33,-124,147,129,73,-94,-183,-155
-52,-160,-108,107,28,-134,147,138,94,-92,-181,-164
-34,-149,-115,92,41,-131,150,159,121,-80,-174,-164
-25,-138,-113,82,44,-125,170,180,134,-63,-170,-159
-34,-141,-107,88,36,-124,178,191,155,-54,-166,-157
-33,-139,-106,86,37,-122,183,218,189,-37,-161,-152
-43,-141,-98,92,27,-119,203,262,235,-8,-157,-150
-28,-139,-111,83,41,-125,222,312,294,36,-153,-146
-28,-149,-121,88,47,-135,249,356,348,75,-142,-140
-37,-157,-120,97,42,-138,265,375,380,83,-134,-136
-24,-155,-130,90,53,-142,277,410,423,103,-120,-131
-25,-149,-124,88,50,-136,283,422,429,114,-117,-127
-31,-136,-105,84,37,-121,274,408,417,103,-127,-122
-23,-124,-101,74,39,-112,265,395,395,89,-135,-114
-26,-114,-87,70,31,-100,256,361,356,55,-150,-106
-10,-99,-89,55,39,-93,239,319,318,39,-140,-97
-24,-90,-66,57,21,-78,207,264,259,41,-139,-92
-45,-63,-18,54,-14,-40,162,217,216,38,-121,-65
-16,-29,-13,23,-1,-21,120,153,159,35,-86,-29
-22,-24,-2,23,-10,-13,91,92,106,35,-71,-20
-22,-23,-1,22,-10,-12,73,68,67,33,-60,-15
-23,-32,-9,28,-7,-20,57,29,18,22,-73,-7
-40,-28,12,34,-26,-8,51,20,-19,15,-76,-2
-35,-22,13,28,-24,-4,48,25,-48,4,-74,7
4,-13,-16,5,10,-14,45,15,-42,-3,-75,10
-4,-30,-25,17,11,-27,43,15,-50,-26,-76,10
-33,-46,-14,40,-9,-30,39,7,-65,-51,-85,10
-13,-24,-11,19,-1,-17,42,6,-45,-45,-80,9
-32,-38,-6,35,-13,-21,46,11,-39,-39,-74,23
-59,-40,18,49,-39,-11,44,18,-37,-34,-69,35
-59,-26,33,43,-46,3,41,29,-24,-22,-63,36
-41,-16,25,28,-33,4,38,30,-16,-12,-59,40
-37,-12,25,24,-30,6,45,30,-4,4,-53,39
-35,-16,18,25,-26,1,51,30,1,17,-50,30
-33,-16,17,24,-25,1,45,30,-15,15,-44,27
-30,-23,8,26,-19,-7,36,28,-18,10,-41,47
-10,-17,-7,14,-2,-12,32,23,-11,8,-42,52
-25,-27,-1,26,-12,-14,22,15,-21,3,-50,49
-39,-35,4,37,-21,-15,25,10,-24,-1,-54,51
-36,-25,10,30,-23,-8,40,3,-19,3,-45,48
-32,-7,25,19,-28,9,41,-4,-13,9,-38,51
-24,28,52,-2,-39,39,41,5,-8,15,-29,61
-19,51,70,-16,-45,60,37,2,0,21,-23,80
-32,51,83,-10,-58,67,47,15,-4,27,-17,85
2,84,82,-43,-40,82,49,10,-23,30,-12,95
17,107,90,-62,-37,98,20,-11,-17,19,-9,102
-26,102,129,-38,-78,115,-20,-37,-31,13,-3,98
38,173,134,-106,-48,153,-49,-85,-67,1,-1,126
37,127,89,-82,-26,108,-40,-73,-63,-5,12,133
-7,40,47,-16,-27,44,-41,-67,-84,-26,-19,119
-4,46,50,-21,-27,48,-11,-54,-81,-54,-49,101
-47,-8,39,27,-43,15,13,-47,-68,-44,-43,62
-61,-39,22,50,-41,-8,16,-58,-89,-65,-60,52
-70,-54,16,61,-42,-19,20,-60,-88,-55,-54,48
-68,-59,9,63,-39,-25,13,-56,-87,-62,-52,39
-60,-53,7,56,-33,-23,50,-16,-36,-25,-41,39
-50,-21,29,35,-39,4,72,66,97,89,-4,40
0,48,48,-24,-25,48,171,286,414,466,293,179
112,343,231,-227,-60,286,-211,-169,158,1049,946,562
339,869,530,-604,-96,700,-1071,-1085,-502,1686,1764,1103
567,831,264,-699,151,547,-1523,-1301,-567,2171,2137,1306
538,351,-187,-444,362,82,-1543,-1301,-951,984,1191,913
378,51,-327,-214,353,-138,-1207,-1190,-1375,-631,59,475
218,-138,-356,-40,287,-247,-740,-854,-1139,-873,-305,212
-14,-139,-126,77,56,-132,-342,-537,-748,-713,-419,28
-145,-103,43,124,-94,-30,-73,-210,-345,-431,-317,-38
-121,-107,14,114,-67,-46,30,-58,-150,-235,-208,-38
-95,-105,-9,100,-43,-57,97,6,-60,-167,-168,-30
-112,-128,-16,120,-48,-72,135,61,2,-106,-137,-27
-99,-102,-3,101,-48,-52,161,88,39,-98,-132,-19
-121,-124,-3,123,-59,-63,164,135,84,-78,-112,-16
-116,-110,6,113,-61,-52,164,134,77,-79,-108,-19
-86,-75,11,81,-48,-32,188,141,118,-54,-103,-20
-85,-100,-15,92,-35,-57,206,165,144,-49,-106,-20
-58,-103,-45,80,-6,-73,206,154,143,-37,-105,-20
-65,-94,-29,80,-18,-61,202,174,181,-16,-105,-19
-67,-86,-19,76,-24,-52,215,206,217,-4,-104,-22
-88,-109,-21,98,-33,-65,234,231,251,13,-97,-34
-102,-113,-11,109,-46,-62,243,271,305,49,-93,-36
-70,-105,-35,88,-17,-70,264,308,356,75,-87,-35
-70,-122,-52,96,-9,-87,298,356,416,103,-82,-36
-75,-117,-43,96,-16,-79,322,419,486,144,-77,-35
-75,-114,-40,95,-17,-77,330,463,518,154,-75,-35
-76,-111,-35,94,-20,-72,331,457,512,146,-75,-30
-76,-106,-30,91,-22,-68,327,444,502,140,-75,-30
-78,-104,-26,91,-25,-64,326,428,492,132,-75,-29
-65,-80,-15,73,-25,-47,321,410,486,112,-74,-25
-53,-59,-5,56,-24,-32,286,339,422,100,-83,-25
-50,-43,6,46,-28,-18,244,261,348,100,-74,-20
-74,-24,51,49,-62,13,208,243,316,100,-43,6
-73,5,78,34,-76,41,170,155,248,100,-35,27
-40,34,74,2,-57,54,132,99,207,101,-8,45
-39,36,75,1,-58,56,103,86,165,96,26,56
-38,32,70,3,-54,50,71,23,90,85,25,50
-40,31,70,5,-55,51,51,-10,66,72,25,48
-43,26,69,9,-56,47,50,-23,55,63,22,44
-39,26,65,6,-53,45,50,-26,45,56,19,39
-44,21,65,11,-55,42,49,-24,35,49,20,37
-47,15,62,16,-55,38,50,-33,30,45,15,33
-49,10,59,20,-54,34,49,-40,29,45,12,32
-54,2,56,25,-55,29,50,-38,33,45,8,28
-27,26,53,0,-40,39,58,-28,62,45,5,26
-12,37,50,-12,-31,43,61,-17,66,45,1,24
-26,27,54,-1,-40,40,59,-6,65,44,2,20
-26,29,56,-2,-41,42,57,7,83,46,14,20
-50,19,70,15,-60,44,54,13,84,57,24,20
-51,23,74,14,-62,48,55,5,79,61,26,20
-57,5,62,26,-60,34,58,-1,77,60,24,19
-61,-3,59,32,-60,28,61,-8,71,69,28,25
-16,33,50,-9,-33,41,60,-14,70,80,44,43
-14,32,46,-10,-30,39,58,-20,74,79,45,46
-11,27,38,-8,-25,32,55,-26,75,80,44,44
-25,24,49,1,-37,36,55,-25,75,79,45,46
-34,49,83,-7,-59,66,67,-16,75,81,45,43
-30,77,107,-24,-69,92,69,-13,76,77,63,47
-39,83,122,-22,-80,102,59,-31,72,72,71,50
-15,121,135,-53,-75,128,57,-26,57,84,70,55
-20,125,146,-53,-83,135,29,-30,43,68,71,55
-17,133,150,-58,-84,141,-2,-65,33,53,69,56
-8,153,162,-73,-85,157,-17,-72,21,62,76,74
-1,130,131,-64,-66,130,-25,-68,14,61,74,66
-2,97,99,-48,-50,98,-16,-71,2,51,61,52
-36,55,91,-10,-64,73,16,-67,-1,38,47,31
-38,15,53,11,-45,34,30,-85,-11,33,35,-1
-54,-17,37,35,-45,10,46,-73,-18,16,18,-12
-75,-56,19,65,-47,-18,47,-64,-23,16,15,-13
-76,-66,9,71,-42,-28,40,-62,-11,2,5,-16
-56,-67,-10,62,-23,-38,72,-41,22,22,1,-18
-66,-37,29,51,-47,-4,83,9,110,101,31,-21
-43,43,87,0,-65,64,228,273,477,433,270,63
120,294,174,-207,-27,234,-124,-119,305,1027,868,400
293,813,520,-553,-114,666,-1052,-1102,-408,1683,1688,936
539,926,387,-733,76,656,-1611,-1361,-462,2355,2251,1243
638,492,-146,-565,391,173,-1680,-1316,-727,1448,1530,958
449,150,-299,-300,373,-74,-1310,-1239,-1260,-356,305,490
266,-91,-357,-87,311,-224,-794,-901,-1117,-808,-171,195
41,-146,-187,53,114,-167,-374,-594,-751,-685,-327,-20
-105,-89,16,97,-60,-36,-77,-307,-374,-445,-284,-108
-90,-86,4,88,-47,-41,57,-95,-126,-207,-166,-115
-98,-78,20,88,-59,-29,135,-19,-29,-147,-117,-110
-119,-117,2,117,-60,-57,165,27,48,-78,-91,-106
-116,-116,0,116,-58,-57,185,70,77,-69,-93,-103
-106,-113,-7,110,-49,-60,201,87,110,-39,-74,-99
-102,-118,-16,110,-43,-67,217,101,126,-38,-71,-106
-99,-111,-12,106,-43,-62,219,129,150,-31,-59,-107
-101,-122,-21,111,-40,-71,221,148,168,-24,-52,-115
-103,-121,-19,113,-42,-70,245,146,181,-9,-50,-120
-108,-113,-5,111,-52,-59,251,168,224,20,-50,-121
-107,-104,3,105,-54,-51,272,218,258,39,-47,-118
-87,-105,-19,96,-33,-62,280,227,272,44,-44,-116
-86,-105,-19,96,-33,-62,295,257,330,61,-45,-114
-78,-104,-25,91,-26,-64,328,303,388,93,-40,-122
-62,-108,-46,85,-7,-77,344,345,438,110,-36,-140
-57,-101,-44,79,-6,-72,373,410,504,144,-31,-140
-62,-112,-51,87,-5,-81,385,429,535,158,-27,-144
-51,-98,-47,75,-2,-73,398,448,558,165,-20,-150
-30,-60,-30,46,0,-45,407,466,568,171,-23,-142
-44,-66,-22,55,-11,-43,383,431,538,146,-38,-135
-40,-55,-14,48,-13,-34,368,390,500,121,-43,-130
-35,-45,-10,40,-12,-27,354,349,459,105,-38,-120
-32,-35,-3,34,-15,-19,315,286,396,98,-36,-104
-35,-7,29,21,-32,11,276,230,342,102,-6,-81
-52,17,68,17,-60,42,234,183,299,117,32,-58
-44,37,81,4,-63,59,182,108,229,122,41,-55
-38,39,77,-1,-58,58,144,64,177,119,56,-51
-15,60,75,-23,-45,67,118,31,141,117,66,-50
-16,55,71,-20,-43,63,98,-6,103,114,65,-45
-37,30,67,3,-53,49,95,-16,95,115,64,-47
-23,37,59,-7,-41,47,95,-35,87,106,60,-71
-29,22,52,3,-41,37,91,-36,80,93,60,-76
-31,17,48,6,-39,32,90,-34,72,85,58,-74
-22,15,36,3,-29,25,89,-34,66,68,52,-76
-47,7,54,20,-51,31,104,8,93,71,48,-74
-46,7,52,19,-49,29,112,15,107,87,44,-76
-48,-14,34,30,-41,10,103,-20,98,81,38,-76
-54,-7,46,30,-50,20,122,-20,96,78,36,-73
-39,3,42,18,-41,22,130,-12,91,75,25,-83
-49,-12,37,30,-43,12,119,-11,86,70,31,-96
-44,-8,37,26,-40,14,115,-3,85,72,47,-95
-29,-1,28,15,-28,13,107,-3,85,79,46,-95
-36,0,35,18,-36,17,101,-2,85,85,51,-90
-36,9,45,13,-41,26,104,-19,84,85,45,-90
-37,7,44,14,-41,25,105,-19,85,87,37,-90
-46,6,52,20,-49,28,106,-6,85,90,29,-90
-60,-14,46,37,-53,16,103,-48,90,92,29,-98
-46,9,55,18,-50,32,101,-59,90,95,60,-85
-7,76,83,-35,-46,79,100,-42,90,99,74,-73
-22,85,107,-32,-64,96,97,-36,91,100,72,-69
-8,106,115,-50,-62,110,103,-26,87,118,89,-64
8,131,123,-70,-58,127,89,-19,86,127,96,-58
-25,134,159,-54,-92,146,57,-51,63,114,89,-52
2,165,163,-84,-81,164,31,-98,52,106,87,-48
46,171,125,-109,-40,148,38,-88,51,91,82,-40
9,101,92,-55,-42,96,38,-86,17,85,79,-50
4,83,79,-44,-38,81,48,-79,11,77,83,-67
6,69,64,-38,-29,66,65,-74,8,74,83,-94
-42,11,53,15,-48,32,63,-66,-3,56,65,-115
-48,-12,37,30,-42,12,83,-79,0,49,55,-116
-65,-36,29,50,-47,-4,62,-112,-17,45,48,-125
-50,-37,13,43,-31,-11,98,-49,26,35,38,-125
-31,-16,15,23,-23,0,106,-30,79,98,41,-138
-27,35,62,-4,-45,48,220,199,366,332,180,-104
98,196,98,-147,-1,147,107,160,527,947,709,146
296,703,407,-500,-56,555,-746,-749,-24,1701,1548,660
556,1006,450,-781,53,728,-1499,-1292,-267,2503,2290,1096
703,634,-69,-669,386,282,-1726,-1307,-470,1964,1842,937
568,268,-300,-418,434,-16,-1471,-1330,-1184,-58,481,448
374,13,-361,-193,368,-173,-937,-1066,-1281,-886,-181,103
119,-137,-257,9,188,-197,-496,-755,-919,-750,-335,-127
-65,-88,-23,77,-21,-56,-131,-431,-518,-525,-313,-231
-85,-81,4,83,-44,-38,55,-166,-193,-227,-181,-253
-106,-94,12,100,-59,-41,128,-85,-81,-160,-144,-260
-88,-109,-22,99,-33,-65,187,-11,13,-81,-86,-260
-58,-82,-24,70,-17,-53,215,35,43,-56,-81,-260
-56,-65,-8,61,-24,-36,236,63,79,-24,-76,-255
-39,-75,-36,57,-1,-55,234,61,93,-9,-72,-254
-26,-66,-40,46,7,-53,236,74,98,-10,-70,-258
-43,-80,-37,62,-3,-58,247,106,120,5,-63,-272
-50,-84,-34,67,-7,-59,254,112,133,3,-63,-276
-57,-86,-30,72,-13,-58,268,126,162,20,-56,-277
-51,-83,-32,67,-9,-57,284,152,192,25,-55,-282
-51,-90,-39,71,-6,-64,293,183,224,41,-50,-289
-67,-109,-42,88,-13,-75,317,229,271,63,-47,-291
-66,-106,-40,86,-13,-73,346,282,324,94,-44,-289
-43,-99,-55,71,6,-77,360,315,364,112,-40,-291
-26,-95,-69,61,22,-82,387,360,419,125,-36,-289
