I,II,III,aVR,aVL,aVF,V1,V2,V3,V4,V5,V6
-47,-15,32,31,-39,8,-98,64,-44,20,35,-115
-75,-28,47,51,-60,9,-104,58,-64,13,33,-118
-101,-50,51,76,-76,0,-98,51,-76,4,27,-115
-98,-49,49,74,-74,0,-95,42,-81,-3,26,-115
-103,-53,50,78,-77,-1,-56,38,-81,-22,7,-136
-132,-81,51,107,-91,-15,-21,25,-97,-42,-17,-153
-170,-102,68,136,-119,-17,-1,34,-102,-58,-28,-165
-170,-98,72,134,-121,-13,3,32,-116,-56,-41,-164
-168,-102,67,135,-118,-17,6,33,-115,-53,-37,-168
-168,-93,75,131,-121,-9,10,39,-113,-58,-37,-180
-178,-97,81,137,-129,-8,14,47,-110,-50,-30,-182
-189,-94,94,141,-141,0,14,36,-106,-62,-30,-183
-173,-104,70,138,-121,-17,76,128,-57,-56,-52,-203
-200,-85,115,142,-157,15,167,386,181,10,-31,-199
211,143,-68,-177,139,37,-210,-121,282,465,402,93
682,469,-213,-575,447,128,-806,-1358,-273,747,847,538
511,555,44,-533,233,300,-1024,-2106,-1197,79,466,549
302,307,5,-304,148,156,-896,-1786,-1291,-354,56,268
148,115,-33,-131,90,41,-476,-796,-625,-178,42,91
-30,56,86,-13,-59,71,-135,-163,-250,-101,3,-44
-104,-15,89,59,-96,36,-24,28,-134,-55,2,-117
-153,-39,114,96,-134,37,3,87,-99,-43,-16,-132
-152,-52,100,101,-126,24,6,98,-101,-47,-24,-146
-158,-52,105,104,-131,26,39,130,-78,-42,-18,-146
-168,-68,100,118,-134,16,45,133,-71,-48,-19,-151
-165,-67,98,116,-131,16,45,147,-58,-43,-12,-149
-154,-55,99,104,-126,22,45,150,-56,-43,-13,-145
-144,-53,90,98,-117,18,40,161,-50,-38,-8,-145
-132,-41,91,87,-111,24,41,184,-46,-37,-7,-145
-128,-43,85,85,-106,20,38,185,-42,-33,-3,-145
-126,-45,81,85,-103,18,34,189,-37,-30,-1,-145
-123,-42,81,83,-102,19,29,192,-32,-29,3,-143
-133,-38,95,85,-114,28,24,201,-25,-24,5,-139
-130,-35,95,82,-112,30,21,217,-20,-21,7,-137
-120,-30,90,75,-105,30,14,226,-15,-18,13,-134
-119,-29,90,74,-104,30,22,241,-6,-13,17,-131
-121,-38,83,79,-102,23,36,261,10,-11,21,-130
-118,-31,87,74,-103,28,33,284,26,-5,26,-123
-122,-19,103,70,-112,41,29,306,38,4,31,-115
-122,-15,107,68,-114,46,26,327,51,14,35,-107
-109,-5,103,57,-106,49,21,342,80,18,41,-99
-78,23,102,27,-90,62,19,356,102,31,51,-91
-45,53,98,-4,-72,75,14,371,119,50,65,-72
-46,56,102,-5,-75,79,11,360,138,63,83,-57
-49,67,116,-9,-83,91,0,342,143,78,95,-47
-25,83,108,-29,-66,95,-27,317,132,88,110,-40
-17,77,94,-30,-56,85,-47,266,121,87,112,-40
-21,67,88,-23,-55,78,-69,202,108,74,99,-40
-22,58,80,-18,-51,69,-82,145,70,63,91,-40
-48,30,79,9,-64,54,-74,101,33,50,74,-53
-74,-1,73,37,-74,36,-71,62,2,26,51,-79
-76,-4,72,40,-74,34,-66,40,-22,4,27,-107
-92,-28,65,60,-78,18,-62,35,-44,-18,7,-128
-118,-53,65,85,-91,6,-57,30,-68,-37,-6,-140
-124,-48,76,86,-100,14,-55,25,-73,-42,-20,-143
-130,-53,77,91,-103,12,-51,18,-76,-38,-19,-148
-145,-54,91,100,-118,18,-51,18,-83,-43,-25,-150
-144,-56,88,100,-116,16,-65,27,-89,-49,-31,-150
-130,-52,79,91,-104,13,-65,23,-90,-52,-31,-153
-118,-48,70,83,-94,11,-65,21,-91,-63,-44,-156
-130,-59,70,94,-100,5,-65,17,-95,-66,-46,-154
-151,-61,91,106,-121,15,-65,15,-99,-64,-44,-150
-149,-59,90,104,-119,15,-64,13,-103,-65,-46,-150
-147,-56,91,101,-119,17,-57,5,-100,-65,-44,-149
-150,-55,95,102,-122,20,-53,24,-100,-64,-47,-145
-149,-54,95,101,-122,20,-47,37,-98,-60,-51,-145
-142,-49,93,95,-117,21,-41,34,-94,-60,-49,-147
-132,-46,86,89,-109,20,-36,36,-95,-60,-46,-145
-121,-43,78,82,-99,17,-31,34,-99,-60,-44,-145
-112,-38,74,75,-93,17,-30,36,-100,-60,-39,-144
-98,-34,64,66,-80,14,-29,33,-99,-60,-42,-140
-105,-41,64,73,-84,11,-26,26,-92,-60,-46,-140
-133,-46,87,90,-110,20,-24,19,-95,-60,-45,-140
-131,-45,87,88,-109,21,-29,13,-117,-60,-44,-140
-121,-43,78,82,-100,17,-36,5,-121,-60,-41,-139
-115,-40,76,77,-95,18,-35,1,-121,-61,-39,-148
-107,-39,67,73,-87,14,-33,4,-127,-65,-42,-156
-118,-53,64,85,-91,5,-31,7,-123,-65,-49,-154
-134,-61,73,97,-104,5,-29,10,-121,-65,-51,-155
-135,-59,76,97,-105,8,-34,8,-119,-65,-49,-155
-130,-60,70,95,-100,5,-40,-3,-124,-65,-52,-155
-129,-60,69,94,-99,4,-41,-12,-135,-65,-51,-152
-125,-59,65,91,-95,2,-38,-12,-133,-65,-50,-149
-119,-55,64,87,-91,4,-36,-8,-128,-65,-50,-146
-124,-55,69,89,-96,7,-34,-6,-126,-65,-50,-143
-130,-55,75,92,-102,10,-39,-2,-120,-65,-50,-139
-126,-55,70,90,-97,7,-46,0,-122,-65,-51,-142
-119,-54,64,86,-91,5,-43,3,-130,-65,-51,-146
-122,-59,63,90,-92,2,-41,5,-130,-65,-50,-145
-119,-66,53,92,-86,-6,-37,5,-130,-65,-50,-145
-127,-65,62,95,-94,-1,-36,5,-130,-65,-50,-145
-145,-65,80,105,-112,7,-32,5,-130,-65,-49,-145
-138,-65,73,101,-105,4,-24,5,-129,-65,-53,-144
-130,-65,65,97,-97,0,-34,0,-124,-64,-57,-139
-123,-63,61,93,-92,-1,-35,1,-118,-57,-51,-133
-104,-54,50,78,-77,-2,-30,-1,-115,-52,-46,-130
-102,-48,54,75,-77,3,-29,4,-110,-48,-41,-125
-103,-41,63,72,-83,11,-24,22,-106,-41,-35,-121
-88,-35,53,61,-70,9,-26,36,-98,-37,-31,-120
-80,-35,45,58,-62,4,-31,65,-78,-30,-35,-120
-68,-33,35,51,-51,1,-33,90,-73,-26,-35,-120
-58,-31,27,44,-43,-1,-45,102,-58,-17,-35,-120
-51,-28,23,39,-37,-3,-78,39,-79,-20,-35,-120
-57,-39,18,48,-37,-10,-97,-34,-130,-41,-35,-119
-66,-52,15,59,-41,-18,-92,-29,-131,-40,-35,-114
-62,-54,8,58,-34,-23,-74,-31,-124,-40,-34,-110
-95,-60,35,77,-65,-12,-51,-29,-131,-59,-57,-126
-126,-79,47,102,-86,-16,-43,-32,-153,-79,-70,-145
-141,-98,43,119,-92,-27,-35,-27,-163,-94,-82,-149
-141,-100,41,121,-91,-30,-30,-27,-158,-95,-91,-150
-136,-101,36,118,-86,-32,-22,-23,-151,-93,-88,-150
-136,-98,38,116,-87,-30,-16,-22,-150,-90,-94,-150
-135,-103,32,119,-84,-35,-23,-19,-138,-86,-92,-151
-150,-96,54,123,-102,-21,-24,-11,-142,-84,-100,-148
-164,-118,46,140,-105,-36,60,105,-85,-82,-88,-169
-180,-87,93,133,-136,3,137,347,147,-3,-45,-159
266,139,-127,-203,197,6,-269,-196,210,446,367,133
742,445,-296,-593,519,74,-847,-1446,-350,651,750,544
519,485,-35,-502,277,225,-1018,-2174,-1228,-19,335,512
291,216,-76,-253,183,70,-870,-1788,-1271,-405,-69,224
158,83,-75,-121,116,4,-461,-780,-607,-194,-52,85
-17,19,36,-1,-27,27,-132,-180,-264,-98,-38,-22
-83,-72,11,77,-46,-30,-28,8,-158,-67,-44,-94
-118,-67,51,93,-85,-8,-4,66,-111,-65,-60,-105
-110,-80,31,95,-70,-24,3,82,-107,-67,-60,-117
-125,-89,35,107,-80,-26,36,114,-93,-56,-59,-114
-126,-96,30,111,-77,-32,35,121,-94,-57,-61,-115
-116,-94,23,104,-69,-35,34,136,-83,-48,-59,-115
-115,-88,27,101,-71,-31,36,141,-81,-47,-60,-115
-99,-88,10,93,-54,-39,33,160,-72,-40,-54,-116
-104,-83,20,93,-62,-31,41,164,-66,-40,-53,-113
-119,-89,30,104,-74,-30,50,166,-59,-40,-49,-111
-124,-98,26,111,-75,-36,49,179,-52,-35,-47,-107
-119,-99,20,109,-69,-39,44,186,-48,-35,-45,-105
-111,-94,17,102,-63,-39,44,199,-40,-34,-41,-101
-103,-92,11,97,-57,-40,38,213,-36,-28,-35,-100
-95,-87,8,91,-52,-39,45,232,-25,-22,-30,-96
-105,-85,20,95,-62,-32,60,249,-14,-18,-25,-90
-112,-80,32,96,-72,-24,60,269,0,-11,-19,-85
-110,-81,29,95,-70,-26,62,293,10,-7,-14,-79
-109,-79,30,94,-70,-24,66,312,31,3,-5,-74
-112,-82,31,97,-71,-26,65,337,63,16,1,-60
-101,-73,28,87,-65,-22,63,353,81,31,13,-46
-69,-36,33,53,-51,-2,52,373,103,52,30,-34
-54,-17,37,35,-45,10,45,379,124,64,45,-21
-42,-14,28,28,-35,7,34,366,147,84,62,-9
-22,-3,19,13,-21,7,26,365,157,102,75,14
7,21,14,-14,-4,18,13,339,149,112,94,21
24,24,0,-24,12,12,-13,285,141,124,108,15
22,12,-10,-17,16,1,-24,237,123,118,104,10
30,0,-29,-15,30,-14,-41,194,93,107,89,3
16,-25,-41,5,29,-32,-45,155,56,88,61,-1
-17,-41,-24,30,3,-32,-29,118,16,59,27,-25
-28,-60,-32,44,3,-45,-22,95,-11,34,-1,-50
-38,-70,-33,54,-2,-51,-20,90,-23,17,-13,-60
-61,-84,-23,73,-19,-53,-20,84,-36,8,-22,-64
-78,-98,-19,88,-29,-58,-15,80,-40,0,-33,-67
-85,-94,-8,90,-38,-51,-15,71,-53,-10,-41,-78
-87,-96,-9,91,-38,-52,-14,75,-62,-18,-48,-81
-87,-95,-7,91,-39,-51,-9,91,-59,-20,-50,-80
-77,-95,-18,86,-29,-56,-6,90,-61,-20,-50,-80
-68,-98,-31,83,-19,-64,-3,90,-59,-20,-51,-80
-85,-101,-15,93,-35,-58,2,88,-66,-20,-55,-79
-96,-99,-3,97,-46,-50,4,99,-69,-20,-55,-75
-71,-94,-23,83,-24,-58,12,111,-60,-20,-58,-73
-58,-88,-31,73,-13,-59,23,110,-55,-19,-61,-70
-70,-84,-14,78,-28,-49,20,109,-48,-26,-57,-67
-61,-81,-20,71,-20,-50,20,112,-40,-31,-55,-64
-61,-74,-13,68,-24,-43,20,121,-49,-25,-52,-72
-95,-77,18,86,-56,-29,20,120,-55,-23,-49,-74
-100,-69,30,84,-65,-19,20,117,-47,-18,-46,-65
-98,-74,24,86,-61,-25,16,115,-42,-15,-44,-60
-104,-86,18,95,-61,-33,13,114,-36,-12,-41,-52
-95,-78,17,86,-56,-30,9,128,-35,-9,-40,-46
-82,-75,7,78,-44,-34,6,136,-35,-6,-40,-45
-78,-70,8,74,-42,-31,1,128,-35,-3,-40,-45
-77,-65,12,71,-44,-26,1,125,-35,0,-40,-45
-77,-65,12,71,-44,-26,17,120,-35,0,-42,-45
-89,-77,12,83,-50,-32,23,114,-34,0,-45,-45
-80,-81,-1,81,-39,-41,15,124,-30,0,-45,-45
-92,-75,16,83,-53,-29,14,131,-28,0,-45,-45
-97,-75,22,86,-59,-27,5,125,-25,0,-45,-45
-59,-69,-10,64,-25,-39,8,123,-21,0,-44,-45
-70,-71,-1,71,-34,-36,33,119,-20,8,-41,-45
-66,-58,8,61,-37,-25,36,113,-17,11,-40,-45
-64,-61,2,63,-33,-29,28,122,-13,7,-40,-42
-87,-90,-3,89,-42,-46,25,131,-9,5,-40,-37
-86,-88,-2,87,-42,-44,20,130,-6,2,-40,-34
-77,-82,-5,80,-36,-44,14,130,-1,-1,-40,-30
-70,-79,-9,74,-31,-43,26,131,-1,8,-40,-27
-80,-74,6,77,-42,-34,37,128,-15,20,-40,-23
-48,-69,-21,59,-13,-45,34,136,-14,20,-40,-20
-37,-66,-29,52,-4,-47,36,146,-7,20,-40,-20
-41,-63,-22,53,-9,-42,34,145,-3,20,-40,-18
-36,-60,-24,48,-6,-42,35,145,4,20,-34,-15
-41,-58,-18,49,-11,-38,38,145,8,21,-28,-15
-31,-52,-21,42,-5,-36,43,144,14,25,-24,-11
-46,-70,-24,58,-11,-47,45,146,15,25,-18,-4
-38,-53,-16,45,-10,-34,38,158,27,29,-13,2
-34,-19,15,26,-24,-2,48,177,49,51,-7,9
-45,-21,24,33,-35,1,49,208,68,59,2,16
-24,-15,9,19,-16,-3,35,228,96,69,13,20
8,-14,-22,3,15,-18,19,209,86,75,22,28
33,-10,-43,-11,38,-26,-9,159,48,59,20,24
36,-12,-47,-12,41,-29,-13,114,35,48,13,13
19,-33,-52,8,35,-42,6,123,27,37,8,6
-10,-41,-30,26,10,-35,37,144,18,25,1,-5
-29,-56,-26,43,-1,-41,49,138,11,16,-17,-20
-40,-72,-32,56,-4,-52,57,140,9,13,-34,-31
-73,-72,1,72,-37,-35,69,141,6,8,-42,-36
-68,-74,-6,71,-31,-40,61,138,2,7,-38,-33
-45,-65,-19,55,-13,-42,69,144,2,-1,-41,-29
-57,-82,-25,70,-16,-53,60,135,-2,2,-40,-26
-92,-101,-8,97,-41,-54,68,146,10,8,-39,-20
-80,-89,-8,85,-36,-48,87,151,13,12,-45,-25
-118,-104,14,111,-65,-45,196,375,176,11,-74,-69
-5,-2,3,3,-4,1,162,445,470,257,107,30
558,288,-270,-422,413,8,-371,-399,273,824,709,493
690,580,-110,-635,400,234,-799,-1515,-677,599,784,815
361,510,149,-436,106,329,-798,-1849,-1355,-185,218,629
265,221,-44,-243,154,88,-536,-1164,-928,-254,22,342
122,123,0,-122,61,61,-144,-315,-294,-62,30,147
-20,42,62,-12,-41,52,72,62,-55,-3,3,41
-33,-2,31,17,-33,15,133,181,33,31,9,5
-12,4,17,4,-14,10,162,199,48,26,-6,-18
-18,-16,2,17,-9,-7,171,233,74,34,-2,-21
-62,-18,44,40,-53,13,166,244,76,32,-12,-19
-65,-27,38,46,-51,5,163,246,73,38,-14,-15
-56,-18,37,37,-47,9,161,267,95,39,-12,-13
-52,-18,34,34,-43,8,157,276,101,40,-9,-9
-42,-12,30,27,-36,9,155,275,100,40,-6,-12
-40,-10,30,25,-35,10,157,274,98,39,-4,-19
-57,-13,44,35,-50,15,171,285,110,41,0,-15
-56,-5,51,30,-53,23,176,291,123,39,1,-15
-42,-2,40,22,-41,19,175,306,121,41,7,-14
-36,5,41,15,-39,22,175,317,128,44,13,-9
-22,10,32,6,-27,20,175,329,129,58,17,-11
-18,14,32,2,-25,23,175,344,142,67,24,-7
1,16,15,-8,-8,15,171,355,154,63,29,-3
5,21,15,-13,-5,17,167,376,162,74,33,1
-19,34,53,-8,-36,43,163,395,189,79,42,6
-25,31,56,-3,-41,43,160,411,201,84,43,10
-5,49,54,-23,-30,51,154,430,228,101,59,27
4,61,57,-33,-26,59,161,445,248,109,82,41
13,66,53,-40,-20,59,169,455,269,131,89,53
40,97,57,-69,-9,77,160,446,295,149,106,71
69,110,41,-89,13,75,151,434,307,163,127,82
91,123,32,-107,29,77,132,418,318,180,146,99
81,140,58,-111,11,99,115,381,301,195,157,109
81,147,65,-114,8,106,104,340,283,195,151,103
84,139,56,-112,14,97,94,292,262,181,138,92
68,123,55,-96,7,89,96,242,224,174,129,83
51,99,48,-75,1,73,94,201,177,145,100,60
36,79,44,-58,-4,61,95,174,141,109,63,33
7,69,62,-38,-28,65,103,166,118,87,48,22
-14,59,73,-23,-43,66,104,161,97,73,34,14
-5,60,65,-28,-35,62,111,156,87,69,19,8
-5,60,65,-28,-35,62,116,149,83,64,8,4
-1,60,60,-30,-30,60,111,147,77,58,2,-3
1,61,59,-31,-29,60,110,155,71,52,-1,-7
-15,59,75,-22,-45,67,106,153,66,47,-7,-13
-26,56,82,-15,-54,68,103,148,65,43,-10,-22
-30,49,79,-10,-55,64,112,146,65,40,-10,-21
-31,45,76,-8,-54,61,116,140,65,37,-10,-19
-33,42,75,-5,-55,58,115,141,64,32,-10,-20
-38,34,73,2,-56,53,111,150,65,30,-8,-20
-37,46,83,-4,-61,64,109,158,64,30,-2,-21
-29,62,91,-16,-60,77,110,160,59,30,2,-18
-28,63,91,-17,-60,76,115,159,77,30,6,-13
-35,66,100,-16,-68,83,120,155,87,32,11,-7
-30,70,100,-20,-65,85,120,155,84,42,15,-4
-31,68,99,-19,-65,84,120,155,92,50,20,2
-30,65,96,-18,-63,81,117,155,92,50,20,5
-33,62,95,-15,-64,78,114,155,89,50,21,0
-35,60,95,-13,-65,77,109,152,85,50,25,-3
-28,56,84,-14,-57,70,107,150,82,50,25,-11
-24,55,78,-16,-51,66,102,147,77,49,23,-16
1,67,66,-34,-33,66,100,144,75,45,17,-14
-8,71,80,-32,-44,75,116,141,88,43,12,-15
-35,69,104,-17,-70,87,121,138,91,40,9,-15
-30,71,100,-21,-65,85,119,147,90,36,4,-15
-25,70,94,-23,-60,82,117,148,87,35,0,-17
-20,70,90,-25,-55,80,114,140,84,32,0,-20
-12,70,82,-29,-47,76,115,136,85,29,0,-20
-11,70,81,-30,-46,75,110,129,80,30,0,-20
-19,70,89,-26,-54,79,110,126,81,30,1,-20
-21,70,91,-24,-56,80,110,129,78,30,-1,-15
-19,71,89,-26,-54,80,109,130,75,29,5,-15
-18,67,86,-25,-52,76,111,130,74,25,12,-15
-20,65,85,-23,-53,75,109,130,78,25,10,-15
-19,65,84,-23,-52,75,112,130,85,25,10,-15
-17,61,78,-23,-47,69,123,129,85,25,10,-13
-16,60,76,-22,-46,67,126,131,85,25,9,-9
-8,60,68,-26,-38,64,124,129,84,24,11,-7
-13,65,78,-26,-46,71,126,136,86,38,14,-4
-26,67,93,-21,-60,79,124,137,83,47,15,-1
-15,80,95,-33,-55,87,127,145,100,49,16,0
25,108,83,-67,-29,95,134,167,117,58,24,7
23,116,93,-70,-35,104,126,177,134,68,44,16
13,110,97,-62,-42,103,113,207,169,88,55,26
47,105,58,-76,-6,81,74,183,145,78,45,28
41,99,58,-71,-9,78,48,124,116,53,35,19
24,93,70,-59,-23,81,52,116,103,44,25,11
28,89,61,-59,-17,75,61,107,94,38,17,3
5,72,67,-39,-31,69,94,97,90,30,8,-4
-26,57,83,-16,-55,70,105,91,67,24,1,-23
-30,51,81,-11,-56,66,106,94,63,20,-1,-37
-27,50,78,-12,-53,64,110,98,57,11,-8,-31
-25,44,70,-10,-48,57,112,99,53,12,-7,-23
-29,42,71,-7,-50,56,111,98,50,-3,-17,-19
-22,38,60,-9,-41,49,112,83,43,5,-12,-10
-50,30,80,10,-65,54,133,86,56,-18,-17,-6
-60,22,82,19,-71,52,143,112,68,-4,-23,-26
-84,9,93,37,-89,51,261,340,253,12,-65,-80
77,144,66,-111,5,105,141,301,542,315,180,66
596,465,-131,-530,363,167,-448,-623,227,914,833,579
667,747,80,-707,293,413,-846,-1669,-847,535,806,869
365,623,258,-494,53,440,-845,-1822,-1395,-238,232,652
228,302,74,-265,77,187,-534,-1063,-836,-239,51,370
98,201,103,-149,-3,151,-128,-298,-236,-77,32,199
29,138,109,-83,-40,123,52,21,-10,-26,16,103
-6,91,97,-43,-52,94,115,121,68,-16,12,73
-6,92,99,-43,-52,95,132,138,78,-10,4,68
6,87,82,-47,-38,84,141,166,97,3,6,61
7,88,82,-48,-38,85,152,175,96,-3,-3,54
7,83,76,-45,-35,80,149,184,105,2,-3,47
-13,86,98,-37,-56,92,150,194,120,-1,-4,47
-9,80,89,-36,-49,84,155,197,119,0,1,50
-9,76,85,-34,-48,81,167,203,122,0,3,50
-9,74,83,-33,-46,78,159,208,124,4,6,55
-5,69,74,-32,-40,71,155,226,126,11,9,55
-10,66,76,-28,-44,71,152,226,122,14,11,55
-18,66,84,-25,-51,75,144,229,116,19,14,54
-10,72,81,-31,-45,76,150,235,129,24,17,59
1,75,74,-39,-37,74,160,240,144,23,19,70
2,75,74,-38,-36,74,161,261,149,18,23,70
12,75,63,-44,-26,69,159,279,164,14,23,71
2,74,72,-38,-36,73,165,299,172,28,34,89
-5,91,96,-43,-51,93,176,310,179,35,46,101
5,97,92,-51,-44,94,170,335,203,42,49,99
14,102,87,-58,-37,94,165,360,217,60,53,113
34,120,86,-78,-26,103,162,368,243,74,74,130
59,137,78,-98,-10,107,155,385,273,89,90,142
66,152,86,-109,-11,119,158,378,278,100,99,156
66,164,98,-116,-16,131,151,367,282,113,125,172
100,191,91,-146,4,141,136,343,277,126,142,194
113,193,80,-154,16,137,123,284,276,134,157,203
118,195,77,-157,20,136,105,230,261,122,157,193
127,188,62,-158,32,125,92,187,218,113,139,186
87,147,60,-117,13,103,95,145,175,100,125,174
56,133,78,-95,-11,105,94,106,136,70,95,149
41,118,76,-80,-18,97,95,79,102,47,56,127
35,98,64,-67,-15,81,109,67,77,27,24,111
28,102,74,-65,-23,88,114,57,60,8,9,95
-6,93,100,-44,-53,96,115,50,52,-2,5,79
-11,82,93,-35,-53,87,116,45,46,-9,1,74
-13,73,86,-30,-50,79,113,40,38,-16,-4,75
-17,69,86,-26,-52,77,121,37,31,-24,-7,75
-9,67,76,-29,-43,71,131,30,24,-31,-17,75
-10,64,74,-27,-42,68,129,33,20,-38,-20,75
1,60,59,-31,-29,59,127,35,18,-44,-23,75
-8,61,69,-27,-39,65,123,36,15,-41,-31,75
-18,74,91,-28,-55,82,136,25,12,-39,-26,75
-13,76,89,-31,-51,82,146,27,9,-33,-24,75
6,74,68,-40,-31,71,139,47,10,-42,-20,75
12,76,63,-44,-26,69,138,43,10,-56,-16,75
-16,74,90,-29,-54,82,132,40,10,-49,-13,86
-14,77,91,-31,-53,83,131,38,10,-45,-10,91
-9,80,89,-35,-49,84,124,33,9,-42,-10,97
-11,80,90,-35,-50,85,125,38,14,-35,-6,106
-13,82,95,-35,-54,89,136,44,21,-38,-5,102
-14,85,100,-36,-58,92,131,38,15,-45,-5,100
-5,85,90,-40,-48,87,128,30,10,-46,-12,100
-10,80,90,-35,-51,85,125,25,7,-43,-20,96
-17,72,89,-28,-53,80,119,16,0,-41,-20,95
-14,66,79,-26,-47,72,124,21,3,-38,-20,95
-19,59,78,-20,-49,68,131,30,8,-47,-20,89
-32,49,80,-9,-56,64,129,22,4,-60,-19,83
-23,51,74,-14,-49,62,125,16,6,-60,-24,79
-8,60,68,-26,-38,64,123,10,1,-59,-31,73
1,61,60,-31,-29,60,118,1,-1,-61,-30,67
2,58,56,-30,-27,56,124,6,1,-58,-30,65
11,56,45,-34,-17,50,134,10,-19,-64,-34,64
6,54,48,-30,-22,51,129,3,-27,-75,-35,66
-23,56,79,-16,-51,67,123,-1,-24,-72,-35,63
-16,65,81,-24,-49,73,118,-7,-24,-68,-35,66
-13,64,77,-26,-46,70,111,-13,-19,-66,-36,75
-17,60,77,-22,-47,68,113,-17,-21,-59,-40,75
-13,58,71,-22,-42,64,120,-21,-18,-63,-40,76
-16,55,71,-19,-44,63,121,-19,-14,-70,-40,75
-13,51,65,-19,-39,58,117,-25,-15,-70,-40,75
-7,60,67,-27,-37,63,117,-24,-15,-69,-40,72
20,72,52,-46,-16,62,112,-26,-16,-65,-37,69
28,67,39,-48,-6,53,119,-18,-15,-65,-31,71
-4,63,67,-30,-36,65,119,-6,-5,-63,-29,68
-4,72,76,-34,-40,74,120,-4,12,-52,-23,75
22,90,68,-56,-24,79,145,18,25,-43,-10,96
29,96,67,-63,-19,81,143,45,44,-44,10,104
31,91,60,-61,-14,75,107,75,58,-46,22,100
39,89,50,-64,-5,69,66,48,46,-44,11,95
42,84,42,-63,0,63,58,-28,14,-49,-4,91
36,81,45,-59,-5,63,67,-57,-22,-63,-19,86
27,74,47,-51,-10,60,65,-62,-34,-68,-12,82
-3,48,51,-22,-27,49,85,-59,-26,-70,-13,74
-12,34,45,-11,-29,39,109,-59,-39,-82,-43,51
-7,28,35,-11,-21,31,116,-53,-54,-99,-59,39
-4,25,29,-10,-17,26,115,-56,-56,-102,-63,33
-4,17,20,-7,-12,18,112,-52,-54,-97,-63,29
-40,12,52,14,-46,32,110,-44,-54,-103,-69,22
-36,21,57,7,-46,39,108,-47,-57,-96,-69,17
-8,39,46,-16,-28,42,118,-31,-45,-103,-69,18
-36,9,46,13,-41,27,146,-16,-23,-102,-74,-3
-116,-27,89,71,-102,31,265,236,145,-91,-106,-30
118,147,29,-132,44,88,90,94,372,230,160,136
681,480,-201,-580,441,139,-526,-1012,70,735,731,596
728,697,-31,-713,379,333,-903,-2021,-877,353,655,816
467,553,86,-510,190,320,-884,-2069,-1352,-303,152,595
342,290,-52,-316,197,119,-549,-1226,-824,-268,12,352
142,182,40,-163,50,111,-123,-412,-285,-145,-10,188
49,101,52,-75,-2,76,42,-116,-112,-106,-34,85
6,70,64,-38,-30,67,103,-25,-44,-81,-46,52
-24,64,88,-20,-56,76,124,-3,-32,-87,-57,40
-6,58,65,-26,-36,61,130,35,-22,-77,-53,39
-1,58,59,-29,-31,58,144,41,-19,-80,-57,35
-7,51,58,-22,-33,54,135,49,-12,-72,-54,33
-32,50,82,-10,-57,66,136,61,-7,-82,-54,29
-22,44,66,-12,-44,55,131,66,-3,-84,-48,32
-17,46,63,-15,-41,54,128,83,2,-77,-45,36
-12,43,55,-16,-34,49,138,78,6,-73,-42,34
-4,40,44,-19,-24,42,145,85,10,-66,-37,35
-23,38,62,-8,-43,50,138,89,22,-61,-34,35
-26,49,75,-12,-51,61,134,106,38,-56,-37,35
-4,61,65,-29,-35,63,131,123,41,-54,-44,35
1,60,58,-31,-29,59,123,124,43,-51,-36,35
6,60,54,-33,-24,57,139,144,55,-48,-28,38
18,60,42,-39,-12,51,152,160,64,-46,-19,44
9,64,54,-37,-23,59,145,180,77,-44,-11,46
14,69,55,-42,-21,62,144,207,95,-35,-3,49
3,65,62,-34,-30,63,138,229,116,-27,5,57
-8,75,83,-33,-46,78,135,250,132,-18,12,59
28,108,79,-68,-26,93,131,264,152,-8,29,76
31,119,88,-75,-29,103,125,277,175,5,39,90
42,126,84,-85,-21,105,119,269,188,37,56,98
74,147,73,-111,1,109,113,251,205,60,76,115
88,155,66,-122,11,110,109,235,195,67,89,129
103,158,55,-131,24,106,82,185,185,70,109,144
98,149,51,-124,24,100,60,126,174,60,106,147
91,140,50,-116,20,95,52,81,141,50,89,134
79,129,50,-104,14,89,46,30,95,39,75,107
52,100,48,-76,2,74,50,-18,47,12,45,78
34,78,44,-57,-5,61,52,-49,24,-18,12,57
19,65,46,-43,-13,55,56,-62,12,-39,-7,45
11,52,41,-32,-16,47,51,-72,0,-53,-27,39
5,44,39,-25,-17,41,50,-79,-3,-62,-35,33
-5,38,43,-16,-24,40,50,-82,-8,-66,-35,26
7,30,23,-19,-9,26,45,-86,-13,-69,-42,19
-16,22,38,-3,-27,30,45,-85,-16,-71,-47,13
-38,16,54,10,-46,35,45,-85,-30,-76,-50,10
-16,14,30,0,-24,22,58,-85,-36,-85,-50,10
-12,16,28,-2,-20,22,66,-85,-35,-90,-50,7
-17,15,32,1,-25,23,60,-85,-33,-90,-50,5
-30,15,45,8,-38,30,58,-82,-29,-90,-54,5
-37,15,52,11,-45,33,53,-77,-30,-90,-55,9
-34,14,48,10,-42,31,50,-74,-27,-90,-55,10
-23,28,51,-3,-37,39,50,-71,-22,-88,-53,10
-13,36,49,-12,-31,42,50,-66,-19,-84,-50,15
-17,34,51,-9,-34,42,50,-65,-16,-85,-50,15
-23,35,58,-6,-41,46,50,-65,-11,-81,-47,16
-26,35,61,-5,-44,47,50,-65,-11,-80,-44,20
-20,40,60,-10,-40,50,49,-64,-15,-80,-41,20
-21,38,59,-9,-40,48,44,-68,-15,-75,-38,20
-22,33,55,-6,-39,44,38,-81,-15,-75,-35,20
-23,30,53,-4,-37,41,35,-88,-15,-75,-36,20
-23,27,50,-2,-37,38,30,-90,-15,-75,-40,16
-24,22,46,1,-36,34,25,-90,-19,-75,-40,15
-25,20,45,2,-35,32,30,-91,-20,-77,-40,15
-17,24,41,-4,-29,32,32,-94,-20,-81,-39,10
-15,20,35,-3,-25,27,29,-101,-20,-84,-46,10
-10,20,30,-5,-20,25,26,-106,-20,-85,-51,9
-6,19,25,-7,-16,21,26,-105,-20,-85,-50,5
-3,15,17,-6,-10,16,49,-105,-20,-85,-50,5
-3,15,18,-7,-11,17,62,-105,-16,-87,-50,5
-15,15,30,0,-23,22,59,-105,-14,-90,-49,5
-15,15,30,0,-23,22,60,-105,-15,-90,-46,5
-10,15,25,-3,-18,20,60,-106,-15,-90,-43,5
-9,15,24,-3,-17,19,60,-104,-15,-90,-40,5
-4,15,19,-6,-12,17,60,-108,-14,-90,-38,5
-7,15,22,-4,-15,18,68,-115,-10,-85,-34,5
-20,11,30,5,-25,20,71,-115,-10,-85,-38,5
-21,6,28,7,-25,17,66,-115,-10,-84,-43,6
-20,4,24,8,-23,14,65,-115,-10,-79,-41,10
-21,-1,21,11,-21,10,60,-116,-10,-81,-38,10
-21,-5,16,12,-18,6,60,-112,-7,-77,-36,10
-17,-2,14,9,-16,6,53,-108,-4,-72,-32,10
5,11,6,-8,-1,9,54,-98,-2,-66,-31,10
8,21,13,-15,-2,17,70,-97,4,-60,-27,14
10,38,28,-24,-9,33,74,-69,21,-56,-14,32
33,53,21,-43,6,37,59,-38,47,-42,-3,44
34,40,7,-37,13,23,44,-32,70,-24,8,46
43,35,-8,-38,25,13,19,-21,71,-14,13,51
62,36,-26,-49,44,5,-16,-103,39,-44,2,47
56,25,-31,-40,43,-3,-20,-159,0,-71,-7,39
60,11,-49,-35,54,-19,-22,-144,-7,-71,-18,33
66,10,-56,-38,61,-23,-6,-148,2,-74,-27,25
7,-8,-15,1,11,-11,25,-141,-12,-80,-42,20
-45,-43,1,44,-22,-21,33,-140,-30,-96,-64,12
-36,-44,-8,40,-14,-26,45,-140,-30,-102,-72,6
-15,-45,-30,31,8,-37,45,-152,-31,-104,-69,-1
-31,-49,-18,40,-6,-33,45,-141,-29,-110,-74,-8
-36,-50,-14,43,-11,-31,45,-141,-32,-98,-75,-10
-38,-51,-13,45,-12,-32,44,-127,-27,-96,-74,-11
-46,-39,7,43,-26,-16,49,-122,-17,-85,-70,-8
-66,-57,8,61,-37,-24,153,65,107,-84,-97,-48
-3,30,33,-14,-18,31,119,158,341,82,33,23
545,312,-233,-428,389,39,-419,-725,257,603,580,418
814,582,-232,-698,523,175,-908,-1930,-507,528,736,733
522,516,-5,-519,263,255,-980,-2310,-1245,-210,207,574
388,254,-135,-321,261,59,-727,-1625,-960,-354,-54,315
196,138,-59,-167,127,39,-282,-661,-326,-153,-47,185
62,59,-3,-60,32,27,-44,-235,-94,-119,-61,78
42,14,-28,-28,35,-7,29,-108,-18,-97,-50,34
10,14,3,-12,3,8,54,-76,5,-92,-58,28
7,-5,-12,-1,10,-8,56,-47,18,-84,-53,20
-20,-12,9,16,-14,-1,70,-24,31,-83,-53,14
-25,-18,7,21,-16,-6,62,-24,45,-80,-47,4
-33,-15,19,23,-25,2,69,-9,53,-76,-44,2
-25,-15,10,20,-17,-2,79,-7,47,-75,-42,5
-21,-12,8,16,-14,-2,78,4,54,-71,-35,5
-14,-8,5,10,-10,-1,74,8,72,-68,-38,5
-12,-12,-1,12,-5,-6,71,17,76,-64,-41,5
-21,-20,2,20,-11,-9,67,21,74,-61,-38,5
-8,-18,-10,13,1,-14,63,33,74,-56,-35,8
-4,-14,-10,9,4,-12,57,52,68,-54,-32,11
-6,-10,-4,8,-1,-7,49,62,87,-48,-30,10
-3,-8,-5,6,2,-6,43,78,101,-42,-28,11
0,3,3,-2,-1,3,34,101,106,-38,-21,18
27,21,-6,-24,16,7,28,121,122,-31,-17,19
43,20,-23,-32,33,-1,33,154,138,-27,-11,24
25,18,-7,-21,16,5,36,179,157,-20,-5,40
29,28,-1,-29,15,14,35,197,172,-12,-1,44
33,50,18,-42,7,34,31,229,193,-3,12,46
20,53,33,-37,-7,43,30,235,218,9,30,55
34,57,23,-46,5,40,29,234,236,24,46,66
55,77,22,-66,16,49,15,237,252,43,64,80
79,94,15,-87,32,54,-12,217,257,63,79,95
95,108,13,-102,41,60,-43,172,247,71,92,111
95,99,5,-97,45,52,-59,113,233,63,97,119
102,95,-6,-98,54,44,-75,58,206,53,87,106
108,82,-26,-94,66,28,-82,-1,169,42,73,88
101,46,-55,-73,78,-4,-84,-41,132,24,52,69
76,31,-45,-53,60,-6,-75,-71,88,-1,20,45
48,20,-28,-34,38,-4,-60,-97,61,-25,-10,18
8,-9,-17,1,13,-13,-61,-101,57,-46,-27,3
-32,-31,1,32,-17,-15,-59,-99,54,-53,-37,-2
-24,-30,-7,27,-9,-18,-61,-101,50,-60,-44,-10
3,-29,-32,13,17,-30,-59,-109,47,-78,-49,-15
2,-42,-44,20,23,-43,-61,-110,43,-81,-53,-23
-11,-51,-40,31,15,-45,-55,-105,40,-79,-54,-23
-14,-50,-36,32,11,-42,-53,-104,37,-81,-59,-20
-21,-50,-29,36,4,-40,-69,-100,35,-79,-66,-20
-25,-50,-25,37,0,-37,-66,-99,32,-80,-64,-20
-33,-51,-18,42,-7,-34,-59,-94,29,-73,-71,-26
-34,-47,-13,41,-10,-30,-55,-89,31,-81,-77,-25
-7,-39,-32,23,12,-35,-47,-85,28,-95,-72,-25
13,-32,-45,10,29,-38,-46,-80,35,-91,-70,-25
-5,-27,-22,17,9,-24,-55,-75,50,-86,-66,-25
-52,-48,4,50,-28,-21,-61,-79,50,-83,-65,-25
-44,-62,-18,53,-13,-39,-60,-84,51,-77,-62,-20
-8,-54,-45,31,19,-49,-60,-80,55,-73,-59,-20
-25,-51,-26,39,0,-38,-60,-80,55,-70,-60,-19
-45,-46,-1,45,-21,-23,-59,-80,53,-70,-55,-15
-24,-42,-18,33,-3,-30,-64,-80,48,-70,-55,-14
2,-37,-39,18,21,-38,-75,-79,45,-70,-54,-19
-5,-27,-22,16,9,-25,-75,-84,42,-70,-50,-30
-38,-41,-2,40,-18,-21,-75,-91,37,-74,-50,-31
-30,-52,-22,41,-4,-37,-75,-90,34,-75,-49,-28
-6,-49,-43,28,18,-46,-74,-88,31,-76,-58,-35
-11,-49,-38,30,14,-43,-78,-86,26,-80,-60,-33
-4,-45,-41,24,19,-43,-80,-83,24,-79,-61,-35
-5,-44,-39,25,17,-41,-81,-88,19,-82,-71,-51
-7,-48,-41,28,17,-44,-79,-100,16,-85,-68,-47
-12,-49,-37,31,12,-43,-84,-100,16,-85,-64,-40
-23,-51,-28,37,3,-39,-96,-99,26,-81,-62,-39
-28,-48,-20,39,-4,-34,-94,-100,36,-80,-55,-31
-41,-51,-10,46,-15,-30,-95,-100,31,-80,-58,-33
-31,-65,-34,48,2,-49,-95,-98,29,-75,-65,-45
-18,-65,-48,42,15,-56,-95,-95,24,-75,-65,-45
-20,-65,-44,43,12,-54,-92,-91,21,-75,-65,-45
-21,-65,-44,44,12,-54,-78,-90,17,-75,-65,-45
-25,-65,-41,45,8,-52,-93,-85,15,-75,-65,-45
-24,-62,-38,43,7,-50,-107,-86,15,-75,-63,-43
-15,-60,-45,37,15,-52,-99,-90,11,-75,-59,-39
-5,-60,-55,33,25,-57,-96,-87,10,-75,-57,-41
-9,-60,-51,34,21,-55,-92,-78,9,-71,-54,-36
-15,-60,-45,38,15,-52,-85,-72,23,-62,-51,-35
3,-42,-45,20,24,-44,-88,-66,36,-55,-50,-35
48,-17,-65,-15,57,-41,-105,-34,57,-41,-38,-30
66,3,-64,-34,65,-30,-105,-1,84,-32,-23,-30
67,-6,-72,-30,70,-39,-110,29,82,-22,-27,-30
57,-30,-87,-14,72,-58,-147,-35,65,-26,-30,-30
28,-39,-67,6,48,-53,-159,-116,30,-47,-35,-29
31,-59,-90,15,61,-74,-147,-108,12,-57,-40,-33
39,-65,-104,13,71,-84,-138,-111,15,-61,-40,-36
15,-59,-74,22,45,-66,-127,-105,5,-70,-54,-34
-10,-88,-78,49,34,-82,-123,-105,-5,-80,-73,-54
-31,-104,-73,68,21,-88,-116,-106,-11,-93,-84,-67
-29,-97,-69,63,20,-83,-114,-111,-24,-88,-86,-64
-41,-102,-61,72,10,-81,-108,-106,-28,-91,-83,-65
-50,-98,-48,74,-1,-73,-105,-104,-32,-103,-88,-65
-51,-102,-51,77,0,-76,-96,-106,-34,-95,-82,-65
-62,-98,-35,80,-14,-66,-85,-103,-31,-100,-87,-65
-37,-106,-69,71,16,-87,-44,-16,32,-80,-100,-95
-80,-85,-4,83,-38,-44,45,255,247,-16,-76,-100
303,132,-170,-217,236,-19,-310,-182,355,395,319,170
797,441,-356,-619,576,42,-912,-1428,-139,680,752,593
661,521,-140,-591,401,190,-1122,-2254,-1043,55,390,607
429,281,-148,-354,288,67,-1004,-1965,-1189,-397,-44,326
232,101,-131,-167,181,-15,-598,-958,-542,-211,-58,163
87,48,-39,-67,63,4,-258,-306,-155,-108,-70,58
14,-44,-58,15,36,-51,-151,-101,-54,-92,-63,-14
-29,-55,-26,42,-1,-41,-107,-35,-14,-87,-65,-43
-24,-61,-37,43,6,-49,-104,-24,-12,-83,-66,-56
-49,-72,-24,61,-13,-48,-87,7,3,-74,-61,-54
-53,-72,-20,63,-16,-46,-82,8,3,-73,-62,-55
-66,-83,-17,75,-24,-50,-79,31,14,-64,-58,-57
-40,-74,-34,57,-2,-54,-80,33,18,-63,-61,-55
-31,-74,-43,52,6,-58,-80,41,31,-57,-59,-59
-37,-68,-32,53,-2,-50,-79,55,37,-53,-60,-70
-30,-64,-34,47,3,-49,-79,59,39,-48,-55,-70
-45,-70,-25,58,-9,-47,-74,77,46,-44,-55,-70
-43,-68,-26,56,-8,-47,-76,82,43,-41,-54,-70
-19,-54,-34,37,8,-44,-74,88,50,-38,-49,-70
-13,-60,-47,37,18,-53,-75,99,50,-33,-51,-69
-21,-71,-51,46,15,-61,-75,123,61,-30,-47,-65
-15,-64,-50,39,18,-57,-71,144,78,-26,-41,-63
-13,-61,-48,37,18,-54,-69,154,78,-20,-34,-60
-12,-56,-44,35,16,-50,-65,179,85,-14,-28,-56
-6,-52,-46,30,20,-49,-64,205,101,-9,-21,-55
4,-44,-48,20,26,-45,-58,232,119,-3,-15,-50
31,-22,-53,-4,43,-37,-65,254,135,9,-8,-42
47,-7,-54,-20,51,-30,-69,264,156,24,4,-34
39,2,-37,-20,38,-18,-75,271,174,34,15,-26
44,16,-28,-30,36,-6,-86,259,185,51,35,-19
73,37,-36,-55,54,1,-97,248,194,73,55,-4
75,52,-23,-63,49,14,-115,230,183,84,68,13
76,49,-27,-62,51,11,-135,179,176,78,76,22
101,36,-66,-68,83,-15,-160,123,163,69,73,11
97,26,-71,-61,84,-22,-170,64,125,60,66,-4
87,8,-79,-47,83,-35,-169,16,87,51,42,-17
61,-21,-82,-20,71,-51,-164,-14,55,32,4,-38
32,-38,-70,3,52,-54,-158,-41,31,5,-24,-68
20,-58,-78,19,49,-67,-153,-51,8,-18,-45,-95
1,-71,-72,35,37,-71,-147,-57,-12,-36,-73,-103
0,-70,-71,35,35,-70,-143,-61,-22,-42,-82,-107
-1,-68,-68,35,34,-68,-139,-60,-30,-53,-79,-110
-15,-79,-64,48,25,-71,-140,-60,-33,-56,-81,-110
-28,-91,-63,60,17,-77,-140,-60,-35,-54,-80,-114
-33,-90,-57,61,12,-73,-140,-59,-51,-56,-79,-115
-19,-90,-71,54,26,-80,-140,-56,-57,-54,-86,-115
-10,-90,-81,50,35,-85,-135,-53,-54,-56,-91,-115
-17,-90,-73,53,28,-81,-135,-51,-56,-56,-90,-115
-17,-87,-70,52,27,-78,-134,-47,-55,-55,-90,-115
-19,-84,-65,52,23,-74,-129,-45,-54,-55,-90,-115
-20,-81,-61,51,20,-71,-131,-42,-49,-55,-90,-115
-22,-79,-56,51,17,-67,-127,-37,-46,-56,-87,-115
-23,-74,-51,49,15,-63,-125,-31,-43,-52,-84,-115
-30,-77,-47,53,9,-62,-125,-27,-38,-50,-86,-115
-39,-81,-42,60,2,-62,-121,-19,-35,-50,-84,-115
-41,-80,-39,61,-1,-59,-119,-17,-31,-46,-86,-115
-46,-80,-34,63,-6,-56,-121,-25,-30,-45,-83,-111
-32,-75,-43,54,6,-59,-124,-25,-29,-45,-80,-110
-23,-75,-52,49,15,-63,-125,-25,-26,-40,-80,-110
-27,-76,-49,52,11,-62,-125,-25,-25,-40,-80,-110
-32,-82,-50,57,9,-66,-125,-25,-26,-40,-80,-110
-39,-89,-50,64,6,-70,-125,-24,-36,-40,-80,-110
-42,-90,-48,66,3,-69,-123,-20,-42,-40,-84,-110
-33,-90,-58,62,13,-74,-118,-20,-37,-40,-85,-110
-22,-88,-66,56,22,-77,-115,-20,-35,-40,-85,-110
-32,-97,-65,65,17,-81,-112,-21,-32,-40,-89,-110
-39,-101,-62,71,12,-82,-107,-19,-29,-40,-90,-110
-36,-96,-60,66,12,-77,-104,-25,-36,-40,-89,-106
-35,-95,-60,65,13,-77,-100,-31,-41,-40,-85,-105
-30,-90,-60,60,15,-75,-100,-25,-40,-40,-85,-105
-22,-90,-68,56,23,-79,-100,-23,-40,-40,-83,-101
-24,-95,-71,60,24,-83,-100,-18,-40,-40,-79,-99
-24,-93,-69,59,23,-81,-100,-15,-40,-40,-80,-102
-31,-102,-71,66,20,-86,-97,-11,-36,-40,-76,-105
-37,-106,-69,71,17,-87,-95,-10,-34,-37,-75,-105
-31,-101,-70,66,20,-85,-92,-10,-36,-35,-75,-105
-21,-99,-78,60,28,-89,-89,-5,-34,-35,-75,-105
-16,-95,-79,56,32,-87,-86,-5,-36,-31,-75,-105
-23,-95,-71,59,24,-83,-84,-4,-33,-30,-74,-100
-21,-90,-70,56,25,-80,-80,4,-26,-31,-68,-92
-25,-87,-63,56,19,-75,-72,18,-16,-30,-60,-86
-21,-81,-60,51,20,-70,-69,22,-9,-20,-55,-79
3,-63,-66,30,35,-65,-59,46,7,-3,-47,-71
29,-43,-71,7,50,-57,-66,82,33,13,-41,-59
51,-43,-94,-4,73,-68,-98,109,40,31,-30,-58
34,-69,-103,18,69,-86,-127,63,23,18,-29,-60
5,-78,-83,37,44,-80,-128,-27,-16,-1,-54,-60
22,-81,-103,30,63,-92,-127,-28,-37,-9,-62,-65
44,-86,-130,21,88,-108,-126,-11,-35,-17,-59,-65
5,-89,-94,42,49,-92,-84,0,-34,-26,-67,-66
-19,-111,-92,65,37,-102,-75,-10,-57,-42,-83,-80
-29,-126,-97,78,34,-111,-77,-17,-76,-54,-91,-90
-49,-127,-79,88,15,-103,-64,-11,-70,-53,-94,-89
-48,-124,-77,86,15,-101,-59,-10,-62,-51,-100,-94
-43,-115,-72,79,15,-93,-50,-3,-56,-49,-99,-91
-25,-115,-89,70,32,-102,-40,-4,-50,-44,-92,-85
-45,-101,-55,73,5,-78,-26,9,-40,-44,-92,-74
-54,-135,-81,94,14,-108,14,72,-3,-39,-100,-98
-128,-134,-6,131,-61,-70,131,356,214,-10,-115,-134
196,48,-148,-122,172,-50,-141,111,382,389,237,92
774,368,-406,-571,590,-19,-755,-1022,-66,760,759,558
640,554,-86,-597,363,234,-1008,-1967,-1002,204,491,675
362,328,-34,-344,198,147,-915,-1885,-1285,-351,-6,396
232,106,-126,-169,179,-10,-551,-957,-670,-210,-58,187
78,47,-31,-62,54,8,-200,-255,-215,-66,-61,60
29,-47,-76,9,53,-61,-87,-7,-77,-34,-61,-20
-21,-69,-48,45,14,-58,-28,76,-17,-23,-58,-41
-21,-78,-57,50,18,-67,-16,82,-16,-25,-62,-57
-24,-82,-57,54,16,-69,-7,118,1,-15,-56,-52
-28,-90,-62,60,17,-76,3,124,2,-15,-57,-50
-28,-97,-69,63,21,-83,-4,142,12,-7,-54,-51
-27,-88,-61,58,17,-74,3,149,17,-6,-54,-49
-20,-88,-68,54,24,-78,12,160,23,-5,-49,-51
-19,-82,-63,51,22,-72,11,167,36,-3,-51,-49
-14,-79,-65,47,25,-72,10,164,41,0,-46,-46
-25,-82,-57,54,16,-69,9,173,38,0,-45,-45
-42,-94,-52,69,5,-73,18,187,45,3,-45,-44
-44,-92,-48,68,2,-70,26,202,51,7,-40,-39
-46,-87,-41,67,-2,-63,25,206,50,8,-40,-40
-48,-84,-36,66,-6,-59,23,222,59,12,-39,-38
-15,-80,-64,48,24,-72,20,240,72,14,-30,-32
-8,-80,-73,44,33,-76,20,250,91,16,-20,-29
-17,-76,-59,47,21,-67,17,267,103,24,-10,-23
-12,-66,-54,39,21,-60,14,294,119,31,0,-20
-15,-60,-45,37,15,-52,12,326,139,43,11,-11
7,-43,-50,18,29,-46,8,340,161,59,20,2
28,-22,-49,-3,39,-35,6,346,180,74,30,13
45,-5,-50,-20,48,-27,3,365,200,91,47,31
70,20,-50,-45,60,-15,-2,357,217,104,56,37
70,20,-50,-45,60,-15,-9,337,226,120,78,55
77,29,-48,-53,62,-9,-26,318,226,135,100,78
80,50,-30,-65,55,10,-49,276,215,139,107,76
84,32,-52,-58,68,-10,-70,208,200,146,101,65
80,20,-60,-50,70,-20,-80,163,173,140,86,53
68,11,-56,-39,62,-22,-74,139,135,112,69,43
63,-8,-71,-27,67,-40,-67,101,90,83,45,21
32,-23,-55,-4,44,-39,-61,81,53,52,15,-8
-3,-52,-49,27,24,-50,-54,71,35,30,-6,-20
-16,-67,-51,41,18,-58,-50,60,19,25,-15,-31
-16,-65,-49,41,17,-57,-50,60,8,20,-31,-43
-25,-76,-51,50,13,-63,-50,60,4,14,-41,-50
-22,-75,-53,49,16,-64,-50,59,-2,9,-40,-50
-18,-75,-56,47,19,-66,-50,61,-7,4,-40,-50
-22,-75,-54,49,16,-64,-50,58,-13,-1,-40,-50
-17,-74,-57,46,21,-66,-49,55,-13,-4,-39,-52
-16,-75,-59,46,22,-67,-54,55,-8,-7,-44,-57
-2,-63,-62,33,30,-62,-57,53,-5,-12,-51,-59
-20,-72,-53,46,17,-62,-38,49,-2,-15,-49,-56
-44,-86,-42,65,-1,-63,-10,49,2,-12,-54,-51
-30,-79,-49,55,10,-64,11,69,6,-9,-61,-49
-36,-72,-36,54,1,-54,21,77,-2,-6,-55,-44
-40,-66,-26,54,-7,-46,30,74,-9,-3,-51,-41
-36,-58,-22,47,-7,-40,39,75,-1,-1,-46,-37
-43,-56,-13,49,-15,-34,41,76,8,2,-41,-35
-56,-64,-9,60,-23,-36,39,90,16,5,-37,-35
-65,-64,1,64,-33,-31,36,87,20,5,-34,-35
-45,-58,-13,52,-16,-35,35,81,19,5,-35,-35
-25,-57,-31,41,3,-43,34,78,23,5,-35,-35
-21,-50,-29,35,4,-40,29,72,25,1,-35,-35
-21,-51,-30,36,5,-41,24,69,25,-1,-34,-35
-29,-59,-30,44,1,-44,19,64,22,0,-31,-36
-31,-61,-30,46,-1,-46,16,66,19,-1,-29,-34
-29,-59,-30,44,0,-44,9,62,16,1,-25,-37
-35,-56,-21,46,-6,-39,18,60,13,-1,-23,-45
-36,-54,-18,45,-8,-36,34,60,11,1,-18,-45
-55,-57,-2,56,-26,-29,35,57,8,2,-25,-44
-78,-65,13,71,-45,-26,36,54,5,0,-38,-40
-68,-63,5,65,-37,-28,39,51,5,0,-42,-40
-61,-59,2,60,-31,-28,40,49,3,-12,-45,-39
-53,-56,-3,55,-24,-29,39,44,-1,-15,-45,-34
-44,-51,-7,48,-19,-29,34,49,0,-9,-45,-36
-35,-48,-14,42,-10,-31,31,56,3,-7,-45,-32
-23,-44,-21,34,-1,-32,28,55,6,-2,-45,-30
-19,-38,-19,29,0,-28,24,53,10,0,-42,-30
-14,-35,-21,24,4,-27,19,51,11,5,-38,-34
-11,-30,-19,20,4,-24,27,48,16,12,-35,-39
-4,-25,-22,14,9,-23,37,55,14,15,-32,-30
-23,-36,-13,30,-4,-24,40,71,25,23,-29,-20
-38,-24,14,31,-26,-5,33,80,48,27,-13,-10
-30,-8,23,19,-26,8,39,94,63,34,6,0
-11,-8,4,9,-7,-2,44,122,91,60,12,5
35,1,-34,-18,35,-16,6,131,96,70,20,11
36,-8,-45,-14,41,-26,-26,74,65,52,24,14
7,-17,-25,5,16,-21,-42,31,18,39,16,5
3,-28,-31,13,17,-29,-45,35,14,33,4,-4
15,-42,-57,14,36,-49,-22,43,34,29,-4,-12
-1,-42,-41,22,20,-42,15,50,21,20,-19,-22
-30,-65,-36,48,3,-50,37,39,16,11,-34,-32
-41,-79,-38,61,-1,-59,33,36,13,-4,-44,-44
-52,-78,-26,65,-13,-52,37,26,10,-15,-44,-48
-54,-75,-21,65,-16,-48,31,22,8,-27,-46,-51
-67,-69,-2,68,-32,-35,26,25,5,-24,-45,-49
-63,-69,-5,66,-29,-37,43,44,3,-25,-44,-51
-55,-61,-6,58,-24,-33,43,34,-6,-27,-47,-49
-104,-100,3,102,-53,-48,133,168,88,-19,-66,-83
-102,-52,50,77,-75,-1,189,384,387,99,-17,-77
365,206,-159,-285,262,23,-246,-169,433,677,530,297
710,547,-162,-629,436,192,-802,-1327,-366,816,899,753
462,619,157,-541,152,388,-947,-1973,-1306,30,427,725
304,317,13,-311,146,164,-764,-1532,-1175,-306,72,415
149,129,-20,-139,84,54,-358,-623,-471,-119,42,196
13,70,57,-41,-23,63,-70,-124,-116,-27,6,85
-16,-10,5,13,-10,-3,18,46,3,16,10,25
-52,-18,34,35,-43,8,53,82,27,12,-4,3
-30,-21,8,25,-19,-6,62,113,52,20,-7,-1
-41,-27,14,34,-27,-6,79,138,74,21,-17,-6
-46,-30,16,38,-31,-7,72,134,71,19,-18,-12
-56,-30,26,43,-41,-2,71,158,88,21,-14,-18
-51,-29,21,40,-36,-4,68,152,84,19,-16,-20
-44,-31,13,37,-28,-9,63,157,85,21,-10,-20
-43,-29,14,36,-29,-7,70,153,86,22,-10,-20
-29,-26,3,27,-16,-11,75,157,83,29,-10,-20
-32,-25,7,28,-19,-9,76,176,92,30,-5,-20
-38,-24,14,31,-26,-5,73,181,111,30,0,-20
-30,-20,11,25,-21,-4,70,197,109,30,5,-16
-25,-20,5,22,-15,-7,70,212,113,30,9,-11
-20,-18,2,19,-11,-8,72,220,116,36,13,-9
-9,-14,-5,12,-1,-9,72,228,124,48,18,-4
-13,-12,1,12,-7,-5,68,244,148,57,19,-1
-13,-6,7,9,-10,0,66,263,161,63,33,3
-8,-6,2,7,-4,-2,63,287,180,69,43,11
7,7,0,-7,4,3,59,312,195,71,44,19
32,27,-5,-29,18,10,62,327,218,90,58,27
39,37,-2,-38,20,17,56,336,239,107,74,34
42,54,12,-48,15,33,49,334,257,117,91,44
50,60,10,-55,20,35,42,336,274,138,105,61
73,75,2,-74,35,38,34,317,269,154,123,71
90,86,-4,-87,46,41,27,268,263,172,141,89
87,76,-11,-81,49,32,21,217,256,178,156,112
89,72,-17,-80,53,27,19,169,234,167,150,105
90,66,-23,-78,56,21,16,130,196,158,127,82
77,55,-23,-66,50,16,14,93,148,133,102,58
47,31,-16,-39,32,7,9,67,110,99,59,19
27,15,-11,-21,19,2,13,53,88,66,29,-5
8,2,-6,-4,7,-2,29,40,73,46,23,-10
-17,-16,0,17,-8,-8,30,34,62,41,16,-18
-26,-21,4,23,-15,-8,30,29,52,34,9,-24
-20,-19,0,20,-10,-10,30,24,42,26,3,-31
-15,-20,-5,18,-5,-12,30,20,33,19,-4,-36
-27,-35,-8,31,-9,-22,29,15,28,12,-11,-45
-27,-42,-14,35,-7,-28,25,19,22,10,-18,-51
-23,-36,-13,29,-5,-24,25,20,19,10,-23,-49
-27,-35,-7,31,-9,-21,25,20,13,10,-26,-53
-28,-31,-2,30,-13,-16,25,19,12,10,-24,-55
-30,-29,1,30,-16,-14,25,14,28,10,-27,-55
-33,-26,7,29,-19,-9,29,23,31,10,-34,-52
-34,-24,9,29,-21,-7,29,31,29,10,-30,-47
-31,-26,6,28,-18,-10,25,29,31,9,-22,-44
-29,-24,4,26,-16,-10,25,30,29,16,-17,-41
-32,-26,6,28,-18,-10,25,30,32,21,-8,-35
-26,-22,4,24,-15,-9,25,30,31,19,-6,-37
-26,-20,6,22,-16,-6,25,26,30,20,-20,-44
-23,-20,2,21,-13,-9,25,25,30,20,-26,-47
-9,-17,-8,13,0,-12,25,25,25,20,-24,-50
-23,-14,8,18,-15,-3,25,20,25,18,-28,-48
-33,-16,18,24,-25,1,25,20,24,14,-30,-44
-30,-20,10,25,-20,-5,25,19,19,12,-30,-45
-29,-20,10,24,-19,-5,24,15,21,9,-30,-45
-26,-22,4,24,-14,-9,19,13,17,6,-30,-45
-27,-25,2,26,-14,-11,16,9,14,4,-30,-56
-16,-25,-9,21,-3,-16,13,7,16,1,-31,-68
-14,-30,-16,22,1,-23,8,4,11,-1,-29,-71
-23,-30,-8,27,-8,-19,6,2,10,1,-33,-75
-24,-29,-5,27,-10,-17,0,-1,9,-1,-45,-75
-31,-30,0,31,-16,-15,4,-4,6,1,-45,-75
-34,-30,5,31,-19,-12,17,-6,4,-4,-46,-75
-32,-31,1,31,-16,-14,13,-10,9,-11,-50,-75
-25,-35,-9,30,-8,-22,10,-10,16,-10,-50,-75
-20,-33,-13,27,-3,-23,8,-10,11,-10,-48,-75
-17,-27,-11,22,-3,-19,4,-10,8,-10,-43,-75
-15,-23,-7,19,-4,-14,8,-10,5,-10,-40,-76
-14,-19,-4,17,-5,-11,12,-17,0,-7,-37,-77
4,-14,-18,5,11,-16,18,-7,3,2,-32,-71
1,-10,-11,4,6,-10,21,8,18,13,-30,-66
-15,-2,14,8,-15,6,26,22,39,22,-30,-61
11,13,2,-12,4,7,31,45,57,34,-30,-55
42,17,-24,-29,33,-3,6,73,85,43,-30,-50
55,8,-47,-31,51,-20,-26,72,81,31,-30,-45
54,-5,-59,-24,56,-32,-49,-7,27,20,-30,-48
41,-16,-57,-13,50,-36,-53,-53,2,13,-32,-56
36,-29,-65,-3,50,-47,-42,-49,-3,7,-36,-53
9,-32,-41,12,25,-36,-34,-50,-13,2,-33,-61
-25,-53,-27,39,1,-40,-11,-50,-22,-5,-49,-88
-41,-87,-46,64,3,-66,-4,-50,-26,-10,-67,-101
-50,-84,-34,68,-8,-59,2,-49,-24,-19,-73,-108
-48,-85,-37,67,-5,-61,4,-52,-27,-22,-78,-115
-44,-85,-41,65,-1,-63,10,-47,-22,-34,-81,-115
-33,-84,-51,59,10,-67,16,-54,-29,-34,-83,-115
-57,-85,-29,71,-14,-57,4,-47,-16,-44,-85,-115
-48,-76,-28,62,-10,-52,29,-31,3,-47,-90,-118
-92,-93,-2,92,-45,-47,136,199,141,-50,-124,-170
20,20,0,-20,10,10,52,201,417,215,75,-56
578,329,-249,-454,414,40,-523,-743,219,797,682,405
731,598,-132,-665,431,233,-985,-1857,-751,565,755,706
462,509,47,-485,207,278,-1008,-2105,-1389,-173,223,534
325,217,-107,-271,216,55,-723,-1347,-936,-243,17,268
134,94,-41,-114,87,26,-275,-475,-323,-91,-9,82
28,25,-3,-26,15,11,-68,-127,-86,-41,-40,-42
17,-20,-37,2,27,-28,-1,-23,-17,-23,-50,-77
-3,-40,-36,21,17,-38,26,-3,-15,-26,-65,-92
-21,-61,-40,41,10,-50,35,36,19,-16,-57,-97
-23,-52,-28,38,3,-40,54,59,39,-16,-61,-94
-22,-55,-32,38,5,-43,47,52,40,-9,-53,-96
-29,-49,-20,39,-4,-34,52,68,44,-21,-56,-95
-10,-49,-39,30,14,-44,48,74,45,-18,-53,-95
-7,-57,-50,32,22,-53,59,85,45,-12,-49,-91
-12,-52,-40,33,14,-45,67,97,45,-9,-51,-88
-29,-64,-35,47,3,-49,64,95,45,-3,-49,-85
-51,-79,-28,65,-11,-53,65,93,45,0,-51,-82
-49,-67,-18,58,-15,-43,66,106,45,5,-49,-80
-26,-60,-34,43,4,-46,62,113,52,10,-44,-78
-2,-53,-52,28,25,-52,83,134,64,15,-38,-72
-1,-44,-43,23,21,-43,102,150,71,18,-31,-67
-14,-53,-39,34,13,-46,100,163,78,25,-25,-64
-18,-54,-37,36,10,-45,99,191,91,24,-17,-59
-13,-40,-27,27,7,-33,106,210,113,34,-8,-55
-5,-45,-40,25,18,-42,116,225,124,49,3,-48
7,-37,-44,15,25,-40,115,251,150,54,12,-37
22,-9,-31,-6,26,-19,123,279,185,74,23,-28
38,6,-31,-22,34,-12,121,277,196,86,42,-16
57,19,-38,-37,47,-9,111,270,214,100,55,-3
79,36,-43,-57,61,-3,107,267,230,125,72,12
90,52,-38,-71,64,7,85,234,228,138,93,33
77,56,-21,-67,49,17,58,182,216,136,109,37
76,46,-31,-61,53,7,51,128,199,125,108,29
108,37,-71,-73,90,-17,46,78,170,118,98,23
100,29,-71,-64,85,-21,41,26,131,107,83,16
80,13,-67,-47,73,-27,35,-13,89,88,51,-2
64,-8,-72,-28,68,-40,29,-38,53,67,20,-31
26,-43,-68,9,47,-55,45,-53,35,49,-1,-45
12,-60,-72,24,42,-66,58,-56,22,27,-10,-57
5,-61,-66,28,36,-64,52,-67,10,11,-15,-70
-17,-77,-59,47,21,-68,49,-72,3,6,-23,-70
-42,-82,-40,62,-1,-60,48,-69,-4,1,-29,-70
-37,-79,-42,58,2,-60,41,-71,-12,-2,-36,-70
-9,-77,-69,43,30,-73,53,-83,-20,-8,-39,-70
-9,-74,-65,42,28,-69,64,-86,-23,-9,-41,-68
-37,-75,-39,56,1,-57,73,-81,-20,-4,-39,-64
-41,-86,-46,64,3,-66,90,-79,-17,-6,-43,-62
-25,-86,-61,56,18,-73,96,-76,-15,-3,-49,-59
-22,-76,-54,50,16,-65,100,-74,-11,1,-46,-56
-22,-72,-49,47,14,-60,100,-71,-11,-1,-45,-54
-17,-64,-46,41,15,-55,112,-67,-3,4,-45,-51
-15,-59,-44,38,14,-51,116,-63,14,8,-45,-50
-7,-53,-46,31,19,-49,111,-61,15,13,-45,-50
7,-48,-56,21,32,-52,110,-53,14,14,-43,-50
9,-41,-50,16,30,-45,106,-67,24,9,-39,-50
2,-49,-51,24,26,-50,104,-82,25,10,-37,-47
-18,-71,-53,45,18,-62,100,-79,21,7,-34,-45
-14,-73,-59,44,22,-65,95,-81,19,4,-31,-42
1,-65,-67,32,34,-65,90,-75,16,5,-29,-39
-7,-62,-55,34,24,-58,87,-91,14,1,-26,-35
4,-54,-58,26,31,-56,80,-103,11,0,-25,-36
-15,-50,-34,33,10,-42,89,-98,6,0,-25,-46
-21,-56,-35,39,7,-45,102,-105,4,0,-25,-44
3,-60,-62,29,33,-61,99,-105,-1,1,-25,-41
0,-52,-52,26,26,-52,100,-105,-5,-2,-27,-39
16,-49,-66,17,41,-57,100,-105,-3,-5,-30,-34
-8,-68,-60,38,26,-64,100,-105,1,-5,-30,-36
-19,-75,-56,47,19,-65,104,-105,0,-5,-30,-40
3,-66,-69,32,36,-67,102,-105,0,-5,-30,-40
-5,-65,-59,35,27,-62,99,-105,0,-5,-29,-39
2,-58,-60,28,31,-59,100,-105,0,-2,-26,-45
1,-55,-55,28,28,-55,100,-105,5,1,-25,-47
-10,-64,-53,37,22,-58,100,-105,9,-1,-25,-44
-2,-66,-64,34,32,-64,99,-113,14,1,-25,-45
7,-61,-68,27,38,-64,94,-115,15,-1,-25,-45
-2,-59,-58,31,28,-58,95,-105,16,2,-23,-45
-2,-56,-54,29,26,-54,106,-100,14,9,-16,-44
-9,-54,-45,32,18,-50,112,-88,15,17,-9,-35
-7,-47,-39,27,16,-43,107,-86,30,26,-2,-27
22,-32,-54,5,38,-43,121,-65,51,30,4,-18
31,-26,-56,-2,44,-41,135,-42,80,55,14,-10
44,-24,-68,-10,57,-46,112,-16,93,64,27,-2
65,-25,-91,-20,78,-58,73,-30,81,51,33,4
75,-21,-96,-27,86,-58,45,-126,37,32,27,-3
56,-45,-101,-5,79,-73,46,-151,5,36,23,-9
43,-70,-113,14,78,-91,66,-141,19,32,20,-16
31,-70,-101,20,66,-86,85,-145,29,17,3,-22
3,-80,-83,39,43,-82,111,-138,14,14,-17,-32
-6,-83,-76,45,35,-79,119,-140,-5,-14,-26,-45
-25,-99,-74,63,24,-87,108,-138,-7,154,-29,-38
-24,-84,-59,54,18,-71,130,-132,-3,310,-31,-43
-41,-105,-63,73,12,-84,133,-139,2,266,-29,-37
-38,-87,-49,62,6,-68,138,-131,6,239,-31,-43
99,1,-97,-50,98,-48,130,-138,11,185,-29,-37
118,0,-117,-59,118,-58,152,-80,27,122,-32,-50
