I,II,III,aVR,aVL,aVF,V1,V2,V3,V4,V5,V6
23,259,236,-142,-107,247,-6,-12,-12,28,73,78
-3,248,252,-123,-128,250,-12,-40,-53,-5,41,56
-55,217,272,-81,-164,244,-23,-97,-122,-67,-11,16
-91,188,279,-49,-186,233,-30,-139,-160,-104,-44,-11
-102,181,283,-40,-193,232,-30,-150,-185,-126,-62,-16
-110,176,286,-33,-199,231,-30,-161,-191,-136,-65,-15
-112,171,283,-30,-198,227,-30,-163,-197,-135,-60,-20
-116,164,280,-24,-199,222,-31,-159,-201,-135,-60,-20
-116,161,277,-23,-197,219,-27,-157,-199,-131,-60,-20
-110,165,275,-28,-193,220,-25,-154,-197,-130,-60,-20
-108,165,272,-29,-191,218,-25,-151,-194,-130,-60,-20
-105,165,269,-30,-187,217,-22,-149,-195,-130,-63,-18
-105,165,270,-30,-188,217,-19,-145,-191,-130,-65,-14
-101,165,266,-32,-184,216,-21,-145,-188,-130,-65,-16
-100,164,264,-32,-183,214,-24,-144,-185,-130,-65,-11
-107,159,266,-27,-186,212,-25,-140,-182,-130,-65,-10
-106,160,267,-27,-187,213,-25,-140,-179,-130,-64,-10
-107,157,265,-25,-186,211,-25,-142,-182,-130,-61,-5
-107,154,261,-24,-185,207,-25,-149,-186,-130,-58,-5
-104,155,259,-26,-182,207,-22,-155,-184,-130,-55,-5
-104,151,255,-24,-180,203,-20,-155,-189,-129,-53,-5
-105,150,255,-23,-180,202,-20,-155,-190,-132,-49,-5
-105,150,255,-23,-180,202,-16,-155,-190,-140,-53,-8
-105,150,255,-23,-180,202,-15,-154,-197,-140,-55,-10
-105,150,255,-23,-180,202,-14,-158,-201,-140,-56,-10
-106,148,255,-22,-180,201,-20,-160,-204,-140,-60,-10
-110,145,255,-18,-183,200,-26,-160,-209,-139,-60,-10
-110,143,252,-17,-181,197,-25,-163,-210,-141,-60,-10
-110,139,250,-15,-180,195,-25,-166,-210,-145,-60,-6
-113,137,250,-12,-182,193,-25,-164,-210,-145,-60,-5
-112,134,247,-11,-180,190,-24,-161,-210,-145,-60,-5
-112,132,244,-11,-178,187,-30,-160,-210,-145,-60,-5
-119,129,247,-5,-183,187,-34,-160,-210,-145,-57,-5
-126,126,252,0,-189,189,-30,-160,-210,-144,-54,-5
-120,123,243,-2,-182,183,-30,-160,-210,-140,-55,-5
-109,120,229,-6,-169,174,-28,-157,-210,-140,-51,-5
-103,120,223,-8,-163,171,-24,-155,-210,-140,-50,-5
-103,120,223,-9,-163,171,-25,-155,-210,-140,-50,-5
-108,120,228,-6,-168,174,-21,-155,-207,-140,-50,-6
-114,120,234,-3,-174,177,-20,-155,-204,-140,-50,-9
-109,120,229,-6,-169,174,-20,-155,-205,-140,-50,-10
-103,120,223,-9,-163,171,-20,-155,-201,-140,-50,-10
-102,116,218,-8,-160,167,-20,-155,-200,-140,-50,-10
-97,114,211,-9,-154,162,-21,-155,-200,-140,-50,-10
-98,115,213,-9,-156,164,-25,-155,-195,-139,-50,-8
-110,110,220,0,-165,165,-25,-155,-195,-134,-50,-4
-110,110,220,0,-165,165,-22,-153,-194,-131,-50,-2
-112,109,221,1,-166,165,-17,-149,-190,-128,-50,1
-115,111,226,1,-170,168,-14,-146,-191,-123,-50,4
-95,129,224,-18,-160,176,-11,-141,-186,-121,-43,5
-88,141,229,-27,-159,185,-6,-140,-172,-113,-32,12
-81,160,241,-40,-161,200,-5,-139,-158,-92,-22,23
-65,174,239,-54,-152,206,4,-141,-155,-84,-20,32
-59,182,241,-62,-150,212,-9,-138,-153,-86,-20,35
-53,182,236,-65,-145,209,-47,-145,-164,-84,-16,35
-57,168,225,-56,-141,196,-59,-166,-181,-87,-15,35
-57,155,212,-50,-135,183,-51,-163,-187,-83,-15,29
-66,138,203,-36,-135,170,-49,-168,-203,-86,-19,24
-77,123,201,-23,-139,162,-40,-162,-198,-100,-24,18
-86,103,189,-9,-138,146,-38,-169,-201,-115,-45,14
-101,94,194,3,-148,144,-30,-161,-201,-108,-61,6
-96,76,172,10,-134,124,-33,-159,-197,-103,-59,4
-113,80,193,17,-153,136,-38,-154,-202,-103,-62,-5
-113,61,174,25,-144,118,-27,-141,-174,-88,-57,-9
-139,64,203,37,-172,134,0,-135,-174,-103,-66,-14
-196,47,243,74,-219,145,222,121,-8,-25,-80,-72
37,66,29,-52,4,48,253,360,259,241,101,52
931,460,-471,-696,700,-5,-144,537,789,960,874,647
1322,651,-671,-986,996,-10,-432,232,943,1184,1294,1014
296,322,26,-309,134,174,-335,-569,-96,172,416,442
-358,-24,334,191,-346,155,-111,-628,-644,-432,-240,-85
-291,-152,139,221,-215,-7,-43,-355,-406,-320,-177,-84
-256,-61,195,158,-225,67,-20,-244,-291,-215,-135,-55
-109,56,165,26,-137,110,2,-110,-140,-97,-61,-7
-76,98,173,-11,-125,135,8,-64,-99,-61,-33,9
-74,97,171,-11,-123,134,23,-24,-79,-35,-17,16
-60,106,165,-23,-113,135,32,-12,-55,-26,-2,37
-49,118,167,-35,-109,143,47,1,-46,-14,2,37
-39,113,153,-37,-97,133,44,15,-24,10,18,47
-41,116,157,-38,-99,136,45,29,-18,23,20,61
-14,129,143,-58,-79,136,46,47,2,37,33,67
-7,137,143,-65,-75,140,43,63,12,42,38,64
10,145,135,-78,-63,139,51,88,37,53,46,66
21,151,130,-86,-54,141,57,108,63,68,55,73
28,153,124,-91,-48,138,70,141,88,93,66,77
38,156,118,-97,-40,137,87,181,121,109,84,86
56,161,106,-109,-25,133,100,228,160,139,103,106
86,178,92,-133,-3,135,119,285,205,171,110,112
115,187,72,-151,21,129,140,347,258,200,128,118
145,183,38,-164,53,110,165,415,314,242,155,134
180,198,18,-190,81,108,177,472,366,279,184,161
210,214,4,-212,103,109,174,521,421,318,218,186
234,216,-18,-224,125,99,165,549,459,354,249,207
263,229,-34,-246,148,97,155,535,477,379,278,232
270,227,-43,-248,156,92,144,493,465,381,296,242
253,218,-35,-235,143,92,111,412,405,360,291,228
208,201,-8,-204,108,96,72,292,317,299,250,196
138,162,24,-150,57,93,44,177,200,211,184,156
73,125,53,-99,10,89,29,80,95,126,117,114
7,87,80,-47,-37,84,21,12,15,52,61,78
-47,58,105,-6,-76,81,9,-39,-53,2,20,46
-59,49,109,5,-84,79,1,-71,-85,-32,2,26
-65,48,113,8,-89,80,0,-84,-100,-49,-8,24
-76,45,121,16,-99,82,0,-90,-109,-54,-21,21
-75,42,116,16,-96,78,0,-90,-110,-50,-29,18
-74,39,113,17,-94,76,0,-99,-110,-50,-34,16
-73,37,110,18,-92,73,1,-100,-109,-59,-35,13
-71,34,105,18,-88,69,8,-94,-105,-59,-35,10
-76,31,108,22,-92,69,10,-92,-105,-55,-35,10
-82,28,110,27,-96,69,10,-87,-106,-52,-35,10
-88,25,114,31,-102,69,10,-85,-105,-47,-34,10
-91,23,115,34,-103,69,10,-85,-105,-45,-30,10
-90,20,111,35,-100,65,10,-85,-103,-45,-30,10
-91,17,108,37,-100,63,10,-85,-100,-45,-28,10
-91,15,105,37,-99,60,10,-85,-100,-45,-25,9
-91,11,102,39,-97,57,10,-85,-103,-45,-25,13
-90,10,100,41,-95,55,10,-87,-108,-45,-29,21
-88,10,98,38,-93,54,10,-91,-112,-47,-30,18
-83,10,92,36,-87,51,10,-98,-115,-54,-30,15
-77,10,87,33,-82,48,6,-101,-118,-60,-30,13
-74,10,84,31,-79,46,5,-99,-120,-60,-30,9
-68,10,79,29,-73,44,5,-101,-124,-61,-30,10
-65,9,75,28,-70,41,0,-99,-125,-65,-26,10
-68,2,70,33,-69,36,0,-101,-125,-65,-25,10
-72,-2,70,37,-71,34,-1,-104,-129,-62,-25,10
-77,-8,69,42,-73,30,-5,-106,-131,-59,-25,10
-78,-14,64,45,-71,25,-5,-110,-128,-60,-25,10
-84,-19,66,51,-75,23,-5,-107,-125,-56,-26,5
-88,-26,62,57,-75,18,-5,-104,-125,-55,-30,5
-83,-24,59,54,-71,17,-5,-105,-125,-55,-26,5
-92,-31,60,61,-76,14,-2,-105,-125,-50,-25,5
-97,-41,56,69,-77,7,1,-105,-125,-50,-25,5
-95,-40,55,67,-75,7,4,-105,-121,-50,-20,5
-93,-38,54,65,-73,8,7,-105,-120,-50,-20,5
-86,-36,51,61,-68,7,10,-105,-120,-50,-21,5
-82,-34,48,58,-65,7,9,-105,-115,-50,-25,5
-84,-38,45,61,-64,3,4,-105,-115,-50,-25,5
-82,-39,42,60,-62,1,6,-105,-113,-50,-25,5
-82,-42,40,62,-61,-1,2,-102,-110,-50,-25,0
-96,-58,38,77,-67,-10,0,-99,-110,-50,-25,0
-95,-61,34,78,-65,-13,0,-100,-110,-49,-25,-1
-94,-59,35,76,-65,-12,0,-96,-110,-46,-25,-5
-95,-60,35,77,-65,-12,0,-95,-110,-45,-25,-5
-94,-60,35,77,-65,-12,0,-95,-118,-45,-25,-3
-94,-59,35,76,-65,-11,0,-91,-117,-45,-25,2
-82,-53,29,67,-56,-11,0,-86,-111,-46,-24,5
-79,-47,32,63,-55,-8,1,-84,-107,-43,-18,8
-70,-42,28,56,-48,-7,9,-79,-99,-33,-11,13
-68,-29,39,49,-54,5,16,-76,-95,-22,-4,16
-63,-2,62,32,-62,30,23,-77,-84,-12,3,19
-46,8,54,19,-50,30,33,-81,-69,-3,9,31
-56,-4,51,30,-53,23,36,-83,-63,8,13,36
-42,-2,40,22,-41,19,6,-85,-69,13,17,30
-36,12,48,12,-42,30,-28,-107,-85,3,19,27
-39,5,44,17,-42,25,-23,-109,-85,-5,24,23
-35,-22,14,28,-24,-4,-24,-111,-84,-13,24,20
-60,-43,17,51,-39,-12,-18,-109,-97,-24,8,16
-66,-60,6,63,-36,-26,-17,-111,-107,-39,-12,13
-82,-67,15,75,-48,-26,-15,-111,-108,-45,-33,4
-93,-90,3,92,-48,-43,-6,-100,-100,-47,-41,-2
-98,-87,10,92,-54,-38,-3,-102,-108,-48,-40,-9
-91,-91,0,91,-45,-45,18,-79,-91,-31,-33,-20
-95,-81,13,88,-54,-34,6,-94,-94,-39,-41,-20
-164,-96,68,130,-116,-14,201,122,42,26,-55,-68
-43,-131,-88,87,23,-110,326,382,281,218,45,-22
738,202,-537,-470,638,-167,-21,552,736,853,697,490
1388,496,-892,-942,1140,-197,-369,422,1098,1314,1318,995
566,254,-312,-410,438,-29,-342,-366,241,472,648,583
-326,-138,188,232,-257,25,-83,-624,-537,-316,-168,-42
-288,-319,-31,304,-128,-175,14,-329,-368,-270,-180,-118
-235,-261,-26,248,-104,-143,1,-214,-239,-169,-126,-81
-141,-137,4,139,-72,-66,39,-71,-88,-47,-60,-35
-81,-81,0,81,-40,-41,57,-5,-7,9,-20,-3
-83,-71,12,77,-47,-29,62,18,-1,27,-19,-4
-54,-56,-2,54,-26,-28,63,41,29,48,4,11
-54,-45,9,49,-31,-17,66,41,24,47,2,8
-21,-36,-15,29,-2,-25,63,69,59,76,23,22
-12,-29,-17,20,2,-22,59,82,61,86,27,27
-1,-23,-22,12,11,-22,60,92,78,95,33,32
3,-16,-19,6,11,-17,76,117,100,106,48,29
5,-15,-20,5,13,-17,89,138,112,118,58,31
22,-15,-37,-3,30,-26,89,157,140,131,60,46
39,-10,-49,-14,44,-29,91,184,163,151,66,50
37,-10,-48,-13,42,-29,108,223,199,177,82,54
50,-8,-58,-21,54,-33,129,269,232,196,98,61
83,13,-70,-47,76,-28,144,324,272,223,111,70
111,29,-82,-70,96,-27,167,384,326,253,131,76
143,33,-110,-88,126,-38,184,452,380,290,160,91
171,42,-129,-106,150,-44,202,513,443,332,187,111
215,70,-146,-142,180,-38,215,563,493,372,225,134
246,87,-159,-167,202,-36,212,596,539,409,257,161
278,90,-188,-183,233,-49,207,596,556,431,288,181
284,89,-195,-187,239,-52,190,565,543,438,296,193
254,82,-172,-168,213,-45,151,488,512,425,285,183
255,82,-174,-168,215,-46,104,383,429,379,262,167
190,49,-141,-119,165,-46,70,262,309,291,198,122
96,-1,-97,-48,96,-48,57,152,190,199,137,68
40,-33,-73,-3,57,-53,48,76,100,121,77,26
-28,-68,-41,48,7,-54,37,21,29,56,25,-17
-44,-81,-36,63,-4,-58,30,-13,-9,15,-5,-38
-52,-90,-38,71,-7,-64,30,-32,-22,-1,-24,-52
-69,-97,-28,83,-20,-62,29,-43,-38,-3,-29,-56
-71,-94,-24,83,-23,-59,25,-49,-44,-7,-30,-54
-79,-94,-15,87,-32,-54,25,-51,-45,-10,-29,-56
-79,-90,-11,84,-34,-51,23,-49,-45,-15,-33,-62
-77,-89,-12,83,-33,-50,19,-46,-45,-15,-35,-69
-84,-93,-10,88,-37,-51,20,-45,-45,-17,-35,-71
-91,-101,-10,96,-40,-55,20,-45,-45,-25,-40,-74
-94,-100,-6,97,-44,-53,20,-45,-45,-23,-44,-77
-95,-100,-5,98,-45,-52,20,-45,-45,-19,-45,-80
-92,-97,-5,95,-43,-50,15,-45,-45,-16,-45,-80
-95,-94,1,95,-47,-47,15,-46,-45,-11,-45,-82
-103,-95,8,99,-55,-43,14,-44,-45,-11,-45,-86
-98,-90,8,94,-53,-41,10,-51,-46,-27,-45,-85
-91,-90,1,90,-46,-44,10,-60,-49,-33,-45,-82
-87,-90,-3,89,-42,-46,10,-60,-52,-29,-45,-79
-81,-90,-9,86,-36,-49,10,-62,-55,-31,-45,-76
-75,-90,-15,83,-30,-52,10,-70,-57,-30,-45,-74
-70,-90,-19,80,-26,-55,10,-76,-62,-30,-45,-69
-70,-90,-20,80,-25,-55,10,-82,-66,-31,-44,-73
-70,-90,-20,80,-25,-55,9,-89,-69,-41,-48,-86
-69,-90,-20,80,-24,-55,6,-91,-70,-48,-54,-93
-71,-90,-19,80,-26,-55,3,-89,-70,-50,-50,-95
-78,-99,-21,89,-28,-60,1,-86,-70,-50,-50,-96
-92,-110,-17,101,-37,-63,-3,-84,-70,-45,-49,-100
-96,-109,-13,102,-41,-60,-5,-86,-71,-45,-45,-100
-96,-105,-8,101,-44,-56,-8,-92,-70,-45,-45,-95
-100,-105,-5,103,-47,-55,-10,-96,-70,-45,-48,-95
-79,-103,-24,91,-27,-63,-10,-94,-70,-45,-50,-95
-68,-99,-32,83,-18,-65,-10,-95,-69,-45,-51,-95
-76,-100,-24,89,-26,-62,-10,-94,-71,-44,-55,-95
-79,-103,-24,91,-27,-63,-9,-97,-76,-47,-55,-97
-87,-104,-17,96,-35,-61,-6,-101,-81,-55,-50,-100
-89,-105,-16,97,-36,-60,-3,-95,-84,-56,-45,-100
-88,-106,-18,97,-35,-61,-1,-91,-82,-54,-40,-100
-82,-104,-22,93,-29,-63,3,-86,-77,-51,-36,-100
-80,-107,-27,94,-26,-67,6,-81,-74,-49,-31,-99
-94,-120,-25,107,-34,-72,3,-82,-71,-52,-31,-103
-100,-120,-20,110,-40,-70,-1,-87,-66,-55,-39,-104
-102,-120,-18,111,-42,-69,-3,-89,-67,-55,-41,-107
-107,-120,-13,114,-47,-66,-6,-86,-70,-56,-37,-115
-112,-120,-8,116,-52,-64,-9,-83,-64,-54,-34,-111
-94,-118,-24,106,-35,-71,-11,-79,-57,-59,-30,-104
-79,-93,-13,86,-33,-53,-2,-76,-53,-54,-26,-99
-64,-69,-5,67,-29,-37,7,-71,-49,-32,-22,-93
-41,-65,-25,53,-8,-45,19,-65,-51,-30,-19,-89
-60,-58,2,59,-31,-27,19,-54,-49,-27,-17,-86
-64,-55,9,59,-36,-23,-21,-71,-51,-23,-14,-82
-52,-56,-4,54,-23,-30,-48,-104,-68,-47,-11,-79
-38,-52,-14,45,-12,-33,-37,-97,-70,-56,-9,-74
-27,-70,-43,49,9,-57,-35,-103,-75,-59,-17,-79
-48,-98,-50,73,1,-74,-24,-97,-78,-60,-27,-96
-69,-120,-51,95,-9,-85,-21,-102,-86,-64,-33,-94
-83,-122,-39,103,-21,-81,-13,-98,-85,-69,-46,-98
-82,-130,-48,106,-16,-89,-9,-92,-76,-71,-48,-107
-96,-119,-23,108,-36,-71,-12,-94,-84,-67,-61,-112
-96,-131,-35,114,-30,-82,-6,-77,-65,-48,-59,-115
-110,-120,-10,115,-49,-64,-2,-86,-79,-57,-63,-119
-182,-147,35,164,-108,-56,214,151,81,15,-95,-176
-3,-145,-142,74,70,-144,285,393,346,257,65,-82
823,250,-573,-536,698,-161,-111,546,833,962,809,494
1240,434,-806,-837,1022,-186,-387,356,1070,1252,1260,873
315,153,-162,-234,238,-4,-277,-411,128,292,426,330
-360,-151,209,256,-284,28,-81,-576,-507,-355,-237,-186
-299,-333,-34,316,-132,-183,-18,-315,-331,-295,-187,-200
-232,-266,-34,249,-99,-150,-9,-228,-225,-208,-163,-177
-121,-145,-24,133,-48,-84,4,-88,-84,-82,-81,-123
-96,-87,9,91,-52,-39,10,-31,-25,-41,-41,-95
-58,-65,-7,62,-25,-36,25,3,4,-14,-27,-86
-37,-62,-26,50,-5,-44,28,19,26,-4,-15,-75
-41,-55,-14,48,-13,-34,32,31,30,3,-14,-73
-35,-54,-18,45,-8,-35,26,46,56,20,1,-62
-30,-47,-17,39,-7,-31,26,55,64,31,2,-59
5,-44,-49,20,27,-46,24,70,73,54,18,-48
6,-36,-42,15,24,-39,27,82,84,56,23,-42
20,-28,-48,4,35,-38,43,108,112,73,39,-32
29,-20,-48,-4,39,-34,47,122,132,95,48,-26
40,-12,-52,-14,46,-32,60,159,162,112,52,-18
38,-5,-43,-16,41,-24,69,195,189,128,68,-7
48,3,-45,-26,47,-21,82,240,227,152,85,2
83,11,-73,-47,78,-31,104,297,270,184,102,13
89,27,-63,-58,76,-18,117,347,310,209,118,20
127,41,-86,-84,106,-22,137,419,371,252,145,41
159,56,-103,-107,130,-23,158,472,420,293,170,58
188,74,-113,-131,150,-19,175,524,472,335,207,84
231,82,-150,-156,190,-34,168,543,520,381,253,115
255,101,-154,-177,204,-26,151,527,534,399,270,129
268,113,-156,-190,212,-21,134,505,522,402,284,136
257,102,-155,-179,206,-26,101,430,470,377,283,124
222,88,-134,-155,178,-23,65,320,386,321,243,107
144,46,-98,-94,121,-26,34,205,268,229,174,71
62,0,-62,-31,62,-31,19,101,149,129,103,26
4,-32,-36,14,21,-34,11,31,67,52,44,-14
-39,-58,-19,49,-9,-38,-1,-18,3,-7,-1,-46
-57,-70,-13,64,-22,-41,-9,-52,-39,-40,-32,-61
-70,-80,-10,75,-29,-45,-11,-66,-59,-68,-54,-74
-73,-79,-6,76,-33,-42,-15,-77,-74,-79,-59,-76
-83,-86,-2,85,-40,-44,-14,-81,-81,-80,-55,-75
-92,-92,1,92,-46,-45,-9,-75,-85,-85,-55,-73
-93,-87,6,90,-50,-40,-6,-75,-90,-82,-55,-69
-100,-85,15,93,-57,-35,-3,-75,-87,-80,-55,-70
-104,-81,22,92,-63,-29,2,-75,-82,-80,-55,-73
-105,-80,26,92,-66,-26,5,-75,-79,-80,-59,-75
-101,-77,24,89,-63,-26,2,-77,-76,-80,-57,-75
-99,-74,26,86,-62,-24,-3,-81,-71,-80,-54,-75
-96,-71,24,83,-60,-23,-6,-80,-71,-85,-55,-75
-95,-68,27,81,-61,-20,-9,-81,-79,-85,-55,-75
-105,-65,40,85,-72,-12,-14,-85,-81,-85,-55,-75
-105,-65,40,85,-72,-12,-15,-89,-79,-85,-55,-79
-101,-65,35,82,-68,-15,-15,-91,-92,-85,-55,-80
-99,-65,34,82,-66,-15,-15,-89,-96,-85,-55,-80
-95,-65,30,80,-62,-17,-15,-91,-95,-86,-55,-80
-95,-65,30,80,-62,-17,-14,-89,-94,-84,-54,-80
-95,-65,30,80,-62,-17,-20,-93,-97,-87,-62,-79
-91,-61,30,76,-61,-16,-30,-112,-117,-107,-71,-75
-89,-59,30,74,-60,-15,-30,-116,-121,-111,-66,-75
-90,-60,30,75,-60,-15,-30,-114,-119,-109,-65,-75
-90,-60,30,75,-60,-15,-30,-116,-121,-115,-65,-74
-86,-60,26,73,-56,-17,-30,-114,-119,-114,-64,-76
-84,-59,25,71,-54,-16,-30,-116,-122,-116,-66,-74
-79,-55,25,67,-51,-15,-30,-123,-124,-123,-64,-78
-81,-55,26,67,-53,-15,-30,-122,-126,-121,-69,-85
-79,-55,24,66,-51,-15,-30,-120,-129,-120,-76,-85
-82,-55,27,68,-54,-14,-30,-119,-130,-119,-75,-85
-86,-55,31,71,-58,-12,-30,-116,-133,-116,-75,-85
-80,-51,30,66,-55,-11,-26,-114,-135,-114,-75,-85
-93,-50,42,71,-67,-4,-25,-117,-135,-119,-75,-85
-94,-49,45,71,-69,-1,-25,-124,-135,-126,-75,-85
-94,-55,39,75,-66,-8,-25,-125,-135,-121,-75,-85
-103,-66,37,84,-70,-14,-25,-125,-134,-118,-75,-85
-96,-65,32,80,-64,-16,-24,-125,-130,-115,-75,-85
-95,-65,30,80,-62,-17,-20,-125,-128,-110,-75,-85
-100,-65,35,82,-67,-15,-20,-124,-124,-113,-75,-82
-100,-66,35,83,-67,-15,-20,-117,-123,-116,-70,-79
-96,-62,35,79,-65,-13,-19,-107,-119,-115,-64,-75
-99,-48,51,74,-75,1,-21,-100,-117,-106,-59,-72
-90,-33,57,61,-73,11,-16,-92,-113,-93,-52,-68
-75,-20,55,47,-65,17,-15,-86,-89,-82,-47,-63
-70,-7,62,38,-66,27,-10,-85,-75,-81,-45,-57
-63,-5,58,34,-60,26,-13,-86,-76,-78,-45,-53
-68,-5,63,36,-65,29,-47,-121,-111,-92,-45,-45
-60,7,68,26,-64,37,-49,-132,-137,-106,-45,-42
-54,-18,36,36,-45,9,-42,-127,-134,-95,-44,-38
-75,-43,32,59,-53,-5,-39,-126,-137,-102,-46,-44
-78,-50,27,64,-52,-12,-29,-119,-133,-122,-62,-66
-93,-62,31,77,-62,-15,-30,-124,-139,-128,-71,-79
-94,-73,21,83,-58,-25,-16,-110,-128,-119,-69,-80
-95,-69,27,82,-61,-21,-23,-120,-133,-125,-71,-80
-94,-64,30,79,-62,-16,-3,-95,-117,-113,-69,-81
-93,-70,24,82,-58,-22,-22,-120,-127,-128,-75,-77
-169,-67,102,118,-135,17,113,28,-40,-93,-103,-127
-127,-126,2,126,-64,-62,310,306,194,78,-55,-131
491,147,-345,-319,418,-99,45,495,600,642,493,289
1258,508,-749,-883,1002,-120,-324,513,1109,1292,1252,882
728,334,-394,-531,561,-30,-369,-205,486,670,829,657
-231,-27,205,129,-218,89,-164,-663,-492,-313,-109,-19
-330,-254,76,292,-203,-89,-31,-405,-452,-387,-237,-184
-290,-248,41,268,-165,-103,-36,-270,-285,-283,-174,-143
-199,-129,69,163,-134,-30,7,-143,-163,-168,-119,-104
-98,-60,37,79,-67,-11,27,-61,-53,-79,-49,-62
-91,-29,62,60,-76,16,30,-29,-44,-62,-58,-62
-66,-26,40,46,-53,7,30,3,-9,-36,-34,-42
-70,-18,53,43,-61,17,30,8,-11,-37,-34,-42
-49,-12,37,30,-43,13,30,26,10,-19,-19,-31
-43,-3,41,23,-42,19,30,31,21,-14,-14,-26
-29,5,34,11,-32,19,29,43,34,-2,-5,-19
-18,13,30,2,-24,21,34,56,54,9,3,-13
-8,21,29,-7,-18,24,52,81,73,19,11,-7
13,30,17,-21,-3,24,58,102,92,35,28,3
17,29,12,-23,2,20,67,132,118,53,39,10
33,35,2,-34,15,18,72,164,149,73,50,18
62,58,-4,-60,33,27,87,209,186,97,62,26
72,62,-10,-67,41,26,107,264,230,120,82,36
92,67,-25,-79,58,21,126,325,277,155,101,44
120,77,-44,-98,82,16,152,389,332,194,122,61
144,91,-53,-117,98,18,166,449,388,235,153,84
180,106,-73,-143,126,16,179,508,442,284,188,105
217,117,-99,-166,158,8,181,542,487,322,221,129
251,143,-108,-197,180,18,164,545,511,357,249,157
265,151,-114,-208,189,18,150,516,503,364,263,171
250,144,-106,-197,178,19,120,451,474,344,269,174
225,133,-92,-179,159,20,81,352,403,307,250,165
166,96,-71,-130,118,12,49,231,288,223,189,126
85,54,-31,-69,58,11,32,120,165,124,115,72
29,20,-9,-25,19,6,25,44,65,46,53,26
-32,-11,21,21,-26,5,17,-11,-1,-23,6,-14
-64,-27,38,45,-51,5,9,-51,-47,-66,-30,-41
-66,-32,34,48,-50,1,2,-73,-73,-85,-51,-47
-85,-50,35,67,-59,-7,0,-83,-82,-97,-59,-50
-87,-57,30,72,-58,-13,0,-86,-90,-100,-61,-55
-84,-54,30,69,-56,-12,-4,-85,-95,-103,-60,-55
-87,-56,31,71,-59,-12,-6,-85,-95,-106,-61,-56
-94,-55,40,74,-66,-7,-4,-85,-95,-105,-59,-60
-101,-55,46,78,-73,-4,-1,-86,-93,-105,-64,-60
-94,-49,44,71,-69,-2,0,-83,-90,-105,-71,-58
-88,-42,45,64,-66,1,0,-80,-90,-105,-70,-53
-81,-36,45,58,-63,4,0,-80,-90,-106,-70,-50
-70,-29,41,49,-55,6,0,-77,-90,-102,-70,-47
-65,-23,42,44,-53,9,0,-75,-91,-100,-70,-42
-66,-20,46,43,-56,13,0,-76,-95,-100,-69,-40
-77,-32,45,54,-61,6,0,-79,-95,-100,-65,-45
-91,-46,45,68,-67,0,0,-84,-95,-100,-66,-45
-90,-45,45,67,-67,0,0,-88,-95,-100,-62,-45
-89,-45,44,67,-66,0,0,-90,-95,-105,-60,-45
-93,-45,48,68,-70,1,-5,-90,-97,-105,-60,-45
-96,-45,50,71,-72,2,-9,-90,-104,-107,-64,-45
-92,-42,50,67,-71,4,-11,-91,-109,-111,-65,-42
-86,-36,50,61,-68,6,-16,-94,-112,-109,-66,-39
-81,-31,50,56,-65,9,-20,-96,-119,-119,-72,-40
-76,-26,50,51,-63,11,-20,-92,-125,-130,-70,-40
-64,-19,45,41,-54,13,-20,-90,-125,-130,-70,-40
-62,-17,45,39,-53,14,-20,-89,-125,-130,-70,-39
-77,-33,44,55,-60,5,-20,-92,-125,-130,-70,-41
-75,-36,40,56,-57,1,-20,-108,-125,-130,-70,-50
-75,-35,40,55,-57,2,-19,-111,-125,-128,-74,-48
-73,-35,38,54,-55,1,-16,-109,-125,-124,-75,-43
-69,-35,35,52,-51,0,-11,-111,-125,-125,-75,-42
-66,-34,32,50,-49,-1,-9,-109,-125,-125,-79,-34
-54,-24,29,39,-41,2,-5,-111,-125,-125,-81,-40
-57,-31,25,44,-41,-3,0,-108,-125,-125,-78,-51
-62,-37,25,49,-43,-6,-2,-112,-125,-120,-75,-46
-61,-30,31,46,-46,0,-5,-120,-125,-120,-75,-43
-60,-30,30,45,-45,0,-8,-120,-125,-118,-75,-40
-51,-25,26,38,-38,0,-11,-118,-122,-115,-75,-35
-50,-25,25,37,-37,0,-15,-115,-119,-114,-75,-38
-60,-39,20,50,-39,-9,-15,-115,-120,-118,-78,-40
-74,-54,20,64,-47,-16,-10,-113,-116,-120,-79,-40
-81,-52,29,66,-55,-11,-10,-110,-115,-120,-74,-40
-77,-46,31,62,-54,-7,-10,-110,-115,-120,-75,-40
-69,-41,28,55,-48,-6,-10,-111,-110,-120,-87,-40
-58,-34,23,45,-40,-5,-10,-109,-103,-120,-85,-34
-70,-31,39,50,-55,4,-8,-111,-98,-110,-74,-24
-69,-11,58,39,-63,24,-1,-100,-92,-98,-66,-18
-36,17,53,9,-44,35,3,-87,-86,-87,-64,-7
-28,28,57,0,-43,42,12,-79,-80,-79,-66,-13
-26,28,54,-2,-40,41,8,-70,-69,-77,-64,-31
-38,19,57,9,-48,38,-39,-114,-102,-87,-66,-30
-51,16,68,17,-60,42,-55,-138,-132,-95,-64,-30
-20,9,29,5,-25,18,-44,-133,-128,-86,-67,-30
-19,0,19,9,-19,9,-38,-137,-132,-91,-71,-30
-49,-20,30,34,-39,5,-27,-132,-127,-113,-76,-32
-73,-35,38,54,-55,1,-26,-140,-134,-127,-92,-39
-74,-40,34,56,-54,-3,-15,-126,-123,-116,-95,-45
-83,-49,34,66,-58,-7,-22,-136,-130,-117,-100,-46
-94,-53,40,73,-66,-7,-5,-113,-116,-104,-100,-53
-84,-61,23,72,-53,-19,-20,-133,-125,-105,-102,-45
-147,-43,104,95,-125,30,100,-9,-60,-92,-127,-85
-129,-87,42,108,-85,-23,307,268,161,41,-103,-110
451,126,-324,-288,387,-99,85,473,545,553,375,257
1319,539,-780,-929,1049,-120,-320,504,1098,1262,1197,889
929,431,-498,-680,713,-33,-444,-228,558,762,918,772
-140,-4,135,72,-137,65,-229,-739,-486,-286,-80,65
-307,-237,70,271,-188,-83,-35,-457,-478,-396,-278,-153
-215,-225,-10,220,-102,-117,-36,-290,-276,-268,-193,-107
-143,-110,33,127,-88,-39,0,-158,-160,-163,-152,-77
-67,-33,35,50,-51,1,26,-69,-41,-65,-81,-29
-73,-12,61,42,-67,24,30,-38,-41,-63,-84,-36
-27,5,32,11,-30,19,31,0,-12,-35,-60,-19
-20,24,44,-2,-33,34,29,6,-9,-37,-61,-16
7,34,27,-21,-10,30,31,29,12,-20,-47,-7
9,37,27,-23,-9,32,40,35,23,-8,-43,0
-7,40,47,-16,-27,43,47,49,35,8,-38,5
-9,42,51,-17,-30,47,44,63,53,22,-31,14
5,45,41,-25,-19,43,59,85,81,31,-27,18
15,48,32,-32,-9,40,61,115,107,45,-20,27
26,53,27,-40,0,40,70,141,127,61,-15,27
59,72,13,-66,23,42,85,178,163,84,1,39
75,76,1,-76,37,38,100,225,199,105,17,52
95,79,-15,-87,55,32,122,280,240,134,36,60
117,80,-37,-99,77,21,143,343,288,167,54,74
137,89,-48,-113,92,21,168,406,341,197,79,88
171,113,-57,-142,114,28,186,471,393,238,104,106
214,127,-87,-170,150,20,196,526,445,275,134,128
257,141,-116,-199,186,12,188,567,486,314,168,148
284,158,-126,-221,205,16,177,576,516,348,198,171
288,161,-127,-224,207,17,168,542,521,358,223,192
268,149,-118,-208,193,15,136,487,487,355,235,197
247,138,-109,-192,178,14,94,383,425,324,218,192
215,111,-104,-163,159,4,56,265,321,250,163,163
155,73,-82,-114,118,-4,36,158,198,161,96,112
75,35,-40,-55,57,-2,32,69,99,76,22,62
15,7,-9,-11,12,-1,24,11,25,13,-31,19
-12,-7,5,9,-8,-1,16,-34,-25,-34,-65,-8
-49,-29,20,39,-35,-4,9,-60,-62,-69,-91,-26
-63,-36,27,49,-44,-5,2,-72,-78,-78,-92,-31
-59,-35,24,46,-41,-5,0,-75,-75,-76,-100,-30
-55,-33,22,44,-39,-5,0,-74,-80,-75,-100,-30
-48,-29,19,39,-33,-5,-3,-78,-86,-75,-101,-30
-52,-31,21,41,-37,-5,-6,-80,-85,-76,-106,-30
-50,-26,24,38,-37,-1,-4,-80,-85,-74,-104,-34
-50,-25,26,37,-38,1,-1,-77,-85,-76,-108,-35
-50,-26,24,37,-37,0,2,-71,-85,-83,-110,-36
-50,-24,25,37,-37,0,5,-67,-83,-82,-110,-40
-67,-26,41,46,-54,8,7,-62,-77,-79,-110,-40
-70,-24,46,46,-58,11,11,-58,-77,-76,-110,-40
-64,-20,44,42,-54,12,7,-55,-70,-74,-110,-40
-62,-20,42,41,-52,11,4,-61,-75,-69,-105,-40
-57,-18,39,37,-48,11,6,-78,-98,-74,-105,-36
-55,-15,40,35,-47,12,1,-81,-101,-90,-105,-35
-50,-15,35,32,-42,10,0,-79,-99,-90,-105,-35
-54,-19,35,36,-44,8,0,-81,-101,-91,-105,-31
-61,-26,35,43,-48,4,-5,-80,-99,-96,-107,-29
-65,-30,35,47,-50,2,-5,-79,-101,-94,-115,-31
-65,-30,35,47,-50,2,-8,-93,-107,-98,-120,-35
-67,-30,37,48,-52,4,-10,-102,-114,-100,-120,-35
-71,-30,40,50,-56,5,-12,-99,-115,-100,-120,-37
-69,-30,40,50,-54,5,-16,-104,-114,-100,-120,-40
-77,-34,44,55,-60,5,-18,-105,-116,-100,-120,-40
-81,-35,45,57,-62,5,-21,-104,-120,-99,-120,-40
-80,-35,44,57,-62,5,-24,-101,-120,-96,-121,-40
-80,-40,40,60,-60,0,-26,-100,-116,-94,-122,-41
-80,-40,40,60,-60,0,-29,-100,-115,-96,-120,-40
-79,-40,39,59,-59,0,-30,-99,-114,-93,-120,-40
-74,-40,34,57,-54,-2,-30,-101,-111,-100,-120,-37
-76,-40,36,57,-56,-2,-30,-97,-110,-115,-120,-34
-72,-40,32,56,-52,-4,-30,-95,-111,-113,-120,-37
-70,-40,30,55,-50,-5,-27,-95,-120,-109,-115,-44
-67,-40,27,53,-47,-6,-25,-95,-125,-106,-115,-46
-61,-37,24,48,-42,-6,-25,-95,-125,-101,-114,-44
-55,-34,21,44,-37,-6,-25,-95,-125,-100,-110,-41
-50,-31,19,40,-34,-6,-25,-99,-125,-100,-109,-39
-59,-28,31,43,-45,1,-26,-101,-125,-100,-114,-40
-61,-25,36,43,-48,6,-30,-97,-122,-100,-115,-40
-60,-25,34,42,-47,4,-30,-95,-119,-100,-115,-40
-69,-33,36,51,-52,1,-30,-95,-116,-100,-113,-41
-66,-31,34,48,-50,1,-30,-95,-113,-96,-110,-39
-63,-27,36,44,-49,5,-30,-95,-110,-90,-110,-35
-62,-23,39,42,-50,8,-28,-95,-110,-85,-110,-32
-59,-17,42,38,-50,12,-22,-88,-100,-79,-118,-27
-58,-13,44,35,-51,16,-18,-80,-92,-74,-113,-25
-39,9,48,15,-44,28,-13,-76,-82,-70,-103,-19
-28,21,50,3,-39,35,-10,-81,-76,-70,-96,-14
-30,24,54,2,-42,39,-3,-80,-75,-70,-89,-9
-27,28,55,-1,-41,41,-30,-80,-75,-70,-85,-3
-29,19,49,5,-39,34,-62,-107,-111,-70,-85,3
-27,10,37,8,-32,23,-54,-115,-126,-73,-84,2
-31,2,32,14,-32,17,-51,-112,-126,-77,-85,-10
-35,-6,29,20,-31,11,-41,-103,-124,-74,-97,-21
-41,-20,21,30,-31,0,-38,-105,-126,-91,-112,-33
-55,-31,23,43,-39,-4,-28,-93,-126,-88,-125,-35
-56,-48,8,52,-32,-20,-32,-97,-118,-81,-125,-38
-74,-42,32,57,-53,-4,-30,-95,-115,-81,-132,-47
-73,-58,15,65,-44,-21,-23,-81,-92,-64,-129,-42
-98,-47,51,73,-74,2,-8,-77,-100,-78,-142,-57
-161,-75,87,118,-124,6,217,177,64,-4,-176,-101
92,-45,-137,-24,115,-91,234,411,329,268,34,24
1002,360,-642,-681,822,-141,-170,575,859,987,819,617
1355,539,-816,-947,1085,-139,-451,259,994,1183,1201,970
319,201,-118,-259,218,41,-348,-541,-51,162,310,382
-334,-155,180,244,-257,12,-101,-584,-578,-420,-324,-133
-251,-277,-26,264,-112,-152,-43,-307,-344,-299,-249,-130
-184,-185,-1,184,-91,-93,-26,-195,-230,-197,-212,-100
-68,-76,-7,72,-30,-41,12,-59,-79,-72,-137,-52
-70,-27,43,48,-56,8,11,-24,-40,-37,-114,-32
-51,-9,42,30,-46,16,31,17,-13,-19,-99,-22
-29,0,28,14,-28,14,35,28,8,-6,-82,-10
-21,10,30,5,-26,19,35,44,13,5,-79,-5
8,21,12,-15,-2,16,39,61,34,21,-65,7
4,19,15,-12,-5,17,40,71,35,27,-63,8
25,27,2,-26,11,14,40,85,62,45,-50,16
40,45,6,-43,17,25,41,99,73,50,-46,20
45,45,-1,-45,23,22,38,123,93,68,-35,27
50,47,-2,-48,26,22,49,148,119,85,-28,31
55,51,-4,-52,30,23,63,182,146,97,-19,35
71,61,-11,-66,41,25,70,217,183,123,-7,40
92,66,-26,-79,59,19,82,260,216,145,7,50
123,75,-48,-98,85,13,104,319,264,176,29,69
149,90,-59,-119,104,15,132,382,316,210,51,80
171,93,-78,-132,125,7,155,448,367,242,77,96
211,108,-104,-159,157,2,171,506,420,281,107,119
251,133,-118,-192,184,7,178,551,468,315,137,141
281,146,-135,-213,208,5,182,581,507,349,169,165
310,157,-153,-234,232,2,170,573,518,374,199,189
325,172,-153,-248,239,10,136,533,511,378,202,192
308,160,-147,-233,227,6,94,451,465,355,195,176
259,129,-130,-194,194,-1,58,342,380,317,170,165
187,95,-92,-141,140,1,23,223,265,234,100,125
114,55,-59,-84,87,-2,0,122,147,137,37,74
42,14,-28,-28,35,-7,-5,54,63,69,-22,36
5,2,-2,-4,3,0,-10,0,-4,5,-68,0
-3,3,6,0,-5,4,-15,-29,-43,-27,-94,-19
-13,-4,9,9,-11,2,-22,-45,-63,-41,-110,-38
-21,-9,12,15,-17,1,-24,-57,-78,-51,-118,-47
-32,-15,17,23,-24,1,-20,-60,-81,-50,-121,-44
-40,-20,20,30,-30,0,-20,-60,-79,-50,-119,-46
-49,-26,24,37,-36,-1,-18,-60,-81,-50,-120,-45
-51,-25,26,37,-38,0,-14,-60,-78,-50,-120,-45
-50,-25,25,37,-37,0,-15,-60,-75,-52,-118,-40
-47,-21,25,34,-36,2,-23,-60,-73,-51,-114,-40
-45,-20,25,32,-35,2,-26,-56,-70,-50,-115,-40
-45,-20,25,32,-35,2,-25,-55,-67,-49,-115,-40
-41,-16,25,28,-33,5,-22,-55,-64,-46,-115,-40
-38,-13,25,25,-31,6,-19,-55,-69,-44,-115,-40
-43,-10,32,26,-38,10,-21,-55,-72,-47,-111,-40
-43,-8,36,25,-39,14,-20,-57,-77,-51,-110,-40
-39,-4,35,21,-36,15,-20,-62,-80,-49,-107,-40
-46,-11,35,28,-40,12,-20,-69,-80,-51,-103,-40
-52,-17,35,34,-43,9,-21,-71,-83,-49,-110,-40
-48,-13,35,30,-41,11,-30,-69,-87,-54,-116,-45
-45,-10,35,27,-40,12,-30,-67,-95,-70,-115,-45
-43,-8,35,25,-39,13,-25,-63,-95,-70,-115,-45
-38,-3,35,20,-36,16,-24,-70,-97,-71,-115,-45
-47,-12,35,29,-41,12,-19,-85,-102,-75,-114,-44
-55,-21,35,38,-45,6,-24,-85,-105,-75,-117,-48
-57,-20,38,38,-47,9,-35,-85,-110,-75,-121,-50
-60,-20,40,40,-50,10,-35,-85,-110,-75,-120,-50
-60,-20,40,40,-50,10,-35,-85,-110,-75,-118,-54
-64,-20,43,42,-54,11,-35,-83,-110,-75,-113,-55
-63,-18,46,40,-54,14,-34,-79,-110,-75,-121,-54
-58,-14,44,36,-51,15,-38,-80,-107,-75,-136,-50
-53,-12,41,33,-47,14,-40,-80,-105,-80,-131,-50
-47,-9,38,28,-43,15,-40,-80,-105,-80,-128,-49
-41,-6,35,23,-38,15,-43,-81,-102,-81,-125,-45
-37,-4,33,20,-34,14,-46,-84,-99,-85,-119,-45
-42,-13,29,28,-35,8,-44,-88,-101,-85,-126,-45
-50,-18,33,34,-41,8,-40,-90,-104,-85,-131,-45
-49,-14,35,31,-42,10,-40,-90,-107,-85,-130,-45
-51,-16,35,33,-42,10,-39,-90,-110,-85,-128,-45
-49,-11,38,30,-44,14,-35,-90,-107,-85,-124,-44
-50,-10,40,30,-46,15,-35,-90,-105,-85,-125,-46
-50,-10,40,30,-44,15,-35,-85,-101,-84,-121,-55
-38,-3,35,20,-36,16,-35,-85,-100,-81,-119,-53
-32,4,36,13,-34,20,-35,-85,-95,-80,-120,-49
-22,11,33,5,-28,22,-35,-85,-97,-80,-115,-46
-19,12,31,3,-25,22,-35,-86,-105,-74,-116,-41
-22,6,28,8,-25,17,-34,-80,-99,-76,-114,-39
-37,-1,36,19,-37,17,-31,-68,-93,-69,-108,-34
-36,21,57,7,-47,39,-29,-52,-69,-39,-102,-31
-18,43,61,-12,-40,52,-32,-51,-58,-25,-97,-27
-11,48,59,-19,-36,53,-27,-47,-61,-20,-92,-23
2,61,59,-32,-29,60,-40,-62,-62,-28,-85,-20
-13,53,66,-20,-40,59,-67,-102,-90,-44,-99,-16
1,39,38,-20,-19,38,-61,-97,-96,-36,-106,-15
11,27,17,-19,-3,22,-60,-97,-94,-37,-105,-16
-7,17,23,-5,-15,20,-54,-89,-97,-54,-105,-33
-18,3,21,7,-20,12,-53,-90,-108,-77,-105,-44
-34,4,38,15,-36,21,-48,-83,-110,-75,-120,-57
-30,-10,20,20,-25,5,-44,-80,-97,-74,-118,-64
-41,-5,36,23,-38,15,-40,-78,-107,-73,-123,-67
-35,-22,13,28,-24,-5,-33,-65,-79,-66,-117,-69
-67,-18,50,42,-58,16,-15,-68,-71,-73,-126,-73
-137,-38,98,87,-117,30,203,179,79,5,-157,-137
69,-34,-103,-17,86,-69,243,407,330,244,17,-32
941,357,-584,-649,762,-113,-157,565,835,953,776,559
1381,559,-821,-970,1101,-131,-437,331,1043,1222,1223,946
384,255,-129,-319,256,62,-330,-446,60,244,367,390
-319,-94,225,206,-272,65,-113,-567,-543,-381,-299,-152
-241,-254,-13,248,-114,-133,-43,-300,-341,-293,-244,-166
-181,-170,11,175,-95,-79,-34,-196,-230,-208,-221,-138
-77,-57,19,67,-48,-19,-11,-51,-78,-76,-133,-85
-52,2,55,25,-54,28,5,0,-23,-30,-95,-60
-25,21,46,2,-36,33,12,32,5,-11,-84,-52
-17,19,36,-1,-26,27,12,51,26,7,-72,-39
-1,39,40,-19,-21,39,17,55,30,11,-73,-39
21,44,23,-33,-1,34,19,71,57,31,-59,-27
20,49,28,-35,-4,38,21,85,58,44,-58,-24
47,61,14,-54,16,37,25,102,81,55,-44,-16
47,60,13,-54,17,36,33,116,94,61,-39,-13
56,59,3,-58,27,31,35,136,113,78,-28,-8
64,62,-2,-62,33,30,41,161,139,94,-18,-3
67,57,-9,-62,38,24,46,186,159,111,-6,0
85,72,-12,-78,49,30,59,224,195,135,8,7
110,86,-24,-98,67,31,77,270,235,161,27,18
127,86,-41,-106,84,22,90,319,278,180,42,26
157,98,-59,-127,108,19,114,378,332,215,60,43
188,110,-78,-148,132,16,133,438,388,250,90,66
220,128,-92,-174,155,18,154,499,447,293,123,87
254,139,-115,-196,184,12,161,550,500,342,159,108
281,151,-130,-216,205,11,152,579,540,365,185,126
315,168,-147,-241,230,10,153,582,561,396,218,153
319,160,-158,-240,238,1,135,549,542,400,229,160
293,149,-144,-221,218,2,95,465,493,374,218,150
270,142,-128,-206,199,7,54,362,416,326,198,138
221,116,-105,-168,163,5,27,245,292,238,136,93
135,70,-64,-103,99,3,11,137,176,143,68,43
71,32,-38,-51,54,-3,-5,66,89,68,4,6
35,10,-25,-22,30,-7,-11,17,28,20,-54,-33
12,0,-12,-6,12,-6,-14,-6,-9,-13,-77,-57
-18,-9,9,14,-13,0,-20,-24,-45,-45,-90,-73
-50,-21,29,35,-39,4,-20,-35,-56,-62,-101,-81
-51,-25,26,38,-38,0,-20,-36,-54,-59,-98,-79
-44,-25,19,34,-31,-3,-20,-45,-56,-60,-95,-83
-44,-28,16,36,-30,-6,-20,-45,-55,-60,-93,-85
-37,-31,7,34,-22,-12,-20,-40,-56,-60,-89,-85
-38,-30,8,33,-23,-10,-20,-39,-53,-58,-89,-81
-58,-30,28,44,-43,-1,-20,-34,-49,-55,-90,-80
-62,-30,32,46,-47,1,-20,-37,-45,-55,-90,-80
-59,-30,29,44,-44,0,-20,-40,-42,-51,-90,-76
-65,-34,31,49,-47,-1,-20,-40,-37,-50,-90,-74
-65,-35,29,50,-47,-2,-22,-40,-36,-50,-90,-77
-66,-35,30,50,-48,-2,-25,-40,-48,-61,-89,-79
-61,-35,27,48,-43,-4,-28,-44,-51,-66,-85,-75
-58,-35,22,46,-40,-6,-30,-46,-51,-64,-85,-75
-53,-34,19,43,-36,-7,-34,-49,-57,-69,-83,-75
-45,-30,15,37,-30,-7,-35,-52,-53,-70,-79,-75
-42,-31,12,36,-27,-9,-36,-55,-49,-71,-80,-75
-35,-27,8,31,-21,-10,-40,-55,-67,-74,-83,-78
-30,-25,6,27,-17,-10,-40,-54,-77,-77,-87,-83
-28,-25,4,26,-16,-10,-43,-61,-77,-79,-91,-84
-42,-29,12,35,-27,-8,-46,-66,-82,-83,-89,-80
-58,-33,24,45,-41,-4,-45,-65,-84,-85,-85,-80
-55,-30,25,42,-40,-2,-45,-64,-85,-85,-84,-77
-55,-30,25,42,-40,-2,-45,-72,-85,-88,-79,-75
-55,-30,25,42,-40,-2,-45,-81,-85,-91,-82,-75
-55,-30,25,42,-40,-2,-45,-79,-85,-89,-87,-72
-54,-29,25,41,-40,-1,-45,-83,-82,-86,-85,-69
-60,-35,25,47,-42,-5,-45,-85,-80,-85,-85,-66
-58,-33,25,45,-41,-4,-45,-84,-80,-85,-83,-63
-55,-30,25,42,-40,-2,-45,-89,-80,-85,-79,-60
-70,-45,25,57,-47,-10,-45,-90,-80,-85,-80,-60
-71,-46,25,58,-47,-10,-45,-90,-80,-85,-84,-60
-66,-44,22,55,-43,-11,-44,-90,-75,-85,-86,-60
-63,-46,17,54,-40,-14,-47,-90,-75,-85,-85,-59
-58,-44,14,51,-36,-15,-47,-89,-74,-85,-85,-73
-57,-46,11,51,-33,-17,-44,-84,-69,-85,-85,-82
-50,-44,6,47,-28,-19,-45,-86,-71,-85,-85,-79
-51,-45,6,48,-28,-20,-45,-82,-69,-90,-81,-80
-55,-45,11,50,-33,-17,-46,-80,-71,-88,-79,-80
-54,-45,9,49,-31,-17,-44,-80,-75,-83,-81,-80
-59,-47,13,53,-36,-17,-39,-76,-70,-81,-80,-75
-54,-38,16,45,-34,-11,-33,-69,-66,-77,-81,-68
-59,-44,15,51,-37,-14,-29,-62,-58,-72,-79,-61
-54,-35,19,44,-36,-8,-25,-57,-55,-69,-73,-54
-29,-9,20,19,-25,6,-20,-47,-47,-65,-65,-48
-28,-8,20,18,-24,6,-17,-45,-39,-65,-59,-42
-21,-2,19,11,-20,8,-14,-32,-23,-62,-52,-40
-21,2,24,9,-23,13,-48,-49,-28,-57,-45,-37
-20,4,24,7,-22,14,-84,-96,-72,-71,-54,-34
-10,-4,6,7,-8,1,-75,-93,-75,-80,-62,-31
-10,-17,-7,14,-1,-12,-76,-90,-76,-81,-57,-30
-7,-21,-14,14,4,-17,-68,-83,-74,-78,-53,-37
-24,-45,-21,35,-2,-33,-68,-81,-81,-90,-71,-48
-51,-57,-6,54,-22,-31,-62,-75,-87,-95,-89,-56
-47,-66,-19,57,-14,-43,-59,-82,-82,-94,-82,-59
-56,-53,2,55,-29,-25,-56,-89,-90,-97,-85,-70
-53,-68,-15,61,-19,-41,-48,-71,-78,-91,-76,-71
-59,-51,8,55,-33,-21,-30,-52,-79,-90,-86,-79
-127,-92,34,109,-80,-29,201,197,111,2,-121,-144
100,-68,-168,-16,134,-118,219,416,389,279,85,-11
930,357,-573,-643,751,-108,-178,564,903,1028,872,599
1220,490,-730,-854,974,-120,-402,329,1065,1238,1228,914
261,177,-85,-219,173,46,-273,-409,63,196,330,321
-328,-128,200,228,-264,36,-64,-514,-503,-391,-274,-160
-220,-292,-72,256,-74,-181,-35,-282,-309,-296,-205,-158
-176,-213,-37,195,-69,-125,-46,-200,-215,-227,-179,-131
-86,-102,-16,94,-34,-59,-29,-59,-66,-93,-91,-76
-50,-47,3,48,-26,-21,-31,-12,-12,-54,-59,-52
-25,-18,8,21,-16,-5,-18,18,13,-29,-50,-41
-5,1,6,2,-6,3,-16,28,38,-14,-44,-30
-12,7,20,2,-16,13,-7,39,39,-8,-41,-25
2,10,7,-6,-3,8,-1,54,58,13,-20,-26
13,26,12,-20,0,19,-5,55,68,21,-13,-27
27,31,4,-29,12,17,-13,79,82,38,1,-14
25,30,5,-28,10,17,-8,95,92,46,6,-9
31,30,0,-30,15,15,-1,107,114,62,15,0
53,52,-1,-53,27,26,6,126,139,82,23,9
72,62,-10,-67,41,26,12,154,166,96,38,22
78,59,-19,-68,49,20,22,190,193,121,52,33
99,67,-31,-83,65,18,39,233,235,150,67,42
107,66,-41,-86,74,12,52,283,279,176,84,47
138,82,-56,-109,97,13,73,339,326,212,106,64
181,106,-75,-143,127,15,97,405,388,254,137,87
202,114,-88,-158,145,12,115,460,443,295,176,107
236,130,-105,-183,170,12,118,501,489,329,203,134
267,149,-118,-208,192,15,129,531,534,369,234,159
303,160,-143,-231,223,8,126,526,558,393,261,180
306,168,-138,-237,222,15,95,493,546,399,283,191
288,159,-129,-223,208,15,63,426,496,387,289,194
254,132,-121,-193,187,5,25,318,403,324,241,163
169,89,-80,-128,124,5,-4,210,284,229,172,108
93,46,-46,-69,69,0,-22,107,159,131,96,62
41,15,-26,-28,33,-5,-39,33,71,50,23,27
6,-14,-19,4,13,-16,-39,-6,17,-8,-23,-2
-14,-26,-12,20,-1,-19,-42,-38,-29,-51,-47,-32
-33,-39,-6,36,-13,-22,-50,-59,-58,-78,-61,-42
-42,-41,1,42,-22,-19,-50,-65,-69,-81,-65,-45
-41,-38,4,39,-22,-17,-50,-65,-72,-84,-65,-50
-26,-34,-8,30,-9,-20,-50,-65,-75,-86,-67,-54
-37,-40,-3,39,-17,-22,-50,-65,-73,-84,-65,-55
-64,-61,3,62,-34,-29,-49,-65,-69,-86,-65,-55
-65,-58,7,61,-36,-25,-45,-65,-70,-84,-65,-59
-68,-54,15,61,-41,-19,-45,-65,-70,-85,-65,-61
-69,-51,18,60,-44,-16,-43,-65,-70,-90,-65,-58
-64,-46,18,55,-41,-14,-39,-66,-71,-87,-61,-55
-56,-44,12,50,-34,-16,-40,-64,-74,-81,-60,-55
-61,-39,22,50,-42,-8,-43,-70,-78,-76,-60,-53
-71,-36,36,53,-53,0,-46,-80,-80,-70,-55,-49
-63,-33,30,48,-46,-1,-44,-80,-80,-66,-55,-50
-53,-28,25,40,-39,-1,-45,-79,-80,-74,-55,-53
-47,-25,22,36,-34,-1,-45,-83,-79,-82,-55,-56
-46,-29,16,37,-31,-6,-46,-85,-81,-84,-56,-54
-43,-30,13,36,-27,-8,-51,-86,-83,-89,-54,-56
-33,-24,9,28,-21,-7,-49,-91,-94,-95,-63,-53
-31,-21,10,26,-21,-5,-57,-102,-106,-95,-71,-50
-45,-35,10,40,-27,-12,-66,-111,-105,-95,-70,-50
-52,-42,10,47,-31,-16,-64,-114,-108,-95,-70,-50
-48,-39,10,43,-29,-15,-67,-119,-111,-95,-70,-50
-43,-37,6,40,-24,-16,-71,-124,-114,-103,-69,-49
-35,-34,1,34,-18,-16,-70,-127,-117,-106,-74,-54
-34,-36,-1,35,-16,-18,-67,-130,-120,-104,-81,-61
-37,-43,-5,41,-16,-24,-64,-130,-120,-105,-77,-60
-36,-46,-10,41,-13,-27,-61,-130,-122,-104,-73,-58
-36,-44,-8,41,-14,-26,-58,-130,-126,-106,-70,-55
-40,-42,-2,41,-19,-22,-55,-129,-125,-109,-65,-54
-42,-39,3,40,-22,-18,-57,-133,-121,-111,-68,-58
-47,-41,6,43,-27,-17,-61,-135,-120,-107,-70,-60
-56,-45,12,50,-33,-16,-58,-135,-120,-105,-70,-60
-59,-45,14,51,-36,-15,-55,-138,-116,-105,-73,-63
-60,-49,11,54,-35,-19,-53,-141,-114,-105,-76,-66
-58,-50,8,54,-33,-21,-49,-139,-118,-105,-74,-64
-54,-48,6,51,-30,-21,-52,-136,-120,-105,-71,-61
-44,-42,2,43,-22,-20,-59,-131,-120,-101,-70,-60
-43,-42,2,43,-23,-20,-55,-129,-119,-97,-71,-61
-47,-52,-5,50,-21,-28,-47,-124,-115,-94,-70,-60
-28,-41,-12,35,-8,-26,-41,-120,-115,-89,-70,-60
-15,-23,-8,19,-3,-15,-34,-118,-112,-86,-67,-58
-11,-14,-3,13,-4,-8,-29,-106,-95,-81,-57,-53
-8,-8,0,8,-4,-4,-32,-99,-85,-80,-48,-50
-13,-7,6,9,-9,0,-27,-85,-77,-80,-49,-47
-17,-2,16,9,-16,7,-52,-112,-90,-79,-50,-42
-16,0,16,8,-16,8,-84,-161,-135,-99,-50,-40
-2,-10,-9,6,4,-9,-73,-157,-140,-105,-50,-45
19,-14,-33,-2,26,-23,-72,-158,-141,-109,-49,-49
7,-35,-42,14,25,-38,-63,-148,-139,-109,-54,-50
-19,-56,-38,38,10,-47,-60,-151,-141,-117,-66,-60
-38,-68,-30,53,-4,-49,-56,-142,-140,-117,-80,-67
-51,-88,-36,69,-8,-62,-59,-140,-132,-110,-85,-64
-59,-75,-17,68,-21,-46,-47,-129,-133,-109,-85,-65
-64,-95,-30,80,-16,-63,-36,-118,-116,-94,-76,-67
-109,-75,34,91,-71,-20,-11,-100,-115,-105,-92,-91
-143,-118,25,131,-84,-46,223,160,65,-22,-120,-152
134,-45,-179,-44,157,-112,201,369,360,307,131,17
929,380,-548,-654,739,-84,-187,532,929,1116,948,642
1124,453,-671,-788,898,-109,-380,219,993,1245,1221,890
165,120,-46,-142,105,37,-272,-541,-98,114,282,264
-332,-185,147,258,-239,-19,-61,-544,-556,-412,-264,-174
-229,-318,-90,274,-69,-204,-19,-300,-338,-295,-182,-158
-191,-222,-31,207,-80,-126,-32,-223,-257,-235,-156,-135
-72,-99,-27,86,-23,-62,-13,-89,-98,-95,-78,-81
-37,-46,-9,42,-13,-27,-19,-51,-62,-70,-57,-62
-23,-35,-12,29,-5,-23,-8,-24,-32,-47,-39,-52
-20,-28,-9,24,-5,-19,-9,-17,-11,-32,-28,-42
-19,-23,-4,21,-7,-13,-3,-4,-3,-23,-23,-40
-16,-18,-1,17,-7,-9,0,10,10,-4,-7,-29
-30,-12,18,21,-23,3,4,25,15,1,-7,-26
-9,-4,5,6,-7,1,11,42,39,20,4,-16
2,3,2,-3,0,2,15,58,51,30,8,-12
18,13,-5,-15,11,3,22,76,78,45,20,-3
35,18,-17,-27,26,1,27,95,92,57,26,1
61,27,-34,-43,47,-3,29,129,117,76,35,7
76,42,-35,-58,55,3,44,166,155,104,60,13
95,47,-47,-71,71,0,68,214,199,134,78,18
116,52,-64,-84,90,-6,81,266,245,161,99,35
127,58,-69,-92,98,-5,102,326,293,198,125,54
163,83,-81,-123,122,1,128,387,353,240,153,76
191,90,-101,-140,146,-6,144,441,408,279,186,93
220,103,-117,-161,169,-7,147,483,455,318,216,117
261,133,-128,-197,194,2,141,505,496,353,247,138
287,138,-148,-212,217,-5,135,503,512,382,272,157
287,133,-154,-210,221,-10,115,463,495,387,289,173
267,121,-145,-194,206,-12,78,382,450,369,280,164
229,100,-129,-164,178,-14,42,278,347,304,241,139
164,62,-102,-113,133,-20,10,164,219,204,170,89
97,33,-65,-65,81,-16,-11,72,115,100,94,39
41,1,-40,-21,40,-19,-17,6,30,23,38,1
6,-31,-37,13,21,-34,-24,-45,-27,-32,-4,-34
-15,-46,-31,31,8,-38,-26,-74,-63,-72,-32,-52
-32,-59,-28,46,-2,-43,-25,-90,-88,-87,-46,-64
-38,-61,-22,50,-8,-41,-25,-96,-99,-100,-44,-65
-40,-59,-19,49,-10,-39,-25,-94,-101,-101,-46,-65
-41,-61,-20,51,-10,-41,-24,-91,-99,-98,-50,-65
-39,-59,-20,49,-10,-39,-19,-90,-95,-97,-50,-65
-42,-62,-20,52,-11,-41,-16,-90,-95,-94,-47,-65
-50,-70,-20,60,-15,-45,-13,-90,-94,-96,-45,-61
-47,-67,-20,57,-13,-43,-8,-90,-90,-95,-45,-58
-41,-61,-20,51,-10,-40,-5,-90,-91,-96,-42,-54
-38,-58,-20,48,-9,-39,-9,-90,-87,-95,-39,-52
-32,-52,-20,42,-5,-36,-19,-90,-85,-92,-41,-45
-31,-51,-20,41,-6,-35,-21,-90,-85,-89,-44,-50
-35,-56,-20,45,-7,-37,-16,-90,-89,-91,-45,-66
-36,-55,-18,46,-8,-36,-15,-90,-94,-94,-45,-65
-40,-55,-15,48,-12,-35,-10,-89,-95,-95,-45,-65
-40,-55,-15,48,-12,-35,-11,-96,-97,-95,-45,-65
-40,-55,-15,48,-12,-35,-24,-101,-101,-95,-42,-65
-52,-67,-15,60,-18,-41,-26,-99,-99,-95,-40,-65
-57,-71,-15,64,-21,-42,-25,-100,-92,-97,-40,-65
-49,-69,-20,60,-15,-44,-22,-100,-104,-101,-40,-65
-45,-71,-26,58,-10,-48,-19,-100,-112,-99,-39,-65
-45,-70,-25,58,-10,-47,-20,-104,-109,-104,-41,-65
-45,-70,-25,58,-10,-47,-20,-105,-111,-115,-49,-65
-41,-70,-29,56,-6,-49,-20,-106,-109,-115,-51,-65
-40,-70,-30,55,-5,-50,-20,-110,-111,-115,-50,-65
-40,-70,-30,55,-5,-50,-20,-110,-114,-115,-50,-65
-35,-70,-34,53,0,-52,-20,-109,-115,-114,-50,-65
-35,-70,-35,53,0,-52,-22,-115,-115,-118,-50,-64
-34,-68,-34,51,0,-50,-21,-124,-115,-120,-50,-68
-33,-63,-29,48,-2,-46,-20,-125,-115,-120,-50,-70
-31,-57,-26,45,-3,-41,-20,-127,-112,-120,-50,-70
-31,-54,-23,43,-4,-38,-20,-131,-110,-120,-50,-70
-30,-48,-18,39,-6,-33,-20,-128,-110,-120,-50,-70
-31,-46,-15,39,-8,-31,-18,-125,-110,-120,-46,-70
-44,-55,-11,50,-16,-33,-14,-125,-109,-120,-44,-65
-45,-55,-10,50,-17,-32,-17,-123,-112,-120,-45,-65
-45,-55,-10,50,-17,-32,-25,-119,-115,-120,-45,-64
-46,-55,-10,50,-18,-32,-22,-121,-111,-121,-46,-60
-45,-55,-10,50,-17,-32,-16,-116,-104,-117,-44,-61
-45,-54,-9,49,-17,-31,-13,-109,-99,-108,-38,-58
-32,-29,3,31,-17,-13,-6,-103,-94,-100,-30,-52
-24,-10,14,17,-19,2,-6,-95,-85,-91,-25,-48
-27,-5,22,16,-24,8,-3,-91,-78,-90,-17,-43
-28,1,29,13,-28,15,-20,-81,-66,-89,-11,-39
-11,6,17,2,-15,11,-55,-119,-90,-91,-20,-35
-4,9,13,-3,-8,11,-55,-153,-121,-99,-27,-40
-10,-13,-4,12,-3,-9,-47,-145,-118,-100,-23,-42
-9,-29,-20,20,6,-25,-47,-147,-125,-102,-27,-45
-13,-41,-28,27,8,-34,-37,-137,-123,-117,-37,-57
-31,-51,-20,41,-5,-35,-39,-142,-127,-138,-47,-65
-50,-67,-18,59,-16,-42,-26,-128,-114,-132,-52,-79
-71,-90,-19,81,-26,-54,-35,-143,-115,-138,-55,-85
-76,-78,-2,77,-36,-39,-24,-134,-104,-133,-58,-87
-68,-95,-28,82,-19,-61,-35,-144,-102,-136,-49,-80
-120,-70,50,95,-85,-9,58,-57,-76,-113,-85,-115
-119,-114,4,116,-61,-55,298,224,136,11,-93,-160
331,50,-281,-190,306,-116,144,430,499,465,319,142
1170,491,-679,-831,925,-94,-253,537,1089,1272,1166,787
1010,433,-578,-721,794,-73,-401,-51,771,988,1091,803
-17,31,48,-8,-32,39,-233,-677,-342,-162,79,111
-279,-242,37,261,-157,-103,-46,-477,-500,-433,-245,-194
-181,-288,-107,235,-37,-197,-40,-287,-280,-285,-153,-150
-142,-157,-15,149,-64,-85,-15,-183,-178,-194,-111,-113
-37,-66,-28,52,-4,-47,13,-80,-44,-90,-34,-63
-37,-40,-3,39,-17,-21,24,-50,-33,-76,-36,-62
-20,-34,-13,27,-3,-23,27,-17,-1,-45,-10,-46
-22,-26,-3,25,-9,-14,23,-21,2,-40,-5,-41
-23,-21,1,22,-12,-10,27,1,17,-25,8,-35
-6,-14,-8,10,2,-11,23,16,31,-14,16,-26
21,-7,-29,-7,25,-18,29,30,45,-8,22,-22
38,-1,-39,-18,38,-19,33,54,66,11,32,-14
37,6,-32,-21,34,-13,41,76,83,30,38,-11
64,23,-41,-43,52,-9,45,90,111,39,49,-1
75,36,-39,-55,56,-1,53,117,134,51,53,3
75,35,-40,-55,57,-2,68,154,168,78,68,12
88,35,-53,-61,70,-9,82,194,205,100,83,17
101,35,-65,-67,83,-15,99,247,249,128,103,21
120,41,-79,-80,99,-19,120,306,294,160,118,38
143,51,-92,-97,117,-20,147,372,348,192,139,55
175,73,-102,-124,138,-14,169,437,407,231,167,72
213,94,-120,-153,166,-13,182,490,466,279,202,97
243,102,-142,-172,192,-20,182,529,515,320,238,121
274,116,-158,-195,216,-21,170,543,548,353,265,142
291,125,-166,-208,228,-20,165,524,555,372,298,163
292,125,-166,-208,229,-20,145,463,526,370,313,163
278,123,-155,-200,216,-16,106,368,461,341,291,156
229,91,-138,-160,183,-23,64,254,352,264,239,140
154,46,-108,-99,131,-31,35,135,228,165,168,96
77,5,-72,-41,74,-33,25,47,117,80,102,48
29,-32,-61,2,45,-46,17,-19,40,3,46,6
7,-54,-61,24,35,-58,7,-62,-11,-52,3,-18
-24,-74,-50,50,13,-62,-1,-78,-49,-79,-22,-35
-46,-85,-39,66,-3,-62,-6,-94,-60,-92,-31,-49
-45,-86,-41,66,-2,-63,-11,-100,-66,-98,-30,-50
-44,-90,-46,68,1,-68,-15,-100,-71,-94,-30,-50
-45,-90,-45,68,0,-67,-12,-100,-70,-99,-30,-50
-45,-90,-45,68,0,-67,-9,-100,-70,-111,-30,-50
-45,-90,-45,68,0,-67,-6,-100,-70,-108,-30,-50
-45,-90,-45,68,0,-67,-3,-100,-70,-104,-31,-50
-48,-90,-42,69,-3,-66,-1,-96,-66,-101,-35,-50
-51,-90,-39,70,-6,-64,2,-95,-65,-95,-35,-50
-49,-85,-36,68,-6,-61,5,-95,-65,-97,-35,-50
-52,-85,-33,69,-9,-59,5,-91,-61,-100,-35,-50
-53,-84,-31,69,-11,-57,1,-90,-60,-100,-35,-46
-51,-80,-28,66,-12,-54,0,-91,-62,-100,-31,-45
-56,-81,-25,69,-15,-52,0,-97,-65,-100,-30,-45
-53,-78,-25,66,-14,-51,-5,-104,-67,-100,-30,-45
-49,-75,-25,62,-12,-50,-5,-105,-71,-97,-26,-45
-50,-75,-25,63,-12,-50,-6,-105,-70,-92,-25,-45
-50,-75,-25,63,-12,-50,-10,-110,-70,-90,-26,-45
-47,-75,-29,61,-9,-52,-10,-110,-69,-108,-30,-45
-44,-74,-30,59,-6,-52,-15,-111,-72,-122,-30,-45
-41,-71,-30,56,-5,-50,-15,-115,-83,-119,-34,-45
-39,-69,-30,54,-5,-50,-11,-118,-87,-120,-39,-46
-42,-71,-29,57,-6,-50,-9,-122,-92,-120,-35,-46
-39,-69,-29,54,-5,-49,-11,-127,-96,-120,-35,-45
-43,-74,-31,58,-6,-52,-9,-130,-94,-121,-36,-45
-56,-85,-30,70,-13,-57,-11,-130,-95,-120,-34,-45
-50,-77,-27,64,-12,-52,-8,-129,-95,-117,-37,-45
-46,-71,-25,59,-11,-48,-5,-130,-95,-113,-30,-43
-40,-64,-24,52,-7,-44,-5,-130,-94,-110,-26,-38
-27,-58,-31,43,2,-44,0,-124,-86,-105,-16,-32
-34,-50,-16,42,-8,-32,-2,-111,-83,-103,-12,-29
-17,-19,-2,18,-8,-10,15,-99,-67,-100,-4,-23
-13,-20,-7,17,-3,-13,32,-96,-51,-98,1,-20
-19,-27,-8,23,-5,-18,18,-87,-49,-96,-11,-15
-8,-18,-11,13,2,-14,-25,-119,-70,-92,-3,-13
-4,-4,0,5,-2,-2,-53,-153,-107,-130,-35,-33
12,0,-12,-6,12,-6,-44,-144,-111,-133,-27,-42
0,-39,-40,20,20,-39,-40,-140,-109,-139,-46,-42
-17,-53,-36,35,10,-45,-34,-135,-111,-130,-23,-47
-34,-60,-26,48,-4,-43,-28,-128,-109,-140,-47,-50
-62,-81,-19,72,-21,-49,-24,-125,-111,-127,5,-57
