I,II,III,aVR,aVL,aVF,V1,V2,V3,V4,V5,V6
21,-23,-44,1,33,-34,105,33,-29,45,95,-105
28,-17,-44,-5,36,-30,98,30,-22,44,97,-98
53,-6,-59,-23,56,-32,104,49,-10,53,103,-87
138,61,-77,-100,107,-8,72,42,5,70,126,-76
148,95,-54,-121,100,20,-32,-11,-30,64,138,-62
132,72,-60,-102,96,6,-61,-51,-68,53,130,-55
179,59,-120,-119,149,-30,-51,-50,-46,48,132,-42
110,0,-111,-55,111,-55,-30,-40,-72,13,111,-66
43,-61,-104,9,74,-83,0,-46,-103,-21,71,-111
3,-96,-99,47,51,-97,43,-30,-88,-20,55,-128
7,-107,-113,50,60,-110,37,-41,-96,-20,55,-132
34,-107,-141,36,88,-124,38,-21,-82,-17,44,-137
19,-99,-118,40,69,-108,53,-27,-90,-15,45,-134
13,-102,-115,45,64,-108,39,-17,-74,-15,32,-133
-24,-93,-69,59,23,-81,114,38,-32,-1,42,-149
-5,-95,-90,50,43,-92,146,107,24,50,45,-166
78,-90,-169,6,124,-129,230,380,307,337,196,-100
490,57,-433,-273,461,-188,-120,-128,122,475,522,163
585,-73,-658,-255,622,-366,-716,-1645,-1167,-530,150,168
-50,-476,-426,264,188,-451,-792,-2457,-2153,-1632,-615,-208
-243,-412,-169,328,-36,-290,-571,-1600,-1489,-1208,-562,-306
-83,-82,0,82,-41,-40,-143,-353,-385,-309,-123,-171
-20,-30,-10,25,-5,-20,106,70,-39,-9,-3,-135
58,-45,-103,-6,81,-74,129,155,34,40,11,-130
41,-29,-70,-5,56,-50,151,202,89,77,57,-122
43,-36,-79,-3,61,-57,141,219,99,95,69,-116
46,-27,-73,-9,60,-49,149,238,124,113,74,-109
45,-28,-73,-8,59,-50,139,251,136,134,77,-104
39,-19,-58,-10,49,-38,140,276,149,141,84,-100
30,-16,-46,-7,38,-30,136,287,158,157,91,-100
68,-9,-77,-29,73,-43,133,306,175,162,88,-100
77,-3,-79,-37,78,-41,152,320,201,175,102,-100
71,0,-71,-35,71,-35,166,340,210,192,117,-100
90,17,-73,-54,81,-27,164,359,221,195,114,-95
111,47,-64,-79,87,-9,167,381,250,221,120,-86
127,58,-69,-92,97,-6,171,412,271,239,119,-77
107,54,-53,-80,80,0,170,456,302,257,126,-69
113,63,-50,-88,81,6,167,507,346,291,144,-61
146,56,-90,-100,118,-17,163,557,375,310,147,-53
137,60,-77,-98,107,-9,171,605,413,332,153,-44
157,85,-71,-121,113,7,189,664,461,367,162,-38
161,87,-73,-124,117,7,202,702,483,384,161,-27
149,92,-57,-120,103,17,193,713,475,375,160,-8
181,96,-86,-138,133,5,180,710,465,365,160,9
193,101,-92,-146,142,4,169,656,453,354,159,18
131,103,-28,-117,79,38,140,585,404,326,161,40
123,87,-35,-105,79,26,105,444,309,278,154,62
169,80,-89,-124,129,-4,74,278,193,206,141,51
117,42,-75,-79,96,-17,63,172,93,134,129,33
72,0,-72,-36,72,-36,66,90,32,80,102,24
56,-6,-62,-24,59,-34,62,52,-13,47,80,18
54,-7,-61,-23,58,-34,60,23,-44,31,80,11
28,-13,-41,-7,35,-26,60,8,-49,16,80,5
17,-36,-53,10,35,-44,56,11,-53,14,80,-3
50,-38,-89,-6,70,-63,54,8,-56,15,80,-2
3,-27,-31,12,17,-29,55,5,-52,15,78,16
13,-24,-37,6,25,-30,55,5,-50,15,75,21
37,-15,-52,-11,45,-33,55,3,-47,15,75,19
23,-11,-33,-6,28,-22,54,-1,-44,19,75,21
32,-4,-36,-14,34,-20,47,0,-46,20,75,19
26,3,-23,-14,25,-10,43,-4,-44,20,75,21
49,9,-40,-28,44,-15,37,-6,-47,20,72,17
38,17,-22,-27,30,-3,32,-5,-43,20,69,15
20,18,-2,-19,11,8,24,1,-51,18,66,15
49,7,-41,-28,45,-17,33,1,-74,15,63,11
55,-2,-57,-26,56,-29,55,-5,-76,12,60,10
39,-17,-56,-11,48,-36,50,-6,-74,10,58,10
25,-37,-62,6,43,-49,42,-11,-71,6,55,17
15,-40,-55,13,35,-47,37,-14,-70,5,50,29
10,-40,-50,15,30,-45,28,-19,-70,2,48,32
5,-40,-45,18,25,-42,26,-38,-85,-4,43,30
-1,-40,-39,21,19,-39,30,-40,-101,-7,40,26
-6,-40,-34,23,14,-36,30,-33,-92,-13,43,24
-4,-34,-30,19,13,-31,32,-25,-85,-14,46,20
9,-28,-37,10,23,-33,35,-20,-81,-8,49,20
12,-19,-31,4,22,-25,35,-11,-70,-3,52,25
26,-17,-43,-4,35,-30,39,-15,-77,2,55,25
28,0,-28,-14,28,-14,40,-22,-77,10,60,25
-4,25,28,-11,-16,26,49,10,-68,13,68,26
2,43,41,-22,-20,41,61,21,-56,22,72,36
7,38,30,-23,-12,34,78,28,-39,33,78,38
45,71,27,-58,9,49,81,55,-40,48,100,56
101,144,43,-123,29,94,16,31,-42,57,125,94
101,141,40,-122,31,91,-46,-19,-53,48,124,96
101,127,26,-114,37,76,-54,-27,-33,50,125,93
86,92,6,-90,40,49,-50,-38,-48,29,122,97
57,37,-20,-47,38,8,-33,-58,-114,-1,80,63
26,-13,-39,-6,32,-26,5,-34,-112,-21,45,19
12,-36,-48,13,30,-42,38,-25,-102,-25,45,14
22,-36,-58,7,40,-46,21,-41,-104,-28,42,12
-16,-59,-43,38,14,-51,39,-9,-88,-43,36,8
-15,-59,-44,37,14,-51,21,-31,-94,-36,39,7
-21,-63,-42,42,10,-52,38,9,-68,-23,28,2
-61,-55,7,58,-34,-24,96,52,-41,7,34,-3
-35,-71,-36,53,0,-53,152,213,105,111,46,-29
154,-20,-174,-67,164,-97,182,398,368,465,323,105
602,75,-527,-338,564,-226,-336,-489,-183,274,500,343
360,-138,-498,-111,429,-318,-734,-1925,-1524,-957,-122,216
-287,-384,-97,336,-95,-241,-655,-2192,-1960,-1544,-641,-114
-223,-203,20,213,-121,-91,-431,-1142,-1076,-871,-408,-137
-65,12,77,26,-71,44,-62,-174,-239,-197,-75,-24
-35,-5,30,20,-32,12,62,97,-6,-6,9,-8
-20,-6,13,13,-16,3,100,177,55,38,26,-6
-19,-8,10,13,-15,1,119,210,80,80,60,-12
26,-19,-45,-4,36,-31,102,220,93,80,59,-15
26,-4,-29,-11,28,-16,117,243,121,97,63,-10
28,-5,-33,-12,31,-19,117,265,133,112,65,-5
18,-11,-28,-4,23,-19,126,270,138,112,66,0
23,-7,-31,-8,27,-19,113,284,156,130,70,3
28,-2,-30,-13,30,-16,112,297,172,142,72,9
31,2,-29,-16,30,-14,104,312,182,153,75,13
56,25,-31,-40,43,-3,100,336,199,163,82,22
71,45,-25,-58,48,10,108,351,218,175,95,33
73,47,-25,-59,49,11,105,381,244,192,95,40
79,54,-25,-66,52,14,106,402,259,201,95,40
79,54,-25,-66,51,14,103,434,280,213,95,41
74,49,-25,-61,50,11,111,486,319,249,95,45
88,63,-25,-76,56,19,139,540,361,283,114,45
121,76,-44,-98,82,16,141,592,398,303,121,47
165,102,-63,-134,113,20,139,641,433,320,113,52
177,119,-57,-148,117,31,141,659,449,316,110,54
173,117,-56,-145,115,30,139,653,432,306,104,51
175,124,-51,-149,113,36,139,653,424,299,101,48
161,124,-37,-143,99,43,105,611,405,284,95,46
141,118,-23,-130,82,47,73,513,345,255,94,42
121,106,-15,-113,68,45,60,394,266,214,94,40
104,88,-16,-95,59,36,24,263,162,157,76,37
71,58,-13,-64,42,22,2,148,69,95,63,17
54,27,-28,-40,41,-1,9,85,13,56,58,17
59,12,-47,-35,52,-17,13,53,-14,32,55,20
27,-2,-29,-12,28,-15,17,23,-38,21,48,-4
19,-10,-29,-4,24,-19,23,13,-62,17,37,-21
31,-11,-42,-10,37,-27,24,19,-59,11,28,-21
-5,-15,-10,11,3,-12,19,23,-54,8,24,-20
3,-15,-18,7,11,-16,16,27,-53,2,25,-20
19,-15,-34,-2,27,-24,12,33,-47,1,25,-20
-19,-15,4,17,-11,-6,9,34,-45,14,25,-20
-32,-15,18,23,-25,1,4,29,-45,17,24,-20
-28,-15,13,21,-20,-1,13,26,-45,12,20,-20
-21,-14,6,17,-13,-4,22,23,-45,10,15,-20
-7,-11,-3,9,-2,-7,16,18,-45,5,11,-20
-2,-10,-8,6,3,-9,12,15,-46,1,6,-20
10,-10,-20,0,15,-15,7,11,-42,-2,1,-20
20,-11,-31,-5,26,-21,3,5,-41,-7,2,-20
15,-9,-25,-3,20,-16,-1,0,-47,-13,11,-20
8,-14,-23,3,15,-18,16,-6,-53,-19,18,-20
-11,-26,-16,19,3,-21,31,-12,-69,-20,15,-20
-21,-25,-4,23,-8,-14,25,-15,-71,-20,8,-20
-12,-21,-10,17,-1,-15,21,-15,-69,-20,4,-18
6,-19,-26,7,16,-22,17,-14,-71,-20,-2,-11
-9,-15,-6,12,-1,-10,12,-16,-69,-20,-8,-15
-15,-15,0,15,-7,-8,9,-13,-72,-20,-8,-23
0,-21,-21,11,10,-21,5,-20,-74,-30,-4,-23
-19,-31,-12,25,-3,-21,2,-30,-70,-39,-5,-18
15,-36,-51,11,33,-43,-3,-23,-70,-30,-5,-15
23,-49,-72,13,48,-60,-6,-20,-73,-22,-5,-11
0,-42,-42,21,21,-42,3,-11,-62,-14,-5,-8
23,-6,-29,-8,26,-17,12,-8,-46,-6,5,-4
26,35,9,-30,8,22,26,3,-41,2,19,0
-10,57,67,-24,-39,62,44,34,-36,25,37,7
10,53,43,-31,-17,48,57,38,-36,32,47,11
55,92,37,-74,8,65,24,15,-28,26,43,21
71,140,69,-106,1,104,-65,-34,-39,23,55,48
105,159,54,-132,25,106,-90,-72,-86,18,60,53
93,128,35,-111,29,82,-78,-74,-100,16,57,43
73,64,-9,-68,41,27,-65,-62,-97,-10,41,26
57,26,-31,-41,44,-2,-50,-64,-99,-42,9,-7
18,-23,-41,3,30,-31,-31,-50,-90,-47,-13,-38
2,-48,-50,23,26,-49,-30,-52,-93,-50,-26,-44
-8,-62,-54,35,23,-58,-25,-41,-85,-61,-41,-53
-25,-64,-39,45,8,-52,-11,-35,-86,-54,-26,-57
-20,-73,-53,46,17,-62,-22,-41,-80,-48,-12,-53
-51,-73,-23,62,-14,-48,59,20,-51,-42,-34,-61
-70,-77,-7,74,-31,-42,72,84,6,12,-42,-67
-4,-99,-95,51,46,-97,177,350,285,290,103,-44
356,48,-308,-202,332,-129,-68,-24,218,553,498,236
507,28,-479,-267,493,-225,-644,-1413,-916,-275,311,398
-59,-291,-232,175,87,-261,-731,-2274,-1987,-1489,-487,43
-304,-303,1,303,-152,-151,-604,-1716,-1598,-1317,-629,-190
-124,-68,56,96,-90,-6,-252,-561,-562,-473,-252,-109
-81,-26,56,53,-68,15,33,7,-75,-81,-64,-75
-53,-37,16,45,-34,-10,68,130,37,15,-28,-69
-44,-19,25,32,-34,3,100,188,74,46,-14,-56
-24,-21,3,22,-13,-9,86,198,95,67,-8,-49
-8,-8,-1,8,-3,-4,98,220,115,81,-5,-40
3,-6,-9,2,6,-7,104,228,121,95,3,-37
22,4,-17,-13,19,-6,120,242,134,96,7,-30
17,1,-16,-9,16,-7,112,255,153,105,14,-25
10,5,-5,-8,8,0,102,268,171,121,25,-19
14,21,7,-17,3,13,99,281,188,131,38,-16
10,33,23,-22,-7,28,85,312,203,149,45,-13
8,42,34,-25,-13,38,97,322,220,157,46,-10
19,39,20,-29,0,29,106,338,243,167,50,-7
29,44,15,-37,7,29,102,378,272,195,52,-5
47,49,2,-48,23,25,99,404,292,212,57,-3
81,66,-15,-73,48,25,98,444,322,229,60,4
98,84,-15,-91,56,34,93,498,366,252,70,11
106,90,-16,-97,61,37,108,549,405,278,79,17
109,95,-14,-101,61,40,122,601,446,306,75,24
115,99,-16,-106,65,41,118,632,449,306,75,30
116,102,-14,-108,65,44,113,627,437,294,74,35
127,108,-20,-117,73,44,109,622,434,286,69,39
146,115,-31,-130,88,42,105,608,425,273,71,44
118,109,-9,-113,63,50,77,533,385,242,67,43
106,96,-10,-101,58,43,35,412,303,199,59,36
93,89,-4,-91,48,42,12,277,207,151,53,29
59,72,14,-66,22,43,-6,152,109,100,45,23
33,58,25,-46,4,41,-25,68,37,61,37,16
13,38,25,-26,-6,31,-32,8,-3,16,31,10
31,2,-29,-16,30,-14,-31,-35,-44,-29,19,5
40,-7,-47,-16,44,-27,-25,-42,-63,-41,4,0
19,-4,-23,-7,21,-13,-26,-38,-59,-39,-2,-4
11,-5,-16,-3,14,-10,-35,-42,-61,-40,0,-6
6,1,-6,-4,6,-2,-30,-38,-60,-40,3,-10
-15,-1,14,8,-15,6,-22,-42,-60,-40,6,-15
-31,3,34,14,-33,18,-16,-31,-56,-37,9,-13
-53,5,58,24,-56,31,-27,-20,-55,-34,10,-7
-52,5,57,23,-55,31,-42,-53,-55,-31,3,-2
-23,4,28,9,-26,16,-39,-68,-50,-29,-7,1
-24,6,30,9,-27,17,-37,-64,-50,-25,-11,7
-22,4,26,9,-25,15,-34,-66,-51,-26,-13,9
-27,-9,18,18,-22,5,-30,-64,-56,-32,-16,6
-31,-11,20,21,-25,4,-30,-66,-59,-36,-19,3
-26,-20,6,22,-15,-7,-35,-61,-64,-40,-21,1
-47,-22,25,35,-36,1,-35,-60,-68,-43,-24,-3
-42,-19,23,30,-32,2,-35,-60,-72,-46,-27,-5
-40,-21,20,30,-30,0,-35,-63,-86,-48,-29,-3
-34,-19,14,26,-24,-3,-37,-72,-92,-53,-33,1
-11,-21,-10,16,0,-15,-40,-69,-89,-53,-36,4
-40,-17,23,29,-31,3,-40,-69,-88,-58,-33,8
-43,-9,34,26,-38,12,-40,-63,-83,-46,-26,10
-35,-1,35,18,-35,17,-40,-68,-88,-42,-19,5
-14,6,20,3,-17,13,-39,-78,-96,-61,-13,0
8,16,8,-12,-1,12,-30,-70,-83,-43,-5,-4
-22,30,52,-5,-37,41,-13,-60,-69,-28,0,-2
-27,63,90,-18,-59,77,-3,-48,-46,-21,7,15
-9,71,80,-31,-45,75,8,-36,-29,-10,15,26
26,93,67,-59,-21,80,3,-12,-11,5,24,37
45,147,102,-97,-29,124,-70,-41,-7,27,40,49
35,137,102,-86,-34,120,-125,-101,-54,16,35,49
47,123,77,-85,-15,100,-123,-113,-70,7,29,61
46,89,43,-68,1,66,-104,-108,-61,-16,22,52
17,40,22,-29,-3,31,-79,-114,-83,-53,-18,18
2,11,9,-7,-3,10,-63,-115,-83,-61,-46,-11
-24,-20,3,22,-13,-8,-31,-113,-77,-60,-46,-24
-24,-38,-14,31,-5,-26,-40,-114,-75,-60,-55,-30
-43,-59,-16,51,-13,-37,-13,-86,-66,-72,-63,-46
-40,-63,-23,52,-8,-43,-30,-91,-70,-65,-55,-36
-68,-69,-1,69,-33,-35,1,-39,-37,-52,-67,-48
-126,-70,56,97,-90,-6,59,-10,-16,-31,-68,-60
-80,-86,-7,83,-36,-46,121,184,149,105,-29,-64
149,7,-142,-78,146,-68,93,219,355,458,267,76
561,116,-445,-338,503,-164,-508,-837,-282,226,434,343
305,-161,-466,-72,386,-313,-893,-2200,-1674,-1089,-212,175
-230,-416,-186,323,-22,-300,-812,-2284,-2017,-1642,-719,-166
-215,-184,31,200,-123,-76,-494,-1076,-950,-822,-434,-141
-114,25,139,44,-126,81,-59,-168,-150,-182,-128,-65
-44,-1,44,22,-45,21,38,48,37,-30,-68,-68
-38,1,39,19,-39,20,78,129,106,24,-58,-56
-36,-6,29,21,-32,11,92,149,118,45,-49,-53
-36,-10,25,23,-31,7,86,182,149,61,-41,-48
-59,-2,57,30,-58,27,94,185,172,74,-33,-44
-39,0,38,19,-39,18,96,201,178,86,-25,-40
-35,7,42,14,-39,24,114,223,193,95,-20,-34
-23,9,32,7,-28,20,97,245,210,100,-13,-29
-11,15,25,-2,-18,20,96,254,211,108,-9,-22
-13,26,39,-7,-27,32,87,272,241,131,2,-18
-26,45,71,-10,-49,58,79,301,253,151,21,-12
7,50,43,-29,-18,47,101,319,277,164,26,-8
48,56,8,-52,19,32,118,352,309,170,24,-4
53,58,4,-56,24,31,110,374,323,189,26,1
51,62,11,-57,20,36,110,423,367,222,23,5
41,64,23,-53,8,43,103,471,398,242,32,11
50,71,21,-60,15,46,116,518,438,263,45,16
86,102,16,-94,35,59,141,579,481,290,48,21
98,112,14,-106,42,62,135,618,503,302,51,27
103,112,9,-107,46,61,130,644,524,303,55,33
112,116,5,-114,53,60,124,643,538,295,53,33
97,107,11,-102,43,59,119,633,516,290,46,29
71,101,30,-86,20,65,112,592,478,287,39,30
43,91,48,-68,-3,69,75,467,400,238,33,26
45,85,40,-65,2,62,42,323,288,177,26,25
41,73,32,-58,4,52,29,189,202,123,16,25
18,41,22,-30,-2,31,15,76,113,57,1,16
3,18,15,-11,-6,16,9,6,38,12,-14,3
-11,5,16,2,-14,11,6,-39,0,-14,-32,-8
7,-8,-15,1,11,-11,3,-67,-29,-41,-48,-22
5,-16,-22,6,14,-18,-2,-71,-37,-47,-50,-26
-10,-17,-7,14,-1,-12,-5,-66,-34,-44,-50,-25
-6,-9,-3,7,-1,-6,-2,-64,-32,-45,-55,-25
-35,-21,14,28,-24,-4,1,-61,-30,-45,-55,-25
-60,-37,23,48,-41,-7,13,-59,-30,-45,-53,-26
-45,-29,16,37,-30,-6,17,-56,-26,-41,-50,-22
-35,-25,9,30,-21,-8,8,-53,-23,-38,-47,-20
-56,-22,34,39,-45,6,3,-50,-21,-35,-45,-20
-60,-14,46,37,-52,16,-4,-48,-18,-33,-41,-16
-60,-26,34,43,-47,4,-11,-44,-15,-30,-40,-14
-72,-42,30,57,-51,-5,-14,-52,-18,-30,-44,-16
-59,-39,20,49,-40,-10,-6,-67,-27,-31,-45,-19
-55,-40,15,47,-35,-12,6,-72,-35,-29,-45,-23
-46,-40,6,43,-26,-17,6,-79,-44,-50,-45,-28
-47,-40,7,43,-27,-16,0,-80,-50,-66,-44,-30
-73,-44,29,58,-51,-7,-5,-84,-49,-64,-47,-30
-72,-46,27,59,-49,-9,-10,-85,-52,-65,-50,-30
-65,-44,21,55,-42,-12,-17,-80,-55,-65,-50,-30
-64,-45,19,55,-41,-13,-19,-81,-56,-65,-50,-30
-55,-45,10,49,-32,-17,-14,-79,-52,-63,-50,-24
-59,-44,15,52,-37,-14,-8,-89,-43,-53,-50,-18
-55,-29,26,42,-40,-2,-5,-86,-34,-45,-46,-11
-67,1,68,33,-68,34,1,-71,-25,-35,-38,-4
-63,38,100,12,-82,69,4,-57,-17,-27,-33,3
-23,69,92,-24,-58,81,13,-44,-7,-17,-25,4
-46,52,99,-3,-73,75,27,-29,2,-7,-19,-2
-20,80,100,-30,-60,90,-15,-29,14,2,-13,26
18,119,101,-68,-42,109,-88,-81,-8,3,-7,52
22,115,93,-69,-36,104,-98,-112,-30,-20,-2,43
75,111,36,-93,19,73,-90,-109,-6,-28,6,35
44,60,15,-52,14,37,-79,-114,-33,-40,-9,26
-27,3,31,12,-29,17,-70,-124,-79,-69,-34,1
-73,-54,19,63,-46,-17,-28,-108,-72,-74,-63,-37
-87,-68,18,77,-52,-25,-8,-110,-78,-69,-73,-47
-59,-64,-4,61,-27,-34,-13,-96,-73,-68,-77,-50
-63,-64,-1,64,-31,-32,5,-96,-76,-65,-74,-51
-54,-80,-26,67,-14,-53,-17,-99,-76,-60,-74,-46
-75,-87,-12,82,-31,-50,44,-41,-40,-63,-84,-64
-99,-71,28,85,-64,-21,82,25,32,-20,-64,-67
-60,-90,-30,75,-14,-60,182,304,307,251,62,-27
333,50,-283,-191,308,-116,-89,-61,236,479,395,202
600,29,-572,-314,586,-271,-722,-1512,-928,-369,159,280
-21,-384,-363,203,171,-373,-868,-2514,-2087,-1601,-622,-73
-358,-434,-76,396,-141,-255,-672,-1864,-1642,-1391,-701,-235
-150,-110,40,129,-94,-35,-247,-567,-500,-472,-285,-116
-99,-35,64,67,-82,15,10,-40,-36,-94,-104,-71
-74,-59,16,66,-45,-21,42,75,61,-19,-79,-61
-112,-47,65,79,-88,9,110,128,107,23,-64,-54
-100,-59,41,80,-70,-9,90,146,119,43,-58,-52
-81,-53,28,67,-54,-12,98,170,125,43,-54,-45
-73,-49,24,61,-49,-12,95,174,136,58,-45,-42
-33,-29,3,31,-18,-13,90,206,153,72,-32,-37
-51,-24,28,37,-39,2,92,207,163,84,-18,-33
-71,-19,52,45,-61,16,88,225,190,98,-9,-27
-71,-14,57,42,-64,21,87,238,199,106,-3,-24
-63,-10,53,36,-58,21,84,270,222,133,1,-19
-48,-6,42,27,-45,18,84,287,231,141,8,-14
-28,6,34,10,-31,20,80,294,237,150,12,-11
-3,32,36,-15,-20,34,78,333,271,175,19,-6
11,46,35,-29,-12,40,91,374,298,194,33,-4
15,50,35,-33,-10,42,111,425,337,225,47,1
23,57,34,-40,-6,45,97,471,369,241,55,4
28,58,30,-43,-1,44,110,528,408,269,55,7
37,67,30,-52,3,48,141,586,453,308,55,13
58,89,31,-74,14,60,139,625,480,306,55,17
61,89,28,-75,16,59,131,647,488,295,55,22
66,100,34,-83,16,66,117,633,470,288,53,26
97,108,11,-102,43,59,107,601,459,279,46,31
79,96,17,-87,31,56,99,538,421,257,39,36
40,89,49,-65,-5,69,48,394,319,208,33,33
32,73,41,-53,-5,57,6,238,211,161,26,28
2,41,38,-22,-18,39,2,115,116,101,20,26
-36,0,36,17,-36,18,-14,27,42,31,3,7
-62,-31,32,46,-47,1,-17,-27,-7,-10,-23,-17
-70,-39,31,55,-50,-4,-15,-67,-46,-29,-31,-20
-58,-32,26,45,-42,-3,-15,-84,-68,-49,-38,-26
-62,-38,24,50,-42,-7,-11,-98,-70,-65,-54,-40
-58,-41,18,49,-38,-11,-10,-96,-64,-61,-52,-37
-60,-43,18,51,-39,-12,-11,-86,-62,-54,-45,-31
-60,-52,8,55,-34,-22,-15,-82,-57,-51,-44,-29
-68,-49,19,59,-44,-15,-15,-73,-54,-41,-35,-20
-100,-50,50,75,-75,0,-15,-69,-66,-47,-42,-24
-100,-50,50,75,-75,0,-15,-61,-76,-61,-50,-29
-92,-49,43,70,-68,-3,-13,-58,-75,-61,-34,-27
-97,-53,44,75,-70,-4,4,-49,-75,-58,-27,-16
-91,-55,36,73,-63,-9,17,-71,-75,-55,-36,-23
-84,-55,29,69,-56,-13,3,-102,-75,-54,-45,-49
-76,-58,17,67,-46,-20,-10,-97,-77,-58,-40,-41
-81,-61,21,71,-51,-20,-19,-94,-82,-61,-35,-30
-96,-59,37,78,-67,-11,-28,-91,-86,-59,-29,-30
-86,-55,31,70,-58,-12,-33,-86,-90,-62,-23,-30
-78,-48,30,62,-54,-8,-37,-85,-90,-57,-20,-29
-45,-40,5,43,-24,-18,-40,-95,-94,-63,-30,-39
-32,-35,-3,34,-14,-19,-44,-106,-96,-81,-54,-56
-10,-25,-14,18,2,-19,-44,-105,-92,-80,-58,-55
-12,-34,-23,23,6,-28,-39,-105,-90,-80,-52,-55
-63,-55,8,59,-35,-23,-41,-105,-86,-80,-49,-55
-72,-72,0,72,-36,-35,-37,-105,-85,-81,-44,-55
-92,-77,15,84,-53,-31,-34,-102,-80,-77,-40,-52
-58,-43,15,50,-36,-14,-36,-93,-81,-70,-35,-44
-57,-18,39,38,-48,10,-28,-83,-69,-61,-28,-37
-58,-11,46,34,-52,17,-13,-77,-59,-56,-23,-31
-43,6,50,19,-47,28,1,-65,-43,-47,-14,-29
-45,14,59,15,-52,36,16,-61,-20,-37,8,-31
13,40,27,-27,-7,33,25,-43,-30,-28,21,-23
23,89,66,-56,-22,78,-52,-53,-34,-5,30,15
24,88,64,-56,-20,76,-123,-115,-67,-39,30,32
46,90,44,-68,1,66,-97,-135,-85,-31,26,35
47,58,12,-52,17,35,-76,-127,-77,-22,25,35
-22,-16,6,19,-13,-5,-68,-132,-106,-78,-6,7
-77,-66,11,71,-44,-27,-59,-130,-109,-82,-51,-31
-96,-111,-15,104,-40,-63,-48,-128,-101,-75,-57,-57
-93,-118,-25,106,-34,-71,-52,-131,-101,-75,-51,-53
-81,-119,-38,100,-21,-79,-32,-106,-90,-71,-52,-54
-87,-123,-36,105,-25,-79,-44,-116,-94,-68,-23,-41
-102,-129,-27,116,-37,-78,2,-57,-69,-80,-49,-58
-118,-124,-6,122,-56,-65,43,-27,-51,-64,-69,-80
-113,-141,-28,127,-42,-85,102,144,116,85,-21,-76
102,-72,-174,-15,138,-123,101,295,355,443,268,66
541,38,-503,-289,522,-232,-435,-678,-275,164,418,329
245,-196,-442,-24,344,-319,-793,-2093,-1627,-1107,-250,158
-362,-453,-91,408,-135,-272,-699,-2231,-1955,-1597,-749,-202
-311,-259,52,285,-181,-103,-440,-1123,-1004,-855,-457,-178
-177,-58,119,117,-148,30,-89,-220,-221,-223,-139,-75
-117,-75,42,96,-80,-16,14,20,-13,-46,-62,-63
-93,-64,29,78,-61,-18,42,103,49,-8,-51,-51
-99,-63,36,81,-67,-13,68,131,77,29,-36,-51
-72,-62,11,67,-42,-25,67,152,97,53,-30,-46
-88,-57,31,72,-59,-13,74,174,120,64,-24,-43
-69,-56,13,63,-41,-21,65,183,128,68,-18,-39
-74,-49,25,61,-49,-12,67,191,136,71,-13,-36
-80,-49,30,64,-55,-9,64,205,155,84,-7,-33
-46,-42,4,44,-25,-18,62,220,163,90,-5,-30
-28,-41,-14,35,-7,-27,58,236,184,112,-1,-27
-25,-32,-7,29,-9,-20,54,260,213,137,0,-25
-44,-18,26,31,-35,4,52,282,220,149,5,-23
-22,-5,17,13,-19,6,45,293,229,148,5,-16
21,4,-17,-12,19,-6,47,330,263,162,17,-9
25,12,-13,-18,19,-1,72,380,300,197,31,-3
30,20,-10,-25,20,5,83,419,325,211,29,4
34,27,-7,-30,20,10,79,481,370,251,50,10
39,36,-2,-37,20,17,79,528,407,277,61,8
41,42,1,-41,20,21,74,577,441,292,58,20
81,61,-20,-70,50,20,76,603,458,307,61,32
119,77,-42,-98,80,17,86,604,448,296,55,30
111,75,-35,-93,72,20,78,596,442,288,51,28
104,73,-30,-88,66,21,64,538,403,260,46,26
107,84,-23,-95,65,30,35,445,351,225,42,24
88,72,-16,-80,52,28,2,314,261,184,37,29
40,32,-7,-36,23,12,-19,174,154,136,41,39
35,19,-15,-27,25,2,-36,75,72,76,36,24
21,-10,-31,-6,26,-20,-34,3,4,26,17,6
-30,-46,-16,38,-6,-31,-26,-45,-45,7,4,-1
-49,-54,-5,52,-22,-29,-25,-58,-79,-23,-9,-10
-37,-60,-23,49,-7,-41,-17,-73,-93,-46,-19,-20
-26,-60,-34,43,3,-47,-17,-79,-92,-52,-28,-23
-31,-58,-27,45,-1,-42,-37,-67,-86,-51,-31,-19
-28,-52,-24,40,-2,-38,-41,-64,-81,-47,-29,-20
-48,-48,0,48,-24,-24,-33,-55,-75,-45,-27,-20
-64,-43,21,53,-42,-10,-33,-51,-70,-41,-24,-20
-36,-40,-4,38,-16,-22,-26,-50,-65,-40,-26,-20
-22,-33,-11,28,-5,-22,-25,-51,-61,-40,-38,-10
-46,-39,6,42,-25,-16,-25,-50,-54,-40,-40,6
-61,-64,-4,62,-28,-34,-26,-53,-66,-39,-34,13
-31,-49,-18,40,-6,-33,-40,-75,-83,-41,-32,8
-31,-37,-6,34,-12,-21,-43,-82,-84,-38,-27,5
-46,-36,9,41,-27,-13,-35,-79,-89,-46,-25,2
-29,-28,1,28,-15,-13,-32,-81,-94,-65,-25,-3
-33,-53,-20,44,-6,-37,-24,-79,-98,-65,-25,-5
-56,-68,-13,62,-21,-41,-21,-81,-100,-66,-25,-10
-75,-61,14,68,-45,-23,-38,-74,-94,-70,-25,-10
-77,-61,16,68,-46,-22,-46,-79,-95,-70,-25,-11
-75,-63,12,68,-43,-25,-48,-98,-110,-68,-27,-15
-76,-66,10,71,-43,-28,-52,-99,-113,-62,-30,-15
-70,-64,6,67,-38,-29,-55,-92,-105,-58,-41,-13
-71,-66,5,68,-38,-31,-51,-89,-101,-53,-39,-7
-63,-63,1,63,-32,-30,-38,-83,-94,-49,-27,-4
-34,-31,3,33,-18,-14,-32,-79,-89,-43,-17,2
-17,5,22,6,-20,14,-17,-74,-83,-38,-8,4
-30,35,65,-3,-48,50,-14,-67,-71,-26,3,17
-49,33,83,8,-66,58,5,-62,-68,-19,7,37
-28,50,78,-11,-53,64,-3,-43,-71,-13,28,48
34,99,64,-67,-15,81,-102,-75,-77,-10,42,69
38,111,73,-75,-18,92,-142,-142,-101,-48,31,77
25,94,70,-60,-23,82,-131,-123,-107,-63,55,79
33,61,28,-47,2,44,-120,-101,-103,-58,29,69
-1,9,10,-4,-5,9,-84,-136,-127,-61,-5,46
-55,-60,-6,58,-24,-33,-46,-127,-127,-58,-26,23
-86,-89,-3,88,-41,-46,-58,-122,-118,-71,-56,16
-50,-90,-41,70,-5,-65,-69,-111,-114,-81,-33,10
-57,-89,-32,74,-13,-60,-46,-89,-103,-64,-19,0
-41,-90,-49,66,4,-69,-63,-89,-100,-54,-8,0
-54,-92,-37,73,-8,-64,6,-23,-67,-59,-34,-39
-127,-111,17,119,-72,-46,36,4,-9,-16,-52,-58
-60,-141,-80,101,10,-110,121,251,225,203,47,-39
228,-4,-233,-112,230,-118,-21,104,311,563,424,200
481,41,-439,-261,460,-199,-594,-1170,-634,-3,444,472
54,-262,-316,104,185,-289,-792,-2269,-1910,-1362,-353,201
-355,-389,-34,372,-160,-211,-675,-1967,-1817,-1501,-709,-140
-214,-133,81,173,-147,-26,-361,-808,-748,-634,-352,-104
-120,-19,100,69,-109,40,-39,-106,-126,-134,-99,-45
-67,-55,11,61,-39,-22,18,62,14,-3,-39,-44
-29,-25,4,27,-16,-11,54,124,64,32,-28,-31
-20,-26,-6,23,-7,-16,60,143,98,65,-14,-25
-32,-39,-8,36,-12,-23,79,179,120,87,-8,-15
-36,-57,-21,46,-7,-38,80,177,122,97,-2,-9
-3,-49,-46,26,22,-47,71,185,135,101,4,-3
-3,-31,-28,17,13,-29,74,199,150,107,8,5
7,-26,-32,9,20,-29,64,227,170,128,15,12
12,-16,-29,2,21,-22,65,241,179,133,25,20
19,-12,-31,-4,25,-21,60,254,201,149,34,25
27,-4,-30,-11,29,-17,58,278,224,169,35,25
32,2,-29,-17,30,-13,73,287,236,177,35,25
39,8,-31,-24,35,-11,92,329,259,189,35,25
52,29,-23,-40,37,3,89,363,287,207,39,25
69,46,-23,-58,45,11,90,400,323,231,39,25
58,45,-13,-51,35,16,91,453,358,258,51,29
61,46,-15,-53,38,15,89,502,399,279,69,40
41,44,2,-43,19,23,99,557,444,306,74,50
50,61,10,-56,20,35,102,588,473,332,71,57
114,89,-26,-101,70,31,93,613,469,325,65,60
98,91,-7,-94,52,42,84,617,471,319,60,65
80,88,8,-84,36,48,79,590,466,313,55,69
85,96,11,-91,37,53,60,522,404,275,47,71
74,99,25,-87,24,62,29,401,326,232,48,69
60,86,26,-73,17,55,-22,263,230,186,59,61
38,68,30,-53,4,49,-61,129,123,121,53,53
20,42,21,-31,-1,31,-54,22,47,73,43,45
-15,4,19,6,-17,11,-47,-42,-16,36,29,37
-42,-28,14,34,-28,-7,-42,-72,-58,-3,11,31
-39,-31,9,35,-24,-11,-33,-90,-79,-27,-2,25
-37,-25,12,31,-24,-6,-32,-98,-81,-36,-24,20
-30,-23,7,27,-19,-8,-35,-94,-75,-34,-36,14
-39,-18,21,29,-30,1,-35,-91,-74,-35,-31,8
-50,-14,36,31,-43,11,-35,-88,-70,-35,-28,6
-61,-26,35,43,-47,4,-36,-83,-69,-35,-25,11
-81,-46,35,63,-58,-5,-35,-82,-65,-35,-20,16
-73,-38,35,55,-54,-1,-35,-74,-65,-31,-18,19
-60,-25,35,42,-47,5,-34,-83,-64,-30,-13,29
-56,-24,32,40,-44,4,-36,-105,-58,-26,-18,29
-55,-25,30,40,-42,2,-34,-107,-62,-24,-34,24
-50,-24,26,37,-38,1,-36,-109,-55,-19,-31,22
-44,-19,25,31,-35,2,-56,-113,-58,-22,-24,17
-40,-21,20,30,-30,-1,-62,-115,-82,-35,-20,15
-41,-19,21,30,-31,1,-55,-115,-86,-35,-13,19
-41,-20,20,30,-31,0,-55,-116,-85,-36,-11,21
-33,-28,5,30,-19,-11,-50,-113,-84,-34,-17,26
-49,-32,17,40,-33,-7,-50,-117,-91,-40,-23,23
-62,-46,16,54,-39,-15,-55,-131,-110,-50,-28,18
-51,-46,5,48,-27,-21,-54,-130,-111,-44,-34,15
-50,-34,16,41,-32,-9,-56,-129,-109,-39,-31,12
-57,-30,27,43,-41,-2,-51,-131,-112,-33,-24,7
-51,-18,32,35,-41,7,-43,-122,-102,-27,-18,4
-48,-4,44,26,-46,20,-32,-103,-71,-22,-5,23
-43,34,77,4,-60,55,-24,-86,-51,-16,9,35
-27,43,70,-9,-49,57,-25,-88,-46,-9,20,40
-23,61,85,-19,-54,73,-6,-71,-41,-3,30,62
28,139,111,-84,-41,124,-70,-94,-47,5,49,73
45,131,86,-88,-20,108,-134,-151,-86,-13,51,73
24,97,73,-61,-25,85,-120,-156,-113,-27,46,69
37,75,38,-56,0,56,-118,-145,-109,-21,46,62
5,32,27,-19,-11,30,-105,-145,-117,-50,20,61
-31,0,31,16,-31,15,-84,-139,-116,-66,-11,36
-81,-50,31,66,-56,-10,-48,-132,-121,-69,-29,-2
-106,-78,28,92,-67,-25,-65,-137,-119,-65,-20,-6
-111,-78,33,94,-71,-22,-42,-119,-110,-66,-29,-15
-67,-63,4,65,-35,-29,-62,-140,-115,-60,-39,-11
-45,-67,-22,56,-11,-44,-33,-97,-81,-60,-52,-37
-72,-46,26,59,-49,-10,53,-65,-60,-57,-59,-37
-55,-59,-3,57,-26,-31,113,131,128,95,-13,-19
91,-14,-105,-38,98,-59,123,226,371,470,277,105
507,121,-387,-314,447,-133,-450,-755,-190,344,530,395
327,-150,-477,-88,403,-314,-901,-2147,-1603,-952,-81,284
-245,-450,-204,348,-20,-327,-841,-2360,-2114,-1686,-700,-81
-241,-219,22,230,-132,-98,-551,-1232,-1113,-938,-471,-125
-114,-13,101,63,-107,44,-111,-264,-245,-236,-148,-50
-71,-29,43,50,-57,7,27,5,-2,-41,-51,-38
-55,-18,37,37,-46,9,63,96,64,8,-44,-22
-58,-17,41,37,-49,12,89,112,76,29,-41,-15
-43,-14,29,28,-36,7,86,128,106,54,-31,-35
-44,-9,35,27,-40,13,95,152,117,62,-25,-29
-37,-11,26,24,-31,7,86,168,142,82,-8,-11
-38,-9,28,23,-33,9,93,181,156,99,-2,-6
-33,-10,23,21,-28,6,88,201,174,107,4,-1
-36,-11,25,23,-31,7,94,206,183,102,9,2
-17,2,19,8,-18,10,105,234,202,126,12,5
5,27,21,-16,-8,24,121,276,235,152,18,10
29,43,14,-36,7,29,119,289,246,159,19,7
62,54,-8,-58,35,23,121,311,264,164,14,-7
67,56,-10,-61,38,22,119,351,297,190,22,-1
59,54,-5,-56,31,24,121,401,336,227,37,12
56,56,0,-56,27,27,117,456,378,248,50,23
77,81,3,-79,37,42,111,515,422,275,64,38
86,96,10,-91,38,53,150,576,464,300,66,43
80,87,8,-84,36,47,160,622,499,319,65,46
95,93,-3,-94,49,45,149,654,516,329,74,53
105,107,2,-106,51,54,147,666,521,321,74,59
118,112,-6,-115,62,52,139,641,507,307,67,61
150,128,-23,-139,86,52,137,591,473,285,63,65
146,130,-16,-137,81,57,111,487,404,246,56,64
118,107,-11,-112,64,48,71,335,301,201,52,53
95,87,-8,-91,51,40,22,180,193,144,42,42
46,49,3,-48,21,26,-8,56,90,78,25,29
19,19,0,-20,10,9,-23,-37,17,27,13,21
-19,12,30,3,-25,21,-33,-75,-18,-1,0,17
-17,2,19,7,-18,10,-22,-88,-41,-16,-11,14
38,-6,-44,-16,41,-25,-12,-116,-52,-24,-24,10
9,-14,-23,3,16,-18,-5,-112,-48,-33,-33,7
-24,-23,1,23,-12,-10,-5,-105,-45,-42,-30,3
-23,-22,1,22,-12,-10,-4,-104,-43,-42,-28,0
-34,-19,15,27,-24,-2,1,-96,-38,-39,-25,0
-45,-20,25,33,-35,2,0,-97,-47,-41,-22,-2
-41,-20,22,30,-31,1,-2,-99,-56,-39,-19,-5
-23,-21,3,22,-13,-9,-8,-103,-55,-41,-24,-5
-16,-19,-2,18,-7,-10,-13,-105,-56,-39,-28,-2
-20,-15,5,17,-12,-5,-16,-109,-54,-34,-33,1
-24,-15,9,19,-16,-3,-22,-110,-57,-37,-35,0
-36,-15,21,26,-28,3,-24,-103,-51,-31,-25,5
-33,-15,18,23,-25,2,-18,-101,-52,-32,-21,4
-58,-20,39,39,-48,9,0,-92,-45,-26,-8,9
-82,-30,51,56,-66,10,-4,-117,-60,-46,-34,21
-33,-35,-2,34,-15,-18,-30,-148,-101,-85,-65,18
-24,-35,-11,30,-6,-23,-27,-144,-95,-78,-47,14
-35,-35,0,35,-17,-17,-21,-144,-86,-68,-35,11
-36,-35,0,35,-18,-17,-16,-140,-83,-62,-29,6
-41,-30,10,35,-25,-10,-10,-140,-72,-54,-29,4
-36,-22,13,29,-24,-4,-5,-138,-73,-49,-22,-3
-26,-16,11,20,-18,-2,-27,-129,-80,-59,-34,-9
-26,-9,17,17,-21,3,-25,-127,-69,-58,-38,-6
-54,-2,52,28,-53,24,6,-117,-47,-42,-13,6
-67,3,70,31,-69,36,7,-116,-43,-46,-5,15
-54,21,75,16,-65,48,24,-100,-31,-49,-2,25
-17,70,87,-26,-52,78,-40,-112,-28,-53,11,50
5,86,81,-46,-39,83,-123,-170,-70,-54,19,52
17,86,68,-51,-26,77,-110,-183,-89,-52,20,40
41,77,36,-59,2,56,-103,-175,-73,-42,21,34
25,26,1,-26,12,14,-79,-173,-87,-62,-5,22
-26,-39,-13,33,-6,-26,-51,-172,-97,-82,-37,9
-69,-97,-28,83,-20,-62,-27,-161,-93,-80,-68,-22
-91,-105,-14,99,-38,-59,-19,-169,-93,-74,-68,-18
-117,-107,10,112,-63,-48,-5,-145,-86,-76,-68,-16
-74,-102,-28,88,-23,-65,-17,-153,-114,-93,-61,-30
-66,-109,-43,88,-11,-76,-3,-131,-92,-87,-59,-38
-108,-101,7,105,-57,-47,68,-92,-54,-77,-86,-39
-99,-109,-9,104,-44,-59,100,25,41,1,-69,-35
-6,-92,-86,49,40,-89,184,250,317,307,120,22
439,92,-347,-265,392,-127,-231,-400,50,416,453,286
503,-46,-549,-228,526,-297,-807,-1881,-1266,-636,54,282
-130,-461,-332,296,101,-396,-871,-2579,-2201,-1720,-707,-95
-330,-393,-63,361,-134,-227,-621,-1639,-1454,-1225,-619,-176
-160,-89,71,124,-115,-9,-160,-433,-379,-360,-218,-58
-87,-53,34,70,-61,-9,44,-64,-57,-90,-91,-32
-40,-66,-26,53,-7,-46,84,49,37,-26,-68,-25
-55,-56,0,55,-28,-28,113,87,68,0,-56,-22
-51,-63,-12,57,-20,-37,101,108,88,30,-48,-20
-46,-59,-12,53,-17,-35,125,129,107,50,-43,-16
-54,-51,3,52,-28,-24,107,139,118,64,-35,-15
-57,-21,36,39,-46,7,105,176,144,80,-30,-12
-43,-12,31,27,-37,9,98,182,153,90,-23,-7
-35,-6,29,20,-32,11,84,188,159,101,-19,-4
-31,1,32,15,-31,16,104,204,172,112,-14,-1
-20,8,27,6,-24,17,140,250,212,134,-10,4
-31,13,44,9,-38,28,141,270,233,148,-5,6
-5,24,28,-10,-17,26,140,282,244,151,1,12
6,38,31,-22,-13,34,146,321,268,174,17,18
34,52,17,-43,8,34,144,356,306,195,37,23
50,71,21,-61,15,45,144,416,353,223,47,29
48,70,23,-59,13,46,153,474,391,265,40,30
108,69,-39,-88,74,14,162,515,419,275,37,30
119,77,-42,-98,81,17,160,580,466,299,61,30
132,101,-31,-116,81,35,158,614,494,317,70,32
145,116,-29,-130,87,43,154,629,497,304,61,40
135,114,-21,-124,77,46,156,631,493,299,58,39
126,116,-9,-121,67,53,148,590,463,294,50,44
97,114,16,-106,40,65,126,501,411,265,47,49
104,117,13,-111,45,65,90,357,311,203,41,40
100,107,7,-104,46,57,53,206,195,149,35,34
69,72,2,-71,33,37,34,63,87,86,27,26
25,21,-4,-22,14,8,29,-19,12,19,7,19
-10,-20,-10,15,0,-15,30,-62,-37,-17,-20,13
-27,-26,1,27,-14,-12,30,-96,-66,-40,-40,7
-53,-32,21,42,-37,-6,30,-96,-66,-57,-40,3
-50,-36,13,43,-31,-11,30,-95,-65,-65,-40,-2
-34,-34,0,34,-16,-17,26,-95,-61,-65,-48,-6
-27,-35,-9,31,-9,-22,24,-95,-59,-65,-50,-10
-19,-35,-16,27,0,-25,21,-95,-55,-65,-50,-10
-15,-34,-20,24,3,-26,19,-96,-56,-66,-50,-10
-19,-29,-10,24,-4,-19,14,-100,-58,-62,-50,-10
-19,-24,-5,21,-7,-14,17,-99,-69,-59,-50,-10
-33,-20,14,26,-23,-3,29,-94,-76,-54,-50,-11
-33,-15,17,24,-24,1,29,-97,-75,-53,-50,-7
-30,-10,20,19,-25,5,22,-94,-75,-46,-50,-5
-68,-17,51,42,-60,17,18,-97,-75,-48,-50,-5
-49,-30,19,39,-34,-5,11,-129,-94,-84,-50,-5
-36,-30,6,32,-21,-12,5,-134,-99,-87,-53,-5
-55,-31,25,43,-40,-3,16,-124,-89,-75,-55,-5
-51,-34,17,43,-34,-8,20,-122,-87,-81,-55,-10
-52,-36,16,44,-34,-10,10,-114,-79,-79,-55,-15
-40,-33,7,36,-23,-13,5,-111,-77,-82,-55,-19
-60,-30,29,45,-44,-1,-3,-115,-87,-85,-54,-18
-40,-30,10,35,-25,-10,-8,-115,-88,-85,-50,-14
9,-28,-37,10,23,-32,-7,-115,-84,-83,-50,-15
-14,-24,-10,19,-1,-17,2,-111,-86,-79,-49,-15
-23,-25,-2,25,-10,-13,6,-109,-84,-77,-44,-15
-27,-26,1,26,-14,-12,15,-110,-86,-72,-46,-16
-27,-6,21,16,-24,7,21,-101,-82,-69,-41,-9
-6,22,27,-8,-16,24,24,-94,-78,-54,-22,-7
2,70,68,-36,-33,68,46,-79,-70,-31,-9,0
19,59,40,-39,-11,49,55,-89,-64,-39,-8,2
35,65,31,-50,1,48,61,-107,-56,-16,4,15
42,126,84,-84,-21,105,-9,-104,-42,1,47,70
56,116,59,-86,-2,87,-88,-125,-69,-39,51,81
91,137,46,-114,22,91,-80,-142,-62,-22,40,76
86,114,27,-100,29,70,-65,-144,-69,-30,22,57
15,40,26,-28,-6,33,-40,-147,-113,-81,-14,5
-12,-6,6,9,-9,0,-37,-143,-108,-86,-33,-10
-42,-56,-15,49,-13,-35,-20,-132,-102,-102,-70,-20
-58,-59,-2,59,-28,-30,-26,-137,-104,-104,-81,-24
-40,-62,-22,51,-9,-42,-6,-116,-93,-98,-85,-38
-57,-52,6,54,-31,-23,-7,-130,-98,-94,-82,-30
-79,-61,18,69,-48,-21,21,-88,-85,-89,-95,-44
-86,-44,42,65,-64,-1,78,-50,-64,-73,-84,-52
-78,-60,18,69,-48,-21,106,84,67,31,-51,-52
85,-19,-104,-33,95,-61,176,299,339,375,204,53
542,129,-413,-335,477,-142,-308,-477,-75,323,473,341
437,-81,-518,-177,478,-300,-761,-1962,-1441,-880,-108,216
-221,-394,-173,308,-24,-283,-717,-2402,-2086,-1683,-751,-151
-312,-270,42,291,-177,-114,-507,-1368,-1218,-1042,-542,-169
-125,-23,102,74,-113,40,-104,-324,-305,-300,-175,-76
-92,-17,75,54,-83,29,49,-8,-27,-65,-64,-46
-65,-9,56,37,-61,23,86,86,52,-7,-41,-39
-18,51,69,-17,-44,60,100,108,75,25,-28,-41
-21,27,48,-3,-34,37,91,136,99,44,-29,-39
-39,13,52,13,-46,32,124,149,110,44,-24,-35
-51,-13,38,32,-45,13,111,178,135,67,-21,-27
-44,-10,34,27,-39,12,119,201,155,89,-21,-21
-2,30,32,-14,-17,31,113,204,160,101,-9,-14
2,37,35,-20,-17,35,111,226,168,95,13,-7
7,42,35,-25,-14,38,110,237,181,105,30,-7
11,39,27,-25,-8,33,111,263,205,131,31,-17
8,42,34,-25,-13,38,116,277,217,132,30,-28
7,60,54,-34,-24,57,117,307,243,158,30,-20
17,73,56,-45,-20,64,122,335,270,174,31,-4
31,86,54,-59,-11,69,124,380,300,182,41,7
36,92,56,-65,-10,74,129,422,332,211,37,18
40,95,55,-68,-8,75,131,475,379,246,60,27
49,102,53,-75,-2,77,141,546,428,278,92,38
72,118,46,-95,13,82,149,569,449,281,88,45
98,139,41,-119,28,90,140,610,468,296,83,47
109,145,36,-127,36,91,131,633,470,302,78,50
116,145,29,-130,43,87,125,625,463,284,71,52
119,146,27,-133,46,86,115,588,444,269,67,56
119,154,35,-137,42,94,99,487,389,237,69,52
122,156,34,-139,43,95,64,361,300,191,66,46
107,133,26,-121,40,79,30,217,197,137,56,41
74,99,25,-87,25,62,24,96,101,77,53,35
41,59,18,-50,11,38,22,15,27,24,25,30
23,39,15,-32,4,26,18,-41,-27,-22,-11,21
6,37,31,-22,-13,34,16,-70,-55,-51,-19,9
-3,33,36,-15,-20,35,14,-72,-59,-56,-24,-1
0,30,30,-15,-15,30,15,-70,-60,-55,-31,-16
0,25,25,-13,-13,25,15,-85,-60,-59,-34,-36
5,27,22,-16,-9,25,15,-91,-60,-61,-30,-41
16,30,14,-24,1,22,15,-89,-60,-59,-25,-39
8,31,23,-20,-8,27,14,-91,-60,-56,-21,-40
-22,35,57,-7,-40,46,18,-90,-56,-55,-16,-40
-33,35,67,-1,-50,51,20,-91,-55,-56,-11,-40
-33,35,68,-1,-51,51,20,-90,-55,-55,-11,-35
-31,35,66,-3,-49,51,20,-90,-55,-55,-20,-31
-27,35,62,-4,-45,48,20,-90,-55,-57,-23,-29
-26,35,61,-4,-44,47,20,-90,-57,-60,-22,-24
-20,35,55,-8,-38,45,14,-90,-65,-64,-14,-21
-20,33,53,-7,-37,43,9,-93,-69,-64,-24,-21
-17,28,45,-6,-31,37,3,-98,-83,-62,-50,-27
-21,25,46,-3,-34,35,-2,-89,-85,-54,-47,-23
-11,22,33,-5,-22,27,-9,-98,-79,-66,-38,-27
-8,17,25,-5,-17,21,-15,-116,-77,-87,-34,-31
-14,14,29,0,-22,21,-10,-115,-72,-85,-24,-13
-14,10,25,2,-20,17,-10,-114,-70,-84,-22,-13
-47,10,57,18,-52,33,-8,-110,-76,-80,-33,-26
-53,9,63,22,-58,35,-5,-110,-94,-80,-45,-43
-28,4,33,12,-31,18,-4,-108,-98,-79,-45,-46
-18,6,23,6,-21,14,-11,-101,-87,-70,-42,-33
-32,7,39,12,-36,23,-16,-96,-80,-65,-39,-28
-30,28,58,0,-44,43,-6,-88,-72,-57,-36,-18
7,58,51,-33,-22,54,-6,-86,-62,-51,-34,-17
14,91,77,-53,-32,84,13,-72,-44,-44,-29,-10
9,109,99,-60,-45,104,38,-62,-39,-37,-19,-7
18,105,86,-62,-34,95,44,-45,-41,-31,-13,2
40,153,113,-97,-36,132,-15,-53,-37,-5,-4,40
51,172,121,-111,-36,146,-97,-110,-62,-23,4,50
51,155,104,-103,-27,129,-97,-128,-83,-46,12,56
51,129,79,-90,-14,103,-88,-120,-79,-34,20,38
23,67,44,-45,-11,55,-63,-113,-88,-64,-2,-3
-16,16,32,0,-24,23,-37,-116,-93,-82,-31,-9
-67,-29,38,48,-52,4,-19,-100,-87,-84,-37,-19
-74,-41,33,57,-54,-3,-28,-110,-89,-90,-50,-24
-79,-43,35,61,-57,-4,-13,-91,-80,-94,-65,-34
-70,-46,24,58,-47,-11,-18,-105,-105,-93,-50,-38
-28,-51,-23,40,-3,-37,-6,-89,-96,-81,-61,-35
-75,-57,18,66,-46,-19,72,-18,-43,-53,-54,-48
-79,-83,-4,81,-37,-44,89,93,68,37,-34,-75
57,-29,-85,-14,71,-57,179,331,357,379,179,17
458,141,-316,-299,387,-87,-214,-321,74,494,535,332
443,-5,-448,-219,446,-227,-731,-1750,-1231,-608,124,360
-187,-344,-157,266,-15,-250,-733,-2324,-2070,-1647,-629,2
-298,-260,38,279,-168,-111,-547,-1500,-1372,-1162,-585,-155
-121,-4,118,62,-120,57,-161,-406,-390,-363,-212,-90
-42,35,77,3,-60,56,35,-5,-37,-83,-85,-51
5,34,29,-20,-12,31,67,98,53,-14,-49,-44
-43,20,63,12,-53,41,100,128,78,15,-20,-45
-9,3,12,3,-11,7,93,155,111,45,-7,-45
-7,8,15,-1,-11,11,118,192,126,60,-4,-45
7,13,6,-10,0,9,101,185,134,65,-5,-45
9,27,18,-18,-4,22,105,201,155,73,0,-42
0,26,26,-13,-14,26,98,208,162,89,-1,-39
36,40,4,-38,16,22,94,222,175,88,1,-36
27,47,21,-37,3,34,100,239,188,99,9,-33
20,40,20,-30,0,30,99,256,208,113,18,-28
21,41,20,-31,1,30,101,281,229,128,27,-22
44,65,21,-55,12,43,99,303,253,150,35,-17
60,79,19,-69,20,49,100,334,272,157,46,-10
56,77,21,-67,18,49,101,382,316,194,50,-2
65,84,20,-74,22,52,110,425,352,224,53,3
64,84,20,-74,21,52,120,474,379,237,53,15
77,96,20,-87,28,58,130,534,428,270,69,26
86,107,21,-96,32,63,131,582,469,296,83,26
99,112,13,-106,43,62,125,610,486,298,79,22
117,120,3,-119,57,61,124,619,476,292,78,22
99,107,8,-103,46,57,117,610,466,282,74,16
102,121,20,-112,41,70,118,581,460,281,75,36
127,140,13,-134,57,76,94,502,409,252,71,55
87,130,43,-109,22,86,41,373,324,204,59,41
61,118,58,-90,1,88,8,233,226,158,51,34
79,95,16,-87,31,55,-9,112,113,84,39,19
30,59,29,-45,0,44,-11,29,38,38,28,28
-23,25,48,-2,-36,36,-10,-29,-14,1,15,22
-26,15,41,5,-34,28,-10,-70,-46,-34,6,-8
-28,12,40,8,-34,26,-10,-83,-50,-52,2,-4
-29,5,35,12,-32,20,-9,-80,-50,-55,-1,-5
-37,0,37,18,-37,18,-5,-80,-50,-49,-4,-6
-45,-4,41,25,-43,18,-5,-79,-49,-48,-9,-4
-45,-1,44,22,-44,21,-5,-75,-52,-42,-12,-7
-44,2,46,20,-45,23,-5,-76,-64,-40,-15,-15
-40,4,45,18,-43,24,-5,-72,-63,-40,-15,-16
-37,8,45,14,-41,26,-5,-70,-55,-40,-15,-11
-36,9,46,13,-41,27,-5,-70,-54,-40,-16,-10
-29,13,42,8,-36,27,-5,-70,-45,-40,-11,-5
-22,18,41,2,-32,29,-5,-70,-51,-40,-5,-5
-14,24,39,-5,-27,31,-5,-71,-66,-43,0,-10
-13,30,42,-8,-27,36,-6,-85,-65,-53,5,-10
-14,23,37,-5,-26,30,-12,-92,-65,-56,12,-11
-32,12,44,10,-39,28,-6,-88,-65,-55,14,-15
-41,3,44,19,-43,23,-8,-94,-68,-55,8,-15
5,-1,-6,-2,6,-3,-24,-96,-71,-55,2,-13
10,1,-10,-5,10,-4,-26,-95,-69,-55,-4,-9
-19,6,26,6,-23,16,-24,-96,-71,-53,-2,-7
3,16,12,-9,-5,14,-24,-94,-69,-50,0,-4
13,22,9,-18,2,16,-19,-96,-71,-50,2,-1
-24,32,56,-4,-40,44,-20,-90,-66,-50,6,1
-29,40,69,-6,-49,54,-16,-84,-65,-49,5,6
-10,70,81,-30,-46,75,-3,-72,-52,-40,23,18
7,92,85,-50,-39,88,2,-68,-37,-23,34,27
33,110,77,-72,-22,93,23,-57,-29,-11,42,39
37,156,119,-96,-41,137,-27,-67,-22,16,64,72
24,160,136,-92,-56,148,-110,-128,-57,-5,59,78
38,153,115,-96,-39,134,-96,-146,-80,-37,48,67
71,129,57,-100,7,93,-92,-136,-70,-20,42,60
54,80,26,-68,14,53,-74,-136,-86,-52,28,53
22,38,16,-30,3,27,-30,-134,-88,-65,17,37
-6,-8,-2,7,-2,-5,-23,-126,-82,-72,-13,-5
-35,-36,-1,36,-17,-18,-40,-133,-80,-85,-17,-9
-24,-51,-27,37,2,-38,-18,-107,-67,-87,-19,-11
-21,-29,-8,25,-6,-18,-18,-111,-73,-79,-4,-10
-26,-40,-14,33,-6,-27,-6,-77,-45,-49,-2,-9
-34,-38,-5,36,-14,-21,60,-46,-39,-55,-35,-31
-55,-49,5,52,-30,-22,113,87,93,58,-5,-42
50,-41,-91,-4,70,-66,175,297,369,394,218,42
439,124,-315,-281,376,-95,-261,-418,63,497,589,350
441,-50,-492,-195,467,-271,-784,-1842,-1255,-599,170,363
-131,-409,-279,270,74,-344,-823,-2403,-2145,-1691,-627,-24
-254,-260,-6,257,-124,-132,-595,-1497,-1363,-1155,-536,-150
-101,-1,100,51,-101,49,-168,-383,-345,-326,-166,-66
-94,-3,90,48,-92,43,43,0,-19,-72,-63,-36
-74,-21,54,47,-64,16,57,81,65,-7,-27,-29
-66,-6,60,36,-63,27,83,120,98,26,7,-31
-32,9,41,11,-37,25,116,151,137,70,19,-29
-22,17,39,2,-31,28,131,160,142,74,12,-26
-14,13,27,0,-21,20,121,182,158,84,17,-25
-1,16,18,-8,-10,17,124,195,171,96,13,-24
14,21,8,-18,3,14,118,198,184,105,21,-19
10,33,24,-22,-7,28,121,229,206,113,42,-13
-6,42,49,-18,-28,45,115,251,219,128,47,-10
-4,39,43,-18,-24,41,110,266,235,140,43,-5
1,47,46,-25,-23,46,105,298,262,157,54,-1
22,67,44,-45,-12,56,102,324,281,177,68,5
19,64,45,-42,-13,55,94,362,315,195,74,13
19,65,45,-42,-13,55,102,412,355,219,83,20
71,86,15,-79,28,50,138,448,380,240,94,20
99,106,7,-103,46,56,141,517,429,276,89,19
89,121,32,-105,28,76,146,579,472,303,91,21
96,112,16,-104,40,64,164,625,505,320,106,19
86,108,22,-98,32,65,157,665,529,330,111,27
96,134,38,-115,29,86,149,698,553,349,123,40
101,137,35,-119,33,86,141,698,555,356,127,40
71,126,55,-99,8,90,133,632,501,311,121,45
60,121,61,-91,-1,91,120,547,450,273,121,44
47,111,65,-79,-9,87,84,411,369,239,117,36
83,107,24,-95,29,66,28,236,233,166,96,28
79,83,4,-81,37,43,-7,102,133,91,71,20
14,52,38,-34,-12,45,-9,18,58,40,56,13
-8,40,48,-16,-28,44,-3,-34,-2,0,40,4
-25,27,52,-1,-38,39,5,-76,-27,-18,30,-8
-28,20,49,4,-39,35,-8,-76,-37,-28,22,-20
-32,18,50,7,-41,34,-23,-76,-40,-41,12,-29
-19,15,34,2,-27,24,-14,-94,-45,-41,14,-30
-26,12,38,6,-32,25,-7,-95,-45,-40,14,-30
-53,10,63,21,-58,36,-1,-95,-38,-40,10,-30
-54,8,62,23,-58,34,7,-92,-35,-36,10,-30
-49,3,52,23,-51,27,8,-89,-29,-35,10,-30
-56,-2,54,29,-55,26,6,-91,-26,-37,10,-26
-75,-5,70,40,-72,32,2,-94,-27,-40,10,-25
-61,3,64,29,-63,33,0,-98,-36,-44,10,-24
-45,18,63,13,-55,40,-3,-101,-51,-49,10,-21
-48,22,70,13,-59,46,-6,-104,-50,-50,9,-19
-51,20,70,15,-60,45,6,-108,-50,-50,5,-24
-56,20,76,18,-66,48,11,-110,-50,-55,5,-35
-49,20,70,14,-60,45,5,-110,-50,-55,5,-35
-43,20,62,11,-53,41,4,-109,-64,-56,5,-35
-36,20,56,7,-46,38,-3,-112,-68,-66,5,-36
-28,20,48,4,-38,33,-3,-125,-63,-64,1,-34
-21,20,41,0,-31,30,-18,-125,-69,-69,0,-41
-15,20,35,-3,-25,28,-31,-120,-79,-76,-2,-47
-26,20,46,3,-36,32,-21,-120,-81,-75,-6,-43
-34,21,55,6,-44,37,-14,-113,-80,-74,-3,-41
-37,19,56,9,-46,37,-6,-119,-77,-69,1,-37
-31,22,53,4,-42,37,2,-116,-60,-71,7,-35
-41,24,65,8,-53,44,10,-108,-48,-64,10,-32
-52,60,112,-4,-82,85,21,-96,-38,-53,15,-24
-48,83,132,-18,-90,107,29,-88,-33,-36,20,-14
-45,75,120,-15,-83,97,27,-83,-27,-31,26,-8
25,144,118,-85,-47,131,-17,-79,-5,-15,54,18
58,164,107,-111,-25,135,-89,-129,-47,-28,67,42
38,131,94,-84,-29,112,-110,-165,-97,-63,56,38
39,119,80,-79,-21,99,-105,-159,-96,-31,59,36
7,77,69,-42,-31,73,-90,-159,-101,-61,38,15
-18,44,62,-14,-40,53,-63,-161,-102,-96,5,-14
-47,4,50,21,-48,27,-17,-149,-96,-87,-9,-47
-77,-31,46,54,-62,7,-6,-157,-98,-92,-9,-60
-75,-44,31,59,-53,-6,2,-141,-89,-88,-17,-61
-78,-37,41,57,-59,2,13,-149,-93,-92,-19,-60
-75,-43,32,58,-53,-5,5,-130,-85,-87,-22,-58
-75,-33,42,54,-58,4,55,-84,-69,-96,-43,-72
-78,-36,42,57,-59,3,80,1,9,-26,-35,-78
-12,-32,-20,22,4,-25,191,272,299,269,128,-29
370,128,-243,-249,306,-58,-157,-246,150,466,489,238
486,7,-479,-246,483,-236,-783,-1711,-1093,-462,199,294
-82,-411,-329,247,124,-370,-887,-2555,-2191,-1703,-624,-93
-290,-368,-78,329,-106,-223,-669,-1785,-1608,-1363,-653,-243
-128,-39,89,83,-108,25,-215,-520,-458,-431,-218,-119
-70,17,86,26,-79,51,39,-55,-62,-105,-66,-74
-46,-5,41,26,-44,18,73,57,37,-19,-39,-65
-88,5,93,41,-91,49,116,98,77,8,-17,-64
-87,-1,87,44,-87,43,105,112,95,35,-2,-66
-78,12,90,33,-84,51,121,143,125,56,8,-64
-59,11,70,24,-65,40,112,134,124,61,16,-66
-53,19,72,17,-63,45,116,157,132,60,23,-60
-60,22,82,19,-71,51,116,176,150,72,29,-55
-52,27,79,12,-66,52,113,193,179,98,37,-50
-57,32,89,12,-73,60,118,214,193,107,42,-44
-43,42,85,0,-65,64,119,234,207,118,48,-39
-23,70,93,-24,-58,81,121,251,225,132,51,-34
-17,76,93,-30,-56,85,119,277,243,149,57,-28
-22,74,96,-27,-59,85,125,324,281,181,77,-21
-32,76,108,-22,-71,92,124,359,317,200,85,-14
-2,73,76,-36,-39,74,127,393,332,212,87,-8
23,91,67,-57,-22,79,145,467,390,254,92,-1
28,112,84,-70,-28,98,150,521,437,293,95,3
72,119,47,-96,12,83,159,567,463,308,96,9
85,128,44,-107,20,86,171,621,495,325,96,12
69,133,64,-101,3,98,173,632,505,327,93,18
86,140,54,-113,16,96,159,612,504,314,87,19
86,144,58,-115,14,101,149,600,481,307,84,14
46,136,90,-91,-22,112,136,537,433,278,79,30
53,128,75,-91,-11,101,80,377,335,217,75,30
66,117,51,-92,7,84,44,229,223,164,64,15
27,97,70,-63,-22,84,30,103,120,109,50,6
2,79,77,-41,-38,78,7,0,42,40,37,-7
-14,68,81,-27,-48,74,5,-63,-6,1,23,-19
-34,51,85,-9,-60,68,4,-103,-55,-23,12,-39
-47,37,84,4,-66,61,0,-112,-74,-41,3,-50
-46,40,86,2,-66,62,-3,-122,-85,-57,-5,-61
-44,40,84,2,-64,61,-5,-121,-92,-75,-15,-71
-44,42,87,1,-66,64,4,-119,-89,-75,-23,-69
-37,46,82,-5,-60,64,3,-121,-90,-76,-25,-72
-49,44,93,2,-71,68,10,-119,-84,-81,-25,-75
-66,49,115,8,-90,82,11,-121,-86,-80,-29,-75
-69,50,119,10,-94,84,15,-120,-83,-78,-31,-73
-68,52,120,8,-94,86,11,-121,-80,-75,-29,-69
-65,55,120,5,-93,87,-1,-120,-81,-75,-26,-65
-65,55,120,5,-93,88,7,-120,-80,-72,-24,-62
-54,65,119,-6,-87,92,-22,-120,-81,-68,-26,-57
-63,70,133,-4,-98,101,11,-121,-79,-73,-24,-56
-68,72,140,-3,-104,106,-82,-137,-97,-72,-27,-61
-54,75,129,-11,-92,102,-178,-143,-109,-73,-19,-58
-50,78,128,-15,-89,102,-64,-146,-111,-89,-25,-75
-42,81,123,-20,-82,101,-45,-151,-116,-95,-46,-87
-50,76,126,-13,-88,100,-62,-150,-117,-96,-46,-85
-40,75,115,-17,-78,94,13,-158,-125,-103,-43,-85
-57,75,131,-9,-94,103,85,-148,-106,-102,-43,-86
-77,70,148,3,-112,109,151,-147,-100,-80,-37,-84
-68,70,137,-1,-102,103,253,-136,-98,-79,-42,-83
-67,70,137,-1,-102,104,298,-143,-75,-97,-32,-71
