I,II,III,aVR,aVL,aVF,V1,V2,V3,V4,V5,V6
-109,-124,-15,116,-47,-69,76,314,-92,69,114,16
-174,-96,78,135,-126,-9,80,310,-126,61,108,21
-140,-58,83,99,-111,12,80,310,-118,49,97,13
-111,-50,61,81,-86,5,80,308,-113,38,89,3
-105,-38,67,71,-86,14,80,305,-105,30,75,-7
-89,-19,70,54,-79,25,80,305,-100,28,77,-7
-104,-11,93,57,-98,41,77,302,-89,56,101,2
-110,-17,93,63,-102,38,70,297,-83,61,101,12
-40,18,58,11,-49,37,62,303,-56,65,108,15
4,58,54,-31,-26,56,57,345,-18,105,148,55
36,84,48,-60,-7,66,25,354,-21,135,180,96
56,90,34,-73,10,62,-21,308,-47,107,155,63
42,69,28,-56,7,48,-22,292,-58,73,125,43
23,70,47,-47,-12,58,-11,288,-34,71,125,36
-30,31,61,-1,-46,46,-4,280,-52,54,113,19
-67,-11,56,39,-62,22,9,274,-90,43,89,4
-96,-48,48,72,-72,0,19,275,-89,26,74,-12
-104,-55,49,79,-76,-2,40,267,-90,21,71,-24
-110,-70,40,90,-75,-15,48,270,-89,31,64,-34
-164,-141,23,153,-94,-59,54,262,-105,35,74,-35
-182,-114,69,148,-125,-22,72,263,-95,44,102,-35
-171,-70,101,120,-135,15,76,258,-89,16,93,-34
-151,-87,63,119,-106,-12,58,244,-82,22,85,-37
-130,-30,101,80,-115,35,88,258,-37,35,88,-32
-256,-48,209,152,-232,80,160,228,-12,58,72,-48
-119,-14,104,66,-111,44,264,566,250,306,263,71
806,536,-270,-671,538,133,-52,1180,926,923,922,634
1837,1062,-775,-1449,1306,143,-846,1721,1526,1465,1588,1249
1489,859,-630,-1174,1059,114,-918,1528,1146,1034,1218,1025
289,320,32,-305,128,176,-372,459,213,196,330,306
-77,40,117,18,-97,78,-89,80,-129,-82,47,3
-109,-54,55,81,-82,1,15,215,-97,-89,27,-45
-214,-126,89,170,-151,-18,36,149,-89,-74,-8,-73
-162,-97,65,129,-113,-16,57,173,-89,-65,-8,-68
-161,-79,83,119,-122,2,91,176,-90,-67,-12,-70
-168,-92,75,129,-121,-8,94,181,-90,-62,-14,-76
-225,-113,111,169,-168,-1,92,180,-101,-68,-30,-97
-215,-120,95,168,-155,-12,86,178,-88,-62,-24,-89
-185,-96,89,141,-137,-3,85,182,-84,-68,-25,-86
-157,-86,71,122,-114,-8,77,175,-72,-58,-27,-83
-127,-97,31,112,-79,-33,97,175,-70,-53,-21,-73
-249,-162,87,205,-168,-37,111,169,-111,-99,-56,-110
-253,-153,100,203,-176,-26,102,167,-117,-115,-58,-110
-201,-112,89,156,-144,-11,100,162,-101,-103,-26,-81
-225,-137,88,181,-156,-24,91,158,-99,-107,-35,-87
-206,-129,77,167,-141,-26,90,156,-80,-99,-43,-84
-204,-126,78,165,-141,-24,76,146,-75,-101,-51,-89
-162,-96,66,129,-114,-15,86,145,-107,-118,-74,-110
-177,-103,74,139,-125,-14,86,133,-118,-128,-82,-110
-189,-140,49,164,-119,-45,82,141,-113,-127,-79,-110
-144,-94,50,119,-97,-22,127,180,-117,-132,-85,-111
-180,-93,87,136,-133,-2,130,182,-113,-134,-83,-108
-179,-107,72,143,-125,-17,122,170,-127,-141,-91,-116
-197,-133,64,165,-130,-34,122,167,-148,-162,-99,-110
-216,-156,60,185,-138,-47,116,159,-146,-161,-114,-126
-172,-127,45,149,-108,-41,111,151,-138,-154,-126,-140
-140,-104,36,122,-88,-33,129,168,-135,-150,-110,-119
-100,-82,18,91,-59,-32,147,187,-128,-143,-97,-109
-124,-105,19,114,-71,-43,129,205,-118,-139,-80,-94
-160,-99,61,129,-110,-19,118,217,-96,-105,-48,-67
-104,-28,77,66,-90,24,98,218,-62,-79,-23,-43
-88,-24,64,56,-76,20,87,220,-38,-70,-12,-31
-113,-43,70,77,-91,13,85,225,-12,-39,2,-20
-91,-29,62,59,-76,16,78,250,16,-6,23,-10
-61,3,64,29,-63,33,77,265,61,27,54,-1
-19,27,46,-4,-33,36,68,275,99,35,58,11
-22,-29,-6,26,-8,-18,73,281,100,37,61,16
-150,-78,72,114,-110,-3,91,282,113,64,89,27
-175,-45,130,109,-152,43,78,273,116,66,90,31
-102,0,102,51,-102,51,65,254,113,63,90,28
-147,-42,105,94,-126,31,56,244,117,68,90,25
-111,-14,97,62,-103,41,60,246,110,58,90,26
-68,16,84,26,-76,50,94,267,121,70,90,39
-109,-25,84,67,-97,29,84,267,120,62,81,35
-78,-21,57,49,-67,18,60,232,100,32,77,27
-80,-38,41,59,-60,2,54,205,90,46,67,20
-73,5,78,34,-76,41,52,207,85,48,66,12
-67,8,76,29,-71,42,38,201,69,40,45,6
-105,-42,63,73,-84,10,38,193,76,37,42,-2
-88,-27,61,57,-74,17,61,186,105,29,71,5
-57,-4,53,31,-55,24,50,178,99,26,63,10
-43,-3,40,23,-42,18,37,175,93,20,59,19
-52,-4,48,28,-50,22,28,175,89,20,52,22
-94,-29,65,61,-79,18,25,185,81,19,48,23
-103,-40,63,71,-82,11,25,176,81,14,44,13
-51,-3,48,26,-50,22,22,170,79,17,46,19
-102,-32,70,67,-86,19,18,159,92,11,58,30
-135,-76,60,105,-97,-8,23,157,92,12,39,24
-31,-1,30,16,-31,14,39,183,83,44,67,43
-92,-4,87,48,-89,42,6,158,78,52,82,13
-174,-74,100,123,-137,13,-6,140,70,42,59,-11
-131,-40,91,85,-111,25,8,151,66,44,56,6
-121,-29,92,75,-106,31,22,149,64,35,42,3
-90,1,91,45,-90,45,44,159,79,36,47,19
-51,35,85,8,-68,60,36,178,102,52,66,41
-27,57,84,-15,-56,70,23,201,116,71,79,60
22,108,86,-65,-32,97,14,210,128,86,92,77
13,86,73,-49,-30,79,-12,184,118,76,87,73
24,88,64,-56,-20,76,-45,161,109,73,88,77
29,106,78,-67,-25,92,-49,149,102,62,80,72
15,76,62,-45,-24,69,-40,135,88,59,84,79
32,67,36,-50,-2,51,-35,156,109,60,75,70
-68,31,99,18,-84,65,-27,139,87,5,13,9
-85,-5,79,45,-82,37,-22,105,49,0,10,3
-118,-54,64,86,-91,5,-17,92,45,7,18,6
-133,-59,75,96,-104,8,-14,108,41,9,19,4
-84,-24,60,54,-72,18,-7,119,34,14,21,6
-151,-59,92,105,-121,16,-7,106,28,14,19,4
-152,-62,90,107,-120,13,3,108,26,9,17,15
-116,-53,63,84,-90,5,1,85,12,-4,2,13
-127,-50,77,88,-102,13,25,102,26,21,10,31
-237,-27,210,132,-223,91,87,66,47,43,11,17
-164,1,165,81,-165,83,199,338,258,231,167,87
597,403,-195,-500,395,104,-10,953,879,813,758,581
1718,1078,-640,-1398,1179,219,-746,1467,1596,1483,1568,1330
1528,951,-577,-1239,1052,187,-943,1396,1347,1179,1316,1192
313,293,-20,-303,166,136,-456,448,353,237,305,336
-103,43,146,30,-125,95,-143,-73,-64,-84,-8,18
-157,-49,107,103,-132,29,-39,72,-92,-77,-32,8
-188,-86,102,137,-145,7,-11,59,-103,-78,-72,3
-141,-56,85,98,-113,15,15,38,-84,-39,-53,19
-219,-84,136,151,-177,26,2,24,-98,-63,-79,-45
-196,-98,99,147,-147,1,-8,25,-82,-93,-79,-50
-126,-50,76,88,-101,13,31,17,-100,-81,-73,-37
-194,-56,138,125,-166,41,55,14,-93,-61,-52,-25
-125,-88,37,106,-81,-26,41,11,-103,-87,-89,-44
-181,-85,96,133,-138,5,30,7,-117,-83,-86,-60
-358,-99,260,228,-309,81,77,58,-73,-40,-45,-4
-117,-65,51,91,-84,-7,26,7,-132,-98,-95,-48
-120,-68,52,93,-86,-8,9,3,-141,-101,-98,-53
-158,-59,99,109,-129,20,73,47,-154,-122,-117,-59
-148,-45,102,96,-125,28,44,27,-206,-176,-125,-115
-153,-113,40,133,-96,-36,-24,-57,-185,-154,-135,-96
-13,-66,-53,40,20,-59,-27,-63,-193,-158,-175,-98
-126,-38,88,82,-107,25,27,15,-189,-148,-149,-93
-186,-90,96,138,-141,3,39,-34,-194,-173,-175,-103
-126,-17,109,72,-118,46,26,-11,-162,-148,-141,-63
-23,-44,-20,34,-1,-32,21,-33,-191,-174,-165,-91
-35,-109,-74,72,20,-91,19,-86,-237,-228,-219,-146
-116,-94,22,105,-68,-36,21,-47,-218,-208,-197,-119
-55,-87,-33,71,-11,-60,20,-51,-229,-219,-210,-123
-52,-101,-49,76,-1,-75,27,-36,-223,-213,-202,-111
-73,-139,-66,106,-3,-103,24,-34,-226,-216,-206,-105
-27,-92,-65,60,19,-78,27,-5,-220,-210,-195,-96
-27,-77,-51,52,13,-64,45,32,-205,-195,-171,-83
-6,-55,-49,31,22,-52,37,34,-196,-185,-161,-72
33,-4,-37,-14,35,-21,17,50,-159,-159,-149,-55
29,-3,-31,-13,30,-17,9,48,-129,-134,-135,-46
45,25,-21,-35,33,2,3,64,-106,-106,-110,-34
75,68,-7,-71,41,30,-1,83,-71,-78,-79,0
53,47,-6,-50,29,20,-7,94,-36,-46,-54,27
20,19,-2,-20,11,8,-13,125,-2,-12,-45,24
33,71,38,-52,-2,55,-13,120,23,4,-36,25
7,71,64,-39,-28,67,-9,138,58,20,-15,43
-9,20,29,-5,-19,24,-6,147,71,20,-25,49
-26,31,57,-2,-42,44,-3,139,71,25,-48,40
-23,81,104,-29,-63,92,1,152,74,57,-42,35
-24,42,65,-9,-45,53,10,123,44,51,-40,27
-14,37,51,-12,-33,44,7,116,40,36,-36,21
18,55,37,-37,-10,46,0,115,40,29,-35,19
-49,-16,34,32,-41,9,-5,102,29,20,-41,26
-45,29,74,8,-60,51,-10,98,24,15,-39,31
-9,62,72,-27,-41,67,-9,88,15,6,-43,25
8,41,33,-25,-13,37,-14,86,10,-1,-45,23
9,40,31,-25,-11,36,-15,82,4,-7,-45,18
8,34,26,-21,-10,30,-17,80,1,-13,-49,15
-20,21,41,-1,-31,31,-21,77,-2,-17,-50,12
-28,43,72,-7,-50,57,-20,74,-7,-22,-50,7
24,50,25,-38,0,37,-27,72,-10,-26,-50,4
24,-7,-32,-8,28,-19,-25,69,-5,-30,-49,1
46,53,7,-49,19,30,-25,71,3,-25,-51,-4
6,52,46,-29,-20,49,-24,69,9,-25,-55,-4
-19,18,37,0,-28,28,-20,71,14,-26,-55,0
-2,40,42,-19,-22,41,-20,68,6,-24,-57,2
-20,17,37,2,-28,27,-19,64,-4,-27,-60,6
-57,-11,46,34,-51,17,-38,59,-10,-19,-60,-1
-71,-51,21,61,-46,-15,-44,55,-25,-25,-56,-21
-5,23,28,-9,-17,25,-32,69,-24,-21,-45,-31
12,43,31,-28,-10,37,-29,85,-12,6,-38,-24
30,42,12,-36,9,27,-19,126,7,22,-28,-2
20,72,52,-47,-16,62,-15,132,32,29,-4,15
24,64,41,-44,-9,52,-19,137,65,54,26,41
116,156,40,-136,38,98,-29,167,98,87,50,76
116,152,37,-134,39,94,-55,125,73,68,46,75
76,110,34,-94,21,72,-60,96,47,41,43,63
59,94,35,-77,11,64,-50,93,36,28,37,57
1,36,34,-19,-17,35,-45,87,23,12,0,32
-33,3,37,14,-35,20,-37,75,12,-3,-30,-6
-45,-49,-5,47,-20,-27,-32,97,5,8,-42,-11
-84,-55,29,70,-56,-13,-32,117,-6,18,-52,1
-84,-38,46,61,-64,4,-39,103,-14,7,-53,-5
-84,-52,32,68,-58,-9,-38,104,-18,-1,-55,-12
-112,-74,38,93,-75,-18,-25,86,-29,-19,-62,-21
-82,-55,27,68,-54,-14,-2,95,-23,-28,-61,-26
-43,-10,33,27,-38,11,-3,75,-26,-28,-61,-37
-47,-26,22,36,-34,-2,14,108,-2,-4,-45,-30
-181,-51,130,116,-155,39,61,65,-9,0,-43,-46
-233,-60,173,146,-203,57,189,202,136,132,48,-5
301,208,-93,-254,197,58,148,756,639,594,482,347
1438,907,-531,-1172,984,187,-523,1347,1434,1345,1338,1099
1791,1111,-680,-1451,1235,215,-978,1583,1591,1417,1527,1338
723,522,-201,-622,462,160,-606,745,646,511,579,584
-29,107,136,-39,-83,121,-203,-65,-10,-26,-27,45
-55,20,75,17,-65,47,-57,-38,-102,-87,-63,-13
-82,-11,71,46,-76,29,0,-24,-120,-102,-85,-52
-117,-51,65,84,-91,7,23,-12,-101,-80,-103,-70
-115,-75,40,95,-77,-18,38,-6,-117,-91,-122,-84
-108,-68,41,88,-74,-13,34,-20,-106,-76,-111,-80
-154,-92,62,123,-108,-14,35,-29,-112,-84,-116,-96
-163,-104,59,134,-111,-23,36,-45,-109,-95,-128,-95
-177,-122,55,149,-115,-33,52,-38,-109,-106,-142,-94
-168,-116,52,141,-110,-31,57,-54,-111,-105,-138,-96
-150,-99,51,124,-100,-24,54,-51,-108,-104,-135,-94
-144,-95,49,119,-96,-22,56,-70,-112,-105,-132,-96
-148,-86,62,117,-105,-11,54,-83,-113,-106,-131,-95
-164,-115,49,139,-106,-32,55,-77,-129,-100,-124,-93
-135,-119,16,127,-75,-51,63,-100,-135,-113,-131,-95
-140,-90,50,115,-95,-20,66,-128,-135,-135,-154,-107
-158,-108,50,133,-104,-29,63,-124,-134,-122,-148,-104
-146,-102,44,124,-95,-29,61,-123,-135,-128,-148,-104
-154,-110,43,132,-98,-33,58,-139,-161,-133,-168,-124
-152,-112,40,132,-96,-36,80,-138,-170,-130,-173,-124
-174,-138,36,156,-105,-51,98,-129,-167,-154,-167,-117
-174,-148,26,161,-100,-61,93,-131,-186,-180,-188,-119
-125,-115,11,120,-68,-52,96,-117,-195,-181,-186,-106
-126,-143,-18,135,-54,-80,95,-135,-210,-195,-195,-125
-125,-108,17,116,-70,-45,95,-169,-219,-205,-224,-145
-163,-146,17,154,-90,-64,96,-159,-237,-216,-224,-151
-136,-147,-12,142,-62,-79,93,-150,-240,-212,-210,-146
-77,-75,2,76,-39,-37,101,-143,-207,-174,-180,-109
-63,-61,2,62,-32,-29,105,-135,-200,-163,-178,-96
-23,-30,-7,27,-7,-18,89,-130,-189,-153,-179,-89
-90,-85,5,88,-47,-40,78,-122,-178,-151,-160,-76
-81,-98,-17,90,-32,-57,71,-117,-129,-103,-120,-65
8,-23,-31,8,20,-27,66,-107,-91,-59,-94,-48
-37,-27,10,32,-24,-8,61,-98,-84,-56,-80,-39
-84,-67,17,75,-50,-25,54,-87,-31,-19,-51,-32
-72,-48,24,60,-48,-12,51,-78,-2,-9,-41,-28
-73,-38,35,55,-54,-2,48,-67,2,5,-33,-24
-50,2,53,24,-51,27,58,-58,15,29,-25,-18
-31,42,72,-6,-52,57,66,-49,29,36,-18,-15
-62,16,78,23,-70,47,65,-44,33,36,-11,-19
-88,-25,63,56,-75,19,65,-39,28,34,-4,-20
-59,-24,35,42,-47,6,65,-29,27,31,-1,-20
-75,2,77,36,-76,39,65,-63,23,30,-9,-20
-99,-25,74,62,-86,24,62,-85,21,29,-16,-22
-60,-17,43,38,-51,13,59,-77,18,23,-23,-25
-76,-26,50,51,-63,12,56,-85,15,17,-31,-25
-72,-35,37,54,-54,1,53,-84,15,11,-37,-25
-10,29,39,-10,-24,34,50,-86,15,6,-44,-25
-19,11,30,4,-25,20,49,-84,15,1,-45,-24
-67,-40,27,53,-46,-6,41,-86,15,-5,-45,-20
-40,-25,16,32,-28,-4,33,-83,21,-10,-45,-19
-35,-37,-2,36,-16,-19,25,-87,26,-17,-45,-14
-79,-46,32,62,-55,-7,17,-117,24,-19,-45,-20
-100,-60,40,80,-70,-10,15,-121,25,-15,-45,-30
-97,-68,29,83,-63,-19,14,-119,25,-15,-45,-32
-64,-35,29,49,-46,-3,34,-125,24,-13,-45,-35
-66,-44,21,55,-43,-11,46,-125,34,-9,-45,-37
-91,-70,21,81,-56,-24,37,-124,33,-10,-57,-49
-112,-81,31,96,-71,-24,35,-119,29,-14,-58,-47
-109,-68,42,88,-75,-13,30,-115,24,-18,-50,-40
-94,-69,25,81,-59,-22,25,-113,20,-23,-47,-37
-150,-102,48,125,-98,-27,34,-108,53,-24,-39,-29
-135,-90,46,112,-90,-22,36,-105,61,-17,-36,-26
-70,-61,9,65,-40,-25,34,-101,61,-8,-28,-19
-84,-45,39,64,-61,-3,36,-91,65,-5,-21,-13
-72,-31,40,51,-56,4,34,-85,66,8,-12,-6
-43,-12,31,27,-37,9,37,-53,87,20,-5,0
9,32,23,-21,-7,27,22,-31,104,40,7,12
66,81,16,-74,25,48,14,-18,136,81,44,44
124,124,-1,-124,62,61,-19,-17,143,82,50,48
146,111,-36,-128,91,37,-64,-80,128,61,37,33
52,59,6,-56,23,32,-33,-101,119,51,27,24
6,33,27,-20,-11,30,-5,-90,99,39,7,8
-40,-28,11,34,-25,-8,6,-100,85,15,-16,-15
-90,-81,9,85,-49,-36,19,-91,68,-5,-43,-43
-106,-105,1,106,-53,-52,24,-99,62,-10,-52,-50
-113,-119,-6,117,-53,-62,34,-104,67,-14,-49,-50
-81,-78,3,79,-42,-37,36,-103,63,-21,-50,-49
-109,-101,8,105,-59,-46,33,-109,67,-26,-50,-51
-65,-82,-17,74,-24,-49,38,-97,63,-31,-49,-49
-59,-84,-25,71,-17,-54,31,-118,73,-25,-47,-44
-158,-151,7,154,-82,-72,55,-85,81,-11,-50,-55
-225,-90,135,157,-179,22,97,-109,65,6,-43,-44
-186,-64,122,125,-154,29,231,82,238,154,69,12
390,237,-153,-313,271,42,141,614,736,611,513,354
1582,875,-707,-1229,1144,84,-607,1215,1448,1268,1271,1051
1878,954,-924,-1416,1401,15,-1026,1423,1461,1206,1317,1183
756,419,-337,-587,546,41,-583,520,575,371,450,483
48,26,-21,-37,35,3,-153,-213,15,-76,-48,50
-35,-100,-65,68,16,-82,-14,-155,-9,-73,-63,4
-116,-132,-16,124,-50,-74,22,-165,19,-66,-91,-64
-137,-135,2,136,-69,-66,38,-170,-32,-109,-136,-94
-144,-118,26,131,-85,-45,64,-179,-48,-115,-137,-111
-130,-113,18,122,-74,-48,71,-178,-14,-86,-106,-104
-188,-168,20,178,-104,-73,70,-166,-23,-91,-114,-100
-180,-160,20,170,-100,-69,73,-172,-19,-93,-115,-97
-154,-134,20,144,-87,-57,76,-156,-19,-96,-114,-91
-172,-156,16,164,-94,-70,74,-162,-27,-100,-116,-88
-173,-170,3,171,-88,-83,77,-149,-45,-113,-129,-78
-163,-174,-11,169,-76,-92,72,-155,-51,-116,-128,-73
-149,-140,9,144,-79,-65,86,-178,-49,-115,-110,-65
-178,-145,33,161,-105,-56,97,-179,-54,-119,-137,-96
-193,-174,19,183,-106,-78,69,-174,-56,-121,-162,-119
-186,-169,17,177,-101,-76,78,-171,-54,-119,-158,-113
-176,-166,10,171,-92,-78,91,-167,-58,-130,-162,-116
-181,-175,6,177,-93,-84,90,-164,-65,-152,-158,-108
-183,-163,20,172,-101,-71,90,-175,-65,-157,-163,-113
-127,-108,19,118,-73,-44,86,-163,-74,-154,-156,-104
-119,-157,-38,138,-40,-97,113,-153,-79,-156,-156,-94
-153,-184,-31,169,-60,-108,116,-190,-110,-181,-197,-131
-169,-148,22,158,-95,-63,115,-192,-117,-186,-194,-134
-174,-169,4,171,-89,-82,120,-180,-116,-189,-195,-124
-140,-177,-37,159,-51,-107,120,-178,-135,-209,-218,-126
-112,-158,-46,136,-33,-101,119,-166,-124,-201,-213,-113
-121,-166,-45,144,-38,-105,105,-172,-144,-211,-216,-123
-103,-150,-47,127,-28,-98,123,-169,-139,-201,-210,-121
-92,-132,-40,112,-26,-85,128,-122,-112,-163,-179,-92
-70,-140,-70,105,0,-105,119,-109,-110,-148,-166,-76
-20,-70,-50,45,16,-60,101,-125,-72,-127,-158,-64
-14,-54,-40,34,13,-47,73,-95,-47,-100,-120,-42
-8,-55,-47,32,20,-51,69,-81,-24,-73,-86,-17
-9,-34,-25,22,9,-29,65,-80,4,-47,-70,-9
-27,-47,-20,37,-3,-33,62,-73,30,-28,-60,2
-55,-57,-3,56,-26,-30,56,-71,66,-19,-55,7
-58,-78,-20,68,-19,-48,57,-65,83,10,-47,25
-69,-45,24,56,-46,-11,68,-61,96,38,-40,45
-95,-23,73,59,-84,24,65,-60,89,30,-35,35
-78,-34,44,55,-61,5,52,-59,74,25,-28,18
-60,-51,9,55,-34,-21,63,-62,66,17,-25,10
-70,-94,-24,83,-22,-59,87,-58,55,11,-16,32
-76,-55,21,65,-48,-17,75,-65,50,4,-20,16
-79,7,86,36,-82,46,62,-113,42,-17,-48,9
-90,-31,59,61,-75,14,54,-129,34,-15,-49,37
-124,-92,32,108,-78,-30,45,-122,27,-3,-41,32
-121,-88,33,104,-77,-27,40,-130,21,3,-40,26
-37,-24,13,30,-25,-5,32,-130,16,1,-33,20
-42,-54,-13,48,-14,-33,26,-129,11,-6,-31,12
-88,-88,0,88,-43,-44,20,-143,8,-9,-34,6
-93,-74,19,83,-56,-27,15,-158,2,-13,-35,8
-91,-71,20,81,-55,-26,15,-160,-1,-20,-37,14
-76,-57,19,66,-47,-19,14,-162,-7,-16,-40,10
-47,-77,-31,62,-8,-54,10,-167,-13,-23,-40,7
-19,-48,-29,34,5,-38,10,-174,-17,-36,-40,6
-64,-47,17,55,-40,-15,8,-189,-25,-30,-40,0
-75,-56,19,66,-47,-19,4,-209,-27,-25,-40,2
-84,-64,20,74,-52,-22,1,-210,-29,-23,-35,2
-72,-36,36,54,-54,0,-3,-210,-18,-14,-28,24
-63,-60,3,61,-32,-28,-5,-216,-31,-21,-23,17
-57,-88,-31,73,-13,-59,5,-215,-64,-39,-17,-3
6,15,9,-11,-2,12,22,-213,-56,-33,-13,31
-51,-45,6,48,-28,-19,27,-206,-47,-23,-2,35
-77,-50,27,64,-52,-11,19,-201,-40,-17,7,29
-32,-22,10,27,-21,-6,11,-196,-30,-8,16,23
-31,-49,-18,40,-7,-33,3,-189,-23,22,37,39
-19,32,51,-7,-35,41,-3,-186,-13,57,57,65
47,83,36,-65,5,59,-27,-176,-5,61,70,82
102,97,-4,-99,53,46,-56,-184,3,51,67,101
67,68,1,-68,33,34,-72,-237,-29,42,52,94
60,69,10,-65,25,39,-69,-267,-56,34,43,87
18,29,11,-24,3,20,-52,-263,-52,22,22,41
-80,-81,-1,81,-40,-41,-45,-267,-62,5,-2,18
-107,-115,-9,111,-49,-62,-37,-263,-81,-27,-4,25
-104,-105,-1,105,-51,-53,-31,-269,-91,-42,-6,11
-101,-98,3,99,-52,-48,-24,-272,-92,-39,-7,6
-106,-94,12,100,-59,-41,-17,-289,-118,-57,-12,-3
-99,-82,17,90,-58,-32,-13,-292,-114,-39,-8,-10
-99,-83,16,91,-57,-33,-2,-273,-105,-34,-5,-13
-61,-56,5,58,-33,-25,1,-279,-100,-21,3,-5
-68,-69,-1,69,-33,-35,25,-254,-89,-11,-2,-17
-198,-66,132,132,-164,33,50,-339,-128,-34,-36,-37
-146,-13,133,79,-140,60,166,-126,58,145,104,41
452,275,-177,-363,314,48,38,460,618,663,633,470
1560,984,-576,-1272,1068,204,-618,987,1396,1408,1504,1254
1600,995,-606,-1297,1103,194,-870,1080,1374,1291,1446,1252
419,312,-107,-365,263,102,-454,205,348,319,396,392
-43,31,74,5,-58,52,-156,-443,-190,-122,-48,25
-76,-86,-10,81,-33,-48,-83,-357,-182,-124,-67,13
-203,-115,88,159,-145,-13,-40,-363,-196,-95,-83,-32
-122,-51,71,86,-96,9,1,-359,-204,-83,-60,-39
-129,-64,65,96,-97,0,31,-358,-215,-101,-75,-60
-148,-91,57,120,-102,-17,28,-365,-222,-112,-58,-44
-153,-109,44,131,-98,-32,25,-379,-237,-117,-73,-42
-151,-100,51,125,-101,-24,22,-403,-238,-119,-85,-44
-127,-117,9,122,-68,-54,17,-398,-262,-159,-105,-69
-142,-79,63,111,-102,-8,14,-408,-268,-161,-106,-72
-136,-56,81,96,-108,12,11,-397,-267,-159,-99,-63
-165,-110,55,138,-110,-27,8,-410,-274,-162,-101,-67
-169,-116,53,142,-111,-31,5,-417,-272,-157,-92,-57
-152,-114,38,133,-95,-38,2,-413,-280,-166,-102,-64
-134,-99,35,116,-84,-31,-1,-416,-285,-175,-115,-61
-128,-112,16,120,-72,-48,2,-414,-286,-176,-116,-56
-155,-149,5,152,-80,-72,8,-416,-284,-172,-115,-85
-133,-109,24,121,-78,-43,13,-420,-286,-172,-113,-90
-130,-98,32,114,-81,-33,17,-420,-284,-167,-122,-78
-120,-92,28,106,-73,-32,22,-422,-294,-182,-125,-82
-138,-114,24,126,-81,-45,25,-434,-319,-205,-138,-68
-125,-112,13,118,-69,-49,26,-435,-320,-213,-141,-77
-90,-71,19,80,-54,-26,24,-434,-321,-214,-139,-87
-81,-114,-33,97,-24,-73,37,-430,-334,-210,-161,-80
-53,-113,-60,83,4,-86,53,-430,-330,-229,-162,-104
-75,-97,-22,86,-26,-60,46,-428,-320,-234,-153,-108
-52,-88,-36,70,-8,-61,38,-407,-313,-221,-145,-94
-42,-72,-29,57,-6,-50,32,-389,-305,-221,-138,-93
-46,-74,-27,60,-9,-50,23,-381,-296,-211,-128,-82
-44,-56,-12,50,-16,-34,20,-372,-277,-174,-109,-51
-25,-48,-23,37,0,-35,7,-363,-241,-150,-85,-34
7,-28,-35,10,22,-32,16,-353,-210,-123,-62,-13
-35,-17,18,26,-26,0,38,-339,-179,-82,-44,8
-5,24,29,-10,-18,27,31,-331,-140,-59,-14,5
-7,42,48,-18,-28,45,30,-329,-111,-36,11,11
-43,25,68,9,-55,46,25,-326,-97,-23,20,12
23,83,60,-53,-18,71,21,-323,-91,-18,42,15
-20,60,80,-20,-50,70,20,-319,-86,-9,44,14
-32,23,55,5,-44,38,10,-320,-81,-6,31,6
-8,22,30,-7,-19,26,37,-319,-74,9,49,29
-61,26,87,17,-74,56,50,-321,-72,25,61,38
-18,77,95,-30,-57,85,37,-318,-67,15,46,21
-45,33,78,6,-62,56,33,-324,-78,-13,35,8
-60,19,79,20,-69,49,23,-356,-108,-41,30,-3
12,80,68,-46,-28,74,18,-362,-111,-46,30,1
-3,60,63,-29,-33,61,11,-358,-109,-44,30,7
-22,42,63,-10,-43,52,10,-361,-111,-46,30,10
-27,5,32,11,-29,18,10,-358,-108,-44,30,15
-45,-39,6,42,-25,-16,5,-362,-114,-45,29,19
-40,3,43,18,-42,23,6,-364,-120,-45,24,17
-22,28,51,-3,-37,39,3,-365,-117,-45,21,11
-17,33,49,-8,-33,41,0,-366,-113,-45,18,7
-41,18,59,12,-51,38,0,-371,-110,-45,13,2
-35,22,57,6,-46,39,0,-369,-105,-45,10,-2
-39,9,49,15,-44,28,0,-372,-105,-45,6,-6
-75,-32,43,53,-59,5,0,-388,-114,-45,0,-11
-32,4,36,14,-34,20,3,-385,-110,-45,-5,-16
11,34,23,-23,-6,28,6,-376,-102,-45,-10,-20
-5,35,40,-15,-23,38,4,-371,-96,-45,-17,-25
-53,-8,46,30,-50,19,6,-363,-88,-45,-18,-30
-59,-14,46,36,-52,16,4,-359,-84,-38,-12,-26
-22,21,43,0,-33,32,7,-353,-78,-26,-3,-17
-27,23,49,2,-38,35,16,-347,-71,-19,0,-12
-36,30,66,3,-51,48,31,-343,-65,5,17,-3
3,68,65,-36,-32,66,29,-336,-57,20,41,6
41,88,48,-65,-4,68,12,-332,-52,41,62,36
78,76,-2,-77,40,37,0,-328,-45,71,91,76
119,117,-2,-118,61,57,-51,-333,-41,61,90,74
93,116,23,-105,35,69,-67,-352,-32,43,75,62
45,82,36,-64,4,59,-25,-357,-34,28,70,53
15,61,47,-38,-17,54,-9,-346,-64,9,40,31
-62,-28,33,45,-47,2,-1,-357,-92,-27,7,-1
-108,-77,31,93,-69,-23,11,-375,-110,-54,-1,-39
-81,-61,21,71,-51,-19,23,-381,-114,-52,-13,-53
-72,-53,18,62,-44,-17,32,-366,-98,-39,-20,-48
-64,-69,-6,67,-29,-38,29,-371,-100,-40,-28,-51
-64,-113,-50,89,-7,-81,33,-360,-86,-25,-24,-43
-90,-89,0,90,-45,-44,38,-357,-84,-28,-23,-46
-75,-55,21,65,-48,-17,29,-367,-96,-38,-22,-46
-83,-39,44,61,-63,3,65,-345,-85,-17,-13,-43
-223,-55,168,139,-196,56,119,-375,-79,0,-21,-66
-76,10,86,33,-81,47,244,-22,199,246,176,75
751,519,-232,-635,491,143,-10,590,881,889,842,635
1741,1080,-661,-1410,1201,209,-732,1137,1584,1527,1592,1306
1442,828,-614,-1135,1028,107,-821,1026,1263,1119,1234,1064
274,226,-48,-250,161,89,-358,-23,226,176,241,253
-78,31,109,24,-94,70,-82,-455,-178,-126,-72,-23
-89,-32,57,60,-73,12,27,-311,-182,-148,-63,-36
-175,-90,85,132,-130,-2,55,-368,-179,-141,-90,-79
-152,-104,48,128,-100,-28,59,-378,-161,-133,-123,-98
-133,-78,56,105,-94,-11,67,-378,-159,-136,-129,-96
-127,-106,21,116,-74,-42,80,-365,-173,-125,-120,-86
-116,-130,-15,123,-50,-72,78,-359,-192,-129,-129,-83
-119,-90,28,104,-73,-31,72,-353,-180,-121,-122,-82
-161,-137,24,148,-92,-56,70,-348,-185,-128,-125,-112
-159,-123,36,141,-97,-43,65,-352,-177,-123,-118,-114
-147,-113,35,130,-91,-38,64,-348,-183,-127,-118,-106
-138,-105,33,122,-85,-36,81,-351,-193,-122,-113,-106
-178,-116,62,147,-120,-27,106,-349,-199,-141,-126,-96
-213,-182,31,197,-121,-75,96,-343,-209,-170,-153,-98
-147,-136,11,141,-79,-62,90,-335,-182,-137,-127,-113
-96,-92,4,94,-50,-44,115,-327,-186,-144,-129,-116
-173,-141,32,157,-103,-54,120,-320,-215,-182,-160,-114
-198,-169,29,183,-114,-69,111,-312,-209,-190,-153,-116
-146,-140,7,143,-76,-66,110,-303,-211,-197,-157,-114
-131,-131,0,131,-65,-66,103,-293,-210,-194,-153,-117
-110,-116,-6,113,-51,-61,101,-282,-209,-195,-161,-120
-104,-115,-11,109,-46,-63,110,-275,-214,-195,-180,-120
-130,-148,-18,139,-55,-83,109,-273,-222,-215,-185,-125
-153,-172,-19,163,-67,-95,113,-270,-241,-232,-197,-124
-119,-157,-38,139,-40,-97,139,-267,-236,-224,-192,-117
-107,-120,-13,114,-47,-66,151,-266,-229,-221,-185,-113
-77,-131,-54,104,-11,-92,131,-259,-251,-214,-202,-106
-47,-120,-74,84,14,-97,120,-233,-245,-209,-195,-102
-52,-103,-50,78,-1,-76,133,-207,-215,-202,-166,-92
-41,-86,-44,64,1,-65,125,-189,-190,-183,-140,-72
-68,-79,-11,74,-28,-45,99,-177,-155,-157,-110,-52
-50,-90,-40,70,-4,-65,92,-168,-133,-123,-89,-35
-7,-38,-31,23,12,-34,88,-157,-110,-104,-80,-26
-31,-60,-29,46,0,-44,83,-144,-80,-76,-63,-18
-34,-34,0,34,-16,-17,80,-129,-40,-30,-31,-9
-47,-6,41,26,-44,18,72,-118,7,-19,-14,-4
-103,-70,34,86,-68,-18,92,-111,30,-20,-16,2
-125,-58,67,92,-96,5,115,-104,50,-20,-15,5
-99,-55,44,77,-71,-5,109,-98,57,-20,-15,10
-77,-47,30,61,-53,-8,102,-90,54,-19,-15,15
-87,-46,40,66,-63,-3,96,-86,67,-24,-12,12
-57,-27,30,41,-43,1,88,-84,57,-25,-10,7
-78,-37,41,56,-59,2,87,-86,47,-24,-10,6
-57,-40,17,48,-37,-11,109,-84,77,0,-10,19
-13,-24,-12,19,-1,-18,118,-88,87,-3,-10,22
-50,-42,8,46,-29,-17,108,-114,75,-35,-10,16
-9,22,31,-7,-20,26,103,-121,69,-35,-14,13
-29,-10,19,19,-24,5,94,-120,57,-35,-15,7
-71,-47,25,59,-48,-11,88,-118,53,-34,-16,4
-87,-47,40,67,-63,-3,81,-130,46,-44,-34,-5
-61,-70,-10,66,-25,-40,76,-148,49,-57,-32,-15
-5,-16,-11,11,3,-13,72,-144,65,-49,-16,-21
-59,-67,-8,63,-25,-37,67,-143,77,-49,-16,-16
-67,-112,-45,90,-11,-78,63,-139,94,-43,-11,-4
-74,-75,-1,75,-36,-38,57,-140,96,-39,-15,-10
-98,-73,25,85,-61,-24,56,-152,93,-51,-24,-16
-85,-61,24,73,-54,-19,51,-153,91,-56,-28,-21
-84,-62,22,73,-53,-19,51,-145,89,-55,-37,-26
-58,-43,15,51,-37,-14,46,-141,93,-55,-39,-15
-71,-54,17,62,-44,-18,45,-135,95,-55,-33,-26
-55,-50,5,52,-29,-22,42,-129,96,-54,-30,-37
-70,-55,15,62,-42,-20,31,-144,112,-49,-24,-23
-54,-65,-10,60,-22,-37,66,-145,118,-37,-23,-12
-21,-3,18,12,-20,8,96,-134,118,-29,-5,1
-72,17,90,27,-81,53,103,-131,149,-15,33,17
-10,44,54,-17,-33,49,90,-125,162,17,48,36
58,68,10,-63,24,39,42,-122,178,30,52,47
102,99,-3,-100,53,48,15,-115,191,43,66,66
88,84,-4,-86,46,40,19,-117,176,48,69,78
46,52,6,-49,19,28,24,-120,168,30,56,68
8,17,9,-13,-1,13,29,-120,157,21,46,54
-58,-95,-36,77,-11,-65,54,-131,144,9,27,31
-68,-123,-55,95,-6,-89,72,-130,135,-16,-2,3
-89,-106,-18,98,-35,-62,70,-144,120,-57,-34,-40
-83,-112,-29,98,-27,-70,69,-143,116,-65,-46,-51
-110,-105,5,107,-57,-49,71,-133,114,-57,-39,-40
-135,-102,33,119,-84,-34,69,-136,111,-53,-36,-39
-82,-105,-23,93,-29,-64,68,-117,110,-46,-28,-30
-69,-82,-14,76,-27,-48,63,-130,113,-40,-25,-27
-111,-108,3,109,-57,-53,71,-114,144,-43,-21,-23
-183,-78,105,130,-144,14,114,-166,126,-47,-32,-39
-147,7,154,70,-151,81,260,-5,264,102,65,3
330,213,-117,-272,223,48,214,512,737,531,477,333
1455,794,-661,-1124,1058,66,-481,1129,1461,1195,1243,1016
1933,958,-975,-1445,1454,-8,-976,1464,1629,1260,1412,1226
855,428,-427,-642,641,1,-588,635,745,430,555,546
35,40,4,-37,15,22,-145,-214,136,-112,-24,54
-58,-80,-22,69,-18,-51,-4,-190,109,-133,-81,-8
-152,-110,42,131,-97,-34,75,-180,70,-114,-99,-58
-100,-114,-14,107,-43,-64,98,-179,70,-103,-83,-59
-177,-153,24,165,-101,-64,94,-168,49,-121,-95,-68
-212,-147,65,179,-138,-40,95,-173,41,-112,-88,-61
-162,-129,33,145,-97,-48,95,-158,30,-113,-88,-58
-204,-157,47,181,-125,-55,94,-164,15,-133,-93,-74
-204,-181,23,192,-114,-78,99,-157,12,-141,-101,-91
-202,-171,31,187,-116,-70,99,-160,8,-140,-101,-91
-192,-166,26,179,-109,-70,103,-152,12,-133,-97,-87
-194,-162,32,178,-113,-65,105,-158,8,-140,-105,-96
-186,-157,29,171,-107,-64,104,-150,12,-114,-78,-64
-164,-155,10,159,-87,-72,116,-174,3,-135,-100,-82
-205,-150,54,177,-129,-48,117,-194,-29,-176,-137,-116
-176,-147,29,161,-102,-58,109,-178,-46,-167,-127,-108
-130,-144,-15,137,-57,-79,105,-171,-45,-171,-132,-109
-167,-162,6,164,-86,-78,99,-161,-45,-169,-129,-104
-184,-163,21,173,-102,-71,95,-156,-47,-172,-131,-106
-170,-145,24,157,-97,-60,102,-149,-43,-168,-133,-104
-178,-140,38,159,-108,-50,91,-146,-51,-173,-136,-107
-175,-140,35,157,-105,-52,108,-135,-65,-181,-134,-102
-151,-148,3,149,-77,-72,138,-141,-89,-204,-135,-112
-200,-166,35,183,-117,-65,125,-130,-96,-209,-171,-109
-195,-168,27,181,-111,-70,149,-130,-114,-209,-180,-111
-146,-158,-12,153,-67,-85,159,-157,-153,-239,-168,-145
-131,-148,-16,140,-57,-82,143,-128,-145,-226,-167,-123
-133,-145,-12,139,-60,-78,140,-120,-134,-211,-159,-108
-104,-138,-34,121,-35,-86,129,-102,-128,-203,-149,-100
-83,-131,-48,108,-17,-90,124,-71,-118,-193,-126,-85
-103,-132,-29,118,-37,-80,112,-64,-89,-152,-82,-80
-34,-99,-66,67,16,-82,102,-51,-70,-124,-68,-63
15,-69,-84,27,50,-76,93,-44,-63,-116,-65,-43
-16,-51,-35,33,10,-43,87,-21,-32,-75,-38,-17
-77,-67,10,72,-43,-28,83,2,-12,-53,-17,2
-57,-60,-3,59,-27,-31,77,8,25,-24,13,12
-40,-41,-1,41,-19,-21,75,17,49,-5,28,23
-61,-36,24,48,-42,-6,68,21,41,0,23,25
-44,-9,36,26,-40,13,67,31,41,6,25,25
-95,-48,46,71,-70,-1,60,34,35,-11,18,25
-80,-12,67,46,-73,27,62,36,32,-8,21,25
-56,-7,49,31,-53,21,93,52,29,3,34,26
-141,-70,71,105,-105,0,96,58,12,17,43,23
-159,-28,131,93,-145,51,85,67,13,29,52,35
-115,-29,87,72,-101,29,68,51,12,2,31,39
-97,-33,64,65,-80,15,43,33,4,-19,13,27
-86,-25,62,55,-74,18,38,35,-14,-27,13,24
-106,-46,59,76,-82,6,35,30,-44,-33,9,15
-78,-25,53,51,-66,14,31,26,-45,-26,5,11
-40,12,52,14,-46,32,29,28,-45,-20,11,26
-53,-12,41,32,-47,15,22,17,-45,-16,35,32
-53,-57,-4,55,-24,-30,27,30,-40,-25,34,28
-117,-59,58,88,-87,0,41,54,-62,-20,36,31
-88,-22,65,55,-76,21,30,39,-76,-12,33,28
-22,44,66,-11,-44,55,16,28,-57,-6,40,35
-57,29,86,14,-72,57,13,18,-68,0,47,50
-94,-55,39,74,-66,-8,15,11,-88,-18,16,45
-120,-70,50,95,-85,-10,19,5,-84,-22,15,40
-113,-71,42,92,-77,-14,19,-3,-83,-14,23,35
-128,-79,49,103,-88,-14,29,-9,-79,-11,24,28
-97,-45,52,71,-74,3,36,-16,-81,-4,31,25
-46,-8,39,27,-42,15,30,-7,-74,0,34,24
-50,-2,48,25,-49,23,28,-12,-62,7,37,25
-13,32,46,-10,-30,39,23,-13,-50,12,44,30
36,100,64,-68,-14,82,20,-21,-43,35,77,66
53,116,62,-85,-5,89,9,-21,-35,55,95,89
106,156,50,-131,28,103,-36,-34,-30,47,85,80
91,146,56,-119,17,101,-59,-72,-23,38,77,72
41,66,25,-54,8,46,-47,-57,-15,32,68,63
-2,35,37,-17,-20,36,-37,-77,-58,24,59,53
-80,-1,79,40,-79,39,-29,-108,-81,9,44,24
-22,2,24,10,-23,13,-22,-94,-70,-18,28,1
-21,-21,0,21,-11,-10,-21,-104,-76,-52,14,-4
-80,-59,21,69,-50,-18,-16,-99,-65,-45,17,-6
-62,-34,28,47,-45,-2,-12,-123,-75,-46,8,-15
-77,-39,38,58,-57,-1,-11,-109,-60,-34,11,-13
-41,-16,25,28,-33,5,0,-90,-60,-33,4,-10
-30,-8,22,19,-26,7,-1,-95,-51,-27,3,-7
-119,-33,87,76,-103,27,30,-85,-39,-2,-7,-7
-162,19,181,71,-172,100,89,-128,-40,23,-14,-29
-25,62,87,-19,-56,74,194,237,257,278,216,127
814,532,-282,-673,548,125,-117,857,957,930,909,714
1796,1135,-661,-1465,1228,237,-778,1362,1638,1546,1640,1374
1279,807,-472,-1043,875,167,-758,1153,1206,1032,1142,1008
200,207,7,-203,96,106,-315,123,194,120,168,184
-77,-24,52,50,-65,14,-110,-239,-117,-99,-54,7
-112,-68,44,90,-78,-12,-44,-103,-99,-105,-95,-5
-110,-14,97,62,-103,41,-6,-129,-67,-72,-92,-31
-128,-71,57,99,-92,-7,23,-129,-93,-99,-82,-48
-143,-75,67,109,-105,-4,20,-153,-113,-118,-92,-69
-107,-60,47,83,-77,-6,19,-141,-98,-101,-77,-49
-112,-68,44,90,-78,-12,22,-146,-111,-118,-93,-61
-122,-71,51,96,-87,-10,17,-145,-100,-103,-94,-74
-126,-112,13,119,-69,-49,29,-143,-109,-94,-106,-83
-95,-64,32,79,-63,-16,51,-155,-116,-114,-115,-90
-144,-74,70,109,-106,-2,49,-153,-122,-129,-122,-97
-159,-103,57,131,-108,-23,45,-151,-115,-115,-119,-90
-117,-63,54,90,-85,-4,43,-146,-114,-116,-117,-90
-134,-85,48,109,-91,-18,39,-143,-130,-133,-114,-85
-129,-88,41,109,-85,-23,38,-139,-138,-145,-116,-85
-111,-72,39,91,-75,-16,28,-145,-126,-133,-119,-79
-98,-66,32,81,-64,-17,24,-145,-118,-127,-122,-76
-128,-84,44,106,-86,-20,13,-145,-149,-162,-151,-103
-169,-130,39,149,-104,-45,26,-159,-171,-187,-170,-113
-134,-130,4,132,-69,-63,61,-155,-162,-179,-161,-109
-113,-114,-1,113,-55,-57,66,-147,-168,-191,-169,-111
-98,-93,4,95,-51,-44,64,-142,-187,-193,-169,-110
-90,-88,2,89,-46,-43,66,-133,-189,-186,-160,-109
-109,-117,-8,113,-50,-62,64,-129,-201,-216,-183,-116
-83,-133,-51,108,-16,-92,66,-117,-208,-223,-189,-117
-80,-127,-47,104,-16,-87,68,-106,-198,-208,-177,-108
-70,-113,-43,92,-13,-77,71,-93,-193,-201,-174,-103
0,-83,-84,42,42,-83,76,-78,-182,-186,-159,-92
-2,-66,-64,34,31,-65,69,-66,-164,-170,-137,-79
-12,-43,-32,28,10,-37,54,-47,-137,-145,-119,-63
34,16,-18,-25,26,-1,46,-36,-108,-118,-98,-43
25,23,-1,-24,13,11,37,-24,-75,-86,-72,-23
8,4,-4,-6,6,0,33,-20,-53,-62,-46,-20
-7,14,20,-4,-14,17,25,-4,-12,-27,-31,-4
5,32,27,-18,-11,29,36,13,20,2,-23,12
16,61,46,-39,-15,53,78,19,23,13,18,14
-47,51,98,-2,-73,74,87,47,55,43,42,34
-48,41,89,3,-69,65,74,50,61,47,31,35
-32,44,76,-6,-54,60,69,39,48,44,25,24
-55,14,69,21,-62,41,60,36,46,44,16,20
-25,32,57,-4,-42,44,56,27,37,38,9,12
-21,27,47,-3,-34,37,53,20,30,41,5,5
-78,-33,45,55,-61,5,50,28,40,35,5,13
-57,-39,18,48,-38,-11,47,26,42,30,5,22
-29,-7,23,18,-26,8,45,8,22,24,5,19
-26,33,60,-4,-43,46,43,-8,7,19,5,20
10,52,42,-31,-16,46,39,-12,3,14,2,15
6,49,42,-28,-18,45,40,-5,14,9,-3,15
-38,-9,29,23,-34,10,40,-23,19,6,-6,14
-75,-43,31,59,-53,-6,40,-29,13,3,-9,10
-17,-12,5,14,-10,-4,39,-17,6,-2,-15,10
-40,-48,-8,44,-15,-28,35,-1,1,-5,-13,6
-79,-23,55,51,-67,16,35,-12,-2,-8,-15,-1
-23,-1,22,12,-22,10,35,-37,-6,-17,-31,-7
-56,-41,15,48,-35,-13,35,-34,-9,-19,-38,-14
-23,14,36,4,-30,25,35,-35,-14,-13,-33,-22
-39,-14,25,27,-32,5,34,-32,-15,-5,-30,-23
-86,-62,24,74,-55,-19,28,-29,-26,-16,-27,-21
-36,-28,8,32,-22,-10,28,-30,-30,-27,-22,-16
-30,-15,15,22,-22,0,20,-25,-14,-13,-19,-17
-14,-39,-25,27,6,-32,25,-22,-3,-7,-14,-2
-71,-77,-7,74,-32,-42,56,-18,5,15,-5,18
-81,-46,35,63,-58,-5,55,-15,9,20,3,23
-25,1,26,12,-25,14,44,-11,27,19,10,16
-1,50,52,-25,-26,51,40,-8,40,49,18,27
30,71,41,-51,-6,56,29,6,41,53,27,58
50,72,22,-61,14,47,25,17,62,70,55,63
119,139,20,-130,49,79,9,12,68,84,66,87
153,148,-5,-151,78,72,-9,-1,58,67,55,97
114,106,-8,-110,61,49,-1,-12,54,62,54,79
36,57,20,-47,8,38,-6,-26,37,41,30,57
-15,-15,0,15,-7,-8,-15,-64,3,8,-6,10
-43,-60,-17,52,-13,-38,2,-70,-5,-2,-29,-24
-70,-74,-4,72,-33,-39,16,-70,-10,-10,-47,-36
-7,-22,-15,14,4,-18,22,-71,-12,-15,-44,-35
1,-5,-6,2,4,-6,41,-75,-16,-23,-45,-34
-69,-81,-12,75,-28,-46,54,-94,-22,-29,-46,-31
-66,-79,-13,73,-26,-46,57,-76,-16,-24,-42,-29
-48,-67,-19,57,-14,-43,57,-86,-26,-20,-45,-29
-56,-88,-32,72,-12,-60,62,-70,7,-1,-25,-27
-137,-24,113,80,-125,45,96,-115,13,-5,-30,-30
-157,-17,140,87,-149,61,230,46,143,133,66,19
339,216,-123,-277,230,46,163,553,628,578,497,352
1502,901,-601,-1201,1051,150,-502,1166,1407,1308,1320,1082
1839,1030,-808,-1434,1323,111,-930,1466,1569,1371,1474,1270
787,467,-320,-627,553,74,-565,603,640,473,555,541
75,63,-12,-69,43,26,-161,-219,-15,-62,22,56
-29,-46,-17,38,-6,-31,-27,-186,-80,-82,-26,-8
-51,-49,2,50,-26,-23,45,-186,-91,-56,-68,-37
-101,-120,-20,111,-40,-70,87,-186,-74,-89,-83,-64
-147,-110,37,128,-92,-36,84,-177,-82,-126,-121,-99
-85,-75,10,80,-47,-32,80,-185,-73,-104,-104,-85
-84,-66,18,74,-51,-23,79,-174,-73,-114,-113,-95
-134,-83,51,108,-92,-16,75,-179,-70,-103,-109,-95
-159,-120,39,139,-99,-40,75,-172,-69,-106,-110,-94
-96,-72,24,84,-60,-24,75,-177,-71,-109,-116,-101
-119,-99,19,109,-69,-40,83,-174,-69,-111,-114,-98
-148,-109,39,128,-93,-35,87,-174,-72,-115,-115,-102
-123,-137,-14,130,-54,-76,82,-169,-81,-117,-117,-105
-174,-151,22,162,-98,-64,88,-182,-95,-120,-128,-105
-152,-105,47,128,-99,-29,100,-179,-90,-120,-125,-103
-122,-99,23,111,-72,-38,101,-167,-85,-119,-112,-98
-123,-88,35,105,-79,-26,98,-162,-80,-122,-120,-103
-137,-122,15,129,-76,-53,96,-153,-72,-146,-157,-119
-146,-121,26,133,-86,-47,94,-150,-74,-153,-162,-121
-106,-119,-13,113,-46,-66,96,-144,-78,-148,-159,-120
-153,-161,-8,157,-73,-84,93,-140,-94,-152,-166,-115
-172,-142,29,157,-100,-57,99,-135,-113,-146,-164,-116
-137,-123,13,130,-74,-55,123,-130,-113,-160,-166,-112
-115,-120,-4,118,-55,-62,125,-127,-113,-192,-175,-112
-104,-117,-13,111,-45,-64,115,-121,-102,-204,-163,-125
-131,-108,22,119,-76,-43,131,-117,-102,-194,-160,-118
-69,-110,-42,90,-13,-76,139,-112,-124,-187,-189,-114
-56,-105,-49,81,-3,-77,130,-108,-119,-180,-184,-107
-73,-87,-14,80,-29,-50,124,-103,-102,-170,-168,-103
-20,-82,-63,51,22,-72,118,-90,-83,-161,-155,-93
-21,-53,-32,38,6,-43,110,-77,-48,-121,-129,-56
-48,-39,9,44,-29,-15,100,-62,-14,-90,-99,-38
-32,-30,2,30,-17,-13,92,-45,7,-71,-66,-33
-6,-31,-25,19,9,-28,83,-29,31,-41,-45,-25
-11,-28,-17,20,3,-22,73,-17,63,-29,-35,-19
-23,-33,-10,28,-7,-21,70,-2,93,-14,-25,-13
-34,-27,7,31,-21,-10,70,11,104,-3,-15,-7
-12,0,13,6,-13,6,67,26,126,19,-9,-5
-7,-10,-3,9,-2,-7,65,55,147,50,-4,-5
-36,-3,33,20,-34,15,65,56,148,49,1,-2
-72,-5,67,38,-69,31,62,46,148,43,5,1
-65,11,77,27,-71,44,59,41,141,40,10,-1
-58,-18,41,38,-49,11,56,32,134,35,6,-4
-60,-29,31,44,-45,1,53,27,128,30,5,-5
-10,25,35,-8,-23,30,50,19,120,26,5,-5
-21,0,21,10,-21,11,48,14,115,24,0,-5
-43,-8,34,25,-38,13,45,9,110,21,0,-5
22,10,-11,-16,17,-1,42,3,109,19,-1,-3
69,37,-32,-53,50,3,40,-2,105,15,-6,0
-16,0,17,8,-16,8,36,-8,103,15,-9,0
-62,-40,22,51,-42,-9,35,-10,100,15,-12,0
-29,-12,17,20,-22,2,31,-13,99,15,-17,0
-25,0,25,12,-25,12,30,-16,106,15,-20,0
-2,12,15,-5,-9,13,30,-19,109,15,-17,-5
-34,-9,25,22,-29,8,26,-20,102,16,-14,-13
-7,14,21,-3,-14,17,25,-16,97,10,-11,-13
13,10,-3,-12,8,4,24,-12,92,21,-8,-3
-57,-52,5,55,-31,-24,19,-10,84,22,-5,3
-66,-51,15,58,-40,-17,20,-5,98,8,-6,1
-61,-43,19,52,-40,-12,31,-8,122,2,-17,-6
-46,-52,-6,49,-20,-29,31,-17,122,-15,-30,-9
-11,6,17,2,-14,12,20,-14,116,-13,-31,-14
-12,28,40,-8,-27,34,13,-2,110,16,-19,-19
-39,-9,30,24,-34,10,7,2,106,28,-11,-18
-26,-2,24,14,-25,11,12,20,96,20,1,-12
49,51,2,-51,23,26,39,63,123,45,40,12
153,171,19,-162,67,95,33,74,156,82,69,39
133,186,53,-160,40,119,-9,58,144,95,75,58
130,149,19,-140,55,84,-42,49,137,92,71,62
162,152,-10,-157,85,71,-60,36,130,77,59,49
65,109,44,-88,11,77,-53,21,118,68,51,40
28,80,52,-54,-12,66,-43,10,98,42,33,30
-2,34,36,-17,-20,35,-37,-9,81,18,2,22
-1,-2,-1,2,0,-2,-27,-6,75,24,-13,17
-16,-1,14,9,-15,6,-26,17,63,33,2,7
-78,-19,59,48,-68,20,-24,30,58,16,3,-14
-53,-5,48,29,-50,21,-26,16,44,2,-27,-33
-46,-7,39,26,-42,16,-25,17,45,22,-27,-41
-57,-16,41,36,-49,12,-25,12,37,9,-34,-47
-43,-17,27,30,-35,5,-15,2,34,10,-34,-44
-62,-27,35,44,-48,4,29,11,31,0,-34,-48
-145,20,166,62,-155,93,78,-23,48,30,-19,-45
-36,60,95,-12,-66,78,206,289,297,263,165,67
743,477,-266,-610,504,105,-70,843,887,822,749,555
1836,1080,-757,-1458,1296,161,-818,1380,1571,1444,1505,1244
1606,870,-736,-1238,1171,67,-923,1345,1306,1085,1200,1048
470,310,-160,-390,315,75,-434,360,331,195,238,255
62,96,35,-79,14,65,-144,-132,-37,-73,-76,-9
-22,32,54,-6,-38,43,-56,-32,-14,-47,-96,-44
-79,-3,76,40,-77,37,-34,-61,-26,-53,-98,-72
-34,-27,7,30,-20,-10,-12,-44,-36,-64,-91,-59
-79,-27,51,53,-65,12,1,-53,-63,-74,-99,-92
-110,-48,62,79,-86,7,2,-50,-70,-86,-92,-99
-71,-38,33,54,-52,-3,8,-46,-71,-85,-109,-103
-66,-24,42,45,-54,9,9,-43,-69,-84,-97,-104
-109,-46,63,78,-86,8,16,-32,-70,-86,-96,-106
-126,-74,52,100,-89,-10,12,-30,-87,-84,-122,-121
-116,-61,55,88,-85,-2,10,-19,-90,-91,-132,-126
-111,-68,43,89,-77,-13,11,-17,-102,-98,-129,-121
-81,-55,27,68,-54,-14,6,-8,-118,-107,-134,-120
-47,21,68,13,-58,44,5,-9,-100,-84,-135,-115
-97,-23,74,60,-85,25,5,-24,-116,-101,-135,-115
-117,-71,46,94,-81,-12,-3,-36,-142,-127,-129,-120
-103,-63,40,82,-71,-11,-12,-35,-140,-119,-139,-120
-132,-52,80,92,-106,14,-24,-28,-140,-112,-145,-120
-95,-46,49,71,-72,1,-24,-21,-144,-117,-135,-120
-53,-23,30,38,-41,3,5,-16,-162,-148,-131,-122
-57,-32,25,44,-40,-4,30,-2,-165,-146,-119,-129
-91,-91,0,91,-45,-45,37,11,-190,-159,-163,-125
-101,-69,32,85,-67,-18,33,4,-221,-181,-203,-125
-71,-55,16,62,-43,-19,30,-6,-228,-177,-198,-124
-65,-54,11,59,-38,-22,28,-13,-231,-188,-202,-119
-34,-35,0,35,-17,-17,24,-10,-228,-187,-199,-122
-25,-29,-5,27,-10,-17,26,-3,-243,-178,-201,-114
8,-15,-23,4,16,-19,23,9,-241,-170,-198,-126
1,-24,-24,12,13,-24,29,51,-223,-162,-173,-123
4,-5,-9,0,7,-7,25,103,-215,-153,-147,-96
53,11,-41,-32,47,-15,-14,111,-195,-133,-134,-88
21,5,-16,-13,19,-5,-33,111,-155,-106,-119,-73
60,64,5,-62,27,34,-35,116,-120,-69,-86,-52
79,105,26,-92,26,66,-34,113,-87,-33,-45,-35
30,83,53,-56,-12,68,-29,137,-43,-2,-7,-27
20,64,44,-42,-12,54,-29,152,-24,20,-6,-21
73,105,32,-89,20,69,-22,168,-22,33,-18,-16
75,132,57,-104,9,94,-32,178,-18,51,-15,-21
36,121,85,-79,-25,103,-51,173,-14,59,-15,-20
34,117,84,-76,-25,100,-49,176,-11,51,-15,-20
15,97,82,-56,-34,89,-44,174,-8,43,-15,-20
9,90,81,-50,-36,85,-45,176,-3,40,-14,-16
10,63,53,-37,-22,58,-37,164,-1,27,-11,-9
9,85,75,-47,-34,80,-46,175,24,40,12,-3
14,119,106,-67,-46,112,-43,191,37,60,29,5
22,86,64,-54,-22,75,-36,170,27,50,20,8
18,85,67,-52,-25,76,-65,158,25,44,14,-25
23,86,63,-54,-21,74,-63,153,17,36,6,-48
44,80,36,-62,4,58,-56,150,13,29,0,-44
35,82,46,-59,-5,64,-57,146,7,23,-8,-45
19,77,58,-48,-19,67,-46,143,0,19,-12,-40
30,79,49,-55,-9,64,-69,139,-8,20,-31,-40
17,58,42,-38,-12,50,-88,135,-13,20,-48,-39
73,75,2,-74,35,39,-84,126,-8,20,-43,-34
112,105,-7,-109,59,49,-84,126,15,21,-47,-36
46,89,43,-68,1,66,-78,156,25,26,-43,-33
-6,28,35,-11,-21,31,-82,168,0,19,-48,-37
-27,16,43,5,-35,30,-71,163,1,13,-31,-32
21,46,25,-34,-2,35,-69,167,8,5,-22,-35
17,50,34,-34,-9,41,-100,164,4,4,-54,-63
9,78,69,-44,-30,73,-90,166,33,29,-46,-56
38,53,16,-46,11,34,-79,169,36,39,-34,-44
33,92,58,-63,-13,75,-72,172,18,30,-24,-34
39,134,96,-87,-29,115,-48,184,49,55,-5,-13
87,123,37,-105,24,80,-67,190,65,80,9,8
125,179,54,-153,35,117,-91,191,79,93,48,53
184,193,9,-189,87,101,-138,171,83,99,61,58
287,187,-100,-237,193,43,-168,135,52,53,22,10
188,175,-13,-182,100,80,-143,134,44,43,2,-12
115,100,-16,-108,65,42,-136,149,37,55,-1,-25
101,61,-40,-81,70,11,-130,144,23,20,-36,-63
79,59,-20,-69,49,19,-121,142,12,5,-72,-83
120,9,-111,-64,115,-51,-117,132,-5,-7,-84,-80
63,-23,-86,-20,75,-54,-108,135,-8,-26,-89,-77
48,-25,-73,-11,61,-49,-105,126,-21,-38,-91,-76
68,-17,-85,-25,76,-51,-99,126,-21,-24,-81,-72
76,4,-71,-40,74,-33,-94,122,-36,-28,-86,-91
39,-31,-69,-4,54,-50,-93,115,-37,-14,-75,-102
-12,-43,-31,28,9,-37,-63,140,-42,-15,-87,-98
-67,31,98,18,-83,64,7,96,-24,10,-70,-90
54,90,36,-72,8,63,134,401,253,254,137,34
825,503,-323,-664,574,90,-142,978,890,856,756,556
1820,1130,-690,-1475,1255,220,-849,1536,1640,1550,1566,1274
1530,901,-629,-1215,1079,135,-932,1458,1344,1160,1213,1036
393,270,-123,-332,258,73,-468,420,291,198,194,196
68,78,10,-73,29,44,-213,-40,-105,-95,-106,-65
47,-48,-95,1,71,-71,-125,108,-99,-117,-132,-93
-35,-74,-39,54,2,-56,-93,73,-92,-108,-133,-124
9,-32,-41,12,25,-37,-76,67,-105,-100,-124,-115
10,-47,-57,19,33,-51,-65,55,-121,-104,-137,-122
25,-22,-47,-2,36,-34,-65,54,-108,-88,-122,-108
-27,-75,-48,51,11,-61,-60,52,-125,-108,-147,-136
-68,-105,-37,86,-15,-71,-59,43,-130,-119,-159,-157
-54,-86,-32,71,-11,-59,-55,51,-129,-121,-160,-154
-47,-89,-42,68,-2,-65,-54,72,-127,-119,-162,-158
-49,-74,-26,62,-11,-50,-49,79,-122,-120,-165,-160
-92,-87,5,90,-48,-41,-45,67,-140,-121,-166,-161
-85,-81,3,83,-43,-39,-43,63,-148,-118,-160,-156
-63,-93,-30,78,-16,-61,-38,54,-151,-124,-158,-155
-68,-103,-35,86,-17,-69,-35,47,-177,-147,-182,-155
-47,-75,-28,61,-9,-51,-31,42,-181,-152,-186,-154
-55,-72,-17,64,-19,-44,-30,26,-181,-149,-184,-158
-39,-91,-52,65,7,-72,-30,29,-174,-152,-191,-146
-46,-119,-73,83,13,-95,-25,54,-182,-148,-190,-160
-60,-90,-30,75,-15,-60,-25,53,-208,-155,-190,-179
-36,-81,-45,59,4,-63,-24,48,-201,-164,-192,-173
-37,-104,-67,71,16,-85,-16,47,-217,-174,-208,-176
7,-71,-77,32,42,-74,-8,40,-233,-182,-213,-174
6,-55,-62,25,34,-58,1,41,-238,-184,-213,-175
-52,-124,-72,89,10,-98,8,46,-270,-209,-236,-183
-44,-134,-90,89,23,-111,4,44,-277,-215,-236,-180
2,-75,-76,37,39,-75,1,47,-269,-202,-226,-172
36,-80,-116,23,76,-98,-3,42,-271,-203,-222,-167
40,-68,-107,14,74,-87,-6,53,-250,-174,-200,-143
41,-49,-90,4,66,-69,-11,81,-222,-139,-170,-113
76,-8,-84,-34,80,-46,-11,100,-202,-117,-147,-106
98,24,-74,-61,86,-25,-22,100,-176,-92,-128,-99
38,-27,-66,-5,52,-46,-42,92,-152,-62,-111,-92
6,-30,-36,12,21,-33,-22,153,-132,4,-97,-86
42,-14,-57,-14,50,-35,-6,177,-114,34,-83,-80
23,-2,-25,-10,24,-14,-20,153,-99,24,-74,-75
18,14,-4,-16,11,5,-33,146,-92,22,-68,-72
9,-7,-16,-1,13,-11,-38,136,-95,21,-61,-68
-14,-17,-2,16,-6,-9,-33,161,-95,47,-54,-65
37,13,-24,-25,30,-5,-31,166,-95,50,-48,-61
4,5,0,-5,2,3,-28,158,-95,45,-42,-58
-13,-39,-26,26,7,-32,-25,158,-95,43,-51,-68
49,25,-24,-37,36,0,-26,151,-100,40,-57,-53
45,66,20,-55,12,43,-30,150,-103,62,-50,-40
65,25,-40,-45,52,-8,-35,143,-106,58,-50,-56
53,13,-40,-32,46,-13,-31,136,-112,36,-44,-50
45,16,-29,-30,37,-6,-25,129,-116,32,-46,-48
60,42,-19,-51,39,11,-19,121,-114,28,-44,-41
26,-11,-37,-7,31,-24,-15,114,-117,26,-46,-41
-24,-86,-62,55,19,-74,-41,107,-150,23,-71,-71
-33,-20,14,27,-23,-3,-58,99,-140,18,-77,-77
31,13,-18,-22,24,-3,-53,93,-126,29,-74,-74
32,-30,-62,-1,48,-46,-58,85,-155,28,-76,-76
-9,-38,-29,23,11,-33,-60,77,-155,16,-75,-74
-7,-38,-31,23,12,-34,-60,71,-149,0,-74,-75
-24,-34,-10,29,-7,-22,-57,65,-150,4,-70,-75
26,-5,-31,-11,29,-18,-52,66,-144,40,-68,-75
39,6,-33,-22,36,-13,-50,64,-145,40,-65,-75
-18,-27,-8,23,-5,-17,-45,59,-169,35,-61,-75
32,-8,-39,-12,35,-23,-42,61,-174,34,-60,-75
34,2,-32,-18,33,-15,-38,56,-162,26,-56,-71
16,-12,-28,-2,22,-20,-35,56,-159,28,-47,-59
28,15,-13,-21,20,1,-36,51,-150,19,-42,-51
23,25,2,-24,10,13,-31,66,-147,55,-34,-38
45,24,-20,-35,32,2,-32,77,-137,73,-20,-38
93,83,-11,-88,52,36,-26,76,-132,75,5,-15
161,129,-31,-145,96,49,-46,91,-136,109,33,31
184,122,-61,-153,122,30,-89,63,-134,93,33,30
160,110,-49,-135,105,30,-84,30,-136,76,22,15
123,85,-38,-104,80,23,-73,19,-132,72,21,7
88,69,-20,-79,54,24,-68,1,-152,60,-2,-13
56,2,-54,-28,55,-26,-38,-3,-169,46,-34,-42
-22,-86,-64,54,22,-75,-23,14,-172,29,-46,-55
-38,-96,-58,67,10,-76,-53,-4,-203,19,-68,-70
-7,-94,-87,51,40,-90,-56,-20,-217,20,-79,-85
-45,-90,-45,68,0,-67,-31,-44,-210,13,-66,-71
-36,-87,-50,62,7,-68,-40,-47,-202,14,-63,-66
-46,-89,-44,68,-1,-66,-59,-53,-228,6,-93,-93
-8,-36,-28,23,10,-31,-54,-67,-229,-2,-91,-99
-24,-29,-6,27,-9,-17,0,-37,-205,29,-67,-82
-160,-49,111,104,-135,31,65,-78,-193,56,-69,-90
-33,28,61,2,-47,44,203,240,58,263,106,20
751,467,-283,-609,517,92,-58,808,679,849,713,529
1869,1059,-810,-1463,1339,124,-847,1393,1334,1458,1432,1189
1682,905,-777,-1293,1229,63,-997,1377,1088,1129,1164,1040
521,333,-188,-427,354,72,-482,337,130,254,257,295
54,26,-28,-40,41,-1,-168,-156,-278,-55,-92,-39
32,-33,-66,1,49,-49,-64,-51,-234,-58,-123,-74
-41,-29,12,35,-26,-8,-18,-61,-246,-55,-129,-99
-93,-92,1,92,-47,-45,-16,-34,-257,-43,-125,-104
-39,-57,-18,48,-10,-38,-15,-52,-253,-37,-133,-94
-63,-83,-20,73,-22,-51,0,-42,-279,-60,-136,-119
-153,-138,15,146,-83,-61,17,-45,-288,-78,-147,-141
-140,-119,20,129,-80,-49,26,-47,-278,-64,-138,-132
-122,-134,-12,128,-55,-73,25,-33,-272,-62,-134,-134
-84,-132,-48,108,-18,-90,25,-38,-270,-56,-133,-129
-19,-83,-64,51,23,-74,25,-22,-301,-85,-162,-129
-62,-93,-31,77,-15,-62,25,-26,-307,-93,-168,-128
-130,-133,-2,132,-64,-67,27,-13,-298,-87,-149,-120
-145,-110,35,128,-90,-37,31,-26,-301,-92,-164,-138
-141,-138,3,139,-72,-67,29,-65,-293,-88,-190,-166
-127,-150,-23,139,-52,-86,30,-27,-296,-90,-190,-162
-131,-134,-3,132,-64,-68,31,-52,-288,-84,-184,-158
-95,-131,-35,113,-30,-83,26,0,-291,-81,-184,-156
-138,-119,19,128,-78,-50,44,-34,-312,-106,-179,-150
-154,-113,40,133,-97,-36,-27,24,-302,-100,-182,-151
-52,-105,-54,79,1,-79,-99,-15,-332,-80,-207,-172
-24,-99,-74,61,25,-86,-99,-144,-366,-94,-219,-184
