I,II,III,aVR,aVL,aVF,V1,V2,V3,V4,V5,V6
3,214,211,-108,-104,212,-28,-52,-79,-56,-66,-50
10,212,202,-112,-96,207,-27,-53,-76,-56,-67,-46
21,230,209,-126,-94,220,-30,-44,-64,-42,-59,-30
8,209,201,-109,-97,205,-10,-12,-66,-56,-75,-54
74,186,112,-130,-20,149,-2,71,59,43,0,-34
273,140,-133,-206,203,3,158,594,656,365,226,116
684,189,-495,-437,589,-152,169,1096,1209,578,460,320
811,358,-453,-584,632,-47,-335,355,459,135,270,304
371,193,-178,-282,274,8,-618,-867,-849,-627,-299,-55
-4,64,68,-30,-36,65,-457,-930,-950,-675,-419,-207
-120,130,250,-5,-185,190,-307,-550,-573,-390,-263,-139
-110,123,233,-7,-172,178,-198,-358,-391,-263,-195,-127
-43,163,206,-60,-125,184,-97,-140,-187,-138,-116,-85
-17,196,213,-89,-116,204,-47,-72,-127,-87,-79,-56
-20,193,213,-87,-117,203,-28,-34,-87,-63,-55,-42
-19,201,220,-91,-120,210,-19,-21,-68,-57,-54,-41
2,220,218,-111,-108,219,-12,-15,-60,-53,-52,-38
7,220,213,-114,-103,216,-4,1,-50,-48,-47,-33
13,219,205,-116,-96,212,3,4,-48,-45,-46,-31
30,229,199,-130,-85,214,5,17,-37,-39,-43,-26
38,230,192,-134,-77,211,5,21,-34,-35,-40,-25
43,229,186,-136,-71,207,9,32,-22,-28,-33,-25
38,226,189,-132,-76,207,10,37,-15,-24,-30,-20
34,223,189,-129,-78,206,10,44,-6,-17,-25,-20
44,227,183,-136,-70,205,14,60,6,-13,-21,-19
52,231,179,-142,-64,205,17,79,19,-7,-15,-11
64,239,175,-152,-56,207,20,94,36,2,-5,-3
91,261,170,-176,-40,215,23,111,55,10,5,5
101,267,165,-184,-33,216,25,136,81,19,15,12
102,263,161,-183,-30,212,27,169,109,31,25,22
108,268,160,-188,-26,213,31,201,137,47,35,37
110,270,160,-190,-25,215,36,218,157,55,46,49
127,287,160,-207,-17,223,39,228,156,55,47,50
141,301,160,-221,-9,231,42,226,149,55,45,50
138,296,158,-217,-11,227,45,206,143,55,45,50
139,293,155,-217,-9,224,48,195,136,55,40,50
135,289,154,-213,-10,221,51,187,129,55,40,50
130,286,156,-208,-14,221,47,181,117,55,39,47
129,282,153,-206,-12,217,39,173,106,49,32,41
110,274,164,-192,-27,218,31,142,88,44,26,37
87,266,179,-176,-47,222,23,100,62,39,19,32
63,258,195,-160,-66,226,16,61,32,33,12,28
35,250,215,-143,-90,232,10,26,4,27,6,23
30,245,215,-138,-93,230,5,6,-18,23,5,20
25,240,215,-133,-95,227,1,5,-30,18,5,17
20,235,215,-128,-98,225,-4,5,-38,15,5,15
17,232,215,-125,-99,223,-8,0,-44,12,5,12
13,225,213,-119,-100,219,-15,0,-41,7,5,9
20,227,207,-124,-94,217,-26,1,-35,5,6,14
28,230,202,-129,-87,216,-25,6,-29,11,11,20
31,230,199,-131,-84,214,-25,9,-24,16,14,25
36,229,193,-133,-79,211,-22,12,-19,21,17,32
42,232,190,-137,-74,211,-19,17,-15,27,22,34
38,244,207,-141,-85,225,-21,20,-16,33,25,30
30,242,212,-136,-92,227,-24,16,-12,33,21,28
26,235,209,-130,-92,222,-25,7,-10,29,20,25
24,234,210,-129,-93,221,-26,2,-10,27,20,21
20,226,206,-123,-93,216,-31,-8,-14,24,15,20
24,227,204,-126,-90,215,-30,-14,-25,21,15,17
21,231,210,-126,-95,220,-28,-21,-35,19,14,15
9,230,221,-119,-106,225,-34,-34,-44,16,9,15
11,230,218,-121,-104,224,-35,-36,-45,13,4,15
10,225,215,-118,-103,220,-35,-43,-45,11,0,15
13,226,213,-120,-100,219,-34,-44,-45,7,-5,15
13,223,209,-118,-98,215,-38,-49,-45,5,-10,15
25,233,208,-129,-92,220,-46,-65,-62,3,-6,15
42,246,204,-144,-81,225,-45,-65,-71,-1,0,15
26,228,202,-127,-88,215,-44,-65,-69,0,6,15
24,222,199,-123,-88,210,-41,-65,-70,-4,9,15
30,225,195,-128,-83,210,-39,-65,-70,-5,5,11
29,224,195,-127,-84,210,-44,-63,-70,-5,5,9
35,229,194,-133,-79,211,-51,-59,-67,-9,5,10
27,230,203,-129,-88,216,-50,-61,-63,-12,5,10
18,230,212,-124,-97,221,-45,-56,-59,-15,5,11
17,224,207,-121,-95,215,-44,-55,-56,-17,2,8
13,218,205,-116,-96,211,-39,-56,-50,-21,-1,5
13,214,201,-114,-95,208,-42,-60,-54,-18,-4,5
8,207,199,-107,-96,203,-55,-65,-70,-14,-7,5
6,203,197,-105,-96,199,-55,-65,-70,-16,-10,5
8,200,192,-104,-92,196,-50,-66,-71,-11,-10,5
24,213,189,-118,-83,200,-49,-70,-75,-10,-10,9
46,233,187,-140,-70,209,-45,-70,-75,-10,-10,10
53,232,179,-142,-64,206,-44,-68,-73,-5,-10,10
37,222,185,-129,-74,203,-52,-64,-69,-5,-10,10
25,221,196,-124,-86,208,-55,-62,-67,-4,-10,10
16,210,194,-113,-90,202,-47,-59,-64,0,-6,11
11,207,196,-110,-93,201,-41,-56,-61,-1,1,16
33,226,193,-130,-80,209,-35,-55,-60,2,8,22
19,230,211,-125,-96,221,-26,-50,-55,11,14,25
15,243,228,-130,-107,235,-27,-50,-46,19,21,30
41,261,221,-151,-90,241,-30,-48,-47,28,29,34
43,261,218,-152,-88,239,-41,-45,-50,34,25,40
54,270,216,-163,-82,243,-67,-44,-51,28,37,48
71,274,203,-173,-67,239,-85,-49,-55,18,40,41
66,250,183,-158,-59,216,-101,-63,-56,11,25,33
49,229,179,-139,-65,204,-102,-68,-60,2,16,25
37,216,180,-127,-71,198,-93,-81,-69,-6,5,16
26,207,181,-117,-78,194,-83,-80,-72,-11,0,13
21,199,178,-110,-79,188,-72,-81,-72,-22,-9,5
25,208,183,-116,-79,195,-71,-78,-68,-25,-12,7
32,206,173,-119,-71,189,-67,-75,-72,-37,-22,-3
19,196,177,-108,-79,186,-71,-76,-69,-27,-12,0
3,172,169,-87,-83,170,-58,-70,-70,-33,-17,-8
12,181,169,-96,-79,175,-74,-71,-70,-25,-10,-3
-19,175,194,-78,-107,185,-28,-50,-58,-23,-7,-3
-1,140,141,-69,-71,140,14,-38,-45,-23,-30,-30
137,132,-5,-135,71,63,56,284,329,193,123,66
503,103,-401,-303,452,-149,200,950,1027,457,338,226
871,251,-620,-561,745,-184,-126,782,873,309,343,313
602,206,-396,-403,498,-95,-631,-530,-449,-398,-120,60
79,-35,-115,-22,97,-75,-606,-1146,-1101,-761,-462,-209
-143,8,151,68,-147,79,-405,-743,-710,-471,-300,-156
-163,63,226,50,-194,144,-264,-462,-439,-266,-191,-121
-80,96,175,-8,-128,135,-136,-233,-238,-157,-115,-81
-38,144,182,-53,-111,163,-67,-102,-115,-81,-58,-42
-38,141,179,-52,-109,159,-35,-71,-83,-52,-45,-39
-30,150,180,-60,-106,165,-22,-35,-42,-33,-26,-26
-18,162,180,-72,-100,171,-12,-38,-44,-36,-28,-25
-11,167,178,-78,-95,172,-5,-19,-29,-25,-15,-14
-12,163,175,-76,-94,169,-4,-15,-28,-23,-12,-11
-14,161,175,-74,-94,167,0,-2,-18,-16,-5,-5
-14,159,173,-73,-93,166,3,5,-12,-11,-5,-5
-8,161,169,-76,-89,165,5,13,-6,-10,-5,-5
4,175,171,-90,-83,172,7,23,1,-9,-4,-4
14,180,166,-97,-76,173,14,28,9,-6,-5,-6
21,180,159,-101,-69,169,19,36,25,-4,-5,-2
32,185,153,-109,-61,168,23,46,38,-5,-2,4
39,184,146,-112,-54,165,31,65,49,4,13,11
59,199,140,-130,-40,169,34,93,81,11,27,17
79,212,133,-146,-27,172,31,115,102,17,24,24
79,209,130,-144,-26,169,30,143,123,31,32,31
80,210,130,-145,-25,170,30,171,151,35,47,38
96,224,127,-160,-16,175,31,193,168,43,53,47
108,232,124,-170,-8,178,28,210,183,54,62,55
119,244,125,-182,-3,184,42,206,179,64,61,61
130,259,128,-194,1,193,57,199,176,71,60,61
122,253,130,-188,-4,191,57,193,174,63,59,54
116,246,130,-181,-7,187,61,185,170,60,54,51
109,239,130,-174,-11,184,56,180,169,55,56,47
101,231,130,-166,-15,180,50,173,155,50,53,40
93,224,131,-159,-19,177,45,160,142,46,47,49
81,217,137,-149,-28,176,39,129,123,39,43,53
58,207,149,-133,-46,178,34,93,92,36,38,43
40,199,159,-120,-60,179,28,55,65,29,34,37
30,190,160,-110,-65,174,25,29,42,24,29,29
20,181,160,-101,-70,170,22,23,26,19,26,22
10,175,165,-93,-78,170,20,16,12,15,23,16
7,172,165,-90,-79,168,16,8,15,15,20,15
2,169,166,-86,-82,167,15,0,18,15,18,15
-6,164,170,-79,-89,166,12,-4,21,15,14,15
-8,162,170,-77,-89,166,10,1,26,14,18,15
-13,157,170,-72,-91,163,10,6,19,21,27,16
5,175,170,-90,-83,173,5,10,31,35,37,21
27,196,170,-111,-72,183,5,15,42,40,40,24
21,188,167,-105,-73,177,4,20,39,40,40,27
20,183,164,-102,-72,173,-1,16,38,40,40,32
18,179,161,-98,-72,170,1,9,34,40,40,35
12,170,158,-91,-73,164,-3,5,35,40,40,32
19,174,155,-97,-68,165,-6,-1,31,37,38,29
27,181,154,-104,-63,167,-5,-6,24,32,34,26
20,169,149,-95,-65,159,-9,-11,18,29,35,23
12,157,146,-85,-67,151,-10,-17,11,26,31,20
5,148,143,-77,-69,145,-10,-23,4,21,30,20
6,144,138,-75,-67,141,-14,-28,-2,20,30,20
11,145,134,-78,-62,140,-16,-34,-6,20,25,20
2,142,140,-72,-69,141,-13,-39,-12,20,25,20
-9,139,148,-65,-79,143,-10,-40,-15,20,24,20
-2,142,144,-70,-73,143,-10,-40,-20,20,20,20
8,149,141,-78,-67,144,-10,-40,-25,20,21,17
5,143,138,-74,-67,140,-10,-40,-21,20,17,12
2,135,133,-69,-66,134,-10,-40,-20,20,15,9
-1,129,130,-64,-66,130,-14,-40,-20,20,15,6
-1,125,126,-62,-64,125,-24,-40,-20,20,15,1
3,123,119,-63,-58,121,-29,-40,-20,20,15,1
8,119,112,-64,-52,115,-24,-40,-20,18,16,10
10,117,107,-64,-49,112,-21,-40,-20,15,19,18
17,115,98,-66,-41,106,-18,-40,-20,12,21,27
13,111,98,-63,-43,104,-13,-36,-20,10,19,27
-2,104,106,-51,-54,105,-10,-31,-20,6,23,24
-1,98,99,-48,-50,98,-7,-26,-20,5,27,26
-2,91,92,-45,-47,91,-4,-24,-17,8,32,24
-2,84,86,-41,-44,85,-1,-15,-14,13,35,26
0,79,79,-39,-40,79,2,-20,-11,15,30,23
1,75,74,-38,-37,74,5,-35,-8,20,30,20
6,76,70,-41,-32,72,5,-30,-5,23,30,20
2,72,70,-37,-34,71,5,-24,-4,27,30,17
0,70,70,-35,-35,70,5,-20,0,30,29,15
-1,69,70,-34,-36,70,5,-12,0,31,34,14
6,75,69,-40,-32,72,9,-12,2,34,48,29
7,84,77,-46,-35,80,16,-15,5,35,50,42
-6,87,94,-41,-51,90,22,-12,4,39,54,40
10,107,97,-59,-44,102,30,-9,10,51,55,39
29,120,91,-75,-31,105,33,-10,20,56,63,46
33,121,88,-78,-28,105,19,-9,31,58,72,52
45,128,82,-87,-19,105,-4,-10,32,72,78,54
57,120,63,-89,-3,91,-18,-10,24,73,87,55
62,106,44,-85,9,75,-36,-21,18,55,78,52
50,88,39,-69,5,63,-47,-24,11,47,66,49
37,66,29,-52,3,48,-37,-29,4,38,54,45
27,51,24,-39,1,38,-19,-36,-3,34,49,45
6,21,14,-14,-4,17,4,-33,-17,24,40,39
1,11,10,-6,-5,11,10,-29,-9,21,40,36
-3,1,4,0,-4,3,21,-25,-6,14,29,29
-3,0,3,1,-3,2,19,-23,0,21,27,28
-11,-7,4,9,-8,-1,33,-16,9,21,25,21
-7,-16,-9,12,1,-12,30,-17,6,15,22,16
-42,-8,34,24,-37,13,44,6,26,42,48,13
-72,-60,12,66,-42,-24,101,11,18,28,21,-9
79,-66,-145,-6,112,-105,136,251,303,177,136,74
428,-111,-539,-158,484,-325,274,905,978,429,314,215
825,-17,-842,-404,834,-429,52,949,1018,358,336,316
676,25,-651,-350,663,-313,-482,-268,-176,-240,-3,124
142,-195,-337,27,240,-266,-544,-1078,-999,-666,-375,-167
-135,-203,-68,170,-33,-135,-327,-748,-691,-445,-268,-152
-209,-164,45,187,-127,-59,-196,-433,-389,-228,-137,-98
-137,-143,-7,140,-65,-75,-64,-213,-193,-111,-74,-46
-76,-91,-15,84,-30,-53,27,-45,-37,-14,-3,5
-59,-81,-22,70,-18,-51,51,-8,-2,11,15,14
-40,-71,-31,56,-4,-51,70,47,34,35,40,23
-41,-78,-36,59,-2,-57,72,56,33,32,37,19
-23,-69,-46,46,11,-57,90,65,52,39,41,27
-22,-70,-48,46,13,-59,103,64,59,40,42,24
-19,-71,-52,45,17,-62,98,70,64,43,45,28
-22,-76,-54,50,16,-65,101,70,73,47,45,32
-24,-81,-58,53,17,-69,100,74,72,48,48,33
-21,-84,-62,53,21,-73,99,95,89,53,52,37
-31,-98,-67,65,18,-82,105,98,108,54,55,39
-30,-101,-70,65,20,-85,121,113,108,57,58,42
-25,-100,-75,63,25,-87,120,134,122,62,62,45
-5,-100,-96,53,46,-98,120,146,141,69,66,44
17,-100,-117,42,67,-108,120,167,159,75,74,48
13,-100,-112,44,63,-106,120,197,183,77,84,60
27,-93,-120,33,74,-106,120,222,203,89,89,69
51,-82,-133,16,92,-107,120,253,233,96,96,75
64,-73,-137,5,101,-105,130,283,256,108,108,85
92,-69,-161,-11,127,-115,137,299,269,127,118,98
99,-67,-166,-16,133,-117,137,305,268,126,115,97
100,-64,-164,-18,133,-114,152,299,262,124,115,94
110,-61,-170,-25,140,-115,166,294,259,121,115,96
109,-60,-170,-25,140,-115,165,291,253,118,115,94
105,-64,-169,-21,138,-116,170,282,250,116,115,96
94,-67,-160,-13,127,-113,170,269,239,113,111,94
87,-62,-149,-12,119,-106,166,254,225,110,106,88
69,-75,-145,3,108,-110,161,225,211,105,102,83
59,-86,-145,14,102,-115,156,190,195,103,97,77
46,-99,-145,27,96,-122,153,159,165,98,93,71
35,-110,-145,38,90,-127,147,126,133,95,88,66
36,-109,-145,37,90,-127,143,106,123,91,84,62
-9,-152,-144,81,68,-148,140,105,117,87,78,59
-28,-167,-139,97,56,-153,138,105,119,84,74,56
-19,-152,-133,86,57,-142,135,100,121,81,70,53
-24,-154,-130,89,53,-142,131,100,119,76,64,50
-18,-142,-124,80,53,-133,130,100,120,76,72,50
-21,-143,-122,82,51,-132,126,100,120,89,81,50
-25,-143,-119,84,47,-131,125,108,118,95,79,50
-18,-145,-127,82,55,-136,124,111,114,95,80,50
-1,-146,-145,74,72,-146,121,109,115,95,80,50
11,-135,-145,63,78,-140,118,110,115,95,84,50
-17,-161,-144,90,64,-152,127,110,115,95,84,50
-33,-179,-146,106,57,-163,140,110,115,95,79,50
-30,-173,-143,102,57,-158,133,106,109,91,80,50
-28,-176,-148,102,61,-162,128,101,104,89,80,50
-14,-174,-160,94,73,-167,122,96,99,90,80,50
-15,-175,-160,95,73,-167,119,92,93,90,80,50
-10,-170,-160,90,75,-165,120,87,87,90,77,50
-11,-170,-160,90,74,-165,120,84,85,89,74,50
-8,-169,-161,88,76,-165,120,78,85,84,71,50
-24,-180,-157,102,67,-168,120,72,85,86,68,50
-43,-193,-149,118,53,-171,120,67,85,82,65,50
-44,-186,-142,115,49,-163,115,61,85,80,65,50
-48,-185,-137,117,45,-161,110,56,84,80,65,50
-19,-181,-162,100,72,-171,105,51,80,77,65,50
-2,-180,-178,91,88,-178,102,50,77,72,65,50
-11,-183,-172,98,81,-178,94,49,73,69,65,50
-17,-187,-170,102,77,-179,100,46,70,66,65,48
-22,-191,-168,107,73,-179,116,43,63,59,61,45
-27,-189,-162,109,68,-175,112,50,71,66,60,45
-22,-196,-174,109,76,-185,108,61,86,80,60,45
-5,-201,-196,103,96,-198,106,60,81,74,60,45
-7,-199,-192,103,92,-195,98,58,78,68,60,45
-17,-204,-187,110,86,-195,105,55,75,64,61,49
-19,-205,-186,112,84,-195,116,55,70,54,68,50
-27,-205,-177,116,76,-191,111,55,70,66,74,50
-18,-205,-187,112,85,-196,108,55,70,80,72,54
0,-205,-204,103,103,-204,105,55,70,72,69,56
-7,-205,-198,107,96,-201,100,55,70,65,66,53
-14,-204,-190,109,88,-196,102,55,70,60,63,50
-27,-213,-186,120,80,-199,106,56,70,52,60,50
-44,-218,-174,131,66,-196,109,59,74,52,61,47
-24,-207,-183,116,80,-195,112,62,77,60,66,45
-13,-205,-191,109,89,-198,116,63,81,63,70,44
-10,-185,-175,98,83,-180,113,73,83,76,74,52
7,-154,-162,74,85,-158,122,81,88,94,80,64
-1,-149,-148,75,73,-148,123,80,95,99,90,70
2,-150,-151,74,77,-150,117,78,97,96,92,78
10,-150,-161,70,86,-156,102,74,93,87,87,74
11,-149,-159,69,85,-154,76,76,87,81,85,68
28,-152,-179,62,104,-165,75,70,81,73,80,65
51,-151,-202,50,127,-176,78,60,77,66,77,60
39,-171,-211,66,125,-191,82,50,71,58,73,55
-6,-208,-202,108,98,-205,84,44,64,55,69,51
-21,-221,-199,121,89,-210,90,47,57,50,61,44
-32,-228,-196,131,82,-212,95,41,51,48,58,37
-44,-230,-186,137,71,-208,110,41,44,44,51,32
-26,-231,-205,129,89,-218,110,38,39,38,45,23
-22,-224,-202,124,90,-213,111,45,50,47,51,22
-28,-230,-201,129,87,-215,120,50,54,46,45,27
-41,-216,-175,129,67,-195,103,56,74,65,58,36
-56,-252,-197,154,71,-224,161,88,83,57,35,23
-4,-325,-321,165,159,-323,175,205,228,139,89,45
260,-361,-621,51,441,-491,272,735,834,419,303,181
700,-261,-961,-220,831,-611,272,1191,1327,605,524,393
758,-93,-851,-332,804,-472,-169,378,502,163,319,348
277,-231,-508,-23,392,-369,-401,-775,-724,-498,-199,2
-103,-372,-269,238,83,-320,-244,-772,-754,-503,-287,-130
-170,-361,-190,265,11,-275,-132,-431,-418,-290,-174,-89
-144,-350,-206,247,32,-278,-50,-251,-250,-174,-118,-66
-93,-293,-200,193,54,-246,55,-42,-53,-58,-37,-23
-69,-278,-209,174,70,-243,98,28,11,-10,-2,-1
-56,-265,-209,161,77,-237,117,75,62,18,24,13
-46,-255,-209,151,82,-232,132,86,76,23,28,12
-51,-255,-204,154,77,-230,133,94,78,45,40,17
-52,-250,-198,151,73,-224,139,108,84,51,40,20
-54,-249,-195,152,71,-222,142,113,91,49,39,20
-55,-244,-190,150,68,-217,145,130,106,51,41,20
-59,-244,-185,152,63,-214,145,128,105,49,39,19
-48,-237,-189,143,71,-213,148,137,112,51,42,21
-33,-232,-199,133,83,-216,151,137,111,45,44,18
-26,-228,-201,127,88,-214,149,143,122,46,48,26
-16,-221,-205,119,95,-212,146,158,140,38,49,44
-8,-216,-208,112,100,-212,144,176,152,47,55,50
1,-211,-211,105,106,-211,145,204,166,80,62,45
13,-204,-217,96,115,-210,145,229,190,95,77,57
23,-197,-220,87,122,-209,145,252,214,92,87,65
34,-191,-224,78,129,-207,147,267,237,106,96,76
52,-184,-236,66,144,-210,151,297,270,130,115,102
68,-178,-246,56,157,-212,155,321,287,131,118,99
69,-175,-243,53,156,-209,171,315,299,128,122,102
65,-175,-240,55,153,-207,181,310,297,135,129,112
63,-175,-237,56,150,-206,180,305,280,144,125,110
60,-175,-235,58,148,-205,180,299,270,138,122,105
58,-174,-233,58,146,-203,180,294,260,130,118,100
53,-175,-228,61,141,-201,180,287,250,124,114,97
50,-174,-225,62,138,-199,177,269,239,115,111,90
38,-176,-214,69,127,-195,174,242,224,110,107,94
9,-190,-199,90,104,-194,171,213,196,101,98,94
-2,-190,-188,96,93,-188,168,174,163,93,89,82
-16,-200,-184,109,84,-192,165,149,136,85,81,73
-43,-221,-178,132,67,-199,164,142,122,77,70,69
-35,-225,-190,130,78,-207,159,134,119,78,66,70
-18,-225,-207,122,95,-216,153,125,116,80,63,66
-23,-224,-201,124,89,-212,150,122,113,80,60,65
-28,-226,-198,127,86,-211,145,124,110,80,59,65
-28,-223,-195,126,84,-209,140,128,111,79,52,65
-42,-230,-189,136,74,-209,136,130,116,81,69,65
-47,-241,-194,144,74,-217,135,134,121,85,87,65
-35,-240,-205,138,85,-222,135,135,124,89,84,65
-37,-239,-202,138,83,-220,135,132,122,93,88,65
-37,-235,-197,136,80,-216,135,127,119,98,90,65
-39,-235,-196,138,79,-215,134,124,116,99,90,65
-45,-233,-188,139,72,-210,130,120,113,95,87,65
-32,-229,-197,131,82,-213,128,116,110,93,81,65
-22,-230,-208,126,93,-219,125,113,109,90,77,65
-33,-230,-197,132,82,-213,122,106,103,87,72,65
-35,-230,-194,133,80,-212,120,99,97,84,68,60
-35,-230,-195,133,80,-212,117,92,92,82,63,60
-43,-234,-191,139,74,-212,112,84,86,79,60,59
-46,-235,-190,140,73,-212,109,78,81,76,60,55
-44,-235,-190,140,73,-212,106,71,76,73,57,54
-40,-235,-194,138,78,-215,100,70,75,70,55,58
-40,-235,-195,138,78,-215,105,70,75,68,55,60
-38,-232,-195,136,79,-213,116,65,75,65,59,60
-35,-229,-195,133,80,-212,111,65,75,60,63,63
-35,-230,-195,133,80,-212,108,65,74,58,68,66
-37,-230,-192,134,78,-211,105,65,69,53,69,64
-40,-230,-189,135,75,-210,100,65,63,49,65,60
-40,-230,-190,135,75,-210,98,65,60,55,65,60
-45,-234,-190,139,73,-212,94,65,55,57,65,59
-45,-235,-190,140,73,-212,95,65,50,54,65,55
-45,-235,-190,140,73,-212,91,61,50,55,65,54
-45,-235,-190,140,73,-212,89,60,50,50,65,58
-44,-234,-190,139,73,-212,91,60,50,49,65,60
-48,-237,-190,143,71,-213,88,55,50,52,65,61
-50,-240,-190,145,70,-215,99,55,50,55,65,65
-49,-240,-190,145,70,-215,106,54,48,57,65,65
-52,-240,-187,146,68,-213,100,50,45,60,66,70
-56,-240,-184,148,64,-212,98,50,45,63,70,70
-54,-239,-185,147,65,-212,93,50,43,66,70,71
-51,-235,-185,143,67,-210,90,50,40,65,70,75
-46,-231,-185,139,70,-208,93,50,40,65,70,75
-44,-229,-184,137,70,-206,96,54,44,66,70,77
-45,-224,-179,135,68,-201,94,55,45,63,73,81
-48,-221,-173,135,63,-197,95,55,48,61,76,84
-49,-217,-168,133,60,-192,95,54,49,53,79,87
-47,-208,-161,128,58,-184,96,58,53,66,81,91
-27,-187,-160,107,66,-173,110,67,61,84,90,88
-13,-173,-160,93,74,-166,105,61,60,90,99,102
-19,-175,-156,98,69,-165,96,57,60,97,103,116
-19,-175,-155,98,69,-165,76,53,60,89,104,117
-25,-178,-153,102,64,-165,45,48,60,82,97,121
-11,-181,-170,96,79,-175,39,43,58,75,92,116
11,-179,-189,84,100,-184,41,41,48,67,88,109
3,-188,-191,93,97,-189,39,37,34,60,80,102
-11,-199,-188,105,89,-194,44,35,27,56,78,97
-27,-215,-188,122,81,-201,74,32,23,50,72,87
-46,-230,-183,138,69,-206,84,29,22,50,78,88
-46,-232,-185,139,70,-208,88,35,18,43,72,89
-43,-229,-186,137,71,-207,81,34,15,41,77,91
-48,-229,-181,139,66,-204,89,44,17,44,75,89
-40,-233,-193,137,77,-213,81,38,29,55,74,89
-61,-223,-162,142,51,-192,90,54,48,75,87,94
-77,-258,-181,168,52,-219,153,75,50,65,54,75
25,-300,-325,138,175,-312,179,288,327,239,181,133
378,-299,-677,-39,528,-488,320,943,1062,576,443,313
720,-207,-928,-256,824,-567,128,1086,1241,598,549,496
587,-161,-748,-213,668,-454,-389,-64,36,-72,160,309
146,-319,-465,87,306,-392,-450,-939,-915,-629,-301,-29
-139,-362,-223,251,42,-292,-259,-688,-677,-451,-249,-74
-166,-304,-138,235,-14,-220,-142,-390,-383,-234,-128,-50
-132,-292,-160,213,14,-226,-33,-190,-195,-111,-59,-12
-95,-254,-159,175,32,-206,55,-18,-38,-10,10,39
-56,-230,-174,143,59,-202,101,26,6,33,39,64
-52,-220,-168,136,58,-194,108,68,42,61,60,73
-49,-217,-168,133,60,-192,113,84,35,51,54,71
-46,-211,-165,129,60,-187,114,93,53,57,63,76
-40,-204,-164,123,63,-184,110,94,66,54,62,69
-38,-200,-162,119,62,-181,110,98,64,55,66,70
-36,-195,-159,115,62,-176,110,102,65,58,68,70
-31,-192,-161,111,65,-176,110,107,74,60,71,70
-29,-188,-159,109,65,-174,109,105,86,65,74,70
-24,-184,-160,104,68,-172,119,115,90,67,76,73
-21,-181,-159,101,69,-170,126,120,97,71,80,74
-24,-177,-153,101,65,-165,124,133,116,77,82,83
-5,-171,-166,88,81,-168,126,161,136,87,84,96
24,-164,-188,70,106,-175,125,176,150,94,92,99
33,-158,-191,62,112,-174,125,199,174,102,104,110
39,-150,-189,56,114,-169,129,225,200,115,109,121
45,-146,-190,50,118,-168,136,254,224,124,115,124
70,-133,-203,32,137,-168,140,279,250,133,130,135
88,-113,-201,13,145,-157,128,294,255,141,137,141
85,-109,-194,13,139,-151,136,291,245,148,131,139
80,-110,-190,15,135,-150,156,281,239,149,129,140
76,-106,-182,16,129,-144,154,277,231,140,124,140
76,-104,-180,14,129,-142,151,268,224,134,120,140
58,-106,-164,24,112,-135,148,258,217,127,118,137
66,-108,-174,22,120,-141,145,242,208,121,113,132
73,-113,-187,20,130,-150,144,224,202,117,110,129
44,-114,-158,35,102,-136,139,191,180,111,106,125
28,-117,-145,44,87,-131,141,150,152,107,102,121
14,-124,-138,56,77,-131,129,119,132,102,99,119
4,-127,-131,61,68,-128,107,97,108,98,95,114
-7,-135,-128,71,61,-131,97,82,89,93,90,108
-12,-136,-124,74,57,-130,91,62,83,90,85,105
-10,-131,-121,70,55,-125,84,54,80,90,82,100
-13,-130,-117,72,52,-123,77,56,77,90,76,95
-12,-125,-113,69,51,-119,71,52,72,90,77,91
-15,-125,-110,70,48,-117,78,50,70,89,82,90
-21,-131,-109,76,44,-120,82,49,78,94,87,90
-23,-129,-105,77,41,-117,77,57,81,94,90,90
-20,-124,-105,72,43,-115,75,62,79,89,90,90
-21,-122,-101,72,40,-111,71,58,81,91,90,91
-22,-117,-95,70,37,-106,70,56,78,89,90,97
-25,-115,-90,71,33,-102,73,52,83,99,92,104
-35,-120,-85,77,25,-102,69,50,98,105,90,102
-42,-120,-78,81,18,-99,66,48,93,97,85,96
-44,-120,-76,82,16,-97,62,43,83,90,80,91
-31,-120,-89,76,29,-105,59,40,78,85,77,88
-30,-120,-90,75,30,-105,54,37,70,76,70,82
-35,-120,-85,78,25,-102,56,32,64,79,74,82
-36,-120,-84,78,24,-101,68,29,57,95,90,86
-40,-120,-80,80,20,-100,66,25,51,90,85,80
-41,-120,-79,80,19,-99,59,17,47,82,77,75
-46,-120,-74,84,14,-97,55,11,42,76,71,70
-49,-120,-71,84,11,-95,48,4,39,69,64,62
-48,-115,-67,82,10,-91,44,-2,35,64,58,63
-48,-111,-64,80,8,-88,40,-8,32,60,55,65
-50,-108,-59,79,5,-84,38,-10,28,60,52,65
-42,-104,-62,73,10,-83,35,-10,25,57,50,63
-26,-101,-74,64,24,-87,31,-14,25,54,46,60
-22,-97,-76,60,27,-86,30,-15,23,55,44,60
-20,-95,-74,58,27,-84,33,-16,20,58,54,60
-21,-92,-71,56,25,-81,38,-19,20,60,56,60
-19,-89,-70,54,25,-79,40,-22,24,60,50,60
-17,-86,-69,51,27,-77,40,-25,25,60,48,60
-20,-85,-65,53,23,-75,40,-27,25,60,43,60
-28,-91,-63,60,18,-76,40,-31,29,59,39,59
-38,-98,-60,68,11,-78,40,-27,31,55,47,55
-41,-98,-57,70,8,-77,40,-25,28,55,56,55
-40,-94,-55,68,8,-74,40,-25,25,55,54,55
-37,-92,-55,65,9,-73,40,-21,25,55,55,55
-34,-89,-55,62,10,-71,40,-19,25,55,55,54
-31,-86,-55,59,13,-70,40,-21,25,51,55,58
-30,-84,-55,57,13,-70,40,-24,25,50,54,60
-25,-81,-55,53,15,-67,41,-27,25,50,50,55
-24,-78,-54,51,15,-65,45,-30,25,50,50,55
-28,-74,-45,51,9,-59,47,-32,24,50,50,55
-35,-71,-36,53,1,-54,50,-36,25,50,51,56
-36,-64,-28,50,-4,-46,53,-31,24,48,48,53
-8,-35,-27,21,10,-31,56,-14,27,62,62,60
13,-19,-32,3,23,-25,50,-15,36,84,72,75
12,-21,-32,5,22,-26,40,-22,32,88,69,76
19,-19,-38,1,29,-28,29,-25,26,81,70,73
18,-20,-38,1,28,-29,-1,-33,21,75,65,82
24,-19,-43,-2,33,-31,-28,-37,14,67,65,83
43,-23,-66,-10,55,-44,-36,-44,10,61,64,74
43,-29,-72,-7,58,-50,-24,-57,4,54,50,65
29,-39,-68,5,48,-53,-16,-64,-2,49,36,57
-19,-61,-42,41,12,-51,-4,-60,-5,43,27,51
-46,-68,-21,57,-12,-44,2,-60,-14,34,23,46
-43,-61,-18,52,-12,-39,7,-53,-16,32,28,42
-47,-70,-23,58,-11,-46,15,-55,-20,18,21,32
-43,-59,-16,51,-13,-37,14,-48,-12,27,30,33
-46,-70,-24,58,-11,-47,31,-49,-18,23,19,19
-30,-45,-15,37,-7,-30,17,-42,-14,44,20,17
-52,-44,9,48,-30,-17,68,-29,-13,37,0,-2
-61,-105,-44,83,-8,-75,80,6,42,58,16,7
143,-132,-275,-5,209,-203,164,458,554,323,212,137
593,-100,-694,-246,644,-397,236,1064,1186,542,413,314
844,46,-798,-445,821,-375,-224,562,683,234,313,331
437,-86,-523,-175,480,-304,-612,-761,-660,-498,-210,-1
-44,-272,-228,158,93,-250,-494,-1062,-994,-678,-420,-186
-168,-177,-9,172,-79,-92,-312,-629,-568,-354,-219,-117
-195,-155,40,175,-117,-57,-172,-395,-349,-196,-144,-95
-131,-119,11,125,-71,-54,-43,-163,-149,-80,-62,-30
-74,-71,3,72,-38,-34,12,-78,-63,-21,-18,-10
-69,-62,7,65,-38,-27,21,-45,-34,-11,-12,-8
-55,-45,10,50,-32,-17,29,-20,-13,-3,-7,4
-54,-42,12,48,-33,-15,42,-23,-13,1,-11,5
-51,-35,16,43,-33,-9,47,-5,1,11,-2,16
-46,-34,11,40,-28,-11,44,-6,1,14,-7,10
-27,-29,-2,28,-13,-15,46,7,13,21,0,11
-31,-26,6,28,-18,-10,45,11,15,19,1,9
-51,-23,27,37,-39,2,44,22,25,22,4,6
-48,-18,30,33,-39,6,40,29,33,25,7,5
-45,-15,30,30,-37,7,40,36,42,25,9,6
-45,-11,34,28,-39,10,40,43,49,27,11,11
-43,-7,35,24,-39,14,40,57,56,32,16,14
-40,-5,35,22,-37,15,40,81,68,37,20,20
-24,2,26,10,-25,14,44,96,85,40,25,28
-3,12,15,-5,-9,13,51,119,109,51,29,34
25,26,2,-26,11,14,56,154,137,62,39,40
45,43,-2,-44,24,20,63,188,169,78,60,56
56,56,0,-56,28,28,69,206,194,88,63,66
64,66,1,-65,31,33,74,205,203,84,60,64
63,68,5,-66,29,36,75,202,198,85,60,65
68,73,5,-71,31,39,75,199,194,85,60,65
64,75,11,-70,26,43,76,196,189,85,60,65
59,75,16,-67,21,45,75,195,185,85,60,61
53,75,22,-64,15,48,70,184,174,79,56,54
47,75,28,-61,9,51,66,159,150,72,50,48
44,75,31,-59,6,52,61,131,127,66,45,41
19,66,48,-42,-15,56,56,95,103,59,39,34
-3,53,56,-25,-30,55,52,60,80,53,34,28
-19,43,62,-12,-41,52,46,30,53,47,29,21
-33,36,69,-1,-52,52,39,2,33,41,23,14
-41,29,70,6,-56,49,33,-14,16,36,18,7
-47,23,70,12,-59,46,25,-15,7,31,12,-1
-54,16,70,19,-62,42,21,-15,11,24,6,-8
-60,10,70,25,-65,40,24,-15,10,21,1,-7
-53,17,70,18,-61,43,25,-15,14,24,3,-4
-46,25,72,10,-59,48,25,-15,15,25,6,-1
-42,33,74,4,-58,53,25,-10,15,29,5,2
-44,41,85,1,-64,62,25,-10,15,30,10,5
-44,48,91,-2,-68,69,23,-9,15,32,9,4
-39,50,89,-6,-64,70,18,-5,15,39,12,0
-41,50,90,-5,-65,70,15,-5,15,36,22,0
-40,50,90,-5,-65,70,12,-7,15,33,19,0
-46,50,96,-2,-71,73,7,-18,13,31,13,0
-50,50,100,0,-75,75,4,-26,7,27,10,0
-50,50,100,0,-75,75,1,-35,3,25,5,-3
-50,50,100,0,-75,75,-4,-45,-1,23,1,-6
-50,50,100,0,-75,75,-6,-50,-6,20,-4,-9
-50,50,100,0,-75,75,-11,-53,-10,17,-5,-12
-49,50,100,-1,-75,75,-15,-58,-17,14,-5,-14
-53,47,100,3,-76,73,-15,-64,-26,11,-10,-17
-55,45,100,5,-78,72,-15,-70,-35,9,-10,-20
-55,45,100,5,-78,72,-15,-74,-43,6,-11,-23
-58,41,100,9,-79,70,-15,-77,-45,1,-15,-25
-61,40,100,11,-80,70,-15,-81,-45,-1,-15,-28
-57,40,97,8,-77,69,-16,-84,-49,-6,-15,-31
-55,40,94,7,-75,67,-19,-88,-50,-10,-15,-26
-55,40,95,7,-75,67,-22,-90,-50,-8,-15,-25
-55,40,95,7,-75,67,-25,-90,-50,-5,-19,-24
-55,40,95,7,-75,67,-27,-94,-50,-2,-20,-21
-55,40,95,7,-75,67,-31,-95,-50,1,-21,-19
-55,40,95,7,-75,67,-27,-95,-50,4,-24,-21
-55,40,95,7,-75,67,-25,-95,-50,5,-26,-29
-55,40,95,7,-75,67,-25,-95,-50,0,-23,-31
-55,40,95,7,-75,67,-21,-95,-50,-3,-20,-30
-55,40,95,7,-75,67,-20,-95,-50,-7,-20,-30
-57,41,97,8,-77,69,-20,-95,-50,-10,-20,-30
-64,44,108,9,-86,76,-27,-95,-50,-15,-20,-30
-70,45,115,12,-93,80,-31,-95,-50,-13,-20,-34
-70,45,115,12,-93,80,-29,-95,-55,-9,-24,-35
-70,45,115,12,-93,80,-31,-95,-55,-11,-25,-35
-68,47,115,10,-92,81,-29,-95,-56,-6,-25,-39
-61,54,115,3,-88,84,-31,-94,-60,-5,-30,-40
-57,60,117,-2,-87,88,-27,-90,-60,-5,-30,-39
-67,54,121,6,-94,87,-21,-86,-58,1,-29,-33
-60,60,119,0,-90,89,-17,-84,-51,7,-23,-27
-50,71,121,-11,-85,96,-11,-80,-47,14,-16,-23
-48,87,135,-19,-92,111,-5,-75,-41,21,-9,-16
-34,111,145,-39,-90,128,1,-77,-35,28,-2,-11
-21,129,150,-54,-86,139,-12,-80,-30,29,-3,-13
-4,135,139,-66,-72,137,-28,-80,-24,20,-6,-16
9,130,121,-70,-56,126,-51,-80,-29,15,-4,-14
14,122,107,-68,-47,114,-82,-80,-30,7,-6,-16
13,117,104,-65,-46,110,-81,-91,-38,1,-4,-14
2,108,106,-55,-52,107,-70,-107,-56,-5,-7,-17
-20,79,99,-29,-60,89,-64,-114,-71,-11,-20,-30
-47,55,102,-4,-75,79,-55,-108,-75,-16,-37,-44
-42,54,96,-6,-70,74,-60,-112,-76,-26,-51,-57
-47,53,100,-3,-74,76,-61,-108,-68,-28,-48,-55
-41,45,86,-3,-63,65,-58,-112,-72,-41,-53,-58
-50,49,100,1,-76,74,-63,-109,-61,-34,-51,-46
-69,41,110,14,-90,75,-56,-104,-67,-31,-59,-55
-49,61,111,-6,-80,86,-60,-110,-73,-18,-53,-37
-107,50,156,28,-132,103,-5,-86,-63,-10,-63,-56
-90,6,96,42,-93,51,27,-56,-24,3,-38,-86
92,-21,-114,-35,103,-67,100,320,410,208,119,24
534,-17,-551,-258,543,-284,198,976,1068,434,296,181
849,131,-718,-490,784,-293,-183,642,747,211,253,241
478,39,-439,-258,459,-200,-631,-704,-591,-482,-225,-57
-4,-138,-133,71,65,-135,-568,-1152,-1065,-724,-477,-285
-209,-80,128,144,-168,24,-367,-721,-648,-421,-298,-210
-222,-64,158,143,-190,46,-236,-465,-414,-255,-210,-176
-138,-25,113,81,-125,44,-110,-242,-213,-146,-135,-123
-89,30,120,29,-105,74,-38,-127,-118,-69,-96,-89
-77,45,122,15,-100,84,-17,-102,-81,-54,-88,-86
-91,48,139,21,-116,94,-8,-75,-54,-47,-58,-80
-89,42,131,23,-110,86,-3,-66,-56,-46,-52,-81
-82,47,130,18,-106,88,0,-52,-35,-39,-48,-74
-84,43,128,20,-106,85,5,-50,-33,-36,-51,-76
-78,45,123,16,-101,84,9,-40,-20,-31,-49,-79
-62,61,123,0,-93,92,7,-36,-17,-29,-50,-80
-62,72,134,-5,-98,103,4,-30,-9,-26,-48,-81
-53,72,125,-10,-90,99,7,-22,-2,-23,-43,-85
-48,76,124,-15,-86,100,19,-14,6,-21,-40,-85
-48,79,127,-16,-87,103,22,2,24,-18,-36,-83
-34,80,114,-23,-74,97,16,22,33,-13,-32,-76
-24,85,109,-31,-67,97,15,36,46,-7,-30,-69
-17,84,101,-34,-59,92,11,55,61,-2,-25,-63
-7,87,94,-41,-51,91,9,83,84,4,-17,-56
18,105,88,-62,-35,96,22,123,120,12,-11,-48
31,115,84,-74,-26,99,32,154,137,28,-4,-39
40,123,82,-82,-21,102,30,171,160,37,2,-30
52,131,79,-91,-13,104,29,182,173,35,8,-22
61,137,76,-99,-8,106,47,175,165,35,10,-20
61,135,74,-99,-7,105,57,170,160,33,14,-20
64,135,70,-99,-3,102,54,164,152,30,15,-16
66,135,69,-101,-2,102,56,158,146,30,10,-15
72,135,63,-104,4,99,55,153,139,27,6,-15
62,135,74,-99,-6,104,55,130,133,22,4,-22
31,128,97,-80,-33,112,49,104,119,19,-1,-33
19,121,101,-70,-41,111,42,81,97,16,-4,-42
-2,114,116,-56,-59,115,37,50,68,11,-8,-48
-16,106,122,-45,-69,114,27,14,33,9,-17,-51
-20,99,119,-39,-69,108,19,-22,11,4,-28,-55
-23,95,117,-36,-70,106,10,-39,6,1,-43,-60
-19,95,114,-39,-67,104,1,-43,1,-2,-46,-68
-21,95,116,-38,-69,105,-6,-44,-2,-7,-45,-68
-26,95,120,-35,-73,107,-11,-39,-8,-10,-45,-64
-32,95,127,-32,-80,111,-17,-40,-9,-22,-45,-66
-38,94,133,-28,-86,113,-23,-38,-4,-23,-45,-61
-45,90,135,-23,-90,112,-23,-34,-1,-15,-40,-60
-45,90,135,-23,-90,112,-17,-35,2,-12,-35,-60
-45,90,135,-23,-90,112,-12,-38,7,-4,-30,-55
-45,90,135,-23,-90,112,-9,-41,10,-1,-26,-55
-45,90,135,-23,-90,112,-3,-40,7,10,-21,-55
-47,87,134,-21,-91,110,0,-40,1,18,-21,-55
-56,85,141,-15,-99,113,-7,-40,-3,11,-21,-55
-65,82,146,-9,-105,113,-16,-41,-8,7,-20,-58
-65,79,144,-7,-105,111,-20,-50,-13,1,-20,-60
-70,75,145,-3,-108,110,-20,-59,-16,-6,-21,-60
-70,75,145,-3,-108,110,-20,-62,-29,-9,-19,-60
-62,83,145,-11,-104,114,-20,-66,-39,-21,-22,-61
-56,85,142,-15,-100,113,-20,-74,-42,-28,-41,-65
-52,85,137,-16,-95,110,-20,-81,-47,-25,-47,-65
-49,85,135,-19,-92,110,-19,-86,-50,-25,-44,-65
-46,85,130,-19,-89,107,-23,-90,-55,-25,-46,-65
-41,86,126,-23,-84,106,-30,-93,-51,-25,-44,-65
-36,89,125,-27,-80,107,-32,-95,-50,-26,-46,-66
-34,90,124,-29,-79,107,-36,-95,-49,-31,-50,-72
-49,89,138,-21,-93,113,-39,-95,-53,-30,-50,-79
-56,91,147,-18,-101,118,-40,-95,-69,-26,-50,-80
-57,87,144,-16,-100,115,-40,-96,-70,-25,-50,-80
-64,85,149,-10,-107,117,-40,-100,-72,-20,-50,-80
-65,85,150,-10,-108,117,-40,-100,-76,-21,-51,-80
-69,82,150,-6,-110,116,-40,-100,-73,-28,-56,-79
-75,79,154,-2,-115,116,-40,-100,-70,-34,-59,-74
-75,80,155,-3,-115,117,-40,-100,-70,-41,-64,-71
-65,90,155,-13,-110,122,-40,-100,-68,-40,-65,-68
-54,100,155,-24,-105,127,-40,-100,-64,-39,-65,-63
-51,104,155,-27,-104,129,-40,-100,-65,-36,-65,-60
-52,101,153,-25,-102,126,-40,-100,-69,-34,-65,-63
-53,96,149,-22,-102,123,-40,-100,-70,-37,-64,-74
-54,93,147,-20,-101,120,-40,-99,-70,-40,-60,-81
-54,90,144,-19,-99,117,-40,-95,-70,-40,-60,-80
-57,84,141,-13,-99,112,-40,-95,-70,-40,-60,-79
-47,92,139,-22,-94,115,-41,-93,-69,-40,-60,-75
-30,105,136,-38,-84,121,-39,-89,-65,-40,-60,-75
-29,105,134,-38,-82,119,-36,-91,-66,-36,-56,-74
-28,109,136,-41,-82,122,-33,-86,-63,-30,-50,-70
-23,110,133,-44,-78,121,-31,-83,-60,-25,-45,-68
-35,113,148,-39,-92,130,-27,-79,-61,-19,-40,-65
-44,129,173,-43,-109,150,-24,-75,-56,-13,-33,-61
-34,143,177,-55,-105,159,-28,-71,-55,-10,-31,-60
-27,145,172,-60,-100,158,-32,-67,-54,-9,-35,-56
-3,155,158,-76,-81,156,-61,-85,-51,-11,-35,-55
9,161,152,-85,-72,157,-85,-99,-48,-8,-35,-55
21,150,129,-86,-54,139,-86,-101,-54,-22,-35,-55
32,135,103,-83,-36,119,-82,-104,-68,-39,-34,-54
-11,110,120,-50,-66,115,-80,-111,-87,-41,-45,-57
-49,83,132,-17,-90,107,-80,-116,-100,-49,-63,-77
-56,65,121,-5,-89,93,-61,-113,-101,-54,-72,-90
-67,56,123,6,-95,89,-48,-109,-98,-47,-68,-89
-65,51,116,7,-91,83,-41,-106,-102,-53,-72,-96
-52,62,114,-5,-83,88,-46,-105,-99,-47,-62,-94
-56,56,112,0,-84,84,-31,-99,-98,-52,-68,-102
-44,70,114,-13,-80,92,-45,-98,-89,-51,-64,-101
-86,52,138,17,-113,95,-16,-79,-73,-46,-75,-107
-69,5,74,32,-72,40,25,-42,-46,-33,-75,-113
97,-31,-128,-33,113,-79,66,255,317,152,69,-27
446,-67,-513,-189,480,-290,204,917,1041,462,322,169
805,123,-682,-464,743,-279,-63,852,996,405,400,314
555,153,-402,-354,478,-124,-521,-396,-295,-287,-51,75
38,-66,-104,14,72,-85,-514,-1058,-1018,-686,-408,-221
-196,-99,97,148,-147,-1,-328,-726,-698,-483,-322,-219
-242,-75,167,158,-204,46,-232,-481,-468,-320,-242,-187
-166,-51,115,108,-140,32,-133,-277,-278,-199,-170,-159
-109,-8,101,58,-105,46,-54,-127,-140,-119,-117,-130
-83,24,107,29,-95,65,-27,-89,-104,-88,-87,-118
-70,33,103,18,-87,68,-15,-61,-72,-69,-76,-105
-69,28,97,20,-83,62,-12,-57,-72,-68,-83,-102
-63,29,93,17,-78,60,-6,-40,-54,-53,-74,-99
-63,23,86,19,-75,55,0,-38,-50,-50,-77,-101
-55,25,81,15,-68,53,5,-30,-39,-64,-74,-99
-67,29,96,19,-81,62,10,-25,-31,-62,-71,-100
-70,29,99,20,-85,64,9,-18,-23,-46,-70,-100
-58,34,91,12,-74,62,12,-7,-13,-41,-69,-96
-49,41,89,4,-69,65,15,2,-6,-36,-65,-90
-43,40,83,1,-63,61,15,16,4,-34,-65,-85
-40,40,80,0,-60,60,17,39,23,-29,-63,-79
-35,41,75,-3,-55,58,21,51,37,-26,-52,-74
-31,39,70,-4,-51,54,23,71,55,-22,-43,-69
-19,47,66,-14,-43,56,26,97,82,-13,-28,-56
1,63,61,-32,-30,62,29,117,103,-2,-12,-41
20,76,56,-48,-19,66,31,149,142,8,-3,-30
35,88,52,-62,-9,70,34,172,164,16,8,-25
48,98,50,-73,-1,74,35,183,162,25,17,-20
50,100,50,-75,0,75,35,180,158,33,16,-14
51,101,50,-76,0,76,37,170,152,42,15,-8
56,105,49,-81,3,77,44,163,149,40,14,-6
54,105,52,-79,0,78,50,156,143,32,9,-12
44,105,61,-75,-9,82,43,143,140,26,11,-17
24,100,76,-63,-26,88,36,127,129,19,7,-22
15,100,85,-58,-35,92,29,108,108,13,-1,-29
3,99,96,-51,-47,97,21,77,85,7,-8,-33
-21,85,106,-33,-64,95,14,35,50,-2,-14,-42
-34,71,105,-19,-70,88,8,-1,15,-12,-32,-58
-49,61,110,-6,-79,85,3,-17,-8,-25,-52,-69
-56,55,110,1,-83,82,0,-36,-26,-38,-55,-70
-63,51,113,6,-88,82,-3,-44,-41,-40,-59,-75
-72,44,116,14,-94,79,-8,-40,-47,-35,-60,-74
-75,39,114,18,-95,76,-10,-39,-41,-35,-56,-70
-81,34,115,23,-99,75,-5,-35,-36,-35,-53,-70
-77,38,115,19,-97,76,-5,-33,-31,-35,-50,-70
-63,50,114,6,-88,82,-5,-29,-24,-35,-47,-70
-62,48,110,7,-86,79,-5,-33,-21,-32,-45,-70
-66,42,108,12,-87,74,-5,-35,-24,-30,-42,-67
-65,39,105,13,-85,71,-7,-35,-25,-27,-40,-62
-68,33,102,17,-85,67,-10,-39,-26,-24,-40,-59
-69,30,99,20,-84,64,-13,-40,-30,-21,-36,-56
-64,41,105,11,-85,73,-16,-40,-31,-20,-34,-51
-64,51,114,6,-89,82,-20,-40,-27,-25,-35,-51
-65,50,115,7,-90,82,-20,-41,-25,-25,-40,-60
-65,50,115,7,-90,82,-21,-36,-24,-27,-48,-65
-70,50,119,10,-94,85,-29,-50,-38,-34,-53,-65
-70,50,120,10,-95,85,-30,-70,-60,-40,-55,-65
-71,48,118,11,-95,83,-30,-71,-62,-45,-55,-65
-71,44,115,13,-94,80,-30,-75,-66,-45,-59,-65
-67,45,112,11,-90,79,-31,-78,-69,-49,-60,-66
-65,45,110,10,-88,77,-40,-81,-72,-50,-60,-75
-61,45,106,8,-84,76,-49,-86,-79,-52,-60,-84
-60,45,105,7,-83,75,-53,-89,-85,-62,-60,-85
-62,40,102,11,-82,71,-58,-90,-93,-61,-60,-85
-57,40,97,8,-77,68,-59,-92,-95,-59,-60,-85
-56,39,94,8,-75,66,-55,-96,-95,-60,-60,-85
-56,35,91,11,-74,62,-55,-98,-95,-60,-60,-84
-51,35,86,7,-69,60,-55,-101,-95,-60,-60,-79
-51,35,86,8,-69,60,-55,-104,-95,-58,-60,-81
-63,35,98,14,-81,66,-55,-105,-95,-54,-60,-77
-81,35,116,23,-99,75,-55,-106,-95,-56,-60,-75
-83,35,118,24,-101,76,-55,-110,-95,-54,-61,-75
-75,35,110,20,-93,72,-55,-110,-95,-57,-64,-71
-72,35,107,18,-90,71,-55,-108,-94,-69,-67,-69
-59,40,99,9,-79,69,-55,-104,-99,-71,-70,-66
-56,40,96,8,-76,67,-56,-102,-106,-69,-72,-64
-61,42,103,9,-82,72,-60,-99,-105,-66,-76,-59
-53,49,102,2,-78,76,-65,-96,-105,-64,-72,-62
-52,45,97,3,-75,71,-61,-94,-105,-65,-69,-73
-49,45,94,1,-72,70,-60,-90,-104,-65,-70,-75
-48,43,91,2,-70,67,-59,-90,-108,-65,-66,-75
-45,40,85,2,-65,62,-56,-89,-110,-65,-65,-75
-47,39,87,4,-67,63,-54,-99,-111,-65,-65,-75
-43,42,85,0,-64,64,-58,-105,-115,-65,-59,-75
-34,50,84,-8,-59,67,-66,-97,-115,-61,-54,-75
-54,54,108,0,-82,81,-66,-94,-110,-54,-49,-71
-55,78,133,-12,-94,105,-63,-85,-102,-47,-43,-65
-38,100,138,-32,-88,119,-62,-82,-102,-41,-37,-60
-24,108,131,-42,-78,119,-58,-74,-105,-33,-37,-54
-16,107,123,-46,-70,115,-65,-80,-105,-32,-41,-48
-18,99,117,-41,-68,108,-93,-100,-104,-34,-39,-46
-16,92,108,-38,-62,100,-119,-99,-106,-41,-41,-50
-19,85,104,-33,-61,94,-129,-104,-104,-37,-38,-52
-22,77,98,-27,-60,87,-130,-116,-111,-46,-43,-55
-32,69,101,-19,-67,85,-130,-123,-131,-78,-55,-65
-47,49,96,-1,-72,72,-103,-125,-136,-88,-65,-80
-55,38,93,8,-75,65,-87,-126,-135,-87,-77,-79
-57,41,98,8,-77,69,-80,-123,-134,-91,-86,-82
-46,40,86,3,-66,62,-77,-127,-137,-84,-92,-88
-46,50,96,-3,-71,73,-73,-122,-142,-71,-92,-81
-34,40,74,-4,-54,57,-66,-124,-144,-73,-100,-90
-46,62,108,-9,-77,85,-66,-114,-115,-49,-87,-76
-98,22,121,38,-110,71,-12,-104,-123,-74,-108,-104
-47,-45,2,46,-25,-21,-24,2,6,4,-39,-84
178,-84,-262,-47,220,-172,93,548,630,327,193,76
626,12,-613,-319,620,-300,88,1037,1177,545,425,281
753,175,-578,-464,665,-201,-411,285,406,86,224,251
286,-14,-300,-136,293,-157,-663,-925,-896,-669,-347,-111
-78,-125,-47,102,-15,-86,-508,-990,-996,-706,-460,-256
-212,-68,145,140,-178,38,-358,-618,-623,-436,-299,-206
-205,-74,131,139,-168,28,-234,-416,-440,-305,-235,-196
-126,-21,105,73,-115,42,-139,-205,-244,-183,-165,-142
-115,0,114,57,-114,57,-87,-154,-190,-145,-134,-121
-90,18,108,36,-99,63,-68,-124,-158,-121,-115,-107
-84,26,110,29,-97,67,-60,-94,-137,-117,-112,-97
-71,31,102,19,-87,66,-52,-81,-125,-112,-104,-91
-73,37,110,17,-92,73,-50,-76,-119,-105,-97,-89
-87,33,120,27,-104,76,-50,-76,-118,-101,-92,-90
-83,37,120,23,-102,78,-50,-69,-110,-94,-101,-84
-82,38,120,22,-101,79,-50,-67,-109,-91,-106,-86
-79,41,120,19,-99,80,-49,-51,-97,-86,-98,-82
-81,39,120,21,-101,80,-46,-38,-90,-84,-98,-80
-77,40,118,18,-97,79,-43,-28,-81,-79,-92,-77
-71,39,111,16,-91,75,-40,-17,-71,-76,-90,-74
-64,43,107,11,-86,75,-37,-9,-59,-72,-84,-71
-55,45,101,5,-78,73,-35,8,-44,-64,-75,-70
-44,52,95,-4,-70,73,-33,36,-20,-56,-70,-63
-24,66,90,-22,-57,78,-29,62,14,-46,-61,-52
-7,78,84,-36,-46,81,-27,94,40,-33,-44,-42
9,88,79,-49,-35,83,-24,125,64,-22,-32,-32
25,98,73,-62,-24,86,-21,142,83,-19,-22,-30
44,112,69,-78,-13,91,-19,141,96,-20,-17,-27
56,116,60,-86,-3,88,-15,135,100,-20,-21,-24
40,111,71,-76,-16,91,-15,130,85,-20,-20,-21
22,109,87,-66,-32,98,-14,123,74,-21,-20,-20
22,106,84,-64,-32,95,-10,119,62,-24,-20,-25
17,104,87,-61,-36,96,-10,103,51,-27,-20,-27
9,100,91,-54,-41,95,-12,78,38,-29,-26,-31
5,93,89,-49,-42,91,-21,52,18,-33,-33,-34
-8,88,96,-40,-52,91,-27,15,-9,-35,-42,-37
-20,82,102,-31,-61,92,-35,-17,-42,-37,-51,-44
-23,78,101,-27,-62,89,-47,-43,-69,-47,-57,-50
-26,71,97,-22,-62,84,-59,-72,-91,-61,-64,-55
-31,64,95,-17,-63,79,-66,-86,-106,-66,-70,-55
-34,58,91,-12,-63,74,-65,-88,-106,-65,-74,-56
-39,51,89,-6,-64,70,-65,-85,-104,-65,-79,-60
-49,45,94,2,-72,69,-65,-85,-105,-65,-78,-60
-55,40,95,7,-75,67,-65,-85,-105,-65,-72,-58
-55,40,95,7,-75,67,-61,-85,-106,-63,-68,-55
-56,39,95,8,-76,66,-60,-85,-102,-57,-63,-52
-61,35,95,12,-78,65,-59,-82,-96,-52,-59,-49
-58,35,94,11,-77,64,-56,-77,-89,-49,-54,-46
-57,33,90,12,-74,61,-53,-74,-83,-43,-50,-45
-61,29,90,16,-76,60,-60,-71,-75,-41,-50,-45
-57,30,88,13,-72,59,-75,-66,-70,-44,-50,-45
-55,30,84,12,-69,56,-75,-66,-81,-47,-50,-45
-55,30,86,12,-70,57,-74,-75,-91,-49,-49,-45
-51,29,81,11,-66,55,-76,-85,-92,-53,-53,-45
-50,25,75,12,-63,50,-74,-89,-99,-55,-55,-48
-45,25,70,10,-58,47,-78,-93,-112,-57,-55,-50
-39,25,64,7,-52,45,-80,-107,-115,-60,-58,-50
-33,25,58,4,-46,41,-80,-118,-115,-60,-61,-50
-30,25,56,2,-44,40,-83,-120,-115,-64,-59,-50
-42,23,65,10,-54,44,-86,-124,-115,-65,-56,-49
-49,18,67,15,-58,42,-84,-126,-122,-65,-55,-46
-49,15,64,17,-57,40,-81,-130,-126,-70,-55,-45
-53,12,65,20,-59,38,-80,-130,-125,-70,-55,-45
-53,7,60,23,-57,33,-80,-125,-125,-70,-56,-44
-56,4,60,26,-59,32,-80,-125,-125,-70,-52,-46
-58,0,59,29,-59,29,-80,-125,-125,-70,-50,-42
-54,0,55,27,-55,27,-82,-125,-125,-67,-50,-40
-57,-1,55,28,-56,27,-86,-125,-125,-65,-50,-40
-58,-5,53,31,-55,23,-85,-127,-125,-65,-50,-36
-54,-4,49,29,-51,22,-85,-131,-125,-62,-50,-34
-58,-8,50,33,-54,21,-85,-129,-125,-59,-54,-36
-63,-10,53,37,-58,21,-85,-134,-125,-61,-59,-39
-70,-10,60,39,-65,25,-90,-135,-130,-66,-60,-40
-74,-10,63,42,-68,26,-90,-135,-130,-66,-60,-40
-70,-10,60,40,-65,25,-91,-140,-131,-64,-60,-40
-70,-10,60,40,-65,25,-95,-140,-135,-65,-60,-40
-68,-10,58,38,-63,23,-95,-141,-135,-65,-60,-40
-64,-10,54,37,-59,22,-92,-145,-135,-65,-61,-40
-65,-10,55,37,-60,22,-89,-145,-135,-67,-64,-40
-62,-10,51,36,-56,21,-90,-143,-135,-70,-60,-40
-57,-10,47,33,-52,19,-86,-139,-135,-70,-60,-40
-57,-13,44,34,-50,15,-85,-140,-135,-73,-59,-40
-56,-15,41,36,-48,13,-85,-140,-135,-76,-54,-35
-45,-9,36,27,-40,13,-80,-140,-129,-74,-56,-35
-38,-2,36,20,-37,17,-75,-140,-122,-69,-52,-35
-41,4,44,18,-43,24,-70,-134,-116,-60,-46,-35
-44,12,56,16,-50,33,-67,-129,-110,-53,-41,-36
-46,16,63,15,-55,39,-60,-123,-101,-43,-36,-33
-33,27,60,3,-47,43,-62,-118,-102,-40,-30,-26
-17,43,60,-13,-39,51,-69,-111,-104,-40,-26,-21
-16,38,54,-11,-36,46,-80,-110,-106,-40,-29,-16
-29,28,57,0,-43,42,-109,-110,-110,-40,-32,-9
-20,20,40,0,-30,30,-124,-110,-110,-39,-36,-6
8,11,3,-9,2,7,-120,-127,-121,-54,-39,-12
6,1,-6,-3,6,-2,-111,-135,-130,-74,-43,-23
-11,-17,-5,14,-3,-11,-107,-147,-141,-82,-52,-30
-36,-36,0,36,-18,-18,-98,-150,-145,-85,-61,-40
-56,-54,2,55,-29,-26,-94,-147,-146,-86,-69,-49
-68,-58,10,63,-39,-24,-89,-143,-143,-79,-68,-49
-71,-63,8,67,-39,-28,-90,-142,-148,-81,-73,-52
-79,-56,23,67,-51,-16,-89,-139,-142,-71,-66,-51
-88,-65,22,76,-55,-21,-79,-145,-146,-76,-75,-59
-88,-54,34,71,-61,-10,-94,-148,-133,-67,-58,-51
-123,-67,56,95,-89,-5,-31,-126,-130,-62,-69,-65
-94,-114,-20,104,-37,-67,-24,-64,-74,-22,-47,-56
112,-137,-249,13,181,-193,77,392,450,213,141,65
587,-88,-675,-249,631,-382,146,993,1090,434,334,236
813,40,-774,-426,793,-367,-329,474,569,116,226,252
382,-120,-502,-131,442,-311,-708,-862,-799,-638,-310,-85
-71,-290,-219,181,74,-254,-585,-1149,-1113,-788,-507,-269
-253,-230,23,242,-138,-103,-397,-704,-673,-461,-310,-186
-236,-196,40,216,-138,-78,-263,-467,-456,-304,-226,-160
-136,-135,0,135,-68,-67,-131,-232,-251,-184,-137,-104
-116,-106,10,111,-63,-47,-73,-143,-170,-132,-114,-75
-113,-104,9,108,-61,-47,-62,-117,-144,-113,-104,-71
-114,-97,16,105,-65,-40,-43,-95,-125,-102,-87,-61
-107,-98,10,103,-58,-44,-41,-95,-120,-101,-88,-58
-98,-89,9,93,-53,-40,-37,-76,-101,-91,-74,-47
-98,-92,5,94,-51,-43,-35,-73,-102,-90,-73,-46
-96,-94,2,95,-49,-46,-32,-59,-91,-81,-63,-44
-96,-95,1,96,-48,-47,-29,-56,-91,-78,-59,-45
-92,-95,-3,94,-44,-49,-27,-45,-84,-74,-55,-45
-86,-95,-9,91,-38,-51,-22,-40,-81,-72,-52,-45
-81,-95,-14,89,-33,-54,-20,-29,-75,-69,-50,-45
-72,-91,-19,82,-26,-55,-15,-21,-65,-66,-46,-40
-60,-85,-25,72,-17,-55,-12,-3,-55,-65,-45,-32
-50,-80,-30,65,-10,-55,-9,22,-39,-58,-39,-26
-41,-74,-34,58,-3,-54,-4,34,-12,-49,-26,-19
-30,-69,-39,50,5,-54,0,67,16,-40,-15,-10
-12,-63,-52,38,20,-57,3,96,43,-30,-7,0
5,-60,-65,28,35,-62,7,131,81,-17,-1,10
15,-57,-72,21,44,-64,10,156,102,-3,6,20
15,-55,-69,20,42,-61,14,151,101,-4,13,29
12,-52,-63,20,38,-57,20,147,95,-5,19,34
28,-49,-78,11,53,-63,25,142,90,-6,17,30
40,-50,-91,5,65,-70,32,137,84,-11,12,26
32,-50,-82,9,57,-65,34,133,79,-9,10,23
26,-50,-76,13,51,-63,26,126,74,-12,5,18
20,-49,-69,15,45,-59,19,110,59,-19,2,15
11,-51,-62,21,36,-56,12,80,43,-24,-1,11
-4,-64,-60,34,28,-62,4,49,22,-29,-9,4
-19,-75,-56,47,19,-66,-3,9,-7,-35,-16,-2
-30,-85,-54,58,12,-69,-9,-23,-39,-40,-23,-9
-42,-93,-51,67,4,-71,-16,-41,-59,-45,-31,-16
-49,-99,-50,74,0,-74,-20,-65,-74,-55,-37,-22
-55,-106,-50,81,-2,-78,-21,-68,-86,-57,-37,-25
-63,-113,-49,88,-7,-81,-24,-57,-85,-54,-34,-25
-64,-115,-51,90,-6,-83,-25,-54,-84,-56,-31,-25
-68,-115,-47,91,-10,-81,-25,-44,-80,-54,-28,-25
-74,-115,-41,95,-16,-78,-25,-43,-80,-56,-26,-25
-81,-115,-33,98,-23,-74,-25,-54,-78,-52,-23,-21
-87,-115,-28,102,-29,-71,-24,-56,-72,-46,-20,-20
-93,-113,-20,103,-36,-67,-26,-54,-68,-39,-18,-20
-95,-110,-15,103,-40,-62,-22,-50,-63,-32,-14,-16
-70,-108,-37,89,-16,-72,-22,-51,-60,-26,-13,-15
-57,-105,-47,81,-4,-76,-17,-48,-53,-19,-8,-16
-57,-102,-44,80,-6,-73,-25,-58,-67,-36,-17,-20
-55,-99,-44,78,-6,-71,-50,-80,-90,-56,-36,-20
-64,-104,-40,84,-12,-72,-50,-83,-91,-54,-35,-20
-72,-111,-39,91,-16,-75,-50,-86,-95,-56,-35,-20
-73,-116,-43,95,-15,-79,-50,-90,-97,-54,-35,-20
-65,-120,-55,93,-5,-87,-50,-92,-101,-56,-35,-24
-67,-119,-52,93,-8,-86,-48,-96,-97,-52,-33,-25
-75,-122,-47,99,-13,-85,-44,-95,-96,-50,-30,-25
-80,-125,-46,103,-16,-85,-42,-103,-105,-51,-30,-25
-86,-125,-39,105,-23,-81,-38,-109,-105,-49,-29,-25
-77,-122,-45,100,-16,-83,-37,-100,-105,-52,-31,-24
-62,-118,-56,91,-3,-87,-32,-97,-105,-47,-29,-20
-68,-122,-53,95,-8,-87,-55,-110,-115,-67,-35,-20
-68,-118,-50,93,-9,-84,-69,-178,-121,-79,-26,-20
-74,-122,-48,98,-13,-85,-71,-239,-119,-83,-34,-21
-75,-118,-43,97,-16,-80,-61,-253,-120,-73,-26,-19
-91,-141,-50,116,-20,-96,-65,-313,-120,-79,-34,-22
-135,-185,-50,160,-42,-117,-49,-133,-120,-62,-24,-26
