I,II,III,aVR,aVL,aVF,V1,V2,V3,V4,V5,V6
-203,-264,-61,233,-71,-162,-265,-696,-857,-1067,-743,-306
-54,-164,-111,109,29,-138,-212,-350,-435,-632,-500,-210
-3,-32,-29,18,14,-31,-94,27,46,-174,-217,-73
54,-7,-61,-23,58,-34,-45,-8,21,-190,-207,-71
52,-1,-53,-25,53,-27,-23,-21,23,-182,-187,-71
52,-13,-64,-19,58,-38,-18,-45,9,-198,-187,-64
66,-17,-82,-24,74,-49,-14,-54,-11,-209,-187,-67
62,-10,-71,-26,67,-40,-5,-45,-9,-197,-178,-62
26,-16,-42,-5,34,-29,-1,-53,-21,-213,-177,-62
26,-10,-36,-8,32,-23,12,-37,16,-179,-162,-71
27,2,-26,-14,26,-12,38,-22,43,-155,-162,-69
55,31,-24,-43,39,3,49,2,73,-139,-146,-57
116,40,-76,-77,96,-18,13,-9,59,-114,-125,-48
104,40,-63,-72,83,-11,-25,1,52,-80,-89,-32
114,61,-53,-87,83,4,-31,34,89,-46,-54,-22
153,61,-92,-107,123,-15,-22,66,106,-18,-32,-8
164,59,-105,-111,134,-23,-12,101,121,-7,-7,4
209,60,-149,-135,179,-44,-3,114,133,4,19,20
254,50,-203,-152,228,-76,3,119,128,12,33,33
218,55,-162,-136,190,-53,8,115,134,34,50,51
190,70,-120,-130,155,-25,11,102,135,45,69,82
183,80,-103,-131,143,-11,17,94,136,31,62,94
162,95,-67,-128,114,13,20,68,128,13,52,91
149,96,-53,-122,101,21,27,34,112,-17,43,77
129,90,-39,-110,84,26,39,1,100,-73,-4,58
115,91,-25,-103,70,33,41,-21,68,-122,-51,36
112,87,-25,-99,68,31,40,-33,45,-143,-72,7
112,81,-30,-96,71,25,40,-37,45,-167,-90,-21
115,74,-41,-94,77,16,50,-33,40,-170,-93,-32
85,67,-17,-76,51,25,56,-31,39,-163,-105,-29
52,61,9,-57,21,35,57,-27,34,-163,-112,-33
72,64,-8,-68,39,28,62,-26,37,-156,-109,-35
95,66,-29,-80,61,18,63,-22,39,-155,-107,-35
66,63,-3,-64,34,30,66,-14,43,-143,-104,-32
39,73,34,-56,2,53,82,4,82,-126,-105,-26
51,95,44,-73,3,69,96,7,92,-120,-98,-23
44,127,83,-86,-19,105,61,-38,79,-112,-90,-17
45,147,102,-96,-29,124,20,-65,68,-107,-82,-15
59,145,85,-102,-13,115,20,-56,52,-110,-79,-15
61,141,80,-101,-10,110,20,-47,44,-115,-81,-15
69,140,70,-105,0,105,15,-41,37,-119,-80,-15
85,138,53,-111,16,95,15,-45,31,-117,-80,-15
82,116,34,-99,24,74,16,-45,25,-115,-80,-15
66,91,25,-79,20,58,20,-44,18,-113,-84,-15
59,80,21,-69,19,50,22,-46,12,-126,-88,-15
55,63,8,-59,23,36,26,-43,10,-145,-91,-15
78,59,-19,-68,48,20,28,-48,9,-145,-93,-14
102,51,-52,-76,77,-1,31,-42,12,-145,-99,-16
96,47,-49,-72,72,-1,29,-49,8,-143,-105,-15
84,41,-43,-62,63,0,36,-50,12,-148,-114,-25
84,34,-50,-59,67,-8,34,-46,14,-141,-107,-32
75,39,-36,-57,55,2,36,-44,22,-161,-127,-32
74,25,-49,-49,61,-12,42,-31,28,-144,-104,-31
81,53,-28,-67,55,12,36,-43,29,-146,-98,-27
93,50,-42,-71,67,4,49,-16,40,-135,-103,-30
61,58,-3,-59,31,28,40,-55,18,-124,-93,-17
38,33,-5,-35,21,13,58,-15,45,-135,-122,-37
77,30,-47,-54,62,-8,55,-3,42,-72,-72,-30
124,22,-102,-73,113,-40,158,315,361,249,2,-23
272,293,21,-282,125,157,109,375,596,1209,758,299
88,864,776,-476,-345,820,-82,-620,-7,555,856,578
-286,425,711,-70,-498,568,-11,-963,-754,-1410,-500,56
-293,-266,27,280,-160,-120,-188,-840,-1123,-1556,-970,-352
-147,-197,-50,172,-48,-123,-269,-566,-663,-784,-582,-246
7,-34,-40,14,23,-37,-105,-35,-3,-240,-270,-108
53,67,14,-60,19,40,-88,-36,57,-109,-155,-52
58,67,9,-63,24,38,-43,-37,39,-165,-173,-51
68,47,-20,-57,44,13,-43,-40,15,-120,-145,-34
72,41,-31,-56,51,4,-35,-62,-5,-160,-160,-42
87,29,-58,-58,73,-15,-25,-42,-3,-152,-144,-40
74,20,-54,-47,64,-17,-24,-54,-19,-162,-147,-39
82,1,-82,-41,82,-40,-12,-32,-16,-151,-141,-41
68,-16,-84,-25,76,-50,-12,-39,-32,-148,-133,-39
69,-36,-105,-16,87,-70,-2,-25,-22,-146,-129,-37
86,-24,-109,-31,98,-66,1,-16,-4,-133,-120,-29
97,-13,-110,-42,104,-61,9,9,26,-107,-114,-23
118,-10,-127,-54,123,-68,17,35,54,-59,-89,-16
113,3,-111,-58,112,-54,28,58,75,-22,-50,-8
125,29,-96,-76,110,-34,37,91,108,20,-7,12
140,55,-85,-97,112,-15,52,111,146,57,29,33
119,45,-75,-82,97,-15,60,124,175,87,38,46
134,58,-76,-96,105,-9,72,132,186,97,47,58
181,92,-89,-136,135,1,86,149,213,117,93,78
157,96,-61,-126,108,17,85,152,225,142,119,95
140,127,-13,-133,77,57,85,136,218,132,113,100
150,142,-8,-146,79,67,86,125,223,114,102,94
103,130,26,-117,38,78,84,89,201,73,88,86
112,129,17,-120,47,72,88,46,155,11,42,67
128,121,-7,-124,67,57,90,15,114,-37,1,43
75,116,41,-96,17,78,91,8,89,-60,-6,38
54,122,69,-88,-8,95,96,15,92,-71,-20,35
53,127,74,-91,-11,100,94,10,104,-75,-30,31
60,124,64,-92,-2,94,112,29,124,-75,-36,28
103,125,23,-114,40,74,130,61,148,-75,-34,24
92,125,33,-109,29,79,102,43,114,-74,-34,19
50,125,75,-88,-13,100,54,-24,56,-95,-55,10
79,124,45,-102,17,84,18,-50,40,-107,-61,4
107,118,11,-112,47,64,6,-43,39,-104,-63,-4
70,112,42,-92,14,77,-3,-46,40,-105,-65,-11
39,107,69,-73,-15,88,-1,-44,40,-100,-60,-13
58,101,43,-80,7,72,6,-45,40,-97,-59,-10
70,96,26,-83,21,61,13,-45,40,-93,-55,-7
32,98,66,-65,-17,82,33,-45,36,-90,-53,-4
17,101,84,-59,-34,93,36,-45,31,-85,-49,-1
30,104,74,-67,-22,89,34,-45,26,-87,-53,0
32,106,74,-69,-21,90,36,-45,23,-94,-62,-7
42,110,69,-76,-13,89,34,-46,17,-100,-70,-16
29,109,80,-69,-26,94,36,-58,16,-114,-83,-20
25,98,72,-62,-24,85,31,-61,22,-121,-86,-20
28,87,59,-58,-15,72,27,-59,17,-120,-85,-20
31,74,43,-53,-6,58,20,-61,14,-119,-85,-20
67,73,6,-70,30,39,19,-59,9,-133,-99,-20
36,76,40,-56,-2,58,11,-61,4,-141,-106,-20
4,79,75,-42,-35,77,13,-65,1,-131,-104,-15
11,80,68,-46,-29,74,33,-74,-7,-127,-105,-15
-7,73,80,-33,-44,76,36,-70,7,-119,-105,-15
14,91,77,-53,-32,83,45,-46,31,-112,-105,-15
11,99,88,-55,-39,93,59,-34,38,-109,-101,-15
5,88,82,-47,-39,85,68,-32,41,-110,-97,-15
-4,83,87,-40,-46,85,55,-27,41,-109,-90,-15
-8,74,81,-34,-45,77,41,-26,36,-111,-89,-15
67,67,0,-67,33,33,34,-17,36,-110,-80,-15
59,62,3,-61,28,32,21,-30,25,-109,-85,-14
58,51,-6,-55,32,22,19,-53,-14,-125,-107,-28
88,54,-34,-71,61,10,10,-69,-30,-135,-103,-35
75,52,-22,-63,48,15,11,-76,-14,-149,-108,-37
87,61,-26,-73,57,17,1,-90,-22,-144,-97,-33
84,60,-24,-71,53,18,2,-72,-4,-143,-105,-37
82,65,-17,-73,49,24,9,-77,-13,-128,-94,-33
53,64,11,-58,21,37,9,-70,3,-130,-112,-37
31,43,12,-38,10,27,16,-58,-2,-116,-112,-43
3,55,52,-30,-24,53,28,-72,-3,-109,-97,-39
10,16,6,-13,2,11,28,-25,11,-112,-111,-57
65,51,-14,-57,39,18,22,-23,21,-58,-81,-36
130,37,-93,-83,111,-28,148,368,442,382,76,7
257,423,167,-340,45,294,21,127,396,1263,913,403
53,710,658,-382,-303,684,-117,-765,-320,314,705,498
-270,-24,246,146,-258,111,-71,-880,-926,-1558,-722,-123
-248,-401,-153,324,-47,-277,-266,-832,-1109,-1441,-919,-336
-112,-214,-101,163,-5,-157,-213,-422,-465,-629,-505,-204
1,-65,-66,32,34,-65,-31,22,55,-196,-258,-114
40,56,16,-48,12,36,-6,9,69,-90,-158,-53
30,56,26,-43,2,40,47,36,72,-109,-170,-55
21,71,50,-46,-15,60,61,20,53,-70,-129,-39
14,62,48,-38,-17,55,50,12,51,-91,-139,-43
22,65,43,-44,-11,54,26,-26,39,-67,-115,-34
33,67,34,-50,-1,50,7,-29,40,-72,-114,-31
39,60,21,-50,9,40,0,-10,40,-63,-103,-27
52,63,11,-58,20,36,0,-10,35,-57,-94,-23
53,26,-27,-40,40,-1,0,15,36,-54,-87,-28
31,-10,-41,-10,36,-25,4,31,35,-44,-77,-29
39,2,-37,-20,38,-17,10,43,45,-44,-68,-20
46,15,-31,-30,38,-8,17,55,57,-25,-48,-10
50,24,-26,-36,37,-1,18,78,79,8,-20,0
63,43,-20,-53,41,11,32,101,105,39,19,14
79,65,-15,-72,47,25,48,120,129,77,41,26
102,79,-23,-90,62,28,42,131,150,100,60,51
111,81,-30,-96,71,25,55,147,172,113,80,68
149,107,-42,-128,95,33,76,165,184,130,93,79
140,102,-38,-121,89,32,83,178,191,139,102,89
115,114,-1,-114,57,57,83,169,197,144,117,80
106,143,37,-125,34,90,80,143,188,126,116,71
63,119,56,-91,3,87,80,111,171,82,89,63
59,114,55,-87,2,84,77,71,137,21,52,53
44,100,55,-73,-6,77,74,30,94,-36,5,43
32,83,51,-58,-9,67,76,1,65,-77,-33,28
30,80,51,-55,-11,65,68,4,60,-85,-53,15
19,68,49,-44,-15,58,75,10,58,-77,-64,9
33,76,43,-55,-5,59,105,32,82,-76,-58,10
26,84,59,-55,-17,72,107,37,96,-69,-50,10
16,78,62,-47,-23,70,74,-4,76,-66,-45,10
25,71,46,-48,-11,58,33,-17,68,-68,-36,10
13,64,51,-39,-19,58,23,-15,58,-71,-38,6
7,57,50,-32,-22,53,26,-15,42,-69,-44,5
26,57,31,-42,-3,44,24,-15,24,-72,-51,5
35,61,26,-48,4,44,26,-15,17,-83,-60,5
36,59,23,-48,7,40,25,-15,16,-86,-59,5
30,61,32,-46,-1,46,29,-19,11,-84,-51,6
21,59,38,-40,-9,48,30,-20,8,-85,-50,10
21,63,42,-42,-11,52,30,-23,4,-85,-43,10
52,84,32,-68,10,57,30,-25,0,-85,-40,10
81,82,1,-82,40,42,30,-26,0,-93,-62,10
52,77,25,-64,13,50,29,-30,-1,-100,-73,10
14,74,60,-44,-23,67,25,-32,-5,-102,-68,7
24,62,38,-44,-7,50,25,-35,-5,-106,-71,1
34,50,16,-42,9,33,25,-35,-7,-109,-69,-3
-1,41,42,-20,-21,41,25,-35,-11,-113,-71,-8
-15,36,52,-11,-34,44,25,-44,-14,-115,-85,-13
-6,31,37,-13,-22,34,25,-51,-18,-119,-91,-16
-29,28,57,0,-43,42,26,-50,-20,-121,-90,-22
-18,22,40,-2,-29,31,36,-50,-14,-113,-90,-25
14,22,8,-18,3,15,49,-50,-7,-107,-90,-30
-7,33,40,-13,-24,36,52,-49,-1,-101,-89,-35
-34,55,89,-11,-61,72,50,-53,4,-93,-85,-31
-16,88,104,-36,-61,96,32,-58,9,-93,-82,-25
-3,104,108,-51,-56,106,10,-58,14,-94,-77,-18
-5,94,99,-45,-52,96,11,-49,21,-100,-76,-15
35,99,64,-67,-15,81,9,-52,12,-98,-67,-7
29,79,50,-54,-11,64,11,-41,12,-107,-75,-6
22,44,23,-33,-1,33,9,-43,1,-102,-73,-5
43,53,10,-48,16,31,10,-37,0,-102,-76,-4
51,45,-6,-48,29,19,11,-33,-9,-96,-75,-7
55,57,2,-56,26,30,7,-41,-15,-91,-72,-1
52,41,-11,-47,31,15,15,-36,-21,-95,-84,-8
47,59,12,-53,17,35,2,-71,-34,-76,-56,9
26,47,21,-37,2,34,21,-17,12,-92,-76,-11
63,50,-13,-57,38,18,6,-45,-17,-41,-33,16
101,36,-65,-68,83,-15,121,296,304,165,4,30
227,234,7,-231,110,121,94,303,473,1073,653,291
138,733,596,-436,-230,664,-135,-676,-147,887,1010,629
-240,224,464,8,-352,344,-179,-1093,-955,-1203,-293,141
-294,-446,-152,370,-71,-299,-321,-992,-1268,-1671,-968,-299
-134,-253,-119,193,-7,-186,-255,-499,-576,-709,-518,-171
-14,-88,-74,51,30,-81,-42,32,16,-228,-255,-90
-2,-15,-12,9,5,-14,-9,20,43,-95,-161,-58
-3,-9,-6,6,2,-7,29,29,75,-132,-176,-56
4,-14,-18,5,12,-16,29,7,51,-97,-144,-42
-59,14,73,22,-66,43,28,0,54,-103,-128,-35
-41,28,69,6,-55,48,11,-3,43,-92,-111,-31
21,49,28,-35,-4,38,1,-13,37,-80,-95,-19
35,44,9,-39,12,26,-1,8,36,-79,-91,-11
45,44,-2,-44,23,21,-6,16,34,-61,-74,3
70,52,-18,-61,44,17,-8,38,36,-62,-71,17
72,46,-26,-59,49,10,-9,39,34,-44,-55,31
67,29,-38,-48,52,-4,7,77,54,-40,-54,31
71,32,-40,-51,55,-4,23,106,64,-20,-33,34
112,28,-84,-69,98,-28,41,120,100,32,2,43
105,34,-71,-69,88,-18,45,146,129,71,30,58
140,67,-73,-103,106,-3,55,169,157,108,72,75
160,78,-82,-118,120,-2,60,180,188,141,91,88
105,76,-29,-90,67,23,74,193,186,143,109,95
148,104,-44,-125,96,30,93,206,191,148,126,103
137,121,-15,-129,76,53,93,209,210,172,157,127
123,124,1,-124,61,62,100,206,226,185,168,132
109,119,10,-114,49,64,106,188,218,159,145,114
82,113,31,-98,26,72,115,161,203,111,127,107
77,103,25,-90,26,64,121,115,173,54,85,86
5,66,61,-36,-28,63,119,60,112,-17,36,54
15,53,38,-34,-12,45,121,26,81,-67,-16,44
54,56,2,-55,26,29,119,24,87,-89,-42,46
36,54,19,-45,8,37,121,25,84,-87,-40,44
-11,54,66,-22,-39,60,117,17,86,-82,-38,46
-14,60,74,-23,-44,66,87,21,79,-79,-36,44
13,74,61,-44,-24,67,46,6,45,-73,-32,46
12,65,54,-39,-21,59,20,-5,22,-85,-39,44
26,59,33,-43,-4,46,8,-13,2,-82,-31,46
42,71,28,-57,6,49,8,-35,-10,-97,-38,44
51,57,6,-54,22,31,5,-14,-1,-73,-21,45
14,73,58,-44,-22,65,-1,-40,-10,-85,-21,46
20,72,51,-46,-16,61,3,-6,4,-67,-15,35
25,74,49,-50,-12,61,-2,-37,-5,-65,3,40
8,53,45,-31,-18,49,19,-7,6,-79,-28,22
55,41,-14,-48,34,14,11,9,24,-47,-7,35
75,21,-54,-47,64,-16,64,173,143,126,14,38
210,188,-22,-199,116,82,30,372,411,913,589,284
-41,761,802,-360,-422,781,-1,-563,144,217,520,460
-531,541,1073,-5,-802,807,101,-1199,-746,-1509,-680,-41
-452,-184,268,318,-360,42,-135,-964,-1241,-1469,-944,-387
-237,-211,26,224,-131,-92,-209,-498,-683,-695,-518,-236
-95,-69,26,82,-61,-21,-62,45,-24,-147,-203,-69
-30,-36,-5,33,-13,-20,-52,25,24,-42,-115,-26
-30,-40,-10,36,-10,-25,-1,7,2,-109,-143,-41
0,-42,-42,21,21,-41,-4,15,-5,-83,-103,-29
-25,-38,-13,32,-6,-25,7,-10,-19,-124,-118,-31
-32,-55,-23,44,-4,-39,13,9,-21,-109,-97,-30
-8,-46,-39,27,16,-42,18,-17,-37,-126,-98,-25
21,-39,-60,10,40,-49,25,-1,-14,-103,-88,-16
19,-35,-54,9,37,-44,33,16,15,-77,-66,-4
18,-35,-53,9,36,-43,69,61,49,-54,-50,7
17,-33,-51,8,34,-42,52,69,57,-32,-33,20
20,-29,-48,5,34,-39,28,75,53,-2,-1,38
64,-30,-94,-16,79,-62,5,81,57,33,34,53
103,-41,-145,-31,124,-93,-26,96,54,59,53,70
116,-28,-144,-44,130,-86,-31,112,55,91,89,92
116,-29,-146,-43,131,-87,-25,112,60,102,103,105
125,-20,-145,-52,135,-82,-21,116,65,107,116,119
149,13,-136,-81,142,-61,-16,120,84,120,134,129
172,36,-136,-104,154,-50,-12,119,102,134,143,137
157,62,-95,-109,126,-16,-6,107,122,134,161,156
141,76,-66,-108,104,5,1,96,136,99,132,154
113,104,-9,-108,61,47,18,76,140,46,94,142
52,106,55,-79,-2,80,36,43,117,8,71,117
41,90,49,-66,-4,69,45,14,77,-23,30,75
36,80,44,-59,-4,62,49,3,60,-66,8,52
6,54,48,-30,-21,50,46,8,44,-81,-15,39
-23,30,53,-3,-38,41,45,11,44,-75,-38,33
-27,17,44,5,-35,30,45,14,46,-74,-41,25
-13,31,43,-9,-28,37,45,19,44,-70,-40,20
2,42,39,-22,-19,40,45,20,45,-68,-38,11
36,39,3,-38,16,21,47,20,44,-64,-36,13
21,41,20,-31,0,30,53,20,47,-68,-33,28
-11,40,51,-14,-31,45,56,20,54,-68,-47,30
-10,40,50,-15,-30,45,61,21,61,-57,-46,34
-24,46,70,-11,-47,57,69,17,63,-49,-32,34
-22,63,84,-21,-53,73,90,45,93,-15,-9,49
-17,75,92,-29,-54,83,117,86,131,16,25,68
-20,68,88,-24,-54,78,122,87,133,4,24,65
-14,60,74,-23,-45,67,72,37,93,-6,17,65
-19,56,75,-19,-47,65,6,-6,36,-18,13,65
-11,44,55,-17,-33,50,-20,-7,12,-37,5,65
16,56,40,-36,-13,48,-18,-17,7,-37,2,65
24,75,50,-50,-13,62,-12,-24,4,-52,-4,63
21,65,44,-43,-12,54,-9,-31,1,-70,-9,58
5,56,51,-31,-23,53,-4,-38,-4,-72,-13,55
-2,45,47,-22,-25,46,1,-41,-6,-77,-18,52
34,31,-3,-33,18,14,5,-51,-22,-85,-22,47
24,26,2,-25,10,14,5,-49,-28,-87,-28,44
-21,23,44,-1,-33,33,6,-44,-21,-84,-40,41
-9,21,30,-6,-19,25,11,-43,-20,-85,-38,38
-39,17,56,11,-48,36,9,-37,-15,-85,-34,35
-38,15,53,11,-46,34,13,-36,-12,-85,-32,32
4,12,8,-8,-2,10,18,-45,-8,-85,-25,30
-17,6,23,5,-21,15,25,-43,-2,-85,-28,28
-10,-1,9,5,-9,3,29,-37,3,-85,-40,22
-27,-7,20,16,-23,6,26,-35,9,-85,-39,18
-21,-15,6,18,-13,-5,24,-27,6,-86,-45,13
-8,-20,-11,14,2,-15,19,-27,-5,-84,-54,9
-34,-14,21,24,-27,4,19,-28,-7,-84,-56,5
-35,-27,8,31,-21,-9,13,-41,-5,-73,-53,10
-38,-46,-8,42,-15,-26,20,-34,7,-74,-57,14
-27,-47,-21,37,-2,-33,36,-31,8,-65,-54,12
-37,-52,-15,45,-11,-33,53,-20,20,-63,-52,11
-39,-62,-23,51,-8,-42,55,-8,22,-60,-45,20
-21,-34,-14,28,-3,-23,55,9,22,-48,-27,41
-33,-48,-15,40,-8,-31,70,32,21,-59,-32,37
-24,0,25,12,-24,12,22,-39,15,-31,-4,50
-2,11,13,-4,-8,12,-8,-27,30,-58,-23,26
12,-5,-17,-4,15,-11,-7,-36,5,-13,3,27
68,31,-36,-49,52,-2,74,316,276,194,57,51
224,219,-5,-222,114,107,40,394,542,1050,650,302
94,780,687,-437,-297,733,-164,-651,58,963,1068,693
-286,416,703,-65,-495,559,-229,-1246,-899,-1022,-91,299
-359,-361,-3,360,-178,-182,-356,-1060,-1254,-1524,-819,-208
-196,-240,-44,218,-76,-142,-329,-515,-597,-619,-430,-133
-61,-72,-11,67,-25,-41,-116,29,-9,-171,-184,-49
-63,-44,20,53,-41,-12,-49,54,62,-30,-87,-6
-47,-35,12,41,-29,-11,-19,35,53,-86,-86,-6
-7,-40,-33,24,14,-36,-10,38,45,-59,-71,-17
2,-25,-27,12,14,-26,-4,31,39,-67,-69,-9
4,-29,-33,13,19,-31,1,40,33,-67,-65,-12
-17,-28,-11,23,-3,-19,4,30,30,-58,-53,-8
10,-45,-54,18,32,-49,10,40,39,-64,-61,-7
14,-63,-77,25,46,-70,17,38,38,-56,-55,-4
-2,-84,-81,43,39,-82,35,61,51,-45,-50,-5
5,-79,-84,37,45,-81,55,85,69,-9,-38,5
7,-80,-87,37,47,-83,72,102,81,4,-32,12
13,-81,-93,34,53,-87,72,142,117,33,-11,21
44,-80,-124,18,84,-101,75,187,144,68,21,27
67,-76,-143,5,105,-109,79,213,157,105,48,38
60,-65,-125,3,92,-95,80,233,175,141,81,54
62,-54,-116,-4,89,-85,85,249,204,172,114,72
86,-23,-109,-32,98,-66,84,264,228,194,149,103
121,22,-99,-72,110,-38,80,268,238,212,170,119
130,37,-94,-83,112,-29,81,261,260,241,193,136
138,63,-76,-101,107,-6,78,255,274,257,223,155
142,107,-34,-124,88,36,74,235,276,255,227,153
112,107,-5,-109,58,50,75,195,261,226,217,146
80,94,14,-87,32,54,76,144,218,168,181,134
49,83,35,-67,7,59,75,92,165,109,133,112
32,71,39,-52,-4,55,72,55,118,60,94,94
21,59,38,-40,-9,48,69,43,94,36,73,80
15,48,33,-32,-10,40,66,38,88,28,63,68
13,43,30,-28,-8,36,65,30,80,17,54,61
10,37,27,-24,-9,32,65,22,74,8,48,56
11,33,22,-22,-6,27,65,16,65,1,41,50
8,27,19,-17,-6,23,65,20,62,-4,37,45
8,24,16,-16,-4,19,65,27,65,-11,31,40
4,19,14,-12,-5,16,65,32,65,-14,25,36
-1,15,16,-7,-9,15,63,38,65,-10,21,34
-7,7,14,0,-11,10,59,40,64,-5,19,29
-24,-7,17,15,-20,5,60,45,73,-1,29,26
-22,-16,7,19,-14,-4,60,47,75,3,34,21
-5,-31,-26,19,11,-29,60,52,61,9,27,22
10,-39,-49,15,30,-43,60,60,50,7,22,35
6,-48,-54,21,31,-51,53,55,41,-9,17,35
-1,-49,-49,25,24,-49,45,46,36,-21,10,35
16,-28,-44,6,31,-36,36,42,32,-21,18,35
18,-22,-40,2,29,-31,30,30,27,-20,27,35
17,-18,-35,1,27,-26,19,19,23,-20,21,34
17,-13,-30,-2,24,-21,-6,3,18,-20,16,29
13,-9,-22,-1,17,-15,-12,-35,15,-20,13,31
9,-4,-13,-2,12,-9,-9,-47,15,-22,7,27
5,-6,-10,0,8,-7,-10,-41,12,-27,4,24
5,-5,-9,0,7,-6,-4,-40,9,-30,-1,25
6,-6,-11,0,9,-8,-6,-33,10,-41,-5,21
5,-5,-9,0,7,-6,-2,-32,10,-45,-7,20
10,-12,-22,1,17,-17,4,-24,10,-44,-12,20
-18,-44,-26,32,4,-35,9,-33,10,-45,-15,20
-40,-54,-15,47,-12,-34,14,-46,10,-45,-12,21
6,-40,-46,17,26,-43,21,-33,11,-45,-8,18
5,-30,-35,13,20,-32,24,-31,23,-40,-3,16
-9,-30,-21,20,6,-25,21,-21,28,-40,-3,14
12,-29,-41,9,27,-35,20,-17,19,-32,7,16
2,-24,-25,11,14,-24,19,-18,18,-36,1,14
7,-26,-33,10,20,-29,15,-19,11,-26,2,15
5,-14,-19,5,12,-16,14,-24,9,-35,-6,12
-8,-30,-22,19,7,-26,20,-12,3,-38,-8,7
3,-31,-34,14,19,-32,29,-25,-1,-33,-8,14
14,-57,-71,22,43,-64,34,-1,2,-42,-23,4
0,-76,-76,38,38,-76,21,-26,-8,-19,-9,18
-10,-101,-92,56,42,-96,25,6,0,-47,-51,0
22,-99,-121,39,72,-110,34,13,4,-3,-2,1
73,-94,-167,10,120,-130,113,307,259,217,43,8
244,115,-129,-179,186,-7,104,492,552,1143,720,298
102,724,623,-413,-261,673,-105,-499,147,984,1125,691
-300,418,717,-59,-509,567,-174,-1139,-750,-1016,-155,249
-331,-343,-12,337,-159,-178,-249,-950,-1166,-1507,-857,-262
-178,-292,-114,236,-32,-203,-273,-532,-656,-674,-476,-180
-15,-107,-92,61,39,-100,-133,-45,-52,-167,-190,-71
30,-38,-68,5,49,-53,-75,-2,45,2,-71,-45
-8,-45,-38,27,15,-41,-37,8,18,-62,-103,-50
-3,-71,-68,37,33,-70,-22,9,19,-44,-76,-40
19,-53,-72,17,45,-62,-12,-13,9,-55,-81,-35
33,-47,-80,7,57,-64,-2,-2,8,-41,-73,-31
-23,-80,-57,52,17,-68,-8,-27,-2,-35,-64,-25
-21,-103,-82,62,31,-92,-1,-8,-3,-32,-57,-25
14,-83,-96,35,55,-89,-1,4,2,-21,-40,-19
7,-80,-88,37,48,-84,0,29,12,-11,-34,-18
5,-70,-74,33,40,-72,4,50,31,13,-22,-15
26,-68,-94,21,60,-81,13,68,50,33,-9,-12
67,-64,-130,-1,99,-97,22,97,73,64,29,2
56,-61,-117,3,87,-89,27,118,94,97,55,15
43,-56,-99,7,71,-77,41,152,120,146,90,26
71,-57,-128,-7,100,-92,62,189,154,179,130,41
94,-72,-166,-11,130,-119,73,194,171,199,141,53
99,-68,-167,-15,133,-117,72,198,178,209,145,64
86,-77,-163,-5,124,-120,70,204,169,202,172,81
118,-66,-184,-26,151,-125,69,205,163,209,199,105
143,-29,-171,-57,157,-100,65,199,185,213,198,118
112,-19,-131,-47,122,-75,66,193,202,215,202,112
87,-12,-99,-38,93,-55,79,181,206,203,194,99
80,0,-79,-40,79,-39,88,132,171,138,138,85
66,12,-54,-39,60,-21,49,58,117,67,91,68
68,22,-46,-44,57,-12,9,4,72,23,65,53
72,28,-44,-50,58,-8,10,-17,40,-3,41,40
56,24,-33,-40,44,-4,10,-18,34,-21,28,32
34,13,-22,-24,28,-4,13,-12,28,-33,16,28
21,7,-14,-14,17,-4,16,-7,20,-27,5,21
10,-10,-20,0,15,-14,15,-4,16,-25,1,16
2,-16,-18,7,11,-17,20,2,5,-21,-11,11
-13,-15,-2,14,-5,-8,22,5,17,-16,-22,10
-19,-13,5,16,-12,-4,26,5,44,-14,-3,8
-9,-8,1,9,-5,-4,30,4,45,-8,19,4
1,-13,-14,6,8,-13,28,8,45,-3,21,5
20,6,-14,-13,17,-4,25,17,50,3,20,5
14,22,8,-18,3,15,25,26,50,9,20,5
50,9,-41,-30,45,-16,25,33,49,14,15,5
44,0,-45,-22,44,-22,25,31,41,11,15,5
36,-13,-49,-12,43,-30,24,24,34,3,13,5
45,-24,-69,-11,57,-46,37,21,27,-2,10,1
-3,-35,-32,19,15,-33,45,16,19,-9,8,0
18,-44,-62,13,40,-52,46,11,13,-16,4,0
11,-54,-65,22,39,-59,44,12,15,-19,2,-4
-2,-79,-77,41,38,-78,48,22,30,-21,-1,-5
21,-83,-104,31,63,-93,59,32,38,-19,-3,-6
9,-72,-81,32,46,-77,59,27,30,-21,-16,-22
23,-70,-93,24,58,-82,52,18,21,-19,-21,-36
27,-55,-82,14,55,-68,11,-6,2,-26,-17,-33
25,-51,-75,13,50,-63,-25,-27,-19,-41,-25,-38
36,-30,-66,-3,51,-48,-33,-47,-36,-31,-9,-31
30,-33,-63,2,46,-48,-26,-33,-23,-39,-24,-40
26,-28,-53,1,39,-41,-35,-47,-37,-17,-5,-30
22,-29,-51,4,36,-39,-25,-44,-23,-33,-20,-31
30,-36,-66,3,48,-51,-34,-41,-35,-7,-2,-19
31,-17,-48,-7,39,-32,-25,-59,-33,-23,-13,-13
27,-52,-79,12,53,-65,-9,-29,-35,-30,-27,-14
63,-8,-71,-28,67,-39,20,26,33,43,11,12
153,-24,-177,-64,164,-100,143,458,487,619,239,30
208,404,196,-306,6,300,0,124,420,1477,1113,469
-32,606,638,-287,-336,622,-46,-761,-281,141,644,493
-308,-154,153,231,-231,0,-53,-840,-936,-1575,-746,-170
-274,-444,-169,359,-52,-306,-259,-729,-1012,-1156,-738,-323
-129,-254,-125,192,-2,-189,-163,-278,-328,-413,-345,-187
-22,-116,-94,70,36,-104,-66,54,26,-59,-142,-100
-12,-73,-61,43,25,-67,-38,9,32,-34,-87,-63
-24,-105,-81,64,28,-93,8,45,52,-53,-95,-71
-22,-77,-55,50,17,-65,9,20,17,-23,-74,-60
-12,-98,-87,55,38,-92,21,35,23,-44,-95,-69
10,-97,-107,44,59,-102,16,29,10,-21,-73,-62
2,-118,-119,58,61,-118,24,34,13,-41,-74,-66
18,-138,-156,60,87,-146,25,37,7,-33,-58,-59
27,-132,-159,52,94,-145,22,32,5,-33,-50,-53
27,-142,-170,57,99,-156,6,41,6,-24,-41,-50
40,-131,-171,46,105,-151,-6,51,14,-10,-29,-41
37,-107,-144,36,91,-125,-23,62,27,8,-14,-39
46,-87,-132,21,89,-109,-33,60,31,53,19,-28
43,-70,-113,13,78,-91,-19,104,74,127,77,5
57,-32,-89,-12,74,-61,-9,135,116,185,124,21
95,13,-82,-54,88,-34,18,152,160,231,156,35
116,43,-73,-80,95,-15,37,169,191,259,191,65
117,85,-32,-101,74,26,34,163,186,265,214,80
96,106,11,-101,42,59,35,166,194,283,240,94
104,121,17,-113,43,69,36,166,202,287,261,113
98,135,37,-117,30,86,34,158,196,267,255,109
80,136,56,-108,12,95,42,136,189,233,226,96
71,128,58,-100,6,93,55,92,166,168,182,76
34,96,62,-65,-14,79,56,58,125,98,133,43
14,71,58,-43,-22,64,52,45,91,62,84,23
-4,59,63,-27,-34,61,50,28,71,29,50,9
-13,40,53,-13,-33,46,50,19,67,14,43,-9
12,41,29,-27,-9,35,50,21,65,14,40,-20
12,38,26,-25,-8,32,50,19,60,10,34,-20
-10,3,12,3,-11,8,51,21,57,8,28,-20
-14,-17,-4,16,-5,-10,56,27,53,5,21,-19
-1,-31,-31,16,15,-31,55,35,46,3,14,-22
10,-65,-75,28,43,-70,52,44,39,-3,7,-32
29,-67,-96,19,63,-82,49,44,32,-7,5,-30
17,-73,-90,28,54,-81,46,38,24,-10,5,-30
17,-94,-111,38,65,-102,45,32,17,-16,1,-30
38,-68,-106,15,72,-86,34,26,10,-21,0,-30
-4,-65,-61,35,29,-63,16,22,2,-27,0,-30
16,-68,-84,26,50,-75,2,9,-6,-33,-5,-33
13,-54,-67,21,40,-60,-11,-13,-15,-33,-9,-42
7,-45,-52,19,30,-48,-22,-29,-19,-26,-14,-42
15,-33,-47,9,31,-40,-19,-32,-10,-14,-13,-37
1,-6,-7,3,4,-6,-7,-23,-1,-1,-6,-34
51,37,-14,-44,33,11,1,-2,17,17,-1,-31
44,40,-4,-42,24,18,10,7,28,25,4,-26
6,35,30,-21,-13,32,14,0,22,18,15,-26
-23,33,56,-5,-39,44,11,-5,20,14,23,-30
-30,29,59,1,-45,44,8,-10,15,8,18,-29
-36,24,60,6,-48,41,5,-18,11,1,15,-32
-31,25,57,3,-44,41,2,-17,9,4,12,-35
-16,45,61,-15,-39,53,-1,-20,3,7,7,-35
-15,42,57,-14,-36,49,2,-36,-3,4,5,-39
-26,35,61,-5,-44,48,6,-33,-8,-1,11,-40
-31,34,65,-2,-49,49,5,-29,-14,-14,10,-40
-29,26,55,1,-42,40,5,-26,-19,-15,6,-40
-25,26,51,-1,-38,38,5,-21,-17,-9,4,-39
2,24,22,-13,-11,23,5,-19,-14,-7,1,-41
-5,27,32,-11,-19,29,10,-12,-15,-2,0,-45
7,8,0,-8,3,4,15,-7,-15,0,-7,-45
7,-39,-46,16,26,-42,20,-1,-15,-7,-15,-45
-10,-69,-59,39,25,-64,23,4,-16,-17,-23,-48
-10,-95,-85,53,38,-90,29,1,-25,-25,-30,-53
-16,-110,-95,63,40,-102,28,-6,-36,-35,-42,-56
-10,-119,-108,65,49,-113,21,-12,-44,-42,-58,-63
-21,-146,-125,84,52,-136,16,-19,-52,-51,-57,-62
2,-145,-147,72,75,-146,10,-26,-46,-58,-51,-57
27,-112,-139,43,83,-125,5,-28,-61,-58,-46,-55
2,-106,-108,52,55,-107,0,-26,-87,-54,-41,-50
6,-109,-114,52,60,-111,-4,-21,-74,-51,-35,-47
-20,-74,-54,47,17,-63,-9,-22,-45,-42,-29,-43
-18,-32,-14,25,-2,-22,-13,-25,-17,-23,-26,-41
18,1,-17,-10,17,-7,-15,-34,-15,-5,-16,-39
-41,5,46,18,-44,25,-7,-18,-3,2,-17,-39
-50,5,55,22,-53,30,-10,-24,-8,18,-4,-33
-7,5,12,1,-10,9,-2,-13,6,21,-5,-36
7,11,4,-9,1,7,-2,-8,2,32,4,-36
-32,34,66,-2,-49,50,0,-31,-1,37,14,-33
-31,15,46,8,-39,30,9,-28,-1,34,17,-39
-24,38,62,-7,-43,49,3,-42,-26,49,35,-28
-33,12,45,10,-39,28,31,22,17,35,11,-44
4,26,21,-15,-9,24,1,-5,1,61,36,-27
56,23,-32,-39,44,-4,108,334,344,383,124,2
211,320,108,-266,51,214,34,249,440,1331,920,357
55,722,667,-389,-306,694,-162,-657,-203,881,1070,603
-266,91,358,87,-312,224,-110,-883,-874,-1173,-368,20
-285,-458,-173,372,-56,-315,-261,-793,-1128,-1442,-850,-340
-156,-278,-122,218,-17,-199,-242,-413,-526,-530,-417,-204
-35,-134,-99,85,32,-116,-60,48,26,-100,-173,-114
-38,-72,-34,55,-2,-52,-43,50,48,32,-52,-62
-20,-82,-61,51,21,-71,-23,49,29,-15,-86,-68
-17,-64,-46,41,15,-55,-11,31,14,8,-60,-64
-33,-62,-29,48,-2,-45,11,36,24,-9,-68,-71
-19,-61,-42,41,12,-51,15,36,17,-10,-60,-68
-27,-53,-26,40,0,-39,14,34,22,-5,-56,-63
-19,-55,-36,37,8,-45,17,35,18,-5,-52,-67
-21,-47,-26,34,2,-36,41,53,43,23,-39,-63
-11,-65,-55,38,22,-60,51,89,61,44,-39,-66
-3,-69,-66,37,32,-68,67,100,71,56,-15,-64
7,-57,-64,26,36,-61,96,145,124,85,9,-54
19,-46,-66,14,42,-55,79,152,138,139,37,-35
14,-50,-64,18,40,-57,45,147,141,175,65,-19
53,-28,-81,-12,67,-54,24,173,151,223,115,3
76,-7,-83,-34,80,-45,25,180,149,245,148,28
66,-9,-75,-28,71,-42,25,173,150,254,161,36
97,26,-71,-62,84,-22,25,170,146,274,186,47
102,38,-65,-70,83,-13,25,165,145,280,213,65
105,42,-62,-73,83,-9,25,162,145,276,234,83
112,56,-56,-84,83,0,25,153,151,276,230,91
95,58,-38,-76,66,10,25,138,152,270,231,79
96,68,-29,-82,63,19,25,124,138,230,213,68
75,44,-31,-59,52,6,25,91,112,163,167,57
35,6,-29,-21,32,-11,33,57,71,96,125,38
19,-12,-31,-3,25,-21,32,33,26,55,70,17
-8,-37,-29,23,11,-32,26,13,-4,14,32,-3
-16,-54,-37,35,11,-45,21,-2,-18,-2,17,-20
-7,-57,-50,32,22,-54,14,-8,-34,0,0,-35
-24,-74,-50,49,14,-62,11,0,-46,-18,-6,-36
-18,-68,-50,43,16,-59,15,2,-42,-21,-9,-34
-10,-60,-50,35,20,-55,26,8,-28,-12,-7,-36
-4,-55,-50,30,23,-52,31,13,-16,0,5,-34
0,-46,-47,23,24,-46,42,15,-4,2,6,-36
-5,-44,-39,25,18,-41,46,39,21,36,20,-32
-7,-31,-24,19,9,-27,57,60,45,43,23,-26
-17,-30,-13,24,-2,-21,86,85,72,68,43,-19
-31,-8,22,19,-26,7,80,68,75,83,45,-12
-20,-2,18,11,-20,8,51,56,53,94,43,-8
0,12,12,-6,-7,12,9,55,47,103,73,4
20,24,4,-22,8,14,0,53,43,87,69,-1
35,23,-12,-29,23,5,-8,61,38,130,100,21
20,9,-11,-14,16,-1,-8,41,35,70,48,3
45,-48,-93,2,70,-70,7,82,28,157,103,9
50,-135,-185,42,118,-160,66,209,134,131,27,-24
148,-109,-257,-20,203,-182,119,467,387,825,336,51
-12,425,437,-206,-225,431,124,167,529,837,606,263
-481,520,1002,-20,-742,760,368,-221,460,-809,-397,-66
-467,-85,382,276,-424,148,510,202,373,-784,-785,-419
-337,-297,39,317,-188,-129,551,510,451,-223,-474,-410
-355,-308,47,331,-201,-130,799,548,569,-188,-382,-392
-323,-311,12,317,-167,-149,972,537,531,-25,-236,-326
-286,-299,-13,293,-136,-156,767,257,162,-98,-211,-264
-156,-272,-116,214,-19,-194,262,11,-224,-10,-89,-161
-50,-185,-135,117,43,-159,-44,-18,-224,34,1,-86
-14,-158,-145,86,66,-151,-149,-51,-190,72,40,-47
-11,-147,-136,79,63,-141,-172,-84,-206,45,49,-20
7,-137,-144,65,76,-140,-159,-97,-212,-3,40,-20
31,-124,-154,47,93,-139,-167,-128,-230,-6,50,-9
18,-112,-130,47,74,-120,-156,-125,-222,-1,40,-5
2,-102,-104,50,53,-103,-162,-120,-227,26,66,3
24,-102,-126,39,76,-114,-155,-113,-224,27,90,24
58,-93,-151,17,105,-121,-146,-104,-224,63,101,36
67,-80,-147,7,108,-114,-200,-138,-245,92,141,59
92,-58,-151,-16,122,-104,-285,-194,-293,111,191,105
134,-42,-176,-46,156,-109,-337,-202,-318,134,225,133
164,-47,-210,-58,187,-129,-377,-211,-343,126,259,165
179,-44,-223,-67,201,-133,-407,-237,-390,111,265,186
195,-47,-242,-74,219,-144,-434,-258,-414,99,254,194
182,-38,-219,-72,201,-128,-437,-275,-422,82,251,198
172,0,-172,-85,172,-86,-435,-298,-412,70,237,183
188,40,-148,-114,168,-54,-432,-324,-399,27,202,177
129,44,-85,-86,107,-20,-397,-308,-365,-8,155,156
80,32,-48,-56,64,-8,-345,-258,-287,-24,103,123
89,20,-69,-54,79,-24,-271,-193,-207,-38,56,85
50,-3,-54,-23,52,-28,-193,-122,-123,-35,17,48
36,-21,-57,-7,46,-39,-116,-64,-49,-35,-12,27
24,-50,-74,14,49,-62,-63,-16,-3,-33,-25,-3
-2,-62,-60,32,29,-60,-25,14,12,-29,-36,-26
10,-55,-65,22,38,-59,11,27,10,-31,-48,-32
2,-53,-55,26,29,-54,15,31,10,-25,-44,-28
18,-48,-66,15,42,-57,15,30,10,-15,-37,-22
1,-46,-47,22,25,-46,15,30,10,-5,-32,-17
-59,-40,19,49,-39,-10,15,30,11,5,-22,-11
-54,-31,23,42,-38,-4,15,31,19,15,-13,-6
-33,-22,12,27,-22,-5,19,29,22,25,-5,-2
-6,-15,-10,11,3,-12,26,37,37,37,3,1
26,4,-21,-15,23,-8,41,60,59,61,13,4
3,8,4,-5,-1,6,71,88,77,80,22,7
-52,-10,42,31,-47,16,63,79,85,78,33,10
-57,12,68,22,-63,40,29,47,63,72,46,9
1,28,28,-15,-14,28,1,39,53,68,46,4
24,18,-6,-21,15,6,-22,33,48,61,45,1
9,15,6,-13,2,10,-35,25,20,57,41,-3
42,8,-35,-25,39,-13,-43,18,-16,48,40,-7
60,-22,-82,-18,71,-52,-38,11,-38,33,38,-10
-6,-36,-30,21,13,-33,-35,15,-41,20,28,-14
-27,-49,-22,38,-2,-35,-32,15,-35,15,20,-26
-21,-62,-41,42,10,-51,-27,16,-30,15,10,-33
-25,-54,-29,40,3,-41,-24,20,-27,13,6,-30
-8,-54,-45,31,19,-49,-21,20,-20,10,3,-30
-15,-47,-32,32,9,-40,-18,18,-23,9,0,-28
-33,-46,-13,40,-10,-29,-16,13,-31,24,-3,-25
-30,-40,-10,35,-10,-25,-12,10,-33,30,-5,-25
-17,-36,-20,27,2,-28,-10,7,-37,21,-7,-29
-10,-27,-16,19,3,-21,-7,2,-39,17,-12,-33
-13,-32,-20,22,4,-26,-4,1,-36,11,-17,-38
-46,-67,-21,57,-12,-44,-5,4,-34,7,-19,-38
-50,-54,-5,52,-22,-30,-4,1,-30,4,-15,-36
-42,-37,5,40,-23,-16,-6,-12,-30,7,-10,-32
-53,-38,15,45,-33,-11,-4,3,-22,3,-6,-30
-38,-31,7,34,-22,-12,-14,2,-31,6,-11,-27
-40,-24,16,32,-28,-4,-16,-14,-38,6,-26,-24
-35,-23,12,29,-23,-5,1,10,-30,16,-13,-27
-22,-11,11,16,-16,0,17,22,-20,33,5,-22
-65,-14,51,39,-58,18,34,30,5,32,6,-31
-81,1,82,40,-81,41,27,7,8,54,29,-31
-67,-1,66,33,-67,32,11,19,14,33,13,-39
-55,8,63,23,-59,35,-37,-9,5,69,31,-31
-12,10,22,1,-17,16,-36,1,8,45,8,-38
-6,-46,-40,26,18,-43,-31,5,-37,57,29,-35
12,-47,-59,18,36,-53,24,221,133,141,34,-30
178,37,-141,-108,159,-52,62,506,469,855,431,115
144,603,459,-374,-158,531,-178,-382,88,1280,1115,562
-238,568,805,-165,-522,686,-320,-1280,-881,-555,269,386
-396,-306,91,351,-243,-107,-418,-1175,-1409,-1659,-790,-210
-260,-378,-119,319,-71,-248,-417,-666,-871,-808,-544,-244
-109,-137,-28,124,-41,-82,-185,-44,-148,-209,-222,-119
-37,-103,-66,70,15,-84,-102,70,-61,-17,-108,-77
-49,-85,-36,68,-6,-61,-72,30,-75,-49,-88,-72
-39,-104,-64,72,13,-84,-60,43,-65,-40,-83,-78
-32,-88,-56,60,12,-72,-64,20,-75,-35,-73,-67
-40,-100,-60,70,11,-80,-53,38,-66,-47,-77,-73
-29,-90,-61,59,16,-75,-55,24,-69,-32,-63,-67
-27,-83,-56,55,15,-70,-47,35,-52,-37,-67,-66
-14,-73,-59,44,23,-66,-45,25,-48,-19,-57,-64
-22,-61,-39,42,9,-50,-35,46,-32,-17,-55,-65
-35,-56,-21,45,-6,-38,-29,60,-25,-9,-51,-65
10,-49,-59,20,35,-54,-22,90,6,18,-38,-65
16,-47,-63,16,40,-55,-2,134,53,63,-8,-59
7,-41,-48,17,28,-44,28,182,97,108,31,-42
30,-36,-66,3,48,-51,69,262,159,171,59,-31
41,-19,-60,-11,51,-39,108,306,211,219,96,-12
69,17,-53,-43,61,-18,87,304,238,253,122,1
64,40,-24,-52,44,8,58,302,243,279,145,15
76,60,-17,-68,47,21,56,327,243,301,180,40
135,74,-61,-104,98,6,47,325,233,308,190,47
149,77,-71,-113,110,3,41,311,220,300,200,60
108,78,-30,-92,69,24,34,288,209,301,210,69
78,85,7,-81,36,46,29,238,180,270,198,57
71,83,12,-77,29,47,20,170,138,201,167,50
28,68,40,-48,-6,54,10,105,86,142,124,41
2,57,55,-30,-26,56,0,65,45,92,91,23
-18,29,47,-6,-33,38,-9,31,12,49,59,3
-30,20,49,5,-40,34,-11,8,-16,34,34,-6
-26,18,44,3,-35,31,-13,5,-31,23,27,-12
-35,9,44,13,-40,26,-18,5,-36,13,22,-20
-45,7,52,19,-49,29,-17,2,-36,8,19,-28
-63,-2,61,32,-62,30,-29,-1,-33,0,13,-34
-47,14,60,17,-54,37,-44,1,-30,-5,10,-31
-35,23,58,6,-47,40,-35,5,-28,-14,14,-26
-62,16,77,23,-70,46,-27,9,-25,-12,15,-24
-58,33,92,12,-75,62,-20,14,-23,1,14,-19
-40,42,82,-1,-61,62,-12,17,-14,11,15,-16
-46,34,79,6,-63,56,-4,26,-7,22,14,-13
-45,31,76,7,-60,53,4,35,-2,27,19,-10
-41,27,68,7,-55,47,21,63,26,46,31,-10
-66,18,85,24,-76,51,48,108,56,70,32,-10
-59,35,94,12,-76,64,65,117,68,68,29,-10
-19,58,77,-20,-48,68,33,83,51,64,29,-11
-21,56,77,-18,-49,66,-29,34,15,62,25,-14
-19,53,72,-17,-47,63,-57,14,-28,47,24,-20
-12,58,70,-23,-41,63,-61,-6,-58,20,25,-19
-27,52,79,-13,-53,65,-58,-5,-62,3,10,-28
-30,58,87,-14,-59,72,-67,-19,-82,7,13,-26
-34,50,84,-8,-59,67,-62,-22,-72,-14,-6,-35
-45,43,88,1,-67,65,-69,-35,-69,-4,-1,-34
-36,45,80,-5,-58,62,-69,-40,-60,-27,-19,-36
-16,26,42,-5,-29,33,-69,-27,-52,-11,-18,-43
-33,42,75,-5,-54,58,-72,-61,-59,-15,-16,-34
-28,5,33,11,-31,19,-56,1,-54,-11,-30,-57
-22,14,36,4,-29,25,-54,22,-24,31,-6,-48
49,-33,-82,-8,66,-57,85,465,338,378,78,-53
206,338,132,-272,37,234,13,331,503,1314,892,351
-67,756,823,-345,-445,789,-110,-766,-157,420,787,561
-429,84,513,172,-471,299,-139,-1097,-1060,-1419,-588,-81
-392,-406,-14,399,-188,-210,-354,-917,-1220,-1253,-807,-373
-217,-244,-27,231,-95,-135,-276,-388,-538,-483,-386,-215
-78,-105,-27,91,-25,-66,-130,30,-57,-72,-152,-117
-60,-27,33,43,-46,3,-113,4,-40,3,-86,-59
-29,-49,-19,39,-5,-34,-70,58,-56,-32,-96,-62
-30,-46,-17,38,-7,-31,-66,37,-41,9,-47,-50
-37,-49,-12,43,-13,-30,-56,52,-38,-14,-67,-58
-19,-45,-26,32,4,-35,-62,55,-45,13,-48,-54
-48,-41,7,44,-27,-16,-59,52,-46,6,-49,-54
-47,-41,6,43,-27,-17,-70,59,-51,25,-38,-59
-3,-34,-31,19,14,-32,-78,51,-43,37,-33,-59
1,-36,-37,18,19,-36,-72,59,-32,35,-38,-54
2,-30,-31,14,16,-30,-72,69,-18,59,-27,-47
24,-25,-50,1,38,-38,-66,90,-17,82,-6,-43
19,-22,-40,2,30,-31,-65,97,-2,113,37,-36
47,-16,-63,-15,56,-39,-63,110,20,145,70,-17
37,2,-35,-19,36,-16,-57,136,30,179,108,7
46,32,-15,-39,30,8,-53,154,64,224,155,28
90,70,-20,-80,55,24,-49,156,71,231,172,43
83,88,5,-86,39,46,-44,160,86,245,181,53
89,87,-2,-88,45,42,-40,160,98,266,212,72
85,98,13,-92,36,55,-33,151,96,266,227,75
81,101,21,-91,30,61,-22,140,110,264,223,68
35,89,54,-62,-10,71,-12,131,102,225,210,67
-19,77,97,-29,-58,87,-3,113,93,172,165,54
1,67,66,-34,-33,67,5,87,61,122,96,27
4,47,43,-26,-20,45,10,54,29,80,46,-6
-1,39,40,-19,-21,40,18,33,26,46,19,-34
18,25,7,-21,5,16,24,39,19,23,13,-43
-47,9,56,18,-52,33,30,33,13,14,19,-37
-56,27,83,14,-70,55,8,21,10,23,6,-43
-21,42,63,-11,-42,52,-38,6,-2,54,16,-37
-46,34,81,6,-64,57,-47,6,-3,30,3,-43
-29,25,54,2,-42,40,-57,4,-29,41,17,-40
-50,30,80,10,-65,55,-48,4,-56,16,4,-49
-11,7,18,2,-15,12,-42,8,-56,27,12,-58
-21,25,46,-2,-34,35,-28,11,-37,25,14,-42
-40,-22,19,31,-30,-1,-14,36,-31,22,-11,-68
-12,-39,-26,25,7,-32,-11,55,-19,32,-20,-53
42,-75,-117,17,79,-96,15,305,142,237,-10,-68
151,296,145,-223,2,221,-180,-28,113,938,723,291
-174,904,1078,-365,-627,991,-279,-1038,-530,-163,526,461
-494,256,749,119,-622,502,-216,-1286,-1309,-1771,-787,-152
-375,-327,48,350,-211,-139,-273,-784,-1119,-1106,-790,-360
-159,-82,77,121,-118,-2,-211,-146,-289,-222,-284,-183
-75,-77,-1,76,-37,-39,-119,90,-29,45,-118,-121
-105,-75,30,90,-67,-22,-76,33,-65,58,-96,-99
-64,-73,-9,69,-28,-40,-54,56,-42,22,-117,-123
-31,-69,-38,50,4,-53,-51,29,-50,39,-89,-114
-18,-59,-41,39,12,-50,-47,33,-47,2,-105,-123
-6,-57,-51,32,23,-54,-53,30,-66,11,-88,-123
-25,-64,-39,45,7,-51,-48,28,-57,-10,-92,-125
-49,-105,-56,77,4,-80,-51,33,-48,-3,-80,-120
-36,-91,-54,64,9,-73,-51,25,-43,0,-77,-112
-26,-90,-64,58,19,-77,-36,52,-29,40,-62,-107
-19,-83,-64,51,23,-74,6,104,0,76,-18,-87
-6,-76,-70,41,33,-73,39,152,56,113,14,-72
-8,-76,-68,42,31,-72,11,173,86,186,54,-63
12,-73,-85,31,49,-79,-28,178,94,234,84,-49
33,-77,-110,22,72,-93,-27,212,138,286,129,-20
47,-73,-121,13,85,-97,-21,259,162,331,179,-2
63,-77,-140,7,102,-109,-16,258,143,319,186,4
94,-77,-171,-9,133,-123,-9,241,133,291,184,15
117,-52,-169,-32,143,-110,-6,225,123,278,181,28
101,-14,-115,-44,108,-64,-9,191,117,257,180,42
79,16,-62,-47,70,-23,-16,151,102,222,169,34
61,27,-34,-43,47,-3,-21,109,68,167,135,17
45,33,-12,-39,28,10,-28,63,29,102,91,-2
27,31,4,-29,11,17,-28,36,-2,52,43,-35
14,24,10,-19,2,17,-24,35,-16,38,9,-46
6,21,15,-14,-5,18,-25,35,-26,37,-2,-44
-5,15,20,-6,-13,17,-21,30,-26,33,2,-51
-15,13,28,1,-22,21,-20,30,-24,28,-1,-57
-23,5,27,9,-25,16,-20,31,-24,24,1,-53
-29,6,35,12,-32,20,-15,29,-20,30,0,-50
-28,13,41,7,-35,27,-14,32,-20,45,2,-49
-26,19,46,3,-36,32,-16,27,-19,48,11,-42
-21,11,33,5,-28,22,-13,34,-11,40,5,-48
-17,18,34,-1,-26,26,-17,26,-13,53,22,-41
-14,15,29,-1,-22,22,-11,37,-4,50,9,-50
-7,12,19,-3,-13,15,-8,36,-5,87,31,-40
-42,26,68,7,-55,47,0,39,2,53,-6,-51
-36,24,60,5,-48,42,5,53,16,95,25,-45
-18,83,101,-33,-60,92,12,53,36,115,58,-5
-7,43,50,-18,-29,46,34,112,62,143,51,-29
-26,32,57,-3,-42,45,76,142,97,156,76,-41
17,-73,-90,29,54,-81,176,518,434,434,60,-82
151,353,202,-252,-26,277,-5,222,469,1377,833,292
-136,906,1042,-385,-589,974,-262,-902,-414,139,639,450
-437,91,528,173,-482,310,-259,-1125,-1274,-1730,-721,-157
-291,-388,-97,340,-97,-242,-271,-671,-1055,-1059,-719,-334
-102,-146,-44,124,-29,-95,-207,-137,-272,-196,-253,-157
-26,-131,-105,79,40,-118,-124,61,-10,37,-117,-115
-42,-106,-64,75,11,-85,-101,13,-61,32,-80,-103
-31,-141,-110,86,39,-125,-72,21,-74,-5,-95,-111
-26,-125,-100,76,37,-112,-72,-12,-92,18,-75,-98
-42,-130,-88,87,23,-109,-61,7,-87,-9,-89,-102
-40,-132,-93,86,27,-112,-57,-4,-89,21,-74,-97
-55,-126,-71,91,8,-98,-49,1,-77,4,-83,-93
-57,-138,-81,98,12,-109,-43,0,-73,21,-72,-90
-34,-135,-101,84,34,-118,-39,9,-66,18,-62,-86
-30,-145,-115,88,43,-130,-31,34,-60,27,-52,-83
-42,-143,-101,93,30,-122,-28,51,-45,61,-24,-79
-28,-135,-107,82,39,-121,-20,77,-18,88,-16,-73
-3,-127,-124,65,61,-125,-18,109,12,136,8,-65
15,-110,-124,48,70,-116,-4,151,60,187,54,-56
9,-101,-110,46,60,-105,18,177,93,218,73,-39
28,-80,-108,26,69,-94,27,199,123,248,102,-23
63,-45,-108,-9,86,-76,38,223,152,276,135,-2
83,-35,-118,-24,101,-77,56,252,181,301,164,16
75,-25,-100,-24,88,-62,68,254,207,329,191,31
63,4,-59,-33,61,-27,41,216,185,326,193,36
62,46,-17,-54,39,14,7,173,153,294,187,29
18,50,32,-34,-7,41,-4,123,126,258,174,24
-21,32,52,-6,-37,41,-34,66,73,202,146,18
-16,16,32,0,-24,24,-47,43,19,151,104,12
12,-1,-13,-6,12,-6,-42,37,-24,109,75,5
-18,-34,-16,27,0,-25,-39,31,-42,79,64,-5
-1,-56,-55,29,27,-55,-36,25,-46,81,61,-11
29,-52,-81,12,55,-67,-31,15,-45,65,44,-20
-6,-76,-70,41,32,-73,-29,22,-40,76,50,-27
12,-68,-81,28,47,-74,-18,31,-42,52,38,-33
15,-70,-85,28,51,-78,-4,56,-34,73,43,-30
6,-57,-64,26,35,-60,1,46,-25,80,37,-28
5,-62,-68,29,37,-65,13,73,-3,87,29,-31
-26,-50,-24,39,-1,-37,6,47,-5,101,55,-18
-34,-48,-14,41,-10,-31,26,70,14,85,33,-34
10,-73,-83,31,47,-77,11,86,9,152,75,-20
19,-74,-93,28,56,-83,53,252,153,322,76,-33
156,53,-103,-104,129,-25,26,438,448,1192,652,184
-32,671,703,-320,-368,687,-131,-495,-7,438,655,390
-490,569,1059,-39,-775,814,-102,-1204,-1018,-1633,-632,-77
-463,-193,270,328,-367,39,-172,-912,-1342,-1498,-944,-416
-257,-224,33,240,-145,-95,-223,-414,-683,-528,-464,-263
-99,-112,-13,106,-43,-62,-94,92,-10,53,-142,-131
-45,-108,-63,77,10,-86,-45,95,49,174,-39,-95
-44,-99,-55,72,6,-77,-48,32,-20,60,-74,-98
-45,-105,-60,76,7,-82,-78,27,-40,109,-32,-79
-69,-91,-22,80,-23,-57,-82,-6,-65,60,-44,-76
-43,-94,-51,68,4,-72,-91,9,-77,80,-25,-75
-41,-90,-49,65,4,-69,-101,-10,-86,58,-23,-75
-26,-127,-101,77,37,-114,-89,-6,-87,56,-17,-76
-14,-132,-118,74,52,-125,-85,-6,-113,65,-7,-75
-22,-156,-133,89,56,-144,-77,25,-107,68,-6,-73
-10,-171,-160,91,75,-165,-69,44,-92,95,6,-62
8,-163,-171,78,90,-167,-56,67,-71,123,21,-53
23,-168,-191,73,108,-179,-45,94,-29,168,53,-38
34,-162,-196,64,116,-179,-35,122,8,205,91,-20
45,-160,-206,58,126,-183,-25,149,43,234,117,-7
41,-161,-202,60,121,-181,-15,173,59,261,143,7
51,-136,-187,42,119,-162,-5,191,73,273,164,21
76,-102,-178,13,127,-139,5,201,99,282,175,34
78,-86,-164,5,121,-125,15,215,124,310,197,52
81,-74,-155,-3,118,-114,25,217,150,308,208,55
45,-73,-118,15,82,-96,35,197,142,278,195,48
14,-77,-91,32,53,-84,44,160,122,237,150,38
-17,-80,-62,49,22,-71,46,122,81,169,100,11
-67,-82,-15,75,-26,-48,45,96,21,109,72,-20
-57,-86,-29,72,-14,-57,45,95,-3,83,36,-36
-67,-78,-12,73,-27,-45,45,95,1,72,14,-35
-49,-39,10,44,-29,-14,45,95,14,76,22,-32
-37,-18,19,27,-27,0,57,95,31,111,36,-29
-74,-13,61,44,-67,24,66,98,52,124,45,-25
-52,-10,42,31,-47,16,59,109,44,129,48,-25
-50,-2,49,25,-49,23,24,62,17,133,56,-19
-39,2,42,18,-41,22,-18,36,14,123,53,-20
-34,2,36,16,-36,19,-48,35,7,142,70,-13
-53,-12,40,32,-46,14,-49,45,6,123,54,-14
11,-30,-42,10,27,-36,-46,47,-12,142,63,-8
34,-31,-65,-1,50,-48,-40,44,-41,109,48,-12
25,-56,-81,15,53,-68,-34,68,-44,129,51,-18
14,-42,-56,14,35,-49,-37,36,-51,108,51,-9
-4,-90,-85,47,41,-87,-12,82,-35,123,25,-25
2,-107,-109,53,56,-108,12,91,-21,128,22,-33
54,-230,-284,88,169,-257,119,485,299,341,-2,-90
154,111,-43,-133,99,34,42,367,504,1326,705,221
-156,728,884,-286,-520,806,-120,-850,-317,229,586,394
-502,59,560,221,-531,309,-179,-1229,-1324,-1711,-707,-158
-360,-498,-138,430,-111,-318,-294,-802,-1227,-1183,-782,-368
-160,-251,-91,206,-35,-171,-195,-205,-391,-290,-300,-170
-58,-188,-130,123,36,-159,-84,133,13,55,-101,-86
-64,-156,-91,110,14,-123,-64,53,-29,85,-46,-74
-62,-167,-105,115,21,-135,-29,78,-51,35,-69,-85
-36,-156,-121,96,43,-138,-36,57,-75,71,-44,-76
-52,-151,-99,102,24,-125,-24,62,-82,41,-58,-82
-41,-152,-111,97,35,-131,-24,59,-76,65,-43,-78
-37,-137,-99,88,31,-118,-17,51,-65,49,-46,-73
-40,-133,-94,87,27,-113,-8,62,-54,59,-40,-66
-53,-117,-64,85,6,-90,12,74,-31,70,-29,-59
-46,-112,-67,79,11,-89,36,121,-1,112,-7,-53
-33,-98,-65,66,16,-81,57,164,45,150,22,-46
-29,-93,-64,61,18,-78,77,205,93,185,40,-38
4,-95,-99,46,52,-97,59,201,89,220,69,-19
16,-99,-115,42,65,-107,10,194,86,228,90,-13
38,-104,-142,33,90,-122,-18,190,74,224,105,-7
55,-111,-166,29,111,-138,-11,182,48,217,122,-1
58,-114,-172,29,115,-143,-6,180,52,212,126,3
74,-100,-174,13,124,-137,-3,174,55,203,124,16
43,-87,-130,23,86,-108,4,170,61,226,140,38
23,-67,-90,22,56,-78,4,167,64,243,167,55
23,-41,-64,9,44,-52,0,153,52,222,158,54
15,-39,-54,12,35,-46,0,122,38,184,123,50
15,-42,-57,14,36,-49,0,77,6,134,86,31
-3,-37,-35,21,16,-36,0,44,-31,96,51,3
-25,-48,-23,37,0,-36,0,38,-62,65,31,-2
-41,-66,-25,53,-8,-45,4,31,-72,45,30,-5
-45,-45,0,45,-22,-22,10,24,-68,46,30,-8
-52,-22,30,37,-41,4,16,15,-70,45,26,-12
-82,-47,36,64,-59,-5,21,13,-65,45,25,-16
-96,-60,35,78,-65,-12,26,31,-60,45,26,-14
-86,-51,34,68,-60,-8,30,43,-51,44,24,-16
-82,-47,36,64,-59,-5,31,36,-48,54,27,-14
-75,-40,35,57,-55,-2,37,50,-36,57,23,-15
-76,-38,37,56,-56,0,37,68,-21,83,26,-15
-93,-28,66,61,-79,19,58,102,13,106,34,-12
-88,-33,55,60,-71,11,87,135,42,131,47,-7
-99,-14,84,56,-91,35,81,111,36,122,50,1
-46,11,57,17,-51,34,34,92,11,113,47,1
7,26,19,-17,-7,22,-6,71,-12,118,64,15
-9,-7,2,8,-5,-3,-21,72,-30,87,42,9
-1,-7,-6,4,3,-6,-48,47,-52,119,72,14
-18,-31,-13,24,-2,-21,-20,57,-50,58,32,-8
6,-73,-79,34,42,-76,-13,55,-73,101,36,-15
18,-109,-128,46,73,-118,88,363,198,173,-18,-53
166,-6,-171,-80,168,-88,97,581,542,1032,406,103
85,733,648,-410,-281,690,-184,-541,-33,1132,1022,559
-359,538,897,-90,-628,717,-325,-1452,-1208,-1058,-6,273
-405,-382,23,393,-214,-179,-375,-1100,-1480,-1603,-855,-277
-204,-286,-82,245,-61,-183,-288,-415,-650,-530,-433,-195
-115,-134,-19,125,-48,-76,-115,95,-69,-57,-172,-86
-64,-141,-77,103,7,-109,-76,101,-41,87,-83,-72
-42,-113,-71,78,15,-92,-43,62,-52,5,-84,-66
-46,-131,-84,89,19,-107,-36,76,-72,37,-80,-66
-35,-103,-68,69,17,-85,-27,52,-80,21,-78,-56
-20,-115,-95,68,38,-105,-21,66,-84,24,-83,-57
-35,-98,-62,67,14,-80,-15,46,-80,29,-77,-49
-40,-101,-61,71,10,-81,-7,56,-67,20,-77,-50
-14,-94,-80,54,33,-87,-1,71,-61,44,-38,-45
-42,-87,-45,65,2,-66,15,101,-34,61,-19,-43
-39,-80,-41,60,1,-60,37,155,13,113,-5,-40
-12,-68,-57,40,23,-62,70,212,81,156,12,-37
-1,-68,-67,34,34,-67,69,237,96,209,48,-25
19,-70,-90,26,54,-80,46,234,98,234,68,-12
33,-74,-107,21,70,-90,19,232,84,235,75,-5
45,-77,-122,16,84,-100,8,229,80,236,90,-3
57,-81,-138,12,98,-109,11,225,78,234,105,2
86,-69,-155,-8,121,-112,10,226,59,223,114,3
42,-55,-97,7,70,-76,10,219,109,230,114,12
105,-38,-143,-33,124,-90,10,214,74,265,144,49
37,-6,-43,-15,40,-24,13,202,139,264,165,57
116,14,-101,-65,108,-43,18,167,44,238,148,52
-33,17,50,8,-42,33,19,116,73,187,97,44
67,12,-55,-39,61,-22,25,72,-43,115,66,18
-104,-18,86,61,-95,34,23,46,36,69,50,-2
