I,II,III,aVR,aVL,aVF,V1,V2,V3,V4,V5,V6
-29,-289,-260,160,116,-274,-276,-670,-616,-218,-77,88
-224,-392,-168,308,-28,-280,-249,-767,-871,-563,-351,-100
-362,-584,-222,474,-70,-403,-153,-595,-811,-761,-586,-333
-274,-489,-215,381,-29,-351,-74,-287,-400,-393,-357,-216
-175,-443,-268,309,47,-355,-1,-51,-142,-162,-201,-127
-125,-401,-276,263,76,-338,41,7,-79,-83,-137,-94
-114,-374,-259,244,73,-316,45,49,-61,-54,-109,-79
-116,-377,-261,247,73,-319,68,83,-48,-56,-113,-84
-114,-361,-247,238,67,-303,77,73,-37,-45,-106,-73
-115,-363,-248,240,67,-305,74,69,-31,-50,-114,-76
-119,-349,-230,234,56,-290,72,60,-23,-38,-107,-67
-129,-352,-223,241,47,-287,69,53,-18,-41,-112,-68
-124,-349,-225,237,51,-286,70,48,-10,-32,-109,-62
-122,-350,-229,236,54,-289,65,49,-5,-27,-110,-61
-120,-350,-230,235,55,-290,65,52,1,-23,-110,-57
-113,-349,-236,231,61,-292,66,48,8,-15,-109,-55
-119,-352,-233,236,57,-292,65,56,15,-13,-111,-53
-93,-318,-226,206,67,-272,66,84,21,-5,-102,-44
-100,-299,-199,200,50,-249,62,93,29,0,-84,-36
-106,-291,-185,199,39,-237,54,89,36,8,-63,-19
-76,-256,-181,166,53,-218,48,88,54,35,-42,3
-88,-233,-145,161,28,-189,40,84,77,64,-22,23
-62,-216,-154,139,46,-185,32,86,98,108,16,40
-62,-206,-144,134,42,-174,26,90,111,130,45,68
-75,-193,-118,135,21,-155,21,90,119,131,50,87
-51,-181,-129,117,39,-155,18,91,129,146,68,92
-57,-180,-122,119,33,-150,15,95,131,156,97,97
-55,-180,-125,118,35,-152,12,96,154,180,103,94
-24,-179,-156,102,66,-167,10,91,164,185,92,95
-20,-180,-160,101,70,-170,8,80,145,171,85,95
-33,-179,-146,106,57,-162,5,68,133,160,77,95
-46,-184,-138,115,46,-161,2,57,118,151,71,88
-58,-185,-127,122,35,-156,-1,49,105,142,59,68
-62,-184,-122,123,30,-153,-5,43,78,106,30,48
-93,-205,-112,149,10,-158,-5,36,52,66,-3,27
-113,-224,-111,169,-1,-167,-1,29,39,39,-26,7
-157,-242,-85,200,-36,-164,2,22,25,24,-48,-2
-142,-258,-116,200,-13,-187,5,20,18,17,-59,-6
-90,-246,-156,169,33,-201,7,20,11,7,-67,-10
-105,-247,-142,176,19,-194,11,20,4,-2,-89,-15
-108,-240,-132,174,12,-186,7,20,-2,-2,-91,-20
-110,-231,-122,171,6,-176,4,20,-9,6,-80,-17
-111,-274,-163,193,26,-218,5,20,-7,10,-74,-11
-116,-264,-148,190,16,-205,5,14,2,16,-65,-6
-106,-220,-114,163,4,-167,5,9,14,22,-61,-3
-94,-216,-123,155,15,-169,5,4,29,23,-58,3
-101,-214,-113,158,6,-163,0,-2,32,20,-55,4
-101,-215,-114,159,7,-164,-5,-8,30,17,-53,0
-106,-215,-109,160,2,-161,-9,-13,30,15,-49,0
-103,-215,-112,159,5,-164,-14,-19,25,11,-52,0
-97,-212,-116,155,10,-164,-18,-26,25,10,-57,0
-95,-210,-114,153,9,-161,-23,-32,24,6,-60,0
-91,-206,-116,149,13,-161,-25,-40,19,-1,-64,-3
-90,-204,-115,147,13,-159,-25,-44,16,-8,-67,-9
-86,-200,-114,143,14,-157,-28,-42,13,-14,-71,-14
-89,-200,-111,145,11,-155,-30,-37,8,-22,-74,-17
-97,-205,-108,151,6,-156,-30,-36,5,-24,-76,-23
-98,-204,-106,151,5,-155,-25,-31,1,-20,-74,-24
-107,-208,-101,158,-3,-154,-26,-31,-5,-18,-77,-20
-105,-207,-102,156,-2,-154,-23,-28,-10,-15,-96,-18
-127,-217,-90,172,-18,-153,-20,-21,-16,-12,-95,-15
-129,-178,-50,154,-39,-114,-19,-48,-22,-10,-82,-12
-88,-116,-27,102,-30,-71,-22,-62,-23,-6,-73,-10
-73,-104,-32,88,-20,-68,-29,-54,-20,-5,-69,-7
-66,-95,-29,80,-18,-62,-34,-50,-17,-2,-70,-5
-48,-77,-29,62,-10,-52,-62,-57,-15,1,-69,-5
-41,-92,-51,67,5,-71,-71,-66,-10,-1,-71,-6
-51,-135,-84,94,17,-109,-64,-65,-11,-6,-68,-4
-28,-153,-125,91,49,-139,-60,-59,-13,-11,-74,-8
-45,-178,-133,111,44,-155,-55,-60,-16,-14,-79,-13
-68,-187,-119,128,26,-153,-52,-54,-15,-21,-91,-28
-62,-175,-113,119,26,-144,-42,-54,-14,-24,-94,-32
-92,-197,-106,145,7,-151,-40,-58,-18,-50,-103,-43
-110,-207,-97,159,-6,-152,-26,-49,-9,-77,-123,-64
-106,-225,-119,166,7,-172,-30,-64,-17,-78,-124,-63
-105,-235,-129,170,12,-182,-12,-42,0,-72,-128,-63
-101,-206,-104,154,2,-155,-29,-72,-17,-67,-119,-52
-84,-197,-113,140,15,-154,-11,-22,8,-63,-130,-60
-64,-145,-80,105,8,-112,-12,-23,11,-1,-70,-13
-4,-123,-118,64,57,-120,63,146,206,147,41,48
169,28,-141,-99,155,-56,205,503,648,595,435,332
410,174,-237,-291,323,-31,-176,38,456,790,752,622
313,-30,-343,-141,328,-186,-459,-647,-256,148,250,323
-68,-232,-163,150,48,-197,-373,-870,-835,-589,-377,-105
-260,-380,-120,321,-69,-250,-299,-767,-850,-774,-581,-319
-211,-353,-142,282,-34,-247,-161,-413,-429,-468,-417,-260
-114,-227,-113,171,0,-169,-102,-177,-154,-189,-226,-125
-101,-209,-108,155,4,-158,-64,-79,-59,-125,-203,-110
-90,-165,-74,127,-8,-119,-50,-48,-42,-94,-167,-82
-84,-167,-83,126,0,-125,-51,-38,-32,-93,-172,-87
-86,-160,-74,124,-6,-116,-39,-40,-27,-86,-163,-79
-79,-153,-74,116,-2,-113,-39,-41,-25,-83,-157,-74
-80,-151,-70,115,-5,-110,-29,-39,-17,-78,-154,-72
-73,-142,-69,107,-2,-105,-28,-41,-16,-73,-146,-65
-68,-140,-71,104,2,-105,-24,-33,-9,-69,-144,-64
-60,-129,-69,95,4,-99,-25,-29,-6,-62,-136,-58
-54,-125,-71,90,9,-98,-25,-24,-1,-58,-134,-57
-48,-117,-69,82,11,-93,-25,-18,3,-51,-128,-51
-41,-112,-71,76,15,-91,-26,-12,11,-47,-125,-49
-37,-103,-66,70,14,-84,-30,-8,34,-38,-116,-41
-28,-88,-60,58,16,-73,-34,-3,47,-24,-103,-33
-21,-76,-55,48,18,-65,-37,0,59,-9,-92,-25
-16,-65,-49,41,17,-57,-42,4,70,13,-73,-18
-15,-59,-44,37,14,-51,-45,8,90,47,-44,-4
-5,-44,-39,25,17,-41,-49,11,128,74,-18,30
52,18,-34,-35,43,-8,-53,14,137,88,3,54
86,58,-28,-72,57,14,-58,17,141,98,20,57
81,56,-25,-68,53,16,-62,20,146,112,35,61
98,79,-20,-88,59,29,-67,23,144,121,46,64
103,87,-16,-95,59,36,-70,25,148,120,45,69
95,84,-11,-89,53,36,-70,23,150,120,45,69
86,82,-4,-84,45,39,-72,18,151,121,42,62
77,79,2,-78,38,40,-75,15,144,120,39,56
71,81,10,-76,30,45,-75,12,132,117,41,49
55,69,14,-62,20,41,-71,7,119,107,28,43
28,55,27,-41,0,41,-70,4,96,81,9,28
12,42,29,-27,-9,35,-70,0,67,44,-20,2
15,23,8,-20,3,15,-65,-7,39,8,-51,-24
9,14,4,-12,2,9,-65,-11,28,-12,-73,-38
3,9,6,-7,-1,7,-64,-17,24,-28,-86,-56
-1,4,4,-2,-3,4,-60,-23,19,-43,-86,-71
-8,-2,6,4,-7,2,-60,-23,15,-39,-84,-66
-13,-8,4,10,-8,-2,-58,-20,10,-34,-86,-63
-20,-8,12,13,-16,2,-54,-20,13,-30,-84,-60
-13,-1,12,6,-12,5,-55,-20,16,-25,-86,-55
7,6,-1,-6,3,2,-58,-20,19,-20,-81,-53
16,15,-1,-15,8,7,-61,-21,22,-10,-67,-47
39,40,1,-40,19,20,-64,-24,25,0,-53,-42
59,62,3,-60,28,32,-67,-27,25,8,-45,-39
52,58,6,-56,23,32,-70,-29,25,5,-45,-33
49,55,6,-52,21,31,-70,-33,25,2,-45,-30
37,52,15,-45,11,33,-70,-35,25,0,-45,-36
32,50,18,-41,7,34,-70,-35,25,-4,-45,-41
19,48,28,-34,-5,38,-70,-35,25,-5,-47,-47
-2,45,46,-22,-25,45,-70,-35,21,-8,-52,-53
4,42,38,-23,-17,40,-70,-35,14,-14,-55,-57
14,39,25,-27,-6,32,-66,-35,8,-18,-58,-60
22,36,15,-29,3,25,-64,-35,1,-22,-62,-63
23,33,9,-28,7,21,-65,-35,-6,-28,-66,-68
28,34,6,-31,11,19,-64,-35,-11,-30,-69,-71
16,17,1,-16,7,9,-66,-35,-17,-31,-72,-74
9,34,25,-21,-8,29,-63,-35,-24,-29,-75,-75
19,64,44,-42,-12,54,-60,-34,-31,-32,-77,-75
20,58,38,-39,-9,48,-60,-38,-37,-28,-81,-75
26,65,40,-46,-7,52,-60,-40,-45,-35,-77,-75
30,63,33,-47,-2,48,-60,-40,-41,-39,-69,-73
34,70,37,-52,-2,53,-59,-43,-35,-12,-62,-70
2,97,95,-49,-46,95,-61,-45,-30,-8,-52,-70
7,115,108,-61,-51,111,-57,-45,-24,-11,-47,-66
32,121,89,-76,-29,104,-78,-43,-18,-8,-48,-64
20,105,85,-63,-33,95,-98,-56,-16,-11,-52,-65
46,96,50,-71,-2,72,-88,-64,-32,-9,-55,-65
69,83,14,-76,27,48,-84,-56,-44,-14,-57,-65
65,67,2,-66,31,34,-74,-48,-37,-18,-61,-66
61,57,-4,-59,32,26,-71,-45,-39,-22,-61,-64
53,38,-16,-45,34,11,-62,-33,-30,-28,-73,-66
48,29,-18,-38,33,5,-60,-34,-33,-32,-76,-70
34,12,-22,-23,28,-5,-53,-24,-27,-47,-83,-83
31,13,-18,-22,24,-2,-49,-22,-26,-43,-78,-78
24,2,-22,-13,23,-10,-48,-20,-23,-47,-80,-80
19,0,-19,-9,19,-9,-35,-6,-13,-44,-82,-83
9,-7,-16,-1,13,-11,-43,-20,-26,-45,-74,-74
-35,-26,9,30,-22,-8,-3,34,19,-39,-87,-88
21,64,43,-43,-11,53,-28,21,30,36,-10,-39
96,84,-12,-90,54,36,105,326,344,254,138,50
309,224,-86,-266,197,69,117,503,666,692,556,369
589,293,-295,-441,442,-1,-335,-180,248,605,628,473
310,37,-273,-173,292,-118,-493,-745,-497,-166,-8,60
-132,-178,-46,156,-43,-112,-384,-849,-958,-749,-491,-279
-191,-266,-75,229,-58,-170,-276,-660,-788,-737,-559,-402
-81,-130,-49,106,-16,-89,-153,-302,-342,-357,-311,-260
-3,-21,-18,12,8,-19,-102,-108,-125,-156,-156,-141
-2,-20,-18,12,8,-19,-67,-45,-63,-108,-132,-139
7,6,-2,-6,4,2,-62,-23,-36,-71,-85,-108
18,2,-16,-10,17,-6,-49,-9,-20,-69,-94,-112
20,14,-6,-17,13,4,-39,-7,-19,-56,-81,-101
27,14,-13,-21,19,1,-36,-4,-12,-58,-83,-103
29,20,-9,-24,19,5,-32,1,-7,-50,-77,-98
35,26,-9,-30,22,8,-30,4,-1,-47,-73,-95
26,24,-3,-24,14,10,-26,7,4,-43,-72,-94
24,27,3,-26,10,14,-25,13,10,-36,-67,-88
16,24,8,-20,4,15,-21,17,15,-30,-67,-84
12,26,13,-19,-1,19,-20,22,20,-22,-61,-79
5,25,20,-15,-8,22,-20,26,27,-16,-61,-75
15,25,9,-20,3,16,-20,30,28,-6,-57,-71
48,37,-11,-42,29,13,-20,58,51,9,-40,-64
8,28,20,-19,-6,24,-21,73,65,26,-31,-51
28,66,39,-48,-6,52,-27,72,76,49,-1,-40
81,111,30,-96,25,71,-34,77,97,66,25,-23
91,118,27,-105,32,72,-41,79,104,89,34,-8
110,140,29,-125,40,84,-48,81,125,116,55,15
123,164,41,-144,41,103,-54,85,143,129,69,30
144,185,41,-164,51,112,-59,85,155,153,90,33
135,172,37,-154,49,104,-60,85,164,172,101,48
130,168,38,-150,46,103,-60,86,155,175,102,53
121,150,29,-136,46,90,-60,83,150,178,106,54
107,160,52,-134,27,106,-60,98,143,194,124,48
112,178,66,-145,23,122,-60,90,135,186,126,40
100,138,38,-120,31,88,-60,63,131,152,100,35
85,127,42,-106,21,84,-60,56,111,127,87,26
60,120,60,-90,0,90,-60,47,80,101,69,23
51,109,58,-80,-4,83,-60,38,50,70,54,8
52,102,50,-77,1,75,-60,29,27,33,22,-22
51,90,39,-71,6,65,-56,24,12,17,-19,-39
47,79,33,-63,7,56,-55,21,6,7,-26,-45
35,68,33,-52,1,50,-55,17,1,-6,-25,-45
19,57,38,-38,-10,47,-55,14,-4,-6,-25,-45
17,56,39,-36,-11,47,-55,10,-10,-1,-25,-45
11,54,43,-33,-16,48,-55,7,-15,4,-26,-45
11,57,46,-34,-18,51,-55,4,-15,7,-19,-44
55,94,39,-75,8,66,-55,5,-15,12,-6,-36
42,99,57,-71,-8,78,-55,5,-15,16,5,-24
40,108,68,-75,-14,88,-55,5,-15,24,11,-16
64,124,60,-94,2,92,-55,4,-16,36,14,-14
49,109,60,-79,-6,84,-59,-2,-12,36,17,-11
48,104,55,-77,-4,79,-60,-8,-10,30,22,-8
38,92,54,-65,-8,73,-60,-13,-10,25,25,-5
35,86,51,-61,-8,68,-60,-19,-10,19,22,-6
36,84,48,-60,-7,66,-60,-24,-10,14,17,-12
35,81,45,-59,-5,63,-59,-22,-11,9,14,-16
36,78,42,-58,-3,60,-53,-19,-14,4,10,-21
35,75,40,-55,-3,57,-47,-20,-19,1,7,-24
36,74,38,-55,-1,56,-43,-20,-21,-2,3,-30
36,69,33,-53,1,51,-36,-20,-25,-7,0,-29
37,66,29,-51,3,47,-31,-19,-30,-10,-4,-30
34,62,28,-48,3,44,-33,-15,-28,-7,-7,-30
40,60,20,-50,10,39,-36,-16,-24,-2,-12,-29
28,52,24,-40,2,37,-34,-13,-25,0,-16,-49
52,70,18,-62,17,44,-35,-10,-25,4,-9,-50
58,111,53,-85,3,82,-35,-11,-25,8,4,-37
27,126,99,-77,-36,112,-33,-6,-25,12,15,-17
59,151,92,-105,-17,121,-30,-2,-29,24,30,7
79,167,88,-123,-5,128,-23,4,-33,40,44,11
70,157,87,-114,-9,121,-47,4,-36,39,48,14
67,144,77,-106,-6,111,-62,0,-40,20,41,18
70,110,40,-90,14,75,-51,0,-44,6,37,20
65,79,14,-72,26,46,-47,-5,-48,-2,32,11
67,70,4,-69,31,37,-38,-3,-49,-6,27,-1
63,62,0,-62,31,31,-35,-5,-52,-11,25,-11
21,51,30,-37,-5,41,-25,5,-47,-15,16,-24
9,46,37,-28,-14,41,-24,-1,-54,-19,15,-26
9,37,28,-23,-9,32,-11,12,-45,-27,4,-37
11,39,28,-25,-9,34,-10,5,-49,-37,5,-36
11,29,18,-20,-4,23,1,13,-34,-50,-7,-48
12,32,20,-22,-4,26,6,3,-32,-38,1,-47
6,22,15,-15,-5,19,4,-11,-27,-36,6,-51
-14,34,47,-10,-31,40,27,34,1,-9,8,-48
40,69,29,-55,6,49,19,64,42,75,84,20
133,102,-31,-117,82,35,206,464,456,364,302,170
408,283,-125,-346,266,79,86,439,621,733,693,474
535,234,-301,-385,418,-33,-334,-320,46,419,518,391
168,-10,-178,-78,173,-94,-372,-783,-686,-356,-117,-28
-163,-178,-15,171,-73,-97,-280,-833,-1000,-767,-455,-280
-213,-246,-32,230,-90,-139,-165,-542,-688,-620,-424,-318
-105,-102,3,103,-54,-49,-56,-199,-282,-250,-162,-156
-49,-24,26,36,-37,1,8,-41,-104,-87,-63,-85
-66,-9,56,38,-61,23,38,2,-49,-39,-37,-60
-61,3,64,29,-62,33,33,28,-31,-17,-5,-43
-75,2,77,37,-76,39,35,55,-28,-23,-6,-52
-64,16,79,24,-72,47,41,43,-31,-17,14,-39
-52,16,68,18,-60,42,62,45,-23,-16,7,-45
-45,25,70,10,-58,48,60,39,-26,-14,16,-37
-35,25,60,5,-48,42,58,35,-22,-13,16,-38
-33,29,63,2,-48,46,56,38,-16,-6,20,-32
-32,32,64,0,-48,47,54,39,-9,-2,22,-31
-31,35,66,-2,-49,51,58,45,-2,4,26,-27
-28,34,62,-3,-46,48,60,41,4,10,36,-25
-47,28,74,9,-61,51,64,56,12,15,39,-22
-74,22,96,26,-85,59,66,79,23,26,49,-6
-42,48,90,-3,-66,69,69,82,31,48,52,5
-15,69,84,-27,-50,76,70,89,56,65,73,30
-13,71,84,-29,-48,77,64,94,79,81,101,47
15,88,73,-52,-29,80,59,98,93,111,112,63
10,95,85,-53,-38,90,54,103,115,133,141,87
20,130,111,-75,-46,120,48,106,117,148,161,90
39,149,110,-94,-36,129,43,110,127,168,174,104
34,143,109,-88,-38,126,37,112,140,185,187,119
42,153,111,-97,-34,132,35,115,140,187,184,121
38,147,109,-92,-36,128,35,118,140,182,185,124
34,142,108,-88,-37,125,35,121,140,181,185,126
35,139,104,-88,-34,121,35,116,141,177,185,130
31,133,102,-82,-36,117,36,110,136,176,186,129
32,131,99,-81,-34,115,39,104,119,171,173,120
23,119,95,-72,-36,107,42,99,93,153,157,110
10,105,95,-58,-43,100,44,90,59,120,138,100
3,92,88,-48,-43,90,48,81,21,83,101,90
-13,72,85,-29,-49,78,50,73,4,66,84,82
-17,60,77,-22,-47,68,53,62,0,53,83,76
-20,54,75,-17,-48,64,55,60,-5,44,77,68
-11,54,65,-22,-39,59,55,60,-8,46,76,60
-23,41,64,-9,-44,52,58,60,-14,43,69,57
-33,59,92,-13,-63,75,61,60,-13,40,74,60
12,96,85,-54,-37,90,59,60,-8,40,74,64
-9,92,101,-42,-55,96,56,59,-5,42,77,67
-39,87,126,-25,-82,106,55,55,-2,49,101,72
-4,86,90,-41,-47,87,54,55,3,60,113,75
15,80,64,-48,-24,72,50,55,5,61,121,72
-21,78,99,-29,-60,88,50,55,0,60,134,67
-11,105,116,-47,-64,110,52,55,0,59,147,64
21,110,88,-66,-34,99,55,52,0,54,144,60
4,86,82,-45,-40,84,58,49,0,55,135,57
13,81,68,-47,-28,74,60,46,0,53,129,53
11,74,64,-43,-27,69,65,44,-2,48,120,48
-27,70,98,-22,-62,84,65,40,-8,45,114,41
-39,67,105,-14,-72,86,65,40,-12,41,110,34
-35,61,96,-13,-65,78,65,33,-16,37,108,27
-37,58,95,-11,-66,76,65,30,-21,34,104,21
-37,51,88,-8,-63,69,65,25,-26,31,102,23
-39,46,85,-4,-62,65,63,19,-31,27,99,25
-38,42,81,-2,-60,61,86,50,-32,23,100,25
-44,32,77,6,-61,54,96,63,-28,20,100,30
-42,34,76,4,-59,54,88,58,-26,15,100,30
-48,18,67,15,-58,42,87,57,-22,18,101,31
-47,42,90,2,-69,66,82,54,-20,27,97,36
-36,104,140,-34,-88,122,80,55,-17,42,122,38
-48,111,159,-32,-104,135,71,51,-13,62,143,48
-17,142,160,-63,-89,151,59,49,-8,59,138,52
0,147,147,-74,-73,147,48,45,-5,51,141,45
-2,119,121,-59,-62,120,41,43,-9,44,139,40
17,98,82,-58,-32,90,49,40,-15,36,141,34
35,61,25,-48,5,43,50,41,-20,29,137,29
23,53,31,-38,-4,42,56,48,-22,23,127,24
-6,41,47,-17,-27,44,79,41,-31,18,121,19
-33,28,61,2,-48,45,95,53,-30,15,109,11
-67,20,87,24,-77,53,86,46,-39,13,107,10
-67,3,70,32,-69,37,93,55,-31,5,94,-2
-80,-10,70,45,-75,30,88,51,-41,7,95,0
-105,-49,56,77,-80,3,100,58,-40,1,80,-6
-86,-32,54,59,-70,11,113,64,-37,10,81,4
-79,-24,54,52,-66,15,107,54,-44,-1,73,-2
-87,-2,85,44,-86,41,141,91,-8,22,82,0
-24,37,61,-7,-43,49,128,102,28,102,168,65
79,58,-20,-68,49,19,281,487,445,370,374,193
361,246,-116,-303,238,65,196,528,674,741,752,484
520,202,-318,-361,419,-58,-201,-217,102,451,580,400
90,-18,-108,-35,99,-63,-247,-715,-641,-282,-25,-4
-316,-181,135,248,-225,-23,-159,-792,-989,-687,-341,-237
-322,-273,49,297,-185,-112,-58,-527,-702,-572,-320,-281
-215,-143,72,178,-143,-35,45,-184,-290,-233,-81,-127
-144,-80,64,111,-103,-8,93,-33,-119,-86,40,-60
-112,-49,63,80,-87,6,119,12,-64,-44,74,-29
-92,-23,69,57,-80,23,119,32,-52,-26,85,-4
-92,-33,59,62,-75,13,134,54,-40,-18,75,-16
-76,-12,64,44,-70,26,134,48,-38,-7,84,-4
-98,-46,52,72,-75,3,140,51,-28,-8,92,-8
-132,-77,55,104,-93,-10,142,50,-23,-1,102,-3
-122,-75,47,98,-84,-14,146,50,-17,1,92,-4
-119,-74,45,96,-82,-14,151,52,-11,5,93,4
-119,-70,49,94,-84,-10,146,56,-4,9,86,8
-120,-70,50,95,-85,-10,145,60,3,19,85,14
-118,-68,50,93,-84,-9,145,63,9,25,91,21
-107,-58,49,83,-78,-4,145,68,20,35,101,24
-103,-52,50,78,-76,-1,145,70,36,40,108,32
-79,-30,49,54,-64,9,144,80,47,51,128,42
-45,-3,42,24,-43,19,138,92,63,64,143,53
-32,7,40,12,-36,23,132,98,75,80,156,64
7,34,27,-21,-10,30,127,102,84,125,193,85
20,70,50,-45,-15,60,121,105,112,142,207,106
3,94,91,-49,-45,92,116,112,127,160,235,133
9,93,84,-52,-38,89,118,120,133,174,255,148
11,88,77,-50,-33,83,120,128,143,167,247,144
15,87,72,-51,-29,79,120,133,142,186,252,149
16,80,63,-48,-23,71,125,143,136,189,249,150
23,83,60,-53,-19,71,125,156,132,182,250,150
29,84,55,-57,-13,69,125,144,127,179,243,143
47,100,53,-74,-3,76,125,129,123,173,235,135
46,94,48,-70,-2,71,125,121,117,170,227,127
39,84,45,-62,-3,64,125,109,109,154,219,119
27,76,49,-51,-11,62,125,101,80,127,208,109
-17,33,50,-8,-34,41,125,83,36,81,169,83
-34,16,50,9,-43,33,128,57,19,52,142,69
-45,4,50,20,-48,27,133,50,13,40,126,68
-63,-12,50,38,-56,19,136,48,2,29,117,62
-78,-28,50,53,-64,11,139,45,-6,30,121,60
-78,-39,40,58,-59,0,144,42,-19,30,120,54
-86,-33,53,60,-69,9,144,39,-28,30,120,57
-119,-36,82,77,-100,23,139,44,-23,30,120,65
-96,-31,66,63,-81,17,134,46,-16,30,120,68
-63,-30,33,46,-48,1,130,49,-9,37,127,94
-99,-30,69,64,-84,19,125,52,-3,47,137,108
-90,-23,67,57,-79,22,121,55,8,50,142,107
-47,-10,37,28,-42,13,116,54,25,50,145,112
-35,14,48,10,-42,31,115,49,26,50,148,114
-26,14,40,6,-33,27,115,51,22,50,153,115
-23,17,40,3,-32,28,110,47,20,50,155,109
-29,6,36,11,-33,21,110,45,16,44,148,102
-55,-20,35,37,-45,7,110,45,16,38,141,96
-74,-34,40,54,-57,3,110,41,4,34,134,89
-98,-63,35,80,-66,-14,110,39,-18,27,126,83
-102,-67,35,84,-68,-16,110,36,-26,23,119,77
-94,-59,35,76,-64,-11,110,33,-29,17,112,75
-94,-59,35,76,-64,-12,110,30,-33,12,106,75
-87,-52,35,69,-61,-9,110,29,-36,6,101,71
-88,-51,37,69,-63,-6,110,31,-40,0,96,70
-86,-45,40,66,-63,-2,110,29,-36,-5,89,70
-80,-37,44,58,-62,3,109,31,-30,-9,86,75
-77,-32,45,54,-61,6,111,28,-26,-14,88,74
-79,-22,57,50,-68,17,108,31,-19,-19,91,79
-80,-4,76,42,-78,36,105,32,-13,-17,89,80
-77,26,103,25,-91,64,98,43,-11,-3,91,80
-57,59,117,-1,-87,88,98,59,-18,20,118,107
-34,50,85,-8,-60,67,82,23,-28,11,121,103
-8,32,40,-12,-24,35,60,7,-29,-28,106,81
20,13,-7,-17,13,3,59,14,-48,-46,103,75
9,-26,-35,9,22,-30,59,16,-47,-45,88,67
-12,-46,-34,29,12,-40,82,20,-34,-41,88,66
-24,-60,-36,42,6,-48,110,24,-35,-39,77,56
-22,-57,-34,40,6,-45,103,29,-35,-52,41,54
-53,-88,-35,71,-8,-62,104,28,-37,-73,18,47
-71,-107,-36,90,-17,-72,109,35,-31,-67,20,44
-58,-97,-40,77,-9,-68,98,26,-41,-66,21,48
-95,-137,-42,116,-26,-89,118,46,-20,-62,17,37
-87,-123,-36,105,-25,-79,98,21,-34,-59,25,47
-55,-98,-43,77,-6,-70,126,57,-1,-57,20,31
-26,-50,-24,39,-1,-37,102,53,7,0,86,68
10,-32,-41,11,26,-36,171,231,210,157,210,148
179,114,-65,-147,122,24,297,579,672,617,631,461
436,234,-202,-335,319,15,-39,155,486,776,891,693
237,30,-207,-133,222,-89,-268,-510,-274,90,315,326
-231,-160,71,196,-151,-44,-194,-740,-851,-609,-281,-80
-365,-311,54,338,-209,-128,-106,-622,-802,-735,-426,-250
-223,-275,-51,249,-86,-163,-8,-307,-414,-467,-280,-187
-170,-182,-13,176,-78,-97,47,-99,-171,-223,-83,-52
-207,-174,32,190,-119,-71,97,-5,-57,-148,-31,-16
-164,-120,44,142,-104,-37,90,15,-42,-114,-16,9
-137,-128,9,133,-72,-60,97,39,-26,-106,-12,0
-134,-124,11,129,-72,-56,101,47,-15,-102,-6,11
-125,-125,-1,125,-62,-63,103,43,-13,-95,-11,12
-117,-124,-7,121,-55,-65,105,47,-5,-91,-10,15
-115,-129,-14,122,-50,-71,98,44,-4,-84,-13,20
-130,-149,-20,140,-55,-84,102,46,3,-81,-16,19
-126,-132,-6,129,-60,-69,99,44,6,-78,-14,21
-123,-119,4,121,-64,-57,101,45,9,-76,-11,19
-137,-127,10,132,-73,-59,99,45,11,-72,-5,20
-135,-119,16,127,-76,-51,95,45,8,-70,-2,22
-112,-92,21,102,-66,-35,90,45,23,-68,4,32
-123,-95,27,109,-74,-34,85,44,45,-60,8,38
-135,-106,30,120,-82,-38,81,49,53,-56,13,47
-108,-77,30,92,-69,-23,76,50,80,-32,39,53
-82,-46,36,64,-59,-5,73,51,93,7,77,63
-68,-36,32,51,-49,-2,68,49,95,27,105,81
-84,-21,63,52,-73,21,65,54,110,40,123,102
-92,-6,85,49,-88,39,62,75,119,53,131,123
-63,6,70,28,-67,38,57,73,120,67,136,125
-47,17,64,15,-56,40,54,68,120,78,143,125
-50,13,63,18,-57,38,51,66,124,75,143,130
-42,23,65,9,-54,44,48,61,126,70,137,130
-24,41,65,-9,-45,53,45,59,124,68,133,129
-31,33,64,-1,-48,49,42,50,116,63,129,120
-42,23,66,9,-54,44,39,41,109,61,123,111
-48,16,63,16,-56,39,43,33,103,50,121,102
-53,5,58,23,-56,32,45,23,89,26,96,94
-58,-6,52,32,-55,23,45,15,67,-8,59,78
-79,-32,47,56,-63,7,45,7,49,-46,30,53
-116,-74,42,95,-79,-16,45,1,32,-54,13,40
-126,-92,34,109,-80,-28,44,-7,21,-66,9,34
-126,-89,37,107,-82,-25,41,-14,18,-87,3,24
-122,-90,31,106,-77,-29,38,-21,14,-83,-2,18
-131,-90,42,110,-86,-24,35,-25,11,-80,-8,18
-157,-90,67,123,-112,-12,32,-25,6,-78,-8,32
-146,-86,60,116,-102,-13,30,-25,6,-75,3,37
-115,-80,36,97,-75,-22,30,-25,13,-73,12,35
-96,-75,20,85,-58,-27,30,-25,19,-67,23,57
-117,-69,48,93,-82,-11,30,-29,26,-63,32,68
-117,-63,54,90,-85,-5,30,-30,33,-59,41,64
-104,-61,43,82,-73,-8,30,-30,32,-53,43,62
-93,-67,26,79,-59,-20,30,-30,27,-50,36,59
-94,-70,23,82,-58,-23,35,-29,24,-55,29,60
-135,-75,61,105,-98,-7,35,-31,21,-60,23,55
-138,-80,58,109,-98,-11,36,-35,16,-63,15,50
-134,-83,52,108,-93,-15,40,-35,14,-69,10,46
-141,-93,48,117,-94,-22,40,-37,10,-86,3,41
-131,-91,40,111,-85,-25,42,-41,10,-92,-8,37
-141,-103,37,122,-89,-33,47,-39,10,-95,-17,32
-156,-123,33,139,-95,-44,50,-37,10,-98,-27,26
-155,-118,37,136,-96,-40,53,-34,11,-103,-30,21
-154,-121,33,137,-94,-44,58,-31,6,-105,-30,16
-156,-118,38,137,-97,-40,60,-29,6,-101,-30,10
-152,-122,30,137,-91,-46,54,-24,4,-98,-30,6
-152,-102,50,126,-100,-26,48,-27,6,-96,-31,10
-152,-60,92,106,-122,16,44,-28,4,-93,-23,17
-147,-46,102,96,-124,28,38,-34,8,-89,-13,21
-139,-38,101,88,-119,31,32,-32,32,-92,1,37
-123,-36,87,79,-105,25,32,-42,-1,-95,24,46
-85,-11,73,48,-79,31,36,-66,-29,-95,19,37
-75,-47,28,61,-51,-9,35,-61,-19,-98,1,35
-74,-99,-25,87,-24,-62,34,-59,-18,-100,-13,30
-28,-67,-39,47,6,-53,38,-53,-11,-100,-27,26
-48,-83,-34,66,-7,-58,30,-52,-9,-107,-35,16
-108,-132,-24,120,-42,-78,47,-47,-3,-118,-55,-10
-140,-156,-17,148,-61,-86,58,-54,-15,-126,-63,-15
-188,-179,8,183,-98,-85,63,-45,-13,-137,-73,-26
-181,-176,6,178,-93,-84,56,-54,-24,-132,-69,-24
-163,-199,-36,182,-63,-118,56,-48,-22,-140,-89,-37
-172,-192,-19,182,-76,-105,56,-48,-32,-137,-92,-37
-161,-182,-21,172,-70,-101,53,-52,-20,-143,-80,-40
-166,-176,-10,171,-78,-93,84,-13,29,-135,-77,-43
-158,-133,25,145,-92,-53,63,-2,65,-30,18,33
-41,-76,-35,59,-3,-55,235,366,468,300,274,199
258,156,-102,-207,180,27,134,369,670,762,788,617
334,143,-191,-238,263,-24,-296,-333,121,520,698,604
29,-126,-155,49,92,-140,-342,-769,-596,-338,-61,102
-249,-308,-59,279,-95,-183,-241,-819,-888,-848,-501,-223
-335,-409,-74,372,-130,-241,-127,-562,-605,-747,-505,-316
-234,-315,-81,275,-76,-198,-31,-261,-245,-404,-270,-158
-173,-245,-71,209,-51,-158,11,-115,-87,-243,-159,-75
-166,-223,-56,195,-55,-139,38,-65,-47,-205,-143,-66
-146,-206,-61,176,-42,-133,31,-58,-27,-186,-122,-53
-147,-208,-62,178,-42,-135,38,-52,-13,-177,-136,-66
-130,-194,-64,163,-33,-129,33,-58,-14,-169,-126,-55
-127,-193,-66,160,-30,-129,36,-53,-4,-169,-133,-64
-120,-184,-64,152,-28,-123,34,-56,-1,-180,-128,-57
-120,-186,-66,153,-26,-126,29,-52,6,-185,-126,-56
-120,-185,-64,153,-28,-124,31,-50,10,-163,-123,-52
-119,-185,-65,153,-27,-125,27,-50,18,-156,-120,-50
-120,-185,-65,153,-27,-125,25,-50,24,-149,-117,-47
-120,-185,-65,153,-27,-125,25,-50,31,-142,-115,-45
-112,-182,-70,147,-21,-126,21,-50,38,-136,-111,-39
-97,-168,-71,132,-13,-119,15,-44,42,-130,-97,-26
-73,-148,-75,111,1,-112,10,-38,53,-113,-83,-15
-51,-128,-77,89,14,-102,4,-31,65,-87,-69,1
-38,-118,-80,78,22,-99,-1,-24,97,-74,-44,28
-20,-96,-75,58,28,-85,-6,-17,117,-52,-15,56
-36,-66,-30,51,-2,-48,-12,-12,115,-26,8,71
-25,-49,-24,37,0,-36,-19,-10,120,-12,27,79
0,-9,-9,5,4,-9,-26,-7,120,2,33,84
-10,21,31,-6,-21,26,-33,-4,126,10,52,108
3,17,13,-10,-6,15,-39,-1,131,15,68,122
8,11,3,-10,2,7,-37,0,133,20,63,114
8,7,-2,-7,5,2,-34,-5,136,23,66,114
9,-1,-10,-4,9,-5,-31,-10,139,30,64,108
12,-4,-16,-4,14,-10,-28,-14,140,27,67,106
24,2,-22,-13,23,-10,-26,-19,124,10,50,98
31,5,-26,-17,29,-11,-23,-23,102,-6,13,80
-7,-29,-23,19,8,-26,-20,-28,85,-28,-6,66
-47,-76,-29,61,-9,-52,-20,-37,69,-55,-28,47
-52,-97,-45,75,-3,-70,-20,-46,55,-83,-54,32
-73,-116,-43,95,-15,-80,-20,-49,44,-101,-78,27
-57,-118,-62,88,3,-90,-20,-54,33,-109,-84,24
-61,-110,-49,86,-6,-79,-20,-59,22,-126,-79,21
-82,-108,-26,95,-28,-67,-20,-60,20,-129,-81,16
-69,-102,-33,85,-18,-67,-20,-60,17,-123,-80,15
-71,-99,-27,85,-22,-63,-20,-60,14,-119,-80,15
-69,-95,-26,83,-21,-60,-20,-60,11,-114,-80,16
-67,-92,-25,80,-21,-58,-20,-60,8,-110,-74,13
-66,-88,-23,77,-21,-55,-20,-61,31,-102,-67,27
-66,-85,-20,75,-22,-52,-20,-64,52,-96,-61,50
-65,-81,-16,73,-24,-48,-20,-67,49,-89,-53,50
-64,-78,-14,72,-25,-46,-20,-69,50,-82,-48,50
-62,-73,-10,68,-26,-41,-20,-73,46,-82,-41,50
-62,-72,-10,67,-26,-41,-20,-75,45,-87,-41,50
-48,-64,-16,56,-16,-40,-20,-73,45,-90,-36,50
-46,-68,-23,57,-11,-45,-20,-67,40,-94,-34,46
-62,-91,-29,77,-16,-60,-20,-63,35,-97,-65,41
-53,-89,-36,71,-8,-62,-20,-58,31,-100,-78,36
-38,-81,-43,60,3,-62,-21,-54,26,-100,-74,33
-28,-71,-43,50,8,-57,-30,-49,21,-99,-74,27
-61,-99,-38,80,-11,-68,-41,-45,22,-119,-88,26
-90,-125,-35,108,-27,-80,-42,-45,26,-126,-95,31
-69,-101,-31,85,-19,-66,-37,-44,28,-118,-86,30
-78,-106,-28,92,-25,-66,-34,-40,31,-118,-84,30
-83,-107,-24,95,-29,-65,-31,-40,34,-111,-79,30
-57,-65,-8,61,-24,-37,-26,-43,34,-111,-75,30
-57,-23,33,40,-45,5,-26,-57,32,-114,-71,30
-71,-1,70,36,-71,34,-34,-66,24,-116,-70,28
-49,13,62,18,-56,37,-41,-63,42,-120,-69,44
-22,33,56,-6,-39,44,-57,-74,54,-122,-64,51
-38,11,48,13,-43,29,-59,-80,43,-125,-65,35
-19,-18,0,19,-9,-9,-52,-80,37,-127,-66,26
-1,-29,-28,16,13,-28,-48,-78,29,-131,-73,15
-21,-46,-25,34,2,-35,-40,-73,23,-133,-76,10
-24,-47,-23,36,0,-34,-38,-78,15,-136,-81,6
-54,-89,-35,72,-10,-62,-28,-67,17,-140,-87,-3
-66,-121,-55,94,-5,-88,-33,-75,12,-139,-93,-3
-65,-122,-56,94,-4,-89,-26,-64,19,-142,-110,-16
-71,-116,-45,93,-13,-81,-29,-77,10,-136,-99,-10
-71,-125,-54,99,-9,-89,-23,-64,19,-145,-112,-21
-76,-114,-38,96,-19,-76,-24,-73,12,-133,-98,-10
-74,-123,-50,99,-12,-86,-14,-57,14,-147,-111,-18
-77,-104,-27,90,-25,-65,13,-23,39,-123,-93,-19
-50,-76,-25,63,-12,-50,12,20,114,-3,7,48
65,-8,-73,-28,69,-41,201,431,540,343,265,234
362,247,-115,-304,238,66,11,297,632,757,757,636
461,177,-285,-319,373,-54,-416,-450,26,389,532,540
41,-92,-133,25,87,-112,-414,-828,-650,-444,-202,49
-279,-280,-2,280,-138,-141,-324,-833,-892,-857,-564,-246
-203,-337,-135,270,-34,-236,-194,-537,-558,-691,-514,-284
-132,-203,-70,168,-31,-136,-110,-244,-210,-351,-277,-119
-105,-173,-68,139,-18,-120,-74,-118,-71,-240,-220,-81
-54,-136,-82,95,14,-108,-35,-79,-21,-197,-175,-66
-57,-123,-66,91,5,-95,-41,-72,-1,-183,-153,-53
-58,-127,-69,93,5,-98,-28,-65,14,-179,-162,-56
-61,-114,-53,88,-4,-84,-29,-67,7,-169,-147,-40
-63,-118,-54,91,-4,-86,-22,-60,14,-166,-153,-41
-63,-106,-44,85,-9,-75,-18,-61,14,-156,-142,-30
-62,-108,-46,85,-7,-77,-15,-56,15,-154,-143,-30
-59,-103,-45,81,-6,-74,-14,-51,18,-145,-139,-24
-62,-107,-45,85,-8,-76,-16,-46,24,-142,-140,-22
-56,-102,-46,80,-5,-74,-14,-42,29,-136,-135,-17
-79,-122,-43,101,-17,-83,-15,-37,32,-130,-135,-14
-68,-107,-38,88,-15,-72,-19,-34,38,-125,-134,-11
-32,-64,-32,48,0,-48,-25,-28,41,-118,-125,-8
-23,-51,-28,37,2,-39,-30,-21,56,-104,-109,-4
-3,-24,-21,14,9,-22,-36,-14,78,-79,-82,-2
13,-4,-16,-4,15,-10,-41,-7,97,-49,-55,7
20,9,-11,-14,15,-1,-46,-1,117,-23,-32,30
25,20,-4,-22,14,8,-51,4,136,-2,-12,63
46,48,3,-47,22,25,-54,9,144,22,4,97
60,69,9,-65,25,39,-57,14,152,42,15,101
62,77,15,-70,23,46,-62,17,159,49,21,99
65,98,33,-82,16,65,-65,23,161,46,28,101
51,93,42,-72,4,68,-65,24,164,45,34,100
50,85,36,-68,7,60,-65,19,166,44,41,99
47,79,32,-63,7,55,-65,14,170,39,45,94
43,70,27,-57,7,48,-65,10,168,41,32,89
42,65,23,-54,9,44,-65,5,143,34,22,87
37,55,18,-46,9,37,-64,1,117,5,2,73
35,49,14,-42,10,31,-60,-5,98,-18,-27,43
25,34,8,-30,8,21,-60,-13,66,-37,-47,24
7,12,5,-10,1,8,-57,-19,46,-66,-81,8
-22,-22,0,22,-11,-11,-54,-27,41,-84,-99,-5
-33,-38,-5,36,-14,-21,-55,-34,36,-101,-99,-8
-30,-32,-1,31,-14,-16,-51,-41,33,-116,-101,-14
-30,-30,0,30,-15,-15,-50,-45,27,-109,-100,-17
-25,-25,0,25,-12,-12,-50,-47,26,-106,-100,-23
-22,-21,0,22,-11,-11,-50,-50,30,-101,-100,-24
-19,-19,0,19,-9,-9,-50,-54,32,-96,-98,-18
-14,-14,0,14,-7,-7,-50,-55,35,-92,-91,-15
-11,-11,0,11,-5,-5,-50,-52,38,-72,-86,-10
-8,-8,0,8,-4,-4,-50,-49,40,-60,-81,-5
-3,-3,0,3,-1,-1,-50,-46,36,-59,-74,-1
0,0,0,0,0,0,-50,-43,34,-55,-71,0
-4,-4,0,4,-1,-2,-50,-41,35,-53,-74,0
-9,-5,4,7,-6,-1,-50,-38,35,-49,-79,0
-11,-5,5,7,-8,0,-50,-35,35,-52,-81,-1
-15,-10,5,12,-10,-2,-50,-35,34,-58,-86,-7
-20,-11,10,15,-15,0,-50,-35,26,-61,-89,-14
-18,-8,10,13,-14,1,-50,-35,19,-67,-93,-21
-15,-5,10,10,-12,2,-49,-35,12,-70,-95,-28
-11,-1,10,6,-11,4,-45,-38,4,-80,-95,-34
-10,0,10,5,-10,5,-45,-41,-2,-93,-98,-39
-10,0,10,5,-10,5,-45,-44,-9,-95,-101,-40
-5,5,9,0,-8,7,-45,-46,-10,-95,-99,-40
-6,5,11,0,-9,7,-45,-50,-10,-95,-96,-44
-7,6,12,0,-10,9,-42,-49,-14,-95,-93,-45
-5,15,21,-5,-13,17,-38,-45,-16,-95,-91,-44
5,25,20,-15,-8,22,-37,-43,-14,-89,-87,-39
1,35,34,-18,-17,34,-32,-39,-10,-77,-85,-34
-9,54,63,-23,-37,59,-31,-37,-7,-73,-87,-30
23,79,56,-51,-17,67,-30,-33,-5,-75,-90,-25
47,93,46,-71,1,69,-38,-43,-1,-75,-93,-20
81,119,39,-100,20,79,-75,-53,0,-78,-96,-23
74,100,26,-87,23,63,-81,-48,-3,-81,-99,-32
26,29,3,-27,11,16,-72,-52,-9,-79,-100,-36
75,29,-46,-51,60,-8,-70,-48,-9,-81,-105,-46
115,45,-70,-80,92,-12,-65,-52,-16,-79,-109,-49
74,17,-57,-45,65,-20,-61,-48,-17,-80,-114,-59
57,10,-47,-33,52,-18,-55,-44,-22,-86,-118,-57
28,-11,-38,-8,33,-24,-55,-48,-26,-98,-133,-67
-1,-22,-21,11,10,-21,-45,-37,-25,-94,-137,-88
23,-29,-52,3,38,-40,-51,-48,-36,-94,-132,-80
17,-59,-76,22,47,-68,-34,-28,-24,-97,-140,-86
43,-37,-80,-3,62,-58,-47,-60,-49,-90,-127,-69
29,-30,-59,1,44,-44,-22,-21,-1,-102,-146,-87
7,27,20,-17,-7,23,-17,-16,7,-50,-92,-51
63,43,-20,-53,41,11,59,177,218,105,17,23
255,169,-87,-212,171,41,174,515,639,517,369,270
541,319,-222,-430,382,48,-208,29,427,672,634,510
429,88,-341,-258,385,-126,-499,-666,-293,10,121,187
30,-139,-169,55,99,-154,-414,-887,-896,-708,-470,-211
-175,-259,-84,217,-45,-171,-316,-770,-892,-857,-632,-371
-113,-202,-89,158,-12,-146,-188,-416,-454,-537,-446,-305
-34,-71,-38,52,2,-54,-123,-168,-171,-248,-238,-166
-26,-50,-24,38,0,-37,-75,-71,-75,-178,-201,-141
-6,-13,-7,10,0,-9,-60,-57,-49,-150,-164,-109
-20,-24,-4,23,-8,-14,-60,-53,-35,-148,-173,-117
-20,-25,-4,23,-8,-14,-50,-46,-33,-133,-170,-115
-19,-27,-8,23,-5,-18,-48,-43,-29,-127,-169,-117
-23,-35,-12,29,-5,-23,-39,-35,-23,-121,-172,-122
-18,-33,-15,26,-1,-24,-38,-32,-20,-116,-167,-118
-18,-30,-12,24,-3,-21,-32,-27,-14,-113,-166,-116
-11,-15,-4,14,-3,-9,-29,-25,-9,-106,-157,-107
-9,-9,-1,9,-4,-5,-26,-20,-4,-105,-156,-105
-2,4,6,-1,-4,5,-21,-17,3,-94,-149,-97
0,11,11,-5,-6,11,-21,-13,7,-86,-147,-92
5,21,16,-14,-6,19,-25,-1,14,-68,-137,-87
3,27,24,-16,-10,25,-27,14,30,-38,-120,-77
6,37,31,-22,-13,34,-30,23,48,-21,-103,-68
38,74,36,-56,0,55,-33,28,65,-8,-79,-57
40,90,50,-65,-5,69,-35,31,79,14,-56,-38
51,116,65,-83,-8,90,-38,35,98,47,-30,-15
92,146,54,-119,18,100,-41,39,113,70,-7,12
102,152,50,-127,26,101,-44,41,123,86,13,25
115,157,42,-136,36,99,-47,47,138,98,30,26
130,161,31,-146,50,96,-49,54,145,111,44,30
131,178,46,-154,42,112,-52,52,140,116,47,32
141,182,41,-161,50,111,-55,46,132,110,39,36
121,179,57,-150,32,118,-55,42,126,109,35,32
96,176,80,-137,8,128,-55,37,118,103,29,23
101,175,74,-138,13,124,-55,33,114,101,23,14
101,174,73,-138,13,123,-55,29,103,88,20,5
78,162,84,-121,-3,123,-52,23,71,58,2,-5
57,142,85,-100,-15,114,-47,16,40,38,-19,-11
54,113,59,-84,-3,86,-44,9,19,18,-49,-27
51,103,53,-78,-1,78,-41,2,7,1,-76,-64
47,101,54,-74,-3,78,-36,-4,0,-15,-75,-81
51,97,47,-74,2,72,-36,-9,-10,-25,-75,-79
46,94,48,-70,-1,70,-40,-10,-19,-30,-75,-81
46,90,44,-68,1,66,-42,-10,-16,-38,-75,-79
60,93,33,-77,13,63,-45,-10,-15,-36,-73,-81
41,96,56,-68,-8,76,-48,-10,-14,-29,-65,-77
25,99,74,-62,-24,86,-50,-9,-9,-23,-59,-69
20,102,82,-61,-31,92,-53,-5,-11,-16,-52,-61
12,105,93,-58,-41,98,-55,-5,-7,-9,-46,-52
17,105,88,-61,-36,96,-55,-2,-5,-4,-40,-47
18,105,87,-62,-35,96,-55,0,-5,0,-35,-32
20,105,84,-63,-33,95,-55,0,-1,3,-35,-22
20,105,85,-63,-33,95,-54,-5,0,7,-35,-29
25,105,80,-65,-28,92,-49,-15,-1,10,-35,-33
34,105,72,-70,-20,88,-46,-26,-4,6,-35,-39
34,100,66,-67,-17,83,-43,-33,-9,-1,-37,-45
33,91,59,-62,-13,75,-38,-30,-11,-7,-41,-50
32,85,53,-59,-11,69,-35,-30,-16,-14,-43,-54
23,75,51,-49,-14,63,-35,-30,-19,-21,-46,-57
15,71,56,-44,-21,63,-35,-30,-23,-25,-49,-60
1,59,58,-30,-29,58,-35,-31,-25,-25,-51,-62
14,75,61,-45,-24,68,-35,-26,-25,-25,-55,-66
34,98,64,-67,-16,81,-35,-20,-25,-26,-55,-63
18,83,65,-51,-24,74,-35,-15,-25,-24,-55,-57
3,74,71,-39,-34,72,-35,-9,-25,-26,-54,-52
-12,58,70,-23,-41,64,-36,-4,-21,-20,-56,-49
-5,83,88,-39,-47,85,-34,2,-16,-10,-49,-44
28,135,108,-81,-40,121,-36,12,-13,0,-20,-40
21,144,124,-83,-52,134,-33,26,-9,36,-14,-45
7,135,128,-71,-61,132,-39,24,-5,46,-22,-45
40,122,82,-82,-21,102,-56,4,-8,21,-25,-45
73,111,38,-92,17,75,-52,-6,-16,11,-33,-45
78,97,20,-87,29,58,-50,-7,-23,4,-37,-44
66,82,16,-74,25,49,-45,-2,-28,-3,-44,-48
58,72,15,-65,21,43,-43,-8,-40,-10,-46,-55
48,56,8,-52,20,31,-33,-2,-42,-19,-54,-65
42,50,7,-47,17,28,-27,-8,-52,-22,-52,-74
30,35,5,-33,12,20,-18,1,-49,-27,-57,-88
4,30,27,-17,-12,28,-9,5,-50,-23,-53,-83
-13,21,34,-4,-24,27,-9,6,-53,-31,-55,-86
-40,8,48,16,-44,28,3,24,-44,-30,-57,-86
-28,23,51,2,-40,37,-8,7,-59,-27,-49,-82
-38,16,54,11,-46,35,17,51,-26,-31,-66,-86
-11,59,70,-24,-41,64,-7,28,-21,28,-3,-26
87,65,-22,-76,55,21,130,337,311,239,133,52
299,216,-83,-257,191,66,157,539,659,659,536,357
551,294,-257,-423,404,18,-265,-107,250,583,599,450
292,29,-262,-160,277,-116,-447,-715,-506,-162,-25,46
-191,-184,7,187,-99,-88,-355,-874,-995,-735,-479,-263
-293,-277,16,285,-154,-130,-242,-659,-827,-731,-540,-362
-149,-157,-8,153,-70,-82,-122,-276,-371,-347,-305,-232
-59,-65,-6,62,-26,-35,-60,-66,-153,-130,-143,-126
-66,-66,0,66,-33,-33,-16,-10,-92,-89,-119,-113
-61,-23,38,42,-50,8,-7,9,-67,-57,-81,-82
-56,-31,25,43,-40,-4,-1,33,-49,-56,-91,-95
-52,-19,33,35,-42,7,1,42,-49,-45,-77,-87
-51,-22,30,36,-40,4,6,48,-42,-44,-78,-91
-41,-14,27,28,-34,6,10,39,-36,-35,-71,-90
-43,1,45,21,-44,23,12,35,-32,-32,-67,-88
-56,4,60,26,-58,32,16,30,-26,-26,-64,-84
-46,6,52,20,-50,29,14,23,-24,-21,-59,-76
-41,6,46,17,-44,26,19,21,-20,-18,-58,-73
-31,12,43,9,-37,27,20,29,-17,-12,-51,-65
-26,9,34,8,-30,21,20,40,-14,-9,-50,-62
-27,16,43,5,-35,29,20,50,2,7,-39,-55
-23,36,59,-6,-41,47,20,59,22,26,-25,-45
-9,52,60,-21,-35,56,20,70,38,33,-10,-35
7,67,60,-37,-27,63,20,75,48,58,21,-24
22,82,60,-52,-19,71,21,93,73,94,40,0
46,106,60,-76,-8,83,17,116,103,123,55,23
64,122,59,-93,2,90,9,115,110,146,87,34
76,131,55,-104,10,93,3,115,115,157,102,58
101,156,55,-129,22,106,-5,115,115,180,105,84
119,171,52,-145,33,111,-12,115,115,187,105,85
120,171,50,-145,35,110,-19,113,116,180,107,85
119,167,48,-143,35,107,-25,105,114,180,110,90
108,165,57,-136,25,111,-25,99,116,175,110,90
97,165,69,-131,14,117,-25,92,104,175,104,89
73,159,86,-116,-7,122,-25,86,90,164,91,74
49,146,97,-98,-24,122,-25,80,74,143,80,58
48,134,86,-91,-19,110,-23,73,45,123,63,42
47,124,77,-86,-15,100,-20,65,15,103,47,22
40,110,70,-75,-15,89,-17,57,-12,83,28,4
44,103,58,-74,-7,80,-14,49,-26,63,9,-12
18,80,62,-49,-22,70,-11,43,-38,32,-7,-25
11,58,47,-36,-18,53,-10,38,-45,8,-20,-35
15,52,37,-34,-12,45,-15,35,-45,13,-20,-43
-11,65,76,-27,-44,70,-15,32,-45,17,-20,-39
32,109,77,-71,-23,93,-16,27,-45,22,-20,-33
46,111,65,-79,-9,88,-21,24,-46,26,-20,-30
45,108,63,-77,-9,85,-19,20,-42,32,-19,-25
59,112,53,-86,3,82,-23,20,-40,56,-10,-21
58,108,50,-83,4,79,-25,20,-40,64,0,-16
69,112,44,-91,13,78,-25,20,-36,65,11,-15
62,107,44,-85,9,75,-28,20,-34,70,12,-15
77,114,36,-96,20,75,-31,18,-36,73,9,-11
49,104,54,-77,-3,79,-29,13,-39,75,10,-10
35,112,76,-74,-21,94,-26,10,-43,65,5,-11
47,114,67,-81,-10,90,-23,7,-46,56,5,-17
6,69,63,-38,-29,65,-21,2,-49,48,4,-23
8,64,56,-36,-25,60,-17,0,-53,37,-3,-28
11,62,51,-37,-20,57,-15,4,-55,31,-7,-34
12,58,46,-35,-17,52,-13,5,-58,26,-13,-39
18,57,39,-37,-11,47,-9,5,-61,21,-19,-44
17,54,37,-35,-11,45,-10,6,-64,18,-24,-46
24,62,38,-43,-7,50,-10,4,-65,12,-21,-49
15,58,43,-36,-14,50,-10,8,-60,11,-20,-51
36,71,35,-53,0,53,-10,17,-60,19,-20,-55
-11,46,57,-18,-35,51,-4,28,-59,27,-15,-54
-44,43,87,0,-65,64,1,37,-55,35,-15,-43
28,106,78,-67,-25,91,7,36,-55,43,-14,-30
42,117,74,-80,-17,95,11,35,-57,50,-9,-21
43,110,67,-76,-13,88,19,34,-62,60,-6,-18
82,146,64,-114,9,105,14,30,-64,81,-2,-14
104,156,52,-130,25,104,-26,30,-69,80,2,-11
90,108,17,-99,36,62,-36,31,-71,51,5,-6
90,68,-22,-79,55,23,-27,29,-77,24,1,-5
97,50,-47,-73,72,1,-21,32,-77,15,-11,-12
96,52,-44,-73,70,3,-14,28,-82,13,-16,-15
86,42,-44,-63,65,-2,-8,31,-78,4,-29,-22
82,43,-39,-62,60,2,0,30,-80,2,-35,-23
74,34,-41,-54,57,-3,1,33,-82,-7,-41,-31
39,4,-35,-21,37,-15,13,46,-73,-8,-40,-27
48,14,-35,-31,42,-10,9,40,-103,-19,-39,-17
57,21,-37,-38,47,-8,27,64,-95,-18,-44,-20
55,23,-32,-39,44,-4,20,45,-105,-4,-34,-1
48,13,-35,-30,42,-11,52,82,-61,-5,-34,-15
28,49,21,-38,3,34,44,66,-46,63,39,21
63,45,-18,-54,40,13,109,278,175,206,123,72
293,170,-123,-231,208,23,218,630,618,613,478,319
575,290,-285,-433,430,3,-136,139,384,693,654,493
374,69,-306,-221,340,-119,-382,-560,-380,25,113,143
-109,-142,-33,126,-38,-87,-298,-796,-969,-598,-372,-191
-261,-259,1,260,-131,-129,-217,-666,-939,-717,-505,-310
-157,-209,-53,183,-52,-131,-94,-285,-486,-376,-306,-229
-55,-71,-16,63,-19,-43,-31,-44,-209,-112,-107,-106
-4,-25,-22,15,9,-23,26,51,-117,-60,-79,-81
10,5,-5,-7,7,0,55,86,-88,-15,-34,-50
22,9,-13,-15,17,-2,54,87,-75,-18,-44,-55
28,19,-9,-24,18,5,57,102,-72,-5,-34,-42
36,26,-10,-31,23,8,53,111,-66,-2,-33,-38
33,21,-11,-27,22,5,57,105,-59,6,-31,-31
17,13,-4,-15,11,4,53,103,-56,15,-27,-32
4,5,2,-5,1,3,50,98,-49,21,-25,-37
-4,6,10,-1,-8,8,50,94,-44,31,-14,-34
-11,4,15,3,-14,9,50,99,-39,36,-11,-36
-16,7,23,4,-20,15,50,100,-32,45,-1,-35
5,32,27,-19,-11,29,50,101,-28,44,3,-34
22,54,33,-38,-6,43,47,113,-21,46,11,-20
18,57,39,-38,-11,47,42,125,-5,62,23,-8
15,59,44,-37,-15,51,39,134,13,83,36,13
18,66,49,-42,-16,57,36,140,29,104,47,35
9,59,51,-34,-22,55,32,146,44,126,71,62
24,78,54,-52,-15,66,28,152,59,154,98,97
42,99,57,-71,-8,77,25,155,76,184,118,110
62,122,60,-92,0,91,25,158,101,199,134,118
105,164,59,-135,23,112,25,162,114,202,142,124
115,168,53,-142,31,110,25,165,117,213,144,125
143,190,47,-167,48,118,25,161,118,222,140,125
140,183,43,-162,49,112,29,159,134,237,140,125
116,152,36,-134,40,94,30,160,143,242,140,125
121,152,31,-137,45,92,30,155,130,229,139,125
110,143,33,-126,38,88,30,155,112,221,141,124
102,140,38,-121,32,88,29,154,77,208,129,108
92,133,41,-112,25,86,32,143,53,186,107,95
86,129,43,-108,21,86,35,132,27,154,89,91
60,110,50,-85,4,80,38,119,-7,123,72,85
26,73,47,-49,-11,60,40,111,-18,102,61,80
18,60,43,-39,-13,51,43,106,-22,93,56,73
29,55,26,-42,1,40,46,101,-28,89,52,71
16,47,30,-32,-7,38,41,98,-34,84,47,75
-29,39,68,-5,-49,54,40,92,-39,80,43,74
-34,32,66,1,-50,49,40,90,-37,75,39,77
-22,33,56,-6,-39,44,40,90,-31,79,42,81
2,55,53,-29,-25,54,40,90,-26,86,67,79
37,80,42,-59,-3,61,40,90,-23,98,76,84
40,82,42,-61,-1,61,40,90,-17,106,80,85
33,80,47,-56,-7,63,40,90,-15,104,85,85
27,80,53,-54,-13,66,40,86,-15,105,79,90
17,76,59,-47,-21,67,40,85,-15,105,81,90
18,74,56,-46,-20,65,40,85,-15,105,77,89
26,75,49,-51,-12,62,43,85,-15,104,75,84
26,69,43,-48,-8,55,46,85,-15,99,75,78
27,63,36,-45,-4,49,49,86,-18,96,71,75
26,55,30,-41,-2,42,52,90,-24,93,66,70
27,49,23,-38,2,35,55,89,-29,88,61,65
21,43,21,-32,0,32,56,92,-32,85,58,61
22,37,15,-29,3,26,60,95,-39,81,52,60
13,29,16,-21,-2,22,62,95,-38,80,51,60
-5,1,6,2,-6,3,65,98,-47,80,55,60
17,27,11,-22,3,19,69,103,-59,75,57,60
18,83,65,-51,-24,74,70,106,-50,75,60,61
16,90,74,-53,-29,82,74,109,-45,75,63,65
31,95,64,-63,-17,79,74,114,-36,92,65,65
9,102,93,-56,-42,97,77,114,-21,107,71,70
-4,109,112,-53,-58,110,72,109,-9,104,88,70
10,132,122,-71,-56,126,56,107,-8,106,97,67
39,134,95,-86,-28,114,39,102,-15,105,95,64
63,96,34,-80,14,65,35,100,-15,105,90,61
81,74,-8,-77,44,33,33,93,-22,105,89,59
106,62,-44,-84,75,8,27,100,-23,97,82,54
91,50,-41,-70,66,4,55,100,-28,92,82,55
57,40,-17,-48,37,11,78,99,-31,83,74,44
43,30,-13,-36,28,8,77,108,-29,79,66,36
38,21,-17,-29,27,2,78,100,-33,70,57,28
26,12,-14,-19,20,-1,88,114,-26,70,46,16
34,19,-14,-26,23,2,79,100,-36,71,41,22
27,9,-18,-18,22,-4,97,122,-15,67,30,15
28,23,-6,-25,16,8,90,102,-24,76,41,30
18,6,-13,-12,15,-4,114,126,-1,59,18,16
-5,40,44,-18,-24,42,115,127,3,102,58,38
62,78,16,-70,23,47,157,275,171,235,164,98
256,176,-80,-216,168,48,305,696,662,646,504,344
586,319,-266,-452,426,26,13,329,565,825,728,535
453,127,-326,-289,389,-99,-280,-404,-182,208,240,212
-85,-83,2,84,-43,-41,-223,-685,-809,-456,-276,-134
-258,-194,64,226,-161,-65,-138,-608,-856,-640,-444,-298
-146,-180,-34,163,-55,-107,-18,-271,-453,-371,-308,-236
-31,-62,-31,47,0,-46,55,-28,-160,-84,-99,-99
3,-39,-42,18,23,-40,87,81,-63,-12,-58,-86
6,-4,-10,0,8,-7,96,102,-43,21,-25,-57
-1,-12,-11,6,5,-11,105,113,-29,21,-33,-64
-29,-14,16,21,-22,1,106,124,-20,36,-29,-57
-41,-14,26,27,-33,6,104,120,-11,44,-24,-53
-12,-21,-9,17,-1,-15,106,121,-1,44,-27,-51
7,-19,-26,6,16,-22,104,114,3,46,-21,-48
11,-14,-25,2,18,-19,108,114,11,49,-20,-52
20,-5,-25,-7,23,-15,110,110,17,51,-14,-49
26,1,-25,-13,25,-12,110,108,23,51,-13,-51
28,3,-25,-15,26,-11,110,106,31,55,-7,-50
5,-18,-23,7,14,-21,129,102,45,58,-5,-49
23,5,-18,-13,20,-7,131,125,55,59,4,-42
55,40,-15,-47,35,12,121,148,60,67,17,-36
63,52,-11,-57,37,20,116,143,74,84,28,-29
57,50,-7,-53,32,21,107,148,89,96,33,-24
76,71,-5,-73,40,33,101,150,103,109,47,-8
135,126,-10,-131,72,58,95,151,124,139,82,22
145,135,-11,-140,78,62,95,149,136,170,98,39
130,122,-8,-126,69,57,94,156,148,180,112,49
162,148,-14,-155,88,67,90,172,159,189,120,55
171,177,6,-174,82,91,90,168,160,203,120,55
173,175,2,-174,85,88,90,165,160,208,140,55
203,175,-29,-188,115,73,90,162,166,214,145,55
198,175,-23,-186,110,76,90,160,163,220,137,55
196,176,-20,-186,107,77,90,158,169,213,134,56
186,169,-17,-177,101,76,90,147,181,203,130,48
159,147,-12,-153,85,68,90,139,158,189,107,30
128,118,-11,-123,69,53,95,130,129,164,68,15
103,87,-16,-95,59,35,95,121,104,134,36,-13
101,74,-27,-87,63,24,96,113,81,108,13,-36
90,63,-27,-76,58,18,100,106,73,101,0,-52
84,65,-20,-74,52,22,100,99,67,96,-12,-66
79,70,-9,-74,44,30,98,91,62,91,-15,-65
108,73,-35,-91,71,19,93,83,56,85,-18,-65
140,77,-63,-109,101,7,90,82,51,80,-21,-65
134,80,-53,-107,94,13,87,85,53,86,-24,-65
131,83,-48,-107,89,18,82,85,59,92,-26,-64
126,85,-41,-106,83,22,80,85,62,99,-17,-60
125,90,-35,-107,80,27,80,85,68,98,-9,-57
118,88,-30,-103,74,29,80,84,69,115,1,-55
150,125,-25,-137,87,49,79,81,65,137,3,-51
172,150,-22,-161,96,64,81,78,65,135,-1,-50
155,140,-15,-147,85,62,78,75,65,134,1,-53
160,141,-19,-150,89,61,88,72,65,130,-4,-56
170,135,-35,-152,102,50,106,70,65,130,-5,-59
187,136,-51,-161,119,42,105,68,61,128,-5,-61
172,127,-45,-149,108,40,103,63,60,120,-14,-73
141,112,-28,-126,84,42,100,57,60,114,-25,-85
112,92,-21,-102,66,35,99,54,55,107,-38,-93
121,102,-19,-111,70,41,103,48,56,101,-45,-99
162,142,-21,-152,91,60,105,45,53,95,-45,-95
158,139,-19,-149,89,60,105,49,50,99,-45,-95
162,141,-21,-152,91,60,105,50,45,102,-45,-95
165,146,-19,-155,91,63,105,50,43,105,-45,-95
159,144,-16,-151,87,64,105,50,39,109,-45,-95
151,148,-3,-149,77,72,99,50,32,111,-41,-95
151,176,25,-164,63,101,96,47,60,130,-40,-96
166,221,55,-194,55,138,91,41,77,142,-40,-95
141,225,84,-183,28,155,87,36,66,138,-41,-96
165,254,89,-210,38,171,78,30,65,138,-40,-95
180,258,78,-219,51,167,40,24,59,132,-43,-97
181,207,26,-194,77,116,32,20,55,137,-48,-101
232,198,-34,-215,133,82,49,28,58,128,-52,-106
236,189,-47,-213,141,71,57,42,60,130,-57,-111
233,181,-52,-207,142,65,99,51,60,158,-60,-114
215,161,-54,-187,134,53,116,57,64,155,-71,-129
189,133,-56,-160,122,38,113,58,64,149,-78,-141
189,128,-61,-159,125,33,126,65,66,144,-75,-143
179,122,-57,-150,118,32,120,65,70,138,-76,-145
176,119,-56,-147,116,31,137,73,76,135,-72,-150
164,113,-51,-138,107,31,129,71,79,144,-70,-148
163,112,-51,-137,107,30,150,77,85,151,-70,-153
164,125,-39,-144,101,43,141,78,86,159,-54,-145
177,187,10,-182,83,98,170,134,164,257,9,-88
248,228,-20,-238,134,104,262,419,504,584,267,99
