I,II,III,aVR,aVL,aVF,V1,V2,V3,V4,V5,V6
-37,-19,19,28,-28,0,79,58,-19,-170,89,79
-37,1,38,18,-38,19,83,56,-15,-167,93,86
-67,24,91,21,-80,58,114,72,-8,-161,107,106
-52,39,91,6,-72,64,121,78,5,-152,116,114
-10,71,81,-31,-46,76,90,67,10,-149,123,126
3,80,77,-41,-37,78,59,71,34,-139,152,152
-1,66,67,-33,-34,66,45,64,29,-138,167,159
4,53,49,-29,-23,51,45,62,9,-132,153,145
-38,-11,27,24,-33,8,38,59,-3,-152,135,128
-97,-75,21,86,-59,-27,41,30,-73,-216,96,94
-89,-114,-26,102,-31,-70,29,47,-70,-225,70,63
-81,-135,-54,109,-14,-94,42,-4,-111,-255,50,44
-62,-121,-59,91,-1,-89,38,39,-68,-236,62,58
-87,-131,-44,110,-21,-87,44,-28,-110,-266,45,39
-63,-110,-47,87,-8,-78,25,22,-91,-241,70,63
-147,-116,30,131,-88,-43,138,-7,-130,-264,64,51
0,187,187,-93,-94,186,244,518,310,76,287,279
751,574,-177,-663,464,198,-328,1492,1595,834,737,723
675,270,-405,-472,540,-67,-661,136,702,308,507,493
71,-158,-229,44,150,-193,-401,-911,-673,-462,117,107
-17,-281,-264,149,124,-272,-239,-302,-394,-434,94,76
-92,-230,-139,162,23,-184,-27,-152,-278,-391,78,60
-102,-146,-45,124,-28,-95,71,6,-147,-295,89,64
-96,-144,-48,121,-24,-96,67,0,-116,-298,83,60
-109,-124,-15,117,-47,-70,85,9,-125,-291,85,73
-101,-121,-20,111,-40,-70,80,32,-95,-277,83,77
-135,-117,18,126,-76,-49,103,14,-122,-282,78,73
-118,-113,5,115,-61,-53,109,48,-89,-264,78,77
-93,-111,-18,102,-38,-64,111,28,-111,-270,73,73
-109,-105,5,107,-56,-50,110,55,-103,-256,72,77
-137,-103,34,119,-85,-35,110,40,-103,-258,68,82
-124,-92,31,108,-77,-30,111,72,-90,-250,87,89
-102,-85,17,93,-59,-34,105,106,-77,-247,98,92
-84,-76,7,80,-45,-34,100,118,-53,-240,93,97
-83,-63,20,72,-51,-21,95,168,-6,-209,100,100
-60,-43,17,52,-38,-13,90,247,53,-190,131,127
-38,-32,6,35,-22,-13,83,326,106,-174,142,142
-13,-23,-10,18,-1,-16,80,388,152,-145,137,138
-3,-12,-9,8,3,-10,95,450,193,-134,154,151
-33,-6,27,19,-30,11,95,467,217,-135,161,156
-26,-2,24,14,-25,11,80,435,199,-136,159,154
-18,1,18,9,-18,9,71,389,154,-132,160,155
-14,5,19,4,-17,12,60,320,116,-146,159,155
-8,2,10,3,-9,6,55,256,83,-165,161,155
-18,-7,11,13,-14,2,47,197,60,-167,155,149
-60,-18,42,39,-51,12,41,137,30,-181,147,142
-86,-27,59,56,-72,16,34,97,1,-204,141,136
-62,-36,26,48,-44,-5,29,64,-36,-216,133,129
-33,-37,-5,35,-14,-21,52,43,-55,-214,126,123
-38,-43,-5,40,-16,-23,63,27,-51,-233,119,117
-81,-63,18,71,-49,-22,58,12,-74,-242,115,115
-100,-64,36,82,-68,-14,58,6,-84,-238,115,115
-98,-56,41,77,-69,-7,53,-1,-88,-241,115,111
-93,-54,39,74,-66,-7,56,-8,-95,-239,115,110
-89,-48,41,69,-65,-3,59,-14,-84,-240,115,109
-95,-45,50,70,-72,3,60,-20,-77,-233,115,106
-82,-38,44,60,-63,3,72,-9,-69,-222,115,103
-79,-31,48,55,-63,9,75,14,-62,-212,126,115
-108,-24,84,66,-96,29,69,29,-54,-202,143,140
-71,-17,54,44,-63,19,67,49,-30,-196,146,140
-53,-12,41,32,-47,15,63,61,-4,-189,143,135
-85,-5,79,45,-82,37,58,55,1,-182,141,134
-56,-1,55,28,-55,27,64,53,-1,-176,138,129
-36,5,41,15,-39,23,77,47,3,-170,142,132
-30,11,42,9,-36,26,74,46,5,-164,149,135
-12,21,34,-5,-23,27,76,42,5,-159,151,135
-14,19,32,-3,-23,25,75,36,10,-153,149,140
-31,22,54,4,-42,38,75,33,14,-148,151,140
-39,41,80,-1,-60,60,89,25,15,-142,149,144
-25,50,75,-13,-50,62,81,27,23,-140,151,146
0,103,103,-51,-52,103,50,13,21,-148,164,165
32,133,101,-83,-35,117,17,31,28,-141,168,183
31,101,70,-66,-20,85,15,18,9,-149,154,167
17,77,60,-48,-22,68,15,12,10,-140,154,161
-35,6,42,14,-38,24,11,-13,-26,-165,128,113
-65,-57,8,61,-36,-25,11,-49,-90,-212,103,80
-47,-94,-48,71,1,-70,7,-44,-90,-223,91,77
-63,-105,-41,84,-11,-73,21,-85,-132,-240,74,62
-52,-92,-40,72,-6,-66,11,-46,-84,-219,75,70
-89,-113,-23,101,-33,-68,34,-115,-151,-255,57,40
-45,-69,-24,57,-10,-47,13,-42,-91,-204,88,71
-130,-46,84,88,-107,19,166,-113,-184,-241,53,51
195,340,145,-268,25,242,135,745,617,304,392,388
884,634,-249,-759,566,192,-503,1420,1751,932,774,766
521,142,-379,-331,450,-118,-666,-348,287,102,360,357
22,-234,-256,106,139,-245,-394,-920,-742,-486,54,52
-18,-260,-241,139,112,-250,-214,-287,-330,-367,37,32
-70,-181,-110,126,20,-145,-11,-215,-281,-340,-2,-10
-51,-103,-52,78,0,-77,35,-71,-135,-248,42,29
-72,-105,-33,89,-19,-69,47,-128,-157,-250,35,30
-70,-89,-18,80,-25,-53,59,-77,-132,-228,42,44
-94,-99,-5,97,-44,-52,60,-85,-128,-231,42,38
-89,-93,-4,91,-42,-49,63,-78,-135,-228,45,43
-88,-96,-7,92,-40,-51,58,-59,-113,-219,46,46
-127,-95,32,110,-79,-31,60,-67,-127,-223,47,43
-116,-84,32,100,-74,-26,66,-43,-104,-210,52,41
-98,-76,22,87,-60,-27,91,-45,-108,-208,49,39
-85,-64,20,74,-52,-22,90,-25,-96,-198,51,40
-63,-55,7,59,-35,-24,89,-7,-84,-192,49,45
-55,-45,10,49,-32,-17,91,37,-52,-172,52,67
-64,-34,30,49,-47,-2,88,85,-16,-148,55,62
-62,-12,50,37,-56,19,94,166,39,-124,78,76
-53,10,63,21,-58,36,99,252,102,-96,90,91
-15,37,51,-11,-33,44,93,329,163,-59,100,94
16,52,36,-34,-10,44,86,388,201,-32,122,112
17,46,29,-32,-6,37,79,407,207,-29,127,113
27,44,17,-36,5,30,72,378,191,-32,134,108
32,39,8,-36,12,23,68,314,150,-41,126,105
1,36,35,-19,-17,35,61,243,108,-53,114,101
-22,32,54,-5,-39,43,57,181,64,-71,106,98
-23,19,43,2,-33,31,50,137,27,-88,94,94
-34,8,42,13,-38,25,45,70,-5,-99,86,89
-37,-1,36,19,-36,17,39,16,-47,-115,77,80
-38,-6,31,22,-34,12,36,-8,-53,-130,68,74
-38,-11,28,25,-33,8,33,-38,-59,-130,61,66
-36,-18,18,27,-27,0,30,-60,-82,-130,58,59
-36,-21,15,28,-25,-3,28,-69,-78,-128,54,53
-35,-34,1,34,-18,-16,22,-59,-86,-136,51,46
-58,-47,11,52,-34,-18,39,-60,-96,-149,45,42
-88,-43,45,65,-66,1,52,-83,-89,-140,46,35
-88,-41,47,64,-68,3,44,-79,-86,-132,50,31
-61,-37,24,49,-42,-6,43,-68,-81,-124,50,24
-72,-35,37,53,-54,1,38,-62,-77,-117,50,31
-107,-33,74,69,-90,21,35,-53,-72,-108,50,50
-100,-23,77,61,-88,27,31,-49,-66,-97,50,50
-84,-12,72,48,-78,30,30,-40,-59,-87,46,50
-80,-3,77,41,-79,37,30,-35,-53,-80,60,62
-78,6,84,36,-81,45,30,-27,-46,-78,64,62
-64,9,73,28,-69,41,30,-21,-39,-75,52,53
-48,14,62,17,-55,38,29,-24,-37,-72,49,48
-36,19,55,8,-45,36,41,-26,-30,-71,39,40
-27,18,45,5,-36,31,46,-40,-40,-67,37,36
-21,15,36,3,-29,25,45,-51,-50,-59,44,39
-19,7,27,6,-23,17,45,-40,-41,-51,46,40
-24,32,56,-4,-40,44,46,-38,-38,-42,45,40
-33,50,83,-9,-59,66,78,-32,-32,-33,44,38
-16,77,93,-30,-55,85,88,-23,-24,-20,61,57
14,95,81,-55,-34,88,46,-34,-25,-9,81,64
41,88,47,-64,-3,67,8,-22,-9,12,81,56
53,99,46,-76,3,72,-3,-43,-16,14,73,45
25,60,36,-43,-6,48,-20,-33,0,8,76,42
-13,-8,5,10,-9,-1,-21,-80,-62,-44,27,26
-21,-51,-30,36,5,-40,-21,-106,-104,-83,-5,-2
-66,-103,-38,85,-14,-70,-14,-107,-102,-96,-18,-25
-78,-108,-30,93,-24,-68,-6,-133,-140,-106,-31,-33
-43,-101,-59,72,8,-80,-9,-99,-104,-88,-35,-32
-77,-102,-25,90,-25,-63,13,-162,-158,-119,-50,-41
-38,-66,-28,52,-5,-46,-2,-81,-92,-72,-7,-23
-153,-13,140,83,-146,63,192,-124,-177,-62,6,-3
327,440,113,-383,106,276,32,981,879,602,392,394
976,585,-392,-780,684,97,-606,1330,1696,1002,622,616
434,3,-431,-218,432,-214,-658,-663,-39,47,163,164
18,-267,-286,125,152,-276,-419,-896,-722,-350,-79,-78
-1,-246,-245,124,122,-245,-198,-285,-298,-207,-101,-101
-89,-194,-105,142,8,-150,-18,-254,-275,-181,-109,-112
-90,-136,-46,114,-22,-91,4,-106,-128,-101,-84,-88
-119,-130,-11,124,-54,-70,51,-161,-168,-120,-91,-96
-76,-113,-37,94,-19,-75,63,-97,-127,-89,-72,-78
-103,-114,-12,109,-45,-63,65,-114,-140,-92,-78,-80
-110,-102,7,106,-58,-47,67,-95,-133,-77,-74,-71
-106,-98,8,102,-57,-45,81,-86,-121,-68,-72,-69
-115,-93,23,103,-69,-34,87,-87,-129,-62,-70,-64
-96,-85,11,90,-53,-37,83,-68,-107,-50,-69,-59
-114,-82,32,98,-72,-25,91,-67,-110,-45,-64,-55
-103,-75,28,89,-65,-23,89,-48,-93,-31,-54,-46
-103,-70,33,86,-68,-18,89,-28,-76,-23,-47,-41
-102,-66,36,83,-69,-14,85,18,-35,-9,-39,-34
-68,-36,32,52,-50,-2,85,72,5,14,-32,-28
-50,1,51,24,-51,26,83,158,50,47,-23,-22
5,13,8,-9,-2,10,79,248,112,72,-15,-12
35,22,-14,-28,24,4,81,323,168,104,-6,-3
48,42,-6,-45,27,18,76,367,195,117,0,8
75,54,-21,-64,48,16,69,380,206,128,5,25
63,45,-18,-54,40,13,63,344,184,128,10,23
42,37,-5,-39,23,16,56,287,146,111,13,17
27,29,2,-28,12,16,49,228,115,100,20,14
44,22,-22,-32,33,0,44,160,75,84,17,8
7,9,3,-8,2,6,39,110,43,73,9,5
-25,-1,24,13,-24,12,34,40,10,62,1,-2
-21,-14,7,17,-14,-3,29,-18,-20,54,-7,-12
-22,-20,1,21,-11,-9,26,-47,-39,45,-16,-20
-8,-24,-16,17,4,-20,19,-80,-66,35,-28,-29
-36,-48,-12,42,-12,-30,19,-80,-83,31,-37,-39
-46,-49,-3,48,-21,-26,33,-89,-78,30,-40,-39
-44,-43,1,43,-22,-21,36,-108,-77,30,-40,-42
-46,-42,4,44,-25,-19,34,-104,-88,30,-37,-55
-43,-36,7,39,-25,-14,36,-106,-86,30,-35,-53
-42,-34,8,38,-25,-13,34,-104,-79,32,-35,-49
-29,-28,2,29,-15,-13,36,-106,-75,37,-32,-46
-45,-20,25,32,-35,2,35,-103,-68,40,-27,-41
-37,-15,22,26,-29,3,35,-93,-64,47,-25,-39
-33,-6,27,20,-30,10,50,-83,-57,68,-20,-34
-66,-2,64,34,-65,31,51,-73,-51,77,-17,-28
-50,1,52,24,-51,26,41,-74,-44,74,-13,-25
-45,4,49,21,-48,26,36,-76,-37,76,-10,-20
-33,6,39,13,-36,22,26,-75,-32,74,-15,-16
-25,11,36,7,-30,23,23,-76,-27,75,-23,-18
-20,7,27,7,-24,17,19,-75,-25,75,-29,-29
4,8,4,-7,0,6,21,-72,-24,75,-34,-35
-46,-1,45,23,-46,22,35,-70,-21,76,-28,-27
-23,36,58,-7,-41,47,50,-65,-18,85,-20,-21
22,62,40,-42,-9,51,58,-67,-21,83,-15,-15
17,50,33,-33,-8,41,43,-56,-8,90,-6,-7
33,94,60,-64,-14,77,38,-65,-6,119,-3,-2
51,97,46,-74,2,71,14,-60,7,131,9,15
63,77,14,-70,24,45,-20,-71,14,108,16,25
53,67,14,-60,20,40,-20,-73,-2,96,5,14
32,4,-28,-18,30,-12,-22,-82,-29,72,-28,-27
-45,-63,-18,55,-14,-40,-15,-145,-92,31,-75,-70
-85,-104,-19,95,-32,-62,-18,-125,-98,18,-102,-100
-62,-112,-50,87,-5,-81,-10,-177,-135,-6,-110,-115
3,-90,-94,44,49,-92,-17,-138,-103,20,-107,-94
-28,-105,-78,67,25,-91,5,-193,-173,-25,-121,-108
-28,-68,-40,48,7,-54,-1,-132,-108,23,-75,-72
-110,-71,39,90,-74,-16,108,-213,-178,-5,-105,-106
92,237,145,-165,-27,191,163,446,366,370,152,147
907,603,-304,-755,605,149,-415,1521,1661,1055,528,526
701,150,-551,-425,626,-201,-731,-75,543,398,219,216
62,-264,-326,102,195,-295,-486,-1135,-737,-262,-113,-114
42,-253,-295,106,169,-274,-284,-450,-374,-149,-164,-168
-57,-209,-152,133,48,-181,-61,-339,-290,-115,-180,-185
-64,-138,-74,101,6,-106,13,-192,-161,-17,-143,-145
-98,-138,-40,118,-29,-89,29,-196,-153,-22,-149,-145
-134,-125,9,129,-71,-58,53,-165,-148,-8,-129,-125
-110,-118,-7,114,-51,-62,53,-149,-123,7,-124,-124
-124,-112,12,118,-68,-50,84,-168,-139,4,-120,-120
-81,-102,-21,92,-30,-62,84,-139,-107,17,-116,-115
-101,-101,0,101,-50,-50,86,-158,-122,10,-115,-114
-107,-91,16,99,-61,-37,89,-136,-100,21,-109,-108
-91,-89,2,90,-47,-43,90,-141,-105,19,-111,-106
-106,-82,24,94,-64,-29,89,-116,-95,17,-103,-96
-89,-73,16,81,-52,-28,84,-86,-84,34,-95,-92
-83,-63,20,73,-52,-21,86,-51,-57,58,-87,-83
-103,-48,55,75,-79,3,82,-7,-20,67,-79,-78
-82,-25,58,53,-70,16,80,71,26,93,-71,-72
-39,5,44,17,-42,24,80,164,90,122,-60,-63
0,39,39,-20,-20,39,76,250,152,157,-47,-52
27,53,26,-40,0,39,69,304,182,177,-40,-43
17,47,30,-33,-6,38,63,311,176,174,-40,-44
17,46,29,-32,-6,37,56,294,171,175,-39,-45
6,42,36,-24,-15,39,49,263,166,181,-41,-46
-13,40,53,-14,-33,47,44,196,142,160,-38,-43
-10,37,47,-13,-29,42,38,112,100,134,-45,-50
-30,25,54,2,-42,39,31,54,57,127,-59,-64
-30,14,44,8,-37,29,24,-5,14,121,-61,-66
-57,2,60,28,-59,31,18,-47,-18,112,-58,-63
-32,-12,20,22,-26,4,9,-91,-44,74,-66,-70
-11,-29,-19,20,4,-24,2,-133,-68,64,-85,-85
-91,-44,47,67,-69,1,6,-133,-70,73,-85,-85
-70,-46,25,58,-47,-10,12,-146,-70,65,-80,-80
-53,-45,8,48,-30,-18,15,-157,-75,65,-79,-79
-74,-45,29,59,-51,-8,20,-153,-75,60,-75,-74
-54,-45,9,49,-31,-18,25,-159,-74,60,-74,-75
-48,-44,4,46,-26,-20,24,-160,-68,65,-69,-83
-61,-36,25,48,-43,-6,27,-160,-62,68,-64,-84
-68,-28,40,47,-54,6,35,-151,-57,73,-59,-77
-48,-20,28,34,-37,4,36,-138,-51,79,-55,-74
-53,-12,41,33,-47,14,34,-128,-46,87,-50,-69
-77,-6,71,41,-74,32,31,-121,-41,101,-47,-64
-75,1,76,37,-75,38,29,-117,-37,107,-41,-61
-70,4,74,32,-73,39,32,-111,-34,110,-38,-58
-65,11,76,27,-71,43,35,-105,-31,114,-32,-56
-58,16,74,20,-66,45,36,-100,-27,116,-31,-52
-56,21,77,17,-66,48,35,-95,-23,121,-54,-50
-32,30,62,1,-47,46,35,-92,-18,119,-55,-48
-9,39,48,-16,-29,44,42,-87,-11,122,-43,-37
13,53,40,-33,-14,46,56,-87,-8,117,-38,-28
-8,64,72,-28,-40,68,66,-78,2,136,-24,-17
-9,110,119,-51,-64,114,34,-79,7,158,-15,-8
65,148,83,-107,-9,115,-8,-74,15,152,-1,0
49,110,61,-80,-6,86,-13,-71,9,141,-1,7
40,92,52,-66,-7,72,-29,-87,-2,132,-4,4
38,44,6,-42,15,25,-50,-98,-6,125,-18,-28
-44,-35,9,39,-27,-13,-36,-151,-67,78,-64,-76
-56,-66,-10,62,-23,-38,-46,-139,-73,57,-91,-96
-79,-81,-2,80,-38,-41,-27,-175,-113,41,-101,-104
-27,-61,-34,44,4,-48,-38,-134,-80,61,-83,-84
-41,-76,-35,59,-3,-55,-19,-182,-115,33,-100,-99
-59,-47,11,53,-35,-18,-6,-145,-90,58,-72,-71
-88,-63,25,75,-57,-19,55,-182,-133,32,-102,-97
-35,164,199,-65,-118,181,203,192,145,268,63,63
799,605,-194,-702,496,205,-296,1435,1481,993,492,485
833,308,-525,-570,679,-108,-707,342,886,615,317,311
93,-179,-272,43,182,-225,-517,-1128,-636,-167,-71,-74
34,-237,-271,101,153,-254,-346,-558,-442,-146,-144,-143
-28,-187,-158,108,65,-172,-102,-307,-259,-88,-156,-156
-75,-120,-45,98,-15,-82,-7,-192,-167,-15,-128,-128
-84,-116,-32,100,-25,-74,11,-156,-117,16,-127,-126
-96,-107,-11,102,-42,-59,38,-170,-140,10,-117,-118
-104,-100,4,102,-54,-48,31,-128,-103,33,-110,-113
-154,-96,58,124,-105,-19,68,-151,-131,32,-106,-109
-117,-86,31,101,-74,-27,68,-113,-101,38,-96,-101
-154,-83,72,118,-113,-6,71,-128,-117,36,-94,-99
-161,-73,88,117,-124,7,73,-107,-99,42,-87,-91
-141,-68,73,104,-107,2,75,-105,-95,39,-86,-88
-139,-61,78,99,-108,8,75,-81,-86,45,-81,-83
-120,-56,64,88,-92,4,70,-55,-73,48,-77,-78
-119,-50,69,84,-94,9,70,-25,-50,53,-75,-75
-93,-31,62,62,-77,15,64,15,-11,56,-63,-68
-67,1,68,33,-68,34,68,84,32,84,-42,-58
-43,29,72,6,-58,51,82,180,96,117,-29,-45
-18,52,70,-17,-44,61,76,269,157,141,-5,-18
-2,58,60,-29,-31,59,63,329,195,170,17,-5
45,55,11,-50,17,33,53,318,195,166,14,-4
39,56,17,-47,11,36,43,305,195,158,12,0
23,53,30,-38,-4,41,36,295,193,155,9,2
58,71,13,-65,22,42,29,248,153,147,5,6
72,78,5,-75,34,41,21,181,106,129,5,3
46,56,10,-51,18,33,13,116,65,106,-1,-5
0,43,43,-21,-22,42,12,61,34,92,-3,-10
-28,22,50,3,-40,36,18,0,15,75,-11,-18
-66,-16,50,41,-58,17,23,-32,5,63,-5,-23
-92,-37,54,64,-72,8,26,-56,-5,52,2,-32
-69,-31,38,50,-54,4,31,-96,-41,39,-34,-44
-42,-27,16,34,-28,-6,35,-94,-62,32,-48,-46
-31,-23,8,27,-20,-7,30,-90,-57,26,-40,-44
-30,-17,13,23,-21,-2,30,-86,-51,22,-40,-41
-64,-14,50,39,-57,18,30,-88,-53,17,-33,-39
-72,-9,63,40,-67,27,30,-109,-72,12,-32,-40
-54,-5,49,29,-51,22,31,-100,-67,11,-27,-30
-44,0,44,22,-44,22,27,-90,-57,19,-18,-20
-24,4,29,10,-27,16,25,-80,-50,28,-7,-10
-63,9,72,27,-68,40,23,-65,-35,25,1,1
-78,15,93,32,-86,54,36,-52,-22,37,7,9
-70,20,90,25,-80,55,46,-41,-10,53,16,22
-57,25,82,16,-70,53,37,-34,-5,49,18,25
-58,32,91,12,-75,61,36,-31,1,51,40,37
-41,34,75,3,-58,54,29,-36,5,49,56,51
26,36,11,-31,7,23,26,-34,11,51,54,50
-7,33,40,-13,-24,36,21,-35,14,46,57,52
-7,39,45,-16,-27,42,20,-35,20,44,60,56
7,65,57,-36,-25,60,45,-34,21,42,61,56
-25,60,85,-17,-55,72,75,-34,17,34,47,47
-19,80,99,-31,-59,89,81,-25,38,57,65,63
13,135,122,-75,-55,129,42,-31,41,62,77,71
35,136,102,-86,-34,119,8,-17,57,56,77,73
17,115,98,-67,-40,106,6,-27,42,45,88,87
27,103,76,-65,-24,89,-7,-13,28,44,81,82
1,34,33,-18,-16,33,-15,-45,-7,7,37,34
-9,-21,-12,15,1,-16,-25,-107,-76,-56,12,7
-4,-66,-62,35,30,-64,-33,-105,-75,-74,8,4
-35,-79,-44,57,5,-61,-14,-135,-101,-87,1,-1
-24,-77,-53,50,15,-65,-24,-83,-52,-70,7,4
-63,-96,-34,80,-14,-65,4,-149,-107,-108,-15,-15
-38,-49,-11,44,-13,-31,-4,-63,-54,-60,14,13
-136,-27,109,81,-123,41,146,-110,-138,-77,2,-3
207,348,140,-278,33,244,125,699,589,398,309,306
922,602,-321,-762,621,140,-492,1404,1632,934,633,636
552,179,-373,-365,463,-97,-664,-316,290,201,308,307
39,-161,-200,62,120,-180,-427,-957,-683,-335,13,10
19,-229,-248,105,134,-239,-255,-324,-309,-254,-56,-47
-71,-165,-94,119,11,-129,-34,-230,-246,-223,-47,-52
-64,-106,-42,85,-11,-73,16,-62,-99,-147,-4,-23
-84,-102,-19,93,-32,-60,39,-103,-116,-162,-1,-26
-84,-87,-3,85,-40,-45,43,-65,-95,-143,13,-6
-92,-87,5,90,-48,-41,57,-68,-93,-144,-4,-3
-127,-76,52,101,-89,-12,82,-67,-100,-137,10,6
-111,-72,39,91,-75,-16,70,-45,-81,-129,13,10
-112,-73,39,92,-75,-17,78,-50,-98,-129,21,15
-120,-86,34,103,-76,-26,73,-18,-73,-122,28,23
-105,-78,27,91,-66,-25,75,-16,-75,-127,32,24
-91,-62,28,76,-59,-17,70,19,-57,-119,42,37
-106,-53,53,79,-79,0,70,32,-47,-121,37,59
-93,-42,51,68,-72,4,70,54,-18,-118,51,68
-59,-30,29,44,-44,-1,64,111,19,-96,60,61
-23,1,24,11,-23,12,66,188,56,-68,76,74
23,20,-3,-21,13,8,62,271,117,-42,88,85
29,47,18,-38,5,33,53,363,181,-14,109,110
19,69,50,-45,-15,59,44,409,211,6,143,139
65,73,8,-69,28,40,35,401,200,23,137,131
82,77,-5,-79,43,36,26,388,183,17,115,112
53,64,11,-59,20,38,20,346,162,-14,106,107
48,53,5,-50,21,28,20,277,126,-31,126,127
45,43,-2,-44,23,20,19,209,84,-49,133,132
2,34,31,-18,-15,32,15,148,58,-61,128,128
-2,28,30,-13,-17,29,15,104,30,-69,131,131
32,20,-12,-26,21,4,18,69,-8,-99,129,130
-3,13,16,-5,-10,14,20,47,-16,-111,129,129
-14,6,20,4,-18,13,20,35,-22,-114,125,125
-33,-2,31,18,-32,14,20,25,-46,-133,122,122
-71,-9,62,40,-67,26,20,18,-58,-136,120,120
-68,-16,51,41,-59,17,20,7,-64,-134,116,116
-80,-24,56,51,-68,16,15,9,-69,-135,114,114
-87,-32,55,59,-71,12,15,16,-64,-135,116,116
-85,-33,53,59,-69,10,14,19,-59,-134,112,113
-78,-22,55,50,-66,16,10,30,-53,-127,129,127
-56,-13,43,35,-50,15,10,25,-48,-121,148,140
-49,12,61,19,-56,36,12,52,-41,-114,158,151
-17,42,60,-13,-39,51,23,75,-27,-107,165,162
-11,45,57,-18,-34,51,32,79,-13,-101,177,177
-53,44,97,4,-76,70,30,111,2,-95,197,197
-41,51,93,-5,-67,72,23,107,20,-90,193,191
-34,48,82,-7,-58,64,19,101,35,-85,189,188
-40,38,78,1,-60,58,13,102,35,-78,189,185
-46,21,67,12,-57,44,7,92,31,-74,182,180
-25,38,64,-7,-45,51,11,101,29,-68,191,184
24,84,60,-54,-18,72,32,110,26,-64,198,193
21,91,70,-56,-25,80,53,110,23,-61,204,210
0,100,100,-50,-50,100,42,112,36,-55,220,226
21,143,122,-82,-51,132,12,107,49,-57,245,239
60,164,105,-112,-23,134,-16,114,63,-49,257,239
38,138,99,-88,-31,118,-35,104,47,-54,250,223
21,105,84,-63,-32,94,-51,112,37,-46,243,222
-15,29,44,-7,-29,36,-45,71,-3,-86,194,198
-58,-41,16,49,-37,-12,-39,51,-52,-135,168,170
-57,-79,-23,68,-17,-51,-40,48,-54,-148,156,155
-64,-78,-14,71,-25,-46,-26,5,-85,-171,139,142
-11,-67,-55,39,22,-60,-35,48,-37,-152,143,141
-36,-73,-37,55,1,-54,-7,-31,-100,-184,120,114
-49,-47,3,48,-26,-22,-19,56,-41,-139,143,133
-140,-33,107,86,-123,37,138,3,-133,-172,131,131
215,391,176,-303,19,283,92,879,711,409,495,495
897,656,-241,-776,569,207,-538,1450,1757,988,846,846
488,169,-320,-328,404,-75,-672,-309,263,136,446,450
17,-188,-204,86,111,-195,-407,-780,-684,-416,154,153
29,-221,-250,96,140,-236,-238,-187,-286,-314,125,132
-67,-152,-85,110,9,-118,-39,-124,-244,-285,74,95
-45,-101,-56,74,5,-78,-1,42,-105,-203,103,112
-70,-104,-34,88,-18,-69,17,-11,-126,-218,102,100
-73,-89,-16,81,-28,-52,29,29,-92,-195,101,107
-86,-93,-7,90,-40,-49,30,10,-95,-196,117,120
-127,-83,44,105,-85,-19,39,13,-99,-188,132,137
-112,-81,31,96,-71,-25,32,21,-80,-179,129,133
-109,-76,33,92,-71,-21,37,7,-94,-179,128,130
-79,-69,11,74,-45,-29,45,44,-71,-166,125,128
-54,-63,-9,58,-22,-36,52,41,-68,-168,124,124
-67,-56,11,61,-38,-22,45,59,-47,-157,128,123
-61,-49,12,55,-37,-18,45,74,-35,-155,129,119
-82,-43,39,62,-60,-2,40,96,-12,-148,131,121
-83,-22,61,52,-72,20,41,147,18,-134,128,119
-45,0,44,22,-45,22,50,230,77,-106,147,149
-11,25,37,-7,-24,31,45,309,139,-72,162,167
35,60,25,-48,5,42,40,380,189,-56,169,169
43,68,26,-56,8,47,35,429,230,-40,173,177
82,86,3,-84,39,44,29,426,226,-33,167,174
93,89,-5,-91,49,42,24,396,208,-24,161,175
76,77,1,-77,37,39,18,353,182,-32,156,175
52,74,22,-63,15,48,13,292,139,-62,179,175
9,65,56,-37,-24,60,7,215,100,-75,184,172
29,59,30,-44,-1,44,1,147,62,-103,166,166
30,50,20,-40,5,35,-4,95,33,-114,159,162
32,45,13,-39,9,29,-2,50,5,-117,146,157
30,35,5,-33,12,20,0,19,-19,-120,138,153
-4,30,35,-13,-20,32,0,1,-32,-125,130,148
-30,16,46,7,-39,30,5,-8,-49,-145,119,141
-67,-25,42,46,-55,8,5,-29,-61,-147,117,134
-71,-35,35,53,-53,0,6,-42,-60,-148,120,128
-57,-24,33,40,-45,5,11,-36,-59,-155,120,118
-45,-18,27,31,-36,4,14,-34,-64,-158,120,113
-33,-8,25,20,-28,8,19,-29,-68,-151,120,105
-51,-3,49,27,-50,23,20,-26,-60,-141,120,106
-50,7,57,21,-54,32,20,-23,-52,-135,120,126
-59,16,74,21,-67,45,20,-13,-45,-127,120,132
-60,23,83,18,-72,52,20,-3,-36,-118,119,134
-30,44,74,-7,-52,58,19,7,-18,-108,121,135
-10,57,67,-23,-39,62,13,20,-2,-97,119,129
0,59,59,-30,-29,59,7,27,6,-91,122,128
11,65,54,-38,-22,59,3,24,11,-89,136,124
14,64,50,-40,-18,57,-4,26,15,-85,141,122
-35,41,76,-4,-55,59,-9,22,19,-82,139,120
-8,54,62,-23,-35,58,-1,18,22,-80,139,121
16,86,70,-52,-27,78,24,23,27,-77,142,119
-8,78,86,-35,-47,82,36,7,27,-70,135,98
5,103,98,-54,-47,100,21,18,34,-60,144,128
38,155,118,-97,-40,136,5,23,27,-43,154,159
73,159,86,-116,-7,122,-31,36,51,-10,172,167
29,129,100,-79,-36,114,-54,33,63,-9,176,181
51,123,72,-88,-10,97,-66,29,42,-30,158,154
10,56,47,-33,-19,51,-58,-15,-9,-79,122,106
-16,-8,8,12,-12,0,-41,-56,-55,-116,80,76
13,-41,-53,14,33,-47,-37,-57,-55,-127,59,41
-46,-69,-23,57,-11,-46,-19,-98,-102,-136,42,33
-23,-58,-36,41,7,-47,-26,-45,-62,-108,39,38
-59,-76,-17,68,-21,-47,4,-110,-115,-142,26,19
-29,-41,-12,35,-8,-26,-21,-38,-61,-86,50,60
-111,-3,108,57,-110,53,137,-103,-164,-130,26,32
240,409,170,-325,35,289,83,807,702,443,391,391
952,680,-272,-816,612,204,-558,1450,1810,1051,736,736
537,158,-379,-347,458,-111,-707,-385,267,168,332,329
43,-197,-241,77,142,-219,-445,-902,-715,-389,16,17
64,-201,-265,68,165,-232,-234,-257,-282,-255,-51,-50
-62,-150,-87,106,13,-118,-44,-230,-257,-242,-48,-48
-68,-100,-32,84,-18,-66,-2,-85,-100,-152,-3,-3
-94,-101,-7,98,-43,-53,31,-140,-144,-165,-20,-20
-101,-79,22,89,-61,-28,29,-96,-132,-144,-3,-3
-98,-80,18,89,-58,-31,39,-100,-125,-151,-8,-8
-124,-72,52,98,-88,-10,49,-95,-136,-148,1,1
-94,-68,26,81,-60,-21,42,-73,-112,-141,-2,-2
-99,-65,34,81,-66,-15,48,-83,-130,-150,-13,-9
-74,-59,16,66,-45,-21,43,-54,-95,-121,-17,-10
-69,-52,17,60,-42,-17,46,-50,-82,-101,-16,-16
-83,-38,45,60,-64,3,39,-18,-59,-87,-6,-7
-73,-27,45,49,-59,9,41,-4,-49,-84,-2,-1
-69,-26,44,47,-56,9,39,19,-30,-75,6,5
-50,-1,49,25,-50,24,44,82,5,-54,13,16
-47,33,80,7,-64,56,56,160,66,-16,20,28
-30,43,73,-7,-52,58,49,252,134,29,48,45
27,85,58,-56,-16,71,43,331,187,56,67,62
52,108,55,-80,-2,81,36,366,220,64,64,64
48,96,48,-72,0,72,29,386,220,67,62,61
45,92,47,-69,-1,69,24,358,205,60,55,54
46,83,38,-65,4,60,15,313,188,50,50,47
23,78,55,-51,-16,66,7,244,157,40,44,41
8,72,64,-40,-29,68,-2,152,106,29,38,34
28,62,34,-45,-3,48,-9,103,64,17,34,29
2,54,52,-29,-25,53,-13,61,40,7,26,23
-31,45,76,-7,-54,60,-19,14,9,-8,19,16
-29,36,64,-4,-47,50,-22,-41,-35,-22,12,9
-31,29,60,1,-46,44,-28,-74,-46,-37,4,2
-29,23,52,3,-41,37,-29,-66,-48,-47,-2,-3
-31,16,47,8,-39,31,-25,-80,-71,-42,-11,-10
-31,9,40,10,-36,25,-26,-97,-69,-40,-19,-20
-39,2,41,19,-40,21,-22,-93,-76,-36,-28,-31
-30,3,33,13,-31,18,-20,-90,-80,-35,-34,-38
-23,19,42,2,-33,30,-20,-87,-71,-30,-28,-33
-43,31,74,6,-58,52,-24,-85,-68,-21,-22,-27
-35,36,71,-1,-53,53,-25,-83,-60,-12,-17,-23
-30,33,64,-2,-47,48,-25,-74,-57,-4,-11,-16
-19,39,58,-11,-39,48,-25,-66,-51,5,-6,-11
-24,59,83,-17,-54,71,-25,-58,-44,15,-2,-10
-43,60,103,-9,-73,82,-25,-51,-38,19,2,-10
-32,60,91,-14,-61,75,-24,-50,-31,33,5,-10
-31,59,90,-14,-61,75,-31,-50,-25,36,9,-10
-22,63,85,-21,-54,74,-34,-51,-19,34,9,-10
-10,70,80,-30,-45,74,-26,-50,-16,50,5,-9
-20,58,78,-19,-49,68,-23,-50,-12,57,6,-4
-9,63,73,-28,-41,68,-15,-53,-11,54,2,-1
20,98,78,-59,-29,88,-13,-54,-4,55,0,2
18,90,71,-55,-27,80,3,-57,-9,61,0,7
15,98,83,-57,-34,90,22,-51,12,77,-3,10
46,165,119,-106,-36,142,-6,-60,37,95,-1,14
85,177,91,-131,-3,134,-53,-50,39,100,18,20
86,151,66,-119,10,108,-66,-64,23,89,12,26
80,142,62,-111,9,102,-64,-61,14,89,-1,28
34,72,37,-53,-2,54,-67,-69,-1,46,-16,-13
-32,4,36,14,-34,20,-62,-119,-73,6,-62,-58
-18,-29,-11,23,-3,-20,-70,-94,-80,16,-86,-82
-12,-42,-29,27,9,-35,-54,-152,-116,-8,-94,-102
11,-24,-35,7,24,-30,-63,-106,-73,16,-82,-90
-38,-61,-23,50,-7,-42,-39,-169,-127,-23,-101,-99
-24,-9,15,16,-20,3,-57,-106,-80,18,-75,-70
-89,11,101,39,-95,56,66,-163,-153,-12,-78,-92
114,316,202,-215,-44,259,133,468,383,377,172,167
910,703,-207,-806,558,248,-469,1543,1734,1118,568,571
722,268,-454,-494,588,-93,-775,4,658,484,287,282
77,-185,-263,54,170,-224,-539,-1083,-723,-259,-93,-98
50,-194,-244,72,148,-219,-333,-415,-370,-159,-155,-162
-6,-133,-127,70,61,-130,-116,-297,-267,-117,-157,-169
-67,-73,-6,70,-30,-39,-59,-160,-159,-44,-122,-137
-95,-70,25,82,-60,-22,-41,-174,-142,-31,-133,-146
-70,-52,18,61,-44,-17,-29,-160,-137,-12,-123,-136
-62,-47,15,54,-38,-16,-30,-139,-111,-4,-123,-135
-112,-41,71,77,-91,15,-15,-153,-132,-7,-121,-132
-117,-36,81,76,-99,22,-15,-121,-101,7,-116,-126
-113,-34,80,74,-96,23,9,-136,-117,3,-116,-123
-106,-26,80,66,-93,27,13,-107,-96,17,-114,-115
-105,-25,80,65,-92,27,17,-110,-96,20,-113,-112
-94,-15,80,55,-87,32,20,-87,-83,31,-109,-104
-87,-7,81,47,-84,37,22,-65,-76,36,-111,-101
-78,1,79,39,-79,40,26,-27,-52,59,-102,-94
-72,20,92,26,-83,56,22,29,-10,79,-94,-87
-35,58,94,-12,-65,76,20,108,52,116,-85,-81
12,94,82,-53,-36,88,17,191,114,148,-77,-74
20,106,86,-64,-33,96,14,264,167,169,-75,-68
70,116,46,-93,12,81,11,325,213,204,-72,-62
77,136,59,-107,9,98,9,337,222,202,-69,-60
87,148,61,-118,13,104,4,318,216,193,-66,-60
115,143,28,-129,43,85,-5,280,185,188,-65,-56
102,133,32,-118,35,82,-10,219,147,180,-70,-55
76,123,47,-100,15,84,-19,151,121,176,-69,-54
7,111,104,-59,-48,107,-26,91,86,163,-71,-71
-4,97,101,-47,-53,99,-30,33,45,147,-89,-88
-2,80,82,-40,-42,80,-46,-20,5,132,-89,-83
-5,73,78,-35,-42,76,-52,-63,-22,122,-93,-88
6,72,66,-39,-30,69,-46,-96,-36,114,-108,-107
-13,55,69,-21,-41,61,-45,-108,-52,105,-114,-112
-42,19,60,11,-51,39,-40,-109,-66,96,-121,-117
-44,17,60,13,-53,38,-40,-111,-65,95,-120,-117
-4,48,53,-23,-29,50,-40,-108,-65,95,-120,-114
2,56,54,-30,-26,55,-40,-116,-65,95,-120,-115
-19,54,73,-18,-46,63,-40,-125,-65,95,-120,-110
-12,59,71,-24,-42,65,-40,-117,-63,95,-118,-110
10,60,50,-35,-20,55,-41,-111,-53,104,-114,-109
-1,60,61,-30,-31,60,-37,-104,-47,110,-115,-105
-30,65,95,-18,-63,80,-31,-97,-37,129,-115,-103
-48,64,113,-8,-81,88,-26,-93,-32,155,-115,-100
-50,68,118,-10,-84,93,-21,-88,-18,163,-114,-97
-1,90,91,-45,-46,90,-14,-85,2,162,-110,-94
10,109,99,-60,-45,104,-11,-82,7,171,-107,-95
-5,111,116,-53,-60,113,-20,-78,12,190,-104,-95
21,109,88,-65,-34,98,-40,-73,16,190,-99,-95
22,112,90,-67,-34,101,-46,-72,21,190,-96,-95
14,106,93,-60,-39,99,-29,-67,25,191,-92,-95
15,122,106,-69,-46,114,-16,-66,25,189,-86,-94
16,114,98,-65,-41,106,-2,-63,24,191,-79,-90
38,123,85,-80,-24,104,-1,-57,26,188,-72,-90
70,198,128,-135,-29,163,-25,-63,45,211,-67,-89
74,186,112,-130,-20,149,-65,-45,61,226,-58,-82
64,143,78,-104,-8,110,-80,-76,33,209,-57,-89
69,140,71,-104,-2,105,-81,-79,28,197,-61,-79
18,77,59,-48,-21,68,-78,-119,-28,145,-106,-104
-39,13,52,12,-45,32,-81,-152,-66,116,-157,-160
-68,-28,40,48,-54,5,-81,-164,-76,97,-180,-185
-76,-32,44,54,-60,6,-73,-175,-93,98,-173,-178
-75,-46,29,60,-52,-8,-71,-142,-57,108,-172,-178
-66,-30,36,48,-51,3,-49,-201,-112,86,-173,-186
-34,6,39,14,-37,22,-54,-136,-65,121,-163,-172
-125,70,195,27,-160,133,134,-142,-117,130,-140,-136
446,527,81,-487,182,304,-57,986,953,785,266,269
1018,590,-428,-804,722,81,-681,1203,1580,1046,418,423
436,12,-424,-224,430,-206,-715,-746,-120,127,-34,-26
76,-210,-286,67,181,-247,-474,-905,-654,-146,-234,-231
65,-155,-220,45,143,-187,-251,-343,-261,-27,-246,-247
-68,-99,-31,84,-18,-65,-81,-303,-234,-1,-226,-224
-97,-68,29,82,-63,-19,-59,-160,-91,90,-200,-196
-105,-68,37,86,-71,-15,-28,-215,-135,54,-210,-208
-103,-58,45,80,-74,-6,-31,-157,-90,85,-195,-192
-120,-56,64,88,-92,4,-19,-182,-107,91,-198,-197
-88,-47,40,67,-64,-3,-14,-160,-96,96,-189,-188
-127,-44,83,85,-105,19,-9,-156,-87,97,-187,-195
-133,-33,100,83,-116,33,-1,-152,-93,98,-185,-195
-87,-20,67,53,-77,23,1,-131,-75,103,-184,-194
-86,-11,75,48,-80,32,8,-134,-81,95,-181,-195
-41,1,42,20,-42,21,9,-108,-67,95,-180,-195
-68,10,78,29,-74,43,26,-91,-53,99,-178,-194
-88,27,115,31,-102,70,32,-37,-19,124,-183,-182
-45,53,97,-4,-71,75,27,30,29,152,-162,-163
-42,70,112,-14,-77,91,26,103,84,167,-134,-138
-12,96,108,-43,-60,102,22,196,140,199,-133,-125
20,123,103,-72,-42,113,21,273,193,229,-126,-115
29,134,104,-81,-38,119,18,309,219,234,-123,-113
36,132,96,-84,-31,114,11,311,218,247,-117,-115
25,124,98,-75,-37,111,4,301,213,246,-116,-115
52,118,65,-85,-7,91,-2,257,191,235,-121,-115
57,111,53,-84,2,82,-9,178,145,219,-119,-114
25,105,80,-65,-28,92,-15,115,105,191,-123,-116
28,96,68,-62,-21,82,-20,54,73,167,-124,-122
22,83,62,-53,-20,72,-29,5,42,150,-126,-130
7,73,66,-40,-30,69,-29,-33,9,142,-126,-129
0,66,65,-34,-33,65,-31,-77,-16,136,-143,-145
-3,59,62,-29,-33,60,-29,-90,-22,128,-141,-141
-14,53,67,-20,-41,60,-31,-97,-31,121,-137,-136
-36,45,82,-4,-59,63,-48,-127,-58,113,-176,-168
-39,40,79,-1,-59,60,-27,-129,-64,110,-176,-146
-35,45,80,-5,-58,62,-18,-121,-55,107,-164,-139
-35,45,80,-5,-58,62,-37,-120,-52,105,-159,-156
-35,45,80,-5,-58,62,-33,-113,-44,102,-149,-149
-35,44,80,-4,-58,62,-31,-110,-41,99,-145,-146
-41,48,89,-4,-65,68,-28,-103,-34,104,-137,-139
-33,53,86,-10,-60,70,-25,-93,-28,106,-131,-134
-35,44,79,-5,-57,61,-24,-83,-21,116,-124,-129
-7,65,72,-29,-40,68,-20,-72,-14,130,-118,-122
11,79,68,-46,-28,73,-21,-64,-8,130,-112,-116
-50,53,103,-2,-76,78,-17,-57,2,128,-106,-109
-41,72,113,-15,-77,92,-14,-48,14,139,-101,-103
-8,99,107,-46,-58,103,-15,-40,29,145,-96,-95
-21,91,113,-35,-68,102,-10,-36,29,138,-90,-87
0,107,107,-53,-54,106,1,-34,33,137,-85,-79
-4,115,119,-56,-62,117,12,-36,33,128,-78,-71
25,139,114,-83,-45,127,26,-27,39,140,-69,-63
72,178,107,-125,-18,142,11,-33,53,164,-63,-59
81,178,98,-130,-9,138,-46,-29,56,165,-53,-53
84,171,86,-128,-1,128,-66,-38,51,160,-48,-52
49,152,103,-101,-28,127,-63,-40,44,156,-37,-43
27,89,62,-58,-17,75,-67,-43,14,115,-67,-67
-7,31,38,-12,-23,34,-57,-103,-55,59,-118,-115
-29,-4,25,17,-27,10,-65,-80,-45,43,-128,-131
-62,-43,19,52,-41,-12,-53,-129,-88,8,-147,-153
-39,-36,3,37,-21,-16,-61,-84,-51,27,-150,-142
-55,-64,-9,59,-23,-36,-46,-124,-85,-10,-172,-152
-31,-23,8,27,-19,-8,-60,-96,-72,12,-140,-132
-75,1,76,37,-76,38,35,-135,-124,2,-153,-134
32,244,212,-138,-90,228,149,353,265,302,49,68
847,663,-184,-755,515,239,-383,1490,1577,1020,479,481
777,337,-440,-557,608,-52,-756,220,787,549,263,268
98,-136,-234,19,166,-185,-548,-1057,-645,-205,-125,-123
44,-183,-227,69,136,-205,-356,-459,-387,-161,-183,-183
-43,-150,-106,97,32,-128,-117,-275,-241,-129,-202,-202
-66,-87,-22,77,-22,-54,-16,-138,-132,-54,-177,-177
-76,-77,-1,76,-37,-39,-11,-113,-99,-31,-175,-174
-99,-67,32,83,-65,-17,9,-116,-111,-33,-164,-165
-99,-60,39,79,-68,-11,3,-84,-80,-25,-159,-159
-120,-56,64,88,-92,4,15,-108,-106,-35,-157,-157
-107,-46,61,76,-84,7,14,-72,-75,-25,-149,-149
-86,-44,42,65,-64,-1,22,-91,-93,-33,-148,-148
-44,-35,9,39,-26,-13,19,-79,-73,-20,-141,-141
-77,-30,47,53,-62,8,26,-61,-73,-17,-135,-137
-94,-22,72,58,-83,25,32,-34,-64,-9,-126,-129
-81,-15,65,48,-73,25,29,-25,-53,-2,-118,-122
-70,-5,65,37,-67,29,28,5,-30,2,-111,-116
-47,12,59,17,-53,36,24,51,6,17,-98,-103
-35,20,55,7,-45,37,26,128,47,42,-81,-83
-15,43,58,-15,-37,50,22,212,105,62,-70,-69
18,84,66,-52,-24,75,17,292,161,85,-57,-57
26,85,60,-56,-17,72,15,351,199,107,-50,-50
28,84,56,-57,-14,70,10,361,202,107,-45,-49
35,86,51,-61,-8,68,7,348,194,98,-41,-45
36,83,47,-60,-6,65,3,311,178,90,-35,-42
53,97,44,-76,5,70,0,259,147,81,-33,-40
43,90,47,-66,-2,68,0,196,103,69,-25,-37
42,67,24,-55,9,46,-2,131,64,51,-32,-35
38,54,16,-46,11,34,-6,80,42,37,-55,-28
-21,40,61,-10,-41,51,-5,40,17,23,-55,-36
-9,32,41,-12,-25,36,-1,1,-10,3,-56,-60
27,28,1,-28,13,14,9,-22,-37,-25,-61,-60
-23,22,45,0,-34,33,13,-38,-51,-40,-60,-59
-54,17,71,19,-63,44,10,-50,-49,-40,-58,-60
-51,11,62,20,-57,36,10,-58,-50,-44,-54,-60
-51,7,57,22,-54,32,10,-61,-58,-46,-52,-58
-47,4,51,21,-49,27,10,-56,-61,-42,-49,-51
-44,4,47,20,-46,25,10,-54,-60,-40,-46,-47
-40,-2,38,21,-39,18,6,-51,-57,-37,-44,-41
-57,2,59,27,-58,30,5,-50,-54,-34,-39,-35
-60,16,76,22,-68,46,5,-40,-55,-31,-33,-30
-42,24,67,9,-55,45,5,-25,-48,-29,-29,-23
-24,37,62,-7,-43,49,4,-12,-37,-26,-23,-12
-17,42,58,-13,-37,50,7,4,-27,-23,-17,-3
-9,39,48,-15,-28,43,13,17,-18,-21,-13,1
-14,40,54,-13,-34,47,23,25,-14,-18,-6,5
-33,40,73,-4,-53,56,29,24,-11,-14,-2,7
-37,40,77,-2,-57,58,38,27,-6,-18,4,14
-37,40,78,-2,-57,59,51,30,-3,-22,10,14
-39,41,80,-1,-60,61,76,31,2,-17,14,16
-21,64,85,-21,-53,74,124,31,4,-16,26,24
44,97,53,-71,-4,75,138,37,14,-12,34,24
46,118,72,-82,-13,95,124,37,19,-10,52,50
32,154,122,-93,-45,138,91,40,25,-8,63,78
57,154,96,-106,-20,125,58,49,32,-1,50,69
32,127,95,-80,-31,111,63,49,6,-3,42,65
-8,66,74,-29,-41,70,57,41,15,-23,36,58
-39,-23,16,31,-28,-3,64,-37,-48,-86,12,10
-51,-69,-18,61,-16,-43,56,-20,-67,-100,-19,-27
-65,-94,-28,80,-18,-61,65,-48,-100,-121,-43,-46
-27,-70,-43,49,9,-57,63,-14,-90,-114,-25,-29
-55,-108,-53,82,0,-81,70,-33,-93,-133,-37,-38
-60,-75,-15,68,-22,-45,71,-23,-100,-116,-19,-19
-77,-57,21,67,-49,-18,113,4,-96,-118,-21,-28
-80,94,174,-8,-127,134,298,215,54,27,110,103
643,574,-69,-609,356,252,-120,1419,1395,835,571,572
865,450,-415,-658,640,18,-621,681,1184,676,520,521
156,-63,-219,-46,188,-140,-446,-909,-504,-241,102,104
-16,-240,-223,129,104,-231,-253,-487,-504,-339,-36,-43
-15,-217,-202,116,93,-209,-43,-208,-271,-281,-71,-81
-121,-149,-28,135,-46,-88,105,-105,-194,-214,-18,-24
-141,-139,1,140,-71,-69,117,-28,-112,-184,-10,-13
-148,-123,24,135,-86,-50,131,-61,-147,-195,-26,-16
-114,-115,-1,114,-56,-58,120,-8,-101,-172,-16,-6
-98,-106,-8,102,-45,-57,128,-43,-133,-185,-18,-10
-82,-98,-16,90,-33,-57,123,-3,-104,-166,-11,-2
-102,-102,0,102,-51,-51,125,-21,-114,-173,-10,-4
-123,-96,26,109,-74,-35,117,0,-109,-160,-5,5
-125,-95,30,110,-77,-32,113,1,-123,-156,-1,8
-126,-95,31,110,-78,-32,104,8,-118,-149,6,12
-118,-88,30,103,-74,-29,114,18,-100,-142,13,18
-97,-69,28,83,-62,-20,135,42,-75,-133,19,20
-96,-54,42,75,-69,-6,122,116,-27,-113,25,25
-72,-26,46,48,-59,10,115,172,7,-99,55,57
-31,6,37,12,-34,22,105,240,65,-70,66,70
-4,23,27,-10,-16,25,97,329,131,-40,70,75
16,35,19,-26,-2,26,92,390,175,-34,90,89
39,36,-3,-37,21,16,86,405,183,-36,90,93
89,44,-45,-66,67,0,81,411,193,-34,110,109
65,45,-20,-55,42,12,75,378,180,-36,126,106
40,32,-8,-36,24,12,70,307,126,-34,117,99
17,26,10,-22,3,18,65,243,85,-38,111,95
-22,15,37,3,-29,26,61,169,38,-61,104,88
8,5,-4,-6,6,1,58,102,-3,-83,97,85
20,-10,-31,-5,26,-20,54,54,-34,-101,89,77
-19,-24,-5,22,-7,-15,50,16,-43,-105,83,73
-66,-36,30,51,-48,-3,50,-8,-52,-112,75,67
-33,-36,-3,35,-14,-20,50,-23,-85,-131,67,61
7,-28,-35,11,21,-31,50,-31,-85,-130,60,56
-29,-51,-22,40,-3,-37,50,-38,-86,-128,56,51
-45,-66,-20,56,-12,-43,50,-44,-100,-126,53,50
-54,-68,-13,61,-20,-40,50,-36,-97,-122,50,50
-81,-60,21,70,-51,-19,45,-49,-103,-135,48,46
-76,-42,35,59,-55,-3,45,-61,-110,-144,44,44
-81,-35,45,58,-63,5,45,-44,-95,-132,49,50
-102,-30,71,66,-86,20,45,-33,-82,-122,65,64
-88,-17,71,53,-79,26,45,-24,-73,-113,69,70
-50,18,68,16,-59,43,45,-16,-62,-102,65,62
-39,27,66,6,-53,46,45,-9,-53,-92,80,76
-49,16,65,16,-57,40,44,0,-45,-85,85,74
-52,11,62,20,-57,36,46,4,-38,-82,76,68
-56,5,60,25,-58,32,45,5,-29,-79,75,93
-58,-4,53,31,-55,24,45,6,-22,-74,67,91
-55,2,57,26,-56,29,45,2,-16,-71,66,83
-7,34,41,-13,-25,37,45,0,-8,-66,59,81
-4,52,56,-24,-30,54,72,-7,-3,-59,69,71
-60,55,115,2,-87,85,89,-7,4,-46,92,74
-20,81,101,-31,-61,91,64,-13,12,-38,96,91
50,139,89,-95,-20,114,19,-16,15,-30,105,113
64,140,76,-102,-6,108,-9,-7,23,-29,115,123
46,115,70,-81,-12,92,-5,-15,3,-32,119,121
23,74,50,-49,-14,62,-12,-12,-9,-31,98,102
-23,-18,5,21,-14,-6,-1,-97,-79,-101,43,46
-31,-60,-29,46,0,-44,-5,-93,-99,-128,15,16
-37,-95,-58,66,11,-77,3,-115,-122,-146,-7,-8
-45,-93,-48,69,2,-70,4,-104,-116,-136,-2,-3
-59,-114,-55,87,-2,-84,2,-105,-103,-139,-19,-22
-75,-99,-24,87,-25,-61,20,-133,-141,-154,-21,-23
-65,-70,-5,67,-30,-37,33,-70,-108,-132,-27,-1
-112,48,160,32,-136,104,223,16,-72,-53,41,55
538,567,30,-553,254,298,-90,1248,1252,770,531,528
908,512,-396,-710,652,58,-668,902,1456,830,584,591
273,-70,-343,-101,308,-206,-574,-919,-370,-172,101,99
48,-247,-295,100,172,-271,-345,-678,-598,-362,-65,-60
-5,-234,-228,120,112,-231,-132,-284,-285,-276,-103,-88
-79,-159,-80,119,1,-120,23,-231,-249,-201,-96,-87
-60,-137,-77,99,8,-107,38,-127,-136,-141,-87,-79
-104,-137,-33,121,-35,-85,62,-177,-185,-178,-91,-84
-97,-120,-23,109,-37,-72,51,-116,-130,-147,-77,-76
-103,-121,-18,113,-42,-70,62,-148,-158,-162,-81,-87
-97,-108,-10,103,-43,-59,59,-112,-130,-142,-72,-83
-119,-106,13,112,-65,-47,64,-118,-133,-145,-77,-87
-111,-96,15,103,-62,-41,65,-101,-126,-137,-71,-84
-79,-91,-12,85,-33,-51,68,-91,-114,-130,-70,-86
-81,-84,-4,83,-38,-44,77,-88,-115,-126,-70,-84
-72,-78,-6,75,-33,-42,72,-77,-99,-115,-64,-75
-52,-66,-14,59,-19,-40,69,-54,-78,-113,-61,-67
-93,-51,42,72,-67,-5,76,4,-34,-88,-56,-58
-77,-34,44,55,-60,5,91,58,5,-72,-52,-48
-13,-7,6,10,-9,-1,85,141,63,-47,-44,-33
-10,9,19,0,-15,14,80,224,126,-12,-18,-20
-7,16,23,-5,-15,20,77,296,180,19,-5,-14
35,56,21,-46,6,39,71,337,201,38,-4,-16
91,80,-12,-85,51,34,68,319,193,32,1,-12
94,60,-34,-76,63,13,57,290,183,32,-3,-9
72,46,-26,-59,49,10,49,236,151,22,-9,-10
62,35,-28,-48,45,3,40,141,109,-7,-17,-13
31,26,-4,-29,17,11,31,80,65,-34,-21,-23
8,17,9,-13,-1,13,30,35,26,-45,-31,-21
26,9,-18,-17,22,-4,30,-12,-5,-52,-32,-26
12,-3,-16,-4,14,-9,30,-64,-37,-71,-40,-34
-35,-19,16,27,-25,-1,30,-99,-59,-73,-65,-42
-59,-35,24,47,-41,-6,30,-102,-77,-77,-65,-61
-58,-46,12,52,-34,-17,28,-126,-84,-93,-66,-60
-51,-44,7,48,-28,-18,24,-131,-82,-95,-71,-60
-42,-50,-8,46,-17,-29,26,-129,-90,-95,-69,-60
-46,-49,-3,47,-21,-26,21,-130,-94,-95,-68,-60
-49,-44,4,47,-26,-20,19,-132,-95,-95,-64,-58
-30,-42,-12,36,-9,-27,21,-142,-108,-94,-62,-54
-37,-37,1,37,-19,-18,13,-128,-105,-86,-59,-55
-72,-35,37,53,-54,1,26,-115,-98,-78,-56,-51
-71,-26,45,48,-58,10,36,-108,-84,-68,-54,-49
-40,-14,26,27,-32,6,28,-102,-62,-53,-50,-51
-41,0,41,20,-41,20,25,-98,-49,-40,-50,-54
-44,11,55,16,-50,33,20,-91,-35,-34,-49,-55
-34,11,45,12,-39,28,16,-87,-29,-36,-45,-55
-25,5,30,10,-28,18,13,-81,-31,-33,-45,-55
-27,5,32,11,-30,18,24,-80,-28,-30,-45,-55
-46,-1,46,23,-46,22,36,-80,-25,-31,-45,-53
-45,1,46,22,-46,23,35,-79,-25,-25,-46,-49
-24,6,30,9,-27,18,34,-81,-22,-20,-43,-47
-10,15,24,-3,-17,19,40,-77,-17,-13,-39,-43
-26,21,47,2,-37,34,46,-78,-18,-10,-37,-42
-19,26,45,-4,-32,35,34,-71,-10,-2,-29,-38
7,87,80,-47,-37,83,25,-77,-13,22,-32,-38
28,111,83,-70,-27,97,2,-66,-8,37,-28,-32
48,73,25,-60,11,49,-14,-72,-17,20,-32,-38
33,55,22,-44,5,38,-20,-83,-15,9,-28,-32
-7,3,10,2,-8,6,-27,-96,-20,-3,-39,-41
-38,-60,-22,49,-8,-41,-13,-156,-87,-41,-93,-89
-46,-97,-51,72,3,-74,-19,-139,-80,-56,-110,-108
-78,-120,-42,99,-18,-81,0,-186,-121,-77,-131,-126
-34,-103,-69,69,18,-86,-10,-140,-75,-50,-127,-119
-42,-108,-65,75,12,-86,14,-187,-116,-82,-137,-133
-30,-80,-49,55,10,-64,-1,-141,-94,-47,-107,-106
-102,-82,20,92,-61,-31,96,-197,-164,-78,-121,-120
46,222,176,-134,-66,199,200,367,301,273,105,108
856,648,-208,-752,531,220,-383,1487,1685,1046,540,540
749,245,-503,-497,626,-129,-740,71,751,484,274,280
93,-243,-336,75,215,-289,-496,-1119,-709,-305,-132,-122
53,-255,-308,101,181,-281,-284,-470,-397,-228,-186,-186
-38,-213,-175,126,69,-194,-63,-321,-274,-172,-209,-209
-92,-161,-68,127,-12,-114,14,-182,-158,-83,-181,-181
-100,-152,-52,127,-24,-102,38,-182,-129,-69,-181,-181
-112,-143,-31,128,-40,-87,57,-186,-156,-65,-169,-169
-106,-134,-28,120,-39,-81,52,-159,-125,-54,-166,-166
-105,-129,-24,117,-40,-76,57,-182,-147,-62,-165,-165
-67,-119,-52,93,-7,-85,68,-147,-114,-46,-157,-158
-75,-116,-41,96,-17,-79,89,-168,-128,-53,-157,-157
-79,-108,-30,94,-24,-69,82,-142,-104,-39,-151,-151
-103,-104,-1,104,-51,-52,89,-145,-105,-39,-149,-149
-103,-99,4,101,-53,-47,90,-127,-93,-31,-142,-142
-74,-92,-18,83,-28,-54,90,-96,-78,-19,-139,-139
-80,-88,-8,84,-35,-48,86,-57,-57,2,-133,-133
-113,-67,46,90,-79,-10,98,0,-8,42,-130,-130
-82,-25,57,53,-69,16,119,68,33,59,-123,-123
-11,-10,2,10,-6,-4,112,151,89,77,-112,-112
-3,0,3,1,-3,1,106,233,151,114,-103,-103
22,14,-8,-18,15,3,98,283,193,127,-92,-92
40,32,-7,-36,24,12,90,306,208,139,-90,-90
78,47,-31,-62,54,8,85,288,198,142,-89,-88
102,39,-63,-70,82,-12,75,238,175,130,-92,-86
38,29,-9,-33,23,10,66,185,136,123,-87,-83
55,21,-34,-38,44,-6,58,129,94,113,-93,-91
70,10,-60,-40,65,-25,48,72,59,103,-119,-115
36,-5,-42,-15,39,-23,41,7,32,86,-122,-115
29,-22,-51,-3,40,-36,40,-58,-4,70,-123,-112
-4,-45,-41,25,19,-42,40,-94,-41,63,-129,-133
-9,-47,-39,28,15,-43,40,-108,-45,57,-129,-141
-27,-58,-30,43,2,-44,40,-126,-52,53,-139,-140
-53,-79,-26,66,-13,-53,41,-138,-68,46,-143,-139
-49,-72,-24,61,-12,-48,45,-142,-78,41,-148,-149
-40,-76,-36,58,-2,-56,45,-150,-89,37,-163,-165
-12,-83,-70,48,29,-76,45,-166,-86,33,-160,-160
-20,-72,-52,46,16,-62,45,-164,-80,53,-152,-152
-28,-62,-35,45,4,-48,45,-152,-75,60,-146,-146
-12,-53,-40,33,14,-46,45,-147,-68,61,-138,-138
-28,-48,-20,39,-4,-34,45,-137,-63,65,-134,-135
-41,-45,-5,43,-17,-25,45,-118,-43,66,-130,-135
-44,-41,3,43,-23,-19,45,-101,-23,99,-130,-132
-57,-38,19,47,-38,-9,45,-99,-12,107,-130,-130
-36,-34,2,35,-18,-16,45,-97,1,104,-130,-130
-12,-31,-19,22,4,-25,45,-92,5,105,-130,-127
9,-26,-35,9,22,-30,45,-93,5,104,-126,-124
8,-24,-32,8,21,-28,45,-86,0,105,-125,-121
-4,-19,-15,11,6,-16,45,-88,-7,105,-125,-119
27,-17,-44,-5,36,-30,45,-99,-15,106,-120,-114
33,-9,-42,-12,38,-25,57,-93,-18,101,-119,-119
26,16,-9,-21,17,4,83,-90,-8,122,-121,-125
26,35,10,-31,8,22,80,-80,5,130,-119,-118
-8,63,71,-28,-40,67,52,-81,28,142,-121,-114
20,73,52,-46,-16,62,25,-68,46,160,-118,-107
47,52,5,-50,20,29,24,-81,26,135,-121,-103
17,36,19,-27,-1,27,26,-104,22,138,-119,-97
9,-27,-36,9,23,-31,25,-120,2,112,-124,-123
-32,-94,-61,63,15,-77,35,-172,-72,61,-162,-166
-25,-121,-96,73,35,-108,23,-163,-76,52,-197,-194
-33,-129,-96,81,32,-112,38,-208,-122,19,-211,-211
-9,-107,-98,58,44,-102,20,-158,-77,37,-197,-193
-37,-117,-80,77,22,-99,42,-213,-121,0,-215,-207
-13,-86,-73,50,30,-80,14,-168,-93,23,-192,-181
-90,-95,-5,92,-42,-50,113,-209,-134,8,-190,-186
30,193,162,-112,-66,177,223,363,332,361,44,47
882,575,-307,-729,594,134,-365,1455,1621,1053,423,426
768,164,-604,-466,686,-219,-718,41,686,484,152,154
94,-295,-390,101,242,-342,-493,-1143,-699,-235,-217,-214
44,-307,-351,131,198,-329,-282,-493,-388,-142,-248,-252
-61,-256,-195,159,67,-225,-51,-350,-257,-107,-262,-263
-91,-197,-106,145,8,-152,18,-226,-138,-30,-242,-240
-86,-183,-96,135,5,-139,40,-211,-118,-7,-243,-237
-87,-169,-82,128,-2,-125,64,-208,-140,7,-233,-229
-79,-167,-88,123,5,-127,72,-177,-108,22,-228,-230
-90,-161,-71,126,-9,-116,78,-194,-128,13,-226,-229
-79,-154,-75,117,-2,-114,73,-157,-94,29,-219,-223
-87,-151,-64,119,-11,-107,83,-172,-108,23,-219,-227
-80,-144,-64,112,-8,-104,78,-146,-84,34,-212,-220
-81,-141,-60,111,-10,-101,83,-147,-83,33,-211,-215
-81,-136,-56,109,-12,-96,86,-122,-66,37,-205,-207
-77,-131,-54,104,-11,-92,90,-99,-53,54,-197,-201
-75,-117,-42,96,-16,-79,95,-61,-39,65,-191,-194
-78,-103,-25,91,-26,-64,94,-15,-7,77,-183,-182
-47,-81,-34,64,-6,-57,97,46,42,110,-171,-171
-5,-50,-45,27,20,-47,100,134,100,135,-155,-158
31,-27,-58,-1,44,-42,100,210,153,158,-147,-147
34,-14,-48,-10,42,-31,98,277,207,189,-141,-134
40,-11,-51,-14,45,-30,91,297,213,193,-136,-130
70,-6,-76,-32,73,-41,87,274,203,183,-133,-130
67,0,-67,-33,67,-33,81,228,183,178,-126,-130
61,-4,-65,-29,63,-34,75,168,139,169,-127,-130
42,-15,-56,-13,49,-35,70,100,101,163,-128,-129
7,-47,-54,20,31,-50,64,40,67,154,-145,-139
-16,-64,-48,40,16,-56,61,-16,37,140,-147,-139
14,-57,-70,22,42,-63,55,-81,-15,132,-154,-154
32,-81,-113,25,73,-97,54,-119,-50,126,-189,-184
-1,-100,-99,51,49,-99,40,-146,-52,119,-190,-185
-19,-100,-81,60,31,-90,45,-156,-57,113,-189,-185
-29,-100,-71,64,21,-85,62,-164,-60,105,-191,-185
-41,-102,-61,72,10,-81,55,-173,-59,109,-189,-185
-72,-117,-45,95,-13,-81,53,-168,-64,110,-190,-184
-46,-114,-67,81,11,-90,48,-173,-71,110,-182,-178
-35,-102,-67,68,16,-84,46,-177,-65,110,-178,-174
-52,-93,-41,73,-5,-67,40,-167,-61,109,-172,-169
-48,-83,-35,66,-7,-59,46,-154,-56,110,-166,-165
-59,-79,-20,69,-19,-49,61,-141,-52,99,-161,-160
-34,-74,-39,54,3,-56,52,-126,-44,116,-156,-157
-39,-68,-29,53,-4,-48,46,-116,-18,137,-154,-154
-34,-62,-28,48,-3,-45,40,-110,-4,139,-151,-151
-14,-58,-44,36,15,-51,30,-105,-1,149,-148,-148
-13,-50,-37,32,12,-43,37,-99,5,150,-145,-145
-16,-45,-29,30,7,-37,40,-94,8,149,-144,-144
-23,-37,-14,30,-4,-25,41,-89,14,151,-139,-138
2,-32,-34,15,18,-32,39,-84,15,148,-133,-132
-4,-20,-16,12,6,-18,47,-86,15,152,-130,-128
-22,-9,13,15,-17,2,83,-82,23,163,-124,-120
4,8,5,-6,-1,6,77,-80,26,166,-121,-118
18,56,38,-37,-10,46,38,-80,44,186,-113,-106
33,63,31,-48,1,47,2,-83,49,194,-103,-95
75,54,-21,-64,47,17,-12,-87,36,179,-88,-78
57,31,-26,-44,41,2,-11,-80,37,177,-86,-77
-6,-42,-36,24,15,-39,-16,-106,1,147,-128,-124
-46,-112,-66,79,10,-89,-11,-144,-55,99,-178,-173
-55,-153,-98,104,22,-125,-7,-172,-85,76,-200,-195
-35,-147,-112,91,39,-129,-1,-164,-82,79,-199,-195
-32,-160,-128,96,48,-143,1,-180,-89,62,-209,-206
-2,-151,-150,77,74,-150,9,-166,-78,64,-218,-211
-27,-143,-116,85,44,-129,8,-191,-104,46,-213,-203
-113,-114,-1,114,-56,-57,88,-151,-121,68,-187,-195
