I,II,III,aVR,aVL,aVF,V1,V2,V3,V4,V5,V6
-40,-5,35,22,-37,15,35,51,10,-20,-40,0
-33,2,35,15,-34,18,35,67,25,-8,-34,3
-24,11,35,6,-30,23,35,92,65,23,-8,29
-17,18,35,-1,-26,26,35,129,115,53,28,66
5,39,35,-23,-15,37,35,176,179,96,75,105
26,62,36,-44,-5,49,34,219,236,135,116,155
42,81,39,-61,1,60,31,252,275,163,148,203
56,97,42,-77,6,69,26,257,286,179,155,242
48,93,45,-71,1,69,23,249,269,173,144,260
43,90,47,-67,-2,69,20,236,257,165,137,250
37,88,51,-62,-7,69,14,226,239,154,129,237
31,85,54,-58,-12,69,22,201,211,132,121,224
25,82,57,-54,-17,70,32,150,176,109,104,198
8,69,61,-38,-27,64,30,122,130,84,70,162
-6,58,64,-27,-36,61,29,99,86,51,37,130
-29,37,65,-5,-47,51,25,67,44,27,24,109
-52,13,65,19,-58,38,24,50,21,12,13,100
-56,9,65,23,-61,37,31,36,19,-3,-1,95
-60,5,65,27,-63,35,36,26,16,-11,-16,86
-66,2,68,32,-67,35,35,25,13,-17,-22,82
-73,-3,70,38,-71,33,34,23,11,-24,-13,83
-76,-5,71,40,-73,33,36,19,10,-16,-4,87
-64,11,75,26,-70,43,33,21,19,1,4,83
-39,37,76,1,-58,56,44,43,37,23,22,92
-3,76,79,-37,-41,77,57,90,76,57,45,140
15,108,93,-62,-39,100,48,136,116,84,66,175
36,128,93,-82,-28,110,44,133,112,102,84,190
52,138,87,-95,-18,112,17,88,95,107,89,191
58,136,78,-97,-10,106,4,53,81,100,83,173
42,114,72,-78,-15,93,21,29,53,78,66,148
-6,58,64,-26,-35,60,27,18,31,46,41,114
-52,4,57,24,-55,30,39,-2,-5,7,3,73
-67,-13,54,40,-60,20,31,-18,-25,-5,-3,71
-74,-34,41,54,-57,4,39,-18,-42,-25,-28,58
-62,-14,48,38,-55,17,31,-40,-43,-26,-20,72
-46,-25,21,35,-33,-3,35,-17,-29,-39,-44,60
-111,-10,101,60,-106,46,70,-6,-37,-19,-40,67
-129,-28,101,79,-114,36,144,151,82,42,8,70
152,-64,-216,-44,184,-140,40,243,262,106,98,157
683,238,-445,-460,564,-103,-440,-164,363,343,492,620
552,133,-419,-342,485,-143,-576,-786,-214,-19,157,406
-19,-345,-326,182,154,-335,-381,-1195,-1086,-717,-583,-251
-121,-337,-216,230,48,-276,-246,-902,-925,-645,-508,-235
-108,-144,-36,126,-36,-90,-78,-355,-373,-282,-221,-66
-117,-71,46,94,-81,-12,-10,-163,-177,-119,-96,6
-120,-75,45,98,-82,-15,25,-91,-117,-93,-85,30
-121,-66,55,93,-88,-5,33,-63,-110,-80,-81,49
-103,-58,46,81,-74,-6,32,-50,-96,-71,-68,68
-103,-55,48,78,-75,-3,41,-42,-89,-72,-72,62
-88,-45,42,66,-65,-1,40,-41,-77,-60,-57,74
-93,-43,50,67,-71,3,47,-29,-64,-60,-60,78
-93,-33,60,63,-76,14,43,-21,-54,-50,-47,95
-89,-29,60,59,-74,15,46,-2,-37,-39,-38,94
-80,-20,60,50,-70,20,45,19,-19,-23,-24,96
-76,-16,60,46,-67,21,45,43,3,-3,-9,99
-65,-5,61,35,-63,27,50,85,39,17,9,103
-50,8,57,21,-54,32,53,126,80,44,27,112
-32,22,55,4,-44,38,59,167,133,76,50,122
-5,47,52,-21,-29,49,61,214,200,117,95,150
15,63,49,-39,-17,56,56,267,257,156,131,192
40,87,47,-64,-3,67,54,305,302,184,162,236
66,108,42,-87,11,75,50,321,313,191,186,273
65,117,52,-91,6,84,45,328,302,182,180,297
50,112,62,-81,-6,86,45,315,293,176,170,297
41,101,59,-71,-9,80,45,297,283,170,161,290
34,94,60,-64,-13,77,45,262,250,158,148,267
22,82,60,-52,-20,71,45,211,196,126,129,228
4,63,60,-34,-28,61,45,171,149,97,100,208
-15,42,57,-14,-36,49,45,130,94,76,63,177
-28,25,54,1,-41,39,40,86,48,44,47,148
-36,16,51,10,-44,33,40,63,30,30,37,141
-38,10,48,14,-44,29,40,48,14,27,24,136
-43,2,45,20,-44,23,40,36,5,23,24,130
-51,-5,46,28,-49,21,40,33,5,19,25,125
-64,-14,50,39,-57,18,40,31,5,15,26,129
-64,-10,54,36,-58,21,41,25,5,17,29,132
-59,-2,56,30,-57,27,38,31,5,32,32,137
-54,7,61,23,-58,33,44,53,10,41,27,138
-20,39,59,-9,-40,49,61,72,38,58,44,147
5,67,62,-36,-29,64,75,123,91,94,82,185
29,104,75,-66,-23,89,65,169,133,126,110,217
60,128,68,-94,-4,98,47,145,137,140,120,216
74,133,59,-104,7,96,36,98,121,136,110,204
78,129,50,-104,14,89,34,92,104,131,101,194
36,77,40,-57,-2,58,36,68,63,99,87,174
-21,14,35,3,-28,24,33,36,30,58,66,137
-61,-34,28,47,-44,-3,38,21,1,28,28,103
-66,-40,26,53,-45,-7,32,1,-7,24,14,98
-75,-60,15,68,-45,-23,47,1,-13,7,-9,70
-71,-55,16,62,-43,-19,45,-28,-25,12,1,74
-79,-70,9,74,-43,-30,57,-5,-20,-6,-15,53
-132,-56,76,94,-104,10,97,16,-39,2,-14,49
-124,-57,67,91,-95,5,167,156,67,50,12,50
160,-79,-239,-40,200,-159,55,241,244,121,109,132
735,216,-519,-475,627,-151,-440,-159,375,368,487,565
621,72,-548,-346,584,-238,-606,-797,-179,-9,153,356
29,-440,-469,206,249,-454,-415,-1233,-1086,-717,-568,-284
-103,-405,-301,254,99,-353,-253,-920,-929,-627,-491,-261
-103,-182,-79,143,-12,-130,-76,-341,-354,-237,-190,-87
-115,-105,10,110,-62,-48,-3,-137,-156,-78,-76,-27
-123,-105,18,114,-70,-43,40,-74,-107,-50,-55,-6
-125,-97,28,111,-76,-35,49,-46,-107,-35,-42,0
-101,-84,18,92,-59,-33,49,-11,-87,-28,-31,15
-98,-87,10,92,-54,-38,58,-10,-87,-28,-28,20
-112,-82,30,97,-71,-26,57,-13,-78,-19,-15,47
-110,-56,54,83,-82,-1,62,-5,-64,-18,-12,67
-88,-40,48,64,-68,4,60,-8,-44,-10,0,79
-90,-40,50,65,-70,5,66,7,-22,7,5,81
-81,-31,50,56,-65,9,64,37,-4,25,14,84
-76,-27,50,52,-63,11,65,73,17,38,21,87
-68,-21,47,45,-57,12,65,105,37,53,28,89
-59,-15,44,36,-51,15,76,144,86,79,50,92
-50,-5,45,27,-48,20,88,187,146,112,77,94
-9,31,40,-11,-25,35,86,241,212,148,115,104
18,59,41,-38,-11,50,83,295,276,193,155,143
29,68,39,-49,-5,53,81,332,311,218,186,188
56,90,34,-73,11,62,77,350,329,239,204,219
61,89,29,-75,16,59,75,346,328,249,202,232
70,95,25,-83,23,59,73,336,317,240,199,229
75,95,20,-85,28,57,68,316,303,234,197,224
55,71,16,-64,20,43,65,274,264,217,192,209
38,55,17,-47,10,36,62,236,213,188,166,184
15,39,24,-27,-5,31,57,184,161,150,130,159
-13,18,31,-2,-22,24,55,129,109,118,99,132
-32,-1,30,16,-31,14,55,91,68,97,78,113
-35,-6,30,20,-32,11,55,68,43,79,63,98
-39,-8,30,23,-34,11,55,53,33,63,51,87
-40,-11,29,26,-35,9,55,40,29,51,48,79
-46,-15,31,30,-38,8,55,40,25,50,44,70
-50,-14,36,32,-42,10,57,40,19,50,41,64
-45,-10,34,27,-39,12,61,41,16,49,35,65
-38,-2,36,20,-37,17,60,40,14,51,37,66
-33,0,33,16,-33,16,60,44,19,51,43,64
-28,16,44,6,-36,29,71,67,40,78,61,89
-10,61,72,-26,-41,66,79,101,81,120,92,132
13,96,83,-55,-35,89,88,158,135,153,118,157
48,132,84,-90,-18,108,86,179,160,186,150,171
53,131,77,-92,-12,104,60,143,149,184,151,161
49,121,71,-85,-11,96,29,103,135,179,148,158
44,107,63,-76,-10,85,26,74,110,165,141,146
4,63,59,-34,-27,61,24,50,64,130,103,109
-34,20,55,7,-45,37,25,39,24,84,66,71
-61,3,64,29,-62,33,26,19,0,53,50,58
-61,-4,57,33,-58,26,22,11,-3,47,41,48
-82,-16,66,49,-74,25,34,-7,-16,37,34,29
-70,-5,65,37,-67,30,27,-11,-9,47,50,35
-99,-36,63,67,-81,13,58,4,-27,20,32,0
-145,10,155,67,-150,82,82,55,12,78,61,40
-43,-45,-2,44,-20,-23,120,247,168,118,56,31
442,62,-380,-251,411,-159,-182,113,339,254,287,278
823,278,-545,-551,684,-133,-621,-480,184,271,417,511
331,-144,-475,-93,403,-310,-548,-1090,-712,-380,-242,-49
-95,-437,-342,266,123,-389,-355,-1189,-1172,-732,-600,-390
-100,-231,-130,166,15,-180,-179,-636,-638,-400,-317,-209
-115,-68,47,92,-81,-11,-42,-210,-221,-102,-95,-85
-94,-34,60,64,-77,13,-5,-106,-118,-21,-29,-38
-113,-40,73,76,-93,16,30,-59,-83,-9,-28,-47
-102,-25,77,63,-89,26,33,-47,-73,4,-15,-25
-99,-26,73,62,-85,23,44,-34,-64,-3,-19,-6
-94,-16,77,55,-85,30,38,-26,-61,5,-12,13
-86,-13,73,49,-79,30,41,-17,-51,5,-10,31
-84,-8,76,45,-80,34,40,-9,-45,4,-9,37
-75,-1,75,37,-75,37,39,-2,-31,16,0,41
-85,3,89,41,-87,45,41,8,-20,25,7,39
-84,11,95,36,-90,53,39,26,-4,43,18,41
-81,13,94,34,-88,54,40,57,29,60,24,39
-57,39,96,9,-77,67,40,96,69,75,42,41
-36,59,94,-12,-65,76,41,133,104,104,63,39
-26,69,95,-22,-61,82,40,178,161,133,93,42
4,99,95,-52,-45,97,40,227,227,167,128,74
31,122,92,-77,-31,107,40,271,272,197,156,104
54,140,86,-98,-17,113,40,306,307,222,191,148
65,146,81,-106,-8,113,39,310,319,236,202,181
72,151,78,-112,-3,114,36,298,310,227,194,182
82,153,71,-118,5,112,33,292,306,219,186,195
69,142,73,-105,-3,107,30,275,282,211,177,181
48,133,84,-91,-18,108,27,235,237,198,168,157
26,113,87,-70,-30,100,25,188,192,174,143,145
3,92,89,-47,-44,90,23,137,138,142,112,110
-13,80,93,-34,-53,86,18,88,84,110,84,82
-27,69,95,-22,-61,82,15,56,49,79,62,63
-36,57,93,-11,-65,75,12,40,27,63,51,49
-38,50,88,-6,-63,68,7,34,15,58,46,43
-35,51,86,-8,-60,68,5,32,15,50,41,32
-33,48,81,-8,-57,64,10,29,15,45,38,34
-32,45,78,-7,-56,61,16,26,15,36,32,35
-31,44,75,-7,-53,59,19,25,15,39,31,37
-20,49,69,-14,-45,58,24,18,19,54,37,41
-20,52,72,-17,-46,62,29,26,32,61,44,41
-17,66,83,-25,-50,74,33,55,46,80,59,69
4,101,96,-53,-46,98,53,100,87,112,86,106
32,129,97,-81,-33,113,55,138,134,149,124,125
63,148,85,-106,-11,116,39,138,137,154,137,115
84,167,83,-126,0,125,31,99,117,145,135,102
84,155,72,-120,6,113,23,59,93,133,123,95
33,95,61,-64,-14,78,19,31,53,95,83,63
-6,35,41,-15,-24,38,6,6,20,65,50,35
-35,-4,31,19,-32,13,6,-10,-15,28,14,12
-38,-6,31,22,-34,12,-2,-32,-34,20,20,9
-51,-25,26,38,-38,0,11,-34,-44,-6,5,-14
-57,-20,37,39,-47,8,4,-39,-52,-1,15,-12
-58,-41,17,49,-37,-11,17,-24,-46,-8,2,-32
-120,-13,107,67,-113,47,71,-11,-44,3,5,-41
-113,-12,100,63,-107,44,130,142,78,82,55,-22
150,-82,-231,-34,191,-156,36,255,265,134,122,50
760,208,-552,-484,656,-172,-459,-143,361,306,433,427
693,116,-577,-404,635,-230,-656,-816,-221,-43,132,251
31,-387,-418,178,224,-402,-457,-1259,-1106,-679,-536,-353
-119,-374,-255,247,68,-314,-289,-973,-973,-621,-488,-345
-103,-165,-62,134,-20,-113,-93,-386,-395,-259,-203,-156
-106,-82,24,94,-64,-29,-24,-164,-179,-81,-75,-108
-113,-67,45,90,-79,-11,1,-102,-127,-70,-59,-101
-121,-59,62,90,-91,1,21,-73,-113,-59,-48,-90
-101,-52,50,76,-75,-1,29,-54,-98,-47,-40,-73
-106,-47,59,76,-82,5,34,-40,-91,-45,-40,-65
-90,-38,53,64,-71,7,27,-39,-80,-34,-28,-48
-91,-35,56,63,-73,11,32,-31,-67,-31,-29,-49
-85,-25,60,55,-72,17,28,-26,-57,-22,-19,-51
-83,-19,64,50,-73,23,31,-22,-41,-17,-15,-55
-79,-9,69,44,-74,30,33,-8,-29,-4,-7,-59
-70,-3,67,37,-69,32,35,11,-12,7,-1,-59
-59,6,65,26,-62,35,37,46,24,28,7,-53
-47,14,61,17,-55,37,41,90,63,54,29,-47
-32,27,59,2,-46,43,38,125,109,79,58,-43
-2,53,55,-26,-29,54,35,173,171,108,85,-25
22,77,55,-50,-17,66,33,220,230,142,116,14
36,96,60,-66,-12,78,30,271,278,176,151,57
49,109,60,-79,-6,84,27,299,302,194,172,91
55,116,61,-86,-3,88,25,292,300,197,175,117
61,126,66,-94,-3,96,22,277,291,188,166,107
70,134,64,-103,3,99,20,258,267,177,154,84
55,122,68,-89,-7,95,20,231,228,168,144,75
33,103,70,-68,-19,86,15,190,197,147,128,44
13,83,70,-48,-29,76,15,145,151,119,105,17
-11,62,73,-26,-43,68,14,91,97,91,70,-2
-28,48,76,-11,-52,62,10,51,55,59,34,-37
-38,36,74,0,-57,55,10,35,21,34,23,-59
-36,35,71,1,-54,52,10,28,6,27,18,-61
-34,35,70,-1,-52,52,10,24,5,23,10,-74
-36,35,70,0,-53,52,10,19,5,18,3,-93
-35,35,70,0,-53,52,13,15,5,14,-4,-106
-35,34,70,1,-53,52,18,10,5,9,2,-118
-33,39,72,-3,-53,55,20,14,6,16,10,-113
-31,46,77,-8,-55,62,25,16,10,17,18,-105
-30,52,82,-11,-56,67,28,18,21,27,26,-94
-1,84,85,-42,-43,84,32,55,47,54,33,-68
28,124,96,-76,-35,109,37,94,88,89,58,-59
29,144,115,-87,-43,129,28,105,126,120,88,-60
48,170,122,-109,-38,146,6,85,108,120,92,-61
67,178,110,-123,-22,144,-34,45,79,105,87,-62
49,140,91,-95,-21,115,-40,20,55,77,70,-85
8,90,83,-49,-37,86,-41,-13,12,45,49,-109
-37,35,72,1,-55,53,-40,-33,-26,10,3,-148
-51,23,74,14,-62,48,-39,-60,-54,-9,-34,-169
-40,21,60,9,-50,40,-44,-78,-51,-14,-49,-174
-52,10,62,21,-57,35,-28,-84,-70,-33,-59,-194
-34,19,53,7,-44,36,-32,-84,-54,-30,-47,-189
-76,-9,67,43,-72,29,11,-64,-59,-39,-80,-236
-114,34,147,40,-131,90,37,23,4,37,-9,-219
10,-24,-34,7,22,-29,63,221,191,74,24,-214
507,101,-406,-303,456,-153,-253,79,359,222,283,88
837,309,-527,-573,682,-109,-666,-472,201,250,440,351
285,-67,-352,-108,319,-209,-544,-1058,-687,-359,-229,-218
-124,-352,-227,238,52,-289,-371,-1177,-1152,-726,-607,-583
-111,-224,-113,168,1,-168,-214,-677,-662,-473,-376,-438
-135,-97,37,116,-86,-30,-81,-280,-271,-191,-181,-350
-106,-53,53,79,-79,-1,-52,-167,-159,-120,-116,-315
-107,-41,66,74,-86,12,-17,-129,-129,-121,-114,-313
-92,-25,67,58,-79,20,-25,-108,-119,-98,-99,-283
-86,-26,60,56,-73,17,-13,-82,-113,-99,-104,-263
-81,-18,62,50,-71,22,-12,-82,-111,-90,-97,-259
-73,-16,58,45,-65,21,-7,-74,-105,-86,-96,-260
-69,-10,58,39,-63,24,-1,-69,-95,-80,-94,-260
-60,-6,53,32,-56,23,-1,-64,-67,-75,-82,-259
-59,-3,56,30,-57,27,5,-57,-51,-69,-71,-257
-53,1,54,26,-54,27,5,-39,-43,-54,-58,-253
-51,4,56,23,-54,30,10,-11,-16,-29,-47,-252
-45,9,54,18,-50,31,10,17,24,-7,-33,-247
-37,12,49,13,-43,30,4,52,61,12,-14,-238
-11,35,46,-13,-29,40,-1,90,116,49,15,-211
13,55,43,-34,-15,49,-6,135,178,79,54,-165
35,74,39,-54,-2,56,-12,178,228,112,88,-129
66,100,35,-83,15,67,-18,202,256,138,113,-97
65,104,39,-84,13,71,-18,217,258,140,125,-71
57,97,40,-77,8,68,-14,209,248,136,126,-70
53,93,40,-73,6,66,-15,195,238,131,121,-76
41,86,45,-64,-2,65,-11,185,224,127,107,-78
37,82,45,-60,-4,63,-10,154,203,121,93,-88
29,73,44,-51,-8,58,-10,122,164,104,73,-118
19,58,39,-39,-10,48,-5,93,114,70,44,-141
11,45,33,-28,-11,39,-5,55,75,33,11,-164
-12,17,30,-3,-21,23,-4,27,41,15,-9,-181
-30,-5,25,17,-27,10,0,10,29,-2,-16,-179
-25,-4,20,14,-22,8,0,-2,30,-10,-31,-181
-25,-6,20,16,-22,6,2,0,30,-11,-36,-179
-30,-9,20,20,-25,5,8,0,30,-15,-34,-186
-30,-10,20,20,-25,5,13,2,29,-17,-36,-190
-30,-10,20,20,-25,5,17,7,31,-21,-35,-176
-19,1,20,9,-19,10,21,4,28,-16,-35,-169
-17,4,21,6,-19,12,26,14,42,-8,-30,-153
1,27,26,-15,-12,26,29,42,60,15,-6,-121
27,57,30,-43,-1,43,45,81,84,47,17,-96
32,79,48,-56,-8,63,47,112,128,76,48,-87
49,100,51,-75,-2,76,34,97,145,99,72,-91
69,110,42,-90,13,76,27,57,128,99,75,-90
75,109,33,-92,21,71,20,39,109,98,76,-92
37,56,19,-47,9,37,19,24,77,72,44,-98
9,6,-4,-7,7,1,9,1,43,24,9,-90
-7,-38,-31,23,12,-34,11,-27,9,-25,-30,-111
-23,-65,-41,44,9,-53,1,-50,-11,-40,-41,-115
-46,-87,-41,66,-2,-64,17,-43,-17,-50,-60,-128
-43,-80,-37,62,-3,-58,15,-55,-25,-45,-55,-125
-46,-89,-43,68,-1,-65,21,-38,-19,-51,-56,-137
-115,-84,31,99,-72,-26,73,4,-7,-24,-48,-143
-104,-83,21,94,-62,-30,134,141,99,26,-13,-118
168,-113,-281,-27,225,-197,53,243,264,78,73,-35
724,168,-556,-446,640,-194,-431,-134,355,308,433,391
631,113,-517,-372,574,-202,-602,-767,-163,-1,165,251
31,-343,-374,157,203,-358,-395,-1181,-1014,-653,-528,-376
-108,-376,-269,242,81,-323,-276,-950,-934,-641,-513,-395
-98,-210,-112,154,7,-161,-100,-400,-378,-297,-252,-231
-93,-129,-36,111,-28,-82,-32,-172,-152,-111,-120,-163
-91,-117,-26,104,-32,-71,3,-103,-81,-86,-86,-128
-91,-107,-16,99,-37,-62,19,-60,-74,-70,-72,-102
-75,-98,-23,86,-26,-60,15,-30,-68,-60,-57,-77
-79,-93,-13,87,-33,-53,29,-16,-57,-59,-54,-72
-66,-82,-16,75,-25,-49,21,-18,-48,-46,-41,-52
-66,-81,-14,74,-26,-47,28,-11,-35,-45,-40,-47
-60,-75,-15,68,-22,-45,23,-9,-22,-35,-29,-34
-59,-73,-15,66,-22,-44,26,-6,-3,-19,-25,-26
-48,-68,-19,58,-14,-43,26,9,10,-5,-18,-13
-40,-66,-26,53,-6,-46,40,39,39,11,-4,8
-30,-54,-24,43,-3,-39,52,69,67,32,18,23
-6,-32,-26,20,10,-28,49,101,100,55,37,35
10,-14,-25,3,18,-19,51,144,160,88,61,50
23,-3,-25,-10,24,-14,52,189,218,123,101,78
45,17,-28,-31,36,-5,50,236,276,162,139,114
74,42,-32,-58,53,5,46,277,314,192,176,153
90,54,-36,-71,63,8,43,304,338,214,194,189
102,60,-42,-81,72,8,38,319,350,226,187,208
107,57,-49,-82,78,3,35,311,339,218,183,204
96,50,-46,-73,71,2,39,297,329,213,178,194
90,45,-45,-67,67,0,51,267,303,208,171,187
84,40,-45,-62,64,-2,61,230,266,198,168,173
64,23,-41,-43,52,-8,60,194,222,178,153,154
33,-6,-39,-14,36,-23,60,156,176,147,122,132
15,-27,-41,6,28,-34,60,122,139,117,96,118
6,-48,-55,21,31,-51,60,94,114,101,82,113
-5,-65,-61,35,28,-63,62,89,108,89,77,105
-5,-65,-60,35,28,-62,65,87,105,88,74,100
-5,-65,-60,35,28,-62,68,83,101,91,71,92
-5,-65,-60,35,28,-62,71,81,97,89,66,92
-6,-66,-60,36,28,-62,69,79,95,91,65,97
-7,-63,-56,36,25,-59,73,92,100,89,76,100
-9,-58,-49,34,20,-54,81,107,108,94,79,108
1,-41,-42,20,22,-41,88,119,120,115,91,127
38,1,-36,-19,37,-17,109,163,163,154,125,176
59,31,-28,-45,43,1,112,206,205,199,155,205
88,61,-27,-74,57,17,98,210,206,210,175,195
104,75,-29,-89,66,23,92,185,193,198,175,185
108,71,-38,-89,73,16,83,141,188,199,166,179
93,47,-46,-70,69,1,82,107,164,168,151,165
41,-5,-46,-18,44,-26,72,87,122,137,128,163
13,-51,-64,20,39,-57,70,80,85,109,86,148
3,-69,-72,33,38,-70,64,60,63,101,79,144
-2,-88,-86,46,42,-87,72,54,60,99,70,133
-19,-95,-76,57,28,-85,75,35,48,91,56,120
-7,-91,-84,49,38,-87,76,44,57,101,59,117
-54,-90,-36,72,-9,-63,113,54,33,73,29,85
-98,-55,43,76,-70,-5,166,142,97,125,73,102
67,-131,-197,32,132,-164,185,333,265,149,102,107
613,68,-546,-340,580,-239,-235,79,462,365,424,461
824,179,-645,-501,735,-233,-608,-548,175,281,426,572
263,-319,-581,28,422,-450,-476,-1093,-792,-470,-328,-67
-46,-492,-446,269,200,-469,-300,-1036,-1012,-653,-522,-269
-43,-275,-232,159,95,-253,-105,-445,-433,-276,-213,-65
-64,-158,-94,111,15,-126,18,-115,-118,-31,-47,11
-57,-134,-77,96,10,-105,54,-33,-33,26,6,41
-70,-132,-62,101,-3,-97,71,1,-16,29,11,43
-58,-121,-64,90,3,-92,71,28,2,54,27,56
-63,-123,-60,93,-2,-91,84,49,13,50,26,69
-58,-114,-56,86,-1,-85,79,41,20,57,38,92
-50,-106,-55,78,3,-80,87,52,29,56,42,111
-44,-95,-51,70,4,-73,88,47,31,59,48,136
-37,-87,-50,62,6,-68,90,56,57,68,58,149
-36,-82,-45,60,5,-63,93,84,81,83,64,150
-31,-75,-44,53,7,-59,96,112,94,100,69,150
-26,-65,-39,45,7,-52,103,138,111,112,72,150
-7,-48,-41,28,18,-44,109,179,148,134,84,150
22,-23,-45,1,34,-34,110,226,199,157,103,151
42,-3,-45,-19,44,-24,110,269,258,189,131,154
63,18,-45,-40,54,-13,110,325,321,222,162,171
83,38,-45,-60,64,-3,110,368,365,249,188,204
97,53,-44,-74,70,4,111,397,396,278,215,246
115,65,-50,-89,82,7,109,408,405,282,223,276
117,59,-58,-88,87,1,105,401,396,270,213,275
107,52,-55,-79,80,-1,103,383,384,263,205,265
99,49,-50,-74,74,0,100,345,351,253,198,254
88,40,-48,-64,68,-4,97,298,308,238,183,224
73,30,-43,-51,58,-6,94,247,260,207,152,197
41,1,-40,-21,40,-19,92,201,210,170,119,177
20,-23,-43,2,32,-33,89,161,164,142,92,140
17,-29,-45,6,32,-37,86,132,128,126,78,114
4,-40,-45,19,25,-42,83,115,102,110,65,108
3,-42,-45,20,24,-43,80,99,92,100,56,101
6,-39,-45,17,25,-42,81,99,88,95,49,93
4,-40,-44,19,24,-42,86,100,82,86,42,85
2,-35,-37,17,20,-36,85,101,77,80,34,81
-4,-35,-30,20,14,-32,87,106,70,71,27,79
-10,-34,-24,22,7,-29,91,105,82,77,34,82
-1,-18,-17,10,8,-17,88,110,93,91,44,77
21,10,-11,-15,16,-1,102,141,122,113,66,103
53,47,-6,-50,29,20,112,195,176,154,103,146
86,82,-4,-83,45,39,98,219,205,188,125,146
92,92,-1,-92,46,45,91,196,193,192,121,134
102,101,0,-101,51,50,83,148,172,184,115,129
91,78,-13,-84,52,32,82,114,154,167,108,117
54,32,-22,-43,38,5,77,98,111,137,93,102
9,-27,-36,9,23,-31,73,89,78,97,64,68
-21,-67,-46,44,12,-56,72,70,55,67,28,35
-10,-67,-57,39,24,-62,69,60,51,59,16,17
-33,-82,-50,58,9,-66,83,46,36,41,-4,-5
-23,-69,-45,46,11,-56,64,51,39,50,9,1
-47,-93,-46,70,0,-69,94,63,23,17,-24,-35
-106,-57,48,81,-77,-4,130,90,50,69,3,-1
-21,-98,-77,59,28,-87,172,304,207,109,29,-3
432,-24,-456,-204,445,-240,-81,218,398,237,232,190
852,208,-645,-530,748,-219,-554,-364,314,322,432,465
429,-165,-594,-132,511,-379,-552,-1000,-554,-311,-189,-23
-39,-510,-471,274,216,-490,-345,-1175,-1124,-743,-628,-425
-63,-322,-259,193,99,-290,-161,-647,-641,-438,-370,-253
-85,-154,-69,120,-8,-111,-10,-187,-199,-137,-147,-128
-69,-107,-37,88,-16,-72,37,-73,-90,-45,-63,-91
-72,-98,-26,86,-23,-62,60,-19,-50,-26,-67,-100
-69,-87,-18,78,-25,-52,55,12,-39,-10,-56,-91
-63,-80,-17,72,-22,-49,80,28,-29,-14,-54,-78
-63,-73,-9,68,-27,-41,80,24,-26,-8,-50,-76
-57,-65,-8,62,-24,-36,79,25,-17,-5,-43,-52
-59,-61,-1,60,-29,-31,81,27,-9,-6,-42,-23
-54,-55,-1,54,-26,-27,78,46,13,3,-33,-18
-53,-50,4,51,-28,-23,82,64,30,11,-34,-22
-49,-43,6,46,-27,-19,83,80,43,31,-25,-23
-47,-38,10,43,-29,-14,91,111,68,54,-15,-27
-27,-18,10,23,-18,-4,86,142,98,67,3,-23
-5,1,6,1,-5,3,92,180,142,94,22,-27
6,9,3,-8,1,6,107,232,203,127,52,-22
31,46,15,-39,8,30,103,279,267,163,95,-11
47,74,27,-61,10,51,100,327,321,196,122,22
62,86,24,-75,18,55,98,359,354,218,152,74
86,112,25,-100,30,68,95,358,355,227,158,93
84,109,25,-97,29,67,93,349,340,215,144,104
75,100,25,-88,25,62,89,342,332,204,139,97
69,94,25,-82,22,59,87,325,310,192,128,58
60,85,25,-73,17,55,84,286,271,181,117,24
55,79,24,-68,15,52,81,234,229,164,99,2
39,64,26,-52,6,45,79,185,179,136,65,-16
23,47,24,-35,-1,35,75,146,132,100,37,-44
11,36,26,-24,-8,31,67,110,89,67,17,-59
-18,32,49,-8,-34,40,60,88,66,47,-8,-72
-25,30,55,-3,-40,42,55,72,61,34,-21,-88
-21,25,46,-2,-34,35,45,59,56,32,-19,-91
-23,22,45,0,-35,33,56,60,53,28,-21,-93
-18,19,38,-1,-28,28,72,60,47,24,-19,-98
-16,20,36,-2,-26,27,73,61,46,22,-20,-98
-19,31,50,-6,-35,41,77,59,43,18,-19,-87
-13,46,59,-16,-37,52,80,79,58,48,-4,-73
20,93,73,-57,-26,83,85,127,100,82,17,-30
47,133,86,-90,-20,109,87,161,138,114,48,9
69,147,77,-108,-4,112,82,175,159,135,63,22
85,159,74,-123,5,117,59,142,142,121,55,32
84,151,68,-118,8,109,40,96,119,113,55,6
59,121,62,-90,-2,91,48,78,90,90,45,-30
19,78,59,-49,-20,68,42,42,50,66,19,-55
-19,30,49,-5,-34,39,48,22,17,31,-22,-91
-29,21,50,4,-40,35,42,18,-1,18,-30,-95
-25,12,36,6,-31,24,47,23,-7,8,-53,-122
-25,16,40,4,-33,28,53,17,-20,5,-60,-137
-4,18,22,-7,-14,20,42,22,-16,1,-66,-148
-66,6,71,30,-69,38,84,24,-20,-10,-81,-161
-104,33,137,35,-121,85,150,132,78,74,-13,-117
85,-47,-132,-19,108,-89,135,303,248,105,19,-115
649,164,-485,-406,567,-160,-296,10,393,263,297,235
773,240,-533,-506,653,-146,-618,-661,-22,73,190,248
152,-255,-407,51,280,-331,-457,-1202,-967,-602,-508,-379
-114,-374,-261,244,74,-317,-284,-1071,-1057,-695,-606,-491
-90,-165,-75,128,-7,-120,-97,-465,-472,-331,-301,-286
-91,-62,30,76,-61,-16,4,-161,-180,-119,-141,-204
-80,-28,52,53,-65,11,37,-88,-106,-77,-97,-186
-98,-24,75,61,-86,25,56,-48,-91,-60,-88,-185
-87,-11,75,49,-81,32,45,-34,-74,-47,-82,-166
-91,-10,81,51,-86,35,54,-23,-64,-51,-87,-157
-82,1,83,40,-82,41,47,-21,-53,-43,-77,-125
-82,4,86,39,-84,45,51,-15,-43,-43,-82,-116
-77,12,90,32,-84,51,53,-11,-38,-40,-77,-105
-67,23,90,22,-79,56,55,-7,-30,-30,-68,-89
-60,30,90,15,-75,60,55,2,-19,-7,-60,-68
-42,48,90,-3,-66,69,54,39,6,5,-50,-56
-40,50,90,-5,-65,70,56,67,39,11,-45,-53
-37,52,90,-7,-64,71,53,99,65,27,-33,-45
-19,71,90,-26,-55,81,50,138,111,53,-6,-42
10,97,88,-54,-39,92,50,186,179,92,30,-29
41,124,83,-82,-21,103,48,247,233,128,67,-1
53,130,77,-92,-13,104,44,282,278,160,102,34
69,143,74,-106,-3,108,46,307,302,185,131,70
86,154,68,-120,8,111,47,313,296,198,134,91
94,159,65,-127,14,112,45,306,285,196,125,97
99,172,73,-136,13,123,40,282,277,189,117,90
91,167,76,-129,7,121,38,243,251,173,110,80
74,148,74,-112,0,111,33,212,204,143,99,71
45,121,76,-83,-16,98,30,169,157,108,77,53
25,99,73,-62,-24,86,38,123,115,82,51,23
17,87,70,-52,-26,78,41,79,75,62,20,-16
5,74,70,-39,-33,72,39,56,34,32,-6,-47
-6,64,70,-29,-38,67,37,52,13,14,-26,-61
-17,52,70,-17,-44,61,34,43,16,16,-33,-64
-16,54,70,-19,-44,62,36,37,14,14,-26,-73
-13,57,70,-22,-42,63,39,28,16,15,-22,-77
-11,60,71,-24,-41,65,41,28,14,15,-15,-72
-7,63,70,-28,-39,66,39,32,18,16,-10,-68
-13,73,86,-30,-50,79,43,44,37,33,-4,-43
8,120,112,-64,-52,116,56,85,59,56,3,-12
32,144,113,-88,-41,128,52,130,99,82,23,18
47,150,103,-99,-28,126,37,157,110,100,43,33
77,175,98,-126,-11,136,29,118,91,93,46,23
82,172,90,-128,-4,131,23,66,89,82,62,21
52,137,85,-95,-16,111,27,56,63,69,55,11
17,98,81,-57,-32,89,19,19,29,53,20,-17
-30,43,73,-7,-52,58,22,-10,-3,8,-25,-46
-50,24,74,13,-62,48,19,-35,-30,-10,-41,-37
-45,17,62,14,-53,39,24,-39,-38,-27,-69,-41
-46,20,67,13,-57,43,29,-41,-53,-45,-79,-43
-26,27,53,0,-40,40,22,-42,-50,-42,-72,-60
-80,17,97,31,-89,57,60,-16,-52,-46,-85,-95
-121,42,163,40,-142,102,123,108,51,38,-18,-52
67,-26,-93,-21,80,-60,110,271,219,74,18,-18
640,184,-456,-412,548,-136,-306,-2,359,230,316,334
741,275,-465,-508,603,-95,-592,-622,-9,79,235,353
91,-202,-293,56,192,-247,-414,-1146,-944,-577,-484,-301
-156,-350,-194,253,19,-272,-261,-1063,-1090,-714,-612,-451
-108,-164,-56,136,-26,-110,-97,-484,-504,-368,-318,-249
-106,-73,32,89,-69,-20,1,-184,-206,-135,-153,-168
-90,-48,42,69,-66,-3,27,-117,-139,-102,-122,-136
-100,-45,55,73,-77,5,35,-96,-118,-106,-125,-134
-85,-38,47,62,-66,4,34,-76,-103,-90,-107,-116
-88,-38,49,63,-68,5,50,-47,-98,-91,-110,-112
-75,-31,44,52,-59,6,42,-52,-91,-79,-96,-103
-76,-30,45,52,-60,7,45,-43,-84,-77,-95,-101
-66,-24,42,45,-53,8,39,-43,-77,-65,-86,-98
-57,-18,39,38,-48,10,40,-38,-58,-58,-79,-93
-55,-14,41,34,-47,13,44,-24,-43,-49,-72,-91
-42,-7,34,24,-38,13,44,4,-23,-33,-62,-85
-39,-3,36,20,-37,16,47,37,-3,-17,-57,-77
-29,4,33,12,-32,18,50,70,29,3,-43,-71
-13,16,29,-2,-21,22,50,108,76,17,-23,-62
17,40,23,-29,-4,31,49,146,138,46,4,-44
38,58,20,-48,9,39,50,193,197,80,41,-15
53,69,15,-61,19,42,50,229,238,109,72,24
81,91,10,-86,35,50,47,255,270,136,102,61
85,100,15,-92,35,57,44,261,271,148,114,85
70,93,23,-82,23,58,41,245,262,144,102,78
57,86,29,-72,14,57,38,237,252,130,92,66
43,79,36,-61,3,57,35,215,216,114,83,55
30,71,41,-51,-6,56,35,175,175,92,62,39
18,64,46,-42,-14,55,35,143,137,73,37,15
7,57,49,-32,-21,53,35,111,93,49,18,-25
-9,41,50,-16,-30,45,35,78,52,22,-13,-53
-22,29,51,-4,-37,40,35,46,25,4,-41,-73
-23,28,52,-3,-38,40,35,29,19,-13,-49,-83
-19,31,50,-6,-34,40,39,31,20,-17,-45,-84
-16,29,45,-7,-31,37,42,30,20,-10,-41,-91
-14,31,45,-9,-30,37,45,31,20,-4,-35,-85
-8,30,38,-11,-23,34,48,29,20,1,-32,-80
-14,31,45,-8,-30,38,52,35,23,8,-24,-72
2,69,67,-35,-33,68,65,70,52,29,5,-42
31,104,73,-67,-22,88,66,120,102,61,21,0
46,121,75,-84,-14,98,56,130,128,77,34,30
61,134,73,-98,-6,103,54,90,113,70,36,26
70,137,67,-104,1,101,48,72,90,67,26,20
43,106,63,-75,-10,84,49,60,59,59,13,-2
0,59,59,-30,-30,59,42,23,30,39,2,-38
-38,11,49,13,-43,29,43,5,1,-4,-33,-81
-56,-13,43,34,-49,14,38,-17,-28,-21,-53,-87
-49,-24,26,36,-37,1,40,-24,-40,-42,-64,-95
-57,-31,26,44,-41,-2,43,-33,-54,-53,-61,-99
-43,-31,12,37,-27,-9,32,-29,-45,-40,-63,-95
-108,-51,57,79,-83,4,70,-12,-48,-47,-82,-118
-158,-23,135,91,-146,55,134,102,53,37,-17,-67
32,-80,-112,25,72,-96,137,270,218,53,4,-57
619,115,-504,-367,562,-194,-281,-4,322,185,262,256
789,217,-571,-503,680,-177,-620,-660,-43,35,191,305
132,-262,-393,65,263,-327,-458,-1215,-986,-636,-511,-322
-146,-406,-260,277,57,-333,-282,-1111,-1136,-758,-635,-465
-102,-201,-98,152,-2,-149,-108,-507,-522,-389,-326,-251
-146,-105,41,125,-93,-32,-10,-189,-224,-156,-171,-174
-115,-66,48,91,-82,-9,27,-112,-146,-112,-129,-159
-113,-62,51,87,-81,-5,55,-78,-124,-111,-124,-163
-99,-49,50,74,-74,1,47,-48,-114,-95,-109,-146
-94,-44,49,69,-71,2,58,-25,-105,-99,-112,-147
-86,-35,51,61,-68,8,55,-26,-100,-87,-100,-137
-77,-28,49,52,-62,10,61,-14,-89,-85,-99,-124
-72,-21,51,46,-61,15,62,-11,-82,-78,-92,-105
-59,-11,48,35,-54,18,65,-2,-66,-67,-82,-100
-59,-5,54,32,-56,24,66,3,-54,-56,-73,-95
-61,3,65,29,-63,34,64,17,-31,-42,-58,-88
-54,11,65,21,-60,38,66,53,2,-23,-46,-84
-47,19,66,14,-57,42,64,90,39,-3,-28,-62
-35,35,70,0,-53,52,61,131,85,23,-1,-44
-14,56,70,-21,-43,63,58,180,148,57,33,-29
12,80,68,-46,-28,73,56,222,204,86,64,1
34,96,61,-65,-14,78,53,264,244,114,89,29
53,110,56,-82,-2,83,50,290,277,140,110,68
65,116,51,-91,6,84,50,287,288,142,122,95
66,110,44,-88,11,76,50,274,282,131,121,85
67,108,42,-88,12,75,50,264,262,123,109,79
60,103,43,-82,8,73,50,246,227,113,98,67
51,101,50,-76,1,75,50,204,185,99,86,50
30,90,59,-60,-15,74,50,161,136,77,68,33
4,67,62,-36,-29,64,45,119,82,47,40,8
-13,56,69,-22,-41,62,45,81,40,22,13,-17
-22,48,70,-13,-46,59,44,56,12,6,-2,-28
-30,40,70,-5,-50,55,40,43,-6,-10,-11,-34
-38,32,70,3,-54,51,40,40,-16,-20,-18,-38
-37,33,70,2,-54,51,42,39,-24,-31,-23,-42
-28,43,71,-7,-50,56,48,36,-17,-28,-32,-47
-24,44,69,-10,-47,56,48,34,-8,-13,-28,-35
-17,64,81,-24,-49,72,56,55,9,1,10,-22
20,112,92,-66,-36,102,75,100,54,30,32,-2
46,144,98,-95,-26,121,67,145,98,65,47,31
52,145,93,-99,-21,119,50,143,103,71,65,45
70,153,83,-112,-7,118,37,103,87,69,64,58
85,157,72,-121,7,114,34,75,83,73,68,52
49,113,64,-81,-8,88,37,41,54,55,48,13
1,56,55,-28,-27,55,32,20,17,25,14,-20
-31,19,50,6,-41,34,39,11,-18,-15,-18,-54
-33,8,41,13,-38,24,30,1,-39,-33,-33,-60
-52,-21,31,36,-42,5,40,3,-53,-56,-52,-79
-53,-18,35,36,-44,8,30,-10,-51,-45,-26,-60
-63,-44,19,54,-41,-12,37,-5,-55,-54,-39,-72
-125,-15,110,69,-117,47,89,22,-34,-24,-20,-61
-98,7,105,45,-101,56,162,207,111,38,18,-31
219,-38,-257,-90,238,-147,41,276,282,83,87,54
786,200,-587,-493,686,-193,-456,-194,329,229,365,386
588,44,-544,-316,566,-250,-605,-908,-372,-208,-33,95
-36,-423,-388,230,176,-405,-387,-1290,-1199,-799,-651,-458
-119,-365,-247,242,64,-306,-220,-910,-923,-635,-507,-379
-120,-161,-41,141,-39,-101,-60,-337,-362,-281,-228,-206
-118,-88,30,103,-74,-29,4,-147,-176,-136,-118,-149
-111,-81,31,96,-71,-25,40,-96,-126,-114,-98,-146
-116,-76,40,95,-78,-17,49,-78,-110,-96,-87,-139
-96,-66,30,80,-63,-18,57,-47,-97,-87,-77,-126
-97,-63,35,80,-66,-14,63,-24,-92,-79,-73,-117
-80,-53,26,66,-52,-13,57,-21,-81,-67,-62,-90
-86,-51,35,68,-60,-8,63,-10,-73,-65,-59,-70
-80,-41,39,61,-59,-1,58,-8,-62,-56,-50,-57
-77,-37,40,57,-58,2,63,5,-52,-53,-44,-55
-82,-28,54,55,-68,12,64,20,-32,-46,-38,-49
-73,-24,50,48,-61,13,66,46,2,-27,-27,-44
-61,-15,46,37,-53,16,69,78,24,-8,-14,-41
-44,-6,38,25,-41,16,70,113,61,12,2,-32
-23,13,36,5,-30,24,69,163,119,39,26,-19
-2,22,24,-10,-13,23,72,217,188,73,59,-4
23,33,10,-28,6,21,76,267,254,117,104,29
52,85,34,-69,9,59,73,292,278,134,126,62
60,96,37,-78,11,66,69,311,281,143,130,99
52,86,34,-70,9,60,66,308,275,146,126,118
48,84,36,-66,6,60,61,291,273,138,115,109
41,75,34,-59,3,55,59,284,260,138,108,103
38,72,34,-55,2,53,55,250,220,123,101,96
34,63,29,-49,2,46,55,201,180,93,83,88
19,49,30,-34,-6,40,53,149,124,62,54,57
-11,19,30,-4,-21,24,49,103,68,34,33,22
-38,-8,30,23,-34,11,50,69,34,12,12,-1
-51,-21,30,36,-40,4,53,47,16,2,-6,-20
-55,-21,34,38,-44,6,56,44,4,-2,-13,-28
-56,-21,35,38,-46,7,55,45,5,-8,-16,-33
-52,-17,35,34,-44,9,56,45,13,-13,-22,-34
-50,-16,34,32,-41,9,55,46,20,-20,-24,-29
-49,-12,37,30,-43,13,56,44,25,-6,-10,-32
-23,25,47,-1,-35,36,69,73,39,27,17,-15
1,54,54,-28,-27,54,70,123,85,57,53,23
31,85,54,-58,-12,69,70,147,109,83,62,47
42,91,49,-66,-3,69,58,128,93,79,51,51
44,88,45,-66,-1,67,21,84,89,77,50,45
34,73,39,-54,-3,56,16,57,76,74,41,29
-12,25,37,-7,-25,31,14,22,38,48,36,13
-45,-18,28,31,-36,5,16,-1,-1,5,8,-23
-68,-42,26,55,-46,-8,16,-22,-30,-19,-19,-40
-68,-57,12,62,-40,-22,12,-35,-40,-33,-39,-36
-84,-71,13,77,-48,-29,35,-34,-48,-52,-51,-36
-58,-63,-5,60,-27,-34,27,-31,-22,-39,-38,-15
-91,-82,9,87,-50,-36,63,-5,-35,-45,-66,-31
-165,-52,113,108,-139,30,118,77,21,35,2,8
-43,-100,-56,71,7,-78,155,275,184,60,29,-14
493,22,-471,-257,482,-224,-179,120,344,167,223,223
838,202,-635,-520,736,-216,-614,-518,117,126,278,401
288,-204,-492,-41,390,-348,-522,-1162,-835,-520,-370,-169
-128,-476,-348,302,110,-412,-323,-1223,-1214,-788,-649,-455
-104,-278,-173,191,35,-225,-157,-628,-645,-449,-348,-244
-116,-130,-14,123,-51,-71,-24,-218,-251,-169,-141,-126
-97,-108,-11,102,-42,-60,17,-124,-151,-95,-77,-102
-101,-108,-7,105,-47,-57,40,-78,-117,-96,-67,-108
-93,-96,-3,95,-45,-49,37,-58,-103,-73,-53,-92
-93,-96,-3,94,-45,-49,49,-33,-99,-72,-57,-93
-90,-87,3,88,-46,-42,43,-32,-97,-60,-49,-86
-85,-83,2,83,-43,-40,45,-25,-87,-53,-47,-83
-86,-78,8,81,-47,-34,45,-19,-74,-46,-44,-80
-79,-71,8,75,-44,-31,44,-15,-59,-38,-37,-75
-80,-66,13,73,-46,-27,49,-7,-44,-33,-32,-74
-74,-59,15,66,-45,-21,50,14,-21,-11,-22,-67
-69,-56,13,62,-40,-21,50,43,13,0,-9,-63
-51,-45,6,48,-28,-19,50,83,48,12,6,-58
-35,-34,1,34,-18,-16,50,124,89,48,29,-54
-15,-19,-4,17,-5,-12,49,170,151,82,62,-50
20,10,-10,-15,15,0,45,221,209,111,97,-39
43,28,-15,-35,28,6,46,261,260,143,127,-12
68,49,-20,-58,44,14,43,293,291,168,146,34
82,62,-20,-73,51,21,40,300,289,175,142,63
74,54,-20,-64,46,16,40,293,276,167,136,58
71,51,-20,-61,45,16,37,283,266,161,131,47
66,46,-20,-56,43,12,34,252,245,153,124,38
59,42,-17,-50,37,12,31,209,204,131,122,24
41,36,-4,-38,22,16,28,160,152,103,96,-5
11,18,7,-15,2,13,25,110,101,82,60,-35
-3,8,10,-3,-7,9,25,65,60,52,29,-65
-10,0,10,5,-10,5,25,35,28,31,15,-87
-18,-8,10,13,-14,1,25,28,15,28,14,-95
-26,-16,10,21,-18,-3,26,31,15,24,10,-111
-28,-19,10,24,-19,-4,25,29,16,21,7,-127
-20,-7,13,13,-16,3,25,32,15,16,5,-123
-26,-3,22,14,-24,9,29,29,18,16,7,-128
-7,26,33,-10,-20,29,31,35,36,32,15,-129
15,58,42,-37,-13,50,41,79,65,55,32,-103
19,76,56,-48,-19,66,39,115,102,93,70,-67
46,115,68,-81,-11,91,26,121,120,115,89,-46
59,123,64,-91,-3,94,15,85,114,112,89,-46
61,110,49,-86,6,79,8,52,99,108,93,-41
44,86,42,-65,1,64,5,30,70,85,69,-76
8,36,28,-23,-10,32,-3,-10,32,48,34,-145
-41,-17,24,29,-32,3,-1,-30,-9,3,-14,-184
-44,-33,12,38,-27,-10,-15,-49,-28,-10,-20,-184
-46,-41,5,44,-25,-18,0,-56,-55,-41,-43,-202
-57,-42,15,49,-36,-14,-5,-70,-50,-32,-30,-183
-66,-66,0,66,-33,-33,9,-47,-44,-52,-41,-213
-92,-25,67,59,-79,21,58,21,4,0,-17,-207
-57,-29,28,43,-42,-1,127,210,193,125,60,-177
260,-46,-306,-107,283,-176,-16,268,370,169,168,-56
812,227,-585,-519,698,-179,-512,-182,399,302,460,340
550,108,-442,-329,496,-167,-593,-840,-306,-80,63,37
-80,-326,-246,203,84,-286,-385,-1220,-1130,-672,-578,-572
-151,-335,-185,243,17,-260,-261,-913,-912,-609,-497,-526
-146,-176,-29,161,-58,-102,-94,-383,-387,-283,-242,-368
-124,-103,21,113,-72,-40,-42,-196,-190,-131,-112,-321
-118,-88,30,103,-74,-29,-8,-141,-142,-112,-97,-317
-125,-79,46,102,-85,-16,-3,-114,-122,-92,-84,-304
-110,-75,35,92,-72,-20,-4,-94,-106,-90,-83,-285
-114,-70,44,92,-79,-13,4,-85,-99,-83,-88,-280
-100,-63,37,81,-68,-13,2,-83,-89,-75,-82,-278
-102,-60,42,81,-72,-9,7,-75,-85,-69,-88,-282
-90,-52,38,71,-64,-7,-1,-71,-77,-59,-78,-281
-81,-46,35,63,-58,-5,0,-64,-71,-53,-72,-286
-75,-39,35,57,-55,-2,-5,-49,-54,-44,-62,-285
-66,-32,35,49,-50,1,-8,-18,-28,-35,-53,-279
-63,-27,35,45,-49,4,-10,2,4,-8,-33,-266
-51,-17,35,33,-43,9,-13,34,45,18,-8,-254
-32,-1,32,16,-32,15,-15,76,86,36,18,-225
-10,18,27,-4,-19,22,-19,112,135,61,44,-192
16,40,25,-28,-5,32,-21,156,188,86,57,-163
37,58,21,-48,8,39,-24,183,224,113,94,-113
59,75,16,-67,21,46,-25,192,242,132,124,-87
60,75,16,-68,22,45,-26,189,235,124,116,-91
47,70,23,-59,12,46,-30,181,216,116,109,-94
47,69,22,-58,12,45,-30,170,200,108,103,-97
46,65,18,-56,13,41,-28,145,173,100,92,-109
39,64,25,-52,7,44,-24,104,137,85,74,-132
21,55,34,-38,-7,44,-22,59,92,59,44,-163
-14,45,58,-16,-36,51,-19,21,38,39,13,-191
-32,35,68,-2,-50,51,-16,-2,12,9,-14,-203
-35,25,60,5,-48,42,-15,-17,10,-16,-40,-226
-46,15,61,16,-54,37,-9,-23,3,-22,-48,-242
-45,9,54,18,-50,31,-3,-12,-1,-29,-41,-240
-45,11,56,17,-51,33,1,-9,-8,-20,-33,-240
-45,9,54,17,-49,31,7,1,-6,-10,-24,-240
-38,22,59,8,-49,40,13,5,13,0,-18,-240
-30,53,83,-12,-57,68,16,14,31,16,-1,-212
-10,86,96,-38,-53,91,24,54,71,45,31,-170
3,108,105,-56,-51,106,26,88,103,73,52,-138
22,124,102,-73,-40,113,5,82,87,67,47,-126
50,144,93,-97,-22,118,-19,35,86,59,40,-121
42,126,84,-84,-21,105,-29,17,68,46,22,-141
11,90,79,-51,-34,84,-41,-14,19,35,17,-172
-31,35,67,-2,-49,51,-31,-50,-15,0,-15,-216
-58,1,59,28,-58,30,-33,-67,-42,-31,-47,-239
-62,-20,42,41,-52,11,-29,-79,-60,-55,-63,-245
-90,-48,42,69,-66,-3,-21,-90,-81,-79,-82,-249
-80,-42,38,61,-59,-2,-33,-83,-56,-61,-65,-236
-113,-64,49,89,-81,-8,28,-57,-63,-80,-93,-277
-148,-33,115,90,-131,41,56,46,42,23,-19,-226
-3,-91,-89,47,44,-90,83,249,240,80,20,-220
486,90,-396,-288,441,-153,-241,64,411,301,366,156
710,306,-404,-508,557,-49,-619,-521,186,331,495,400
159,-118,-278,-20,219,-198,-480,-1088,-776,-427,-320,-293
-171,-380,-209,276,19,-294,-346,-1162,-1170,-789,-672,-620
-132,-236,-104,185,-14,-170,-200,-654,-667,-509,-416,-448
-140,-124,16,131,-78,-54,-75,-290,-294,-240,-227,-360
-115,-87,29,100,-72,-29,-53,-202,-183,-157,-149,-296
-125,-88,38,106,-81,-25,-21,-158,-157,-168,-156,-273
-112,-72,41,92,-76,-15,-29,-129,-149,-141,-133,-238
-103,-72,31,87,-67,-20,-15,-103,-146,-146,-140,-233
-94,-61,33,78,-64,-14,-14,-107,-132,-137,-127,-216
-80,-56,24,68,-52,-16,-7,-104,-122,-134,-124,-211
-94,-67,27,80,-60,-20,-4,-105,-113,-130,-120,-205
-102,-64,39,83,-70,-12,-6,-103,-102,-120,-109,-196
-92,-52,40,72,-66,-6,-4,-74,-88,-105,-101,-192
-78,-43,35,60,-57,-3,-6,-44,-70,-82,-89,-178
-69,-35,33,51,-51,-1,-4,-20,-40,-64,-79,-165
-57,-27,30,42,-44,2,-6,2,-2,-50,-64,-149
-48,-20,28,34,-38,4,-9,29,35,-33,-41,-115
-34,-9,25,21,-29,8,-12,73,85,3,-12,-76
-11,14,25,-2,-18,19,-15,105,130,36,16,-32
14,39,25,-27,-6,32,-17,143,184,65,59,17
30,55,25,-43,2,40,-20,172,211,97,79,32
35,60,25,-48,5,42,-18,171,199,109,75,29
32,60,29,-46,1,44,-13,162,191,99,73,27
25,55,30,-40,-3,43,-10,154,181,91,70,26
17,47,30,-32,-7,38,-7,138,163,79,63,19
9,39,30,-24,-10,34,-2,112,132,57,41,-2
0,31,31,-16,-16,31,0,74,80,28,13,-35
-20,23,44,-2,-32,33,-6,39,42,-3,-11,-67
-51,-6,45,28,-48,19,-8,16,24,-20,-19,-71
-71,-30,40,51,-55,5,-4,-9,-8,-35,-34,-69
-73,-35,38,54,-55,2,-6,-32,-41,-62,-62,-71
-79,-46,33,62,-56,-6,-1,-46,-71,-67,-70,-70
-76,-47,30,62,-53,-8,0,-43,-73,-62,-70,-70
-76,-42,34,59,-54,-4,0,-40,-63,-58,-70,-75
-75,-38,38,56,-56,0,7,-33,-49,-57,-70,-71
-48,-7,41,27,-44,17,17,3,-17,-48,-50,-43
-30,31,61,-1,-46,45,29,46,18,-21,-23,-11
-16,59,76,-22,-46,67,23,78,58,3,-2,17
-5,83,88,-39,-47,85,11,95,67,29,14,44
10,103,93,-57,-42,98,0,56,53,43,34,65
18,100,82,-59,-32,91,0,19,45,40,43,56
-2,66,68,-32,-35,66,1,3,13,22,20,28
-25,7,32,8,-29,20,4,-20,-17,-24,-27,-19
-68,-45,24,56,-46,-10,7,-50,-54,-61,-64,-61
-82,-60,22,71,-52,-18,0,-64,-69,-71,-78,-67
-95,-81,14,87,-55,-33,12,-64,-86,-105,-111,-91
-96,-76,19,86,-58,-28,-6,-69,-69,-84,-88,-75
-104,-105,-1,105,-52,-53,30,-56,-74,-109,-120,-121
-143,-72,71,107,-107,-1,61,-18,-49,-50,-75,-115
-98,-114,-16,106,-41,-65,110,185,123,13,-28,-97
288,-33,-321,-128,305,-176,-98,116,289,188,225,158
670,279,-390,-474,530,-55,-539,-394,279,445,593,592
295,-52,-347,-121,322,-199,-509,-958,-519,-221,-87,66
-120,-453,-332,287,106,-392,-342,-1208,-1218,-852,-715,-508
-149,-343,-193,246,22,-268,-217,-783,-820,-625,-501,-376
-158,-208,-50,183,-53,-129,-66,-317,-353,-321,-274,-254
-127,-141,-13,134,-57,-77,-25,-186,-212,-194,-167,-184
-139,-133,6,136,-72,-63,15,-150,-174,-188,-171,-165
-133,-121,13,127,-73,-54,15,-129,-166,-153,-140,-127
-124,-116,8,120,-66,-54,26,-81,-149,-145,-133,-100
-121,-110,11,116,-66,-49,29,-78,-145,-147,-141,-88
-110,-101,9,106,-59,-46,24,-77,-130,-143,-131,-72
-109,-99,11,104,-60,-44,26,-67,-125,-147,-132,-73
-103,-93,10,98,-56,-41,24,-66,-115,-144,-120,-68
-102,-92,10,97,-56,-41,26,-56,-104,-141,-120,-72
-97,-87,10,92,-53,-38,24,-40,-82,-116,-110,-69
-95,-85,10,90,-52,-37,29,-10,-58,-101,-97,-71
-86,-76,10,81,-48,-33,30,23,-26,-84,-83,-63
-69,-59,10,64,-39,-24,30,57,14,-55,-61,-48
-52,-37,15,44,-33,-11,29,99,74,-14,-28,-33
-28,-13,15,20,-21,1,24,143,134,29,7,3
-8,8,16,0,-12,12,21,175,172,62,52,52
6,27,21,-16,-7,23,18,203,211,89,79,103
26,46,19,-36,3,32,13,207,221,98,88,134
29,52,23,-41,3,37,10,194,210,91,96,137
19,44,25,-32,-3,34,13,186,199,80,87,131
10,36,26,-23,-8,31,16,173,174,71,78,125
-2,28,30,-13,-17,29,19,153,140,54,54,114
-9,20,30,-6,-19,25,22,116,102,26,21,92
-21,4,25,8,-23,15,24,71,52,-5,-4,77
-40,-19,22,29,-31,1,26,30,3,-39,-29,63
-54,-35,18,44,-36,-8,30,-4,-31,-63,-50,54
-60,-45,15,52,-37,-15,30,-25,-54,-82,-75,49
-59,-49,10,54,-35,-20,30,-29,-56,-98,-87,43
-71,-58,13,64,-42,-22,30,-22,-55,-93,-82,39
-90,-62,28,76,-58,-17,30,-16,-52,-87,-77,30
-82,-47,35,64,-58,-6,35,-7,-49,-81,-73,37
-68,-30,39,49,-53,4,45,-4,-49,-77,-67,55
-53,0,53,27,-53,26,56,15,-22,-62,-46,81
-23,39,62,-9,-43,50,54,68,6,-28,-22,131
-5,65,70,-30,-37,67,41,99,36,-19,-8,179
-9,72,81,-31,-45,76,30,78,41,-21,3,211
0,79,79,-40,-40,79,24,41,29,-14,18,223
-7,67,74,-31,-41,71,25,18,11,-16,6,217
-37,20,57,8,-47,38,17,-8,-35,-27,-21,189
-54,-27,26,40,-40,-1,19,-24,-66,-71,-56,133
-72,-48,23,60,-47,-12,12,-54,-95,-95,-73,128
-92,-79,14,85,-53,-32,20,-62,-114,-122,-99,123
-97,-85,12,91,-54,-36,23,-65,-124,-131,-99,124
-92,-88,4,90,-48,-42,20,-53,-117,-120,-95,133
-137,-100,37,118,-87,-31,61,-44,-126,-137,-113,120
-173,-76,96,124,-134,10,126,63,-34,-56,-44,148
3,-134,-137,66,70,-135,110,219,126,-12,0,166
508,119,-389,-313,448,-135,-302,-84,261,243,381,602
569,208,-362,-388,465,-77,-562,-680,-91,102,303,642
37,-298,-335,131,186,-317,-401,-1178,-1030,-700,-525,-79
-171,-434,-263,302,46,-349,-278,-1089,-1163,-834,-646,-207
-166,-250,-85,208,-40,-168,-116,-523,-577,-458,-340,-15
-158,-159,-1,159,-78,-80,-19,-236,-292,-236,-189,49
-144,-136,9,140,-76,-63,14,-168,-215,-181,-136,91
-161,-137,24,149,-92,-56,31,-138,-207,-178,-138,81
-154,-122,32,138,-93,-45,20,-103,-191,-161,-122,96
-162,-122,40,142,-101,-41,38,-81,-182,-169,-130,102
-150,-110,40,130,-95,-35,39,-83,-174,-158,-119,122
-147,-107,40,127,-93,-34,36,-74,-161,-158,-122,129
-140,-100,40,120,-90,-29,35,-72,-157,-153,-118,139
-132,-92,40,112,-85,-26,34,-66,-145,-143,-110,147
-127,-86,40,106,-83,-23,30,-59,-134,-131,-106,154
-118,-78,40,98,-79,-19,31,-30,-112,-117,-92,158
-107,-67,40,87,-74,-13,26,-1,-82,-97,-74,153
-92,-52,40,72,-66,-6,35,38,-39,-68,-48,156
-74,-34,40,54,-57,3,47,81,9,-35,-22,154
-50,-10,40,30,-45,15,44,123,73,6,9,159
-32,12,45,9,-39,28,43,169,138,53,57,202
-12,33,45,-11,-29,39,40,207,180,93,95,243
5,50,45,-28,-20,47,40,231,206,108,117,273
15,61,45,-39,-15,53,37,225,209,102,120,302
16,61,44,-39,-14,52,34,217,194,94,110,307
3,50,48,-27,-23,49,32,208,173,88,105,298
-7,43,50,-18,-29,47,28,176,141,77,95,286
-14,36,50,-11,-32,43,26,131,101,57,80,268
-27,24,50,2,-39,36,23,84,55,27,50,237
-50,0,50,25,-50,25,20,39,7,-2,13,204
-73,-23,50,48,-61,13,20,7,-36,-32,-7,173
-88,-38,50,63,-69,6,20,-10,-72,-62,-21,153
-93,-43,50,68,-72,4,20,-17,-90,-72,-39,139
-85,-36,50,61,-67,7,20,-21,-94,-75,-48,131
-80,-29,50,54,-65,10,23,-24,-90,-78,-41,122
-72,-22,50,47,-61,13,29,-30,-81,-72,-34,113
-67,-15,52,41,-60,18,32,-22,-77,-77,-28,113
-74,-11,63,42,-68,26,37,-3,-66,-65,-20,121
-45,19,64,13,-55,41,43,34,-31,-21,-2,136
-15,56,71,-21,-43,64,38,82,9,14,31,174
-11,63,75,-26,-43,69,31,76,35,32,39,207
0,68,69,-34,-35,68,27,40,24,31,29,204
14,76,62,-45,-25,69,21,24,10,20,23,205
-5,52,57,-24,-32,54,21,-2,-17,9,12,187
-46,7,53,19,-49,30,13,-26,-52,-4,8,142
-84,-40,45,62,-64,2,14,-45,-83,-42,-26,94
-93,-52,41,72,-67,-5,7,-71,-103,-59,-36,84
-107,-79,29,93,-68,-24,19,-64,-121,-86,-60,62
-106,-74,32,89,-68,-21,12,-72,-134,-91,-62,63
-87,-77,10,82,-49,-33,14,-48,-113,-94,-75,52
-144,-69,76,106,-110,3,54,-56,-145,-102,-80,22
-175,-61,114,118,-144,27,130,65,-51,-37,-30,38
55,-118,-173,32,114,-145,67,196,122,22,34,113
608,166,-442,-387,525,-138,-401,-170,275,281,419,552
551,116,-435,-334,493,-159,-590,-790,-198,-22,159,406
-40,-419,-379,229,170,-399,-407,-1252,-1169,-805,-636,-308
-177,-441,-264,310,44,-353,-274,-1018,-1105,-779,-608,-327
-158,-216,-58,187,-50,-136,-103,-441,-508,-380,-295,-125
-151,-131,20,141,-85,-55,-32,-212,-284,-197,-163,-54
-154,-119,34,136,-94,-42,8,-146,-214,-157,-123,-25
-168,-112,56,140,-111,-28,24,-123,-206,-149,-118,-22
-149,-102,47,125,-98,-27,16,-88,-187,-138,-106,-3
-151,-100,52,126,-101,-24,23,-76,-184,-142,-112,-2
-138,-89,49,113,-93,-20,21,-74,-174,-132,-100,19
-136,-86,50,111,-93,-18,27,-66,-164,-133,-102,29
-128,-77,51,103,-89,-13,23,-62,-157,-126,-94,43
-136,-70,65,103,-100,-3,26,-56,-137,-108,-85,46
-133,-62,72,98,-102,5,25,-44,-118,-88,-75,48
-123,-54,69,89,-96,7,25,-11,-97,-75,-64,54
-117,-46,71,82,-94,12,25,12,-68,-59,-56,54
-103,-34,69,69,-86,18,30,59,-23,-37,-37,62
-87,-18,70,52,-78,26,38,104,31,-8,-8,66
-63,2,65,30,-64,34,35,151,92,27,30,76
-42,23,65,9,-54,43,33,206,150,69,66,102
-22,44,65,-12,-44,54,30,243,194,104,93,145
-1,64,65,-32,-33,64,26,274,218,115,118,197
5,71,66,-38,-30,68,25,270,217,109,117,205
2,65,62,-34,-30,63,21,260,209,100,106,192
-2,57,60,-27,-31,58,20,249,191,91,100,185
-9,51,60,-21,-35,56,20,206,149,74,86,175
-17,43,60,-13,-39,51,15,154,100,50,70,164
-37,23,60,7,-49,41,15,107,48,20,39,139
-56,3,59,27,-58,31,15,58,-6,-11,8,117
-63,-8,56,35,-59,24,15,13,-52,-37,-17,95
-77,-22,55,49,-66,16,15,-23,-80,-63,-44,72
-87,-32,55,59,-71,11,15,-26,-96,-73,-51,58
-81,-26,55,53,-68,14,15,-26,-94,-68,-54,54
-76,-22,54,48,-65,16,15,-21,-91,-65,-51,48
-76,-18,58,46,-67,20,15,-15,-88,-62,-41,43
-72,-12,59,42,-65,23,15,-19,-86,-57,-35,37
-79,-8,71,43,-75,31,17,-1,-82,-55,-24,37
-64,24,88,20,-76,56,28,-8,-52,-36,-23,76
-41,57,98,-8,-70,78,32,78,-8,-11,-41,119
-30,72,102,-21,-66,87,-10,71,25,-42,-68,153
-12,81,93,-34,-53,86,-42,109,10,-84,-92,145
-42,41,82,0,-62,61,-33,22,-19,-80,-91,150
-37,9,46,14,-42,27,-28,-182,-49,-72,-81,100
