I,II,III,aVR,aVL,aVF,V1,V2,V3,V4,V5,V6
-34,-44,-9,39,-12,-26,-15,-45,45,20,-55,20
-12,-34,-22,23,5,-28,-14,-45,45,20,-55,20
22,-15,-37,-3,30,-25,-10,-45,45,20,-60,20
13,-10,-24,-1,19,-17,-7,-46,45,20,-60,20
-20,-41,-21,31,1,-31,-2,-50,45,20,-60,20
-33,-43,-10,38,-11,-26,0,-51,45,19,-60,20
2,-34,-36,16,20,-35,-6,-49,40,16,-58,19
25,-25,-50,0,38,-37,-11,-51,40,13,-54,25
14,-18,-32,2,24,-25,-18,-49,39,10,-55,31
-14,-42,-28,28,7,-34,-18,-52,35,8,-51,30
-16,-39,-24,28,4,-31,-14,-65,35,4,-50,30
4,-22,-26,10,15,-23,-15,-65,35,11,-50,30
7,-18,-25,6,16,-21,-15,-61,35,17,-44,30
-16,-40,-24,28,5,-32,-15,-58,35,13,-51,27
-28,-56,-28,43,0,-42,-14,-56,36,11,-56,23
-5,-45,-40,25,18,-42,-10,-53,34,7,-51,20
-6,-42,-36,24,15,-38,-10,-53,37,5,-48,17
-15,-44,-28,30,7,-36,-9,-61,37,7,-45,14
-2,-27,-25,15,12,-25,-4,-48,53,30,-41,38
29,23,-6,-26,17,8,-5,-28,74,40,-34,55
69,60,-9,-64,39,25,-9,-19,77,42,-29,58
67,65,-1,-66,34,32,-35,-20,89,68,-23,77
64,56,-8,-59,36,24,-79,-20,82,64,-20,71
91,42,-48,-66,69,-3,-80,-21,74,51,-14,61
85,36,-50,-61,67,-7,-65,-60,66,43,-11,53
72,22,-50,-47,61,-14,-53,-64,59,28,-19,43
24,-26,-50,1,37,-38,-42,-67,47,12,-43,18
-15,-63,-49,39,17,-56,-28,-69,28,-3,-62,-5
-17,-69,-52,43,17,-61,-26,-78,17,-11,-64,-6
-39,-94,-55,67,8,-74,-12,-84,12,-19,-75,-14
-37,-107,-70,72,17,-88,-11,-72,9,-25,-90,-27
-63,-105,-42,84,-10,-73,-7,-93,-2,-26,-90,-22
-30,-102,-72,66,22,-87,2,-59,3,-25,-91,-22
3,-131,-133,64,68,-132,-37,-110,-33,-59,-117,-52
242,-58,-300,-92,272,-179,-43,183,61,46,-6,46
464,170,-294,-317,379,-61,-196,98,140,193,155,211
63,120,56,-92,3,88,-317,-787,-157,-20,-3,120
-169,-91,78,130,-123,-7,-249,-866,-371,-251,-217,-55
-92,-85,7,88,-50,-38,-173,-433,-219,-159,-157,-44
-84,-59,24,71,-54,-17,-58,-196,-46,-52,-82,-4
-13,-61,-48,37,18,-54,-12,-82,2,-21,-71,4
-7,-48,-41,28,17,-44,-2,-74,29,1,-52,13
-5,-47,-42,26,19,-44,10,-21,52,10,-44,15
-3,-40,-38,22,18,-39,8,-18,48,16,-34,23
-7,-39,-32,24,13,-35,20,-6,52,15,-32,27
-3,-35,-31,19,14,-32,21,0,53,14,-29,33
4,-30,-34,13,19,-31,25,4,57,18,-24,35
1,-33,-34,17,18,-33,32,16,72,24,-21,38
-14,-41,-27,28,6,-34,36,8,78,29,-17,41
-18,-38,-20,28,1,-28,35,22,80,36,-13,45
-11,-34,-23,23,7,-28,32,29,80,30,-8,45
17,-30,-48,7,33,-39,29,36,80,38,-4,49
10,-27,-37,8,24,-32,30,43,80,52,0,50
2,-23,-25,11,14,-23,29,54,86,53,17,53
16,-10,-26,-2,21,-18,36,76,98,64,19,62
38,14,-24,-26,31,-4,41,77,100,68,22,53
44,18,-26,-31,35,-4,40,101,115,74,31,68
33,9,-24,-20,28,-7,40,117,125,83,34,80
73,47,-26,-60,50,10,40,140,136,100,55,88
91,72,-19,-81,55,26,40,180,164,123,67,103
62,49,-13,-55,37,18,36,179,165,128,63,98
85,50,-35,-67,60,7,29,194,166,131,77,109
125,77,-48,-101,86,15,23,206,179,136,98,123
139,95,-44,-117,91,26,16,214,186,146,107,135
173,126,-46,-149,109,40,9,223,193,150,105,143
204,131,-73,-167,138,29,4,211,185,139,95,136
193,98,-96,-145,144,1,-2,202,176,135,87,130
168,78,-89,-123,128,-5,-5,176,158,123,78,126
133,50,-83,-91,107,-16,-10,134,127,99,68,103
95,20,-76,-57,85,-28,-15,87,99,77,45,73
67,-2,-69,-32,68,-35,-12,48,81,58,25,66
33,-31,-64,-1,49,-47,-9,27,77,41,21,59
21,-37,-58,8,40,-47,-6,10,73,29,14,52
16,-39,-55,12,36,-47,-3,-3,67,29,9,46
1,-49,-50,24,25,-49,-1,-17,64,31,4,40
1,-44,-46,22,24,-45,2,-28,59,29,-2,35
8,-37,-44,15,26,-40,8,-25,56,30,-8,35
12,-33,-46,11,29,-39,18,-21,53,30,-14,34
17,-27,-44,6,30,-35,15,-18,48,30,-12,29
14,-24,-38,5,26,-31,19,-13,45,30,-10,31
-13,-45,-32,30,10,-39,32,-10,48,25,-10,29
-28,-55,-27,42,0,-41,28,-10,51,25,-5,34
-24,-46,-22,36,-1,-34,25,-9,48,24,-5,41
-28,-43,-15,36,-6,-28,23,-11,45,20,-4,34
-10,-37,-26,24,8,-31,19,-8,45,20,3,31
8,-30,-37,11,23,-34,21,-14,43,18,2,26
8,-36,-44,14,26,-40,21,-24,39,14,-4,21
4,-46,-51,21,28,-48,18,-28,41,12,-7,17
1,-44,-45,22,23,-45,14,-34,36,9,-13,14
-3,-46,-43,24,21,-44,11,-37,35,6,-17,16
-6,-44,-38,25,17,-41,5,-52,35,4,-20,11
-11,-46,-35,29,12,-40,8,-56,31,0,-20,10
-8,-40,-32,24,12,-35,17,-54,29,0,-20,10
-3,-34,-31,19,14,-32,14,-60,31,-1,-20,5
-11,-54,-43,33,16,-48,11,-60,35,-5,-20,5
-9,-59,-50,34,21,-54,9,-59,35,-5,-17,5
-5,-50,-46,28,20,-48,5,-55,35,-4,-14,5
-7,-49,-42,28,18,-45,6,-55,35,-6,-16,4
-7,-46,-39,27,17,-43,20,-55,35,-4,-13,10
-8,-41,-33,25,13,-37,26,-55,31,-7,-19,18
-4,-54,-50,29,24,-52,25,-55,30,-23,-18,15
-9,-67,-58,38,25,-62,25,-51,30,-26,-17,12
-22,-65,-43,43,11,-53,25,-49,25,-25,-35,9
-16,-60,-45,38,15,-52,25,-49,26,-22,-30,6
-9,-53,-44,31,18,-48,21,-43,23,-19,-25,5
4,-45,-49,21,27,-47,20,-52,20,-20,-20,11
4,-39,-43,18,24,-41,15,-61,15,-13,-13,18
3,-15,-17,6,10,-16,16,-46,22,-2,-9,24
15,6,-9,-10,12,-1,28,-34,48,8,3,32
7,6,-1,-6,4,2,24,-24,54,17,14,36
23,34,11,-29,6,23,12,-22,69,40,31,51
44,51,7,-47,18,29,-7,-30,72,46,32,67
66,36,-29,-51,47,3,-35,-26,51,30,20,68
82,35,-47,-58,64,-6,-40,-42,41,21,13,60
60,16,-44,-38,52,-13,-12,-41,34,7,3,42
17,-30,-47,7,32,-38,2,-47,29,-9,-8,24
-27,-69,-43,49,8,-56,12,-72,20,-24,-24,17
-32,-81,-48,57,8,-64,19,-72,10,-26,-37,13
-36,-77,-41,57,2,-58,29,-99,-1,-29,-40,9
-38,-88,-50,63,6,-69,41,-78,-10,-31,-38,3
-51,-92,-40,72,-5,-66,27,-104,-26,-22,-32,0
-33,-94,-61,64,14,-77,27,-73,-30,-41,-51,-16
-12,-119,-107,66,48,-112,4,-111,-57,-61,-72,-36
122,-105,-227,-9,174,-165,19,64,-2,-2,-8,26
390,110,-280,-250,335,-85,-76,293,173,188,196,217
197,246,49,-221,73,148,-273,-485,-9,125,182,253
-148,18,166,65,-158,92,-263,-935,-372,-215,-122,18
-153,-100,52,126,-102,-24,-171,-527,-339,-241,-176,-77
-103,-67,36,85,-69,-15,-60,-250,-137,-104,-81,-31
-45,-73,-29,59,-8,-51,16,-76,-38,-56,-52,-37
-28,-56,-28,42,1,-42,27,-46,-5,-30,-29,-27
-33,-62,-30,48,-2,-46,47,-27,1,-26,-34,-21
-24,-55,-32,40,4,-43,47,-18,14,-13,-26,-15
-27,-55,-28,41,1,-41,46,-21,27,-17,-24,-6
-23,-55,-33,39,5,-43,45,-8,30,-13,-20,-6
-26,-50,-24,38,-1,-37,42,-12,30,-9,-16,-3
-24,-50,-27,37,1,-38,40,0,29,-11,-10,-7
-26,-49,-23,38,-1,-36,38,7,31,-7,-5,-5
-20,-41,-21,31,1,-31,49,26,34,-2,0,11
-19,-38,-19,28,1,-28,53,33,36,5,7,10
-6,-26,-20,17,7,-23,55,44,48,8,11,7
-1,-11,-10,6,5,-10,61,61,51,17,27,14
-8,-28,-20,18,6,-23,60,63,49,18,37,8
33,-2,-35,-16,34,-18,58,69,54,28,33,5
47,26,-21,-36,33,3,56,87,77,38,41,12
39,25,-14,-31,26,5,54,103,96,43,55,21
21,24,3,-22,9,13,59,115,95,55,56,30
-1,20,21,-10,-11,20,64,140,106,65,66,37
27,42,15,-35,6,28,61,167,116,87,85,45
55,61,6,-59,24,33,54,174,124,92,89,49
64,68,4,-66,29,35,51,191,136,104,105,64
78,83,5,-81,36,44,46,211,150,128,126,86
108,104,-5,-106,56,50,42,218,159,123,124,84
136,112,-24,-124,79,44,37,227,159,129,128,91
152,119,-33,-135,92,43,29,228,154,142,129,95
169,131,-38,-149,103,46,21,222,141,131,116,86
175,122,-53,-148,114,34,13,206,134,113,109,83
140,89,-51,-114,95,19,6,164,118,99,93,72
97,56,-41,-76,68,7,10,118,91,75,66,55
52,14,-38,-33,45,-11,15,74,56,34,36,23
13,-15,-27,1,20,-21,18,39,29,11,13,0
12,-15,-27,2,20,-21,24,25,22,4,4,-10
14,-16,-30,1,23,-23,28,17,18,-4,-3,-20
6,-23,-29,8,18,-25,30,8,14,-15,-9,-30
2,-41,-43,20,23,-41,31,1,8,-26,-22,-48
5,-30,-34,13,20,-31,28,0,5,-22,-38,-50
4,-12,-15,4,10,-13,39,0,9,-16,-40,-44
-12,-26,-14,20,2,-20,51,-5,11,-11,-40,-42
-26,-36,-10,31,-8,-22,50,-5,15,-4,-40,-37
-28,-35,-7,32,-10,-21,50,-5,13,-1,-40,-35
-30,-35,-5,33,-12,-20,50,-5,9,-5,-40,-39
-13,-36,-23,24,6,-29,50,-5,11,-10,-35,-41
4,-33,-37,15,21,-35,47,-5,6,-14,-35,-39
-10,-44,-34,28,13,-39,43,-5,5,-19,-35,-46
-20,-56,-35,39,8,-45,42,-5,5,-24,-35,-51
-13,-48,-35,31,11,-41,38,-9,-2,-24,-35,-45
-9,-45,-35,27,14,-40,35,-17,-12,-14,-38,-43
-8,-41,-32,25,12,-36,35,-19,-23,-29,-56,-38
-5,-35,-30,20,13,-32,35,-14,-30,-47,-71,-35
-12,-39,-27,26,7,-32,37,-16,-30,-44,-70,-32
-16,-40,-24,29,4,-32,35,-14,-30,-45,-70,-26
-19,-40,-20,29,1,-30,35,-20,-30,-45,-70,-27
-30,-51,-20,40,-5,-35,32,-34,-30,-45,-69,-43
-14,-44,-29,29,8,-36,30,-35,-31,-43,-73,-52
-11,-42,-30,26,10,-36,30,-35,-34,-39,-75,-54
0,-30,-30,15,15,-30,30,-34,-37,-41,-75,-61
2,-28,-30,13,16,-29,42,-37,-40,-39,-74,-53
-32,-62,-30,47,-1,-46,46,-50,-40,-41,-77,-51
-24,-53,-29,38,3,-41,44,-50,-40,-50,-85,-69
-17,-41,-25,30,4,-33,42,-50,-40,-50,-85,-71
-15,-40,-25,28,5,-33,39,-50,-40,-45,-85,-69
-10,-33,-23,22,6,-28,41,-50,-40,-44,-85,-71
-12,-31,-19,22,4,-25,44,-49,-40,-39,-85,-68
-4,-25,-21,14,9,-22,46,-43,-35,-42,-84,-74
-6,-33,-27,20,11,-30,45,-38,-28,-44,-77,-80
-9,-30,-21,20,6,-25,45,-35,-25,-36,-71,-71
9,6,-3,-7,6,2,47,-29,-17,-26,-64,-57
6,9,3,-7,1,5,37,-27,-14,-19,-58,-43
-12,14,26,-2,-19,19,27,-20,-5,-9,-47,-39
30,71,40,-51,-5,55,6,-21,10,-4,-34,-40
66,74,9,-70,28,41,-20,-18,7,6,-18,-39
76,54,-22,-65,49,16,-38,-24,-7,7,-20,-41
45,39,-5,-42,25,17,-28,-51,-17,-12,-34,-38
-11,-2,9,6,-10,3,5,-47,-29,-25,-47,-46
-10,-32,-22,21,6,-26,28,-55,-51,-42,-82,-65
-22,-63,-41,43,9,-51,42,-55,-57,-55,-96,-83
-55,-86,-31,71,-12,-58,37,-73,-78,-77,-94,-98
-51,-89,-38,71,-6,-63,43,-55,-89,-87,-97,-101
-57,-90,-33,74,-12,-61,36,-63,-85,-84,-92,-102
-46,-82,-36,64,-4,-59,45,-50,-75,-86,-99,-108
-21,-93,-72,58,26,-82,30,-49,-83,-87,-113,-112
49,-102,-151,27,100,-126,11,-25,-84,-71,-87,-93
300,78,-222,-189,261,-72,-41,316,127,159,138,105
271,285,14,-278,128,149,-248,-181,64,204,220,240
-64,109,172,-23,-118,140,-288,-941,-409,-192,-117,-11
-150,-96,55,123,-102,-20,-194,-646,-476,-312,-255,-171
-99,-65,34,81,-66,-15,-93,-281,-239,-164,-147,-112
-84,-71,13,77,-48,-29,14,-120,-126,-102,-113,-101
-59,-53,6,56,-32,-23,31,-46,-72,-63,-84,-92
-34,-31,4,32,-19,-13,46,-30,-42,-57,-79,-89
-27,-37,-9,32,-9,-23,47,-1,-32,-49,-71,-83
-16,-25,-9,20,-3,-17,57,-9,-31,-42,-64,-77
-6,-24,-18,15,6,-21,62,9,-26,-37,-58,-74
-3,-16,-13,10,5,-14,58,7,-22,-28,-50,-67
1,-11,-12,5,7,-11,62,19,-20,-25,-48,-66
-16,-22,-6,19,-5,-13,58,23,-14,-18,-44,-61
-39,-42,-4,41,-17,-23,62,28,-9,-13,-41,-58
-39,-39,0,39,-20,-19,65,34,-4,-7,-36,-54
-32,-27,5,29,-18,-11,65,38,2,-2,-34,-51
-30,-22,7,26,-18,-7,67,46,8,7,-28,-46
-23,-13,11,18,-17,-1,71,48,12,18,-21,-44
-19,-6,13,12,-16,3,70,74,27,26,-16,-39
-12,4,16,4,-14,10,67,88,37,32,-5,-36
-8,11,19,-1,-14,15,64,99,36,28,2,-32
4,24,20,-14,-9,22,61,121,51,38,13,-23
40,65,25,-52,7,45,59,140,77,63,41,-15
30,63,33,-46,-2,47,55,158,85,67,51,-6
27,62,35,-45,-4,48,57,178,94,81,54,4
57,92,35,-75,11,63,59,208,114,102,71,17
58,89,31,-73,13,59,52,221,124,112,84,25
92,118,26,-106,33,72,46,228,131,126,89,39
118,141,24,-130,47,82,39,235,142,137,101,56
118,137,19,-127,49,78,32,229,135,137,112,65
139,154,16,-147,61,85,26,222,127,126,118,66
142,155,13,-149,64,84,21,216,122,119,115,54
111,119,8,-115,51,63,19,185,98,103,83,39
80,85,5,-83,37,44,16,131,65,72,52,10
53,55,2,-54,26,28,14,79,35,45,23,-22
21,18,-3,-19,12,7,10,36,12,22,-3,-42
-12,-17,-5,15,-3,-11,11,9,-2,6,-15,-55
-28,-40,-11,34,-9,-25,15,1,-20,-11,-29,-64
-28,-41,-13,35,-7,-27,15,-3,-31,-22,-35,-71
-42,-50,-8,46,-16,-29,15,-9,-30,-20,-35,-66
-38,-43,-5,41,-16,-24,15,-15,-30,-17,-31,-63
-27,-28,-2,28,-12,-15,15,-19,-30,-15,-29,-60
-32,-30,3,31,-18,-13,11,-16,-30,-11,-25,-55
-38,-32,6,35,-22,-13,10,-15,-31,-10,-25,-58
-37,-34,4,35,-20,-15,10,-14,-34,-10,-30,-60
-49,-38,11,43,-30,-13,10,-9,-35,-10,-30,-60
-69,-53,15,61,-42,-19,10,-10,-35,-10,-34,-65
-60,-53,7,56,-33,-23,10,-10,-35,-10,-35,-65
-46,-45,1,45,-23,-22,10,-10,-35,-10,-37,-65
-38,-44,-6,41,-16,-25,10,-25,-35,-12,-40,-66
-24,-37,-13,31,-5,-25,10,-31,-35,-15,-44,-64
-18,-33,-15,26,-1,-24,10,-29,-35,-20,-45,-68
-41,-56,-15,49,-13,-35,10,-34,-43,-21,-40,-68
-53,-68,-15,61,-18,-42,7,-35,-46,-20,-40,-65
-48,-63,-15,56,-16,-39,1,-35,-45,-20,-40,-65
-51,-67,-16,59,-17,-41,-3,-42,-45,-20,-40,-61
-29,-42,-13,36,-8,-27,-7,-46,-45,-21,-40,-59
-1,-20,-20,11,10,-19,-13,-43,-45,-18,-42,-61
-19,-44,-26,32,4,-35,-14,-54,-51,-29,-46,-64
-37,-62,-25,50,-6,-43,-10,-66,-60,-42,-45,-65
-36,-58,-23,47,-7,-40,-7,-64,-60,-39,-45,-65
-47,-67,-19,57,-14,-43,-4,-68,-59,-43,-45,-65
-47,-69,-21,58,-13,-45,1,-71,-56,-45,-45,-65
-51,-62,-11,56,-19,-36,-8,-70,-54,-45,-47,-65
-35,-56,-21,46,-7,-38,-17,-67,-55,-42,-46,-65
-19,-51,-32,35,7,-42,-12,-62,-55,-36,-45,-65
-22,-46,-24,34,2,-35,-10,-59,-55,-31,-44,-65
-22,-45,-23,33,1,-34,-5,-56,-55,-28,-40,-65
-22,-40,-18,31,-2,-29,-1,-50,-55,-22,-40,-65
-27,-41,-14,35,-6,-27,1,-52,-55,-21,-38,-60
-38,-59,-21,49,-9,-40,6,-54,-50,-30,-30,-55
-24,-39,-15,32,-4,-26,4,-48,-42,-25,-27,-51
-8,-1,7,5,-7,3,6,-40,-34,-17,-20,-46
-13,-10,3,11,-8,-3,3,-37,-26,-11,-15,-41
-8,6,14,1,-11,10,8,-40,-19,-2,-10,-39
33,61,27,-47,3,44,-17,-40,-13,8,6,-41
77,60,-17,-68,46,21,-66,-41,-5,17,7,-39
89,46,-43,-68,66,1,-67,-37,-15,12,-6,-40
76,39,-37,-57,56,1,-58,-47,-36,-2,-18,-40
38,-4,-43,-17,40,-23,-44,-47,-39,-11,-22,-40
-22,-60,-38,41,8,-49,-23,-57,-53,-26,-39,-58
-45,-87,-42,66,-1,-65,-11,-63,-65,-35,-65,-77
-39,-76,-37,57,-1,-56,-13,-78,-72,-50,-68,-92
-60,-91,-31,75,-14,-61,-1,-71,-84,-64,-65,-93
-61,-88,-27,75,-17,-58,-4,-63,-95,-64,-65,-89
-65,-83,-18,74,-23,-50,10,-72,-99,-71,-65,-90
-42,-111,-69,77,14,-90,22,-42,-96,-67,-77,-106
0,-132,-132,66,67,-132,-4,-69,-119,-89,-111,-136
243,-42,-285,-100,264,-163,-35,248,5,42,24,-9
372,156,-216,-264,294,-30,-231,14,24,153,162,150
-3,63,66,-30,-35,64,-323,-874,-361,-142,-76,-1
-185,-114,71,149,-128,-21,-226,-780,-518,-322,-255,-147
-107,-61,46,83,-76,-7,-131,-322,-287,-170,-152,-93
-96,-60,37,78,-66,-12,-13,-128,-137,-77,-96,-84
-76,-90,-14,83,-31,-51,25,-12,-88,-53,-75,-87
-43,-63,-20,54,-11,-41,40,2,-56,-40,-59,-81
-28,-56,-29,42,1,-42,42,28,-58,-34,-54,-81
-55,-77,-22,66,-16,-49,38,15,-56,-24,-46,-79
-41,-68,-27,55,-7,-47,39,22,-47,-18,-44,-78
-34,-57,-24,46,-5,-40,33,16,-41,-11,-35,-74
-36,-62,-26,49,-5,-43,36,14,-34,-8,-32,-76
-41,-54,-13,48,-14,-33,30,16,-29,-4,-26,-74
-41,-56,-15,49,-13,-35,29,9,-23,-1,-22,-75
-16,-51,-35,34,9,-43,25,11,-16,4,-19,-74
-23,-45,-22,34,-1,-33,22,10,-9,7,-15,-69
-27,-40,-13,33,-7,-26,21,20,-2,14,-12,-64
-31,-33,-2,32,-14,-17,17,28,4,22,-8,-60
-41,-29,12,35,-26,-8,15,37,10,27,-3,-55
-33,-22,11,27,-21,-5,15,43,18,38,4,-51
-23,-17,7,19,-15,-5,12,56,26,49,11,-45
-12,-8,4,10,-7,-2,9,66,34,52,17,-35
-4,-4,-1,4,-1,-2,10,73,42,56,24,-25
20,15,-5,-17,12,5,20,105,64,73,41,-14
54,51,-3,-53,29,23,21,129,84,94,64,-1
50,55,5,-53,22,30,13,140,91,101,71,15
47,57,10,-52,19,33,9,162,109,115,81,23
81,84,3,-82,39,43,2,179,123,130,101,34
104,98,-6,-101,55,45,-3,186,133,137,106,54
124,109,-15,-116,69,47,-8,182,138,149,119,65
148,128,-20,-138,84,54,-18,175,127,147,120,62
152,116,-36,-134,94,40,-27,171,118,138,105,54
162,105,-57,-133,109,24,-38,137,94,124,88,49
141,85,-56,-113,98,15,-46,82,59,97,56,30
70,25,-45,-48,58,-10,-41,36,26,60,21,-8
32,-2,-34,-15,33,-17,-35,0,3,29,-6,-39
18,-18,-36,0,27,-27,-30,-21,-10,20,-18,-46
2,-37,-39,18,21,-38,-24,-33,-23,13,-27,-55
-25,-57,-32,41,3,-44,-18,-33,-32,9,-38,-65
-34,-62,-28,48,-3,-45,-13,-27,-35,5,-45,-65
-30,-52,-22,41,-4,-37,-7,-23,-35,0,-45,-65
-51,-66,-15,59,-17,-40,-2,-18,-35,-4,-46,-65
-45,-65,-20,55,-12,-42,5,-14,-35,-10,-50,-64
-40,-66,-26,54,-7,-46,10,-9,-36,-11,-50,-69
-38,-63,-25,51,-7,-44,16,-5,-32,-10,-47,-70
-33,-57,-25,45,-4,-41,24,0,-30,-10,-41,-65
-27,-52,-25,40,0,-39,25,4,-30,-10,-36,-60
-22,-47,-24,35,1,-35,25,8,-27,-10,-31,-57
-15,-41,-26,29,6,-33,25,14,-24,-14,-24,-51
-13,-37,-23,26,5,-30,25,13,-26,-15,-22,-51
-37,-66,-29,52,-4,-48,24,8,-37,-15,-32,-63
-26,-62,-35,44,5,-48,20,5,-43,-15,-42,-66
-39,-69,-30,54,-4,-49,18,2,-46,-15,-45,-64
-62,-87,-26,75,-18,-56,15,-3,-50,-15,-45,-66
-52,-73,-21,63,-15,-46,11,-5,-52,-15,-51,-64
-54,-72,-17,63,-18,-44,10,-5,-56,-23,-64,-67
-49,-59,-10,55,-19,-35,14,-5,-55,-26,-73,-71
-49,-70,-22,60,-13,-46,26,-5,-55,-24,-76,-70
-44,-81,-38,63,-3,-59,32,-5,-55,-26,-75,-70
-41,-75,-34,58,-3,-54,30,-5,-55,-24,-75,-70
-38,-73,-35,56,-1,-54,30,-3,-55,-26,-75,-70
-37,-67,-30,52,-3,-49,30,2,-53,-29,-73,-68
-37,-66,-30,52,-3,-48,30,5,-50,-30,-70,-65
-30,-61,-31,46,1,-45,30,8,-50,-30,-68,-64
-55,-84,-29,69,-12,-56,34,13,-50,-30,-78,-73
-64,-95,-31,80,-16,-63,35,16,-50,-30,-86,-82
-33,-62,-29,47,-2,-45,35,20,-50,-28,-85,-77
-11,-42,-31,27,10,-36,34,20,-46,-21,-83,-75
-38,-65,-28,51,-5,-46,30,21,-44,-14,-79,-71
-46,-79,-34,63,-6,-56,31,26,-40,-8,-81,-70
-21,-60,-39,41,9,-49,28,24,-37,0,-72,-66
-30,-48,-18,39,-6,-33,25,29,-33,3,-54,-54
-26,-33,-7,30,-9,-20,25,35,-26,-3,-49,-48
-21,-19,2,20,-12,-8,26,37,-19,8,-46,-41
-19,-6,13,12,-16,3,1,50,-6,35,-44,-40
16,10,-6,-13,11,2,-41,48,-2,45,-46,-40
58,21,-38,-39,48,-8,-42,47,-19,36,-44,-40
88,33,-55,-60,72,-11,-34,32,-33,33,-46,-40
67,3,-65,-35,66,-30,-18,18,-26,18,-43,-38
0,-59,-60,30,30,-59,3,2,-39,-11,-50,-49
-49,-100,-51,75,1,-75,11,-10,-65,-33,-78,-77
-49,-101,-52,75,2,-76,14,-11,-74,-45,-90,-90
-57,-92,-35,75,-11,-64,23,-33,-77,-46,-91,-87
-65,-114,-50,89,-7,-82,33,-22,-72,-42,-89,-85
-82,-128,-46,105,-17,-87,32,-47,-79,-49,-91,-84
-60,-125,-65,92,3,-95,41,-7,-70,-41,-92,-97
-27,-148,-120,88,47,-134,14,-65,-107,-74,-119,-120
137,-127,-265,-5,201,-196,-3,132,-55,-18,-62,-76
394,71,-323,-232,358,-125,-149,219,60,147,109,96
117,109,-7,-113,62,51,-299,-645,-193,-19,3,82
-191,-106,86,148,-138,-10,-230,-923,-463,-265,-218,-116
-136,-122,14,129,-75,-54,-165,-469,-338,-200,-179,-119
-109,-77,32,93,-70,-22,-70,-214,-157,-94,-104,-85
-56,-89,-33,73,-11,-61,-1,-55,-85,-46,-82,-92
-49,-76,-27,63,-11,-52,17,-36,-51,-19,-69,-80
-50,-80,-30,65,-10,-55,40,-10,-42,-14,-66,-84
-42,-73,-31,58,-5,-52,33,-1,-41,-10,-56,-74
-46,-74,-28,60,-9,-51,42,6,-36,-7,-53,-75
-36,-68,-32,52,-2,-50,39,15,-32,-2,-42,-69
-42,-65,-23,54,-9,-44,40,14,-30,0,-44,-66
-36,-62,-27,50,-4,-44,41,27,-24,6,-50,-63
-33,-56,-24,45,-4,-40,39,26,-18,12,-42,-58
-30,-55,-26,43,-1,-40,41,38,-13,16,-36,-56
-25,-50,-25,38,0,-37,48,52,-7,23,-29,-51
-24,-47,-23,36,0,-34,51,63,-3,27,-22,-46
-25,-43,-18,34,-3,-30,46,62,4,33,-18,-41
-25,-39,-15,33,-5,-27,45,70,11,39,-13,-38
-24,-36,-12,30,-6,-23,40,85,18,40,-10,-32
-25,-32,-7,29,-9,-19,40,100,24,40,-6,-28
-25,-29,-4,28,-10,-16,45,115,31,42,-3,-23
-23,-23,0,23,-11,-12,45,130,47,57,1,-17
-16,-16,0,16,-8,-8,43,149,58,71,10,-12
13,14,0,-14,7,7,38,164,70,80,31,-3
31,31,0,-31,15,15,35,195,88,102,45,7
47,47,0,-47,23,24,32,212,96,112,54,24
69,66,-3,-67,35,32,27,218,110,118,67,35
85,68,-17,-76,51,25,24,232,116,132,71,37
127,103,-24,-115,75,39,16,234,122,130,90,55
141,110,-31,-125,86,39,3,230,119,120,96,55
148,101,-47,-124,98,27,-8,220,107,112,79,40
147,86,-61,-116,104,12,-17,200,94,103,72,31
111,47,-65,-79,88,-9,-28,159,60,93,57,14
79,20,-59,-49,69,-20,-21,110,38,70,38,-8
55,0,-55,-27,55,-27,-7,70,25,48,17,-25
45,-6,-51,-19,49,-28,-4,31,13,38,1,-38
3,-40,-42,19,23,-41,0,4,9,26,-4,-56
-44,-67,-23,56,-10,-45,3,-3,5,14,-8,-65
-50,-63,-13,57,-18,-38,8,-6,2,10,-13,-65
-54,-66,-12,60,-21,-38,11,-12,-3,9,-17,-65
-58,-64,-7,61,-25,-35,15,-14,-5,18,-22,-65
-61,-65,-4,64,-28,-35,20,-11,-13,27,-25,-65
-65,-64,1,65,-33,-31,20,-10,-18,25,-24,-66
-53,-58,-5,56,-24,-31,20,-10,-13,25,-29,-71
-40,-55,-14,48,-13,-34,20,-11,-10,20,-36,-69
-49,-48,1,49,-25,-24,20,-9,-7,20,-35,-64
-40,-47,-7,43,-16,-26,18,-14,-2,19,-34,-63
-11,-38,-27,25,8,-32,14,-12,0,15,-30,-56
-22,-46,-24,35,1,-35,16,-11,-9,13,-29,-57
-31,-55,-24,43,-3,-39,11,-20,-23,10,-33,-65
-19,-40,-20,29,1,-30,10,-18,-25,7,-35,-66
-46,-65,-19,55,-13,-42,10,-31,-25,4,-35,-64
-40,-62,-22,51,-9,-42,0,-40,-28,5,-35,-61
-20,-36,-16,28,-2,-26,-1,-41,-31,5,-35,-59
-44,-66,-22,56,-11,-44,1,-48,-29,6,-35,-60
-46,-81,-35,63,-5,-57,0,-49,-25,3,-30,-60
-43,-71,-28,57,-7,-49,0,-51,-25,0,-30,-60
-47,-67,-20,57,-13,-43,0,-49,-25,0,-29,-60
-45,-61,-16,53,-15,-38,-3,-55,-25,0,-24,-60
-51,-57,-6,54,-22,-31,-5,-57,-25,0,-26,-68
-45,-54,-9,50,-18,-31,0,-54,-25,0,-24,-71
-35,-56,-21,46,-7,-38,0,-55,-25,5,-27,-66
-43,-64,-21,54,-11,-42,-3,-55,-25,5,-35,-64
-46,-66,-20,56,-13,-42,-5,-55,-33,5,-35,-60
-44,-63,-19,54,-12,-41,-8,-54,-36,3,-34,-60
-34,-63,-29,49,-2,-46,-11,-48,-35,-1,-30,-60
-20,-55,-35,38,7,-45,-14,-41,-32,1,-30,-60
-46,-76,-30,61,-8,-53,-15,-34,-30,-5,-29,-59
-71,-95,-24,83,-23,-60,-10,-27,-30,2,-23,-63
-35,-56,-22,45,-6,-38,-8,-22,-19,17,-17,-72
15,3,-12,-9,13,-5,-4,-15,-4,30,-11,-63
3,8,5,-6,-1,7,0,-15,7,35,-5,-47
-5,-10,-5,7,0,-7,-5,-15,18,36,6,-41
26,32,7,-29,9,20,-31,-10,27,57,17,-39
45,54,10,-50,17,32,-64,-11,21,59,30,-40
67,36,-31,-51,49,2,-67,-9,9,48,31,-40
69,29,-40,-49,54,-6,-55,-36,-2,41,19,-40
33,-3,-35,-15,34,-19,-42,-42,-14,31,10,-43
-23,-53,-30,38,4,-42,-23,-51,-30,13,-15,-62
-59,-85,-26,72,-16,-55,-11,-60,-47,-2,-36,-84
-62,-84,-23,73,-19,-53,-7,-61,-49,-4,-42,-90
-69,-86,-17,78,-25,-51,2,-72,-53,-11,-50,-95
-60,-83,-24,71,-17,-53,7,-52,-57,-12,-49,-100
-58,-88,-30,73,-14,-59,14,-75,-56,-21,-52,-102
-29,-95,-66,63,18,-80,11,-33,-39,-19,-48,-96
12,-97,-109,43,60,-102,-19,-84,-80,-44,-70,-115
211,-69,-280,-71,245,-174,-29,165,-10,22,-4,-59
381,121,-260,-251,320,-69,-166,152,84,179,162,111
66,124,58,-95,4,91,-299,-741,-199,-5,33,57
-182,-101,81,142,-132,-10,-263,-893,-425,-245,-194,-126
-134,-105,29,119,-81,-38,-180,-450,-288,-161,-150,-114
-103,-61,42,82,-72,-9,-53,-213,-122,-53,-74,-74
-79,-70,9,74,-44,-30,10,-66,-54,-18,-48,-75
-55,-46,9,51,-32,-18,17,-51,-29,-4,-33,-64
-25,-45,-20,35,-2,-32,25,-13,-13,6,-31,-61
-28,-48,-20,38,-4,-34,34,-13,-9,16,-21,-52
-31,-46,-15,39,-8,-30,46,-4,-4,31,-16,-50
-25,-37,-11,31,-7,-24,42,4,3,37,-10,-47
-26,-31,-5,29,-10,-18,42,7,7,34,-8,-44
-22,-24,-2,23,-10,-13,37,16,13,36,-6,-41
-19,-19,-1,19,-9,-10,35,20,18,35,-2,-39
-13,-21,-8,17,-2,-14,32,33,25,35,-1,-37
-10,-19,-9,15,-1,-14,29,27,30,34,4,-33
-15,-21,-6,18,-4,-13,37,37,35,41,22,-31
-18,-19,-1,19,-8,-10,41,63,40,46,30,-27
-23,-21,1,22,-12,-10,40,73,40,49,32,-26
-19,-13,6,16,-12,-3,40,74,42,58,33,-21
-11,-2,9,7,-10,3,40,83,49,65,43,-7
-2,13,15,-6,-9,14,40,102,59,73,66,7
27,50,23,-39,2,36,37,121,78,86,65,17
38,55,16,-47,11,35,32,133,92,103,66,25
34,45,11,-40,11,27,30,154,93,103,78,30
51,58,6,-55,22,32,25,180,101,111,83,40
86,85,-1,-85,43,42,21,199,112,132,95,56
100,96,-4,-97,51,46,19,204,117,141,110,68
128,111,-17,-119,72,47,10,213,124,139,114,80
162,136,-26,-148,94,55,1,225,121,140,115,79
150,125,-25,-137,87,50,-7,213,111,142,121,74
160,114,-47,-137,103,33,-17,207,103,133,115,70
164,103,-60,-133,112,21,-25,189,93,121,98,66
131,82,-50,-106,90,16,-23,139,79,104,79,54
94,54,-40,-73,67,6,-15,94,57,77,57,28
53,23,-30,-38,41,-3,-9,56,29,49,40,8
29,6,-22,-17,25,-8,-3,14,11,31,26,-6
19,1,-18,-10,18,-8,4,-7,9,26,23,-20
9,-3,-12,-2,11,-7,5,-11,6,21,26,-35
-1,-8,-6,5,3,-7,5,-17,4,18,24,-33
-11,-12,-1,12,-5,-6,4,-23,-1,12,25,-29
-20,-16,4,18,-11,-6,7,-23,2,10,24,-31
-18,-13,5,15,-11,-4,17,-18,12,27,26,-26
-34,-27,7,30,-20,-10,15,-15,11,36,30,-24
-47,-36,11,41,-29,-12,15,-12,7,34,30,-26
-33,-25,8,29,-21,-8,15,-7,4,38,30,-29
-27,-24,3,25,-15,-10,14,-5,9,40,30,-33
-3,-6,-3,5,0,-4,20,-11,14,40,30,-35
-2,-10,-8,6,3,-8,20,-18,9,37,27,-34
-31,-45,-14,38,-8,-29,15,-23,6,31,21,-41
-25,-45,-20,35,-3,-32,13,-25,3,26,17,-46
-22,-38,-16,30,-3,-26,8,-25,-2,23,12,-45
-23,-36,-13,30,-5,-24,5,-24,-5,17,8,-43
-24,-29,-5,26,-9,-16,6,-35,-9,15,3,-40
-14,-27,-13,21,0,-20,3,-41,-13,15,0,-40
4,-26,-30,11,17,-28,10,-39,-18,15,0,-45
-19,-41,-22,30,2,-32,21,-41,-19,15,0,-54
-32,-48,-15,40,-8,-32,20,-39,-15,15,0,-55
-27,-37,-10,32,-9,-23,18,-46,-12,15,3,-55
-22,-25,-2,24,-10,-13,15,-52,-10,11,6,-55
-17,-12,6,14,-11,-3,15,-47,-7,10,5,-55
-40,-35,5,38,-22,-15,13,-45,-3,10,5,-54
-43,-52,-9,48,-16,-30,9,-41,-13,5,5,-49
-20,-40,-20,30,0,-30,7,-39,-17,5,3,-50
-17,-39,-22,28,3,-30,4,-51,-15,4,8,-48
-14,-30,-16,23,1,-23,0,-56,-15,-1,11,-44
-15,-26,-11,21,-2,-18,0,-54,-16,-4,5,-46
-25,-33,-8,29,-8,-20,5,-56,-28,-8,3,-40
-29,-30,-1,30,-13,-15,12,-54,-25,-11,-2,-43
-18,-21,-3,20,-7,-12,16,-55,-16,-16,-6,-48
9,0,-9,-4,9,-5,22,-38,-12,-7,2,-37
20,23,3,-21,8,13,29,-21,-3,6,17,-24
16,35,19,-26,-2,27,27,-27,0,24,30,-9
7,44,38,-26,-16,41,23,-23,7,49,50,11
33,72,39,-53,-3,55,-11,-27,11,49,60,18
100,110,9,-105,45,59,-43,-23,19,55,55,28
84,83,-2,-83,42,40,-68,-28,18,49,49,34
31,26,-5,-28,18,11,-66,-47,7,21,43,3
1,7,6,-4,-3,6,-26,-28,-1,7,39,-11
-38,-29,8,33,-22,-10,-9,-59,-30,-8,14,-24
-25,-57,-33,41,4,-45,5,-62,-46,-16,-5,-56
-29,-56,-27,42,0,-42,6,-75,-54,-32,-16,-60
-33,-58,-24,46,-4,-41,20,-73,-53,-35,-20,-65
-29,-51,-22,40,-3,-36,14,-75,-58,-36,-21,-65
-48,-67,-19,58,-15,-42,23,-78,-58,-34,-23,-67
-18,-87,-70,53,26,-78,3,-67,-63,-42,-33,-78
30,-108,-138,39,84,-123,-24,-62,-83,-58,-45,-67
307,17,-290,-161,298,-136,-32,284,66,107,123,65
349,234,-114,-291,231,60,-214,-107,57,190,236,209
-88,93,181,-3,-134,136,-281,-919,-307,-109,-16,63
-196,-78,118,137,-157,19,-200,-721,-425,-265,-170,-100
-82,-11,71,46,-76,30,-114,-333,-224,-126,-81,-57
-51,-35,16,43,-34,-9,-7,-129,-89,-46,-26,-50
-45,-60,-15,53,-15,-37,20,-32,-42,-17,-3,-61
-45,-51,-6,49,-19,-28,44,-18,-18,-6,2,-54
-26,-59,-33,43,4,-46,51,12,-19,-5,5,-51
-26,-45,-19,36,-4,-32,49,2,-13,3,13,-42
-18,-32,-13,25,-2,-22,51,20,-3,4,17,-40
-18,-23,-5,21,-6,-14,56,20,2,21,23,-34
-17,-22,-4,20,-6,-13,68,29,8,27,28,-36
-12,-17,-5,15,-3,-11,63,37,12,24,30,-32
2,-13,-15,6,9,-14,66,48,20,26,32,-30
7,-11,-18,2,13,-14,65,54,23,23,39,-30
-2,-6,-4,4,1,-5,65,57,27,29,42,-27
-11,-5,6,8,-8,0,74,78,44,46,53,-24
1,1,-1,-1,1,0,75,82,52,51,56,-21
-10,-4,6,7,-8,1,75,87,54,50,54,-18
-30,-13,17,21,-23,2,71,103,59,49,56,-16
-2,10,12,-4,-7,10,70,112,66,59,61,-14
-1,5,6,-2,-4,5,70,130,75,71,66,-6
18,26,8,-23,5,16,65,152,95,82,84,3
27,55,28,-41,-1,41,65,163,103,93,96,13
27,57,29,-42,-1,43,64,186,106,94,96,18
68,88,20,-78,24,54,59,211,118,102,108,35
55,71,16,-63,19,44,61,216,121,106,110,45
89,93,5,-91,42,48,57,230,129,119,124,53
134,133,-1,-133,67,66,47,237,129,125,137,61
130,116,-13,-123,71,51,38,233,120,115,126,60
160,126,-33,-143,96,46,27,242,115,110,122,71
182,147,-36,-164,108,55,24,229,106,100,113,66
164,134,-30,-149,97,52,25,190,102,95,108,52
110,81,-28,-95,68,26,24,142,88,83,98,21
68,45,-23,-56,45,11,26,96,58,50,65,-15
48,28,-20,-38,34,4,23,57,39,30,47,-36
40,24,-16,-31,28,3,34,28,22,20,40,-47
28,14,-15,-20,21,-1,46,21,11,7,32,-47
4,-11,-15,4,10,-13,45,16,10,-2,23,-51
9,-6,-15,-1,12,-10,45,11,6,-7,15,-54
-7,-23,-15,16,4,-19,45,4,4,-12,6,-55
-20,-34,-14,27,-3,-23,45,1,-1,-15,-12,-53
-14,-23,-9,19,-2,-16,44,16,1,-8,-15,-48
-24,-28,-3,26,-10,-15,54,21,15,-1,-9,-45
-15,-14,0,14,-7,-7,61,19,16,6,-2,-42
-26,-21,5,23,-15,-7,60,21,12,8,-4,-37
-37,-28,9,32,-23,-9,58,20,10,3,-19,-35
-27,-12,15,19,-21,2,54,20,6,0,-20,-42
-26,-11,15,18,-20,2,55,14,5,-3,-20,-50
-20,-9,10,14,-15,0,52,7,2,-8,-21,-49
-29,-21,8,24,-18,-6,46,1,-4,-10,-20,-52
-32,-29,3,30,-17,-13,41,-6,-9,-16,-21,-55
-23,-22,1,23,-12,-10,38,-12,-12,-23,-25,-55
-23,-31,-8,27,-7,-19,31,-18,-18,-25,-30,-53
-28,-40,-12,34,-8,-25,35,-20,-19,-25,-30,-50
-28,-33,-5,31,-11,-19,46,-20,-15,-25,-31,-50
-30,-29,1,30,-16,-14,45,-23,-15,-25,-35,-46
-26,-22,4,24,-15,-9,45,-25,-15,-25,-35,-45
-17,-18,-1,17,-8,-9,45,-25,-15,-25,-35,-45
-17,-12,5,14,-11,-3,44,-25,-15,-20,-35,-40
-2,-8,-6,5,3,-7,48,-25,-12,-20,-35,-40
-10,-28,-18,20,5,-23,50,-24,-8,-18,-35,-39
-10,-22,-12,17,1,-17,50,-29,-14,-15,-36,-34
-3,-14,-11,9,4,-12,54,-31,-26,-15,-34,-36
-36,-41,-5,39,-15,-23,55,-30,-25,-16,-30,-34
-32,-40,-8,36,-12,-24,55,-29,-20,-20,-34,-37
-16,-32,-16,24,0,-23,59,-25,-19,-15,-30,-45
-16,-22,-6,19,-5,-14,61,-24,-15,-7,-21,-39
-14,-17,-3,16,-5,-10,59,-23,-14,-1,-17,-34
-18,-6,12,12,-15,3,64,-18,-3,7,-8,-24
-20,1,21,9,-20,11,66,-18,11,11,-4,-16
-6,16,22,-5,-14,19,48,-13,16,23,5,5
30,83,53,-57,-12,68,18,-12,39,47,27,43
41,87,46,-64,-2,66,-17,-9,45,48,31,34
52,78,26,-65,13,52,-28,-5,25,40,6,12
46,71,25,-59,10,48,-8,-39,11,36,-11,-2
10,24,14,-17,-2,19,11,-37,-1,14,-8,-14
-31,-31,0,31,-15,-15,19,-45,-24,-18,-30,-34
-48,-72,-24,60,-12,-47,37,-44,-35,-37,-56,-64
-44,-62,-18,53,-13,-39,47,-56,-36,-41,-60,-71
-44,-59,-15,52,-14,-37,52,-62,-34,-40,-61,-70
-44,-49,-6,47,-18,-28,54,-56,-35,-39,-59,-69
-57,-71,-14,65,-21,-42,59,-59,-36,-43,-62,-71
-45,-99,-55,72,5,-77,48,-28,-50,-57,-77,-78
4,-110,-114,53,60,-112,41,-46,-79,-65,-80,-80
284,31,-253,-157,269,-111,19,298,106,128,106,89
335,268,-67,-302,201,101,-194,-4,130,243,238,270
-56,133,189,-39,-123,161,-286,-881,-306,-95,-34,83
-157,-75,82,116,-119,3,-183,-729,-462,-280,-211,-109
-104,-63,40,83,-72,-11,-91,-311,-239,-146,-124,-69
-93,-58,35,75,-64,-11,25,-127,-91,-71,-84,-42
-45,-52,-7,48,-18,-29,56,-27,-47,-13,-64,-36
-46,-57,-12,52,-17,-34,71,-15,-34,3,-51,-31
-48,-61,-13,54,-17,-37,78,8,-20,-14,-41,-29
-23,-28,-5,26,-9,-16,72,-4,-12,-9,-33,-21
-20,-20,1,20,-10,-9,78,15,-6,-7,-32,-21
-52,-35,17,43,-35,-9,72,15,1,-2,-26,-18
-43,-29,14,36,-28,-7,78,27,7,1,-24,-22
-32,-23,9,28,-20,-7,79,45,15,5,-19,-29
-27,-18,8,22,-17,-5,80,55,18,9,-17,-23
-12,-12,0,12,-6,-6,80,60,27,18,-14,-16
-10,-8,2,9,-5,-3,80,63,34,26,-11,-9
-13,0,13,6,-13,6,80,67,38,34,-8,-3
-4,5,9,-1,-7,7,81,75,48,41,-5,4
4,14,10,-9,-3,12,85,82,50,38,-4,15
-1,17,17,-8,-9,17,90,96,71,59,11,29
0,29,29,-14,-15,28,86,121,88,78,34,34
4,45,42,-25,-20,43,85,135,88,77,40,44
6,46,39,-26,-17,42,85,147,96,82,44,57
3,44,40,-23,-19,41,80,168,105,90,60,65
15,55,40,-35,-13,47,81,191,122,107,74,79
39,79,40,-59,-1,59,78,212,144,128,87,81
71,107,36,-89,17,71,84,232,156,135,99,102
102,128,26,-116,38,77,86,245,163,144,108,119
119,142,22,-131,48,82,75,253,179,168,129,121
149,161,12,-155,69,86,62,248,184,171,141,142
151,158,7,-155,72,82,45,241,172,156,136,143
145,141,-3,-143,74,69,39,233,158,147,130,134
172,144,-28,-158,100,58,41,203,138,133,114,120
138,111,-27,-125,82,42,39,153,106,105,83,93
71,58,-14,-64,42,22,40,99,65,73,47,55
38,31,-7,-34,22,12,40,60,36,53,21,33
12,8,-4,-9,8,2,36,29,23,42,5,33
-9,-15,-6,13,-2,-10,35,14,20,38,-3,28
-3,-8,-4,6,1,-6,35,15,17,32,-4,25
1,-4,-6,2,4,-5,35,15,14,26,-5,21
-19,-23,-3,21,-8,-13,34,15,10,22,-5,17
-21,-21,0,21,-10,-11,37,15,11,16,-5,15
-16,-14,2,15,-9,-5,41,15,20,15,-5,15
-16,-11,5,13,-10,-2,40,15,20,14,-4,11
-10,-2,9,6,-9,3,40,15,20,11,-8,9
-14,-4,10,9,-12,3,40,15,17,9,-10,11
-25,-19,7,22,-16,-6,40,15,14,12,-10,3
-26,-22,4,24,-15,-8,39,15,15,22,-14,16
-22,-18,4,19,-13,-7,34,12,10,20,-16,26
-21,-24,-3,22,-9,-13,31,7,6,15,-14,17
-8,-2,6,5,-7,2,28,5,4,13,-11,15
-12,13,25,-1,-19,19,23,0,-1,8,-10,10
-24,-1,23,13,-24,11,20,-3,-4,5,-10,5
-37,-19,18,28,-27,0,20,-7,-8,5,-10,8
-48,-32,16,39,-32,-7,20,-10,-10,5,-10,14
-40,-29,11,34,-25,-9,20,-10,-10,5,-12,17
-41,-30,11,36,-26,-10,21,-14,-15,4,-23,23
-43,-23,20,32,-31,-1,21,-15,-14,6,-25,24
-54,-29,26,41,-39,-1,20,-16,-19,3,-25,19
-37,-12,25,24,-31,6,20,-13,-31,4,-25,21
-13,13,25,0,-19,19,20,-18,-26,9,-26,18
-60,-36,25,48,-42,-5,20,-41,-23,0,-36,14
-79,-53,26,65,-52,-13,22,-40,-20,-2,-33,16
-64,-41,23,52,-43,-9,25,-35,-15,1,-29,11
-61,-40,20,51,-40,-10,25,-34,-17,0,-26,10
-47,-30,18,38,-32,-6,25,-30,-20,5,-21,10
-44,-29,15,36,-29,-7,25,-29,-20,5,-19,5
-19,-7,12,12,-15,3,25,-23,-20,4,-13,5
-20,-11,9,15,-14,-1,25,-17,-20,-1,-8,3
-52,-38,15,45,-33,-11,25,-11,-12,-5,-1,0
-36,-21,15,28,-25,-3,25,-6,-3,5,3,4
-14,14,28,0,-21,21,25,0,9,30,11,15
-2,43,45,-21,-24,44,27,8,20,42,17,21
-2,52,54,-25,-28,52,8,15,34,49,30,34
25,80,55,-53,-15,67,-35,15,43,59,45,58
59,88,28,-74,15,58,-51,15,31,53,42,59
47,69,22,-58,12,45,-48,12,20,44,37,52
38,67,29,-53,4,47,-43,-2,7,36,33,51
8,25,18,-17,-5,21,-20,-8,-3,29,28,33
-30,-12,18,21,-24,3,-1,-38,-23,2,-1,14
-41,-36,4,38,-22,-16,6,-40,-39,-12,-25,5
-56,-53,3,54,-30,-24,8,-57,-41,-10,-30,2
-53,-60,-7,57,-23,-33,18,-45,-40,-8,-36,-6
-48,-60,-12,54,-18,-36,19,-47,-45,-4,-35,-8
-53,-57,-3,55,-25,-30,27,-45,-45,-7,-35,-18
-29,-74,-45,52,9,-59,7,-31,-46,-21,-40,-34
45,-76,-121,16,83,-99,-20,-32,-59,-39,-45,-32
308,41,-267,-174,288,-113,-60,294,85,126,122,112
320,215,-105,-268,213,55,-249,-134,39,165,211,232
-80,54,133,13,-107,94,-314,-951,-376,-168,-69,44
-169,-96,73,132,-121,-12,-223,-701,-442,-266,-184,-71
-63,11,74,26,-69,43,-118,-296,-198,-109,-78,0
-67,-33,34,50,-50,0,-13,-123,-87,-39,-48,3
-41,-39,2,40,-21,-19,2,-30,-38,-7,-23,8
-38,-3,35,20,-36,16,14,-16,-9,1,-14,18
-61,-31,29,46,-45,-1,25,5,-1,8,-2,20
-47,-17,30,32,-39,6,28,1,4,22,18,21
-41,-21,20,31,-30,-1,35,19,9,26,24,19
-26,-8,18,17,-22,5,43,21,16,25,26,21
14,23,9,-19,2,16,47,37,19,25,25,19
-18,4,21,7,-20,12,43,42,21,25,24,23
-45,-11,33,28,-39,11,46,46,18,24,28,26
-40,-14,26,27,-33,6,44,53,29,28,29,24
-19,5,25,6,-22,15,48,70,46,36,32,26
12,33,21,-22,-5,26,51,76,51,47,33,37
-25,-10,15,17,-20,3,50,71,53,53,34,41
-29,-11,18,19,-24,4,50,98,64,56,56,41
-1,31,32,-15,-17,31,50,112,77,62,70,47
-3,37,40,-17,-22,39,50,121,78,69,67,43
1,41,40,-21,-19,40,51,138,87,76,66,46
15,55,40,-35,-13,47,60,160,100,82,85,53
15,55,40,-35,-13,47,57,175,109,93,93,56
29,69,40,-49,-6,55,51,198,130,110,107,88
62,101,39,-81,11,70,48,228,134,129,136,102
81,111,30,-96,25,70,42,243,147,138,141,107
104,125,21,-115,42,73,39,261,163,146,143,124
136,148,13,-142,61,81,30,273,169,160,159,133
150,153,3,-152,74,77,21,274,172,162,163,140
147,142,-5,-144,76,69,12,272,159,153,153,131
154,141,-14,-147,84,63,3,252,152,149,149,127
138,119,-19,-128,78,50,-7,208,130,130,133,114
117,105,-12,-111,65,46,-18,161,93,90,107,87
78,72,-6,-75,42,33,-15,108,55,53,73,50
24,25,1,-25,11,13,-10,58,30,30,50,25
9,16,7,-13,0,12,-8,31,27,25,47,22
-2,5,7,-2,-5,6,-3,17,21,20,41,16
7,9,1,-8,3,5,0,14,18,14,38,13
-24,-22,2,23,-13,-10,4,12,12,9,32,8
-65,-42,22,53,-43,-10,5,8,9,4,30,3
-37,-6,31,22,-34,12,5,6,10,-1,30,0
-16,9,25,3,-21,17,5,3,10,-5,30,0
-32,-7,25,19,-29,9,4,-2,10,-2,30,0
-58,-33,25,45,-41,-4,6,-3,10,1,30,-1
-62,-36,25,48,-43,-5,10,4,10,4,30,4
-55,-30,25,42,-40,-3,6,4,7,7,26,4
-57,-31,26,43,-42,-2,4,-1,4,10,25,0
-41,-11,30,26,-36,10,5,-4,1,9,25,0
-9,20,29,-5,-19,24,5,-8,-2,2,20,0
-15,20,35,-2,-26,27,6,-11,-5,-2,20,0
-34,3,37,15,-36,20,4,-16,-6,-8,20,0
-22,12,34,5,-29,23,0,-14,-12,-14,20,-4
-14,21,35,-4,-25,27,0,-19,-20,-19,20,-5
-19,11,30,4,-25,20,0,-30,-15,-24,20,-7
-28,2,30,13,-29,16,0,-31,-19,-25,20,-11
-35,-5,30,20,-32,12,0,-29,-32,-27,20,-9
-45,-15,30,30,-37,7,-3,-34,-28,-31,16,-5
-35,-5,30,20,-33,13,-8,-41,-25,-28,14,-1
-18,11,30,4,-24,20,-9,-40,-23,-25,15,2
-26,5,30,10,-28,17,-5,-39,-19,-25,15,7
-29,0,30,14,-30,15,-6,-37,-23,-25,15,10
-30,-4,27,17,-28,12,-2,-34,-25,-25,14,7
-33,-8,24,20,-28,8,0,-36,-26,-25,9,2
-42,-16,26,29,-34,4,0,-44,-38,-29,6,-1
-44,-19,25,31,-34,3,4,-45,-41,-30,2,-4
-37,-12,25,24,-31,7,6,-45,-40,-30,-1,-9
-33,-8,25,20,-29,8,5,-45,-40,-30,-6,-9
-25,-1,24,13,-25,11,5,-45,-40,-30,0,-3
-31,3,34,13,-33,19,5,-44,-39,-29,10,4
-21,12,33,4,-28,22,4,-35,-25,-21,20,10
-14,27,41,-7,-28,34,-4,-27,-11,-14,34,19
-22,40,62,-9,-42,51,-15,-19,-1,-8,35,21
10,73,62,-42,-26,67,-19,-10,5,0,49,39
47,103,56,-75,-5,79,-51,-11,11,8,60,56
52,90,37,-71,7,63,-78,-11,14,14,49,48
51,75,24,-64,14,49,-83,-35,-8,-1,46,44
9,45,36,-27,-14,40,-64,-56,-26,-19,34,34
-29,11,40,9,-35,26,-30,-54,-29,-34,12,8
-46,-5,41,25,-44,18,-24,-67,-43,-50,-1,-8
-85,-47,38,66,-61,-4,-25,-63,-61,-64,-5,-13
-97,-54,43,76,-69,-6,-27,-79,-77,-81,-9,-22
-62,-25,37,43,-50,6,-22,-55,-72,-79,-15,-27
-71,-38,33,54,-52,-2,-30,-83,-78,-85,-16,-32
-81,-71,10,76,-45,-30,-13,-64,-72,-83,-25,-33
-49,-82,-33,66,-7,-57,-23,-71,-83,-93,-40,-47
45,-81,-126,18,86,-104,-30,-20,-84,-87,-18,-42
339,93,-246,-216,292,-76,-93,272,59,83,145,118
253,233,-21,-243,137,106,-281,-340,-57,68,165,184
-166,27,193,69,-180,110,-299,-996,-408,-252,-107,-16
-201,-76,125,138,-163,25,-224,-645,-408,-304,-167,-86
-105,-3,103,54,-104,50,-123,-304,-201,-145,-64,-21
-76,-15,60,45,-68,22,-28,-110,-87,-91,-34,-16
-64,-17,47,41,-55,15,-13,-41,-50,-66,-11,-10
-60,-7,53,34,-57,23,9,-25,-41,-55,-12,-8
-52,-6,47,29,-49,20,7,-4,-32,-50,-5,-4
-39,15,53,12,-46,34,12,-13,-24,-45,-1,1
-31,16,47,7,-39,31,16,4,-17,-42,3,2
-53,2,54,25,-54,28,18,1,-12,-36,9,7
-37,17,54,9,-46,35,27,12,-8,-33,15,8
-35,21,55,6,-45,38,30,16,-1,-28,14,12
-45,13,58,16,-52,35,31,25,3,-25,19,14
-50,11,61,19,-55,36,27,34,10,-22,36,19
-41,18,59,11,-50,39,25,40,15,-17,34,20
-17,39,55,-11,-36,47,25,48,20,-15,39,20
-14,41,55,-14,-35,48,25,54,26,-9,40,21
-15,39,54,-13,-34,46,25,62,31,-3,41,27
-22,41,64,-10,-43,52,26,75,36,4,54,35
-32,38,70,-3,-51,53,22,87,33,11,54,32
-14,48,61,-17,-38,54,32,106,51,17,65,42
15,73,58,-45,-22,65,41,130,71,27,85,58
25,76,51,-50,-13,63,43,149,78,47,92,64
33,79,46,-56,-7,62,47,166,90,59,96,81
42,95,53,-69,-6,74,33,184,94,62,111,89
71,122,52,-97,9,87,22,202,108,77,122,93
105,148,43,-127,31,96,17,211,115,82,126,102
114,152,38,-133,38,95,10,218,116,89,134,113
144,174,30,-159,57,102,5,227,125,99,150,131
154,179,25,-167,64,102,-3,225,115,90,154,136
145,163,17,-154,64,90,-12,196,102,85,133,124
124,139,14,-132,55,76,-23,154,81,64,109,108
87,92,5,-89,41,48,-28,110,47,29,82,76
50,62,12,-56,18,37,-22,62,22,7,55,45
18,49,31,-34,-7,40,-17,19,6,-10,32,24
21,43,22,-32,-1,32,-14,-2,-1,-20,18,16
5,40,35,-23,-15,37,-8,-3,-7,-30,14,12
-16,31,48,-8,-32,39,-5,-10,-14,-38,8,6
-15,29,43,-8,-29,36,3,-12,-21,-33,3,0
-25,21,46,2,-36,33,7,-21,-24,-26,-3,-4
-35,9,45,13,-40,27,5,-31,-20,-19,-3,0
-31,14,45,8,-38,29,5,-26,-20,-12,1,0
-33,17,50,8,-42,33,0,-24,-20,-6,-1,1
-41,15,56,13,-49,35,0,-20,-20,-9,4,5
-44,11,55,16,-50,33,0,-15,-21,-11,5,5
-38,17,55,10,-46,36,0,-18,-16,-9,5,3
-34,22,55,6,-45,38,-1,-20,-15,-6,11,-1
-35,16,51,10,-44,33,3,-24,-14,-4,10,0
-35,15,50,10,-43,32,5,-25,-11,-11,10,-4
-40,10,49,15,-45,30,6,-30,-10,-25,10,-5
-35,11,46,12,-40,28,19,-30,-11,-31,10,-5
-47,-3,44,24,-46,21,18,-29,-25,-29,10,-10
-58,-13,45,35,-52,16,10,-46,-30,-35,5,-14
-43,2,44,20,-44,23,7,-52,-30,-44,1,-15
-34,11,46,11,-40,28,-1,-49,-29,-45,-1,-15
-33,12,44,10,-39,28,-4,-52,-33,-45,-6,-15
-38,8,46,15,-42,26,-1,-57,-45,-45,-10,-15
-52,6,58,23,-55,31,-4,-61,-45,-45,-10,-15
-59,2,61,29,-60,31,-5,-59,-45,-46,-10,-14
-58,1,59,29,-59,30,-5,-60,-45,-52,-10,-10
-65,-4,61,35,-63,28,-5,-60,-45,-59,-10,-10
-58,2,60,28,-59,30,-5,-61,-43,-60,-10,-10
-45,14,59,16,-53,36,-5,-61,-39,-60,-10,-10
-64,-10,55,36,-59,22,-5,-60,-40,-60,-4,-9
-55,-2,53,28,-54,25,-5,-60,-36,-59,3,-13
-41,9,50,16,-46,30,-5,-60,-35,-62,6,-15
-67,-21,45,44,-56,12,-5,-61,-35,-61,4,-10
-64,-18,47,40,-55,14,-4,-57,-29,-55,6,-2
-48,-7,41,27,-44,17,-1,-52,-23,-50,10,3
-46,15,62,15,-54,38,1,-45,-15,-45,30,11
-37,44,81,-4,-59,62,6,-42,-9,-37,51,17
-15,66,81,-25,-49,73,-2,-33,-2,-37,53,21
14,102,88,-58,-37,95,-39,-31,8,-39,58,43
31,100,69,-66,-19,85,-69,-39,2,-44,54,48
28,87,59,-58,-16,73,-66,-36,-6,-44,45,35
25,84,59,-55,-17,71,-61,-59,-23,-49,40,29
-1,47,48,-23,-25,47,-40,-65,-39,-71,31,17
-43,5,48,19,-46,26,-14,-74,-46,-84,15,1
-39,-1,37,20,-38,18,-7,-70,-59,-100,-1,-14
-64,-26,37,45,-50,6,-7,-88,-69,-117,-13,-26
-84,-51,34,67,-58,-9,1,-79,-70,-121,-22,-32
-80,-40,40,60,-60,0,0,-73,-81,-130,-33,-29
-94,-54,40,73,-67,-7,8,-74,-74,-125,-35,-32
-48,-55,-7,52,-20,-31,-8,-47,-70,-120,-36,-46
-20,-83,-63,52,22,-73,-31,-84,-111,-155,-50,-56
246,3,-243,-125,245,-120,-53,248,10,-27,80,66
327,217,-110,-272,218,54,-221,-72,23,73,200,208
-103,111,214,-4,-159,162,-301,-926,-327,-202,-22,65
-202,-50,152,126,-176,51,-233,-775,-456,-347,-182,-87
-103,4,106,49,-105,55,-141,-370,-257,-225,-80,-44
-124,-13,111,68,-117,49,-38,-156,-119,-159,-31,-17
-116,-31,85,74,-101,27,-9,-55,-73,-123,-18,-14
-107,-21,86,64,-96,32,11,-48,-43,-111,-8,-10
-83,-16,67,49,-75,25,17,-11,-33,-100,-7,-9
-82,-3,79,42,-80,38,20,-18,-29,-93,2,-4
-86,-9,78,47,-82,34,20,2,-24,-97,5,-6
-62,16,77,23,-70,46,22,3,-20,-91,12,-5
-41,33,74,3,-58,53,32,23,-15,-90,26,-5
-47,28,75,9,-61,51,29,34,-12,-90,40,-5
-44,31,75,6,-60,52,31,35,-7,-86,40,-5
-45,30,75,7,-60,52,30,40,-4,-79,40,-5
-45,30,74,7,-59,52,30,41,-1,-75,40,-2
-46,31,77,7,-62,54,33,48,4,-69,40,3
-51,40,90,6,-71,65,35,55,6,-64,42,5
-36,54,90,-9,-63,72,35,72,13,-59,47,10
-55,35,90,10,-73,62,35,75,17,-51,43,13
-57,33,90,12,-74,61,35,98,25,-43,48,16
-34,56,90,-11,-62,73,35,122,40,-35,61,31
-25,64,89,-20,-57,76,40,133,52,-27,73,45
-3,77,81,-37,-42,79,38,163,72,-25,85,62
0,74,74,-37,-38,74,31,185,77,-23,90,72
33,100,67,-67,-17,83,24,202,89,3,113,79
74,133,59,-104,7,96,18,217,113,22,133,102
91,142,52,-117,19,97,10,232,116,19,136,105
98,150,52,-124,23,101,5,246,120,22,141,111
95,150,55,-123,19,103,-3,255,119,35,144,126
106,156,50,-131,28,103,-12,248,110,32,139,122
102,147,45,-125,29,96,-23,236,99,19,127,113
107,150,42,-129,32,95,-27,210,91,12,118,109
79,114,35,-97,22,74,-17,154,70,-13,103,91
18,56,37,-38,-10,46,-8,109,31,-54,71,58
-11,38,49,-14,-30,44,7,73,14,-77,47,39
-22,29,51,-3,-36,40,16,43,6,-81,32,27
-19,30,49,-6,-34,40,15,33,-5,-94,17,15
-20,30,50,-5,-35,40,14,28,-9,-103,15,15
-23,30,53,-3,-38,41,19,25,-17,-100,15,15
-31,30,62,0,-46,46,26,20,-19,-100,14,10
-33,26,60,3,-47,43,25,15,-15,-100,26,10
-33,24,58,4,-46,41,25,18,-15,-100,31,9
-61,21,82,20,-71,51,25,22,-15,-100,30,5
-71,18,89,26,-80,54,24,28,-15,-104,28,5
-64,15,79,24,-72,47,28,31,-15,-111,24,5
-61,15,76,23,-69,45,30,30,-18,-115,25,5
-54,16,69,19,-62,42,30,30,-21,-115,21,5
-51,15,66,18,-59,40,30,30,-19,-115,20,1
-63,2,65,30,-64,33,30,29,-21,-115,20,0
-77,-12,65,44,-71,26,30,22,-18,-115,15,0
-71,-7,65,38,-68,29,28,16,-26,-119,15,0
-58,7,65,25,-62,36,24,9,-41,-120,14,0
-50,13,62,18,-56,38,26,2,-40,-121,10,-2
-54,6,60,24,-57,32,21,-4,-40,-126,10,-5
-59,1,60,29,-60,30,20,-9,-40,-129,8,-8
-62,-5,57,33,-59,26,20,-10,-39,-134,4,-10
-64,-10,54,37,-59,21,15,-11,-43,-135,5,-14
-59,-3,56,31,-58,27,15,-14,-45,-135,8,-15
-58,0,58,29,-58,29,14,-16,-45,-135,11,-11
-49,15,64,17,-57,39,10,-14,-48,-134,8,-9
-75,1,76,36,-75,38,10,-8,-51,-136,5,-6
-101,-28,73,64,-86,22,7,-2,-49,-140,0,-3
-89,-20,69,54,-79,24,-6,4,-51,-144,-2,0
-81,-16,66,48,-73,25,-17,2,-48,-145,-6,1
-68,-7,61,38,-64,27,-42,-5,-54,-145,-12,7
-60,0,61,30,-61,31,-66,-10,-59,-149,4,16
-55,11,66,21,-60,38,-63,-17,-52,-151,13,7
-55,10,65,22,-60,37,-68,-19,-45,-148,-3,-9
-51,18,70,16,-61,44,-69,-10,-40,-135,8,-1
-41,56,97,-8,-69,76,-71,-4,-31,-114,28,22
-43,50,93,-4,-68,71,-71,6,-23,-107,17,26
-19,87,106,-34,-63,96,-78,13,-9,-102,46,48
-5,123,127,-59,-66,125,-131,11,2,-89,79,81
11,104,93,-58,-41,98,-165,24,5,-90,64,68
22,101,79,-62,-29,90,-175,23,-15,-96,47,61
2,76,74,-39,-36,75,-165,6,-35,-106,31,50
-29,31,61,-1,-45,46,-148,-8,-42,-126,24,18
-80,-21,59,51,-69,19,-151,-24,-68,-142,1,6
-68,-23,45,45,-57,11,-150,-35,-61,-151,-18,-6
-89,-43,47,66,-68,2,-149,-17,-107,-169,-28,-4
-59,-28,31,43,-45,2,-151,-59,-59,-177,-39,-21
-82,-48,34,64,-58,-6,-146,-96,-113,-173,-32,-16
-44,-28,16,35,-30,-6,-138,-37,-49,-176,-38,-36
91,64,-27,-77,59,18,-159,-17,-194,-184,-61,-79
