I,II,III,aVR,aVL,aVF,V1,V2,V3,V4,V5,V6
-40,10,50,15,-45,30,159,276,80,-21,26,-145
-34,8,42,13,-39,24,162,292,83,-14,32,-141
-32,4,36,14,-34,20,177,330,108,12,42,-134
-25,-2,23,13,-24,10,181,378,148,44,63,-127
35,31,-4,-33,19,13,200,429,181,83,80,-121
38,66,29,-53,4,47,226,486,213,98,98,-112
12,64,53,-38,-21,58,232,532,238,110,112,-102
14,62,48,-38,-17,55,257,562,256,140,123,-92
6,58,51,-32,-23,54,264,583,277,150,136,-83
31,80,49,-55,-10,64,247,576,268,145,135,-77
47,98,51,-72,-2,74,243,537,255,137,135,-72
43,94,51,-69,-4,72,214,484,244,131,135,-69
38,103,65,-71,-14,84,166,400,203,124,135,-64
19,96,77,-58,-29,86,131,310,160,109,129,-60
9,83,74,-47,-33,78,108,237,129,86,116,-65
-3,73,76,-36,-39,74,87,175,89,53,105,-68
-12,62,75,-25,-44,68,72,125,58,21,77,-73
-18,56,75,-19,-47,65,62,83,40,0,55,-82
-24,49,73,-13,-49,61,49,79,28,-9,53,-89
-18,41,59,-12,-38,50,48,81,30,-14,48,-95
-37,34,71,1,-55,53,51,79,30,-32,46,-95
-60,27,87,16,-74,57,50,81,30,-47,40,-95
-53,25,77,14,-66,51,55,79,30,-44,41,-95
-50,25,75,12,-63,50,54,84,30,-45,62,-95
-46,25,71,10,-59,48,58,85,26,-45,62,-95
-39,25,63,7,-52,44,71,85,25,-45,53,-95
-45,26,71,9,-58,48,69,84,25,-49,48,-95
-53,27,80,13,-66,53,66,85,20,-50,40,-95
-49,25,74,12,-62,49,63,83,19,-50,36,-95
-43,25,68,9,-57,46,60,76,22,-50,27,-95
-42,22,63,10,-52,42,59,69,25,-50,18,-100
-37,19,57,9,-47,38,54,62,25,-52,10,-100
-35,20,55,7,-45,37,49,54,25,-55,0,-101
-42,13,55,14,-49,33,45,46,25,-58,-8,-105
-52,4,55,24,-54,29,40,60,25,-60,-10,-105
-58,-4,54,30,-56,25,36,69,21,-57,-10,-105
-74,-18,56,45,-65,18,31,57,20,-53,-14,-105
-80,-26,54,53,-67,14,30,53,20,-62,-16,-105
-81,-25,56,53,-68,15,29,44,15,-76,-14,-105
-78,-23,54,50,-66,16,31,36,15,-75,-11,-105
-77,-21,56,48,-66,17,29,55,15,-74,-8,-105
-84,-19,65,51,-75,23,33,67,15,-70,-6,-99
-72,-19,54,45,-63,17,34,64,15,-70,-2,-92
-45,5,49,20,-47,27,34,65,14,-67,0,-86
-7,26,34,-10,-21,30,48,65,23,-51,2,-79
-7,34,41,-14,-24,37,42,70,29,-40,8,-73
-26,58,84,-16,-55,71,31,80,42,-23,15,-66
-16,59,75,-22,-45,67,24,82,58,-16,18,-59
8,73,65,-41,-28,69,12,95,71,5,34,-53
28,81,54,-55,-13,67,-16,82,66,24,50,-45
44,73,29,-59,7,51,-59,35,37,-23,36,-41
56,47,-10,-51,33,18,-69,28,19,-47,25,-44
37,-8,-45,-14,41,-26,-64,31,4,-53,9,-48
14,5,-10,-9,12,-3,-53,29,1,-57,-8,-54
-18,17,35,0,-27,26,-21,31,-9,-69,-18,-65
-64,-18,46,40,-54,14,-3,29,-17,-85,-34,-71
-92,-47,45,69,-68,-1,-1,28,-20,-88,-47,-93
-87,-46,40,66,-63,-2,5,18,-28,-92,-53,-101
-71,-33,38,52,-55,2,8,21,-10,-74,-55,-98
-88,-51,36,69,-62,-8,14,9,-29,-93,-68,-104
-100,-70,31,85,-65,-19,16,8,3,-59,-49,-94
-67,-61,6,64,-36,-28,44,83,15,-86,-69,-111
-1,-69,-68,36,34,-68,228,464,262,102,20,-67
172,-11,-183,-80,178,-97,235,726,654,517,288,128
581,343,-238,-461,409,53,-166,379,1008,1218,992,688
575,695,120,-635,227,407,-580,-467,846,1369,1351,1018
-20,655,676,-318,-348,665,-884,-1636,-619,-189,350,445
-295,473,768,-89,-532,620,-884,-1810,-1294,-1028,-301,-3
-226,329,555,-52,-391,441,-560,-1037,-723,-641,-196,-33
-154,155,308,-1,-232,231,-241,-449,-354,-409,-182,-94
-82,35,118,23,-100,76,-36,-81,-85,-186,-104,-97
-75,-17,58,45,-66,20,22,12,-34,-161,-98,-102
-108,-78,30,93,-69,-24,63,48,-13,-131,-101,-104
-108,-86,22,97,-65,-32,85,70,6,-119,-114,-106
-89,-75,15,82,-52,-30,76,85,2,-115,-110,-103
-81,-76,5,78,-43,-35,83,111,27,-73,-97,-99
-67,-67,0,67,-33,-34,78,119,30,-68,-98,-98
-59,-65,-6,63,-26,-36,81,147,47,-48,-84,-94
-51,-60,-9,56,-21,-35,84,141,46,-46,-85,-92
-44,-58,-14,52,-15,-36,96,163,72,-31,-74,-84
-27,-56,-28,42,1,-42,100,181,85,-23,-70,-81
-7,-52,-45,30,20,-48,102,193,97,-12,-62,-74
-5,-50,-45,28,20,-47,106,223,122,6,-55,-69
-2,-47,-46,25,22,-46,107,252,149,32,-51,-64
13,-38,-51,12,33,-45,117,285,179,64,-38,-49
21,-27,-48,3,35,-37,133,332,217,98,-16,-32
38,-19,-56,-9,47,-37,153,387,258,133,12,-18
60,-10,-69,-25,65,-40,166,434,275,149,26,-5
61,-2,-63,-29,62,-33,169,461,292,169,25,3
59,6,-53,-32,56,-24,181,469,304,190,28,7
58,11,-47,-34,52,-18,191,458,295,191,31,15
47,9,-38,-28,43,-14,179,447,285,187,30,17
60,29,-32,-44,46,-1,164,434,276,186,43,25
59,47,-11,-53,35,18,149,374,256,182,53,42
20,42,22,-31,-1,32,127,286,214,144,32,33
9,38,30,-23,-11,34,103,214,162,101,4,19
-2,35,37,-17,-20,36,93,158,111,74,-17,5
-19,28,47,-5,-33,37,89,115,70,54,-32,-13
-24,21,44,1,-34,32,84,80,41,42,-44,-25
-30,14,44,8,-38,29,80,64,25,30,-53,-34
-33,6,39,14,-37,22,75,60,17,25,-68,-41
-42,-1,41,21,-41,20,79,55,9,17,-84,-45
-46,-8,39,27,-42,15,80,52,1,11,-84,-45
-59,-14,45,36,-52,15,80,45,-6,3,-87,-45
-75,-19,56,46,-65,18,85,47,-13,1,-90,-45
-75,-24,51,50,-63,13,84,50,-17,5,-90,-45
-79,-30,49,54,-63,9,86,50,-23,5,-95,-45
-79,-34,45,56,-61,5,90,50,-29,5,-95,-45
-71,-30,41,51,-56,5,90,50,-33,5,-96,-45
-68,-30,37,49,-53,3,94,49,-36,5,-101,-45
-63,-29,35,46,-49,3,95,46,-33,0,-99,-45
-59,-25,35,42,-47,5,95,43,-40,-8,-103,-45
-61,-26,36,43,-48,5,95,40,-44,-15,-105,-45
-56,-22,34,39,-44,5,95,37,-51,-18,-104,-45
-58,-20,38,39,-48,9,94,35,-65,-28,-109,-45
-69,-20,49,44,-59,15,89,33,-66,-36,-110,-45
-78,-34,44,56,-61,5,86,28,-63,-35,-111,-45
-69,-31,38,50,-53,3,83,25,-69,-35,-114,-49
-61,-27,34,44,-47,3,78,22,-92,-35,-117,-50
-75,-50,26,62,-50,-12,75,17,-98,-35,-119,-50
-76,-50,26,62,-51,-11,79,14,-103,-32,-123,-50
-69,-46,24,57,-46,-11,80,10,-112,-29,-125,-50
-71,-43,28,57,-49,-8,80,10,-109,-31,-125,-49
-91,-40,51,65,-71,5,85,9,-109,-29,-125,-42
-96,-38,57,67,-76,9,85,5,-104,-31,-125,-38
-77,-25,53,50,-65,14,83,5,-106,-29,-125,-32
-58,0,58,29,-58,29,79,7,-103,-23,-120,-26
-30,29,59,1,-45,44,73,15,-93,-18,-114,-22
-24,28,53,-2,-39,40,71,21,-82,-12,-109,-16
-20,26,45,-3,-33,35,64,28,-72,-6,-103,-15
23,61,38,-42,-8,49,62,35,-64,-1,-97,-15
53,84,31,-68,11,57,46,17,-62,-3,-96,-15
40,62,22,-51,9,42,13,-14,-103,-16,-112,-15
40,26,-14,-33,27,6,2,-29,-128,-20,-120,-16
53,-1,-55,-26,54,-28,-5,-48,-134,-35,-120,-23
16,-11,-27,-2,22,-19,6,-64,-158,-51,-120,-29
-31,-18,13,24,-22,-2,37,-65,-160,-46,-124,-35
-40,-22,18,31,-28,-2,50,-66,-167,-51,-138,-43
-70,-38,32,54,-51,-3,62,-64,-160,-69,-160,-57
-88,-52,36,70,-62,-7,73,-67,-164,-80,-178,-72
-84,-48,36,66,-60,-6,64,-63,-147,-55,-167,-62
-88,-55,32,71,-60,-11,67,-58,-158,-75,-192,-70
-82,-52,30,67,-56,-11,55,-55,-139,-40,-176,-59
-74,-68,6,71,-39,-31,93,16,-124,-65,-195,-71
-10,-83,-73,47,32,-78,279,356,72,54,-140,-56
115,-10,-125,-52,120,-67,276,593,472,467,133,114
463,304,-159,-383,310,73,-106,255,819,1150,781,621
608,712,104,-660,252,407,-630,-527,808,1549,1319,1079
135,694,560,-415,-213,627,-1012,-1638,-523,156,492,625
-197,450,648,-127,-423,549,-964,-1904,-1435,-992,-342,97
-176,329,505,-77,-341,417,-617,-1164,-906,-658,-275,45
-133,164,297,-16,-215,230,-260,-559,-495,-408,-262,-31
-105,8,113,49,-109,60,-29,-181,-243,-206,-219,-61
-103,-40,63,71,-83,11,40,-72,-167,-151,-208,-86
-97,-52,45,74,-71,-4,81,-50,-155,-128,-211,-87
-97,-61,35,79,-66,-13,99,-9,-125,-83,-198,-82
-87,-60,27,73,-57,-16,92,-5,-138,-94,-205,-89
-77,-60,17,68,-47,-21,100,29,-110,-67,-190,-82
-69,-60,9,65,-39,-25,109,49,-110,-74,-197,-86
-64,-60,4,62,-34,-27,111,64,-83,-56,-186,-76
-60,-57,3,58,-31,-26,108,68,-75,-55,-186,-76
-54,-54,-1,54,-26,-27,104,93,-59,-41,-181,-71
-52,-55,-3,54,-24,-29,108,111,-43,-32,-177,-67
-45,-50,-5,48,-20,-27,125,131,-27,-12,-176,-65
-36,-50,-14,44,-11,-32,125,165,-6,13,-162,-59
-36,-49,-13,43,-11,-31,142,209,20,38,-144,-54
-27,-41,-14,34,-6,-27,157,249,50,66,-132,-48
-9,-33,-24,21,8,-28,158,283,78,81,-124,-43
8,-25,-33,9,21,-29,183,341,120,115,-102,-38
22,-18,-39,-2,31,-28,198,387,150,139,-78,-31
23,-10,-33,-6,28,-21,211,421,164,153,-73,-24
27,0,-27,-13,27,-13,234,441,163,156,-70,-18
32,10,-22,-21,27,-6,235,433,153,147,-66,-11
32,20,-12,-26,22,4,220,411,148,146,-62,-5
34,35,1,-35,16,18,212,366,141,139,-59,-5
21,37,16,-29,2,26,190,308,120,136,-65,-5
6,34,28,-20,-12,31,152,236,81,128,-64,-5
-1,35,36,-17,-19,36,109,154,40,107,-68,-5
-10,30,40,-10,-25,35,80,84,0,77,-90,-4
-14,30,44,-8,-29,37,74,36,-38,53,-107,-7
-21,29,50,-4,-35,39,67,4,-58,43,-121,-14
-26,24,50,1,-39,37,61,-15,-76,31,-126,-21
-29,21,50,4,-40,35,54,-23,-91,20,-130,-27
-30,18,48,6,-39,33,51,-31,-90,14,-137,-35
-31,13,44,8,-38,29,55,-40,-90,8,-141,-39
-35,10,45,12,-40,27,55,-44,-90,5,-150,-36
-35,6,41,14,-39,23,55,-38,-90,0,-147,-35
-35,5,39,15,-38,21,55,-32,-89,-5,-141,-35
-36,5,41,15,-39,22,55,-28,-84,-2,-138,-35
-34,5,39,15,-37,21,55,-21,-86,1,-132,-35
-36,5,41,15,-39,23,55,-16,-82,4,-128,-37
-34,4,38,15,-37,21,55,-15,-80,7,-125,-41
-45,-1,44,23,-45,22,55,-15,-80,9,-125,-40
-65,-4,60,35,-62,28,55,-15,-77,11,-125,-40
-65,-7,58,36,-61,25,54,-15,-74,9,-125,-40
-65,-12,54,38,-60,21,50,-15,-76,10,-125,-41
-66,-15,51,41,-58,17,50,-15,-74,10,-129,-44
-61,-15,46,38,-53,16,48,-23,-76,9,-130,-45
-59,-15,43,36,-51,14,44,-25,-74,21,-132,-44
-55,-15,40,35,-47,12,45,-29,-77,16,-136,-48
-52,-15,37,33,-44,11,45,-54,-96,-4,-134,-50
-50,-15,35,32,-42,10,45,-61,-101,-14,-141,-50
-45,-14,31,29,-38,8,45,-59,-100,-15,-146,-54
-39,-9,30,24,-34,10,45,-61,-98,-15,-145,-56
-37,-3,33,19,-35,15,45,-59,-94,-20,-143,-54
-36,0,36,18,-36,17,43,-60,-96,-20,-139,-51
-33,6,39,13,-37,22,40,-55,-91,-19,-141,-46
-33,7,41,13,-37,24,40,-52,-82,-13,-135,-44
-27,26,53,0,-40,39,41,-49,-75,-6,-127,-39
-15,47,62,-16,-39,54,40,-44,-65,1,-119,-36
-14,43,58,-14,-37,50,41,-40,-62,7,-111,-33
-7,48,56,-21,-32,52,35,-38,-65,18,-103,-26
11,62,52,-37,-21,57,25,-41,-65,35,-80,-21
39,90,51,-65,-6,70,15,-37,-70,31,-67,-16
39,82,43,-60,-2,62,-21,-53,-69,19,-71,-9
39,46,7,-43,16,26,-42,-69,-73,11,-75,-6
82,40,-42,-61,62,-1,-34,-75,-91,0,-74,-11
76,31,-45,-53,60,-7,-29,-103,-105,-11,-77,-21
44,27,-16,-35,30,5,-23,-111,-112,-18,-72,-24
10,12,2,-11,3,7,-2,-110,-119,-32,-78,-34
-32,-11,21,21,-26,4,15,-110,-112,-34,-104,-60
-74,-37,37,55,-55,0,23,-111,-135,-66,-124,-77
-94,-53,42,73,-68,-5,19,-109,-132,-56,-110,-66
-83,-46,37,64,-60,-5,13,-112,-126,-58,-111,-72
-68,-39,29,54,-48,-5,13,-120,-127,-59,-103,-70
-44,-35,9,40,-26,-13,19,-86,-91,-34,-93,-67
-38,-83,-45,61,3,-64,188,158,3,-6,-98,-78
40,-74,-114,17,77,-94,291,499,353,301,71,16
346,149,-197,-247,271,-24,23,368,694,820,527,356
654,580,-74,-617,364,253,-499,-230,955,1535,1266,942
400,750,350,-575,25,550,-1018,-1279,151,865,1016,880
-74,512,585,-219,-330,548,-1123,-2009,-1229,-744,-27,249
-147,381,527,-117,-337,454,-822,-1523,-1113,-819,-206,53
-108,252,360,-72,-235,306,-432,-791,-551,-437,-120,12
-97,65,162,16,-130,113,-124,-344,-285,-257,-129,-56
-69,3,72,33,-70,37,2,-137,-129,-120,-88,-77
-85,-36,49,60,-67,7,29,-111,-137,-125,-102,-97
-94,-51,43,73,-69,-4,57,-55,-89,-77,-78,-90
-91,-55,36,72,-63,-9,73,-36,-96,-95,-87,-99
-85,-51,34,68,-59,-8,79,-15,-74,-70,-75,-101
-76,-47,29,62,-53,-9,80,-3,-68,-70,-74,-107
-72,-44,27,58,-49,-8,82,6,-59,-60,-69,-104
-60,-39,21,49,-41,-8,85,23,-44,-48,-62,-101
-56,-53,3,54,-29,-25,85,42,-36,-45,-58,-100
-78,-54,24,65,-51,-15,92,67,-15,-29,-51,-100
-76,-47,29,61,-52,-9,92,88,3,-25,-37,-93
-60,-44,16,52,-38,-14,109,124,36,1,-3,-82
-49,-38,11,43,-30,-13,129,160,62,26,10,-73
-37,-35,1,36,-19,-17,134,197,93,40,20,-63
-25,-28,-3,27,-11,-15,150,250,130,64,30,-56
-12,-21,-9,16,-1,-15,178,302,162,84,41,-49
4,-8,-12,2,8,-10,194,353,197,111,68,-43
47,29,-18,-38,32,5,200,391,222,137,81,-36
66,46,-19,-56,42,13,217,419,237,145,93,-30
55,44,-11,-49,32,16,218,426,240,145,102,-25
54,49,-4,-51,29,22,203,416,231,138,100,-21
48,50,3,-49,23,26,194,393,227,135,99,-18
37,48,11,-43,12,29,177,339,214,130,113,-15
15,43,29,-29,-7,36,141,262,186,126,125,-10
5,40,35,-23,-15,37,99,170,152,113,115,-12
-2,37,38,-18,-21,37,67,96,113,83,104,-19
-23,32,55,-5,-39,43,48,39,79,52,98,-26
-26,29,56,-2,-41,42,38,11,50,31,99,-32
-28,25,53,1,-41,39,31,-19,36,24,101,-39
-45,20,65,12,-55,42,24,-48,19,18,99,-45
-51,15,66,18,-59,40,16,-56,16,10,101,-50
-44,12,56,16,-50,33,8,-60,45,5,99,-50
-42,5,47,18,-45,26,7,-51,51,-2,97,-51
-31,8,38,11,-35,22,10,-49,40,-7,94,-55
-17,14,30,1,-24,21,10,-44,39,-13,95,-54
-20,11,31,5,-26,21,13,-39,30,-19,95,-58
-19,10,29,4,-24,19,16,-36,26,-17,94,-60
-18,9,26,4,-22,17,14,-31,40,-12,112,-60
-19,5,24,6,-22,15,10,-29,47,-9,122,-64
-23,4,26,9,-25,15,10,-24,56,-6,124,-65
-21,10,31,6,-27,20,9,-22,62,-1,134,-65
-19,-5,14,12,-16,4,5,-15,55,-1,134,-65
-47,-27,20,37,-33,-3,5,-7,55,-8,136,-65
-58,-25,33,41,-45,4,7,-14,50,-14,140,-65
-48,-25,23,36,-35,-1,12,-19,50,-21,139,-65
-47,-25,21,36,-34,-2,14,-24,55,-28,149,-65
-38,-25,13,31,-25,-6,11,-31,55,-34,156,-68
-34,-25,9,30,-21,-8,8,-33,55,-35,154,-70
-34,-30,3,32,-19,-13,5,-42,55,-35,155,-70
-28,-28,0,28,-14,-14,2,-51,55,-35,155,-70
-40,-39,1,39,-20,-19,-1,-50,55,-35,155,-70
-53,-55,-1,54,-26,-28,2,-48,55,-35,158,-70
-44,-42,2,43,-23,-19,6,-45,55,-34,160,-64
-28,-33,-5,30,-12,-18,4,-45,55,-28,161,-58
-52,-23,30,37,-41,3,9,-43,54,-21,159,-54
-79,-13,66,46,-72,26,11,-33,76,-15,168,-48
-57,-8,49,32,-53,20,9,-27,94,-8,179,-43
-36,8,44,13,-40,26,19,-17,102,-1,191,-37
-28,15,42,7,-36,28,22,-10,109,6,198,-31
2,38,37,-20,-18,37,13,-3,117,20,206,-26
29,67,37,-49,-4,52,-14,11,118,28,236,-21
41,57,17,-49,12,37,-53,-28,92,14,232,-15
56,24,-32,-40,44,-4,-59,-65,84,-1,218,-10
48,-11,-59,-19,54,-35,-47,-72,80,-18,207,-27
29,-14,-43,-7,36,-29,-37,-86,78,-27,199,-44
-4,-16,-12,10,4,-14,-28,-83,74,-42,193,-45
-35,-20,15,27,-25,-2,-20,-79,69,-47,184,-62
-70,-45,26,57,-48,-9,-14,-76,66,-56,182,-79
-114,-90,24,101,-69,-32,-8,-71,41,-73,167,-82
-119,-95,24,107,-71,-35,0,-73,58,-66,178,-89
-110,-92,18,101,-64,-36,4,-76,42,-107,167,-103
-88,-68,20,78,-54,-24,16,-62,57,-66,184,-94
-61,-80,-19,70,-20,-49,54,-8,63,-66,165,-90
-11,-121,-110,66,50,-115,229,336,273,90,202,-51
136,-54,-190,-41,163,-122,262,625,677,482,452,94
500,243,-257,-372,379,-7,-109,328,1016,1146,1116,605
608,627,19,-617,294,322,-549,-426,994,1495,1621,1053
87,641,554,-364,-234,597,-886,-1586,-374,61,757,560
-273,449,722,-88,-498,586,-923,-1933,-1287,-1030,-49,27
-217,326,544,-55,-381,435,-615,-1196,-746,-670,30,-13
-157,122,280,17,-219,201,-262,-567,-338,-427,44,-77
-131,-31,100,81,-116,35,-32,-176,-63,-217,98,-85
-113,-62,51,87,-82,-5,36,-61,37,-144,134,-81
-110,-94,16,101,-62,-39,71,-42,48,-134,138,-91
-107,-115,-8,111,-49,-61,86,-1,77,-113,144,-103
-103,-119,-16,111,-43,-67,90,6,57,-108,135,-105
-95,-121,-26,108,-35,-73,99,32,79,-66,144,-95
-84,-118,-34,101,-25,-75,92,46,68,-76,136,-97
-88,-115,-27,102,-30,-71,97,71,81,-58,137,-89
-67,-115,-48,91,-9,-81,94,67,91,-58,134,-89
-50,-113,-63,81,7,-88,96,75,109,-48,134,-80
-51,-109,-58,80,4,-84,102,102,111,-34,138,-74
-50,-110,-61,80,6,-86,102,123,125,-23,155,-68
-47,-106,-59,77,6,-83,114,154,160,-2,171,-61
-49,-104,-55,77,4,-79,124,188,178,20,195,-53
-61,-106,-45,84,-8,-75,126,228,215,44,204,-43
-18,-93,-75,56,29,-84,141,270,238,62,206,-33
21,-74,-95,26,58,-84,159,321,266,89,231,-23
25,-62,-88,19,57,-75,181,367,308,117,247,-16
39,-53,-92,7,66,-72,189,401,323,135,255,-9
47,-42,-89,-2,68,-65,194,427,341,161,259,-3
56,-35,-91,-10,74,-63,192,426,335,175,254,5
52,-30,-82,-11,67,-55,180,412,326,168,249,9
48,-26,-74,-11,61,-50,175,375,323,158,243,21
35,-21,-56,-7,45,-38,158,317,296,148,238,24
-9,-17,-7,13,-1,-12,137,246,257,124,231,17
-31,-12,18,21,-24,3,122,166,211,88,219,13
-26,-3,24,14,-25,10,112,105,165,56,197,6
-37,-10,26,23,-31,8,100,57,126,26,172,2
-53,-29,24,40,-38,-3,91,13,101,3,160,-5
-64,-42,21,53,-42,-10,90,-2,87,-18,149,-13
-64,-46,19,55,-41,-13,90,1,78,-37,137,-19
-66,-45,22,55,-44,-11,90,0,70,-40,129,-27
-74,-49,25,61,-49,-12,90,5,60,-40,123,-34
-75,-50,25,62,-50,-12,91,5,52,-44,119,-40
-75,-49,25,62,-50,-12,95,5,50,-45,113,-40
-70,-45,25,57,-47,-10,95,5,50,-45,107,-40
-71,-45,26,58,-48,-10,94,5,50,-40,105,-40
-67,-44,24,55,-45,-10,101,5,48,-40,105,-40
-70,-40,30,55,-50,-5,105,5,60,-39,105,-40
-80,-39,40,59,-60,0,98,5,64,-35,105,-36
-75,-43,32,59,-54,-5,95,1,56,-35,105,-35
-78,-52,26,65,-51,-13,90,-1,54,-35,105,-35
-76,-56,20,66,-48,-18,84,0,48,-35,99,-35
-65,-54,11,59,-37,-21,97,0,44,-35,92,-35
-73,-57,16,65,-44,-20,113,0,40,-35,86,-35
-85,-65,20,75,-52,-22,113,-1,35,-45,79,-35
-81,-66,15,73,-48,-25,105,-6,31,-60,73,-35
-77,-64,13,70,-45,-26,99,-9,26,-70,67,-43
-69,-61,8,65,-38,-26,93,-12,22,-70,65,-46
-65,-60,5,62,-35,-27,85,-17,17,-70,62,-44
-67,-59,8,63,-37,-25,98,-20,15,-70,59,-45
-67,-53,13,60,-40,-20,107,-17,12,-70,56,-45
-62,-49,13,55,-38,-17,104,-14,9,-69,55,-45
-55,-44,11,50,-32,-16,106,-12,6,-62,60,-39
-49,-40,9,44,-29,-16,104,-8,5,-58,60,-32
-54,-35,18,44,-36,-8,105,-6,12,-53,60,-26
-57,-31,26,44,-42,-2,98,-4,22,-46,59,-19
-41,-22,19,31,-30,-1,88,5,33,-42,59,-13
-30,-14,16,22,-22,1,81,13,43,-35,62,-7
-8,1,8,3,-8,4,70,23,49,-35,66,-3
30,35,5,-33,12,20,63,15,43,-34,71,3
33,29,-4,-31,19,13,57,-9,33,-35,64,6
10,-17,-27,4,19,-22,53,-23,25,-35,55,12
20,-50,-70,15,45,-59,48,-34,16,-36,49,15
20,-52,-72,16,46,-61,44,-45,6,-62,39,6
-8,-30,-22,20,7,-26,39,-50,0,-63,35,-6
-35,-48,-13,42,-11,-30,51,-48,-16,-66,19,-17
-71,-88,-17,80,-27,-52,68,-41,-23,-84,16,-34
-84,-98,-14,91,-35,-56,70,-42,-46,-102,6,-66
-77,-92,-15,85,-30,-54,69,-33,-40,-90,10,-68
-82,-98,-16,91,-33,-57,63,-37,-37,-95,3,-71
-90,-97,-7,94,-42,-52,68,-33,-34,-91,-2,-74
-75,-101,-27,88,-24,-64,73,-12,-17,-83,7,-74
-46,-131,-84,89,19,-107,209,209,69,-47,-8,-72
31,-112,-143,41,87,-127,338,590,443,274,153,27
324,100,-224,-212,274,-62,80,472,797,814,636,386
613,542,-70,-577,341,235,-418,-138,1051,1513,1389,975
314,703,389,-508,-38,546,-873,-1195,191,787,1074,866
-155,479,634,-162,-395,556,-1008,-1948,-1206,-819,-15,214
-210,337,547,-64,-379,442,-745,-1456,-1069,-871,-180,28
-152,196,348,-22,-250,272,-372,-717,-511,-500,-111,-6
-125,16,140,54,-132,77,-73,-261,-226,-317,-105,-60
-128,-70,58,99,-93,-6,53,-47,-56,-163,-51,-76
-134,-99,35,116,-84,-32,80,-25,-60,-171,-77,-91
-114,-100,14,107,-64,-43,106,26,-11,-116,-52,-80
-103,-101,2,102,-52,-49,110,36,-22,-133,-64,-93
-79,-98,-19,89,-30,-58,111,61,-2,-113,-52,-88
-88,-113,-25,101,-32,-69,114,69,1,-112,-55,-90
-100,-127,-27,114,-36,-77,118,85,8,-105,-50,-84
-93,-124,-31,109,-31,-77,123,105,19,-88,-42,-80
-90,-123,-33,107,-28,-78,126,115,26,-79,-42,-79
-78,-119,-41,99,-18,-80,130,139,47,-60,-33,-72
-60,-121,-60,91,0,-90,138,155,63,-50,-32,-71
-47,-113,-67,80,10,-90,139,190,96,-34,-24,-65
-33,-97,-64,66,16,-81,141,227,125,-19,-11,-60
-20,-86,-65,54,23,-75,153,263,149,7,-1,-55
-10,-75,-65,43,28,-69,169,314,185,39,17,-49
-1,-66,-65,34,32,-65,185,364,215,66,36,-44
6,-55,-60,25,33,-57,195,413,248,92,49,-39
9,-46,-55,19,32,-50,220,461,280,118,68,-34
9,-41,-51,16,30,-46,230,487,291,120,71,-28
10,-36,-46,14,28,-41,219,483,289,113,69,-25
9,-33,-41,12,25,-37,212,472,276,110,70,-20
11,-27,-38,8,24,-32,205,443,266,102,70,-15
7,-26,-32,10,20,-29,193,383,247,98,69,-19
-3,-31,-28,17,12,-29,155,316,211,91,60,-20
-6,-29,-24,18,9,-26,119,236,171,74,50,-22
-14,-33,-19,23,3,-26,91,164,129,40,40,-25
-21,-36,-14,29,-3,-25,59,111,93,6,30,-26
-23,-34,-10,28,-6,-21,44,77,77,-10,20,-35
-34,-44,-10,39,-12,-27,38,61,67,-29,12,-45
-41,-50,-10,45,-15,-30,31,45,54,-44,2,-54
-33,-44,-11,39,-11,-27,24,39,50,-48,-5,-55
-31,-39,-9,35,-11,-24,17,41,50,-50,-5,-55
-38,-54,-17,46,-10,-35,17,37,50,-50,-5,-55
-35,-66,-31,50,-2,-48,20,35,50,-50,-5,-55
-27,-56,-29,41,2,-42,20,35,49,-50,-5,-55
-21,-53,-32,37,5,-42,20,38,52,-49,-5,-55
-12,-46,-35,29,12,-41,20,43,55,-45,-9,-55
-4,-40,-35,23,16,-37,19,45,57,-45,-11,-55
-25,-57,-32,41,4,-44,16,45,60,-45,-10,-55
-38,-68,-30,53,-4,-48,13,45,56,-45,-10,-55
-40,-70,-30,55,-5,-50,11,45,54,-45,-10,-55
-45,-75,-30,60,-7,-52,7,45,55,-48,-11,-55
-45,-75,-30,60,-7,-52,5,45,55,-51,-16,-55
-47,-76,-29,61,-9,-52,3,42,55,-50,-21,-55
-23,-71,-48,47,13,-59,-4,37,54,-50,-25,-55
-22,-79,-57,51,18,-68,-9,34,49,-50,-30,-55
-36,-87,-50,62,8,-68,-14,30,46,-50,-35,-63
-34,-84,-50,59,8,-66,-20,27,43,-61,-35,-66
-40,-85,-45,63,3,-65,-25,23,38,-66,-35,-65
-41,-85,-44,63,2,-65,-25,20,35,-64,-35,-62
-43,-84,-40,63,-1,-62,-25,20,35,-65,-35,-59
-46,-86,-40,66,-3,-63,-25,20,35,-65,-35,-60
-58,-97,-39,77,-9,-67,-25,19,35,-65,-34,-54
-58,-93,-35,76,-12,-64,-24,20,35,-59,-29,-49
-55,-90,-35,73,-10,-62,-28,22,34,-52,-24,-44
-52,-85,-33,68,-9,-59,-37,30,44,-46,-20,-38
-14,-43,-29,29,7,-36,-32,45,57,-39,-15,-33
5,-26,-31,11,19,-28,-29,46,59,-33,-11,-28
-11,-40,-29,25,9,-34,-24,44,65,-26,-6,-25
3,-38,-41,18,22,-39,-29,52,80,-25,-5,-22
31,-31,-62,0,47,-46,-74,46,78,-21,-5,-19
26,-33,-60,4,43,-46,-104,31,60,-21,-5,-15
33,-58,-91,13,63,-74,-104,18,49,-38,-4,-15
49,-88,-138,20,94,-113,-107,1,38,-57,-6,-19
35,-111,-146,38,90,-128,-102,-15,24,-68,-15,-22
-4,-122,-118,63,57,-120,-101,-21,17,-62,-22,-23
-22,-119,-97,71,37,-108,-99,-20,5,-69,-33,-30
-31,-126,-95,78,32,-110,-99,-21,10,-68,-42,-44
-59,-147,-88,103,15,-117,-87,-15,-2,-79,-73,-74
-58,-142,-83,100,13,-112,-82,-8,2,-62,-73,-88
-76,-152,-77,114,1,-114,-74,3,-7,-65,-76,-92
-79,-152,-73,116,-3,-112,-63,6,3,-58,-76,-93
-71,-140,-69,106,-1,-105,-64,23,41,-43,-71,-95
-39,-182,-143,111,53,-162,89,253,109,-35,-77,-88
67,-141,-208,37,138,-174,165,568,458,263,103,24
314,70,-244,-192,278,-86,-117,418,791,778,551,349
633,500,-133,-567,383,184,-672,-188,1052,1465,1241,909
411,664,253,-538,79,459,-1213,-1233,245,804,989,857
-62,397,459,-167,-261,427,-1286,-1933,-1121,-730,-9,248
-142,262,404,-60,-274,333,-958,-1416,-966,-789,-189,56
-107,140,247,-17,-177,193,-549,-687,-438,-447,-130,10
-99,-43,56,71,-78,6,-247,-259,-182,-278,-146,-49
-91,-108,-18,100,-36,-63,-127,-46,-7,-139,-103,-70
-95,-144,-50,120,-22,-97,-96,-21,-22,-146,-117,-92
-87,-159,-73,123,-7,-115,-88,32,21,-98,-94,-83
-73,-155,-82,114,5,-118,-77,53,6,-117,-105,-93
-80,-171,-91,126,5,-131,-67,74,24,-92,-93,-91
-87,-182,-95,134,4,-138,-61,73,27,-93,-92,-102
-87,-173,-87,130,1,-130,-54,76,36,-83,-89,-96
-86,-172,-87,129,1,-129,-48,100,50,-70,-82,-93
-57,-167,-110,112,27,-139,-41,118,65,-66,-79,-90
-47,-164,-117,106,36,-140,-33,142,84,-47,-71,-85
-51,-161,-111,106,30,-136,-24,159,100,-29,-67,-83
-48,-158,-109,103,31,-133,-16,192,135,-8,-61,-72
-29,-156,-127,93,49,-141,-6,236,154,5,-54,-65
-15,-152,-137,84,61,-144,9,280,185,18,-41,-56
-17,-151,-134,84,59,-142,21,325,215,45,-30,-44
-12,-147,-135,80,62,-141,41,378,257,90,-13,-30
-7,-141,-135,75,64,-138,64,437,300,123,5,-18
11,-136,-147,63,79,-141,73,471,319,142,13,-11
19,-129,-148,56,83,-138,78,496,336,144,21,-4
14,-126,-140,56,78,-133,90,505,339,148,29,3
30,-107,-137,39,84,-121,95,498,333,155,37,9
35,-94,-129,29,83,-111,68,473,330,147,49,16
31,-94,-126,32,79,-110,32,413,312,141,49,23
23,-96,-119,37,71,-107,-11,331,275,138,40,32
20,-94,-114,37,67,-104,-56,242,224,117,36,32
13,-96,-109,42,61,-102,-84,172,178,75,24,24
-13,-116,-103,65,45,-109,-117,118,144,46,-1,17
-17,-114,-97,66,40,-105,-135,80,124,32,-7,9
-35,-127,-93,81,29,-110,-136,59,109,26,-4,2
-48,-136,-87,92,20,-111,-155,52,98,22,-5,-3
-40,-123,-83,82,22,-103,-161,48,94,17,-5,-6
-66,-145,-80,106,7,-112,-159,44,88,13,-5,-9
-79,-151,-72,116,-4,-111,-164,38,83,8,-7,-12
-53,-149,-96,101,22,-122,-165,35,77,3,-12,-14
-41,-150,-109,96,34,-130,-164,39,77,-3,-17,-17
-55,-150,-94,103,19,-122,-161,40,85,-8,-20,-20
-59,-150,-91,105,16,-120,-160,43,91,-14,-16,-20
-63,-145,-81,104,10,-113,-160,46,89,-19,-11,-22
-50,-146,-96,98,23,-120,-160,42,86,-16,-9,-25
-32,-143,-111,88,40,-127,-160,40,83,-15,-4,-25
-41,-141,-101,91,30,-121,-163,40,80,-15,-1,-21
-39,-137,-98,88,30,-118,-165,40,80,-10,2,-20
-61,-152,-91,107,15,-121,-165,40,89,-10,6,-20
-86,-171,-86,129,0,-128,-164,39,90,-10,4,-15
-88,-170,-82,129,-3,-126,-174,35,86,-10,9,-15
-98,-168,-70,134,-14,-119,-190,35,84,-10,10,-15
-74,-165,-91,120,9,-128,-190,35,81,-14,9,-15
-55,-164,-109,110,27,-137,-190,35,79,-21,24,-15
-67,-167,-101,117,17,-134,-190,35,76,-28,31,-15
-81,-181,-100,131,10,-140,-190,38,74,-34,30,-15
-88,-185,-97,137,4,-140,-188,40,69,-41,28,-15
-85,-179,-94,133,4,-136,-180,40,69,-44,24,-11
-77,-175,-97,126,10,-136,-177,40,62,-35,25,-4
-70,-171,-101,121,15,-136,-170,40,70,-27,29,2
-75,-159,-84,117,5,-121,-166,40,78,-18,35,9
-70,-132,-63,101,-3,-97,-159,46,80,-10,42,16
-46,-123,-77,85,16,-100,-167,60,108,-1,52,21
-26,-119,-93,72,34,-106,-170,60,110,11,62,26
-26,-115,-89,70,32,-101,-156,65,116,26,73,28
-23,-110,-86,67,32,-98,-195,64,128,43,82,37
-22,-106,-83,64,31,-94,-235,47,113,29,78,39
-9,-108,-99,58,45,-103,-267,37,101,3,72,30
28,-118,-147,46,88,-132,-290,30,86,-3,70,25
15,-146,-160,66,88,-153,-276,19,68,-18,62,16
-24,-153,-129,89,52,-141,-264,12,59,-36,62,13
-29,-146,-118,88,45,-132,-240,3,71,-45,47,4
-50,-167,-117,109,33,-142,-219,0,71,-27,37,-3
-80,-191,-111,135,16,-151,-216,-7,27,-55,23,-14
-80,-190,-110,135,15,-149,-209,-13,23,-69,25,-22
-90,-193,-103,142,7,-148,-205,-17,27,-64,28,-29
-93,-196,-103,144,6,-149,-198,-19,9,-78,18,-45
-94,-192,-98,143,2,-145,-197,2,50,-33,37,-36
-76,-217,-141,146,33,-179,-136,119,84,-42,5,-40
-10,-237,-227,124,109,-232,43,525,409,218,130,28
221,-119,-340,-50,280,-230,-50,662,785,659,482,285
609,267,-343,-438,476,-38,-487,218,1110,1394,1232,881
461,589,128,-525,166,358,-884,-727,662,1199,1305,1016
-130,478,608,-175,-370,543,-1141,-1804,-868,-486,192,357
-306,283,589,11,-448,436,-1062,-1694,-1185,-954,-230,56
-219,161,380,29,-300,270,-712,-900,-577,-537,-110,40
-156,-36,120,95,-138,42,-401,-364,-243,-332,-95,-20
-103,-152,-49,128,-27,-100,-233,-55,-6,-147,-24,-8
-105,-179,-75,143,-15,-127,-197,-7,12,-153,-43,-31
-100,-199,-99,150,0,-149,-184,46,52,-97,-21,-27
-94,-206,-112,150,9,-158,-175,63,47,-99,-27,-40
-94,-204,-110,149,8,-157,-165,66,50,-83,-19,-44
-98,-205,-108,152,6,-156,-157,87,65,-70,-13,-41
-83,-204,-121,144,19,-162,-153,83,59,-71,-12,-40
-71,-207,-136,139,33,-171,-147,101,81,-53,0,-35
-93,-219,-126,156,17,-172,-141,122,79,-52,-2,-34
-93,-215,-122,154,15,-169,-136,140,94,-35,10,-30
-92,-210,-117,151,13,-163,-131,145,106,-26,10,-29
-97,-204,-107,151,5,-156,-126,172,118,6,22,-18
-55,-198,-143,127,44,-170,-123,204,156,34,42,-5
-32,-194,-161,113,65,-177,-117,228,172,42,45,7
-23,-188,-165,105,72,-177,-114,269,194,75,67,26
17,-182,-198,82,108,-190,-98,322,239,111,88,43
21,-178,-199,79,110,-188,-80,377,266,127,94,45
29,-163,-192,67,111,-177,-75,409,281,143,111,46
56,-133,-190,39,123,-161,-70,437,305,165,129,54
60,-123,-183,32,122,-153,-64,466,322,191,142,73
61,-119,-180,29,121,-150,-58,460,313,198,136,81
57,-114,-171,29,114,-142,-55,449,309,193,131,75
44,-110,-154,33,99,-132,-55,411,298,182,127,73
24,-105,-129,41,77,-117,-61,337,271,173,119,68
-2,-107,-106,55,52,-106,-86,261,219,139,117,65
-18,-112,-94,66,38,-103,-113,183,168,90,92,60
-17,-112,-95,65,39,-103,-124,132,131,60,63,52
-26,-121,-95,74,35,-108,-126,90,89,37,57,46
-27,-122,-95,75,34,-108,-124,53,68,22,52,38
-30,-125,-95,78,33,-110,-120,44,64,7,49,31
-55,-150,-94,103,19,-122,-120,46,58,5,44,24
-58,-149,-90,103,16,-119,-119,42,53,6,40,20
-53,-143,-90,98,19,-116,-114,40,47,1,45,20
-53,-142,-89,97,18,-115,-109,40,45,0,45,20
-51,-135,-84,94,17,-110,-105,40,45,0,45,20
-49,-134,-85,92,19,-110,-100,40,44,4,45,20
-58,-141,-82,100,12,-111,-95,40,46,9,44,20
-66,-145,-79,106,7,-112,-92,40,44,11,48,20
-57,-138,-80,98,12,-109,-87,40,49,15,50,20
-59,-135,-76,97,9,-105,-84,39,55,20,54,20
-55,-130,-75,93,10,-102,-81,34,48,18,55,20
-50,-125,-75,88,13,-100,-76,35,44,11,51,18
-55,-125,-70,90,8,-97,-74,32,38,4,48,15
-55,-125,-70,90,8,-97,-69,29,32,-3,45,12
-57,-125,-69,91,7,-97,-66,30,27,-9,42,10
-60,-125,-65,93,3,-95,-63,26,24,-15,40,7
-60,-125,-65,93,3,-95,-58,20,25,-19,37,4
-59,-123,-65,92,4,-94,-55,15,21,-24,35,9
-55,-120,-65,88,5,-92,-52,9,20,-27,35,10
-55,-120,-65,88,5,-92,-49,3,20,-32,31,10
-55,-120,-65,88,5,-92,-46,1,10,-34,29,10
-54,-120,-65,88,5,-92,-43,5,-1,-31,31,9
-56,-121,-65,89,4,-92,-40,8,-15,-28,34,12
-53,-113,-60,83,4,-86,-39,10,-23,-26,37,15
-39,-94,-55,67,8,-74,-34,14,-13,-22,39,17
-30,-81,-51,56,10,-66,-29,15,-3,-21,43,20
-20,-66,-46,43,13,-56,-24,20,8,-18,43,23
-14,-56,-42,36,14,-49,-20,24,17,-15,61,26
-17,-54,-37,35,11,-45,-15,17,27,-14,77,24
-18,-49,-31,34,7,-40,-22,9,26,-16,75,30
-23,-48,-25,36,2,-37,-65,3,11,-13,81,37
11,-40,-51,15,31,-45,-88,-7,-8,-17,63,31
32,-59,-90,14,61,-74,-80,-12,-20,-24,47,31
8,-83,-91,38,50,-87,-77,-21,-41,-47,38,25
0,-81,-80,41,40,-80,-69,-34,-47,-57,30,26
-12,-86,-74,50,32,-80,-66,-35,-37,-51,20,18
-22,-90,-68,56,23,-79,-57,-35,-53,-77,11,0
-52,-112,-60,82,4,-85,-48,-34,-59,-90,5,-13
-84,-139,-56,112,-14,-97,-37,-36,-59,-95,-11,-33
-93,-140,-47,116,-23,-93,-28,-41,-46,-78,-8,-33
-97,-141,-43,119,-27,-92,-18,-42,-57,-97,-34,-39
-109,-139,-29,124,-40,-84,-13,-32,-36,-71,-8,-28
-89,-143,-54,116,-17,-98,29,51,-34,-78,-25,-48
2,-152,-154,75,78,-153,214,414,203,78,25,-26
159,-70,-228,-44,194,-149,194,622,610,513,336,196
526,305,-222,-415,374,41,-217,236,953,1234,1055,754
565,689,124,-627,220,407,-688,-592,802,1444,1455,1096
30,608,578,-319,-275,593,-1016,-1681,-635,-96,469,540
-243,393,636,-76,-439,514,-962,-1829,-1370,-1052,-261,58
-177,270,447,-47,-312,359,-605,-1058,-788,-654,-156,29
-127,80,207,23,-167,143,-269,-478,-405,-425,-158,-28
-109,-57,51,83,-80,-3,-63,-132,-150,-207,-88,-29
-92,-85,7,89,-49,-39,-1,-40,-89,-158,-85,-38
-64,-80,-16,73,-24,-48,29,-5,-76,-147,-83,-44
-75,-92,-17,84,-29,-54,52,27,-51,-130,-73,-44
-70,-96,-26,84,-22,-61,58,39,-57,-136,-79,-47
-41,-94,-53,68,6,-73,64,59,-35,-113,-64,-43
-39,-96,-57,68,10,-76,68,61,-42,-119,-75,-47
-41,-94,-53,68,6,-74,76,85,-24,-97,-67,-43
-43,-96,-53,70,5,-74,83,82,-26,-96,-68,-42
-47,-93,-46,70,0,-69,85,98,-12,-79,-63,-38
-38,-106,-68,72,16,-87,98,124,11,-67,-59,-36
-20,-108,-87,64,34,-97,113,146,28,-53,-56,-32
-11,-90,-80,51,35,-85,113,170,59,-34,-52,-30
0,-78,-78,40,39,-78,121,202,90,-10,-43,-28
11,-63,-74,26,42,-68,129,241,111,16,-32,-19
19,-50,-70,16,44,-60,143,287,141,38,-24,-12
30,-37,-67,4,49,-52,157,340,183,70,-8,0
38,-26,-64,-5,51,-45,173,382,215,97,13,12
49,-13,-62,-18,56,-37,190,420,231,114,16,17
60,2,-58,-31,59,-28,183,433,239,111,15,23
70,14,-56,-41,62,-20,176,424,240,105,14,26
80,26,-54,-52,66,-14,168,414,225,100,9,31
72,33,-38,-52,55,-2,160,373,200,93,11,35
76,51,-25,-63,50,13,154,309,172,88,7,28
79,59,-20,-69,49,20,132,230,137,63,-5,18
63,50,-12,-56,37,19,113,149,102,33,-18,10
50,44,-6,-47,28,19,96,87,60,12,-31,0
35,36,1,-36,17,18,80,37,16,-18,-63,-8
22,29,7,-26,8,17,74,13,1,-43,-92,-11
12,23,11,-17,0,16,71,-2,-3,-53,-89,-15
3,19,17,-11,-7,18,67,-15,-11,-59,-91,-18
-3,17,20,-7,-12,18,63,-16,-17,-60,-89,-23
-11,14,25,-2,-19,19,60,-20,-24,-60,-91,-25
-19,11,30,4,-24,20,59,-24,-25,-65,-112,-20
-17,10,27,4,-22,18,65,-24,-25,-65,-116,-20
-14,10,24,1,-19,17,71,-18,-25,-65,-115,-19
-11,10,21,1,-16,16,70,-11,-25,-65,-120,-15
-9,10,18,-1,-14,14,70,-5,-26,-65,-119,-15
-4,11,15,-4,-10,12,70,3,-23,-65,-122,-17
-7,9,16,-1,-12,12,69,9,-20,-65,-125,-21
-6,14,20,-4,-13,17,79,6,-20,-65,-125,-20
7,26,20,-16,-7,23,87,-1,-20,-69,-125,-20
5,25,20,-15,-8,22,82,-5,-20,-70,-125,-20
1,22,20,-11,-9,21,80,-11,-20,-70,-129,-21
-1,19,20,-9,-10,20,76,-16,-24,-75,-136,-24
-5,16,20,-5,-13,17,74,-21,-27,-75,-142,-26
-5,14,20,-5,-13,17,75,-25,-32,-76,-149,-30
-10,10,20,0,-15,15,75,-29,-34,-80,-156,-28
-10,10,20,0,-15,15,75,-34,-39,-82,-160,-24
-12,9,20,1,-16,14,75,-35,-46,-86,-162,-25
-15,5,20,5,-18,12,75,-35,-45,-81,-165,-25
-15,5,20,5,-18,12,75,-35,-45,-79,-165,-25
-12,8,20,2,-16,13,75,-44,-45,-80,-165,-24
-3,17,20,-7,-12,19,74,-44,-45,-79,-165,-21
-16,25,41,-5,-29,33,76,-40,-43,-81,-165,-18
-14,34,48,-11,-31,41,73,-37,-36,-79,-165,-16
8,60,52,-34,-22,55,81,-32,-29,-75,-164,-12
11,83,72,-48,-31,78,93,-29,-23,-76,-160,-11
26,92,66,-59,-20,78,86,-25,-14,-72,-160,-7
38,91,53,-65,-8,72,87,-24,-11,-69,-159,5
57,99,42,-78,7,70,67,-18,-1,-70,-161,18
65,101,36,-84,14,68,20,-27,-1,-73,-158,21
55,79,24,-67,16,51,7,-59,-41,-78,-168,14
106,64,-42,-85,74,11,3,-62,-49,-80,-192,11
125,60,-65,-92,95,-3,-5,-67,-56,-87,-197,3
76,48,-27,-62,51,10,6,-87,-69,-83,-193,-1
55,45,-10,-49,32,17,33,-91,-70,-86,-197,-7
21,25,4,-23,9,14,46,-90,-72,-92,-210,-21
-27,-13,14,20,-21,1,43,-89,-84,-112,-237,-42
-37,-22,16,29,-27,-2,49,-92,-110,-125,-250,-53
-39,-19,20,29,-30,1,47,-87,-95,-100,-233,-46
-44,-21,23,32,-34,1,55,-93,-121,-116,-245,-56
-42,-19,23,30,-32,2,43,-80,-88,-77,-218,-41
-3,-32,-28,18,12,-30,126,51,-47,-103,-243,-69
66,-26,-91,-20,78,-58,306,397,198,64,-179,-39
224,79,-144,-151,184,-33,195,496,562,486,105,180
583,429,-155,-506,369,137,-250,84,912,1194,788,706
621,776,155,-698,233,465,-824,-748,739,1354,1145,1026
144,643,500,-394,-178,571,-1152,-1812,-720,-166,207,515
-109,410,520,-151,-315,465,-969,-1821,-1321,-979,-416,96
-81,328,409,-124,-245,368,-574,-1027,-721,-587,-324,54
-69,155,224,-43,-146,189,-215,-493,-396,-404,-352,-29
-57,34,91,12,-74,62,-15,-159,-161,-223,-307,-55
-54,3,57,25,-55,29,50,-88,-128,-197,-311,-67
-53,-9,44,31,-48,17,79,-57,-117,-162,-304,-71
-58,-15,43,36,-50,14,78,-28,-99,-141,-303,-87
-55,-25,30,40,-42,2,86,-17,-97,-142,-308,-84
-57,-31,25,44,-41,-3,94,9,-76,-121,-301,-79
-56,-40,17,48,-36,-11,95,19,-83,-125,-309,-79
-45,-34,11,40,-28,-11,94,41,-68,-106,-298,-73
-35,-29,6,31,-20,-11,102,45,-62,-107,-296,-74
-24,-24,0,24,-11,-12,118,73,-36,-87,-286,-67
-13,-17,-5,16,-4,-11,118,95,-18,-68,-281,-66
-2,-13,-10,8,4,-11,125,123,1,-48,-274,-62
7,-7,-15,0,11,-11,130,157,23,-32,-268,-57
22,3,-20,-12,21,-8,139,195,50,-11,-256,-55
35,12,-23,-23,29,-5,164,244,77,11,-241,-50
52,22,-29,-37,40,-3,178,298,114,40,-231,-43
61,32,-28,-46,44,2,204,359,154,73,-222,-36
64,41,-22,-52,43,9,224,402,180,94,-214,-29
81,62,-19,-72,50,21,223,427,190,117,-206,-23
88,75,-13,-81,50,31,230,426,186,118,-199,-17
96,85,-11,-90,53,37,244,412,181,111,-194,-11
83,95,12,-89,35,53,233,408,178,107,-195,-6
48,90,42,-70,3,66,200,381,167,99,-192,-1
41,86,45,-64,-2,66,167,305,137,96,-189,5
39,84,45,-62,-3,64,122,214,94,76,-190,9
34,79,45,-57,-6,62,82,128,50,45,-194,5
31,76,45,-54,-7,61,54,60,10,15,-206,-3
27,72,45,-50,-9,58,41,20,-28,-7,-211,-9
23,64,41,-44,-9,52,36,-13,-54,-19,-220,-16
19,58,38,-39,-10,48,29,-43,-54,-39,-235,-22
15,50,36,-33,-11,43,23,-56,-56,-51,-235,-28
10,42,32,-27,-11,37,16,-48,-65,-52,-236,-30
6,36,30,-21,-13,33,11,-44,-65,-56,-240,-30
3,30,28,-17,-13,29,10,-38,-65,-55,-240,-30
5,30,25,-18,-10,27,10,-32,-65,-55,-238,-30
5,30,25,-18,-10,27,10,-28,-65,-55,-234,-30
5,30,25,-18,-10,27,10,-24,-64,-55,-235,-35
5,31,26,-18,-10,28,9,-22,-60,-56,-231,-35
4,27,24,-16,-10,25,5,-19,-61,-54,-230,-35
3,25,22,-14,-10,23,5,-16,-57,-50,-230,-35
11,25,15,-18,-3,20,5,-15,-55,-50,-225,-34
3,21,18,-13,-8,19,5,-20,-55,-48,-225,-38
-18,20,38,-1,-28,28,5,-23,-59,-44,-224,-40
-14,19,33,-3,-23,26,1,-27,-61,-45,-220,-41
-7,16,23,-4,-16,19,0,-48,-60,-45,-220,-45
-2,14,17,-6,-10,15,0,-57,-65,-45,-218,-45
7,16,8,-12,-1,12,0,-54,-64,-45,-214,-45
13,14,2,-13,5,8,0,-55,-67,-44,-216,-45
24,16,-8,-20,15,4,-1,-55,-70,-50,-210,-45
19,12,-7,-15,13,2,-5,-54,-71,-65,-211,-45
3,2,-1,-3,2,0,-5,-51,-74,-69,-209,-45
9,11,2,-11,3,7,-7,-48,-75,-64,-207,-43
10,16,7,-14,1,11,-11,-46,-86,-59,-226,-37
0,14,14,-7,-8,14,-10,-42,-86,-53,-221,-32
-17,8,25,4,-21,17,-7,-41,-75,-48,-206,-29
-16,19,35,-2,-26,27,-3,-38,-69,-43,-200,-24
7,44,37,-26,-16,40,-1,-34,-60,-36,-193,-20
25,53,28,-39,-2,40,5,-35,-56,-29,-189,-13
31,57,26,-45,3,41,3,-30,-54,-22,-182,-4
40,58,18,-49,10,38,-17,-30,-56,-16,-178,4
80,94,14,-87,33,54,-51,-28,-54,-10,-172,14
84,92,8,-88,38,50,-90,-44,-55,-17,-170,15
87,43,-44,-65,66,-1,-107,-68,-58,-28,-170,7
105,33,-72,-69,88,-19,-101,-72,-59,-37,-167,1
78,25,-53,-51,65,-14,-87,-87,-85,-50,-164,-7
45,16,-29,-31,37,-6,-78,-91,-95,-54,-165,-11
15,-3,-19,-6,17,-11,-70,-90,-98,-67,-172,-21
-5,-26,-21,16,8,-23,-62,-89,-90,-58,-177,-42
-29,-48,-19,39,-5,-34,-55,-92,-100,-80,-203,-60
-47,-68,-21,57,-13,-44,-46,-88,-97,-80,-203,-62
-47,-65,-18,56,-15,-41,-46,-84,-106,-94,-215,-83
-28,-52,-24,40,-2,-38,-36,-74,-93,-76,-207,-78
-36,-50,-14,43,-11,-32,-28,-45,-60,-50,-210,-80
0,-70,-70,36,35,-70,114,201,48,3,-181,-78
118,-49,-166,-34,142,-107,222,561,415,316,10,47
439,190,-249,-314,343,-29,-81,398,752,866,507,444
729,607,-123,-668,426,242,-572,-215,972,1511,1226,1014
344,690,346,-517,-1,518,-989,-1310,-15,596,755,805
-123,480,603,-179,-364,541,-1097,-1998,-1297,-863,-260,174
-154,358,511,-102,-333,434,-802,-1411,-1008,-753,-332,43
-125,200,325,-38,-225,262,-433,-705,-507,-433,-280,-8
-85,34,119,25,-102,76,-162,-276,-240,-248,-260,-53
-57,-39,18,48,-38,-10,-50,-90,-97,-130,-221,-54
-71,-81,-11,76,-30,-46,-20,-74,-113,-125,-234,-66
-72,-95,-23,84,-24,-58,1,-23,-68,-74,-209,-75
-78,-85,-8,82,-35,-46,0,-23,-82,-107,-217,-82
-59,-79,-20,69,-19,-50,9,1,-57,-87,-200,-69
-20,-73,-53,47,17,-63,13,9,-55,-84,-201,-71
-11,-65,-55,38,22,-60,19,27,-45,-68,-189,-62
-19,-74,-55,47,19,-65,24,36,-36,-56,-180,-61
-38,-92,-54,65,9,-73,32,56,-31,-46,-171,-52
-35,-91,-56,63,11,-74,35,77,-19,-34,-159,-47
-11,-79,-68,45,29,-74,40,92,12,-28,-152,-37
1,-70,-71,35,36,-71,50,125,27,-19,-142,-41
8,-60,-68,26,38,-64,50,139,40,-3,-134,-65
20,-55,-75,18,48,-65,62,185,76,20,-119,-41
36,-49,-86,7,61,-67,77,236,107,61,-93,-19
38,-44,-82,3,60,-62,99,285,151,106,-64,-10
39,-40,-79,0,59,-59,113,335,175,118,-50,4
52,-22,-75,-14,64,-48,126,371,212,149,-42,11
65,-5,-71,-30,68,-38,140,405,230,163,-33,19
71,3,-68,-37,69,-32,135,404,222,158,-24,28
69,8,-61,-38,64,-26,129,396,222,162,-16,33
72,18,-54,-45,63,-18,124,372,220,159,-7,44
77,30,-47,-53,62,-9,118,323,204,162,-1,54
66,25,-41,-45,53,-8,90,247,157,147,-10,46
52,17,-35,-34,43,-9,61,158,114,112,-19,37
42,12,-30,-27,36,-9,47,93,65,76,-39,28
33,4,-30,-18,31,-13,30,42,22,42,-72,18
29,-1,-30,-14,30,-15,24,8,3,13,-87,13
23,-7,-30,-8,27,-18,21,-8,-3,-7,-83,5
16,-13,-30,-2,23,-21,17,-14,-23,-23,-91,-1
15,-17,-32,1,24,-24,14,-18,-50,-36,-114,-8
0,-35,-35,18,18,-35,10,-23,-56,-35,-116,-14
-10,-45,-35,28,13,-40,14,-28,-54,-35,-114,-11
0,-35,-35,18,18,-35,17,-31,-55,-35,-115,-10
6,-29,-35,12,21,-32,22,-30,-55,-35,-115,-10
11,-23,-34,6,23,-29,25,-30,-55,-34,-114,-5
17,-14,-31,-1,24,-22,25,-30,-55,-30,-108,-5
1,-25,-26,13,14,-25,25,-30,-55,-30,-104,-4
-12,-36,-24,24,6,-30,25,-30,-55,-28,-100,0
-16,-35,-19,26,2,-27,25,-34,-55,-25,-95,0
-18,-34,-16,27,0,-25,29,-35,-55,-25,-90,0
-24,-36,-12,30,-6,-24,30,-35,-56,-29,-90,0
-50,-53,-3,52,-23,-27,30,-40,-60,-30,-90,0
-48,-53,-5,51,-21,-29,30,-40,-59,-30,-90,-4
-33,-44,-12,39,-10,-28,30,-41,-63,-30,-90,-5
-28,-45,-17,36,-5,-31,31,-45,-65,-30,-90,-5
-12,-35,-22,24,5,-28,35,-45,-65,-29,-90,-10
-10,-40,-30,26,11,-35,35,-45,-68,-25,-90,-10
-24,-64,-40,44,8,-52,35,-50,-72,-25,-90,-11
-31,-66,-35,49,2,-50,35,-53,-73,-25,-90,-15
-37,-64,-27,51,-4,-45,35,-48,-81,-25,-90,-15
-40,-61,-21,51,-9,-41,35,-47,-90,-25,-90,-15
-46,-59,-13,53,-16,-36,34,-43,-84,-21,-87,-15
-50,-59,-9,55,-21,-34,51,-41,-79,-14,-81,-16
-35,-28,7,31,-20,-11,63,-38,-74,-8,-77,-10
-39,-5,34,22,-36,15,58,-35,-66,-1,-73,-1
-35,4,39,15,-37,21,56,-35,-68,6,-68,7
-14,16,30,-1,-22,23,48,-31,-69,12,-63,16
-3,21,24,-9,-14,22,44,-30,-70,18,-60,25
35,54,19,-45,8,36,33,-27,-69,15,-59,32
55,52,-3,-54,29,24,6,-50,-71,0,-60,27
69,21,-48,-45,58,-13,0,-73,-83,-9,-60,24
88,20,-69,-54,78,-24,11,-79,-97,-20,-59,21
63,7,-57,-35,60,-24,14,-99,-108,-31,-62,16
47,3,-43,-25,45,-20,29,-100,-97,-34,-55,14
27,-10,-37,-8,32,-23,54,-100,-114,-52,-69,-2
-20,-43,-23,32,1,-33,61,-100,-135,-49,-88,-24
-50,-68,-18,59,-16,-43,66,-101,-158,-63,-111,-46
-72,-84,-12,78,-30,-47,77,-99,-149,-46,-107,-41
-73,-84,-11,79,-30,-48,93,-109,-150,-55,-112,-38
-60,-66,-5,63,-27,-35,98,-103,-145,-45,-110,-34
-55,-62,-8,59,-23,-35,90,-70,-134,-41,-106,-26
-15,-99,-84,57,35,-91,221,158,-44,-17,-92,-32
89,-78,-167,-5,128,-122,337,542,338,316,97,58
418,148,-270,-283,344,-61,86,435,698,879,608,458
691,580,-112,-635,401,234,-367,-176,928,1566,1357,1046
319,732,414,-526,-48,573,-773,-1250,-12,729,939,849
-177,516,693,-170,-436,604,-921,-1983,-1375,-834,-138,192
-212,364,576,-76,-394,470,-677,-1482,-1179,-809,-251,43
-127,207,334,-40,-231,270,-305,-763,-647,-464,-183,0
-74,48,122,12,-98,85,-32,-323,-377,-277,-159,-46
-57,-27,30,42,-43,1,88,-119,-215,-138,-102,-53
-71,-64,6,67,-38,-29,121,-85,-224,-140,-119,-66
-56,-58,-2,57,-27,-30,137,-38,-188,-89,-90,-56
-56,-64,-8,61,-24,-36,136,-35,-200,-106,-98,-69
-53,-66,-12,60,-20,-39,144,-12,-180,-78,-80,-62
-43,-62,-19,53,-12,-40,150,-4,-179,-78,-79,-64
-36,-60,-24,48,-6,-42,157,3,-169,-67,-70,-57
-45,-59,-14,53,-15,-37,165,19,-158,-58,-63,-52
-48,-60,-13,54,-17,-36,169,34,-153,-53,-59,-49
-34,-60,-25,47,-4,-42,171,53,-138,-42,-50,-43
-28,-60,-32,44,2,-46,168,71,-130,-30,-46,-40
-12,-54,-42,33,15,-48,177,92,-113,-7,-34,-34
1,-49,-49,24,25,-49,195,126,-92,13,-26,-28
7,-43,-49,18,28,-46,199,160,-68,38,-15,-21
30,-38,-68,4,49,-53,201,195,-45,56,-2,-14
47,-29,-76,-8,62,-53,220,247,-16,87,16,-8
61,-7,-69,-27,65,-38,237,293,17,114,38,-3
76,8,-68,-42,72,-29,245,329,42,134,49,4
75,13,-62,-43,68,-24,266,345,64,159,59,9
96,36,-60,-66,78,-12,274,336,70,164,66,14
115,61,-53,-88,84,4,264,325,55,155,65,21
110,65,-45,-87,77,10,260,314,42,147,64,24
103,66,-37,-84,69,14,248,272,23,140,59,31
93,64,-29,-78,60,17,221,197,-14,128,61,32
82,60,-22,-70,52,19,189,118,-57,105,56,22
68,60,-8,-64,38,26,164,50,-101,70,42,15
57,58,1,-57,28,29,158,1,-139,33,28,7
44,51,6,-48,19,28,155,-31,-168,15,19,1
33,44,11,-39,11,27,151,-50,-186,-1,13,-6
20,38,17,-29,1,27,147,-67,-195,-11,6,-13
8,31,23,-19,-8,27,144,-76,-203,-13,0,-19
2,25,23,-14,-11,24,145,-75,-205,-17,-8,-27
1,20,19,-11,-9,20,145,-72,-205,-20,-8,-29
-1,19,20,-9,-11,20,145,-70,-205,-25,-4,-25
-21,14,35,4,-29,24,145,-70,-205,-23,-5,-25
-19,19,39,0,-29,29,144,-65,-205,-20,-1,-25
9,39,30,-24,-11,34,147,-65,-205,-17,0,-25
13,41,27,-27,-7,34,150,-64,-205,-14,-1,-25
18,36,19,-27,-1,27,150,-60,-205,-11,-5,-25
17,34,17,-26,-1,26,150,-60,-205,-10,-5,-25
1,31,30,-16,-14,30,150,-58,-206,-15,-6,-25
-1,29,30,-14,-15,29,149,-55,-204,-15,-10,-25
0,26,26,-14,-13,26,145,-55,-209,-15,-10,-25
0,23,24,-12,-12,23,145,-58,-212,-15,-12,-26
0,20,20,-10,-10,20,145,-62,-217,-15,-15,-30
-1,17,19,-8,-10,18,145,-67,-225,-15,-18,-30
0,14,14,-8,-8,14,145,-68,-224,-15,-21,-30
7,18,11,-12,-2,14,145,-82,-235,-23,-24,-34
14,21,8,-18,3,14,145,-97,-238,-32,-25,-35
17,20,3,-19,7,11,145,-94,-246,-34,-20,-35
20,20,0,-20,10,10,145,-98,-257,-38,-20,-39
17,21,4,-19,6,12,145,-100,-254,-40,-20,-40
9,19,10,-14,0,15,145,-100,-253,-37,-20,-39
5,21,16,-13,-5,18,149,-97,-249,-34,-21,-34
-6,16,21,-5,-14,18,150,-91,-251,-31,-17,-29
-11,16,27,-3,-19,21,154,-87,-246,-28,-11,-25
26,53,27,-40,-1,40,155,-82,-240,-26,-6,-20
48,73,24,-61,12,48,158,-78,-234,-24,0,-16
29,55,26,-43,2,40,157,-72,-229,-15,5,-12
45,69,24,-58,10,46,144,-69,-230,-4,14,-9
78,104,26,-91,25,65,133,-58,-229,4,27,-6
88,109,21,-99,33,65,124,-69,-230,10,33,-3
88,86,-2,-87,45,41,118,-109,-229,-8,25,0
89,39,-50,-64,69,-5,110,-116,-240,-26,22,-1
87,15,-73,-50,80,-29,105,-121,-257,-31,15,-9
82,38,-44,-60,62,-3,95,-135,-256,-30,10,-16
68,42,-25,-55,46,8,108,-135,-260,-27,6,-21
35,17,-18,-25,26,-1,134,-135,-266,-46,-13,-36
7,7,0,-7,3,3,130,-134,-271,-66,-30,-58
-27,-14,13,20,-20,-1,142,-136,-284,-77,-39,-68
-49,-38,11,43,-29,-14,142,-134,-265,-59,-21,-62
-43,-49,-6,46,-18,-27,150,-135,-282,-84,-29,-68
-28,-41,-13,35,-7,-26,138,-132,-255,-54,-6,-55
-12,-50,-38,31,14,-44,200,-35,-231,-66,-16,-65
35,-56,-91,10,64,-73,386,298,-25,61,18,-46
207,38,-170,-122,188,-66,325,459,344,446,276,133
573,359,-214,-466,394,72,-81,103,684,1118,918,630
683,755,72,-719,305,414,-669,-681,641,1453,1370,1031
240,675,435,-458,-98,555,-1039,-1760,-689,84,573,595
-77,420,497,-171,-287,458,-899,-1935,-1478,-916,-151,113
-79,327,406,-124,-243,366,-518,-1174,-934,-574,-83,53
-53,157,210,-52,-131,183,-143,-602,-569,-366,-91,-25
-10,39,49,-14,-30,44,86,-264,-337,-186,-70,-55
-20,-12,9,16,-14,-2,158,-159,-270,-139,-67,-77
-24,-33,-8,29,-8,-20,184,-130,-260,-122,-64,-81
-1,-28,-27,15,13,-27,203,-96,-232,-100,-49,-78
-1,-32,-31,17,15,-31,211,-91,-237,-106,-53,-82
-2,-25,-23,14,11,-24,209,-69,-210,-79,-41,-78
-3,-26,-23,14,11,-24,213,-64,-213,-85,-46,-82
-8,-24,-16,16,5,-20,216,-45,-196,-67,-37,-75
-5,-21,-15,13,5,-18,214,-34,-193,-65,-38,-75
4,-16,-20,6,13,-18,221,-13,-173,-55,-34,-71
13,-14,-27,1,20,-20,229,10,-152,-46,-31,-68
26,-9,-35,-8,30,-22,239,36,-133,-34,-22,-66
29,-6,-35,-11,33,-20,247,68,-106,-18,-14,-64
34,-1,-35,-16,34,-18,250,106,-79,5,-6,-56
50,15,-35,-33,42,-9,271,149,-42,29,1,-45
72,37,-35,-53,53,1,293,198,-5,51,12,-36
87,53,-34,-70,61,9,313,251,31,84,29,-30
77,51,-26,-64,51,12,334,297,62,104,45,-25
85,67,-18,-75,51,24,346,329,71,128,48,-19
109,99,-10,-104,59,44,354,329,63,116,49,-14
102,100,-3,-101,52,48,362,324,60,121,55,-9
98,102,4,-100,47,53,363,311,52,112,53,-3
95,106,11,-100,41,58,340,267,49,107,71,4
88,104,16,-97,36,60,298,203,36,115,64,11
82,113,31,-98,25,72,255,114,-12,82,62,18
65,101,36,-83,14,68,223,31,-51,104,50,24
49,84,35,-67,7,59,191,-33,-87,-11,47,21
34,72,39,-53,-3,55,170,-85,-125,160,90,9
26,66,40,-46,-8,53,165,-120,-143,169,-36,3
19,59,40,-39,-10,49,159,-135,-159,-113,-125,-8
33,55,22,-44,5,38,153,-111,-166,-49,-82,-14
