I,II,III,aVR,aVL,aVF,V1,V2,V3,V4,V5,V6
-208,-155,53,181,-130,-51,-384,-1082,-1004,-732,-532,-228
-159,-85,74,122,-117,-5,-282,-857,-797,-610,-471,-209
-135,-37,97,86,-116,30,-2,-372,-360,-305,-308,-172
-80,-23,56,51,-68,16,170,-127,-98,-123,-187,-125
-120,-48,72,84,-96,12,200,-61,-25,-78,-163,-110
-131,-61,71,96,-101,5,216,-18,4,-53,-152,-120
-120,-63,57,91,-88,-3,232,7,47,-28,-142,-115
-120,-68,52,94,-85,-7,251,28,81,-15,-134,-110
-108,-61,46,84,-77,-7,256,37,79,-12,-126,-104
-111,-53,57,82,-84,2,255,56,84,-2,-118,-98
-109,-51,58,80,-83,3,256,61,98,2,-110,-94
-103,-50,52,76,-77,1,255,60,107,-2,-103,-85
-54,-5,49,30,-51,21,256,71,130,6,-94,-78
-40,3,43,18,-42,23,255,93,148,20,-87,-69
-68,-27,40,47,-54,6,255,104,150,47,-77,-63
-64,-30,33,47,-48,2,247,104,152,47,-68,-55
-79,-37,42,58,-60,2,264,133,180,61,-53,-49
-87,-33,54,60,-70,10,285,153,214,92,-40,-44
-72,-26,46,49,-59,9,271,180,234,96,-23,-28
-72,-33,39,53,-55,3,267,226,285,141,15,-10
-21,10,31,5,-26,21,284,253,321,169,42,3
23,47,23,-35,0,35,303,287,357,203,66,27
51,73,22,-63,15,47,307,342,415,258,112,79
55,85,30,-70,13,57,302,378,450,295,154,108
65,94,29,-80,18,61,312,400,505,355,197,132
114,151,37,-133,38,94,336,421,529,372,224,162
93,153,60,-123,16,107,337,392,513,366,216,152
80,134,55,-107,12,94,328,342,490,344,201,138
63,112,50,-88,6,81,324,284,422,283,168,115
24,96,72,-60,-25,84,318,208,357,229,109,73
-20,59,79,-20,-50,69,303,140,280,156,43,21
-35,30,65,2,-50,47,289,71,201,81,-9,-16
-33,22,55,5,-44,38,281,18,146,27,-51,-45
-43,10,53,17,-48,31,273,-16,101,-18,-82,-69
-57,-11,46,34,-51,17,262,-42,80,-44,-107,-72
-91,-47,44,69,-67,-1,250,-50,71,-59,-123,-88
-90,-55,35,73,-62,-10,239,-63,66,-74,-129,-101
-81,-55,27,68,-54,-14,248,-71,60,-81,-136,-101
-95,-36,59,65,-77,11,269,-69,59,-77,-134,-96
-118,-50,68,84,-93,9,257,-79,49,-73,-131,-92
-74,-29,45,51,-59,8,247,-75,61,-70,-129,-87
-52,-15,37,33,-44,11,240,-54,89,-65,-125,-83
-90,-56,34,72,-62,-11,240,-48,92,-63,-125,-79
-79,-44,35,61,-57,-4,261,-41,93,-58,-125,-83
-74,-39,36,56,-55,-1,245,-34,95,-54,-124,-99
-119,-86,33,102,-76,-27,237,-63,86,-72,-132,-95
-82,-39,43,60,-62,2,260,-47,87,-80,-135,-87
-40,2,42,19,-41,22,254,-13,102,-71,-119,-81
-92,-58,34,75,-62,-12,248,-31,87,-69,-112,-76
-39,1,39,19,-39,20,244,-30,99,-61,-109,-81
-28,20,48,3,-38,34,236,-29,121,-56,-106,-79
-93,-39,53,66,-73,7,238,-27,104,-59,-104,-83
-109,-63,46,86,-78,-8,240,-23,100,-59,-98,-85
-98,-60,38,78,-67,-11,240,-30,89,-61,-105,-85
-96,-62,34,79,-65,-14,240,-35,86,-74,-109,-88
-118,-95,24,106,-71,-35,240,-35,102,-85,-105,-91
-111,-88,23,99,-67,-32,240,-27,98,-71,-94,-88
-128,-90,38,109,-83,-26,234,-41,90,-84,-110,-94
-117,-84,34,100,-75,-25,228,-60,88,-101,-139,-101
-98,-73,25,85,-61,-24,222,-60,84,-93,-122,-83
-96,-76,20,86,-58,-28,217,-59,81,-89,-115,-73
-105,-91,14,98,-59,-39,212,-61,77,-83,-126,-76
-82,-66,16,73,-49,-25,206,-57,69,-77,-124,-70
-59,-47,12,53,-35,-17,201,-52,62,-76,-125,-70
-96,-86,10,91,-53,-38,196,-45,56,-101,-125,-89
-77,-67,10,72,-43,-28,189,-41,46,-112,-125,-96
-86,-84,2,85,-44,-41,186,-70,44,-109,-124,-95
-106,-108,-2,107,-51,-54,190,-75,59,-110,-117,-94
-113,-108,4,110,-58,-52,187,-71,58,-111,-125,-98
-104,-94,11,99,-57,-41,190,-90,50,-125,-135,-106
-87,-78,9,83,-48,-34,190,-85,49,-120,-115,-80
-103,-99,4,100,-53,-47,171,-79,41,-111,-99,-73
-97,-90,7,93,-52,-41,161,-73,42,-107,-111,-82
-103,-85,17,94,-60,-34,168,-71,49,-97,-120,-73
-100,-89,12,94,-55,-38,169,-75,51,-99,-114,-84
-99,-104,-4,102,-48,-54,163,-72,49,-103,-108,-90
-99,-87,12,93,-56,-37,162,-69,50,-94,-103,-82
-88,-73,14,80,-51,-30,155,-66,50,-84,-97,-78
-82,-81,1,81,-41,-40,157,-63,49,-84,-93,-71
-92,-63,28,77,-60,-17,180,-60,67,-82,-86,-66
-111,-75,36,92,-73,-19,181,-59,76,-73,-80,-61
-103,-68,35,85,-69,-16,170,-37,74,-65,-73,-55
-71,-37,34,53,-52,-1,193,-19,81,-58,-66,-51
-58,-21,37,39,-47,8,212,-5,98,-51,-61,-44
-59,-17,42,38,-51,13,194,2,102,-49,-64,-39
-65,-33,32,48,-48,0,168,-24,87,-54,-67,-33
-36,-14,22,25,-29,4,136,-58,79,-65,-68,-29
-37,-32,5,34,-21,-14,95,-96,65,-87,-81,-40
-82,-61,21,71,-51,-20,95,-100,62,-95,-89,-45
-36,-51,-14,43,-11,-33,114,-104,48,-98,-81,-33
-34,-79,-45,57,6,-62,118,-72,63,-83,-73,-37
-62,-71,-9,66,-26,-40,128,-56,56,-80,-72,-32
-65,-94,-28,80,-18,-61,145,-71,36,-98,-85,-42
-90,-131,-40,111,-25,-85,144,-77,34,-118,-110,-80
-82,-110,-28,97,-27,-69,139,-69,39,-99,-98,-77
-80,-124,-44,102,-18,-84,142,-49,49,-108,-112,-84
-79,-103,-25,92,-26,-64,128,-68,58,-100,-99,-74
-82,-128,-46,105,-18,-86,147,-6,73,-82,-109,-86
-70,-100,-30,85,-20,-65,180,28,106,-62,-100,-77
-14,-94,-81,55,34,-87,336,442,534,253,101,-9
341,119,-222,-230,281,-51,186,766,1140,954,723,409
747,600,-147,-673,447,226,-468,122,1463,1692,1523,1051
569,566,-3,-568,286,281,-908,-937,494,890,997,878
144,283,139,-214,2,211,-843,-1504,-945,-563,-79,291
-108,-36,72,72,-90,18,-525,-1196,-1002,-773,-372,-51
-169,-181,-12,175,-78,-97,-262,-728,-627,-594,-399,-168
-156,-88,69,122,-112,-9,-2,-311,-247,-314,-222,-91
-159,-112,47,136,-103,-32,129,-67,6,-141,-133,-92
-144,-99,44,121,-94,-27,150,-52,18,-133,-119,-91
-111,-82,29,97,-70,-26,199,22,94,-87,-79,-86
-81,-60,21,71,-51,-19,185,29,97,-104,-92,-87
-87,-70,17,78,-52,-26,191,42,119,-83,-81,-84
-112,-92,20,101,-66,-35,196,52,118,-75,-93,-74
-115,-77,38,96,-76,-19,196,44,121,-54,-79,-60
-92,-79,13,85,-52,-33,190,69,146,-46,-70,-63
-84,-70,14,77,-49,-27,180,90,166,-41,-65,-55
-81,-63,18,72,-49,-23,176,92,174,-22,-53,-47
-70,-62,8,66,-39,-27,165,109,183,2,-39,-23
-35,-33,3,34,-19,-15,175,129,201,13,-32,-17
-41,-47,-6,44,-17,-26,169,135,215,27,-22,-6
-28,-42,-14,36,-7,-28,162,145,231,53,-1,-4
-7,-16,-9,12,1,-12,189,171,256,56,11,-7
-28,-33,-5,31,-11,-19,197,203,286,75,31,10
5,13,8,-9,-2,10,195,242,326,119,67,42
42,45,3,-43,20,23,195,286,370,156,101,73
57,54,-3,-55,30,25,197,339,414,194,134,91
34,55,22,-45,5,38,209,377,468,240,170,118
46,70,25,-58,10,47,201,403,514,284,210,147
91,106,15,-99,38,60,191,442,553,326,242,173
111,128,17,-120,47,72,220,437,567,350,256,188
102,143,41,-123,31,92,219,406,544,341,244,181
84,110,26,-97,29,67,182,355,505,325,229,168
59,94,35,-77,11,65,191,282,444,276,196,148
20,89,69,-55,-25,79,178,208,374,205,151,102
24,72,47,-48,-12,59,146,128,298,137,98,64
-14,24,39,-6,-27,31,127,58,210,61,31,33
-51,-18,33,34,-42,8,107,10,149,9,-9,-2
-33,-3,30,18,-31,13,87,-36,108,-37,-43,-30
-59,-32,27,45,-42,-3,68,-62,77,-62,-65,-47
-73,-50,23,61,-48,-13,65,-73,52,-76,-70,-55
-50,-33,17,42,-33,-8,60,-88,36,-94,-77,-61
-68,-47,21,57,-44,-13,57,-87,33,-100,-88,-66
-104,-67,37,85,-70,-15,50,-84,29,-105,-98,-70
-111,-76,35,93,-73,-21,56,-80,25,-99,-95,-64
-85,-52,33,68,-59,-9,66,-75,22,-95,-90,-60
-87,-57,30,72,-59,-13,67,-71,17,-91,-82,-56
-93,-63,29,78,-61,-17,70,-66,26,-85,-76,-51
-75,-46,29,61,-52,-9,77,-59,43,-75,-69,-48
-71,-51,20,61,-46,-15,86,-52,49,-64,-63,-44
-62,-45,17,53,-39,-14,79,-46,47,-60,-60,-41
-53,-44,9,48,-30,-17,75,-39,61,-60,-56,-36
-53,-50,4,51,-28,-23,71,-34,72,-58,-53,-34
-64,-50,14,56,-39,-17,66,-29,66,-54,-48,-30
-70,-55,15,62,-42,-20,63,-35,66,-57,-45,-30
-70,-55,15,62,-42,-20,58,-51,59,-53,-50,-30
-47,-37,10,42,-28,-13,55,-51,64,-61,-51,-29
-44,-33,11,39,-27,-11,51,-48,44,-80,-49,-34
-39,-31,8,35,-23,-11,48,-71,46,-80,-64,-49
-34,-37,-3,36,-15,-20,44,-82,74,-80,-72,-51
-72,-55,17,63,-44,-18,41,-78,53,-79,-68,-48
-73,-62,11,67,-41,-26,34,-83,34,-83,-71,-53
-43,-51,-8,47,-17,-29,33,-75,26,-83,-69,-44
-58,-73,-16,66,-21,-44,24,-90,17,-89,-77,-59
-46,-65,-19,56,-14,-42,30,-81,25,-106,-91,-51
-50,-49,1,49,-25,-24,42,-72,34,-100,-84,-42
-95,-101,-6,98,-44,-53,19,-97,0,-96,-84,-67
-41,-46,-5,44,-18,-25,16,-91,7,-93,-69,-39
-43,-40,3,41,-23,-18,14,-97,39,-89,-68,-39
-91,-95,-4,93,-44,-49,4,-105,27,-91,-91,-59
-88,-88,1,88,-44,-43,-1,-102,23,-85,-83,-50
-103,-91,12,97,-58,-39,-11,-96,15,-86,-78,-49
-99,-90,9,95,-54,-40,-13,-95,10,-83,-75,-44
-81,-96,-15,89,-33,-55,-9,-83,7,-82,-64,-39
-80,-95,-15,88,-32,-55,16,-75,3,-75,-71,-43
-108,-106,1,107,-55,-52,21,-98,-1,-77,-82,-49
-59,-57,1,58,-30,-28,4,-97,-4,-108,-78,-47
-38,-38,0,38,-19,-19,-2,-83,-12,-110,-65,-38
-113,-98,16,105,-64,-41,-24,-99,-44,-114,-78,-52
-75,-64,11,69,-43,-26,-42,-110,-48,-109,-91,-61
-65,-53,12,59,-38,-20,-40,-87,-31,-83,-64,-34
-132,-101,31,116,-81,-35,-36,-93,-32,-94,-66,-39
-97,-82,15,89,-56,-33,-35,-102,-35,-101,-76,-52
-67,-69,-2,68,-32,-35,-33,-92,-36,-99,-67,-44
-85,-88,-3,87,-41,-45,-29,-91,-34,-101,-65,-44
-84,-83,1,83,-43,-40,-30,-84,-41,-100,-60,-38
-81,-70,11,75,-46,-29,-26,-80,-50,-96,-55,-36
-84,-73,11,79,-47,-31,-24,-88,-45,-89,-59,-31
-95,-76,19,85,-57,-28,-26,-86,-40,-85,-59,-32
-67,-60,7,63,-37,-26,-13,-76,-35,-79,-51,-37
-48,-42,6,45,-27,-18,-1,-73,-29,-71,-44,-28
-75,-35,40,55,-57,3,16,-60,-23,-60,-38,-17
-75,-40,35,57,-55,-2,29,-57,-14,-51,-31,-9
-60,-33,27,46,-43,-3,29,-40,4,-49,-29,5
-45,-35,10,40,-27,-12,-13,-56,-10,-49,-31,1
-31,-8,23,19,-27,8,-63,-106,-29,-43,-28,-21
-29,19,48,5,-39,34,-62,-120,-52,-48,-32,-15
-9,-4,6,7,-7,1,-72,-123,-75,-61,-26,-6
-9,-36,-26,23,9,-31,-90,-121,-71,-61,-20,-3
10,-19,-29,4,20,-24,-80,-101,-50,-51,-1,22
2,-30,-32,14,17,-31,-74,-94,-41,-57,-9,9
-69,-96,-27,83,-21,-62,-62,-92,-64,-64,-49,-27
-81,-111,-31,96,-25,-71,-52,-75,-74,-75,-62,-34
-101,-140,-39,121,-31,-89,-63,-90,-70,-68,-51,-23
-113,-152,-39,133,-37,-95,-45,-54,-49,-53,-41,-16
-127,-143,-15,135,-56,-79,-51,-87,-69,-64,-56,-33
-110,-147,-37,128,-36,-92,-22,-54,-25,-17,-36,-54
-49,-109,-60,79,6,-84,-4,-7,-37,-42,-43,-46
-68,-107,-39,88,-14,-73,107,245,216,153,54,-11
188,10,-178,-98,183,-84,160,769,833,718,490,232
707,470,-237,-588,471,116,-378,477,1355,1608,1386,905
713,605,-108,-659,410,248,-981,-565,911,1487,1439,1086
302,353,51,-328,125,202,-1089,-1451,-699,-105,304,524
-16,66,83,-25,-50,74,-796,-1402,-1262,-756,-269,105
-156,-183,-27,170,-64,-105,-482,-862,-858,-579,-333,-104
-102,-116,-13,109,-44,-64,-239,-438,-522,-364,-230,-95
-79,-82,-3,81,-37,-42,-32,-92,-167,-94,-72,-39
-79,-81,-2,80,-38,-41,20,-24,-108,-73,-73,-36
-82,-65,17,73,-50,-24,58,21,-57,-19,-37,-12
-82,-71,11,76,-46,-30,54,49,-37,-11,-41,-21
-48,-39,8,43,-28,-15,58,71,-27,8,-17,-10
-57,-73,-16,65,-20,-44,78,90,-4,26,-16,-9
-28,-53,-25,41,-1,-39,72,85,-8,18,-12,-6
-13,-38,-25,26,6,-31,77,119,32,56,32,14
-23,-48,-25,36,1,-37,73,130,41,75,44,26
-10,-35,-24,23,7,-29,77,130,36,76,46,25
-16,-42,-26,29,5,-33,72,128,18,74,44,25
-47,-71,-24,60,-11,-47,70,152,32,75,45,25
-43,-64,-20,54,-11,-42,70,162,69,77,47,26
-8,-41,-33,25,13,-37,69,180,84,90,62,38
-13,-46,-33,30,10,-39,93,220,116,122,97,74
5,-19,-25,7,15,-22,103,239,132,136,102,76
35,10,-25,-22,30,-7,98,279,164,162,115,81
33,20,-14,-26,23,3,96,324,211,210,147,113
64,38,-26,-50,45,6,95,370,250,249,181,127
98,55,-42,-76,70,6,119,431,315,304,233,162
100,65,-35,-83,67,15,118,470,350,343,258,184
124,109,-15,-116,69,47,133,506,394,387,298,209
164,145,-19,-155,92,63,162,526,419,410,327,229
158,137,-21,-147,90,58,155,503,412,407,319,214
129,143,14,-136,58,78,151,473,405,413,317,209
107,125,18,-116,45,71,126,391,346,367,280,196
79,87,8,-83,35,47,87,286,260,290,217,156
49,52,3,-50,22,27,69,205,167,220,160,109
19,14,-6,-16,12,4,54,126,82,146,108,71
21,8,-13,-14,17,-3,44,72,21,93,60,47
-3,-13,-10,8,4,-11,31,39,-25,61,32,27
-36,-41,-5,39,-16,-23,14,5,-61,28,17,10
-33,-37,-5,36,-14,-21,18,-18,-84,15,3,2
-46,-53,-7,50,-19,-30,17,-22,-103,11,-3,-4
-44,-70,-25,57,-9,-47,8,-33,-123,-3,-7,-11
-71,-66,5,68,-38,-30,3,-33,-125,-19,-12,-17
-102,-61,41,81,-72,-9,-5,-23,-125,-30,-16,-25
-78,-54,24,66,-50,-15,-9,-18,-130,-27,-21,-21
-36,-48,-12,42,-11,-30,-5,-10,-131,-22,-24,-15
-24,-40,-16,32,-4,-28,0,-5,-128,-19,-21,-10
-26,-35,-10,31,-8,-22,3,4,-108,-12,-15,-5
14,3,-11,-8,12,-4,10,18,-89,6,-10,2
4,7,3,-6,0,5,6,30,-93,18,-7,3
-12,-38,-26,25,7,-32,-3,30,-104,7,-1,-9
7,-30,-37,12,22,-34,2,25,-107,8,2,-11
7,-17,-24,5,16,-20,5,24,-101,35,7,-5
8,-15,-23,4,16,-19,1,19,-101,42,15,-3
-11,-33,-22,22,5,-27,-2,22,-98,39,12,2
-40,-67,-27,54,-7,-46,-4,25,-95,41,6,6
-32,-56,-24,44,-4,-39,-12,17,-94,40,1,0
-36,-62,-26,50,-5,-44,-14,11,-86,40,-4,-4
-38,-61,-23,50,-8,-41,-10,2,-111,35,-12,-16
-3,-36,-33,20,15,-34,1,-3,-109,30,1,-16
-4,-39,-34,22,15,-36,-18,-15,-118,26,-14,-22
12,-17,-29,2,21,-22,-42,-26,-135,21,-43,-26
13,-11,-24,0,19,-17,-31,-21,-108,17,-34,-7
-27,-37,-10,32,-8,-23,-26,-18,-116,12,-30,-14
-10,-47,-37,29,14,-42,-19,-15,-134,10,-27,-13
-1,-43,-42,22,21,-42,-13,-10,-140,10,-21,-5
-12,-38,-27,25,8,-32,-6,-8,-141,6,-18,-4
7,-25,-32,9,20,-28,-12,0,-139,5,-14,4
-10,-39,-29,24,10,-33,-27,4,-141,4,-15,3
-16,-46,-30,31,7,-38,-23,-17,-151,-13,-34,-10
27,-3,-31,-12,29,-17,-17,-21,-157,-6,-42,-16
10,-19,-28,4,19,-23,-15,-16,-154,8,-35,-14
0,-39,-39,20,20,-39,-7,-15,-153,-7,-35,-16
22,-24,-46,2,35,-35,-7,-10,-148,-10,-30,-14
-14,-58,-44,36,16,-51,-15,-11,-151,-3,-30,-17
-10,-56,-46,34,18,-51,-11,-4,-143,1,-25,-13
9,-35,-44,13,27,-39,-5,-8,-139,7,-20,-17
9,-43,-52,17,31,-47,23,6,-134,13,-16,-9
13,-42,-55,15,34,-48,34,22,-127,17,-11,5
23,-32,-55,5,40,-44,16,13,-124,21,-7,-7
24,-31,-55,4,39,-42,10,12,-116,26,-7,-10
1,-54,-55,27,28,-54,-1,3,-151,28,-27,-30
20,-36,-56,8,39,-46,-4,7,-150,25,-26,-25
8,-36,-44,15,26,-40,-19,-24,-149,-4,-40,-29
57,-1,-59,-28,58,-30,-32,-33,-161,8,-40,-36
39,3,-36,-21,37,-16,-18,2,-131,49,-11,-5
-18,-43,-25,31,4,-33,-7,-1,-140,43,-20,-14
46,-5,-50,-20,48,-27,8,12,-150,42,-22,-28
20,-21,-42,1,31,-31,2,14,-151,37,-25,-36
4,-48,-52,23,28,-50,-2,7,-143,34,-25,-35
16,-39,-55,12,35,-47,4,-5,-135,51,-18,-23
31,-17,-49,-7,40,-33,11,-5,-124,64,-18,-19
43,-3,-46,-19,44,-24,25,7,-123,88,-12,-10
45,7,-38,-25,42,-16,34,8,-130,103,-10,-7
74,53,-21,-63,47,15,56,38,-107,101,-6,-1
74,58,-17,-66,45,20,57,54,-107,114,-1,5
79,51,-28,-64,53,11,68,74,-106,128,1,9
67,61,-6,-64,36,27,55,59,-94,132,7,21
37,47,9,-42,14,28,8,15,-105,114,9,20
50,61,10,-56,20,35,-11,-17,-133,85,8,13
49,38,-11,-43,30,13,-32,-42,-146,78,5,9
45,0,-45,-22,45,-22,-34,-41,-151,91,3,2
71,19,-52,-45,62,-16,-19,-25,-144,109,19,0
28,-19,-47,-5,38,-33,-12,-26,-157,101,-8,-14
16,-46,-63,15,40,-54,-8,-14,-150,103,-32,-26
-2,-80,-78,41,39,-79,12,-8,-156,85,-41,-35
-27,-68,-41,48,7,-54,44,-7,-149,86,-25,-24
15,-45,-60,15,37,-52,48,13,-142,75,-35,-37
26,-47,-72,11,49,-59,40,-4,-157,75,-35,-30
30,-48,-77,9,54,-62,47,48,-99,104,-24,-33
-3,-70,-67,37,32,-68,70,61,-76,104,-33,-54
19,-61,-80,21,50,-70,244,463,321,402,145,17
387,158,-229,-272,307,-35,140,815,920,1049,708,407
785,593,-192,-689,488,200,-504,181,1234,1814,1531,1053
633,627,-6,-630,319,310,-980,-854,414,1183,1152,968
214,351,137,-282,38,244,-925,-1450,-1031,-316,32,367
-54,24,77,15,-66,50,-602,-1173,-1192,-617,-317,10
-82,-122,-40,102,-20,-80,-346,-690,-803,-433,-336,-127
-49,-35,13,42,-31,-11,-83,-282,-435,-167,-178,-65
-67,-45,22,56,-44,-11,82,4,-148,9,-69,-54
-16,-10,6,13,-11,-2,97,32,-119,22,-59,-49
-36,-34,2,35,-19,-15,139,96,-65,79,-34,-30
-41,-50,-9,46,-16,-29,133,100,-53,69,-37,-31
-9,-30,-20,20,6,-25,134,119,-5,105,-2,-19
-24,-44,-20,34,-2,-32,149,136,0,113,-1,-22
-15,-37,-22,26,4,-29,156,135,8,128,-2,-14
-32,-69,-38,51,3,-53,153,149,18,124,-2,-11
-40,-69,-29,55,-5,-49,149,140,23,135,9,-14
-22,-49,-27,36,3,-37,148,170,37,142,11,-17
5,-18,-23,7,14,-20,143,192,45,138,21,-4
24,10,-14,-17,19,-2,162,188,83,158,37,11
60,26,-34,-43,46,-4,162,198,92,156,39,15
67,45,-22,-55,44,11,153,216,92,173,52,25
32,48,16,-40,8,31,149,237,113,190,61,43
44,55,11,-49,16,32,140,257,156,212,82,49
46,52,6,-49,19,29,170,306,202,250,119,78
61,64,3,-63,29,33,183,351,233,277,145,102
110,106,-3,-108,57,51,178,384,287,326,184,115
135,132,-4,-133,69,64,190,441,346,376,219,146
112,116,4,-115,54,60,185,469,378,408,263,176
128,140,12,-134,58,75,208,478,413,437,294,202
152,144,-8,-148,80,68,224,495,420,450,286,197
154,159,5,-157,74,82,217,491,438,459,299,207
160,205,45,-183,57,125,223,451,439,455,302,212
115,173,58,-145,29,116,199,363,363,405,259,174
79,135,56,-107,12,95,175,267,280,324,188,126
68,115,46,-92,11,80,165,190,200,239,128,75
42,83,41,-63,0,62,157,126,127,172,82,39
0,34,34,-18,-17,34,138,76,72,122,29,8
10,38,29,-24,-10,33,111,36,28,82,1,-19
-42,-4,39,23,-40,17,117,19,3,54,-26,-42
-70,-25,45,47,-57,9,116,11,-19,39,-39,-60
0,37,36,-19,-18,36,128,2,-48,30,-40,-61
-8,24,31,-8,-20,27,142,-7,-55,20,-66,-65
-30,3,34,13,-32,18,132,-18,-48,20,-69,-63
-37,-4,33,20,-35,15,132,-22,-44,19,-61,-55
-37,6,43,15,-41,25,123,-16,-39,16,-58,-52
-1,35,36,-18,-18,35,144,-13,-36,14,-53,-44
33,69,36,-51,-2,52,164,-8,-30,17,-49,-42
0,63,63,-32,-33,63,157,15,-23,20,-44,-32
2,67,65,-35,-32,66,162,34,-3,20,-41,-29
19,78,59,-49,-20,68,163,40,16,36,-36,-44
-15,42,58,-14,-37,50,160,39,5,39,-34,-40
-13,39,52,-13,-32,45,146,42,12,31,-29,-33
-1,48,49,-23,-25,48,139,59,28,29,-26,-29
-11,54,65,-22,-38,60,161,58,20,23,-27,-20
-24,53,77,-15,-51,65,162,53,17,20,-32,-25
-28,47,74,-10,-51,60,153,51,13,20,-38,-38
-44,29,73,7,-58,50,148,46,7,20,-42,-42
-31,39,70,-4,-51,54,141,44,2,20,-38,-38
-29,39,69,-5,-49,54,134,39,-13,18,-43,-43
-35,35,70,0,-53,53,131,36,-28,11,-66,-52
-45,9,53,18,-49,31,144,31,-31,7,-70,-58
-54,-16,38,34,-46,11,142,29,-29,0,-60,-69
-10,57,67,-24,-39,62,152,31,-27,-5,-60,-67
1,62,61,-32,-30,62,161,30,-25,-9,-52,-60
-10,36,46,-13,-28,40,150,30,-24,-19,-52,-58
-55,-8,47,31,-51,19,150,29,-37,-18,-76,-52
-45,1,46,22,-45,23,143,21,-47,-35,-71,-50
-35,39,74,-2,-55,56,140,15,-44,-48,-58,-50
-53,22,75,15,-64,48,140,6,-45,-43,-75,-50
-13,54,66,-21,-40,60,140,0,-45,-46,-72,-49
-32,32,63,0,-48,47,140,-9,-44,-44,-67,-54
-20,37,57,-8,-39,46,140,-2,-41,-41,-65,-61
20,72,52,-46,-16,61,140,14,-39,-40,-49,-60
1,46,46,-24,-23,46,139,7,-40,-40,-59,-59
-13,44,57,-16,-35,50,148,19,-40,-41,-77,-55
-31,38,69,-4,-50,53,153,23,-39,-39,-74,-55
-37,35,72,1,-55,53,140,8,-44,-46,-76,-58
-33,36,69,-1,-52,52,135,9,-44,-50,-74,-55
-37,32,69,3,-53,50,123,0,-40,-51,-76,-56
-40,31,71,4,-55,51,119,3,-33,-49,-73,-53
-51,27,78,12,-65,52,141,11,-32,-51,-70,-51
-41,38,79,1,-60,58,147,11,-22,-49,-70,-48
-37,35,72,1,-55,53,144,9,-31,-49,-69,-58
-45,24,69,11,-57,46,142,5,-52,-70,-71,-72
-59,4,63,27,-62,34,138,7,-30,-65,-67,-67
-44,16,60,14,-52,38,141,-23,-51,-79,-89,-85
-59,6,65,26,-62,35,144,-25,-67,-91,-96,-86
-89,-24,65,56,-77,20,146,7,-47,-73,-73,-64
-69,-4,65,36,-67,30,144,4,-43,-68,-68,-60
-63,10,73,26,-68,41,145,5,-32,-61,-61,-52
-17,49,66,-16,-42,57,145,11,-24,-54,-54,-46
-33,51,84,-9,-59,67,146,30,-10,-42,-44,-40
-25,59,84,-17,-55,71,166,57,10,-34,-29,-33
12,90,78,-51,-34,84,171,71,24,-36,-22,-29
-22,84,106,-31,-65,95,140,60,16,-34,-19,-24
7,85,78,-46,-36,82,99,24,-15,-35,-16,-20
5,86,81,-46,-39,83,90,-7,-44,-36,-14,-15
4,93,89,-48,-43,91,96,-17,-43,-33,-9,-10
21,76,55,-49,-17,65,95,-22,-37,-31,-12,-2
-7,49,56,-22,-32,52,94,-24,-32,-23,-7,4
-9,39,48,-15,-29,43,97,-16,-41,-42,-29,-30
-12,37,48,-13,-30,42,92,-25,-85,-82,-68,-64
-39,2,42,18,-41,22,94,-8,-78,-81,-69,-71
-65,-26,39,46,-52,6,87,-22,-92,-88,-70,-70
-88,-51,36,69,-62,-7,89,-7,-70,-70,-58,-63
-72,-52,20,62,-46,-16,84,-8,-84,-83,-67,-68
-52,-23,29,37,-40,3,87,-4,-72,-71,-62,-69
-64,-66,-1,65,-31,-33,116,46,-37,-87,-85,-98
-42,-19,22,30,-32,2,175,142,73,10,-23,-71
102,16,-86,-59,94,-35,310,629,601,436,255,64
511,360,-151,-435,331,104,-17,623,1143,1224,1028,637
765,778,13,-772,376,395,-681,-243,1138,1665,1580,1153
453,591,138,-522,158,364,-954,-1164,-135,437,678,724
63,287,224,-175,-81,255,-754,-1397,-1211,-717,-215,167
-117,-31,85,74,-101,27,-449,-950,-989,-695,-380,-109
-144,-102,42,123,-93,-30,-225,-537,-637,-516,-351,-191
-94,23,117,35,-106,70,28,-148,-252,-210,-141,-88
-89,-4,86,46,-88,41,114,10,-84,-110,-106,-71
-63,27,91,18,-77,59,134,39,-67,-98,-82,-55
-29,28,57,0,-43,43,164,90,-14,-64,-75,-53
-44,12,56,16,-50,34,143,90,-15,-51,-82,-52
-61,-10,52,35,-56,21,147,119,-3,-36,-67,-61
-43,8,51,17,-47,29,173,128,-2,-45,-58,-62
-40,26,66,7,-53,46,165,143,28,-23,-29,-47
-43,8,51,17,-47,30,136,143,27,-20,-30,-43
-28,21,49,3,-39,35,134,144,32,-5,-10,-31
-34,4,38,14,-36,21,123,137,49,6,-16,-27
-9,24,33,-8,-21,28,155,158,65,28,-17,-17
7,37,30,-22,-11,33,168,176,75,42,-7,-17
-19,10,30,5,-25,20,158,186,89,50,-6,-18
1,39,39,-20,-19,39,159,195,102,55,22,-7
47,87,40,-67,3,63,153,222,124,80,47,21
42,82,40,-62,0,61,150,260,167,117,72,35
41,80,39,-61,1,60,155,290,201,141,94,44
70,111,41,-90,14,76,179,338,246,179,125,75
87,126,39,-106,24,82,185,385,303,232,174,105
105,142,37,-124,34,89,186,431,346,280,211,136
142,172,30,-157,56,101,191,461,384,317,246,154
140,171,31,-156,54,101,187,469,406,343,261,175
109,180,71,-145,19,125,179,473,393,357,273,191
115,197,82,-156,16,139,172,455,382,348,275,182
107,180,73,-144,17,126,165,385,355,316,249,169
98,171,74,-135,12,122,157,303,288,264,211,130
84,150,66,-117,9,108,151,231,203,185,143,91
47,113,66,-81,-10,90,133,163,122,113,85,47
30,101,70,-65,-20,85,113,99,53,41,43,-9
33,100,67,-67,-17,83,103,41,-5,-10,-3,-24
16,77,61,-46,-23,68,92,18,-39,-34,-36,-42
-8,50,58,-21,-34,53,81,10,-75,-71,-55,-63
-26,26,52,0,-39,39,68,-17,-96,-87,-64,-70
-36,13,49,11,-43,31,58,-33,-112,-102,-83,-75
-14,29,44,-8,-29,36,52,-35,-119,-109,-96,-66
12,63,51,-37,-20,56,47,-43,-114,-105,-90,-65
-2,71,73,-35,-38,72,44,-39,-129,-125,-88,-58
-40,36,76,2,-58,55,38,-29,-127,-124,-83,-55
-50,24,74,12,-62,49,35,-23,-120,-119,-80,-61
-27,43,71,-8,-49,57,39,-24,-118,-119,-73,-60
-14,56,70,-21,-42,63,44,-17,-107,-107,-58,-60
-16,53,69,-18,-43,61,43,-7,-98,-98,-46,-56
-15,46,61,-16,-38,53,36,0,-87,-87,-45,-55
-6,48,54,-21,-31,51,31,9,-80,-85,-45,-55
-6,41,47,-18,-27,44,26,-8,-80,-85,-45,-55
14,53,39,-34,-13,46,20,-17,-80,-85,-45,-55
52,83,31,-68,10,57,15,-12,-80,-85,-44,-55
38,83,45,-60,-4,63,23,-7,-80,-85,-50,-55
17,75,58,-47,-21,67,31,-7,-82,-86,-48,-55
22,73,51,-47,-15,62,19,-29,-97,-96,-55,-55
18,68,50,-43,-16,59,20,-29,-105,-105,-69,-54
16,63,47,-39,-16,55,8,-31,-105,-105,-72,-56
14,57,43,-36,-15,50,9,-28,-97,-97,-68,-54
-1,43,44,-21,-23,43,8,-36,-111,-111,-72,-61
0,36,36,-18,-19,36,-9,-58,-133,-133,-66,-68
-23,21,44,1,-34,32,-2,-43,-121,-118,-58,-64
-24,8,31,8,-28,19,-41,-72,-146,-133,-87,-85
40,56,15,-48,12,35,-30,-85,-154,-143,-87,-87
40,87,47,-64,-3,66,-5,-64,-135,-128,-71,-65
14,61,47,-38,-17,53,-28,-61,-142,-126,-74,-66
20,55,35,-38,-8,45,-24,-55,-143,-124,-81,-76
54,87,33,-71,10,60,-24,-50,-137,-119,-82,-56
46,69,23,-58,11,45,-29,-55,-138,-124,-74,-54
21,43,22,-32,-1,32,-47,-74,-158,-147,-68,-88
10,47,37,-29,-14,42,-47,-71,-159,-152,-67,-91
-29,21,50,3,-39,36,-38,-64,-153,-142,-95,-89
-31,11,43,10,-37,27,-36,-60,-152,-152,-90,-90
15,50,35,-33,-10,42,-27,-52,-145,-165,-74,-82
20,50,30,-35,-5,39,-25,-52,-146,-158,-76,-81
25,47,22,-37,2,34,-19,-54,-153,-151,-73,-74
54,70,16,-62,19,43,-15,-69,-156,-144,-90,-70
20,58,38,-40,-9,48,-30,-76,-154,-137,-96,-85
-5,41,46,-18,-26,43,-37,-75,-153,-136,-95,-91
-26,9,36,8,-31,22,-34,-74,-148,-148,-95,-83
-22,15,37,3,-30,26,-35,-77,-151,-163,-95,-83
25,50,25,-38,0,38,-46,-72,-159,-157,-94,-76
-19,20,39,-1,-29,29,-65,-76,-164,-163,-90,-77
-51,9,60,21,-56,34,-50,-79,-178,-157,-103,-94
-18,35,53,-9,-35,43,-64,-86,-175,-155,-100,-89
-26,21,47,2,-36,34,-70,-86,-168,-152,-93,-84
7,50,43,-29,-18,47,-34,-59,-165,-122,-88,-79
11,48,38,-30,-13,43,-45,-76,-162,-140,-82,-76
9,44,35,-27,-13,39,-54,-82,-158,-147,-78,-72
12,41,28,-27,-8,35,-62,-78,-156,-143,-71,-68
29,55,26,-42,1,40,-61,-80,-151,-145,-67,-66
34,78,45,-56,-6,61,-36,-51,-144,-121,-59,-59
1,66,65,-34,-32,65,-19,-32,-139,-105,-53,-69
50,125,75,-88,-13,100,-6,2,-91,-85,-40,-45
44,112,68,-78,-12,90,5,14,-78,-83,-41,-32
37,102,65,-70,-14,83,-36,-35,-114,-86,-52,-39
48,105,57,-76,-5,80,-89,-90,-144,-116,-62,-42
53,106,53,-80,0,79,-87,-111,-158,-143,-66,-51
87,135,48,-111,19,91,-82,-93,-154,-123,-49,-35
104,128,24,-117,40,76,-79,-91,-154,-127,-35,-21
47,95,47,-71,0,71,-71,-101,-142,-127,-33,-28
3,39,36,-21,-17,37,-57,-97,-169,-147,-81,-70
8,29,20,-19,-6,24,-63,-106,-190,-169,-99,-84
-29,10,39,9,-34,25,-78,-106,-200,-187,-114,-99
-36,8,43,14,-40,25,-63,-101,-196,-179,-116,-98
-51,-15,36,33,-44,10,-42,-70,-167,-168,-112,-93
-49,-5,44,27,-47,19,-58,-92,-194,-186,-122,-93
-67,-40,27,53,-46,-7,-44,-57,-155,-157,-102,-80
-32,-33,-1,32,-15,-16,-15,-28,-152,-185,-131,-102
27,29,2,-28,12,16,116,243,130,32,-7,-79
241,96,-145,-168,193,-25,122,720,717,584,432,175
753,599,-155,-676,454,222,-417,403,1237,1488,1336,861
740,757,17,-749,361,387,-1008,-631,771,1339,1375,1043
315,461,146,-388,84,304,-1111,-1485,-827,-255,224,458
23,169,146,-96,-62,158,-793,-1391,-1345,-875,-335,29
-134,-89,45,111,-89,-22,-479,-863,-948,-705,-390,-179
-44,33,77,5,-60,55,-227,-444,-599,-473,-275,-162
-53,32,84,10,-69,58,-29,-101,-254,-223,-138,-105
-80,-11,69,46,-75,28,4,-46,-203,-213,-128,-107
11,80,69,-45,-29,74,22,2,-153,-171,-85,-86
-3,51,54,-24,-28,52,31,32,-136,-174,-98,-91
-3,54,57,-26,-30,55,49,44,-138,-146,-78,-76
14,69,55,-42,-21,61,42,77,-113,-130,-76,-74
-32,34,66,-1,-49,50,31,63,-101,-121,-66,-67
-16,44,60,-14,-38,51,30,80,-91,-106,-58,-62
8,60,51,-34,-21,55,14,90,-87,-106,-56,-59
12,59,48,-36,-18,53,31,105,-79,-97,-49,-52
20,56,36,-38,-9,46,51,126,-70,-89,-50,-51
-1,42,43,-21,-22,42,50,131,-56,-69,-41,-42
19,79,60,-50,-20,70,49,153,-43,-61,-43,-39
2,54,52,-28,-26,53,51,160,-25,-41,-25,-44
27,73,46,-50,-10,59,49,174,-15,-20,5,-30
71,110,39,-91,16,74,54,231,32,8,34,6
35,68,32,-52,1,49,55,266,66,25,54,22
93,120,26,-107,33,72,64,308,108,65,80,36
126,144,19,-135,53,81,77,371,164,116,118,68
80,125,45,-103,17,85,80,419,207,153,153,89
120,178,57,-149,31,117,85,471,260,202,196,123
151,205,54,-178,48,129,80,494,298,235,224,142
120,182,62,-151,28,122,75,493,324,269,250,143
148,206,58,-177,45,132,71,494,331,263,256,145
164,237,73,-201,45,155,67,459,317,242,237,142
133,206,73,-170,30,139,61,380,250,222,206,122
136,202,66,-169,35,133,45,284,170,158,153,74
79,167,88,-123,-5,127,29,206,91,88,104,43
34,107,73,-71,-20,90,13,134,3,14,57,9
36,94,58,-65,-11,76,-10,73,-60,-44,2,-27
35,88,54,-62,-10,71,-38,29,-119,-84,-43,-57
45,90,45,-68,0,67,-30,3,-147,-114,-65,-81
29,70,41,-50,-6,55,-50,-8,-170,-136,-90,-88
46,76,29,-61,8,52,-59,-26,-188,-139,-95,-90
-35,10,44,12,-40,27,-44,-45,-200,-151,-104,-96
-33,21,54,6,-44,37,-70,-65,-220,-183,-124,-115
35,81,46,-58,-6,63,-62,-62,-210,-176,-115,-102
-19,19,38,-1,-28,28,-70,-49,-200,-164,-105,-106
36,71,35,-54,0,53,-74,-41,-191,-156,-95,-109
31,54,23,-43,4,38,-47,-30,-182,-148,-89,-82
-1,31,32,-15,-17,31,-51,-25,-178,-147,-86,-80
24,72,48,-48,-12,60,-51,-17,-172,-142,-82,-73
26,48,22,-37,1,35,-47,-12,-166,-138,-79,-65
-2,57,59,-27,-31,58,-54,-9,-161,-135,-75,-61
-36,47,83,-6,-60,65,-65,-5,-156,-131,-75,-50
-21,43,64,-11,-43,53,-63,-1,-155,-130,-75,-55
5,68,63,-37,-29,65,-57,-1,-155,-130,-75,-60
30,81,51,-56,-10,65,-57,-13,-150,-125,-75,-61
26,73,47,-50,-11,60,-47,-9,-151,-126,-75,-58
28,70,41,-49,-6,55,-60,1,-148,-122,-76,-68
29,65,36,-47,-4,50,-71,-6,-154,-124,-81,-83
28,61,33,-45,-3,47,-72,-11,-163,-123,-81,-74
29,55,27,-42,1,41,-92,-24,-164,-132,-88,-72
31,56,25,-44,2,40,-88,-16,-163,-142,-76,-60
15,52,37,-34,-11,45,-94,-24,-173,-150,-76,-71
9,49,40,-29,-16,44,-107,-57,-196,-171,-102,-103
20,53,34,-37,-7,43,-92,-51,-194,-165,-99,-96
24,57,33,-41,-4,45,-89,-51,-196,-163,-98,-97
39,65,26,-52,6,45,-86,-43,-192,-153,-93,-86
21,47,27,-34,-3,37,-108,-51,-204,-165,-99,-102
36,71,35,-54,0,53,-113,-49,-206,-170,-120,-106
17,51,34,-34,-8,42,-91,-29,-192,-145,-112,-77
5,33,28,-19,-12,30,-98,-41,-206,-151,-106,-71
41,68,27,-55,7,47,-99,-40,-205,-150,-99,-63
29,49,20,-39,4,34,-97,-44,-204,-149,-97,-75
24,46,22,-35,1,33,-87,-46,-205,-151,-101,-90
-2,27,30,-13,-16,28,-89,-41,-208,-149,-101,-104
8,35,28,-22,-10,31,-105,-40,-208,-148,-100,-93
20,64,44,-43,-12,54,-105,-36,-202,-143,-100,-80
-3,52,56,-25,-30,54,-100,-33,-200,-148,-100,-90
9,52,43,-31,-17,47,-98,-30,-195,-159,-101,-90
4,45,41,-25,-19,43,-96,-29,-191,-158,-114,-91
-19,42,61,-12,-40,51,-91,-24,-190,-150,-116,-90
1,41,40,-21,-20,40,-120,-34,-206,-150,-111,-90
39,46,7,-43,15,26,-139,-34,-201,-139,-109,-86
19,48,29,-34,-5,38,-130,-36,-203,-149,-106,-85
17,59,42,-38,-13,50,-129,-52,-220,-175,-104,-84
-2,35,37,-16,-20,36,-124,-48,-215,-175,-100,-75
-5,29,34,-13,-20,32,-129,-44,-211,-175,-92,-64
47,78,31,-63,8,54,-133,-49,-210,-175,-89,-78
-20,6,26,6,-23,16,-144,-65,-228,-175,-113,-109
-10,16,26,-4,-18,21,-150,-69,-238,-173,-123,-112
51,90,39,-70,6,64,-142,-59,-229,-165,-115,-103
22,62,41,-42,-10,51,-141,-58,-231,-160,-116,-98
24,63,39,-43,-8,51,-133,-47,-224,-152,-107,-90
-2,38,41,-18,-22,39,-126,-49,-223,-146,-101,-85
8,49,41,-29,-17,45,-120,-44,-213,-140,-92,-80
27,91,64,-59,-18,77,-107,-5,-181,-130,-85,-77
12,100,88,-56,-38,94,-76,9,-159,-114,-78,-72
46,131,85,-89,-20,108,-53,33,-149,-104,-67,-64
61,135,74,-98,-7,104,-81,26,-152,-107,-59,-56
52,122,70,-88,-9,96,-117,-21,-167,-101,-46,-49
53,109,56,-81,-2,82,-149,-53,-198,-128,-62,-46
61,104,43,-83,9,73,-163,-74,-227,-152,-74,-39
88,110,22,-99,32,66,-156,-68,-222,-151,-75,-39
108,111,3,-110,52,57,-158,-80,-230,-140,-57,-27
44,67,22,-56,11,44,-140,-78,-227,-131,-58,-51
5,29,24,-17,-10,26,-151,-71,-236,-168,-100,-91
19,35,16,-27,2,25,-158,-71,-244,-153,-93,-80
16,25,9,-21,3,17,-144,-60,-245,-169,-109,-90
20,22,2,-21,9,12,-135,-65,-246,-190,-104,-94
-15,3,17,6,-16,10,-141,-65,-252,-201,-120,-118
7,56,49,-32,-21,52,-151,-78,-263,-208,-134,-122
-38,-11,27,25,-33,8,-116,-13,-192,-147,-123,-110
-49,-29,20,39,-34,-4,-118,5,-188,-174,-143,-125
70,59,-11,-64,40,24,36,328,137,59,17,-78
329,143,-186,-236,258,-22,27,775,732,667,508,230
783,618,-165,-700,474,226,-569,349,1185,1520,1389,913
729,730,1,-729,364,365,-1108,-720,570,1164,1251,984
286,417,131,-351,77,274,-1140,-1518,-1014,-409,104,384
-9,122,130,-57,-70,126,-820,-1333,-1369,-873,-358,-7
-147,-104,43,125,-95,-30,-521,-805,-956,-698,-405,-194
-70,-8,62,38,-66,27,-274,-403,-607,-463,-267,-156
-10,34,44,-12,-27,39,-87,-78,-269,-210,-124,-98
-12,27,39,-7,-26,33,-56,-31,-231,-206,-122,-95
-19,15,33,2,-26,24,-38,12,-178,-161,-82,-85
-18,4,21,7,-20,12,-23,46,-178,-166,-86,-95
-4,38,42,-17,-23,40,-15,68,-160,-135,-77,-76
-15,23,38,-4,-26,30,-5,77,-135,-123,-84,-72
-14,23,37,-5,-26,30,24,95,-135,-121,-69,-62
-27,6,33,10,-30,19,-2,105,-121,-111,-68,-66
-16,14,31,1,-24,22,-23,88,-123,-110,-72,-64
-22,6,29,8,-26,17,-20,113,-119,-100,-73,-58
-16,8,24,4,-20,16,-21,128,-117,-107,-73,-69
-19,2,22,9,-20,12,-17,148,-110,-83,-34,-50
-30,-14,16,22,-23,1,-24,163,-71,-44,-2,-23
31,46,15,-39,7,30,4,167,-43,-42,11,-17
40,47,7,-44,16,27,4,201,-36,-39,25,-8
15,25,10,-21,3,17,7,231,7,-1,34,2
51,58,7,-55,22,33,16,268,42,22,48,14
61,82,20,-72,20,51,32,322,95,65,87,46
39,70,32,-55,3,51,53,355,142,103,121,70
102,113,11,-108,45,62,48,412,189,147,164,99
136,159,24,-148,56,91,49,465,250,210,209,137
140,156,16,-148,62,86,43,480,277,232,225,144
154,166,11,-160,72,88,48,473,300,253,242,153
188,184,-4,-186,96,90,62,462,296,261,244,160
168,180,12,-174,78,96,61,435,269,233,236,148
87,162,75,-125,5,118,50,366,226,196,215,127
93,158,65,-126,14,111,48,274,144,146,165,92
67,116,48,-92,9,82,20,179,50,73,103,49
48,92,44,-70,2,68,-19,106,-20,6,50,19
6,43,36,-25,-15,39,-41,42,-88,-53,8,-11
-25,6,31,9,-28,18,-67,5,-143,-102,-36,-46
-25,3,28,11,-27,15,-64,-28,-158,-112,-54,-57
-47,-33,15,40,-31,-9,-87,-73,-203,-157,-89,-89
-25,-7,18,16,-21,5,-99,-79,-223,-191,-115,-114
-8,0,9,4,-8,5,-77,-70,-209,-182,-107,-103
13,4,-9,-8,11,-2,-79,-65,-209,-186,-111,-91
-54,-21,33,37,-44,6,-70,-57,-200,-185,-110,-85
-29,-8,21,18,-25,7,-68,-51,-197,-178,-106,-86
37,40,3,-39,16,21,-62,-46,-191,-163,-97,-73
-23,5,28,9,-26,16,-58,-41,-184,-150,-89,-69
-32,-8,24,20,-28,8,-49,-37,-178,-143,-81,-67
-13,4,17,4,-15,10,-33,-33,-170,-137,-74,-63
-12,-5,7,8,-9,1,-57,-27,-165,-133,-70,-62
-42,-41,2,41,-22,-19,-61,-26,-158,-126,-65,-58
-23,-31,-9,27,-7,-20,-48,-26,-169,-121,-63,-67
5,-4,-9,0,7,-7,-42,-25,-176,-120,-58,-71
-12,8,20,2,-17,14,-27,-23,-175,-120,-55,-70
13,38,25,-26,-7,31,-44,-21,-175,-120,-51,-68
19,37,19,-28,0,27,-51,-18,-175,-133,-49,-64
10,21,12,-16,-1,16,-45,-26,-175,-133,-46,-66
5,19,14,-12,-5,16,-43,-38,-174,-124,-46,-60
-43,-16,26,29,-35,5,-40,-40,-178,-125,-61,-61
-30,-8,22,19,-26,7,-67,-53,-179,-113,-66,-76
22,37,15,-29,3,25,-75,-75,-196,-122,-76,-83
11,23,12,-17,-1,17,-54,-70,-194,-138,-79,-81
-42,-22,19,32,-30,-1,-70,-81,-205,-150,-90,-94
-40,-19,21,30,-30,1,-92,-106,-230,-174,-114,-108
-16,2,19,7,-18,10,-90,-98,-216,-165,-103,-98
-36,-19,17,27,-26,-1,-87,-92,-208,-156,-91,-87
-4,10,14,-3,-9,11,-67,-89,-203,-154,-84,-82
11,27,16,-19,-3,21,-54,-81,-196,-146,-78,-76
1,6,5,-4,-2,5,-56,-80,-195,-145,-81,-71
6,11,4,-9,1,7,-53,-73,-188,-138,-79,-65
-29,-4,25,16,-27,10,-67,-70,-185,-135,-80,-59
-26,-7,19,16,-22,6,-74,-77,-185,-130,-80,-64
-2,-1,0,1,-1,0,-65,-83,-184,-120,-74,-70
-24,-39,-15,31,-4,-26,-62,-96,-193,-134,-86,-78
-13,-32,-19,23,3,-26,-58,-106,-190,-139,-92,-86
-35,-10,25,22,-30,7,-54,-100,-177,-125,-80,-80
-62,-22,40,42,-50,8,-51,-98,-183,-125,-81,-78
-39,-14,25,26,-32,5,-46,-93,-181,-121,-79,-73
-41,-8,33,24,-37,13,-46,-89,-180,-118,-76,-69
-50,-32,18,40,-34,-7,-60,-91,-180,-115,-74,-71
-44,-47,-3,46,-20,-25,-66,-89,-174,-116,-79,-69
-8,-41,-33,24,13,-37,-64,-94,-176,-121,-90,-72
-1,-43,-42,22,21,-42,-66,-101,-173,-119,-90,-68
-7,-38,-30,23,12,-34,-64,-95,-186,-123,-90,-73
-24,-51,-28,38,3,-39,-59,-90,-173,-125,-90,-65
-35,-52,-17,44,-8,-34,-54,-87,-168,-125,-87,-52
-45,-59,-15,52,-15,-37,-55,-81,-180,-118,-83,-74
-71,-72,-2,71,-34,-37,-55,-82,-155,-103,-78,-69
-13,-21,-7,17,-3,-14,-55,-89,-158,-90,-74,-52
26,10,-16,-18,21,-3,-55,-95,-163,-82,-69,-49
-21,-8,13,14,-17,3,-50,-94,-154,-76,-65,-39
-52,-43,9,48,-30,-17,-48,-96,-157,-69,-60,-35
-24,-31,-7,28,-8,-19,-38,-89,-150,-62,-57,-27
-17,-2,14,9,-15,6,-19,-67,-134,-61,-52,-21
-21,8,30,6,-25,19,22,-40,-105,-58,-48,-36
24,55,31,-40,-3,42,48,-10,-76,-36,-45,-38
25,55,29,-40,-2,42,24,-6,-82,-12,-41,-28
11,42,30,-26,-10,36,-9,-43,-97,-18,-39,-23
9,38,29,-24,-10,33,-48,-90,-105,-32,-35,-16
-1,28,29,-14,-15,28,-67,-114,-131,-48,-36,-10
31,47,16,-39,7,31,-61,-109,-134,-55,-38,-4
45,33,-11,-39,27,11,-58,-108,-136,-44,-43,9
-12,-9,3,11,-8,-3,-56,-107,-135,-36,-43,9
-25,-38,-13,31,-6,-25,-48,-100,-133,-69,-48,-25
-25,-74,-49,50,12,-61,-51,-117,-146,-88,-61,-51
-40,-92,-53,66,7,-73,-33,-103,-143,-82,-75,-63
-43,-89,-47,66,2,-68,-33,-111,-146,-90,-65,-50
-54,-112,-58,83,3,-85,-35,-84,-123,-92,-56,-52
-18,-72,-54,46,18,-63,-33,-86,-130,-101,-59,-43
-61,-121,-60,91,0,-90,-20,-76,-78,-57,-34,-40
-71,-138,-67,105,-2,-102,9,-40,-81,-80,-59,-50
4,-54,-58,26,31,-56,100,154,112,83,24,-13
188,-15,-203,-86,195,-108,204,670,687,578,371,156
651,434,-217,-542,434,108,-230,457,1177,1400,1238,816
748,679,-69,-713,408,304,-874,-536,915,1486,1474,1121
315,427,112,-371,102,270,-1025,-1371,-509,58,391,569
-1,161,161,-80,-81,161,-764,-1413,-1249,-767,-281,94
-142,-117,25,129,-83,-46,-463,-924,-917,-650,-372,-112
-155,-120,35,137,-95,-42,-235,-533,-576,-444,-285,-119
-118,-89,29,103,-73,-30,8,-170,-203,-158,-109,-63
-98,-85,13,91,-55,-36,66,-56,-102,-108,-91,-43
-89,-60,29,74,-59,-15,77,-18,-67,-80,-49,-29
-97,-73,24,85,-60,-24,119,42,-21,-69,-54,-38
-71,-45,26,58,-48,-9,98,18,-12,-60,-39,-26
-82,-67,14,74,-48,-26,104,31,11,-45,-32,-29
-85,-71,14,78,-49,-28,98,41,6,-43,-28,-24
-56,-52,4,54,-30,-24,99,62,25,-31,-19,-22
-59,-43,16,50,-37,-13,104,64,46,-23,-17,-18
-82,-64,18,73,-50,-23,76,50,31,-26,-10,-14
-54,-47,6,50,-30,-21,95,62,31,-57,-41,-42
-59,-58,2,59,-30,-28,123,87,77,-37,-2,-17
-67,-77,-9,72,-29,-43,113,113,104,-7,51,42
-27,-30,-3,28,-12,-16,111,126,121,22,54,50
-38,-30,8,34,-23,-11,104,133,124,51,55,42
4,5,1,-5,2,3,104,155,152,67,66,41
20,9,-11,-14,15,-1,93,195,190,91,93,80
22,3,-19,-13,21,-8,113,243,238,127,121,99
56,25,-31,-40,43,-3,121,294,290,174,157,108
68,31,-37,-49,52,-3,116,325,326,204,194,142
100,93,-7,-97,53,43,150,361,380,254,238,167
99,115,16,-107,41,65,145,401,415,299,271,199
104,107,2,-106,50,54,136,410,429,306,283,204
112,128,16,-120,48,72,132,415,431,321,296,212
115,149,34,-132,40,91,123,365,413,314,287,215
80,124,44,-102,17,84,120,308,380,278,263,186
20,75,54,-48,-17,64,103,233,311,224,217,145
25,66,42,-46,-8,54,89,131,237,144,155,109
3,37,33,-20,-15,35,80,81,173,83,95,79
-10,12,22,-1,-16,16,63,29,114,25,52,27
-49,-29,20,39,-34,-5,49,-9,78,-24,34,12
-66,-55,11,61,-38,-22,32,-46,19,-67,-8,-8
-46,-46,0,46,-23,-22,23,-67,-2,-80,-27,-37
-94,-78,17,86,-55,-30,8,-89,-25,-105,-49,-52
-50,-38,12,44,-31,-13,-26,-119,-81,-149,-89,-77
-57,-47,10,52,-33,-19,11,-94,-50,-125,-61,-55
-66,-62,5,63,-35,-28,27,-96,-34,-107,-47,-45
-81,-72,9,76,-45,-31,-2,-102,-49,-118,-50,-46
-112,-90,22,101,-67,-34,38,-83,-42,-116,-43,-37
-86,-69,17,77,-52,-26,52,-83,-34,-112,-43,-39
-110,-96,14,102,-62,-40,41,-78,-21,-106,-38,-33
-63,-55,8,59,-35,-24,39,-67,-15,-100,-38,-32
-61,-55,6,57,-33,-24,49,-67,-7,-95,-31,-29
-53,-64,-10,59,-21,-37,46,-62,-3,-91,-26,-25
-46,-57,-11,52,-17,-34,19,-49,5,-88,-24,-25
-59,-63,-4,61,-27,-34,17,-45,16,-86,-15,-25
-56,-52,5,54,-30,-23,11,-45,11,-81,-21,-25
-105,-77,28,91,-66,-24,7,-41,4,-83,-28,-25
-85,-61,24,73,-54,-18,4,-38,-2,-72,-22,-24
-77,-66,11,71,-43,-27,-6,-51,-10,-78,-11,-34
-98,-105,-7,102,-45,-55,-1,-62,-15,-105,-24,-40
-63,-76,-12,70,-25,-44,10,-57,-6,-107,-49,-41
-61,-69,-8,65,-26,-39,-3,-53,4,-102,-42,-36
-108,-114,-6,111,-51,-60,-15,-76,-9,-109,-44,-37
-101,-105,-4,103,-48,-54,2,-86,-13,-100,-36,-31
-75,-94,-19,84,-28,-56,-19,-87,-28,-116,-49,-40
-86,-107,-21,97,-32,-64,-48,-103,-60,-147,-78,-67
-77,-84,-7,80,-34,-45,-40,-96,-48,-111,-41,-42
-89,-95,-6,92,-41,-51,-34,-84,-39,-108,-46,-45
-112,-108,4,110,-57,-52,-31,-78,-46,-124,-68,-58
-77,-60,17,68,-47,-21,-21,-79,-36,-117,-57,-46
-98,-90,9,94,-53,-40,-25,-80,-32,-119,-55,-45
-99,-90,9,94,-54,-40,-14,-82,-22,-113,-48,-35
-60,-69,-9,65,-25,-39,20,-86,-24,-116,-41,-44
-77,-100,-23,89,-27,-61,-11,-84,-35,-111,-44,-52
-77,-85,-8,81,-34,-46,-39,-82,-35,-106,-55,-47
-116,-111,5,113,-60,-53,-28,-75,-35,-102,-56,-45
-126,-113,12,119,-69,-50,-26,-72,-36,-97,-53,-41
-105,-101,4,103,-54,-48,-19,-66,-34,-93,-50,-39
-100,-104,-3,102,-48,-53,-14,-64,-34,-88,-50,-44
-88,-88,0,88,-43,-44,-11,-56,-27,-85,-50,-45
-74,-98,-24,87,-25,-61,-24,-60,-28,-85,-52,-45
-44,-88,-44,66,0,-66,-27,-83,-43,-85,-65,-49
-74,-99,-25,87,-24,-62,-24,-81,-40,-85,-64,-51
-97,-130,-33,114,-31,-81,-25,-74,-32,-85,-58,-48
-76,-117,-42,97,-17,-79,-20,-71,-26,-81,-57,-45
-88,-120,-33,105,-27,-77,-20,-62,-21,-72,-49,-45
-93,-126,-33,109,-29,-79,-18,-60,-26,-67,-53,-45
-78,-104,-26,91,-25,-65,-31,-73,-30,-59,-55,-45
-99,-124,-26,112,-36,-75,-41,-79,-24,-68,-51,-42
-105,-134,-30,120,-37,-82,-33,-60,-10,-71,-68,-39
-55,-88,-33,72,-10,-60,-36,-50,-1,-49,-64,-36
-55,-93,-39,74,-8,-66,-29,-58,-11,-45,-55,-33
-91,-133,-42,112,-24,-87,-30,-57,-12,-63,-50,-30
-95,-128,-33,112,-30,-80,-43,-58,-2,-57,-42,-28
-72,-96,-24,84,-24,-60,-26,-51,6,-28,-39,-16
-53,-71,-18,63,-18,-44,-15,-25,26,-15,-28,-1
-62,-67,-4,65,-29,-35,0,-13,43,-2,-23,9
-41,-59,-18,50,-11,-39,32,-3,47,14,0,10
-11,-50,-39,31,14,-44,18,4,34,3,16,9
-13,-46,-33,30,10,-39,-38,-33,20,1,9,19
-32,-64,-32,48,0,-48,-70,-88,10,-9,-4,16
-54,-82,-28,68,-12,-55,-74,-114,2,-33,-25,9
-57,-94,-38,76,-9,-66,-75,-100,-7,-31,-32,3
-32,-92,-60,62,15,-76,-76,-92,-6,-21,-29,-5
-26,-98,-72,62,23,-85,-68,-82,11,-10,-29,-9
-64,-134,-70,99,3,-102,-73,-83,-9,-39,-45,-23
-78,-144,-66,111,-5,-104,-67,-76,-15,-49,-53,-36
-91,-159,-68,125,-11,-113,-64,-73,-32,-61,-59,-43
-78,-137,-59,108,-9,-97,-58,-73,-30,-50,-48,-35
-79,-174,-95,127,8,-134,-48,-65,-24,-56,-69,-52
-68,-165,-96,117,14,-130,-65,-68,-6,-59,-44,-43
-19,-122,-103,70,43,-112,-29,-1,48,-27,-35,-35
-66,-152,-86,109,10,-119,-12,7,47,-16,-60,-56
-51,-167,-115,109,32,-141,138,403,452,283,104,-6
339,80,-260,-209,300,-90,29,759,1071,981,723,418
744,559,-185,-651,464,187,-630,142,1397,1746,1549,1075
557,525,-32,-541,294,247,-1099,-927,484,1008,1079,941
156,252,96,-204,30,174,-1029,-1507,-967,-465,-8,350
-95,-76,18,86,-56,-29,-704,-1211,-1059,-709,-338,1
-175,-247,-72,211,-52,-159,-436,-737,-669,-532,-363,-144
-129,-126,3,128,-66,-61,-170,-327,-294,-252,-191,-75
-101,-159,-58,131,-22,-109,-27,-77,-27,-80,-98,-54
-80,-148,-68,114,-6,-107,-12,-50,-9,-75,-85,-42
-91,-153,-62,122,-14,-107,13,18,58,-14,-59,-26
-91,-159,-68,126,-11,-113,3,23,48,-19,-65,-24
-63,-143,-80,103,9,-111,28,41,73,13,-41,-19
-51,-152,-101,102,26,-126,42,62,100,5,-38,-28
-61,-148,-86,104,13,-117,36,66,104,19,-21,-17
-67,-157,-90,112,12,-123,32,71,100,20,-13,-18
-57,-139,-82,98,13,-110,27,71,113,27,-4,-13
-57,-137,-80,97,12,-109,22,91,132,44,5,-6
-51,-134,-83,93,17,-109,21,114,146,37,-2,-1
-15,-112,-97,63,41,-104,22,121,160,56,3,3
-27,-128,-101,78,37,-114,15,132,156,60,31,15
-46,-140,-94,93,24,-117,36,157,186,80,43,31
-20,-116,-96,69,38,-106,25,176,208,101,49,34
-13,-106,-93,60,41,-99,13,208,234,114,68,43
1,-89,-90,44,46,-89,59,266,288,161,97,76
24,-66,-90,21,57,-78,68,304,325,192,127,93
40,-48,-88,4,64,-67,64,352,375,233,162,117
55,-27,-83,-14,69,-55,66,406,433,296,205,148
83,5,-78,-44,80,-36,65,430,470,332,237,169
104,30,-74,-67,89,-22,64,467,509,381,275,196
100,32,-69,-66,84,-18,58,470,536,410,295,196
87,21,-66,-54,76,-22,52,434,516,394,282,184
76,11,-64,-43,70,-26,47,393,485,381,267,177
72,6,-65,-39,68,-29,39,314,420,333,232,155
45,-20,-65,-12,55,-42,15,221,332,263,178,117
27,-37,-63,6,45,-50,5,143,253,204,122,90
13,-59,-72,24,43,-65,-31,83,171,146,72,60
-17,-89,-72,53,28,-80,-60,37,107,86,33,21
-42,-126,-84,84,21,-105,-70,8,66,40,-18,-2
-98,-175,-78,137,-10,-126,-97,-22,51,22,-38,-16
-80,-156,-76,118,-2,-116,-94,-59,40,11,-47,-34
-53,-151,-98,102,23,-124,-95,-72,18,2,-63,-49
-78,-167,-89,123,6,-128,-94,-71,-10,-19,-69,-44
-49,-133,-84,92,18,-109,-102,-68,9,-33,-81,-54
-61,-145,-84,103,12,-114,-114,-57,29,-28,-68,-72
-85,-157,-72,121,-6,-114,-82,-56,23,-9,-61,-65
-70,-155,-85,113,8,-120,-81,-62,26,-16,-62,-63
-42,-154,-112,98,36,-133,-110,-57,25,-37,-55,-58
-50,-152,-102,102,26,-127,-100,-43,24,-19,-54,-55
-75,-165,-89,120,7,-127,-91,-39,28,-8,-49,-51
-29,-128,-99,79,36,-113,-90,-52,48,-2,-46,-40
-52,-147,-95,100,22,-121,-90,-46,62,4,-43,-33
-65,-151,-86,108,11,-118,-102,-36,58,11,-39,-23
-49,-132,-83,90,17,-107,-106,-41,55,12,-41,-20
-87,-158,-71,123,-8,-114,-104,-39,53,16,-36,-20
-84,-162,-78,124,-3,-120,-105,-40,48,27,-35,-20
-49,-148,-99,98,25,-123,-105,-40,53,14,-36,-20
-33,-137,-104,85,36,-120,-103,-39,54,-3,-33,-19
-80,-181,-101,131,11,-141,-116,-53,46,-14,-55,-40
-96,-184,-88,140,-4,-135,-127,-63,45,-15,-68,-53
-100,-205,-105,153,3,-155,-124,-64,35,-12,-63,-48
-94,-206,-112,150,10,-159,-129,-66,22,-26,-70,-55
-58,-152,-94,105,19,-123,-130,-64,13,-26,-70,-54
-71,-178,-108,125,19,-143,-129,-69,-4,-27,-70,-57
-70,-203,-133,136,32,-167,-126,-80,-14,-50,-70,-68
-68,-200,-132,134,32,-166,-125,-77,-5,-47,-69,-63
-37,-161,-125,99,44,-143,-125,-71,7,-40,-71,-55
-53,-183,-130,118,39,-156,-125,-68,-5,-38,-68,-53
-90,-220,-130,155,20,-174,-125,-61,-16,-32,-72,-55
-53,-183,-130,118,39,-157,-126,-63,-3,-30,-65,-50
-64,-194,-129,129,33,-162,-124,-72,0,-41,-61,-47
-56,-187,-131,122,37,-159,-127,-68,15,-57,-50,-40
-63,-191,-127,127,32,-159,-138,-79,3,-58,-50,-39
-70,-193,-123,132,26,-158,-141,-100,-22,-69,-85,-58
-44,-162,-118,103,38,-140,-139,-98,0,-68,-71,-61
-84,-198,-114,142,16,-156,-140,-92,-11,-62,-68,-59
-76,-212,-137,144,30,-174,-140,-90,-17,-60,-79,-56
-74,-209,-135,141,30,-171,-138,-82,-9,-52,-69,-54
-76,-202,-126,139,25,-164,-132,-82,-10,-52,-71,-56
-53,-185,-132,119,40,-158,-115,-83,-2,-52,-64,-54
-63,-188,-125,126,32,-156,-123,-89,-20,-61,-66,-56
-51,-176,-125,114,37,-150,-135,-100,-17,-62,-68,-53
-70,-190,-119,130,25,-154,-136,-98,-28,-69,-75,-59
-64,-185,-122,124,29,-153,-152,-92,-31,-67,-83,-58
-41,-175,-134,108,47,-154,-150,-91,-14,-59,-77,-55
-18,-154,-136,86,59,-144,-133,-83,-11,-56,-61,-45
-43,-177,-133,110,45,-155,-140,-89,-18,-57,-66,-47
-58,-190,-132,124,38,-160,-168,-113,-49,-84,-84,-74
-52,-179,-127,115,38,-153,-166,-115,-44,-75,-80,-69
-79,-216,-137,148,29,-177,-155,-108,-31,-57,-72,-52
-42,-192,-150,117,55,-171,-146,-105,-23,-53,-69,-43
-42,-192,-150,117,54,-171,-153,-98,-34,-61,-61,-53
-20,-167,-147,94,64,-157,-163,-94,-45,-70,-61,-64
-47,-190,-143,119,48,-166,-149,-87,-24,-48,-77,-52
-44,-200,-156,122,56,-178,-140,-83,-17,-42,-75,-48
-3,-146,-144,75,71,-145,-129,-75,-4,-29,-67,-40
-25,-152,-127,89,51,-139,-115,-47,22,4,-52,-30
-6,-136,-130,71,63,-133,-107,-34,45,23,-43,-20
1,-129,-131,64,66,-130,-102,-25,57,30,-51,-11
21,-113,-134,47,78,-123,-123,-31,49,23,-50,-9
4,-131,-135,64,70,-133,-178,-83,17,9,-48,-20
0,-138,-139,69,70,-138,-206,-123,-24,-8,-59,-27
42,-105,-147,31,95,-126,-203,-124,-24,-8,-65,-20
5,-150,-155,73,81,-152,-216,-120,-35,-19,-66,-20
-44,-178,-135,111,46,-156,-209,-119,-52,0,-64,-12
-29,-188,-159,109,66,-173,-189,-109,-48,-2,-65,-31
-9,-185,-176,97,84,-180,-194,-117,-55,-47,-79,-57
-41,-205,-165,123,62,-185,-185,-96,-43,-53,-87,-66
-69,-229,-159,149,45,-194,-192,-117,-61,-61,-91,-73
-77,-229,-151,153,37,-190,-177,-92,-31,-43,-96,-64
-113,-269,-156,191,22,-212,-195,-96,-59,-71,-117,-85
-56,-211,-155,133,50,-183,-181,-94,-28,-34,-101,-94
-76,-258,-181,167,53,-219,-158,-52,-3,-47,-111,-98
-111,-270,-160,191,25,-215,-79,111,168,88,-28,-68
166,-117,-283,-24,225,-200,54,657,734,560,290,99
630,249,-381,-439,505,-66,-382,583,1290,1387,1106,694
807,541,-266,-674,536,137,-1033,-362,1186,1673,1500,1094
443,334,-110,-388,276,112,-1258,-1370,-300,236,493,614
56,26,-30,-40,43,-2,-1018,-1526,-1205,-734,-273,115
-91,-233,-142,162,26,-187,-688,-1022,-888,-617,-398,-133
-127,-254,-127,191,0,-190,-445,-587,-540,-432,-343,-172
-87,-183,-96,135,5,-139,-207,-191,-148,-127,-140,-59
-58,-217,-160,138,51,-188,-142,-65,-42,-84,-139,-88
