I,II,III,aVR,aVL,aVF,V1,V2,V3,V4,V5,V6
85,-511,-596,213,341,-553,-122,-892,-752,-390,-365,-333
374,-451,-826,39,600,-638,-460,-1499,-1246,-398,-151,-134
907,-71,-978,-418,942,-524,-1323,-2515,-2222,-361,492,457
852,825,-26,-838,439,399,-1831,-2834,-2506,114,1441,1277
750,1185,435,-968,158,810,-1694,-2399,-2151,260,1977,1817
693,1072,380,-883,156,726,-1203,-1667,-1591,57,2246,2181
527,705,178,-617,174,441,-715,-923,-809,195,2104,2134
259,192,-66,-226,162,63,-264,-279,-210,227,1488,1178
25,35,9,-30,8,22,59,113,121,161,574,196
-41,-11,30,26,-35,9,118,184,184,102,-128,-153
-93,-23,70,58,-81,23,133,201,186,86,-97,-153
-95,-16,79,55,-87,32,138,220,216,97,-104,-151
-101,-24,77,62,-89,26,138,235,227,85,-125,-165
-107,-16,91,61,-99,37,145,258,260,93,-102,-164
-104,-23,80,63,-92,28,143,273,275,91,-125,-171
-99,-11,88,54,-93,38,149,298,306,128,-115,-175
-101,-3,99,52,-100,48,149,327,341,133,-149,-192
-123,-4,119,63,-121,57,150,353,366,129,-134,-190
-124,-10,115,67,-120,52,149,378,389,140,-142,-195
-124,-6,118,65,-121,56,162,414,430,154,-142,-198
-123,1,124,61,-123,62,184,452,469,173,-158,-200
-110,9,118,50,-114,63,195,491,512,183,-168,-204
-127,12,140,57,-134,76,200,534,556,185,-168,-206
-136,24,160,55,-149,92,228,589,606,191,-175,-205
-132,44,176,43,-154,110,271,653,665,207,-174,-207
-136,70,206,33,-171,138,286,710,716,221,-189,-213
-129,87,216,21,-173,152,310,761,768,228,-201,-211
-132,99,231,16,-181,165,341,813,812,232,-203,-210
-106,125,230,-10,-168,177,341,842,857,240,-200,-208
-87,129,216,-21,-152,172,335,838,860,245,-200,-204
-96,118,214,-11,-155,166,329,827,846,234,-196,-206
-88,111,199,-12,-144,155,323,785,819,217,-195,-197
-67,84,151,-9,-109,117,279,680,706,196,-195,-183
-59,33,92,13,-76,62,209,528,548,155,-178,-168
-28,26,54,1,-41,40,153,365,383,96,-148,-128
-21,5,26,8,-24,16,94,225,228,35,-111,-87
-28,-37,-10,33,-9,-23,58,119,110,-6,-89,-63
10,-34,-44,13,27,-39,38,60,45,-20,-79,-53
15,-31,-46,8,31,-38,22,33,4,-32,-67,-51
9,-30,-39,11,24,-35,11,17,-17,-41,-64,-47
8,-24,-32,8,21,-28,2,1,-36,-48,-60,-43
-1,-27,-26,14,13,-26,-2,-12,-58,-61,-57,-40
-31,-50,-19,41,-6,-34,-9,-9,-51,-55,-52,-43
-41,-57,-16,50,-12,-37,-6,-5,-49,-50,-49,-46
-13,-53,-41,33,14,-47,3,-2,-45,-47,-62,-49
-2,-53,-51,28,24,-51,9,3,-40,-40,-73,-51
-14,-49,-35,32,10,-42,16,4,-43,-43,-78,-57
-22,-50,-28,37,3,-39,29,0,-50,-45,-84,-65
-16,-45,-30,31,7,-37,36,-1,-55,-46,-97,-76
-12,-43,-30,27,9,-36,39,0,-51,-59,-114,-88
-10,-40,-30,25,10,-35,45,-3,-50,-61,-115,-94
-4,-34,-30,19,13,-32,43,-6,-50,-59,-115,-97
-13,-43,-30,28,9,-36,37,-5,-50,-61,-120,-101
-25,-52,-26,39,1,-39,33,-5,-50,-59,-119,-110
-25,-49,-25,37,0,-36,26,-5,-53,-62,-121,-112
-25,-50,-25,38,0,-37,21,-5,-55,-65,-125,-104
-25,-50,-25,38,0,-37,25,-5,-55,-67,-125,-100
-24,-49,-25,37,1,-36,24,-5,-59,-70,-125,-94
-32,-58,-26,45,-3,-42,17,-5,-60,-73,-125,-88
-29,-62,-32,46,2,-47,14,-5,-60,-75,-125,-85
-27,-55,-28,41,1,-41,8,-5,-54,-78,-121,-85
-16,-49,-33,33,9,-41,5,-7,-61,-81,-120,-85
8,-46,-54,19,31,-49,10,-10,-76,-80,-120,-85
16,-36,-52,10,34,-44,10,-13,-75,-80,-115,-85
5,-41,-46,19,25,-43,11,-16,-75,-80,-115,-85
-19,-62,-43,41,12,-52,15,-20,-75,-80,-114,-81
-24,-61,-37,43,6,-49,15,-20,-74,-80,-109,-80
-21,-56,-35,39,7,-45,12,-15,-78,-76,-106,-80
-18,-54,-36,36,9,-44,10,-15,-80,-75,-103,-75
-15,-50,-34,33,9,-42,10,-15,-80,-75,-98,-75
-9,-45,-36,27,14,-40,6,-15,-80,-70,-95,-74
-13,-47,-34,30,11,-41,5,-15,-80,-70,-91,-69
-24,-59,-35,42,6,-47,5,-13,-80,-69,-86,-66
-20,-60,-40,40,10,-49,10,-8,-74,-63,-81,-63
-16,-54,-37,35,11,-45,14,-7,-67,-61,-78,-58
-18,-53,-35,36,8,-44,19,-1,-61,-53,-72,-55
-20,-47,-26,34,3,-36,23,-2,-54,-53,-68,-51
8,-21,-29,7,19,-25,29,21,-47,-35,-65,-45
2,13,11,-8,-5,12,48,41,-37,-6,-63,-38
9,35,26,-22,-9,30,48,33,-28,-8,-60,-36
24,13,-12,-19,18,1,39,49,-29,-17,-56,-40
8,-15,-23,3,16,-18,37,47,-30,-26,-55,-40
33,-52,-85,10,60,-69,4,15,-32,-30,-54,-39
19,-103,-122,42,71,-112,-29,-16,-69,-58,-73,-47
-6,-106,-100,56,47,-103,-19,-25,-100,-87,-88,-70
-12,-104,-92,58,40,-98,21,-20,-95,-86,-85,-68
-43,-107,-64,75,11,-85,48,-13,-85,-90,-86,-72
-60,-103,-43,82,-8,-73,44,-15,-83,-88,-85,-97
-48,-102,-54,75,3,-78,45,-2,-72,-83,-85,-95
-44,-95,-51,70,4,-73,46,-16,-70,-86,-82,-88
-27,-94,-67,61,21,-80,43,-28,-65,-85,-76,-83
-29,-90,-62,60,17,-76,50,-15,-57,-84,-72,-76
-36,-82,-46,59,5,-64,49,-25,-65,-87,-67,-77
-35,-93,-58,64,12,-75,56,3,-42,-76,-63,-81
-45,-86,-42,66,-1,-64,38,-25,-66,-86,-58,-79
-23,-73,-51,48,14,-62,47,17,-33,-72,-54,-81
-41,-67,-26,54,-7,-46,31,-45,-79,-89,-49,-79
-46,-88,-42,67,-2,-65,35,7,-30,-70,-45,-80
-42,-68,-27,55,-7,-47,25,-81,-105,-96,-49,-80
-32,-260,-228,146,98,-243,-24,-273,-302,-274,-201,-180
-42,-495,-453,269,206,-474,162,-129,-190,-330,-367,-336
198,-434,-633,118,416,-533,-54,-968,-818,-289,-147,-170
735,-200,-936,-267,836,-567,-812,-2051,-1784,-171,437,370
807,676,-131,-742,469,273,-1533,-2552,-2258,157,1326,1145
642,1339,697,-991,-27,1016,-1805,-2564,-2282,277,1842,1640
589,1293,705,-941,-58,999,-1370,-1884,-1806,-121,1894,1836
494,1042,548,-768,-27,795,-865,-1199,-1117,-176,1837,1985
291,446,155,-369,68,300,-420,-504,-395,116,1312,1388
-5,89,93,-42,-50,91,18,23,68,153,644,431
-97,13,110,42,-104,61,143,172,209,140,48,-57
-112,-25,87,69,-100,31,157,184,218,127,-133,-146
-127,-14,113,70,-120,50,170,186,231,130,-72,-120
-109,-25,84,67,-96,29,169,205,243,132,-118,-136
-93,-16,77,54,-85,30,177,231,266,128,-94,-127
-81,-23,59,52,-70,18,178,246,292,132,-110,-131
-94,-18,76,56,-85,29,181,256,311,142,-104,-132
-89,-13,76,51,-82,32,180,281,336,154,-121,-137
-88,-8,80,48,-84,36,186,302,359,148,-134,-143
-83,-2,81,42,-82,39,184,330,388,152,-133,-144
-75,3,78,36,-77,40,188,353,406,149,-151,-154
-73,10,83,32,-78,46,204,384,431,152,-156,-153
-62,14,76,24,-69,45,207,420,465,160,-164,-162
-66,26,92,20,-79,58,222,452,498,160,-180,-176
-89,30,118,29,-104,73,247,496,534,156,-200,-184
-99,50,149,25,-124,99,266,543,578,154,-215,-182
-98,82,180,8,-140,131,288,592,617,149,-233,-187
-93,96,189,-2,-141,142,307,641,658,151,-240,-197
-83,111,195,-14,-139,153,320,684,699,155,-246,-195
-71,118,189,-23,-130,153,324,709,732,158,-265,-195
-54,124,178,-35,-116,150,316,701,741,162,-273,-195
-40,131,171,-46,-106,151,309,693,738,164,-262,-195
-50,110,161,-30,-106,135,304,681,725,171,-251,-185
-54,82,137,-14,-96,109,282,617,659,169,-233,-160
-26,66,92,-20,-59,79,232,501,547,154,-202,-139
18,54,36,-36,-10,45,170,356,404,121,-170,-110
26,38,11,-32,8,24,124,243,273,82,-127,-71
30,17,-13,-24,21,2,82,156,166,53,-81,-51
53,0,-54,-26,53,-27,40,84,88,18,-55,-40
41,-16,-56,-12,49,-36,25,38,48,-7,-49,-31
38,-16,-54,-10,46,-35,20,11,17,-19,-51,-22
42,-15,-57,-13,50,-36,12,9,4,-28,-49,-16
39,-14,-53,-12,46,-33,5,6,-1,-25,-50,-21
49,-10,-58,-19,53,-34,-3,3,-7,-25,-50,-24
56,-10,-66,-23,61,-37,-1,0,-12,-25,-53,-27
39,-15,-54,-12,47,-35,10,1,-18,-25,-57,-32
-3,-42,-39,23,18,-40,16,5,-23,-25,-59,-34
-21,-56,-35,39,7,-45,19,4,-28,-29,-64,-39
-26,-54,-28,40,1,-41,22,5,-33,-33,-65,-40
-29,-56,-28,43,0,-42,26,5,-37,-35,-77,-41
-34,-53,-18,44,-7,-35,30,5,-41,-56,-74,-57
-39,-66,-27,53,-6,-46,26,2,-45,-62,-77,-71
-29,-69,-41,49,6,-55,21,-3,-40,-59,-100,-79
-31,-66,-35,49,2,-50,16,-6,-41,-66,-102,-85
-42,-76,-33,59,-4,-54,13,-9,-38,-64,-113,-93
-54,-75,-20,65,-17,-47,7,-14,-35,-66,-104,-96
-56,-75,-19,66,-18,-47,5,-15,-35,-71,-92,-91
-47,-75,-28,61,-9,-51,23,-15,-37,-74,-97,-90
-45,-75,-30,60,-7,-53,27,-15,-49,-83,-94,-85
-61,-74,-13,67,-23,-43,19,-15,-48,-88,-95,-86
-42,-70,-28,56,-7,-48,15,-16,-54,-84,-95,-96
-69,-68,1,69,-35,-33,10,-13,-36,-81,-94,-91
-67,-64,3,66,-35,-30,2,-25,-39,-78,-86,-85
-31,-62,-31,47,0,-46,3,-42,-78,-75,-79,-77
-51,-59,-8,55,-21,-33,11,-36,-68,-76,-73,-73
-29,-65,-36,47,4,-51,4,-33,-63,-80,-65,-85
-71,-73,-1,72,-35,-37,-3,-30,-59,-82,-60,-83
-38,-70,-32,54,-3,-51,-9,-23,-49,-85,-52,-79
14,-70,-84,28,49,-77,-16,-36,-62,-88,-46,-76
-14,-70,-56,42,21,-63,-21,-47,-71,-90,-38,-71
-11,-70,-59,41,24,-64,-25,-45,-67,-90,-34,-69
-25,-70,-45,48,10,-57,-25,-43,-64,-90,-28,-65
-28,-73,-45,51,9,-59,-25,-39,-62,-90,-25,-65
-32,-75,-43,54,6,-59,-26,-40,-59,-90,-20,-62
-6,-75,-69,41,32,-71,-23,-37,-61,-90,-13,-59
1,-80,-81,39,41,-80,-39,-34,-60,-89,-38,-60
-14,-81,-66,48,26,-73,-48,-35,-60,-81,-51,-57
-14,-77,-64,46,25,-70,-33,-30,-60,-71,-39,-51
1,-59,-59,29,30,-59,-26,-31,-60,-63,-35,-47
23,-36,-59,6,41,-47,-12,-28,-59,-54,-27,-42
44,-18,-62,-13,53,-40,7,-8,-46,-47,-21,-38
68,39,-29,-53,48,4,39,12,-40,-50,-24,-33
52,49,-3,-50,27,23,50,23,-39,-50,-25,-30
41,0,-41,-20,41,-20,36,17,-41,-50,-25,-30
57,-12,-69,-22,63,-40,24,13,-39,-50,-24,-29
71,-44,-115,-13,93,-79,-20,-4,-42,-49,-27,-48
65,-87,-152,11,109,-120,-48,-41,-76,-71,-44,-70
48,-90,-138,21,93,-114,-42,-45,-90,-90,-63,-70
5,-91,-96,43,50,-93,-42,-42,-89,-94,-73,-71
-19,-90,-71,55,26,-80,-37,-39,-90,-96,-80,-81
-6,-91,-85,49,39,-87,-36,-37,-90,-95,-84,-86
-23,-101,-78,62,28,-89,-34,-35,-90,-95,-86,-85
-25,-99,-74,63,24,-86,-29,-30,-89,-95,-85,-85
-22,-94,-73,58,26,-83,-31,-33,-90,-93,-89,-85
-24,-93,-69,58,23,-80,-26,-25,-80,-85,-91,-85
-21,-86,-65,54,22,-75,-27,-33,-88,-80,-87,-80
-20,-86,-66,53,24,-76,-22,-14,-71,-72,-87,-81
-20,-78,-58,49,19,-67,-25,-37,-86,-67,-81,-78
-14,-75,-61,45,24,-68,-16,-5,-64,-59,-81,-74
-16,-67,-50,42,17,-58,-24,-34,-90,-67,-76,-76
-9,-63,-54,36,22,-58,-18,-10,-77,-68,-75,-72
-10,-60,-50,35,20,-55,-40,-43,-86,-68,-76,-66
-30,-206,-176,119,73,-191,-111,-261,-303,-218,-187,-135
-63,-501,-437,282,188,-469,4,-176,-273,-394,-433,-330
137,-523,-660,193,399,-592,-218,-789,-647,-337,-327,-278
691,-351,-1042,-170,867,-696,-1084,-2003,-1678,-302,129,153
905,322,-583,-613,744,-131,-1756,-2589,-2199,83,1010,883
771,1076,304,-924,233,690,-1783,-2457,-2013,692,1877,1615
677,1122,445,-900,116,784,-1410,-1912,-1765,505,2174,1954
567,937,369,-752,99,653,-940,-1285,-1247,267,2179,2124
366,445,78,-406,144,261,-487,-566,-485,272,1655,1653
75,50,-25,-62,49,12,-84,-12,-5,171,889,603
-42,2,44,20,-43,23,100,186,172,112,95,-22
-77,-50,27,63,-52,-11,114,211,175,45,-218,-149
-103,-30,72,66,-87,21,120,236,204,59,-119,-137
-79,-32,48,55,-63,8,130,253,226,48,-177,-149
-87,-22,64,54,-75,21,153,269,242,44,-142,-153
-104,-14,90,59,-96,38,160,281,252,41,-165,-158
-116,-13,103,64,-109,45,175,299,277,60,-169,-156
-118,-12,106,65,-112,47,197,335,315,81,-156,-150
-136,-26,110,81,-123,42,211,358,338,86,-159,-145
-162,-20,142,90,-151,61,242,403,386,126,-152,-152
-160,-16,144,87,-152,64,255,419,403,122,-182,-186
-162,-20,142,91,-152,60,260,443,437,118,-178,-185
-151,-14,137,83,-144,61,265,483,468,115,-180,-182
-132,4,136,63,-134,70,279,513,502,107,-181,-181
-160,21,181,69,-171,101,318,576,571,148,-174,-176
-155,51,206,52,-181,128,336,622,619,181,-200,-200
-140,59,199,40,-170,129,355,663,662,180,-219,-213
-146,72,219,37,-183,145,372,717,717,185,-214,-210
-133,121,255,6,-194,188,400,767,769,187,-216,-211
-135,130,265,2,-200,197,426,810,816,191,-215,-210
-117,138,256,-10,-187,197,415,830,842,189,-215,-210
-117,142,259,-13,-188,200,409,837,840,191,-206,-203
-122,127,249,-3,-185,187,395,807,831,199,-193,-193
-95,123,218,-15,-156,170,363,734,778,191,-182,-179
-60,97,158,-19,-109,127,304,611,659,159,-162,-157
-15,64,80,-25,-48,72,233,448,499,115,-136,-131
-27,25,52,0,-39,39,167,293,337,74,-105,-98
-29,3,33,13,-31,18,110,179,214,21,-75,-61
-23,-10,13,16,-18,2,79,103,129,-23,-54,-41
-22,-23,-1,22,-10,-11,65,41,73,-47,-43,-34
-8,-28,-20,19,6,-24,59,8,40,-56,-39,-21
-39,-37,3,38,-21,-17,52,-1,30,-55,-41,-13
-32,-21,11,27,-21,-5,44,-2,27,-55,-36,-9
-20,-38,-19,29,0,-28,37,-6,20,-60,-35,-11
-24,-62,-38,43,7,-50,45,-9,15,-66,-35,-9
-18,-49,-30,34,6,-39,52,-10,10,-69,-34,-11
-31,-45,-14,38,-9,-29,48,-26,2,-74,-61,-41
-27,-38,-11,33,-8,-24,52,-32,-7,-76,-72,-53
-20,-30,-9,25,-5,-19,66,-29,-20,-80,-70,-48
-30,-36,-6,34,-12,-21,72,-30,-34,-79,-81,-51
-37,-42,-5,40,-15,-23,73,-31,-36,-75,-80,-49
-41,-41,-1,41,-20,-21,77,-29,-35,-76,-91,-58
-45,-37,8,40,-26,-14,79,-25,-36,-73,-109,-74
-49,-35,14,42,-31,-10,82,-12,-35,-70,-103,-68
-73,-53,19,63,-46,-17,81,-19,-36,-70,-104,-71
-73,-63,11,68,-42,-26,75,-45,-48,-78,-127,-101
-61,-58,3,59,-32,-28,70,-44,-51,-82,-130,-104
-79,-61,18,70,-49,-21,64,-39,-50,-77,-124,-97
-84,-59,25,71,-54,-17,59,-38,-50,-75,-122,-95
-74,-61,13,68,-44,-24,54,-31,-50,-71,-117,-89
-90,-76,14,83,-51,-31,50,-31,-51,-70,-115,-86
-105,-71,34,88,-69,-18,50,-33,-49,-71,-110,-80
-103,-71,32,87,-67,-19,50,-44,-59,-68,-110,-77
-84,-58,26,71,-54,-16,50,-49,-66,-62,-106,-72
-75,-52,23,63,-49,-14,50,-42,-60,-59,-105,-68
-84,-67,17,75,-50,-25,47,-38,-58,-53,-103,-65
-69,-55,14,61,-41,-20,41,-31,-53,-52,-98,-62
-45,-59,-14,52,-15,-36,37,-26,-49,-64,-95,-57
-37,-64,-26,51,-5,-45,32,-29,-56,-65,-91,-55
-58,-78,-21,68,-18,-49,28,-31,-61,-64,-87,-59
-76,-88,-12,82,-31,-50,24,-27,-60,-61,-84,-64
-61,-77,-16,69,-22,-47,18,-25,-60,-59,-80,-63
-30,-74,-44,52,7,-59,13,-21,-60,-62,-74,-59
-23,-69,-46,47,12,-57,7,-19,-60,-64,-71,-60
-19,-61,-43,40,12,-52,2,-32,-56,-77,-66,-60
-19,-60,-41,39,11,-50,-5,-32,-49,-77,-62,-60
-15,-49,-34,32,10,-41,-7,-23,-45,-71,-57,-59
-2,-37,-35,20,17,-36,-16,-18,-39,-66,-51,-55
-18,-43,-26,30,4,-34,-21,-10,-34,-59,-46,-50
0,-28,-29,15,15,-28,-9,-5,-28,-56,-39,-47
5,0,-5,-3,5,-2,7,4,-7,-38,-36,-42
10,46,36,-28,-14,41,36,17,9,-18,-23,-33
23,36,12,-30,5,24,31,27,19,-12,-23,-23
11,-6,-18,-2,14,-12,13,32,23,-8,-40,-12
32,-16,-47,-8,40,-31,-9,36,11,-4,-41,-30
34,-43,-77,5,56,-60,-48,14,-24,-27,-42,-37
35,-71,-106,18,70,-88,-68,-33,-66,-72,-70,-49
13,-84,-97,36,55,-90,-67,-57,-76,-86,-98,-73
-57,-86,-29,72,-14,-57,-37,-51,-74,-87,-95,-61
-44,-68,-24,56,-10,-46,-28,-47,-74,-91,-95,-68
-35,-72,-37,54,1,-55,-17,-47,-76,-93,-96,-77
-77,-110,-32,94,-22,-71,-8,-36,-73,-96,-95,-70
-73,-101,-28,87,-22,-64,-24,-44,-75,-90,-92,-65
-68,-90,-21,79,-23,-55,-7,-25,-62,-84,-89,-60
-62,-80,-18,71,-22,-48,-30,-35,-66,-73,-84,-52
-63,-70,-7,67,-27,-39,-35,-18,-54,-82,-83,-53
-35,-61,-26,48,-4,-43,0,-21,-54,-110,-77,-62
-26,-44,-18,36,-4,-31,4,-18,-52,-98,-74,-57
-44,-60,-15,52,-14,-37,7,2,-42,-89,-82,-67
-9,-53,-44,31,18,-48,-10,-37,-68,-86,-77,-78
-41,-52,-10,47,-15,-31,-11,37,-11,-51,-82,-91
-41,-94,-53,68,6,-73,-76,-224,-219,-139,-109,-104
-33,-361,-328,197,148,-345,-31,-236,-327,-351,-359,-291
-40,-501,-460,271,210,-480,20,-490,-449,-382,-440,-400
416,-407,-823,-4,620,-615,-648,-1854,-1436,-427,-166,-140
931,7,-924,-469,928,-458,-1592,-2806,-2410,-395,456,459
859,901,43,-880,408,472,-1912,-2843,-2466,112,1410,1301
762,1253,491,-1008,135,872,-1633,-2273,-2039,246,1905,1801
741,1078,337,-910,202,708,-1141,-1532,-1451,168,2199,2170
542,657,116,-599,213,386,-692,-845,-716,365,2147,2095
230,156,-74,-193,151,41,-227,-173,-145,323,1443,1057
-37,20,57,8,-47,39,70,166,125,200,432,115
-65,15,81,24,-73,48,108,231,183,120,-166,-182
-85,-11,75,48,-80,32,114,237,193,103,-91,-170
-120,-34,86,77,-103,26,113,251,206,102,-131,-172
-89,6,95,41,-92,50,119,273,231,103,-135,-183
-120,-19,101,70,-111,41,119,277,246,121,-134,-175
-174,-66,108,120,-141,21,122,309,274,129,-170,-178
-160,-58,102,108,-130,22,134,349,322,165,-152,-173
-133,-34,99,84,-116,32,132,357,332,165,-175,-174
-116,0,116,58,-116,58,156,395,372,169,-164,-168
-99,7,106,46,-103,57,176,433,409,172,-179,-171
-118,-5,112,61,-115,54,172,465,444,167,-181,-172
-112,-3,109,57,-110,53,185,502,484,174,-183,-183
-85,25,111,30,-98,68,208,543,520,189,-179,-191
-109,11,120,49,-115,65,236,600,572,195,-174,-190
-136,9,145,63,-141,77,273,655,631,205,-194,-191
-119,43,162,38,-140,102,291,712,689,228,-202,-190
-118,70,188,24,-154,129,308,780,750,244,-200,-191
-102,108,210,-3,-157,159,336,841,809,263,-211,-190
-79,129,207,-25,-143,168,354,897,865,280,-218,-183
-102,138,240,-18,-171,189,373,924,913,289,-220,-176
-94,146,240,-26,-167,192,378,919,925,286,-215,-169
-62,155,216,-47,-139,185,366,913,915,275,-210,-162
-39,147,186,-55,-112,166,348,850,858,263,-206,-157
-35,97,132,-31,-84,114,305,723,732,231,-202,-147
-25,57,82,-17,-54,70,233,562,563,177,-194,-129
-5,30,35,-12,-20,32,162,380,376,100,-169,-105
8,6,-2,-7,5,2,103,229,223,29,-147,-82
18,-3,-22,-7,20,-12,61,123,115,-8,-132,-65
16,-13,-28,-1,22,-20,33,53,40,-41,-112,-59
25,-19,-44,-3,35,-31,19,14,-7,-65,-100,-56
15,-29,-44,7,30,-36,17,0,-40,-75,-97,-53
22,-29,-51,4,36,-39,13,-3,-47,-78,-93,-48
33,-34,-67,0,50,-50,10,-7,-48,-75,-89,-45
20,-39,-59,10,39,-49,5,-10,-52,-75,-85,-49
14,-42,-56,15,35,-48,7,-15,-54,-73,-87,-50
-10,-61,-51,36,21,-56,14,-13,-56,-70,-91,-50
-21,-67,-46,45,13,-57,21,-10,-56,-70,-94,-55
-25,-68,-43,46,9,-55,28,-11,-61,-70,-98,-55
-35,-73,-38,54,2,-56,33,-10,-60,-70,-100,-56
-38,-74,-35,57,-1,-54,49,-11,-58,-70,-105,-65
-46,-77,-32,61,-7,-54,57,-9,-54,-70,-113,-75
-52,-80,-27,66,-12,-53,52,-6,-50,-71,-113,-90
-55,-80,-25,68,-15,-52,51,-3,-47,-69,-109,-98
-50,-80,-30,65,-10,-55,47,-1,-42,-65,-110,-95
-50,-79,-30,64,-10,-54,45,2,-41,-65,-110,-95
-58,-90,-32,74,-13,-60,45,5,-44,-63,-110,-95
-55,-97,-42,76,-6,-69,45,2,-47,-59,-110,-95
-73,-94,-21,84,-26,-57,45,-6,-50,-60,-105,-95
-67,-96,-28,82,-19,-62,29,-13,-53,-63,-100,-91
-26,-95,-69,60,22,-81,8,-11,-55,-65,-96,-85
-30,-95,-65,63,18,-80,5,-10,-55,-65,-91,-80
-37,-92,-55,64,9,-73,5,-9,-59,-65,-86,-74
-36,-87,-51,62,8,-69,1,-5,-60,-65,-82,-69
-35,-85,-50,60,8,-67,0,-5,-60,-64,-78,-64
-30,-79,-49,55,10,-64,0,-7,-65,-60,-72,-60
-34,-79,-44,57,5,-61,7,-11,-65,-60,-69,-60
-23,-68,-45,46,12,-57,14,-9,-66,-60,-64,-60
-34,-78,-45,57,6,-61,21,-14,-70,-60,-59,-60
-46,-91,-45,69,0,-68,25,-15,-71,-60,-56,-60
-37,-83,-45,61,4,-64,25,-15,-67,-59,-49,-56
-36,-80,-45,58,5,-62,25,-21,-65,-61,-46,-53
-29,-74,-45,52,9,-60,25,-19,-64,-59,-41,-48
-27,-72,-44,50,9,-58,25,-22,-63,-62,-37,-47
-40,-80,-40,60,0,-59,24,-17,-58,-58,-36,-39
-71,-105,-33,88,-19,-69,21,-29,-63,-64,-44,-46
-49,-78,-29,64,-10,-53,19,-47,-73,-75,-52,-67
-31,-54,-23,43,-4,-38,14,-33,-66,-64,-32,-57
-49,-67,-17,58,-16,-41,23,-18,-53,-48,-21,-44
-2,-14,-12,8,5,-13,56,21,-12,-9,-1,-36
23,32,9,-28,7,20,71,41,13,11,29,-29
28,21,-7,-25,18,7,63,25,0,1,31,-22
31,-16,-47,-7,39,-32,48,15,-7,-12,27,-17
21,-41,-62,10,42,-51,39,6,-17,-23,26,-6
30,-74,-104,22,67,-89,14,-11,-60,-41,13,-13
3,-112,-115,54,60,-114,-19,-41,-87,-79,-17,-50
-13,-87,-74,50,31,-80,-8,-50,-83,-81,-29,-51
-14,-77,-64,46,25,-70,5,-50,-85,-79,-34,-51
-36,-102,-66,69,15,-83,6,-48,-79,-81,-40,-65
-38,-102,-64,70,13,-83,9,-53,-82,-80,-41,-67
-30,-97,-66,64,18,-81,12,-46,-79,-80,-44,-73
-27,-90,-63,59,19,-77,14,-51,-88,-80,-46,-74
-21,-85,-65,53,22,-75,17,-41,-83,-79,-50,-78
-28,-80,-52,55,12,-66,29,-42,-88,-80,-51,-80
-44,-91,-47,67,2,-69,31,-41,-93,-80,-55,-83
-51,-91,-40,71,-5,-66,28,-28,-84,-78,-55,-86
-47,-84,-38,65,-4,-61,18,-50,-98,-87,-54,-80
-44,-88,-44,66,1,-66,23,-23,-62,-80,-57,-78
-49,-75,-27,62,-11,-50,5,-79,-100,-94,-53,-71
-41,-86,-45,64,2,-65,17,5,-35,-71,-52,-69
-56,-96,-40,76,-8,-67,-47,-168,-170,-116,-54,-69
-67,-335,-268,201,101,-302,-58,-233,-308,-285,-253,-205
-58,-525,-467,291,205,-495,77,-196,-275,-348,-395,-352
286,-486,-772,100,529,-628,-326,-1249,-1027,-312,-143,-140
818,-183,-1000,-317,909,-591,-1149,-2293,-2001,-215,501,437
841,743,-98,-792,469,322,-1738,-2719,-2391,161,1442,1234
698,1229,531,-964,83,880,-1743,-2497,-2220,263,1957,1761
652,1125,473,-889,89,799,-1249,-1734,-1668,-17,2196,2091
494,801,307,-648,93,554,-786,-1055,-955,81,2069,2138
246,238,-8,-242,126,115,-326,-372,-299,190,1461,1296
-12,14,26,-2,-19,20,44,68,73,130,667,284
-132,-45,87,88,-110,21,104,162,162,85,-91,-154
-146,-53,93,99,-119,20,112,174,163,57,-139,-182
-137,-37,101,86,-119,32,127,196,191,71,-107,-169
-128,-43,85,85,-106,20,127,215,196,57,-149,-185
-122,-26,96,74,-109,35,133,233,227,57,-112,-176
-114,-30,84,72,-99,27,127,245,251,61,-153,-186
-109,-18,90,63,-99,35,137,273,274,85,-136,-185
-124,-16,108,70,-116,46,153,300,310,88,-156,-191
-128,-10,118,68,-123,54,167,329,337,93,-155,-193
-117,-4,113,60,-115,54,178,357,368,102,-168,-196
-114,1,116,56,-115,58,202,378,400,106,-176,-204
-109,7,116,51,-113,61,219,419,437,119,-178,-205
-99,14,114,42,-107,64,228,455,474,127,-185,-205
-113,22,134,45,-124,78,250,499,523,136,-186,-205
-124,31,155,46,-140,93,265,551,568,138,-196,-205
-120,36,156,42,-139,96,284,596,608,143,-210,-205
-132,50,182,41,-157,116,310,656,669,161,-221,-203
-135,77,212,28,-174,144,327,716,723,173,-227,-198
-128,86,214,21,-171,149,333,756,764,175,-241,-195
-113,92,205,10,-159,149,343,788,799,191,-240,-190
-102,94,196,4,-149,145,336,799,807,206,-233,-187
-105,86,191,9,-148,138,325,790,804,208,-230,-184
-91,84,175,3,-133,129,313,752,773,195,-224,-175
-59,77,136,-9,-97,106,274,657,679,183,-221,-165
-37,51,88,-7,-63,69,217,516,537,154,-209,-149
-30,17,47,6,-38,32,149,364,374,100,-186,-126
-24,-7,17,15,-20,5,89,232,229,52,-150,-94
-21,-27,-6,25,-7,-17,47,129,120,13,-121,-69
-17,-46,-29,31,7,-37,21,61,45,-13,-109,-60
2,-46,-48,22,25,-47,7,20,-7,-27,-95,-51
-1,-52,-51,26,25,-51,4,4,-40,-38,-90,-50
-15,-65,-50,40,17,-57,5,2,-48,-51,-88,-50
-7,-58,-50,32,22,-54,5,-2,-50,-52,-84,-50
0,-50,-50,25,25,-50,5,-5,-51,-49,-82,-50
4,-45,-49,21,27,-47,6,-10,-50,-50,-79,-49
5,-36,-41,15,23,-38,12,-8,-51,-50,-84,-54
-7,-40,-33,24,14,-36,19,-5,-50,-50,-91,-54
-22,-47,-25,35,1,-36,26,-6,-51,-51,-94,-58
-27,-45,-18,37,-4,-31,33,-5,-48,-55,-106,-60
-30,-41,-11,36,-10,-26,39,-5,-45,-55,-116,-61
-30,-40,-10,35,-10,-25,44,-6,-45,-57,-117,-74
-30,-35,-4,33,-12,-20,47,-12,-45,-61,-122,-83
-28,-36,-8,33,-10,-22,52,-21,-45,-60,-125,-88
-20,-52,-32,36,6,-42,55,-23,-46,-57,-122,-91
-26,-62,-36,45,5,-49,55,-20,-50,-55,-117,-89
-30,-64,-34,48,3,-49,55,-20,-50,-55,-114,-90
-34,-65,-32,50,0,-48,55,-20,-51,-55,-110,-90
-35,-65,-29,50,-3,-46,55,-20,-55,-55,-106,-90
-35,-65,-30,50,-2,-47,51,-20,-55,-55,-103,-89
-40,-65,-25,53,-7,-45,44,-15,-53,-55,-100,-84
-44,-65,-20,55,-12,-42,37,-15,-50,-55,-98,-81
-54,-69,-15,62,-19,-42,31,-15,-50,-55,-95,-78
-57,-69,-12,63,-22,-40,23,-15,-50,-55,-92,-73
-60,-65,-5,63,-27,-35,22,-15,-50,-55,-89,-70
-54,-63,-9,59,-22,-36,26,-17,-49,-59,-87,-74
-38,-60,-22,49,-8,-40,25,-26,-46,-60,-84,-75
-38,-57,-19,47,-9,-38,25,-33,-43,-60,-81,-75
-34,-54,-21,44,-6,-37,21,-31,-40,-60,-79,-75
-33,-52,-19,42,-7,-35,20,-30,-37,-60,-74,-75
-28,-49,-21,38,-3,-35,20,-29,-35,-59,-76,-74
-27,-46,-19,37,-4,-32,20,-25,-33,-54,-80,-70
-26,-43,-17,35,-4,-30,20,-25,-30,-49,-80,-67
-7,-40,-34,24,13,-37,20,-22,-27,-44,-80,-65
-3,-39,-35,22,16,-37,20,-20,-24,-40,-80,-61
1,-35,-36,18,19,-35,20,-20,-20,-36,-80,-60
-3,-33,-30,18,14,-31,24,-20,-20,-31,-79,-56
3,-29,-32,13,17,-31,30,-20,-13,-31,-81,-49
-1,-27,-25,14,12,-26,30,-20,-5,-28,-78,-42
-6,-25,-18,15,6,-21,30,-13,3,-35,-86,-36
11,-15,-27,2,19,-21,29,-3,10,-33,-91,-29
0,12,12,-6,-6,12,40,11,22,-17,-77,-24
16,66,50,-42,-17,58,61,33,54,-9,-67,-20
27,63,37,-45,-5,50,57,36,60,-1,-58,-20
14,13,-1,-14,8,6,53,32,50,7,-47,-20
33,-9,-42,-11,37,-25,32,24,39,15,-39,-19
43,-49,-92,3,68,-70,-14,-14,6,-16,-69,-39
14,-94,-107,40,61,-100,-31,-36,-12,-58,-108,-66
3,-89,-92,43,48,-90,-25,-33,-15,-53,-110,-65
-14,-79,-65,46,26,-72,-15,-36,-25,-50,-111,-66
-41,-83,-42,62,0,-62,2,-29,-29,-70,-114,-89
-32,-77,-45,55,7,-60,12,-32,-39,-82,-116,-97
-44,-86,-42,65,-1,-64,22,-28,-41,-79,-115,-95
-28,-64,-36,46,4,-50,28,-37,-47,-80,-110,-95
-24,-60,-36,43,6,-48,26,-34,-45,-81,-110,-95
-71,-99,-28,85,-21,-63,20,-34,-44,-79,-110,-95
-59,-90,-30,74,-14,-60,14,-40,-49,-81,-109,-90
-39,-90,-52,65,7,-71,13,-26,-37,-78,-111,-90
-29,-83,-54,56,13,-68,3,-49,-52,-82,-110,-83
-23,-82,-59,53,18,-70,7,-15,-24,-78,-119,-85
-23,-76,-53,50,15,-65,-7,-62,-61,-86,-111,-77
1,-67,-68,33,35,-67,2,-2,-11,-107,-119,-83
-42,-98,-56,70,7,-77,-43,-130,-107,-123,-114,-90
-34,-276,-242,155,104,-259,-54,-256,-292,-319,-284,-200
-57,-513,-456,285,200,-484,76,-213,-263,-421,-491,-389
200,-529,-729,165,464,-628,-346,-1260,-1060,-445,-327,-257
820,-247,-1066,-286,943,-656,-1253,-2504,-2250,-570,177,243
920,550,-371,-735,645,90,-1782,-2838,-2514,-40,1195,1091
768,1080,312,-924,228,696,-1731,-2498,-2188,366,1976,1779
707,1006,301,-857,203,654,-1301,-1792,-1706,165,2287,2148
535,726,190,-631,172,457,-842,-1094,-979,194,2259,2297
285,223,-62,-253,173,81,-404,-405,-305,198,1687,1538
31,29,-2,-30,16,14,-22,64,94,170,825,427
-52,17,68,17,-60,42,95,205,224,135,-26,-96
-69,-8,61,38,-65,26,109,221,230,107,-126,-136
-71,13,84,29,-78,49,122,247,254,131,-67,-119
-70,-1,69,36,-70,34,121,268,262,112,-120,-139
-73,15,87,29,-80,51,129,286,286,124,-75,-132
-51,24,74,14,-63,49,137,306,301,121,-110,-143
-67,32,99,17,-83,66,146,324,329,131,-88,-139
-72,35,107,18,-90,71,156,350,355,136,-108,-145
-53,54,108,0,-81,80,170,374,381,143,-104,-145
-58,57,115,1,-87,86,182,399,414,147,-114,-148
-60,53,113,3,-87,83,199,432,440,160,-127,-152
-72,58,130,7,-101,93,210,463,477,169,-132,-159
-91,51,142,20,-117,96,215,496,502,173,-154,-171
-84,73,157,5,-121,115,232,538,538,188,-159,-175
-98,83,181,7,-140,132,261,586,588,189,-164,-179
-111,91,201,10,-156,146,283,640,637,196,-164,-182
-102,122,224,-11,-163,173,308,697,689,211,-174,-186
-117,133,250,-8,-184,191,336,749,742,218,-178,-186
-123,149,272,-13,-198,210,351,799,788,223,-175,-185
-107,171,278,-32,-193,224,364,840,830,238,-175,-185
-103,169,272,-33,-188,220,361,848,844,248,-170,-185
-111,157,268,-24,-190,212,354,844,826,243,-170,-185
-101,145,246,-23,-174,195,335,812,806,238,-169,-184
-59,134,194,-38,-127,164,296,721,735,236,-157,-172
-29,100,129,-36,-80,115,242,586,592,204,-139,-153
-10,67,76,-29,-43,71,169,422,430,143,-112,-127
11,48,36,-30,-13,42,114,271,272,86,-82,-97
6,9,3,-8,1,6,70,159,150,41,-57,-72
-7,-15,-8,11,1,-11,33,85,71,9,-37,-55
-4,-19,-15,12,5,-16,22,31,13,-8,-29,-50
-8,-28,-20,19,6,-24,18,8,-24,-15,-26,-48
-7,-36,-29,22,11,-32,12,5,-39,-26,-22,-45
-8,-41,-33,24,13,-36,6,0,-41,-28,-18,-41
-10,-39,-30,25,10,-34,1,-4,-40,-25,-15,-39
8,-42,-51,17,30,-47,4,-9,-41,-38,-18,-43
7,-46,-53,20,30,-49,13,-11,-39,-44,-26,-46
-2,-44,-42,23,21,-43,21,-9,-42,-47,-31,-48
-9,-49,-40,29,16,-44,29,-11,-45,-52,-40,-52
-18,-50,-33,34,7,-41,36,-24,-46,-55,-49,-54
-19,-50,-31,35,6,-40,42,-26,-50,-58,-56,-61
-28,-55,-27,42,0,-41,45,-21,-51,-60,-70,-67
-30,-55,-25,43,-2,-40,49,-20,-50,-64,-75,-76
-35,-56,-22,46,-6,-39,60,-16,-50,-65,-82,-94
-43,-62,-20,53,-11,-41,65,-15,-50,-69,-91,-98
-42,-62,-20,52,-11,-41,64,-11,-50,-70,-89,-100
-39,-59,-20,49,-9,-39,68,-10,-50,-72,-90,-105
-36,-56,-20,46,-7,-38,70,-10,-50,-75,-90,-102
-33,-53,-20,43,-6,-36,70,-10,-50,-76,-90,-100
-29,-49,-20,39,-5,-35,67,-10,-50,-80,-89,-100
-33,-54,-21,44,-6,-37,61,-10,-50,-80,-84,-100
-38,-65,-28,52,-4,-46,56,-10,-50,-82,-81,-100
-47,-80,-34,64,-6,-57,52,-10,-50,-86,-78,-100
-44,-79,-36,62,-4,-57,48,-10,-50,-85,-73,-94
-27,-67,-39,47,6,-53,43,-10,-50,-85,-70,-89
-16,-58,-42,37,13,-49,40,-10,-50,-85,-73,-83
-4,-49,-45,27,21,-47,38,-15,-50,-85,-76,-77
-7,-51,-44,29,19,-47,35,-15,-50,-85,-74,-72
-9,-48,-39,29,15,-44,32,-15,-51,-85,-75,-69
-9,-45,-36,28,14,-40,30,-15,-55,-86,-74,-70
-12,-44,-32,28,11,-38,27,-14,-55,-90,-76,-66
-20,-49,-28,35,4,-38,24,-18,-55,-90,-80,-65
-38,-63,-25,51,-6,-44,25,-20,-55,-90,-79,-65
-41,-66,-25,54,-7,-45,25,-20,-55,-90,-83,-60
-39,-64,-25,52,-7,-45,25,-20,-52,-89,-85,-60
-41,-66,-25,54,-8,-45,27,-20,-49,-87,-85,-59
-39,-64,-25,52,-6,-45,30,-20,-51,-83,-81,-54
-41,-65,-24,54,-8,-45,31,-14,-49,-82,-76,-55
-33,-58,-25,46,-4,-41,29,-9,-50,-77,-72,-53
-36,-50,-14,43,-10,-32,31,-2,-49,-76,-68,-46
-31,-37,-6,34,-12,-21,28,1,-37,-73,-62,-42
1,13,12,-7,-6,12,38,14,-25,-48,-43,-35
0,34,34,-17,-17,34,65,36,-15,-31,-29,-30
6,7,0,-6,3,3,66,29,-5,-37,-31,-25
15,-18,-33,2,24,-25,54,18,10,-39,-29,-31
32,-33,-65,1,49,-49,29,14,3,-40,-32,-37
29,-74,-103,23,66,-88,-23,-22,-41,-72,-60,-44
-14,-106,-93,60,40,-99,-48,-55,-67,-94,-86,-57
8,-69,-77,30,43,-73,-33,-53,-70,-88,-94,-54
-36,-106,-71,71,18,-88,-16,-47,-68,-91,-103,-75
-72,-136,-64,105,-4,-100,-8,-43,-63,-85,-110,-94
-24,-85,-61,55,19,-73,-5,-41,-67,-85,-111,-89
-31,-87,-57,59,13,-72,-1,-31,-59,-86,-110,-91
-35,-85,-50,60,8,-67,0,-41,-64,-91,-110,-89
-32,-82,-49,57,9,-65,6,-28,-55,-89,-111,-90
-37,-79,-42,58,2,-60,3,-43,-66,-91,-108,-86
-28,-76,-48,53,11,-62,7,-28,-55,-89,-106,-84
-32,-74,-42,53,5,-58,10,-39,-63,-90,-102,-81
-35,-82,-47,59,6,-64,9,-39,-61,-94,-100,-78
-37,-83,-46,61,4,-64,11,-32,-52,-93,-97,-75
-38,-72,-34,55,-2,-53,-3,-72,-80,-102,-94,-75
-30,-67,-37,49,4,-52,11,0,-19,-94,-89,-79
-40,-122,-82,82,21,-102,-62,-243,-232,-189,-136,-113
-58,-405,-348,232,145,-376,-12,-183,-268,-369,-383,-303
-3,-498,-495,251,247,-497,20,-462,-420,-378,-433,-379
475,-420,-895,-27,685,-657,-595,-1792,-1461,-401,-132,-87
931,48,-883,-489,907,-417,-1469,-2699,-2396,-330,581,578
868,943,74,-906,397,508,-1873,-2844,-2522,90,1492,1387
793,1211,418,-1002,187,814,-1636,-2306,-2108,128,1954,1867
718,1063,346,-891,185,704,-1118,-1518,-1448,42,2236,2259
514,617,103,-566,205,360,-652,-820,-699,221,2055,2113
205,124,-81,-164,143,21,-184,-164,-133,218,1363,1035
-28,6,34,11,-31,20,95,166,153,167,391,96
-79,-44,35,61,-57,-4,123,216,198,120,-211,-179
-110,-26,83,68,-96,28,130,229,209,116,-130,-160
-103,-25,78,64,-90,26,138,249,238,119,-163,-166
-107,-22,85,64,-96,32,142,260,244,106,-156,-165
-96,-10,87,52,-91,38,144,287,274,108,-149,-171
-101,-15,87,58,-94,36,148,307,303,119,-163,-191
-136,-22,114,79,-125,46,157,328,326,139,-142,-191
-136,-26,110,80,-122,41,162,356,354,141,-156,-200
-135,-15,120,75,-127,52,182,390,397,163,-153,-206
-133,-12,121,73,-127,54,192,403,412,167,-178,-209
-133,-6,127,69,-130,60,196,432,445,177,-176,-205
-131,0,130,65,-130,65,202,475,486,187,-187,-205
-125,10,135,57,-130,72,225,515,527,191,-192,-205
-137,20,157,58,-147,88,243,562,570,202,-199,-205
-145,38,184,53,-165,110,257,611,617,216,-205,-206
-134,58,192,38,-163,125,277,664,666,223,-212,-209
-136,78,214,29,-175,145,300,725,724,228,-218,-208
-164,99,263,32,-214,181,328,779,786,251,-229,-201
-163,110,273,26,-218,192,342,812,816,263,-242,-197
-131,122,253,4,-192,187,352,844,849,263,-240,-192
-122,132,254,-5,-188,193,348,853,849,256,-240,-187
-126,126,252,0,-189,189,342,824,837,246,-240,-183
-98,113,211,-8,-155,162,320,762,799,240,-241,-178
-69,85,154,-8,-111,119,264,654,686,220,-228,-164
-58,53,111,2,-85,81,208,506,534,181,-197,-141
-42,27,69,7,-56,48,140,352,369,133,-161,-105
-34,-3,31,18,-33,14,75,218,224,78,-127,-71
-42,-26,16,34,-29,-5,29,120,117,27,-103,-56
-45,-34,11,39,-28,-11,2,65,59,9,-85,-41
-39,-35,4,37,-21,-15,-15,26,21,4,-71,-31
-32,-35,-3,34,-14,-19,-30,9,-2,-6,-60,-29
-26,-34,-8,30,-9,-21,-31,1,-12,-11,-60,-26
-30,-48,-19,39,-5,-33,-30,-10,-29,-27,-59,-23
-32,-59,-26,46,-3,-42,-31,-14,-40,-45,-56,-20
-41,-61,-20,51,-11,-40,-30,-22,-46,-45,-54,-21
-50,-65,-15,58,-17,-40,-31,-24,-52,-48,-58,-25
-50,-60,-10,56,-20,-35,-25,-20,-55,-50,-71,-27
-57,-60,-3,59,-27,-31,-15,-20,-55,-51,-78,-30
-57,-59,-2,58,-28,-30,-5,-20,-55,-57,-82,-34
-50,-55,-5,53,-22,-30,5,-20,-55,-61,-90,-41
-47,-55,-8,52,-19,-31,11,-20,-55,-64,-95,-55
-47,-57,-10,52,-18,-33,14,-24,-52,-69,-95,-60
-55,-69,-14,63,-21,-41,17,-25,-50,-70,-95,-64
-64,-79,-15,72,-24,-47,22,-26,-50,-70,-95,-75
-53,-73,-20,63,-16,-46,25,-30,-50,-70,-95,-74
-62,-82,-20,72,-21,-51,22,-31,-50,-71,-93,-80
-71,-98,-27,85,-22,-62,19,-28,-50,-69,-86,-91
-54,-90,-36,73,-8,-63,16,-25,-50,-65,-81,-86
-47,-82,-34,65,-6,-58,13,-25,-50,-65,-76,-84
-39,-74,-35,57,-1,-55,10,-25,-50,-65,-70,-79
-34,-69,-35,52,0,-52,10,-25,-50,-65,-65,-76
-36,-70,-35,54,0,-52,10,-25,-50,-65,-60,-73
-31,-70,-39,51,4,-54,10,-29,-50,-69,-60,-69
-30,-70,-40,50,5,-55,10,-30,-50,-70,-60,-71
-30,-70,-40,50,5,-55,10,-30,-50,-70,-60,-66
-29,-69,-40,49,5,-55,10,-34,-50,-75,-61,-65
-26,-66,-40,46,8,-52,10,-36,-50,-75,-57,-65
-23,-63,-40,43,9,-51,10,-33,-49,-76,-54,-60
-20,-60,-40,40,10,-50,9,-30,-44,-80,-55,-60
-17,-57,-40,37,12,-48,11,-30,-41,-80,-51,-59
-15,-55,-40,35,13,-47,9,-30,-38,-80,-50,-55
-14,-54,-40,34,13,-47,12,-30,-33,-80,-50,-55
-19,-59,-40,39,11,-49,22,-30,-30,-80,-45,-53
-23,-60,-37,42,7,-48,20,-34,-33,-80,-45,-48
-29,-61,-32,45,2,-46,20,-35,-35,-80,-45,-45
-27,-57,-30,42,1,-43,18,-35,-35,-80,-45,-42
-30,-55,-25,43,-2,-40,14,-39,-35,-79,-45,-37
-33,-55,-22,44,-5,-38,15,-41,-35,-81,-43,-35
-31,-50,-19,41,-6,-34,21,-38,-34,-79,-38,-29
-18,-40,-22,29,3,-31,33,-28,-26,-82,-36,-24
16,12,-5,-14,10,4,48,-12,-12,-65,-10,-19
6,35,29,-21,-11,31,62,-3,1,-28,18,-13
-3,1,3,1,-3,2,54,13,16,-28,14,-7
26,-17,-43,-4,35,-30,53,20,28,-31,12,-8
41,-31,-72,-5,56,-51,41,6,16,-31,10,-26
35,-71,-106,19,71,-89,-3,-26,-19,-60,-14,-40
24,-94,-118,35,71,-106,-15,-58,-56,-79,-49,-53
15,-89,-104,37,59,-96,3,-60,-60,-80,-55,-60
4,-91,-95,43,50,-93,29,-60,-57,-80,-54,-62
-12,-90,-78,51,33,-84,43,-56,-53,-83,-75,-81
-33,-90,-57,61,12,-73,38,-57,-53,-86,-88,-87
-20,-86,-66,53,23,-76,41,-52,-48,-84,-89,-84
-9,-76,-67,42,29,-71,39,-58,-49,-85,-93,-82
-11,-70,-59,41,24,-64,40,-53,-43,-85,-99,-80
-12,-64,-53,38,21,-58,38,-56,-45,-85,-98,-80
-18,-63,-45,40,14,-53,31,-58,-48,-85,-95,-75
-19,-61,-42,40,11,-51,30,-48,-38,-85,-96,-74
-17,-54,-37,36,10,-45,20,-67,-57,-84,-93,-69
-14,-59,-45,36,16,-51,24,-36,-34,-77,-98,-69
-6,-40,-34,23,14,-36,8,-82,-74,-81,-91,-62
16,-31,-46,7,31,-38,13,-19,-25,-68,-103,-69
-12,-64,-52,38,20,-58,-36,-168,-135,-111,-104,-77
-46,-299,-253,173,104,-276,-43,-256,-302,-306,-304,-219
-40,-499,-459,270,209,-479,92,-247,-280,-372,-468,-388
306,-453,-759,74,533,-606,-355,-1354,-1124,-408,-259,-218
861,-164,-1025,-348,943,-594,-1278,-2564,-2298,-513,258,297
934,675,-258,-804,596,208,-1784,-2870,-2531,-26,1261,1145
829,1180,351,-1004,239,765,-1708,-2486,-2193,309,1966,1797
770,1068,297,-920,237,682,-1239,-1740,-1659,128,2259,2175
593,755,162,-674,216,458,-753,-1029,-914,214,2213,2283
313,250,-63,-282,188,94,-312,-342,-258,245,1643,1448
44,39,-5,-41,24,17,48,95,106,188,738,346
-44,-2,43,23,-43,20,127,202,196,141,-95,-132
-71,-22,49,46,-60,14,126,211,198,115,-140,-158
-73,-7,66,40,-69,30,140,244,230,128,-109,-149
-81,-15,66,47,-73,25,144,273,249,114,-152,-164
-83,-1,82,42,-82,40,154,294,273,123,-116,-156
-85,-5,80,45,-82,38,153,319,296,119,-153,-168
-91,4,95,43,-93,50,163,344,323,137,-133,-163
-73,21,94,25,-84,58,172,375,344,143,-154,-167
-71,31,102,20,-87,67,175,401,376,160,-148,-170
-73,33,105,19,-89,69,187,432,406,170,-156,-170
-68,37,105,15,-87,71,206,467,438,177,-159,-168
-65,40,105,12,-85,72,222,499,472,193,-164,-164
-80,44,124,18,-102,84,245,542,504,197,-177,-165
-81,62,143,10,-112,102,263,584,546,203,-182,-165
-83,80,163,1,-123,121,281,632,594,213,-189,-165
-98,91,189,3,-144,139,304,685,644,221,-191,-165
-90,121,211,-15,-151,165,331,739,691,226,-199,-166
-82,157,238,-38,-160,197,351,800,752,240,-205,-166
-82,173,256,-46,-169,214,365,841,797,248,-202,-166
-70,186,256,-58,-163,220,374,876,837,254,-195,-165
-62,185,248,-62,-155,216,367,876,862,254,-190,-165
-66,178,244,-56,-156,210,363,864,859,258,-184,-162
-61,169,229,-54,-145,199,345,844,830,264,-179,-156
-34,144,178,-55,-107,161,306,747,739,240,-173,-150
-8,110,118,-51,-64,113,254,611,602,193,-151,-134
13,75,63,-44,-25,69,192,455,445,133,-123,-110
21,44,23,-33,-2,34,137,304,286,75,-102,-83
16,19,2,-17,6,10,89,196,168,31,-68,-69
17,-6,-23,-5,20,-15,54,121,87,-11,-45,-68
-2,-38,-36,20,17,-37,35,68,28,-36,-45,-64
-29,-64,-35,47,3,-49,26,33,-3,-45,-45,-60
-53,-79,-26,66,-13,-53,24,20,-27,-52,-45,-62
-43,-81,-37,62,-3,-59,21,15,-42,-55,-45,-66
-24,-79,-55,52,15,-67,18,10,-44,-59,-46,-69
-36,-81,-45,59,4,-62,15,6,-49,-64,-51,-73
-42,-79,-37,61,-3,-58,16,1,-53,-65,-54,-75
-52,-82,-29,67,-11,-55,20,-3,-56,-68,-59,-80
-63,-85,-22,74,-20,-53,20,-7,-55,-70,-65,-80
-69,-85,-16,77,-26,-51,20,-10,-59,-71,-75,-82
-74,-85,-11,80,-31,-48,20,-14,-61,-77,-89,-97
-79,-85,-6,82,-36,-45,19,-18,-60,-84,-100,-105
-85,-85,0,85,-42,-42,24,-21,-65,-81,-106,-107
-93,-89,4,90,-48,-42,28,-25,-65,-80,-104,-111
-97,-90,6,93,-51,-42,25,-25,-67,-80,-113,-115
-88,-90,-2,89,-43,-46,22,-26,-70,-75,-117,-113
-79,-90,-11,85,-34,-50,20,-31,-71,-75,-114,-109
-68,-90,-22,79,-23,-56,16,-29,-68,-74,-115,-110
-64,-89,-24,77,-20,-56,15,-33,-65,-69,-115,-110
-68,-84,-16,76,-26,-50,11,-35,-65,-64,-115,-110
-64,-78,-15,71,-25,-46,5,-35,-61,-59,-114,-110
-67,-75,-8,71,-29,-41,0,-39,-60,-55,-109,-104
-65,-70,-5,68,-30,-37,-5,-41,-60,-50,-104,-99
-53,-65,-12,59,-20,-38,-12,-39,-55,-46,-99,-94
-46,-69,-23,57,-11,-45,-14,-35,-55,-45,-95,-88
-38,-70,-32,55,-3,-51,-10,-35,-55,-45,-90,-82
-35,-70,-35,53,0,-52,-10,-34,-55,-45,-87,-78
-32,-70,-38,51,3,-54,-8,-30,-56,-45,-82,-72
-29,-70,-41,50,6,-56,-4,-30,-52,-46,-79,-68
-25,-69,-44,47,10,-56,-5,-30,-50,-50,-76,-64
-19,-65,-46,42,14,-55,-1,-30,-50,-49,-71,-59
-26,-65,-39,46,7,-52,0,-30,-46,-52,-69,-54
-25,-63,-38,44,7,-50,0,-30,-45,-56,-64,-50
-27,-60,-32,44,2,-46,0,-30,-45,-54,-61,-50
-29,-60,-31,45,1,-45,0,-29,-40,-59,-58,-49
-39,-64,-25,52,-7,-44,1,-26,-40,-60,-53,-45
-43,-65,-22,54,-10,-43,8,-24,-40,-62,-50,-45
-26,-65,-40,46,7,-52,14,-26,-40,-66,-53,-43
-32,-64,-32,49,0,-48,19,-24,-40,-62,-63,-38
-34,-66,-32,50,0,-49,25,-26,-37,-57,-63,-35
-27,-62,-35,45,4,-48,30,-21,-24,-53,-54,-31
-9,-36,-26,23,9,-31,37,-8,-13,-47,-45,-28
27,5,-23,-16,25,-9,48,2,7,-39,-37,-24
48,42,-6,-45,27,17,52,10,25,-23,-24,-21
42,24,-18,-33,30,3,47,19,24,-24,-14,-19
30,-9,-38,-10,34,-23,54,32,26,-30,-13,-13
27,-45,-72,9,50,-58,28,9,-5,-37,-22,-24
25,-91,-116,34,71,-104,-20,-39,-55,-78,-62,-47
10,-96,-107,43,59,-101,-15,-49,-59,-99,-79,-45
-36,-95,-59,66,12,-77,5,-50,-60,-93,-73,-39
-45,-92,-47,68,1,-69,19,-48,-57,-96,-89,-59
-24,-91,-66,58,21,-78,22,-51,-55,-107,-97,-71
-22,-87,-66,55,22,-76,19,-50,-55,-111,-95,-77
-29,-90,-60,60,16,-74,19,-45,-56,-103,-95,-86
-56,-111,-55,84,0,-83,13,-49,-71,-103,-95,-84
-61,-111,-50,86,-5,-80,17,-33,-65,-95,-96,-85
-66,-108,-41,87,-12,-74,13,-49,-78,-97,-94,-84
-70,-113,-44,92,-13,-78,17,-21,-60,-98,-97,-86
-73,-106,-33,90,-20,-69,13,-51,-82,-107,-93,-80
-72,-112,-40,92,-16,-75,16,-20,-58,-103,-97,-81
-62,-89,-26,76,-18,-57,15,-47,-78,-107,-93,-77
-49,-83,-34,66,-8,-58,10,-32,-58,-106,-97,-75
-45,-75,-29,60,-8,-52,-11,-32,-66,-95,-94,-74
-57,-203,-146,131,44,-174,-86,-294,-301,-241,-195,-155
-83,-476,-393,279,156,-434,38,-139,-228,-386,-441,-354
63,-492,-554,215,309,-523,-65,-780,-647,-376,-381,-328
628,-371,-999,-128,814,-685,-844,-2143,-1788,-431,5,55
932,296,-636,-614,784,-169,-1647,-2804,-2524,-245,844,814
780,1072,292,-926,244,682,-1900,-2787,-2499,100,1635,1545
751,1167,416,-959,168,791,-1558,-2093,-1961,14,2001,1971
664,976,313,-820,175,644,-1028,-1331,-1252,34,2214,2319
413,441,28,-427,192,234,-569,-635,-544,217,1872,1882
124,49,-74,-86,99,-13,-123,-32,-41,200,1101,720
-64,-33,32,48,-47,0,75,190,171,131,133,-49
-115,-80,35,98,-75,-22,88,213,183,82,-205,-186
-130,-60,70,95,-100,6,110,227,206,88,-99,-158
-117,-69,48,93,-82,-11,107,245,220,70,-168,-180
-116,-58,59,87,-88,1,115,261,235,104,-130,-174
-112,-57,54,84,-83,-1,120,288,263,125,-152,-182
-106,-54,53,80,-79,-1,130,308,283,126,-143,-180
-114,-49,65,81,-90,8,138,338,322,138,-143,-180
-125,-51,74,88,-100,11,143,366,347,152,-148,-181
-129,-49,80,89,-104,15,162,388,380,184,-148,-179
-130,-50,80,90,-105,15,176,420,412,180,-169,-185
-137,-50,86,93,-112,17,189,454,443,190,-164,-184
-132,-45,87,88,-110,21,201,493,482,206,-175,-189
-128,-35,93,82,-110,29,219,534,529,213,-175,-190
-129,-24,105,76,-117,40,254,580,572,231,-183,-193
-143,-11,132,76,-137,60,279,637,629,246,-189,-196
-152,2,154,75,-153,78,293,688,688,257,-192,-199
-130,45,174,42,-152,109,311,741,740,276,-206,-201
-126,66,192,30,-160,129,328,793,793,284,-213,-196
-130,67,196,31,-164,131,345,839,840,293,-211,-196
-129,78,207,26,-168,142,350,870,879,301,-208,-194
-122,78,200,22,-161,139,340,868,889,290,-205,-189
-105,77,183,14,-144,130,330,849,864,284,-201,-191
-95,62,157,16,-126,109,318,780,797,271,-200,-184
-73,40,114,17,-94,77,268,654,673,228,-194,-162
-81,2,83,39,-82,42,200,492,507,172,-179,-135
-78,-27,51,52,-64,12,128,328,334,109,-150,-107
-54,-36,18,45,-36,-9,68,204,200,50,-118,-88
-67,-65,2,66,-34,-31,35,112,104,10,-92,-67
-68,-77,-10,73,-28,-43,18,53,39,-20,-67,-48
-54,-74,-20,64,-16,-47,12,17,2,-47,-51,-44
-45,-75,-30,60,-7,-52,2,2,-17,-62,-50,-45
-50,-88,-38,69,-6,-63,-6,0,-23,-56,-49,-41
-62,-97,-35,80,-13,-66,-19,-6,-33,-53,-46,-39
-64,-94,-30,79,-16,-62,-26,-10,-42,-50,-44,-40
-67,-95,-28,82,-19,-62,-17,-15,-49,-44,-46,-45
-72,-95,-23,84,-24,-59,-9,-12,-50,-54,-50,-50
-75,-95,-20,85,-27,-57,-1,-10,-50,-62,-50,-53
-61,-85,-23,73,-19,-54,6,-11,-55,-57,-50,-58
-43,-69,-26,57,-8,-48,12,-10,-55,-55,-50,-59
-29,-58,-29,44,0,-43,18,-11,-57,-52,-50,-62
-19,-51,-32,35,7,-41,23,-9,-61,-49,-53,-65
-12,-46,-34,29,12,-40,29,-3,-60,-54,-57,-65
-5,-41,-37,23,16,-39,34,3,-63,-55,-60,-65
6,-34,-40,14,23,-37,35,9,-66,-56,-59,-65
8,-32,-40,12,24,-36,35,7,-65,-59,-73,-83
-4,-44,-40,24,18,-42,32,1,-62,-61,-82,-92
-5,-46,-40,26,18,-42,29,-3,-59,-58,-79,-89
-5,-44,-40,24,18,-42,31,-8,-56,-55,-80,-94
-5,-45,-40,25,18,-42,34,-12,-53,-55,-80,-95
-5,-45,-40,25,18,-42,31,-17,-50,-53,-80,-94
-4,-44,-40,24,18,-42,30,-20,-50,-50,-76,-90
1,-39,-40,19,20,-39,29,-20,-50,-50,-71,-85
4,-36,-40,16,23,-38,25,-22,-50,-53,-69,-81
6,-33,-38,13,22,-35,25,-25,-50,-58,-64,-76
7,-28,-35,11,21,-31,27,-25,-50,-62,-61,-71
8,-25,-32,9,21,-28,30,-29,-50,-65,-60,-70
8,-22,-30,7,19,-25,33,-30,-46,-65,-60,-70
7,-19,-26,6,17,-22,36,-30,-45,-67,-60,-70
9,-16,-25,4,17,-20,39,-30,-45,-70,-60,-70
8,-13,-22,3,15,-17,40,-30,-40,-70,-60,-70
10,-10,-19,0,14,-14,35,-30,-40,-67,-59,-69
8,-12,-21,2,15,-17,32,-30,-39,-64,-56,-66
-3,-22,-19,13,8,-21,28,-30,-35,-65,-54,-65
5,-17,-21,6,13,-19,25,-30,-35,-65,-55,-65
3,-15,-18,6,11,-16,20,-29,-35,-65,-54,-65
4,-11,-15,3,10,-12,22,-31,-34,-63,-56,-65
2,-6,-8,2,5,-7,29,-22,-37,-56,-52,-63
5,-2,-7,-1,6,-5,35,-4,-21,-37,-38,-55
48,54,6,-51,21,30,56,4,11,-8,-30,-50
34,60,26,-47,4,42,66,13,22,2,-25,-42
36,20,-17,-28,26,2,54,18,18,-2,-22,-37
69,23,-46,-46,57,-12,55,31,23,3,-15,-28
57,-22,-79,-18,68,-50,30,10,1,-22,-22,-38
47,-62,-109,8,78,-85,-16,-41,-48,-76,-60,-64
29,-59,-88,15,59,-73,-16,-44,-60,-93,-77,-66
16,-62,-78,23,47,-70,-4,-45,-60,-95,-78,-65
10,-58,-69,24,40,-63,5,-44,-59,-98,-84,-66
-7,-65,-58,36,26,-61,14,-46,-61,-101,-85,-65
-23,-76,-53,49,15,-64,21,-45,-60,-105,-86,-64
-24,-66,-42,46,9,-54,25,-41,-56,-105,-88,-59
-22,-62,-40,42,9,-51,18,-41,-57,-101,-91,-60
-23,-57,-34,40,6,-45,23,-28,-50,-94,-89,-59
-24,-50,-26,37,1,-37,14,-41,-58,-92,-85,-65
-20,-47,-27,34,4,-37,18,-12,-39,-83,-84,-77
-26,-36,-10,31,-8,-23,12,-42,-63,-85,-79,-73
-16,-40,-24,29,4,-32,14,-6,-29,-76,-79,-77
-29,-29,-1,29,-13,-15,8,-44,-59,-93,-73,-73
-20,-41,-21,31,1,-31,9,-10,-27,-85,-74,-76
-15,-31,-16,23,1,-23,15,-48,-59,-98,-67,-73
-32,-198,-166,115,67,-182,-36,-253,-282,-256,-198,-155
-44,-464,-420,254,188,-442,94,-62,-165,-350,-401,-339
166,-466,-631,150,399,-549,-88,-737,-632,-290,-246,-231
745,-283,-1027,-231,886,-655,-835,-1916,-1678,-224,262,244
890,518,-373,-704,631,73,-1514,-2503,-2252,70,1169,1008
703,1238,535,-971,84,886,-1766,-2574,-2270,292,1802,1618
652,1247,595,-950,28,921,-1403,-1942,-1846,-30,2020,1934
529,1000,470,-765,29,735,-876,-1210,-1148,-44,2045,2129
319,436,117,-378,101,276,-439,-529,-433,163,1506,1531
43,86,43,-65,-1,65,-32,-12,15,133,810,485
-60,21,81,20,-71,51,111,146,169,104,24,-97
-91,-15,76,52,-83,31,114,173,173,63,-229,-189
-110,6,115,52,-112,60,116,187,193,80,-131,-163
-90,-2,88,46,-90,43,121,205,210,74,-197,-187
-103,11,113,45,-108,62,126,217,231,74,-152,-186
-94,11,105,41,-99,57,130,230,258,78,-182,-198
-99,17,116,40,-108,66,147,256,272,87,-172,-200
-97,20,117,38,-107,69,149,282,300,99,-179,-203
-100,21,121,39,-111,71,153,299,322,95,-198,-211
-102,27,129,37,-116,77,159,318,346,103,-200,-218
-100,27,127,36,-114,77,167,344,377,103,-214,-221
-96,32,128,32,-112,79,178,372,401,110,-211,-219
-98,29,127,34,-113,78,191,402,430,107,-225,-220
-145,31,176,57,-161,104,213,440,470,105,-231,-220
-139,47,187,46,-163,116,230,467,504,106,-237,-220
-116,65,180,25,-148,122,249,514,549,101,-261,-226
-145,82,227,31,-187,155,277,564,595,100,-277,-233
-135,100,236,17,-186,168,294,606,635,100,-290,-231
-122,126,248,-2,-185,187,302,653,678,106,-301,-230
-121,142,263,-11,-192,202,311,681,713,112,-294,-231
-112,138,250,-13,-181,193,306,697,717,117,-289,-229
-114,134,248,-10,-182,191,294,688,703,120,-282,-231
-103,132,236,-15,-170,184,286,662,694,113,-278,-223
-79,123,202,-23,-141,162,262,601,643,101,-268,-203
-54,100,154,-23,-104,127,218,494,540,94,-240,-184
-30,77,106,-24,-68,91,157,369,407,77,-199,-152
8,63,55,-36,-24,59,101,238,267,42,-155,-110
16,42,26,-29,-5,34,58,135,156,7,-125,-87
-17,7,24,5,-21,15,31,69,83,-24,-96,-64
-24,-2,21,13,-22,9,26,22,35,-47,-73,-37
-13,5,18,4,-16,11,21,7,13,-61,-66,-28
-10,6,16,1,-13,11,17,6,8,-69,-61,-24
-3,11,13,-4,-8,12,12,2,1,-71,-56,-19
8,15,6,-12,1,10,10,-1,-6,-74,-50,-15
14,12,-2,-13,8,5,20,-6,-13,-77,-45,-10
9,-1,-10,-3,10,-6,28,-1,-14,-80,-45,-6
5,-11,-17,3,11,-14,37,5,-8,-79,-45,-4
-10,-44,-34,28,12,-39,46,10,-6,-72,-45,0
-29,-81,-52,55,11,-66,46,15,-2,-66,-45,-1
-40,-89,-49,65,5,-69,45,22,2,-59,-45,-12
-48,-98,-50,73,1,-74,45,24,6,-52,-47,-24
-40,-101,-61,71,10,-80,40,20,9,-46,-55,-35
-34,-100,-66,67,16,-82,40,20,10,-45,-59,-45
-36,-100,-65,68,15,-82,39,20,10,-45,-68,-54
-35,-100,-65,68,15,-82,34,20,10,-45,-73,-61
-34,-100,-65,68,15,-82,31,20,10,-45,-68,-66
-31,-96,-65,64,17,-80,28,16,8,-45,-65,-71
-28,-93,-65,61,19,-79,23,15,3,-45,-62,-74
-26,-90,-65,59,19,-77,20,15,0,-45,-57,-72
-22,-87,-65,55,22,-76,20,15,-3,-45,-54,-69
-20,-85,-65,53,23,-75,20,15,-8,-45,-50,-66
-22,-87,-65,55,22,-75,20,14,-11,-45,-50,-63
-28,-94,-67,61,20,-80,20,9,-15,-45,-49,-61
-34,-100,-66,68,16,-83,19,6,-15,-49,-44,-58
-35,-100,-65,68,15,-82,22,3,-16,-50,-46,-55
-35,-100,-65,68,15,-82,25,-2,-20,-50,-42,-52
-35,-100,-65,68,15,-82,25,-5,-20,-54,-40,-50
-36,-100,-65,68,14,-82,25,-5,-17,-56,-40,-46
-30,-98,-67,64,19,-82,25,-5,-15,-53,-36,-45
-23,-93,-70,58,24,-81,25,-5,-15,-50,-35,-41
-20,-90,-70,55,25,-80,22,-5,-12,-48,-35,-40
-17,-87,-70,52,27,-78,16,-5,-9,-45,-35,-40
-12,-82,-70,47,29,-76,11,-4,-11,-42,-35,-35
-10,-79,-69,45,30,-74,8,0,-14,-39,-35,-35
-9,-75,-65,42,28,-70,2,0,-17,-37,-35,-34
-8,-68,-59,38,26,-63,1,0,-19,-33,-35,-29
-9,-65,-56,37,24,-60,7,0,-23,-31,-33,-26
-5,-56,-50,31,23,-53,10,-1,-26,-28,-26,-22
-8,-55,-47,32,20,-51,15,5,-22,-25,-21,-18
2,-39,-40,19,21,-39,20,12,-16,-24,-15,-15
25,1,-24,-13,25,-11,24,25,4,3,-10,-11
50,33,-17,-41,33,8,25,40,22,23,-10,-10
59,31,-29,-45,44,1,18,45,20,19,-10,-8
38,-12,-50,-13,44,-31,18,42,16,13,-10,-4
42,-33,-75,-4,59,-54,-1,34,16,13,-12,-6
55,-65,-120,5,88,-92,-37,4,-14,-6,-34,-14
48,-94,-142,23,95,-118,-41,-22,-47,-39,-57,-22
33,-80,-113,24,73,-96,-40,-15,-37,-39,-63,-30
5,-72,-77,34,41,-75,-28,-10,-28,-30,-64,-38
