I,II,III,aVR,aVL,aVF,V1,V2,V3,V4,V5,V6
519,-203,-722,-158,621,-463,-854,-1347,-1597,-1719,424,1198
524,-229,-753,-147,638,-490,-695,-1061,-1251,-1370,478,1162
475,-281,-756,-97,616,-519,-421,-577,-693,-801,420,946
327,-246,-573,-40,450,-409,-203,-254,-329,-460,208,614
126,-195,-321,35,223,-257,62,81,31,-144,-82,132
-91,-123,-32,107,-30,-77,301,345,321,129,-261,-260
-177,-77,100,127,-139,11,363,447,467,288,-265,-326
-196,-86,110,141,-153,12,378,539,563,339,-287,-364
-222,-93,129,157,-175,18,383,610,634,393,-321,-432
-249,-82,167,165,-208,43,399,693,723,462,-348,-466
-299,-73,225,186,-262,76,448,792,829,531,-396,-515
-322,-57,264,190,-293,103,495,873,940,639,-424,-570
-328,-22,306,175,-317,142,558,978,1056,739,-457,-624
-388,-17,370,202,-379,176,634,1074,1165,845,-511,-693
-450,-39,411,245,-431,186,701,1164,1267,949,-547,-757
-467,-31,436,249,-452,202,756,1223,1349,1052,-565,-797
-473,11,483,231,-478,247,804,1234,1384,1132,-558,-802
-477,26,503,225,-490,265,815,1216,1358,1154,-520,-796
-479,22,501,228,-490,261,751,1055,1222,1115,-463,-785
-409,16,425,196,-417,220,645,878,1069,1045,-383,-707
-324,11,336,156,-330,173,514,738,921,945,-291,-604
-281,5,286,138,-284,145,356,587,761,821,-193,-493
-209,0,210,104,-210,105,233,473,625,706,-81,-368
-135,11,147,62,-141,79,151,362,486,587,27,-228
-109,-13,96,61,-103,41,81,289,383,479,104,-115
-62,-8,54,35,-58,23,17,214,294,380,143,-53
-9,24,33,-8,-21,28,-20,144,226,326,166,-7
-11,7,18,2,-15,12,-21,121,186,297,182,22
14,-4,-18,-5,16,-11,-18,114,167,241,171,48
29,-14,-43,-7,36,-29,-23,107,164,219,172,54
13,-30,-43,9,28,-36,3,90,138,210,160,47
26,-33,-59,3,43,-46,32,72,129,209,160,44
-18,-63,-44,41,13,-53,51,37,98,172,148,43
-49,-51,-2,50,-24,-26,82,45,104,178,120,33
-15,-2,14,8,-15,6,77,24,87,187,149,45
6,19,13,-12,-4,15,67,108,226,379,247,81
85,85,0,-86,42,43,-121,-51,116,529,484,220
139,237,98,-188,20,167,-488,-952,-927,-57,594,373
248,369,121,-309,64,245,-923,-1872,-1995,-827,669,549
442,219,-223,-330,332,-2,-1375,-2480,-2713,-1589,872,865
536,-11,-548,-262,542,-279,-1497,-2595,-2947,-2211,997,1092
568,62,-507,-315,537,-222,-1447,-2433,-2857,-2593,909,1243
470,118,-352,-293,411,-117,-1399,-2439,-2936,-3021,501,1286
348,13,-335,-181,341,-160,-1231,-2180,-2681,-2947,271,1259
348,-80,-428,-134,388,-253,-993,-1711,-2140,-2414,280,1247
371,-195,-566,-88,468,-380,-726,-1184,-1494,-1705,401,1236
364,-265,-628,-49,496,-446,-464,-694,-888,-1044,525,1163
305,-267,-572,-19,439,-419,-205,-380,-486,-618,359,872
164,-236,-400,36,282,-318,-33,-142,-167,-276,130,501
-47,-156,-109,102,31,-133,147,120,133,-7,-136,36
-211,-81,129,146,-170,24,327,351,392,238,-270,-253
-267,-50,217,158,-242,83,386,446,504,359,-256,-309
-284,-59,225,171,-254,83,441,503,545,379,-328,-405
-310,-91,219,200,-264,64,460,570,625,426,-377,-455
-343,-83,260,212,-301,88,467,701,761,507,-413,-505
-348,-58,290,203,-319,116,494,856,912,623,-437,-547
-368,-52,316,209,-341,132,529,964,1031,702,-498,-627
-390,-38,352,214,-371,156,591,1075,1152,795,-556,-690
-404,-29,375,216,-389,173,629,1174,1268,927,-563,-721
-445,-7,438,226,-441,215,674,1243,1356,1025,-600,-804
-438,15,453,212,-446,234,720,1298,1427,1132,-585,-826
-427,39,466,194,-447,252,729,1302,1422,1197,-550,-827
-422,64,486,179,-455,275,733,1214,1369,1186,-508,-804
-388,72,461,158,-424,266,725,1098,1277,1166,-419,-740
-348,69,416,139,-382,242,670,969,1128,1089,-326,-661
-282,69,351,107,-317,210,569,799,959,974,-223,-543
-213,81,294,65,-254,188,447,613,761,828,-120,-432
-163,77,240,43,-202,158,347,447,584,676,-36,-310
-129,61,190,33,-160,126,213,283,416,526,18,-199
-80,67,147,6,-114,107,83,172,293,396,70,-115
-15,65,80,-25,-48,72,-11,133,240,332,139,-33
5,62,58,-34,-27,60,-85,107,201,288,130,2
22,71,48,-47,-14,59,-80,123,203,299,118,19
20,55,36,-38,-8,45,-70,116,191,276,149,37
61,120,59,-91,1,89,-81,234,365,479,253,87
195,215,20,-205,88,117,-264,-52,59,483,484,245
242,391,149,-317,47,270,-653,-1043,-1091,-135,657,456
429,463,34,-446,197,248,-1124,-1905,-1999,-702,968,774
665,204,-461,-434,563,-128,-1437,-2329,-2515,-1382,1278,1109
670,111,-559,-390,614,-224,-1387,-2353,-2691,-2039,1304,1292
602,166,-436,-384,519,-135,-1309,-2310,-2707,-2551,1092,1405
461,117,-345,-289,403,-114,-1223,-2245,-2751,-2970,641,1359
356,4,-352,-180,354,-174,-999,-1916,-2446,-2841,332,1248
282,-153,-434,-64,358,-293,-682,-1418,-1889,-2328,205,1143
243,-241,-484,-1,364,-362,-470,-1012,-1311,-1611,232,1047
283,-230,-513,-26,398,-372,-439,-708,-788,-942,325,946
228,-171,-400,-28,314,-285,-303,-330,-334,-482,223,685
68,-123,-191,28,130,-157,-86,-8,14,-159,-23,270
-147,-76,71,111,-109,-2,139,289,330,123,-249,-167
-255,-52,204,153,-229,76,266,475,530,318,-304,-339
-250,-49,200,149,-225,75,301,554,612,370,-324,-368
-254,-40,214,147,-234,87,368,660,722,431,-371,-422
-290,-35,256,162,-273,110,456,761,814,482,-427,-475
-332,-27,305,180,-318,138,545,867,912,540,-498,-558
-356,-22,334,189,-345,156,611,965,1012,614,-543,-608
-408,-18,390,213,-399,186,687,1068,1127,715,-580,-662
-443,-13,430,228,-436,208,760,1163,1231,824,-603,-723
-454,-10,444,232,-449,216,794,1213,1296,919,-603,-759
-435,7,441,214,-438,224,813,1233,1344,1018,-583,-784
-397,36,433,180,-415,235,807,1235,1359,1095,-546,-784
-383,45,428,169,-405,236,797,1205,1342,1144,-484,-766
-360,30,390,165,-376,210,731,1134,1276,1124,-394,-709
-327,23,350,152,-339,186,519,934,1113,1074,-280,-613
-254,58,312,97,-283,184,338,686,917,980,-159,-499
-166,102,268,32,-218,185,246,552,775,861,-58,-364
-117,106,223,5,-170,165,180,439,625,716,8,-267
-74,95,169,-11,-122,131,123,333,485,565,65,-175
-32,85,117,-27,-74,101,83,258,376,460,106,-91
4,74,71,-39,-34,72,87,196,297,356,116,-51
22,44,22,-34,0,32,84,174,261,302,127,-11
42,19,-23,-30,33,-2,88,173,244,270,125,14
49,22,-27,-35,38,-3,92,191,246,244,118,26
24,18,-7,-21,15,5,87,195,230,231,111,23
38,18,-20,-27,28,-1,100,214,243,230,104,15
68,12,-56,-40,61,-22,98,195,216,213,95,13
64,19,-45,-41,54,-13,131,214,237,207,92,3
38,10,-28,-24,33,-9,70,161,204,183,107,3
64,35,-29,-50,46,3,-29,143,263,363,196,40
165,162,-3,-164,84,80,-101,31,178,523,411,165
192,291,99,-241,46,194,-498,-997,-952,-84,514,311
256,395,139,-325,58,266,-1085,-2086,-2105,-826,615,506
473,277,-196,-375,334,41,-1529,-2599,-2673,-1382,900,812
614,98,-516,-356,565,-209,-1612,-2697,-2910,-1914,1064,1036
592,157,-435,-374,514,-139,-1542,-2539,-2861,-2306,1036,1194
538,195,-343,-366,441,-73,-1513,-2533,-2896,-2757,741,1256
466,90,-376,-278,421,-143,-1311,-2263,-2660,-2793,466,1230
405,-57,-462,-174,434,-259,-1042,-1775,-2139,-2327,487,1227
431,-150,-582,-140,507,-366,-758,-1257,-1527,-1695,553,1200
407,-220,-628,-93,518,-424,-486,-746,-915,-1076,575,1116
372,-246,-618,-63,495,-432,-255,-335,-426,-612,426,866
275,-204,-478,-36,377,-341,-47,10,-46,-253,151,491
30,-156,-186,63,108,-171,195,310,268,3,-153,25
-148,-119,30,133,-88,-44,435,589,551,237,-320,-299
-238,-126,113,182,-176,-6,540,733,697,357,-345,-389
-268,-111,157,189,-212,22,601,805,767,385,-413,-460
-274,-121,153,197,-213,16,630,872,832,430,-462,-514
-331,-134,197,232,-264,32,720,940,911,470,-534,-580
-386,-116,270,251,-328,77,823,989,976,527,-608,-646
-424,-114,310,269,-367,98,750,998,1047,602,-663,-709
-442,-52,390,247,-415,169,673,1037,1158,724,-706,-764
-447,-5,442,225,-444,218,678,1141,1285,861,-707,-798
-466,47,513,210,-489,279,715,1252,1419,999,-703,-831
-473,86,559,193,-516,323,735,1298,1482,1113,-681,-831
-448,71,519,188,-484,295,703,1297,1484,1170,-639,-820
-402,75,477,163,-440,276,665,1249,1450,1189,-569,-778
-368,62,430,153,-399,246,601,1145,1347,1164,-475,-705
-300,79,379,110,-340,229,521,1018,1205,1087,-391,-637
-215,95,311,60,-263,203,441,861,1029,968,-278,-526
-163,77,240,43,-202,158,346,698,841,827,-170,-401
-102,61,163,21,-133,111,266,534,663,684,-80,-294
-57,48,105,4,-81,76,226,417,523,566,-1,-190
-14,32,46,-9,-30,39,211,316,384,426,32,-116
5,12,7,-9,-1,9,194,189,243,299,42,-82
0,-21,-21,11,11,-21,168,133,180,233,40,-57
-6,-56,-50,31,22,-52,130,117,145,186,40,-36
4,-40,-44,18,24,-42,74,121,146,192,42,-23
20,-6,-26,-7,23,-16,16,101,166,209,67,5
76,74,-1,-75,38,36,-29,221,376,456,187,51
199,186,-13,-193,106,86,-232,-83,27,449,394,192
257,355,98,-306,79,226,-684,-1196,-1229,-187,549,389
490,343,-147,-416,318,98,-1197,-2074,-2136,-697,857,694
780,49,-731,-414,756,-341,-1486,-2436,-2577,-1273,1182,994
770,-31,-801,-369,785,-416,-1482,-2497,-2770,-1992,1131,1105
720,88,-633,-404,676,-272,-1419,-2451,-2833,-2540,948,1218
672,49,-623,-360,647,-286,-1351,-2401,-2869,-2846,715,1237
567,-129,-695,-218,631,-412,-1151,-2058,-2532,-2659,541,1177
494,-230,-724,-132,609,-477,-876,-1546,-1955,-2133,507,1131
452,-251,-703,-100,578,-477,-591,-1016,-1294,-1449,481,1050
381,-315,-696,-33,539,-505,-331,-520,-705,-861,414,889
306,-315,-621,4,464,-467,-215,-265,-332,-468,256,624
127,-233,-360,53,244,-296,-96,-70,-38,-183,-25,216
-153,-178,-25,165,-64,-101,122,259,283,59,-318,-212
-255,-129,125,192,-189,-2,273,474,501,251,-392,-367
-268,-93,175,180,-221,40,349,572,591,312,-395,-404
-312,-80,233,196,-272,76,427,676,690,362,-441,-457
-344,-67,277,205,-310,105,509,781,791,430,-480,-503
-378,-60,318,219,-348,128,593,904,908,504,-532,-555
-417,-55,362,235,-389,154,679,1014,1024,582,-571,-609
-451,-53,399,252,-425,173,745,1114,1128,671,-611,-676
-476,-43,434,259,-455,195,807,1217,1247,791,-629,-721
-485,-6,478,245,-481,236,837,1296,1354,914,-612,-738
-471,18,489,226,-481,253,823,1325,1409,1020,-577,-748
-441,36,478,202,-460,257,793,1313,1423,1117,-507,-724
-387,46,433,170,-410,240,744,1273,1400,1171,-420,-667
-336,31,367,152,-352,199,665,1176,1305,1152,-328,-604
-287,14,302,136,-295,158,570,1049,1179,1095,-238,-532
-228,3,231,112,-230,117,445,851,978,960,-179,-463
-184,-8,175,96,-179,83,285,581,738,797,-110,-367
-146,-21,125,83,-135,52,182,409,563,646,-49,-267
-107,-22,86,64,-96,32,132,298,422,506,-1,-181
-64,-19,44,42,-54,13,86,203,307,396,42,-107
-25,-15,10,20,-17,-2,73,149,217,291,44,-78
-16,-16,0,16,-8,-8,78,120,169,218,35,-63
-26,-28,-2,28,-12,-15,81,120,149,167,30,-50
-19,-30,-11,25,-4,-20,84,121,145,144,22,-42
3,-10,-13,4,8,-11,86,118,143,144,16,-38
12,-9,-22,-1,17,-15,84,122,148,147,12,-44
-22,-46,-24,34,2,-35,96,129,141,141,9,-51
-8,-33,-24,21,8,-28,81,143,149,149,12,-45
6,-31,-37,13,22,-34,67,139,140,143,16,-45
-46,-57,-11,52,-18,-34,101,175,154,175,28,-37
3,-64,-67,31,35,-65,84,209,156,182,22,-39
61,-51,-112,-5,87,-81,30,190,185,242,74,-19
118,22,-96,-70,107,-37,-178,113,260,491,271,79
165,143,-22,-154,93,60,-541,-671,-548,159,403,224
184,267,82,-226,51,174,-940,-1835,-1814,-599,439,380
385,172,-212,-278,298,-20,-1415,-2548,-2545,-1133,615,606
573,-56,-628,-258,601,-342,-1677,-2851,-2909,-1637,833,845
614,-58,-672,-278,644,-365,-1665,-2757,-2920,-2083,885,988
586,70,-516,-328,550,-223,-1648,-2706,-2959,-2563,709,1110
479,12,-467,-245,473,-227,-1527,-2602,-2940,-2840,482,1122
413,-177,-590,-118,502,-383,-1262,-2169,-2550,-2577,467,1129
372,-286,-657,-43,515,-471,-951,-1637,-1968,-2028,532,1143
360,-304,-665,-28,513,-484,-656,-1092,-1331,-1397,579,1075
315,-316,-631,1,473,-473,-389,-605,-764,-861,491,909
176,-341,-517,83,347,-429,-140,-196,-309,-487,213,566
16,-287,-304,136,160,-295,85,115,17,-217,-99,148
-243,-244,-1,244,-120,-123,310,403,308,15,-355,-238
-387,-244,144,315,-265,-50,437,583,504,204,-418,-390
-394,-235,159,314,-276,-38,463,639,561,230,-454,-457
-405,-206,200,305,-302,-3,483,739,655,266,-505,-516
-410,-165,245,287,-327,40,506,863,789,360,-520,-517
-442,-147,295,294,-368,73,480,925,885,424,-572,-586
-498,-156,343,327,-420,93,503,952,950,493,-623,-646
-616,-194,422,405,-519,114,616,1018,1047,578,-676,-700
-674,-175,499,424,-586,161,687,1102,1170,703,-702,-750
-680,-123,557,401,-619,217,741,1195,1282,822,-734,-794
-683,-90,592,386,-638,251,783,1257,1358,913,-737,-837
-662,-83,579,372,-620,248,771,1247,1364,977,-699,-836
-610,-48,563,329,-587,257,761,1229,1353,1022,-662,-809
-544,-22,522,282,-533,250,719,1170,1301,1022,-599,-767
-529,-59,470,293,-499,206,650,1053,1179,969,-525,-699
-491,-85,406,288,-449,161,578,921,1031,882,-426,-606
-394,-77,317,236,-355,120,478,771,862,770,-322,-503
-299,-69,230,184,-264,80,399,623,694,636,-233,-396
-298,-153,144,225,-221,-4,310,476,507,479,-161,-311
-230,-159,71,195,-151,-44,216,342,360,377,-80,-215
-87,-65,23,76,-55,-20,89,261,282,312,10,-114
-66,-94,-27,80,-19,-60,-35,217,192,208,21,-74
-74,-148,-75,111,1,-112,-70,159,136,147,22,-59
-91,-184,-93,138,1,-138,-125,76,93,116,28,-52
-103,-183,-80,143,-11,-131,-147,-20,42,90,23,-46
-73,-110,-36,92,-19,-73,-103,-34,51,105,28,-39
-152,-154,-2,153,-75,-77,-97,-19,57,93,-17,-32
-149,-131,18,140,-83,-57,-78,-22,56,86,-14,-29
-73,-45,28,58,-51,-8,-28,35,91,124,24,-31
-152,-130,22,141,-87,-54,-1,56,86,132,11,-44
-163,-145,18,154,-90,-63,30,65,84,128,4,-59
-126,-110,16,117,-70,-47,57,96,114,132,8,-45
-76,-91,-15,83,-30,-53,65,103,134,142,23,-33
-48,-104,-57,76,5,-80,73,113,141,146,26,-34
-42,-102,-61,72,10,-81,96,120,139,140,-4,-51
15,-44,-60,15,37,-52,147,152,141,140,22,-42
2,-59,-61,29,31,-60,147,149,139,135,61,-18
6,-53,-59,23,33,-56,161,158,143,136,58,-15
19,-42,-61,12,40,-51,148,179,106,126,54,-13
65,23,-42,-44,53,-9,-28,56,60,114,52,-3
113,95,-18,-104,65,38,-103,-30,51,103,46,17
94,87,-7,-90,50,39,-58,-8,46,93,45,17
139,141,3,-140,68,72,-27,15,75,126,78,38
151,163,12,-158,69,88,7,40,91,143,101,58
170,182,11,-176,79,96,16,56,106,157,103,56
218,224,6,-222,106,114,45,72,127,182,116,65
210,216,5,-213,103,110,77,87,145,194,126,70
218,216,-2,-217,110,106,91,100,150,201,139,85
210,209,-2,-209,106,103,121,136,163,212,145,76
236,225,-11,-230,124,107,148,146,167,213,153,84
293,272,-21,-282,157,125,180,169,182,218,158,101
354,315,-38,-334,196,138,195,180,192,225,167,105
400,341,-59,-370,229,141,188,220,264,309,226,146
405,333,-72,-369,238,131,102,244,355,509,353,198
443,383,-60,-413,251,162,-243,-514,-435,208,489,347
470,450,-20,-460,245,215,-723,-1717,-1716,-505,534,491
624,343,-282,-483,453,30,-1204,-2490,-2511,-1080,664,682
837,135,-702,-486,769,-283,-1567,-2770,-2858,-1543,916,938
929,136,-793,-532,861,-328,-1677,-2717,-2847,-1906,1052,1126
881,269,-612,-575,746,-171,-1680,-2752,-2938,-2399,931,1285
730,230,-500,-480,615,-135,-1554,-2640,-2928,-2698,658,1287
684,110,-574,-397,629,-232,-1277,-2194,-2494,-2426,621,1297
639,-5,-644,-317,641,-324,-965,-1650,-1889,-1863,727,1316
623,-35,-658,-294,640,-346,-669,-1099,-1245,-1243,747,1255
526,-80,-605,-222,566,-343,-398,-622,-699,-748,628,1059
396,-109,-505,-144,451,-307,-141,-206,-237,-369,355,706
291,3,-288,-147,290,-142,96,131,118,-71,71,323
12,21,9,-17,2,15,317,419,409,181,-150,-77
-61,83,144,-12,-103,114,460,634,640,388,-190,-215
-24,121,145,-49,-85,133,538,747,739,467,-202,-246
-100,62,162,19,-131,112,581,842,827,503,-269,-330
-129,73,202,28,-166,137,580,901,889,522,-325,-367
-134,80,214,26,-174,146,605,951,950,569,-348,-390
-163,66,230,49,-197,147,617,1026,1029,617,-383,-421
-194,81,276,56,-235,178,613,1081,1095,652,-471,-506
-290,73,364,108,-327,218,666,1144,1186,722,-521,-563
-387,81,468,153,-428,275,741,1196,1272,804,-565,-615
-412,137,548,137,-480,342,800,1270,1376,917,-574,-648
-453,121,575,166,-514,348,832,1323,1433,992,-584,-676
-488,83,571,203,-529,327,832,1324,1441,1033,-593,-709
-501,51,552,225,-527,302,825,1310,1423,1061,-569,-705
-455,42,497,206,-476,269,804,1224,1344,1050,-508,-668
-387,47,434,170,-411,241,756,1117,1246,1016,-424,-608
-333,40,373,146,-353,206,685,998,1119,956,-335,-531
-267,41,308,113,-287,174,586,853,962,862,-217,-415
-190,39,230,75,-210,134,443,690,787,748,-116,-309
-127,30,157,49,-142,93,301,535,627,623,-27,-206
-68,15,82,26,-75,48,188,412,495,512,28,-120
-20,0,20,10,-20,10,76,287,362,410,67,-65
11,-27,-38,8,25,-33,1,208,262,325,109,-10
27,-37,-64,5,46,-51,-66,127,195,274,108,21
20,-28,-48,4,34,-38,-106,41,135,227,102,33
44,-23,-68,-10,56,-46,-119,-4,117,210,99,46
49,-15,-64,-17,57,-39,-121,-31,113,211,93,57
30,-11,-41,-9,36,-26,-82,-2,121,214,90,50
8,0,-8,-4,8,-4,-55,17,118,217,85,42
-10,12,22,-2,-16,17,-29,29,126,218,78,33
-5,20,26,-8,-15,23,-5,52,144,224,74,20
4,43,39,-24,-18,41,35,76,154,221,65,-3
15,48,34,-32,-10,41,79,132,200,242,72,-17
-8,40,48,-16,-29,44,104,142,195,238,105,-27
8,43,34,-26,-13,38,143,172,225,247,109,-43
36,24,-12,-30,24,6,113,162,208,259,100,-23
80,59,-21,-69,50,19,60,230,351,488,233,46
203,141,-61,-172,132,40,-139,-20,130,542,451,191
250,229,-21,-239,135,104,-571,-1085,-1070,-162,488,328
354,254,-100,-304,227,77,-1086,-2108,-2159,-920,523,500
566,30,-535,-298,550,-252,-1561,-2701,-2810,-1593,683,753
672,-113,-785,-279,729,-449,-1699,-2824,-2995,-2131,811,947
681,24,-656,-352,668,-316,-1649,-2727,-2949,-2505,719,1109
561,74,-487,-317,523,-206,-1561,-2688,-3018,-2909,365,1154
482,-37,-519,-222,501,-278,-1364,-2381,-2736,-2814,222,1163
503,-162,-664,-170,584,-413,-1097,-1891,-2212,-2304,318,1195
469,-240,-709,-114,589,-475,-806,-1348,-1590,-1681,417,1159
456,-261,-716,-97,586,-488,-557,-858,-995,-1064,470,1046
403,-247,-650,-77,526,-449,-310,-447,-518,-608,337,783
232,-218,-449,-7,341,-333,-76,-104,-133,-273,84,395
-26,-160,-134,94,54,-147,180,215,185,-2,-184,-65
-211,-103,108,156,-159,3,365,455,438,232,-288,-309
-239,-80,159,159,-199,40,426,540,536,310,-296,-346
-276,-85,191,180,-233,53,454,588,586,319,-352,-413
-317,-99,219,208,-268,60,490,672,672,381,-376,-457
-344,-101,243,222,-293,71,548,795,794,457,-397,-488
-360,-92,268,226,-313,87,627,929,923,537,-444,-551
-376,-94,283,235,-329,94,648,1008,1008,610,-506,-619
-421,-65,356,243,-389,146,585,972,1071,711,-534,-657
-444,-4,440,224,-442,218,569,1022,1182,838,-560,-710
-483,32,515,225,-499,274,619,1138,1301,966,-576,-755
-485,76,561,204,-523,318,671,1191,1374,1070,-556,-768
-479,101,580,189,-530,340,678,1208,1400,1136,-554,-768
-478,115,593,182,-536,354,667,1173,1375,1160,-523,-763
-420,139,559,140,-490,349,624,1105,1297,1137,-457,-736
-366,127,492,120,-429,309,526,979,1169,1066,-378,-651
-292,115,406,88,-349,260,456,854,1026,953,-289,-552
-222,106,328,58,-275,216,384,709,844,814,-210,-457
-140,94,235,23,-188,164,289,557,666,670,-114,-345
-76,79,155,-2,-116,116,217,440,521,538,-32,-236
-49,57,106,-5,-78,82,157,337,397,406,-2,-165
12,46,34,-30,-11,40,130,275,314,313,40,-107
25,15,-9,-20,17,3,130,240,255,252,66,-60
27,4,-23,-15,24,-9,133,238,233,195,41,-45
40,3,-37,-21,38,-17,136,243,220,164,32,-50
39,-25,-64,-7,52,-44,126,242,203,149,28,-57
39,-40,-79,1,59,-59,119,247,195,141,22,-58
30,-42,-72,6,51,-57,100,213,176,124,17,-63
33,-53,-86,11,59,-69,60,173,142,102,11,-65
1,-74,-75,37,38,-74,33,154,113,92,14,-60
-3,-67,-64,35,31,-65,27,138,112,86,20,-55
7,-28,-35,11,22,-31,-3,107,82,78,25,-50
-8,5,12,1,-10,8,-71,-9,26,67,31,-46
16,18,2,-17,7,9,-110,-91,12,55,37,-41
16,36,20,-26,-2,28,-106,-77,7,44,39,-42
10,48,38,-29,-14,42,-98,-74,-4,39,35,-47
21,43,23,-32,-1,33,-90,-66,-8,40,35,-50
25,46,21,-36,1,33,-83,-58,-5,40,35,-57
33,45,11,-39,10,28,-74,-55,3,40,35,-61
33,39,6,-37,13,23,-59,-37,6,41,35,-60
27,27,0,-27,13,13,-44,-29,14,40,31,-61
30,16,-15,-23,22,1,-19,-5,17,41,27,-60
26,4,-22,-15,24,-9,9,16,26,41,24,-61
10,-30,-40,10,25,-35,33,30,36,40,20,-65
2,-46,-48,22,25,-47,57,65,58,42,16,-66
12,-30,-42,9,27,-36,80,89,75,38,15,-71
9,-22,-31,7,20,-26,85,119,90,35,23,-67
-6,-30,-24,19,9,-27,59,102,93,25,29,-48
21,-34,-55,7,39,-45,20,74,72,24,26,-40
21,-54,-75,17,48,-64,-19,57,37,14,17,-42
21,-50,-72,15,47,-61,-49,49,26,12,10,-63
26,-14,-40,-6,33,-27,-83,22,7,11,11,-65
13,27,14,-21,-1,21,-99,-59,-15,6,9,-51
33,65,32,-49,0,48,-128,-104,-17,22,27,-38
62,60,-2,-61,32,29,-155,-93,12,109,94,11
144,109,-35,-127,89,37,-212,-76,110,345,259,95
220,233,13,-226,103,123,-471,-654,-499,120,443,267
267,381,114,-324,76,247,-827,-1694,-1657,-560,516,427
371,372,1,-372,185,186,-1235,-2475,-2526,-1246,610,632
516,154,-362,-335,438,-104,-1487,-2755,-2925,-1845,819,914
642,99,-543,-370,593,-222,-1456,-2584,-2820,-2153,1020,1127
636,197,-439,-417,538,-121,-1452,-2521,-2862,-2622,899,1308
513,149,-364,-331,438,-107,-1333,-2379,-2838,-2959,554,1329
461,4,-457,-232,459,-226,-1120,-1960,-2417,-2684,455,1319
466,-124,-590,-171,529,-357,-921,-1500,-1878,-2103,536,1348
464,-236,-699,-114,582,-467,-647,-978,-1258,-1452,577,1277
434,-267,-701,-83,568,-484,-445,-592,-773,-952,468,1066
311,-234,-545,-38,428,-390,-297,-336,-412,-579,223,711
103,-180,-283,39,193,-231,-89,-58,-79,-270,-87,237
-124,-100,24,112,-74,-38,157,236,232,7,-304,-200
-248,-67,181,157,-214,57,303,412,422,194,-318,-346
-261,-61,200,161,-230,69,365,490,504,259,-346,-394
-254,-49,205,151,-230,78,439,587,595,316,-370,-427
-277,-48,229,162,-252,90,499,670,670,363,-406,-456
-292,-59,233,175,-262,86,568,767,766,416,-458,-515
-307,-87,220,197,-263,67,667,892,878,475,-494,-548
-372,-91,281,232,-327,95,761,1016,998,536,-596,-639
-406,-89,317,248,-362,114,807,1120,1109,623,-636,-694
-421,-91,331,256,-376,120,795,1204,1206,711,-678,-738
-452,-90,362,271,-407,136,770,1266,1284,781,-745,-817
-460,-97,363,278,-411,133,752,1266,1315,839,-772,-871
-471,-93,378,281,-424,142,686,1218,1313,897,-776,-901
-469,-91,378,280,-423,143,621,1152,1273,932,-735,-887
-430,-60,370,245,-400,155,585,1041,1202,924,-704,-869
-383,-17,366,200,-375,174,524,931,1107,919,-604,-794
-338,-2,336,169,-337,167,458,825,990,885,-479,-675
-275,12,286,131,-281,149,386,682,844,786,-369,-568
-210,16,226,97,-218,120,316,554,680,673,-241,-442
-141,14,155,63,-149,85,244,425,535,555,-138,-326
-76,16,92,30,-84,54,187,331,413,447,-34,-209
-37,12,49,12,-43,30,167,280,315,344,17,-129
5,-1,-6,-2,6,-4,153,243,253,280,52,-75
19,-11,-30,-3,25,-20,140,237,219,247,78,-32
28,-27,-55,0,42,-41,132,229,207,221,84,-19
56,-35,-90,-11,73,-62,106,227,204,206,88,-9
59,-34,-93,-13,77,-63,65,217,201,188,74,-3
51,-60,-112,5,82,-86,53,219,188,178,69,8
33,-77,-109,22,71,-93,29,188,155,167,61,3
25,-71,-96,23,61,-84,-21,120,115,165,65,-5
14,-53,-67,20,41,-60,-42,112,90,161,66,-15
-2,-35,-33,19,16,-34,-19,118,108,160,68,-45
-3,-33,-31,18,14,-32,20,118,138,189,71,-44
-5,-28,-23,17,9,-25,44,122,157,214,70,-24
-15,-5,10,10,-12,2,85,133,172,230,70,-27
-24,7,32,8,-28,19,117,153,174,227,71,-35
-21,-2,19,11,-20,9,140,171,179,218,80,-35
-17,-7,10,12,-13,1,157,184,181,214,80,-35
-15,-14,1,14,-7,-6,151,185,180,205,79,-31
-5,-22,-17,14,6,-19,145,196,181,202,80,-30
7,-24,-31,8,19,-27,137,209,181,194,80,-29
19,-35,-54,8,37,-44,133,213,180,190,80,-21
36,-55,-90,10,64,-72,104,204,165,183,85,-15
51,-55,-107,2,79,-81,72,197,148,178,93,-8
61,-46,-108,-8,84,-77,18,150,123,170,92,-8
39,-67,-107,14,73,-87,-49,65,67,133,79,-14
30,-70,-100,20,65,-85,-64,41,27,121,67,-18
36,-49,-85,6,61,-66,-68,37,22,112,59,-22
24,-43,-67,10,46,-54,-54,42,41,113,48,-25
20,-33,-53,7,37,-43,-52,38,32,104,45,-16
14,-31,-45,9,30,-38,-24,39,53,101,30,-13
12,-29,-40,9,26,-34,11,48,69,111,42,-6
12,-18,-31,3,21,-24,26,108,158,246,126,17
105,76,-29,-90,66,23,-52,90,223,482,311,121
201,222,21,-211,90,121,-346,-598,-520,178,513,313
243,347,104,-295,69,225,-715,-1587,-1646,-487,592,468
367,330,-37,-348,201,146,-1156,-2314,-2464,-1192,695,695
508,116,-392,-312,450,-138,-1438,-2576,-2824,-1764,929,972
586,63,-523,-324,554,-229,-1444,-2414,-2748,-2087,1095,1196
538,133,-405,-335,471,-136,-1453,-2438,-2846,-2680,826,1312
435,65,-370,-250,402,-152,-1362,-2376,-2822,-3004,379,1301
381,-62,-443,-159,412,-252,-1139,-1974,-2380,-2645,305,1310
388,-189,-577,-99,483,-383,-860,-1456,-1778,-1997,421,1277
425,-267,-693,-79,559,-480,-592,-935,-1154,-1309,500,1212
394,-284,-677,-55,536,-480,-402,-553,-672,-804,433,1020
269,-269,-538,0,404,-403,-235,-268,-324,-454,173,635
69,-217,-286,74,178,-251,-15,29,-4,-163,-123,166
-130,-154,-25,142,-52,-89,232,325,307,103,-299,-211
-228,-135,93,181,-160,-21,354,489,478,269,-313,-316
-248,-134,114,191,-181,-10,439,595,574,323,-332,-355
-261,-124,137,192,-199,6,508,704,667,369,-366,-413
-277,-124,153,200,-215,14,543,794,749,421,-393,-450
-289,-111,178,200,-234,34,610,895,847,480,-451,-506
-320,-108,212,214,-266,52,647,976,933,529,-519,-570
-361,-131,230,246,-295,49,685,1033,1006,585,-569,-627
-399,-123,276,261,-337,76,719,1051,1067,647,-614,-676
-452,-103,349,278,-401,123,742,1079,1150,723,-686,-744
-471,-79,392,275,-432,157,794,1181,1260,823,-720,-801
-471,-51,420,261,-445,184,808,1253,1350,918,-716,-834
-477,-27,450,252,-463,211,796,1274,1388,995,-710,-849
-460,-7,452,233,-456,223,789,1257,1375,1029,-687,-835
-412,10,422,201,-417,216,745,1192,1325,1034,-624,-793
-357,33,389,162,-373,211,695,1112,1232,1008,-541,-727
-314,14,329,150,-322,172,621,985,1095,941,-442,-633
-231,26,257,102,-244,141,515,828,923,824,-333,-533
-161,44,205,58,-184,124,428,688,765,695,-225,-418
-127,7,134,60,-131,70,310,547,604,566,-125,-301
-69,0,69,34,-69,34,188,396,441,426,-64,-216
-32,0,32,16,-32,15,127,311,334,317,-19,-158
-22,-5,17,13,-19,6,79,247,257,245,6,-114
-20,-5,15,12,-17,4,26,139,174,184,16,-65
-8,2,9,3,-8,5,15,89,129,152,28,-44
16,21,5,-19,5,13,14,79,121,150,32,-41
25,25,1,-25,12,12,28,83,117,150,36,-35
22,25,3,-23,9,14,56,113,131,151,41,-32
20,26,6,-23,6,16,69,120,142,148,44,-25
20,24,4,-22,7,14,74,121,150,155,49,-31
17,27,10,-22,3,18,101,144,166,167,53,-35
8,17,9,-13,-1,13,139,196,208,196,56,-32
-3,9,12,-3,-8,10,135,198,204,201,62,-26
13,36,23,-25,-6,29,133,208,220,218,63,-28
50,59,9,-55,21,33,119,207,216,231,82,-4
83,63,-20,-73,51,21,115,286,331,390,169,38
182,124,-58,-152,120,32,-24,241,366,624,389,147
234,263,30,-248,102,146,-337,-623,-592,176,524,306
271,383,112,-328,79,247,-812,-1772,-1834,-600,553,456
487,293,-194,-390,341,50,-1478,-2556,-2596,-1223,756,721
641,90,-551,-365,596,-230,-1716,-2769,-2885,-1769,972,965
684,143,-541,-414,612,-198,-1630,-2623,-2831,-2180,1028,1151
633,222,-410,-427,521,-94,-1618,-2628,-2941,-2697,772,1253
508,89,-419,-299,463,-165,-1432,-2386,-2783,-2834,478,1252
491,-36,-527,-227,509,-281,-1147,-1888,-2252,-2390,505,1252
472,-146,-617,-163,545,-381,-846,-1358,-1645,-1766,590,1216
449,-201,-649,-124,549,-425,-562,-831,-1014,-1123,621,1151
404,-201,-605,-102,505,-402,-332,-418,-514,-642,478,910
253,-181,-434,-35,344,-308,-116,-76,-128,-295,189,526
44,-105,-149,31,97,-127,107,221,196,-6,-89,83
-173,-69,104,120,-138,17,305,483,470,231,-238,-241
-260,-71,189,166,-225,59,437,613,597,352,-237,-311
-259,-69,189,164,-224,60,505,643,628,377,-279,-358
-287,-97,191,192,-238,47,534,707,699,416,-327,-404
-294,-104,190,199,-241,43,556,797,785,462,-367,-457
-290,-81,209,185,-249,64,545,871,871,518,-411,-500
-342,-68,274,205,-308,103,543,933,971,579,-474,-547
-419,-56,363,237,-390,153,600,1031,1079,646,-559,-641
-463,-39,424,251,-443,192,670,1136,1192,734,-616,-704
-505,-16,488,260,-496,236,723,1217,1305,846,-665,-768
-540,7,547,267,-544,277,774,1306,1414,968,-672,-818
-528,18,546,255,-537,281,803,1368,1481,1078,-653,-836
-513,27,540,243,-526,283,814,1371,1489,1153,-629,-843
-493,38,532,227,-513,285,808,1341,1462,1168,-577,-810
-445,44,489,200,-468,267,777,1242,1352,1128,-493,-743
-386,41,427,172,-406,234,719,1039,1161,1041,-414,-659
-324,36,360,144,-343,198,603,824,956,912,-320,-553
-254,35,288,109,-271,161,448,624,753,771,-200,-421
-165,29,194,68,-180,111,313,458,587,630,-102,-296
-93,27,120,33,-107,73,210,348,450,503,-31,-196
-41,22,62,9,-52,42,102,268,349,410,30,-113
18,14,-4,-16,10,5,14,206,278,331,70,-59
61,8,-53,-34,57,-22,-35,168,235,284,75,-27
64,-1,-65,-31,64,-33,-53,151,205,251,91,1
83,37,-46,-59,64,-5,-44,154,207,245,97,22
105,68,-37,-86,71,15,-41,152,209,241,88,25
71,64,-7,-67,39,28,-31,158,216,238,83,13
54,64,9,-59,22,36,3,168,227,246,78,6
52,76,24,-65,14,50,75,236,312,355,129,9
126,126,0,-126,63,63,20,253,414,628,321,103
215,226,11,-220,102,118,-290,-516,-415,327,496,268
266,367,101,-317,82,234,-748,-1710,-1749,-442,586,441
507,267,-239,-387,373,14,-1279,-2520,-2591,-1101,840,745
696,-17,-714,-339,705,-365,-1537,-2789,-2980,-1796,1039,998
712,-31,-743,-341,728,-386,-1504,-2649,-2970,-2347,986,1126
673,58,-615,-366,644,-278,-1499,-2641,-3034,-2799,758,1219
596,-39,-635,-279,615,-336,-1396,-2462,-2893,-2888,530,1211
553,-185,-738,-184,646,-461,-1152,-1950,-2344,-2453,486,1169
502,-258,-761,-121,632,-509,-868,-1404,-1713,-1829,491,1121
476,-266,-742,-105,609,-504,-613,-886,-1080,-1185,471,1043
406,-264,-670,-70,539,-467,-372,-465,-569,-670,369,832
284,-256,-540,-14,412,-398,-137,-119,-173,-293,165,511
64,-180,-244,58,155,-212,87,167,146,-27,-120,82
-164,-99,65,131,-114,-17,319,440,439,232,-294,-248
-215,-69,146,142,-180,38,423,553,569,362,-292,-306
-253,-55,198,154,-225,71,462,589,616,374,-336,-359
-298,-44,253,171,-275,104,526,696,712,431,-383,-410
-310,-41,268,175,-289,113,544,770,789,481,-414,-447
-336,-30,306,183,-321,138,560,848,882,541,-462,-497
-380,-30,350,204,-365,160,604,948,981,617,-502,-546
-416,-11,405,213,-411,197,631,1059,1103,728,-537,-606
-435,47,482,194,-459,264,661,1162,1242,859,-564,-651
-456,58,514,199,-486,286,696,1243,1352,975,-583,-712
-459,53,512,203,-486,282,732,1318,1448,1096,-574,-754
-450,53,502,198,-476,277,754,1345,1507,1206,-543,-754
-434,49,483,193,-459,266,744,1318,1498,1268,-479,-727
-385,50,435,168,-410,242,712,1241,1433,1277,-391,-679
-320,46,366,137,-344,206,659,1125,1318,1238,-308,-613
-276,43,319,116,-298,181,585,971,1149,1135,-228,-539
-215,52,268,82,-242,160,487,781,959,993,-147,-432
-138,84,222,27,-180,152,381,615,790,850,-64,-310
-86,87,173,-1,-130,130,292,486,626,706,8,-209
-37,74,111,-19,-75,92,231,390,500,577,58,-129
7,59,52,-33,-23,55,179,327,408,456,67,-76
16,31,16,-24,0,23,130,279,318,358,59,-43
17,24,7,-21,5,15,59,224,264,309,59,-22
33,37,4,-35,14,20,3,162,224,269,52,-14
33,32,-1,-32,16,15,-13,114,190,239,51,-15
31,13,-18,-22,24,-2,-17,82,165,224,46,-12
34,6,-28,-19,31,-11,22,83,160,223,41,-9
12,-8,-20,-2,16,-14,31,63,135,205,39,-10
3,-19,-22,8,13,-20,11,66,146,204,32,-6
22,-17,-39,-2,30,-27,-9,56,140,218,59,8
71,16,-55,-44,63,-19,-40,149,311,456,187,51
178,120,-58,-149,117,31,-176,-22,190,611,413,191
220,274,54,-247,83,163,-483,-1030,-964,20,529,351
311,359,48,-335,132,203,-930,-2099,-2134,-756,625,543
565,182,-383,-373,474,-101,-1372,-2679,-2771,-1420,838,828
696,-10,-706,-343,701,-357,-1518,-2720,-2931,-1998,943,1004
705,74,-630,-389,668,-278,-1500,-2584,-2876,-2425,852,1127
679,113,-567,-396,623,-227,-1495,-2572,-2926,-2773,598,1203
587,-12,-600,-287,594,-306,-1401,-2300,-2657,-2666,463,1188
524,-145,-669,-189,597,-407,-1155,-1844,-2136,-2183,477,1161
499,-223,-722,-138,611,-472,-864,-1335,-1531,-1580,493,1119
457,-252,-708,-102,582,-480,-601,-841,-943,-989,494,1004
360,-262,-622,-49,491,-442,-349,-437,-470,-555,317,734
192,-216,-409,12,301,-312,-121,-108,-94,-234,52,370
-59,-153,-94,106,18,-124,128,201,219,31,-205,-52
-226,-99,127,162,-176,14,289,435,463,240,-322,-289
-234,-62,172,148,-203,55,367,554,587,341,-317,-324
-252,-53,198,152,-225,72,447,669,685,390,-339,-375
-268,-50,218,159,-243,83,499,767,782,449,-368,-411
-280,-42,238,161,-259,98,580,870,894,521,-422,-465
-330,-36,294,183,-312,129,678,998,1020,601,-467,-530
-387,-29,359,208,-373,165,761,1126,1156,704,-515,-583
-424,16,441,204,-432,228,781,1261,1319,840,-532,-629
-439,49,488,195,-464,268,749,1352,1447,970,-524,-667
-442,67,509,187,-476,288,735,1364,1515,1082,-527,-698
-444,89,534,177,-489,311,727,1347,1535,1155,-525,-719
-446,93,539,176,-493,316,721,1329,1523,1199,-518,-730
-419,106,525,156,-473,316,689,1274,1477,1214,-468,-708
-381,101,482,140,-432,291,618,1170,1385,1191,-401,-667
-312,86,399,113,-356,242,525,1012,1235,1135,-319,-595
-254,75,329,89,-292,202,420,829,1039,1006,-242,-503
-216,59,275,79,-246,167,342,674,860,851,-172,-418
-150,48,198,51,-174,122,279,540,696,712,-73,-306
-98,34,132,32,-115,83,225,414,544,571,-13,-204
-63,25,87,19,-75,56,197,322,421,452,13,-132
-23,12,35,6,-29,23,189,276,328,345,40,-86
23,20,-3,-22,13,8,201,269,285,282,49,-58
57,29,-28,-43,42,1,209,271,275,268,60,-38
66,21,-46,-43,56,-12,139,256,263,245,62,-24
67,20,-47,-43,56,-13,41,264,267,242,58,-13
54,10,-44,-32,49,-17,-17,178,215,223,54,-8
46,14,-32,-30,39,-9,-35,111,177,228,49,-11
48,-1,-49,-23,48,-24,-66,68,142,215,67,-9
76,40,-36,-57,55,3,-100,100,277,358,149,20
178,122,-56,-149,117,32,-222,44,293,588,361,134
243,237,-6,-240,124,115,-572,-881,-751,116,511,308
349,375,26,-362,161,200,-1056,-2052,-2035,-641,621,509
598,172,-426,-385,512,-127,-1559,-2764,-2775,-1318,845,785
763,-87,-850,-338,807,-468,-1728,-2925,-3102,-2016,943,967
770,-38,-808,-366,790,-423,-1666,-2775,-3075,-2498,854,1085
672,27,-645,-349,658,-309,-1609,-2762,-3095,-2892,618,1163
594,-69,-663,-262,629,-366,-1381,-2472,-2865,-2843,442,1126
514,-218,-732,-148,623,-475,-1058,-1923,-2295,-2374,427,1081
445,-265,-710,-89,578,-487,-740,-1355,-1651,-1777,418,1036
430,-268,-698,-80,564,-483,-481,-811,-1006,-1135,415,952
337,-283,-620,-26,479,-452,-286,-366,-491,-648,321,723
227,-241,-468,7,348,-354,-133,-42,-112,-311,101,380
2,-173,-175,86,89,-173,80,213,176,-72,-180,-48
-222,-130,92,176,-156,-19,264,417,402,135,-324,-334
-247,-89,157,168,-202,34,348,538,546,262,-313,-366
-284,-66,218,175,-251,76,436,648,647,310,-354,-418
-329,-58,271,194,-300,106,504,745,744,372,-383,-456
-340,-47,293,193,-316,123,571,853,852,444,-401,-480
-373,-39,335,206,-354,148,632,955,959,518,-447,-534
-405,-11,394,207,-399,192,699,1070,1075,615,-471,-573
-431,26,458,202,-445,242,763,1178,1195,712,-506,-628
-464,50,514,207,-489,282,814,1270,1312,828,-521,-682
-487,70,557,208,-522,313,838,1335,1400,939,-510,-712
-468,88,556,190,-512,322,843,1379,1466,1036,-496,-709
-453,91,543,181,-498,317,848,1398,1493,1125,-452,-697
-423,90,513,166,-468,301,797,1355,1445,1143,-390,-673
-364,92,455,136,-410,273,632,1222,1345,1112,-335,-626
-314,89,402,112,-358,245,449,974,1155,1033,-273,-569
-258,86,344,86,-302,215,345,743,948,906,-197,-490
-205,83,289,61,-247,186,259,585,780,767,-122,-398
-147,80,228,33,-187,154,188,463,623,633,-55,-290
-82,79,161,1,-122,120,139,342,476,493,0,-195
-37,71,107,-17,-72,89,95,251,352,368,21,-147
-14,60,73,-23,-44,66,75,201,277,293,39,-104
-4,51,54,-24,-29,52,75,165,225,241,61,-69
-2,40,42,-19,-22,41,77,160,197,201,60,-65
7,38,32,-23,-13,35,80,160,204,190,60,-64
11,30,19,-21,-4,24,80,168,197,187,60,-60
26,35,9,-31,9,22,85,181,196,184,60,-60
59,55,-4,-57,32,25,88,181,196,181,60,-55
53,38,-14,-45,33,12,92,173,189,168,56,-48
31,6,-26,-18,29,-10,99,181,183,149,54,-45
28,-14,-42,-6,35,-28,66,152,133,135,50,-36
22,-24,-46,1,35,-35,7,88,108,145,49,-33
37,-8,-45,-14,41,-26,-49,19,73,127,43,-26
49,7,-42,-28,45,-17,-82,20,72,144,51,-24
58,18,-40,-38,49,-11,-88,14,62,137,61,-26
112,72,-41,-92,76,15,-91,87,209,320,152,31
187,137,-50,-162,118,44,-232,-73,82,420,337,137
230,239,9,-235,110,123,-555,-1043,-1014,-180,410,275
326,296,-30,-311,177,133,-992,-2066,-2101,-865,468,446
548,136,-412,-342,480,-138,-1435,-2655,-2724,-1434,657,692
694,-23,-717,-335,705,-370,-1563,-2722,-2895,-1908,800,901
715,25,-689,-370,702,-332,-1509,-2551,-2830,-2296,770,1044
659,71,-588,-365,623,-258,-1461,-2571,-2943,-2753,514,1142
543,-44,-587,-249,566,-316,-1279,-2303,-2716,-2747,330,1157
508,-212,-720,-148,615,-466,-1010,-1810,-2201,-2294,441,1187
516,-271,-786,-122,651,-528,-711,-1261,-1577,-1689,554,1181
506,-231,-738,-137,622,-484,-455,-740,-948,-1072,583,1114
420,-220,-640,-100,530,-429,-264,-380,-504,-630,424,862
259,-204,-463,-27,361,-333,-122,-98,-170,-327,96,440
27,-159,-186,66,107,-172,30,131,105,-80,-186,0
-189,-118,70,153,-129,-24,188,359,362,167,-307,-282
-211,-64,147,137,-179,41,273,506,523,319,-304,-335
-218,-43,175,131,-196,65,328,582,605,367,-326,-382
-265,-45,220,155,-242,87,392,673,695,415,-367,-429
-308,-50,259,179,-283,104,483,782,803,467,-441,-496
-366,-74,293,220,-329,109,574,905,924,541,-497,-559
-391,-48,342,219,-366,147,655,1030,1042,634,-539,-599
-432,-19,413,226,-422,197,745,1158,1172,738,-591,-661
-477,-12,466,244,-471,227,812,1266,1302,856,-623,-717
-500,17,517,241,-509,267,859,1353,1411,964,-659,-775
-523,36,560,243,-542,298,906,1429,1505,1058,-672,-820
-540,39,579,250,-559,308,929,1450,1531,1133,-670,-850
-523,31,553,246,-538,292,933,1441,1516,1168,-634,-829
-481,24,505,228,-493,264,907,1389,1468,1163,-571,-792
-410,19,429,196,-420,224,810,1263,1337,1117,-483,-731
-331,7,339,162,-335,173,672,1108,1174,1037,-374,-614
-243,-9,234,126,-239,112,507,899,962,901,-281,-524
-159,-24,135,91,-146,55,321,681,745,739,-188,-407
-119,-42,77,80,-98,17,155,472,556,582,-104,-281
-82,-51,31,66,-56,-10,57,259,368,435,-42,-194
-34,-7,26,20,-30,9,44,158,275,355,15,-105
31,43,12,-37,10,27,47,133,230,310,79,-37
54,43,-10,-48,32,16,51,127,202,272,102,0
58,33,-25,-45,41,4,53,133,204,251,100,8
52,8,-43,-30,47,-17,55,127,189,240,97,9
47,19,-29,-33,38,-5,64,142,195,250,94,33
59,51,-7,-55,33,22,79,126,175,238,92,37
30,43,13,-37,8,28,111,149,187,250,86,13
22,32,10,-27,5,20,116,155,203,254,108,20
89,69,-20,-79,54,24,94,245,366,476,227,77
204,137,-67,-170,135,35,-86,65,227,615,463,215
262,242,-20,-252,141,111,-400,-866,-862,16,557,363
368,363,-5,-366,187,179,-854,-1881,-2027,-811,629,545
560,206,-353,-383,456,-73,-1353,-2567,-2800,-1655,781,827
675,-53,-728,-311,702,-390,-1478,-2668,-3078,-2310,845,1027
651,-51,-702,-300,677,-376,-1463,-2572,-3035,-2743,708,1153
558,-7,-564,-275,561,-285,-1489,-2652,-3104,-3134,332,1212
477,-104,-581,-186,530,-343,-1328,-2378,-2835,-2996,145,1161
418,-230,-648,-94,533,-439,-1050,-1885,-2261,-2458,127,1098
415,-253,-668,-81,542,-460,-768,-1340,-1603,-1755,177,1055
382,-259,-641,-61,512,-450,-494,-802,-953,-1059,262,954
338,-238,-576,-50,458,-407,-256,-388,-465,-566,196,730
203,-174,-378,-14,291,-276,1,-15,-60,-205,28,368
-59,-126,-67,93,5,-97,275,335,298,93,-187,-75
-177,-47,131,112,-154,42,435,568,554,329,-256,-286
-210,-25,185,118,-197,79,507,679,670,422,-262,-334
-242,-57,186,149,-214,64,564,765,745,460,-318,-412
-272,-75,197,173,-235,61,624,857,840,512,-355,-451
-318,-78,240,198,-279,80,701,959,933,569,-395,-503
-329,-69,260,198,-294,95,756,1035,1018,639,-438,-557
-369,-64,305,216,-337,120,772,1113,1113,712,-499,-627
-406,-47,359,226,-382,156,763,1196,1208,813,-519,-690
-397,-1,396,199,-397,197,725,1277,1326,942,-512,-718
-395,24,418,185,-407,221,679,1330,1409,1054,-519,-751
-406,19,426,193,-416,222,640,1291,1405,1136,-506,-773
-396,56,453,170,-425,254,623,1198,1377,1184,-473,-771
-376,73,449,152,-413,261,611,1090,1307,1172,-427,-760
-364,71,436,146,-400,254,551,990,1213,1153,-357,-718
-292,81,373,105,-333,227,479,880,1100,1106,-251,-604
-209,69,278,70,-244,173,415,735,937,976,-168,-508
-162,58,221,52,-192,139,326,588,773,831,-86,-408
-93,44,137,24,-115,90,239,460,624,709,11,-269
-33,30,63,1,-48,46,181,336,477,566,63,-174
-3,15,18,-6,-11,17,137,257,367,443,98,-113
12,-16,-27,2,20,-21,123,216,290,364,108,-83
23,-27,-50,2,37,-38,126,194,239,306,103,-56
27,-24,-51,-2,39,-37,119,178,213,264,102,-32
23,-26,-50,1,37,-37,122,165,191,217,99,-40
28,-20,-48,-4,38,-34,104,167,184,193,98,-44
29,-15,-44,-6,37,-30,68,160,189,200,91,-40
40,-6,-46,-16,43,-26,29,191,199,212,87,-40
46,-2,-48,-22,47,-25,0,217,200,215,83,-39
43,7,-36,-25,39,-14,-8,217,202,217,77,-40
16,12,-5,-14,10,4,-14,144,142,186,77,-39
7,33,26,-20,-10,29,-24,103,124,190,79,-37
28,60,32,-44,-2,45,-48,81,120,200,104,-17
41,48,7,-44,17,27,-45,101,227,366,207,35
147,130,-17,-138,82,56,-147,17,206,530,395,138
252,239,-12,-245,132,113,-423,-764,-709,35,530,309
303,317,14,-310,144,165,-816,-1773,-1840,-719,559,466
431,228,-202,-330,316,13,-1243,-2449,-2609,-1444,676,699
588,13,-575,-300,582,-281,-1400,-2608,-2886,-2015,864,961
617,22,-595,-319,606,-286,-1376,-2459,-2785,-2372,872,1127
537,67,-470,-302,503,-201,-1346,-2469,-2876,-2836,556,1213
447,-26,-472,-211,459,-249,-1170,-2245,-2714,-2936,251,1184
412,-152,-564,-130,488,-358,-883,-1749,-2195,-2497,315,1226
454,-221,-675,-116,565,-448,-699,-1281,-1622,-1841,499,1267
452,-240,-692,-106,573,-466,-575,-823,-1048,-1219,549,1156
426,-241,-666,-92,546,-453,-374,-457,-600,-761,427,938
274,-199,-473,-38,374,-336,-234,-230,-266,-421,144,535
13,-131,-144,59,78,-137,-28,45,56,-141,-183,13
-167,-53,114,110,-140,30,197,327,356,140,-322,-306
-233,-5,227,119,-230,111,276,469,526,305,-324,-384
-221,-1,219,111,-220,109,343,569,621,367,-366,-446
-257,-40,217,149,-237,88,396,667,721,448,-386,-492
-302,-51,251,176,-276,100,466,766,826,515,-426,-539
-301,-39,262,170,-281,112,550,884,946,602,-465,-587
-311,-36,275,173,-292,119,635,1004,1075,701,-500,-634
-344,-27,317,185,-330,145,718,1115,1192,787,-572,-707
-391,-15,376,203,-383,180,785,1210,1305,885,-626,-776
-420,16,436,202,-428,226,861,1303,1414,996,-655,-838
-429,34,464,197,-447,249,902,1373,1494,1097,-656,-865
-433,37,470,198,-452,253,890,1385,1525,1154,-668,-899
-437,36,473,200,-456,254,812,1314,1471,1190,-648,-900
-382,35,417,173,-400,226,662,1159,1346,1166,-587,-852
-339,34,374,152,-357,204,531,1002,1202,1096,-514,-789
-315,38,353,138,-334,195,450,865,1049,1014,-389,-667
-250,55,305,98,-278,180,360,700,869,877,-284,-556
-186,55,240,65,-213,147,267,551,699,741,-199,-454
-104,48,152,28,-128,100,203,438,551,619,-75,-309
-73,45,118,14,-96,82,163,332,422,495,12,-201
14,40,26,-27,-6,33,140,272,342,392,34,-158
9,36,28,-22,-10,32,135,250,280,325,87,-88
-34,24,58,4,-47,41,129,240,255,294,128,-40
86,2,-84,-44,85,-41,137,216,233,229,114,-45
88,-17,-105,-35,97,-61,132,203,226,218,105,-34
60,-30,-90,-14,75,-60,159,214,208,224,97,-29
40,-56,-96,8,69,-76,250,234,206,228,84,-26
42,-43,-85,1,63,-64,160,187,189,228,85,-14
97,12,-86,-54,91,-37,-43,158,265,359,153,9
172,93,-80,-132,126,6,-250,65,311,618,390,145
284,259,-25,-271,154,116,-569,-666,-530,242,601,348
333,398,65,-366,134,231,-1004,-1719,-1733,-522,709,544
488,325,-163,-406,325,81,-1458,-2434,-2536,-1264,929,843
678,138,-540,-408,609,-201,-1591,-2662,-2920,-2025,1081,1098
673,88,-585,-380,629,-248,-1531,-2576,-2912,-2540,991,1235
554,91,-462,-322,508,-185,-1505,-2550,-2980,-3005,608,1264
450,-27,-477,-211,463,-251,-1333,-2331,-2812,-3057,288,1210
363,-184,-547,-90,456,-365,-1033,-1833,-2260,-2561,216,1158
324,-266,-590,-29,457,-428,-741,-1301,-1625,-1892,244,1110
365,-267,-633,-48,499,-450,-487,-789,-975,-1178,366,1042
320,-259,-579,-30,450,-419,-258,-370,-473,-646,331,853
188,-233,-421,22,305,-327,-33,-48,-101,-282,121,501
-24,-189,-165,107,71,-177,241,288,248,15,-154,22
-199,-161,38,180,-118,-62,496,583,532,261,-309,-303
-253,-125,128,188,-190,2,561,645,627,368,-347,-391
-277,-86,190,181,-233,51,474,641,671,402,-381,-427
-268,-58,210,162,-239,76,426,700,754,460,-394,-464
-329,-39,290,183,-309,125,449,774,842,521,-441,-507
-319,-25,295,172,-307,135,482,854,932,597,-461,-547
-310,-12,299,161,-304,143,534,931,1022,678,-497,-586
-398,4,402,197,-400,202,593,1020,1119,759,-567,-654
-411,16,427,197,-420,222,636,1091,1209,857,-593,-730
-438,28,465,205,-452,246,668,1165,1311,980,-587,-755
-442,47,488,197,-465,267,675,1192,1356,1064,-580,-772
-437,45,482,195,-459,264,658,1159,1355,1120,-559,-769
-436,37,473,199,-455,255,653,1138,1322,1152,-507,-751
-378,31,409,174,-394,220,635,1070,1234,1126,-436,-718
-330,20,351,155,-341,185,605,971,1121,1062,-365,-655
-281,3,284,139,-283,143,569,839,965,958,-273,-572
-219,2,221,108,-220,111,513,680,801,834,-166,-439
-153,21,173,66,-163,97,467,568,663,703,-67,-311
-83,28,111,28,-98,69,297,433,536,581,16,-197
-30,33,63,-2,-47,48,89,314,419,481,73,-93
-8,21,28,-7,-18,24,24,251,329,398,114,-36
34,6,-28,-20,30,-11,-19,184,258,327,123,-2
57,2,-55,-29,56,-26,-32,169,230,293,121,9
52,-9,-61,-21,57,-35,-28,137,183,258,130,20
28,-15,-44,-6,36,-29,-25,139,167,232,126,25
34,-15,-48,-9,41,-31,-56,121,156,239,134,39
107,23,-84,-65,96,-30,-53,156,255,357,170,72
135,80,-55,-107,95,12,-92,178,332,570,319,134
212,184,-28,-198,120,78,-412,-609,-562,198,482,293
294,335,40,-315,127,187,-872,-1757,-1829,-540,624,510
461,245,-215,-353,338,15,-1353,-2496,-2617,-1168,921,834
669,6,-663,-338,666,-328,-1556,-2770,-3022,-1899,1086,1077
630,-19,-649,-305,640,-333,-1486,-2681,-3035,-2459,1022,1184
547,44,-503,-295,524,-229,-1443,-2640,-3089,-2888,779,1282
470,-75,-545,-198,508,-310,-1319,-2442,-2932,-2973,542,1263
424,-252,-676,-86,550,-464,-1074,-1941,-2376,-2521,524,1206
445,-285,-729,-80,587,-507,-819,-1361,-1703,-1861,515,1160
434,-247,-680,-93,557,-464,-635,-864,-1053,-1170,522,1105
381,-233,-614,-73,498,-423,-425,-454,-549,-654,447,915
246,-227,-473,-10,360,-350,-183,-94,-151,-305,196,553
25,-183,-208,79,117,-195,61,225,175,-44,-106,112
-174,-127,47,151,-110,-40,293,490,445,181,-312,-236
-240,-83,157,161,-198,36,397,602,585,330,-335,-331
-260,-68,192,164,-226,62,447,682,672,389,-354,-369
-279,-67,212,173,-245,72,512,767,754,438,-401,-427
-286,-46,241,166,-263,97,553,837,842,491,-431,-465
-315,-23,291,169,-303,134,609,922,940,545,-497,-521
-366,-1,365,183,-365,182,681,1006,1038,607,-553,-584
-435,4,439,215,-437,221,751,1113,1164,715,-587,-637
-465,11,476,227,-471,244,795,1207,1272,830,-613,-692
-469,39,508,215,-489,273,779,1254,1368,955,-617,-737
-464,58,523,203,-494,290,736,1276,1413,1051,-614,-751
-448,60,507,194,-478,283,685,1267,1414,1106,-588,-759
-433,75,509,179,-471,292,646,1206,1376,1137,-532,-732
-392,92,484,150,-438,288,601,1112,1292,1111,-445,-682
-354,62,416,146,-386,239,535,990,1168,1066,-357,-614
-286,49,335,118,-310,191,451,833,1000,976,-251,-498
-203,51,255,76,-229,152,356,672,825,840,-147,-390
-149,39,187,55,-168,113,283,517,643,697,-75,-292
-78,36,115,21,-97,75,212,381,492,549,-7,-185
-41,26,67,7,-54,46,153,284,370,418,34,-110
-21,19,40,1,-31,29,117,204,277,316,56,-63
6,7,1,-6,2,3,91,150,217,235,57,-33
44,-4,-48,-20,46,-25,74,123,170,186,52,-20
49,-23,-72,-13,61,-47,56,103,140,170,51,-13
23,-47,-70,12,47,-58,43,99,128,159,47,-9
36,-28,-64,-4,51,-46,39,100,130,151,46,-4
17,-25,-42,4,30,-33,37,99,130,149,42,0
9,-8,-17,0,13,-13,34,100,129,146,40,5
34,35,1,-34,16,17,30,100,130,143,40,2
33,46,13,-40,9,30,30,97,127,140,40,-4
32,53,21,-43,5,37,29,90,122,138,40,-8
22,57,35,-40,-6,46,35,84,118,134,40,-12
17,72,54,-45,-19,63,41,77,113,135,40,-18
18,73,55,-46,-19,63,34,71,110,132,40,-19
7,62,55,-35,-24,58,31,65,104,129,40,-14
7,60,53,-34,-24,56,27,59,96,131,40,-16
31,52,21,-42,5,36,22,55,90,127,40,-13
42,25,-17,-33,29,4,18,48,82,123,42,-10
41,-1,-42,-20,41,-21,8,44,75,120,46,-11
47,-4,-51,-22,49,-27,3,37,72,116,44,-7
41,-11,-52,-14,47,-32,-30,37,77,112,48,-3
43,-14,-57,-14,50,-36,-61,31,77,111,51,1
52,-8,-60,-22,56,-34,-52,30,83,116,48,3
59,-4,-63,-27,61,-33,-43,45,88,121,64,9
76,1,-75,-39,76,-37,-32,63,94,129,66,9
78,4,-73,-41,75,-34,-19,60,87,120,56,3
57,10,-46,-33,52,-18,2,57,85,118,48,-2
38,10,-28,-24,33,-9,11,66,85,115,38,-8
29,10,-19,-19,24,-4,19,49,73,105,31,-12
19,11,-8,-14,13,1,44,76,86,104,26,-22
20,9,-10,-14,15,-1,37,42,86,140,72,0
69,46,-23,-57,46,12,-4,60,218,363,189,56
149,140,-8,-145,78,66,-259,-380,-251,272,360,184
209,292,83,-251,63,187,-687,-1517,-1476,-347,450,334
342,321,-20,-331,180,150,-1217,-2456,-2433,-948,563,523
609,164,-445,-386,527,-140,-1657,-2892,-2895,-1403,859,832
771,71,-700,-420,735,-314,-1653,-2733,-2832,-1726,1085,1045
755,113,-643,-434,699,-265,-1611,-2594,-2821,-2210,1037,1184
664,86,-579,-375,621,-247,-1518,-2550,-2896,-2672,759,1240
586,-70,-655,-258,621,-362,-1262,-2152,-2548,-2562,624,1238
558,-185,-742,-186,650,-463,-1008,-1667,-2003,-2057,674,1260
501,-206,-707,-148,604,-456,-710,-1150,-1399,-1466,683,1193
428,-196,-625,-116,527,-410,-471,-707,-856,-945,613,1041
338,-192,-531,-73,435,-361,-243,-321,-401,-540,367,742
188,-179,-367,-4,278,-273,-34,-15,-63,-245,69,357
-55,-156,-101,106,24,-128,204,243,210,-18,-207,-64
-204,-111,93,158,-148,-9,382,463,438,187,-322,-313
-228,-84,144,155,-185,30,445,560,544,277,-322,-347
-265,-86,179,175,-221,46,501,633,609,296,-385,-403
-299,-84,215,191,-256,65,524,695,676,329,-440,-456
-333,-88,246,210,-289,79,564,765,754,364,-487,-495
-358,-83,275,220,-316,95,589,854,846,407,-548,-556
-396,-85,311,240,-353,112,581,912,927,458,-618,-620
-439,-76,363,257,-400,143,573,1022,1067,563,-646,-656
-479,-50,429,264,-454,189,644,1192,1233,675,-673,-700
-486,2,488,242,-488,245,711,1277,1334,769,-687,-734
-474,53,527,210,-501,290,734,1360,1440,882,-676,-741
-468,71,539,198,-503,305,781,1417,1493,962,-661,-739
-445,86,531,180,-488,308,774,1389,1478,998,-622,-731
-425,85,509,170,-468,297,746,1330,1416,1008,-573,-715
-386,85,472,150,-429,278,704,1200,1293,974,-506,-655
-337,84,422,126,-380,253,640,1042,1141,898,-423,-582
-279,86,365,96,-323,225,549,874,969,801,-334,-498
-214,81,295,67,-255,188,451,715,802,687,-240,-397
-132,65,196,33,-164,130,369,563,631,580,-132,-287
-64,50,114,7,-89,82,287,409,468,455,-70,-195
-40,19,58,10,-49,38,215,281,323,325,-27,-150
-11,-1,9,6,-10,4,141,185,239,250,23,-99
9,-18,-26,5,18,-22,73,128,188,187,30,-62
31,-22,-53,-4,42,-37,-23,90,149,142,30,-49
33,-22,-55,-5,44,-38,-47,83,150,128,30,-35
14,-35,-49,10,32,-42,-19,87,147,132,31,-27
14,-36,-49,11,32,-42,-32,78,141,133,29,-21
9,-32,-41,12,26,-36,-34,83,143,138,38,-14
37,-6,-43,-16,40,-25,-25,76,137,144,47,-7
60,34,-26,-47,43,4,1,105,173,167,45,-2
48,40,-7,-44,28,16,24,120,186,180,47,6
50,40,-10,-45,30,15,48,119,190,177,43,13
61,41,-21,-50,41,10,56,124,194,189,67,29
74,39,-35,-57,54,2,56,153,251,300,126,29
172,112,-60,-142,116,26,-24,182,368,577,313,112
243,250,6,-247,118,128,-314,-560,-442,285,490,285
281,393,112,-337,84,252,-828,-1829,-1831,-535,543,443
542,296,-247,-419,394,25,-1427,-2623,-2629,-1159,745,713
789,1,-788,-395,788,-393,-1706,-2852,-2945,-1672,967,951
816,-56,-872,-380,844,-464,-1677,-2733,-2927,-2103,980,1076
746,3,-743,-374,745,-369,-1630,-2691,-2979,-2572,791,1176
665,-92,-758,-287,712,-425,-1499,-2548,-2915,-2767,572,1185
587,-231,-818,-178,703,-524,-1227,-2095,-2442,-2419,545,1171
522,-263,-785,-129,654,-524,-938,-1589,-1870,-1886,560,1147
480,-247,-727,-116,603,-486,-692,-1088,-1280,-1310,525,1065
377,-244,-621,-66,500,-432,-437,-630,-750,-797,435,868
245,-231,-476,-6,361,-353,-185,-229,-302,-406,207,533
21,-197,-218,88,119,-207,93,101,39,-123,-88,100
-182,-112,69,147,-125,-22,341,367,315,118,-253,-208
-233,-76,157,155,-195,40,436,488,454,243,-277,-287
-258,-72,186,165,-222,57,440,511,497,267,-300,-323
-280,-52,228,166,-254,87,457,602,593,328,-328,-352
-291,-44,247,167,-269,101,474,709,690,388,-352,-382
-317,-21,296,169,-306,137,503,819,804,463,-384,-422
-356,-5,350,180,-353,172,573,928,904,531,-439,-474
-410,23,433,193,-422,228,639,1030,1012,608,-497,-534
-450,62,511,194,-481,286,698,1131,1134,710,-529,-583
-460,102,562,179,-511,332,758,1224,1242,817,-537,-624
-475,119,595,178,-535,356,795,1279,1327,927,-533,-649
