I,II,III,aVR,aVL,aVF,V1,V2,V3,V4,V5,V6
-200,180,380,10,-290,280,194,413,-32,1323,520,4285
-222,154,376,33,-299,265,179,392,-54,1306,515,4218
-227,142,369,42,-298,255,163,371,-71,1283,503,4066
-171,191,362,-10,-267,277,161,367,-78,1274,492,3934
-174,181,355,-3,-265,268,154,358,-114,1261,461,3792
-178,172,350,3,-264,261,152,351,-127,1252,416,3576
-164,179,342,-8,-253,260,146,344,-134,1242,413,3486
-147,187,334,-20,-241,261,145,337,-143,1233,450,3413
-112,212,324,-50,-218,268,173,335,-145,1224,451,3359
-141,181,322,-21,-231,251,182,335,-149,1215,420,3237
-193,132,325,30,-260,229,175,335,-151,1207,402,3207
-184,141,324,21,-255,233,175,334,-154,1197,397,3181
-169,160,328,4,-249,244,170,335,-156,1189,395,3076
-192,138,330,27,-262,234,171,339,-159,1180,390,3042
-199,130,329,34,-264,229,174,344,-162,1170,386,2967
-199,126,325,36,-262,225,179,341,-164,1156,383,2945
-164,155,319,4,-242,237,176,329,-168,1142,375,2878
-137,178,315,-21,-227,247,160,318,-169,1132,364,2777
-168,143,311,12,-239,227,144,307,-174,1121,355,2706
-149,157,306,-4,-228,232,135,301,-190,1111,342,2644
-134,168,302,-17,-219,235,130,296,-203,1092,325,2594
-150,149,299,1,-225,224,125,294,-211,1074,312,2516
-155,143,297,6,-226,220,121,289,-217,1064,302,2477
-152,141,293,5,-223,216,116,286,-219,1051,289,2421
-156,136,292,10,-224,213,117,286,-224,1042,281,2378
-155,133,288,11,-222,210,121,291,-228,1037,271,2340
-157,130,287,13,-222,208,120,290,-230,1031,266,2305
-149,133,283,8,-217,208,120,287,-236,1029,259,2287
-111,168,279,-28,-196,223,116,295,-233,1022,248,2236
-113,167,280,-27,-197,223,114,282,-239,1020,248,2179
-145,126,271,9,-208,198,117,295,-237,1010,231,2135
-154,125,279,14,-217,202,112,273,-243,1010,240,2126
-98,163,261,-33,-180,212,118,295,-239,1000,219,2073
-89,191,279,-51,-184,235,111,270,-252,998,228,2036
-108,153,261,-23,-185,206,117,283,-255,992,211,1963
-104,173,277,-35,-191,225,136,319,-211,987,210,1939
-112,155,267,-22,-190,211,209,453,-108,1083,270,1922
52,310,257,-181,-102,283,151,721,179,1433,580,2130
441,752,311,-597,65,531,-289,-213,-78,1876,1306,2769
505,400,-104,-452,304,148,-638,-1193,-889,1318,880,2377
99,-134,-233,18,166,-183,-497,-736,-1018,472,-46,1568
-45,58,102,-7,-73,80,-80,1,-546,688,76,1637
-73,128,201,-28,-138,165,124,319,-308,920,190,1684
-140,110,250,15,-195,180,112,293,-295,873,162,1623
-120,139,259,-10,-190,199,138,316,-276,893,174,1618
-148,123,272,12,-210,198,142,335,-281,867,146,1561
-137,135,271,1,-204,203,149,320,-280,873,157,1525
-137,126,264,5,-201,195,151,329,-279,854,138,1517
-134,133,267,0,-200,199,148,314,-281,847,145,1508
-159,105,264,26,-211,184,152,318,-274,834,135,1475
-176,72,248,52,-212,159,149,316,-268,824,134,1429
-191,51,242,70,-217,146,150,332,-261,822,130,1362
-216,67,282,74,-249,175,170,355,-253,814,125,1372
-218,67,284,75,-251,175,183,373,-233,814,126,1365
-221,58,279,82,-250,168,182,377,-209,805,123,1308
-210,68,278,71,-245,173,187,393,-181,806,121,1282
-205,65,271,70,-238,168,189,411,-153,813,119,1254
-192,79,271,56,-231,175,190,428,-119,821,121,1243
-175,99,274,37,-224,186,179,451,-83,829,136,1234
-160,116,275,21,-218,195,164,456,-51,829,151,1225
-163,111,275,26,-219,193,153,458,-30,830,158,1219
-140,135,275,2,-207,205,146,461,-21,830,167,1211
-131,144,275,-7,-203,210,142,464,-15,830,179,1202
-109,163,272,-27,-191,218,135,466,-5,829,197,1191
-60,209,269,-75,-165,239,130,446,-2,819,214,1182
-78,192,270,-57,-174,231,125,413,-9,811,216,1167
-75,191,266,-59,-171,228,120,377,-18,802,210,1152
-90,175,265,-43,-177,219,117,340,-27,793,204,1132
-128,137,265,-5,-196,200,113,304,-36,778,198,1101
-120,140,260,-10,-190,199,110,265,-59,751,172,1065
-125,129,255,-2,-190,192,105,249,-73,724,150,1022
-137,114,250,12,-194,182,105,249,-81,702,149,978
-136,110,246,13,-192,178,104,245,-93,685,146,952
-145,96,241,24,-193,169,106,242,-90,670,143,940
-116,121,237,-3,-177,179,119,240,-90,664,140,923
-73,159,232,-43,-153,195,117,237,-88,663,140,901
-74,153,227,-40,-151,190,110,231,-84,659,140,886
-67,157,224,-45,-146,190,105,224,-86,656,140,878
-71,148,219,-39,-145,183,100,218,-80,654,140,865
-103,111,214,-4,-159,163,94,210,-72,651,140,850
-107,103,210,2,-159,156,89,206,-64,649,140,833
-100,109,210,-5,-155,159,84,209,-56,649,140,813
-100,110,210,-5,-155,160,78,210,-49,645,140,791
-93,117,210,-12,-152,163,72,209,-45,645,140,776
-92,118,210,-13,-151,164,73,210,-43,644,140,763
-89,120,209,-16,-149,165,87,210,-40,639,140,742
-103,107,210,-2,-157,158,96,208,-36,635,141,723
-98,111,209,-6,-154,160,103,204,-35,632,145,714
-76,135,211,-29,-144,172,110,202,-31,628,160,711
-76,133,209,-29,-142,171,111,199,-30,625,161,685
-95,117,212,-11,-154,164,115,196,-29,617,150,648
-116,114,229,1,-173,171,117,194,-26,600,143,630
-78,151,230,-37,-154,190,121,188,-24,585,136,619
-84,141,225,-29,-155,183,117,180,-27,570,128,594
-110,114,224,-3,-167,168,108,174,-30,556,118,567
-103,116,220,-6,-162,168,100,166,-30,544,109,546
-112,106,218,3,-166,162,92,159,-30,535,101,524
-94,103,197,-5,-146,150,78,153,-29,525,91,499
-84,97,181,-7,-132,139,58,146,-43,514,85,474
-80,94,174,-7,-128,134,51,141,-52,502,77,453
-71,95,167,-12,-120,131,47,137,-48,491,70,439
-67,95,162,-14,-115,128,40,127,-52,480,63,428
-57,94,152,-19,-105,123,36,129,-48,470,55,418
-57,96,153,-19,-106,124,29,120,-51,465,62,419
-64,88,152,-13,-108,119,37,129,-43,456,57,387
-68,93,161,-12,-115,127,40,121,-39,452,64,361
-72,84,156,-6,-114,120,48,126,-34,443,63,344
-82,85,167,-2,-125,126,53,127,-26,439,65,341
-62,100,162,-20,-113,131,55,115,-26,441,70,330
-67,103,170,-19,-119,137,66,135,-11,436,64,317
-141,57,197,42,-169,127,56,95,-17,445,81,317
-111,58,169,26,-140,113,96,175,36,431,60,272
-70,127,197,-29,-134,162,124,207,74,466,95,288
-41,96,136,-28,-89,116,153,543,311,644,169,311
331,549,219,-440,56,384,-95,201,385,1175,835,902
658,601,-57,-630,357,272,-692,-1238,-356,1146,1065,1124
428,-113,-541,-157,485,-327,-774,-1298,-836,171,47,229
88,-141,-229,26,159,-185,-288,-360,-454,-9,-219,1
-31,18,49,7,-40,34,17,107,-43,346,1,167
-69,21,90,24,-80,55,59,180,20,340,-50,112
-80,60,140,10,-111,100,76,145,13,351,-5,139
-66,37,103,14,-84,70,75,170,35,340,-28,104
-69,61,130,4,-100,95,77,157,36,338,-7,112
-100,51,151,24,-126,101,94,174,50,337,-12,95
-94,62,156,16,-125,109,98,174,55,328,-17,89
-81,64,144,8,-113,104,103,182,60,327,-12,82
-74,63,138,5,-106,100,103,186,67,314,-21,68
-64,68,132,-2,-98,100,110,198,87,313,-18,62
-60,62,122,-1,-92,92,108,209,100,302,-21,27
-52,69,121,-8,-87,94,112,212,107,302,-35,-1
-102,36,137,33,-120,86,134,250,129,308,-48,-14
-117,21,138,48,-127,79,108,263,135,317,-37,-22
-107,15,123,46,-115,69,92,262,120,324,-37,-21
-129,-17,112,73,-120,47,104,266,142,327,-28,-14
-74,33,107,20,-90,70,106,274,179,332,-7,-11
-46,52,98,-3,-72,75,109,288,197,342,3,-6
-46,68,115,-11,-80,91,104,312,222,358,23,-2
-26,129,155,-52,-91,142,102,330,243,378,49,3
-11,141,153,-65,-82,147,99,320,261,398,68,7
8,152,144,-80,-69,148,96,311,263,402,80,13
4,149,145,-77,-70,147,95,306,253,393,95,16
-2,132,134,-65,-69,133,90,292,248,388,109,22
11,149,138,-80,-64,143,90,256,237,374,100,25
17,159,142,-88,-63,150,89,214,216,350,94,9
13,128,115,-71,-51,122,84,177,174,310,84,-16
4,103,99,-54,-47,101,86,145,142,272,62,-37
-23,71,95,-24,-59,83,81,111,122,248,44,-59
-29,55,84,-13,-56,69,67,73,104,227,26,-81
-29,49,78,-10,-54,64,53,37,87,215,13,-102
-32,36,68,-2,-51,52,40,11,76,209,7,-111
-27,30,57,-2,-42,43,30,-3,71,202,2,-121
-21,26,46,-3,-34,36,17,-17,68,196,-1,-146
-13,20,33,-4,-23,26,12,-4,61,188,-6,-151
-10,27,37,-9,-23,32,23,20,62,186,-10,-149
-4,58,62,-27,-33,60,32,43,99,191,-3,-151
2,61,59,-31,-28,60,47,57,117,196,6,-149
0,59,60,-30,-30,59,66,69,117,198,14,-152
-23,61,84,-19,-54,73,77,90,137,208,23,-155
-40,58,98,-9,-69,78,86,90,153,217,25,-155
-55,62,117,-4,-86,90,93,90,147,213,25,-155
-66,50,116,8,-91,83,90,90,148,211,29,-155
-56,50,106,3,-81,78,82,90,171,208,30,-154
-70,32,102,19,-86,67,76,89,168,205,30,-163
-37,56,93,-9,-66,74,69,75,156,203,23,-180
7,96,89,-51,-41,92,64,63,150,189,15,-188
-16,47,62,-16,-39,54,54,43,118,173,10,-195
-10,30,40,-10,-25,35,25,18,96,158,0,-213
-6,31,37,-13,-22,34,8,6,93,147,-5,-230
-13,17,30,-2,-22,24,5,2,89,135,-14,-238
-11,17,29,-3,-20,23,-2,-6,86,125,-20,-246
-15,7,21,4,-18,14,-7,-13,81,115,-27,-267
-14,7,21,3,-18,14,-13,-17,79,105,-36,-280
-24,3,26,10,-25,14,-13,-21,74,99,-40,-289
-28,-3,25,16,-26,10,9,-9,74,86,-53,-302
-36,-1,34,19,-34,16,20,-22,68,82,-44,-297
-35,-7,28,20,-31,10,27,-2,68,69,-57,-312
-24,18,42,3,-33,30,31,-17,64,69,-43,-301
-16,13,28,1,-22,20,36,-6,60,55,-56,-322
16,56,40,-37,-13,48,46,-19,60,52,-46,-309
-16,16,33,-1,-25,25,36,-41,44,45,-47,-333
-47,-15,32,31,-40,8,58,13,70,33,-91,-337
-35,12,46,11,-41,28,96,118,166,121,-30,-294
123,131,8,-127,57,69,94,496,484,421,204,-157
579,635,56,-607,262,345,-325,-358,336,953,931,513
720,290,-429,-505,575,-69,-925,-1655,-498,535,677,288
375,-308,-683,-34,529,-495,-752,-1155,-697,-389,-296,-544
86,-106,-191,10,139,-148,-191,-286,-220,-227,-210,-477
-30,-63,-33,47,2,-48,-2,-17,37,33,-83,-423
-38,-58,-19,48,-9,-38,9,6,59,-21,-123,-447
-22,-29,-7,26,-8,-17,27,6,72,3,-89,-425
-23,-39,-16,31,-3,-27,34,27,70,-26,-119,-452
-76,-72,4,75,-40,-34,46,19,69,-19,-94,-430
-104,-110,-6,107,-48,-58,54,38,71,-34,-110,-444
-64,-54,10,58,-36,-22,61,35,68,-35,-95,-429
-54,-52,2,52,-28,-25,73,46,77,-34,-102,-438
-53,-45,8,49,-30,-18,85,53,89,-37,-100,-434
-52,-41,10,46,-31,-15,95,61,101,-33,-98,-434
-50,-42,8,46,-29,-17,105,76,108,-36,-103,-437
-47,-30,18,38,-32,-6,107,98,114,-37,-89,-440
-77,-46,31,61,-54,-7,102,113,117,-41,-103,-447
-98,-69,28,83,-63,-20,99,117,123,-40,-121,-448
-90,-68,22,79,-56,-23,90,112,128,-45,-120,-447
-79,-60,19,69,-49,-20,80,123,147,-46,-116,-438
-61,-48,13,54,-37,-17,70,144,188,-44,-116,-433
-43,-33,10,38,-26,-11,61,152,210,-40,-109,-426
-28,-22,6,24,-16,-8,55,172,214,-40,-70,-419
-16,-14,2,15,-8,-6,47,176,212,-37,-42,-412
5,4,-1,-4,3,1,41,167,206,-35,-31,-406
36,30,-6,-32,20,12,33,165,202,-35,-17,-399
72,63,-9,-67,40,27,31,152,198,-38,-14,-392
73,61,-12,-67,42,24,35,122,192,-44,-11,-385
65,50,-15,-57,40,17,34,85,169,-41,-7,-389
54,39,-15,-46,34,12,38,45,135,-70,-5,-395
25,10,-15,-17,20,-2,40,6,103,-117,-12,-400
22,8,-15,-15,18,-3,40,-18,84,-134,-24,-407
17,2,-15,-9,16,-6,36,-37,67,-145,-30,-409
35,10,-24,-22,29,-7,27,-52,56,-169,-54,-421
20,-16,-35,-2,28,-25,19,-65,54,-182,-72,-426
-23,-71,-48,47,13,-59,11,-66,51,-180,-69,-424
-39,-92,-53,65,7,-72,4,-59,48,-178,-70,-423
-36,-84,-47,60,6,-65,-3,-56,44,-175,-70,-419
-36,-79,-42,58,3,-60,-7,-51,47,-175,-70,-420
-42,-81,-39,61,-1,-60,-15,-47,47,-175,-67,-423
33,0,-33,-16,33,-17,-4,-41,77,-175,-61,-427
55,24,-31,-39,42,-3,23,-30,103,-175,-57,-431
6,-29,-35,11,21,-32,31,-17,101,-175,-52,-433
40,-2,-42,-19,41,-22,37,-15,106,-175,-47,-439
25,-22,-47,-1,36,-34,37,-15,109,-176,-46,-438
9,-40,-49,16,29,-44,48,-15,110,-181,-51,-435
77,37,-40,-57,58,-2,60,-16,107,-186,-54,-433
77,43,-35,-60,55,4,44,-13,104,-188,-57,-428
31,-31,-62,1,46,-47,32,-26,101,-199,-62,-441
-5,-81,-76,43,36,-79,24,-29,98,-226,-65,-455
7,-59,-66,26,37,-62,16,-42,65,-240,-69,-462
15,-48,-63,17,39,-55,8,-79,34,-253,-76,-469
5,-52,-57,24,31,-54,0,-96,30,-265,-89,-471
4,-46,-49,21,27,-47,-5,-101,22,-267,-92,-474
17,-48,-65,15,42,-56,-5,-100,16,-274,-89,-477
37,-39,-77,2,58,-58,-6,-100,9,-272,-90,-479
8,-62,-69,27,39,-65,-10,-100,5,-287,-90,-481
34,-35,-69,1,52,-51,-10,-99,5,-302,-90,-488
10,-53,-62,22,36,-57,-7,-95,5,-299,-89,-497
-42,-104,-61,73,10,-82,2,-88,5,-300,-84,-504
-30,-84,-54,58,12,-69,13,-84,5,-300,-86,-505
-9,-71,-62,40,27,-66,22,-78,5,-300,-82,-505
19,-66,-86,24,53,-76,34,-72,8,-300,-80,-510
30,-54,-85,13,58,-69,37,-72,14,-300,-81,-510
62,-24,-86,-19,74,-54,29,-75,17,-300,-79,-511
17,-73,-90,28,54,-81,23,-78,23,-300,-108,-515
-21,-111,-90,65,35,-100,15,-81,24,-300,-123,-519
-2,-93,-91,48,45,-92,7,-84,15,-301,-118,-522
-9,-108,-98,59,45,-103,1,-86,4,-313,-124,-526
-7,-103,-96,55,45,-99,-5,-90,-3,-327,-125,-531
2,-104,-105,51,54,-104,-10,-105,-8,-339,-123,-525
18,-104,-122,43,70,-112,-14,-102,-10,-346,-122,-526
16,-93,-109,39,62,-101,-19,-109,-15,-343,-112,-522
-10,-121,-111,66,51,-116,-24,-105,-18,-346,-113,-522
-12,-109,-97,61,43,-102,-24,-113,-19,-344,-104,-518
6,-95,-101,45,54,-98,-17,-109,-13,-346,-103,-520
25,-60,-85,18,55,-72,-14,-100,-5,-341,-98,-515
35,-58,-93,12,65,-75,-9,-104,-7,-329,-89,-511
8,-112,-120,52,64,-115,-3,-74,10,-328,-96,-522
-16,-100,-83,58,34,-91,12,-102,0,-308,-70,-502
4,-100,-104,48,54,-102,58,-5,29,-322,-102,-521
29,-37,-67,4,48,-51,94,5,64,-291,-84,-498
84,-28,-111,-28,97,-69,175,356,291,-123,-13,-469
420,358,-61,-389,240,148,-35,125,393,342,568,61
767,430,-336,-598,551,47,-699,-1382,-334,336,833,329
598,-245,-843,-177,721,-544,-860,-1533,-847,-551,-94,-495
191,-316,-508,63,349,-412,-336,-563,-467,-749,-398,-751
42,-142,-184,51,113,-163,-33,-110,-75,-420,-172,-572
31,-134,-165,52,98,-149,-25,-41,-20,-426,-215,-615
-55,-164,-110,110,28,-137,-7,-87,-29,-411,-174,-575
-59,-185,-125,122,33,-155,15,-29,-16,-412,-188,-593
-49,-145,-96,97,24,-120,41,-16,-17,-409,-171,-574
-65,-170,-105,117,20,-137,46,-9,-9,-401,-168,-574
-61,-154,-94,108,17,-124,48,-1,-5,-404,-167,-571
-72,-162,-91,117,10,-126,51,0,9,-391,-160,-565
-60,-148,-88,105,14,-118,64,11,20,-393,-162,-566
-65,-147,-82,107,9,-114,89,24,29,-384,-155,-560
-44,-132,-88,89,22,-110,91,44,40,-383,-154,-559
-52,-135,-83,94,16,-109,98,53,44,-376,-161,-568
-79,-165,-86,122,4,-125,123,94,78,-369,-184,-591
-51,-136,-85,94,17,-110,134,125,106,-361,-174,-582
-48,-131,-83,90,18,-107,123,148,107,-352,-165,-575
-43,-141,-99,92,28,-120,118,163,113,-346,-158,-569
-25,-134,-109,80,42,-121,107,154,115,-337,-147,-562
-21,-150,-128,86,53,-139,87,154,120,-328,-141,-558
-19,-165,-146,93,64,-155,60,148,124,-317,-131,-547
5,-129,-134,62,70,-131,40,146,127,-309,-119,-538
46,-84,-130,20,88,-107,40,140,130,-310,-105,-523
78,-45,-122,-16,100,-83,39,130,132,-309,-91,-510
53,-63,-116,5,85,-89,36,122,136,-310,-79,-494
32,-80,-111,24,72,-96,35,113,130,-310,-52,-465
44,-65,-109,11,76,-87,36,103,120,-310,-28,-458
28,-77,-106,25,68,-92,42,75,110,-315,-35,-460
29,-74,-103,23,67,-89,49,42,99,-317,-39,-460
18,-82,-100,32,59,-91,54,18,78,-325,-52,-466
21,-79,-100,29,61,-90,57,4,57,-333,-68,-463
19,-88,-107,35,64,-97,61,-4,41,-355,-78,-469
14,-87,-101,37,58,-94,64,-15,25,-370,-85,-468
35,-86,-121,26,78,-103,69,-24,19,-372,-97,-473
16,-112,-129,48,73,-120,69,-31,16,-394,-119,-497
9,-132,-141,62,75,-137,61,-38,12,-393,-121,-496
16,-156,-171,70,94,-163,54,-44,9,-388,-119,-489
17,-145,-162,64,90,-153,47,-52,5,-386,-116,-485
5,-151,-156,73,81,-153,39,-54,2,-380,-114,-478
18,-132,-150,57,84,-140,32,-49,0,-379,-114,-474
42,-100,-142,29,92,-121,33,-46,0,-374,-109,-469
18,-121,-139,51,79,-129,38,-43,1,-371,-106,-466
23,-111,-134,45,79,-123,42,-38,12,-367,-102,-462
15,-117,-132,51,74,-124,50,-35,41,-363,-98,-458
13,-114,-126,51,70,-120,50,-38,51,-360,-95,-455
11,-114,-126,52,69,-120,50,-43,42,-364,-99,-458
12,-116,-129,52,71,-122,50,-45,41,-370,-105,-463
53,-80,-133,14,93,-106,50,-50,34,-375,-110,-465
-1,-134,-132,68,66,-133,50,-53,32,-381,-117,-469
6,-145,-151,70,79,-148,34,-57,19,-385,-120,-473
56,-111,-167,28,112,-138,23,-64,-8,-389,-122,-476
28,-132,-160,52,94,-145,6,-72,-17,-392,-125,-480
13,-145,-158,67,86,-151,-7,-79,-21,-396,-128,-480
6,-148,-153,72,80,-150,25,-82,-26,-400,-130,-479
13,-136,-150,61,82,-143,44,-85,-30,-403,-133,-480
-17,-164,-147,91,65,-155,35,-88,-35,-407,-138,-479
-30,-172,-142,101,56,-157,32,-91,-38,-410,-140,-477
-16,-155,-139,85,62,-147,27,-96,-41,-414,-144,-472
-2,-138,-136,71,67,-137,22,-99,-39,-418,-148,-469
14,-116,-130,51,72,-123,21,-102,-41,-421,-151,-466
9,-122,-131,57,70,-127,26,-107,-39,-425,-156,-460
9,-126,-135,59,72,-131,29,-110,-44,-429,-160,-459
1,-134,-135,67,68,-135,32,-113,-63,-432,-165,-452
-1,-136,-135,69,67,-136,37,-118,-66,-437,-170,-466
2,-133,-134,66,68,-133,40,-121,-68,-439,-173,-490
-2,-138,-137,70,68,-137,37,-124,-72,-444,-178,-490
-2,-130,-128,66,64,-129,33,-129,-74,-445,-181,-490
-9,-150,-141,80,66,-145,30,-131,-77,-445,-184,-490
-24,-187,-163,105,70,-174,27,-136,-79,-450,-189,-490
-25,-184,-159,105,67,-171,23,-139,-83,-449,-190,-488
-26,-186,-160,106,68,-172,13,-142,-85,-451,-190,-482
-16,-176,-160,96,72,-168,1,-147,-89,-455,-190,-477
29,-131,-160,51,95,-145,-10,-148,-90,-457,-190,-473
56,-100,-156,23,107,-128,-12,-161,-94,-460,-190,-468
37,-112,-149,38,93,-131,-7,-170,-96,-463,-190,-465
1,-144,-145,72,74,-144,-5,-160,-94,-465,-186,-470
-25,-164,-139,95,57,-152,0,-154,-111,-461,-185,-470
-18,-150,-133,84,58,-141,4,-147,-114,-456,-184,-471
-3,-134,-131,69,65,-133,7,-140,-106,-451,-181,-475
5,-130,-134,63,70,-132,10,-143,-104,-447,-179,-475
-8,-145,-138,77,65,-141,9,-146,-98,-441,-181,-472
-23,-164,-140,93,59,-152,13,-144,-95,-441,-185,-468
-13,-155,-143,84,65,-149,15,-147,-100,-444,-184,-461
-10,-157,-147,84,69,-152,15,-142,-99,-446,-187,-461
-10,-149,-139,80,65,-144,11,-148,-101,-443,-183,-450
-16,-153,-137,84,61,-144,8,-141,-99,-447,-188,-453
-16,-143,-127,80,56,-135,4,-148,-100,-443,-179,-447
-19,-145,-127,82,54,-136,1,-144,-99,-443,-180,-452
-20,-137,-117,79,48,-127,-4,-142,-91,-439,-177,-450
-20,-135,-115,78,48,-125,-6,-154,-94,-439,-169,-446
-11,-135,-124,73,57,-129,3,-153,-81,-464,-179,-458
-9,-121,-112,65,52,-116,-6,-179,-89,-444,-154,-435
-25,-158,-132,92,54,-145,24,-110,-72,-457,-187,-475
7,-94,-102,43,55,-98,64,-97,-28,-412,-146,-434
75,-68,-143,-3,109,-106,113,279,204,-222,-59,-383
432,313,-118,-372,275,97,-110,-52,254,214,499,119
803,355,-448,-579,625,-46,-765,-1541,-488,156,726,363
564,-361,-925,-101,744,-643,-913,-1619,-962,-710,-207,-462
189,-368,-557,90,373,-462,-362,-628,-542,-846,-457,-674
51,-164,-215,56,134,-189,-45,-148,-128,-508,-176,-471
-19,-199,-179,109,80,-189,-18,-82,-76,-515,-215,-520
-38,-163,-125,101,44,-144,4,-107,-86,-496,-188,-478
-40,-182,-142,111,51,-162,6,-80,-74,-497,-212,-501
-46,-161,-115,104,35,-138,15,-91,-76,-490,-206,-480
-52,-170,-118,111,33,-144,20,-78,-69,-483,-214,-487
-59,-167,-108,113,25,-138,29,-76,-67,-483,-220,-491
-67,-177,-110,122,22,-143,25,-67,-59,-477,-220,-487
-34,-143,-109,89,38,-126,42,-58,-55,-481,-228,-495
-36,-139,-102,88,33,-120,71,-52,-49,-472,-222,-493
-58,-166,-107,112,25,-136,68,-43,-43,-477,-231,-497
-43,-146,-103,95,31,-124,77,-30,-39,-471,-229,-490
-43,-149,-105,96,31,-127,77,-4,-27,-464,-230,-489
-16,-139,-122,78,53,-130,102,35,-9,-456,-223,-486
-3,-135,-132,69,65,-133,142,86,13,-447,-215,-483
-1,-130,-129,66,64,-129,139,97,33,-441,-207,-480
8,-122,-130,57,70,-126,129,94,49,-433,-199,-478
9,-120,-130,56,70,-125,122,100,53,-425,-191,-450
19,-111,-130,46,74,-120,102,101,58,-417,-177,-424
21,-109,-130,44,76,-119,75,100,63,-409,-163,-415
32,-98,-130,33,81,-114,48,101,66,-402,-149,-404
52,-77,-130,13,91,-103,33,99,76,-399,-134,-395
57,-74,-130,9,94,-101,29,102,77,-400,-125,-378
53,-77,-130,12,92,-103,24,91,73,-396,-125,-364
53,-80,-132,14,92,-106,18,46,67,-395,-125,-366
53,-82,-135,15,94,-109,13,6,37,-394,-124,-363
50,-85,-135,18,93,-110,7,-37,-5,-402,-125,-361
50,-89,-139,20,95,-113,5,-70,-27,-425,-124,-359
42,-99,-141,28,91,-119,5,-111,-48,-455,-137,-361
6,-133,-139,64,73,-136,5,-158,-86,-490,-162,-389
-8,-144,-136,76,64,-139,5,-157,-90,-495,-166,-393
-2,-133,-131,68,65,-132,5,-151,-84,-488,-161,-382
2,-127,-129,63,66,-128,9,-146,-83,-487,-160,-379
2,-122,-124,61,63,-123,14,-139,-76,-481,-155,-369
8,-112,-121,52,65,-116,16,-136,-75,-479,-156,-366
-1,-118,-118,60,59,-118,21,-129,-70,-475,-159,-363
-8,-122,-114,65,53,-118,24,-124,-65,-469,-162,-360
25,-91,-116,33,71,-103,28,-119,-61,-465,-164,-357
26,-85,-111,30,69,-98,30,-113,-56,-461,-167,-355
13,-97,-110,42,62,-103,30,-107,-52,-456,-170,-353
0,-110,-110,55,55,-110,30,-107,-47,-452,-167,-349
-14,-118,-104,66,46,-111,30,-111,-45,-449,-164,-350
-5,-106,-102,56,49,-104,29,-109,-45,-450,-162,-350
-5,-98,-93,52,44,-95,26,-110,-45,-449,-159,-350
-29,-143,-114,87,42,-128,23,-110,-45,-450,-156,-349
-10,-141,-131,76,61,-136,20,-110,-46,-449,-155,-345
18,-103,-121,43,69,-112,18,-115,-49,-445,-155,-340
-13,-131,-118,72,53,-124,14,-119,-52,-445,-155,-335
-48,-159,-111,104,32,-134,18,-124,-56,-443,-155,-331
-48,-154,-106,101,30,-130,20,-127,-59,-441,-155,-325
-52,-153,-101,103,25,-127,20,-141,-62,-437,-155,-327
-66,-162,-96,114,15,-128,24,-157,-67,-448,-153,-330
-13,-104,-92,59,40,-98,26,-159,-70,-466,-149,-329
-33,-121,-87,77,27,-104,24,-162,-73,-464,-147,-333
-61,-143,-82,102,11,-112,21,-167,-78,-464,-144,-335
-22,-102,-79,62,29,-90,18,-170,-80,-465,-140,-334
-36,-117,-81,77,22,-98,15,-173,-80,-464,-140,-330
-37,-116,-79,77,21,-98,12,-176,-79,-467,-146,-330
-42,-122,-81,82,20,-101,10,-180,-81,-471,-156,-329
-47,-127,-79,87,17,-102,8,-183,-77,-475,-158,-324
-43,-123,-81,83,19,-101,5,-187,-97,-478,-154,-325
-44,-127,-83,86,20,-105,2,-190,-117,-482,-155,-323
-37,-123,-86,81,25,-105,-1,-194,-116,-485,-155,-317
-42,-126,-84,84,22,-105,-5,-197,-121,-489,-155,-312
-40,-124,-84,82,23,-104,-5,-202,-123,-490,-154,-308
-8,-122,-114,65,54,-118,0,-205,-125,-491,-151,-304
4,-119,-123,58,63,-120,5,-201,-121,-495,-148,-299
-7,-116,-109,62,51,-112,9,-199,-119,-495,-145,-295
-9,-113,-104,62,48,-109,14,-200,-121,-492,-142,-295
-15,-110,-95,62,40,-102,19,-199,-119,-489,-140,-295
-21,-109,-88,66,33,-98,20,-200,-121,-490,-138,-295
-23,-100,-77,62,28,-88,20,-198,-118,-489,-131,-295
-27,-94,-67,61,20,-80,20,-195,-115,-490,-126,-293
-15,-77,-62,47,24,-70,20,-195,-115,-489,-121,-288
17,-50,-67,17,42,-58,20,-195,-115,-486,-114,-285
20,-50,-70,15,45,-60,20,-195,-115,-483,-111,-282
25,-48,-73,12,49,-60,13,-195,-115,-480,-114,-277
11,-67,-78,28,44,-72,6,-198,-118,-477,-119,-275
-15,-95,-80,55,33,-88,-1,-200,-120,-474,-121,-279
-2,-86,-85,44,42,-85,-9,-200,-120,-475,-125,-280
-13,-98,-85,56,36,-91,-16,-200,-120,-475,-130,-280
-5,-91,-86,49,41,-89,-23,-200,-120,-475,-128,-280
-11,-101,-90,56,40,-95,-25,-198,-118,-474,-124,-279
-37,-128,-90,82,27,-109,-25,-195,-115,-475,-125,-282
8,-80,-88,36,48,-83,-25,-192,-112,-474,-125,-285
-4,-85,-81,45,38,-83,-25,-190,-110,-471,-125,-285
-35,-109,-74,72,20,-91,-24,-186,-106,-468,-124,-285
-35,-103,-68,69,17,-85,-21,-184,-105,-465,-120,-285
-42,-102,-60,72,9,-81,-18,-185,-105,-462,-116,-285
-34,-90,-56,62,11,-72,-15,-185,-105,-459,-113,-280
-34,-87,-53,61,10,-70,-13,-185,-105,-462,-110,-276
-21,-72,-50,47,15,-61,-9,-185,-105,-465,-105,-273
-28,-75,-47,52,10,-61,-13,-185,-104,-468,-107,-269
3,-43,-45,21,24,-44,-15,-185,-107,-471,-110,-266
-17,-59,-42,38,13,-50,-15,-184,-110,-474,-110,-262
-53,-93,-40,73,-6,-67,-15,-186,-110,-475,-110,-259
-13,-52,-39,32,13,-45,-15,-183,-112,-470,-110,-253
-37,-78,-41,57,3,-59,-15,-189,-115,-470,-110,-266
-60,-98,-38,79,-11,-68,-11,-204,-115,-470,-105,-286
-51,-94,-44,73,-3,-69,-6,-195,-113,-470,-105,-281
-28,-96,-68,62,20,-82,-4,-187,-130,-470,-104,-278
-14,-83,-69,49,28,-76,0,-179,-140,-467,-100,-275
-17,-80,-63,49,23,-71,5,-176,-131,-464,-100,-269
-12,-73,-62,43,25,-67,3,-183,-128,-462,-98,-273
-5,-60,-56,33,26,-58,-2,-183,-121,-459,-92,-275
-33,-87,-54,60,11,-70,-5,-196,-116,-456,-88,-275
-61,-110,-49,86,-6,-79,-8,-207,-118,-454,-83,-275
-47,-91,-44,69,-1,-67,-13,-202,-120,-451,-79,-275
-32,-71,-40,51,4,-55,-15,-200,-120,-448,-74,-275
-5,-39,-35,22,15,-37,-10,-196,-120,-446,-71,-270
3,-27,-31,12,17,-29,-9,-194,-119,-442,-70,-270
-4,-33,-29,18,12,-31,-10,-195,-121,-440,-70,-268
5,-26,-31,10,18,-28,-9,-194,-125,-437,-70,-265
-19,-47,-29,33,5,-38,-11,-196,-125,-434,-69,-264
-41,-72,-31,57,-5,-52,-7,-194,-127,-435,-73,-268
-39,-68,-29,53,-5,-48,-4,-195,-130,-431,-75,-270
-50,-80,-30,65,-10,-55,0,-194,-131,-430,-75,-270
-8,-57,-49,33,21,-53,4,-187,-125,-430,-76,-270
21,-30,-50,5,36,-40,7,-187,-124,-424,-73,-268
-1,-42,-42,22,21,-42,11,-174,-117,-426,-78,-272
-8,-38,-30,24,11,-34,2,-182,-118,-423,-76,-266
-21,-51,-30,36,5,-40,1,-163,-109,-426,-84,-275
-38,-52,-14,46,-12,-33,-9,-174,-109,-423,-75,-264
-52,-70,-18,62,-17,-44,-10,-154,-106,-424,-84,-275
-37,-38,-1,38,-18,-19,-20,-156,-101,-415,-78,-266
-36,-37,-2,36,-17,-19,-14,-154,-114,-410,-75,-268
-86,-80,6,83,-45,-37,27,-122,-91,-405,-64,-256
-68,-53,14,61,-41,-19,44,-40,-16,-323,-7,-212
192,133,-59,-162,125,37,40,284,269,-47,206,-53
630,540,-90,-584,360,224,-385,-604,39,318,825,536
760,189,-572,-474,666,-191,-931,-1811,-801,-138,546,314
392,-368,-761,-12,577,-564,-746,-1310,-913,-875,-328,-463
84,-182,-266,49,175,-224,-232,-460,-412,-693,-225,-380
20,-88,-108,34,65,-98,-30,-140,-130,-440,-72,-268
-37,-100,-63,69,14,-82,3,-108,-109,-448,-112,-293
-65,-90,-25,77,-19,-57,34,-103,-102,-420,-81,-264
-78,-100,-22,89,-28,-60,49,-75,-85,-436,-106,-281
-100,-92,8,96,-54,-42,74,-80,-87,-426,-87,-258
-86,-88,-2,86,-42,-44,85,-58,-76,-432,-100,-268
-53,-41,12,47,-33,-14,103,-60,-74,-430,-92,-256
-56,-49,7,52,-31,-21,114,-45,-67,-425,-96,-262
-86,-71,15,78,-50,-28,99,-42,-62,-420,-95,-260
-85,-70,15,77,-50,-27,94,-32,-54,-411,-94,-259
-62,-47,14,54,-38,-16,82,-23,-46,-407,-96,-261
-71,-55,16,63,-44,-19,76,-12,-38,-398,-89,-254
-90,-76,14,83,-52,-31,75,7,-31,-394,-86,-256
-90,-74,16,81,-52,-29,75,22,-23,-385,-80,-253
-90,-76,14,82,-51,-31,75,45,-13,-377,-76,-250
-91,-74,17,82,-53,-29,74,67,-2,-368,-72,-251
-96,-76,20,86,-58,-27,77,91,17,-360,-66,-247
-92,-72,20,82,-56,-26,81,114,38,-350,-55,-235
-86,-64,23,75,-54,-20,85,135,52,-340,-42,-223
-82,-56,26,68,-53,-15,87,143,56,-330,-30,-209
-71,-46,25,58,-47,-10,92,136,63,-320,-19,-195
-55,-33,22,44,-38,-5,95,136,63,-309,-6,-181
-35,-19,16,27,-25,-2,91,130,56,-307,10,-169
-2,10,12,-4,-7,10,80,132,51,-312,29,-145
48,56,7,-52,20,31,70,116,45,-313,38,-128
73,76,3,-75,35,39,59,75,40,-318,31,-133
57,56,-2,-56,29,27,45,14,19,-317,26,-140
59,51,-9,-55,34,20,27,-61,-16,-330,21,-144
60,44,-16,-51,38,14,16,-84,-40,-353,15,-141
25,2,-23,-13,24,-10,15,-99,-65,-363,10,-139
-5,-36,-31,21,13,-33,15,-126,-86,-371,5,-140
-24,-62,-38,43,8,-49,15,-122,-84,-370,0,-139
-31,-68,-36,50,3,-52,15,-117,-80,-368,-5,-140
-33,-63,-30,48,-1,-46,16,-114,-77,-365,-9,-137
-36,-61,-25,49,-5,-43,21,-108,-72,-365,-14,-134
-41,-60,-19,51,-11,-39,27,-105,-69,-363,-13,-132
-44,-58,-14,51,-15,-35,30,-96,-66,-355,-7,-129
-44,-53,-9,49,-17,-31,36,-84,-63,-349,-2,-126
-34,-38,-4,36,-15,-21,38,-72,-60,-342,1,-124
-41,-40,1,40,-21,-19,48,-65,-57,-336,7,-121
-13,-7,5,10,-9,-1,69,-55,-55,-329,9,-118
-7,3,10,2,-8,6,67,-49,-57,-326,6,-116
-71,-56,15,63,-43,-20,53,-39,-62,-323,3,-112
-71,-60,11,65,-41,-24,47,-38,-65,-320,12,-110
-50,-49,1,49,-25,-24,25,-63,-68,-317,27,-107
-47,-52,-5,50,-21,-29,-6,-81,-73,-314,25,-105
-53,-68,-15,61,-19,-41,-18,-100,-76,-317,21,-105
-19,-37,-19,28,0,-28,-20,-107,-79,-320,19,-105
-15,-26,-11,21,-2,-18,-25,-104,-80,-323,16,-105
-51,-54,-3,53,-24,-29,-30,-106,-81,-326,14,-105
24,29,5,-27,9,17,-26,-105,-86,-329,11,-105
49,61,12,-55,18,36,-20,-105,-85,-331,8,-105
2,19,16,-11,-7,17,-14,-100,-83,-334,6,-105
10,23,13,-17,-1,17,-9,-97,-79,-339,2,-105
-5,16,21,-6,-13,18,-3,-93,-82,-341,0,-105
-7,26,33,-10,-20,30,0,-89,-106,-345,-2,-102
9,32,23,-20,-7,27,0,-85,-117,-349,-11,-99
-21,-11,10,16,-15,-1,0,-87,-120,-352,-19,-93
-54,-51,3,52,-28,-24,0,-92,-127,-355,-27,-114
-52,-48,4,49,-28,-22,0,-88,-128,-355,-35,-133
-3,4,6,-1,-4,5,-4,-96,-133,-358,-39,-127
-14,-9,5,11,-9,-1,-6,-93,-136,-361,-51,-135
-53,-40,13,46,-32,-13,-10,-96,-139,-358,-54,-133
-36,-28,7,32,-21,-10,-11,-90,-145,-357,-60,-137
-61,-49,12,55,-36,-18,-16,-88,-143,-354,-53,-130
-65,-56,9,60,-37,-23,-14,-95,-148,-354,-55,-129
-24,-15,9,20,-16,-3,-8,-81,-145,-350,-57,-133
-38,-24,14,31,-26,-5,-5,-104,-155,-348,-49,-119
-53,-51,2,52,-27,-24,3,-70,-144,-351,-65,-135
-48,-25,23,36,-35,-1,0,-100,-146,-338,-33,-110
-50,-49,1,49,-25,-24,16,-47,-135,-353,-56,-143
-60,-2,59,31,-59,28,9,-35,-99,-302,0,-113
-22,-26,-4,24,-9,-15,74,212,52,-187,16,-105
335,324,-10,-330,172,157,-16,315,302,251,458,301
761,568,-193,-664,477,187,-598,-1014,-260,382,884,717
624,-142,-765,-241,695,-453,-908,-1659,-1022,-512,36,-26
227,-299,-525,36,376,-412,-472,-744,-728,-816,-389,-396
42,-51,-93,5,67,-72,-69,-118,-246,-415,-111,-149
-32,-82,-51,57,10,-66,-18,-11,-143,-352,-115,-174
-61,-38,23,50,-42,-8,-2,-29,-116,-323,-74,-140
-71,-57,13,64,-42,-22,5,-8,-111,-319,-87,-152
-79,-36,43,57,-60,4,6,-5,-104,-314,-78,-138
-79,-36,43,57,-60,4,14,1,-101,-304,-72,-134
-63,-18,46,40,-54,14,15,11,-91,-300,-75,-143
-14,38,52,-12,-33,45,24,12,-98,-300,-63,-136
-13,36,49,-12,-31,42,28,21,-115,-328,-67,-144
-52,7,59,22,-55,33,37,24,-107,-315,-81,-137
-78,-28,50,52,-63,11,41,30,-100,-312,-98,-145
-112,-61,51,86,-82,-5,50,41,-95,-303,-85,-150
-88,-39,49,64,-69,5,48,74,-83,-297,-84,-159
-67,-20,47,43,-56,13,57,104,-56,-291,-76,-155
-73,-29,44,51,-59,8,80,148,-31,-276,-71,-150
-66,-20,45,42,-55,13,84,171,-17,-263,-66,-146
-92,-42,50,67,-71,4,82,198,-1,-254,-59,-142
-81,-31,50,56,-65,9,74,242,12,-244,-53,-134
-55,-3,51,29,-53,24,68,241,21,-214,-46,-112
-49,6,55,21,-53,31,61,232,28,-199,-39,-97
-11,44,55,-17,-33,49,52,227,34,-197,-25,-90
5,58,53,-32,-24,55,46,217,42,-193,-11,-82
30,79,50,-54,-10,64,38,215,41,-190,-1,-73
56,103,47,-80,5,75,31,199,26,-185,3,-72
41,85,44,-63,-2,64,24,157,14,-187,8,-75
31,71,41,-51,-5,56,16,106,-19,-193,9,-76
14,54,39,-34,-13,46,8,62,-57,-218,-5,-80
8,44,35,-26,-14,39,7,32,-78,-249,-18,-80
-10,19,30,-5,-20,24,10,19,-99,-274,-33,-91
-41,-15,26,28,-33,5,13,12,-112,-285,-51,-109
-26,-5,21,16,-23,8,16,6,-121,-288,-57,-112
-34,-18,16,26,-25,-1,19,-1,-123,-295,-55,-110
-75,-62,12,68,-43,-25,20,-8,-118,-289,-55,-110
-73,-66,8,69,-40,-28,15,-8,-115,-283,-55,-106
-44,-42,2,43,-23,-20,15,-3,-112,-279,-55,-105
-55,-56,-1,56,-27,-29,14,0,-107,-272,-55,-105
-33,-40,-6,37,-13,-23,10,3,-104,-268,-51,-99
1,-10,-10,4,6,-9,10,8,-100,-262,-45,-92
-27,-20,6,23,-16,-7,12,10,-92,-252,-40,-86
-36,-9,27,22,-31,9,17,17,-86,-242,-34,-79
-58,-25,33,41,-45,4,20,24,-79,-232,-28,-72
-21,19,39,1,-30,29,23,35,-72,-225,-26,-72
28,73,45,-51,-8,58,28,46,-72,-225,-31,-75
-1,39,39,-19,-20,39,30,38,-77,-225,-35,-79
-37,-5,32,20,-35,14,25,29,-82,-225,-40,-80
-16,10,26,3,-21,17,25,20,-85,-225,-45,-86
8,27,19,-18,-6,23,25,11,-92,-227,-48,-83
-43,-31,13,37,-28,-9,25,3,-99,-238,-53,-93
-7,1,7,3,-7,4,26,-7,-106,-245,-55,-115
-28,-24,3,25,-16,-10,22,-15,-123,-249,-60,-117
-72,-72,0,72,-35,-36,20,-26,-126,-254,-63,-119
-45,-48,-3,47,-20,-25,20,-28,-124,-252,-69,-123
-79,-87,-8,83,-35,-47,16,-24,-126,-249,-76,-125
-41,-51,-10,46,-15,-30,15,-22,-124,-250,-75,-123
-25,-29,-4,28,-10,-17,15,-19,-127,-250,-74,-119
-53,-50,2,51,-27,-24,10,-15,-130,-250,-70,-120
-5,3,8,1,-7,5,5,-15,-130,-250,-69,-120
23,39,16,-31,3,27,1,-19,-132,-254,-73,-120
-30,-6,24,18,-27,9,-4,-22,-135,-255,-78,-120
-45,-15,30,30,-37,7,-8,-25,-135,-256,-85,-124
-69,-39,30,54,-50,-5,-13,-28,-135,-260,-88,-125
-66,-36,30,51,-48,-3,-15,-30,-135,-260,-104,-125
19,48,30,-33,-6,39,-15,-28,-135,-257,-121,-125
-12,18,30,-3,-21,24,-18,-24,-135,-255,-112,-124
-53,-25,28,39,-40,1,-21,-22,-134,-251,-106,-128
-42,-21,21,31,-31,0,-19,-19,-137,-249,-100,-130
-40,-26,14,33,-27,-6,-16,-16,-140,-245,-91,-130
-35,-27,8,30,-21,-9,-15,-15,-142,-245,-93,-133
-19,-18,0,18,-9,-9,-15,-15,-145,-250,-95,-135
-46,-50,-4,49,-20,-27,-15,-15,-148,-250,-95,-134
-86,-87,0,86,-43,-43,-16,-15,-150,-250,-95,-131
-71,-66,5,68,-38,-30,-13,-15,-147,-250,-95,-130
-49,-40,9,44,-29,-15,-6,-15,-142,-250,-94,-130
-56,-42,14,48,-35,-14,-1,-13,-139,-248,-91,-129
-61,-42,19,51,-40,-11,4,-8,-135,-244,-90,-131
-36,-13,23,25,-29,4,10,-5,-132,-245,-90,-127
-27,-1,25,13,-26,12,14,-2,-128,-245,-89,-125
-23,5,28,9,-26,17,9,3,-125,-245,-91,-125
-40,-9,31,24,-35,11,3,5,-125,-244,-87,-125
-30,5,34,12,-32,19,-1,0,-125,-240,-78,-125
-45,-10,35,27,-40,13,-8,-5,-125,-240,-67,-125
-69,-34,35,51,-51,1,-12,-9,-125,-239,-58,-130
-54,-19,35,36,-44,8,-18,-14,-122,-235,-58,-130
-64,-28,35,46,-49,3,-20,-19,-117,-235,-62,-131
-58,-24,35,40,-46,6,-20,-18,-114,-238,-65,-136
-62,-26,36,43,-48,5,-20,-14,-110,-240,-68,-134
-64,-32,33,48,-48,0,-20,-12,-106,-240,-70,-137
-49,-27,22,38,-36,-2,-19,-8,-104,-240,-68,-141
-59,-46,13,52,-36,-16,-16,-7,-106,-240,-64,-142
-86,-85,2,85,-44,-42,-14,-3,-104,-240,-66,-147
-79,-85,-6,82,-36,-45,-16,-3,-105,-235,-64,-148
-51,-71,-20,61,-15,-45,-14,2,-105,-232,-66,-151
-34,-55,-21,44,-6,-38,-16,-1,-105,-228,-64,-144
-14,-31,-17,23,2,-24,-13,-1,-102,-225,-60,-140
-25,-34,-8,30,-8,-21,-7,3,-92,-220,-61,-136
-48,-50,-2,49,-23,-26,-3,-4,-94,-219,-56,-129
-47,-45,2,46,-24,-22,3,16,-79,-221,-60,-131
-40,-25,16,32,-28,-4,4,-6,-84,-218,-47,-114
-25,-19,6,22,-15,-7,13,28,-68,-222,-63,-130
-23,5,28,9,-25,16,16,-4,-72,-217,-36,-107
-20,-22,-2,20,-9,-12,40,34,-60,-223,-58,-136
-63,-20,43,41,-52,11,44,61,-24,-177,-51,-130
-3,7,10,-2,-7,8,65,247,120,-44,34,-86
334,330,-4,-331,169,163,-23,439,436,376,442,281
678,602,-76,-640,377,263,-498,-682,-12,608,957,769
624,63,-561,-343,593,-249,-795,-1453,-798,-154,284,179
260,-226,-486,-17,373,-356,-519,-793,-694,-663,-354,-353
52,-67,-119,8,86,-93,-162,-149,-223,-347,-121,-199
-14,-72,-59,43,23,-65,-43,86,-30,-223,-85,-174
-54,-47,7,50,-30,-20,-35,55,-35,-233,-82,-142
-69,-57,12,62,-40,-22,-24,69,-24,-216,-74,-159
-67,-49,18,58,-42,-15,-21,72,-14,-219,-79,-163
-63,-41,22,52,-42,-9,-11,67,-12,-203,-64,-164
-103,-50,54,76,-78,2,-7,88,-1,-208,-79,-174
-83,-26,57,54,-70,15,7,91,-2,-203,-74,-176
-98,-50,47,74,-72,-2,15,97,7,-206,-86,-193
-76,-25,51,50,-63,13,46,101,7,-204,-86,-191
-29,11,41,9,-35,26,98,143,19,-205,-90,-202
-103,-61,42,82,-72,-9,101,139,36,-205,-84,-199
-105,-71,34,88,-69,-18,99,142,51,-197,-80,-200
-92,-64,28,78,-60,-18,101,169,59,-188,-78,-200
-124,-103,21,113,-72,-41,100,182,70,-176,-73,-199
-107,-94,13,100,-60,-40,99,227,107,-159,-71,-201
-76,-71,5,73,-41,-32,77,247,130,-144,-66,-197
-62,-61,1,61,-31,-29,59,239,132,-130,-55,-189
-63,-55,7,59,-35,-24,48,241,141,-117,-46,-180
-44,-29,15,36,-29,-7,36,240,163,-109,-34,-171
-28,-7,21,17,-24,6,25,240,172,-101,-20,-160
-16,12,28,2,-22,20,20,240,169,-92,5,-148
19,53,33,-36,-7,43,20,237,167,-86,36,-136
23,63,40,-43,-8,51,20,228,165,-84,46,-117
37,81,45,-59,-4,63,20,207,164,-86,56,-109
61,112,51,-87,5,82,20,179,162,-84,81,-111
79,134,54,-107,12,94,16,158,152,-86,97,-109
82,127,45,-105,18,86,10,115,116,-84,92,-111
40,75,36,-58,2,55,5,69,94,-85,77,-108
6,34,28,-20,-11,30,0,65,86,-122,40,-118
-20,-2,18,11,-19,8,-7,65,71,-140,17,-137
-46,-36,10,41,-28,-13,-9,65,68,-133,21,-141
-57,-57,0,57,-29,-28,-5,65,71,-136,19,-147
-38,-48,-11,43,-13,-29,-5,65,75,-134,20,-153
-14,-36,-22,26,4,-29,-5,70,78,-135,20,-155
7,-29,-36,11,22,-32,-5,70,83,-135,21,-155
13,-20,-33,4,24,-26,-5,71,86,-130,27,-155
1,-17,-18,8,10,-17,-1,75,89,-122,31,-155
-3,-8,-5,6,1,-6,6,74,95,-114,36,-154
-17,-7,10,12,-13,1,13,77,98,-106,40,-150
4,28,24,-16,-10,26,19,80,104,-99,45,-144
36,66,30,-51,2,48,27,80,116,-93,49,-141
31,61,30,-46,0,45,29,80,117,-86,50,-136
26,56,30,-41,-2,43,24,80,113,-79,50,-132
21,51,30,-36,-4,40,18,80,111,-72,50,-127
14,44,30,-29,-9,37,15,80,107,-66,50,-125
13,42,29,-27,-8,35,10,74,105,-68,48,-125
-4,21,25,-9,-15,23,5,68,103,-74,45,-121
-24,-1,23,12,-23,10,9,64,96,-77,42,-119
-30,-10,20,20,-24,5,10,58,91,-82,40,-120
-32,-15,17,23,-24,1,10,52,86,-86,37,-125
-37,-23,15,30,-26,-4,10,47,80,-90,34,-133
-41,-30,12,35,-26,-9,10,41,76,-89,39,-136
-39,-33,6,36,-22,-13,9,34,75,-93,40,-140
-48,-47,1,47,-24,-23,1,28,75,-95,40,-143
-52,-54,-2,54,-25,-28,-6,20,75,-95,44,-148
-43,-51,-8,47,-17,-29,-13,16,75,-92,45,-151
-34,-43,-9,38,-12,-26,-21,23,75,-89,44,-154
-41,-45,-4,43,-18,-24,-28,38,73,-91,40,-159
-26,-24,1,25,-13,-11,-34,42,70,-84,40,-161
-32,-27,5,29,-19,-11,-36,36,67,-87,37,-165
-26,-16,10,21,-18,-3,-40,31,64,-80,34,-170
-7,8,15,-1,-11,11,-39,26,60,-84,35,-168
-63,-51,11,57,-37,-20,-34,19,60,-110,31,-163
-39,-29,9,34,-24,-10,-31,16,65,-103,30,-160
-27,-17,10,22,-19,-3,-28,19,65,-95,30,-157
-46,-37,10,41,-28,-13,-23,24,66,-90,25,-152
-20,-9,11,14,-15,1,-20,26,70,-82,25,-150
-6,2,8,2,-8,5,-17,31,70,-78,26,-150
1,7,5,-5,-3,6,-12,34,68,-74,23,-150
1,3,2,-2,-1,2,-9,37,65,-72,39,-150
41,41,0,-41,20,20,-6,56,62,-69,51,-150
27,24,-4,-25,16,10,-1,57,59,-66,42,-150
-23,-28,-5,26,-9,-17,-1,36,55,-64,40,-147
-32,-34,-2,33,-15,-17,-7,26,55,-61,35,-145
-36,-35,1,36,-18,-17,-13,24,59,-60,30,-145
-32,-29,4,30,-18,-12,-18,25,60,-60,34,-141
-35,-28,7,31,-20,-10,-24,25,60,-60,35,-139
-31,-21,10,26,-20,-5,-29,25,60,-60,35,-141
-32,-22,10,27,-21,-6,-27,25,60,-58,40,-144
-4,5,10,-1,-7,8,-24,25,58,-53,40,-145
17,27,10,-22,3,18,-25,25,55,-50,41,-145
-41,-32,10,37,-25,-11,-20,25,54,-47,49,-145
-73,-62,10,67,-41,-26,-20,25,73,-42,57,-144
-27,-17,10,22,-18,-3,-19,24,78,-39,60,-148
6,20,14,-13,-4,16,-15,30,56,-35,60,-150
-30,-9,21,19,-26,6,-16,38,47,-35,60,-150
-61,-34,27,47,-44,-3,-12,35,41,-34,60,-150
-63,-28,35,45,-49,3,-10,32,36,-30,60,-150
-70,-32,38,51,-54,3,-10,30,33,-31,58,-150
-59,-24,35,41,-46,5,-13,27,27,-28,54,-145
-56,-26,31,41,-43,2,-18,25,25,-24,51,-144
-52,-24,28,37,-39,2,-20,22,25,-22,47,-146
-42,-19,24,30,-33,2,-25,18,25,-18,44,-144
-41,-22,19,32,-30,-2,-28,21,25,-16,39,-146
-45,-16,29,30,-37,7,-32,19,25,-14,44,-142
-54,-28,26,40,-40,-1,-35,21,25,-11,47,-138
-7,12,19,-3,-13,15,-34,20,22,-9,51,-132
-8,5,13,2,-10,9,-38,12,18,-10,56,-128
-36,-34,2,35,-19,-16,-39,20,22,-11,56,-126
0,1,1,0,0,1,-42,6,17,-9,66,-116
-28,-36,-7,32,-10,-21,-34,18,22,-11,59,-131
-59,-47,12,53,-35,-18,-33,0,19,3,72,-117
-38,-40,-2,39,-17,-21,-22,24,30,2,57,-134
-34,-11,23,23,-28,6,-21,17,41,17,73,-117
-30,-6,24,18,-27,9,-11,30,40,16,60,-130
-36,22,58,7,-47,40,40,81,97,40,62,-137
-60,-7,54,33,-57,23,81,221,204,141,104,-103
168,155,-13,-161,90,70,24,460,452,449,377,128
633,611,-22,-622,327,295,-417,-521,151,827,1022,739
678,190,-488,-434,583,-149,-853,-1532,-672,240,579,368
279,-300,-579,11,429,-439,-637,-958,-700,-461,-247,-347
37,-112,-149,37,94,-131,-193,-189,-157,-169,-85,-217
-2,-50,-48,27,23,-49,-36,91,92,55,43,-173
-48,-31,18,39,-33,-6,-15,94,90,38,40,-177
-59,-28,30,43,-44,1,12,105,103,59,48,-156
-78,-51,27,65,-52,-12,20,128,120,36,30,-166
-68,-33,35,50,-51,1,14,118,110,48,41,-143
-20,5,25,8,-23,15,34,154,142,67,24,-156
-61,-27,35,44,-47,4,54,144,128,53,31,-145
-70,-44,26,57,-48,-8,49,137,113,35,19,-153
-57,-24,32,40,-44,4,49,143,145,46,20,-148
-98,-68,29,83,-63,-20,45,144,153,49,16,-150
-98,-68,30,83,-63,-19,43,148,160,52,10,-149
-78,-47,31,62,-54,-7,49,172,176,61,12,-143
-95,-67,28,81,-62,-19,51,195,185,67,16,-141
-55,-16,39,35,-47,11,72,228,214,94,22,-137
-33,28,62,2,-48,45,96,260,248,141,25,-134
-72,-13,59,42,-65,23,87,284,254,148,30,-130
-75,-26,50,50,-62,12,81,319,264,147,35,-126
-59,-15,44,37,-52,14,74,338,271,154,38,-115
-23,12,35,5,-29,23,68,337,269,153,41,-105
-21,9,30,6,-26,19,58,323,271,158,44,-95
-35,-13,22,24,-28,4,21,312,269,152,47,-85
-23,-6,16,14,-19,5,4,304,271,159,80,-75
-8,1,9,3,-9,5,1,288,266,182,94,-66
17,19,2,-18,7,10,-5,261,249,179,86,-59
57,54,-3,-55,30,25,-8,215,228,168,116,-52
69,59,-10,-64,39,24,-15,166,207,162,128,-46
63,46,-17,-55,40,14,-13,134,190,153,114,-38
66,41,-25,-53,45,8,-6,117,174,148,108,-36
60,31,-28,-45,44,1,0,107,163,142,97,-40
52,28,-24,-39,37,2,5,98,158,137,91,-42
40,22,-18,-31,29,1,13,86,150,131,86,-45
37,22,-15,-29,26,3,13,75,145,126,81,-48
24,14,-10,-18,16,1,2,63,137,125,78,-50
28,23,-5,-25,16,9,-6,52,137,125,72,-50
50,42,-9,-46,29,16,-15,45,141,125,68,-50
35,25,-10,-30,23,7,-24,45,139,125,65,-50
28,18,-10,-23,19,4,-31,43,144,124,65,-50
29,14,-15,-22,22,0,-38,40,145,127,65,-50
23,9,-15,-15,19,-3,-38,39,145,129,65,-48
22,6,-16,-14,19,-5,-34,42,150,137,64,-45
23,-1,-24,-11,23,-12,-32,52,158,149,69,-42
38,6,-32,-21,35,-13,-29,57,163,159,70,-40
46,13,-32,-30,39,-9,-26,62,169,174,70,-36
50,23,-27,-36,38,-2,-24,64,174,175,89,-35
54,30,-25,-41,39,2,-21,61,170,175,94,-31
51,30,-20,-41,36,5,-20,58,170,175,82,-30
46,30,-17,-38,31,6,-20,56,169,175,79,-30
44,30,-13,-36,29,8,-20,52,164,173,69,-30
40,31,-10,-36,25,11,-20,50,166,169,66,-30
38,27,-10,-32,24,8,-22,46,162,191,87,-31
59,52,-8,-55,33,22,-33,35,154,188,80,-40
84,79,-4,-81,44,37,-41,23,148,167,62,-49
79,73,-5,-76,42,34,-50,12,140,161,60,-52
76,74,-1,-75,38,36,-59,4,132,160,53,-56
78,79,0,-78,38,39,-56,-1,126,159,48,-59
38,38,0,-38,19,19,-51,-6,120,155,43,-64
19,20,0,-20,9,10,-49,-12,120,155,37,-64
21,20,0,-21,10,10,-44,-18,119,153,32,-60
25,26,1,-26,12,14,-41,-19,114,149,25,-60
53,59,6,-56,23,32,-37,-13,116,147,21,-60
31,43,12,-37,10,27,-35,-10,112,143,14,-60
17,32,16,-25,0,24,-35,-6,110,141,11,-60
9,29,20,-19,-6,24,-35,-2,107,140,20,-63
4,29,25,-17,-10,27,-34,0,103,149,29,-68
30,52,22,-41,4,37,-37,22,133,187,59,-71
10,25,15,-18,-3,20,-38,22,144,186,48,-75
15,28,13,-22,1,20,-42,-12,119,158,14,-78
64,69,5,-67,29,37,-38,-17,112,153,7,-81
64,69,5,-67,29,37,-42,-34,109,146,3,-73
25,21,-4,-23,15,8,-59,-41,109,137,-9,-77
27,24,-3,-25,15,10,-71,-40,108,132,-13,-73
45,39,-6,-42,26,16,-74,-41,101,124,-19,-75
30,25,-6,-27,18,9,-67,-25,112,145,-16,-76
22,20,-1,-20,11,9,-67,-42,103,171,-9,-74
35,22,-13,-28,23,5,-52,-8,118,157,-17,-88
51,63,11,-57,20,37,-62,-44,101,184,5,-70
60,54,-6,-57,33,24,-25,22,117,192,-21,-102
-23,38,61,-8,-42,49,11,42,153,216,31,-63
17,27,10,-22,3,18,60,316,332,351,77,-43
420,418,-2,-419,211,208,-61,351,573,813,569,402
775,583,-192,-679,483,195,-645,-1010,-53,908,947,781
623,-74,-697,-274,660,-385,-901,-1533,-747,35,97,40
230,-229,-459,0,344,-344,-486,-642,-438,-260,-308,-307
102,32,-70,-67,87,-19,-121,-47,49,147,-27,-71
70,62,-8,-67,39,27,-54,96,165,219,-11,-78
0,37,37,-19,-19,37,-57,54,142,213,5,-60
1,14,13,-7,-7,13,-47,73,154,218,-12,-79
10,50,40,-31,-15,45,-43,59,154,211,-9,-78
27,56,30,-42,-2,43,-38,60,154,220,-14,-85
-17,14,31,2,-24,22,-33,59,158,205,-20,-94
-47,-16,31,31,-39,7,-42,34,159,191,-20,-96
10,38,28,-24,-9,33,-44,78,164,221,-30,-110
17,49,32,-33,-8,40,-23,95,165,241,-29,-111
-11,17,27,-3,-19,22,-16,99,170,230,-38,-117
5,41,36,-23,-16,39,-9,105,169,240,-39,-119
-40,3,43,18,-42,23,-3,122,186,228,-47,-119
-39,7,46,16,-42,26,5,158,217,246,-45,-114
18,63,45,-41,-13,54,8,178,238,283,-37,-115
-32,13,45,9,-39,29,13,194,243,279,-31,-113
-55,-10,45,32,-50,17,12,204,235,270,-25,-109
-23,22,45,0,-34,33,25,232,259,297,-13,-112
33,75,41,-54,-4,58,45,261,296,339,18,-98
74,109,35,-92,19,72,13,250,297,348,44,-68
32,62,30,-47,0,46,-10,244,298,351,46,-54
77,101,24,-89,26,63,-15,236,314,372,66,-46
143,162,19,-153,62,90,-26,229,317,386,82,-34
137,151,14,-144,61,82,-34,219,301,385,79,-31
126,135,10,-131,58,72,-43,190,287,379,102,-29
129,140,11,-135,59,75,-46,144,269,382,99,-31
144,151,7,-148,68,79,-50,87,235,361,83,-28
104,109,5,-107,50,56,-53,50,198,316,56,-33
88,93,6,-91,41,49,-57,37,173,301,22,-62
80,78,-2,-79,41,38,-61,29,162,296,17,-73
89,69,-20,-78,54,24,-64,20,158,288,11,-67
51,18,-32,-34,41,-7,-65,10,152,283,6,-73
16,-14,-30,-1,23,-22,-65,6,146,275,0,-89
77,47,-30,-62,53,8,-65,3,141,279,-5,-89
56,28,-28,-42,42,0,-65,0,139,279,1,-83
38,14,-24,-25,31,-5,-63,-2,141,281,6,-81
30,5,-25,-17,27,-10,-60,-6,139,279,12,-76
41,13,-28,-27,35,-8,-57,-3,143,283,18,-73
82,51,-30,-66,56,10,-54,2,159,303,22,-50
80,49,-30,-64,55,10,-51,8,166,316,30,-30
79,44,-35,-61,57,5,-50,11,172,328,36,-25
87,53,-35,-69,61,9,-55,16,182,339,43,-17
131,95,-36,-112,83,29,-55,20,179,342,50,-11
134,94,-41,-114,87,26,-56,14,173,345,53,-3
117,77,-39,-97,78,19,-60,9,170,364,68,-2
121,79,-43,-100,82,18,-59,3,165,371,71,-14
101,56,-45,-78,73,5,-63,-3,160,363,61,-30
116,71,-45,-93,80,13,-77,-9,156,362,56,-38
100,55,-45,-77,73,5,-87,-25,149,357,47,-42
90,46,-45,-68,67,0,-86,-41,146,354,41,-42
86,41,-45,-63,66,-2,-84,-40,139,351,35,-48
74,29,-45,-51,59,-8,-85,-33,134,345,35,-48
63,18,-45,-40,54,-14,-85,-29,130,344,35,-54
9,-35,-44,13,26,-39,-85,-23,129,338,34,-79
91,52,-40,-71,65,6,-83,-17,149,337,36,-59
91,51,-40,-71,65,5,-76,-18,153,330,32,-45
40,3,-37,-21,39,-17,-71,-26,145,332,30,-54
123,89,-35,-106,79,27,-66,-33,141,361,30,-53
130,95,-35,-112,82,29,-60,-39,134,366,26,-59
105,70,-35,-87,70,17,-55,-45,130,364,25,-59
100,65,-35,-82,67,15,-62,-45,126,370,25,-62
87,52,-35,-69,60,8,-70,-46,123,370,25,-67
81,46,-35,-63,58,5,-77,-52,121,368,25,-70
73,39,-35,-55,54,2,-101,-47,117,363,25,-73
46,9,-36,-27,41,-13,-114,-62,115,349,25,-78
99,59,-40,-79,70,10,-109,-82,112,361,25,-80
115,75,-40,-95,77,17,-107,-74,109,381,23,-75
40,0,-40,-20,40,-19,-104,-71,104,356,18,-70
62,22,-40,-42,50,-9,-101,-66,102,353,15,-67
64,24,-40,-44,52,-8,-99,-61,97,356,12,-61
62,22,-40,-42,51,-9,-96,-57,95,356,7,-61
101,61,-40,-81,70,10,-93,-54,101,363,5,-89
78,38,-40,-58,59,-1,-90,-55,106,355,11,-97
105,65,-40,-85,72,12,-87,-51,124,380,18,-83
138,98,-40,-118,88,29,-84,-49,137,403,24,-78
118,77,-41,-98,80,18,-87,-51,130,398,31,-79
120,75,-45,-97,82,15,-93,-54,128,400,38,-80
107,62,-45,-84,76,8,-96,-55,124,399,38,-81
101,56,-45,-78,73,6,-101,-55,119,400,33,-86
100,55,-45,-77,72,5,-104,-55,117,403,30,-84
100,55,-45,-77,72,5,-105,-54,103,406,27,-87
103,54,-49,-78,75,2,-105,-58,108,409,22,-91
110,56,-54,-83,81,1,-105,-60,139,412,20,-89
110,53,-57,-81,83,-2,-105,-60,140,414,20,-94
112,49,-63,-80,87,-7,-102,-60,135,416,21,-95
104,40,-64,-72,84,-11,-100,-60,134,420,19,-95
94,33,-60,-64,77,-13,-100,-60,129,419,21,-95
88,30,-57,-59,72,-14,-97,-60,130,422,19,-95
68,13,-55,-40,61,-20,-94,-59,130,425,20,-95
104,53,-51,-78,77,1,-96,-60,131,425,21,-95
76,27,-50,-52,63,-12,-99,-60,130,427,18,-95
95,41,-53,-68,74,-6,-102,-59,130,441,45,-93
147,91,-56,-119,101,17,-105,-63,130,455,40,-89
92,32,-59,-62,75,-13,-107,-64,127,446,10,-91
100,39,-61,-69,80,-11,-111,-70,124,441,21,-88
98,32,-66,-64,81,-17,-107,-69,120,433,28,-92
102,38,-64,-69,82,-13,-103,-75,120,428,48,-88
98,33,-66,-65,82,-17,-97,-76,112,425,52,-91
103,38,-65,-70,83,-13,-93,-66,121,440,46,-90
167,103,-64,-135,116,19,-90,-65,136,467,44,-88
142,75,-66,-108,104,4,-83,-44,152,478,31,-95
119,49,-71,-84,95,-11,-87,-56,152,485,37,-82
141,46,-95,-93,118,-24,-82,-23,164,475,14,-100
131,57,-74,-94,102,-8,-89,-44,164,486,34,-65
127,32,-96,-79,111,-32,-75,11,166,470,0,-95
128,62,-66,-95,96,-1,-45,39,208,507,46,-88
126,34,-92,-80,109,-29,-7,232,345,624,107,-66
407,320,-87,-363,247,116,-114,319,554,1004,484,270
845,620,-225,-732,534,197,-681,-961,39,1212,992,753
809,24,-785,-416,797,-381,-1041,-1672,-702,464,295,138
419,-239,-657,-90,538,-448,-632,-815,-486,33,-280,-361
189,-15,-204,-86,197,-110,-192,-168,18,382,-45,-172
139,7,-132,-73,136,-63,-85,-6,179,509,-13,-166
113,49,-64,-81,88,-7,-79,-9,176,503,17,-123
89,19,-70,-54,79,-25,-42,13,177,507,9,-147
83,23,-60,-53,71,-18,-32,28,184,502,7,-172
57,9,-48,-33,52,-19,-109,37,182,508,16,-166
52,-1,-53,-25,52,-26,-51,56,188,502,3,-179
62,33,-29,-47,45,2,40,61,192,508,18,-169
49,8,-41,-28,45,-16,39,81,204,502,2,-178
