I,II,III,aVR,aVL,aVF,V1,V2,V3,V4,V5,V6
244,551,307,-398,-32,429,609,544,350,79,29,-1
264,587,323,-425,-30,454,621,553,349,70,18,-12
254,584,330,-419,-38,456,648,572,352,54,-7,-37
229,567,337,-398,-54,452,674,589,370,41,-38,-57
190,559,368,-375,-89,463,728,639,370,34,-60,-67
186,565,378,-376,-97,471,783,670,383,17,-85,-88
158,563,405,-361,-123,483,848,703,392,-17,-121,-105
98,558,460,-328,-181,509,912,749,388,-46,-169,-139
61,554,493,-308,-216,523,991,793,388,-80,-226,-185
-6,543,549,-268,-278,546,1068,838,381,-116,-275,-215
-42,567,609,-263,-326,588,1129,891,406,-152,-346,-265
-62,578,640,-259,-351,609,1209,966,452,-162,-405,-298
-100,589,689,-244,-395,639,1233,1031,512,-148,-424,-312
-121,606,727,-243,-424,666,1229,1113,614,-116,-455,-324
-137,608,746,-236,-442,677,1229,1222,772,-8,-445,-306
-118,638,756,-260,-437,697,1210,1324,954,151,-377,-272
-35,686,721,-326,-378,703,1158,1371,1101,306,-296,-225
74,750,675,-412,-301,712,1064,1369,1221,470,-176,-158
156,795,640,-476,-242,717,928,1306,1267,612,-45,-73
259,815,556,-537,-148,685,766,1153,1215,680,87,19
362,815,453,-589,-46,634,626,967,1084,688,211,109
428,801,373,-614,27,587,494,766,895,624,272,173
467,775,309,-621,79,541,371,571,685,495,270,183
476,742,266,-609,105,503,287,415,489,364,260,179
465,663,198,-564,133,430,237,308,349,251,249,180
458,580,121,-519,169,350,211,252,267,177,231,180
455,549,94,-502,181,321,208,202,223,144,224,180
424,495,71,-460,177,282,206,175,189,122,216,180
426,446,20,-436,203,233,203,168,166,105,208,185
437,429,-8,-432,222,210,200,157,149,92,201,185
412,408,-4,-410,208,202,200,154,134,80,194,185
384,376,-8,-379,196,184,205,149,122,67,189,185
370,334,-36,-352,202,149,209,147,120,60,184,185
352,285,-66,-318,209,109,215,141,120,60,178,183
323,255,-68,-289,195,94,213,141,120,60,173,177
309,251,-57,-280,183,97,209,143,119,59,167,174
298,247,-51,-272,174,98,206,145,121,60,165,169
285,242,-43,-263,163,100,202,162,145,59,161,164
268,239,-29,-253,149,105,199,161,157,61,160,160
273,275,2,-274,135,138,196,153,153,59,155,155
298,313,15,-306,141,164,193,150,155,61,156,150
315,340,25,-328,145,182,190,142,166,81,169,147
306,375,70,-341,118,222,187,142,169,83,170,140
308,389,82,-349,113,235,185,152,162,75,171,143
330,392,63,-361,133,228,181,146,159,72,168,156
344,401,57,-373,144,229,179,135,155,64,175,156
367,421,54,-394,156,238,170,128,148,61,183,150
337,392,55,-366,141,224,154,117,138,60,172,145
304,360,56,-332,124,207,143,111,126,60,165,140
322,392,69,-357,126,230,138,109,123,60,154,133
314,410,96,-363,109,253,135,110,125,60,152,131
296,400,104,-348,96,252,131,110,125,60,156,135
300,411,111,-355,94,260,128,110,125,62,155,135
298,433,135,-366,81,284,124,110,125,66,148,140
301,457,156,-379,72,306,127,109,126,65,149,139
308,477,169,-392,69,322,141,127,129,72,163,141
305,472,167,-389,69,319,148,139,133,67,167,138
310,508,198,-409,56,353,142,140,133,72,167,147
342,570,228,-456,56,399,151,146,144,102,178,171
382,598,217,-490,82,407,153,149,165,109,189,169
397,612,214,-505,91,413,148,163,177,118,196,169
400,603,203,-501,99,403,130,154,174,116,200,162
385,549,163,-467,111,356,82,132,157,96,192,161
379,499,120,-439,129,309,67,116,141,85,184,176
361,480,119,-421,121,299,73,102,123,79,180,148
348,457,110,-403,119,284,80,104,107,71,169,126
365,471,107,-418,129,288,77,83,99,55,160,133
302,452,150,-377,76,301,62,61,84,25,131,119
210,367,157,-289,26,262,65,54,56,-4,104,81
178,333,154,-256,12,243,67,47,50,-4,96,66
190,346,156,-269,17,251,69,52,58,5,94,73
186,341,155,-264,15,248,74,52,62,11,89,74
176,352,176,-264,-1,264,74,57,73,16,84,78
219,397,179,-308,20,288,90,78,95,39,119,94
218,386,169,-302,24,277,113,94,112,59,142,105
219,388,169,-304,25,278,106,98,109,60,140,105
231,388,157,-310,37,272,109,106,118,61,139,104
211,369,158,-291,26,264,99,88,113,58,144,106
236,367,130,-302,53,248,149,126,141,80,158,105
276,363,87,-320,94,225,111,230,289,214,234,156
487,485,-2,-486,244,242,-634,17,412,517,532,372
859,569,-291,-714,575,139,-1802,-605,338,818,946,684
1206,609,-596,-908,901,6,-2412,-1132,174,1050,1353,994
1538,690,-848,-1114,1193,-79,-2610,-1510,-27,1276,1820,1345
1784,676,-1108,-1229,1446,-216,-2758,-2085,-638,1121,2113,1597
1815,501,-1314,-1158,1564,-406,-2615,-2585,-1504,496,2048,1574
1628,239,-1389,-933,1508,-575,-2266,-2732,-2090,-130,1869,1448
1417,83,-1334,-750,1375,-625,-1842,-2536,-2209,-486,1693,1313
1194,4,-1189,-599,1192,-592,-1348,-1966,-1730,-497,1328,1029
926,-83,-1008,-421,968,-546,-908,-1361,-1252,-605,708,624
747,-64,-811,-341,779,-437,-508,-797,-908,-717,194,269
540,110,-430,-325,484,-160,-98,-240,-389,-446,-8,74
303,250,-53,-276,178,98,199,92,-50,-218,-75,-21
161,343,182,-252,-11,262,375,288,149,-79,-95,-69
90,385,295,-238,-103,340,439,372,241,-3,-96,-69
74,390,315,-232,-121,352,471,401,259,-11,-102,-71
42,385,343,-214,-151,363,511,437,289,-6,-102,-86
13,355,342,-185,-165,349,525,454,287,-21,-111,-103
21,351,330,-186,-155,340,568,484,309,-22,-121,-120
10,333,322,-172,-156,327,611,523,324,-32,-136,-133
-43,309,351,-133,-197,330,655,559,335,-38,-175,-154
-95,281,376,-93,-236,328,710,586,339,-49,-203,-177
-110,257,367,-74,-239,312,793,648,336,-67,-217,-183
-134,236,370,-51,-252,303,865,691,332,-103,-270,-223
-185,219,404,-17,-295,311,921,711,330,-155,-344,-280
-262,195,457,33,-359,326,993,753,325,-201,-409,-321
-324,182,506,71,-415,344,1050,795,330,-241,-469,-367
-392,162,554,114,-473,358,1104,850,366,-253,-526,-401
-442,152,594,145,-518,373,1138,914,428,-244,-560,-427
-455,191,646,132,-551,418,1150,997,531,-194,-557,-428
-458,220,678,119,-568,449,1138,1091,682,-90,-544,-413
-411,268,680,71,-546,474,1096,1177,851,61,-497,-396
-359,317,676,20,-518,496,1036,1225,1006,233,-408,-347
-278,385,662,-54,-470,524,940,1214,1116,400,-289,-267
-197,426,623,-115,-410,525,805,1143,1134,534,-155,-177
-110,437,547,-164,-329,492,644,992,1074,576,-39,-107
-15,456,471,-221,-243,463,487,802,942,567,61,-31
35,439,404,-237,-185,421,347,601,747,502,127,30
91,434,343,-263,-127,388,254,432,559,385,152,55
127,423,297,-275,-85,360,207,313,400,284,147,71
154,411,257,-283,-52,334,163,219,279,193,134,67
164,400,236,-283,-36,318,133,160,205,131,124,60
153,384,231,-269,-39,307,120,121,150,91,111,56
145,372,227,-259,-42,299,113,96,99,53,99,50
135,358,223,-247,-45,290,108,74,61,16,82,40
129,345,216,-237,-44,280,104,51,31,-14,68,21
123,330,207,-227,-43,268,100,45,8,-27,61,8
115,316,201,-216,-43,258,95,42,4,-47,54,0
105,305,199,-205,-47,252,97,39,5,-53,48,-4
94,294,200,-194,-53,247,110,36,5,-46,40,0
64,264,200,-164,-68,232,115,34,15,-42,36,0
40,239,199,-140,-80,219,114,38,30,-36,39,0
40,241,201,-140,-81,221,118,56,42,-30,42,0
25,239,214,-132,-94,226,120,68,49,-26,44,0
6,236,230,-121,-113,233,119,68,59,-14,48,3
-2,234,235,-117,-119,235,115,84,80,0,50,9
-2,236,238,-117,-121,236,115,92,98,13,53,16
-7,234,241,-114,-124,237,114,86,102,32,60,22
-5,240,244,-118,-125,242,109,83,97,36,60,30
4,249,245,-127,-121,247,110,80,92,35,60,34
2,241,240,-121,-119,240,108,73,88,34,60,31
32,271,240,-152,-104,255,101,86,84,30,60,26
62,294,232,-179,-85,263,94,96,80,30,59,24
46,288,242,-167,-98,264,87,90,73,32,56,19
23,287,264,-155,-120,275,81,79,66,31,53,15
21,274,252,-148,-116,263,75,52,59,26,50,15
26,268,241,-147,-108,254,68,42,52,24,47,15
18,257,238,-138,-110,247,61,36,42,18,44,15
12,251,239,-131,-114,245,53,29,48,18,47,15
10,256,245,-133,-118,250,53,23,57,8,51,15
11,254,243,-133,-116,248,56,15,54,10,49,15
3,256,253,-129,-125,254,61,27,56,38,51,20
8,253,245,-131,-119,248,67,29,53,42,56,20
9,267,259,-138,-125,263,80,51,72,48,71,21
-1,290,291,-145,-146,290,113,70,96,70,89,45
-2,286,287,-142,-145,286,122,89,112,92,108,54
10,279,269,-144,-130,273,121,131,148,124,134,67
75,274,198,-175,-62,236,93,115,141,134,145,86
95,262,167,-179,-36,215,62,80,103,116,138,76
85,251,166,-168,-41,209,68,73,93,101,134,71
80,232,153,-156,-37,192,66,69,85,87,127,64
49,203,154,-126,-53,179,65,66,76,73,123,57
35,182,147,-109,-56,164,67,55,65,61,114,52
3,185,182,-95,-90,183,62,41,50,48,91,38
-14,187,202,-87,-108,194,55,27,39,37,75,28
-18,173,191,-78,-105,182,47,10,33,21,64,17
-5,183,187,-89,-96,185,40,-6,31,9,53,8
2,180,178,-91,-88,178,32,-6,26,0,42,-3
20,195,174,-108,-77,185,26,-5,23,0,41,-12
45,211,166,-128,-60,188,29,-4,18,1,39,-11
16,205,189,-111,-87,197,30,1,16,-2,37,-4
42,248,206,-145,-82,227,33,-1,7,11,34,-1
33,273,241,-153,-104,257,32,-2,4,13,36,4
1,294,293,-147,-146,293,33,-13,7,4,45,9
29,258,229,-143,-101,244,99,117,122,81,72,19
159,283,124,-221,18,203,-274,269,426,389,303,167
514,378,-137,-446,325,120,-1412,45,604,769,682,447
885,376,-509,-631,697,-66,-2330,-451,535,981,1006,689
1241,424,-817,-833,1029,-196,-2606,-907,382,1158,1372,951
1594,422,-1172,-1008,1383,-375,-2807,-1498,-45,1188,1712,1210
1707,252,-1454,-979,1580,-601,-2880,-2332,-986,685,1729,1241
1584,11,-1573,-797,1578,-781,-2649,-2882,-1887,-9,1527,1123
1444,-156,-1600,-643,1522,-878,-2260,-2905,-2191,-385,1405,1018
1249,-229,-1479,-510,1364,-854,-1750,-2463,-1909,-461,1203,858
939,-297,-1236,-321,1088,-767,-1218,-1808,-1450,-585,685,525
711,-335,-1046,-188,879,-690,-776,-1224,-1194,-830,126,157
454,-256,-709,-99,582,-482,-325,-600,-754,-703,-129,-42
160,-95,-255,-32,208,-174,64,-117,-273,-386,-159,-115
-51,11,62,20,-56,36,293,143,-21,-203,-147,-139
-166,103,269,31,-217,186,405,298,145,-95,-149,-143
-189,134,322,27,-256,228,443,341,176,-68,-152,-145
-217,119,335,49,-277,227,475,361,190,-59,-155,-150
-243,129,372,57,-308,251,500,384,199,-60,-157,-152
-277,122,399,78,-339,260,523,418,211,-62,-161,-159
-283,127,410,78,-347,268,542,435,224,-90,-188,-185
-308,127,436,90,-372,281,594,458,217,-104,-218,-197
-332,130,462,101,-397,296,660,503,220,-107,-243,-208
-347,142,489,102,-418,315,712,531,213,-135,-273,-230
-397,137,535,130,-466,336,782,566,216,-161,-318,-261
-402,152,553,125,-478,352,857,598,215,-205,-384,-301
-415,183,598,116,-507,390,920,637,215,-254,-440,-342
-461,184,645,139,-554,414,984,695,220,-295,-487,-381
-516,187,703,164,-610,445,1043,751,238,-323,-562,-421
-563,205,768,179,-666,486,1084,829,304,-317,-604,-451
-584,219,803,182,-693,511,1116,936,416,-255,-589,-454
-580,233,813,173,-696,523,1120,1046,567,-160,-591,-448
-547,247,794,150,-670,520,1094,1148,733,-40,-554,-439
-494,294,788,100,-641,540,1020,1205,896,124,-483,-406
-438,317,754,60,-596,535,924,1216,1030,274,-408,-345
-364,315,678,24,-521,496,797,1167,1075,415,-277,-263
-279,329,608,-26,-444,468,643,1043,1051,504,-145,-173
-178,337,515,-80,-347,426,492,859,945,498,-49,-102
-90,327,417,-119,-253,371,339,639,753,450,16,-48
-67,298,365,-116,-216,331,227,453,555,350,51,-9
-41,292,334,-126,-188,313,142,291,366,228,52,-4
-20,284,303,-132,-162,293,93,170,212,115,41,-5
-25,261,286,-119,-156,274,78,106,137,63,34,-5
-34,246,281,-106,-158,263,66,65,82,17,23,-5
-40,238,278,-100,-159,258,58,24,17,-44,13,-4
-39,233,272,-98,-155,252,48,-17,-23,-63,-2,-13
-44,225,269,-91,-157,247,43,-25,-46,-88,-10,-18
-51,219,271,-84,-161,245,35,-53,-80,-115,-44,-39
-54,213,268,-80,-161,240,27,-78,-106,-135,-69,-52
-74,206,280,-66,-177,243,21,-74,-118,-147,-67,-48
-89,199,288,-56,-188,243,18,-91,-136,-163,-91,-70
-85,192,277,-54,-181,234,31,-90,-135,-173,-102,-83
-86,184,269,-50,-178,226,39,-79,-124,-165,-99,-81
-86,177,263,-46,-175,220,31,-72,-117,-164,-100,-87
-77,171,248,-47,-163,209,28,-63,-109,-161,-100,-89
-53,170,223,-59,-138,196,21,-56,-104,-157,-114,-89
-41,170,211,-64,-126,190,15,-47,-98,-167,-132,-107
-42,165,207,-62,-125,186,19,-40,-91,-167,-132,-87
-33,165,198,-66,-116,181,19,-32,-74,-152,-116,-66
-30,164,193,-67,-112,178,25,-28,-64,-137,-102,-72
-32,153,185,-60,-109,168,35,-22,-58,-120,-85,-64
-49,140,189,-45,-120,164,28,-19,-51,-107,-73,-61
-76,138,214,-31,-145,176,20,-14,-44,-96,-60,-52
-67,141,208,-37,-137,174,16,-10,-37,-92,-58,-46
-48,145,193,-48,-121,169,4,-14,-33,-98,-61,-39
-35,143,179,-54,-107,161,-5,-3,-24,-99,-59,-35
-35,140,175,-53,-105,157,-3,-26,-47,-104,-61,-34
-61,139,200,-39,-131,170,6,-43,-68,-105,-57,-27
-63,137,200,-38,-131,168,7,-33,-64,-105,-70,-46
-55,134,189,-40,-122,161,-28,-55,-68,-117,-80,-57
-47,134,181,-43,-114,157,-38,-61,-72,-119,-71,-49
-46,129,175,-42,-111,151,-29,-56,-73,-112,-68,-49
-44,130,174,-44,-109,152,-31,-54,-70,-108,-60,-42
-37,139,176,-52,-107,158,-24,-51,-70,-105,-57,-41
-55,117,172,-32,-113,144,-26,-49,-69,-98,-50,-35
-43,145,188,-51,-116,167,-15,-47,-72,-98,-42,-27
-23,206,230,-91,-127,218,-2,-38,-55,-86,-33,-18
-23,205,228,-91,-125,216,7,-2,-17,-54,11,21
-22,199,221,-89,-122,209,19,4,4,-28,35,42
-33,187,220,-77,-127,204,-13,-12,-8,-35,17,29
-20,169,189,-75,-105,179,-63,-19,-23,-67,5,20
-17,162,179,-73,-98,170,-72,-42,-35,-71,-3,13
-35,137,173,-51,-104,155,-65,-55,-65,-86,-8,8
-22,121,143,-50,-83,132,-60,-54,-76,-103,-13,7
-12,124,136,-56,-74,129,-54,-54,-75,-98,-30,-4
-3,118,121,-58,-62,120,-50,-58,-82,-100,-49,-18
-11,110,120,-50,-66,115,-50,-58,-81,-106,-32,-26
-58,88,146,-15,-102,117,-48,-54,-80,-116,-31,-17
-72,67,139,2,-106,103,-45,-53,-99,-109,-73,-32
-37,90,127,-27,-82,109,-45,-49,-100,-105,-72,-56
-13,114,127,-51,-71,120,-44,-48,-86,-102,-56,-38
-22,99,120,-39,-71,109,-37,-42,-80,-94,-60,-33
-16,100,116,-42,-66,108,-36,-57,-80,-102,-63,-40
-24,91,114,-34,-69,102,-29,-72,-76,-111,-62,-36
-14,85,99,-36,-56,92,-23,-69,-75,-111,-45,-22
3,101,98,-52,-48,99,-17,-55,-66,-91,-34,-7
-1,73,74,-36,-38,73,37,56,44,-14,2,4
114,165,51,-139,31,108,-326,12,175,197,182,134
424,315,-110,-369,267,102,-1433,-507,139,488,553,421
793,366,-427,-579,610,-31,-2368,-1177,-71,683,956,728
1137,448,-689,-793,913,-120,-2657,-1583,-249,883,1386,1066
1430,497,-933,-963,1181,-217,-2829,-2021,-615,959,1812,1406
1539,374,-1165,-957,1352,-395,-2837,-2589,-1421,491,1890,1498
1451,107,-1344,-779,1397,-618,-2547,-2869,-2127,-166,1737,1409
1240,-100,-1340,-570,1291,-720,-2138,-2776,-2387,-589,1588,1284
1039,-186,-1225,-426,1132,-706,-1641,-2299,-2083,-705,1292,1034
776,-326,-1102,-225,939,-713,-1153,-1671,-1555,-732,736,645
535,-410,-945,-62,740,-677,-770,-1138,-1231,-888,125,229
326,-323,-648,-1,487,-485,-383,-584,-778,-758,-202,-39
49,-225,-275,88,162,-250,-28,-155,-327,-466,-303,-168
-116,-138,-22,127,-47,-80,171,69,-99,-297,-329,-214
-191,-52,140,121,-165,44,292,210,59,-174,-291,-188
-202,-34,168,118,-185,67,341,264,118,-134,-249,-179
-224,-37,187,130,-205,75,349,292,131,-121,-252,-187
-267,-27,240,147,-254,106,387,330,157,-118,-282,-203
-278,-30,248,154,-263,109,422,354,161,-122,-300,-221
-276,-20,256,148,-265,117,464,387,179,-118,-307,-218
-280,-21,259,150,-270,119,512,425,191,-126,-324,-230
-329,-62,267,195,-297,102,551,455,185,-158,-358,-260
-401,-72,329,236,-364,128,617,499,212,-165,-394,-286
-443,-96,347,269,-395,125,678,544,232,-209,-448,-332
-455,-123,332,289,-393,104,753,579,223,-259,-486,-365
-479,-106,373,292,-425,133,825,625,217,-273,-544,-387
-501,-92,408,296,-454,158,876,669,224,-318,-618,-435
-507,-60,447,283,-477,194,929,718,249,-333,-678,-481
-507,-34,473,270,-490,219,991,801,317,-326,-740,-511
-544,-33,512,288,-528,239,1028,879,411,-292,-738,-522
-548,15,563,266,-556,289,1010,954,542,-188,-724,-519
-525,60,586,232,-556,323,988,1062,717,-46,-681,-486
-491,94,585,198,-538,340,921,1114,877,122,-591,-433
-413,158,571,127,-492,364,846,1112,990,279,-491,-370
-373,171,543,100,-458,357,738,1062,1040,413,-350,-271
-314,173,487,70,-401,330,566,925,993,474,-227,-188
-244,171,415,36,-329,292,416,749,864,464,-132,-125
-187,160,347,13,-267,254,272,546,679,421,-51,-57
-112,168,280,-28,-196,224,165,365,471,312,-22,-25
-66,149,214,-42,-140,181,97,217,290,181,-9,-19
-69,103,171,-17,-120,137,35,112,142,64,-30,-20
-79,70,149,4,-114,109,-9,49,51,-6,-58,-20
-67,70,137,-2,-102,103,-28,-6,-6,-59,-72,-19
-83,42,125,20,-105,84,-23,-34,-55,-106,-96,-36
-107,12,119,47,-113,65,-17,-58,-88,-131,-99,-41
-104,9,113,47,-109,60,-15,-74,-105,-143,-93,-39
-105,0,105,52,-105,52,-8,-75,-105,-137,-89,-40
-107,-7,100,56,-103,46,-6,-75,-121,-159,-116,-40
-106,-14,92,60,-99,39,-19,-80,-146,-172,-133,-40
-108,-21,87,64,-97,33,-21,-81,-148,-168,-128,-39
-102,-29,73,65,-87,22,-16,-80,-138,-182,-131,-55
-120,-53,67,86,-93,7,-15,-80,-133,-180,-129,-62
-131,-72,59,101,-95,-6,-11,-80,-126,-171,-146,-55
-107,-78,29,93,-68,-24,-9,-79,-114,-168,-148,-55
-109,-80,29,94,-69,-25,-6,-49,-96,-142,-138,-50
-103,-74,29,88,-65,-22,-5,-33,-79,-119,-133,-50
-86,-71,15,78,-51,-28,-2,-36,-70,-120,-125,-55
-80,-70,10,75,-45,-30,1,-35,-71,-120,-120,-55
-72,-70,2,71,-37,-34,-4,-40,-69,-120,-117,-55
-67,-70,-3,69,-32,-37,-22,-40,-65,-120,-113,-55
-61,-69,-7,65,-27,-38,-30,-41,-65,-119,-110,-55
-55,-79,-23,67,-16,-51,-30,-45,-65,-115,-105,-53
-47,-84,-37,66,-5,-60,-29,-45,-65,-115,-106,-46
-46,-77,-31,61,-7,-54,-33,-46,-65,-114,-116,-41
-46,-72,-26,60,-10,-49,-46,-45,-65,-109,-108,-36
-44,-67,-23,55,-10,-44,-41,-42,-65,-110,-92,-30
-43,-60,-17,51,-13,-38,-34,-39,-64,-108,-85,-25
-54,-70,-17,63,-19,-43,-28,-36,-61,-101,-79,-20
-41,-79,-38,60,-1,-58,-21,-34,-59,-96,-76,-20
-9,-66,-56,38,24,-61,-15,-31,-61,-91,-71,-19
7,-63,-70,28,39,-66,-17,-29,-58,-85,-67,-14
39,-52,-91,7,65,-71,-30,-30,-62,-80,-61,-16
38,-52,-90,8,64,-71,-28,-29,-52,-74,-46,-9
23,-64,-87,20,55,-75,-5,-31,-28,-69,-35,16
40,-55,-95,8,68,-75,19,-24,-27,-58,-39,28
42,-49,-91,4,67,-70,13,5,-5,-31,-34,21
60,-37,-97,-11,79,-67,-6,24,27,1,10,44
65,-93,-158,14,112,-125,-27,4,27,12,22,64
72,-141,-213,35,143,-177,-58,-27,-3,-14,-20,47
62,-126,-188,32,125,-157,-53,-29,-28,-47,-34,37
39,-161,-200,61,120,-180,-47,-29,-41,-62,-38,29
45,-185,-231,70,138,-208,-68,-54,-58,-73,-45,21
4,-183,-187,89,96,-185,-66,-66,-60,-75,-44,17
-25,-186,-162,106,69,-174,-62,-63,-66,-82,-66,-9
-31,-183,-152,107,61,-167,-58,-66,-78,-99,-83,-32
-34,-181,-147,108,57,-164,-53,-64,-79,-100,-79,-30
-38,-178,-140,108,51,-159,-50,-66,-81,-95,-80,-27
-38,-175,-136,107,50,-155,-42,-67,-78,-93,-80,-24
-48,-173,-124,111,38,-148,-41,-72,-82,-90,-80,-21
-42,-169,-127,105,42,-148,-33,-68,-76,-89,-81,-19
-9,-169,-160,89,76,-164,-34,-71,-77,-91,-86,-27
2,-156,-158,77,80,-157,-19,-70,-71,-88,-89,-31
16,-147,-163,65,90,-155,-35,-66,-70,-92,-95,-39
-20,-174,-154,97,68,-164,-25,-47,-62,-78,-92,-42
-1,-174,-172,88,85,-173,22,60,56,13,-36,-3
146,-80,-226,-32,186,-153,-459,-21,193,252,179,139
459,21,-437,-240,448,-208,-1583,-527,201,579,577,433
829,79,-750,-454,789,-335,-2404,-1118,42,820,992,756
1112,168,-944,-640,1028,-388,-2667,-1524,-153,1035,1437,1099
1395,199,-1196,-796,1295,-498,-2852,-2021,-621,1025,1810,1397
1505,39,-1466,-772,1486,-714,-2791,-2569,-1471,501,1858,1466
1347,-255,-1601,-546,1474,-928,-2457,-2792,-2151,-160,1716,1375
1145,-445,-1590,-350,1368,-1016,-2057,-2685,-2380,-566,1589,1275
937,-533,-1470,-202,1203,-1000,-1573,-2200,-2017,-639,1330,1071
694,-652,-1346,-20,1020,-999,-1110,-1579,-1480,-663,775,691
530,-703,-1233,87,882,-968,-708,-1039,-1140,-793,194,303
292,-630,-922,169,607,-776,-296,-484,-657,-627,-132,28
27,-518,-545,246,287,-531,19,-104,-255,-365,-254,-118
-148,-440,-292,294,72,-366,208,109,-45,-231,-287,-186
-219,-373,-154,296,-33,-263,297,217,77,-138,-291,-202
-197,-339,-142,268,-27,-240,328,255,100,-127,-289,-191
-221,-328,-106,275,-57,-217,375,289,131,-117,-291,-210
-247,-319,-72,283,-87,-196,385,298,131,-113,-289,-237
-267,-319,-52,293,-107,-185,408,332,149,-111,-308,-256
-267,-313,-46,290,-110,-179,447,350,152,-141,-355,-281
-269,-313,-44,291,-113,-178,489,380,150,-164,-370,-293
-301,-302,-1,302,-150,-152,551,434,175,-162,-390,-302
-312,-281,31,296,-172,-125,615,476,178,-177,-431,-322
-330,-257,73,293,-201,-92,690,524,191,-209,-468,-353
-382,-272,110,327,-246,-81,766,572,214,-246,-519,-389
-436,-299,137,368,-286,-81,828,612,217,-272,-574,-427
-515,-315,200,415,-357,-58,894,651,213,-322,-647,-477
-591,-349,243,470,-417,-53,950,702,225,-354,-719,-529
-611,-356,254,483,-432,-51,979,762,279,-327,-735,-550
-631,-337,293,484,-461,-22,1008,852,391,-278,-725,-543
-618,-301,318,459,-467,9,1004,941,526,-196,-721,-547
-589,-272,317,430,-453,23,973,1018,687,-64,-702,-538
-547,-241,306,394,-426,32,923,1087,844,107,-623,-479
-468,-196,271,332,-369,38,832,1090,961,278,-495,-416
-361,-158,203,260,-282,22,701,1018,1004,410,-371,-340
-262,-133,128,197,-195,-3,556,893,957,492,-232,-231
-192,-124,67,158,-129,-28,409,716,843,498,-116,-149
-91,-114,-22,103,-34,-68,257,513,653,434,-53,-101
-42,-145,-104,94,31,-124,146,337,448,322,-20,-59
-36,-182,-146,109,55,-164,88,199,276,201,-13,-38
-31,-198,-167,115,68,-182,53,107,147,99,-26,-44
-39,-212,-173,126,67,-192,28,54,58,21,-46,-51
-47,-245,-198,146,76,-221,14,12,-2,-31,-62,-50
-76,-288,-213,182,69,-250,7,-30,-35,-49,-79,-49
-79,-286,-207,183,64,-246,-4,-52,-62,-67,-82,-52
-68,-291,-223,179,77,-257,-11,-67,-105,-101,-98,-72
-57,-294,-238,176,91,-266,-24,-100,-141,-125,-121,-87
-29,-297,-268,164,120,-282,-32,-106,-147,-155,-119,-89
-33,-312,-279,173,123,-295,-27,-118,-161,-177,-139,-101
-61,-313,-252,187,96,-282,-21,-133,-174,-177,-148,-105
-71,-321,-250,196,90,-285,-19,-125,-162,-171,-144,-105
-80,-330,-250,205,85,-290,-11,-121,-153,-164,-158,-120
-81,-331,-249,206,84,-290,-13,-111,-138,-158,-166,-129
-77,-327,-251,202,87,-289,-34,-103,-118,-150,-169,-126
-92,-342,-250,217,79,-296,-34,-94,-112,-146,-161,-123
-100,-356,-256,229,78,-306,-27,-83,-98,-133,-154,-137
-92,-354,-262,223,86,-308,-23,-70,-79,-117,-148,-134
-82,-355,-273,219,96,-314,-16,-65,-71,-109,-141,-115
-61,-354,-293,208,117,-323,-11,-65,-65,-101,-137,-114
-62,-372,-310,217,124,-341,-14,-65,-57,-93,-131,-111
-78,-382,-305,230,113,-343,-26,-65,-52,-86,-128,-108
-84,-382,-297,233,107,-339,-32,-65,-54,-80,-122,-106
-95,-387,-292,241,99,-339,-25,-65,-65,-81,-118,-103
-112,-387,-276,250,82,-331,-6,-55,-60,-78,-115,-100
-98,-392,-295,245,99,-343,-30,-72,-70,-90,-109,-100
-42,-365,-323,204,141,-344,-59,-98,-88,-107,-119,-100
-28,-347,-319,187,146,-332,-54,-92,-84,-102,-127,-100
-43,-364,-320,203,139,-342,-54,-91,-79,-101,-121,-100
-37,-356,-320,196,142,-338,-50,-88,-74,-97,-121,-97
-23,-343,-320,183,149,-331,-50,-83,-96,-95,-116,-91
-20,-336,-317,178,149,-326,-48,-91,-104,-93,-116,-87
-7,-307,-300,157,147,-303,-38,-89,-84,-83,-108,-82
-2,-292,-290,147,144,-291,-33,-70,-74,-77,-92,-78
2,-280,-282,139,142,-281,-28,-55,-51,-56,-80,-74
15,-276,-291,130,154,-283,-32,-54,-18,-38,-53,-58
-3,-300,-297,152,147,-298,-27,-55,-12,-41,-56,-48
9,-306,-316,149,163,-311,-37,-55,-17,-44,-68,-51
32,-332,-364,150,198,-348,-75,-53,-19,-48,-63,-55
39,-335,-374,148,207,-355,-86,-64,-48,-50,-68,-54
19,-347,-365,164,192,-356,-78,-68,-54,-65,-63,-66
-13,-374,-362,194,174,-368,-78,-83,-71,-85,-84,-85
4,-350,-355,173,180,-352,-72,-103,-94,-84,-96,-89
-16,-367,-351,192,168,-359,-69,-96,-86,-85,-100,-94
-45,-390,-345,217,150,-367,-80,-120,-114,-117,-121,-102
-39,-382,-343,211,152,-362,-85,-132,-127,-133,-122,-112
-41,-377,-336,209,148,-357,-81,-127,-119,-126,-134,-116
-37,-373,-336,205,150,-354,-78,-125,-118,-125,-141,-114
-28,-370,-342,199,157,-356,-75,-122,-113,-121,-135,-116
-17,-366,-349,191,166,-357,-73,-120,-110,-119,-133,-114
-13,-364,-351,188,169,-357,-69,-116,-106,-117,-129,-116
-8,-357,-348,183,170,-352,-72,-112,-101,-108,-124,-111
-4,-357,-352,180,174,-354,-74,-100,-92,-106,-123,-111
9,-338,-347,165,178,-342,-59,-108,-94,-96,-108,-109
28,-344,-372,158,200,-357,-5,-13,-1,-30,-78,-82
149,-299,-449,75,299,-374,-380,56,224,222,112,45
493,-195,-689,-148,591,-441,-1478,-243,366,606,512,334
863,-139,-1002,-362,932,-570,-2352,-764,292,857,886,626
1194,-37,-1231,-578,1212,-634,-2629,-1203,123,1042,1268,925
1511,16,-1495,-763,1503,-739,-2843,-1742,-279,1102,1645,1217
1631,-137,-1769,-747,1700,-953,-2886,-2457,-1155,622,1683,1267
1522,-405,-1927,-558,1725,-1166,-2647,-2884,-1982,-54,1499,1155
1361,-582,-1943,-389,1652,-1262,-2263,-2858,-2288,-438,1391,1062
1201,-661,-1863,-270,1532,-1262,-1776,-2417,-2020,-545,1197,901
968,-719,-1687,-125,1328,-1203,-1291,-1798,-1532,-612,714,577
730,-789,-1518,30,1124,-1153,-881,-1270,-1258,-838,123,190
493,-719,-1212,114,853,-966,-455,-694,-828,-755,-204,-61
231,-540,-772,155,502,-656,-76,-239,-362,-445,-279,-165
24,-444,-468,210,246,-456,151,13,-125,-279,-298,-216
-79,-372,-293,225,108,-332,285,164,35,-164,-294,-224
-107,-353,-247,230,70,-300,324,203,73,-141,-294,-224
-126,-349,-223,238,48,-286,351,232,87,-135,-290,-233
-132,-341,-209,237,39,-275,385,253,100,-134,-288,-232
-142,-342,-200,242,29,-270,409,276,101,-136,-297,-240
-139,-331,-192,235,27,-261,446,303,115,-145,-328,-263
-175,-360,-185,267,6,-272,490,336,126,-161,-363,-283
-271,-407,-136,339,-67,-271,544,363,120,-185,-387,-314
-309,-427,-118,368,-95,-272,598,381,108,-219,-424,-342
-339,-436,-96,388,-121,-266,662,417,102,-247,-471,-375
-375,-438,-63,407,-156,-250,728,446,92,-294,-532,-423
-401,-427,-27,414,-187,-227,807,493,99,-320,-577,-449
-444,-423,21,434,-232,-201,888,545,110,-352,-623,-474
-489,-415,74,451,-281,-170,941,601,130,-375,-680,-517
-538,-404,134,471,-336,-135,989,681,194,-357,-721,-541
-560,-378,182,469,-370,-98,1020,771,299,-319,-744,-550
-554,-341,213,447,-383,-64,1018,884,447,-228,-723,-540
-526,-306,220,416,-373,-42,994,1002,629,-84,-667,-505
-450,-244,206,347,-328,-19,955,1084,809,88,-587,-462
-400,-207,194,303,-297,-6,878,1115,955,265,-471,-391
-346,-182,164,263,-255,-9,760,1071,1024,412,-343,-306
-233,-138,94,185,-163,-22,609,961,1002,506,-222,-223
-133,-101,32,117,-82,-34,455,782,904,521,-111,-146
-43,-85,-42,64,0,-63,308,582,724,462,-53,-90
-4,-114,-110,59,53,-112,171,380,503,347,-40,-69
14,-155,-168,71,91,-161,85,201,315,203,-27,-61
-3,-219,-216,111,106,-217,24,83,151,87,-56,-66
-32,-246,-215,139,92,-230,-28,-5,35,3,-111,-99
-19,-244,-225,132,103,-235,-43,-55,-11,-59,-133,-122
-22,-282,-260,153,119,-271,-38,-75,-47,-91,-130,-120
-13,-305,-292,159,140,-298,-48,-90,-84,-103,-129,-116
-19,-317,-298,168,140,-307,-56,-115,-118,-126,-141,-113
-30,-337,-307,184,138,-322,-47,-129,-136,-141,-151,-109
-36,-356,-320,196,143,-338,-39,-123,-143,-150,-149,-105
-32,-352,-319,192,144,-336,-31,-120,-144,-164,-150,-106
-26,-347,-321,186,148,-334,-24,-113,-134,-168,-149,-112
-30,-346,-316,188,143,-331,-20,-109,-133,-164,-150,-114
-9,-337,-329,173,160,-333,-18,-102,-124,-154,-158,-111
2,-348,-350,173,176,-348,-15,-101,-121,-148,-157,-106
-3,-345,-342,175,170,-343,-13,-100,-134,-138,-150,-103
12,-334,-347,161,180,-340,-9,-101,-132,-137,-146,-100
24,-320,-345,148,185,-332,-13,-100,-116,-141,-140,-93
9,-307,-316,149,163,-311,-25,-91,-105,-140,-134,-105
54,-293,-347,120,200,-320,-10,-76,-85,-140,-157,-108
88,-283,-372,98,230,-327,-12,-64,-71,-140,-175,-110
10,-350,-360,171,185,-355,-49,-88,-91,-140,-173,-138
-27,-409,-381,218,177,-395,-70,-111,-114,-140,-171,-144
-18,-408,-390,213,187,-399,-80,-109,-120,-138,-170,-139
-20,-404,-384,212,183,-394,-78,-111,-118,-132,-169,-136
-11,-391,-381,201,185,-386,-72,-109,-114,-127,-164,-132
-5,-380,-376,193,186,-378,-69,-110,-112,-124,-165,-128
6,-366,-372,180,189,-369,-63,-110,-109,-119,-163,-125
16,-351,-367,168,192,-359,-60,-106,-107,-115,-152,-121
26,-338,-364,157,195,-351,-54,-100,-104,-110,-143,-115
31,-328,-359,149,195,-343,-48,-94,-101,-106,-132,-110
35,-322,-357,144,196,-340,-44,-91,-99,-101,-124,-104
35,-316,-351,141,193,-333,-38,-80,-93,-97,-119,-98
40,-310,-350,135,195,-330,-32,-89,-100,-91,-112,-95
45,-305,-350,130,198,-327,-28,-91,-99,-80,-108,-96
52,-297,-349,123,201,-323,-23,-63,-69,-67,-99,-84
61,-291,-352,115,207,-321,-28,-60,-44,-54,-74,-62
65,-280,-345,108,205,-312,-19,-60,-38,-31,-68,-55
113,-280,-393,84,253,-336,-39,-60,-41,-15,-72,-55
126,-314,-440,94,283,-377,-92,-59,-41,-41,-69,-55
105,-329,-434,113,269,-381,-95,-61,-50,-54,-72,-55
103,-329,-432,113,268,-380,-93,-62,-58,-47,-68,-56
74,-369,-444,148,259,-406,-94,-75,-78,-62,-84,-58
21,-397,-418,188,220,-407,-87,-95,-101,-80,-106,-70
-41,-393,-352,217,156,-372,-83,-81,-97,-87,-98,-85
-45,-403,-358,224,157,-380,-79,-104,-113,-104,-117,-99
0,-382,-382,191,192,-382,-74,-121,-126,-116,-133,-106
16,-352,-368,169,192,-360,-71,-110,-117,-110,-128,-105
17,-348,-365,166,191,-356,-66,-107,-115,-108,-131,-102
20,-338,-358,160,189,-348,-65,-101,-110,-103,-129,-100
16,-330,-345,157,181,-337,-66,-99,-106,-100,-131,-100
25,-320,-345,148,185,-332,-59,-92,-101,-97,-125,-97
51,-309,-360,130,205,-334,-63,-94,-100,-91,-120,-93
58,-306,-364,124,211,-334,-54,-81,-95,-88,-112,-90
50,-304,-354,127,203,-329,-53,-91,-94,-82,-107,-87
79,-301,-380,111,230,-340,-3,-8,-20,-28,-92,-80
189,-236,-425,23,307,-330,-284,80,188,193,69,21
479,-145,-624,-166,551,-384,-1330,-191,340,554,429,284
847,-119,-965,-363,906,-542,-2267,-686,319,847,813,569
1198,-41,-1238,-578,1218,-639,-2566,-1116,197,1077,1219,875
1530,28,-1501,-779,1516,-736,-2785,-1657,-181,1171,1642,1202
1667,-77,-1744,-795,1706,-911,-2864,-2374,-1030,753,1734,1292
1579,-341,-1920,-619,1750,-1130,-2630,-2819,-1880,79,1558,1183
1424,-566,-1990,-429,1707,-1278,-2262,-2831,-2242,-344,1420,1073
1265,-649,-1914,-308,1590,-1281,-1788,-2434,-2037,-501,1234,924
981,-710,-1691,-135,1336,-1201,-1300,-1823,-1554,-562,794,633
734,-760,-1494,13,1114,-1127,-877,-1277,-1259,-758,210,261
528,-691,-1219,82,873,-954,-449,-689,-848,-713,-153,-8
246,-528,-774,141,510,-651,-78,-235,-383,-419,-268,-141
32,-441,-473,205,252,-457,164,9,-150,-274,-313,-210
-106,-405,-299,256,96,-352,293,161,23,-165,-321,-229
-138,-380,-243,259,53,-311,311,194,70,-142,-320,-229
-148,-378,-231,263,42,-304,343,222,75,-148,-327,-234
-171,-369,-199,270,14,-284,372,241,86,-144,-323,-245
-186,-365,-179,276,-3,-272,389,261,88,-154,-334,-261
-220,-361,-141,291,-40,-250,448,300,98,-151,-344,-270
-241,-347,-106,294,-67,-226,499,338,111,-157,-344,-279
-268,-335,-67,302,-100,-201,556,378,136,-163,-374,-297
-294,-330,-37,312,-128,-183,617,403,135,-182,-409,-318
-307,-318,-10,313,-148,-164,693,451,135,-203,-445,-334
-338,-311,27,324,-182,-142,769,496,135,-245,-497,-372
-379,-306,73,343,-226,-117,841,530,135,-280,-546,-405
-420,-301,119,360,-269,-90,915,576,138,-306,-591,-429
-478,-294,184,386,-331,-55,975,637,149,-339,-645,-476
-513,-291,222,402,-367,-34,1029,710,198,-343,-691,-503
-507,-260,247,383,-377,-6,1048,802,296,-296,-700,-507
-511,-217,295,364,-403,39,1042,915,444,-200,-692,-505
-502,-204,298,353,-400,47,1014,1025,615,-76,-664,-485
-450,-170,280,310,-365,55,960,1108,789,91,-585,-443
-388,-124,264,255,-326,70,892,1144,943,267,-476,-382
-309,-87,222,198,-266,68,776,1114,1014,406,-359,-306
-221,-72,149,146,-184,38,631,1000,1014,513,-237,-220
-144,-77,67,110,-105,-5,482,830,923,532,-115,-142
-75,-76,-1,76,-37,-38,331,622,743,483,-50,-82
-45,-112,-67,79,11,-89,206,428,538,385,-45,-58
-13,-145,-133,79,60,-139,130,267,346,257,-45,-60
15,-163,-178,74,97,-170,86,144,201,155,-45,-60
37,-170,-207,67,123,-188,46,76,97,78,-44,-64
56,-162,-217,53,137,-189,31,23,31,25,-55,-66
13,-207,-220,97,117,-213,27,-13,-27,-29,-79,-62
8,-234,-241,113,125,-237,18,-38,-54,-49,-93,-60
40,-206,-246,83,143,-226,13,-60,-65,-55,-86,-47
17,-223,-240,103,129,-231,3,-97,-113,-96,-102,-63
-7,-245,-238,126,116,-241,-8,-131,-152,-129,-135,-97
-28,-262,-234,145,103,-248,-22,-140,-169,-149,-145,-104
-80,-309,-228,195,74,-268,-40,-145,-175,-155,-159,-114
-89,-307,-217,198,64,-262,-37,-136,-168,-150,-161,-116
-66,-273,-207,169,71,-240,-26,-125,-159,-141,-158,-114
-44,-247,-202,146,79,-224,-19,-116,-144,-137,-156,-116
-20,-225,-206,123,93,-215,-9,-104,-127,-128,-154,-114
-30,-239,-208,135,89,-223,-2,-90,-110,-108,-154,-115
-60,-270,-211,165,76,-240,8,-76,-87,-102,-145,-107
-77,-280,-203,179,63,-241,15,-62,-71,-78,-138,-102
-66,-277,-211,171,73,-244,23,-51,-60,-58,-131,-96
-23,-270,-248,147,113,-259,29,-47,-55,-57,-130,-92
-12,-251,-239,132,114,-245,25,-41,-55,-50,-130,-87
-24,-264,-240,144,108,-252,17,-38,-53,-47,-112,-83
0,-272,-271,136,136,-271,11,-31,-50,-40,-96,-78
25,-243,-268,109,146,-255,2,-33,-50,-42,-92,-68
24,-239,-263,108,144,-251,-4,-49,-48,-45,-89,-56
20,-241,-262,110,141,-251,5,-51,-39,-45,-86,-44
17,-238,-256,111,137,-247,6,-49,-53,-45,-81,-57
0,-241,-241,121,120,-241,-2,-51,-68,-45,-81,-67
-8,-238,-230,124,111,-234,-6,-48,-64,-50,-86,-65
-5,-236,-231,121,113,-233,-12,-54,-63,-48,-89,-71
-22,-235,-213,129,96,-224,-18,-70,-59,-42,-86,-69
-48,-231,-183,140,68,-207,-17,-68,-61,-38,-74,-63
-51,-215,-164,133,57,-190,-12,-63,-50,-36,-65,-55
-43,-188,-145,116,51,-166,9,-48,-25,-15,-55,-47
-41,-184,-143,112,51,-163,26,-28,-4,9,-37,-39
0,-180,-181,90,91,-180,15,-16,23,31,-29,-35
9,-201,-210,97,110,-205,-10,-7,24,37,-30,-35
-7,-248,-241,128,117,-244,-32,-17,-8,15,-31,-36
-7,-253,-246,131,120,-250,-42,-28,-20,6,-30,-35
-14,-256,-242,135,115,-249,-50,-39,-29,-2,-32,-36
17,-254,-271,119,144,-262,-54,-54,-51,-12,-40,-34
8,-257,-265,125,137,-261,-55,-69,-63,-31,-52,-37
-20,-272,-252,147,116,-262,-54,-83,-74,-56,-71,-55
-12,-261,-249,137,118,-255,-50,-80,-75,-51,-68,-55
-8,-250,-242,129,118,-246,-50,-71,-70,-46,-77,-51
-9,-243,-234,126,112,-238,-44,-67,-68,-43,-90,-48
-27,-239,-212,134,92,-225,-29,-57,-65,-36,-83,-45
-35,-234,-199,134,82,-216,-25,-57,-65,-37,-79,-44
-35,-231,-196,133,81,-213,-21,-59,-65,-50,-72,-39
-34,-225,-191,130,79,-207,-18,-61,-65,-50,-68,-41
-41,-227,-186,134,73,-206,-14,-60,-65,-49,-63,-38
-42,-225,-183,134,71,-204,-9,-59,-66,-51,-68,-42
-41,-211,-170,126,65,-190,-7,-72,-68,-45,-61,-37
-48,-215,-167,132,60,-191,32,44,33,27,-25,-28
120,-125,-245,3,183,-184,-344,159,280,296,165,96
485,-39,-524,-222,505,-281,-1452,-117,422,644,531,364
885,18,-867,-451,877,-425,-2326,-612,384,901,893,630
1274,108,-1166,-691,1219,-529,-2575,-1035,253,1093,1277,918
1603,125,-1477,-864,1540,-676,-2807,-1647,-205,1100,1612,1177
1722,-1,-1723,-860,1723,-862,-2882,-2450,-1146,608,1636,1231
1604,-258,-1862,-673,1733,-1059,-2634,-2926,-1986,-61,1441,1097
1418,-450,-1868,-484,1643,-1159,-2262,-2923,-2262,-423,1295,962
1233,-537,-1770,-348,1502,-1153,-1781,-2465,-1981,-508,1097,810
983,-574,-1557,-204,1270,-1065,-1272,-1816,-1509,-588,644,524
748,-601,-1350,-73,1049,-975,-837,-1257,-1245,-799,107,186
515,-531,-1046,8,781,-788,-397,-644,-804,-681,-175,-35
211,-392,-604,91,408,-498,-12,-177,-337,-381,-235,-130
-28,-297,-269,163,121,-283,225,77,-98,-203,-234,-163
-152,-241,-89,196,-31,-165,352,231,61,-76,-225,-178
-178,-229,-51,204,-63,-140,390,271,102,-62,-233,-188
-211,-217,-6,214,-103,-111,426,306,120,-59,-228,-183
-246,-211,35,228,-140,-88,456,331,136,-61,-229,-187
-249,-207,42,228,-145,-82,479,350,146,-60,-253,-201
-255,-200,55,228,-155,-72,512,371,149,-64,-274,-215
-268,-196,72,232,-170,-62,554,401,146,-89,-292,-229
-305,-189,116,247,-210,-36,615,446,167,-117,-327,-264
-342,-186,155,263,-248,-15,674,482,183,-137,-366,-273
-364,-185,180,274,-271,-2,745,528,178,-160,-406,-292
-402,-183,219,293,-311,18,825,568,182,-201,-446,-338
-445,-172,272,308,-358,50,898,607,179,-231,-499,-366
-472,-162,310,317,-391,74,967,671,183,-258,-549,-398
-514,-155,358,334,-436,101,1035,741,215,-273,-594,-429
-556,-144,412,350,-483,134,1086,820,281,-259,-631,-462
-588,-131,457,359,-522,163,1113,918,388,-220,-635,-464
-574,-80,494,327,-534,207,1125,1047,549,-115,-614,-452
-547,-42,505,294,-525,231,1111,1172,747,42,-567,-433
-484,1,486,241,-485,243,1075,1257,923,209,-485,-377
-383,85,468,149,-426,276,987,1277,1060,378,-369,-308
-323,114,437,104,-380,275,856,1211,1106,515,-261,-232
-234,129,363,53,-299,246,715,1092,1079,593,-126,-148
-145,139,284,3,-215,211,542,901,966,599,-21,-73
-60,129,189,-35,-125,159,383,676,762,534,19,-33
-7,97,105,-45,-56,101,256,472,548,418,47,-13
4,61,57,-32,-27,58,163,303,351,286,35,-9
24,49,25,-37,-1,37,117,196,213,182,23,-11
15,34,19,-25,-2,26,77,121,126,119,14,5
-13,0,13,6,-13,7,55,69,60,66,-3,1
-31,-27,4,28,-17,-11,55,23,14,20,-21,-17
-26,-24,2,25,-14,-10,54,-8,-22,0,-48,-39
-30,-26,4,28,-17,-11,50,-28,-53,-25,-61,-52
-29,-23,5,26,-17,-9,49,-46,-87,-58,-63,-49
-35,-30,5,32,-19,-12,50,-43,-100,-69,-67,-50
-46,-42,4,43,-25,-18,58,-36,-93,-63,-70,-50
-56,-39,17,47,-36,-10,58,-30,-88,-59,-73,-50
-68,-42,27,55,-48,-7,65,-22,-83,-54,-80,-47
-60,-37,24,48,-42,-6,80,-17,-76,-51,-78,-42
-79,-54,26,66,-52,-14,81,-10,-59,-45,-72,-39
-94,-71,24,82,-59,-23,90,-3,-44,-41,-69,-36
-99,-66,33,82,-65,-17,90,6,-30,-29,-64,-29
-96,-59,37,77,-66,-10,85,17,-17,-5,-60,-36
-98,-70,28,84,-63,-21,85,29,-5,10,-55,-51
-118,-95,23,106,-70,-36,78,51,7,25,-47,-45
-103,-87,16,95,-59,-36,86,49,6,29,-41,-40
-90,-81,9,85,-49,-36,91,38,5,21,-34,-37
-77,-74,3,75,-40,-35,78,31,4,19,-27,-31
-70,-70,0,70,-35,-35,67,20,-1,13,-27,-32
-68,-68,0,68,-34,-34,59,16,1,9,-34,-40
-74,-74,0,73,-36,-37,52,11,-3,6,-40,-44
-99,-99,0,99,-49,-49,46,9,-9,1,-44,-40
-93,-93,0,93,-46,-46,37,4,-14,-1,-49,-34
-86,-82,3,84,-44,-39,32,1,-21,-5,-48,-31
-86,-75,11,80,-49,-31,38,-3,-23,-10,-43,-26
-74,-58,16,65,-45,-20,41,-12,-41,-7,-40,-22
-82,-53,29,67,-56,-12,39,-9,-43,2,-34,-17
-78,-36,42,57,-60,3,39,0,-25,13,-27,-11
-72,-13,59,42,-65,23,42,8,-15,21,-21,-5
-59,25,85,17,-72,55,65,15,-5,35,-14,12
-47,37,84,4,-66,60,77,28,12,53,-6,26
-43,22,65,10,-54,43,63,53,36,70,11,30
0,25,24,-13,-12,24,60,71,57,89,40,33
-12,-26,-14,19,1,-19,30,52,44,79,45,28
-9,-42,-32,26,12,-37,-6,23,16,56,29,25
7,-47,-53,20,30,-50,7,12,2,41,20,21
-3,-70,-67,37,32,-68,3,4,-16,25,9,17
4,-61,-66,29,35,-63,-11,-15,-32,18,0,14
-41,-80,-39,61,0,-60,8,-34,-29,13,-10,10
-65,-74,-8,70,-28,-41,18,-31,-27,8,-21,10
-82,-71,11,76,-46,-30,14,-23,-24,1,-22,10
-118,-94,23,106,-70,-35,16,-19,-22,-4,-16,10
-134,-93,41,113,-87,-25,38,-14,-19,-1,-12,10
-145,-78,66,111,-105,-6,48,-9,-17,9,-7,12
-143,-66,77,104,-110,5,43,-8,-15,15,-3,19
-128,-56,72,92,-100,8,47,0,-10,25,2,23
-125,-44,81,84,-103,18,50,-2,-11,28,14,30
-126,-41,85,83,-105,22,61,10,-2,22,21,34
-114,-26,88,70,-101,31,55,10,-7,30,19,42
-102,-29,73,65,-87,22,109,84,60,75,32,45
13,24,12,-19,0,18,-123,200,251,273,170,120
368,146,-222,-257,295,-38,-1153,-40,399,589,495,354
792,203,-589,-497,690,-193,-2182,-549,381,862,865,632
1154,264,-891,-709,1022,-313,-2552,-999,245,1052,1221,894
1515,318,-1196,-916,1355,-439,-2791,-1552,-97,1120,1579,1169
1682,223,-1459,-952,1570,-618,-2909,-2342,-939,747,1677,1268
1587,-35,-1622,-776,1605,-828,-2716,-2921,-1846,72,1481,1135
1418,-240,-1658,-589,1538,-948,-2363,-2999,-2230,-338,1329,1002
1248,-311,-1559,-468,1403,-935,-1892,-2626,-2035,-427,1165,867
974,-347,-1322,-313,1148,-834,-1367,-1964,-1553,-483,764,611
708,-396,-1104,-155,906,-750,-911,-1376,-1282,-722,218,278
458,-385,-843,-37,650,-614,-466,-765,-898,-696,-122,26
127,-245,-371,59,249,-308,-47,-229,-392,-382,-187,-59
-155,-145,10,150,-82,-67,223,55,-123,-192,-203,-117
-337,-98,238,217,-287,70,393,259,82,-51,-188,-151
-366,-70,295,218,-330,112,437,320,141,-14,-182,-141
-380,-69,311,224,-345,121,462,335,150,-21,-193,-150
-411,-55,356,233,-384,150,506,373,178,-10,-188,-149
-393,-48,345,221,-369,148,526,398,183,-12,-201,-150
-420,-67,354,243,-387,143,560,420,204,-21,-201,-162
-432,-74,358,253,-395,142,594,436,198,-46,-225,-195
-436,-62,374,249,-405,156,651,473,201,-53,-257,-214
-477,-59,418,268,-447,179,712,511,200,-66,-281,-230
-511,-49,462,280,-486,206,781,558,199,-86,-324,-254
-552,-48,505,300,-528,228,865,612,206,-106,-357,-267
-614,-47,567,331,-591,260,947,663,214,-135,-404,-306
-692,-57,635,374,-663,289,1032,733,238,-155,-442,-331
-732,-48,683,390,-707,317,1101,821,286,-165,-486,-361
-753,-37,717,395,-735,340,1138,909,353,-168,-534,-404
-792,-31,761,411,-776,365,1174,1020,461,-117,-533,-403
-787,8,796,389,-791,402,1184,1147,612,-22,-531,-401
-749,38,787,355,-768,412,1175,1271,787,106,-490,-390
-687,78,765,304,-726,421,1120,1357,968,268,-410,-336
-629,124,752,252,-691,438,1008,1381,1101,419,-322,-279
-536,174,711,181,-624,442,889,1341,1166,551,-214,-229
-428,195,623,116,-525,408,735,1203,1138,622,-115,-162
-341,202,543,69,-442,373,565,998,1016,619,-14,-99
-247,207,454,20,-351,330,397,763,821,564,49,-52
-201,189,390,5,-296,290,261,524,583,446,53,-37
-177,186,363,-4,-271,274,155,329,370,309,33,-37
-167,143,310,12,-239,226,89,198,206,185,8,-31
-163,112,275,25,-219,193,72,116,99,101,0,-30
-167,108,275,29,-221,191,64,55,32,49,-11,-22
-181,93,274,43,-228,184,60,15,-18,16,-30,-36
-186,83,270,51,-228,176,53,-2,-40,1,-33,-44
-203,67,270,68,-237,169,49,-38,-82,-39,-56,-51
-217,52,269,82,-243,160,45,-81,-116,-70,-92,-80
-234,46,280,94,-257,162,48,-83,-126,-87,-98,-80
-231,41,272,95,-251,156,50,-76,-136,-100,-113,-81
-242,21,263,110,-253,142,50,-69,-121,-88,-116,-87
-227,19,246,104,-237,132,49,-60,-112,-83,-114,-81
-208,21,229,93,-219,125,51,-51,-111,-88,-115,-80
-278,-7,271,142,-274,132,72,-39,-109,-90,-115,-75
-292,-30,262,161,-277,116,75,-10,-85,-71,-113,-72
-287,-42,245,165,-266,101,70,17,-46,-39,-88,-69
-301,-33,268,167,-285,118,67,14,-30,-24,-71,-63
-271,-9,262,139,-266,127,82,31,-24,-16,-64,-57
-278,-24,254,151,-265,115,98,42,-15,-5,-55,-52
-308,-45,263,176,-286,109,93,39,-7,4,-47,-46
-307,-35,271,171,-289,118,91,38,-9,16,-45,-41
-296,-29,267,162,-281,119,90,34,-16,23,-45,-36
-287,-23,264,154,-276,121,83,36,-23,16,-45,-32
-277,-16,262,146,-269,122,62,31,-29,9,-45,-29
-269,-10,259,139,-264,125,52,26,-36,2,-45,-26
-279,-23,257,151,-268,117,46,23,-41,-6,-50,-21
-288,-33,254,160,-271,110,40,17,-39,-13,-49,-19
-282,-27,255,154,-268,113,32,14,-42,-12,-54,-14
-274,-23,251,149,-262,113,28,10,-33,-9,-63,-10
-268,-19,248,143,-258,114,17,7,-39,-10,-55,-8
-268,-14,254,141,-260,119,0,4,-55,-10,-49,-3
-267,12,279,127,-273,145,6,-1,-48,-10,-42,0
-267,53,321,107,-294,187,20,5,-39,-9,-36,5
-248,79,328,84,-288,203,38,15,-16,6,-24,15
-235,76,311,79,-273,194,39,26,-6,29,-15,25
-197,94,291,51,-244,192,36,33,0,30,-15,35
-153,97,251,28,-202,174,4,24,-7,22,-17,37
-149,85,234,32,-192,159,-36,12,-22,14,-28,34
-160,84,244,38,-202,163,-28,1,-41,6,-15,35
-200,43,244,78,-222,144,-21,-11,-62,-2,-17,34
-201,16,218,92,-210,117,-16,-24,-59,-25,-36,35
-225,7,232,108,-229,119,-9,-32,-58,-12,-27,33
-297,-2,296,149,-296,147,-11,-38,-67,-15,-46,0
-337,-26,311,181,-324,142,-8,-37,-76,-46,-72,-30
-340,-51,288,195,-314,118,-5,-30,-73,-32,-63,-30
-314,-13,302,163,-308,144,-6,-27,-71,-28,-58,-30
-301,15,317,142,-309,166,-2,-21,-66,-35,-66,-29
-296,-12,284,153,-290,136,0,-19,-67,-35,-71,-24
-290,-34,256,161,-273,111,7,-14,-60,-35,-70,-26
-272,11,283,130,-278,147,6,-23,-59,-35,-70,-23
-256,35,290,110,-273,162,16,-18,-77,-45,-69,-19
-254,25,279,114,-266,152,12,-22,-78,-36,-72,-22
-251,36,287,107,-269,161,37,2,-38,-6,-58,-5
-210,26,236,92,-223,130,63,117,78,88,10,33
-35,158,193,-62,-114,175,-493,-35,179,331,237,188
307,278,-29,-293,168,124,-1649,-628,112,608,643,497
657,305,-353,-481,505,-24,-2437,-1242,-97,793,1041,812
989,418,-571,-703,780,-77,-2690,-1629,-288,993,1469,1143
1292,445,-847,-868,1070,-201,-2837,-2099,-749,983,1855,1446
1358,291,-1067,-824,1212,-388,-2746,-2620,-1574,431,1864,1496
1197,22,-1175,-609,1186,-576,-2415,-2821,-2208,-212,1680,1388
969,-162,-1130,-403,1050,-646,-2001,-2670,-2380,-579,1519,1264
729,-242,-971,-243,850,-606,-1496,-2138,-1980,-672,1181,992
474,-356,-830,-58,652,-593,-1030,-1521,-1468,-714,583,582
248,-399,-647,76,448,-523,-638,-972,-1131,-815,28,204
27,-281,-308,128,168,-294,-224,-395,-617,-585,-210,-9
-211,-155,57,183,-134,-49,81,-31,-232,-308,-271,-119
-389,-97,292,243,-340,97,254,162,-43,-161,-279,-174
-446,-54,391,250,-419,168,330,269,75,-60,-262,-167
-444,-29,415,236,-429,193,356,292,98,-71,-261,-172
-444,-3,441,224,-442,218,397,332,138,-52,-248,-169
-438,-1,436,219,-437,217,426,372,163,-49,-246,-171
-454,9,463,222,-459,236,468,402,186,-45,-282,-192
-442,42,483,200,-463,262,492,432,195,-44,-314,-208
-460,23,483,218,-471,253,557,476,205,-40,-325,-220
-481,8,489,236,-485,248,620,527,233,-41,-336,-227
-491,29,520,230,-506,274,671,571,249,-72,-372,-250
-531,41,572,244,-551,306,757,624,260,-88,-406,-274
-545,44,589,250,-568,316,826,676,271,-114,-453,-304
-594,30,624,281,-609,327,899,729,286,-140,-512,-347
-656,17,673,319,-665,345,960,786,308,-185,-577,-398
-716,6,721,355,-719,363,1006,831,329,-197,-654,-450
-759,-32,727,395,-742,347,1041,907,401,-179,-683,-477
-807,-29,778,418,-792,375,1058,993,517,-140,-702,-480
-822,33,855,394,-839,444,1042,1077,658,-23,-688,-479
-775,76,851,349,-813,463,1000,1165,820,121,-640,-461
-710,159,868,276,-789,513,949,1209,980,295,-542,-399
-620,226,847,197,-734,536,867,1191,1067,455,-404,-319
-559,231,789,164,-674,510,719,1090,1053,551,-294,-238
-482,268,750,107,-616,509,548,930,982,581,-165,-140
-380,285,665,47,-523,474,399,727,826,553,-59,-60
-314,276,590,19,-452,433,282,544,633,491,13,-8
-275,250,525,13,-400,387,179,371,426,357,28,26
-274,219,494,27,-384,356,99,217,243,227,-12,24
-273,204,477,34,-375,340,74,142,124,135,-36,19
-250,187,437,32,-343,311,51,77,50,54,-53,18
-246,183,429,31,-337,305,39,39,12,9,-64,11
-242,182,423,30,-332,302,35,18,-30,-20,-82,11
-263,156,419,54,-342,287,29,1,-77,-35,-89,3
-279,136,415,72,-347,275,27,-3,-97,-53,-92,0
-278,132,410,73,-344,271,20,-17,-114,-65,-95,-14
-294,108,402,93,-349,255,23,-34,-134,-80,-110,-36
-288,97,385,95,-337,241,25,-48,-128,-90,-117,-35
-296,88,384,103,-340,236,31,-52,-130,-94,-113,-35
-307,78,386,114,-346,231,47,-55,-139,-103,-129,-32
-293,89,383,102,-338,235,45,-37,-113,-84,-127,-29
-297,95,393,101,-345,244,48,-4,-81,-58,-110,-30
-313,88,400,112,-357,244,68,17,-61,-37,-101,-24
-310,85,395,112,-353,240,74,32,-54,-24,-95,-17
-312,80,393,116,-352,236,88,43,-39,-9,-89,-11
-314,74,388,120,-351,230,100,45,-26,3,-84,-4
-295,91,385,101,-340,238,92,51,-23,12,-78,2
-282,92,374,95,-328,233,86,52,-17,28,-71,6
-275,71,346,102,-311,208,79,43,-12,24,-65,5
-280,58,338,111,-309,198,72,37,-4,20,-56,5
-294,40,334,127,-314,187,66,29,-27,18,-68,5
-302,26,328,138,-316,177,59,23,-44,13,-78,4
-309,17,327,146,-318,172,53,15,-37,11,-81,6
-289,27,316,131,-303,171,46,10,-44,6,-85,-14
-299,41,340,129,-320,190,40,2,-54,2,-81,-32
-320,35,355,142,-338,195,35,-4,-60,-5,-76,-29
-324,32,356,146,-340,193,30,-11,-62,-6,-74,-30
-324,29,352,147,-338,190,26,-15,-72,-14,-70,-26
-310,48,358,131,-334,202,22,-7,-76,-13,-64,-25
-313,72,386,120,-350,229,16,-9,-72,1,-76,-25
-339,59,398,140,-369,228,14,12,-63,-7,-64,-20
-344,63,407,140,-376,235,3,15,-44,14,-47,-15
-265,88,353,88,-309,220,2,20,-37,29,-52,-11
-230,76,307,76,-269,191,-18,21,-49,6,-50,-7
-251,64,316,94,-284,189,-50,-18,-61,-1,-50,-1
-249,58,308,95,-279,183,-43,-21,-61,-4,-52,-3
-254,48,302,102,-278,175,-36,-28,-74,-8,-69,-12
-256,68,324,94,-290,196,-31,-31,-71,-12,-71,-19
-283,65,348,109,-316,206,-23,-24,-63,-14,-63,-27
-296,44,340,126,-318,192,-18,-25,-87,-31,-84,-35
-297,41,337,128,-317,189,-10,-19,-94,-42,-97,-38
-300,35,335,132,-317,185,-5,-20,-87,-35,-94,-52
-298,30,328,134,-314,179,3,-15,-81,-34,-91,-57
-313,22,335,145,-324,178,11,-13,-76,-30,-90,-44
-311,23,334,143,-322,178,18,-11,-79,-29,-93,-36
-313,22,335,145,-325,178,28,-7,-80,-31,-96,-30
-320,14,335,152,-328,174,31,-6,-86,-29,-95,-25
-337,-1,335,169,-336,167,34,-11,-81,-32,-103,-20
-346,-9,337,178,-342,163,19,-20,-75,-25,-94,-13
-312,-32,279,172,-295,123,46,60,-2,29,-52,-10
-215,18,233,98,-224,125,-173,89,150,221,94,74
81,172,91,-126,-5,131,-1135,-263,235,553,453,337
453,260,-193,-356,323,33,-2133,-849,133,826,874,659
773,344,-428,-558,600,-42,-2488,-1275,-41,1042,1292,989
1078,407,-672,-742,875,-132,-2670,-1690,-349,1160,1724,1323
1239,322,-917,-780,1078,-298,-2723,-2279,-1123,775,1867,1453
1187,86,-1101,-636,1144,-507,-2495,-2663,-1945,71,1700,1367
991,-152,-1142,-419,1067,-647,-2133,-2678,-2323,-407,1548,1246
825,-238,-1063,-293,944,-650,-1666,-2305,-2120,-555,1377,1096
623,-285,-907,-169,765,-596,-1188,-1688,-1575,-561,919,781
393,-365,-758,-13,575,-561,-786,-1163,-1239,-711,296,366
196,-337,-533,71,365,-435,-393,-630,-837,-677,-103,60
-81,-200,-119,141,19,-160,-25,-168,-363,-380,-243,-92
-310,-110,200,210,-255,45,202,76,-112,-204,-267,-163
-439,-59,380,248,-409,160,319,218,43,-87,-264,-185
-481,-42,439,261,-459,199,367,262,81,-59,-262,-177
-487,-41,446,264,-467,203,395,291,100,-70,-259,-182
-521,-26,495,273,-508,234,423,319,108,-61,-256,-190
-505,-10,495,257,-500,242,450,340,115,-69,-256,-196
-482,0,482,240,-482,241,494,377,148,-63,-280,-225
-527,-14,512,270,-519,249,537,408,144,-70,-292,-237
-574,-37,536,305,-555,249,583,436,143,-77,-323,-250
-595,-52,543,323,-569,245,644,471,152,-87,-368,-285
-600,-50,550,325,-575,250,715,515,174,-120,-397,-306
-603,-37,565,320,-584,264,785,551,177,-153,-431,-323
-612,-3,609,307,-610,303,861,597,172,-186,-479,-358
-641,10,650,315,-646,330,941,654,185,-220,-534,-394
-697,15,712,341,-705,363,1002,718,208,-229,-585,-428
-728,41,769,343,-749,405,1052,794,270,-217,-634,-456
-765,48,813,358,-789,430,1083,882,368,-176,-638,-455
-782,74,856,354,-819,465,1078,988,512,-89,-621,-448
-770,105,875,332,-823,490,1066,1091,684,43,-593,-430
-728,153,880,287,-804,516,1014,1170,855,218,-507,-378
-638,214,852,212,-745,533,930,1210,1006,388,-400,-313
-579,207,786,185,-682,496,818,1170,1057,535,-275,-236
-495,215,709,140,-602,461,665,1035,1028,618,-139,-150
-390,254,643,68,-517,448,505,860,927,623,-49,-91
-321,234,555,43,-439,395,345,649,727,569,5,-49
-269,195,465,37,-367,330,218,438,508,435,29,-33
-278,138,416,70,-348,277,131,268,302,292,7,-35
-277,106,383,85,-330,245,72,150,144,175,-34,-37
-267,99,365,84,-316,232,35,85,45,99,-65,-58
-301,64,365,118,-333,214,13,25,-28,47,-87,-68
-297,67,364,115,-331,216,9,-18,-66,-5,-99,-84
-285,74,360,105,-323,217,7,-37,-94,-26,-95,-97
-285,75,360,105,-323,217,4,-54,-118,-52,-110,-97
-284,75,358,104,-321,216,1,-72,-139,-71,-126,-102
-289,65,355,112,-322,210,-1,-91,-162,-86,-132,-104
-296,59,354,118,-325,206,6,-99,-182,-108,-142,-109
-305,50,355,127,-330,202,12,-91,-181,-105,-137,-110
-309,46,355,131,-332,200,19,-84,-171,-95,-133,-110
-316,39,354,138,-335,196,25,-78,-168,-88,-151,-110
-329,34,363,147,-346,199,33,-70,-153,-80,-161,-110
-326,28,354,149,-340,191,36,-61,-137,-81,-155,-109
-309,22,331,143,-321,177,44,-50,-125,-78,-151,-104
-320,-1,318,160,-319,158,57,-40,-113,-67,-150,-100
-339,-35,305,187,-322,135,48,-35,-110,-60,-150,-98
-340,-42,297,191,-318,127,36,-36,-111,-57,-145,-93
-344,-52,292,198,-318,120,21,-35,-110,-54,-145,-90
-336,-49,287,193,-312,119,3,-36,-111,-50,-144,-102
-320,-39,281,179,-300,121,-5,-33,-109,-45,-140,-106
-311,-35,276,173,-293,120,-10,-47,-113,-48,-138,-101
-283,-5,278,144,-280,136,-14,-56,-118,-55,-135,-99
-269,12,282,128,-276,147,-19,-56,-114,-55,-132,-96
-270,20,291,125,-281,155,-23,-66,-126,-55,-130,-94
-267,36,303,115,-286,169,-28,-63,-138,-56,-127,-91
-293,28,322,132,-308,175,-30,-76,-135,-53,-121,-88
-308,30,339,139,-324,184,-35,-85,-135,-64,-117,-86
-274,60,334,106,-305,197,-35,-76,-135,-67,-112,-82
-262,78,340,92,-301,209,-35,-72,-135,-54,-107,-80
-274,96,370,88,-322,233,-30,-64,-130,-43,-103,-77
-233,130,362,51,-298,246,1,-46,-102,-21,-98,-63
-213,120,332,46,-273,226,5,-37,-79,5,-90,-54
-195,110,306,42,-251,208,-2,-27,-57,26,-83,-51
-169,97,265,36,-217,181,-14,-32,-56,23,-76,-46
-184,34,219,75,-201,126,-59,-33,-87,2,-70,-47
