I,II,III,aVR,aVL,aVF,V1,V2,V3,V4,V5,V6
-14,21,35,-4,-25,27,169,110,50,-5,45,76
-24,8,32,8,-28,19,164,109,50,-9,46,67
-12,14,26,-1,-19,20,158,105,46,-25,50,71
34,54,21,-44,6,37,150,102,45,-24,45,104
5,20,15,-13,-5,17,142,97,40,-19,45,95
-20,-11,9,15,-15,-1,136,94,40,-17,44,93
-39,-23,16,31,-27,-3,144,102,51,-12,40,90
-22,0,22,11,-22,10,155,102,58,-11,41,84
15,32,17,-23,-1,24,155,96,64,-14,37,86
-8,7,15,0,-12,11,155,91,66,-15,35,84
8,19,11,-13,-2,15,155,86,64,-16,35,86
14,24,10,-19,2,17,155,80,61,-29,31,84
-9,4,13,2,-11,8,154,75,59,-41,29,85
6,25,19,-16,-7,22,150,98,60,-40,30,85
-31,-6,25,18,-28,9,146,106,60,-40,25,80
-49,-23,26,35,-37,1,140,98,60,-40,26,80
-4,19,23,-8,-14,21,135,98,60,-40,23,79
-23,-3,20,13,-22,8,129,91,60,-38,20,75
-14,7,20,4,-17,13,123,91,60,-34,21,75
22,40,18,-31,2,28,122,94,56,-36,14,75
-6,22,28,-8,-17,25,126,95,50,-31,23,75
-10,18,27,-4,-19,22,142,95,45,-30,24,75
-19,2,21,8,-20,11,157,95,39,-30,20,75
-20,-4,16,12,-18,6,153,96,33,-37,17,75
17,27,10,-22,4,18,150,92,31,-32,12,75
5,10,5,-8,0,8,148,88,35,-30,10,70
-40,-42,-3,41,-18,-22,138,82,35,-50,-7,70
-26,-9,18,17,-22,4,133,79,35,-45,6,68
-22,8,30,7,-26,18,124,73,35,-37,16,65
-40,-30,10,35,-25,-10,118,71,36,-21,2,65
12,24,12,-18,0,18,109,92,28,-40,-4,63
1,45,44,-24,-22,44,106,96,10,-57,-9,55
0,46,46,-23,-23,46,125,94,38,-28,2,49
14,35,21,-24,-4,28,103,95,51,-31,12,67
-28,-14,14,21,-21,0,116,96,37,-24,21,77
37,38,1,-38,18,19,170,116,66,-19,39,85
51,45,-6,-48,28,19,170,122,75,-19,52,92
-12,-40,-28,26,8,-34,158,119,65,-13,49,89
41,0,-41,-20,41,-20,153,135,59,-13,50,104
116,93,-22,-104,69,35,126,132,54,-7,59,113
123,74,-49,-98,86,12,87,101,38,-27,53,105
110,57,-53,-83,81,2,84,81,23,-42,45,95
61,43,-18,-51,39,12,113,90,54,-39,33,80
26,40,14,-33,6,26,136,91,61,-32,29,76
-9,14,23,-2,-17,19,132,88,46,-34,14,59
-3,12,15,-5,-9,14,123,103,53,-21,13,58
-28,13,42,7,-35,28,113,84,31,-33,-5,42
-30,11,41,9,-35,26,134,108,47,-50,5,46
19,75,55,-47,-18,65,139,80,52,-42,48,103
-30,11,41,10,-36,26,150,108,52,-38,29,62
-56,98,155,-21,-106,126,263,152,98,-36,-7,-9
28,135,106,-82,-39,120,347,429,365,227,230,228
819,384,-435,-601,626,-25,59,785,772,1054,1162,1177
1119,753,-366,-936,742,193,-280,119,474,1119,1306,1402
253,388,135,-321,59,262,-135,-548,-218,152,243,356
-148,15,164,66,-156,90,-31,-541,-518,-371,-266,-171
-159,-64,96,111,-127,16,-65,-401,-447,-388,-272,-175
-92,-27,65,59,-78,19,31,-95,-163,-203,-129,-73
-13,38,51,-13,-32,45,126,59,-7,-89,-25,12
-32,25,57,4,-45,41,170,92,27,-94,-48,-26
-24,18,42,3,-33,30,162,101,43,-54,-11,-2
-39,8,47,15,-44,27,166,103,46,-54,0,-1
2,36,34,-19,-16,35,165,120,74,-40,13,13
16,49,34,-33,-9,41,164,125,80,-38,-6,-7
-3,62,65,-29,-34,63,166,127,80,-35,31,4
-39,21,60,9,-50,40,163,122,80,-34,46,20
4,44,40,-24,-18,42,166,143,91,-36,45,34
57,96,39,-77,9,67,164,142,93,-34,58,28
-12,35,47,-11,-29,40,166,128,82,-36,44,-17
-38,20,58,9,-48,39,165,151,109,-29,46,-12
31,79,48,-55,-9,63,163,192,140,-25,38,-7
61,96,35,-78,12,65,191,198,139,-22,34,-3
53,92,39,-72,7,65,209,203,143,-14,44,13
67,118,52,-92,7,84,204,238,169,7,66,20
78,128,50,-103,14,89,203,260,195,23,74,19
72,121,49,-96,11,84,200,287,220,36,85,45
81,136,55,-108,12,95,199,337,270,75,119,72
106,166,60,-136,23,113,211,358,302,99,143,71
113,184,71,-149,21,127,214,374,316,98,142,79
134,210,76,-173,29,143,218,394,355,142,175,100
150,225,75,-188,38,149,215,398,364,176,212,129
176,252,76,-215,50,163,176,390,353,162,206,143
180,275,95,-227,42,184,143,356,341,200,243,167
135,242,107,-189,14,174,126,311,337,224,273,195
143,244,102,-194,20,173,113,264,333,207,269,200
188,288,100,-238,44,194,107,204,286,196,265,193
196,290,94,-243,50,192,86,131,234,168,229,155
147,244,97,-196,25,170,76,68,183,138,210,134
103,195,92,-149,5,143,53,20,133,100,172,97
89,190,101,-140,-6,146,46,-6,97,73,134,59
86,182,96,-134,-6,139,71,-18,70,52,139,56
92,165,73,-129,9,118,76,-34,57,35,128,40
74,162,88,-118,-7,125,74,-32,52,19,112,23
69,162,93,-115,-12,127,40,-41,49,3,97,11
75,161,86,-118,-6,124,58,-53,46,28,114,30
77,174,97,-126,-10,135,105,-49,40,2,117,27
73,188,114,-131,-21,151,103,-51,41,-43,96,12
51,168,116,-110,-33,142,99,-50,57,-30,97,4
46,159,114,-103,-34,136,73,-50,58,-22,96,-13
28,146,118,-87,-45,132,72,-57,48,-16,82,-2
28,148,120,-88,-46,134,64,-52,44,6,80,13
32,155,123,-94,-46,139,25,-53,34,-3,121,21
57,183,126,-121,-35,155,46,-72,32,-16,127,19
86,203,117,-144,-16,160,71,-77,44,11,111,25
65,176,111,-121,-23,143,48,-73,46,14,107,30
50,150,100,-101,-25,125,38,-78,42,-8,94,20
58,143,85,-101,-14,114,34,-82,40,-12,91,20
86,194,108,-140,-12,151,23,-89,39,3,86,11
64,181,118,-123,-27,149,20,-89,35,-20,84,-14
42,155,113,-99,-36,134,7,-75,30,-30,79,-24
60,172,113,-116,-27,142,8,-89,29,-3,76,-14
80,188,109,-134,-15,148,43,-103,22,-22,72,-19
97,208,111,-152,-7,159,57,-94,21,-25,70,2
93,195,102,-144,-5,148,42,-94,15,-36,69,14
104,201,97,-153,4,148,42,-88,16,-25,64,-11
75,163,88,-119,-7,125,25,-83,10,-20,66,-20
47,130,83,-89,-18,106,-17,-101,-28,-42,55,-32
81,152,71,-117,5,111,16,-110,-21,-4,63,-27
80,162,82,-121,-1,121,47,-102,5,-29,75,-26
62,179,117,-120,-28,148,26,-97,4,-32,65,-32
62,161,100,-112,-19,130,19,-92,-12,-29,60,-22
54,145,91,-100,-18,118,11,-85,-39,-57,53,-15
37,148,111,-93,-38,129,3,-84,-39,-35,44,-20
46,155,108,-100,-31,131,-1,-98,-31,-40,42,-32
47,158,111,-103,-32,134,-10,-110,-27,-49,22,-30
59,168,109,-114,-25,138,-14,-110,-20,-55,29,-30
69,180,111,-124,-22,145,2,-111,-21,-56,50,-30
57,161,104,-109,-24,132,-1,-106,-19,-51,32,-30
84,158,74,-121,5,116,-4,-105,-16,-51,29,-28
50,139,88,-95,-19,113,-18,-105,-15,-50,27,-25
35,131,96,-84,-31,113,-42,-99,-17,-47,22,-25
73,170,96,-122,-12,133,-28,-108,-16,-40,20,-26
66,158,92,-113,-13,124,-17,-113,-6,-35,15,-24
45,97,52,-71,-4,74,-12,-101,1,-30,13,-27
99,150,50,-125,24,100,-2,-104,9,-21,27,-31
182,226,43,-204,69,134,-6,-105,14,-26,46,-13
161,185,24,-174,69,104,-30,-110,-2,-45,41,9
147,163,16,-155,65,89,-58,-112,-16,-46,37,9
141,148,7,-145,67,77,-68,-115,-42,-41,34,-4
97,138,41,-118,28,90,-58,-117,-53,-35,26,-14
72,151,78,-112,-3,114,-56,-110,-44,-49,23,-38
73,142,69,-108,2,105,-61,-127,-49,-76,7,-76
77,136,60,-107,8,98,-63,-120,-36,-65,14,-67
40,131,91,-86,-26,111,-61,-130,-47,-74,-1,-71
45,132,87,-89,-21,109,-39,-101,-36,-68,1,-72
42,136,93,-89,-26,114,-35,-115,-65,-70,10,-63
42,117,76,-80,-17,96,-10,-89,-29,-71,-15,-68
5,141,136,-73,-66,138,57,-14,39,-85,-61,-108
15,163,148,-90,-67,156,135,164,272,114,90,2
696,497,-199,-596,447,149,-106,465,755,1245,1335,1182
1020,898,-123,-960,572,387,-470,-58,449,1680,1868,1768
298,592,294,-446,2,443,-314,-637,-308,403,470,488
-79,208,287,-65,-183,247,-107,-591,-630,-454,-341,-274
-85,70,155,7,-121,113,-137,-517,-596,-475,-342,-273
-72,20,92,26,-82,56,-125,-270,-297,-304,-239,-216
40,110,70,-75,-15,89,-59,-115,-99,-141,-80,-92
29,100,72,-64,-22,86,-34,-82,-35,-116,-82,-98
40,108,68,-74,-15,88,-34,-57,-16,-88,-51,-73
54,125,72,-90,-9,98,-27,-65,-19,-98,-65,-83
28,96,68,-62,-21,82,-55,-52,-3,-94,-57,-78
43,114,72,-79,-15,93,-54,-53,10,-91,-52,-72
54,132,77,-93,-12,104,-48,-39,30,-89,-60,-78
48,124,77,-86,-15,100,-47,-29,30,-82,-49,-75
40,110,69,-75,-15,89,-38,-26,29,-82,-66,-82
40,105,65,-73,-13,85,-36,-27,32,-75,-71,-72
34,93,59,-63,-13,76,-31,-19,28,-75,-67,-73
35,89,53,-62,-9,71,-26,-3,32,-79,-54,-68
76,126,50,-101,13,88,-31,30,41,-80,-41,-63
79,129,50,-104,14,89,-32,40,52,-65,-56,-81
73,123,50,-98,11,86,-18,54,84,-52,-60,-80
69,119,50,-94,10,84,-11,88,110,-44,-52,-65
51,102,50,-76,0,76,-1,118,132,-32,-51,-60
80,129,49,-105,15,89,5,155,158,-12,-30,-55
100,154,55,-127,22,104,16,195,193,18,-7,-46
68,127,60,-98,4,93,18,224,224,30,-8,-23
83,150,67,-117,8,108,7,246,251,56,26,17
167,226,59,-196,54,142,19,275,279,95,60,35
172,231,59,-201,56,144,-9,282,290,108,64,41
128,211,83,-170,22,147,-34,280,301,125,89,70
124,206,82,-165,20,144,-22,264,283,120,90,77
168,246,77,-207,45,161,-21,231,254,112,96,82
190,262,73,-227,58,167,-27,177,223,106,99,83
136,222,86,-179,25,153,-82,104,178,99,82,74
106,202,95,-154,5,148,-117,48,130,92,70,60
85,161,76,-123,4,118,-105,9,87,56,43,37
98,161,64,-129,17,112,-112,-14,57,38,22,18
94,144,50,-119,22,97,-108,-47,29,21,4,-11
10,52,42,-31,-16,47,-108,-77,-11,-25,-36,-46
46,84,38,-66,4,61,-121,-80,-32,-48,-68,-73
85,117,32,-101,26,74,-112,-85,-27,-53,-70,-76
93,119,26,-107,33,73,-99,-86,-21,-55,-80,-74
63,85,22,-75,20,53,-90,-81,-22,-49,-92,-75
-4,10,15,-3,-10,12,-82,-79,-42,-73,-89,-79
59,71,11,-65,24,41,-72,-75,-45,-88,-90,-81
69,72,2,-71,33,36,-75,-75,-36,-83,-90,-77
31,35,4,-33,13,19,-78,-75,-35,-86,-89,-74
11,38,27,-25,-8,32,-74,-75,-28,-84,-87,-72
4,29,25,-17,-11,27,-64,-75,-25,-80,-75,-69
7,19,13,-13,-3,16,-65,-75,-33,-73,-75,-68
28,37,9,-33,10,23,-95,-74,-49,-69,-94,-86
36,50,14,-43,10,32,-102,-69,-51,-63,-96,-91
12,24,12,-18,-1,18,-98,-66,-49,-57,-94,-89
39,44,6,-42,16,24,-84,-63,-51,-54,-96,-95
26,29,3,-28,11,16,-77,-58,-47,-56,-94,-95
24,21,-3,-22,13,9,-86,-55,-56,-67,-97,-95
35,29,-6,-31,20,11,-75,-59,-67,-71,-100,-95
4,-7,-11,2,8,-9,-88,-66,-64,-71,-100,-95
15,0,-16,-7,15,-8,-102,-70,-65,-77,-102,-95
41,21,-20,-31,30,1,-99,-69,-65,-71,-105,-95
26,1,-25,-13,25,-11,-101,-73,-65,-72,-105,-95
-5,-34,-29,20,12,-31,-100,-80,-69,-90,-101,-92
-5,-36,-30,20,13,-33,-97,-80,-70,-90,-100,-89
12,-18,-30,3,21,-23,-93,-80,-70,-91,-100,-86
5,-25,-30,10,18,-27,-90,-80,-70,-95,-100,-83
-1,-31,-30,16,15,-30,-87,-80,-71,-95,-100,-80
5,-25,-30,10,18,-27,-83,-80,-68,-95,-101,-81
10,-20,-30,5,21,-25,-81,-80,-65,-95,-105,-85
14,-16,-30,1,22,-23,-79,-80,-62,-95,-105,-87
-1,-31,-30,16,15,-30,-80,-80,-59,-95,-107,-90
9,-21,-30,6,20,-25,-80,-80,-57,-95,-111,-90
-1,-31,-30,16,14,-30,-79,-80,-52,-94,-109,-89
-30,-60,-30,45,0,-45,-81,-76,-61,-93,-111,-91
7,-23,-30,8,18,-26,-77,-71,-61,-82,-109,-88
-22,-65,-43,43,11,-54,-88,-69,-71,-102,-111,-95
-19,-70,-51,45,16,-60,-74,-64,-86,-101,-109,-106
49,0,-50,-25,50,-25,-49,-61,-78,-77,-111,-105
14,-38,-53,12,34,-45,-55,-59,-74,-94,-130,-104
8,-47,-55,20,32,-51,-69,-62,-68,-99,-144,-100
-9,-66,-57,38,24,-61,-75,-68,-62,-102,-153,-100
-21,-66,-46,44,13,-56,-62,-63,-58,-105,-151,-97
40,-18,-58,-11,49,-38,-58,-53,-52,-98,-144,-95
18,-54,-72,18,45,-63,-73,-47,-49,-94,-141,-94
6,-64,-70,29,39,-67,-86,-38,-43,-87,-132,-90
7,-61,-68,27,37,-65,-83,-31,-39,-81,-132,-90
-8,-82,-73,45,33,-77,-68,-21,-36,-72,-131,-83
31,-66,-97,18,64,-81,-64,-13,-32,-62,-129,-75
57,-46,-103,-5,80,-74,-60,-18,-30,-57,-130,-67
62,-44,-106,-9,84,-75,-52,-12,-23,-62,-129,-65
65,-51,-116,-7,90,-83,-92,-35,-33,-65,-131,-65
73,-62,-134,-5,104,-98,-98,-55,-50,-59,-128,-65
66,-59,-126,-3,96,-92,-64,-57,-43,-52,-125,-64
42,-57,-99,7,71,-78,-69,-52,-35,-50,-125,-66
-35,-109,-74,72,20,-92,-80,-57,-57,-80,-139,-95
-45,-113,-68,79,11,-90,-75,-46,-53,-93,-149,-107
3,-67,-70,32,37,-68,-62,-49,-56,-77,-136,-93
-33,-91,-58,62,13,-75,-49,-45,-53,-83,-142,-96
-13,-82,-69,48,28,-75,-45,-35,-46,-65,-128,-84
-36,-84,-48,60,6,-66,-42,-52,-58,-73,-134,-82
-60,-104,-44,82,-8,-73,-20,19,-3,-65,-135,-92
-110,-31,79,70,-94,24,92,98,88,-46,-144,-129
186,86,-100,-136,142,-7,182,593,562,505,389,351
960,467,-493,-713,726,-12,-160,626,809,1408,1395,1366
857,606,-251,-731,554,177,-471,-373,84,963,1030,1134
147,138,-9,-142,78,65,-377,-808,-605,-170,-132,31
-123,-145,-22,134,-50,-83,-301,-635,-683,-478,-425,-267
-133,-168,-35,150,-49,-101,-220,-369,-420,-338,-326,-210
-47,-150,-103,99,28,-126,-106,-112,-162,-178,-216,-164
-58,-137,-79,97,11,-108,-27,-29,-79,-122,-165,-122
-62,-132,-71,97,5,-101,-3,21,-42,-98,-159,-102
8,-63,-71,28,39,-67,-5,46,-20,-82,-139,-68
-9,-77,-68,43,30,-73,9,60,-15,-78,-134,-82
-24,-96,-72,60,24,-84,10,66,14,-62,-119,-79
-16,-84,-68,50,26,-76,23,76,26,-62,-121,-79
-31,-102,-71,66,21,-86,30,80,13,-56,-115,-75
-35,-104,-69,70,18,-86,30,88,40,-55,-113,-72
-33,-103,-70,68,19,-86,34,102,53,-51,-111,-70
-27,-98,-70,63,21,-84,35,105,48,-50,-108,-73
-28,-97,-69,63,21,-83,38,123,56,-46,-105,-76
-21,-93,-71,57,26,-81,45,153,76,-34,-105,-74
-16,-87,-72,52,28,-79,45,164,90,-26,-103,-76
-3,-65,-63,34,30,-64,56,193,120,-15,-99,-74
2,-69,-71,33,37,-70,60,222,152,-6,-102,-76
-31,-104,-73,68,21,-88,67,255,176,3,-89,-68
-18,-80,-63,49,22,-71,104,303,214,11,-57,-46
-12,-71,-59,42,24,-65,131,340,240,21,-30,-22
-9,-58,-49,33,21,-53,137,406,286,63,-7,-4
39,-8,-47,-15,43,-27,129,449,326,98,13,12
62,12,-50,-37,56,-18,122,464,349,115,35,37
95,44,-50,-70,72,-3,114,486,380,147,70,64
128,79,-49,-103,88,14,108,480,407,175,101,94
111,65,-46,-87,78,9,98,463,402,200,114,103
106,62,-44,-83,75,8,80,436,375,210,122,109
135,88,-47,-111,91,21,65,384,349,202,133,130
136,86,-50,-111,93,18,29,310,310,196,128,124
106,52,-53,-79,79,-1,0,225,262,182,107,107
81,20,-62,-50,71,-21,-11,163,202,147,95,94
74,9,-65,-41,69,-27,-18,112,150,109,66,68
13,-57,-70,22,42,-63,-36,63,93,75,18,30
-5,-88,-84,47,40,-86,-56,40,64,40,-10,6
31,-56,-87,13,59,-71,-40,31,64,20,-16,-1
2,-89,-92,43,47,-90,-33,19,28,9,-26,-13
19,-76,-95,29,57,-86,-30,11,19,-2,-34,-20
3,-92,-95,45,49,-93,-24,-1,19,-15,-41,-33
-24,-123,-99,74,37,-111,-37,-14,13,-26,-57,-56
22,-79,-100,28,61,-89,-41,-16,13,-25,-60,-59
-13,-113,-100,63,44,-106,-40,-12,8,-25,-54,-52
-32,-132,-100,82,34,-115,-37,-10,19,-25,-53,-47
-8,-109,-101,59,46,-105,-34,-6,20,-25,-46,-41
-14,-112,-98,63,42,-105,-36,-5,20,-25,-47,-36
-11,-107,-96,59,42,-101,-29,-9,18,-21,-55,-35
-16,-108,-92,62,39,-100,-32,-10,14,-18,-50,-36
-9,-99,-90,54,41,-94,-44,-11,16,-15,-45,-32
-37,-124,-87,81,25,-105,-46,-14,11,-12,-40,-43
-31,-114,-83,73,27,-99,-44,-16,10,-10,-33,-51
20,-86,-106,33,63,-95,-41,-15,10,-8,-30,-42
6,-111,-117,53,62,-114,-40,-26,5,-5,-30,-40
0,-114,-114,58,57,-114,-39,-29,5,-5,-30,-35
9,-106,-116,49,63,-111,-35,-29,4,-5,-30,-30
10,-104,-115,48,63,-109,-34,-47,-2,-5,-30,-34
16,-98,-115,41,66,-106,-32,-52,-7,-12,-30,-35
16,-95,-110,39,64,-102,-27,-48,-13,-19,-34,-35
0,-110,-110,55,55,-110,-44,-53,-19,-27,-41,-35
-5,-115,-110,60,53,-112,-56,-60,-24,-28,-45,-35
-24,-134,-110,79,44,-122,-47,-60,-25,-25,-48,-37
-48,-157,-109,103,31,-133,-43,-60,-25,-25,-43,-33
-25,-137,-112,81,44,-124,-35,-60,-25,-25,-38,-27
-16,-137,-121,77,53,-129,-50,-59,-25,-25,-32,-23
-19,-138,-118,78,50,-128,-45,-62,-26,-25,-27,-16
-34,-149,-115,92,41,-132,-24,-66,-23,-33,-20,-11
-21,-134,-113,78,46,-123,-24,-65,-20,-36,-22,-16
13,-96,-109,41,61,-102,-18,-65,-18,-35,-43,-33
-18,-127,-109,73,45,-118,-42,-78,-13,-35,-45,-42
-40,-142,-102,91,31,-122,-56,-86,-23,-35,-46,-40
-32,-134,-102,83,35,-117,-55,-84,-31,-34,-56,-40
-22,-132,-110,77,44,-121,-66,-85,-29,-29,-51,-40
-14,-123,-110,68,48,-116,-44,-85,-30,-31,-46,-40
-16,-122,-106,69,45,-113,-18,-85,-34,-28,-43,-40
-9,-113,-103,61,47,-108,-37,-82,-36,-24,-37,-36
-10,-110,-100,60,45,-105,-36,-79,-32,-26,-36,-34
-5,-104,-99,54,48,-101,-14,-76,-30,-21,-40,-31
-14,-114,-101,64,44,-107,-31,-73,-27,-20,-40,-28
-20,-119,-99,70,39,-109,-41,-70,-25,-19,-40,-25
3,-98,-102,47,53,-100,-38,-69,-28,-22,-40,-25
-25,-122,-98,74,37,-110,-47,-61,-35,-26,-43,-34
-24,-126,-103,75,40,-114,-44,-54,-39,-20,-48,-32
-2,-110,-108,56,53,-109,-34,-47,-24,-15,-52,-24
-16,-106,-91,61,38,-98,-27,-40,3,-9,-39,-18
17,-104,-120,44,69,-112,-28,-30,12,-3,-24,-10
24,-113,-137,45,81,-125,-32,-20,7,1,-20,-5
29,-112,-141,42,85,-126,-27,-11,2,6,-19,6
80,-82,-162,1,121,-122,-35,-8,-1,9,-16,21
104,-57,-161,-23,133,-109,-47,-23,-10,18,-13,27
62,-107,-170,23,116,-138,-68,-29,-31,14,-25,13
18,-115,-133,48,76,-124,-57,-28,-37,1,-18,6
8,-100,-108,46,58,-103,-25,-15,-21,-5,-18,-2
-60,-162,-102,111,21,-132,-41,-20,-24,-34,-58,-36
-59,-161,-103,110,22,-132,-35,-2,-8,-41,-59,-43
-21,-118,-97,70,38,-108,-22,-9,-9,-31,-50,-34
-52,-146,-94,99,21,-120,-13,-7,-21,-28,-51,-38
-44,-142,-97,93,27,-119,-16,-8,-23,-16,-37,-28
-38,-109,-72,74,17,-90,-13,-4,6,-16,-40,-32
-66,-117,-51,92,-8,-83,44,63,35,-19,-46,-47
-149,-69,79,109,-114,5,169,186,145,23,-34,-55
346,95,-251,-220,299,-78,189,767,697,694,628,561
1062,446,-615,-753,838,-84,-214,584,778,1335,1401,1378
718,477,-241,-598,480,118,-444,-467,-27,642,754,852
62,17,-45,-40,53,-13,-303,-727,-596,-259,-178,-57
-113,-207,-94,160,-9,-150,-267,-526,-590,-402,-295,-216
-104,-198,-94,152,-5,-146,-170,-244,-301,-247,-201,-147
-63,-184,-121,124,30,-152,-50,-6,-93,-112,-111,-70
-33,-138,-104,86,36,-121,-9,66,-26,-70,-77,-52
-15,-119,-104,67,45,-111,14,101,-1,-50,-58,-42
-33,-127,-94,80,31,-110,31,103,23,-44,-43,-32
-45,-139,-94,92,25,-116,44,132,49,-33,-42,-38
-42,-132,-90,87,25,-111,27,132,44,-22,-38,-32
-45,-132,-87,89,21,-109,24,145,61,-16,-43,-37
-44,-128,-84,86,20,-106,11,160,66,-6,-37,-33
-48,-139,-90,94,21,-114,9,152,62,0,-44,-38
-37,-139,-102,88,33,-120,63,180,90,4,-54,-41
-36,-130,-94,84,29,-112,83,209,102,-3,-51,-38
-41,-131,-90,86,25,-111,78,221,99,-5,-44,-34
-23,-109,-87,66,33,-98,81,227,108,2,-39,-31
-42,-122,-80,82,20,-101,78,248,119,16,-34,-27
-32,-115,-83,74,26,-99,97,299,158,40,-22,-14
-22,-113,-91,68,35,-102,91,316,169,36,-11,-4
-2,-88,-86,45,42,-87,97,354,192,41,2,12
43,-38,-81,-2,62,-60,124,413,245,73,13,29
13,-63,-76,26,45,-70,140,449,260,87,25,46
27,-42,-69,8,48,-56,155,501,299,108,53,63
54,-12,-66,-20,60,-39,144,531,334,129,76,72
50,-9,-59,-20,55,-34,155,558,342,148,92,85
81,20,-61,-51,71,-20,165,592,372,178,125,112
130,72,-58,-101,94,7,147,600,404,221,169,150
157,102,-55,-129,106,23,129,569,400,242,175,162
140,85,-55,-112,97,15,101,522,373,233,181,165
134,81,-53,-108,93,14,65,462,351,230,191,171
121,73,-49,-97,85,12,28,380,316,227,175,160
99,56,-43,-77,71,6,15,300,269,207,158,159
68,14,-54,-41,61,-20,1,219,200,165,127,140
6,-42,-48,19,27,-45,-6,160,142,125,93,101
-4,-67,-62,36,29,-64,-17,121,109,94,70,84
35,-49,-85,7,60,-67,-16,98,82,72,56,80
22,-56,-78,17,50,-66,-6,83,70,58,45,61
-16,-97,-81,56,33,-89,-30,70,60,47,29,29
15,-70,-85,28,50,-77,-3,67,49,35,18,18
-13,-100,-86,57,37,-93,1,61,42,26,12,14
-39,-122,-83,81,22,-102,-19,58,37,21,7,9
-1,-81,-80,41,40,-80,5,52,35,16,4,6
-48,-126,-78,87,15,-102,-2,48,30,13,-2,-1
-61,-136,-75,99,7,-105,-6,45,27,7,-5,8
-48,-121,-73,85,13,-97,4,44,23,6,0,12
-54,-124,-70,89,8,-96,8,54,29,13,0,7
-46,-112,-66,79,11,-89,17,52,36,19,1,2
-48,-112,-65,81,8,-88,17,46,31,20,-5,1
-46,-106,-60,76,7,-82,12,41,28,20,-13,13
-39,-100,-61,70,11,-80,6,34,25,20,-8,15
-42,-107,-65,75,12,-86,1,30,20,20,-5,15
-41,-107,-66,75,13,-86,-5,23,18,20,-2,14
-42,-103,-61,73,9,-82,-11,16,14,18,3,25
-27,-86,-60,56,17,-73,-19,9,12,15,5,31
-20,-99,-79,59,30,-89,-29,1,9,12,-1,25
-38,-119,-82,79,22,-100,-9,-6,6,10,7,23
-15,-86,-71,51,28,-78,2,-10,4,6,17,18
-22,-90,-67,56,23,-78,-12,-11,1,5,13,15
-31,-99,-69,65,19,-84,-14,-15,-8,0,11,12
-12,-82,-70,47,29,-76,-16,-15,-17,-8,7,6
-3,-74,-71,39,34,-72,-15,-15,-20,4,5,2
1,-75,-75,37,38,-75,-15,-15,-23,5,3,-2
-39,-115,-75,78,18,-95,-27,-23,-27,-10,-6,-8
-44,-116,-73,80,15,-94,-32,-31,-35,-19,-14,-9
-14,-82,-69,48,28,-75,-26,-30,-35,-21,-16,-5
-14,-79,-65,47,25,-71,-24,-30,-30,-19,-15,-4
-15,-77,-62,46,24,-69,-19,-30,-30,-21,-15,-1
-36,-92,-57,64,11,-74,-16,-30,-23,-19,-14,2
-46,-101,-55,74,5,-78,-17,-28,-30,-22,-16,-12
-27,-87,-60,57,17,-73,-22,-21,-31,-13,-14,-13
-32,-90,-58,61,13,-73,-18,-14,-30,-12,-17,-11
-43,-102,-59,73,9,-80,-19,-8,-50,-30,-29,-23
-43,-103,-61,73,9,-82,-21,0,-50,-27,-25,-16
-39,-96,-57,68,10,-77,25,3,-45,-21,-17,-2
-40,-94,-54,67,8,-74,76,2,-44,-18,-12,10
-57,-114,-56,86,0,-85,96,-2,-39,-13,-3,10
-60,-125,-65,92,3,-95,109,4,-42,-8,-1,-1
-47,-111,-64,79,9,-87,117,7,-45,-16,-7,-5
-46,-106,-60,76,7,-83,112,-2,-45,-25,-22,-17
-40,-97,-57,69,9,-77,110,25,-45,-21,-25,-21
-37,-89,-52,64,8,-71,125,36,-45,-16,-18,-17
-54,-104,-50,79,-2,-77,132,24,-45,-14,-15,-15
-56,-111,-55,84,0,-83,129,20,-42,-23,-9,-11
-49,-104,-55,77,3,-79,128,12,-37,-21,-6,-11
-45,-100,-56,73,6,-78,124,5,-35,-10,-1,-6
-40,-101,-61,70,11,-81,127,17,-30,-4,6,1
-40,-98,-58,69,9,-78,142,47,-27,5,12,8
-38,-104,-65,71,13,-84,148,56,-25,11,20,14
-35,-87,-52,61,8,-69,152,57,-28,16,23,21
-3,-65,-61,34,29,-63,144,67,-21,23,34,41
26,-64,-90,20,58,-77,119,58,-22,23,32,43
40,-58,-98,9,69,-77,120,28,-51,12,17,29
31,-73,-103,21,67,-88,120,10,-61,5,9,20
-14,-67,-53,41,19,-60,119,7,-61,-6,-2,6
-50,-79,-29,64,-10,-53,122,15,-58,-13,2,0
-65,-88,-23,76,-21,-55,116,0,-66,-27,-5,-9
-46,-61,-16,54,-15,-38,133,2,-67,-23,-4,-6
-54,-60,-7,57,-23,-33,137,-11,-72,-24,-12,-8
-74,-72,2,73,-38,-34,144,10,-59,-33,-40,-35
-77,-71,6,74,-41,-33,136,0,-65,-25,-27,-23
-94,-90,4,92,-49,-43,141,15,-50,-30,-12,-9
-108,-60,48,84,-78,-6,189,82,4,-22,-27,-32
-149,-14,135,82,-142,60,301,221,151,77,21,-3
477,158,-319,-317,398,-80,178,689,584,773,788,759
1131,568,-562,-849,846,3,-231,373,561,1218,1355,1409
476,460,-16,-469,246,222,-171,-451,-104,420,485,579
-192,-1,192,96,-192,95,-10,-596,-582,-306,-262,-178
-221,-130,91,175,-156,-19,-73,-490,-610,-390,-301,-221
-191,-156,34,173,-112,-61,6,-241,-361,-267,-231,-183
-126,-123,4,124,-65,-59,86,-36,-164,-119,-105,-75
-119,-95,24,107,-71,-36,135,22,-93,-82,-83,-70
-96,-94,1,95,-49,-46,146,47,-73,-57,-65,-62
-71,-49,22,60,-47,-14,163,46,-51,-54,-54,-51
-99,-67,32,83,-65,-18,172,59,-44,-48,-51,-37
-98,-75,24,86,-61,-25,161,47,-46,-41,-48,-34
-88,-64,25,76,-56,-19,162,45,-30,-38,-52,-41
-66,-49,17,57,-41,-16,154,61,-25,-30,-48,-31
-72,-56,16,64,-44,-20,150,76,-17,-43,-51,-33
-105,-88,17,96,-61,-35,154,78,-11,-46,-53,-27
-67,-46,21,57,-44,-12,158,78,-5,-41,-56,-26
-69,-50,19,59,-44,-16,158,84,4,-39,-55,-26
-90,-68,22,79,-56,-23,169,104,11,-36,-55,-33
-87,-49,38,68,-62,-5,171,110,21,-34,-55,-32
-92,-52,40,72,-66,-6,165,116,28,-29,-54,-30
-70,-36,34,52,-52,-1,170,152,47,-18,-39,-28
-70,-38,33,54,-51,-2,189,190,72,-12,-25,-25
-80,-53,27,66,-53,-13,196,215,95,2,-18,-23
-61,-36,25,48,-42,-6,186,256,130,22,4,0
-30,6,36,12,-33,20,187,294,159,42,35,26
-23,18,42,2,-33,30,204,310,180,63,46,36
-5,41,46,-19,-26,43,202,335,202,82,63,58
52,95,43,-74,4,69,187,341,226,120,96,82
50,105,55,-78,-3,80,178,341,248,146,121,107
40,111,71,-76,-16,91,165,336,249,162,153,141
53,115,62,-84,-5,88,148,292,234,166,161,145
71,130,60,-101,5,94,125,241,194,150,153,138
83,132,49,-108,17,90,88,172,150,141,152,137
41,106,65,-74,-12,85,63,91,124,124,139,124
2,89,87,-46,-43,88,65,32,83,102,116,102
-24,53,76,-15,-50,65,65,-16,33,65,84,65
-15,57,71,-21,-43,64,65,-49,-15,32,57,37
-15,49,64,-17,-40,56,65,-68,-38,16,37,24
-45,13,58,15,-51,35,66,-90,-37,0,12,10
-45,7,52,19,-49,29,75,-97,-57,-13,-5,-2
-49,1,49,24,-49,25,73,-97,-67,-23,-12,-13
-74,-32,42,52,-57,5,68,-101,-72,-36,-23,-25
-99,-48,52,73,-75,2,67,-112,-87,-52,-38,-39
-98,-27,71,62,-84,22,59,-116,-90,-56,-43,-41
-91,-28,63,59,-77,17,67,-111,-84,-54,-44,-36
-91,-33,58,62,-75,12,80,-110,-82,-56,-40,-35
-77,-23,54,50,-65,15,72,-105,-77,-54,-40,-30
-73,-29,44,51,-58,8,65,-105,-75,-56,-38,-30
-91,-32,59,61,-74,13,59,-100,-88,-60,-34,-35
-81,-9,72,45,-76,31,52,-106,-90,-60,-35,-35
-86,-17,69,51,-77,26,47,-128,-90,-60,-35,-35
-95,-24,71,59,-83,23,45,-126,-90,-60,-35,-35
-91,-23,68,57,-80,22,44,-126,-90,-59,-35,-35
-76,2,78,36,-77,40,40,-147,-98,-62,-35,-35
-68,18,86,25,-77,52,39,-154,-97,-66,-38,-36
-119,-39,80,79,-99,20,41,-154,-110,-74,-47,-37
-90,-12,78,51,-84,33,37,-150,-117,-81,-44,-35
-60,14,73,22,-66,43,52,-149,-114,-80,-47,-34
-103,-33,70,68,-87,18,57,-159,-114,-80,-58,-30
-90,-24,67,57,-78,21,45,-166,-108,-80,-52,-29
-94,-32,62,63,-78,15,34,-172,-112,-81,-66,-47
-111,-52,59,82,-85,3,20,-177,-108,-75,-78,-57
-106,-50,56,78,-81,3,42,-174,-116,-79,-71,-49
-105,-54,50,79,-77,-2,53,-176,-135,-95,-70,-48
-85,-34,51,59,-68,8,45,-189,-134,-95,-76,-43
-101,-42,59,71,-80,8,45,-197,-136,-96,-94,-39
-110,-44,67,77,-88,11,40,-193,-140,-101,-96,-45
-103,-35,68,69,-85,16,40,-199,-140,-99,-94,-47
-102,-34,68,68,-84,17,35,-221,-138,-103,-95,-57
-105,-26,79,65,-91,26,33,-226,-134,-105,-95,-57
-103,-25,77,64,-90,26,29,-224,-136,-105,-95,-51
-88,-17,71,52,-79,27,26,-225,-131,-109,-94,-44
-104,-36,68,69,-86,16,22,-225,-130,-110,-101,-41
-100,-37,63,68,-81,12,8,-234,-129,-109,-115,-66
-91,-33,58,62,-75,13,21,-236,-126,-106,-120,-71
-90,-25,65,57,-77,20,26,-234,-125,-101,-116,-63
-104,-27,76,65,-89,24,18,-245,-124,-99,-113,-63
-127,-55,71,91,-99,8,14,-251,-136,-94,-109,-56
-129,-60,68,94,-98,4,8,-246,-138,-91,-106,-55
-133,-68,65,100,-98,-2,1,-241,-130,-87,-102,-55
-100,-40,60,70,-80,10,6,-238,-126,-85,-96,-55
-106,-48,58,77,-82,5,39,-231,-120,-85,-89,-55
-120,-69,51,94,-85,-9,52,-233,-115,-85,-83,-55
-109,-63,46,86,-78,-8,49,-241,-123,-85,-76,-56
-102,-63,39,83,-71,-11,51,-231,-118,-79,-70,-52
-81,-46,36,63,-58,-5,49,-212,-108,-73,-84,-44
-83,-58,25,70,-54,-16,51,-199,-97,-67,-92,-38
-73,-59,14,65,-43,-22,46,-200,-88,-64,-88,-30
-49,-46,3,47,-26,-21,34,-201,-81,-65,-92,-24
-37,-46,-9,42,-14,-28,20,-197,-69,-61,-88,-12
-12,-31,-20,22,4,-25,10,-213,-99,-60,-92,-19
6,-36,-42,15,24,-39,-3,-218,-114,-59,-106,-39
-38,-54,-16,46,-11,-35,-9,-224,-105,-66,-111,-40
-92,-66,26,79,-59,-20,4,-213,-93,-64,-110,-41
-117,-80,37,98,-77,-21,10,-219,-94,-68,-109,-44
-107,-74,33,90,-70,-20,25,-211,-97,-72,-112,-51
-127,-86,42,106,-84,-22,22,-213,-95,-69,-114,-57
-160,-104,56,132,-108,-24,36,-212,-93,-81,-123,-63
-126,-83,43,104,-84,-20,46,-197,-80,-67,-104,-59
-121,-74,47,97,-84,-13,25,-219,-93,-84,-111,-69
-130,-73,56,101,-93,-8,61,-133,-52,-66,-118,-71
-216,-35,181,125,-199,73,167,-78,15,-56,-156,-125
163,106,-57,-135,110,24,190,383,450,484,386,392
941,462,-479,-701,710,-9,-193,436,709,1309,1337,1369
698,562,-137,-630,417,212,-366,-452,120,837,889,1026
-46,158,204,-56,-125,180,-172,-812,-464,-141,-148,14
-253,-119,134,185,-193,8,-187,-757,-636,-422,-410,-243
-240,-146,93,193,-166,-26,-131,-549,-438,-335,-361,-208
-189,-130,59,159,-123,-35,-32,-260,-169,-161,-213,-130
-161,-93,68,127,-114,-13,35,-175,-69,-101,-168,-84
-144,-80,65,112,-104,-7,84,-129,-23,-81,-161,-75
-136,-73,64,104,-100,-4,68,-130,-12,-67,-150,-62
-137,-70,67,103,-102,-1,75,-119,-6,-67,-160,-63
-123,-62,60,92,-91,-1,65,-115,-10,-63,-150,-49
-118,-57,62,87,-90,2,67,-110,11,-67,-159,-48
-117,-59,58,88,-87,0,64,-102,18,-64,-151,-46
-117,-59,58,87,-87,0,55,-99,17,-66,-151,-46
-109,-56,53,82,-81,-2,74,-90,35,-63,-147,-43
-100,-43,58,71,-79,7,93,-80,51,-58,-143,-38
-138,-69,69,103,-103,0,96,-68,50,-55,-160,-55
-152,-86,66,119,-109,-10,98,-41,49,-51,-165,-66
-115,-56,59,85,-87,2,105,0,63,-48,-158,-56
-107,-52,55,79,-81,1,97,22,76,-44,-155,-53
-94,-46,48,70,-70,1,101,49,100,-36,-150,-41
-88,-41,47,64,-67,2,120,89,128,-22,-146,-49
-84,-35,50,59,-67,7,144,137,151,-13,-138,-42
-82,-32,50,57,-66,9,172,188,188,1,-118,-18
-92,-42,49,67,-70,3,169,238,219,34,-105,-17
-72,-21,52,46,-62,15,172,283,249,61,-78,17
-49,6,55,21,-52,30,176,318,276,83,-46,48
-18,37,55,-10,-37,46,165,339,297,109,-28,66
1,56,55,-29,-28,56,155,330,317,130,-8,80
17,71,54,-45,-19,63,144,318,310,152,7,105
44,106,61,-75,-8,83,113,309,294,169,27,122
47,112,65,-80,-9,88,94,257,280,166,29,113
50,107,58,-79,-4,83,94,186,257,155,17,126
40,94,55,-67,-8,75,60,116,221,137,4,120
18,68,50,-43,-16,59,42,48,170,102,-25,96
-4,41,45,-19,-25,43,46,-2,118,69,-51,78
-54,-9,45,31,-49,18,44,-45,74,37,-84,40
-113,-68,45,90,-79,-11,50,-73,39,8,-112,7
-120,-75,45,97,-82,-15,50,-89,14,-8,-126,-6
-120,-75,45,97,-82,-15,49,-91,6,-18,-139,-20
-132,-86,45,108,-88,-20,44,-87,-1,-30,-154,-30
-133,-89,44,110,-88,-22,38,-85,-8,-41,-160,-38
-169,-128,40,149,-104,-44,35,-81,-14,-41,-160,-56
-165,-127,38,145,-101,-44,29,-79,-20,-37,-154,-59
-140,-105,35,122,-87,-35,26,-76,-15,-31,-158,-49
-137,-105,32,121,-84,-37,27,-75,-15,-35,-175,-48
-123,-93,30,108,-76,-32,37,-75,-14,-46,-173,-38
-118,-91,27,104,-72,-32,54,-75,-10,-43,-169,-39
-104,-80,24,91,-64,-27,55,-75,-10,-40,-166,-53
-115,-89,25,101,-70,-32,48,-75,-13,-37,-161,-48
-138,-113,25,125,-81,-44,45,-75,-27,-35,-159,-38
-131,-106,25,118,-78,-40,40,-77,-35,-34,-155,-35
-131,-105,26,118,-78,-39,36,-81,-35,-44,-155,-35
-124,-100,24,112,-74,-37,31,-84,-35,-57,-155,-33
-114,-96,18,105,-65,-39,30,-86,-35,-54,-155,-29
-105,-95,10,100,-57,-42,30,-84,-35,-55,-155,-30
-87,-82,5,84,-46,-38,30,-88,-35,-55,-155,-34
-109,-113,-4,111,-52,-58,31,-90,-45,-55,-154,-35
-135,-135,-1,135,-67,-67,29,-90,-56,-52,-158,-38
-133,-125,8,129,-70,-59,25,-90,-58,-49,-159,-39
-125,-121,4,123,-65,-58,25,-84,-63,-49,-167,-48
-131,-126,5,128,-68,-60,22,-91,-64,-41,-176,-56
-126,-121,5,123,-65,-58,20,-102,-65,-55,-175,-54
-111,-106,5,108,-58,-50,20,-98,-74,-76,-174,-55
-126,-121,5,123,-65,-58,24,-95,-76,-71,-177,-55
-144,-143,0,143,-72,-71,29,-93,-73,-68,-185,-55
-149,-149,0,149,-74,-74,25,-89,-70,-65,-185,-51
-132,-132,0,132,-66,-66,23,-93,-69,-59,-184,-50
-130,-130,0,130,-64,-64,19,-102,-72,-63,-185,-50
-151,-151,0,151,-76,-75,17,-105,-79,-70,-185,-52
-166,-168,-3,167,-82,-85,14,-116,-89,-75,-185,-65
-160,-165,-5,163,-77,-85,16,-122,-90,-75,-185,-65
-148,-153,-5,151,-71,-78,25,-116,-90,-75,-185,-65
-137,-143,-5,140,-66,-74,22,-115,-90,-74,-185,-65
-147,-156,-10,152,-68,-83,1,-111,-90,-76,-185,-65
-168,-178,-10,173,-79,-93,7,-109,-89,-73,-185,-64
-163,-174,-11,168,-75,-92,35,-122,-86,-70,-181,-61
-166,-182,-16,175,-75,-99,29,-129,-81,-68,-174,-59
-160,-174,-14,168,-73,-94,22,-120,-79,-63,-168,-53
-131,-155,-24,143,-53,-89,30,-112,-74,-77,-161,-66
-138,-168,-31,153,-53,-99,24,-104,-70,-85,-154,-75
-119,-141,-23,130,-48,-82,18,-97,-73,-76,-149,-64
-113,-134,-20,124,-46,-76,10,-95,-77,-73,-150,-60
-147,-162,-15,155,-66,-88,5,-94,-87,-66,-162,-53
-132,-142,-10,137,-61,-76,-4,-90,-91,-60,-159,-44
-142,-156,-14,149,-64,-85,-10,-90,-92,-66,-146,-55
-155,-174,-20,165,-67,-97,-2,-83,-96,-76,-140,-65
-153,-180,-27,167,-63,-103,-3,-75,-94,-80,-132,-72
-133,-161,-28,147,-52,-94,-3,-67,-87,-80,-127,-79
-101,-125,-24,113,-38,-74,5,-59,-78,-74,-119,-69
-124,-137,-14,131,-55,-75,8,-50,-73,-70,-113,-60
-108,-132,-24,121,-42,-78,17,-25,-64,-70,-107,-53
-76,-114,-38,95,-19,-76,30,-16,-66,-69,-102,-47
-68,-111,-43,90,-13,-77,21,-13,-63,-71,-99,-47
-50,-110,-60,80,5,-85,-13,-20,-70,-68,-92,-39
-36,-108,-71,72,18,-89,-44,-50,-93,-72,-91,-40
-44,-124,-80,84,18,-102,-51,-49,-96,-66,-93,-31
-85,-129,-44,107,-20,-87,-22,-52,-110,-62,-100,-39
-124,-136,-12,130,-56,-73,-17,-46,-109,-79,-98,-70
-137,-139,-2,138,-67,-71,-15,-54,-112,-96,-91,-69
-115,-114,1,114,-57,-57,24,-46,-108,-94,-90,-67
-119,-108,10,113,-64,-48,12,-49,-112,-89,-80,-61
-171,-155,16,163,-94,-69,8,-40,-108,-91,-84,-64
-160,-143,17,151,-88,-63,-5,-29,-101,-80,-68,-56
-158,-138,20,148,-89,-59,12,-41,-106,-91,-87,-70
-165,-126,39,145,-102,-43,68,35,-59,-81,-95,-91
-209,-33,176,121,-192,71,164,145,55,-19,-61,-92
261,91,-170,-176,216,-40,128,631,520,612,587,531
1033,470,-562,-751,797,-46,-280,513,656,1283,1414,1414
638,492,-147,-565,392,172,-362,-391,-1,652,775,869
-124,36,160,44,-142,98,-166,-661,-567,-258,-193,-100
-284,-185,99,235,-191,-43,-188,-573,-677,-463,-343,-284
-238,-202,36,220,-137,-82,-137,-334,-446,-345,-275,-238
-135,-136,-2,136,-67,-69,-29,-74,-218,-187,-153,-133
-143,-122,21,133,-82,-50,24,-15,-144,-145,-115,-102
-156,-137,19,147,-87,-59,17,31,-98,-119,-94,-90
-148,-128,20,138,-84,-54,29,33,-81,-103,-85,-88
-149,-129,20,139,-84,-54,30,51,-72,-95,-84,-91
-140,-120,20,130,-79,-50,40,69,-71,-87,-71,-81
-141,-121,19,131,-80,-51,73,62,-67,-92,-71,-89
-130,-116,14,122,-72,-51,59,72,-62,-98,-60,-78
-130,-114,15,121,-72,-49,49,91,-59,-87,-61,-76
-126,-111,15,118,-70,-48,47,102,-67,-83,-56,-69
-120,-105,15,112,-67,-45,78,110,-64,-89,-54,-65
-120,-105,15,112,-67,-45,88,111,-52,-80,-51,-58
-116,-97,18,106,-67,-39,83,137,-42,-76,-49,-58
-119,-98,20,109,-69,-39,90,148,-33,-71,-45,-67
-108,-88,20,98,-64,-34,90,164,-18,-64,-38,-59
-98,-79,19,89,-58,-30,89,199,20,-60,-31,-57
-99,-76,23,88,-60,-26,87,225,44,-45,-25,-51
-84,-50,34,67,-59,-7,83,259,60,-40,-14,-47
-82,-34,48,58,-65,7,96,305,104,-22,27,-38
-41,-8,33,24,-37,12,122,351,133,3,42,-1
-15,27,42,-6,-29,35,122,373,148,4,48,-6
-6,76,82,-35,-44,79,112,408,195,58,99,22
20,100,80,-60,-30,90,105,425,226,93,130,73
26,104,78,-65,-26,91,98,414,235,105,151,86
37,114,77,-76,-20,95,84,411,236,137,175,112
42,114,72,-79,-15,93,62,378,212,140,173,104
71,151,80,-111,-5,115,42,313,186,149,191,110
47,139,92,-93,-23,115,25,260,156,141,195,122
33,122,89,-78,-28,105,-4,196,114,127,181,116
54,133,79,-94,-13,106,-24,125,66,108,156,97
-9,66,75,-29,-42,70,-5,79,10,44,105,58
-2,62,64,-30,-33,63,-10,41,-38,11,83,36
-24,38,62,-7,-43,50,-29,8,-61,1,71,11
-85,-27,57,56,-71,15,-38,-21,-98,-39,41,-19
-51,19,70,16,-60,44,-48,-36,-102,-59,15,-36
-57,23,80,17,-69,51,-36,-35,-89,-52,1,-33
-32,10,41,11,-37,25,-6,-35,-118,-62,-6,-41
-53,-12,41,32,-47,14,-20,-35,-130,-79,-19,-60
-79,-11,68,45,-73,28,-33,-46,-124,-81,-12,-62
-81,-18,63,49,-71,23,-5,-51,-117,-78,-11,-64
-101,-34,67,67,-84,16,-23,-49,-123,-91,-51,-74
-25,38,63,-7,-45,50,-45,-51,-132,-102,-44,-80
-52,15,67,18,-60,41,-37,-50,-127,-96,-17,-74
-64,-5,60,34,-62,27,-40,-50,-125,-94,-24,-70
-29,17,46,6,-38,31,-49,-50,-122,-90,-19,-66
-52,21,73,16,-63,46,-34,-50,-119,-86,-18,-60
-31,46,78,-8,-55,62,-18,-50,-124,-80,-14,-51
-30,35,65,-3,-48,50,-19,-50,-131,-74,-11,-39
-35,27,62,4,-49,44,-36,-50,-136,-70,-10,-34
-31,21,51,5,-41,36,-53,-50,-139,-58,1,-32
-54,-8,46,31,-50,18,-55,-71,-145,-65,-22,-50
-46,17,63,14,-54,39,-67,-96,-150,-81,-39,-68
-14,58,72,-22,-44,65,-58,-94,-150,-79,-32,-62
-21,48,69,-14,-45,58,-44,-91,-155,-80,-31,-61
-27,44,71,-9,-49,57,-46,-88,-155,-80,-27,-57
-31,39,70,-4,-50,54,-44,-85,-151,-80,-25,-55
-28,42,70,-7,-49,56,-46,-84,-150,-78,-23,-53
-3,59,63,-28,-33,60,-45,-78,-150,-74,-19,-49
-6,48,54,-21,-30,51,-45,-89,-164,-75,-21,-51
-4,41,44,-19,-24,42,-63,-102,-171,-75,-19,-48
-16,29,46,-7,-31,37,-72,-99,-162,-75,-20,-67
-58,-7,51,33,-55,22,-69,-100,-160,-76,-20,-77
-33,17,50,8,-41,33,-71,-100,-154,-86,-15,-74
-12,48,61,-18,-37,54,-70,-100,-151,-84,-11,-79
-37,20,58,8,-47,39,-70,-97,-153,-81,-4,-80
-47,-6,41,26,-44,17,-64,-93,-162,-78,-16,-81
-36,0,36,18,-36,18,-53,-97,-180,-75,-32,-62
-10,16,26,-3,-18,21,-56,-92,-180,-75,-30,-38
-11,27,39,-8,-25,33,-61,-103,-179,-55,-28,-37
-22,41,64,-10,-43,52,-55,-115,-180,-73,-26,-60
-30,14,44,7,-37,29,-53,-107,-180,-99,-22,-77
-14,20,34,-3,-24,27,-49,-131,-178,-91,-29,-71
15,47,33,-32,-9,40,-44,-143,-172,-90,-10,-67
11,51,39,-31,-14,45,-55,-138,-168,-86,22,-65
1,60,59,-31,-29,60,-66,-141,-164,-82,15,-65
-1,45,46,-22,-23,45,-64,-139,-159,-80,10,-62
-3,45,48,-21,-26,47,-65,-140,-155,-80,4,-59
-14,43,57,-15,-36,50,-66,-135,-149,-77,-1,-60
-10,41,51,-16,-30,46,-64,-131,-143,-75,-9,-54
-16,32,49,-8,-33,40,-73,-129,-136,-76,-22,-48
-11,34,45,-12,-28,39,-80,-123,-129,-70,-11,-41
-11,28,39,-9,-25,33,-80,-122,-123,-65,-6,-35
-22,4,26,9,-24,15,-79,-115,-116,-61,6,-27
44,59,14,-52,15,36,-81,-116,-116,-57,7,-22
63,66,3,-64,29,34,-78,-115,-110,-48,18,-13
65,55,-10,-60,38,22,-84,-124,-112,-49,39,-1
64,35,-29,-49,46,3,-107,-161,-120,-60,2,-23
24,-3,-27,-10,25,-15,-97,-172,-116,-72,-10,-46
45,50,5,-48,19,28,-59,-170,-113,-78,3,-46
39,68,29,-54,5,48,-54,-167,-104,-68,8,-43
20,59,39,-40,-10,48,-57,-176,-107,-72,-4,-69
6,47,41,-26,-18,43,-51,-162,-92,-63,-12,-76
-19,36,56,-8,-38,46,-61,-184,-99,-66,-19,-74
-27,21,48,3,-38,34,-48,-164,-73,-60,-26,-80
-18,42,60,-12,-39,51,-72,-177,-81,-55,-18,-78
12,62,50,-38,-19,56,-41,-173,-77,-62,-29,-81
-24,65,89,-21,-57,77,47,-98,-12,-83,-72,-110
-54,76,130,-11,-93,103,113,71,191,38,16,-50
554,346,-208,-450,381,68,-86,435,686,1090,1163,1025
1035,817,-217,-926,626,300,-468,-9,507,1734,1927,1830
395,602,207,-499,93,405,-355,-681,-252,578,668,692
-140,112,252,13,-196,182,-200,-691,-645,-423,-325,-248
-134,-7,127,70,-130,60,-226,-586,-633,-490,-347,-246
-43,16,59,14,-51,37,-116,-350,-340,-321,-258,-205
-8,40,48,-17,-28,44,-63,-183,-139,-149,-104,-109
-34,18,52,8,-43,34,-41,-130,-74,-117,-84,-89
10,60,50,-35,-20,54,-36,-110,-36,-94,-64,-72
-9,57,65,-24,-37,61,-29,-115,-29,-106,-74,-70
-6,50,57,-22,-32,53,-25,-98,-13,-103,-77,-70
24,75,51,-50,-13,62,-24,-100,-7,-84,-58,-61
22,66,44,-44,-11,55,-16,-85,6,-94,-59,-62
38,71,33,-55,2,52,-17,-79,14,-91,-50,-64
49,84,35,-67,6,60,-10,-67,22,-88,-52,-73
40,94,54,-67,-7,74,-11,-58,18,-78,-46,-64
36,86,50,-61,-8,68,-9,-52,26,-74,-45,-64
39,81,42,-61,-1,61,-11,-38,45,-65,-43,-58
42,79,37,-61,3,57,-24,-26,49,-61,-36,-55
47,75,28,-61,9,51,-6,-9,73,-65,-31,-52
43,70,27,-57,8,48,23,13,101,-57,-26,-44
46,75,29,-60,8,52,25,37,112,-50,-19,-41
46,90,44,-68,1,67,25,71,132,-33,-17,-33
68,118,51,-93,8,84,33,120,172,-9,9,-21
72,126,54,-100,9,90,38,157,209,14,31,-5
74,128,53,-102,10,91,42,189,246,31,32,6
99,157,58,-128,20,107,56,229,277,55,64,29
103,180,77,-142,13,128,52,257,297,85,74,51
146,220,74,-184,36,146,37,281,319,115,93,77
157,234,77,-196,40,155,29,280,327,154,135,114
134,226,91,-180,21,158,12,254,317,165,133,118
161,261,100,-211,30,180,-1,216,291,158,146,137
163,267,103,-215,30,185,-26,169,251,151,158,152
149,245,96,-197,26,170,-63,104,208,145,143,130
143,232,89,-188,27,160,-98,38,166,133,130,115
133,214,81,-173,25,147,-99,2,114,97,100,92
107,181,74,-144,16,127,-78,-42,59,62,68,63
80,147,68,-114,6,107,-75,-78,24,31,35,30
64,128,64,-97,0,96,-74,-90,10,-1,5,3
52,118,66,-85,-7,91,-92,-100,2,-30,-14,-13
62,123,61,-93,1,92,-100,-101,-6,-36,-18,-21
44,104,60,-74,-8,82,-91,-98,-18,-34,-25,-27
13,72,60,-43,-24,66,-88,-96,-34,-43,-48,-34
13,68,55,-41,-21,61,-81,-94,-35,-44,-50,-40
12,68,55,-41,-22,61,-76,-98,-35,-56,-53,-40
4,58,54,-31,-25,56,-79,-105,-35,-71,-62,-41
18,68,50,-43,-16,58,-90,-102,-36,-70,-59,-45
45,95,50,-70,-3,72,-94,-98,-41,-69,-61,-45
39,89,50,-64,-6,69,-87,-95,-39,-65,-60,-45
33,83,50,-58,-9,66,-83,-90,-43,-64,-60,-45
28,78,50,-53,-11,64,-76,-93,-46,-68,-58,-45
21,71,50,-46,-14,60,-70,-95,-45,-70,-54,-45
22,73,50,-47,-14,61,-90,-99,-49,-70,-55,-45
20,70,50,-45,-15,59,-104,-100,-55,-70,-55,-44
26,72,45,-49,-9,58,-96,-95,-55,-70,-55,-41
24,64,40,-44,-8,51,-96,-95,-55,-69,-55,-38
34,69,36,-52,-2,53,-91,-95,-55,-66,-55,-35
20,51,31,-36,-6,41,-89,-95,-55,-65,-56,-33
22,49,27,-36,-3,38,-102,-94,-66,-65,-56,-29
57,79,22,-69,17,50,-102,-98,-71,-65,-55,-33
48,68,20,-58,14,44,-93,-103,-69,-64,-55,-35
39,59,20,-49,9,39,-88,-99,-71,-68,-55,-36
35,51,17,-43,9,34,-80,-97,-70,-70,-55,-41
26,41,14,-34,6,27,-76,-94,-71,-70,-55,-39
19,35,16,-27,1,25,-79,-90,-75,-78,-55,-36
31,50,19,-40,6,34,-84,-91,-75,-80,-55,-35
35,50,15,-43,10,32,-83,-92,-75,-80,-55,-35
32,40,8,-36,11,24,-79,-88,-75,-80,-55,-35
36,40,4,-38,16,22,-80,-82,-75,-80,-55,-34
20,18,-2,-19,11,7,-73,-80,-74,-79,-60,-39
47,39,-8,-43,27,15,-77,-72,-71,-76,-60,-41
35,27,-8,-31,21,9,-95,-73,-66,-73,-55,-40
3,1,-2,-1,2,-1,-86,-93,-63,-70,-53,-38
29,31,2,-30,13,16,-58,-93,-60,-68,-48,-35
29,35,6,-32,11,21,-60,-85,-54,-63,-45,-35
29,41,11,-35,9,26,-84,-84,-61,-70,-50,-34
25,40,15,-33,5,27,-86,-75,-70,-80,-55,-28
28,38,10,-33,9,24,-85,-79,-63,-74,-61,-33
34,43,10,-38,12,26,-81,-89,-58,-68,-54,-39
24,35,11,-29,6,23,-80,-91,-54,-64,-49,-37
29,36,8,-33,10,22,-79,-88,-45,-54,-38,-54
-4,17,21,-7,-13,19,-82,-94,-52,-64,-43,-61
26,38,11,-32,7,24,-94,-108,-59,-80,-69,-54
45,35,-10,-40,27,12,-90,-102,-50,-70,-62,-51
21,5,-16,-13,18,-6,-82,-88,-42,-62,-52,-46
70,51,-19,-60,44,16,-81,-83,-34,-54,-44,-41
75,63,-12,-69,44,25,-79,-84,-29,-52,-39,-37
79,53,-26,-66,52,13,-80,-85,-31,-55,-40,-32
102,55,-47,-78,74,4,-81,-87,-30,-56,-40,-27
99,48,-51,-73,75,-2,-77,-90,-30,-60,-40,-20
83,35,-48,-59,65,-7,-100,-91,-48,-61,-40,-16
84,20,-64,-51,73,-22,-118,-84,-60,-64,-43,-10
72,24,-48,-47,60,-12,-105,-88,-66,-71,-46,-5
27,8,-18,-17,22,-5,-94,-81,-63,-69,-50,-23
8,-5,-12,-1,10,-8,-84,-84,-67,-70,-49,-37
-21,-28,-7,25,-7,-17,-73,-78,-63,-71,-66,-51
-35,-40,-5,38,-15,-23,-74,-79,-66,-67,-66,-53
-36,-32,4,34,-20,-13,-66,-78,-67,-76,-65,-51
-41,-40,0,40,-20,-20,-66,-64,-68,-70,-54,-44
-20,-14,6,17,-13,-4,-62,-86,-58,-85,-52,-38
-23,-16,7,20,-15,-5,-40,-28,-6,-75,-65,-63
-118,12,130,52,-124,71,84,60,75,-47,-90,-110
193,162,-31,-178,112,66,160,548,571,528,455,377
971,532,-439,-751,705,46,-211,589,821,1459,1510,1434
873,681,-192,-777,532,244,-484,-335,153,1047,1171,1242
98,215,116,-157,-9,165,-365,-753,-530,-112,-38,104
-156,-109,47,132,-101,-31,-312,-644,-689,-470,-367,-247
-106,-105,1,105,-53,-52,-245,-399,-433,-329,-276,-196
-35,-79,-43,57,4,-61,-105,-130,-166,-163,-166,-139
-27,-48,-22,38,-2,-35,-36,-44,-73,-100,-107,-90
-51,-60,-8,56,-21,-34,-36,-7,-28,-89,-100,-80
-36,-53,-17,45,-9,-35,-11,-4,-17,-76,-85,-56
-31,-43,-12,37,-9,-27,15,6,-8,-71,-90,-62
-38,-58,-19,48,-9,-39,13,10,0,-61,-78,-62
-40,-65,-24,53,-7,-44,8,16,7,-57,-78,-60
-37,-62,-25,50,-6,-43,1,21,21,-49,-76,-53
-37,-56,-19,46,-9,-37,-4,33,48,-43,-76,-49
-36,-55,-19,46,-8,-37,5,56,55,-37,-70,-46
-36,-48,-12,43,-12,-30,29,66,61,-31,-65,-39
-8,-33,-26,21,9,-29,36,73,80,-27,-62,-43
-20,-56,-36,38,8,-46,40,93,89,-21,-55,-55
-24,-59,-35,42,6,-47,43,108,96,-15,-58,-50
-15,-49,-35,33,10,-42,54,131,126,-11,-53,-44
-15,-49,-35,32,10,-42,72,163,152,-1,-43,-39
-1,-41,-41,21,20,-41,67,198,177,11,-33,-35
-6,-40,-34,23,14,-37,79,248,218,25,-15,-25
7,-25,-32,9,20,-28,101,288,244,44,-5,-15
11,-13,-24,1,18,-18,109,339,273,69,26,1
33,7,-25,-20,29,-9,115,385,309,103,57,28
52,50,-2,-51,27,24,110,404,340,124,69,46
59,107,49,-83,5,78,100,436,372,155,98,89
72,117,45,-95,13,81,94,454,393,191,124,123
64,99,35,-82,14,66,85,435,385,207,144,127
99,128,29,-114,35,79,65,396,374,220,159,148
116,136,20,-126,48,78,28,329,358,216,160,149
115,128,14,-122,51,71,-4,250,321,208,156,142
108,110,2,-109,53,56,-11,176,268,193,155,141
64,60,-4,-62,34,28,-34,102,203,161,132,121
57,41,-16,-49,36,13,-46,38,144,120,90,89
15,-6,-20,-5,18,-13,-51,0,96,82,50,49
-11,-31,-20,21,5,-25,-67,-26,60,53,24,24
6,-22,-29,8,18,-25,-64,-53,44,24,14,14
-13,-52,-39,33,13,-46,-65,-62,37,21,2,2
-17,-58,-41,37,12,-49,-64,-64,32,20,-7,-6
-32,-69,-37,51,3,-53,-73,-66,23,6,-18,-16
-53,-88,-35,71,-8,-61,-73,-64,19,-1,-26,-23
-55,-86,-31,70,-11,-58,-55,-71,7,-23,-36,-35
-38,-68,-29,53,-4,-48,-47,-75,-11,-37,-41,-49
-51,-76,-26,64,-12,-51,-42,-76,-8,-35,-40,-50
-74,-99,-25,87,-25,-62,-39,-79,-3,-36,-48,-50
-55,-87,-32,71,-11,-59,-36,-81,1,-31,-48,-47
-52,-85,-33,69,-9,-59,-31,-79,5,-30,-40,-44
-52,-81,-29,66,-11,-54,-31,-83,5,-30,-37,-45
-50,-74,-24,63,-13,-49,-40,-102,1,-25,-29,-39
-50,-72,-23,61,-13,-48,-54,-106,1,-20,-26,-33
-47,-63,-16,55,-15,-39,-55,-104,1,-15,-29,-25
-45,-61,-16,53,-14,-38,-54,-110,-4,-12,-30,-20
-25,-52,-27,39,1,-40,-56,-110,-6,-5,-30,-11
-20,-51,-31,35,6,-41,-53,-111,-11,-9,-29,-13
-33,-79,-46,56,7,-62,-66,-124,-14,-23,-39,-32
-39,-90,-52,65,7,-71,-77,-131,-18,-25,-45,-36
-32,-81,-49,57,9,-65,-72,-130,-21,-25,-38,-35
-28,-77,-49,53,11,-63,-70,-130,-27,-28,-35,-35
-28,-72,-45,51,9,-58,-66,-130,-39,-31,-30,-35
-20,-63,-43,42,11,-52,-64,-129,-41,-30,-25,-34
-36,-75,-40,56,2,-57,-62,-134,-33,-30,-22,-31
-55,-92,-36,74,-10,-64,-59,-135,-43,-30,-16,-29
-55,-89,-35,72,-10,-61,-56,-135,-65,-27,-17,-31
-62,-105,-43,84,-9,-74,-54,-150,-65,-37,-33,-42
-59,-105,-46,83,-7,-75,-49,-150,-64,-41,-36,-46
-52,-93,-41,73,-5,-67,-53,-136,-66,-39,-31,-44
-48,-87,-39,68,-4,-63,-76,-128,-64,-40,-30,-46
-56,-92,-36,74,-10,-64,-82,-117,-66,-40,-25,-44
-63,-97,-34,80,-14,-66,-77,-111,-65,-40,-25,-47
-56,-93,-36,75,-9,-64,-76,-104,-65,-35,-30,-50
-59,-99,-40,79,-9,-69,-71,-97,-66,-35,-30,-50
-45,-85,-40,65,-2,-62,-70,-88,-63,-34,-29,-50
-60,-99,-39,80,-10,-69,-66,-77,-69,-43,-33,-50
-86,-122,-36,105,-25,-79,-65,-68,-76,-52,-35,-50
-76,-110,-35,94,-20,-72,-64,-59,-76,-46,-36,-53
-71,-107,-35,89,-18,-71,-66,-53,-72,-45,-33,-56
-53,-101,-48,77,-2,-74,-87,-45,-70,-41,-37,-53
-40,-102,-62,71,11,-82,-88,-39,-69,-40,-39,-50
-51,-109,-58,80,3,-83,-80,-32,-68,-40,-32,-50
-53,-108,-56,81,2,-82,-77,-23,-84,-40,-28,-50
-53,-105,-52,79,0,-79,-68,-15,-85,-40,-20,-50
-55,-105,-50,80,-2,-77,-68,-6,-80,-38,-18,-50
-57,-105,-48,81,-4,-76,-74,2,-79,-51,-6,-59
-62,-105,-43,84,-9,-74,-71,10,-75,-53,3,-59
-58,-105,-47,82,-5,-76,-64,15,-74,-43,-4,-52
-59,-101,-42,80,-8,-71,-61,25,-69,-38,7,-49
-39,-89,-50,64,6,-69,-52,36,-66,-30,12,-44
-4,-80,-76,43,36,-78,-52,49,-62,-25,20,-39
7,-70,-77,32,43,-74,-56,67,-60,-20,39,-36
26,-61,-87,18,57,-74,-68,65,-51,-20,34,-35
20,-82,-101,31,61,-91,-115,51,-73,-19,17,-35
27,-79,-106,27,66,-92,-124,51,-100,-14,10,-35
17,-61,-77,22,47,-69,-105,37,-101,-15,2,-34
-42,-84,-42,64,0,-63,-95,38,-98,-19,-5,-43
-85,-119,-34,102,-25,-76,-91,24,-102,-31,-9,-61
-93,-127,-33,110,-30,-80,-84,28,-99,-42,-20,-67
-75,-114,-39,95,-18,-77,-81,33,-98,-35,-17,-63
-97,-125,-28,111,-34,-76,-73,23,-95,-38,-24,-73
-67,-113,-45,90,-11,-79,-68,42,-82,-26,-16,-67
-82,-96,-14,89,-34,-55,-76,14,-96,-31,-22,-71
-115,-107,8,111,-61,-50,-37,75,-50,-22,-22,-76
-180,-62,118,121,-149,28,52,127,-13,-25,-22,-102
40,21,-19,-31,29,1,164,618,417,413,383,251
861,333,-528,-596,694,-98,-116,839,801,1286,1311,1175
893,562,-332,-727,612,115,-489,-133,179,988,1140,1128
129,167,39,-148,45,103,-436,-716,-592,-72,53,108
-187,-195,-9,191,-89,-102,-351,-592,-755,-445,-318,-282
-178,-195,-18,186,-80,-106,-260,-322,-501,-311,-229,-219
-116,-177,-61,146,-27,-118,-134,-40,-248,-162,-118,-154
-127,-157,-29,142,-49,-93,-73,55,-163,-118,-71,-119
-139,-149,-10,144,-64,-79,-54,106,-113,88,-73,-116
-109,-144,-35,127,-36,-89,-53,108,-103,72,-59,-100
-120,-144,-24,132,-48,-83,-39,131,-95,-32,-62,-109
-125,-152,-27,139,-49,-89,-35,130,-89,19,-56,-102
-115,-134,-20,125,-47,-77,-28,138,-83,-11,-55,-107
-108,-124,-16,116,-46,-70,-19,169,-74,5,-52,-103
-111,-128,-17,120,-47,-72,-17,165,-89,-1,-49,-107
-117,-124,-7,121,-55,-65,-5,174,-96,-1,-53,-103
-128,-112,16,120,-72,-48,-10,182,-95,4,-58,-106
-184,-133,52,158,-118,-40,-15,186,-101,-4,-43,-106
-190,-141,49,165,-119,-46,86,208,-99,4,-258,-42
