I,II,III,aVR,aVL,aVF,V1,V2,V3,V4,V5,V6
25,-140,-165,58,95,-152,5,-30,-120,-125,-155,-65
27,-138,-165,56,96,-151,5,-30,-120,-125,-155,-65
30,-131,-161,51,96,-146,5,-30,-120,-125,-155,-65
29,-130,-159,50,94,-144,5,-30,-120,-125,-155,-65
33,-122,-155,45,95,-138,5,-30,-120,-125,-155,-65
32,-123,-155,46,94,-138,6,-30,-121,-125,-155,-65
9,-150,-160,71,85,-155,10,-35,-124,-129,-150,-60
2,-157,-160,78,81,-158,10,-35,-125,-130,-150,-60
4,-158,-161,77,82,-159,10,-36,-125,-130,-149,-59
2,-163,-165,81,84,-163,10,-40,-125,-130,-145,-55
1,-164,-165,82,84,-165,11,-40,-125,-130,-145,-55
-4,-165,-162,85,79,-163,7,-38,-123,-128,-143,-53
-8,-157,-149,83,71,-153,5,-35,-119,-122,-137,-48
-18,-156,-138,87,60,-147,5,-35,-117,-117,-133,-45
-8,-148,-140,79,66,-144,5,-35,-114,-114,-128,-42
0,-147,-147,74,74,-147,6,-35,-110,-108,-124,-37
3,-137,-140,68,72,-139,4,-35,-110,-105,-119,-35
13,-117,-130,52,72,-123,13,-26,-99,-98,-115,-35
26,-100,-126,37,76,-112,20,-13,-85,-91,-115,-35
50,-68,-118,9,84,-93,32,-5,-74,-81,-113,-35
30,-86,-116,29,73,-101,26,-5,-77,-78,-110,-35
34,-79,-114,23,74,-96,-19,-12,-98,-99,-110,-34
64,-53,-117,-5,91,-84,-32,-22,-101,-100,-112,-38
26,-87,-113,31,70,-100,-29,-33,-99,-104,-119,-41
15,-102,-117,44,66,-109,-27,-38,-101,-120,-120,-40
21,-105,-126,43,74,-115,-25,-32,-99,-120,-120,-40
14,-109,-123,48,69,-116,-20,-27,-102,-119,-119,-39
20,-125,-146,53,83,-135,3,-24,-105,-123,-124,-51
-16,-147,-131,82,58,-139,23,-18,-105,-126,-135,-61
-24,-143,-119,84,48,-131,31,-15,-107,-131,-135,-64
-2,-141,-139,72,68,-139,29,-15,-111,-139,-136,-69
-13,-139,-126,76,57,-132,31,-15,-109,-143,-141,-68
-19,-133,-114,76,48,-123,29,-15,-107,-137,-135,-64
-32,-141,-110,87,39,-125,36,-15,-102,-135,-135,-61
-46,-149,-103,98,29,-126,51,-15,-99,-133,-137,-60
-50,-151,-101,101,25,-126,50,-13,-97,-127,-132,-53
-53,-148,-95,101,21,-121,51,-4,-90,-135,-140,-59
-58,-152,-94,105,18,-123,56,2,-90,-133,-127,-63
-50,-148,-97,100,24,-122,53,9,-73,-147,-145,-76
-54,-154,-100,105,23,-127,57,27,-65,-139,-133,-69
-46,-158,-112,102,33,-134,67,104,-7,-99,-146,-80
24,-20,-44,-2,34,-32,39,195,171,177,90,66
190,238,48,-214,71,143,-117,189,392,675,656,501
240,453,213,-347,13,333,-212,120,343,553,612,652
9,346,336,-178,-164,341,-59,-130,-268,-202,-8,305
-150,75,225,37,-187,149,149,-238,-596,-570,-370,-44
-216,-64,152,140,-183,44,356,5,-384,-457,-385,-182
-298,-130,168,214,-233,19,335,-48,-361,-396,-346,-227
-264,-124,140,194,-201,8,126,-190,-323,-331,-295,-193
-186,-125,61,155,-123,-32,68,-104,-203,-223,-224,-158
-137,-133,4,135,-71,-64,55,-50,-151,-180,-186,-149
-112,-127,-15,120,-49,-70,48,-15,-117,-161,-163,-137
-99,-137,-38,118,-31,-87,44,-14,-115,-152,-164,-134
-86,-141,-56,114,-15,-98,34,-12,-104,-143,-160,-125
-80,-140,-60,111,-10,-100,31,-6,-100,-141,-157,-120
-88,-139,-51,113,-18,-94,24,-7,-94,-138,-155,-113
-85,-135,-50,110,-17,-92,24,-2,-88,-133,-152,-110
-92,-136,-43,114,-24,-89,20,-2,-85,-131,-148,-111
-115,-155,-40,135,-37,-97,18,4,-79,-125,-142,-107
-101,-151,-51,126,-25,-101,15,4,-76,-117,-139,-105
-88,-136,-49,112,-19,-93,12,9,-70,-109,-133,-105
-88,-125,-37,107,-25,-80,4,10,-62,-101,-130,-100
-81,-109,-28,95,-26,-68,-3,14,-56,-94,-119,-90
-81,-98,-18,90,-31,-58,-10,20,-49,-70,-105,-80
-77,-88,-11,83,-33,-49,-18,26,-34,-48,-88,-69
-78,-83,-5,81,-37,-43,-23,31,-6,-27,-51,-47
-58,-55,3,57,-31,-26,-41,37,28,8,-27,-30
-27,-18,8,22,-17,-5,-52,56,61,49,-9,-19
-20,-4,16,12,-18,6,-49,64,88,83,16,8
-10,7,17,2,-14,12,-55,69,101,96,38,29
0,28,28,-14,-15,28,-53,83,102,115,61,46
-4,42,46,-20,-25,43,-45,83,94,119,61,50
-12,32,45,-10,-29,38,-40,77,88,109,52,41
-22,23,45,-1,-34,34,-32,74,81,106,46,39
-33,12,45,10,-39,29,-27,69,74,100,37,33
-44,1,45,21,-44,22,-20,65,68,82,32,30
-54,-10,43,32,-48,16,-10,56,40,49,17,21
-61,-23,38,42,-49,7,0,44,11,28,1,7
-66,-31,35,48,-50,2,10,32,-3,1,-11,-2
-78,-46,31,62,-54,-7,20,25,-20,-20,-22,-13
-84,-56,27,70,-55,-14,29,25,-25,-19,-37,-22
-80,-55,24,67,-52,-15,30,25,-25,-33,-57,-33
-72,-52,20,62,-45,-16,30,25,-25,-45,-65,-41
-87,-75,12,81,-49,-31,30,25,-30,-48,-67,-38
-99,-93,6,95,-52,-43,29,26,-38,-48,-71,-50
-83,-84,-1,84,-41,-42,31,29,-34,-44,-75,-62
-75,-83,-8,80,-34,-46,35,32,-31,-45,-73,-59
-70,-78,-8,74,-31,-43,35,35,-28,-45,-69,-60
-71,-75,-4,73,-33,-40,35,38,-23,-45,-70,-60
-70,-72,-2,71,-34,-37,35,40,-20,-45,-66,-60
-70,-69,1,69,-35,-34,35,40,-16,-40,-65,-56
-70,-66,5,68,-37,-31,35,41,-15,-40,-65,-54
-68,-63,5,65,-36,-29,35,39,-15,-39,-65,-55
-78,-60,18,69,-48,-21,35,33,-16,-35,-65,-55
-89,-60,28,74,-59,-16,35,30,-14,-35,-65,-56
-110,-86,24,97,-67,-30,35,25,-19,-38,-65,-53
-118,-96,22,107,-70,-37,35,20,-31,-40,-65,-50
-105,-86,19,95,-61,-33,35,16,-30,-40,-62,-47
-99,-83,16,91,-57,-33,35,15,-30,-40,-60,-45
-90,-76,15,82,-52,-30,35,15,-30,-47,-60,-41
-86,-71,15,78,-51,-27,35,15,-29,-55,-60,-40
-97,-82,15,89,-56,-33,35,15,-32,-55,-59,-39
-97,-82,15,89,-56,-33,39,16,-34,-55,-61,-43
-93,-76,17,84,-55,-29,40,20,-41,-55,-65,-51
-95,-71,24,82,-59,-23,40,20,-41,-55,-62,-44
-94,-65,30,79,-62,-17,45,25,-35,-55,-57,-37
-94,-60,33,77,-63,-13,45,25,-30,-44,-53,-31
-101,-48,53,75,-77,2,44,25,-25,-29,-48,-23
-92,-29,64,60,-77,17,39,30,-18,-22,-45,-21
-81,-7,74,44,-77,33,36,30,-16,-27,-45,-27
-87,-9,78,48,-83,35,24,25,-25,-30,-43,-33
-92,-20,72,56,-82,26,-3,22,-33,-30,-39,-38
-90,-34,55,62,-72,10,-15,18,-43,-33,-41,-45
-52,-36,16,44,-33,-10,-26,14,-42,-35,-43,-41
-37,-35,3,35,-20,-15,-27,11,-39,-36,-46,-40
-59,-55,3,57,-31,-26,-19,8,-40,-33,-49,-35
-64,-67,-3,65,-30,-35,-14,4,-35,-45,-52,-36
-76,-80,-4,78,-36,-41,20,0,-35,-64,-59,-66
-78,-80,-2,79,-38,-41,38,-3,-35,-65,-61,-77
-95,-83,12,89,-53,-35,33,-8,-48,-65,-59,-72
-113,-96,17,104,-64,-39,36,-10,-53,-64,-68,-70
-105,-89,16,97,-60,-37,34,-5,-49,-66,-76,-67
-98,-85,13,91,-55,-36,36,-2,-51,-63,-65,-63
-87,-80,7,83,-47,-36,35,2,-49,-63,-65,-63
-93,-72,20,82,-56,-26,41,5,-51,-56,-54,-57
-102,-72,30,87,-66,-21,44,10,-49,-57,-52,-57
-110,-77,32,93,-71,-22,41,11,-43,-51,-60,-53
-96,-82,14,89,-55,-34,41,19,-37,-50,-64,-48
-102,-80,22,91,-62,-29,38,16,-32,-52,-70,-56
-102,-104,-1,103,-50,-52,72,58,-5,-34,-84,-64
-62,-59,3,60,-32,-28,81,180,116,64,-25,-34
52,141,89,-97,-19,115,-20,226,344,517,435,285
229,414,185,-321,22,299,-190,194,516,785,762,636
112,481,369,-297,-129,424,-147,21,126,242,359,493
-155,222,376,-34,-266,299,71,-253,-499,-402,-176,109
-216,22,238,97,-227,129,299,-131,-463,-453,-323,-106
-257,-43,215,150,-236,86,414,16,-302,-317,-282,-175
-307,-75,232,191,-269,78,223,-159,-313,-278,-257,-163
-249,-64,184,156,-216,60,86,-144,-191,-187,-187,-111
-163,-63,100,113,-131,19,70,-44,-122,-127,-139,-93
-125,-62,63,93,-94,1,45,-13,-73,-87,-111,-79
-131,-91,40,111,-85,-26,53,13,-45,-66,-89,-73
-133,-104,30,118,-82,-37,40,13,-41,-60,-89,-70
-125,-102,23,113,-74,-39,41,21,-31,-48,-83,-62
-123,-109,15,116,-69,-47,33,13,-28,-49,-82,-58
-117,-108,9,112,-63,-49,31,15,-18,-42,-76,-52
-113,-113,-1,113,-56,-57,29,15,-15,-40,-74,-50
-112,-115,-3,114,-54,-59,24,14,-7,-35,-69,-46
-114,-112,2,113,-58,-55,23,16,-3,-33,-63,-44
-112,-104,8,108,-59,-48,19,18,2,-26,-60,-41
-108,-96,13,102,-60,-42,19,27,9,-21,-55,-39
-107,-88,19,97,-62,-34,10,31,13,-16,-50,-34
-105,-81,24,93,-65,-28,5,35,20,1,-46,-21
-90,-69,21,79,-55,-23,-3,40,31,24,-34,-15
-70,-51,20,61,-45,-15,-9,42,53,55,-9,3
-59,-39,20,49,-39,-9,-15,57,87,76,23,20
-35,-14,22,24,-28,4,-34,75,120,107,47,40
-24,23,46,0,-35,34,-43,83,141,142,60,69
-24,35,60,-6,-43,47,-45,89,157,160,83,80
-15,55,70,-21,-43,62,-51,91,164,179,106,94
-10,76,86,-33,-49,81,-46,100,161,182,115,100
-4,80,85,-38,-45,82,-39,102,158,172,112,108
0,85,85,-43,-43,85,-33,93,154,165,105,121
-10,75,85,-33,-48,80,-25,88,152,155,100,114
-15,70,85,-28,-50,77,-20,80,143,146,96,107
-25,58,83,-17,-54,71,-9,74,111,127,73,85
-53,25,78,14,-65,51,6,69,81,102,42,58
-67,8,75,29,-72,41,17,61,58,83,30,48
-68,3,71,33,-70,37,25,54,37,62,19,37
-72,-4,68,38,-69,32,29,47,24,43,7,27
-75,-11,64,42,-69,26,32,39,19,34,0,19
-79,-17,61,48,-70,22,35,32,14,28,-5,14
-79,-21,58,50,-69,19,37,33,7,20,-9,9
-77,-22,55,49,-66,16,41,36,3,12,-14,3
-81,-29,53,55,-67,12,37,35,-3,6,-18,-2
-89,-40,49,65,-69,5,35,35,-5,5,-23,-8
-93,-41,53,67,-73,6,35,34,-5,5,-25,-10
-93,-38,55,65,-74,8,35,37,-5,5,-26,-13
-107,-49,58,78,-83,4,35,40,-5,5,-24,-16
-116,-56,60,86,-88,2,35,42,-5,5,-30,-20
-110,-55,55,82,-82,0,39,45,0,2,-40,-20
-108,-53,55,80,-81,1,42,42,0,0,-41,-16
-103,-50,54,76,-79,2,46,37,1,-3,-46,-13
-100,-50,50,75,-75,0,50,34,5,-6,-43,-10
-100,-50,50,75,-75,0,48,30,5,-9,-39,-8
-100,-50,50,75,-75,0,45,27,3,-11,-40,-4
-100,-51,50,75,-75,0,42,23,-1,-9,-36,-8
-99,-49,50,74,-75,0,39,20,-3,-11,-35,-16
-100,-51,50,76,-75,0,36,20,-6,-8,-35,-23
-99,-48,50,74,-74,1,35,20,-9,-20,-42,-28
-94,-45,49,69,-71,2,40,20,-11,-33,-46,-26
-91,-45,46,68,-68,0,40,20,-14,-28,-45,-23
-88,-44,44,66,-66,0,40,23,-16,-26,-45,-21
-96,-54,43,75,-69,-5,40,26,-14,-22,-45,-17
-84,-46,38,65,-60,-4,40,29,-19,-20,-44,-15
-78,-31,47,55,-62,8,42,32,-35,-18,-41,-13
-91,-31,60,61,-76,14,45,35,-37,-13,-38,-8
-93,-21,72,57,-82,25,52,34,-32,-10,-35,-5
-101,7,108,46,-104,57,46,27,-31,-7,-33,-2
-86,26,112,30,-99,69,30,21,-27,-2,-29,3
-79,19,98,30,-89,59,17,14,-25,0,-31,5
-73,11,84,31,-78,47,3,8,-27,-5,-29,0
-69,-13,56,41,-63,22,-5,1,-31,-10,-32,-4
-84,-33,51,58,-67,8,-9,0,-33,-13,-52,-7
-75,-36,39,55,-56,1,-8,0,-36,-18,-57,-11
-68,-43,25,55,-46,-9,3,-5,-39,-27,-53,-14
-49,-53,-4,51,-22,-29,12,-5,-41,-37,-57,-18
-49,-56,-7,52,-20,-31,28,-7,-45,-35,-53,-20
-88,-55,33,72,-60,-11,46,-10,-49,-35,-58,-24
-96,-54,42,75,-68,-6,51,-14,-54,-35,-67,-25
-102,-57,44,79,-73,-6,49,-15,-53,-35,-73,-30
-120,-69,51,95,-86,-9,50,-16,-49,-35,-73,-30
-112,-67,45,89,-78,-11,50,-19,-50,-37,-77,-28
-106,-60,46,83,-76,-7,50,-21,-50,-36,-80,-23
-98,-58,39,78,-68,-9,56,-19,-50,-34,-80,-20
-91,-52,39,72,-65,-6,53,-11,-50,-36,-89,-18
-84,-49,35,66,-60,-6,58,-5,-45,-27,-82,-10
-83,-52,32,67,-57,-10,51,3,-46,-34,-100,-13
-85,-54,31,69,-58,-11,64,21,-36,-32,-84,-24
-55,-48,7,51,-31,-20,93,113,53,-11,-80,-53
-5,60,65,-28,-36,63,45,212,246,291,183,125
188,324,137,-257,25,230,-107,217,494,776,688,536
214,515,301,-364,-44,408,-178,125,393,584,612,650
-81,383,464,-151,-273,423,-23,-161,-258,-153,38,306
-198,138,336,30,-267,237,202,-231,-537,-451,-287,-19
-207,15,222,96,-215,118,407,-10,-303,-330,-279,-119
-286,-39,247,162,-266,103,334,-98,-279,-281,-266,-157
-265,-41,224,153,-244,92,124,-189,-241,-210,-221,-129
-179,-39,139,109,-159,50,84,-76,-122,-119,-141,-89
-123,-40,83,81,-103,21,58,-31,-85,-81,-114,-72
-102,-49,53,76,-77,2,56,0,-42,-56,-92,-57
-93,-66,27,79,-59,-19,55,3,-31,-55,-97,-49
-92,-66,26,78,-58,-20,47,5,-25,-41,-93,-42
-93,-72,21,82,-57,-25,48,11,-20,-37,-90,-41
-89,-69,19,79,-54,-25,40,12,-17,-35,-91,-36
-86,-70,16,78,-51,-27,41,17,-11,-35,-87,-33
-84,-70,14,76,-49,-27,39,14,-8,-35,-79,-29
-86,-71,16,78,-51,-27,40,16,-2,-35,-71,-26
-82,-68,14,75,-48,-27,40,14,2,-34,-63,-25
-82,-66,16,73,-48,-25,40,15,7,-18,-56,-24
-68,-54,14,61,-41,-20,31,15,11,-3,-49,-19
-43,-27,16,34,-29,-5,18,18,16,8,-43,-21
-34,-20,14,27,-24,-2,6,25,24,20,-34,-14
-27,-10,16,18,-21,3,-8,26,42,39,-8,8
-24,15,39,5,-32,26,-23,33,61,61,12,24
-1,38,38,-19,-20,38,-30,38,95,93,33,48
7,54,47,-30,-21,50,-47,43,136,131,63,65
5,75,70,-40,-33,72,-62,60,153,153,81,66
20,92,72,-56,-26,82,-59,69,169,170,103,82
19,93,74,-56,-28,83,-60,78,180,190,121,102
20,100,80,-60,-30,90,-60,81,178,194,119,105
11,98,87,-55,-39,93,-61,73,168,186,113,97
4,88,84,-46,-40,85,-53,69,158,178,110,91
1,80,79,-41,-40,80,-38,62,144,168,104,83
-8,70,77,-31,-43,73,-26,58,115,155,102,76
-10,62,72,-26,-41,67,-8,52,92,129,86,69
-28,42,69,-7,-49,55,5,44,76,93,53,58
-42,24,66,8,-54,45,10,36,62,66,34,46
-58,5,63,26,-61,34,15,28,48,49,22,35
-62,-2,60,32,-61,29,21,21,34,36,10,25
-39,18,57,10,-49,37,26,15,19,25,7,17
-41,14,55,13,-48,34,31,15,10,18,2,11
-62,-9,53,35,-57,21,35,14,10,14,-2,3
-94,-45,50,70,-72,2,35,10,10,9,-8,-5
-110,-60,50,85,-80,-4,38,10,10,5,-27,-10
-97,-47,50,72,-73,1,40,12,10,0,-36,-10
-93,-43,50,68,-71,3,40,21,10,-4,-34,-10
-92,-43,50,68,-71,3,36,30,14,-5,-35,-10
-91,-46,45,68,-68,0,35,30,18,-5,-35,-10
-90,-45,45,67,-67,0,35,30,20,-5,-35,-14
-90,-45,45,67,-67,0,30,30,23,-6,-31,-15
-90,-46,45,67,-67,0,30,30,26,-4,-30,-15
-89,-43,46,66,-67,1,29,29,29,0,-30,-19
-82,-40,42,61,-62,1,25,23,30,0,-30,-21
-80,-40,40,60,-60,0,25,16,25,2,-30,-19
-80,-40,40,60,-60,0,25,9,25,6,-30,-15
-76,-40,37,58,-56,-1,25,2,24,5,-30,-15
-75,-41,34,57,-55,-3,25,-4,19,2,-30,-13
-71,-36,36,53,-53,0,21,-2,21,0,-30,-9
-75,-35,40,55,-57,2,20,1,17,0,-30,-11
-74,-34,40,54,-57,2,19,-1,11,0,-30,-6
-72,-31,41,51,-57,5,16,1,6,0,-27,-5
-75,-30,45,52,-60,7,15,-1,1,1,-24,-5
-74,-29,46,51,-60,8,16,1,-5,6,-21,0
-60,-18,42,39,-50,12,25,10,-9,11,-18,0
-38,3,41,17,-40,22,34,18,-5,15,-15,1
-52,16,67,18,-60,41,47,28,1,20,-16,5
-58,46,104,6,-81,74,36,25,7,25,-20,4
-45,66,112,-11,-79,89,-4,12,8,20,-20,8
-43,38,80,2,-62,59,-21,1,3,12,-20,10
-36,4,40,16,-38,22,-29,-11,0,6,-20,10
-26,-8,18,17,-22,4,-41,-24,-3,-2,-20,6
-16,-14,2,15,-9,-6,-40,-27,-8,-9,-24,-1
-9,-21,-12,16,1,-16,-32,-24,-10,-16,-27,-4
-2,-27,-25,15,12,-26,-23,-25,-21,-25,-32,-11
-2,-44,-42,24,20,-43,-2,-25,-31,-34,-43,-16
-11,-52,-41,32,15,-46,14,-25,-32,-35,-46,-22
-19,-49,-30,34,5,-39,15,-24,-39,-35,-46,-33
-26,-51,-25,39,0,-38,15,-19,-45,-52,-52,-36
-31,-49,-18,40,-7,-33,15,-21,-42,-53,-49,-34
-37,-51,-15,44,-11,-32,14,-19,-36,-44,-45,-35
-47,-54,-7,51,-19,-30,17,-21,-33,-44,-45,-35
-53,-55,-2,55,-25,-28,22,-20,-27,-31,-37,-34
-53,-56,-3,55,-25,-29,30,-17,-23,-35,-44,-41
-53,-60,-8,57,-22,-34,35,-15,-21,-30,-35,-37
-42,-60,-18,51,-12,-38,43,-14,-16,-44,-45,-49
-33,-65,-32,50,-1,-48,49,-16,-19,-41,-41,-43
-32,-85,-53,59,11,-69,47,70,32,-21,-60,-59
9,22,13,-15,-2,17,32,170,197,193,102,50
188,262,74,-226,57,167,-110,189,455,704,631,438
282,502,220,-392,30,361,-222,137,467,689,706,640
71,475,404,-273,-167,439,-105,-119,-109,-9,164,379
-121,186,307,-33,-215,247,100,-252,-530,-446,-227,38
-186,19,205,83,-196,112,330,-42,-335,-349,-257,-100
-236,-33,203,135,-219,85,333,-61,-247,-261,-230,-158
-219,-49,170,134,-194,60,120,-225,-259,-231,-212,-131
-142,-47,95,94,-118,24,52,-146,-148,-132,-138,-79
-73,-56,17,64,-44,-20,45,-54,-84,-84,-96,-69
-38,-54,-16,46,-10,-35,27,-29,-39,-39,-66,-52
-26,-64,-38,46,6,-51,19,-28,-29,-33,-51,-54
-14,-64,-50,39,19,-57,8,-34,-26,-37,-50,-44
1,-68,-69,33,36,-68,10,-34,-22,-29,-50,-40
1,-70,-72,35,37,-71,4,-36,-19,-32,-50,-35
-4,-70,-66,38,31,-68,3,-34,-14,-28,-50,-30
-8,-68,-61,38,27,-64,0,-36,-12,-25,-49,-31
-6,-65,-59,36,27,-62,-2,-34,-4,-18,-42,-29
-14,-64,-50,40,18,-57,-9,-29,-1,-13,-38,-31
-10,-65,-56,37,23,-60,-14,-23,6,-7,-32,-30
0,-76,-76,39,38,-76,-19,-19,11,-2,-26,-28
-7,-65,-59,36,26,-61,-25,-13,17,11,-21,-17
4,-42,-46,19,25,-43,-30,-8,29,22,-16,-8
17,-26,-42,5,30,-34,-46,-2,44,36,-3,4
18,-15,-33,-1,26,-24,-58,7,57,58,17,28
25,-4,-29,-10,27,-16,-67,19,75,78,38,36
39,22,-17,-31,28,3,-78,26,100,115,58,42
52,48,-3,-50,27,22,-88,40,119,137,79,54
61,70,9,-66,26,40,-93,60,141,153,107,67
63,91,28,-77,17,59,-89,60,147,169,118,84
63,99,37,-81,13,68,-90,60,140,173,127,96
66,100,34,-84,16,67,-86,58,139,181,138,107
66,101,35,-84,15,68,-85,51,134,169,127,102
61,96,35,-79,13,65,-85,47,132,154,116,93
50,85,35,-68,7,60,-74,41,123,139,105,85
39,73,34,-56,2,53,-60,35,103,123,89,78
25,53,28,-39,-1,40,-48,30,75,101,68,64
9,32,23,-21,-7,27,-41,23,49,60,42,38
-1,16,17,-7,-10,16,-36,14,37,38,25,24
-8,4,11,2,-10,7,-30,6,28,23,12,16
-9,-2,6,5,-7,2,-25,-5,12,10,0,7
-24,-23,1,23,-12,-10,-20,-16,-6,6,-5,-2
-40,-46,-6,43,-16,-26,-17,-15,-15,0,-10,-9
-35,-45,-10,40,-12,-27,-13,-11,-19,-5,-16,-12
-34,-45,-10,40,-11,-27,-10,-9,-16,-12,-21,-16
-31,-45,-14,39,-8,-30,-5,-6,-11,-14,-27,-19
-29,-45,-16,38,-6,-30,-7,-4,-9,-10,-30,-24
-32,-43,-11,38,-11,-27,-11,-1,-4,-10,-33,-24
-29,-39,-11,34,-9,-25,-9,3,-1,-8,-35,-20
-31,-40,-9,36,-11,-24,-14,5,0,-5,-39,-20
-34,-40,-6,37,-14,-23,-15,10,0,-5,-41,-18
-36,-40,-3,38,-16,-21,-15,8,0,-8,-36,-15
-33,-41,-8,38,-12,-24,-20,1,0,-13,-35,-15
-10,-45,-35,28,13,-40,-20,-6,0,-16,-35,-19
-4,-45,-41,25,19,-43,-20,-12,0,-19,-35,-20
-13,-45,-32,29,10,-38,-20,-20,-5,-24,-36,-20
-14,-45,-31,30,9,-38,-20,-24,-10,-24,-34,-20
-21,-45,-25,33,2,-35,-18,-20,-14,-20,-30,-20
-24,-44,-20,34,-2,-31,-14,-20,-19,-20,-30,-19
-6,-40,-34,23,14,-37,-15,-18,-24,-21,-30,-14
2,-39,-41,18,22,-40,-15,-15,-23,-18,-30,-11
-2,-42,-39,22,19,-40,-15,-14,-18,-33,-30,-8
3,-37,-40,17,22,-39,-15,-19,-15,-38,-26,-3
-13,-52,-40,33,14,-46,-15,-22,-12,-27,-21,0
-10,-50,-40,30,15,-45,-16,-13,-7,-21,-18,3
8,-15,-24,4,17,-19,-14,-2,-5,-12,-13,6
0,0,0,0,0,0,-16,7,-10,-13,-10,9
2,29,27,-16,-13,28,-13,1,-15,-15,-7,12
0,24,24,-12,-13,24,-23,-14,-20,-15,-5,15
5,7,2,-6,1,4,-51,-33,-24,-15,-2,14
25,22,-3,-24,14,10,-59,-46,-29,-16,1,8
32,-2,-35,-15,33,-18,-66,-44,-32,-32,-4,4
35,-33,-67,-1,51,-50,-69,-45,-35,-44,-5,0
45,-19,-64,-12,54,-41,-60,-45,-38,-45,-7,-5
46,-21,-67,-12,57,-44,-56,-44,-41,-49,-11,-9
22,-66,-88,22,55,-76,-38,-48,-44,-51,-10,-15
12,-78,-91,33,52,-84,-18,-50,-45,-55,-17,-24
10,-73,-82,32,46,-77,-15,-50,-50,-57,-20,-33
4,-77,-81,37,43,-78,-15,-50,-54,-56,-25,-38
1,-73,-74,37,38,-74,-15,-50,-59,-56,-30,-35
-5,-76,-71,41,33,-73,-15,-50,-58,-53,-32,-29
-4,-71,-66,38,31,-68,-15,-45,-51,-53,-37,-29
-2,-66,-64,35,31,-65,-10,-42,-47,-47,-32,-22
3,-62,-65,29,34,-63,-3,-37,-40,-53,-38,-21
-1,-57,-56,29,28,-56,0,-36,-36,-38,-31,-27
15,-53,-68,20,42,-60,9,-28,-29,-35,-39,-27
24,-52,-76,14,50,-64,10,-30,-39,-47,-41,-36
-9,-90,-81,50,36,-85,24,33,-4,-46,-61,-70
19,-17,-36,-1,27,-26,25,152,161,131,75,21
193,225,33,-209,80,129,-110,176,407,623,586,395
323,474,151,-399,86,313,-245,137,475,707,751,643
120,473,353,-297,-117,413,-151,-83,-42,59,255,415
-102,214,317,-56,-210,265,56,-275,-520,-438,-185,63
-142,36,178,53,-160,107,289,-66,-365,-385,-251,-102
-231,-51,180,140,-205,64,332,-36,-267,-312,-222,-164
-229,-72,157,151,-193,42,118,-228,-288,-273,-204,-152
-135,-58,76,96,-105,9,21,-171,-185,-166,-142,-118
-65,-64,1,64,-33,-31,12,-91,-118,-129,-100,-103
-19,-58,-39,39,10,-48,-5,-59,-66,-80,-75,-75
-8,-78,-69,43,31,-73,-1,-45,-46,-68,-70,-75
10,-81,-91,36,50,-86,-9,-50,-45,-72,-66,-75
11,-79,-90,34,50,-84,-11,-41,-45,-68,-58,-75
8,-81,-90,37,49,-86,-15,-43,-46,-72,-55,-75
11,-86,-97,37,55,-91,-22,-38,-44,-68,-48,-75
13,-87,-100,37,57,-93,-34,-36,-45,-67,-45,-73
20,-65,-85,22,53,-75,-35,-35,-37,-59,-42,-63
8,-90,-98,41,54,-94,-35,-34,-31,-55,-38,-56
-3,-122,-118,63,57,-120,-40,-30,-24,-49,-36,-48
3,-87,-90,43,46,-88,-39,-30,-17,-33,-28,-40
15,-61,-76,23,46,-68,-41,-28,-12,-16,-14,-34
23,-51,-74,15,49,-62,-49,-21,-5,-9,1,-25
27,-39,-66,6,47,-52,-60,-16,5,-4,4,-21
31,-31,-62,0,47,-46,-70,-9,37,30,18,-8
37,-18,-56,-9,47,-37,-80,-5,59,64,52,13
55,5,-51,-30,53,-23,-93,2,77,82,73,30
67,27,-40,-47,53,-6,-103,11,102,117,93,57
79,49,-30,-63,54,9,-110,19,109,134,118,66
92,70,-22,-81,57,24,-110,31,116,145,137,75
102,85,-16,-93,59,34,-107,36,112,157,151,92
97,86,-11,-91,53,37,-104,35,106,150,157,87
87,77,-10,-82,48,33,-101,35,103,145,151,81
80,71,-10,-75,45,30,-100,35,97,139,141,74
67,62,-5,-64,36,28,-90,36,93,133,134,67
62,57,-5,-59,33,26,-74,29,73,108,118,61
42,37,-5,-39,23,16,-63,16,49,78,93,55
29,13,-16,-21,22,-1,-52,5,28,57,72,44
25,6,-19,-15,22,-6,-43,-3,7,26,53,26
24,-1,-24,-11,24,-13,-39,-7,-10,6,35,12
29,-8,-37,-10,34,-22,-40,-13,-20,1,21,3
17,-14,-31,-1,25,-22,-40,-19,-27,-4,13,-5
10,-20,-31,5,21,-26,-40,-24,-38,-8,9,-14
-2,-24,-22,14,11,-23,-40,-22,-44,-12,4,-20
14,-25,-39,6,27,-32,-37,-20,-36,-17,0,-28
39,-28,-67,-5,53,-47,-34,-20,-28,-20,-5,-28
33,-31,-64,0,48,-47,-35,-15,-20,-20,-9,-25
38,-27,-65,-5,52,-46,-31,-15,-12,-20,-10,-25
40,-25,-65,-7,53,-45,-30,-14,-14,-20,-11,-21
40,-25,-65,-7,53,-45,-30,-10,-15,-20,-14,-19
41,-22,-63,-10,52,-42,-25,-10,-15,-20,-16,-21
40,-19,-59,-10,49,-39,-25,-10,-20,-20,-13,-28
40,-20,-60,-10,50,-40,-24,-13,-20,-20,-10,-31
30,-30,-60,0,45,-44,-20,-18,-21,-21,-10,-30
28,-32,-60,2,44,-46,-20,-20,-25,-19,-10,-30
32,-29,-60,-1,46,-44,-22,-25,-25,-22,-10,-30
33,-31,-65,-1,49,-48,-25,-28,-25,-33,-10,-30
36,-29,-65,-3,50,-46,-28,-32,-25,-36,-14,-25
35,-32,-66,-1,50,-49,-31,-35,-25,-34,-15,-25
44,-26,-70,-9,57,-48,-35,-35,-29,-36,-15,-24
46,-24,-70,-11,58,-47,-35,-37,-31,-34,-15,-19
30,-38,-68,4,49,-53,-29,-41,-35,-36,-15,-21
25,-32,-57,3,42,-44,-23,-40,-34,-42,-14,-18
26,-22,-48,-2,37,-34,-19,-44,-29,-41,-8,-13
19,-14,-33,-2,26,-23,-13,-45,-30,-29,-2,-10
17,1,-16,-9,16,-7,-7,-45,-30,-23,3,-7
32,27,-4,-29,18,11,-9,-50,-30,-25,9,-2
38,50,12,-44,13,31,-25,-50,-30,-25,14,0
28,41,13,-35,7,27,-53,-50,-27,-25,11,-6
39,25,-13,-32,26,6,-59,-50,-24,-24,9,-9
60,16,-45,-38,52,-14,-64,-50,-28,-33,10,-15
82,6,-76,-44,79,-34,-72,-58,-43,-40,5,-14
99,2,-97,-50,98,-47,-60,-61,-46,-42,5,-16
84,-7,-91,-38,88,-49,-53,-56,-44,-45,4,-14
74,-32,-106,-20,90,-69,-44,-54,-46,-49,-1,-16
52,-48,-100,-2,77,-74,-37,-50,-44,-50,-6,-29
18,-43,-61,13,40,-52,-31,-50,-46,-52,-11,-24
29,-41,-70,6,49,-55,-24,-50,-55,-62,-14,-40
33,-39,-72,3,52,-55,-18,-50,-57,-67,-21,-52
34,-34,-67,0,51,-50,-10,-50,-54,-63,-19,-40
35,-38,-73,1,55,-55,-14,-50,-55,-65,-22,-40
28,-38,-65,5,47,-52,-15,-51,-50,-57,-19,-29
39,-38,-76,-1,58,-57,-16,-47,-50,-62,-21,-27
42,-37,-79,-2,61,-58,-19,-45,-49,-60,-20,-27
50,-41,-91,-4,71,-66,-20,-42,-41,-58,-18,-32
46,-31,-77,-7,62,-54,-18,-39,-39,-66,-24,-37
51,-33,-85,-9,68,-59,14,-1,-8,-45,-36,-51
53,-22,-75,-15,64,-48,40,112,105,22,-10,-39
146,158,12,-152,67,84,-47,179,335,446,416,256
347,440,93,-394,127,266,-208,162,517,774,802,615
251,557,306,-404,-27,431,-190,22,206,301,458,546
3,352,349,-178,-173,350,-3,-220,-383,-320,-66,190
-70,120,190,-25,-130,155,223,-128,-412,-407,-217,-41
-107,48,155,29,-131,101,363,20,-222,-317,-211,-144
-133,24,157,54,-145,91,208,-173,-272,-296,-210,-168
-82,18,100,31,-91,59,42,-206,-202,-200,-142,-109
-5,3,8,1,-7,6,28,-99,-105,-129,-85,-94
26,-3,-29,-11,27,-16,15,-59,-68,-91,-55,-87
36,-23,-59,-6,48,-41,14,-30,-39,-68,-43,-80
29,-45,-74,8,52,-59,9,-38,-35,-61,-47,-78
36,-47,-83,6,60,-65,7,-34,-26,-52,-44,-71
41,-52,-93,5,67,-72,4,-35,-24,-57,-46,-69
24,-57,-82,17,53,-69,0,-36,-15,-54,-45,-63
27,-57,-84,15,56,-70,0,-32,-12,-56,-42,-58
25,-51,-76,14,50,-63,-5,-30,-9,-55,-36,-52
29,-47,-76,10,53,-62,-10,-30,-12,-53,-33,-48
42,-44,-86,1,64,-64,-14,-27,-15,-43,-27,-41
44,-39,-83,-2,63,-61,-19,-24,-7,-35,-24,-37
41,-36,-77,-2,60,-56,-23,-25,-1,-26,-16,-31
45,-29,-74,-7,60,-51,-28,-19,6,-16,-9,-25
53,-16,-69,-18,61,-42,-37,-14,22,1,8,-17
60,-5,-65,-27,63,-35,-46,-9,38,31,36,-11
81,23,-58,-52,70,-18,-54,-2,57,51,52,-3
98,47,-50,-72,74,-1,-67,2,82,75,71,17
108,63,-45,-85,76,9,-87,8,107,97,89,34
118,81,-37,-99,77,22,-91,14,132,123,120,57
114,86,-28,-99,70,29,-90,21,137,146,147,73
118,101,-17,-110,67,42,-95,28,131,147,153,84
125,117,-8,-121,66,55,-95,34,129,158,164,93
130,130,1,-130,64,65,-93,41,124,163,167,84
127,130,3,-129,62,66,-73,43,121,155,158,78
112,116,4,-114,54,60,-55,37,117,151,149,70
110,105,-6,-107,58,49,-45,33,111,131,142,62
127,89,-37,-107,82,26,-35,28,98,99,121,57
125,78,-48,-101,86,15,-26,24,77,71,92,42
111,68,-43,-89,77,12,-18,19,59,39,75,24
103,57,-46,-80,74,5,-10,16,47,14,59,16
92,48,-44,-69,68,2,-2,13,38,7,49,9
86,41,-46,-63,66,-2,-3,10,27,3,43,2
84,34,-50,-59,66,-7,-6,8,22,-1,36,-4
79,26,-53,-52,66,-13,-5,4,25,-6,29,-16
76,18,-58,-47,67,-20,-10,8,25,-10,22,-27
78,18,-60,-48,69,-21,-10,10,25,-5,20,-27
85,21,-64,-52,74,-21,-11,11,36,-5,17,-25
85,19,-66,-52,75,-23,-18,16,45,-5,14,-25
79,20,-58,-50,69,-19,-22,14,45,-5,11,-25
91,20,-71,-55,81,-26,-34,11,45,-6,10,-25
101,21,-80,-60,90,-29,-46,8,46,-2,10,-25
88,17,-71,-53,80,-27,-51,5,45,0,9,-25
83,15,-68,-49,75,-26,-69,3,43,0,11,-24
76,15,-61,-45,68,-23,-85,-1,40,0,8,-29
68,12,-56,-40,62,-21,-94,3,37,0,17,-36
63,9,-54,-36,59,-23,-121,5,35,-5,27,-35
73,12,-61,-42,67,-25,-148,5,32,-13,21,-35
91,32,-60,-62,75,-14,-167,8,26,-19,18,-35
95,36,-59,-65,76,-11,-182,11,21,-27,15,-35
90,34,-56,-61,72,-11,-191,10,19,-31,10,-33
88,36,-52,-61,70,-8,-204,-1,10,-40,12,-27
104,34,-70,-68,86,-18,-203,-16,15,-47,17,-23
90,37,-53,-63,71,-8,-195,-2,31,-39,22,-18
86,40,-46,-63,66,-3,-194,7,25,-32,26,-14
108,60,-47,-84,77,6,-186,10,17,-26,31,-9
82,71,-11,-76,46,30,-186,40,12,-25,36,-6
58,63,5,-61,26,34,-221,43,3,-25,33,-5
67,61,-6,-63,36,27,-245,30,1,-26,27,-6
81,55,-26,-68,53,14,-253,24,13,-24,24,-4
99,50,-49,-74,73,1,-265,15,18,-32,18,-8
104,40,-64,-72,84,-12,-281,11,13,-46,15,-17
99,30,-70,-64,84,-20,-282,5,18,-45,8,-26
114,21,-93,-67,103,-36,-251,0,27,-44,0,-35
105,5,-100,-55,103,-48,-225,-7,21,-59,-5,-45
92,11,-80,-51,86,-34,-201,-9,11,-67,-14,-58
88,23,-66,-55,77,-21,-186,-4,4,-64,-21,-61
74,19,-55,-46,64,-18,-185,0,-5,-87,-26,-59
67,20,-47,-44,57,-13,-180,2,-8,-91,-25,-60
58,20,-38,-39,48,-9,-179,7,-13,-85,-25,-59
54,20,-34,-36,44,-7,-174,10,-14,-86,-26,-61
55,21,-34,-38,45,-6,-174,14,-5,-78,-23,-63
66,25,-41,-45,53,-8,-169,21,5,-82,-27,-68
76,21,-55,-48,65,-16,-164,25,16,-71,-17,-68
63,10,-53,-37,58,-21,-172,34,16,-70,-23,-74
50,8,-42,-29,46,-17,-153,31,22,-69,-29,-90
49,-1,-49,-24,49,-25,-121,102,82,-80,-70,-132
96,80,-16,-88,56,32,-124,230,270,169,131,4
309,335,27,-322,141,181,-269,257,542,648,629,399
389,564,175,-477,107,369,-381,182,475,527,621,533
135,486,351,-311,-108,418,-237,-29,-51,-93,111,257
-39,250,289,-106,-165,269,-36,-138,-347,-372,-194,-27
-88,107,195,-10,-142,150,172,31,-230,-326,-238,-180
-142,42,184,50,-163,113,194,-8,-214,-329,-242,-249
-123,41,163,41,-144,102,-27,-166,-223,-286,-207,-236
-55,25,80,15,-68,52,-111,-98,-128,-192,-155,-198
-10,3,14,3,-13,8,-106,-30,-67,-166,-117,-177
8,1,-7,-4,8,-3,-121,-11,-43,-149,-85,-172
36,-9,-44,-13,40,-26,-127,-12,-51,-144,-84,-170
27,-14,-41,-6,34,-27,-132,-21,-65,-135,-93,-165
17,-19,-36,1,27,-27,-122,-23,-87,-127,-97,-162
31,-15,-46,-8,39,-31,-124,-31,-86,-122,-90,-160
30,-15,-44,-7,37,-29,-116,-29,-66,-118,-85,-161
30,-16,-46,-7,38,-31,-116,-31,-58,-117,-80,-160
30,-14,-45,-7,38,-30,-137,-30,-43,-112,-72,-160
30,-15,-45,-7,38,-30,-140,-30,-31,-111,-74,-156
16,-28,-45,7,31,-36,-140,-28,-15,-108,-80,-155
4,-30,-35,13,20,-32,-145,-24,-7,-101,-76,-155
21,-10,-31,-6,26,-20,-145,-22,-4,-89,-68,-148
21,1,-19,-11,20,-9,-145,-19,-2,-81,-65,-139
26,-8,-33,-9,30,-20,-130,-16,2,-68,-57,-131
50,-6,-56,-22,53,-30,-138,-14,16,-37,-30,-119
69,40,-29,-55,49,6,-163,-11,35,0,3,-97
90,82,-7,-86,48,37,-173,-6,67,25,22,-83
82,88,6,-85,37,47,-178,-4,96,43,33,-75
74,92,18,-83,28,55,-172,1,112,71,52,-70
83,114,31,-99,25,72,-167,4,117,82,66,-61
99,142,43,-121,28,92,-164,8,114,86,75,-46
110,153,43,-132,33,98,-158,10,111,93,83,-34
116,154,37,-135,39,95,-155,11,110,86,78,-20
102,147,45,-125,29,95,-144,15,109,79,72,-26
55,130,75,-93,-10,102,-130,15,93,74,68,-45
43,116,73,-79,-15,94,-116,6,77,58,53,-69
27,85,58,-56,-15,71,-102,-6,58,33,28,-89
-2,49,52,-24,-27,50,-88,-17,40,12,10,-98
5,44,39,-25,-17,41,-80,-28,27,-7,-3,-106
15,46,30,-31,-8,38,-75,-37,16,-22,-15,-125
8,45,36,-27,-14,40,-70,-36,15,-34,-25,-141
7,45,38,-27,-16,42,-66,-35,15,-43,-32,-139
14,37,23,-26,-5,30,-61,-34,15,-48,-43,-140
19,29,10,-24,5,19,-57,-30,15,-47,-48,-140
23,20,-2,-21,12,9,-53,-30,14,-43,-46,-140
25,12,-13,-18,19,0,-47,-28,9,-42,-42,-140
26,9,-17,-17,21,-4,-44,-24,6,-38,-39,-142
27,5,-22,-16,24,-8,-38,-22,3,-36,-52,-146
27,2,-24,-14,25,-11,-35,-19,-2,-33,-56,-145
17,-3,-20,-7,19,-11,-35,-16,-4,-30,-55,-145
15,-5,-20,-5,18,-12,-35,-15,-10,-30,-53,-145
20,2,-19,-11,19,-8,-35,-21,-20,-30,-50,-144
32,1,-31,-16,31,-15,-35,-28,-31,-30,-50,-141
32,-3,-35,-14,34,-19,-35,-32,-37,-29,-50,-138
7,-11,-19,2,13,-15,-33,-36,-35,-39,-54,-135
1,-18,-20,9,11,-19,-29,-39,-35,-47,-56,-133
5,-16,-21,6,14,-18,-30,-43,-33,-44,-51,-129
4,-13,-17,5,11,-15,-30,-44,-29,-47,-50,-130
5,-11,-15,4,10,-13,-30,-41,-29,-50,-70,-146
4,-7,-11,2,8,-9,-30,-38,-40,-50,-73,-145
12,2,-10,-7,11,-4,-25,-35,-46,-50,-62,-131
16,11,-5,-13,10,3,-20,-33,-40,-51,-59,-126
13,18,5,-16,4,11,-15,-29,-35,-49,-49,-123
18,32,14,-25,1,23,-12,-29,-33,-52,-46,-121
12,42,30,-27,-9,36,-5,-21,-23,-55,-49,-117
-2,38,40,-18,-21,39,-12,-32,-38,-55,-50,-115
7,33,26,-20,-10,29,-49,-70,-65,-55,-52,-115
15,30,14,-23,0,22,-61,-76,-64,-54,-56,-115
23,23,-1,-23,12,11,-65,-74,-73,-63,-62,-115
46,14,-32,-30,39,-9,-70,-73,-82,-72,-68,-115
27,6,-21,-16,24,-7,-59,-69,-79,-67,-58,-120
35,-6,-41,-14,38,-23,-55,-71,-80,-63,-46,-118
43,-31,-75,-6,59,-53,-44,-70,-90,-82,-71,-128
-5,-42,-37,23,16,-39,-21,-70,-104,-103,-92,-146
-4,-38,-34,21,15,-36,-10,-70,-108,-99,-89,-145
1,-42,-43,21,22,-42,-8,-70,-107,-98,-90,-145
-7,-37,-30,22,12,-33,-6,-70,-104,-96,-93,-146
-17,-50,-33,34,8,-41,-2,-69,-101,-92,-94,-144
-38,-60,-22,49,-7,-41,-1,-63,-99,-101,-96,-144
-22,-44,-22,33,1,-33,3,-57,-94,-96,-104,-137
-22,-36,-15,29,-3,-25,5,-53,-94,-104,-126,-140
-30,-42,-11,36,-9,-26,10,-45,-90,-96,-116,-131
-4,-42,-38,23,18,-40,12,-43,-89,-103,-122,-133
-4,-48,-44,26,20,-46,16,-23,-94,-98,-131,-130
-5,-78,-73,42,34,-75,42,29,-49,-70,-158,-155
13,-14,-27,1,20,-20,47,124,106,79,-39,-81
147,216,69,-182,38,142,-74,157,351,589,519,337
277,484,206,-381,35,345,-222,75,398,686,704,608
102,488,386,-295,-143,437,-145,-54,-12,47,170,376
-101,245,346,-72,-224,295,32,-186,-436,-401,-266,23
-135,76,212,29,-174,144,248,-44,-359,-399,-337,-171
-162,-4,158,83,-160,77,373,34,-247,-344,-332,-259
-190,-33,157,111,-173,62,209,-169,-305,-325,-332,-257
-153,-35,118,93,-135,42,79,-177,-235,-243,-259,-202
-82,-41,41,62,-62,0,51,-114,-152,-180,-210,-181
-47,-38,9,42,-28,-14,31,-86,-109,-140,-176,-166
-54,-61,-7,58,-23,-34,35,-64,-94,-118,-154,-163
-38,-64,-26,51,-6,-44,23,-72,-96,-121,-156,-157
-16,-63,-46,40,15,-55,21,-61,-94,-119,-154,-151
-40,-85,-45,63,3,-65,14,-64,-96,-120,-156,-146
-54,-86,-33,70,-10,-59,10,-58,-95,-120,-154,-149
-55,-90,-35,73,-10,-63,7,-61,-90,-119,-155,-152
-28,-88,-60,58,17,-74,3,-60,-66,-113,-150,-144
-18,-82,-64,50,23,-72,0,-60,-55,-106,-146,-141
-27,-79,-52,53,13,-65,-6,-61,-50,-99,-144,-134
-24,-73,-49,49,13,-61,-2,-60,-45,-93,-139,-129
-30,-70,-40,50,5,-55,0,-59,-41,-84,-137,-124
-26,-61,-35,44,5,-48,-7,-52,-37,-72,-129,-116
-18,-46,-28,32,5,-37,-18,-46,-29,-60,-108,-109
-7,-32,-25,20,9,-28,-27,-39,-7,-44,-87,-103
-2,-18,-16,10,7,-17,-38,-32,11,-22,-71,-89
17,1,-15,-9,16,-7,-47,-27,22,2,-53,-67
23,23,0,-23,11,11,-55,-19,42,32,-33,-52
18,38,20,-28,-1,29,-59,-6,62,45,-13,-40
31,53,22,-42,4,37,-56,5,70,48,-3,-28
33,65,33,-49,0,49,-49,13,70,64,5,-16
37,74,37,-56,0,55,-46,19,68,69,14,-5
38,72,34,-55,2,53,-41,26,61,61,9,3
25,60,35,-43,-6,47,-37,33,56,54,0,9
-12,48,60,-19,-36,54,-31,31,50,48,-5,4
-30,37,68,-4,-49,52,-14,24,46,38,-15,-15
-28,26,54,1,-41,40,-3,18,33,17,-20,-28
-35,14,49,10,-43,31,1,6,12,-10,-31,-48
-36,4,40,16,-38,22,6,-9,-5,-32,-53,-70
-48,-12,36,30,-41,12,12,-19,-21,-50,-68,-75
-53,-21,32,37,-42,5,18,-20,-32,-57,-78,-83
-48,-20,28,34,-38,4,22,-20,-31,-55,-85,-94
-44,-19,25,31,-35,3,29,-25,-28,-52,-85,-96
-48,-28,19,38,-33,-4,35,-25,-25,-49,-84,-92
-63,-37,26,50,-44,-5,40,-24,-22,-59,-94,-102
-63,-32,31,47,-47,0,40,-18,-20,-61,-100,-110
-57,-30,27,44,-42,-1,40,-12,-18,-56,-93,-102
-51,-26,25,38,-38,-1,40,-8,-13,-54,-90,-98
-46,-25,21,35,-33,-1,40,-1,-10,-51,-85,-91
-53,-33,20,43,-36,-6,38,4,-7,-49,-80,-86
-52,-36,16,44,-34,-10,35,2,-2,-46,-80,-89
-43,-34,9,38,-25,-12,35,-3,0,-44,-80,-93
-39,-36,3,37,-20,-16,35,-5,-6,-46,-80,-98
-30,-34,-4,32,-12,-19,35,-10,-13,-45,-80,-99
-27,-36,-9,31,-8,-22,35,-13,-19,-45,-80,-95
-38,-35,3,36,-20,-16,39,-16,-26,-47,-81,-95
-45,-31,13,38,-29,-9,40,-22,-32,-54,-85,-95
-71,-50,21,60,-46,-14,40,-28,-38,-60,-85,-95
-97,-57,40,77,-68,-8,40,-34,-41,-54,-85,-95
-92,-54,39,73,-65,-7,39,-35,-39,-66,-85,-95
-89,-56,33,72,-61,-11,43,-35,-41,-77,-85,-95
-86,-55,32,70,-59,-11,45,-35,-50,-72,-85,-95
-79,-54,25,66,-52,-14,45,-35,-51,-70,-85,-95
-76,-49,27,62,-51,-11,48,-35,-46,-66,-85,-95
-70,-46,23,58,-46,-11,51,-36,-45,-65,-85,-93
-59,-34,25,47,-42,-5,49,-40,-40,-62,-85,-83
-68,-11,57,39,-62,23,59,-42,-40,-59,-83,-70
-76,6,82,35,-79,44,61,-45,-45,-60,-80,-68
-74,25,98,24,-86,61,44,-48,-45,-60,-77,-70
-76,29,104,23,-90,66,21,-50,-46,-60,-75,-70
-57,16,73,20,-65,44,-2,-53,-50,-62,-72,-70
-41,5,46,18,-44,25,-5,-56,-50,-65,-70,-70
-34,-5,29,19,-32,12,-8,-55,-50,-65,-73,-70
-31,-15,16,23,-23,0,-11,-55,-50,-65,-76,-70
-30,-25,5,27,-17,-10,1,-55,-50,-64,-79,-70
-22,-44,-21,33,-1,-32,14,-53,-50,-73,-81,-69
-49,-80,-31,65,-9,-55,32,-50,-50,-84,-79,-77
-75,-95,-20,85,-28,-57,46,-47,-50,-86,-81,-87
-71,-81,-10,76,-30,-45,53,-45,-56,-83,-84,-81
-72,-74,-1,73,-35,-37,55,-41,-56,-81,-86,-80
-75,-69,7,72,-41,-31,55,-40,-53,-77,-82,-76
-82,-71,11,76,-47,-29,55,-37,-51,-74,-79,-74
-98,-70,28,84,-63,-21,55,-34,-47,-73,-79,-79
-103,-76,27,89,-65,-24,56,-36,-45,-67,-71,-79
-95,-76,19,85,-57,-28,54,-29,-42,-78,-84,-86
-90,-73,18,81,-53,-27,62,-32,-38,-66,-74,-84
-81,-76,5,79,-43,-35,57,-25,-32,-66,-80,-93
-74,-62,12,68,-43,-25,68,-10,-33,-44,-83,-88
-68,-83,-15,76,-26,-49,84,51,15,-40,-100,-97
-25,6,31,10,-28,19,59,164,191,158,78,24
155,262,107,-209,24,184,-71,185,437,665,592,411
248,484,236,-366,6,360,-194,112,437,620,650,593
3,425,422,-214,-210,423,-65,-128,-117,-60,112,322
-182,157,339,12,-261,247,155,-281,-530,-460,-266,-8
-195,13,208,91,-201,110,369,-86,-352,-396,-308,-161
-282,-54,228,167,-255,87,386,-81,-271,-322,-294,-214
-288,-75,213,182,-251,69,184,-230,-279,-278,-251,-185
-191,-66,126,128,-159,30,114,-147,-167,-175,-175,-135
-132,-73,58,102,-95,-7,92,-69,-105,-129,-140,-117
-103,-68,34,85,-68,-17,73,-43,-57,-104,-117,-103
-86,-70,16,78,-51,-26,69,-31,-44,-89,-112,-96
-82,-84,-2,83,-40,-42,51,-38,-47,-79,-99,-88
-81,-98,-17,90,-32,-57,52,-33,-43,-73,-91,-84
-76,-92,-15,85,-30,-53,48,-37,-42,-73,-89,-80
-75,-90,-15,83,-30,-52,51,-34,-39,-68,-86,-75
-74,-87,-12,81,-31,-49,49,-31,-37,-66,-84,-71
-76,-84,-8,80,-33,-46,50,-30,-31,-64,-80,-65
-69,-81,-13,75,-28,-47,46,-29,-28,-60,-79,-60
-47,-71,-24,59,-11,-47,40,-25,-23,-53,-70,-54
-42,-65,-22,54,-10,-43,35,-25,-18,-46,-62,-49
-40,-56,-16,48,-12,-35,28,-23,-9,-29,-54,-44
-37,-50,-13,44,-12,-31,24,-16,13,-13,-43,-30
-44,-51,-7,48,-18,-29,13,-9,30,9,-23,-17
-35,-39,-4,37,-15,-21,1,-2,48,38,-3,2
-16,-12,3,14,-10,-4,-10,4,74,61,21,27
4,17,13,-11,-4,14,-21,12,99,90,49,49
13,32,19,-23,-4,25,-30,23,133,122,74,63
23,52,29,-38,-3,40,-41,33,148,142,94,68
52,78,26,-65,13,52,-48,42,152,147,102,86
54,78,24,-66,14,51,-43,48,159,156,122,110
33,73,40,-54,-3,56,-37,48,151,172,133,118
25,71,46,-48,-11,58,-32,45,144,166,123,108
11,66,55,-39,-22,60,-24,42,138,158,115,99
1,63,62,-32,-31,62,-10,39,124,144,106,91
0,59,59,-30,-29,59,3,35,101,116,96,80
-4,50,53,-23,-29,51,18,35,77,88,84,67
-11,31,42,-10,-27,36,35,23,58,58,61,53
-14,18,32,-2,-24,25,41,3,41,37,38,41
-17,9,25,4,-21,16,44,0,25,25,35,28
-22,3,25,9,-24,14,49,-3,17,15,35,18
-30,-4,25,16,-27,10,50,-6,11,10,24,13
-46,-21,25,33,-35,2,50,-9,4,10,5,7
-52,-27,25,39,-38,-1,50,-10,-3,10,-2,4
-49,-24,25,36,-36,1,50,-5,-9,10,0,-2
-45,-26,19,35,-32,-3,51,0,-5,10,0,-5
-39,-25,14,31,-26,-5,55,5,10,11,3,0
-33,-25,9,29,-20,-8,55,8,17,15,6,0
-31,-28,3,29,-17,-12,51,14,15,15,4,0
-25,-28,-3,27,-10,-16,50,13,15,15,1,-1
-21,-24,-3,23,-9,-13,50,9,12,15,0,1
-23,-19,4,21,-13,-7,50,10,10,15,-1,-4
-21,-32,-11,26,-4,-21,50,10,9,12,-5,-17
-25,-47,-22,36,-1,-34,50,10,18,7,-5,-14
-24,-43,-19,33,-2,-30,50,10,27,4,-2,-10
-19,-40,-21,30,1,-31,50,6,21,1,0,-7
-21,-38,-17,29,-2,-27,50,1,17,-4,0,-2
-19,-34,-15,27,-2,-24,50,-1,13,-5,0,0
-23,-38,-15,31,-4,-26,50,-6,7,-5,0,-5
-28,-40,-11,34,-8,-25,46,-10,4,-5,0,-5
-32,-41,-9,37,-11,-25,45,-8,-1,-5,0,-6
-34,-45,-11,40,-11,-27,45,-4,-6,-5,0,-10
-29,-45,-16,37,-6,-30,45,-5,-10,-1,-1,-10
-13,-39,-26,27,7,-32,44,1,-15,1,4,-8
-8,-36,-28,22,10,-32,47,-2,-20,0,15,-3
-6,-31,-24,19,9,-27,50,-22,-16,0,20,0
-5,-27,-22,16,9,-24,50,-20,-9,-1,24,4
-3,-21,-18,12,8,-19,49,-6,-2,2,29,8
1,-3,-4,1,3,-4,55,1,4,5,34,10
-31,7,38,12,-35,22,62,-3,11,5,33,20
-26,24,51,1,-39,37,40,-16,14,9,29,21
-4,35,40,-16,-22,37,20,-28,7,10,31,17
-1,21,22,-10,-12,21,18,-33,2,6,29,13
26,13,-13,-19,19,0,13,-30,-3,4,31,11
32,4,-28,-17,30,-12,12,-27,-8,5,29,3
33,-3,-36,-15,34,-19,5,-24,-15,0,26,16
24,-8,-32,-7,28,-19,7,-20,-10,1,45,45
17,-51,-68,17,42,-59,17,-21,-9,-2,46,27
9,-72,-80,32,45,-76,32,-26,-21,-22,36,14
-5,-55,-50,30,23,-52,50,-24,-20,-31,31,14
-5,-53,-49,29,22,-51,50,-21,-20,-29,22,9
-14,-55,-41,35,14,-48,50,-18,-20,-30,17,8
-22,-55,-33,38,6,-44,50,-15,-19,-30,19,4
-30,-59,-29,45,-1,-43,50,-14,-20,-29,21,6
-35,-60,-26,48,-5,-43,50,-10,-13,-32,18,4
-29,-60,-31,44,1,-45,50,-8,-11,-27,23,7
-33,-66,-33,49,1,-49,50,-4,-7,-34,17,3
-27,-65,-38,47,6,-52,50,-2,-3,-26,22,7
-20,-73,-54,47,17,-63,50,1,-1,-34,10,4
-38,-72,-34,55,-1,-53,60,7,11,-27,11,-14
-8,-68,-60,39,26,-64,95,70,46,-6,-6,-29
25,16,-9,-20,17,4,95,197,194,172,122,61
197,249,52,-223,72,150,-44,230,453,657,605,418
353,479,126,-416,113,302,-189,183,526,724,766,663
134,470,336,-302,-101,403,-86,-54,3,88,295,428
-89,202,292,-57,-191,247,142,-286,-499,-395,-140,81
-147,44,191,51,-169,117,368,-102,-367,-357,-194,-66
-181,36,217,73,-199,126,406,-49,-269,-276,-171,-116
-157,16,173,70,-165,94,200,-201,-263,-222,-154,-107
-93,3,96,45,-95,50,100,-133,-140,-106,-76,-61
-41,-12,29,26,-35,8,80,-43,-71,-73,-35,-43
-24,-28,-4,26,-10,-16,63,-13,-23,-36,-10,-38
-16,-49,-33,33,8,-40,63,-7,-11,-15,-7,-37
-2,-51,-49,27,24,-50,48,-2,-2,-16,-5,-33
2,-49,-51,23,27,-50,46,8,3,-13,0,-31
-1,-52,-52,26,26,-52,39,11,5,-12,2,-29
9,-58,-67,25,38,-62,41,19,12,-9,7,-23
14,-58,-72,22,43,-64,38,19,15,-10,12,-17
18,-50,-69,16,44,-59,34,20,21,-2,20,-11
24,-47,-71,11,48,-59,36,23,24,3,25,-6
27,-42,-69,8,48,-55,30,26,29,12,33,-1
32,-38,-70,3,51,-54,22,25,34,16,38,9
29,-33,-62,2,46,-47,16,31,38,28,45,13
35,-23,-58,-6,47,-40,8,37,47,39,54,23
46,-6,-52,-20,50,-29,1,43,71,54,67,39
55,9,-46,-31,50,-18,-6,45,93,87,81,50
81,39,-42,-59,61,-2,-17,45,113,113,107,77
88,53,-34,-70,60,9,-28,66,140,141,142,98
108,63,-46,-85,77,8,-41,84,165,168,164,114
125,90,-35,-107,80,27,-48,87,183,185,181,138
112,103,-9,-107,60,47,-53,91,192,202,200,153
120,114,-6,-116,62,54,-54,100,197,209,210,166
122,122,0,-122,61,61,-45,102,192,206,203,165
117,122,6,-120,55,64,-37,94,183,200,199,157
102,113,11,-108,45,62,-28,90,175,197,193,151
87,102,14,-95,36,58,-20,84,168,189,188,144
84,93,9,-89,38,51,-10,79,154,160,181,136
72,78,6,-75,33,41,0,73,131,132,164,120
54,57,3,-56,25,30,10,63,107,113,143,103
42,40,-3,-41,22,18,20,50,90,98,122,91
27,24,-3,-25,14,10,28,41,80,87,110,78
33,12,-21,-22,27,-4,37,39,70,78,99,68
44,6,-37,-24,40,-16,37,36,64,70,87,63
31,-1,-32,-15,32,-16,34,33,59,59,79,60
20,-9,-29,-5,25,-19,35,30,54,57,74,57
10,-16,-26,4,18,-21,35,31,51,61,69,52
2,-18,-21,8,12,-19,35,35,44,60,63,49
7,-14,-22,3,15,-17,36,38,52,60,57,45
29,-12,-42,-8,36,-27,40,39,61,60,55,41
28,-9,-37,-10,33,-23,40,48,59,60,55,38
39,-6,-45,-16,43,-25,40,52,60,60,55,35
58,-4,-61,-27,60,-32,40,49,60,60,55,30
58,9,-49,-33,53,-20,40,50,60,60,55,32
54,9,-45,-31,49,-18,36,45,60,60,54,42
38,1,-37,-20,37,-17,35,45,60,60,50,41
37,-1,-38,-18,38,-19,35,44,60,58,50,40
34,-7,-41,-14,38,-24,30,39,60,53,50,39
29,-10,-39,-10,34,-25,30,36,60,50,50,34
25,-16,-40,-5,33,-28,30,32,60,47,49,36
17,-23,-40,3,29,-31,30,28,55,42,52,31
15,-25,-40,5,28,-32,30,25,47,40,55,38
15,-25,-40,5,28,-32,30,22,41,45,55,52
34,-20,-54,-6,44,-37,30,17,33,45,55,46
39,-20,-60,-9,49,-40,30,14,25,45,54,44
31,-19,-50,-6,40,-34,34,11,22,45,56,40
30,-15,-45,-8,38,-30,35,6,25,45,59,35
22,-15,-37,-3,30,-26,35,6,25,45,62,38
18,-12,-30,-3,25,-21,35,15,25,44,57,39
36,-3,-38,-16,37,-20,35,25,28,53,71,47
38,8,-30,-23,34,-10,45,36,44,72,96,70
33,24,-9,-28,21,7,54,37,54,76,95,81
52,41,-11,-47,31,15,39,29,42,62,95,76
44,40,-4,-42,24,18,10,20,35,57,95,73
38,31,-7,-34,23,11,-7,10,35,60,95,70
61,22,-39,-41,50,-8,-11,0,35,59,93,65
81,17,-64,-48,72,-24,-17,-9,35,60,87,67
99,14,-86,-56,92,-36,-23,-10,35,60,84,73
102,17,-85,-59,93,-34,-23,-10,35,60,79,71
94,7,-87,-50,91,-40,-13,-10,31,55,74,66
75,-28,-103,-23,90,-66,-2,-10,30,49,70,64
58,-38,-96,-10,77,-67,6,-9,30,46,65,59
52,-32,-84,-9,68,-58,11,-2,30,40,60,56
47,-30,-77,-8,62,-54,16,2,30,38,58,53
48,-28,-76,-9,62,-52,22,8,32,33,49,49
50,-23,-73,-13,62,-48,27,14,40,37,54,51
41,-30,-71,-5,56,-50,33,19,45,33,57,50
22,-45,-67,11,45,-56,35,23,45,37,66,65
20,-45,-65,13,43,-55,35,26,45,35,65,65
27,-40,-68,7,48,-54,34,24,44,33,69,64
44,-38,-82,-3,63,-60,36,27,50,50,77,71
41,-37,-79,-2,61,-57,42,22,46,30,78,72
53,-27,-81,-13,67,-54,60,44,52,38,82,61
71,-3,-74,-33,72,-38,76,172,169,94,67,47
162,145,-17,-153,89,64,5,260,414,502,466,319
379,411,32,-395,173,222,-180,220,607,860,867,681
308,522,214,-415,47,368,-202,87,339,408,551,624
25,348,323,-187,-149,335,-12,-161,-254,-189,44,293
-67,130,197,-32,-133,163,201,-130,-358,-310,-141,54
-122,8,130,56,-126,69,381,58,-178,-235,-115,-46
-163,-38,125,101,-144,43,286,-72,-197,-196,-110,-71
-121,-24,97,73,-109,36,109,-134,-132,-124,-59,-36
-57,-27,30,42,-43,2,73,-46,-35,-57,-7,-2
-10,-31,-21,21,5,-25,43,-8,18,-22,26,39
15,-34,-48,10,32,-41,39,24,57,16,77,62
45,-40,-84,-2,65,-62,24,28,54,20,74,59
53,-40,-93,-6,73,-66,16,31,55,25,75,60
51,-45,-97,-2,74,-71,15,30,55,31,72,60
53,-45,-99,-4,76,-72,10,29,54,29,69,60
49,-53,-102,2,76,-77,9,31,58,30,71,60
46,-63,-110,9,78,-86,4,29,80,43,79,70
48,-59,-107,5,78,-83,4,26,87,52,88,76
54,-47,-101,-3,77,-73,-3,24,87,49,90,75
59,-38,-96,-10,78,-67,-8,26,92,51,95,75
62,-28,-89,-17,76,-58,-12,24,93,63,106,89
69,-17,-86,-25,78,-51,-19,25,99,83,115,95
82,-8,-91,-37,87,-50,-23,25,110,101,120,97
109,17,-92,-63,101,-37,-32,24,130,132,154,129
135,47,-88,-91,111,-20,-46,38,150,164,183,159
143,58,-86,-100,114,-14,-54,51,177,181,191,172
148,67,-81,-107,114,-7,-57,66,203,208,212,185
147,81,-66,-114,107,7,-60,86,217,241,250,213
156,102,-54,-129,104,24,-69,94,234,258,266,236
163,121,-42,-141,102,39,-71,95,237,266,281,245
155,119,-36,-137,95,42,-66,96,234,273,306,260
143,116,-27,-129,84,44,-63,99,235,266,301,258
135,113,-22,-124,78,46,-61,101,234,256,294,250
126,110,-16,-118,71,47,-54,98,236,250,288,246
118,109,-9,-113,64,49,-40,91,211,239,281,240
138,97,-41,-118,89,28,-30,83,177,214,263,230
137,78,-58,-107,97,10,-20,75,165,187,236,214
111,57,-53,-84,82,2,-11,67,154,167,225,202
101,45,-55,-73,78,-5,-8,62,142,150,213,190
94,38,-55,-66,74,-8,-4,57,131,134,202,179
83,30,-54,-56,68,-12,-1,54,119,124,192,167
82,23,-59,-52,70,-18,3,51,108,126,184,158
93,16,-77,-54,85,-30,7,46,98,123,175,151
97,15,-82,-56,89,-33,10,46,94,120,167,144
98,15,-83,-56,90,-34,13,51,93,119,165,136
98,10,-87,-54,92,-38,15,54,87,122,165,129
99,10,-89,-55,94,-40,18,59,101,125,165,125
101,9,-92,-55,96,-41,21,61,122,125,165,125
95,0,-95,-47,95,-47,16,59,116,125,164,125
89,-11,-100,-39,95,-55,15,62,113,125,160,125
88,-12,-100,-38,94,-56,15,65,110,125,160,125
94,-6,-100,-44,97,-53,11,65,105,119,159,124
98,-2,-100,-48,99,-51,10,65,105,112,155,120
103,3,-100,-53,101,-49,10,65,105,106,155,120
107,8,-100,-57,103,-46,10,65,105,100,157,119
111,11,-100,-61,105,-44,10,61,104,91,160,115
109,16,-92,-62,100,-38,10,60,105,94,159,115
108,20,-88,-64,98,-33,10,60,104,105,164,117
107,25,-82,-66,94,-28,11,55,101,105,165,121
104,30,-74,-67,89,-22,6,55,98,104,165,124
131,27,-104,-78,117,-38,6,56,96,106,170,127
135,24,-111,-79,123,-44,3,61,92,104,170,131
121,28,-93,-74,107,-33,9,66,90,106,170,134
123,37,-86,-79,105,-25,21,69,92,104,169,137
119,46,-74,-82,96,-14,31,75,99,104,175,144
116,53,-62,-84,89,-4,36,68,116,118,183,150
120,70,-50,-95,85,10,9,50,117,117,180,145
121,72,-49,-96,85,11,-9,44,103,109,176,140
103,56,-47,-80,75,5,-17,46,93,102,175,135
128,44,-83,-86,105,-19,-32,42,82,95,170,132
165,42,-123,-103,144,-41,-39,40,80,85,170,125
171,32,-139,-101,155,-53,-35,40,80,86,164,127
167,31,-136,-99,152,-52,-25,44,80,101,162,136
67,7,-60,-36,63,-27,-10,44,80,83,160,118
