I,II,III,aVR,aVL,aVF,V1,V2,V3,V4,V5,V6
-40,-118,-78,79,19,-98,11,-44,-157,-169,-124,-65
-40,-97,-56,69,8,-76,25,-33,-125,-146,-107,-65
-62,-81,-20,72,-20,-50,49,-12,-73,-108,-88,-64
-92,-91,1,91,-46,-44,74,3,-36,-97,-89,-67
-93,-87,6,89,-49,-40,81,17,-5,-87,-85,-80
-82,-78,5,80,-43,-36,80,29,19,-75,-82,-77
-73,-67,5,70,-39,-31,78,36,34,-64,-80,-71
-62,-57,5,59,-33,-26,75,52,57,-48,-77,-68
-54,-48,5,51,-29,-21,75,72,82,-25,-68,-62
-45,-35,10,40,-27,-13,71,91,116,11,-57,-59
-35,-20,15,27,-25,-2,70,118,159,42,-48,-51
-4,15,20,-6,-12,17,70,158,210,67,-28,-43
14,37,24,-26,-5,30,71,206,290,117,1,-35
35,65,29,-50,3,47,68,274,384,189,28,-28
58,86,28,-72,15,57,75,347,494,273,58,-14
64,86,22,-76,21,54,74,405,589,363,104,8
110,128,18,-119,46,72,52,465,680,453,153,45
157,170,14,-164,71,92,40,501,757,541,205,80
185,194,9,-190,88,101,27,495,772,584,238,104
188,194,5,-191,91,99,16,457,736,569,247,115
178,189,11,-184,84,100,3,384,630,514,242,113
161,177,17,-169,71,97,-3,281,477,398,202,102
119,141,22,-130,48,81,4,188,338,272,145,72
101,130,28,-116,36,79,8,132,227,180,96,40
79,107,28,-93,25,67,14,83,140,105,54,18
65,86,21,-76,22,53,20,45,85,56,26,4
45,59,14,-52,15,36,24,26,52,17,11,-7
7,15,8,-11,-1,11,25,19,29,-4,4,-17
27,27,0,-27,13,13,25,15,23,-7,-2,-26
40,36,-4,-38,22,15,25,9,15,-11,-10,-28
15,14,0,-14,7,7,25,3,8,-14,-15,-24
12,12,0,-12,6,6,24,1,0,-19,-23,-25
21,22,1,-21,10,11,28,5,-3,-20,-24,-25
13,18,5,-16,4,12,30,5,0,-20,-26,-25
10,14,4,-12,2,9,30,10,-1,-20,-39,-25
8,15,7,-12,0,11,30,11,2,-20,-40,-25
-9,5,14,2,-12,9,25,10,5,-21,-40,-25
2,23,21,-13,-9,22,25,8,6,-19,-40,-25
-8,20,27,-6,-18,23,24,4,-3,-28,-40,-25
-19,16,34,1,-27,25,20,5,-16,-40,-38,-25
8,48,40,-28,-16,44,19,1,-15,-40,-35,-25
-5,36,40,-15,-23,37,23,-5,-16,-40,-35,-25
-21,19,40,1,-31,29,30,-10,-29,-42,-32,-25
-13,27,40,-7,-27,33,30,-16,-39,-45,-29,-25
-5,35,40,-15,-23,37,30,-21,-42,-49,-31,-40
-9,31,40,-11,-25,35,30,-27,-45,-56,-34,-46
-18,24,42,-3,-31,33,30,-30,-49,-61,-35,-44
-23,22,46,0,-35,34,30,-30,-51,-64,-35,-49
-32,16,48,7,-40,32,25,-34,-56,-69,-35,-50
-45,6,51,19,-48,28,23,-36,-60,-71,-37,-49
-37,17,54,9,-46,35,41,-34,-63,-85,-41,-46
-27,29,56,-1,-42,42,47,-29,-68,-98,-46,-43
-40,19,59,11,-50,39,41,-25,-69,-94,-44,-41
-40,21,61,10,-51,41,40,-23,-63,-89,-40,-37
-51,14,65,18,-59,40,35,-17,-56,-85,-38,-35
-50,17,67,17,-59,42,36,-15,-52,-80,-32,-33
-34,45,79,-6,-57,62,41,-10,-44,-75,-30,-24
-42,53,95,-6,-68,74,53,-10,-40,-71,-23,-16
-23,80,103,-28,-63,91,49,-5,-24,-65,-14,-7
-2,106,108,-52,-55,107,36,-7,-20,-56,-6,2
3,98,95,-51,-46,96,-4,-54,-55,-54,4,13
23,93,70,-58,-24,81,-24,-59,-32,-39,15,23
26,81,56,-54,-15,68,7,-57,-28,-40,28,14
-9,33,42,-12,-26,37,29,-52,-59,-61,8,-8
-50,-12,38,31,-44,13,34,-48,-83,-101,-32,-29
-72,-41,31,56,-51,-5,34,-48,-84,-110,-53,-57
-69,-50,19,60,-44,-15,50,-42,-84,-129,-66,-63
-58,-36,22,47,-40,-7,66,-62,-90,-112,-53,-60
-78,-72,6,75,-42,-33,78,-34,-81,-123,-65,-71
-78,-51,27,64,-52,-12,59,-81,-115,-138,-50,-57
-72,-67,5,69,-38,-31,91,-19,-66,-117,-50,-76
-88,8,96,39,-92,52,53,-122,-148,-146,-41,-34
-87,92,179,-3,-133,135,127,-21,24,34,45,7
145,209,64,-177,40,136,23,97,159,352,440,264
782,419,-363,-600,572,27,-796,-884,-430,1143,1283,844
923,-100,-1022,-411,972,-561,-1191,-1582,-1294,602,955,704
311,-505,-816,97,564,-660,-793,-1299,-1647,-981,-212,85
-37,-284,-247,161,105,-265,-276,-601,-873,-702,-336,-101
-50,-167,-117,109,34,-141,-2,-101,-236,-205,-147,-79
-59,-99,-40,80,-9,-69,23,-53,-145,-191,-134,-68
-84,-100,-15,92,-34,-57,56,-4,-51,-98,-103,-76
-96,-89,7,92,-51,-41,60,-3,-55,-126,-108,-75
-82,-75,7,78,-44,-34,76,13,-17,-69,-90,-74
-84,-77,7,80,-45,-35,83,27,-10,-96,-95,-77
-83,-67,16,75,-50,-25,77,34,10,-79,-85,-76
-80,-69,10,74,-45,-29,83,61,39,-69,-83,-72
-87,-61,26,73,-56,-17,78,72,68,-46,-79,-65
-99,-60,38,79,-68,-11,81,98,104,-12,-70,-61
-92,-49,43,70,-67,-3,79,125,141,4,-64,-48
-70,-26,44,47,-57,9,80,171,205,53,-52,-30
-62,-14,48,38,-55,17,80,224,277,107,-32,-19
-42,9,50,17,-46,29,79,289,376,183,5,-2
5,53,48,-29,-22,50,81,368,486,271,47,17
27,69,42,-48,-8,55,73,430,583,354,85,33
65,103,38,-84,13,70,58,483,671,444,131,70
103,137,34,-121,35,85,46,517,731,526,183,100
126,155,29,-141,48,92,31,520,752,570,216,119
143,167,25,-156,59,96,28,482,727,565,223,128
122,154,32,-138,44,93,31,395,609,499,212,113
94,137,42,-116,26,89,30,306,457,388,177,104
77,123,47,-100,15,85,30,225,328,282,134,88
32,82,50,-57,-9,66,31,147,203,176,90,50
-19,26,46,-4,-32,36,29,93,116,93,50,23
-2,39,41,-19,-22,40,35,67,71,53,14,13
6,45,39,-26,-16,42,46,42,31,19,-11,7
-22,12,34,5,-29,23,42,26,3,1,-19,3
-31,0,31,15,-31,15,38,23,-6,-5,-26,-2
-39,-12,27,25,-33,8,36,19,-5,-17,-32,-6
-46,-21,24,33,-35,1,29,16,-5,-17,-40,-11
-71,-45,25,58,-48,-10,34,11,-5,-12,-53,-22
-78,-57,21,67,-50,-18,45,11,-5,-33,-55,-27
-55,-35,19,45,-37,-8,40,15,-5,-42,-55,-22
-72,-51,21,62,-46,-15,35,11,-5,-40,-55,-29
-70,-57,13,63,-41,-21,32,10,-5,-46,-55,-39
-35,-10,25,22,-30,8,26,10,-5,-44,-55,-27
-42,-1,42,22,-42,20,23,5,-5,-40,-50,-17
-62,-23,39,43,-50,8,19,5,-6,-41,-47,-8
-45,-5,40,25,-42,17,21,4,-10,-38,-43,-5
-53,-13,40,33,-46,13,19,-2,-17,-36,-40,-4
-51,-12,39,31,-45,14,21,-6,-21,-33,-35,1
-26,17,43,4,-35,30,30,-11,-33,-41,-38,-1
-70,-25,45,47,-57,10,30,-15,-46,-67,-53,-4
-86,-41,45,63,-65,2,26,-20,-53,-75,-59,-7
-76,-32,45,53,-60,7,25,-24,-54,-76,-62,-10
-78,-33,45,55,-62,6,20,-27,-51,-82,-66,-13
-85,-41,44,63,-65,2,20,-32,-63,-85,-65,-15
-84,-44,41,64,-62,-2,25,-34,-69,-85,-65,-17
-58,-18,40,38,-49,10,25,-38,-73,-88,-65,-27
-65,-26,39,46,-52,6,25,-39,-74,-90,-65,-33
-71,-36,35,53,-53,-1,27,-44,-70,-91,-65,-31
-42,-7,35,24,-38,14,35,-45,-70,-86,-65,-29
-53,-15,38,34,-45,11,41,-41,-69,-80,-66,-25
-64,-17,47,40,-55,14,45,-34,-70,-76,-64,-23
7,72,65,-39,-29,68,62,-25,-68,-67,-56,-20
40,109,69,-74,-15,89,71,-25,-75,-68,-48,-18
39,120,81,-80,-21,100,45,-2,-75,-49,-44,-2
24,116,92,-70,-35,104,-13,-46,-87,-67,-46,30
8,87,78,-48,-35,82,-38,-87,-88,-88,-43,30
31,96,65,-63,-18,80,-22,-52,-72,-72,-47,15
23,77,54,-50,-15,65,-1,-60,-79,-56,-42,11
-4,32,36,-14,-20,33,41,-50,-75,-71,-49,-22
-32,-13,19,22,-26,3,43,-61,-102,-120,-76,-52
-40,-52,-12,47,-13,-32,49,-49,-100,-122,-91,-57
-45,-42,4,44,-24,-19,48,-60,-112,-139,-96,-54
-43,-40,3,41,-22,-18,51,-53,-98,-121,-85,-66
-77,-65,12,71,-44,-26,44,-52,-115,-152,-90,-64
-113,-88,25,100,-69,-31,29,-65,-114,-117,-68,-55
-67,-56,11,61,-38,-23,35,-39,-106,-151,-85,-60
-59,70,129,-6,-94,99,7,-166,-159,-96,-40,-18
-27,86,112,-30,-70,99,155,112,108,103,117,48
439,335,-105,-387,271,115,-247,-96,97,726,812,517
993,254,-739,-623,866,-243,-1058,-1147,-607,1342,1387,918
667,-390,-1057,-138,862,-723,-1051,-1472,-1508,-159,371,415
91,-395,-487,153,289,-441,-506,-940,-1360,-1077,-434,-80
6,-169,-175,82,91,-171,-89,-261,-449,-331,-211,-113
-16,-126,-110,71,47,-117,9,-46,-196,-240,-160,-113
-33,-83,-49,58,8,-66,34,-40,-130,-163,-118,-106
-36,-93,-57,65,11,-75,67,1,-78,-137,-113,-104
-42,-72,-30,57,-6,-51,59,-6,-72,-137,-112,-100
-39,-72,-33,56,-3,-53,70,23,-35,-100,-95,-96
-46,-61,-15,54,-15,-38,61,29,-26,-120,-100,-90
-43,-55,-12,50,-15,-33,67,44,12,-82,-83,-84
-49,-51,-1,50,-24,-26,64,62,27,-94,-85,-80
-46,-40,7,43,-26,-17,66,83,62,-61,-71,-73
-50,-39,11,44,-30,-14,76,102,91,-35,-70,-69
-47,-26,21,37,-34,-3,75,145,144,12,-53,-55
-51,-27,23,39,-37,-2,72,190,201,53,-31,-42
-27,1,29,13,-28,15,69,244,283,117,1,-28
17,53,36,-35,-10,45,65,317,386,199,25,-8
33,69,36,-51,-2,52,65,379,488,283,59,23
66,96,29,-81,18,62,59,440,587,374,111,56
100,126,26,-114,37,76,54,480,656,446,152,80
148,170,22,-159,63,96,44,497,718,522,207,114
174,191,16,-183,79,103,19,484,721,547,234,133
156,172,17,-164,69,94,13,414,634,501,222,118
129,151,22,-140,54,86,16,325,497,410,185,109
96,121,25,-109,35,72,14,236,357,295,140,91
65,93,28,-79,18,60,15,153,231,188,91,45
15,48,33,-32,-9,40,15,91,126,92,38,17
5,40,34,-23,-15,37,17,50,62,44,11,-1
10,41,31,-26,-11,36,21,30,20,15,-12,-22
-13,15,28,-1,-21,21,29,16,4,-24,-32,-28
-22,3,26,9,-24,14,31,5,0,-37,-36,-31
-35,-13,22,24,-28,4,29,-4,-5,-33,-33,-23
-53,-33,20,43,-36,-7,30,-9,-8,-43,-44,-36
-63,-41,22,52,-42,-9,30,-5,-14,-51,-56,-57
-54,-29,26,41,-40,-1,30,0,-18,-49,-55,-54
-48,-20,28,34,-37,4,43,2,-20,-50,-54,-56
-77,-46,31,62,-54,-7,50,7,-20,-50,-50,-55
-86,-52,34,68,-60,-8,43,10,-20,-50,-50,-56
-71,-35,36,52,-53,1,40,7,-20,-53,-50,-52
-69,-29,40,49,-54,5,35,3,-20,-56,-50,-44
-62,-18,45,40,-53,13,30,1,-28,-59,-50,-37
-60,-11,49,36,-54,19,27,-2,-37,-62,-50,-32
-49,-1,48,25,-48,23,24,-4,-44,-66,-50,-34
-33,11,45,10,-39,28,26,-7,-45,-71,-50,-35
-39,6,45,16,-42,25,24,-17,-47,-74,-55,-39
-51,-5,45,28,-48,20,25,-29,-61,-79,-58,-40
-63,-18,44,40,-53,13,24,-40,-68,-93,-61,-43
-68,-22,46,45,-57,11,25,-45,-68,-103,-58,-44
-68,-19,49,43,-58,15,25,-45,-78,-108,-71,-55
-62,-16,46,38,-53,15,25,-45,-82,-114,-87,-67
-57,-13,45,35,-51,16,37,-45,-80,-115,-84,-64
-57,-12,45,34,-51,16,39,-46,-80,-115,-85,-65
-45,0,45,22,-45,23,31,-44,-76,-114,-85,-65
-45,-1,44,23,-45,21,29,-46,-75,-119,-85,-65
-59,-11,48,35,-54,19,24,-43,-75,-126,-82,-62
-73,-24,50,48,-61,13,19,-46,-96,-125,-80,-55
-56,5,61,25,-58,33,33,-43,-94,-124,-80,-50
-30,49,79,-10,-54,64,39,-46,-83,-126,-80,-44
-50,32,82,9,-66,57,46,-39,-79,-123,-79,-38
-15,84,99,-35,-57,91,29,-17,-58,-116,-71,-34
30,130,101,-80,-36,115,-35,-79,-102,-110,-63,-20
9,95,86,-53,-39,90,-52,-89,-118,-101,-62,-6
2,80,78,-41,-38,78,-28,-60,-93,-98,-67,1
-11,55,66,-22,-39,60,4,-70,-86,-83,-62,-1
-43,3,46,19,-45,24,24,-60,-106,-122,-69,-35
-51,-37,14,44,-33,-12,21,-72,-138,-143,-94,-60
-38,-46,-9,42,-14,-27,38,-56,-123,-145,-114,-69
-76,-65,11,70,-43,-27,37,-75,-137,-149,-110,-72
-99,-102,-3,100,-48,-52,46,-47,-113,-135,-115,-81
-85,-69,17,77,-51,-26,22,-67,-136,-163,-114,-78
-96,-84,13,90,-54,-35,34,-39,-103,-119,-103,-81
-105,-38,66,71,-85,14,7,-81,-149,-186,-119,-77
-103,75,178,14,-141,127,49,-137,-139,-61,-33,-38
25,118,93,-72,-34,105,153,194,185,181,215,110
560,357,-203,-458,381,77,-468,-280,38,1044,1070,663
891,46,-844,-468,867,-399,-1077,-1209,-843,1150,1272,845
352,-496,-848,72,601,-672,-839,-1263,-1576,-668,18,216
-59,-330,-271,195,106,-300,-325,-658,-1043,-893,-416,-138
-32,-156,-124,94,46,-140,-15,-130,-276,-217,-152,-94
-68,-120,-53,94,-7,-86,22,-65,-163,-240,-158,-83
-66,-93,-27,80,-20,-60,56,-24,-78,-123,-107,-78
-72,-91,-19,82,-26,-55,68,11,-57,-161,-123,-82
-76,-73,3,75,-39,-34,63,14,-26,-117,-106,-79
-72,-75,-3,73,-34,-39,74,34,-7,-115,-104,-81
-74,-62,12,68,-43,-24,70,29,3,-105,-101,-78
-70,-62,8,66,-38,-27,78,46,33,-82,-87,-72
-72,-53,19,62,-45,-17,77,58,54,-75,-83,-68
-68,-49,19,58,-43,-15,81,82,90,-41,-67,-63
-69,-43,26,56,-47,-9,80,101,118,-30,-62,-59
-52,-22,31,37,-41,4,80,132,172,17,-51,-55
-30,-1,30,16,-30,14,81,180,237,63,-43,-43
-2,28,30,-13,-16,29,79,238,321,139,-12,-26
22,51,30,-37,-4,40,71,304,420,215,36,-8
41,71,30,-56,5,50,61,369,520,314,82,19
74,105,31,-90,21,68,54,416,610,406,122,50
97,132,35,-115,31,83,42,457,676,481,168,81
124,159,35,-142,44,97,26,455,704,536,211,111
129,166,37,-147,45,101,10,415,689,531,212,120
111,151,41,-131,35,96,3,364,594,483,197,112
94,134,40,-114,27,87,0,276,458,378,177,103
58,94,37,-76,11,65,-5,189,323,263,121,71
28,63,34,-46,-3,48,-1,125,202,164,73,37
6,42,35,-25,-15,38,5,89,122,82,36,18
-11,24,35,-7,-23,29,10,58,65,28,-3,7
-30,5,35,12,-33,20,16,28,34,-2,-20,1
-41,-7,34,23,-37,13,22,25,24,-9,-34,-8
-25,4,29,10,-27,16,25,25,26,-23,-44,-16
-25,-1,24,13,-24,11,25,25,23,-30,-45,-24
-33,-13,20,23,-26,3,25,26,19,-30,-46,-30
-42,-27,15,34,-28,-6,25,24,21,-30,-49,-30
-41,-31,10,36,-25,-10,25,21,16,-29,-51,-30
-53,-40,13,46,-33,-13,25,14,10,-31,-48,-30
-44,-25,19,34,-31,-3,29,11,5,-29,-45,-30
-31,-9,22,20,-27,6,30,6,-1,-39,-45,-30
-51,-24,27,37,-38,1,30,1,-7,-47,-43,-26
-55,-25,30,40,-42,2,30,-3,-11,-44,-39,-25
-53,-23,30,38,-41,3,30,-7,-24,-53,-40,-25
-19,13,32,3,-26,23,29,-10,-34,-63,-43,-21
-50,-14,35,32,-43,11,25,-14,-38,-69,-52,-19
-78,-43,35,60,-56,-4,25,-17,-41,-76,-55,-22
-51,-19,32,35,-41,6,23,-21,-50,-82,-55,-25
-45,-19,26,32,-35,3,19,-24,-59,-90,-60,-31
-28,-7,21,18,-25,7,20,-27,-64,-99,-60,-29
-39,-21,18,30,-29,-2,20,-29,-71,-106,-64,-34
-44,-32,12,37,-28,-10,20,-34,-77,-112,-76,-49
-35,-24,11,30,-23,-6,20,-40,-85,-120,-80,-51
-38,-23,15,30,-27,-3,20,-40,-94,-129,-82,-49
-34,-19,15,26,-24,-2,20,-40,-95,-131,-85,-47
-28,-13,15,20,-21,1,20,-39,-95,-134,-88,-43
-39,-24,15,31,-26,-5,20,-41,-95,-135,-91,-49
-45,-29,15,37,-30,-7,20,-36,-95,-129,-86,-56
-42,-23,19,32,-30,-3,32,-32,-94,-127,-81,-54
-29,8,37,10,-33,22,51,-25,-89,-121,-74,-49
-35,24,60,5,-48,42,48,-22,-90,-119,-69,-47
-42,28,71,7,-57,49,54,-15,-88,-114,-63,-43
-5,80,85,-38,-46,82,35,-10,-83,-111,-53,-29
16,98,82,-57,-34,90,-30,-73,-88,-120,-40,-14
49,109,60,-80,-6,85,-39,-72,-78,-110,-30,-11
34,84,49,-59,-8,66,-14,-42,-84,-109,-22,-3
26,63,37,-45,-5,50,24,-48,-76,-77,-16,-1
-7,16,23,-5,-15,19,53,-40,-87,-104,-63,-36
-88,-65,22,76,-55,-22,46,-47,-119,-140,-93,-58
-75,-67,8,70,-41,-29,55,-31,-114,-145,-97,-71
-65,-48,17,56,-41,-15,43,-52,-121,-138,-93,-66
-58,-62,-4,60,-27,-33,58,-26,-96,-127,-95,-64
-41,-32,9,37,-25,-11,52,-56,-124,-144,-97,-51
-56,-52,4,54,-30,-24,77,-22,-73,-100,-87,-50
-95,-27,67,61,-81,20,69,-85,-144,-184,-84,-40
-118,63,180,27,-149,121,96,-74,-68,-42,-2,-18
47,156,109,-101,-31,132,102,142,148,213,270,148
618,420,-198,-519,408,111,-620,-647,-300,999,1129,720
908,1,-907,-454,907,-452,-1200,-1477,-1117,968,1197,794
400,-514,-914,57,657,-714,-840,-1268,-1587,-729,-21,180
-2,-298,-295,150,147,-296,-289,-626,-980,-834,-371,-99
-39,-174,-134,107,48,-154,3,-133,-255,-211,-146,-103
-49,-113,-64,81,8,-88,39,-66,-138,-207,-152,-104
-49,-82,-32,65,-8,-57,61,-20,-55,-101,-119,-96
-83,-106,-23,95,-30,-64,75,0,-49,-144,-133,-98
-74,-83,-8,79,-33,-45,76,9,-14,-100,-112,-92
-66,-79,-14,73,-25,-46,93,32,2,-107,-114,-91
-73,-70,3,71,-38,-33,87,37,12,-93,-105,-82
-73,-71,2,71,-37,-34,92,71,47,-76,-99,-79
-83,-66,17,74,-49,-24,88,78,64,-58,-95,-73
-78,-58,20,67,-49,-18,92,107,103,-21,-87,-67
-71,-40,30,55,-50,-5,98,139,146,5,-84,-63
-15,20,34,-3,-25,27,97,183,208,59,-53,-55
-2,35,37,-17,-20,36,91,229,276,88,-42,-51
-21,20,41,1,-31,30,87,288,368,166,-12,-28
31,70,39,-50,-5,54,82,370,482,255,31,4
48,92,44,-70,2,67,78,431,577,346,73,21
62,107,45,-85,8,76,73,494,679,443,120,50
103,148,45,-126,29,96,61,533,758,528,165,82
124,169,46,-147,39,107,47,520,772,580,205,106
125,170,45,-148,40,107,33,490,743,568,218,115
111,156,45,-134,33,100,17,410,630,507,205,105
102,147,45,-125,29,96,7,306,473,398,166,95
83,128,45,-106,18,87,14,217,335,279,115,68
32,75,43,-54,-5,59,22,138,211,172,63,43
-18,21,39,-2,-29,30,30,83,116,86,7,21
-37,3,40,17,-39,22,38,51,60,43,-22,-11
-41,-5,36,23,-38,15,36,38,29,17,-35,-25
-44,-10,35,26,-39,12,35,31,17,-2,-45,-32
-55,-20,35,37,-44,7,35,26,13,-13,-45,-38
-61,-31,30,46,-46,0,35,21,7,-18,-53,-34
-56,-29,27,42,-42,-1,35,15,2,-22,-59,-34
-51,-28,23,39,-37,-2,36,10,-5,-30,-62,-29
-42,-21,20,32,-30,0,40,21,2,-32,-67,-32
-60,-46,14,52,-37,-16,40,27,7,-47,-70,-48
-81,-60,21,70,-51,-20,40,21,-1,-62,-67,-50
-80,-38,42,59,-61,2,36,19,-8,-59,-64,-50
-79,-34,45,56,-62,6,34,14,-14,-63,-61,-50
-72,-27,44,49,-58,8,35,11,-21,-65,-58,-50
-77,-28,49,53,-62,10,35,7,-27,-65,-55,-49
-71,-21,50,46,-60,14,36,-1,-30,-68,-56,-44
-73,-23,50,47,-61,14,33,-7,-31,-71,-61,-46
-60,-16,44,38,-52,14,30,-15,-28,-69,-59,-42
-26,13,39,6,-32,26,28,-23,-38,-72,-61,-41
-34,0,34,16,-34,17,25,-29,-44,-78,-59,-38
-14,13,28,0,-21,20,22,-35,-52,-92,-60,-43
-23,-1,22,12,-23,10,19,-34,-71,-114,-71,-56
-55,-34,22,44,-38,-6,20,-37,-70,-117,-68,-55
-57,-27,30,42,-44,1,20,-40,-69,-119,-65,-53
-66,-32,34,49,-50,0,20,-40,-71,-123,-63,-50
-61,-24,37,42,-49,6,20,-42,-69,-125,-60,-50
-66,-27,39,47,-52,6,20,-43,-69,-123,-58,-48
-65,-22,43,43,-53,10,21,-38,-63,-116,-51,-41
-74,-29,45,51,-59,8,25,-31,-60,-111,-45,-37
-76,-26,49,51,-62,11,38,-30,-57,-105,-37,-30
-57,15,72,20,-65,43,51,-21,-50,-99,-31,-25
-50,39,89,5,-70,64,54,-23,-52,-101,-25,-19
-36,66,103,-15,-70,85,44,-5,-34,-97,-19,-16
-27,79,106,-26,-67,93,21,-17,-39,-97,-14,-12
2,97,95,-50,-47,96,-22,-71,-69,-93,-7,-8
23,105,81,-64,-29,93,-30,-48,-61,-98,-4,-6
1,74,73,-38,-37,74,-3,-46,-62,-102,6,3
-39,14,52,12,-46,33,18,-43,-61,-102,-18,-7
-61,-20,41,40,-51,10,33,-47,-95,-141,-41,-10
-93,-65,28,79,-60,-19,57,-44,-107,-146,-53,-29
-95,-68,27,81,-61,-20,51,-43,-120,-167,-65,-45
-65,-39,26,52,-45,-7,46,-53,-112,-145,-53,-48
-103,-90,13,96,-58,-38,50,-41,-118,-176,-81,-61
-94,-68,26,81,-60,-21,30,-77,-129,-153,-65,-49
-87,-80,7,83,-47,-36,58,-29,-102,-171,-88,-63
-118,15,133,51,-125,74,22,-149,-185,-170,-32,-4
-84,77,161,3,-123,119,144,50,53,42,96,44
256,268,12,-262,122,140,-118,-56,38,467,625,405
866,347,-519,-606,692,-86,-986,-1137,-646,1227,1388,914
787,-284,-1071,-251,929,-677,-1143,-1557,-1457,192,677,573
150,-477,-627,164,388,-551,-618,-1083,-1507,-1099,-348,4
-73,-237,-165,155,46,-201,-164,-387,-620,-499,-240,-96
-51,-157,-106,105,28,-132,0,-57,-203,-218,-111,-67
-62,-96,-34,79,-14,-65,16,-50,-134,-192,-96,-52
-64,-98,-35,81,-14,-66,51,6,-51,-140,-78,-57
-61,-72,-10,67,-25,-41,44,-4,-67,-165,-87,-54
-53,-70,-17,62,-18,-43,54,21,-29,-111,-71,-55
-64,-72,-9,68,-28,-40,54,35,-19,-118,-79,-55
-61,-65,-4,63,-29,-34,58,58,16,-74,-64,-63
-85,-84,1,84,-43,-41,67,67,38,-81,-82,-65
-97,-85,11,91,-54,-37,64,67,59,-55,-84,-59
-63,-49,14,56,-38,-17,66,102,88,-38,-69,-58
-52,-27,25,39,-38,-1,60,136,137,-2,-58,-52
-38,-16,22,27,-30,3,60,177,202,43,-47,-50
-20,-4,17,12,-18,6,59,234,279,101,-29,-39
3,14,11,-9,-4,13,50,304,382,188,6,-18
48,54,6,-52,21,30,41,376,493,274,54,6
111,111,0,-111,56,55,32,442,589,370,107,32
154,150,-4,-151,78,73,24,483,668,451,140,55
142,141,0,-142,70,70,13,486,712,518,176,81
162,167,6,-165,78,86,-2,477,711,553,214,106
177,187,9,-182,84,98,-14,434,654,529,210,117
140,154,14,-147,63,84,-26,337,521,434,180,108
126,145,19,-136,53,81,-25,242,372,315,137,76
83,103,20,-93,31,62,-16,161,238,204,82,43
41,61,20,-51,10,40,-8,109,135,111,34,22
45,65,20,-55,12,42,1,71,77,57,-2,7
11,31,20,-21,-5,25,7,29,23,14,-31,-3
-33,-13,20,23,-26,4,14,15,-3,-11,-49,-16
-44,-24,20,34,-32,-2,17,13,-6,-20,-52,-24
-35,-21,14,28,-24,-3,22,10,-15,-33,-56,-26
-19,-11,9,15,-14,-1,25,7,-20,-42,-61,-29
-30,-26,4,27,-16,-11,25,5,-28,-50,-59,-32
-11,-13,-2,13,-4,-8,25,3,-28,-55,-71,-35
-1,-10,-8,6,4,-9,25,-1,-25,-58,-81,-35
-44,-52,-8,48,-18,-30,25,0,-25,-63,-79,-35
-30,-31,-1,31,-14,-16,22,-4,-25,-65,-80,-35
-30,-24,6,27,-18,-9,19,-5,-25,-69,-80,-35
-43,-31,12,37,-27,-9,16,-5,-25,-71,-80,-32
-33,-14,20,23,-26,3,13,-9,-31,-74,-76,-27
-40,-16,24,28,-32,4,10,-12,-34,-76,-75,-24
-30,-10,21,20,-25,5,10,-15,-40,-74,-75,-21
-29,-9,20,19,-24,5,10,-18,-38,-76,-70,-16
-2,19,20,-8,-11,19,10,-20,-35,-73,-70,-16
10,30,20,-20,-5,25,10,-23,-50,-82,-69,-28
-3,17,20,-7,-12,18,10,-25,-58,-95,-65,-39
-17,5,22,5,-20,13,10,-25,-59,-95,-66,-40
-28,-3,26,15,-27,11,13,-30,-68,-97,-62,-40
-4,21,24,-9,-14,22,16,-36,-77,-105,-60,-45
4,29,25,-17,-11,27,14,-35,-81,-110,-60,-45
-15,10,25,2,-20,17,16,-36,-83,-110,-64,-46
-28,-2,26,15,-27,11,13,-34,-86,-110,-68,-50
-2,27,30,-13,-16,28,19,-35,-89,-109,-73,-50
5,40,35,-23,-15,37,29,-47,-90,-116,-74,-53
-5,34,39,-15,-22,36,31,-47,-83,-120,-66,-56
-20,23,42,-2,-31,32,29,-39,-75,-107,-58,-55
-41,26,67,7,-54,47,30,-31,-67,-97,-49,-50
-32,59,91,-14,-61,75,34,-27,-64,-91,-43,-41
-32,69,101,-19,-67,85,29,-12,-66,-83,-34,-32
-7,90,98,-42,-53,94,23,-17,-61,-78,-26,-25
23,104,81,-64,-29,93,-20,-57,-61,-71,-14,-6
46,110,64,-78,-10,87,-35,-50,-59,-64,-8,1
48,104,56,-77,-4,80,-7,-55,-55,-60,-17,-2
11,58,47,-35,-18,52,4,-56,-55,-60,-28,-7
-48,-11,37,29,-43,13,12,-52,-101,-114,-55,-33
-77,-44,33,60,-55,-5,18,-61,-118,-132,-71,-54
-65,-39,26,52,-45,-7,31,-46,-110,-144,-89,-68
-87,-51,37,69,-62,-7,29,-66,-124,-132,-95,-66
-99,-78,21,88,-60,-28,52,-30,-100,-129,-110,-75
-80,-39,41,59,-60,1,35,-64,-136,-138,-101,-63
-83,-64,18,73,-50,-23,57,-16,-86,-105,-108,-78
-98,-8,90,52,-94,41,30,-97,-159,-162,-83,-43
-110,96,206,7,-158,151,86,-61,-48,1,20,4
66,167,101,-117,-17,134,79,157,158,272,328,188
681,412,-268,-546,474,72,-677,-719,-334,1069,1185,775
892,-27,-920,-432,906,-473,-1185,-1556,-1205,776,1047,748
324,-525,-849,101,586,-687,-848,-1363,-1692,-894,-148,114
-35,-301,-266,168,116,-284,-319,-687,-1008,-797,-369,-109
-79,-172,-93,125,8,-132,12,-117,-267,-224,-159,-93
-80,-101,-21,90,-29,-61,44,-54,-172,-208,-145,-73
-67,-66,1,66,-33,-33,63,-10,-79,-103,-112,-79
-74,-60,14,66,-44,-23,78,9,-62,-152,-119,-78
-100,-70,30,85,-65,-19,82,8,-25,-116,-101,-85
-136,-105,31,120,-83,-37,89,37,-13,-119,-105,-105
-117,-74,43,96,-80,-15,82,32,-10,-80,-96,-97
-122,-85,37,103,-79,-24,88,59,20,-65,-92,-102
-110,-65,45,88,-77,-10,83,78,48,-57,-90,-99
-90,-40,49,65,-69,4,89,104,91,-28,-78,-101
-93,-38,55,65,-73,8,90,128,122,-15,-72,-94
-63,-4,59,33,-61,27,91,168,182,36,-52,-71
-52,6,58,23,-55,32,91,228,261,93,-27,-56
-62,-10,53,36,-57,21,84,280,341,159,-1,-41
-5,42,47,-19,-26,44,78,350,452,247,35,-28
52,96,44,-74,4,69,71,423,553,334,73,-14
65,104,39,-85,13,71,64,472,638,415,122,30
94,129,35,-112,29,82,59,516,714,497,169,68
119,160,41,-139,39,100,45,528,734,544,211,92
113,153,39,-133,37,96,27,489,711,555,228,117
106,150,44,-128,31,97,23,407,622,493,209,109
99,160,61,-130,19,110,25,308,473,373,170,88
57,118,62,-87,-3,90,25,221,324,256,119,61
23,80,58,-52,-18,69,25,145,212,158,80,32
11,67,56,-40,-22,61,26,93,131,85,39,13
-4,48,52,-22,-28,49,43,68,78,32,7,-3
-43,8,50,17,-47,29,51,50,40,4,-11,-18
-66,-19,47,42,-56,14,45,33,13,-4,-21,-24
-48,-3,45,25,-46,21,43,25,8,-18,-28,-30
-54,-9,45,31,-49,18,38,25,1,-27,-33,-26
-63,-21,42,42,-52,10,34,25,-7,-31,-33,-28
-80,-40,39,60,-59,0,43,25,-15,-51,-42,-53
-110,-69,41,89,-75,-14,51,25,-19,-57,-49,-50
-88,-43,44,65,-66,0,50,27,-14,-54,-50,-41
-72,-27,45,49,-58,9,55,26,-9,-56,-47,-37
-86,-41,45,63,-65,1,55,19,-5,-54,-44,-28
-82,-36,45,59,-63,4,51,15,0,-56,-41,-24
-78,-34,44,55,-61,5,47,11,5,-55,-39,-19
-77,-30,48,53,-62,9,41,5,2,-55,-35,-21
-76,-26,50,51,-63,12,38,8,-3,-55,-29,-17
-74,-25,50,49,-62,12,32,12,-5,-55,-23,-15
-76,-26,50,51,-62,12,31,8,-10,-56,-19,-15
-74,-24,50,49,-61,12,40,6,-13,-58,-10,-18
-76,-26,50,51,-63,11,42,2,-18,-68,-17,-24
-71,-24,47,47,-58,11,39,0,-18,-68,-33,-27
-68,-26,42,47,-55,8,36,-2,-26,-78,-36,-33
-71,-31,39,51,-55,4,33,-9,-37,-87,-33,-36
-58,-22,36,39,-46,7,30,-16,-44,-88,-38,-45
-80,-49,31,64,-55,-9,31,-22,-66,-107,-61,-50
-88,-57,31,72,-59,-13,35,-30,-71,-112,-67,-50
-76,-41,35,58,-56,-3,35,-34,-69,-109,-64,-60
-75,-37,38,56,-56,0,35,-29,-71,-111,-70,-63
-73,-31,42,52,-57,5,35,-23,-70,-122,-70,-60
-80,-34,46,57,-63,5,36,-14,-69,-136,-69,-58
-67,-19,48,43,-57,14,39,-11,-63,-134,-63,-55
-50,12,62,19,-56,37,53,2,-59,-125,-57,-51
-35,46,82,-6,-59,64,58,-10,-55,-115,-52,-50
-31,67,98,-18,-65,82,41,-13,-59,-109,-39,-39
-46,60,106,-8,-76,82,25,-12,-60,-111,-17,-17
-7,84,91,-39,-49,87,12,-60,-62,-109,-9,-9
31,87,56,-59,-13,71,0,-59,-62,-109,-10,-11
0,37,38,-19,-19,37,3,-62,-69,-112,-16,-8
-26,1,27,12,-27,14,36,-54,-59,-106,-27,-17
-68,-40,28,54,-47,-6,38,-56,-77,-131,-48,-39
-98,-80,17,89,-57,-31,43,-54,-93,-149,-81,-66
-82,-68,13,75,-47,-27,46,-48,-111,-172,-89,-76
-76,-63,14,70,-45,-24,38,-56,-110,-154,-81,-77
-72,-63,9,67,-40,-27,42,-38,-110,-198,-111,-94
-79,-53,26,66,-52,-13,22,-69,-130,-182,-90,-87
-114,-107,7,110,-61,-49,43,-25,-98,-190,-106,-79
-103,38,141,32,-122,89,1,-157,-175,-182,-61,-26
-77,99,176,-11,-127,137,133,25,35,19,66,11
232,228,-4,-230,118,111,-72,96,204,481,582,343
881,335,-546,-607,713,-105,-883,-837,-326,1357,1389,878
774,-265,-1039,-254,907,-652,-1089,-1434,-1314,298,704,567
118,-469,-588,176,353,-528,-626,-1095,-1516,-1124,-388,-51
-44,-210,-166,127,61,-188,-148,-379,-620,-510,-277,-133
-38,-149,-111,94,36,-130,25,-41,-209,-228,-146,-103
-60,-86,-26,74,-17,-56,29,-37,-149,-196,-128,-97
-66,-87,-21,77,-22,-54,55,11,-61,-133,-97,-88
-76,-75,0,76,-38,-37,65,-1,-72,-168,-112,-84
-66,-71,-5,69,-30,-38,91,22,-33,-100,-89,-74
-72,-68,4,69,-37,-32,79,28,-41,-127,-98,-72
-66,-58,8,62,-37,-25,79,42,-8,-86,-82,-63
-61,-52,9,57,-35,-21,75,51,5,-90,-83,-58
-49,-38,12,43,-30,-13,69,61,34,-60,-70,-50
-41,-32,8,36,-24,-12,69,94,68,-31,-62,-44
-29,-18,11,23,-20,-3,63,122,107,8,-55,-36
-22,-13,9,17,-15,-2,66,164,176,53,-41,-21
1,12,11,-6,-5,11,64,216,248,109,-24,-9
40,47,6,-44,16,26,65,278,340,193,10,12
77,79,2,-78,37,40,65,344,444,277,52,33
107,106,-1,-106,54,52,54,406,541,373,93,51
127,123,-4,-124,65,59,40,457,624,457,136,90
155,146,-9,-151,82,68,26,478,675,532,179,121
172,163,-9,-167,90,77,10,471,690,570,209,140
170,167,-3,-168,86,82,-9,421,645,541,211,142
145,150,4,-148,70,77,-21,336,522,460,186,128
125,135,11,-130,57,73,-17,256,382,352,153,114
112,130,18,-121,47,73,-9,168,258,236,102,86
68,92,24,-80,22,58,-3,95,142,138,49,49
27,49,22,-38,2,35,5,55,66,69,14,19
11,27,16,-19,-3,21,21,34,29,34,-7,7
-1,10,12,-4,-7,11,27,21,4,13,-17,-2
-11,-3,7,7,-9,2,21,11,-2,-8,-25,-13
-13,-11,2,11,-8,-4,19,10,-9,-27,-33,-27
-16,-18,-1,17,-7,-9,15,10,-17,-36,-41,-32
-19,-25,-6,22,-7,-15,9,10,-25,-34,-45,-26
-23,-33,-10,28,-7,-21,17,10,-28,-35,-46,-24
-32,-38,-7,35,-12,-22,27,10,-25,-35,-55,-19
-34,-35,-1,35,-16,-18,21,7,-25,-35,-55,-15
-32,-28,4,30,-17,-12,18,4,-25,-38,-51,-17
-30,-23,7,27,-19,-8,15,1,-25,-40,-49,-21
-30,-17,13,24,-21,-2,10,-2,-25,-51,-46,-20
-26,-12,14,19,-20,1,13,-5,-28,-62,-44,-20
-19,-10,10,15,-15,0,15,-6,-32,-67,-41,-20
-20,-10,10,15,-15,0,15,-22,-39,-73,-40,-20
-21,-11,10,16,-15,0,15,-31,-47,-75,-40,-25
-19,-9,10,14,-14,0,15,-30,-51,-76,-40,-25
-22,-11,10,17,-16,0,15,-35,-60,-80,-40,-25
-14,-8,6,11,-10,-1,20,-34,-66,-80,-42,-24
-19,-14,5,16,-12,-4,20,-40,-70,-87,-50,-28
-37,-32,5,34,-20,-14,20,-49,-73,-98,-54,-36
-33,-32,0,33,-16,-16,20,-50,-77,-100,-57,-43
-21,-22,0,22,-10,-11,20,-50,-88,-103,-59,-52
-23,-22,1,23,-12,-11,20,-50,-91,-105,-63,-51
-37,-32,5,34,-21,-13,20,-50,-95,-111,-65,-48
-37,-29,8,33,-22,-10,20,-49,-94,-113,-61,-46
-30,-18,12,24,-21,-3,20,-43,-86,-106,-59,-42
-26,-12,14,19,-20,1,21,-35,-78,-101,-56,-41
-28,-2,26,15,-27,12,29,-29,-73,-96,-52,-38
-21,40,61,-9,-42,51,42,-22,-65,-88,-50,-31
-12,69,81,-29,-47,75,59,-16,-62,-87,-47,-26
-23,62,85,-20,-55,74,49,-22,-57,-77,-38,-21
-14,69,83,-28,-49,76,-1,-41,-52,-75,-30,-14
6,76,70,-41,-32,72,-33,-47,-51,-62,-21,-11
4,63,59,-33,-28,60,-17,-41,-34,-43,-18,-17
-22,33,54,-6,-39,43,0,-50,-59,-65,-31,-28
-31,8,39,12,-36,23,24,-38,-70,-97,-55,-36
-47,-9,38,28,-43,14,34,-59,-96,-128,-76,-51
-86,-61,25,73,-55,-18,44,-55,-115,-140,-100,-82
-102,-68,34,85,-68,-17,37,-65,-127,-156,-107,-80
-98,-71,27,84,-63,-22,38,-58,-117,-129,-104,-85
-101,-72,29,87,-65,-21,36,-52,-129,-164,-118,-87
-100,-65,36,82,-68,-15,30,-67,-130,-125,-99,-80
-93,-68,24,80,-58,-22,46,-35,-121,-162,-123,-93
-115,66,181,24,-148,123,19,-181,-188,-128,-60,-35
-87,87,174,0,-131,130,153,86,79,62,93,29
354,314,-41,-334,197,136,-217,-65,104,672,753,466
893,260,-633,-576,763,-186,-1006,-1089,-616,1360,1393,899
590,-408,-998,-91,794,-703,-1020,-1416,-1508,-89,434,426
39,-432,-471,197,256,-451,-497,-914,-1371,-1096,-447,-79
-66,-209,-143,137,39,-175,-92,-265,-471,-368,-235,-111
-49,-135,-85,92,18,-110,13,-64,-189,-236,-166,-111
-46,-67,-21,57,-12,-44,41,-57,-125,-162,-151,-100
-85,-105,-20,96,-32,-62,71,-1,-68,-151,-141,-97
-69,-63,6,67,-37,-29,63,-12,-58,-157,-141,-91
-58,-64,-6,61,-26,-35,75,14,-18,-115,-123,-86
-66,-59,7,63,-37,-26,67,19,-19,-131,-126,-86
-58,-52,6,54,-31,-23,71,40,2,-91,-107,-84
-63,-52,11,57,-37,-21,70,61,22,-99,-107,-86
-54,-38,16,45,-35,-11,69,76,63,-59,-92,-84
-47,-25,22,36,-34,-2,65,94,93,-38,-86,-84
-42,-12,30,27,-36,8,65,134,147,7,-68,-68
-32,4,36,14,-34,19,65,176,209,54,-47,-47
-16,23,38,-4,-28,30,67,226,288,115,-28,-34
8,38,31,-23,-12,34,69,297,391,194,12,-18
47,73,26,-60,10,49,57,354,493,289,52,6
81,102,21,-92,30,61,50,416,591,389,99,41
116,131,15,-124,50,73,40,464,678,468,149,76
143,154,11,-149,66,82,33,472,719,534,184,100
149,166,17,-158,66,91,28,462,709,548,203,119
133,159,25,-146,54,92,22,402,644,515,195,120
110,142,33,-126,38,87,19,308,510,425,169,103
80,122,42,-101,19,81,13,225,364,294,124,81
53,96,43,-74,5,69,11,149,238,186,79,51
44,82,38,-63,3,60,16,90,149,107,39,18
29,64,35,-47,-3,49,26,52,97,51,-7,-8
-1,31,32,-15,-17,31,29,32,53,1,-28,-24
-24,4,27,10,-26,15,32,24,26,-29,-37,-28
-26,-2,24,14,-25,11,45,21,19,-31,-44,-25
-33,-12,21,23,-27,4,45,18,13,-35,-50,-25
-50,-34,16,41,-33,-8,40,13,6,-38,-55,-25
-49,-36,13,42,-31,-11,39,10,-1,-42,-58,-24
-42,-32,10,37,-26,-11,35,6,-5,-45,-63,-31
-35,-30,5,32,-20,-12,34,5,-5,-47,-65,-36
-33,-26,7,29,-20,-9,30,5,-5,-51,-65,-35
-40,-26,14,33,-27,-6,30,5,-5,-53,-65,-35
-31,-10,21,20,-26,6,30,5,-5,-56,-65,-35
-43,-15,27,29,-35,6,30,4,-5,-58,-64,-35
-58,-23,35,40,-46,5,30,-3,-9,-62,-61,-33
-53,-14,39,33,-46,12,26,-8,-16,-64,-58,-30
-46,-11,35,28,-41,12,25,-13,-19,-67,-55,-30
-39,-4,35,21,-37,15,25,-19,-27,-70,-53,-30
-32,2,34,15,-33,17,25,-24,-29,-72,-49,-30
-25,4,30,10,-28,17,25,-29,-43,-75,-52,-31
-43,-13,30,28,-36,8,25,-30,-65,-75,-59,-34
-60,-27,32,43,-45,2,25,-33,-67,-79,-65,-38
-56,-20,36,38,-46,7,25,-35,-69,-86,-70,-45
-54,-19,35,36,-44,7,25,-36,-73,-91,-70,-45
-50,-14,35,32,-42,10,25,-40,-82,-96,-71,-48
-44,-10,35,26,-40,12,25,-42,-90,-100,-75,-51
-50,-15,35,32,-42,10,28,-45,-93,-105,-75,-47
-62,-22,40,42,-51,9,31,-48,-94,-102,-73,-41
-61,-21,40,41,-50,9,34,-51,-85,-97,-66,-36
-58,-14,44,36,-51,15,37,-46,-80,-95,-62,-31
-64,-19,45,41,-54,13,41,-39,-72,-90,-56,-25
-27,23,50,2,-39,37,40,-35,-66,-87,-50,-20
-6,65,71,-30,-39,67,41,-27,-59,-82,-45,-13
-30,49,79,-10,-54,64,43,-26,-56,-77,-36,-2
-11,58,68,-24,-39,63,30,-24,-49,-64,-23,7
29,89,61,-59,-16,75,18,-25,-47,-62,-13,18
45,97,52,-72,-4,74,15,-26,-47,-44,-8,32
11,54,43,-33,-16,48,7,-21,-49,-42,-5,23
-22,18,40,2,-31,28,7,-42,-77,-78,-26,6
-31,-5,27,18,-29,11,23,-47,-89,-97,-58,-13
-64,-37,27,50,-45,-5,29,-57,-105,-115,-69,-33
-77,-66,11,71,-44,-27,40,-41,-99,-134,-93,-49
-80,-56,25,68,-52,-15,30,-59,-112,-143,-95,-46
-80,-63,18,71,-49,-22,39,-42,-89,-120,-92,-56
-89,-61,28,74,-59,-16,31,-58,-108,-156,-104,-54
-80,-49,31,65,-55,-9,43,-63,-85,-109,-93,-54
-65,-34,31,50,-48,-2,48,-58,-106,-170,-118,-55
-101,80,182,10,-142,131,30,-174,-142,-89,-25,10
-30,127,157,-49,-94,142,149,112,130,120,153,97
447,367,-81,-407,264,142,-360,-305,-60,761,878,579
957,203,-753,-580,855,-275,-1126,-1352,-825,1266,1361,902
607,-446,-1053,-80,830,-749,-1008,-1458,-1545,-291,280,363
48,-401,-449,177,248,-425,-449,-869,-1259,-1031,-422,-71
-24,-169,-145,97,60,-157,-45,-220,-390,-298,-186,-98
-50,-132,-82,92,16,-107,37,-37,-162,-229,-149,-101
-72,-97,-26,85,-23,-62,43,-34,-92,-150,-122,-92
-80,-105,-25,93,-27,-65,77,13,-58,-156,-123,-94
-84,-82,2,83,-43,-40,70,12,-44,-146,-115,-88
-76,-82,-6,79,-35,-44,79,41,-4,-118,-104,-87
-83,-69,14,76,-48,-28,71,32,-4,-125,-105,-82
-74,-61,13,67,-43,-23,81,45,23,-88,-91,-79
-67,-44,23,56,-45,-10,91,67,34,-85,-93,-76
-60,-30,29,45,-44,0,90,94,81,-45,-81,-71
-52,-17,35,34,-43,9,89,124,115,-36,-80,-69
-62,-18,44,40,-53,12,84,159,164,14,-67,-60
-44,4,48,20,-46,26,85,211,239,67,-36,-49
-24,23,47,1,-36,35,86,265,319,120,-1,-42
-3,36,39,-17,-21,37,81,343,433,206,35,-20
63,99,35,-81,14,67,73,420,536,303,69,11
84,113,29,-99,27,71,65,474,626,398,114,51
107,130,23,-119,42,77,58,517,707,477,162,80
140,162,21,-151,59,91,48,531,747,545,202,98
155,182,28,-169,63,105,30,513,747,561,225,126
153,187,34,-170,59,111,24,442,670,521,218,126
142,173,32,-157,55,102,26,345,530,437,207,116
113,143,30,-128,42,86,24,248,378,308,173,92
63,94,30,-79,16,62,26,159,247,191,114,49
42,72,30,-57,6,50,24,109,160,103,67,17
38,68,30,-53,4,49,32,73,94,40,34,-7
33,62,29,-47,2,45,45,43,41,1,15,-18
-2,23,24,-11,-13,23,45,33,18,-18,4,-29
-16,5,21,6,-19,12,48,29,14,-41,-8,-41
-15,3,18,5,-16,10,51,25,9,-57,-14,-45
-26,-13,13,19,-19,0,47,20,3,-53,-19,-45
-32,-23,10,28,-21,-6,45,15,-3,-58,-24,-47
-30,-17,13,23,-21,-2,45,15,-5,-60,-30,-51
-37,-18,19,27,-28,0,45,15,-5,-61,-34,-50
-71,-48,23,59,-47,-12,45,15,-5,-55,-30,-47
-79,-51,28,65,-53,-11,45,15,-5,-59,-30,-41
-74,-42,32,58,-53,-4,40,15,-5,-76,-29,-36
-71,-35,36,53,-54,1,40,13,-6,-75,-25,-33
-67,-24,42,45,-54,9,38,10,-11,-75,-25,-27
-67,-18,49,42,-58,15,35,7,-17,-75,-27,-24
-64,-14,50,39,-57,17,34,4,-21,-77,-31,-27
-66,-16,50,41,-57,17,40,2,-28,-85,-34,-31
-65,-15,50,40,-57,17,51,-1,-32,-90,-38,-30
-64,-15,49,40,-56,17,45,-3,-39,-94,-40,-30
-67,-15,52,41,-59,18,40,-7,-56,-98,-41,-31
-63,-8,55,35,-59,23,37,-8,-66,-107,-39,-29
-63,-5,58,34,-60,26,30,-13,-69,-117,-47,-37
-55,5,60,25,-58,32,33,-13,-70,-127,-61,-46
-67,-4,64,35,-66,30,35,-20,-73,-130,-59,-45
-92,-26,65,58,-78,20,35,-36,-82,-130,-61,-45
-90,-25,65,57,-77,20,35,-33,-79,-130,-65,-45
-90,-25,65,57,-77,20,34,-29,-76,-130,-65,-45
-90,-26,65,58,-77,20,36,-26,-73,-130,-63,-41
-91,-25,66,58,-78,21,34,-20,-70,-120,-54,-32
-77,-2,75,39,-76,36,40,-20,-69,-104,-46,-26
-47,41,88,3,-68,64,48,-19,-54,-92,-38,-19
-21,72,93,-25,-57,82,63,-15,-42,-88,-31,-10
0,86,87,-43,-44,86,53,0,-29,-81,-19,0
5,88,84,-47,-40,86,10,-15,-31,-81,-4,10
11,80,70,-46,-30,75,-1,-14,-24,-70,2,18
2,54,51,-28,-25,52,-5,8,-28,-74,-15,5
-27,16,43,5,-35,29,9,-8,-70,-81,-25,-7
-54,-20,34,37,-44,7,38,-13,-80,-98,-39,-28
-86,-48,39,66,-62,-4,31,-47,-100,-127,-70,-56
-98,-72,25,85,-61,-23,40,-44,-105,-134,-83,-68
-88,-56,32,71,-60,-12,30,-58,-122,-142,-79,-69
-65,-44,21,54,-43,-12,40,-43,-106,-121,-78,-75
-114,-66,49,90,-82,-8,32,-54,-126,-165,-84,-80
-142,-99,43,120,-93,-27,32,-52,-106,-127,-74,-84
-100,-54,46,77,-73,-4,31,-47,-121,-183,-73,-60
-118,65,183,26,-151,124,21,-164,-152,-90,-2,-17
-37,95,131,-29,-84,113,152,144,135,131,156,74
473,344,-129,-408,301,108,-341,-114,147,905,932,585
934,157,-778,-545,856,-310,-1058,-1077,-562,1427,1399,901
491,-460,-951,-15,721,-706,-936,-1326,-1484,-292,260,356
-32,-391,-358,212,163,-374,-422,-800,-1226,-1004,-422,-89
-82,-200,-118,141,19,-159,-27,-176,-363,-261,-177,-83
-108,-155,-47,132,-30,-101,53,-40,-186,-230,-156,-63
-85,-92,-6,89,-39,-49,47,-24,-110,-130,-122,-58
-95,-101,-6,98,-44,-53,74,6,-73,-141,-127,-57
-99,-76,22,87,-60,-27,65,-7,-47,-121,-119,-53
-96,-71,25,84,-60,-23,74,17,-12,-99,-111,-50
-99,-58,41,78,-70,-8,67,24,-18,-109,-112,-51
-92,-60,31,76,-62,-14,71,50,8,-76,-98,-60
-96,-59,37,77,-66,-11,69,45,20,-85,-101,-62
-83,-49,34,65,-58,-7,70,67,53,-43,-84,-53
-84,-49,35,66,-59,-7,70,99,90,-35,-80,-48
-68,-36,32,52,-50,-2,70,120,145,12,-66,-40
-57,-28,29,43,-43,0,70,171,206,58,-57,-34
-10,21,31,-5,-20,25,70,230,287,116,-35,-22
27,52,25,-40,1,38,69,293,383,200,9,-4
41,67,25,-55,8,46,60,356,477,283,49,25
90,114,24,-102,33,68,50,407,569,373,89,52
91,111,19,-101,35,65,39,452,646,452,137,75
135,152,16,-144,60,84,25,458,689,525,191,119
163,176,13,-170,75,94,-3,441,671,546,207,135
131,139,8,-135,61,74,-18,381,599,496,189,125
119,124,5,-122,57,64,-10,284,463,395,154,113
86,94,9,-90,38,51,-7,205,313,269,101,77
51,68,17,-60,17,42,-1,125,198,161,61,41
35,54,19,-44,8,36,1,67,104,80,16,13
30,44,14,-38,8,29,12,39,53,27,-29,-7
-4,7,11,-1,-8,8,26,27,17,0,-50,-21
-24,-17,8,20,-16,-5,20,18,3,-16,-57,-39
-32,-29,3,30,-17,-13,15,10,4,-34,-75,-52
-48,-48,0,48,-24,-24,12,9,-2,-32,-82,-56
-36,-39,-3,38,-16,-21,6,5,-2,-25,-79,-58
-29,-35,-6,32,-11,-20,7,3,-6,-24,-85,-61
-24,-33,-9,29,-7,-21,15,0,-1,-16,-85,-64
-12,-23,-11,17,0,-17,19,-2,0,-17,-84,-65
-17,-32,-15,25,0,-23,16,-7,0,-20,-80,-61
-41,-55,-14,48,-13,-34,13,-10,4,-25,-80,-58
-31,-39,-8,35,-12,-23,10,-13,5,-31,-78,-55
-23,-26,-2,25,-10,-14,8,-18,4,-38,-74,-52
-26,-22,4,24,-15,-9,4,-20,-5,-46,-75,-50
-22,-14,8,17,-15,-2,8,-21,-15,-53,-79,-50
-23,-8,14,15,-18,3,10,-18,-25,-63,-86,-50
-12,8,20,2,-16,13,10,-32,-35,-60,-91,-50
-19,7,26,6,-23,17,14,-47,-51,-73,-95,-50
-30,-2,29,16,-30,14,18,-44,-62,-92,-95,-50
-32,-7,25,19,-28,9,21,-45,-63,-92,-95,-51
-39,-14,25,26,-32,5,24,-45,-70,-95,-95,-54
-45,-20,25,32,-35,2,27,-48,-79,-106,-95,-55
-39,-14,25,26,-31,6,30,-53,-86,-117,-99,-55
-49,-24,24,36,-36,0,33,-56,-92,-114,-105,-57
-69,-37,32,53,-50,-2,36,-60,-95,-112,-105,-61
-68,-26,42,47,-54,8,39,-62,-95,-109,-105,-64
-66,-27,39,47,-52,5,40,-66,-99,-113,-105,-68
-56,-13,43,35,-49,15,45,-67,-100,-129,-105,-69
-64,-18,46,41,-54,13,45,-72,-96,-130,-106,-66
-40,4,44,18,-42,24,47,-64,-90,-120,-101,-63
-35,14,50,10,-42,32,51,-56,-83,-112,-92,-61
-50,11,61,19,-55,36,50,-47,-79,-103,-84,-57
-31,65,96,-17,-64,80,49,-38,-65,-94,-76,-56
-24,62,87,-19,-56,74,36,-36,-61,-90,-68,-49
2,94,92,-48,-45,93,30,-26,-58,-62,-45,-23
6,125,119,-66,-57,122,0,-50,-61,-57,-25,-8
18,108,91,-63,-37,99,-19,-19,-51,-47,-24,1
5,93,88,-49,-42,90,-8,-7,-46,-43,-16,-2
-17,40,57,-12,-38,49,9,-67,-77,-87,-18,-38
-58,-9,49,33,-53,19,54,-72,-91,-118,-61,-62
-82,-29,52,55,-67,12,61,-80,-107,-136,-73,-57
-48,-43,5,45,-26,-18,61,-68,-121,-160,-84,-70
-77,-58,19,67,-48,-19,54,-81,-151,-164,-91,-80
-107,-79,28,93,-67,-25,58,-58,-134,-154,-78,-82
-119,-43,75,81,-97,16,51,-78,-162,-184,-84,-78
-92,-47,45,69,-68,-1,59,-51,-135,-138,-62,-83
-75,2,77,36,-76,39,50,-89,-166,-199,-80,-70
-97,110,207,-7,-153,159,76,-117,-127,-74,-16,-23
51,162,111,-107,-30,136,92,118,103,165,256,124
562,444,-118,-502,339,163,-559,-529,-201,910,1047,663
898,108,-790,-503,844,-341,-1174,-1378,-959,1154,1315,858
466,-495,-960,15,713,-727,-881,-1269,-1540,-508,171,267
15,-325,-339,155,177,-332,-335,-686,-1077,-907,-379,-99
-29,-150,-121,89,46,-135,-19,-144,-299,-232,-138,-101
-33,-98,-65,65,16,-81,37,-57,-160,-228,-128,-108
-37,-64,-27,51,-5,-45,35,-49,-101,-134,-107,-102
-53,-74,-21,63,-15,-47,54,-15,-79,-162,-119,-107
-55,-55,0,55,-27,-27,56,-10,-44,-128,-114,-104
-54,-63,-9,59,-22,-36,73,24,-2,-118,-114,-100
-56,-49,7,52,-31,-21,83,26,9,-110,-115,-94
-53,-51,3,52,-28,-24,86,49,30,-74,-103,-88
-53,-40,13,46,-32,-14,84,63,54,-66,-104,-84
-44,-29,16,36,-30,-6,85,87,93,-28,-93,-75
-47,-23,24,34,-35,1,85,120,131,-18,-85,-82
-37,-5,32,20,-34,13,87,153,190,22,-64,-81
-22,10,32,6,-27,21,92,203,256,72,-49,-69
19,49,30,-34,-6,40,95,271,353,143,-15,-54
44,70,26,-57,9,48,88,339,459,219,23,-33
67,91,24,-80,21,57,78,416,570,322,74,5
145,165,21,-155,62,93,70,479,672,416,124,41
165,185,20,-175,73,102,61,520,746,497,163,63
161,177,16,-170,73,96,49,531,797,564,215,92
168,181,13,-175,77,97,27,499,776,562,237,106
178,189,11,-183,83,99,14,433,677,515,228,91
168,174,7,-171,80,90,16,330,524,410,197,80
124,130,6,-127,58,68,13,236,367,279,143,51
101,104,3,-103,49,53,10,152,231,163,84,11
59,68,9,-64,25,38,10,77,128,79,31,-16
45,45,-1,-45,23,22,12,51,70,27,7,-43
19,35,16,-28,2,25,24,47,26,1,4,-49
1,19,18,-10,-9,18,35,33,10,-10,-6,-60
33,3,-30,-18,31,-13,35,28,5,-40,-32,-74
-7,-11,-3,9,-2,-7,35,25,-2,-46,-46,-62
-47,-18,30,32,-38,6,35,21,-13,-44,-44,-58
-43,-26,16,34,-29,-5,35,17,-28,-44,-45,-55
-33,-30,3,32,-18,-13,34,14,-25,-40,-45,-51
-52,-29,23,41,-38,-3,30,15,-25,-40,-45,-48
-81,-33,48,56,-64,7,27,15,-23,-42,-45,-44
-78,-35,43,56,-60,4,25,15,-19,-49,-45,-41
-82,-35,47,59,-64,6,21,15,-21,-55,-45,-40
-81,-31,50,56,-65,9,20,15,-19,-62,-45,-40
-78,-28,50,53,-64,11,25,12,-22,-59,-45,-40
-72,-24,48,48,-59,12,25,4,-30,-64,-45,-40
-65,-21,44,43,-55,11,21,-2,-41,-77,-45,-43
-61,-16,46,38,-53,15,20,-10,-47,-91,-45,-45
-62,-17,45,39,-53,14,15,-18,-54,-103,-45,-45
-79,-34,45,56,-62,6,15,-24,-58,-103,-45,-45
-68,-24,45,45,-56,10,19,-30,-62,-108,-45,-45
-77,-36,40,56,-58,2,15,-34,-74,-111,-47,-50
-99,-59,40,79,-69,-9,15,-35,-83,-114,-58,-53
-87,-48,39,67,-62,-4,14,-35,-89,-116,-65,-58
-71,-37,35,54,-53,-1,9,-35,-90,-114,-64,-60
-63,-28,35,45,-49,3,11,-35,-93,-119,-67,-60
-54,-17,37,36,-45,9,8,-35,-102,-120,-73,-60
-48,-7,41,27,-44,17,21,-35,-98,-112,-76,-60
-83,-39,44,61,-63,2,37,-42,-95,-106,-80,-60
-101,-52,48,76,-74,-2,34,-38,-92,-100,-73,-55
-71,-21,50,46,-60,15,38,-34,-87,-93,-63,-51
-35,24,60,5,-48,42,40,-28,-78,-87,-52,-46
-55,36,91,9,-73,63,41,-16,-64,-79,-43,-42
-71,28,99,21,-85,63,34,-10,-58,-71,-32,-34
-19,68,87,-25,-53,77,20,2,-47,-60,-20,-5
12,88,76,-50,-32,81,4,-22,-48,-50,-5,13
36,86,51,-61,-8,68,-13,-7,-33,-39,23,23
22,66,44,-45,-11,55,-14,13,-45,-54,8,24
-4,35,39,-16,-22,37,2,-26,-79,-75,-21,-5
-37,-4,33,20,-35,14,16,-39,-89,-107,-44,-34
-85,-51,34,68,-59,-8,23,-44,-95,-116,-61,-50
-90,-71,19,80,-54,-26,35,-33,-92,-130,-68,-58
-94,-61,34,77,-64,-13,26,-57,-103,-136,-63,-52
-89,-75,14,82,-51,-30,43,-31,-82,-139,-66,-59
-85,-48,37,66,-61,-5,29,-60,-114,-161,-66,-51
-75,-63,11,69,-43,-26,50,-18,-71,-119,-61,-58
-97,-25,72,61,-84,23,34,-83,-151,-175,-45,-31
-118,93,211,12,-164,152,66,-118,-93,-19,42,20
37,150,112,-94,-38,131,79,124,145,222,309,189
617,375,-242,-496,429,66,-622,-539,-141,1111,1162,751
946,-12,-958,-467,952,-484,-1186,-1390,-938,1124,1218,838
400,-516,-916,59,658,-716,-867,-1299,-1582,-691,-16,210
-7,-290,-283,149,138,-286,-311,-639,-983,-812,-368,-82
-33,-164,-131,99,49,-147,5,-102,-247,-188,-132,-59
-71,-123,-52,97,-9,-87,15,-51,-162,-215,-142,-54
-52,-79,-27,66,-12,-53,32,-18,-65,-96,-107,-60
-63,-82,-18,73,-22,-50,56,-2,-63,-142,-115,-73
-57,-63,-6,60,-25,-35,53,0,-31,-92,-89,-68
-53,-68,-14,61,-19,-41,58,23,-21,-98,-81,-71
-52,-52,1,52,-26,-25,52,26,-11,-83,-73,-70
-48,-53,-5,51,-21,-29,64,51,19,-65,-66,-70
-46,-40,6,43,-25,-17,70,63,51,-64,-63,-68
-39,-36,3,37,-21,-16,74,91,88,-37,-55,-59
-32,-23,9,28,-21,-7,76,116,117,-21,-49,-51
-29,-18,11,23,-19,-4,79,152,182,29,-29,-41
-10,4,14,3,-12,9,79,209,256,70,-13,-25
24,39,15,-32,4,27,74,269,343,144,8,-16
45,55,10,-50,17,32,68,344,447,219,46,17
85,94,9,-89,38,51,65,414,543,304,81,48
115,120,5,-118,55,62,59,467,632,399,125,66
149,152,3,-150,73,77,57,505,713,478,182,106
159,158,-1,-159,79,79,44,501,734,529,211,128
173,176,3,-175,85,89,17,489,721,530,232,153
158,171,12,-165,73,91,9,419,629,473,227,152
107,129,23,-118,42,76,10,307,472,375,187,122
87,119,32,-104,28,76,10,225,333,254,136,104
42,73,31,-58,6,52,9,144,207,145,86,74
13,43,30,-28,-9,36,17,87,128,77,46,48
1,31,30,-16,-15,30,30,51,77,27,13,31
-25,5,30,10,-28,17,30,28,37,-13,-3,18
-32,-1,30,16,-31,15,29,21,9,-34,-13,9
-25,2,27,11,-26,15,32,16,-1,-41,-26,4
-44,-19,25,31,-34,3,34,11,-2,-46,-33,-1
-65,-43,22,54,-43,-10,38,4,-6,-50,-37,-8
-49,-30,19,40,-34,-5,40,1,-8,-50,-39,-12
-43,-28,16,35,-29,-6,44,5,-10,-50,-44,-18
-31,-16,15,23,-23,-1,45,13,-14,-50,-44,-23
-21,1,22,10,-22,11,41,13,-15,-50,-37,-30
-61,-28,33,44,-47,2,40,8,-15,-54,-33,-34
-72,-30,42,51,-57,6,40,5,-15,-56,-27,-29
-63,-13,49,38,-56,17,40,2,-15,-55,-22,-19
-66,-12,55,39,-60,21,40,-3,-17,-55,-15,-13
-61,-3,58,32,-59,27,40,-6,-21,-55,-23,-8
-62,1,63,31,-63,32,40,-10,-37,-56,-39,-6
-57,8,65,24,-61,36,40,-10,-52,-61,-40,-9
-58,7,65,25,-62,36,40,-11,-54,-59,-40,-11
-66,-2,64,34,-65,31,40,-15,-59,-62,-40,-9
-73,-6,66,39,-69,30,40,-14,-61,-66,-40,-11
-90,-15,75,52,-83,30,36,-18,-64,-64,-39,-9
-93,-21,73,57,-83,26,35,-25,-67,-73,-47,-14
-93,-24,69,59,-81,22,35,-35,-70,-85,-60,-26
-78,-12,66,45,-72,27,31,-27,-74,-97,-66,-27
-42,18,61,12,-52,39,30,-35,-81,-100,-69,-23
-50,11,61,20,-56,36,31,-52,-85,-94,-65,-21
-71,-6,65,38,-68,30,36,-41,-78,-93,-63,-17
-90,-23,67,56,-78,22,39,-36,-75,-87,-60,-15
-66,5,71,30,-69,38,46,-28,-69,-84,-56,-17
-33,46,79,-7,-56,62,48,-22,-65,-80,-56,-26
-48,42,90,3,-69,66,45,-21,-69,-72,-48,-33
-14,85,98,-36,-56,91,20,-28,-70,-69,-38,-18
13,100,87,-56,-37,93,-27,-47,-71,-61,-23,9
26,77,51,-52,-13,64,-23,-37,-69,-59,-22,26
18,50,32,-34,-7,40,-7,-41,-72,-62,-17,20
-6,12,18,-4,-12,15,9,-39,-68,-79,-38,-4
-19,-8,11,13,-15,1,22,-49,-90,-132,-84,-20
-57,-56,1,56,-28,-27,22,-66,-100,-132,-84,-35
-47,-59,-12,54,-17,-35,30,-55,-105,-149,-102,-51
-52,-48,4,50,-28,-21,17,-78,-122,-141,-105,-47
-80,-88,-8,84,-35,-48,37,-48,-117,-163,-111,-57
-77,-53,24,65,-50,-14,27,-86,-141,-182,-104,-48
-95,-101,-7,98,-44,-54,51,-41,-105,-148,-105,-42
-80,-3,77,41,-79,37,5,-128,-160,-200,-96,-28
-85,80,164,2,-125,122,73,-104,-77,-34,1,-9
102,133,31,-118,36,81,82,188,224,292,333,209
716,351,-365,-533,540,-8,-633,-396,46,1302,1244,785
832,-139,-970,-346,901,-554,-1065,-1195,-904,893,1059,756
231,-488,-719,129,476,-604,-718,-1155,-1549,-966,-238,95
-108,-291,-183,200,38,-237,-224,-502,-852,-728,-380,-124
-13,-135,-122,74,55,-128,24,-85,-207,-220,-152,-83
-84,-138,-54,111,-15,-96,33,-82,-233,-272,-178,-95
-13,-47,-34,31,10,-40,62,-26,-39,-150,-133,-87
-146,-163,-18,155,-64,-90,106,-30,-167,-201,-150,-101
-1170,-1173,-4,1172,-583,-588,179,-32,-11,-144,-136,-86
-1302,-1308,-6,1305,-648,-657,82,-26,-128,-169,-160,-95
-543,-531,12,537,-277,-260,-36,-34,-515,-137,-161,-78
