I,II,III,aVR,aVL,aVF,V1,V2,V3,V4,V5,V6
-30,45,75,-8,-53,60,32,5,-55,-75,-60,741
-30,45,75,-8,-53,60,41,8,-53,-74,-56,757
-27,45,72,-9,-50,59,34,14,-47,-70,-49,766
-25,45,70,-10,-48,57,28,19,-44,-67,-43,764
-21,46,66,-13,-44,56,20,25,-39,-62,-36,771
-21,44,65,-12,-43,54,12,30,-34,-59,-30,767
-14,59,73,-23,-44,66,6,25,-30,-55,-25,786
8,84,76,-47,-34,80,0,25,-25,-50,-20,801
11,85,74,-49,-32,80,0,39,-21,-45,-15,801
6,81,76,-44,-35,78,-1,37,-16,-41,-12,806
5,79,74,-43,-34,76,-5,31,-11,-36,-6,800
-1,75,76,-38,-39,76,-5,28,-12,-37,-7,799
-10,75,85,-33,-48,80,-7,22,-16,-41,-11,799
-15,69,85,-27,-50,77,-11,19,-17,-39,-9,795
-17,64,80,-23,-49,72,-10,15,-22,-41,-14,795
-20,59,79,-19,-50,69,-10,16,-23,-39,-15,793
-21,53,74,-16,-48,63,-10,13,-28,-42,-15,787
-30,47,77,-9,-53,61,-10,9,-39,-55,-20,780
-33,47,80,-7,-57,64,-15,10,-41,-55,-20,774
-30,50,80,-10,-55,65,-15,6,-39,-50,-20,767
-30,50,80,-10,-55,65,-16,5,-36,-49,-20,761
-27,53,80,-13,-54,66,-20,5,-34,-44,-20,756
-24,56,80,-16,-53,67,-20,5,-36,-47,-22,751
-22,54,77,-16,-50,65,-18,5,-35,-58,-26,746
-22,50,72,-14,-47,61,-14,5,-36,-61,-25,742
-20,49,69,-15,-44,59,-15,5,-43,-60,-26,736
-16,50,66,-17,-41,57,-11,5,-46,-60,-25,733
-10,50,60,-20,-35,55,-10,5,-44,-59,-25,728
-14,50,64,-18,-39,57,-9,5,-45,-61,-30,721
-21,48,69,-14,-45,58,-6,5,-45,-65,-29,718
-17,41,58,-12,-37,49,-4,5,-45,-65,-31,709
-13,36,49,-11,-32,42,-6,5,-50,-64,-29,708
-11,31,42,-10,-27,36,-4,5,-49,-70,-31,696
-26,-6,20,15,-23,7,-5,6,-55,-83,-36,678
-34,-69,-36,52,1,-52,-3,3,-84,-131,-76,659
-7,-113,-105,60,49,-108,12,10,-91,-165,-111,634
8,-64,-71,28,40,-67,19,43,-57,-127,-73,656
18,-3,-21,-7,19,-12,52,88,-29,-86,-39,671
4,28,24,-16,-10,26,74,68,-33,-58,-13,686
-34,48,82,-7,-59,65,65,57,-19,-55,-23,684
-50,44,94,2,-72,69,11,18,-21,-50,-2,714
-62,41,103,10,-83,72,-11,1,-10,-47,-18,742
-69,21,90,24,-80,55,42,83,9,-51,-40,718
-54,72,126,-10,-90,99,123,308,262,113,-8,725
354,495,142,-425,106,318,-94,354,751,814,901,1542
711,1100,389,-906,161,744,-725,-463,261,1076,1879,2566
332,820,488,-576,-78,653,-796,-976,-811,-118,635,1745
-14,150,163,-68,-89,156,-477,-714,-963,-809,-490,716
-52,67,119,-8,-86,93,-321,-444,-547,-422,-234,744
-53,66,119,-7,-86,92,-96,-115,-196,-201,-151,774
-12,51,62,-20,-37,56,-27,-5,-70,-98,-75,830
-18,55,72,-19,-45,63,-13,8,-63,-77,-77,831
-21,37,58,-8,-40,47,5,40,-41,-67,-69,842
-28,42,70,-8,-49,56,1,30,-41,-51,-48,856
-31,31,62,0,-47,46,17,55,-28,-49,-56,847
-29,38,67,-5,-48,52,16,57,-23,-33,-33,860
-38,30,68,4,-53,49,28,64,-16,-36,-41,845
-40,30,70,5,-55,50,28,64,-9,-25,-23,851
-40,31,70,5,-55,51,30,69,-5,-23,-24,843
-35,34,69,1,-53,51,31,71,2,-16,-15,843
-35,36,71,0,-53,53,35,80,9,-10,-15,839
-34,36,69,-1,-52,52,35,81,20,-2,-16,842
-30,40,70,-5,-50,55,35,87,33,6,-9,846
-29,40,70,-5,-50,55,35,104,44,14,-11,844
-32,38,70,-3,-51,54,35,114,64,21,-8,845
-17,53,70,-18,-44,61,35,126,82,29,2,844
-2,68,70,-33,-37,68,35,152,111,52,21,851
-4,69,73,-33,-39,71,35,176,146,76,48,863
22,104,82,-63,-30,92,28,185,172,98,69,880
42,134,92,-88,-25,113,18,195,201,128,102,905
48,149,101,-99,-26,125,10,191,203,148,128,938
67,176,109,-121,-22,142,0,181,193,148,137,951
66,188,122,-127,-28,155,-8,174,188,142,144,945
67,201,134,-134,-34,167,-11,162,178,137,138,939
62,197,136,-130,-37,166,-15,149,173,131,128,932
49,183,134,-116,-43,158,-18,134,159,127,122,926
39,170,131,-104,-46,150,-23,119,136,118,113,918
17,146,130,-81,-57,138,-25,90,105,96,100,885
5,134,129,-70,-63,132,-20,53,70,70,83,856
-3,119,122,-58,-63,120,-20,37,38,47,67,838
-32,86,118,-27,-75,102,-20,27,12,28,51,817
-50,62,112,-7,-82,87,-20,14,-7,9,35,797
-39,67,106,-14,-73,86,-20,7,-22,-7,22,779
-23,78,102,-28,-63,90,-22,2,-35,-21,4,764
-20,76,95,-28,-58,85,-25,-1,-42,-30,-18,747
-23,70,93,-23,-58,81,-25,-4,-39,-30,-27,735
-20,64,85,-22,-53,74,-29,-9,-40,-30,-34,732
-35,58,93,-12,-64,75,-31,-10,-40,-28,-38,729
-55,55,110,0,-83,82,-29,-10,-40,-25,-27,725
-48,55,104,-4,-77,79,-31,-10,-39,-25,-18,721
-43,55,98,-6,-71,76,-29,-10,-35,-22,-7,718
-39,55,94,-8,-67,74,-31,-10,-36,-17,2,714
-19,67,85,-24,-52,75,-29,-10,-33,-14,13,714
-20,71,91,-26,-56,81,-29,-14,-30,-11,21,715
-32,69,101,-19,-67,85,-43,-16,-30,-6,20,714
-31,67,98,-18,-65,82,-46,-15,-30,-6,20,715
-31,64,95,-17,-63,80,-44,-15,-30,-10,20,708
-28,65,93,-19,-61,79,-46,-15,-30,-12,20,697
-24,65,89,-20,-57,77,-45,-16,-30,-15,19,685
-26,65,90,-19,-58,77,-45,-20,-30,-18,16,674
-24,66,90,-21,-58,77,-45,-19,-31,-20,13,668
-26,64,90,-19,-58,76,-45,-23,-36,-23,10,663
-25,65,90,-20,-58,77,-45,-25,-39,-25,8,659
-14,75,90,-31,-52,82,-45,-25,-44,-25,4,654
-17,74,91,-28,-54,82,-45,-25,-45,-25,7,650
-24,70,94,-23,-59,82,-42,-25,-45,-25,11,645
-28,68,95,-21,-62,81,-39,-33,-45,-25,9,635
-30,65,95,-18,-63,80,-36,-36,-45,-25,11,627
-32,63,95,-16,-64,79,-34,-35,-46,-25,10,617
-36,59,95,-12,-65,76,-30,-32,-51,-26,10,608
-33,60,93,-14,-63,76,-31,-29,-49,-22,14,600
-33,56,89,-12,-61,72,-35,-30,-52,-19,15,593
-36,55,91,-9,-64,72,-35,-25,-55,-33,15,587
-34,55,89,-10,-62,72,-35,-25,-54,-41,14,578
-42,48,90,-3,-67,69,-35,-24,-59,-39,16,573
-52,38,90,7,-71,64,-35,-19,-59,-40,11,564
-47,32,79,7,-63,55,-32,-20,-61,-40,6,557
-50,17,67,16,-59,42,-28,-25,-59,-40,-5,547
-52,-14,39,33,-45,12,-26,-28,-62,-51,-7,516
-60,-80,-20,70,-19,-50,-21,-18,-81,-97,-35,484
-49,-129,-79,89,15,-103,-18,-12,-84,-125,-74,483
-31,-81,-50,57,9,-65,6,5,-55,-93,-42,481
-26,-35,-9,30,-8,-22,43,55,-22,-54,-10,504
-33,4,36,14,-35,20,67,57,-20,-25,19,523
-53,24,78,14,-66,51,73,32,-13,-22,30,500
-50,49,99,0,-75,74,9,-19,-37,-18,51,506
-49,60,109,-6,-79,84,-13,-23,-26,-21,28,472
-100,-1,100,50,-100,49,27,32,-2,-26,-2,488
-106,24,129,41,-118,76,155,298,229,82,8,454
350,433,83,-391,133,258,-50,412,783,727,795,1086
778,1024,246,-901,265,635,-736,-444,435,1055,1696,2048
397,743,346,-571,26,544,-845,-1081,-747,-47,633,1335
-25,149,175,-62,-100,162,-556,-873,-1022,-715,-368,392
-58,91,149,-17,-104,119,-360,-526,-552,-361,-157,389
-53,45,99,4,-76,72,-123,-169,-222,-183,-111,376
-47,29,75,9,-61,52,-55,-49,-93,-93,-38,410
-66,20,86,23,-76,52,-27,-21,-69,-78,-19,395
-70,4,73,33,-72,38,-12,3,-51,-66,-19,385
-63,16,79,23,-71,47,-9,-2,-47,-53,-9,386
-67,5,71,30,-69,37,9,17,-38,-56,-19,368
-64,14,78,24,-71,45,8,15,-30,-39,-3,373
-66,7,73,29,-70,40,19,28,-26,-42,-16,356
-68,8,76,29,-72,42,19,31,-16,-29,-6,357
-71,3,75,34,-74,39,26,36,-12,-30,-12,345
-74,1,75,36,-74,37,29,46,-3,-21,-9,341
-76,-1,75,38,-76,36,33,54,2,-19,-10,335
-75,-6,70,41,-72,32,38,63,9,-14,-11,329
-74,-4,71,39,-72,33,41,71,26,-9,-6,327
-64,4,68,30,-66,36,48,89,41,0,0,322
-50,16,65,16,-58,40,47,105,62,17,10,321
-40,24,64,8,-53,44,45,125,86,26,20,313
-32,36,68,-3,-50,52,45,161,117,56,44,319
-28,47,75,-10,-51,61,40,183,152,81,65,334
-11,74,85,-32,-48,79,40,197,177,97,79,339
7,106,99,-57,-46,103,39,201,210,132,113,368
19,121,102,-70,-42,111,32,193,229,147,144,392
41,145,104,-93,-32,124,26,188,223,142,159,388
57,163,106,-110,-25,134,19,182,213,138,158,387
66,168,102,-117,-19,135,13,176,203,133,152,382
48,161,113,-105,-33,137,6,158,191,129,149,381
26,149,124,-88,-49,136,2,138,174,125,143,377
23,139,116,-82,-46,127,-1,115,151,114,140,358
9,118,109,-63,-50,113,-4,88,119,97,122,332
-8,94,102,-43,-55,97,-7,60,80,79,97,302
-21,72,93,-26,-57,82,-10,32,44,54,78,277
-32,60,93,-14,-63,76,-12,20,16,32,53,254
-40,55,95,-8,-68,75,-15,9,-12,17,33,231
-48,47,95,0,-72,71,-15,-4,-31,-3,24,215
-59,39,98,10,-79,69,-15,-9,-43,-17,18,201
-68,32,101,18,-85,66,-15,-12,-47,-26,10,190
-73,26,99,23,-86,62,-15,-15,-45,-28,2,182
-71,24,96,23,-84,60,-15,-18,-45,-23,-4,176
-71,21,91,25,-81,56,-15,-21,-45,-20,0,168
-70,19,89,26,-79,54,-15,-18,-45,-17,7,161
-69,15,84,27,-77,50,-15,-15,-45,-12,11,154
-65,15,80,25,-73,48,-15,-12,-40,-9,18,150
-54,26,80,14,-67,53,-15,-9,-35,-6,22,147
-54,26,80,14,-68,53,-15,-6,-31,-3,28,145
-54,26,80,14,-67,52,-15,-5,-26,-1,32,141
-57,23,80,17,-69,51,-15,-10,-21,3,29,140
-47,33,80,7,-64,56,-15,-10,-22,5,27,136
-29,51,80,-11,-55,65,-15,-11,-26,3,24,129
-35,45,80,-5,-58,62,-15,-15,-28,-1,21,125
-40,40,80,0,-60,60,-15,-14,-31,-3,19,119
-43,37,80,3,-62,58,-15,-18,-34,-6,16,113
-49,31,80,9,-65,55,-15,-20,-35,-9,11,109
-53,28,80,12,-67,54,-16,-20,-38,-11,9,102
-53,24,77,14,-66,51,-14,-20,-40,-14,4,96
-49,25,75,11,-62,50,-10,-20,-42,-15,0,89
-47,25,72,11,-60,48,-10,-20,-46,-16,0,82
-44,25,69,9,-57,47,-8,-20,-45,-20,0,76
-41,25,66,8,-54,45,-5,-20,-45,-20,0,71
-45,19,64,12,-55,42,-5,-20,-45,-23,0,64
-53,13,66,19,-60,39,-8,-20,-45,-26,-1,60
-55,9,64,22,-60,36,-10,-19,-49,-24,1,54
-64,2,66,30,-65,34,-10,-22,-50,-25,4,49
-67,-3,64,34,-65,30,-15,-25,-51,-25,5,44
-69,-3,66,35,-67,31,-15,-25,-56,-25,5,38
-56,6,63,25,-60,34,-13,-28,-54,-30,4,30
-44,14,58,15,-51,35,-9,-31,-58,-33,7,24
-59,-2,57,30,-58,27,-3,-29,-61,-38,-2,19
-43,-22,21,32,-32,0,-1,-29,-59,-42,-21,-4
-58,-80,-22,69,-18,-50,6,-37,-82,-79,-63,-48
-43,-130,-87,87,22,-109,8,-36,-102,-118,-86,-80
-15,-104,-89,60,37,-96,24,-14,-66,-89,-60,-61
-27,-66,-38,47,6,-52,67,47,-25,-46,-46,-50
-21,-22,0,22,-10,-11,99,59,-16,-14,-12,-47
-65,-10,55,37,-60,22,102,54,0,-17,-20,-54
-78,1,79,38,-79,40,43,3,-34,-19,2,-46
-66,31,97,17,-82,64,1,-28,-39,-24,-8,-51
-60,6,66,27,-63,36,26,22,-16,-25,-45,-63
-98,-2,96,50,-98,47,164,235,144,52,-46,-112
252,295,42,-274,105,168,55,481,722,542,515,364
825,880,55,-853,385,467,-596,-241,611,981,1484,1358
508,762,254,-636,127,508,-830,-1101,-594,106,756,945
-24,184,208,-80,-116,196,-559,-1000,-1096,-694,-377,-80
-80,62,142,9,-111,102,-357,-610,-632,-392,-230,-153
-91,24,114,33,-103,69,-120,-224,-246,-181,-128,-131
-77,1,79,38,-78,40,-20,-63,-95,-109,-91,-128
-76,7,84,34,-80,45,-5,-34,-65,-70,-64,-119
-71,-12,60,42,-65,24,13,-3,-52,-72,-80,-133
-67,-7,59,37,-63,26,19,-10,-45,-55,-54,-118
-76,-23,53,49,-65,15,35,10,-41,-62,-69,-130
-73,-18,55,45,-64,18,31,9,-31,-45,-49,-128
-77,-21,56,49,-66,17,41,21,-28,-48,-56,-144
-73,-20,54,46,-63,16,45,24,-20,-39,-47,-141
-77,-20,57,48,-67,18,51,38,-15,-37,-51,-145
-84,-21,63,52,-73,21,54,56,-7,-34,-46,-150
-85,-18,67,51,-76,24,58,58,0,-28,-44,-158
-76,-13,63,44,-69,25,63,62,5,-27,-45,-164
-67,-5,62,36,-64,28,66,70,23,-20,-36,-163
-59,0,59,29,-59,29,70,83,36,-7,-32,-158
-53,8,61,22,-57,34,69,102,54,7,-23,-152
-61,15,76,23,-69,45,73,123,81,22,-19,-148
-50,32,81,9,-66,57,76,147,105,41,-8,-141
-41,38,79,2,-60,58,75,173,143,66,12,-137
-23,58,80,-18,-52,69,71,194,176,89,32,-123
19,99,80,-59,-31,89,62,206,205,114,61,-97
33,112,79,-72,-24,95,56,202,228,139,92,-88
47,130,83,-89,-18,106,48,195,236,142,109,-84
49,141,91,-95,-21,116,41,190,231,134,107,-79
43,131,88,-87,-23,109,34,185,217,128,99,-75
42,127,85,-85,-22,106,29,174,204,120,93,-69
35,119,83,-77,-24,101,24,152,183,112,85,-74
35,113,78,-74,-22,95,20,115,151,106,81,-80
17,106,89,-62,-36,98,15,82,120,93,68,-98
-7,87,94,-41,-51,90,10,61,89,70,52,-122
-17,68,85,-26,-51,76,10,33,50,43,33,-148
-28,52,80,-12,-54,65,10,14,14,18,0,-174
-35,37,72,-2,-54,54,10,0,-11,-1,-17,-192
-35,31,66,2,-51,48,10,-12,-22,-9,-22,-205
-37,24,61,6,-49,42,10,-17,-28,-14,-30,-211
-42,18,60,12,-51,38,9,-20,-38,-19,-35,-225
-50,10,60,20,-55,35,5,-23,-44,-25,-43,-227
-54,6,60,24,-57,32,5,-28,-41,-29,-43,-267
-51,9,60,21,-56,35,5,-30,-40,-25,-39,-330
-47,12,59,17,-53,35,5,-25,-39,-25,-37,-335
-40,15,55,12,-48,35,5,-22,-34,-24,-34,-334
-38,17,55,10,-47,36,9,-19,-36,-20,-31,-339
-32,21,53,5,-42,36,10,-15,-32,-21,-29,-340
-32,17,49,7,-41,33,10,-10,-30,-17,-26,-340
-36,14,51,11,-44,32,15,-12,-30,-15,-25,-335
-30,16,46,7,-39,31,15,-16,-26,-15,-25,-335
-34,11,45,11,-40,28,15,-15,-25,-15,-25,-335
-34,10,45,12,-39,27,15,-15,-26,-15,-25,-335
-31,9,40,11,-36,25,15,-15,-30,-16,-27,-335
-34,6,40,14,-37,23,15,-15,-30,-19,-31,-337
-39,0,40,19,-40,20,15,-20,-31,-24,-29,-342
-45,3,48,21,-47,26,15,-20,-35,-28,-34,-344
-34,17,51,9,-43,33,15,-21,-35,-30,-35,-352
-31,15,46,8,-39,30,15,-25,-37,-33,-35,-360
-36,8,44,14,-41,26,15,-25,-42,-36,-39,-359
-36,4,41,16,-39,22,15,-27,-45,-39,-42,-364
-42,-2,39,22,-40,18,15,-31,-50,-40,-45,-364
-44,-8,35,25,-39,13,14,-30,-50,-41,-47,-369
-43,-8,35,25,-39,13,10,-30,-50,-46,-51,-381
-39,-5,34,22,-36,14,10,-29,-50,-45,-50,-388
-34,-5,29,19,-31,12,10,-30,-49,-47,-54,-390
-37,-6,31,21,-33,12,10,-34,-52,-50,-55,-393
-31,-4,27,17,-29,11,10,-35,-55,-50,-55,-396
-29,-6,23,17,-25,8,6,-35,-55,-50,-60,-398
-31,-13,18,22,-25,3,5,-34,-58,-50,-60,-402
-40,-27,13,33,-26,-7,4,-36,-60,-50,-63,-404
-46,-35,11,41,-28,-12,6,-35,-60,-54,-66,-408
-29,-51,-21,40,-4,-36,3,-34,-65,-68,-67,-412
-49,-122,-72,86,12,-97,8,-41,-88,-111,-113,-457
-53,-172,-119,112,33,-145,10,-42,-107,-146,-155,-496
-13,-119,-106,66,46,-112,30,-11,-79,-115,-118,-468
1,-75,-76,37,39,-76,82,53,-28,-74,-86,-454
-22,-56,-34,39,6,-45,117,54,-10,-45,-67,-452
-44,-28,17,36,-30,-5,122,42,-11,-42,-66,-460
-54,-10,44,32,-49,17,78,-6,-46,-38,-45,-454
-62,-3,59,32,-61,28,70,-22,-42,-35,-41,-463
-70,-45,25,57,-47,-10,80,37,-16,-41,-69,-471
-81,-28,53,54,-67,12,182,274,193,59,-70,-489
368,320,-48,-344,207,136,13,463,774,578,590,95
842,849,7,-845,417,428,-638,-359,498,868,1402,990
422,652,229,-537,97,440,-770,-1133,-741,-75,493,388
-52,104,155,-26,-104,129,-491,-954,-1079,-702,-452,-510
-95,11,106,42,-101,58,-301,-569,-576,-357,-240,-499
-104,-37,68,70,-86,16,-74,-181,-222,-182,-161,-502
-89,-55,34,72,-62,-10,-3,-47,-85,-107,-99,-487
-84,-45,39,64,-62,-3,23,-30,-67,-78,-85,-484
-67,-54,13,60,-40,-20,37,-3,-51,-76,-98,-488
-63,-40,23,51,-42,-8,37,-9,-46,-63,-79,-475
-66,-49,17,58,-41,-15,48,10,-40,-71,-93,-484
-65,-44,22,54,-43,-11,47,10,-31,-58,-78,-484
-85,-65,19,75,-52,-23,67,20,-28,-63,-95,-505
-89,-69,20,79,-54,-24,73,28,-19,-56,-96,-497
-79,-60,19,69,-49,-20,75,45,-16,-52,-102,-501
-69,-55,14,62,-41,-21,77,49,-6,-46,-100,-500
-62,-46,16,54,-39,-15,80,52,-2,-41,-99,-499
-54,-42,12,48,-33,-15,81,63,7,-35,-101,-497
-52,-41,10,47,-31,-15,87,72,21,-30,-98,-490
-60,-50,9,55,-34,-20,94,84,36,-20,-88,-487
-68,-52,15,60,-41,-18,95,102,60,-4,-75,-482
-66,-44,23,55,-44,-10,95,123,82,8,-64,-478
-51,-31,20,41,-35,-5,95,143,107,26,-50,-472
-35,-15,20,25,-27,2,95,174,144,47,-23,-453
-11,9,20,1,-16,14,94,195,180,74,7,-428
17,37,20,-27,-1,29,86,200,208,104,29,-402
39,58,20,-48,9,39,79,195,228,119,53,-374
55,81,26,-68,14,53,72,186,232,120,67,-359
54,85,31,-69,11,58,64,178,218,115,62,-360
47,76,30,-62,8,53,57,171,206,111,58,-359
41,72,30,-56,5,51,51,158,190,106,54,-360
37,67,30,-52,3,48,49,141,173,102,48,-359
23,53,30,-38,-4,41,46,123,153,96,45,-361
-4,23,27,-10,-16,25,43,95,123,79,33,-381
-19,3,22,8,-21,12,40,64,92,57,17,-397
-30,-11,20,21,-25,4,40,31,54,32,-1,-424
-43,-28,15,35,-29,-6,40,8,19,15,-22,-449
-47,-35,12,41,-29,-11,40,-5,-3,-1,-43,-460
-59,-50,8,54,-33,-21,40,-15,-17,-11,-62,-471
-71,-66,5,68,-38,-31,40,-15,-25,-15,-69,-469
-70,-64,5,66,-37,-29,40,-15,-33,-20,-68,-471
-70,-67,3,68,-36,-32,39,-15,-42,-23,-65,-479
-70,-71,0,70,-35,-35,41,-15,-43,-29,-65,-480
-70,-70,0,70,-35,-35,37,-15,-38,-28,-65,-480
-63,-66,-3,65,-29,-35,43,-10,-35,-24,-65,-479
-56,-65,-9,60,-23,-37,52,-10,-32,-26,-65,-480
-51,-65,-13,58,-19,-39,47,-9,-28,-21,-61,-478
-43,-60,-18,52,-13,-39,45,-5,-24,-20,-56,-474
-37,-60,-22,49,-8,-41,42,-5,-21,-20,-51,-475
-34,-60,-27,47,-3,-43,39,-7,-18,-15,-48,-472
-30,-60,-30,45,0,-45,44,-11,-15,-15,-42,-469
-30,-60,-30,45,0,-45,45,-10,-13,-14,-41,-470
-28,-61,-32,45,2,-46,45,-10,-9,-10,-46,-473
-22,-58,-36,41,7,-46,45,-10,-13,-10,-44,-475
-34,-68,-34,51,1,-51,45,-10,-16,-12,-47,-475
-42,-81,-39,61,-1,-60,45,-15,-14,-15,-50,-480
-42,-82,-40,62,-1,-61,45,-15,-19,-15,-50,-479
-45,-85,-40,65,-2,-62,45,-15,-20,-19,-54,-481
-41,-85,-44,64,2,-65,45,-15,-20,-20,-55,-485
-39,-84,-46,62,4,-65,45,-14,-25,-20,-55,-484
-43,-86,-43,65,1,-65,45,-18,-25,-25,-55,-485
-58,-99,-40,79,-9,-69,41,-20,-26,-25,-54,-485
-61,-100,-39,81,-11,-70,40,-20,-30,-25,-56,-484
-50,-95,-45,73,-2,-70,40,-20,-30,-25,-60,-488
-39,-94,-55,67,9,-74,40,-20,-30,-25,-60,-491
-37,-90,-53,64,8,-72,40,-19,-30,-28,-60,-490
-39,-88,-48,64,5,-68,42,-15,-30,-30,-60,-490
-43,-90,-47,67,3,-68,45,-14,-29,-29,-60,-489
-62,-101,-39,81,-11,-70,45,-15,-30,-34,-63,-490
-56,-101,-45,78,-5,-73,45,-15,-30,-35,-66,-489
-39,-98,-59,68,10,-78,45,-15,-29,-35,-65,-490
-43,-107,-64,75,10,-85,44,-18,-31,-35,-65,-489
-40,-118,-78,79,19,-98,46,-20,-28,-37,-66,-492
-58,-184,-126,121,34,-155,44,-21,-52,-68,-88,-520
-59,-254,-195,157,69,-224,46,-19,-68,-116,-140,-565
-28,-227,-200,128,86,-213,61,-14,-46,-114,-133,-561
-18,-177,-160,98,71,-168,96,37,-17,-77,-98,-528
6,-136,-142,65,74,-138,137,72,11,-43,-70,-507
-25,-110,-85,68,30,-97,156,78,27,-26,-55,-502
-65,-122,-57,94,-3,-89,120,59,0,-22,-48,-496
-52,-94,-43,73,-4,-68,68,-9,-30,-11,-28,-477
-45,-114,-68,80,12,-91,71,24,6,-14,-42,-491
-110,-143,-33,127,-38,-88,165,146,70,11,-87,-555
66,13,-52,-39,59,-19,212,478,522,296,155,-368
710,536,-174,-623,442,181,-291,159,834,878,1154,608
719,773,54,-746,332,413,-759,-868,-131,503,1118,808
104,241,138,-173,-17,189,-568,-1074,-1056,-528,-167,-261
-78,-39,40,58,-59,0,-355,-728,-798,-523,-373,-597
-78,-50,28,64,-53,-10,-137,-325,-324,-197,-165,-515
-67,-139,-72,103,3,-106,33,-41,-107,-113,-151,-544
-53,-132,-79,92,13,-105,41,-18,-51,-51,-78,-508
-70,-149,-79,110,5,-114,70,21,-36,-61,-100,-532
-58,-143,-85,101,14,-113,72,22,-19,-41,-73,-509
-63,-145,-82,105,10,-114,85,35,-19,-46,-86,-519
-58,-146,-88,102,16,-117,86,47,-7,-35,-75,-513
-65,-144,-79,104,7,-111,94,48,-4,-31,-75,-515
-64,-145,-82,105,9,-113,102,57,4,-27,-74,-516
-59,-138,-79,99,10,-109,101,56,10,-21,-67,-513
-61,-141,-80,101,10,-111,107,63,18,-21,-73,-517
-59,-139,-80,99,11,-110,107,76,26,-14,-68,-513
-61,-140,-79,101,8,-109,112,92,34,-13,-71,-510
-65,-140,-75,103,5,-107,117,92,40,-7,-69,-501
-60,-135,-75,98,7,-105,121,112,62,3,-63,-496
-52,-127,-75,90,12,-101,120,129,85,20,-53,-489
-44,-119,-75,82,15,-97,120,136,97,27,-43,-483
-36,-111,-75,74,20,-93,120,165,120,41,-30,-476
-32,-104,-72,68,20,-87,121,189,152,63,-6,-459
-3,-70,-67,37,33,-68,119,206,183,84,17,-435
31,-33,-64,2,48,-49,108,219,211,118,38,-405
48,-12,-60,-18,55,-36,97,213,226,138,70,-374
57,0,-56,-28,57,-28,85,203,219,140,82,-359
63,10,-53,-36,58,-21,76,195,212,141,88,-357
77,28,-50,-53,63,-11,71,185,206,137,90,-353
74,24,-50,-49,62,-13,66,176,199,135,84,-349
64,14,-50,-39,57,-18,63,157,194,135,82,-345
56,6,-50,-31,53,-21,57,133,179,129,77,-346
44,-7,-50,-19,47,-28,55,110,150,114,75,-362
24,-28,-53,3,39,-40,55,80,113,93,63,-380
1,-56,-57,28,29,-56,55,62,75,72,44,-406
-15,-72,-57,44,21,-64,55,52,43,53,19,-429
-30,-97,-67,64,19,-82,55,35,23,40,0,-449
-28,-108,-80,68,27,-94,55,18,10,35,-10,-460
-37,-117,-80,77,22,-99,59,10,0,27,-23,-460
-55,-133,-78,94,12,-105,60,7,-10,19,-33,-474
-53,-129,-76,91,11,-102,60,3,-20,12,-46,-475
-54,-128,-74,92,10,-101,60,0,-19,13,-36,-474
-45,-124,-80,85,18,-102,60,-5,-13,16,-31,-475
-35,-124,-90,80,28,-107,58,-3,-10,18,-19,-474
-51,-141,-90,96,20,-115,55,4,-5,22,-19,-474
-55,-146,-91,101,18,-118,55,9,-1,24,-51,-469
-46,-141,-96,94,25,-118,55,13,4,29,-22,-466
-45,-139,-94,92,25,-116,55,21,9,36,3,-462
-39,-136,-97,88,30,-116,55,23,14,35,-1,-458
-31,-134,-103,82,36,-118,58,30,17,35,6,-454
-26,-132,-105,79,40,-118,61,44,23,35,6,-458
-22,-127,-105,75,41,-115,60,38,24,35,11,-460
-16,-125,-109,71,47,-116,60,30,19,33,8,-460
-10,-120,-111,65,50,-115,60,25,21,29,3,-465
-11,-119,-109,65,49,-114,61,17,17,31,0,-464
-30,-150,-120,90,45,-134,65,15,15,26,-4,-466
-36,-163,-126,100,45,-144,65,15,15,25,-8,-469
-34,-158,-124,97,45,-141,65,15,11,25,-10,-472
-35,-161,-125,99,45,-143,68,15,10,20,-10,-475
-35,-159,-125,97,45,-141,71,15,10,20,-10,-475
-35,-161,-125,98,45,-142,74,15,10,19,-10,-475
-22,-152,-130,87,54,-140,77,15,11,15,-10,-475
-14,-144,-130,79,58,-136,80,15,8,15,-10,-475
1,-130,-131,64,67,-130,80,15,4,12,-13,-475
-4,-139,-135,72,66,-137,80,15,5,9,-16,-475
-39,-174,-135,107,48,-154,80,16,3,11,-15,-475
-39,-176,-137,107,50,-156,80,13,0,10,-15,-475
-29,-170,-141,100,56,-155,76,10,1,10,-16,-474
-31,-171,-139,101,54,-155,75,9,-5,10,-13,-475
-23,-164,-140,94,59,-152,76,11,-13,3,-12,-474
-27,-167,-140,97,57,-153,74,8,-19,-4,-7,-478
-26,-167,-141,97,58,-154,76,12,-28,-11,-18,-483
-22,-193,-171,108,74,-181,74,14,-33,-18,-35,-485
-47,-274,-226,161,90,-250,84,23,-44,-59,-69,-522
-30,-317,-288,174,129,-302,80,26,-59,-94,-97,-544
-3,-285,-282,144,140,-283,100,34,-29,-56,-64,-524
9,-237,-246,114,128,-242,154,94,23,-23,-36,-493
11,-193,-205,91,108,-199,184,97,40,-6,-16,-463
-21,-185,-163,103,71,-174,184,87,48,2,-17,-476
-41,-178,-137,110,48,-157,140,40,32,15,13,-462
-53,-174,-121,114,35,-147,149,36,36,19,-7,-464
-53,-186,-133,120,40,-159,151,73,33,10,-37,-497
-76,-169,-92,123,8,-130,250,332,259,105,-12,-531
394,189,-205,-291,300,-8,58,493,830,634,659,71
926,734,-192,-830,558,271,-615,-397,496,898,1477,979
492,463,-28,-477,260,217,-713,-1123,-717,-63,536,363
31,-49,-80,9,56,-65,-428,-924,-1022,-647,-399,-546
-25,-98,-73,62,24,-85,-225,-509,-497,-295,-169,-516
-64,-170,-106,117,21,-137,5,-125,-149,-128,-107,-511
-42,-190,-148,116,53,-168,73,-7,-44,-52,-52,-497
-51,-195,-144,123,47,-169,103,33,-17,-37,-44,-492
-39,-211,-172,125,67,-192,113,53,-2,-32,-49,-497
-39,-200,-161,120,62,-180,120,56,3,-13,-30,-480
-43,-209,-166,127,62,-187,130,72,12,-19,-42,-491
-43,-202,-159,122,58,-180,120,71,19,-4,-22,-479
-47,-207,-160,127,57,-183,133,82,27,-6,-31,-489
-46,-204,-158,125,57,-181,142,81,32,5,-22,-482
-52,-205,-153,129,51,-179,148,96,35,6,-26,-486
-53,-205,-153,129,50,-179,149,101,54,15,-19,-485
-56,-204,-148,130,47,-176,152,108,58,19,-20,-482
-60,-206,-146,133,44,-176,161,131,75,30,-18,-480
-59,-203,-144,132,43,-174,166,139,91,48,-8,-476
-52,-198,-146,125,47,-172,164,147,96,42,-3,-474
-48,-191,-143,120,48,-167,165,170,123,51,8,-470
-28,-184,-156,107,64,-170,165,192,148,70,12,-470
-14,-178,-165,96,76,-171,166,219,175,86,27,-453
-7,-164,-157,86,75,-160,161,248,213,111,53,-424
11,-141,-152,65,82,-146,155,276,254,139,80,-401
30,-117,-147,44,89,-132,150,283,284,166,109,-378
38,-101,-138,32,88,-120,144,274,298,179,124,-355
54,-97,-151,22,103,-124,139,270,294,185,143,-324
74,-91,-165,9,120,-128,134,263,283,180,145,-309
70,-88,-157,9,114,-123,129,259,276,172,139,-308
69,-82,-151,7,110,-116,123,244,265,166,138,-320
64,-80,-144,8,104,-111,120,216,254,157,132,-337
49,-89,-138,20,94,-113,115,183,230,152,130,-338
34,-97,-131,32,83,-114,110,152,187,132,114,-346
20,-130,-151,55,86,-140,113,123,143,107,92,-373
12,-145,-157,67,85,-151,115,93,113,90,72,-399
-11,-170,-158,91,74,-164,115,77,92,73,55,-415
-33,-217,-184,126,76,-201,115,67,75,65,44,-436
-38,-211,-172,125,67,-191,115,54,63,62,32,-441
-43,-204,-161,124,60,-182,115,46,56,58,26,-439
-51,-205,-155,128,52,-180,115,45,49,55,19,-440
-49,-187,-138,118,45,-162,115,45,43,50,13,-439
-51,-204,-152,128,51,-178,115,45,35,52,6,-439
-59,-226,-167,143,54,-196,115,45,30,55,0,-432
-53,-215,-162,134,55,-188,114,46,35,54,5,-427
-50,-209,-159,129,55,-184,121,50,43,59,10,-422
-45,-203,-158,125,57,-180,126,55,49,60,14,-416
-42,-194,-152,119,55,-173,125,51,55,60,19,-411
-34,-193,-159,114,62,-176,123,49,58,64,23,-406
-18,-181,-163,100,73,-172,119,50,60,69,29,-404
-22,-186,-165,104,72,-175,120,49,60,68,32,-401
-25,-210,-184,118,80,-196,116,51,60,64,30,-398
-24,-210,-186,118,81,-198,114,49,60,65,30,-395
-25,-209,-184,118,79,-196,115,54,60,61,27,-393
-20,-205,-186,113,83,-195,114,61,60,60,24,-390
-20,-205,-184,113,83,-195,116,55,55,60,25,-389
-20,-204,-184,112,82,-194,113,50,51,55,25,-390
-19,-198,-179,109,80,-189,110,47,48,55,25,-390
-14,-195,-180,105,83,-187,110,41,44,55,25,-390
-9,-189,-180,99,85,-184,110,42,40,55,25,-393
-35,-215,-180,125,73,-197,110,45,40,55,25,-395
-48,-228,-180,138,66,-203,110,45,40,53,23,-394
-39,-223,-184,132,73,-203,110,45,40,49,19,-395
-41,-226,-185,134,72,-206,110,45,40,50,20,-395
-39,-224,-185,132,73,-205,110,46,40,50,16,-395
-35,-225,-190,130,78,-207,110,50,40,50,15,-395
-31,-220,-189,125,79,-204,110,50,36,50,15,-395
-29,-220,-191,125,81,-206,110,51,33,44,10,-394
-31,-219,-187,125,78,-203,110,55,30,38,10,-395
-14,-214,-200,115,93,-207,110,56,27,30,9,-395
2,-215,-218,107,110,-217,118,52,25,25,5,-395
1,-215,-217,107,109,-216,121,50,21,17,5,-394
-28,-270,-242,149,107,-256,119,49,22,10,-2,-399
-42,-349,-307,196,133,-328,122,50,-7,-33,-61,-447
7,-342,-349,167,178,-345,117,50,-24,-61,-87,-465
25,-286,-311,130,169,-298,147,75,31,-9,-41,-429
26,-260,-286,118,156,-273,186,119,76,34,10,-398
4,-228,-231,112,118,-229,214,123,87,57,34,-369
-26,-225,-199,126,87,-212,209,120,105,64,27,-368
-34,-203,-169,119,68,-186,164,64,95,67,47,-348
-31,-198,-167,115,68,-183,172,73,105,57,29,-350
-48,-250,-202,149,77,-226,207,151,111,61,10,-416
2,-176,-178,87,90,-176,301,448,432,251,100,-371
568,271,-297,-419,432,-14,-40,428,946,861,995,473
833,751,-81,-792,457,335,-650,-551,294,871,1486,1110
239,361,122,-300,59,241,-557,-1010,-842,-217,241,170
-105,-133,-28,119,-38,-81,-296,-711,-855,-571,-372,-507
-84,-140,-56,112,-14,-98,-144,-380,-378,-208,-123,-419
-55,-219,-164,137,54,-191,66,-40,-76,-72,-110,-443
-31,-228,-197,130,84,-213,97,31,23,3,-30,-406
-45,-244,-199,145,77,-221,118,62,30,-3,-45,-414
-43,-272,-229,158,93,-250,128,89,56,14,-30,-400
-46,-254,-208,151,81,-231,129,90,53,17,-27,-392
-45,-260,-215,152,86,-237,145,103,68,22,-27,-393
-45,-248,-203,147,79,-225,153,96,74,33,-15,-386
-46,-248,-203,147,79,-225,157,107,79,34,-20,-391
-44,-241,-197,143,77,-219,153,105,82,42,-11,-381
-46,-238,-193,143,73,-215,156,113,84,38,-17,-387
-44,-235,-191,140,74,-212,154,117,89,46,-8,-380
-45,-231,-186,139,70,-208,157,123,92,44,-11,-378
-45,-228,-183,137,69,-205,162,138,109,49,-7,-374
-44,-224,-180,134,68,-201,164,150,119,51,-1,-370
-46,-219,-173,133,64,-195,160,156,128,60,4,-367
-30,-210,-180,120,75,-195,160,167,149,70,10,-363
-8,-205,-197,107,95,-201,159,194,173,81,26,-356
6,-194,-200,95,103,-197,155,218,200,103,46,-338
25,-165,-189,70,107,-177,156,235,233,120,63,-311
37,-137,-175,50,106,-156,152,250,264,146,91,-284
50,-118,-168,34,109,-142,144,245,278,163,114,-262
64,-97,-161,17,112,-129,136,237,289,161,129,-244
65,-89,-154,12,109,-121,128,231,289,158,129,-240
58,-90,-148,17,103,-118,121,224,271,156,124,-237
51,-90,-141,20,96,-115,114,218,256,152,122,-234
54,-89,-144,18,99,-116,109,198,239,151,117,-232
55,-90,-145,19,100,-117,104,173,218,146,115,-228
55,-90,-145,18,100,-117,98,147,195,132,106,-239
47,-103,-150,28,99,-126,91,119,165,118,93,-255
23,-127,-150,52,87,-138,92,97,135,104,81,-273
4,-147,-151,72,78,-149,95,81,105,90,65,-291
-7,-163,-156,85,75,-159,95,65,78,77,49,-311
-13,-167,-154,90,71,-161,98,59,62,69,39,-325
-22,-177,-155,100,67,-166,100,56,56,63,34,-325
-18,-173,-155,96,69,-164,99,52,49,55,29,-333
-11,-165,-154,89,72,-159,95,49,41,47,23,-336
-3,-160,-157,82,77,-158,95,45,34,42,17,-334
-3,-151,-148,77,73,-149,94,45,26,44,17,-332
-24,-183,-160,104,68,-171,89,53,42,45,20,-329
-20,-193,-173,106,77,-182,91,56,52,45,23,-330
-14,-179,-165,97,76,-172,87,55,49,45,26,-324
-9,-174,-165,92,78,-169,85,52,50,45,31,-319
-5,-165,-160,85,78,-162,85,49,50,45,36,-314
-10,-170,-160,90,75,-165,85,50,50,45,35,-308
-15,-169,-153,93,69,-161,85,45,45,45,35,-302
-10,-175,-164,93,77,-169,85,45,45,45,35,-302
-4,-186,-182,95,89,-184,89,44,44,45,35,-307
-6,-179,-174,93,84,-176,90,39,39,45,35,-310
-4,-175,-171,90,84,-172,90,41,41,40,30,-315
-6,-172,-166,90,80,-169,90,37,37,35,30,-315
-2,-163,-161,83,80,-162,90,35,34,31,29,-316
-19,-176,-157,98,70,-166,88,35,35,26,25,-320
-38,-192,-154,115,58,-173,84,31,31,21,25,-319
-34,-189,-155,112,60,-172,85,30,30,20,23,-322
-34,-189,-155,112,60,-172,85,30,30,20,19,-325
-30,-184,-155,107,63,-170,85,30,25,20,20,-324
-30,-185,-155,108,63,-170,85,30,25,20,20,-325
-23,-182,-160,103,69,-171,85,30,24,20,20,-324
-19,-179,-160,99,70,-170,85,30,20,20,20,-325
-20,-181,-161,100,71,-171,85,30,20,15,15,-329
-10,-176,-165,93,78,-170,85,28,17,14,11,-330
-11,-176,-165,94,77,-171,85,25,14,15,8,-330
-9,-173,-163,91,77,-168,85,22,16,15,5,-330
-21,-180,-159,100,69,-169,85,19,11,16,0,-330
-34,-191,-157,113,62,-174,85,16,10,13,-2,-330
-37,-190,-153,114,58,-171,85,14,10,7,-9,-330
-38,-189,-151,113,57,-170,85,11,3,3,-16,-330
-43,-192,-149,117,53,-170,84,4,-5,-1,-21,-330
-38,-186,-149,112,56,-167,81,1,-14,-6,-32,-330
-19,-211,-193,115,87,-202,78,-4,-18,-31,-32,-343
-37,-293,-256,166,110,-275,74,-10,-36,-77,-70,-390
-17,-313,-295,165,139,-304,79,0,-39,-81,-83,-399
17,-261,-278,122,148,-269,116,53,-5,-48,-51,-370
23,-221,-243,99,133,-232,163,97,39,-20,-25,-359
14,-177,-191,82,103,-184,189,76,46,1,6,-342
-22,-173,-151,98,65,-162,173,75,32,3,-1,-339
-34,-152,-118,93,42,-134,122,57,20,13,25,-320
-32,-144,-112,89,40,-128,103,70,30,14,5,-318
-46,-178,-132,113,43,-155,136,99,38,21,-18,-366
-31,-134,-103,82,36,-118,269,379,317,141,20,-380
474,289,-185,-381,329,51,-2,453,881,742,824,372
877,803,-73,-840,475,365,-644,-490,422,918,1523,1169
369,453,84,-411,142,268,-674,-1090,-779,-148,398,376
-31,-38,-7,35,-12,-22,-405,-852,-963,-630,-392,-423
-39,-72,-33,56,-3,-52,-211,-471,-464,-275,-158,-376
-55,-147,-91,101,18,-119,4,-97,-145,-132,-123,-387
-41,-171,-130,106,45,-150,62,-8,-34,-48,-53,-362
-60,-181,-121,121,30,-150,94,23,-19,-40,-62,-368
-54,-182,-128,118,37,-154,102,48,-1,-33,-56,-366
-50,-180,-130,115,41,-155,102,42,2,-27,-48,-357
-47,-189,-142,118,48,-165,107,56,13,-29,-53,-364
-53,-181,-128,117,38,-154,111,55,20,-18,-39,-360
-58,-183,-125,121,34,-154,132,71,25,-22,-46,-368
-57,-174,-117,116,31,-146,128,72,33,-11,-36,-363
-65,-175,-110,120,23,-142,132,82,36,-10,-43,-372
-49,-169,-120,109,36,-144,135,85,41,-4,-38,-369
-41,-166,-125,104,43,-145,135,88,45,0,-41,-368
-45,-163,-118,104,37,-140,137,104,51,4,-38,-361
-41,-156,-115,99,37,-135,142,114,69,10,-32,-354
-39,-149,-110,94,36,-129,144,129,82,20,-28,-348
-38,-143,-105,90,34,-123,141,144,101,30,-26,-340
-22,-136,-114,80,46,-124,138,165,131,39,-7,-336
-6,-119,-114,63,54,-116,136,193,155,57,16,-324
12,-95,-107,41,60,-100,132,212,183,77,29,-303
35,-69,-104,17,70,-86,130,235,217,101,53,-279
47,-51,-98,2,73,-75,127,238,245,124,77,-257
51,-43,-94,-4,73,-68,117,228,247,133,98,-237
58,-32,-91,-13,75,-61,109,223,239,130,101,-222
64,-22,-86,-20,75,-54,100,213,233,125,96,-207
64,-20,-84,-22,74,-52,90,209,226,123,95,-201
60,-19,-79,-20,69,-49,85,194,219,118,90,-194
54,-22,-76,-16,65,-48,85,171,204,116,90,-201
56,-16,-72,-19,64,-44,85,143,179,108,81,-217
42,-28,-70,-7,56,-48,85,117,143,93,68,-233
14,-56,-70,21,43,-63,85,97,113,80,56,-254
3,-67,-69,32,36,-68,82,69,81,63,40,-266
-1,-84,-83,42,41,-83,80,50,48,38,24,-287
-13,-104,-91,58,39,-97,80,42,27,13,8,-302
-23,-106,-82,65,30,-94,80,34,15,3,-7,-312
-22,-102,-80,62,29,-91,80,25,10,-1,-24,-315
-25,-99,-75,62,25,-87,80,21,5,-6,-35,-308
-32,-102,-70,67,19,-86,80,25,-1,-10,-35,-311
-49,-122,-73,86,12,-98,80,25,-7,-15,-34,-307
-53,-131,-77,92,12,-103,80,25,-9,-11,-30,-304
-41,-123,-82,82,21,-102,80,25,0,-4,-30,-305
-35,-120,-85,78,25,-102,80,25,8,3,-29,-301
-30,-115,-85,73,28,-100,77,28,16,9,-25,-295
-25,-110,-85,68,30,-97,74,32,26,16,-23,-290
-22,-106,-85,65,32,-95,75,31,26,19,-20,-284
-17,-103,-86,60,35,-94,71,30,25,15,-17,-278
-19,-99,-80,59,31,-89,70,30,25,15,-15,-276
-8,-96,-88,52,40,-92,70,25,25,15,-12,-280
7,-90,-97,42,52,-93,65,25,25,15,-10,-282
-3,-94,-92,49,45,-93,65,24,24,15,-10,-285
-20,-110,-90,65,35,-100,65,20,20,12,-10,-288
-23,-110,-86,67,31,-98,65,18,18,7,-10,-290
-26,-111,-85,69,29,-97,65,15,15,4,-11,-290
-34,-116,-81,75,24,-98,65,11,11,1,-19,-289
-35,-114,-79,75,23,-96,65,10,10,-4,-26,-290
-33,-113,-80,73,24,-97,65,13,6,-5,-32,-288
-28,-108,-80,68,26,-94,65,18,5,-5,-39,-285
-25,-105,-80,65,28,-92,65,19,5,-5,-40,-285
-22,-101,-80,61,29,-90,65,15,0,-5,-40,-285
-17,-97,-80,57,32,-89,60,15,0,-5,-40,-285
-16,-95,-79,55,32,-86,60,15,-2,-6,-41,-284
3,-90,-93,44,48,-92,61,15,-5,-8,-40,-290
-13,-115,-102,64,45,-108,60,16,-7,-11,-40,-287
-32,-126,-94,80,31,-110,61,11,-10,-14,-40,-305
-23,-117,-94,70,36,-105,57,10,-13,-16,-40,-341
-29,-116,-87,72,30,-101,55,9,-16,-20,-39,-346
-23,-109,-86,66,32,-97,55,6,-14,-20,-44,-344
-20,-107,-87,64,34,-97,52,4,-16,-20,-49,-345
-10,-107,-97,59,44,-102,49,7,-14,-26,-50,-350
-30,-163,-133,97,51,-148,50,13,-29,-57,-83,-383
-37,-238,-201,137,82,-219,54,22,-58,-92,-127,-410
17,-227,-244,105,131,-236,60,26,-58,-79,-112,-395
13,-181,-194,84,103,-188,95,48,-15,-52,-93,-384
9,-151,-160,71,84,-156,128,83,25,-24,-73,-360
-9,-119,-110,64,51,-114,155,80,37,6,-60,-338
-36,-117,-81,76,23,-99,147,62,37,16,-65,-343
-28,-73,-45,51,9,-59,115,-4,-8,23,-47,-331
-19,-67,-48,44,15,-58,123,21,13,19,-58,-336
-64,-129,-65,97,1,-97,147,118,61,14,-76,-382
-1,-29,-28,15,14,-28,234,415,415,217,39,-319
570,453,-117,-511,343,168,-130,341,890,875,1012,593
782,902,120,-842,331,511,-720,-628,171,823,1444,1194
221,478,256,-350,-18,367,-635,-1022,-912,-313,133,194
-94,1,94,46,-94,47,-383,-738,-890,-641,-454,-452
-104,-19,84,61,-93,32,-210,-415,-430,-283,-213,-375
-71,-92,-21,82,-25,-57,-16,-74,-131,-147,-192,-398
-33,-94,-60,64,14,-77,22,-11,-40,-63,-119,-359
-55,-111,-56,83,1,-83,49,21,-30,-59,-135,-369
-56,-118,-61,87,3,-89,52,32,-11,-42,-115,-351
-56,-105,-49,81,-4,-77,56,32,-13,-37,-113,-345
-56,-111,-55,84,0,-83,62,47,0,-30,-108,-338
-52,-98,-46,75,-2,-72,63,45,3,-23,-96,-325
-45,-103,-57,74,6,-80,75,54,11,-27,-99,-323
-45,-98,-53,72,4,-75,73,48,15,-23,-91,-307
-44,-101,-57,73,6,-78,77,67,23,-26,-98,-301
-40,-100,-60,70,10,-80,73,61,25,-25,-93,-266
-40,-100,-60,70,10,-80,80,75,35,-24,-96,-255
-42,-101,-58,72,8,-79,96,88,48,-22,-92,-252
-44,-97,-53,71,4,-75,93,96,60,-14,-86,-235
-39,-89,-50,64,6,-69,90,120,83,15,-81,-223
-35,-81,-47,59,6,-63,88,130,90,32,-75,-208
-19,-61,-42,40,12,-51,83,150,117,37,-59,-195
8,-32,-40,12,24,-36,92,155,140,46,-37,-179
18,-17,-34,0,26,-25,91,178,168,69,-18,-155
25,-3,-28,-11,27,-16,79,202,204,103,10,-123
43,19,-24,-31,33,-2,71,205,224,122,38,-84
66,48,-17,-57,41,15,57,212,233,136,58,-60
85,73,-13,-79,49,30,41,193,219,147,69,-54
94,87,-7,-90,50,40,25,180,208,137,67,-47
97,92,-4,-94,50,44,19,164,193,117,59,-41
88,83,-6,-85,47,38,20,137,174,110,53,-34
71,70,-1,-71,36,34,20,120,149,105,45,-30
59,59,0,-59,29,30,20,108,123,103,41,-37
35,35,0,-35,17,18,20,85,100,90,28,-37
9,13,4,-11,2,8,20,48,70,49,5,-51
-6,0,6,2,-6,3,20,35,41,23,-18,-71
-27,-16,11,22,-18,-3,20,30,15,10,-36,-70
-39,-32,8,35,-23,-12,20,21,-9,-3,-40,-83
-46,-45,1,45,-23,-22,20,15,-20,-7,-56,-89
-47,-51,-4,49,-22,-27,19,7,-20,-13,-72,-84
-37,-46,-9,42,-14,-27,15,9,-20,-16,-68,-83
-28,-43,-15,36,-6,-29,13,10,-18,-21,-67,-79
-20,-39,-19,30,0,-29,10,10,-14,-25,-63,-77
-20,-36,-15,28,-2,-26,7,14,-15,-19,-61,-75
-18,-33,-15,26,-1,-24,5,15,-15,-14,-58,-71
-12,-26,-14,19,1,-20,2,14,-15,-9,-46,-60
-9,-19,-10,14,1,-14,-3,10,-15,-3,-31,-50
-3,-13,-10,8,4,-11,-6,10,-10,2,-20,-40
7,-5,-13,-1,10,-9,-10,8,-10,8,-29,-32
20,-1,-21,-10,21,-11,-14,4,-9,16,-37,-28
24,-4,-29,-10,27,-16,-16,6,-5,24,-35,-22
16,-9,-25,-3,20,-16,-20,1,-5,20,-33,-16
6,-11,-17,3,11,-14,-20,-5,-7,13,-30,-11
-4,-16,-12,10,4,-13,-22,-10,-14,9,-29,-6
-16,-19,-3,18,-7,-11,-26,-15,-19,2,-37,0
-15,-20,-6,18,-5,-13,-24,-22,-24,-2,-47,5
-8,-20,-12,14,2,-16,-29,-24,-30,-8,-43,11
-12,-20,-8,16,-2,-14,-30,-20,-34,-11,-40,16
-14,-20,-5,18,-4,-12,-30,-20,-35,-15,-38,22
-18,-20,-2,19,-8,-11,-35,-18,-35,-18,-35,25
-20,-20,0,20,-10,-10,-35,-14,-35,-23,-33,25
-16,-14,2,15,-9,-6,-35,-15,-35,-25,-28,27
-29,-24,6,26,-17,-9,-35,-18,-35,-20,-39,31
-36,-31,4,33,-20,-13,-35,-21,-37,-21,-47,30
-25,-25,0,25,-12,-12,-35,-20,-41,-19,-42,30
-24,-24,1,24,-12,-11,-35,-20,-40,-29,-41,38
-16,-18,-2,17,-7,-10,-34,-19,-40,-37,-36,40
-11,-15,-4,13,-3,-10,-39,-21,-44,-34,-35,40
-9,-15,-6,12,-1,-11,-40,-25,-46,-36,-38,39
-13,-15,-2,14,-5,-8,-40,-25,-50,-34,-41,47
-15,-15,0,15,-7,-7,-44,-25,-53,-37,-44,55
-14,-14,-1,14,-6,-7,-45,-24,-54,-33,-46,48
-20,-19,2,19,-11,-8,-44,-26,-57,-39,-51,41
-7,-38,-31,23,13,-35,-38,-19,-51,-52,-53,34
-22,-94,-72,58,26,-83,-35,-14,-71,-91,-81,28
-31,-167,-135,99,52,-151,-30,-3,-91,-135,-131,23
-2,-150,-148,77,73,-149,-20,-1,-76,-106,-121,28
16,-78,-94,31,55,-86,16,36,-33,-73,-85,21
30,-37,-67,4,49,-52,34,66,-13,-48,-38,52
9,-9,-19,0,14,-14,20,50,-18,-38,-25,67
-28,-16,12,22,-20,-2,12,25,-10,-36,-18,62
-46,3,49,21,-47,26,-30,-28,-26,-28,-13,71
-23,-18,5,21,-13,-7,-36,14,-4,-29,-27,44
-61,-38,23,49,-42,-8,77,157,94,13,-81,-42
134,200,66,-167,34,133,61,403,585,453,341,302
655,816,161,-736,247,488,-486,-38,675,1121,1581,1466
541,989,448,-765,46,719,-862,-891,-389,481,1257,1434
62,359,296,-211,-117,327,-613,-890,-1039,-668,-263,177
-41,61,102,-10,-72,82,-412,-603,-747,-590,-391,-114
-74,45,119,14,-97,82,-240,-293,-343,-252,-173,-29
-76,-29,47,52,-62,8,-105,-55,-123,-128,-138,-35
-67,-16,52,41,-59,18,-84,-44,-88,-70,-80,6
-70,-32,38,51,-54,3,-56,-4,-60,-80,-105,-9
-60,-21,39,41,-49,8,-62,-13,-53,-57,-75,15
-62,-27,36,44,-49,5,-50,1,-44,-66,-90,-2
-54,-25,28,39,-40,1,-47,6,-31,-53,-73,4
-52,-21,32,36,-42,5,-41,10,-29,-53,-75,-7
-56,-19,38,37,-47,9,-36,21,-21,-47,-69,-10
-61,-13,48,36,-54,18,-32,17,-20,-42,-64,-12
-55,-12,43,33,-49,15,-25,23,-13,-38,-65,-21
-52,-6,46,28,-49,20,-23,23,-11,-33,-56,-16
-48,-3,45,25,-46,21,-17,36,-2,-29,-57,-16
-36,9,45,13,-41,26,-15,41,6,-25,-49,-15
-20,26,45,-4,-33,35,-15,55,26,-18,-42,-16
-21,24,44,-2,-33,34,-15,80,46,-8,-34,-15
-26,19,46,3,-36,32,-15,90,59,3,-27,-16
-12,32,44,-11,-28,38,-15,106,85,22,-19,-8
6,52,46,-29,-21,49,-14,120,111,42,-5,2
18,78,60,-48,-22,69,-18,143,150,75,19,12
44,104,60,-74,-8,81,-22,149,170,92,37,26
57,118,61,-87,-2,89,-26,137,163,97,59,42
54,136,82,-95,-14,109,-42,134,161,103,86,61
77,168,91,-123,-7,129,-58,123,157,94,84,56
72,168,96,-120,-12,132,-64,119,153,91,79,48
59,158,99,-108,-20,128,-65,104,151,84,77,43
50,154,104,-102,-27,129,-65,82,139,79,72,34
35,145,110,-90,-38,127,-65,67,116,74,70,32
37,141,103,-89,-33,122,-65,48,84,60,59,21
25,123,99,-74,-37,111,-64,28,53,47,42,18
9,102,93,-56,-42,97,-60,7,27,32,27,11
-2,85,87,-42,-45,86,-60,-10,0,13,8,101
-14,68,82,-27,-48,75,-60,-20,-23,-8,-12,297
-20,60,80,-20,-50,70,-60,-29,-43,-20,-34,395
-23,57,80,-17,-52,68,-60,-43,-56,-33,-54,432
-27,53,80,-13,-54,66,-64,-52,-60,-41,-57,474
-30,50,80,-10,-55,65,-65,-48,-60,-40,-55,500
-36,45,80,-5,-58,62,-65,-46,-62,-40,-55,515
-37,48,85,-6,-61,66,-70,-42,-66,-40,-51,522
-27,57,85,-16,-56,71,-69,-40,-65,-40,-50,543
-26,60,86,-17,-56,73,-71,-37,-62,-40,-50,554
-30,60,90,-15,-60,75,-75,-35,-56,-35,-45,568
-31,59,90,-14,-61,75,-75,-35,-51,-31,-41,586
-14,73,88,-30,-51,80,-75,-32,-48,-29,-39,592
-4,81,84,-39,-44,82,-75,-29,-42,-25,-35,600
-13,72,85,-30,-49,79,-83,-32,-41,-20,-30,604
-11,70,81,-30,-46,76,-86,-47,-45,-22,-32,597
-15,64,79,-24,-48,71,-85,-51,-47,-27,-36,592
-19,61,81,-21,-50,71,-85,-49,-50,-31,-38,587
-17,62,79,-22,-48,70,-85,-55,-53,-34,-41,581
-16,70,86,-27,-52,77,-84,-54,-56,-37,-44,576
-16,76,92,-30,-54,83,-81,-57,-59,-40,-47,571
-14,73,87,-29,-51,79,-78,-60,-61,-42,-49,564
-16,70,85,-28,-50,77,-75,-60,-67,-46,-53,557
-15,66,81,-26,-49,73,-73,-60,-74,-50,-55,551
-14,65,79,-26,-47,72,-69,-60,-75,-50,-55,544
-27,57,84,-15,-56,70,-72,-64,-75,-51,-58,538
-18,67,85,-25,-52,76,-76,-65,-75,-55,-61,534
-9,76,85,-34,-47,80,-74,-65,-75,-54,-59,528
-19,66,85,-24,-52,75,-79,-70,-76,-58,-60,524
-21,64,85,-22,-53,75,-80,-70,-80,-60,-60,520
-26,58,84,-16,-56,71,-80,-71,-80,-62,-60,515
-31,54,85,-12,-59,70,-84,-75,-84,-65,-68,511
-18,66,84,-24,-51,75,-85,-75,-85,-65,-71,507
-15,71,85,-28,-50,77,-84,-75,-85,-69,-69,504
-30,70,99,-20,-65,84,-85,-75,-90,-70,-67,500
-30,71,101,-20,-65,85,-85,-75,-90,-70,-63,496
-17,69,86,-26,-52,77,-83,-72,-91,-77,-67,493
-11,72,82,-31,-47,77,-77,-67,-96,-73,-67,480
-22,47,69,-13,-46,58,-72,-64,-99,-81,-77,460
-24,13,37,5,-31,25,-70,-61,-107,-106,-102,456
-23,-53,-31,38,4,-42,-62,-57,-138,-149,-146,453
-19,-95,-76,57,29,-85,-62,-52,-136,-167,-155,457
-12,-36,-23,24,6,-29,-35,-26,-85,-123,-113,453
-5,3,8,1,-7,5,0,5,-54,-96,-87,455
-14,52,65,-19,-40,58,30,1,-45,-90,-76,455
-5,95,100,-45,-53,97,10,-28,-51,-84,-76,441
-29,96,126,-34,-78,111,-64,-83,-78,-71,-53,442
-52,94,146,-22,-99,120,-56,-56,-65,-70,-63,415
-48,92,139,-22,-94,115,2,24,-35,-62,-92,422
-7,147,154,-70,-81,150,110,315,291,120,-23,448
510,623,113,-567,199,367,-227,263,783,806,945,1278
805,1115,309,-960,248,712,-861,-688,182,881,1536,2004
301,668,367,-485,-33,518,-834,-1148,-940,-301,241,1047
-48,172,220,-62,-134,196,-558,-868,-1000,-722,-447,321
-76,140,216,-32,-146,177,-354,-513,-519,-337,-211,372
-68,81,149,-7,-109,115,-153,-165,-218,-209,-198,344
-43,89,132,-23,-88,111,-109,-84,-120,-129,-115,387
-49,79,128,-16,-88,103,-80,-65,-115,-124,-132,360
-43,72,115,-15,-79,93,-73,-50,-96,-111,-114,365
-43,71,115,-14,-79,93,-63,-50,-97,-105,-111,357
-39,61,100,-12,-70,80,-51,-34,-86,-102,-110,348
-37,68,105,-16,-71,86,-49,-34,-81,-89,-96,350
-41,62,103,-11,-73,83,-41,-22,-76,-90,-105,341
-40,67,107,-14,-74,87,-40,-19,-68,-82,-96,348
-46,64,110,-9,-79,87,-33,-10,-64,-87,-103,338
-44,65,109,-10,-77,87,-30,-4,-55,-80,-98,341
-42,69,111,-14,-77,90,-26,2,-50,-80,-101,339
-58,69,127,-6,-92,98,-23,10,-41,-80,-98,340
-58,74,131,-8,-95,102,-21,23,-27,-73,-91,340
-56,73,129,-9,-93,101,-17,37,-14,-65,-84,339
-52,78,131,-13,-92,104,-14,49,8,-56,-78,340
-33,96,129,-31,-82,113,-17,63,32,-38,-68,338
-24,107,131,-42,-78,118,-20,87,60,-12,-47,344
-15,121,136,-53,-76,128,-19,115,94,15,-28,362
10,143,133,-77,-62,138,-24,130,126,38,-3,368
30,172,142,-101,-56,157,-25,127,153,57,27,363
39,197,158,-118,-59,178,-25,119,154,62,40,361
59,223,164,-141,-53,193,-36,112,145,58,48,358
54,225,170,-140,-59,197,-48,104,137,56,46,355
58,228,170,-143,-57,198,-57,98,129,52,37,354
67,237,170,-152,-51,203,-60,84,121,51,32,345
50,220,170,-135,-61,195,-61,61,103,46,23,334
33,203,170,-118,-69,186,-65,35,73,29,16,326
14,183,168,-99,-77,175,-65,8,39,13,9,308
-1,162,163,-81,-82,162,-72,-19,6,-10,-7,287
-10,151,160,-70,-85,155,-80,-42,-24,-33,-28,267
-12,144,156,-66,-84,150,-80,-65,-48,-51,-53,247
-15,137,152,-61,-84,144,-80,-84,-76,-72,-68,231
-20,129,149,-54,-85,139,-80,-89,-91,-82,-76,215
-23,123,146,-50,-84,134,-81,-90,-99,-89,-90,210
-29,116,145,-44,-87,130,-77,-90,-106,-95,-95,208
-31,114,145,-42,-88,130,-75,-90,-105,-95,-95,204
-35,111,145,-39,-90,128,-75,-90,-105,-93,-94,201
-35,108,144,-37,-90,126,-75,-90,-105,-90,-90,199
-48,105,154,-29,-101,129,-75,-89,-105,-90,-90,204
-57,104,161,-23,-110,132,-75,-86,-102,-88,-87,205
-33,122,155,-45,-94,138,-80,-85,-96,-84,-85,210
-20,133,153,-56,-87,142,-80,-85,-91,-82,-85,209
-13,135,148,-62,-81,141,-81,-85,-88,-79,-85,204
1,146,145,-74,-72,145,-85,-85,-82,-76,-85,205
-6,142,149,-68,-78,145,-85,-87,-81,-75,-85,205
-11,139,150,-64,-81,144,-85,-90,-85,-75,-89,205
-14,136,150,-61,-82,142,-85,-93,-85,-88,-90,205
-19,131,150,-56,-85,140,-85,-96,-90,-97,-90,202
-20,130,150,-55,-85,140,-85,-99,-90,-97,-90,197
-20,130,150,-55,-85,140,-85,-100,-94,-101,-89,194
-20,130,150,-55,-85,140,-85,-100,-95,-104,-92,191
-20,130,150,-55,-85,140,-80,-100,-97,-105,-97,186
-20,130,150,-55,-85,140,-80,-99,-100,-105,-100,184
-20,130,150,-55,-85,140,-80,-102,-101,-105,-105,179
-20,130,150,-55,-85,140,-80,-106,-105,-104,-105,176
-24,130,153,-54,-89,141,-80,-104,-104,-107,-106,173
-25,130,155,-53,-90,142,-80,-109,-107,-110,-110,168
-25,130,155,-53,-90,142,-80,-110,-111,-110,-109,165
-25,130,155,-53,-90,142,-80,-110,-110,-114,-112,161
-27,128,155,-51,-91,141,-80,-115,-110,-116,-116,159
-30,125,154,-48,-92,139,-79,-115,-110,-115,-115,159
-24,125,149,-50,-87,136,-80,-115,-110,-115,-119,155
-21,125,146,-53,-84,136,-84,-114,-110,-115,-120,155
-18,124,142,-54,-80,133,-85,-115,-109,-115,-120,154
-13,126,139,-57,-76,132,-84,-115,-112,-115,-124,145
-15,120,135,-53,-75,127,-85,-115,-115,-115,-125,136
-19,112,131,-47,-75,122,-85,-115,-115,-116,-124,128
-21,102,123,-40,-72,112,-82,-114,-121,-131,-128,117
-19,62,81,-22,-51,71,-80,-123,-144,-161,-150,103
-47,4,51,21,-49,27,-76,-119,-163,-209,-201,66
-65,-17,48,41,-56,15,-75,-111,-156,-226,-205,59
-30,24,54,3,-42,39,-46,-87,-121,-184,-172,89
7,72,65,-40,-29,68,0,-51,-81,-145,-144,117
-6,119,125,-57,-66,122,26,-42,-67,-124,-115,137
-49,132,180,-42,-115,156,3,-58,-84,-128,-123,136
-53,146,199,-47,-126,172,-70,-127,-125,-121,-100,136
-43,146,190,-52,-117,168,-78,-107,-96,-128,-115,109
-53,95,148,-22,-101,122,-16,-28,-65,-125,-146,112
-35,152,187,-59,-112,169,110,275,215,21,-101,108
430,596,166,-513,132,381,-182,312,759,623,716,829
829,1085,256,-957,287,670,-829,-649,255,757,1348,1589
371,725,354,-548,8,539,-855,-1232,-927,-313,227,765
-49,230,279,-90,-164,254,-581,-973,-1065,-750,-494,34
-86,193,279,-53,-183,236,-374,-580,-569,-385,-273,81
-82,144,226,-31,-155,185,-159,-214,-257,-264,-249,54
-41,146,188,-53,-115,167,-113,-127,-144,-193,-174,97
-46,138,184,-46,-116,161,-86,-98,-126,-188,-181,80
-47,129,176,-41,-112,152,-73,-79,-107,-178,-174,85
-56,126,182,-35,-119,154,-69,-81,-106,-168,-172,87
-51,121,172,-35,-112,146,-58,-63,-97,-165,-179,81
-37,140,177,-52,-107,158,-57,-65,-91,-153,-170,86
-41,132,173,-45,-108,152,-45,-51,-86,-155,-179,73
-47,137,185,-45,-116,161,-44,-49,-78,-147,-166,77
-52,133,185,-41,-119,159,-37,-40,-73,-147,-173,69
-48,136,184,-44,-117,160,-35,-34,-65,-140,-166,67
-53,132,186,-40,-120,159,-32,-29,-60,-139,-165,66
-61,122,184,-31,-123,153,-27,-20,-52,-128,-166,70
-53,146,200,-47,-127,173,-25,-5,-43,-115,-160,71
-48,158,206,-56,-128,182,-20,14,-22,-104,-151,74
-53,151,204,-49,-129,177,-20,30,3,-91,-142,75
-36,169,205,-67,-121,187,-18,44,21,-80,-134,78
-16,188,204,-86,-111,196,-14,65,44,-63,-119,92
-8,197,205,-95,-107,201,-15,93,77,-41,-98,113
11,222,211,-117,-100,216,-16,110,103,-26,-76,135
31,251,219,-141,-94,235,-25,109,130,-46,-52,161
41,271,230,-156,-95,250,-29,100,149,-78,-36,180
55,298,242,-176,-94,270,-43,95,143,-102,-32,211
67,305,238,-186,-86,271,-50,87,133,-129,-27,199
54,296,241,-175,-94,268,-51,82,120,-143,-23,217
45,292,247,-169,-102,269,-73,73,93,-145,-19,200
