I,II,III,aVR,aVL,aVF,V1,V2,V3,V4,V5,V6
361,216,-145,-288,253,35,-658,-524,84,494,892,613
442,-558,-1000,58,722,-779,-635,-460,17,-46,268,-25
488,-1481,-1970,496,1229,-1725,-517,-424,-150,-853,-511,-751
478,-1434,-1912,478,1195,-1673,-405,-412,-256,-974,-605,-784
384,-1181,-1565,399,975,-1373,-357,-399,-364,-933,-573,-720
245,-925,-1170,340,708,-1047,-193,-281,-304,-752,-404,-551
105,-589,-693,242,399,-641,-58,-156,-205,-474,-145,-330
-79,-286,-207,183,64,-246,33,-72,-112,-238,83,-155
-120,-108,11,114,-65,-48,91,-11,-47,-122,211,-69
-118,-85,33,101,-76,-26,101,-13,-33,-92,249,-50
-188,-80,108,134,-148,14,114,-2,-12,-49,299,-45
-154,-61,93,107,-124,16,128,-4,-12,-54,287,-104
-172,-42,130,107,-151,43,143,-8,3,-34,316,-101
-192,-48,144,120,-168,47,139,34,4,-30,349,-61
-198,-55,143,126,-170,44,155,54,28,-24,351,14
-178,-38,140,108,-159,51,177,47,43,-26,333,39
-135,-4,131,69,-132,63,174,59,49,-3,351,27
-166,5,171,80,-169,88,176,94,91,42,397,28
-136,55,191,41,-164,123,174,113,116,61,415,18
-144,102,246,21,-196,174,180,153,159,105,450,28
-173,127,300,22,-237,214,207,214,230,182,511,50
-145,194,339,-25,-242,266,212,259,293,263,578,94
-99,265,363,-83,-231,314,209,285,332,312,614,127
-101,291,392,-95,-247,341,208,320,393,380,678,178
-90,319,409,-115,-250,364,203,343,431,437,733,232
-27,345,372,-159,-200,358,207,312,405,426,732,219
-32,314,347,-141,-190,330,182,280,373,409,724,209
-38,270,308,-116,-173,289,152,237,317,360,697,177
-47,208,255,-81,-152,232,139,182,253,282,642,125
-72,143,215,-35,-144,178,127,128,185,200,553,84
-70,113,183,-22,-127,148,114,68,112,130,498,32
-80,76,155,2,-118,115,89,33,63,80,460,-5
-115,28,143,43,-129,85,96,24,46,45,420,-12
-74,47,121,13,-98,84,118,26,42,35,412,-16
-76,29,105,23,-91,67,113,25,33,35,408,-46
-176,-41,135,108,-155,47,116,25,28,34,409,-67
-152,-10,142,81,-147,66,115,25,19,36,414,-80
-126,11,138,57,-132,74,111,28,25,34,413,-85
-151,-19,131,85,-141,55,110,34,41,36,418,-83
-153,-26,127,89,-139,51,108,37,39,44,448,-95
-135,-15,121,75,-128,53,104,42,44,47,467,-92
-116,8,124,54,-120,65,108,47,51,31,477,-86
-141,10,151,65,-146,80,132,54,49,30,490,-83
-122,3,125,59,-123,64,134,55,50,63,497,-77
-136,-15,120,75,-128,52,126,55,52,71,500,-74
-152,2,153,75,-153,77,125,59,50,62,510,-68
-101,33,134,34,-118,83,118,60,45,58,520,-63
-95,30,124,32,-110,77,116,59,44,76,510,-56
-153,16,168,68,-161,92,109,47,37,87,502,-51
-197,-17,180,107,-189,81,111,38,36,75,500,-34
-130,31,161,50,-146,96,101,21,37,61,484,-30
-132,54,186,39,-159,120,110,33,51,82,525,5
-151,59,210,46,-181,134,130,80,92,130,587,58
-92,86,178,3,-136,131,130,77,96,137,581,54
-103,78,181,12,-142,130,145,72,89,141,575,44
-110,141,252,-16,-181,196,128,68,90,136,574,41
-104,138,242,-17,-174,190,100,40,64,115,565,28
-109,104,213,3,-161,158,93,7,53,104,567,30
-101,109,210,-4,-155,159,96,-9,59,96,575,48
-117,71,189,23,-153,130,93,18,62,91,577,48
-147,34,181,56,-164,108,90,45,66,86,561,26
-144,8,152,68,-148,80,83,37,54,76,559,15
-140,1,141,69,-141,71,79,41,48,72,562,17
-147,-5,142,76,-144,68,77,36,37,68,552,10
-163,-24,139,93,-151,57,65,32,37,72,561,24
-142,-24,118,82,-130,47,84,41,45,68,546,28
-92,4,96,44,-94,49,58,14,43,70,570,75
-171,-1,170,86,-171,85,129,65,57,66,571,100
-247,103,350,71,-299,226,168,61,21,80,594,142
-164,181,345,-9,-255,263,220,221,202,322,834,313
-12,329,341,-159,-177,335,216,349,427,743,1261,608
232,333,101,-282,65,217,-181,23,391,885,1420,734
408,-628,-1036,111,722,-832,-426,-229,216,200,671,47
456,-1409,-1866,477,1161,-1637,-456,-412,-180,-748,-188,-619
424,-1373,-1796,475,1110,-1584,-426,-497,-407,-996,-361,-641
272,-1137,-1409,433,841,-1273,-327,-428,-399,-890,-273,-562
199,-809,-1008,305,604,-908,-197,-294,-313,-686,-82,-379
78,-487,-566,205,322,-526,-18,-87,-128,-343,203,-141
-101,-165,-64,133,-18,-114,86,17,-23,-115,416,27
-156,-53,103,105,-130,25,145,88,38,5,518,112
-156,6,162,75,-159,83,142,113,62,33,564,136
-148,39,187,54,-168,113,132,104,67,44,560,137
-157,0,157,78,-157,78,129,106,80,63,556,131
-156,57,212,49,-184,134,128,98,62,74,566,144
-191,52,243,69,-217,147,127,95,54,101,542,166
-192,36,228,78,-210,131,148,106,80,86,553,219
-190,62,252,64,-221,156,175,114,94,103,579,247
-204,72,276,65,-240,174,168,142,121,120,598,253
-164,126,290,19,-228,208,176,150,142,103,636,299
-164,166,330,-1,-247,247,173,164,164,149,673,316
-166,181,347,-7,-257,264,185,212,218,205,728,349
-171,221,392,-25,-281,306,201,247,269,261,782,377
-159,296,456,-69,-308,376,193,291,322,332,845,356
-122,380,502,-129,-313,441,188,317,373,404,920,403
-127,387,515,-130,-321,451,183,341,415,479,980,475
-77,422,500,-173,-289,461,176,343,441,497,994,510
-39,457,496,-210,-268,477,165,322,436,509,988,567
-71,403,474,-166,-273,438,152,297,380,504,952,580
-80,357,437,-139,-258,397,139,252,329,440,888,565
-101,294,395,-97,-249,345,124,202,277,374,829,542
-87,228,315,-71,-201,271,115,153,201,296,741,468
-85,191,276,-53,-181,233,115,109,150,217,662,407
-122,142,265,-10,-193,203,115,75,111,176,624,373
-113,116,229,-1,-172,172,115,69,94,133,581,360
-112,115,227,-2,-170,171,115,71,86,103,530,359
-109,112,221,-2,-165,167,114,69,75,100,503,361
-114,110,224,2,-169,167,110,71,70,75,473,357
-128,108,237,10,-183,172,107,69,62,82,438,372
-122,104,226,9,-174,164,103,64,57,98,400,425
-132,94,226,19,-179,159,100,59,48,66,361,449
-104,108,212,-2,-158,160,94,54,47,71,333,476
-96,136,232,-20,-164,184,100,48,68,99,323,537
-133,134,267,-1,-201,201,116,41,76,106,316,584
-132,130,262,0,-197,196,115,44,74,120,291,602
-131,129,260,1,-195,194,115,54,75,129,253,610
-124,124,248,-1,-186,186,115,60,71,130,232,616
-128,126,254,1,-192,190,115,67,69,130,223,609
-138,133,271,3,-205,201,113,63,65,130,194,607
-111,138,249,-14,-180,193,109,60,64,129,176,599
-85,145,230,-30,-158,187,110,58,59,133,167,608
-99,147,246,-24,-173,197,109,53,63,147,153,649
-104,143,246,-20,-175,194,111,59,75,151,146,650
-77,177,254,-51,-166,215,108,62,74,148,142,655
-63,220,283,-79,-173,252,116,74,81,157,140,670
-86,225,311,-69,-199,268,114,73,92,175,135,671
-104,212,316,-54,-210,263,92,37,84,172,132,661
-95,198,293,-52,-194,245,78,21,58,154,127,615
-68,203,271,-68,-170,237,69,22,44,140,126,591
-66,192,258,-63,-162,225,71,14,41,128,121,583
-111,155,265,-22,-188,210,68,22,34,128,121,576
-117,101,218,8,-168,159,72,48,33,118,115,562
-84,94,179,-5,-132,136,68,32,24,89,114,543
-74,99,174,-13,-124,136,70,29,27,75,135,522
-81,84,165,-2,-123,125,63,30,23,72,146,506
-65,87,152,-11,-109,120,64,29,27,73,147,495
-81,81,162,0,-122,121,62,32,23,63,141,479
-98,101,199,-1,-149,150,54,25,26,71,145,490
-122,92,214,15,-168,153,119,41,24,57,106,455
-137,187,324,-26,-231,255,124,58,41,128,171,517
-69,269,338,-100,-203,303,213,278,269,433,440,693
81,441,361,-261,-140,401,85,230,387,828,864,1020
334,228,-106,-281,220,61,-360,-175,269,764,789,949
500,-835,-1334,168,917,-1084,-501,-362,27,-103,-133,123
515,-1366,-1881,426,1198,-1623,-460,-458,-273,-816,-742,-304
469,-1195,-1664,363,1066,-1429,-421,-457,-391,-891,-808,-268
333,-950,-1283,309,808,-1116,-320,-387,-377,-793,-754,-203
194,-639,-833,223,514,-736,-144,-231,-250,-548,-538,-39
44,-331,-376,144,210,-353,6,-62,-104,-265,-296,117
-83,-79,4,81,-44,-37,97,-1,-21,-86,-102,247
-82,10,92,36,-87,51,137,41,12,-15,-29,258
-106,68,174,19,-140,121,116,32,20,15,9,237
-117,98,215,9,-167,156,108,31,32,42,30,221
-114,96,209,9,-162,152,103,30,33,39,20,209
-138,101,239,18,-189,170,105,21,36,41,19,244
-144,95,239,24,-191,166,114,35,36,45,-3,286
-134,78,212,28,-173,144,119,60,52,44,-26,304
-106,82,188,12,-147,135,106,69,58,46,-24,299
-118,127,245,-5,-182,186,97,70,62,53,5,293
-127,138,265,-6,-196,201,90,94,93,70,42,288
-130,170,300,-20,-215,235,110,125,133,116,102,283
-98,228,326,-65,-212,277,136,147,169,159,145,274
-91,263,355,-86,-223,309,134,192,223,216,198,283
-58,323,381,-133,-220,352,136,228,269,283,268,303
-65,377,442,-156,-253,409,134,261,320,345,333,341
-110,415,525,-152,-318,470,129,282,361,403,391,401
-61,436,497,-188,-279,466,132,278,370,429,397,464
-36,427,464,-196,-250,445,123,264,348,427,388,493
-1,418,419,-208,-211,418,85,210,283,390,351,479
-13,358,372,-173,-193,365,63,156,228,319,286,460
-51,293,344,-122,-198,318,63,110,165,248,217,411
-51,255,306,-102,-179,280,55,64,105,184,139,343
-15,193,208,-89,-112,200,40,25,55,116,65,266
-42,150,192,-54,-117,171,24,0,14,50,4,197
-82,127,209,-23,-145,168,19,-25,-24,26,-52,153
-66,108,174,-22,-120,141,24,-43,-48,19,-79,135
-77,102,179,-13,-128,141,24,-38,-44,-18,-86,132
-37,97,135,-30,-86,116,32,-41,-50,-32,-88,124
-39,93,133,-27,-86,113,45,-40,-50,-28,-78,117
-69,89,158,-10,-114,123,45,-40,-50,-28,-73,113
-66,84,150,-9,-108,116,45,-44,-50,-24,-65,98
-55,94,149,-20,-102,121,45,-46,-51,-26,-62,80
-29,116,145,-44,-87,130,45,-45,-50,-20,-41,84
-16,122,138,-53,-77,130,43,-45,-52,-20,-20,89
-35,118,153,-41,-94,136,37,-45,-47,-19,-9,80
-37,122,159,-43,-98,140,32,-44,-46,-9,-9,83
-19,118,137,-50,-78,127,29,-36,-44,-1,3,107
-57,121,178,-32,-118,149,22,-27,-28,12,12,103
-61,109,169,-24,-115,139,22,-55,-60,2,-14,94
-19,90,109,-36,-64,100,5,-65,-71,-12,3,85
-13,141,154,-65,-84,147,0,-54,-57,-4,19,77
-57,162,219,-53,-138,190,25,-51,-54,-1,40,97
-74,153,227,-40,-151,190,19,-44,-45,6,61,77
-51,169,220,-59,-135,194,8,-51,-50,10,55,57
-65,155,220,-45,-143,187,1,-54,-51,19,64,57
-33,183,216,-76,-125,199,-10,-58,-55,23,70,49
3,215,212,-109,-105,213,-19,-64,-57,9,64,48
-21,195,216,-87,-119,205,-30,-70,-68,-6,54,39
-5,179,184,-88,-94,181,-45,-85,-71,-25,45,49
6,156,150,-81,-73,153,-41,-84,-64,-25,36,54
-5,137,143,-66,-74,140,-14,-84,-78,-29,18,33
-21,100,121,-39,-72,110,6,-85,-80,-54,-9,13
-32,61,93,-15,-63,77,14,-86,-80,-71,-13,2
-30,37,67,-4,-49,52,14,-84,-79,-85,-26,-27
-50,44,94,3,-73,69,7,-86,-81,-84,-18,-43
-38,47,85,-4,-62,66,6,-82,-85,-95,-21,-75
-31,40,72,-5,-52,56,0,-77,-81,-110,-21,-94
-15,53,69,-19,-42,61,4,-74,-95,-103,-23,-90
-58,55,113,1,-86,84,49,-71,-121,-115,-74,-109
-100,161,261,-31,-181,210,77,-9,-43,15,74,31
-6,241,247,-118,-127,244,120,173,177,351,400,246
173,482,309,-328,-68,395,-169,-62,174,705,820,586
427,162,-264,-295,345,-51,-641,-506,-59,411,566,361
542,-1024,-1566,241,1054,-1295,-629,-491,-161,-489,-381,-542
565,-1440,-2004,438,1285,-1722,-462,-432,-239,-933,-773,-860
515,-1204,-1719,344,1117,-1461,-432,-458,-382,-964,-797,-829
386,-992,-1378,303,882,-1185,-337,-384,-403,-897,-749,-769
278,-670,-949,196,614,-809,-184,-256,-302,-666,-537,-578
88,-356,-444,134,266,-400,-70,-146,-209,-423,-312,-404
-24,-125,-101,75,39,-113,0,-80,-140,-252,-137,-254
-76,-49,27,62,-51,-11,37,-48,-107,-181,-84,-227
-138,-21,116,79,-127,47,53,-49,-98,-160,-67,-234
-133,-14,119,74,-126,52,62,-40,-92,-156,-37,-250
-129,-8,121,69,-125,56,58,-34,-88,-149,-6,-246
-107,12,119,48,-113,65,61,-28,-81,-142,1,-214
-104,17,121,44,-113,68,60,-20,-76,-136,-8,-182
-82,37,119,23,-101,78,60,-16,-71,-132,-27,-145
-47,54,101,-4,-74,77,64,-7,-59,-128,-17,-128
-92,55,147,18,-120,101,70,6,-45,-118,9,-119
-108,66,174,21,-141,120,80,46,-16,-92,21,-114
-118,96,214,11,-166,155,88,73,32,-48,43,-131
-103,150,253,-24,-179,201,98,92,63,-5,57,-142
-68,208,276,-70,-172,241,96,138,122,67,117,-135
-55,279,334,-112,-195,306,101,166,175,137,188,-119
-29,351,380,-161,-205,365,123,194,222,198,235,-67
-13,375,388,-181,-200,381,118,217,273,261,294,5
-1,385,386,-192,-194,385,115,216,260,284,308,72
-9,373,382,-182,-196,377,111,206,244,266,294,100
-3,324,327,-161,-165,325,82,166,217,223,268,96
-27,273,300,-123,-164,286,59,102,140,159,209,59
25,222,198,-124,-87,210,37,47,58,81,130,-33
28,172,144,-100,-58,157,32,24,19,29,52,-88
-48,117,165,-34,-107,141,50,-8,-34,-33,0,-119
14,71,57,-43,-22,64,37,-58,-110,-110,-58,-191
-14,41,55,-13,-35,48,26,-83,-119,-135,-83,-222
-76,28,103,24,-90,65,33,-75,-113,-144,-81,-216
-32,24,56,3,-45,40,33,-69,-117,-160,-98,-218
-31,25,56,3,-44,40,38,-56,-113,-158,-67,-207
-47,26,73,11,-60,49,40,-56,-116,-154,-59,-217
4,23,19,-14,-8,21,44,-78,-113,-151,-85,-256
-6,28,34,-11,-21,31,45,-67,-110,-146,-68,-260
-63,8,70,27,-67,39,40,-63,-110,-144,-59,-248
-36,21,57,7,-47,39,37,-67,-108,-138,-58,-257
-3,53,56,-25,-30,54,33,-64,-105,-132,-54,-248
-9,42,51,-16,-31,46,30,-66,-105,-127,-52,-215
-6,39,45,-17,-26,42,25,-64,-101,-121,-50,-189
-9,32,41,-12,-25,36,25,-66,-100,-116,-47,-183
-44,28,72,8,-58,50,25,-64,-100,-116,-45,-190
-38,19,58,9,-48,38,25,-65,-95,-114,-45,-188
-13,32,45,-10,-29,38,25,-65,-95,-120,-40,-201
-7,65,72,-30,-39,68,24,-65,-94,-129,-41,-226
-1,56,57,-28,-29,56,26,-61,-87,-117,-38,-225
-32,56,88,-13,-60,72,31,-60,-83,-108,-36,-225
-47,57,105,-6,-76,81,45,-59,-77,-97,-30,-225
-44,59,104,-8,-74,81,57,-56,-72,-87,-21,-224
-29,71,99,-21,-64,85,44,-50,-65,-78,-7,-228
-11,89,100,-39,-56,95,30,-50,-75,-68,13,-229
-41,130,171,-45,-107,150,23,-83,-106,-82,7,-231
-11,107,117,-48,-64,112,13,-101,-122,-108,-24,-217
36,73,37,-54,-1,55,-5,-98,-124,-121,-48,-199
26,76,51,-51,-13,63,-17,-102,-126,-119,-39,-191
5,34,28,-20,-12,31,-8,-97,-130,-117,-46,-190
-22,-1,21,11,-22,10,5,-95,-129,-112,-52,-181
-68,-4,64,36,-66,30,25,-96,-128,-128,-55,-193
-76,-39,37,57,-56,-1,45,-91,-145,-170,-92,-237
-28,-39,-11,34,-8,-25,35,-91,-145,-161,-79,-260
-48,-60,-12,54,-18,-36,44,-91,-137,-166,-90,-308
-60,-52,8,56,-34,-22,36,-111,-142,-159,-81,-292
-38,-30,9,34,-23,-10,43,-83,-127,-157,-86,-282
-73,1,74,36,-73,37,72,-74,-153,-172,-88,-252
-46,113,160,-34,-103,136,102,31,-29,25,102,-63
77,234,157,-156,-40,195,91,144,169,400,475,213
299,422,124,-361,88,273,-320,-251,53,614,781,476
504,-255,-759,-125,632,-507,-670,-574,-147,14,167,-83
564,-1343,-1908,390,1237,-1625,-540,-489,-248,-847,-727,-943
563,-1460,-2023,449,1293,-1741,-427,-452,-341,-1058,-907,-1090
499,-1220,-1719,361,1109,-1470,-389,-447,-440,-1040,-904,-1050
395,-967,-1363,286,879,-1165,-261,-366,-423,-900,-785,-916
245,-638,-884,197,564,-761,-114,-219,-293,-632,-547,-684
58,-331,-388,137,223,-359,-9,-130,-211,-395,-326,-469
-29,-142,-113,86,43,-127,56,-81,-152,-250,-174,-334
-20,-92,-73,56,27,-82,71,-59,-130,-214,-140,-328
-44,-57,-14,51,-15,-36,70,-61,-126,-189,-109,-322
-69,-54,15,62,-42,-19,70,-54,-119,-185,-81,-329
-84,-46,37,65,-60,-5,70,-55,-115,-177,-74,-337
-80,-39,41,59,-60,1,70,-49,-108,-170,-75,-327
-63,-32,31,47,-47,0,69,-48,-103,-164,-80,-297
-76,-17,59,47,-67,20,96,-20,-75,-138,-79,-261
-69,-13,56,41,-63,21,113,9,-45,-111,-72,-234
-92,-14,78,53,-85,31,109,16,-35,-100,-72,-224
-100,49,148,25,-124,98,110,45,-16,-81,-38,-216
-74,104,178,-15,-126,141,113,68,19,-47,-12,-209
-50,121,171,-36,-110,145,122,91,76,16,16,-199
-46,184,230,-70,-138,207,133,142,136,90,76,-185
-59,260,319,-101,-189,289,133,172,179,145,122,-145
-33,311,344,-140,-188,327,144,206,235,224,194,-84
-8,340,349,-166,-179,344,154,222,256,271,242,-22
10,355,345,-183,-168,350,137,204,248,279,251,43
14,336,322,-175,-154,329,127,189,235,277,258,46
14,283,269,-149,-128,276,119,150,196,234,224,16
45,217,173,-131,-64,194,93,93,122,149,142,-48
35,152,116,-94,-41,134,74,33,46,68,61,-135
33,110,78,-72,-23,94,75,-15,5,9,-4,-186
36,71,35,-53,0,53,75,-41,-42,-52,-63,-238
5,33,28,-19,-12,30,78,-60,-80,-99,-101,-270
15,9,-5,-12,10,2,81,-56,-94,-121,-126,-270
-8,-3,4,5,-6,1,79,-50,-100,-133,-131,-270
-11,-27,-15,19,2,-21,75,-42,-95,-127,-130,-266
-24,-37,-13,31,-6,-25,75,-35,-87,-123,-137,-259
-56,-20,36,38,-45,8,73,-63,-109,-147,-133,-277
-5,-32,-27,19,11,-30,71,-66,-116,-151,-131,-296
18,-34,-52,9,35,-43,69,-63,-94,-147,-117,-306
-22,-4,18,13,-20,7,75,-73,-92,-145,-80,-307
-48,3,51,22,-50,27,86,-64,-86,-128,-58,-292
-24,-10,14,17,-19,2,80,-63,-83,-104,-61,-260
-47,-16,31,32,-39,7,75,-61,-77,-87,-59,-219
-51,-7,45,29,-48,19,71,-53,-75,-89,-53,-213
-21,9,30,6,-26,19,66,-57,-90,-86,-59,-218
-38,-11,26,24,-32,8,62,-36,-90,-77,-43,-209
-39,-25,14,32,-26,-5,60,-46,-89,-96,-44,-223
-1,-3,-2,2,0,-2,60,-76,-86,-114,-65,-257
-2,-1,1,1,-1,0,56,-53,-84,-93,-47,-253
-23,24,47,0,-36,36,55,-48,-85,-78,-37,-241
4,73,70,-39,-33,71,55,-45,-66,-70,-29,-235
-17,90,107,-37,-63,98,66,-40,-58,-41,-4,-204
7,116,110,-62,-52,113,53,-39,-66,-34,17,-190
19,119,100,-69,-41,109,27,-50,-72,-54,11,-195
-25,74,99,-25,-62,86,25,-73,-90,-58,7,-194
3,95,92,-49,-45,93,21,-70,-98,-64,1,-190
5,92,87,-48,-41,89,21,-88,-102,-65,-6,-190
8,52,44,-30,-18,47,23,-88,-105,-65,-7,-209
-8,38,46,-15,-27,42,32,-69,-108,-88,-30,-224
-10,-8,2,9,-6,-3,34,-68,-111,-96,-30,-228
11,-46,-57,18,34,-52,37,-61,-102,-99,-49,-236
6,-30,-36,12,21,-33,32,-70,-109,-93,-54,-222
-1,-32,-31,17,15,-31,38,-60,-98,-86,-68,-223
-2,-24,-22,13,10,-23,32,-71,-104,-86,-82,-214
7,-11,-18,3,12,-14,42,-54,-95,-69,-77,-207
-81,5,86,38,-84,45,79,-45,-116,-85,-94,-197
-67,116,182,-25,-125,149,98,8,-52,35,41,-78
64,223,159,-143,-48,190,146,177,183,387,384,150
218,410,192,-314,12,301,-158,-92,129,639,698,439
468,-144,-611,-162,539,-377,-570,-509,-111,129,179,-40
595,-1264,-1859,335,1228,-1561,-573,-559,-322,-824,-791,-955
570,-1523,-2093,477,1332,-1808,-483,-533,-482,-1157,-1073,-1149
481,-1286,-1767,403,1124,-1526,-418,-503,-502,-1073,-1006,-1049
350,-1004,-1354,327,852,-1179,-282,-400,-438,-901,-861,-897
238,-660,-898,211,568,-778,-128,-234,-299,-605,-602,-665
73,-325,-398,126,236,-362,-18,-119,-196,-341,-343,-451
-28,-115,-87,72,29,-100,44,-57,-132,-181,-177,-323
-27,-65,-38,46,6,-51,67,-30,-105,-129,-131,-298
-80,-35,44,57,-62,4,78,-31,-97,-101,-99,-274
-114,-35,78,74,-96,22,59,-29,-93,-98,-97,-282
-116,-25,91,70,-103,33,38,-31,-96,-95,-92,-281
-111,-20,91,65,-101,36,40,-30,-94,-91,-86,-260
-100,-12,88,56,-94,38,45,-29,-90,-87,-84,-212
-94,-1,93,47,-93,46,65,-21,-66,-69,-77,-193
-82,29,111,26,-97,70,67,-14,-54,-40,-65,-190
-64,54,117,5,-91,85,71,4,-37,-3,-39,-177
-48,75,123,-14,-86,99,74,36,-7,16,-1,-175
-43,122,165,-39,-105,143,78,72,37,42,41,-154
-34,169,203,-67,-119,185,85,100,80,88,84,-117
-42,214,256,-87,-149,235,85,133,125,155,135,-74
-14,283,298,-135,-156,290,86,162,174,208,183,-39
-19,348,367,-165,-193,358,84,186,211,270,236,6
-32,367,399,-168,-216,383,92,214,245,315,284,71
-30,366,396,-168,-213,380,94,204,245,330,306,101
-22,347,369,-163,-196,358,86,179,237,343,291,92
64,325,261,-195,-99,293,78,151,201,274,248,56
48,256,208,-152,-81,232,63,105,126,199,184,3
25,184,160,-105,-68,172,50,56,70,142,110,-49
38,146,108,-93,-35,127,41,14,15,66,56,-103
4,92,88,-48,-42,90,34,-4,-20,31,20,-131
19,63,44,-42,-12,53,27,-33,-53,-6,-9,-160
13,45,32,-30,-10,39,20,-46,-70,-27,-22,-172
-13,27,40,-7,-27,34,11,-50,-76,-47,-41,-180
1,37,37,-19,-18,37,25,-67,-99,-86,-57,-215
7,37,30,-22,-12,33,44,-43,-91,-78,-33,-211
11,27,16,-20,-2,21,37,-32,-79,-63,-19,-204
18,30,12,-24,3,21,36,-32,-76,-53,-11,-201
-3,32,35,-15,-19,33,31,-26,-72,-39,2,-192
-4,46,50,-21,-27,48,31,-24,-70,-36,13,-190
-2,40,42,-20,-22,41,56,-19,-66,-29,24,-183
-9,34,44,-13,-27,38,61,-24,-65,-24,18,-181
-5,34,38,-14,-22,36,56,-25,-62,-19,37,-176
-15,22,37,-3,-26,29,55,-25,-57,-15,52,-170
-10,38,49,-14,-30,43,50,-25,-55,-16,44,-165
-3,33,36,-15,-19,34,49,-25,-50,-12,41,-158
7,27,21,-17,-7,24,46,-24,-47,-10,36,-156
43,47,3,-45,20,25,44,-20,-44,-11,31,-160
18,52,34,-35,-8,43,40,-18,-50,-6,28,-160
-8,51,59,-21,-34,55,42,-15,-56,-1,23,-160
-1,66,67,-33,-34,66,60,-11,-38,7,27,-160
-6,69,75,-32,-40,71,61,-10,-29,9,24,-160
9,72,63,-41,-27,67,51,-6,-19,23,28,-155
0,125,124,-63,-62,124,47,-2,-17,38,57,-145
2,122,121,-62,-60,121,26,-24,-45,13,37,-138
31,107,75,-69,-22,91,-2,-57,-60,-5,16,-127
36,87,51,-62,-8,69,-5,-59,-83,-6,9,-122
-9,51,60,-21,-35,55,2,-55,-94,0,-3,-107
-16,44,60,-14,-38,52,9,-52,-87,6,-12,-116
1,28,27,-14,-13,27,23,-47,-92,-14,-33,-165
-9,27,36,-10,-23,32,35,-46,-90,-29,-48,-196
2,6,4,-4,-1,5,38,-46,-88,-38,-68,-208
2,2,0,-2,1,1,29,-47,-86,-47,-50,-190
-16,-32,-15,24,0,-23,36,-44,-75,-58,-70,-196
-16,-27,-12,22,-2,-19,22,-66,-80,-40,-59,-175
-27,1,28,13,-28,14,64,-43,-62,-47,-62,-183
-79,40,118,19,-98,79,86,-40,-78,-57,-85,-151
-35,141,176,-53,-105,158,105,84,30,129,92,1
79,257,178,-169,-50,218,127,220,234,493,458,258
281,366,85,-324,98,225,-244,-168,92,594,615,429
514,-390,-905,-62,709,-647,-587,-563,-200,-118,-131,-273
552,-1394,-1946,421,1249,-1669,-561,-593,-437,-985,-982,-1051
525,-1479,-2004,477,1265,-1741,-481,-574,-563,-1190,-1137,-1117
478,-1239,-1717,381,1098,-1477,-411,-533,-546,-1077,-1071,-1046
344,-935,-1278,296,811,-1106,-274,-370,-447,-841,-863,-858
168,-585,-753,209,461,-669,-94,-184,-264,-522,-569,-598
35,-273,-309,119,172,-291,2,-101,-154,-285,-333,-407
-25,-115,-90,70,32,-102,33,-46,-109,-178,-221,-330
-56,-90,-34,73,-11,-62,55,-28,-91,-142,-179,-302
-45,-53,-8,49,-18,-31,75,-24,-83,-110,-136,-284
-56,-58,-2,57,-27,-30,74,-15,-67,-97,-115,-287
-73,-34,39,53,-56,3,68,-10,-68,-95,-108,-280
-57,-39,18,48,-37,-10,67,-3,-53,-93,-95,-266
-54,-33,21,44,-38,-6,60,18,-50,-83,-100,-233
-63,35,99,14,-81,67,61,24,-63,-70,-130,-226
-85,40,126,22,-106,83,70,17,-41,-61,-104,-218
-86,33,120,26,-103,76,79,35,-13,-53,-65,-207
-71,52,123,9,-97,87,81,56,19,-21,-47,-188
-82,88,171,-4,-127,129,79,80,56,15,-41,-168
-71,138,209,-34,-140,173,82,108,89,59,-25,-155
-38,200,238,-81,-138,219,102,145,135,123,30,-120
-34,257,291,-111,-163,274,104,172,176,180,85,-98
-24,301,325,-139,-175,313,96,197,216,231,137,-68
-9,330,339,-161,-175,334,95,217,252,265,171,-21
0,328,327,-164,-164,327,88,211,262,283,179,1
18,321,303,-170,-143,312,85,182,232,269,181,-2
23,263,240,-143,-109,251,76,137,173,218,126,-29
9,184,175,-97,-83,179,63,91,112,154,52,-71
0,125,125,-63,-63,125,53,44,54,78,-6,-117
-5,74,79,-34,-42,76,48,0,1,5,-77,-173
1,37,36,-19,-17,36,45,-22,-31,-45,-127,-213
5,0,-6,-3,5,-3,42,-38,-58,-75,-161,-248
-25,-22,4,24,-14,-9,37,-56,-83,-100,-190,-281
-25,-57,-32,41,4,-44,35,-44,-82,-108,-195,-278
-21,-64,-44,43,12,-54,48,-55,-98,-121,-187,-292
-37,-41,-4,39,-16,-22,51,-75,-119,-136,-179,-318
-33,-57,-24,45,-4,-40,50,-61,-105,-119,-171,-314
-17,-51,-34,34,9,-42,50,-56,-98,-111,-164,-311
11,-44,-55,17,33,-49,50,-47,-98,-107,-156,-305
15,-49,-64,17,40,-56,49,-41,-101,-102,-148,-299
-17,-64,-47,41,15,-56,44,-41,-98,-99,-140,-293
-26,-73,-47,50,11,-60,45,-39,-77,-74,-132,-260
-16,-60,-44,39,14,-52,42,-37,-68,-59,-134,-242
-22,-59,-37,41,8,-48,40,-33,-76,-60,-135,-252
-1,-52,-51,27,25,-51,40,-41,-81,-60,-136,-253
-14,-46,-32,30,9,-39,44,-51,-85,-60,-140,-250
-31,-42,-11,37,-9,-26,45,-45,-85,-60,-140,-251
-11,-35,-24,23,7,-29,45,-41,-85,-59,-140,-247
-22,-26,-4,24,-8,-15,46,-36,-85,-51,-140,-245
-18,-14,4,16,-11,-5,44,-31,-84,-44,-140,-245
-24,1,26,11,-25,13,55,-32,-89,-38,-135,-241
-1,22,23,-11,-12,22,55,-36,-89,-33,-126,-229
9,44,35,-27,-14,39,40,-37,-93,-36,-121,-222
-14,53,67,-20,-40,59,35,-42,-94,-33,-125,-227
18,46,28,-32,-5,37,10,-72,-95,-38,-128,-232
19,31,12,-25,3,21,-5,-84,-111,-54,-121,-254
24,13,-10,-18,17,2,5,-79,-117,-56,-137,-266
15,-18,-33,2,24,-25,18,-76,-113,-53,-158,-265
-35,-58,-22,47,-6,-40,39,-72,-111,-58,-158,-274
-9,-72,-62,41,27,-67,39,-70,-109,-65,-166,-276
-17,-90,-73,54,29,-82,42,-63,-110,-78,-177,-286
-56,-93,-38,75,-9,-65,42,-64,-117,-73,-172,-273
-39,-114,-75,77,19,-94,48,-51,-111,-77,-178,-280
-41,-113,-71,77,15,-92,43,-54,-122,-74,-167,-268
-41,-85,-45,63,2,-65,59,-37,-113,-74,-177,-272
-54,-51,3,53,-29,-24,82,-49,-132,-75,-170,-264
-38,48,86,-5,-62,66,116,42,-30,82,-16,-120
43,173,131,-108,-44,152,148,202,194,437,340,135
255,338,83,-297,85,211,-219,-158,80,620,619,384
476,-286,-762,-95,619,-524,-611,-576,-202,-11,-24,-190
543,-1366,-1910,412,1227,-1638,-565,-582,-412,-945,-980,-1087
570,-1565,-2135,498,1353,-1850,-462,-546,-532,-1218,-1198,-1265
471,-1321,-1792,425,1132,-1556,-387,-504,-533,-1103,-1111,-1176
334,-1047,-1381,356,858,-1214,-251,-365,-454,-887,-928,-990
239,-677,-916,220,577,-797,-103,-201,-312,-580,-651,-736
78,-355,-434,139,256,-394,17,-87,-196,-315,-392,-499
-27,-167,-140,97,57,-153,88,-16,-115,-164,-231,-346
-19,-106,-87,63,34,-96,97,-13,-99,-121,-194,-308
-19,-81,-62,50,21,-71,115,-9,-93,-91,-156,-280
-56,-67,-11,62,-22,-39,130,1,-81,-68,-126,-280
-52,-59,-7,55,-22,-33,118,3,-78,-62,-102,-270
-73,-43,30,58,-51,-7,122,12,-67,-55,-87,-264
-75,-16,59,45,-67,21,114,19,-64,-51,-81,-257
-44,4,48,19,-46,26,116,50,-39,-44,-70,-238
-68,14,83,27,-76,48,140,55,-18,-35,-66,-224
-63,38,101,12,-83,70,153,65,2,-6,-50,-202
-56,91,147,-18,-102,118,148,98,41,36,-11,-167
-56,113,169,-29,-112,141,153,125,83,79,36,-123
-53,158,211,-53,-132,184,169,170,136,140,93,-73
-37,246,283,-105,-160,264,167,212,187,188,146,-31
-30,329,359,-150,-195,344,161,244,229,252,210,0
-24,395,419,-185,-222,407,158,274,284,332,281,46
12,408,396,-210,-192,402,152,285,315,366,318,76
15,412,397,-214,-191,404,148,281,317,392,341,80
51,439,388,-245,-168,413,123,258,304,388,341,94
27,395,367,-211,-170,381,99,209,249,342,303,81
2,325,323,-164,-161,324,93,159,188,292,246,45
39,296,257,-168,-109,276,84,116,133,238,187,19
16,256,240,-136,-112,247,71,74,67,169,144,-23
44,231,187,-138,-71,209,61,36,7,109,96,-80
48,221,173,-135,-63,197,54,16,-22,91,73,-138
2,219,217,-111,-107,218,52,8,-25,86,90,-139
18,215,197,-117,-90,206,42,-2,-26,73,91,-136
10,215,205,-113,-98,210,42,-7,-22,67,89,-157
-4,206,210,-101,-107,208,29,-10,-33,52,91,-132
32,220,188,-127,-78,204,30,-5,-25,49,93,-99
-27,238,265,-106,-146,251,70,2,1,85,132,-74
-61,234,295,-87,-178,265,44,6,5,103,138,-84
26,271,245,-149,-110,258,25,12,10,105,134,-82
18,274,256,-147,-119,265,56,18,21,135,179,-43
1,262,260,-132,-130,261,65,18,29,156,188,-33
-2,274,276,-136,-139,274,56,14,24,150,182,-22
-8,296,304,-145,-156,300,41,12,18,145,183,-13
-24,307,331,-142,-178,319,38,9,13,142,176,-14
-63,288,351,-113,-208,319,40,6,6,135,200,-16
-29,320,349,-146,-190,334,40,5,8,137,211,-14
-9,342,351,-166,-180,346,40,12,13,168,210,-17
8,341,333,-174,-163,336,40,23,19,176,209,-7
-12,371,382,-180,-197,376,51,32,25,181,211,26
-10,383,392,-187,-201,387,49,37,31,210,209,49
36,421,385,-229,-175,403,37,40,38,208,209,78
16,467,451,-242,-218,459,28,30,35,204,230,88
40,472,431,-256,-196,451,17,0,27,202,230,75
71,479,407,-275,-168,443,15,-30,24,195,230,65
41,465,424,-253,-191,444,-3,-25,26,199,231,55
6,420,414,-213,-204,417,-15,-16,21,212,229,44
-13,394,407,-191,-210,400,0,-14,20,231,226,38
-24,373,397,-175,-210,384,25,3,20,218,199,32
-23,370,393,-174,-209,382,36,-12,14,210,198,39
-25,356,381,-166,-203,368,44,-22,16,209,191,31
0,385,386,-193,-193,385,36,-22,7,210,198,39
-19,371,391,-176,-205,381,44,-5,12,211,192,34
-29,337,366,-154,-198,352,36,-11,-1,207,198,57
-35,394,429,-180,-232,411,42,15,17,219,220,95
-98,441,539,-172,-319,490,85,45,25,226,224,104
-50,514,564,-232,-307,539,125,117,100,371,382,244
37,583,547,-310,-255,565,211,347,353,687,684,460
229,712,483,-471,-127,597,-4,209,421,964,1010,708
476,149,-327,-313,402,-89,-405,-206,208,539,544,245
561,-825,-1386,132,974,-1105,-575,-499,-229,-504,-471,-634
523,-1075,-1597,276,1060,-1336,-564,-630,-559,-1000,-817,-829
431,-903,-1334,236,883,-1118,-491,-589,-581,-928,-770,-763
338,-576,-914,119,626,-744,-364,-449,-470,-688,-565,-580
220,-196,-416,-12,318,-305,-169,-205,-240,-313,-223,-270
28,128,100,-78,-36,114,-24,-37,-70,-4,67,-36
-67,286,353,-110,-210,319,44,43,-16,142,240,87
-27,359,385,-166,-206,372,53,64,-7,187,283,129
-79,422,501,-172,-290,461,63,57,1,221,307,140
-99,409,508,-155,-304,458,60,62,16,223,297,108
-73,432,505,-180,-289,469,49,60,42,227,294,124
-97,457,555,-180,-326,506,45,59,43,230,287,120
-87,454,541,-184,-314,497,42,62,47,247,283,149
-50,479,529,-215,-289,503,57,88,87,278,275,199
-50,514,564,-232,-307,538,54,91,92,284,285,225
-64,523,586,-230,-325,554,56,89,92,286,310,256
-57,560,617,-252,-338,588,60,92,100,296,324,279
-66,616,682,-275,-374,649,59,115,128,329,363,322
-52,632,685,-290,-369,658,63,152,171,385,403,357
-53,689,743,-318,-398,716,63,202,240,460,475,422
-64,763,826,-349,-446,794,56,237,294,518,522,467
-5,803,808,-399,-407,805,49,251,318,572,536,501
20,859,838,-440,-409,848,43,260,346,610,543,558
-15,849,864,-417,-439,856,36,247,346,619,534,598
-7,806,813,-400,-410,809,30,232,317,605,520,613
3,775,772,-389,-384,773,23,196,273,560,455,599
16,713,696,-365,-340,704,12,154,223,505,377,580
21,629,608,-325,-293,618,3,115,159,434,302,542
-6,574,580,-284,-293,576,-4,69,100,369,219,497
-15,553,568,-269,-292,561,-11,37,61,320,154,470
-30,510,540,-240,-285,525,-17,22,39,276,107,461
-18,489,506,-236,-262,497,-23,3,27,251,86,462
-7,484,491,-239,-249,488,-25,-23,15,235,69,463
-8,478,486,-235,-247,481,-25,-22,6,225,37,468
3,475,473,-239,-235,474,-25,-8,-2,218,18,497
-4,458,462,-227,-233,460,-25,-12,-12,210,-7,510
6,452,446,-229,-220,449,-25,-23,-25,218,-30,515
-20,448,469,-214,-244,458,-25,-19,-21,226,-30,521
-43,446,489,-202,-267,467,-25,-15,-10,215,-26,512
-30,443,473,-207,-252,458,-25,-9,3,237,-22,538
-26,440,466,-207,-246,453,-24,-7,12,255,-20,559
-18,438,456,-210,-238,447,-29,3,9,242,-13,559
13,434,421,-224,-204,427,-48,10,11,238,-31,551
43,429,387,-236,-172,408,-51,-6,9,228,-48,519
26,424,398,-225,-186,411,-48,-14,11,223,-44,490
42,421,379,-232,-169,400,-63,-26,7,216,-47,467
26,417,391,-222,-182,404,-61,-24,6,212,-43,444
-1,424,424,-212,-213,424,-55,-32,3,206,-48,424
0,413,413,-207,-206,413,-46,-25,7,205,-38,424
-6,429,435,-212,-220,432,-43,-1,11,219,-44,441
13,437,424,-225,-205,430,-38,-9,2,215,-68,442
31,444,413,-238,-191,428,-46,-6,11,207,-63,434
71,479,408,-275,-168,443,-78,-31,-4,202,-60,427
52,443,391,-248,-170,417,-75,-50,-27,193,-60,423
16,428,412,-223,-198,420,-112,-61,-45,186,-85,427
37,419,382,-228,-173,400,-129,-76,-59,176,-100,398
21,356,335,-189,-158,346,-107,-64,-49,170,-91,359
-20,307,327,-144,-174,317,-111,-62,-39,150,-125,322
-26,270,296,-122,-161,283,-103,-55,-57,110,-134,264
-15,229,244,-108,-130,236,-103,-49,-66,95,-118,205
0,227,227,-114,-114,227,-96,-74,-79,89,-148,165
3,250,247,-127,-122,248,-94,-92,-99,83,-160,168
-1,213,214,-106,-108,213,-75,-69,-82,73,-163,160
15,219,205,-117,-95,212,-77,-71,-87,68,-150,171
-23,199,222,-88,-123,210,-43,-47,-69,68,-162,157
-49,249,298,-100,-174,273,-20,-33,-63,84,-131,183
4,344,340,-174,-168,342,35,105,74,278,59,330
104,466,362,-286,-129,414,33,195,243,651,446,590
359,560,201,-459,78,380,-380,-188,154,747,612,697
574,-275,-849,-149,712,-562,-700,-490,-52,63,-115,-11
596,-1203,-1799,304,1198,-1501,-648,-526,-320,-768,-907,-748
560,-1248,-1808,344,1184,-1527,-561,-528,-464,-987,-1063,-844
468,-1029,-1497,281,983,-1262,-488,-480,-477,-906,-1008,-781
337,-734,-1071,199,705,-902,-331,-346,-394,-688,-818,-592
188,-407,-595,109,392,-501,-168,-173,-247,-399,-561,-363
58,-120,-179,32,119,-149,-86,-92,-166,-184,-345,-179
-28,18,46,5,-37,31,-34,-38,-109,-72,-234,-114
-37,78,115,-21,-76,96,-34,-33,-98,-47,-197,-122
-17,102,119,-43,-68,110,-37,-32,-93,-27,-169,-102
-64,90,154,-13,-109,121,-39,-22,-87,-24,-169,-98
-48,95,142,-24,-95,118,-41,-22,-82,-18,-154,-81
10,88,78,-49,-34,83,-33,-11,-76,-11,-172,-52
-46,90,136,-22,-91,113,-30,-11,-71,-8,-195,-17
-42,100,142,-30,-92,121,-22,-1,-64,10,-184,-22
-28,125,153,-49,-90,138,-18,2,-57,20,-173,-52
-70,139,209,-35,-140,174,-12,19,-27,35,-142,-50
-59,149,208,-45,-134,178,-4,61,12,76,-105,-31
-70,172,242,-51,-156,206,3,82,46,104,-87,-15
-37,230,267,-97,-153,248,24,111,87,148,-70,12
-12,294,306,-141,-159,300,32,155,138,217,-5,49
-30,334,364,-152,-198,349,30,189,190,278,71,91
5,381,375,-193,-185,378,30,217,241,330,115,140
13,414,401,-214,-194,408,30,228,259,365,152,173
13,418,405,-216,-196,411,35,229,243,387,168,211
36,384,348,-210,-156,366,25,199,210,365,149,214
36,322,286,-179,-125,303,-3,141,159,304,89,170
58,259,201,-159,-72,230,-25,80,98,222,1,125
40,185,144,-113,-53,165,-24,31,42,142,-73,63
13,134,121,-74,-54,127,-35,-3,-7,93,-129,16
19,111,92,-65,-37,101,-47,-28,-55,44,-173,-30
5,68,63,-37,-30,66,-40,-43,-79,-3,-202,-69
12,36,23,-24,-6,29,-38,-45,-87,-18,-216,-91
-12,4,15,4,-14,9,-33,-45,-95,-33,-224,-124
-56,-31,25,43,-40,-3,-30,-45,-95,-41,-226,-145
-43,-34,8,38,-25,-13,-26,-45,-95,-35,-223,-165
-20,-37,-17,29,-1,-27,-25,-45,-95,-34,-220,-187
-10,-32,-22,21,7,-27,-25,-40,-95,-30,-220,-196
30,-40,-70,5,50,-55,-26,-35,-95,-29,-218,-189
34,-37,-71,1,53,-54,-23,-30,-90,-23,-214,-160
23,-42,-65,9,44,-53,-32,-27,-87,-32,-215,-131
18,-80,-99,31,59,-89,-46,-21,-84,-44,-208,-118
4,-60,-64,28,34,-61,-40,-19,-79,-32,-197,-122
-9,-53,-44,31,17,-48,-36,-28,-76,-23,-188,-127
-41,-67,-26,54,-7,-46,-31,-31,-75,-20,-181,-130
-9,-56,-48,33,20,-52,-27,-30,-75,-20,-177,-137
5,-56,-60,26,33,-58,-22,-27,-75,-20,-171,-132
-27,-46,-20,36,-3,-33,-17,-25,-75,-20,-165,-128
-23,-44,-20,34,-1,-32,-11,-25,-75,-20,-161,-123
-9,-34,-25,22,8,-29,-6,-20,-75,-11,-164,-119
9,-5,-14,-2,12,-9,1,-14,-80,2,-166,-114
33,1,-32,-17,32,-15,6,-13,-81,14,-163,-110
40,29,-11,-34,25,9,-8,-4,-87,25,-167,-107
22,62,41,-42,-10,52,-14,-15,-87,39,-162,-98
41,47,6,-44,18,26,-44,-55,-94,19,-169,-125
70,37,-33,-53,51,2,-68,-67,-97,-13,-188,-138
52,23,-29,-37,40,-3,-50,-56,-87,-14,-191,-133
0,10,10,-5,-5,9,-43,-52,-91,-17,-190,-137
-7,-33,-26,20,10,-29,-33,-44,-89,-24,-187,-131
8,-100,-108,46,58,-103,-22,-36,-101,-45,-206,-166
-1,-92,-91,47,45,-92,-21,-39,-106,-49,-189,-182
-4,-93,-88,49,42,-90,-7,-38,-97,-42,-170,-206
5,-79,-83,38,44,-81,-7,-43,-100,-39,-158,-220
-4,-89,-85,47,40,-86,10,-39,-88,-32,-147,-218
-8,-97,-89,53,41,-92,12,-50,-94,-32,-145,-210
2,-58,-61,28,32,-59,22,-39,-84,-28,-134,-196
-41,-5,36,23,-39,15,47,-37,-116,-28,-120,-169
-30,101,131,-36,-80,115,86,52,-12,137,61,1
42,206,163,-124,-61,184,137,237,221,514,452,270
257,446,189,-352,34,317,-262,-79,187,796,796,588
536,-117,-653,-209,594,-385,-691,-476,4,258,259,88
605,-1278,-1884,337,1245,-1581,-615,-461,-206,-761,-756,-892
580,-1511,-2091,466,1335,-1800,-507,-463,-384,-1080,-1032,-1105
492,-1269,-1761,389,1127,-1515,-447,-471,-473,-1006,-963,-1036
372,-1016,-1389,323,881,-1203,-323,-372,-443,-859,-827,-869
246,-655,-901,205,573,-778,-159,-216,-302,-557,-547,-596
73,-301,-374,115,224,-337,-41,-84,-179,-281,-281,-349
-36,-98,-62,67,13,-79,16,-16,-92,-79,-89,-156
-46,-35,10,40,-28,-12,49,-8,-64,-34,-38,-142
-38,54,91,-8,-65,72,50,-4,-53,-14,-9,-137
-41,80,121,-20,-81,100,50,6,-46,-1,28,-165
-32,78,110,-24,-71,93,52,10,-42,14,56,-207
-59,83,142,-12,-101,112,47,44,-36,53,69,-194
-80,76,156,2,-118,116,56,57,-25,55,69,-160
-62,117,178,-28,-120,147,75,58,-1,56,69,-121
-52,144,197,-46,-125,170,76,78,26,79,71,-76
-57,151,208,-47,-133,179,74,93,46,113,104,-34
-62,178,239,-58,-151,208,76,121,74,128,144,-26
-63,217,280,-77,-172,249,88,162,124,171,184,-9
-34,291,325,-129,-180,308,92,188,168,230,232,16
-11,342,353,-166,-182,347,89,236,227,291,293,43
-39,406,445,-184,-242,426,86,293,302,388,376,99
-36,451,487,-208,-261,469,85,321,355,455,442,153
-6,461,467,-228,-236,464,84,317,371,481,466,218
24,501,477,-263,-226,489,72,303,374,516,486,295
49,474,425,-261,-189,449,54,294,357,517,489,322
53,442,389,-247,-168,416,32,247,296,455,437,295
41,385,344,-213,-152,365,15,182,221,388,379,250
29,301,272,-165,-122,286,2,122,146,318,301,182
21,275,254,-148,-117,265,-11,61,80,249,228,120
3,241,238,-122,-118,240,-17,25,45,201,192,76
-31,208,239,-89,-135,224,-16,18,29,150,169,37
-40,185,225,-73,-133,205,-12,15,15,124,160,23
-17,172,189,-78,-103,180,-10,12,8,126,147,25
-14,168,182,-77,-98,175,-7,6,2,124,138,25
-28,157,185,-65,-107,170,-4,6,-4,126,134,13
-51,150,201,-50,-126,175,-12,9,-8,124,136,21
-2,157,158,-78,-80,157,-23,12,-7,127,133,47
4,168,164,-86,-81,166,-20,32,-3,130,138,62
-65,163,229,-49,-147,196,-16,36,-2,136,146,66
-57,162,219,-53,-138,190,-13,34,2,139,149,80
-15,159,175,-72,-95,167,-9,40,4,133,169,111
-23,161,184,-69,-103,172,-5,40,7,154,174,118
-54,198,251,-72,-153,224,-9,39,19,148,190,117
-27,185,212,-79,-120,199,-9,33,19,152,215,113
-32,181,213,-75,-122,196,-4,29,12,184,221,107
-48,219,266,-86,-157,242,-6,25,7,186,220,105
-58,192,250,-67,-154,221,-4,19,1,182,218,97
-77,190,268,-57,-172,229,-17,28,-5,192,233,125
-25,224,248,-100,-137,236,-25,36,6,211,265,152
-48,232,280,-92,-165,256,-10,39,32,204,291,149
-93,237,330,-72,-212,284,-2,40,36,201,296,151
-52,263,315,-106,-183,289,-12,33,34,196,311,150
-44,283,328,-120,-186,305,-24,26,36,193,328,151
-54,268,322,-107,-188,295,-40,19,30,186,319,147
-42,257,299,-108,-171,278,-63,-1,21,170,311,140
-35,238,272,-102,-154,255,-60,-11,12,194,299,130
-62,205,267,-72,-165,236,-62,-12,4,180,290,114
-77,176,253,-50,-165,214,-61,-9,-12,156,282,97
-47,192,239,-73,-143,215,-38,-11,-33,156,277,101
-40,180,220,-70,-130,200,-42,-22,-28,146,273,104
-54,159,214,-53,-134,187,-51,-21,-30,141,264,103
-67,170,238,-52,-153,204,-56,-20,-24,129,264,115
-100,119,220,-10,-160,169,-62,-31,-25,140,272,101
-92,165,257,-36,-175,211,-38,-9,-25,159,282,131
-94,175,269,-41,-181,221,16,34,4,130,245,124
-119,224,343,-53,-232,284,26,39,11,186,323,193
-60,318,378,-130,-219,348,117,236,202,442,565,367
64,479,415,-272,-176,447,80,313,397,841,978,650
312,368,55,-340,128,211,-308,5,387,890,1037,676
507,-620,-1127,57,818,-873,-563,-278,131,77,187,-117
502,-1269,-1771,384,1137,-1520,-587,-482,-308,-784,-560,-696
446,-1213,-1658,384,1052,-1435,-553,-530,-492,-966,-689,-691
332,-982,-1313,325,823,-1147,-458,-452,-471,-820,-583,-615
204,-626,-829,211,517,-727,-287,-279,-321,-543,-332,-380
81,-307,-388,113,235,-347,-110,-87,-144,-221,-43,-139
-81,6,87,38,-84,47,-28,-12,-60,-2,177,27
-95,118,212,-11,-154,165,5,35,2,86,268,116
-77,120,196,-22,-137,158,18,46,13,116,291,128
-124,168,293,-23,-209,230,22,45,23,112,298,120
-129,170,299,-21,-215,234,20,56,27,108,318,141
-166,182,348,-9,-258,265,19,71,32,158,331,152
-138,203,341,-33,-240,272,17,73,37,158,319,172
-132,206,338,-37,-235,272,12,74,26,146,316,229
-122,242,364,-60,-243,303,22,80,35,173,305,236
-95,266,360,-86,-228,313,29,91,55,175,324,265
-127,276,403,-75,-266,339,31,116,76,181,365,277
-122,286,408,-82,-266,347,21,138,110,213,409,278
-126,334,460,-104,-293,397,36,171,162,269,480,318
-106,393,499,-144,-303,446,70,208,208,318,533,338
-101,465,566,-182,-334,515,55,250,265,390,611,392
-108,511,618,-202,-363,564,50,298,321,455,673,427
-76,528,604,-227,-340,565,49,305,345,494,701,472
-91,569,660,-239,-376,614,36,291,373,562,761,565
-81,546,628,-233,-354,587,29,282,355,560,746,606
-50,521,571,-236,-311,546,7,256,315,527,697,607
-66,483,549,-209,-308,516,-12,214,264,459,615,573
-47,418,465,-186,-256,441,-33,162,175,365,508,520
-47,367,413,-160,-230,390,-41,114,119,323,434,475
-70,321,391,-126,-231,356,-39,79,92,264,366,434
-93,276,369,-92,-232,322,-40,57,54,218,323,404
-121,238,359,-59,-240,298,-40,41,23,183,270,385
-119,233,352,-58,-236,292,-37,35,20,147,234,397
-87,230,317,-72,-203,273,-34,30,19,135,221,425
-107,210,317,-52,-212,263,-35,24,15,127,201,447
-128,209,338,-40,-233,273,-35,18,15,117,177,477
-71,240,311,-85,-191,275,-35,16,11,119,134,490
-91,247,338,-79,-215,293,-34,20,7,119,100,510
-108,243,351,-68,-230,297,-30,20,5,122,87,547
-91,246,338,-78,-215,292,-30,20,0,116,69,567
-93,244,336,-76,-215,290,-30,20,3,111,47,622
-63,245,308,-92,-186,276,-30,20,12,141,28,668
-88,244,333,-78,-211,288,-30,20,20,147,8,676
-104,245,349,-71,-227,297,-26,24,24,143,-12,693
-73,245,318,-86,-196,281,-25,26,21,146,-46,693
-83,245,327,-81,-206,286,-25,21,16,144,-76,686
-85,245,330,-81,-208,287,-20,19,13,145,-88,684
-69,248,317,-89,-193,282,-20,15,10,137,-95,677
-80,251,331,-86,-206,291,-19,14,5,136,-101,676
-92,248,339,-78,-215,293,-11,32,8,127,-103,667
-87,254,342,-84,-215,298,-2,46,17,147,-108,680
-54,267,321,-107,-188,294,4,53,25,172,-118,702
-59,282,340,-112,-200,311,10,50,34,161,-127,698
-70,306,376,-118,-223,341,-9,27,28,157,-121,696
-44,304,348,-130,-196,326,-25,12,17,149,-129,692
-53,268,322,-108,-188,295,-46,5,8,142,-149,690
-52,244,297,-96,-175,270,-74,-7,-7,138,-151,685
-51,234,285,-92,-169,260,-39,-4,-21,127,-149,657
-82,200,281,-59,-182,240,-22,16,-20,123,-152,623
-98,162,260,-33,-179,211,-39,23,-19,96,-170,572
-89,154,243,-32,-166,198,-48,15,-23,69,-169,542
-91,123,214,-16,-153,168,-47,19,-25,64,-167,528
-81,127,208,-23,-145,167,-44,8,-33,62,-163,526
-65,126,191,-31,-128,158,-31,14,-21,60,-160,517
-53,129,182,-38,-118,155,-31,8,-26,52,-162,508
-41,140,181,-50,-112,161,-25,20,-10,61,-170,511
-105,127,231,-11,-168,179,22,33,-21,52,-187,494
-126,225,351,-50,-239,288,47,94,39,171,-57,591
-35,283,318,-125,-176,300,131,308,276,498,254,777
150,462,312,-306,-81,387,-88,156,336,850,656,1058
403,65,-338,-234,370,-136,-510,-212,215,634,407,786
532,-1022,-1555,246,1044,-1289,-592,-373,-46,-295,-537,-48
532,-1391,-1923,430,1228,-1657,-559,-448,-332,-884,-1022,-370
464,-1210,-1675,373,1070,-1442,-507,-439,-434,-902,-1044,-344
345,-949,-1294,303,820,-1122,-383,-368,-395,-781,-951,-261
208,-620,-828,207,518,-724,-225,-195,-246,-527,-729,-88
39,-322,-362,142,201,-342,-81,-38,-120,-255,-476,102
-58,-118,-60,89,1,-89,-15,46,-48,-93,-319,235
-99,-60,39,79,-69,-10,14,70,-22,-42,-270,250
-94,-14,79,54,-87,32,22,61,-14,-15,-214,251
-71,11,83,30,-77,47,18,67,-5,-2,-223,244
-91,21,112,35,-102,66,16,65,0,3,-229,266
-83,20,104,31,-93,62,12,64,8,0,-232,278
-110,19,129,45,-120,74,10,70,15,-3,-273,288
-96,21,117,37,-107,69,12,74,17,7,-267,308
-100,19,119,40,-110,69,24,85,38,29,-247,306
-116,25,141,45,-129,83,44,127,83,50,-233,307
-88,40,128,24,-108,84,45,138,91,49,-216,295
-123,72,195,25,-160,134,49,158,114,85,-171,292
-88,115,203,-14,-146,159,63,188,156,127,-130,282
-57,183,240,-64,-148,211,57,219,207,182,-91,284
-76,221,298,-73,-187,259,67,279,283,275,-25,339
-56,253,308,-99,-182,280,87,313,332,336,27,387
-41,320,361,-139,-201,340,78,312,351,378,52,428
-24,321,345,-149,-185,333,63,304,347,379,44,468
-3,310,313,-154,-158,311,60,286,325,363,41,485
-3,275,279,-136,-141,277,40,241,279,347,29,479
21,209,188,-116,-84,198,1,191,212,283,-28,443
32,164,132,-99,-50,148,-16,135,147,197,-102,391
-4,98,103,-47,-54,100,-20,88,75,121,-185,308
-12,47,58,-18,-35,52,-28,67,25,70,-240,236
-21,6,27,8,-24,16,-36,48,9,30,-267,206
-41,-28,13,34,-26,-8,-43,32,-7,-7,-291,182
-18,-55,-38,37,10,-46,-42,16,-34,-28,-311,157
-63,-82,-19,73,-21,-51,-37,22,-48,-37,-317,132
-71,-91,-21,81,-25,-56,-35,41,-44,-48,-314,120
-36,-88,-52,63,8,-69,-30,39,-44,-56,-315,108
-51,-97,-46,74,-2,-71,-26,42,-39,-55,-315,97
-8,-101,-93,55,42,-96,-24,45,-40,-55,-314,89
-5,-99,-94,52,45,-96,-15,45,-38,-55,-303,91
-35,-114,-80,75,23,-97,-8,43,-30,-55,-290,88
-48,-104,-56,76,5,-80,4,37,-25,-52,-288,96
-41,-125,-85,83,23,-105,-9,33,-17,-48,-293,115
-27,-136,-109,82,42,-123,-47,28,-12,-47,-294,115
-41,-106,-65,74,12,-85,-50,25,-4,-43,-289,113
-42,-112,-70,77,14,-91,-43,17,-26,-41,-286,67
-56,-116,-60,86,2,-87,-40,23,-46,-40,-283,50
-56,-121,-65,88,5,-92,-34,37,-27,-40,-278,77
-33,-122,-89,78,29,-105,-31,33,-19,-41,-275,76
-33,-114,-80,74,24,-97,-26,30,-24,-38,-280,80
-40,-113,-73,77,17,-93,-23,28,-45,-53,-300,85
-41,-103,-63,72,11,-83,-18,24,-45,-50,-311,81
-23,-81,-58,52,17,-69,-17,31,-31,-32,-309,65
-25,-75,-50,50,13,-62,-10,33,-40,-36,-310,49
-30,-73,-43,52,7,-58,-12,17,-41,-33,-309,40
-39,-77,-38,58,0,-57,-34,9,-48,-36,-310,27
-27,-71,-44,49,9,-57,-53,-4,-64,-55,-313,18
0,-95,-95,48,48,-94,-66,-19,-65,-63,-322,36
-15,-146,-131,81,58,-138,-52,-20,-66,-56,-324,46
10,-136,-146,63,78,-141,-47,-21,-69,-75,-346,30
-26,-201,-176,114,75,-188,-49,11,-70,-108,-374,14
-55,-263,-208,159,77,-235,-36,26,-70,-112,-366,-19
-40,-255,-216,148,88,-235,-20,17,-69,-128,-372,-64
-45,-248,-203,147,79,-225,-15,10,-71,-131,-362,-79
-41,-246,-205,143,82,-225,-1,6,-72,-127,-366,-116
-43,-239,-197,141,77,-218,7,-4,-85,-128,-367,-112
-39,-227,-188,134,75,-208,13,-1,-76,-130,-370,-105
-115,-202,-87,159,-14,-144,40,10,-97,-142,-374,-84
-76,-104,-28,90,-23,-66,72,96,4,10,-214,85
22,-19,-41,-2,32,-30,116,265,216,373,140,324
195,224,29,-209,82,126,-245,-21,219,677,533,640
456,-299,-754,-78,605,-526,-677,-411,88,257,100,228
538,-1468,-2005,465,1272,-1737,-612,-378,-104,-669,-873,-703
574,-1712,-2287,569,1431,-1999,-489,-344,-270,-1042,-1181,-939
484,-1502,-1986,510,1235,-1744,-434,-355,-370,-1014,-1159,-876
361,-1259,-1620,449,991,-1440,-322,-290,-378,-926,-1084,-788
230,-926,-1156,348,693,-1040,-169,-144,-258,-669,-854,-568
27,-629,-656,301,341,-642,-46,-35,-154,-414,-612,-345
-52,-412,-361,232,154,-386,16,24,-87,-266,-467,-229
-101,-364,-263,233,82,-313,43,65,-70,-222,-431,-233
-92,-309,-216,201,62,-262,44,58,-57,-194,-402,-225
-86,-292,-206,189,61,-249,46,67,-43,-167,-378,-225
-122,-296,-174,209,26,-235,44,65,-41,-158,-365,-215
-85,-287,-202,186,59,-244,47,72,-39,-150,-381,-185
-88,-287,-199,188,56,-242,53,67,-41,-145,-396,-138
-99,-280,-180,190,40,-229,67,77,-29,-137,-388,-113
-87,-270,-183,179,48,-226,81,109,-6,-132,-382,-114
-77,-247,-170,162,47,-208,80,108,20,-119,-363,-128
-100,-231,-131,165,16,-180,78,143,47,-90,-342,-141
-128,-220,-91,174,-18,-155,99,187,95,-46,-313,-131
-88,-168,-80,128,-4,-124,113,213,138,5,-282,-127
-75,-80,-5,77,-35,-42,108,256,188,56,-234,-108
-82,-33,49,57,-65,8,112,296,245,125,-171,-62
-84,9,94,37,-89,51,116,324,299,192,-123,-1
-61,67,128,-3,-95,97,126,345,330,241,-89,74
-5,100,105,-48,-55,102,128,342,320,260,-78,120
33,80,48,-57,-8,64,99,300,308,235,-71,114
-27,14,41,6,-34,27,65,248,258,192,-98,90
-18,-38,-20,28,1,-29,47,195,187,128,-188,32
17,-132,-149,58,83,-140,38,142,110,52,-263,-38
-64,-206,-142,135,40,-174,27,96,40,-18,-333,-106
-40,-227,-187,134,74,-207,25,60,-8,-91,-396,-153
-32,-253,-221,143,94,-237,25,39,-31,-125,-409,-159
-67,-272,-205,170,69,-238,21,34,-36,-137,-423,-181
-87,-316,-229,202,71,-272,20,32,-56,-153,-431,-201
-85,-322,-237,204,76,-279,20,28,-61,-173,-430,-223
-51,-337,-286,195,118,-312,31,26,-59,-193,-429,-247
-48,-356,-308,202,130,-332,35,24,-62,-194,-433,-260
-45,-341,-296,194,126,-319,36,32,-60,-192,-457,-266
-48,-327,-280,188,116,-304,34,37,-61,-189,-458,-257
-55,-336,-281,196,113,-309,36,41,-59,-186,-450,-248
-94,-371,-277,233,92,-323,52,58,-56,-183,-447,-205
-118,-362,-245,240,64,-303,49,55,-55,-180,-439,-177
-82,-349,-267,216,93,-308,40,47,-55,-179,-435,-192
-62,-340,-278,202,108,-309,34,41,-55,-174,-430,-198
-77,-335,-258,206,91,-297,24,35,-55,-171,-427,-216
-57,-314,-257,186,100,-285,23,35,-55,-168,-423,-240
-74,-321,-247,198,87,-284,41,43,-55,-163,-420,-250
-108,-351,-243,230,68,-297,52,45,-55,-160,-415,-259
-100,-338,-238,220,69,-287,48,38,-52,-157,-417,-248
-108,-344,-236,226,64,-290,52,37,-49,-152,-421,-210
-76,-324,-248,200,87,-286,47,27,-45,-147,-419,-189
-113,-307,-195,210,41,-251,57,46,-46,-144,-414,-191
-100,-295,-195,197,48,-245,69,68,-51,-133,-402,-194
-24,-259,-235,142,106,-247,52,53,-56,-140,-410,-211
-52,-252,-200,152,74,-226,36,42,-59,-157,-422,-222
-43,-250,-207,147,82,-228,21,33,-64,-153,-419,-218
-42,-291,-250,167,104,-270,3,22,-65,-157,-420,-220
-50,-348,-298,199,124,-323,-10,16,-65,-161,-420,-220
-50,-343,-293,196,122,-318,-6,15,-70,-158,-419,-219
-76,-355,-279,215,102,-317,23,14,-69,-176,-436,-236
-85,-381,-296,233,106,-338,35,10,-72,-180,-440,-237
-69,-369,-300,220,116,-335,35,9,-74,-200,-454,-255
-77,-403,-326,240,125,-364,35,14,-79,-226,-470,-284
-91,-430,-339,261,124,-385,30,25,-80,-217,-458,-273
-92,-436,-344,264,126,-390,32,26,-82,-232,-468,-304
-73,-403,-330,238,129,-367,28,12,-86,-221,-449,-288
-75,-379,-304,228,115,-342,64,12,-86,-240,-482,-293
-114,-306,-192,210,39,-249,79,18,-81,-191,-441,-235
-60,-245,-184,153,62,-214,156,204,105,88,-182,-39
71,-59,-130,-6,101,-95,34,187,231,481,241,286
314,-2,-316,-155,314,-159,-489,-281,72,478,304,379
493,-1010,-1504,259,999,-1258,-666,-425,-90,-354,-571,-436
525,-1865,-2391,670,1458,-2128,-490,-328,-211,-1066,-1284,-1105
518,-1766,-2284,624,1401,-2025,-424,-334,-324,-1146,-1317,-1117
394,-1547,-1941,576,1168,-1744,-346,-297,-385,-1079,-1274,-1065
260,-1238,-1498,490,879,-1368,-192,-205,-328,-877,-1108,-887
107,-895,-1000,394,554,-948,-59,-88,-223,-616,-862,-681
-61,-633,-572,347,256,-602,33,-2,-149,-397,-652,-488
-120,-513,-393,316,137,-452,87,54,-94,-289,-554,-393
-118,-455,-337,287,110,-396,98,42,-79,-262,-525,-384
-121,-406,-286,264,83,-346,100,54,-67,-229,-493,-367
-85,-398,-313,242,115,-356,92,68,-62,-218,-483,-367
-81,-395,-314,238,117,-355,85,56,-58,-209,-472,-346
-136,-420,-284,279,74,-352,116,90,-47,-202,-468,-317
-106,-404,-298,255,96,-351,137,104,-39,-197,-461,-292
-136,-378,-243,257,54,-310,138,111,-21,-187,-454,-262
-178,-374,-196,276,9,-285,146,113,-6,-176,-449,-284
-147,-340,-193,243,23,-266,151,131,32,-138,-434,-308
-155,-310,-155,233,0,-232,163,164,76,-99,-423,-294
-138,-264,-126,201,-6,-195,170,189,107,-65,-389,-284
