I,II,III,aVR,aVL,aVF,V1,V2,V3,V4,V5,V6
-251,18,269,116,-260,143,108,-166,-228,-244,-210,-95
-217,26,243,95,-230,134,79,-168,-211,-221,-195,-83
-135,52,188,41,-162,120,35,-147,-173,-163,-137,-56
-88,49,137,19,-112,92,12,-106,-109,-103,-78,-30
-42,51,93,-4,-68,72,10,-55,-51,-31,-34,-3
-25,50,74,-13,-50,62,10,-10,-9,22,9,11
-8,50,59,-21,-34,54,10,19,24,55,37,15
-2,47,49,-23,-26,48,10,41,48,76,51,20
-8,39,47,-16,-28,43,11,54,63,77,50,24
-10,33,43,-12,-27,38,14,58,68,81,51,29
-14,25,39,-5,-27,32,17,65,72,85,56,33
-18,17,36,0,-27,26,19,75,75,83,55,35
-21,11,32,5,-27,21,23,81,70,80,53,35
-1,28,30,-13,-16,29,25,80,70,80,48,38
8,38,30,-23,-12,34,28,80,69,77,42,41
4,30,26,-17,-11,27,30,80,65,75,39,39
5,30,25,-18,-10,27,30,80,66,75,33,35
-1,24,25,-12,-13,24,33,80,63,70,31,27
-13,21,34,-4,-24,27,36,79,59,65,34,21
-21,17,38,2,-30,28,34,75,55,60,37,14
-35,11,45,12,-40,28,30,73,52,57,40,7
-60,7,66,26,-63,36,30,70,47,51,42,7
-74,-1,72,37,-73,35,29,67,45,52,46,11
-53,25,78,13,-65,51,24,65,52,60,42,13
-24,56,81,-16,-53,68,26,62,51,64,40,16
-25,54,80,-15,-53,66,22,57,50,67,40,19
-25,55,80,-15,-53,67,19,54,49,69,36,20
-25,55,80,-15,-53,67,21,51,45,73,34,20
-30,50,80,-10,-55,65,16,46,45,75,36,20
-29,45,74,-8,-52,60,15,46,43,75,43,20
-28,40,68,-6,-49,54,15,54,39,79,46,20
-27,37,64,-5,-46,50,10,55,41,80,44,20
-27,30,58,-2,-43,44,10,55,39,80,45,22
-20,32,52,-7,-36,42,10,55,42,80,45,27
-13,39,52,-13,-33,45,10,55,58,80,46,32
-10,45,55,-18,-33,50,10,55,61,80,49,35
-9,50,58,-21,-34,54,10,55,59,80,50,35
-11,50,61,-20,-36,55,10,55,60,80,50,35
-14,50,65,-19,-39,57,10,55,60,77,50,35
-17,47,65,-15,-41,56,10,55,60,75,49,35
-15,45,60,-15,-38,52,15,55,60,75,53,35
-16,45,60,-15,-38,52,15,58,60,72,55,37
-16,42,58,-13,-37,50,16,62,60,69,56,40
-17,38,55,-11,-36,46,20,65,60,71,60,40
-11,43,53,-17,-32,48,19,69,60,75,60,39
-9,55,64,-23,-37,59,23,71,65,84,65,52
4,75,71,-39,-34,72,25,76,75,97,80,68
29,96,67,-63,-19,81,29,85,83,104,87,74
32,95,63,-64,-16,79,27,88,89,110,90,80
33,95,62,-64,-15,78,14,84,95,115,96,91
47,95,48,-71,-1,71,3,82,94,119,102,103
77,96,19,-87,29,57,-7,78,86,118,108,102
83,91,8,-87,37,49,-14,76,78,107,100,90
71,77,6,-74,32,41,-20,73,70,101,90,79
53,64,11,-59,20,37,-15,66,63,90,75,66
-2,28,30,-13,-16,29,-15,53,52,80,62,48
-42,-12,30,27,-36,9,-15,42,36,60,42,22
-38,-9,29,24,-33,10,-14,30,20,51,36,20
-35,-2,33,19,-33,15,-17,22,14,50,36,21
-52,-27,25,40,-38,-1,-14,21,11,49,31,17
-65,-28,37,47,-51,5,-32,12,7,53,35,26
-66,-47,19,57,-42,-13,-27,13,4,44,20,11
-53,1,54,26,-54,28,-51,-1,0,59,50,45
-79,122,201,-21,-140,161,-38,-69,-16,55,88,113
-85,219,304,-68,-194,261,-77,-221,-73,173,296,285
102,192,89,-147,6,140,-120,-176,42,432,542,432
440,261,-179,-350,309,41,-236,-200,256,710,804,638
719,250,-469,-485,594,-109,-976,-918,-18,488,565,520
881,-407,-1289,-237,1085,-848,-1647,-1483,-508,-307,-504,-353
816,-853,-1668,19,1242,-1260,-1442,-1251,-802,-840,-1043,-818
506,-779,-1285,137,895,-1032,-827,-756,-881,-1000,-990,-748
291,-617,-908,164,599,-763,-439,-463,-673,-789,-764,-581
100,-408,-507,154,304,-458,-239,-318,-443,-472,-446,-335
-59,-226,-167,143,54,-196,-17,-65,-176,-231,-227,-160
-64,-77,-13,70,-25,-44,81,94,8,-40,-66,-41
-85,-60,25,72,-54,-17,99,107,17,-33,-55,-49
-74,-38,36,56,-55,-1,123,141,61,-10,-36,-40
-68,-19,49,43,-59,15,127,152,65,-2,-35,-32
-82,-22,60,52,-71,19,132,152,64,-1,-35,-32
-72,-13,59,43,-65,23,136,157,71,2,-25,-21
-81,-16,65,49,-73,24,139,159,68,1,-28,-21
-93,-8,86,50,-89,39,151,169,72,8,-26,-12
-98,-12,85,54,-91,36,162,170,73,3,-34,-11
-91,-7,84,48,-87,38,165,176,79,1,-36,-4
-110,-22,88,66,-99,33,169,182,80,0,-40,0
-111,-21,90,66,-100,34,180,189,85,-1,-41,-4
-95,3,98,46,-97,50,198,203,83,-6,-45,-15
-127,-7,120,67,-123,56,217,212,77,-4,-46,-21
-153,-13,140,83,-147,63,235,220,73,-13,-48,-34
-156,-7,149,81,-152,71,251,225,69,-21,-56,-46
-158,9,168,74,-163,88,275,218,64,-31,-64,-65
-188,8,196,90,-192,102,296,207,60,-52,-72,-82
-223,-6,217,114,-220,105,309,198,43,-72,-87,-87
-251,2,253,124,-252,127,323,183,14,-98,-108,-106
-266,13,280,126,-273,146,322,145,-14,-134,-138,-118
-278,21,299,128,-289,160,315,98,-51,-175,-167,-118
-290,21,311,134,-300,166,293,38,-107,-215,-195,-113
-284,20,304,132,-294,162,244,-44,-165,-263,-224,-105
-277,20,297,129,-287,158,186,-116,-215,-294,-226,-100
-237,21,258,108,-248,140,119,-168,-240,-283,-225,-92
-197,17,214,90,-206,115,70,-189,-231,-262,-209,-87
-144,30,174,57,-160,102,35,-168,-197,-209,-153,-73
-97,32,129,32,-113,81,8,-127,-138,-135,-93,-47
-55,37,91,9,-73,64,5,-82,-79,-68,-35,-17
8,66,58,-37,-26,62,5,-37,-33,-8,8,5
13,58,45,-36,-16,52,5,2,12,27,34,11
15,53,39,-34,-12,46,5,25,38,50,49,18
19,48,29,-34,-5,39,5,35,42,58,50,24
19,42,23,-30,-2,32,9,47,45,59,50,31
24,38,15,-31,4,26,10,55,49,61,50,34
22,30,8,-26,7,18,9,60,56,59,50,30
26,26,1,-26,12,13,11,65,60,61,49,30
3,-4,-7,1,5,-5,9,65,62,59,44,30
2,-14,-15,6,9,-14,13,65,66,61,41,30
22,4,-19,-13,20,-7,15,65,61,58,38,30
22,9,-13,-16,18,-2,16,65,57,54,33,26
23,16,-7,-19,15,4,33,65,54,56,30,21
20,19,-2,-19,11,8,36,65,51,51,34,16
20,25,5,-23,7,15,31,65,46,50,35,13
7,22,15,-15,-4,18,30,60,46,50,35,7
-4,21,25,-8,-15,23,25,57,50,45,40,6
-19,16,35,2,-28,25,25,54,50,42,40,10
-25,16,42,4,-34,29,20,49,50,38,40,10
0,45,45,-23,-23,45,20,46,50,35,40,10
-1,49,50,-24,-26,49,19,43,50,28,41,10
-7,40,46,-17,-27,42,15,38,47,41,38,10
-8,37,45,-15,-26,41,15,35,44,57,52,13
-16,29,45,-7,-30,36,15,32,41,59,67,16
-15,26,41,-5,-28,33,15,27,39,64,64,19
-3,36,39,-16,-22,38,15,25,35,65,65,22
7,49,42,-28,-17,45,15,29,36,65,65,24
2,47,45,-25,-22,46,15,32,48,65,65,27
-3,42,45,-20,-24,43,14,36,50,65,65,30
-5,40,45,-18,-25,42,11,39,50,64,65,33
-10,35,45,-13,-28,40,8,43,50,60,65,35
-13,32,45,-10,-29,38,5,45,50,58,65,39
-13,28,41,-7,-27,34,2,45,50,54,66,40
-14,25,40,-5,-28,32,-1,45,46,52,63,42
-17,23,40,-3,-28,31,2,45,45,49,60,45
-18,18,36,0,-27,26,6,45,45,55,60,46
3,38,34,-21,-16,35,5,50,40,64,60,51
16,52,36,-34,-10,44,5,50,40,65,60,49
9,50,40,-29,-15,45,11,50,41,65,60,53
10,50,40,-30,-15,45,18,51,47,69,64,56
11,51,40,-31,-15,45,24,49,55,70,71,54
6,49,43,-28,-19,46,31,54,60,71,79,62
7,55,48,-31,-21,51,38,63,73,85,88,74
30,79,49,-55,-10,64,38,79,90,90,94,88
44,85,41,-65,1,63,29,90,100,90,101,97
46,78,32,-62,7,55,23,86,100,106,108,98
50,74,24,-62,12,49,16,82,102,110,114,101
80,95,15,-88,32,55,11,79,113,119,124,111
101,106,6,-104,47,56,9,74,110,120,119,107
95,90,-6,-92,50,41,5,71,106,117,107,93
85,74,-12,-79,48,31,2,67,93,103,95,79
32,46,15,-39,8,30,1,58,63,73,83,49
-16,20,35,-2,-26,27,-4,48,52,64,69,35
-7,19,25,-6,-16,22,-6,41,48,60,54,34
-1,33,35,-16,-18,34,-9,29,42,59,58,38
-6,19,25,-7,-16,22,4,25,37,50,50,31
-12,23,35,-5,-24,28,1,11,30,55,62,40
-19,7,26,6,-22,16,11,6,26,47,47,33
1,21,20,-12,-9,20,14,-4,15,67,61,56
-56,98,155,-21,-106,126,4,-37,10,63,87,98
-92,211,303,-60,-198,257,-30,-169,-29,127,238,231
28,223,195,-125,-84,208,-117,-230,-12,345,495,397
319,214,-105,-267,212,54,-143,-128,214,644,743,556
647,330,-317,-488,482,7,-665,-625,150,665,779,642
846,-143,-989,-351,917,-565,-1491,-1380,-340,-41,-128,-55
864,-773,-1636,-45,1250,-1204,-1594,-1401,-726,-719,-956,-763
569,-839,-1407,135,988,-1123,-1038,-936,-879,-988,-1010,-790
316,-683,-999,184,658,-840,-530,-538,-736,-892,-839,-647
154,-468,-622,157,388,-545,-303,-374,-487,-550,-516,-401
-34,-279,-245,156,106,-262,-87,-159,-243,-290,-268,-204
-51,-96,-45,74,-3,-70,61,59,-20,-58,-81,-66
-61,-45,16,53,-38,-14,88,97,26,-8,-33,-41
-86,-57,28,71,-57,-14,105,120,51,4,-23,-45
-88,-38,50,62,-69,6,118,137,68,19,-3,-20
-90,-31,59,60,-75,14,123,143,68,12,-16,-26
-104,-37,67,70,-85,14,125,148,77,24,-5,-15
-102,-35,67,68,-84,15,132,155,77,11,-13,-18
-79,-9,70,44,-74,30,129,175,82,18,-8,-11
-93,-22,72,57,-82,25,148,176,79,11,-15,-10
-97,-23,74,60,-85,25,171,173,80,10,-23,-12
-96,-20,76,57,-86,28,170,180,81,11,-29,-19
-98,-21,77,59,-88,28,172,189,85,5,-38,-24
-107,-19,88,63,-98,34,193,195,88,-3,-44,-29
-126,-21,105,73,-115,41,206,199,90,-12,-51,-35
-125,-19,106,72,-116,43,221,205,86,-19,-56,-41
-129,-17,112,72,-120,47,240,204,80,-26,-60,-65
-156,-12,144,83,-150,66,253,209,74,-34,-64,-84
-174,-9,164,91,-169,77,285,214,70,-47,-69,-99
-188,-5,183,96,-185,89,303,202,62,-63,-80,-116
-219,-2,217,110,-218,108,317,188,37,-85,-100,-121
-243,2,244,120,-244,123,321,158,-2,-118,-127,-137
-268,9,277,130,-273,143,306,112,-37,-153,-155,-147
-278,16,294,131,-286,155,293,54,-82,-198,-186,-144
-265,23,288,121,-277,155,257,-21,-150,-249,-218,-143
-246,28,274,109,-260,151,202,-97,-205,-286,-232,-139
-214,31,245,91,-229,138,140,-162,-237,-295,-232,-141
-178,33,211,72,-195,122,90,-186,-244,-276,-212,-128
-134,37,171,48,-153,104,51,-174,-217,-225,-164,-97
-94,32,126,31,-111,79,8,-147,-158,-152,-109,-70
-34,45,79,-6,-57,62,-15,-102,-99,-88,-54,-47
12,56,44,-34,-16,49,-15,-57,-52,-27,-10,-30
25,54,29,-40,-2,41,-15,-13,-9,22,28,-21
39,57,18,-48,10,37,-15,16,22,42,50,-13
35,43,9,-39,13,26,-15,25,43,56,54,-5
61,65,4,-64,29,34,-14,48,52,63,67,3
65,64,-1,-64,33,31,-7,58,55,67,67,9
49,41,-8,-45,28,17,-1,53,59,70,58,10
58,46,-12,-52,35,16,6,57,64,74,53,10
58,39,-19,-48,38,10,12,64,65,74,45,10
70,38,-31,-54,50,3,19,66,65,69,41,10
63,34,-29,-48,46,2,24,64,65,66,44,9
57,37,-20,-47,38,9,25,62,65,63,45,5
53,41,-12,-47,33,14,25,60,64,58,45,5
43,39,-4,-41,24,17,25,60,59,55,45,5
41,44,3,-43,19,23,25,68,53,59,45,5
33,45,12,-39,10,28,25,73,50,61,48,5
22,45,24,-34,-2,34,27,69,45,60,50,9
15,45,30,-30,-8,37,25,70,40,60,53,10
7,45,39,-26,-17,42,25,66,45,60,55,10
-6,45,51,-19,-29,47,23,65,47,61,55,15
-2,45,47,-22,-25,46,19,65,45,66,55,15
4,46,43,-25,-20,44,20,61,45,69,56,16
5,46,41,-25,-18,43,20,58,40,74,54,21
19,53,34,-37,-7,43,20,55,39,75,59,25
12,51,39,-32,-14,45,20,52,41,75,70,28
-10,41,51,-16,-31,46,20,50,45,75,70,31
-12,37,48,-13,-30,42,20,47,45,75,70,34
-17,28,45,-6,-31,36,19,45,47,74,70,37
-16,27,43,-5,-30,35,15,45,51,70,70,40
-7,32,39,-13,-23,35,15,42,50,70,70,41
-20,23,43,-2,-32,33,13,39,50,70,70,45
-8,38,45,-15,-27,41,9,41,50,70,70,45
17,62,45,-40,-14,53,10,44,50,70,70,47
9,55,45,-32,-18,50,14,45,50,66,70,51
7,52,45,-30,-19,48,24,45,50,65,71,50
2,48,46,-26,-22,46,28,45,48,64,74,54
-6,43,49,-19,-28,46,25,45,45,61,77,55
-3,47,50,-22,-27,48,21,47,45,58,79,55
-7,43,50,-18,-29,46,18,51,45,65,83,55
-2,48,50,-23,-27,48,13,54,45,75,87,55
-10,40,50,-15,-30,45,9,58,46,66,92,55
1,49,48,-25,-24,48,16,60,47,74,94,69
42,84,42,-64,0,63,28,66,54,96,107,96
47,85,38,-67,4,61,42,71,76,106,123,105
55,88,34,-72,10,61,46,76,89,116,125,109
61,90,30,-76,16,60,35,75,90,113,127,119
70,94,24,-82,23,59,25,71,95,121,130,124
85,106,21,-96,32,63,15,68,94,143,131,138
76,95,20,-85,28,57,9,66,85,139,124,137
66,83,17,-75,24,50,6,63,75,134,124,129
59,74,15,-67,22,44,2,53,65,122,112,112
32,45,12,-39,10,28,-1,41,53,86,77,78
0,10,11,-5,-6,10,-6,29,42,67,59,67
-5,2,8,1,-7,4,-8,22,30,64,56,71
-9,5,14,2,-11,9,-12,18,21,59,56,71
-10,-5,5,7,-7,0,-8,22,20,51,45,67
-16,0,16,8,-16,8,-12,12,20,50,52,75
-17,-9,8,13,-12,-1,-8,18,19,46,39,63
-17,8,25,4,-21,16,-11,9,21,72,66,90
-50,104,154,-28,-102,129,3,-38,8,77,101,135
-39,234,272,-98,-156,253,-37,-154,-30,191,299,308
93,230,137,-161,-22,183,-116,-197,42,448,600,505
379,279,-100,-329,239,89,-167,-149,272,764,884,714
657,338,-319,-497,487,10,-639,-582,218,733,813,735
807,-244,-1051,-281,929,-647,-1359,-1266,-260,-47,-245,-110
776,-790,-1566,7,1172,-1178,-1518,-1393,-717,-720,-995,-740
511,-780,-1290,135,901,-1035,-996,-954,-893,-975,-988,-702
287,-642,-929,178,608,-785,-497,-546,-735,-877,-830,-585
133,-441,-574,154,354,-507,-280,-359,-474,-517,-484,-330
-21,-241,-220,131,100,-231,-51,-113,-211,-250,-235,-147
-56,-84,-28,70,-14,-56,63,69,0,-48,-65,-26
-51,-45,6,48,-28,-19,88,110,32,-16,-29,11
-54,-36,18,44,-36,-8,111,133,50,-10,-25,6
-62,-23,39,42,-50,8,115,137,59,3,-11,9
-60,-21,39,40,-49,8,126,143,58,2,-19,-4
-77,-15,62,45,-69,24,131,161,67,17,-5,0
-97,-25,72,61,-84,23,141,167,68,9,-8,-11
-88,-20,69,54,-78,24,148,164,71,11,-5,-11
-95,-20,75,57,-85,27,150,167,72,5,-15,-16
-95,-20,74,57,-84,26,152,174,82,3,-19,-14
-95,-20,76,57,-86,28,172,185,80,1,-25,-15
-99,-20,79,60,-89,29,178,183,80,-2,-31,-15
-103,-20,83,61,-93,31,182,191,80,-6,-35,-16
-113,-20,92,66,-102,36,202,210,79,-10,-40,-42
-118,-20,98,69,-108,39,218,210,80,-16,-44,-53
-133,-20,114,76,-123,47,232,210,71,-16,-46,-57
-149,-20,129,84,-139,54,253,210,65,-41,-66,-83
-178,-20,158,99,-168,69,276,210,58,-63,-85,-104
-211,-13,198,112,-204,92,291,210,44,-74,-99,-114
-216,-5,211,110,-213,103,304,190,20,-106,-121,-117
-240,4,244,118,-242,124,300,149,-28,-143,-143,-129
-267,18,285,124,-276,152,290,98,-72,-192,-184,-144
-260,32,292,114,-276,161,278,37,-120,-244,-221,-152
-249,36,284,106,-267,160,241,-37,-190,-301,-250,-154
-242,35,277,103,-260,156,194,-114,-252,-338,-267,-140
-237,35,272,101,-255,153,138,-174,-286,-346,-261,-127
-211,35,246,88,-229,140,79,-194,-275,-320,-234,-106
-162,35,197,63,-180,116,37,-180,-238,-253,-176,-65
-115,33,148,41,-132,90,20,-137,-171,-166,-105,-25
-71,30,101,21,-86,65,20,-82,-92,-75,-40,3
-33,30,64,1,-48,47,20,-33,-36,-5,6,16
-9,30,39,-11,-24,34,20,5,5,38,43,31
0,30,30,-15,-15,30,20,27,35,59,64,44
5,30,24,-18,-10,27,20,43,55,75,69,45
8,26,17,-17,-5,21,20,59,65,81,70,45
10,21,11,-16,0,16,21,65,64,83,70,45
14,19,5,-17,4,12,18,76,69,85,70,45
9,14,5,-12,2,9,33,90,76,80,70,44
6,11,5,-9,1,8,47,90,75,78,69,49
2,7,5,-5,-1,6,44,90,75,75,66,49
-1,5,5,-3,-4,5,45,90,70,72,63,53
3,5,2,-4,0,3,45,90,70,70,61,69
0,1,1,-1,-1,1,45,88,69,68,57,70
-8,0,8,4,-8,4,42,83,64,63,55,72
-13,-1,12,7,-12,5,37,80,66,60,55,76
3,20,17,-12,-7,18,35,77,62,57,55,73
22,42,20,-32,1,31,30,72,60,52,55,70
9,36,27,-23,-9,31,27,69,60,50,55,70
-14,29,43,-8,-29,36,23,66,60,45,66,68
-23,23,46,0,-35,34,19,61,60,45,71,65
-29,15,44,6,-37,30,13,59,60,44,73,64
-35,11,46,12,-40,28,10,55,60,40,75,73
-30,15,45,7,-38,29,5,50,60,39,70,77
-30,15,45,7,-38,30,0,50,59,43,70,74
-30,15,45,7,-38,30,4,50,55,45,69,75
-30,15,45,7,-38,30,5,50,55,45,65,75
-30,14,45,7,-38,30,5,50,52,48,65,75
-27,18,45,4,-36,31,10,50,49,51,65,74
-20,25,45,-3,-33,35,10,50,50,49,65,70
-5,37,42,-16,-24,39,10,45,50,45,65,68
-19,19,37,0,-28,28,10,45,50,46,65,65
-9,25,34,-9,-22,30,10,44,49,43,65,62
19,50,31,-35,-6,40,10,46,51,41,65,59
12,38,26,-25,-7,31,10,43,48,38,72,60
0,26,26,-13,-13,26,10,51,57,48,72,60
-6,24,30,-9,-18,27,14,70,76,71,70,60
-7,23,30,-8,-19,26,15,70,75,69,70,60
-1,28,28,-13,-15,28,15,70,75,71,71,59
-10,29,39,-10,-24,34,14,69,75,75,87,62
-14,30,44,-8,-29,37,17,74,75,75,97,64
34,71,37,-53,-2,54,20,83,89,75,99,65
56,89,33,-73,11,61,13,76,89,74,101,69
56,83,27,-70,14,55,4,69,95,88,99,70
65,86,21,-76,21,53,-2,64,105,90,106,74
68,85,17,-76,25,51,-13,54,98,103,113,82
85,99,15,-92,35,57,-29,53,94,115,106,90
78,91,14,-85,32,52,-32,58,88,102,97,91
47,55,8,-51,19,31,-27,53,82,93,89,75
16,30,14,-23,0,22,-25,46,77,80,70,68
-4,24,28,-11,-16,26,-22,37,64,53,31,71
0,21,21,-11,-10,21,-18,32,52,39,16,68
-2,21,23,-9,-13,22,-23,21,45,42,25,75
-2,12,14,-5,-9,13,-16,23,42,37,14,71
3,20,18,-12,-8,19,-24,17,39,45,28,80
-19,-3,16,11,-18,6,-16,17,34,34,11,69
-24,0,24,12,-24,12,-22,16,33,49,33,80
-57,81,138,-12,-98,109,-21,-30,12,39,47,114
-65,221,287,-78,-176,254,-44,-159,-67,86,199,259
34,243,210,-139,-88,226,-123,-210,-32,320,507,459
272,242,-30,-257,150,106,-171,-154,182,672,836,684
536,336,-201,-436,368,67,-688,-658,107,753,914,795
677,-196,-873,-240,775,-534,-1393,-1350,-293,130,-71,62
739,-804,-1543,33,1141,-1173,-1520,-1386,-583,-490,-942,-643
556,-852,-1408,149,982,-1130,-1060,-915,-728,-850,-1014,-681
335,-715,-1050,190,693,-883,-541,-489,-683,-910,-903,-590
195,-480,-676,143,435,-578,-327,-358,-496,-597,-577,-356
5,-285,-290,140,148,-287,-98,-147,-239,-330,-321,-167
-59,-111,-52,85,-3,-81,52,59,-4,-91,-120,-51
-62,-53,9,58,-35,-22,71,93,40,-33,-62,-18
-75,-53,22,63,-48,-15,102,120,54,-41,-66,-19
-81,-33,48,57,-64,7,103,134,69,-28,-43,-21
-79,-37,42,58,-60,2,117,136,66,-42,-53,-56
-70,-23,47,46,-58,12,115,134,76,-35,-38,-72
-64,-21,43,42,-54,11,123,137,74,-43,-40,-91
-60,-14,47,37,-53,16,129,159,80,-39,-34,-100
-57,-15,42,36,-49,13,134,159,81,-47,-41,-112
-62,-15,46,38,-54,15,157,166,86,-44,-40,-110
-86,-15,71,50,-78,28,161,185,84,-45,-40,-110
-89,-15,74,52,-81,29,167,187,77,-45,-40,-111
-94,-15,79,54,-86,32,176,189,73,-45,-45,-109
-92,-12,81,52,-86,34,186,193,67,-45,-54,-116
-84,-4,80,44,-81,38,206,195,61,-48,-62,-126
-88,2,91,43,-90,47,223,198,57,-65,-80,-152
-94,10,104,42,-100,57,245,204,49,-75,-88,-183
-116,16,131,50,-123,73,260,195,36,-104,-106,-211
-127,23,150,52,-139,86,285,180,24,-129,-125,-241
-147,24,171,61,-159,97,298,164,-15,-154,-150,-270
-168,29,196,69,-182,112,290,135,-60,-202,-182,-294
-189,29,217,80,-203,123,289,93,-102,-251,-215,-308
-216,36,252,90,-234,143,281,30,-159,-301,-246,-312
-202,52,254,75,-228,153,235,-39,-215,-349,-274,-305
-193,47,240,73,-217,144,171,-114,-277,-383,-287,-299
-175,46,221,64,-198,134,113,-172,-293,-383,-274,-293
-138,41,179,48,-159,110,55,-191,-278,-350,-258,-262
-102,42,144,30,-123,92,13,-182,-261,-300,-208,-221
-76,37,113,19,-94,75,-12,-144,-197,-217,-132,-179
-42,46,87,-2,-64,66,-21,-99,-119,-126,-64,-134
5,75,70,-40,-33,72,-19,-63,-63,-61,-11,-102
25,81,56,-53,-16,69,-23,-25,-19,-8,27,-85
52,96,45,-74,3,70,-25,2,15,23,52,-76
57,92,36,-75,10,64,-25,15,39,38,56,-68
50,78,28,-64,11,53,-22,30,49,45,55,-60
53,72,18,-63,17,45,-16,43,52,47,55,-53
47,62,15,-55,16,39,-12,54,55,51,55,-45
47,60,13,-54,17,36,-7,58,57,54,55,-35
44,54,10,-49,17,31,-3,63,61,58,51,-25
44,51,7,-48,19,28,1,64,58,60,50,-15
41,45,4,-43,18,24,5,59,54,63,50,-5
32,42,10,-37,11,26,9,72,56,66,50,3
19,39,20,-30,-1,29,12,76,51,70,50,12
12,40,28,-26,-9,34,17,71,50,70,51,20
23,55,33,-39,-5,43,20,70,50,65,56,24
23,59,36,-41,-7,47,16,66,45,62,55,32
9,49,41,-29,-16,45,14,64,45,58,58,34
4,47,44,-26,-20,45,15,61,44,55,60,30
-12,39,50,-14,-31,44,14,55,40,50,60,30
-22,37,58,-7,-41,47,16,51,40,52,63,30
3,64,61,-33,-29,62,13,46,42,56,66,30
9,72,64,-41,-27,68,11,41,45,55,69,30
-2,65,67,-32,-35,66,7,42,48,62,72,33
-4,65,69,-30,-37,67,5,46,51,73,74,36
-12,60,72,-24,-42,66,2,48,54,75,77,42
-15,60,75,-23,-45,67,-1,51,55,75,80,49
-19,56,75,-19,-48,65,11,54,55,82,80,52
-24,53,77,-15,-51,65,16,55,55,87,82,56
-30,50,81,-10,-55,65,15,55,55,90,86,61
-32,47,80,-7,-56,63,13,55,55,95,85,66
-31,46,77,-7,-55,61,9,55,55,99,82,69
-36,38,74,-1,-55,56,10,55,55,104,79,74
-24,47,71,-11,-48,59,7,55,55,103,80,75
-17,51,68,-17,-43,59,4,57,55,100,80,76
-20,45,65,-13,-43,55,1,60,55,96,80,80
-21,44,64,-12,-43,54,-2,63,55,94,81,83
-26,40,66,-8,-46,53,-5,66,56,90,85,85
-23,39,63,-9,-43,51,-4,69,59,90,85,88
-16,55,71,-20,-43,63,11,70,64,100,84,90
4,84,80,-44,-38,82,29,77,79,106,92,94
11,87,76,-49,-33,81,31,88,93,119,108,111
14,85,71,-50,-29,77,20,86,96,131,117,116
17,85,68,-51,-26,77,12,81,95,134,114,115
29,87,58,-58,-15,73,3,79,102,142,124,125
73,105,31,-89,21,68,-7,74,103,143,138,140
77,100,23,-89,27,61,-11,71,94,136,134,150
63,94,31,-79,16,62,-16,67,86,130,129,145
55,89,34,-72,11,61,-19,61,77,122,127,136
23,55,32,-39,-5,43,-20,57,72,117,113,117
-1,30,31,-15,-16,31,-21,49,61,104,84,93
-4,23,27,-10,-16,25,-18,47,58,89,72,83
-14,19,34,-3,-24,26,-23,36,46,79,75,80
-17,8,25,5,-22,16,-16,40,44,71,62,66
-28,7,35,10,-32,21,-24,29,31,80,70,67
-33,-2,31,17,-32,14,-10,33,33,65,52,51
-20,16,37,2,-29,27,-13,24,37,77,71,66
-64,87,151,-12,-108,119,-23,-39,-11,62,88,100
-78,215,293,-69,-186,254,-59,-167,-46,114,228,237
36,237,202,-137,-83,219,-112,-224,-4,342,490,415
331,234,-97,-282,213,69,-155,-158,226,681,775,597
633,345,-287,-489,460,29,-817,-791,75,685,821,698
812,-144,-956,-334,884,-550,-1605,-1558,-439,-9,-105,-3
840,-814,-1654,-13,1247,-1233,-1547,-1360,-671,-635,-934,-713
591,-873,-1464,141,1028,-1168,-959,-815,-780,-910,-1002,-746
369,-690,-1059,161,714,-874,-504,-475,-683,-839,-842,-611
200,-483,-683,142,442,-583,-310,-342,-479,-538,-526,-380
2,-284,-286,141,144,-285,-79,-146,-246,-287,-283,-185
-60,-121,-61,90,1,-90,68,68,-5,-47,-89,-40
-63,-61,2,62,-32,-30,95,113,38,4,-33,-16
-63,-47,16,55,-39,-15,108,126,61,15,-26,-27
-82,-42,39,62,-60,-1,114,142,74,27,-12,-10
-95,-46,49,70,-72,1,129,156,80,22,-21,-17
-93,-38,56,65,-74,9,133,161,88,30,-8,-6
-101,-42,60,71,-81,9,152,165,82,22,-13,-7
-102,-37,65,69,-83,14,162,173,91,25,-10,4
-102,-33,68,67,-85,17,162,176,89,18,-17,9
-103,-30,73,66,-88,21,167,181,91,21,-18,15
-105,-26,79,65,-92,26,180,195,95,17,-21,24
-109,-23,86,65,-97,31,193,201,95,12,-25,22
-108,-19,88,63,-98,34,212,206,97,10,-25,12
-112,-16,97,64,-104,40,225,219,100,5,-31,4
-126,-13,113,70,-120,50,239,225,101,2,-37,-5
-132,-8,125,70,-129,58,264,234,97,-2,-43,-14
-155,-8,147,81,-151,69,279,237,88,-14,-45,-31
-166,10,175,78,-170,92,312,225,80,-28,-51,-53
-168,32,200,68,-184,116,337,213,71,-44,-72,-68
-203,29,233,87,-218,131,351,203,55,-68,-88,-84
-232,30,262,100,-247,145,363,177,26,-97,-108,-90
-257,30,287,113,-272,159,352,132,-23,-144,-143,-104
-275,29,304,122,-289,166,326,71,-81,-187,-184,-116
-261,33,294,114,-277,163,279,-2,-134,-226,-215,-110
-246,35,281,105,-264,158,212,-79,-190,-263,-220,-104
-226,35,261,95,-244,148,143,-150,-225,-262,-222,-99
-181,35,216,73,-199,125,89,-165,-226,-247,-210,-92
-140,35,175,53,-158,104,50,-150,-208,-220,-164,-66
-97,35,133,31,-116,84,21,-131,-152,-143,-97,-30
-50,39,89,5,-69,64,6,-86,-87,-62,-36,1
-12,44,56,-16,-34,50,4,-40,-35,-6,8,14
10,43,34,-27,-12,38,5,-2,8,34,41,18
13,38,26,-26,-7,31,5,24,28,58,57,26
16,35,19,-26,-2,27,5,41,44,75,60,32
19,32,12,-26,3,22,6,51,56,75,60,39
21,27,6,-25,8,16,11,54,60,73,60,40
25,24,0,-25,12,12,16,59,60,86,60,40
25,21,-5,-22,15,7,20,62,62,86,60,40
21,17,-5,-18,13,6,25,70,66,77,60,40
20,13,-6,-16,13,3,29,74,65,70,55,41
20,10,-10,-15,15,0,34,70,62,62,55,39
15,5,-11,-10,12,-2,35,70,59,56,54,34
15,8,-7,-11,11,0,35,70,56,50,50,28
13,14,1,-14,6,7,35,70,54,50,50,25
13,21,8,-17,3,14,35,71,50,50,52,20
19,32,13,-26,2,23,34,67,51,50,56,15
9,37,27,-23,-10,32,30,65,55,50,55,19
-3,38,41,-18,-22,39,30,65,55,52,55,25
3,43,39,-23,-18,41,30,65,59,56,55,31
3,44,41,-23,-20,42,30,65,60,58,55,34
-2,47,49,-22,-26,48,30,65,60,61,60,30
11,61,50,-36,-20,56,26,60,60,64,60,30
11,61,50,-36,-19,55,21,57,60,66,61,30
1,51,50,-26,-25,50,16,53,59,69,65,30
-4,47,50,-21,-27,48,13,49,55,70,65,30
-13,36,49,-11,-31,42,7,46,55,71,63,33
-12,34,45,-12,-29,39,6,42,55,75,59,38
1,44,43,-23,-21,43,10,40,55,75,60,41
6,46,40,-26,-17,42,10,36,55,73,60,45
8,44,37,-26,-15,40,10,34,52,68,60,45
6,41,35,-24,-14,37,10,30,49,65,60,47
5,40,35,-23,-15,37,10,30,46,62,55,50
4,39,35,-22,-16,37,10,35,43,57,55,50
0,35,35,-18,-18,35,10,35,40,56,55,46
0,35,35,-18,-18,35,10,38,41,59,55,45
1,35,35,-18,-18,35,10,40,45,62,55,45
-2,35,36,-17,-19,35,10,42,47,64,57,45
-7,35,42,-14,-25,38,11,48,51,68,60,44
1,50,50,-26,-25,50,18,51,53,69,60,46
16,65,49,-40,-17,57,24,55,58,74,70,54
3,58,55,-31,-26,56,30,70,77,87,83,64
5,70,64,-38,-30,67,34,80,89,97,92,70
40,91,52,-66,-6,71,30,76,93,101,100,69
43,87,44,-65,-1,65,27,70,95,112,105,86
55,83,29,-69,13,56,14,66,87,115,110,100
84,80,-4,-82,44,38,-13,61,81,108,108,106
84,75,-10,-79,46,32,-29,57,74,100,101,107
71,74,3,-72,34,38,-31,52,68,95,97,94
42,50,9,-46,16,29,-24,47,58,83,88,77
19,36,17,-28,1,26,-25,38,39,59,81,47
3,17,14,-11,-5,15,-17,33,34,42,58,26
-5,10,15,-3,-10,12,-16,26,29,43,51,33
-14,2,17,6,-16,10,-19,18,24,33,40,27
-37,-26,11,31,-24,-7,-21,18,22,33,39,25
-47,-25,22,36,-34,-1,-30,9,13,25,36,28
-35,-25,10,30,-22,-8,-22,17,15,26,23,18
-33,35,67,-1,-50,51,-45,-7,3,41,58,47
-69,148,217,-40,-143,182,-23,-101,-29,44,121,129
-36,240,276,-102,-156,258,-90,-241,-70,191,352,314
169,192,23,-180,73,107,-109,-164,85,466,593,452
501,295,-206,-398,353,44,-338,-316,235,729,848,663
768,190,-578,-479,673,-193,-1196,-1143,-136,363,430,395
898,-534,-1432,-182,1165,-983,-1685,-1514,-577,-441,-659,-499
756,-895,-1652,70,1204,-1274,-1320,-1125,-797,-884,-1047,-823
450,-785,-1236,168,843,-1010,-725,-671,-819,-993,-955,-718
269,-598,-867,165,568,-732,-401,-431,-604,-741,-700,-526
82,-381,-463,150,272,-422,-208,-285,-388,-443,-395,-288
-42,-186,-144,115,51,-165,-2,-37,-122,-189,-176,-136
-50,-60,-10,56,-19,-35,66,87,28,-29,-36,-44
-59,-59,0,59,-29,-30,90,108,34,-30,-33,-54
-62,-43,19,52,-40,-12,103,134,61,-1,-8,-34
-65,-35,30,50,-47,-2,115,136,56,-8,-18,-28
-65,-26,39,45,-52,6,124,153,65,2,-12,-24
-71,-21,50,46,-60,14,127,169,78,5,-8,-18
-78,-29,49,53,-63,10,140,171,83,8,-12,-18
-80,-21,59,50,-69,19,142,167,87,12,-11,-11
-93,-34,58,63,-75,11,149,186,93,8,-19,-11
-121,-46,74,83,-97,14,164,198,96,12,-19,-5
-114,-33,80,73,-97,23,179,197,95,9,-25,-5
-104,-23,82,63,-93,29,199,201,100,11,-28,-5
-124,-18,107,71,-115,44,205,210,100,8,-32,-6
-130,-12,117,71,-123,52,221,217,99,3,-35,-4
-133,-9,124,70,-128,57,243,228,93,-3,-35,-11
-146,-3,143,74,-144,69,264,235,86,-8,-34,-32
-171,1,172,85,-172,86,300,225,79,-17,-46,-51
-193,6,199,93,-196,103,322,217,73,-38,-61,-66
-214,16,230,99,-222,122,334,209,63,-61,-76,-85
-244,19,263,112,-254,141,347,191,42,-89,-100,-92
-260,31,291,114,-276,161,347,148,5,-124,-125,-90
-267,50,317,108,-292,184,327,101,-40,-163,-155,-109
-273,45,318,113,-296,181,290,40,-98,-206,-187,-119
-270,40,309,115,-290,174,241,-41,-159,-249,-213,-110
-269,38,307,116,-288,172,183,-112,-201,-261,-213,-102
-244,29,274,107,-259,151,125,-158,-221,-249,-207,-94
-189,34,223,77,-206,128,73,-167,-214,-239,-187,-78
-142,34,176,54,-160,105,28,-146,-179,-187,-128,-47
-87,37,123,25,-106,80,9,-102,-112,-99,-67,-22
-56,27,83,14,-70,55,11,-60,-51,-35,-20,-4
-33,26,59,3,-47,43,8,-14,-5,10,20,11
8,55,46,-32,-19,50,5,20,31,41,48,22
15,54,38,-35,-12,46,5,31,43,59,59,35
14,40,26,-28,-6,33,7,51,52,69,60,37
15,36,21,-26,-3,28,11,57,63,74,61,35
27,45,18,-36,4,31,13,58,69,73,64,35
31,46,15,-39,8,30,16,62,72,69,66,30
20,32,13,-26,3,22,19,64,74,70,63,30
20,29,9,-24,5,19,21,69,78,70,60,29
-3,10,12,-4,-8,11,24,70,80,70,58,25
-10,8,17,1,-14,12,25,70,78,69,55,23
3,26,23,-15,-10,24,28,70,71,66,52,20
0,26,26,-13,-14,26,30,70,67,63,50,17
-11,21,32,-5,-22,26,30,70,61,60,47,14
-14,20,34,-4,-24,27,30,70,55,57,44,15
-17,14,31,1,-24,22,30,70,51,55,41,15
-26,16,42,4,-34,29,30,67,49,55,38,15
-11,37,48,-13,-30,42,30,64,59,55,35,15
-9,42,51,-16,-30,46,30,61,67,55,36,15
-17,39,56,-12,-36,47,25,58,62,55,42,17
-14,40,54,-14,-34,47,25,55,60,55,49,20
-18,40,58,-11,-38,49,24,53,56,55,53,22
-21,39,60,-9,-41,50,20,50,55,55,57,25
-24,36,60,-6,-42,48,20,47,52,55,60,28
-24,33,57,-5,-41,44,18,45,49,55,60,30
-21,31,52,-5,-37,41,13,41,51,55,60,33
-22,27,49,-2,-36,38,10,40,49,54,60,36
-21,25,46,-2,-34,35,7,37,51,58,60,35
-14,27,41,-7,-27,34,2,34,48,60,56,35
-10,31,41,-10,-26,36,0,35,45,60,54,35
0,45,45,-23,-23,45,5,35,45,64,55,36
7,52,45,-30,-19,48,5,35,43,65,55,40
4,49,45,-27,-20,47,5,36,39,65,55,39
5,50,45,-28,-20,47,5,40,40,60,55,42
5,50,45,-28,-20,47,5,42,43,60,55,46
4,50,45,-28,-20,47,7,45,46,59,55,44
6,51,45,-29,-20,47,12,48,49,54,55,46
4,49,45,-27,-20,47,15,50,52,57,55,44
5,50,45,-28,-20,47,18,53,55,50,54,46
7,53,45,-31,-19,49,23,58,56,60,62,44
12,56,44,-35,-16,50,25,62,65,77,75,48
41,80,39,-61,1,59,20,69,74,83,89,63
58,93,35,-76,12,64,13,84,82,95,97,71
61,92,30,-77,15,61,7,86,93,101,101,85
72,98,26,-85,22,62,-1,77,99,108,104,95
84,105,21,-95,31,63,-6,71,99,118,112,108
94,105,10,-100,42,57,-18,63,91,115,111,110
100,99,0,-100,50,49,-36,56,82,113,100,96
97,90,-7,-93,52,41,-32,49,73,103,90,85
68,63,-5,-65,36,29,-24,43,63,71,80,59
25,27,2,-26,11,15,-22,35,45,53,71,42
9,12,2,-11,3,7,-13,31,31,47,58,38
18,31,13,-24,2,21,-15,20,24,42,53,38
19,23,3,-21,8,13,-2,19,23,32,40,30
17,24,7,-21,5,15,-10,9,20,30,51,34
9,9,0,-9,5,4,-11,11,16,23,40,27
6,6,0,-7,3,3,-17,8,17,42,48,41
-42,83,124,-21,-83,103,-24,-40,-7,44,66,76
-69,213,283,-72,-176,248,-41,-168,-55,94,199,210
42,249,207,-146,-82,228,-120,-242,-28,303,460,383
313,211,-103,-262,208,54,-137,-140,204,619,716,550
653,340,-312,-496,482,14,-648,-616,152,673,787,681
857,-78,-936,-389,896,-507,-1490,-1393,-337,19,-60,18
897,-755,-1652,-71,1275,-1203,-1604,-1400,-693,-675,-938,-748
656,-836,-1491,90,1073,-1163,-1066,-931,-868,-971,-1032,-798
367,-697,-1065,165,716,-881,-555,-535,-765,-903,-871,-661
206,-491,-697,143,452,-594,-318,-379,-519,-588,-557,-422
10,-293,-303,142,157,-298,-113,-184,-278,-326,-300,-218
-49,-121,-72,85,12,-96,47,51,-24,-87,-97,-93
-47,-50,-3,49,-22,-27,80,98,26,-30,-37,-42
-71,-55,17,63,-44,-19,101,123,43,-25,-39,-36
-84,-38,46,61,-65,4,117,138,69,4,-12,-24
-93,-45,48,69,-71,1,126,150,69,3,-17,-26
-89,-35,53,62,-71,9,141,167,82,15,-5,-14
-92,-37,55,64,-73,9,158,168,81,7,-13,-13
-92,-33,59,62,-75,13,160,174,87,12,-8,-6
-100,-29,71,64,-85,21,165,177,84,9,-11,-4
-95,-18,76,56,-85,29,165,180,87,10,-9,-1
-115,-30,85,72,-100,28,167,180,93,7,-21,2
-124,-45,79,84,-101,17,185,195,92,0,-32,5
-109,-23,86,66,-97,31,190,209,89,-3,-29,4
-122,-16,106,69,-114,45,209,212,90,-9,-36,-5
-125,-12,113,68,-119,50,230,223,90,-12,-34,-15
-128,-5,123,66,-125,59,246,223,91,-17,-39,-25
-135,0,135,68,-135,67,275,216,89,-30,-50,-40
-152,6,159,73,-156,82,294,210,75,-47,-59,-64
-171,15,187,78,-179,101,320,202,58,-67,-71,-73
-204,16,220,94,-213,118,337,197,38,-79,-83,-79
-238,14,252,111,-245,133,338,165,7,-111,-112,-93
-242,37,279,102,-261,158,333,117,-29,-158,-144,-102
-255,48,303,104,-280,175,309,67,-72,-194,-175,-112
-262,40,303,111,-283,171,271,-2,-129,-240,-206,-109
-253,39,292,107,-273,166,213,-77,-190,-276,-227,-102
-243,34,277,104,-260,155,147,-147,-232,-279,-233,-96
-210,30,240,90,-225,135,88,-187,-234,-267,-206,-92
-150,33,183,59,-167,108,38,-181,-211,-235,-164,-78
-95,35,129,29,-112,82,8,-145,-164,-159,-108,-47
-42,49,91,-4,-66,70,-6,-96,-95,-84,-49,-10
8,57,49,-33,-21,53,-17,-54,-40,-41,-5,16
24,49,25,-37,-1,37,-16,-19,-4,5,29,25
26,46,20,-36,3,32,-9,3,19,44,42,30
29,41,12,-35,8,27,-6,15,34,54,40,30
30,36,6,-34,12,21,-1,26,46,55,40,30
34,33,-1,-33,17,15,3,34,50,56,40,30
34,28,-6,-31,20,11,8,49,53,59,40,29
40,25,-15,-32,27,5,17,54,56,61,40,34
39,22,-17,-30,28,2,27,61,51,58,37,39
32,17,-14,-24,23,1,25,77,50,56,34,33
29,14,-15,-21,22,0,25,73,50,52,31,27
21,11,-10,-16,16,0,24,70,46,50,28,23
19,9,-10,-14,15,-1,20,68,44,47,25,16
21,11,-9,-16,15,1,20,64,47,44,26,12
10,7,-3,-9,6,2,22,63,50,49,30,6
17,21,4,-19,6,12,28,58,50,50,33,5
30,41,11,-36,10,26,30,55,50,50,36,5
23,40,17,-31,3,28,30,52,50,55,35,1
14,40,26,-27,-6,33,30,47,50,56,36,-1
9,40,31,-25,-11,35,30,44,46,54,43,1
10,40,30,-25,-9,35,30,41,45,50,49,5
8,38,30,-23,-12,34,26,37,45,50,54,5
4,34,30,-19,-13,31,21,33,40,48,55,7
6,36,30,-21,-13,32,19,30,40,44,55,11
1,35,34,-18,-17,34,14,25,40,46,60,10
0,35,35,-18,-18,35,11,27,40,47,60,14
-1,34,35,-17,-18,35,7,30,40,53,60,17
-4,30,35,-13,-20,32,5,30,40,54,60,22
-6,30,35,-13,-20,32,5,34,40,54,60,25
-4,30,34,-13,-19,31,1,35,40,69,60,25
0,30,30,-15,-15,30,0,35,44,67,60,30
-1,29,30,-14,-15,30,0,35,45,60,60,30
3,33,30,-18,-14,31,-6,35,45,59,63,26
12,42,30,-27,-9,35,-10,35,45,51,66,25
11,42,30,-27,-9,36,-10,35,45,52,65,25
5,35,30,-20,-13,32,-10,35,44,55,65,25
5,35,30,-20,-13,32,-10,35,40,60,64,24
-2,28,30,-13,-16,29,-10,35,40,63,66,27
-3,27,30,-12,-17,28,-10,35,38,66,70,30
-8,22,30,-7,-19,25,-4,35,35,69,70,30
-14,17,31,-2,-23,24,1,34,35,71,72,32
18,58,40,-38,-11,49,8,37,38,76,75,36
35,77,42,-56,-4,59,11,45,45,73,74,35
43,79,36,-61,3,57,22,65,60,80,79,37
53,85,32,-69,10,58,37,84,85,100,96,57
58,86,28,-72,15,56,30,89,91,106,107,67
68,92,23,-80,23,57,22,86,90,109,109,64
67,86,18,-77,24,52,17,78,91,118,114,66
94,99,5,-97,44,51,7,71,83,132,112,66
119,99,-20,-109,69,40,2,64,76,129,104,61
106,88,-18,-96,62,35,-7,55,69,118,101,58
66,61,-6,-63,36,27,-13,50,61,96,91,52
24,27,3,-26,10,15,-23,40,50,74,70,26
18,25,8,-22,4,16,-22,34,38,68,43,5
13,24,11,-19,1,18,-19,28,28,72,47,13
1,23,22,-12,-11,23,-22,17,17,66,44,8
-1,17,18,-8,-10,17,-13,16,12,64,39,10
-12,25,37,-7,-25,31,-20,8,3,68,44,13
-6,17,24,-6,-15,20,-8,24,-4,66,35,6
-29,38,67,-5,-48,52,-34,10,-11,85,71,51
-69,143,212,-37,-141,177,-34,-72,-23,75,114,104
-44,261,305,-109,-175,283,-73,-218,-43,203,339,284
130,221,91,-176,19,156,-122,-202,68,463,585,426
468,288,-180,-378,324,54,-244,-222,269,744,834,631
734,262,-472,-498,603,-105,-948,-904,25,520,568,485
883,-401,-1284,-241,1084,-843,-1606,-1479,-493,-308,-529,-420
781,-851,-1632,35,1207,-1241,-1434,-1270,-805,-840,-1044,-855
463,-783,-1246,160,855,-1014,-828,-787,-871,-979,-967,-759
268,-615,-883,174,575,-749,-440,-484,-664,-772,-748,-591
93,-395,-488,151,291,-441,-241,-323,-417,-448,-422,-344
-50,-212,-161,131,56,-186,-24,-78,-157,-199,-200,-174
-71,-90,-20,81,-25,-55,72,79,16,-25,-42,-50
-81,-62,19,71,-50,-22,103,104,27,-14,-38,-25
-97,-47,50,72,-74,2,112,126,58,28,-11,-13
-97,-37,60,67,-78,11,119,140,67,32,6,-15
-95,-36,59,65,-77,11,133,155,80,28,2,-16
-104,-34,70,69,-87,18,136,165,87,33,9,-13
-101,-36,65,69,-83,14,145,169,83,24,1,-16
-112,-34,78,72,-94,22,151,176,87,27,2,-9
-135,-36,99,86,-117,31,163,183,89,24,-6,-6
-134,-32,102,83,-118,35,170,193,98,31,-6,0
-130,-26,104,77,-116,39,170,202,102,29,-12,3
-128,-20,109,74,-118,44,188,206,106,30,-15,10
-124,-16,108,70,-116,46,214,226,105,29,-20,6
-130,-14,116,72,-123,51,232,243,108,30,-28,-10
-147,-10,137,78,-142,63,244,245,111,26,-34,-27
-158,-8,151,83,-154,71,267,251,110,10,-41,-36
-159,0,158,79,-158,79,293,246,100,-6,-50,-55
-177,6,183,86,-181,94,305,239,81,-21,-55,-83
-199,12,211,93,-205,111,323,233,65,-46,-64,-95
-226,20,246,103,-237,133,336,205,37,-82,-90,-105
-263,24,287,119,-275,155,328,170,13,-113,-112,-120
-265,38,303,114,-285,170,319,120,-30,-157,-148,-122
-271,40,311,115,-291,176,312,52,-93,-204,-175,-117
-277,37,313,120,-295,175,275,-17,-142,-240,-196,-115
-265,34,299,116,-283,166,212,-95,-201,-273,-213,-110
-235,31,266,102,-251,149,145,-159,-221,-277,-198,-107
-200,29,229,85,-215,129,93,-172,-209,-256,-183,-102
-166,23,189,71,-178,106,56,-154,-198,-204,-144,-75
-81,55,136,13,-109,95,15,-125,-138,-126,-73,-42
-26,66,92,-20,-59,78,-1,-87,-79,-51,-21,-18
-11,53,64,-21,-38,58,0,-42,-37,8,21,-5
11,53,42,-32,-16,47,-6,-3,6,47,62,1
16,41,25,-29,-5,33,-2,22,34,63,75,7
40,57,17,-49,11,37,6,40,48,69,80,18
55,65,11,-60,22,38,13,48,52,75,84,27
47,50,3,-49,22,27,18,54,63,75,77,25
45,40,-5,-42,25,17,16,61,66,75,73,25
39,31,-8,-35,24,11,15,65,64,75,68,27
33,28,-5,-30,19,11,15,65,65,75,64,39
29,24,-5,-26,17,9,14,68,65,73,60,50
24,21,-3,-23,14,9,17,73,64,69,55,53
14,15,1,-15,6,8,26,74,60,67,55,59
20,19,-1,-19,10,8,33,70,58,64,54,59
23,31,7,-27,8,19,31,70,55,61,50,55
3,30,27,-17,-12,29,30,68,52,59,51,55
-10,29,38,-10,-24,33,30,65,50,56,48,53
-16,27,43,-6,-30,35,30,65,47,55,45,49
-26,22,48,1,-37,35,30,61,44,54,45,50
-18,32,50,-7,-34,41,28,56,41,50,41,53
-5,45,50,-20,-28,47,23,51,38,50,40,57
-10,41,50,-15,-30,45,17,48,36,53,40,60
-15,34,50,-9,-33,42,14,42,33,55,40,63
-18,33,50,-7,-34,41,8,41,30,56,40,66
-25,25,49,0,-37,37,6,45,30,60,40,72
-29,25,54,2,-42,39,9,45,28,60,40,79
-13,42,55,-15,-34,49,12,45,25,60,40,84
-10,44,55,-17,-33,49,14,45,25,61,40,85
-29,38,67,-5,-48,52,18,45,30,58,40,87
-28,37,66,-5,-47,51,20,41,36,69,40,91
-27,30,57,-2,-42,43,18,40,34,75,52,88
-19,32,51,-7,-35,41,15,40,38,68,56,85
-5,37,42,-16,-24,39,12,35,40,65,51,82
-1,35,36,-18,-19,36,9,35,39,60,50,80
0,35,35,-18,-18,35,5,36,44,55,45,76
-2,33,35,-16,-19,34,5,40,45,55,46,75
-5,29,35,-13,-20,32,9,40,45,55,49,72
-5,30,35,-13,-20,32,12,40,50,54,52,65
-7,28,35,-11,-21,31,15,41,50,56,54,64
-15,22,37,-4,-27,29,18,39,51,54,58,55
-11,32,42,-11,-27,37,20,47,57,59,59,60
-6,40,47,-17,-27,43,22,60,60,72,64,85
23,73,50,-48,-14,61,30,65,65,78,77,103
61,104,43,-83,9,73,35,67,68,85,83,109
63,99,36,-81,14,67,25,64,74,84,86,114
70,100,30,-86,20,65,10,60,81,93,92,114
78,101,22,-90,28,61,-2,57,75,102,93,123
79,100,20,-89,29,60,-9,52,70,100,102,134
81,97,16,-89,32,56,-13,50,65,112,105,135
72,88,15,-80,28,51,-21,45,58,114,107,133
40,49,9,-44,15,29,-24,42,54,83,97,89
9,21,12,-15,-1,16,-26,38,49,55,68,63
1,14,13,-8,-7,14,-24,35,46,47,46,65
-8,11,20,-2,-14,15,-26,30,43,49,54,71
-15,3,19,6,-17,11,-25,27,38,42,45,70
-13,-2,11,7,-12,4,-23,18,35,42,47,75
-25,-4,22,14,-23,9,-26,7,31,39,46,78
-28,-26,2,26,-15,-12,-10,3,30,44,43,75
-35,26,61,4,-48,43,-19,-14,27,52,70,101
-69,149,217,-40,-143,182,-17,-80,-10,60,135,178
-13,260,273,-124,-143,266,-85,-195,-25,245,425,401
179,225,45,-202,67,135,-123,-136,118,543,722,572
456,338,-117,-397,286,110,-296,-251,275,831,1012,813
657,164,-494,-410,575,-165,-932,-911,30,495,500,471
738,-571,-1309,-83,1024,-940,-1469,-1431,-450,-314,-688,-481
665,-818,-1483,77,1074,-1151,-1355,-1273,-759,-771,-1030,-737
422,-731,-1153,155,787,-941,-781,-752,-806,-962,-964,-652
242,-589,-831,174,536,-709,-410,-450,-619,-757,-726,-487
87,-344,-431,129,259,-387,-210,-268,-369,-423,-383,-238
-49,-182,-133,116,42,-157,-3,-14,-101,-175,-166,-83
-64,-80,-16,72,-24,-48,56,92,28,-24,-32,15
-60,-68,-8,64,-26,-38,87,109,38,-25,-45,6
-60,-51,9,55,-34,-21,106,131,71,-2,-20,30
-57,-40,17,48,-37,-11,118,137,69,-10,-23,24
-71,-44,27,57,-49,-8,112,148,69,-3,-16,24
-90,-54,36,72,-63,-9,122,162,82,0,-7,27
-90,-56,34,72,-61,-11,145,164,96,-2,-8,23
-87,-49,38,68,-63,-6,143,166,95,-2,-8,27
-91,-50,41,70,-66,-4,151,169,94,-9,-20,19
-90,-45,45,67,-67,0,152,170,96,-8,-22,17
-95,-44,51,69,-73,3,159,186,94,-14,-32,14
-96,-39,57,67,-77,9,164,199,92,-14,-37,8
-96,-34,62,65,-79,14,173,199,84,-19,-43,7
-101,-30,71,65,-86,20,196,201,81,-32,-53,0
-108,-25,83,66,-95,28,220,220,74,-42,-60,-15
-118,-20,98,69,-108,39,242,222,69,-54,-70,-39
-129,-16,112,73,-120,48,257,209,65,-68,-80,-80
-149,-14,136,81,-142,61,273,205,48,-88,-102,-112
-176,-11,165,93,-171,77,291,194,35,-115,-131,-139
-200,-8,192,104,-196,92,304,182,3,-149,-148,-161
-228,-5,222,116,-224,108,300,145,-48,-199,-187,-184
-246,-4,242,124,-243,119,291,86,-94,-252,-224,-207
-241,1,242,119,-241,121,267,23,-155,-302,-262,-208
-223,5,229,109,-226,117,223,-55,-222,-357,-292,-203
-208,10,218,99,-213,114,167,-127,-273,-387,-285,-193
-190,14,203,88,-197,108,99,-175,-287,-372,-280,-187
-137,27,164,55,-151,95,50,-178,-276,-335,-253,-177
-95,37,132,29,-114,84,24,-157,-226,-257,-195,-151
-77,34,111,21,-94,72,12,-127,-147,-157,-119,-114
-40,39,79,0,-60,59,10,-82,-84,-84,-46,-76
-18,43,62,-13,-40,52,10,-33,-33,-16,1,-62
-6,48,54,-21,-31,51,7,0,1,33,32,-60
4,49,45,-27,-20,47,4,15,22,54,46,-54
6,42,37,-24,-16,39,6,30,40,64,50,-50
7,36,29,-22,-11,32,9,42,52,71,50,-45
7,29,22,-18,-8,25,10,48,60,72,49,-40
7,22,15,-15,-4,18,13,50,65,69,51,-32
9,16,7,-13,1,12,16,57,71,71,49,-24
13,14,1,-14,5,8,14,71,78,69,52,-16
10,15,5,-13,2,10,16,76,80,71,55,-8
2,15,13,-8,-6,13,14,75,80,68,55,-5
-4,15,19,-6,-12,17,16,75,80,64,57,-2
-11,15,26,-2,-19,20,33,75,80,66,61,0
-17,15,32,1,-25,24,36,75,80,61,60,4
-11,26,37,-8,-24,32,31,70,80,60,60,5
-9,32,41,-12,-25,36,29,66,74,60,60,2
-12,28,40,-8,-26,34,25,61,68,55,60,-1
-14,32,46,-9,-30,38,25,57,61,52,60,-4
-16,28,44,-7,-30,36,20,52,54,48,60,-7
-7,32,39,-13,-23,36,12,44,48,45,60,-10
-16,44,60,-15,-38,52,6,38,42,40,60,-9
-21,45,65,-12,-43,55,-1,30,40,41,60,-2
-14,42,56,-14,-35,48,-8,22,37,39,60,4
-20,35,55,-7,-38,44,-8,16,34,42,59,11
3,51,48,-27,-23,49,-5,14,31,50,66,18
18,64,46,-41,-14,54,-1,15,30,51,71,24
1,51,50,-26,-24,50,0,15,30,49,70,25
-8,42,50,-17,-29,46,-5,15,30,50,70,25
-4,47,51,-21,-28,49,-5,14,30,65,70,25
1,56,55,-29,-28,56,-5,16,30,70,70,25
-5,50,55,-23,-30,52,-5,24,30,61,66,25
-5,48,53,-21,-29,50,-5,25,32,59,64,25
-5,44,48,-20,-27,46,-5,25,38,53,65,25
-5,39,45,-18,-25,41,-5,25,41,50,65,25
2,44,42,-23,-21,43,-5,25,45,55,65,25
10,46,36,-28,-14,41,-5,26,50,55,66,25
14,50,36,-33,-11,43,-5,31,50,56,70,25
19,53,34,-36,-8,44,-4,35,50,61,72,28
15,56,41,-36,-13,49,0,40,49,58,75,32
0,65,65,-33,-32,65,5,44,54,71,84,39
1,72,71,-36,-35,71,10,46,67,86,95,49
15,89,74,-52,-30,81,14,55,74,87,99,53
23,96,73,-60,-26,84,20,58,80,89,103,57
31,95,65,-63,-17,80,17,52,87,98,109,70
38,101,63,-70,-12,82,16,50,84,104,109,80
58,93,35,-76,12,64,-4,45,76,98,114,91
76,83,8,-80,34,45,-22,42,69,92,113,90
59,76,17,-68,21,46,-20,39,61,87,106,83
41,65,24,-53,8,45,-20,33,54,81,99,76
17,48,31,-33,-7,40,-16,30,48,74,92,69
-12,29,41,-9,-27,35,-16,23,40,55,75,64
-12,20,33,-5,-23,26,-13,23,35,40,58,57
-14,21,35,-4,-25,28,-14,12,26,36,61,58
-16,8,24,4,-20,15,-2,15,22,30,57,45
-13,16,29,-2,-22,22,-9,6,14,34,72,51
-21,-5,16,13,-19,5,5,6,9,20,59,38
-12,10,22,1,-17,16,1,12,5,32,78,54
-50,98,148,-24,-100,123,-2,-38,-22,20,80,96
-51,247,297,-98,-174,271,-43,-174,-90,76,230,240
49,262,213,-156,-82,237,-113,-229,-51,302,519,423
282,237,-44,-260,163,96,-179,-193,174,659,832,627
565,363,-202,-464,383,81,-816,-818,13,686,887,724
721,-154,-875,-283,798,-514,-1532,-1504,-434,20,-90,-15
761,-814,-1575,27,1168,-1194,-1495,-1309,-620,-559,-928,-714
562,-855,-1417,146,990,-1136,-956,-787,-707,-864,-988,-750
354,-687,-1040,167,697,-863,-500,-447,-647,-856,-852,-636
197,-472,-669,137,433,-570,-313,-328,-477,-568,-545,-402
11,-278,-289,134,150,-283,-76,-119,-234,-322,-295,-210
-33,-97,-64,65,16,-80,67,76,-1,-78,-97,-61
-52,-45,6,48,-29,-19,80,109,38,-31,-51,-44
-56,-42,14,49,-35,-14,111,136,60,-21,-33,-57
-61,-26,35,43,-48,5,123,149,76,-8,-13,-43
-82,-31,51,56,-66,10,126,154,76,-17,-26,-56
-75,-19,56,47,-65,18,126,158,83,-3,-15,-45
-77,-20,57,48,-67,18,138,168,82,-9,-24,-49
-72,-12,60,42,-66,24,147,175,88,-3,-17,-42
-72,-11,61,41,-67,25,150,175,90,-13,-25,-41
-73,-7,65,39,-69,29,161,176,95,-13,-25,-38
-69,-5,64,36,-66,30,176,189,99,-18,-25,-34
-70,-2,68,35,-69,33,184,199,100,-22,-30,-38
-73,1,74,36,-73,37,198,201,101,-25,-29,-40
-90,-4,85,46,-87,40,217,216,104,-30,-33,-44
-100,-5,95,52,-97,45,238,228,106,-28,-34,-46
-116,-5,111,60,-113,53,259,226,103,-41,-43,-54
-140,-5,136,72,-138,65,277,220,91,-59,-58,-74
-158,-5,153,81,-155,74,295,216,76,-78,-74,-97
-178,-3,174,90,-176,85,315,211,63,-100,-88,-122
-194,7,202,93,-198,104,337,208,41,-105,-109,-141
-208,20,229,94,-219,124,340,195,10,-119,-140,-156
-229,25,255,102,-243,140,332,152,-31,-169,-173,-171
-240,25,265,107,-253,145,311,89,-86,-222,-209,-180
-231,25,256,103,-244,140,279,10,-145,-272,-242,-181
-227,25,253,101,-241,139,204,-58,-201,-312,-261,-169
-211,24,236,94,-224,130,146,-116,-227,-315,-252,-160
-167,27,193,70,-181,109,85,-151,-217,-292,-243,-149
-118,30,148,44,-133,89,37,-146,-204,-240,-199,-116
-74,30,104,22,-89,67,39,-126,-164,-165,-120,-74
-34,34,68,0,-52,51,-117,-84,-97,-88,-56,-35
-13,35,49,-11,-32,42,-92,-39,-43,-22,-2,-6
-2,31,33,-15,-17,32,28,-4,-2,25,35,8
9,30,20,-20,-5,25,-13,18,27,64,64,13
15,30,15,-23,0,22,5,29,46,85,72,15
19,30,10,-25,4,20,0,42,55,85,69,20
26,30,4,-29,11,17,-2,50,59,85,71,23
30,29,-1,-29,15,14,4,56,67,85,69,26
29,23,-7,-25,17,8,-4,62,68,85,71,34
