I,II,III,aVR,aVL,aVF,V1,V2,V3,V4,V5,V6
134,185,51,-160,41,118,169,591,636,224,289,175
125,181,56,-154,34,119,155,532,575,213,279,163
97,151,55,-124,20,103,122,402,432,185,234,121
55,109,55,-83,-1,82,90,261,268,154,157,67
14,69,55,-42,-21,62,63,132,117,122,87,21
-18,37,54,-10,-36,45,42,38,5,86,19,-21
-38,18,56,9,-47,37,22,-27,-70,63,-27,-61
-53,7,60,23,-57,33,10,-74,-112,67,-56,-82
-57,-1,55,29,-56,27,-1,-102,-137,72,-68,-95
-59,-10,49,34,-54,20,-13,-116,-149,75,-70,-109
-65,-20,45,42,-55,12,-15,-116,-153,80,-74,-115
-66,-28,37,47,-52,4,-15,-121,-153,80,-76,-119
-67,-31,37,49,-52,3,-15,-118,-149,80,-80,-125
-70,-30,40,50,-55,5,-15,-115,-147,80,-80,-123
-71,-30,41,51,-56,5,-15,-116,-143,80,-80,-120
-74,-30,45,52,-60,7,-13,-111,-141,82,-80,-120
-75,-30,45,52,-60,7,-8,-110,-139,92,-80,-120
-70,-25,45,47,-57,10,-5,-110,-135,95,-80,-120
-65,-21,44,43,-55,11,-2,-106,-131,95,-81,-120
-62,-16,46,38,-54,15,3,-102,-127,99,-78,-134
-55,-12,43,33,-49,15,5,-98,-124,100,-67,-132
-58,-6,52,31,-55,23,11,-95,-119,99,-58,-124
-65,11,76,27,-71,43,15,-90,-121,96,-47,-106
-51,21,72,15,-62,46,24,-93,-119,93,-40,-74
-48,22,70,13,-60,46,19,-102,-122,90,-37,-52
-44,32,76,5,-61,54,-4,-122,-139,87,-34,-33
-15,61,75,-24,-45,68,-42,-150,-139,84,-29,-14
-12,62,74,-25,-43,68,-63,-154,-131,88,-26,8
-16,54,70,-19,-43,62,-38,-156,-125,94,-26,17
-45,25,70,10,-57,47,-24,-153,-140,73,-39,8
-96,-42,54,69,-75,6,-21,-161,-189,32,-91,-33
-102,-70,32,86,-67,-19,-15,-181,-220,-3,-117,-61
-93,-73,20,83,-56,-26,-11,-179,-226,-23,-114,-59
-93,-85,7,89,-50,-39,-7,-182,-226,-24,-117,-60
-93,-94,-1,94,-46,-47,-2,-177,-222,-28,-125,-60
-95,-95,0,95,-47,-47,0,-184,-230,-35,-134,-60
-87,-94,-7,91,-40,-50,0,-174,-218,-34,-131,-60
-83,-88,-5,86,-38,-46,0,-181,-238,-43,-135,-68
-68,-80,-12,73,-27,-46,-1,-170,-222,-25,-124,-61
-67,-76,-9,72,-29,-43,3,-178,-236,-46,-137,-72
-55,-64,-8,59,-23,-36,1,-176,-227,-23,-116,-66
-93,-67,25,80,-59,-21,25,-169,-226,-46,-134,-75
-154,-29,125,91,-140,48,56,-178,-227,-3,-100,-51
-33,81,114,-24,-74,97,111,75,128,348,167,129
387,267,-121,-327,254,73,-124,381,765,1025,709,518
1038,307,-731,-672,884,-212,-672,759,1672,1647,1196,910
980,36,-944,-508,962,-454,-852,323,1106,862,659,612
300,-187,-487,-56,394,-336,-613,-592,-400,-198,-105,81
16,-228,-244,107,130,-236,-283,-466,-475,-243,-202,-48
-78,-186,-108,132,15,-147,-93,-250,-298,-192,-195,-85
-111,-124,-14,117,-48,-69,-32,-208,-262,-127,-159,-73
-92,-87,5,89,-48,-41,43,-115,-171,-97,-137,-56
-109,-64,45,86,-76,-10,64,-108,-185,-100,-120,-53
-98,-57,41,77,-69,-7,66,-68,-134,-81,-100,-44
-97,-47,50,72,-73,1,70,-75,-138,-87,-103,-46
-81,-39,43,60,-62,2,70,-51,-101,-68,-89,-37
-77,-31,46,54,-61,7,78,-41,-91,-70,-90,-37
-68,-23,45,45,-56,11,83,-13,-64,-46,-79,-31
-60,-15,45,37,-52,15,89,16,-24,-22,-65,-24
-51,-8,43,29,-47,17,92,45,19,3,-48,-16
-36,3,39,16,-37,21,97,92,72,27,-24,-8
-21,20,41,1,-31,30,104,140,135,58,-3,-1
13,49,36,-32,-12,42,121,220,232,120,41,21
47,82,34,-65,6,58,143,314,348,196,104,60
81,117,36,-99,22,76,154,406,473,274,159,102
102,152,50,-127,26,101,154,482,567,344,209,135
118,175,57,-147,30,116,145,528,642,403,263,171
143,197,54,-170,44,125,136,544,664,432,289,191
137,193,56,-166,41,124,128,519,636,426,275,179
132,186,54,-159,39,120,118,447,558,392,271,169
114,171,56,-143,29,113,108,332,409,295,216,135
65,130,65,-98,-1,97,86,201,243,169,125,68
24,90,66,-57,-21,78,62,85,92,59,47,10
-7,54,61,-23,-34,57,45,-9,-16,-27,-20,-39
-28,32,60,-2,-44,46,35,-72,-87,-83,-51,-68
-37,17,55,10,-46,36,28,-109,-134,-128,-85,-84
-48,8,56,20,-53,32,17,-127,-156,-147,-98,-94
-65,0,65,32,-65,33,11,-132,-164,-154,-103,-101
-76,-11,66,43,-71,27,15,-137,-160,-167,-108,-112
-77,-13,64,45,-71,25,15,-140,-160,-166,-103,-111
-72,-9,62,40,-67,26,15,-134,-159,-164,-106,-107
-66,-7,59,36,-62,26,15,-128,-154,-165,-104,-105
-65,-4,61,34,-63,28,18,-123,-156,-159,-106,-101
-66,-1,65,33,-66,32,24,-117,-152,-162,-102,-100
-65,1,66,31,-65,33,28,-113,-150,-154,-99,-97
-61,4,65,28,-63,34,30,-109,-150,-126,-101,-92
-55,7,62,24,-59,34,30,-105,-150,-118,-96,-89
-50,9,59,20,-55,34,30,-102,-150,-121,-95,-86
-48,13,60,17,-54,36,30,-97,-150,-119,-95,-81
-61,15,76,23,-69,45,29,-95,-155,-120,-90,-79
-76,18,94,29,-85,56,31,-100,-155,-120,-85,-74
-67,30,97,18,-82,63,26,-105,-155,-118,-81,-70
-52,43,95,4,-74,68,19,-108,-155,-115,-76,-65
-40,55,95,-8,-68,75,13,-114,-158,-116,-72,-61
-27,69,95,-21,-61,82,-29,-137,-169,-115,-67,-56
-35,60,95,-13,-65,77,-49,-153,-174,-115,-65,-54
-46,50,96,-3,-71,73,-29,-155,-176,-115,-64,-50
-46,27,73,9,-60,50,-25,-155,-173,-121,-71,-53
-79,-37,42,58,-60,2,-20,-155,-199,-168,-115,-89
-95,-72,22,83,-58,-25,-18,-160,-234,-213,-151,-121
-92,-83,9,88,-50,-37,-13,-159,-233,-223,-155,-121
-104,-98,6,101,-55,-46,-10,-162,-237,-227,-156,-120
-99,-100,-1,99,-49,-50,-6,-157,-235,-226,-153,-119
-102,-104,-2,103,-49,-53,-4,-164,-244,-236,-158,-121
-94,-105,-11,99,-41,-57,-1,-154,-236,-229,-151,-118
-93,-100,-7,97,-43,-53,3,-153,-248,-243,-161,-123
-86,-91,-4,89,-41,-47,2,-144,-245,-234,-156,-123
-82,-89,-7,86,-37,-48,9,-134,-247,-245,-164,-131
-74,-75,-1,75,-36,-38,-2,-139,-262,-238,-162,-130
-94,-77,17,85,-55,-30,26,-110,-238,-237,-164,-136
-155,-57,98,105,-126,21,50,-170,-277,-237,-158,-121
-65,42,107,11,-86,74,110,-3,-19,50,61,16
263,237,-26,-250,144,105,-50,296,541,664,549,365
907,337,-570,-622,738,-116,-585,745,1554,1485,1169,835
1068,97,-971,-583,1018,-437,-828,619,1506,1064,880,701
448,-165,-612,-141,530,-388,-659,-373,-76,-182,9,130
76,-239,-314,82,195,-276,-338,-484,-490,-400,-195,-86
-26,-199,-172,113,73,-185,-106,-212,-270,-306,-179,-100
-81,-124,-43,103,-19,-83,-37,-190,-282,-262,-169,-93
-74,-86,-12,80,-30,-49,42,-82,-179,-197,-135,-86
-90,-58,33,74,-61,-12,65,-81,-195,-205,-133,-83
-78,-51,27,65,-52,-12,70,-45,-152,-174,-108,-74
-82,-47,35,64,-58,-6,77,-43,-155,-177,-108,-73
-76,-40,36,58,-56,-2,78,-30,-132,-152,-96,-63
-74,-35,39,55,-56,1,85,-15,-112,-141,-95,-58
-71,-30,41,50,-56,6,88,-2,-94,-122,-85,-51
-57,-23,34,40,-45,5,93,30,-56,-103,-72,-44
-44,-13,31,29,-37,8,97,56,-28,-83,-59,-39
-31,-6,25,18,-27,9,103,103,27,-46,-36,-26
-15,7,22,4,-19,14,121,157,93,-2,-1,-10
12,27,16,-20,-2,21,141,231,182,58,40,15
39,56,17,-48,11,36,149,314,286,128,86,49
69,90,21,-79,24,55,163,403,407,218,144,91
99,129,30,-115,34,80,166,487,511,307,207,141
130,166,37,-149,46,101,157,543,594,374,267,178
160,194,34,-178,63,114,150,563,623,420,298,209
168,204,36,-186,66,120,141,549,601,430,302,212
149,190,41,-170,54,116,133,479,534,389,292,199
119,174,55,-147,32,114,111,363,396,308,239,177
84,147,63,-115,11,104,83,230,234,195,155,114
47,102,56,-75,-5,79,63,115,89,90,75,65
7,56,49,-31,-22,52,42,29,-15,11,19,28
-21,21,42,0,-32,32,25,-38,-86,-51,-20,-4
-32,4,36,14,-34,20,17,-78,-139,-91,-59,-19
-34,-5,30,19,-32,12,11,-104,-168,-113,-82,-37
-36,-11,25,23,-31,7,3,-115,-177,-115,-85,-45
-42,-17,25,29,-33,4,-5,-115,-179,-114,-85,-45
-50,-25,25,37,-37,0,-8,-115,-175,-115,-88,-46
-54,-29,25,41,-40,-1,-5,-115,-170,-115,-91,-50
-50,-26,24,38,-37,-1,-3,-115,-168,-114,-89,-50
-51,-23,28,37,-39,2,0,-115,-163,-109,-85,-48
-51,-21,30,36,-40,5,3,-112,-160,-104,-85,-45
-47,-17,30,32,-39,6,5,-107,-157,-100,-84,-42
-45,-15,29,30,-37,6,8,-105,-151,-95,-80,-39
-43,-12,31,28,-37,9,11,-100,-147,-90,-80,-36
-41,-3,38,22,-39,17,10,-97,-143,-94,-78,-34
-33,8,41,12,-37,24,10,-93,-138,-96,-74,-31
-38,17,55,11,-47,36,11,-91,-134,-95,-72,-28
-34,27,61,4,-48,44,8,-89,-130,-96,-69,-26
-31,31,63,0,-47,47,-1,-91,-131,-94,-66,-22
-25,40,66,-8,-46,53,-15,-89,-129,-97,-65,-20
-15,44,59,-15,-37,51,-22,-97,-140,-100,-65,-18
-10,44,54,-17,-32,49,-47,-131,-159,-103,-66,-15
10,59,49,-35,-20,54,-69,-142,-154,-105,-64,-15
11,53,43,-32,-16,48,-55,-142,-155,-109,-66,-15
0,38,38,-19,-19,38,-47,-148,-154,-110,-63,-15
-39,-7,32,22,-35,13,-43,-148,-162,-120,-74,-36
-86,-63,23,74,-54,-20,-37,-162,-202,-162,-114,-72
-92,-80,12,86,-52,-34,-31,-164,-211,-184,-130,-85
-88,-85,3,87,-45,-41,-26,-166,-211,-187,-132,-87
-79,-85,-6,82,-36,-45,-21,-167,-208,-187,-133,-89
-81,-85,-4,84,-38,-45,-19,-171,-211,-194,-139,-94
-79,-84,-5,82,-37,-45,-21,-170,-210,-193,-139,-94
-80,-86,-6,84,-37,-46,-13,-162,-208,-195,-139,-98
-79,-83,-3,82,-38,-43,-18,-171,-221,-190,-134,-100
-75,-81,-6,78,-35,-43,-11,-154,-204,-186,-133,-100
-88,-76,12,82,-50,-32,-20,-174,-234,-198,-140,-102
-82,-76,6,78,-43,-35,1,-142,-199,-176,-125,-96
-124,-60,65,92,-94,2,30,-189,-251,-202,-152,-107
-120,24,143,48,-132,83,69,-110,-129,-20,-22,-32
113,200,87,-156,12,143,5,175,341,474,369,240
737,348,-389,-542,563,-20,-484,640,1310,1327,1014,707
1157,196,-961,-676,1059,-382,-862,886,1841,1396,1068,790
685,-81,-766,-302,726,-423,-768,-54,445,187,237,287
157,-209,-366,26,262,-287,-462,-563,-484,-324,-161,-48
-10,-193,-183,102,87,-188,-168,-249,-260,-220,-145,-95
-87,-112,-25,100,-31,-68,-64,-212,-265,-218,-152,-94
-87,-66,21,76,-54,-22,11,-117,-179,-145,-122,-84
-105,-43,62,74,-84,9,48,-95,-169,-158,-128,-83
-103,-37,66,70,-84,14,54,-77,-153,-136,-110,-73
-98,-32,66,65,-82,17,72,-57,-138,-134,-108,-71
-96,-23,73,60,-85,25,68,-57,-139,-127,-98,-64
-91,-19,72,54,-81,26,76,-32,-107,-112,-90,-65
-89,-11,78,50,-83,33,75,-29,-95,-103,-84,-64
-81,-4,78,42,-79,37,86,9,-56,-81,-73,-59
-73,8,81,32,-77,45,93,35,-28,-65,-69,-61
-63,17,80,23,-72,49,103,80,19,-29,-52,-56
-59,27,86,15,-72,56,117,130,77,8,-23,-43
-40,45,85,-3,-63,65,131,196,157,50,12,-19
-10,72,82,-31,-47,77,155,285,265,107,47,19
24,104,80,-64,-28,92,175,384,393,196,110,67
63,139,77,-101,-7,108,196,483,516,288,183,110
99,173,75,-137,12,124,195,550,611,356,235,148
126,197,71,-162,27,134,183,581,650,408,277,179
138,208,70,-173,34,139,177,577,650,414,290,190
131,201,70,-166,30,135,163,517,596,386,279,187
118,188,70,-153,24,129,136,412,474,326,247,161
90,160,70,-125,10,115,106,279,312,216,173,114
41,111,70,-76,-15,90,81,144,150,107,89,58
-1,69,70,-34,-36,69,53,37,24,19,24,8
-33,34,68,-1,-51,50,33,-36,-67,-50,-21,-22
-53,12,65,20,-59,38,17,-83,-120,-90,-59,-43
-61,1,62,30,-61,31,2,-110,-155,-112,-79,-59
-65,-6,59,36,-62,26,0,-120,-163,-122,-81,-63
-68,-13,55,40,-62,21,-3,-125,-159,-125,-86,-68
-76,-21,55,48,-65,17,-6,-125,-161,-125,-90,-69
-87,-28,60,57,-73,16,-9,-125,-157,-125,-86,-65
-87,-27,60,57,-73,16,-10,-125,-155,-125,-85,-65
-82,-22,60,52,-71,19,-5,-125,-155,-125,-85,-63
-79,-20,60,49,-70,20,-5,-124,-151,-123,-81,-60
-76,-15,60,46,-68,22,-5,-120,-150,-120,-79,-60
-69,-12,57,40,-63,22,-5,-118,-150,-120,-82,-64
-63,-8,55,35,-59,23,-5,-115,-150,-120,-85,-65
-60,-5,55,32,-57,25,-5,-112,-150,-120,-85,-65
-57,-5,52,31,-54,23,-5,-109,-151,-121,-85,-65
-54,-5,49,30,-51,21,-5,-114,-156,-124,-85,-65
-56,-5,51,31,-53,23,-5,-119,-161,-129,-85,-64
-59,-5,54,31,-56,24,-5,-122,-165,-128,-82,-60
-61,-1,59,31,-60,29,-5,-127,-161,-124,-76,-60
-66,6,72,30,-70,39,2,-130,-160,-125,-72,-58
-63,12,76,25,-70,44,11,-132,-160,-125,-67,-54
-55,19,74,17,-65,46,21,-135,-160,-125,-63,-56
-52,26,78,13,-65,52,19,-139,-160,-125,-58,-51
-42,31,73,6,-58,52,-14,-140,-162,-120,-56,-44
-20,45,66,-13,-43,55,-47,-148,-166,-112,-53,-39
-14,43,57,-15,-35,50,-47,-155,-164,-107,-49,-34
-14,36,50,-11,-32,43,-30,-157,-166,-97,-48,-36
-19,19,39,0,-29,29,-22,-160,-163,-104,-41,-33
-50,-37,13,43,-31,-11,-18,-163,-176,-153,-65,-47
-79,-82,-3,81,-38,-43,-17,-166,-205,-176,-99,-77
-88,-100,-12,94,-38,-56,-12,-160,-203,-166,-105,-86
-86,-105,-20,96,-32,-62,-11,-161,-207,-161,-110,-89
-85,-115,-31,100,-27,-73,-8,-153,-202,-148,-109,-90
-85,-122,-37,103,-24,-79,-5,-156,-209,-148,-112,-90
-78,-119,-41,98,-18,-80,-6,-149,-202,-133,-107,-89
-82,-121,-39,101,-21,-80,-1,-148,-206,-135,-113,-91
-79,-119,-40,99,-20,-79,-2,-148,-207,-120,-107,-89
-80,-121,-42,100,-19,-81,4,-132,-199,-119,-113,-90
-77,-113,-37,95,-20,-75,1,-151,-218,-113,-116,-83
-81,-104,-23,93,-29,-64,36,-113,-184,-100,-110,-75
-131,-71,61,101,-96,-5,48,-160,-237,-117,-113,-79
-89,19,108,35,-99,63,104,-17,-13,135,64,13
218,204,-14,-211,116,95,-28,295,531,700,501,328
895,308,-587,-601,741,-140,-575,764,1517,1460,1081,756
1146,101,-1045,-624,1096,-472,-861,753,1620,1159,873,675
560,-140,-699,-210,630,-419,-718,-290,59,-11,66,168
108,-233,-341,63,225,-287,-383,-520,-481,-274,-160,-72
-20,-210,-190,115,85,-200,-124,-207,-244,-176,-148,-91
-87,-140,-53,114,-17,-96,-50,-194,-267,-152,-144,-84
-80,-104,-24,92,-28,-64,44,-70,-158,-96,-112,-79
-82,-80,2,81,-42,-39,72,-67,-172,-108,-113,-76
-84,-79,5,82,-44,-37,76,-35,-139,-80,-92,-69
-83,-76,7,79,-44,-35,90,-26,-131,-79,-93,-67
-75,-72,2,73,-38,-35,93,-18,-104,-56,-83,-58
-70,-71,-1,71,-35,-36,100,6,-74,-49,-83,-53
-66,-68,-3,67,-31,-35,103,23,-53,-37,-76,-46
-57,-63,-6,60,-25,-34,117,61,-20,-18,-65,-39
-52,-56,-4,54,-24,-29,123,87,9,6,-52,-34
-43,-49,-6,47,-19,-27,132,136,64,39,-39,-25
-39,-43,-5,41,-17,-24,147,184,119,68,-11,-10
-22,-27,-5,25,-8,-15,160,259,206,124,33,15
14,8,-5,-11,10,1,177,349,312,192,70,48
46,43,-4,-44,25,19,201,449,438,276,132,95
86,86,0,-86,42,43,204,543,553,360,195,142
117,118,0,-117,58,58,195,603,644,420,239,175
132,132,0,-132,65,66,190,636,681,461,275,204
132,133,0,-132,66,66,182,630,679,469,289,206
119,119,0,-119,59,59,177,576,641,453,280,195
108,112,4,-110,52,57,153,465,510,385,243,183
85,90,5,-88,40,48,119,318,340,277,172,138
43,50,7,-46,17,28,97,190,184,172,91,85
-1,10,11,-5,-6,10,78,80,55,81,23,41
-31,-22,9,26,-20,-7,57,5,-31,21,-22,8
-51,-47,4,49,-27,-21,40,-42,-88,-21,-56,-9
-56,-58,-2,57,-27,-29,23,-79,-119,-45,-74,-15
-59,-65,-5,62,-27,-35,15,-81,-125,-51,-81,-20
-64,-74,-10,69,-27,-42,15,-80,-125,-55,-85,-26
-61,-75,-14,68,-23,-44,15,-80,-124,-55,-85,-32
-56,-75,-20,66,-18,-47,15,-75,-120,-57,-85,-34
-56,-79,-24,68,-16,-51,14,-76,-120,-61,-85,-29
-61,-80,-19,71,-21,-50,17,-74,-119,-59,-85,-26
-65,-79,-13,72,-26,-45,20,-70,-114,-57,-85,-23
-65,-74,-10,70,-27,-42,20,-71,-108,-54,-82,-18
-66,-70,-5,68,-30,-37,24,-68,-105,-51,-77,-15
-68,-68,0,68,-33,-34,26,-65,-100,-48,-74,-18
-60,-63,-3,62,-28,-33,24,-65,-95,-45,-71,-21
-54,-60,-5,58,-25,-32,21,-69,-99,-46,-66,-20
-59,-64,-5,62,-27,-34,16,-74,-100,-50,-66,-21
-60,-65,-5,63,-27,-35,14,-77,-101,-52,-74,-19
-62,-67,-5,65,-28,-36,9,-82,-107,-55,-80,-22
-67,-71,-4,69,-32,-37,5,-85,-118,-60,-80,-25
-71,-68,2,69,-36,-33,7,-87,-126,-61,-80,-25
-65,-58,8,61,-36,-24,14,-91,-125,-60,-80,-25
-58,-45,12,51,-35,-16,19,-93,-124,-60,-80,-25
-53,-35,19,44,-36,-7,25,-96,-126,-60,-80,-25
-52,-28,24,40,-38,-2,30,-91,-124,-60,-76,-20
-40,-21,19,30,-30,0,11,-92,-129,-57,-70,-10
-22,-15,7,18,-14,-4,-18,-116,-149,-52,-65,0
-10,-15,-5,13,-2,-10,-37,-131,-151,-48,-58,8
-2,-14,-12,8,5,-12,-37,-131,-149,-41,-55,1
-8,-27,-19,18,6,-23,-22,-137,-151,-42,-49,-11
-35,-56,-21,46,-7,-38,-13,-138,-149,-70,-70,-18
-65,-104,-39,85,-13,-71,-7,-141,-176,-123,-118,-40
-73,-138,-66,106,-3,-102,-3,-139,-186,-145,-126,-51
-74,-141,-67,108,-3,-104,2,-140,-184,-146,-125,-50
-77,-148,-71,112,-3,-109,5,-141,-186,-144,-125,-49
-76,-151,-75,114,-1,-113,12,-138,-182,-145,-124,-51
-72,-149,-76,111,2,-112,13,-144,-190,-146,-127,-49
-73,-155,-82,114,5,-118,16,-130,-177,-140,-112,-52
-82,-154,-73,119,-4,-113,15,-142,-195,-144,-91,-57
-82,-155,-73,119,-4,-114,20,-128,-174,-126,-69,-52
-84,-149,-65,117,-9,-107,22,-141,-196,-145,-78,-60
-78,-135,-57,107,-11,-96,17,-131,-176,-111,-52,-48
-136,-126,9,131,-72,-58,59,-137,-187,-144,-61,-65
-138,-47,90,92,-114,21,80,-116,-134,-19,42,4
28,81,53,-55,-12,66,94,145,251,380,352,210
509,243,-265,-376,387,-11,-227,447,911,992,847,571
1147,201,-946,-674,1047,-373,-775,803,1735,1402,1135,821
955,-84,-1039,-435,997,-561,-874,228,918,494,518,456
291,-241,-532,-25,412,-386,-605,-621,-454,-336,-73,30
22,-264,-286,121,154,-274,-261,-406,-386,-274,-102,-63
-77,-208,-131,143,27,-169,-76,-214,-256,-229,-80,-75
-92,-131,-39,112,-26,-85,-2,-148,-208,-157,-43,-66
-106,-79,27,93,-67,-26,58,-89,-151,-164,-50,-72
-112,-32,80,72,-96,24,61,-103,-169,-159,-43,-69
-96,3,99,46,-98,51,67,-66,-133,-148,-38,-69
-104,32,136,36,-120,84,64,-75,-144,-154,-38,-66
-98,28,126,35,-112,77,70,-43,-106,-136,-30,-60
-102,30,132,36,-117,81,70,-27,-96,-138,-26,-60
-78,51,129,13,-103,90,70,2,-72,-116,-12,-53
-70,62,133,4,-102,97,77,33,-42,-98,-8,-52
-70,71,141,-1,-105,105,80,65,7,-67,8,-46
-51,88,139,-18,-96,114,84,108,65,-36,23,-35
-30,111,140,-40,-85,125,96,166,127,-1,42,-23
-8,133,140,-63,-74,136,110,245,218,51,80,4
23,169,146,-96,-61,157,128,345,336,125,132,42
60,199,140,-130,-40,169,148,446,463,205,185,81
94,226,132,-160,-19,179,147,530,567,272,234,118
135,260,126,-198,4,193,141,586,641,343,290,160
149,266,117,-208,16,191,135,596,669,388,330,195
144,255,111,-200,16,183,127,583,656,388,336,189
122,243,121,-183,1,182,122,504,571,348,312,176
92,233,141,-163,-25,187,96,364,408,252,250,155
54,201,147,-127,-47,173,61,220,242,141,170,99
9,154,145,-82,-68,149,44,95,95,42,90,51
-20,121,141,-51,-81,131,28,0,-18,-47,26,10
-43,96,139,-27,-91,118,11,-64,-88,-99,-14,-26
-53,82,135,-15,-94,108,0,-104,-134,-122,-37,-37
-61,74,135,-7,-99,105,-12,-129,-161,-140,-52,-45
-73,67,141,3,-107,104,-22,-140,-175,-148,-59,-49
-76,60,137,8,-107,98,-21,-140,-175,-144,-64,-56
-79,52,131,13,-105,91,-20,-140,-175,-141,-70,-62
-80,46,126,17,-104,86,-20,-140,-175,-138,-70,-58
-75,45,119,15,-97,81,-20,-140,-175,-133,-70,-56
-71,45,116,12,-94,81,-21,-138,-173,-130,-70,-52
-76,45,121,15,-99,82,-17,-131,-166,-126,-70,-49
-73,45,118,14,-96,81,-15,-127,-161,-119,-68,-52
-67,45,112,10,-90,79,-15,-121,-156,-113,-65,-55
-66,42,109,12,-88,75,-15,-115,-150,-105,-65,-58
-64,40,104,12,-84,71,-15,-111,-146,-102,-65,-61
-60,40,99,10,-80,70,-15,-116,-150,-105,-65,-64
-55,40,95,7,-75,67,-15,-123,-158,-105,-65,-66
-52,39,92,6,-72,65,-15,-127,-162,-108,-70,-70
-47,41,88,3,-68,64,-15,-135,-166,-110,-73,-75
-42,44,85,-2,-64,64,-15,-140,-171,-110,-80,-79
-32,47,79,-8,-56,63,-16,-146,-180,-112,-88,-78
-36,49,85,-7,-60,67,-12,-148,-190,-110,-84,-73
-39,53,92,-7,-66,72,-10,-143,-188,-110,-82,-70
-36,55,91,-10,-64,72,-7,-140,-182,-110,-79,-66
-42,58,100,-8,-72,79,-4,-137,-179,-110,-76,-62
-27,74,100,-23,-64,87,-2,-132,-173,-110,-74,-59
-19,77,96,-30,-58,86,2,-130,-171,-107,-71,-56
-2,92,95,-45,-49,93,-35,-148,-178,-105,-70,-55
21,111,91,-66,-35,101,-76,-157,-181,-106,-69,-56
14,104,90,-59,-38,96,-70,-153,-178,-104,-64,-54
15,97,81,-56,-33,89,-64,-153,-182,-106,-64,-55
-8,55,64,-23,-36,59,-59,-146,-177,-103,-74,-58
-45,-3,42,24,-44,19,-52,-164,-197,-124,-98,-75
-61,-34,27,47,-44,-3,-48,-187,-229,-170,-141,-114
-67,-46,21,56,-43,-12,-42,-185,-231,-183,-159,-128
-63,-48,15,56,-39,-16,-41,-186,-229,-179,-151,-124
-67,-61,6,64,-36,-28,-36,-178,-221,-177,-150,-123
-65,-61,5,63,-35,-28,-35,-182,-226,-177,-148,-120
-55,-60,-4,58,-26,-32,-30,-171,-210,-170,-141,-118
-58,-60,-2,59,-28,-30,-30,-178,-221,-178,-150,-119
-51,-53,-3,52,-23,-28,-26,-163,-202,-156,-139,-110
-64,-57,7,60,-35,-25,-21,-158,-208,-168,-151,-115
-61,-54,8,57,-34,-23,-15,-154,-202,-146,-139,-104
-83,-65,17,74,-50,-24,27,-132,-186,-151,-146,-109
-122,-13,109,67,-115,47,59,-149,-200,-98,-98,-97
-21,101,122,-40,-72,112,113,76,120,248,165,67
365,278,-87,-321,226,95,-123,346,711,901,686,452
1026,334,-692,-680,859,-179,-698,670,1617,1592,1214,845
1016,52,-965,-534,991,-456,-896,294,1172,871,710,576
364,-178,-541,-93,453,-359,-647,-593,-358,-275,-114,31
48,-216,-264,85,156,-240,-302,-478,-490,-329,-225,-136
-61,-186,-125,124,32,-155,-102,-240,-288,-266,-216,-159
-94,-116,-21,105,-36,-68,-53,-199,-269,-199,-174,-138
-100,-87,13,93,-56,-37,26,-76,-162,-140,-137,-127
-122,-74,47,98,-84,-14,58,-75,-164,-134,-133,-119
-105,-70,35,87,-70,-17,62,-40,-117,-108,-117,-106
-102,-63,39,82,-71,-11,79,-33,-133,-119,-117,-99
-88,-55,33,71,-60,-11,79,-5,-102,-98,-102,-87
-81,-50,31,65,-56,-9,81,4,-73,-100,-100,-84
-73,-43,30,58,-51,-6,83,21,-41,-76,-86,-75
-63,-39,25,50,-44,-7,86,51,-12,-53,-78,-69
-56,-31,26,43,-41,-2,85,77,22,-23,-56,-63
-40,-17,23,28,-31,3,96,121,77,10,-34,-56
-23,-3,20,13,-22,9,108,170,140,49,-9,-37
-3,17,20,-7,-11,18,118,239,230,106,30,-13
29,49,20,-39,4,35,135,327,335,165,66,13
58,77,20,-68,19,48,143,426,463,255,126,58
87,108,20,-97,33,64,138,510,576,347,197,109
119,139,20,-129,49,79,133,566,656,419,260,150
140,161,21,-150,60,90,129,594,697,461,285,173
148,168,20,-158,64,94,124,579,680,453,272,167
128,155,27,-141,50,91,119,518,610,425,270,159
106,138,31,-122,37,84,114,409,472,353,232,139
91,119,28,-105,31,73,101,282,315,241,150,87
36,91,54,-64,-9,72,85,168,170,134,74,34
-23,50,72,-14,-48,61,60,65,45,45,6,-18
-47,17,64,14,-55,40,34,-8,-44,-17,-41,-54
-58,4,61,27,-59,32,26,-57,-105,-67,-85,-87
-66,-10,56,38,-61,23,19,-82,-128,-94,-109,-109
-71,-19,51,45,-61,16,12,-94,-145,-104,-101,-109
-74,-27,47,50,-61,10,6,-101,-154,-118,-115,-115
-78,-35,44,56,-61,4,0,-94,-160,-122,-125,-112
-73,-34,40,53,-56,3,5,-95,-161,-117,-118,-106
-67,-30,37,48,-52,3,9,-94,-154,-114,-114,-102
-61,-30,31,45,-46,0,11,-89,-154,-111,-107,-98
-62,-30,32,46,-47,1,16,-91,-148,-106,-103,-92
-75,-30,45,52,-60,7,19,-87,-145,-105,-97,-91
-75,-30,45,52,-60,7,20,-85,-142,-105,-95,-96
-78,-34,44,55,-61,5,20,-85,-138,-105,-96,-95
-76,-35,41,55,-58,2,20,-81,-134,-105,-91,-95
-75,-35,40,55,-57,2,20,-80,-131,-106,-90,-95
-79,-40,39,59,-59,0,20,-80,-126,-105,-90,-95
-75,-40,34,57,-55,-2,20,-86,-125,-109,-95,-96
-74,-39,36,56,-55,-1,15,-92,-135,-112,-98,-103
-67,-34,32,50,-49,-1,15,-98,-144,-117,-104,-109
-61,-31,30,46,-45,0,14,-107,-163,-133,-124,-107
-57,-28,29,42,-43,0,10,-106,-178,-136,-124,-104
-61,-23,37,42,-49,7,10,-105,-175,-134,-117,-101
-70,-21,49,45,-60,14,12,-104,-175,-132,-114,-98
-78,-13,65,45,-71,25,18,-99,-172,-129,-108,-95
-75,2,77,36,-76,39,21,-100,-170,-130,-105,-94
-58,15,73,22,-66,44,26,-102,-170,-124,-99,-86
-44,25,68,10,-56,46,2,-113,-170,-118,-94,-75
-32,36,68,-3,-50,52,-43,-131,-171,-111,-89,-66
-27,32,59,-3,-43,46,-47,-135,-169,-105,-83,-62
-36,28,64,4,-51,46,-34,-134,-171,-96,-76,-57
-65,5,70,30,-68,37,-31,-139,-169,-104,-80,-58
-95,-51,44,73,-69,-3,-23,-140,-193,-143,-116,-86
-108,-80,29,94,-68,-25,-19,-140,-215,-168,-150,-115
-114,-92,21,103,-67,-35,-13,-134,-207,-175,-164,-122
-116,-104,13,110,-64,-45,-10,-137,-214,-182,-170,-121
-103,-101,2,102,-53,-49,-10,-131,-204,-177,-166,-119
-96,-100,-4,99,-46,-51,-7,-132,-208,-184,-167,-119
-94,-99,-5,97,-44,-52,-5,-128,-202,-175,-161,-113
-91,-96,-5,94,-42,-51,-4,-132,-203,-186,-169,-117
-90,-93,-3,92,-43,-48,-3,-138,-201,-175,-161,-117
-89,-97,-7,93,-41,-52,13,-129,-192,-179,-168,-121
-97,-84,13,90,-55,-35,12,-145,-206,-176,-169,-120
-106,-86,20,96,-63,-32,34,-120,-177,-167,-171,-115
-147,-54,93,100,-120,19,52,-157,-243,-190,-174,-113
-107,40,147,33,-127,94,103,-18,-39,76,29,-3
208,225,16,-216,96,120,-35,264,499,677,504,336
868,353,-515,-610,691,-81,-578,654,1482,1551,1172,817
1100,117,-983,-608,1042,-433,-875,608,1612,1270,963,728
538,-162,-700,-188,620,-431,-727,-336,81,-25,59,165
123,-237,-360,57,242,-298,-406,-552,-517,-343,-208,-85
-13,-219,-206,116,97,-212,-128,-228,-275,-257,-194,-126
-90,-150,-60,120,-15,-105,-41,-189,-271,-222,-175,-121
-85,-103,-18,94,-33,-60,37,-78,-175,-155,-140,-109
-103,-72,32,87,-67,-20,68,-64,-172,-170,-142,-109
-88,-60,28,74,-58,-16,66,-37,-141,-142,-119,-96
-81,-55,25,67,-53,-15,77,-23,-135,-144,-119,-88
-74,-50,24,62,-49,-13,80,-15,-114,-114,-102,-69
-63,-47,16,55,-39,-15,97,11,-89,-105,-99,-62
-58,-41,17,49,-38,-12,95,23,-67,-93,-91,-56
-47,-37,10,42,-28,-13,94,53,-25,-72,-83,-52
-40,-29,11,35,-25,-9,100,78,6,-51,-69,-48
-31,-22,9,26,-20,-6,111,118,55,-8,-42,-41
-22,-16,6,19,-14,-5,123,166,116,34,-12,-25
2,6,5,-5,-2,5,136,238,204,87,31,6
35,41,6,-38,15,23,152,320,306,153,74,41
54,67,13,-61,20,39,167,411,430,227,123,76
87,106,19,-97,34,62,168,501,542,314,193,127
117,138,21,-128,48,79,164,567,637,396,256,175
134,158,25,-146,54,91,162,598,688,448,299,209
155,181,26,-168,64,103,157,602,692,465,327,229
152,183,31,-167,60,106,156,558,650,449,326,232
141,170,29,-156,56,99,133,446,518,382,279,211
106,141,35,-123,35,87,102,310,343,264,201,158
48,95,46,-72,1,70,82,178,177,147,120,95
5,47,41,-26,-18,44,63,76,47,54,47,49
-27,12,39,7,-33,25,46,0,-41,-16,-3,18
-36,-2,35,18,-35,16,33,-55,-98,-65,-39,-7
-45,-15,30,30,-38,8,27,-81,-130,-97,-64,-28
-53,-25,28,39,-40,1,23,-100,-145,-107,-66,-32
-55,-33,22,44,-38,-5,19,-107,-145,-106,-65,-29
-60,-43,18,51,-38,-12,14,-105,-145,-105,-65,-30
-55,-42,14,48,-34,-14,10,-102,-145,-105,-65,-30
-48,-39,9,44,-28,-15,15,-99,-145,-105,-65,-31
-45,-40,5,42,-25,-17,20,-96,-144,-105,-62,-28
-54,-40,15,47,-34,-12,24,-94,-139,-103,-56,-25
-68,-40,28,54,-48,-6,29,-91,-133,-96,-51,-22
-70,-40,30,55,-50,-5,34,-88,-130,-91,-48,-20
-70,-40,30,55,-50,-5,33,-86,-125,-86,-42,-16
-74,-40,34,56,-54,-3,29,-83,-121,-79,-41,-15
-76,-40,36,57,-56,-2,27,-80,-123,-76,-46,-18
-74,-40,34,57,-54,-3,24,-82,-126,-79,-49,-21
-71,-40,31,55,-51,-4,21,-88,-129,-82,-54,-24
-63,-37,26,50,-44,-5,19,-92,-131,-85,-62,-27
-58,-34,24,45,-40,-5,20,-95,-140,-87,-64,-30
-50,-31,19,41,-35,-6,20,-103,-146,-94,-60,-29
-43,-28,16,35,-29,-6,20,-110,-144,-99,-58,-24
-42,-26,16,34,-29,-4,20,-110,-145,-95,-55,-21
-46,-23,22,35,-34,0,20,-109,-145,-91,-51,-18
-51,-17,35,34,-43,9,18,-110,-145,-88,-50,-13
-40,-7,33,24,-36,13,12,-110,-146,-85,-47,-10
-30,-1,29,16,-29,14,12,-110,-155,-81,-41,-7
-14,12,26,1,-20,19,-21,-136,-165,-78,-37,-1
12,33,22,-23,-5,27,-56,-148,-165,-74,-33,2
7,26,19,-17,-6,22,-43,-143,-165,-72,-26,8
-10,-5,6,7,-8,1,-34,-150,-165,-69,-29,9
-35,-45,-9,40,-13,-27,-28,-149,-166,-87,-57,-17
-64,-83,-19,74,-22,-51,-20,-151,-194,-129,-94,-50
-67,-98,-31,83,-18,-64,-15,-144,-201,-140,-106,-63
-67,-105,-37,86,-14,-71,-7,-146,-200,-141,-105,-70
-74,-109,-35,92,-19,-71,-3,-144,-201,-139,-104,-69
-78,-109,-31,93,-23,-69,2,-138,-198,-141,-106,-71
-77,-104,-27,90,-25,-65,-2,-144,-204,-140,-104,-70
-77,-103,-25,91,-26,-64,6,-132,-192,-140,-106,-70
-82,-98,-17,90,-32,-57,3,-142,-201,-151,-112,-71
-66,-96,-31,81,-17,-63,7,-125,-178,-141,-106,-68
-61,-95,-34,78,-13,-65,4,-146,-196,-165,-120,-74
-62,-84,-22,73,-19,-53,10,-123,-168,-140,-108,-64
-101,-73,28,87,-64,-22,49,-150,-201,-178,-107,-83
-118,-10,108,64,-113,49,67,-130,-154,-68,-24,-29
50,151,101,-101,-25,125,55,138,251,364,284,193
607,348,-259,-478,433,45,-354,532,1113,1192,932,655
1173,267,-905,-719,1039,-319,-842,897,1931,1582,1215,904
856,-29,-885,-414,870,-456,-835,156,844,468,454,444
251,-189,-440,-31,346,-314,-538,-576,-423,-317,-123,33
42,-207,-249,82,146,-228,-203,-295,-276,-225,-131,-35
-65,-140,-75,103,5,-107,-67,-190,-226,-229,-136,-67
-78,-82,-4,80,-37,-43,9,-119,-176,-168,-107,-54
-79,-52,27,65,-53,-12,68,-70,-141,-166,-104,-56
-88,-40,48,64,-68,4,60,-71,-151,-151,-87,-50
-78,-40,39,59,-58,-1,83,-41,-119,-137,-77,-46
-77,-32,45,55,-61,7,82,-52,-129,-135,-72,-45
-65,-30,35,47,-50,2,86,-13,-89,-118,-62,-36
-61,-24,37,42,-49,7,89,2,-79,-118,-59,-34
-51,-20,31,35,-41,5,88,30,-42,-96,-49,-26
-43,-13,30,28,-36,8,98,52,-17,-73,-46,-22
-39,-8,31,24,-34,11,110,95,32,-36,-28,-16
-30,-1,29,15,-29,14,123,144,90,-1,-4,-11
-15,16,32,-1,-24,24,136,200,155,36,24,1
2,41,40,-22,-19,40,153,284,257,93,59,34
34,75,41,-55,-3,58,177,382,379,179,111,70
72,111,39,-91,16,75,194,489,512,269,183,119
109,150,41,-129,34,95,196,574,625,354,245,167
147,187,40,-167,53,113,187,623,694,419,296,203
164,205,41,-185,61,122,181,634,713,450,314,222
164,210,46,-188,59,128,173,606,691,446,301,215
155,204,49,-180,53,126,148,505,576,393,287,211
133,176,43,-155,45,109,116,359,399,291,232,170
84,132,48,-109,18,90,83,218,226,170,145,110
23,87,64,-55,-21,75,57,95,82,71,68,64
-16,44,60,-14,-38,52,38,6,-22,-9,14,18
-39,13,52,13,-46,32,21,-57,-97,-62,-25,-5
-47,-1,46,24,-47,22,5,-92,-137,-90,-57,-15
-51,-12,39,31,-44,13,0,-110,-154,-109,-68,-27
-59,-26,34,42,-46,4,-2,-118,-155,-110,-66,-37
-64,-35,30,50,-47,-2,-5,-114,-155,-110,-65,-44
-66,-35,30,50,-48,-2,-8,-115,-155,-110,-65,-41
-62,-35,27,48,-44,-3,-11,-115,-155,-110,-65,-36
-60,-35,25,47,-42,-5,-7,-115,-155,-109,-65,-34
-60,-35,25,47,-42,-5,-2,-115,-152,-105,-65,-30
-64,-35,29,49,-46,-2,1,-110,-147,-103,-65,-25
-70,-30,40,50,-55,5,4,-110,-144,-100,-65,-27
-75,-25,50,50,-62,12,9,-109,-141,-96,-65,-31
-76,-21,55,48,-66,17,9,-105,-136,-95,-65,-30
-71,-16,55,43,-63,19,5,-105,-136,-98,-65,-30
-66,-11,55,38,-60,21,3,-108,-141,-101,-69,-30
-67,-12,55,39,-61,21,0,-111,-143,-104,-73,-30
-71,-16,54,43,-62,19,-4,-116,-147,-107,-78,-35
-75,-19,56,47,-66,18,-5,-118,-149,-110,-79,-39
-83,-23,60,53,-71,19,-5,-125,-157,-110,-75,-44
-85,-26,60,55,-72,17,-5,-132,-171,-110,-75,-43
-78,-18,61,48,-69,21,-5,-130,-173,-110,-75,-39
-69,-11,58,40,-64,24,-5,-130,-170,-110,-75,-41
-73,-4,69,38,-71,32,-5,-127,-170,-110,-75,-36
-77,4,80,36,-79,42,-5,-124,-169,-110,-71,-35
-56,15,72,20,-64,43,6,-126,-171,-106,-68,-35
-28,38,66,-5,-47,52,0,-135,-169,-99,-64,-30
-14,45,60,-16,-37,52,-36,-153,-182,-93,-62,-31
8,61,53,-34,-23,56,-50,-160,-191,-86,-56,-29
6,53,48,-30,-21,50,-42,-159,-189,-78,-54,-31
-15,22,37,-4,-27,29,-36,-164,-196,-77,-49,-29
-32,-4,29,18,-31,12,-29,-164,-192,-100,-52,-36
-75,-55,21,65,-48,-17,-22,-168,-208,-142,-94,-70
-92,-82,10,87,-51,-36,-20,-170,-221,-155,-112,-89
-90,-84,6,86,-47,-39,-19,-170,-222,-158,-109,-97
-91,-88,3,89,-47,-42,-21,-171,-226,-160,-110,-101
-90,-90,0,90,-45,-45,-19,-168,-226,-160,-116,-103
-92,-94,-1,93,-45,-47,-22,-174,-235,-161,-122,-106
-88,-96,-7,93,-40,-51,-18,-160,-219,-157,-121,-108
-91,-91,0,91,-45,-46,-16,-169,-233,-166,-129,-112
-85,-84,1,84,-43,-42,-7,-151,-211,-151,-124,-107
-93,-81,12,87,-52,-34,0,-162,-229,-172,-137,-114
-82,-70,12,76,-47,-29,3,-145,-206,-146,-113,-105
-115,-57,58,86,-86,0,21,-155,-222,-177,-118,-116
-146,-12,135,79,-140,61,48,-169,-212,-97,-68,-80
0,126,126,-63,-64,126,81,92,169,297,217,111
507,326,-181,-416,343,73,-280,455,931,1034,794,533
1144,295,-849,-720,996,-277,-813,862,1843,1530,1138,812
933,8,-926,-470,929,-458,-882,277,1006,588,503,448
289,-178,-467,-55,378,-322,-614,-597,-426,-317,-121,2
54,-192,-246,69,150,-219,-263,-379,-371,-265,-161,-112
-60,-139,-79,100,10,-109,-91,-214,-262,-218,-159,-115
-93,-90,3,92,-47,-44,-22,-155,-234,-160,-117,-103
-90,-50,40,69,-64,-5,52,-70,-165,-144,-104,-103
-95,-28,67,61,-81,19,60,-79,-177,-136,-99,-94
-92,-26,66,59,-79,20,71,-39,-138,-123,-88,-90
-104,-20,84,62,-94,32,73,-49,-148,-126,-87,-85
-90,-17,74,53,-82,29,79,-17,-112,-106,-75,-78
-87,-12,75,49,-81,32,83,-10,-100,-102,-74,-75
-75,-7,69,41,-72,31,86,15,-64,-81,-61,-67
-65,0,66,32,-66,33,90,46,-32,-63,-56,-63
-55,8,63,23,-59,35,96,83,12,-35,-45,-56
-46,13,59,16,-53,36,111,133,62,-1,-29,-41
-34,27,61,3,-48,43,125,195,131,44,-1,-29
-9,47,56,-19,-33,51,146,282,231,100,47,0
17,72,55,-45,-19,63,163,376,345,171,90,35
61,116,55,-89,2,85,176,482,480,256,152,75
96,156,60,-126,18,107,178,573,593,339,218,124
131,191,60,-161,35,125,171,635,679,405,270,163
153,214,61,-184,46,137,161,653,709,445,311,194
148,206,59,-177,44,132,155,637,691,451,314,204
143,207,64,-176,39,135,144,561,614,411,297,189
119,195,76,-157,21,135,116,416,450,318,240,146
74,143,70,-109,2,106,92,269,276,200,157,92
29,94,65,-62,-18,79,71,135,120,96,82,46
-5,57,62,-26,-33,59,46,30,1,10,17,4
-28,27,56,0,-43,41,29,-37,-73,-46,-21,-29
-39,14,53,12,-46,33,14,-82,-127,-81,-51,-50
-40,8,47,16,-44,27,3,-110,-151,-107,-69,-60
-42,1,42,20,-42,21,0,-122,-159,-110,-75,-64
-45,-6,39,25,-41,16,-3,-120,-156,-110,-75,-65
-46,-12,33,29,-39,10,-6,-120,-154,-114,-75,-65
-48,-18,30,33,-39,6,-10,-118,-156,-115,-75,-65
-56,-21,35,38,-46,7,-10,-114,-154,-114,-75,-65
-67,-24,43,46,-55,9,-6,-116,-156,-110,-74,-63
-70,-25,45,47,-57,10,-3,-111,-152,-105,-70,-60
-70,-25,45,47,-57,10,0,-110,-150,-101,-67,-57
-74,-25,48,50,-61,11,2,-110,-150,-97,-65,-54
-75,-24,51,50,-62,13,6,-106,-150,-91,-61,-50
-77,-28,49,52,-63,11,2,-105,-150,-92,-60,-51
-76,-30,46,53,-61,7,0,-107,-150,-96,-64,-54
-71,-30,41,50,-56,6,0,-110,-155,-95,-66,-57
-72,-34,38,53,-55,2,0,-113,-155,-95,-65,-60
-70,-35,35,52,-52,0,0,-117,-156,-95,-66,-63
-65,-35,30,50,-47,-2,0,-120,-160,-95,-75,-65
-73,-40,32,56,-52,-4,4,-123,-160,-101,-81,-63
-84,-48,36,66,-60,-6,7,-125,-160,-103,-80,-59
-81,-47,34,63,-57,-6,10,-125,-160,-99,-80,-57
-74,-34,39,54,-56,2,13,-125,-160,-100,-80,-54
-62,-22,39,42,-50,8,15,-125,-160,-96,-80,-51
-56,-14,42,35,-49,14,15,-125,-160,-94,-79,-49
-61,-7,54,34,-57,23,14,-126,-160,-95,-71,-43
-49,-1,48,25,-48,23,16,-124,-155,-89,-63,-34
-32,6,39,13,-36,22,-15,-137,-152,-85,-56,-25
-24,8,32,8,-28,20,-46,-155,-149,-79,-47,-22
-23,0,23,11,-23,11,-37,-154,-144,-73,-45,-28
-19,-4,15,12,-17,5,-27,-156,-140,-66,-44,-32
-36,-28,8,32,-21,-10,-20,-159,-144,-70,-49,-34
-69,-71,-2,70,-33,-36,-14,-160,-181,-110,-88,-52
-85,-102,-16,94,-34,-59,-11,-159,-202,-132,-117,-76
-86,-117,-31,102,-27,-74,-6,-153,-198,-136,-120,-82
-76,-117,-41,97,-17,-79,-2,-157,-203,-144,-120,-83
-73,-115,-41,94,-15,-78,-1,-152,-196,-143,-119,-88
-78,-112,-33,96,-22,-72,-6,-158,-205,-149,-127,-90
-73,-109,-36,91,-19,-72,-5,-152,-192,-140,-130,-84
-81,-106,-26,93,-27,-66,-4,-154,-198,-152,-139,-86
-76,-104,-27,91,-24,-65,-7,-149,-186,-137,-130,-82
-83,-101,-18,92,-32,-59,-1,-147,-187,-148,-140,-81
-90,-91,-1,90,-44,-46,0,-157,-186,-133,-131,-79
-92,-83,9,88,-50,-37,39,-137,-171,-138,-136,-79
-137,-29,108,83,-122,39,57,-166,-212,-116,-99,-49
-66,66,132,0,-100,99,110,35,68,182,113,65
304,234,-70,-269,187,82,-82,338,639,750,550,379
1002,310,-693,-655,847,-191,-653,796,1634,1455,1085,789
1142,86,-1055,-614,1098,-484,-905,606,1474,953,738,620
488,-143,-631,-172,560,-387,-723,-441,-127,-174,-43,108
93,-210,-303,59,198,-256,-367,-506,-471,-307,-205,-86
-13,-172,-160,93,74,-166,-121,-207,-227,-223,-179,-104
-76,-104,-27,90,-24,-65,-40,-177,-229,-179,-140,-89
-83,-78,5,80,-44,-36,58,-55,-130,-129,-114,-80
-94,-66,28,80,-61,-19,73,-60,-146,-136,-112,-72
-94,-58,36,76,-64,-11,78,-21,-109,-107,-96,-63
-104,-50,53,77,-78,2,88,-19,-108,-112,-98,-59
-90,-44,45,67,-67,0,89,-4,-77,-94,-84,-50
-81,-38,43,59,-62,2,100,22,-50,-90,-84,-45
-70,-30,40,50,-55,5,102,38,-31,-67,-72,-37
-60,-26,35,42,-47,4,110,71,3,-47,-58,-33
-51,-17,33,34,-42,8,112,99,36,-25,-45,-25
-37,-9,29,23,-33,10,117,144,85,0,-32,-23
-21,7,27,6,-24,17,135,195,138,32,-12,-8
6,30,24,-18,-9,26,151,271,226,86,26,16
34,55,21,-45,7,38,170,365,337,153,71,50
68,88,20,-78,24,54,193,474,468,241,134,102
101,132,31,-117,35,81,195,574,589,320,192,144
132,168,37,-150,47,102,191,645,682,390,243,190
152,186,34,-170,59,110,184,676,730,435,290,223
166,202,36,-184,65,119,179,667,723,449,291,217
168,202,34,-186,67,118,173,613,666,430,281,209
147,184,37,-166,55,110,145,484,524,350,248,190
94,152,58,-123,18,105,110,325,341,243,168,138
35,105,70,-70,-18,88,79,186,178,133,94,89
-3,66,69,-32,-36,68,56,73,47,43,26,51
-29,41,70,-6,-50,56,40,-7,-45,-16,-18,15
-46,24,70,11,-58,47,30,-56,-98,-60,-46,-2
-59,11,70,24,-65,40,20,-89,-122,-86,-74,-6
-70,0,70,35,-70,35,9,-111,-138,-98,-81,-11
-73,-6,66,39,-69,30,5,-118,-140,-105,-83,-17
-73,-11,61,42,-67,25,5,-115,-140,-105,-85,-23
-71,-15,56,43,-63,20,5,-111,-140,-105,-80,-25
-73,-20,53,46,-63,16,5,-108,-140,-105,-80,-25
-71,-25,47,48,-59,11,5,-103,-141,-105,-80,-25
-68,-22,46,44,-57,12,8,-100,-138,-103,-80,-25
-69,-19,50,44,-60,16,11,-96,-133,-96,-80,-25
-66,-16,49,41,-57,16,14,-95,-127,-91,-80,-25
-66,-13,52,39,-59,19,17,-95,-124,-86,-80,-25
-65,-10,55,37,-60,22,20,-90,-118,-80,-80,-25
-66,-11,55,38,-60,21,19,-90,-116,-76,-80,-25
-70,-15,55,42,-62,20,14,-91,-120,-79,-80,-25
-73,-17,55,44,-64,19,11,-98,-125,-84,-80,-25
-75,-20,55,47,-65,17,7,-104,-128,-88,-85,-25
-79,-23,55,50,-67,16,3,-111,-134,-90,-88,-25
-80,-26,55,53,-67,14,0,-125,-147,-97,-95,-37
-76,-20,56,48,-66,18,-4,-133,-157,-107,-103,-53
-73,-12,61,43,-67,24,-5,-139,-168,-115,-100,-55
-73,-4,69,38,-71,32,-7,-136,-173,-119,-97,-55
-76,4,80,36,-79,41,-11,-135,-169,-116,-94,-55
-66,12,78,27,-72,45,-9,-135,-167,-113,-90,-55
-65,21,87,22,-76,54,-4,-130,-164,-110,-90,-55
-63,36,99,13,-81,67,-6,-130,-160,-107,-80,-48
-47,43,91,2,-69,66,-2,-131,-161,-105,-65,-39
-31,53,84,-11,-58,68,-23,-146,-173,-103,-50,-30
-4,74,77,-35,-41,75,-62,-161,-176,-100,-26,-27
4,72,67,-38,-32,70,-54,-159,-173,-98,-15,-30
-8,64,71,-29,-40,67,-39,-163,-177,-96,-14,-31
-33,39,72,-3,-53,55,-36,-165,-172,-92,-21,-27
-71,-12,59,41,-65,23,-29,-165,-197,-125,-61,-57
-96,-48,48,72,-72,0,-25,-174,-226,-148,-84,-87
-98,-62,37,80,-68,-12,-18,-170,-223,-144,-84,-88
-91,-62,30,76,-60,-16,-14,-172,-228,-145,-90,-93
-87,-65,22,76,-54,-22,-9,-167,-221,-137,-88,-96
-86,-70,16,78,-51,-26,-10,-168,-230,-144,-88,-101
-78,-71,6,74,-42,-32,-10,-162,-218,-132,-81,-98
-72,-71,2,71,-37,-34,-9,-166,-225,-138,-89,-102
-78,-68,10,73,-44,-29,-13,-157,-215,-119,-80,-97
-85,-68,17,76,-51,-25,-1,-148,-214,-128,-89,-103
-78,-62,16,70,-47,-23,4,-152,-218,-109,-82,-98
-105,-66,39,85,-72,-13,29,-123,-196,-114,-84,-97
-152,-22,130,87,-141,54,62,-143,-225,-97,-64,-88
-78,64,142,7,-110,103,123,48,61,222,160,53
282,220,-62,-251,172,79,-68,317,606,795,616,383
982,310,-673,-646,827,-182,-646,658,1512,1489,1151,796
1104,79,-1024,-591,1064,-472,-926,406,1306,962,794,615
446,-165,-612,-140,529,-388,-715,-536,-240,-184,-30,65
59,-233,-292,87,176,-262,-349,-543,-536,-315,-177,-112
-48,-202,-154,125,53,-178,-114,-237,-278,-226,-143,-123
-105,-134,-29,119,-38,-81,-47,-202,-262,-174,-122,-113
-87,-96,-9,91,-38,-52,25,-88,-149,-115,-92,-101
-82,-67,14,74,-47,-26,64,-69,-165,-109,-90,-99
-87,-65,22,75,-54,-21,76,-27,-128,-82,-67,-91
-96,-62,34,79,-65,-14,79,-25,-119,-90,-68,-93
-84,-58,26,71,-55,-16,81,-8,-84,-68,-55,-86
-78,-57,21,67,-49,-18,86,18,-61,-66,-52,-87
-70,-53,17,61,-43,-18,88,34,-45,-49,-43,-82
-61,-52,9,56,-35,-22,91,62,-7,-35,-38,-63
-53,-47,6,50,-29,-20,91,92,24,-11,-31,-43
-46,-47,-1,46,-22,-23,97,133,76,21,-12,-29
-32,-37,-5,35,-13,-21,107,184,135,54,19,-8
7,-2,-10,-3,9,-6,123,258,225,116,60,19
46,32,-14,-39,30,9,140,346,332,181,108,64
72,54,-18,-63,45,17,157,447,458,264,166,115
108,85,-23,-96,65,31,163,540,585,349,228,158
135,111,-25,-122,80,43,154,611,675,419,283,199
146,127,-19,-136,82,53,148,642,731,475,326,236
159,147,-12,-153,85,67,141,640,730,486,331,258
146,140,-6,-143,76,67,135,595,677,472,319,259
123,125,1,-124,61,63,127,485,553,407,297,234
102,109,7,-106,47,57,108,351,377,300,226,178
55,70,14,-63,20,42,84,220,214,192,139,129
5,32,27,-19,-12,30,62,100,72,83,69,90
-30,0,31,15,-30,15,47,18,-28,8,17,50
-53,-24,30,38,-41,3,37,-31,-89,-35,-20,19
-66,-36,30,51,-48,-3,24,-69,-125,-65,-51,1
-73,-43,30,58,-51,-6,20,-93,-145,-84,-67,-1
-73,-43,30,58,-51,-6,20,-99,-151,-85,-72,-4
-65,-39,25,52,-45,-7,20,-102,-149,-85,-75,-7
-62,-37,25,49,-43,-6,20,-105,-150,-85,-75,-10
-59,-34,25,46,-42,-4,20,-107,-150,-86,-75,-9
-55,-31,24,43,-40,-3,20,-111,-150,-95,-75,-4
-55,-29,26,42,-40,-1,20,-108,-149,-97,-75,-6
-48,-26,22,36,-34,-2,20,-101,-144,-91,-74,-2
-45,-25,20,35,-32,-2,20,-96,-139,-87,-71,0
-45,-25,20,35,-32,-2,20,-91,-135,-83,-69,0
-42,-25,17,33,-29,-4,20,-85,-130,-77,-71,-4
-39,-24,15,31,-26,-5,17,-81,-125,-76,-69,-11
-43,-28,15,35,-28,-6,11,-85,-129,-85,-71,-17
-67,-30,37,48,-52,4,6,-93,-137,-95,-67,-24
-77,-32,45,54,-61,6,3,-102,-141,-99,-61,-31
-67,-35,32,51,-49,-1,-3,-113,-150,-118,-80,-35
-62,-36,26,49,-43,-5,-4,-122,-164,-133,-87,-35
-57,-37,21,47,-39,-8,1,-128,-165,-135,-81,-35
-55,-28,27,41,-41,0,7,-131,-165,-140,-80,-36
-43,-20,23,31,-33,2,10,-135,-165,-137,-76,-34
-38,-11,27,24,-33,8,16,-140,-165,-134,-75,-30
-52,-1,51,26,-51,24,19,-140,-165,-131,-71,-27
-45,15,60,15,-53,37,17,-141,-162,-128,-70,-22
-32,30,62,1,-47,46,12,-139,-156,-126,-71,-20
-21,46,66,-13,-44,56,-27,-146,-152,-124,-70,-25
-1,64,65,-32,-33,64,-61,-166,-148,-120,-70,-25
-4,60,65,-29,-35,62,-57,-170,-141,-117,-69,-29
-22,51,73,-15,-48,62,-33,-170,-143,-114,-64,-30
-45,9,53,18,-49,31,-10,-169,-160,-124,-75,-33
-73,-43,30,58,-51,-7,-10,-170,-195,-170,-114,-64
-85,-58,27,71,-56,-15,-10,-170,-212,-194,-133,-91
-82,-61,20,71,-51,-20,-9,-166,-209,-195,-136,-97
-78,-59,19,68,-48,-20,-11,-165,-212,-195,-139,-100
-71,-61,10,65,-40,-25,-9,-158,-202,-198,-141,-104
-73,-60,13,66,-43,-23,-11,-162,-211,-203,-147,-108
-76,-60,17,68,-46,-21,-9,-150,-196,-193,-141,-107
-89,-55,34,72,-61,-10,-10,-159,-211,-203,-150,-117
-82,-47,36,64,-59,-5,-10,-145,-188,-179,-138,-111
-89,-46,43,68,-66,-1,-9,-153,-204,-202,-153,-119
-70,-33,37,51,-53,2,1,-145,-187,-167,-140,-102
-87,-33,54,60,-70,10,49,-140,-189,-198,-155,-114
-129,33,162,48,-146,98,67,-137,-180,-108,-79,-84
20,162,142,-91,-61,152,92,122,203,324,245,124
429,345,-84,-386,256,130,-183,359,779,989,782,515
1035,372,-663,-703,849,-146,-741,630,1630,1633,1260,886
938,52,-886,-495,912,-417,-864,188,1045,798,680,551
298,-165,-463,-66,381,-314,-587,-618,-424,-327,-130,-6
50,-180,-230,65,140,-205,-262,-439,-455,-348,-217,-146
-61,-146,-84,104,12,-115,-81,-239,-293,-291,-202,-168
-95,-76,19,85,-57,-28,-28,-187,-253,-226,-167,-149
-80,-29,52,54,-66,11,31,-85,-163,-195,-153,-143
-90,-2,88,46,-89,43,55,-79,-167,-174,-128,-137
-77,-7,71,41,-73,32,66,-34,-115,-148,-104,-132
-79,-4,75,41,-77,36,67,-41,-130,-156,-107,-133
-64,1,65,31,-65,33,70,-17,-96,-137,-92,-126
-65,-2,63,33,-64,31,74,-5,-87,-137,-92,-127
-53,5,59,24,-56,32,75,25,-58,-109,-81,-122
-38,16,54,11,-47,35,79,47,-18,-94,-77,-112
-41,15,56,12,-49,36,81,77,21,-62,-59,-95
-37,14,52,11,-45,33,97,124,71,-18,-35,-85
-16,34,50,-9,-33,42,111,173,137,18,-4,-74
13,63,50,-38,-19,57,119,242,224,71,35,-42
35,81,46,-58,-6,63,131,329,340,160,94,0
65,105,40,-86,12,73,144,437,478,256,161,44
118,153,35,-136,41,93,149,521,590,333,214,84
158,188,30,-173,64,109,141,588,683,415,274,116
181,204,23,-193,79,113,133,608,726,464,325,154
183,204,21,-194,81,113,125,593,708,475,341,172
164,198,35,-181,64,116,118,537,635,445,318,156
138,188,50,-163,44,118,104,409,479,337,248,109
92,157,65,-125,13,111,82,273,299,213,164,43
48,119,71,-84,-12,95,65,155,153,110,86,-13
8,82,74,-45,-34,77,51,51,32,18,10,-58
-27,49,76,-11,-52,62,40,-17,-55,-52,-44,-100
-44,28,72,7,-58,50,30,-60,-111,-95,-67,-126
-59,11,70,24,-65,40,22,-91,-141,-119,-87,-142
-68,-2,66,35,-67,32,12,-100,-153,-126,-103,-155
-72,-7,65,39,-68,29,6,-102,-160,-124,-105,-161
-72,-10,62,41,-67,26,10,-106,-160,-130,-110,-168
-71,-13,57,42,-64,22,10,-105,-160,-130,-106,-170
-72,-18,54,45,-63,18,12,-105,-160,-130,-104,-170
-71,-20,51,45,-61,16,16,-105,-160,-128,-105,-170
-61,-16,45,38,-53,15,15,-106,-158,-125,-100,-170
-60,-13,47,36,-53,17,12,-103,-151,-125,-100,-170
-70,-10,59,40,-64,24,9,-100,-144,-122,-100,-170
-69,-7,61,38,-65,27,10,-101,-138,-119,-100,-175
-62,-5,57,33,-59,26,10,-96,-131,-116,-100,-175
-58,-3,55,30,-56,26,10,-95,-126,-113,-100,-176
-51,0,52,25,-52,26,9,-95,-130,-110,-100,-181
-49,0,48,24,-48,24,4,-101,-133,-111,-100,-179
-61,0,61,31,-61,31,1,-108,-139,-117,-103,-183
-71,0,71,36,-71,36,-2,-113,-153,-128,-107,-192
-69,0,69,35,-69,35,-7,-122,-162,-137,-115,-191
-63,8,71,28,-67,39,-10,-126,-173,-140,-115,-190
-53,16,68,18,-61,42,-7,-124,-179,-144,-115,-190
-56,25,81,15,-68,53,-1,-125,-182,-142,-112,-190
-64,32,96,16,-80,64,2,-124,-185,-136,-109,-190
-60,44,104,8,-82,73,8,-125,-187,-131,-110,-188
-51,52,103,-1,-77,77,9,-127,-191,-128,-104,-180
-38,62,99,-12,-69,80,-25,-140,-188,-122,-99,-176
-15,81,96,-33,-56,88,-54,-158,-186,-122,-94,-180
-16,76,92,-31,-54,84,-45,-160,-183,-125,-89,-180
-25,62,87,-18,-57,75,-32,-159,-181,-132,-80,-184
-32,34,67,-1,-50,50,-25,-160,-178,-132,-88,-185
-64,-28,36,46,-50,4,-21,-159,-195,-145,-122,-187
-87,-77,9,82,-48,-34,-19,-160,-217,-174,-132,-197
-89,-93,-4,91,-42,-48,-14,-153,-213,-174,-136,-208
-92,-99,-7,96,-42,-53,-11,-155,-218,-177,-151,-215
-97,-110,-14,104,-41,-61,-7,-147,-212,-172,-148,-214
-92,-120,-27,106,-32,-73,-4,-148,-218,-179,-152,-216
-76,-119,-42,98,-17,-80,-3,-144,-211,-170,-142,-214
-87,-122,-34,105,-26,-78,3,-141,-207,-173,-148,-216
-92,-118,-26,105,-33,-72,1,-143,-206,-168,-142,-214
-97,-122,-25,110,-36,-73,9,-133,-190,-166,-140,-216
-110,-119,-9,115,-51,-63,0,-152,-208,-171,-143,-215
-97,-110,-13,104,-42,-62,18,-124,-170,-152,-132,-230
-145,-88,58,116,-101,-15,51,-160,-231,-170,-140,-237
-102,8,110,46,-106,59,104,-21,-43,81,48,-141
185,183,-2,-184,93,90,-9,254,456,657,506,180
814,324,-490,-569,652,-83,-534,640,1432,1565,1189,744
1115,121,-994,-618,1054,-437,-867,659,1695,1410,1068,764
547,-192,-739,-177,643,-466,-717,-280,165,50,123,195
95,-266,-361,86,229,-313,-387,-549,-506,-345,-204,-61
-23,-232,-209,128,93,-221,-123,-228,-260,-232,-175,-75
-104,-165,-61,134,-21,-113,-46,-193,-265,-215,-159,-62
-91,-107,-16,99,-37,-61,29,-76,-159,-142,-118,-30
-102,-76,25,89,-63,-25,75,-59,-170,-162,-126,-17
-104,-68,36,86,-70,-16,73,-39,-132,-132,-103,3
-112,-64,48,88,-80,-8,80,-25,-124,-134,-104,12
-106,-54,52,80,-79,-1,79,-18,-112,-113,-90,26
-98,-50,48,74,-73,-1,85,2,-83,-101,-87,38
-91,-39,52,65,-71,6,86,12,-69,-88,-79,39
-79,-31,48,55,-63,8,89,44,-32,-71,-72,47
-70,-19,51,45,-61,16,92,62,-5,-56,-67,56
-60,-11,49,35,-54,19,94,102,42,-27,-47,66
-49,1,50,24,-50,26,99,149,98,8,-19,89
-27,23,50,2,-39,36,116,214,182,62,19,116
-13,37,50,-12,-32,43,132,297,282,127,64,155
22,72,50,-47,-14,61,150,392,411,215,122,199
65,117,51,-91,7,84,158,491,540,311,194,252
89,145,56,-118,17,100,151,571,651,403,267,307
111,166,55,-139,28,110,146,609,714,468,320,346
129,184,55,-157,37,119,140,614,716,484,340,364
125,180,55,-153,35,117,135,575,681,470,340,367
103,158,55,-131,24,106,119,466,549,406,301,345
80,131,52,-106,14,91,97,331,369,285,222,289
39,85,46,-63,-4,65,77,203,212,169,140,227
-2,40,42,-19,-22,40,60,95,71,67,65,179
-37,1,37,18,-37,19,47,14,-30,-14,7,143
-54,-22,33,38,-43,5,35,-45,-97,-63,-33,113
-66,-37,29,51,-47,-4,23,-83,-142,-95,-64,102
-79,-57,23,68,-51,-17,13,-99,-158,-115,-73,96
-79,-61,17,70,-48,-22,14,-100,-155,-123,-69,89
-85,-74,11,80,-48,-31,15,-100,-152,-120,-70,83
-89,-82,6,85,-48,-38,16,-97,-150,-120,-66,76
-84,-84,0,84,-42,-41,21,-95,-146,-118,-65,78
-87,-95,-8,92,-40,-51,19,-95,-145,-114,-65,81
-93,-107,-14,100,-39,-60,23,-91,-142,-116,-60,79
-89,-111,-22,100,-33,-66,27,-86,-136,-111,-60,82
-80,-109,-29,95,-26,-69,32,-81,-131,-105,-59,85
-74,-110,-36,93,-19,-73,35,-78,-128,-100,-55,85
-70,-110,-40,90,-15,-75,30,-72,-122,-95,-55,85
-68,-110,-42,90,-13,-76,30,-71,-121,-88,-57,85
-69,-115,-46,92,-11,-80,30,-76,-130,-87,-61,85
-74,-115,-41,95,-16,-78,30,-75,-135,-90,-63,81
-75,-115,-40,95,-17,-77,30,-76,-138,-91,-66,76
-73,-113,-40,93,-16,-76,32,-74,-147,-94,-69,71
-72,-107,-35,90,-18,-71,36,-82,-150,-96,-70,68
-68,-104,-35,87,-16,-70,35,-96,-150,-91,-65,62
-65,-98,-34,82,-15,-65,35,-97,-150,-90,-61,61
-69,-95,-26,82,-21,-61,34,-94,-150,-90,-59,65
-68,-86,-17,77,-25,-51,36,-95,-150,-85,-54,65
-62,-74,-11,68,-25,-42,24,-95,-150,-85,-51,67
-52,-61,-9,57,-21,-35,10,-97,-154,-84,-47,71
-37,-43,-6,40,-15,-24,-6,-121,-168,-80,-45,69
-35,-39,-3,37,-16,-20,-45,-144,-176,-80,-44,67
-45,-46,0,45,-22,-22,-44,-144,-174,-75,-40,64
-47,-47,-1,47,-23,-24,-26,-146,-176,-74,-39,61
-49,-56,-7,53,-21,-31,-26,-144,-174,-91,-57,58
-78,-91,-13,84,-32,-51,-21,-148,-195,-129,-95,26
-96,-112,-16,104,-40,-64,-19,-156,-224,-161,-126,-1
-83,-109,-26,97,-29,-67,-16,-155,-225,-166,-133,-5
-85,-110,-26,98,-30,-68,-15,-155,-225,-169,-136,-13
-71,-110,-39,91,-16,-74,-15,-155,-225,-173,-141,-19
-88,-110,-21,99,-33,-65,-15,-155,-225,-175,-144,-26
-110,-110,0,110,-55,-55,-15,-155,-224,-180,-145,-31
-57,-103,-46,81,-5,-75,-15,-155,-219,-180,-144,-35
-39,-103,-64,71,13,-83,-13,-155,-220,-180,-148,-40
