I,II,III,aVR,aVL,aVF,V1,V2,V3,V4,V5,V6
-65,-105,-40,85,-12,-72,5,-5,-15,15,-55,-50
-65,-105,-40,85,-12,-72,5,-5,-15,15,-55,-50
-65,-105,-40,85,-12,-72,5,-5,-15,15,-55,-50
-65,-105,-40,85,-12,-72,5,-1,-15,15,-52,-50
-66,-106,-40,86,-12,-72,5,0,-15,15,-50,-51
-64,-104,-40,84,-12,-72,6,1,-14,15,-50,-50
-71,-94,-23,83,-24,-59,9,4,-10,25,-40,-40
-66,-70,-4,68,-31,-36,12,6,1,36,-26,-24
-34,-30,5,32,-19,-12,15,8,23,51,-11,-13
-16,-8,8,12,-12,0,10,12,34,61,1,-2
-24,-7,17,15,-20,5,-18,3,28,59,13,8
-20,-1,18,10,-19,8,-44,-17,32,64,23,18
8,18,10,-13,-1,13,-41,-27,25,61,27,30
19,4,-15,-11,17,-6,-30,-24,26,49,15,20
7,-39,-46,16,27,-42,-19,-25,25,35,0,6
-24,-73,-49,49,12,-61,-12,-26,3,20,-13,-12
-57,-111,-54,84,-1,-82,-5,-23,-26,7,-50,-46
-80,-123,-43,101,-18,-83,-7,-26,-45,4,-45,-39
-92,-151,-59,122,-16,-105,3,-8,-33,-5,-56,-52
-91,-129,-37,110,-27,-83,-1,-12,-58,-10,-27,-38
-77,-153,-75,115,-1,-114,13,14,-18,-19,-53,-63
-93,-156,-63,125,-14,-109,82,112,107,16,-69,-95
-53,8,61,22,-57,34,96,242,462,352,131,16
321,417,96,-369,112,256,-283,-62,333,769,782,596
610,905,296,-758,157,600,-839,-827,-702,648,1435,1339
327,460,133,-394,97,296,-704,-886,-1145,-83,621,794
7,-169,-177,81,92,-173,-275,-349,-800,-480,-283,-55
-68,-167,-98,118,15,-132,-110,-78,-410,-250,-162,-82
-72,-170,-98,121,13,-134,-14,-16,-136,-104,-127,-86
-60,-143,-83,102,12,-112,22,-15,-51,-51,-85,-72
-76,-141,-66,109,-5,-103,48,-2,-15,-16,-70,-63
-77,-145,-68,112,-5,-106,43,4,-1,-19,-77,-65
-79,-131,-52,106,-13,-92,36,7,14,-3,-54,-47
-84,-141,-57,113,-13,-99,36,16,25,-4,-64,-52
-84,-126,-42,105,-20,-84,26,19,34,8,-43,-36
-79,-123,-44,101,-17,-83,27,26,46,10,-50,-38
-58,-93,-35,76,-11,-64,18,28,51,19,-40,-27
-45,-80,-35,63,-5,-57,14,32,64,27,-40,-25
-51,-87,-36,69,-7,-61,5,34,75,33,-36,-18
-46,-80,-34,64,-6,-57,-1,38,79,36,-31,-12
-27,-64,-37,46,5,-50,-7,40,90,33,-14,-3
-20,-52,-32,36,7,-42,-15,48,106,37,8,0
-7,-38,-31,22,12,-34,-27,54,132,47,17,21
12,-16,-29,2,21,-22,-45,68,173,72,45,55
42,16,-26,-29,34,-5,-56,97,209,95,81,82
80,55,-25,-67,53,14,-91,108,256,125,124,131
114,99,-15,-106,64,42,-132,124,298,167,183,187
158,166,8,-162,75,86,-169,139,329,205,248,253
178,218,39,-198,69,128,-211,133,353,248,310,311
205,260,55,-233,75,157,-242,129,345,281,366,361
230,299,69,-265,81,183,-263,124,333,297,397,391
208,295,87,-251,60,191,-243,120,324,294,396,381
176,258,82,-217,47,170,-203,116,285,282,360,346
126,200,73,-163,26,136,-155,104,236,250,286,272
65,124,59,-95,3,92,-105,82,189,195,205,188
9,42,33,-26,-12,37,-66,65,128,144,128,116
-36,-19,17,27,-27,-1,-27,52,72,92,72,62
-53,-43,10,48,-31,-16,-7,38,44,54,47,35
-78,-76,2,77,-40,-37,-11,28,35,44,29,21
-98,-106,-8,102,-45,-56,-8,15,23,38,15,15
-90,-104,-14,97,-37,-59,-4,6,12,30,3,4
-79,-105,-26,93,-26,-65,-1,5,10,22,-1,-3
-62,-105,-43,84,-9,-74,4,5,10,16,0,-1
-59,-105,-46,83,-6,-75,6,5,6,20,-4,2
-59,-104,-45,82,-7,-74,19,6,5,26,-5,4
-55,-100,-45,78,-5,-72,23,4,4,33,-4,8
-55,-100,-45,78,-5,-72,17,12,18,33,-1,10
-52,-95,-43,74,-4,-69,15,32,40,29,1,10
-54,-95,-40,74,-6,-67,10,36,40,30,-1,10
-62,-99,-37,81,-12,-68,7,35,39,30,1,10
-65,-100,-35,83,-15,-67,4,35,36,30,-1,10
-69,-100,-31,85,-19,-66,-5,35,35,30,4,10
-70,-100,-29,85,-21,-65,-6,35,34,25,16,10
-52,-101,-49,76,-1,-75,4,32,25,21,13,5
-41,-98,-57,70,8,-77,11,27,15,18,7,5
-45,-95,-50,70,3,-72,17,24,6,14,4,4
-45,-95,-50,70,3,-72,20,20,1,11,-1,0
-47,-93,-46,71,-1,-69,25,16,-3,8,-6,0
-46,-89,-44,68,-1,-66,30,13,-8,3,-10,0
-35,-90,-55,63,10,-73,27,10,-12,-3,-10,0
-40,-101,-62,70,11,-81,24,5,-17,-6,-10,0
-51,-107,-56,79,3,-81,25,3,-22,-12,-10,0
-49,-104,-55,77,3,-79,24,-2,-28,-15,-10,0
-52,-102,-50,77,-1,-76,26,-5,-33,-10,-8,1
-49,-99,-50,74,1,-75,23,-2,-32,-10,-5,5
-44,-100,-56,72,6,-78,20,1,-29,-10,-5,5
-64,-115,-51,90,-7,-83,20,4,-27,-10,-5,8
-75,-119,-44,97,-15,-81,20,7,-23,-11,-5,10
-72,-109,-38,91,-17,-73,20,10,-20,-6,-6,12
-76,-106,-31,91,-22,-68,20,11,-19,9,5,22
-51,-76,-25,64,-13,-50,32,20,-2,22,16,30
-18,-38,-20,28,1,-29,33,30,16,33,29,38
-9,-28,-19,19,5,-23,24,40,29,51,51,54
-5,-19,-15,13,5,-17,22,42,38,55,55,61
2,-11,-13,5,8,-12,-11,33,32,56,62,56
5,-3,-8,-1,7,-5,-40,29,27,56,62,51
13,-8,-21,-3,17,-14,-34,19,17,45,55,50
11,-55,-66,22,39,-60,-21,17,16,34,45,43
-17,-80,-63,49,24,-72,-14,6,-2,22,35,44
-45,-110,-66,78,11,-88,-3,6,-7,15,13,32
-75,-141,-66,108,-4,-103,0,-7,-30,5,6,28
-87,-148,-62,118,-12,-104,7,-10,-35,4,7,23
-84,-156,-72,121,-6,-114,15,-15,-41,-10,-9,9
-79,-138,-59,109,-10,-98,15,-33,-48,-8,7,16
-81,-187,-106,134,12,-146,72,59,9,-19,-47,-46
-126,-121,4,124,-65,-58,132,222,229,117,18,-14
57,99,42,-78,7,71,13,255,560,525,346,230
533,627,94,-580,219,361,-541,-384,-58,758,1085,965
604,790,185,-698,210,487,-889,-1014,-1018,350,1168,1246
183,54,-129,-119,156,-38,-516,-686,-1022,-346,111,356
-61,-239,-178,150,59,-208,-177,-217,-626,-398,-233,-72
-70,-147,-77,109,4,-112,-46,-60,-257,-130,-72,-8
-61,-175,-114,119,27,-145,21,3,-80,-79,-81,-46
-62,-139,-77,101,8,-108,27,19,-38,-37,-28,-5
-65,-158,-93,112,14,-125,49,29,-3,-35,-51,-22
-66,-141,-75,104,5,-108,49,30,8,-26,-26,-1
-68,-143,-75,106,3,-109,53,39,30,-18,-28,-1
-69,-139,-70,105,0,-105,49,40,36,-14,-20,6
-71,-131,-60,101,-5,-96,49,39,48,-4,-11,14
-67,-128,-60,98,-3,-94,46,41,54,-3,-9,15
-70,-117,-48,94,-11,-82,44,50,60,5,3,26
-48,-113,-66,81,9,-89,46,61,66,7,6,27
-21,-106,-85,64,32,-95,37,63,73,13,10,36
-19,-100,-82,60,32,-91,36,65,80,17,19,44
-19,-95,-76,58,29,-85,30,79,100,24,41,58
-13,-86,-73,50,30,-79,20,85,122,32,42,69
9,-59,-67,25,38,-63,-4,101,148,47,60,91
48,-17,-65,-15,57,-41,-37,125,188,72,90,116
79,15,-65,-47,72,-25,-50,143,224,100,118,145
104,38,-66,-71,85,-14,-77,164,260,130,170,189
153,103,-50,-127,102,26,-116,177,301,175,232,254
176,164,-12,-170,94,76,-168,179,325,212,294,315
201,223,23,-212,89,123,-210,173,329,238,354,371
232,267,35,-250,98,151,-230,169,321,268,395,414
226,277,52,-252,87,164,-248,165,318,286,415,416
217,274,57,-246,80,165,-217,153,300,281,405,401
181,224,43,-203,69,133,-179,136,259,243,351,345
124,162,38,-144,43,100,-142,118,214,194,276,264
74,96,23,-85,25,59,-84,91,166,157,204,193
25,37,12,-31,6,24,-41,68,114,113,141,134
8,-2,-11,-3,10,-6,-14,58,67,73,100,89
5,-38,-43,17,24,-41,8,50,46,59,71,66
-4,-49,-45,27,20,-47,20,41,36,48,57,64
-6,-51,-45,29,20,-48,25,35,25,39,55,61
-22,-67,-45,45,11,-56,33,32,23,35,52,58
-24,-69,-45,47,11,-57,32,28,19,30,49,55
-17,-62,-45,40,14,-53,29,25,16,27,46,54
-19,-59,-40,39,11,-49,30,20,11,21,45,55
-18,-53,-35,36,9,-44,25,22,11,22,51,55
-20,-50,-30,35,5,-40,26,30,19,26,58,55
-18,-45,-28,32,6,-36,24,34,27,30,58,55
-23,-42,-19,33,-2,-30,19,30,34,38,54,54
-10,-38,-28,24,9,-33,15,30,35,40,52,60
-12,-36,-24,24,7,-29,10,29,35,40,49,62
-4,-29,-25,16,11,-27,26,25,34,40,46,59
20,-36,-56,9,38,-46,32,25,26,40,44,60
-14,-66,-53,40,20,-60,26,23,19,40,41,55
-24,-70,-47,47,12,-58,25,17,12,34,36,55
-19,-64,-45,42,13,-54,20,13,4,27,34,54
-25,-63,-37,44,6,-50,20,8,-2,21,29,49
-20,-56,-36,39,8,-46,15,4,-9,14,26,44
-27,-55,-28,41,1,-41,15,-1,-12,8,22,39
-25,-50,-25,38,0,-37,13,-5,-16,2,20,35
-36,-51,-15,44,-11,-33,10,-9,-19,0,20,30
-47,-70,-24,59,-11,-47,9,-14,-24,-3,21,36
-24,-74,-50,50,13,-62,17,-13,-25,-6,19,41
-16,-66,-50,41,17,-58,32,-9,-25,-9,22,40
-15,-64,-50,40,18,-56,30,-10,-37,-10,38,40
-8,-58,-50,33,21,-54,30,-10,-39,-5,41,40
-5,-55,-49,30,23,-52,30,-10,-31,-5,39,40
-5,-55,-50,30,23,-52,30,-10,-30,-5,41,36
-10,-55,-45,33,18,-50,30,-10,-23,-5,38,34
-13,-55,-42,34,15,-48,26,-10,-20,-5,40,35
-16,-55,-38,36,11,-46,24,-10,-25,-2,40,35
-21,-56,-35,39,7,-45,20,-10,-25,0,36,35
-22,-52,-31,37,5,-41,18,-10,-27,0,35,36
-17,-44,-27,31,6,-35,14,-8,-30,0,29,40
-12,-37,-25,25,7,-31,19,-1,-30,0,31,40
-6,-27,-21,17,8,-24,27,4,-27,0,32,39
-2,-22,-20,12,9,-21,36,9,-18,11,47,51
7,4,-3,-6,5,0,44,16,4,32,71,70
29,42,13,-36,8,27,36,19,22,46,76,76
36,45,9,-40,13,26,19,17,20,53,78,78
38,46,8,-42,14,27,-10,12,19,53,87,88
58,61,3,-60,27,31,-16,12,18,46,90,94
62,52,-10,-57,36,21,-10,5,12,41,85,91
53,12,-41,-32,47,-14,-5,8,18,35,71,79
37,-13,-50,-12,44,-31,-1,0,2,18,59,65
8,-38,-46,15,27,-42,3,-2,-4,-1,42,43
-15,-61,-45,39,15,-53,10,-10,-20,-12,34,36
-33,-69,-35,51,1,-51,12,-16,-26,-16,36,37
-47,-90,-43,69,-2,-66,29,-15,-31,-26,17,22
-46,-71,-25,59,-10,-48,17,-37,-55,-24,32,35
-45,-114,-69,80,12,-91,58,38,-3,-17,-6,-17
-89,-65,23,77,-56,-21,139,196,189,88,42,-8
33,126,93,-80,-30,109,61,295,540,420,289,182
519,601,82,-560,218,341,-458,-302,47,678,943,846
682,845,163,-764,259,503,-883,-1062,-980,332,1150,1218
262,179,-83,-220,172,48,-568,-807,-1079,-334,182,419
-5,-174,-169,90,83,-172,-206,-302,-680,-417,-218,-75
-43,-91,-47,67,2,-69,-47,-88,-299,-161,-37,-15
-65,-131,-66,98,1,-99,46,-1,-99,-84,-73,-43
-56,-95,-38,76,-9,-66,50,2,-60,-45,-22,-7
-56,-105,-49,81,-3,-77,66,20,-17,-46,-34,-23
-53,-92,-39,72,-7,-65,71,17,-13,-42,-19,-10
-52,-88,-36,70,-8,-62,75,28,8,-38,-16,-8
-52,-87,-36,70,-8,-61,60,31,12,-38,-15,-7
-52,-77,-25,64,-13,-51,57,35,24,-32,-4,1
-54,-78,-25,66,-14,-51,55,35,23,-33,-7,1
-68,-83,-15,76,-26,-49,50,33,32,-25,4,11
-69,-82,-13,76,-28,-47,47,43,45,-25,4,11
-62,-66,-4,64,-28,-35,43,36,51,-18,12,19
-45,-65,-20,56,-13,-42,36,57,71,-16,14,21
-26,-53,-27,40,1,-39,26,78,75,-13,20,30
-7,-30,-23,19,8,-26,17,74,101,-2,19,40
35,1,-34,-18,35,-16,8,91,123,6,37,50
56,26,-30,-41,43,-2,-7,111,151,32,65,66
65,51,-14,-57,39,18,-38,121,187,51,89,99
95,85,-10,-90,52,37,-59,148,217,73,127,142
146,144,-2,-145,74,71,-100,174,251,118,193,203
191,213,22,-202,84,117,-155,173,276,158,251,264
226,266,39,-247,93,152,-177,168,301,198,300,313
234,306,71,-270,81,188,-193,164,299,227,356,360
221,317,96,-269,62,207,-194,160,286,232,361,367
228,317,90,-273,69,203,-181,149,274,221,344,356
204,289,85,-247,59,187,-161,128,241,215,322,323
150,227,77,-189,36,152,-120,104,200,191,255,241
84,155,71,-120,6,113,-80,78,155,140,172,158
25,88,63,-57,-19,76,-39,57,106,92,100,94
5,47,42,-26,-19,44,-2,45,72,53,52,47
-20,7,26,6,-23,16,31,33,53,28,33,10
-35,-14,21,24,-28,3,42,23,32,14,12,-2
-17,-1,16,8,-17,7,38,24,16,6,-4,0
-12,1,13,5,-12,7,56,25,13,-2,-5,0
-23,-16,7,19,-15,-5,61,26,9,-13,-5,5
-46,-39,7,42,-26,-16,56,31,6,-12,-5,5
-63,-35,28,48,-45,-3,54,29,1,-6,-6,4
-60,-16,44,38,-52,14,51,32,0,-2,-10,-1
-55,-9,46,32,-50,18,49,36,8,2,-10,-7
-45,5,49,20,-47,27,46,33,12,8,-10,-10
-46,6,52,20,-49,28,41,44,23,9,-10,-15
-66,-11,55,38,-60,22,39,52,29,4,-10,-20
-65,-11,54,38,-60,21,35,47,22,1,-13,-24
-50,-5,45,27,-47,20,29,45,17,-3,-16,-26
-42,-2,40,22,-41,19,42,41,11,-6,-19,-24
-27,4,32,11,-30,18,49,40,6,-10,-22,-26
-21,3,24,9,-23,14,42,36,1,-22,-25,-24
-22,-5,17,13,-19,6,37,27,-6,-27,-26,-27
-9,-10,-1,10,-4,-5,33,21,-12,-24,-32,-38
-14,-17,-3,15,-5,-10,24,13,-19,-22,-39,-42
-33,-28,5,31,-19,-11,21,6,-26,-20,-44,-43
-40,-32,8,36,-24,-12,46,-1,-31,-19,-46,-47
-46,-30,16,38,-31,-6,52,-5,-43,-40,-50,-50
-45,-26,19,36,-31,-4,49,-5,-47,-53,-49,-50
-39,-25,15,32,-26,-5,51,-9,-44,-48,-45,-62
-42,-20,22,31,-32,1,49,-10,-45,-54,-45,-67
-35,-21,14,27,-24,-3,50,-10,-45,-55,-45,-64
-27,-30,-3,29,-12,-16,45,-14,-44,-55,-45,-66
-43,-28,15,36,-29,-6,40,-16,-47,-55,-45,-64
-59,-22,37,40,-48,7,35,-13,-58,-55,-49,-66
-54,-19,34,36,-44,7,32,-10,-60,-55,-54,-69
-45,-13,32,29,-38,9,24,-10,-61,-55,-58,-72
-40,-11,29,26,-35,9,35,-10,-66,-55,-60,-75
-49,-24,25,36,-37,1,47,-10,-64,-55,-60,-77
-51,-26,25,38,-38,0,44,-10,-65,-55,-60,-81
-38,-21,17,29,-27,-2,45,-13,-65,-55,-60,-77
-30,-20,10,25,-20,-5,45,-19,-65,-55,-60,-74
-13,-15,-2,14,-5,-8,45,-22,-69,-55,-60,-75
-20,-16,5,18,-12,-5,42,-28,-71,-55,-57,-75
-47,-10,37,28,-42,13,40,-28,-69,-50,-51,-75
-40,-8,32,23,-35,12,40,-18,-70,-43,-47,-75
-31,2,33,14,-32,17,41,-5,-68,-38,-42,-66
-6,40,46,-17,-27,43,54,4,-39,-32,-38,-52
6,62,56,-34,-25,59,54,5,-15,-26,-32,-43
2,70,68,-36,-33,69,39,10,-15,-21,-31,-35
12,87,75,-50,-32,81,23,9,-15,-16,-29,-25
21,101,79,-61,-29,90,3,-6,-14,-10,-31,-31
35,95,60,-65,-13,77,-15,-21,-16,-4,-29,-37
48,61,13,-54,17,36,1,-19,-15,-17,-29,-42
56,43,-13,-49,34,15,27,-21,-32,-36,-47,-56
3,15,12,-9,-4,13,45,-19,-46,-54,-66,-71
-36,-8,28,22,-32,10,47,-21,-69,-71,-76,-76
-45,-10,36,27,-40,13,39,-24,-80,-69,-77,-81
-64,-32,32,48,-48,0,43,-15,-67,-71,-86,-93
-59,-6,54,32,-57,24,28,-27,-88,-69,-60,-68
-47,-54,-7,50,-20,-30,59,37,-26,-73,-104,-109
-75,-22,54,48,-64,16,142,182,184,52,-61,-113
37,176,139,-107,-51,157,74,271,522,429,228,88
494,656,162,-575,166,409,-424,-240,103,701,963,815
592,944,352,-768,120,647,-795,-966,-966,297,1192,1226
174,305,130,-239,22,217,-474,-757,-1138,-429,128,375
-50,-122,-72,86,11,-97,-139,-244,-705,-516,-340,-185
-78,-77,0,78,-39,-38,-33,-58,-372,-262,-171,-131
-60,-92,-32,76,-13,-62,47,18,-151,-163,-191,-160
-46,-50,-4,48,-21,-27,67,12,-78,-91,-105,-125
-50,-63,-13,56,-18,-37,73,17,-48,-87,-115,-135
-40,-47,-7,44,-16,-26,68,14,-40,-82,-100,-120
-40,-42,-2,42,-19,-22,71,15,-24,-74,-96,-115
-34,-38,-4,36,-15,-20,70,16,-16,-72,-95,-111
-32,-29,4,30,-18,-12,69,16,-7,-63,-82,-101
-33,-30,3,32,-18,-13,61,27,-1,-62,-86,-102
-35,-22,13,28,-23,-4,54,32,6,-55,-73,-90
-39,-23,17,31,-28,-3,47,32,18,-55,-78,-90
-32,-15,18,23,-25,1,39,28,28,-48,-68,-80
-14,-15,-1,14,-6,-8,32,43,49,-47,-68,-75
7,-7,-14,0,10,-10,25,64,69,-41,-61,-65
27,-1,-28,-13,28,-14,16,65,81,-23,-44,-50
33,7,-25,-20,28,-9,8,67,102,-2,-16,-23
48,35,-13,-41,30,11,-1,91,142,16,16,13
74,62,-12,-68,43,25,-31,105,177,40,41,40
105,99,-5,-102,55,47,-56,123,212,80,96,82
144,141,-3,-142,73,69,-105,131,248,114,160,145
176,183,7,-180,84,95,-144,140,279,156,222,215
214,246,32,-230,91,139,-167,152,296,195,288,272
225,295,70,-260,77,182,-204,135,286,220,321,314
211,298,87,-255,62,192,-198,125,281,238,346,331
208,285,77,-247,65,181,-187,116,278,250,343,314
177,252,75,-215,51,164,-163,112,260,229,304,272
123,193,70,-158,26,131,-119,109,222,179,239,194
72,138,65,-105,3,101,-78,93,176,131,134,104
12,73,62,-43,-25,67,-27,69,125,90,63,35
-34,20,53,7,-44,37,11,42,76,54,27,-15
-59,-10,49,35,-54,19,33,33,46,16,-13,-59
-80,-36,44,58,-62,4,41,29,32,2,-46,-81
-84,-41,43,62,-64,1,40,24,29,0,-70,-87
-79,-40,39,59,-59,0,40,21,26,-6,-70,-90
-77,-40,37,58,-57,-1,40,14,23,-9,-70,-85
-75,-40,35,57,-55,-2,39,20,21,-15,-70,-82
-70,-40,31,55,-51,-4,49,28,18,-18,-70,-78
-88,-35,52,62,-70,8,56,25,15,-21,-69,-75
-87,-32,55,59,-71,11,48,25,15,-24,-64,-70
-72,-28,43,49,-57,7,45,25,13,-27,-66,-72
-68,-25,43,46,-55,8,40,25,9,-30,-62,-80
-56,-19,38,38,-47,9,36,25,10,-29,-60,-84
-65,-30,35,47,-50,3,31,22,6,-25,-60,-87
-71,-42,29,56,-50,-6,30,19,-1,-24,-63,-90
-78,-39,38,58,-58,-1,30,16,-7,-26,-69,-93
-87,-40,46,63,-67,3,30,13,-14,-23,-67,-95
-80,-40,40,60,-60,0,31,10,-21,-34,-86,-98
-78,-40,38,59,-58,-1,28,9,-26,-50,-97,-100
-77,-44,33,60,-55,-5,41,3,-31,-51,-95,-100
-88,-58,29,73,-58,-14,51,-4,-34,-49,-101,-105
-97,-66,31,81,-63,-17,45,-11,-39,-52,-99,-113
-93,-65,28,79,-60,-18,43,-18,-46,-67,-108,-122
-100,-65,35,83,-67,-14,38,-24,-53,-77,-115,-126
-111,-65,46,87,-78,-10,35,-25,-59,-81,-116,-125
-107,-65,42,86,-74,-11,32,-25,-64,-86,-121,-125
-103,-65,38,84,-70,-13,29,-25,-65,-84,-117,-125
-107,-72,35,89,-71,-19,31,-25,-65,-85,-115,-125
-106,-76,30,91,-67,-22,29,-26,-70,-85,-115,-125
-107,-74,32,90,-69,-21,31,-24,-70,-85,-115,-125
-111,-75,36,93,-73,-20,29,-20,-71,-85,-115,-125
-109,-75,34,91,-71,-20,25,-21,-75,-85,-114,-125
-111,-75,36,92,-73,-20,25,-17,-77,-85,-111,-125
-97,-68,28,83,-62,-20,23,-15,-81,-85,-107,-125
-95,-60,35,78,-65,-12,19,-14,-82,-85,-104,-125
-100,-52,48,76,-74,-2,21,-26,-86,-84,-99,-125
-87,-44,43,66,-65,0,22,-41,-73,-77,-95,-125
-104,-34,69,69,-86,17,30,-39,-47,-70,-93,-119
-96,-5,91,50,-93,43,33,-41,-39,-60,-85,-110
-72,17,88,27,-80,52,23,-39,-40,-50,-82,-105
-64,30,94,17,-79,61,12,-41,-38,-42,-75,-98
-36,46,82,-6,-59,64,3,-39,-34,-44,-71,-101
-37,35,72,1,-55,53,-5,-40,-36,-48,-65,-100
-59,2,60,28,-59,31,-14,-40,-37,-48,-71,-99
-61,-13,48,36,-54,18,-9,-39,-51,-61,-94,-103
-86,-40,46,63,-66,3,-4,-42,-55,-63,-97,-94
-121,-93,29,107,-75,-32,6,-37,-72,-87,-133,-127
-126,-89,37,108,-81,-26,7,-49,-99,-105,-139,-136
-125,-103,21,114,-72,-41,17,-32,-80,-100,-147,-141
-125,-84,41,105,-83,-21,25,-34,-102,-102,-123,-124
-121,-116,4,119,-62,-56,36,-8,-70,-93,-142,-140
-148,-144,4,146,-76,-70,115,97,63,-48,-157,-179
-107,16,122,45,-114,69,129,219,405,263,34,-77
244,427,183,-336,30,305,-240,-72,279,678,702,510
529,936,407,-733,61,671,-786,-835,-761,562,1391,1272
246,508,262,-377,-9,385,-682,-910,-1220,-185,573,742
-83,-156,-73,120,-5,-114,-245,-366,-857,-593,-355,-136
-125,-155,-30,140,-47,-92,-74,-86,-471,-356,-247,-184
-130,-160,-30,145,-50,-95,32,-15,-190,-193,-227,-185
-129,-146,-17,138,-56,-81,56,-22,-94,-135,-174,-173
-138,-132,6,135,-71,-63,53,-20,-58,-107,-148,-162
-140,-138,2,139,-71,-68,58,-19,-39,-111,-156,-165
-133,-122,10,127,-71,-56,52,-22,-28,-97,-132,-147
-124,-123,0,123,-62,-61,57,-17,-14,-101,-143,-151
-106,-101,5,103,-55,-48,53,-15,-11,-90,-121,-135
-96,-99,-3,97,-46,-51,53,-7,-1,-90,-127,-136
-92,-90,2,91,-47,-44,49,-6,3,-82,-115,-124
-93,-88,5,90,-48,-41,50,2,12,-77,-114,-120
-92,-84,9,88,-50,-37,46,2,24,-73,-110,-110
-95,-79,16,86,-55,-31,44,13,39,-65,-97,-99
-84,-76,8,80,-46,-34,45,35,49,-62,-82,-91
-80,-68,12,74,-46,-28,30,44,62,-53,-72,-74
-76,-46,30,61,-53,-7,17,42,99,-42,-63,-51
-47,-16,31,32,-39,8,-1,52,126,-28,-36,-26
-1,26,26,-12,-14,26,-31,67,158,2,4,4
28,64,36,-46,-5,50,-49,83,207,44,52,46
52,97,45,-74,3,71,-84,102,251,89,103,98
94,156,62,-125,15,109,-131,111,292,137,171,168
132,218,86,-175,22,152,-173,117,324,186,241,237
156,263,107,-210,25,184,-205,110,327,220,290,289
166,296,131,-231,17,213,-218,99,317,230,329,318
162,311,149,-237,6,230,-219,93,308,232,342,315
125,271,146,-198,-11,209,-187,85,275,225,298,273
82,210,128,-146,-23,169,-133,81,220,183,219,194
39,159,121,-99,-41,140,-76,60,164,130,136,102
-13,83,95,-35,-54,89,-34,33,112,65,51,21
-47,33,81,7,-64,57,4,23,70,0,-14,-40
-70,4,74,32,-72,39,35,13,31,-28,-60,-76
-96,-34,62,65,-79,14,34,3,-1,-45,-91,-98
-101,-41,60,71,-81,10,37,-4,-17,-68,-103,-109
-92,-40,52,65,-72,6,51,-11,-22,-77,-107,-112
-90,-40,50,65,-70,5,51,-19,-29,-84,-110,-115
-78,-40,39,59,-59,-1,48,-27,-36,-89,-108,-113
-90,-40,50,65,-70,5,46,-28,-38,-85,-102,-108
-112,-36,76,74,-94,20,43,-24,-32,-81,-97,-105
-104,-32,72,68,-88,20,50,-22,-29,-79,-94,-102
-93,-26,67,59,-80,21,64,-19,-25,-74,-88,-97
-90,-24,67,57,-78,21,59,-16,-20,-70,-86,-95
-73,-15,57,44,-65,21,53,-14,-20,-72,-98,-99
-86,-21,65,53,-75,22,48,-10,-19,-76,-101,-102
-124,-41,84,82,-104,21,42,-10,-15,-75,-99,-104
-118,-40,78,79,-98,19,40,-9,-15,-75,-101,-108
-112,-41,71,76,-92,15,40,-5,-17,-82,-99,-110
-116,-46,70,81,-93,12,40,-5,-24,-85,-101,-113
-114,-44,70,79,-91,12,40,-7,-31,-86,-106,-115
-112,-46,67,79,-89,10,40,-15,-37,-90,-111,-115
-109,-44,64,76,-86,10,40,-19,-45,-91,-114,-114
-111,-46,65,78,-88,9,47,-28,-44,-93,-119,-116
-110,-50,60,80,-85,5,52,-32,-50,-103,-121,-127
-111,-50,61,81,-86,5,53,-30,-61,-116,-125,-131
-108,-50,58,79,-83,4,58,-30,-60,-115,-125,-129
-106,-50,55,78,-81,2,59,-27,-60,-113,-125,-131
-103,-50,54,76,-79,2,56,-24,-60,-110,-125,-129
-110,-51,59,80,-84,4,53,-25,-59,-109,-125,-131
-125,-54,71,90,-97,8,50,-35,-63,-111,-129,-134
-126,-55,70,90,-97,7,48,-36,-65,-108,-130,-135
-123,-55,68,89,-95,6,44,-34,-65,-114,-131,-138
-120,-55,65,87,-92,5,48,-28,-64,-125,-128,-141
-119,-55,64,87,-91,4,50,-38,-71,-125,-135,-137
-123,-55,68,88,-95,6,50,-56,-75,-124,-145,-135
-125,-56,70,90,-97,6,54,-50,-68,-120,-139,-132
-126,-55,70,91,-98,7,56,-45,-64,-121,-133,-129
-131,-62,69,97,-100,3,55,-41,-60,-116,-128,-126
-127,-56,71,91,-98,7,50,-36,-55,-101,-121,-124
-104,-22,83,63,-93,30,50,-35,-51,-88,-103,-119
-92,12,103,40,-98,57,49,-35,-45,-79,-86,-110
-90,29,119,30,-105,74,52,-35,-40,-74,-79,-105
-84,32,116,26,-101,74,41,-36,-35,-69,-66,-99
-67,45,112,11,-90,78,-1,-34,-27,-62,-62,-100
-51,52,104,-1,-77,78,-10,-35,-25,-57,-67,-101
-40,37,76,1,-58,56,4,-40,-27,-57,-66,-98
-56,0,56,28,-56,28,11,-40,-43,-75,-75,-103
-80,-15,65,48,-72,25,30,-48,-55,-100,-74,-95
-93,-40,53,66,-73,7,50,-43,-64,-119,-101,-118
-139,-63,76,100,-107,7,54,-56,-97,-125,-114,-127
-149,-75,74,111,-111,-1,63,-42,-83,-118,-127,-132
-133,-67,65,100,-99,-1,59,-48,-105,-123,-114,-129
-126,-69,57,97,-91,-6,68,-37,-76,-117,-108,-126
-132,-97,35,114,-84,-31,132,80,17,-101,-145,-175
-146,19,164,63,-155,91,173,227,323,136,-13,-115
142,341,199,-242,-29,270,-83,67,403,555,476,307
534,905,371,-720,81,638,-665,-709,-575,564,1266,1129
372,720,348,-546,12,534,-741,-1018,-1266,-65,848,960
-11,-32,-21,22,5,-26,-311,-504,-978,-578,-237,-1
-129,-125,4,127,-66,-61,-57,-139,-547,-423,-265,-189
-135,-91,44,112,-90,-23,59,-12,-218,-204,-159,-152
-130,-77,53,104,-92,-12,85,4,-109,-157,-146,-160
-135,-46,89,90,-112,21,84,-4,-69,-123,-115,-133
-137,-73,64,105,-100,-5,84,4,-46,-125,-143,-149
-127,-46,81,86,-104,17,78,-3,-44,-111,-109,-125
-119,-56,63,88,-91,3,81,3,-25,-109,-123,-133
-116,-41,75,78,-95,17,87,3,-18,-100,-102,-119
-100,-40,60,70,-80,10,100,10,-3,-95,-104,-120
-93,-34,59,63,-76,12,88,11,5,-91,-95,-115
-103,-26,77,64,-90,25,81,16,14,-84,-91,-111
-91,-22,69,57,-80,23,72,18,24,-81,-89,-108
-78,-12,66,45,-72,27,63,31,45,-75,-81,-104
-71,-9,62,40,-66,26,52,48,54,-72,-79,-99
-54,1,55,26,-54,28,41,43,53,-66,-56,-90
-52,7,59,22,-56,33,29,49,81,-55,-39,-79
-54,18,72,18,-63,44,18,54,109,-42,-23,-54
-29,47,76,-10,-53,62,4,61,132,-24,-2,-23
6,87,81,-47,-38,84,-35,89,172,10,35,12
45,134,89,-90,-22,111,-61,102,203,49,90,65
78,187,109,-133,-16,148,-102,107,233,91,156,134
110,243,133,-177,-12,187,-140,106,269,142,230,207
138,301,163,-220,-12,231,-167,95,278,175,287,271
154,340,186,-248,-16,262,-196,88,268,188,323,300
146,333,187,-239,-21,259,-193,81,252,186,334,306
113,306,194,-210,-41,250,-180,69,217,176,316,286
77,270,193,-174,-58,231,-140,55,180,152,259,216
27,195,168,-112,-71,181,-100,42,138,104,168,128
-20,122,142,-51,-81,132,-60,29,91,51,86,52
-64,65,129,-1,-97,97,-10,18,50,5,18,-20
-96,18,113,39,-105,65,13,7,15,-34,-37,-65
-96,-2,93,49,-94,45,38,-2,-15,-62,-57,-81
-83,-10,73,46,-78,31,50,-11,-33,-76,-68,-99
-97,-18,78,57,-87,30,49,-19,-43,-89,-76,-102
-121,-25,95,73,-108,35,51,-30,-48,-97,-75,-99
-124,-36,87,80,-105,25,48,-39,-45,-99,-75,-101
-122,-41,81,81,-101,20,45,-33,-42,-97,-75,-99
-114,-40,75,77,-94,17,45,-26,-39,-93,-75,-100
-107,-40,67,73,-87,13,45,-19,-35,-91,-71,-99
-105,-40,65,72,-85,12,45,-12,-35,-88,-70,-95
-105,-40,65,72,-85,12,45,-7,-40,-85,-70,-95
-102,-36,65,69,-83,14,49,-5,-40,-85,-70,-94
-99,-35,64,66,-81,15,56,-5,-40,-85,-70,-90
-101,-35,65,68,-83,15,60,-5,-40,-85,-72,-90
-99,-35,64,67,-81,15,60,-5,-40,-85,-75,-92
-95,-35,60,65,-77,12,60,-5,-43,-85,-78,-96
-91,-36,55,63,-72,9,60,-11,-46,-85,-80,-95
-93,-43,50,68,-71,3,60,-17,-45,-88,-84,-95
-96,-49,47,72,-71,-1,60,-22,-49,-91,-85,-95
-90,-51,39,70,-65,-5,64,-28,-51,-97,-85,-95
-105,-54,51,80,-77,-2,65,-33,-50,-104,-85,-100
-119,-56,62,88,-90,3,65,-35,-58,-109,-85,-100
-117,-60,56,88,-87,-2,65,-35,-65,-110,-85,-100
-114,-59,55,86,-84,-1,65,-35,-65,-110,-85,-100
-106,-54,51,80,-78,-1,65,-35,-64,-110,-86,-100
-105,-56,50,80,-77,-2,65,-35,-68,-110,-90,-97
-99,-52,47,75,-73,-2,65,-30,-70,-111,-90,-95
-92,-50,42,70,-67,-4,65,-30,-70,-115,-90,-95
-89,-50,39,70,-64,-5,65,-30,-75,-115,-90,-91
-89,-53,36,71,-62,-9,64,-30,-75,-115,-90,-89
-87,-56,31,71,-59,-12,66,-30,-75,-115,-86,-91
-84,-54,30,69,-57,-12,70,-30,-75,-115,-85,-95
-97,-56,41,76,-68,-8,70,-30,-75,-119,-85,-100
-98,-53,45,75,-71,-4,70,-29,-73,-120,-80,-104
-108,-60,47,84,-77,-6,70,-31,-69,-120,-80,-103
-122,-71,51,96,-86,-10,70,-29,-70,-120,-80,-99
-113,-66,46,89,-79,-10,66,-32,-70,-119,-80,-100
-108,-63,44,85,-76,-9,65,-44,-70,-121,-80,-100
-100,-60,41,80,-70,-9,65,-46,-70,-125,-80,-100
-94,-55,39,75,-66,-8,60,-44,-65,-125,-80,-100
-87,-53,34,69,-61,-9,60,-41,-65,-125,-80,-95
-85,-49,35,66,-60,-7,61,-40,-65,-125,-76,-95
-95,-47,48,71,-71,0,65,-39,-65,-125,-75,-94
-95,-44,51,70,-73,3,65,-34,-66,-122,-75,-90
-90,-41,49,66,-69,4,65,-28,-62,-115,-70,-91
-90,-39,51,65,-71,6,69,-24,-59,-110,-71,-88
-90,-41,49,66,-70,4,70,-20,-60,-103,-68,-80
-81,-31,50,56,-65,9,72,-15,-60,-88,-54,-75
-64,11,76,26,-70,43,76,-11,-38,-67,-36,-64
-50,37,87,6,-68,61,73,1,-11,-47,-24,-49
-43,40,83,1,-63,61,47,8,-19,-40,-10,-38
-37,51,88,-8,-63,69,33,1,-20,-39,-3,-33
-23,45,69,-11,-46,57,36,-10,-27,-42,-8,-38
3,36,32,-20,-15,34,37,-17,-31,-37,0,-31
26,15,-11,-21,18,2,41,-28,-17,-51,-24,-42
14,-4,-18,-4,16,-11,41,-24,-45,-76,-40,-61
-38,-56,-18,47,-10,-37,69,-15,-55,-82,-52,-84
-62,-66,-4,64,-30,-34,71,-49,-81,-100,-60,-82
-73,-77,-4,75,-34,-41,65,-42,-77,-107,-69,-87
-90,-82,8,86,-49,-36,69,-41,-76,-110,-64,-86
-75,-65,10,70,-42,-27,54,-44,-80,-114,-62,-77
-99,-122,-23,111,-38,-73,118,60,-7,-103,-104,-146
-129,-18,111,73,-120,47,193,245,292,97,7,-100
126,256,129,-191,-2,192,-16,168,484,491,405,242
583,799,215,-691,183,506,-604,-636,-391,606,1166,1041
503,742,240,-623,131,491,-778,-1084,-1194,72,932,1034
70,0,-70,-34,70,-35,-360,-599,-983,-510,-114,79
-81,-145,-64,113,-9,-104,-91,-200,-579,-412,-219,-161
-105,-94,11,100,-58,-41,25,-54,-230,-180,-118,-118
-85,-99,-14,92,-36,-56,78,-14,-96,-134,-116,-146
-85,-68,18,76,-51,-25,94,-16,-66,-107,-66,-108
-100,-86,15,93,-57,-35,109,-6,-34,-121,-100,-127
-86,-62,24,74,-55,-18,97,-9,-18,-107,-72,-102
-86,-69,17,77,-51,-25,98,1,0,-103,-87,-110
-77,-56,21,67,-49,-17,90,0,-9,-96,-77,-97
-75,-55,20,65,-47,-17,87,18,3,-88,-77,-96
-66,-49,17,57,-41,-16,82,30,-3,-85,-70,-92
-58,-44,14,50,-35,-15,76,30,13,-77,-61,-85
-46,-41,6,43,-26,-17,69,29,37,-76,-57,-84
-41,-35,5,38,-23,-15,63,32,49,-69,-48,-75
-22,-24,-3,23,-9,-13,55,33,63,-67,-45,-72
2,-2,-4,0,3,-3,53,42,66,-58,-32,-64
0,16,16,-8,-8,16,62,60,87,-47,-21,-55
0,27,27,-14,-14,27,50,81,115,-33,-8,-31
32,40,8,-36,12,24,22,95,145,-13,14,2
61,74,13,-68,24,43,-9,107,180,12,59,41
80,118,38,-99,20,78,-49,139,218,46,108,79
136,178,43,-157,46,110,-81,145,251,82,163,137
166,232,66,-199,49,149,-116,139,275,128,229,211
199,284,85,-242,57,185,-163,138,293,170,288,266
217,332,115,-275,51,224,-184,132,288,199,338,311
210,355,145,-283,32,250,-191,132,277,203,358,323
212,349,137,-280,37,243,-181,122,263,197,344,307
173,301,128,-237,22,214,-140,104,232,192,307,268
125,240,115,-183,5,177,-93,77,188,151,234,185
67,172,104,-120,-19,138,-43,53,136,93,153,102
17,107,91,-62,-37,99,1,43,83,42,83,35
-12,63,76,-26,-44,69,33,31,47,3,23,-26
-27,39,66,-6,-47,52,51,19,28,-18,-4,-54
-33,31,64,1,-49,47,57,14,8,-48,-17,-70
-39,26,65,6,-52,46,61,8,-5,-70,-28,-77
-39,21,60,9,-50,40,64,5,-10,-70,-34,-74
-46,15,61,16,-54,37,65,0,-15,-73,-46,-75
-48,11,59,18,-53,34,65,-4,-20,-76,-47,-75
-40,15,55,12,-47,35,65,-2,-27,-72,-45,-74
-31,20,51,5,-41,35,65,1,-29,-70,-45,-71
-24,23,48,0,-36,35,63,4,-25,-70,-42,-68
-15,29,44,-8,-30,36,58,7,-25,-67,-39,-66
-8,30,38,-11,-23,34,55,10,-23,-64,-41,-62
-26,30,56,-2,-41,43,52,9,-20,-66,-44,-60
-28,37,65,-5,-47,51,47,5,-20,-69,-45,-62
-16,40,56,-13,-36,48,45,2,-24,-72,-48,-66
-14,40,53,-13,-33,46,52,0,-26,-75,-51,-65
-6,40,46,-18,-26,43,55,-4,-30,-77,-52,-69
-1,40,41,-19,-21,40,50,-5,-33,-81,-57,-70
-5,40,45,-18,-25,42,50,-9,-37,-79,-60,-70
-11,34,45,-12,-28,39,50,-12,-48,-82,-67,-78
-16,28,45,-6,-31,36,50,-17,-50,-95,-77,-85
-21,24,45,-2,-33,34,49,-21,-57,-95,-80,-85
-28,17,45,5,-37,31,49,-17,-68,-95,-83,-85
-32,13,45,9,-39,29,42,-35,-74,-95,-86,-85
-33,7,40,13,-37,23,43,-48,-75,-95,-89,-85
-36,5,40,16,-38,22,63,-44,-77,-93,-90,-86
-33,5,39,14,-37,22,63,-46,-85,-90,-90,-89
-33,1,35,16,-34,17,55,-45,-85,-90,-90,-92
-36,0,36,17,-36,17,54,-45,-85,-88,-89,-94
-33,-1,32,16,-32,16,46,-41,-86,-84,-93,-98
-35,-5,30,20,-32,12,47,-40,-84,-85,-95,-100
-40,-14,26,27,-33,6,60,-40,-88,-103,-95,-100
-35,-11,25,23,-30,7,58,-39,-90,-112,-95,-100
-19,1,20,9,-19,10,54,-41,-90,-109,-95,-100
-33,-11,22,22,-27,6,51,-37,-94,-111,-95,-100
-61,-22,39,42,-50,8,46,-35,-95,-110,-90,-100
-62,-21,41,41,-51,10,44,-35,-95,-110,-90,-100
-58,-20,39,39,-49,9,39,-32,-100,-105,-89,-105
-56,-19,37,37,-46,8,36,-29,-100,-105,-85,-105
-48,-14,33,30,-40,10,32,-31,-100,-105,-85,-105
-52,-16,36,34,-43,10,29,-34,-100,-104,-83,-105
-34,-11,23,23,-28,5,24,-36,-100,-106,-79,-105
-19,7,26,6,-23,16,31,-34,-98,-102,-80,-103
-56,-7,48,31,-52,20,49,-36,-94,-100,-80,-99
-76,-28,48,52,-61,10,50,-34,-92,-100,-80,-101
-64,-24,40,44,-52,8,50,-37,-89,-97,-80,-96
-60,-22,38,41,-49,7,50,-48,-85,-94,-73,-95
-53,-19,33,36,-43,7,50,-40,-85,-96,-63,-95
-16,8,25,4,-21,16,49,-32,-72,-83,-56,-84
-3,52,55,-25,-29,53,43,-36,-59,-63,-47,-69
-11,67,78,-28,-44,72,36,-34,-60,-58,-39,-58
9,72,62,-41,-27,67,33,-37,-60,-55,-33,-55
40,99,59,-70,-10,79,17,-41,-60,-55,-24,-54
67,115,47,-91,10,81,-11,-39,-59,-56,-33,-56
61,103,43,-82,8,73,-16,-42,-61,-54,-34,-53
39,61,22,-50,8,41,-16,-38,-65,-55,-44,-58
48,39,-9,-44,28,15,-1,-42,-80,-62,-60,-68
15,-4,-19,-6,17,-11,35,-39,-79,-87,-81,-95
-43,-32,11,37,-26,-10,36,-40,-106,-97,-91,-98
-55,-34,21,44,-37,-6,29,-44,-104,-94,-95,-101
-53,-41,12,47,-32,-14,34,-36,-102,-101,-99,-108
-24,-22,3,23,-13,-9,15,-40,-115,-99,-84,-94
-41,-78,-37,60,-1,-58,69,39,-33,-97,-136,-152
-86,-6,80,45,-83,37,165,209,211,69,-55,-129
138,219,81,-179,28,150,3,223,486,449,285,142
576,750,174,-663,201,462,-562,-465,-182,633,1039,929
538,847,309,-693,114,578,-806,-1071,-1144,143,1006,1098
120,121,1,-121,59,61,-410,-679,-1078,-488,-72,160
-56,-129,-73,93,8,-100,-129,-237,-657,-453,-321,-206
-76,-86,-11,81,-32,-48,-32,-69,-333,-233,-180,-149
-50,-90,-40,70,-5,-64,34,7,-143,-164,-195,-177
-41,-44,-3,43,-19,-23,47,-13,-99,-105,-143,-139
-46,-69,-23,58,-11,-46,68,2,-69,-100,-160,-154
-38,-47,-9,43,-14,-28,62,-3,-55,-91,-131,-130
-44,-56,-12,50,-16,-34,67,1,-35,-88,-136,-132
-38,-48,-10,43,-14,-29,64,2,-27,-82,-121,-124
-40,-47,-6,44,-17,-26,65,8,-14,-75,-115,-120
-36,-42,-6,40,-15,-24,64,14,-7,-73,-111,-120
-36,-36,0,36,-18,-17,55,18,-1,-65,-100,-111
-34,-35,-1,35,-16,-18,47,26,7,-63,-98,-112
-27,-21,5,24,-16,-8,38,29,19,-56,-87,-103
-15,-11,4,13,-10,-3,27,30,34,-53,-84,-92
1,0,-2,0,1,-1,11,31,45,-48,-73,-80
16,2,-14,-8,15,-6,-5,52,70,-34,-52,-63
47,30,-17,-38,32,6,-13,62,95,-17,-40,-43
68,59,-8,-63,38,25,-17,80,120,3,-28,-21
75,76,1,-75,37,38,-50,103,153,21,8,12
114,122,8,-119,53,65,-82,114,196,52,64,60
154,177,23,-166,65,100,-118,131,239,95,124,120
182,223,41,-203,70,132,-168,128,259,131,187,188
221,278,57,-249,82,167,-200,124,276,169,251,249
250,332,82,-291,84,206,-230,121,281,208,299,294
245,347,102,-296,71,224,-242,116,269,221,320,316
232,334,102,-283,65,217,-228,114,254,221,313,304
220,313,93,-267,63,203,-198,98,226,211,282,260
165,250,84,-208,40,167,-147,82,183,167,204,178
93,171,78,-132,7,124,-95,66,133,117,115,82
57,121,64,-89,-3,92,-55,50,89,70,45,18
30,73,43,-52,-7,58,-24,40,53,36,-3,-30
-5,34,39,-15,-22,36,-6,29,20,5,-41,-69
-15,26,41,-5,-28,33,-1,21,-2,-21,-72,-87
-20,19,39,0,-30,29,3,19,-23,-29,-80,-98
-28,12,40,8,-35,26,8,16,-37,-42,-85,-105
-34,6,40,14,-37,23,12,13,-32,-46,-85,-105
-37,0,37,18,-37,18,17,10,-27,-44,-84,-105
-24,10,34,6,-29,22,20,11,-24,-42,-86,-105
-13,18,31,-3,-22,24,20,17,-19,-39,-84,-105
-15,14,29,0,-22,21,22,23,-15,-41,-86,-107
-8,15,24,-4,-16,19,26,29,-10,-34,-84,-110
-9,21,30,-7,-20,26,25,34,-10,-36,-86,-110
-20,21,40,-1,-30,31,22,32,-10,-33,-85,-110
-17,14,32,1,-25,23,19,29,-11,-30,-85,-110
-19,10,30,5,-25,20,16,30,-9,-30,-86,-110
-20,7,27,6,-24,17,13,29,-14,-29,-80,-115
-23,0,23,11,-24,12,10,31,-26,-55,-100,-120
-19,3,22,8,-21,12,9,28,-26,-67,-112,-123
-8,8,16,0,-12,12,-3,25,-25,-64,-110,-128
-26,2,28,12,-27,15,-8,24,-26,-66,-116,-130
-35,-3,33,19,-34,15,0,21,-41,-64,-114,-134
-32,-6,26,19,-29,10,3,20,-53,-66,-111,-135
-32,-11,20,21,-26,4,8,17,-49,-57,-108,-130
-31,-16,16,23,-23,0,12,14,-51,-66,-120,-130
-27,-20,8,23,-17,-6,17,11,-50,-77,-132,-130
-11,-20,-9,16,-1,-14,22,8,-49,-74,-129,-130
-10,-20,-9,15,-1,-14,28,6,-61,-75,-130,-130
-20,-20,0,20,-10,-10,34,3,-66,-75,-130,-132
-30,-20,10,25,-20,-5,32,1,-61,-75,-130,-135
-30,-20,10,25,-20,-5,29,-3,-59,-71,-130,-136
-26,-20,6,22,-16,-7,31,-5,-56,-89,-130,-140
-23,-20,3,21,-13,-8,29,-9,-54,-94,-130,-139
-20,-20,0,20,-10,-10,31,-10,-62,-84,-130,-135
-18,-20,-1,19,-8,-11,28,-7,-63,-81,-130,-135
-7,-20,-13,14,3,-16,25,-4,-60,-75,-131,-135
4,-15,-18,6,11,-16,25,-1,-60,-80,-135,-135
2,-11,-13,5,8,-11,25,2,-57,-80,-135,-135
11,-6,-17,-2,15,-11,25,5,-55,-80,-135,-133
20,-8,-28,-6,24,-18,24,6,-55,-80,-135,-130
10,-23,-33,7,22,-28,42,12,-47,-80,-136,-131
10,-13,-23,2,16,-17,52,15,-39,-77,-130,-126
-4,6,10,-1,-7,7,49,20,-30,-61,-122,-125
11,37,27,-24,-8,31,50,25,-22,-49,-114,-124
37,78,41,-57,-2,59,41,25,-19,-34,-103,-120
32,82,50,-58,-9,66,28,25,-14,-23,-91,-109
47,86,39,-67,3,62,16,25,-13,-19,-79,-83
58,94,35,-76,11,64,2,26,-6,-21,-82,-80
81,89,8,-85,36,48,-13,24,-7,-19,-72,-87
80,46,-34,-63,57,6,-3,26,-22,-20,-80,-94
48,15,-32,-31,40,-8,8,15,-35,-37,-93,-102
17,-24,-41,4,29,-32,30,15,-36,-55,-118,-128
-6,-46,-40,26,17,-43,40,5,-60,-75,-138,-136
-14,-56,-43,35,15,-49,40,2,-60,-80,-148,-147
-15,-67,-52,41,19,-59,41,-2,-71,-82,-152,-160
-11,-51,-40,31,15,-45,35,-11,-72,-76,-145,-154
-25,-104,-79,65,27,-91,88,89,28,-56,-173,-190
-40,-12,28,26,-34,8,140,219,289,145,-70,-156
182,267,85,-224,48,176,-53,148,469,561,351,177
574,844,270,-709,152,557,-615,-503,-307,691,1234,1071
467,861,395,-664,36,628,-786,-973,-1179,99,1043,1131
99,96,-3,-97,51,46,-355,-546,-1012,-543,-167,88
-16,-126,-110,71,47,-118,-111,-115,-587,-453,-342,-232
-42,-94,-52,68,5,-72,-11,4,-276,-220,-222,-184
-14,-97,-83,56,34,-90,67,49,-101,-134,-231,-212
-9,-60,-51,35,21,-56,62,48,-56,-67,-158,-167
-10,-79,-69,44,30,-74,67,48,-21,-78,-183,-181
0,-53,-52,27,26,-52,63,41,-15,-63,-150,-156
-2,-60,-57,32,28,-58,81,39,-2,-64,-161,-166
6,-46,-52,20,29,-48,81,34,8,-58,-144,-156
2,-46,-48,22,26,-47,70,39,15,-53,-141,-153
6,-43,-49,19,28,-46,64,40,29,-50,-133,-152
2,-38,-41,19,22,-39,55,42,41,-43,-122,-142
14,-38,-52,12,33,-45,49,46,39,-42,-118,-129
33,-34,-67,1,51,-50,39,45,50,-35,-107,-114
33,-29,-63,-2,48,-46,33,53,67,-27,-101,-106
38,-12,-51,-13,45,-32,24,59,78,-21,-89,-94
47,0,-47,-23,47,-23,17,64,100,-13,-78,-86
65,16,-49,-40,57,-17,-1,71,121,9,-56,-62
92,41,-51,-66,71,-5,-15,77,154,31,-28,-19
117,69,-48,-93,82,10,-27,88,192,56,8,19
166,112,-53,-139,109,29,-70,110,227,86,63,57
201,168,-33,-185,117,68,-111,116,271,129,133,125
229,226,-3,-228,116,111,-155,114,304,176,199,196
268,283,15,-276,126,149,-195,115,315,212,259,247
288,324,36,-307,126,180,-205,115,309,246,316,298
283,347,64,-315,109,205,-219,116,292,259,337,311
231,325,94,-278,68,209,-209,109,280,262,317,292
192,278,86,-236,53,182,-166,96,247,244,273,245
148,215,67,-182,40,141,-127,85,191,194,191,151
85,141,56,-113,14,98,-74,75,151,144,104,66
60,87,27,-73,16,57,-23,63,111,87,25,-8
33,40,6,-36,13,23,9,48,70,31,-34,-62
31,31,0,-31,15,15,42,35,36,5,-66,-82
23,12,-11,-17,17,0,51,29,18,-4,-85,-96
-5,-33,-28,19,11,-30,49,26,14,-7,-89,-96
6,-35,-41,14,24,-38,50,22,5,-12,-90,-95
10,-30,-40,10,25,-35,49,19,1,-16,-91,-94
11,-28,-39,9,25,-34,63,14,-13,-21,-95,-98
13,-23,-36,5,25,-29,64,19,-26,-36,-96,-106
14,-21,-35,4,24,-27,57,20,-19,-38,-92,-100
18,-16,-34,-1,27,-25,54,20,-11,-30,-90,-95
14,-13,-27,0,21,-20,48,21,-3,-25,-90,-90
14,-9,-23,-2,18,-15,45,17,5,-21,-87,-82
11,-6,-17,-2,14,-12,40,30,9,-24,-84,-82
11,-1,-12,-5,12,-6,37,35,5,-27,-86,-93
3,-1,-5,-1,4,-3,33,29,5,-29,-90,-96
3,-15,-17,6,10,-16,30,27,4,-33,-90,-94
4,-29,-33,12,19,-31,25,22,-1,-35,-90,-96
-11,-39,-28,25,9,-34,28,19,1,-38,-89,-95
-9,-40,-31,24,11,-35,46,16,-4,-44,-94,-95
-11,-41,-30,26,9,-35,51,13,-16,-51,-108,-99
-14,-44,-30,29,8,-36,49,11,-27,-54,-110,-100
-16,-47,-31,31,8,-38,51,7,-27,-57,-110,-101
-32,-42,-10,37,-11,-25,50,5,-26,-59,-110,-98
-19,-44,-25,32,3,-34,49,2,-35,-63,-109,-107
-7,-61,-53,34,23,-57,61,-7,-35,-65,-111,-126
-12,-61,-48,36,18,-54,67,-18,-34,-65,-114,-125
-12,-58,-46,35,17,-51,61,-25,-36,-69,-115,-125
-12,-56,-44,34,16,-50,60,-25,-34,-70,-115,-125
-14,-53,-39,33,13,-45,55,-25,-36,-70,-115,-125
-23,-64,-42,44,10,-53,55,-25,-40,-74,-114,-123
-9,-71,-62,40,26,-66,55,-25,-48,-75,-118,-119
-4,-70,-66,37,31,-67,54,-23,-50,-75,-120,-120
-1,-66,-65,34,32,-65,56,-16,-50,-75,-120,-120
0,-65,-65,33,33,-65,54,-9,-50,-75,-121,-121
-18,-83,-65,51,24,-74,59,-2,-49,-74,-120,-120
-13,-75,-63,44,25,-68,59,5,-50,-76,-120,-111
-21,-43,-22,32,1,-33,62,10,-31,-52,-102,-98
-23,-19,4,21,-13,-8,73,5,-13,-26,-78,-87
0,-7,-7,4,4,-7,66,5,-15,-24,-71,-78
9,-3,-12,-3,11,-7,54,4,-19,-26,-66,-68
43,25,-18,-33,30,3,28,-1,-20,-23,-59,-64
70,41,-29,-55,50,6,4,1,-24,-27,-67,-67
37,14,-23,-25,30,-5,2,1,-26,-23,-70,-62
25,-23,-48,-1,36,-35,8,9,-28,-22,-78,-69
34,-38,-73,2,54,-55,34,7,-35,-49,-87,-76
-8,-84,-76,46,35,-80,62,6,-43,-68,-114,-105
-44,-109,-65,76,11,-87,59,-11,-82,-79,-131,-120
-44,-113,-69,79,12,-90,60,-12,-68,-80,-137,-128
-48,-108,-60,78,6,-84,62,-27,-81,-80,-135,-124
-56,-114,-58,85,2,-85,54,-32,-72,-72,-130,-123
-63,-164,-100,114,19,-132,120,81,15,-71,-148,-161
-78,-64,13,71,-46,-25,181,238,303,133,-48,-102
168,225,57,-197,55,141,-33,132,485,575,381,235
600,806,206,-703,196,506,-624,-590,-383,700,1212,1076
512,746,234,-629,139,489,-806,-998,-1172,143,977,1079
99,-33,-132,-32,115,-82,-359,-540,-970,-484,-152,86
-49,-210,-161,130,56,-185,-75,-143,-562,-409,-298,-185
-61,-162,-101,112,20,-131,39,-28,-224,-167,-166,-123
-43,-159,-116,101,37,-137,97,8,-89,-119,-177,-139
-51,-140,-89,95,19,-114,92,8,-42,-74,-138,-108
-74,-179,-105,127,15,-142,99,12,-13,-82,-162,-125
-53,-141,-88,97,18,-114,92,8,-9,-72,-133,-104
-54,-148,-94,101,20,-121,95,10,8,-71,-144,-111
-51,-139,-89,95,19,-114,88,20,13,-67,-129,-100
-41,-136,-95,89,27,-115,91,34,26,-62,-128,-100
-38,-134,-96,86,30,-115,87,39,36,-59,-124,-97
-28,-122,-93,76,33,-107,84,40,47,-51,-117,-93
-21,-118,-97,70,38,-107,86,41,46,-49,-116,-92
-13,-106,-93,60,40,-99,84,39,52,-40,-104,-88
-3,-102,-99,53,48,-100,86,42,70,-37,-94,-82
14,-88,-102,38,58,-95,82,60,100,-30,-81,-65
21,-75,-96,27,59,-85,63,70,121,-19,-69,-54
27,-62,-89,18,59,-75,38,82,147,4,-47,-30
40,-42,-82,1,62,-62,12,98,184,30,-19,1
63,-13,-76,-25,70,-44,-15,120,220,55,20,32
107,37,-70,-72,88,-16,-41,147,259,90,68,78
143,89,-54,-116,98,17,-83,156,301,135,126,140
183,152,-31,-167,107,60,-113,164,344,183,201,214
234,220,-14,-227,124,103,-148,175,349,235,263,278
253,255,2,-254,125,128,-180,164,342,262,308,315
242,269,28,-256,106,148,-172,150,342,266,328,326
227,259,33,-243,97,146,-166,133,306,266,305,317
180,202,23,-191,78,112,-147,114,254,236,248,257
132,144,13,-138,59,78,-87,105,217,186,177,171
78,72,-6,-75,42,33,-30,94,173,134,96,96
8,-23,-30,8,19,-26,8,67,121,77,23,25
-8,-65,-57,37,25,-61,53,45,69,31,-13,-13
-28,-90,-62,59,17,-76,71,42,28,4,-49,-50
-46,-103,-57,75,5,-80,74,37,22,-6,-77,-76
-48,-114,-66,81,9,-90,88,33,12,-12,-84,-80
-57,-133,-76,96,9,-104,82,28,-11,-19,-92,-86
-55,-128,-74,92,9,-101,80,25,-14,-31,-94,-87
-64,-131,-66,97,1,-99,77,21,-22,-39,-92,-92
-49,-130,-80,90,16,-105,74,18,-24,-35,-89,-95
-32,-130,-98,82,32,-113,80,14,-17,-35,-90,-92
-36,-128,-92,82,28,-109,79,9,-11,-34,-90,-89
-34,-124,-90,79,28,-106,75,21,-4,-30,-90,-86
-39,-126,-87,83,24,-106,75,26,2,-30,-89,-83
-37,-121,-84,79,24,-102,75,20,9,-28,-85,-80
-31,-120,-89,75,29,-104,75,18,6,-24,-86,-79
-31,-121,-90,76,30,-105,75,13,4,-21,-82,-75
-29,-119,-89,74,30,-104,71,10,5,-17,-80,-75
-44,-129,-84,87,20,-106,70,14,0,-15,-79,-73
-51,-136,-85,94,18,-111,69,24,0,-37,-87,-69
-50,-134,-85,92,18,-110,79,29,-1,-48,-96,-71
-51,-135,-85,93,17,-110,92,23,-8,-44,-94,-69
-34,-135,-101,85,34,-118,89,18,-14,-46,-98,-73
-29,-135,-106,82,39,-121,90,12,-21,-44,-101,-85
-30,-135,-104,83,38,-120,90,6,-28,-45,-99,-86
-30,-135,-105,83,38,-120,90,1,-34,-45,-104,-82
-29,-134,-105,82,39,-120,93,-4,-39,-45,-105,-80
-32,-136,-104,84,37,-120,98,-6,-46,-45,-105,-80
-33,-134,-101,83,35,-117,100,-9,-50,-45,-105,-80
-41,-139,-98,90,29,-118,100,-12,-50,-45,-105,-80
-60,-155,-95,108,18,-125,100,-15,-50,-45,-117,-81
-61,-155,-93,108,17,-124,100,-14,-50,-50,-121,-84
-69,-156,-87,112,9,-121,100,-10,-50,-50,-119,-85
-54,-161,-106,107,26,-133,100,-10,-47,-51,-117,-88
-38,-160,-122,99,42,-141,96,-10,-41,-55,-114,-91
-46,-158,-112,102,33,-135,95,-10,-36,-55,-115,-87
-43,-153,-110,98,34,-131,95,-11,-33,-53,-110,-85
-45,-150,-104,98,29,-127,95,-6,-27,-46,-105,-82
-47,-147,-101,97,28,-124,95,-4,-27,-39,-101,-79
-46,-141,-95,94,25,-118,96,1,-28,-33,-96,-76
-54,-141,-87,98,16,-113,103,2,-17,-25,-91,-74
-31,-110,-79,71,24,-94,101,9,-7,-20,-87,-69
6,-68,-74,31,40,-71,92,32,2,-11,-74,-57
12,-64,-76,27,44,-70,86,35,9,1,-64,-52
13,-59,-72,23,43,-65,81,24,10,13,-63,-38
14,-56,-70,21,43,-63,85,21,18,27,-67,-18
18,-51,-69,16,44,-60,88,12,19,20,-70,-18
26,-57,-83,15,55,-70,89,6,14,4,-71,-31
13,-101,-114,44,64,-107,95,2,2,-7,-78,-45
-10,-125,-114,67,52,-119,93,-4,-7,-20,-71,-49
-36,-162,-125,99,45,-143,101,-3,-25,-43,-100,-77
-45,-161,-115,103,36,-138,97,-13,-59,-51,-104,-81
-46,-176,-130,111,42,-153,104,-9,-41,-49,-110,-89
-61,-183,-122,122,30,-152,105,-18,-60,-52,-93,-82
-70,-193,-123,132,26,-157,101,17,-38,-49,-94,-84
-84,-221,-137,153,26,-179,162,114,53,-31,-126,-120
-77,-90,-13,83,-32,-51,202,282,388,215,14,-51
247,222,-25,-234,136,99,-52,127,474,611,469,343
649,751,102,-700,274,426,-652,-711,-498,627,1183,1120
466,535,69,-500,198,302,-720,-1010,-1163,18,755,915
73,-171,-245,49,159,-208,-271,-479,-891,-469,-237,3
-40,-243,-203,142,82,-223,-42,-126,-493,-304,-237,-144
-48,-213,-165,130,59,-189,95,-6,-172,-112,-155,-108
-56,-203,-147,130,45,-175,134,23,-50,-77,-154,-109
-57,-200,-143,129,43,-171,131,29,-21,-57,-118,-91
-44,-210,-166,128,61,-188,145,36,-7,-57,-132,-109
-47,-184,-137,116,46,-161,128,34,2,-39,-102,-92
-45,-201,-156,123,55,-178,129,47,17,-38,-112,-106
-36,-182,-146,109,56,-164,118,52,26,-29,-91,-94
-32,-184,-151,108,60,-167,111,57,46,-24,-92,-93
-25,-175,-150,100,63,-162,121,60,52,-16,-83,-83
-22,-171,-149,96,64,-160,130,65,53,-9,-80,-77
-18,-167,-149,93,66,-158,122,69,67,-3,-79,-71
-19,-162,-143,91,62,-152,117,76,81,5,-72,-62
-16,-159,-143,87,64,-151,112,81,84,11,-71,-53
-9,-147,-138,78,65,-143,106,89,101,18,-65,-43
8,-128,-136,60,72,-132,100,102,126,24,-54,-29
32,-103,-135,36,83,-119,83,116,153,43,-25,-6
39,-90,-129,25,84,-109,59,131,189,67,9,15
54,-69,-123,7,89,-96,28,146,224,86,36,47
99,-16,-115,-41,107,-65,1,168,264,127,86,96
153,42,-111,-97,131,-34,-39,182,294,175,141,163
188,91,-97,-139,142,-3,-99,197,310,206,199,221
231,171,-61,-201,146,55,-128,196,321,252,266,286
256,208,-49,-232,153,79,-135,176,313,278,303,325
233,194,-39,-213,136,77,-136,166,312,283,319,326
201,195,-6,-198,103,94,-121,158,292,279,300,320
159,149,-10,-154,84,69,-93,135,244,256,254,260
112,77,-35,-94,73,21,-36,112,206,221,186,176
68,11,-58,-39,63,-23,17,98,160,164,105,97
15,-69,-84,27,50,-76,48,85,111,104,39,32
-15,-104,-89,60,37,-96,75,69,73,68,-4,-9
-18,-124,-106,71,45,-115,101,52,49,55,-39,-38
-30,-148,-119,90,45,-134,117,48,36,49,-65,-53
-31,-144,-113,88,41,-128,110,51,27,46,-65,-57
-29,-145,-116,87,44,-131,115,50,30,43,-64,-59
-40,-154,-115,98,38,-134,126,50,30,38,-65,-63
-48,-162,-114,105,33,-137,125,50,32,35,-65,-65
-34,-164,-130,99,49,-147,124,50,36,31,-63,-63
-33,-168,-134,101,51,-151,120,50,34,29,-59,-57
-44,-170,-126,107,41,-148,120,50,35,30,-60,-54
-37,-161,-124,99,44,-142,118,50,35,30,-56,-50
-30,-148,-118,89,44,-132,114,50,35,30,-54,-45
-26,-142,-116,84,46,-129,116,50,35,29,-56,-45
-44,-147,-103,96,29,-125,114,47,34,24,-59,-44
-41,-150,-108,96,34,-129,115,42,37,26,-61,-40
-18,-146,-128,82,55,-137,114,39,36,22,-60,-40
-21,-144,-123,83,52,-134,111,35,30,20,-60,-42
-18,-146,-128,82,55,-137,110,32,25,20,-60,-50
-12,-143,-130,77,60,-136,110,28,19,17,-63,-55
-28,-158,-130,93,51,-144,110,25,13,14,-66,-55
-45,-172,-127,109,41,-149,110,25,9,11,-70,-59
-45,-169,-124,108,40,-146,112,25,2,8,-78,-60
-45,-170,-125,108,40,-147,115,25,-2,5,-78,-60
-45,-170,-125,108,40,-147,115,25,-8,6,-75,-60
-45,-170,-125,108,40,-147,115,25,-14,10,-75,-60
-40,-166,-125,103,43,-145,115,25,-19,10,-72,-60
-26,-166,-140,97,57,-153,115,25,-24,10,-69,-60
-25,-171,-146,99,60,-158,115,25,-25,10,-72,-60
-25,-170,-144,98,60,-156,115,25,-25,10,-75,-64
-19,-164,-145,92,63,-155,114,24,-25,7,-78,-69
-24,-169,-145,97,61,-157,117,20,-25,4,-73,-70
-32,-182,-150,107,59,-166,120,20,-25,1,-77,-70
-28,-178,-150,103,61,-164,115,18,-25,-1,-75,-70
-25,-175,-150,100,63,-162,115,14,-29,-5,-73,-70
-23,-173,-150,98,64,-161,115,16,-31,-3,-81,-70
-18,-169,-150,94,66,-160,115,11,-27,20,-68,-71
-26,-174,-147,100,61,-160,115,10,-24,33,-72,-74
-42,-187,-145,115,52,-166,116,10,-23,28,83,-75
-55,-199,-145,127,45,-172,122,5,-17,26,234,-75
-55,-200,-145,128,45,-172,118,5,-27,23,208,-75
-50,-195,-145,123,48,-170,122,6,-22,20,187,-75
-49,-194,-145,122,48,-170,118,15,-27,19,132,-73
-36,-189,-153,113,58,-170,123,20,29,14,81,-68
-42,-193,-151,117,55,-172,147,21,110,10,79,-65
