I,II,III,aVR,aVL,aVF,V1,V2,V3,V4,V5,V6
45,59,14,-53,16,36,-34,-109,-105,-81,25,44
25,36,11,-30,7,23,-43,-112,-121,-95,0,25
-46,-5,41,25,-43,18,-2,-107,-134,-98,-23,8
-51,6,57,22,-54,31,24,-110,-128,-107,-36,4
-22,32,54,-6,-38,43,16,-136,-140,-132,-64,-6
-72,-18,54,45,-63,18,23,-117,-129,-114,-54,-7
-72,-24,48,48,-59,11,17,-126,-136,-127,-68,-23
-48,5,53,21,-51,29,29,-106,-120,-104,-48,-11
-100,-55,45,78,-72,-5,37,-114,-130,-121,-75,-24
-68,-5,63,36,-65,28,19,-93,-114,-94,-40,-1
-60,12,71,24,-66,42,61,-51,-120,-85,-63,-24
-180,23,203,79,-191,112,134,6,-95,-106,-100,-76
-81,3,85,39,-83,44,170,153,108,73,22,-19
483,99,-384,-291,433,-142,-396,-336,161,569,693,424
1324,492,-831,-908,1077,-169,-1157,-876,327,1310,1710,1080
1325,-21,-1346,-652,1335,-683,-1203,-1275,-225,456,942,713
530,-597,-1127,34,829,-862,-890,-1631,-1248,-1085,-374,-5
139,-388,-527,125,333,-457,-407,-1012,-990,-969,-403,-96
41,-234,-275,97,158,-254,-99,-406,-455,-509,-292,-100
-25,-49,-24,37,-1,-36,-5,-200,-247,-273,-182,-91
-70,-19,51,44,-60,16,110,-39,-72,-105,-92,-88
-72,-4,69,38,-71,32,102,-30,-54,-102,-82,-55
-84,2,86,41,-85,44,105,9,-29,-71,-59,-34
-124,-36,88,80,-105,25,107,20,-33,-93,-69,-56
-67,35,102,15,-84,68,102,38,-14,-70,-54,-44
-43,44,88,-1,-65,66,108,55,-4,-58,-57,-47
-62,31,93,16,-78,62,121,83,3,-46,-49,-40
-32,53,85,-11,-58,68,135,101,34,-20,-42,-40
-14,71,85,-29,-50,78,123,96,48,1,-36,-37
-34,47,82,-7,-58,64,126,135,90,39,-12,-32
22,101,78,-62,-28,89,154,190,149,88,-10,-29
13,90,77,-52,-32,83,169,201,163,103,-32,-23
-10,62,72,-26,-42,67,162,240,199,119,-27,-17
-8,63,71,-27,-40,67,161,309,269,165,-18,-12
-19,50,68,-16,-44,59,160,363,333,216,13,-3
42,107,65,-75,-12,86,172,426,399,286,61,7
53,119,66,-86,-7,92,195,483,465,343,79,25
86,149,63,-118,12,106,196,519,507,378,86,46
110,170,59,-140,25,114,185,517,519,384,90,43
98,158,60,-128,18,109,178,516,514,371,106,57
101,158,56,-130,22,107,170,482,484,353,117,73
79,134,55,-107,12,94,155,424,428,324,106,68
88,142,53,-115,17,97,126,341,322,268,109,84
74,123,48,-98,13,85,86,235,225,182,85,78
75,129,54,-102,10,91,65,143,149,113,47,68
36,96,60,-66,-13,78,42,55,57,52,30,55
12,73,60,-42,-24,66,29,31,21,9,28,43
58,116,59,-87,-1,87,64,25,10,2,35,48
-31,24,55,3,-43,40,56,7,-34,-25,-3,25
-38,16,55,10,-47,35,37,-8,-38,-56,-13,17
-18,39,57,-11,-38,48,58,-19,-26,-51,-1,23
-31,30,61,1,-46,45,53,-11,-23,-46,-2,23
1,60,59,-31,-29,59,57,-6,-10,-40,7,26
-33,29,61,2,-47,45,62,-1,-6,-34,0,25
-9,61,70,-26,-39,65,58,22,17,-32,-8,31
20,85,65,-53,-23,75,57,29,32,-28,-14,30
13,70,57,-41,-22,63,36,9,24,-35,-9,30
-4,47,51,-21,-28,48,45,18,21,-11,-3,27
-22,19,41,1,-32,30,74,26,13,9,-2,19
-10,27,37,-9,-24,31,62,15,9,-1,7,17
-3,46,49,-22,-26,47,52,-4,4,-21,-4,7
15,76,60,-45,-23,68,48,-32,-12,-54,-19,6
-10,54,64,-22,-37,59,42,-37,-20,-63,-21,-4
-39,26,65,6,-52,45,39,-34,-27,-58,-19,-14
-28,37,65,-5,-47,51,33,-35,-31,-61,-20,-17
3,66,63,-35,-30,64,30,-38,-29,-61,-22,2
-1,58,59,-28,-31,58,26,-54,-50,-75,-27,2
-55,6,61,24,-58,33,23,-95,-95,-114,-58,-45
-34,22,56,6,-45,38,20,-88,-88,-101,-47,-22
-20,36,55,-9,-37,45,18,-64,-63,-75,-20,-10
-29,25,54,1,-42,39,15,-75,-75,-83,-22,-24
-25,26,51,-1,-38,38,15,-64,-65,-78,-14,-10
-20,25,45,-3,-33,35,15,-68,-75,-79,-11,-11
-22,29,51,-4,-37,40,15,-60,-81,-77,-8,-2
-17,68,85,-26,-51,77,31,-27,-52,-65,3,2
3,101,98,-52,-48,99,59,15,-26,-35,20,10
25,112,87,-68,-32,99,85,43,13,1,31,41
79,162,84,-121,-3,123,95,63,51,36,57,77
106,183,77,-145,15,129,63,91,79,68,84,88
59,116,56,-88,1,86,-17,-2,9,20,46,72
10,54,44,-32,-17,49,-66,-97,-82,-51,22,50
12,42,30,-28,-9,36,-52,-116,-109,-97,10,10
-33,-2,31,17,-32,14,-45,-140,-138,-133,-33,-16
-58,-8,51,33,-54,21,-24,-124,-132,-135,-49,-17
-81,-33,48,57,-64,7,-35,-127,-138,-146,-70,-37
-77,-23,55,50,-66,16,-22,-114,-130,-147,-52,-18
-40,18,59,11,-50,38,17,-114,-130,-156,-61,6
-92,-26,65,59,-78,19,-12,-103,-124,-139,-77,-13
-118,-64,54,91,-86,-5,-13,-96,-121,-146,-94,-39
-100,-34,66,67,-83,16,-18,-95,-120,-133,-69,-36
-88,-30,58,59,-73,14,10,-77,-108,-133,-90,-57
-183,-22,162,102,-172,70,69,-57,-118,-170,-143,-96
-170,-30,140,100,-155,55,158,137,40,-15,-67,-79
293,-13,-306,-140,300,-159,-275,-235,99,371,430,247
1145,409,-736,-777,940,-163,-1086,-814,286,1208,1567,964
1402,132,-1270,-767,1336,-568,-1234,-1133,7,815,1240,841
630,-613,-1243,-8,937,-928,-989,-1595,-1100,-868,-209,59
108,-500,-608,196,359,-554,-536,-1152,-1116,-1091,-453,-127
15,-281,-296,133,156,-288,-162,-451,-508,-563,-308,-104
-128,-174,-46,151,-40,-110,-83,-243,-310,-349,-228,-100
-124,-58,65,91,-94,4,44,-42,-126,-148,-122,-82
-147,-70,77,108,-112,3,78,-14,-83,-109,-109,-88
-165,-66,99,115,-132,16,81,18,-57,-73,-71,-73
-132,-46,86,88,-109,20,88,49,-49,-75,-77,-75
-176,-75,102,125,-139,13,83,54,-42,-76,-88,-64
-155,-60,95,108,-125,17,87,69,-10,-58,-87,-66
-123,-20,103,72,-113,41,79,71,10,-49,-67,-65
-142,-50,92,96,-117,21,80,99,40,-31,-66,-65
-115,-29,86,72,-100,28,81,111,45,-11,-61,-65
-105,-25,80,65,-92,27,94,134,70,18,-56,-65
-59,11,70,24,-64,40,117,182,122,59,-52,-64
-13,52,65,-19,-39,58,139,212,154,88,-35,-56
-44,13,57,16,-51,35,144,256,195,116,-24,-48
-3,51,54,-25,-29,52,164,340,277,186,0,-40
17,66,50,-41,-17,58,177,401,341,237,26,-30
-19,28,47,-5,-33,37,174,461,403,289,33,-15
-1,41,43,-20,-22,42,176,514,465,340,52,-2
50,90,40,-70,5,65,174,549,513,374,68,10
56,101,45,-79,5,73,176,563,528,394,78,18
67,112,45,-90,10,78,173,559,519,391,91,26
101,145,45,-124,28,95,166,544,504,384,84,42
60,105,45,-83,7,75,154,471,444,350,76,46
57,101,44,-79,6,72,128,376,353,290,68,44
74,122,48,-98,13,84,97,279,255,206,61,45
30,80,50,-55,-10,65,65,174,156,138,48,45
57,110,54,-84,1,82,57,98,79,92,35,45
76,131,55,-104,10,92,60,62,38,32,34,36
-11,39,50,-14,-31,44,43,30,6,-11,22,23
-18,31,50,-7,-34,41,38,-7,-34,-38,6,12
4,54,50,-29,-23,52,40,-9,-47,-52,-11,6
-10,40,50,-15,-30,45,43,-1,-41,-51,-24,1
-14,36,50,-11,-32,43,45,1,-37,-49,-26,-5
-17,33,50,-8,-34,41,40,11,-32,-51,-22,-9
-28,22,50,3,-40,36,41,10,-28,-46,-20,-27
-30,20,50,5,-40,35,39,25,-23,-29,-17,-31
-11,39,50,-14,-31,44,48,28,-17,-24,-13,-30
-18,32,50,-7,-34,40,56,20,4,-25,-32,-29
22,73,51,-47,-15,62,50,47,7,-25,-42,-24
-10,46,56,-18,-33,50,48,42,-9,-22,-37,-26
-17,38,55,-11,-36,46,43,28,4,-21,-35,-22
25,75,50,-50,-13,62,40,21,-1,-42,-32,-20
-7,42,49,-17,-28,45,44,11,-15,-47,-29,-16
1,45,44,-23,-22,44,42,4,-24,-41,-30,-15
-37,9,47,14,-42,28,36,-8,-56,-63,-45,-10
-33,21,53,5,-43,37,31,-19,-68,-78,-52,-12
-28,27,56,0,-42,41,28,-39,-63,-73,-48,-40
-88,-28,60,58,-74,16,21,-46,-67,-80,-51,-45
-53,6,59,23,-56,32,22,-36,-63,-79,-49,-35
-41,25,67,8,-54,46,26,-37,-67,-81,-51,-35
-44,27,71,9,-58,49,22,-59,-85,-112,-56,-27
-49,17,66,16,-58,41,16,-64,-93,-105,-51,-27
-43,21,65,11,-54,43,13,-53,-88,-91,-47,-40
-20,40,60,-10,-40,50,7,-48,-90,-114,-41,-31
-47,13,60,17,-54,37,6,-42,-91,-100,-40,-28
-39,28,66,5,-53,47,41,-32,-66,-67,-30,-16
-4,80,84,-38,-44,82,69,-12,-40,-62,-7,10
38,126,88,-82,-26,107,106,56,24,-7,33,40
25,101,75,-63,-25,88,134,102,59,38,73,72
31,101,70,-66,-20,85,90,116,67,57,70,65
76,128,52,-102,11,90,31,80,42,34,56,56
38,66,28,-53,5,47,-36,-55,-73,-67,22,42
32,29,-2,-31,17,13,-67,-97,-117,-98,-9,22
-15,-18,-3,17,-6,-10,-35,-81,-118,-108,-29,-14
-63,-29,34,46,-48,3,-18,-97,-131,-132,-60,-7
-48,-10,38,29,-43,14,-10,-117,-152,-160,-78,-1
-106,-64,42,85,-74,-11,-5,-118,-155,-169,-80,-50
-129,-89,40,109,-84,-25,0,-102,-142,-167,-94,-58
-123,-75,48,99,-86,-13,-11,-109,-149,-178,-81,-50
-123,-80,43,101,-83,-18,-14,-83,-130,-170,-74,-49
-115,-65,50,90,-83,-7,-7,-106,-143,-189,-91,-49
-103,-38,65,70,-84,13,-6,-83,-116,-169,-60,-36
-144,-58,86,101,-114,13,40,-68,-136,-205,-120,-73
-227,-8,218,117,-222,105,156,64,-65,-123,-114,-99
13,-60,-73,23,43,-66,6,-5,54,103,75,16
801,239,-561,-520,681,-161,-749,-625,147,784,1012,619
1456,404,-1052,-930,1254,-324,-1274,-1000,254,1211,1576,1010
1074,-369,-1443,-352,1259,-906,-1149,-1465,-623,-168,322,345
328,-630,-958,151,643,-794,-764,-1502,-1302,-1208,-508,-136
80,-366,-447,143,264,-406,-287,-712,-760,-778,-364,-117
-19,-229,-210,125,96,-220,-104,-328,-387,-465,-295,-139
-104,-83,21,94,-63,-31,-36,-138,-199,-261,-178,-90
-102,-61,41,81,-71,-10,57,-9,-77,-136,-138,-86
-138,-48,89,93,-113,20,68,5,-66,-115,-101,-66
-149,-53,96,100,-122,22,96,61,-25,-90,-90,-40
-119,-26,93,72,-106,33,102,48,-33,-85,-86,-63
-152,-54,98,103,-125,22,107,63,9,-33,-71,-71
-159,-68,92,113,-125,12,104,92,26,-23,-71,-63
-123,-25,98,74,-110,36,106,110,48,-8,-58,-51
-108,-21,87,64,-97,33,104,119,66,18,-63,-47
-96,-11,85,53,-90,37,108,136,74,38,-56,-37
-109,-31,78,70,-93,23,108,174,119,55,-56,-35
-71,1,73,35,-72,37,99,210,156,84,-54,-23
-59,9,68,25,-63,38,146,247,188,117,-38,-26
-106,-44,62,75,-84,9,165,292,232,146,-40,-63
-78,-19,59,48,-68,20,156,359,297,202,-31,-57
-30,25,55,2,-42,39,178,432,364,260,-4,-36
-18,34,53,-8,-36,43,191,505,440,337,36,-21
8,56,47,-32,-20,51,185,565,507,402,71,4
37,82,45,-60,-4,63,177,585,522,427,76,17
39,89,50,-64,-5,69,171,589,536,439,82,28
52,102,50,-77,1,76,161,579,530,424,82,37
59,109,50,-84,4,79,157,531,500,412,88,40
56,106,50,-81,2,78,125,445,423,345,88,33
38,88,50,-63,-6,69,80,339,292,234,49,25
14,62,48,-38,-17,55,57,217,194,167,30,17
13,57,44,-36,-16,50,44,130,112,111,25,9
-10,35,45,-13,-28,40,38,77,39,68,12,3
-24,21,45,1,-35,33,30,36,9,32,15,-8
11,56,45,-34,-17,50,25,24,-15,-12,-4,-16
-3,42,45,-20,-24,44,16,10,-39,-39,-41,-17
-18,21,38,-2,-28,29,21,5,-37,-39,-35,-12
-12,39,51,-13,-32,45,39,5,-28,-43,-40,-26
-45,17,62,14,-54,39,40,5,-24,-51,-63,-46
-86,-32,54,59,-70,11,40,4,-15,-38,-58,-45
-68,-15,54,41,-61,19,40,12,-11,-27,-55,-45
-9,38,47,-15,-28,43,40,33,-17,-22,-53,-45
-53,-6,46,29,-49,20,40,41,-21,-16,-49,-45
-55,-12,43,33,-49,15,45,44,-18,-12,-53,-43
-34,17,51,8,-43,34,51,42,-14,-4,-55,-39
-71,0,70,35,-71,35,49,36,-16,-1,-56,-41
-54,16,70,20,-62,43,46,33,-14,-16,-54,-39
-82,-12,70,47,-76,28,43,28,-18,-35,-57,-43
-112,-42,70,77,-91,14,40,13,-38,-53,-69,-59
-97,-27,70,62,-83,21,39,0,-42,-56,-66,-55
-96,-29,68,62,-82,19,35,-4,-49,-50,-59,-47
-68,-4,64,35,-66,30,35,-11,-56,-49,-55,-41
-82,-16,66,48,-73,24,35,-15,-62,-45,-48,-33
-77,-16,61,46,-69,22,34,-23,-64,-47,-46,-32
-66,-6,60,36,-62,26,52,-23,-65,-58,-50,-36
-88,-27,61,58,-74,16,54,-30,-72,-48,-49,-34
-52,12,64,19,-58,38,50,-45,-75,-63,-51,-32
-80,-11,69,46,-75,29,47,-45,-85,-88,-49,-29
-101,-29,72,64,-86,22,42,-43,-75,-74,-49,-24
-87,-3,84,44,-85,40,40,-32,-69,-77,-55,-35
-58,29,88,14,-73,58,50,-8,-52,-55,-29,-17
24,105,81,-65,-29,93,97,45,-12,-14,4,25
38,112,74,-75,-18,93,110,72,8,2,12,32
26,93,67,-60,-21,80,102,88,42,38,49,40
97,159,62,-128,17,110,81,119,75,74,84,62
81,128,48,-105,16,88,36,48,8,33,48,42
16,46,30,-31,-7,37,-7,-51,-75,-35,18,20
44,50,6,-47,19,28,-45,-90,-102,-75,11,14
-29,-6,23,17,-26,8,-35,-104,-123,-95,-11,-2
-114,-49,65,82,-89,8,-16,-97,-123,-106,-47,-34
-113,-44,69,79,-91,12,-15,-103,-127,-123,-67,-52
-107,-40,67,73,-87,13,-9,-98,-124,-117,-51,-51
-97,-36,60,66,-78,12,-1,-101,-137,-122,-64,-56
-88,-26,62,57,-74,18,-1,-96,-132,-111,-42,-38
-80,-29,51,54,-65,11,13,-87,-128,-119,-61,-40
-73,-11,62,42,-67,25,10,-94,-127,-110,-37,-19
-131,-71,60,101,-95,-5,24,-76,-114,-117,-59,-59
-244,-76,168,159,-206,46,80,-28,-107,-114,-117,-96
-220,-58,162,138,-191,52,156,154,45,20,-42,-72
257,-32,-289,-112,273,-161,-222,-165,109,352,393,200
1129,397,-732,-763,930,-167,-1045,-753,287,1164,1504,920
1392,134,-1258,-763,1325,-562,-1297,-1143,-7,795,1245,847
694,-595,-1289,-49,992,-942,-1035,-1633,-1120,-865,-195,61
102,-530,-632,215,367,-581,-584,-1243,-1200,-1150,-493,-165
-24,-314,-290,169,133,-302,-186,-496,-567,-594,-333,-138
-91,-169,-78,130,-6,-124,-82,-245,-314,-337,-219,-122
-122,-70,51,96,-86,-9,21,-60,-133,-144,-109,-101
-140,-76,64,108,-102,-6,59,-5,-80,-98,-101,-97
-151,-52,99,101,-125,23,65,27,-51,-75,-76,-82
-145,-55,90,100,-118,17,73,45,-49,-82,-80,-84
-133,-35,98,83,-115,32,69,73,-50,-78,-68,-73
-119,-26,93,72,-106,33,92,77,-18,-56,-70,-71
-103,-7,96,55,-99,44,89,75,19,-42,-64,-65
-90,5,95,42,-92,50,90,109,43,-30,-61,-63
-138,-49,89,93,-113,19,91,99,31,-26,-58,-61
-137,-54,83,95,-110,15,89,137,66,12,-54,-57
-125,-50,75,87,-100,12,92,171,101,41,-56,-56
-123,-53,70,88,-96,8,114,210,144,90,-45,-52
-105,-43,62,74,-83,9,120,265,190,130,-34,-46
-92,-35,57,63,-74,11,129,318,238,169,-19,-41
-50,4,55,22,-53,29,150,377,303,220,2,-35
-43,13,56,14,-49,34,160,428,365,260,35,-20
-20,35,55,-8,-38,45,176,489,445,334,63,5
45,101,55,-73,-5,78,178,520,492,366,82,14
52,107,55,-80,-1,81,172,516,484,371,85,21
42,93,50,-68,-4,71,177,509,478,377,76,36
43,93,50,-68,-4,71,180,503,472,348,75,20
33,82,48,-58,-8,65,152,452,424,322,68,22
28,74,45,-52,-9,59,110,354,335,266,65,44
7,51,44,-29,-19,47,83,259,239,190,57,45
26,74,48,-51,-11,61,63,170,154,116,48,46
23,73,50,-48,-14,61,46,102,72,43,33,28
-23,29,51,-3,-37,40,38,46,12,-20,-5,9
-37,24,60,6,-49,42,40,0,-26,-61,-31,1
-31,26,57,2,-44,41,40,-18,-47,-76,-30,-6
-30,19,49,5,-39,33,43,-30,-43,-91,-29,-12
-24,19,43,2,-34,30,46,-31,-40,-85,-32,-21
0,36,35,-18,-18,36,44,-20,-35,-74,-5,4
-58,-28,30,43,-44,1,40,-10,-31,-73,-6,-8
-60,-29,30,44,-45,1,40,0,-26,-67,-32,-42
-25,13,37,6,-31,25,39,14,-22,-63,-36,-36
-45,-2,43,23,-45,21,35,23,-17,-58,-37,-31
-9,35,44,-13,-26,39,35,28,-8,-54,-44,-26
-26,14,40,6,-33,26,32,29,0,-49,-57,-19
-22,18,40,2,-31,29,45,22,9,-59,-53,-16
-4,33,38,-15,-21,35,50,15,-12,-62,-41,-30
-10,25,35,-8,-22,29,41,9,-33,-60,-37,-38
-16,19,35,-2,-25,26,39,2,-27,-60,-42,-30
-70,-30,40,50,-55,5,33,-3,-39,-60,-49,-29
-54,-5,49,30,-52,22,30,-12,-45,-60,-56,-24
-58,-7,52,33,-55,22,31,-22,-46,-59,-60,-20
-60,-5,55,32,-57,25,29,-18,-44,-75,-60,-22
-43,16,59,14,-51,37,26,-24,-48,-70,-60,-29
-88,-30,59,59,-73,14,24,-43,-60,-86,-59,-36
-70,-15,55,42,-63,20,19,-46,-58,-113,-66,-35
-42,11,52,15,-47,31,22,-55,-75,-106,-70,-34
-44,6,50,19,-47,28,24,-63,-80,-121,-71,-33
-25,21,46,2,-36,33,26,-57,-68,-115,-69,-27
-50,-5,45,27,-48,20,24,-63,-70,-102,-61,-33
-53,-5,47,29,-50,21,26,-56,-55,-89,-37,-16
-47,11,58,17,-53,34,40,-36,-60,-89,-28,-10
3,83,79,-43,-39,81,71,29,-16,-45,21,19
83,164,82,-124,0,123,101,77,39,8,49,51
30,109,79,-69,-25,94,109,80,38,-12,9,22
69,150,81,-110,-7,115,91,118,87,61,77,78
104,167,63,-136,20,114,29,64,59,38,78,87
38,81,44,-60,-3,62,-27,-43,-42,-76,0,24
4,43,40,-23,-18,41,-55,-89,-97,-105,-17,10
-40,-2,38,21,-39,18,-37,-115,-116,-142,-51,-32
-38,-2,36,19,-37,17,-9,-105,-105,-129,-42,-38
-53,-21,32,37,-43,6,-10,-103,-138,-154,-81,-55
-77,-29,49,53,-63,10,-10,-103,-151,-163,-93,-76
-65,-16,49,40,-57,16,1,-89,-136,-150,-73,-75
-79,-19,60,49,-70,21,-18,-110,-141,-150,-81,-76
-111,-56,55,83,-83,0,-39,-123,-118,-140,-90,-72
-111,-50,61,80,-86,6,-35,-141,-133,-190,-124,-96
-48,26,74,11,-61,50,-11,-89,-98,-166,-77,-87
-115,-25,90,70,-103,32,47,-70,-116,-194,-125,-104
-204,-5,199,104,-201,97,153,94,-23,-102,-128,-110
19,-71,-90,26,55,-81,28,77,143,174,104,17
752,235,-516,-493,634,-140,-722,-539,248,942,1171,694
1405,432,-973,-919,1189,-270,-1224,-909,333,1383,1790,1125
1002,-346,-1349,-329,1177,-847,-1077,-1345,-567,-82,447,434
292,-575,-866,142,579,-720,-722,-1403,-1243,-1147,-453,-70
36,-337,-373,151,204,-355,-271,-664,-717,-740,-380,-119
-75,-231,-156,153,41,-193,-85,-287,-352,-431,-318,-155
-109,-68,42,88,-75,-12,-15,-118,-178,-212,-161,-102
-96,-35,61,65,-78,13,52,-8,-67,-142,-163,-103
-131,-47,83,89,-107,18,80,23,-68,-144,-160,-88
-150,-82,69,116,-109,-6,103,40,-48,-74,-128,-87
-104,-33,71,68,-87,18,87,35,-23,-60,-95,-82
-118,-51,68,84,-93,8,94,84,5,-45,-84,-73
-135,-73,62,103,-98,-5,84,78,3,-36,-84,-72
-111,-38,73,74,-92,17,86,91,30,-19,-71,-63
-113,-44,70,79,-91,13,88,104,54,-7,-70,-67
-99,-31,68,65,-83,18,98,125,64,1,-59,-63
-40,20,60,10,-50,40,123,171,99,30,-80,-60
-27,31,58,-3,-43,45,125,184,128,48,-87,-61
-86,-34,52,60,-68,8,130,223,154,61,-84,-57
-86,-35,51,61,-68,8,129,278,217,127,-57,-49
-66,-11,56,38,-61,22,150,331,278,191,-18,-41
-62,-7,55,34,-58,24,161,388,337,238,-11,-34
11,69,58,-40,-24,63,175,461,415,308,5,-25
-10,51,61,-20,-36,56,198,520,476,363,40,-15
-45,15,60,15,-52,37,164,511,494,379,59,1
37,94,57,-66,-10,75,161,499,498,369,56,8
58,109,52,-84,3,80,175,489,484,360,43,-4
81,131,50,-106,16,90,155,458,441,348,57,20
67,112,46,-90,10,79,112,389,359,290,77,45
35,75,41,-55,-3,58,69,276,250,214,43,36
26,66,40,-46,-7,53,50,172,163,144,16,23
25,53,28,-39,-1,40,41,105,91,73,11,18
8,48,40,-28,-16,44,31,55,19,21,-20,4
-8,53,61,-23,-35,57,40,22,5,0,-28,5
-5,56,61,-25,-33,58,31,-13,-20,-38,-5,9
-88,-23,65,55,-76,21,-11,-53,-84,-85,-34,-45
-55,12,67,21,-61,40,17,-41,-48,-82,-63,-54
-25,45,70,-10,-48,57,40,-29,-32,-76,-58,-28
-48,19,68,14,-58,43,31,-21,-50,-73,-62,-29
-35,28,62,3,-49,45,38,-9,-37,-67,-58,-22
-45,13,58,15,-51,35,32,-1,-36,-64,-62,-25
-19,35,54,-8,-36,44,40,11,-28,-55,-76,-47
-43,6,48,18,-46,27,39,18,-24,-53,-63,-55
-31,14,45,8,-39,29,43,33,-20,-57,-31,-44
-2,47,49,-23,-26,48,61,40,-20,-59,-46,-42
-43,10,53,16,-48,31,53,32,-20,-62,-64,-34
-55,4,58,25,-57,31,39,23,-21,-64,-47,-30
-53,3,56,25,-55,30,31,13,-19,-67,-69,-50
-62,-9,53,35,-57,22,23,-1,-30,-70,-81,-63
-39,11,51,14,-45,31,28,-19,-53,-70,-69,-58
-36,11,47,12,-42,29,21,-37,-57,-75,-68,-61
-29,15,45,6,-37,30,31,-20,-51,-74,-64,-60
1,48,47,-25,-23,47,33,-22,-66,-78,-66,-60
-19,33,51,-7,-35,42,17,-55,-94,-100,-64,-56
-56,-3,53,29,-55,25,31,-57,-97,-104,-65,-50
-80,-22,58,50,-69,18,23,-52,-91,-101,-64,-51
-73,-14,59,44,-66,22,14,-52,-91,-117,-59,-41
-47,9,56,19,-52,32,5,-48,-88,-117,-60,-45
-42,12,54,15,-48,33,-4,-55,-94,-112,-54,-30
-45,14,58,15,-51,36,17,-66,-94,-107,-57,-29
10,86,77,-48,-34,81,61,-1,-54,-64,-39,-12
31,110,79,-71,-24,94,97,46,-28,-36,-10,25
6,74,68,-40,-31,70,95,38,5,-7,11,3
57,125,68,-91,-6,96,79,76,50,37,64,45
73,131,57,-102,8,94,30,56,19,3,58,57
42,78,35,-60,3,56,-22,-27,-47,-55,7,12
27,31,4,-29,11,17,-56,-90,-103,-88,-11,5
13,7,-5,-10,9,1,-62,-95,-128,-131,-31,-13
-11,25,36,-7,-24,30,-50,-94,-132,-148,-58,-46
-51,-5,46,28,-49,20,-39,-125,-144,-168,-109,-88
-79,-38,41,58,-60,2,-32,-126,-146,-167,-111,-83
-103,-65,39,84,-71,-13,-23,-114,-141,-157,-113,-85
-90,-56,34,72,-61,-11,-19,-122,-141,-159,-119,-85
-91,-59,32,75,-61,-13,-11,-104,-141,-142,-101,-75
-131,-99,32,115,-82,-34,-2,-116,-164,-152,-121,-81
-126,-68,58,97,-92,-5,-7,-95,-136,-141,-84,-59
-150,-81,69,116,-110,-6,18,-75,-138,-200,-144,-101
-207,-39,167,123,-187,64,109,48,-64,-138,-148,-122
-57,-67,-10,62,-23,-38,110,163,129,128,41,-38
548,204,-345,-376,446,-70,-533,-354,228,800,1012,574
1156,511,-645,-833,900,-67,-1175,-843,324,1456,1980,1190
947,-141,-1088,-403,1018,-614,-1058,-1153,-341,348,936,668
295,-573,-867,139,581,-720,-728,-1308,-1135,-1010,-284,32
14,-374,-388,180,201,-381,-332,-726,-783,-801,-334,-82
-23,-225,-202,124,89,-213,-88,-273,-358,-418,-268,-107
-94,-100,-6,97,-44,-53,-19,-127,-210,-256,-175,-81
-154,-100,54,126,-103,-23,56,-11,-82,-135,-142,-89
-89,-21,68,55,-78,23,63,12,-68,-106,-140,-69
-107,-39,68,73,-88,15,92,72,-40,-92,-130,-80
-196,-127,69,162,-133,-28,97,70,-46,-117,-130,-99
-105,-30,75,67,-89,22,92,74,-26,-79,-110,-83
-66,-2,63,34,-64,30,93,81,2,-52,-110,-78
-96,-35,61,65,-78,13,87,75,17,-48,-95,-69
-83,-32,51,57,-67,9,93,97,32,-39,-89,-61
-88,-41,47,64,-67,3,88,110,39,-31,-68,-54
-47,-8,39,28,-43,16,94,140,77,15,-39,-46
0,35,35,-18,-18,35,122,182,112,65,-55,-37
-16,19,35,-2,-26,27,109,214,140,78,-46,-63
-1,32,33,-16,-17,33,113,264,201,114,-47,-65
-16,14,30,1,-23,22,152,318,258,172,-60,-47
-24,6,30,9,-27,18,160,383,327,225,-11,-34
4,34,30,-19,-14,32,171,451,396,287,21,-13
35,65,30,-50,2,47,166,491,451,346,41,-8
55,85,30,-70,12,57,156,524,495,396,75,-2
33,63,30,-48,1,47,152,511,496,399,78,-2
60,90,30,-75,15,60,140,482,475,379,70,15
56,86,30,-71,12,58,138,457,447,354,67,19
78,114,37,-96,20,75,112,402,385,287,59,23
74,122,48,-98,12,85,82,297,286,227,56,44
18,67,49,-42,-16,58,81,176,196,163,47,27
25,77,52,-51,-14,64,49,112,108,78,35,18
-6,58,64,-26,-36,61,27,49,44,13,12,12
-9,51,60,-21,-35,55,36,3,-1,-44,-23,7
-11,41,52,-15,-32,46,30,-10,-53,-63,-36,4
-42,4,46,18,-44,25,28,-23,-48,-68,-26,-2
-5,35,40,-15,-22,37,24,-30,-37,-69,-20,-4
1,41,40,-21,-20,40,19,-44,-62,-89,-47,-28
-18,21,40,-2,-29,30,24,-31,-60,-90,-63,-37
-18,23,40,-2,-29,31,41,-10,-48,-57,-60,-34
-30,10,40,10,-35,25,44,-4,-43,-58,-58,-27
-70,-31,40,50,-55,5,37,-10,-38,-52,-65,-46
-75,-31,44,52,-59,6,34,-17,-33,-48,-70,-63
-15,27,42,-6,-28,34,29,-9,-28,-44,-54,-53
-12,28,39,-8,-26,33,24,-10,-26,-40,-47,-55
-22,19,40,2,-31,29,26,-1,-16,-39,-40,-45
-51,-11,40,31,-45,15,24,-4,-27,-43,-41,-50
-46,-6,40,26,-42,16,26,7,-2,-35,-26,-27
-11,30,41,-10,-26,36,54,-9,-26,-50,-50,-36
-43,2,45,20,-44,24,54,-48,-78,-83,-90,-80
-57,-12,45,34,-51,17,31,-34,-57,-72,-71,-58
-60,-15,45,37,-52,15,25,-36,-62,-77,-69,-53
-41,4,45,18,-43,24,18,-34,-68,-83,-71,-57
-25,20,45,2,-35,32,14,-37,-68,-84,-69,-53
-32,9,41,11,-37,25,9,-43,-82,-102,-71,-57
-18,21,40,-1,-29,30,-1,-53,-90,-104,-70,-53
2,42,40,-22,-19,40,22,-75,-92,-107,-77,-50
-5,36,41,-16,-23,38,28,-72,-101,-119,-76,-43
-24,15,39,5,-32,26,-4,-63,-103,-111,-73,-39
-36,9,45,14,-41,26,5,-66,-103,-103,-77,-33
-31,33,64,-1,-48,48,46,-44,-88,-92,-66,-28
0,76,75,-38,-37,75,65,13,-44,-55,-22,-22
61,144,83,-102,-11,113,77,42,-29,-8,16,-2
86,170,84,-129,1,127,86,69,8,25,44,16
66,158,92,-112,-13,125,57,92,42,32,50,45
109,183,74,-146,17,128,11,36,8,11,37,48
57,98,41,-78,8,69,-39,-72,-73,-63,24,8
-48,-6,42,27,-45,18,-55,-103,-115,-105,-9,-8
-51,-2,49,26,-50,23,-37,-93,-102,-98,-38,-3
-47,1,48,23,-47,24,-23,-87,-116,-110,-51,-11
-78,-36,42,56,-59,3,-16,-82,-128,-142,-85,-52
-52,-2,49,27,-50,24,18,-91,-97,-128,-89,-59
-38,1,39,18,-38,19,30,-110,-119,-128,-101,-62
-110,-53,57,81,-83,2,-31,-125,-157,-142,-91,-57
-116,-56,60,86,-88,2,-19,-113,-146,-141,-102,-55
-127,-52,76,89,-102,12,-17,-117,-149,-144,-103,-58
-97,-2,95,49,-96,46,2,-67,-126,-116,-87,-48
-119,11,130,54,-125,71,65,-63,-142,-163,-158,-106
-198,-20,178,109,-188,79,166,103,-3,-74,-133,-116
92,-51,-143,-21,118,-97,-94,-73,79,236,227,108
852,376,-476,-613,664,-50,-886,-706,200,1099,1449,859
1253,334,-919,-794,1086,-292,-1171,-985,172,1234,1688,1048
743,-454,-1197,-144,970,-825,-939,-1364,-784,-370,214,274
203,-505,-709,151,456,-607,-579,-1197,-1122,-1071,-402,-67
29,-324,-353,148,192,-339,-194,-505,-580,-613,-312,-98
-62,-201,-140,132,39,-170,-65,-250,-324,-376,-260,-125
-109,-61,48,85,-78,-6,33,-67,-134,-178,-148,-77
-139,-92,47,115,-92,-22,73,-9,-71,-123,-157,-91
-138,-56,82,97,-110,13,68,8,-48,-91,-131,-72
-138,-61,77,100,-108,8,101,61,-12,-63,-126,-78
-116,-35,81,75,-98,23,92,46,-5,-56,-102,-68
-92,-7,84,49,-88,38,107,78,17,-35,-95,-50
-98,-14,84,55,-91,35,133,110,20,-37,-93,-76
-103,-17,86,60,-95,35,129,108,55,-20,-84,-88
-118,-39,78,78,-98,20,131,122,61,-21,-82,-80
-110,-34,76,72,-93,21,129,138,67,1,-74,-80
-91,-21,69,56,-80,24,131,163,107,37,-76,-75
-89,-22,67,55,-78,22,127,202,140,61,-75,-75
-63,-2,61,33,-62,29,126,230,181,93,-70,-68
-11,47,58,-18,-35,52,156,296,243,147,-43,-57
-11,43,54,-16,-33,48,169,367,317,219,-28,-48
-37,13,50,12,-44,31,163,423,381,274,-15,-38
-4,43,48,-20,-26,45,169,480,433,329,16,-31
7,49,42,-28,-18,45,181,532,498,390,49,-12
56,96,41,-76,7,68,173,568,538,435,83,25
107,140,33,-124,37,86,160,554,528,429,88,37
78,116,38,-97,20,77,150,508,492,395,77,32
81,139,58,-110,11,98,137,468,462,377,70,30
65,125,59,-95,3,91,112,382,386,301,63,26
43,96,53,-70,-6,75,70,271,265,211,53,25
5,54,49,-30,-22,51,49,183,176,137,35,21
38,81,43,-60,-3,61,33,105,95,68,21,20
46,82,37,-64,4,59,20,55,35,20,9,19
-35,2,37,16,-36,20,20,16,-1,-35,3,12
-22,19,40,2,-31,29,15,-13,-31,-58,-22,2
-60,-20,40,40,-50,10,14,-15,-36,-59,-41,-3
-79,-36,43,57,-61,4,9,-27,-34,-61,-35,-15
-48,-3,46,25,-47,21,11,-26,-31,-67,-29,-26
-46,-2,44,23,-45,21,19,-20,-28,-72,-26,-31
-18,23,41,-2,-30,32,28,-10,-38,-67,-54,-10
-3,35,38,-16,-20,36,56,32,-42,-66,-66,7
-11,25,36,-7,-23,30,61,37,-31,-64,-54,-32
-28,4,32,12,-30,18,55,33,-23,-61,-50,-44
-58,-29,29,43,-43,0,54,36,-16,-55,-41,-34
-20,12,32,4,-26,22,49,34,-13,-52,-44,-35
-11,25,36,-7,-24,30,50,35,-11,-46,-47,-30
-54,-15,39,35,-47,12,50,34,-6,-43,-50,-25
18,61,43,-40,-12,51,62,50,-7,-29,-50,-19
8,54,46,-32,-19,50,66,54,-21,-19,-49,-2
-86,-37,49,62,-68,6,54,19,-51,-62,-63,-5
-77,-26,51,51,-64,12,36,-15,-55,-80,-65,-26
-28,28,55,-1,-42,41,27,-25,-55,-71,-59,-24
-51,1,53,25,-52,27,31,-20,-64,-93,-57,-16
-39,10,49,15,-44,29,30,-19,-56,-101,-52,-18
-10,41,51,-16,-31,46,33,-51,-90,-99,-50,-48
-68,-22,46,44,-57,12,36,-63,-110,-100,-54,-58
-48,-3,45,25,-46,21,34,-58,-102,-99,-65,-49
-58,-12,45,35,-51,16,31,-62,-110,-101,-72,-51
-75,-25,50,50,-62,12,30,-58,-109,-93,-67,-42
-66,-7,59,36,-62,25,30,-62,-110,-89,-66,-36
-85,-26,59,55,-72,16,30,-48,-101,-79,-64,-30
-73,4,77,34,-75,40,30,-35,-83,-78,-49,-18
-43,42,85,0,-64,63,37,-15,-47,-58,-22,1
34,109,75,-72,-21,92,76,40,-17,-15,-9,36
22,89,67,-56,-22,78,105,66,8,-1,1,55
57,108,51,-83,3,80,74,89,63,52,52,56
109,149,39,-129,35,94,6,62,46,62,67,67
64,78,14,-71,25,45,-49,-43,-57,-29,23,45
32,26,-6,-29,19,10,-60,-91,-104,-84,-16,6
5,-2,-7,-1,6,-5,-46,-106,-114,-99,-47,-25
-30,-9,21,19,-26,6,-39,-106,-121,-104,-50,-36
-85,-39,46,61,-65,3,-29,-103,-125,-120,-85,-50
-100,-54,46,76,-73,-4,-26,-121,-152,-145,-96,-62
-116,-73,44,94,-80,-14,-16,-116,-159,-150,-83,-49
-121,-76,45,98,-83,-15,-12,-123,-164,-154,-89,-33
-126,-80,46,102,-86,-17,-5,-106,-154,-139,-75,-24
-98,-54,43,76,-70,-6,10,-120,-168,-156,-103,-23
-65,-25,40,45,-52,8,12,-100,-150,-131,-70,-21
-172,-113,59,142,-116,-27,29,-92,-166,-170,-133,-94
-254,-54,200,154,-227,73,110,34,-95,-137,-153,-120
-50,-62,-12,56,-19,-37,48,50,42,78,28,-16
613,175,-438,-394,525,-131,-658,-572,90,728,960,565
1275,430,-845,-853,1060,-207,-1247,-976,260,1378,1810,1094
1036,-262,-1299,-387,1168,-780,-1123,-1327,-438,202,674,519
358,-624,-982,134,670,-803,-752,-1453,-1221,-1090,-411,-69
118,-357,-475,120,297,-416,-294,-719,-770,-775,-344,-100
-19,-262,-244,141,113,-253,-117,-296,-375,-424,-285,-113
-131,-135,-4,133,-63,-69,-47,-158,-231,-257,-187,-96
-110,-80,30,95,-70,-24,59,-5,-84,-116,-141,-99
-150,-82,68,115,-109,-7,64,11,-65,-96,-101,-84
-165,-84,80,124,-122,-2,84,40,-34,-68,-96,-71
-142,-67,75,105,-108,3,83,42,-32,-70,-100,-67
-130,-37,93,83,-111,28,85,74,-15,-54,-79,-62
-122,-30,92,75,-107,31,86,87,-3,-53,-86,-62
-120,-22,98,70,-109,38,84,80,21,-42,-75,-56
-102,-11,90,56,-96,39,80,94,41,-4,-76,-55
-101,-10,91,55,-95,40,102,130,69,17,-70,-57
-141,-51,90,96,-115,19,104,139,80,16,-68,-59
-126,-39,86,82,-106,23,98,168,109,50,-57,-50
-61,19,79,21,-70,49,127,232,169,99,-48,-45
-69,3,72,33,-71,37,138,284,223,141,-37,-36
-73,-7,66,40,-70,29,154,349,294,200,-24,-33
-15,44,59,-15,-37,51,170,421,369,258,-3,-23
-15,40,55,-12,-36,47,166,484,438,310,23,-25
6,62,56,-35,-25,59,173,534,496,371,46,-8
36,88,53,-62,-9,70,193,586,556,433,94,50
19,69,50,-44,-15,59,169,566,552,437,106,51
35,86,50,-60,-8,68,147,533,527,414,91,30
55,104,50,-80,2,77,146,518,511,401,89,28
44,94,50,-69,-3,72,110,431,424,351,80,22
33,82,50,-57,-9,66,73,326,318,270,68,21
39,90,50,-65,-6,69,48,219,209,177,53,18
18,67,50,-42,-16,58,32,131,120,105,45,12
13,64,51,-39,-19,57,20,83,65,62,42,24
-41,16,58,12,-49,37,14,21,-1,-6,7,11
-69,-12,57,40,-63,22,15,-27,-45,-57,-32,-24
-38,13,51,12,-45,32,16,-40,-54,-66,-37,-25
-47,0,46,23,-47,23,14,-35,-56,-68,-33,-25
-21,22,43,-1,-32,32,17,-25,-52,-58,-39,-24
-11,26,37,-8,-24,32,11,-19,-46,-53,-57,-26
-16,20,36,-3,-26,28,12,-10,-39,-46,-57,-21
-53,-11,41,32,-47,15,36,-4,-33,-40,-48,-30
-80,-35,46,57,-63,5,42,5,-25,-42,-46,-47
-75,-26,49,51,-62,11,43,10,-21,-39,-37,-37
-42,12,54,14,-48,33,48,20,-20,-37,-37,-35
-48,6,54,21,-51,30,49,31,-21,-33,-42,-30
-81,-32,49,57,-65,8,49,26,-19,-31,-40,-25
-28,15,44,6,-36,29,43,19,-21,-30,-40,-25
-26,13,40,7,-33,26,37,12,-19,-37,-40,-25
-46,-11,35,28,-40,12,33,6,-21,-38,-40,-24
-36,-6,31,21,-33,12,23,-2,-38,-45,-52,-28
-46,-14,33,30,-39,9,29,1,-49,-77,-56,-45
-31,14,45,8,-38,30,40,11,-51,-81,-54,-42
-26,24,51,1,-39,37,28,-2,-53,-81,-52,-35
-73,-23,50,48,-62,13,16,-23,-70,-87,-49,-34
-79,-23,56,51,-68,16,11,-38,-82,-81,-51,-26
-76,-23,53,49,-64,15,-2,-45,-79,-97,-54,-25
-22,25,47,-2,-35,36,-7,-47,-80,-99,-56,-10
-22,22,44,0,-33,32,10,-58,-90,-94,-52,-15
-86,-48,38,67,-62,-5,8,-53,-89,-93,-50,-37
-46,-11,35,28,-40,12,6,-45,-79,-85,-48,-32
-77,-37,40,57,-59,2,-1,-38,-73,-90,-46,-35
-39,9,48,15,-43,28,7,-26,-61,-71,-41,-3
-31,21,51,5,-41,36,35,-45,-81,-81,-51,7
-77,-12,65,44,-71,26,33,-23,-75,-78,-37,-16
7,74,67,-41,-30,70,44,35,-16,-23,6,9
27,83,56,-55,-15,69,62,61,15,-6,20,16
57,105,48,-81,4,76,56,97,60,33,47,40
116,155,39,-136,38,97,14,100,82,68,74,76
97,120,23,-109,37,71,-47,8,-8,-8,44,49
36,39,4,-38,16,21,-88,-73,-85,-96,23,20
30,18,-12,-24,21,3,-88,-89,-92,-120,-1,11
-9,-18,-9,14,0,-14,-54,-102,-109,-114,-41,-22
-77,-79,-1,78,-38,-40,-21,-98,-131,-120,-66,-47
-68,-61,7,64,-37,-27,-21,-101,-141,-127,-75,-46
-59,-41,18,50,-39,-11,-19,-91,-135,-111,-59,-43
-69,-44,24,56,-46,-10,-20,-100,-143,-115,-73,-56
-54,-6,48,30,-51,20,-20,-87,-127,-104,-48,-43
-77,-32,45,55,-61,6,-20,-84,-131,-146,-67,-56
-98,-45,53,71,-75,4,-31,-77,-123,-128,-46,-33
-105,-58,46,81,-75,-6,11,-63,-116,-119,-70,-42
-202,-21,181,111,-191,80,88,-21,-121,-159,-145,-108
-148,-6,143,77,-145,68,135,127,23,-12,-66,-78
320,-1,-320,-159,320,-160,-361,-340,23,367,480,264
1156,415,-741,-785,948,-162,-1112,-886,204,1186,1589,967
1356,77,-1279,-716,1317,-601,-1226,-1200,-109,697,1129,768
610,-633,-1243,12,926,-938,-937,-1570,-1143,-909,-284,-19
155,-479,-633,162,394,-556,-456,-1027,-1048,-1000,-438,-152
25,-307,-332,141,179,-319,-138,-388,-470,-513,-304,-131
-70,-145,-75,108,3,-110,-62,-213,-277,-325,-221,-125
-82,-45,37,63,-60,-3,61,-45,-102,-155,-117,-112
-113,-66,47,90,-80,-10,79,-5,-63,-120,-95,-116
-71,-4,67,38,-69,31,89,53,-28,-56,-64,-96
-138,-70,68,104,-103,-1,112,65,-27,-55,-76,-99
-162,-75,86,118,-124,5,111,65,-15,-38,-60,-81
-140,-65,76,103,-108,5,117,88,10,-27,-63,-78
-120,-37,82,79,-101,22,119,104,31,-15,-54,-63
-103,-25,79,64,-91,27,117,125,57,-5,-60,-56
-111,-31,80,71,-95,24,116,146,73,8,-69,-38
-25,49,74,-12,-50,61,135,192,119,67,-55,-37
-84,-20,65,52,-75,22,143,210,135,76,-42,-76
-100,-40,60,70,-80,10,137,235,163,97,-31,-72
-65,-15,50,40,-57,18,142,272,208,131,-29,-58
-24,20,44,2,-34,32,167,346,278,191,-30,-52
31,73,42,-53,-6,57,176,419,351,258,-1,-38
-27,19,46,3,-36,32,190,468,399,300,29,-33
43,92,49,-67,-3,70,205,543,481,374,58,-16
62,113,51,-87,5,82,188,579,524,417,83,0
42,97,55,-70,-6,75,195,596,546,439,100,13
94,149,55,-122,20,102,201,604,561,447,132,53
56,107,51,-81,2,79,170,557,512,406,108,54
71,119,48,-95,11,83,137,478,458,363,95,31
98,143,46,-121,26,94,101,383,366,312,104,42
53,95,42,-74,5,68,92,277,252,221,71,36
28,68,40,-48,-7,54,70,166,155,131,38,23
27,64,37,-46,-5,51,46,92,69,70,23,14
62,97,35,-80,13,66,53,43,28,32,36,-3
59,94,35,-77,12,64,46,14,-5,30,32,20
-28,8,36,10,-32,21,45,10,-35,1,14,15
-58,-11,47,35,-53,18,41,-10,-41,-42,0,-18
-40,11,51,14,-46,31,39,-12,-34,-52,-26,-20
-31,18,49,6,-40,33,36,-3,-31,-50,-41,-24
-11,40,51,-15,-31,45,33,1,-25,-43,-39,-25
-34,15,49,9,-42,32,52,17,-23,-38,-41,-26
-19,33,52,-7,-35,42,62,9,-12,-32,-45,-32
10,65,55,-38,-23,60,59,2,0,-30,-44,-29
-28,27,55,0,-42,40,58,18,-11,-30,-48,-26
-44,13,57,16,-51,35,54,20,-11,-27,-50,-20
-50,10,61,20,-56,35,56,22,-1,-24,-50,-15
-44,15,60,15,-52,37,51,18,2,-27,-50,-13
-11,46,57,-18,-34,51,50,21,13,-14,-50,-2
-49,5,54,21,-51,29,50,30,8,-11,-50,-23
-35,16,51,9,-43,33,45,3,-20,-41,-45,-47
16,64,49,-40,-17,56,46,-18,-38,-50,-40,-38
-46,-2,45,24,-46,21,42,-28,-56,-63,-35,-34
-65,-18,46,41,-55,13,41,-31,-68,-72,-32,-29
-36,14,50,11,-44,32,38,-31,-64,-69,-25,-20
-34,15,50,9,-42,32,43,-28,-65,-70,-37,-33
-67,-17,50,42,-59,16,36,-33,-66,-70,-44,-38
-26,23,49,2,-38,36,37,-25,-60,-70,-10,3
-19,38,57,-10,-38,47,57,-13,-76,-71,-4,11
-103,-32,71,67,-86,19,30,-46,-93,-93,-36,-27
-57,19,75,19,-66,46,18,-56,-88,-99,-55,-30
-53,21,75,15,-64,48,19,-60,-91,-95,-54,-30
-87,-12,75,49,-81,31,13,-61,-90,-95,-49,-39
-68,7,74,30,-71,40,12,-53,-89,-95,-48,-20
-64,11,76,26,-70,43,8,-45,-87,-97,-40,-3
-45,30,75,7,-61,53,27,-39,-76,-77,-43,-4
-18,64,82,-23,-51,73,75,5,-32,-36,-8,2
34,119,85,-77,-25,101,101,69,1,9,24,3
38,113,75,-76,-19,94,83,78,15,27,21,16
99,165,66,-132,16,116,85,121,87,76,91,79
120,172,52,-147,34,112,30,65,41,36,84,87
38,70,32,-54,3,50,-47,-56,-76,-75,14,39
62,50,-11,-56,36,19,-50,-89,-95,-100,-5,14
18,16,-2,-17,9,7,-47,-125,-129,-127,-42,-8
-38,2,40,18,-39,20,-35,-121,-140,-131,-57,-29
-75,-43,32,58,-53,-5,-21,-118,-140,-134,-73,-55
-83,-45,37,64,-60,-4,-17,-114,-141,-136,-65,-45
-71,-43,28,57,-49,-8,-5,-102,-138,-130,-74,-56
-119,-87,32,103,-75,-27,-8,-108,-144,-124,-66,-66
-104,-75,29,89,-67,-22,6,-87,-130,-138,-77,-63
-89,-43,46,66,-67,2,5,-101,-133,-155,-86,-58
-77,-27,50,52,-64,11,11,-67,-104,-125,-43,-40
-132,-34,98,83,-115,32,51,-58,-118,-166,-128,-90
-163,39,201,62,-182,120,147,101,-13,-66,-98,-88
100,-37,-137,-31,119,-87,-29,-8,70,159,149,60
868,280,-587,-574,727,-153,-818,-654,163,877,1202,725
1438,363,-1075,-900,1256,-356,-1255,-1041,145,1091,1585,1012
914,-432,-1346,-241,1130,-889,-1063,-1504,-829,-435,148,255
248,-574,-822,163,536,-698,-670,-1405,-1281,-1212,-520,-160
75,-310,-385,117,230,-347,-221,-617,-674,-707,-355,-148
-45,-203,-158,124,57,-180,-81,-281,-359,-407,-297,-135
-98,-73,26,86,-62,-23,16,-86,-153,-184,-141,-81
-118,-72,46,95,-81,-13,91,13,-46,-114,-118,-90
-120,-47,73,83,-96,13,82,37,-47,-93,-89,-68
-113,-52,61,82,-87,4,95,57,-20,-72,-84,-68
-106,-41,65,73,-85,12,87,54,-15,-73,-88,-61
-33,27,61,3,-47,44,103,88,3,-40,-80,-54
-29,28,57,1,-44,43,108,92,21,-22,-72,-52
-94,-25,69,59,-82,22,123,117,60,-6,-59,-43
-110,-36,74,73,-92,19,126,123,63,-4,-56,-42
-96,-20,76,57,-86,28,119,144,81,24,-45,-37
-88,-14,74,50,-81,30,120,164,105,49,-39,-36
-78,-2,75,39,-76,36,114,200,137,76,-32,-33
-64,11,75,26,-70,43,115,247,186,100,-21,-29
-34,34,69,0,-52,51,134,289,233,152,-17,-30
-19,38,57,-10,-38,48,154,350,299,223,0,-16
-39,7,45,16,-42,26,168,408,362,263,37,-23
-7,30,37,-12,-23,34,177,460,423,322,48,-24
55,95,40,-75,7,68,175,498,464,366,43,16
53,93,40,-73,6,66,175,523,475,383,48,24
55,95,40,-75,7,67,175,532,508,419,93,35
72,113,40,-92,16,76,175,516,501,417,117,52
69,108,39,-88,15,73,158,476,454,379,104,49
80,127,48,-104,16,87,128,408,387,316,94,50
50,103,53,-77,-1,77,91,301,282,232,56,44
45,93,49,-69,-2,71,71,210,208,160,48,45
51,97,46,-74,2,71,63,129,115,82,50,43
-10,34,43,-12,-27,38,43,40,36,27,3,32
-8,32,40,-12,-24,36,30,16,4,-2,-28,24
-24,17,41,3,-32,29,17,7,-29,-34,-32,11
-42,5,48,18,-45,26,28,-19,-37,-31,-33,5
-53,1,54,26,-53,27,49,-26,-31,-30,-39,-14
-105,-53,52,79,-79,0,43,-26,-24,-57,-66,-36
-68,-19,48,43,-58,14,35,-18,-18,-61,-72,-35
-60,-14,47,37,-53,16,30,3,-11,-59,-69,-36
-56,-14,42,34,-49,14,24,13,-5,-60,-76,-30
-16,25,41,-5,-29,33,26,18,5,-60,-75,-31
-73,-36,38,54,-56,1,41,33,10,-59,-75,-26
-95,-60,35,77,-64,-12,43,34,-9,-43,-65,-32
-69,-40,29,54,-48,-5,35,26,-22,-26,-56,-51
-52,-26,26,39,-38,-1,32,25,-19,-22,-50,-42
-46,-6,40,25,-43,17,24,17,-22,-18,-45,-36
-47,1,48,23,-48,25,21,16,-19,-16,-39,-30
-54,14,68,19,-61,41,24,8,-21,-45,-33,-22
-64,12,76,26,-70,44,29,4,-22,-42,-31,-21
-55,10,65,22,-60,37,28,-5,-28,-37,-37,-36
-89,-24,65,56,-77,20,21,-21,-48,-56,-63,-47
-62,-4,57,33,-60,26,16,-23,-50,-50,-70,-44
-39,17,56,10,-47,36,11,-56,-79,-88,-61,-46
-92,-31,61,61,-76,15,5,-68,-95,-105,-60,-45
-83,-25,59,54,-71,17,0,-56,-86,-90,-52,-45
-71,-16,55,43,-62,19,12,-60,-93,-96,-50,-39
-49,3,52,23,-50,27,15,-49,-87,-84,-45,-25
-63,-16,47,39,-55,16,4,-55,-94,-89,-44,-26
-84,-39,44,61,-64,3,-2,-76,-106,-102,-40,-24
-45,7,52,19,-49,29,-13,-75,-98,-96,-35,-25
-47,20,67,13,-57,43,-9,-60,-83,-85,-64,-44
-59,26,86,16,-73,56,21,-28,-52,-74,-62,-29
-36,66,102,-15,-70,84,58,19,-15,-49,-7,-1
31,122,91,-76,-30,106,88,46,17,-14,42,2
60,134,74,-98,-7,104,98,62,37,18,49,30
65,129,64,-98,1,96,60,79,46,46,70,63
54,95,41,-75,6,68,0,12,-4,1,54,50
38,58,20,-49,9,39,-28,-64,-73,-65,-20,38
13,7,-6,-10,10,0,-41,-82,-88,-87,-28,39
-77,-68,9,72,-42,-29,-32,-110,-108,-117,-22,24
-100,-52,48,76,-73,-2,-11,-103,-116,-125,-49,-17
-91,-42,50,67,-70,4,-16,-106,-122,-146,-73,-41
-91,-40,52,66,-72,6,-16,-105,-120,-145,-67,-29
-86,-41,45,64,-66,2,-12,-104,-119,-144,-75,-47
-82,-34,48,57,-65,7,-20,-105,-124,-134,-59,-39
-79,-38,41,58,-60,1,-8,-92,-129,-131,-86,-44
-77,-31,46,54,-61,7,-15,-107,-138,-127,-77,-31
-75,-46,30,60,-52,-8,13,-76,-108,-112,-77,-45
-151,-19,132,85,-142,57,74,-43,-102,-151,-168,-126
-166,-11,155,89,-160,71,169,162,50,-23,-112,-107
199,-39,-238,-80,218,-138,-139,-71,142,346,371,194
952,385,-566,-669,759,-90,-965,-714,261,1176,1588,942
1233,215,-1018,-724,1126,-401,-1221,-1031,73,1010,1532,981
656,-500,-1157,-78,907,-828,-945,-1407,-917,-617,25,186
144,-474,-618,165,381,-546,-570,-1152,-1109,-1080,-439,-105
23,-292,-315,135,170,-304,-176,-480,-552,-598,-316,-116
-78,-182,-105,130,14,-143,-55,-229,-300,-362,-260,-139
-154,-105,48,129,-101,-28,16,-66,-124,-168,-161,-117
-131,-91,41,111,-86,-25,70,-15,-76,-122,-135,-117
-136,-68,67,102,-101,-1,73,9,-49,-90,-92,-96
-119,-55,63,87,-91,4,76,39,-24,-79,-95,-95
-90,-16,74,53,-82,29,81,45,-16,-79,-85,-86
-122,-48,74,84,-97,13,94,61,6,-69,-79,-81
-104,-35,69,70,-86,17,88,86,21,-55,-78,-78
-81,-17,64,49,-73,23,90,98,37,-35,-64,-67
-83,-25,58,54,-70,16,110,115,60,-29,-66,-71
-106,-53,54,79,-80,1,122,134,72,-14,-90,-87
-98,-52,47,75,-72,-2,122,140,81,12,-75,-73
-81,-38,43,59,-62,2,127,187,126,58,-62,-67
-70,-30,39,50,-54,4,127,235,169,100,-54,-72
-45,-9,37,27,-41,14,138,289,227,146,-43,-71
-43,-8,34,25,-38,13,138,334,275,188,-40,-80
10,41,31,-25,-11,36,163,402,353,259,14,-39
-8,21,29,-6,-19,25,186,463,426,323,46,-18
-9,35,44,-14,-26,39,163,482,453,348,56,-24
55,107,52,-81,1,79,153,494,467,362,65,2
29,76,47,-52,-9,61,149,472,450,354,55,8
27,71,45,-50,-9,58,139,452,440,351,49,10
56,98,42,-77,7,69,131,429,415,339,43,17
65,104,39,-84,12,71,103,335,315,268,37,28
56,96,40,-76,8,68,65,235,214,178,23,25
35,77,42,-56,-4,59,58,171,156,133,38,11
14,58,45,-36,-16,51,33,106,88,66,26,4
7,69,62,-38,-28,65,27,62,36,18,-6,-10
-18,52,70,-17,-44,61,37,16,-3,-6,-20,-20
-45,17,62,14,-54,39,28,-8,-42,-58,-45,-33
-41,16,58,12,-50,37,28,-10,-50,-66,-51,-40
-38,14,52,12,-46,33,21,-18,-43,-60,-49,-40
-36,11,46,12,-41,28,21,-23,-39,-59,-51,-40
-73,-33,41,53,-57,4,18,-23,-35,-53,-49,-40
-79,-35,44,57,-61,4,30,-8,-30,-51,-50,-40
-40,5,45,17,-43,25,34,-1,-27,-46,-53,-40
-8,40,48,-16,-28,43,45,26,-21,-43,-56,-35
17,67,50,-42,-17,58,58,41,-17,-39,-54,-32
-52,0,51,26,-52,25,44,22,-13,-36,-56,-28
-89,-31,57,60,-73,13,41,18,-7,-31,-55,-25
-66,-11,55,38,-60,22,34,8,-6,-31,-55,-20
-56,-6,50,31,-53,21,30,2,-11,-36,-48,-20
-42,7,48,17,-45,27,21,-7,-17,-40,-44,-32
-30,13,43,8,-37,28,29,-12,-16,-39,-40,-36
0,39,40,-20,-20,39,49,-9,-38,-46,-34,-34
-34,21,54,7,-44,37,38,-30,-66,-62,-33,-35
-38,23,62,8,-50,42,30,-43,-70,-59,-19,-35
-52,7,59,23,-56,33,23,-38,-73,-63,-46,-35
-97,-36,60,66,-78,12,19,-39,-75,-82,-75,-30
-49,10,60,20,-55,34,21,-49,-66,-72,-68,-27
-41,19,60,11,-51,39,16,-49,-68,-75,-71,-23
-68,-8,60,38,-64,26,15,-61,-90,-98,-69,-20
-61,-1,60,31,-61,29,15,-78,-97,-102,-70,-14
-25,34,60,-5,-43,47,10,-74,-98,-98,-69,-21
-37,24,61,6,-49,42,11,-75,-100,-105,-74,-55
-83,-24,59,53,-71,17,9,-76,-85,-111,-75,-55
-73,-8,65,40,-69,29,17,-61,-72,-83,-42,-31
-37,35,73,1,-55,54,40,-18,-48,-49,-9,-14
14,85,70,-49,-28,77,71,35,3,2,18,6
5,75,70,-40,-33,72,76,49,24,11,24,15
26,96,70,-61,-22,83,58,78,46,34,49,37
93,164,70,-128,11,117,46,76,50,55,83,57
52,100,48,-76,2,74,-15,-51,-58,-61,11,35
-4,14,19,-5,-12,16,-54,-117,-123,-113,-37,7
-29,-23,6,26,-17,-9,-40,-109,-117,-124,-32,-23
-48,-23,25,35,-36,1,-32,-109,-123,-139,-55,-38
-86,-45,40,65,-63,-3,-27,-98,-144,-137,-73,-54
-72,-31,41,51,-56,5,-14,-102,-160,-144,-45,-26
-74,-36,39,55,-56,2,30,-87,-149,-144,-62,-31
-99,-58,41,78,-70,-9,18,-95,-157,-170,-102,-90
-93,-52,40,73,-66,-6,7,-91,-136,-151,-65,-80
-128,-89,39,108,-83,-25,-9,-115,-150,-164,-57,-91
-87,-41,46,63,-66,3,-9,-89,-126,-130,-35,-67
-136,-71,65,103,-100,-3,34,-83,-144,-166,-140,-105
-219,-23,196,121,-207,86,108,21,-89,-138,-155,-124
-65,-75,-10,70,-28,-42,95,104,76,90,33,-20
519,124,-395,-321,457,-135,-599,-490,111,701,922,530
1211,447,-764,-828,987,-158,-1189,-928,237,1322,1786,1109
978,-246,-1225,-366,1102,-735,-1079,-1269,-454,184,726,551
304,-637,-941,166,623,-788,-767,-1425,-1224,-1097,-397,-76
58,-394,-452,169,255,-423,-316,-748,-794,-801,-370,-99
-29,-266,-237,148,104,-252,-110,-311,-384,-440,-277,-111
-93,-112,-19,103,-37,-65,-28,-127,-194,-255,-174,-92
-119,-98,22,108,-70,-38,58,0,-65,-125,-125,-90
-75,-16,60,45,-67,22,80,31,-29,-114,-104,-81
-118,-51,67,84,-92,8,128,98,16,-81,-110,-93
-179,-120,59,149,-119,-30,100,76,-23,-84,-118,-102
-144,-81,63,112,-103,-8,98,83,-5,-59,-88,-89
-142,-89,53,115,-98,-18,106,74,3,-41,-78,-89
-132,-75,57,103,-94,-8,107,86,25,-18,-72,-78
-121,-71,50,96,-85,-10,106,124,59,1,-76,-74
-115,-65,50,90,-82,-7,88,133,68,1,-75,-65
-65,-20,46,42,-55,13,96,157,91,33,-75,-62
-58,-15,43,36,-50,14,124,191,119,58,-76,-66
-87,-47,41,67,-64,-3,140,229,168,86,-69,-61
-66,-28,38,47,-52,5,129,277,218,133,-40,-54
-64,-30,33,47,-48,1,138,325,271,179,-18,-47
-29,-1,27,15,-28,13,176,405,356,262,-6,-41
-10,13,23,-2,-17,17,182,463,411,319,10,-33
-5,12,17,-4,-11,14,179,497,452,368,35,-13
32,43,11,-38,10,26,178,537,499,412,63,7
30,46,16,-38,7,30,173,530,512,417,82,22
41,70,29,-56,6,50,177,524,511,420,108,33
66,106,40,-86,13,73,151,496,470,396,99,28
55,101,46,-78,4,73,110,414,399,332,66,21
34,82,48,-58,-7,65,84,318,306,245,51,15
44,97,53,-71,-5,75,56,210,194,171,34,7
-4,49,54,-23,-29,51,33,119,105,91,24,3
-30,20,50,5,-40,35,29,51,57,34,18,-12
2,52,50,-27,-24,51,30,10,27,-3,10,-22
-34,14,48,10,-40,31,30,-10,-21,-55,1,-19
-54,-9,44,31,-49,17,30,-19,-48,-67,-13,-20
-10,35,45,-13,-28,40,30,-14,-43,-64,-19,-20
-9,40,48,-16,-29,44,30,-11,-42,-69,-36,-20
-38,13,51,12,-44,32,30,-8,-38,-70,-52,-20
-15,40,55,-13,-35,47,30,-3,-35,-70,-49,-20
-10,44,54,-17,-32,48,29,-1,-34,-63,-53,-23
-21,29,50,-4,-36,39,31,5,-28,-52,-55,-32
-19,31,50,-6,-35,40,31,9,-21,-43,-55,-32
-37,13,50,12,-44,31,41,22,-16,-35,-52,-32
-38,11,50,14,-44,30,55,35,-14,-35,-47,-26
-29,21,50,4,-40,35,55,30,-10,-36,-44,-35
-22,31,53,-5,-38,42,55,26,-6,-34,-41,-56
-37,18,56,9,-47,37,55,22,-6,-37,-36,-47
-53,2,55,25,-54,28,56,12,-21,-30,-36,-47
-27,29,56,-2,-41,43,51,2,-38,-44,-50,-51
-29,37,65,-4,-47,51,33,-7,-37,-68,-55,-49
-40,26,66,6,-53,46,16,-21,-50,-64,-55,-50
-27,32,60,-3,-44,46,23,-30,-60,-69,-55,-50
-47,8,55,20,-51,31,41,-40,-62,-76,-55,-50
-34,16,49,9,-42,32,33,-34,-59,-84,-63,-45
-22,21,43,0,-33,32,23,-39,-64,-93,-66,-40
-91,-50,41,71,-66,-5,20,-66,-95,-98,-65,-35
-107,-62,45,84,-76,-8,12,-65,-96,-100,-63,-32
-74,-30,44,51,-59,7,9,-64,-93,-100,-60,-25
-43,7,50,17,-46,28,0,-66,-96,-100,-59,-34
-53,7,60,23,-57,33,3,-65,-94,-101,-57,-40
-78,-12,66,45,-72,27,5,-67,-94,-112,-43,-31
-33,31,64,1,-48,47,0,-73,-88,-110,-50,-29
-50,19,69,15,-59,43,18,-74,-85,-95,-64,-20
-58,28,86,14,-72,57,41,-37,-58,-74,-29,-19
25,106,81,-66,-28,94,69,7,-16,-30,-6,-5
39,115,76,-78,-18,95,87,34,-11,-4,-6,7
61,129,68,-95,-3,98,98,83,35,36,38,26
98,159,61,-129,18,110,68,89,62,59,58,65
80,125,45,-103,17,85,-12,-18,-28,-23,10,50
73,78,5,-75,33,41,-52,-97,-94,-88,-9,16
48,52,4,-50,21,28,-42,-111,-113,-109,-18,-11
11,44,34,-28,-12,39,-28,-117,-114,-123,-46,-32
-37,13,50,11,-43,31,-19,-113,-125,-140,-71,-47
-68,-11,57,39,-63,23,-17,-129,-142,-161,-86,-52
-112,-58,54,85,-83,-2,-13,-120,-145,-148,-101,-68
-120,-67,54,93,-87,-6,-8,-123,-169,-156,-107,-86
-122,-64,58,93,-90,-3,-9,-114,-143,-140,-73,-57
-126,-76,49,100,-87,-13,7,-113,-150,-149,-99,-70
-76,-14,62,44,-69,24,21,-112,-136,-134,-69,-60
-108,-55,53,82,-80,-1,30,-85,-127,-144,-106,-79
-195,-4,191,100,-193,93,79,-28,-131,-171,-157,-126
-160,-38,122,99,-141,41,105,88,19,-27,-80,-89
357,46,-311,-202,334,-132,-424,-383,50,439,579,327
1163,465,-698,-813,930,-116,-1143,-908,224,1270,1715,1027
1207,10,-1197,-608,1202,-593,-1189,-1215,-169,640,1105,737
517,-584,-1101,34,809,-843,-868,-1529,-1144,-933,-283,-9
114,-453,-567,169,341,-510,-424,-954,-970,-949,-409,-118
1,-314,-315,157,159,-315,-118,-362,-441,-496,-287,-127
-91,-144,-54,118,-18,-99,-71,-201,-279,-314,-217,-115
-127,-81,46,104,-87,-17,32,-29,-101,-158,-140,-88
-111,-54,57,83,-84,1,40,-3,-68,-62,-142,-94
-112,-33,79,72,-95,23,91,40,-56,54,-128,-80
-170,-91,79,131,-125,-6,74,40,-66,1,-127,-81
-390,-258,132,324,-260,-63,-332,43,-67,-5,-109,-71
-382,-220,163,301,-272,-28,-357,51,-61,7,-95,-65
-72,111,182,-20,-127,146,-160,109,-69,-8,-51,-24
