I,II,III,aVR,aVL,aVF,V1,V2,V3,V4,V5,V6
-38,-54,-17,46,-11,-36,104,114,87,79,74,-4
-46,28,73,9,-59,50,97,109,59,74,69,2
-62,-27,35,44,-48,4,89,106,35,68,63,-4
-11,41,52,-15,-32,46,80,98,36,59,54,-14
20,55,35,-38,-8,45,73,100,31,57,52,3
-10,62,72,-26,-42,67,68,85,18,42,38,9
-57,6,64,25,-61,35,72,112,34,64,59,28
-32,13,45,9,-39,29,45,157,72,105,99,62
35,51,16,-43,9,33,9,145,64,92,92,59
51,50,0,-51,25,25,-15,135,56,80,102,61
122,162,40,-142,40,101,-55,125,52,70,103,59
165,85,-80,-125,123,2,-65,114,42,57,114,70
135,82,-53,-108,94,15,-85,105,39,47,145,110
164,179,15,-171,74,97,-112,94,-4,34,140,118
176,127,-49,-152,112,39,-123,86,-30,26,134,108
224,118,-106,-171,165,6,-128,83,-33,23,128,104
190,113,-77,-151,133,18,-123,81,-54,19,107,94
118,101,-17,-109,67,42,-107,74,-45,16,91,86
104,96,-8,-100,56,43,-70,82,-32,11,85,76
74,72,-2,-73,37,35,-33,87,-24,10,79,68
47,-3,-49,-22,48,-26,23,106,-11,43,74,58
26,23,-3,-25,15,10,39,121,-27,66,67,44
22,88,66,-55,-22,77,48,101,-54,61,49,28
-21,44,65,-12,-43,55,54,61,-78,56,27,11
-40,-6,34,23,-37,14,60,75,-70,53,33,-4
-46,26,72,10,-59,49,65,72,-81,47,19,-32
-59,-1,58,30,-58,28,49,50,-94,44,-3,-9
-56,-67,-10,62,-23,-38,93,102,-76,64,29,26
-28,37,64,-5,-46,50,94,104,-73,72,35,-9
-70,9,79,31,-75,44,75,84,-61,65,21,-22
-118,-60,58,89,-88,-1,70,81,-55,65,17,-12
-70,-34,35,52,-52,0,52,66,-37,61,3,-9
-83,-37,46,60,-64,4,71,78,-3,58,4,-1
-96,-42,54,69,-75,6,87,96,19,70,21,3
-63,-34,29,48,-46,-3,85,77,31,73,27,10
-61,43,104,9,-82,73,77,57,30,63,22,10
-71,30,101,20,-86,65,70,54,30,58,21,10
-96,-20,76,58,-86,28,62,45,30,50,17,10
-101,-24,77,62,-88,26,56,39,31,46,14,10
-56,25,81,15,-69,53,63,33,28,38,21,10
-37,41,77,-2,-57,59,66,27,26,35,26,7
-38,4,42,17,-40,23,63,24,18,26,18,4
-69,-24,45,46,-57,10,59,21,24,28,15,-1
-62,-38,24,50,-43,-7,58,17,45,54,37,13
-13,25,38,-6,-26,31,53,15,46,62,44,27
-25,-12,12,19,-19,0,48,-2,45,60,32,24
-50,-30,19,40,-34,-6,56,-16,46,57,28,25
-36,-18,18,27,-27,0,61,-3,45,56,21,25
-32,-34,-2,33,-15,-18,78,5,45,53,14,25
-59,11,70,24,-64,40,101,30,49,61,28,25
-5,52,57,-24,-31,54,130,66,69,69,34,19
11,77,65,-44,-27,71,167,88,87,61,25,16
-41,49,90,-4,-66,69,65,40,49,48,17,10
-48,-26,22,37,-35,-2,-87,-67,-12,15,9,7
-6,-1,5,4,-5,2,-84,-110,-49,-6,3,0
59,3,-56,-31,58,-26,-48,-84,-45,10,-2,5
20,-67,-87,24,54,-76,-42,-83,-21,38,25,33
-58,-39,19,48,-38,-10,-22,-71,-20,35,23,22
-86,-48,39,67,-63,-4,-12,-61,-6,17,-10,-1
-76,-52,23,64,-50,-14,2,-67,-12,-9,-19,-15
-31,-120,-88,76,29,-104,28,-10,10,27,8,8
-44,-59,-16,52,-14,-38,45,-62,-6,39,20,29
-9,63,72,-27,-41,67,-2,-81,-45,18,-5,-8
40,23,-16,-31,28,4,-132,-222,-157,37,111,84
226,107,-119,-166,172,-6,-276,-693,-632,68,421,298
453,43,-410,-248,431,-183,-443,-1351,-1414,-154,450,307
120,-179,-299,30,210,-239,-389,-1688,-1714,-674,-18,16
-157,-178,-21,167,-67,-100,-228,-1058,-1030,-615,-251,-130
-115,-134,-19,125,-48,-76,-171,-371,-349,-205,-115,-28
-71,-47,24,59,-48,-11,-38,-111,-100,-78,-43,16
11,47,36,-30,-13,41,6,16,6,-14,-8,26
-40,-29,12,34,-26,-8,38,40,14,23,12,41
-47,10,57,18,-52,33,71,76,29,56,28,34
-33,30,63,1,-48,46,50,61,18,55,32,33
-36,-4,32,20,-34,14,54,86,13,48,28,25
-45,-22,23,33,-34,0,37,120,-10,48,33,26
-27,16,43,6,-35,29,37,132,-30,43,34,56
17,94,77,-56,-30,85,27,127,-53,36,31,50
-5,20,25,-7,-15,22,41,144,-71,56,25,57
9,35,26,-23,-9,31,56,185,-56,99,19,94
35,69,33,-53,1,51,31,167,-43,89,15,89
40,29,-11,-34,25,9,20,159,-36,85,6,90
13,49,36,-31,-12,42,8,167,-57,82,21,91
48,97,49,-72,-1,73,-19,179,-58,75,46,84
105,110,5,-108,50,57,-50,178,-49,73,46,99
71,61,-9,-66,40,26,-63,168,-46,62,54,111
91,55,-36,-73,63,9,-77,181,-43,54,63,121
145,106,-39,-126,92,33,-115,176,-50,42,83,143
135,124,-10,-129,73,57,-140,149,-71,29,99,156
159,87,-72,-123,115,7,-144,142,-86,11,89,151
199,104,-96,-151,147,4,-155,143,-92,-2,76,141
180,108,-72,-143,125,18,-168,133,-111,-12,64,133
157,77,-80,-117,118,-2,-156,137,-106,-18,61,124
145,103,-42,-124,93,30,-134,123,-99,-10,46,115
104,54,-49,-79,76,2,-96,134,-86,13,49,106
16,45,29,-31,-6,37,-54,168,-90,56,23,98
8,58,50,-33,-21,54,-38,149,-97,58,-25,88
27,44,16,-36,6,30,-27,144,-100,40,-36,73
-35,65,100,-15,-68,82,-18,122,-132,31,-59,37
-30,26,56,2,-44,41,-7,105,-129,1,-53,26
4,44,40,-24,-18,42,12,109,-125,14,-45,52
-13,42,55,-14,-34,48,27,100,-123,49,-39,46
-45,23,68,11,-57,45,22,100,-119,50,-44,29
-55,39,94,8,-75,66,18,92,-118,50,-74,21
-64,-19,45,41,-54,12,15,106,-108,50,-71,15
-65,22,87,22,-76,54,7,122,-102,50,-64,5
-72,48,121,12,-97,84,31,118,-79,51,-58,21
-83,11,94,36,-88,52,54,114,-62,48,-51,35
-67,-12,55,40,-61,22,58,125,-35,59,-44,37
-76,-29,47,52,-61,9,64,118,-25,66,-60,47
-65,40,105,12,-85,72,58,92,-26,60,-71,44
-47,28,75,9,-62,52,52,100,-13,58,-60,44
-49,39,88,5,-69,63,48,107,-15,54,-59,38
-92,-7,86,49,-89,40,39,99,-9,50,-49,42
-100,-26,74,63,-87,24,40,92,-6,47,-48,31
-52,34,86,9,-69,60,44,84,-3,44,-39,20
-60,-14,45,37,-52,15,41,77,2,46,-39,44
-70,46,115,12,-93,80,35,75,4,44,-76,46
-83,9,91,37,-87,50,31,75,13,45,-82,45
-50,30,79,10,-65,54,27,75,15,45,-78,43
-22,32,53,-5,-38,42,23,76,24,33,-77,39
-39,-58,-19,48,-10,-38,42,75,28,45,-74,41
-29,53,82,-12,-56,67,36,76,30,59,-75,36
-39,4,44,17,-42,24,35,73,32,48,-64,35
-54,-37,17,45,-35,-10,70,77,25,34,-58,35
-49,38,87,5,-68,62,97,99,54,49,-47,37
-18,40,58,-12,-38,49,177,159,89,67,-41,47
-2,60,62,-29,-32,60,110,132,67,49,-28,45
8,10,1,-9,3,5,-75,-1,-18,36,-42,12
22,2,-21,-12,21,-9,-99,-43,-77,26,-72,10
-12,60,72,-24,-42,66,-66,-30,-58,12,-67,25
8,47,39,-28,-16,43,-43,-31,-42,5,-64,12
-15,-24,-9,20,-3,-16,-21,-30,-42,-11,-57,2
-68,-75,-7,72,-31,-41,-22,-20,-26,-16,-75,-9
-34,-42,-8,39,-13,-25,-18,-31,-35,-32,-106,-35
-103,-85,18,94,-60,-33,-8,-2,-14,-19,-96,-34
-118,-56,62,87,-90,3,0,-31,-21,-15,-104,-33
-14,-3,11,8,-12,4,7,-19,-24,-7,-76,-20
14,19,5,-17,5,12,-98,-106,-70,18,26,58
157,143,-14,-150,85,64,-255,-565,-513,40,304,238
454,84,-371,-269,412,-144,-428,-1207,-1279,-88,495,358
236,-140,-376,-48,306,-258,-480,-1691,-1735,-619,65,80
-122,-201,-79,161,-21,-140,-330,-1209,-1196,-706,-293,-142
-94,-103,-9,99,-42,-56,-229,-416,-417,-277,-193,-62
-78,-38,40,57,-58,1,-97,-112,-119,-108,-125,-41
-21,18,38,1,-30,28,-13,44,29,-26,-74,-20
-82,-28,54,55,-68,13,-1,81,53,10,-65,-4
-78,-24,54,51,-66,15,34,107,62,29,-62,2
-40,-4,36,22,-38,16,40,120,81,59,-47,20
-74,-24,50,49,-61,12,49,121,77,53,-47,17
-3,33,36,-16,-20,34,40,129,77,49,-33,18
-52,-42,11,47,-31,-15,40,142,70,38,-31,17
-56,-19,37,37,-46,8,36,165,68,65,-21,34
-9,23,32,-7,-21,27,34,165,64,78,-15,41
-36,-14,21,25,-28,3,38,161,70,73,-5,35
-38,37,75,0,-57,56,9,151,71,76,6,33
-20,22,43,-1,-32,32,-7,149,68,74,14,29
5,1,-4,-3,4,-2,-14,175,77,75,29,50
41,56,15,-48,13,35,-34,192,102,70,41,67
83,117,34,-100,24,75,-67,189,108,65,39,63
95,90,-4,-93,49,43,-136,190,98,62,50,77
107,69,-38,-88,72,16,-198,196,101,56,81,103
137,69,-69,-103,102,0,-254,190,95,50,91,110
129,104,-24,-117,76,40,-318,169,74,27,83,103
178,164,-14,-171,96,74,-349,161,68,8,80,100
212,107,-105,-159,158,1,-353,152,61,-11,75,95
209,118,-91,-163,150,13,-382,142,52,-46,71,91
236,148,-88,-192,162,29,-388,134,46,-59,64,85
147,108,-40,-127,93,33,-345,129,39,-47,49,75
117,88,-28,-102,72,30,-330,130,41,-32,42,67
140,76,-64,-108,102,6,-294,120,40,-15,30,57
77,15,-62,-46,69,-23,-258,140,52,25,26,48
-3,-16,-14,10,6,-15,-250,150,52,21,-1,20
-18,51,69,-17,-44,60,-242,117,28,-20,-46,-9
-7,26,33,-10,-20,29,-241,114,24,-7,-48,-15
-42,1,43,21,-43,22,-236,112,22,7,-39,-5
-33,-7,26,20,-29,10,-232,108,19,15,-31,3
-83,-49,35,66,-59,-7,-230,107,15,25,-59,-31
-125,-47,78,86,-102,16,-207,102,15,25,-82,-52
-86,-33,53,59,-69,10,-162,117,19,25,-59,-47
-53,-28,26,40,-39,-1,-116,117,24,25,-66,-42
-54,-7,47,30,-50,20,-79,117,43,25,-78,-39
-65,13,78,26,-72,45,-53,130,53,24,-64,-31
-77,-43,34,60,-56,-4,-36,123,68,18,-51,-13
-70,9,79,30,-75,44,-24,119,74,12,-35,-28
-56,37,93,9,-75,64,-12,113,94,7,-13,-42
-78,-9,69,44,-74,30,-7,108,122,-1,-10,-25
-63,-5,58,34,-60,26,8,99,138,15,-3,-14
-62,4,66,29,-64,35,26,77,149,34,2,-39
-41,31,72,5,-57,51,23,62,146,26,-18,-54
-63,-72,-9,68,-27,-41,17,53,170,25,-14,-48
-82,-54,27,68,-54,-13,14,41,175,20,-18,-52
-29,39,68,-5,-49,53,8,36,165,17,-33,-49
-31,19,49,6,-40,33,5,35,164,14,-29,-51
-28,-25,3,26,-15,-11,29,35,155,15,-18,-44
-30,-8,22,19,-26,7,59,42,152,33,-24,-51
-67,40,108,13,-88,74,54,13,146,33,-36,-60
-95,-25,70,59,-82,23,51,-2,145,18,-9,-29
-50,-2,47,26,-49,22,50,10,141,8,-19,-36
-34,18,52,7,-43,35,40,13,138,16,-25,-46
-25,39,64,-7,-44,51,87,56,168,30,4,-21
-3,66,69,-32,-37,67,147,100,216,46,9,-16
-14,25,39,-6,-26,32,164,126,221,58,20,-4
-29,44,72,-8,-51,58,44,57,175,28,-9,-35
-42,-37,5,39,-23,-16,-103,-71,126,11,-50,-70
8,-63,-72,28,40,-67,-71,-98,96,3,-55,-77
26,5,-21,-15,23,-8,-46,-75,93,-23,-49,-74
-1,-63,-62,32,31,-63,-19,-73,104,-32,-45,-45
-41,-33,9,37,-25,-12,28,-57,125,-37,-64,-82
-62,-9,53,35,-57,22,-7,-34,126,-40,-65,-95
-65,-92,-27,79,-19,-59,6,-31,114,-34,-55,-78
-47,-70,-24,59,-11,-47,3,-33,127,-22,-45,-75
-59,-80,-21,69,-19,-50,31,-53,101,-14,-39,-63
-67,-74,-7,70,-30,-41,21,-27,127,19,-16,-48
17,23,6,-20,6,14,-119,-257,-55,43,147,69
274,131,-143,-203,208,-6,-298,-862,-713,47,473,276
456,63,-393,-259,424,-165,-535,-1606,-1540,-282,451,261
102,-209,-311,54,206,-259,-480,-1715,-1609,-735,-57,-55
-143,-236,-94,190,-24,-165,-312,-885,-743,-534,-236,-168
-79,-108,-29,94,-25,-68,-193,-286,-170,-193,-111,-93
-116,-84,32,100,-74,-26,-24,-71,33,-92,-57,-71
-83,-67,15,75,-49,-26,13,45,148,-13,-12,-57
-41,-81,-40,61,-1,-60,59,73,138,16,-6,-39
-30,3,33,14,-31,18,87,134,173,66,38,-17
-2,111,114,-55,-58,112,81,132,133,69,48,-61
-48,29,77,9,-63,53,77,138,129,60,36,-65
-63,-47,16,55,-39,-15,63,148,145,62,42,-50
-45,-8,37,26,-41,15,57,152,122,50,27,-52
-16,45,60,-15,-38,52,48,151,115,53,35,-37
-6,42,48,-19,-28,45,38,149,96,49,24,-38
-28,-10,18,19,-23,4,41,178,115,62,42,-25
4,-1,-5,-2,4,-3,66,192,139,72,70,-19
30,6,-24,-18,27,-9,59,181,126,57,55,-4
50,25,-25,-37,38,0,41,203,146,83,85,25
37,78,42,-58,-3,60,24,219,158,97,104,36
38,89,50,-64,-6,69,-10,212,153,86,99,36
90,55,-36,-72,63,9,-29,211,156,84,98,32
123,49,-75,-86,99,-13,-57,210,156,81,119,57
114,123,9,-118,52,66,-96,189,131,55,146,80
145,97,-48,-121,96,25,-109,157,99,26,133,71
167,79,-88,-122,127,-5,-118,152,95,17,119,61
203,115,-88,-159,145,14,-108,144,79,7,131,78
268,105,-164,-186,216,-29,-130,138,69,-15,152,104
193,129,-64,-161,128,33,-147,131,51,-52,120,72
132,94,-38,-113,85,28,-102,119,45,-35,75,31
106,38,-68,-72,87,-15,-51,139,80,-10,60,19
70,18,-52,-44,61,-17,2,160,100,19,62,10
21,-41,-62,10,42,-51,32,156,101,35,63,-8
-14,22,36,-4,-25,29,28,138,79,-11,30,-59
-5,25,30,-10,-18,27,35,126,66,4,12,-53
-22,-11,11,17,-16,0,61,122,63,28,18,-36
-19,74,93,-28,-57,83,65,114,56,22,-6,-73
-28,25,53,1,-41,39,56,108,52,21,-22,-74
-34,-36,-2,35,-16,-19,53,101,44,15,-12,-64
-3,-44,-41,24,19,-43,47,100,52,14,-6,-73
-24,1,25,11,-25,13,38,110,45,7,-2,-84
-39,0,40,20,-40,20,60,119,61,18,-14,-79
-31,-57,-26,44,-2,-41,80,126,81,29,-31,-70
-92,-38,53,65,-72,8,74,124,80,31,-28,-65
-102,-33,69,67,-85,18,61,104,98,29,-18,-57
-53,-24,29,38,-41,3,75,117,124,31,-2,-58
-63,-48,15,56,-39,-16,105,126,151,50,-10,-82
-52,-8,44,29,-48,18,100,93,142,48,-39,-90
-41,64,105,-12,-73,84,92,83,143,42,-41,-82
-114,-12,103,63,-108,45,90,77,171,41,-35,-77
-90,5,94,42,-92,49,80,67,175,34,-33,-72
-48,36,84,5,-66,60,79,61,175,33,-28,-66
-88,-10,78,48,-83,34,73,56,171,29,-25,-62
-50,-4,46,26,-48,21,68,50,168,30,-34,-83
-10,-19,-9,14,0,-14,95,51,187,27,-35,-82
-56,-9,47,32,-51,19,96,41,187,22,-31,-74
-54,-16,37,34,-45,10,98,46,187,29,-27,-67
8,-34,-42,13,25,-38,81,25,173,-1,-24,-62
-79,-28,51,53,-64,11,82,14,177,13,-35,-89
-56,29,85,13,-70,57,118,51,218,65,-45,-102
24,81,57,-53,-17,69,98,28,214,43,-41,-92
-64,-5,59,34,-62,27,137,60,220,49,-7,-68
-45,5,51,20,-48,28,198,114,256,62,8,-64
-12,55,67,-22,-40,61,195,118,254,60,5,-51
1,-17,-18,8,9,-17,60,42,194,27,2,-46
9,1,-7,-5,8,-3,-60,-79,158,-35,-28,-80
20,2,-17,-11,19,-8,-19,-89,154,-11,-47,-87
63,-42,-104,-10,84,-73,9,-66,152,20,-44,-84
-22,-38,-16,30,-3,-27,16,-68,145,-3,-44,-85
-74,-49,25,61,-49,-11,43,-50,142,-6,-39,-95
-68,-71,-3,69,-32,-37,57,-56,140,-21,-42,-102
-66,-69,-3,68,-31,-36,72,-57,136,-36,-60,-108
-59,-44,15,52,-37,-15,57,-38,148,-14,-36,-89
-74,-83,-8,78,-33,-45,74,-50,127,-15,-26,-76
-9,-88,-78,49,35,-83,35,-40,150,19,1,-63
61,24,-37,-42,49,-6,-110,-327,-78,41,173,57
324,162,-162,-242,242,0,-305,-962,-769,29,473,251
445,49,-396,-246,421,-174,-524,-1684,-1566,-347,362,186
25,-253,-277,114,151,-265,-416,-1648,-1482,-728,-131,-129
-131,-248,-118,190,-7,-183,-253,-779,-593,-441,-206,-176
-34,-131,-98,83,32,-114,-142,-269,-117,-170,-99,-113
-68,-78,-10,73,-29,-44,31,-72,81,-74,-67,-120
-53,-24,29,39,-41,2,51,14,180,5,-14,-98
-58,-28,31,43,-44,1,73,36,164,-3,-30,-102
-35,15,50,10,-43,32,71,75,177,23,-27,-88
-19,-4,15,12,-17,5,88,88,190,45,-24,-85
-19,11,29,4,-24,20,106,120,213,64,-19,-78
-14,5,19,5,-17,12,70,104,193,59,-14,-73
-58,-30,28,44,-43,-1,71,114,192,57,-6,-66
-35,-1,34,17,-34,16,81,120,181,54,5,-59
-4,-25,-21,15,9,-23,95,140,176,56,32,-53
2,17,15,-10,-7,16,87,158,169,35,54,-44
40,18,-22,-29,31,-2,91,153,166,41,48,-61
27,40,12,-34,7,26,88,161,185,77,63,-59
26,114,87,-70,-31,100,43,158,185,67,66,-43
108,102,-6,-105,57,48,21,155,184,60,61,-28
135,100,-35,-117,85,32,-6,152,181,54,59,-18
97,40,-57,-68,77,-9,-31,147,180,44,74,7
101,79,-22,-90,62,29,-35,146,179,43,114,16
131,166,35,-149,48,100,-73,138,155,55,121,17
177,114,-63,-145,120,25,-90,128,135,48,121,42
237,121,-116,-179,177,2,-91,115,132,26,123,37
226,120,-106,-173,166,7,-115,91,125,11,107,31
200,109,-91,-155,145,9,-121,90,124,-21,97,27
198,142,-56,-170,127,42,-95,89,115,-24,84,20
125,42,-83,-83,104,-20,-54,94,119,-3,81,15
60,33,-27,-46,43,3,-24,117,146,2,54,5
66,100,35,-84,16,67,9,111,138,8,24,-18
60,57,-3,-59,31,27,42,98,121,11,25,-49
31,51,20,-41,5,35,49,88,116,17,14,-72
2,6,5,-4,-1,5,73,79,111,20,-2,-79
-16,9,26,4,-21,18,90,77,109,16,-34,-83
-28,-30,-3,29,-12,-16,80,73,104,14,-41,-97
-26,-63,-37,44,6,-49,83,70,101,17,-35,-96
-42,-37,5,40,-23,-16,92,65,101,25,-31,-85
-42,-33,9,38,-25,-12,88,63,107,20,-30,-87
-20,33,53,-7,-37,43,75,59,102,15,-53,-107
-72,-20,52,46,-62,16,87,64,108,13,-47,-105
-66,0,66,33,-66,33,97,77,120,3,-40,-98
-65,-11,54,38,-60,21,102,73,134,21,-28,-88
-70,-22,47,46,-58,13,122,64,160,34,-38,-98
-36,42,78,-3,-56,59,120,44,149,18,-71,-131
-60,-39,22,49,-41,-9,119,53,174,25,-63,-123
-72,-20,52,46,-62,15,121,66,215,41,-59,-119
-72,-10,62,40,-67,26,119,49,208,36,-53,-113
-11,-41,-30,26,10,-35,121,38,211,31,-47,-107
-50,-31,19,41,-35,-5,119,21,210,28,-43,-103
-109,-29,79,69,-94,25,120,5,209,22,-39,-99
-48,4,52,22,-50,27,120,-4,212,19,-37,-106
-56,-5,51,30,-54,23,120,-16,206,13,-35,-107
-33,-69,-36,51,2,-52,122,-15,218,28,-30,-92
-24,-68,-44,46,11,-56,115,-12,214,45,-32,-90
-79,-15,63,47,-71,24,78,-24,175,24,-49,-120
-66,-13,53,40,-60,20,74,-22,171,12,-46,-113
-20,-9,11,14,-15,1,100,-12,181,10,-39,-102
-10,-36,-25,23,8,-30,105,-10,184,13,-35,-94
-54,-56,-3,55,-25,-29,140,9,216,44,-28,-71
-60,-35,25,47,-42,-5,164,30,229,43,-24,-90
-40,-29,11,35,-25,-9,231,85,268,64,-16,-68
-22,13,35,4,-28,23,216,91,274,75,-7,-54
-10,12,22,-1,-16,17,26,-36,173,22,-11,-94
-6,-58,-52,33,23,-54,-28,-109,140,-13,-28,-87
25,-48,-74,12,50,-61,25,-101,142,-14,-38,-85
23,-7,-30,-8,27,-18,30,-95,138,6,-37,-104
-55,-53,2,54,-29,-25,31,-96,132,-26,-53,-123
-102,-74,28,88,-65,-23,47,-83,132,-41,-64,-135
-86,-76,10,81,-48,-33,70,-89,124,-31,-55,-125
-66,-83,-17,75,-24,-50,87,-75,125,-18,-50,-120
-53,-80,-27,67,-13,-53,75,-81,135,-14,-42,-112
-46,-110,-64,78,9,-87,93,-75,111,-2,-28,-94
3,-47,-50,22,26,-49,31,-94,102,34,27,-45
83,90,6,-86,38,48,-142,-479,-225,50,240,87
418,168,-250,-292,334,-41,-352,-1169,-996,-15,499,248
376,-89,-465,-143,421,-277,-500,-1781,-1654,-466,240,95
-81,-280,-199,181,59,-239,-383,-1479,-1300,-705,-211,-183
-66,-117,-51,92,-7,-83,-218,-632,-443,-357,-198,-162
-36,-78,-42,58,3,-60,-60,-220,-60,-125,-97,-116
-35,-58,-23,47,-6,-40,73,-49,114,-38,-53,-109
-6,-74,-68,40,32,-71,90,1,159,12,-22,-89
-30,-39,-9,34,-10,-24,89,26,149,16,-23,-90
-23,-4,20,14,-22,8,102,50,160,38,0,-74
-84,-66,17,74,-50,-24,113,61,155,38,7,-75
-52,-50,2,51,-27,-23,113,90,160,45,26,-55
-42,-62,-20,52,-11,-41,125,110,115,56,31,-67
-33,17,50,8,-42,33,116,125,79,56,28,-82
-43,20,63,11,-53,41,108,116,93,52,26,-62
-35,-19,16,27,-25,-2,103,125,108,53,39,-59
24,33,9,-29,8,21,91,124,91,45,31,-57
27,-8,-35,-9,31,-21,93,139,91,62,44,-47
20,-6,-26,-7,23,-16,92,133,74,53,54,-41
14,17,3,-15,6,9,83,133,86,49,49,-32
44,56,12,-50,16,34,70,181,133,97,92,-26
61,85,24,-73,19,54,36,178,131,88,86,-19
110,77,-34,-93,71,21,24,162,123,73,102,-4
131,102,-29,-116,80,36,0,154,97,60,118,6
115,36,-79,-75,97,-22,-33,134,79,36,115,37
152,52,-100,-101,125,-24,-48,128,56,42,147,71
145,96,-49,-121,97,24,-79,120,34,18,135,60
189,100,-89,-144,139,5,-104,117,46,-23,118,48
212,126,-86,-168,148,20,-107,113,38,-46,104,39
175,93,-82,-134,128,5,-52,106,32,-39,86,22
174,92,-82,-133,128,4,-17,106,30,-25,72,10
101,76,-25,-89,63,25,-12,84,17,-18,59,-19
59,69,10,-64,24,39,40,88,34,24,49,-45
80,44,-36,-61,58,4,74,104,49,44,37,-57
-13,-22,-9,18,-2,-15,98,90,35,34,28,-71
-50,27,77,11,-64,52,108,76,22,24,20,-84
-6,5,11,0,-9,8,103,64,13,23,12,-90
-83,-69,14,76,-48,-28,125,75,22,47,4,-86
-87,-18,69,52,-78,25,131,64,15,29,-3,-82
-70,-4,66,36,-68,31,129,45,-8,14,-12,-79
-73,-46,26,59,-49,-10,131,56,7,20,-11,-76
-26,-68,-42,47,8,-55,130,81,38,39,0,-66
-64,-14,50,39,-57,18,130,77,27,57,-6,-95
-64,-11,53,37,-58,21,125,76,43,52,-24,-112
-51,-23,28,37,-40,2,125,93,74,45,-33,-98
-55,15,70,20,-63,42,124,80,67,44,-23,-97
-64,-3,61,33,-63,29,120,66,81,36,-16,-89
-75,-54,21,64,-48,-16,120,59,97,37,-8,-86
-60,-48,13,54,-36,-18,119,54,107,59,0,-85
-60,9,70,25,-65,39,111,48,94,33,-23,-85
-31,-22,9,26,-20,-6,128,60,108,46,-32,-85
-42,-21,20,31,-31,0,139,41,128,74,-25,-85
-82,14,96,33,-89,55,123,14,106,50,-21,-83
-49,30,80,9,-65,54,104,16,90,35,-18,-79
6,-15,-21,4,13,-18,110,21,98,43,-6,-77
-43,-36,7,39,-25,-14,120,26,116,61,17,-74
-136,-37,99,86,-117,31,97,8,95,40,13,-71
-118,-85,33,101,-75,-26,92,5,88,28,8,-69
-74,-50,25,62,-49,-12,83,-2,90,20,4,-66
-69,-54,16,61,-42,-19,79,-10,91,15,-1,-65
-49,-74,-25,62,-12,-49,70,-12,90,7,8,-65
-31,-30,1,30,-16,-14,65,-20,91,1,-1,-65
-30,-19,11,25,-21,-4,91,-31,90,29,-6,-64
-40,-59,-19,50,-11,-38,109,-3,79,44,5,-68
-26,-15,11,20,-18,-2,154,53,113,53,20,-70
-32,4,36,13,-34,20,205,83,139,67,39,-70
-40,16,55,12,-48,35,191,100,142,87,47,-70
-5,45,50,-20,-27,47,40,-6,78,69,12,-70
9,-65,-74,29,42,-70,-58,-109,16,37,-18,-70
9,-64,-73,28,41,-68,-18,-94,20,32,-14,-63
25,-23,-48,0,36,-35,-5,-83,19,22,-15,-60
-3,-64,-61,34,29,-62,34,-78,10,12,-11,-49
-53,-85,-33,69,-10,-59,66,-65,27,4,-10,-58
-60,-101,-41,81,-9,-71,61,-74,28,-4,-11,-88
-58,-87,-29,72,-14,-57,70,-63,23,8,-10,-84
-49,-84,-35,67,-7,-60,60,-64,27,13,3,-68
-28,-68,-40,48,6,-54,53,-72,-7,10,6,-68
-1,-47,-46,24,23,-46,-14,-99,-6,37,60,-8
109,29,-79,-69,94,-25,-141,-430,-279,63,292,157
417,107,-310,-262,364,-101,-335,-1030,-991,12,530,309
351,-52,-403,-149,377,-227,-423,-1646,-1656,-440,255,131
-67,-285,-219,176,76,-252,-257,-1462,-1408,-738,-191,-154
-119,-242,-123,180,2,-182,-175,-635,-565,-361,-148,-104
-78,-116,-38,97,-20,-77,-82,-219,-162,-92,-41,-35
-54,-95,-41,74,-6,-68,65,-30,-11,-38,-6,-38
-26,-14,12,20,-19,-1,86,23,47,18,36,-37
-65,-4,61,34,-63,29,89,20,46,34,24,-57
-61,-19,42,40,-52,11,91,75,80,75,56,-40
-55,-34,22,44,-38,-6,105,76,79,81,59,-37
-31,-68,-37,50,3,-52,108,93,52,76,69,-27
-44,-24,20,34,-32,-2,92,96,21,75,64,-18
-59,-17,42,37,-50,12,78,106,23,69,54,-3
-27,-17,10,22,-18,-4,68,119,12,72,51,10
-17,-30,-13,23,-1,-21,62,120,5,87,39,9
5,13,8,-9,-2,10,52,102,-2,91,57,-4
33,44,11,-38,10,27,46,118,-2,89,81,-7
25,10,-16,-17,21,-3,38,144,12,91,91,10
53,73,20,-63,16,46,27,137,16,90,86,18
90,78,-12,-84,51,33,19,152,34,89,109,56
94,61,-33,-77,63,13,-1,160,43,81,113,74
92,56,-36,-74,64,10,-32,150,30,73,121,69
130,25,-105,-77,117,-39,-58,146,25,65,131,92
244,109,-135,-176,189,-13,-80,137,11,58,126,99
258,133,-125,-196,191,4,-106,129,-3,44,148,108
252,115,-137,-184,194,-11,-122,117,-21,22,129,112
242,123,-119,-183,180,2,-108,105,-45,15,111,102
216,62,-155,-139,185,-46,-102,95,-50,13,111,113
233,75,-158,-154,195,-41,-117,86,-61,9,79,99
139,64,-75,-101,107,-6,-71,84,-59,7,59,70
98,47,-51,-72,74,-2,-21,73,-48,4,32,63
106,69,-37,-87,71,16,-15,83,-36,14,8,47
29,35,5,-32,12,20,29,99,-29,39,15,31
-21,6,27,7,-24,17,45,87,-37,40,9,21
-11,-14,-3,12,-4,-9,51,81,-53,38,-3,8
-25,-4,21,14,-23,8,75,69,-67,55,-23,-2
-23,9,32,7,-27,20,72,64,-60,52,-35,-12
-29,-17,11,23,-20,-3,63,57,-59,47,-39,-21
-29,-56,-27,43,-1,-42,75,68,-52,46,-41,-23
-16,-15,1,16,-8,-8,101,96,-52,39,-41,-13
-83,-35,48,59,-66,6,101,95,-37,42,-59,-2
-71,-16,54,43,-62,19,98,93,-18,46,-61,-12
-39,-17,22,28,-31,2,96,90,-5,41,-59,-27
-48,-73,-26,61,-11,-49,94,90,36,54,-56,-25
-36,3,39,16,-37,21,93,88,44,68,-54,-24
-91,-61,30,76,-60,-15,89,77,54,61,-55,-21
-136,-53,83,95,-109,15,91,68,62,60,-48,-16
-64,2,66,30,-65,34,86,57,54,57,-44,-15
-27,11,38,8,-33,25,84,47,53,54,-39,-8
-62,-1,61,31,-62,30,86,37,49,56,-36,-7
-7,-51,-44,30,19,-48,72,28,73,54,-30,-1
19,3,-16,-11,18,-7,58,16,80,55,-31,3
-15,25,40,-5,-28,33,54,11,70,55,-44,-4
-37,8,44,14,-41,26,55,-2,65,55,-46,-2
-47,-62,-15,55,-16,-38,55,4,58,54,-44,-2
-23,-6,17,15,-20,5,54,4,50,48,-46,17
-30,9,39,10,-34,24,74,-11,62,45,-44,33
-72,-54,18,63,-44,-18,81,3,81,38,-45,28
-113,-34,79,73,-95,22,81,-5,88,37,-35,31
-73,-13,60,43,-66,23,77,-6,83,28,-29,31
-22,22,44,0,-34,33,99,37,90,38,-12,27
-34,-44,-9,39,-12,-27,172,85,139,91,40,49
-20,20,41,0,-31,30,204,100,154,96,48,63
4,59,55,-32,-26,57,104,51,114,57,31,49
-11,-52,-41,32,15,-46,-44,-52,22,31,11,40
-54,-52,2,53,-28,-25,-71,-110,-30,16,-29,31
38,4,-34,-20,36,-15,-31,-84,5,15,-36,24
14,-36,-50,11,32,-42,9,-77,23,10,-34,18
-87,-112,-25,100,-30,-69,43,-67,24,3,-37,10
-44,-98,-55,71,6,-76,26,-54,24,5,-33,4
-89,-86,3,88,-46,-41,32,-62,5,-11,-42,0
-57,-73,-16,65,-21,-44,19,-28,16,8,-33,13
-81,-122,-40,102,-20,-81,24,-61,-13,4,-26,6
-18,-94,-77,56,30,-85,36,-50,5,7,-11,7
93,12,-80,-52,86,-33,-101,-223,-92,42,123,115
228,83,-145,-155,186,-30,-257,-724,-632,76,430,310
430,63,-367,-246,398,-152,-433,-1385,-1417,-172,461,312
100,-187,-287,44,194,-236,-366,-1682,-1673,-703,-24,6
-164,-262,-98,213,-33,-180,-180,-1006,-937,-606,-242,-114
-92,-117,-25,105,-33,-71,-165,-346,-277,-211,-132,-20
-57,-34,24,46,-40,-5,-15,-105,-49,-99,-88,-2
-60,-44,16,52,-38,-14,69,21,87,-6,-35,31
-33,-68,-36,51,2,-52,75,47,96,31,-24,14
5,21,16,-13,-6,18,102,95,129,48,-12,-9
-30,9,39,10,-35,24,87,69,108,35,-4,15
-13,-36,-23,25,5,-30,92,91,117,46,21,32
-31,9,41,11,-36,25,83,127,122,73,50,57
-76,-5,71,40,-73,32,81,124,89,58,37,51
-49,-5,44,27,-46,19,78,125,98,56,37,48
-6,-10,-3,8,-2,-6,70,131,93,46,31,46
-11,-36,-25,23,7,-30,64,129,95,36,25,37
3,55,52,-30,-25,54,58,125,97,44,29,47
36,71,35,-54,0,53,49,141,91,49,45,62
18,-12,-30,-3,25,-21,48,157,111,66,63,77
30,71,40,-51,-5,55,19,154,123,84,71,77
59,47,-12,-53,35,17,1,155,114,71,63,83
103,60,-43,-81,73,8,-24,173,107,63,49,80
149,121,-28,-135,88,47,-73,167,99,57,81,90
163,56,-108,-109,135,-26,-81,155,94,53,101,110
172,88,-84,-130,128,2,-94,136,82,52,96,111
184,41,-143,-112,163,-50,-100,150,95,46,126,142
223,99,-124,-161,173,-12,-122,139,77,18,116,143
199,139,-60,-169,129,40,-129,110,52,-21,94,124
192,85,-107,-138,150,-11,-110,117,56,-31,87,117
156,64,-91,-110,123,-13,-93,113,54,-24,77,108
83,-12,-94,-35,88,-53,-59,134,83,-16,68,103
94,44,-50,-68,72,-3,-30,135,87,-4,25,60
11,50,39,-30,-14,44,3,122,75,2,-14,23
-26,-18,7,22,-16,-5,47,117,71,28,-22,18
2,-89,-92,44,48,-90,76,104,61,48,-7,8
-32,-28,4,30,-18,-12,75,101,56,28,-24,2
-26,50,75,-13,-51,62,75,95,50,9,-49,-8
-31,-32,-1,31,-15,-17,75,90,50,18,-29,-9
-20,23,43,-1,-32,33,75,87,50,32,-43,-13
-47,4,51,21,-49,27,74,80,49,30,-62,-40
-104,-93,10,99,-57,-41,70,86,50,30,-50,-39
-48,-70,-22,60,-13,-46,70,103,61,30,-48,-31
-61,-66,-5,64,-28,-35,78,105,87,30,-41,-28
-82,-57,25,69,-53,-15,75,112,102,28,-35,-18
-53,-13,40,32,-46,13,60,114,101,25,-54,-43
-95,-26,69,60,-82,21,77,102,129,24,-68,-58
-114,-71,43,92,-78,-14,93,95,155,22,-64,-51
-107,-59,48,82,-77,-5,83,85,154,17,-66,-51
-49,-42,7,45,-28,-17,81,76,165,24,-65,-46
-49,-54,-5,52,-22,-29,76,65,174,35,-66,-45
-90,-30,59,60,-74,15,71,52,176,25,-61,-41
-38,23,61,7,-50,41,72,45,174,11,-60,-40
-33,-22,11,27,-22,-5,77,40,175,8,-59,-35
-36,-25,10,31,-23,-8,80,35,176,22,-56,-34
-24,4,29,10,-27,16,80,31,171,20,-54,-30
-38,-83,-45,61,4,-63,80,27,181,8,-56,-29
-30,-87,-57,59,14,-72,74,23,190,2,-70,-44
-22,-59,-38,41,8,-48,77,28,181,-7,-72,-51
-17,-53,-36,36,10,-45,72,22,174,-6,-60,-35
-29,-53,-24,41,-3,-38,81,31,170,9,-46,-16
-26,-63,-37,45,6,-50,108,39,157,21,-63,-33
-37,-12,25,25,-31,6,124,56,180,21,-50,-23
-93,-18,75,55,-84,29,180,108,234,44,-36,-13
-61,-17,44,39,-52,13,218,127,248,64,-32,-5
-57,-30,27,43,-42,-2,78,48,182,38,-41,4
-73,-73,0,73,-36,-36,-57,-67,92,-24,-95,-42
-6,-47,-41,27,18,-44,-24,-80,79,-55,-101,-57
22,-72,-95,25,59,-83,12,-62,106,-46,-98,-52
2,-104,-107,51,55,-105,20,-71,109,-48,-102,-61
-24,-100,-76,62,26,-87,33,-50,108,-42,-98,-68
-20,-85,-65,53,23,-75,41,-48,105,-41,-101,-60
-44,-78,-34,61,-5,-55,67,-26,114,-39,-99,-48
-41,-71,-30,57,-5,-50,52,-18,126,-34,-103,-59
-50,-89,-39,70,-5,-64,61,-54,104,-48,-108,-80
-37,-108,-71,73,17,-89,39,-20,132,-2,-67,-43
27,0,-27,-13,27,-14,-104,-274,-72,31,97,80
266,139,-126,-202,196,6,-286,-866,-737,34,426,274
452,40,-412,-246,432,-185,-491,-1578,-1539,-315,407,255
65,-242,-307,88,186,-274,-425,-1685,-1585,-789,-121,-77
-102,-232,-130,167,14,-181,-267,-875,-738,-556,-283,-175
-5,-151,-146,78,71,-148,-140,-269,-154,-179,-143,-90
-121,-164,-43,143,-39,-104,47,-32,55,-84,-113,-87
-77,-89,-12,83,-32,-50,81,59,164,-26,-73,-66
-36,-35,1,35,-18,-17,84,45,148,-29,-68,-66
-66,-35,31,51,-48,-2,82,80,159,-2,-52,-58
-53,-42,12,47,-32,-15,74,92,153,21,-45,-49
-14,-28,-14,21,0,-20,78,110,156,21,-41,-46
-6,-108,-103,57,48,-106,91,136,169,40,-30,-24
-39,-51,-11,45,-14,-31,97,154,168,54,-29,-16
-25,23,49,1,-37,36,79,150,157,41,-3,-38
-30,28,58,1,-44,42,71,135,144,23,-23,-54
-27,36,64,-5,-45,50,60,129,135,18,-31,-45
-1,-40,-38,21,19,-39,55,155,158,49,-6,-19
6,-13,-18,3,12,-16,47,162,179,67,-7,-10
30,-18,-48,-6,39,-33,41,173,170,54,18,1
27,-12,-38,-7,33,-25,32,185,169,50,44,21
45,58,12,-52,16,35,14,170,165,41,46,22
119,54,-65,-86,92,-6,-13,167,160,34,53,33
81,40,-41,-60,61,0,-39,157,162,28,63,42
117,87,-30,-102,73,29,-69,151,162,17,76,62
202,100,-102,-151,152,0,-95,152,146,9,85,78
154,80,-74,-117,114,3,-98,146,130,0,94,72
159,47,-113,-103,136,-33,-104,132,124,-10,96,78
166,50,-116,-108,141,-33,-116,124,118,-27,78,78
161,91,-70,-125,115,10,-123,109,115,-52,59,63
115,31,-84,-73,99,-26,-81,119,110,-57,48,43
69,64,-5,-67,37,30,-41,137,106,-44,31,21
41,52,12,-46,14,32,-10,127,100,-36,18,-17
23,-3,-26,-9,24,-15,27,123,91,-26,-4,-46
1,-3,-4,1,2,-3,40,117,80,-23,-31,-48
-61,-39,22,49,-41,-9,68,113,75,-19,-39,-54
-25,-1,24,13,-24,12,59,109,59,-16,-63,-62
-28,-57,-28,43,0,-42,59,107,63,-11,-69,-66
-48,-83,-34,66,-7,-58,88,103,85,-9,-59,-70
-68,-57,11,62,-39,-23,67,101,81,-28,-57,-78
-62,-82,-21,72,-20,-51,81,99,76,-27,-48,-63
-23,-80,-57,52,17,-68,113,95,73,-20,-72,-75
-49,-64,-15,56,-17,-39,108,121,95,-10,-95,-100
-54,8,62,23,-58,35,105,130,109,-2,-94,-93
-70,-45,25,57,-47,-10,103,119,100,-5,-92,-93
-75,-76,-1,75,-37,-38,99,117,117,2,-88,-90
-114,-71,42,92,-78,-14,99,109,134,10,-85,-89
-98,-70,28,84,-63,-20,92,105,154,21,-79,-88
-41,20,61,10,-52,40,95,96,169,23,-88,-82
-49,-4,45,26,-47,21,101,84,164,13,-87,-84
-40,-40,0,40,-20,-20,104,74,181,-1,-59,-73
-98,-61,38,80,-68,-12,114,61,199,6,-70,-79
-102,-40,63,71,-82,11,110,55,196,11,-98,-104
-44,-28,16,35,-30,-6,103,47,186,-3,-92,-100
-35,-40,-5,37,-14,-22,98,39,183,-15,-87,-98
-38,-3,35,20,-36,16,92,34,172,-24,-71,-84
-26,-16,10,21,-18,-3,87,22,161,-36,-83,-93
-50,-66,-16,58,-16,-41,85,32,183,-43,-112,-128
-67,-87,-19,77,-23,-53,85,36,188,-32,-96,-121
-25,-8,17,16,-21,4,86,20,174,-23,-89,-118
-51,-11,40,31,-46,15,82,-2,175,-8,-77,-115
-37,-69,-33,53,-2,-51,95,14,162,15,-62,-110
-33,-27,5,30,-19,-11,124,37,159,19,-88,-109
-28,57,85,-15,-57,71,118,7,168,-11,-98,-103
-13,17,30,-2,-22,24,157,60,209,10,-84,-103
-44,-9,35,26,-40,13,240,135,263,65,-79,-98
-15,42,57,-13,-36,49,173,101,241,33,-69,-97
-37,-61,-24,49,-6,-42,14,2,161,-21,-65,-93
8,-49,-58,21,33,-53,-39,-77,93,-53,-97,-101
4,-62,-66,29,36,-64,-17,-74,120,-60,-111,-117
-53,-138,-84,96,16,-111,16,-62,145,-37,-87,-103
-27,-57,-30,42,2,-44,52,-65,120,-47,-97,-116
-36,-26,10,31,-23,-8,51,-45,118,-67,-116,-138
-62,-76,-14,69,-24,-45,72,-56,101,-75,-122,-146
-86,-93,-8,89,-39,-50,84,-31,145,-61,-127,-145
-81,-66,14,73,-47,-26,69,-48,129,-71,-116,-123
-24,-55,-31,40,4,-43,82,-47,122,-51,-86,-116
20,-35,-55,8,37,-45,-25,-121,96,-2,-14,-57
135,70,-65,-103,100,2,-165,-577,-345,38,253,135
442,124,-317,-283,380,-96,-399,-1304,-1172,-77,480,284
283,-134,-417,-74,350,-275,-513,-1815,-1701,-596,93,42
-92,-253,-161,172,35,-206,-340,-1304,-1129,-711,-325,-234
-92,-162,-70,127,-10,-116,-211,-485,-323,-308,-235,-181
-41,-81,-40,61,0,-61,-46,-185,-32,-141,-156,-140
25,14,-11,-20,18,2,48,-22,120,-60,-139,-130
-19,-53,-34,36,8,-43,84,43,170,-23,-113,-117
-63,-62,0,62,-31,-31,101,54,192,-25,-110,-122
-38,-19,19,28,-29,0,97,86,184,-11,-85,-108
-33,4,37,15,-35,20,128,101,177,-7,-81,-113
-34,-47,-13,41,-10,-30,116,105,178,21,-60,-88
-58,-26,32,42,-45,3,120,131,168,30,-68,-93
9,71,62,-41,-26,66,114,120,168,18,-89,-121
10,16,6,-13,2,11,115,124,163,18,-80,-113
-15,30,46,-8,-31,38,110,153,165,39,-74,-108
6,43,37,-24,-16,40,88,147,161,42,-66,-99
-13,7,20,3,-16,13,78,145,159,37,-48,-73
32,59,27,-46,2,43,63,143,161,38,-35,-57
32,52,21,-42,5,36,61,138,160,32,-23,-50
36,12,-24,-24,30,-5,40,144,171,38,-12,-42
83,59,-24,-71,53,18,9,166,183,52,-4,-35
71,88,17,-79,26,52,-3,151,169,44,19,-24
130,68,-62,-99,96,3,-33,136,170,23,37,-2
178,77,-100,-128,139,-11,-51,133,158,-8,53,29
136,127,-9,-131,72,59,-84,98,138,-34,56,25
144,73,-71,-108,107,1,-94,95,135,-35,52,15
182,79,-103,-131,143,-12,-94,102,128,-53,55,37
169,157,-12,-163,90,72,-112,96,125,-73,27,32
154,110,-44,-132,98,33,-73,96,120,-51,13,14
153,80,-72,-116,112,3,-27,91,115,-35,-3,-13
101,68,-33,-84,67,17,9,90,111,-33,-23,-37
45,50,4,-47,20,27,35,87,106,-23,-42,-61
21,11,-11,-16,16,0,68,80,101,-18,-63,-86
-8,8,16,0,-12,12,82,78,98,-10,-68,-94
-50,-1,49,26,-50,24,84,71,92,-7,-91,-119
-42,-49,-7,46,-17,-28,106,69,89,-2,-90,-121
-13,16,29,-1,-21,22,104,62,82,-1,-90,-118
-40,33,74,3,-57,54,105,53,77,-12,-107,-132
-27,-24,3,25,-14,-10,106,42,71,-23,-103,-128
-20,12,33,4,-27,23,103,27,65,-36,-105,-130
-62,-13,49,38,-56,18,109,61,90,-36,-114,-145
-47,-44,3,45,-24,-21,94,65,101,-26,-110,-144
-45,12,57,17,-51,34,93,56,101,-18,-105,-139
-84,-23,61,53,-72,19,120,81,134,-9,-102,-138
-85,-15,70,50,-77,27,121,72,147,-1,-94,-133
-84,2,86,41,-85,43,117,65,142,6,-100,-139
-87,-70,17,78,-52,-27,130,60,187,17,-104,-137
-74,-46,27,60,-51,-9,133,50,207,24,-100,-132
-67,19,86,24,-76,52,126,41,193,16,-90,-121
-78,-1,77,39,-77,38,119,28,218,4,-96,-127
-122,-39,83,80,-102,22,113,18,227,-2,-117,-149
-64,7,71,28,-68,38,107,7,224,-4,-113,-138
-32,8,40,12,-36,23,98,-3,226,-11,-110,-131
-77,-53,25,64,-51,-14,114,-10,225,-18,-108,-120
-36,-35,1,35,-18,-17,133,-33,225,-24,-104,-120
-53,-22,30,37,-41,4,129,-51,220,-29,-105,-141
-45,5,49,20,-47,27,130,-44,212,-23,-93,-131
-15,22,37,-4,-26,29,132,-50,207,-17,-94,-132
-40,-14,26,26,-33,6,127,-60,197,-12,-99,-147
-18,18,36,0,-28,27,133,-28,210,-5,-78,-137
-31,45,76,-7,-54,61,173,21,256,4,-71,-124
-38,2,40,18,-39,21,240,51,282,33,-68,-110
-4,-2,2,3,-3,0,191,39,279,36,-50,-82
-17,17,34,0,-26,25,66,-76,185,3,-73,-107
-8,-14,-6,11,-1,-10,43,-161,104,-15,-105,-140
21,-45,-65,12,43,-55,47,-141,142,-30,-98,-133
20,-28,-48,4,34,-38,38,-137,154,-29,-98,-135
-18,-49,-30,33,6,-39,66,-134,145,-39,-95,-136
-47,-85,-38,66,-4,-61,91,-118,164,-44,-94,-133
-68,-100,-31,84,-18,-65,105,-128,154,-36,-102,-142
-63,-72,-9,68,-27,-40,109,-110,166,-28,-100,-140
-29,-50,-21,40,-4,-35,96,-130,155,-23,-92,-130
-30,-96,-67,63,19,-81,117,-110,160,-16,-65,-123
25,-24,-49,0,37,-36,14,-177,128,0,-12,-78
152,92,-60,-122,106,16,-135,-584,-263,44,240,106
429,124,-305,-276,367,-90,-339,-1263,-1055,-53,475,263
328,-62,-390,-133,359,-225,-457,-1839,-1649,-573,108,21
-101,-266,-165,184,32,-216,-278,-1411,-1162,-724,-286,-221
-102,-182,-79,142,-11,-130,-160,-573,-326,-307,-210,-166
17,-39,-56,11,36,-47,-13,-221,-7,-124,-131,-150
-35,-9,26,21,-30,9,106,-73,142,-58,-92,-146
-87,-68,19,77,-53,-24,117,-39,172,-18,-70,-129
-55,-60,-5,57,-25,-32,138,-5,163,-19,-74,-124
-62,-39,23,50,-42,-7,124,12,161,-3,-58,-105
-65,-47,18,56,-41,-14,134,37,142,16,-59,-100
-44,-37,7,41,-25,-15,138,71,150,51,-48,-93
-34,-34,0,34,-17,-17,134,74,135,42,-46,-92
-5,-24,-19,15,7,-21,129,107,118,47,-40,-87
28,55,27,-42,1,41,118,105,120,41,-36,-85
69,70,0,-70,34,35,117,103,117,39,-33,-78
67,55,-12,-61,39,21,106,115,114,41,-25,-68
43,34,-9,-38,26,12,113,112,109,34,-20,-61
16,-46,-63,15,40,-54,109,144,123,70,11,-50
33,56,23,-45,5,39,68,146,127,67,44,-37
29,103,75,-66,-23,89,61,115,91,37,52,-23
56,72,15,-64,20,43,45,123,103,42,47,-9
119,72,-47,-95,83,12,32,131,116,47,55,12
173,74,-99,-123,136,-13,-6,126,95,51,82,40
210,138,-71,-174,140,33,-62,95,81,19,82,49
162,130,-33,-146,97,48,-74,65,63,-7,73,37
191,86,-104,-138,147,-9,-87,80,54,-9,71,45
220,103,-118,-161,169,-7,-97,90,48,-34,62,49
162,114,-48,-138,105,33,-86,91,44,-34,60,37
159,90,-69,-124,114,11,-56,89,35,-27,44,24
119,20,-98,-69,108,-39,-14,90,44,-6,32,15
49,25,-24,-37,36,1,32,111,75,29,36,22
74,52,-23,-63,48,15,29,80,68,-9,3,-27
30,8,-22,-19,26,-7,58,67,52,-29,-41,-72
-29,24,53,2,-41,38,85,77,43,-14,-63,-77
-4,-33,-29,18,13,-31,85,58,32,-14,-60,-78
-37,-58,-21,48,-8,-39,103,53,23,-2,-51,-68
-53,0,53,26,-53,26,85,33,17,0,-70,-87
-63,-46,16,54,-39,-15,97,47,12,15,-76,-87
-34,-42,-8,38,-13,-24,108,66,9,25,-65,-79
25,10,-14,-17,19,-2,100,59,3,0,-69,-73
-23,0,23,11,-23,11,88,51,0,-12,-83,-66
-26,-49,-23,38,-1,-36,94,54,23,0,-87,-60
-45,-73,-28,59,-8,-50,129,80,61,19,-79,-50
-50,27,78,11,-64,52,131,81,75,21,-80,-77
-11,33,44,-11,-28,38,129,78,75,17,-75,-88
-42,16,58,13,-50,36,131,77,76,16,-72,-83
-41,9,50,16,-45,29,129,74,74,7,-75,-83
-55,-55,-1,55,-27,-28,129,74,99,30,-42,-78
-44,-5,38,25,-41,16,129,74,113,16,-58,-81
-25,-23,2,24,-13,-10,117,62,101,-14,-87,-73
-55,-21,34,38,-45,6,99,44,94,-3,-68,-69
-70,-8,62,39,-66,27,95,36,82,0,-60,-60
-49,-29,20,39,-35,-5,91,26,93,6,-51,-55
-16,-29,-13,23,-2,-21,88,19,97,12,-39,-46
-75,-54,21,64,-47,-17,83,9,86,16,-40,-44
-79,-31,49,55,-64,9,80,3,81,15,-62,-73
-27,-19,8,23,-18,-5,76,-7,73,15,-67,-79
-32,-28,4,30,-17,-12,73,-12,64,15,-57,-66
-10,-6,4,8,-7,-1,97,-20,73,25,-59,-58
-13,24,37,-6,-25,30,127,0,97,34,-51,-59
-20,4,24,8,-22,14,170,57,126,52,-21,-43
-26,17,43,4,-34,30,205,97,167,82,3,-27
-19,37,57,-9,-38,47,140,74,146,70,-2,-31
18,-19,-37,1,27,-28,40,-38,57,26,-36,-35
7,-72,-79,32,44,-75,-15,-102,20,-4,-54,-38
20,-70,-90,26,55,-80,-9,-90,26,-6,-45,-27
30,-36,-66,3,48,-51,11,-85,24,-4,-49,-37
2,-51,-53,25,28,-52,25,-84,16,-11,-67,-70
-9,-84,-75,47,34,-80,54,-69,25,-9,-69,-73
-54,-84,-30,69,-12,-57,60,-77,8,-8,-71,-67
-47,-70,-23,59,-12,-46,60,-58,0,-13,-84,-62
-56,-31,26,44,-41,-2,49,-64,11,-22,-88,-53
-38,-62,-24,50,-6,-43,73,-67,22,-14,-80,-57
21,-39,-60,9,41,-50,-13,-140,-17,0,13,14
113,78,-35,-96,74,22,-185,-538,-391,45,277,194
456,101,-354,-278,405,-126,-363,-1159,-1133,-28,486,322
304,-89,-393,-107,348,-241,-413,-1689,-1690,-550,116,96
-145,-254,-109,200,-18,-181,-245,-1333,-1259,-735,-289,-168
-122,-157,-35,140,-43,-95,-176,-538,-453,-313,-201,-108
-69,-93,-24,81,-23,-58,-51,-183,-116,-101,-128,-47
-27,-56,-29,42,1,-42,65,-31,29,-15,-91,-36
3,-14,-17,5,10,-16,60,8,68,41,-51,-30
-44,14,58,14,-51,36,66,37,66,22,-52,-36
-41,-17,24,29,-33,4,69,62,80,38,-25,-11
-26,-41,-15,34,-5,-28,110,94,101,73,-22,19
-15,69,84,-27,-50,77,105,110,84,89,-29,28
-16,78,94,-32,-55,86,95,101,47,82,-37,22
-3,37,40,-18,-22,39,89,107,53,87,-41,22
-19,27,45,-4,-32,36,77,112,48,84,-16,18
-11,1,12,5,-11,6,69,133,46,85,10,30
8,-33,-41,13,25,-37,52,138,45,81,17,44
-19,8,27,5,-23,17,41,157,44,79,26,50
38,88,50,-63,-6,69,30,166,40,80,25,50
36,66,30,-51,3,48,24,164,39,80,32,56
3,48,45,-26,-21,46,12,178,52,80,36,81
75,62,-12,-68,43,25,-3,178,49,81,44,84
106,48,-58,-77,82,-5,-24,171,40,86,70,97
120,97,-22,-108,71,37,-60,167,32,80,81,95
141,118,-23,-129,82,47,-105,160,20,75,88,90
151,80,-70,-115,110,5,-116,155,10,67,82,128
197,115,-81,-156,139,17,-120,148,-9,57,80,122
183,115,-68,-149,125,24,-131,139,-27,40,80,125
146,98,-47,-122,96,25,-122,135,-36,29,51,123
156,102,-54,-129,105,24,-110,135,-38,9,24,87
94,82,-12,-88,53,35,-69,135,-48,0,23,78
62,89,27,-76,17,58,-25,135,-56,39,6,67
30,49,18,-40,6,34,5,135,-47,63,-16,58
2,-7,-9,3,6,-8,55,147,-45,85,-9,43
-8,57,65,-25,-37,61,58,148,-61,89,-34,28
-28,41,69,-6,-49,55,38,140,-80,83,-57,3
-27,-18,9,23,-18,-5,74,137,-93,78,-48,-19
-63,8,72,28,-67,40,110,129,-70,63,-38,4
-48,-32,16,40,-32,-8,109,125,-64,76,-48,21
-52,8,61,22,-56,35,75,120,-92,54,-73,-7
-55,53,108,1,-82,80,54,119,-79,39,-64,-34
-53,-16,38,34,-46,11,55,115,-66,56,-47,-31
-93,-23,70,58,-82,23,57,114,-60,67,-54,-24
-48,7,55,20,-52,31,73,133,-52,69,-65,-14
-45,37,83,4,-64,60,60,118,-46,53,-71,-9
-83,-18,64,50,-73,23,56,121,-38,66,-65,11
-66,-44,22,55,-44,-11,19,141,-27,76,-60,33
-74,21,96,26,-85,58,-43,101,-18,49,-53,25
-57,31,87,13,-72,59,-72,90,-8,44,-44,23
-68,14,82,27,-75,47,-90,110,0,72,-43,17
-94,-34,60,64,-77,13,-88,117,0,52,-21,16
-46,-9,37,27,-41,13,-120,111,4,39,-49,32
-45,52,96,-4,-71,74,-142,96,-21,72,-81,36
-51,46,97,2,-74,71,-135,91,-32,55,-63,30
-52,-10,42,31,-47,16,-132,85,-15,46,-55,30
-57,-12,45,34,-51,17,-129,82,-9,52,-41,25
-48,-38,11,43,-29,-14,-123,76,6,58,-14,26
-52,-119,-67,86,8,-93,-122,75,16,80,-5,46
-33,41,74,-4,-53,58,-155,77,9,78,-48,36
-64,80,144,-8,-105,112,-137,71,-3,72,-55,19
-77,-1,76,39,-77,37,-101,86,6,71,-33,6
-53,48,102,2,-78,75,-90,111,29,60,-28,7
-9,50,59,-21,-35,55,-2,155,76,75,-24,45
-36,90,126,-28,-81,108,-39,137,79,83,-27,56
-55,43,98,6,-77,70,-245,40,-34,52,-40,43
-1,-9,-8,5,3,-9,-303,-26,-82,36,-60,39
-18,-15,3,16,-10,-6,-251,-42,-41,24,-46,27
0,-19,-19,9,10,-19,-235,-27,-49,29,-42,24
-107,-21,85,64,-96,32,-214,-23,-75,7,-70,12
-129,-106,23,117,-76,-41,-188,27,-54,8,-67,9
-81,-114,-32,98,-24,-73,-180,48,-49,41,-64,29
-118,-64,54,91,-86,-5,-187,51,-34,29,-62,29
-67,-67,0,67,-33,-33,-161,32,-24,18,-54,29
-34,-67,-32,51,-1,-49,-141,14,-41,22,-60,15
-1,44,45,-22,-24,45,-263,-81,-76,33,22,62
115,86,-30,-100,72,28,-395,-489,-460,90,315,264
415,84,-331,-249,373,-123,-567,-1106,-1228,-16,521,402
259,-59,-318,-100,289,-189,-615,-1619,-1753,-588,125,151
-165,-244,-79,205,-42,-161,-400,-1239,-1284,-774,-285,-117
-145,-129,15,137,-80,-57,-329,-449,-481,-316,-199,-68
-79,-67,12,72,-45,-27,-252,-107,-158,-90,-110,-8
-109,-75,34,92,-71,-20,-163,59,-29,-22,-74,9
-109,-40,70,74,-89,15,-164,107,-1,31,-44,31
-55,-2,53,28,-54,25,-138,130,23,38,-41,50
-33,54,88,-11,-61,71,-143,140,26,42,-24,60
-23,33,56,-5,-40,44,-138,143,22,41,-20,50
-30,-13,18,22,-24,2,-141,179,44,68,-8,62
-47,33,80,7,-63,56,-140,168,27,60,-3,78
-37,60,97,-12,-68,78,-140,172,24,57,6,81
-38,50,88,-6,-63,69,-138,195,12,53,17,80
-55,23,77,16,-66,50,-134,199,3,47,32,79
-42,34,76,4,-59,55,-132,210,8,45,28,95
-9,52,61,-21,-36,56,-130,223,10,37,31,98
-41,23,64,9,-53,43,-151,225,6,56,45,114
-2,68,70,-33,-36,69,-151,241,3,73,56,138
42,56,14,-49,14,35,-170,264,-1,66,91,129
68,73,4,-71,32,38,-198,267,13,64,89,142
100,99,-1,-100,50,49,-207,263,28,60,98,166
114,68,-46,-90,79,11,-215,261,32,55,130,187
149,82,-67,-115,107,8,-243,260,12,51,134,189
210,157,-53,-183,131,52,-277,258,-30,13,126,198
210,140,-70,-175,140,35,-283,250,-35,-14,115,214
195,95,-100,-145,148,-3,-287,244,-37,-34,111,219
190,119,-72,-154,131,23,-279,238,-60,-40,91,227
96,41,-55,-68,75,-7,-261,230,-72,-17,93,225
123,95,-28,-108,75,33,-228,225,-64,-46,68,197
84,142,58,-113,13,100,-190,218,-71,-31,31,158
-14,18,32,-2,-23,25,-157,208,-76,8,44,145
-52,-19,33,35,-42,7,-128,200,-63,3,39,133
-55,54,109,0,-82,81,-116,190,-90,11,28,123
-16,56,72,-20,-45,64,-108,183,-100,8,28,112
-74,6,80,34,-77,43,-100,177,-86,2,12,114
-59,-6,54,32,-56,24,-92,173,-104,-13,-7,123
-34,-13,21,24,-28,4,-86,168,-109,-5,5,128
-48,-13,35,30,-41,10,-79,164,-99,-18,-3,142
-69,-2,67,35,-68,33,-76,160,-98,-53,5,136
-87,-6,81,47,-84,37,-69,154,-88,-45,13,133
-55,8,62,23,-59,35,-63,163,-87,-40,-6,131
-56,34,90,11,-73,62,-59,176,-62,-32,13,122
-64,-53,12,59,-38,-20,-34,186,-20,-27,32,138
-58,8,66,25,-62,37,-54,189,-45,-17,38,156
-72,40,112,15,-92,76,-74,181,-64,-20,15,150
-79,-21,58,50,-68,19,-49,179,-51,-49,22,144
-57,60,118,-2,-88,89,-69,173,-51,-49,36,143
-64,11,75,26,-70,43,-92,169,-44,-44,36,133
-34,-2,32,18,-33,15,-86,166,-41,-41,67,141
-47,37,85,5,-66,61,-84,164,-40,-35,55,131
-57,35,92,11,-74,63,-79,166,-40,-29,55,124
-38,8,46,15,-42,27,-76,164,-40,-3,88,152
-81,-9,72,45,-76,31,-71,166,-42,16,93,123
-39,55,94,-8,-67,74,-65,162,-50,4,94,107
-120,-17,103,68,-111,43,-54,161,-33,-4,88,133
-126,-12,115,69,-120,51,-51,157,-37,-17,86,135
-24,31,55,-4,-40,43,-37,155,-55,-51,82,130
-83,-9,74,46,-79,32,-32,151,-40,-26,78,129
-40,18,58,11,-49,38,-2,148,-24,6,98,124
-5,5,10,0,-8,7,36,176,5,5,106,125
-33,50,83,-9,-58,66,93,217,38,11,104,142
-17,79,97,-31,-58,88,161,255,54,13,109,150
7,53,46,-30,-20,49,-23,156,-25,13,97,158
-32,37,69,-3,-50,53,-171,33,-109,-30,88,166
-43,-7,36,24,-39,15,-118,60,-89,-58,76,158
10,-1,-11,-5,11,-6,-97,94,-75,-38,65,154
-47,0,47,23,-47,24,-70,85,-89,-72,55,152
-62,-14,48,38,-55,17,-45,83,-74,-78,40,142
-92,-49,43,70,-67,-2,-17,68,-67,-70,38,152
-82,-89,-7,86,-38,-48,0,97,-67,-67,31,170
-75,-67,7,71,-41,-30,5,107,-53,-51,40,182
-119,-47,73,82,-96,13,40,66,-87,-62,29,179
-2,-6,-4,4,1,-5,-37,60,-40,-8,54,221
52,75,23,-64,15,49,-179,-297,-353,26,273,381
326,164,-162,-245,243,1,-334,-900,-1126,0,601,569
386,32,-354,-208,370,-161,-427,-1438,-1723,-519,425,458
-60,-219,-159,140,50,-189,-256,-1348,-1516,-973,-140,119
-140,-195,-56,168,-42,-125,-141,-565,-676,-544,-210,82
-69,-102,-33,86,-18,-68,-84,-113,-214,-201,-91,180
-68,-45,22,56,-45,-12,29,82,-41,-101,-66,206
-42,8,49,17,-45,28,53,161,29,-20,-8,225
-80,-33,47,56,-64,7,84,155,39,-38,-11,220
-63,2,65,31,-64,33,99,205,91,-11,18,242
2,58,56,-30,-28,57,100,190,67,-15,39,224
-8,14,22,-4,-15,18,100,196,76,-2,40,224
-39,27,65,6,-52,46,94,190,94,2,40,256
-43,18,61,12,-52,39,97,187,104,7,40,261
-46,-7,38,26,-42,15,91,200,94,14,37,258
-6,52,58,-23,-32,55,85,197,104,23,44,261
-9,71,80,-31,-44,75,76,198,123,33,58,265
1,69,68,-35,-34,69,68,224,119,26,54,263
45,74,30,-60,7,52,61,225,120,25,55,258
16,83,67,-50,-26,75,44,225,126,30,66,268
23,109,86,-66,-32,97,22,249,145,40,77,292
69,97,28,-83,20,62,9,249,145,32,83,295
68,114,46,-92,11,80,-12,253,148,25,101,295
99,121,22,-110,38,71,-40,260,156,15,121,300
108,80,-28,-94,68,26,-49,253,145,12,140,312
159,100,-59,-129,109,20,-75,246,135,-3,147,317
186,131,-55,-158,120,37,-97,239,125,-25,143,304
