I,II,III,aVR,aVL,aVF,V1,V2,V3,V4,V5,V6
-151,-150,1,151,-76,-74,11,15,2966,505,80,120
-155,-148,7,151,-81,-70,17,21,2983,505,80,128
-145,-140,4,142,-74,-68,16,32,3004,501,80,141
-136,-135,1,135,-68,-66,11,26,3004,499,80,139
-134,-127,7,130,-70,-59,8,24,3101,496,80,136
-131,-121,10,126,-70,-56,5,20,3127,494,80,133
-121,-116,6,118,-63,-55,0,15,3106,491,80,130
-110,-109,1,110,-56,-54,3,13,3086,489,80,129
-103,-105,-1,104,-51,-53,5,9,3039,489,81,122
-114,-120,-5,117,-54,-62,5,7,3037,484,77,116
-118,-128,-10,123,-54,-68,5,4,3026,486,98,109
-95,-103,-8,100,-43,-56,5,0,3004,479,95,103
-128,-128,0,128,-64,-64,6,0,3004,444,64,95
-145,-140,5,142,-74,-67,-1,7,2992,429,66,98
-117,-104,13,110,-65,-45,-2,17,2993,420,80,123
-102,-84,18,93,-60,-33,-12,19,2981,431,118,143
-78,-50,28,63,-53,-11,-3,47,3006,463,141,168
-76,-30,46,53,-61,8,-3,89,3058,462,136,182
-52,-22,30,37,-41,3,-36,75,3013,454,129,179
-9,12,21,-2,-15,16,-78,46,2997,451,122,181
11,18,7,-14,2,12,-114,46,2861,426,117,180
25,-26,-51,0,38,-38,-89,32,3014,387,106,180
7,-60,-66,27,37,-63,-54,32,3557,371,131,178
-29,-64,-35,47,3,-49,-34,17,3718,352,121,155
-52,-86,-34,70,-9,-60,12,16,3796,345,86,136
-92,-133,-41,112,-25,-87,40,11,3915,337,69,109
-76,-128,-52,102,-12,-89,23,4,3919,334,67,103
-65,-124,-60,95,-2,-92,45,17,3941,329,48,85
-98,-145,-47,122,-25,-96,35,-18,3919,318,47,64
-128,-221,-92,175,-18,-156,116,103,4083,321,15,11
-162,-370,-209,266,24,-289,266,216,4109,175,-142,-135
25,-338,-363,157,194,-350,159,388,3962,7,-191,-89
254,155,-100,-204,177,28,-229,-139,3454,139,204,447
229,689,460,-460,-116,574,-601,-1260,2432,490,836,1124
-17,410,427,-197,-222,419,-338,-1198,2292,138,459,831
-307,-273,35,290,-171,-119,186,-668,2821,-466,-349,46
-357,-483,-127,420,-115,-305,276,-407,3231,-287,-333,-148
-193,-291,-99,242,-47,-195,163,-137,3781,50,-140,-57
-125,-181,-56,153,-34,-118,88,-19,4124,242,-20,64
-170,-207,-36,189,-67,-121,81,2,4172,257,15,66
-153,-177,-24,165,-64,-100,77,-6,4198,258,2,47
-157,-179,-22,168,-67,-101,69,9,4211,296,41,55
-175,-188,-14,182,-80,-101,67,10,4201,277,47,33
-172,-183,-11,178,-80,-97,59,16,4201,298,53,42
-173,-172,1,172,-87,-85,56,21,4195,291,48,21
-180,-164,16,171,-98,-74,49,19,4193,321,51,32
-163,-136,27,150,-95,-54,46,21,4195,324,49,68
-142,-109,32,125,-87,-38,41,19,4201,313,52,70
-120,-86,34,102,-76,-26,36,21,4202,314,56,64
-120,-68,52,94,-86,-8,33,23,4195,302,54,62
-178,-118,60,148,-119,-29,26,25,4190,301,56,57
-152,-101,51,126,-102,-24,19,25,4185,295,55,56
-110,-64,47,87,-78,-8,12,24,4178,294,54,58
-90,-49,41,69,-65,-3,6,49,4175,303,72,83
-87,-54,34,71,-60,-10,0,68,4160,282,78,98
-107,-85,22,95,-64,-31,-6,63,4125,246,68,91
-88,-78,11,83,-50,-33,-11,70,4091,234,63,91
-79,-79,0,79,-39,-40,-17,74,4059,220,54,86
-67,-74,-8,71,-29,-41,-22,69,4024,203,48,85
-63,-75,-12,69,-25,-43,-29,64,3992,184,41,89
-55,-73,-18,65,-19,-45,-26,60,3953,162,40,91
-42,-65,-24,54,-9,-44,-31,55,3908,147,40,94
-33,-62,-29,47,-1,-45,-40,50,3870,137,35,96
-28,-53,-26,41,-1,-39,-33,46,3848,124,35,100
-37,-52,-15,45,-11,-33,-29,39,3847,116,34,105
-35,-40,-5,38,-15,-23,-23,33,3848,114,26,101
-44,-39,5,41,-24,-17,-17,25,3847,111,19,95
-41,-24,17,32,-29,-3,-13,20,3848,108,12,90
-62,-34,28,47,-44,-3,-6,12,3845,105,3,85
-112,-69,43,90,-77,-12,-1,4,3826,104,-1,78
-138,-87,50,112,-94,-19,5,-21,3804,98,-17,77
-130,-88,42,109,-86,-23,12,-54,3788,90,-36,80
-103,-67,36,85,-69,-15,20,-56,3772,84,-33,80
-128,-99,29,113,-78,-35,28,-55,3759,77,-27,80
-120,-98,23,109,-71,-38,29,-53,3745,71,-23,80
-70,-53,17,61,-43,-18,32,-49,3728,73,-16,81
-97,-86,11,91,-54,-37,39,-51,3712,75,-12,75
-146,-140,6,142,-76,-66,33,-46,3688,75,-5,76
-123,-122,1,122,-62,-60,26,-40,3661,80,2,73
-88,-93,-6,91,-41,-49,18,-35,3640,80,12,72
-89,-98,-9,93,-39,-53,10,-30,3624,81,18,67
-80,-85,-6,83,-37,-45,5,-23,3615,85,27,76
-77,-81,-5,79,-35,-43,-3,-22,3589,85,45,98
-101,-106,-5,104,-47,-55,-9,-26,3543,83,53,67
-90,-95,-5,93,-42,-50,-16,-25,3512,91,54,58
-63,-68,-5,66,-29,-36,-22,-25,3491,101,51,68
-60,-67,-7,64,-26,-37,-29,-20,3479,100,50,81
-42,-52,-10,47,-15,-31,-30,-20,3467,99,50,107
-45,-58,-13,52,-15,-35,-30,-19,3443,101,50,102
-80,-96,-16,89,-32,-56,-30,-15,3420,98,50,99
-80,-99,-20,90,-30,-59,-30,-15,3400,103,48,96
-71,-91,-20,81,-25,-55,-30,-13,3381,115,44,91
-75,-90,-15,83,-30,-53,-29,-9,3366,116,39,89
-67,-82,-15,75,-25,-48,-25,-10,3349,114,51,85
-68,-82,-14,76,-27,-48,-23,-14,3332,111,60,85
-67,-77,-9,72,-29,-43,-20,-19,3302,110,53,85
-75,-85,-10,80,-32,-47,-17,-24,3277,109,49,85
-76,-88,-12,83,-32,-50,-14,-26,3279,120,43,85
-73,-92,-19,83,-27,-56,-15,-34,3273,132,36,88
-65,-91,-26,78,-19,-58,-17,-31,3273,128,41,89
-44,-45,0,45,-22,-22,-21,-15,3266,146,69,100
-20,8,28,5,-24,18,-17,21,3273,195,104,123
22,45,23,-34,-1,34,-11,64,3304,225,137,145
10,29,18,-19,-4,23,-51,44,3280,218,139,152
21,54,33,-38,-6,43,-100,10,3224,207,126,155
53,70,17,-61,18,43,-116,11,3164,184,119,168
41,6,-35,-23,38,-14,-117,-2,3102,152,105,164
45,-31,-76,-7,61,-53,-98,-6,3071,145,98,152
18,-28,-46,5,32,-37,-66,-14,3057,137,80,143
-16,-33,-17,25,1,-25,-21,-22,3032,131,76,111
-61,-93,-33,77,-14,-63,18,-7,3016,122,58,67
-100,-136,-36,118,-32,-86,11,-21,2990,115,57,66
-110,-161,-50,136,-30,-105,19,10,2997,118,43,64
-107,-159,-52,133,-28,-105,10,-21,2967,122,36,77
-91,-171,-80,131,-5,-125,62,53,3008,105,16,30
-151,-305,-154,229,2,-229,211,175,3049,-14,-149,-151
-12,-365,-352,189,170,-358,171,350,2848,-180,-212,-149
291,20,-271,-155,281,-125,-134,136,2348,-192,29,236
355,629,274,-492,40,451,-578,-1072,1163,142,720,992
117,511,394,-314,-139,452,-518,-1446,752,-52,639,1025
-190,-154,36,172,-113,-59,55,-817,1344,-730,-293,164
-234,-397,-163,316,-35,-280,238,-470,1640,-583,-405,-153
-192,-301,-109,247,-42,-205,116,-193,2326,-157,-168,-91
-154,-187,-33,170,-60,-109,67,-42,2767,32,-55,-53
-111,-147,-36,129,-37,-92,64,3,2773,110,-3,-10
-123,-150,-27,136,-48,-88,59,14,2878,101,-21,-25
-111,-134,-22,123,-44,-78,47,14,2842,131,13,-3
-114,-132,-17,123,-48,-74,44,28,2858,139,4,-6
-118,-121,-2,120,-58,-61,35,27,2843,154,23,6
-120,-114,6,117,-63,-54,35,39,2838,153,33,8
-120,-104,16,112,-68,-44,30,39,2838,158,46,13
-118,-96,22,107,-70,-37,29,44,2825,164,45,20
-110,-78,31,94,-70,-23,25,50,2823,164,46,21
-95,-58,37,76,-66,-10,25,52,2810,166,52,29
-98,-53,45,75,-71,-4,55,67,2803,176,48,31
-101,-50,51,75,-76,0,47,81,2793,182,55,36
-101,-46,55,73,-78,4,24,80,2780,175,55,35
-106,-43,63,74,-84,10,23,85,2767,175,55,35
-97,-39,58,68,-78,9,17,85,2759,170,55,35
-84,-34,50,59,-67,8,15,88,2738,170,55,34
-63,-19,44,41,-53,13,-3,113,2743,164,54,39
-19,10,29,4,-24,19,-11,138,2689,155,49,40
4,17,13,-11,-5,15,-13,147,2697,150,46,40
13,13,-1,-13,7,6,-22,146,2599,140,43,45
16,9,-7,-12,12,1,-27,143,2555,135,38,45
21,7,-14,-14,17,-3,-36,140,2578,124,36,44
20,-2,-22,-8,21,-12,-43,137,2479,99,31,40
-4,-33,-29,19,13,-31,-42,135,2487,93,30,40
-6,-41,-34,24,14,-37,-37,132,2375,96,29,40
-5,-29,-24,17,10,-26,-34,120,2486,94,26,41
-9,-26,-17,18,4,-21,-31,108,2232,95,24,39
-16,-12,4,14,-10,-4,-26,98,1482,95,28,43
-10,19,29,-5,-20,23,-24,83,-1335,93,49,64
-16,25,42,-5,-29,33,-17,60,-4357,86,53,52
-46,14,60,15,-53,37,-11,33,-2561,79,43,29
-69,10,79,29,-74,45,-4,14,-336,73,38,31
-96,0,97,48,-97,48,2,-1,-1585,65,29,29
-104,-15,89,59,-96,36,10,-12,-5239,61,22,26
-106,-32,74,69,-90,21,20,-20,-8517,64,20,25
-101,-35,66,68,-83,15,31,-25,-8984,65,20,25
-89,-31,58,60,-74,14,43,-18,-9305,65,20,36
-83,-27,56,55,-70,14,36,-9,-8418,65,20,41
-77,-24,52,50,-64,14,23,-1,-4713,65,20,39
-67,-19,48,43,-58,15,12,8,-579,67,21,40
-62,-17,45,39,-53,14,5,13,2668,72,18,40
-60,-16,45,38,-52,15,5,19,1320,83,31,40
-70,-25,45,47,-58,10,5,24,-2168,86,47,34
-52,-7,45,29,-48,19,5,30,-1748,84,44,28
7,52,45,-30,-19,48,5,34,-4,85,41,20
-15,30,45,-8,-31,37,3,30,991,85,34,15
-47,-1,46,24,-46,22,-8,27,2069,84,30,4
-66,-10,56,38,-60,22,-21,23,2870,79,24,-25
-31,28,60,2,-46,44,-36,20,2854,80,18,-31
-38,27,65,5,-52,46,-42,15,3003,80,17,-23
-77,-2,75,39,-76,36,-36,14,2736,79,19,-18
-14,56,70,-21,-42,63,-31,28,1859,92,34,-12
-74,-9,65,41,-69,28,-26,30,2635,94,42,-7
-70,-10,59,40,-65,24,-19,24,3009,87,39,-5
-19,35,53,-8,-36,44,-16,22,2874,84,40,-4
-38,11,49,13,-44,30,-19,18,2836,79,40,-1
-31,12,42,9,-37,27,-20,13,2516,74,40,2
-58,-20,38,39,-47,9,-20,22,2964,71,45,5
-26,7,33,9,-29,19,-20,35,2685,69,42,8
-4,22,26,-10,-15,24,-20,35,2623,65,32,11
-13,8,21,2,-17,14,-22,35,2803,64,26,7
-21,1,23,10,-22,12,-29,36,2804,57,15,4
-48,-8,40,28,-44,16,-35,37,2797,73,34,-2
-33,36,69,-1,-51,52,-35,51,2773,118,80,25
5,77,71,-41,-33,74,-39,90,2920,145,104,54
40,106,66,-74,-13,86,-39,109,2640,150,107,41
56,124,67,-91,-6,96,-52,99,2955,140,118,57
86,131,46,-109,20,88,-97,98,1917,139,124,67
129,135,6,-132,61,71,-110,95,1456,116,96,64
153,95,-58,-123,106,18,-94,87,1494,71,76,66
134,58,-76,-96,105,-9,-72,91,1189,58,66,64
68,27,-42,-47,55,-7,-43,75,2461,56,60,68
17,-17,-35,0,26,-26,1,84,2605,53,50,12
-2,-28,-26,15,12,-27,27,65,2207,47,41,-28
-33,-50,-18,42,-7,-34,10,73,2505,47,36,-29
-52,-64,-12,58,-20,-38,26,62,2253,39,20,-26
-32,-48,-16,40,-7,-32,40,53,1482,35,12,-26
-78,-135,-57,107,-10,-96,148,167,886,-32,-106,-165
-52,-270,-219,161,84,-244,258,292,489,-177,-216,-251
206,-80,-286,-63,246,-182,37,361,1665,-287,-156,-75
416,475,58,-446,179,266,-439,-558,1467,-50,382,563
356,658,303,-507,26,480,-598,-1439,390,87,754,1002
29,145,116,-87,-44,130,-133,-1014,848,-531,6,378
-241,-313,-71,277,-85,-191,247,-583,1224,-778,-486,-218
-181,-273,-93,227,-44,-183,181,-285,1889,-356,-250,-194
-57,-107,-49,82,-4,-78,74,-25,2396,-79,-98,-117
-54,-67,-13,61,-21,-40,61,26,2515,19,-32,-81
-58,-57,1,57,-30,-27,60,74,2248,26,-36,-80
-27,-16,11,21,-19,-2,49,72,2478,56,5,-65
-2,11,13,-5,-8,12,45,77,2645,70,17,-46
-51,-30,22,40,-36,-4,38,74,2524,68,-21,-54
-105,-63,42,83,-73,-10,34,75,2609,72,-22,-76
-100,-40,60,70,-80,10,31,76,2542,67,-5,-73
-103,-43,60,73,-81,9,27,74,2589,73,2,-67
-85,-25,59,55,-72,17,24,76,2562,67,0,-66
-41,20,61,10,-51,41,19,74,2577,81,6,-60
-18,41,59,-11,-38,50,25,75,2604,91,5,-58
-31,32,63,-1,-47,47,38,76,2594,89,11,-51
-62,3,65,29,-63,33,31,73,2602,91,17,-47
-78,4,82,37,-80,43,18,88,2598,90,21,-40
-38,38,77,0,-58,57,8,99,2614,91,27,-36
9,51,42,-30,-17,46,-6,103,2606,85,33,-28
1,35,34,-18,-17,34,-19,121,2598,75,33,-44
2,30,28,-16,-13,29,-35,131,2590,66,26,-63
58,78,20,-68,19,48,-28,145,2580,55,19,-58
83,96,13,-90,35,54,-35,145,2535,45,13,-61
55,61,5,-58,25,33,-58,140,2496,35,5,-58
56,55,0,-56,28,27,-53,139,2494,25,1,-62
63,55,-8,-59,35,23,-51,134,2484,14,-17,-44
66,52,-14,-59,40,19,-48,134,2480,0,-32,-10
72,50,-22,-61,47,14,-45,127,2471,-12,-22,-2
72,49,-23,-60,47,13,-43,122,2470,-25,-14,-1
72,60,-13,-66,42,23,-39,118,2476,-26,-3,6
58,60,2,-59,28,31,-36,111,2499,-15,-5,-3
61,83,22,-73,19,53,-32,107,2567,-8,-15,-18
61,98,37,-80,12,68,-30,94,2623,2,-2,16
59,91,32,-75,13,61,-11,66,2648,13,13,20
21,76,54,-49,-17,65,15,42,2665,-8,-4,-27
-60,22,82,19,-71,52,14,23,2667,-48,-36,-35
-53,21,74,16,-64,47,16,5,2671,-55,-47,-42
-30,37,67,-4,-49,52,36,-7,2689,-63,-43,-52
-26,35,61,-5,-44,48,36,-6,2693,-86,-47,-52
-23,31,54,-4,-38,42,27,-2,2710,-94,-58,-63
-17,32,49,-8,-33,41,21,0,2747,-90,-56,-70
17,61,44,-40,-13,52,12,4,2778,-82,-46,-65
6,47,41,-26,-18,44,6,5,2790,-76,-42,-60
-1,36,38,-18,-20,36,-2,2,2800,-69,-34,-56
-49,-15,33,32,-41,9,-9,-1,2815,-64,-29,-51
-82,-52,30,67,-56,-11,-16,-4,2841,-58,-24,-48
-21,5,26,7,-24,16,-24,-7,2881,-50,-18,-44
-3,21,25,-9,-14,23,-32,-10,2889,-45,-16,-40
-3,22,25,-10,-14,23,-32,-9,2893,-36,-9,-37
-4,16,20,-6,-12,18,-30,-4,2895,-33,-7,-32
14,34,20,-24,-3,27,-29,-1,2913,-23,3,-30
19,38,19,-29,0,28,-32,2,2927,-22,20,-25
-17,-2,15,9,-16,6,-45,7,2896,-45,20,-20
-34,-19,15,26,-25,-1,-43,10,2883,-42,35,-17
-34,-19,14,26,-24,-2,-38,10,2874,-35,42,-8
-27,-11,16,19,-21,2,-36,10,2863,-33,39,-26
-14,0,14,6,-14,7,-30,10,2852,-27,37,-38
6,23,17,-15,-6,20,-31,10,2836,-24,34,-24
-24,-12,13,18,-18,1,-37,10,2824,-20,35,-14
-27,-8,19,17,-23,5,-44,11,2807,-17,30,-10
-3,34,37,-16,-20,35,-45,15,2791,-15,31,-8
-14,20,34,-4,-24,27,-46,16,2779,-10,29,-15
7,29,21,-18,-7,25,-49,14,2778,-11,25,-22
37,39,2,-38,17,21,-51,18,2780,-2,24,-9
35,63,28,-49,3,45,-49,11,2777,17,31,7
30,85,54,-58,-12,69,-43,34,2786,48,76,39
55,100,45,-78,5,72,-35,67,2793,91,124,67
79,122,43,-100,18,82,-46,45,2764,85,127,63
89,128,38,-109,25,83,-103,26,2703,61,119,67
117,147,30,-132,43,88,-132,27,2623,44,114,79
159,157,-2,-158,80,77,-111,16,2551,22,97,72
189,148,-41,-168,115,53,-95,15,2524,10,80,65
105,102,-3,-104,54,49,-60,7,2504,-10,56,49
22,35,13,-29,5,24,-35,1,2473,-15,52,34
10,-22,-32,6,21,-27,-21,2,2450,-37,23,-11
-6,-39,-32,23,13,-35,-16,-15,2418,-42,15,-29
-8,-42,-34,25,13,-37,-5,2,2436,-33,9,-52
7,-10,-17,2,12,-13,17,-4,2404,-23,30,-40
8,-40,-49,16,29,-44,69,85,2450,-25,5,-57
-89,-235,-145,162,28,-190,197,166,2453,-167,-200,-262
52,-278,-330,114,191,-304,171,359,2297,-338,-261,-239
350,154,-195,-252,273,-20,-137,111,1898,-312,23,189
366,781,415,-573,-25,598,-573,-1055,822,82,738,945
128,663,535,-395,-204,598,-506,-1338,335,-91,647,964
-162,-22,140,91,-151,59,55,-759,839,-803,-279,93
-239,-353,-114,296,-62,-233,254,-440,1273,-735,-423,-245
-159,-268,-108,214,-25,-188,145,-197,1749,-350,-225,-196
-87,-111,-24,99,-31,-67,54,-64,2134,-145,-96,-133
-77,-97,-20,87,-28,-59,30,-4,2208,-49,-11,-90
-82,-94,-12,88,-35,-53,37,6,2201,-40,-40,-101
-70,-75,-5,73,-32,-40,26,20,2194,-38,-34,-81
-69,-70,0,69,-34,-35,29,28,2188,-50,-22,-89
-56,-48,8,52,-31,-20,23,22,2181,-23,8,-75
-47,-36,11,41,-29,-12,22,27,2171,-22,6,-77
-19,-1,19,10,-19,9,16,23,2151,-14,18,-79
7,29,21,-18,-7,25,11,26,2132,-10,17,-80
-43,-13,30,28,-36,9,8,25,2119,-7,2,-84
-48,-17,31,32,-40,7,2,39,2102,0,8,-86
-30,20,49,5,-40,34,0,39,2099,2,13,-79
-31,34,65,-2,-48,49,18,54,2084,8,29,-39
14,68,54,-41,-20,61,15,77,2081,12,46,-19
24,71,47,-48,-12,59,-14,73,2048,15,42,-44
29,68,39,-49,-5,54,-19,77,2025,9,38,-51
40,71,31,-56,5,50,-35,73,1992,-3,35,-30
52,69,17,-61,18,43,-53,85,1964,-7,30,-13
67,70,3,-68,32,36,-53,117,1948,-25,28,-18
76,65,-11,-70,43,27,-56,119,1827,-47,23,-37
93,63,-30,-78,61,17,-55,110,1780,-54,20,-41
100,59,-40,-79,70,9,-55,105,1790,-54,17,-39
114,57,-57,-85,85,0,-56,97,1788,-66,12,-41
113,54,-59,-83,86,-2,-54,92,1621,-97,10,-39
98,53,-45,-75,71,4,-60,97,1727,-103,5,-42
82,47,-35,-64,59,6,-64,92,1538,-108,0,-45
74,49,-25,-61,49,12,-55,77,1479,-115,-3,-44
57,42,-15,-49,35,13,-50,68,1185,-107,-9,-48
67,68,2,-67,32,35,-42,57,727,-101,-8,-50
88,109,21,-99,33,65,-37,48,315,-95,-3,-51
55,98,43,-77,6,70,-28,40,-1801,-85,0,-45
42,85,43,-64,-1,64,-7,30,-2284,-92,-12,-49
20,71,51,-46,-16,61,0,22,-1378,-118,-33,-69
-19,53,72,-17,-46,62,2,20,206,-121,-35,-70
-12,44,56,-16,-34,50,5,20,1691,-115,-28,-70
-1,39,40,-20,-20,39,2,16,1372,-115,-25,-70
-1,32,33,-16,-17,32,-2,15,1476,-110,-20,-70
-2,26,27,-12,-14,26,-4,15,1420,-110,-16,-70
-41,-19,23,30,-32,2,-10,15,1352,-120,-11,-65
-37,-21,16,28,-26,-2,-8,15,1374,-109,-6,-65
36,48,11,-42,12,29,2,15,1307,-90,-3,-64
35,41,6,-38,14,23,-22,15,1354,-85,3,-60
26,29,3,-28,12,16,-38,14,1294,-80,6,-60
22,21,-1,-21,11,10,-33,18,1315,-74,12,-57
17,14,-4,-15,10,5,-36,20,1279,-69,19,-54
47,37,-10,-42,28,13,-34,21,1269,-63,26,-55
25,16,-9,-21,16,4,-35,19,1241,-60,33,-55
25,20,-5,-22,15,7,-35,23,1220,-57,38,-55
28,23,-5,-25,16,9,-35,39,1204,-55,41,-55
34,29,-5,-31,19,12,-35,41,1181,-51,37,-50
56,51,-5,-53,30,22,-35,39,1161,-49,42,-50
23,19,-4,-20,13,7,-35,36,1129,-54,52,-49
30,8,-22,-19,26,-7,-35,35,1103,-55,47,-45
37,6,-30,-21,33,-12,-31,34,1082,-55,45,-45
29,10,-19,-19,24,-5,-30,30,1062,-55,42,-42
39,24,-15,-31,27,5,-30,30,1043,-55,39,-39
26,19,-7,-22,17,6,-30,31,1020,-54,44,-40
22,20,-1,-21,11,9,-30,29,1004,-47,47,-36
17,21,4,-19,7,12,-32,35,993,-41,52,-34
10,18,8,-15,1,13,-35,46,980,-34,56,-35
21,31,10,-26,5,20,-35,41,965,-27,54,-30
53,68,15,-61,19,41,-35,39,948,-20,61,-28
31,49,18,-40,7,33,-35,30,946,-10,57,-24
21,45,23,-33,-1,34,-35,37,943,2,66,-21
81,121,40,-101,20,80,-32,66,949,30,99,-14
60,118,58,-90,1,88,-23,95,974,67,121,16
55,115,60,-85,-3,88,-24,116,979,69,129,30
97,148,51,-122,23,99,-77,101,929,55,121,42
107,118,10,-113,48,64,-120,97,836,43,115,49
149,99,-50,-124,99,24,-97,84,764,25,106,37
154,89,-65,-121,109,11,-85,77,733,12,103,26
102,66,-36,-84,69,15,-70,71,718,0,90,0
75,45,-30,-60,52,7,-31,57,702,-2,76,-20
55,26,-29,-40,41,-1,-5,60,696,-13,53,-50
45,22,-22,-33,33,0,-7,35,666,-16,50,-47
16,-10,-26,-3,21,-18,5,64,656,-24,32,-60
-23,-35,-12,29,-6,-23,9,30,627,-30,23,-60
-20,-58,-38,39,9,-48,67,95,675,-31,1,-87
-72,-175,-103,124,16,-139,237,206,690,-138,-141,-251
46,-256,-302,105,175,-279,191,376,453,-312,-204,-253
351,102,-249,-226,300,-73,-157,175,-131,-339,7,88
478,666,188,-572,144,427,-600,-1057,-1227,-33,652,806
297,530,232,-414,32,381,-518,-1443,-1580,-248,550,835
-80,-103,-24,92,-28,-63,54,-831,-1002,-886,-334,2
-226,-340,-114,284,-56,-226,203,-497,-475,-702,-405,-286
-124,-172,-48,149,-38,-110,100,-142,136,-257,-153,-213
-54,-36,17,45,-35,-9,66,6,451,-102,-62,-178
-25,-12,13,18,-19,1,49,31,464,-55,-19,-134
-27,-5,22,16,-25,8,59,67,495,-50,-26,-137
-42,-15,27,28,-34,6,54,57,484,-25,3,-117
-44,-12,32,28,-38,9,62,76,493,-20,0,-116
-45,-6,39,25,-41,16,59,73,488,0,18,-104
-53,-6,46,29,-49,20,62,75,490,11,23,-102
-51,1,52,25,-52,27,67,82,490,22,37,-97
-54,1,55,26,-55,28,77,90,482,22,41,-92
-51,8,60,21,-56,34,78,95,476,19,39,-88
-42,18,61,12,-52,39,70,106,466,21,41,-85
-25,33,58,-4,-42,46,67,111,460,19,39,-91
7,71,65,-39,-29,68,59,125,451,21,56,-89
14,88,74,-51,-31,81,56,140,443,18,56,-90
15,85,69,-50,-27,77,48,137,432,13,47,-90
20,82,62,-51,-21,72,38,149,423,7,41,-90
35,94,58,-65,-12,76,28,157,409,4,32,-87
14,63,49,-39,-17,56,18,165,393,-2,25,-84
21,48,27,-34,-3,37,14,197,371,-4,34,-85
65,78,13,-72,26,45,12,207,322,-13,41,-85
44,46,1,-45,21,23,9,204,286,-20,33,-85
64,59,-5,-61,34,27,6,203,256,-30,30,-84
110,84,-26,-97,68,29,4,199,204,-42,25,-78
70,19,-51,-44,60,-16,1,201,158,-57,20,-71
77,32,-45,-54,60,-6,-3,196,128,-82,17,-64
93,53,-40,-73,66,7,-7,189,118,-91,13,-57
42,8,-35,-25,38,-13,-10,183,113,-107,-2,-51
92,64,-28,-78,60,18,-15,175,104,-88,-7,-53
99,76,-24,-87,61,26,-12,170,98,-65,6,-56
47,35,-12,-41,29,11,2,162,91,-95,12,-54
28,35,8,-32,10,21,12,135,79,-106,3,-57
-7,29,36,-11,-22,32,23,102,64,-105,-9,-61
4,54,50,-29,-24,52,31,78,52,-107,-23,-70
1,49,48,-25,-24,48,54,69,43,-111,-30,-78
-24,31,56,-4,-40,43,65,71,18,-109,-29,-89
-35,26,61,4,-49,44,55,67,-12,-112,-40,-105
-25,24,49,0,-38,36,50,65,-21,-120,-40,-105
-17,21,38,-2,-28,29,42,65,-27,-114,-35,-105
-32,-5,27,18,-29,11,36,61,-35,-109,-34,-105
-2,12,15,-5,-9,13,32,59,-42,-103,-30,-105
33,37,4,-35,14,20,27,60,-49,-97,-29,-103
30,22,-8,-26,19,7,24,59,-50,-93,-23,-95
30,15,-15,-23,22,0,20,61,-53,-89,-17,-92
33,13,-20,-23,26,-4,16,58,-62,-90,-11,-85
33,9,-24,-21,29,-7,14,66,-58,-90,-6,-81
34,6,-29,-20,31,-11,9,81,-73,-90,-2,-74
43,9,-34,-26,38,-12,4,80,-97,-90,4,-71
71,38,-33,-54,52,2,0,80,-94,-84,7,-67
68,40,-28,-54,48,6,-5,80,-93,-77,13,-65
62,37,-25,-49,43,6,0,80,-89,-71,14,-61
48,26,-22,-37,35,2,7,78,-94,-64,6,-60
-17,-34,-17,26,0,-25,15,74,-123,-58,-6,-93
-18,-34,-15,27,-1,-24,19,76,-132,-52,-6,-78
17,9,-8,-13,12,1,15,71,-129,-50,1,-55
28,17,-11,-22,19,3,15,70,-131,-49,6,-63
36,0,-36,-18,36,-18,12,70,-129,-51,23,-55
32,-11,-42,-11,37,-26,9,65,-131,-49,27,-75
7,-28,-35,11,21,-31,10,60,-122,-51,25,-84
47,11,-35,-29,41,-12,7,54,-116,-55,24,-71
93,65,-28,-79,60,18,4,53,-106,-63,22,-66
-19,-46,-28,33,5,-37,6,44,-98,-77,17,-57
-26,-44,-18,35,-4,-31,4,56,-88,-40,25,-50
73,78,5,-76,34,41,6,83,-31,16,55,-40
78,86,7,-82,35,46,2,98,-15,29,67,-29
61,81,20,-72,20,50,-17,112,7,23,47,-21
78,94,16,-86,31,54,-43,99,46,15,56,-2
121,121,0,-121,60,60,-83,84,3,8,92,13
151,128,-23,-139,87,52,-89,78,-44,0,62,27
193,104,-89,-148,141,8,-76,65,-63,-5,55,38
169,68,-102,-118,135,-17,-55,67,-45,-15,47,4
96,37,-59,-66,77,-11,-16,48,-60,-24,8,-14
59,1,-57,-29,58,-28,1,54,-92,-44,-21,-63
10,-41,-52,16,31,-46,9,35,-65,-70,-50,-106
19,-61,-79,21,49,-70,20,43,45,-56,-28,-84
29,-52,-81,12,55,-66,34,36,97,-61,-34,-88
27,-33,-61,3,44,-47,39,31,118,-47,-1,-57
-5,-148,-143,77,69,-145,158,167,276,-71,-92,-174
-33,-305,-272,169,120,-288,273,279,218,-226,-255,-310
219,-167,-385,-26,302,-276,117,416,70,-357,-221,-154
410,429,20,-419,195,225,-318,-366,-597,-145,278,459
306,811,504,-559,-99,657,-600,-1344,-1555,139,828,1041
33,343,310,-188,-139,326,-218,-1034,-1440,-405,178,501
-232,-258,-26,245,-102,-142,243,-569,-901,-858,-514,-259
-200,-370,-170,285,-15,-270,241,-306,-456,-519,-342,-298
-66,-212,-146,139,40,-179,123,-73,57,-235,-175,-186
-16,-104,-88,60,36,-96,85,17,306,-101,-64,-125
-16,-89,-73,53,28,-80,76,57,361,-62,-53,-118
-13,-65,-52,39,20,-58,63,45,377,-43,-55,-110
-6,-56,-51,31,23,-53,60,54,374,-22,-42,-101
-4,-46,-42,26,19,-44,56,45,364,-23,-49,-98
10,-30,-40,10,25,-35,51,45,355,-3,-35,-87
-26,-61,-35,44,4,-47,47,46,346,-2,-40,-86
-29,-59,-30,44,1,-45,42,48,344,8,-31,-85
4,-23,-26,10,15,-25,40,51,345,10,-33,-96
1,-18,-19,8,10,-18,40,53,345,17,-28,-93
3,-10,-13,3,8,-11,40,56,344,23,-25,-89
13,8,-5,-10,9,1,40,57,352,23,-24,-86
24,24,1,-24,11,12,40,55,351,16,-19,-81
11,25,14,-18,-2,19,31,55,340,9,-20,-79
13,28,15,-21,-1,21,19,54,322,3,-15,-75
28,29,1,-29,14,15,8,60,288,-5,-14,-73
41,31,-10,-36,26,10,-3,87,260,-10,-28,-70
42,19,-23,-30,32,-2,-11,96,233,-15,-37,-66
60,26,-34,-43,47,-4,-17,99,202,-14,-37,-64
102,46,-56,-74,79,-5,-25,100,167,-15,-42,-62
95,22,-73,-58,84,-25,-33,94,129,-43,-43,-57
72,-1,-73,-36,72,-37,-39,92,92,-73,-46,-54
63,-5,-68,-29,65,-36,-45,87,50,-65,-44,-51
67,5,-62,-35,65,-29,-45,84,17,-81,-47,-46
72,16,-56,-44,64,-20,-45,80,0,-123,-64,-46
87,36,-52,-61,69,-8,-45,74,-35,-126,-62,-50
106,61,-45,-83,75,8,-45,71,-52,-124,-56,-50
89,53,-36,-71,62,8,-42,66,-33,-126,-53,-50
80,53,-28,-66,54,12,-28,62,-28,-124,-47,-50
90,71,-18,-80,53,26,-18,56,-12,-126,-45,-50
47,32,-15,-39,31,9,-9,42,-21,-125,-38,-49
27,14,-13,-20,19,1,-3,28,-50,-125,-53,-58
30,20,-10,-25,19,5,5,20,-72,-126,-68,-67
11,5,-7,-8,9,-1,10,21,-110,-123,-67,-64
43,39,-4,-41,23,17,18,18,-120,-128,-76,-65
48,38,-10,-43,29,14,24,15,-170,-146,-72,-77
32,12,-20,-22,26,-4,29,14,-163,-143,-64,-58
65,35,-30,-50,47,2,46,17,-183,-116,-38,-34
15,-21,-36,4,25,-28,3,25,-186,-130,-50,-50
-41,-75,-34,59,-3,-55,-40,20,-265,-144,-90,-66
32,-4,-35,-14,34,-19,-27,14,-209,-118,-73,-64
107,72,-34,-89,70,19,-23,10,-495,-111,-60,-60
33,-3,-35,-14,34,-19,-16,3,-1965,-107,-52,-58
10,-28,-38,9,24,-32,-8,2,-1687,-100,-42,-54
73,32,-41,-53,57,-4,-7,4,-291,-96,-36,-58
11,-33,-44,12,27,-38,-17,8,-638,-89,-27,-60
46,-1,-47,-22,46,-24,-31,10,-675,-85,-21,-60
78,16,-62,-47,70,-23,-32,14,-289,-85,-20,-64
30,-36,-66,4,48,-51,-26,15,-419,-84,-20,-65
38,-27,-65,-5,51,-45,-21,12,-330,-80,-16,-65
44,-26,-70,-9,57,-48,-18,9,-444,-80,-14,-65
72,2,-70,-37,71,-34,-12,11,-356,-78,-16,-65
64,-4,-68,-30,66,-36,-9,8,-419,-75,-20,-65
63,-3,-66,-30,64,-34,-2,13,-445,-72,-20,-65
62,0,-62,-31,62,-30,-3,27,-361,-69,-20,-65
19,-41,-60,11,40,-50,-11,31,-2144,-65,-16,-63
36,-19,-56,-8,46,-37,-17,29,-1883,-65,-10,-56
67,11,-56,-38,61,-22,-24,28,-310,-54,-2,-52
40,-5,-45,-18,42,-24,-31,25,-583,-40,4,-46
43,22,-21,-32,32,0,-35,24,-415,-22,13,-40
91,75,-16,-82,53,29,-35,62,-423,29,54,-35
97,84,-13,-90,55,35,-34,85,-428,45,72,-26
102,83,-19,-92,60,32,-52,62,-389,35,58,-13
136,127,-9,-131,72,59,-97,48,-507,22,56,-2
176,139,-37,-157,106,51,-117,44,-527,-25,44,1
205,108,-97,-156,151,5,-97,29,-644,-48,40,7
172,69,-103,-121,137,-17,-70,27,-619,-51,32,-8
142,45,-96,-94,119,-25,-36,15,-642,-57,14,-25
123,24,-98,-73,110,-37,13,24,-642,-62,8,-61
72,-21,-93,-25,83,-56,32,18,-668,-90,-18,-90
68,-26,-94,-21,82,-60,23,18,-691,-81,-21,-74
11,-80,-90,35,51,-85,23,27,-684,-88,-52,-117
7,-67,-73,30,40,-70,9,8,-714,-83,-33,-111
30,-95,-125,32,78,-110,108,131,-610,-98,-95,-189
-19,-288,-269,154,125,-278,247,242,-655,-249,-273,-331
193,-245,-438,26,316,-341,125,438,-882,-414,-282,-244
414,259,-155,-336,284,52,-286,-172,-1617,-319,132,269
404,764,361,-584,21,562,-621,-1366,-2741,-15,769,982
171,425,254,-298,-42,339,-316,-1233,-2730,-455,291,640
-162,-256,-93,209,-35,-174,173,-652,-2107,-984,-530,-194
-192,-371,-179,282,-6,-275,207,-381,-1622,-635,-406,-312
-56,-200,-144,128,44,-172,115,-104,-1036,-261,-186,-235
2,-104,-106,51,54,-105,73,-14,-822,-117,-99,-193
0,-86,-87,43,44,-86,55,30,-829,-88,-74,-179
-41,-116,-76,79,18,-96,53,34,-816,-82,-75,-175
-46,-116,-70,81,12,-93,42,39,-817,-59,-60,-165
-27,-87,-60,57,17,-74,39,51,-805,-61,-64,-174
-31,-85,-54,58,12,-70,30,48,-807,-41,-50,-166
-29,-78,-49,54,10,-63,27,54,-803,-38,-51,-173
-20,-63,-43,42,12,-53,24,54,-806,-27,-44,-167
1,-39,-40,19,21,-39,24,56,-804,-24,-43,-166
1,-33,-35,17,18,-34,18,61,-805,-20,-40,-162
-6,-37,-31,21,13,-33,23,64,-805,-14,-36,-159
-2,-28,-26,15,12,-26,47,70,-800,-11,-35,-157
9,-16,-25,4,18,-21,48,89,-800,-9,-38,-154
23,-1,-24,-11,24,-12,40,97,-798,-10,-41,-152
28,8,-21,-18,24,-6,37,94,-826,-10,-40,-147
41,21,-20,-31,30,1,29,95,-843,-10,-40,-145
40,19,-21,-30,30,-1,26,110,-850,-10,-40,-141
70,33,-37,-51,53,-2,16,140,-860,-10,-39,-136
105,55,-50,-79,77,2,4,158,-880,-19,-40,-133
109,52,-58,-80,83,-3,-7,161,-922,-26,-39,-130
111,49,-63,-80,87,-7,-20,160,-958,-35,-41,-130
111,39,-72,-75,91,-16,-25,159,-997,-42,-39,-127
133,49,-83,-91,108,-16,-25,152,-1031,-47,-38,-124
94,4,-90,-48,92,-43,-25,146,-1084,-77,-57,-125
101,8,-93,-54,97,-42,-25,139,-1118,-93,-58,-121
138,48,-90,-93,113,-20,-25,132,-1119,-87,-50,-119
65,-12,-76,-26,71,-44,-20,127,-1137,-86,-49,-120
71,29,-42,-49,56,-6,-12,119,-1145,-82,-41,-120
98,72,-26,-85,62,23,-4,104,-1145,-80,-41,-120
53,49,-4,-51,28,22,3,71,-1143,-77,-45,-121
22,52,31,-37,-5,41,13,38,-1149,-75,-44,-125
-7,33,40,-13,-24,36,17,17,-1180,-73,-46,-126
17,54,37,-35,-11,45,37,2,-1194,-71,-43,-123
40,71,31,-56,4,51,59,-9,-1213,-68,-56,-135
11,37,26,-24,-8,31,48,-21,-1266,-84,-73,-151
-3,16,20,-7,-12,18,40,-18,-1297,-99,-63,-150
-26,-11,15,18,-21,2,30,-12,-1317,-105,-76,-150
-25,-15,9,20,-17,-3,22,-8,-1337,-114,-91,-150
-9,-5,4,6,-6,-1,18,0,-1354,-105,-83,-150
8,7,-1,-7,4,2,12,2,-1360,-96,-79,-152
41,33,-7,-37,24,13,9,14,-1357,-90,-73,-156
-4,-17,-13,11,4,-15,4,27,-1384,-82,-67,-153
-22,-35,-13,29,-4,-24,-1,25,-1411,-77,-63,-159
15,7,-8,-11,12,0,-4,25,-1427,-71,-58,-175
21,16,-5,-18,13,5,-7,23,-1440,-66,-55,-175
35,33,-2,-34,18,15,-9,19,-1456,-59,-51,-176
43,46,3,-45,20,24,-13,20,-1469,-56,-47,-180
31,36,5,-34,13,21,-15,23,-1471,-60,-44,-180
20,18,-2,-19,11,8,-13,25,-1492,-60,-40,-178
19,9,-10,-14,14,-1,-8,25,-1507,-61,-40,-171
20,2,-18,-11,19,-8,-5,30,-1506,-66,-39,-166
32,-4,-36,-14,34,-19,-2,30,-1522,-64,-35,-161
30,-11,-41,-9,36,-26,3,30,-1538,-68,-35,-154
27,-12,-39,-7,33,-25,6,30,-1547,-70,-33,-151
43,3,-41,-23,42,-19,10,29,-1563,-70,-29,-154
32,-7,-39,-12,36,-23,10,31,-1575,-74,-30,-155
22,-19,-41,-2,32,-29,11,28,-1583,-75,-30,-155
29,-10,-39,-9,34,-25,15,35,-1601,-74,-30,-155
38,-3,-40,-18,39,-21,14,46,-1622,-70,-29,-155
46,6,-40,-26,42,-16,17,45,-1623,-64,-26,-152
55,16,-40,-36,47,-12,20,45,-1628,-61,-23,-146
58,17,-41,-37,49,-12,20,45,-1648,-56,-21,-139
36,-2,-38,-17,37,-20,21,46,-1646,-52,-17,-133
28,-24,-52,-2,41,-38,15,41,-1654,-46,-16,-126
22,-8,-31,-7,26,-19,10,46,-1654,-33,-8,-120
41,51,10,-46,15,31,4,81,-1609,-2,31,-114
75,86,11,-81,32,48,-2,121,-1568,42,64,-104
123,122,-1,-122,62,60,-8,125,-1546,53,55,-94
146,142,-4,-144,75,69,-54,103,-1577,32,44,-44
140,114,-25,-127,82,44,-98,98,-1650,7,33,-32
174,97,-77,-135,125,9,-95,88,-1710,-38,17,-78
164,39,-125,-101,144,-43,-65,86,-1730,-75,4,-91
150,41,-109,-95,129,-33,-26,80,-1726,-82,-16,-95
68,-9,-77,-29,73,-43,-4,71,-1734,-78,-16,-101
-29,-104,-75,67,23,-90,27,75,-1722,-82,-35,-150
0,-73,-73,37,37,-73,41,55,-1737,-79,-31,-162
-9,-89,-80,49,36,-84,32,79,-1719,-80,-51,-172
8,-58,-66,25,37,-62,23,45,-1729,-76,-63,-169
-8,-100,-92,55,42,-96,90,114,-1681,-75,-85,-188
-67,-227,-160,147,46,-193,261,227,-1633,-167,-223,-345
116,-234,-349,59,233,-291,238,400,-1805,-327,-281,-342
359,91,-268,-224,313,-89,-138,114,-2270,-315,-36,32
420,615,195,-518,112,405,-571,-1085,-3297,8,608,743
236,481,245,-359,-4,363,-427,-1348,-3671,-236,447,708
-100,-103,-2,102,-49,-52,122,-756,-3118,-863,-420,-107
-226,-371,-145,299,-40,-258,266,-464,-2640,-720,-494,-387
-113,-250,-137,182,12,-193,141,-139,-2060,-311,-244,-287
-38,-102,-64,70,13,-83,92,25,-1716,-116,-122,-196
-47,-101,-55,74,4,-77,77,63,-1656,-62,-74,-183
-28,-65,-37,47,4,-50,67,87,-1603,-47,-81,-197
-1,-30,-29,16,14,-30,60,84,-1586,-13,-69,-179
6,-18,-24,7,15,-21,58,93,-1542,-21,-79,-190
-29,-47,-18,39,-5,-32,52,88,-1549,-29,-72,-180
-69,-83,-13,76,-28,-48,48,91,-1514,-34,-76,-180
-71,-78,-7,75,-32,-42,43,90,-1517,-22,-69,-170
-78,-81,-3,80,-38,-42,40,89,-1450,-18,-64,-164
-84,-80,4,82,-44,-38,40,91,-1434,-10,-59,-158
-85,-76,9,80,-46,-33,37,89,-1500,-5,-53,-149
-57,-43,14,50,-35,-14,35,91,-1390,6,-45,-155
-23,-2,21,12,-22,9,34,105,-1285,21,-61,-152
-25,-1,24,12,-25,11,40,108,-1304,31,-66,-134
14,34,20,-24,-3,27,41,118,-1379,54,-21,-121
2,17,15,-10,-7,16,30,128,-1263,52,-30,-136
-56,-45,12,50,-34,-16,20,125,-1331,45,-58,-151
-31,-27,4,29,-17,-11,10,125,-1610,42,-52,-145
10,-15,-25,3,18,-20,0,138,-1852,34,-64,-140
54,18,-36,-36,45,-9,-11,139,-1836,32,-76,-136
63,30,-33,-46,48,-1,-24,137,-1269,10,-75,-132
87,35,-53,-61,70,-9,-32,154,-1274,-15,-74,-126
121,60,-61,-91,91,0,-31,150,-1755,-34,-70,-133
111,47,-64,-79,87,-8,-28,142,-1984,-51,-70,-141
97,34,-64,-65,80,-15,-44,137,-1889,-49,-70,-133
68,1,-67,-34,68,-33,-47,129,-1056,-51,-70,-130
63,9,-54,-36,59,-22,-34,124,-2125,-49,-70,-125
69,41,-28,-55,48,6,-26,113,-2732,-50,-70,-120
52,29,-23,-40,37,3,-12,101,-1347,-49,-70,-124
46,30,-15,-38,30,7,1,90,-1640,-42,-71,-125
31,22,-9,-26,19,6,15,77,-1414,-38,-83,-125
1,18,18,-10,-9,18,14,59,-1127,-28,-86,-125
-27,18,45,4,-37,31,14,37,-1337,-57,-85,-125
-34,9,43,12,-39,26,30,21,-1174,-80,-85,-124
1,38,37,-20,-18,37,47,15,-1291,-84,-103,-121
-42,-8,34,25,-38,13,54,9,-1220,-91,-128,-149
-2,26,28,-12,-15,27,45,4,-1236,-77,-133,-149
8,33,25,-21,-8,29,37,-1,-1294,-98,-134,-153
-72,-33,38,53,-55,2,30,-9,-1360,-118,-123,-173
-40,-35,4,38,-22,-15,22,-16,-1305,-108,-102,-135
-32,-68,-36,50,3,-52,16,-23,-1273,-106,-86,-104
0,-10,-10,5,5,-10,9,-22,-1245,-101,-82,-94
-30,-23,6,26,-18,-8,3,-14,-1222,-97,-101,-119
-17,-15,2,15,-9,-6,-5,-8,-1247,-91,-97,-129
-11,-13,-1,12,-5,-7,-10,0,-1226,-77,-68,-103
-14,-20,-5,18,-4,-12,-4,3,-1232,-63,-63,-101
49,41,-8,-45,28,16,1,0,-1220,-55,-60,-87
-29,-42,-13,36,-8,-27,8,-2,-1217,-50,-57,-85
-52,-68,-15,60,-18,-41,8,-5,-1213,-45,-52,-118
-23,-43,-20,33,-1,-31,2,-8,-1214,-41,-50,-124
10,-10,-20,0,15,-15,-2,-11,-1215,-37,-54,-115
22,1,-21,-11,21,-10,-7,-13,-1213,-32,-58,-112
22,-4,-26,-9,24,-15,-11,-16,-1215,-24,-66,-104
13,-11,-24,-1,19,-17,-16,-19,-1213,-17,-63,-100
-9,-37,-28,23,10,-32,-2,-22,-1215,-12,-60,-95
53,22,-30,-38,42,-4,8,-25,-1213,8,-58,-91
33,3,-30,-18,31,-13,5,-25,-1217,19,-55,-89
21,-9,-30,-6,26,-20,3,-25,-1228,-7,-53,-84
30,0,-29,-15,30,-14,0,-25,-1234,-29,-46,-81
-8,-39,-30,23,12,-34,-1,-26,-1248,-29,-41,-77
31,12,-19,-21,25,-4,-4,-23,-1251,-31,-36,-74
-4,-9,-5,7,0,-7,-9,-31,-1271,-27,-29,-83
-26,-16,10,21,-18,-3,-12,-23,-1279,-8,-26,-74
31,65,33,-48,-1,49,-14,10,-1229,23,-1,-35
35,69,34,-52,1,51,-22,35,-1183,73,40,3
58,83,25,-70,16,54,-14,44,-1165,95,44,20
81,97,16,-89,32,56,-57,22,-1191,81,34,21
101,112,11,-107,45,61,-107,4,-1256,70,31,31
113,107,-5,-110,59,51,-86,-7,-1314,42,21,31
129,78,-51,-103,90,13,-76,-16,-1352,19,18,27
147,77,-70,-112,108,3,-49,-5,-1363,11,9,20
105,47,-58,-76,81,-5,-23,-17,-1366,0,5,-10
78,16,-62,-47,70,-23,2,-21,-1364,-5,0,-48
24,-27,-51,2,38,-39,24,-43,-1382,-20,-10,-52
-26,-78,-52,52,14,-65,25,-28,-1389,-19,-25,-51
-25,-75,-50,50,13,-63,22,-28,-1399,-31,-48,-71
-17,-61,-44,39,14,-52,8,-5,-1389,-18,-8,-45
-80,-189,-110,135,16,-149,145,112,-1361,-63,-138,-184
-32,-300,-268,166,118,-284,261,244,-1364,-212,-269,-293
245,-134,-379,-55,312,-256,79,373,-1544,-336,-212,-107
363,423,60,-393,151,242,-377,-480,-2371,-116,315,523
270,815,545,-543,-138,680,-626,-1426,-3332,128,855,1122
-23,328,351,-153,-187,339,-205,-1078,-3201,-473,123,529
-250,-276,-26,263,-112,-151,230,-590,-2573,-853,-511,-196
-215,-371,-157,293,-29,-264,225,-332,-2256,-486,-331,-233
-120,-207,-87,164,-16,-147,110,-119,-1602,-208,-180,-187
-56,-106,-50,81,-3,-78,68,-28,-3190,-63,-64,-105
-79,-127,-48,103,-15,-87,69,6,-4713,-41,-81,-98
-72,-103,-31,88,-20,-67,57,0,-2434,-23,-64,-92
-67,-102,-34,84,-16,-68,52,10,-1343,-7,-54,-86
-64,-90,-27,77,-18,-58,44,8,-1519,-3,-56,-88
-53,-79,-25,66,-14,-52,37,11,-1323,21,-39,-77
-51,-72,-21,62,-15,-46,34,4,-1462,35,-43,-81
-41,-58,-17,50,-12,-37,29,7,-1366,44,-26,-72
-44,-53,-9,49,-17,-31,28,18,-1426,38,-28,-73
-42,-42,-1,42,-20,-21,21,15,-1395,41,-28,-68
-40,-33,7,36,-23,-13,22,14,-1393,40,-31,-66
-29,-15,14,21,-21,0,10,9,-1393,40,-30,-65
-30,-7,23,18,-26,8,16,14,-1367,45,-30,-59
-30,-3,27,17,-28,11,44,31,-1379,45,-31,-54
-9,6,15,1,-13,10,36,45,-1350,41,-27,-49
-10,-7,3,9,-7,-2,23,69,-1357,38,-25,-43
-18,-25,-7,21,-5,-16,13,66,-1380,33,-25,-38
4,-17,-22,7,13,-19,2,73,-1416,32,-25,-32
36,1,-35,-18,35,-16,-6,102,-1423,22,-25,-29
39,-9,-48,-15,44,-28,-24,96,-1456,5,-25,-27
21,-40,-60,9,41,-50,-31,91,-1503,-21,-20,-24
22,-38,-60,8,41,-49,-30,88,-1534,-39,-20,-21
30,-30,-60,0,45,-45,-28,82,-1572,-42,-19,-19
35,-24,-60,-6,48,-42,-25,79,-1605,-57,-15,-16
43,-17,-61,-13,52,-39,-25,70,-1630,-62,-15,-9
44,-10,-54,-17,49,-32,-26,60,-1650,-58,-13,-6
23,-1,-25,-11,24,-13,-22,50,-1646,-62,-14,-1
8,6,-2,-7,5,2,-32,39,-1643,-77,-21,4
14,32,18,-23,-2,25,-14,27,-1645,-80,-24,3
4,40,36,-22,-16,37,14,16,-1642,-71,-29,-3
-1,48,49,-24,-25,48,18,5,-1646,-70,-34,-7
-25,34,60,-5,-43,47,34,-2,-1640,-63,-37,-11
-68,-14,54,41,-61,20,34,-9,-1659,-61,-50,-16
-55,-7,48,31,-51,21,28,-16,-1684,-66,-60,-20
-24,20,44,2,-34,32,26,-22,-1688,-64,-53,-26
-18,17,36,0,-27,26,21,-29,-1722,-60,-49,-28
-26,13,39,6,-33,26,16,-26,-1744,-57,-43,-24
-38,5,43,17,-41,24,21,-15,-1751,-52,-37,-25
-33,3,36,15,-35,19,26,-5,-1763,-50,-33,-25
-42,-14,29,28,-35,8,18,1,-1765,-44,-29,-25
-68,-46,22,57,-44,-12,14,6,-1779,-39,-27,-25
-53,-40,13,46,-33,-13,8,11,-1799,-34,-24,-19
-59,-46,13,52,-35,-17,1,15,-1804,-28,-21,-14
-38,-21,17,29,-28,-2,3,20,-1804,-22,-19,-9
6,28,22,-17,-9,25,12,16,-1804,-18,-16,-3
-20,4,24,7,-22,14,10,15,-1804,-13,-10,3
-41,-20,21,30,-31,1,1,14,-1809,-10,-6,8
-20,-2,18,11,-19,8,3,11,-1817,-7,-1,10
6,21,16,-14,-5,18,16,10,-1829,-2,4,13
8,20,12,-14,-2,16,27,11,-1835,1,7,16
10,19,10,-14,0,14,24,27,-1828,4,13,19
8,21,12,-15,-2,16,15,30,-1836,9,18,20
-2,19,21,-9,-12,20,9,24,-1857,11,21,20
-8,21,28,-7,-18,24,1,22,-1859,16,26,20
-16,10,26,3,-21,17,-6,17,-1859,19,30,20
-17,3,20,7,-19,11,-8,15,-1858,23,30,20
7,23,15,-15,-4,19,3,15,-1860,25,30,19
5,17,12,-11,-3,14,10,16,-1882,25,30,23
10,16,6,-13,2,10,19,13,-1880,28,30,26
44,52,8,-48,18,29,37,28,-1874,31,31,30
11,28,17,-19,-4,22,22,48,-1891,28,27,33
-18,6,25,6,-22,15,3,45,-1888,27,25,38
-42,-7,35,24,-38,14,10,51,-1876,22,17,41
-45,3,48,21,-46,25,25,50,-1871,38,33,46
15,83,68,-49,-27,75,23,54,-1845,94,82,75
50,121,71,-85,-11,95,18,87,-1819,135,111,88
57,123,66,-91,-5,95,-11,97,-1798,130,114,82
64,129,65,-97,-1,97,-62,78,-1826,113,112,95
88,123,35,-106,26,79,-75,73,-1901,88,96,104
110,90,-20,-99,65,35,-70,58,-1953,43,64,97
140,87,-53,-114,96,17,-44,56,-1968,40,69,92
100,87,-13,-94,56,37,-8,47,-1968,52,69,81
5,10,5,-8,0,8,23,39,-1975,24,33,47
-27,-19,8,23,-18,-5,51,39,-1968,13,13,11
-53,-41,12,47,-32,-14,39,19,-1989,17,18,12
-68,-56,12,62,-40,-22,51,40,-1977,13,0,-4
-46,-19,27,32,-36,4,38,-2,-1984,17,9,-2
-58,-64,-6,61,-26,-35,102,82,-1951,-8,-46,-75
-127,-216,-88,172,-19,-152,268,184,-1979,-129,-205,-249
71,-223,-294,76,183,-258,183,358,-2233,-314,-261,-212
378,225,-152,-301,265,37,-218,-49,-2914,-255,55,236
413,654,241,-534,86,448,-640,-1298,-3967,19,655,898
215,386,171,-301,22,278,-378,-1381,-4058,-344,341,731
-132,-192,-60,163,-36,-126,168,-776,-3441,-855,-421,-19
-229,-331,-102,280,-64,-216,209,-471,-2904,-558,-359,-188
-134,-155,-21,145,-56,-88,137,-108,-2274,-166,-125,-96
-124,-89,35,106,-79,-27,98,0,-2045,-41,-38,-51
-113,-71,42,92,-77,-14,84,44,-2029,14,-6,-25
-111,-63,48,87,-79,-8,90,55,-1995,27,-22,-29
-120,-77,43,98,-81,-17,78,42,-2003,33,-22,-42
-93,-46,47,69,-70,0,81,74,-1981,27,-29,-50
-80,-35,46,57,-63,5,72,83,-1983,32,-14,-32
-110,-47,63,78,-86,8,88,88,-1971,29,-13,-27
-113,-42,71,78,-92,14,91,83,-1967,31,-3,-15
-105,-37,69,71,-87,16,85,87,-1960,41,2,-10
-124,-38,86,81,-105,23,86,83,-1952,46,7,-3
-106,-15,91,61,-99,38,79,102,-1942,57,12,4
-68,21,89,23,-79,55,83,122,-1920,77,14,11
-36,54,91,-9,-64,72,91,132,-1904,88,33,14
-22,68,89,-23,-56,78,79,154,-1904,103,42,-8
-99,-9,90,54,-95,41,65,161,-1922,103,36,-25
-115,-33,82,74,-98,25,56,160,-1922,93,35,-18
-45,28,73,8,-59,50,49,160,-1919,88,31,-8
0,65,65,-32,-33,65,42,170,-1916,81,31,1
28,83,55,-56,-13,69,34,197,-1911,69,23,6
29,75,47,-52,-9,61,27,210,-1940,51,8,13
40,74,34,-57,2,54,21,205,-1972,37,-5,14
47,69,23,-58,12,46,19,200,-1997,24,-20,1
58,65,8,-62,24,36,16,194,-2005,13,-20,23
75,63,-12,-69,43,25,13,189,-2033,3,-15,47
75,55,-19,-65,47,18,10,184,-2067,-1,-13,44
77,52,-25,-65,51,13,10,175,-2057,-8,-8,46
59,44,-14,-51,36,15,23,166,-2051,-13,-5,41
42,42,1,-42,20,21,34,157,-2045,-13,-8,40
15,30,15,-23,0,22,36,148,-2037,-36,-12,40
-3,49,51,-23,-27,50,34,134,-2035,-48,-16,35
22,73,51,-48,-14,62,37,112,-2040,-41,-19,30
4,62,58,-33,-28,60,53,81,-2051,-41,-24,25
-30,60,91,-15,-61,76,64,61,-2064,-36,-25,22
-29,55,84,-13,-57,69,74,56,-2074,-35,-27,16
-26,51,77,-12,-52,64,73,51,-2083,-43,-57,15
-26,45,71,-10,-49,58,65,48,-2102,-46,-67,15
-26,37,63,-6,-45,50,63,42,-2103,-45,-57,15
-28,31,59,-2,-44,45,57,40,-2108,-45,-55,15
-27,23,50,2,-39,36,54,30,-2120,-45,-50,14
-24,16,40,4,-32,28,49,41,-2115,-45,-45,16
-22,8,30,7,-26,19,46,57,-2112,-38,-42,14
-15,6,21,4,-18,13,43,49,-2108,-27,-39,17
-18,-3,14,10,-16,5,38,45,-2104,-18,-36,13
17,25,7,-21,5,16,35,41,-2102,-12,-33,22
44,45,1,-45,21,22,32,37,-2096,-8,-31,49
1,-5,-6,2,3,-5,30,31,-2091,-6,-28,51
-15,-27,-12,21,-1,-19,30,50,-2087,18,-25,49
-4,-19,-15,12,6,-16,31,62,-2083,33,-21,51
4,-14,-18,5,11,-16,28,54,-2078,27,-18,49
20,0,-20,-10,20,-10,44,53,-2072,26,-14,50
38,14,-24,-26,30,-5,54,48,-2063,23,-9,42
41,16,-25,-28,33,-4,43,45,-2056,19,-18,36
26,5,-22,-15,24,-8,38,42,-2052,22,-27,29
16,-3,-19,-6,18,-11,29,39,-2049,32,-21,22
5,-11,-16,4,11,-13,22,36,-2045,36,-17,17
-12,-26,-14,19,1,-19,23,34,-2041,34,-12,17
-25,-35,-10,30,-7,-22,25,29,-2037,35,-8,42
-20,-31,-11,26,-4,-21,25,33,-2033,35,-3,66
-10,-25,-15,18,3,-20,30,41,-2025,35,2,60
-9,-23,-15,17,3,-19,30,38,-2020,41,3,54
4,-12,-16,5,10,-13,30,35,-2012,39,-3,51
21,4,-16,-12,18,-6,38,33,-2007,40,-5,41
16,17,1,-17,7,9,42,29,-1995,42,12,47
4,38,34,-21,-15,36,37,34,-1966,58,29,63
40,81,41,-60,-1,61,36,63,-1915,106,59,90
77,117,40,-97,18,79,33,82,-1891,130,83,113
74,109,35,-92,20,72,10,71,-1882,143,78,93
70,108,37,-89,16,72,-47,55,-1886,141,87,102
78,98,20,-88,28,59,-87,51,-1944,111,88,142
107,62,-45,-84,75,8,-61,36,-1994,63,77,139
116,61,-54,-88,85,3,-23,33,-1991,59,76,127
102,74,-28,-88,65,23,10,20,-1974,93,53,117
30,-1,-31,-15,30,-16,23,20,-1977,93,27,88
-52,-82,-30,67,-11,-55,41,23,-1947,83,2,46
-25,-75,-50,50,13,-62,50,9,-1974,77,-3,61
-22,-79,-56,51,17,-67,52,28,-1973,73,-29,53
-9,-38,-29,24,10,-33,50,-6,-1983,59,-5,59
-26,-93,-67,60,21,-80,122,87,-1937,45,-49,-5
-99,-276,-177,187,40,-226,292,203,-1836,-49,-217,-190
101,-256,-357,78,229,-306,241,409,-1921,-188,-228,-127
323,191,-131,-257,227,30,-143,3,-2384,-145,83,334
336,770,434,-553,-49,602,-538,-1147,-3388,226,769,1064
139,609,470,-374,-166,539,-361,-1227,-3695,-18,527,928
-196,-86,110,141,-153,12,175,-681,-3156,-694,-373,86
-266,-399,-133,332,-66,-265,334,-403,-2719,-534,-419,-163
-158,-283,-125,221,-16,-204,195,-170,-2225,-200,-234,-130
-98,-139,-41,118,-28,-89,107,-45,-1879,-12,-119,-40
-98,-120,-22,109,-38,-71,98,24,-1805,101,-71,-7
-114,-131,-17,122,-49,-73,83,8,-1777,78,-87,-44
-38,-68,-30,53,-4,-49,75,11,-1749,100,-57,-4
-3,-25,-21,14,9,-23,70,26,-1718,83,-66,4
-54,-72,-18,63,-18,-44,62,31,-1696,106,-48,20
-51,-65,-14,58,-18,-39,56,31,-1681,103,-50,21
-41,-49,-8,45,-16,-28,51,22,-1668,101,-42,13
-42,-47,-5,45,-18,-26,61,21,-1639,128,-38,1
-32,-27,4,29,-18,-11,59,15,-1616,129,-35,23
-48,-29,20,38,-34,-5,56,9,-1605,133,-28,46
-43,0,43,21,-43,21,53,21,-1588,134,-27,45
-23,19,42,1,-33,30,50,46,-1577,136,-22,58
-31,2,33,14,-32,18,49,51,-1560,143,-21,53
-31,-2,28,16,-29,13,41,49,-1554,136,-17,28
-42,-22,20,32,-31,-1,34,51,-1569,129,-14,34
-32,-16,15,24,-23,0,27,51,-1581,122,-18,43
25,32,7,-29,9,20,19,63,-1598,114,-27,26
64,62,-2,-63,33,30,13,91,-1612,109,-30,61
77,67,-10,-72,43,28,5,95,-1651,94,-30,71
83,63,-19,-73,51,22,-5,86,-1693,72,-30,56
93,61,-32,-77,62,14,-13,85,-1725,60,-30,55
88,54,-34,-71,61,10,-22,78,-1753,50,-28,45
78,51,-26,-64,52,12,-33,75,-1784,40,-34,39
69,45,-24,-57,46,11,-35,68,-1816,31,-41,57
57,42,-15,-49,36,13,-27,57,-1815,25,-40,86
50,36,-13,-43,31,11,-21,48,-1823,20,-40,80
27,30,3,-29,12,16,-14,37,-1827,14,-41,75
-3,22,25,-9,-14,23,-7,24,-1818,9,-37,70
-18,16,34,1,-27,25,-2,13,-1832,4,-54,63
-12,42,54,-15,-33,47,17,2,-1812,-2,-72,61
0,53,52,-27,-26,52,34,-7,-1838,-9,-70,59
3,49,45,-26,-21,47,32,-15,-1816,-16,-75,60
9,50,41,-30,-16,45,38,-26,-1852,-22,-75,60
17,51,34,-34,-9,42,38,-28,-1848,-30,-78,60
18,48,31,-33,-7,39,30,-24,-1881,-26,-81,60
12,41,29,-27,-9,35,26,-26,-1898,-25,-79,64
-24,18,42,3,-33,30,20,-21,-1857,-22,-80,65
-21,20,41,1,-31,30,15,-20,-2359,-20,-80,64
-5,25,30,-10,-18,27,11,-20,-2547,-18,-80,66
-12,11,24,0,-18,17,9,-25,-2694,15,-73,64
20,36,15,-28,2,25,11,-28,-2466,38,-62,65
-28,-18,10,23,-19,-4,8,-34,-1857,22,-53,57
-23,-13,10,18,-17,-2,18,-46,-1987,20,-42,70
19,28,9,-23,5,18,36,-41,-1954,51,-36,95
-39,-34,5,36,-22,-14,33,-36,-1948,64,-31,92
-30,-25,5,27,-17,-10,27,-33,-1982,55,-26,86
-23,-20,3,21,-13,-8,24,-27,-1951,56,-20,83
-42,-44,-2,43,-20,-23,19,-24,-1986,51,-16,77
-32,-37,-4,35,-14,-20,14,-20,-1963,48,-20,73
-20,-29,-9,25,-5,-19,21,-20,-1990,69,-20,71
-4,-16,-12,10,5,-14,25,-18,-1972,81,-21,68
5,-12,-17,4,11,-14,18,-14,-1982,71,-25,78
21,-8,-28,-6,25,-18,15,-15,-1990,68,-25,96
25,-6,-31,-10,29,-18,10,-15,-2004,61,-23,95
27,-3,-30,-12,28,-16,5,-15,-2008,55,-18,93
32,1,-30,-17,31,-15,8,-16,-2005,72,-15,90
26,-4,-30,-11,28,-17,13,-14,-2021,81,-12,89
22,-7,-29,-8,26,-18,16,-18,-2024,80,-7,93
4,-17,-21,7,13,-18,19,-20,-2023,80,-4,94
-3,-16,-14,10,6,-15,24,-16,-2020,81,2,96
-10,-18,-8,14,0,-13,24,-10,-2017,79,13,93
1,2,0,-1,1,1,17,-8,-2019,87,22,98
38,42,4,-40,16,23,11,5,-1990,120,37,116
73,84,11,-79,30,47,4,50,-1950,161,65,138
120,135,14,-128,53,74,-3,72,-1937,187,82,141
99,123,23,-111,38,73,-18,55,-1918,177,85,143
84,104,20,-94,31,62,-63,38,-1955,164,80,165
118,89,-29,-104,73,30,-77,30,-2044,127,56,155
144,74,-70,-109,107,2,-57,17,-2085,92,45,148
118,46,-72,-82,95,-13,-50,19,-2082,93,35,138
35,6,-29,-20,32,-11,-17,1,-2097,82,23,117
-2,-18,-16,10,8,-17,38,4,-2119,79,18,99
-8,-46,-38,27,15,-42,61,-7,-2124,66,0,77
5,-52,-57,24,31,-54,51,8,-2126,66,6,71
-13,-70,-57,42,22,-63,48,8,-2118,52,-23,41
-29,-72,-42,51,7,-57,39,-20,-2130,50,-21,50
-59,-148,-88,104,15,-118,160,122,-2069,30,-107,-45
-27,-263,-235,145,104,-249,300,248,-2085,-106,-237,-159
207,-189,-396,-9,302,-292,136,419,-2298,-265,-224,-43
373,307,-67,-340,220,120,-305,-301,-3132,-110,235,529
351,751,400,-552,-25,575,-601,-1433,-4179,143,823,1181
71,321,250,-196,-90,285,-233,-1187,-4030,-391,202,714
-209,-290,-81,250,-64,-186,231,-643,-3404,-812,-508,-55
-181,-335,-154,259,-13,-244,223,-370,-2895,-416,-335,-131
-76,-167,-91,122,8,-129,128,-105,-2335,-82,-172,-60
-23,-73,-50,48,14,-61,106,-37,-2166,60,-79,-3
-71,-108,-38,90,-16,-73,108,4,-2153,93,-62,7
-98,-128,-30,114,-34,-79,104,2,-2134,85,-54,7
-57,-82,-25,70,-16,-53,100,10,-2131,98,-40,15
-49,-66,-17,58,-16,-41,100,17,-2118,101,-41,14
-44,-54,-10,49,-16,-32,95,19,-2117,118,-25,22
-40,-42,-2,41,-19,-22,94,28,-2105,126,-26,29
-42,-36,6,39,-24,-15,90,29,-2103,137,-13,37
-40,-26,14,33,-27,-6,88,36,-2093,139,-11,34
-41,-20,21,30,-31,1,85,38,-2088,137,-2,35
-36,-8,28,22,-32,10,82,46,-2081,152,4,35
6,30,25,-18,-10,27,74,54,-2075,147,5,35
11,42,32,-27,-11,37,66,45,-2078,176,6,29
-9,35,44,-13,-27,40,58,53,-2078,155,9,47
-5,36,40,-16,-23,38,51,71,-2078,172,11,59
-5,26,31,-11,-18,28,45,78,-2078,158,8,50
7,30,23,-19,-8,26,37,93,-2078,145,5,60
7,20,13,-14,-3,16,31,108,-2081,332,0,50
40,40,0,-40,20,20,24,126,-2103,112,-1,61
-50,-68,-18,59,-16,-43,18,141,-2122,-54,-8,54
-85,-114,-29,100,-28,-71,9,166,-2148,40,-8,66
44,8,-36,-26,40,-14,-13,195,-2191,-34,-27,52
