I,II,III,aVR,aVL,aVF,V1,V2,V3,V4,V5,V6
-506,398,904,54,-705,651,590,75,-5,-70,15,25
-509,395,904,57,-707,650,593,75,-7,-70,19,25
-490,415,905,37,-697,659,590,72,-13,-70,25,36
-479,421,901,29,-690,661,583,69,-16,-70,25,41
-480,419,899,31,-690,659,578,66,-22,-76,25,39
-479,420,899,29,-689,660,571,65,-25,-76,25,41
-488,419,907,34,-698,663,568,70,-33,-69,25,33
-491,420,911,35,-701,665,564,69,-36,-66,25,44
-489,420,909,35,-699,664,565,71,-30,-61,25,56
-490,420,910,35,-700,665,564,69,-24,-57,27,62
-488,421,909,33,-699,665,565,75,-17,-49,33,72
-459,452,910,3,-685,681,591,112,7,-20,51,88
-433,474,907,-21,-670,690,611,136,41,3,68,110
-426,471,897,-22,-662,684,606,140,42,16,81,124
-380,507,887,-64,-634,697,560,117,33,20,85,138
-373,505,877,-66,-625,691,514,75,23,-11,79,138
-405,463,868,-29,-637,665,515,61,5,-31,69,127
-408,458,866,-25,-637,662,515,59,-9,-29,62,124
-422,438,860,-8,-641,648,514,50,-35,-47,51,114
-443,413,856,15,-650,634,515,49,-40,-50,44,111
-454,398,852,28,-653,624,517,38,-45,-63,35,105
-460,386,846,37,-653,616,533,43,-37,-58,29,102
-459,385,844,37,-652,614,522,38,-42,-56,25,101
-470,365,835,52,-652,599,522,40,-35,-55,11,91
-462,377,839,42,-651,608,516,46,-33,-45,18,106
-448,369,818,39,-633,593,508,42,-37,-59,9,113
-509,423,932,42,-721,678,523,15,-56,-54,11,138
-579,485,1063,46,-821,774,425,-256,-342,-218,-25,124
-487,489,976,-1,-732,732,266,-352,-369,-187,84,220
-259,505,764,-123,-512,634,96,-443,-393,-239,128,282
-7,143,150,-69,-78,146,-77,-792,-764,-712,-179,42
141,-280,-421,70,281,-350,-258,-1110,-1106,-1121,-415,-152
-247,-308,-62,278,-92,-185,-277,-1409,-1520,-1465,-639,-309
-726,-96,630,411,-678,267,-43,-1070,-1218,-1147,-569,-266
-650,184,834,233,-742,509,261,-366,-462,-438,-212,-14
-532,314,846,108,-689,580,486,-7,-122,-127,-74,96
-519,357,876,81,-697,616,508,88,-24,-34,-20,132
-498,368,866,65,-683,617,520,102,-3,-7,-5,143
-513,357,871,78,-692,614,546,143,39,30,4,161
-474,394,868,40,-671,631,540,149,52,42,17,168
-464,430,894,17,-679,661,548,160,61,53,22,172
-464,436,900,14,-683,668,542,171,75,67,39,187
-456,434,890,11,-673,662,547,173,73,62,38,191
-454,435,889,9,-672,662,544,178,81,72,35,196
-449,434,883,7,-666,658,545,194,97,88,32,200
-442,436,878,3,-661,656,552,209,107,95,27,211
-467,426,893,20,-680,659,555,216,112,98,24,207
-487,424,911,31,-699,667,555,234,123,115,38,207
-456,455,911,0,-684,683,565,248,137,127,45,226
-459,476,935,-9,-697,705,590,264,148,133,53,230
-466,479,945,-7,-706,711,591,279,159,139,66,230
-468,480,948,-6,-708,714,591,294,175,149,68,229
-479,493,972,-7,-726,732,611,301,174,151,79,236
-469,528,998,-30,-734,762,615,292,163,145,84,244
-472,537,1008,-33,-741,773,603,284,155,141,86,241
-473,528,1000,-28,-736,764,594,277,145,137,95,239
-445,548,993,-52,-719,770,576,268,136,131,92,234
-435,546,981,-56,-708,763,564,254,136,126,84,241
-432,513,944,-41,-688,728,539,225,116,109,77,240
-419,484,903,-33,-661,693,496,193,85,86,69,216
-420,471,891,-26,-656,681,456,159,55,62,63,200
-400,446,847,-23,-624,646,427,130,31,33,52,186
-414,400,814,7,-614,607,420,118,25,31,37,179
-408,372,780,18,-594,576,380,79,-17,-10,15,160
-437,317,754,60,-596,535,322,-40,-144,-123,-54,108
-401,297,698,52,-549,497,185,-198,-287,-264,-125,76
-294,257,551,18,-423,404,42,-372,-465,-421,-143,62
-507,534,1040,-14,-774,787,-50,-856,-1016,-724,-119,146
-947,1160,2107,-106,-1527,1633,129,-1065,-1284,-712,60,381
-1403,1678,3081,-137,-2242,2379,719,-658,-988,-291,297,582
-1606,1855,3461,-124,-2534,2658,976,-653,-1056,-390,173,472
-1568,1085,2653,242,-2111,1869,1155,-487,-893,-534,-241,24
-1449,317,1766,566,-1608,1041,1475,-24,-475,-386,-439,-264
-1206,258,1464,474,-1335,861,1377,26,-368,-330,-374,-210
-964,350,1314,307,-1140,832,1078,81,-229,-202,-245,-98
-707,434,1141,136,-924,787,710,94,-152,-133,-138,-4
-454,285,740,84,-597,512,429,72,-71,-95,-88,45
-343,221,564,61,-454,392,346,100,5,-48,-38,67
-271,281,553,-5,-412,417,327,158,78,30,15,123
-207,288,495,-41,-352,391,300,202,142,85,50,149
-230,259,489,-15,-360,374,265,180,116,70,47,143
-222,244,466,-11,-344,355,252,189,126,77,38,143
-187,264,451,-38,-319,357,233,191,144,80,59,140
-144,249,393,-53,-269,321,213,189,151,91,63,139
-95,245,340,-75,-218,292,192,204,171,93,67,142
-74,228,302,-78,-188,265,177,210,197,106,82,150
-47,208,254,-81,-151,231,158,200,207,108,85,151
5,188,183,-96,-89,185,121,195,205,94,85,149
59,169,110,-114,-26,139,79,186,196,85,82,151
89,156,68,-123,10,112,34,180,187,72,79,149
132,145,13,-139,59,79,-4,170,178,54,76,152
166,140,-26,-153,96,57,-39,143,169,33,74,155
172,139,-33,-155,102,53,-65,124,155,24,76,155
135,128,-7,-131,70,60,-65,110,138,18,74,155
86,149,63,-118,11,106,-49,98,123,10,78,155
45,211,166,-128,-61,188,-5,93,102,2,82,156
-40,256,296,-108,-168,276,58,90,75,-4,80,150
-131,295,427,-82,-279,361,121,87,53,-1,76,140
-211,330,540,-60,-376,434,178,82,42,0,73,132
-264,357,621,-47,-443,489,219,79,30,0,68,122
-311,367,678,-28,-495,522,252,75,20,0,65,114
-352,358,709,-3,-531,533,275,67,10,1,60,98
-357,358,715,-1,-536,536,286,61,0,-4,52,80
-368,351,718,8,-543,534,283,54,-5,-17,46,74
-372,350,722,10,-547,536,277,48,-10,-21,38,67
-362,362,724,0,-543,543,274,42,-15,-19,31,61
-372,347,719,13,-546,533,268,38,-22,-21,24,54
-371,345,716,13,-544,530,264,35,-24,-25,19,48
-364,348,712,8,-539,530,261,32,-20,-23,16,45
-371,337,709,17,-540,523,258,27,-16,-18,12,45
-372,333,706,19,-539,519,255,25,-13,-17,9,45
-376,325,701,26,-539,512,253,31,-9,-10,4,45
-377,321,698,28,-538,510,249,33,-4,-12,17,45
-372,323,695,24,-534,509,253,29,-10,-24,27,41
-353,336,689,9,-521,512,258,30,-12,-26,21,35
-358,338,696,10,-528,517,256,30,-9,-24,16,30
-379,319,698,30,-539,508,251,30,-10,-25,13,24
-379,313,692,33,-535,502,249,29,-10,-25,7,19
-383,304,687,39,-536,496,245,26,-10,-25,6,13
-375,305,680,35,-528,492,239,24,-9,-21,11,11
-382,294,677,44,-530,486,244,27,-4,-18,5,9
-379,296,675,41,-528,485,246,23,-4,-14,5,11
-375,326,700,24,-538,513,250,27,2,-11,0,9
-366,335,701,15,-534,518,238,21,3,-5,-1,11
-371,310,681,30,-526,495,246,19,5,-6,-5,7
-372,299,672,37,-522,485,232,23,10,-20,-6,-1
-363,305,668,29,-516,487,238,14,12,-21,5,1
-391,290,681,50,-536,485,238,29,26,-18,-8,-15
-333,333,666,0,-499,499,236,7,19,-14,11,-1
-378,302,679,38,-529,490,248,32,41,-13,-14,-31
-323,333,656,-5,-490,494,211,-4,17,-8,12,-4
-402,275,677,63,-539,476,265,35,44,-16,-25,-36
-337,314,651,11,-494,483,168,-2,18,-14,1,-10
-388,277,664,56,-526,470,329,20,34,-14,-16,-27
-847,-45,802,446,-824,378,238,285,188,-44,-243,-255
-368,304,672,32,-520,488,-268,25,33,-3,-35,-45
-147,488,636,-171,-392,562,-193,-115,-12,28,86,76
-294,381,676,-44,-485,528,-170,-29,43,16,17,6
-188,463,651,-138,-420,557,-184,-81,3,22,64,59
-265,426,691,-81,-478,558,-139,-36,33,20,33,27
-221,468,688,-124,-455,578,-159,-55,10,18,51,47
-205,487,692,-142,-448,589,-121,-37,37,26,49,31
-161,484,645,-161,-404,564,-140,-42,44,35,59,28
-196,429,625,-116,-411,527,-120,-67,29,17,40,23
-213,404,616,-96,-415,510,-125,-66,39,13,31,11
-188,420,608,-116,-398,514,-113,-64,31,9,39,10
-210,400,609,-95,-410,504,-74,-52,37,3,30,4
-203,408,611,-103,-407,510,-51,-48,40,15,40,13
-223,384,607,-80,-415,495,-32,-42,46,17,31,8
-274,339,613,-33,-444,475,3,-31,55,24,28,-12
-286,321,607,-17,-447,463,23,-37,42,14,3,-49
-271,340,611,-35,-441,476,33,-15,67,26,-8,-49
-296,333,629,-19,-463,481,58,-30,45,13,-16,-54
-324,313,637,5,-481,475,73,-4,70,27,-2,-57
-389,435,825,-24,-607,630,31,-149,-79,-44,10,-51
-373,467,840,-48,-607,653,-40,-355,-221,-126,20,-24
-206,506,712,-151,-459,609,-160,-348,-119,-34,172,117
25,381,356,-203,-166,368,-351,-679,-447,-344,31,15
319,-122,-441,-98,380,-282,-583,-1043,-820,-843,-301,-262
226,-421,-646,98,436,-533,-737,-1404,-1262,-1301,-560,-456
-335,-349,-14,342,-160,-181,-608,-1476,-1436,-1405,-725,-580
-525,-9,516,267,-521,253,-279,-775,-719,-730,-423,-376
-381,223,604,79,-493,413,79,-168,-113,-169,-128,-175
-367,263,630,52,-499,446,227,13,74,-17,-74,-146
-349,308,657,21,-504,482,217,53,120,31,-37,-113
-348,301,648,23,-498,474,260,105,155,57,-30,-125
-358,302,660,27,-509,480,264,126,187,87,-11,-117
-326,325,651,0,-489,488,272,136,194,99,-17,-120
-321,336,657,-8,-489,496,294,156,215,114,-18,-139
-327,327,654,0,-490,490,298,163,214,112,-13,-148
-330,324,654,2,-492,489,314,173,228,121,-11,-167
-325,343,668,-9,-497,505,319,187,246,134,-6,-171
-330,346,676,-9,-503,511,322,203,249,134,-3,-169
-339,335,674,2,-507,504,342,210,262,146,1,-180
-334,340,674,-3,-504,507,355,231,288,161,-7,-186
-337,338,675,-1,-507,506,362,238,292,160,-14,-188
-343,330,673,6,-509,501,384,248,298,152,-21,-192
-335,347,682,-6,-509,514,401,264,311,168,-23,-195
-332,355,687,-11,-510,521,411,279,325,189,-13,-194
-334,360,694,-13,-515,527,445,316,352,198,-6,-190
-322,399,721,-39,-521,559,469,346,377,224,2,-188
-324,418,742,-47,-533,580,472,353,389,235,10,-185
-338,411,749,-37,-544,580,493,362,398,235,17,-184
-321,427,748,-53,-535,587,500,363,399,242,28,-186
-315,452,768,-69,-542,610,490,357,391,239,36,-183
-333,435,769,-51,-552,602,488,341,378,227,22,-187
-315,415,730,-50,-523,572,466,299,351,213,4,-189
-293,400,693,-54,-494,546,424,250,310,182,0,-197
-299,363,662,-32,-481,512,389,201,265,139,-20,-226
-294,343,638,-25,-466,490,351,160,232,111,-44,-243
-277,321,597,-23,-437,459,310,127,200,74,-62,-270
-279,306,585,-13,-432,445,299,98,163,38,-97,-294
-291,282,572,4,-432,427,301,73,147,25,-118,-310
-288,252,540,17,-415,396,299,59,137,14,-124,-323
-309,256,565,26,-437,410,301,50,125,2,-132,-328
-322,255,577,33,-450,416,299,39,115,-8,-148,-347
-320,254,574,33,-448,414,304,31,106,-17,-157,-351
-325,256,581,34,-453,418,310,22,97,-28,-154,-349
-326,252,578,37,-453,415,310,14,89,-33,-155,-350
-341,251,592,44,-467,422,310,7,82,-46,-169,-362
-348,248,595,49,-471,421,310,3,76,-68,-189,-381
-339,252,591,43,-465,421,309,-3,69,-70,-190,-379
-341,248,589,47,-465,418,312,-9,62,-70,-186,-380
-340,245,585,47,-463,415,322,-13,56,-70,-184,-379
-313,271,584,20,-449,428,319,-29,51,-71,-181,-381
-323,256,579,33,-451,417,310,-37,50,-79,-179,-390
-337,235,573,51,-455,404,304,-35,50,-70,-174,-389
-332,236,568,47,-450,402,295,-40,50,-64,-168,-386
-335,226,561,54,-449,393,289,-40,50,-61,-164,-383
-328,225,553,51,-440,389,284,-41,49,-58,-158,-380
-331,213,544,59,-438,378,285,-45,63,-53,-151,-379
-312,224,535,44,-424,380,285,-45,72,-50,-159,-386
-289,240,529,24,-409,384,285,-41,68,-57,-162,-387
-283,241,523,21,-403,382,292,-26,72,-48,-151,-376
-280,238,518,21,-399,378,285,-13,85,-32,-144,-369
-269,245,514,12,-391,379,304,11,108,-12,-132,-354
-250,256,506,-3,-378,381,342,48,136,16,-112,-332
-259,254,513,2,-387,384,359,63,151,38,-101,-322
-213,298,511,-43,-362,404,356,71,162,53,-104,-316
-185,305,491,-60,-338,398,317,56,152,38,-104,-314
-203,285,488,-41,-346,386,262,4,115,11,-108,-315
-203,287,490,-42,-347,388,245,-16,106,4,-109,-309
-230,261,490,-16,-360,375,255,-26,93,-9,-112,-311
-247,241,489,3,-368,365,252,-40,82,-16,-116,-309
-294,197,491,49,-393,344,258,-64,81,-35,-130,-326
-314,173,487,71,-401,330,271,-100,77,-60,-157,-350
-279,202,482,38,-381,342,271,-103,85,-44,-148,-331
-272,197,468,37,-370,332,267,-116,72,-52,-147,-322
-261,204,464,28,-363,334,274,-120,90,-29,-135,-308
-244,205,450,19,-347,327,263,-162,65,-44,-137,-301
-272,203,476,34,-375,339,279,-150,89,-15,-124,-290
-378,270,648,54,-513,458,270,-276,-34,-66,-124,-270
-384,280,664,51,-524,472,169,-449,-180,-140,-86,-228
-186,318,504,-66,-345,411,3,-454,-121,-78,48,-117
46,132,86,-89,-20,109,-190,-765,-446,-451,-133,-230
307,-273,-579,-17,443,-426,-351,-1088,-792,-885,-388,-426
167,-433,-600,133,383,-516,-429,-1376,-1179,-1261,-612,-577
-428,-360,68,394,-248,-146,-273,-1397,-1320,-1360,-781,-702
-596,-117,479,356,-537,180,-27,-812,-687,-746,-512,-522
-427,53,480,187,-454,266,213,-285,-132,-227,-237,-317
-359,118,477,121,-418,297,333,-70,73,-47,-147,-260
-331,162,493,84,-412,327,328,-36,110,-9,-104,-232
-326,168,494,78,-410,331,369,-3,144,21,-96,-208
-298,196,494,51,-396,344,363,18,163,44,-86,-185
-291,198,488,47,-390,342,365,32,164,40,-89,-185
-298,189,487,54,-393,338,365,49,194,72,-81,-176
-277,208,485,34,-381,346,366,46,187,74,-81,-168
-285,195,480,44,-383,338,377,64,193,75,-77,-157
-286,192,478,47,-382,334,373,76,196,81,-57,-138
-291,216,507,37,-399,361,394,93,208,94,-40,-118
-319,198,518,60,-419,358,406,105,226,106,-32,-111
-305,207,512,48,-409,360,417,123,234,112,-24,-106
-311,205,516,53,-414,361,418,131,241,119,-16,-100
-297,216,514,40,-406,365,422,152,252,138,-9,-91
-288,228,515,30,-402,371,436,179,266,156,-4,-78
-297,224,521,36,-409,373,443,192,277,160,1,-67
-278,249,526,14,-402,387,459,202,287,172,6,-53
-283,274,556,4,-420,415,470,213,293,175,10,-40
-284,293,577,-5,-431,434,476,227,292,186,15,-28
-292,276,567,8,-430,421,468,218,280,195,19,-16
-273,289,562,-8,-418,426,453,202,269,188,27,-4
-260,298,558,-20,-409,428,439,185,257,178,39,24
-260,287,548,-14,-404,417,417,155,237,146,31,30
-250,271,521,-11,-386,396,393,124,209,122,16,17
-245,229,474,8,-360,351,372,103,169,105,4,11
-235,193,428,21,-332,310,348,89,144,81,-13,0
-241,169,411,36,-326,290,322,67,130,59,-22,-8
-238,160,398,39,-319,279,310,39,103,37,-34,-17
-240,149,389,45,-315,269,303,26,85,29,-41,-16
-242,145,387,48,-315,266,294,23,75,19,-39,-11
-240,143,383,48,-312,263,287,17,62,11,-36,-9
-240,140,380,50,-310,260,281,12,53,-1,-33,-4
-239,136,375,51,-307,256,276,5,46,-28,-52,-1
-242,135,376,53,-310,255,271,12,41,-36,-55,3
-238,145,384,46,-311,264,267,23,36,-30,-39,10
-250,136,385,56,-318,260,263,16,29,-28,-31,20
-263,122,385,70,-324,253,258,9,26,-24,-25,19
-252,133,385,59,-319,259,254,2,27,-18,-20,27
-250,135,384,57,-317,260,248,-6,25,-36,-15,42
-250,135,385,57,-318,260,245,-13,25,-52,-8,38
-246,135,382,55,-314,258,239,-11,25,-50,-7,50
-244,133,377,55,-311,255,235,-2,25,-44,-16,53
-232,138,370,46,-301,254,239,4,26,-32,0,65
-239,129,368,55,-304,248,239,12,34,-18,34,95
-191,166,357,13,-275,262,270,42,67,-5,43,103
-168,192,360,-13,-264,276,284,67,85,27,61,119
-187,192,379,-3,-283,285,272,57,72,44,83,140
-144,225,369,-41,-257,297,253,49,62,25,91,158
-144,211,355,-34,-249,283,199,20,47,10,98,160
-162,182,344,-10,-253,263,178,-12,34,-5,87,153
-177,177,355,0,-266,266,181,-16,20,-18,78,151
-194,157,351,18,-273,254,179,-21,13,-31,67,144
-205,133,338,35,-271,235,181,-29,15,-52,54,150
-201,127,328,37,-265,227,179,-36,3,-59,44,149
-195,132,327,31,-261,230,180,-18,12,-42,46,151
-205,129,334,38,-270,232,172,-24,-15,-47,44,154
-191,129,320,31,-256,224,176,-4,-15,-45,46,154
-214,131,345,41,-279,237,164,-12,-25,-44,45,158
-230,99,329,66,-280,214,181,-15,-3,-27,46,157
-304,170,474,67,-389,322,164,-93,-89,-64,52,163
-366,188,553,89,-460,370,66,-300,-305,-190,46,177
-178,190,368,-6,-273,279,-63,-304,-215,-122,192,309
32,119,87,-76,-27,103,-224,-477,-357,-288,137,274
277,-292,-569,8,424,-430,-352,-769,-682,-712,-147,52
304,-510,-814,103,559,-662,-508,-1092,-1052,-1103,-334,-77
-209,-446,-238,328,15,-342,-472,-1338,-1410,-1363,-544,-227
-493,-234,260,363,-376,13,-216,-874,-951,-916,-400,-141
-377,-21,356,198,-366,167,44,-259,-293,-289,-74,80
-299,39,338,130,-319,188,197,-10,-55,-70,31,153
-235,109,344,63,-290,226,199,33,-6,-17,75,186
-232,105,337,64,-285,221,214,57,19,16,81,191
-274,90,363,92,-319,227,217,90,57,40,88,196
-262,109,372,77,-317,241,221,94,66,56,108,213
-238,130,368,54,-304,249,233,119,80,92,129,233
-227,144,371,41,-299,257,227,120,80,90,132,237
-232,137,369,47,-300,253,232,120,74,89,122,232
-235,135,370,50,-303,252,229,128,80,91,133,241
-232,137,369,47,-301,253,230,139,95,89,150,250
-253,118,371,68,-313,244,232,148,99,92,151,246
-232,132,363,50,-297,247,235,149,100,98,146,247
-199,183,383,8,-291,283,259,172,120,120,162,270
-198,193,391,3,-295,292,277,185,126,119,173,276
-205,187,392,9,-298,289,275,188,131,126,174,274
-225,195,421,15,-323,308,300,214,149,148,182,281
-231,217,448,7,-340,332,317,227,149,152,186,279
-237,225,462,6,-350,343,319,229,164,162,199,288
-219,240,459,-10,-339,349,322,225,176,163,212,302
-226,238,465,-6,-345,351,309,211,160,154,210,311
-217,246,464,-15,-341,355,300,201,145,148,209,326
-199,256,455,-29,-328,355,289,188,122,138,204,327
-204,242,445,-19,-325,343,274,167,97,134,206,318
-177,242,419,-33,-298,330,258,148,79,118,202,309
-174,206,379,-16,-276,292,238,127,63,92,190,300
-166,167,333,-1,-249,250,216,98,44,73,179,291
-177,132,309,22,-243,220,191,79,22,57,167,280
-169,127,296,21,-233,211,180,63,8,41,160,268
-153,127,279,13,-216,202,180,50,1,25,157,258
-166,107,273,29,-220,190,180,45,-6,15,153,260
-179,92,271,43,-225,181,180,40,-14,9,150,260
-194,73,267,60,-231,170,180,34,-21,2,145,259
-153,111,264,20,-209,187,178,28,-27,-6,143,260
-172,109,280,31,-226,194,175,26,-52,-13,139,260
-213,78,291,67,-253,185,172,27,-63,-12,137,259
-192,91,282,50,-237,186,170,21,-58,-8,134,256
-200,80,280,60,-241,179,166,15,-62,-14,130,252
-184,91,275,46,-230,183,164,14,-63,-21,130,250
-180,89,269,45,-225,179,169,5,-67,-21,123,244
-206,69,275,68,-241,172,170,9,-81,-19,125,250
-181,95,276,42,-228,185,170,0,-90,-22,144,272
-197,74,271,62,-235,172,170,-9,-87,-34,147,277
-222,53,275,84,-249,164,170,3,-87,-35,139,269
-168,112,280,28,-224,195,170,1,-69,-16,153,281
-138,138,276,0,-207,207,186,43,-34,13,174,298
-137,130,267,4,-202,198,204,71,-21,38,176,300
-114,147,261,-17,-188,204,197,56,-21,54,189,316
-73,179,252,-53,-163,215,187,47,-14,47,204,332
-56,190,246,-67,-151,218,148,35,-20,33,201,340
-93,146,239,-27,-166,192,113,24,-49,23,194,334
-107,125,232,-9,-169,178,117,16,-61,18,189,325
-74,155,228,-41,-151,192,112,3,-60,13,184,319
-80,140,220,-30,-150,180,112,-2,-62,10,178,309
-118,101,219,8,-169,160,107,-10,-88,4,166,301
-133,74,207,29,-170,140,116,-13,-90,-2,144,281
-141,76,217,32,-179,146,126,-13,-89,-5,140,281
-165,52,217,56,-191,134,124,-11,-89,-17,127,277
-178,55,233,61,-206,144,124,4,-79,-9,138,284
-132,79,211,26,-172,145,113,-5,-94,-23,142,291
-167,79,245,44,-206,162,138,4,-78,-5,137,286
-271,144,415,63,-344,280,92,-195,-286,-112,121,281
-210,153,363,28,-287,258,-29,-324,-347,-141,187,344
-23,168,192,-73,-108,180,-171,-345,-304,-95,308,458
236,-86,-321,-75,278,-203,-314,-626,-609,-472,87,287
458,-512,-970,27,715,-741,-489,-921,-921,-901,-179,71
190,-584,-774,197,482,-679,-612,-1324,-1409,-1310,-391,-65
-303,-414,-111,359,-96,-262,-449,-1228,-1384,-1232,-464,-125
-333,-130,202,231,-267,36,-127,-504,-622,-509,-123,104
-228,-9,219,118,-223,105,126,-66,-173,-104,96,251
-210,16,226,96,-218,121,188,44,-71,-11,126,273
-171,66,236,52,-204,151,195,70,-32,31,150,298
-169,75,244,47,-206,159,219,93,3,60,159,303
-138,108,246,14,-192,177,229,114,26,96,175,319
-144,100,244,22,-194,172,239,122,25,95,166,311
-147,98,245,24,-197,171,231,128,34,103,176,319
-153,92,245,30,-200,169,248,136,34,103,181,326
-164,92,256,36,-210,174,264,143,35,99,180,325
-134,118,252,8,-193,185,260,159,46,118,199,339
-152,118,270,17,-211,193,262,166,49,126,206,346
-174,110,284,32,-229,197,283,179,68,130,205,354
-156,128,283,14,-220,205,297,196,80,150,205,362
-148,143,291,2,-220,217,311,205,91,156,211,366
-169,121,290,24,-229,205,324,227,108,170,218,378
-166,140,306,13,-236,222,343,243,115,186,221,383
-136,186,322,-25,-229,254,360,259,130,192,225,391
-156,187,343,-16,-249,265,371,269,131,202,224,397
-168,201,369,-17,-269,285,390,272,138,204,237,404
-150,224,374,-37,-262,299,386,263,141,197,248,412
-146,244,391,-49,-269,317,379,254,129,193,244,410
-123,253,376,-65,-250,314,373,249,121,186,241,416
-112,231,342,-60,-227,286,362,233,104,182,234,417
-122,200,322,-39,-222,261,341,202,81,169,229,406
-124,165,289,-21,-207,227,307,169,58,142,223,399
-118,133,251,-8,-185,192,277,138,33,124,213,387
-96,114,210,-10,-153,162,252,112,8,112,201,371
-87,102,189,-8,-138,145,238,97,-6,93,190,355
-82,90,172,-5,-127,131,225,87,-13,68,180,350
-83,85,168,-1,-126,127,219,75,-22,57,170,348
-98,79,177,9,-138,128,221,66,-31,53,160,344
-97,75,171,11,-135,123,217,61,-36,47,150,342
-95,75,170,10,-133,122,215,56,-49,41,144,339
-92,75,166,8,-130,121,215,53,-57,36,145,337
-89,75,164,6,-127,120,222,46,-54,31,142,331
-95,74,169,10,-132,121,235,46,-55,30,139,326
-97,76,173,10,-136,125,244,57,-55,30,141,322
-106,70,176,17,-141,122,240,55,-55,25,135,317
-109,66,174,21,-142,120,232,48,-61,25,128,313
-119,56,175,31,-148,115,226,43,-65,25,120,310
-122,52,175,34,-149,113,219,37,-65,25,114,307
-132,43,175,44,-153,108,216,32,-76,26,105,304
-139,36,175,51,-157,105,221,29,-83,24,101,302
-99,66,165,17,-133,115,219,24,-72,25,120,298
-83,92,175,-5,-129,133,230,41,-52,31,130,305
-61,131,191,-35,-126,161,262,85,-28,60,151,325
-69,113,183,-22,-126,148,272,107,-16,82,164,327
-51,128,179,-39,-115,153,271,120,-9,89,170,331
20,188,169,-104,-74,178,236,112,17,106,196,354
8,147,140,-78,-66,143,189,62,-6,78,181,353
4,128,124,-67,-60,126,180,36,-52,48,160,336
10,134,124,-72,-57,129,173,36,-56,49,158,328
-9,111,120,-51,-65,115,161,22,-60,36,147,317
-23,94,117,-36,-70,105,156,24,-56,35,143,307
-32,84,116,-27,-74,100,154,6,-85,28,136,295
-37,74,110,-19,-74,92,156,6,-87,27,130,282
-39,74,112,-18,-75,93,159,15,-78,25,128,274
-36,65,102,-15,-69,83,156,14,-76,17,116,266
-32,76,108,-22,-70,91,149,29,-58,26,120,274
-29,63,93,-17,-61,78,136,21,-60,16,102,265
-107,85,192,11,-150,138,141,1,-68,20,106,274
-204,136,341,34,-273,238,67,-260,-341,-125,89,266
-126,146,272,-10,-199,208,-72,-386,-403,-130,164,326
101,198,98,-149,1,148,-209,-435,-372,-122,246,415
348,-169,-518,-89,433,-343,-394,-748,-697,-546,-16,203
553,-640,-1193,43,873,-916,-609,-1072,-1049,-1006,-302,-33
264,-692,-955,214,610,-823,-703,-1489,-1562,-1432,-544,-202
-247,-507,-261,377,7,-384,-491,-1232,-1363,-1195,-510,-195
-235,-164,71,200,-153,-46,-102,-424,-515,-402,-121,80
-139,-34,104,86,-121,35,150,-42,-131,-60,59,208
-143,-11,133,77,-138,61,174,40,-41,21,88,224
-113,28,141,43,-127,84,184,73,-8,63,98,227
-126,13,138,57,-132,75,202,114,17,77,96,227
-96,45,142,25,-119,93,209,116,29,95,113,233
-98,40,138,29,-118,89,243,126,39,112,125,224
-104,40,144,32,-124,92,238,132,47,124,126,226
-103,43,146,30,-124,94,241,144,56,121,124,224
-77,58,135,9,-106,96,239,167,72,138,126,226
-68,75,143,-4,-106,109,240,167,73,149,123,224
-89,75,165,6,-127,120,257,186,92,160,139,227
-68,100,168,-16,-118,134,268,198,112,185,146,231
-77,107,183,-15,-131,145,273,211,116,192,144,229
-91,100,190,-5,-141,145,267,218,116,190,146,230
-94,100,194,-3,-144,146,288,237,137,200,143,230
-90,129,219,-20,-155,174,314,268,154,219,157,229
-84,155,239,-35,-162,196,331,279,164,230,167,232
-105,156,261,-26,-183,208,347,287,175,237,167,235
-101,171,272,-35,-187,221,337,294,175,239,173,236
-105,170,275,-33,-190,222,328,293,162,233,172,234
-102,181,284,-40,-193,233,320,284,153,237,179,241
-83,193,275,-55,-179,234,309,260,138,232,168,245
-83,181,264,-50,-174,222,302,242,126,239,163,235
-53,178,231,-63,-142,204,270,203,89,211,151,226
-38,157,195,-59,-117,176,258,182,76,193,143,212
-40,108,149,-34,-95,128,215,138,50,146,126,184
-60,33,94,13,-77,63,134,-3,-96,5,46,136
3,-23,-27,10,15,-25,18,-134,-210,-114,-4,96
51,-110,-162,30,107,-136,-125,-342,-439,-332,-91,33
-165,88,253,39,-209,170,-256,-846,-1000,-666,-109,87
-580,692,1272,-56,-927,982,-148,-1163,-1357,-722,61,313
-1042,1268,2311,-113,-1677,1789,426,-841,-1118,-357,281,514
-1216,1565,2781,-175,-1998,2173,713,-722,-1036,-294,282,509
-1134,993,2127,70,-1631,1560,867,-546,-881,-374,-58,144
-1055,91,1146,481,-1101,618,1244,0,-401,-210,-307,-185
-844,-100,743,472,-793,321,1146,111,-253,-156,-262,-160
-540,64,603,238,-572,333,810,97,-177,-48,-131,-41
-313,99,412,106,-363,255,455,107,-120,0,-43,35
-85,-63,22,73,-53,-20,164,92,-71,-5,-2,65
74,-123,-198,25,136,-160,113,111,15,45,30,90
108,-71,-179,-19,144,-124,114,152,75,99,79,142
146,-70,-216,-38,181,-143,79,204,119,148,110,168
154,-93,-247,-30,201,-170,21,189,100,136,104,164
163,-112,-275,-25,219,-193,-6,199,114,142,102,165
185,-131,-315,-27,250,-223,-32,199,124,139,99,165
190,-163,-353,-13,272,-258,-68,200,139,143,95,165
229,-151,-379,-39,304,-265,-73,200,151,145,95,163
282,-148,-429,-67,356,-288,-76,205,162,149,101,159
334,-138,-472,-98,403,-304,-97,220,189,166,101,168
348,-182,-530,-83,439,-355,-135,209,198,157,94,170
381,-213,-593,-84,487,-403,-171,202,196,152,91,170
444,-204,-648,-120,546,-426,-211,193,187,143,86,178
443,-271,-714,-86,579,-493,-255,183,178,118,81,177
464,-276,-740,-94,602,-507,-269,173,156,88,77,168
486,-266,-752,-109,619,-509,-285,152,127,62,71,163
446,-290,-736,-78,591,-513,-290,137,99,44,64,156
424,-258,-681,-83,553,-469,-250,126,78,27,58,150
365,-213,-578,-75,472,-396,-212,115,53,20,51,146
288,-177,-465,-55,377,-321,-164,115,23,19,45,143
219,-126,-345,-46,283,-235,-95,114,12,23,40,140
141,-82,-223,-29,183,-152,-29,110,6,44,40,137
88,-53,-140,-17,114,-96,19,110,-1,51,39,135
48,-24,-72,-12,60,-47,48,109,-8,49,35,133
54,13,-41,-33,47,-14,64,105,-13,50,35,130
45,18,-27,-31,35,-4,67,102,-18,50,33,127
25,2,-24,-13,24,-11,69,100,-26,50,28,124
26,1,-26,-13,26,-12,71,96,-24,48,25,120
-12,-36,-24,24,7,-30,70,95,-29,44,22,120
-23,-48,-25,36,1,-36,66,91,-40,42,16,125
-21,-46,-25,34,2,-35,65,89,-40,39,16,125
-7,-31,-25,20,10,-28,65,90,-40,36,25,125
-4,-29,-24,17,10,-26,61,85,-43,34,25,125
-16,-56,-40,36,12,-48,58,85,-45,31,24,124
23,-24,-47,1,35,-35,56,84,-45,30,20,127
7,-33,-40,13,24,-36,53,80,-45,30,20,130
-11,-51,-40,31,15,-45,49,80,-45,30,19,130
-6,-41,-35,24,15,-38,53,78,-45,30,14,130
-13,-48,-35,31,12,-42,56,74,-40,33,16,130
-8,-55,-47,32,20,-51,55,75,-40,35,12,129
-13,-53,-40,33,14,-47,55,79,-39,30,10,126
-5,-51,-46,28,21,-49,55,80,-34,29,10,124
22,-44,-66,12,44,-55,54,81,-36,31,7,123
14,-51,-65,19,40,-58,51,78,-33,28,3,117
-18,-82,-65,50,24,-73,48,84,-29,38,10,133
6,-60,-66,28,36,-62,46,96,-32,50,21,152
23,-41,-64,9,44,-53,42,95,-24,51,20,149
17,-46,-63,15,41,-54,40,93,-28,47,19,150
3,-60,-63,28,34,-61,38,90,-21,47,15,144
11,-68,-79,29,45,-73,34,89,-24,42,15,146
52,-21,-73,-15,63,-47,37,91,-13,49,16,147
22,-52,-74,16,48,-63,33,87,-20,50,12,151
-12,-84,-72,48,30,-78,37,86,-34,48,11,150
20,-44,-64,12,42,-54,33,100,-22,54,23,143
19,-63,-82,23,51,-72,31,102,-38,42,28,146
-9,-71,-61,40,26,-66,30,96,-5,62,10,132
6,-84,-90,40,48,-87,22,99,-45,33,24,144
7,-44,-51,19,29,-47,28,89,12,72,-4,117
32,-88,-119,28,76,-103,10,104,-67,22,21,149
8,-15,-22,4,15,-18,35,77,32,89,-13,111
-7,176,183,-84,-95,180,-147,38,303,284,-83,37
162,75,-87,-119,125,-6,-408,43,3,101,51,168
210,72,-139,-141,174,-33,-396,23,-54,60,70,184
177,91,-86,-133,131,3,-381,20,0,94,50,166
198,70,-128,-134,163,-29,-374,16,-54,58,69,183
184,89,-95,-136,140,-3,-352,8,-4,83,52,168
198,75,-123,-136,160,-24,-346,8,-31,62,67,180
204,94,-110,-148,157,-8,-320,37,-4,89,68,172
187,71,-116,-128,151,-22,-321,43,-5,76,74,176
200,66,-134,-132,167,-34,-328,0,-20,63,67,170
221,60,-162,-140,191,-51,-327,4,-39,66,66,166
215,56,-160,-136,187,-52,-299,12,-29,67,63,165
209,51,-158,-129,183,-53,-261,19,-12,70,58,157
200,48,-152,-123,175,-52,-246,30,-15,66,60,158
184,35,-149,-109,166,-56,-240,36,-17,61,48,147
137,-5,-142,-65,140,-73,-214,58,-11,64,49,129
105,-35,-140,-35,123,-87,-195,45,-22,52,38,118
99,-35,-134,-32,117,-84,-171,65,-7,61,37,120
96,-37,-132,-29,114,-84,-170,47,-23,54,29,121
88,-34,-122,-27,105,-78,-149,63,2,73,24,117
-9,64,73,-27,-42,68,-160,-63,-131,7,25,122
-24,66,90,-21,-57,77,-278,-298,-341,-104,26,134
173,116,-57,-144,115,29,-398,-294,-240,2,175,267
412,26,-386,-218,399,-180,-574,-571,-478,-258,80,205
688,-471,-1159,-108,924,-815,-797,-929,-850,-748,-234,-61
673,-758,-1431,43,1052,-1094,-947,-1301,-1286,-1202,-486,-243
103,-734,-838,316,471,-786,-879,-1435,-1532,-1374,-667,-393
-165,-448,-283,307,60,-366,-550,-766,-862,-744,-420,-223
5,-153,-158,75,82,-156,-181,-131,-226,-154,-116,-1
39,-91,-130,27,84,-110,-36,87,-27,13,-34,44
43,-63,-106,11,75,-85,-20,135,38,79,10,89
44,-60,-104,9,74,-82,22,178,82,119,27,85
55,-36,-91,-10,74,-63,31,204,119,143,48,92
66,-31,-98,-17,82,-64,46,204,115,142,44,89
60,-31,-91,-14,76,-61,54,230,137,162,45,89
66,-24,-90,-21,79,-57,54,233,144,168,46,91
67,-23,-90,-22,79,-56,73,245,155,176,43,88
68,-18,-86,-25,77,-52,74,257,165,186,49,86
55,-24,-79,-15,67,-52,77,270,173,183,49,79
44,-28,-72,-7,58,-50,93,274,180,189,51,76
45,-21,-66,-12,56,-43,107,293,195,208,54,71
47,-12,-59,-17,53,-35,107,303,209,217,56,66
32,-21,-54,-5,43,-37,105,297,206,217,54,66
73,28,-45,-50,59,-9,133,326,229,222,56,79
98,62,-36,-80,66,13,158,348,253,237,54,85
81,52,-29,-66,54,12,161,362,258,242,58,86
73,56,-16,-64,44,20,177,385,276,250,64,84
61,56,-4,-58,32,26,203,396,285,268,69,89
63,77,14,-70,24,45,215,397,288,271,85,107
44,80,36,-62,3,58,205,389,284,278,85,111
40,69,29,-55,5,49,197,379,275,273,80,108
41,66,25,-53,8,45,188,372,270,255,79,101
38,55,17,-46,10,36,177,357,253,240,75,93
63,49,-13,-56,38,18,157,322,226,227,74,85
92,43,-50,-67,71,-4,125,278,192,202,60,78
111,20,-91,-65,100,-35,93,235,159,159,46,68
114,2,-112,-58,113,-55,46,195,127,130,33,47
91,-45,-136,-23,114,-90,14,157,98,101,11,32
79,-87,-166,5,123,-126,6,129,79,68,-2,21
90,-84,-174,-2,132,-129,-2,121,63,52,-14,9
105,-68,-172,-18,139,-120,-14,114,49,40,-25,1
92,-75,-167,-8,130,-121,-25,107,40,30,-29,-8
53,-109,-163,28,108,-136,-26,101,30,20,-47,-15
64,-94,-159,15,112,-126,-24,89,14,13,-51,-28
68,-82,-150,7,110,-116,-26,75,-2,2,-49,-36
52,-87,-140,18,96,-113,-24,62,-16,-5,-51,-34
47,-84,-130,19,89,-107,-27,53,-24,-13,-49,-39
34,-86,-120,26,78,-103,-39,45,-32,-23,-59,-49
36,-85,-121,24,79,-102,-48,35,-42,-23,-61,-51
31,-88,-119,29,75,-104,-50,30,-41,-36,-59,-49
31,-91,-122,30,77,-107,-51,26,-40,-42,-61,-45
44,-89,-133,23,88,-110,-63,23,-40,-39,-59,-45
44,-92,-136,24,90,-114,-76,19,-35,-40,-69,-54
44,-110,-154,33,100,-132,-84,15,-35,-34,-74,-56
61,-101,-162,20,111,-131,-85,15,-34,-31,-65,-55
78,-90,-167,6,123,-128,-86,14,-27,-27,-57,-53
71,-108,-179,18,125,-143,-96,17,-21,-23,-49,-49
73,-108,-181,18,127,-144,-94,24,-15,-21,-42,-51
76,-102,-178,13,127,-140,-91,27,-6,-15,-36,-46
84,-99,-184,8,134,-141,-89,18,-3,-6,-29,-39
110,-92,-202,-9,157,-147,-85,26,9,7,-23,-33
108,-92,-201,-8,155,-146,-83,43,22,10,-15,-26
111,-81,-192,-15,151,-136,-50,67,45,34,-10,-19
149,-40,-189,-54,170,-114,-30,113,83,69,-5,-8
177,-7,-184,-85,181,-95,-41,121,97,79,0,6
169,-10,-179,-79,174,-94,-36,120,89,78,3,6
195,-4,-198,-95,196,-101,-82,107,73,68,10,-5
218,-10,-228,-103,223,-119,-129,66,56,56,7,-13
196,-59,-255,-68,226,-157,-118,56,50,49,-2,-22
199,-67,-265,-65,232,-166,-134,46,41,37,-13,-32
184,-83,-266,-50,225,-174,-140,37,32,27,-22,-34
138,-134,-272,-2,205,-202,-129,30,29,22,-39,-47
112,-149,-261,19,187,-205,-126,23,25,17,-60,-69
96,-143,-239,24,168,-191,-115,39,38,24,-53,-62
102,-145,-247,21,175,-196,-114,28,25,8,-55,-61
107,-147,-254,21,181,-200,-110,53,49,24,-47,-53
104,-146,-250,21,177,-198,-119,34,32,3,-48,-51
103,-132,-235,15,169,-183,-111,56,59,26,-44,-46
12,-54,-66,21,39,-60,-126,-78,-82,-32,-49,-39
-33,-58,-25,46,-4,-42,-239,-339,-310,-182,-47,-38
145,-28,-173,-58,160,-100,-396,-357,-239,-112,77,81
401,-132,-532,-135,467,-332,-592,-682,-547,-423,-72,-16
716,-613,-1329,-51,1022,-971,-822,-1062,-943,-940,-398,-290
694,-909,-1604,108,1149,-1256,-984,-1413,-1363,-1389,-667,-487
110,-822,-933,356,521,-877,-886,-1501,-1542,-1483,-798,-583
-114,-487,-373,301,129,-430,-544,-786,-802,-777,-474,-354
37,-235,-272,99,155,-253,-202,-162,-166,-193,-176,-137
48,-190,-238,71,143,-213,-66,45,40,-11,-107,-93
71,-148,-219,38,145,-183,-51,91,92,34,-68,-60
84,-138,-222,27,153,-180,-30,126,120,60,-63,-58
91,-124,-215,17,153,-169,-28,159,161,103,-45,-48
97,-119,-215,11,156,-167,-18,157,158,101,-40,-46
100,-110,-210,5,155,-160,-13,184,185,125,-32,-40
108,-101,-210,-3,159,-155,-6,178,180,117,-26,-35
91,-113,-204,11,148,-158,2,176,187,117,-20,-32
104,-94,-198,-4,151,-146,6,198,212,143,-12,-26
116,-78,-194,-19,155,-136,14,210,216,151,-8,-23
111,-76,-187,-17,149,-131,21,226,225,157,-1,-18
112,-71,-183,-20,147,-127,34,244,242,170,3,-15
109,-67,-177,-21,143,-122,41,253,249,180,9,-12
103,-65,-168,-19,136,-116,57,275,266,190,16,-7
102,-54,-157,-24,130,-105,79,298,290,207,19,-5
102,-46,-148,-27,125,-97,88,313,305,217,17,-15
83,-52,-136,-15,110,-94,96,328,313,215,12,-14
88,-40,-128,-23,108,-84,113,349,333,238,27,-2
105,-11,-117,-47,111,-63,133,361,348,261,41,7
115,7,-108,-61,111,-50,144,353,342,264,45,17
134,33,-101,-83,117,-33,138,349,341,262,52,24
128,40,-88,-84,108,-24,117,338,334,246,43,24
145,28,-117,-86,131,-45,84,311,309,234,32,12
160,12,-148,-85,154,-67,53,266,270,206,23,3
152,-26,-178,-63,165,-101,22,214,224,165,10,-9
165,-53,-218,-56,192,-135,-6,176,191,135,0,-23
168,-76,-245,-46,207,-160,-25,144,161,106,-17,-37
176,-90,-266,-43,221,-177,-51,118,138,83,-44,-59
165,-113,-278,-26,222,-195,-57,109,131,74,-55,-70
157,-140,-297,-8,227,-218,-64,103,124,66,-60,-80
171,-131,-302,-20,236,-216,-77,95,117,58,-70,-90
156,-140,-296,-8,226,-218,-74,87,111,50,-68,-88
136,-159,-296,12,216,-227,-78,81,105,42,-82,-102
130,-160,-290,15,210,-225,-81,74,99,34,-91,-117
131,-159,-290,14,211,-224,-79,68,93,27,-83,-119
139,-154,-293,8,217,-224,-84,64,89,23,-81,-117
139,-156,-295,9,217,-226,-85,57,82,17,-76,-114
147,-151,-297,2,222,-224,-85,53,77,14,-72,-115
148,-152,-300,2,224,-226,-97,47,75,9,-69,-117
131,-170,-301,19,216,-235,-101,44,75,4,-65,-122
135,-163,-298,14,217,-230,-99,45,75,12,-62,-117
153,-155,-308,1,231,-232,-101,44,75,19,-59,-114
169,-145,-314,-12,242,-229,-99,46,75,29,-52,-111
171,-137,-308,-17,240,-222,-101,43,74,35,-47,-106
184,-116,-301,-34,243,-208,-76,67,100,48,-34,-104
208,-88,-296,-60,252,-192,-41,107,135,81,-12,-87
216,-75,-291,-70,254,-182,-52,108,148,92,1,-78
241,-42,-283,-99,262,-163,-50,93,151,95,8,-81
292,-25,-317,-133,305,-171,-76,87,139,94,18,-80
293,-43,-336,-125,315,-189,-144,66,117,73,16,-85
256,-86,-342,-85,299,-214,-151,32,101,58,4,-85
260,-88,-348,-86,304,-218,-157,26,90,50,-4,-86
252,-101,-353,-75,303,-226,-173,21,77,32,-23,-98
221,-163,-384,-29,303,-273,-167,22,84,27,-41,-116
203,-182,-385,-10,294,-284,-172,14,74,7,-68,-146
180,-197,-378,9,279,-287,-169,17,78,2,-71,-151
178,-201,-378,12,279,-289,-170,18,72,11,-64,-148
174,-197,-371,12,273,-283,-170,19,77,20,-63,-153
194,-176,-370,-9,282,-273,-162,25,88,34,-53,-145
189,-187,-376,0,283,-281,-168,20,76,28,-57,-156
127,-138,-265,6,196,-201,-148,-9,52,23,-44,-139
77,-82,-159,3,118,-120,-222,-283,-218,-132,-83,-147
144,-61,-205,-41,175,-133,-365,-376,-229,-79,21,-75
365,-45,-410,-160,388,-227,-516,-497,-298,-172,46,-29
651,-456,-1107,-97,879,-781,-754,-904,-722,-703,-278,-285
862,-923,-1785,31,1324,-1354,-963,-1234,-1093,-1177,-576,-531
447,-989,-1436,271,942,-1212,-988,-1552,-1536,-1537,-813,-696
-53,-709,-656,381,301,-682,-734,-1148,-1136,-1103,-665,-602
32,-358,-389,163,211,-373,-348,-356,-302,-341,-261,-309
116,-257,-373,71,245,-315,-130,-7,25,-55,-120,-216
125,-207,-332,41,228,-269,-99,82,127,41,-78,-191
155,-168,-323,7,239,-245,-86,98,145,63,-62,-183
170,-158,-328,-5,249,-243,-73,147,192,101,-53,-180
182,-154,-337,-13,260,-245,-67,161,205,111,-41,-173
173,-156,-329,-9,251,-242,-58,166,210,114,-37,-172
185,-143,-328,-21,257,-235,-56,177,230,131,-28,-163
179,-143,-322,-18,251,-233,-48,175,237,134,-24,-171
171,-150,-321,-10,246,-235,-44,190,248,148,-15,-170
162,-150,-312,-6,238,-231,-38,198,263,161,-10,-170
155,-139,-294,-8,225,-216,-31,207,271,162,-5,-168
172,-131,-303,-20,238,-217,-24,233,281,181,-5,-164
186,-120,-306,-32,246,-213,-18,246,302,194,-4,-165
198,-102,-300,-48,250,-201,-8,270,318,197,1,-165
203,-97,-300,-53,252,-198,8,288,333,213,-1,-164
197,-91,-288,-53,243,-190,19,294,346,216,6,-172
196,-68,-264,-64,230,-166,50,328,370,240,29,-173
185,-57,-242,-63,214,-149,69,338,387,253,40,-165
176,-49,-226,-63,201,-137,60,342,380,253,40,-159
178,-41,-219,-68,198,-130,60,350,376,265,39,-152
194,-10,-205,-92,200,-107,54,343,371,257,44,-152
217,21,-196,-119,206,-88,52,332,367,244,42,-157
223,4,-219,-113,221,-107,43,297,356,229,29,-157
214,-23,-238,-95,226,-130,6,259,314,208,18,-163
228,-63,-291,-82,259,-176,-30,221,283,181,6,-173
233,-110,-343,-61,289,-226,-68,185,259,148,-9,-192
225,-130,-355,-48,290,-242,-95,152,221,117,-21,-213
236,-133,-369,-52,303,-250,-113,123,201,93,-32,-221
231,-164,-394,-33,313,-279,-136,114,193,81,-57,-246
229,-194,-423,-17,326,-309,-140,106,182,70,-72,-262
227,-201,-427,-13,327,-314,-140,98,173,62,-69,-259
230,-199,-429,-16,330,-314,-140,91,167,56,-70,-260
226,-203,-428,-11,327,-315,-140,85,163,49,-75,-267
199,-224,-423,13,312,-323,-140,82,158,43,-84,-277
203,-220,-422,9,313,-321,-135,78,154,36,-87,-274
202,-215,-418,6,310,-316,-136,74,149,32,-91,-275
211,-206,-416,-2,314,-311,-134,70,145,26,-89,-285
201,-212,-413,6,308,-313,-141,67,138,22,-91,-291
177,-245,-421,34,299,-333,-160,64,134,17,-100,-302
191,-235,-426,22,309,-330,-159,62,128,13,-94,-303
202,-221,-423,10,313,-322,-156,59,121,8,-87,-295
220,-218,-438,0,329,-328,-152,57,123,5,-81,-292
254,-199,-452,-28,353,-325,-150,53,123,14,-74,-284
286,-161,-447,-63,367,-304,-126,71,147,41,-69,-281
292,-152,-444,-70,369,-298,-92,106,180,86,-56,-284
285,-158,-444,-63,365,-301,-99,115,190,102,-53,-285
286,-150,-436,-68,361,-293,-103,117,188,89,-55,-285
311,-144,-455,-84,383,-299,-148,96,176,80,-57,-285
338,-132,-470,-103,404,-300,-209,46,161,66,-61,-284
310,-163,-473,-73,392,-318,-210,33,146,55,-59,-287
289,-201,-491,-44,390,-346,-207,32,130,43,-61,-290
294,-195,-490,-50,392,-343,-206,25,122,33,-59,-289
277,-211,-488,-33,383,-350,-200,27,124,34,-69,-302
235,-250,-484,8,360,-367,-201,15,112,24,-103,-333
232,-252,-484,11,358,-368,-207,29,120,29,-97,-334
248,-244,-492,-2,370,-368,-212,19,101,15,-96,-335
229,-265,-493,18,361,-379,-208,33,131,24,-92,-336
217,-258,-475,21,346,-366,-212,26,124,17,-85,-332
212,-235,-446,12,329,-340,-209,29,119,20,-89,-339
184,-171,-356,-6,270,-263,-210,-46,52,-12,-72,-312
152,-146,-298,-3,225,-222,-287,-288,-173,-125,-75,-294
296,-103,-398,-96,347,-250,-460,-328,-123,-45,58,-195
526,-190,-715,-167,621,-452,-646,-569,-345,-298,-20,-240
811,-638,-1448,-86,1130,-1043,-804,-928,-730,-788,-324,-484
864,-918,-1783,27,1324,-1350,-950,-1226,-1083,-1172,-531,-642
274,-871,-1144,299,709,-1006,-864,-1385,-1362,-1372,-714,-774
-66,-642,-576,354,255,-609,-616,-876,-834,-857,-530,-664
126,-379,-506,127,316,-442,-368,-257,-176,-250,-204,-436
202,-287,-489,43,346,-388,-186,19,96,-12,-84,-350
196,-275,-471,40,333,-372,-171,72,156,50,-47,-317
216,-264,-481,24,349,-372,-163,98,179,80,-44,-314
224,-254,-479,15,351,-366,-154,120,208,122,-29,-302
240,-241,-480,1,360,-360,-152,118,202,114,-24,-298
246,-233,-479,-6,363,-356,-140,141,229,124,-15,-291
241,-239,-480,-1,361,-359,-139,149,237,130,-9,-283
252,-228,-480,-12,366,-353,-133,166,247,134,-5,-278
255,-223,-477,-15,366,-350,-136,170,257,142,6,-270
257,-215,-472,-20,365,-343,-143,174,257,149,13,-265
258,-209,-467,-24,362,-338,-139,183,270,164,30,-255
262,-202,-464,-29,363,-332,-125,205,287,168,41,-248
272,-186,-458,-43,366,-322,-115,226,299,174,44,-240
268,-187,-455,-40,362,-320,-105,234,322,202,49,-232
274,-170,-444,-52,359,-307,-95,246,334,216,55,-238
280,-149,-429,-65,355,-289,-77,274,347,225,74,-235
280,-134,-414,-73,347,-274,-64,293,361,231,87,-225
261,-130,-391,-65,326,-261,-65,293,357,233,84,-218
261,-123,-384,-69,322,-253,-64,290,352,243,86,-207
294,-92,-386,-101,340,-238,-65,281,344,239,89,-205
290,-93,-383,-98,337,-238,-65,279,336,235,85,-205
290,-97,-387,-96,339,-242,-68,267,330,236,77,-201
284,-96,-380,-94,333,-238,-94,231,318,222,70,-199
288,-127,-415,-80,352,-271,-113,200,280,187,62,-201
302,-162,-464,-70,383,-313,-130,170,245,158,56,-204
289,-198,-487,-45,388,-342,-159,135,223,124,44,-216
300,-230,-531,-34,416,-380,-176,106,201,99,29,-239
302,-237,-538,-32,421,-387,-200,83,185,94,18,-247
294,-246,-540,-24,418,-393,-219,76,173,80,10,-249
292,-263,-555,-14,424,-409,-227,72,162,67,4,-254
276,-278,-554,1,415,-416,-231,65,156,61,-3,-255
273,-282,-555,5,414,-418,-230,60,149,55,-10,-255
276,-277,-553,1,415,-414,-228,55,143,50,-14,-253
273,-294,-567,11,420,-430,-224,50,135,44,-28,-264
277,-298,-575,11,426,-436,-225,44,130,39,-37,-270
286,-280,-566,-3,427,-422,-229,41,130,34,-34,-263
284,-279,-563,-2,423,-421,-240,35,130,27,-33,-260
277,-279,-556,1,416,-417,-244,32,130,22,-29,-255
276,-274,-550,-1,414,-412,-246,27,130,17,-31,-250
277,-271,-548,-3,412,-409,-248,22,131,14,-25,-246
284,-267,-551,-8,417,-409,-245,42,126,33,-17,-240
306,-264,-570,-21,438,-416,-255,54,126,49,-9,-234
318,-259,-578,-29,448,-418,-256,46,122,41,-1,-229
320,-257,-577,-32,449,-416,-239,62,144,60,5,-212
329,-247,-576,-41,453,-411,-238,97,175,87,23,-196
353,-217,-570,-68,461,-393,-227,99,177,98,35,-194
397,-178,-575,-110,486,-376,-228,81,177,105,37,-191
404,-178,-582,-113,494,-380,-294,65,155,86,36,-188
386,-221,-607,-82,497,-414,-319,29,130,62,22,-184
385,-232,-617,-76,502,-424,-327,15,119,51,18,-186
376,-236,-612,-70,494,-424,-350,10,100,43,16,-193
347,-282,-629,-32,489,-456,-339,5,99,44,-8,-204
325,-299,-624,-13,475,-461,-338,3,92,37,-35,-226
322,-302,-623,-10,472,-462,-333,-8,87,26,-45,-232
314,-299,-613,-7,463,-456,-327,4,87,28,-40,-221
288,-323,-612,18,450,-467,-325,-7,73,8,-49,-226
278,-325,-603,24,441,-464,-313,-1,96,24,-37,-213
295,-317,-613,11,454,-465,-317,-5,75,21,-42,-220
283,-305,-588,11,436,-446,-296,11,88,41,-24,-216
184,-213,-397,15,291,-305,-335,-156,-83,-52,-27,-192
203,-225,-428,11,316,-326,-477,-342,-219,-118,2,-158
455,-162,-617,-146,536,-389,-636,-369,-164,-69,120,-65
698,-354,-1052,-172,876,-703,-793,-671,-482,-451,-81,-194
940,-840,-1780,-49,1360,-1310,-971,-985,-812,-875,-336,-391
736,-979,-1716,122,1226,-1347,-1047,-1302,-1222,-1261,-565,-548
141,-857,-997,358,569,-927,-879,-1262,-1274,-1258,-679,-650
64,-584,-648,260,356,-615,-630,-637,-594,-604,-364,-444
225,-405,-630,90,428,-517,-389,-141,-89,-152,-129,-268
261,-353,-613,46,437,-483,-284,43,93,21,-60,-214
309,-298,-607,-6,458,-452,-279,60,121,58,-29,-180
300,-305,-605,3,452,-455,-259,97,148,84,-21,-177
291,-305,-596,7,444,-450,-264,114,175,111,-1,-163
307,-285,-593,-11,450,-439,-252,120,179,102,0,-160
322,-269,-590,-26,456,-429,-249,143,198,118,14,-150
320,-286,-606,-17,463,-446,-244,140,197,132,17,-144
314,-296,-611,-9,463,-453,-237,146,205,148,28,-137
316,-291,-607,-12,461,-448,-233,157,212,143,34,-130
316,-288,-605,-13,461,-446,-226,171,223,148,37,-124
319,-281,-600,-19,460,-441,-222,182,236,166,52,-117
319,-282,-601,-19,460,-441,-215,198,244,174,54,-111
331,-258,-589,-37,461,-423,-210,209,254,188,63,-106
313,-255,-568,-29,441,-411,-202,223,263,195,77,-101
302,-253,-555,-24,429,-404,-196,241,275,199,79,-95
315,-233,-549,-41,432,-391,-189,255,299,225,81,-90
307,-225,-532,-41,420,-378,-172,273,298,231,80,-83
314,-190,-504,-62,409,-347,-164,275,290,240,99,-72
330,-175,-505,-77,418,-340,-166,266,287,253,117,-63
334,-171,-504,-81,419,-337,-164,263,279,239,111,-58
356,-153,-509,-102,433,-331,-177,247,276,224,107,-54
357,-154,-511,-101,434,-332,-200,218,256,210,102,-52
321,-175,-496,-73,409,-335,-221,191,226,191,98,-46
347,-200,-547,-73,447,-373,-231,170,210,174,92,-45
363,-224,-587,-70,475,-405,-255,136,177,147,72,-65
343,-276,-619,-34,481,-447,-280,119,155,108,63,-83
367,-279,-645,-44,506,-462,-294,99,145,100,57,-81
352,-330,-682,-11,518,-506,-343,26,73,36,10,-116
303,-405,-708,51,506,-556,-427,-124,-81,-114,-75,-182
407,-418,-824,5,616,-621,-572,-253,-199,-242,-114,-208
400,-383,-783,-8,591,-582,-682,-529,-509,-452,-128,-176
53,106,53,-80,0,80,-704,-982,-1039,-683,-52,0
-388,702,1090,-157,-740,896,-278,-784,-924,-387,187,231
-736,1092,1828,-178,-1283,1459,240,-501,-734,-156,259,295
-754,915,1668,-81,-1211,1291,370,-494,-773,-337,-6,40
-656,-15,641,336,-649,313,682,-48,-360,-243,-320,-358
-566,-444,122,505,-344,-161,810,153,-165,-168,-390,-460
-295,-343,-48,319,-124,-196,565,99,-106,-113,-259,-342
-40,-255,-215,148,87,-234,246,90,2,-9,-135,-233
227,-272,-499,23,363,-385,-150,34,17,1,-75,-171
419,-436,-855,9,637,-645,-349,60,96,24,-44,-140
457,-463,-920,3,689,-691,-348,105,155,71,12,-104
528,-429,-957,-49,743,-693,-360,163,228,141,62,-79
558,-410,-968,-74,764,-689,-427,160,231,132,66,-63
566,-423,-989,-72,778,-706,-456,158,227,129,64,-58
579,-453,-1031,-63,805,-742,-463,162,239,144,66,-50
593,-467,-1060,-62,827,-763,-486,157,238,143,63,-45
627,-472,-1099,-77,863,-785,-507,162,258,157,73,-36
651,-464,-1115,-93,883,-790,-532,153,265,158,66,-39
680,-499,-1180,-90,930,-839,-552,152,269,151,69,-50
725,-514,-1239,-105,982,-877,-586,145,270,144,93,-41
788,-512,-1300,-137,1044,-906,-621,143,275,136,93,-32
822,-532,-1353,-145,1088,-942,-647,133,266,130,88,-24
848,-565,-1413,-142,1131,-988,-698,101,247,121,85,-19
868,-593,-1460,-137,1164,-1026,-735,80,233,107,81,-21
875,-589,-1464,-143,1169,-1027,-762,69,218,93,78,-17
870,-597,-1467,-136,1169,-1032,-778,57,204,85,75,-15
846,-582,-1428,-132,1137,-1004,-765,55,183,82,81,-15
826,-522,-1348,-151,1087,-935,-726,55,162,78,78,-11
745,-480,-1225,-132,986,-852,-665,51,148,75,87,-7
652,-444,-1097,-104,875,-770,-606,50,135,70,96,-2
552,-422,-974,-65,764,-698,-535,50,120,74,87,-1
487,-380,-866,-53,677,-623,-465,45,106,86,81,-6
491,-327,-818,-81,655,-573,-424,41,95,91,74,-11
456,-330,-787,-63,622,-558,-405,39,85,86,68,-16
441,-329,-770,-55,606,-550,-394,34,77,79,61,-20
428,-330,-758,-49,593,-544,-389,31,68,73,54,-25
419,-330,-749,-45,584,-539,-390,27,58,66,47,-28
419,-331,-750,-44,585,-540,-389,23,55,60,41,-32
383,-366,-749,-9,566,-557,-390,17,53,55,39,-36
379,-370,-749,-4,564,-560,-389,14,49,55,36,-35
378,-371,-749,-4,564,-560,-392,9,47,55,34,-34
366,-384,-751,9,559,-568,-396,5,44,55,30,-30
380,-380,-760,0,570,-570,-399,11,47,55,31,-30
402,-371,-773,-15,588,-572,-395,13,54,55,35,-29
408,-367,-775,-20,592,-571,-390,9,50,55,35,-24
417,-357,-774,-29,596,-565,-395,10,41,55,35,-21
417,-358,-774,-29,596,-566,-401,10,37,55,35,-18
402,-373,-775,-14,589,-573,-399,10,27,55,35,-13
402,-372,-774,-15,588,-572,-398,10,30,55,32,-11
399,-380,-779,-9,589,-579,-410,5,41,62,27,-9
411,-381,-791,-15,601,-586,-404,5,39,61,24,-14
415,-372,-787,-21,602,-580,-392,5,40,60,21,-21
410,-375,-784,-17,598,-579,-402,5,40,59,15,-15
403,-381,-783,-11,593,-582,-404,5,39,54,19,-11
387,-389,-777,1,582,-583,-405,5,42,56,35,-7
402,-383,-784,-9,593,-583,-405,5,37,55,34,-1
399,-375,-774,-12,587,-575,-404,4,44,63,27,2
409,-375,-783,-17,596,-579,-409,6,34,56,28,7
429,-361,-790,-34,610,-575,-408,4,47,65,18,3
420,-376,-796,-22,609,-586,-411,7,45,66,24,11
415,-369,-783,-23,599,-576,-407,8,54,73,25,8
403,-383,-786,-10,595,-584,-412,11,49,69,26,11
385,-397,-782,6,584,-589,-407,9,46,67,25,10
383,-390,-772,4,578,-580,-411,10,61,78,28,13
410,-406,-815,-2,613,-610,-410,12,29,56,42,28
405,-373,-779,-16,592,-576,-409,3,93,102,23,3
413,-442,-855,15,634,-648,-414,14,-10,29,56,33
392,-273,-665,-59,528,-469,-407,-26,209,182,-19,-43
430,-143,-574,-143,502,-358,-657,-57,345,300,-36,-55
556,-292,-848,-132,702,-569,-866,-58,11,83,97,80
546,-267,-813,-139,680,-540,-828,-76,56,107,87,67
535,-282,-817,-126,676,-550,-832,-67,57,105,89,65
542,-278,-819,-132,680,-548,-799,-71,38,90,92,68
533,-258,-792,-137,663,-525,-776,-69,65,104,82,78
542,-270,-812,-135,677,-541,-767,-69,31,89,88,91
537,-260,-798,-138,668,-529,-750,-71,73,118,88,81
557,-266,-824,-146,691,-545,-750,-67,57,107,99,85
572,-278,-850,-146,711,-564,-741,-78,43,104,88,77
562,-304,-867,-129,715,-585,-741,-75,40,93,90,82
566,-297,-863,-134,714,-580,-729,-70,37,88,82,73
573,-305,-878,-134,726,-591,-703,-59,44,92,80,67
567,-303,-870,-132,719,-586,-672,-57,54,89,77,62
548,-311,-859,-118,704,-585,-639,-49,63,93,69,52
519,-332,-851,-93,685,-591,-619,-42,61,90,69,52
500,-350,-850,-75,675,-600,-609,-36,64,87,58,47
481,-354,-835,-63,658,-594,-601,-12,70,96,63,54
481,-365,-846,-58,664,-605,-600,-25,56,80,47,45
453,-312,-765,-70,609,-539,-580,-23,57,99,55,55
358,-259,-617,-50,488,-438,-622,-236,-171,-27,34,48
415,-265,-679,-75,547,-472,-750,-360,-191,-27,117,124
665,-207,-872,-229,769,-539,-927,-416,-179,-12,218,227
932,-452,-1384,-240,1158,-918,-1081,-777,-563,-427,-9,53
1145,-862,-2007,-141,1576,-1434,-1261,-1101,-891,-856,-258,-144
840,-1004,-1845,83,1343,-1425,-1309,-1420,-1335,-1246,-517,-330
258,-881,-1139,312,699,-1010,-1076,-1224,-1215,-1096,-563,-382
226,-610,-836,192,532,-723,-806,-564,-514,-449,-251,-171
389,-450,-840,31,615,-645,-545,-126,-76,-56,-50,-35
412,-400,-812,-6,612,-606,-452,31,93,92,26,18
440,-379,-818,-30,629,-598,-455,46,112,115,50,38
453,-358,-811,-47,632,-584,-427,102,155,150,59,52
463,-344,-808,-59,636,-576,-430,108,163,168,74,57
467,-338,-805,-64,636,-572,-411,122,178,180,81,53
460,-348,-808,-56,634,-577,-410,155,199,190,85,57
455,-357,-812,-49,634,-584,-404,153,202,195,80,54
459,-346,-805,-56,632,-576,-399,157,220,217,80,56
457,-348,-805,-54,632,-577,-396,162,222,214,80,54
470,-330,-800,-70,635,-565,-389,168,230,215,80,55
462,-338,-800,-62,631,-569,-381,183,241,217,80,55
436,-359,-795,-38,616,-577,-372,190,245,224,82,59
441,-345,-787,-48,614,-566,-364,197,255,232,86,60
431,-350,-781,-40,606,-565,-349,221,275,241,85,60
449,-324,-773,-62,611,-548,-327,232,281,247,84,60
477,-288,-765,-95,622,-526,-303,251,295,253,90,61
