I,II,III,aVR,aVL,aVF,V1,V2,V3,V4,V5,V6
11,83,73,-47,-31,78,0,-10,10,15,20,25
20,117,97,-69,-39,107,-2,-9,15,23,24,29
33,163,129,-98,-48,146,-37,-22,16,29,40,43
64,192,128,-128,-32,160,-77,-36,8,35,56,52
56,184,128,-120,-36,156,-72,-33,4,40,59,57
7,133,126,-71,-60,129,-71,-42,-5,10,34,48
10,57,47,-34,-19,52,-50,-46,-18,-14,11,11
4,5,0,-4,2,3,-24,-41,-32,-26,-6,-12
-8,-21,-13,15,3,-17,-19,-39,-41,-47,-26,-26
-12,-39,-27,25,7,-32,-21,-34,-38,-48,-34,-37
-23,-62,-39,43,8,-51,-19,-32,-44,-63,-43,-48
-16,-66,-50,41,17,-57,-20,-28,-36,-57,-45,-57
-24,-75,-52,49,14,-63,-21,-33,-45,-68,-64,-67
-32,-79,-47,55,8,-63,-11,-26,-37,-61,-59,-65
-32,-78,-46,56,7,-61,-20,-35,-53,-52,-59,-63
-40,-85,-45,63,3,-65,2,-25,-50,-67,-75,-70
-27,-69,-42,49,8,-55,-22,-34,-36,-27,-48,-55
-52,-103,-51,78,0,-76,31,0,-54,-96,-102,-88
-85,-87,-2,86,-41,-44,102,37,18,-56,-94,-90
10,-63,-73,27,42,-68,157,207,191,138,67,1
281,187,-94,-234,187,46,-43,454,749,954,743,393
315,324,10,-319,152,167,-656,-395,115,808,850,577
-49,-69,-20,60,-15,-44,-782,-1335,-1387,-911,-263,100
-224,-222,3,223,-113,-109,-556,-1056,-1274,-1133,-590,-146
-161,-125,36,143,-98,-44,-346,-572,-653,-542,-310,-119
-101,-63,38,82,-69,-13,-113,-224,-297,-285,-186,-104
-58,-28,30,43,-44,1,-50,-63,-77,-65,-65,-39
-21,-40,-18,31,-1,-29,5,-26,-65,-70,-62,-38
4,-23,-26,9,15,-24,15,17,1,-7,-19,-33
12,-24,-36,6,24,-30,13,14,-2,-21,-21,-33
30,-15,-45,-7,38,-30,38,34,22,-4,-11,-30
27,-12,-38,-7,33,-25,39,37,27,5,-4,-29
25,-8,-33,-9,29,-20,42,52,36,5,-3,-28
24,-3,-27,-10,26,-15,44,57,50,21,9,-23
21,-1,-23,-10,22,-12,46,65,55,18,7,-22
24,4,-20,-14,21,-8,46,75,62,33,4,-18
23,7,-16,-14,19,-5,53,82,70,33,-5,-15
26,12,-15,-18,20,-1,60,95,92,41,-1,-14
29,19,-10,-24,19,4,69,116,109,50,14,2
33,22,-11,-27,21,6,96,146,134,62,39,29
33,30,-2,-32,17,14,111,166,149,62,39,37
24,32,8,-29,8,20,116,185,161,56,35,34
21,34,12,-28,4,23,131,187,161,51,34,36
36,75,39,-55,-2,57,137,175,152,47,31,52
28,89,60,-59,-16,74,129,169,147,40,29,57
13,88,75,-51,-31,81,119,160,138,36,37,62
35,110,75,-72,-20,92,112,149,134,51,67,74
38,101,63,-70,-12,82,85,127,122,53,64,64
28,84,56,-56,-14,69,51,91,86,40,36,47
17,62,46,-40,-15,54,37,54,56,35,20,31
0,34,33,-17,-17,33,23,28,29,15,5,15
-12,1,13,5,-13,7,15,10,-4,-24,-25,-11
-43,-34,9,39,-26,-12,12,-7,-29,-52,-57,-29
-53,-42,11,47,-32,-15,8,-15,-40,-55,-60,-31
-45,-39,6,42,-26,-17,5,-19,-40,-55,-61,-34
-44,-38,5,40,-24,-16,1,-18,-40,-61,-65,-37
-36,-32,4,34,-20,-14,-3,-14,-40,-58,-65,-40
-30,-29,1,29,-15,-14,-5,-15,-40,-52,-53,-39
-22,-24,-2,23,-10,-12,-5,-11,-38,-49,-37,-34
-14,-19,-5,17,-5,-12,-9,-10,-32,-44,-35,-31
-9,-16,-7,13,0,-11,-10,-11,-27,-39,-32,-27
-2,-13,-11,8,5,-12,-10,-15,-24,-36,-29,-23
-3,-10,-7,7,2,-9,-10,-15,-18,-33,-26,-20
-10,-8,2,9,-6,-3,-10,-16,-15,-30,-24,-20
-3,-4,-1,4,0,-2,-10,-20,-20,-28,-21,-20
2,-9,-11,4,7,-10,-10,-20,-20,-24,-18,-19
-4,-21,-18,13,7,-19,-10,-23,-20,-28,-15,-22
5,-21,-27,8,16,-24,-8,-25,-21,-30,-13,-26
9,-19,-28,5,19,-23,-4,-28,-19,-30,-8,-25
3,-21,-24,9,13,-22,-5,-31,-23,-30,-17,-25
7,-19,-27,7,17,-22,-5,-34,-25,-30,-41,-25
-1,-21,-20,11,10,-20,-5,-35,-25,-30,-46,-24
4,-18,-21,7,13,-19,-5,-29,-29,-25,-44,-28
8,-10,-18,1,13,-14,0,-24,-30,-25,-40,-33
7,-5,-12,-1,10,-8,0,-19,-30,-21,-35,-28
23,4,-19,-13,20,-7,0,-13,-21,-20,-32,-23
-9,7,16,1,-13,12,-1,-7,-8,-15,-24,-20
-10,34,44,-12,-27,39,1,-8,3,15,-3,-8
15,55,40,-35,-13,47,-3,-10,12,26,14,12
13,69,56,-41,-22,63,-12,-11,20,25,17,20
41,137,96,-89,-28,116,-23,-14,30,43,40,30
58,169,111,-114,-27,140,-51,-15,25,59,66,52
61,163,101,-112,-20,132,-54,-9,26,75,80,60
57,149,93,-103,-18,121,-47,-14,19,51,57,60
19,67,48,-43,-15,57,-45,-32,-16,11,23,31
-2,-4,-1,3,-1,-3,-38,-34,-29,8,16,-17
-5,-33,-28,19,11,-30,-28,-26,-32,-8,-30,-44
-9,-56,-48,33,20,-52,-17,-18,-28,-11,-52,-45
-14,-74,-61,44,24,-67,-9,-14,-32,-23,-48,-44
-18,-79,-61,48,22,-70,-2,-7,-28,-30,-48,-46
-24,-81,-57,52,17,-69,-6,-14,-28,-26,-40,-42
-23,-90,-67,57,23,-78,7,-3,-27,-38,-46,-49
-13,-84,-72,49,29,-78,-3,-7,-16,-17,-33,-45
-29,-100,-71,65,21,-85,13,-4,-29,-47,-58,-65
-28,-85,-58,57,16,-71,-2,-4,-1,-11,-30,-50
-50,-113,-62,82,6,-87,13,-2,-33,-58,-62,-58
-80,-122,-42,101,-19,-82,101,64,17,-53,-98,-105
-33,-110,-77,72,22,-93,152,144,106,38,-54,-80
207,60,-147,-133,177,-43,102,459,620,693,495,230
364,346,-18,-355,190,163,-436,-13,510,1145,1037,617
47,80,33,-64,7,57,-755,-1138,-1061,-416,95,289
-208,-231,-23,219,-92,-126,-553,-1162,-1457,-1276,-643,-142
-157,-174,-17,166,-70,-96,-368,-660,-783,-672,-400,-142
-74,-95,-21,85,-27,-58,-127,-294,-383,-352,-241,-116
-26,-48,-22,37,-2,-34,-22,-64,-83,-84,-84,-72
-18,-58,-40,38,12,-49,16,-15,-42,-44,-66,-60
-5,-56,-51,31,23,-54,46,44,18,-4,-40,-43
-6,-72,-66,39,30,-69,41,59,35,23,-14,-33
-10,-74,-64,42,27,-69,53,71,42,29,-17,-34
-13,-63,-50,39,19,-56,48,71,60,55,0,-26
-16,-62,-46,39,15,-53,57,77,59,37,-6,-26
-13,-50,-37,32,12,-44,57,79,80,51,9,-19
-1,-37,-36,19,18,-36,63,87,78,41,7,-19
-11,-40,-29,25,9,-34,65,100,96,58,19,-13
-17,-43,-26,30,5,-34,65,100,103,58,24,-10
8,-12,-20,2,14,-16,71,127,118,68,31,-4
7,-3,-10,-2,8,-6,78,137,136,81,35,6
8,8,0,-8,4,4,88,148,153,95,36,13
27,38,10,-33,8,24,97,173,177,103,52,21
28,47,19,-38,4,33,112,186,187,94,56,27
19,50,31,-35,-6,40,120,191,190,94,53,30
28,65,37,-47,-5,51,124,186,186,90,57,40
30,92,62,-61,-16,76,123,179,176,85,54,48
16,100,84,-58,-34,92,118,175,169,88,58,50
23,107,84,-65,-31,95,115,167,161,91,72,56
36,127,91,-82,-28,108,99,150,149,97,70,54
35,118,84,-77,-25,101,75,116,124,92,58,56
28,98,70,-63,-21,84,48,76,85,62,52,53
5,58,53,-32,-24,55,35,52,50,25,30,21
-22,14,36,4,-29,24,34,33,28,-2,3,-13
-25,6,32,9,-29,18,30,18,7,-7,1,-37
-25,1,26,12,-26,13,27,5,-7,-19,-30,-55
-28,-6,23,17,-25,8,25,-1,-11,-46,-58,-60
-26,-9,18,17,-22,4,22,1,-16,-46,-36,-55
-36,-22,13,29,-24,-4,20,-3,-22,-35,-24,-47
-33,-25,8,29,-20,-8,20,-5,-28,-29,-18,-41
-19,-17,2,18,-10,-7,16,-5,-28,-20,-10,-34
-8,-11,-3,10,-2,-7,15,-2,-21,-13,-5,-29
5,-4,-9,0,8,-6,15,4,-14,-4,3,-24
9,3,-6,-5,7,-2,11,9,-8,4,5,-19
5,5,0,-5,2,2,8,12,-1,13,9,-15
0,5,5,-3,-3,5,6,18,5,17,11,-10
-5,5,10,0,-8,7,2,19,5,22,14,-15
-12,5,17,3,-15,11,0,15,5,24,15,-22
-14,4,18,5,-16,11,-3,15,5,20,9,-30
-15,0,16,7,-15,8,-5,15,5,14,3,-33
-21,-7,14,14,-17,3,-5,15,6,11,-4,-30
-22,-11,11,17,-16,0,-9,15,2,6,-11,-30
-24,-15,10,20,-16,-2,-11,11,0,1,-18,-27
-10,0,10,5,-10,4,-10,9,0,2,-18,-25
-8,6,14,1,-12,10,-5,10,0,6,-8,-24
-14,18,33,-2,-24,25,3,10,0,8,0,-33
-7,43,50,-18,-29,46,9,10,0,10,8,-34
-6,24,30,-9,-19,27,16,9,16,34,23,-17
5,51,46,-29,-20,48,23,2,27,57,35,-6
5,76,71,-41,-34,73,22,-3,24,56,35,5
9,91,83,-50,-37,87,9,-8,25,58,35,10
17,142,125,-80,-54,133,-1,-13,26,68,55,27
30,167,137,-99,-54,152,-26,-20,23,67,74,44
68,208,140,-138,-37,174,-47,-15,31,77,83,61
67,177,110,-122,-22,143,-41,-18,17,63,66,58
16,84,68,-50,-26,75,-33,-35,-23,11,20,13
0,47,48,-24,-24,47,-29,-35,-40,-2,-9,-23
0,1,1,-1,0,1,-20,-30,-43,-18,-29,-43
-19,-48,-28,33,5,-38,-14,-27,-34,-26,-37,-45
-39,-71,-32,55,-3,-51,-5,-25,-36,-36,-46,-57
-53,-79,-26,66,-13,-52,4,-17,-27,-35,-45,-61
-32,-78,-46,55,7,-62,8,-21,-28,-34,-46,-53
-18,-97,-79,58,31,-87,18,-6,-22,-39,-55,-54
-4,-82,-78,43,37,-79,-1,-11,-17,-27,-44,-41
-10,-96,-86,54,38,-91,9,2,-26,-44,-67,-48
-24,-108,-84,66,31,-96,-14,0,-10,-17,-43,-36
-44,-136,-92,90,24,-113,34,10,-34,-79,-80,-61
-49,-142,-93,96,22,-117,131,80,23,-40,-91,-83
-6,-114,-108,60,52,-111,170,184,152,91,6,-42
203,91,-112,-147,158,-11,63,439,628,770,596,307
349,379,30,-364,159,204,-507,-184,262,948,967,649
-10,56,66,-23,-38,61,-749,-1179,-1198,-657,-81,228
-246,-251,-4,249,-121,-127,-533,-1063,-1343,-1236,-682,-142
-176,-145,30,160,-103,-57,-365,-614,-723,-641,-404,-132
-166,-104,62,135,-114,-21,-124,-264,-345,-341,-259,-121
-78,-83,-5,81,-36,-44,-14,-46,-57,-68,-94,-50
-11,-86,-74,49,32,-80,28,0,-22,-44,-76,-52
-15,-65,-49,40,17,-57,52,33,18,-7,-49,-50
-14,-78,-64,46,25,-70,47,41,19,4,-35,-43
-22,-89,-67,56,22,-78,58,74,51,25,-36,-40
-18,-61,-43,39,13,-52,54,72,69,49,-19,-30
1,-62,-63,30,32,-62,62,75,70,32,-23,-31
2,-55,-57,27,30,-56,62,75,86,46,-7,-23
-4,-50,-46,27,21,-48,65,89,86,51,-7,-23
-2,-48,-47,25,23,-47,69,109,103,71,-14,-17
-9,-40,-30,25,11,-35,69,106,103,65,-23,-15
3,-36,-38,17,21,-37,75,123,114,73,-14,-8
14,-38,-52,12,33,-45,84,141,141,84,-6,2
5,-17,-22,6,13,-19,90,151,154,83,-3,8
33,3,-30,-18,32,-13,102,181,169,97,14,24
44,10,-34,-27,39,-12,123,205,192,106,26,40
39,36,-3,-37,21,16,138,210,199,98,25,41
43,46,3,-45,20,25,146,210,192,94,25,45
31,54,23,-43,4,38,146,197,179,89,26,48
27,75,48,-52,-11,62,137,186,168,82,40,51
33,85,52,-59,-10,68,128,173,157,78,53,48
15,82,67,-49,-26,74,103,151,137,71,48,38
9,62,54,-36,-22,57,77,119,112,57,38,30
17,40,23,-29,-3,31,58,83,83,43,32,21
-4,17,21,-6,-13,18,45,52,46,28,17,8
-23,-8,15,15,-18,3,40,28,22,7,-18,-7
-36,-29,7,32,-21,-11,32,17,11,-10,-46,-31
-27,-50,-23,38,-2,-36,24,6,-6,-26,-51,-49
-8,-55,-46,31,19,-50,17,-6,-28,-42,-47,-53
-21,-55,-34,38,7,-43,11,-15,-41,-50,-45,-52
-32,-69,-37,51,2,-53,9,-15,-40,-50,-40,-47
-47,-65,-18,56,-14,-42,6,-15,-40,-50,-41,-44
-56,-63,-7,60,-24,-34,4,-15,-40,-50,-34,-41
-6,-18,-12,12,3,-15,0,-15,-41,-50,-40,-36
0,17,18,-9,-9,17,1,-14,-36,-47,-57,-35
-4,-29,-26,17,11,-27,5,-10,-22,-27,-38,-35
0,-5,-5,3,3,-5,5,-8,-8,-15,-22,-35
-31,-11,20,21,-26,4,10,-5,1,-14,-11,-35
-26,-53,-26,40,0,-39,10,-1,6,-10,-7,-35
-42,-32,10,37,-26,-11,6,-1,13,-8,-11,-35
-37,-29,7,33,-22,-11,3,8,13,-5,-9,-39
-20,-30,-11,25,-5,-20,-1,17,9,-3,-10,-40
-4,-30,-26,17,11,-28,-4,14,11,1,-10,-40
5,-30,-35,13,20,-32,-9,15,10,-1,-11,-45
-15,-31,-16,23,1,-23,-9,15,10,-6,-9,-45
-26,-16,10,21,-18,-3,-2,15,10,-8,-22,-44
-10,28,37,-9,-24,32,2,14,15,3,-21,-30
11,64,53,-38,-21,58,10,9,21,13,-10,-17
15,73,58,-44,-22,65,20,6,25,21,12,2
40,115,75,-78,-18,95,12,3,47,46,56,32
25,159,134,-93,-55,146,-28,-2,52,49,64,33
25,187,162,-106,-69,175,-59,-4,41,62,76,44
54,210,156,-132,-51,183,-50,-12,35,67,80,54
30,121,91,-75,-31,106,-37,-23,20,30,50,46
-2,23,26,-10,-14,24,-29,-19,7,15,34,30
-41,-21,20,30,-30,0,-24,-14,-5,-9,6,-13
-51,-56,-6,54,-22,-31,-17,-9,-7,-33,-18,-34
-40,-82,-41,61,1,-62,-15,-6,-10,-32,-24,-44
-41,-88,-48,65,4,-68,-4,1,-16,-40,-38,-55
-35,-75,-39,55,2,-57,-8,-4,-15,-28,-34,-50
-43,-83,-41,63,-1,-62,-2,-7,-27,-44,-48,-61
-34,-69,-35,52,1,-52,-7,-6,-25,-35,-39,-55
-45,-79,-34,63,-5,-57,-6,-17,-47,-61,-51,-69
-43,-87,-44,65,1,-65,0,-8,-15,-43,-42,-84
-41,-101,-60,71,10,-80,-18,-22,-33,-50,-40,-92
-39,-100,-61,70,12,-80,77,35,-4,-87,-106,-114
-25,-63,-38,44,7,-51,133,72,54,-26,-91,-111
96,-14,-110,-41,103,-62,154,355,401,389,277,101
352,286,-65,-319,208,110,-248,265,718,1141,967,553
164,214,49,-189,57,131,-782,-860,-560,141,473,449
-188,-201,-12,195,-88,-106,-685,-1290,-1533,-1240,-539,-39
-203,-205,-2,204,-100,-103,-467,-822,-988,-872,-504,-150
-157,-129,28,143,-93,-50,-227,-403,-488,-412,-270,-122
-85,-87,-2,86,-42,-44,-42,-104,-146,-138,-112,-74
-46,-60,-14,53,-16,-37,2,-35,-40,-29,-55,-46
-37,-70,-33,54,-1,-51,45,21,-1,-34,-61,-53
-8,-56,-48,33,20,-52,35,40,45,18,-30,-43
1,-61,-61,30,31,-61,51,44,36,10,-41,-45
3,-51,-55,24,29,-53,51,61,52,47,-20,-37
-1,-51,-50,26,24,-51,55,59,45,34,-23,-36
1,-46,-47,23,24,-46,61,76,72,46,-10,-31
-1,-42,-41,21,20,-41,58,80,75,45,-7,-24
1,-37,-38,18,20,-38,64,90,84,51,-1,-18
-2,-33,-31,18,14,-32,71,102,97,64,4,-11
-1,-28,-27,15,13,-27,83,121,116,69,7,-4
-1,-22,-21,11,11,-21,101,136,132,79,13,0
6,-8,-14,2,10,-11,106,148,145,87,17,-9
11,0,-12,-5,11,-6,111,174,168,104,40,-3
8,17,9,-13,-1,13,132,207,184,104,38,15
31,57,26,-44,2,42,148,224,196,106,52,32
34,59,25,-47,4,42,153,219,201,112,81,50
61,86,24,-74,18,55,148,211,190,110,80,55
71,104,33,-88,19,68,143,205,180,111,85,62
39,100,61,-69,-11,80,140,194,169,110,87,67
41,109,68,-76,-13,88,121,169,158,111,90,58
28,87,59,-58,-16,72,90,138,135,99,88,46
13,68,55,-40,-21,61,63,104,95,71,66,35
5,53,47,-29,-21,50,47,72,54,43,35,19
5,31,25,-18,-10,28,41,34,19,13,-4,-10
1,6,5,-4,-2,5,34,6,-3,-12,-27,-25
-23,-20,3,21,-13,-8,27,5,-11,-25,-30,-26
-31,-32,-1,31,-14,-16,25,5,-14,-32,-42,-27
-27,-31,-4,29,-12,-17,22,5,-17,-32,-46,-25
-18,-27,-9,23,-4,-18,19,5,-22,-29,-41,-25
-16,-25,-9,21,-3,-17,16,4,-25,-31,-39,-25
-19,-21,-2,20,-8,-12,14,0,-22,-30,-36,-24
-15,-20,-5,18,-5,-12,10,-5,-19,-30,-34,-27
-11,-16,-5,14,-3,-10,4,-8,-16,-29,-30,-30
-5,-10,-5,8,0,-7,1,-14,-14,-24,-30,-30
0,-5,-5,3,3,-5,-4,-15,-10,-19,-29,-30
6,1,-5,-2,5,-2,-9,-15,-11,-15,-25,-30
12,7,-5,-9,8,1,-11,-15,-16,-10,-25,-30
14,9,-5,-11,10,1,-10,-15,-14,-5,-27,-27
8,5,-4,-6,5,0,-10,-15,-18,-9,-31,-24
5,5,0,-5,2,2,-10,-15,-20,-10,-30,-21
5,5,0,-5,2,2,-10,-15,-20,-12,-30,-18
0,5,5,-3,-3,5,-10,-15,-16,-16,-30,-15
0,4,4,-3,-3,4,-5,-15,-10,-13,-30,-14
0,22,22,-11,-11,22,-6,-16,-4,-8,-28,-9
1,67,67,-34,-33,67,-3,-15,2,-1,-17,-4
5,79,74,-42,-35,76,-1,-14,5,2,-9,-2
16,101,85,-59,-35,93,2,-7,19,17,8,13
36,157,121,-96,-43,139,-7,-6,25,42,18,41
56,183,127,-120,-35,154,-43,-27,27,55,44,59
68,196,127,-133,-29,161,-51,-31,28,54,69,65
51,151,100,-101,-25,125,-42,-29,7,32,48,55
27,70,44,-49,-9,57,-36,-30,-6,6,18,19
17,32,15,-25,1,23,-30,-30,-13,-9,-29,-11
-3,-11,-8,7,3,-9,-21,-29,-27,-26,-60,-24
-5,-49,-44,27,20,-46,-19,-26,-31,-30,-52,-33
-6,-64,-58,36,26,-61,-13,-24,-39,-50,-57,-46
-17,-72,-55,45,19,-63,-9,-18,-30,-46,-55,-54
-26,-87,-61,57,18,-74,-9,-21,-40,-56,-70,-57
-28,-88,-60,58,16,-74,3,-10,-32,-57,-72,-53
-36,-99,-63,68,14,-81,-8,-22,-36,-49,-63,-44
-36,-104,-68,71,16,-86,8,-19,-35,-73,-77,-53
-17,-79,-63,48,23,-71,-27,-34,-16,-38,-47,-57
-36,-113,-77,75,21,-95,37,6,-41,-96,-97,-94
-41,-95,-54,68,6,-74,119,57,18,-61,-112,-101
20,-80,-100,31,60,-90,158,223,202,128,38,-17
273,143,-131,-208,202,6,-14,484,767,948,734,380
327,289,-38,-307,182,125,-623,-352,156,839,860,580
-32,-68,-37,51,2,-52,-780,-1316,-1366,-887,-246,116
-200,-219,-19,210,-90,-118,-559,-1053,-1278,-1134,-587,-136
-149,-129,20,138,-84,-54,-359,-578,-653,-541,-338,-122
-79,-61,18,70,-49,-21,-110,-223,-293,-290,-204,-108
-32,-33,-2,32,-15,-17,-34,-48,-54,-48,-60,-59
-15,-66,-51,41,18,-58,9,-13,-44,-61,-76,-69
-1,-54,-53,28,26,-53,24,46,12,-5,-40,-49
-11,-56,-46,34,18,-51,27,45,9,-7,-38,-48
-10,-50,-39,30,15,-45,35,59,39,7,-34,-41
-14,-46,-32,30,9,-39,34,58,47,21,-33,-35
-18,-45,-26,32,4,-35,42,61,49,10,-38,-34
-7,-27,-20,17,6,-23,38,62,60,26,-30,-26
9,-16,-25,4,18,-21,41,72,64,39,-2,-25
12,-12,-24,1,18,-18,38,81,85,59,25,-15
18,-9,-27,-4,22,-17,51,90,95,55,18,-9
24,-6,-30,-9,27,-17,66,119,113,69,21,1
30,-1,-31,-14,30,-16,71,132,126,73,22,7
27,1,-26,-14,27,-12,84,161,147,86,39,14
25,16,-8,-20,16,4,102,187,174,102,50,17
41,43,2,-42,19,22,119,195,184,98,48,21
49,58,10,-54,19,34,127,219,198,109,61,43
53,68,15,-60,19,41,126,222,202,111,73,52
45,74,29,-59,8,51,115,209,192,110,79,60
53,103,50,-78,2,76,108,201,187,109,88,61
62,120,58,-91,2,89,99,188,178,103,87,52
55,113,59,-84,-2,86,83,157,154,107,75,46
48,100,53,-74,-3,76,77,114,119,93,70,39
10,61,51,-35,-21,55,48,76,80,63,50,31
-12,19,31,-4,-22,25,27,41,40,25,19,14
-16,-13,3,14,-9,-5,32,21,12,-7,5,2
-25,-26,0,25,-12,-13,28,15,-1,-18,-6,-7
-41,-41,0,41,-21,-20,25,10,-15,-31,-13,-13
-48,-51,-4,50,-22,-27,25,5,-30,-42,-39,-34
-37,-42,-5,40,-15,-24,23,-2,-30,-40,-64,-52
-36,-40,-5,38,-15,-22,18,-4,-25,-37,-57,-43
-34,-35,0,35,-17,-17,15,0,-23,-35,-54,-38
-30,-31,0,30,-15,-15,12,0,-18,-32,-51,-32
-29,-26,2,27,-15,-12,7,2,-15,-30,-46,-27
-24,-19,5,21,-15,-7,5,5,-11,-27,-35,-21
-18,-13,5,15,-11,-4,10,5,-10,-22,-21,-14
-11,-6,5,8,-8,0,10,2,-10,-19,-14,-12
-4,1,5,1,-5,3,10,-1,-6,-16,0,-4
0,4,5,-3,-3,4,10,0,-4,-11,-3,-16
-2,-2,0,2,-1,-1,10,0,-7,-11,-21,-31
-6,-6,0,6,-3,-2,7,0,-10,-15,-20,-22
-9,-11,-1,10,-4,-6,5,-1,-10,-15,-16,-16
-10,-15,-5,13,-2,-10,5,-5,-12,-15,-15,-9
-14,-20,-5,18,-5,-12,1,-5,-15,-15,-10,-2
-29,-32,-3,31,-13,-17,-1,-7,-15,-16,-10,-2
-33,-30,3,31,-18,-14,1,-11,-11,-10,-16,-9
-26,-20,6,23,-16,-7,4,-10,-5,-2,-21,-14
-25,-13,12,19,-18,0,9,-7,0,6,-29,-20
-21,-7,14,13,-17,3,12,-1,6,14,-25,-25
-16,18,34,-1,-25,26,15,4,11,21,-1,-7
-6,46,52,-20,-29,49,21,7,16,28,12,17
9,53,44,-31,-18,49,16,13,24,23,21,22
12,82,70,-47,-29,76,1,14,36,40,26,24
31,143,112,-88,-40,127,-17,7,36,55,51,46
49,162,114,-106,-33,138,-31,-1,25,67,66,61
42,149,107,-96,-33,128,-24,-6,15,72,57,60
23,130,107,-77,-42,118,-16,-18,6,44,48,57
-6,51,57,-23,-32,54,-8,-27,-3,10,5,20
-14,-13,1,14,-8,-6,0,-21,-6,-9,-30,-17
-22,-45,-23,34,1,-34,6,-20,-13,-21,-46,-35
-24,-67,-43,46,9,-55,16,-15,-19,-29,-53,-42
-30,-73,-43,52,7,-58,19,-12,-23,-22,-46,-37
-42,-88,-46,65,3,-67,26,-9,-28,-30,-60,-49
-24,-89,-65,57,21,-77,17,-9,-20,-18,-49,-54
-18,-90,-72,54,28,-81,22,-12,-32,-34,-64,-58
-3,-68,-65,36,31,-66,20,-6,-16,-16,-61,-47
-30,-95,-66,63,18,-80,17,-17,-34,-42,-68,-51
-51,-111,-60,81,4,-85,27,-1,-16,-46,-66,-44
-48,-108,-60,78,6,-84,10,-11,-19,-36,-58,-43
-79,-122,-43,101,-18,-82,87,42,-9,-83,-116,-86
-70,-102,-32,86,-19,-67,137,81,57,-7,-89,-80
55,-52,-106,-2,81,-79,180,348,380,344,198,73
345,277,-68,-311,206,104,-167,364,792,1198,943,528
248,262,14,-255,117,138,-720,-753,-391,398,622,502
-148,-164,-16,156,-66,-90,-667,-1332,-1550,-1212,-501,-15
-196,-203,-8,200,-94,-105,-459,-877,-1066,-969,-540,-138
-132,-110,22,120,-77,-43,-244,-459,-546,-479,-310,-133
-109,-77,32,93,-70,-22,-49,-139,-190,-209,-158,-104
-56,-68,-13,62,-21,-40,0,-34,-45,-42,-50,-53
-22,-68,-46,45,12,-57,50,8,-24,-54,-82,-50
-18,-54,-36,36,10,-45,42,36,29,-1,-41,-37
-12,-54,-42,33,16,-48,46,48,27,-27,-22,-42
-3,-42,-38,23,18,-40,45,64,55,7,-6,-32
2,-39,-41,18,22,-40,43,58,42,3,-27,-32
7,-30,-37,12,23,-33,48,67,61,18,-16,-27
7,-24,-31,9,19,-27,48,67,69,27,-11,-25
9,-18,-26,5,18,-22,54,84,80,31,-11,-24
7,-12,-19,3,13,-15,54,89,88,51,-1,-20
8,-8,-16,0,12,-12,61,96,94,58,-2,-20
7,-1,-8,-3,8,-4,69,118,118,72,19,-13
8,3,-5,-5,6,-1,76,133,133,72,33,-2
7,11,4,-10,1,7,89,150,149,85,36,7
21,27,6,-24,7,16,102,173,174,102,46,19
34,52,17,-43,8,34,118,200,195,100,70,36
21,55,34,-39,-7,45,123,214,202,100,96,45
32,67,34,-50,-1,50,116,203,200,99,97,67
44,104,60,-74,-8,82,111,192,194,94,101,83
43,116,73,-79,-16,94,104,180,189,95,104,79
43,111,69,-77,-13,90,101,164,178,103,107,80
39,104,65,-72,-13,85,82,140,158,95,114,82
40,106,67,-73,-14,86,58,98,118,78,92,65
28,74,46,-51,-10,60,51,57,70,52,46,28
14,22,8,-18,3,14,44,29,30,10,-7,-7
-1,13,14,-6,-8,13,37,15,6,-8,-22,-25
-22,-8,15,15,-18,4,31,10,0,-18,-15,-25
-39,-33,6,35,-22,-13,25,2,-10,-31,-11,-24
-39,-35,3,37,-21,-16,21,-6,-19,-39,-16,-28
-26,-30,-4,28,-10,-17,16,-13,-30,-41,-49,-44
-17,-25,-9,21,-4,-16,14,-12,-43,-59,-62,-54
-15,-22,-7,18,-4,-14,9,-9,-39,-66,-57,-47
-15,-16,-1,16,-7,-8,6,-11,-34,-49,-48,-43
-13,-12,1,12,-7,-5,2,-10,-29,-38,-37,-37
-4,1,5,1,-5,3,-1,-11,-23,-31,-27,-31
16,17,1,-17,7,9,0,-9,-18,-26,-20,-26
25,22,-4,-23,14,9,0,-5,-12,-20,-19,-21
26,18,-8,-22,17,5,0,-5,-10,-15,-15,-20
25,16,-9,-20,16,3,-1,-3,-7,-10,-13,-19
15,12,-3,-13,9,5,-5,0,-4,-5,-9,-16
5,10,5,-8,0,7,-5,0,-1,-2,-13,-14
8,8,0,-8,3,4,-5,-3,0,4,-22,-17
5,2,-3,-3,4,-1,-5,-6,-5,3,-30,-23
-12,-2,10,7,-10,3,-5,-5,-8,-1,-39,-33
-16,-7,9,11,-12,1,-2,-5,-12,-3,-36,-39
-11,-11,0,11,-5,-5,0,-5,-15,-6,-34,-41
-11,-17,-5,14,-3,-11,0,-6,-20,-9,-36,-44
-12,-25,-13,19,1,-19,3,-10,-18,-11,-34,-46
-5,-24,-19,14,7,-21,6,-10,-15,-15,-36,-50
4,-17,-21,6,12,-18,4,-10,-15,-22,-32,-49
6,-14,-20,4,13,-16,1,-10,-15,-27,-29,-45
12,-9,-20,-1,16,-14,0,-10,-15,-33,-31,-45
16,-4,-20,-6,18,-11,0,-10,-15,-35,-26,-40
-9,-29,-20,19,6,-24,0,-10,-20,-35,-25,-40
-22,-41,-19,32,-2,-30,0,-10,-20,-38,-24,-37
-14,-28,-15,22,1,-21,2,-10,-23,-41,-27,-31
-25,-41,-15,34,-5,-28,7,-9,-26,-39,-38,-27
-31,-46,-15,39,-8,-30,10,-4,-22,-34,-33,-22
-29,-45,-15,37,-6,-30,13,-1,-16,-24,-23,-17
-31,-46,-15,39,-7,-30,19,2,-11,-21,-16,-14
-9,-15,-5,12,-2,-10,19,7,-5,-5,-9,-9
3,37,34,-20,-16,35,16,9,13,34,-3,-7
-10,60,71,-25,-40,65,13,15,23,49,4,-2
-7,68,75,-31,-41,71,17,23,18,41,9,-2
18,133,115,-76,-49,124,5,19,22,53,23,14
36,174,138,-105,-51,156,-42,14,19,65,62,56
51,168,118,-110,-33,143,-56,11,22,67,84,64
43,162,119,-102,-38,140,-43,4,13,56,48,43
-3,78,81,-38,-42,79,-41,-13,-23,12,19,11
-15,6,22,4,-19,14,-30,-22,-32,-16,16,-23
-7,-21,-14,14,4,-17,-14,-21,-28,-15,-8,-33
-10,-56,-47,33,19,-51,2,-17,-32,-31,-46,-46
-14,-58,-44,37,15,-51,2,-14,-27,-23,-44,-55
-41,-87,-46,64,3,-66,7,-13,-33,-29,-54,-61
-49,-94,-45,72,-2,-69,11,-7,-28,-21,-56,-60
-53,-97,-44,76,-4,-71,13,-11,-39,-24,-53,-59
-44,-101,-57,72,7,-79,17,1,-32,-21,-60,-63
-33,-91,-57,62,13,-74,3,-12,-36,-15,-46,-54
-43,-101,-58,72,8,-79,16,2,-37,-49,-69,-72
-33,-76,-42,55,4,-59,-8,-13,-28,-10,-30,-60
-70,-126,-56,98,-7,-90,52,9,-29,-67,-87,-95
-88,-112,-24,100,-32,-68,128,85,38,-43,-142,-135
9,-93,-102,42,56,-98,176,253,228,176,37,-22
276,198,-78,-237,177,59,-19,431,748,1032,801,416
327,491,164,-410,81,328,-624,-392,60,910,1026,682
-17,52,69,-18,-43,60,-735,-1232,-1381,-887,-196,172
-175,-221,-45,198,-65,-133,-495,-943,-1237,-1185,-666,-172
-107,-126,-18,117,-44,-72,-311,-507,-639,-567,-353,-136
-68,-95,-26,82,-21,-60,-81,-185,-283,-297,-223,-136
-71,-67,4,69,-37,-31,-20,-34,-51,-56,-70,-70
-46,-79,-33,63,-6,-56,13,4,-31,-64,-49,-65
-5,-65,-60,35,27,-62,36,58,39,3,-11,-55
-11,-64,-53,38,21,-59,44,54,34,9,-23,-48
-11,-56,-46,34,18,-51,52,68,51,22,-17,-44
-15,-49,-35,32,10,-42,51,68,52,53,-3,-34
-13,-44,-30,29,9,-37,57,73,53,58,-6,-31
-13,-34,-21,24,4,-27,54,80,69,64,11,-22
-12,-30,-17,21,2,-23,55,95,82,56,34,-21
2,-6,-8,2,5,-7,56,106,98,64,55,-20
17,9,-8,-12,12,0,52,103,97,57,47,-31
38,16,-22,-27,29,-3,54,116,103,57,52,-20
41,23,-18,-32,29,2,65,126,124,79,50,-8
37,28,-9,-32,23,10,66,139,141,100,46,-9
36,36,0,-36,18,17,88,164,166,97,45,-3
35,43,8,-39,13,26,97,174,181,91,44,-3
44,72,28,-58,8,50,100,182,174,86,68,7
41,83,42,-63,-1,63,104,179,170,81,87,34
35,94,60,-65,-13,77,93,167,164,75,84,42
32,119,87,-75,-28,102,87,163,157,70,87,34
31,120,89,-76,-29,105,77,153,153,79,90,31
36,127,92,-82,-28,109,72,140,144,81,91,26
37,120,84,-79,-24,102,52,114,119,65,84,22
30,108,78,-69,-24,92,28,76,80,48,55,17
13,75,62,-44,-25,68,25,41,41,38,34,-3
1,33,32,-17,-16,32,22,20,13,23,22,-22
-4,23,27,-10,-16,24,19,12,-1,-15,4,-38
-6,14,20,-4,-13,16,16,6,-4,-33,-10,-27
-6,8,14,-1,-11,10,14,-1,-10,-41,-41,-25
-8,1,9,3,-9,5,11,-5,-12,-54,-68,-58
-9,-6,3,7,-6,-1,10,-5,-22,-68,-60,-55
-5,-13,-8,9,2,-10,9,-7,-37,-70,-56,-36
0,-13,-13,7,7,-13,4,-11,-33,-40,-53,-30
1,-6,-6,3,4,-6,5,-10,-30,-43,-51,-23
3,-2,-5,0,5,-3,3,-6,-27,-38,-45,-19
4,5,0,-4,2,2,-2,-5,-22,-22,-18,-13
7,9,2,-9,2,6,-5,-5,-20,-36,-4,-5
6,16,9,-12,-2,12,-8,-5,-15,-33,-3,-15
-7,13,20,-3,-14,16,-13,-5,-15,-29,1,-27
8,23,15,-15,-4,19,-15,-6,-15,-26,4,-19
31,41,10,-36,10,25,-10,-10,-15,-21,3,-15
30,34,5,-32,12,20,-10,-10,-15,-19,-1,-12
29,27,-2,-28,15,12,-10,-12,-15,-15,-4,-5
25,21,-4,-23,14,9,-10,-16,-15,-13,-5,-9
16,19,3,-18,6,11,-11,-15,-15,-9,-8,-23
8,20,13,-14,-3,16,-7,-12,-15,-7,-11,-36
8,20,11,-14,-2,15,-5,-10,-15,-3,-7,-36
10,20,10,-15,0,15,-5,-10,-15,-13,-4,-31
11,20,10,-16,1,15,-5,-10,-20,-27,-17,-28
12,18,6,-15,3,12,-5,-10,-25,-26,-26,-25
7,11,4,-9,1,7,-6,-11,-28,-22,-24,-20
0,7,7,-4,-4,6,-9,-15,-34,-21,-25,-18
-10,1,11,4,-10,5,-12,-15,-33,-15,-25,-12
-22,-5,17,13,-19,6,-14,-15,-26,-16,-25,-8
-30,-10,20,20,-25,5,-18,-15,-19,-10,-23,-3
-17,8,25,4,-21,17,-19,-15,-12,-2,-13,1
10,39,29,-24,-10,34,-23,-11,-6,7,-7,5
21,58,37,-40,-8,47,-25,-2,4,37,5,16
20,89,69,-55,-25,79,-25,5,16,34,15,19
23,106,83,-65,-30,94,-25,14,28,39,29,28
41,151,110,-97,-34,130,-24,19,33,66,58,50
60,205,145,-132,-43,174,-57,7,23,56,61,66
60,195,134,-128,-37,164,-71,-4,12,47,45,69
47,170,123,-108,-39,146,-60,-21,4,39,37,66
28,102,74,-65,-23,88,-58,-41,-24,12,17,35
20,24,4,-22,8,14,-46,-36,-37,-10,-12,-6
-2,-18,-16,11,7,-17,-29,-29,-33,-18,-29,-11
-25,-58,-33,42,4,-45,-15,-19,-31,-23,-31,-15
1,-58,-59,29,30,-58,-13,-13,-27,-21,-29,-16
-2,-64,-62,33,30,-63,-1,-6,-27,-34,-41,-22
-26,-84,-58,55,16,-71,0,-4,-21,-22,-33,-23
-32,-94,-62,63,15,-78,11,-2,-30,-33,-36,-32
-30,-87,-57,59,14,-72,13,5,-18,-17,-28,-31
-22,-98,-76,60,27,-86,14,0,-33,-31,-58,-44
-13,-95,-82,54,35,-88,19,12,-18,-24,-65,-53
-13,-90,-77,52,32,-83,8,-12,-30,-16,-46,-29
-40,-126,-85,83,23,-105,85,40,-4,-63,-108,-83
-36,-108,-71,72,18,-89,125,105,70,7,-85,-88
91,-22,-113,-34,102,-67,146,333,386,378,223,114
337,369,32,-353,152,200,-244,245,685,1186,1000,588
235,353,119,-295,58,236,-756,-771,-490,335,670,555
-121,-234,-113,178,-4,-174,-612,-1191,-1477,-1231,-550,-61
-188,-324,-136,256,-26,-229,-402,-756,-988,-977,-618,-235
-114,-148,-34,131,-40,-91,-216,-399,-502,-471,-317,-149
-68,-76,-8,72,-30,-42,-41,-114,-154,-191,-155,-80
-43,-64,-21,53,-11,-42,-8,-22,-24,-46,-61,-40
-12,-76,-64,44,26,-70,47,25,8,-46,-68,-51
3,-60,-64,29,34,-62,42,63,51,16,-31,-41
-3,-68,-66,36,32,-67,46,63,40,-6,-40,-46
2,-62,-65,30,34,-63,56,72,68,23,-18,-31
7,-58,-65,26,36,-61,60,70,62,17,-18,-26
14,-52,-65,20,40,-58,61,77,77,28,-10,-16
16,-42,-58,14,37,-49,59,80,78,43,1,-10
10,-40,-50,15,31,-45,60,87,90,50,10,-5
14,-28,-42,7,28,-35,65,95,96,65,12,0
12,-24,-36,6,24,-30,70,98,98,67,5,3
-19,-50,-31,35,6,-40,72,109,113,65,6,9
-22,-48,-26,35,2,-37,90,133,141,90,11,14
-12,-32,-20,22,4,-25,107,160,169,104,20,31
12,-2,-15,-5,14,-9,122,178,181,104,26,36
39,28,-11,-33,24,9,128,188,198,112,40,35
39,32,-6,-35,22,13,133,198,203,110,40,45
49,50,1,-49,24,25,131,189,194,111,38,47
36,73,37,-55,0,55,124,179,185,106,34,39
22,82,60,-53,-19,71,123,172,177,104,40,46
47,97,50,-73,-2,73,115,157,163,106,77,56
52,95,42,-74,5,68,99,135,147,93,88,52
40,72,32,-56,3,52,67,99,128,77,69,44
28,52,24,-41,2,38,39,64,90,59,36,19
16,15,-1,-15,9,6,32,44,55,34,8,-1
-2,-11,-9,7,4,-10,27,29,32,14,1,-10
-21,-20,2,20,-11,-8,24,18,15,3,-8,-23
-13,-30,-17,22,2,-23,19,14,-1,-3,-18,-30
-4,-42,-38,23,17,-40,15,9,-11,-8,-26,-30
5,-52,-57,24,31,-54,20,3,-10,-11,-33,-30
7,-47,-54,20,31,-50,20,-2,-10,-16,-31,-30
-3,-44,-41,24,20,-43,20,-8,-10,-20,-30,-30
-8,-41,-33,24,13,-37,20,-10,-9,-20,-30,-30
-12,-36,-24,24,7,-30,20,-10,-13,-20,-25,-25
-8,-34,-25,22,9,-30,18,-14,-15,-19,-25,-20
-5,-29,-25,17,10,-27,14,-16,-15,-24,-24,-16
-6,-31,-25,19,9,-27,16,-14,-19,-25,-19,-11
-2,-27,-26,15,12,-26,11,-11,-21,-18,-16,-6
-2,-25,-22,14,11,-23,10,-6,-19,-14,-13,-5
-6,-25,-20,15,7,-22,10,-4,-16,-8,-8,-5
-1,-21,-20,11,10,-21,6,0,-11,-2,-5,-5
0,-17,-16,9,9,-17,3,5,-9,-2,-9,-5
4,-11,-14,4,9,-12,0,3,-4,-5,-10,-5
7,-9,-15,1,11,-12,-2,-1,0,-5,-12,-5
9,-1,-10,-4,10,-5,-6,1,-2,-8,-16,-15
8,-3,-11,-3,9,-6,-3,-1,-10,-11,-13,-23
3,-5,-8,1,6,-7,4,1,-14,-9,-10,-15
-1,-5,-5,4,3,-5,8,4,-9,-4,-7,-9
3,-3,-6,1,4,-5,15,7,-3,8,-3,-3
21,22,2,-21,9,12,20,9,2,13,-1,5
15,49,34,-32,-10,41,25,13,7,26,7,9
17,89,72,-53,-28,80,15,15,14,33,18,28
35,112,77,-74,-21,95,4,12,28,38,30,24
32,149,117,-91,-43,133,-10,10,42,59,45,23
34,178,144,-106,-56,161,-41,6,39,65,60,64
36,164,128,-100,-46,145,-43,6,27,76,73,72
34,144,110,-89,-39,127,-49,-24,18,50,51,53
11,67,55,-39,-23,61,-44,-56,8,1,16,25
-20,-3,16,11,-18,6,-25,-47,4,-1,-1,-2
-21,-35,-15,28,-3,-25,-19,-38,-7,-15,-19,-15
-3,-39,-36,21,16,-37,-12,-26,-11,-18,-28,-26
-13,-60,-47,37,17,-53,-7,-21,-21,-21,-44,-37
-23,-84,-62,54,19,-73,3,-13,-19,-20,-47,-49
-22,-79,-58,50,18,-68,2,-12,-20,-23,-40,-55
-25,-92,-67,59,21,-79,9,-5,-23,-44,-52,-58
-21,-82,-61,52,20,-71,1,-2,-14,-24,-35,-50
-27,-103,-75,65,24,-89,18,-3,-31,-57,-58,-62
-32,-111,-79,72,24,-95,1,-7,-3,-23,-33,-46
-61,-141,-80,101,10,-110,37,8,-25,-66,-66,-62
-46,-106,-60,76,7,-83,105,62,21,-51,-105,-77
-13,-84,-71,49,29,-77,154,148,126,61,-34,-48
176,80,-95,-128,135,-7,93,430,617,716,526,256
338,379,41,-359,148,210,-478,-51,454,1119,1055,645
38,11,-28,-24,33,-8,-767,-1104,-1075,-464,75,258
-226,-364,-139,296,-43,-251,-536,-1106,-1432,-1328,-733,-207
-178,-244,-66,211,-56,-155,-349,-623,-763,-718,-482,-190
-54,-122,-68,89,7,-95,-122,-268,-354,-354,-255,-129
-6,-66,-60,36,27,-62,-20,-42,-62,-81,-67,-65
-26,-83,-57,55,16,-70,14,-5,-23,-52,-55,-65
-15,-71,-56,43,20,-63,45,39,30,-10,-41,-53
-20,-67,-47,43,14,-56,52,49,41,10,-27,-40
-10,-66,-56,38,24,-60,58,65,52,-2,-32,-38
3,-56,-59,27,31,-57,53,68,66,35,-13,-29
-1,-57,-56,29,28,-57,63,70,59,41,-18,-31
2,-47,-49,23,26,-48,58,80,74,57,-5,-22
3,-44,-47,21,25,-45,63,82,81,45,-13,-22
6,-35,-41,15,24,-37,66,89,102,55,-5,-17
8,-29,-38,11,23,-34,71,101,105,62,-4,-11
11,-23,-34,6,23,-28,80,116,118,72,-6,-4
15,-16,-31,0,24,-23,86,135,136,77,13,3
25,-2,-27,-11,26,-14,108,163,155,86,30,9
39,12,-27,-25,33,-7,118,184,185,108,42,27
54,21,-32,-37,43,-5,125,206,205,116,56,46
45,42,-2,-43,23,20,134,218,203,115,51,55
41,69,28,-55,6,48,126,212,196,116,71,59
49,98,49,-74,0,73,119,204,190,115,90,69
43,102,59,-73,-9,80,113,198,183,115,84,70
51,101,50,-76,1,75,103,184,176,115,86,70
54,132,77,-93,-12,104,99,156,171,126,84,84
38,116,78,-77,-21,97,83,128,147,114,87,81
20,63,43,-42,-12,52,58,95,108,75,77,49
11,37,26,-24,-8,31,48,58,71,36,42,17
0,11,11,-6,-6,11,44,39,31,8,6,0
-21,-18,3,19,-12,-7,39,22,4,-8,-21,-16
-19,-27,-8,23,-5,-17,35,11,-3,-17,-30,-26
-13,-40,-27,27,7,-33,30,9,-7,-28,-33,-24
-17,-48,-31,33,8,-40,26,6,-11,-43,-32,-26
-20,-44,-24,33,2,-34,24,4,-17,-46,-28,-24
-25,-46,-21,35,-1,-33,25,0,-20,-45,-37,-28
-26,-42,-16,35,-5,-29,25,1,-15,-45,-41,-31
-28,-40,-12,34,-8,-25,25,5,-12,-45,-36,-26
-33,-41,-7,37,-13,-24,24,7,-9,-45,-34,-24
-31,-36,-5,34,-13,-20,20,10,-4,-39,-29,-19
-25,-30,-5,28,-9,-17,20,13,-1,-32,-26,-15
-24,-25,-1,25,-11,-13,20,16,0,-26,-22,-17
-20,-20,0,20,-10,-9,20,11,0,-19,-20,-21
-13,-13,0,13,-6,-6,20,6,0,-12,-20,-23
-5,-11,-7,8,1,-9,17,1,0,-12,-17,-27
3,-15,-18,6,11,-16,14,-3,0,-16,-14,-28
8,-15,-23,4,16,-19,11,-8,0,-15,-16,-32
-3,-15,-12,9,5,-13,8,-11,-5,-18,-36,-44
-12,-15,-3,14,-4,-9,5,-8,-5,-21,-42,-42
-7,-12,-4,10,-1,-7,4,-5,-6,-19,-39,-36
-1,-6,-5,4,2,-5,-8,-2,-10,-15,-41,-33
5,-3,-8,0,6,-5,-13,0,-11,-7,-39,-27
3,3,1,-3,1,2,-7,4,-6,-4,-42,-24
-8,7,15,0,-12,10,-5,5,8,5,-9,-15
4,36,32,-20,-14,34,2,2,22,19,31,-5
29,76,47,-53,-9,61,4,-2,31,19,39,4
28,97,69,-63,-21,83,12,-5,38,39,45,18
42,140,99,-91,-29,119,-5,-8,41,58,58,37
60,157,98,-109,-20,127,-42,-9,41,59,73,58
64,155,92,-110,-14,123,-43,-3,28,51,80,54
53,131,79,-92,-13,104,-36,-13,12,33,69,41
11,58,47,-35,-18,52,-29,-30,6,16,23,21
5,16,11,-10,-3,13,-23,-29,2,0,-9,-24
1,-23,-24,11,13,-23,-15,-24,-6,-16,-17,-48
-14,-50,-36,32,11,-43,-12,-19,-8,-14,-21,-45
-13,-63,-50,38,19,-57,-9,-17,-18,-26,-31,-53
-5,-62,-56,34,26,-59,-5,-8,-12,-28,-35,-53
-5,-58,-53,32,25,-55,-7,-13,-17,-28,-40,-55
-16,-76,-60,47,22,-68,6,-7,-16,-36,-50,-57
-15,-71,-57,43,22,-63,-9,-13,-11,-23,-36,-51
-17,-81,-65,49,25,-72,3,-8,-24,-52,-58,-62
-15,-66,-51,41,18,-58,-27,-10,1,-11,-26,-45
-28,-90,-61,59,17,-75,16,-10,-22,-61,-77,-81
-38,-86,-48,63,5,-67,93,43,26,-51,-112,-113
5,-61,-67,29,36,-64,146,175,156,86,-20,-62
233,133,-100,-183,166,17,40,455,688,822,609,292
350,366,15,-358,167,190,-558,-168,348,1046,1024,617
23,5,-18,-14,21,-6,-791,-1212,-1210,-630,-34,209
-223,-291,-69,257,-77,-180,-568,-1111,-1385,-1261,-666,-157
-169,-177,-8,173,-81,-93,-369,-610,-716,-624,-396,-148
-89,-75,14,82,-51,-31,-129,-251,-334,-316,-227,-122
-52,-38,13,45,-32,-12,-36,-55,-71,-62,-81,-51
-22,-60,-37,41,8,-48,12,-24,-54,-55,-79,-51
-6,-47,-41,27,18,-44,30,25,2,-20,-55,-50
-4,-43,-39,23,17,-40,34,40,6,-7,-56,-45
3,-37,-40,17,22,-38,39,54,27,-6,-56,-47
5,-27,-32,12,19,-30,31,48,38,16,-44,-43
10,-27,-37,9,24,-32,33,55,38,10,-50,-42
9,-21,-30,6,20,-25,27,63,64,31,-37,-33
7,-21,-28,7,18,-25,48,69,67,39,-37,-32
8,-15,-23,4,16,-19,60,83,82,57,-26,-26
5,-16,-21,5,14,-18,67,101,91,70,-22,-22
6,-9,-15,2,11,-12,76,115,118,84,-14,-17
16,-2,-18,-6,17,-10,79,132,129,84,-5,-9
44,9,-35,-26,39,-13,95,161,151,97,3,-1
45,12,-33,-28,39,-11,122,175,176,113,12,9
24,24,-1,-24,13,11,133,195,182,122,22,22
28,66,38,-47,-5,52,135,217,208,130,42,31
27,75,49,-51,-11,62,141,217,212,130,52,47
50,101,51,-76,0,76,137,209,200,131,52,60
73,129,56,-101,8,92,131,203,194,130,67,64
68,124,55,-96,6,89,125,196,185,131,72,63
71,121,49,-96,11,85,109,172,167,126,59,53
68,110,42,-89,13,76,85,131,130,109,51,45
61,97,36,-80,12,66,58,86,91,83,33,36
32,61,29,-47,1,45,43,51,49,49,2,23
2,26,24,-14,-11,25,39,34,18,10,-23,-4
2,18,15,-10,-7,16,32,27,9,-12,-40,-29
-10,-4,6,7,-8,1,28,23,1,-11,-39,-35
-26,-21,5,23,-15,-8,22,18,-6,-25,-44,-35
-29,-24,5,26,-16,-9,20,14,-11,-46,-65,-35
-40,-40,0,40,-20,-20,20,9,-17,-45,-62,-35
-41,-40,1,40,-20,-19,20,6,-22,-41,-56,-35
-27,-29,-2,28,-12,-15,20,3,-28,-39,-53,-33
-21,-25,-4,23,-8,-15,19,0,-28,-36,-47,-26
-16,-19,-3,17,-6,-10,15,-3,-21,-35,-44,-21
-6,-16,-10,11,2,-13,11,-5,-16,-30,-35,-16
-2,-13,-11,7,5,-11,8,-5,-11,-25,-27,-10
1,-8,-9,4,5,-9,5,-5,-5,-21,-18,-6
6,-5,-11,0,9,-7,0,-5,-1,-16,-11,-9
1,-8,-9,3,5,-9,2,-5,0,-11,-10,-13
-3,-14,-11,9,5,-13,5,-5,0,-7,-6,-15
-2,-18,-16,11,7,-17,5,-5,0,-5,-4,-20
-2,-22,-21,12,10,-21,9,-1,0,-2,1,-17
-4,-28,-24,17,10,-26,10,0,0,1,-1,-15
0,-28,-29,14,15,-28,10,0,0,4,-5,-15
5,-26,-30,10,18,-27,10,0,0,5,-4,-11
6,-24,-30,9,19,-26,10,0,0,5,-8,-10
8,-22,-30,7,19,-26,10,2,0,5,-10,-10
13,-17,-30,2,22,-24,10,6,0,5,-11,-21
-3,-31,-28,17,13,-29,9,9,0,5,-2,-14
-17,-13,4,15,-10,-4,12,13,7,8,15,7
20,65,45,-43,-13,55,18,15,16,28,33,14
31,70,39,-51,-4,55,21,9,25,40,41,24
20,78,58,-50,-19,68,27,4,33,43,39,37
36,145,109,-90,-37,127,-6,-1,37,67,56,47
45,152,106,-99,-31,129,-42,-7,41,77,72,54
48,140,92,-94,-22,116,-37,-12,29,65,73,46
53,120,67,-86,-7,94,-34,-19,8,39,60,34
30,54,24,-42,3,39,-29,-21,-1,0,25,19
6,-9,-15,2,11,-12,-25,-19,-7,-15,0,-2
-6,-51,-45,29,20,-48,-16,-15,-16,-24,-14,-19
-22,-70,-47,46,13,-58,-12,-12,-20,-25,-14,-24
-32,-85,-52,58,10,-68,-4,-11,-32,-34,-27,-36
-17,-76,-60,47,21,-68,4,-6,-22,-27,-27,-41
-22,-84,-63,53,21,-73,2,-8,-28,-31,-33,-46
-36,-108,-72,72,18,-90,11,-1,-23,-32,-38,-45
-27,-107,-80,67,26,-93,-4,-9,-25,-23,-34,-43
-37,-119,-82,78,22,-100,18,-1,-29,-43,-51,-50
-27,-103,-77,65,26,-90,1,-9,-13,-8,-22,-41
-51,-136,-85,93,17,-110,48,28,-23,-68,-70,-70
-35,-108,-73,71,19,-90,122,70,37,-38,-71,-66
20,-82,-102,31,61,-92,164,205,191,131,59,-1
232,146,-86,-189,158,30,-18,431,701,876,694,375
356,354,-2,-355,179,176,-654,-351,130,815,901,625
-13,-47,-33,30,10,-40,-831,-1299,-1352,-835,-160,189
-208,-234,-26,221,-90,-130,-588,-1081,-1317,-1162,-572,-91
-139,-114,24,126,-81,-45,-367,-584,-661,-550,-280,-67
-116,-98,18,107,-67,-40,-108,-218,-278,-271,-151,-62
-56,-76,-20,66,-18,-48,-24,-44,-54,-67,-51,-40
-23,-81,-58,53,17,-69,24,-14,-33,-69,-50,-45
3,-67,-70,32,37,-68,45,36,22,-11,-20,-32
14,-67,-80,27,47,-73,55,55,26,-7,-18,-31
13,-59,-72,23,43,-65,65,66,49,12,-7,-24
13,-53,-66,20,39,-59,60,64,43,28,1,-18
10,-50,-60,20,35,-55,70,72,58,26,3,-15
11,-41,-52,16,32,-47,68,74,74,39,15,-7
11,-37,-48,13,30,-42,72,85,77,34,16,-3
12,-28,-40,8,26,-34,77,98,94,45,29,3
12,-23,-34,6,23,-28,84,106,99,52,36,9
11,-16,-27,2,20,-21,90,117,124,65,41,16
10,-11,-21,1,16,-16,95,132,136,68,43,23
15,1,-14,-8,14,-6,103,155,151,80,53,29
17,8,-9,-13,13,0,121,180,170,101,69,35
29,27,-2,-28,15,12,137,199,183,106,76,34
50,52,2,-51,24,27,143,217,186,101,82,38
39,48,9,-44,15,28,138,216,178,100,90,57
35,58,24,-47,5,41,131,207,175,95,96,67
52,88,36,-70,7,62,124,202,170,96,103,83
55,106,51,-81,2,78,118,181,166,97,110,93
45,100,54,-73,-5,77,103,146,152,88,103,79
33,73,41,-53,-4,57,73,105,117,82,91,68
29,52,23,-41,3,38,54,69,81,56,73,46
27,34,7,-31,10,20,38,41,44,19,43,15
17,18,1,-17,8,9,25,16,9,-2,14,-7
11,-1,-12,-4,12,-7,22,5,-3,-30,-4,-17
16,-28,-44,6,30,-36,16,0,-9,-47,-6,-12
7,-45,-52,19,30,-48,13,-5,-16,-41,-9,-27
4,-45,-49,21,27,-47,7,-9,-22,-36,-12,-42
4,-45,-49,20,27,-47,5,-14,-29,-31,-15,-34
1,-43,-44,21,23,-43,5,-15,-30,-24,-14,-31
7,-39,-46,17,27,-42,5,-15,-30,-22,-7,-26
1,-40,-41,20,21,-41,5,-15,-30,-30,-3,-21
-1,-36,-35,19,17,-36,5,-15,-30,-28,3,-20
-3,-29,-26,16,12,-27,5,-15,-31,-24,9,-20
0,-23,-23,12,12,-23,2,-15,-29,-21,14,-20
9,-15,-25,3,17,-20,-1,-10,-25,-16,12,-20
26,-11,-38,-7,32,-24,-2,-10,-21,-14,9,-20
17,-19,-36,1,27,-28,-6,-9,-18,-10,11,-20
-6,-28,-23,17,9,-25,-3,-5,-13,-10,8,-20
8,-37,-44,15,26,-40,0,-5,-10,-8,5,-20
-14,-41,-27,28,6,-34,0,-7,-14,-5,5,-20
-15,-39,-24,27,5,-31,1,-16,-15,-5,2,-19
4,-41,-44,19,24,-42,-15,-23,-15,-9,0,-29
-8,-39,-31,24,12,-35,-21,-20,-19,-14,0,-35
-9,-41,-31,25,11,-36,-15,-15,-21,-8,3,-29
-12,-38,-25,26,6,-31,-13,-10,-19,0,9,-25
8,-6,-14,-1,11,-10,-9,-7,-11,5,13,-21
20,29,9,-24,5,18,-5,-1,-1,14,19,-15
14,56,42,-35,-14,49,-2,-2,6,16,20,-6
26,78,52,-52,-13,65,1,-13,19,31,31,3
37,101,64,-69,-14,82,-2,-22,32,55,39,10
46,138,92,-92,-23,115,-43,-32,28,60,45,24
56,166,110,-111,-28,138,-67,-35,26,57,64,45
53,153,100,-103,-24,126,-56,-35,20,50,64,49
43,97,54,-70,-6,75,-51,-35,-4,14,38,14
22,31,9,-27,7,19,-44,-34,-14,-19,2,-21
-18,-24,-6,21,-5,-15,-37,-36,-20,-29,-32,-40
-24,-41,-17,33,-4,-29,-27,-31,-20,-31,-49,-62
-2,-42,-40,22,19,-40,-22,-31,-26,-34,-49,-65
-3,-60,-57,32,27,-58,-9,-25,-31,-43,-53,-66
-10,-68,-58,39,25,-63,-10,-25,-25,-34,-45,-67
-17,-79,-61,48,22,-70,0,-21,-29,-49,-58,-73
-3,-62,-59,33,28,-60,-10,-18,-18,-28,-55,-66
-9,-70,-61,40,26,-65,-2,-17,-31,-54,-74,-81
5,-54,-59,24,32,-56,-5,4,-8,-25,-58,-70
7,-53,-60,23,34,-56,-9,-2,-32,-42,-67,-76
-24,-84,-61,54,19,-72,76,32,4,-76,-121,-119
-12,-71,-60,42,24,-65,127,87,66,3,-81,-98
122,41,-82,-81,102,-20,127,383,464,481,330,130
372,355,-16,-363,194,169,-379,120,587,1072,934,550
186,189,3,-188,92,96,-862,-1033,-816,-158,286,372
-157,-173,-16,165,-71,-94,-714,-1301,-1529,-1292,-595,-84
-146,-95,50,120,-98,-22,-495,-788,-902,-779,-441,-122
-110,-42,69,75,-89,13,-230,-381,-441,-394,-255,-118
-87,-33,54,60,-70,10,-57,-100,-126,-138,-130,-105
-37,-28,9,32,-23,-9,-17,-34,-49,-64,-81,-93
-22,-30,-8,26,-7,-19,8,22,6,-55,-77,-88
-7,-20,-13,14,4,-16,4,41,32,-9,-55,-74
14,-16,-30,1,22,-23,21,39,20,-23,-62,-74
9,2,-7,-5,8,-2,22,41,43,7,-41,-61
-1,12,12,-6,-7,12,32,44,44,-3,-46,-61
-4,21,25,-9,-15,23,34,65,71,15,-35,-55
-23,5,27,9,-25,16,38,64,74,15,-35,-53
-32,-2,31,17,-31,14,43,65,83,25,-31,-48
-14,21,35,-4,-24,28,47,73,88,32,-26,-45
14,49,35,-32,-11,42,58,95,97,44,-25,-41
22,58,35,-40,-7,46,68,112,117,61,-16,-34
31,66,35,-49,-2,50,87,137,132,70,-12,-30
46,81,34,-64,6,57,101,161,156,84,-5,-23
46,79,34,-63,6,56,113,179,181,87,4,-19
26,85,59,-56,-17,72,126,197,185,91,16,-10
21,113,92,-67,-35,102,144,217,195,96,41,0
45,135,89,-90,-22,112,148,216,191,95,52,9
49,137,88,-93,-20,112,138,192,168,96,55,23
40,149,109,-95,-34,128,134,183,163,94,60,35
41,149,107,-95,-33,128,115,168,152,96,60,44
40,132,92,-86,-26,112,77,129,122,91,57,32
36,119,83,-78,-24,101,43,84,85,56,18,-3
3,77,73,-40,-35,75,36,48,54,15,-23,-31
-24,44,68,-10,-46,56,36,21,14,-15,-47,-50
-25,36,61,-6,-43,48,25,7,-18,-39,-66,-60
-17,27,45,-5,-31,36,18,2,-34,-54,-71,-65
-11,19,30,-4,-21,24,10,0,-50,-60,-78,-70
-13,14,27,-1,-21,20,5,-5,-56,-60,-77,-70
-20,16,35,2,-28,25,5,-8,-54,-60,-74,-67
-33,12,45,10,-40,29,5,-13,-58,-60,-75,-64
-13,47,60,-17,-37,53,5,-30,-60,-60,-70,-61
-2,63,65,-31,-33,63,5,-29,-60,-61,-70,-59
-15,44,59,-14,-37,51,3,-20,-56,-55,-69,-56
5,61,56,-33,-26,58,-2,-15,-49,-46,-63,-51
0,48,48,-24,-24,48,-7,-7,-42,-38,-56,-49
-25,32,57,-3,-41,44,-10,-2,-36,-29,-50,-45
-3,40,43,-19,-23,41,-4,4,-28,-25,-45,-40
11,30,19,-20,-5,24,6,1,-26,-25,-39,-42
-14,24,38,-6,-26,31,7,0,-30,-25,-34,-46
-33,18,50,8,-42,34,5,0,-30,-25,-29,-45
-36,10,47,12,-42,28,5,-5,-30,-25,-25,-49
-28,15,43,6,-36,29,5,-6,-30,-22,-20,-50
-17,23,40,-3,-29,31,5,-3,-30,-16,-18,-50
-15,19,35,-3,-25,26,5,0,-26,-12,-13,-44
-23,15,38,4,-31,26,11,3,-19,-7,-10,-37
-21,40,62,-10,-42,51,14,5,-15,-3,-5,-31
-8,89,98,-41,-53,93,19,9,-8,2,4,-24
-1,108,109,-53,-55,108,24,10,-5,14,10,-17
8,117,109,-63,-51,113,22,5,5,29,21,-3
29,169,140,-99,-56,154,4,-9,12,39,22,5
47,186,138,-117,-46,162,-44,-17,23,50,54,36
43,183,140,-113,-49,161,-56,-14,40,57,81,59
28,150,122,-90,-47,136,-39,-16,11,39,51,34
13,99,86,-56,-37,92,-29,-12,-16,-1,22,12
-7,52,59,-23,-33,55,-16,-10,-19,-24,-6,-7
-30,-45,-15,38,-8,-29,-6,-10,-30,-38,-32,-25
-45,-63,-18,54,-14,-41,-4,-13,-32,-45,-43,-35
-52,-59,-6,56,-23,-32,3,-17,-42,-57,-54,-57
-40,-61,-20,51,-10,-40,9,-13,-30,-44,-55,-64
-36,-59,-22,48,-7,-40,11,-23,-32,-43,-90,-70
-70,-103,-32,87,-19,-67,23,-16,-23,-42,-100,-72
-78,-114,-36,96,-21,-75,17,-23,-19,-25,-85,-66
-59,-105,-46,82,-6,-75,37,-10,-19,-45,-104,-77
-35,-93,-57,64,11,-75,20,-14,-16,-12,-69,-59
-36,-100,-64,68,14,-82,59,4,-52,-82,-126,-94
-56,-71,-14,63,-20,-42,115,45,15,-63,-140,-106
-30,-90,-61,60,16,-75,166,183,158,87,-7,-36
246,120,-126,-183,186,-3,15,471,716,850,624,328
379,281,-97,-330,238,92,-591,-291,222,854,839,575
-7,-82,-75,45,34,-79,-789,-1323,-1345,-838,-233,150
-225,-207,18,216,-121,-94,-567,-1107,-1337,-1174,-628,-113
-192,-121,71,156,-131,-25,-353,-603,-666,-553,-324,-93
-150,-107,43,129,-97,-32,-114,-243,-307,-305,-204,-108
-89,-73,16,81,-52,-28,-23,-55,-60,-72,-84,-76
-87,-83,4,85,-45,-39,27,-20,-44,-71,-94,-75
-61,-66,-5,64,-28,-35,35,33,13,-16,-64,-58
-34,-64,-30,49,-2,-46,36,36,6,-22,-63,-55
-26,-54,-28,40,2,-41,43,42,29,-12,-54,-48
-23,-45,-22,35,0,-33,37,45,44,3,-42,-40
-22,-40,-18,31,-2,-29,44,61,50,0,-44,-36
-21,-32,-11,27,-5,-21,43,65,64,19,-31,-29
-21,-28,-7,25,-7,-17,47,75,59,23,-32,-25
-22,-23,-1,22,-10,-12,57,85,75,45,-20,-18
-15,-15,0,15,-7,-7,67,95,90,45,-17,-14
-13,-13,0,13,-6,-6,75,110,103,51,-8,-6
2,2,0,-2,1,1,82,130,119,55,-4,1
26,26,0,-26,13,13,92,157,148,79,16,7
11,12,1,-12,5,7,112,171,173,99,49,17
3,18,15,-11,-6,16,117,199,186,95,49,38
14,42,29,-28,-8,36,125,213,192,89,38,47
24,64,40,-44,-8,52,127,208,188,86,54,54
18,73,55,-46,-19,64,114,203,184,78,58,58
17,90,73,-54,-28,81,108,194,181,77,62,64
34,118,83,-76,-25,100,97,188,176,93,83,83
35,96,61,-65,-14,78,88,149,172,108,87,78
33,99,65,-66,-17,82,65,120,135,96,83,69
21,58,37,-39,-8,47,44,68,101,61,79,61
-3,-7,-4,6,0,-6,36,75,82,45,50,48
-24,7,31,8,-28,19,24,19,36,7,-6,10
-11,-1,10,5,-11,5,20,60,4,-32,-35,-35
-18,-24,-6,21,-6,-15,18,305,-3,-39,-46,-40
-77,-86,-9,82,-34,-47,14,121,-11,-51,-58,-41
-23,-50,-27,37,2,-38,12,-39,-20,-51,-51,-38
29,15,-14,-22,21,1,9,22,-24,-46,-54,-42
9,-8,-16,0,13,-12,2,-14,-20,-44,-60,-30
0,4,4,-2,-2,4,3,8,-21,-39,-40,-28
14,-1,-15,-7,15,-8,11,-3,-17,-36,-13,-13
18,-1,-19,-8,18,-10,17,0,-15,-29,-30,-13
-12,2,14,5,-13,8,24,3,-15,-3,-51,21
-2,-2,0,2,-1,-1,31,-4,-11,17,-39,283
3,3,-1,-3,2,1,37,4,-4,42,-30,284
