I,II,III,aVR,aVL,aVF,V1,V2,V3,V4,V5,V6
-13,1,14,6,-14,7,100,140,156,105,55,176
-44,-36,7,40,-25,-14,97,126,151,114,55,192
-57,-65,-8,61,-24,-36,96,113,138,114,55,202
-22,-54,-32,38,5,-43,89,105,117,102,55,199
-6,-31,-25,18,10,-27,54,107,105,98,56,201
24,-24,-48,0,36,-36,-6,102,100,101,69,201
59,-14,-73,-22,66,-43,-47,94,78,99,67,225
54,26,-28,-40,41,-1,-29,104,122,108,73,224
60,56,-4,-58,32,26,-14,71,137,138,99,226
18,49,31,-34,-7,40,22,116,161,108,91,224
38,73,34,-56,2,53,29,31,120,131,112,224
54,134,79,-94,-13,106,43,165,247,164,132,257
72,174,101,-123,-15,137,-24,-170,234,350,260,340
207,310,103,-259,52,206,-488,-1689,-1149,465,556,583
181,500,319,-341,-69,409,-933,-3243,-3056,310,922,923
177,385,209,-281,-16,297,-1203,-3708,-3703,-213,1085,1111
299,116,-184,-207,241,-34,-1286,-2668,-2936,-1121,623,981
345,-146,-492,-99,418,-318,-851,-1455,-1728,-1102,168,706
327,-350,-676,12,501,-513,-367,-613,-771,-583,-33,404
207,-348,-555,71,381,-451,-41,43,-109,-303,-166,156
77,-279,-356,101,217,-317,170,336,270,-31,-140,52
-22,-179,-157,101,68,-167,250,502,451,37,-147,29
-83,-75,8,78,-45,-33,308,538,529,102,-131,35
-70,-54,17,62,-43,-19,278,580,571,115,-128,27
-39,-26,13,33,-26,-7,273,604,597,113,-126,26
-35,-19,17,27,-26,-1,253,620,619,118,-119,24
-69,-65,4,67,-36,-30,182,627,632,111,-121,19
-76,-24,52,50,-64,14,208,640,659,118,-120,6
-66,31,97,18,-82,64,274,702,721,109,-119,5
-79,26,104,26,-91,65,321,737,762,110,-124,4
-91,34,124,28,-108,79,359,794,797,106,-151,-22
-108,42,150,33,-129,96,376,847,846,103,-158,-52
-60,58,118,1,-89,88,389,882,880,100,-169,-50
-9,92,101,-42,-55,96,370,871,879,99,-170,-33
-103,58,162,22,-133,110,369,791,815,81,-183,-69
-163,34,196,64,-180,115,353,692,705,100,-162,-62
-114,54,167,30,-141,110,290,542,565,146,-90,-1
-89,37,125,26,-107,81,234,392,427,163,-26,57
-71,36,107,17,-89,72,169,300,325,147,11,100
-51,16,68,17,-59,42,150,216,223,114,36,127
-49,-4,45,26,-47,20,135,161,170,94,51,150
-25,3,28,11,-27,15,94,123,131,82,54,150
15,0,-15,-7,15,-7,89,115,102,70,56,150
-14,-20,-6,17,-4,-13,77,107,109,69,53,149
-8,-13,-5,10,-1,-9,50,90,97,67,58,152
12,7,-5,-10,8,2,12,96,105,60,50,144
-9,-19,-11,14,1,-15,-85,65,95,65,71,159
41,3,-37,-22,39,-17,-103,84,112,54,78,171
60,25,-35,-42,47,-5,-35,47,105,85,83,166
19,55,36,-37,-9,45,-3,82,116,97,78,164
21,68,47,-45,-13,57,24,38,117,126,79,157
30,67,36,-49,-3,51,-4,71,125,117,100,176
44,138,94,-91,-25,115,-12,50,290,228,157,214
156,245,88,-201,34,166,-325,-1194,-647,458,457,432
201,467,266,-334,-32,366,-835,-2892,-2661,346,825,773
184,447,263,-315,-39,355,-1068,-3716,-3740,-50,1122,1032
254,149,-105,-202,179,22,-1237,-3065,-3294,-938,872,1035
327,-119,-445,-104,386,-281,-992,-1749,-2089,-1275,272,757
310,-356,-666,24,489,-511,-478,-820,-1020,-747,-5,437
235,-393,-628,79,432,-510,-151,-102,-293,-421,-181,143
151,-306,-457,78,304,-381,92,272,158,-141,-209,-39
11,-194,-205,92,108,-199,201,453,373,-8,-166,-91
-80,-121,-41,101,-19,-80,243,520,479,50,-164,-89
-90,-86,4,88,-47,-40,229,537,517,85,-164,-79
-71,-33,37,52,-54,2,234,578,546,72,-176,-91
-32,-19,13,25,-22,-3,215,592,576,96,-177,-116
-26,-17,9,21,-17,-4,154,608,610,80,-186,-116
-29,-22,7,25,-17,-8,159,603,623,83,-178,-109
-50,12,62,19,-56,37,196,651,661,74,-204,-128
-52,37,89,7,-71,63,259,699,707,72,-204,-130
-60,39,99,11,-80,69,309,760,744,66,-218,-147
-110,38,148,36,-129,93,331,818,802,67,-252,-174
-64,50,114,6,-89,81,341,841,834,71,-249,-164
-31,45,75,-7,-53,60,345,851,837,70,-252,-169
-61,53,114,4,-88,84,347,792,796,76,-252,-191
-110,45,155,33,-133,100,326,689,692,73,-235,-180
-98,32,130,33,-114,80,272,556,561,96,-176,-140
-26,96,122,-35,-74,109,205,406,421,108,-108,-96
-36,72,108,-18,-73,90,138,299,300,89,-64,-46
-19,52,71,-16,-45,61,102,216,206,84,-44,-8
-15,36,51,-11,-34,44,69,162,131,59,-41,23
-1,-24,-23,13,11,-23,44,127,83,25,-39,36
21,-29,-50,5,36,-39,51,90,43,30,-33,36
29,-17,-46,-6,38,-32,25,92,46,21,-33,32
59,-22,-81,-18,70,-51,12,73,49,18,-25,30
51,-16,-67,-17,59,-42,-1,75,40,7,-23,30
42,-15,-57,-13,50,-36,-71,60,42,1,-16,32
55,-14,-69,-20,62,-41,-126,40,27,-1,-7,38
85,15,-70,-49,77,-27,-98,23,38,16,-11,30
67,26,-40,-46,53,-7,-61,15,46,69,34,55
67,57,-9,-62,38,24,-26,80,95,79,37,72
80,53,-27,-66,53,13,-10,1,62,113,61,84
64,87,23,-75,20,55,-5,147,210,115,58,81
103,154,50,-129,26,102,-97,-349,28,341,223,179
188,329,141,-259,23,235,-571,-1970,-1619,430,592,487
195,491,296,-343,-51,393,-935,-3348,-3422,116,965,819
225,290,65,-258,80,177,-1098,-3570,-3789,-572,1136,1031
335,20,-315,-177,324,-147,-1163,-2478,-2864,-1370,614,905
358,-238,-596,-59,477,-417,-755,-1287,-1592,-1106,111,566
319,-425,-744,53,532,-584,-303,-460,-661,-565,-88,241
214,-397,-611,91,413,-503,-35,115,-57,-301,-229,-16
82,-305,-387,112,235,-346,146,366,281,-37,-208,-143
-21,-220,-200,121,90,-210,238,520,438,8,-201,-175
-64,-160,-95,112,16,-127,250,540,510,84,-176,-149
-41,-120,-79,81,19,-99,245,577,560,116,-180,-151
-46,-107,-61,76,8,-84,251,602,587,114,-182,-173
-73,-99,-26,86,-23,-62,230,609,614,117,-178,-178
-60,-85,-24,73,-18,-54,221,624,636,113,-182,-177
-31,-78,-47,55,8,-63,202,638,659,116,-193,-187
-37,-61,-24,49,-6,-42,248,705,727,124,-212,-190
-46,-27,20,36,-33,-4,298,754,762,143,-211,-199
-70,-34,36,52,-53,1,333,812,808,139,-207,-210
-76,-44,32,60,-54,-6,370,891,897,140,-221,-214
-31,-34,-3,33,-14,-18,355,910,912,141,-254,-240
-37,-33,4,35,-20,-15,351,863,871,137,-246,-234
-74,-31,43,52,-58,6,348,791,815,153,-233,-228
-101,-44,56,73,-79,6,321,678,696,170,-196,-216
-125,-44,82,84,-103,19,270,521,544,160,-123,-158
-78,-14,64,45,-71,25,205,392,409,153,-70,-100
-38,-58,-20,49,-9,-39,167,303,305,145,-25,-46
-2,-82,-79,43,39,-80,128,224,224,136,17,-20
2,-81,-83,40,42,-82,102,180,147,120,26,-3
-42,-126,-85,85,22,-105,99,162,89,88,26,11
2,-114,-116,56,59,-115,77,141,70,66,18,-5
-8,-124,-116,66,55,-120,59,120,84,78,9,-21
-2,-122,-120,62,59,-121,48,106,75,73,8,-20
17,-105,-122,44,70,-113,17,107,81,58,-10,-15
19,-96,-115,39,67,-106,-57,78,68,80,13,-10
28,-76,-104,24,67,-90,-74,99,74,59,1,-7
1,-57,-58,28,30,-57,-27,66,73,92,28,-1
39,-21,-60,-9,49,-40,-13,96,95,125,41,7
43,-23,-66,-9,55,-44,22,61,104,141,52,43
50,23,-28,-36,39,-2,18,85,111,123,90,53
66,78,12,-72,26,45,8,84,260,238,107,67
138,160,22,-150,58,91,-280,-1068,-705,483,425,303
200,404,204,-302,-3,304,-771,-2685,-2734,274,799,649
119,366,246,-243,-64,306,-975,-3542,-3865,-298,1137,951
224,99,-125,-161,174,-13,-1120,-3024,-3437,-1150,972,1020
360,-119,-479,-120,419,-298,-950,-1734,-2143,-1332,334,737
320,-391,-711,36,516,-551,-453,-769,-1008,-725,30,387
238,-462,-700,112,469,-581,-119,-71,-275,-395,-181,60
109,-382,-491,137,300,-436,117,303,188,-103,-241,-147
-11,-283,-272,147,131,-277,228,483,406,37,-204,-214
-73,-172,-100,123,14,-136,253,544,504,81,-213,-216
-79,-132,-53,106,-13,-93,267,568,561,144,-187,-196
-75,-120,-45,98,-15,-83,264,601,592,120,-196,-237
-78,-116,-38,98,-20,-77,260,612,617,130,-178,-239
-74,-103,-28,89,-23,-65,231,646,647,130,-179,-215
-70,-79,-9,74,-30,-43,209,646,663,142,-208,-235
-58,-61,-3,59,-27,-32,230,674,703,133,-225,-252
-56,-20,36,38,-46,8,276,733,754,129,-229,-252
-97,-18,78,57,-87,30,330,786,802,126,-253,-272
-101,-32,69,66,-84,18,364,844,857,118,-264,-277
-85,-10,75,48,-80,32,357,880,884,132,-254,-272
-93,-14,80,53,-86,33,353,847,875,143,-279,-288
-88,-3,85,45,-86,41,353,799,836,148,-276,-294
-125,-2,123,63,-124,60,339,714,732,155,-239,-295
-135,4,138,65,-137,71,291,570,585,154,-189,-250
-110,18,128,45,-119,73,221,426,444,144,-123,-187
-80,15,95,32,-87,54,163,304,327,131,-89,-151
-59,11,71,24,-65,40,130,232,237,117,-56,-111
-81,-19,63,50,-72,22,106,177,163,99,-38,-93
-90,-46,44,67,-67,0,93,141,122,75,-40,-86
-28,-45,-17,37,-5,-31,82,116,81,70,-33,-73
15,-44,-59,14,38,-51,69,114,60,68,-34,-67
-11,-53,-43,32,17,-48,58,103,61,74,-29,-63
5,-58,-63,27,34,-60,31,101,57,74,-27,-59
12,-44,-56,16,34,-50,-12,96,65,76,-21,-58
7,-42,-49,17,28,-45,-61,85,52,82,-8,-51
8,-14,-21,3,15,-17,-58,98,71,75,-12,-49
17,34,17,-26,0,25,-24,65,70,100,10,-32
55,60,5,-57,24,32,0,109,103,99,1,-33
23,58,35,-40,-6,46,12,38,75,128,24,-14
-7,93,99,-43,-53,95,15,163,188,125,27,3
54,164,110,-109,-29,137,-39,-165,120,327,158,69
169,322,153,-246,8,238,-463,-1648,-1367,449,510,347
169,532,363,-351,-97,447,-903,-3121,-3295,94,851,674
141,389,248,-265,-54,318,-1085,-3606,-3921,-575,1103,936
247,102,-145,-174,196,-22,-1178,-2662,-3087,-1349,729,901
312,-125,-437,-94,375,-281,-825,-1402,-1740,-1149,192,585
296,-338,-634,21,466,-486,-352,-555,-759,-580,-52,235
190,-346,-536,79,363,-441,-55,64,-107,-310,-227,-55
63,-254,-317,96,190,-286,150,345,256,-29,-234,-210
-36,-147,-112,92,38,-129,209,478,419,12,-247,-264
-121,-87,34,103,-77,-27,243,524,514,91,-231,-238
-109,-84,26,96,-67,-29,239,573,558,137,-226,-239
-103,-59,45,81,-74,-7,239,587,591,130,-230,-246
-143,-45,98,94,-120,26,236,615,623,141,-219,-259
-108,-45,63,76,-85,9,212,635,641,134,-224,-275
-121,-44,77,82,-98,16,207,632,669,145,-218,-270
-144,-10,133,77,-138,61,240,686,726,136,-228,-279
-85,39,124,23,-105,81,297,734,770,136,-241,-274
-101,40,141,30,-121,90,336,780,810,136,-265,-284
-97,32,129,32,-113,81,368,840,869,131,-269,-290
-90,48,138,21,-114,93,382,865,895,132,-265,-282
-86,63,149,11,-118,106,378,834,871,126,-260,-281
-128,56,183,36,-156,119,385,797,843,135,-256,-274
-179,54,233,62,-206,143,342,677,721,163,-235,-274
-122,59,181,32,-152,120,263,517,560,159,-164,-244
-96,50,146,23,-121,98,204,400,437,148,-91,-180
-66,46,112,10,-89,78,145,285,305,136,-60,-136
-52,38,90,6,-71,64,105,212,214,109,-56,-106
-42,30,72,6,-58,51,87,166,152,71,-40,-91
-29,22,51,3,-41,36,82,127,111,56,-43,-80
4,17,13,-11,-5,14,61,122,78,54,-52,-74
-9,-5,3,7,-6,-1,43,118,57,44,-47,-62
-40,-24,16,32,-28,-4,44,103,51,51,-42,-56
9,-1,-10,-3,9,-5,0,93,60,47,-43,-90
5,16,11,-11,-3,14,-79,53,48,59,-36,-83
-2,28,30,-14,-16,29,-94,79,61,49,-36,-70
10,60,50,-35,-20,55,-53,50,49,79,-20,-57
23,94,71,-59,-24,82,-14,77,85,90,-9,-40
0,97,98,-49,-49,97,8,57,112,74,10,-32
-16,123,139,-53,-78,131,-6,57,84,88,36,-5
13,160,147,-87,-67,153,7,100,265,187,58,0
90,225,135,-158,-23,180,-247,-942,-549,418,341,191
161,460,299,-311,-69,379,-765,-2583,-2554,272,676,520
146,489,344,-318,-99,416,-1048,-3594,-3828,-207,1008,812
222,232,10,-227,105,121,-1216,-3188,-3539,-1038,901,896
305,-34,-339,-135,322,-186,-1042,-1888,-2306,-1384,311,666
287,-308,-595,11,441,-451,-532,-917,-1154,-808,22,349
229,-385,-614,78,422,-499,-176,-176,-374,-443,-179,41
109,-306,-415,98,262,-360,70,235,116,-172,-255,-173
-20,-209,-189,115,85,-199,204,430,358,3,-227,-273
-81,-122,-41,102,-20,-81,245,515,467,36,-236,-268
-108,-95,14,102,-61,-40,236,525,518,74,-216,-248
-131,-73,58,102,-94,-7,233,568,558,53,-226,-250
-121,-55,66,88,-93,5,231,584,589,77,-215,-234
-107,-49,58,78,-82,5,226,631,623,80,-216,-254
-100,-45,55,72,-77,5,223,635,634,75,-216,-272
-95,-13,81,54,-88,34,221,647,671,67,-224,-269
-131,-4,127,67,-128,61,298,709,734,60,-228,-269
-133,-1,132,67,-133,66,337,752,770,49,-255,-293
-87,36,124,25,-106,80,358,804,812,69,-268,-300
-85,36,121,25,-104,78,388,852,860,90,-264,-291
-79,33,112,23,-96,72,370,847,869,79,-265,-290
-93,38,131,27,-112,84,366,810,845,69,-246,-283
-156,11,168,72,-162,89,361,720,758,92,-238,-282
-176,3,178,86,-177,90,325,589,616,127,-191,-246
-93,34,127,29,-110,80,262,446,479,125,-123,-193
-54,25,79,14,-66,52,186,324,356,116,-86,-149
-76,10,87,33,-82,48,139,246,267,114,-68,-96
-49,7,56,20,-53,31,129,185,185,95,-58,-89
-54,-34,21,44,-37,-7,106,148,124,64,-48,-102
-82,-57,25,69,-53,-16,73,101,86,47,-60,-98
-70,-41,30,55,-50,-5,51,103,81,34,-71,-101
-22,-11,11,16,-16,0,47,95,76,35,-58,-99
2,6,4,-4,-1,5,44,101,73,37,-56,-98
-51,-3,48,27,-49,22,-32,79,96,62,-46,-94
-49,5,55,21,-52,30,-88,46,96,65,-41,-84
-24,36,60,-6,-42,48,-59,63,108,64,-41,-70
-46,42,88,2,-67,64,-52,41,86,68,-37,-55
-31,72,103,-21,-67,87,3,92,119,59,-44,-46
6,99,93,-53,-43,96,10,15,73,85,-5,-23
8,138,130,-73,-61,134,4,141,216,87,0,-21
5,191,186,-98,-91,188,-80,-316,41,317,169,88
99,348,249,-223,-76,298,-565,-1895,-1599,366,481,352
137,537,400,-337,-131,468,-965,-3301,-3422,51,815,666
159,396,236,-278,-39,316,-1188,-3585,-3844,-616,951,868
272,107,-164,-190,218,-29,-1235,-2507,-2916,-1382,480,740
294,-156,-450,-68,372,-303,-796,-1337,-1650,-1131,55,457
239,-356,-595,58,417,-475,-333,-522,-715,-604,-134,156
122,-362,-484,121,303,-423,-38,77,-80,-331,-270,-117
-20,-258,-238,140,109,-248,173,347,274,-65,-247,-226
-76,-132,-57,104,-9,-94,230,483,431,-14,-247,-272
-116,-67,49,91,-82,-9,235,504,497,36,-242,-291
-171,-79,92,125,-131,6,257,548,539,62,-245,-271
-144,-56,89,100,-116,16,251,573,567,53,-246,-269
-110,-8,102,59,-106,47,235,602,595,52,-244,-262
-132,-27,105,80,-118,38,199,605,607,45,-247,-261
-113,6,119,53,-116,62,198,619,645,42,-241,-256
-108,46,154,31,-131,100,256,667,697,51,-254,-255
-130,55,185,37,-158,120,293,700,730,69,-275,-285
-136,75,211,30,-174,143,342,761,776,56,-291,-301
-131,86,217,22,-174,151,375,811,831,56,-291,-302
-70,115,185,-22,-127,150,368,817,850,50,-300,-301
-86,109,195,-12,-141,152,371,797,823,42,-299,-312
-149,104,253,22,-201,178,373,750,773,73,-286,-311
-160,97,257,31,-209,177,329,631,671,97,-259,-285
-194,79,273,57,-234,176,248,481,527,106,-185,-234
-154,113,267,20,-211,190,190,347,384,95,-136,-189
-107,145,252,-19,-180,198,136,232,268,79,-130,-175
-92,144,235,-26,-164,189,72,159,164,53,-106,-159
-32,136,168,-52,-101,152,47,119,107,26,-94,-147
-53,110,163,-29,-108,136,41,72,79,14,-92,-136
-81,104,185,-11,-133,144,29,60,51,-8,-87,-128
-77,95,172,-10,-125,133,22,51,42,-10,-86,-130
-82,98,181,-8,-132,140,16,50,26,-29,-79,-120
-77,106,183,-15,-130,144,-50,51,26,-24,-82,-113
-102,74,176,14,-139,125,-134,-1,-1,-19,-98,-125
-63,106,169,-21,-116,137,-117,3,8,-23,-93,-111
-7,162,170,-78,-89,166,-87,-28,17,2,-66,-91
-33,174,207,-71,-120,190,-52,35,61,-3,-69,-90
-60,143,203,-42,-132,173,-46,-17,36,51,-44,-77
-54,195,249,-71,-152,222,-40,73,114,54,-28,-59
5,263,258,-135,-127,260,-57,-130,162,225,80,23
119,377,259,-248,-70,318,-479,-1537,-1128,354,361,247
113,594,481,-354,-184,538,-935,-3112,-3113,123,700,578
82,494,412,-288,-165,453,-1199,-3735,-3911,-400,922,789
206,217,11,-211,97,114,-1327,-2852,-3214,-1273,542,719
264,-56,-319,-104,292,-187,-960,-1594,-1958,-1303,54,473
253,-262,-515,4,384,-388,-469,-745,-950,-729,-145,177
155,-279,-434,63,294,-356,-143,-67,-252,-443,-308,-99
-24,-225,-201,125,89,-213,97,261,163,-159,-296,-232
-111,-96,14,104,-62,-41,183,433,358,-57,-282,-270
-134,-19,114,76,-124,47,210,476,448,-25,-252,-297
-134,11,146,62,-140,78,232,512,501,7,-229,-281
-152,27,179,62,-166,103,231,551,539,36,-265,-274
-154,24,179,64,-167,101,215,584,560,63,-249,-262
-155,37,191,59,-173,114,181,595,577,47,-258,-238
-169,47,216,61,-193,131,179,587,606,53,-255,-250
-148,57,205,46,-177,131,215,630,643,43,-252,-250
-128,93,221,17,-175,157,262,672,701,42,-269,-262
-170,96,265,36,-218,180,307,726,746,39,-280,-303
-153,101,254,25,-204,178,317,780,784,32,-295,-290
-120,145,265,-13,-193,205,338,808,819,31,-313,-270
-144,123,267,10,-206,195,363,792,808,22,-310,-281
-129,129,258,0,-194,193,362,748,769,33,-299,-290
-148,134,282,7,-215,207,327,650,669,60,-273,-278
-168,96,264,36,-216,180,260,511,538,84,-197,-228
-125,93,219,16,-173,156,200,377,404,95,-149,-187
-102,104,205,-2,-154,154,137,256,275,76,-123,-139
-87,104,191,-9,-139,148,103,183,193,61,-82,-115
-59,89,147,-15,-103,118,82,143,129,43,-80,-121
-50,79,129,-14,-90,104,54,97,88,24,-77,-98
-33,76,108,-22,-71,92,36,69,57,3,-72,-94
-50,64,114,-7,-82,89,33,63,47,-19,-71,-96
-60,85,144,-13,-102,114,26,46,36,-21,-63,-92
-5,101,106,-48,-56,103,-32,51,35,-19,-65,-99
1,95,94,-48,-47,94,-101,21,21,-8,-49,-83
-33,102,135,-35,-84,118,-109,42,17,-14,-45,-76
-17,132,149,-58,-83,140,-69,7,36,32,-30,-64
-1,158,159,-79,-80,158,-39,30,72,45,-36,-50
-37,146,183,-55,-110,164,-29,4,87,57,-32,-48
-31,170,201,-69,-117,185,-45,-3,76,55,-10,-31
0,219,219,-110,-109,218,-20,93,259,136,29,4
66,291,225,-179,-79,258,-274,-914,-432,379,290,190
144,507,363,-326,-110,435,-793,-2602,-2374,282,623,498
127,565,438,-346,-156,501,-1116,-3675,-3748,-77,928,780
170,304,134,-237,17,219,-1336,-3281,-3528,-913,770,826
258,32,-226,-145,242,-97,-1139,-1977,-2365,-1401,196,581
279,-204,-484,-37,382,-343,-610,-1022,-1255,-904,-82,283
204,-306,-510,51,357,-407,-233,-252,-451,-527,-247,-9
65,-244,-309,90,187,-276,56,205,74,-228,-314,-178
-45,-145,-101,95,28,-123,184,405,321,-58,-270,-242
-151,-59,92,105,-121,16,215,495,437,-17,-233,-272
-171,-27,144,98,-157,59,230,518,496,46,-207,-254
-166,-12,154,89,-160,70,233,575,533,28,-220,-254
-132,24,155,54,-144,89,228,595,566,56,-212,-250
-52,63,116,-6,-85,89,177,609,582,45,-217,-248
-90,68,158,11,-124,112,164,612,602,45,-214,-247
-124,62,186,31,-156,124,212,651,650,42,-238,-234
-128,68,196,30,-162,132,270,696,697,34,-255,-243
-119,84,203,17,-161,144,320,751,740,38,-246,-271
-104,90,194,7,-149,142,361,814,793,38,-255,-278
-92,106,198,-8,-146,152,367,854,835,45,-256,-272
-98,104,202,-3,-150,153,364,856,829,44,-263,-281
-161,85,247,38,-204,166,375,817,810,53,-277,-302
-166,92,258,37,-212,174,349,736,732,43,-247,-290
-165,79,244,43,-205,161,297,605,605,67,-179,-239
-132,81,213,25,-173,147,243,468,470,120,-131,-197
-82,89,171,-4,-127,130,176,344,333,93,-81,-143
-99,64,163,17,-131,113,122,244,248,61,-40,-98
-101,20,122,40,-112,71,94,180,161,52,-40,-92
-90,1,91,44,-91,46,74,141,114,35,-41,-82
-75,22,96,26,-86,59,62,108,84,26,-38,-73
-63,25,88,19,-75,56,49,98,63,10,-42,-70
-69,-5,65,37,-67,30,45,75,65,-6,-36,-67
-69,16,84,26,-76,50,21,77,64,-19,-37,-65
-26,30,56,-2,-41,43,-65,53,70,3,-32,-61
-27,6,33,10,-30,19,-109,58,66,3,-37,-60
-60,52,112,4,-87,82,-59,56,76,24,-29,-56
-38,74,112,-18,-75,93,-25,45,67,57,-14,-44
-18,102,120,-42,-70,111,7,77,120,78,-8,-36
-8,129,138,-61,-73,133,-8,9,71,80,45,-27
-21,134,155,-57,-89,145,7,162,232,96,56,-1
22,195,174,-109,-76,184,-125,-487,-26,369,253,140
121,389,268,-255,-74,328,-646,-2205,-1804,391,592,435
104,505,401,-305,-149,453,-981,-3515,-3486,129,952,760
147,276,129,-212,9,203,-1176,-3494,-3637,-590,990,892
281,10,-272,-145,276,-131,-1178,-2282,-2666,-1369,418,702
279,-252,-531,-13,405,-391,-688,-1165,-1444,-1020,35,396
211,-402,-612,96,412,-507,-268,-369,-566,-547,-148,99
103,-358,-462,128,283,-410,11,168,2,-284,-261,-134
-22,-256,-233,139,106,-245,190,404,309,-35,-207,-221
-73,-122,-49,98,-12,-86,234,519,439,7,-190,-232
-147,-87,60,117,-103,-14,265,553,528,82,-162,-229
-151,-69,82,110,-117,7,256,594,575,88,-190,-230
-143,-86,57,114,-99,-15,240,610,590,90,-196,-224
-201,-91,110,146,-155,9,232,645,617,93,-194,-226
-176,-62,114,119,-145,25,219,645,634,93,-197,-222
-181,-63,117,122,-149,27,222,670,666,97,-193,-219
-169,-50,118,109,-143,34,271,726,726,89,-197,-223
-174,-41,133,107,-153,46,332,781,772,88,-184,-220
-180,-22,158,101,-169,68,372,833,809,79,-214,-248
-133,-16,117,74,-125,50,376,873,851,79,-229,-270
-150,-26,124,88,-137,48,389,904,884,71,-233,-270
-143,-19,124,81,-133,52,388,871,859,72,-232,-268
-159,2,161,78,-160,81,371,792,781,92,-219,-276
-161,21,182,70,-172,101,350,669,661,106,-176,-241
-139,4,143,67,-141,73,268,515,515,119,-104,-168
-160,-38,122,99,-141,42,202,385,386,112,-64,-129
-150,-49,101,99,-125,26,163,296,282,104,-26,-77
-111,-54,57,82,-84,2,119,229,203,96,-11,-52
-70,-38,31,54,-50,-3,99,183,149,66,-10,-57
-68,-54,14,61,-41,-20,87,147,103,56,1,-54
-69,-116,-48,93,-10,-82,74,131,84,54,11,-55
-91,-108,-17,100,-37,-62,71,120,84,55,15,-56
-127,-106,21,116,-74,-42,58,109,69,56,2,-50
-56,-95,-39,76,-8,-67,1,108,73,52,-4,-38
-4,-57,-53,31,25,-55,-65,85,54,62,15,-21
-31,-36,-5,33,-13,-20,-67,115,72,52,16,-15
-38,-21,17,29,-27,-3,-24,82,77,87,53,-7
-58,2,60,28,-59,31,7,128,108,87,73,-3
-16,21,37,-2,-27,29,31,82,111,118,78,5
1,34,34,-18,-17,34,34,138,147,132,84,45
-28,85,113,-28,-71,98,17,74,283,263,151,84
80,186,106,-133,-13,145,-323,-1218,-775,479,471,306
127,432,305,-280,-89,368,-809,-2851,-2804,291,820,644
89,371,281,-230,-96,326,-1012,-3627,-3828,-230,1122,917
179,54,-125,-116,152,-36,-1163,-2969,-3326,-1130,875,939
281,-142,-423,-69,352,-282,-933,-1655,-2053,-1299,261,647
268,-386,-654,60,461,-520,-410,-705,-940,-683,6,339
188,-453,-641,133,415,-547,-96,-14,-231,-373,-176,32
42,-366,-408,162,225,-387,122,325,193,-91,-223,-166
-93,-265,-172,180,39,-218,228,498,404,22,-192,-219
-156,-166,-10,161,-73,-88,253,554,499,71,-193,-230
-159,-136,23,147,-91,-56,249,582,546,117,-168,-213
-145,-124,22,134,-83,-51,250,626,591,110,-177,-221
-147,-114,33,130,-90,-40,248,647,627,145,-174,-220
-163,-112,51,137,-107,-30,244,671,647,124,-173,-217
-133,-92,41,112,-87,-25,242,671,665,131,-189,-235
-113,-49,64,81,-88,7,239,712,718,122,-207,-251
-161,-44,117,102,-139,36,298,769,776,120,-204,-251
-153,-33,119,93,-136,43,345,822,813,128,-225,-253
-166,-22,144,94,-155,61,357,879,866,130,-238,-257
-185,-37,148,111,-167,56,367,909,902,141,-235,-253
-144,-16,128,80,-136,56,356,887,894,147,-247,-260
-132,12,144,60,-138,78,356,834,847,151,-260,-281
-166,17,182,74,-174,99,349,740,745,155,-229,-267
-177,-6,171,91,-174,82,301,597,605,167,-153,-219
-161,-10,151,85,-156,71,235,451,459,161,-98,-154
-132,19,150,56,-141,84,173,338,333,137,-47,-97
-113,5,118,54,-116,61,140,256,233,124,-5,-70
-87,-3,84,44,-85,41,117,194,167,109,2,-63
-57,-37,20,47,-38,-8,86,155,124,78,-18,-66
-98,-75,23,86,-60,-26,75,124,85,56,-21,-60
-111,-33,79,72,-95,23,62,120,74,48,-14,-60
-90,-42,48,65,-69,3,49,103,66,47,-24,-60
-44,-29,15,36,-29,-7,20,109,68,36,-31,-53
-23,8,31,7,-27,19,-58,89,63,36,-17,-44
-81,-23,58,52,-69,17,-108,90,64,30,-10,-33
-41,28,69,6,-55,49,-68,82,69,63,-4,-30
-25,90,115,-33,-70,102,-30,63,64,96,16,-13
-42,99,141,-29,-92,120,-13,87,111,90,15,-16
6,107,101,-57,-48,104,-8,19,61,114,56,8
-40,151,191,-56,-116,171,9,166,237,130,53,14
7,201,194,-104,-94,197,-131,-466,-117,371,253,131
121,394,272,-258,-76,333,-612,-2073,-1912,387,633,467
99,552,453,-326,-177,502,-950,-3359,-3624,-49,993,798
119,304,185,-212,-33,244,-1123,-3474,-3844,-840,1128,995
226,33,-194,-129,210,-80,-1120,-2294,-2753,-1447,577,846
252,-220,-472,-16,362,-345,-679,-1143,-1449,-1006,102,507
210,-395,-605,93,408,-500,-256,-351,-559,-499,-90,174
125,-326,-451,101,289,-389,2,171,10,-233,-240,-103
-38,-240,-202,140,82,-221,173,401,317,-12,-214,-214
-149,-153,-3,151,-73,-78,229,513,456,32,-217,-255
-175,-95,80,135,-127,-7,236,521,511,104,-203,-248
-163,-73,90,118,-126,8,237,572,555,114,-206,-232
-170,-54,116,112,-143,31,227,604,601,115,-204,-236
-160,-54,105,107,-132,25,208,650,636,127,-199,-238
-148,-58,90,103,-119,16,198,655,649,145,-200,-216
-170,-32,138,101,-154,52,184,644,674,134,-207,-236
-144,-18,125,81,-134,53,234,695,729,126,-232,-282
-134,14,147,60,-140,80,309,757,785,121,-235,-279
-132,56,188,38,-160,121,340,810,826,108,-253,-281
-127,48,174,39,-150,111,349,864,883,141,-256,-285
-112,48,160,32,-137,104,340,880,916,162,-264,-285
-136,41,177,47,-157,109,332,831,868,149,-261,-288
-173,64,236,54,-205,150,326,752,786,145,-245,-293
-170,75,245,48,-208,160,308,637,671,138,-216,-270
-181,59,240,61,-211,150,240,488,509,129,-135,-209
-148,55,203,47,-176,129,168,350,370,146,-87,-150
-108,49,156,29,-132,102,140,260,265,137,-63,-103
-100,38,138,31,-119,87,98,204,193,106,-36,-86
-82,22,104,30,-93,63,72,158,132,91,-35,-80
-62,16,78,23,-70,47,66,123,74,75,-29,-65
-90,-14,76,51,-83,31,39,115,53,66,-27,-57
-76,-14,62,45,-69,24,32,109,46,59,-23,-60
-94,-25,69,59,-81,22,41,92,49,54,-18,-56
-108,-10,98,59,-103,44,-15,96,91,41,-30,-53
-27,25,52,1,-40,38,-106,44,77,41,-20,-47
-32,34,66,-2,-49,50,-108,40,83,42,-19,-42
-39,58,97,-10,-69,78,-51,23,74,75,-3,-28
-32,80,112,-24,-72,96,-26,65,67,92,-2,-23
-37,91,128,-28,-82,109,-3,53,88,123,27,-12
-48,97,145,-25,-97,121,12,67,99,121,54,33
-76,133,208,-29,-142,170,12,100,253,199,72,50
46,230,184,-139,-70,207,-276,-982,-613,443,381,234
116,472,356,-294,-120,413,-767,-2595,-2611,274,745,583
67,473,405,-270,-169,439,-1008,-3566,-3904,-295,1089,888
159,208,50,-184,54,128,-1179,-3181,-3603,-1149,995,994
248,-31,-279,-108,263,-154,-1027,-1860,-2287,-1381,397,767
243,-312,-555,35,399,-433,-518,-864,-1106,-772,72,419
173,-394,-567,111,370,-481,-165,-138,-333,-423,-144,98
69,-313,-383,122,226,-348,69,264,150,-139,-252,-135
-47,-222,-175,135,64,-199,202,441,375,25,-214,-208
-125,-128,-4,127,-60,-66,234,535,495,69,-207,-219
-165,-114,51,140,-108,-32,243,550,551,115,-195,-218
-209,-93,116,151,-162,11,248,577,580,96,-198,-212
-170,-64,106,117,-138,20,234,609,614,135,-193,-212
-132,-49,83,90,-107,17,197,641,646,127,-189,-203
-117,-19,99,68,-108,40,173,626,655,131,-195,-210
-132,-16,115,74,-123,49,206,658,699,130,-199,-217
-155,22,177,66,-166,99,271,718,765,128,-195,-212
-136,37,173,49,-155,105,307,764,796,132,-245,-253
-123,19,142,52,-133,80,351,825,854,121,-265,-269
-111,54,165,28,-138,109,364,861,907,136,-260,-262
-117,41,158,38,-138,99,354,851,902,136,-270,-268
-133,2,135,65,-134,68,360,827,858,148,-242,-261
-187,-23,164,105,-175,70,332,736,764,153,-221,-272
-250,-25,225,137,-237,99,291,593,648,162,-147,-210
-176,2,179,87,-178,90,233,456,491,192,-69,-125
-121,2,123,59,-122,62,170,332,360,176,-52,-103
-121,-13,108,66,-114,47,125,259,271,157,-24,-69
-87,-35,52,61,-70,8,83,199,184,123,11,-53
-86,-45,42,65,-64,-1,73,166,155,96,39,-49
-62,-52,9,57,-35,-21,67,152,116,87,41,-39
-116,-84,32,100,-74,-26,52,149,101,74,38,-31
-121,-78,43,99,-82,-17,43,129,89,83,42,-8
-34,-81,-47,58,6,-64,14,124,76,77,38,-9
-50,-79,-30,65,-10,-54,-52,86,71,85,42,-30
-64,-44,20,54,-42,-12,-99,61,39,85,26,-14
-77,-27,50,52,-63,11,-69,63,67,83,22,-1
-28,19,47,5,-38,33,-41,54,90,104,62,2
-25,40,66,-8,-45,53,-11,100,144,112,67,23
-36,62,98,-13,-67,79,-1,19,93,129,91,43
-1,111,111,-55,-56,111,8,151,231,137,88,36
23,143,120,-83,-48,131,-91,-339,22,361,246,142
106,316,210,-211,-52,263,-560,-1883,-1645,408,596,437
97,474,378,-286,-141,426,-954,-3267,-3460,52,947,764
135,301,167,-218,-16,234,-1153,-3526,-3835,-629,1119,976
259,23,-236,-140,247,-107,-1178,-2422,-2856,-1341,652,865
291,-242,-533,-25,412,-387,-749,-1249,-1557,-1032,190,560
231,-448,-679,109,455,-564,-298,-440,-621,-498,-6,239
118,-438,-556,160,337,-497,-5,138,-6,-242,-184,-28
-11,-339,-328,176,158,-333,184,398,335,20,-161,-141
-87,-235,-148,162,31,-191,237,534,492,70,-139,-206
-127,-172,-45,150,-41,-108,260,565,567,142,-104,-181
-143,-157,-14,150,-64,-85,248,605,614,148,-93,-144
-104,-144,-41,124,-31,-92,235,624,640,151,-113,-164
-111,-141,-30,127,-41,-85,234,646,666,159,-102,-155
-141,-137,5,139,-73,-66,233,677,693,142,-114,-157
-165,-112,53,139,-109,-30,237,700,716,150,-142,-183
-158,-101,56,129,-106,-23,278,723,775,157,-149,-189
-146,-108,38,126,-92,-34,332,767,823,169,-141,-180
-169,-100,69,135,-119,-16,355,819,857,162,-152,-195
-156,-84,72,120,-114,-6,380,865,907,167,-160,-195
-135,-72,63,104,-99,-4,399,892,937,163,-156,-185
-168,-63,105,115,-136,21,388,867,927,166,-149,-219
-184,-53,131,118,-157,39,374,798,855,156,-143,-229
-156,-44,112,100,-134,34,347,679,733,164,-103,-192
-155,-36,119,95,-136,41,282,540,590,197,-34,-148
-128,-58,70,93,-99,6,204,418,462,196,25,-85
-114,-86,28,100,-71,-29,148,320,355,179,58,-35
-73,-75,-2,74,-35,-38,122,243,266,158,74,-23
-36,-60,-24,49,-6,-42,115,207,221,139,85,-16
-65,-95,-31,80,-17,-63,104,166,179,124,86,-11
-39,-132,-94,86,28,-113,69,145,155,113,83,-6
-54,-140,-86,97,17,-113,55,143,156,110,80,1
-38,-119,-81,79,22,-99,58,132,141,105,80,5
-23,-98,-75,60,26,-86,20,141,144,100,84,17
-34,-96,-62,65,14,-79,-51,87,130,97,104,34
7,-54,-61,24,34,-57,-60,93,147,103,97,34
-25,-33,-8,29,-8,-20,-20,67,135,139,101,40
-52,-27,25,39,-38,-1,0,118,163,129,111,39
-70,-12,58,41,-64,23,40,92,192,179,123,54
-31,26,57,3,-44,41,27,114,199,186,140,78
43,102,59,-73,-8,80,5,107,335,271,195,91
93,197,104,-145,-6,150,-301,-1057,-606,487,475,295
134,416,282,-275,-74,349,-806,-2686,-2624,309,801,611
117,416,299,-267,-91,357,-1084,-3604,-3799,-170,1098,874
217,148,-69,-182,143,40,-1266,-3067,-3396,-1018,896,913
314,-116,-430,-98,372,-273,-1026,-1751,-2131,-1280,337,668
279,-365,-643,43,461,-504,-510,-827,-1020,-709,84,357
218,-421,-638,102,428,-529,-152,-92,-256,-366,-104,58
80,-347,-427,134,253,-387,109,307,225,-75,-143,-110
-40,-234,-194,137,77,-214,216,486,443,53,-133,-186
-90,-153,-63,122,-13,-108,262,558,552,100,-124,-210
-91,-120,-29,106,-31,-74,277,581,601,137,-74,-180
-77,-93,-17,85,-30,-55,275,623,641,133,-94,-175
-66,-79,-14,72,-26,-46,258,639,673,159,-106,-187
-69,-47,22,58,-45,-12,215,671,680,127,-119,-186
-157,-47,110,102,-134,31,201,659,687,137,-129,-210
-148,-4,144,75,-146,70,235,683,743,134,-136,-236
-93,46,138,23,-116,92,296,728,793,135,-137,-228
-114,34,147,40,-130,90,331,775,824,141,-156,-229
-97,39,136,29,-117,88,360,837,886,138,-162,-224
-86,32,117,26,-102,74,382,879,938,142,-163,-224
-111,36,148,37,-130,92,379,869,928,144,-166,-234
-123,47,170,38,-146,108,375,830,894,145,-157,-260
-145,31,176,56,-160,103,362,756,816,148,-146,-247
-145,33,178,56,-162,106,305,606,668,163,-98,-184
-117,33,150,42,-134,92,242,463,538,161,-28,-138
-109,19,127,44,-119,73,178,356,413,149,25,-87
-84,-17,67,50,-75,25,129,269,307,143,54,-59
-106,-51,55,78,-80,2,114,211,245,119,56,-49
-68,-49,19,58,-44,-15,98,167,199,94,55,-37
-33,-44,-12,39,-10,-28,75,136,160,89,56,-31
-73,-52,21,62,-47,-15,47,126,136,90,54,-26
-64,-50,14,56,-38,-18,33,105,124,87,57,-21
-56,-20,37,38,-46,8,-2,108,129,83,50,-14
-16,-1,15,8,-15,7,-63,81,117,88,52,-12
-4,4,8,0,-6,6,-77,99,119,75,49,4
3,33,30,-18,-14,31,-47,82,115,109,72,15
15,86,71,-51,-28,78,-27,86,124,113,87,15
-25,102,127,-38,-77,114,1,93,168,141,95,24
-15,85,100,-35,-58,92,2,53,133,159,117,33
-3,144,147,-71,-75,146,10,143,328,204,131,52
90,213,123,-152,-17,168,-214,-715,-225,443,369,212
176,417,241,-296,-33,329,-732,-2380,-2154,350,677,505
143,525,382,-334,-120,454,-1075,-3571,-3681,-19,991,801
208,277,70,-243,69,173,-1299,-3356,-3608,-801,925,890
273,-3,-276,-135,274,-139,-1159,-2059,-2440,-1340,366,671
294,-265,-559,-14,427,-412,-639,-1054,-1275,-881,53,379
257,-374,-630,59,444,-502,-242,-278,-437,-469,-131,82
114,-314,-427,100,271,-370,39,211,110,-188,-204,-126
-4,-215,-211,109,104,-212,181,423,384,6,-162,-195
-83,-106,-22,95,-30,-64,241,536,515,68,-160,-210
-120,-71,49,95,-84,-11,248,547,562,111,-137,-202
-108,-30,78,68,-93,24,232,591,615,83,-149,-207
-125,-10,116,67,-120,53,228,602,632,99,-143,-204
-126,-12,114,69,-120,51,215,628,653,85,-145,-205
-61,37,98,12,-80,67,201,627,673,92,-146,-211
-80,41,121,19,-101,81,207,653,702,97,-144,-217
-136,33,169,51,-153,101,277,714,768,97,-156,-223
-133,56,190,38,-162,122,316,750,800,96,-175,-232
-101,66,167,18,-134,116,344,803,841,86,-190,-242
-87,82,169,2,-129,125,375,860,900,111,-195,-247
-118,70,188,24,-153,129,372,858,907,137,-206,-252
-131,64,195,33,-163,129,362,815,872,134,-213,-273
-159,65,225,47,-192,145,340,743,795,135,-191,-273
-171,62,233,54,-203,148,298,609,663,135,-132,-226
-123,77,200,23,-162,138,233,471,526,137,-69,-169
-106,76,182,15,-144,128,170,352,407,132,-30,-124
-68,78,146,-5,-107,111,134,259,310,114,-12,-93
-62,58,120,2,-91,89,98,192,228,92,-6,-72
-97,47,145,25,-121,96,73,149,162,67,-6,-65
-54,43,97,5,-76,70,70,113,118,63,1,-62
-37,37,74,0,-56,55,49,107,105,54,2,-60
-58,33,90,12,-74,61,27,90,99,54,8,-56
-59,22,81,18,-70,51,-4,93,94,42,21,-54
-42,45,87,-2,-65,66,-66,80,94,43,31,-52
-49,45,94,2,-72,69,-110,71,80,39,32,-46
-51,70,120,-9,-86,95,-86,77,94,41,24,-46
21,119,98,-70,-38,108,-50,41,97,79,49,-32
23,140,117,-82,-47,128,-16,83,141,71,43,-28
-16,144,161,-64,-89,152,-23,-5,105,108,72,-11
-1,191,192,-95,-97,191,-18,145,243,119,76,1
45,234,189,-140,-72,211,-88,-232,159,309,200,88
142,379,238,-261,-48,308,-551,-1779,-1328,395,517,351
143,578,435,-361,-146,506,-978,-3268,-3226,169,855,676
184,433,249,-308,-33,340,-1250,-3663,-3805,-441,991,867
283,131,-152,-207,217,-11,-1307,-2597,-2945,-1301,519,727
278,-143,-421,-67,350,-282,-852,-1398,-1693,-1153,83,442
257,-324,-581,34,419,-452,-385,-571,-742,-618,-103,153
161,-305,-465,72,313,-385,-66,64,-85,-332,-243,-96
31,-200,-230,85,131,-215,142,343,275,-54,-205,-204
-69,-99,-30,84,-19,-64,213,494,454,6,-196,-237
-117,-41,77,79,-96,18,233,520,526,60,-167,-226
-115,9,124,53,-120,66,241,573,559,55,-160,-222
-132,6,138,63,-135,72,245,599,594,68,-158,-216
-146,-19,127,82,-136,54,194,613,615,88,-149,-211
-114,0,114,57,-114,56,174,636,639,69,-146,-204
-91,39,130,25,-111,84,201,653,678,71,-142,-203
-98,80,178,8,-138,129,245,692,721,57,-186,-240
-107,76,183,15,-145,129,294,733,759,52,-197,-247
-120,77,197,21,-159,137,330,799,806,59,-192,-236
-140,76,216,32,-179,146,360,848,853,77,-219,-262
-132,58,189,37,-161,123,360,877,882,74,-233,-284
-93,86,179,3,-136,132,360,863,864,74,-226,-277
-143,96,239,23,-191,167,358,798,806,76,-228,-285
-171,89,260,41,-216,175,315,674,696,76,-201,-267
-126,93,220,16,-173,156,254,528,564,105,-132,-202
-107,83,191,12,-149,137,192,398,435,120,-70,-149
-81,75,156,3,-119,116,137,290,316,104,-27,-114
-73,66,140,3,-107,103,93,214,233,91,-12,-96
-54,55,109,-1,-82,82,65,162,166,65,-14,-84
-51,27,77,12,-64,52,54,120,121,33,-6,-74
-58,28,85,15,-72,56,45,109,83,33,-6,-72
-37,40,78,-2,-58,58,19,96,78,48,-1,-68
-45,30,75,7,-61,53,-5,82,93,37,4,-64
-33,41,74,-4,-54,57,-44,80,99,33,4,-62
2,63,60,-33,-29,61,-109,55,88,35,27,-56
-27,87,115,-30,-71,101,-103,80,103,16,26,-56
-18,110,128,-46,-73,119,-71,44,85,55,36,-46
-3,130,133,-64,-68,131,-54,90,109,48,11,-50
-36,127,163,-46,-100,145,-31,35,113,86,41,-33
-14,160,175,-73,-95,167,-37,102,157,108,73,6
2,211,209,-106,-104,210,-38,14,298,251,149,54
118,322,204,-220,-43,263,-405,-1331,-770,446,448,265
136,548,413,-342,-139,480,-901,-3007,-2801,298,787,601
117,484,367,-301,-125,425,-1136,-3744,-3804,-154,1057,861
266,180,-86,-223,176,46,-1297,-2967,-3250,-1086,738,827
308,-82,-390,-113,349,-235,-989,-1654,-1999,-1291,177,548
285,-289,-574,2,430,-431,-475,-752,-943,-718,-53,230
205,-324,-529,59,367,-426,-149,-53,-226,-417,-227,-49
63,-264,-326,101,195,-295,89,292,203,-123,-240,-195
-68,-153,-85,111,8,-119,189,471,409,-15,-198,-226
-126,-59,67,92,-96,4,224,523,495,30,-165,-242
-116,-8,108,62,-112,49,229,565,561,82,-151,-244
-134,7,142,63,-138,74,232,610,593,69,-203,-238
-162,-38,124,100,-143,43,204,613,603,80,-203,-237
-145,-33,112,89,-128,39,169,636,634,71,-198,-230
-119,8,127,55,-123,67,164,632,648,77,-198,-231
-108,40,148,34,-128,93,203,678,702,76,-188,-220
-93,64,158,14,-126,111,266,732,753,90,-199,-230
-97,81,179,8,-138,130,311,793,790,87,-232,-267
-95,86,181,5,-138,133,333,842,837,80,-257,-273
-149,64,213,42,-181,139,339,870,877,80,-266,-266
-172,53,225,59,-199,139,345,870,871,70,-266,-277
-122,97,219,12,-170,158,348,814,825,71,-255,-289
-123,115,238,4,-181,176,319,703,721,74,-239,-277
-131,97,228,17,-180,162,262,562,585,99,-176,-228
-124,89,213,17,-169,151,218,422,454,118,-98,-163
-96,77,173,9,-135,125,149,296,318,91,-67,-128
-79,70,149,5,-114,109,86,217,238,75,-53,-118
-55,61,116,-3,-85,88,56,162,173,58,-45,-108
-42,51,92,-5,-67,71,44,134,114,41,-37,-92
-33,32,65,0,-49,48,36,110,79,28,-30,-82
-37,27,64,5,-50,45,18,103,76,7,-19,-71
-65,13,79,26,-72,46,10,85,65,8,-38,-84
-11,31,42,-11,-26,36,-31,89,62,-5,-70,-97
-16,47,63,-16,-40,54,-98,66,53,19,-52,-67
-9,42,51,-17,-30,46,-122,74,48,35,-39,-51
10,66,56,-38,-23,61,-92,67,73,35,-12,-39
-20,96,116,-38,-68,106,-51,55,91,69,29,-28
4,123,120,-64,-59,121,-26,84,145,86,28,-30
-3,119,122,-58,-63,121,-36,12,91,93,24,-24
12,163,150,-88,-69,156,-8,169,264,117,24,-10
93,217,124,-155,-16,170,-154,-505,-60,372,245,137
170,419,249,-295,-40,334,-651,-2161,-1835,404,602,450
134,534,400,-334,-134,467,-980,-3452,-3547,64,979,778
161,287,126,-224,18,206,-1173,-3509,-3751,-711,1040,938
278,31,-246,-154,262,-107,-1159,-2278,-2679,-1403,480,766
294,-235,-529,-29,412,-382,-687,-1133,-1404,-995,63,444
285,-365,-649,40,467,-507,-269,-343,-529,-525,-142,119
152,-334,-486,91,319,-410,-3,188,40,-259,-272,-127
2,-245,-247,122,125,-246,167,410,341,-24,-241,-213
-49,-90,-41,70,-4,-66,207,521,467,5,-244,-255
-112,-76,36,94,-74,-20,212,539,530,87,-211,-246
-140,-86,54,112,-97,-15,201,589,581,84,-189,-233
-143,-72,71,107,-106,0,191,614,613,107,-196,-238
-100,-63,37,81,-68,-13,185,646,645,115,-210,-231
-83,-41,42,62,-62,1,172,656,674,111,-221,-239
-149,-19,130,84,-140,56,181,665,699,122,-221,-235
-111,31,142,39,-127,86,244,724,762,118,-226,-240
-72,49,122,12,-97,85,297,782,810,128,-238,-247
-104,43,147,30,-126,95,335,842,858,123,-242,-250
-81,24,105,28,-93,65,340,897,906,126,-266,-266
-79,17,96,31,-88,56,326,890,922,125,-284,-274
-92,37,130,27,-111,83,321,845,908,125,-278,-279
-124,39,163,42,-143,100,313,778,822,121,-279,-272
-162,11,172,75,-167,91,293,660,694,129,-220,-251
-98,30,128,34,-113,79,239,512,550,155,-147,-211
-67,35,102,15,-84,69,175,377,417,154,-97,-153
-79,-2,76,40,-78,37,118,283,318,133,-68,-110
-65,-2,63,33,-64,30,84,216,227,108,-54,-83
-85,-39,46,61,-65,4,76,173,164,68,-43,-76
-47,-51,-4,49,-22,-27,68,132,132,53,-40,-65
-40,-46,-7,43,-16,-26,58,119,126,55,-16,-58
-73,-62,11,67,-42,-25,55,113,118,55,-32,-77
-31,-60,-29,46,-1,-44,29,107,108,55,-52,-78
-21,-58,-37,40,9,-47,-29,111,109,54,-38,-76
-7,-33,-26,21,9,-29,-96,91,91,57,-29,-64
12,2,-10,-7,11,-4,-93,111,108,48,-22,-53
38,28,-10,-33,23,9,-44,70,80,82,19,-43
34,39,5,-37,14,22,-17,114,133,87,15,-30
24,29,5,-27,9,17,0,49,141,119,37,-28
36,71,34,-53,0,52,1,123,174,115,53,7
27,131,103,-79,-38,117,-24,12,258,256,115,57
130,237,107,-184,11,172,-371,-1301,-927,473,465,298
164,472,308,-318,-72,390,-835,-2864,-2957,206,828,653
159,407,248,-283,-45,327,-1037,-3592,-3914,-415,1140,932
220,110,-110,-165,165,0,-1168,-2882,-3301,-1256,887,957
288,-149,-437,-69,363,-293,-909,-1582,-1954,-1293,270,647
318,-397,-716,40,517,-556,-421,-676,-873,-664,7,317
219,-431,-650,106,434,-540,-107,-1,-169,-364,-206,8
95,-336,-430,121,263,-383,125,329,253,-81,-256,-183
-15,-217,-203,116,94,-210,211,492,450,35,-222,-237
-77,-140,-63,109,-7,-101,237,546,546,88,-210,-241
-79,-118,-39,99,-20,-78,252,575,594,129,-179,-222
-82,-98,-17,90,-32,-57,257,606,627,128,-189,-239
-106,-97,9,101,-57,-44,246,638,669,146,-166,-234
-79,-92,-13,85,-33,-52,229,654,686,124,-172,-237
-59,-63,-4,61,-28,-33,221,639,702,132,-207,-228
-62,-50,12,56,-37,-19,236,701,766,120,-225,-232
-90,-60,30,75,-60,-15,280,742,807,121,-217,-245
-112,-43,69,77,-90,13,337,809,861,149,-232,-238
-61,-38,23,49,-41,-8,376,866,914,172,-269,-282
-62,-28,34,45,-48,3,364,882,934,166,-269,-299
-60,-16,44,38,-51,13,356,885,935,162,-257,-284
-74,0,74,37,-74,37,352,819,886,161,-248,-287
-140,-12,128,76,-134,58,333,724,780,153,-225,-278
-156,-55,101,105,-128,23,270,572,623,168,-165,-232
-125,-40,85,82,-105,22,201,433,482,167,-92,-159
-70,-35,35,52,-52,0,172,330,362,141,-59,-107
-26,-45,-19,35,-3,-32,134,230,264,129,-38,-87
-31,-47,-17,39,-7,-32,99,184,200,114,-30,-75
-28,-81,-53,55,13,-67,88,156,160,87,-29,-59
16,-85,-101,35,59,-93,81,131,134,65,-24,-52
25,-63,-87,19,56,-75,58,139,125,56,-23,-55
-4,-78,-74,42,35,-76,35,123,100,53,-20,-55
8,-73,-81,33,45,-77,24,132,104,42,-14,-54
33,-55,-88,12,61,-72,-42,118,127,89,14,-48
40,-56,-95,9,68,-75,-105,84,128,115,11,-30
5,-51,-56,23,31,-53,-64,64,140,105,-18,-26
5,-28,-33,12,19,-30,-18,49,124,117,16,-8
54,26,-28,-40,41,-1,8,101,159,101,24,-5
59,25,-35,-42,47,-5,16,40,122,136,56,14
64,60,-4,-62,34,28,21,177,285,158,56,38
75,111,36,-93,19,73,-95,-339,37,369,214,132
143,274,131,-209,6,202,-550,-1900,-1652,422,574,438
162,459,297,-310,-68,378,-940,-3284,-3486,8,912,766
197,286,89,-241,54,187,-1138,-3546,-3886,-720,1096,981
316,7,-309,-161,312,-151,-1164,-2422,-2847,-1376,626,880
338,-270,-608,-34,473,-439,-746,-1234,-1526,-1044,139,559
296,-454,-750,79,523,-602,-298,-417,-592,-517,-73,222
202,-431,-632,115,417,-532,-18,153,25,-250,-255,-56
60,-341,-400,141,230,-371,172,405,352,11,-220,-172
-58,-225,-167,142,55,-196,232,540,514,77,-217,-217
-72,-170,-98,121,13,-134,246,560,575,141,-199,-206
-85,-161,-76,123,-4,-119,236,605,612,127,-190,-205
-106,-151,-45,129,-30,-98,231,622,653,128,-199,-204
-57,-132,-75,94,9,-103,227,648,676,143,-190,-198
-59,-134,-76,97,9,-105,223,658,692,136,-202,-204
-64,-111,-46,87,-8,-78,229,675,736,146,-197,-204
-33,-56,-23,45,-5,-39,261,727,795,148,-201,-207
-61,-65,-4,63,-28,-34,316,772,838,145,-215,-212
-81,-75,6,78,-43,-35,342,826,876,138,-233,-234
-74,-67,7,70,-41,-30,361,875,929,136,-233,-233
-75,-72,3,74,-39,-34,379,900,960,128,-241,-240
-91,-59,32,75,-61,-13,372,878,951,145,-252,-247
-92,-42,50,66,-70,4,379,807,880,178,-224,-241
-113,-60,53,86,-82,-4,348,673,740,183,-185,-227
-121,-79,42,100,-81,-18,261,527,594,177,-130,-161
-57,-52,5,55,-31,-23,198,408,472,190,-64,-103
-29,-31,-2,30,-13,-17,155,320,387,172,-24,-59
22,-73,-96,26,59,-84,118,229,264,140,-1,-25
16,-106,-122,45,70,-114,89,182,199,137,7,-16
13,-110,-123,49,68,-116,85,156,176,135,8,-5
32,-105,-138,37,85,-121,65,149,139,96,1,-10
4,-111,-115,53,60,-112,42,143,138,83,-6,-18
49,-113,-161,32,106,-137,31,132,122,103,0,3
44,-90,-134,23,89,-112,-29,135,126,97,0,21
25,-90,-114,33,70,-102,-85,91,104,109,11,38
44,-88,-132,22,88,-110,-82,96,114,99,9,36
44,-24,-68,-10,56,-45,-72,58,127,116,43,41
57,100,43,-79,7,71,-62,100,176,103,35,25
36,114,78,-75,-21,96,-26,39,145,116,31,18
66,130,65,-98,0,97,-18,112,182,138,51,51
115,174,59,-145,28,116,-37,11,282,283,137,99
167,237,70,-203,48,154,-383,-1285,-898,461,438,326
211,460,249,-335,-19,354,-872,-2875,-2935,196,758,644
190,404,214,-297,-12,309,-1125,-3634,-3898,-363,1039,918
291,85,-207,-188,249,-61,-1256,-2892,-3264,-1174,767,913
380,-171,-551,-104,466,-361,-937,-1579,-1941,-1243,243,651
347,-413,-760,34,554,-587,-436,-706,-883,-637,14,355
267,-479,-746,106,507,-612,-120,-16,-158,-331,-192,52
114,-383,-497,135,306,-440,128,335,278,-41,-218,-107
22,-279,-301,129,161,-290,227,501,480,76,-196,-160
-1,-183,-183,92,92,-183,270,564,576,117,-163,-148
-31,-168,-137,100,53,-152,270,592,630,159,-137,-135
-22,-163,-142,93,60,-152,269,628,661,158,-160,-145
-23,-146,-123,85,50,-135,268,653,700,171,-151,-135
-8,-163,-155,85,74,-159,215,662,715,160,-165,-145
-45,-141,-96,93,26,-118,216,667,730,167,-151,-135
-67,-104,-37,86,-15,-71,258,717,782,172,-160,-140
-13,-96,-83,55,35,-89,308,750,819,182,-200,-179
-41,-88,-48,65,4,-68,353,807,864,180,-207,-188
-30,-80,-50,55,10,-64,377,865,921,177,-205,-183
-20,-83,-63,52,22,-73,402,892,967,174,-205,-181
-31,-76,-45,53,7,-60,391,883,962,176,-206,-180
-44,-60,-16,52,-14,-38,388,841,917,167,-202,-178
-96,-68,28,82,-62,-20,376,746,818,184,-178,-174
-63,-59,4,61,-33,-27,300,598,672,202,-125,-135
-29,-61,-32,45,2,-47,236,456,532,190,-63,-74
-22,-79,-56,51,17,-67,182,350,413,185,-29,-39
15,-83,-97,34,56,-90,139,275,325,178,11,1
14,-105,-119,46,67,-112,122,224,257,168,40,21
18,-120,-138,52,78,-129,108,189,226,150,40,35
56,-115,-171,30,114,-143,101,170,199,137,45,49
62,-125,-187,31,125,-156,82,165,190,133,45,46
48,-128,-175,40,112,-151,59,142,177,137,52,53
54,-105,-159,26,107,-131,24,147,177,132,50,53
72,-106,-177,17,125,-141,-39,116,164,138,56,56
78,-78,-155,0,117,-116,-62,133,151,133,55,48
83,-42,-125,-20,104,-83,-43,109,167,133,52,51
83,-36,-119,-24,102,-78,-16,116,182,163,78,77
57,-31,-88,-13,73,-59,25,117,217,194,96,82
84,-6,-89,-39,87,-47,23,73,199,201,110,94
116,69,-47,-92,81,11,40,215,388,239,119,114
169,135,-35,-152,102,49,-169,-619,-130,473,340,267
253,345,92,-300,80,218,-686,-2270,-2003,433,671,570
223,454,231,-339,-4,342,-1036,-3500,-3601,29,981,872
253,214,-40,-233,146,87,-1271,-3361,-3604,-765,924,962
384,-64,-447,-160,416,-255,-1156,-2059,-2435,-1313,385,755
416,-339,-754,-38,585,-546,-635,-1036,-1248,-849,66,470
352,-456,-808,52,581,-632,-225,-241,-388,-403,-109,171
228,-393,-621,83,424,-507,55,250,163,-132,-187,-38
76,-303,-380,114,228,-341,211,458,438,76,-149,-115
-5,-187,-181,97,88,-184,256,566,570,116,-143,-124
-46,-144,-98,95,26,-121,275,588,634,177,-117,-117
-8,-125,-117,66,55,-120,292,662,693,189,-136,-130
56,-108,-164,26,110,-136,265,658,705,203,-139,-124
26,-113,-139,43,83,-126,242,673,716,188,-140,-125
1,-106,-107,53,54,-106,238,677,735,188,-141,-125
3,-84,-87,41,45,-85,246,698,777,183,-139,-125
-22,-70,-48,47,13,-59,308,749,835,178,-145,-124
-14,-60,-45,37,16,-52,350,801,876,183,-157,-138
-4,-41,-38,22,17,-39,376,860,924,175,-168,-139
1,-32,-33,15,18,-32,410,910,981,191,-162,-138
17,-33,-50,8,34,-41,420,919,994,186,-187,-167
-24,-38,-15,31,-4,-26,403,870,950,173,-201,-174
-61,-25,35,43,-48,5,396,808,883,186,-176,-168
-50,-20,29,35,-39,4,338,676,749,200,-130,-137
26,-1,-26,-12,26,-13,251,530,611,214,-59,-79
54,25,-30,-39,42,-2,206,418,491,207,-14,-35
83,-9,-91,-37,87,-50,165,311,373,198,12,2
106,-56,-162,-24,134,-109,127,246,297,184,35,26
65,-69,-135,2,100,-102,99,207,248,152,34,24
98,-63,-161,-17,130,-112,84,179,205,146,36,28
84,-56,-140,-13,112,-98,80,173,187,143,34,28
67,-53,-120,-7,94,-86,60,145,176,142,37,39
116,-44,-160,-36,139,-102,26,145,181,137,34,58
111,-41,-152,-35,132,-97,-43,119,183,139,36,52
122,-34,-155,-44,139,-94,-83,121,185,133,35,42
116,-16,-131,-49,124,-73,-47,121,200,134,33,48
127,26,-101,-76,113,-37,-21,101,181,154,65,80
156,58,-99,-107,128,-20,22,137,216,169,78,97
157,61,-96,-109,127,-17,12,62,174,181,93,98
130,100,-30,-114,80,34,16,212,342,204,101,106
151,137,-14,-144,82,61,-86,-323,131,429,272,218
283,314,31,-299,126,173,-577,-1914,-1526,443,572,482
258,477,220,-368,19,348,-993,-3355,-3364,132,897,798
287,302,16,-295,135,159,-1255,-3563,-3734,-543,962,948
402,12,-390,-207,396,-189,-1231,-2344,-2703,-1259,472,795
406,-276,-682,-65,545,-479,-750,-1211,-1468,-984,93,516
386,-432,-818,23,602,-625,-319,-416,-568,-493,-98,210
264,-388,-652,62,459,-520,-4,179,69,-213,-226,-13
163,-279,-442,58,303,-360,182,429,390,37,-197,-112
83,-160,-243,39,163,-201,238,563,551,97,-162,-150
39,-106,-145,33,93,-125,260,587,614,153,-124,-132
40,-91,-131,26,86,-111,250,626,643,142,-125,-122
22,-95,-117,37,69,-106,251,653,688,160,-118,-121
45,-85,-130,20,88,-107,245,694,713,169,-146,-119
70,-43,-113,-13,91,-78,234,699,733,161,-165,-121
76,-22,-98,-27,87,-60,228,699,755,169,-157,-119
42,-20,-62,-10,52,-41,267,743,803,162,-162,-120
10,-22,-32,6,21,-27,324,790,850,167,-160,-137
27,2,-26,-14,27,-12,358,843,885,159,-181,-147
68,41,-27,-54,47,7,374,896,947,158,-180,-153
85,43,-42,-64,63,0,369,917,966,155,-181,-160
61,26,-36,-43,48,-5,358,889,946,149,-194,-149
-30,3,33,13,-32,18,364,823,881,156,-179,-147
-66,14,80,25,-73,47,340,699,755,177,-139,-140
21,47,26,-34,-3,36,260,550,616,185,-88,-93
44,38,-6,-41,25,16,198,420,480,176,-45,-42
51,29,-22,-40,36,4,156,326,385,164,-16,-13
85,12,-73,-48,79,-30,115,252,297,153,-2,19
103,-10,-113,-46,108,-61,97,211,236,142,6,27
86,-25,-110,-30,98,-67,88,179,207,136,14,23
97,-36,-133,-30,115,-84,73,168,187,126,11,54
134,-22,-156,-56,145,-89,53,154,180,125,8,67
127,-18,-145,-54,137,-82,10,141,166,122,6,65
134,-24,-157,-55,146,-90,-39,138,166,117,1,65
130,-8,-138,-61,134,-73,-85,113,156,119,1,66
121,6,-115,-64,118,-54,-86,137,178,110,4,65
100,29,-72,-65,86,-21,-33,92,159,137,41,68
127,75,-52,-101,89,11,-5,140,200,142,57,84
181,78,-103,-129,142,-13,-15,70,200,172,81,93
189,114,-75,-151,132,19,-5,149,237,172,85,103
201,169,-32,-185,117,68,-4,64,376,318,160,155
265,262,-3,-264,134,129,-374,-1292,-678,521,459,377
271,476,205,-374,33,340,-860,-2955,-2696,373,807,709
287,433,146,-360,70,290,-1127,-3723,-3733,-95,1058,955
410,146,-264,-278,336,-59,-1272,-2930,-3174,-1010,731,911
438,-147,-585,-145,511,-366,-939,-1578,-1892,-1189,210,647
435,-405,-840,-15,638,-623,-427,-676,-832,-611,-16,353
349,-475,-823,63,586,-649,-96,32,-118,-308,-195,60
188,-401,-589,107,389,-495,144,375,309,-31,-202,-80
119,-252,-371,67,245,-311,243,547,511,89,-168,-117
49,-176,-225,64,137,-200,288,613,612,145,-140,-121
5,-178,-183,86,94,-180,275,632,653,163,-127,-104
35,-159,-194,62,114,-176,257,674,678,167,-143,-115
72,-145,-217,37,145,-181,238,696,716,188,-137,-93
66,-119,-185,26,126,-152,222,702,733,168,-148,-110
46,-97,-143,26,95,-120,231,701,747,177,-164,-119
59,-60,-120,1,90,-90,264,750,802,164,-179,-139
68,-37,-105,-15,87,-71,326,809,855,167,-172,-119
