I,II,III,aVR,aVL,aVF,V1,V2,V3,V4,V5,V6
0,-145,-145,73,73,-145,145,300,230,-13,-104,-114
1,-141,-142,70,71,-141,149,307,252,8,-89,-104
1,-135,-136,67,69,-135,161,347,315,53,-58,-88
5,-124,-130,60,68,-127,159,404,379,112,-21,-76
29,-96,-125,34,77,-110,152,452,451,182,23,-58
63,-55,-117,-4,90,-86,161,513,531,275,77,-21
92,-16,-108,-38,100,-61,161,535,594,361,147,8
97,0,-97,-48,97,-48,132,525,611,417,196,40
103,15,-88,-59,95,-36,118,513,607,454,239,80
134,52,-83,-92,108,-15,95,486,596,461,263,99
134,54,-81,-94,107,-13,68,438,551,449,251,110
104,28,-76,-65,89,-24,61,352,469,403,244,117
91,19,-73,-55,82,-27,56,279,356,308,205,95
81,12,-69,-46,75,-29,51,196,241,198,131,48
52,-12,-63,-20,58,-37,44,130,153,101,69,15
36,-49,-85,6,61,-67,41,81,83,28,18,3
18,-80,-98,32,58,-89,45,33,35,-26,-25,-20
1,-92,-93,46,47,-92,59,30,10,-51,-54,-40
9,-87,-96,40,53,-92,66,27,3,-58,-54,-40
7,-86,-94,40,51,-90,64,24,0,-63,-62,-39
10,-81,-91,36,51,-86,65,21,-3,-66,-82,-36
7,-81,-88,37,47,-85,65,19,-8,-75,-79,-33
10,-75,-85,33,48,-80,65,29,-10,-77,-80,-39
21,-61,-82,20,52,-72,65,30,-5,-71,-80,-49
1,-78,-79,38,41,-79,65,30,-5,-66,-79,-51
0,-81,-80,41,40,-80,65,30,-5,-63,-83,-49
5,-75,-80,35,43,-77,65,30,-5,-57,-85,-53
6,-74,-80,34,43,-77,65,30,-5,-56,-85,-55
10,-69,-80,29,45,-75,66,30,-8,-60,-85,-55
9,-71,-80,31,45,-75,71,30,-16,-59,-85,-58
2,-78,-80,38,41,-78,76,30,-24,-69,-81,-61
-2,-75,-73,39,36,-74,79,30,-20,-72,-76,-59
8,-58,-65,25,37,-61,78,29,-13,-64,-74,-55
0,-60,-60,30,30,-60,70,31,-9,-61,-69,-47
0,-52,-52,27,26,-52,68,29,-1,-57,-66,-42
30,-10,-40,-10,35,-24,61,33,1,-51,-63,-34
56,28,-28,-42,42,0,60,41,15,-51,-58,-28
59,42,-17,-51,38,12,49,20,4,-60,-55,-22
51,38,-12,-44,31,13,-6,-17,-32,-62,-51,-19
43,42,-1,-42,22,20,-26,-38,-44,-60,-48,-15
58,44,-14,-50,36,15,-14,-33,-36,-59,-43,-12
79,7,-72,-43,76,-32,-18,-33,-51,-73,-54,-7
39,-56,-96,8,68,-76,-7,-27,-70,-88,-63,-4
4,-79,-84,38,44,-81,3,-26,-70,-88,-59,-27
18,-85,-104,34,61,-95,14,-26,-72,-102,-99,-57
-5,-112,-107,58,51,-109,34,-20,-66,-111,-121,-68
-24,-138,-113,81,45,-125,42,-25,-76,-124,-108,-76
-27,-136,-108,81,41,-121,50,-12,-62,-133,-128,-85
-22,-131,-109,77,44,-119,37,-29,-81,-125,-116,-76
-27,-143,-116,85,45,-129,75,8,-57,-137,-137,-81
-32,-129,-97,80,33,-113,68,-29,-67,-122,-119,-69
-36,-192,-156,114,60,-174,148,146,45,-135,-172,-125
-19,-168,-148,94,65,-158,266,375,285,-13,-200,-159
209,138,-71,-174,140,34,-149,-214,-71,311,340,236
366,1006,640,-687,-137,823,-872,-1312,-686,952,1386,1029
222,1458,1236,-840,-507,1347,-1254,-2160,-1429,831,1577,1316
-15,649,664,-317,-340,657,-967,-1961,-1833,-602,228,609
-92,125,218,-17,-155,171,-507,-1049,-1152,-903,-439,70
-52,13,65,20,-59,39,-207,-403,-454,-366,-204,-20
-64,-146,-82,105,9,-113,37,-57,-150,-257,-236,-118
-36,-137,-101,87,32,-118,102,70,5,-128,-174,-101
-30,-178,-148,104,59,-163,133,116,23,-139,-176,-119
-47,-183,-137,115,45,-160,144,152,72,-110,-165,-122
-44,-187,-142,115,49,-164,141,152,88,-98,-147,-117
-43,-179,-136,111,47,-157,148,166,101,-90,-154,-124
-37,-171,-133,104,48,-152,143,180,124,-65,-137,-116
-38,-170,-132,104,47,-151,146,187,140,-65,-145,-123
-29,-157,-128,93,49,-142,148,223,178,-30,-130,-115
-36,-161,-125,99,44,-143,159,245,203,-18,-121,-112
-22,-133,-111,78,44,-122,151,259,244,22,-88,-105
-10,-113,-103,62,47,-108,144,294,295,61,-60,-94
-21,-113,-92,67,36,-102,138,335,347,108,-22,-73
9,-74,-83,33,46,-78,130,385,422,184,23,-40
28,-44,-72,8,50,-58,126,418,484,255,55,-12
36,-28,-64,-3,50,-46,114,443,537,337,126,17
46,9,-37,-27,41,-14,97,454,557,419,195,47
63,50,-14,-56,38,18,82,430,540,445,227,75
94,79,-15,-86,54,32,63,391,524,432,265,99
91,76,-16,-83,53,30,43,347,487,422,268,114
83,69,-14,-76,48,27,30,288,419,392,255,115
80,64,-16,-71,47,24,17,224,323,306,202,89
73,49,-25,-61,49,12,13,171,222,205,123,64
52,20,-32,-36,42,-6,8,119,139,109,56,30
15,-17,-32,1,24,-24,4,73,81,36,-7,-6
5,-31,-37,14,21,-34,22,44,37,-4,-36,-19
1,-54,-56,27,28,-55,37,36,7,-42,-57,-44
-7,-65,-58,36,26,-61,35,32,-8,-61,-72,-61
-16,-65,-49,41,17,-56,34,25,-14,-69,-78,-63
-35,-80,-45,58,6,-62,37,20,-21,-76,-93,-68
-20,-58,-38,40,9,-48,32,15,-23,-74,-95,-70
-13,-47,-34,31,11,-40,41,25,-19,-75,-91,-70
-32,-60,-28,46,-2,-43,60,38,-21,-75,-89,-70
-35,-57,-22,46,-6,-39,54,40,-16,-76,-85,-70
-34,-54,-20,44,-6,-36,48,40,-15,-73,-85,-69
-30,-50,-20,40,-5,-35,44,40,-16,-70,-85,-65
-26,-46,-20,36,-3,-33,35,40,-15,-67,-85,-65
-23,-43,-20,33,-1,-31,40,39,-16,-65,-85,-65
-18,-38,-20,28,1,-29,51,41,-13,-62,-85,-65
-17,-36,-20,27,2,-28,46,39,-24,-59,-85,-65
-16,-29,-13,22,-1,-21,43,41,-29,-72,-83,-63
-23,-28,-5,26,-9,-16,40,39,-20,-72,-76,-56
-22,-18,3,20,-12,-7,35,41,-15,-64,-69,-50
-1,14,15,-7,-8,14,34,42,-6,-66,-64,-46
-2,25,27,-11,-15,26,27,50,-2,-64,-55,-43
-2,49,50,-24,-26,49,27,56,10,-65,-51,-38
-6,58,65,-26,-36,61,-10,-7,-3,-65,-49,-37
13,68,55,-41,-21,61,-52,-46,-48,-65,-48,-29
44,87,43,-65,1,65,-42,-29,-53,-67,-43,0
37,45,7,-41,15,26,-32,-27,-62,-70,-46,0
30,5,-25,-17,27,-10,-24,-20,-84,-83,-52,-19
-13,-35,-22,24,4,-28,-6,-9,-83,-91,-55,-35
-33,-90,-57,61,12,-73,9,-21,-89,-99,-79,-62
-27,-101,-73,64,23,-87,26,-26,-80,-116,-104,-90
-32,-111,-78,72,23,-94,28,-30,-91,-114,-97,-88
-24,-115,-91,70,34,-103,48,-11,-77,-116,-96,-92
-29,-101,-71,65,21,-85,45,-29,-86,-117,-102,-88
-48,-138,-90,93,21,-114,63,-12,-76,-132,-131,-92
-59,-117,-57,89,-1,-87,61,-21,-83,-131,-133,-103
-30,-146,-116,88,44,-131,96,46,-50,-116,-125,-101
-37,-173,-136,105,50,-154,259,325,243,-49,-197,-166
86,-4,-90,-41,88,-47,13,-18,18,160,96,34
274,705,432,-490,-79,568,-651,-1002,-666,596,961,716
207,1513,1306,-860,-550,1409,-1195,-1925,-1375,742,1513,1241
11,964,953,-488,-471,958,-1097,-2021,-1878,-333,567,800
-101,163,264,-32,-182,213,-593,-1215,-1379,-1002,-433,111
-80,44,123,18,-102,83,-265,-517,-601,-500,-281,-37
-69,-111,-43,90,-13,-77,-9,-131,-227,-274,-209,-116
-59,-159,-100,109,21,-129,89,53,-23,-170,-184,-133
-61,-180,-119,121,29,-149,113,98,28,-114,-139,-119
-65,-192,-127,129,31,-160,139,143,70,-110,-160,-131
-41,-182,-141,112,50,-161,125,157,93,-76,-127,-122
-47,-186,-140,117,47,-163,125,161,90,-87,-142,-153
-39,-170,-131,104,47,-150,125,177,118,-62,-119,-142
-40,-174,-134,107,47,-154,153,202,139,-65,-124,-138
-38,-162,-124,101,43,-143,155,219,162,-27,-109,-131
-38,-164,-125,102,44,-144,154,235,193,-9,-99,-123
-41,-153,-112,97,35,-132,156,256,226,14,-85,-119
-14,-115,-101,64,44,-108,154,282,279,63,-57,-104
-3,-87,-84,45,41,-85,156,318,332,104,-23,-93
-6,-67,-61,37,28,-63,147,360,397,167,25,-73
7,-49,-56,21,32,-52,139,396,459,233,70,-47
35,-7,-42,-14,38,-24,131,422,515,308,135,-11
60,52,-8,-56,34,21,118,422,543,372,199,23
62,64,2,-63,30,32,86,408,535,413,248,51
63,74,11,-69,26,42,62,399,532,425,281,82
52,75,23,-64,14,49,46,352,487,408,274,96
42,61,19,-52,11,40,29,285,418,382,268,103
36,53,16,-45,10,35,33,226,328,291,230,99
40,44,4,-42,18,24,36,174,239,190,163,60
49,31,-18,-40,34,6,34,137,164,120,109,20
12,-18,-30,3,21,-24,31,91,83,43,42,-18
-1,-37,-36,19,18,-36,29,62,40,-12,10,-52
-2,-37,-35,20,16,-35,31,47,6,-49,1,-62
-18,-54,-36,36,9,-45,40,36,-17,-77,-9,-64
-2,-55,-52,29,26,-53,49,41,-20,-81,-13,-66
0,-56,-56,29,28,-56,52,39,-21,-79,-23,-69
-6,-57,-51,31,23,-53,55,44,-20,-81,-28,-70
-5,-55,-49,30,23,-52,59,45,-21,-79,-40,-70
-9,-54,-45,32,19,-50,59,44,-20,-82,-50,-70
-6,-51,-45,29,19,-48,55,57,-16,-87,-42,-70
-9,-48,-39,29,15,-43,53,59,-15,-86,-36,-70
-21,-55,-34,38,6,-44,49,51,-15,-82,-30,-70
-11,-40,-29,26,9,-34,47,50,-15,-80,-21,-70
-5,-28,-23,16,9,-25,44,42,-15,-77,-26,-70
-26,-42,-16,34,-4,-29,42,41,-13,-75,-32,-75
-22,-39,-18,31,-2,-28,30,43,-10,-72,-26,-74
-12,-29,-18,20,3,-23,31,46,-7,-69,-24,-70
-18,-22,-3,20,-7,-12,53,43,-4,-66,-19,-67
-10,-4,6,7,-7,1,56,46,0,-64,-17,-63
10,33,23,-22,-7,28,46,62,0,-60,-11,-60
8,43,35,-25,-14,39,34,69,13,-61,5,-56
16,65,49,-41,-17,57,19,59,21,-66,18,-55
5,70,65,-38,-30,68,-21,8,-12,-64,20,-55
5,63,58,-35,-27,60,-51,-30,-53,-66,30,-52
59,104,45,-82,6,74,-39,-18,-54,-63,27,-39
69,66,-3,-68,36,32,-30,-16,-56,-67,21,-28
68,17,-51,-42,59,-17,-3,-4,-60,-73,14,-24
44,-5,-49,-19,47,-27,24,3,-59,-68,-71,-28
5,-54,-60,25,33,-57,32,-1,-63,-103,-136,-56
-35,-94,-60,65,13,-77,39,4,-57,-124,-150,-82
-55,-125,-70,91,8,-97,30,-8,-73,-123,-153,-90
-28,-103,-75,66,24,-89,59,12,-50,-131,-149,-98
-36,-112,-76,75,20,-94,52,-7,-67,-127,-151,-92
-48,-142,-94,95,23,-118,71,30,-39,-139,-170,-97
-44,-106,-62,75,9,-84,54,-5,-62,-130,-170,-94
-24,-157,-132,91,54,-144,118,105,13,-133,-204,-124
6,-123,-128,59,67,-125,260,341,267,-18,-222,-160
152,107,-45,-129,98,31,-111,-204,-130,220,189,146
278,895,617,-587,-170,756,-804,-1251,-814,679,1098,862
176,1507,1331,-842,-578,1419,-1257,-2100,-1526,623,1388,1225
-13,759,772,-373,-393,765,-1038,-1988,-1899,-597,229,638
-107,109,216,-1,-162,162,-530,-1087,-1228,-956,-500,68
-76,30,106,23,-91,67,-223,-454,-513,-426,-286,-37
-84,-112,-27,98,-28,-69,23,-114,-194,-274,-263,-130
-84,-140,-56,112,-14,-98,88,23,-47,-143,-203,-133
-62,-174,-112,118,25,-143,102,72,-5,-128,-200,-134
-65,-168,-103,117,19,-135,131,125,60,-104,-199,-137
-58,-169,-112,114,27,-141,144,127,61,-82,-180,-132
-64,-172,-108,119,22,-139,144,143,82,-87,-188,-137
-66,-167,-101,117,17,-134,130,152,106,-68,-167,-138
-70,-172,-102,121,16,-137,138,164,113,-72,-173,-128
-59,-152,-93,106,17,-122,133,192,153,-44,-142,-107
-40,-134,-95,87,28,-114,136,211,184,-18,-125,-123
-44,-129,-85,87,20,-106,135,235,219,23,-111,-108
-49,-131,-82,90,16,-106,133,279,274,55,-98,-88
-36,-110,-74,73,19,-92,126,328,344,113,-58,-76
-8,-78,-70,43,32,-74,119,379,414,189,-11,-58
35,-24,-59,-5,47,-41,113,435,485,273,45,-25
29,-9,-38,-9,34,-24,105,455,547,347,113,2
40,23,-18,-31,29,3,101,442,571,410,165,28
102,98,-4,-100,53,47,88,435,578,468,230,78
103,103,-1,-103,52,51,71,415,560,481,256,101
84,87,4,-86,40,45,54,364,514,449,255,103
74,84,9,-79,32,46,45,300,447,401,248,92
50,58,8,-55,21,33,42,244,347,319,192,82
21,22,1,-22,10,11,38,172,232,209,121,57
3,-3,-6,0,4,-4,35,112,141,117,50,15
-25,-37,-12,31,-6,-24,31,77,78,41,5,-7
-39,-59,-19,49,-10,-39,28,28,34,7,-20,-34
-28,-53,-25,41,-1,-39,25,-1,19,-24,-52,-42
-23,-55,-32,39,5,-43,32,1,8,-56,-71,-40
-32,-75,-43,54,6,-59,36,5,0,-54,-78,-50
-43,-91,-48,67,2,-69,33,8,-1,-64,-88,-52
-43,-84,-41,63,-1,-62,53,13,-5,-65,-104,-56
-42,-79,-36,61,-3,-57,64,16,-8,-66,-106,-54
-42,-73,-31,58,-5,-52,57,14,-10,-76,-104,-49
-42,-67,-25,55,-9,-46,53,16,-13,-71,-105,-56
-43,-63,-20,53,-11,-41,49,13,-15,-66,-105,-61
-44,-59,-15,52,-15,-36,43,21,-15,-61,-104,-55
-42,-57,-16,50,-13,-36,41,40,-15,-55,-99,-53
-40,-53,-13,47,-13,-33,44,35,-16,-51,-101,-48
-41,-51,-10,46,-15,-31,46,30,-14,-55,-97,-45
-40,-49,-9,44,-15,-29,44,25,-11,-64,-95,-50
-32,-45,-14,39,-9,-29,47,18,-10,-62,-95,-48
-6,-38,-31,22,13,-34,54,16,-11,-60,-91,-43
-10,-34,-24,22,8,-29,48,14,-9,-60,-90,-39
-19,-21,-2,20,-9,-11,39,17,-10,-58,-86,-35
10,20,10,-16,0,15,31,14,-7,-54,-84,-30
9,42,33,-26,-13,38,24,19,8,-56,-79,-24
1,46,46,-24,-23,46,-6,-7,-14,-78,-83,-18
15,55,39,-35,-12,47,-45,-55,-51,-87,-82,-12
30,61,31,-46,0,46,-49,-60,-56,-84,-64,-7
50,52,2,-51,24,27,-38,-50,-54,-87,-66,-1
38,-11,-49,-13,44,-30,-38,-51,-66,-104,-71,-10
14,-64,-77,25,46,-70,-26,-38,-63,-120,-74,-26
5,-67,-72,32,39,-69,-19,-39,-67,-121,-85,-40
-4,-84,-80,44,39,-82,-7,-29,-75,-138,-109,-68
-24,-99,-75,61,26,-87,2,-28,-75,-139,-124,-81
-29,-114,-85,71,28,-100,6,-27,-78,-140,-127,-83
-39,-115,-77,77,19,-96,38,-14,-64,-141,-137,-88
-43,-135,-92,89,24,-113,44,-29,-79,-138,-129,-84
-37,-127,-90,82,26,-109,60,6,-49,-143,-148,-96
-27,-120,-93,74,33,-106,35,-32,-91,-132,-131,-87
-52,-196,-144,124,46,-169,166,190,75,-136,-199,-159
-29,-149,-120,89,46,-134,215,310,244,1,-159,-149
232,219,-13,-225,122,103,-303,-408,-221,354,443,318
334,1125,791,-730,-229,958,-995,-1487,-825,969,1434,1092
151,1371,1220,-762,-535,1295,-1303,-2207,-1574,569,1350,1230
-34,519,553,-243,-293,536,-956,-1818,-1801,-788,3,507
-99,82,181,9,-140,131,-480,-900,-1018,-801,-404,69
-70,-21,49,45,-60,14,-167,-335,-406,-329,-202,-38
-57,-114,-57,86,0,-85,56,-16,-127,-240,-228,-116
-29,-127,-98,78,34,-112,105,77,-8,-120,-158,-107
-49,-181,-131,115,41,-156,130,102,9,-140,-189,-142
-51,-167,-116,110,32,-141,135,145,66,-99,-164,-123
-40,-171,-132,106,46,-151,144,154,78,-99,-166,-124
-48,-164,-116,106,35,-140,142,169,102,-79,-158,-120
-33,-153,-120,94,43,-136,133,194,126,-58,-139,-111
-29,-142,-113,86,42,-127,134,205,144,-50,-137,-112
-14,-123,-109,68,48,-116,124,218,170,-23,-118,-100
-23,-139,-116,81,47,-127,129,244,202,-9,-116,-97
-26,-136,-110,81,42,-123,137,277,244,31,-90,-85
1,-102,-102,51,52,-101,146,320,299,64,-65,-81
21,-72,-93,25,58,-82,144,369,363,123,-25,-67
44,-41,-85,-2,65,-62,146,428,436,197,25,-32
46,-29,-75,-8,61,-52,141,482,516,286,81,-1
51,-14,-65,-18,58,-40,125,508,570,369,154,24
67,12,-55,-39,61,-21,110,492,583,427,204,52
87,37,-50,-62,68,-6,85,474,575,469,244,83
108,60,-48,-83,78,6,57,443,555,472,273,99
99,54,-45,-76,72,5,38,388,510,462,273,90
106,64,-42,-85,74,11,29,318,426,404,250,78
79,40,-40,-59,59,0,25,225,316,290,182,68
37,-3,-40,-17,38,-21,20,158,215,188,110,47
38,-9,-47,-14,43,-28,16,121,131,101,62,20
9,-42,-51,16,30,-46,11,68,68,26,9,-9
-17,-67,-50,42,16,-58,13,36,19,-23,-32,-38
-32,-82,-50,57,9,-66,26,32,-17,-51,-41,-47
-36,-86,-50,61,7,-68,37,26,-37,-81,-54,-44
-31,-81,-50,56,9,-65,41,23,-41,-92,-62,-49
-35,-80,-45,58,5,-62,39,17,-40,-90,-59,-50
-35,-75,-40,55,3,-57,42,16,-40,-96,-60,-50
-40,-75,-36,58,-1,-55,62,19,-40,-94,-61,-55
-34,-65,-31,50,-1,-48,66,14,-40,-91,-62,-55
-28,-55,-27,42,-1,-41,64,15,-31,-86,-60,-56
-15,-37,-22,27,4,-30,65,15,-18,-83,-60,-60
-27,-47,-20,37,-3,-33,65,15,-8,-80,-57,-60
-54,-74,-20,64,-17,-47,64,15,-4,-75,-54,-59
-49,-65,-17,57,-16,-41,57,12,-6,-78,-55,-61
-50,-64,-14,57,-17,-39,52,9,-4,-80,-61,-59
-44,-60,-16,53,-14,-37,47,6,-7,-81,-63,-62
-33,-54,-21,43,-5,-37,41,3,-15,-85,-59,-75
-28,-62,-34,45,4,-47,36,-1,-16,-85,-60,-72
-18,-54,-36,36,9,-45,38,1,-15,-79,-60,-66
-8,-32,-24,20,9,-28,54,9,-12,-74,-60,-63
-3,-16,-13,10,5,-14,65,18,-9,-69,-61,-57
-12,-5,7,8,-9,1,51,24,-10,-63,-55,-54
0,26,26,-13,-13,26,46,36,-3,-56,-49,-46
18,52,35,-35,-9,43,20,17,-11,-54,-43,-38
21,49,28,-36,-3,38,-51,-45,-36,-67,-37,-30
25,51,25,-38,0,38,-75,-65,-53,-71,-37,-22
45,49,5,-47,20,27,-66,-56,-55,-69,-44,-20
65,12,-53,-39,59,-20,-74,-64,-67,-89,-51,-20
47,-29,-76,-9,62,-52,-54,-53,-71,-107,-42,-20
19,-44,-63,13,41,-54,-17,-48,-66,-106,-49,-22
-6,-89,-84,48,39,-86,-1,-39,-67,-118,-86,-46
-32,-127,-95,80,31,-111,3,-29,-58,-127,-97,-65
-26,-131,-105,79,39,-118,14,-29,-65,-123,-96,-67
-34,-131,-97,82,32,-114,38,-8,-57,-128,-113,-75
-32,-127,-95,80,31,-111,32,-21,-74,-113,-102,-63
-35,-135,-100,86,32,-117,47,18,-55,-128,-120,-85
-48,-130,-82,90,17,-106,27,-19,-77,-115,-99,-80
-60,-195,-135,128,38,-164,133,136,48,-120,-155,-138
-50,-187,-136,119,43,-161,243,357,293,-23,-178,-177
188,94,-94,-141,141,0,-172,-217,-44,307,340,209
363,941,579,-652,-108,760,-880,-1319,-607,1016,1407,1006
243,1426,1184,-835,-471,1305,-1310,-2217,-1365,944,1665,1361
-1,676,677,-338,-339,676,-1067,-2068,-1866,-553,329,695
-106,132,238,-14,-172,185,-565,-1108,-1188,-898,-369,139
-70,18,88,26,-79,53,-211,-434,-462,-364,-182,4
-109,-145,-36,127,-36,-90,24,-99,-174,-287,-223,-133
-72,-146,-74,109,1,-110,88,45,-10,-139,-146,-126
-43,-162,-119,102,38,-140,118,98,10,-143,-159,-138
-46,-150,-105,98,30,-127,121,136,55,-115,-153,-128
-45,-164,-119,105,37,-141,136,145,82,-99,-144,-119
-69,-182,-113,126,22,-147,144,165,104,-96,-152,-118
-55,-170,-115,113,30,-142,136,182,118,-67,-138,-104
-52,-168,-116,111,32,-142,143,215,149,-69,-140,-104
-43,-157,-114,101,35,-135,138,234,181,-36,-108,-94
-41,-152,-112,97,36,-132,142,256,207,-27,-96,-93
-39,-138,-99,89,31,-119,147,298,256,3,-63,-84
-17,-110,-93,64,39,-102,147,328,298,41,-53,-81
7,-77,-83,35,45,-80,139,376,355,94,-25,-63
18,-58,-76,20,47,-66,132,433,429,170,25,-34
26,-37,-63,6,45,-50,126,486,510,261,80,-6
48,-3,-50,-22,49,-26,119,525,573,352,145,18
47,13,-33,-30,40,-10,115,523,604,424,198,40
72,52,-20,-62,46,15,99,508,606,476,253,84
104,84,-21,-94,62,31,84,487,597,510,295,112
93,74,-19,-83,56,27,63,433,566,499,311,104
102,86,-16,-94,59,35,38,365,484,444,293,97
83,68,-14,-75,48,27,29,277,369,351,228,92
33,17,-17,-25,25,0,25,199,249,238,149,66
9,-11,-20,1,15,-15,41,148,153,132,74,26
-3,-23,-20,13,9,-21,53,92,82,51,5,1
-21,-48,-27,35,3,-37,48,43,24,-1,-29,-22
-48,-79,-31,63,-8,-55,55,27,-14,-43,-48,-42
-52,-81,-29,66,-11,-55,55,24,-29,-55,-63,-52
-52,-83,-31,68,-10,-57,55,19,-33,-54,-71,-55
-56,-86,-31,71,-12,-58,60,15,-40,-76,-80,-56
-34,-64,-30,49,-2,-47,60,10,-45,-91,-83,-53
-41,-71,-30,56,-5,-50,61,13,-45,-93,-86,-65
-69,-99,-30,84,-19,-64,65,20,-45,-91,-90,-81
-56,-86,-30,71,-13,-58,65,24,-45,-86,-87,-73
-47,-75,-29,61,-9,-52,63,31,-41,-84,-96,-69
-51,-75,-25,63,-12,-50,58,34,-35,-79,-105,-62
-49,-75,-25,62,-12,-50,55,26,-27,-76,-96,-58
-53,-75,-23,64,-15,-49,52,18,-22,-75,-93,-54
-55,-75,-19,65,-17,-47,47,10,-12,-76,-86,-57
-55,-75,-20,65,-17,-47,45,2,-16,-75,-81,-74
-55,-78,-23,67,-16,-50,49,-4,-36,-76,-84,-76
-59,-85,-26,72,-16,-55,50,-7,-34,-74,-85,-74
-57,-86,-29,71,-13,-58,51,-10,-40,-76,-90,-71
-65,-94,-29,79,-18,-62,56,-14,-48,-85,-89,-70
-60,-81,-20,71,-20,-50,54,-14,-39,-79,-83,-69
-40,-53,-13,46,-13,-33,54,-6,-31,-69,-77,-57
-42,-47,-5,45,-18,-26,45,2,-22,-61,-72,-46
-29,-28,1,28,-15,-13,40,7,-16,-55,-67,-36
-15,1,16,7,-16,8,52,22,-6,-54,-61,-30
4,40,36,-22,-17,38,27,4,-3,-49,-58,-22
18,52,34,-36,-8,43,-7,-42,-20,-48,-52,-16
18,51,33,-35,-7,42,-15,-49,-36,-43,-51,-8
53,63,10,-58,21,36,-25,-39,-47,-48,-56,-6
62,25,-37,-43,49,-6,-34,-38,-72,-73,-58,-22
34,-20,-54,-7,45,-37,1,-29,-80,-76,-62,-32
-2,-52,-50,27,24,-51,25,-25,-81,-75,-64,-33
-16,-89,-73,53,29,-80,25,-28,-88,-112,-88,-51
-20,-93,-73,57,26,-83,41,-35,-74,-122,-107,-76
-29,-106,-77,68,24,-91,35,-38,-80,-118,-99,-77
-49,-128,-78,89,15,-103,53,-12,-62,-139,-112,-84
-55,-132,-77,94,11,-105,50,-28,-73,-130,-97,-75
-34,-122,-88,78,27,-105,78,10,-53,-139,-114,-85
-26,-99,-72,63,23,-85,53,-25,-50,-124,-98,-87
-52,-183,-132,118,40,-157,128,112,33,-127,-169,-140
-65,-178,-113,122,25,-145,270,384,267,-14,-210,-195
160,93,-66,-126,113,14,-107,-133,-28,317,297,174
338,943,605,-641,-134,774,-796,-1227,-638,947,1344,976
213,1508,1295,-861,-541,1402,-1227,-2104,-1377,922,1664,1348
3,758,755,-381,-376,756,-984,-1991,-1842,-496,334,680
-101,150,251,-25,-176,200,-524,-1123,-1230,-926,-439,81
-83,37,119,23,-101,78,-240,-465,-502,-377,-214,-25
-61,-94,-34,77,-13,-64,27,-94,-173,-254,-230,-114
-45,-123,-77,84,16,-100,96,39,-3,-120,-161,-107
-59,-172,-113,116,27,-143,120,80,22,-122,-170,-133
-46,-151,-105,99,30,-128,142,131,71,-89,-161,-131
-40,-155,-115,98,38,-135,137,139,87,-66,-144,-127
-46,-151,-105,99,29,-127,143,161,94,-74,-152,-131
-39,-143,-103,92,33,-123,137,177,114,-48,-130,-118
-46,-146,-100,96,28,-123,142,176,126,-57,-137,-123
-41,-135,-94,89,27,-114,137,190,152,-36,-119,-113
-51,-145,-94,98,21,-119,135,216,190,-26,-118,-113
-23,-105,-83,64,30,-94,135,247,230,10,-98,-108
-3,-80,-77,42,37,-78,133,271,274,51,-75,-94
-12,-79,-67,46,28,-73,129,308,333,101,-36,-69
15,-46,-61,15,38,-53,131,358,399,167,9,-46
49,-1,-51,-24,50,-26,123,409,477,257,62,-18
84,45,-38,-64,61,3,108,454,535,339,132,16
88,61,-27,-75,58,17,95,449,556,399,188,51
72,60,-12,-65,41,24,68,426,559,444,230,87
83,84,1,-84,41,42,42,395,546,454,262,115
109,110,2,-110,53,56,28,356,521,451,286,122
112,110,-2,-111,57,54,16,311,451,411,274,112
91,87,-4,-88,47,41,3,240,340,318,210,103
65,57,-8,-61,36,24,6,176,240,216,138,72
29,19,-10,-24,19,4,13,131,154,115,81,30
3,-9,-13,3,8,-11,24,90,83,40,18,0
-11,-30,-18,21,4,-24,27,72,38,-13,-32,-28
-29,-54,-24,42,-2,-39,26,65,21,-45,-51,-30
-31,-61,-29,46,-1,-45,48,57,9,-64,-66,-35
-35,-60,-25,48,-4,-42,51,53,-2,-80,-85,-58
-28,-53,-25,41,-1,-39,48,47,-12,-80,-92,-60
-30,-54,-24,43,-3,-39,46,44,-19,-80,-93,-61
-47,-66,-19,57,-13,-42,44,38,-15,-79,-97,-65
-39,-60,-21,49,-9,-40,46,37,-7,-75,-100,-65
-40,-57,-17,49,-11,-37,43,50,-1,-76,-99,-73
-35,-49,-15,42,-9,-32,57,48,6,-72,-95,-75
-12,-27,-15,20,2,-21,67,44,13,-70,-93,-75
-13,-25,-11,19,0,-18,65,41,13,-70,-90,-75
-13,-23,-10,18,-2,-16,64,36,9,-70,-87,-75
-9,-20,-10,14,0,-15,61,34,10,-70,-85,-74
-11,-20,-10,15,0,-15,58,29,6,-71,-85,-71
-6,-16,-10,11,2,-13,65,26,4,-74,-85,-68
-5,-15,-10,10,3,-12,76,22,6,-77,-85,-65
-6,-14,-8,10,1,-10,70,19,-6,-79,-86,-63
-28,-31,-3,30,-12,-16,65,14,-20,-83,-84,-59
-41,-38,3,39,-22,-17,62,19,-35,-92,-88,-66
-29,-24,5,26,-17,-9,55,25,-43,-90,-96,-71
-29,-16,13,22,-20,-2,60,32,-36,-83,-90,-63
-17,-3,14,9,-15,5,66,35,-31,-79,-85,-59
-7,17,24,-6,-15,20,55,35,-24,-71,-79,-53
1,53,52,-28,-25,52,45,44,-29,-72,-74,-48
40,91,51,-66,-6,71,34,18,-33,-75,-76,-43
58,99,42,-79,8,70,-14,-23,-36,-76,-72,-37
64,100,36,-82,13,68,-43,-33,-56,-80,-70,-34
49,76,27,-62,10,51,-28,-26,-54,-80,-70,-28
35,24,-11,-29,23,6,-22,-27,-55,-90,-74,-25
44,-5,-49,-19,46,-26,-8,-18,-47,-98,-81,-24
14,-36,-50,11,33,-43,4,-19,-56,-99,-87,-32
-4,-81,-76,43,36,-78,18,-13,-75,-126,-117,-70
-4,-80,-76,42,36,-78,33,-7,-73,-131,-129,-82
-14,-99,-85,56,36,-92,34,-6,-79,-129,-120,-82
-41,-116,-75,78,17,-95,54,10,-68,-133,-132,-91
-31,-114,-83,72,27,-98,48,-4,-86,-126,-116,-90
-37,-117,-80,77,21,-98,60,33,-57,-136,-136,-118
-34,-110,-76,72,21,-93,44,0,-74,-128,-122,-102
-36,-172,-136,104,51,-154,171,216,94,-130,-182,-163
-14,-127,-113,70,50,-120,237,362,255,13,-146,-163
221,215,-6,-218,113,104,-261,-348,-210,372,458,298
326,1140,813,-733,-244,976,-967,-1447,-877,924,1450,1076
174,1461,1287,-818,-557,1374,-1288,-2178,-1647,528,1385,1227
-52,555,606,-252,-329,580,-935,-1812,-1838,-807,19,478
-110,100,210,5,-161,155,-473,-903,-1056,-855,-423,21
-41,22,62,9,-52,42,-185,-324,-419,-350,-200,-65
-60,-110,-50,85,-4,-80,47,-7,-132,-253,-219,-145
-45,-120,-75,83,15,-98,88,91,-19,-138,-148,-133
-48,-164,-117,106,35,-140,105,118,6,-157,-177,-158
-47,-151,-104,100,28,-127,111,153,61,-124,-152,-146
-31,-152,-120,92,45,-136,109,175,71,-121,-151,-151
-36,-142,-106,89,35,-124,112,176,94,-104,-148,-151
-30,-135,-105,83,38,-120,108,193,110,-77,-134,-148
-33,-132,-99,82,33,-115,112,216,128,-57,-135,-147
-30,-121,-92,76,31,-106,109,229,160,-35,-120,-135
-28,-117,-89,72,31,-102,121,252,190,-32,-117,-132
-25,-106,-81,65,28,-93,128,280,232,14,-90,-123
-21,-100,-79,61,29,-89,132,320,286,57,-57,-115
-19,-91,-73,56,27,-82,135,363,362,118,-14,-88
-2,-72,-70,37,34,-71,135,407,433,196,24,-61
18,-35,-53,8,36,-44,130,440,493,276,81,-34
49,16,-32,-32,41,-8,123,463,558,363,148,5
73,53,-20,-63,46,17,113,472,579,431,208,39
76,67,-8,-71,42,29,94,452,572,473,256,67
81,72,-9,-76,45,31,68,409,558,479,289,94
78,64,-14,-70,46,25,38,353,510,456,296,99
70,54,-16,-62,43,19,29,294,440,414,271,94
67,46,-21,-56,44,12,31,219,333,322,215,82
57,33,-24,-45,40,4,27,146,230,215,145,48
28,0,-28,-14,28,-14,25,95,151,127,86,3
10,-20,-30,5,20,-24,25,53,78,55,27,-35
-1,-32,-31,17,15,-32,33,28,25,6,-14,-54
-4,-39,-35,22,15,-37,36,17,-5,-25,-35,-65
-6,-41,-35,24,14,-38,35,12,-17,-43,-50,-75
-42,-77,-35,60,-3,-56,32,7,-38,-66,-67,-82
-47,-82,-35,65,-6,-58,30,1,-41,-78,-82,-78
-36,-71,-35,54,0,-52,29,-4,-34,-79,-79,-72
-32,-67,-35,50,2,-51,39,-2,-34,-81,-80,-69
-24,-59,-35,42,6,-46,51,3,-28,-80,-80,-63
-19,-54,-35,37,8,-44,45,6,-26,-80,-80,-61
-13,-48,-35,31,11,-41,40,9,-21,-80,-77,-64
-7,-42,-35,25,14,-38,37,14,-20,-80,-74,-65
-3,-38,-35,21,16,-36,30,14,-20,-77,-76,-65
1,-33,-35,17,18,-34,30,7,-16,-72,-70,-65
7,-28,-35,11,21,-31,42,2,-15,-70,-71,-65
-11,-51,-39,31,14,-45,43,-3,-16,-65,-69,-65
-21,-64,-43,43,11,-53,33,-9,-22,-62,-64,-65
-7,-53,-46,31,19,-49,28,-14,-28,-59,-60,-66
-1,-51,-50,26,25,-50,20,-11,-33,-51,-54,-70
-29,-77,-48,53,9,-62,15,-4,-39,-63,-71,-70
-29,-73,-45,51,8,-58,24,1,-44,-77,-80,-70
-14,-59,-45,37,15,-52,37,4,-52,-82,-71,-70
-19,-65,-45,42,13,-55,48,8,-54,-84,-68,-70
-6,-50,-44,28,20,-47,50,10,-48,-76,-61,-67
-23,-62,-39,43,8,-50,50,17,-42,-72,-56,-59
-17,-41,-24,29,4,-32,51,10,-36,-67,-52,-51
18,18,1,-18,8,9,49,14,-37,-61,-47,-43
26,55,28,-41,-1,41,53,29,-41,-60,-45,-35
20,61,42,-41,-11,51,9,-9,-38,-60,-40,-29
21,59,38,-40,-8,48,-54,-39,-35,-60,-36,-22
25,61,36,-43,-6,48,-49,-33,-35,-60,-35,-16
38,29,-9,-34,23,10,-36,-35,-50,-61,-35,-10
51,-16,-67,-17,59,-41,-30,-37,-67,-82,-36,0
23,-42,-65,10,44,-53,0,-32,-63,-87,-32,-7
15,-60,-75,23,45,-67,24,-38,-73,-84,-55,-25
-7,-101,-93,54,43,-97,33,-25,-62,-117,-97,-61
-35,-120,-85,77,25,-103,27,-35,-66,-117,-100,-76
-25,-122,-97,73,36,-109,42,-24,-65,-119,-113,-71
-45,-127,-81,86,18,-104,46,-25,-55,-111,-109,-73
-64,-164,-100,114,18,-132,42,-30,-71,-117,-108,-87
-67,-147,-79,107,6,-112,56,-7,-37,-115,-115,-97
-54,-162,-108,108,27,-135,57,-14,-60,-113,-110,-90
-62,-204,-143,133,41,-173,232,301,187,-101,-213,-181
54,-94,-149,20,102,-121,138,223,219,104,-28,-61
313,405,93,-359,110,249,-497,-725,-332,582,781,555
327,1299,973,-813,-323,1136,-1145,-1846,-953,1175,1728,1302
115,1171,1056,-643,-471,1113,-1289,-2352,-1752,309,1174,1167
-41,345,385,-152,-213,365,-839,-1684,-1694,-958,-180,383
-88,69,157,9,-122,112,-407,-776,-817,-633,-287,69
-85,-85,1,85,-43,-42,-106,-263,-319,-301,-183,-54
-54,-133,-79,94,13,-106,74,-1,-74,-220,-202,-109
-39,-151,-112,95,37,-131,92,58,-7,-125,-134,-101
-47,-184,-137,116,45,-160,113,106,28,-150,-178,-129
-52,-173,-120,113,34,-146,118,127,68,-96,-141,-109
-50,-180,-130,115,40,-155,144,155,74,-112,-160,-120
-42,-163,-121,103,40,-142,146,176,106,-80,-143,-112
-43,-165,-123,104,40,-144,143,177,121,-70,-145,-116
-32,-151,-119,92,43,-135,143,193,147,-44,-137,-115
-26,-145,-119,86,47,-132,138,207,166,-17,-121,-113
-24,-136,-113,80,45,-124,142,246,207,6,-114,-106
-18,-123,-105,71,44,-114,143,281,254,45,-90,-96
-12,-112,-100,62,44,-105,147,323,307,74,-64,-89
0,-91,-92,46,46,-91,150,378,373,135,-15,-73
23,-64,-87,21,55,-75,148,430,454,212,26,-46
64,-15,-79,-24,72,-46,140,488,533,304,91,-4
61,-6,-67,-27,63,-36,136,511,598,395,166,30
59,4,-55,-31,57,-25,114,509,623,460,219,62
99,51,-48,-75,73,2,82,502,608,508,270,89
108,66,-43,-87,75,11,64,474,599,523,301,109
97,60,-37,-78,67,11,51,414,555,506,297,116
90,59,-31,-74,60,14,38,323,458,449,266,112
89,63,-26,-76,57,18,30,252,348,346,221,103
40,16,-24,-28,32,-4,30,177,236,236,146,72
4,-22,-26,9,15,-24,30,104,133,127,77,36
7,-17,-24,6,16,-20,30,69,64,51,26,8
-4,-32,-28,18,13,-30,30,48,15,-4,-14,-9
-23,-66,-43,45,10,-54,30,31,-13,-44,-34,-22
-53,-102,-48,78,-2,-75,25,15,-27,-55,-55,-29
-53,-101,-48,77,-2,-75,26,7,-52,-64,-55,-40
-47,-92,-45,70,0,-69,24,-4,-60,-65,-56,-52
-47,-89,-42,68,-2,-65,32,9,-52,-66,-52,-49
-41,-81,-40,61,0,-60,45,36,-48,-76,-64,-50
-42,-78,-36,60,-3,-57,45,34,-41,-75,-87,-50
-36,-71,-35,54,0,-52,45,37,-36,-75,-84,-50
-35,-66,-32,51,-1,-49,45,40,-32,-75,-85,-46
-38,-65,-27,51,-5,-46,48,39,-29,-75,-80,-45
-41,-65,-24,53,-8,-45,50,40,-26,-75,-80,-45
-45,-65,-21,55,-12,-42,42,39,-24,-75,-79,-40
-48,-64,-16,57,-15,-40,36,40,-20,-76,-74,-40
-51,-66,-15,59,-18,-40,30,40,-21,-73,-76,-41
-48,-63,-15,56,-16,-39,20,40,-29,-84,-72,-55
-46,-61,-15,54,-15,-37,33,36,-33,-96,-70,-61
-44,-59,-15,52,-15,-36,48,29,-37,-95,-69,-59
-46,-61,-15,54,-15,-38,41,22,-40,-95,-81,-60
-45,-59,-14,52,-15,-36,41,16,-52,-98,-95,-60
-48,-61,-13,54,-17,-37,36,9,-52,-103,-97,-60
-70,-75,-5,73,-33,-39,36,6,-43,-106,-100,-56
-55,-67,-12,61,-21,-39,34,17,-38,-113,-92,-49
-33,-56,-22,45,-5,-38,39,30,-30,-111,-87,-43
-40,-38,2,39,-21,-18,49,40,-26,-102,-83,-36
-45,-6,39,25,-42,16,52,40,-17,-97,-77,-30
-30,19,50,5,-40,34,64,42,-9,-89,-72,-24
-7,46,54,-19,-31,50,54,48,2,-84,-66,-16
-10,55,65,-23,-38,60,12,16,0,-85,-65,-5
-8,51,59,-22,-33,54,-44,-26,-29,-84,-65,5
-1,47,47,-23,-24,47,-66,-38,-42,-86,-60,15
18,39,21,-29,-2,30,-51,-33,-40,-84,-60,14
19,6,-14,-12,17,-4,-45,-38,-59,-94,-59,9
-9,-26,-16,18,4,-21,-21,-29,-45,-102,-50,11
-34,-46,-12,41,-11,-29,-4,-31,-41,-99,-60,-8
-57,-104,-47,80,-4,-75,13,-30,-65,-135,-107,-50
-59,-117,-58,88,0,-87,31,-28,-62,-148,-118,-62
-50,-114,-64,82,7,-89,27,-35,-70,-145,-110,-62
-61,-116,-55,88,-2,-85,35,-20,-52,-144,-122,-73
-41,-113,-72,78,16,-93,48,-38,-71,-139,-105,-70
-28,-118,-90,73,31,-104,79,-1,-45,-161,-128,-91
-42,-122,-80,82,19,-101,47,-36,-64,-136,-109,-76
-60,-192,-132,126,36,-161,166,188,82,-155,-201,-145
-25,-138,-113,82,44,-125,252,397,332,-9,-188,-167
221,200,-21,-211,121,90,-212,-325,-67,381,438,298
350,1072,722,-712,-186,897,-915,-1488,-666,1113,1555,1131
175,1420,1245,-798,-535,1332,-1269,-2303,-1449,880,1632,1354
-47,605,652,-279,-349,628,-953,-2025,-1858,-695,154,603
-111,133,244,-11,-178,189,-492,-1055,-1109,-883,-419,95
-94,-4,90,49,-92,43,-200,-402,-429,-352,-204,-21
-89,-137,-49,113,-20,-93,39,-63,-137,-283,-246,-123
-34,-106,-72,70,20,-89,112,68,6,-142,-158,-107
-44,-152,-108,99,32,-130,131,113,31,-167,-181,-139
-62,-156,-94,109,16,-125,131,134,80,-132,-158,-133
-48,-152,-104,100,28,-128,134,135,76,-130,-155,-134
-49,-143,-95,96,23,-119,131,166,108,-98,-153,-137
-40,-135,-95,88,28,-114,121,184,120,-63,-137,-132
-40,-135,-96,88,29,-116,117,186,130,-69,-143,-138
-40,-128,-88,84,24,-108,109,207,165,-47,-123,-125
-44,-128,-84,86,20,-105,102,222,187,-34,-121,-121
-47,-122,-75,84,15,-98,104,245,223,9,-101,-109
-13,-83,-70,48,28,-76,113,289,273,42,-80,-102
14,-49,-63,18,38,-55,104,339,339,102,-41,-81
12,-44,-56,16,34,-50,98,392,403,170,6,-58
42,-3,-45,-19,43,-24,90,445,483,259,73,-25
54,22,-32,-37,43,-5,82,483,548,349,140,20
79,53,-26,-65,52,13,77,476,577,416,189,40
113,91,-22,-102,67,35,64,463,591,474,247,73
110,93,-17,-101,64,38,47,441,566,487,288,112
115,100,-15,-107,64,42,33,397,521,484,286,117
102,90,-12,-96,57,39,29,332,460,453,274,107
88,79,-9,-83,48,35,31,253,360,364,236,94
74,68,-6,-71,40,31,29,193,250,250,154,61
52,47,-5,-49,28,21,30,126,162,152,84,28
34,24,-11,-29,22,6,29,72,92,80,36,7
7,-10,-17,2,12,-13,25,48,38,17,-13,-20
-5,-26,-21,16,8,-23,25,31,6,-24,-46,-46
-9,-43,-34,27,12,-38,23,18,-7,-44,-66,-57
-14,-56,-42,35,14,-48,20,9,-11,-56,-78,-63
-2,-39,-37,21,17,-38,19,2,-13,-59,-75,-79
6,-29,-35,12,20,-32,24,2,-16,-63,-75,-79
-1,-32,-31,17,15,-32,28,9,-19,-66,-75,-73
-9,-39,-30,24,11,-34,38,16,-20,-69,-75,-72
-10,-36,-26,24,8,-31,56,33,-15,-72,-75,-65
-9,-28,-20,19,6,-24,50,36,-15,-74,-76,-66
-11,-26,-15,19,2,-21,45,31,-16,-77,-76,-73
-7,-16,-9,12,2,-13,42,30,-13,-80,-74,-72
-17,-21,-3,19,-7,-12,35,25,-30,-80,-76,-70
-42,-43,-1,42,-20,-22,38,25,-48,-80,-74,-70
-39,-46,-8,43,-15,-27,40,19,-44,-80,-76,-70
-30,-44,-14,37,-8,-29,40,13,-45,-80,-72,-70
-25,-45,-21,35,-1,-33,40,9,-45,-83,-71,-70
-17,-45,-27,31,5,-36,40,2,-45,-86,-80,-70
-11,-45,-34,28,12,-39,40,-2,-49,-89,-80,-70
-15,-50,-35,33,10,-42,35,-8,-56,-93,-80,-79
-15,-50,-35,33,10,-42,35,-10,-61,-93,-79,-87
-10,-51,-41,30,15,-45,35,-12,-65,-103,-84,-84
-27,-65,-38,46,6,-51,35,-15,-61,-107,-90,-87
-17,-62,-45,39,14,-53,36,-15,-55,-103,-83,-95
-12,-46,-33,29,11,-39,29,-8,-50,-100,-79,-90
-27,-30,-3,29,-12,-16,43,1,-43,-96,-73,-81
-16,-5,11,10,-13,3,47,3,-41,-94,-68,-74
4,25,20,-15,-8,22,33,28,-44,-62,-63,-66
11,43,31,-28,-10,37,29,30,-48,-52,-59,-59
22,59,38,-41,-8,48,-7,9,-49,-67,-60,-52
32,60,28,-46,1,44,-41,-5,-55,-64,-59,-48
33,45,13,-39,10,29,-35,-11,-54,-64,-60,-42
55,30,-25,-43,39,3,-26,-12,-60,-70,-60,-39
57,3,-54,-30,55,-25,-23,-23,-74,-80,-65,-33
12,-24,-36,6,24,-30,-1,-17,-64,-69,-73,-31
-19,-82,-63,50,22,-72,15,-17,-69,-85,-80,-60
-35,-124,-89,80,27,-106,29,-5,-57,-120,-109,-94
-31,-115,-84,73,27,-100,51,-11,-64,-110,-101,-88
-24,-126,-101,75,38,-113,73,7,-53,-121,-108,-98
-30,-113,-83,72,26,-98,68,-3,-57,-116,-110,-91
-25,-127,-102,76,38,-115,77,21,-53,-123,-106,-88
-40,-115,-75,78,17,-95,80,17,-45,-118,-122,-108
-42,-166,-123,104,41,-144,96,34,-50,-107,-130,-120
-51,-218,-167,135,58,-192,279,368,240,-67,-220,-215
85,-52,-138,-16,111,-95,123,150,155,195,60,-16
290,591,301,-441,-6,446,-546,-856,-479,692,969,687
273,1497,1224,-885,-475,1360,-1132,-1890,-1191,996,1685,1303
62,1108,1046,-585,-492,1076,-1107,-2153,-1841,-68,801,926
-128,203,331,-38,-230,266,-633,-1423,-1529,-1020,-400,154
-96,49,145,24,-120,96,-301,-641,-692,-543,-317,-25
-72,-88,-16,80,-27,-52,-41,-192,-250,-262,-210,-99
-69,-144,-75,106,3,-109,110,14,-18,-167,-195,-130
-29,-140,-111,84,42,-125,129,77,44,-88,-139,-126
-45,-163,-118,104,37,-140,157,119,80,-91,-168,-150
-48,-162,-114,105,33,-138,154,135,110,-42,-132,-125
-45,-170,-125,108,40,-147,157,158,115,-57,-150,-135
-44,-152,-109,98,33,-130,151,167,142,-26,-129,-119
-47,-156,-109,102,31,-132,149,172,146,-26,-127,-120
-48,-145,-97,97,25,-121,146,186,171,-8,-109,-111
-48,-142,-94,95,23,-117,143,206,188,6,-96,-104
-49,-135,-86,92,19,-110,157,239,223,27,-97,-98
-43,-124,-81,83,19,-102,154,264,266,57,-72,-90
-27,-102,-75,65,24,-88,142,301,310,105,-38,-80
3,-67,-70,32,37,-69,133,347,378,175,7,-53
24,-35,-58,6,41,-46,122,395,413,238,54,-30
25,-13,-38,-6,32,-25,113,436,450,316,114,6
52,24,-28,-37,40,-2,101,438,495,394,186,40
70,52,-18,-61,43,17,85,434,494,456,241,73
88,78,-10,-83,49,34,51,413,481,484,287,109
107,101,-5,-104,56,48,13,368,464,482,300,127
91,90,0,-90,45,45,0,322,421,452,282,138
96,99,3,-98,46,51,-11,261,351,394,259,125
65,74,9,-69,27,41,-23,198,246,301,206,94
14,22,8,-18,3,15,-14,146,155,202,137,66
-11,-10,1,10,-6,-5,0,106,88,120,66,29
-27,-33,-5,31,-11,-19,13,70,27,53,14,3
-27,-39,-13,33,-7,-26,17,41,-13,-3,-11,-18
-43,-62,-19,53,-12,-40,23,39,-42,-48,-32,-33
-43,-69,-25,57,-9,-47,24,40,-47,-55,-44,-35
-30,-60,-31,45,1,-45,34,42,-43,-58,-48,-49
-31,-61,-30,46,0,-45,34,46,-41,-70,-63,-57
-24,-54,-30,39,3,-42,11,45,-37,-70,-66,-54
-22,-52,-30,37,4,-41,38,48,-36,-67,-64,-56
-19,-49,-30,34,6,-40,60,51,-32,-65,-66,-54
-8,-38,-30,23,11,-34,49,54,-23,-65,-64,-56
-19,-49,-30,34,5,-40,50,57,-15,-65,-67,-59
-30,-60,-30,45,0,-45,43,60,-6,-65,-70,-60
-22,-52,-30,37,4,-40,41,59,1,-65,-70,-60
-17,-47,-31,32,7,-39,37,52,6,-66,-70,-60
-14,-42,-28,28,7,-35,31,46,12,-63,-70,-60
6,-34,-40,14,23,-37,24,39,16,-76,-70,-63
7,-45,-52,19,30,-48,17,32,24,-86,-74,-65
-17,-67,-49,42,16,-58,11,26,21,-84,-75,-65
-23,-74,-50,49,14,-62,5,21,7,-94,-76,-65
-31,-81,-50,56,9,-65,6,15,-7,-96,-83,-65
-35,-85,-50,60,8,-67,4,10,-29,-110,-86,-65
-22,-75,-54,49,16,-64,10,4,-39,-116,-84,-61
-7,-68,-61,38,28,-65,22,-2,-41,-110,-87,-56
-21,-85,-64,54,22,-75,30,-4,-46,-108,-90,-54
-29,-81,-52,55,12,-66,35,12,-27,-104,-82,-49
12,-25,-38,7,25,-31,42,31,-2,-98,-74,-46
6,-11,-17,3,12,-13,45,32,7,-89,-67,-43
-8,-1,8,4,-8,3,46,26,16,-81,-59,-36
15,41,26,-28,-6,33,43,20,24,-69,-55,-31
15,46,31,-31,-9,38,-18,14,15,-76,-55,-25
15,43,28,-29,-7,35,-63,8,-3,-91,-55,-21
20,42,22,-31,-1,32,-60,2,-19,-90,-51,-25
34,26,-8,-30,20,9,-55,-3,-35,-88,-50,-25
51,0,-51,-25,51,-26,-42,-4,-43,-87,-44,-28
29,-26,-55,-1,42,-41,-6,4,-20,-82,-48,-31
2,-60,-61,29,32,-60,16,-5,-39,-101,-72,-33
-22,-99,-78,61,28,-88,8,-5,-59,-138,-104,-60
-47,-119,-72,83,13,-95,7,-17,-62,-137,-102,-70
-51,-132,-81,92,16,-106,36,3,-59,-143,-107,-82
-53,-117,-64,85,6,-90,33,2,-58,-137,-111,-83
-53,-134,-80,93,14,-106,34,15,-65,-142,-119,-81
-59,-116,-57,88,-1,-86,53,21,-49,-139,-123,-80
-40,-139,-99,90,30,-118,59,18,-54,-140,-117,-88
-58,-194,-136,127,39,-165,253,346,227,-104,-226,-185
51,-73,-124,11,88,-98,136,221,209,118,-30,-42
298,475,177,-387,60,326,-503,-753,-384,596,814,586
311,1372,1062,-842,-376,1217,-1132,-1845,-1048,1098,1700,1302
89,1179,1089,-634,-500,1134,-1263,-2285,-1821,164,1045,1100
-103,314,417,-106,-261,365,-809,-1603,-1678,-999,-255,318
-90,80,170,5,-130,125,-385,-699,-790,-630,-319,46
-52,-40,11,46,-31,-14,-85,-199,-304,-297,-203,-62
-57,-116,-59,86,1,-87,73,41,-65,-210,-201,-118
-46,-144,-99,95,27,-121,101,107,5,-121,-144,-110
-47,-163,-115,105,34,-139,151,155,45,-138,-170,-129
-24,-135,-111,80,44,-123,147,182,78,-92,-135,-113
-45,-169,-124,107,40,-146,151,191,65,-105,-154,-125
-59,-172,-113,116,27,-142,150,196,100,-80,-136,-117
-27,-139,-112,83,42,-125,149,204,131,-81,-139,-122
-13,-114,-101,64,44,-107,151,221,150,-57,-135,-118
-10,-107,-96,59,43,-101,153,237,168,-31,-122,-105
-17,-106,-89,62,36,-97,156,273,212,2,-104,-92
-18,-101,-83,60,33,-92,154,302,265,47,-80,-79
-11,-87,-77,49,33,-82,155,330,320,78,-48,-73
-5,-73,-68,39,31,-70,155,387,387,139,4,-62
10,-50,-60,20,35,-55,151,442,462,212,36,-39
44,-9,-52,-17,48,-31,137,497,538,296,99,-1
49,5,-44,-27,46,-19,124,516,592,377,170,40
61,29,-32,-45,46,-2,108,500,611,447,216,72
94,75,-20,-84,57,27,91,486,601,486,267,99
76,62,-15,-69,45,23,76,444,581,491,288,119
96,81,-15,-88,56,32,59,392,541,486,294,128
104,89,-15,-96,59,36,45,325,456,428,272,121
62,47,-15,-54,38,15,33,247,336,321,202,94
43,28,-15,-35,28,7,26,175,225,213,134,58
22,3,-20,-12,21,-8,32,102,135,108,76,30
10,-18,-28,4,19,-23,33,55,67,30,21,7
-6,-40,-34,24,14,-37,38,29,19,-15,-23,-10
-27,-67,-40,48,6,-53,40,10,-12,-50,-52,-22
-27,-67,-40,47,7,-53,35,0,-30,-65,-60,-35
-19,-59,-40,39,11,-49,50,7,-42,-72,-60,-40
-39,-79,-40,59,0,-60,57,12,-38,-92,-72,-52
-48,-88,-40,68,-4,-64,54,9,-32,-96,-76,-54
-33,-73,-40,53,4,-57,56,11,-28,-83,-74,-47
-30,-67,-36,49,3,-51,55,9,-21,-77,-72,-44
-33,-65,-31,49,0,-48,55,10,-17,-74,-69,-38
-39,-65,-26,52,-6,-45,50,17,-15,-75,-71,-35
-38,-61,-23,49,-7,-42,50,28,-16,-75,-75,-33
-43,-59,-16,51,-13,-38,50,33,-15,-75,-83,-45
-45,-62,-16,54,-14,-39,50,28,-16,-75,-89,-47
-36,-65,-29,50,-3,-47,51,25,-24,-78,-90,-59
-34,-65,-31,50,-1,-47,48,22,-32,-80,-90,-72
-36,-65,-29,50,-3,-47,42,17,-39,-81,-90,-64
-34,-65,-30,50,-2,-47,38,14,-43,-86,-90,-63
-35,-65,-30,50,-2,-47,33,10,-48,-85,-90,-58
-38,-68,-30,53,-4,-49,30,5,-51,-91,-91,-54
-38,-72,-34,55,-2,-53,22,1,-57,-100,-100,-60
-40,-75,-35,58,-2,-55,31,-4,-65,-100,-103,-70
-43,-79,-35,61,-4,-57,47,-9,-61,-100,-102,-75
-40,-80,-39,60,-1,-59,44,-9,-60,-96,-99,-77
-21,-62,-41,42,10,-51,46,-2,-57,-94,-101,-81
-29,-66,-38,48,5,-51,43,-1,-55,-96,-111,-75
-34,-52,-18,43,-8,-35,52,5,-53,-88,-84,-66
-7,-1,5,4,-6,2,63,6,-38,-80,-62,-58
-24,4,29,10,-27,16,48,14,-16,-69,-61,-49
5,48,42,-27,-19,45,35,16,-9,-66,-53,-40
21,58,37,-40,-8,47,2,-25,-38,-78,-48,-30
-9,19,28,-5,-19,23,-52,-45,-63,-84,-42,-20
29,52,24,-41,2,38,-66,-34,-58,-86,-41,-14
16,19,2,-18,7,11,-48,-34,-63,-85,-59,-15
19,-27,-46,4,33,-36,-25,-31,-80,-92,-80,-14
26,-29,-55,2,41,-42,-3,-22,-78,-89,-85,-17
-15,-74,-59,44,22,-67,3,-38,-84,-93,-85,-48
-17,-82,-65,50,24,-73,23,-36,-82,-120,-104,-78
-31,-93,-62,62,16,-77,27,-45,-89,-116,-108,-82
-46,-119,-73,83,14,-96,38,-27,-78,-141,-120,-94
-45,-106,-61,76,9,-83,43,-39,-82,-142,-111,-86
-46,-129,-83,88,19,-106,54,-26,-80,-149,-124,-98
-45,-106,-61,76,8,-83,48,-13,-76,-142,-119,-92
-36,-146,-110,91,38,-128,91,44,-43,-145,-141,-115
-52,-175,-122,114,35,-148,273,376,238,-87,-243,-217
120,-6,-126,-56,123,-66,36,78,109,175,66,5
374,633,258,-504,58,445,-634,-985,-415,802,1044,730
330,1430,1101,-880,-386,1265,-1215,-2072,-1066,1287,1855,1392
82,1018,937,-550,-428,977,-1230,-2379,-1858,53,907,1020
-90,263,353,-87,-222,308,-744,-1534,-1565,-995,-305,272
-73,91,163,-9,-118,127,-343,-656,-686,-509,-241,40
-71,-75,-5,73,-33,-40,-46,-197,-273,-282,-213,-96
-66,-116,-50,91,-8,-83,76,25,-51,-179,-196,-115
-33,-127,-94,81,31,-110,101,82,0,-124,-164,-116
-38,-128,-90,83,27,-109,130,120,33,-134,-192,-138
-33,-121,-88,77,28,-104,124,142,66,-97,-157,-128
-41,-135,-94,88,26,-114,137,161,78,-116,-178,-141
-38,-124,-86,81,24,-105,135,170,113,-83,-152,-131
-32,-126,-94,79,31,-109,141,191,133,-87,-152,-135
-35,-118,-84,77,25,-101,140,203,156,-59,-130,-128
-40,-126,-86,84,24,-106,140,227,189,-40,-132,-131
-37,-121,-84,79,24,-102,141,270,235,-11,-124,-123
-29,-109,-81,69,26,-95,139,295,268,24,-95,-108
5,-75,-80,35,43,-77,136,345,327,73,-53,-95
34,-45,-79,6,56,-62,131,404,408,137,-5,-70
20,-43,-63,11,42,-52,129,458,480,209,25,-40
32,-13,-45,-9,38,-29,124,519,562,307,88,-2
72,35,-37,-53,55,-1,122,535,625,386,154,25
82,52,-29,-67,55,11,114,514,629,442,202,49
92,71,-21,-81,56,25,93,501,626,477,248,85
112,97,-15,-104,64,41,62,475,606,501,279,120
102,87,-15,-94,58,36,33,402,547,480,280,126
99,84,-15,-91,57,34,29,321,454,407,244,114
88,73,-15,-80,51,29,27,233,331,308,191,98
56,41,-15,-48,35,13,24,150,223,195,123,71
23,8,-15,-15,19,-3,21,95,121,112,53,34
-8,-29,-21,19,6,-24,20,48,50,34,3,-1
-19,-54,-34,37,7,-44,25,30,12,-17,-41,-16
-21,-64,-43,43,11,-53,24,14,-30,-42,-54,-26
-26,-66,-40,46,7,-52,26,4,-51,-73,-61,-43
-29,-64,-35,47,4,-50,30,6,-47,-76,-76,-51
-28,-61,-33,44,3,-47,30,3,-41,-74,-74,-50
-32,-60,-28,46,-2,-44,28,0,-36,-75,-76,-50
-34,-59,-25,47,-4,-42,21,-1,-30,-75,-80,-50
-30,-55,-25,43,-2,-40,16,2,-25,-74,-80,-50
-30,-55,-25,43,-2,-40,11,6,-20,-69,-78,-50
-30,-55,-25,43,-2,-40,4,11,-21,-66,-74,-50
-30,-55,-25,43,-2,-40,1,14,-19,-63,-72,-50
-30,-55,-25,43,-2,-40,5,16,-15,-59,-69,-50
-34,-58,-24,47,-5,-41,13,20,-15,-54,-66,-50
-42,-61,-20,51,-11,-41,19,18,-18,-62,-65,-50
-44,-64,-20,54,-11,-41,26,14,-32,-75,-70,-56
-47,-67,-20,57,-13,-43,33,12,-41,-78,-73,-63
-50,-70,-20,60,-15,-45,33,9,-47,-83,-78,-65
-50,-71,-21,61,-15,-45,28,6,-53,-86,-82,-68
-59,-78,-19,68,-20,-48,25,4,-57,-84,-87,-71
-61,-83,-22,72,-19,-52,22,0,-60,-96,-90,-74
-68,-94,-26,81,-21,-60,17,-5,-56,-103,-84,-75
-68,-87,-19,77,-24,-53,15,-9,-53,-95,-78,-68
-57,-70,-13,64,-22,-41,24,-14,-49,-92,-74,-60
-71,-77,-6,75,-33,-41,35,-14,-46,-86,-67,-52
-47,-46,0,46,-24,-23,57,-2,-42,-80,-63,-44
-15,-8,7,11,-11,0,64,2,-29,-75,-58,-38
-4,23,26,-10,-15,24,57,21,-17,-70,-51,-34
6,53,47,-29,-21,50,41,25,-7,-69,-46,-31
3,53,49,-28,-23,51,1,-18,-10,-63,-41,-27
7,48,41,-28,-17,44,-38,-37,-40,-76,-35,-25
18,46,28,-32,-5,37,-51,-34,-57,-87,-30,-30
46,42,-3,-44,24,19,-41,-34,-55,-83,-42,-30
39,2,-37,-20,39,-18,-34,-38,-69,-86,-58,-30
1,-31,-32,16,17,-31,-2,-30,-73,-83,-60,-29
-25,-66,-41,46,8,-53,18,-44,-82,-99,-73,-36
-38,-106,-68,72,15,-87,22,-42,-75,-130,-110,-73
-17,-85,-68,51,26,-76,23,-48,-72,-120,-109,-74
-9,-89,-80,49,36,-84,26,-34,-68,-129,-119,-76
-45,-115,-69,80,12,-92,18,-35,-58,-129,-119,-74
-44,-135,-91,89,24,-113,29,-33,-66,-149,-123,-74
-55,-115,-60,85,2,-87,58,-13,-42,-146,-130,-97
-49,-134,-86,92,19,-110,59,-21,-68,-134,-126,-109
-57,-181,-124,119,33,-152,224,333,198,-128,-240,-208
55,-73,-128,9,91,-100,135,248,258,113,-19,-59
334,480,147,-407,93,313,-486,-752,-278,681,884,608
325,1347,1022,-836,-349,1185,-1115,-1889,-899,1337,1868,1354
82,1171,1089,-627,-504,1130,-1189,-2390,-1728,374,1193,1148
-99,357,456,-130,-277,406,-757,-1721,-1705,-981,-216,339
-124,78,202,23,-163,140,-378,-795,-813,-629,-297,49
-110,-76,34,93,-71,-21,-74,-261,-315,-308,-196,-87
-95,-131,-35,113,-29,-83,86,-2,-69,-232,-206,-146
-53,-132,-79,93,13,-105,102,74,15,-136,-150,-133
-54,-151,-97,103,22,-124,131,130,36,-160,-182,-162
-67,-162,-95,115,14,-128,121,146,66,-106,-140,-141
-68,-173,-105,120,19,-139,129,165,78,-123,-156,-156
-49,-146,-97,98,24,-121,139,188,114,-87,-132,-147
-46,-149,-103,98,29,-126,141,209,121,-85,-133,-151
-49,-142,-93,96,23,-118,140,216,145,-64,-125,-143
-53,-147,-94,100,21,-120,135,218,166,-39,-112,-131
-51,-138,-88,95,19,-113,136,253,204,-12,-90,-124
-20,-105,-85,63,33,-95,133,292,254,29,-66,-110
-13,-94,-81,54,34,-87,130,329,300,62,-47,-95
-20,-91,-71,56,26,-81,130,384,367,124,-4,-72
3,-61,-64,29,34,-62,128,435,446,203,41,-44
16,-40,-56,12,36,-47,123,480,519,290,96,-20
61,12,-49,-37,55,-18,128,514,582,381,173,16
114,75,-38,-94,75,18,106,510,612,444,230,51
98,73,-25,-85,61,24,57,484,601,471,262,79
95,79,-16,-87,55,31,37,447,581,494,298,110
92,77,-15,-84,53,31,26,398,541,491,285,120
58,43,-15,-50,36,14,23,330,454,429,270,114
38,23,-15,-30,26,4,25,262,345,323,232,90
24,9,-15,-16,19,-2,27,197,244,216,148,64
0,-16,-16,8,8,-15,30,119,148,114,78,26
-16,-40,-25,28,5,-32,31,69,84,37,15,-13
-15,-50,-35,33,10,-42,37,49,37,-10,-23,-28
-13,-58,-45,36,17,-51,35,38,1,-45,-44,-42
-12,-63,-50,37,19,-56,34,32,-23,-65,-55,-44
-23,-73,-50,48,14,-61,35,24,-41,-79,-66,-53
-28,-78,-50,53,11,-64,35,26,-36,-80,-71,-67
-19,-68,-50,43,16,-59,35,24,-25,-73,-69,-64
-12,-62,-50,37,19,-56,40,28,-15,-70,-74,-68
-17,-63,-46,41,15,-55,41,50,-13,-65,-75,-70
-20,-65,-45,43,13,-55,39,53,-16,-61,-74,-70
-21,-65,-45,44,12,-55,41,45,-15,-62,-71,-66
-29,-69,-41,49,6,-55,39,41,-16,-59,-70,-65
-31,-71,-39,51,4,-55,50,34,-15,-48,-70,-65
-27,-68,-41,48,7,-55,56,30,-15,-71,-70,-65
-20,-65,-45,43,13,-55,55,26,-15,-93,-69,-64
-20,-65,-45,43,13,-55,55,23,-15,-88,-76,-67
-18,-65,-47,42,15,-56,55,21,-20,-93,-86,-77
-14,-65,-50,40,18,-57,55,17,-28,-95,-85,-76
-15,-65,-50,40,18,-57,52,15,-34,-95,-85,-75
-22,-68,-46,45,12,-57,48,12,-42,-95,-85,-75
-29,-74,-44,52,8,-59,44,10,-50,-95,-85,-75
-32,-78,-45,55,7,-61,42,10,-53,-95,-87,-75
-40,-79,-40,60,0,-59,34,10,-49,-95,-86,-71
-29,-70,-41,50,6,-55,41,10,-44,-95,-85,-66
-20,-58,-38,39,9,-47,55,9,-41,-94,-85,-62
-9,-37,-28,23,10,-32,56,30,-35,-90,-85,-58
1,-11,-13,5,7,-12,54,37,-29,-86,-86,-53
10,9,-1,-10,5,4,57,32,-24,-84,-82,-48
33,50,18,-42,7,34,45,23,-13,-85,-72,-45
24,70,46,-47,-11,57,-15,-15,-38,-85,-62,-41
33,73,40,-53,-4,57,-44,-38,-66,-85,-59,-38
26,54,28,-40,-1,41,-31,-41,-55,-85,-60,-34
12,-6,-18,-3,15,-12,-29,-45,-68,-85,-60,-29
40,-33,-73,-3,57,-53,-22,-35,-81,-94,-60,-34
17,-50,-67,17,42,-58,-14,-31,-79,-97,-64,-35
-17,-93,-77,55,30,-85,9,-29,-82,-112,-91,-53
-45,-120,-75,83,15,-97,24,-16,-71,-124,-119,-83
-53,-131,-79,92,13,-105,16,-23,-82,-116,-115,-86
-47,-131,-84,89,19,-108,43,-1,-66,-124,-126,-94
-41,-119,-78,81,19,-99,37,-17,-77,-109,-113,-85
-39,-135,-96,87,29,-116,55,12,-62,-122,-127,-95
-42,-109,-67,76,13,-88,47,-8,-79,-110,-115,-87
-64,-193,-129,128,33,-160,113,107,-1,-125,-165,-148
-62,-214,-151,138,45,-182,273,398,309,-36,-231,-222
162,65,-98,-113,130,-17,-49,-55,39,304,249,137
316,860,544,-588,-114,702,-739,-1162,-654,869,1269,909
198,1519,1321,-859,-561,1420,-1228,-2114,-1414,919,1666,1350
-36,818,853,-391,-445,835,-1024,-2076,-1922,-452,420,725
-137,140,277,-2,-207,208,-534,-1211,-1350,-1008,-489,78
-87,41,128,23,-108,84,-258,-491,-557,-424,-234,-30
-58,-99,-41,79,-8,-70,4,-103,-210,-305,-266,-131
-70,-137,-66,104,-2,-101,116,45,-25,-229,-173,-109
