I,II,III,aVR,aVL,aVF,V1,V2,V3,V4,V5,V6
38,39,1,-39,18,20,200,133,-30,58,-4,-59
65,88,23,-77,21,55,201,141,-25,80,6,-36
44,103,60,-74,-8,82,198,155,-13,87,19,-8
56,85,29,-70,13,57,204,164,14,98,45,-2
102,139,37,-121,32,88,182,179,36,118,72,8
134,133,-1,-134,68,66,128,127,26,115,65,15
181,159,-22,-170,101,68,123,128,13,105,85,38
250,191,-58,-221,154,66,130,131,4,99,104,62
173,140,-33,-156,102,54,129,99,-21,90,74,33
75,82,8,-78,33,45,144,86,-47,74,37,-11
44,39,-4,-42,24,17,173,73,-77,53,12,-54
16,30,13,-23,2,21,175,58,-101,46,-2,-81
23,27,4,-25,9,16,170,64,-99,42,-14,-79
29,26,-3,-28,16,11,171,44,-105,32,-23,-83
-21,-11,10,16,-16,-1,176,52,-103,34,-23,-83
-28,-2,26,15,-27,12,203,38,-109,9,-40,-88
-11,-2,9,7,-10,4,183,26,-111,-3,-33,-82
-64,-47,17,55,-40,-14,204,32,-118,-21,-54,-101
-15,22,37,-4,-26,29,156,-56,-87,39,11,-44
113,71,-42,-92,78,14,78,146,68,213,173,91
574,134,-440,-353,507,-153,-204,171,218,410,432,327
1167,41,-1126,-604,1146,-542,-715,-304,-110,211,384,384
983,-305,-1288,-339,1136,-796,-688,-1046,-941,-647,-405,-196
448,-477,-925,15,687,-701,-291,-1327,-1224,-1041,-852,-609
195,-471,-666,138,430,-568,115,-717,-850,-787,-740,-607
72,-316,-388,122,230,-352,332,-396,-540,-517,-558,-512
-69,-110,-41,89,-14,-75,268,-288,-328,-224,-253,-265
-181,-24,157,102,-168,66,250,-13,-163,-64,-95,-145
-137,4,141,67,-139,72,235,75,-107,-13,-57,-112
-159,-10,148,84,-153,69,222,76,-105,-5,-47,-98
-206,0,207,103,-206,103,223,71,-89,-1,-44,-97
-179,10,188,84,-184,99,212,70,-88,5,-36,-85
-166,11,177,77,-172,94,214,66,-84,5,-32,-82
-166,7,173,79,-169,90,204,64,-80,12,-26,-75
-261,-61,200,161,-230,69,203,59,-77,5,-24,-80
-268,-57,211,162,-239,77,200,50,-74,6,-32,-80
-200,-3,197,101,-199,97,198,44,-76,4,-34,-79
-251,-20,231,135,-241,105,196,36,-74,1,-25,-81
-252,-18,234,134,-243,108,192,27,-88,0,-44,-96
-267,3,270,132,-269,137,217,35,-83,1,-49,-98
-260,38,298,111,-279,168,238,44,-73,9,-40,-91
-261,18,279,122,-270,148,239,58,-60,17,-37,-86
-339,5,343,167,-341,174,249,94,-49,25,-29,-80
-318,38,356,140,-338,197,244,119,-32,33,-25,-75
-280,24,303,128,-292,163,231,147,4,45,-5,-57
-201,79,280,60,-241,179,223,201,23,73,37,-22
-148,95,243,26,-196,169,210,244,52,102,67,12
-95,86,182,4,-139,134,199,263,84,130,90,34
-15,113,128,-49,-71,120,184,268,94,145,108,59
-15,79,94,-33,-55,86,158,226,69,120,87,50
15,64,49,-39,-17,56,144,170,41,76,54,30
25,55,30,-40,-2,42,142,128,27,51,35,27
30,47,17,-39,6,32,139,101,16,59,25,16
11,14,3,-12,4,8,134,100,21,62,23,10
0,34,34,-17,-17,34,131,100,19,58,13,2
75,87,12,-81,31,49,127,100,21,62,12,-7
54,55,1,-54,26,28,125,105,18,57,34,10
30,85,55,-58,-13,70,126,112,40,69,63,39
27,99,72,-63,-23,85,124,124,66,97,68,32
39,102,63,-71,-12,82,127,144,75,109,74,40
113,165,52,-139,30,109,77,137,98,114,116,90
133,165,32,-149,50,99,31,109,92,117,127,103
172,194,23,-183,74,108,22,91,81,111,114,110
186,177,-9,-181,97,83,-6,82,75,111,114,111
103,97,-6,-100,54,46,20,68,57,107,97,83
46,92,46,-69,0,69,66,56,39,77,78,56
14,59,45,-37,-15,52,78,47,18,42,43,19
-31,7,38,12,-34,22,68,29,14,39,12,14
-41,-14,28,27,-34,7,70,29,16,30,-2,23
-32,-6,26,19,-29,10,62,3,12,23,10,31
-2,8,10,-4,-6,9,60,14,19,18,20,28
-32,-16,16,24,-23,0,63,-19,9,6,8,20
-50,-30,20,40,-34,-5,53,-7,25,28,14,26
-45,18,63,13,-54,40,77,-38,22,17,4,15
-9,84,93,-38,-51,88,11,-58,81,85,96,103
199,102,-98,-150,148,2,-89,180,278,291,295,266
751,179,-572,-465,661,-196,-490,49,363,489,572,548
1166,-23,-1189,-571,1177,-606,-911,-512,-145,33,275,417
766,-420,-1185,-173,976,-802,-711,-1229,-943,-855,-567,-252
344,-456,-800,56,573,-628,-295,-1215,-965,-970,-773,-497
171,-412,-583,120,377,-497,105,-560,-533,-689,-633,-469
-4,-231,-228,118,112,-229,263,-382,-270,-425,-429,-329
-132,-29,103,81,-117,36,138,-230,-52,-141,-136,-80
-239,-28,212,133,-225,92,85,-27,85,-50,-27,-28
-227,-28,199,128,-213,85,82,11,133,-21,-7,-7
-173,-3,170,88,-171,83,72,22,137,-15,-25,2
-141,58,200,41,-171,129,63,19,177,-5,-3,21
-213,29,242,92,-228,135,56,21,195,2,8,42
-222,10,233,106,-228,121,53,14,201,10,14,30
-169,59,228,54,-198,143,49,14,241,26,20,27
-177,60,237,58,-207,148,46,9,252,19,12,19
-226,43,270,92,-248,156,41,11,263,16,14,11
-226,47,273,89,-250,160,40,19,272,9,8,21
-198,75,274,61,-236,174,40,31,281,4,7,30
-228,84,312,72,-270,198,40,38,285,-1,4,20
-249,76,325,87,-287,200,40,52,299,-10,0,14
-270,84,354,93,-312,218,40,67,321,-21,0,8
-276,77,353,99,-314,215,41,71,321,-16,-1,-1
-262,76,338,93,-300,207,36,90,330,10,4,8
-222,111,333,56,-278,222,26,118,348,22,11,18
-183,133,316,25,-250,224,20,160,385,48,44,46
-176,105,281,35,-229,193,10,206,421,81,78,81
-116,110,227,3,-172,168,4,240,443,104,94,100
-16,161,177,-72,-97,169,-21,269,458,130,133,139
-3,138,141,-68,-72,139,-45,258,437,114,142,151
-7,100,108,-47,-58,104,-51,212,394,71,110,123
20,80,60,-50,-20,70,-60,162,360,50,69,85
3,60,56,-32,-27,58,-50,138,353,48,59,78
-25,17,43,4,-34,30,-76,140,357,53,66,85
12,36,24,-24,-6,29,-105,134,349,53,55,73
21,76,55,-49,-17,65,-91,135,351,57,57,73
23,46,23,-34,0,34,-93,127,347,57,44,60
35,81,46,-58,-6,63,-84,137,362,66,68,86
4,102,98,-53,-47,99,-82,157,397,102,119,140
71,134,63,-103,4,98,-81,153,394,106,120,132
134,171,37,-152,48,103,-89,137,385,110,124,130
144,167,23,-156,60,95,-143,107,379,120,138,159
144,192,48,-168,47,120,-177,93,369,107,147,160
134,190,56,-162,39,123,-204,72,364,100,145,152
133,164,31,-149,51,97,-182,69,333,91,126,161
112,114,2,-112,55,57,-158,56,308,75,117,141
65,71,6,-68,30,38,-149,42,301,35,99,98
14,54,40,-35,-13,47,-123,29,266,11,68,75
2,31,29,-17,-14,30,-138,31,251,11,55,77
-8,-7,1,8,-5,-3,-133,20,247,-4,41,71
17,-14,-31,-1,24,-22,-135,15,252,0,45,76
-8,-22,-14,15,3,-18,-127,18,248,-19,24,63
-51,-41,10,46,-30,-15,-132,-14,250,-8,31,77
-83,-54,28,68,-55,-13,-140,0,252,-12,14,49
-53,16,69,18,-61,42,-157,-96,250,19,49,69
95,95,-1,-95,48,47,-212,60,397,183,217,211
368,118,-250,-243,309,-66,-434,157,599,430,476,429
977,117,-860,-547,918,-371,-941,-174,480,442,626,646
1029,-219,-1248,-405,1139,-733,-1054,-797,-309,-380,-63,168
456,-496,-951,20,704,-723,-664,-1310,-856,-1006,-723,-393
221,-449,-670,114,446,-559,-254,-860,-561,-846,-685,-440
90,-332,-422,122,256,-377,61,-430,-234,-593,-543,-387
-93,-158,-64,126,-14,-111,20,-360,-3,-281,-248,-168
-181,-56,125,118,-152,34,-117,-130,185,-90,-62,-40
-186,-16,170,101,-178,76,-100,-25,269,-29,-15,-5
-199,-22,177,110,-187,77,-107,-7,288,-15,16,23
-203,-36,167,119,-185,65,-105,-9,281,-25,18,2
-262,-72,190,167,-226,58,-104,-4,312,-16,33,13
-271,-52,218,161,-244,83,-106,-1,310,-23,19,13
-183,22,205,80,-194,113,-103,0,327,-13,44,39
-223,-7,215,115,-219,104,-106,-4,342,-16,47,54
-215,9,224,103,-220,116,-116,-13,330,-15,34,40
-179,43,222,67,-201,132,-118,-20,329,-15,30,34
-197,29,227,84,-212,128,-108,-23,324,-15,19,23
-247,13,260,117,-254,137,-103,-14,317,-15,16,12
-269,20,289,124,-279,154,-95,1,317,-15,11,0
-315,8,323,153,-319,165,-90,10,313,-15,8,-9
-352,-8,344,179,-347,168,-86,27,314,-15,5,-2
-256,70,326,93,-292,198,-83,59,333,-15,-1,2
-286,65,350,110,-318,207,-79,67,323,-4,6,8
-243,93,336,75,-290,214,-75,112,350,18,36,25
-142,155,296,-7,-219,225,-75,155,372,39,61,33
-134,128,262,3,-198,194,-88,197,385,84,95,63
-57,139,196,-41,-127,168,-106,232,417,113,132,101
-36,127,163,-46,-100,145,-109,215,397,98,129,102
18,120,102,-69,-42,111,-128,204,366,85,126,112
18,79,60,-49,-22,70,-143,163,325,77,124,97
-86,-9,78,47,-82,34,-139,123,284,71,117,61
-74,-16,59,45,-66,21,-138,102,254,64,113,60
-12,10,22,1,-17,16,-135,74,242,58,107,67
30,17,-12,-24,21,2,-133,69,247,50,102,64
-6,10,16,-2,-12,13,-134,97,248,53,95,65
15,50,35,-33,-10,42,-122,96,252,58,99,65
47,88,41,-68,3,64,-135,84,256,58,97,61
18,80,62,-49,-22,70,-141,130,268,87,116,83
88,142,55,-115,16,98,-131,141,282,110,135,90
79,158,79,-119,0,118,-177,115,276,113,140,95
93,143,51,-118,21,97,-207,108,261,106,175,118
168,171,4,-170,82,87,-216,96,244,99,177,112
122,144,22,-134,50,83,-198,93,222,93,157,101
81,103,22,-93,29,62,-158,79,184,86,131,94
5,15,10,-10,-3,13,-152,79,153,79,82,64
-42,-9,34,25,-38,12,-150,61,136,58,65,38
-4,27,32,-12,-18,29,-142,60,127,49,68,38
-28,-1,27,14,-28,13,-131,47,116,35,54,23
-25,-6,19,15,-21,6,-129,35,118,45,61,27
-45,-28,18,36,-31,-5,-114,37,112,35,44,7
-18,-13,5,15,-12,-4,-120,0,106,43,55,17
-58,-42,16,50,-37,-13,-100,33,112,41,49,11
-104,-26,78,65,-90,26,-119,-64,89,30,61,14
82,103,21,-93,30,62,-178,74,203,184,215,138
333,132,-202,-232,267,-35,-364,191,408,429,471,349
906,114,-792,-510,849,-339,-875,-151,290,448,631,561
1036,-199,-1235,-419,1136,-717,-1020,-779,-502,-341,-39,112
495,-506,-1000,5,749,-753,-638,-1307,-1082,-1014,-724,-471
204,-493,-697,145,451,-595,-212,-870,-801,-848,-686,-521
77,-372,-449,148,263,-410,92,-442,-470,-590,-546,-469
-47,-140,-92,94,23,-116,88,-357,-238,-285,-254,-259
-207,-56,152,131,-179,48,0,-74,-28,-69,-42,-87
-252,-66,186,159,-219,60,-15,34,35,-8,-3,-72
-218,-40,178,129,-198,69,-23,72,55,19,27,-65
-232,-46,186,138,-209,70,-16,68,34,-7,29,-62
-224,-37,187,130,-205,75,-35,62,35,-9,32,-54
-250,-13,236,131,-243,111,-45,64,82,17,43,-49
-251,-8,243,129,-247,117,-34,53,96,40,57,-44
-243,-14,229,128,-235,107,-30,56,84,30,45,-61
-215,3,218,106,-217,111,-21,45,80,26,43,-60
-256,-25,231,140,-243,103,-17,42,72,23,36,-56
-292,-28,264,160,-278,118,-8,33,65,16,30,-56
-241,20,261,111,-251,140,7,29,75,17,27,-52
-279,9,288,135,-284,148,19,19,87,20,21,-75
-327,2,328,162,-328,165,45,27,85,20,20,-80
-328,16,344,156,-336,180,51,49,85,20,15,-71
-306,40,345,133,-326,192,50,58,86,19,10,-70
-282,59,341,112,-312,200,67,89,85,23,14,-62
-237,83,320,77,-279,202,68,129,84,37,28,-61
-206,83,289,61,-248,186,60,173,98,72,55,-36
-170,103,274,33,-222,188,55,220,123,100,82,-1
-83,132,215,-25,-149,173,50,237,137,122,115,13
-55,76,131,-10,-93,103,39,230,138,129,131,27
9,87,78,-48,-34,82,21,207,125,110,121,25
41,111,70,-76,-15,90,8,166,93,106,102,17
34,71,38,-53,-2,54,4,115,47,61,62,11
30,48,18,-39,6,33,2,93,21,38,53,4
14,48,34,-31,-10,40,-1,96,20,58,57,-2
-11,9,21,1,-16,15,-4,93,19,54,52,-4
-42,-18,25,30,-33,3,-5,97,22,61,58,3
42,43,1,-43,20,22,2,93,18,57,51,3
41,75,34,-58,3,54,13,112,44,77,71,10
25,73,47,-49,-12,60,22,136,71,93,98,10
84,88,5,-86,40,46,33,140,68,102,95,19
96,149,53,-122,21,101,-8,159,97,143,120,53
125,179,54,-152,35,116,-81,134,89,146,131,70
156,151,-5,-153,80,73,-91,101,60,133,118,82
174,143,-31,-158,102,56,-81,96,53,128,117,89
140,106,-34,-123,87,36,-59,81,32,106,109,74
93,48,-45,-70,69,2,-25,72,7,90,93,32
42,-2,-44,-20,43,-23,-5,65,-30,76,60,5
-8,-35,-27,22,9,-31,1,48,-67,69,48,-2
9,-17,-26,4,18,-21,20,51,-68,57,33,-5
-7,-16,-9,12,1,-12,44,32,-75,49,24,-4
-69,-68,2,68,-35,-33,51,46,-99,50,28,-43
-55,-69,-14,62,-20,-42,50,22,-110,37,16,-62
-35,-59,-23,47,-6,-41,40,32,-102,49,27,-44
-106,-63,43,84,-74,-10,54,-2,-113,21,15,-53
-21,15,36,3,-28,26,-13,-54,-60,76,85,31
203,93,-110,-148,156,-8,-92,164,128,276,258,182
642,154,-489,-398,565,-167,-442,80,255,497,551,462
1116,-18,-1133,-549,1125,-575,-897,-443,-215,130,340,391
838,-398,-1236,-220,1038,-817,-744,-1184,-1064,-792,-522,-279
345,-517,-862,86,604,-689,-312,-1260,-1171,-1010,-825,-574
153,-472,-626,160,390,-549,84,-623,-772,-722,-675,-542
16,-309,-325,147,171,-317,233,-440,-517,-465,-467,-432
-116,-104,12,110,-64,-46,143,-274,-297,-165,-180,-187
-220,-65,156,142,-188,45,132,-20,-143,-21,-58,-95
-218,-62,155,140,-186,47,122,17,-92,10,-23,-70
-240,-60,180,149,-209,60,106,28,-81,21,-22,-62
-219,-29,190,123,-204,81,106,28,-75,36,-14,-62
-214,-36,177,125,-195,70,128,42,-75,36,-14,-55
-231,-46,185,139,-208,69,129,39,-68,29,-7,-53
-192,-14,178,103,-185,82,118,40,-69,23,-5,-51
-200,-1,199,101,-199,98,121,40,-54,16,-13,-37
-226,-4,222,115,-224,109,108,40,-63,8,0,-53
-255,-19,236,136,-245,109,121,38,-80,7,-13,-84
-243,6,249,118,-246,127,142,31,-70,28,-24,-78
-253,7,260,123,-257,134,156,26,-65,28,-18,-81
-301,-14,287,157,-294,137,140,21,-54,16,-18,-82
-314,7,321,153,-318,164,144,14,-74,11,-50,-108
-334,16,350,159,-342,182,177,11,-70,0,-65,-119
-357,-7,350,182,-354,171,170,51,-45,12,-45,-100
-287,53,339,117,-313,196,165,91,-36,37,-26,-85
-201,108,309,46,-255,208,162,135,-19,71,11,-56
-172,86,258,43,-215,172,155,182,1,100,31,-39
-120,92,212,14,-166,151,153,213,28,112,53,-10
-41,113,154,-36,-98,133,138,239,46,133,80,19
22,122,100,-72,-39,111,130,231,47,135,79,16
5,83,78,-45,-36,80,115,181,15,110,68,6
-28,37,65,-5,-47,51,106,130,-22,94,45,-1
18,21,3,-20,7,12,88,83,-45,56,16,-17
40,28,-12,-34,25,8,78,53,-74,29,-13,-50
-20,33,54,-7,-37,43,129,90,-85,69,3,-59
-57,-9,48,32,-52,19,140,111,-74,81,42,-50
-6,1,7,2,-7,4,121,100,-68,58,45,-41
33,26,-8,-29,20,9,114,109,-59,53,45,-27
26,60,34,-43,-5,47,102,101,-52,72,45,-14
66,132,66,-99,-1,99,96,111,-39,100,53,2
51,100,49,-76,1,74,90,139,-27,109,63,14
66,113,47,-90,9,79,75,130,-25,132,80,36
174,187,12,-181,81,99,22,115,-24,141,91,47
219,194,-25,-206,122,84,11,102,-27,124,81,59
243,197,-46,-220,144,76,20,89,-21,117,78,59
178,147,-31,-163,104,58,36,81,-45,96,66,25
108,85,-23,-96,66,30,95,67,-70,70,48,9
40,27,-13,-33,27,6,116,50,-90,53,8,-31
-39,-38,0,39,-19,-19,105,26,-116,47,-15,-49
-26,-54,-28,40,1,-41,113,31,-115,34,-14,-43
-64,-44,20,54,-42,-12,108,9,-122,26,-18,-48
-81,-47,34,64,-57,-7,110,20,-116,21,-27,-58
-36,-38,-2,37,-17,-20,124,-5,-118,9,-35,-63
-19,-40,-21,30,1,-30,128,5,-108,12,-23,-51
-62,-37,25,49,-43,-6,143,-7,-114,-6,-40,-58
-1,56,57,-27,-30,56,75,-38,-73,84,44,20
194,100,-94,-147,144,3,-19,183,97,267,229,155
685,121,-564,-403,624,-221,-394,82,181,447,487,415
1188,-43,-1230,-572,1209,-637,-838,-486,-313,51,234,311
844,-396,-1240,-224,1043,-818,-664,-1214,-1116,-818,-585,-338
320,-505,-825,92,573,-665,-234,-1229,-1170,-981,-831,-606
185,-444,-628,130,406,-536,150,-592,-763,-714,-700,-574
50,-271,-322,111,186,-296,299,-410,-501,-456,-497,-437
-86,-45,41,65,-63,-2,183,-222,-270,-164,-189,-195
-191,-17,174,104,-182,78,180,31,-146,-40,-76,-115
-192,-37,154,114,-173,58,193,51,-110,2,-38,-85
-163,-13,150,88,-156,68,178,51,-100,11,-34,-85
-186,-10,176,98,-181,83,182,49,-97,16,-36,-86
-171,18,190,77,-181,104,171,63,-89,19,-33,-79
-226,-32,193,129,-209,80,171,66,-86,20,-37,-81
-243,-45,198,144,-220,76,163,64,-79,26,-33,-80
-200,7,208,96,-204,107,153,62,-74,24,-33,-85
-251,-9,242,130,-246,116,159,59,-64,21,-26,-85
-220,36,256,92,-238,145,183,60,-58,15,-24,-89
-197,71,268,62,-233,170,186,55,-84,15,-47,-91
-253,50,303,102,-278,176,183,52,-90,8,-49,-91
-251,47,298,101,-275,172,204,51,-81,6,-47,-99
-277,28,305,124,-291,166,210,42,-79,6,-63,-108
-305,47,352,129,-329,199,204,60,-74,12,-58,-106
-316,51,367,132,-342,209,203,100,-69,30,-47,-96
-322,28,350,147,-337,188,197,118,-54,28,-24,-70
-257,71,327,93,-292,198,195,154,-19,56,9,-51
-155,118,273,18,-214,195,188,209,22,95,36,-24
-88,125,213,-18,-151,168,179,239,46,116,47,1
-34,120,154,-44,-94,137,173,256,54,127,70,2
31,139,109,-85,-39,124,163,240,42,118,81,13
58,135,77,-97,-10,106,157,188,24,102,61,11
78,118,39,-98,19,78,144,151,-21,57,45,-5
67,110,43,-89,12,76,134,112,-47,45,15,-21
-4,41,45,-19,-24,43,122,83,-44,36,-4,-43
-37,-6,32,21,-35,13,113,74,-70,4,-11,-61
-33,15,48,9,-40,31,142,58,-72,31,-25,-62
2,52,51,-27,-25,51,149,84,-60,62,-25,-53
45,94,49,-70,-3,71,140,114,-55,65,-13,-50
45,96,51,-71,-3,73,138,109,-38,73,3,-32
66,115,50,-90,8,82,129,114,-18,78,22,-9
80,131,51,-105,14,90,127,134,-4,94,46,14
83,121,38,-102,22,80,94,134,0,104,54,37
134,155,22,-145,56,88,58,97,9,104,66,54
159,165,6,-162,77,85,61,73,4,119,89,64
154,142,-12,-148,82,65,59,63,-20,107,78,55
133,127,-6,-130,69,60,60,50,-36,80,57,38
54,82,28,-68,13,54,83,41,-50,66,27,6
-5,21,26,-8,-16,24,90,37,-79,50,-8,-26
-5,-10,-5,7,0,-7,95,21,-98,42,-11,-36
-11,-31,-20,21,5,-25,117,25,-97,30,-19,-40
-18,-37,-19,28,0,-28,115,4,-94,21,-29,-36
8,-26,-34,9,21,-29,113,9,-86,20,-30,-29
-14,-28,-14,21,0,-20,118,-9,-87,2,-46,-32
-5,-20,-15,13,5,-17,111,-13,-76,13,-23,-19
6,12,5,-9,0,8,113,-14,-103,-21,-51,-37
-25,48,73,-12,-49,60,51,-101,-89,32,6,15
136,84,-52,-110,94,16,-8,97,82,213,185,142
584,155,-429,-369,506,-137,-306,101,240,445,463,413
1132,50,-1082,-591,1107,-516,-808,-390,-109,212,387,458
979,-296,-1275,-341,1127,-785,-747,-1120,-949,-680,-430,-170
405,-479,-884,37,645,-681,-333,-1342,-1184,-1008,-833,-555
183,-458,-640,138,412,-549,66,-716,-800,-764,-720,-549
46,-307,-354,131,200,-330,313,-404,-493,-501,-544,-452
-77,-98,-20,88,-29,-59,211,-293,-270,-206,-226,-192
-209,-45,164,127,-186,60,153,-68,-135,-60,-77,-84
-198,-10,188,103,-193,89,176,0,-72,-8,-29,-46
-168,-3,165,85,-167,81,152,32,-75,-11,-27,-33
-212,-44,167,128,-189,61,147,26,-79,-11,-31,-34
-172,1,173,85,-172,87,135,21,-69,-8,-19,-23
-234,-25,209,129,-222,92,135,14,-68,-12,-22,-22
-230,-51,179,140,-204,64,131,5,-58,-7,-11,-14
-244,-40,204,142,-224,82,127,0,-56,-6,-11,-23
-263,-35,227,149,-245,96,127,-4,-49,-1,-15,-25
-228,-10,218,118,-223,104,123,1,-45,1,-23,-25
-284,-14,271,149,-277,128,127,0,-41,5,-29,-25
-259,0,259,129,-259,129,122,-10,-36,2,-35,-30
-286,12,298,137,-293,155,128,-18,-32,-2,-43,-43
-318,17,335,150,-327,176,130,-8,-27,-5,-45,-43
-338,-10,328,174,-333,158,124,10,-22,-8,-46,-47
-356,-2,354,179,-355,176,143,18,0,-10,-49,-49
-295,37,333,129,-314,184,139,49,28,8,-20,-20
-228,62,290,83,-259,176,123,95,48,24,-5,-4
-178,77,255,51,-217,166,111,145,83,53,21,26
-143,99,241,22,-192,170,92,201,134,103,78,78
-83,96,179,-7,-131,138,78,219,154,112,82,82
-12,82,93,-35,-53,87,67,219,147,117,95,94
24,91,66,-58,-21,78,55,187,136,105,92,101
14,55,41,-35,-14,48,45,123,122,66,58,90
17,53,36,-36,-10,44,39,88,107,45,34,90
-5,41,47,-18,-26,44,35,84,89,32,17,83
5,34,30,-20,-13,32,47,86,85,27,42,81
8,28,19,-18,-6,23,47,84,84,17,51,79
-30,0,31,15,-31,15,41,86,82,11,50,81
-1,34,35,-17,-18,34,36,85,115,32,49,80
45,76,30,-60,7,53,30,92,147,76,69,107
66,92,26,-79,19,59,26,104,160,93,87,120
68,91,23,-79,22,57,4,97,186,102,89,126
116,135,19,-125,48,76,-33,87,209,128,119,150
154,166,12,-160,71,88,-81,80,201,118,113,151
137,131,-6,-134,72,62,-96,64,189,105,105,165
140,111,-29,-125,84,41,-79,54,181,94,100,156
96,84,-12,-90,53,36,-59,35,170,72,74,139
52,48,-3,-50,27,22,-21,28,166,54,55,112
55,33,-22,-44,38,5,-29,13,155,36,40,95
13,-15,-28,1,21,-21,-48,11,151,28,34,105
-37,-60,-24,49,-6,-42,-24,2,140,12,15,92
-23,-49,-26,37,2,-37,-24,-10,142,14,18,100
-26,-51,-25,39,-1,-38,-3,-3,138,-2,2,89
-7,-32,-24,20,9,-28,-15,-42,141,-2,6,97
-27,-55,-28,41,0,-41,-16,-19,141,-15,-7,78
-46,-32,13,39,-29,-9,-33,-93,152,8,16,99
62,48,-15,-55,38,16,-120,20,290,159,169,225
374,104,-270,-238,322,-83,-315,149,486,386,416,440
977,100,-877,-539,927,-388,-807,-173,394,416,580,665
1044,-223,-1267,-410,1155,-745,-940,-820,-369,-357,-69,215
546,-463,-1008,-41,777,-736,-586,-1350,-915,-1020,-763,-365
229,-508,-737,140,483,-622,-204,-935,-648,-881,-742,-431
78,-397,-475,160,277,-436,150,-453,-303,-614,-585,-375
-53,-143,-90,98,18,-116,135,-381,-42,-293,-290,-158
-183,-70,113,126,-147,21,-18,-146,154,-93,-91,7
-194,-41,153,118,-174,55,-7,-12,233,-52,-41,37
-193,-51,142,122,-168,46,-6,9,274,-28,-13,63
-205,-38,167,121,-186,64,-18,17,291,-28,-26,64
-225,-42,184,133,-204,71,-38,-9,311,-12,-16,66
-257,-83,174,170,-215,45,-46,-36,334,-11,-23,60
-227,-62,164,144,-195,51,-35,-42,337,-9,-18,60
-234,-70,165,152,-199,47,-34,-39,333,-10,-23,59
-228,-20,208,124,-218,94,-26,-41,337,-10,-26,55
-210,0,210,105,-210,105,-19,-40,334,-9,-24,52
-270,-45,225,157,-247,89,-41,-40,334,-11,-29,48
-262,-11,251,137,-256,120,-56,-35,365,-9,-30,45
-236,20,256,108,-247,138,-46,-27,384,-13,-30,40
-272,10,282,131,-277,145,-43,-21,371,-22,-24,38
-270,13,282,128,-276,147,-35,-14,372,-28,-19,29
-255,34,289,110,-272,161,-32,-6,382,-25,-14,47
-281,3,283,139,-282,143,-24,7,384,-5,-3,72
-300,1,302,149,-301,151,-17,52,412,19,21,70
-210,84,293,63,-252,188,-30,114,445,52,57,103
-127,98,225,14,-176,162,-58,150,459,84,80,133
-108,89,197,9,-153,143,-69,190,495,115,120,162
-16,110,126,-47,-71,118,-80,198,504,130,135,176
7,87,80,-48,-37,83,-98,154,470,107,111,161
-25,35,60,-5,-42,47,-115,122,446,88,95,140
-25,-7,18,16,-22,5,-132,86,419,64,79,110
-15,21,35,-3,-25,27,-124,63,385,31,79,114
-6,18,24,-6,-15,21,-123,66,373,26,80,116
-37,-43,-7,40,-15,-25,-117,65,358,16,80,114
-12,-22,-10,17,-1,-15,-116,68,343,11,79,114
-24,20,45,2,-35,32,-116,72,379,58,87,139
-20,62,81,-21,-51,71,-124,68,383,67,90,165
18,81,63,-50,-23,72,-132,77,386,71,97,161
33,98,65,-66,-16,82,-132,83,408,104,130,174
83,138,55,-111,14,96,-194,73,393,107,150,189
86,138,51,-112,17,94,-222,62,392,116,163,201
96,143,47,-120,25,95,-207,51,374,126,158,215
73,111,38,-92,17,74,-201,41,336,102,137,201
-9,28,37,-10,-24,33,-192,25,293,77,107,157
-26,0,26,12,-26,13,-187,17,262,62,68,115
-32,-5,27,18,-29,11,-183,-9,265,46,64,107
-63,-48,15,56,-39,-16,-179,-4,267,41,68,107
-88,-81,7,84,-47,-37,-172,-24,249,29,57,97
-48,-63,-14,56,-17,-38,-173,-20,250,30,66,103
-25,-43,-18,34,-3,-30,-160,-33,231,10,52,86
-44,-48,-4,47,-20,-26,-171,-46,232,19,70,100
-53,-66,-13,60,-19,-39,-148,-14,219,0,49,79
-79,-31,48,54,-63,9,-191,-115,212,34,79,108
54,33,-21,-44,37,6,-265,72,389,221,253,247
458,124,-335,-291,396,-105,-500,112,592,497,552,512
1004,65,-939,-534,971,-437,-1006,-257,365,391,594,638
914,-320,-1233,-297,1074,-776,-1000,-900,-492,-517,-186,64
393,-549,-943,78,669,-746,-601,-1305,-939,-1041,-755,-419
182,-508,-690,163,436,-599,-196,-772,-587,-821,-675,-441
61,-316,-377,128,219,-346,91,-455,-264,-538,-480,-346
-62,-137,-75,99,7,-106,-51,-360,-60,-240,-193,-138
-230,-101,130,165,-180,14,-103,-71,122,-72,-35,-27
-260,-60,199,160,-229,69,-48,-14,179,-31,20,8
-228,-68,160,148,-194,46,-89,-11,166,-25,32,8
-228,-49,179,138,-203,65,-75,-6,173,-15,28,10
-204,-44,159,124,-181,57,-83,1,176,-9,33,17
-191,-29,162,110,-176,66,-79,5,174,-7,26,18
-184,1,185,92,-184,93,-80,-4,172,0,39,19
-251,-38,214,144,-232,88,-79,-8,161,3,43,6
-253,-47,206,150,-230,80,-71,-17,157,4,36,0
-200,0,200,99,-199,100,-69,-21,147,-5,29,-10
-233,30,262,101,-248,146,-62,-30,141,-11,23,-19
-268,25,293,122,-281,159,-60,-26,134,-17,15,-28
-263,13,276,125,-270,144,-54,-23,129,-24,13,-55
-302,-28,273,165,-287,122,-48,-17,131,-33,4,-52
-279,27,306,126,-293,166,-39,10,126,-33,14,-34
-314,8,322,153,-318,165,-32,33,126,-24,24,-76
-333,-25,308,178,-320,142,-23,51,123,-3,11,-80
-245,62,307,91,-276,184,-22,80,130,41,48,-33
-203,74,277,64,-240,175,-26,134,167,77,87,-9
-140,75,215,32,-178,145,-25,171,181,99,108,10
-77,81,158,-2,-117,119,-36,192,195,127,141,31
-22,93,115,-35,-69,104,-56,194,190,126,136,31
-22,63,86,-21,-54,74,-65,158,162,106,117,13
-2,59,61,-28,-32,59,-89,111,133,87,105,-7
8,56,48,-33,-20,52,-109,84,99,73,100,-37
-11,17,28,-3,-20,22,-102,57,86,61,94,-46
-3,13,16,-5,-10,14,-93,31,87,51,90,-50
-35,-22,12,28,-23,-5,-86,44,72,38,82,-50
-36,-11,25,24,-31,7,-78,69,64,46,83,-34
-17,57,75,-20,-46,66,-72,91,89,90,115,-24
-4,76,80,-36,-42,78,-68,92,100,99,123,-4
14,85,71,-50,-28,78,-58,111,111,116,131,5
82,151,69,-117,6,110,-91,124,127,146,160,14
78,140,62,-110,8,101,-139,97,110,144,159,51
95,128,32,-112,31,80,-161,81,83,146,156,59
193,165,-29,-178,110,68,-152,74,71,142,153,36
112,81,-31,-96,71,25,-104,57,43,100,120,18
49,27,-22,-38,35,2,-83,52,4,65,93,-9
18,6,-13,-12,16,-4,-74,39,-27,54,81,-51
-24,-29,-5,26,-9,-17,-69,31,-38,47,72,-60
-27,-23,4,25,-15,-9,-56,26,-46,32,59,-62
-44,-25,20,34,-32,-2,-56,6,-57,33,69,-56
-31,-27,4,29,-17,-11,-43,20,-73,24,62,-81
-8,-26,-18,17,5,-21,-40,-12,-87,25,68,-89
-27,-44,-17,36,-5,-30,-35,23,-72,21,73,-79
-62,-7,55,34,-58,24,-19,-52,-81,13,60,-76
51,67,16,-59,18,41,-103,-9,-3,131,157,18
276,118,-157,-197,216,-19,-227,183,199,360,375,196
798,135,-663,-467,730,-263,-682,-55,212,504,621,468
1083,-139,-1223,-472,1153,-681,-982,-650,-473,-139,129,163
621,-486,-1107,-67,864,-796,-661,-1297,-1211,-972,-676,-489
271,-537,-808,133,540,-673,-230,-1047,-1065,-941,-764,-624
133,-412,-545,139,339,-478,120,-506,-692,-656,-612,-580
-23,-206,-183,115,80,-194,159,-412,-449,-368,-345,-384
-89,-24,65,57,-77,20,82,-156,-221,-105,-75,-169
-186,-20,166,103,-176,72,90,5,-135,-35,-18,-139
-194,-65,129,129,-161,32,70,42,-112,-13,-5,-115
-210,-57,154,133,-182,48,69,55,-111,-6,0,-115
-259,-58,201,158,-230,71,55,39,-110,1,15,-105
-240,-49,191,144,-216,71,56,47,-106,9,28,-98
-252,-54,198,153,-225,71,54,32,-105,12,29,-95
-210,-21,189,115,-200,84,57,41,-105,27,33,-87
-235,-22,213,128,-223,95,83,62,-105,52,48,-105
-244,-29,216,136,-230,93,85,63,-105,47,41,-123
-179,35,214,72,-197,124,85,55,-105,36,29,-117
-239,22,261,109,-250,141,85,54,-105,29,20,-114
-305,-27,277,166,-291,125,85,47,-105,18,10,-131
-297,-10,287,153,-291,138,116,44,-103,16,4,-129
-256,31,286,112,-271,158,128,51,-93,12,-4,-117
-238,39,277,99,-257,158,123,65,-82,10,-10,-108
-218,54,272,82,-245,162,133,101,-73,19,-20,-89
-223,42,265,90,-244,153,132,132,-57,49,0,-66
-200,55,255,72,-228,155,125,171,-39,74,36,-49
-119,105,224,6,-171,164,120,234,-10,110,74,-16
-58,113,171,-28,-115,142,109,260,8,141,96,11
-7,125,133,-59,-70,128,91,253,7,130,112,17
13,126,113,-69,-50,119,77,242,3,119,124,24
57,121,64,-89,-4,92,74,204,-26,104,93,10
49,92,44,-71,2,68,72,160,-59,77,82,-1
20,54,33,-37,-7,43,68,137,-100,56,78,-4
11,18,7,-15,2,13,67,134,-124,53,71,-10
-3,31,34,-14,-18,32,63,136,-116,57,67,-13
46,77,31,-62,7,54,72,134,-115,51,59,-19
14,3,-10,-8,12,-3,81,135,-112,61,62,-18
32,47,15,-40,8,31,79,142,-109,84,56,-11
73,123,50,-98,12,86,86,165,-107,108,82,12
69,90,21,-80,24,55,98,177,-101,125,103,37
130,145,15,-138,57,80,75,164,-96,139,107,39
118,124,6,-121,55,65,26,154,-95,148,119,44
187,147,-40,-167,113,53,-7,141,-59,133,105,71
248,192,-55,-220,151,68,-37,125,-84,127,100,78
172,123,-49,-148,110,36,3,109,-127,105,80,46
119,73,-46,-96,82,13,53,97,-124,74,49,3
70,28,-42,-49,55,-6,70,99,-151,62,38,-31
56,20,-36,-38,46,-7,80,85,-162,56,34,-34
48,17,-31,-32,40,-7,68,92,-174,50,31,-28
-7,2,9,2,-8,5,90,75,-182,40,22,-34
1,-11,-12,6,6,-11,106,83,-182,40,25,-24
1,-35,-36,17,19,-35,106,68,-195,25,7,-37
-19,-51,-32,35,7,-41,92,63,-180,36,4,-56
-42,-69,-26,56,-8,-47,108,55,-200,14,-17,-84
-5,9,14,-2,-9,11,63,-9,-166,63,51,-4
148,78,-71,-113,109,3,-5,201,-3,248,219,146
551,126,-425,-338,488,-149,-303,187,136,471,486,386
1123,46,-1078,-584,1100,-516,-790,-271,-171,261,426,441
956,-337,-1293,-309,1125,-815,-739,-1006,-1029,-644,-391,-171
443,-505,-948,31,696,-726,-335,-1262,-1314,-1025,-834,-585
219,-468,-687,125,453,-577,82,-644,-900,-742,-709,-560
77,-313,-390,118,234,-351,287,-378,-609,-491,-517,-454
-25,-84,-60,55,18,-72,205,-260,-383,-200,-211,-213
-187,-60,127,123,-157,33,184,19,-220,-31,-70,-116
-223,-38,185,130,-204,73,183,88,-174,6,-31,-91
-218,-35,183,126,-200,74,174,96,-161,15,-18,-80
-218,-38,181,128,-199,71,171,80,-160,24,-16,-81
-188,-23,165,106,-177,71,164,81,-159,36,-6,-71
-211,-34,177,122,-194,71,166,68,-156,33,-5,-71
-220,-11,209,116,-215,99,165,69,-154,37,5,-63
-202,-18,184,110,-193,83,165,76,-154,33,2,-71
-190,28,218,81,-204,123,162,70,-149,37,-7,-69
-216,36,252,90,-234,143,180,92,-151,53,-3,-74
-202,13,215,94,-209,113,188,97,-147,50,2,-75
-236,33,269,101,-252,150,182,92,-145,41,-17,-76
-306,-8,297,157,-301,144,188,93,-145,37,-30,-86
-233,50,282,91,-258,166,202,87,-141,28,-27,-81
-225,74,299,75,-262,186,207,94,-132,26,-21,-77
-253,74,327,89,-290,201,204,110,-126,23,-14,-73
-269,69,338,100,-304,203,201,134,-117,35,-11,-67
-258,61,319,98,-289,190,200,178,-90,59,12,-63
-142,138,280,2,-211,209,199,238,-57,99,44,-30
-100,110,210,-5,-156,160,187,281,-28,140,63,3
-46,112,158,-33,-102,135,173,272,-16,140,80,17
15,124,109,-69,-47,116,162,261,-6,131,67,28
23,79,56,-51,-17,67,149,248,-19,113,50,20
26,55,29,-41,-2,42,143,195,-58,93,56,12
40,64,24,-52,8,44,135,153,-91,85,43,3
26,41,15,-34,5,28,130,150,-117,80,32,-6
9,13,4,-11,3,8,121,149,-117,71,35,-19
78,60,-19,-69,48,20,117,153,-111,67,35,-28
54,23,-32,-38,43,-4,115,155,-106,59,35,-21
25,10,-14,-17,19,-2,116,154,-100,52,34,-14
107,109,2,-108,52,55,141,168,-95,92,55,-4
122,134,11,-128,55,72,140,169,-90,112,69,1
93,116,24,-105,34,70,122,182,-88,105,61,20
70,106,36,-88,17,70,87,179,-85,126,82,49
117,133,15,-125,51,74,39,148,-82,132,94,65
235,196,-39,-215,136,79,41,139,-79,120,82,76
255,192,-63,-223,159,64,39,131,-83,113,76,72
184,142,-42,-163,113,49,40,124,-87,102,67,56
115,84,-31,-100,73,26,71,113,-104,95,55,39
54,43,-11,-48,32,16,101,113,-126,85,32,8
44,29,-15,-37,30,6,104,98,-144,74,20,-24
77,32,-45,-54,60,-6,94,101,-166,67,15,-42
7,-6,-14,0,10,-10,116,84,-177,56,3,-57
-30,-38,-8,34,-11,-22,132,86,-166,62,8,-50
17,-8,-25,-4,21,-16,132,77,-166,49,-6,-55
46,21,-25,-33,35,-2,125,67,-152,58,2,-41
16,3,-13,-9,15,-5,137,86,-151,44,-9,-49
6,29,23,-18,-9,26,80,-9,-142,60,31,-4
141,90,-51,-116,96,19,5,153,-6,210,176,127
516,117,-399,-316,457,-140,-251,201,157,426,436,356
1129,53,-1076,-591,1103,-512,-761,-236,-114,271,428,445
1050,-278,-1328,-386,1190,-803,-784,-985,-942,-588,-346,-130
465,-504,-969,20,717,-736,-378,-1317,-1276,-1035,-842,-574
274,-461,-735,93,505,-598,35,-730,-892,-772,-723,-539
125,-307,-432,91,279,-369,297,-385,-570,-503,-537,-465
-42,-97,-56,70,7,-76,205,-289,-363,-212,-243,-239
-145,-20,125,83,-135,52,149,-21,-195,-24,-81,-97
-183,-7,176,95,-179,84,190,73,-136,32,-42,-85
-190,-14,175,101,-182,80,164,67,-125,42,-34,-74
-204,-30,174,117,-188,72,160,57,-107,38,-27,-70
-194,-18,177,106,-185,79,147,55,-95,43,-7,-58
-167,7,174,79,-171,90,142,43,-88,37,-7,-56
-138,34,172,52,-156,103,140,45,-82,44,1,-47
-169,24,194,72,-182,109,134,43,-75,34,1,-44
-169,-6,163,87,-166,79,151,51,-95,39,7,-36
-198,3,201,98,-200,102,168,85,-108,66,10,-38
-194,49,243,72,-219,146,171,86,-98,60,4,-65
-220,28,248,96,-234,138,162,83,-99,55,-12,-72
-222,50,272,86,-247,160,168,87,-92,52,-31,-69
-182,95,277,43,-230,186,185,83,-91,45,-26,-71
-252,51,303,100,-278,177,185,88,-84,45,-18,-70
-220,83,303,68,-262,193,193,105,-70,32,-10,-70
-211,113,324,49,-268,218,198,131,-61,49,-2,-61
-218,88,306,64,-262,197,185,161,-41,76,6,-45
-144,102,247,21,-196,175,180,206,-20,92,35,-30
-66,133,199,-34,-133,166,163,260,11,134,73,-13
-5,137,142,-66,-74,139,138,272,32,151,98,-1
26,118,92,-72,-33,105,127,268,36,155,102,32
61,110,49,-86,5,80,123,245,34,162,112,50
42,83,40,-63,1,61,117,172,-14,118,84,13
39,76,37,-57,1,56,111,142,-42,89,43,1
55,84,29,-70,13,56,107,140,-46,91,46,4
54,73,19,-64,17,46,100,121,-56,83,45,-4
70,76,7,-73,31,41,96,107,-47,80,40,-4
74,75,1,-75,36,38,89,104,-39,76,41,-4
79,79,0,-79,39,39,85,122,-30,76,39,3
89,96,7,-92,41,51,79,145,-21,92,51,27
90,111,21,-101,34,66,74,167,-10,114,76,40
117,145,28,-131,44,86,96,188,10,131,94,56
142,147,5,-145,68,76,71,176,17,137,99,77
171,171,0,-171,85,85,17,146,10,130,94,81
252,212,-40,-231,145,85,-18,131,-16,122,89,81
269,175,-94,-222,181,40,-40,114,-38,115,86,71
198,132,-66,-165,132,33,-16,101,-41,107,80,61
149,87,-62,-117,105,12,20,84,-47,98,70,54
106,40,-66,-73,86,-13,46,78,-64,80,47,44
64,27,-37,-45,50,-5,45,63,-93,69,38,38
62,23,-40,-42,51,-8,42,65,-95,62,36,32
60,11,-48,-35,54,-18,61,50,-95,47,26,21
59,5,-54,-32,56,-24,68,46,-94,44,30,19
13,-18,-30,3,21,-23,75,47,-104,25,14,6
18,-20,-39,2,29,-29,62,54,-95,25,23,29
10,-35,-45,13,28,-40,81,67,-83,9,4,10
-10,21,31,-6,-21,26,32,-33,-79,57,47,39
166,116,-50,-141,108,33,-38,154,70,235,216,192
561,162,-399,-361,480,-118,-289,229,260,456,497,438
1157,120,-1037,-639,1097,-458,-818,-222,6,328,510,535
1073,-252,-1325,-410,1199,-789,-853,-955,-829,-535,-273,-32
490,-494,-984,2,738,-739,-446,-1305,-1193,-1010,-802,-494
246,-454,-699,104,473,-576,-29,-733,-812,-768,-696,-488
73,-339,-412,133,243,-375,255,-341,-485,-511,-529,-432
-56,-121,-66,89,5,-93,219,-272,-255,-205,-228,-189
-166,-54,111,110,-138,28,126,-52,-111,-34,-55,-42
-189,-52,137,120,-163,42,97,51,-65,11,-28,-38
-147,-22,125,84,-136,51,86,58,-31,30,-7,-17
-124,-9,116,66,-120,53,84,52,-22,20,-3,-15
-114,16,129,49,-122,72,77,56,-9,33,24,-6
-173,-29,144,101,-158,57,74,55,-6,39,35,-2
-191,-69,122,130,-156,26,69,54,20,39,32,2
-162,-1,161,81,-162,80,65,66,62,51,28,21
-150,35,186,57,-168,111,65,73,72,60,24,42
-174,21,195,76,-185,108,64,63,69,50,21,38
-189,20,208,84,-198,114,66,58,70,44,17,33
-200,17,217,91,-209,116,64,49,70,38,15,32
-228,6,235,111,-231,120,67,42,69,30,14,24
-213,27,241,93,-227,134,77,44,75,34,12,27
-217,58,275,79,-246,166,71,48,87,37,9,22
-246,67,312,89,-279,189,85,82,111,42,11,31
-189,100,289,44,-239,194,94,106,129,47,23,45
-160,94,254,33,-207,174,80,144,152,64,46,55
-176,90,266,43,-221,177,75,199,198,105,87,88
-142,76,218,32,-180,146,62,232,224,122,109,112
-49,90,138,-21,-94,114,49,270,257,146,131,139
19,127,109,-73,-46,118,35,270,278,161,152,158
51,100,49,-76,0,74,19,223,259,143,135,146
88,93,5,-91,41,49,3,178,246,122,121,135
27,47,20,-37,3,33,-10,135,229,83,112,129
-1,18,19,-9,-11,18,-11,104,217,80,106,128
23,26,4,-25,10,15,-17,94,213,80,99,125
61,40,-21,-51,41,9,-18,88,214,79,92,121
75,41,-34,-57,54,3,-26,105,221,82,87,121
45,26,-19,-35,32,4,-22,136,234,76,85,117
55,83,28,-69,13,55,-20,148,269,110,109,135
51,73,22,-62,14,47,-45,144,274,106,104,133
93,89,-4,-91,48,42,-30,165,296,118,118,144
118,157,39,-138,39,98,-61,168,333,162,166,191
110,142,32,-126,38,87,-119,129,317,152,161,196
160,144,-16,-152,88,63,-118,117,311,157,153,207
180,131,-49,-155,114,41,-110,114,300,148,146,205
132,84,-48,-108,89,18,-101,90,268,109,135,162
91,53,-38,-72,65,7,-95,75,256,76,120,145
58,25,-33,-41,45,-4,-86,65,248,46,90,135
43,16,-27,-29,34,-5,-85,58,247,46,86,133
14,-4,-18,-5,16,-11,-75,57,240,34,70,122
12,-13,-26,1,19,-19,-76,38,236,37,68,119
24,-25,-49,1,37,-37,-66,51,238,26,54,114
1,-38,-39,19,20,-39,-66,20,246,27,48,113
12,-30,-41,9,27,-35,-72,58,271,50,48,120
-36,-29,7,32,-21,-11,-69,-12,253,23,32,106
40,50,11,-45,14,30,-139,7,344,136,168,205
264,99,-165,-182,214,-33,-259,220,565,358,382,387
787,118,-669,-453,728,-275,-705,19,624,530,654,664
1149,-92,-1241,-528,1195,-666,-1046,-535,34,-23,252,439
712,-448,-1160,-132,936,-803,-763,-1213,-743,-900,-593,-236
308,-501,-809,97,558,-655,-349,-1078,-672,-937,-722,-407
136,-430,-566,147,352,-498,19,-494,-262,-659,-584,-375
-24,-233,-210,129,93,-221,131,-378,-9,-372,-347,-232
-133,-65,68,99,-100,2,-21,-181,216,-110,-76,7
-199,-42,157,120,-177,57,-52,-14,338,-21,0,68
-160,-33,127,96,-143,47,-46,-12,360,11,20,84
-188,-47,140,117,-164,46,-68,1,362,-2,-6,78
-232,-56,175,144,-203,59,-69,20,391,-2,-3,81
-185,-38,146,111,-165,54,-71,2,390,-10,1,80
-174,-2,172,87,-173,85,-66,-21,389,-5,6,79
-182,-8,174,95,-178,83,-64,-12,391,-5,13,77
-185,-18,167,102,-176,75,-67,-17,388,-5,16,70
-229,-32,198,130,-213,83,-52,-15,390,1,24,67
-237,-28,209,132,-222,90,-51,-15,377,-1,24,62
-249,-12,238,130,-243,113,-75,-15,388,-2,25,57
-250,-13,237,131,-244,112,-72,-8,411,-8,25,55
-282,-20,261,151,-271,120,-66,-5,409,-12,25,63
-288,6,294,141,-291,149,-63,0,407,-15,25,64
-281,18,298,132,-290,158,-57,13,403,-8,25,57
-284,13,298,135,-291,155,-52,39,409,0,25,56
-201,67,268,67,-235,167,-51,70,428,14,29,71
-190,76,266,57,-228,170,-47,111,451,56,58,99
-174,46,220,64,-197,133,-56,164,480,91,96,121
-88,66,154,11,-121,109,-83,193,504,115,126,149
-25,98,123,-37,-74,110,-91,210,524,126,137,176
13,85,73,-49,-30,79,-100,194,508,114,124,174
41,58,17,-49,12,37,-112,155,470,99,113,161
49,32,-17,-41,33,8,-132,115,431,77,103,150
50,20,-29,-35,39,-4,-137,79,403,64,98,144
22,-14,-36,-4,29,-24,-134,75,392,67,95,145
-1,-37,-36,19,18,-36,-135,74,384,62,91,145
35,6,-29,-20,31,-11,-128,71,375,62,88,145
32,-1,-33,-16,32,-16,-132,67,364,57,82,145
38,25,-14,-31,26,5,-126,81,362,69,101,144
56,75,20,-66,18,47,-140,80,354,91,110,139
45,62,17,-54,14,39,-135,94,367,97,118,147
93,102,8,-98,42,55,-139,108,387,123,152,178
144,143,-1,-143,72,70,-211,79,373,136,173,203
158,153,-5,-155,81,74,-240,77,360,126,178,208
192,157,-34,-174,113,61,-237,68,344,120,182,209
178,116,-63,-147,120,26,-227,58,323,110,177,201
131,78,-54,-104,92,12,-211,46,301,99,146,177
62,14,-48,-38,55,-17,-196,40,275,74,112,136
2,-39,-41,19,22,-40,-187,25,251,55,102,120
-28,-61,-33,45,3,-47,-186,25,239,51,93,119
-46,-78,-33,62,-6,-55,-176,7,225,36,75,104
22,-62,-84,20,53,-73,-179,5,232,36,80,109
13,-67,-80,27,47,-73,-165,2,229,15,61,88
14,-60,-73,23,44,-66,-174,-18,231,27,75,106
-1,-71,-69,36,34,-70,-154,10,241,13,50,95
2,17,14,-10,-6,16,-174,-71,219,53,100,117
130,80,-50,-105,90,15,-243,97,335,232,274,242
431,114,-317,-272,374,-102,-475,146,538,497,544,473
1024,103,-921,-563,972,-409,-974,-195,366,464,661,638
1018,-277,-1296,-371,1158,-786,-1016,-836,-489,-428,-110,99
505,-526,-1031,11,769,-778,-623,-1296,-1014,-1018,-726,-428
232,-510,-742,139,487,-626,-218,-806,-681,-811,-641,-460
76,-377,-453,150,265,-415,87,-454,-353,-550,-508,-375
-30,-165,-135,98,52,-150,1,-371,-155,-249,-224,-163
-149,-103,46,126,-97,-28,-90,-117,41,-73,-53,-68
-156,-77,79,116,-117,1,-38,-21,104,-19,-11,-37
-143,-60,83,101,-112,11,-67,-1,93,-3,12,-26
-168,-52,116,110,-142,32,-73,-15,111,-3,12,-34
-140,-32,108,86,-124,38,-69,-11,117,7,29,-26
-182,-40,142,111,-162,50,-64,-7,108,6,25,-33
-210,-42,168,126,-189,63,-56,-6,110,16,25,-28
-165,-1,164,82,-164,81,-54,1,104,12,19,-26
-180,-15,165,97,-172,75,-46,2,105,8,17,-25
-216,-50,166,132,-191,58,-42,7,97,5,12,-24
-172,-3,168,87,-170,82,-35,12,91,1,9,-27
-172,22,194,75,-183,108,-30,19,85,-3,5,-51
-225,13,238,106,-232,126,-25,26,77,-5,0,-55
-235,9,243,113,-239,126,-13,32,72,-16,-4,-68
-268,-1,267,134,-268,133,7,39,69,-11,-3,-78
-256,25,281,115,-268,152,28,45,71,7,13,-69
-206,54,260,76,-233,157,30,58,69,14,19,-71
-199,46,245,76,-222,145,19,103,73,42,34,-48
-150,66,216,41,-183,141,13,156,93,77,65,-17
-95,89,184,3,-140,136,3,202,124,113,97,-1
-98,55,153,22,-126,104,-1,240,151,142,127,11
-70,50,120,9,-95,85,-9,235,141,136,125,27
24,88,64,-56,-20,76,-10,201,123,123,114,23
48,58,10,-53,18,34,-19,158,92,113,107,13
33,13,-20,-23,26,-4,-48,114,52,91,99,-1
38,7,-31,-22,34,-12,-49,99,40,68,93,-40
29,-5,-34,-11,32,-20,-43,100,29,64,86,-50
42,15,-27,-28,34,-6,-42,100,17,65,79,-39
34,13,-20,-23,27,-3,-35,100,20,65,73,-33
40,-11,-51,-14,46,-30,-35,100,22,65,70,-24
63,38,-25,-50,44,7,-26,115,38,83,84,-18
107,113,6,-110,50,59,-24,136,60,115,124,-7
111,114,3,-113,53,58,-13,147,55,119,126,2
92,114,23,-103,34,68,-30,141,47,130,125,28
179,173,-6,-176,92,83,-77,129,42,153,152,52
187,166,-21,-176,103,72,-95,117,32,149,155,42
180,147,-33,-163,106,56,-104,104,15,143,156,33
151,101,-49,-126,100,26,-79,90,-15,115,124,23
57,20,-37,-38,47,-8,-33,76,-46,83,83,-3
55,-1,-55,-27,55,-28,-13,74,-76,73,69,-40
53,-7,-61,-23,57,-34,-11,61,-95,68,59,-49
19,-41,-60,11,40,-51,2,68,-109,61,48,-55
5,-54,-59,24,32,-56,7,47,-123,50,38,-64
14,-47,-62,16,38,-54,18,58,-118,50,45,-53
16,-42,-58,13,37,-50,21,38,-146,38,32,-61
18,-32,-50,7,35,-41,2,40,-135,54,45,-44
-41,-68,-28,55,-6,-48,39,34,-145,33,21,-60
-29,-20,9,24,-19,-6,-24,-29,-126,77,72,-21
126,67,-59,-97,92,4,-89,184,66,265,256,118
627,160,-467,-394,547,-153,-396,129,210,508,545,393
1157,31,-1126,-594,1141,-547,-880,-350,-160,229,424,400
866,-375,-1241,-245,1054,-808,-767,-1071,-1027,-703,-427,-244
416,-533,-949,59,683,-741,-348,-1262,-1250,-1022,-826,-622
245,-466,-711,111,478,-588,56,-646,-836,-749,-686,-592
39,-304,-343,133,191,-323,253,-417,-558,-479,-486,-466
-73,-99,-27,86,-23,-63,174,-263,-311,-169,-188,-208
-143,-14,129,78,-135,57,137,-4,-175,-10,-70,-126
-208,-49,159,128,-183,55,123,37,-137,19,-36,-127
-224,-73,151,148,-187,39,126,58,-119,18,-34,-118
-188,-34,154,111,-171,60,123,58,-121,32,-36,-119
-169,-21,148,95,-158,63,119,66,-110,25,-27,-109
-191,-15,175,103,-183,80,121,58,-108,18,-30,-114
-184,12,195,86,-190,103,115,54,-99,19,-22,-114
-177,19,196,79,-187,107,106,51,-98,7,-25,-115
-241,-26,215,134,-228,94,103,44,-91,20,-16,-115
-254,-33,221,143,-237,94,143,61,-91,40,-17,-115
-243,-2,241,122,-242,119,152,67,-112,37,-32,-115
-244,29,274,107,-259,151,149,63,-113,28,-37,-110
-196,72,267,62,-232,169,167,68,-105,24,-33,-102
-230,58,289,86,-260,173,161,60,-102,14,-39,-97
-236,55,291,90,-264,173,178,74,-94,11,-56,-87
-251,40,291,105,-271,165,193,94,-90,12,-49,-85
-316,7,323,154,-320,165,184,111,-80,34,-31,-68
-218,84,302,67,-261,193,184,168,-68,68,-11,-25
-130,121,251,4,-191,186,178,208,-57,80,32,-7
-91,92,182,-1,-137,137,176,242,-43,116,65,15
-40,77,116,-19,-78,96,169,274,-34,130,77,40
-7,86,93,-40,-50,89,157,260,-20,113,79,39
57,110,53,-84,2,81,146,218,-23,106,65,25
61,70,9,-66,26,39,134,171,-72,95,52,13
46,45,-1,-46,23,22,130,144,-103,90,44,9
53,45,-8,-49,30,18,130,130,-105,85,38,8
42,29,-13,-36,27,8,130,121,-115,79,30,2
37,25,-12,-31,24,6,129,115,-130,73,22,2
13,15,1,-14,6,8,131,100,-143,72,16,-3
40,33,-8,-36,24,12,133,117,-125,72,13,-10
64,77,13,-71,26,45,147,156,-88,90,44,24
3,48,45,-26,-21,47,151,162,-78,105,54,30
57,85,28,-71,14,56,145,188,-80,118,68,45
168,170,3,-169,82,86,120,170,-79,147,97,75
193,149,-44,-171,119,52,77,141,-81,137,87,80
198,141,-57,-169,127,42,68,148,-79,130,79,88
180,133,-47,-156,113,43,71,137,-84,126,72,82
131,82,-48,-106,89,17,85,116,-104,87,61,64
72,36,-36,-54,54,0,125,82,-133,74,27,26
66,13,-54,-39,60,-20,142,63,-167,60,-8,-3
80,-6,-85,-37,82,-45,138,64,-173,42,-8,-9
28,-30,-57,1,43,-43,141,68,-173,35,-20,-21
7,-42,-50,18,28,-46,135,58,-170,33,-22,-24
-15,-64,-49,40,17,-56,163,75,-160,27,-32,-27
-40,-57,-18,49,-11,-37,158,50,-165,22,-35,-18
-11,-63,-51,37,20,-57,161,73,-147,22,-26,-8
-40,-34,5,37,-23,-14,154,37,-162,12,-26,5
54,33,-21,-43,37,5,73,70,-108,109,71,79
302,83,-219,-193,261,-68,-21,236,81,324,285,241
856,131,-725,-494,791,-297,-474,28,100,468,533,515
1200,-121,-1322,-539,1261,-721,-812,-599,-539,-130,84,242
737,-456,-1193,-140,966,-824,-532,-1278,-1268,-953,-725,-412
330,-502,-832,86,581,-667,-99,-1067,-1146,-947,-832,-563
190,-414,-604,112,398,-509,253,-490,-757,-668,-670,-521
54,-232,-286,90,170,-259,323,-383,-515,-399,-438,-359
-69,-47,22,58,-45,-12,254,-154,-277,-135,-172,-138
-179,-17,162,97,-171,73,248,46,-161,-22,-85,-77
-192,-55,137,123,-164,40,216,50,-133,13,-57,-54
-160,-10,150,85,-155,70,206,50,-128,7,-54,-54
-127,14,141,56,-134,77,205,49,-122,12,-46,-48
-164,-4,159,84,-162,77,205,50,-119,9,-44,-46
-204,-4,200,104,-201,97,205,50,-113,10,-39,-42
-191,-4,187,98,-189,91,205,49,-110,11,-34,-38
-175,15,189,80,-182,102,203,53,-115,14,-30,-35
-172,6,178,82,-175,92,199,60,-115,17,-30,-33
-186,9,195,89,-191,101,218,61,-115,19,-29,-28
-182,52,234,65,-209,143,227,59,-115,26,-34,-34
-178,64,242,57,-211,153,224,61,-115,31,-54,-62
-221,40,261,90,-242,151,226,58,-113,24,-51,-70
-244,40,284,102,-265,162,252,62,-102,23,-41,-65
-264,31,295,116,-280,163,263,85,-95,19,-38,-59
-265,26,292,119,-279,159,258,108,-85,13,-27,-54
-211,68,278,71,-245,173,273,143,-69,46,-25,-48
-219,49,267,85,-243,158,268,183,-41,72,-10,-23
-146,93,239,27,-193,165,257,242,4,102,34,10
-40,145,186,-52,-113,165,237,269,29,122,52,42
-7,115,121,-55,-64,118,213,260,21,109,68,50
34,114,81,-74,-24,97,206,252,8,105,77,37
49,94,45,-72,2,70,199,217,-4,97,51,27
70,80,11,-75,29,45,193,169,-38,90,21,15
57,55,-3,-56,30,26,185,134,-53,83,3,6
66,49,-17,-57,42,16,181,128,-58,75,-3,5
58,28,-30,-43,44,-1,184,131,-74,69,-2,5
46,20,-27,-33,36,-4,189,130,-62,60,-4,5
64,45,-19,-54,41,13,188,128,-52,54,-13,5
66,53,-13,-59,39,20,181,147,-42,66,14,15
96,91,-5,-93,50,43,177,161,-27,91,45,21
80,80,-1,-80,40,39,169,167,-9,102,43,31
96,107,11,-102,42,59,167,182,16,118,67,55
126,140,14,-133,56,77,140,162,19,133,85,66
175,148,-26,-161,100,61,108,148,11,136,90,90
238,178,-59,-208,148,59,104,136,4,144,104,113
209,150,-59,-179,134,45,99,125,-2,125,90,99
124,73,-51,-98,87,11,123,115,-24,84,53,58
55,5,-50,-30,53,-23,158,107,-40,61,25,21
58,16,-42,-37,50,-13,172,102,-59,46,10,6
63,22,-41,-43,52,-9,167,90,-76,45,8,6
30,-5,-35,-12,32,-19,173,91,-75,33,-7,-7
31,-4,-34,-13,33,-19,179,72,-76,29,-24,-9
12,-26,-38,8,25,-32,189,83,-73,21,-37,-21
-1,-27,-26,14,13,-26,182,55,-79,13,-31,-25
23,-22,-46,0,35,-34,179,75,-71,17,-22,-9
-50,-45,6,47,-28,-19,185,42,-91,6,-25,-22
49,51,3,-50,23,26,120,71,-30,116,88,70
289,117,-172,-203,230,-27,14,253,169,314,286,242
842,120,-722,-481,781,-301,-426,61,200,442,518,483
1228,-94,-1322,-567,1275,-708,-785,-570,-417,-112,102,239
732,-436,-1168,-148,950,-802,-529,-1258,-1151,-932,-705,-404
353,-474,-827,61,590,-651,-97,-1070,-1053,-951,-823,-568
195,-414,-609,110,402,-511,264,-488,-661,-664,-670,-532
0,-240,-241,120,121,-240,354,-357,-408,-386,-429,-359
-99,-48,51,73,-74,1,269,-148,-193,-112,-154,-126
-172,-21,152,96,-162,65,263,46,-99,-11,-71,-72
-179,-33,146,106,-163,57,255,66,-63,1,-42,-51
-196,-33,163,114,-179,65,248,65,-60,-6,-48,-55
-163,-17,146,90,-155,64,241,64,-56,5,-43,-44
-190,-24,165,107,-177,70,233,66,-53,3,-45,-40
-170,4,174,83,-172,89,230,64,-52,7,-45,-36
-180,-8,172,94,-176,82,230,63,-48,22,-44,-34
-264,-31,234,147,-248,101,228,59,-52,27,-41,-36
-251,-16,234,133,-242,109,224,60,-56,19,-39,-34
-228,6,234,111,-231,120,225,57,-61,12,-38,-37
-258,-7,250,132,-254,121,224,53,-50,8,-32,-33
-294,-33,261,163,-277,114,238,58,-50,-3,-47,-47
-258,17,275,120,-267,146,248,57,-45,-2,-56,-55
-276,9,285,133,-281,147,249,66,-36,2,-52,-45
-292,10,303,141,-297,156,257,82,-40,12,-48,-40
-248,56,304,96,-276,180,258,95,-14,18,-46,-33
-199,93,292,53,-246,192,247,139,-27,31,-33,-23
-159,108,267,25,-213,187,239,183,36,60,-2,-2
-118,105,223,7,-171,163,230,223,38,77,23,28
-48,112,159,-32,-103,135,221,263,83,125,59,49
3,109,106,-56,-52,107,203,282,66,108,87,46
72,134,61,-103,5,97,183,260,46,146,81,17
113,124,11,-119,51,68,174,220,94,-10,66,-17
117,138,20,-128,49,79,168,176,-482,-313,53,-42
100,117,18,-109,41,67,160,132,-490,-316,35,-42
134,142,8,-138,63,75,153,123,-227,-309,23,-61
183,176,-7,-179,95,84,146,126,-378,-324,24,-47
75,55,-20,-65,47,18,136,124,-262,-302,25,3
