I,II,III,aVR,aVL,aVF,V1,V2,V3,V4,V5,V6
-55,-75,-20,65,-17,-47,90,82,65,-29,-75,-75
-52,-75,-23,64,-14,-49,87,97,73,-23,-71,-75
-45,-75,-30,60,-7,-52,81,116,91,-14,-64,-75
-41,-75,-34,58,-3,-54,76,130,103,-6,-58,-75
-28,-75,-47,52,10,-61,69,147,124,8,-50,-70
-1,-75,-74,38,37,-74,66,172,148,21,-45,-70
4,-70,-74,34,39,-72,69,200,174,39,-35,-69
26,-70,-96,22,61,-83,72,238,215,64,-24,-64
47,-70,-117,11,82,-93,74,287,257,88,-8,-66
51,-71,-122,10,87,-96,78,344,320,128,11,-62
77,-69,-146,-4,111,-107,87,407,401,176,36,-53
92,-74,-166,-9,129,-120,94,484,483,226,67,-45
115,-85,-200,-15,158,-142,99,578,584,296,102,-36
147,-80,-227,-33,187,-153,108,678,687,365,144,-25
170,-75,-245,-47,208,-160,114,778,794,444,195,-11
204,-69,-273,-67,239,-171,111,870,897,531,250,4
236,-64,-300,-86,268,-181,102,932,985,602,296,16
247,-58,-305,-94,276,-181,96,955,1020,646,338,35
253,-46,-298,-103,276,-172,87,936,1004,654,359,57
254,-31,-285,-111,270,-158,81,836,930,620,343,55
231,-15,-246,-108,239,-130,73,667,764,535,295,50
194,11,-182,-102,188,-85,53,454,547,401,220,46
155,46,-110,-100,132,-32,28,242,323,247,146,41
110,52,-58,-81,84,-3,3,83,139,124,78,38
69,46,-22,-57,45,12,-6,-27,12,34,17,27
41,46,5,-43,18,25,-9,-82,-64,-25,-20,18
27,41,14,-34,6,27,-14,-103,-102,-62,-47,6
21,40,19,-31,1,29,-15,-113,-125,-85,-60,1
15,37,21,-26,-3,29,-15,-122,-131,-92,-62,-3
7,32,25,-20,-10,29,-15,-126,-130,-95,-67,-3
0,30,30,-15,-15,30,-15,-125,-130,-95,-72,-14
-2,25,28,-12,-16,26,-14,-125,-130,-95,-79,-40
-3,22,24,-10,-14,23,-10,-125,-129,-95,-80,-39
-7,18,25,-6,-16,21,-11,-125,-126,-95,-81,-34
-10,15,25,-3,-18,20,-7,-118,-123,-95,-84,-32
-10,15,25,-3,-18,20,-5,-108,-121,-93,-86,-27
-12,12,25,-1,-19,18,-5,-98,-117,-88,-84,-25
-11,10,21,1,-16,15,-1,-89,-116,-83,-78,-20
-7,10,17,-2,-12,13,0,-83,-113,-79,-71,-20
-7,7,14,-1,-10,10,0,-76,-104,-74,-64,-20
-6,4,10,1,-8,6,0,-71,-96,-70,-57,-20
1,7,5,-5,-2,6,0,-67,-88,-70,-51,-19
-6,1,7,3,-7,4,-1,-64,-81,-70,-53,-29
-22,-11,12,16,-17,0,-7,-60,-80,-70,-56,-37
-25,-10,15,17,-20,2,-14,-55,-80,-70,-55,-35
-29,-9,20,19,-25,5,-21,-57,-80,-70,-55,-33
-25,-5,20,15,-22,7,-28,-60,-80,-70,-54,-29
-26,-5,21,15,-23,8,-34,-63,-80,-70,-57,-30
-29,-4,25,16,-27,11,-32,-66,-82,-70,-60,-30
-24,1,25,11,-24,12,-27,-70,-93,-71,-63,-30
-28,-1,27,14,-28,13,-24,-72,-99,-68,-65,-30
-28,3,30,13,-29,16,-21,-82,-103,-79,-68,-30
-28,5,33,11,-31,19,-15,-95,-116,-91,-71,-31
-30,5,35,12,-33,20,-18,-96,-124,-89,-66,-28
-40,0,40,20,-40,20,-35,-99,-131,-90,-65,-25
-47,-8,39,27,-43,15,-35,-103,-134,-90,-65,-25
-50,-14,36,32,-43,11,-30,-105,-130,-89,-61,-25
-56,-22,34,38,-45,6,-28,-105,-130,-94,-59,-25
-65,-30,36,47,-50,3,-23,-105,-130,-95,-62,-25
-68,-34,35,50,-51,0,-20,-105,-130,-95,-65,-25
-62,-29,33,45,-47,2,-20,-105,-130,-99,-65,-24
-84,-24,60,54,-72,18,-20,-105,-133,-100,-65,-27
-93,-20,73,57,-83,26,-20,-104,-136,-99,-65,-26
-84,-15,68,50,-76,26,-20,-101,-133,-94,-67,-25
-86,-11,75,48,-80,31,-20,-96,-130,-91,-64,-25
-82,-7,75,43,-78,34,-19,-93,-125,-88,-58,-20
-77,-2,75,39,-76,36,-15,-90,-123,-83,-55,-20
-80,1,81,39,-81,41,-15,-85,-118,-80,-50,-19
-71,17,88,27,-79,52,-12,-85,-116,-84,-46,-15
-53,37,90,8,-72,63,-9,-84,-114,-86,-45,-11
-58,52,111,3,-85,81,-10,-86,-115,-84,-45,-7
-37,86,124,-25,-81,105,-15,-91,-114,-86,-45,-1
-17,99,117,-41,-67,108,-33,-117,-118,-83,-44,2
-24,101,124,-38,-74,113,-46,-150,-136,-88,-46,8
-5,97,102,-46,-54,99,-45,-151,-136,-87,-44,8
8,51,43,-29,-18,47,-45,-160,-154,-108,-70,-30
11,14,3,-12,3,8,-45,-175,-185,-148,-104,-60
8,2,-6,-5,7,-1,-45,-175,-191,-150,-111,-66
3,-9,-12,3,8,-10,-43,-175,-198,-154,-115,-70
7,-13,-20,4,14,-17,-39,-174,-198,-155,-119,-71
5,-22,-26,9,16,-23,-38,-177,-196,-149,-120,-69
6,-31,-37,13,21,-33,-33,-170,-186,-151,-125,-71
5,-31,-36,13,21,-33,-32,-173,-186,-147,-125,-69
11,-34,-46,12,29,-40,-27,-161,-175,-147,-132,-71
9,-23,-32,7,20,-27,-34,-174,-175,-143,-128,-73
7,-54,-60,23,34,-57,-12,-107,-148,-138,-141,-91
30,-60,-89,15,60,-74,53,92,51,-34,-96,-125
202,105,-97,-153,149,4,-34,277,477,499,403,217
483,478,-5,-480,243,237,-264,247,906,1491,1404,950
406,717,311,-561,47,514,-343,-389,268,1380,1516,1185
88,307,219,-198,-65,262,-267,-1029,-977,-180,250,575
-86,-195,-108,141,11,-151,-196,-988,-1159,-878,-543,-89
-143,-251,-108,198,-17,-179,-159,-776,-802,-648,-513,-308
-79,-168,-89,124,5,-129,-123,-507,-517,-467,-386,-258
-22,-110,-87,66,33,-98,-20,-159,-188,-224,-201,-156
-14,-91,-77,53,31,-84,48,-24,-62,-135,-142,-125
-8,-85,-77,47,35,-81,48,8,-39,-109,-117,-116
-14,-79,-65,47,26,-72,51,31,-16,-91,-103,-106
-7,-75,-68,42,31,-72,49,39,-2,-85,-101,-104
2,-67,-69,33,35,-68,50,55,12,-66,-85,-96
3,-67,-70,32,37,-68,50,71,21,-61,-83,-94
1,-69,-70,34,36,-70,53,77,39,-43,-70,-88
-4,-73,-69,38,33,-71,57,75,57,-30,-65,-85
0,-75,-75,38,38,-75,59,105,87,-6,-53,-80
17,-75,-93,29,55,-84,62,128,119,12,-40,-80
22,-75,-96,27,60,-85,69,158,153,33,-25,-79
18,-76,-94,29,57,-85,76,206,190,66,-11,-74
22,-74,-97,26,60,-85,79,245,233,94,1,-76
41,-78,-119,19,81,-98,84,307,302,128,24,-72
52,-94,-146,21,100,-120,88,383,379,184,56,-53
52,-95,-148,22,101,-121,92,462,475,249,93,-37
78,-95,-173,9,126,-134,105,558,581,319,134,-28
113,-100,-213,-7,163,-156,120,665,696,408,186,-15
134,-100,-234,-17,184,-167,126,770,819,502,245,-1
165,-99,-264,-33,215,-181,130,860,923,581,303,32
199,-91,-290,-54,245,-190,125,922,1008,657,357,56
204,-83,-287,-60,245,-185,111,937,1040,691,385,64
211,-72,-283,-69,247,-177,102,890,1004,686,398,69
206,-53,-258,-76,232,-156,88,765,893,641,374,62
165,-32,-197,-66,181,-115,67,583,697,518,305,57
124,-14,-138,-55,131,-76,34,379,473,366,231,51
89,11,-77,-50,83,-33,-1,184,249,213,146,46
58,32,-26,-45,42,3,-11,40,72,82,66,38
11,27,16,-19,-2,21,-12,-52,-39,-8,9,20
-17,24,41,-4,-29,32,-17,-106,-107,-65,-27,5
-29,21,50,3,-39,35,-20,-125,-133,-93,-45,0
-40,15,55,12,-48,35,-17,-131,-150,-113,-60,-2
-40,16,55,11,-48,35,-14,-126,-156,-115,-69,-5
-55,4,60,26,-58,32,-16,-125,-154,-116,-72,-8
-42,18,60,12,-51,39,-14,-125,-158,-126,-75,-10
-24,40,63,-8,-44,51,-16,-120,-160,-125,-75,-13
-35,31,66,2,-51,48,-14,-120,-161,-125,-75,-15
-41,24,65,8,-53,44,-10,-119,-155,-125,-75,-15
-49,17,65,15,-57,41,-10,-114,-147,-125,-75,-20
-57,8,65,24,-61,36,-8,-109,-139,-125,-71,-20
-58,6,64,26,-62,35,-5,-105,-131,-121,-70,-21
-52,4,55,24,-54,29,-5,-100,-124,-118,-70,-26
-50,-5,45,27,-47,19,-9,-95,-118,-116,-65,-24
-37,-2,35,19,-36,16,-10,-92,-111,-112,-65,-28
-20,6,25,7,-23,15,-10,-89,-104,-110,-64,-30
-16,4,20,5,-18,12,-10,-86,-98,-107,-60,-30
-9,6,15,2,-13,10,-10,-84,-91,-105,-60,-30
-7,3,10,2,-9,6,-9,-79,-93,-105,-60,-30
-5,-2,3,4,-4,0,-5,-81,-95,-101,-60,-30
-9,-8,1,8,-5,-3,-5,-85,-95,-99,-60,-30
-17,-11,5,13,-11,-3,-5,-85,-100,-100,-63,-30
-21,-17,5,18,-12,-6,-5,-90,-100,-105,-69,-31
-27,-20,7,23,-17,-6,-5,-90,-101,-110,-72,-35
-26,-15,11,20,-18,-2,-9,-94,-110,-113,-77,-35
-19,-10,9,15,-14,0,-10,-106,-120,-118,-80,-35
-19,-5,14,12,-16,4,-10,-110,-129,-120,-79,-35
-20,-2,18,11,-19,8,-15,-110,-136,-123,-82,-35
-18,4,23,7,-21,13,-15,-110,-141,-126,-85,-39
-24,3,27,10,-26,15,-16,-114,-145,-129,-85,-40
-36,-4,32,20,-33,14,-20,-115,-145,-130,-89,-41
-34,0,35,16,-35,17,-20,-115,-145,-131,-90,-45
-28,7,35,10,-32,21,-20,-114,-145,-135,-90,-45
-23,12,35,5,-29,23,-20,-117,-145,-135,-90,-45
-16,18,35,-2,-26,26,-20,-128,-148,-132,-90,-45
-21,18,39,1,-30,28,-17,-131,-151,-129,-89,-45
-27,13,40,7,-34,26,-14,-129,-154,-130,-85,-42
-31,10,41,10,-36,25,-11,-130,-156,-126,-85,-36
-37,7,44,15,-41,25,-8,-130,-160,-125,-85,-32
-44,2,46,20,-45,24,-5,-129,-159,-125,-85,-27
-43,0,43,21,-43,21,-6,-124,-154,-119,-85,-22
-26,17,44,5,-35,30,-12,-121,-151,-114,-80,-19
-19,43,62,-12,-41,52,-15,-118,-148,-108,-72,-13
-23,43,66,-11,-45,54,-21,-113,-144,-102,-67,-8
-26,58,83,-16,-54,70,-23,-110,-139,-102,-58,-3
-11,94,105,-41,-58,99,-40,-115,-144,-106,-55,4
7,104,97,-56,-45,100,-57,-141,-151,-104,-54,8
6,95,89,-50,-42,91,-51,-157,-157,-109,-51,16
9,90,81,-50,-36,85,-46,-154,-154,-110,-48,22
-9,65,74,-28,-42,69,-41,-155,-158,-110,-59,10
-49,17,66,16,-58,41,-34,-151,-184,-136,-92,-21
-59,1,59,29,-59,30,-30,-149,-192,-150,-102,-41
-53,-1,52,27,-52,25,-25,-151,-195,-149,-98,-39
-53,-9,44,31,-48,17,-20,-148,-196,-151,-102,-41
-50,-12,38,31,-44,13,-16,-152,-194,-148,-97,-39
-50,-20,30,35,-40,5,-11,-149,-197,-153,-103,-41
-57,-25,31,41,-44,3,-8,-151,-191,-145,-96,-38
-64,-38,26,51,-45,-6,0,-150,-201,-148,-103,-35
-58,-32,27,45,-42,-2,4,-140,-182,-134,-97,-30
-62,-41,21,51,-41,-10,23,-102,-158,-142,-102,-37
-89,-69,20,78,-54,-24,65,86,2,-87,-119,-100
69,69,0,-69,34,35,8,247,389,365,266,146
393,450,57,-422,167,254,-232,198,818,1331,1229,847
418,714,296,-566,60,505,-391,-314,491,1613,1668,1241
123,381,257,-252,-67,319,-333,-1060,-769,212,596,793
-95,-114,-19,104,-38,-67,-267,-1133,-1249,-814,-413,95
-184,-228,-43,206,-70,-135,-210,-818,-836,-641,-448,-204
-166,-166,0,167,-83,-83,-119,-517,-523,-455,-367,-203
-104,-107,-3,105,-50,-54,3,-152,-213,-240,-216,-137
-97,-87,10,91,-53,-38,74,9,-58,-117,-125,-99
-81,-68,13,75,-47,-27,68,39,-26,-98,-108,-87
-73,-53,20,62,-46,-16,75,62,-4,-76,-81,-78
-69,-57,12,63,-40,-22,77,72,4,-75,-88,-73
-60,-52,8,56,-34,-22,79,86,30,-53,-68,-65
-54,-51,2,52,-28,-24,82,106,44,-46,-69,-59
-45,-49,-4,47,-20,-26,84,135,69,-20,-57,-55
-46,-54,-9,50,-18,-31,86,149,84,-7,-53,-55
-47,-60,-14,54,-16,-37,87,169,107,7,-46,-55
-44,-60,-15,53,-14,-37,91,199,136,28,-28,-55
-46,-60,-14,53,-16,-37,90,230,168,46,-16,-55
-42,-60,-18,52,-12,-39,90,265,205,62,-3,-55
-26,-60,-34,43,4,-46,103,309,254,97,9,-51
-24,-61,-36,43,6,-48,116,366,317,139,27,-44
-10,-60,-50,35,20,-55,120,431,387,171,50,-38
10,-61,-70,26,40,-65,127,515,478,229,79,-31
15,-73,-88,29,52,-80,138,608,580,301,117,-24
36,-76,-111,20,74,-93,147,712,696,375,160,-16
59,-75,-133,8,96,-104,159,819,816,464,216,-2
105,-72,-177,-16,141,-124,170,917,924,553,271,12
140,-69,-209,-35,175,-139,164,987,1008,618,313,24
165,-71,-236,-47,200,-153,154,992,1037,658,346,41
195,-59,-254,-68,225,-156,146,956,1020,667,347,51
197,-45,-243,-76,220,-144,126,861,942,634,343,57
184,-31,-214,-76,199,-122,92,681,766,549,314,56
138,-14,-151,-62,145,-82,46,461,532,408,236,45
104,15,-89,-59,97,-37,12,240,308,248,154,38
73,32,-42,-52,57,-5,-6,73,116,113,79,31
26,27,0,-26,13,13,-14,-43,-20,14,19,19
18,38,20,-28,-1,29,-18,-110,-95,-50,-21,1
5,39,34,-23,-14,36,-24,-137,-141,-87,-43,-12
-9,31,41,-11,-25,36,-30,-154,-161,-103,-59,-16
-10,29,40,-10,-25,34,-35,-155,-173,-115,-71,-20
-17,23,40,-3,-29,31,-35,-155,-180,-124,-75,-23
-20,20,40,0,-30,30,-35,-155,-180,-125,-80,-28
-13,28,41,-8,-27,34,-35,-155,-181,-130,-80,-29
-6,33,38,-14,-22,35,-35,-155,-180,-129,-80,-26
-9,26,35,-9,-23,31,-35,-149,-181,-125,-80,-23
-11,21,33,-5,-22,27,-33,-143,-178,-123,-80,-20
-14,16,30,-1,-22,23,-27,-136,-169,-120,-80,-18
-17,9,27,4,-22,18,-23,-130,-161,-117,-79,-13
-18,6,24,6,-22,15,-19,-122,-153,-115,-75,-23
-20,9,29,5,-24,19,-14,-114,-146,-112,-75,-36
-20,10,30,5,-25,20,-10,-106,-138,-106,-75,-35
-19,11,30,4,-25,20,-5,-98,-128,-102,-75,-35
-15,15,30,0,-23,22,-5,-91,-118,-98,-75,-35
-15,15,30,0,-23,22,-4,-85,-108,-93,-71,-34
-17,12,29,2,-23,20,0,-85,-105,-88,-70,-36
-24,-1,23,12,-23,11,0,-84,-105,-85,-70,-34
-29,-12,17,20,-23,3,-2,-80,-105,-85,-65,-37
-23,-11,12,17,-18,1,-6,-80,-105,-85,-65,-45
-16,-10,6,13,-11,-2,-5,-82,-105,-85,-66,-45
-9,-8,1,9,-5,-3,-9,-87,-110,-85,-70,-45
-9,-6,3,7,-6,-1,-10,-92,-118,-88,-73,-45
-10,-3,8,6,-8,2,-10,-95,-122,-93,-77,-45
-27,-16,11,22,-19,-3,-15,-100,-126,-96,-80,-44
-46,-32,14,38,-30,-8,-15,-100,-130,-105,-76,-40
-45,-26,19,36,-32,-3,-18,-101,-136,-110,-75,-40
-42,-23,19,33,-30,-2,-21,-105,-144,-110,-75,-38
-35,-21,14,27,-24,-3,-20,-105,-145,-110,-75,-34
-39,-14,25,26,-31,5,-20,-107,-144,-109,-74,-35
-51,-20,31,36,-41,5,-20,-111,-145,-118,-78,-40
-60,-31,29,46,-45,-1,-20,-109,-144,-122,-86,-41
-57,-27,30,42,-43,1,-20,-110,-146,-119,-85,-40
-51,-21,30,36,-40,4,-20,-110,-150,-120,-85,-40
-47,-17,30,32,-38,6,-20,-111,-153,-115,-85,-40
-36,-9,27,22,-31,8,-20,-114,-157,-114,-85,-40
-30,-6,24,18,-27,9,-20,-115,-160,-117,-84,-36
-30,-9,21,20,-26,6,-20,-118,-164,-120,-80,-35
-29,-10,18,19,-23,4,-20,-120,-165,-120,-80,-35
-28,-13,15,20,-21,1,-18,-120,-165,-120,-80,-30
-32,-16,16,24,-24,0,-14,-120,-165,-120,-80,-30
-32,-12,20,22,-26,3,-15,-120,-165,-120,-80,-29
-31,-8,22,19,-27,7,-15,-120,-164,-116,-76,-25
-30,-5,25,17,-27,10,-15,-120,-159,-115,-75,-25
-29,0,29,14,-29,14,-15,-119,-153,-115,-75,-25
-30,0,30,15,-30,15,-10,-116,-150,-110,-70,-25
-30,4,34,13,-32,19,-11,-113,-145,-110,-70,-25
-32,5,37,13,-35,21,-8,-110,-140,-109,-69,-20
-37,7,44,15,-41,25,-5,-108,-144,-103,-64,-12
-40,22,62,9,-51,42,-4,-104,-146,-98,-60,-4
-36,30,66,3,-51,47,-11,-107,-145,-91,-56,4
-13,64,77,-26,-46,70,-33,-114,-149,-93,-58,11
-2,84,86,-42,-44,85,-51,-125,-150,-96,-61,17
-21,69,90,-24,-56,79,-67,-151,-151,-94,-59,22
-16,83,99,-34,-58,91,-65,-166,-156,-100,-61,30
-5,71,76,-33,-41,73,-55,-164,-160,-100,-59,23
-36,22,58,7,-47,40,-49,-166,-164,-101,-63,2
-67,-9,58,38,-62,24,-40,-165,-169,-120,-79,-10
-75,-23,51,49,-63,14,-36,-165,-170,-130,-86,-20
-65,-33,32,49,-48,0,-31,-164,-177,-135,-91,-34
-58,-39,19,49,-39,-10,-29,-156,-178,-130,-90,-36
-55,-41,13,48,-34,-14,-24,-158,-178,-128,-89,-34
-47,-38,9,42,-28,-14,-21,-148,-173,-127,-92,-34
-50,-47,3,48,-26,-22,-22,-151,-176,-120,-87,-27
-52,-55,-3,54,-24,-29,-27,-140,-176,-125,-91,-34
-45,-55,-10,50,-17,-32,-32,-135,-170,-110,-73,-28
-14,-62,-48,38,18,-55,7,-47,-122,-127,-117,-80
8,-21,-29,7,19,-25,44,171,142,30,-33,-74
206,188,-18,-197,111,85,-109,224,580,695,591,368
474,578,104,-526,185,340,-373,-4,827,1584,1512,1060
330,604,274,-468,28,439,-436,-693,27,1192,1375,1138
35,94,59,-64,-12,76,-377,-1262,-1145,-351,100,490
-106,-242,-136,174,15,-189,-325,-1098,-1145,-817,-478,-58
-147,-226,-80,186,-33,-152,-215,-724,-675,-527,-389,-233
-122,-172,-50,147,-36,-111,-78,-328,-375,-363,-303,-193
-97,-129,-32,114,-32,-81,30,-51,-120,-162,-146,-116
-58,-93,-35,76,-11,-64,53,10,-49,-116,-107,-98
-47,-84,-37,66,-5,-60,49,44,-24,-88,-88,-85
-44,-85,-41,65,-1,-63,56,57,4,-75,-84,-87
-35,-85,-50,60,8,-67,54,69,27,-67,-80,-81
-36,-85,-49,60,7,-66,59,89,40,-50,-68,-77
-34,-85,-51,60,9,-67,62,108,53,-43,-68,-75
-39,-89,-50,64,6,-69,66,119,72,-28,-54,-70
-41,-90,-50,65,5,-70,71,141,94,-20,-45,-71
-39,-90,-51,65,6,-71,76,168,123,3,-31,-68
-34,-89,-55,62,11,-72,79,188,145,26,-23,-65
-30,-85,-54,58,12,-69,84,228,186,48,-13,-65
-14,-86,-71,50,29,-78,91,270,231,67,-2,-63
1,-82,-83,41,42,-82,96,316,278,92,11,-59
5,-80,-85,38,45,-82,105,386,343,135,30,-61
19,-80,-98,31,58,-89,115,468,423,183,50,-57
37,-85,-122,24,80,-103,126,566,518,233,76,-55
55,-93,-148,19,102,-120,139,673,619,301,112,-55
78,-90,-168,6,123,-129,156,791,739,378,155,-45
107,-90,-196,-8,151,-143,171,906,856,456,205,-34
131,-95,-226,-18,178,-160,171,1002,953,527,244,-19
161,-91,-252,-35,207,-171,164,1050,1018,590,287,3
178,-79,-257,-49,218,-168,160,1034,1029,625,321,18
179,-69,-249,-55,214,-159,152,977,993,606,327,28
189,-53,-242,-67,216,-148,126,832,877,559,307,33
167,-29,-196,-69,181,-112,89,626,689,460,258,29
134,5,-128,-69,131,-61,51,403,470,325,196,27
109,35,-74,-72,91,-20,16,188,255,194,124,24
81,51,-29,-66,55,11,-4,38,95,78,71,21
52,60,9,-56,22,34,-9,-58,-16,7,30,19
23,57,34,-40,-6,45,-14,-109,-83,-34,-7,16
17,53,37,-35,-11,45,-17,-129,-115,-71,-18,11
15,49,34,-33,-10,42,-23,-137,-130,-94,-24,9
11,46,35,-29,-13,41,-24,-134,-130,-95,-31,4
7,42,35,-25,-14,38,-20,-136,-130,-95,-37,0
5,40,35,-23,-15,37,-20,-135,-130,-100,-44,0
5,40,35,-23,-15,37,-20,-135,-130,-100,-49,0
5,40,35,-23,-15,37,-20,-131,-129,-99,-50,0
5,40,35,-23,-15,37,-20,-124,-124,-95,-51,0
4,39,35,-22,-16,37,-17,-118,-121,-96,-54,0
-2,33,35,-16,-18,33,-11,-111,-118,-93,-56,-1
-27,14,41,6,-35,27,-7,-105,-114,-90,-53,-4
-12,34,46,-11,-29,40,-2,-98,-111,-91,-50,-7
12,57,45,-35,-17,51,2,-93,-106,-87,-50,-9
-1,44,45,-22,-23,44,7,-88,-99,-83,-50,-13
-5,40,45,-18,-25,42,10,-81,-92,-79,-50,-15
-13,32,45,-10,-29,38,10,-76,-86,-76,-50,-18
-16,26,42,-5,-29,33,12,-71,-78,-71,-54,-21
-14,23,37,-4,-26,29,16,-70,-76,-71,-55,-27
-16,19,34,-2,-25,26,15,-70,-80,-76,-55,-40
-15,16,31,-1,-23,23,15,-70,-80,-74,-59,-40
-15,11,26,2,-21,18,15,-70,-80,-78,-61,-35
-17,9,26,3,-21,17,15,-71,-80,-80,-58,-34
-29,2,31,13,-30,16,15,-75,-80,-79,-55,-29
-37,-3,34,19,-35,16,15,-78,-83,-84,-55,-31
-28,4,32,12,-30,17,14,-82,-86,-85,-53,-35
-16,13,29,2,-23,20,9,-85,-88,-85,-49,-35
-14,12,26,1,-20,19,4,-89,-93,-84,-50,-35
-14,9,23,2,-18,16,0,-103,-108,-88,-53,-35
-10,10,20,0,-15,15,-5,-113,-116,-100,-58,-35
-10,10,20,0,-15,15,-10,-119,-120,-100,-62,-39
-10,11,20,0,-15,15,-14,-123,-124,-100,-65,-41
-11,8,20,1,-16,14,-15,-126,-129,-100,-68,-40
-15,5,20,5,-18,12,-15,-129,-136,-99,-70,-40
-15,5,20,5,-18,12,-15,-132,-141,-102,-73,-39
-15,5,20,5,-18,12,-14,-134,-145,-105,-75,-42
-19,5,24,7,-22,14,-16,-137,-144,-105,-75,-45
-20,5,25,7,-23,15,-20,-140,-147,-105,-75,-45
-16,9,25,3,-21,16,-20,-141,-150,-105,-75,-45
-14,10,25,1,-20,17,-20,-144,-150,-105,-75,-45
-17,10,26,3,-21,18,-20,-145,-150,-109,-75,-45
-20,10,30,5,-25,20,-20,-145,-150,-110,-75,-41
-20,10,30,5,-25,20,-17,-145,-150,-110,-75,-40
-19,11,30,4,-24,20,-14,-145,-150,-110,-75,-40
-14,16,30,-1,-23,23,-15,-145,-150,-110,-75,-35
-9,21,29,-6,-19,25,-15,-145,-148,-109,-72,-35
-10,25,34,-8,-22,29,-16,-144,-145,-105,-67,-34
-8,30,38,-11,-23,34,-13,-139,-142,-105,-64,-29
-10,33,43,-11,-27,38,-10,-133,-140,-102,-61,-26
-7,37,44,-15,-26,40,-10,-130,-136,-99,-56,-23
-1,38,39,-18,-20,38,-10,-125,-135,-101,-54,-18
-10,43,54,-17,-32,48,-10,-120,-138,-96,-50,-16
-12,52,64,-20,-39,58,-9,-123,-142,-90,-47,-11
-13,66,79,-27,-46,72,-17,-125,-143,-83,-42,-5
1,94,93,-47,-46,93,-38,-126,-147,-79,-39,3
9,96,87,-53,-40,91,-62,-148,-149,-74,-34,9
-4,93,97,-45,-51,95,-68,-178,-151,-71,-32,16
3,97,94,-50,-46,95,-62,-180,-155,-63,-29,19
-7,63,70,-28,-39,66,-58,-172,-154,-79,-33,3
-28,19,47,4,-38,33,-53,-171,-172,-119,-72,-16
-27,7,34,9,-31,21,-49,-164,-181,-131,-93,-29
-37,-1,36,19,-37,17,-44,-162,-179,-128,-87,-39
-39,-6,33,22,-36,13,-41,-155,-180,-133,-94,-41
-42,-11,31,26,-36,10,-38,-153,-179,-133,-92,-39
-47,-18,29,33,-38,5,-36,-149,-181,-138,-98,-41
-50,-21,29,35,-40,4,-32,-145,-173,-130,-90,-38
-51,-30,21,40,-36,-5,-30,-143,-173,-130,-92,-41
-46,-28,19,37,-32,-4,-27,-136,-163,-122,-89,-39
-55,-42,13,48,-34,-15,-12,-123,-164,-119,-90,-40
-48,-39,9,44,-28,-15,47,61,-36,-86,-116,-97
47,51,4,-49,21,27,21,256,327,247,166,62
380,366,-14,-373,197,176,-229,251,808,1115,1020,695
501,678,176,-590,162,427,-403,-212,643,1583,1616,1212
181,399,219,-290,-19,309,-361,-1022,-577,415,770,871
-54,-99,-45,77,-5,-72,-293,-1214,-1237,-745,-332,142
-170,-247,-77,208,-46,-161,-228,-891,-877,-668,-474,-212
-164,-191,-27,178,-68,-109,-137,-555,-532,-455,-376,-233
-81,-116,-35,99,-23,-76,-26,-190,-246,-264,-236,-166
-65,-83,-18,74,-23,-50,38,-11,-74,-132,-136,-118
-55,-74,-19,65,-17,-47,58,30,-43,-109,-124,-86
-64,-70,-6,67,-29,-38,62,61,-14,-72,-95,-78
-61,-68,-7,65,-27,-37,58,71,-1,-73,-99,-82
-49,-63,-14,56,-17,-38,61,83,25,-52,-84,-75
-40,-61,-21,50,-10,-40,59,99,39,-52,-83,-76
-35,-63,-28,49,-3,-45,62,114,57,-43,-74,-74
-36,-72,-36,54,0,-53,66,130,80,-28,-61,-71
-31,-74,-43,53,6,-58,71,155,102,-8,-51,-70
-21,-70,-49,45,14,-59,74,184,131,14,-43,-70
-20,-70,-50,45,15,-60,79,209,152,23,-38,-70
-17,-67,-51,42,17,-59,86,250,197,45,-17,-70
2,-65,-67,32,35,-66,92,292,246,75,1,-67
15,-65,-80,25,48,-72,94,341,291,109,16,-59
12,-69,-81,28,47,-75,103,410,357,148,37,-52
25,-70,-95,23,60,-82,115,499,442,197,64,-43
56,-71,-127,8,92,-99,128,609,552,266,103,-36
78,-75,-153,-1,116,-114,140,724,656,331,141,-28
96,-75,-171,-10,134,-123,146,833,765,405,183,-20
115,-75,-190,-20,153,-132,155,933,872,495,236,-9
153,-75,-228,-39,191,-151,156,1016,966,565,283,14
180,-76,-255,-51,218,-166,144,1034,1014,611,321,26
189,-67,-256,-60,223,-162,136,1010,1002,628,325,34
198,-49,-247,-74,223,-148,123,928,948,608,318,45
195,-22,-217,-86,206,-119,99,753,801,536,306,40
171,3,-168,-86,169,-82,61,534,579,408,243,35
109,17,-92,-63,100,-37,21,299,344,262,170,30
58,27,-31,-42,44,-2,5,112,155,131,102,23
25,25,0,-25,12,12,0,-7,24,32,36,19
-2,20,22,-10,-12,21,-8,-77,-65,-25,0,12
-17,18,35,-1,-26,26,-16,-117,-113,-66,-22,8
-32,13,45,9,-39,29,-23,-141,-143,-92,-35,2
-36,9,45,13,-40,27,-22,-143,-162,-97,-49,-4
-28,17,45,5,-37,31,-19,-140,-166,-107,-63,-9
-22,23,45,-1,-34,34,-16,-141,-165,-113,-65,-14
-27,18,45,4,-36,31,-13,-138,-163,-116,-65,-15
-28,17,45,5,-37,30,-11,-135,-160,-120,-65,-15
-28,13,41,7,-35,27,-9,-136,-161,-120,-65,-20
-28,10,38,9,-33,24,-5,-131,-156,-120,-65,-20
-27,9,36,8,-31,22,-5,-124,-150,-120,-70,-21
-31,1,32,15,-32,16,-5,-118,-146,-120,-70,-26
-36,-6,30,21,-33,12,-5,-111,-139,-121,-71,-24
-40,-13,28,26,-34,7,-5,-104,-134,-118,-75,-28
-46,-21,25,33,-35,2,-2,-99,-129,-111,-75,-30
-53,-27,25,40,-39,-1,1,-94,-123,-106,-72,-30
-52,-27,25,39,-38,-1,4,-90,-116,-101,-70,-34
-49,-24,25,36,-36,1,7,-85,-109,-95,-70,-35
-47,-21,25,33,-36,1,10,-80,-103,-90,-67,-35
-43,-18,25,30,-34,3,9,-84,-96,-90,-64,-35
-41,-16,25,28,-32,5,4,-85,-95,-90,-66,-35
-38,-14,25,25,-31,6,6,-85,-94,-90,-69,-35
-35,-10,25,22,-30,7,2,-90,-90,-90,-70,-35
-35,-10,25,22,-30,7,0,-90,-89,-90,-70,-35
-33,-10,23,21,-28,6,0,-91,-91,-92,-70,-35
-28,-10,18,19,-23,4,-4,-95,-99,-98,-69,-35
-25,-10,15,17,-20,2,-5,-97,-110,-101,-72,-35
-18,-7,12,12,-15,2,-5,-100,-120,-106,-76,-39
-11,-4,7,8,-9,1,-5,-103,-128,-109,-75,-40
-11,-6,5,8,-7,0,-5,-111,-133,-112,-75,-40
-15,-4,11,9,-13,4,-6,-115,-139,-115,-75,-40
-20,0,21,10,-21,10,-10,-114,-146,-117,-75,-41
-26,0,25,13,-25,12,-9,-117,-150,-120,-80,-38
-23,2,25,10,-24,13,-13,-120,-150,-120,-80,-35
-19,6,25,6,-23,15,-15,-120,-150,-120,-80,-35
-21,5,25,7,-23,15,-15,-124,-150,-120,-80,-35
-19,5,25,6,-23,15,-19,-127,-150,-120,-81,-35
-21,5,26,8,-24,15,-20,-132,-150,-120,-77,-35
-24,6,29,9,-27,17,-20,-143,-150,-120,-75,-43
-26,4,30,11,-29,17,-20,-146,-150,-125,-75,-46
-23,6,30,8,-27,18,-20,-144,-150,-124,-72,-45
-29,1,30,14,-30,15,-19,-145,-150,-127,-69,-43
-42,-10,32,25,-36,11,-15,-144,-149,-130,-70,-40
-40,-2,38,21,-39,18,-13,-146,-145,-131,-80,-40
-35,7,41,14,-38,24,-10,-140,-146,-124,-80,-37
-26,19,45,3,-36,32,-7,-135,-143,-102,-73,-34
-16,34,50,-9,-33,42,-4,-130,-140,-90,-69,-31
-14,46,60,-16,-38,53,-12,-124,-140,-90,-62,-28
0,79,78,-40,-39,78,-30,-118,-143,-90,-62,-5
30,101,71,-66,-21,85,-43,-116,-145,-90,-66,8
18,107,89,-63,-35,98,-50,-148,-145,-90,-68,-1
5,118,113,-62,-54,115,-50,-163,-152,-88,-71,-5
17,92,76,-55,-30,84,-46,-158,-152,-84,-74,-12
-10,49,58,-20,-35,53,-44,-162,-165,-111,-76,-15
-42,13,56,14,-49,34,-40,-159,-180,-136,-90,-25
-62,-12,50,37,-56,19,-40,-161,-180,-137,-96,-34
-69,-23,46,46,-57,11,-34,-156,-180,-144,-94,-42
-66,-25,42,46,-54,8,-27,-152,-179,-143,-99,-53
-71,-32,39,51,-55,4,-21,-150,-181,-140,-99,-51
-74,-34,40,54,-57,3,-14,-143,-177,-135,-101,-51
-81,-40,40,61,-60,0,-9,-145,-176,-132,-102,-49
-73,-34,39,54,-56,2,-4,-133,-166,-130,-109,-52
-56,-13,42,35,-49,14,-21,-141,-172,-121,-106,-46
-77,-58,20,67,-48,-19,33,-39,-102,-112,-109,-85
-38,-32,6,35,-22,-13,81,177,165,78,15,-51
240,188,-52,-214,146,68,-87,342,671,810,694,455
473,581,109,-527,182,345,-288,145,898,1672,1613,1137
275,634,359,-455,-42,496,-310,-638,-97,983,1236,1095
-45,105,149,-30,-97,127,-219,-1101,-1150,-530,-85,373
-188,-236,-49,212,-69,-142,-146,-925,-1034,-806,-537,-165
-210,-211,-1,211,-105,-106,-139,-704,-697,-573,-449,-276
-155,-134,21,144,-88,-56,-77,-370,-394,-372,-317,-195
-119,-91,27,105,-73,-32,31,-64,-115,-160,-146,-109
-91,-81,10,85,-50,-35,48,15,-60,-126,-118,-85
-60,-60,0,60,-30,-29,43,37,-32,-81,-86,-72
-52,-61,-10,57,-21,-35,47,48,-21,-71,-82,-69
-37,-56,-19,47,-9,-37,44,64,-3,-51,-73,-65
-29,-54,-25,42,-2,-40,46,84,18,-38,-62,-60
-19,-51,-31,35,6,-41,48,95,35,-29,-58,-56
-18,-50,-32,34,7,-41,57,104,51,-19,-46,-54
-32,-69,-37,51,3,-53,61,122,76,-11,-41,-55
-31,-70,-40,50,5,-55,66,147,108,22,-32,-55
-21,-65,-44,44,12,-54,69,174,137,37,-24,-55
-12,-63,-51,38,20,-57,74,206,175,53,-11,-55
1,-58,-59,29,30,-59,75,246,209,79,1,-54
13,-55,-68,21,41,-61,76,294,262,114,22,-48
15,-59,-74,22,45,-66,90,346,324,155,45,-43
28,-66,-94,19,61,-80,97,421,399,203,72,-37
54,-81,-135,14,95,-108,102,511,497,271,107,-32
67,-96,-163,15,116,-130,112,613,610,348,156,-19
84,-99,-183,8,134,-140,126,721,735,431,210,3
105,-105,-210,0,158,-157,133,819,853,528,269,20
154,-101,-256,-26,205,-178,125,900,955,612,324,32
188,-87,-274,-50,231,-180,116,939,1012,671,368,56
187,-73,-260,-57,224,-166,107,941,1016,700,401,82
194,-61,-254,-66,224,-157,99,884,964,691,396,92
189,-43,-232,-73,211,-137,81,746,840,629,372,87
163,-11,-174,-76,168,-92,48,555,641,498,306,78
105,9,-97,-57,101,-44,16,339,408,334,203,74
62,17,-45,-39,53,-14,-4,152,198,185,122,58
34,28,-6,-31,20,11,-9,17,37,63,51,32
9,37,28,-23,-10,33,-14,-65,-68,-21,0,17
-3,41,43,-19,-23,41,-17,-100,-122,-70,-33,7
-8,40,48,-16,-28,43,-23,-123,-143,-97,-56,-6
-8,44,52,-18,-30,47,-24,-133,-160,-104,-65,-13
-9,45,55,-19,-33,50,-20,-135,-171,-116,-72,-17
-13,45,57,-16,-36,51,-18,-131,-172,-126,-75,-20
-22,38,60,-8,-41,49,-15,-130,-168,-125,-79,-23
-35,29,64,3,-49,46,-12,-129,-164,-125,-84,-27
-45,21,66,12,-56,43,-9,-124,-161,-125,-85,-30
-50,12,61,19,-56,37,-15,-126,-156,-125,-85,-30
-46,10,56,18,-51,33,-22,-123,-154,-123,-85,-30
-41,10,52,15,-46,31,-30,-116,-145,-118,-85,-30
-41,6,48,17,-45,27,-33,-109,-135,-113,-84,-30
-38,5,43,16,-41,23,-21,-103,-125,-109,-79,-34
-33,5,39,14,-36,21,-6,-96,-116,-104,-74,-35
-40,-6,34,23,-37,14,3,-89,-112,-100,-70,-35
-53,-24,28,38,-40,2,6,-84,-106,-105,-65,-35
-58,-33,25,45,-41,-4,9,-79,-103,-105,-60,-35
-47,-27,19,37,-33,-4,12,-73,-97,-105,-63,-35
-39,-23,16,30,-27,-3,15,-67,-96,-105,-68,-35
-29,-19,10,23,-19,-4,14,-67,-100,-104,-71,-35
-27,-14,13,21,-20,0,9,-74,-100,-108,-75,-35
-39,-9,29,24,-34,10,6,-80,-105,-110,-74,-35
-36,-6,30,21,-33,12,3,-85,-105,-110,-78,-35
-34,-5,29,19,-31,12,-2,-88,-108,-110,-80,-31
-36,-5,31,21,-33,12,-5,-92,-116,-110,-80,-30
-34,-5,29,20,-31,11,-5,-103,-124,-110,-83,-30
-37,-5,32,21,-34,13,-5,-110,-138,-117,-88,-26
-39,-4,35,21,-37,15,-5,-112,-145,-128,-89,-24
-24,12,35,5,-30,23,-5,-117,-145,-130,-85,-27
-17,18,35,-1,-26,26,-5,-120,-145,-133,-85,-30
-27,8,35,9,-31,21,-5,-124,-145,-136,-85,-33
-32,3,35,14,-33,19,-5,-125,-144,-139,-85,-35
-40,-5,35,22,-37,15,-5,-125,-146,-140,-85,-39
-44,-8,35,26,-39,13,-5,-125,-150,-135,-88,-40
-40,-5,35,22,-37,15,-5,-125,-150,-135,-91,-40
-40,-5,35,22,-37,15,-5,-125,-150,-134,-94,-40
-40,-5,35,22,-37,15,-8,-125,-150,-130,-97,-40
-41,-5,36,23,-38,15,-11,-124,-150,-130,-100,-39
-48,-6,43,27,-45,18,-14,-120,-146,-128,-99,-33
-47,2,49,22,-48,25,-17,-115,-139,-124,-93,-30
-40,23,63,9,-52,42,-21,-111,-133,-121,-87,-25
-42,31,73,5,-57,52,-25,-107,-126,-118,-82,-21
-44,33,77,6,-61,54,-30,-100,-121,-115,-76,-16
-29,76,105,-24,-67,90,-34,-101,-125,-115,-69,-10
-24,107,131,-42,-77,119,-40,-110,-124,-115,-62,-5
-46,93,139,-24,-93,116,-42,-135,-134,-114,-56,2
-43,91,134,-24,-88,112,-39,-160,-142,-116,-49,4
-30,75,106,-23,-68,90,-36,-159,-137,-113,-44,-2
-37,35,72,1,-55,53,-33,-162,-164,-126,-75,-16
-32,11,43,11,-38,27,-30,-166,-191,-155,-111,-43
-32,4,36,14,-34,19,-28,-171,-195,-157,-112,-52
-37,-8,29,22,-33,10,-25,-175,-202,-164,-119,-55
-40,-17,23,29,-31,3,-22,-171,-198,-163,-118,-60
-47,-31,15,39,-31,-8,-20,-168,-202,-160,-114,-56
-52,-42,10,47,-31,-16,-16,-162,-199,-159,-117,-56
-54,-50,5,52,-29,-22,-16,-163,-201,-152,-110,-51
-44,-51,-7,47,-18,-29,-7,-152,-200,-156,-114,-52
-43,-47,-5,45,-19,-26,5,-161,-195,-143,-102,-46
-23,-59,-36,41,6,-47,31,-61,-136,-146,-135,-93
30,-8,-38,-11,34,-23,61,161,127,25,-39,-79
228,185,-43,-206,135,71,-91,271,602,729,621,388
482,590,108,-536,187,349,-325,86,875,1648,1591,1099
332,667,335,-500,-1,501,-364,-633,-6,1141,1360,1141
11,141,129,-76,-59,135,-289,-1172,-1146,-439,23,453
-113,-208,-96,161,-8,-152,-232,-1004,-1098,-836,-530,-109
-156,-212,-56,185,-50,-134,-189,-736,-719,-580,-457,-266
-94,-140,-46,117,-23,-93,-102,-407,-421,-407,-338,-205
-43,-84,-41,64,-1,-62,-9,-92,-134,-170,-168,-128
-47,-85,-38,67,-5,-61,28,-11,-66,-128,-139,-107
-40,-75,-35,58,-2,-55,43,17,-31,-100,-113,-94
-46,-75,-29,61,-8,-52,45,31,-16,-87,-106,-93
-37,-71,-33,54,-2,-52,49,47,1,-75,-90,-85
-30,-66,-36,48,3,-50,54,68,19,-56,-76,-80
-24,-65,-41,45,9,-53,55,85,36,-48,-73,-75
-25,-64,-39,45,7,-51,56,102,57,-28,-64,-70
-25,-66,-41,45,9,-53,59,115,81,-16,-62,-70
-25,-65,-39,45,7,-51,60,133,113,4,-48,-70
-22,-65,-43,44,11,-54,61,154,136,21,-35,-70
-5,-65,-60,35,28,-63,65,186,172,43,-23,-70
2,-68,-70,34,36,-69,69,225,214,69,-12,-67
5,-71,-76,33,41,-74,76,279,266,102,6,-59
15,-74,-89,30,53,-82,85,341,331,143,27,-52
29,-77,-106,24,68,-91,95,417,412,195,59,-43
38,-80,-118,21,78,-99,108,517,511,261,96,-37
62,-85,-147,12,105,-116,117,625,621,344,145,-23
101,-81,-182,-10,142,-131,128,729,741,432,196,-6
128,-75,-202,-26,165,-138,132,831,858,518,251,6
163,-70,-233,-46,199,-152,122,924,965,606,309,28
191,-64,-254,-63,223,-159,117,963,1029,673,357,44
196,-59,-255,-68,226,-157,107,957,1032,696,380,59
202,-53,-255,-74,229,-154,101,915,994,681,367,68
185,-43,-228,-71,207,-135,92,784,874,628,354,64
156,-22,-178,-67,167,-99,55,578,668,503,304,62
109,1,-108,-54,109,-54,17,360,431,341,216,58
47,17,-29,-32,37,-6,-7,175,213,196,135,56
14,22,8,-18,3,15,-25,35,49,74,61,44
2,29,27,-15,-13,28,-30,-54,-58,-9,14,17
-7,46,52,-20,-30,49,-30,-98,-115,-63,-20,7
-26,29,55,-2,-41,42,-30,-123,-140,-92,-47,3
-38,18,56,10,-47,36,-30,-130,-150,-102,-61,-3
-39,22,61,9,-50,41,-30,-131,-159,-113,-68,-8
-40,19,59,11,-50,39,-29,-135,-161,-120,-68,-14
-35,21,56,7,-45,38,-25,-137,-164,-120,-65,-18
-35,20,55,7,-45,37,-23,-141,-167,-122,-65,-21
-39,16,55,11,-47,36,-20,-138,-170,-125,-65,-24
-45,10,55,17,-50,32,-17,-131,-169,-125,-65,-27
-50,5,55,22,-53,30,-15,-124,-161,-123,-66,-30
-53,-1,53,27,-53,26,-12,-118,-153,-118,-69,-30
-56,-6,50,31,-53,21,-7,-111,-145,-113,-71,-30
-58,-11,47,34,-52,18,-4,-103,-138,-109,-70,-30
-60,-15,44,37,-51,14,-1,-93,-131,-104,-70,-30
-55,-15,41,35,-48,12,4,-83,-125,-99,-70,-30
-55,-15,40,35,-47,12,5,-76,-120,-96,-68,-30
-60,-15,45,37,-52,15,5,-69,-115,-93,-65,-26
-60,-15,45,37,-52,15,5,-63,-108,-90,-62,-25
-62,-15,46,38,-53,15,5,-55,-106,-87,-59,-25
-65,-15,50,40,-57,17,5,-50,-110,-85,-56,-26
-65,-15,50,40,-57,17,5,-55,-109,-85,-55,-24
-62,-15,48,38,-54,16,5,-60,-113,-85,-60,-29
-60,-15,45,37,-52,15,5,-63,-115,-85,-60,-36
-59,-14,45,36,-52,15,5,-68,-115,-85,-60,-35
-50,-9,41,30,-46,16,5,-72,-118,-85,-60,-35
-45,-6,39,26,-42,16,6,-77,-121,-85,-59,-30
-43,-2,41,22,-42,19,4,-80,-124,-92,-62,-30
-43,1,44,21,-44,22,0,-86,-127,-103,-65,-29
-40,6,46,16,-44,26,0,-92,-138,-105,-65,-25
-42,0,43,21,-43,21,0,-98,-141,-105,-65,-25
-54,-4,50,29,-51,22,0,-100,-140,-105,-65,-25
-36,19,56,8,-46,37,0,-100,-145,-105,-65,-25
-27,23,50,2,-39,37,4,-100,-144,-106,-70,-25
-33,15,48,9,-41,31,5,-100,-146,-109,-70,-28
-31,12,43,9,-38,27,5,-110,-150,-110,-71,-31
-36,4,40,16,-38,22,9,-118,-152,-109,-75,-29
-36,1,36,17,-36,18,11,-121,-155,-112,-75,-31
-35,0,35,17,-35,17,9,-126,-159,-119,-75,-29
-35,0,35,17,-35,17,4,-130,-160,-120,-75,-32
-36,-1,35,18,-35,17,-2,-139,-160,-120,-75,-35
-34,1,35,16,-34,17,-5,-137,-164,-120,-75,-35
-38,-2,36,19,-37,17,-10,-135,-165,-120,-75,-35
-33,7,40,13,-37,24,-15,-133,-163,-120,-75,-35
-18,21,40,-2,-29,30,-12,-144,-158,-118,-71,-35
-29,16,46,6,-38,31,-9,-159,-152,-113,-66,-31
-34,9,43,12,-39,26,-6,-148,-148,-110,-64,-30
-23,28,51,-3,-37,39,-4,-135,-141,-107,-59,-28
-8,52,60,-22,-34,56,1,-126,-136,-103,-57,-25
-11,54,65,-22,-39,59,-2,-124,-138,-100,-52,-25
-7,80,87,-37,-47,84,-25,-120,-143,-104,-46,-15
12,103,90,-57,-39,96,-46,-120,-148,-105,-41,-5
13,109,96,-61,-42,102,-58,-149,-148,-106,-36,6
9,108,99,-59,-45,103,-57,-167,-145,-111,-30,6
7,84,76,-46,-35,80,-46,-164,-138,-109,-25,-6
-11,50,61,-19,-36,55,-39,-166,-155,-116,-53,-14
-33,13,46,10,-40,29,-30,-165,-179,-138,-84,-26
-32,4,36,14,-35,20,-30,-165,-186,-144,-91,-40
-32,-2,29,17,-30,13,-29,-164,-199,-146,-101,-46
-29,-4,25,16,-27,11,-25,-158,-193,-146,-99,-44
-31,-12,20,21,-25,4,-25,-159,-189,-150,-100,-47
-25,-13,12,19,-18,0,-23,-151,-179,-151,-101,-51
-36,-23,13,29,-24,-4,-21,-155,-175,-145,-97,-48
-52,-40,12,46,-32,-14,-16,-145,-167,-146,-103,-49
-49,-28,21,38,-35,-4,-19,-136,-160,-128,-86,-35
-54,-66,-13,60,-20,-39,20,-35,-110,-143,-126,-79
10,-20,-30,5,20,-25,67,184,155,23,-42,-75
243,211,-32,-227,138,89,-103,245,598,700,587,366
507,604,98,-556,204,351,-361,31,859,1613,1534,1071
369,654,285,-512,42,469,-397,-664,52,1219,1397,1162
62,128,66,-95,-2,97,-339,-1239,-1119,-353,99,499
-73,-208,-135,141,31,-171,-296,-1080,-1122,-823,-503,-73
-136,-205,-69,171,-34,-136,-207,-736,-678,-536,-418,-237
-68,-135,-66,102,-1,-100,-88,-371,-380,-374,-317,-199
-20,-81,-60,51,20,-70,1,-81,-114,-173,-163,-125
-23,-80,-57,52,17,-68,39,-5,-42,-122,-126,-97
-13,-68,-55,41,21,-61,51,25,-25,-87,-105,-88
-13,-61,-48,37,18,-54,50,37,-10,-76,-100,-91
-1,-57,-55,30,27,-56,54,58,7,-67,-93,-86
-5,-59,-54,33,24,-56,55,71,24,-47,-81,-85
-8,-63,-56,36,24,-59,58,83,42,-40,-78,-85
-9,-64,-56,37,24,-60,61,103,62,-21,-64,-80
-2,-62,-60,32,29,-61,61,120,80,-12,-61,-79
5,-58,-63,27,34,-60,66,150,111,8,-50,-75
5,-62,-67,29,36,-64,69,178,138,23,-37,-72
12,-57,-70,22,41,-64,74,210,172,43,-23,-70
7,-67,-74,30,41,-70,81,252,214,70,-8,-68
1,-86,-87,43,44,-86,90,303,267,95,4,-63
22,-85,-107,32,65,-96,95,368,324,132,21,-59
38,-85,-123,24,81,-104,101,446,398,181,45,-54
51,-85,-137,17,95,-111,118,546,503,238,77,-50
74,-85,-159,6,117,-122,130,656,613,312,115,-41
104,-83,-187,-11,146,-135,139,767,728,389,155,-28
142,-76,-217,-33,180,-146,153,880,846,465,205,-17
175,-69,-244,-53,210,-156,157,981,954,542,253,-8
205,-63,-268,-71,237,-166,149,1033,1016,607,295,7
217,-55,-272,-81,245,-163,145,1034,1030,638,325,28
212,-52,-264,-80,238,-158,137,971,995,629,324,42
190,-52,-241,-69,216,-146,111,821,868,571,299,43
164,-30,-194,-67,179,-112,70,618,677,471,254,37
138,0,-139,-69,139,-69,31,388,451,335,189,32
91,21,-70,-56,81,-24,-4,177,226,186,114,29
53,26,-27,-39,40,0,-24,35,60,71,54,24
24,24,1,-24,11,12,-32,-57,-47,-1,7,20
2,25,23,-14,-11,24,-34,-115,-113,-57,-17,15
-11,25,36,-7,-24,30,-30,-133,-144,-89,-27,7
-26,25,50,0,-38,37,-30,-130,-155,-92,-48,1
-27,20,48,3,-38,34,-28,-130,-157,-96,-60,-6
-24,20,44,1,-34,31,-24,-131,-154,-103,-60,-12
-21,20,41,0,-31,31,-26,-130,-155,-109,-60,-18
-16,20,36,-2,-26,27,-21,-131,-155,-107,-60,-20
-15,20,35,-3,-25,27,-20,-130,-155,-104,-60,-20
-17,18,35,-1,-26,26,-20,-130,-154,-106,-63,-20
-21,15,35,2,-28,25,-15,-142,-148,-105,-65,-20
-20,15,35,2,-28,25,-15,-141,-141,-106,-65,-20
-20,15,35,2,-28,25,-14,-132,-135,-104,-65,-25
-21,14,35,3,-29,25,-10,-127,-128,-99,-65,-25
-16,16,32,0,-24,23,-8,-119,-122,-96,-64,-26
-20,8,28,6,-24,18,-5,-113,-115,-93,-61,-30
-19,5,24,7,-22,14,-1,-106,-105,-88,-58,-30
-30,-9,21,20,-26,6,0,-99,-95,-85,-55,-27
-51,-35,16,42,-33,-9,4,-92,-89,-81,-53,-25
-48,-32,16,40,-32,-8,5,-86,-84,-80,-49,-25
-51,-25,25,38,-38,0,5,-81,-79,-80,-52,-25
-49,-22,27,35,-37,2,9,-76,-75,-76,-56,-25
-38,-14,24,26,-31,5,11,-69,-70,-74,-55,-26
-36,-11,25,23,-31,7,9,-66,-74,-77,-55,-29
-45,-20,25,32,-34,2,5,-68,-85,-80,-54,-30
-47,-22,25,33,-36,1,5,-74,-91,-82,-56,-30
-40,-14,26,27,-32,6,3,-86,-96,-85,-59,-30
-46,-11,35,28,-40,12,-1,-92,-99,-88,-62,-30
-47,-7,41,27,-44,17,1,-97,-105,-91,-65,-30
-40,0,39,20,-39,19,-4,-108,-114,-94,-67,-30
-46,-3,43,24,-44,20,-5,-115,-127,-97,-71,-30
-61,-16,45,38,-53,14,-5,-119,-140,-100,-67,-30
-61,-16,45,38,-53,14,-10,-124,-140,-100,-65,-30
-52,-11,41,31,-47,15,-10,-123,-140,-100,-65,-30
-49,-9,40,29,-44,15,-11,-119,-140,-100,-65,-30
-44,-4,40,24,-42,17,-15,-120,-139,-100,-65,-30
-35,0,35,17,-35,17,-15,-120,-141,-103,-65,-30
-38,-3,35,20,-36,16,-17,-120,-146,-106,-69,-30
-51,-16,35,33,-43,10,-20,-120,-151,-104,-70,-30
-74,-27,47,50,-61,10,-20,-124,-154,-106,-70,-30
-94,-26,68,59,-80,21,-17,-125,-152,-110,-70,-30
-87,-20,67,53,-77,23,-12,-125,-149,-110,-69,-30
-74,-15,58,44,-65,21,-9,-125,-150,-112,-73,-30
-65,-12,53,38,-59,21,-6,-125,-149,-115,-75,-30
-51,-6,45,28,-48,19,-1,-125,-151,-115,-75,-29
-44,-3,41,23,-42,19,-1,-125,-148,-112,-79,-26
-42,3,44,19,-44,23,-5,-125,-145,-107,-80,-24
-37,8,45,14,-41,26,-7,-125,-142,-104,-80,-20
-38,11,49,13,-43,30,-11,-125,-140,-101,-74,-18
-32,17,49,8,-41,33,-13,-124,-137,-96,-69,-13
-38,18,56,10,-47,37,-16,-121,-134,-96,-64,-20
-40,31,71,4,-56,51,-9,-119,-139,-101,-58,-30
-22,49,71,-14,-47,60,-3,-121,-140,-100,-53,-14
-11,73,84,-31,-48,78,-26,-118,-139,-100,-47,-3
-9,94,102,-42,-56,98,-54,-129,-140,-99,-44,1
-12,86,97,-37,-55,91,-61,-162,-139,-101,-45,7
-14,82,96,-35,-55,89,-58,-171,-142,-95,-45,13
-10,78,88,-34,-49,83,-54,-169,-145,-93,-45,12
-21,34,55,-7,-38,45,-51,-171,-168,-121,-71,-8
-42,-3,39,23,-40,18,-46,-169,-187,-142,-92,-27
-59,-19,40,39,-49,10,-45,-171,-184,-143,-89,-40
-67,-33,34,50,-51,0,-45,-166,-186,-149,-97,-53
-60,-27,34,43,-47,3,-45,-164,-183,-149,-91,-55
-53,-24,29,39,-41,2,-45,-167,-187,-148,-90,-54
-43,-15,28,29,-36,7,-46,-157,-181,-144,-90,-56
-39,-14,25,26,-31,5,-45,-164,-178,-145,-89,-53
-23,-2,21,13,-22,9,-42,-152,-169,-147,-93,-58
-46,-24,22,35,-33,-2,-32,-145,-166,-141,-84,-55
-74,-68,6,71,-39,-31,29,-30,-103,-150,-116,-93
-2,-5,-2,4,0,-3,63,197,164,42,-5,-52
255,211,-44,-233,149,83,-117,284,628,735,637,418
516,591,74,-554,221,332,-358,48,855,1573,1543,1086
347,596,249,-472,48,422,-387,-711,-57,1014,1265,1098
27,80,53,-54,-13,67,-312,-1225,-1152,-468,-14,400
-128,-238,-110,184,-9,-174,-246,-1010,-1058,-790,-499,-135
-176,-222,-45,199,-65,-133,-177,-696,-647,-538,-413,-263
-129,-153,-23,141,-53,-88,-74,-342,-364,-374,-305,-209
-97,-109,-12,103,-42,-61,23,-64,-112,-166,-152,-124
-69,-90,-22,80,-23,-56,55,0,-43,-128,-113,-111
-52,-76,-24,64,-13,-50,66,30,-16,-101,-89,-100
-47,-66,-19,57,-14,-42,64,51,-3,-83,-90,-89
-44,-65,-21,54,-11,-43,67,71,11,-68,-81,-85
-48,-64,-17,56,-15,-40,71,83,27,-59,-72,-84
-45,-61,-15,54,-15,-38,69,94,46,-53,-67,-86
-45,-59,-14,53,-16,-36,74,115,68,-32,-55,-84
-36,-62,-26,49,-5,-43,76,136,89,-19,-51,-86
-33,-65,-32,49,0,-48,79,157,118,0,-41,-83
-39,-68,-29,53,-5,-48,82,187,148,18,-34,-80
-34,-70,-36,53,1,-53,84,224,178,40,-22,-77
-9,-66,-57,38,24,-61,92,259,221,63,-9,-75
4,-65,-69,30,37,-67,104,309,277,97,12,-71
15,-66,-80,26,48,-73,107,376,336,131,31,-70
37,-65,-102,14,70,-83,113,462,409,174,51,-66
52,-65,-118,7,86,-91,129,552,507,240,86,-55
75,-65,-140,-4,108,-102,141,651,617,307,124,-45
97,-76,-173,-11,135,-124,146,764,728,384,167,-28
123,-86,-209,-18,167,-147,155,868,834,471,220,-8
153,-78,-230,-38,192,-154,156,953,939,551,273,13
183,-67,-251,-58,217,-159,144,994,1008,619,319,28
208,-57,-265,-75,237,-161,136,996,1020,641,347,39
206,-48,-253,-79,230,-150,123,947,984,633,348,51
186,-36,-223,-74,204,-129,104,801,864,586,323,48
152,-21,-173,-65,163,-97,75,600,669,473,273,42
104,-9,-112,-47,108,-60,35,385,446,337,209,38
67,13,-54,-40,61,-20,6,184,229,194,130,31
37,27,-10,-32,24,8,-8,38,68,77,63,26
-7,23,31,-8,-20,27,-17,-53,-40,-5,19,21
-32,20,52,6,-42,36,-19,-101,-106,-61,-17,16
-32,17,49,8,-41,33,-13,-123,-128,-80,-34,11
-38,12,50,13,-45,31,-7,-135,-134,-97,-46,8
-40,10,50,15,-45,30,-3,-135,-148,-106,-57,3
-35,15,50,10,-43,32,4,-135,-162,-104,-62,-2
-35,13,48,11,-42,30,9,-135,-160,-105,-68,-5
-35,9,44,12,-40,26,7,-135,-160,-105,-70,-5
-35,11,45,12,-40,27,4,-133,-160,-105,-70,-7
-35,10,45,12,-40,27,5,-126,-160,-106,-74,-11
-35,10,45,12,-40,27,5,-119,-160,-110,-75,-8
-35,9,45,12,-40,27,5,-113,-150,-110,-75,-23
-35,6,40,15,-38,23,4,-106,-143,-110,-80,-41
-35,5,40,15,-38,22,0,-100,-133,-110,-80,-40
-34,5,39,14,-37,22,0,-93,-126,-110,-80,-40
-30,5,34,12,-32,19,0,-86,-122,-107,-80,-40
-30,6,36,12,-34,21,0,-80,-116,-101,-81,-40
-30,2,32,13,-31,17,0,-72,-113,-96,-77,-40
-38,-7,31,23,-34,11,-3,-72,-107,-93,-75,-40
-51,-10,41,31,-46,15,-6,-76,-106,-87,-75,-40
-47,-10,37,28,-42,14,-9,-74,-110,-86,-71,-40
-44,-10,34,27,-39,11,-12,-79,-112,-90,-70,-40
-40,-10,31,25,-36,10,-14,-80,-115,-90,-70,-40
-37,-10,26,23,-31,7,-17,-80,-119,-90,-75,-40
-33,-8,25,20,-28,8,-20,-84,-120,-90,-75,-40
-27,-3,25,14,-25,11,-20,-87,-124,-90,-76,-40
-38,3,41,17,-40,21,-22,-91,-135,-93,-80,-40
-39,6,45,16,-43,26,-25,-94,-140,-97,-80,-40
-27,12,39,8,-33,25,-25,-98,-139,-101,-82,-41
-23,15,38,4,-31,26,-21,-101,-142,-107,-85,-45
-22,9,31,6,-27,20,-15,-105,-145,-114,-88,-45
-28,2,30,13,-29,16,-10,-110,-144,-119,-91,-45
-34,-4,30,19,-32,13,-4,-113,-149,-120,-94,-45
-40,-11,30,26,-35,9,2,-115,-155,-120,-95,-45
-49,-18,31,33,-40,6,4,-115,-155,-120,-90,-45
-46,-18,28,32,-37,5,-1,-115,-155,-120,-90,-45
-52,-12,40,32,-46,14,-5,-115,-155,-120,-90,-45
-59,-7,52,33,-55,22,-7,-115,-155,-120,-90,-45
-53,-4,49,28,-51,23,-12,-115,-155,-120,-91,-45
-49,1,50,24,-50,26,-15,-110,-151,-117,-87,-44
-44,6,50,19,-48,27,-15,-110,-147,-114,-81,-38
-40,11,51,14,-46,31,-15,-109,-144,-111,-76,-32
-37,24,61,6,-49,43,-15,-105,-141,-108,-70,-26
-40,29,69,5,-55,49,-15,-104,-136,-106,-65,-22
-28,54,82,-13,-55,68,-17,-107,-135,-103,-60,-16
-11,96,107,-43,-59,102,-40,-113,-143,-100,-57,-13
-10,109,119,-49,-65,114,-61,-132,-148,-98,-53,-9
-20,102,122,-41,-71,112,-56,-165,-155,-96,-51,-6
-20,94,114,-37,-67,104,-49,-171,-154,-93,-43,0
-12,75,87,-32,-50,81,-43,-169,-159,-103,-53,-2
-30,28,58,1,-44,42,-36,-171,-183,-128,-80,-33
-39,-2,37,20,-38,17,-30,-169,-191,-143,-92,-47
-35,-10,25,22,-30,7,-24,-172,-198,-154,-100,-45
-48,-23,25,35,-36,1,-18,-164,-195,-156,-101,-52
-57,-32,25,44,-40,-4,-14,-162,-195,-153,-98,-52
-55,-37,18,46,-36,-9,-8,-153,-193,-158,-102,-57
-55,-33,22,44,-38,-5,-5,-151,-188,-151,-98,-50
-53,-37,16,45,-34,-10,1,-142,-194,-158,-102,-50
-41,-32,9,36,-24,-11,3,-141,-179,-145,-98,-46
-37,-41,-4,39,-16,-22,18,-132,-166,-150,-101,-46
-46,-57,-11,52,-17,-34,86,38,-22,-115,-118,-119
63,26,-37,-44,50,-6,44,233,335,272,186,81
375,364,-11,-370,193,176,-185,286,851,1228,1131,765
450,713,263,-582,93,488,-325,-162,635,1649,1704,1240
141,454,312,-298,-86,383,-279,-932,-652,335,706,839
-87,-90,-3,89,-42,-46,-193,-1077,-1221,-807,-406,96
-169,-260,-90,215,-39,-175,-161,-837,-875,-707,-521,-255
-146,-198,-52,172,-47,-124,-139,-599,-590,-514,-419,-267
-69,-124,-55,96,-7,-89,-46,-235,-255,-278,-244,-166
-51,-92,-41,72,-5,-66,23,-39,-59,-134,-129,-104
-48,-87,-39,68,-4,-63,29,-9,-31,-121,-114,-84
-51,-80,-29,66,-11,-55,31,19,-9,-77,-92,-74
-32,-77,-44,54,6,-60,29,40,-6,-71,-93,-73
-17,-69,-52,43,17,-60,31,53,10,-51,-74,-66
-17,-65,-49,41,16,-57,30,67,25,-47,-74,-63
-9,-60,-51,35,21,-55,30,91,41,-31,-65,-59
-10,-60,-50,35,20,-55,35,99,61,-21,-60,-60
-12,-60,-48,36,18,-54,38,115,86,-8,-56,-60
4,-60,-64,28,34,-62,44,146,118,15,-38,-60
21,-60,-82,19,52,-71,58,177,154,38,-17,-60
21,-62,-82,21,52,-72,76,215,191,66,-1,-60
15,-70,-85,28,50,-77,88,247,235,86,11,-55
18,-74,-93,28,56,-83,95,298,293,120,32,-46
39,-71,-110,16,74,-90,95,366,362,170,54,-38
52,-70,-122,9,87,-96,99,443,452,230,86,-29
77,-70,-147,-3,112,-108,99,537,554,302,127,-18
108,-70,-178,-19,143,-124,105,640,666,380,176,-5
137,-69,-206,-33,171,-138,115,747,790,478,236,8
164,-73,-237,-45,201,-154,116,839,897,566,288,27
193,-75,-268,-59,231,-171,120,911,1000,648,348,50
218,-68,-286,-75,252,-177,115,946,1045,702,393,67
218,-58,-276,-80,248,-167,105,925,1020,704,406,71
218,-51,-269,-83,244,-160,88,834,947,672,396,65
195,-37,-232,-79,214,-134,58,663,782,586,345,60
162,-1,-163,-80,162,-82,27,447,554,435,259,54
128,30,-97,-79,112,-33,-6,239,309,272,168,49
72,37,-35,-54,53,1,-31,76,115,134,92,44
31,35,4,-33,13,19,-38,-31,-7,27,32,35
7,35,28,-22,-11,31,-41,-94,-93,-34,-8,25
-17,31,48,-8,-33,40,-45,-125,-136,-74,-38,16
-20,30,49,-5,-35,39,-39,-142,-153,-100,-61,10
-15,30,44,-8,-30,37,-34,-147,-159,-113,-70,5
-17,25,42,-4,-30,33,-29,-144,-154,-119,-75,-1
-15,22,37,-3,-26,29,-23,-146,-156,-121,-80,-6
-16,19,35,-2,-26,26,-18,-145,-152,-125,-80,-11
-21,14,35,3,-28,25,-13,-145,-150,-125,-80,-20
-24,11,35,6,-30,22,-8,-141,-150,-125,-80,-26
-27,8,35,9,-31,21,-2,-136,-147,-125,-80,-25
-32,4,35,14,-34,19,1,-134,-144,-125,-80,-25
-35,0,35,17,-35,17,7,-129,-141,-125,-80,-25
-36,-3,33,19,-34,15,9,-126,-138,-125,-80,-25
-37,-8,29,23,-33,10,6,-123,-136,-120,-80,-25
-37,-10,27,23,-32,8,3,-113,-134,-114,-80,-25
-29,-5,24,17,-26,9,1,-103,-129,-109,-80,-25
-26,-5,21,16,-23,7,-3,-92,-123,-103,-80,-25
-23,-4,19,13,-21,7,-5,-85,-120,-97,-80,-25
-15,0,16,7,-15,8,-7,-80,-115,-97,-80,-24
-15,-1,15,7,-15,7,-10,-75,-111,-101,-80,-38
-12,3,15,4,-14,9,-10,-72,-113,-100,-80,-47
-10,5,15,2,-13,10,-10,-66,-116,-100,-80,-44
-10,5,15,2,-13,10,-10,-67,-118,-100,-80,-45
-13,5,18,3,-16,11,-10,-74,-122,-100,-80,-45
-22,5,27,8,-25,16,-15,-81,-124,-104,-80,-45
-26,5,31,11,-29,17,-15,-88,-128,-107,-80,-40
-29,1,29,14,-29,15,-16,-94,-140,-111,-80,-40
-34,-4,30,19,-32,13,-20,-100,-145,-114,-85,-39
-36,-6,29,21,-32,11,-19,-104,-148,-118,-85,-35
-36,-10,25,23,-31,7,-23,-107,-153,-120,-86,-35
-40,-15,25,27,-32,5,-25,-109,-155,-123,-90,-37
-37,-13,24,24,-30,5,-25,-113,-158,-126,-89,-40
-29,-9,20,19,-24,5,-25,-115,-161,-129,-93,-40
-30,-10,20,20,-25,5,-25,-117,-164,-130,-95,-40
-32,-10,22,21,-27,6,-25,-120,-165,-131,-95,-40
-36,-10,25,22,-31,7,-20,-120,-166,-135,-95,-40
-34,-10,25,21,-29,7,-20,-120,-170,-135,-95,-40
-31,-5,25,17,-27,10,-19,-120,-170,-133,-95,-40
-35,-5,30,20,-32,12,-15,-119,-168,-131,-90,-40
-34,-5,29,20,-31,12,-15,-115,-162,-125,-83,-40
-36,-5,31,21,-33,12,-13,-110,-157,-125,-80,-40
-33,-5,28,19,-30,11,-9,-106,-154,-121,-72,-38
-38,-2,35,20,-36,16,-7,-101,-148,-116,-69,-31
-46,12,57,17,-52,34,-4,-96,-146,-123,-61,-26
-42,21,63,10,-53,42,-1,-97,-148,-102,-60,-19
-36,31,67,2,-52,49,0,-101,-153,-133,-57,-15
-21,64,84,-22,-53,74,-11,-99,-153,-87,-52,-10
-8,77,85,-35,-47,81,-36,-112,-160,-133,-54,-10
-11,74,85,-32,-48,80,-45,-133,-158,-91,-44,-10
-24,75,99,-26,-61,86,-45,-136,-164,-106,-63,-2
-20,60,80,-20,-50,70,-45,-134,-168,-117,-52,-10
-31,31,62,-1,-46,46,-44,-132,-176,-80,-84,10
-61,5,66,27,-63,35,-46,-130,-200,-130,-1,21
-75,-10,65,42,-70,27,-45,-129,-161,331,153,-3
-78,-14,64,45,-71,25,-70,-115,-129,-202,31,0
-99,-32,67,65,-83,17,-61,-53,-136,234,-17,1
-90,-31,59,60,-74,14,-57,-14,-140,-266,14,-1
-89,-39,50,64,-69,5,-9,-23,-66,353,-12,1
-87,-29,58,58,-72,14,-16,-18,19,2061,11,-1
