I,II,III,aVR,aVL,aVF,V1,V2,V3,V4,V5,V6
164,45,-119,-105,142,-37,73,228,233,142,36,-7
150,48,-102,-99,126,-27,86,253,267,176,66,12
101,20,-81,-60,91,-30,84,306,347,270,141,45
161,84,-77,-122,118,4,85,385,456,392,232,109
203,134,-69,-168,136,32,85,420,529,487,316,158
218,156,-62,-187,140,46,85,447,585,571,396,212
240,184,-56,-212,148,64,84,448,619,618,447,258
244,201,-43,-222,143,79,77,437,621,625,458,274
245,222,-23,-233,134,100,71,422,574,599,451,273
230,221,-9,-225,119,106,64,377,498,516,401,236
198,200,2,-199,98,100,57,306,396,398,305,191
121,146,25,-133,48,85,51,226,278,284,216,141
75,106,31,-91,22,68,46,161,171,177,137,87
36,59,23,-48,6,41,41,91,87,75,48,37
-5,15,20,-5,-12,17,36,41,40,13,-7,7
26,38,12,-32,7,25,33,20,-8,-34,-32,-15
5,13,8,-9,-2,10,27,6,-43,-61,-68,-41
-48,-47,1,47,-24,-22,26,-4,-48,-75,-72,-46
-37,-48,-10,43,-13,-29,30,-10,-50,-92,-75,-48
-21,-43,-22,32,1,-32,30,-15,-49,-93,-77,-53
-22,-38,-16,30,-3,-26,30,-22,-60,-96,-71,-55
-38,-35,3,37,-20,-15,30,-24,-67,-92,-105,-62
-25,-27,-2,26,-11,-14,27,-18,-64,-86,-99,-66
-32,-31,1,31,-16,-15,24,-12,-66,-82,-76,-64
-93,-72,21,82,-56,-25,21,-8,-65,-76,-91,-77
-82,-41,41,61,-61,0,18,-1,-66,-70,-89,-79
-34,13,47,10,-41,29,15,4,-65,-66,-90,-72
-56,-12,44,33,-50,16,16,1,-66,-65,-90,-69
-93,-48,46,70,-69,-1,25,-10,-65,-65,-90,-63
-101,-56,45,78,-72,-6,35,-18,-67,-66,-91,-61
-99,-55,45,77,-71,-5,46,-15,-84,-64,-86,-52
-92,-54,38,73,-64,-8,47,-33,-86,-76,-85,-63
-93,-57,36,75,-64,-11,38,-48,-85,-87,-85,-78
-95,-67,28,81,-61,-19,35,-43,-85,-84,-84,-71
-97,-57,41,77,-69,-8,33,-46,-84,-86,-86,-70
-99,-35,64,67,-81,14,30,-45,-97,-84,-83,-66
-88,-37,51,62,-69,7,27,-45,-101,-85,-80,-64
-81,-40,42,60,-61,1,25,-49,-99,-88,-80,-62
-79,-52,28,65,-53,-11,22,-55,-100,-90,-80,-59
-91,-62,28,76,-59,-17,16,-64,-100,-105,-95,-56
-106,-59,47,82,-76,-6,11,-66,-100,-112,-102,-53
-101,-60,41,80,-71,-9,8,-65,-95,-109,-99,-50
-98,-60,38,79,-68,-11,2,-65,-95,-107,-97,-50
-95,-60,35,77,-65,-12,1,-65,-95,-105,-94,-61
-88,-58,29,73,-58,-14,7,-64,-95,-104,-95,-62
-78,-47,31,62,-54,-7,13,-61,-95,-119,-90,-57
-56,-28,28,42,-42,0,19,-58,-93,-115,-86,-54
-83,-51,32,67,-58,-10,17,-56,-88,-97,-83,-50
-105,-78,27,92,-66,-25,14,-52,-85,-119,-80,-47
-94,-64,30,79,-62,-17,16,-50,-82,-127,-75,-44
-117,-63,54,89,-85,-4,14,-47,-77,-124,-78,-47
-110,-53,57,81,-83,2,17,-39,-76,-125,-79,-42
-83,-30,53,56,-68,11,12,-30,-77,-126,-85,-55
-69,-9,60,39,-65,25,14,-23,-68,-104,-83,-52
-32,43,75,-5,-54,59,40,-15,-52,-72,-54,-14
2,76,75,-39,-37,75,56,-10,-37,-60,-20,-2
-1,76,78,-38,-40,77,27,-10,-43,-47,-3,7
-14,74,88,-30,-51,80,-19,-14,-46,-51,1,29
9,86,77,-48,-34,82,-27,-41,-50,-55,5,47
11,75,64,-43,-26,69,-16,-44,-73,-78,-31,39
-9,50,59,-21,-34,54,-16,-52,-86,-104,-53,32
-19,32,50,-7,-35,41,-9,-67,-100,-102,-48,28
-86,-40,45,63,-65,2,-5,-65,-113,-110,-71,-24
-116,-78,38,97,-77,-20,-3,-74,-110,-113,-82,-63
-92,-66,26,79,-59,-20,5,-63,-103,-116,-95,-61
-98,-73,26,85,-62,-23,-1,-79,-112,-114,-101,-59
-105,-94,11,99,-58,-41,14,-58,-94,-121,-97,-73
-113,-69,44,91,-78,-13,11,-84,-126,-132,-99,-55
-90,-78,12,84,-51,-32,43,-56,-104,-117,-106,-70
-115,-38,77,76,-96,20,34,-83,-121,-116,-89,-55
-201,-57,145,129,-172,44,127,18,-40,-90,-119,-82
30,17,-12,-23,21,2,182,346,377,389,284,129
453,349,-103,-401,278,123,-245,122,800,1448,1297,771
448,138,-310,-293,379,-86,-453,-353,542,1305,1238,756
172,-286,-458,58,315,-372,-476,-804,-628,-272,99,200
21,-367,-388,173,205,-377,-499,-847,-991,-806,-360,-68
-74,-309,-236,192,81,-272,-235,-432,-481,-444,-261,-111
-89,-160,-71,125,-9,-115,-51,-179,-237,-253,-165,-69
-81,-117,-35,99,-23,-76,28,-33,-96,-136,-113,-66
-105,-116,-11,110,-47,-63,61,-16,-80,-132,-114,-63
-95,-100,-5,98,-45,-52,64,5,-54,-104,-93,-59
-95,-99,-4,97,-45,-51,67,31,-28,-97,-86,-58
-94,-89,5,91,-50,-41,59,36,-13,-88,-79,-53
-91,-87,4,89,-48,-41,60,47,0,-80,-81,-53
-93,-78,15,85,-54,-31,68,50,14,-69,-73,-45
-101,-72,28,86,-64,-22,75,80,55,-30,-51,-43
-70,-40,30,55,-49,-5,88,105,74,-5,-34,-37
-63,-42,21,52,-42,-10,108,128,107,32,-7,-33
-75,-57,18,66,-46,-19,108,167,151,68,17,-13
-43,-32,11,37,-27,-10,115,220,208,117,53,11
-19,-14,5,16,-12,-4,117,258,272,179,94,34
-17,-6,11,11,-14,3,113,304,335,243,135,58
-8,14,23,-3,-16,18,112,354,416,329,198,82
54,73,20,-64,17,47,108,421,512,448,292,143
109,129,20,-119,44,74,106,476,590,534,378,204
151,183,32,-167,59,107,104,482,629,583,430,240
150,204,53,-177,48,128,96,479,629,613,467,266
127,192,65,-160,30,129,89,475,621,585,463,260
123,191,68,-157,28,129,82,441,567,529,423,252
116,185,69,-151,23,127,74,374,462,443,370,224
98,173,75,-136,11,123,67,296,350,327,279,170
62,136,74,-100,-6,105,61,219,243,214,181,120
29,103,74,-66,-23,88,56,140,147,115,106,70
-32,55,88,-12,-60,71,52,76,69,40,41,23
-61,19,81,21,-71,50,47,34,18,-15,-8,-10
-59,12,72,23,-66,42,43,14,-14,-63,-46,-30
-56,6,62,25,-59,34,38,12,-32,-80,-45,-38
-57,-1,56,29,-57,27,34,9,-48,-86,-48,-41
-69,-9,60,39,-64,26,31,4,-64,-107,-85,-61
-49,11,60,19,-55,36,27,1,-66,-111,-92,-70
-60,0,60,30,-60,30,24,-3,-65,-109,-94,-72
-84,-24,59,54,-71,17,19,-12,-66,-111,-95,-75
-79,2,81,38,-80,42,21,-23,-64,-110,-89,-69
-91,2,93,44,-92,47,19,-30,-67,-109,-91,-71
-120,-32,88,76,-104,28,21,-30,-69,-104,-90,-70
-105,-14,91,60,-98,38,33,-34,-73,-101,-90,-70
-68,22,89,23,-79,55,31,-35,-75,-98,-90,-70
-69,20,90,24,-80,55,23,-38,-80,-93,-90,-67
-69,16,85,26,-77,50,19,-40,-79,-90,-91,-64
-32,53,85,-11,-58,68,13,-40,-82,-94,-89,-61
-36,50,86,-7,-61,67,9,-54,-106,-105,-92,-58
-72,12,84,30,-78,48,3,-62,-118,-115,-99,-55
-77,8,86,34,-82,47,0,-59,-119,-123,-106,-54
-81,1,82,40,-82,41,-5,-60,-121,-142,-118,-49
-84,-8,76,45,-80,34,-10,-75,-123,-152,-122,-43
-82,-13,69,48,-75,27,-10,-82,-128,-149,-119,-40
-87,-24,63,55,-75,19,-10,-79,-131,-151,-121,-35
-82,-27,56,54,-69,14,-10,-81,-135,-149,-119,-31
-34,16,50,9,-42,33,-10,-80,-137,-151,-122,-29
-38,31,68,4,-53,49,-10,-80,-140,-155,-134,-34
-101,-31,69,66,-85,19,-9,-75,-143,-161,-147,-41
-119,-45,74,82,-96,14,-5,-72,-145,-173,-160,-40
-85,0,86,42,-85,42,-5,-68,-141,-171,-159,-40
-89,-18,70,53,-79,26,-5,-65,-137,-164,-155,-41
-113,-42,71,77,-92,14,-4,-60,-134,-160,-151,-39
-49,-5,44,27,-46,19,-7,-60,-131,-153,-151,-41
-43,7,50,17,-47,29,4,-74,-126,-151,-155,-47
-50,23,73,14,-62,47,15,-84,-126,-160,-155,-54
-48,7,54,20,-51,30,9,-97,-139,-161,-166,-67
-95,-29,65,62,-80,18,3,-101,-145,-154,-166,-67
-83,-17,66,50,-75,24,-1,-99,-136,-147,-155,-58
-67,1,68,33,-68,34,-10,-101,-133,-142,-154,-54
-48,23,71,12,-60,47,-3,-100,-118,-133,-127,-45
-19,55,73,-18,-46,64,17,-81,-93,-105,-99,-35
4,89,85,-47,-41,87,23,-56,-73,-77,-91,-19
13,104,91,-59,-39,97,13,-62,-62,-73,-70,-5
19,114,95,-67,-38,104,-10,-61,-57,-74,-47,39
18,116,98,-68,-40,107,-17,-68,-67,-74,-51,58
0,100,100,-50,-50,100,-9,-90,-92,-90,-74,14
-12,73,85,-31,-49,79,-6,-90,-102,-96,-64,25
-25,32,56,-4,-41,44,-2,-104,-119,-119,-85,12
-44,12,56,15,-50,34,5,-103,-131,-140,-113,-27
-75,-23,51,49,-63,14,5,-102,-142,-138,-107,-30
-87,-67,20,76,-53,-23,17,-89,-140,-153,-137,-64
-88,-52,36,69,-62,-8,17,-96,-146,-153,-145,-62
-81,-65,16,73,-48,-24,31,-79,-127,-144,-157,-70
-68,-42,26,55,-47,-8,32,-85,-134,-145,-148,-64
-63,-60,3,61,-33,-28,40,-75,-119,-135,-165,-76
-57,-21,36,39,-46,7,53,-58,-118,-137,-151,-65
-115,28,143,44,-129,85,110,-41,-113,-155,-178,-100
13,-8,-21,-3,17,-14,221,279,230,151,40,1
422,277,-145,-349,283,66,-125,214,682,1195,1076,640
534,240,-293,-387,413,-27,-433,-275,640,1516,1403,851
271,-156,-427,-57,349,-291,-401,-739,-419,44,327,363
59,-282,-341,112,200,-312,-463,-939,-1090,-866,-383,-8
-23,-285,-262,154,120,-273,-302,-599,-673,-571,-351,-118
-66,-184,-118,125,27,-151,-91,-284,-347,-339,-238,-95
-48,-95,-46,72,0,-70,6,-103,-151,-182,-162,-96
-45,-86,-40,66,-2,-63,59,-29,-95,-155,-138,-96
-75,-96,-20,86,-27,-58,50,-15,-82,-130,-134,-94
-77,-96,-19,86,-28,-57,59,13,-47,-98,-113,-95
-92,-94,-2,93,-45,-47,52,23,-22,-97,-83,-84
-91,-96,-5,94,-42,-50,52,55,-1,-80,-93,-83
-90,-94,-5,93,-42,-50,50,54,2,-58,-86,-73
-86,-91,-5,89,-40,-48,50,66,50,-20,-53,-72
-68,-79,-10,74,-29,-44,50,86,56,-4,-45,-58
-62,-71,-9,66,-26,-40,49,110,97,23,-35,-46
-43,-54,-11,48,-16,-32,50,131,133,70,-5,-26
-44,-44,0,44,-22,-22,50,165,185,143,57,16
-11,-20,-9,16,-1,-14,63,221,251,181,88,21
31,14,-17,-22,23,-1,78,270,324,270,135,42
58,46,-13,-52,35,16,74,316,415,378,232,107
104,75,-29,-89,66,23,53,360,481,459,316,162
98,96,-1,-97,49,47,33,395,544,551,379,186
127,149,22,-138,52,86,24,421,601,616,451,237
167,187,20,-177,73,103,16,432,630,656,521,292
174,199,26,-187,74,112,8,425,615,649,528,294
172,198,25,-185,73,111,1,396,571,599,499,291
152,176,24,-165,64,100,-5,343,477,501,425,245
109,135,26,-123,42,80,-10,280,358,372,313,179
58,98,40,-78,9,68,-15,209,259,251,215,134
39,63,24,-51,7,43,-18,138,156,139,118,71
-6,-2,5,4,-6,2,-24,86,67,50,35,16
-5,13,18,-4,-12,15,-23,45,12,2,10,-23
-16,2,18,7,-17,10,-16,17,-36,-49,-17,-52
-46,-65,-19,56,-13,-41,-9,8,-45,-90,-47,-63
-20,-58,-39,39,10,-48,-3,-8,-46,-97,-56,-65
-16,-47,-31,32,8,-39,4,-23,-66,-107,-90,-86
-4,-47,-43,26,20,-45,10,-27,-64,-114,-102,-100
-17,-68,-51,43,18,-59,-1,-44,-78,-124,-98,-101
-35,-80,-45,58,5,-62,-26,-44,-87,-125,-101,-106
-40,-68,-28,54,-6,-48,-46,-37,-79,-126,-99,-104
-31,-50,-19,41,-6,-34,-45,-38,-79,-121,-101,-108
-23,-19,4,21,-13,-8,-45,-28,-72,-115,-96,-110
-48,-50,-2,49,-23,-26,-61,-39,-71,-140,-94,-110
-48,-74,-26,61,-11,-50,-63,-61,-73,-151,-91,-106
-37,-19,18,28,-27,0,-55,-60,-75,-152,-88,-100
-17,-12,5,15,-11,-3,-52,-60,-78,-156,-85,-95
-29,-54,-25,42,-2,-39,-43,-61,-80,-159,-86,-89
-52,-54,-2,53,-25,-27,-43,-59,-83,-160,-95,-84
-40,-41,0,40,-20,-20,-58,-63,-79,-161,-109,-79
-34,-40,-6,37,-14,-23,-51,-66,-92,-159,-117,-105
-23,-38,-15,30,-4,-26,-39,-69,-111,-162,-127,-124
-30,-35,-5,33,-12,-20,-31,-73,-102,-167,-117,-116
-23,-32,-9,28,-6,-21,-18,-74,-94,-162,-97,-115
9,-41,-49,16,29,-45,-36,-83,-119,-181,-126,-111
0,-45,-45,23,23,-45,-48,-92,-136,-168,-129,-109
-17,-46,-29,32,6,-37,-44,-87,-126,-146,-110,-107
-12,-43,-31,27,10,-36,-43,-85,-123,-155,-123,-104
-21,-49,-28,35,4,-38,-39,-82,-116,-148,-127,-101
-25,-48,-23,37,0,-35,-41,-79,-111,-143,-125,-98
1,-14,-15,7,9,-14,-36,-77,-107,-140,-125,-95
-17,-27,-10,23,-3,-19,-35,-73,-104,-134,-122,-96
-34,-35,-2,35,-16,-18,-33,-72,-106,-130,-120,-101
-48,-44,3,46,-25,-20,-29,-68,-104,-137,-120,-104
-73,-56,17,64,-45,-19,-30,-66,-106,-156,-131,-114
-54,-32,22,43,-37,-5,-4,-63,-103,-164,-127,-109
-65,-20,45,42,-54,12,20,-49,-74,-125,-97,-97
-46,46,92,0,-70,69,33,-29,-49,-96,-85,-89
-3,90,93,-43,-48,91,39,-28,-39,-79,-72,-65
9,94,85,-52,-38,89,15,-21,-33,-62,-57,-36
40,120,80,-80,-20,99,-2,-20,-26,-54,-53,-7
13,102,89,-58,-38,95,-9,-51,-54,-65,-63,-23
-10,75,85,-32,-48,79,-17,-67,-95,-112,-104,-59
-3,44,47,-20,-25,45,-29,-88,-109,-122,-105,-48
-41,-10,31,25,-36,10,-17,-85,-108,-125,-106,-66
-75,-41,33,58,-54,-4,11,-81,-112,-131,-125,-97
-70,-59,12,64,-41,-23,26,-71,-109,-135,-139,-113
-50,-36,13,43,-31,-11,35,-66,-121,-160,-156,-124
-69,-64,5,66,-36,-29,37,-61,-122,-148,-160,-138
-104,-80,24,92,-63,-28,36,-49,-113,-138,-162,-140
-101,-59,42,80,-72,-8,35,-76,-126,-135,-156,-137
-83,-83,0,83,-41,-41,58,-40,-96,-133,-167,-156
-155,-32,122,93,-138,45,88,-67,-117,-135,-195,-159
-135,-106,29,121,-82,-38,249,202,114,-14,-185,-193
213,111,-101,-162,157,5,98,339,537,777,632,329
463,297,-166,-380,314,65,-329,-86,657,1687,1570,931
333,-67,-400,-133,367,-233,-373,-515,-76,720,822,587
82,-243,-326,81,204,-284,-375,-832,-981,-695,-252,91
-88,-315,-227,202,70,-272,-331,-683,-838,-662,-403,-126
-110,-267,-158,189,24,-212,-131,-351,-448,-395,-324,-175
-78,-118,-40,98,-19,-79,-20,-144,-223,-195,-188,-109
-72,-108,-36,90,-18,-72,31,-27,-97,-107,-146,-101
-66,-79,-13,73,-27,-46,35,-23,-83,-100,-126,-84
-57,-65,-8,61,-24,-37,36,6,-32,-39,-82,-78
-74,-69,5,71,-39,-32,35,11,-30,-60,-86,-73
-69,-51,18,60,-43,-16,34,32,0,-21,-72,-67
-36,-31,4,33,-20,-13,35,32,18,-2,-72,-62
-41,-53,-12,47,-14,-32,36,39,32,16,-64,-56
-52,-61,-9,57,-21,-35,52,70,49,19,-48,-51
-49,-53,-4,51,-23,-28,54,90,87,57,-21,-39
-13,-37,-23,25,5,-30,70,116,121,93,-4,-30
33,7,-26,-19,29,-9,108,148,167,129,30,-5
22,2,-19,-12,21,-8,112,180,221,199,72,23
8,-11,-19,2,13,-15,101,218,270,254,121,62
42,29,-12,-35,27,8,97,273,359,359,214,122
93,82,-11,-87,51,35,89,332,447,466,301,177
112,107,-5,-109,59,51,81,370,517,555,374,213
148,151,3,-150,72,77,70,398,570,635,456,259
205,213,9,-209,98,111,61,424,611,679,520,311
190,207,17,-198,86,111,60,410,606,678,526,306
182,201,19,-191,81,110,60,383,568,630,513,292
197,229,33,-213,82,131,60,345,503,556,468,284
142,201,59,-172,41,130,59,280,394,432,350,225
77,140,63,-109,6,101,62,220,289,290,233,155
50,104,54,-77,-2,79,65,152,181,167,125,102
49,100,51,-75,-1,75,65,93,98,79,54,60
25,69,44,-47,-10,57,74,67,52,16,6,21
-17,22,39,-3,-28,30,74,40,3,-27,-43,-7
-21,5,26,8,-24,15,67,19,-32,-58,-62,-27
-52,-30,22,41,-36,-4,63,11,-41,-88,-74,-51
-76,-36,40,56,-58,2,56,2,-45,-91,-74,-53
-53,-19,34,36,-44,7,52,-6,-46,-90,-68,-45
-35,-5,30,20,-33,13,46,-13,-45,-87,-66,-41
-1,21,22,-11,-12,22,39,-12,-44,-84,-62,-35
5,26,22,-16,-9,24,32,-10,-40,-87,-57,-28
-29,25,54,2,-42,39,26,-10,-39,-83,-73,-44
-10,23,33,-7,-22,28,19,-10,-44,-90,-92,-62
-7,17,24,-5,-16,20,15,-10,-44,-94,-89,-59
-21,7,28,7,-25,17,33,-11,-47,-97,-90,-60
-24,6,31,8,-28,18,46,-17,-49,-89,-90,-60
-65,-12,53,38,-58,20,44,-23,-52,-91,-90,-60
-39,8,47,16,-43,27,45,-28,-71,-122,-87,-57
-19,25,44,-3,-32,34,45,-35,-79,-126,-84,-52
-44,-3,41,23,-43,19,45,-45,-80,-126,-86,-49
-34,3,37,15,-35,20,44,-53,-91,-132,-85,-46
-69,-34,35,51,-52,1,40,-59,-104,-130,-85,-41
-75,-41,34,58,-54,-3,40,-60,-108,-137,-86,-41
-66,-30,36,48,-50,2,40,-60,-113,-137,-92,-50
-68,-34,34,50,-51,0,40,-60,-114,-146,-103,-60
-31,4,35,13,-33,19,40,-61,-110,-153,-111,-70
-20,10,30,5,-25,20,37,-62,-110,-147,-110,-70
-14,17,30,-2,-22,24,31,-60,-109,-150,-110,-65
-14,15,29,-1,-21,22,27,-60,-122,-150,-110,-63
-6,18,24,-7,-16,21,22,-60,-131,-145,-113,-58
-5,21,26,-8,-16,23,18,-60,-122,-146,-115,-55
-18,8,26,5,-22,16,14,-61,-120,-143,-115,-58
-33,1,33,16,-33,17,9,-74,-115,-140,-115,-61
-32,-8,24,20,-28,8,4,-81,-109,-139,-115,-64
-38,-2,36,20,-37,17,-1,-79,-125,-148,-114,-66
-99,-38,61,68,-80,12,-4,-82,-138,-158,-106,-63
-92,-31,61,62,-76,15,-11,-78,-131,-150,-97,-74
-42,17,58,13,-50,37,-5,-84,-132,-153,-91,-75
-33,33,66,0,-49,49,4,-63,-115,-131,-82,-60
-22,79,101,-28,-62,90,13,-33,-76,-91,-77,-51
-21,82,103,-31,-62,92,18,-43,-58,-76,-69,-44
-9,86,95,-39,-52,90,-23,-52,-56,-72,-53,-17
45,135,90,-90,-22,112,-55,-51,-35,-73,-40,8
43,128,86,-86,-22,107,-55,-58,-52,-76,-29,11
-10,85,95,-38,-52,89,-54,-84,-105,-110,-61,-5
15,72,57,-44,-22,64,-48,-105,-122,-125,-70,-13
3,25,22,-14,-10,23,-42,-97,-126,-134,-78,-28
-84,-62,22,73,-53,-20,-37,-100,-145,-164,-117,-68
-60,-50,9,54,-34,-20,-33,-103,-147,-157,-124,-87
-18,-19,-1,18,-8,-10,-23,-94,-140,-166,-131,-86
-49,-55,-6,52,-21,-30,-26,-106,-153,-175,-123,-86
-56,-74,-18,65,-18,-46,-13,-76,-133,-174,-128,-95
-66,-52,15,59,-40,-18,-29,-102,-161,-177,-129,-90
-74,-84,-10,78,-31,-47,-9,-59,-121,-171,-154,-124
-99,2,101,48,-100,52,9,-93,-134,-181,-133,-94
-142,-26,115,84,-129,44,122,26,-33,-134,-154,-111
81,17,-65,-49,73,-24,115,334,379,397,296,133
494,362,-132,-428,313,115,-333,20,754,1554,1426,822
478,106,-371,-292,425,-132,-492,-477,421,1321,1278,780
176,-259,-435,42,305,-347,-489,-895,-759,-380,38,185
19,-301,-320,141,170,-311,-510,-898,-1028,-836,-389,-79
-64,-281,-217,173,77,-249,-268,-476,-533,-478,-303,-132
-44,-124,-79,84,18,-101,-79,-212,-283,-293,-204,-91
-38,-96,-58,68,10,-77,8,-52,-102,-155,-146,-76
-74,-97,-23,86,-25,-60,21,-30,-97,-153,-159,-83
-61,-74,-13,67,-24,-43,35,3,-53,-109,-134,-79
-70,-78,-8,74,-31,-43,54,24,-36,-105,-115,-77
-38,-41,-3,40,-17,-22,51,29,-23,-88,-98,-72
0,-2,-2,1,2,-2,54,51,9,-75,-92,-69
-33,-27,6,30,-19,-11,47,46,15,-66,-83,-65
-63,-59,4,61,-33,-27,52,70,44,-28,-72,-59
-40,-23,17,31,-28,-3,47,97,70,2,-51,-43
3,17,14,-11,-5,15,56,132,118,41,-9,-30
9,33,23,-21,-7,28,70,166,158,74,22,-17
5,19,15,-12,-6,17,73,202,213,124,43,-5
19,5,-14,-12,16,-4,83,257,285,186,78,12
57,44,-13,-50,35,15,82,315,362,273,150,65
81,73,-8,-77,45,32,74,375,451,374,232,117
99,95,-4,-97,52,45,68,421,531,461,309,160
162,164,1,-163,80,82,61,457,597,552,392,210
196,201,5,-199,95,103,54,482,642,624,457,245
228,241,13,-235,107,127,50,480,648,658,499,281
241,260,19,-250,111,139,48,465,623,647,500,290
204,230,26,-217,89,128,45,429,565,575,452,262
176,209,34,-193,71,121,42,361,459,450,367,217
137,170,33,-154,52,101,40,287,334,313,247,149
88,137,49,-113,19,93,37,211,230,195,144,87
46,103,57,-75,-6,80,32,141,135,100,71,30
14,58,44,-36,-16,51,29,91,59,32,19,-8
-9,23,33,-7,-21,28,25,40,7,-35,-24,-28
-22,-8,15,15,-18,3,22,3,-37,-78,-68,-56
-34,-34,0,34,-17,-16,18,-1,-67,-100,-77,-65
-20,-34,-14,27,-3,-24,15,0,-71,-107,-73,-65
-26,-44,-18,36,-4,-31,15,0,-69,-104,-82,-66
-56,-67,-11,62,-23,-38,13,0,-75,-119,-96,-70
-37,-44,-7,41,-15,-25,9,0,-74,-128,-96,-70
-38,-41,-3,40,-17,-21,10,-4,-77,-134,-98,-69
-64,-61,3,62,-34,-28,12,-10,-88,-141,-107,-86
-43,-39,3,41,-23,-18,10,-15,-91,-136,-105,-91
-27,-23,4,25,-15,-9,10,-21,-90,-131,-105,-89
-31,-21,10,25,-20,-5,10,-27,-90,-128,-101,-91
-32,-12,19,21,-25,3,10,-31,-90,-122,-100,-90
-35,-5,30,20,-32,12,10,-29,-91,-121,-100,-89
-27,-2,25,14,-26,11,6,-38,-96,-126,-100,-84
-8,8,17,0,-13,12,5,-46,-95,-125,-100,-81
-45,-33,12,39,-28,-10,5,-49,-95,-125,-100,-78
-68,-65,3,66,-35,-31,0,-54,-109,-140,-100,-73
-36,-34,1,35,-18,-16,0,-52,-117,-147,-100,-70
-39,-32,7,35,-23,-12,-1,-48,-113,-144,-104,-74
-37,-24,13,30,-25,-5,-5,-53,-117,-143,-105,-75
-68,-43,26,55,-47,-8,-4,-72,-133,-138,-106,-77
-85,-54,31,69,-58,-12,-8,-77,-136,-142,-113,-81
-70,-47,23,58,-46,-12,-10,-73,-134,-151,-119,-79
-73,-53,20,63,-46,-16,-11,-77,-137,-158,-120,-81
-62,-47,15,54,-39,-15,-9,-73,-133,-150,-120,-78
-64,-55,9,59,-36,-23,-15,-82,-142,-155,-120,-86
-49,-30,18,39,-33,-6,-26,-96,-156,-175,-120,-101
-65,-38,27,51,-45,-6,-21,-93,-155,-175,-119,-96
-96,-71,25,83,-60,-23,-19,-90,-154,-174,-121,-94
-79,-54,24,66,-51,-15,-14,-88,-155,-176,-125,-90
-69,-48,21,58,-45,-13,-11,-84,-155,-174,-125,-85
-65,-46,19,56,-42,-13,-7,-88,-153,-173,-125,-83
-60,-38,22,49,-41,-8,6,-91,-150,-167,-125,-75
-72,-38,33,55,-52,-3,5,-89,-146,-163,-126,-72
-61,-20,42,40,-51,11,-3,-85,-146,-162,-118,-65
-35,19,54,8,-45,37,-2,-73,-122,-138,-98,-61
-32,38,70,-3,-51,54,8,-52,-99,-108,-81,-54
-22,53,75,-16,-48,64,18,-38,-99,-90,-75,-52
-7,81,88,-37,-48,85,2,-41,-102,-81,-75,-42
24,113,89,-68,-33,101,-35,-41,-97,-75,-83,-7
10,82,72,-46,-31,76,-57,-72,-105,-94,-88,1
-36,18,54,9,-45,36,-64,-118,-145,-133,-95,-14
-9,20,28,-6,-18,24,-73,-132,-168,-144,-103,-19
-33,-20,13,27,-23,-4,-48,-123,-172,-160,-106,-29
-96,-67,28,81,-62,-19,-23,-125,-181,-175,-125,-53
-102,-87,15,94,-58,-36,-23,-126,-185,-187,-151,-78
-98,-104,-6,101,-46,-55,-10,-113,-179,-200,-170,-76
-92,-93,-1,93,-45,-46,-16,-130,-183,-191,-180,-71
-97,-120,-23,109,-37,-71,5,-103,-161,-189,-192,-83
-82,-92,-10,87,-36,-51,-10,-120,-179,-182,-175,-64
-97,-131,-34,114,-32,-82,-3,-82,-146,-176,-197,-89
-120,-40,79,80,-99,20,28,-102,-169,-171,-171,-57
-161,-11,150,86,-155,69,133,1,-89,-143,-192,-104
5,-29,-35,12,20,-32,155,321,319,327,203,100
485,322,-164,-403,324,79,-276,67,775,1458,1301,786
547,140,-407,-343,477,-133,-482,-443,542,1314,1224,767
223,-278,-501,28,363,-389,-488,-916,-704,-331,33,200
16,-369,-386,177,201,-377,-526,-972,-1106,-880,-422,-70
-65,-318,-253,192,94,-285,-284,-533,-597,-527,-337,-123
-71,-148,-77,110,3,-112,-84,-243,-319,-306,-220,-99
-91,-131,-39,111,-25,-85,-4,-90,-147,-185,-163,-98
-81,-104,-23,93,-28,-64,31,-63,-141,-194,-166,-84
-85,-98,-13,92,-36,-55,48,-32,-101,-158,-146,-77
-90,-100,-10,95,-40,-55,53,-11,-81,-145,-144,-72
-83,-78,5,81,-44,-37,48,-3,-66,-125,-133,-62
-96,-97,-1,96,-47,-49,58,17,-39,-114,-125,-59
-48,-62,-14,56,-17,-38,53,22,-13,-105,-114,-50
-46,-63,-17,55,-15,-40,59,53,26,-82,-98,-45
-48,-54,-5,51,-21,-29,75,91,53,-49,-75,-38
-28,-36,-8,33,-10,-22,83,132,111,6,-40,-8
-62,-75,-13,68,-24,-44,86,145,145,40,-15,16
-29,-50,-20,40,-4,-35,90,189,196,93,21,31
-5,-28,-23,17,10,-26,85,243,253,156,43,33
8,-14,-22,3,15,-17,81,284,324,235,95,45
33,20,-13,-26,23,4,79,351,429,359,212,121
83,69,-15,-76,49,27,75,414,528,478,307,185
150,147,-4,-149,77,71,71,453,605,569,381,230
154,156,2,-155,76,78,68,459,648,630,437,267
195,174,-21,-184,108,76,65,442,657,651,457,287
231,223,-8,-227,119,108,62,435,642,640,457,308
223,235,12,-230,105,123,59,414,578,580,438,301
171,204,33,-188,69,118,56,356,481,478,375,264
115,157,41,-136,37,99,54,290,373,348,263,189
80,110,30,-95,24,70,50,204,245,219,149,125
21,48,27,-35,-4,37,50,121,139,115,61,82
-1,20,21,-10,-11,20,49,77,78,46,13,35
-9,6,15,2,-12,10,45,40,24,-7,-19,18
-34,-26,8,30,-20,-9,45,12,-18,-54,-48,-4
-45,-44,1,44,-22,-21,48,-13,-38,-72,-70,-29
-42,-49,-7,46,-17,-28,50,-31,-61,-96,-109,-57
-27,-42,-15,35,-6,-28,50,-30,-81,-100,-106,-56
-34,-53,-19,44,-7,-36,53,-25,-75,-82,-74,-32
-66,-68,-2,67,-31,-35,56,-20,-70,-92,-79,-40
-62,-62,0,62,-30,-31,54,-17,-67,-103,-96,-43
-59,-73,-14,67,-23,-43,51,-10,-60,-107,-119,-64
-62,-62,0,62,-31,-31,46,-16,-65,-102,-123,-75
-46,-32,14,39,-29,-9,44,-35,-75,-99,-114,-61
-52,-34,17,43,-34,-8,39,-34,-76,-96,-107,-61
-61,-53,8,57,-34,-22,36,-36,-74,-92,-106,-59
-61,-55,6,57,-33,-24,31,-34,-77,-89,-103,-61
-69,-50,20,59,-45,-15,13,-37,-73,-93,-111,-58
-70,-50,20,60,-45,-15,5,-62,-87,-113,-127,-67
-66,-45,21,56,-43,-12,4,-66,-111,-116,-111,-81
-63,-45,18,54,-40,-12,0,-64,-110,-115,-110,-74
-71,-42,29,56,-50,-6,-3,-66,-109,-115,-110,-71
-85,-39,46,61,-66,3,-17,-65,-111,-115,-104,-66
-81,-36,44,58,-62,4,-26,-64,-108,-114,-104,-61
-78,-33,45,55,-61,6,-32,-59,-117,-120,-97,-61
-75,-30,45,52,-60,7,-40,-60,-131,-131,-107,-72
-74,-29,45,51,-60,8,-45,-58,-128,-130,-121,-85
-67,-25,42,46,-54,8,-51,-54,-125,-130,-120,-85
-58,-24,34,41,-45,5,-57,-56,-123,-130,-120,-85
-64,-36,28,50,-46,-4,-63,-56,-119,-130,-120,-85
-65,-45,20,55,-42,-12,-68,-56,-123,-130,-119,-84
-33,-20,13,26,-22,-4,-66,-52,-125,-130,-123,-88
-16,-10,6,13,-10,-2,-65,-50,-125,-129,-125,-90
-54,-41,13,47,-33,-14,-65,-46,-125,-132,-125,-90
-63,-41,22,52,-42,-10,-65,-44,-125,-144,-125,-93
-64,-30,34,46,-49,2,-65,-58,-125,-141,-125,-96
-57,-20,37,38,-46,8,-63,-67,-120,-133,-124,-94
-46,-13,33,29,-39,10,-56,-69,-121,-132,-119,-90
-30,-2,28,16,-29,13,-49,-73,-115,-120,-109,-83
-3,21,25,-10,-14,23,-43,-76,-116,-127,-103,-79
-50,3,53,23,-52,28,-34,-58,-108,-131,-95,-71
-35,33,68,1,-52,50,-32,-42,-76,-99,-87,-59
-8,78,86,-35,-47,82,-27,-47,-68,-88,-78,-43
-27,69,95,-21,-61,82,-41,-47,-70,-85,-65,-22
33,115,81,-74,-24,98,-86,-56,-72,-82,-61,-7
67,146,79,-106,-6,112,-117,-49,-65,-77,-41,7
60,131,70,-96,-5,100,-118,-64,-92,-106,-55,-18
44,109,64,-77,-10,86,-109,-95,-131,-144,-94,-55
-5,56,61,-26,-33,58,-108,-98,-134,-137,-89,-53
-51,-1,50,26,-50,24,-77,-90,-133,-151,-90,-57
-73,-26,47,49,-59,10,-58,-94,-143,-170,-100,-65
-51,-44,7,48,-29,-18,-56,-87,-139,-177,-131,-101
-29,-35,-5,32,-12,-20,-49,-90,-148,-189,-136,-114
-14,-30,-16,22,1,-22,-43,-82,-137,-182,-133,-115
-14,-33,-19,23,3,-26,-27,-71,-131,-188,-134,-116
-65,-57,8,61,-37,-24,-10,-80,-135,-184,-123,-110
-80,-60,20,70,-50,-20,32,-48,-106,-184,-148,-130
-104,8,112,48,-108,59,70,-51,-119,-175,-174,-152
-82,-83,-1,82,-40,-41,214,233,154,6,-105,-154
262,178,-84,-219,172,47,9,288,565,890,781,409
511,376,-136,-443,323,120,-412,-185,627,1736,1629,950
319,-52,-371,-133,345,-211,-428,-607,-171,628,802,568
95,-256,-351,81,223,-303,-423,-876,-1020,-748,-233,55
1,-270,-270,135,136,-270,-330,-666,-797,-656,-353,-160
-31,-192,-160,112,65,-176,-102,-324,-412,-377,-272,-178
-66,-109,-43,88,-11,-76,10,-141,-196,-194,-164,-123
-78,-120,-42,100,-18,-81,47,-48,-94,-124,-131,-131
-41,-64,-23,53,-9,-43,36,-33,-85,-123,-123,-133
-48,-74,-25,61,-11,-49,42,4,-27,-84,-88,-129
-35,-50,-15,43,-10,-32,58,7,-16,-77,-93,-124
-30,-40,-10,35,-9,-25,71,19,15,-28,-88,-120
-48,-49,-1,49,-23,-25,74,28,24,-17,-91,-115
-62,-52,10,57,-36,-20,75,37,39,9,-72,-110
-64,-74,-10,69,-26,-42,82,61,59,25,-38,-100
-24,-35,-11,30,-6,-23,82,99,96,58,-19,-90
-14,-21,-6,17,-4,-13,92,116,132,106,16,-78
1,-13,-14,6,8,-14,122,147,175,147,48,-47
23,-10,-33,-6,28,-21,123,185,233,214,78,0
63,16,-47,-39,55,-15,113,227,309,297,153,43
94,61,-33,-77,63,14,108,277,384,380,221,72
111,89,-22,-100,66,33,98,321,464,484,298,114
163,150,-13,-157,88,68,93,380,562,594,401,183
172,174,2,-173,85,88,86,408,623,675,491,251
197,219,23,-208,87,121,79,413,646,724,549,284
218,249,31,-233,94,140,73,418,642,716,561,296
204,230,26,-218,89,128,66,404,612,677,543,308
224,243,20,-234,101,131,59,354,528,590,475,281
173,201,27,-187,73,114,56,302,421,437,358,204
107,149,42,-128,33,95,60,238,309,309,262,138
88,124,36,-106,26,80,75,167,210,198,172,92
42,75,34,-59,4,54,81,119,140,93,71,35
19,48,29,-34,-6,39,80,67,78,43,20,-6
-11,15,26,-3,-18,20,80,30,27,-8,-10,-41
-13,9,23,2,-18,16,80,21,2,-50,-30,-66
11,29,18,-21,-3,23,80,17,-1,-63,-29,-64
4,16,12,-10,-4,14,79,11,-6,-69,-41,-66
-5,4,9,0,-7,6,93,5,-12,-76,-49,-70
-12,-8,3,10,-7,-2,86,1,-18,-79,-56,-70
-17,-17,0,17,-8,-8,67,4,-18,-75,-68,-68
-46,-24,22,34,-34,-1,53,6,-12,-75,-45,-61
-30,-7,23,18,-27,8,37,3,-8,-73,-42,-56
-31,-2,30,16,-31,14,35,13,-4,-69,-57,-50
-51,-4,47,27,-50,21,32,20,1,-71,-41,-45
7,46,39,-26,-16,42,28,13,5,-66,-33,-41
3,38,35,-21,-17,37,27,9,-6,-68,-49,-38
-44,-12,32,27,-38,10,21,2,-31,-88,-69,-52
-31,-6,25,18,-28,9,35,-2,-41,-90,-71,-61
-40,-13,28,26,-34,7,51,-9,-39,-91,-70,-60
-46,-13,33,30,-40,10,50,-27,-51,-89,-70,-57
-22,9,31,6,-27,20,45,-36,-68,-89,-72,-55
-35,-5,30,20,-32,12,37,-43,-88,-112,-86,-54
-45,-16,29,30,-36,6,31,-45,-90,-117,-96,-57
-70,-45,25,57,-47,-10,23,-45,-92,-113,-94,-70
-83,-59,24,71,-53,-18,15,-45,-109,-119,-96,-67
-89,-53,36,70,-62,-8,9,-44,-110,-133,-95,-61
-108,-61,47,84,-77,-7,5,-46,-111,-136,-95,-58
-99,-60,39,79,-69,-10,3,-42,-118,-135,-110,-52
-97,-59,38,77,-68,-10,0,-56,-116,-140,-117,-50
-68,-34,33,51,-50,-1,-4,-72,-115,-140,-111,-50
-64,-34,29,49,-46,-3,-5,-62,-115,-139,-109,-62
-86,-40,46,63,-66,3,-10,-60,-116,-132,-107,-63
-78,-31,47,54,-63,8,-18,-56,-131,-140,-101,-55
-68,-29,38,48,-53,5,-25,-48,-136,-146,-119,-52
-57,-24,33,40,-44,4,-29,-69,-129,-144,-126,-44
-46,-19,26,32,-36,3,-25,-80,-131,-145,-111,-41
-71,-40,31,55,-51,-4,-20,-71,-128,-145,-117,-50
-83,-36,47,59,-65,6,-18,-68,-125,-145,-118,-67
-55,3,58,26,-57,31,-13,-61,-125,-140,-125,-70
-70,-17,53,43,-61,18,-10,-56,-123,-140,-135,-70
-89,-39,50,64,-69,5,-13,-51,-119,-139,-128,-70
-91,-45,47,68,-69,1,-16,-44,-117,-134,-124,-70
-88,-46,42,67,-65,-2,-16,-38,-114,-136,-115,-70
-65,-25,40,45,-52,7,-22,-31,-111,-132,-102,-59
-58,-18,40,38,-49,11,-17,-24,-109,-116,-89,-46
-75,3,79,36,-77,41,2,-19,-93,-104,-77,-31
-76,32,109,22,-93,70,20,-20,-65,-82,-68,-20
-39,68,107,-15,-73,87,18,-20,-50,-68,-56,10
3,104,101,-54,-49,102,-25,-19,-47,-74,-51,27
3,98,95,-51,-46,96,-53,-42,-62,-79,-47,-3
-26,65,91,-19,-59,78,-43,-75,-100,-103,-62,-25
-19,49,67,-15,-43,58,-37,-95,-127,-126,-71,-31
-13,30,43,-9,-28,36,-32,-100,-128,-132,-75,-43
-36,15,51,10,-44,33,-22,-88,-121,-144,-94,-49
-55,1,56,27,-55,28,-22,-96,-130,-161,-109,-57
-89,-64,25,77,-57,-20,-8,-78,-123,-171,-145,-89
-110,-78,32,93,-71,-22,-12,-90,-137,-170,-148,-85
-102,-85,17,93,-59,-34,1,-71,-117,-162,-152,-96
-108,-74,34,90,-71,-20,2,-80,-128,-166,-148,-87
-102,-86,16,93,-59,-34,8,-72,-116,-152,-151,-101
-94,-62,33,78,-63,-14,25,-62,-107,-160,-152,-91
-169,-9,160,88,-164,76,78,-57,-98,-157,-159,-68
-19,-7,12,13,-16,2,207,304,265,159,67,10
420,312,-107,-366,263,102,-137,182,679,1229,1125,643
550,281,-269,-415,409,6,-478,-372,673,1723,1593,935
301,-165,-466,-68,384,-315,-456,-792,-347,227,483,408
57,-323,-380,134,219,-351,-514,-983,-1104,-861,-345,-5
-22,-300,-278,161,128,-289,-335,-619,-676,-571,-323,-111
-49,-187,-138,118,45,-162,-94,-264,-323,-321,-213,-95
-73,-129,-56,101,-8,-92,-4,-82,-133,-170,-145,-96
-60,-95,-36,78,-12,-65,39,-28,-77,-141,-122,-93
-78,-88,-10,83,-33,-49,38,-20,-79,-131,-112,-85
-55,-65,-10,60,-22,-37,48,28,-34,-101,-104,-87
-40,-34,6,37,-23,-14,48,29,-24,-89,-97,-76
-35,-30,5,32,-20,-12,53,56,12,-70,-88,-71
-10,-39,-29,25,10,-34,56,65,15,-75,-81,-61
-13,-67,-54,40,21,-61,58,72,41,-46,-71,-54
-7,-54,-47,30,20,-50,63,98,71,-14,-64,-53
-3,-50,-47,27,22,-48,65,120,109,17,-46,-54
2,-40,-42,20,23,-41,72,157,148,52,-12,-39
10,-30,-40,10,26,-35,84,205,194,99,23,-15
52,9,-43,-30,48,-17,85,241,259,156,67,14
91,34,-57,-62,73,-11,85,294,337,235,126,51
119,38,-80,-78,99,-21,85,352,419,324,196,90
151,91,-60,-121,105,15,85,418,515,430,282,143
192,148,-44,-169,117,52,84,455,588,530,361,184
233,187,-46,-210,139,70,71,475,634,602,430,221
241,204,-37,-222,138,83,56,496,663,642,482,273
265,229,-36,-246,150,97,46,479,652,646,487,275
253,224,-29,-239,141,97,45,452,612,604,461,259
211,189,-22,-200,116,83,45,405,518,502,397,242
199,182,-17,-190,108,82,44,337,407,389,307,195
149,142,-7,-145,78,67,46,254,288,255,207,125
98,82,-15,-90,57,33,44,164,176,139,112,65
82,49,-33,-66,58,8,38,98,94,64,49,21
56,29,-27,-43,41,1,32,61,25,-8,3,-9
41,14,-26,-27,33,-6,27,35,2,-35,-25,-20
19,-3,-22,-8,21,-12,21,0,-29,-69,-54,-43
-3,-16,-13,10,5,-14,16,-16,-64,-98,-77,-49
-6,-43,-37,25,16,-40,18,-16,-66,-99,-82,-55
-17,-59,-42,39,13,-50,20,-20,-65,-100,-89,-68
-41,-48,-6,45,-17,-27,20,-22,-65,-101,-94,-64
-49,-44,5,46,-27,-19,25,-26,-62,-114,-95,-66
-37,-44,-7,41,-15,-25,25,-25,-60,-116,-95,-65
-65,-46,20,55,-42,-13,24,-25,-60,-115,-95,-65
-84,-45,39,64,-61,-3,19,-25,-68,-113,-96,-69
-74,-41,33,57,-53,-4,15,-25,-75,-109,-94,-70
-76,-40,36,58,-56,-1,13,-25,-76,-111,-90,-70
-74,-40,34,56,-54,-2,8,-25,-74,-113,-90,-70
-77,-41,36,59,-56,-2,5,-36,-80,-118,-88,-70
-69,-36,32,52,-50,-2,1,-44,-92,-122,-85,-69
-74,-44,29,59,-51,-7,0,-46,-88,-125,-85,-65
-85,-55,30,70,-57,-12,0,-44,-97,-128,-88,-65
-75,-45,30,60,-52,-8,-5,-50,-110,-130,-93,-65
-70,-39,30,55,-50,-4,-5,-73,-113,-135,-96,-64
-62,-33,29,47,-45,-2,-6,-84,-118,-144,-105,-76
-66,-25,41,46,-53,7,-10,-87,-120,-147,-111,-86
-79,-33,46,56,-62,6,-12,-92,-139,-150,-113,-87
-81,-36,44,58,-62,4,-15,-95,-147,-150,-117,-91
-62,-12,50,37,-56,19,-18,-95,-144,-150,-119,-93
-39,9,49,15,-44,29,-21,-95,-146,-150,-124,-95
-62,-22,40,42,-51,9,-16,-95,-145,-149,-125,-92
-86,-51,35,68,-60,-8,-15,-95,-145,-151,-125,-86
-35,-7,27,21,-31,10,-15,-95,-140,-149,-124,-82
-30,-10,20,20,-25,5,-10,-95,-140,-153,-127,-77
-83,-46,37,64,-59,-5,-10,-95,-140,-165,-135,-73
-92,-45,47,68,-69,1,-9,-95,-140,-165,-135,-68
-92,-44,47,68,-69,1,-5,-95,-140,-165,-136,-65
-97,-46,51,71,-74,2,-3,-93,-142,-165,-140,-63
-117,-63,54,90,-85,-4,1,-90,-145,-165,-140,-58
-99,-44,55,71,-77,6,3,-90,-145,-163,-138,-76
-81,-33,49,57,-65,7,6,-90,-145,-158,-134,-86
-88,-44,44,65,-66,0,1,-89,-145,-155,-132,-78
-83,-45,38,64,-60,-3,0,-91,-145,-152,-129,-75
-88,-54,34,71,-61,-10,-2,-89,-144,-147,-126,-71
-66,-42,25,53,-45,-8,-6,-91,-147,-145,-125,-63
-59,-18,41,38,-50,11,-2,-87,-137,-136,-115,-45
-57,28,85,15,-72,56,8,-59,-102,-121,-98,-28
-18,73,90,-28,-54,81,43,-41,-75,-109,-93,-10
-15,76,91,-30,-53,83,37,-47,-69,-97,-95,0
-24,66,90,-21,-57,78,-8,-48,-45,-90,-100,10
-23,57,80,-17,-52,68,-25,-51,-58,-90,-101,32
-21,49,71,-14,-46,60,-41,-81,-102,-96,-107,29
-28,31,58,-2,-44,44,-53,-99,-117,-113,-96,16
-61,-11,50,36,-55,19,-57,-116,-155,-150,-108,9
-67,-33,33,50,-50,0,-37,-117,-164,-177,-154,-13
-84,-55,29,69,-57,-12,-28,-124,-167,-171,-145,-34
-86,-76,10,80,-48,-33,-17,-113,-162,-173,-160,-63
-68,-48,20,57,-43,-13,-6,-117,-168,-197,-172,-71
-95,-93,2,94,-48,-45,-8,-116,-161,-201,-177,-90
-117,-104,12,110,-64,-46,-1,-103,-154,-190,-174,-83
-90,-93,-4,91,-43,-48,10,-105,-158,-182,-173,-82
-96,-87,9,92,-52,-39,48,-56,-130,-173,-181,-84
-185,-9,176,97,-180,83,80,-74,-138,-147,-154,-70
-90,-37,54,63,-72,8,210,227,139,31,-73,-63
288,203,-85,-245,186,59,-30,285,609,965,838,492
572,312,-259,-442,415,26,-445,-220,821,1762,1588,948
402,-72,-474,-164,438,-273,-470,-714,-67,551,687,529
97,-314,-411,109,255,-362,-508,-1018,-1079,-788,-289,56
8,-324,-333,158,171,-328,-391,-753,-826,-670,-395,-114
-53,-215,-163,134,55,-189,-161,-388,-452,-399,-291,-112
-95,-140,-45,118,-25,-92,-22,-147,-216,-213,-187,-77
-78,-109,-31,94,-24,-69,63,-32,-98,-136,-152,-83
-69,-85,-16,78,-26,-50,65,-39,-114,-140,-147,-79
-66,-77,-11,72,-27,-44,83,20,-58,-110,-142,-87
-68,-58,10,63,-39,-23,78,20,-59,-124,-149,-84
-33,-32,1,32,-16,-16,82,35,-9,-84,-128,-75
-13,-20,-6,17,-3,-13,84,45,2,-56,-102,-60
-41,-60,-19,51,-11,-39,88,68,34,-25,-78,-46
-38,-60,-22,49,-8,-41,95,98,61,-20,-75,-32
-28,-31,-3,30,-12,-17,101,120,88,12,-43,-18
-14,-21,-7,18,-3,-14,117,163,137,72,-5,-15
0,-15,-14,8,7,-14,115,188,171,99,2,-9
24,-1,-25,-11,24,-13,115,233,249,172,69,30
50,13,-38,-31,44,-12,115,276,309,241,108,60
43,18,-25,-31,34,-3,114,327,384,324,170,97
106,86,-20,-96,62,33,116,390,489,453,273,148
177,157,-20,-167,98,68,108,429,570,547,342,184
191,170,-21,-180,106,74,98,479,647,652,450,264
215,207,-8,-211,112,99,88,482,682,711,507,312
218,240,22,-229,98,131,76,470,674,709,508,302
209,241,32,-225,89,137,60,468,637,699,493,304
200,233,33,-217,84,133,43,429,558,612,430,261
157,194,37,-176,60,115,35,355,447,483,343,204
124,157,33,-141,46,94,30,271,325,357,250,168
72,110,39,-91,16,74,26,199,220,233,156,117
19,68,49,-44,-15,58,21,133,118,113,38,40
15,40,25,-28,-5,32,17,90,49,39,-16,-8
4,13,9,-9,-2,11,9,50,7,-2,-34,-15
-27,-21,6,24,-16,-8,-17,14,-39,-59,-91,-55
-38,-42,-4,40,-17,-23,-9,6,-52,-77,-101,-74
-36,-46,-10,41,-13,-28,8,-1,-53,-77,-100,-71
-40,-59,-18,50,-11,-38,0,-8,-61,-93,-106,-79
-3,-19,-16,12,7,-18,-3,-14,-65,-96,-104,-79
-51,-60,-9,56,-21,-34,-10,-20,-61,-96,-111,-77
-93,-95,-2,94,-45,-49,-15,-20,-60,-94,-109,-69
-48,-44,4,45,-25,-20,-21,-20,-60,-91,-111,-66
-52,-40,12,46,-32,-14,-42,-20,-56,-89,-110,-59
-43,-29,14,35,-28,-7,-46,-22,-55,-92,-110,-53
-31,-21,10,26,-20,-5,-45,-27,-57,-118,-107,-52
-25,-16,9,20,-17,-3,-50,-30,-61,-128,-93,-56
-31,-15,16,23,-23,1,-49,-37,-64,-124,-85,-67
-46,-16,30,31,-38,7,-52,-37,-82,-126,-69,-55
-70,-35,35,52,-53,0,-55,-34,-92,-124,-83,-61
-103,-68,35,85,-69,-16,-55,-36,-90,-125,-116,-90
-80,-45,35,62,-57,-5,-55,-34,-96,-125,-114,-90
-69,-34,35,51,-52,0,-55,-40,-95,-125,-115,-89
-52,-17,35,34,-43,9,-55,-58,-101,-126,-120,-91
-32,-2,30,17,-31,14,-51,-66,-107,-123,-119,-89
-60,-45,15,52,-37,-14,-50,-71,-113,-133,-122,-92
-48,-39,10,43,-29,-14,-50,-75,-115,-152,-125,-97
-38,2,40,18,-39,21,-45,-75,-115,-151,-131,-101
-36,-9,28,22,-32,9,-45,-75,-115,-149,-122,-100
-30,-28,2,29,-16,-13,-46,-75,-115,-146,-107,-100
-23,-22,0,23,-11,-10,-55,-74,-115,-143,-113,-100
-1,-15,-13,8,6,-14,-57,-79,-110,-140,-112,-99
-19,1,21,9,-20,11,-52,-84,-110,-139,-109,-102
-36,-16,20,26,-27,2,-50,-79,-110,-168,-128,-105
-39,-18,22,28,-30,2,-45,-81,-109,-182,-136,-107
-69,-16,53,42,-61,19,-42,-77,-111,-180,-130,-111
-54,-31,23,42,-39,-4,-38,-75,-109,-176,-126,-106
-34,-17,17,25,-26,0,-32,-74,-112,-176,-122,-100
-51,-34,17,42,-33,-9,-22,-80,-107,-187,-117,-94
-13,15,28,-1,-21,21,-16,-88,-115,-190,-114,-89
-21,22,42,-1,-32,31,-6,-73,-107,-171,-107,-73
-24,19,43,2,-33,31,-2,-52,-77,-143,-87,-54
23,100,77,-62,-28,88,4,-35,-73,-137,-59,-46
12,98,86,-55,-37,91,1,-46,-76,-142,-52,-33
33,112,78,-72,-23,95,-54,-53,-75,-129,-71,-31
39,115,76,-77,-19,95,-88,-63,-72,-105,-69,-28
16,87,71,-52,-28,79,-82,-93,-101,-153,-71,-27
36,103,67,-69,-16,84,-80,-91,-130,-181,-69,-22
20,48,29,-34,-4,38,-78,-111,-139,-186,-75,-28
-14,-12,2,13,-8,-5,-72,-108,-143,-229,-108,-62
-48,-29,19,38,-33,-5,-68,-106,-149,-232,-116,-74
-65,-69,-4,67,-30,-36,-54,-96,-139,-231,-138,-103
-67,-61,5,64,-36,-28,-51,-98,-145,-240,-151,-111
-87,-103,-16,96,-35,-59,-38,-89,-137,-236,-154,-116
-78,-89,-11,84,-33,-49,-32,-82,-138,-244,-159,-115
-74,-73,1,74,-37,-36,-26,-80,-140,-243,-159,-113
-78,-75,3,76,-40,-36,22,-42,-114,-242,-164,-125
-143,-28,115,85,-129,44,76,-72,-134,-243,-209,-150
-109,-137,-29,123,-39,-83,199,232,159,-25,-106,-130
239,180,-59,-210,149,61,-43,264,556,932,874,488
443,273,-170,-358,306,52,-415,-218,523,1718,1680,1032
269,-138,-407,-65,339,-273,-416,-610,-326,480,764,636
43,-255,-298,106,171,-276,-425,-836,-1067,-849,-285,96
-67,-333,-266,200,100,-299,-316,-605,-783,-680,-382,-107
-82,-224,-143,153,31,-183,-116,-301,-420,-401,-254,-120
-90,-127,-36,109,-27,-81,-22,-129,-211,-216,-159,-101
-103,-139,-35,121,-34,-87,35,-43,-117,-178,-173,-114
-95,-104,-9,100,-43,-56,44,-27,-90,-170,-150,-110
-92,-114,-22,104,-35,-68,46,15,-38,-115,-123,-105
-86,-94,-8,90,-39,-51,44,20,-43,-114,-127,-98
-86,-95,-9,91,-38,-52,45,29,-17,-54,-99,-83
-75,-79,-5,77,-35,-42,45,24,-3,-53,-86,-69
-22,-50,-28,36,3,-38,43,63,40,-38,-63,-61
-21,-59,-38,40,8,-48,26,94,52,-6,-59,-52
-34,-66,-33,51,0,-49,48,97,79,33,-30,-45
4,-32,-37,15,21,-34,99,144,139,70,9,-34
8,-20,-28,6,18,-23,107,167,173,117,32,-27
1,-24,-24,12,13,-24,105,184,228,193,75,-1
25,6,-19,-15,22,-7,105,224,294,271,136,45
58,46,-12,-52,35,16,101,267,379,370,220,95
109,101,-8,-105,58,46,100,331,491,512,327,162
150,148,-2,-149,76,73,100,379,577,636,430,221
166,170,4,-168,81,87,91,397,631,703,513,275
195,205,10,-200,92,107,78,400,658,752,550,300
218,239,22,-229,98,130,68,386,650,746,538,290
200,238,38,-219,81,138,60,375,607,693,520,283
142,196,54,-169,43,124,72,361,523,609,460,231
127,182,55,-155,36,118,87,300,411,451,326,155
102,153,50,-128,26,101,83,217,296,302,206,94
56,105,49,-80,3,76,81,160,200,192,106,27
32,77,45,-55,-7,61,77,110,124,90,27,-16
-21,23,44,-2,-32,33,76,63,57,29,-20,-60
-24,9,33,7,-29,21,71,29,27,-12,-67,-94
-14,7,21,4,-18,14,74,14,19,-30,-75,-96
-26,-15,11,20,-18,-2,79,11,1,-33,-85,-99
-34,-36,-2,35,-16,-19,70,1,-11,-46,-97,-94
-44,-38,7,41,-25,-15,64,-5,-25,-48,-93,-92
-8,9,17,-1,-12,13,57,-13,-42,-45,-108,-89
-9,5,14,1,-12,10,51,-29,-43,-58,-107,-85
-29,-14,15,21,-22,0,46,-24,-35,-67,-99,-85
-21,-6,15,13,-18,4,45,-7,-32,-64,-95,-79
-52,-37,15,44,-33,-11,45,0,-24,-66,-88,-72
-58,-42,16,49,-37,-13,45,0,-22,-65,-84,-66
-57,-24,32,40,-44,4,45,1,-30,-65,-78,-59
-58,-20,38,39,-48,8,46,5,-31,-49,-72,-57
-19,9,28,5,-23,18,50,5,-29,-32,-74,-69
6,32,26,-19,-10,29,50,2,-31,-42,-86,-85
-4,21,25,-9,-15,23,50,-7,-40,-61,-93,-85
-9,16,25,-4,-17,20,50,-13,-51,-74,-97,-80
-22,2,25,9,-24,13,50,-24,-51,-70,-102,-79
-25,0,26,12,-25,13,47,-26,-61,-83,-97,-74
-12,12,24,0,-18,17,41,-43,-95,-104,-106,-79
-46,-12,34,29,-40,10,37,-58,-90,-99,-117,-79
-53,-12,41,32,-46,15,32,-41,-76,-100,-112,-58
-35,-1,35,18,-35,17,28,-40,-95,-98,-110,-54
-30,3,33,13,-32,18,24,-40,-95,-94,-107,-71
-4,24,28,-10,-16,26,18,-37,-94,-95,-104,-77
-10,15,25,-3,-18,20,12,-34,-96,-98,-102,-74
-27,1,28,12,-28,15,7,-38,-92,-100,-99,-70
-10,34,45,-12,-28,39,1,-59,-90,-100,-100,-71
-2,52,54,-25,-28,52,-4,-57,-86,-100,-95,-64
-6,39,45,-17,-26,41,0,-52,-84,-99,-95,-59
-7,32,39,-13,-23,35,10,-49,-81,-102,-94,-48
-17,25,41,-4,-29,33,20,-45,-79,-103,-89,-53
-30,15,45,7,-38,30,28,-43,-81,-114,-91,-84
-43,0,43,21,-43,21,25,-39,-79,-115,-86,-80
-44,-5,39,25,-42,17,25,-37,-82,-109,-86,-73
-18,18,35,0,-27,26,23,-33,-78,-98,-82,-76
-27,5,32,11,-30,18,19,-42,-85,-103,-96,-74
-51,-22,29,36,-40,3,21,-52,-114,-135,-119,-71
-33,15,48,8,-41,32,15,-46,-109,-127,-111,-62
-24,37,61,-7,-42,49,17,-41,-92,-101,-101,-56
-17,61,78,-22,-48,69,12,-37,-74,-85,-88,-48
-5,106,111,-51,-58,108,23,-32,-56,-67,-73,-25
-1,103,104,-51,-53,103,14,-29,-63,-59,-58,-4
-7,91,98,-42,-53,94,-49,-45,-67,-45,-38,2
-8,86,94,-39,-51,90,-71,-66,-68,-48,-34,10
-20,66,87,-23,-54,76,-62,-91,-97,-94,-66,-16
-28,52,79,-13,-53,65,-56,-118,-125,-130,-73,-26
-45,-5,40,24,-43,18,-50,-121,-141,-150,-83,-22
-96,-73,23,84,-59,-25,-41,-108,-142,-165,-124,-58
-109,-85,23,97,-66,-31,-40,-115,-150,-173,-131,-65
-116,-105,10,110,-63,-47,-28,-97,-136,-182,-141,-85
-114,-102,12,108,-63,-44,-27,-106,-146,-189,-142,-94
-127,-141,-14,135,-57,-77,-16,-88,-135,-180,-148,-96
-180,-150,29,165,-104,-60,-11,-86,-138,-191,-158,-95
-156,-152,4,153,-79,-74,-8,-81,-133,-195,-163,-89
-113,-98,15,106,-64,-42,22,-56,-109,-203,-170,-102
-192,-44,149,118,-170,52,52,-73,-128,-207,-198,-137
-125,-124,1,124,-63,-61,171,255,193,57,-37,-64
271,180,-91,-225,181,45,-96,209,583,1057,985,584
475,203,-273,-339,374,-35,-466,-305,552,1740,1678,1014
273,-219,-492,-27,383,-355,-474,-719,-365,364,657,560
34,-337,-371,152,203,-354,-512,-947,-1124,-903,-322,60
-77,-349,-272,213,98,-310,-376,-652,-769,-661,-352,-116
-110,-245,-135,178,13,-190,-147,-315,-402,-399,-258,-109
-97,-146,-49,122,-24,-97,-35,-122,-194,-222,-164,-95
-71,-120,-49,96,-11,-84,16,-38,-118,-171,-137,-105
-71,-104,-32,88,-19,-68,23,-28,-98,-153,-130,-102
-65,-103,-38,85,-14,-70,38,7,-34,-113,-111,-111
-61,-87,-26,74,-17,-57,38,4,-34,-121,-109,-107
-60,-87,-27,74,-16,-57,46,31,-5,-92,-95,-96
-51,-75,-24,63,-13,-49,45,33,1,-93,-91,-81
-50,-73,-23,62,-13,-48,45,45,31,-61,-74,-70
-44,-63,-19,53,-12,-40,48,71,54,-29,-63,-64
-41,-55,-14,49,-14,-34,58,94,82,3,-41,-58
15,-13,-28,0,21,-21,78,127,131,36,-8,-44
49,12,-38,-30,44,-13,103,159,177,94,30,-18
-22,-56,-34,40,6,-45,113,187,217,144,59,13
-1,-36,-35,19,17,-35,102,232,285,216,110,38
54,22,-32,-37,43,-5,95,301,382,331,205,83
84,56,-29,-70,56,13,88,355,474,446,298,147
172,140,-32,-156,102,54,78,401,557,555,400,212
184,166,-18,-175,101,73,68,436,616,625,480,266
192,183,-10,-187,101,86,55,454,650,682,540,296
237,239,3,-238,117,121,47,461,660,708,566,301
211,228,17,-220,97,123,50,436,625,663,528,283
212,210,-1,-211,106,104,54,388,546,577,489,280
219,215,-4,-217,111,105,55,317,434,444,376,228
133,151,19,-142,57,85,55,238,300,285,236,142
79,119,40,-99,19,79,55,170,198,173,158,92
61,99,38,-80,11,69,54,121,128,88,81,56
44,65,21,-55,11,43,57,80,70,22,24,22
35,58,23,-47,6,41,59,47,26,-29,-15,-18
-23,0,24,11,-23,12,51,18,-8,-60,-28,-32
-11,-1,10,5,-11,5,45,8,-34,-72,-59,-40
21,18,-3,-19,11,7,37,5,-42,-90,-89,-57
29,20,-9,-24,18,6,30,0,-36,-90,-69,-58
11,16,6,-14,2,11,21,-4,-31,-85,-72,-61
-46,-33,13,39,-29,-10,19,-24,-28,-84,-80,-57
-29,-24,5,26,-17,-10,30,-14,-22,-80,-79,-55
16,23,8,-20,4,15,27,2,-21,-78,-81,-55
34,47,14,-41,10,30,21,-1,-26,-76,-80,-51
14,33,19,-24,-3,26,18,4,-28,-72,-80,-50
6,31,25,-18,-10,27,12,5,-33,-72,-81,-50
-9,21,30,-6,-20,25,9,2,-33,-65,-85,-55
-20,10,30,5,-26,20,5,-2,-47,-67,-85,-55
11,39,29,-25,-9,34,5,-7,-63,-70,-85,-56
-1,29,30,-14,-16,29,3,-9,-65,-69,-86,-61
-20,10,30,5,-25,20,-1,-23,-70,-106,-84,-59
-42,-13,30,27,-36,9,0,-39,-67,-118,-89,-62
-62,-32,30,47,-46,-1,3,-40,-64,-104,-96,-61
-44,-14,30,29,-37,8,6,-40,-67,-107,-93,-60
-52,-22,30,37,-41,4,10,-40,-83,-96,-90,-60
-52,-22,31,37,-41,4,9,-40,-93,-97,-88,-60
-24,5,29,9,-27,17,4,-48,-87,-120,-83,-60
-22,9,31,7,-27,20,1,-52,-86,-127,-90,-57
-41,-13,28,27,-34,7,-2,-57,-82,-124,-97,-70
-69,-36,33,52,-51,-1,-7,-60,-79,-126,-91,-76
-40,-23,17,31,-28,-3,-10,-62,-86,-125,-86,-69
-28,-24,3,26,-15,-10,-7,-65,-91,-125,-82,-68
-60,-17,42,38,-51,12,-4,-68,-89,-120,-74,-64
-11,36,47,-13,-29,42,-6,-71,-90,-120,-73,-60
-31,4,35,13,-33,19,-4,-66,-90,-119,-84,-54
-47,-14,32,30,-39,9,-6,-65,-90,-114,-86,-48
-13,11,24,0,-18,17,-3,-65,-95,-115,-84,-44
-36,-10,26,22,-31,8,0,-60,-96,-117,-86,-35
-53,-31,23,42,-38,-4,0,-60,-95,-125,-83,-43
-73,-52,21,62,-47,-16,3,-61,-95,-129,-91,-56
-65,-46,19,56,-42,-13,6,-65,-95,-125,-105,-55
-67,-44,23,55,-45,-10,5,-65,-95,-125,-105,-53
-66,-39,27,52,-47,-6,4,-65,-95,-125,-105,-50
-61,-37,25,49,-43,-6,-2,-65,-95,-125,-106,-49
-55,-30,25,42,-40,-3,-5,-65,-95,-124,-104,-53
-55,-30,25,42,-40,-2,-5,-69,-95,-130,-109,-63
-81,-56,25,68,-53,-16,-5,-70,-95,-137,-111,-70
-80,-55,25,67,-52,-15,-5,-70,-96,-132,-110,-72
-83,-53,30,68,-57,-11,-17,-70,-100,-131,-109,-73
-76,-48,29,62,-52,-9,-20,-70,-108,-127,-104,-82
-85,-46,39,65,-61,-3,-14,-70,-111,-125,-106,-78
-86,-40,45,63,-66,2,-13,-70,-110,-125,-102,-67
-77,-39,38,58,-57,0,-7,-70,-108,-125,-100,-70
-69,-33,36,51,-52,1,-5,-70,-104,-125,-96,-70
-47,-18,29,33,-38,5,1,-70,-105,-125,-94,-73
-88,-53,35,70,-61,-9,7,-71,-116,-139,-111,-76
-110,-75,35,92,-73,-20,10,-64,-123,-134,-110,-74
-71,-23,48,47,-59,12,19,-50,-95,-117,-97,-69
-33,41,73,-4,-53,57,20,-43,-60,-100,-87,-58
-48,40,87,4,-68,63,33,-39,-47,-76,-72,-51
-42,63,104,-11,-73,83,7,-36,-44,-65,-67,-37
2,92,90,-47,-44,91,-57,-29,-33,-51,-71,0
-6,71,77,-33,-42,74,-68,-42,-54,-59,-73,8
-4,64,68,-30,-37,66,-61,-80,-103,-100,-76,-8
-7,46,53,-19,-30,49,-67,-105,-127,-131,-84,-20
-78,-37,41,57,-60,3,-58,-114,-146,-153,-106,-47
-127,-102,25,115,-76,-38,-40,-103,-148,-162,-124,-56
-117,-89,28,103,-72,-31,-41,-110,-154,-160,-115,-62
-119,-101,17,110,-67,-41,-33,-94,-142,-158,-135,-80
-112,-88,24,100,-68,-32,-36,-104,-152,-169,-141,-79
-113,-102,11,107,-61,-46,-27,-87,-138,-174,-149,-105
-104,-85,19,94,-61,-33,-31,-94,-153,-177,-142,-95
-86,-79,7,82,-46,-36,-14,-89,-151,-167,-146,-103
-107,-67,40,87,-73,-13,9,-76,-137,-172,-157,-100
-171,-23,149,97,-160,63,54,-58,-124,-161,-155,-95
-68,-65,3,67,-35,-31,168,284,224,126,29,-23
348,227,-121,-287,234,53,-156,160,622,1143,1053,622
531,247,-284,-389,407,-19,-500,-364,659,1746,1636,959
293,-168,-460,-62,377,-314,-506,-788,-323,329,578,469
64,-320,-384,128,224,-352,-549,-1014,-1140,-868,-330,30
-51,-328,-276,190,113,-302,-386,-666,-740,-623,-353,-126
-88,-203,-115,146,14,-159,-151,-306,-378,-373,-262,-94
-105,-151,-47,128,-29,-99,-35,-116,-181,-200,-190,-76
-107,-145,-38,126,-34,-91,13,-47,-112,-156,-169,-86
-85,-98,-13,92,-35,-56,22,-33,-104,-156,-171,-85
-101,-110,-10,106,-45,-60,28,0,-61,-133,-158,-99
-111,-101,10,106,-60,-45,29,-2,-63,-147,-161,-87
-120,-109,11,115,-65,-49,31,32,-27,-113,-134,-85
-105,-96,10,100,-57,-43,29,42,-14,-88,-96,-73
-87,-83,4,85,-45,-40,40,50,19,-54,-93,-60
-68,-68,-1,68,-33,-34,44,74,42,-37,-81,-51
-39,-53,-14,47,-12,-34,68,100,70,-9,-66,-39
-76,-93,-17,85,-29,-54,78,127,110,18,-65,-32
-45,-81,-36,64,-4,-58,73,161,154,60,-23,-17
-14,-27,-13,21,0,-20,73,206,209,118,20,12
-72,-26,46,49,-59,10,69,259,287,203,91,46
-11,3,14,3,-12,8,70,318,380,312,175,80
85,80,-6,-82,45,37,70,372,474,416,245,126
109,113,5,-111,52,59,70,424,564,519,351,209
160,156,-4,-158,82,76,73,464,630,602,438,280
