I,II,III,aVR,aVL,aVF,V1,V2,V3,V4,V5,V6
6,-69,-75,32,41,-72,301,828,774,295,-20,-110
16,-59,-75,22,46,-67,300,773,725,289,-15,-104
20,-26,-45,3,33,-35,267,618,583,263,15,-71
26,24,-2,-25,14,11,212,458,431,226,47,-31
31,46,16,-39,7,31,166,317,294,182,54,-3
21,61,40,-42,-9,50,137,213,203,138,48,6
4,63,59,-34,-27,61,122,156,143,108,41,5
-11,55,67,-22,-39,61,106,123,100,93,34,5
-13,52,64,-20,-39,58,91,109,77,78,26,5
-11,44,55,-17,-33,50,78,110,68,61,19,5
-10,41,50,-16,-30,45,65,108,70,47,13,3
-6,35,41,-15,-24,38,55,104,69,44,8,-4
5,32,27,-19,-11,29,41,104,70,45,5,-9
11,24,13,-18,-1,19,37,106,69,41,2,-14
9,1,-7,-5,8,-3,44,112,72,39,-3,-20
29,-10,-38,-9,34,-24,51,116,79,41,-5,-24
34,-11,-45,-11,40,-28,57,121,85,44,-5,-21
23,-16,-39,-4,31,-27,63,123,92,45,-5,-18
24,-12,-36,-5,30,-24,72,129,99,42,-5,-15
28,-2,-30,-12,29,-16,80,140,100,39,-5,-12
29,6,-23,-17,26,-8,80,140,100,40,-5,-10
27,12,-15,-20,21,-1,80,140,100,40,-3,-7
29,19,-10,-24,19,5,80,140,99,40,0,-5
6,26,20,-16,-7,23,78,139,100,46,3,-2
4,33,29,-19,-13,31,74,141,97,43,6,1
7,33,27,-20,-10,30,72,122,87,37,9,4
-24,26,50,-1,-37,37,69,98,77,34,10,5
-28,19,47,4,-38,33,66,87,68,29,4,-1
-29,12,41,8,-35,27,64,78,60,24,-1,-6
-33,6,38,13,-36,22,59,67,52,20,-6,-11
-33,0,33,16,-33,16,53,60,44,15,-12,-17
-34,-5,29,19,-31,12,49,60,38,11,-18,-23
-30,-10,20,20,-25,5,43,59,30,6,-18,-23
-30,-15,15,22,-22,0,37,55,22,1,-15,-20
-25,-18,7,22,-16,-5,37,55,16,2,-15,-20
-25,-24,1,25,-13,-11,48,57,20,7,-15,-16
-28,-25,3,27,-15,-11,55,62,27,10,-15,-14
-36,-25,11,30,-23,-7,54,67,33,13,-16,-16
-40,-25,15,32,-27,-5,57,70,35,18,-19,-20
-41,-19,22,30,-31,2,60,65,35,20,-20,-20
-38,-14,24,26,-31,5,60,65,38,15,-20,-21
-26,-6,19,16,-22,6,58,64,41,11,-20,-25
-30,-10,21,20,-25,5,51,60,40,9,-20,-25
-38,-21,17,29,-27,-2,47,61,36,5,-18,-23
-33,-18,16,25,-24,-1,42,58,35,0,-14,-18
-6,8,14,-2,-10,11,35,56,36,2,-10,-15
8,32,24,-20,-8,27,31,55,34,9,-7,-12
-8,30,38,-11,-23,34,36,56,37,14,-2,-8
-5,30,35,-13,-20,32,43,54,32,21,0,-4
-10,30,40,-10,-25,35,44,56,30,24,-5,-1
-9,29,38,-11,-23,33,37,50,30,21,-5,0
0,31,31,-15,-16,31,32,49,29,20,-5,0
0,23,23,-12,-12,23,29,52,32,19,-6,0
0,19,19,-10,-10,19,22,45,26,15,-3,1
-1,9,9,-4,-5,9,23,58,31,14,-10,-4
1,7,5,-4,-2,6,20,37,14,15,-14,-11
-3,-5,-2,4,0,-4,34,52,27,4,-31,-24
15,4,-11,-10,13,-3,26,15,5,4,-27,-18
27,14,-13,-20,19,1,49,39,18,-8,-32,-14
39,-13,-51,-13,45,-32,29,0,9,-8,-30,-5
32,1,-30,-16,31,-14,18,14,50,19,-17,2
45,14,-32,-29,38,-9,1,-39,132,123,28,7
52,145,94,-99,-21,119,-365,-1153,-629,95,87,69
150,372,222,-261,-37,297,-1022,-2463,-1679,-6,227,222
541,548,7,-545,267,277,-1749,-3062,-2093,176,738,593
766,334,-432,-550,599,-49,-1749,-2648,-1929,-292,597,626
638,-137,-774,-250,706,-455,-1074,-1584,-1390,-907,-93,257
518,-217,-735,-150,627,-476,-634,-918,-914,-707,-188,140
432,-175,-607,-128,519,-391,-390,-488,-541,-488,-151,96
202,-110,-311,-46,257,-210,-134,-104,-184,-220,-104,27
19,-15,-34,-1,27,-24,65,137,47,-30,-69,-14
-3,-16,-13,10,5,-14,102,178,86,-40,-90,-38
-42,-6,36,24,-39,15,116,181,97,-23,-69,-35
-46,-12,34,29,-40,11,129,198,104,-41,-81,-53
-42,-11,31,27,-36,10,114,197,96,-34,-70,-58
-73,-42,30,57,-51,-6,118,211,104,-42,-82,-73
-83,-61,22,71,-52,-19,108,200,96,-37,-87,-76
-83,-61,22,72,-52,-19,107,211,106,-34,-85,-81
-100,-71,29,85,-64,-21,108,221,116,-33,-86,-89
-111,-69,42,89,-76,-13,111,229,129,-27,-84,-90
-101,-71,30,86,-66,-20,125,249,148,-27,-86,-96
-98,-69,29,83,-63,-20,139,275,170,-24,-85,-99
-91,-71,21,81,-56,-25,143,296,190,-20,-85,-101
-84,-69,15,76,-50,-27,159,321,207,-13,-85,-100
-87,-61,26,74,-56,-17,170,360,235,-9,-85,-100
-85,-54,31,70,-58,-11,173,386,257,-2,-85,-100
-78,-48,30,63,-54,-8,189,418,278,3,-85,-98
-68,-41,28,54,-48,-6,191,449,303,8,-84,-91
-60,-35,25,47,-42,-5,210,493,341,17,-79,-84
-54,-29,25,41,-39,-2,232,534,378,28,-74,-78
-54,-24,30,38,-42,3,226,538,383,37,-72,-70
-56,-18,38,37,-47,10,205,507,369,58,-55,-67
-23,10,33,6,-28,21,158,417,332,91,-16,-40
15,42,27,-29,-6,35,110,316,265,99,27,-6
19,42,23,-31,-2,32,70,220,192,87,41,-5
13,29,16,-21,-1,22,35,142,134,76,30,-5
6,18,12,-12,-3,15,6,101,86,65,22,-5
3,6,3,-5,0,4,-17,67,61,48,13,-5
4,-11,-15,4,10,-12,-26,43,38,35,3,-5
1,-28,-29,13,15,-28,-33,34,18,32,0,-10
2,-29,-30,14,16,-29,-29,36,15,26,0,-10
10,-20,-30,5,20,-24,-17,35,15,23,-2,-10
19,-11,-30,-4,25,-21,-8,35,15,17,-6,-10
24,-6,-30,-9,27,-17,3,35,15,16,-5,-10
42,12,-30,-27,36,-9,12,37,15,23,-1,-8
46,19,-26,-32,36,-3,23,52,20,27,8,1
29,10,-19,-19,24,-4,36,62,29,34,16,9
35,20,-16,-27,26,2,32,73,42,37,24,17
55,46,-8,-50,31,19,18,77,53,49,32,24
57,53,-5,-55,31,24,8,69,56,48,28,16
31,35,4,-33,13,19,4,65,49,29,13,3
7,30,23,-19,-8,26,5,59,45,25,2,-5
2,28,26,-16,-12,27,5,53,41,26,0,-5
0,24,24,-13,-13,24,5,50,36,22,0,-5
-3,22,25,-10,-14,23,5,50,35,20,0,-5
-6,19,25,-7,-15,21,15,50,35,20,0,-5
1,25,24,-13,-12,24,31,50,35,16,0,-6
6,26,20,-16,-7,22,39,50,35,15,-4,-9
2,22,20,-12,-9,21,41,50,35,15,-5,-10
0,20,20,-10,-10,20,39,53,35,10,-5,-10
-3,16,20,-6,-12,18,41,57,35,10,-9,-10
-6,15,20,-5,-14,17,52,60,35,11,-11,-10
-4,12,16,-4,-10,13,63,64,35,15,-9,-8
-6,9,15,-2,-10,12,75,66,35,20,-4,-1
-4,10,15,-3,-10,12,83,71,35,22,2,4
-6,10,15,-2,-11,12,76,74,33,27,5,9
-4,10,14,-4,-9,12,68,79,29,30,10,15
-9,9,17,0,-13,13,59,84,27,27,14,19
-31,5,36,13,-34,20,54,78,24,24,12,15
-36,5,41,15,-39,22,41,72,21,21,9,15
-35,5,40,15,-38,22,27,67,19,18,6,14
-35,5,40,15,-38,22,30,61,14,16,3,10
-34,5,39,14,-37,22,30,56,8,13,0,10
-56,-1,56,28,-56,27,30,51,4,10,0,8
-76,-14,62,45,-68,23,30,50,-2,7,0,4
-78,-23,56,50,-67,16,30,50,-8,5,0,2
-75,-20,55,47,-65,17,33,50,-8,1,0,-1
-70,-20,50,45,-60,15,43,50,-1,-1,0,-4
-69,-20,49,45,-59,15,55,51,4,4,0,-6
-74,-20,54,47,-64,17,68,58,9,5,4,-9
-75,-20,55,47,-65,17,72,64,15,5,5,-10
-72,-17,55,44,-63,19,66,69,19,5,5,-11
-67,-14,53,40,-59,19,61,73,20,4,5,-15
-60,-11,49,36,-55,19,58,78,20,6,5,-15
-59,-8,51,33,-54,21,52,79,20,11,6,-13
-58,-5,53,31,-55,23,51,75,20,14,10,-8
-62,-4,58,33,-60,27,64,75,20,17,10,-2
-58,2,61,28,-60,31,73,73,22,21,10,1
-61,9,70,26,-66,39,78,70,33,25,10,7
-78,16,94,31,-86,55,84,71,41,21,10,10
-80,22,102,29,-92,62,88,74,40,20,13,5
-67,32,99,17,-83,65,92,77,45,19,15,5
-56,42,98,7,-77,69,100,80,46,16,15,4
-58,36,94,10,-76,65,110,80,43,15,15,0
-66,32,98,17,-82,64,114,74,39,17,15,0
-81,28,109,26,-95,68,106,70,34,30,14,-2
-80,22,102,29,-92,62,99,69,33,29,7,-7
-77,19,96,29,-87,57,92,61,25,20,3,-9
-81,7,88,37,-85,48,85,64,28,15,-3,-14
-67,-5,62,35,-64,28,69,58,16,7,-8,-17
-63,-22,41,43,-52,9,62,75,24,2,-14,-20
-62,-27,35,44,-48,4,48,67,16,2,-12,-16
-57,-22,34,39,-45,6,46,79,22,13,-5,-10
-48,-25,23,37,-35,-2,37,64,21,12,-4,-11
-43,-14,29,28,-36,7,27,51,16,25,7,-1
-39,-27,12,33,-26,-7,29,62,48,22,1,-6
-28,8,37,10,-33,22,-5,8,15,35,22,12
-8,32,39,-12,-24,35,10,89,171,127,58,27
9,115,106,-62,-49,110,-248,-694,-231,167,120,72
83,317,234,-201,-76,275,-908,-2154,-1283,32,186,184
412,487,75,-450,168,281,-1709,-2995,-1882,187,555,471
744,500,-244,-622,494,128,-1965,-2886,-1821,248,854,730
740,66,-674,-403,707,-304,-1385,-1930,-1382,-466,305,457
546,-292,-838,-127,692,-565,-782,-1108,-982,-758,-144,131
406,-315,-721,-45,563,-517,-439,-621,-641,-551,-176,45
242,-274,-517,16,380,-395,-210,-252,-327,-395,-192,-38
-1,-140,-138,71,69,-139,0,48,-24,-118,-94,-56
-82,-93,-11,88,-35,-52,104,186,108,-50,-84,-60
-91,-92,-1,92,-45,-47,106,174,92,-56,-87,-64
-124,-95,30,109,-77,-32,127,212,121,-44,-79,-71
-119,-100,19,109,-68,-41,123,210,117,-49,-83,-75
-119,-88,31,103,-75,-28,138,233,134,-37,-77,-81
-109,-89,20,98,-64,-34,158,245,146,-41,-78,-89
-113,-81,32,96,-72,-25,183,258,156,-27,-71,-81
-128,-78,49,103,-88,-14,203,284,173,-24,-71,-80
-127,-73,53,100,-89,-10,213,305,189,-15,-67,-76
-125,-65,59,95,-92,-3,219,327,208,-10,-64,-71
-127,-55,72,91,-99,8,233,346,231,-5,-68,-72
-124,-44,80,84,-102,17,248,378,250,0,-70,-75
-120,-37,84,78,-102,23,245,397,266,3,-70,-76
-121,-34,87,77,-104,27,243,407,278,9,-70,-80
-120,-31,89,76,-104,29,240,426,285,12,-70,-81
-125,-28,97,76,-111,34,237,462,312,18,-70,-77
-126,-25,100,75,-113,37,235,496,331,21,-64,-72
-117,-24,93,70,-105,35,230,511,342,27,-61,-70
-105,-16,89,60,-97,36,217,537,374,30,-55,-65
-91,-8,83,49,-86,37,206,572,413,41,-53,-62
-72,6,78,32,-75,42,192,572,436,70,-40,-57
-38,33,71,2,-55,52,156,535,431,115,-1,-34
-12,43,55,-16,-34,49,117,453,389,150,42,-2
-1,38,38,-19,-20,38,93,355,326,146,70,19
3,33,30,-18,-14,31,83,280,262,135,67,21
-3,27,30,-12,-17,29,86,227,204,120,59,19
-9,21,30,-6,-19,25,82,184,156,96,53,21
-14,16,30,-1,-22,23,80,152,125,83,45,20
-15,15,30,0,-23,22,80,133,112,72,40,20
-17,15,32,1,-25,23,76,112,103,59,35,20
-20,15,35,2,-28,25,70,93,90,52,32,20
-23,15,38,4,-31,26,65,89,72,49,28,20
-26,15,41,5,-34,28,60,90,61,46,25,20
-30,14,44,8,-37,29,52,86,59,43,19,20
-38,8,46,15,-42,27,52,85,56,40,26,19
-30,2,32,14,-31,17,54,84,53,39,27,13
-24,-2,21,13,-22,9,63,81,50,30,12,6
-35,-9,26,22,-31,8,88,78,48,20,4,-1
-38,-14,24,25,-31,5,99,75,45,10,-2,-8
-37,-12,25,24,-31,6,100,73,45,1,-10,-14
-49,-9,40,28,-44,15,105,69,46,-2,-17,-15
-54,-7,47,30,-50,20,107,75,45,-6,-25,-15
-46,-3,43,24,-44,20,111,86,46,-9,-30,-16
-49,-1,48,24,-48,23,109,86,49,-14,-30,-15
-56,2,59,27,-58,30,104,85,50,-14,-30,-15
-49,4,53,22,-51,28,99,86,51,-9,-30,-14
-39,7,46,16,-43,26,94,84,49,-6,-30,-9
-39,-1,38,20,-38,19,91,87,51,-3,-28,-11
-39,-8,30,23,-34,11,84,93,49,2,-21,-7
-43,-18,25,30,-34,4,89,108,57,5,-16,-5
-42,-24,18,33,-30,-3,92,105,58,8,-10,-6
-23,0,23,11,-23,11,97,118,69,13,-5,-1
-18,-2,15,10,-17,6,100,114,65,15,-6,-1
-39,-2,36,20,-37,17,109,113,56,21,-2,1
-49,1,50,24,-50,25,127,122,66,22,-9,-2
-40,10,51,15,-46,30,123,102,40,28,0,2
-41,13,54,14,-48,34,135,130,71,30,-12,-1
-39,20,59,9,-49,39,98,36,17,30,9,16
-2,50,52,-25,-27,51,72,118,134,80,42,29
21,78,57,-50,-18,67,-91,-348,-10,158,83,43
95,279,184,-187,-45,231,-680,-1789,-969,62,158,150
383,483,100,-433,141,291,-1534,-2883,-1728,169,454,403
741,520,-221,-630,481,149,-1987,-3078,-1872,344,867,711
843,231,-612,-536,727,-190,-1588,-2341,-1649,-399,434,560
646,-180,-827,-233,737,-503,-948,-1427,-1259,-903,-165,177
469,-270,-738,-99,604,-504,-543,-856,-854,-648,-198,66
329,-242,-570,-43,450,-406,-290,-430,-494,-471,-210,8
57,-142,-200,43,129,-171,-46,-72,-150,-180,-127,-26
-54,-69,-16,62,-19,-42,101,132,46,-43,-75,-35
-18,-58,-41,38,12,-49,94,149,63,-41,-77,-50
-35,-44,-10,40,-13,-27,107,187,97,-15,-62,-57
-44,-54,-9,49,-17,-31,116,197,108,-27,-71,-63
-61,-43,19,52,-40,-12,136,226,135,-10,-58,-57
-64,-46,18,55,-41,-14,152,252,151,-14,-62,-57
-74,-46,28,59,-51,-9,170,277,169,-4,-61,-53
-100,-50,49,75,-75,0,198,310,195,0,-66,-57
-122,-54,69,88,-95,7,206,313,202,7,-68,-59
-143,-56,87,99,-114,15,221,325,209,15,-70,-67
-145,-61,84,102,-114,11,224,325,211,20,-75,-79
-142,-56,86,98,-113,15,228,347,235,28,-75,-80
-136,-52,84,93,-110,16,229,373,260,33,-68,-85
-133,-47,86,90,-109,19,238,409,288,53,-61,-84
-126,-44,82,85,-103,19,254,462,332,64,-55,-78
-105,-35,70,70,-87,17,246,508,383,83,-47,-74
-84,-25,59,54,-71,17,237,559,435,106,-38,-69
-62,-15,47,38,-54,16,229,610,486,121,-27,-65
-46,-5,41,25,-43,18,211,651,532,148,-18,-61
-32,6,39,13,-36,22,177,647,547,162,-3,-53
0,36,35,-19,-18,35,131,585,520,185,20,-32
27,59,32,-43,-3,46,83,473,441,190,56,6
28,58,30,-43,-1,44,51,349,334,171,76,23
20,50,30,-35,-5,40,49,250,244,153,65,13
11,42,30,-26,-10,36,50,173,166,116,55,8
5,34,29,-20,-12,31,49,106,99,82,45,1
-15,26,41,-6,-28,33,50,64,64,51,19,-6
-48,10,58,19,-53,34,50,42,37,26,1,-22
-58,-5,53,32,-56,24,54,30,12,15,-4,-35
-54,-9,46,31,-50,18,56,29,10,11,-9,-35
-55,-16,39,35,-47,11,54,25,10,9,-12,-35
-55,-24,31,39,-42,3,57,23,6,4,-18,-35
-44,-19,25,31,-34,2,59,18,5,0,-19,-35
-29,-13,16,21,-22,1,62,25,5,2,-14,-34
-31,-5,26,18,-28,10,65,35,16,9,-9,-29
-30,0,30,15,-30,15,65,44,30,14,-5,-26
-6,10,16,-2,-11,12,65,71,43,19,0,-23
11,20,9,-16,1,15,64,96,61,26,5,-18
11,4,-8,-7,9,-2,67,111,72,29,2,-15
14,-7,-21,-3,18,-14,71,110,72,26,-1,-18
3,-17,-20,7,12,-18,66,102,69,23,-4,-21
-14,-34,-20,24,3,-27,61,95,67,21,-7,-24
-11,-30,-20,21,5,-25,58,89,64,17,-9,-27
-4,-25,-20,14,8,-22,51,79,61,15,-12,-30
-21,-20,1,20,-11,-9,52,81,59,12,-15,-30
-49,-13,36,30,-42,11,62,90,55,10,-15,-30
-52,-10,41,31,-47,16,60,84,55,10,-17,-30
-46,-10,36,27,-41,13,60,79,54,6,-20,-30
-44,-10,34,27,-39,11,58,73,50,5,-20,-30
-39,-10,29,24,-34,10,54,67,50,5,-23,-30
-36,-10,26,22,-31,8,56,63,48,0,-26,-30
-37,-14,22,25,-29,4,51,56,37,-5,-24,-30
-41,-24,17,32,-29,-3,50,49,28,-10,-28,-30
-42,-28,14,35,-28,-7,50,43,29,-13,-36,-30
-33,-24,9,29,-21,-7,45,35,30,-19,-32,-30
-41,-18,23,29,-32,2,45,31,31,-18,-29,-29
-52,-15,37,33,-44,11,44,35,35,-11,-26,-24
-41,-10,31,25,-36,10,40,43,35,-4,-21,-21
-31,-5,26,18,-28,10,38,52,37,2,-19,-18
-29,-9,20,18,-24,5,35,60,42,10,-15,-13
-25,-10,15,18,-20,2,32,63,44,14,-15,-10
-19,-10,9,14,-14,0,29,66,41,11,-13,-14
-18,-15,3,16,-10,-6,27,64,38,8,-9,-15
-13,-15,-2,14,-5,-8,24,66,36,6,-10,-15
-8,-16,-8,12,0,-12,21,70,32,2,-14,-19
-12,-20,-8,16,-2,-14,18,64,30,0,-24,-21
-18,-20,-2,19,-8,-11,15,56,28,-3,-28,-18
-22,-20,2,21,-12,-8,14,48,22,-5,-25,-15
-27,-20,6,23,-17,-7,8,41,18,-8,-25,-15
-31,-20,11,25,-21,-4,3,36,14,-11,-25,-15
-33,-17,16,25,-24,-1,-2,31,9,-15,-25,-15
-35,-14,21,24,-28,4,-8,27,6,-15,-25,-15
-42,-11,31,27,-37,10,-14,21,10,-10,-28,-18
-43,-8,35,25,-39,13,-11,17,11,-10,-31,-21
-40,-5,35,22,-37,15,-8,16,10,-8,-29,-20
-39,-4,35,21,-37,16,-4,28,16,-5,-30,-20
-33,1,34,16,-34,17,-1,37,14,-5,-30,-20
-33,3,36,14,-35,20,4,44,17,-3,-29,-19
-13,20,33,-4,-24,26,5,49,23,2,-23,-14
7,39,33,-23,-13,36,-2,45,16,5,-16,-8
6,32,27,-19,-11,29,3,59,26,7,-15,-6
-6,37,42,-16,-24,39,-6,46,18,14,-3,2
-21,30,50,-5,-36,40,-1,69,37,14,-5,3
-8,29,37,-11,-23,33,-10,48,25,22,8,3
-6,34,40,-14,-23,37,2,83,53,19,2,-2
11,29,19,-20,-4,24,1,72,36,18,5,-5
11,45,34,-28,-12,39,3,94,56,36,11,-2
12,17,5,-15,3,11,-5,41,175,142,36,6
16,118,102,-67,-43,109,-332,-1042,-525,119,107,58
122,320,198,-221,-38,259,-982,-2367,-1566,50,247,214
529,486,-43,-508,285,222,-1733,-3010,-1998,308,782,593
787,262,-525,-524,656,-132,-1776,-2641,-1852,-148,688,634
669,-233,-902,-218,786,-567,-1090,-1564,-1319,-816,-35,258
517,-304,-820,-106,669,-562,-621,-866,-854,-657,-158,125
385,-238,-624,-73,505,-431,-372,-462,-521,-488,-164,76
142,-156,-298,7,220,-227,-116,-117,-199,-244,-135,2
-34,-63,-29,49,-2,-46,61,113,33,-48,-62,-35
-45,-65,-19,55,-13,-42,96,168,82,-48,-84,-62
-64,-41,23,52,-44,-8,107,187,100,-15,-63,-58
-67,-43,24,55,-45,-9,119,218,125,-25,-73,-61
-68,-29,39,48,-53,5,118,226,125,-10,-62,-59
-73,-27,46,49,-59,10,129,239,135,-10,-68,-60
-96,-32,64,64,-80,16,150,245,152,-2,-73,-62
-134,-35,100,84,-117,32,184,268,168,-1,-75,-74
-141,-40,100,90,-121,30,182,273,163,-11,-81,-83
-147,-43,104,94,-125,30,180,285,166,-14,-89,-89
-136,-48,88,92,-112,20,177,291,164,-24,-97,-98
-130,-52,78,91,-104,13,174,297,173,-28,-98,-103
-131,-64,67,97,-98,1,171,320,198,-25,-101,-111
-135,-76,59,106,-97,-8,170,343,216,-17,-95,-115
-133,-82,50,107,-91,-16,178,369,240,-11,-95,-115
-117,-76,41,96,-79,-17,188,406,272,-4,-95,-115
-124,-66,58,95,-91,-4,198,442,300,3,-89,-115
-120,-59,61,89,-90,1,208,476,334,9,-91,-115
-104,-49,55,76,-79,3,216,511,368,21,-87,-115
-97,-43,54,70,-76,6,214,548,400,32,-79,-111
-81,-32,49,57,-65,8,217,561,431,48,-71,-98
-57,-6,51,31,-54,23,205,527,430,76,-41,-74
-26,30,56,-2,-41,43,158,461,398,115,8,-39
1,60,59,-31,-29,59,113,355,334,138,51,-4
-5,59,64,-28,-35,62,80,264,259,127,60,0
-16,48,64,-16,-40,56,67,203,197,113,50,-7
-17,41,58,-12,-37,49,62,146,139,91,45,-10
-20,30,51,-5,-36,41,51,100,86,59,37,-15
-21,23,44,-1,-33,34,47,61,62,37,35,-20
-22,16,37,3,-30,26,48,53,59,29,32,-17
-22,9,31,6,-27,20,53,58,53,30,29,-14
-25,1,26,12,-25,13,54,60,48,30,26,-15
-26,-6,20,16,-23,6,60,64,42,30,24,-15
-25,-10,15,17,-20,2,81,67,42,30,21,-15
-19,-10,9,14,-14,0,102,73,49,30,20,-13
-13,-10,3,11,-8,-3,124,76,56,30,20,-10
-11,-10,1,10,-6,-4,134,80,62,30,20,-10
-16,-10,6,12,-11,-2,130,85,68,30,20,-10
-19,-10,9,15,-14,0,125,90,72,30,18,-10
-16,-4,12,10,-13,4,120,93,77,30,12,-10
-17,1,18,7,-17,9,116,99,79,37,8,-13
-11,8,19,1,-15,13,111,110,75,36,4,-16
-18,8,25,5,-22,17,110,110,75,29,-2,-19
-21,1,22,9,-22,11,110,110,74,26,-5,-22
-39,-4,35,21,-37,15,120,110,69,21,-15,-25
-76,-10,66,42,-70,27,128,110,70,16,-23,-24
-68,-3,65,35,-66,31,125,110,67,15,-18,-19
-57,7,65,24,-61,36,125,105,64,15,-15,-16
-47,18,65,14,-57,41,123,105,65,15,-12,-13
-42,23,65,9,-54,43,119,105,65,15,-7,-8
-47,16,63,15,-55,39,120,105,65,15,-6,-5
-43,9,52,17,-48,30,116,106,64,14,-9,-9
-42,3,44,19,-43,23,112,102,60,11,-12,-10
-40,-5,35,22,-37,15,109,100,60,10,-15,-10
-35,-9,26,22,-30,8,105,100,60,10,-17,-15
-26,-5,20,15,-23,7,102,100,60,10,-21,-15
-25,-5,20,15,-22,7,98,100,60,10,-17,-16
-23,-4,19,13,-21,7,95,101,62,10,-15,-20
-14,0,14,7,-14,7,92,104,65,10,-15,-20
-15,0,16,7,-15,7,90,105,65,10,-11,-20
-15,-3,12,9,-13,4,87,105,68,10,-10,-20
-15,-5,9,10,-12,1,84,105,71,10,-10,-20
-12,-5,7,8,-9,1,86,106,70,10,-16,-24
-12,-9,3,10,-7,-2,85,103,66,5,-22,-25
-39,-11,28,25,-34,8,86,101,62,5,-26,-25
-61,-9,52,35,-57,21,85,97,59,4,-32,-25
-54,-6,48,30,-50,21,86,94,55,0,-38,-25
-45,-3,42,24,-43,19,102,91,51,0,-38,-24
-40,0,40,20,-40,20,108,88,47,-2,-34,-20
-31,2,33,14,-32,17,102,87,45,-8,-36,-20
-25,6,31,9,-28,18,99,77,38,-12,-31,-17
-32,2,35,14,-34,18,97,79,40,-16,-30,-15
-38,-4,34,21,-36,15,90,67,29,-22,-29,-15
-45,-8,38,26,-41,15,90,70,33,-24,-25,-18
-54,-16,38,35,-46,11,80,59,23,-23,-26,-21
-61,-17,44,39,-52,13,74,60,25,-13,-23,-19
-62,-28,33,45,-47,2,68,60,28,-18,-28,-21
-54,-15,39,34,-46,12,55,44,17,-5,-21,-18
-49,-18,31,33,-40,7,61,69,39,-10,-27,-20
-37,1,38,17,-37,19,24,17,4,3,-3,-10
-8,25,34,-9,-21,29,28,94,171,96,21,8
29,71,42,-50,-7,56,-195,-559,-134,152,75,41
85,269,184,-177,-50,226,-858,-2029,-1163,35,147,142
376,473,97,-425,139,285,-1654,-2968,-1853,127,450,403
753,579,-174,-666,463,202,-1981,-2973,-1866,351,899,726
808,296,-511,-551,659,-108,-1533,-2129,-1472,-255,528,596
603,-107,-710,-248,657,-408,-910,-1285,-1111,-773,-66,236
438,-242,-680,-98,560,-461,-511,-745,-761,-612,-170,104
315,-251,-566,-32,440,-408,-254,-315,-399,-443,-202,-2
67,-109,-176,22,121,-142,3,22,-70,-166,-124,-44
-77,-52,24,64,-50,-14,143,204,105,-44,-81,-37
-85,-65,20,74,-53,-22,148,207,100,-45,-89,-60
-95,-50,45,72,-69,-2,177,242,133,-26,-80,-60
-78,-57,21,67,-49,-18,176,242,145,-34,-91,-71
-75,-45,30,60,-53,-7,182,260,158,-16,-87,-74
-74,-57,17,65,-45,-20,186,282,169,-20,-92,-75
-78,-62,16,69,-46,-23,184,296,185,-9,-89,-76
-85,-59,26,71,-55,-16,186,320,207,-6,-90,-74
-106,-69,37,87,-72,-16,184,337,219,1,-90,-82
-105,-72,33,88,-68,-20,192,356,232,6,-83,-85
-90,-61,30,76,-60,-15,208,369,250,11,-75,-80
-112,-54,58,83,-85,2,219,400,275,25,-67,-78
-107,-38,70,73,-89,16,222,429,298,39,-59,-73
-99,-15,84,57,-91,34,239,485,341,57,-57,-70
-116,-15,101,65,-108,42,270,534,380,61,-63,-74
-138,-20,119,79,-129,49,291,567,402,59,-67,-79
-150,-22,128,86,-139,53,291,602,423,61,-70,-83
-142,-26,115,84,-128,44,290,621,439,60,-65,-84
-138,-30,108,84,-123,39,285,664,477,61,-58,-79
-124,-25,99,74,-111,36,287,694,518,82,-54,-74
-102,-15,87,58,-94,36,260,680,519,112,-43,-72
-75,-5,70,40,-72,32,183,586,480,131,-17,-56
-36,21,57,7,-47,39,115,441,386,129,19,-23
-14,31,45,-9,-30,38,67,326,293,116,41,-14
-16,20,36,-3,-26,28,54,235,221,104,36,-16
-22,13,35,4,-29,23,56,180,160,80,31,-12
-27,3,31,12,-29,17,66,146,140,61,26,-10
-29,0,29,15,-29,14,89,139,135,61,20,-10
-24,1,24,11,-24,12,99,142,127,60,15,-10
-29,-2,27,15,-28,12,117,138,119,60,10,-10
-35,-6,30,20,-32,12,126,142,113,60,10,-10
-35,-4,31,20,-32,13,127,137,105,59,9,-10
-43,-9,34,26,-39,12,131,137,104,54,4,-10
-45,-10,35,27,-40,12,133,128,98,48,6,-11
-56,-9,47,33,-52,19,136,126,96,46,3,-16
-62,-11,51,37,-56,20,128,122,91,38,-2,-21
-55,-8,47,31,-51,19,112,114,89,38,2,-23
-54,-11,43,32,-49,15,100,117,100,35,-7,-32
-43,-1,42,22,-42,20,84,93,87,44,-2,-23
-42,-5,37,24,-39,16,73,106,111,37,-8,-19
-34,21,55,6,-45,38,47,61,81,42,13,-6
-8,62,70,-27,-39,66,-2,62,151,120,54,22
28,99,71,-63,-22,85,-150,-447,-98,193,116,59
106,203,97,-155,4,150,-729,-1971,-1239,-22,132,130
322,355,33,-339,144,194,-1564,-3265,-2278,-163,300,321
630,476,-154,-553,391,161,-1915,-3412,-2497,-93,671,606
722,279,-443,-500,582,-82,-1672,-2793,-2254,-738,336,516
576,43,-534,-309,555,-245,-1207,-1986,-1758,-1147,-165,258
428,-63,-490,-182,459,-276,-746,-1190,-1147,-823,-208,149
321,-184,-505,-68,413,-344,-398,-570,-641,-598,-257,3
115,-112,-227,-1,171,-169,-94,-97,-182,-231,-148,-42
-46,-63,-17,55,-15,-40,94,190,87,-28,-73,-40
-55,-73,-18,64,-18,-45,133,241,129,-27,-69,-52
-77,-58,18,67,-47,-20,162,282,177,0,-52,-53
-92,-64,28,78,-60,-18,160,291,181,-9,-66,-63
-95,-52,43,73,-68,-4,158,293,182,8,-55,-59
-99,-59,39,79,-69,-10,163,304,203,7,-64,-60
-99,-59,40,79,-69,-10,155,319,225,20,-57,-66
-107,-66,40,86,-73,-13,175,343,244,27,-55,-80
-120,-68,52,94,-86,-8,198,364,252,36,-56,-80
-127,-64,63,95,-94,0,203,389,276,46,-52,-79
-124,-66,58,95,-90,-3,219,402,299,52,-50,-81
-126,-65,61,95,-93,-1,229,422,314,60,-50,-80
-124,-65,59,95,-91,-2,222,439,335,70,-47,-78
-125,-65,60,95,-92,-2,217,451,351,85,-45,-74
-118,-65,53,92,-85,-6,210,469,368,84,-45,-75
-110,-65,45,87,-77,-10,203,490,395,96,-41,-75
-103,-65,38,84,-70,-13,197,515,416,109,-40,-75
-93,-64,28,78,-60,-18,191,545,441,113,-39,-75
-94,-67,28,80,-60,-19,185,585,481,131,-32,-68
-88,-58,30,73,-59,-13,179,619,517,147,-27,-60
-65,-32,33,48,-49,1,174,623,532,180,-12,-49
-23,13,36,5,-30,24,168,565,511,202,35,-20
5,45,39,-25,-17,42,145,452,429,193,61,-4
-8,32,40,-12,-25,36,124,341,319,167,50,-6
-16,18,34,-1,-25,26,116,238,228,125,43,-5
-20,8,27,6,-24,18,105,174,169,92,34,-5
-24,-3,21,13,-22,9,95,144,132,68,25,-4
-26,-12,14,19,-20,1,89,113,102,47,15,-7
-31,-23,8,26,-19,-7,86,103,89,40,4,-12
-30,-29,2,29,-16,-13,83,105,90,40,3,-17
-38,-41,-3,40,-17,-21,78,104,88,40,5,-19
-29,-39,-10,34,-9,-25,75,105,85,40,5,-16
-16,-29,-13,23,-1,-21,71,104,85,40,5,-13
-12,-22,-11,17,0,-16,65,106,87,44,5,-10
-12,-14,-2,13,-5,-8,60,110,90,45,6,-7
-8,-8,1,8,-4,-4,55,110,93,45,12,-5
-8,-1,7,4,-8,3,47,112,96,44,18,-3
-38,6,43,16,-41,24,47,116,99,46,22,2
-41,12,53,14,-47,32,58,114,100,52,29,5
-28,20,48,4,-38,34,76,120,108,61,34,8
-27,24,51,1,-39,38,85,134,113,72,32,13
-29,20,49,5,-40,34,77,132,105,65,29,15
-38,12,50,13,-44,30,69,121,99,55,26,27
-36,7,42,14,-39,24,63,114,92,48,23,29
-39,-2,38,20,-38,18,55,101,86,37,20,17
-38,-6,33,22,-35,13,49,86,74,30,19,10
-44,-19,26,31,-35,4,42,74,56,22,13,0
-57,-36,22,46,-39,-7,36,66,43,14,6,-8
-50,-35,16,42,-33,-9,39,58,38,6,-1,-10
-49,-36,13,42,-31,-12,40,47,32,0,-8,-10
-49,-40,9,45,-29,-16,40,48,29,0,-14,-13
-46,-40,6,43,-26,-17,45,50,23,0,-15,-16
-39,-38,1,38,-19,-18,45,50,20,0,-15,-14
-33,-31,2,32,-17,-14,45,55,30,0,-15,-11
-52,-26,26,39,-39,0,44,55,31,0,-15,-10
-58,-21,37,39,-47,7,56,55,29,4,-15,-10
-48,-14,34,31,-41,10,69,55,29,5,-14,-10
-47,-11,36,29,-42,12,74,55,24,5,-9,-10
-36,-4,33,19,-34,14,71,55,25,10,-6,-8
-43,2,44,20,-44,23,59,55,27,10,-3,-2
-45,8,54,18,-50,31,50,55,30,11,2,2
-29,17,46,5,-37,31,40,55,33,27,5,6
-11,27,39,-8,-25,32,33,55,35,36,9,12
10,42,32,-27,-11,37,27,55,42,34,16,15
23,45,22,-34,0,33,22,55,40,35,22,27
30,55,25,-43,2,39,15,55,33,35,30,31
9,48,39,-29,-15,43,28,54,29,35,34,22
-12,21,33,-5,-23,27,62,49,23,30,28,16
-14,9,23,2,-19,16,70,44,17,22,20,9
-22,-5,17,13,-19,6,72,40,12,14,15,3
-22,-14,8,18,-15,-3,76,36,10,6,7,-3
-26,-21,6,23,-16,-7,79,31,7,-1,2,-5
-31,-28,2,29,-16,-13,81,27,5,-5,-2,-5
-36,-35,0,36,-18,-17,81,26,1,-4,-3,-9
-40,-43,-3,42,-18,-23,85,24,0,-7,-7,-11
-35,-42,-6,39,-15,-23,86,22,7,-10,-9,-9
-41,-36,5,38,-22,-15,89,17,10,-10,-11,-5
-33,-33,0,33,-17,-16,91,28,18,-7,-25,-5
-25,-27,-2,26,-11,-14,85,32,20,-1,-22,-5
-30,-23,7,26,-18,-8,83,39,31,3,-14,-5
-22,-11,11,16,-17,0,75,30,27,7,-8,-5
-16,5,21,5,-19,13,74,39,32,13,0,-2
-10,13,23,-2,-17,18,67,33,29,15,4,4
-7,28,35,-11,-21,32,63,31,28,24,12,12
-3,28,31,-13,-17,29,61,36,35,27,12,15
-3,45,48,-21,-26,46,49,13,20,38,27,27
3,47,44,-25,-20,45,60,48,40,41,19,27
12,76,63,-44,-26,70,25,-19,-6,46,39,38
13,90,77,-52,-32,83,31,89,152,101,53,37
27,111,84,-69,-28,97,-136,-478,-84,156,102,61
60,281,221,-171,-81,251,-715,-1974,-1116,20,158,163
383,454,71,-418,156,262,-1541,-2997,-1863,59,448,418
813,491,-322,-652,567,84,-1982,-3116,-1978,69,784,688
826,90,-736,-458,781,-323,-1516,-2252,-1652,-622,247,445
615,-268,-883,-173,749,-575,-853,-1291,-1168,-865,-222,108
476,-260,-736,-108,607,-498,-500,-756,-760,-583,-173,60
300,-227,-527,-36,413,-377,-246,-361,-436,-430,-196,1
37,-95,-132,30,85,-113,5,-30,-116,-141,-105,-37
-62,-42,20,52,-41,-11,114,144,51,-37,-67,-51
-57,-41,17,49,-37,-12,100,154,60,-25,-58,-51
-78,-29,49,54,-63,9,115,206,104,-8,-51,-49
-80,-40,39,60,-59,-1,112,204,99,-22,-58,-51
-91,-31,60,60,-75,15,117,214,109,-6,-46,-57
-93,-38,54,65,-73,8,120,222,122,-14,-52,-62
-93,-32,61,63,-77,14,123,224,123,-7,-52,-54
-96,-30,66,63,-81,18,139,242,133,-6,-64,-54
-117,-26,91,71,-104,32,139,249,144,3,-59,-48
-114,-22,91,68,-102,34,141,282,163,9,-57,-45
-92,-19,72,55,-82,26,146,294,178,15,-55,-49
-86,-14,72,50,-79,29,144,310,200,24,-50,-56
-86,-23,63,54,-74,20,157,345,221,23,-50,-61
-101,-39,61,70,-81,11,182,356,229,19,-57,-64
-106,-55,50,80,-78,-2,204,373,237,15,-68,-72
-119,-61,59,90,-89,-1,221,409,255,12,-73,-86
-133,-59,74,96,-104,7,220,439,278,7,-77,-93
-125,-63,63,94,-94,0,206,460,292,5,-80,-90
-117,-65,52,91,-84,-6,200,487,313,12,-88,-87
-109,-66,43,87,-75,-11,176,498,326,20,-92,-82
-87,-54,33,70,-60,-10,114,467,319,25,-78,-82
-53,-26,27,39,-40,1,62,415,312,36,-45,-65
-23,6,29,8,-26,17,14,328,281,75,1,-25
3,33,30,-18,-14,32,-16,240,231,105,39,-4
15,46,31,-30,-8,38,-14,173,179,104,47,8
11,47,36,-29,-13,41,-15,117,128,92,45,16
10,44,35,-28,-13,40,-15,82,87,79,44,14
10,45,35,-28,-13,40,-15,52,57,71,40,15
10,45,35,-28,-13,40,-15,39,45,64,40,15
10,45,35,-28,-13,40,-10,41,43,57,38,15
9,44,35,-27,-13,39,-5,38,40,50,33,16
1,36,35,-19,-17,35,0,35,37,41,30,24
-5,29,35,-12,-20,32,3,35,35,51,26,36
-8,22,30,-7,-20,26,10,33,32,54,22,33
-13,14,27,-1,-20,20,6,26,23,43,19,16
-15,8,22,3,-19,14,-6,19,12,36,15,0
-19,1,20,9,-20,10,-28,13,3,27,7,-6
-21,-5,16,13,-19,5,-41,5,5,23,1,-9
-25,-10,14,17,-19,2,-26,1,13,17,-5,-12
-27,-17,10,22,-18,-3,-15,10,19,14,-13,-16
-29,-19,10,24,-19,-4,16,36,26,9,-13,-20
-32,-7,25,19,-29,9,43,55,33,5,-9,-16
-26,5,31,11,-29,18,39,64,42,14,-11,-15
-22,10,33,6,-28,21,37,76,56,27,-6,-15
-18,18,36,0,-28,27,34,77,66,37,-5,-10
-15,24,39,-4,-27,31,31,72,73,45,-5,-10
-9,32,40,-11,-25,36,30,71,73,49,-1,-9
0,34,34,-17,-17,34,36,67,66,46,2,-5
0,28,28,-14,-14,28,38,65,62,41,5,-3
0,21,21,-11,-11,21,32,62,56,39,7,0
0,14,14,-7,-7,14,27,54,50,34,11,4
0,7,7,-4,-4,7,24,48,45,31,8,5
-1,1,3,0,-2,2,18,40,38,27,1,2
-3,-4,-1,4,-1,-3,15,32,31,19,-6,-3
-10,-14,-4,12,-3,-8,20,26,24,11,-12,-5
-11,-19,-8,15,-1,-13,20,19,16,3,-20,-10
-4,-14,-10,9,4,-12,24,14,9,-4,-24,-13
-10,-8,2,9,-6,-3,25,9,2,-5,-21,-16
-23,-5,18,13,-20,6,28,3,-1,-5,-20,-25
-29,0,29,14,-29,15,33,-3,0,-5,-20,-27
-22,5,27,8,-25,16,29,-3,0,-5,-20,-24
-19,2,21,9,-20,11,27,0,0,-5,-20,-21
-22,-4,18,13,-20,7,24,0,0,-7,-22,-18
-21,-9,12,14,-16,2,21,4,-5,-13,-25,-15
-21,-12,9,17,-15,-2,19,5,-5,-16,-25,-16
-22,-18,4,19,-13,-7,15,5,-6,-21,-29,-32
-18,-19,-2,19,-8,-11,10,-1,-10,-25,-31,-38
-7,-12,-5,10,-1,-9,5,-6,-10,-19,-29,-33
3,-8,-10,3,7,-9,1,-11,-8,-14,-25,-32
12,-2,-14,-4,14,-8,-4,-17,-2,-9,-17,-28
16,4,-12,-10,14,-4,-7,-23,3,-2,-11,-26
14,9,-5,-11,10,1,-14,-23,6,2,-4,-23
17,14,-2,-15,9,6,-20,-15,12,8,3,-11
21,24,3,-23,9,13,-8,-11,14,13,3,5
22,29,7,-25,7,17,11,12,28,20,-2,6
9,21,12,-15,-2,16,36,40,39,24,-5,0
-11,13,24,-1,-18,18,51,40,33,21,-8,-5
-21,5,26,7,-24,15,55,40,30,18,-13,-11
-28,-3,25,15,-26,11,64,40,27,16,-15,-16
-31,-9,23,20,-27,7,62,40,22,12,-20,-21
-32,-13,19,22,-25,3,54,40,20,10,-20,-25
-36,-16,20,26,-28,2,48,31,14,8,-21,-25
-36,-19,17,27,-26,-1,40,19,8,1,-25,-25
-36,-24,12,30,-24,-6,32,8,1,-6,-24,-25
-33,-24,10,29,-21,-7,26,-3,-5,-12,-28,-25
-25,-20,5,22,-15,-7,25,-5,-13,-20,-30,-29
-22,-20,2,21,-12,-9,25,-5,-13,-24,-34,-30
-16,-18,-1,17,-7,-9,25,-8,-9,-21,-35,-30
-6,-15,-9,10,2,-11,25,-11,-10,-16,-31,-30
-5,-15,-10,10,3,-12,25,-9,-6,-14,-28,-30
-8,-18,-10,13,1,-14,27,-3,-5,-9,-26,-29
-6,-20,-15,13,5,-17,32,7,-5,-6,-22,-24
-5,-20,-15,13,5,-17,37,14,2,-2,-20,-18
-6,-20,-14,13,4,-17,40,26,14,4,-17,-15
-13,-20,-7,17,-3,-14,55,52,28,11,-9,-10
-16,-19,-3,18,-7,-10,61,61,41,17,-2,-5
-17,-15,2,16,-9,-6,59,68,40,25,3,-8
-24,-15,9,19,-16,-3,77,81,33,30,1,-14
-28,-15,13,21,-20,-1,80,74,29,23,-6,-19
-41,-15,26,28,-33,6,66,66,22,16,-9,-22
-43,-15,27,29,-35,6,55,58,18,9,-14,-28
-28,-11,17,19,-23,3,47,50,12,1,-18,-29
-20,-10,11,15,-16,0,41,46,10,-6,-23,-25
-11,-10,1,10,-6,-4,34,41,10,-10,-25,-25
-12,-5,6,8,-9,0,27,38,6,-10,-25,-25
-28,-5,23,16,-25,9,21,35,5,-10,-29,-25
-36,-4,32,20,-34,14,20,30,5,-10,-31,-25
-27,3,30,12,-29,16,19,32,12,-10,-29,-21
-22,8,30,7,-26,19,30,43,20,-10,-26,-20
-13,15,28,-1,-21,21,42,51,28,-4,-21,-20
-5,19,24,-7,-15,21,56,57,36,1,-19,-20
-13,13,26,0,-20,19,71,65,42,6,-14,-20
-15,6,21,5,-19,13,78,70,49,12,-11,-19
-17,-1,17,9,-17,8,78,79,55,17,-7,-14
-20,-8,12,14,-16,2,69,93,66,23,-5,-11
-21,-14,7,17,-14,-3,62,95,71,25,-5,-8
-22,-19,4,20,-13,-7,55,95,69,25,-1,-3
-16,-21,-5,19,-6,-12,47,99,71,25,1,0
-11,-24,-13,18,1,-18,42,100,69,25,0,-3
-3,-25,-22,15,10,-24,44,100,71,25,-5,-9
-2,-25,-22,14,10,-23,46,89,66,19,-12,-14
-16,-29,-13,22,-1,-21,44,71,55,13,-16,-17
-22,-30,-8,26,-7,-19,45,60,43,9,-22,-23
-30,-30,0,30,-15,-15,44,60,33,2,-28,-24
-35,-30,5,32,-20,-12,48,60,34,-2,-28,-19
-43,-30,13,36,-28,-8,50,60,35,-8,-23,-16
-60,-30,29,45,-45,-1,50,60,38,-14,-20,-13
-53,-23,31,38,-42,4,50,60,42,-11,-17,-8
-43,-13,30,28,-36,8,51,56,37,-10,-12,-5
-30,-2,28,16,-29,13,56,56,36,-11,-10,-9
-22,2,25,9,-24,13,60,55,35,-9,-16,-10
-32,-6,26,18,-28,10,63,55,35,-11,-21,-10
-37,-12,25,24,-31,6,68,56,36,-7,-28,-15
-44,-19,25,31,-35,3,70,55,34,-2,-28,-15
-39,-13,26,26,-32,6,71,68,43,4,-18,-14
-30,-2,28,15,-28,13,72,65,45,10,-9,-9
-15,8,23,3,-20,15,78,88,64,14,-2,-6
0,27,27,-14,-14,27,72,96,63,28,7,-2
1,24,23,-13,-11,23,83,107,66,30,0,1
-12,18,31,-3,-22,24,92,93,59,29,2,6
-37,15,52,11,-44,33,99,95,56,21,-2,1
-41,6,47,18,-45,26,105,95,60,22,-2,-1
-52,5,57,23,-55,31,101,73,46,13,-5,0
-52,-2,50,27,-51,24,112,109,85,19,-7,-9
-40,24,64,8,-52,44,84,23,36,30,16,3
-24,31,55,-4,-40,43,104,153,199,96,32,13
10,121,111,-66,-51,116,-103,-420,-49,213,117,71
64,312,248,-188,-93,280,-714,-1891,-1086,115,199,179
403,508,104,-455,149,306,-1549,-2845,-1738,312,632,503
795,408,-387,-601,591,10,-1909,-2798,-1727,179,802,685
798,-117,-916,-340,857,-516,-1363,-1849,-1368,-657,120,335
639,-342,-981,-148,810,-661,-787,-1029,-948,-763,-201,103
486,-297,-783,-94,635,-540,-476,-587,-610,-534,-190,53
291,-221,-512,-35,402,-367,-213,-228,-310,-366,-191,-21
50,-62,-113,6,82,-87,18,73,-8,-85,-62,-30
-61,-44,16,53,-38,-14,120,213,111,-29,-44,-40
-53,-46,8,49,-30,-19,118,200,105,-29,-45,-38
-85,-44,41,64,-62,-1,162,255,150,-30,-49,-43
-101,-46,55,73,-77,4,178,260,147,-31,-51,-46
-109,-46,64,77,-86,9,191,266,150,-28,-59,-61
-131,-73,57,102,-94,-8,195,270,145,-34,-76,-79
-151,-89,62,120,-106,-14,200,269,142,-35,-81,-90
-155,-96,59,125,-106,-18,211,279,140,-41,-87,-96
-150,-89,61,119,-105,-14,204,283,143,-34,-80,-105
-150,-85,65,117,-107,-10,198,290,158,-29,-80,-110
-146,-81,65,113,-105,-8,190,311,170,-24,-75,-101
-140,-75,65,107,-102,-4,182,342,195,-17,-75,-100
-133,-68,65,100,-98,-1,177,353,215,-12,-80,-93
-126,-61,65,93,-95,2,180,361,225,-12,-80,-91
-121,-55,67,88,-94,6,190,372,236,-17,-82,-95
-128,-48,80,88,-104,15,203,393,250,-20,-85,-95
-134,-44,90,89,-111,23,205,408,257,-23,-85,-95
-131,-40,92,85,-112,26,209,411,259,-28,-82,-95
-129,-35,95,81,-112,30,210,426,263,-29,-74,-96
-129,-31,98,80,-113,33,201,457,289,-23,-67,-91
-118,-18,100,68,-109,41,189,487,325,2,-62,-79
-87,13,100,37,-93,56,178,497,354,44,-29,-51
-47,57,103,-5,-75,80,163,474,374,104,23,-14
-29,77,106,-25,-67,91,131,420,358,146,66,7
-36,69,104,-17,-70,86,111,336,305,136,72,12
-32,64,96,-16,-65,80,106,257,240,121,59,8
-29,55,84,-14,-56,70,97,200,175,109,48,5
-28,45,73,-9,-51,59,89,162,141,97,37,2
-26,35,61,-5,-44,48,87,146,130,86,35,0
-24,26,50,-1,-37,37,91,132,131,74,32,0
-19,19,39,0,-29,29,90,123,130,70,29,0
-15,12,27,1,-21,19,90,134,126,68,26,0
-14,5,19,4,-17,12,91,150,126,65,24,0
-14,-1,14,7,-14,6,89,148,123,62,21,0
-15,-7,8,11,-11,0,86,141,120,60,15,0
-22,-19,2,20,-12,-8,83,138,117,57,11,-5
-18,-19,-1,18,-8,-10,80,133,115,55,7,-5
-5,-10,-5,8,1,-7,78,129,108,54,0,-5
-9,-5,4,7,-6,0,74,139,113,57,3,-5
-15,3,17,6,-16,10,78,134,110,53,6,-5
-15,9,24,3,-20,16,84,152,122,57,13,-7
-29,14,42,7,-36,27,95,159,121,45,14,-14
-36,16,51,10,-44,33,108,171,133,44,10,-19
-37,14,51,11,-44,32,106,153,118,38,4,-23
-41,21,62,10,-52,41,100,151,109,27,-4,-32
-60,19,79,20,-69,48,87,150,112,35,-5,-32
-60,25,86,17,-73,55,83,90,75,16,-9,-21
-18,62,81,-22,-50,71,20,144,242,160,66,17
48,111,63,-79,-8,87,-281,-678,-250,102,95,55
133,195,63,-164,35,129,-1048,-2466,-1578,-230,109,134
255,295,40,-275,108,167,-1759,-3540,-2554,-524,129,262
471,512,41,-492,215,276,-1828,-3393,-2629,-365,411,492
675,607,-68,-640,371,269,-1697,-2800,-2058,-20,766,706
653,285,-369,-469,511,-42,-1369,-2098,-1600,-518,356,523
500,-61,-561,-219,531,-311,-839,-1260,-1190,-847,-130,207
404,-224,-628,-90,517,-426,-488,-677,-751,-650,-223,56
185,-198,-383,6,284,-291,-172,-203,-325,-388,-196,-18
-46,-112,-66,79,10,-89,106,202,71,-75,-94,-52
-85,-103,-18,94,-33,-60,198,315,168,-31,-85,-78
-106,-86,21,96,-63,-32,210,350,202,3,-71,-80
-102,-66,36,84,-69,-15,217,362,232,24,-70,-80
-96,-39,58,67,-77,9,228,386,260,42,-69,-81
-119,-34,85,76,-102,26,256,420,295,66,-59,-79
-121,-36,85,78,-102,24,271,436,295,55,-63,-81
-111,-28,84,69,-97,28,271,449,321,63,-62,-83
-105,-33,72,69,-88,19,270,462,339,64,-67,-87
-124,-56,67,90,-95,5,264,491,364,83,-64,-82
-130,-72,58,101,-94,-7,270,521,398,87,-65,-97
-132,-79,53,105,-92,-13,303,574,434,97,-65,-112
-136,-90,46,113,-91,-21,316,610,474,109,-63,-109
-131,-90,41,110,-86,-25,321,650,512,130,-60,-110
-132,-95,37,113,-84,-29,326,697,549,149,-60,-110
-125,-96,28,110,-76,-34,329,727,592,158,-57,-111
-128,-101,28,114,-78,-36,337,776,637,176,-55,-106
-133,-99,34,115,-83,-32,350,824,688,196,-55,-105
-120,-85,35,102,-77,-25,374,899,763,227,-46,-103
-98,-72,26,85,-62,-22,373,933,811,261,-33,-100
-82,-54,28,68,-55,-13,356,907,801,264,-22,-98
-86,-30,56,58,-70,12,338,823,730,248,-2,-69
-55,12,67,21,-61,40,293,636,569,225,16,-38
-24,50,74,-13,-49,62,237,462,401,182,31,-17
-31,50,81,-10,-56,66,187,326,281,139,38,-1
-39,40,79,0,-59,59,153,240,203,105,31,10
-48,32,80,8,-65,56,135,210,170,81,24,18
-57,22,80,17,-69,51,125,186,141,64,18,13
-66,14,80,26,-73,47,117,158,108,46,11,5
-70,6,76,32,-74,41,108,129,79,32,5,0
-71,-2,69,36,-70,34,99,124,61,24,-1,-8
-76,-11,65,43,-70,27,95,121,58,17,-8,-14
-75,-17,58,46,-66,20,96,118,55,10,-14,-16
-74,-26,49,50,-61,11,95,112,50,2,-21,-19
-74,-37,37,55,-55,0,95,112,47,-4,-28,-22
-58,-33,25,45,-41,-4,95,112,45,2,-28,-25
-48,-25,23,36,-36,-1,95,122,60,9,-23,-24
-46,-20,25,32,-35,2,95,138,70,16,-20,-20
-35,-11,24,23,-29,6,95,146,79,22,-17,-20
-34,-14,19,24,-26,2,95,156,91,26,-13,-20
-36,-18,19,27,-28,1,94,157,96,30,-9,-20
-37,-23,13,29,-25,-5,98,178,121,35,-12,-21
-40,-27,13,33,-26,-7,99,168,108,39,-8,-16
-39,-29,9,34,-24,-10,114,194,139,32,-12,-14
-37,-24,13,30,-25,-5,106,160,128,33,-8,-11
-43,-14,29,28,-36,7,105,176,137,26,-12,-8
-46,-17,29,32,-37,5,89,148,113,24,-4,-7
-47,12,59,17,-53,36,85,135,125,66,28,0
-20,22,41,-1,-30,31,55,142,286,197,71,13
8,147,139,-78,-66,143,-344,-990,-387,176,136,82
203,379,176,-291,13,277,-1211,-2514,-1401,154,314,275
626,539,-87,-582,357,225,-1949,-3066,-1722,461,789,617
813,440,-373,-626,593,33,-1799,-2584,-1648,5,712,676
653,54,-599,-353,626,-272,-1153,-1661,-1361,-776,50,335
482,-182,-663,-150,573,-422,-665,-1012,-996,-740,-205,100
343,-207,-550,-68,447,-379,-340,-521,-610,-539,-218,24
86,-118,-204,17,145,-161,-53,-96,-208,-242,-131,-14
-89,-54,35,71,-62,-9,141,162,26,-48,-68,-42
-103,-71,32,87,-67,-20,172,205,63,-58,-89,-56
-110,-62,49,86,-79,-6,193,236,100,-25,-74,-59
-97,-66,30,81,-63,-18,198,270,124,-30,-84,-78
-96,-68,28,82,-62,-19,196,278,133,-16,-78,-74
-100,-81,20,90,-60,-30,205,308,155,-14,-79,-75
-91,-81,10,86,-51,-35,217,323,176,-8,-75,-76
-93,-75,18,84,-55,-29,238,356,203,-1,-71,-74
-102,-75,27,88,-64,-24,255,380,218,5,-70,-78
-112,-70,42,91,-77,-13,277,408,243,20,-65,-80
-119,-71,49,95,-84,-11,281,437,267,29,-66,-81
-120,-69,51,95,-86,-9,279,456,287,29,-69,-79
-120,-71,49,95,-84,-11,274,469,298,21,-74,-88
-121,-69,53,95,-87,-8,282,489,309,19,-78,-97
-134,-76,58,105,-96,-9,307,526,333,13,-88,-101
-156,-87,69,121,-112,-9,315,547,348,10,-98,-103
-158,-84,74,121,-116,-5,308,555,353,16,-103,-106
-146,-79,67,113,-107,-6,301,573,363,22,-99,-112
-140,-77,63,109,-101,-7,291,604,389,27,-97,-118
-128,-72,56,100,-91,-8,286,628,434,35,-94,-115
-101,-50,51,75,-76,1,269,619,446,66,-68,-87
-67,-9,58,38,-62,24,224,551,412,107,-22,-44
-27,38,65,-6,-46,51,172,429,352,113,24,-4
-10,55,64,-23,-37,59,136,328,271,103,38,16
-13,45,58,-16,-36,51,127,267,204,98,33,14
-15,40,55,-13,-35,47,124,226,156,90,36,15
-18,32,50,-7,-34,41,118,204,132,82,34,15
-22,24,46,-2,-34,35,115,188,126,74,36,15
-24,17,41,3,-33,29,109,176,118,66,32,13
-29,11,40,9,-34,26,105,166,108,59,23,8
-32,8,40,12,-36,24,106,160,104,45,12,5
-31,4,35,13,-33,19,103,134,96,31,4,2
-35,1,36,16,-35,18,101,130,96,27,-1,-2
-39,-5,34,21,-36,14,97,129,91,33,-6,-6
-52,-5,47,28,-49,21,108,130,86,35,-11,-14
-63,-15,48,39,-55,16,118,147,87,24,-20,-32
-73,-21,52,47,-62,15,126,149,74,17,-14,-36
-83,-23,60,53,-71,18,147,166,89,2,-28,-36
-75,-14,61,44,-67,23,134,136,63,5,-30,-33
-61,-9,52,35,-56,22,121,167,92,4,-23,-36
-43,-5,38,24,-40,16,82,117,52,5,-14,-34
-4,44,47,-20,-26,45,43,197,171,87,21,-6
44,87,44,-66,0,65,-57,-84,155,218,95,30
58,238,179,-148,-61,208,-556,-1591,-905,45,124,106
313,427,114,-370,99,270,-1451,-3004,-1904,-7,343,326
736,525,-211,-630,473,157,-1928,-3182,-1966,254,789,645
839,363,-475,-601,657,-56,-1584,-2413,-1665,-324,501,583
666,8,-658,-337,662,-324,-994,-1488,-1253,-843,-75,246
476,-148,-625,-164,551,-386,-543,-835,-809,-612,-157,107
318,-147,-465,-85,392,-306,-263,-382,-443,-429,-157,43
75,-81,-156,3,116,-118,-2,19,-75,-145,-92,-7
-60,-53,6,57,-33,-23,151,249,136,-3,-64,-43
-73,-62,11,67,-41,-25,158,250,140,-7,-75,-67
-110,-55,55,82,-83,0,189,297,183,22,-65,-64
-114,-64,50,89,-82,-7,191,324,205,19,-74,-65
-138,-61,77,99,-107,8,198,342,214,32,-67,-73
-141,-67,75,104,-108,4,213,350,217,21,-71,-89
-140,-66,74,102,-107,4,218,339,211,23,-72,-93
-138,-63,75,100,-107,6,225,357,224,18,-82,-101
-142,-58,84,99,-113,13,225,378,237,14,-79,-108
-156,-52,104,104,-129,26,241,399,253,17,-75,-105
-145,-47,98,96,-121,25,255,425,274,26,-74,-106
-140,-41,100,91,-120,29,255,445,299,40,-70,-102
-161,-37,124,99,-142,43,255,461,315,55,-69,-100
-175,-31,145,103,-160,56,256,493,344,69,-64,-100
-166,-27,140,97,-153,56,256,513,372,73,-61,-97
-163,-23,140,93,-152,58,258,537,391,78,-58,-95
-154,-17,137,85,-145,60,270,568,421,95,-54,-95
-149,-14,135,81,-142,60,285,614,456,105,-50,-90
-139,-6,133,73,-136,63,283,652,502,110,-47,-90
-115,-3,112,59,-113,54,253,656,524,133,-41,-89
-81,13,94,33,-87,53,198,617,498,163,-7,-55
-37,39,77,-1,-57,58,147,524,452,175,39,-28
-23,39,62,-8,-43,50,133,426,368,161,58,-17
-25,32,57,-4,-41,44,131,353,284,150,51,-6
-21,27,48,-3,-35,37,127,274,216,120,40,-11
-26,18,44,4,-35,31,124,221,169,85,35,-13
-35,-2,34,18,-35,16,118,209,159,73,20,-18
-36,-4,32,20,-33,13,129,184,138,69,19,-20
-35,-6,29,20,-31,11,128,194,148,59,11,-26
-40,-10,30,25,-35,10,117,162,114,52,12,-20
-40,-9,31,24,-35,11,103,181,144,49,6,-18
-40,-7,34,24,-37,13,90,129,111,44,4,-13
-48,23,72,12,-60,47,56,139,164,107,47,21
-11,36,46,-13,-29,41,-34,5,214,239,116,46
32,167,135,-100,-52,151,-379,-1376,-824,53,138,102
177,245,68,-211,55,157,-1177,-3006,-2159,-331,150,222
597,247,-350,-422,473,-51,-1768,-3406,-2514,-281,495,489
836,176,-660,-506,747,-242,-1684,-2915,-2339,-792,308,501
648,-110,-759,-269,704,-434,-1209,-2069,-1929,-1407,-371,156
509,-183,-692,-163,601,-437,-697,-1156,-1192,-952,-363,50
382,-114,-495,-134,439,-304,-355,-453,-513,-481,-191,53
84,-68,-152,-7,118,-110,-18,63,-20,-114,-92,-1
-73,-40,34,57,-53,-3,172,311,217,68,-16,-18
-86,-57,29,71,-57,-14,181,311,201,21,-33,-41
-89,-46,43,67,-66,-1,205,341,217,53,-30,-51
-90,-52,38,71,-64,-7,203,341,219,31,-53,-57
-113,-50,63,81,-88,7,209,337,229,44,-49,-54
-115,-55,60,85,-87,2,210,346,240,40,-58,-62
-123,-65,58,94,-90,-3,217,351,241,44,-60,-73
-144,-76,68,110,-106,-4,232,362,253,49,-69,-78
-150,-81,69,116,-110,-6,229,356,252,47,-73,-84
-146,-74,72,110,-109,-1,231,367,268,56,-66,-85
-141,-74,67,107,-104,-3,226,376,284,54,-67,-85
-146,-68,78,107,-112,5,224,394,303,68,-61,-83
-152,-67,85,109,-118,9,226,419,324,83,-61,-79
-144,-59,85,101,-114,13,230,441,351,92,-56,-81
-119,-34,85,76,-102,26,231,471,381,113,-45,-76
-101,-17,84,58,-92,33,236,512,417,148,-15,-69
-110,-8,102,59,-106,47,258,560,473,180,17,-63
-109,3,112,53,-110,57,263,608,513,196,24,-56
-90,13,102,38,-96,57,258,652,560,216,30,-49
-80,21,101,29,-90,61,256,660,593,250,34,-43
-65,29,94,17,-80,61,227,623,573,253,47,-33
-56,36,91,10,-74,63,185,538,516,243,59,-12
-54,29,83,12,-68,56,145,403,400,226,53,-4
-43,23,66,10,-55,44,121,290,300,178,50,-6
-35,15,50,10,-43,32,117,233,238,140,46,-2
-37,7,44,15,-41,25,108,195,189,119,43,0
-44,2,46,21,-45,23,102,175,175,110,39,0
-38,4,42,17,-41,23,92,167,159,107,37,-4
-34,6,40,14,-38,23,93,173,159,99,32,-5
-36,4,39,16,-38,21,94,163,146,96,32,-5
-31,7,38,11,-35,23,99,167,144,88,27,-10
-30,2,32,13,-31,17,100,165,136,85,25,-11
-23,11,34,6,-29,22,95,168,136,76,26,-8
-15,10,25,2,-20,17,96,180,157,77,23,-4
-5,23,28,-10,-17,25,91,172,147,108,47,6
-3,22,25,-10,-14,23,102,214,184,111,37,9
-24,27,51,-1,-38,38,73,126,111,91,31,20
24,68,45,-46,-11,56,40,210,283,177,68,30
64,101,37,-83,13,69,-102,-289,68,267,155,71
39,251,212,-145,-86,231,-626,-1933,-1243,5,149,138
305,408,103,-356,101,255,-1451,-3193,-2274,-95,389,372
690,433,-258,-561,474,87,-1862,-3276,-2438,-279,638,627
697,149,-548,-423,622,-199,-1459,-2399,-2021,-1020,64,409
507,-162,-669,-172,588,-415,-868,-1393,-1346,-1066,-339,120
413,-149,-561,-132,488,-355,-509,-762,-796,-640,-233,77
246,-110,-355,-68,301,-232,-218,-263,-323,-346,-160,41
-7,-72,-65,39,30,-68,48,113,38,-32,-61,-19
-61,-55,7,58,-34,-24,140,240,148,7,-55,-44
-55,-66,-12,61,-21,-39,148,250,152,5,-59,-70
-77,-62,14,69,-45,-24,173,283,183,14,-67,-63
-78,-72,6,74,-42,-33,178,284,189,9,-74,34
-93,-71,23,82,-58,-24,186,297,194,19,-75,12
-102,-77,26,89,-63,-25,184,301,202,15,-84,-9
-119,-74,45,96,-81,-14,186,304,213,28,-84,7
-115,-79,36,97,-75,-21,191,322,225,29,-90,-5
-128,-81,47,104,-88,-17,187,351,251,37,-90,4
-139,-79,60,109,-100,-9,197,396,278,40,-96,-3
-137,-80,56,108,-96,-12,214,423,293,40,-94,3
