I,II,III,aVR,aVL,aVF,V1,V2,V3,V4,V5,V6
-19,-75,-56,47,19,-65,100,-250,-141,-120,80,145
-25,-76,-52,51,14,-64,99,-249,-139,-119,79,145
-37,-80,-43,59,3,-61,96,-251,-148,-121,74,142
-37,-86,-50,62,7,-68,93,-250,-161,-119,71,138
-66,-88,-22,77,-22,-55,89,-251,-163,-119,66,136
-58,-78,-20,69,-19,-49,84,-276,-186,-139,65,134
-25,-71,-46,48,11,-59,86,-271,-181,-137,71,136
-30,-63,-33,47,2,-48,84,-284,-195,-131,77,133
-20,-55,-35,38,7,-44,85,-275,-183,-127,83,142
-25,-49,-25,37,0,-37,106,-247,-163,-122,85,164
-13,-35,-22,24,5,-28,116,-253,-187,-121,86,166
31,-31,-62,0,46,-46,73,-252,-182,-124,84,164
38,-17,-55,-11,47,-36,34,-280,-191,-131,85,161
25,-36,-61,6,44,-48,36,-284,-182,-126,86,159
-6,-53,-47,30,21,-50,33,-302,-201,-143,80,160
-7,-61,-55,34,24,-58,41,-286,-174,-128,66,143
-34,-85,-51,59,9,-68,37,-315,-218,-181,50,130
-58,-131,-73,95,8,-102,43,-289,-208,-171,62,129
-62,-142,-80,102,9,-111,43,-293,-215,-186,42,119
-84,-121,-38,103,-22,-79,51,-284,-201,-157,61,122
-81,-116,-35,99,-23,-75,74,-271,-197,-174,22,109
-187,172,359,7,-273,265,212,-314,-345,-328,-17,83
-13,295,308,-141,-161,301,374,592,552,328,411,316
627,686,59,-657,284,373,-108,865,1791,2037,1808,1279
964,838,-126,-901,545,356,-484,74,2158,3307,2630,1767
439,-41,-480,-199,460,-261,-48,-611,669,1476,1045,764
-214,-270,-56,242,-79,-163,206,-1198,-1079,-767,-326,-30
-293,-220,72,256,-182,-74,27,-965,-851,-661,-299,-86
-172,-264,-92,218,-40,-178,-35,-629,-531,-477,-237,-56
-80,-119,-39,100,-20,-79,67,-386,-324,-318,-81,15
-102,-120,-17,111,-42,-68,103,-202,-133,-187,-24,47
-104,-63,41,83,-72,-11,131,-191,-142,-183,8,88
-51,-65,-14,58,-18,-39,134,-114,-58,-114,45,92
-82,-49,32,65,-57,-8,110,-119,-80,-144,37,87
-65,-38,27,51,-46,-5,119,-77,-20,-92,61,94
-41,-32,9,37,-25,-11,113,-54,5,-76,67,108
-46,-10,36,28,-41,13,116,-26,35,-52,75,115
-53,-6,47,30,-50,20,115,18,79,-24,91,126
-32,22,54,5,-43,37,113,68,140,34,135,148
1,40,39,-21,-19,39,109,134,222,91,156,160
8,66,58,-38,-25,62,105,212,312,161,190,179
30,99,68,-65,-19,83,102,313,439,266,255,213
75,136,61,-106,7,98,97,411,569,378,332,268
118,172,54,-145,32,113,95,483,671,481,408,316
145,191,46,-168,49,118,90,513,723,538,448,346
146,185,39,-165,53,112,90,501,718,542,443,338
126,158,33,-142,46,95,89,448,662,516,432,326
98,127,29,-112,34,78,84,379,575,458,403,319
62,89,27,-76,17,58,86,277,437,345,333,280
31,55,24,-43,3,39,83,156,282,210,242,222
-1,20,21,-9,-11,20,76,43,148,95,160,174
-26,-6,20,16,-23,7,71,-49,27,10,108,140
-43,-30,13,36,-28,-8,66,-112,-53,-51,75,109
-58,-53,5,55,-32,-24,59,-166,-108,-102,40,88
-67,-67,-1,67,-33,-33,56,-194,-138,-131,17,75
-71,-80,-10,76,-31,-45,59,-211,-157,-147,-1,63
-61,-76,-15,68,-22,-45,62,-217,-176,-165,-30,60
-58,-84,-26,71,-15,-55,65,-211,-174,-164,-36,57
-58,-89,-30,74,-14,-59,67,-211,-171,-159,-27,54
-54,-77,-23,66,-15,-50,71,-203,-163,-155,-21,51
-54,-74,-19,64,-17,-46,67,-190,-148,-151,-14,49
-53,-65,-13,59,-20,-39,59,-181,-136,-143,-8,50
-52,-60,-7,56,-22,-33,53,-173,-125,-128,-1,49
-53,-56,-3,55,-25,-29,45,-170,-116,-117,6,52
-60,-53,7,56,-33,-23,37,-170,-115,-115,12,55
-64,-51,13,57,-38,-19,31,-170,-115,-115,19,55
-58,-47,11,53,-35,-17,25,-170,-111,-115,24,55
-53,-46,8,49,-30,-19,22,-170,-109,-115,21,55
-48,-42,6,44,-27,-18,19,-171,-112,-115,16,55
-42,-40,2,41,-22,-19,14,-180,-115,-119,14,53
-39,-40,0,40,-20,-20,11,-198,-134,-130,9,49
-42,-40,2,41,-22,-19,7,-207,-154,-137,6,51
-53,-40,13,46,-33,-13,4,-217,-160,-144,2,46
-62,-40,22,51,-42,-9,5,-229,-170,-156,-4,45
-74,-53,21,63,-47,-16,5,-236,-179,-160,-12,44
-79,-59,20,69,-49,-20,6,-239,-182,-162,-18,40
-69,-50,19,59,-44,-15,5,-233,-185,-165,-25,40
-57,-41,15,49,-36,-13,5,-229,-190,-166,-29,39
-49,-35,14,42,-31,-10,5,-222,-187,-165,-25,41
-44,-24,20,34,-32,-2,4,-222,-186,-166,-23,38
-46,-10,36,28,-40,12,9,-212,-175,-156,-18,48
-57,15,73,21,-65,44,14,-222,-180,-159,-18,47
-38,7,45,15,-42,26,27,-219,-164,-144,-7,45
-16,-7,9,11,-12,0,-13,-230,-162,-132,11,80
-16,15,31,0,-24,23,-57,-263,-195,-158,18,84
-20,-20,-1,20,-9,-11,-47,-238,-174,-177,6,71
-25,-55,-30,40,3,-42,-38,-232,-167,-178,5,70
-36,-78,-41,57,3,-60,-28,-219,-163,-165,-6,59
-62,-75,-13,69,-25,-43,-28,-259,-212,-200,-49,42
-67,-104,-38,86,-14,-70,-18,-241,-187,-185,-59,15
-90,-86,4,88,-46,-41,-21,-289,-239,-232,-77,14
-78,-108,-30,93,-24,-69,-2,-240,-177,-172,-47,18
-141,-10,131,75,-136,60,40,-293,-267,-268,-106,-8
-185,270,454,-43,-319,362,223,-50,-137,-242,-69,2
127,417,290,-272,-81,353,222,829,988,791,711,485
636,956,321,-796,157,638,-370,485,1735,2435,2180,1501
715,652,-62,-683,388,295,-462,-346,1313,2605,2133,1415
101,-150,-251,25,176,-200,9,-849,-303,287,272,273
-289,-130,159,209,-224,14,39,-1074,-1078,-899,-449,-178
-224,-239,-15,232,-104,-127,-85,-721,-617,-529,-304,-173
-171,-182,-10,176,-80,-95,-37,-473,-431,-447,-252,-119
-125,-75,50,99,-87,-12,28,-227,-183,-240,-117,-45
-105,-77,27,91,-66,-25,49,-144,-126,-221,-115,-30
-77,-26,50,51,-63,12,61,-121,-92,-173,-56,3
-100,-48,52,74,-76,2,60,-72,-44,-146,-56,2
-117,-23,95,70,-106,36,59,-67,-40,-138,-48,16
-102,-32,71,67,-86,19,61,-20,10,-87,-22,22
-92,-6,86,49,-89,39,59,-15,25,-92,-1,29
-72,5,77,33,-74,41,63,21,74,-48,23,38
-68,14,82,27,-75,48,69,67,109,-16,28,47
-32,38,70,-3,-51,54,75,120,178,36,61,67
-22,62,83,-20,-53,72,70,184,259,95,102,87
-8,102,110,-48,-59,106,66,274,366,181,149,109
27,129,102,-78,-38,115,64,374,484,273,203,143
54,160,106,-108,-26,133,59,462,599,374,279,192
92,197,104,-145,-6,150,56,516,683,466,345,241
82,197,116,-140,-18,156,53,517,706,505,379,264
85,190,104,-138,-10,147,48,498,686,500,370,264
98,186,88,-142,5,137,42,463,635,465,353,268
72,161,89,-117,-9,125,39,384,536,389,322,243
40,123,83,-82,-21,102,33,270,390,267,239,190
5,87,82,-46,-39,84,31,167,252,151,165,144
-29,45,74,-8,-51,59,35,70,132,61,113,98
-36,9,45,14,-41,26,30,-16,28,-21,56,54
-35,-7,29,21,-32,11,22,-77,-39,-87,6,19
-53,-28,26,40,-39,-1,16,-124,-84,-129,-27,4
-54,-34,20,44,-36,-7,7,-150,-115,-156,-49,0
-63,-45,17,54,-39,-14,2,-163,-136,-172,-65,-8
-73,-63,10,68,-41,-26,5,-160,-140,-181,-74,-16
-69,-55,14,62,-41,-20,12,-153,-132,-188,-76,-21
-87,-56,31,71,-59,-12,16,-148,-129,-187,-77,-38
-95,-65,29,80,-62,-18,22,-141,-124,-178,-73,-45
-81,-63,19,72,-50,-22,28,-123,-109,-170,-67,-37
-72,-58,13,65,-42,-22,27,-109,-88,-161,-64,-33
-57,-55,2,56,-29,-26,19,-111,-83,-149,-58,-26
-53,-46,7,49,-29,-19,13,-108,-77,-135,-55,-21
-70,-31,39,50,-54,4,5,-106,-75,-123,-55,-16
-65,-13,52,39,-58,19,-3,-104,-68,-119,-55,-15
-59,-10,49,35,-54,19,-9,-108,-66,-121,-55,-15
-72,-21,51,47,-61,14,-14,-117,-79,-119,-55,-11
-74,-25,49,50,-61,12,-17,-126,-88,-121,-55,-10
-76,-25,51,50,-63,12,-20,-145,-106,-138,-57,-11
-72,-25,47,48,-59,11,-23,-153,-117,-151,-60,-17
-69,-25,44,47,-56,10,-25,-162,-131,-157,-60,-23
-70,-25,46,47,-58,10,-27,-166,-145,-164,-60,-27
-66,-26,41,46,-53,7,-31,-176,-158,-169,-70,-34
-69,-29,40,49,-55,5,-30,-194,-167,-180,-84,-39
-72,-33,40,52,-56,3,-30,-197,-164,-185,-87,-37
-74,-39,35,56,-54,-2,-30,-200,-169,-184,-85,-34
-71,-41,30,56,-51,-5,-31,-203,-170,-188,-84,-35
-63,-38,25,50,-44,-6,-35,-206,-170,-190,-80,-35
-72,-49,23,60,-47,-13,-35,-210,-176,-190,-80,-35
-70,-56,14,63,-41,-21,-38,-210,-184,-187,-93,-37
-77,-50,26,63,-52,-12,-40,-204,-183,-185,-102,-41
-90,-48,42,69,-66,-3,-38,-198,-180,-186,-105,-45
-82,-43,39,63,-60,-2,-32,-190,-175,-184,-101,-42
-81,-40,40,61,-61,0,-29,-185,-173,-186,-94,-36
-73,-34,40,53,-56,3,-24,-177,-169,-183,-88,-31
-83,-22,61,53,-72,19,-20,-171,-158,-179,-85,-28
-76,-8,68,42,-72,30,-8,-172,-142,-174,-80,-22
-51,-5,46,28,-48,21,-14,-165,-126,-167,-78,-20
-33,7,40,13,-37,24,-68,-206,-154,-169,-74,-20
-6,-4,3,5,-5,-1,-79,-216,-149,-153,-67,-20
-10,-20,-10,15,0,-15,-71,-226,-163,-173,-78,-21
-4,-29,-24,17,10,-26,-64,-214,-145,-154,-72,-17
-47,-51,-4,49,-21,-27,-58,-224,-177,-191,-114,-42
-78,-82,-4,80,-36,-43,-53,-221,-180,-199,-122,-70
-65,-108,-44,86,-10,-76,-47,-209,-176,-205,-128,-71
-73,-61,13,67,-43,-24,-47,-226,-216,-221,-125,-69
-69,-89,-20,79,-25,-54,-12,-166,-152,-179,-116,-85
-184,162,346,11,-266,254,92,-246,-291,-337,-193,-99
-85,340,426,-128,-256,383,255,466,393,144,125,65
444,668,224,-556,110,446,-96,832,1417,1549,1357,921
814,997,183,-906,315,590,-565,-28,1591,2791,2395,1602
459,187,-272,-323,366,-42,-246,-608,552,1568,1181,793
-145,-197,-53,171,-46,-125,78,-1008,-905,-614,-367,-123
-284,-157,127,220,-205,-15,-50,-903,-858,-717,-440,-261
-203,-261,-58,232,-72,-159,-117,-548,-483,-464,-361,-235
-135,-110,25,123,-80,-43,-33,-311,-298,-332,-234,-138
-105,-97,7,101,-56,-45,3,-116,-99,-172,-164,-108
-118,-36,83,77,-100,24,18,-99,-103,-186,-158,-89
-106,-29,78,67,-92,24,39,-43,-35,-114,-110,-69
-89,-20,69,54,-79,24,32,-39,-42,-129,-121,-68
-77,-3,74,40,-76,35,38,-19,-3,-82,-87,-54
-63,-5,58,34,-60,26,39,12,22,-77,-85,-54
-50,14,64,18,-57,39,41,50,68,-25,-51,-40
-47,24,71,11,-59,48,38,77,100,8,-30,-35
-38,53,90,-8,-64,71,33,119,145,28,-17,-17
-34,48,82,-8,-58,65,30,192,231,95,8,14
-8,78,86,-36,-47,82,26,263,311,154,53,33
42,121,79,-81,-19,100,23,357,426,246,112,62
79,152,73,-116,2,112,19,450,542,344,170,97
114,183,69,-149,22,126,16,529,653,447,244,140
150,212,62,-181,44,137,11,567,708,520,299,182
161,219,58,-191,52,138,9,573,719,533,305,191
145,197,52,-171,46,124,5,537,690,518,292,179
129,178,48,-154,40,113,0,463,611,470,273,169
101,146,45,-124,28,95,3,376,504,388,225,151
62,104,42,-83,10,73,5,266,360,273,161,103
29,67,37,-48,-4,52,8,157,219,153,86,54
0,34,34,-17,-18,34,10,57,102,61,12,8
-22,8,30,7,-26,18,4,-33,5,-28,-55,-40
-36,-12,23,24,-29,5,-1,-89,-61,-82,-88,-51
-51,-33,18,42,-34,-7,-6,-123,-100,-103,-95,-53
-57,-45,12,51,-34,-16,-12,-140,-121,-126,-119,-70
-55,-47,7,51,-31,-20,-18,-137,-134,-134,-127,-80
-73,-68,5,70,-38,-32,-18,-133,-137,-145,-129,-88
-82,-80,2,81,-41,-39,-13,-130,-129,-147,-141,-94
-72,-73,-1,73,-35,-37,-10,-126,-121,-139,-140,-91
-63,-68,-5,66,-29,-36,-7,-122,-113,-136,-133,-85
-58,-62,-5,61,-26,-33,-2,-113,-107,-129,-128,-80
-57,-57,-1,57,-28,-29,0,-103,-87,-124,-122,-75
-53,-49,4,50,-28,-22,-5,-93,-66,-119,-118,-68
-49,-43,6,45,-27,-18,-9,-94,-65,-114,-112,-66
-47,-36,11,41,-29,-12,-11,-95,-66,-111,-109,-70
-44,-30,14,37,-29,-8,-16,-99,-65,-107,-104,-70
-49,-30,19,39,-34,-5,-19,-101,-66,-104,-100,-70
-61,-30,31,45,-46,1,-23,-102,-72,-99,-105,-70
-60,-30,30,45,-45,0,-25,-117,-82,-105,-105,-70
-53,-30,23,41,-38,-3,-25,-125,-96,-115,-105,-73
-52,-32,19,42,-35,-6,-25,-149,-116,-114,-105,-76
-52,-39,12,45,-32,-13,-25,-169,-124,-126,-105,-79
-53,-45,8,48,-30,-18,-30,-169,-134,-137,-125,-82
-54,-52,2,53,-28,-24,-35,-176,-148,-140,-137,-84
-55,-56,-1,55,-27,-28,-38,-170,-151,-144,-137,-86
-55,-54,1,55,-28,-26,-42,-182,-154,-149,-142,-89
-54,-55,-1,55,-26,-28,-46,-193,-156,-156,-145,-90
-56,-55,1,55,-28,-26,-49,-186,-165,-162,-141,-93
-52,-55,-3,54,-24,-29,-53,-186,-171,-165,-140,-96
-47,-65,-18,56,-15,-41,-55,-180,-169,-165,-140,-95
-55,-67,-12,61,-21,-39,-50,-181,-170,-167,-135,-95
-66,-64,1,65,-33,-31,-50,-169,-170,-170,-135,-95
-71,-65,7,68,-39,-29,-49,-143,-171,-171,-137,-94
-62,-60,2,61,-32,-28,-44,-133,-166,-167,-143,-91
-52,-61,-8,57,-22,-34,-45,-133,-166,-160,-142,-88
-51,-57,-6,54,-22,-31,-47,-126,-164,-155,-134,-85
-38,-44,-5,42,-16,-24,-51,-128,-166,-149,-130,-82
-31,-33,-3,32,-14,-18,-49,-109,-163,-143,-123,-79
-40,-18,21,29,-30,2,-50,-74,-139,-138,-119,-77
-57,-20,37,38,-47,9,-50,-80,-122,-136,-115,-72
-55,-49,7,52,-31,-21,-50,-78,-111,-132,-114,-70
-34,-42,-9,38,-12,-25,-77,-107,-144,-140,-117,-65
-11,-46,-35,28,12,-40,-79,-112,-140,-128,-112,-61
8,-50,-58,22,33,-54,-71,-119,-151,-143,-120,-62
5,-45,-49,20,27,-47,-61,-112,-133,-126,-105,-62
-41,-76,-35,59,-3,-55,-54,-114,-149,-152,-132,-84
-64,-96,-33,80,-15,-64,-52,-122,-186,-174,-151,-100
-48,-120,-72,84,13,-96,-54,-96,-165,-168,-156,-110
-50,-79,-29,65,-10,-54,-58,-136,-196,-193,-162,-108
-61,-122,-61,92,0,-91,-21,-65,-119,-140,-149,-112
-173,93,267,40,-220,180,65,-156,-277,-293,-204,-124
-103,294,397,-96,-250,345,265,488,282,67,27,-15
412,557,144,-485,134,350,-16,1040,1384,1382,1127,739
872,973,101,-922,385,536,-554,267,1811,2862,2353,1567
608,257,-351,-432,479,-47,-303,-392,958,2024,1418,912
-77,-225,-149,151,36,-187,104,-900,-734,-382,-282,-108
-285,-168,117,226,-201,-25,3,-876,-914,-750,-502,-301
-190,-306,-116,248,-37,-211,-127,-492,-499,-452,-405,-289
-142,-150,-8,146,-66,-79,-36,-256,-335,-354,-295,-202
-91,-121,-30,106,-31,-75,20,-29,-98,-174,-204,-157
-76,-78,-2,77,-37,-39,31,0,-84,-196,-187,-136
-56,-53,3,54,-29,-25,51,71,-10,-103,-135,-110
-82,-59,23,70,-52,-17,34,77,-33,-105,-148,-111
-91,-31,59,61,-75,14,37,99,-2,-66,-115,-95
-69,-35,33,52,-51,-1,29,136,39,-54,-116,-93
-61,-7,54,34,-57,23,26,156,65,-31,-97,-78
-43,-4,39,23,-41,18,34,200,112,8,-76,-71
-33,15,48,8,-40,31,35,240,158,41,-47,-58
-22,31,54,-5,-38,42,35,307,232,87,-9,-36
2,61,59,-32,-28,60,35,383,312,135,27,-13
35,89,55,-63,-10,72,35,485,431,239,86,18
62,113,51,-87,5,81,35,585,557,340,152,62
102,151,50,-127,26,100,29,672,665,440,219,107
134,179,45,-157,44,112,24,716,738,518,279,143
135,180,45,-158,45,112,19,713,751,527,288,159
141,181,40,-161,50,110,13,695,724,514,274,151
132,166,35,-149,48,100,7,634,663,484,258,148
94,124,30,-109,32,77,2,535,547,397,212,126
60,86,26,-73,17,56,0,424,403,284,144,73
24,46,21,-35,1,33,-3,305,261,171,73,20
-13,5,17,4,-15,11,-6,200,137,76,13,-16
-39,-24,15,30,-26,-4,-9,108,37,-2,-44,-40
-51,-39,11,45,-31,-14,-11,40,-38,-66,-85,-72
-61,-51,10,56,-35,-21,-14,1,-86,-108,-124,-97
-77,-76,1,77,-39,-38,-19,-22,-106,-118,-143,-100
-85,-95,-10,90,-37,-52,-18,-38,-122,-128,-139,-100
-71,-94,-23,83,-23,-59,-15,-42,-123,-148,-145,-108
-68,-96,-28,82,-20,-61,-15,-32,-115,-148,-145,-111
-75,-99,-24,88,-25,-61,-11,-26,-112,-140,-141,-109
-75,-100,-26,88,-24,-63,-10,-19,-104,-132,-135,-110
-78,-99,-20,89,-29,-59,-10,-4,-101,-124,-130,-110
-69,-90,-21,80,-24,-56,-10,11,-83,-117,-125,-110
-63,-80,-17,72,-23,-48,-10,18,-66,-109,-118,-106
-48,-70,-23,59,-12,-46,-10,28,-65,-101,-114,-101
-26,-61,-35,44,5,-48,-10,33,-65,-93,-109,-96
-35,-60,-25,48,-5,-42,-10,23,-65,-86,-106,-93
-41,-60,-19,50,-11,-39,-12,11,-65,-90,-103,-87
-42,-55,-13,49,-14,-34,-19,0,-65,-90,-98,-86
-50,-55,-5,53,-22,-30,-26,-12,-72,-93,-95,-91
-61,-56,5,59,-33,-25,-32,-30,-88,-112,-99,-95
-70,-62,8,66,-39,-27,-39,-43,-103,-121,-113,-100
-58,-69,-11,63,-23,-40,-45,-67,-126,-143,-121,-100
-48,-74,-26,61,-11,-50,-45,-82,-142,-163,-120,-100
-56,-81,-25,69,-15,-53,-45,-80,-139,-158,-119,-100
-62,-86,-25,75,-18,-55,-45,-85,-141,-163,-123,-100
-65,-90,-25,78,-20,-57,-45,-85,-153,-165,-138,-100
-65,-90,-25,78,-20,-57,-42,-85,-161,-164,-141,-101
-69,-90,-21,79,-24,-55,-40,-85,-160,-169,-139,-105
-70,-90,-20,80,-25,-55,-40,-86,-158,-170,-141,-108
-75,-90,-15,83,-30,-52,-36,-94,-155,-170,-139,-112
-79,-94,-15,87,-32,-54,-35,-95,-155,-169,-142,-113
-87,-95,-8,91,-39,-51,-35,-94,-159,-165,-145,-124
-82,-95,-13,89,-34,-54,-35,-97,-160,-165,-145,-129
-59,-99,-40,79,-9,-70,-35,-99,-163,-165,-145,-120
-55,-101,-46,78,-5,-73,-35,-103,-165,-165,-145,-114
-56,-98,-42,77,-7,-70,-35,-105,-166,-165,-145,-107
-71,-96,-25,83,-22,-60,-35,-109,-171,-162,-142,-101
-54,-92,-38,74,-8,-65,-32,-110,-170,-160,-140,-97
-35,-90,-55,63,10,-73,-26,-107,-171,-161,-137,-93
-48,-85,-37,67,-5,-61,-21,-101,-169,-160,-133,-89
-55,-86,-32,71,-11,-59,-16,-97,-170,-160,-130,-86
-52,-70,-18,61,-16,-44,-10,-95,-164,-159,-128,-80
-21,-32,-11,27,-4,-22,-5,-80,-145,-149,-125,-82
-25,-26,-1,26,-12,-13,-1,-75,-140,-145,-125,-84
-38,-52,-13,45,-12,-32,-19,-50,-110,-140,-128,-80
-21,-45,-24,33,2,-34,-65,-79,-137,-150,-132,-81
-1,-32,-32,17,16,-32,-84,-103,-153,-145,-128,-76
2,-63,-65,30,34,-64,-73,-96,-145,-154,-137,-77
-2,-71,-70,37,34,-70,-61,-107,-141,-154,-133,-70
-17,-96,-78,57,31,-87,-50,-89,-136,-153,-137,-89
-61,-111,-50,86,-5,-80,-51,-117,-192,-185,-143,-112
-58,-137,-79,98,11,-108,-42,-73,-151,-164,-145,-118
-71,-104,-32,88,-19,-68,-46,-119,-207,-211,-161,-112
-64,-137,-72,101,4,-104,-33,-51,-134,-154,-141,-120
-137,-2,135,69,-136,67,36,-115,-240,-263,-185,-142
-169,259,429,-46,-299,344,251,270,51,-106,-72,-89
254,433,178,-344,38,305,134,1064,1138,958,766,472
802,960,157,-881,322,558,-464,477,1742,2551,2186,1461
746,510,-235,-628,490,138,-426,-306,1298,2520,1890,1203
78,-216,-294,69,186,-254,56,-784,-375,124,40,62
-281,-152,130,216,-205,-11,45,-952,-1033,-845,-538,-311
-220,-301,-81,260,-69,-191,-132,-568,-568,-491,-414,-306
-158,-219,-61,189,-48,-140,-74,-309,-390,-411,-326,-236
-92,-121,-29,106,-31,-75,5,-49,-137,-198,-194,-166
-75,-130,-54,102,-10,-92,24,30,-108,-207,-189,-150
-64,-88,-24,76,-20,-56,54,78,-43,-131,-129,-117
-57,-96,-39,77,-9,-67,49,97,-4,-112,-131,-121
-52,-52,0,53,-26,-26,50,106,10,-98,-109,-107
-45,-54,-9,49,-18,-31,51,146,44,-65,-102,-107
-42,-32,10,37,-26,-11,49,155,50,-63,-95,-100
-32,-25,8,28,-20,-8,53,204,108,-12,-65,-83
-28,-12,16,20,-22,2,54,238,146,16,-38,-63
-20,2,22,9,-21,12,58,305,220,72,-8,-48
-11,14,25,-2,-18,19,60,375,291,114,13,-39
15,48,33,-31,-9,40,57,470,399,195,61,-3
42,76,34,-59,4,55,51,572,520,299,131,40
85,123,38,-104,23,80,47,665,638,398,203,84
130,163,33,-146,48,97,42,733,732,496,268,128
148,176,27,-162,60,101,38,743,762,538,298,152
152,175,23,-164,64,99,34,730,749,533,301,159
137,153,16,-145,60,84,29,679,693,506,292,145
118,129,11,-124,53,70,23,585,598,432,246,111
90,96,6,-93,42,51,20,472,461,328,180,69
56,55,-1,-55,28,27,15,354,312,217,110,32
33,26,-8,-29,20,9,11,239,182,103,33,-10
4,-10,-14,3,9,-12,5,145,74,20,-30,-46
-25,-47,-21,36,-2,-34,-3,69,-4,-42,-70,-66
-36,-61,-25,49,-5,-43,-9,12,-64,-94,-95,-93
-58,-83,-25,71,-16,-54,-17,-12,-105,-125,-117,-111
-72,-96,-24,84,-23,-60,-25,-28,-124,-144,-131,-115
-66,-98,-32,82,-17,-65,-28,-44,-130,-150,-132,-120
-60,-106,-46,84,-7,-76,-23,-44,-123,-155,-136,-123
-51,-101,-50,76,0,-76,-17,-30,-115,-151,-131,-125
-48,-98,-50,73,1,-74,-12,-18,-110,-142,-124,-125
-45,-95,-50,70,3,-72,-6,-3,-100,-134,-118,-125
-40,-90,-50,65,5,-70,-1,10,-91,-126,-110,-125
-38,-88,-50,63,6,-69,0,23,-77,-119,-105,-124
-34,-81,-47,58,7,-63,2,42,-60,-113,-98,-118
-30,-74,-44,53,7,-59,6,40,-60,-109,-95,-112
-27,-68,-41,47,8,-54,4,32,-63,-104,-95,-106
-22,-60,-38,41,8,-49,-2,26,-67,-101,-95,-101
-21,-56,-35,39,8,-45,-9,14,-70,-94,-96,-103
-35,-70,-35,53,0,-52,-16,0,-71,-99,-94,-106
-42,-77,-35,60,-3,-56,-23,-14,-86,-121,-100,-109
-39,-73,-35,57,-1,-54,-29,-30,-105,-128,-109,-112
-45,-80,-35,63,-5,-57,-34,-46,-123,-137,-109,-115
-44,-79,-35,62,-5,-57,-35,-58,-132,-147,-123,-115
-47,-82,-35,65,-6,-58,-35,-66,-133,-149,-132,-115
-58,-98,-40,78,-9,-69,-35,-69,-136,-151,-132,-115
-60,-101,-40,81,-10,-71,-35,-75,-145,-149,-136,-115
-59,-99,-40,79,-10,-70,-34,-74,-155,-150,-139,-115
-63,-101,-38,82,-12,-69,-30,-80,-159,-153,-140,-115
-65,-99,-34,83,-16,-66,-30,-96,-160,-159,-136,-115
-66,-102,-36,84,-15,-68,-28,-95,-161,-162,-133,-115
-68,-105,-37,86,-15,-70,-25,-95,-158,-167,-130,-115
-61,-105,-44,83,-8,-75,-25,-95,-169,-170,-127,-115
-63,-104,-42,84,-10,-73,-29,-95,-181,-170,-125,-114
-63,-110,-48,87,-7,-79,-30,-97,-180,-170,-127,-116
-51,-118,-66,85,8,-92,-30,-102,-180,-170,-132,-120
-55,-115,-60,85,3,-87,-35,-105,-180,-170,-135,-120
-60,-115,-55,88,-2,-85,-36,-101,-180,-167,-138,-120
-63,-116,-53,90,-5,-84,-33,-99,-177,-165,-135,-121
-70,-114,-44,93,-13,-79,-28,-100,-174,-166,-132,-120
-66,-116,-51,92,-7,-84,-22,-99,-170,-164,-129,-116
-43,-102,-59,73,8,-80,-18,-100,-166,-165,-126,-109
-39,-68,-29,54,-5,-48,-10,-98,-164,-164,-124,-102
-65,-66,0,66,-32,-33,-7,-86,-157,-156,-119,-96
-46,-64,-17,55,-14,-40,-9,-85,-159,-153,-114,-88
-7,-66,-59,37,27,-62,-22,-80,-148,-141,-108,-86
-12,-65,-53,39,21,-59,-61,-104,-153,-142,-105,-90
-8,-63,-55,36,24,-59,-72,-112,-140,-126,-94,-89
13,-92,-104,40,59,-98,-67,-117,-153,-134,-101,-91
5,-98,-103,46,54,-100,-65,-117,-160,-143,-103,-87
-21,-108,-86,65,33,-97,-61,-108,-164,-168,-129,-107
-35,-123,-88,79,27,-105,-53,-129,-191,-183,-154,-129
-47,-166,-119,107,36,-143,-45,-93,-151,-161,-158,-137
-54,-135,-82,95,14,-108,-40,-138,-207,-199,-160,-134
-39,-168,-130,104,46,-149,-5,-61,-121,-138,-137,-134
-147,9,156,69,-152,83,67,-142,-258,-269,-171,-141
-126,251,377,-63,-252,314,285,395,165,-15,1,-68
355,474,119,-415,118,296,71,1085,1266,1145,945,597
882,957,75,-919,403,515,-514,338,1757,2691,2282,1524
715,371,-344,-543,529,14,-341,-394,1165,2315,1672,1052
13,-255,-268,121,141,-261,129,-871,-560,-124,-121,-58
-279,-200,79,240,-179,-60,61,-957,-1022,-813,-483,-314
-195,-333,-138,264,-28,-235,-130,-572,-543,-480,-384,-290
-119,-209,-90,164,-14,-149,-51,-306,-385,-407,-304,-232
-63,-147,-84,106,11,-115,36,-38,-118,-180,-179,-164
-67,-125,-59,96,-4,-92,39,15,-103,-187,-182,-137
-58,-93,-35,76,-12,-64,55,73,-38,-128,-119,-111
-48,-100,-53,74,3,-76,51,89,-19,-122,-117,-117
-38,-66,-28,52,-5,-46,57,103,4,-81,-89,-104
-25,-69,-44,47,10,-56,55,144,40,-63,-87,-103
-20,-45,-25,32,3,-35,54,151,50,-59,-73,-96
-17,-45,-28,31,5,-36,60,198,112,-15,-50,-89
-16,-31,-16,24,0,-23,65,241,157,18,-26,-74
-2,-13,-11,8,5,-12,65,301,225,72,3,-52
17,12,-5,-14,11,3,77,374,303,118,28,-29
40,43,3,-42,18,23,80,470,410,195,75,4
71,75,3,-73,34,39,71,580,537,297,136,38
110,119,8,-115,51,63,69,675,658,405,212,84
139,149,10,-144,65,79,63,746,745,495,277,139
144,148,5,-146,69,76,60,753,782,538,312,162
166,144,-22,-155,94,61,56,737,762,535,303,155
182,131,-52,-156,117,39,53,700,703,498,288,151
143,86,-57,-114,100,14,51,593,593,416,244,127
110,51,-59,-80,84,-3,47,478,454,314,175,82
75,22,-53,-48,64,-15,45,358,310,201,112,37
28,-23,-52,-3,40,-37,42,236,162,89,35,-12
-13,-60,-46,37,17,-53,33,139,59,4,-21,-52
-32,-79,-47,56,7,-63,22,61,-20,-58,-57,-74
-22,-93,-72,58,25,-82,15,5,-89,-116,-102,-104
-31,-107,-76,70,22,-91,11,-26,-109,-138,-123,-122
-45,-120,-75,83,16,-97,9,-39,-123,-139,-117,-122
-48,-129,-81,88,17,-105,5,-36,-136,-160,-130,-125
-52,-131,-79,91,14,-105,0,-30,-128,-163,-141,-133
-52,-134,-83,93,16,-109,2,-24,-120,-155,-134,-135
-49,-134,-85,92,18,-110,7,-19,-112,-147,-130,-128
-42,-127,-85,85,22,-106,10,-3,-98,-139,-124,-125
-40,-121,-81,81,21,-101,13,14,-82,-133,-119,-120
-34,-114,-80,74,23,-97,18,20,-76,-126,-114,-115
-27,-107,-80,67,26,-93,20,25,-69,-120,-108,-112
-33,-108,-75,71,21,-91,15,32,-63,-112,-101,-109
-35,-111,-75,74,20,-92,10,34,-56,-107,-94,-106
-36,-110,-74,73,19,-91,6,25,-50,-109,-88,-103
-41,-110,-70,75,15,-90,1,15,-60,-111,-81,-100
-40,-110,-70,75,15,-90,-3,2,-78,-109,-84,-101
-41,-111,-71,76,15,-91,-8,-12,-89,-117,-95,-106
-46,-115,-69,81,12,-91,-10,-26,-107,-131,-103,-105
-43,-115,-72,79,15,-93,-10,-39,-126,-137,-109,-105
-51,-114,-62,83,6,-88,-14,-51,-134,-142,-114,-105
-51,-123,-71,87,10,-97,-15,-72,-141,-153,-115,-105
-26,-127,-101,77,38,-114,-15,-76,-146,-154,-114,-105
-24,-124,-100,74,39,-111,-20,-75,-152,-159,-117,-104
-26,-126,-99,76,37,-112,-20,-80,-159,-170,-120,-119
-24,-124,-101,74,39,-112,-20,-80,-163,-169,-122,-126
-27,-126,-99,76,37,-112,-20,-81,-165,-171,-125,-124
-20,-123,-103,72,42,-113,-19,-87,-165,-175,-128,-125
-15,-120,-105,68,45,-112,-23,-94,-165,-175,-131,-125
-20,-124,-105,72,43,-114,-25,-91,-165,-172,-125,-125
-21,-126,-105,74,43,-115,-25,-88,-165,-170,-120,-120
-20,-124,-105,73,43,-115,-28,-84,-179,-170,-114,-120
-25,-125,-101,75,38,-112,-31,-82,-192,-167,-110,-119
-33,-130,-96,82,32,-113,-29,-76,-189,-165,-103,-115
-36,-129,-93,83,29,-111,-25,-77,-186,-167,-103,-116
-32,-121,-89,77,29,-105,-18,-100,-183,-175,-122,-113
-32,-116,-85,75,27,-101,-15,-97,-179,-169,-117,-108
-23,-111,-89,68,33,-100,-7,-92,-178,-161,-100,-105
-19,-104,-85,62,33,-94,-2,-82,-160,-152,-91,-102
-42,-98,-56,70,7,-77,2,-73,-150,-147,-89,-97
-16,-84,-68,50,26,-76,14,-59,-149,-149,-85,-94
30,-85,-115,28,73,-100,-31,-55,-148,-149,-84,-101
31,-80,-110,25,71,-95,-72,-103,-158,-154,-79,-98
28,-96,-124,34,76,-110,-60,-99,-147,-150,-80,-103
8,-112,-120,52,64,-116,-57,-115,-164,-162,-95,-104
0,-130,-130,66,65,-130,-45,-100,-135,-147,-98,-105
-21,-143,-122,83,51,-132,-41,-120,-180,-187,-120,-108
-37,-161,-124,99,44,-142,-29,-97,-169,-167,-122,-115
-34,-166,-132,101,49,-149,-20,-100,-180,-190,-140,-121
-41,-147,-106,94,33,-126,-5,-101,-171,-176,-114,-101
-79,-165,-87,122,4,-126,20,-65,-151,-176,-139,-129
-185,117,302,34,-244,210,170,-43,-218,-266,-156,-139
22,276,254,-149,-116,265,304,832,638,358,270,105
635,684,49,-660,293,366,-197,922,1573,1818,1573,1054
960,851,-109,-906,534,371,-542,-26,1759,2959,2377,1559
462,-25,-488,-218,475,-256,-58,-606,505,1344,877,545
-178,-257,-79,217,-49,-167,226,-1039,-1006,-732,-455,-251
-275,-264,11,269,-143,-126,3,-814,-798,-640,-424,-318
-192,-348,-155,270,-18,-251,-85,-461,-485,-474,-370,-295
-123,-171,-48,147,-37,-109,39,-187,-267,-317,-230,-195
-77,-167,-90,122,7,-128,70,5,-86,-190,-177,-171
-69,-107,-38,88,-15,-72,73,36,-78,-187,-138,-149
-53,-105,-53,80,0,-79,78,101,2,-106,-112,-143
-47,-89,-42,68,-2,-65,72,94,-12,-120,-112,-129
-36,-74,-38,55,2,-56,78,133,40,-77,-78,-110
-31,-72,-41,52,5,-57,73,142,47,-79,-81,-106
-23,-53,-30,38,4,-41,77,176,94,-27,-53,-94
-12,-49,-37,30,13,-42,74,216,135,-1,-41,-80
7,-18,-25,6,16,-22,75,267,187,31,-10,-57
27,0,-27,-13,27,-13,75,341,272,91,23,-37
46,25,-21,-36,33,2,75,420,357,150,52,-19
70,53,-17,-61,43,18,76,527,479,243,111,9
106,90,-16,-97,61,37,70,631,600,337,171,56
143,137,-6,-140,74,65,62,717,713,440,240,104
158,153,-6,-155,82,73,56,770,796,531,317,147
170,139,-32,-154,101,53,49,772,804,565,341,160
174,128,-46,-151,110,41,45,725,765,544,322,153
168,115,-53,-141,110,31,45,654,691,484,283,143
139,84,-55,-111,96,14,45,555,556,390,222,105
111,54,-57,-82,84,-1,45,423,408,281,163,60
84,15,-69,-49,77,-27,46,293,262,163,87,19
42,-29,-71,-6,57,-50,39,178,123,52,4,-31
10,-58,-68,24,40,-63,27,87,25,-24,-40,-61
-22,-88,-67,56,23,-78,15,22,-43,-82,-69,-85
-33,-96,-63,65,16,-79,6,-22,-94,-123,-106,-115
-33,-101,-68,67,18,-84,5,-50,-132,-145,-118,-123
-34,-118,-84,76,25,-101,5,-66,-149,-152,-113,-129
-38,-121,-82,79,22,-101,5,-64,-145,-165,-129,-135
-43,-118,-75,81,16,-97,5,-55,-140,-172,-140,-130
-42,-115,-73,79,16,-94,5,-47,-134,-164,-129,-125
-45,-112,-67,79,11,-89,5,-39,-129,-163,-122,-120
-46,-110,-64,79,9,-87,5,-33,-123,-155,-114,-116
-49,-107,-59,78,5,-83,5,-28,-102,-142,-107,-111
-48,-101,-54,75,3,-77,5,-23,-93,-128,-105,-107
-47,-96,-50,71,2,-72,5,-19,-96,-120,-101,-105
-46,-91,-45,69,0,-68,4,-14,-94,-120,-99,-102
-44,-84,-40,65,-2,-62,-1,-10,-96,-120,-95,-99
-37,-81,-44,59,4,-62,-4,-17,-95,-120,-95,-95
-29,-84,-56,57,14,-70,-7,-27,-95,-120,-100,-95
-25,-85,-60,55,18,-72,-12,-33,-110,-122,-102,-99
-26,-88,-62,57,18,-75,-15,-50,-128,-134,-106,-102
-25,-91,-65,59,20,-78,-18,-65,-141,-139,-109,-105
-21,-89,-68,55,24,-78,-21,-75,-146,-144,-113,-108
-20,-91,-71,56,25,-81,-24,-84,-159,-157,-115,-110
-22,-87,-66,55,22,-76,-27,-84,-177,-165,-116,-112
-32,-97,-65,65,17,-81,-30,-96,-183,-169,-119,-120
-42,-106,-65,74,12,-86,-30,-107,-191,-173,-123,-124
-44,-104,-60,74,8,-82,-30,-107,-195,-182,-130,-121
-45,-105,-60,75,8,-82,-30,-111,-199,-186,-130,-118
-47,-105,-58,76,6,-81,-30,-114,-204,-188,-130,-115
-50,-105,-55,78,3,-80,-30,-116,-205,-193,-130,-112
-47,-102,-55,75,4,-78,-42,-124,-217,-195,-130,-110
-44,-100,-55,73,5,-77,-46,-125,-222,-191,-131,-108
-46,-100,-55,74,4,-77,-41,-125,-216,-187,-125,-105
-45,-100,-55,73,5,-77,-40,-130,-215,-184,-119,-105
-48,-100,-52,74,2,-76,-35,-128,-209,-179,-114,-105
-55,-98,-43,77,-6,-70,-36,-131,-212,-176,-108,-105
-18,-59,-41,39,12,-49,-27,-114,-197,-173,-101,-105
-8,-28,-20,18,6,-24,-22,-105,-186,-177,-103,-100
-25,-64,-39,45,7,-51,-12,-85,-172,-173,-104,-93
9,-74,-83,33,46,-78,-20,-84,-166,-176,-106,-89
28,-39,-67,6,47,-52,-72,-142,-191,-176,-104,-81
23,-65,-88,22,55,-76,-83,-140,-184,-171,-105,-81
30,-76,-106,23,68,-91,-68,-153,-197,-176,-100,-78
31,-94,-125,32,78,-109,-56,-134,-170,-154,-101,-82
-26,-120,-95,73,35,-107,-53,-156,-229,-209,-141,-109
-37,-140,-103,89,33,-121,-44,-129,-217,-193,-143,-124
-48,-136,-87,92,20,-111,-42,-139,-234,-218,-153,-129
-44,-129,-85,87,21,-107,-34,-132,-213,-188,-136,-130
-64,-115,-51,90,-6,-83,8,-99,-214,-215,-160,-140
-191,171,361,10,-276,266,185,-10,-223,-264,-144,-135
67,304,237,-186,-85,270,280,888,709,448,340,162
699,752,54,-725,322,403,-268,856,1608,1965,1700,1151
962,826,-136,-894,549,345,-547,-116,1703,2959,2334,1526
385,-58,-444,-163,415,-251,-16,-679,304,1111,699,457
-243,-231,12,237,-127,-109,219,-1073,-1108,-803,-493,-269
-261,-249,11,255,-136,-119,-12,-822,-804,-612,-419,-298
-173,-303,-130,238,-22,-216,-91,-486,-527,-486,-384,-274
-120,-144,-24,132,-48,-84,15,-208,-292,-304,-233,-193
-76,-141,-65,109,-5,-103,41,-27,-137,-202,-195,-158
-71,-92,-20,82,-25,-56,46,-8,-129,-188,-148,-123
-62,-100,-39,81,-11,-69,54,51,-45,-120,-118,-118
-57,-75,-18,66,-19,-46,46,64,-56,-128,-120,-112
-49,-65,-16,57,-16,-40,53,103,6,-72,-89,-102
-49,-61,-12,55,-18,-36,47,119,14,-76,-87,-90
-37,-54,-17,46,-9,-36,53,159,55,-35,-57,-67
-15,-44,-30,30,8,-37,62,192,96,-15,-47,-62
15,-6,-21,-5,18,-13,58,242,147,29,-18,-47
35,7,-28,-20,31,-11,52,315,229,93,12,-26
54,33,-21,-44,37,6,48,402,323,157,49,3
96,76,-20,-86,58,27,41,502,438,242,105,35
137,120,-17,-128,77,51,36,605,559,339,166,70
162,148,-14,-155,88,67,31,698,685,459,253,133
170,158,-12,-164,91,73,29,726,745,532,307,173
170,162,-8,-166,89,77,26,715,737,535,310,165
180,157,-23,-168,102,67,23,699,711,512,295,161
164,127,-37,-146,101,45,20,624,633,465,269,155
133,83,-50,-108,91,17,20,501,496,371,223,127
110,49,-62,-79,86,-6,31,378,344,241,141,82
54,9,-45,-32,49,-17,31,250,193,126,70,33
7,-31,-37,12,22,-34,22,132,60,26,-2,-18
-17,-50,-33,33,9,-41,16,40,-33,-51,-58,-61
-44,-68,-24,56,-10,-46,8,-25,-100,-101,-82,-86
-52,-100,-48,76,-2,-74,1,-65,-145,-137,-106,-88
-53,-117,-63,85,5,-89,-6,-88,-168,-151,-119,-90
-58,-114,-56,86,0,-85,-10,-100,-186,-164,-133,-103
-57,-112,-55,85,-1,-83,-9,-94,-184,-169,-132,-106
-57,-109,-52,83,-2,-80,-13,-84,-175,-162,-129,-104
-58,-106,-48,82,-5,-77,-15,-76,-170,-156,-131,-101
-40,-103,-63,72,11,-82,-15,-67,-161,-149,-125,-100
-27,-100,-74,64,23,-87,-12,-58,-143,-143,-126,-99
-47,-99,-52,73,3,-75,-7,-50,-128,-136,-124,-94
-51,-93,-42,72,-4,-67,-4,-51,-125,-139,-118,-89
-49,-86,-36,68,-6,-61,-1,-50,-117,-140,-111,-85
-51,-79,-28,66,-11,-54,4,-50,-115,-140,-104,-80
-49,-72,-24,61,-12,-48,4,-50,-116,-140,-97,-75
-53,-66,-14,60,-19,-40,-1,-50,-114,-141,-91,-78
-38,-68,-30,53,-3,-49,-6,-67,-129,-139,-94,-84
-23,-71,-48,47,13,-59,-10,-82,-144,-134,-106,-87
-26,-69,-43,48,9,-56,-15,-88,-151,-146,-114,-92
-30,-71,-41,50,6,-56,-19,-97,-170,-155,-115,-95
-30,-69,-39,50,4,-54,-24,-112,-182,-171,-115,-95
-39,-73,-34,57,-2,-53,-25,-119,-187,-183,-114,-97
-49,-85,-36,68,-6,-60,-25,-122,-194,-178,-123,-100
-51,-85,-34,68,-8,-59,-25,-124,-197,-181,-130,-100
-50,-86,-36,68,-6,-61,-26,-129,-202,-180,-132,-96
-42,-90,-49,66,4,-70,-39,-152,-212,-185,-135,-95
-39,-90,-51,64,6,-70,-40,-156,-223,-190,-140,-95
-38,-88,-50,63,6,-69,-35,-154,-225,-190,-149,-95
-33,-83,-50,58,9,-66,-34,-156,-227,-194,-150,-95
-30,-81,-51,55,10,-66,-29,-155,-231,-196,-151,-97
-29,-77,-48,53,10,-62,-29,-154,-230,-198,-150,-103
-27,-71,-45,50,9,-58,-20,-149,-224,-194,-142,-100
-25,-71,-46,48,10,-58,-13,-143,-218,-184,-136,-95
-13,-51,-38,32,12,-44,-5,-142,-214,-178,-129,-93
-15,-32,-17,24,1,-24,3,-141,-207,-167,-122,-88
-44,-28,16,36,-30,-6,1,-149,-213,-167,-117,-85
-32,-49,-16,41,-8,-33,-2,-148,-207,-162,-109,-81
-24,-69,-46,47,12,-57,-43,-154,-212,-168,-112,-80
-25,-60,-35,42,6,-47,-67,-157,-210,-162,-107,-74
1,-71,-72,36,37,-72,-55,-150,-207,-166,-113,-76
16,-56,-72,20,45,-64,-51,-165,-212,-166,-106,-67
11,-75,-86,32,49,-80,-39,-140,-196,-157,-118,-76
-34,-92,-58,63,12,-75,-36,-182,-256,-212,-159,-113
-43,-122,-79,83,18,-100,-23,-143,-211,-181,-155,-128
-48,-99,-52,74,2,-75,-17,-181,-258,-224,-169,-124
-55,-110,-56,82,1,-83,-4,-135,-197,-171,-147,-124
-116,-47,69,82,-93,11,34,-158,-267,-240,-175,-130
-190,247,437,-29,-313,341,239,85,-130,-188,-108,-107
168,385,217,-277,-25,301,229,1006,932,701,540,324
804,894,90,-849,357,491,-381,633,1693,2305,1974,1359
910,706,-204,-808,557,251,-471,-289,1551,2833,2142,1403
233,-140,-373,-46,303,-256,87,-816,-99,568,304,226
-283,-169,114,226,-198,-28,180,-1114,-1172,-878,-541,-304
-238,-254,-16,246,-110,-134,-71,-766,-714,-552,-420,-288
-161,-240,-79,200,-40,-159,-90,-463,-516,-483,-389,-248
-113,-110,3,112,-58,-53,14,-174,-251,-259,-228,-170
-79,-111,-32,95,-24,-71,34,-46,-155,-216,-210,-150
-58,-47,11,53,-34,-18,50,-13,-123,-177,-161,-121
-40,-54,-14,47,-13,-34,57,40,-65,-139,-147,-116
-40,-26,14,32,-27,-6,59,49,-60,-139,-124,-102
-32,-27,5,29,-18,-10,62,90,-10,-85,-103,-98
-34,-16,19,25,-26,1,58,101,-9,-83,-105,-89
-30,-2,29,16,-30,13,61,139,45,-42,-84,-81
-18,15,33,1,-26,24,59,173,78,-16,-71,-63
-2,37,39,-18,-21,38,57,233,146,41,-35,-36
5,47,43,-26,-19,45,53,303,224,88,-4,-29
24,74,51,-49,-14,62,51,400,326,159,47,5
69,114,44,-92,12,79,48,512,454,262,106,41
116,156,40,-136,38,98,45,612,576,367,170,76
151,186,36,-169,57,111,43,692,682,469,242,130
175,206,31,-190,71,118,40,719,728,523,287,166
189,216,27,-203,81,121,38,710,721,517,287,166
176,198,22,-188,76,110,35,669,682,506,279,154
144,161,16,-153,64,88,32,586,591,446,249,138
110,121,11,-116,49,66,30,468,448,333,182,100
73,79,6,-77,33,42,27,330,291,218,109,54
41,41,0,-41,20,20,21,203,143,101,25,9
10,5,-5,-7,7,0,16,95,22,14,-37,-27
-6,-16,-10,11,3,-13,13,12,-72,-61,-76,-61
-11,-25,-14,18,2,-20,7,-49,-138,-115,-109,-89
-30,-49,-19,40,-5,-34,6,-90,-171,-138,-130,-97
-47,-64,-18,56,-14,-41,10,-111,-194,-161,-150,-111
-53,-68,-15,61,-19,-41,10,-119,-203,-171,-156,-117
-56,-68,-12,62,-22,-39,10,-113,-195,-174,-153,-113
-52,-62,-10,57,-21,-35,10,-103,-186,-172,-150,-128
-55,-60,-5,58,-25,-32,10,-97,-180,-165,-147,-139
-49,-55,-6,53,-21,-31,7,-88,-171,-160,-145,-127
-32,-52,-20,42,-6,-36,4,-68,-153,-155,-143,-118
-29,-49,-20,39,-4,-34,5,-58,-145,-151,-136,-111
-29,-45,-15,37,-6,-30,5,-61,-144,-144,-129,-104
-27,-41,-14,34,-6,-27,5,-60,-141,-141,-123,-98
-29,-38,-9,34,-10,-23,4,-61,-137,-136,-115,-90
-30,-33,-4,32,-13,-19,-1,-60,-135,-132,-111,-85
-30,-30,0,30,-15,-15,-4,-61,-136,-129,-109,-85
-38,-34,5,36,-21,-14,-7,-75,-145,-132,-114,-85
-46,-35,10,40,-27,-12,-12,-90,-171,-157,-121,-86
-40,-35,5,37,-22,-15,-15,-101,-182,-161,-119,-84
-38,-35,3,36,-20,-16,-19,-114,-188,-161,-126,-90
-47,-35,12,41,-29,-11,-25,-128,-204,-174,-139,-100
-48,-34,14,40,-30,-10,-30,-140,-214,-176,-143,-102
-39,-30,10,35,-24,-10,-35,-149,-215,-185,-148,-105
-40,-30,10,35,-25,-10,-42,-151,-215,-194,-151,-107
-40,-30,10,35,-25,-10,-44,-157,-223,-195,-155,-110
-40,-30,10,35,-25,-10,-40,-164,-228,-195,-158,-108
-40,-30,10,35,-25,-10,-40,-168,-233,-194,-162,-104
-32,-26,6,29,-19,-10,-40,-172,-236,-198,-166,-106
-40,-20,20,29,-30,0,-40,-168,-235,-201,-162,-105
-43,-15,27,29,-35,6,-40,-173,-236,-195,-161,-106
-32,-9,23,20,-27,7,-36,-175,-233,-187,-157,-104
-24,-4,20,14,-22,8,-24,-168,-239,-181,-155,-101
-18,2,20,8,-19,11,-16,-164,-239,-173,-154,-96
-17,17,34,0,-26,25,-3,-153,-221,-170,-148,-94
-17,28,45,-5,-32,36,12,-154,-228,-177,-141,-89
-8,18,26,-6,-17,22,-3,-129,-221,-172,-133,-85
-11,12,24,-1,-18,18,-60,-160,-232,-179,-129,-87
-4,8,12,-2,-9,10,-86,-191,-227,-171,-118,-90
16,-6,-21,-5,19,-13,-74,-187,-230,-179,-129,-95
25,-9,-34,-7,29,-21,-66,-199,-228,-169,-119,-95
5,-37,-42,17,24,-39,-54,-184,-214,-180,-140,-104
-23,-40,-17,31,-2,-28,-51,-211,-275,-226,-170,-114
-26,-73,-47,49,11,-60,-41,-164,-241,-196,-168,-124
-28,-30,-2,30,-13,-15,-44,-212,-299,-242,-180,-117
-5,-55,-51,30,24,-53,-28,-142,-229,-179,-166,-123
-132,49,181,41,-157,115,50,-196,-319,-279,-206,-135
-142,318,460,-88,-301,388,274,240,21,-101,-67,-78
272,490,218,-381,26,354,117,1058,1126,971,775,496
851,1002,151,-927,349,576,-507,390,1756,2594,2194,1499
846,549,-297,-697,571,126,-387,-454,1317,2548,1847,1200
68,-226,-294,79,181,-260,166,-951,-472,67,-26,33
-327,-163,163,245,-245,0,129,-1113,-1151,-888,-546,-323
-234,-261,-27,247,-103,-143,-106,-704,-656,-522,-426,-316
-146,-168,-22,157,-62,-95,-70,-435,-492,-460,-361,-243
-91,-73,18,81,-54,-27,17,-146,-209,-234,-225,-171
-90,-53,36,71,-63,-8,35,-66,-176,-243,-214,-153
-66,6,72,30,-69,39,55,-25,-117,-170,-160,-111
-61,-12,49,37,-55,18,48,26,-84,-148,-171,-113
-45,24,69,11,-58,46,51,25,-74,-127,-138,-96
-33,20,53,7,-43,36,50,57,-30,-96,-123,-93
-33,34,68,-1,-51,51,61,85,-17,-90,-105,-82
-33,31,64,0,-48,47,64,129,44,-41,-79,-72
-24,41,65,-9,-45,52,55,162,79,-18,-74,-63
-1,65,66,-33,-34,65,52,228,151,45,-47,-50
15,91,75,-53,-30,83,44,303,232,92,-13,-34
53,136,83,-94,-15,109,41,400,338,170,41,7
87,161,74,-124,6,117,34,513,471,276,113,51
122,198,76,-161,23,137,27,609,596,377,182,96
151,244,93,-198,29,168,21,677,686,469,241,134
158,245,87,-202,35,166,14,698,717,520,282,160
194,235,41,-214,76,138,7,678,702,525,288,168
198,224,26,-211,86,124,7,629,657,488,265,152
139,176,37,-158,51,106,17,527,551,413,225,131
105,137,32,-121,36,84,24,403,407,312,163,100
86,116,30,-101,28,73,18,273,248,178,75,36
48,75,27,-62,11,50,11,143,99,67,12,-15
14,38,24,-26,-6,31,4,44,-12,-14,-39,-34
-5,17,22,-6,-14,19,-4,-41,-100,-84,-95,-72
-23,-9,14,16,-18,2,-12,-95,-156,-124,-116,-91
-34,-24,11,29,-22,-6,-13,-121,-185,-163,-127,-101
-41,-37,4,39,-22,-17,-9,-140,-206,-177,-141,-111
-54,-55,-1,54,-26,-28,-10,-139,-210,-181,-152,-109
-47,-52,-4,50,-21,-28,-6,-134,-205,-190,-156,-111
-47,-46,1,46,-23,-22,-5,-132,-197,-185,-154,-109
-43,-43,0,43,-21,-21,-5,-122,-191,-180,-155,-110
-25,-37,-12,31,-6,-25,0,-109,-183,-172,-155,-110
-34,-34,1,34,-17,-16,0,-95,-162,-166,-155,-110
-34,-29,5,31,-20,-12,1,-90,-150,-159,-148,-110
-14,-24,-10,19,-2,-16,5,-91,-150,-150,-141,-107
-8,-20,-12,14,2,-15,5,-88,-150,-140,-134,-102
-9,-15,-6,12,-1,-11,3,-85,-150,-138,-130,-99
-12,-10,1,11,-6,-4,-3,-84,-150,-142,-130,-96
-21,-13,7,17,-14,-3,-7,-97,-152,-145,-130,-91
-30,-16,14,23,-21,-1,-11,-108,-153,-148,-130,-91
-40,-15,25,27,-32,5,-16,-118,-171,-152,-130,-95
-42,-15,27,28,-34,6,-21,-131,-189,-154,-130,-95
-39,-16,22,27,-30,3,-24,-145,-194,-163,-131,-95
-48,-27,21,38,-34,-3,-25,-163,-205,-174,-129,-95
-57,-40,17,48,-37,-12,-25,-166,-215,-176,-134,-95
-57,-42,15,49,-36,-13,-25,-179,-225,-183,-145,-99
-52,-38,14,44,-33,-11,-25,-187,-234,-189,-145,-100
-50,-34,16,41,-33,-9,-23,-187,-234,-193,-148,-100
-60,-32,28,46,-44,-2,-20,-192,-236,-194,-151,-105
-56,-25,31,40,-43,3,-20,-193,-240,-191,-148,-106
-58,-29,29,44,-43,0,-20,-196,-241,-188,-143,-104
-66,-35,31,51,-49,-2,-20,-187,-239,-185,-137,-98
-59,-30,29,44,-44,-1,-20,-179,-229,-181,-134,-91
-53,-22,31,37,-42,4,-19,-173,-224,-181,-129,-84
-35,8,43,13,-39,26,-27,-163,-210,-175,-124,-77
-17,29,46,-7,-32,37,-35,-155,-209,-177,-126,-71
-13,18,31,-3,-22,24,-17,-114,-199,-173,-123,-65
-3,15,18,-6,-11,16,-45,-115,-202,-177,-127,-66
15,12,-4,-14,9,4,-82,-134,-227,-174,-122,-64
28,-2,-30,-13,28,-15,-74,-124,-234,-174,-127,-67
33,6,-27,-20,30,-10,-67,-139,-240,-188,-124,-63
-4,-44,-40,25,18,-42,-56,-116,-215,-178,-124,-69
-50,-51,-1,51,-24,-25,-50,-148,-268,-219,-152,-94
-31,-77,-46,54,8,-61,-34,-109,-237,-211,-157,-111
-50,-59,-9,55,-20,-34,-35,-142,-278,-257,-167,-112
-37,-57,-20,48,-8,-38,-19,-82,-219,-210,-138,-111
-99,-10,89,55,-94,39,21,-122,-281,-275,-193,-127
-194,291,485,-49,-340,388,241,115,-148,-210,-129,-105
180,432,252,-307,-37,342,237,1045,916,690,543,331
809,937,127,-873,341,532,-382,703,1733,2337,1995,1373
914,739,-175,-827,544,282,-473,-208,1589,2874,2172,1421
247,-125,-372,-60,310,-248,74,-762,-104,572,310,249
-289,-136,153,212,-221,9,182,-1078,-1191,-907,-553,-296
-255,-222,34,239,-144,-93,-51,-733,-734,-580,-424,-306
-165,-208,-43,186,-61,-125,-71,-426,-525,-498,-380,-249
-111,-62,49,86,-79,-7,32,-141,-257,-274,-224,-159
-75,-65,10,70,-42,-27,55,-13,-163,-231,-213,-142
-54,-8,46,31,-50,19,74,26,-136,-190,-156,-101
-43,-23,20,33,-31,-2,67,66,-79,-149,-148,-101
-53,4,57,25,-55,30,63,68,-71,-149,-136,-89
-41,6,47,18,-45,26,63,107,-21,-106,-116,-84
-33,14,47,9,-40,30,54,123,-28,-108,-111,-79
-24,36,59,-6,-42,47,58,163,26,-59,-83,-67
-13,52,65,-20,-39,58,60,193,65,-27,-72,-58
-6,60,66,-27,-36,63,58,260,136,22,-43,-42
19,76,57,-48,-19,67,54,335,219,75,-6,-22
48,111,64,-80,-8,87,51,426,322,152,43,12
68,140,72,-104,-3,106,46,530,447,244,96,48
111,179,68,-145,21,123,43,629,572,359,173,93
156,217,60,-187,48,138,40,708,679,465,254,149
162,216,53,-189,54,134,40,743,726,518,294,182
160,206,46,-183,57,125,40,728,723,517,289,180
163,203,39,-183,62,121,40,672,672,491,276,170
140,171,31,-156,54,100,40,595,582,438,254,150
106,130,24,-118,40,77,36,478,441,326,183,107
72,89,17,-81,27,53,35,338,276,196,88,58
47,56,9,-52,19,32,35,217,140,83,23,16
28,30,3,-29,12,16,30,108,15,-11,-32,-20
-3,0,3,1,-3,1,30,26,-83,-81,-85,-57
-32,-23,8,27,-20,-7,29,-29,-137,-129,-106,-81
-47,-38,9,43,-28,-15,25,-70,-175,-156,-132,-89
-46,-41,4,43,-25,-18,23,-94,-199,-177,-153,-90
-39,-39,1,39,-20,-19,20,-100,-206,-185,-150,-100
-42,-44,-2,43,-20,-23,17,-95,-201,-185,-151,-107
-39,-46,-7,43,-16,-26,14,-87,-197,-199,-149,-102
-35,-45,-10,40,-12,-27,19,-60,-194,-199,-145,-101
-40,-44,-4,42,-18,-24,20,-34,-178,-185,-145,-97
-50,-40,10,45,-30,-15,20,-26,-163,-173,-144,-95
-66,-41,26,53,-46,-7,19,-14,-151,-158,-138,-93
-68,-38,31,53,-49,-3,14,-7,-142,-145,-130,-88
-58,-29,30,44,-44,0,16,-12,-145,-140,-125,-85
-52,-21,30,36,-41,4,13,-18,-148,-138,-117,-82
-42,-13,30,28,-36,8,9,-23,-150,-135,-112,-77
-37,-6,30,22,-33,12,10,-29,-154,-132,-113,-75
-36,-10,26,22,-31,8,6,-33,-154,-129,-118,-80
-35,-15,19,25,-27,2,5,-42,-167,-140,-119,-80
-31,-19,12,25,-22,-3,5,-56,-175,-157,-114,-79
-31,-24,7,27,-18,-9,0,-65,-185,-163,-125,-83
-26,-28,-2,27,-12,-15,0,-75,-204,-166,-130,-85
-33,-37,-3,35,-15,-20,-1,-84,-211,-168,-132,-85
-44,-41,3,42,-24,-19,-5,-91,-223,-172,-145,-85
-50,-38,12,43,-31,-13,-5,-98,-230,-183,-145,-85
-61,-35,26,47,-43,-4,-7,-101,-232,-187,-145,-85
-62,-32,29,47,-45,-1,-10,-98,-235,-185,-146,-81
-51,-29,22,40,-37,-3,-11,-103,-238,-186,-143,-76
-49,-34,15,41,-31,-10,-5,-104,-239,-184,-138,-73
-62,-34,28,47,-45,-3,4,-107,-238,-186,-135,-70
-44,1,44,21,-44,23,17,-102,-233,-180,-131,-64
-36,22,58,7,-47,40,21,-98,-232,-174,-128,-68
-24,20,45,2,-35,32,15,-93,-229,-170,-123,-67
9,18,9,-14,0,13,-18,-82,-223,-174,-122,-66
11,23,13,-17,-1,18,-66,-114,-230,-178,-119,-60
22,14,-8,-18,15,3,-66,-116,-222,-169,-120,-60
18,-9,-28,-4,23,-19,-57,-128,-242,-184,-121,-55
11,-46,-58,18,35,-52,-47,-113,-215,-161,-117,-54
-24,-46,-22,35,-1,-34,-43,-137,-251,-207,-153,-86
-44,-69,-25,57,-9,-47,-32,-114,-228,-196,-156,-101
-59,-75,-16,68,-22,-45,-33,-124,-247,-225,-170,-102
-61,-60,1,61,-31,-29,-19,-109,-235,-214,-146,-95
-67,-55,12,61,-40,-21,9,-93,-231,-216,-174,-116
-190,231,421,-21,-306,326,173,-61,-306,-311,-198,-131
29,379,349,-204,-160,364,300,849,620,385,284,157
655,814,159,-735,248,486,-221,957,1681,2020,1699,1156
944,915,-29,-930,487,443,-552,59,1856,3137,2449,1612
421,45,-375,-233,398,-165,-84,-547,417,1292,811,552
-207,-154,53,180,-130,-50,162,-1004,-1104,-792,-509,-231
-253,-157,95,205,-174,-31,-37,-776,-838,-648,-446,-283
-151,-221,-69,186,-41,-145,-98,-449,-541,-489,-401,-256
-118,-84,34,101,-76,-24,6,-187,-313,-310,-252,-163
-89,-70,19,79,-53,-26,39,-16,-155,-211,-207,-146
-73,2,75,36,-74,38,47,-5,-161,-213,-171,-107
-65,-2,64,33,-65,31,46,75,-72,-130,-141,-93
-59,13,72,23,-66,42,43,65,-82,-141,-150,-90
-49,22,72,13,-61,47,47,93,-29,-89,-115,-79
-43,22,65,10,-54,43,43,122,-27,-93,-104,-72
-27,48,75,-11,-51,61,47,153,10,-53,-79,-55
-26,60,86,-17,-56,73,49,195,59,-24,-73,-48
-18,72,90,-28,-54,81,55,246,117,23,-42,-27
-4,72,76,-34,-40,73,53,319,199,78,-8,-2
20,109,89,-65,-35,99,48,404,290,147,39,32
53,161,108,-107,-27,134,42,500,404,240,97,57
80,181,101,-131,-11,141,39,609,533,346,160,96
119,212,93,-166,12,152,33,694,657,457,239,155
152,238,87,-195,32,162,30,729,714,520,291,186
162,241,78,-202,42,159,35,723,708,530,287,194
149,222,73,-186,38,147,35,676,674,505,278,194
135,193,58,-164,39,125,35,602,582,450,250,182
107,156,50,-132,28,103,35,491,444,347,184,147
77,110,34,-94,21,72,35,367,305,234,128,97
49,88,39,-69,5,63,32,246,145,110,45,33
-3,61,64,-29,-34,62,23,130,9,2,-34,-19
-32,20,52,5,-42,36,12,51,-75,-62,-78,-39
-45,2,47,22,-46,24,5,-1,-135,-110,-109,-51
-60,-9,51,34,-55,21,2,-45,-174,-138,-122,-64
-72,-30,42,51,-57,6,-2,-62,-189,-153,-136,-75
-73,-37,36,55,-54,0,-5,-64,-196,-172,-148,-79
-57,-32,26,44,-41,-2,-10,-73,-209,-183,-151,-86
-50,-30,19,40,-34,-5,-8,-63,-212,-176,-150,-88
-31,-26,5,28,-18,-10,-4,-51,-199,-171,-150,-84
-33,-25,7,29,-19,-9,-5,-34,-188,-165,-150,-82
-49,-20,29,35,-39,4,-5,-13,-173,-160,-150,-79
-41,-10,30,25,-35,10,-5,-10,-154,-150,-146,-76
-36,0,36,18,-36,18,-6,-10,-149,-133,-135,-74
-37,6,43,16,-41,24,-9,-10,-151,-128,-125,-70
-42,4,46,19,-45,25,-11,-10,-150,-130,-115,-62
-34,16,50,9,-42,33,-8,-10,-151,-130,-110,-57
-25,20,45,2,-35,33,-18,-16,-150,-134,-110,-55
-32,13,45,9,-39,29,-31,-28,-151,-135,-110,-52
-35,10,45,12,-40,27,-30,-39,-168,-136,-110,-49
-40,5,45,17,-43,25,-30,-50,-181,-134,-110,-45
-45,1,45,21,-45,23,-30,-60,-189,-140,-113,-46
-47,-4,43,25,-44,19,-30,-70,-205,-158,-119,-58
-42,-5,37,24,-39,16,-32,-83,-218,-162,-125,-67
-38,-5,32,21,-35,13,-39,-91,-225,-174,-125,-69
-38,-10,29,24,-33,9,-45,-94,-227,-181,-125,-65
-34,-11,24,22,-29,6,-40,-97,-232,-182,-131,-61
-29,-9,20,19,-24,6,-41,-100,-235,-187,-131,-58
-26,-1,26,13,-26,12,-38,-96,-229,-181,-130,-53
-18,11,29,4,-24,20,-35,-90,-221,-174,-126,-50
3,19,17,-11,-7,18,-36,-89,-217,-170,-125,-46
-6,31,37,-13,-22,34,-32,-79,-207,-161,-124,-40
-28,47,75,-10,-52,60,-25,-83,-205,-163,-121,-35
-15,44,59,-15,-37,51,-14,-64,-199,-157,-115,-29
1,44,44,-23,-22,44,-52,-85,-214,-163,-115,-24
16,48,32,-32,-8,39,-84,-115,-216,-158,-108,-20
25,37,12,-32,6,24,-73,-112,-210,-160,-106,-29
24,29,5,-27,9,17,-67,-122,-231,-168,-112,-28
6,-7,-12,0,9,-10,-56,-103,-234,-164,-126,-35
-32,-9,23,20,-27,8,-53,-133,-272,-198,-137,-61
-41,-62,-21,52,-10,-41,-42,-91,-229,-171,-135,-77
-54,-46,8,50,-30,-19,-47,-136,-287,-221,-159,-80
-32,-54,-22,43,-4,-38,-27,-68,-218,-171,-140,-82
-103,60,163,21,-133,112,31,-146,-323,-279,-194,-91
-165,332,497,-84,-331,414,236,176,-115,-184,-105,-51
239,495,256,-368,-9,376,167,1073,1044,895,728,488
835,1036,201,-936,316,618,-443,611,1822,2616,2196,1513
845,659,-186,-752,516,236,-470,-219,1474,2778,2045,1356
185,-146,-331,-19,259,-238,22,-769,-303,293,151,183
-239,-112,127,175,-183,8,44,-1010,-1157,-894,-526,-251
-196,-225,-29,211,-84,-126,-119,-614,-661,-516,-387,-242
-136,-156,-21,146,-57,-88,-75,-340,-487,-448,-339,-189
-82,-42,40,62,-61,-1,-2,-75,-227,-227,-186,-112
-65,-38,27,51,-46,-5,24,1,-174,-216,-184,-99
-59,15,74,21,-66,44,39,33,-129,-160,-145,-68
-43,-3,40,23,-42,18,33,86,-83,-138,-131,-67
-37,26,63,5,-51,45,36,92,-84,-132,-104,-54
-22,21,43,1,-33,32,35,136,-26,-96,-93,-48
-17,35,52,-9,-35,43,35,147,-18,-99,-88,-42
-18,39,57,-11,-38,48,39,185,32,-48,-56,-22
-14,53,67,-19,-40,59,43,226,74,-20,-37,-4
-3,82,84,-39,-44,83,45,287,143,37,-8,13
24,116,92,-70,-34,104,38,362,222,89,19,20
51,160,109,-105,-29,134,34,453,322,159,59,43
75,194,119,-135,-22,156,29,559,449,261,121,87
125,236,110,-181,7,173,25,661,574,368,189,130
163,267,104,-215,29,185,21,722,668,466,262,180
183,281,98,-233,43,189,16,744,706,517,301,201
187,278,91,-232,48,184,15,723,688,514,292,191
167,254,86,-211,41,170,15,668,626,483,282,187
133,218,85,-176,24,151,10,579,526,408,249,177
82,165,83,-124,-1,124,10,455,385,299,183,139
48,128,80,-88,-16,103,9,325,221,171,95,90
36,114,79,-75,-22,96,2,202,82,60,23,50
13,81,68,-47,-28,74,-2,103,-26,-20,-28,9
-6,51,56,-23,-31,53,-8,26,-111,-92,-70,-23
-9,36,45,-14,-27,40,-14,-24,-168,-138,-102,-42
-11,24,36,-7,-24,30,-19,-54,-195,-156,-124,-56
-17,17,34,-1,-26,26,-25,-76,-205,-169,-129,-64
-23,8,31,8,-27,19,-25,-73,-210,-181,-133,-65
-24,4,28,10,-26,16,-20,-67,-209,-181,-130,-65
-20,6,26,6,-23,16,-18,-67,-202,-176,-129,-69
-21,4,24,8,-23,14,-13,-50,-200,-172,-131,-70
-30,8,38,10,-35,23,-10,-44,-192,-168,-129,-69
-22,23,45,-1,-34,34,-7,-65,-181,-163,-131,-63
-19,29,48,-6,-34,38,-4,-74,-155,-153,-125,-57
-15,32,47,-9,-31,39,-1,-65,-156,-140,-115,-51
-9,37,46,-14,-28,41,0,-58,-145,-128,-105,-46
