I,II,III,aVR,aVL,aVF,V1,V2,V3,V4,V5,V6
-75,-120,-45,98,-15,-82,-135,-270,-385,-268,-138,-59
-80,-126,-46,103,-16,-86,-41,-119,-270,-224,-123,-55
-62,-117,-55,90,-3,-86,40,9,-146,-137,-99,-55
-7,-56,-49,32,21,-52,44,40,-90,-83,-65,-56
-6,-42,-36,25,15,-39,56,79,-38,-56,-49,-54
-43,-75,-32,59,-5,-53,66,74,-37,-50,-51,-56
-30,-64,-33,47,2,-48,61,76,-38,-45,-46,-49
6,-55,-61,25,34,-58,59,82,-29,-39,-45,-24
-7,-48,-41,28,17,-44,54,79,-29,-34,-43,-29
-12,-38,-27,25,8,-32,50,79,-21,-28,-39,-37
7,-32,-38,13,23,-34,52,73,-19,-25,-40,-28
-23,-24,0,23,-11,-12,56,77,-12,-22,-40,-24
-6,-18,-11,12,3,-14,55,71,-6,-20,-40,-15
31,-11,-43,-10,37,-27,55,70,1,-16,-40,-10
40,-3,-43,-18,42,-23,55,70,8,-15,-35,0
27,-4,-31,-11,29,-17,55,70,15,-10,-30,-7
-5,-21,-17,13,6,-19,49,70,12,0,-26,-22
-1,-27,-26,14,13,-26,44,74,12,7,-22,-17
29,-16,-45,-6,37,-30,39,74,35,17,-14,-13
38,-16,-54,-11,46,-35,32,65,40,23,-7,-9
50,3,-47,-27,49,-22,28,60,51,33,-1,-4
88,48,-40,-67,63,4,22,51,67,42,17,0
95,59,-36,-77,65,12,13,44,75,50,21,5
89,60,-28,-74,58,16,-7,34,102,66,13,9
85,66,-19,-75,52,23,-27,8,102,64,9,14
74,65,-9,-69,41,28,-48,-28,84,66,3,19
17,65,48,-41,-16,56,-77,-75,56,59,-3,22
-3,66,69,-32,-37,67,-89,-119,15,35,-3,31
-20,63,83,-22,-52,73,-106,-162,-20,-10,-2,36
-59,67,127,-4,-94,97,-116,-199,-56,-54,-24,2
-42,57,100,-8,-71,78,-106,-218,-91,-58,-53,-24
-82,34,116,24,-99,75,-102,-228,-128,-81,-55,-24
-81,46,127,17,-104,86,-95,-205,-141,-92,-55,-20
-88,46,134,20,-111,90,-85,-182,-140,-89,-54,-14
-114,30,144,42,-130,87,-75,-164,-138,-98,-47,-36
-80,20,100,30,-91,60,-43,-116,-106,-86,-42,-43
-78,6,84,36,-81,45,-20,-79,-84,-74,-36,-29
-38,-3,35,20,-36,16,-14,-41,-70,-47,-31,-18
-9,12,22,-2,-16,16,8,5,-43,-22,-25,1
13,23,9,-18,2,16,24,34,-24,-30,-21,-1
25,13,-12,-19,19,0,31,53,-10,-20,-14,-5
-17,12,29,2,-23,20,39,66,3,-7,-9,-11
5,-1,-6,-2,5,-4,47,79,23,-2,-3,-2
18,11,-7,-14,12,2,55,80,24,5,10,13
17,17,0,-17,8,8,56,81,23,9,10,10
52,20,-32,-35,42,-6,53,86,48,29,5,8
27,24,-3,-25,14,10,50,85,49,37,3,4
-12,-2,9,7,-11,4,50,83,36,12,-1,2
15,19,4,-17,6,11,43,74,35,-16,-6,-5
40,12,-28,-26,33,-8,46,66,36,5,1,-5
17,9,-7,-13,12,1,47,60,28,35,-6,-18
0,7,6,-4,-3,6,38,55,11,19,-31,-45
9,-3,-12,-2,10,-7,36,51,-5,7,-29,-41
15,17,2,-16,7,9,27,46,-14,0,-25,-34
25,-12,-37,-6,31,-24,29,41,-21,-10,-24,-31
11,-11,-22,1,17,-16,40,42,-28,-19,-19,-22
10,4,-5,-7,7,0,40,46,-27,-32,-23,-24
44,7,-37,-25,40,-15,40,45,-24,-29,-26,-38
18,-16,-34,-1,26,-25,40,45,-25,-27,-25,-41
-9,-45,-36,27,14,-40,40,45,-25,-24,-25,-39
-8,-37,-29,23,11,-33,38,44,-25,-20,-25,-41
-11,-42,-31,27,10,-37,34,41,-24,-20,-25,-39
-28,-45,-17,37,-5,-31,35,34,-19,-24,-26,-42
-59,-44,15,52,-37,-14,31,31,-20,-29,-35,-45
-30,-42,-12,36,-9,-26,30,26,-20,-34,-37,-47
19,-8,-27,-5,23,-17,30,22,-20,-31,-33,-51
33,20,-13,-26,23,3,35,17,-32,-18,-31,-46
19,7,-12,-13,15,-2,43,15,-29,-37,-28,-40
11,-11,-22,1,16,-16,47,42,-17,-35,-25,-33
-16,-21,-5,19,-5,-13,55,52,-7,-12,-24,-31
-18,8,26,5,-22,17,60,43,0,-21,-16,-25
30,49,19,-40,5,34,50,40,5,-13,-7,-9
26,64,39,-45,-7,51,37,32,23,-5,1,2
30,92,62,-61,-17,77,27,28,21,0,13,10
50,119,69,-85,-10,93,13,22,11,8,22,14
38,98,60,-68,-11,78,4,19,7,14,38,35
43,62,19,-53,12,41,-11,13,-2,26,33,34
25,55,31,-40,-3,43,-14,10,-5,8,14,15
-3,1,4,1,-4,3,15,22,-19,-43,5,4
-22,-59,-38,41,8,-48,21,26,-33,-49,-16,-23
-28,-55,-28,42,0,-41,20,22,-54,-53,-42,-46
-12,-89,-78,51,33,-83,19,17,-58,-68,-52,-58
-60,-108,-48,84,-6,-78,22,17,-60,-71,-55,-59
-73,-65,8,69,-40,-29,18,7,-62,-71,-52,-54
-52,-93,-41,72,-6,-66,24,16,-54,-61,-44,-49
-27,-64,-38,46,6,-50,25,18,-70,-73,-53,-49
-15,-59,-44,37,15,-51,30,31,-44,-50,-30,-39
-20,-105,-85,63,33,-95,72,67,-45,-79,-70,-66
40,-34,-74,-3,57,-53,65,102,136,72,2,-33
167,85,-83,-126,125,1,-121,-8,523,538,373,215
388,420,32,-404,178,226,-464,-352,958,1104,801,516
310,377,67,-344,121,222,-481,-531,702,883,701,492
-30,-81,-51,56,11,-66,-233,-471,-313,-116,53,115
-115,-161,-46,138,-34,-103,-79,-229,-488,-375,-199,-102
-82,-158,-77,120,-2,-117,28,8,-203,-202,-128,-88
-82,-140,-59,111,-11,-99,53,43,-139,-157,-100,-71
-7,-56,-49,31,21,-52,60,68,-50,-94,-49,-65
-14,-71,-57,43,22,-64,61,66,-45,-104,-59,-54
-24,-69,-45,47,11,-57,58,63,-16,-86,-53,-50
32,-53,-85,11,59,-69,62,68,-49,-89,-59,-77
-16,-64,-48,41,16,-56,58,62,-49,-74,-61,-61
-23,-67,-44,45,11,-55,57,68,-28,-61,-59,-58
-12,-63,-50,37,19,-56,49,63,-27,-56,-49,-57
5,-67,-73,32,39,-70,47,66,-11,-48,-32,-27
-3,-66,-63,35,30,-64,41,77,-9,-47,-36,-19
-50,-79,-29,64,-10,-53,37,79,2,-40,-38,-11
6,-77,-83,35,45,-80,34,72,8,-37,-40,-37
31,-46,-76,8,53,-61,37,69,23,-32,-34,-52
13,-42,-55,15,34,-48,45,64,37,-23,-24,-38
46,-7,-54,-19,50,-30,40,60,45,-12,-21,-36
52,4,-48,-28,50,-22,32,55,45,-4,-8,-23
5,-42,-47,19,27,-44,26,48,45,24,18,10
12,-27,-40,8,26,-33,17,44,43,25,28,9
23,-18,-41,-2,32,-30,3,37,54,23,23,-4
-8,-28,-19,18,6,-23,-4,33,74,48,27,7
43,-7,-50,-18,47,-28,-28,24,80,69,49,13
64,17,-48,-40,56,-15,-54,-3,76,68,48,24
65,44,-21,-55,43,11,-58,-30,71,52,32,27
36,11,-25,-24,31,-7,-69,-59,47,45,23,27
-27,8,35,9,-31,21,-99,-111,1,8,8,9
1,56,56,-29,-28,56,-129,-158,-42,-16,-8,-9
-39,54,93,-8,-67,73,-123,-177,-103,-38,-23,-1
-70,56,126,7,-98,91,-115,-179,-147,-81,-36,-14
-73,52,125,10,-99,89,-110,-170,-178,-115,-51,-31
-104,30,135,37,-120,82,-96,-165,-209,-148,-57,-40
-119,-10,110,64,-115,50,-80,-154,-197,-142,-52,-35
-114,-10,105,62,-109,47,-56,-132,-184,-131,-50,-30
-83,4,87,39,-85,45,-46,-104,-170,-124,-46,-27
-87,-11,75,49,-81,32,-28,-67,-136,-102,-45,-20
-66,-5,61,35,-63,28,-3,-24,-96,-83,-41,-20
-58,-14,45,36,-51,15,7,1,-71,-64,-31,-19
-50,-12,38,31,-44,13,10,13,-50,-48,-25,-21
-18,1,19,8,-18,9,16,32,-21,-34,-14,-18
-15,17,32,-1,-24,24,18,42,-8,-26,-16,-28
53,31,-22,-42,37,5,27,55,15,-14,-20,-39
62,10,-52,-36,57,-20,40,71,44,7,-5,-30
5,5,0,-5,2,3,37,67,45,23,12,-22
11,27,16,-20,-3,21,30,61,45,25,27,-13
20,28,8,-24,5,18,29,59,43,17,25,-14
40,17,-23,-28,32,-3,20,51,39,11,22,-16
23,10,-13,-17,17,-1,26,55,41,4,19,-14
12,2,-9,-7,10,-3,45,66,33,-2,15,-20
0,-8,-8,4,4,-8,45,63,18,-9,16,-30
-30,-24,6,27,-18,-8,45,60,5,-16,7,-20
-27,-18,9,22,-17,-4,45,58,-4,-8,0,-6
-1,-10,-9,6,4,-9,45,55,-12,-23,-24,-36
2,-35,-37,17,20,-36,43,53,-19,-43,-42,-53
-31,-32,-1,31,-15,-16,39,49,-23,-37,-32,-44
9,-1,-10,-4,10,-5,41,47,-25,-36,-26,-42
40,3,-37,-21,39,-17,36,44,-25,-32,-19,-36
5,-14,-19,5,12,-17,35,41,-25,-30,-12,-33
2,-16,-18,7,10,-17,34,39,-25,-32,-13,-26
21,-17,-37,-2,30,-27,31,36,-25,-43,-33,-21
-29,-45,-16,37,-6,-30,28,31,-25,-50,-46,-16
-52,-49,3,51,-28,-23,25,29,-26,-50,-44,-10
-33,-39,-6,36,-13,-22,22,24,-24,-51,-46,-6
-30,-36,-6,33,-12,-21,19,20,-27,-48,-43,-15
-25,-30,-5,27,-10,-17,22,18,-36,-59,-54,-46
-40,-30,9,35,-25,-10,29,10,-28,-46,-41,-34
-41,-25,17,33,-29,-4,36,33,-18,-25,-20,-9
-31,18,49,7,-40,33,52,56,-8,-25,-16,-6
1,43,42,-22,-21,42,64,42,0,-21,-10,0
7,55,48,-31,-21,51,36,28,1,-18,-4,5
18,103,85,-61,-34,94,9,20,5,-15,2,12
38,115,77,-76,-20,96,5,20,7,-14,5,16
22,104,82,-63,-30,93,-1,19,12,-1,23,33
21,94,73,-58,-26,84,-7,14,5,-1,24,42
19,54,35,-37,-8,44,-9,16,-7,-12,12,34
5,21,16,-14,-6,19,-3,12,-23,-26,-3,27
-34,-8,26,21,-30,9,3,10,-35,-33,-21,7
-40,-63,-23,52,-8,-43,8,9,-52,-47,-38,-24
11,-77,-88,33,50,-82,13,4,-74,-78,-70,-48
-13,-74,-61,44,24,-67,21,7,-70,-80,-74,-52
-68,-75,-7,72,-30,-41,14,9,-69,-74,-63,-47
-57,-67,-11,62,-23,-39,17,23,-56,-67,-57,-44
-33,-74,-42,54,4,-58,7,24,-60,-69,-53,-43
-24,-65,-41,45,9,-52,15,39,-44,-53,-40,-35
-23,-95,-72,59,25,-83,49,45,-36,-83,-82,-62
4,-56,-61,26,33,-58,68,86,49,-22,-56,-46
114,82,-32,-98,73,25,-61,22,399,391,249,164
341,396,55,-369,143,225,-459,-335,899,1000,709,486
379,500,121,-440,129,310,-588,-542,972,1109,809,573
122,66,-55,-94,88,6,-379,-531,93,280,296,291
-44,-152,-109,98,33,-130,-167,-339,-482,-324,-114,17
-67,-140,-73,104,3,-107,22,-46,-260,-228,-132,-57
-26,-130,-104,78,39,-117,49,29,-149,-154,-115,-56
10,-56,-66,23,38,-61,40,57,-81,-98,-79,-38
-28,-49,-21,39,-3,-35,55,72,-51,-51,-65,-33
-30,-48,-18,39,-6,-33,62,73,-52,-44,-65,-35
-30,-57,-27,43,-1,-42,68,80,-38,-35,-55,-35
-35,-55,-20,45,-7,-37,63,69,-44,-49,-53,-35
-24,-53,-29,39,3,-40,67,70,-30,-53,-45,-30
-4,-62,-58,33,27,-60,64,64,-33,-47,-42,-25
8,-53,-60,23,34,-56,63,59,-25,-36,-39,-20
-2,-25,-22,14,10,-23,59,68,-23,-32,-40,-17
11,-16,-27,3,19,-21,60,89,-13,-24,-35,-10
-2,-37,-36,20,17,-36,60,91,-4,-17,-35,-14
-9,-21,-12,15,2,-16,60,89,3,-11,-34,-26
10,-18,-28,4,20,-23,60,91,14,-6,-27,-18
5,-34,-39,15,22,-36,55,90,21,-2,-23,-10
2,-28,-30,13,16,-29,50,89,35,3,-17,-1
17,-26,-42,5,30,-34,46,84,39,5,-11,-8
32,-10,-42,-11,37,-25,41,82,47,17,-6,-12
31,-4,-35,-13,34,-20,37,78,72,41,-1,7
30,3,-27,-16,28,-12,31,76,85,51,2,17
63,25,-37,-44,50,-6,13,64,99,61,6,25
78,43,-35,-60,57,4,-8,31,96,71,9,29
52,45,-7,-48,29,19,-21,4,89,63,14,20
21,45,24,-33,-2,34,-44,-36,83,48,14,17
-16,38,54,-11,-35,46,-70,-90,51,35,0,10
-16,43,59,-13,-38,51,-90,-135,11,20,-13,5
-36,61,97,-12,-67,78,-101,-177,-38,-18,-26,-1
-73,34,107,19,-90,70,-95,-201,-90,-61,-39,-19
-84,24,107,30,-96,65,-91,-207,-137,-90,-54,-20
-107,26,132,40,-120,79,-86,-201,-167,-117,-65,-20
-116,11,128,52,-122,69,-82,-186,-175,-124,-59,-26
-105,6,111,49,-108,58,-76,-169,-175,-120,-53,-25
-93,-4,89,49,-91,42,-58,-138,-158,-111,-46,-25
-59,-19,39,39,-49,10,-37,-102,-138,-99,-39,-22
-16,-25,-9,20,-3,-16,-20,-65,-108,-82,-32,-19
-37,-19,18,28,-27,-1,8,-26,-74,-64,-32,-20
-38,-15,23,27,-30,4,20,4,-53,-53,-36,-15
-5,-9,-4,7,0,-6,23,41,-24,-47,-34,-14
4,-25,-29,11,16,-26,51,71,-1,-32,-39,-16
5,-47,-52,21,29,-49,51,69,1,-18,-40,-12
24,-29,-53,3,39,-41,40,63,-2,-21,-41,-28
44,-25,-69,-10,57,-47,61,89,25,0,-18,-22
-6,-38,-31,22,13,-34,65,104,53,22,8,9
2,-2,-4,0,3,-3,59,97,49,19,4,4
65,4,-62,-34,64,-29,58,96,47,21,5,2
43,-6,-48,-18,46,-27,51,92,44,16,5,0
5,7,2,-6,1,5,52,90,40,14,5,-6
-18,-23,-5,21,-6,-14,60,88,40,16,6,-6
9,-36,-45,14,28,-40,58,79,33,8,-3,-22
14,-34,-48,10,31,-40,54,71,23,4,-7,-28
-36,-37,-1,37,-17,-19,51,63,12,-6,-5,-26
-51,-32,19,41,-34,-6,46,55,2,-8,-4,-13
-2,-40,-38,21,19,-38,43,51,-13,-23,-25,-30
15,-22,-36,4,26,-29,40,48,-30,-40,-47,-53
-67,-21,46,44,-56,12,37,45,-30,-26,-41,-21
-38,-47,-8,42,-15,-27,35,42,-25,-23,-33,-21
20,-37,-57,9,39,-46,31,40,-24,-26,-29,-24
0,-36,-36,19,18,-36,30,38,-19,-24,-19,-17
-15,-45,-30,30,8,-38,33,35,-22,-26,-17,-23
-42,-49,-6,46,-18,-28,38,32,-24,-27,-28,-18
-4,-49,-45,27,21,-46,39,29,-26,-31,-30,-22
-8,-42,-34,25,14,-38,35,26,-29,-29,-22,-19
7,-41,-47,17,27,-44,30,25,-30,-31,-21,-29
55,-36,-91,-9,73,-63,28,31,-42,-47,-44,-42
-43,-32,10,38,-26,-11,23,38,-43,-46,-47,-12
-48,-30,19,39,-34,-5,20,40,-35,-35,-34,-2
1,-30,-31,14,16,-30,23,40,-31,-29,-29,-23
-6,-31,-25,19,10,-28,28,40,-25,-20,-20,-26
-19,-24,-4,22,-7,-14,49,40,-19,-16,-15,-23
-23,4,27,10,-25,15,59,40,-7,-10,-8,-19
11,51,40,-31,-15,45,44,35,2,-6,-1,-13
6,78,72,-42,-33,75,29,27,6,-1,6,-11
1,80,79,-41,-39,79,8,21,4,3,13,3
26,94,69,-60,-22,81,-11,14,0,9,22,17
24,77,53,-51,-15,65,-8,8,-8,22,33,11
45,53,8,-49,19,30,-1,1,-15,15,25,4
84,51,-33,-67,58,9,6,1,-20,0,9,-2
17,17,0,-17,8,9,12,-1,-29,-14,-3,-10
-42,-43,-1,42,-20,-22,20,-2,-30,-31,-22,-20
-26,-83,-56,55,15,-69,16,-6,-53,-51,-40,-47
-18,-62,-44,40,13,-53,14,-5,-66,-59,-54,-61
-21,-57,-36,39,8,-46,11,3,-67,-60,-59,-61
-2,-63,-61,33,30,-61,7,6,-73,-61,-62,-67
-5,-64,-59,35,27,-61,7,23,-69,-58,-64,-60
-10,-49,-39,30,15,-43,3,7,-84,-63,-69,-58
-11,-60,-49,36,19,-54,34,25,-46,-55,-70,-52
-21,-95,-74,58,27,-84,64,63,-25,-58,-61,-48
54,-20,-74,-16,64,-47,56,89,138,86,32,-2
216,226,10,-221,103,118,-240,-110,579,578,390,251
376,532,155,-454,110,343,-598,-429,1048,1114,800,547
287,329,42,-308,122,186,-553,-520,699,796,611,449
57,-49,-106,-4,81,-77,-345,-474,-254,-71,55,102
-64,-122,-58,93,-3,-89,-85,-184,-359,-259,-123,-47
-46,-153,-107,100,31,-130,53,23,-145,-140,-96,-64
-20,-97,-77,59,28,-87,41,43,-118,-110,-78,-45
-31,-60,-29,46,-1,-44,61,85,-42,-60,-56,-35
7,-58,-65,26,37,-62,60,69,-59,-68,-62,-65
-15,-46,-31,31,8,-39,64,78,-42,-47,-43,-30
-32,-52,-19,42,-6,-35,60,74,-43,-45,-40,-23
-21,-40,-19,30,0,-29,59,74,-38,-39,-36,-37
-3,-42,-40,23,19,-41,61,77,-31,-33,-32,-35
12,-35,-47,12,30,-40,59,73,-31,-32,-29,-51
1,-29,-30,15,16,-30,62,77,-21,-24,-23,-46
19,-23,-42,3,30,-32,64,78,-19,-23,-30,-41
20,-14,-34,-3,27,-23,66,83,-10,-15,-33,-38
36,-16,-52,-10,44,-34,65,85,-7,-12,-29,-32
-2,-29,-27,15,13,-28,65,90,-1,-7,-23,-29
-50,-38,13,44,-31,-12,65,88,6,-2,-20,-24
-15,-32,-18,24,2,-25,63,82,10,1,-15,-21
10,-12,-22,1,16,-17,54,78,18,7,-11,-18
37,20,-17,-29,27,2,48,74,37,14,-6,-13
33,2,-31,-17,32,-15,40,68,47,21,1,-10
29,-15,-44,-7,37,-29,32,66,55,28,8,-6
58,27,-31,-42,44,-2,18,54,64,34,14,0
67,42,-26,-54,46,8,9,45,79,43,22,5
67,39,-28,-52,47,5,-7,24,78,39,24,10
40,41,1,-40,19,20,-34,-17,63,25,13,17
-1,40,41,-20,-21,40,-49,-53,48,16,0,18
-28,39,66,-6,-47,52,-74,-101,9,-3,-12,-2
-32,51,83,-10,-57,67,-99,-147,-36,-32,-32,-24
-62,50,112,6,-87,81,-114,-200,-98,-76,-54,-37
-95,29,124,33,-109,76,-114,-225,-142,-105,-63,-35
-98,25,123,36,-111,74,-107,-219,-163,-114,-64,-28
-104,17,122,43,-113,69,-106,-229,-199,-141,-74,-50
-99,11,110,44,-105,61,-94,-206,-194,-141,-73,-59
-80,4,84,38,-82,44,-80,-160,-173,-117,-63,-48
-47,1,47,23,-47,24,-67,-133,-160,-108,-56,-43
-25,17,42,3,-34,30,-58,-102,-129,-93,-47,-36
7,21,15,-14,-4,18,-37,-61,-98,-73,-38,-34
29,5,-24,-16,26,-9,-12,-27,-73,-55,-30,-31
-8,-1,7,4,-7,3,7,-2,-53,-45,-21,-28
-18,-23,-5,21,-7,-13,35,39,-38,-35,-15,-26
-11,-38,-27,25,8,-32,46,71,-17,-25,-12,-23
0,-13,-13,7,7,-13,44,71,0,-13,-9,-20
4,-2,-7,-1,6,-4,45,74,13,0,-4,-15
-3,0,3,2,-3,1,51,82,30,10,-1,-13
30,5,-25,-17,27,-10,56,83,35,19,3,-8
22,14,-9,-18,15,2,48,76,28,20,5,-5
7,14,6,-11,0,10,45,69,25,20,5,-9
33,5,-28,-19,30,-11,40,63,20,20,5,-15
26,-1,-27,-12,27,-13,35,56,15,20,5,-15
-4,-8,-3,6,0,-5,44,52,26,19,5,-15
-18,-13,5,16,-11,-4,43,47,25,10,1,-15
-2,-21,-19,12,9,-20,37,45,9,1,-4,-15
2,-24,-26,11,14,-25,34,40,2,-13,-6,-18
24,-17,-42,-3,33,-30,29,37,-3,-22,-11,-21
50,0,-49,-25,49,-24,24,34,-5,-19,-13,-24
26,-12,-38,-7,32,-25,20,29,-10,-16,-23,-27
12,-21,-33,4,23,-27,20,26,-13,-13,-31,-29
-13,-28,-16,21,2,-22,20,22,-17,-10,-30,-33
-31,-41,-11,36,-10,-26,20,19,-24,-11,-29,-35
-25,-12,12,19,-18,0,19,14,-31,-24,-25,-39
10,-12,-22,1,16,-17,23,26,-37,-39,-25,-40
1,-43,-44,21,23,-43,27,46,-37,-42,-25,-36
-36,-46,-10,41,-13,-28,25,43,-34,-39,-25,-24
-8,-35,-27,22,10,-31,25,35,-31,-36,-25,-17
-10,-28,-18,20,4,-23,22,30,-28,-33,-25,-20
5,-21,-26,8,15,-23,19,22,-25,-30,-25,-20
23,-20,-43,-1,33,-32,21,20,-26,-30,-25,-22
5,-19,-24,7,15,-21,24,20,-26,-31,-20,-26
-11,-27,-16,19,3,-21,26,20,-24,-28,-20,-25
-16,-44,-29,30,7,-36,24,20,-26,-26,-19,-22
-3,-57,-54,30,26,-55,26,20,-24,-22,-15,-19
-25,-42,-17,33,-4,-29,24,20,-26,-20,-15,-16
-19,-11,8,15,-13,-2,29,19,-19,-18,-12,-13
-2,-6,-4,4,1,-5,42,37,9,-15,-4,-9
-16,27,43,-6,-30,35,36,41,17,-16,2,-1
-19,57,75,-19,-47,66,31,25,11,-11,9,1
-6,73,78,-34,-42,75,18,17,10,-10,21,22
21,88,67,-55,-23,77,-2,2,4,-9,30,37
31,83,52,-57,-11,67,-12,-7,10,-4,33,30
41,88,47,-65,-4,68,-23,-5,20,9,31,24
60,59,-1,-60,30,29,-20,2,3,9,14,19
8,-1,-9,-3,9,-5,-20,4,-18,-20,2,12
-25,-53,-28,39,1,-40,-16,2,-34,-40,-18,-28
14,-21,-35,4,24,-28,-15,-6,-67,-66,-57,-50
-19,-9,11,14,-15,1,-10,-11,-71,-72,-60,-30
-43,-96,-54,70,6,-75,21,4,-68,-67,-60,-37
-2,-95,-93,48,46,-94,30,-11,-72,-75,-62,-54
-20,-86,-66,53,23,-75,31,-15,-56,-71,-65,-46
-96,-97,-1,96,-48,-49,28,-7,-61,-74,-67,-20
-66,-80,-14,73,-26,-47,31,16,-39,-54,-52,-25
15,-111,-127,48,71,-119,31,38,-65,-84,-93,-88
-4,-35,-31,20,13,-33,72,89,38,-14,-39,-45
89,104,15,-97,37,59,-49,29,374,337,222,146
304,401,97,-353,103,249,-460,-322,824,890,640,437
350,498,148,-424,101,323,-623,-544,921,1020,751,529
160,95,-66,-127,113,14,-460,-551,101,265,285,255
-31,-89,-58,60,14,-73,-206,-345,-413,-258,-73,18
-61,-119,-58,90,-1,-88,-7,-45,-210,-179,-102,-57
-39,-121,-81,80,21,-101,34,36,-118,-115,-69,-46
-19,-40,-22,30,2,-31,53,62,-49,-62,-51,-36
-13,-55,-42,34,15,-49,50,71,-38,-49,-53,-43
-24,-47,-23,35,0,-35,47,69,-41,-45,-47,-38
-5,-46,-41,26,18,-43,47,77,-26,-36,-43,-41
2,-44,-46,21,25,-45,42,73,-31,-36,-41,-40
-47,-39,8,43,-28,-15,53,73,-15,-24,-34,-37
-50,-40,10,45,-30,-15,55,68,-20,-31,-34,-32
13,-32,-45,10,29,-38,56,67,-31,-36,-44,-53
-2,-25,-23,14,11,-24,53,63,-30,-34,-46,-31
-6,-21,-15,14,5,-18,50,60,-16,-31,-44,-14
44,-8,-52,-18,48,-30,50,62,-8,-28,-41,-38
12,-25,-37,7,25,-31,50,68,1,-26,-39,-34
-24,-57,-33,41,5,-45,50,65,7,-23,-39,-24
-28,-42,-15,35,-6,-28,50,65,14,-16,-32,-17
-6,-35,-29,21,12,-32,50,65,20,-8,-26,-19
21,-31,-52,5,36,-41,51,65,29,0,-19,-21
20,-26,-46,3,33,-36,49,70,42,7,-13,-20
3,-22,-25,10,14,-23,45,65,54,16,-6,-20
9,-5,-14,-2,12,-10,37,55,62,21,-1,-21
52,5,-47,-28,49,-21,35,48,72,36,1,-14
40,30,-10,-35,24,10,22,40,78,48,4,15
10,46,36,-29,-13,41,-8,18,71,37,5,21
-5,38,43,-17,-25,40,-33,-30,58,24,-6,12
-23,27,50,-2,-37,39,-56,-75,34,10,-13,6
-51,18,69,16,-61,43,-73,-116,2,-21,-31,-1
-59,10,69,24,-64,39,-89,-166,-50,-59,-56,-8
-91,-1,90,46,-91,44,-91,-192,-91,-74,-53,-11
-120,-1,119,60,-119,59,-93,-212,-133,-103,-60,-24
-83,13,96,35,-90,54,-95,-210,-167,-128,-76,-49
-118,28,146,45,-132,87,-85,-194,-159,-116,-68,-50
-95,17,112,39,-104,65,-80,-179,-155,-109,-57,-49
-65,0,65,33,-65,32,-72,-140,-147,-96,-47,-51
-85,-11,74,48,-80,31,-59,-112,-129,-90,-40,-49
-12,-12,0,12,-5,-6,-49,-81,-97,-76,-41,-51
-34,7,41,13,-37,24,-20,-36,-55,-34,-39,-27
-48,-17,31,32,-39,7,13,6,-36,-25,-35,-3
-9,-27,-18,19,5,-22,29,30,-26,-28,-35,-10
-23,-15,8,19,-15,-4,41,47,-11,-14,-33,-27
25,-12,-37,-6,32,-25,40,70,4,-2,-26,-31
34,-3,-37,-15,36,-20,41,71,13,5,-21,-29
29,-5,-34,-12,31,-19,37,68,18,11,-15,-31
21,-3,-24,-9,22,-13,55,80,31,11,-8,-18
6,-22,-28,9,17,-25,77,84,47,25,3,2
26,-16,-41,-5,34,-28,67,77,44,45,12,8
6,20,14,-13,-5,17,63,72,32,31,11,6
6,21,15,-14,-5,18,57,66,21,13,7,2
15,24,9,-20,3,16,51,61,10,10,4,-1
14,9,-5,-11,10,2,44,57,3,10,1,-4
-27,-18,8,22,-17,-5,37,52,-4,10,-3,-7
-46,-36,10,40,-28,-13,31,50,-11,10,-11,-14
-22,-42,-20,32,-1,-31,25,45,-18,11,-19,-21
-10,-5,5,7,-8,0,32,42,-24,8,-27,-27
32,7,-24,-20,28,-8,36,38,-22,1,-34,-34
-6,-23,-17,15,6,-20,35,35,-20,-4,-30,-29
-8,-41,-33,25,12,-37,35,35,-20,-9,-27,-27
30,-36,-66,3,48,-51,35,33,-20,-16,-23,-30
-11,-31,-19,21,4,-25,36,29,-20,-19,-20,-30
-30,-34,-4,32,-13,-19,32,30,-22,-16,-14,-30
-16,-36,-19,26,2,-27,30,34,-25,-14,-22,-30
-16,-34,-18,26,1,-26,30,35,-26,-16,-37,-29
-31,-35,-4,33,-13,-20,26,35,-29,-13,-35,-26
-4,-36,-32,21,14,-34,24,35,-30,-23,-32,-25
25,-30,-55,3,41,-43,26,36,-30,-41,-28,-24
23,-21,-44,0,34,-32,29,33,-30,-40,-27,-20
15,-6,-21,-4,19,-13,30,30,-30,-40,-21,-18
-1,-34,-33,18,17,-33,30,30,-30,-40,-28,-34
-49,-53,-4,51,-22,-29,30,28,-30,-33,-41,-43
-56,-25,31,40,-44,3,30,24,-29,-23,-25,-33
0,-20,-20,11,10,-20,40,25,-23,-13,-12,-27
-5,11,16,-3,-11,13,57,37,-15,-6,-4,-21
-29,45,74,-8,-52,59,51,38,-6,1,9,-8
9,52,43,-31,-17,47,36,28,6,7,14,-3
13,78,65,-46,-26,71,23,24,13,15,25,19
6,106,101,-56,-48,103,2,15,10,19,46,47
47,101,54,-74,-4,77,-7,11,8,16,39,36
52,80,28,-66,11,54,-21,-1,2,9,26,28
35,34,-1,-35,18,16,-16,-7,2,8,19,28
7,-7,-14,0,11,-10,23,-3,-13,-2,-3,11
-35,-30,6,32,-20,-12,31,2,-41,-22,-19,-23
-31,-52,-21,42,-4,-37,26,5,-53,-42,-41,-44
-12,-53,-41,33,14,-47,22,-1,-58,-57,-56,-45
-13,-89,-76,51,31,-82,20,2,-53,-59,-54,-49
3,-78,-81,38,42,-80,13,-3,-59,-62,-56,-52
-9,-67,-59,38,25,-63,17,4,-49,-56,-53,-55
-13,-73,-61,43,24,-66,13,-5,-62,-65,-57,-56
4,-54,-57,25,31,-55,18,12,-47,-54,-52,-60
-22,-91,-68,57,23,-79,57,49,-48,-62,-59,-60
18,-45,-63,14,41,-54,77,91,54,17,-21,-40
142,59,-83,-101,113,-12,-44,69,398,373,223,122
372,340,-32,-356,202,154,-413,-244,887,946,661,455
423,467,44,-445,189,255,-568,-496,966,1052,785,575
110,54,-56,-82,83,-1,-366,-526,29,190,252,251
-73,-163,-90,118,9,-127,-155,-356,-511,-367,-168,-56
-70,-106,-36,88,-17,-71,-11,-68,-255,-218,-151,-84
-45,-116,-71,81,13,-93,35,27,-158,-146,-101,-73
-26,-97,-71,62,22,-84,58,73,-77,-99,-61,-68
-17,-61,-44,40,14,-52,62,85,-68,-77,-59,-56
9,-37,-46,15,27,-41,58,72,-59,-61,-59,-50
7,-37,-44,15,26,-40,67,78,-39,-47,-53,-44
16,-30,-46,7,31,-38,64,67,-43,-51,-56,-45
-17,-42,-24,30,4,-33,65,72,-22,-41,-48,-40
-19,-56,-37,38,9,-46,59,74,-33,-43,-47,-40
24,-39,-64,8,44,-51,56,75,-26,-37,-40,-44
3,-37,-40,17,22,-38,53,75,-23,-31,-40,-45
11,-27,-38,8,25,-32,48,75,-19,-27,-40,-45
41,-12,-53,-14,47,-32,45,72,-13,-18,-40,-45
21,-31,-52,5,37,-41,60,85,-11,16,-41,-45
34,-47,-81,7,58,-64,59,90,-2,14,-39,-44
0,-38,-38,19,19,-38,48,81,7,-9,-27,-27
-24,8,32,8,-28,19,41,79,17,-2,-15,-12
29,0,-29,-14,29,-15,31,74,28,3,-10,-8
46,-5,-51,-20,49,-28,23,70,29,17,-4,-8
45,10,-35,-27,40,-12,12,62,51,54,2,1
39,7,-32,-22,35,-13,3,48,65,72,6,2
59,32,-28,-45,43,2,-9,39,76,68,14,-5
51,17,-33,-34,42,-8,-15,20,80,75,22,2
43,58,15,-51,13,37,-47,-20,64,69,22,12
38,58,20,-48,9,39,-67,-48,74,55,16,24
-5,26,31,-11,-18,29,-72,-82,49,41,13,16
-30,53,83,-12,-57,68,-108,-131,1,24,8,-4
-53,56,110,-2,-82,83,-120,-169,-41,-18,-20,-13
-60,67,127,-4,-94,96,-113,-198,-96,-64,-48,-22
-66,54,120,6,-94,87,-109,-198,-138,-89,-63,-43
-78,39,117,19,-98,78,-100,-189,-154,-111,-80,-48
-87,28,114,29,-101,71,-89,-187,-161,-113,-76,-27
-93,16,109,38,-101,62,-66,-160,-172,-105,-62,-20
-109,-5,104,57,-107,49,-42,-125,-163,-100,-55,-19
-113,-30,83,71,-98,26,-26,-98,-149,-95,-56,-35
-81,-29,51,55,-66,10,-13,-68,-107,-84,-51,-46
-41,-19,22,29,-31,2,-4,-33,-74,-70,-51,-34
-21,-22,-1,21,-10,-11,4,3,-65,-57,-46,-30
-33,-42,-10,38,-11,-26,22,36,-34,-52,-29,-22
-30,-34,-5,32,-12,-19,41,62,-6,-29,-15,-16
-46,-18,28,32,-37,5,48,63,10,-8,3,-28
-9,6,16,2,-12,11,52,59,19,-11,-1,-19
33,12,-21,-22,27,-4,54,75,41,21,12,20
19,0,-19,-9,19,-9,51,75,52,36,26,19
23,11,-12,-17,17,0,48,75,44,24,13,5
24,12,-12,-18,18,0,46,75,44,20,5,11
42,13,-29,-28,35,-8,42,75,38,11,3,5
-20,-14,6,17,-13,-4,40,87,35,4,21,9
-62,-43,20,52,-41,-11,37,71,30,-2,20,8
-28,-31,-3,29,-12,-17,35,50,22,-9,5,-7
-24,-27,-3,26,-10,-15,35,58,16,-13,0,-17
17,-18,-35,0,27,-26,32,64,9,-21,-18,-23
9,-22,-31,7,20,-26,29,59,5,-40,-36,-19
-39,-43,-4,41,-17,-23,31,54,6,-44,-31,-20
-5,-42,-37,24,16,-39,35,48,3,-35,-24,-20
16,-40,-56,12,36,-48,40,42,-1,-32,-18,-19
5,-39,-44,17,25,-41,44,42,1,-25,-11,-21
7,-34,-40,14,24,-37,43,45,-5,-19,-19,-19
19,-38,-58,10,39,-48,39,45,-14,-39,-33,-22
20,-47,-67,14,44,-56,40,45,-23,-53,-38,-25
-8,-46,-38,27,15,-42,40,45,-30,-46,-33,-22
-3,-30,-27,17,12,-28,40,44,-30,-46,-30,-16
-34,-44,-10,39,-12,-27,41,41,-29,-41,-27,-12
-60,-59,1,59,-30,-29,32,34,-31,-40,-22,-8
-23,-52,-30,38,4,-41,27,33,-29,-40,-20,-5
11,-29,-40,9,26,-34,16,24,-32,-40,-13,-39
19,-2,-21,-9,20,-11,25,32,-16,-39,-2,-41
-25,5,31,10,-28,18,64,58,14,-31,8,-4
-61,19,80,20,-71,50,79,54,13,-21,15,-15
-23,48,71,-13,-48,59,65,42,5,-10,15,-13
20,87,67,-54,-23,76,25,34,0,-12,14,5
18,77,59,-48,-21,68,-3,29,-8,-7,34,34
54,103,49,-79,2,76,-26,22,-14,-19,52,22
56,98,42,-77,7,70,-43,19,-7,-15,43,-2
30,48,18,-40,6,33,-36,7,-1,-7,11,23
27,24,-3,-26,15,11,-31,-10,-20,-50,-26,9
-16,-43,-27,30,6,-35,-17,5,-35,-61,-30,-6
-45,-67,-22,56,-11,-44,-3,18,-49,-62,-32,-30
-9,-76,-67,43,29,-72,10,16,-63,-71,-36,-61
-37,-98,-61,68,12,-79,18,28,-58,-70,-21,-58
-67,-87,-20,77,-23,-54,12,19,-61,-85,-39,-62
-1,-82,-81,42,40,-81,18,20,-45,-68,-47,-58
-22,-80,-58,51,18,-69,12,7,-56,-77,-54,-61
-11,-57,-46,34,18,-51,23,8,-34,-60,-45,-60
-4,-94,-90,49,44,-92,60,48,-44,-64,-60,-68
-12,-55,-43,34,15,-49,56,83,37,-14,-43,-57
104,71,-33,-87,68,19,-61,25,377,362,240,123
292,325,33,-309,129,179,-388,-274,825,943,696,449
360,492,132,-426,114,312,-556,-508,963,1137,858,583
131,119,-12,-124,71,53,-381,-532,95,301,329,276
-114,-175,-62,145,-26,-118,-160,-351,-533,-383,-150,-30
-145,-193,-48,169,-48,-120,9,-62,-286,-258,-140,-82
-55,-154,-99,105,22,-126,56,36,-162,-173,-120,-91
-2,-55,-52,29,25,-54,52,61,-85,-112,-85,-68
-15,-62,-47,39,16,-54,58,71,-59,-86,-67,-60
-13,-56,-43,35,15,-49,53,68,-51,-79,-64,-57
-12,-51,-38,31,13,-44,57,72,-30,-57,-47,-48
-22,-52,-29,37,3,-40,55,68,-35,-64,-53,-52
2,-41,-44,20,24,-42,61,71,-16,-53,-47,-50
16,-45,-61,15,39,-53,64,70,-18,-57,-47,-50
15,-30,-44,8,30,-37,62,76,-5,-49,-44,-43
24,-38,-62,7,43,-50,56,75,-2,-50,-44,-40
-3,-69,-66,36,31,-67,51,75,6,-44,-37,-35
-5,-66,-60,36,28,-63,48,75,13,-38,-31,-30
-1,-59,-57,30,28,-58,42,75,19,-33,-27,-30
2,-54,-56,26,30,-55,39,72,20,-27,-21,-29
15,-19,-34,2,25,-26,33,67,21,-23,-18,-31
34,-13,-47,-10,40,-29,28,65,16,-12,-13,-29
48,-18,-67,-14,58,-42,23,60,25,-1,-6,-21
16,-4,-21,-6,19,-12,16,57,50,12,3,-11
16,-3,-19,-6,18,-11,12,53,51,25,11,-4
14,1,-13,-7,13,-6,3,43,70,51,21,7
27,19,-8,-23,18,5,-12,31,87,61,28,18
61,19,-42,-40,52,-12,-26,13,89,60,23,20
29,42,13,-35,8,27,-47,-13,100,80,17,35
17,84,67,-50,-26,75,-65,-50,83,69,13,40
10,63,53,-36,-22,58,-71,-86,56,47,6,32
-26,30,56,-2,-41,43,-96,-129,19,26,2,31
-43,53,95,-5,-69,74,-129,-186,-48,-21,-10,13
-38,68,107,-15,-73,87,-137,-214,-99,-62,-43,-17
-69,55,125,7,-97,90,-127,-214,-133,-86,-60,-31
-106,47,152,29,-129,99,-107,-208,-167,-113,-66,-29
-101,40,141,30,-122,90,-79,-201,-175,-126,-70,-30
-100,20,120,39,-110,70,-61,-183,-163,-117,-63,-30
-74,-1,73,37,-74,36,-58,-147,-156,-111,-59,-30
-50,2,52,24,-51,26,-48,-102,-142,-105,-53,-28
-55,-6,49,30,-51,21,-28,-60,-105,-94,-47,-22
-52,-21,31,36,-42,5,-3,-22,-76,-69,-43,-18
-63,-27,36,45,-49,4,10,8,-62,-51,-39,-13
-55,-25,30,39,-42,3,22,26,-42,-43,-37,-9
6,-18,-24,6,15,-21,43,53,-25,-32,-34,-4
32,-15,-48,-8,40,-31,52,57,-14,-23,-31,-18
22,-9,-31,-6,26,-19,55,57,1,-15,-29,-28
21,-7,-27,-7,24,-17,60,76,26,-9,-23,-18
15,0,-15,-8,15,-7,57,76,32,0,-15,-10
1,1,1,-1,0,1,51,69,28,5,-9,-1
14,11,-3,-12,9,4,46,66,26,15,-2,5
24,3,-21,-13,23,-9,43,62,22,26,4,6
30,-7,-36,-11,33,-21,36,55,20,19,10,2
20,19,-2,-19,11,8,38,59,18,11,-2,0
-44,-8,36,26,-40,14,47,68,15,2,-17,-1
-37,-33,3,35,-20,-15,44,61,12,-3,-13,2
-1,-28,-26,15,13,-27,41,54,9,-14,-20,-10
-3,-32,-29,18,13,-30,39,48,6,-34,-35,-36
4,-28,-32,13,18,-30,35,41,5,-36,-36,-33
-17,-31,-14,25,-2,-22,35,35,0,-34,-34,-28
-20,-28,-9,24,-5,-18,35,30,-7,-35,-31,-27
1,-24,-25,12,13,-24,35,30,-11,-35,-29,-20
3,-19,-22,8,13,-20,35,29,-18,-35,-32,-22
-2,-14,-12,8,5,-13,35,25,-22,-35,-35,-25
0,-12,-12,6,6,-12,35,25,-28,-35,-35,-25
-4,-2,2,3,-3,0,31,27,-30,-35,-35,-25
-32,-37,-5,35,-13,-21,30,30,-30,-35,-35,-25
5,-42,-47,19,26,-44,30,30,-34,-35,-35,-25
30,-17,-47,-6,38,-32,30,30,-35,-32,-32,-22
16,-22,-38,3,27,-30,29,30,-35,-29,-29,-19
24,-5,-29,-9,27,-17,31,30,-30,-26,-26,-16
-12,-33,-21,23,5,-26,35,30,-22,-23,-23,-13
-28,-30,-3,29,-12,-16,39,35,-16,-20,-21,-10
-28,-2,27,15,-27,12,47,43,-9,-19,-19,-9
-20,17,37,1,-29,27,58,43,-3,-13,-12,-1
5,47,42,-26,-19,44,66,36,2,-6,-3,6
16,66,49,-41,-17,57,44,31,12,1,5,16
32,115,83,-74,-26,99,19,25,18,8,12,22
21,83,62,-52,-21,72,13,20,15,14,21,30
33,68,34,-51,-1,51,4,17,8,12,21,47
53,97,44,-75,4,70,-6,13,3,7,20,40
63,42,-21,-53,42,10,-5,10,-3,4,18,28
26,2,-24,-14,25,-11,2,5,-21,-12,4,4
-29,-30,-1,30,-14,-15,10,3,-34,-36,-25,-19
-13,-69,-56,41,22,-62,15,-8,-56,-56,-62,-48
-56,-74,-18,65,-18,-46,26,-5,-60,-60,-65,-70
-81,-78,3,79,-41,-37,31,1,-58,-60,-61,-60
-53,-71,-17,63,-18,-44,28,3,-55,-59,-58,-53
-28,-80,-52,54,13,-66,33,12,-49,-52,-53,-49
4,-71,-75,34,40,-72,25,7,-55,-59,-50,-43
-26,-84,-58,55,16,-71,40,32,-37,-52,-56,-48
-41,-94,-53,68,6,-73,55,61,-45,-60,-77,-58
7,-15,-22,5,14,-19,60,106,136,86,22,-2
186,203,17,-195,84,110,-210,-90,567,574,379,242
402,533,131,-468,135,332,-593,-443,1044,1127,799,547
309,357,48,-334,130,202,-558,-550,744,849,636,470
37,-48,-86,5,62,-67,-329,-478,-218,-44,81,134
-92,-138,-46,115,-23,-92,-85,-194,-372,-279,-129,-40
-51,-139,-88,95,18,-113,29,-5,-161,-158,-120,-80
-1,-80,-79,41,39,-79,23,21,-126,-123,-92,-78
-51,-68,-17,59,-16,-43,61,79,-55,-64,-58,-58
-48,-57,-9,53,-19,-33,59,72,-53,-61,-47,-36
-4,-44,-40,24,19,-42,57,73,-34,-57,-49,-47
17,-45,-62,14,40,-53,55,69,-43,-68,-56,-64
15,-29,-44,8,29,-36,50,64,-39,-64,-45,-57
-3,-35,-31,19,14,-33,51,67,-39,-65,-45,-57
50,5,-45,-28,47,-20,53,68,-42,-66,-38,-54
46,-16,-62,-15,54,-39,58,74,-31,-57,-35,-51
-10,-52,-42,31,16,-47,55,70,-26,-48,-35,-41
-9,-38,-30,24,10,-34,52,71,-14,-37,-34,-37
7,-37,-44,15,26,-40,48,68,-8,-28,-35,-41
0,-31,-31,16,15,-31,45,65,3,-21,-34,-37
11,-27,-38,8,25,-32,40,65,12,-16,-36,-34
27,-24,-50,-1,39,-37,42,68,22,-9,-32,-31
24,-16,-39,-4,32,-27,49,72,32,-6,-27,-28
37,15,-22,-26,29,-3,45,68,42,2,-21,-25
25,22,-3,-23,14,9,39,66,47,9,-15,-25
61,19,-41,-40,51,-11,33,62,49,21,-10,-25
69,20,-48,-44,58,-14,28,60,72,50,-3,-19
23,14,-9,-18,16,3,19,54,86,56,8,-13
28,48,20,-38,4,34,-3,24,74,48,13,-8
9,57,48,-33,-20,52,-22,-6,71,44,3,-5
-9,48,57,-20,-33,52,-45,-48,55,34,-5,-5
-7,46,53,-20,-31,50,-75,-104,8,5,-14,-6
-36,39,75,-2,-56,57,-97,-147,-35,-23,-25,-4
-76,36,113,20,-95,74,-109,-184,-74,-52,-38,-25
-96,24,120,36,-108,72,-106,-218,-138,-106,-74,-47
-98,18,116,40,-107,67,-100,-224,-180,-123,-86,-41
-120,6,127,57,-124,66,-94,-217,-183,-113,-76,-36
-109,4,112,52,-110,58,-89,-203,-176,-114,-73,-32
-50,14,63,18,-57,38,-83,-172,-164,-107,-65,-23
-60,-3,57,32,-59,27,-69,-140,-157,-107,-62,-23
-72,-11,61,41,-66,24,-47,-101,-135,-94,-55,-39
-39,5,44,17,-42,24,-24,-55,-95,-67,-45,-40
-41,-2,40,21,-41,19,-2,-19,-67,-56,-35,-35
-28,-14,15,21,-21,1,16,12,-48,-49,-25,-34
-1,-25,-24,13,11,-24,29,42,-30,-43,-19,-30
-32,-43,-11,38,-10,-26,39,60,-15,-32,-16,-29
-42,-38,4,40,-23,-17,40,70,-3,-15,-13,-24
5,-28,-32,12,19,-30,50,84,21,-5,-8,-18
21,-17,-37,-1,29,-27,57,85,38,5,-5,-15
10,-11,-21,0,16,-15,51,78,34,16,-1,-9
5,-4,-9,0,7,-6,50,75,35,29,0,-6
1,-1,-2,1,2,-1,46,70,35,37,0,0
31,4,-27,-17,28,-11,45,66,35,28,0,3
55,9,-46,-32,50,-18,49,61,34,14,0,1
49,3,-46,-25,47,-21,50,60,27,7,0,-1
55,12,-43,-33,49,-15,50,60,21,4,0,-5
22,-18,-40,-2,32,-29,50,60,14,2,1,-4
19,-21,-40,1,30,-30,50,61,7,-2,-14,-22
31,-4,-36,-13,33,-20,49,59,2,-4,-22,-31
3,-32,-35,15,19,-33,44,54,-5,-6,-15,-19
-5,-37,-32,21,14,-34,41,48,-14,-22,-13,-15
-4,-33,-29,18,13,-30,38,45,-22,-31,-8,-7
9,-31,-40,11,25,-35,33,40,-31,-29,-5,-1
31,-27,-59,-2,45,-43,30,35,-35,-30,-10,-6
19,-24,-42,3,31,-33,34,39,-35,-30,-20,-19
-17,-36,-19,26,2,-27,35,40,-35,-30,-30,-30
-14,-47,-33,31,10,-40,35,40,-35,-31,-35,-35
-11,-39,-28,25,8,-33,35,40,-35,-35,-35,-35
2,-38,-41,18,22,-39,35,40,-39,-38,-35,-35
8,-33,-41,13,25,-37,34,39,-40,-41,-35,-35
-30,-30,0,30,-15,-14,30,35,-40,-45,-35,-35
-35,-42,-7,38,-14,-24,30,35,-40,-41,-32,-32
-7,-40,-33,24,13,-36,30,35,-40,-36,-24,-24
-6,-28,-22,17,8,-25,30,35,-39,-33,-18,-18
-10,-23,-13,17,1,-18,30,35,-23,-27,-11,-11
-3,-7,-3,5,0,-5,36,39,-6,-24,-4,-4
-57,1,57,28,-57,29,54,51,-1,-8,0,1
-47,37,84,5,-66,60,54,49,6,4,18,14
15,84,69,-50,-28,76,33,35,10,7,26,16
11,79,68,-45,-29,73,11,29,11,11,23,16
13,74,62,-44,-25,68,-14,23,8,14,15,8
21,67,46,-44,-13,56,-29,20,19,20,21,18
56,63,7,-60,24,35,-22,15,14,19,33,34
58,50,-8,-54,33,21,-4,11,-8,8,12,12
22,-1,-23,-10,22,-12,2,9,-21,-4,-3,0
10,-31,-41,10,26,-35,9,10,-34,-21,-13,-5
-27,-62,-35,45,4,-48,10,10,-45,-43,-26,-13
-28,-79,-51,54,12,-65,14,9,-56,-52,-34,-21
-33,-94,-62,64,15,-78,21,12,-52,-47,-40,-26
-41,-92,-50,67,5,-71,15,6,-61,-61,-48,-38
-12,-63,-51,37,20,-57,21,9,-63,-59,-53,-46
-25,-66,-42,46,9,-54,1,-6,-73,-60,-57,-39
-7,-78,-71,43,32,-74,38,19,-46,-48,-53,-32
-12,-113,-101,63,45,-107,59,58,-37,-50,-54,-26
-9,-54,-45,32,18,-49,57,96,68,29,-5,-12
139,129,-10,-134,74,59,-119,-16,462,437,292,181
358,463,105,-411,127,284,-541,-364,949,1010,725,488
395,475,80,-435,157,277,-615,-539,926,1016,743,517
147,57,-90,-102,118,-16,-431,-518,41,210,252,246
-54,-121,-66,88,6,-93,-181,-293,-405,-260,-91,-2
-35,-144,-109,90,37,-126,24,-33,-186,-171,-100,-84
-11,-106,-94,59,42,-100,47,22,-134,-122,-68,-67
-26,-64,-38,45,6,-51,65,62,-70,-75,-58,-46
-11,-77,-66,45,27,-71,58,69,-44,-72,-65,-43
-8,-61,-52,35,22,-56,63,64,-29,-68,-65,-41
3,-63,-66,30,35,-64,67,66,-20,-62,-64,-35
1,-51,-52,25,27,-52,63,57,-32,-63,-66,-38
-1,-47,-46,25,22,-46,62,64,-27,-55,-62,-58
-16,-38,-22,27,4,-30,58,73,-30,-51,-54,-55
-1,-30,-29,16,15,-29,60,77,-20,-41,-47,-47
7,-25,-32,10,20,-29,54,74,-20,-36,-41,-41
-18,-16,2,17,-10,-6,56,76,-10,-30,-35,-34
17,-13,-29,-2,23,-21,52,74,-3,-30,-35,-22
43,-2,-45,-20,44,-23,49,77,5,-31,-35,-31
30,-2,-32,-13,31,-17,51,80,12,-27,-33,-53
12,-16,-28,2,20,-21,50,80,20,-18,-26,-38
3,-29,-33,13,18,-31,50,82,28,-7,-20,-26
-16,-8,9,12,-12,0,50,86,38,1,-12,-25
22,19,-3,-20,12,8,43,85,45,7,-7,-26
19,3,-16,-11,18,-6,35,80,45,15,-3,-24
18,8,-10,-13,14,-1,27,66,55,18,-8,-27
24,8,-16,-16,20,-4,18,56,77,39,7,-10
-27,8,35,9,-31,22,7,43,94,57,34,25
15,14,-2,-15,8,6,-4,4,75,45,21,22
-13,27,40,-7,-27,34,-25,-28,52,34,3,13
-50,48,98,0,-74,73,-65,-78,28,9,-11,5
-40,38,78,1,-59,57,-89,-134,-20,-27,-26,-3
-53,36,89,8,-71,62,-92,-167,-70,-60,-37,-10
-59,31,90,14,-75,61,-88,-199,-119,-90,-47,-18
-101,28,128,36,-115,78,-85,-209,-152,-112,-55,-27
-115,24,139,45,-128,81,-82,-203,-183,-137,-69,-39
-97,21,119,38,-108,70,-77,-189,-191,-140,-69,-37
-80,16,96,32,-88,56,-74,-173,-174,-125,-64,-30
-75,14,89,30,-82,52,-70,-151,-163,-114,-59,-27
-53,3,56,25,-55,29,-59,-120,-144,-100,-47,-19
-77,-11,66,44,-71,27,-24,-77,-111,-87,-45,-16
-58,-1,57,29,-58,28,-10,-34,-73,-77,-45,-31
-3,-25,-22,14,10,-24,-4,-5,-47,-56,-39,-36
-9,-7,2,8,-5,-3,29,21,-35,-24,-34,-28
27,21,-6,-24,16,7,38,43,-22,-13,-28,-24
26,-8,-34,-9,30,-21,33,61,-3,-9,-23,-17
27,-9,-36,-9,32,-22,41,70,10,-4,-17,-12
44,-2,-46,-20,45,-24,51,76,17,0,-8,-10
9,-22,-30,7,20,-26,50,75,25,4,3,-10
12,-20,-32,4,22,-26,50,71,33,17,12,-10
28,-2,-30,-13,29,-15,47,69,31,27,10,-10
36,7,-29,-21,32,-11,44,66,25,19,3,-10
31,-1,-32,-15,32,-16,45,65,20,13,-1,-10
-1,-28,-27,15,13,-27,40,59,14,6,-8,-10
4,-31,-34,14,19,-33,40,54,9,-1,-12,-10
-8,-29,-20,19,6,-24,39,49,4,-6,-18,-10
0,-25,-25,13,13,-25,34,43,0,-11,-20,-9
40,-22,-62,-9,51,-42,36,38,-2,-15,-20,-12
26,-22,-48,-2,37,-34,32,32,-5,-20,-24,-2
20,-4,-24,-7,22,-14,28,30,-8,-25,-26,-1
5,-26,-31,11,18,-28,22,26,-10,-28,-24,-18
23,-29,-52,4,38,-40,19,25,-14,-31,-22,-13
49,-8,-57,-20,53,-32,14,20,-24,-34,-14,-9
37,-32,-69,-2,53,-50,9,20,-30,-37,-26,-34
28,-38,-66,6,47,-52,29,26,-30,-40,-43,-45
8,-31,-38,12,23,-34,36,25,-30,-40,-38,-32
9,-25,-33,8,21,-29,28,26,-29,-40,-35,-22
5,-17,-22,6,14,-19,24,20,-31,-40,-33,-16
15,-13,-27,-1,21,-20,18,21,-29,-39,-29,-14
23,1,-23,-12,23,-10,10,17,-28,-38,-29,-23
-5,-32,-27,19,12,-30,17,24,-21,-31,-22,-17
7,-59,-65,26,36,-62,34,46,-22,-33,-22,-17
-10,-47,-38,29,14,-42,35,44,-40,-40,-28,-40
-12,-43,-31,28,10,-37,35,46,-33,-30,-16,-31
31,19,-12,-25,22,3,35,50,-17,-20,-5,-16
-11,52,63,-21,-37,57,53,51,-7,-15,2,-8
-49,26,75,11,-63,50,61,45,7,-16,5,2
-24,47,71,-11,-48,59,36,22,13,-12,10,14
0,62,62,-31,-31,61,3,7,6,-9,25,26
30,78,48,-54,-9,63,-24,-1,0,-12,29,25
92,117,25,-105,33,71,-23,-10,17,19,33,45
62,92,30,-78,16,61,-13,-13,17,36,26,57
-11,27,38,-8,-25,32,-2,-9,-1,7,12,33
-24,-30,-6,27,-8,-18,6,-11,-24,-25,-7,-3
-31,-79,-48,55,9,-63,13,-6,-40,-43,-27,-24
-34,-89,-55,62,11,-72,17,-5,-54,-59,-39,-34
-31,-85,-54,58,12,-69,21,-6,-55,-61,-48,-41
-31,-97,-66,64,18,-82,27,2,-54,-59,-47,-40
-73,-88,-16,81,-28,-52,28,-4,-57,-62,-38,-39
-40,-101,-61,71,11,-81,39,7,-50,-56,-36,-45
-21,-64,-43,43,11,-53,33,3,-64,-58,-28,-54
-55,-58,-3,57,-25,-31,52,23,-38,-39,-24,-44
12,-75,-87,32,50,-81,39,37,-44,-55,-71,-42
49,-8,-57,-21,53,-32,44,76,93,43,-7,-15
161,135,-25,-148,92,55,-151,-49,489,480,323,202
363,473,110,-418,127,291,-546,-395,944,1025,734,511
334,379,45,-356,144,212,-575,-534,737,840,641,472
100,-24,-124,-38,112,-74,-368,-494,-164,8,124,172
-18,-105,-87,62,35,-95,-130,-246,-375,-259,-94,1
-13,-106,-93,60,40,-99,13,-13,-163,-148,-92,-52
16,-62,-77,24,47,-69,26,20,-121,-129,-92,-60
-4,-46,-42,26,19,-44,51,59,-58,-80,-72,-57
-43,-48,-6,46,-18,-27,50,61,-66,-66,-63,-64
16,-44,-59,14,38,-51,63,66,-44,-55,-45,-72
-30,-72,-42,51,7,-57,63,66,-38,-62,-37,-44
-62,-63,-1,63,-30,-32,60,68,-29,-58,-34,-25
-1,-60,-59,31,30,-59,58,72,-21,-54,-31,-47
-26,-53,-28,40,1,-40,54,70,-22,-56,-28,-44
-36,-42,-6,39,-15,-24,52,77,-14,-49,-25,-46
-17,-31,-14,24,-1,-23,49,74,-14,-46,-24,-45
4,-26,-30,12,17,-28,54,75,-8,-41,-20,-46
12,-33,-46,11,29,-39,56,75,-6,-37,-19,-40
4,-26,-30,11,17,-28,60,75,1,-31,-16,-13
-13,-39,-26,26,6,-32,59,72,4,-26,-13,-24
-34,-52,-18,43,-8,-34,54,69,10,-20,-28,-34
-36,-38,-2,37,-17,-20,49,71,10,-16,-36,-25
8,-26,-34,9,21,-30,45,70,30,-6,-26,-20
34,4,-30,-19,32,-13,40,70,45,6,-18,-16
-2,-4,-2,3,0,-3,36,70,44,19,-8,-10
-4,-12,-8,8,2,-9,28,61,63,33,4,-8
-18,9,26,4,-22,18,15,59,78,49,20,4
-21,26,47,-3,-34,36,-1,39,79,58,19,30
6,30,24,-18,-10,27,-17,2,66,40,6,26
13,37,23,-25,-6,30,-33,-43,55,26,-7,19
-24,52,76,-14,-50,64,-79,-96,44,9,-33,13
-97,16,113,40,-105,64,-98,-117,26,-2,-37,5
-82,32,114,25,-98,73,-93,-159,-25,-29,-27,2
-67,57,124,4,-96,91,-101,-208,-93,-82,-53,-35
-100,43,143,28,-122,93,-94,-213,-124,-98,-65,-53
-78,44,122,17,-100,83,-86,-207,-145,-113,-55,-40
-79,34,113,22,-96,74,-78,-193,-148,-113,-50,-37
-96,30,127,33,-112,78,-70,-167,-139,-95,-41,-31
-72,25,97,23,-85,61,-54,-131,-123,-87,-33,-26
-41,19,60,11,-51,39,-31,-86,-96,-73,-24,-20
-31,13,45,9,-38,29,-17,-45,-81,-62,-19,-14
-14,7,21,3,-17,14,-2,-8,-69,-48,-16,-28
39,3,-36,-20,37,-16,15,21,-42,-38,-12,-41
-7,-2,5,5,-5,1,42,56,-14,-30,-9,-34
-36,-7,28,21,-32,10,61,81,-7,-22,-5,-26
8,-9,-17,1,12,-13,60,79,-4,-18,-2,-20
-4,-18,-14,11,6,-16,60,81,2,-13,2,-15
-6,7,13,-1,-10,10,60,85,4,-10,5,-10
7,9,2,-8,2,6,60,85,17,-1,9,-7
20,-32,-51,6,36,-41,58,87,34,13,9,-1
3,2,-1,-2,2,1,54,84,33,18,5,-2
-9,27,37,-9,-23,32,55,78,27,11,3,-9
-12,14,26,-1,-19,20,55,75,23,4,0,-5
-24,-8,16,16,-20,4,55,70,16,-2,-3,-7
-15,-38,-23,27,5,-30,55,66,12,-10,-5,-13
-14,-33,-19,24,3,-26,50,61,5,-14,-9,-16
3,-36,-39,17,22,-37,45,55,-3,-11,-15,-21
18,-35,-53,9,36,-43,40,50,-9,-9,-21,-26
-25,-35,-10,30,-7,-22,37,44,-17,-5,-26,-8
-10,-36,-26,23,9,-31,31,39,-24,-8,-33,6
24,-26,-50,1,37,-38,32,34,-31,-28,-32,-10
6,-20,-26,8,16,-23,39,29,-35,-36,-28,-26
32,-1,-33,-15,33,-17,36,26,-34,-34,-24,-31
25,-10,-36,-7,30,-23,35,22,-38,-35,-22,-30
15,-11,-26,-2,21,-19,34,19,-40,-34,-15,-30
7,-21,-27,7,17,-24,29,13,-40,-36,-18,-31
-18,-43,-25,31,4,-34,31,28,-37,-32,-35,-29
-2,-28,-25,16,12,-26,27,50,-32,-29,-33,-38
-14,-27,-14,21,0,-20,25,50,-30,-31,-27,-45
-45,-20,26,32,-35,3,25,50,-25,-26,-22,-35
-21,-2,19,11,-20,9,24,50,-22,-25,-17,-34
-10,-24,-14,17,3,-19,47,50,-18,-25,-10,-21
-12,-7,5,9,-8,-1,58,49,-13,-19,-21,-18
15,44,28,-30,-7,36,61,45,-7,-10,-40,-34
-17,53,70,-18,-43,61,59,43,-2,-6,-19,-26
15,101,86,-58,-35,93,31,40,7,7,7,-14
66,109,43,-87,11,76,8,37,18,31,14,1
37,94,57,-66,-11,75,-17,31,10,36,27,25
35,111,75,-73,-20,93,-25,27,3,35,36,39
51,94,43,-72,4,68,-11,22,-8,13,18,32
44,32,-11,-38,28,10,0,18,-14,-18,1,24
27,-11,-38,-8,32,-24,7,13,-27,-32,-2,-2
0,-12,-11,6,6,-11,11,10,-56,-40,-24,-25
-11,-46,-36,29,13,-41,16,8,-68,-50,-55,-51
-16,-43,-27,30,6,-35,18,4,-68,-59,-68,-66
-93,-74,19,83,-56,-27,27,3,-70,-49,-62,-21
-63,-104,-41,83,-11,-72,18,-3,-77,-60,-62,-38
-11,-90,-79,51,34,-84,16,8,-70,-67,-55,-73
-39,-59,-20,49,-10,-39,2,7,-73,-75,-58,-74
-7,-45,-38,26,16,-42,7,27,-44,-63,-56,-78
-11,-80,-69,46,29,-74,59,53,-44,-69,-74,-80
-7,-39,-32,23,13,-35,80,108,114,54,-11,-30
141,94,-47,-118,94,24,-98,29,515,506,321,203
420,407,-13,-414,217,196,-461,-320,954,1054,746,509
390,419,29,-405,180,223,-511,-513,831,954,726,536
24,11,-13,-17,18,-1,-290,-504,-148,28,141,189
-123,-163,-40,143,-42,-101,-105,-293,-502,-381,-192,-80
-105,-159,-54,132,-25,-106,10,-28,-224,-205,-141,-94
-69,-121,-52,96,-8,-87,32,24,-157,-167,-120,-97
-37,-76,-39,57,1,-57,43,69,-56,-102,-74,-83
-24,-65,-41,45,9,-53,39,78,-49,-80,-52,-53
20,-57,-77,19,49,-67,52,68,-43,-66,-50,-50
-3,-56,-53,29,26,-54,57,71,-30,-55,-52,-50
-26,-44,-18,35,-4,-31,53,61,-33,-54,-58,-50
10,-49,-60,20,35,-54,57,61,-15,-38,-52,-50
16,-17,-33,1,24,-25,52,64,-25,-44,-58,-45
2,-33,-34,16,18,-33,59,77,-15,-36,-52,-37
9,-27,-36,10,23,-32,38,51,-26,-47,-59,-29
-1,-13,-12,7,5,-12,47,60,-14,-39,-49,-21
-35,-72,-37,54,1,-54,71,92,13,-4,-15,-16
-26,-48,-22,37,-1,-35,57,89,-3,-21,-46,-43
-37,-36,1,37,-19,-17,53,90,-5,-51,-49,-68
-8,-32,-24,20,8,-28,49,90,22,-13,-5,-28
35,-26,-62,-4,49,-44,44,90,41,20,-18,-9
-5,-39,-35,22,16,-37,36,87,53,17,-25,5
25,-9,-34,-8,29,-21,21,75,55,38,-11,-2
53,-11,-64,-20,59,-37,10,64,60,51,0,-31
61,-3,-64,-29,63,-33,-2,52,72,54,8,5
99,41,-58,-70,78,-8,-17,31,80,70,12,16
101,53,-48,-77,74,3,-29,0,78,71,20,23
75,47,-28,-61,51,9,-47,-31,63,61,16,36
36,53,17,-45,10,35,-74,-60,55,54,13,24
5,48,43,-26,-19,45,-96,-106,25,32,9,18
-38,34,72,2,-55,52,-109,-150,-22,13,0,9
-48,59,106,-6,-77,82,-106,-177,-55,-9,-9,1
-34,60,95,-14,-65,77,-98,-196,-111,-57,-38,-12
-86,47,133,20,-110,90,-94,-194,-143,-84,-60,-30
-106,35,141,35,-124,88,-88,-189,-168,-112,-71,-59
-87,16,103,36,-96,59,-76,-175,-185,-130,-73,-46
-111,4,115,53,-113,60,-62,-148,-169,-116,-65,-26
-77,-9,68,43,-72,29,-47,-116,-151,-110,-60,-37
-38,0,38,19,-38,19,-30,-76,-112,-104,-56,-35
-62,-28,34,45,-48,3,-15,-34,-74,-91,-45,-34
-71,-47,24,59,-47,-11,-3,-2,-59,-74,-34,-36
-75,-26,49,50,-62,11,18,37,-42,-39,-22,-37
-37,-30,7,33,-22,-12,44,65,-19,-20,-12,-41
-11,13,25,-1,-18,19,46,65,6,-15,-30,-41
-17,15,32,0,-25,24,42,64,31,9,-16,-20
15,-45,-60,16,38,-53,40,67,36,17,7,-14
-8,-38,-29,23,11,-33,36,75,38,29,4,-15
-10,-28,-19,19,5,-23,35,75,41,37,-7,-26
-2,-31,-29,17,14,-30,31,71,39,29,-11,-31
15,-16,-30,1,23,-23,30,69,41,29,6,-15
18,-23,-41,3,30,-32,29,65,40,23,19,-9
-23,-15,8,19,-15,-3,26,64,39,21,2,-3
14,-19,-33,3,24,-25,23,60,34,15,-28,-31
-7,-36,-28,22,11,-32,30,61,29,13,-13,-14
-31,-54,-22,43,-4,-38,41,58,26,4,-5,-11
19,-45,-64,13,42,-55,40,55,21,-24,-32,-49
15,-8,-24,-3,20,-16,39,55,18,-33,-1,-2
-3,-36,-32,20,15,-34,35,52,13,-26,-2,-11
-8,-62,-54,35,23,-57,35,47,7,-45,-47,-55
-24,-45,-21,35,-1,-32,38,45,-1,-62,-32,-45
5,-31,-36,13,21,-33,40,40,-8,-59,-33,-52
11,-65,-77,27,44,-71,40,37,-2,-60,-37,-54
-17,-61,-44,39,14,-52,43,33,-9,-60,-25,-48
5,-27,-32,11,19,-29,47,27,-28,-60,-18,-44
-17,-59,-42,38,13,-50,43,47,-33,-57,-11,-41
-39,-66,-27,52,-6,-46,42,65,-27,-51,-14,-38
2,-42,-43,20,23,-42,29,60,-28,-48,-17,-42
5,-40,-45,18,25,-42,30,69,-17,-42,-11,-37
-6,-3,3,5,-5,0,14,66,-38,-40,-12,-43
-9,53,63,-22,-36,58,29,73,-105,-40,-22,-35
-37,49,86,-6,-62,67,67,54,-142,-40,-14,-35
