I,II,III,aVR,aVL,aVF,V1,V2,V3,V4,V5,V6
46,-59,-104,7,75,-81,25,199,224,84,-4,-14
64,-36,-100,-14,82,-68,14,207,240,99,14,-3
87,-10,-97,-38,92,-53,-9,228,277,142,42,16
112,18,-93,-65,102,-37,-31,232,300,185,75,44
146,57,-89,-102,118,-16,-58,243,330,234,120,81
169,83,-86,-126,127,-1,-84,237,344,270,170,115
187,105,-82,-145,134,11,-98,227,347,295,202,135
162,88,-74,-125,118,7,-102,219,334,282,208,129
187,120,-67,-153,127,26,-97,205,312,273,207,122
203,142,-61,-172,131,40,-96,192,293,259,187,119
183,131,-52,-157,117,39,-93,173,278,226,152,108
140,97,-42,-118,91,27,-69,146,234,180,104,77
60,27,-33,-44,46,-3,-35,111,172,90,39,34
41,13,-28,-27,34,-7,-5,77,113,16,-24,-11
20,-2,-22,-9,21,-12,19,53,53,-57,-79,-49
-16,-35,-19,26,1,-27,35,43,14,-103,-114,-72
-54,-67,-14,61,-20,-40,56,41,-17,-117,-140,-89
-81,-91,-9,86,-36,-50,72,37,-27,-136,-146,-94
-58,-85,-27,72,-15,-56,69,33,-19,-129,-139,-95
-37,-80,-42,59,2,-61,70,30,-16,-125,-140,-95
-39,-77,-39,58,0,-58,70,32,-9,-122,-140,-95
-34,-70,-36,52,1,-52,70,44,-3,-115,-140,-95
-38,-71,-33,55,-2,-52,67,51,-1,-118,-140,-94
-58,-88,-30,73,-13,-59,64,45,-6,-120,-142,-96
-70,-97,-28,84,-21,-62,66,43,-12,-124,-146,-99
-69,-93,-24,82,-22,-59,64,38,-15,-125,-145,-100
-64,-91,-27,78,-19,-59,66,35,-21,-132,-145,-100
-49,-90,-41,70,-4,-65,64,32,-24,-142,-145,-100
-37,-88,-51,63,7,-69,60,26,-30,-152,-145,-102
-55,-105,-50,80,-2,-77,61,22,-52,-167,-154,-106
-54,-103,-50,79,-1,-76,58,17,-58,-173,-155,-108
-57,-108,-50,83,-3,-79,55,12,-61,-175,-155,-111
-70,-120,-49,95,-10,-84,55,9,-70,-180,-155,-114
-52,-103,-51,77,0,-76,55,4,-75,-186,-155,-115
-60,-110,-49,85,-6,-79,55,1,-87,-196,-167,-115
-56,-107,-51,81,-2,-78,55,-2,-91,-201,-171,-115
-58,-107,-50,83,-4,-78,55,-7,-89,-199,-169,-115
-71,-121,-50,96,-11,-86,55,-10,-87,-200,-167,-112
-47,-114,-68,80,11,-90,56,-14,-84,-200,-164,-109
-46,-110,-64,79,9,-87,60,-18,-85,-200,-165,-110
-58,-105,-46,82,-6,-75,60,-23,-91,-210,-172,-106
-57,-97,-40,77,-8,-69,60,-24,-93,-211,-178,-105
-63,-98,-35,81,-14,-66,61,-18,-87,-204,-171,-105
-68,-99,-32,84,-18,-65,59,-10,-83,-201,-164,-99
-67,-94,-27,81,-20,-60,66,-5,-78,-197,-158,-93
-61,-84,-22,73,-19,-53,73,4,-74,-192,-150,-86
-46,-62,-17,54,-14,-39,70,8,-69,-186,-145,-79
-34,-37,-3,36,-15,-20,71,18,-66,-172,-136,-73
-30,-9,21,19,-25,6,52,32,-63,-157,-123,-69
-39,15,54,12,-47,34,3,-14,-60,-160,-113,-71
-32,30,62,1,-48,46,-30,-45,-59,-161,-108,-68
7,63,56,-35,-25,59,-28,-33,-52,-169,-108,-72
12,56,43,-34,-16,50,-22,-36,-66,-171,-103,-68
-19,-50,-31,35,6,-40,-12,-22,-88,-174,-128,-71
-51,-109,-58,80,4,-83,7,-29,-102,-196,-153,-92
-50,-117,-67,84,8,-92,37,-11,-85,-197,-156,-102
-32,-124,-92,79,30,-108,46,-22,-98,-226,-169,-101
-44,-118,-74,82,15,-96,47,-8,-75,-194,-159,-97
-51,-153,-101,103,25,-127,58,-10,-87,-218,-173,-105
-41,-104,-63,73,11,-83,54,-7,-73,-183,-155,-99
-48,-170,-122,110,37,-146,83,53,-49,-197,-182,-130
-36,-113,-76,75,20,-94,103,158,91,-110,-151,-108
105,-24,-130,-40,118,-77,227,610,668,295,-11,-52
349,372,23,-361,163,198,-17,148,796,1062,642,396
388,1129,741,-759,-177,935,-602,-969,364,1946,1463,992
66,599,532,-333,-233,565,-529,-1185,-614,621,673,533
-217,-121,96,168,-157,-12,-203,-860,-1142,-820,-326,-107
-190,-93,97,142,-143,2,-98,-299,-429,-355,-231,-135
-90,-137,-47,114,-21,-91,12,-21,-109,-229,-192,-117
-47,-131,-83,89,18,-107,69,52,-37,-173,-165,-90
-37,-156,-119,97,41,-137,89,125,42,-119,-146,-88
-38,-149,-112,94,37,-130,90,97,20,-144,-155,-82
-29,-147,-119,88,45,-133,86,145,83,-97,-129,-72
-20,-154,-134,87,57,-144,84,149,75,-119,-125,-70
-7,-129,-122,68,58,-126,78,150,117,-71,-98,-59
10,-115,-125,53,67,-120,77,152,117,-66,-101,-55
19,-94,-113,38,66,-103,71,163,145,-22,-73,-41
28,-84,-112,28,70,-98,57,175,164,-3,-44,-34
40,-64,-104,12,72,-84,43,173,184,31,-26,-20
67,-38,-105,-14,86,-72,28,184,217,65,-7,-5
86,-19,-105,-33,96,-62,15,193,233,100,30,22
109,4,-105,-56,107,-50,-2,207,274,151,69,47
127,22,-105,-74,116,-41,-34,208,296,192,98,69
146,41,-105,-93,125,-32,-57,201,310,237,146,110
177,74,-103,-125,139,-14,-76,195,306,262,185,140
176,82,-94,-129,134,-6,-96,188,298,267,193,148
207,121,-87,-164,147,17,-100,181,296,259,203,160
190,116,-74,-153,132,21,-90,173,287,254,204,164
163,103,-60,-133,111,21,-80,159,265,233,180,149
152,108,-44,-130,98,32,-69,130,224,187,140,125
93,71,-22,-82,57,24,-45,97,176,124,76,82
60,46,-14,-53,37,16,-16,67,124,52,21,31
9,-6,-15,-1,12,-11,17,54,71,-18,-35,-8
-23,-37,-15,30,-4,-26,34,32,15,-84,-91,-43
-46,-61,-15,54,-15,-38,41,7,-31,-122,-122,-70
-64,-81,-17,73,-23,-49,66,6,-34,-126,-133,-76
-47,-69,-22,58,-13,-45,70,3,-25,-125,-129,-74
-46,-72,-26,59,-10,-48,63,23,-20,-125,-123,-75
-41,-66,-26,54,-7,-46,66,43,-12,-125,-119,-75
-37,-63,-25,51,-6,-44,62,38,-6,-125,-113,-75
-56,-80,-24,69,-16,-52,60,43,-8,-122,-106,-72
-51,-72,-21,62,-14,-46,60,45,-12,-119,-111,-69
-60,-78,-18,69,-21,-48,56,45,-16,-116,-117,-66
-48,-73,-26,61,-11,-49,55,41,-18,-114,-114,-63
-17,-52,-35,35,10,-43,55,32,-25,-110,-115,-60
-33,-69,-36,51,2,-52,55,24,-23,-113,-115,-61
-28,-62,-33,45,3,-47,55,16,-30,-124,-114,-67
-45,-75,-30,60,-7,-52,56,9,-57,-135,-118,-74
-39,-69,-30,54,-4,-49,60,3,-61,-138,-121,-75
-43,-70,-27,56,-8,-48,60,-3,-59,-143,-124,-78
-55,-95,-40,75,-7,-67,60,-8,-61,-152,-128,-81
-57,-104,-47,81,-5,-75,60,-14,-73,-163,-130,-77
-62,-102,-40,82,-11,-71,60,-27,-87,-182,-142,-75
-27,-67,-40,47,7,-53,57,-31,-84,-184,-144,-75
-49,-84,-35,67,-6,-60,53,-29,-85,-176,-137,-75
-54,-88,-35,71,-9,-61,52,-27,-85,-174,-134,-75
-50,-81,-30,66,-10,-55,48,-24,-84,-168,-128,-74
-60,-90,-30,75,-14,-59,45,-25,-88,-165,-125,-71
-51,-80,-29,65,-10,-54,44,-21,-90,-159,-119,-68
-70,-94,-24,82,-23,-58,39,-19,-90,-152,-112,-66
-58,-85,-27,72,-16,-56,39,-15,-90,-146,-106,-62
-76,-97,-20,87,-28,-58,31,-12,-90,-140,-100,-61
-63,-73,-10,68,-26,-42,50,-10,-80,-133,-93,-57
0,9,9,-5,-4,9,67,-6,-63,-127,-87,-48
-12,5,17,4,-15,10,54,-2,-58,-122,-79,-37
-38,0,39,19,-38,19,35,7,-61,-115,-70,-27
-37,34,71,2,-55,52,-17,-28,-66,-111,-64,-26
-4,51,55,-24,-30,52,-39,-67,-73,-104,-54,-23
18,64,45,-41,-14,54,-27,-59,-75,-111,-62,-28
29,66,38,-48,-5,52,-27,-60,-76,-112,-56,-21
-12,-22,-10,17,-1,-16,-16,-46,-72,-121,-72,-36
-62,-85,-23,74,-19,-54,3,-51,-81,-136,-97,-60
-43,-72,-29,58,-6,-50,26,-34,-67,-122,-92,-60
-52,-99,-47,76,-2,-73,24,-41,-99,-141,-101,-65
-58,-109,-51,84,-3,-80,30,-27,-86,-116,-93,-62
-36,-118,-81,77,23,-99,46,-25,-90,-145,-110,-70
-47,-90,-42,69,-2,-66,36,-32,-81,-118,-88,-56
-47,-148,-101,97,28,-124,67,25,-49,-149,-118,-86
-7,-69,-63,38,28,-66,92,151,103,-54,-86,-55
94,5,-89,-50,91,-42,213,601,677,352,53,1
365,450,85,-408,140,267,-42,60,785,1139,735,460
455,1193,738,-824,-142,965,-667,-1119,386,2068,1605,1086
113,629,516,-372,-202,573,-596,-1276,-543,756,797,614
-168,-91,77,129,-122,-7,-264,-894,-1091,-713,-221,-43
-161,-82,80,121,-120,0,-134,-317,-396,-267,-152,-84
-77,-95,-17,86,-30,-55,5,-29,-80,-145,-115,-89
-35,-87,-52,61,9,-69,50,33,-29,-103,-74,-69
-46,-131,-85,89,19,-107,74,111,57,-46,-64,-63
-64,-134,-70,99,3,-102,70,98,37,-74,-67,-55
-59,-129,-70,94,6,-99,68,125,88,-22,-47,-45
-28,-99,-70,64,21,-84,68,133,86,-40,-48,-44
4,-57,-61,27,33,-59,62,143,119,5,-20,-28
-19,-89,-70,54,26,-79,65,138,128,7,-20,-21
-5,-78,-73,42,34,-76,71,164,151,43,0,-6
49,-45,-94,-2,72,-69,64,179,170,63,15,-4
43,-45,-87,1,65,-66,43,180,199,91,39,0
68,-23,-91,-23,80,-57,29,189,226,131,59,24
104,15,-90,-60,97,-38,1,213,265,170,95,59
114,31,-83,-73,99,-26,-23,232,301,218,131,79
149,50,-98,-99,123,-24,-42,230,324,269,165,104
180,101,-79,-140,129,11,-63,247,353,313,222,145
188,119,-68,-153,128,25,-89,238,355,342,246,165
206,134,-71,-170,138,31,-105,225,350,363,274,194
244,188,-56,-216,150,66,-112,216,347,356,291,211
227,174,-53,-200,140,60,-113,202,337,346,272,191
172,135,-37,-153,105,49,-102,182,300,322,251,174
126,107,-19,-116,72,44,-90,147,247,273,207,149
92,96,4,-94,44,50,-66,115,196,206,154,108
62,76,13,-69,24,45,-34,80,137,127,91,60
28,33,5,-31,11,18,-7,48,78,54,30,19
13,25,13,-19,0,19,7,17,28,2,-13,-12
-29,-19,11,24,-20,-4,18,-5,-3,-40,-43,-33
-82,-66,16,74,-49,-25,43,-8,-22,-66,-58,-36
-78,-59,19,68,-48,-20,52,-13,-36,-65,-63,-35
-71,-51,20,61,-45,-15,46,-14,-35,-65,-58,-34
-79,-48,32,63,-55,-8,45,-9,-28,-65,-55,-30
-61,-36,24,48,-42,-6,40,-6,-20,-65,-52,-30
-59,-39,21,49,-40,-9,39,-3,-17,-64,-47,-30
-81,-65,16,72,-48,-24,35,2,-20,-60,-45,-30
-67,-53,14,60,-40,-20,35,5,-20,-60,-50,-30
-25,-34,-8,30,-9,-21,34,1,-20,-60,-50,-30
-36,-55,-19,46,-8,-37,29,-6,-20,-60,-50,-30
-71,-70,1,70,-36,-34,31,-12,-20,-59,-51,-30
-65,-64,1,64,-33,-31,27,-19,-27,-67,-49,-36
-57,-58,-1,58,-28,-29,25,-26,-42,-81,-59,-43
-47,-51,-4,50,-21,-27,25,-32,-44,-89,-67,-45
-47,-54,-7,51,-20,-30,25,-35,-49,-101,-64,-45
-55,-65,-10,60,-22,-37,25,-35,-68,-109,-66,-45
-57,-66,-9,62,-24,-37,24,-35,-78,-111,-65,-45
-66,-70,-4,68,-31,-37,21,-39,-85,-114,-65,-45
-66,-72,-6,70,-30,-39,19,-46,-85,-116,-70,-50
-73,-76,-4,75,-34,-40,21,-51,-85,-122,-70,-50
-59,-72,-13,66,-22,-42,19,-49,-84,-129,-70,-51
-46,-68,-22,57,-12,-44,26,-57,-86,-134,-67,-55
-57,-74,-18,66,-19,-46,36,-66,-102,-135,-65,-55
-57,-70,-13,64,-22,-41,34,-64,-107,-135,-64,-53
-53,-61,-9,58,-22,-34,37,-65,-108,-139,-75,-49
-57,-57,0,57,-29,-28,41,-65,-112,-140,-81,-47
-53,-48,5,50,-28,-21,39,-65,-115,-139,-79,-44
-58,-44,14,51,-35,-15,44,-65,-115,-133,-81,-41
-54,-36,18,45,-36,-8,45,-57,-106,-126,-79,-40
-44,-25,19,35,-32,-3,45,-53,-98,-120,-82,-35
-51,-8,43,29,-47,18,45,-45,-90,-112,-68,-27
-13,38,51,-12,-32,44,45,-41,-81,-107,-51,-21
-25,42,67,-9,-46,54,43,-43,-78,-99,-47,-13
-10,64,74,-27,-43,69,-3,-52,-70,-91,-38,-8
51,129,78,-91,-14,103,-53,-82,-76,-83,-27,-2
30,120,90,-75,-30,105,-49,-78,-88,-72,-17,3
34,97,63,-66,-15,80,-39,-70,-92,-70,-15,5
25,63,38,-44,-6,50,-32,-61,-89,-78,-7,13
-20,-17,3,18,-11,-7,-20,-54,-101,-123,-35,-12
-38,-45,-7,42,-15,-26,-17,-59,-105,-124,-58,-34
-44,-78,-34,61,-5,-56,-1,-47,-100,-133,-74,-44
-60,-75,-15,68,-22,-45,-2,-60,-100,-137,-71,-47
-69,-94,-25,81,-22,-59,11,-36,-75,-132,-82,-64
-69,-80,-11,75,-29,-46,6,-65,-93,-154,-85,-62
-103,-111,-8,107,-47,-59,28,-8,-55,-119,-74,-58
-73,-142,-69,108,-2,-105,54,19,-67,-151,-101,-66
27,28,1,-27,13,15,131,364,348,127,-22,-29
221,132,-89,-176,154,21,171,541,809,608,261,134
484,891,407,-688,38,649,-402,-598,666,1724,1277,845
373,1149,776,-761,-202,962,-777,-1376,107,1841,1511,1055
-41,210,252,-85,-147,231,-450,-1188,-946,-138,233,263
-170,-68,102,119,-136,17,-216,-659,-846,-589,-224,-90
-105,-41,64,73,-84,11,-74,-134,-169,-111,-88,-57
-67,-89,-22,78,-23,-55,16,-28,-110,-173,-106,-68
-42,-87,-45,65,2,-66,39,53,-3,-70,-65,-46
-46,-113,-68,80,11,-90,64,77,-25,-108,-91,-55
-10,-65,-55,38,23,-60,66,100,33,-43,-55,-39
9,-85,-94,38,52,-89,67,115,64,-42,-54,-40
3,-69,-72,33,38,-70,57,102,58,-34,-39,-31
13,-60,-73,24,43,-67,56,138,93,-7,-29,-24
8,-56,-64,25,36,-60,50,148,105,1,-19,-18
16,-40,-56,12,36,-48,45,156,134,48,3,-11
24,-34,-58,5,41,-46,37,157,158,66,15,6
43,-18,-61,-13,52,-39,28,169,194,97,43,28
93,17,-76,-54,84,-29,18,183,207,123,66,45
104,29,-74,-66,89,-22,-3,197,245,174,103,72
139,64,-75,-101,107,-6,-26,216,275,225,142,94
179,104,-75,-141,127,14,-55,222,316,276,189,129
175,100,-75,-137,125,12,-87,214,341,318,234,158
201,127,-74,-164,138,26,-112,208,334,335,259,178
207,146,-62,-176,134,42,-121,200,326,334,257,183
199,149,-50,-174,124,49,-113,193,313,325,249,173
180,140,-40,-160,110,50,-104,184,293,314,244,164
137,108,-30,-122,83,39,-96,169,267,290,226,160
127,107,-20,-117,74,43,-83,136,230,236,183,133
98,89,-9,-93,53,40,-55,101,168,167,115,85
65,64,-1,-65,33,31,-27,74,110,96,61,52
18,35,17,-27,1,26,-8,37,64,26,19,7
-29,7,36,10,-32,21,10,16,19,-26,-26,-33
-27,8,35,9,-31,21,20,13,-13,-61,-64,-50
-63,-33,30,48,-47,-1,42,9,-30,-76,-77,-56
-85,-57,28,71,-56,-14,57,6,-28,-76,-74,-54
-81,-58,23,69,-52,-17,54,1,-22,-75,-75,-59
-84,-64,20,74,-52,-22,55,1,-18,-75,-75,-61
-80,-64,16,72,-48,-24,55,7,-11,-70,-75,-58
-84,-69,15,76,-49,-27,55,12,-6,-70,-76,-63
-85,-70,15,77,-50,-27,51,18,-10,-70,-74,-65
-81,-67,15,73,-48,-26,50,24,-18,-71,-76,-59
-80,-65,15,72,-47,-25,50,29,-24,-69,-74,-58
-78,-65,14,71,-46,-26,46,27,-32,-78,-77,-51
-70,-60,10,66,-40,-25,44,19,-39,-103,-97,-51
-67,-60,8,63,-38,-26,47,13,-46,-108,-101,-63
-65,-60,5,62,-35,-27,50,6,-50,-111,-100,-66
-61,-60,2,60,-31,-29,50,-1,-66,-117,-105,-64
-60,-61,0,60,-30,-31,50,-6,-81,-123,-105,-68
-56,-59,-3,58,-26,-31,50,-15,-85,-141,-106,-80
-61,-70,-9,66,-26,-39,50,-23,-93,-151,-104,-88
-67,-80,-14,74,-27,-47,47,-32,-102,-157,-116,-88
-64,-81,-17,73,-23,-49,43,-35,-105,-161,-126,-84
-62,-85,-23,74,-19,-54,39,-35,-106,-164,-124,-86
-63,-87,-24,75,-19,-56,36,-35,-110,-168,-125,-84
-72,-91,-19,82,-27,-55,30,-35,-110,-170,-125,-86
-74,-87,-14,81,-30,-50,32,-35,-115,-175,-130,-95
-74,-84,-10,79,-32,-46,44,-36,-115,-175,-131,-95
-81,-86,-5,84,-38,-45,46,-40,-116,-176,-129,-95
-80,-80,0,80,-40,-40,44,-40,-120,-180,-130,-92
-84,-81,3,82,-44,-38,41,-42,-120,-180,-129,-89
-86,-78,8,82,-47,-35,40,-46,-118,-178,-131,-90
-102,-91,11,96,-57,-39,41,-45,-111,-171,-126,-84
-123,-107,15,115,-69,-46,48,-40,-104,-167,-120,-79
-95,-81,14,88,-54,-34,49,-30,-97,-161,-115,-74
-65,-39,25,52,-45,-7,57,-19,-91,-155,-108,-67
-56,-8,49,32,-52,20,66,-10,-84,-150,-104,-63
-50,5,55,22,-53,30,49,2,-81,-145,-98,-57
-29,38,67,-5,-49,53,32,-9,-76,-137,-95,-53
-15,49,64,-17,-40,56,-13,-46,-74,-132,-90,-48
-15,40,55,-13,-35,47,-49,-51,-70,-123,-85,-46
32,78,46,-55,-8,62,-50,-48,-63,-117,-80,-32
42,64,22,-53,10,42,-50,-54,-79,-122,-74,-24
-27,-17,10,22,-19,-3,-14,-44,-107,-147,-109,-68
-59,-61,-2,60,-28,-31,17,-58,-115,-166,-136,-92
-62,-97,-35,80,-13,-66,37,-37,-99,-169,-145,-101
-75,-98,-23,87,-26,-60,39,-44,-114,-186,-147,-104
-75,-105,-31,90,-22,-68,42,-16,-89,-159,-141,-108
-68,-131,-64,100,-2,-97,47,-21,-111,-195,-158,-111
-90,-104,-13,97,-39,-58,45,-16,-87,-153,-139,-99
-64,-148,-84,106,10,-115,75,30,-85,-187,-164,-121
-15,-53,-38,35,11,-45,100,203,135,-49,-106,-81
119,3,-116,-61,117,-56,207,633,715,360,43,-24
398,525,127,-462,135,326,-127,-50,763,1246,821,512
396,1186,790,-791,-197,988,-682,-1130,327,2023,1546,1041
27,516,489,-272,-231,502,-518,-1226,-709,426,552,448
-244,-107,137,176,-190,14,-214,-848,-1104,-785,-325,-125
-210,-98,112,154,-161,7,-99,-256,-369,-271,-202,-126
-116,-138,-22,127,-47,-80,19,-16,-139,-236,-187,-128
-72,-107,-35,90,-18,-71,55,55,-57,-152,-143,-106
-46,-128,-82,87,18,-105,74,107,-1,-134,-143,-106
-52,-116,-64,84,6,-90,68,96,5,-134,-136,-97
-45,-116,-71,81,13,-94,70,130,53,-91,-122,-90
-28,-100,-71,64,22,-85,71,118,40,-103,-124,-86
-26,-93,-67,59,21,-80,69,132,74,-54,-103,-77
-24,-95,-71,60,24,-83,66,127,71,-80,-91,-72
14,-47,-61,17,38,-54,55,166,118,-36,-56,-58
20,-48,-68,15,44,-58,48,185,132,2,-47,-49
15,-47,-62,16,39,-55,38,182,149,31,-42,-35
36,-31,-68,-2,52,-49,25,192,181,58,-22,-17
30,-31,-62,1,46,-46,13,197,214,97,21,5
71,0,-71,-35,71,-35,-10,210,260,149,61,36
134,42,-92,-88,112,-25,-48,208,276,191,97,61
147,59,-87,-103,117,-14,-65,206,288,242,143,93
166,87,-79,-127,122,4,-81,201,284,253,160,110
197,125,-72,-161,135,26,-115,197,273,249,167,110
201,143,-58,-172,129,43,-126,192,266,262,186,127
169,131,-38,-150,104,46,-114,172,256,253,181,126
153,124,-29,-138,91,47,-100,148,232,223,167,115
126,105,-21,-116,73,42,-85,125,186,174,130,88
72,58,-14,-65,43,22,-60,99,145,104,66,43
32,26,-6,-29,19,10,-30,70,86,26,-3,6
-4,6,11,-1,-8,8,4,43,23,-46,-63,-36
-33,-22,11,28,-22,-5,29,22,-24,-98,-102,-70
-61,-52,9,56,-35,-21,38,14,-60,-133,-135,-92
-77,-67,10,72,-43,-28,59,15,-66,-154,-154,-107
-90,-86,4,87,-46,-41,63,15,-65,-157,-157,-107
-97,-91,7,94,-52,-42,67,15,-64,-152,-153,-102
-76,-75,1,76,-38,-37,80,15,-60,-145,-147,-96
-54,-69,-16,62,-19,-42,70,17,-60,-141,-144,-92
-52,-68,-16,61,-18,-42,64,26,-62,-144,-138,-84
-56,-71,-15,64,-21,-42,58,33,-66,-145,-135,-82
-58,-69,-12,64,-23,-40,51,30,-65,-145,-140,-102
-61,-70,-10,66,-26,-40,46,22,-69,-145,-140,-106
-62,-70,-8,66,-27,-38,45,16,-71,-144,-144,-104
-68,-72,-4,70,-31,-38,45,9,-70,-148,-145,-110
-71,-76,-5,74,-32,-41,41,3,-78,-164,-148,-110
-63,-67,-5,66,-29,-36,39,-3,-87,-177,-155,-110
-79,-84,-5,82,-37,-44,42,-5,-98,-182,-155,-110
-99,-97,3,98,-50,-47,50,-11,-99,-187,-155,-110
-103,-94,8,98,-55,-43,50,-16,-106,-190,-155,-110
-97,-96,2,96,-49,-47,50,-22,-121,-195,-155,-110
-92,-94,-2,93,-44,-48,50,-27,-122,-194,-155,-110
-90,-97,-7,94,-41,-52,50,-34,-128,-199,-155,-106
-76,-87,-11,82,-32,-49,49,-32,-130,-205,-155,-105
-70,-85,-16,78,-27,-50,45,-30,-130,-205,-155,-105
-45,-65,-20,55,-12,-42,45,-30,-130,-205,-155,-100
-62,-80,-18,71,-22,-48,43,-30,-129,-202,-152,-100
-61,-74,-14,68,-23,-44,39,-50,-150,-219,-169,-99
-38,-47,-9,43,-14,-28,40,-53,-156,-224,-174,-95
-81,-89,-8,85,-37,-48,43,-45,-149,-212,-162,-95
-88,-88,-1,88,-43,-44,46,-42,-148,-209,-159,-93
-78,-80,-2,79,-38,-41,48,-35,-142,-200,-150,-89
-69,-81,-12,75,-28,-46,52,-29,-141,-196,-144,-91
-64,-71,-7,67,-28,-38,55,-26,-128,-186,-135,-86
-70,-43,27,56,-48,-8,55,-22,-112,-172,-127,-79
-60,-1,59,30,-59,29,44,-20,-106,-163,-120,-73
-51,16,67,17,-60,41,36,-15,-100,-155,-110,-65
-33,45,79,-6,-56,62,13,-21,-99,-150,-100,-60
-15,70,85,-28,-50,77,-44,-62,-101,-142,-86,-49
6,80,74,-43,-35,77,-57,-70,-98,-135,-80,-42
21,91,70,-56,-25,81,-50,-63,-102,-130,-71,-37
-11,43,54,-17,-32,49,-41,-56,-102,-127,-75,-36
-59,-44,14,51,-36,-15,-10,-48,-115,-160,-107,-63
-61,-59,1,60,-31,-29,-3,-46,-109,-150,-111,-73
-45,-89,-44,67,0,-66,12,-31,-107,-157,-121,-78
-49,-81,-31,65,-9,-56,12,-43,-117,-151,-118,-72
-63,-106,-43,85,-10,-74,32,-15,-98,-144,-128,-85
-69,-96,-27,83,-21,-61,30,-41,-128,-164,-131,-80
-68,-94,-26,81,-21,-59,28,1,-67,-137,-131,-96
-62,-137,-75,100,6,-105,60,41,-56,-173,-132,-87
9,7,-1,-8,5,3,138,378,354,125,-42,-42
232,140,-92,-186,161,24,152,518,825,631,266,124
453,905,452,-679,0,679,-395,-564,641,1713,1262,832
289,1110,821,-699,-266,965,-721,-1296,-18,1670,1370,958
-104,164,268,-31,-187,216,-404,-1124,-1018,-276,124,184
-219,-103,116,160,-167,7,-201,-621,-838,-601,-255,-122
-148,-76,73,112,-110,-1,-72,-132,-186,-144,-123,-96
-76,-102,-27,89,-24,-64,17,-12,-125,-188,-127,-95
-17,-58,-41,37,13,-49,56,90,2,-72,-73,-78
-32,-95,-63,63,16,-79,63,84,-5,-128,-91,-82
-51,-103,-52,77,1,-78,74,109,51,-61,-63,-69
-45,-107,-62,76,8,-84,92,144,76,-32,-61,-68
-28,-70,-42,49,7,-56,63,128,71,-26,-36,-48
-11,-56,-45,34,17,-51,57,146,102,-7,-21,-37
-8,-38,-30,23,11,-34,45,136,99,14,-13,-28
9,-28,-37,10,24,-32,38,148,129,42,6,-17
40,-21,-61,-9,50,-41,28,154,146,57,18,-7
59,-3,-62,-28,60,-32,15,175,188,108,44,12
81,15,-66,-47,73,-25,-3,195,218,140,71,37
131,61,-69,-96,100,-4,-16,203,248,189,104,56
144,77,-68,-110,106,4,-45,217,277,230,144,86
140,82,-59,-111,99,11,-79,226,306,271,181,115
180,128,-52,-153,116,37,-87,221,332,326,229,145
207,151,-55,-179,131,48,-112,212,320,347,262,174
210,159,-50,-184,130,54,-123,204,307,338,268,173
206,162,-44,-184,125,59,-118,193,300,326,283,195
193,154,-38,-173,115,58,-121,179,283,317,276,195
162,147,-15,-154,88,66,-119,164,246,288,238,159
132,137,6,-135,63,71,-102,141,202,236,198,128
89,101,12,-96,38,57,-69,106,142,175,136,82
47,67,19,-57,14,43,-30,66,70,95,64,41
-19,6,25,6,-22,15,-4,23,20,27,19,9
-66,-41,25,53,-45,-8,7,10,-13,-10,-12,-13
-40,-15,25,27,-33,5,18,17,-32,-37,-37,-32
-56,-31,25,43,-40,-3,28,12,-37,-56,-50,-45
-62,-37,25,49,-43,-6,37,10,-33,-54,-49,-44
-59,-33,25,46,-42,-4,36,6,-30,-49,-55,-48
-57,-36,21,46,-38,-7,35,5,-28,-48,-62,-55
-55,-34,20,44,-37,-6,34,2,-24,-41,-59,-55
-48,-35,13,41,-30,-11,30,-1,-28,-41,-57,-55
-24,-1,23,12,-23,10,30,-5,-30,-44,-55,-56
-54,-13,42,33,-48,14,29,-4,-31,-47,-53,-52
-63,-27,36,44,-49,5,38,7,-36,-51,-50,-50
-59,-25,33,42,-46,4,41,3,-35,-54,-50,-50
-69,-39,30,54,-49,-4,39,-3,-42,-58,-47,-47
-58,-33,25,45,-41,-4,41,-7,-53,-67,-44,-45
-59,-36,23,47,-40,-6,40,-15,-60,-78,-46,-45
-59,-41,17,50,-38,-12,40,-17,-76,-76,-49,-45
-52,-39,12,45,-32,-13,40,-29,-87,-83,-54,-45
-70,-61,9,65,-39,-26,40,-42,-107,-107,-66,-46
-61,-58,3,59,-32,-27,40,-40,-112,-107,-62,-43
-69,-69,0,69,-34,-34,40,-40,-116,-116,-67,-52
-92,-85,7,88,-49,-39,40,-40,-136,-131,-86,-66
-60,-54,6,57,-33,-24,37,-40,-132,-130,-81,-60
-51,-47,4,48,-27,-21,34,-40,-128,-129,-78,-55
-53,-47,6,49,-29,-20,31,-44,-125,-125,-75,-52
-67,-63,4,64,-35,-29,28,-45,-120,-125,-70,-45
-75,-68,6,71,-40,-31,25,-45,-121,-123,-68,-48
-55,-54,1,54,-28,-26,25,-50,-119,-119,-64,-50
-44,-54,-10,49,-16,-32,25,-50,-120,-120,-65,-50
-40,-52,-12,46,-14,-32,25,-49,-120,-120,-65,-50
-63,-70,-7,66,-28,-39,25,-45,-120,-120,-65,-50
-47,-53,-6,51,-20,-30,25,-46,-120,-120,-65,-50
-31,-33,-2,32,-14,-17,24,-43,-115,-115,-60,-45
-46,-47,-1,46,-22,-23,30,-39,-109,-112,-57,-46
-30,-26,5,28,-17,-10,36,-41,-103,-106,-51,-41
-53,-16,37,34,-45,10,42,-32,-97,-102,-40,-27
-48,2,50,23,-49,26,52,-18,-93,-95,-27,-13
-24,51,75,-14,-50,63,34,-8,-87,-63,-19,-5
-16,75,91,-30,-54,83,-12,-35,-82,-71,-18,-4
28,102,74,-66,-23,88,-56,-74,-80,-83,-12,1
28,100,71,-64,-22,85,-57,-69,-72,-82,-11,1
26,90,64,-58,-19,77,-48,-70,-73,-91,-4,7
-10,19,29,-5,-19,24,-35,-57,-86,-85,-10,-1
-52,-62,-11,57,-20,-36,-6,-59,-114,-113,-39,-27
-42,-60,-18,51,-12,-38,-1,-47,-110,-108,-48,-39
-52,-78,-26,64,-13,-52,3,-46,-117,-125,-62,-46
-43,-58,-15,51,-14,-36,1,-47,-105,-104,-56,-43
-39,-93,-54,66,8,-73,9,-29,-98,-125,-75,-58
-52,-74,-22,63,-14,-48,14,-54,-103,-108,-63,-46
-60,-113,-53,87,-3,-83,47,1,-75,-112,-83,-76
-35,-79,-44,57,4,-61,68,77,-5,-88,-60,-56
63,32,-31,-47,46,1,177,547,546,270,34,-22
319,314,-5,-317,162,154,48,305,835,922,550,324
523,1159,636,-841,-57,898,-611,-952,577,2061,1593,1074
252,899,647,-576,-198,773,-706,-1359,-244,1269,1159,840
-153,4,156,74,-154,80,-334,-1044,-1098,-545,-57,65
-184,-53,132,118,-158,39,-179,-443,-585,-365,-154,-86
-80,-50,31,65,-55,-9,-30,-46,-120,-120,-85,-74
-63,-80,-17,72,-23,-48,22,18,-85,-124,-74,-60
-24,-82,-58,53,17,-70,44,104,28,-30,-46,-53
-19,-90,-71,55,26,-80,61,93,7,-78,-64,-54
-29,-87,-58,59,15,-73,76,133,65,-25,-39,-42
-15,-87,-72,51,29,-79,78,132,40,-54,-52,-45
-9,-68,-60,39,26,-64,56,135,76,-14,-28,-33
0,-69,-69,35,35,-69,53,147,90,-3,-15,-24
5,-52,-57,24,31,-54,38,153,102,29,5,-6
30,-25,-55,-2,43,-40,31,164,137,55,16,-1
49,1,-47,-25,48,-23,20,173,150,77,33,6
53,8,-45,-30,48,-19,7,204,198,125,66,35
49,16,-33,-32,41,-8,-8,205,222,156,92,53
99,43,-55,-71,77,-6,-26,219,256,203,121,68
141,65,-76,-103,108,-5,-43,241,290,244,166,108
156,100,-57,-128,106,21,-61,238,317,298,211,137
200,132,-68,-166,134,32,-100,231,320,331,238,154
199,135,-64,-167,131,35,-117,225,311,338,265,179
210,156,-54,-183,132,51,-113,216,307,342,273,191
214,166,-47,-190,130,59,-124,210,302,329,265,183
176,149,-27,-162,101,61,-116,199,287,319,262,172
155,142,-13,-148,83,64,-102,177,245,280,226,164
122,121,-2,-121,62,59,-83,141,207,219,172,126
73,79,6,-76,33,42,-52,100,150,142,109,75
21,45,24,-33,-2,34,-22,66,71,60,38,35
-20,12,31,4,-26,21,2,42,15,16,-5,2
-38,-11,27,24,-33,8,15,24,-17,-29,-36,-19
-58,-34,25,46,-41,-4,30,19,-28,-66,-58,-44
-77,-55,22,66,-49,-16,44,20,-40,-74,-60,-56
-48,-28,20,38,-34,-4,47,16,-48,-69,-60,-55
-31,-20,11,26,-21,-4,44,15,-45,-63,-59,-55
-46,-25,21,35,-33,-2,41,14,-43,-58,-55,-51
-41,-13,28,27,-34,7,38,27,-40,-51,-55,-49
-34,-13,21,24,-27,4,35,39,-36,-56,-55,-51
-23,-2,21,13,-22,9,33,33,-35,-61,-56,-54
-19,-3,16,11,-17,6,30,30,-38,-60,-54,-55
-29,-14,15,21,-22,0,30,27,-43,-60,-56,-55
-64,-49,15,56,-40,-16,30,22,-46,-67,-56,-55
-62,-49,14,55,-38,-17,30,20,-54,-78,-51,-54
-15,-5,10,10,-12,2,30,11,-77,-97,-69,-58
-35,-25,10,30,-22,-8,33,-2,-91,-108,-80,-60
-57,-47,10,52,-33,-18,36,-14,-94,-109,-79,-60
-69,-60,9,64,-39,-25,39,-28,-101,-116,-81,-60
-78,-67,11,72,-44,-27,42,-30,-98,-119,-79,-60
-61,-59,2,60,-31,-29,45,-31,-109,-124,-80,-60
-53,-59,-7,56,-23,-33,44,-35,-121,-127,-80,-60
-47,-52,-5,50,-20,-28,39,-35,-119,-134,-80,-60
-75,-80,-4,78,-35,-42,34,-40,-124,-140,-81,-60
-82,-82,-1,82,-40,-41,30,-40,-125,-140,-80,-60
-82,-82,1,82,-41,-40,24,-41,-125,-141,-76,-60
-93,-94,-1,93,-46,-47,22,-45,-125,-145,-75,-58
-80,-79,1,80,-40,-39,17,-45,-126,-145,-70,-53
-76,-77,0,77,-38,-38,28,-42,-133,-142,-71,-50
-71,-72,0,72,-36,-36,45,-40,-139,-140,-88,-47
-68,-67,1,67,-34,-33,39,-36,-136,-137,-91,-42
-50,-63,-13,57,-18,-38,33,-35,-135,-134,-89,-41
-47,-58,-11,53,-18,-34,28,-30,-134,-130,-90,-44
-45,-53,-8,49,-18,-31,21,-31,-131,-131,-90,-46
-35,-47,-12,41,-11,-30,22,-41,-129,-132,-89,-44
-43,-41,2,42,-22,-19,29,-36,-134,-127,-83,-48
-53,-39,14,46,-33,-12,35,-30,-128,-121,-78,-51
-63,-20,43,41,-52,11,42,-24,-109,-115,-71,-35
-33,9,42,12,-38,25,48,-20,-99,-110,-64,-29
-8,33,41,-13,-25,37,41,-8,-96,-106,-51,-31
-21,58,79,-19,-50,68,7,1,-90,-104,-40,-29
-2,78,80,-38,-41,78,-45,-43,-90,-107,-35,-31
41,98,57,-70,-8,77,-66,-65,-83,-104,-34,-29
57,96,39,-77,9,67,-62,-59,-79,-116,-37,-32
39,65,27,-52,6,46,-60,-54,-96,-112,-30,-28
-35,-30,5,33,-20,-12,-23,-43,-117,-123,-56,-34
-59,-60,-1,60,-28,-31,2,-45,-129,-133,-78,-46
-31,-50,-19,41,-6,-35,14,-25,-124,-141,-88,-60
-78,-91,-13,85,-32,-52,14,-40,-133,-145,-84,-51
-80,-117,-37,99,-21,-77,27,-11,-109,-126,-81,-58
-61,-104,-43,83,-9,-73,30,-35,-133,-153,-82,-69
-65,-79,-15,72,-25,-47,33,-3,-99,-109,-80,-74
-67,-134,-67,100,1,-100,58,28,-93,-161,-126,-94
-39,-31,8,35,-23,-11,116,304,239,55,-49,-50
179,79,-100,-128,139,-10,192,617,771,514,174,70
460,749,289,-604,85,519,-294,-357,731,1546,1111,731
405,1204,799,-805,-197,1000,-754,-1277,230,1943,1563,1085
-8,327,336,-160,-172,331,-470,-1214,-855,79,354,334
-203,-108,95,155,-148,-7,-212,-743,-969,-666,-277,-115
-131,-50,81,91,-106,16,-91,-157,-234,-152,-131,-86
-82,-101,-19,92,-32,-60,18,-8,-121,-183,-137,-99
-41,-91,-49,66,4,-70,61,82,-26,-78,-79,-74
-43,-130,-87,87,22,-108,81,110,-9,-101,-96,-80
-27,-83,-55,55,14,-69,64,101,24,-75,-77,-69
-40,-107,-68,74,14,-87,67,134,54,-67,-74,-70
-53,-105,-51,79,-1,-78,59,122,41,-66,-70,-64
-30,-82,-51,56,11,-66,55,148,78,-25,-58,-60
-16,-73,-57,45,21,-65,56,148,79,-13,-52,-57
-2,-58,-57,30,28,-57,64,167,120,29,-35,-37
26,-28,-54,1,40,-40,58,170,150,37,-25,-26
27,-20,-47,-3,38,-34,37,185,178,67,-2,-10
1,-43,-45,21,23,-44,20,202,187,93,18,5
53,13,-39,-33,46,-13,-4,206,227,143,62,31
111,41,-70,-76,90,-14,-21,227,263,192,102,67
157,75,-82,-116,119,-4,-45,242,293,237,147,98
162,90,-72,-125,117,8,-83,246,309,277,177,120
176,103,-73,-139,124,15,-102,236,294,293,197,134
219,158,-62,-188,140,48,-98,222,289,295,218,146
189,144,-46,-166,117,49,-102,206,278,284,208,150
174,140,-34,-157,104,53,-103,188,268,275,209,147
159,132,-26,-145,92,53,-86,169,246,251,197,139
129,123,-6,-126,67,58,-82,141,204,214,160,121
93,117,24,-106,34,70,-67,106,149,145,101,76
39,65,26,-53,6,46,-26,67,78,55,23,23
-2,20,22,-10,-12,21,6,39,21,-21,-36,-22
-43,-22,21,33,-31,-1,24,24,-20,-79,-82,-58
-57,-41,15,49,-36,-13,44,15,-52,-94,-109,-72
-69,-52,17,60,-43,-17,56,9,-70,-111,-119,-77
-68,-62,6,65,-37,-28,55,11,-73,-128,-121,-84
-72,-60,12,66,-42,-24,55,9,-70,-122,-119,-83
-98,-71,28,84,-63,-21,52,14,-67,-120,-118,-80
-91,-70,21,80,-56,-24,49,26,-65,-118,-114,-80
-86,-70,16,77,-51,-27,46,24,-61,-113,-115,-78
-80,-67,13,73,-46,-26,43,21,-60,-119,-118,-75
-71,-65,6,67,-38,-29,40,18,-64,-139,-121,-75
-71,-65,6,68,-38,-29,42,15,-65,-141,-124,-85
-83,-61,22,71,-53,-19,51,14,-65,-139,-127,-91
-80,-56,24,68,-52,-16,50,8,-66,-141,-130,-89
-72,-54,18,63,-44,-18,50,1,-76,-139,-129,-94
-64,-50,14,56,-39,-17,50,-6,-89,-144,-123,-95
-53,-43,9,48,-31,-17,50,-13,-107,-160,-133,-95
-69,-66,3,68,-36,-31,50,-20,-124,-182,-145,-100
-87,-94,-8,91,-39,-50,49,-21,-126,-193,-146,-104
-69,-84,-15,77,-27,-49,51,-19,-143,-199,-154,-105
-34,-60,-26,47,-4,-43,48,-21,-152,-200,-156,-105
-47,-76,-28,62,-10,-52,57,-20,-148,-200,-154,-105
-62,-83,-21,73,-21,-52,66,-20,-155,-205,-156,-105
-57,-73,-16,65,-20,-44,60,-23,-155,-205,-154,-105
-66,-76,-10,71,-27,-43,58,-25,-155,-206,-157,-104
-58,-67,-9,62,-24,-38,54,-25,-159,-210,-160,-101
-63,-74,-11,69,-26,-43,50,-24,-160,-209,-160,-98
-84,-92,-8,88,-38,-50,47,-37,-160,-212,-160,-95
-72,-90,-18,81,-27,-54,44,-46,-160,-215,-160,-93
-50,-75,-25,62,-12,-49,41,-38,-160,-215,-160,-89
-55,-73,-17,64,-19,-45,39,-35,-160,-212,-157,-93
-82,-95,-13,89,-35,-53,34,-30,-160,-207,-152,-95
-88,-94,-6,91,-41,-49,36,-24,-160,-205,-149,-95
-59,-76,-16,68,-21,-46,40,-31,-160,-200,-145,-95
-62,-79,-18,71,-22,-48,45,-37,-160,-197,-142,-95
-79,-81,-3,80,-38,-42,49,-33,-160,-194,-139,-95
-79,-71,8,75,-43,-32,51,-26,-142,-186,-131,-86
-54,-27,27,40,-40,0,61,-22,-119,-174,-119,-73
-33,5,38,14,-36,21,55,-11,-121,-166,-112,-63
-26,38,64,-6,-45,51,30,1,-119,-161,-108,-59
-32,57,89,-13,-61,73,-15,-35,-121,-157,-107,-57
-57,28,85,14,-71,57,-47,-60,-135,-158,-102,-53
10,78,67,-44,-29,72,-43,-50,-140,-172,-98,-52
22,85,63,-54,-21,73,-45,-56,-142,-170,-81,-47
-47,-5,42,26,-45,18,-19,-43,-136,-167,-91,-58
-64,-36,28,50,-45,-4,0,-52,-141,-181,-118,-72
-80,-68,12,74,-46,-28,7,-37,-127,-172,-129,-86
-76,-96,-20,86,-27,-58,18,-43,-144,-192,-145,-92
-68,-88,-20,78,-24,-54,21,-30,-127,-163,-133,-90
-57,-125,-68,91,6,-96,35,-24,-141,-190,-149,-113
-63,-88,-25,75,-19,-56,33,-32,-129,-161,-128,-92
-63,-150,-87,107,12,-118,67,23,-100,-190,-159,-115
-50,-76,-27,63,-11,-51,85,120,19,-116,-141,-107
38,16,-22,-27,30,-3,187,570,594,284,-5,-51
324,399,75,-362,124,237,-25,136,749,1032,639,390
412,1188,776,-801,-182,982,-626,-1006,382,1986,1516,1022
88,690,603,-389,-258,646,-587,-1237,-563,761,777,589
-219,-70,150,144,-184,40,-243,-914,-1176,-765,-272,-90
-210,-58,152,134,-180,46,-132,-357,-497,-355,-212,-126
-106,-92,13,99,-59,-39,-17,-60,-166,-211,-171,-120
-96,-102,-6,99,-44,-54,50,18,-103,-169,-145,-98
-81,-128,-47,105,-17,-87,80,99,-1,-104,-116,-83
-57,-109,-52,83,-3,-80,70,76,-11,-131,-118,-72
-51,-108,-56,80,3,-82,67,121,48,-80,-96,-60
-51,-114,-63,83,6,-88,65,117,31,-107,-105,-69
0,-62,-63,31,31,-62,58,126,68,-60,-78,-55
11,-63,-74,26,42,-68,57,125,69,-50,-61,-56
-4,-63,-60,34,28,-61,44,128,93,-8,-38,-44
19,-45,-63,13,41,-54,39,152,119,16,-27,-30
25,-30,-55,3,40,-42,28,154,135,43,-9,-13
33,-21,-54,-5,44,-38,13,167,167,77,15,5
17,-31,-48,8,32,-39,-4,173,189,106,44,13
78,36,-42,-57,60,-3,-13,194,233,161,85,50
115,80,-35,-98,75,22,-31,203,270,211,130,89
134,77,-57,-105,95,10,-68,193,289,253,176,111
205,132,-73,-168,139,29,-89,188,290,290,215,146
183,121,-62,-152,122,29,-105,179,285,295,224,153
200,136,-63,-168,131,36,-112,173,284,285,244,148
207,159,-47,-183,127,55,-109,164,269,285,247,146
160,137,-23,-148,91,56,-111,151,243,264,217,142
129,127,-2,-128,65,63,-98,139,211,228,196,137
89,98,8,-94,40,53,-74,110,167,171,133,100
61,73,13,-67,24,43,-41,75,105,98,66,49
1,30,29,-16,-14,29,-17,44,40,17,20,8
-14,7,21,3,-18,14,1,10,-5,-54,-31,-39
-45,-12,33,28,-39,11,35,0,-29,-69,-63,-54
-75,-46,29,60,-52,-8,50,-5,-47,-87,-75,-55
-49,-39,9,44,-29,-14,54,-20,-53,-105,-73,-75
-60,-33,28,46,-44,-2,53,-11,-47,-96,-69,-73
-48,-25,23,36,-35,-1,49,-2,-47,-92,-66,-68
-59,-39,20,49,-39,-9,51,6,-41,-83,-61,-66
-76,-57,18,66,-46,-19,46,11,-41,-79,-61,-61
-68,-54,14,61,-41,-20,45,9,-37,-76,-66,-59
-68,-54,14,61,-40,-20,45,10,-19,-72,-70,-52
-59,-50,8,54,-33,-21,41,10,-42,-69,-66,-48
-71,-49,22,60,-47,-13,38,10,-66,-64,-65,-42
-80,-53,26,66,-53,-13,35,5,-66,-73,-64,-37
-76,-55,21,65,-48,-17,33,-3,-70,-90,-61,-30
-74,-55,19,64,-46,-17,29,-9,-76,-97,-59,-41
-83,-69,14,76,-48,-27,33,-17,-92,-97,-64,-59
-85,-74,11,79,-48,-31,35,-24,-95,-113,-78,-62
-70,-63,7,66,-38,-27,35,-31,-95,-135,-81,-65
-63,-58,5,60,-34,-27,35,-37,-110,-138,-84,-65
-52,-50,2,51,-27,-24,35,-40,-116,-139,-87,-64
-45,-46,-1,45,-21,-23,34,-46,-114,-147,-90,-66
-69,-72,-4,71,-32,-38,31,-44,-110,-140,-89,-63
-66,-73,-6,70,-30,-39,28,-50,-128,-145,-84,-70
-69,-61,8,65,-38,-26,26,-70,-149,-154,-86,-85
-105,-83,22,94,-63,-31,22,-70,-150,-132,-82,-83
-79,-63,16,71,-48,-23,20,-65,-149,-128,-80,-79
-64,-53,11,58,-37,-21,17,-64,-145,-131,-80,-76
-72,-66,6,68,-39,-30,15,-60,-145,-137,-77,-71
-80,-71,9,75,-45,-31,11,-60,-144,-142,-74,-69
-87,-72,14,79,-50,-29,9,-60,-140,-136,-71,-64
-90,-78,12,84,-51,-33,6,-60,-138,-136,-68,-66
-94,-83,10,89,-52,-36,4,-60,-135,-131,-65,-63
-61,-53,8,56,-34,-22,18,-60,-132,-130,-64,-59
-56,-50,6,53,-31,-22,25,-61,-130,-126,-58,-61
-51,-47,3,49,-27,-21,26,-55,-127,-117,-53,-55
-76,-58,18,67,-47,-20,23,-47,-122,-110,-48,-47
-46,-14,32,30,-39,9,36,-41,-120,-100,-41,-37
12,65,53,-39,-21,59,56,-34,-101,-94,-37,-30
-22,49,71,-13,-47,59,37,-45,-88,-89,-30,-23
-15,57,72,-21,-44,64,15,-45,-82,-87,-21,-20
-28,66,94,-19,-61,79,-27,-69,-93,-83,-12,-14
-26,73,99,-24,-63,86,-62,-94,-120,-79,-4,-11
7,95,87,-51,-40,91,-53,-88,-129,-78,12,-5
9,73,63,-41,-27,67,-48,-82,-128,-69,9,9
-5,4,9,1,-7,6,-32,-71,-134,-96,-37,-24
-45,-32,12,38,-28,-10,-22,-75,-137,-95,-48,-41
-71,-72,-1,71,-35,-36,-5,-57,-121,-115,-61,-52
-100,-102,-1,101,-49,-51,1,-75,-130,-145,-72,-66
-96,-98,-1,97,-48,-49,13,-44,-101,-119,-63,-63
-82,-106,-24,94,-29,-65,24,-70,-122,-148,-70,-63
-82,-90,-8,86,-37,-49,25,-33,-86,-102,-50,-53
-36,-110,-74,73,19,-91,51,17,-89,-148,-69,-63
-24,-10,14,17,-18,2,106,260,202,57,-30,-40
142,75,-67,-108,104,3,195,600,737,489,167,55
453,730,277,-592,88,503,-266,-333,709,1498,1093,713
412,1226,814,-820,-201,1020,-776,-1308,246,2025,1631,1129
10,371,361,-191,-175,366,-515,-1256,-810,210,469,404
-209,-115,95,162,-152,-10,-229,-780,-994,-652,-229,-71
-119,-35,84,77,-101,25,-101,-204,-267,-127,-84,-54
-82,-90,-8,86,-37,-49,9,-35,-136,-152,-96,-78
-48,-61,-13,55,-17,-37,46,59,-36,-59,-44,-52
-11,-86,-75,49,32,-81,63,82,-7,-68,-54,-62
-26,-92,-66,59,20,-79,63,92,21,-33,-35,-49
-14,-92,-78,53,32,-84,82,134,57,-7,-24,-47
-14,-73,-59,44,22,-66,66,120,36,-13,-15,-40
0,-59,-59,30,30,-59,64,142,79,26,3,-28
-10,-72,-62,41,26,-67,55,124,85,14,11,-16
16,-42,-58,13,37,-50,44,150,120,38,32,0
38,-24,-62,-7,50,-43,38,161,135,64,44,12
59,-1,-59,-29,59,-30,26,168,165,110,71,29
80,14,-66,-47,73,-26,19,192,194,140,79,32
62,-2,-64,-30,63,-33,-6,202,223,184,119,62
102,37,-65,-69,84,-14,-26,219,263,230,162,92
129,65,-65,-97,97,0,-48,221,286,279,195,116
168,102,-66,-134,116,18,-77,229,313,326,240,152
198,137,-60,-167,129,38,-93,242,328,342,270,176
192,141,-51,-167,122,45,-108,233,317,336,294,189
175,137,-39,-156,107,49,-107,221,306,327,297,188
162,135,-27,-148,94,54,-98,209,293,318,285,194
144,135,-10,-139,76,62,-95,180,262,307,263,185
103,97,-6,-99,54,45,-87,145,213,265,218,158
114,113,-1,-113,57,56,-79,105,161,202,170,121
39,80,41,-59,-2,60,-55,68,103,131,106,63
-44,8,52,18,-48,30,-17,38,34,52,33,20
-57,-16,42,36,-49,13,7,12,-18,2,1,-19
-68,-27,41,47,-54,7,27,4,-38,-26,-20,-44
-69,-35,34,52,-52,-1,35,1,-56,-56,-44,-45
-100,-69,31,85,-65,-19,43,-3,-65,-66,-51,-44
-79,-53,27,66,-53,-13,51,-6,-57,-60,-55,-46
-67,-43,24,54,-45,-9,45,-10,-46,-55,-52,-50
-81,-60,22,71,-52,-19,43,-6,-42,-50,-46,-46
-65,-48,17,56,-41,-15,38,-1,-49,-43,-41,-39
-68,-51,17,59,-42,-17,35,2,-51,-42,-38,-35
-68,-58,9,63,-38,-24,39,8,-49,-48,-32,-27
-48,-52,-4,50,-22,-28,40,9,-52,-52,-31,-28
-58,-49,9,53,-33,-20,40,3,-48,-53,-40,-43
-62,-44,18,53,-40,-12,40,-3,-56,-60,-41,-46
-52,-39,12,45,-32,-13,41,-7,-82,-76,-46,-45
-65,-57,8,61,-36,-24,39,-14,-89,-83,-44,-50
-55,-53,2,54,-28,-26,35,-18,-92,-87,-46,-50
-40,-42,-3,41,-18,-22,35,-25,-96,-99,-62,-52
-61,-71,-11,66,-25,-41,35,-36,-106,-104,-66,-55
-83,-81,3,82,-43,-39,35,-40,-121,-113,-69,-55
-85,-68,18,76,-51,-25,35,-42,-119,-121,-72,-55
-82,-68,14,74,-48,-27,37,-45,-120,-119,-75,-55
-73,-57,16,64,-44,-20,36,-48,-119,-120,-75,-54
-70,-55,15,62,-42,-20,32,-51,-122,-120,-74,-60
-89,-74,15,81,-52,-29,30,-50,-126,-120,-84,-68
-89,-75,14,82,-51,-30,27,-50,-125,-124,-86,-65
-82,-73,10,78,-46,-31,24,-50,-125,-125,-85,-65
-86,-77,10,82,-48,-33,22,-50,-125,-125,-83,-65
-79,-74,5,76,-42,-34,19,-50,-124,-125,-79,-65
-80,-75,5,77,-42,-35,16,-52,-127,-126,-80,-65
-86,-77,9,81,-47,-33,14,-57,-134,-133,-76,-62
-78,-64,14,71,-46,-25,8,-54,-136,-139,-73,-57
-87,-84,3,85,-45,-40,17,-51,-137,-137,-69,-54
-89,-99,-10,94,-39,-54,37,-48,-134,-132,-66,-51
-72,-83,-11,77,-30,-47,33,-45,-131,-130,-60,-46
-71,-76,-5,74,-33,-40,29,-44,-128,-125,-62,-44
-66,-65,1,65,-34,-31,29,-37,-125,-122,-74,-39
-59,-55,5,57,-32,-25,22,-30,-123,-119,-66,-34
-52,-28,25,40,-38,-2,38,-24,-102,-106,-54,-29
-33,4,36,14,-35,20,41,-17,-85,-91,-44,-25
-23,35,58,-6,-41,46,25,-11,-85,-81,-29,-20
-46,38,84,3,-65,61,6,-22,-79,-79,-21,-17
-26,50,76,-13,-51,63,-48,-68,-80,-77,-11,-9
14,83,69,-49,-28,76,-67,-79,-73,-73,-4,-3
8,71,63,-39,-28,67,-64,-74,-77,-84,3,4
9,56,47,-32,-19,51,-60,-70,-96,-80,10,10
-26,-19,7,23,-17,-6,-18,-60,-113,-96,-27,-19
-81,-64,16,72,-48,-24,-5,-63,-112,-101,-51,-40
-93,-93,0,93,-46,-46,7,-44,-105,-107,-59,-54
-99,-108,-10,104,-44,-59,8,-59,-119,-110,-53,-46
-87,-103,-16,96,-35,-60,21,-29,-96,-94,-55,-52
-55,-101,-45,78,-5,-73,30,-55,-127,-123,-57,-49
-67,-90,-22,79,-22,-56,42,-20,-88,-80,-51,-48
-60,-139,-79,100,9,-108,64,15,-86,-119,-77,-78
-6,-25,-20,16,7,-22,109,305,251,99,-11,-35
166,74,-92,-120,128,-9,190,606,771,536,206,90
464,763,299,-614,82,531,-308,-397,728,1602,1176,765
410,1204,793,-808,-192,998,-769,-1303,232,1975,1606,1105
-21,308,329,-144,-175,318,-466,-1205,-847,91,386,354
-228,-114,114,171,-171,0,-216,-734,-942,-615,-228,-85
-139,-33,106,86,-122,36,-89,-170,-227,-122,-91,-71
-88,-95,-7,91,-40,-51,31,-15,-117,-146,-100,-77
-69,-99,-30,84,-19,-65,55,66,-12,-47,-50,-55
-50,-133,-83,92,17,-107,74,95,6,-81,-62,-64
-48,-102,-54,76,3,-78,69,94,19,-47,-38,-51
-33,-105,-71,70,19,-88,69,126,43,-30,-33,-50
-23,-86,-63,55,20,-74,60,114,48,-19,-24,-37
-5,-70,-65,38,30,-67,56,137,78,15,-10,-27
7,-63,-70,28,39,-66,50,145,81,31,-5,-18
13,-55,-69,21,41,-62,45,160,119,65,14,-6
27,-49,-76,11,52,-62,34,164,129,70,35,2
46,-29,-75,-8,61,-52,20,175,161,109,57,13
52,-29,-81,-11,67,-55,6,196,185,134,76,28
74,-6,-80,-34,77,-43,-5,211,221,181,119,60
95,15,-80,-55,87,-32,-18,223,259,232,154,87
147,67,-80,-107,114,-7,-50,239,295,282,195,124
208,117,-90,-162,149,13,-72,241,318,324,235,163
198,117,-81,-157,139,17,-93,231,313,342,264,172
190,127,-63,-158,127,31,-104,223,306,345,285,178
194,140,-54,-167,124,43,-99,214,291,336,288,188
188,143,-45,-165,116,49,-98,202,284,334,286,186
163,122,-41,-143,102,40,-95,184,265,311,267,169
129,107,-22,-117,75,42,-88,151,218,264,230,134
85,87,2,-86,41,45,-69,115,156,208,170,97
42,50,9,-46,16,29,-36,84,81,126,93,61
-2,12,14,-5,-9,13,-3,44,29,47,36,13
-56,-37,20,46,-38,-8,19,20,-6,-13,-12,-26
-70,-55,15,62,-42,-20,32,20,-37,-36,-45,-45
-84,-69,15,76,-49,-26,44,16,-47,-39,-51,-53
-83,-70,14,76,-48,-28,51,14,-46,-52,-55,-54
-67,-57,10,62,-38,-23,50,10,-41,-48,-59,-51
-70,-60,10,65,-40,-25,50,11,-39,-45,-60,-50
-68,-60,8,64,-38,-26,50,15,-35,-43,-60,-49
-76,-76,1,76,-38,-37,50,15,-30,-39,-59,-44
-66,-71,-5,68,-30,-38,50,15,-32,-43,-61,-45
-75,-68,7,72,-40,-31,50,15,-37,-46,-58,-45
-90,-80,10,84,-50,-34,50,15,-40,-51,-55,-45
-74,-75,-1,74,-36,-37,50,11,-48,-54,-55,-45
-82,-86,-4,84,-39,-45,50,4,-64,-50,-53,-45
-74,-92,-18,83,-28,-55,50,0,-71,-53,-50,-45
-57,-88,-31,73,-13,-60,50,-6,-76,-68,-49,-46
-64,-92,-28,78,-18,-60,50,-11,-83,-85,-67,-58
-66,-88,-22,78,-22,-55,50,-16,-88,-93,-77,-61
-74,-93,-19,83,-27,-56,50,-21,-98,-96,-74,-60
-81,-94,-13,88,-33,-53,50,-25,-105,-100,-79,-60
-86,-96,-10,91,-38,-53,46,-30,-107,-106,-80,-61
-73,-99,-26,86,-23,-62,45,-30,-110,-113,-81,-59
-69,-100,-31,85,-19,-65,45,-32,-112,-114,-84,-57
-92,-115,-23,104,-35,-68,40,-36,-116,-114,-87,-65
-73,-92,-19,83,-27,-55,40,-35,-115,-116,-90,-66
-60,-73,-13,67,-23,-43,40,-35,-114,-114,-92,-64
-70,-76,-6,73,-31,-40,40,-36,-116,-111,-95,-61
-65,-77,-12,71,-26,-44,40,-34,-114,-109,-95,-60
-73,-94,-22,83,-25,-58,40,-37,-117,-111,-95,-60
-79,-96,-16,88,-31,-56,40,-41,-128,-120,-95,-60
-76,-89,-13,83,-31,-51,40,-48,-129,-126,-94,-60
-80,-91,-11,85,-35,-50,36,-58,-124,-125,-91,-60
-79,-82,-3,81,-37,-43,35,-50,-125,-125,-88,-60
-73,-88,-15,81,-29,-51,35,-42,-125,-125,-86,-60
-79,-104,-25,92,-27,-65,35,-35,-125,-125,-82,-72
-82,-96,-14,89,-34,-55,35,-27,-125,-122,-80,-73
-75,-83,-8,79,-33,-45,35,-25,-122,-119,-78,-63
-76,-75,1,75,-38,-37,52,-21,-116,-116,-71,-59
-61,-53,8,56,-34,-22,55,-19,-113,-111,-64,-50
-35,-13,21,24,-28,4,63,-9,-106,-108,-61,-46
-29,12,41,8,-36,27,61,6,-85,-103,-60,-45
-17,29,46,-6,-32,37,30,10,-56,-96,-60,-45
-53,16,69,18,-61,42,-12,-33,-64,-94,-61,-46
-24,35,59,-6,-42,47,-46,-56,-94,-86,-58,-41
50,78,29,-65,10,53,-38,-48,-94,-95,-62,-41
-4,35,39,-16,-22,37,-24,-45,-90,-84,-56,-34
-40,-52,-12,46,-14,-32,-8,-32,-111,-96,-65,-39
-65,-86,-21,76,-22,-53,3,-36,-119,-109,-71,-47
-75,-96,-21,86,-27,-59,20,-14,-108,-108,-80,-55
-57,-102,-45,79,-5,-73,35,-32,-121,-130,-92,-65
-69,-115,-46,92,-11,-80,53,-7,-97,-110,-95,-73
-56,-106,-50,81,-3,-78,52,-32,-123,-134,-104,-79
-77,-97,-20,88,-28,-58,57,-13,-92,-85,-93,-79
-60,-143,-83,102,12,-113,81,38,-93,-137,-124,-87
0,-28,-28,14,14,-27,124,292,217,53,-61,-58
138,25,-112,-81,125,-44,211,635,758,496,142,43
439,668,229,-554,105,448,-234,-249,724,1493,1050,683
415,1197,782,-807,-183,989,-720,-1223,255,1995,1571,1079
-18,352,370,-168,-194,361,-459,-1216,-817,172,397,358
-216,-117,99,166,-157,-9,-189,-756,-1002,-684,-290,-126
-141,-58,83,99,-112,13,-85,-185,-268,-162,-143,-99
-70,-104,-34,87,-18,-68,36,-17,-138,-195,-161,-113
-52,-109,-57,81,3,-83,76,83,-20,-103,-115,-93
-65,-154,-89,110,12,-121,83,114,15,-107,-119,-99
-22,-102,-80,63,29,-91,78,98,16,-68,-91,-86
-12,-113,-102,63,45,-107,83,137,50,-46,-77,-81
-45,-116,-71,81,14,-94,77,122,37,-48,-74,-76
-49,-125,-76,87,14,-100,72,152,85,-10,-67,-64
-19,-107,-88,63,35,-98,69,167,94,-13,-53,-57
15,-65,-81,26,48,-73,63,174,119,25,-24,-41
21,-62,-82,20,52,-72,61,180,138,39,-22,-30
32,-45,-77,7,54,-61,48,188,161,74,8,-5
45,-29,-73,-7,60,-51,32,201,197,113,39,23
90,3,-86,-46,88,-41,16,208,223,155,57,29
151,54,-97,-102,124,-22,3,228,262,207,101,61
148,66,-82,-107,115,-8,-21,242,295,255,141,95
141,65,-76,-103,108,-5,-63,234,303,289,174,106
180,110,-70,-145,125,20,-87,226,318,315,209,131
174,112,-62,-143,118,25,-94,217,298,314,216,141
174,118,-56,-146,115,31,-96,208,278,311,225,150
186,136,-50,-161,117,43,-94,198,265,307,217,147
175,134,-41,-155,108,46,-96,173,236,269,190,130
166,142,-24,-154,95,58,-84,142,193,218,165,117
99,98,-1,-98,49,48,-51,113,141,164,108,80
31,39,8,-35,11,24,-24,78,81,80,26,14
-22,-2,20,12,-21,9,11,52,18,10,-31,-31
-74,-43,31,58,-52,-6,38,35,-18,-39,-68,-53
-80,-57,23,68,-51,-17,55,23,-59,-86,-100,-80
-72,-53,19,62,-45,-17,76,25,-80,-102,-112,-87
-80,-67,12,73,-46,-27,73,25,-74,-106,-115,-84
-93,-84,8,88,-50,-38,70,25,-71,-104,-115,-86
-82,-81,0,81,-41,-40,68,25,-65,-100,-112,-84
-58,-67,-9,63,-24,-38,64,25,-62,-98,-110,-86
-38,-58,-21,48,-8,-39,63,22,-55,-94,-110,-90
-44,-56,-12,50,-16,-34,59,19,-57,-98,-114,-95
-56,-44,12,49,-33,-16,61,20,-61,-101,-115,-99
-62,-60,2,61,-32,-29,56,20,-66,-106,-115,-100
-80,-87,-8,84,-36,-47,55,20,-70,-111,-120,-100
-63,-85,-22,74,-20,-53,55,19,-76,-113,-120,-100
-66,-84,-17,75,-24,-50,50,14,-86,-131,-121,-100
-80,-80,-1,80,-39,-40,51,9,-94,-142,-130,-100
-54,-79,-25,67,-15,-52,48,4,-116,-146,-139,-100
-51,-83,-32,67,-9,-57,45,0,-125,-150,-140,-95
-61,-85,-24,73,-18,-54,45,-5,-126,-161,-140,-95
-61,-86,-25,74,-18,-55,47,-9,-133,-180,-140,-95
-71,-87,-17,79,-27,-52,51,-15,-134,-182,-139,-95
-75,-92,-17,84,-29,-54,49,-21,-139,-184,-142,-95
-78,-88,-9,83,-34,-48,51,-26,-142,-188,-144,-96
-85,-93,-8,89,-38,-50,48,-30,-145,-189,-146,-108
-64,-97,-33,81,-15,-65,55,-20,-149,-193,-143,-111
-58,-93,-35,76,-11,-64,65,-27,-150,-195,-152,-110
-59,-88,-29,73,-15,-58,55,-47,-150,-195,-165,-115
-64,-89,-26,77,-19,-57,50,-43,-149,-195,-159,-115
-91,-111,-20,101,-36,-65,42,-41,-152,-195,-153,-115
-85,-109,-24,97,-30,-66,36,-37,-155,-194,-148,-115
-73,-98,-25,86,-24,-61,39,-35,-155,-190,-142,-115
-66,-92,-25,80,-20,-58,40,-33,-155,-190,-138,-115
-60,-83,-23,72,-18,-53,41,-29,-155,-190,-133,-115
-60,-80,-20,70,-20,-50,38,-28,-156,-190,-130,-116
-63,-75,-13,69,-25,-44,46,-22,-149,-192,-127,-108
-67,-82,-15,75,-26,-48,55,-23,-132,-186,-123,-93
-68,-49,19,58,-43,-15,54,-16,-121,-172,-119,-80
-80,-14,66,46,-72,26,47,-20,-119,-157,-114,-72
-69,-3,66,36,-67,31,49,-2,-117,-150,-108,-66
-34,42,76,-4,-56,59,28,2,-114,-148,-102,-59
-33,49,83,-8,-58,66,-32,-58,-116,-146,-98,-52
-23,51,74,-14,-49,62,-39,-59,-109,-145,-91,-53
30,87,56,-59,-13,71,-24,-51,-110,-154,-92,-56
1,39,38,-21,-19,38,-22,-52,-112,-150,-88,-53
-56,-59,-3,57,-26,-31,-6,-39,-128,-161,-93,-58
-51,-70,-19,61,-16,-44,-4,-47,-140,-159,-108,-69
-61,-91,-30,77,-15,-60,14,-25,-127,-164,-129,-88
-73,-106,-33,90,-20,-69,16,-41,-146,-177,-131,-82
-78,-110,-32,94,-23,-70,31,-9,-120,-157,-129,-88
-64,-112,-49,88,-7,-80,31,-32,-153,-189,-131,-83
-38,-90,-52,64,7,-71,23,1,-113,-144,-115,-86
-31,-123,-93,77,31,-108,67,34,-87,-174,-134,-98
-13,-27,-14,20,1,-20,116,280,217,41,-76,-59
156,48,-108,-102,132,-30,189,596,747,498,149,48
417,738,320,-578,48,529,-256,-314,673,1496,1063,686
348,1195,847,-772,-250,1020,-707,-1215,111,1857,1483,1016
-50,311,361,-131,-206,336,-427,-1164,-926,21,307,300
-234,-112,121,173,-178,4,-193,-732,-1006,-702,-306,-129
-161,-65,96,113,-129,15,-94,-187,-283,-182,-154,-98
-101,-110,-9,105,-46,-59,24,-28,-161,-201,-162,-101
-53,-77,-24,66,-15,-51,52,61,-33,-79,-92,-68
-39,-123,-84,82,23,-104,74,98,-8,-92,-96,-69
-21,-85,-64,54,22,-75,67,94,-3,-71,-83,-60
-5,-87,-82,47,38,-84,67,109,31,-63,-81,-56
-9,-81,-72,45,32,-76,62,99,23,-55,-77,-50
1,-74,-75,37,39,-74,58,128,75,-16,-49,-44
10,-67,-76,29,43,-71,56,134,84,-1,-41,-39
19,-53,-72,17,46,-62,48,154,110,39,-22,-27
24,-48,-72,13,48,-60,37,160,129,50,9,-16
13,-41,-55,14,34,-48,25,163,151,91,28,0
51,-21,-71,-15,61,-46,8,176,174,115,44,27
111,43,-68,-77,89,-12,-11,194,212,162,87,43
114,45,-69,-79,91,-12,-34,207,245,210,123,61
156,68,-88,-112,122,-10,-55,213,273,266,176,108
198,117,-81,-157,139,18,-77,210,287,302,205,137
187,109,-78,-148,132,16,-106,203,274,322,235,153
199,130,-69,-164,134,30,-111,199,274,322,257,168
211,149,-62,-180,137,43,-111,192,265,308,242,167
194,138,-57,-165,125,40,-107,185,260,304,261,165
170,132,-38,-151,104,47,-102,158,243,277,231,165
134,116,-18,-125,76,49,-98,128,193,244,204,135
86,83,-3,-85,44,40,-70,94,144,168,131,81
42,48,6,-45,18,27,-37,55,69,115,77,34
-6,22,28,-8,-18,25,-8,61,12,13,8,-11
-33,-5,28,18,-30,11,8,72,-46,-9,-61,-45
-59,-41,18,50,-38,-12,28,76,-31,-62,171,-57
-80,-72,8,76,-44,-31,42,92,-4,-181,132,-54
-69,-87,-18,78,-25,-52,30,104,-6,-97,-75,-38
