I,II,III,aVR,aVL,aVF,V1,V2,V3,V4,V5,V6
-124,-140,-15,133,-55,-77,-20,-65,-95,-125,-100,-65
-119,-132,-13,126,-53,-73,-20,-65,-95,-125,-100,-65
-115,-122,-7,119,-54,-64,-20,-68,-98,-125,-100,-65
-109,-113,-4,111,-52,-58,-24,-71,-101,-128,-100,-61
-105,-103,2,104,-53,-50,-25,-74,-105,-131,-100,-60
-121,-116,4,118,-62,-56,-25,-75,-104,-129,-99,-59
-126,-125,1,125,-63,-62,-25,-70,-101,-126,-96,-56
-113,-115,-2,114,-55,-58,-25,-70,-98,-123,-93,-53
-105,-110,-5,108,-50,-57,-25,-69,-95,-120,-90,-50
-94,-102,-8,98,-43,-55,-25,-65,-92,-117,-87,-48
-86,-96,-10,91,-38,-53,-25,-65,-90,-114,-85,-44
-81,-92,-12,87,-34,-52,-23,-65,-90,-118,-85,-48
-72,-89,-17,81,-27,-53,-19,-65,-90,-120,-85,-50
-66,-86,-19,76,-23,-52,-20,-65,-90,-120,-85,-50
-65,-81,-16,74,-24,-48,-16,-65,-90,-120,-85,-54
-66,-79,-13,73,-26,-45,-15,-65,-90,-120,-85,-55
-60,-71,-10,66,-25,-41,-15,-65,-90,-119,-85,-54
-57,-64,-7,61,-24,-35,-10,-60,-85,-115,-80,-50
-53,-58,-4,56,-24,-31,-10,-60,-85,-115,-80,-50
-43,-51,-7,47,-18,-29,-9,-59,-84,-115,-80,-49
-34,-44,-10,39,-12,-27,-5,-55,-80,-115,-80,-44
-26,-37,-11,32,-7,-24,-5,-55,-80,-115,-80,-46
-16,-32,-15,24,0,-23,-3,-53,-77,-112,-77,-42
-7,-23,-15,16,4,-19,0,-49,-74,-109,-75,-39
-20,-24,-3,22,-8,-13,3,-50,-75,-110,-75,-40
-32,-31,2,31,-17,-15,6,-50,-75,-106,-75,-40
-29,-30,-1,30,-14,-15,9,-50,-75,-105,-75,-40
-29,-29,0,29,-15,-14,10,-50,-74,-105,-74,-39
-24,-25,0,25,-12,-12,10,-45,-70,-100,-71,-36
-26,-25,0,25,-12,-12,10,-45,-70,-100,-68,-33
-21,-23,-2,22,-9,-12,10,-44,-70,-99,-65,-30
-12,-19,-7,16,-3,-12,10,-40,-70,-95,-62,-27
-11,-21,-10,16,0,-15,10,-40,-70,-95,-60,-25
-2,-16,-13,10,6,-14,13,-37,-67,-97,-60,-25
3,-15,-18,6,11,-16,15,-35,-64,-100,-60,-25
6,-15,-20,4,13,-17,15,-35,-65,-100,-60,-25
10,-10,-20,0,15,-15,15,-35,-65,-100,-60,-25
10,-11,-21,0,15,-16,15,-35,-65,-100,-60,-25
11,-8,-19,-2,15,-13,15,-35,-65,-100,-60,-25
15,-6,-21,-4,19,-13,10,-35,-60,-100,-60,-25
16,-2,-18,-7,17,-9,10,-35,-60,-100,-60,-25
5,-23,-28,9,17,-25,9,-35,-59,-100,-60,-25
-2,-48,-46,25,23,-47,5,-35,-54,-100,-60,-25
2,-39,-41,18,22,-40,5,-35,-56,-99,-59,-25
3,-36,-38,16,21,-37,7,-32,-52,-102,-62,-27
3,-32,-35,15,19,-33,10,-29,-50,-105,-65,-30
5,-25,-30,10,18,-27,13,-30,-50,-105,-65,-30
0,-28,-28,14,14,-27,16,-26,-46,-105,-65,-30
-6,-30,-24,18,9,-27,19,-25,-44,-105,-65,-30
-5,-30,-26,18,10,-27,20,-25,-46,-104,-64,-30
-5,-30,-25,18,10,-27,20,-20,-49,-101,-61,-30
-5,-30,-25,18,10,-27,20,-20,-50,-100,-60,-30
-5,-30,-25,18,10,-26,20,-20,-50,-100,-60,-30
-4,-23,-20,14,8,-21,20,-19,-50,-100,-59,-29
0,-12,-12,6,7,-12,19,-21,-51,-100,-61,-31
3,-3,-6,1,5,-5,23,-16,-46,-98,-57,-27
9,10,1,-10,4,5,33,-2,-32,-88,-49,-20
26,33,7,-30,9,20,47,14,-17,-79,-43,-11
34,47,14,-40,10,30,70,18,-10,-62,-35,-3
32,59,27,-45,2,42,91,31,2,-48,-31,4
58,70,12,-64,23,41,103,54,21,-43,-29,16
64,44,-20,-54,41,12,78,48,18,-40,-30,11
31,-1,-32,-15,31,-16,32,9,-17,-67,-35,-2
30,-18,-48,-6,39,-33,35,8,-51,-98,-59,-14
13,-31,-45,9,29,-38,23,-24,-83,-117,-86,-25
-25,-64,-39,44,8,-51,24,-37,-83,-126,-92,-36
-26,-63,-37,45,6,-50,19,-54,-100,-140,-98,-49
-28,-56,-28,42,-1,-42,10,-54,-97,-138,-97,-53
-34,-66,-33,50,-1,-49,32,-36,-89,-161,-109,-58
-32,-46,-14,39,-9,-29,2,-83,-107,-145,-99,-50
-37,-68,-31,52,-3,-49,45,-12,-68,-152,-113,-61
-33,-40,-7,36,-12,-23,-14,-110,-122,-153,-105,-50
-52,-86,-34,69,-9,-60,92,66,-40,-147,-130,-91
-136,-111,25,124,-81,-43,262,103,-89,-279,-264,-162
-89,-63,25,76,-57,-19,450,616,280,-125,-239,-157
347,303,-44,-325,195,129,-11,468,763,575,351,222
765,1123,358,-944,203,740,-1392,-1852,139,2124,1570,1006
622,827,205,-724,208,515,-1364,-2334,-682,1931,1632,1027
193,-119,-313,-37,253,-216,-764,-1586,-1255,-206,401,363
37,-233,-270,98,154,-251,-552,-1027,-895,-472,-62,71
44,-86,-130,21,87,-108,-120,-234,-240,-98,-19,21
-20,-46,-27,33,4,-36,-10,-104,-144,-147,-56,-7
-22,-49,-27,36,3,-38,65,21,-29,-56,-61,-32
-16,-43,-28,30,6,-35,94,47,-30,-108,-84,-51
-18,-34,-16,26,-1,-24,100,80,12,-63,-68,-48
-13,-35,-22,24,4,-28,112,118,32,-81,-74,-51
-11,-20,-9,16,-1,-14,98,111,29,-65,-66,-49
7,-7,-14,0,11,-10,111,137,51,-61,-65,-51
9,4,-5,-7,7,0,100,120,50,-59,-63,-49
12,6,-6,-8,9,0,106,138,67,-46,-53,-43
15,13,-1,-14,8,6,98,133,69,-37,-49,-38
18,18,0,-18,9,9,101,149,88,-4,-40,-32
20,23,3,-22,8,13,96,163,109,0,-34,-26
36,45,10,-41,13,27,94,179,133,13,-23,-22
48,61,13,-55,17,37,95,191,152,27,-16,-15
46,64,18,-55,14,41,90,204,168,46,-5,-7
48,70,22,-59,13,46,89,229,195,72,10,1
54,80,27,-67,13,53,86,258,229,100,31,9
58,88,30,-73,14,59,82,296,266,142,60,16
74,110,36,-92,18,73,80,335,308,178,86,40
91,145,54,-118,18,99,77,374,352,213,116,60
109,178,69,-143,20,123,69,412,403,270,159,90
139,216,76,-178,31,146,63,454,452,329,208,123
171,260,89,-216,41,174,55,489,503,399,260,152
202,302,100,-252,51,201,47,516,543,469,319,191
217,337,120,-277,48,229,41,525,576,528,371,218
228,360,132,-294,47,246,29,515,594,580,426,248
264,386,122,-325,70,254,15,502,581,596,440,263
274,383,108,-329,82,246,2,435,537,592,427,259
243,338,95,-291,74,216,-6,334,455,553,410,237
207,286,78,-247,64,182,-13,242,365,476,339,193
151,205,53,-178,48,129,-19,166,268,365,251,142
101,129,28,-115,37,78,-11,115,178,240,162,90
70,85,14,-78,28,49,2,76,110,141,77,46
42,49,7,-46,17,28,12,63,62,69,24,8
23,21,-3,-22,13,9,23,66,45,27,1,-15
1,-7,-9,3,5,-8,32,62,40,5,-23,-20
-11,-22,-11,16,0,-16,42,60,31,-5,-40,-25
-11,-25,-14,19,1,-20,45,60,25,-15,-39,-31
-17,-33,-17,25,0,-25,45,56,17,-25,-41,-37
-13,-33,-20,23,4,-26,45,55,12,-35,-39,-40
-10,-29,-19,19,5,-24,45,55,9,-44,-42,-40
-10,-25,-15,18,3,-20,45,50,6,-46,-45,-40
-7,-22,-15,15,4,-18,42,50,3,-48,-45,-40
-7,-18,-11,13,2,-14,39,49,0,-53,-50,-40
-5,-13,-8,9,2,-10,40,40,-1,-53,-50,-40
-10,-37,-27,24,9,-32,36,30,-10,-60,-54,-43
-16,-53,-37,35,10,-44,35,21,-19,-74,-61,-46
-19,-49,-30,34,5,-39,35,14,-27,-77,-66,-44
-22,-51,-28,37,3,-39,30,7,-38,-80,-72,-47
-27,-50,-23,39,-2,-36,30,1,-44,-83,-76,-58
-30,-50,-20,40,-5,-35,29,-6,-51,-89,-79,-61
-27,-47,-20,37,-3,-33,25,-12,-58,-95,-84,-60
-24,-44,-20,34,-1,-31,25,-15,-64,-95,-85,-60
-27,-47,-20,37,-3,-33,27,-17,-69,-95,-86,-60
-37,-57,-20,47,-8,-38,31,-20,-70,-95,-89,-59
-39,-59,-20,49,-9,-39,30,-23,-71,-95,-91,-55
-35,-53,-18,44,-8,-35,30,-26,-74,-97,-88,-52
-43,-57,-14,50,-14,-35,30,-30,-76,-105,-85,-50
-50,-53,-4,52,-23,-28,30,-29,-73,-109,-85,-46
-37,-58,-21,48,-8,-39,35,-25,-70,-106,-85,-45
-36,-74,-38,55,1,-56,35,-25,-70,-103,-85,-50
-41,-70,-29,56,-6,-50,35,-25,-70,-100,-85,-50
-40,-65,-25,53,-7,-45,35,-25,-70,-98,-89,-50
-40,-59,-20,50,-10,-39,35,-25,-70,-94,-90,-50
-41,-54,-13,48,-14,-33,35,-29,-73,-99,-90,-50
-38,-49,-12,44,-13,-30,35,-30,-76,-106,-94,-50
-36,-53,-17,44,-10,-34,35,-30,-79,-104,-96,-50
-51,-74,-23,62,-13,-48,35,-30,-82,-108,-93,-50
-44,-72,-28,58,-8,-51,35,-30,-85,-110,-90,-50
-34,-65,-31,50,-2,-47,35,-29,-85,-110,-90,-50
-35,-64,-30,49,-2,-47,30,-25,-85,-113,-90,-50
-25,-55,-30,40,3,-42,30,-25,-85,-116,-90,-50
-29,-59,-30,44,1,-44,29,-25,-85,-119,-90,-50
-35,-64,-29,50,-2,-46,25,-25,-85,-122,-90,-50
-38,-70,-32,54,-2,-51,25,-25,-85,-125,-90,-50
-44,-80,-36,62,-4,-57,23,-29,-85,-125,-90,-50
-42,-74,-31,58,-5,-52,19,-36,-85,-125,-90,-51
-40,-68,-28,54,-6,-48,17,-42,-84,-125,-90,-54
-39,-63,-25,52,-7,-44,14,-45,-86,-125,-91,-57
-36,-56,-21,46,-7,-38,11,-45,-90,-125,-95,-60
-40,-58,-18,49,-11,-37,9,-45,-90,-125,-95,-62
-45,-60,-15,53,-15,-37,6,-45,-90,-129,-95,-66
-48,-60,-12,54,-18,-36,5,-45,-90,-134,-95,-62
-51,-60,-9,55,-21,-34,5,-42,-93,-138,-95,-60
-54,-60,-6,58,-24,-32,5,-39,-97,-140,-95,-60
-55,-60,-5,58,-25,-32,5,-40,-100,-140,-95,-56
-43,-55,-12,49,-15,-33,5,-40,-100,-140,-95,-55
-33,-56,-22,45,-5,-39,5,-41,-100,-140,-95,-56
-21,-53,-33,37,6,-43,5,-39,-100,-140,-95,-59
-15,-51,-35,33,10,-42,5,-35,-100,-140,-94,-63
-14,-49,-35,32,10,-41,5,-35,-96,-136,-90,-66
-14,-53,-39,34,12,-45,6,-33,-95,-135,-90,-70
-28,-68,-40,48,6,-54,9,-30,-95,-135,-90,-68
-27,-66,-40,46,7,-52,11,-30,-90,-135,-90,-64
-23,-59,-35,42,6,-47,7,-34,-90,-135,-90,-62
-20,-56,-35,39,8,-45,5,-38,-89,-135,-90,-59
-13,-47,-34,30,11,-40,5,-43,-85,-135,-90,-56
-19,-49,-30,34,6,-39,1,-44,-85,-135,-90,-54
-26,-56,-30,41,3,-43,-1,-40,-85,-135,-90,-51
-27,-55,-28,41,1,-41,1,-38,-85,-135,-90,-49
-31,-55,-24,43,-3,-40,5,-35,-85,-135,-88,-50
-28,-50,-22,39,-3,-36,12,-32,-81,-131,-85,-49
-32,-51,-19,41,-6,-35,15,-30,-74,-124,-82,-51
-32,-48,-16,40,-8,-31,23,-26,-68,-118,-80,-47
-13,-28,-15,21,1,-21,27,-14,-60,-111,-77,-39
-22,-21,1,22,-11,-10,35,-8,-55,-105,-76,-30
-17,6,23,5,-20,14,56,3,-40,-91,-64,-21
19,40,22,-30,-2,31,70,26,-31,-81,-38,-19
31,41,10,-37,10,25,66,29,-28,-79,-25,-21
12,9,-4,-10,8,3,30,4,-23,-80,-37,-19
-26,-37,-11,32,-7,-24,-17,-40,-62,-110,-67,-25
-37,-62,-24,50,-6,-43,-17,-48,-87,-142,-98,-47
-51,-81,-30,67,-10,-56,-25,-66,-105,-151,-105,-58
-73,-106,-32,90,-20,-69,-14,-53,-107,-154,-108,-64
-70,-100,-29,85,-20,-64,-21,-85,-126,-171,-113,-69
-88,-116,-28,102,-30,-71,-12,-65,-110,-166,-112,-69
-95,-124,-29,110,-34,-76,-13,-82,-118,-192,-123,-72
-90,-108,-18,100,-35,-63,-16,-88,-113,-167,-114,-67
-90,-124,-34,107,-28,-79,13,-44,-98,-192,-127,-75
-89,-92,-3,90,-43,-47,-33,-105,-129,-171,-111,-64
-108,-143,-35,126,-36,-89,103,75,-60,-201,-167,-116
-165,-132,33,148,-99,-49,245,98,-124,-324,-288,-182
-68,-67,1,67,-35,-33,429,735,411,-75,-182,-138
401,452,51,-426,174,251,-399,-88,625,837,577,369
726,1177,451,-952,137,813,-1602,-2300,-161,2299,1715,1100
460,565,106,-512,177,335,-1214,-2191,-889,1478,1383,890
89,-267,-355,89,222,-311,-790,-1530,-1303,-461,208,248
12,-221,-234,105,123,-227,-495,-833,-729,-342,-28,70
4,-110,-114,53,59,-112,-84,-178,-207,-119,-18,13
-24,-63,-39,44,8,-51,-27,-113,-147,-150,-61,-30
-21,-54,-33,38,6,-43,58,17,-36,-87,-66,-52
-28,-50,-22,39,-3,-35,59,3,-46,-124,-95,-57
-27,-43,-16,35,-5,-29,87,74,9,-68,-76,-53
-33,-42,-10,38,-11,-26,86,85,9,-95,-84,-57
-38,-33,5,36,-21,-14,82,94,25,-66,-73,-53
-43,-33,10,38,-27,-11,88,106,33,-72,-73,-56
-45,-23,22,34,-33,0,75,100,38,-61,-69,-49
-40,-21,18,30,-29,-1,79,115,58,-47,-60,-44
-36,-14,22,25,-29,4,70,109,62,-34,-51,-38
-34,-9,25,21,-29,8,70,126,80,-17,-39,-32
-28,-4,24,15,-26,10,64,137,91,-10,-31,-27
-16,11,28,2,-22,19,69,163,119,8,-20,-17
-2,28,30,-13,-16,29,70,178,142,27,-9,-7
9,39,30,-24,-11,34,71,201,167,53,13,2
11,46,35,-29,-13,40,80,230,198,80,29,13
22,61,39,-41,-9,50,83,259,230,114,47,22
31,75,44,-53,-6,59,86,308,278,153,73,34
57,105,47,-81,5,76,90,354,326,198,99,55
80,138,58,-109,10,98,88,401,375,240,137,78
89,168,78,-129,5,122,83,455,424,298,179,108
125,211,86,-169,19,148,80,504,477,364,222,133
156,251,95,-203,30,172,77,544,528,430,274,157
190,295,105,-242,42,200,72,581,577,503,335,196
215,330,115,-273,50,222,70,602,615,568,394,237
227,350,123,-289,51,236,59,596,604,605,437,265
243,358,115,-301,64,237,42,548,590,602,445,262
237,343,105,-290,66,224,26,451,551,587,436,248
221,310,89,-266,66,199,15,339,459,554,412,242
186,252,67,-219,59,159,3,243,360,465,343,213
120,176,56,-149,32,116,-8,160,257,345,240,158
67,116,49,-92,9,82,-4,98,169,234,159,105
27,71,43,-49,-9,57,5,54,98,135,85,59
2,30,29,-16,-14,29,10,34,47,70,21,27
9,11,2,-10,3,7,19,36,34,37,-1,13
9,3,-6,-6,7,-1,32,33,33,14,-13,0
-4,-8,-4,6,1,-6,39,40,29,5,-17,-6
-9,-17,-8,13,-1,-12,45,51,27,-3,-22,-5
-10,-21,-10,16,0,-15,50,49,24,-13,-29,-5
-10,-20,-10,15,0,-15,50,50,22,-21,-33,-5
-11,-21,-10,16,0,-15,50,50,17,-26,-39,-5
-15,-25,-10,20,-2,-17,50,50,14,-28,-40,-8
-20,-30,-10,25,-5,-20,50,48,10,-32,-41,-11
-23,-33,-10,28,-6,-21,48,37,6,-35,-45,-14
-28,-38,-10,33,-9,-23,44,29,3,-39,-45,-17
-30,-41,-11,35,-9,-26,45,20,-5,-47,-46,-19
-27,-44,-17,36,-4,-30,41,10,-13,-50,-53,-22
-23,-48,-24,36,1,-36,40,5,-22,-53,-59,-25
-20,-51,-31,36,5,-41,40,1,-30,-55,-64,-25
-17,-55,-38,36,11,-46,35,-2,-36,-59,-65,-27
-11,-55,-44,33,17,-49,35,-6,-41,-71,-65,-31
-11,-56,-45,34,17,-51,34,-9,-47,-75,-70,-30
-15,-60,-45,38,15,-52,30,-12,-54,-78,-70,-27
-15,-60,-45,38,15,-52,30,-18,-59,-86,-71,-25
-15,-60,-45,38,15,-52,28,-22,-60,-90,-75,-25
-16,-60,-44,38,14,-51,24,-25,-60,-90,-74,-25
-22,-60,-39,41,9,-49,22,-30,-65,-90,-78,-25
-26,-59,-33,43,4,-46,19,-30,-65,-90,-80,-26
-31,-61,-30,46,-1,-45,16,-33,-66,-94,-80,-30
-34,-59,-25,47,-4,-42,14,-35,-72,-95,-84,-35
-42,-62,-20,52,-10,-41,11,-35,-75,-95,-85,-38
-55,-75,-20,65,-17,-47,8,-35,-79,-100,-85,-41
-50,-70,-20,60,-15,-44,5,-35,-84,-99,-85,-44
-45,-66,-20,55,-12,-43,2,-41,-85,-102,-85,-47
-42,-61,-19,51,-11,-40,-1,-45,-85,-106,-85,-50
-36,-57,-21,46,-7,-38,2,-45,-85,-105,-85,-49
-33,-52,-20,42,-6,-36,6,-45,-85,-105,-85,-54
-29,-49,-20,39,-5,-35,5,-45,-85,-105,-85,-59
-36,-74,-38,55,1,-55,5,-45,-85,-105,-85,-55
-44,-79,-34,62,-5,-56,5,-46,-85,-106,-85,-55
-53,-70,-16,62,-18,-43,6,-49,-85,-112,-81,-55
-56,-67,-11,61,-22,-38,9,-50,-85,-115,-80,-55
-50,-59,-10,54,-20,-34,10,-50,-85,-115,-80,-55
-45,-55,-10,50,-17,-32,10,-50,-89,-115,-75,-59
-40,-50,-10,45,-15,-30,10,-50,-90,-115,-75,-60
-40,-50,-10,45,-15,-30,10,-47,-90,-115,-76,-60
-38,-50,-13,44,-13,-31,8,-45,-90,-113,-80,-60
-34,-50,-15,43,-9,-32,5,-45,-90,-110,-85,-60
-36,-50,-15,43,-10,-32,5,-41,-89,-110,-81,-59
-31,-50,-19,41,-6,-34,5,-39,-84,-110,-80,-55
-30,-50,-20,40,-5,-35,5,-41,-86,-110,-80,-55
-29,-50,-20,40,-5,-35,6,-44,-82,-110,-76,-53
-26,-50,-24,38,-1,-37,9,-45,-80,-114,-74,-49
-23,-50,-27,37,2,-38,14,-45,-80,-115,-76,-50
-20,-50,-30,35,5,-40,16,-45,-77,-115,-80,-50
-17,-50,-32,34,8,-41,21,-45,-74,-115,-80,-50
-16,-52,-36,35,10,-43,25,-45,-71,-115,-82,-50
-18,-51,-33,35,7,-42,23,-45,-68,-113,-86,-50
-24,-50,-26,37,1,-38,19,-45,-65,-110,-85,-50
-28,-49,-21,39,-3,-35,17,-45,-66,-110,-85,-51
-28,-44,-16,36,-6,-30,14,-45,-70,-110,-85,-55
-36,-46,-9,41,-13,-27,11,-45,-70,-110,-85,-55
-36,-42,-6,40,-15,-24,10,-40,-66,-110,-85,-55
-31,-40,-9,36,-11,-24,10,-40,-65,-113,-85,-55
-43,-55,-12,49,-16,-33,10,-39,-65,-115,-84,-55
-47,-61,-15,55,-16,-37,10,-35,-61,-115,-80,-55
-42,-59,-18,51,-12,-38,10,-35,-59,-115,-80,-55
-40,-61,-21,50,-10,-41,10,-35,-62,-115,-80,-55
-41,-59,-18,50,-12,-38,12,-35,-65,-115,-80,-55
-42,-56,-14,50,-13,-35,20,-35,-68,-115,-80,-55
-37,-53,-15,46,-11,-34,24,-35,-70,-115,-76,-55
-39,-51,-11,45,-14,-31,21,-35,-73,-115,-75,-55
-37,-47,-10,42,-14,-28,16,-35,-75,-115,-75,-55
-35,-45,-10,40,-11,-27,14,-35,-75,-115,-75,-55
-37,-46,-9,42,-14,-27,9,-35,-75,-115,-74,-55
-46,-60,-14,53,-16,-37,5,-35,-75,-115,-77,-55
-58,-71,-14,65,-22,-42,5,-35,-75,-115,-87,-51
-48,-53,-5,51,-22,-29,5,-35,-75,-115,-85,-50
-42,-39,3,40,-22,-17,5,-33,-74,-115,-80,-50
-42,-32,11,37,-26,-10,5,-28,-68,-113,-78,-50
-35,-17,18,26,-27,0,5,-23,-62,-107,-73,-50
-35,-9,26,22,-31,8,6,-18,-57,-99,-72,-49
-30,9,39,10,-35,24,26,-14,-44,-94,-62,-38
-16,29,44,-7,-30,36,61,-4,-21,-77,-45,-25
10,47,36,-29,-13,41,65,23,-13,-56,-44,-23
29,57,28,-43,0,42,55,42,-5,-55,-48,-26
5,23,18,-14,-7,20,21,13,-18,-69,-49,-29
-28,-15,13,22,-20,-1,-13,-28,-64,-101,-62,-31
-50,-49,2,49,-26,-23,-5,-40,-87,-136,-88,-53
-61,-59,2,60,-31,-28,-11,-68,-106,-144,-105,-67
-68,-89,-21,78,-23,-54,5,-50,-108,-151,-121,-72
-86,-127,-41,107,-22,-84,-5,-85,-124,-159,-121,-68
-90,-138,-48,115,-21,-93,13,-53,-104,-153,-116,-71
-90,-129,-39,110,-26,-84,0,-80,-125,-174,-120,-70
-89,-126,-37,108,-26,-81,5,-72,-107,-152,-107,-68
-92,-130,-38,111,-26,-84,13,-76,-117,-181,-128,-75
-85,-106,-21,96,-32,-63,-8,-90,-130,-145,-109,-62
-130,-160,-30,146,-50,-95,164,81,-73,-207,-181,-131
-199,-129,70,164,-135,-29,294,176,-60,-265,-282,-184
8,-43,-51,17,29,-47,430,836,508,11,-124,-104
508,585,77,-547,216,331,-603,-476,526,1054,770,498
787,1158,371,-973,208,764,-1690,-2541,-264,2339,1844,1165
453,363,-90,-408,271,137,-1166,-2141,-1008,1051,1221,797
62,-311,-373,124,218,-341,-786,-1497,-1274,-584,117,207
35,-178,-214,72,125,-196,-417,-688,-573,-244,3,64
-6,-86,-80,46,37,-83,-61,-151,-186,-136,-28,1
-45,-69,-24,57,-10,-46,-23,-101,-130,-134,-60,-27
-27,-71,-44,49,8,-57,56,37,-43,-95,-71,-50
-37,-60,-24,49,-6,-42,40,16,-54,-118,-92,-57
-24,-52,-28,38,2,-40,77,84,7,-75,-80,-55
-37,-57,-21,47,-8,-39,71,74,-1,-97,-85,-51
-36,-48,-13,42,-11,-30,83,95,26,-64,-68,-45
-36,-49,-14,43,-11,-31,87,103,34,-73,-69,-42
-49,-51,-2,50,-23,-26,82,117,44,-54,-57,-36
-40,-15,25,27,-32,5,89,124,57,-49,-54,-33
-37,-5,33,21,-35,13,87,119,69,-29,-46,-24
-35,-2,32,18,-34,15,92,144,91,-7,-34,-18
-32,7,39,12,-36,23,90,159,111,4,-27,-11
-31,8,39,12,-35,24,96,185,138,29,-11,-2
-25,21,46,2,-36,33,95,207,163,50,6,7
-19,29,49,-5,-34,39,92,234,191,72,25,18
-3,48,51,-22,-27,49,90,267,216,95,31,26
14,63,49,-39,-18,56,90,304,256,132,53,35
29,80,51,-55,-11,65,90,342,297,174,88,44
54,104,50,-79,2,76,90,395,342,216,114,65
75,127,53,-101,11,89,89,442,392,254,150,86
102,184,83,-143,9,133,86,488,445,299,184,101
136,224,88,-180,23,156,83,541,506,365,241,144
153,252,99,-202,27,175,81,583,554,436,294,176
183,301,117,-242,33,209,77,613,595,501,345,202
222,331,109,-277,56,220,76,625,629,572,412,240
245,353,108,-299,68,230,71,611,632,606,449,263
259,362,103,-311,78,232,55,564,611,593,467,268
242,343,101,-293,71,222,26,464,558,585,462,257
209,298,89,-254,60,193,3,344,461,544,420,242
183,245,61,-214,61,153,5,249,366,464,345,199
139,165,25,-152,57,95,5,169,270,361,255,142
85,83,-2,-84,43,41,5,108,173,246,163,92
42,35,-7,-38,24,14,5,71,110,156,92,49
18,3,-15,-10,16,-6,5,58,66,76,35,18
0,-21,-22,11,11,-21,12,61,51,28,0,-7
-12,-42,-30,27,9,-36,22,60,47,10,-5,-24
-5,-39,-33,22,14,-36,32,60,38,-2,-13,-34
-5,-35,-30,20,13,-32,42,60,33,-7,-19,-36
-7,-32,-25,20,10,-28,45,56,26,-14,-26,-34
-4,-27,-23,16,10,-24,45,50,21,-28,-31,-37
-6,-25,-19,16,7,-21,45,45,14,-41,-36,-40
-17,-31,-14,25,-2,-22,45,39,7,-40,-33,-40
-22,-52,-30,38,4,-41,45,33,1,-44,-42,-42
-21,-56,-35,39,7,-45,40,29,-6,-46,-66,-46
-28,-54,-26,41,0,-40,36,21,-11,-47,-65,-45
-33,-56,-23,44,-4,-39,34,13,-20,-54,-66,-49
-39,-55,-16,47,-11,-35,29,5,-29,-62,-71,-54
-44,-55,-11,50,-16,-33,26,-3,-37,-73,-69,-57
-41,-55,-14,48,-13,-34,23,-8,-48,-83,-73,-62
-31,-55,-24,43,-3,-39,18,-13,-54,-90,-77,-65
-27,-55,-28,41,1,-41,12,-15,-59,-95,-82,-65
-30,-55,-25,43,-2,-40,9,-20,-66,-98,-85,-65
-33,-55,-22,44,-5,-39,3,-23,-75,-105,-90,-65
-39,-58,-20,48,-9,-39,1,-29,-84,-115,-90,-65
-44,-61,-17,53,-14,-39,4,-40,-85,-115,-91,-69
-50,-64,-14,57,-17,-39,7,-40,-85,-115,-95,-70
-46,-65,-19,55,-13,-42,9,-40,-90,-115,-95,-70
-39,-58,-20,48,-9,-39,13,-40,-90,-115,-97,-74
-41,-62,-21,52,-10,-41,15,-39,-90,-115,-101,-75
-38,-57,-19,48,-10,-38,17,-42,-90,-110,-100,-73
-41,-64,-22,53,-9,-43,20,-45,-90,-110,-100,-70
-54,-93,-39,74,-8,-66,20,-49,-90,-110,-100,-70
-55,-91,-35,73,-10,-62,20,-50,-90,-110,-101,-70
-55,-81,-27,68,-14,-53,20,-50,-90,-109,-104,-70
-55,-77,-22,66,-16,-49,20,-50,-94,-112,-105,-70
-55,-68,-13,62,-21,-40,25,-50,-95,-119,-105,-66
-54,-66,-11,60,-21,-38,25,-49,-95,-116,-105,-64
-46,-62,-16,55,-15,-39,25,-45,-95,-115,-105,-65
-38,-59,-22,49,-8,-40,25,-45,-95,-115,-102,-65
-32,-57,-25,45,-3,-41,25,-45,-94,-115,-100,-66
-23,-53,-30,38,4,-41,23,-45,-90,-115,-100,-63
-30,-65,-35,48,3,-49,19,-45,-90,-116,-97,-60
-49,-84,-35,67,-7,-59,20,-41,-88,-116,-94,-60
-50,-85,-35,68,-7,-60,20,-40,-84,-112,-96,-60
-50,-85,-35,68,-7,-60,20,-40,-85,-110,-99,-60
-50,-85,-35,68,-7,-60,20,-40,-88,-107,-100,-60
-51,-85,-35,69,-8,-60,15,-40,-90,-104,-100,-64
-47,-83,-36,66,-5,-60,15,-40,-90,-112,-100,-65
-40,-80,-40,60,0,-60,15,-40,-90,-126,-100,-65
-37,-77,-40,57,2,-58,15,-40,-90,-134,-97,-69
-35,-75,-40,55,3,-57,15,-40,-88,-135,-95,-70
-31,-72,-40,51,5,-56,15,-40,-85,-135,-95,-69
-29,-69,-40,49,5,-54,15,-40,-85,-135,-95,-65
-44,-81,-37,63,-3,-59,15,-43,-85,-135,-95,-65
-52,-86,-34,70,-9,-60,15,-46,-85,-135,-95,-65
-53,-85,-31,69,-10,-57,15,-49,-85,-135,-100,-65
-57,-85,-28,71,-14,-56,14,-52,-88,-135,-104,-65
-59,-85,-26,73,-16,-55,10,-55,-90,-135,-109,-61
-61,-85,-23,73,-18,-54,10,-55,-90,-135,-108,-60
-60,-80,-20,70,-20,-50,10,-55,-90,-135,-104,-60
-60,-80,-20,70,-20,-50,10,-55,-90,-134,-105,-60
-58,-79,-20,69,-19,-49,10,-55,-90,-136,-105,-60
-55,-75,-20,65,-17,-47,12,-55,-90,-140,-105,-61
-54,-74,-20,64,-17,-46,19,-55,-90,-140,-105,-65
-53,-77,-24,65,-14,-50,24,-51,-90,-140,-109,-65
-40,-71,-31,56,-4,-51,30,-49,-90,-140,-110,-67
-51,-86,-34,69,-8,-60,35,-50,-90,-139,-110,-70
-64,-91,-27,78,-18,-59,35,-50,-87,-141,-110,-70
-41,-63,-22,52,-9,-42,35,-50,-82,-145,-110,-66
-37,-56,-18,47,-9,-37,35,-49,-80,-141,-108,-59
-41,-50,-10,46,-15,-30,35,-41,-76,-135,-99,-52
-30,-40,-9,35,-10,-24,36,-30,-71,-131,-92,-47
-28,-16,12,22,-20,-2,37,-23,-69,-123,-83,-38
-28,16,44,5,-36,30,46,-14,-52,-112,-76,-36
-18,47,64,-15,-41,55,69,-5,-42,-107,-79,-40
3,49,46,-26,-22,48,74,8,-51,-111,-82,-39
4,1,-3,-2,3,-1,52,7,-49,-109,-87,-41
-23,-42,-20,33,-1,-31,6,-39,-62,-113,-87,-37
-47,-83,-36,65,-5,-59,7,-36,-76,-137,-102,-55
-64,-100,-36,83,-14,-68,10,-59,-113,-161,-118,-74
-75,-108,-33,92,-21,-70,11,-64,-123,-179,-127,-79
-79,-111,-32,95,-24,-72,4,-78,-137,-194,-134,-86
-83,-107,-24,95,-29,-65,0,-70,-132,-175,-126,-89
-85,-116,-30,101,-28,-72,4,-57,-135,-186,-134,-92
-86,-101,-15,94,-36,-58,-19,-86,-151,-166,-124,-86
-95,-123,-28,109,-33,-75,23,-22,-117,-174,-137,-96
-92,-91,0,92,-46,-45,-26,-119,-151,-164,-122,-80
-101,-127,-26,114,-37,-76,87,47,-49,-201,-175,-125
-187,-157,30,172,-108,-63,247,82,-116,-324,-304,-200
-118,-111,7,114,-62,-52,454,643,338,-118,-242,-185
333,355,22,-344,155,188,-149,267,741,710,444,269
700,1147,447,-924,126,797,-1439,-1964,-31,2237,1635,1033
486,687,202,-587,141,444,-1193,-2161,-825,1656,1442,910
70,-214,-284,72,177,-248,-677,-1491,-1299,-432,219,257
-34,-245,-211,140,88,-227,-519,-948,-851,-461,-92,45
-10,-122,-112,66,51,-117,-109,-215,-238,-136,-59,-3
-31,-79,-49,55,9,-64,-7,-112,-153,-169,-89,-37
-32,-78,-46,55,7,-62,66,25,-40,-84,-71,-56
-40,-72,-32,56,-4,-52,73,29,-43,-132,-88,-68
-37,-54,-17,46,-10,-35,73,73,4,-81,-74,-63
-34,-52,-18,44,-8,-35,79,94,10,-103,-84,-67
-28,-40,-12,35,-8,-26,70,87,16,-78,-78,-64
-20,-38,-18,29,-1,-27,80,104,36,-72,-81,-66
-15,-28,-13,22,-1,-20,71,93,33,-58,-75,-60
-7,-23,-16,16,5,-20,78,122,57,-39,-60,-52
-6,-17,-11,11,3,-14,73,116,64,-32,-51,-46
-1,-8,-7,4,4,-7,76,129,76,-11,-39,-39
8,3,-5,-5,6,-1,75,133,95,-12,-31,-31
11,11,0,-11,5,5,75,147,115,12,-20,-22
26,29,3,-28,11,16,75,170,139,46,-7,-13
33,39,7,-36,13,23,75,194,169,67,11,-3
29,41,12,-35,9,26,76,221,205,99,35,12
37,56,19,-47,8,37,75,249,237,127,57,24
59,85,26,-72,16,55,76,284,271,157,76,33
81,114,33,-98,24,73,73,316,319,195,98,47
96,135,39,-116,28,87,64,355,357,241,131,66
120,164,44,-142,38,104,58,402,405,299,178,96
138,200,61,-169,38,131,50,446,459,357,225,124
170,252,82,-211,43,167,42,488,512,428,281,156
189,291,102,-240,43,196,36,513,562,489,341,194
220,330,111,-275,54,220,27,507,593,551,398,235
258,360,102,-309,78,231,18,499,600,599,440,259
253,349,96,-301,78,222,10,480,583,614,459,268
250,338,88,-294,81,213,0,421,536,613,459,261
232,312,81,-272,75,196,-9,333,459,569,432,243
188,262,74,-226,56,168,-21,235,366,481,357,214
127,186,59,-156,33,122,-19,162,266,358,253,157
65,108,43,-87,10,76,-7,113,180,239,166,107
35,58,23,-47,6,41,2,70,109,150,92,64
11,13,2,-12,4,8,16,49,64,89,44,32
-9,-17,-8,13,0,-12,38,50,47,47,17,16
-12,-26,-14,20,1,-20,50,54,40,24,0,0
-22,-34,-12,28,-5,-22,50,56,37,12,-5,-6
-21,-31,-9,26,-6,-20,50,59,32,-1,-13,-4
-19,-30,-10,25,-5,-20,48,60,27,-7,-19,-8
-20,-30,-10,25,-5,-20,44,54,24,-14,-26,-10
-13,-24,-10,18,-1,-16,42,47,18,-22,-32,-10
-17,-27,-10,22,-3,-18,39,41,12,-29,-35,-13
-9,-19,-10,14,1,-14,36,34,7,-36,-38,-16
-21,-32,-10,27,-5,-21,34,28,1,-41,-42,-19
-43,-53,-10,48,-16,-31,31,22,-4,-44,-45,-22
-39,-49,-10,44,-15,-29,26,16,-10,-49,-49,-24
-41,-51,-11,46,-15,-31,24,11,-18,-52,-50,-27
-40,-49,-9,45,-15,-29,20,5,-27,-58,-51,-30
-40,-51,-11,46,-14,-31,15,0,-33,-77,-60,-33
-37,-44,-8,40,-14,-26,18,-6,-44,-90,-69,-35
-29,-45,-16,37,-6,-30,24,-11,-50,-90,-70,-39
-35,-70,-35,52,0,-52,30,-16,-53,-90,-70,-41
-37,-67,-30,52,-3,-49,34,-22,-68,-95,-75,-36
-35,-60,-24,48,-5,-42,31,-27,-71,-95,-75,-35
-40,-60,-20,50,-10,-40,28,-33,-70,-97,-76,-35
-37,-49,-12,43,-12,-31,26,-35,-75,-102,-80,-35
-47,-59,-12,53,-18,-35,22,-35,-74,-100,-79,-35
-56,-75,-18,66,-19,-46,20,-35,-77,-100,-82,-35
-41,-69,-28,55,-6,-48,18,-35,-80,-100,-85,-35
-37,-63,-27,50,-5,-45,12,-36,-80,-100,-85,-35
-37,-58,-21,48,-8,-39,7,-39,-82,-100,-81,-35
-35,-52,-17,44,-9,-34,4,-42,-86,-104,-80,-35
-38,-50,-12,44,-13,-31,-1,-45,-85,-105,-80,-35
-42,-50,-8,46,-17,-29,-5,-47,-82,-105,-75,-39
-47,-50,-3,49,-22,-26,-5,-51,-79,-109,-74,-40
-50,-50,0,50,-25,-25,-5,-47,-76,-110,-76,-40
-50,-50,0,50,-25,-25,-5,-45,-73,-108,-80,-40
-51,-50,0,51,-25,-25,-5,-45,-70,-105,-80,-40
-54,-54,0,54,-27,-27,-5,-41,-69,-105,-80,-39
-56,-55,0,55,-28,-27,-2,-39,-65,-105,-80,-35
-54,-58,-4,57,-25,-30,0,-41,-65,-105,-80,-35
-54,-61,-7,58,-24,-34,0,-44,-66,-105,-84,-33
-43,-57,-14,50,-14,-35,0,-45,-64,-104,-85,-29
-29,-55,-26,42,-1,-40,0,-45,-74,-106,-85,-30
-34,-55,-21,45,-6,-38,0,-45,-81,-104,-85,-33
-35,-51,-16,44,-9,-33,0,-44,-80,-110,-85,-42
-37,-49,-13,43,-12,-31,0,-48,-78,-121,-84,-44
-43,-50,-7,47,-18,-28,0,-50,-74,-118,-80,-40
-46,-50,-4,48,-21,-26,0,-50,-75,-115,-80,-40
-50,-50,0,50,-25,-25,1,-50,-78,-113,-80,-40
-50,-50,0,50,-25,-25,-3,-50,-81,-109,-80,-40
-52,-50,2,51,-27,-23,-5,-49,-84,-113,-80,-40
-56,-50,6,53,-31,-22,-5,-46,-86,-115,-84,-40
-52,-47,5,49,-28,-21,-9,-45,-90,-115,-85,-40
-50,-45,5,47,-27,-20,-10,-45,-89,-115,-85,-40
-50,-45,5,47,-27,-20,-10,-45,-85,-115,-90,-40
-47,-41,5,43,-26,-18,-10,-45,-85,-115,-90,-40
-44,-39,5,41,-25,-17,-10,-47,-85,-120,-90,-41
-46,-41,5,43,-26,-17,-10,-50,-85,-120,-90,-48
-48,-44,4,46,-25,-20,-10,-50,-85,-121,-90,-54
-44,-46,-2,45,-20,-24,-10,-50,-89,-125,-90,-59
-36,-44,-8,40,-14,-25,-12,-50,-90,-124,-90,-60
-34,-47,-13,40,-10,-29,-16,-49,-90,-127,-90,-60
-24,-43,-19,33,-2,-30,-18,-46,-94,-130,-90,-64
-30,-54,-24,42,-2,-38,-21,-43,-95,-130,-90,-66
-54,-75,-21,65,-16,-48,-28,-41,-93,-130,-90,-63
-56,-70,-14,63,-21,-41,-30,-37,-90,-130,-90,-60
-54,-62,-8,58,-23,-34,-32,-35,-90,-130,-89,-60
-55,-57,-1,56,-27,-28,-36,-37,-90,-130,-91,-58
-55,-48,7,51,-30,-20,-34,-42,-90,-130,-95,-54
-55,-46,9,50,-31,-18,-29,-44,-90,-130,-95,-55
-56,-50,5,53,-30,-22,-23,-41,-86,-130,-95,-58
-57,-55,2,55,-29,-26,-20,-40,-85,-130,-95,-63
-52,-52,0,52,-26,-26,-15,-40,-85,-128,-95,-64
-45,-49,-4,47,-21,-26,-11,-40,-85,-124,-91,-60
-41,-46,-5,44,-17,-26,-6,-41,-85,-122,-90,-60
-41,-43,-2,42,-19,-22,0,-37,-84,-119,-90,-60
-47,-41,6,43,-26,-17,5,-32,-76,-116,-85,-60
-48,-38,9,43,-28,-14,11,-25,-68,-115,-85,-61
-42,-27,16,34,-29,-6,17,-19,-59,-109,-85,-56
-33,-10,22,21,-27,6,23,-13,-52,-97,-70,-45
-20,4,24,7,-22,14,43,-1,-46,-87,-56,-36
-8,31,39,-11,-24,34,58,8,-38,-82,-53,-24
5,41,36,-24,-15,38,44,27,-37,-87,-56,-20
16,30,14,-23,1,22,30,21,-30,-92,-60,-20
32,-4,-36,-14,34,-20,8,-26,-55,-95,-60,-25
6,-57,-63,26,35,-60,3,-42,-84,-115,-82,-49
-40,-67,-27,54,-6,-47,9,-63,-101,-129,-95,-58
-54,-86,-32,70,-10,-58,22,-47,-109,-153,-107,-67
-54,-83,-29,69,-12,-56,3,-88,-135,-169,-125,-71
-60,-90,-29,75,-15,-59,14,-66,-125,-155,-123,-75
-70,-103,-33,87,-19,-68,0,-91,-138,-180,-129,-79
-70,-95,-25,83,-23,-60,-3,-79,-121,-155,-124,-77
-77,-109,-32,93,-23,-70,9,-66,-118,-190,-138,-89
-85,-85,0,86,-42,-43,-31,-115,-131,-159,-117,-74
-120,-134,-14,127,-53,-73,133,78,-75,-212,-184,-125
-186,-117,69,151,-127,-24,276,123,-107,-304,-293,-180
-65,-70,-5,67,-30,-38,472,802,439,-40,-175,-129
435,496,62,-466,186,279,-440,-252,566,916,645,418
779,1156,377,-968,201,766,-1645,-2439,-174,2334,1788,1123
480,455,-25,-468,253,215,-1210,-2188,-915,1313,1344,849
96,-289,-385,97,241,-337,-792,-1526,-1280,-504,185,243
28,-195,-223,84,126,-209,-457,-765,-647,-287,-13,72
-4,-103,-99,54,48,-101,-60,-171,-201,-123,-25,9
-47,-87,-40,67,-3,-63,-3,-101,-134,-135,-64,-29
-44,-82,-37,63,-3,-59,89,43,-41,-82,-66,-51
-47,-70,-23,59,-11,-46,80,19,-49,-114,-82,-51
-43,-59,-16,51,-13,-37,105,93,15,-67,-69,-47
-41,-51,-10,46,-15,-31,102,83,3,-92,-80,-46
-44,-40,3,42,-23,-18,107,104,21,-59,-72,-41
-37,-33,5,35,-21,-14,112,112,34,-68,-77,-39
-48,-51,-3,50,-23,-26,101,105,48,-50,-68,-43
-56,-39,17,47,-36,-11,104,130,59,-42,-60,-50
-31,-2,29,16,-30,13,95,134,69,-34,-53,-35
-20,3,23,8,-22,12,95,149,90,-18,-44,-22
-14,13,26,0,-20,19,88,150,101,-7,-37,-14
-3,22,24,-10,-14,23,97,176,125,23,-23,-6
4,29,25,-17,-11,27,103,202,151,46,-8,2
11,38,27,-25,-8,33,98,230,182,75,12,9
12,46,34,-29,-12,40,97,261,211,100,27,17
22,63,40,-43,-9,51,94,290,246,121,45,26
46,91,45,-69,1,67,89,331,291,159,68,42
55,106,51,-81,1,79,93,374,329,195,94,58
65,122,57,-94,4,89,102,423,380,247,133,69
91,155,64,-123,13,109,97,481,440,310,182,96
125,196,71,-161,27,133,94,543,498,377,237,131
152,241,88,-197,32,164,91,586,555,447,298,173
182,284,102,-233,40,193,86,613,605,505,358,209
228,325,98,-277,65,211,84,623,643,568,411,236
253,346,94,-300,79,220,75,616,647,608,454,269
260,349,88,-305,86,218,69,576,629,625,478,275
242,327,85,-285,78,206,51,484,579,622,471,268
218,292,73,-255,72,182,20,374,492,563,439,255
186,243,57,-215,64,150,14,258,386,469,362,205
131,168,38,-150,46,102,16,169,277,348,259,140
92,94,2,-93,45,48,14,108,185,229,170,76
61,37,-24,-49,42,6,23,69,123,145,100,28
40,2,-38,-21,39,-18,42,60,76,90,56,5
23,-17,-41,-3,32,-29,52,60,52,44,24,-3
4,-36,-39,16,22,-37,54,60,50,15,6,-11
-10,-51,-40,30,15,-45,59,60,43,7,-1,-19
-11,-51,-40,31,14,-45,60,60,38,-1,-8,-26
-4,-44,-40,24,18,-42,61,58,32,-9,-14,-30
-6,-41,-35,24,15,-37,64,54,27,-16,-21,-31
-5,-36,-32,20,14,-34,65,52,23,-24,-27,-29
-3,-31,-28,17,13,-29,64,49,20,-32,-30,-33
-5,-30,-25,18,10,-27,59,46,17,-39,-33,-48
-10,-30,-21,20,6,-25,53,44,12,-41,-37,-51
-12,-30,-18,21,3,-24,50,38,9,-44,-40,-49
-16,-30,-15,23,0,-22,45,28,3,-47,-43,-51
-25,-40,-15,33,-5,-27,40,20,-5,-54,-48,-49
-31,-47,-16,39,-7,-31,36,11,-11,-65,-51,-52
-30,-43,-13,37,-8,-28,35,4,-19,-64,-58,-55
-18,-54,-36,36,9,-45,35,-3,-26,-70,-64,-55
-11,-61,-51,36,20,-56,35,-9,-32,-85,-65,-55
-18,-59,-41,39,11,-50,35,-17,-44,-87,-65,-55
-23,-61,-38,42,8,-49,34,-28,-50,-89,-65,-55
-28,-59,-31,44,1,-45,29,-30,-51,-93,-65,-59
-35,-62,-26,49,-5,-44,26,-30,-49,-95,-64,-60
-26,-53,-28,40,1,-40,23,-34,-55,-98,-67,-60
-25,-58,-33,42,4,-45,18,-35,-66,-100,-70,-64
-42,-76,-34,60,-4,-55,15,-35,-65,-100,-72,-65
-46,-75,-30,60,-7,-52,18,-40,-65,-100,-76,-64
-43,-74,-30,58,-6,-51,21,-40,-65,-100,-71,-60
-40,-70,-30,55,-5,-50,19,-40,-65,-99,-70,-60
-40,-70,-30,55,-5,-50,21,-40,-65,-95,-70,-58
-38,-68,-30,53,-4,-49,19,-40,-65,-95,-66,-54
-29,-59,-30,44,1,-44,22,-40,-65,-95,-64,-55
-18,-51,-33,35,8,-42,24,-40,-65,-95,-66,-51
-7,-43,-36,26,14,-39,20,-40,-65,-95,-71,-50
-1,-35,-34,18,17,-35,20,-40,-65,-97,-76,-50
5,-31,-36,14,20,-33,20,-40,-70,-101,-79,-50
9,-26,-34,9,22,-30,20,-40,-70,-99,-77,-50
9,-27,-36,10,23,-32,19,-35,-70,-104,-74,-51
-2,-47,-45,25,22,-46,25,-35,-70,-105,-71,-55
-6,-49,-43,28,19,-46,33,-35,-69,-105,-69,-55
-4,-41,-37,23,16,-39,29,-35,-73,-110,-64,-55
-6,-39,-34,23,14,-36,26,-35,-75,-110,-67,-55
-4,-33,-29,19,13,-30,23,-35,-76,-111,-78,-55
-6,-30,-24,19,9,-27,18,-34,-80,-115,-81,-59
-8,-29,-21,19,7,-25,15,-36,-80,-115,-84,-60
-17,-35,-18,26,1,-26,11,-45,-84,-115,-87,-60
-25,-41,-16,34,-5,-28,10,-46,-85,-115,-89,-60
-27,-39,-12,34,-8,-26,10,-44,-85,-115,-93,-60
-30,-40,-10,35,-10,-25,5,-46,-85,-115,-95,-58
-28,-40,-12,34,-8,-25,5,-44,-84,-115,-99,-55
-23,-40,-17,32,-3,-28,5,-46,-88,-115,-100,-55
-24,-43,-19,34,-2,-31,5,-49,-90,-120,-100,-55
-30,-45,-15,38,-7,-30,5,-50,-90,-120,-100,-55
-29,-45,-15,38,-7,-30,5,-50,-93,-121,-100,-55
-32,-45,-13,39,-9,-29,5,-50,-96,-125,-100,-59
-34,-45,-11,39,-11,-27,5,-50,-94,-124,-100,-60
-39,-46,-7,42,-15,-26,9,-48,-91,-128,-100,-60
-31,-55,-24,43,-3,-39,10,-44,-88,-130,-100,-60
-24,-60,-37,42,7,-48,10,-45,-85,-130,-100,-60
-42,-60,-18,51,-12,-39,14,-45,-82,-130,-100,-59
-47,-60,-13,54,-17,-36,15,-45,-79,-130,-100,-55
-45,-60,-15,53,-15,-37,14,-45,-82,-129,-100,-55
-42,-60,-18,51,-12,-39,10,-40,-86,-125,-96,-55
-36,-57,-21,46,-7,-39,10,-40,-85,-125,-95,-55
-28,-52,-24,41,-2,-38,8,-40,-85,-125,-95,-55
-24,-49,-25,37,1,-37,4,-40,-85,-125,-95,-59
-26,-46,-20,36,-2,-32,6,-40,-86,-124,-95,-60
-21,-41,-20,31,0,-31,1,-40,-89,-127,-96,-60
-22,-41,-19,31,-2,-30,0,-40,-90,-130,-100,-64
-33,-48,-15,41,-9,-31,0,-40,-90,-131,-100,-65
-39,-54,-15,47,-11,-34,-5,-40,-90,-135,-99,-63
-39,-52,-13,46,-13,-32,-5,-40,-90,-134,-104,-60
-40,-47,-7,44,-16,-27,-4,-40,-88,-130,-105,-60
-42,-45,-3,43,-19,-24,0,-34,-84,-126,-105,-60
-42,-40,2,41,-22,-19,5,-29,-82,-123,-109,-60
-43,-37,6,39,-24,-15,6,-24,-79,-120,-111,-61
-44,-34,10,39,-27,-11,13,-17,-76,-116,-109,-56
-36,-27,9,31,-22,-8,14,-11,-74,-113,-96,-47
-20,-5,15,13,-18,5,27,-7,-64,-103,-82,-39
-14,33,47,-10,-31,39,56,11,-45,-97,-67,-23
-3,50,53,-24,-28,51,51,18,-46,-99,-51,-16
10,44,34,-27,-13,39,44,24,-45,-101,-49,-23
5,5,0,-5,3,2,33,4,-44,-99,-56,-17
-28,-69,-41,49,7,-55,14,-39,-77,-105,-75,-28
-65,-95,-30,80,-17,-62,3,-53,-103,-138,-109,-51
-75,-85,-11,80,-32,-47,-11,-67,-118,-156,-121,-61
-77,-97,-20,88,-28,-59,-1,-67,-134,-182,-134,-77
-82,-90,-8,86,-36,-49,-22,-100,-150,-189,-141,-74
-85,-100,-15,93,-35,-57,-5,-53,-126,-181,-145,-82
-81,-87,-6,84,-37,-46,-32,-97,-156,-193,-146,-81
-82,-92,-10,88,-36,-51,-8,-42,-124,-172,-145,-86
-85,-91,-6,89,-40,-48,-15,-77,-151,-203,-157,-89
-96,-84,12,90,-54,-36,-16,-53,-116,-169,-138,-85
-155,-141,14,147,-84,-63,158,75,-93,-282,-236,-150
-182,-113,69,147,-126,-22,327,244,-19,-280,-329,-202
62,12,-50,-37,56,-20,336,815,654,135,-47,-47
543,771,228,-657,157,500,-873,-837,440,1445,1033,669
664,1108,444,-887,110,776,-1580,-2429,-459,2404,1810,1134
259,150,-109,-204,184,21,-914,-1805,-1128,586,861,601
-37,-325,-289,181,126,-307,-691,-1335,-1224,-696,-52,119
-35,-173,-138,105,51,-155,-353,-560,-495,-220,-71,36
-59,-128,-70,94,6,-99,-66,-153,-197,-194,-96,-14
-89,-112,-22,101,-33,-67,-26,-86,-116,-127,-90,-46
-86,-116,-30,101,-27,-73,41,36,-46,-127,-106,-64
-89,-100,-12,95,-38,-56,40,32,-42,-128,-106,-58
-85,-100,-15,93,-35,-57,85,102,9,-103,-98,-60
-87,-91,-4,89,-41,-47,69,67,-6,-120,-102,-55
-88,-90,-2,89,-43,-46,78,95,22,-88,-92,-55
-94,-91,3,92,-49,-44,74,85,20,-94,-97,-55
-99,-89,10,94,-54,-39,74,93,36,-69,-84,-47
-102,-91,11,97,-57,-40,74,104,47,-69,-79,-43
-90,-72,19,81,-54,-26,68,109,59,-54,-69,-37
-68,-48,20,58,-44,-14,72,120,73,-43,-63,-31
-57,-37,20,47,-38,-8,65,119,90,-22,-53,-26
-49,-28,20,39,-34,-4,65,140,114,6,-34,-20
-24,-5,20,15,-22,7,65,165,136,33,-10,-10
2,22,21,-12,-10,21,75,203,177,66,13,0
19,38,19,-29,0,29,77,228,207,85,30,15
25,50,25,-38,0,37,69,253,240,112,49,28
44,80,35,-62,4,57,66,281,277,146,74,42
71,114,43,-93,14,78,61,316,316,188,103,58
81,130,49,-106,16,89,57,367,365,240,136,76
107,162,55,-135,26,108,52,410,415,304,187,102
127,206,79,-167,24,143,44,457,472,370,233,133
167,258,91,-213,38,174,38,492,525,437,294,175
202,308,106,-255,48,206,30,525,576,508,361,212
215,347,132,-282,42,239,22,535,592,560,405,238
239,359,119,-299,60,239,16,504,591,600,446,264
236,343,107,-289,64,224,5,460,572,596,459,275
236,334,98,-286,69,216,-11,384,511,579,449,271
219,295,76,-258,71,186,-17,289,428,540,411,239
158,221,64,-190,47,142,-9,204,331,434,320,184
108,156,48,-132,30,101,-1,134,236,313,221,136
71,87,17,-79,27,52,7,82,153,202,140,87
38,21,-17,-29,27,2,14,56,101,123,76,40
16,-20,-36,2,27,-28,27,55,59,69,34,5
-1,-36,-35,19,18,-35,43,55,35,28,8,-10
-3,-35,-32,19,15,-33,47,55,35,8,-5,-11
-6,-35,-29,20,12,-31,52,55,35,-2,-17,-15
-10,-35,-26,23,8,-30,54,55,35,-6,-20,-18
-10,-35,-25,23,8,-30,51,55,35,-10,-23,-20
-15,-35,-20,25,3,-27,48,55,34,-15,-26,-23
-14,-35,-21,24,4,-27,46,55,26,-19,-29,-25
-12,-30,-18,21,3,-24,42,55,19,-25,-31,-25
-14,-30,-16,22,1,-23,40,55,12,-35,-29,-29
-10,-23,-13,17,2,-18,37,50,4,-46,-31,-30
-11,-35,-24,23,7,-29,35,42,-2,-54,-28,-30
-13,-62,-49,38,18,-55,35,36,-10,-56,-44,-35
-12,-49,-37,31,13,-43,32,28,-18,-54,-62,-35
-19,-42,-23,31,2,-32,29,21,-24,-57,-59,-35
-24,-49,-25,37,1,-37,31,14,-32,-68,-60,-35
-25,-50,-25,38,0,-37,34,10,-39,-71,-60,-34
-26,-55,-29,41,2,-41,35,8,-46,-69,-60,-38
-27,-57,-30,42,2,-43,35,4,-51,-70,-64,-40
-28,-61,-32,45,2,-46,35,2,-49,-70,-65,-40
-27,-63,-36,46,5,-49,35,-1,-52,-69,-65,-43
-31,-66,-35,49,2,-50,33,-3,-56,-81,-69,-46
-34,-69,-35,52,1,-52,29,-6,-55,-91,-70,-44
-36,-71,-35,54,0,-52,30,-9,-59,-89,-70,-41
-40,-74,-35,57,-2,-54,30,-12,-60,-90,-70,-40
-40,-75,-36,58,-2,-55,30,-15,-60,-90,-70,-40
-41,-75,-34,58,-3,-54,29,-16,-65,-90,-70,-40
-39,-75,-36,58,-1,-56,26,-21,-65,-94,-70,-40
-41,-75,-34,59,-3,-54,23,-26,-66,-95,-70,-42
-36,-73,-37,55,0,-54,20,-29,-70,-95,-70,-46
-37,-68,-32,53,-2,-50,18,-30,-70,-95,-70,-49
-38,-65,-27,52,-5,-46,14,-30,-70,-95,-70,-53
-17,-62,-45,40,14,-53,18,-30,-70,-96,-70,-55
-25,-57,-31,41,3,-44,20,-30,-70,-100,-70,-55
-39,-55,-17,47,-10,-36,20,-30,-66,-100,-68,-55
-37,-59,-22,48,-8,-40,24,-30,-64,-100,-65,-55
-43,-62,-19,52,-12,-40,26,-30,-65,-100,-65,-55
-44,-64,-20,54,-11,-42,24,-30,-65,-100,-65,-55
-48,-68,-20,58,-13,-44,20,-30,-65,-104,-65,-53
-52,-70,-17,61,-18,-43,20,-30,-65,-105,-65,-48
-58,-73,-15,66,-21,-43,19,-30,-65,-105,-68,-45
-60,-75,-15,68,-22,-45,15,-26,-65,-105,-71,-42
-63,-75,-12,69,-25,-43,15,-25,-65,-105,-69,-37
-70,-78,-9,74,-30,-44,18,-25,-65,-105,-70,-35
-69,-81,-11,75,-29,-46,20,-20,-65,-105,-69,-39
-59,-79,-20,69,-19,-50,20,-20,-65,-105,-71,-40
-58,-75,-17,67,-20,-45,23,-21,-65,-105,-75,-43
-59,-68,-9,64,-25,-39,26,-27,-65,-105,-75,-46
-53,-64,-11,59,-21,-37,24,-34,-65,-105,-77,-42
-48,-57,-9,53,-19,-33,21,-35,-65,-105,-80,-40
-42,-52,-11,47,-15,-31,18,-35,-66,-105,-80,-40
-41,-49,-8,45,-16,-29,16,-35,-70,-105,-76,-37
-34,-51,-17,43,-9,-34,12,-35,-70,-105,-75,-34
-23,-55,-32,39,5,-43,10,-35,-70,-105,-75,-36
-27,-55,-27,42,1,-41,7,-36,-70,-106,-71,-40
-33,-55,-22,44,-5,-38,5,-40,-70,-110,-69,-40
-36,-55,-19,46,-8,-36,5,-40,-74,-110,-71,-42
-42,-55,-13,49,-14,-34,2,-40,-75,-110,-75,-46
-44,-54,-10,49,-17,-31,-1,-40,-75,-110,-75,-44
-45,-50,-5,48,-20,-27,1,-40,-75,-110,-77,-49
-42,-48,-5,45,-18,-26,4,-40,-74,-114,-80,-50
-41,-45,-4,43,-18,-24,5,-40,-77,-115,-80,-50
-42,-42,0,42,-21,-21,6,-40,-80,-115,-83,-55
-40,-39,0,39,-20,-19,10,-40,-83,-120,-86,-55
-41,-44,-2,43,-19,-23,10,-40,-85,-120,-89,-56
-40,-45,-5,43,-17,-25,8,-40,-89,-121,-92,-60
-40,-45,-5,43,-17,-25,5,-40,-90,-125,-95,-60
-45,-50,-5,48,-20,-27,2,-40,-87,-125,-94,-57
-45,-50,-5,48,-20,-27,-1,-40,-84,-125,-89,-55
-46,-51,-5,49,-20,-28,-5,-40,-81,-125,-90,-55
-51,-55,-5,53,-23,-30,-4,-40,-78,-125,-90,-55
-49,-55,-6,52,-21,-30,-1,-37,-76,-121,-90,-55
-51,-55,-4,54,-23,-30,2,-32,-73,-119,-90,-54
-45,-50,-5,48,-20,-28,4,-29,-70,-120,-86,-51
-24,-42,-18,33,-3,-29,8,-26,-67,-115,-85,-48
-25,-36,-12,31,-6,-24,9,-21,-65,-115,-85,-46
-27,-29,-2,28,-12,-15,14,-18,-62,-115,-81,-42
-25,-19,6,21,-15,-6,27,-9,-59,-105,-80,-41
-28,9,37,9,-32,22,35,0,-55,-98,-80,-36
-8,48,56,-20,-33,52,54,11,-37,-86,-69,-24
6,67,62,-37,-28,64,53,21,-34,-83,-62,-23
4,54,50,-29,-23,51,47,26,-19,-70,-56,-28
14,21,8,-18,3,14,38,-1,-27,-78,-58,-28
6,-19,-25,7,16,-22,22,-31,-74,-117,-85,-38
-32,-58,-26,46,-3,-42,13,-51,-94,-138,-107,-57
-43,-62,-19,53,-12,-40,-1,-72,-117,-156,-115,-68
-47,-69,-23,58,-11,-46,8,-67,-122,-181,-133,-78
-67,-78,-11,73,-28,-44,-13,-95,-132,-180,-137,-77
-74,-94,-20,84,-27,-57,6,-51,-115,-177,-141,-86
-82,-86,-4,84,-39,-45,-23,-102,-146,-188,-141,-83
-87,-94,-7,91,-40,-50,4,-43,-113,-166,-142,-85
-104,-97,6,100,-54,-46,-8,-92,-143,-199,-151,-87
-98,-86,12,92,-55,-36,-4,-59,-111,-158,-136,-80
-142,-125,17,134,-79,-54,160,67,-95,-272,-222,-146
-180,-91,90,135,-135,-1,340,260,-30,-284,-286,-186
94,30,-64,-62,79,-17,395,827,587,100,-51,-52
589,773,184,-681,202,478,-872,-933,403,1352,982,644
754,1136,382,-946,186,759,-1662,-2586,-401,2391,1843,1160
354,189,-165,-271,259,12,-1035,-1955,-1105,701,978,662
54,-300,-354,123,204,-327,-754,-1380,-1203,-619,37,166
48,-131,-179,42,113,-154,-333,-539,-469,-182,-12,50
-12,-85,-73,49,31,-79,-43,-151,-196,-159,-54,-14
-22,-63,-41,43,10,-52,8,-71,-111,-116,-66,-40
-29,-62,-33,46,3,-48,81,51,-46,-114,-81,-60
-45,-50,-6,48,-19,-28,64,27,-42,-112,-81,-53
-38,-52,-13,45,-13,-32,95,90,10,-85,-71,-56
-43,-47,-4,45,-19,-25,84,69,-3,-100,-76,-55
-37,-42,-4,40,-16,-23,100,98,29,-67,-63,-55
-41,-41,0,41,-20,-21,101,95,28,-72,-68,-55
-30,-29,2,29,-16,-13,109,115,43,-44,-56,-47
-21,-15,6,18,-13,-4,112,126,56,-44,-51,-43
-21,-7,14,14,-17,3,108,129,70,-28,-42,-37
-40,-22,18,31,-29,-2,112,140,87,-22,-34,-31
-56,-31,24,43,-40,-3,109,157,105,-1,-27,-26
-56,-27,28,41,-42,0,109,186,128,31,-11,-20
-38,-7,31,22,-34,12,104,202,153,49,1,-10
-7,23,29,-8,-18,26,106,236,182,75,17,0
3,34,30,-19,-14,32,103,259,212,97,38,10
34,63,30,-49,2,46,100,292,250,123,52,25
57,88,31,-72,12,59,100,333,289,158,77,38
60,98,38,-80,11,68,97,377,330,200,106,50
86,129,43,-108,21,86,94,432,383,256,146,68
108,164,56,-137,26,110,91,491,447,326,195,94
137,212,76,-175,30,144,88,539,507,385,248,128
160,262,102,-212,29,182,86,578,562,448,307,168
187,297,110,-243,39,203,83,609,607,520,363,204
225,327,101,-276,62,214,74,611,634,579,418,233
243,341,98,-292,72,219,61,602,644,620,457,258
240,330,90,-285,74,210,51,555,622,639,482,263
230,318,87,-274,71,202,33,445,550,614,472,253
212,286,74,-249,69,179,8,328,452,544,415,236
167,214,47,-191,59,130,-3,227,352,441,332,188
110,138,28,-125,41,83,-9,146,241,317,233,125
71,79,8,-75,31,44,-7,88,151,215,151,68
44,31,-13,-38,28,9,1,55,94,122,82,26
21,-8,-29,-7,25,-18,7,55,58,66,32,2
2,-30,-32,14,18,-31,14,55,45,34,8,-12
-13,-40,-27,27,7,-33,21,50,40,2,-11,-19
-14,-39,-25,27,5,-31,28,50,32,-7,-26,-26
-25,-45,-20,35,-2,-33,30,48,24,-16,-35,-34
-38,-55,-17,47,-11,-36,30,45,17,-25,-38,-41
-34,-47,-13,41,-10,-30,30,42,11,-34,-43,-45
-31,-41,-10,36,-10,-25,30,40,10,-35,-45,-45
-23,-34,-10,28,-6,-22,30,36,10,-35,-45,-45
-25,-32,-7,28,-8,-20,29,35,5,-35,-45,-45
-31,-36,-5,34,-13,-20,25,31,5,-35,-45,-45
-30,-34,-5,33,-12,-20,25,24,4,-35,-46,-45
-27,-36,-9,31,-8,-22,22,17,-4,-38,-49,-40
-25,-34,-9,30,-7,-21,20,11,-12,-55,-51,-41
-23,-36,-13,30,-5,-24,20,4,-20,-61,-49,-38
-19,-34,-15,27,-1,-25,17,-1,-28,-74,-55,-36
-25,-41,-16,33,-4,-28,12,-6,-34,-95,-65,-34
-26,-62,-36,44,5,-49,9,-11,-41,-95,-65,-40
-28,-66,-38,47,6,-52,6,-15,-47,-95,-65,-51
-31,-61,-30,46,0,-46,1,-20,-50,-95,-65,-47
-33,-59,-27,46,-3,-43,1,-25,-50,-95,-65,-43
-37,-56,-19,46,-8,-37,6,-29,-55,-93,-65,-40
-38,-55,-16,47,-11,-35,9,-30,-55,-89,-65,-34
-43,-66,-23,55,-10,-44,12,-30,-58,-87,-65,-38
-40,-78,-38,59,0,-58,17,-30,-61,-84,-65,-40
-33,-75,-42,54,5,-59,20,-30,-60,-81,-65,-35
-36,-75,-40,55,3,-57,16,-31,-65,-79,-64,-35
-33,-74,-40,53,4,-57,15,-35,-65,-88,-68,-33
-34,-70,-36,52,1,-53,15,-38,-66,-93,-70,-30
-35,-69,-35,53,0,-51,15,-42,-70,-89,-70,-29
-38,-73,-35,56,-1,-54,15,-45,-70,-90,-70,-33
-40,-75,-35,58,-2,-55,16,-42,-74,-90,-70,-42
-40,-75,-35,58,-2,-55,20,-39,-75,-90,-69,-41
-40,-75,-36,58,-2,-55,20,-40,-75,-90,-66,-38
-40,-74,-34,58,-3,-54,20,-40,-75,-90,-63,-36
-40,-76,-36,59,-2,-56,20,-41,-75,-90,-60,-32
-29,-63,-34,46,3,-48,20,-39,-74,-90,-58,-29
-30,-69,-38,50,4,-53,17,-35,-70,-90,-53,-32
-24,-80,-56,52,16,-68,14,-35,-70,-89,-66,-36
-24,-71,-47,48,12,-59,11,-33,-68,-93,-82,-35
-33,-68,-35,51,1,-51,8,-29,-64,-95,-79,-35
-26,-61,-36,44,5,-48,5,-30,-65,-95,-83,-35
-21,-56,-34,39,7,-45,6,-30,-68,-98,-85,-35
-16,-51,-35,34,10,-43,14,-30,-70,-101,-85,-35
-14,-49,-35,32,10,-41,23,-30,-70,-99,-82,-35
-11,-46,-35,29,13,-40,22,-30,-70,-96,-79,-35
-9,-44,-35,27,13,-39,20,-31,-70,-94,-81,-35
-4,-39,-35,22,15,-36,20,-28,-69,-95,-79,-35
-10,-46,-35,29,13,-40,15,-25,-65,-95,-81,-32
-28,-62,-35,45,4,-48,15,-25,-65,-95,-78,-30
-19,-54,-35,37,9,-45,14,-25,-63,-97,-75,-30
-29,-63,-34,47,3,-49,10,-25,-59,-101,-75,-30
-44,-72,-28,59,-8,-50,8,-25,-60,-103,-72,-30
-46,-68,-23,57,-12,-45,5,-29,-63,-106,-70,-30
-55,-72,-17,64,-19,-44,1,-30,-68,-109,-70,-35
-55,-67,-12,61,-22,-39,0,-30,-70,-111,-73,-43
-81,-86,-5,84,-38,-45,4,-35,-70,-114,-76,-43
-83,-95,-12,89,-36,-53,6,-35,-70,-115,-74,-40
-50,-72,-23,61,-13,-47,9,-35,-70,-115,-76,-40
-49,-70,-20,60,-14,-45,10,-35,-70,-115,-74,-40
-53,-70,-17,62,-18,-44,10,-35,-70,-115,-77,-40
-51,-66,-15,59,-18,-40,10,-35,-74,-113,-85,-40
-54,-65,-11,60,-21,-38,10,-35,-75,-109,-85,-45
-55,-64,-10,60,-22,-37,10,-35,-75,-110,-85,-45
-51,-61,-10,56,-20,-35,10,-31,-80,-110,-85,-46
-46,-56,-10,51,-18,-33,6,-30,-80,-110,-84,-50
-44,-54,-10,49,-16,-32,5,-30,-81,-109,-86,-50
-40,-49,-9,44,-15,-29,5,-30,-85,-105,-90,-48
-35,-46,-11,41,-12,-28,0,-30,-85,-105,-90,-45
-34,-42,-8,38,-13,-25,0,-31,-85,-105,-92,-45
-34,-38,-4,37,-14,-21,1,-35,-85,-106,-96,-45
-33,-31,2,32,-17,-14,5,-35,-85,-104,-95,-45
-35,-30,5,32,-20,-12,5,-35,-81,-110,-92,-45
-32,-23,10,27,-21,-6,5,-35,-74,-117,-86,-40
-37,-21,16,29,-27,-2,6,-35,-68,-112,-81,-37
-35,-40,-5,37,-15,-22,3,-29,-61,-105,-78,-33
-35,-30,5,33,-20,-12,13,-15,-54,-101,-72,-29
-44,-13,32,28,-38,9,21,-5,-48,-94,-69,-26
-30,13,43,8,-37,28,42,8,-38,-85,-55,-21
-20,55,75,-18,-48,65,55,20,-26,-69,-42,-6
1,79,78,-41,-39,78,65,33,-12,-58,-29,6
18,59,41,-39,-12,50,65,38,3,-52,-22,4
-2,-3,-2,2,0,-2,27,5,-27,-63,-50,-11
-22,-39,-17,31,-2,-28,14,-13,-71,-111,-76,-37
-50,-65,-14,58,-18,-39,6,-34,-84,-107,-90,-50
-68,-83,-15,76,-26,-48,23,-25,-103,-155,-104,-51
-67,-77,-11,72,-28,-44,-10,-55,-105,-138,-109,-55
-66,-76,-9,71,-28,-42,22,-48,-111,0,-106,-57
-61,-73,-12,67,-24,-42,-19,35,-89,4,-96,-60
-54,-69,-14,62,-20,-41,4,-68,-128,-6,-88,-58
-56,-74,-18,65,-19,-45,29,-557,-131,7,-79,-50
-65,-85,-20,75,-22,-52,-320,-821,-18,-7,-70,-45
