I,II,III,aVR,aVL,aVF,V1,V2,V3,V4,V5,V6
-145,139,285,3,-215,212,-379,-135,-235,299,194,-266
-147,139,286,4,-216,212,-378,-134,-235,297,195,-262
-148,135,283,6,-216,209,-371,-125,-237,294,197,-255
-157,130,287,13,-222,208,-369,-126,-243,285,191,-254
-153,130,283,11,-218,206,-364,-116,-242,288,207,-240
-165,121,286,22,-226,204,-357,-118,-249,273,199,-246
-167,121,288,23,-228,204,-354,-102,-230,281,212,-232
-192,97,289,47,-241,193,-316,-83,-227,252,195,-251
-182,105,286,38,-234,195,-315,12,-165,287,210,-237
28,177,149,-103,-61,163,-304,168,-21,440,346,-127
650,450,-200,-550,425,125,-780,-107,-47,645,622,145
1368,774,-594,-1070,981,90,-1509,-433,-203,759,841,413
896,588,-308,-742,602,140,-1434,-693,-549,360,480,171
-29,221,250,-96,-140,235,-944,-865,-791,-2,92,-179
-183,80,263,51,-223,171,-528,-428,-541,59,76,-266
-190,59,249,65,-220,154,-301,-80,-291,171,127,-255
-179,105,284,37,-232,194,-283,-18,-214,257,206,-220
-153,127,279,13,-216,203,-256,34,-167,274,214,-221
-172,135,307,18,-240,221,-253,31,-157,281,217,-205
-167,137,304,14,-236,221,-244,56,-145,280,226,-198
-158,140,298,8,-228,219,-238,67,-140,289,235,-188
-124,144,268,-11,-196,206,-235,94,-126,302,245,-177
-132,147,280,-8,-206,213,-228,116,-110,305,256,-169
-131,157,288,-14,-209,222,-226,137,-93,321,266,-159
-110,165,275,-27,-193,220,-219,177,-73,325,268,-152
-100,169,269,-35,-185,219,-215,222,-52,335,286,-144
-81,178,259,-49,-171,219,-199,288,-12,364,305,-133
-48,213,261,-83,-154,237,-184,367,49,405,343,-96
-8,251,259,-121,-134,255,-161,450,119,448,379,-66
25,281,256,-153,-116,268,-145,533,177,488,411,-40
60,315,255,-188,-97,285,-144,593,226,518,450,-17
76,332,256,-204,-91,294,-145,608,249,531,466,2
68,338,270,-203,-101,304,-149,586,231,524,454,20
69,345,276,-207,-103,310,-149,523,195,517,445,27
56,330,274,-194,-109,302,-172,412,121,474,432,22
17,292,275,-155,-129,283,-214,270,13,392,373,-16
-41,233,275,-97,-158,254,-248,140,-86,306,307,-71
-94,181,275,-44,-185,228,-273,65,-167,227,254,-111
-122,149,270,-14,-196,209,-292,15,-226,182,217,-136
-129,131,260,-1,-194,195,-296,-12,-251,159,203,-143
-121,129,250,-4,-185,189,-291,-25,-249,147,190,-146
-122,123,245,-1,-184,183,-289,-33,-256,136,184,-144
-125,117,243,4,-184,179,-286,-28,-266,124,186,-148
-127,113,239,7,-183,176,-284,-25,-264,118,182,-156
-131,106,237,12,-184,171,-281,-22,-265,111,180,-152
-133,101,234,15,-184,168,-278,-17,-265,104,180,-149
-136,96,232,20,-184,163,-276,-15,-265,97,176,-146
-132,95,227,18,-180,161,-272,-22,-267,91,174,-141
-129,95,224,17,-177,159,-270,-30,-270,86,175,-138
-131,90,221,20,-176,155,-267,-36,-273,82,174,-135
-125,90,216,17,-170,152,-265,-43,-276,79,175,-133
-127,89,215,19,-171,152,-265,-45,-279,75,174,-130
-129,85,214,22,-172,149,-265,-48,-281,71,167,-126
-138,85,223,26,-181,154,-265,-51,-284,69,162,-125
-155,83,238,36,-197,160,-265,-54,-287,60,157,-122
-156,79,235,38,-195,157,-265,-56,-289,51,151,-119
-154,80,235,36,-194,157,-265,-59,-292,43,146,-120
-153,83,235,34,-194,159,-265,-60,-295,32,141,-120
-147,87,234,29,-191,161,-264,-60,-295,26,139,-120
-142,94,236,23,-189,165,-266,-61,-295,23,136,-119
-134,96,230,19,-182,163,-262,-57,-295,19,133,-124
-128,94,222,17,-176,158,-258,-52,-295,16,130,-129
-120,96,216,12,-169,156,-253,-45,-288,10,130,-120
-115,94,208,10,-162,151,-248,-41,-280,12,141,-115
-103,98,201,2,-152,149,-245,-34,-269,22,160,-104
-74,119,194,-23,-134,156,-227,-16,-242,39,186,-75
-48,138,186,-45,-117,162,-214,29,-230,67,219,-68
-40,134,173,-47,-107,153,-217,58,-228,65,227,-75
-56,112,168,-28,-112,140,-251,14,-240,39,200,-78
-66,95,161,-15,-114,128,-278,-39,-274,11,180,-82
-94,81,175,6,-135,128,-273,-62,-285,-10,168,-90
-127,69,196,29,-162,132,-276,-61,-289,-15,158,-94
-146,48,194,48,-171,121,-274,-70,-298,-30,153,-104
-152,42,195,55,-174,118,-276,-75,-294,-32,157,-106
-138,50,187,44,-163,119,-271,-67,-294,-30,154,-104
-144,50,193,47,-168,121,-269,-66,-290,-32,155,-96
-141,44,185,48,-164,114,-262,-50,-288,-27,156,-94
-154,42,196,56,-175,119,-260,-58,-291,-35,152,-90
-156,41,197,57,-177,119,-245,-26,-271,-22,161,-82
-153,36,188,58,-170,112,-214,0,-265,-27,141,-102
-111,57,169,27,-140,113,-170,173,-129,50,217,-56
179,164,-15,-172,97,74,-274,189,-28,208,385,81
976,521,-454,-748,715,33,-980,-231,-138,397,678,396
1382,692,-691,-1037,1037,0,-1500,-483,-352,323,702,502
521,366,-154,-443,337,106,-1164,-769,-720,-145,251,160
-180,56,236,62,-208,146,-667,-709,-750,-312,42,-77
-195,-33,162,114,-178,64,-300,-190,-429,-184,70,-121
-209,8,217,100,-213,112,-170,-10,-260,-83,138,-91
-181,47,228,67,-205,137,-156,62,-185,-22,208,-66
-183,61,244,61,-214,152,-124,98,-155,-22,200,-72
-180,69,249,55,-215,159,-131,97,-146,-6,212,-59
-165,68,233,48,-199,150,-115,115,-136,-7,212,-58
-160,74,234,42,-198,154,-114,114,-130,1,213,-50
-142,76,219,33,-181,147,-105,148,-113,7,222,-45
-139,79,218,30,-179,148,-101,169,-93,10,237,-36
-118,89,207,14,-163,148,-95,198,-66,29,250,-27
-94,109,203,-8,-149,156,-89,236,-31,43,264,-19
-85,111,196,-13,-140,153,-84,285,9,62,281,-6
-65,123,189,-29,-127,156,-69,356,53,87,303,11
-33,150,183,-59,-108,166,-46,436,122,132,335,35
-2,179,181,-88,-92,180,-13,520,192,189,379,75
29,217,189,-123,-80,203,7,607,253,230,417,100
45,236,191,-141,-73,213,29,653,297,256,439,116
54,251,197,-153,-72,224,30,663,312,259,453,133
63,273,210,-168,-74,241,17,633,307,251,452,126
61,270,209,-166,-74,240,3,545,259,234,446,116
39,245,206,-142,-84,225,-39,414,165,178,406,111
-9,194,203,-93,-107,199,-79,275,54,97,341,85
-65,135,200,-35,-133,167,-104,163,-42,25,284,37
-109,90,199,9,-154,144,-119,83,-106,-30,230,0
-140,51,191,45,-166,121,-133,33,-150,-67,200,-19
-148,35,182,56,-165,108,-143,6,-173,-84,192,-31
-146,30,176,58,-162,103,-146,4,-183,-91,186,-37
-153,21,174,65,-163,97,-145,6,-194,-95,178,-36
-156,15,171,71,-164,93,-138,4,-192,-91,170,-34
-162,6,168,78,-165,87,-135,6,-185,-90,167,-35
-154,12,165,71,-160,88,-130,3,-183,-90,170,-35
-141,23,163,59,-152,93,-125,-2,-176,-90,175,-35
-139,20,159,59,-149,89,-121,-8,-176,-90,175,-38
-133,20,153,56,-143,86,-120,-13,-182,-91,175,-40
-130,20,150,55,-140,85,-120,-19,-190,-95,175,-40
-125,20,145,52,-135,82,-120,-24,-199,-95,175,-40
-120,20,140,50,-130,80,-120,-22,-202,-95,175,-40
-123,20,143,51,-133,81,-121,-20,-205,-95,172,-40
-126,20,146,52,-136,82,-125,-20,-208,-94,166,-40
-129,20,149,55,-139,84,-125,-15,-212,-96,162,-40
-131,20,151,55,-141,86,-127,-15,-214,-94,157,-40
-136,20,155,57,-145,87,-131,-16,-218,-99,153,-40
-133,21,154,56,-143,87,-130,-25,-220,-111,148,-40
-131,19,149,56,-140,84,-130,-34,-223,-110,145,-40
-125,25,151,50,-138,88,-130,-34,-232,-110,145,-40
-107,41,147,33,-127,94,-130,-37,-235,-110,144,-40
-105,40,145,32,-125,92,-130,-35,-240,-110,146,-40
-106,39,145,33,-126,92,-129,-27,-235,-107,144,-41
-101,41,142,30,-121,91,-130,-20,-225,-94,150,-38
-93,41,134,26,-113,87,-111,-14,-212,-84,170,-24
-52,76,128,-12,-90,102,-96,20,-175,-59,196,-2
-2,98,100,-49,-51,99,-94,57,-143,-39,227,15
9,82,73,-46,-32,77,-97,49,-147,-38,211,9
-25,72,97,-24,-61,85,-145,7,-200,-64,182,-4
-56,55,112,0,-84,83,-162,-42,-238,-100,175,-15
-83,44,127,19,-105,86,-148,-58,-247,-103,165,-24
-122,21,142,50,-132,82,-142,-53,-246,-98,159,-28
-136,2,138,67,-137,70,-128,-61,-247,-102,149,-37
-143,7,150,68,-147,78,-122,-59,-253,-111,147,-41
-146,2,148,72,-148,75,-111,-56,-252,-121,142,-51
-133,12,145,60,-139,79,-113,-54,-243,-113,147,-48
-131,5,136,63,-134,71,-100,-43,-240,-113,143,-56
-123,16,139,53,-131,77,-106,-49,-234,-108,145,-55
-146,-20,126,83,-136,53,-81,-28,-227,-104,145,-61
-154,-33,121,93,-138,44,-49,15,-211,-92,131,-60
-67,10,78,28,-72,44,-10,210,-60,17,223,16
305,140,-165,-222,234,-13,-221,131,-8,180,408,185
1165,518,-647,-842,906,-64,-1002,-261,-122,385,708,511
1286,552,-735,-919,1010,-91,-1326,-492,-377,209,609,502
324,209,-115,-266,219,47,-891,-801,-741,-253,149,134
-179,-39,141,109,-160,51,-430,-602,-665,-322,42,-44
-198,-135,63,166,-130,-36,-91,-94,-343,-200,65,-78
-206,-73,133,139,-169,30,6,33,-215,-107,120,-51
-165,-33,131,99,-148,49,17,89,-160,-54,176,-21
-152,-8,144,80,-148,68,40,92,-136,-42,166,-13
-144,-2,142,73,-143,70,40,108,-126,-31,181,-6
-153,-8,145,80,-148,69,49,126,-119,-29,178,-8
-142,3,144,69,-143,73,43,137,-111,-22,185,-1
-132,-2,130,67,-131,64,56,160,-93,-16,191,-1
-123,2,125,60,-124,63,65,174,-72,1,209,4
-103,7,110,48,-107,59,67,213,-42,17,216,16
-91,14,105,38,-99,60,81,253,-13,41,230,27
-75,21,97,27,-86,59,97,307,18,60,253,37
-64,27,91,18,-78,59,117,373,69,86,266,45
-47,37,84,5,-66,60,141,458,133,129,297,67
1,78,77,-40,-38,77,157,539,203,180,335,103
41,118,77,-80,-19,98,178,613,265,233,377,134
59,141,81,-100,-11,111,198,663,307,259,407,162
73,159,86,-117,-7,123,199,657,318,261,403,168
69,158,90,-114,-11,124,187,607,288,251,388,160
60,140,81,-100,-11,110,166,510,223,226,374,159
56,124,68,-90,-7,96,133,372,124,174,341,151
17,75,57,-46,-20,66,94,239,29,101,279,112
-58,5,62,26,-60,33,69,137,-44,32,220,63
-97,-29,68,63,-82,19,60,63,-102,-16,176,29
-116,-56,60,86,-88,2,51,16,-140,-48,143,16
-132,-78,54,105,-93,-12,50,-4,-161,-65,133,13
-130,-82,47,106,-88,-17,50,-10,-160,-68,129,7
-132,-91,41,111,-86,-25,50,-16,-160,-65,124,1
-124,-89,35,106,-79,-27,50,-19,-157,-65,120,-4
-122,-92,30,107,-76,-31,49,-14,-154,-63,115,-2
-137,-112,26,124,-81,-43,54,-11,-155,-59,119,4
-137,-116,21,126,-79,-47,55,-8,-151,-61,123,9
-131,-114,17,122,-73,-49,56,-3,-148,-56,128,12
-127,-115,12,121,-69,-51,59,0,-145,-55,129,18
-125,-115,10,120,-67,-52,61,-3,-143,-55,124,19
-125,-115,10,120,-67,-52,58,-8,-139,-51,121,15
-125,-114,11,120,-67,-51,55,-11,-143,-50,117,15
-135,-126,9,130,-72,-58,55,-15,-145,-51,113,13
-143,-131,12,137,-77,-60,53,-19,-146,-55,110,9
-126,-129,-4,127,-61,-66,49,-21,-150,-55,107,10
-117,-130,-13,124,-52,-72,50,-28,-150,-55,104,13
-141,-130,11,135,-76,-59,64,-34,-156,-55,101,16
-146,-130,16,138,-81,-57,72,-33,-163,-55,98,19
-146,-140,6,143,-76,-67,69,-28,-163,-52,95,22
-149,-147,2,148,-75,-72,70,-34,-158,-47,96,24
-136,-142,-6,139,-64,-74,70,-41,-155,-45,100,27
-141,-153,-12,147,-64,-82,70,-40,-152,-40,103,30
-134,-153,-19,144,-58,-86,65,-40,-146,-38,106,32
-110,-146,-36,128,-37,-91,73,-40,-146,-31,110,35
-86,-130,-44,108,-21,-87,98,-38,-131,-15,114,46
-38,-90,-51,64,7,-70,106,6,-119,20,144,75
-2,-80,-78,41,38,-79,105,39,-120,56,167,90
-13,-94,-81,53,34,-87,81,0,-120,21,140,74
-54,-128,-74,92,10,-101,42,-46,-148,-20,120,60
-83,-156,-73,120,-5,-114,50,-78,-170,-33,108,48
-102,-170,-68,136,-17,-118,73,-82,-169,-51,98,38
-115,-182,-68,149,-23,-125,76,-78,-172,-55,92,33
-122,-183,-61,152,-30,-122,75,-84,-176,-60,87,30
-134,-196,-62,165,-35,-129,81,-75,-173,-64,84,27
-143,-201,-58,172,-42,-130,80,-86,-172,-69,76,21
-136,-204,-68,171,-33,-136,79,-69,-162,-60,79,21
-144,-207,-63,176,-40,-135,84,-78,-165,-63,68,23
-142,-206,-65,175,-38,-135,89,-56,-152,-53,93,35
-146,-215,-69,181,-38,-141,125,-25,-157,-56,76,19
-155,-199,-45,177,-55,-121,159,62,-86,-23,97,39
35,-150,-185,57,110,-167,125,206,74,125,240,138
712,159,-554,-435,633,-197,-433,-82,36,356,529,429
1340,435,-905,-887,1122,-235,-1111,-353,-120,432,713,669
801,220,-581,-510,690,-180,-958,-632,-477,11,335,402
-26,-108,-81,67,28,-94,-464,-816,-698,-320,-17,89
-185,-289,-104,237,-40,-196,-71,-338,-418,-234,-26,-11
-203,-295,-92,249,-55,-193,144,-54,-204,-136,22,-19
-185,-231,-46,208,-69,-138,157,-12,-145,-69,76,27
-169,-216,-46,193,-61,-131,174,55,-97,-40,91,34
-158,-201,-43,180,-57,-122,168,54,-76,-23,117,66
-135,-199,-64,168,-36,-131,170,85,-51,-14,116,66
-131,-190,-59,161,-36,-124,171,88,-44,-8,112,63
-115,-184,-69,150,-23,-126,168,111,-31,2,120,68
-112,-179,-67,145,-22,-123,172,130,-19,9,124,60
-98,-170,-72,134,-13,-121,175,151,6,38,144,79
-79,-164,-85,122,3,-124,191,193,44,56,158,91
-61,-152,-91,106,16,-122,200,240,74,74,175,106
-43,-133,-90,88,24,-111,211,305,114,112,200,122
-24,-114,-90,69,33,-101,242,385,174,149,230,138
6,-81,-87,38,47,-84,268,473,245,192,263,166
44,-40,-84,-2,65,-62,280,554,312,240,298,186
86,0,-86,-43,86,-43,302,621,363,285,339,223
120,31,-89,-75,104,-29,316,642,385,308,360,250
122,32,-90,-77,106,-29,308,615,377,295,355,239
109,19,-89,-64,99,-35,294,540,334,279,351,230
95,5,-90,-50,93,-42,248,407,242,233,317,222
59,-31,-90,-14,74,-60,196,272,140,158,261,196
9,-83,-92,38,51,-88,175,162,56,98,221,155
-30,-133,-103,82,37,-118,161,83,-8,38,172,121
-61,-165,-105,114,22,-135,153,27,-53,-5,128,101
-76,-182,-106,130,15,-144,142,3,-89,-18,110,96
-92,-202,-110,147,9,-156,135,5,-98,-27,94,92
-98,-208,-110,153,7,-159,136,0,-94,-37,95,87
-84,-204,-120,144,18,-161,133,-2,-96,-36,103,82
-83,-205,-122,145,20,-163,130,-6,-91,-30,107,81
-86,-205,-119,145,17,-161,130,-3,-90,-26,112,85
-87,-205,-118,146,16,-161,132,1,-90,-21,115,87
-93,-206,-113,150,10,-159,140,-1,-85,-16,122,90
-91,-210,-119,151,14,-164,144,4,-82,-17,125,93
-73,-210,-137,142,32,-173,141,5,-78,-22,125,95
-72,-210,-138,141,33,-174,138,4,-75,-25,125,92
-80,-210,-130,145,25,-170,136,0,-70,-28,125,87
-83,-210,-127,147,22,-168,132,-1,-72,-33,125,84
-91,-210,-119,151,14,-164,130,0,-80,-35,123,80
-95,-210,-115,153,10,-162,127,-1,-85,-35,119,77
-83,-210,-127,147,22,-168,125,0,-85,-35,117,73
-81,-210,-129,145,24,-169,130,-2,-85,-35,114,70
-89,-210,-121,150,16,-165,130,-7,-85,-35,111,70
-89,-209,-119,149,15,-164,126,-10,-85,-35,109,70
-91,-204,-113,148,11,-158,124,-13,-87,-35,105,70
-89,-198,-110,143,11,-154,120,-18,-90,-35,100,70
-89,-195,-105,143,8,-150,119,-20,-91,-35,95,70
-88,-190,-101,139,7,-145,131,-15,-96,-35,92,70
-87,-186,-99,137,6,-142,140,-11,-95,-35,85,69
-85,-178,-93,132,4,-135,142,-6,-85,-35,88,71
-71,-163,-92,117,11,-127,144,-2,-70,-28,93,67
-64,-152,-88,108,12,-120,150,8,-53,-14,103,86
-26,-155,-129,90,52,-142,154,53,-16,21,141,120
16,-157,-173,71,95,-165,162,74,23,39,155,118
2,-160,-162,79,82,-161,141,41,-12,16,138,100
-27,-179,-152,103,63,-166,98,0,-59,-12,106,86
-55,-194,-140,125,43,-167,101,-30,-77,-39,77,77
-77,-200,-123,139,24,-161,121,-30,-87,-45,74,75
-93,-208,-115,151,11,-161,126,-31,-84,-45,65,68
-98,-203,-105,150,4,-154,125,-38,-86,-45,58,66
-101,-206,-105,154,3,-155,131,-31,-84,-44,52,60
-110,-205,-96,158,-7,-150,129,-30,-87,-47,42,62
-106,-203,-96,155,-4,-149,126,-13,-76,-40,43,69
-121,-209,-88,165,-16,-148,122,-15,-78,-45,34,59
-95,-190,-95,143,0,-142,126,2,-57,-32,43,74
-124,-226,-102,175,-11,-164,168,21,-45,-53,24,49
-116,-220,-104,168,-6,-162,219,166,55,25,75,76
134,-118,-252,-8,193,-185,150,242,191,183,227,199
839,195,-644,-517,742,-224,-474,-141,100,372,500,487
1434,444,-990,-939,1212,-273,-1098,-426,-96,411,627,682
774,183,-590,-479,682,-203,-895,-697,-451,-43,208,364
-32,-137,-105,85,36,-121,-388,-742,-583,-309,-96,85
-130,-268,-138,199,4,-203,4,-236,-273,-186,-65,57
-159,-254,-96,206,-31,-175,192,25,-70,-98,-37,51
-143,-203,-60,173,-41,-131,217,86,-5,-35,15,67
-141,-195,-54,168,-43,-124,231,116,33,-10,35,66
-131,-178,-47,154,-41,-112,232,124,50,12,46,87
-106,-181,-75,144,-15,-128,241,153,57,20,47,90
-107,-172,-65,139,-20,-118,240,146,58,24,50,89
-102,-170,-69,137,-17,-119,239,168,80,26,51,91
-97,-159,-62,129,-18,-110,241,185,105,29,56,89
-84,-144,-60,114,-11,-102,239,220,129,54,69,91
-71,-132,-61,101,-5,-96,244,257,155,74,77,97
-43,-113,-70,79,13,-91,259,310,198,102,108,112
-17,-94,-76,56,30,-85,268,382,250,130,132,130
5,-69,-74,33,40,-71,284,455,305,163,157,142
28,-48,-76,10,52,-61,308,543,377,211,190,156
66,-8,-74,-29,71,-41,328,629,452,267,229,198
108,33,-75,-70,91,-21,350,690,507,312,273,229
139,65,-74,-102,106,-4,352,700,528,314,290,247
134,69,-64,-101,99,2,346,672,509,314,292,249
127,64,-63,-95,95,1,318,591,470,295,274,233
114,49,-65,-81,90,-8,271,450,389,227,224,218
66,0,-65,-33,65,-32,230,304,275,152,172,181
24,-46,-69,11,47,-57,201,179,189,84,120,139
-23,-93,-71,58,24,-81,184,100,130,31,68,103
-57,-125,-68,91,6,-96,175,50,83,-3,23,67
-84,-150,-65,118,-9,-107,172,7,61,-29,4,46
-101,-166,-65,134,-18,-115,165,-11,59,-48,4,45
-98,-164,-65,131,-16,-114,160,-9,56,-54,0,45
-101,-166,-65,134,-18,-115,155,-4,54,-58,-2,45
-104,-169,-65,137,-19,-116,150,-2,50,-59,-6,45
-102,-170,-68,136,-17,-119,150,3,51,-53,-3,46
-98,-169,-70,134,-14,-119,150,4,65,-49,1,51
-94,-164,-70,129,-11,-116,150,1,71,-44,0,56
-90,-159,-69,125,-11,-114,150,-2,74,-41,4,59
-89,-154,-65,122,-12,-110,147,-5,72,-35,6,65
-88,-150,-63,119,-12,-106,144,-8,69,-39,4,68
-86,-145,-60,115,-12,-102,145,-10,70,-40,1,65
-85,-141,-56,114,-14,-98,145,-12,69,-43,-2,65
-85,-139,-55,112,-15,-97,145,-20,70,-60,-4,62
-84,-136,-52,110,-16,-93,145,-25,69,-61,-8,59
-84,-134,-49,109,-17,-91,145,-30,64,-60,-10,60
-79,-129,-51,104,-14,-90,145,-33,59,-58,-12,56
-82,-132,-49,107,-16,-91,145,-36,54,-54,-23,55
-94,-145,-51,119,-21,-97,145,-34,50,-55,-30,55
-93,-142,-48,118,-22,-95,145,-37,45,-55,-30,55
-92,-136,-44,114,-23,-90,142,-50,49,-55,-32,54
-95,-133,-38,114,-28,-85,140,-50,60,-55,-35,57
-92,-127,-34,110,-29,-80,138,-46,65,-55,-36,60
-94,-125,-31,110,-31,-77,136,-43,65,-55,-32,60
-92,-115,-23,104,-34,-69,133,-41,65,-55,-23,61
-77,-110,-33,94,-22,-71,148,-35,71,-38,-11,58
-58,-91,-32,75,-13,-61,171,-21,96,-18,-4,77
0,-59,-59,29,30,-59,179,20,139,14,22,106
56,-46,-102,-5,79,-74,174,51,164,55,38,122
33,-59,-93,14,63,-76,152,17,148,32,10,103
-34,-114,-80,74,23,-97,139,-26,105,0,-10,71
-77,-145,-68,111,-4,-107,138,-59,69,-13,-20,63
-85,-137,-52,111,-16,-94,132,-75,70,-30,-32,50
-102,-144,-42,123,-30,-93,131,-78,70,-37,-46,41
-113,-145,-32,129,-40,-89,124,-83,64,-38,-52,40
-111,-144,-33,127,-39,-88,128,-76,66,-32,-48,41
-120,-144,-24,133,-48,-84,138,-84,64,-34,-51,38
-109,-134,-24,122,-42,-79,138,-76,75,-24,-42,43
-123,-141,-18,132,-52,-79,144,-81,75,-30,-48,36
-108,-124,-16,116,-46,-69,139,-55,87,-18,-44,41
-128,-141,-13,134,-58,-77,169,-37,87,-25,-57,24
-133,-141,-8,137,-62,-75,216,48,163,15,-22,33
50,-67,-117,9,84,-92,213,186,315,157,90,119
674,195,-479,-435,576,-142,-300,-152,248,340,328,366
1421,508,-913,-965,1167,-202,-1038,-503,53,430,536,619
966,326,-639,-645,802,-156,-978,-741,-277,48,187,384
80,-26,-105,-27,93,-65,-470,-878,-479,-288,-180,65
-135,-188,-53,162,-41,-120,-53,-419,-213,-205,-174,-20
-200,-205,-5,202,-97,-104,178,-86,35,-97,-142,-38
-165,-130,36,147,-100,-47,205,-17,114,-22,-79,17
-134,-110,24,122,-79,-43,232,35,151,0,-64,30
-133,-97,36,115,-84,-30,245,40,163,8,-58,38
-118,-93,25,106,-71,-34,245,83,182,18,-48,41
-120,-86,34,103,-77,-26,245,88,191,20,-48,40
-105,-78,27,92,-66,-25,244,114,204,32,-37,47
-101,-75,26,87,-63,-24,245,131,215,42,-43,44
-74,-57,17,65,-45,-20,248,156,237,63,-32,56
-54,-43,11,49,-32,-16,256,199,260,81,-2,64
-36,-32,5,34,-20,-13,262,243,297,103,23,75
-16,-19,-3,18,-6,-11,274,306,345,134,44,92
-2,-4,-3,3,1,-4,288,385,400,168,69,108
18,21,2,-20,7,11,309,472,461,216,100,126
52,59,8,-56,22,33,330,546,531,268,143,158
94,105,11,-99,41,58,345,610,588,309,182,192
124,140,17,-132,53,78,342,632,606,333,204,209
125,145,20,-135,52,82,338,609,600,325,201,206
108,139,31,-124,38,85,332,552,561,312,194,196
86,124,37,-105,24,80,295,428,477,271,171,190
60,92,33,-76,13,62,249,274,371,194,119,170
16,47,31,-31,-8,38,214,148,279,128,67,129
-36,-9,27,23,-31,9,192,60,207,68,16,83
-74,-49,25,60,-49,-12,183,5,153,24,-30,56
-95,-72,23,83,-59,-24,178,-32,121,4,-62,51
-100,-81,19,91,-60,-31,174,-53,104,-10,-76,46
-100,-79,20,90,-60,-30,170,-57,98,-12,-76,43
-100,-80,20,90,-60,-30,165,-55,95,-9,-75,37
-100,-80,20,90,-60,-30,168,-55,92,-11,-75,36
-100,-80,19,90,-60,-30,174,-51,87,-10,-75,40
-93,-78,16,85,-54,-31,175,-49,85,-10,-75,40
-88,-74,14,81,-50,-30,175,-52,89,-10,-77,40
-85,-75,10,80,-47,-32,179,-55,93,-10,-80,40
-83,-75,8,79,-45,-33,180,-55,101,-10,-83,40
-79,-75,4,77,-41,-36,178,-57,101,-10,-85,36
-83,-75,9,79,-46,-33,175,-61,97,-10,-89,35
-97,-70,27,84,-62,-21,172,-59,96,-10,-90,35
-102,-70,31,86,-66,-19,170,-61,92,-16,-90,30
-98,-69,29,84,-64,-20,166,-60,90,-23,-90,30
-95,-65,30,80,-62,-17,165,-60,87,-29,-91,29
-96,-66,30,81,-62,-17,162,-74,81,-36,-104,24
-92,-63,29,77,-60,-16,157,-82,76,-42,-115,18
-92,-59,33,76,-63,-13,154,-89,71,-48,-122,15
-94,-60,33,77,-63,-13,150,-98,64,-50,-129,10
-88,-60,29,74,-58,-15,146,-97,61,-53,-130,6
-92,-60,31,76,-62,-15,144,-104,64,-56,-130,8
-87,-59,27,73,-57,-16,147,-104,65,-59,-130,12
-95,-56,39,75,-67,-8,142,-106,68,-61,-130,13
-110,-54,56,82,-83,1,153,-112,71,-53,-131,17
-112,-57,56,84,-84,-1,172,-108,71,-46,-128,19
-98,-48,51,73,-74,1,174,-94,82,-40,-118,21
-63,-12,51,38,-57,19,179,-64,101,-28,-100,37
-26,15,41,5,-34,28,191,-41,133,-9,-85,53
25,24,-1,-25,12,12,195,5,159,26,-58,64
36,26,-10,-31,22,8,161,-5,131,9,-71,49
-1,3,4,-1,-3,3,135,-86,99,-50,-116,25
-39,-25,14,32,-26,-5,145,-108,91,-69,-130,20
-84,-37,47,61,-65,5,143,-110,79,-72,-147,12
-111,-51,59,81,-85,4,140,-110,71,-83,-157,6
-118,-57,62,87,-89,2,140,-110,63,-90,-165,-2
-118,-53,65,85,-91,6,139,-126,67,-93,-169,-3
-120,-57,63,88,-91,3,142,-142,63,-109,-177,-2
-112,-53,60,83,-86,3,136,-138,67,-99,-172,3
-113,-58,56,85,-84,-1,147,-131,63,-101,-179,1
-114,-58,56,86,-85,-1,143,-136,69,-93,-178,9
-117,-69,47,93,-82,-11,156,-111,78,-90,-180,-5
-130,-76,54,103,-92,-11,196,-40,109,-87,-180,-8
-34,-40,-6,37,-14,-22,231,134,269,37,-78,52
461,174,-287,-318,374,-56,-93,-52,280,209,129,247
1335,546,-789,-940,1062,-121,-864,-466,113,377,400,569
1258,509,-749,-884,1002,-119,-1051,-706,-183,115,197,460
245,129,-116,-186,180,6,-593,-932,-490,-332,-263,87
-176,-79,96,127,-136,9,-157,-615,-335,-334,-337,-50
-173,-104,69,138,-121,-17,143,-158,-24,-205,-285,-60
-159,-61,98,110,-129,18,213,-68,100,-117,-229,-13
-115,-27,88,71,-101,30,225,-8,150,-80,-192,-7
-111,-11,100,61,-105,44,237,3,158,-73,-192,-7
-100,-6,94,52,-96,44,233,24,177,-56,-188,1
-95,0,95,47,-95,47,237,43,191,-53,-189,0
-74,8,82,32,-78,45,233,58,199,-36,-183,8
-61,14,75,24,-68,44,236,81,214,-28,-186,9
-54,12,66,21,-60,38,235,101,234,-14,-177,18
-46,10,56,18,-51,33,235,128,265,2,-167,24
-27,27,54,0,-41,40,235,157,296,26,-158,29
-5,42,46,-19,-26,44,242,212,336,55,-144,45
9,53,44,-32,-18,49,252,285,387,87,-116,64
52,90,38,-71,7,64,276,374,451,143,-80,86
97,132,35,-115,30,84,301,463,527,198,-44,123
123,162,40,-143,41,101,321,546,595,249,-5,153
149,193,43,-171,53,118,328,583,622,280,11,175
154,204,49,-179,52,126,315,581,620,280,19,182
149,204,56,-177,46,130,311,529,616,276,13,171
152,207,55,-180,48,131,286,401,548,235,-18,165
114,169,55,-142,29,112,240,258,443,168,-61,145
58,114,55,-87,2,84,203,125,347,104,-128,99
21,76,54,-49,-16,64,179,24,265,36,-191,47
-23,35,59,-7,-41,47,170,-47,212,-10,-240,10
-48,13,61,17,-54,37,160,-93,183,-36,-271,-2
-60,0,60,30,-60,30,150,-112,173,-59,-292,-8
-72,-13,59,42,-65,23,144,-120,171,-61,-302,-18
-76,-21,55,48,-65,16,141,-121,167,-59,-305,-24
-84,-29,55,56,-70,13,138,-125,163,-60,-315,-30
-78,-26,53,52,-65,13,133,-127,160,-60,-320,-29
-71,-21,49,46,-60,14,130,-131,158,-59,-320,-31
-69,-19,51,44,-60,16,126,-127,172,-55,-320,-35
-60,-14,46,37,-53,16,124,-125,181,-53,-320,-35
-56,-11,45,33,-50,16,125,-125,179,-50,-320,-35
-53,-8,45,30,-49,19,125,-125,178,-46,-321,-35
-48,-4,45,25,-46,21,125,-125,174,-45,-327,-35
-45,0,45,22,-45,22,123,-125,175,-49,-339,-35
-42,3,45,19,-43,24,120,-130,171,-51,-347,-35
-38,8,46,14,-42,27,117,-133,167,-54,-350,-35
-34,10,44,11,-39,26,115,-138,164,-55,-354,-45
-47,5,52,21,-50,28,112,-147,161,-55,-362,-59
-65,0,66,32,-66,33,109,-152,156,-55,-375,-65
-68,-4,64,36,-66,30,114,-155,156,-55,-384,-65
-69,-3,66,36,-67,31,115,-150,162,-55,-384,-67
-70,1,71,34,-70,36,115,-150,169,-55,-387,-72
-65,4,69,30,-67,36,115,-149,173,-58,-390,-75
-66,8,74,29,-70,40,115,-144,175,-60,-390,-80
-66,11,77,27,-72,44,115,-146,175,-60,-398,-88
-61,14,75,23,-68,44,114,-142,174,-60,-396,-88
-59,16,75,21,-68,46,116,-138,176,-61,-394,-81
-59,13,72,23,-66,42,114,-133,174,-58,-389,-75
-44,25,69,10,-57,47,116,-129,200,-54,-387,-67
-11,60,71,-25,-41,65,114,-123,228,-35,-382,-61
26,75,49,-51,-11,62,121,-117,268,-5,-363,-65
58,75,17,-67,20,46,134,-100,304,20,-352,-70
63,73,10,-68,26,41,97,-103,272,8,-358,-73
48,48,0,-48,24,24,71,-152,247,-36,-386,-78
3,22,18,-13,-8,20,74,-176,236,-60,-403,-82
-64,6,70,29,-67,38,66,-175,223,-71,-412,-94
-84,-8,76,45,-80,34,67,-174,226,-86,-426,-111
-76,-4,72,40,-73,33,57,-177,223,-83,-425,-112
-66,3,69,32,-67,36,71,-173,227,-78,-423,-108
-63,3,67,29,-65,35,88,-176,222,-83,-427,-113
-51,13,64,19,-58,38,81,-169,228,-76,-421,-107
-60,11,71,25,-66,41,94,-167,227,-85,-427,-114
-60,15,75,22,-68,44,84,-168,232,-74,-414,-104
-74,-13,61,43,-67,24,101,-148,233,-83,-418,-102
-83,-14,69,49,-76,27,128,-89,309,-47,-393,-90
92,58,-34,-75,63,12,119,34,471,95,-283,-17
718,321,-397,-519,558,-38,-336,-241,413,271,-50,224
1483,643,-840,-1062,1162,-99,-1096,-627,200,368,161,480
1058,465,-593,-761,825,-64,-1078,-872,-133,-9,-175,256
99,110,12,-104,43,60,-566,-1010,-338,-368,-560,-68
-124,-35,89,80,-107,26,-157,-561,-78,-283,-550,-155
-111,-64,46,87,-78,-9,97,-184,193,-155,-493,-159
-82,-6,76,44,-79,35,126,-119,288,-74,-436,-115
-81,19,100,31,-91,60,147,-65,328,-50,-430,-117
-81,32,112,24,-97,72,146,-75,333,-38,-421,-107
-54,35,89,9,-72,62,143,-53,352,-26,-407,-100
-49,37,86,5,-68,62,144,-47,364,-19,-405,-96
-28,42,70,-7,-49,56,137,-14,380,-6,-393,-87
-29,38,67,-5,-48,52,143,13,395,0,-391,-84
-15,46,61,-16,-39,53,143,32,410,10,-380,-74
-11,44,55,-17,-34,49,151,68,435,19,-377,-70
-5,46,51,-21,-28,48,153,110,461,36,-364,-61
19,63,44,-41,-13,53,158,174,499,70,-340,-57
52,93,41,-72,5,67,164,250,556,114,-310,-44
94,132,38,-113,28,85,190,349,622,162,-275,-17
127,162,35,-145,45,98,211,440,690,209,-243,2
158,191,33,-175,62,112,224,515,746,256,-213,18
188,217,29,-203,80,123,234,547,776,279,-196,38
199,234,35,-217,82,135,219,518,771,267,-188,42
191,234,42,-213,74,138,204,453,744,257,-186,29
181,221,40,-201,71,130,180,338,669,225,-215,21
155,195,40,-175,57,117,140,183,561,155,-276,8
95,131,37,-113,29,84,103,53,461,81,-349,-34
40,74,34,-57,3,53,80,-16,386,25,-409,-85
1,37,36,-20,-17,36,75,-70,344,-7,-445,-118
-29,10,39,9,-34,24,70,-111,296,-36,-474,-129
-43,-3,41,23,-42,18,64,-132,265,-55,-499,-136
-46,-7,40,26,-42,16,58,-146,265,-68,-507,-148
-47,-8,39,27,-43,15,56,-155,264,-73,-501,-151
-52,-12,40,32,-46,14,60,-159,265,-65,-494,-149
-52,-14,38,33,-45,11,59,-155,264,-62,-487,-150
-50,-16,34,33,-42,9,62,-155,266,-57,-480,-150
-53,-22,31,38,-42,4,65,-154,270,-53,-475,-150
-55,-29,26,42,-41,-1,65,-150,269,-48,-470,-154
-58,-34,24,45,-40,-5,62,-150,272,-45,-470,-165
-55,-35,20,45,-37,-7,56,-152,275,-45,-469,-174
-56,-36,20,46,-38,-7,52,-156,275,-45,-464,-180
-57,-39,18,48,-37,-11,47,-155,271,-45,-466,-192
-55,-41,14,47,-35,-13,43,-159,264,-46,-462,-202
-54,-38,15,46,-34,-11,38,-160,257,-41,-460,-199
-46,-35,11,41,-28,-12,35,-160,250,-40,-460,-200
-45,-35,10,40,-27,-12,35,-165,244,-40,-456,-200
-43,-33,10,38,-26,-11,35,-165,238,-35,-454,-199
-39,-29,10,34,-25,-9,35,-165,235,-35,-456,-201
-40,-30,10,35,-25,-10,35,-167,232,-36,-465,-205
-53,-41,11,47,-32,-15,32,-189,230,-46,-461,-208
-68,-43,24,55,-46,-9,27,-210,227,-46,-456,-210
-74,-35,39,54,-56,2,24,-213,224,-45,-452,-222
-74,-32,42,53,-58,5,21,-210,229,-45,-447,-226
-63,-24,39,43,-51,8,16,-207,230,-40,-443,-220
-62,-22,40,42,-51,9,16,-205,230,-40,-437,-220
-60,-25,35,42,-47,5,20,-201,234,-39,-433,-215
-48,-12,36,29,-41,12,21,-200,235,-42,-425,-215
-33,1,33,16,-33,17,19,-189,236,-21,-423,-205
7,26,19,-17,-6,22,32,-159,243,17,-400,-191
56,46,-9,-51,32,18,44,-105,252,52,-364,-180
82,42,-40,-62,61,1,28,-91,235,53,-358,-165
50,15,-35,-32,43,-10,15,-157,198,13,-385,-193
10,-16,-26,3,18,-20,10,-207,162,-14,-419,-225
-7,-15,-8,11,1,-11,5,-219,143,-35,-423,-232
-53,-31,22,42,-37,-4,-2,-222,137,-37,-418,-235
-80,-49,31,65,-56,-9,-5,-223,123,-35,-422,-236
-67,-42,25,54,-46,-8,-11,-226,124,-35,-414,-233
-79,-48,30,63,-54,-9,-3,-213,125,-35,-415,-231
-93,-39,54,66,-74,8,-4,-219,124,-36,-415,-229
-87,-41,46,64,-67,3,1,-202,127,-32,-406,-230
-94,-40,54,67,-74,6,5,-210,122,-30,-402,-231
-92,-44,47,68,-69,1,-1,-194,130,-7,-384,-227
-115,-64,51,90,-83,-6,38,-159,128,-10,-391,-238
-64,-28,36,46,-50,4,77,-41,244,68,-331,-208
227,51,-176,-139,201,-62,-12,22,362,224,-180,-109
1014,395,-620,-705,817,-112,-688,-368,248,410,113,178
1482,584,-898,-1033,1189,-157,-1252,-669,3,355,167,289
667,282,-385,-475,526,-52,-940,-932,-355,-97,-269,-35
-67,4,71,32,-69,37,-464,-922,-407,-280,-479,-272
-142,-131,10,136,-76,-60,-101,-392,-99,-163,-442,-337
-158,-101,57,129,-107,-22,56,-181,71,-67,-394,-316
-111,-36,75,73,-93,20,67,-125,149,-3,-320,-282
-108,-35,73,71,-90,18,88,-77,177,9,-306,-290
-100,-21,79,60,-89,29,74,-70,178,25,-283,-277
-87,-20,67,53,-77,23,88,-39,189,27,-274,-278
-83,-9,74,46,-78,32,83,-44,182,34,-261,-270
-72,-6,67,39,-69,30,87,-19,187,39,-245,-267
-62,2,63,30,-63,32,89,-2,195,47,-235,-258
-34,14,48,10,-41,31,92,37,220,61,-217,-246
-17,21,38,-2,-28,30,94,77,246,81,-196,-236
7,34,27,-21,-11,31,105,129,282,107,-167,-222
16,37,21,-27,-3,29,128,195,322,129,-142,-212
31,48,17,-40,7,32,131,268,367,166,-111,-192
67,77,11,-72,28,44,156,357,433,212,-63,-164
99,104,5,-102,47,54,180,437,497,259,-13,-126
148,149,1,-149,74,74,194,494,544,306,28,-85
170,181,10,-176,80,95,200,499,560,321,55,-72
143,170,27,-157,58,98,187,483,544,304,53,-77
126,158,32,-142,46,95,179,412,499,290,42,-73
120,148,28,-134,45,88,145,278,418,249,19,-80
87,112,25,-100,31,68,99,137,315,182,-15,-103
35,57,22,-46,6,39,61,17,211,115,-65,-141
-9,8,17,0,-14,12,41,-63,140,59,-113,-184
-48,-34,14,41,-31,-10,37,-127,100,22,-139,-212
-72,-61,11,67,-41,-25,28,-163,64,-7,-160,-231
-81,-73,8,77,-44,-32,22,-184,39,-16,-158,-236
-86,-80,6,82,-45,-37,13,-192,33,-14,-154,-238
-82,-80,2,81,-42,-39,14,-191,30,-15,-153,-240
-83,-83,0,83,-41,-41,15,-188,27,-15,-148,-235
-84,-86,-2,85,-40,-44,23,-185,22,-16,-146,-235
-74,-82,-8,79,-33,-45,31,-183,21,-12,-144,-233
-69,-80,-11,75,-29,-45,25,-179,24,-10,-138,-230
-60,-76,-16,68,-21,-46,23,-183,29,-10,-127,-230
-55,-75,-20,65,-17,-47,18,-186,31,-10,-121,-232
-54,-70,-15,63,-20,-42,16,-188,20,-10,-116,-235
-60,-72,-11,66,-24,-41,17,-191,8,-11,-111,-235
-71,-80,-9,75,-31,-44,25,-194,-3,-14,-105,-235
-77,-81,-4,79,-36,-42,36,-196,-11,-19,-100,-235
-78,-79,-1,78,-38,-40,31,-199,-17,-21,-95,-235
-79,-76,3,77,-41,-36,28,-201,-25,-26,-95,-235
-79,-74,5,76,-41,-34,25,-200,-30,-29,-95,-235
-83,-78,5,80,-44,-36,20,-200,-42,-33,-95,-232
-102,-97,5,99,-53,-46,18,-200,-58,-42,-96,-229
-108,-103,5,105,-56,-49,14,-198,-65,-41,-91,-230
-103,-98,5,100,-54,-46,12,-194,-65,-36,-77,-226
-90,-101,-11,96,-39,-56,9,-192,-65,-34,-63,-224
-84,-99,-15,92,-34,-57,6,-189,-65,-29,-55,-225
-97,-101,-4,99,-47,-52,5,-185,-65,-26,-51,-220
-100,-98,2,99,-51,-48,11,-185,-66,-22,-49,-218
-98,-88,10,93,-54,-39,18,-177,-69,-13,-44,-213
-79,-76,3,77,-41,-36,24,-168,-65,-2,-42,-212
-54,-59,-4,57,-25,-32,32,-157,-52,7,-32,-204
-21,-37,-16,30,-2,-26,33,-147,-22,28,3,-179
26,-19,-45,-3,36,-32,25,-139,15,58,35,-173
13,-37,-49,12,32,-43,20,-130,-8,37,21,-179
-24,-62,-38,43,7,-49,11,-167,-73,6,-7,-182
-39,-70,-32,55,-3,-51,-2,-196,-94,-2,-11,-186
-62,-83,-21,73,-20,-52,-10,-196,-95,-16,-16,-191
-82,-100,-19,91,-31,-59,-11,-204,-111,-32,-17,-199
-107,-120,-12,114,-48,-65,-4,-214,-123,-43,-24,-201
-124,-132,-8,128,-57,-70,-7,-219,-118,-36,-23,-198
-133,-139,-6,136,-63,-72,-3,-217,-121,-35,-21,-198
-135,-130,4,133,-69,-63,-7,-226,-121,-31,-12,-192
-123,-140,-16,132,-53,-78,-4,-211,-118,-25,-9,-197
-112,-131,-19,122,-46,-74,-1,-232,-124,-26,-3,-199
-99,-141,-42,120,-28,-91,13,-198,-108,-37,3,-203
-139,-154,-15,147,-62,-84,56,-169,-88,-47,-7,-204
-89,-115,-26,103,-31,-71,103,-21,56,63,79,-151
251,-3,-254,-123,252,-129,-38,28,175,242,263,-7
1051,375,-677,-712,864,-151,-756,-303,128,500,609,348
1334,496,-838,-915,1086,-171,-1181,-484,-63,425,615,418
492,169,-323,-330,407,-77,-808,-847,-494,-107,123,47
-98,-128,-30,114,-34,-79,-368,-860,-573,-294,-111,-186
-180,-249,-69,215,-55,-159,-12,-338,-252,-167,-80,-246
-190,-194,-3,192,-94,-98,115,-177,-88,-67,-6,-216
-145,-156,-11,151,-67,-83,120,-109,-23,-3,50,-188
-148,-139,9,143,-78,-65,146,-84,12,13,59,-179
-140,-129,11,134,-76,-58,134,-75,30,34,68,-162
-154,-133,21,143,-88,-55,146,-53,38,44,70,-160
-144,-123,21,133,-82,-51,143,-49,32,50,99,-147
-118,-123,-5,121,-56,-64,147,-6,43,59,114,-146
-97,-117,-20,108,-38,-69,152,16,54,75,120,-142
-68,-111,-43,90,-12,-77,159,45,64,96,136,-137
-59,-103,-44,82,-7,-74,160,66,89,107,138,-137
-40,-89,-49,65,4,-68,161,116,129,129,160,-120
-15,-66,-51,41,18,-58,171,178,170,162,204,-83
13,-41,-54,14,34,-47,191,255,233,197,235,-63
47,-9,-56,-19,52,-33,229,346,305,255,278,-37
69,27,-42,-48,55,-8,252,411,366,296,315,6
86,62,-23,-74,54,19,257,464,410,329,351,25
89,73,-16,-81,52,29,253,468,412,347,367,39
104,93,-11,-98,57,41,248,438,410,346,361,49
101,94,-6,-97,53,44,227,368,368,324,358,34
51,52,1,-51,25,26,184,240,269,268,328,24
13,17,4,-15,4,10,134,113,164,198,272,-5
-35,-35,0,35,-18,-17,98,2,73,122,209,-52
-87,-94,-7,91,-39,-50,87,-71,4,65,161,-93
-102,-113,-11,107,-45,-62,75,-123,-52,22,129,-120
-103,-125,-22,115,-40,-73,67,-146,-66,5,111,-121
-97,-143,-46,120,-25,-94,61,-150,-74,4,106,-125
-88,-140,-52,114,-18,-96,54,-163,-86,-4,101,-123
-92,-139,-47,116,-22,-93,48,-159,-92,-8,98,-119
-94,-141,-46,118,-24,-93,39,-156,-100,-14,92,-121
-98,-139,-42,119,-28,-90,55,-153,-103,-15,91,-116
-100,-140,-40,120,-30,-90,69,-148,-106,-15,98,-115
-99,-136,-37,118,-30,-87,62,-146,-104,-15,104,-114
-97,-132,-35,115,-31,-83,60,-140,-105,-15,104,-110
-98,-129,-32,114,-33,-80,56,-141,-105,-15,100,-110
-96,-125,-29,111,-33,-77,52,-138,-105,-16,97,-110
-96,-122,-26,109,-35,-73,49,-146,-109,-21,95,-110
-95,-119,-24,108,-36,-71,46,-165,-122,-24,91,-110
-82,-120,-38,102,-22,-79,43,-167,-142,-27,89,-112
-78,-126,-48,102,-15,-87,40,-170,-146,-32,90,-118
-88,-133,-44,111,-22,-88,37,-173,-145,-35,90,-122
-102,-144,-42,123,-30,-92,35,-179,-145,-40,90,-125
-106,-145,-39,125,-33,-92,33,-185,-147,-50,90,-125
-105,-140,-35,123,-35,-87,29,-185,-153,-56,89,-125
-103,-139,-35,121,-34,-87,30,-185,-158,-54,91,-125
-96,-135,-40,115,-27,-87,30,-185,-160,-58,95,-125
-93,-133,-40,113,-26,-86,30,-185,-159,-60,95,-125
-91,-130,-40,110,-25,-85,29,-183,-177,-60,95,-123
-87,-127,-40,107,-23,-83,26,-179,-187,-64,95,-116
-85,-125,-40,105,-22,-82,23,-181,-184,-65,94,-111
-79,-121,-42,100,-18,-81,20,-179,-185,-66,95,-104
-74,-120,-46,97,-14,-82,18,-181,-185,-69,94,-100
-73,-117,-44,95,-15,-80,14,-179,-185,-71,95,-93
-59,-109,-50,84,-5,-79,19,-170,-175,-68,95,-89
-55,-104,-49,80,-3,-76,34,-154,-159,-55,96,-78
-40,-92,-52,66,6,-72,49,-142,-147,-24,126,-46
-5,-81,-76,43,36,-78,51,-133,-138,11,151,-38
-1,-77,-75,39,37,-76,32,-121,-125,6,147,-40
-28,-91,-63,60,18,-77,19,-150,-156,-20,123,-50
-70,-127,-57,99,-6,-92,17,-174,-184,-45,94,-69
-83,-131,-49,107,-17,-90,13,-177,-180,-63,88,-74
-86,-133,-48,110,-18,-90,9,-179,-199,-67,92,-71
-93,-136,-43,115,-25,-89,7,-180,-207,-79,84,-71
-87,-126,-39,106,-24,-82,5,-180,-203,-77,88,-68
-91,-127,-37,110,-27,-82,16,-178,-206,-76,82,-68
-80,-114,-34,98,-23,-74,14,-184,-204,-72,82,-62
-76,-121,-45,98,-15,-83,25,-167,-204,-69,79,-68
-66,-103,-37,85,-14,-69,24,-162,-200,-70,75,-69
-72,-126,-53,99,-9,-89,30,-118,-185,-58,79,-70
-105,-146,-41,126,-32,-93,55,-101,-175,-71,66,-82
-40,-116,-76,78,18,-96,81,72,-22,35,164,-17
278,16,-262,-147,270,-122,-85,106,110,249,385,168
1016,423,-592,-719,804,-84,-787,-245,76,537,769,564
1222,508,-714,-864,967,-102,-1152,-429,-123,453,757,630
433,169,-264,-301,348,-47,-791,-771,-591,-129,204,215
-89,-132,-43,111,-23,-88,-369,-738,-676,-336,-58,-40
-150,-252,-103,202,-23,-177,-27,-235,-351,-217,-32,-103
-154,-185,-31,170,-61,-108,75,-101,-210,-124,45,-78
-127,-144,-17,136,-55,-80,83,-38,-148,-61,100,-38
-129,-115,14,122,-72,-50,96,-14,-112,-52,103,-27
-110,-99,11,104,-60,-43,87,-12,-103,-32,120,-19
-100,-93,7,96,-53,-42,103,7,-88,-29,119,-21
-96,-80,17,88,-56,-31,99,12,-79,-18,130,-12
-103,-79,23,91,-63,-28,106,44,-64,-7,130,-12
-94,-70,24,81,-58,-23,107,62,-50,10,135,-6
-65,-65,0,65,-33,-32,110,93,-24,24,141,8
-51,-51,0,51,-25,-25,110,122,0,35,147,21
-38,-40,-2,39,-18,-20,117,178,36,66,175,34
-24,-23,1,24,-13,-11,125,237,74,91,196,47
3,1,-2,-2,2,0,143,312,125,135,228,65
44,25,-18,-34,31,4,185,403,187,186,267,96
82,67,-15,-74,48,26,212,480,252,240,310,136
128,123,-5,-125,66,59,227,542,312,287,351,174
147,148,0,-148,73,74,221,551,311,288,354,192
141,148,7,-145,67,78,209,520,293,281,345,184
136,148,12,-142,62,79,193,444,259,268,344,170
106,125,19,-116,44,71,156,321,172,218,318,162
68,86,18,-77,25,52,108,180,70,140,263,140
35,46,11,-41,12,28,68,63,-27,70,211,101
-5,-1,4,3,-5,2,54,1,-93,21,155,58
-52,-55,-3,54,-25,-28,44,-47,-137,-21,117,31
-71,-80,-9,76,-31,-45,31,-82,-171,-53,101,27
-69,-84,-16,77,-26,-50,25,-92,-186,-54,88,24
-71,-90,-19,81,-26,-54,25,-91,-186,-49,90,21
-69,-90,-21,79,-24,-55,24,-86,-185,-50,90,16
-71,-90,-19,81,-26,-55,19,-84,-185,-50,89,16
-64,-86,-22,75,-21,-54,21,-79,-180,-50,90,21
-50,-85,-34,68,-7,-59,17,-76,-180,-50,90,19
-49,-85,-35,67,-6,-60,15,-72,-180,-53,87,23
-46,-81,-35,64,-6,-57,15,-70,-180,-56,84,25
-43,-78,-35,61,-4,-56,11,-70,-180,-54,85,25
-40,-75,-35,58,-2,-55,10,-70,-180,-56,84,28
-39,-73,-34,56,-2,-53,10,-70,-180,-54,85,31
-40,-69,-30,54,-5,-50,22,-71,-180,-56,84,34
-43,-73,-30,58,-6,-51,26,-74,-183,-62,77,37
-45,-75,-30,60,-7,-52,18,-77,-186,-65,72,40
-45,-75,-30,60,-7,-52,14,-80,-184,-68,67,39
-45,-75,-30,60,-7,-52,7,-83,-187,-69,61,34
-45,-75,-30,60,-7,-52,3,-89,-190,-87,56,31
-45,-75,-30,60,-7,-52,-3,-95,-190,-97,55,27
-40,-70,-31,55,-5,-50,-6,-100,-190,-94,55,23
-41,-70,-29,55,-6,-49,-4,-100,-190,-99,55,20
-37,-70,-33,53,-2,-52,-9,-100,-190,-100,55,16
-25,-70,-45,48,10,-57,-10,-100,-186,-99,55,15
-25,-70,-45,48,10,-57,-10,-100,-184,-95,56,15
-23,-68,-44,46,11,-56,-15,-98,-185,-95,60,15
-17,-62,-46,40,15,-54,-18,-91,-180,-94,59,14
-13,-57,-45,35,16,-51,-22,-87,-180,-89,60,16
-11,-54,-43,33,16,-49,-25,-79,-179,-91,59,20
-15,-48,-33,32,9,-40,-30,-76,-169,-88,60,24
-20,-47,-27,34,4,-36,-27,-64,-161,-80,60,29
10,-20,-30,5,20,-25,-17,-50,-140,-75,61,36
48,8,-40,-27,43,-16,-8,-34,-110,-80,90,64
78,4,-75,-41,76,-35,4,7,-83,-85,103,79
94,6,-88,-49,90,-41,-19,-12,-104,-88,87,67
57,-17,-74,-20,66,-45,-52,-64,-144,-93,68,61
18,-48,-66,15,42,-57,-49,-76,-152,-102,50,50
-7,-57,-49,32,21,-53,-47,-82,-162,-117,45,45
-32,-69,-37,51,3,-53,-44,-78,-161,-124,41,42
-45,-70,-25,58,-10,-47,-40,-82,-160,-128,32,37
-44,-69,-25,57,-9,-47,-40,-78,-160,-128,31,36
-51,-72,-20,61,-16,-46,-34,-81,-160,-134,20,28
-49,-67,-18,58,-15,-43,-35,-73,-159,-134,24,33
-57,-73,-16,66,-20,-44,-26,-65,-158,-134,16,27
-52,-66,-14,59,-19,-39,-30,-62,-147,-123,24,32
-31,-75,-44,53,6,-59,-16,-43,-144,-116,17,28
-18,-66,-48,42,16,-57,20,30,-95,-90,24,30
103,-22,-125,-40,114,-73,39,225,71,41,142,103
569,201,-368,-385,468,-83,-342,37,91,247,375,335
1327,555,-772,-940,1049,-108,-1101,-284,-24,446,675,658
1196,487,-709,-841,953,-111,-1225,-480,-315,168,456,526
315,136,-179,-225,247,-22,-765,-792,-685,-334,-32,145
-12,-86,-74,49,32,-80,-310,-506,-547,-366,-126,-3
-55,-132,-77,94,11,-104,-22,-82,-249,-225,-79,-37
-77,-79,-2,78,-37,-41,25,-14,-165,-146,-25,1
-58,-57,1,58,-30,-28,63,55,-110,-112,0,19
-71,-38,33,54,-52,-2,73,53,-92,-102,13,24
-53,-35,18,44,-35,-8,66,70,-78,-71,30,36
-53,-31,21,42,-37,-5,73,90,-66,-60,32,43
-40,-25,15,32,-27,-5,67,106,-54,-55,42,56
-34,-23,11,28,-22,-6,77,128,-37,-51,34,56
-26,-16,10,21,-18,-3,74,145,-27,-47,39,62
-12,-9,2,10,-7,-3,78,173,-7,-38,57,64
16,16,0,-16,8,8,89,217,23,-12,76,68
47,41,-7,-44,27,17,108,283,72,27,108,97
63,54,-9,-58,36,22,121,354,132,58,134,121
82,67,-15,-74,49,25,135,433,190,100,153,130
123,112,-11,-117,67,50,167,517,262,153,199,158
161,154,-6,-157,83,74,199,606,333,209,242,185
181,178,-2,-179,91,88,211,653,375,249,279,216
198,201,3,-200,97,102,203,652,383,252,290,232
190,196,6,-193,92,101,192,608,358,243,276,229
168,190,22,-179,73,106,165,510,301,206,263,228
132,160,28,-147,52,94,115,365,188,135,215,197
87,108,22,-98,32,65,60,221,69,55,152,150
52,71,20,-61,15,45,25,120,-20,-19,100,111
8,23,15,-16,-4,19,19,50,-88,-65,55,72
-28,-16,12,22,-19,-2,13,9,-128,-92,24,51
-36,-28,8,32,-22,-9,5,-11,-157,-113,13,47
-50,-45,5,47,-28,-20,1,-26,-161,-129,11,44
-62,-60,3,61,-32,-29,-11,-26,-159,-131,7,41
-55,-55,0,55,-27,-27,-26,-25,-161,-129,3,36
-47,-50,-3,49,-21,-26,-23,-24,-159,-130,0,36
-39,-44,-5,42,-16,-25,-19,-20,-160,-130,0,40
-31,-39,-8,35,-11,-23,-16,-20,-155,-128,0,42
-22,-34,-12,28,-4,-22,-10,-23,-155,-124,0,45
-15,-30,-15,23,0,-22,-11,-25,-154,-125,0,48
-11,-30,-19,21,4,-25,-16,-25,-150,-125,0,51
-9,-28,-19,18,5,-23,-21,-25,-150,-125,-1,46
-10,-25,-15,18,3,-20,-25,-25,-152,-126,-5,45
-12,-25,-13,19,1,-18,-30,-25,-162,-129,-5,44
-30,-39,-10,34,-9,-24,-30,-28,-176,-134,-5,40
-40,-47,-6,44,-17,-26,-30,-34,-180,-138,-5,39
-39,-44,-5,42,-17,-25,-30,-35,-181,-141,-5,42
-44,-45,-2,45,-21,-23,-30,-35,-185,-144,-8,45
-47,-45,3,46,-24,-21,-31,-36,-185,-148,-12,45
-51,-45,6,47,-28,-19,-28,-34,-185,-151,-15,45
-50,-40,9,45,-29,-16,-25,-41,-187,-154,-19,45
-53,-40,14,46,-34,-13,-25,-46,-190,-155,-19,45
-55,-40,15,47,-35,-12,-25,-45,-190,-155,-15,41
-36,-40,-4,38,-16,-21,-25,-44,-190,-155,-15,40
-41,-40,0,40,-20,-20,-24,-39,-191,-155,-15,40
-59,-38,21,48,-40,-8,-32,-41,-188,-153,-15,40
-52,-32,20,42,-35,-6,-41,-37,-195,-149,-15,39
-48,-28,20,38,-34,-3,-39,-33,-202,-150,-11,42
-43,-23,20,33,-31,-1,-40,-28,-195,-146,-6,53
-39,-19,20,29,-30,0,-43,-24,-186,-145,-3,56
-35,-15,20,25,-27,2,-45,-19,-183,-146,2,59
-26,-6,20,16,-23,7,-44,-9,-166,-133,8,61
-10,9,19,0,-15,14,-45,18,-152,-113,29,80
21,26,4,-24,8,15,-45,64,-139,-76,59,107
29,22,-7,-25,18,8,-44,48,-127,-70,62,103
37,8,-29,-22,33,-10,-61,7,-158,-108,43,91
21,0,-22,-10,22,-11,-65,-14,-185,-128,23,80
-48,-19,29,33,-39,5,-59,-46,-200,-146,12,70
-90,-44,46,67,-68,1,-57,-44,-212,-159,10,71
-93,-46,46,69,-69,0,-51,-46,-215,-161,3,68
-85,-40,45,62,-65,3,-51,-45,-215,-159,2,68
-85,-42,44,63,-65,0,-43,-44,-215,-159,-7,62
-80,-32,47,56,-63,7,-48,-46,-215,-153,-1,68
-80,-38,42,59,-61,2,-38,-35,-214,-155,2,69
-72,-24,48,48,-60,12,-44,-42,-214,-153,3,70
-62,-28,34,45,-48,3,-29,-15,-198,-140,14,73
-88,-47,42,67,-65,-2,15,26,-166,-144,1,63
-9,-12,-3,11,-3,-8,68,215,-2,-30,89,128
350,129,-220,-239,285,-45,-133,163,67,142,276,289
1146,491,-656,-818,901,-82,-887,-223,-49,351,577,614
1408,586,-822,-997,1115,-118,-1287,-435,-282,242,529,647
543,262,-280,-402,411,-9,-925,-750,-674,-277,40,275
-74,-7,67,40,-70,30,-436,-646,-668,-412,-137,85
-101,-85,16,93,-58,-34,-81,-141,-339,-256,-87,45
-91,-36,55,63,-73,10,21,18,-184,-173,-37,62
-90,-18,72,54,-81,27,49,84,-128,-118,7,90
-94,-16,77,55,-85,30,80,103,-109,-107,7,91
-71,-2,70,36,-70,34,77,105,-93,-93,20,106
-65,0,64,32,-65,32,86,130,-79,-86,18,113
-52,11,63,20,-58,37,84,140,-66,-74,26,130
-39,15,54,12,-47,34,90,162,-50,-65,29,132
-36,23,58,6,-47,40,90,179,-40,-55,34,139
-34,30,64,2,-49,46,94,207,-21,-39,41,140
-19,34,53,-8,-36,43,95,246,2,-28,50,140
23,64,41,-44,-9,52,99,303,50,-4,75,161
37,83,46,-61,-5,64,116,373,102,32,97,181
49,93,45,-71,2,69,139,454,156,77,123,203
75,123,48,-99,13,86,163,544,233,121,154,225
108,159,51,-133,28,105,180,624,302,170,192,252
158,207,49,-182,54,127,197,684,355,216,231,289
178,225,47,-202,65,135,194,711,374,242,253,313
192,235,43,-214,74,139,189,676,363,241,258,312
196,236,41,-216,77,138,175,587,315,205,235,302
157,194,37,-176,60,116,128,453,216,155,188,287
110,145,35,-128,37,90,84,302,106,77,128,247
73,105,32,-89,20,68,49,183,10,-5,64,194
29,58,30,-44,-1,44,34,101,-68,-65,8,152
-12,18,30,-3,-21,24,24,50,-111,-107,-25,131
-23,3,26,10,-25,15,12,21,-128,-125,-47,121
-32,-8,25,19,-28,8,10,6,-147,-140,-77,110
-41,-16,25,28,-33,4,10,2,-158,-155,-91,110
-44,-25,19,34,-31,-3,10,-1,-157,-160,-93,110
-42,-28,14,35,-28,-7,10,-5,-152,-160,-97,110
-33,-24,9,28,-20,-7,10,-8,-149,-159,-99,111
-25,-22,3,23,-13,-10,8,-12,-146,-160,-103,108
-17,-19,-2,18,-7,-11,4,-15,-141,-159,-105,105
-8,-16,-8,12,1,-12,5,-15,-141,-162,-105,105
-5,-15,-10,10,3,-12,1,-17,-146,-165,-105,105
-4,-15,-11,10,4,-13,0,-21,-144,-165,-105,105
0,-15,-15,8,8,-15,0,-20,-148,-165,-105,105
0,-15,-15,8,8,-15,-5,-24,-151,-165,-112,102
-11,-15,-4,13,-3,-9,-9,-29,-150,-169,-124,96
-31,-16,15,23,-22,0,-11,-32,-153,-181,-131,92
-37,-13,25,24,-31,6,-16,-35,-157,-190,-146,87
-35,-10,25,22,-30,7,-19,-28,-160,-189,-149,83
-35,-10,25,22,-30,7,-23,-39,-163,-192,-157,78
-32,-6,25,19,-28,9,-25,-55,-167,-211,-172,68
-29,-4,25,16,-26,10,-25,-56,-170,-221,-184,56
-31,-5,25,18,-28,10,-25,-72,-172,-222,-204,45
-34,-5,30,19,-32,12,-25,-76,-175,-229,-209,36
-35,-5,30,20,-32,12,-25,-75,-178,-229,-212,31
-36,-5,31,20,-33,13,-30,-80,-181,-232,-217,26
-40,-5,35,22,-37,15,-30,-80,-176,-239,-224,23
-41,-5,35,23,-37,15,-30,-79,-170,-235,-234,17
-35,-2,32,18,-33,15,-30,-72,-164,-227,-241,16
-24,0,24,12,-24,12,-30,-63,-159,-222,-245,22
-14,4,18,5,-16,11,-32,-58,-153,-213,-238,27
-6,5,11,0,-9,7,-35,-48,-139,-209,-234,34
15,17,2,-16,7,9,-34,-34,-120,-197,-229,38
41,38,-3,-39,22,17,-36,-20,-107,-185,-225,45
61,37,-24,-49,42,6,-34,13,-84,-182,-219,48
70,27,-42,-48,56,-7,-37,6,-97,-189,-231,28
52,20,-32,-36,42,-6,-55,-49,-148,-219,-273,7
36,12,-24,-24,29,-6,-55,-85,-170,-239,-293,-10
12,5,-7,-8,9,-1,-50,-102,-180,-247,-313,-36
-13,-2,11,7,-12,4,-49,-103,-182,-255,-337,-54
-30,-10,20,20,-25,5,-44,-111,-179,-256,-340,-62
-40,-16,25,28,-32,4,-46,-109,-175,-255,-349,-64
-51,-26,24,38,-37,-1,-35,-110,-174,-262,-362,-66
-54,-28,26,40,-40,0,-35,-111,-170,-259,-361,-67
-54,-32,22,43,-38,-5,-24,-107,-169,-258,-370,-79
-58,-28,29,42,-43,1,-24,-111,-161,-249,-376,-86
-48,-31,17,39,-33,-6,-15,-82,-149,-239,-387,-99
-57,-33,25,45,-41,-4,11,-26,-125,-242,-382,-91
40,2,-38,-21,39,-18,42,171,36,-125,-299,-45
463,180,-283,-321,373,-51,-214,52,91,55,-124,112
1286,543,-743,-914,1014,-100,-984,-345,-38,231,154,417
1381,564,-817,-972,1099,-126,-1298,-570,-303,33,17,364
421,231,-190,-326,305,20,-878,-895,-676,-442,-466,-7
-71,-10,62,40,-66,26,-408,-686,-596,-514,-618,-196
-71,-87,-17,79,-27,-52,-85,-178,-261,-381,-571,-233
-68,-32,36,50,-52,2,-9,-70,-126,-284,-523,-212
-39,2,40,18,-40,21,10,-9,-78,-230,-516,-214
-70,13,83,28,-77,48,46,8,-61,-223,-519,-217
-55,24,78,15,-67,51,47,13,-32,-209,-510,-213
-45,28,73,8,-59,51,53,33,-12,-208,-512,-224
-33,39,72,-3,-53,55,48,63,10,-197,-509,-231
-18,43,61,-13,-39,52,52,85,35,-193,-517,-240
-9,52,60,-22,-35,56,49,84,40,-186,-519,-250
5,55,50,-30,-23,53,53,114,61,-174,-525,-266
11,60,49,-35,-19,54,59,144,93,-164,-520,-265
24,66,42,-45,-9,53,70,194,132,-135,-509,-259
56,94,38,-76,9,66,88,257,183,-99,-499,-255
96,129,34,-113,31,81,96,339,249,-59,-475,-251
129,158,28,-144,50,93,125,428,328,-15,-447,-245
153,178,25,-166,63,101,152,510,397,36,-423,-247
190,220,30,-205,80,125,162,561,455,76,-411,-251
228,257,29,-242,99,143,154,568,480,81,-408,-249
235,269,35,-252,100,152,140,541,470,80,-399,-265
240,287,46,-264,97,166,119,446,424,64,-411,-293
208,251,43,-230,82,147,67,295,329,-2,-475,-348
156,193,37,-175,59,114,34,143,225,-95,-555,-416
100,134,35,-117,32,84,-8,16,131,-177,-635,-480
61,88,27,-75,17,58,-11,-65,66,-230,-688,-531
53,79,27,-66,13,53,-37,-120,31,-268,-731,-567
35,70,35,-53,0,52,-45,-158,7,-295,-768,-599
