I,II,III,aVR,aVL,aVF,V1,V2,V3,V4,V5,V6
27,90,63,-59,-18,76,79,-21,-55,-35,-9,-5
47,88,42,-68,3,65,61,-20,-52,-36,-8,-3
65,88,22,-77,21,55,15,-33,-64,-34,0,2
67,74,7,-70,29,40,-27,-78,-97,-45,4,6
55,33,-22,-44,38,5,-37,-83,-96,-52,-7,10
31,-9,-40,-11,36,-24,-19,-74,-93,-64,-21,-6
2,-29,-31,14,17,-30,0,-77,-98,-86,-42,-36
-3,-42,-39,23,18,-41,0,-68,-90,-92,-56,-48
-17,-50,-33,34,8,-41,15,-70,-101,-137,-97,-78
-5,-40,-35,23,15,-37,14,-66,-97,-113,-71,-60
-37,-75,-38,57,0,-56,22,-61,-115,-116,-94,-80
-53,-63,-10,58,-21,-36,44,-42,-88,-97,-71,-67
-60,-138,-78,99,10,-108,122,93,36,35,-57,-83
167,-112,-279,-28,224,-195,10,291,578,1029,609,231
898,152,-746,-524,822,-297,-485,518,1336,2728,1887,1030
795,139,-656,-467,725,-258,-686,-247,193,1608,1244,896
26,-70,-95,22,61,-82,-596,-1390,-1693,-1070,-307,145
-171,-192,-22,182,-74,-106,-413,-1072,-1524,-1362,-647,-159
-188,-135,52,161,-120,-41,-126,-491,-734,-727,-470,-204
-122,-64,58,92,-90,-2,-35,-263,-336,-375,-216,-126
-78,-79,-1,78,-38,-39,17,-70,-116,-194,-150,-102
-92,-64,27,78,-60,-18,55,-64,-76,-184,-141,-94
-72,-66,6,69,-39,-30,57,-13,0,-137,-112,-93
-81,-60,21,70,-51,-19,63,-8,0,-144,-120,-94
-68,-57,11,62,-40,-22,57,9,21,-116,-101,-87
-66,-49,17,57,-41,-16,62,18,1,-113,-107,-92
-56,-36,21,46,-38,-7,58,26,-23,-106,-93,-83
-56,-31,24,43,-40,-3,65,38,-6,-102,-93,-81
-44,-24,20,33,-32,-1,70,40,-1,-99,-90,-75
-52,-21,30,36,-41,4,77,63,37,-75,-84,-71
-58,-16,43,37,-50,13,80,83,88,-46,-78,-67
-58,-12,46,35,-51,16,84,116,152,-6,-70,-61
-70,-7,64,38,-67,28,96,154,223,17,-62,-47
-58,2,61,28,-60,31,111,205,303,50,-43,-33
-46,12,58,17,-52,35,127,262,382,97,-17,-21
-24,33,56,-5,-40,44,125,316,452,140,20,-4
7,59,52,-33,-23,55,131,350,502,188,53,21
30,80,51,-55,-11,65,143,375,525,223,70,48
34,81,47,-58,-7,64,120,362,510,214,92,61
28,70,41,-49,-7,55,79,304,440,197,107,54
26,62,36,-45,-5,49,47,255,340,176,100,46
22,53,31,-37,-5,42,28,191,227,132,84,38
19,43,25,-31,-3,34,6,130,130,83,59,31
10,31,21,-21,-5,25,-5,79,55,42,26,14
-4,16,20,-6,-12,18,-6,46,16,8,9,-7
-14,6,20,4,-17,13,-10,36,14,-6,8,-13
-18,2,20,8,-19,11,-12,21,5,-23,1,-19
-21,-1,20,11,-20,10,-16,10,0,-52,-14,-25
-25,-4,20,14,-22,8,-12,-3,-11,-55,-26,-30
-27,-9,18,18,-22,4,-10,-11,-37,-72,-41,-38
-24,-9,14,16,-19,2,-10,-16,-52,-100,-64,-41
-20,-4,15,11,-17,5,-10,-22,-57,-102,-68,-42
-15,-1,15,8,-15,7,-10,-28,-64,-98,-62,-40
-13,2,15,5,-14,8,-10,-28,-77,-92,-58,-40
-8,7,15,0,-12,11,-16,-24,-80,-89,-53,-40
0,10,10,-5,-5,10,-22,-22,-72,-84,-49,-40
-3,6,10,-2,-7,8,-27,-19,-66,-79,-44,-41
-6,5,10,1,-9,7,-33,-16,-59,-76,-41,-44
-5,5,10,0,-8,7,-35,-15,-53,-71,-36,-45
-10,0,10,5,-10,5,-35,-15,-47,-69,-33,-45
-7,0,8,3,-8,4,-35,-15,-28,-65,-30,-46
-5,-1,4,2,-5,1,-35,-15,-20,-60,-24,-44
-14,-8,6,11,-9,-1,-34,-16,-19,-66,-34,-48
-17,-12,5,14,-11,-4,-31,-14,-14,-73,-42,-51
-34,-28,6,31,-20,-11,-26,-26,-26,-68,-40,-50
-46,-42,5,43,-25,-18,-24,-35,-47,-65,-40,-54
-40,-29,10,35,-25,-9,-19,-25,-60,-62,-40,-55
-31,-19,12,25,-22,-3,-15,-22,-61,-59,-40,-55
-18,6,24,5,-21,15,-18,-15,-55,-57,-34,-43
-3,67,70,-32,-37,68,-25,-12,-50,-41,-17,-23
25,104,79,-65,-27,91,-37,-6,-48,-29,-6,-16
35,106,71,-71,-18,88,-41,-8,-38,-18,5,-10
31,88,57,-60,-13,72,-91,-54,-57,-34,8,-1
50,71,21,-61,14,46,-130,-84,-89,-71,-5,2
64,53,-10,-58,37,22,-115,-77,-83,-65,-2,-3
24,3,-21,-13,22,-9,-86,-74,-86,-81,-38,-23
6,-9,-15,2,11,-12,-66,-73,-84,-92,-56,-37
-10,-22,-12,16,1,-17,-60,-62,-88,-109,-85,-66
-32,-29,2,31,-17,-13,-52,-69,-107,-112,-79,-56
-49,-52,-3,51,-23,-28,-54,-53,-104,-97,-88,-61
-89,-70,19,80,-54,-26,-30,-42,-95,-113,-95,-68
-54,-93,-39,74,-7,-65,31,52,-17,-38,-66,-76
24,-143,-166,60,95,-154,54,203,299,495,217,28
594,88,-507,-341,550,-209,-321,453,1159,2303,1587,796
918,243,-675,-580,796,-216,-683,199,934,2589,1862,1124
243,47,-197,-144,220,-75,-642,-1006,-1090,-194,198,414
-164,-161,3,163,-83,-79,-515,-1240,-1729,-1506,-636,-88
-181,-171,10,176,-96,-80,-225,-563,-899,-891,-560,-203
-162,-63,99,112,-131,18,-38,-302,-429,-481,-318,-150
-88,-60,28,74,-58,-16,-19,-100,-155,-221,-153,-92
-93,-57,36,75,-64,-10,7,-49,-86,-194,-158,-95
-71,-46,25,58,-48,-10,5,-36,-20,-160,-123,-85
-72,-48,24,59,-48,-11,26,0,23,-145,-135,-94
-59,-35,23,47,-41,-6,30,-1,12,-138,-121,-87
-64,-47,17,55,-41,-15,29,18,-4,-113,-121,-92
-64,-39,26,51,-45,-6,35,19,-37,-110,-116,-87
-69,-45,24,57,-47,-10,46,34,-32,-87,-109,-81
-91,-61,30,76,-60,-16,59,45,-37,-79,-108,-77
-81,-49,32,65,-56,-8,66,66,-14,-63,-101,-70
-89,-34,55,62,-72,10,73,75,28,-62,-99,-65
-85,-21,64,53,-74,21,74,100,104,-50,-93,-60
-75,-5,70,40,-72,32,76,143,192,-8,-78,-53
-74,0,74,37,-74,37,100,187,262,36,-57,-45
-73,2,75,35,-74,38,120,230,323,68,-37,-34
-50,25,74,12,-62,49,126,290,390,120,-1,-9
-21,49,70,-14,-46,59,127,334,458,170,33,18
2,70,68,-36,-33,69,117,340,480,206,67,44
28,93,65,-61,-19,79,115,338,464,223,94,69
32,95,63,-64,-16,79,101,316,431,222,102,73
33,88,56,-61,-12,72,67,268,351,201,102,65
40,92,51,-66,-6,71,31,203,239,150,94,61
37,83,46,-60,-4,64,4,134,134,96,65,41
5,45,40,-25,-17,42,-2,81,53,50,32,13
-13,22,35,-5,-24,29,-5,47,1,18,14,4
-10,20,30,-5,-20,25,-8,27,-30,-14,3,-4
-17,13,30,2,-24,22,-13,12,-33,-33,-5,-12
-21,8,29,6,-25,18,-15,1,-36,-46,-14,-19
-23,2,25,10,-24,13,-10,-12,-39,-64,-28,-25
-27,-3,24,14,-25,11,-5,-23,-40,-69,-43,-29
-37,-9,28,23,-32,9,0,-20,-56,-79,-49,-34
-40,-10,30,25,-35,10,3,-20,-69,-87,-58,-33
-36,-10,26,22,-31,8,9,-20,-69,-93,-67,-30
-33,-10,23,21,-28,6,8,-19,-71,-106,-62,-30
-31,-10,21,20,-26,5,4,-36,-90,-106,-60,-30
-27,-10,17,18,-22,3,5,-42,-90,-95,-56,-30
-25,-10,15,17,-20,2,1,-36,-76,-85,-55,-31
-22,-10,12,16,-17,1,-1,-35,-66,-75,-52,-34
-17,-10,6,13,-12,-2,1,-30,-48,-70,-49,-37
-11,-10,1,10,-6,-4,-8,-31,-43,-70,-50,-40
-7,-10,-4,9,-2,-7,-12,-35,-45,-70,-45,-38
2,-9,-11,4,6,-10,-10,-35,-45,-70,-45,-34
18,4,-14,-11,16,-5,-10,-35,-45,-70,-45,-35
14,4,-11,-9,12,-3,-7,-35,-46,-74,-45,-35
6,-4,-9,-1,8,-6,-4,-35,-45,-79,-50,-36
4,-5,-9,1,7,-7,-5,-32,-55,-78,-50,-35
-8,-13,-4,11,-2,-8,1,-29,-81,-71,-51,-30
-7,-13,-6,11,0,-9,4,-27,-78,-63,-49,-23
-5,-3,3,4,-4,0,8,-24,-67,-58,-52,-18
-10,46,56,-18,-34,51,15,-20,-57,-55,-38,-12
20,102,82,-61,-32,92,10,-20,-50,-54,-8,-7
52,118,66,-85,-8,92,2,-19,-50,-57,2,-3
60,109,49,-84,5,78,-57,-48,-53,-52,4,3
70,87,16,-78,27,51,-103,-86,-72,-60,-10,3
73,59,-14,-66,44,22,-82,-80,-76,-57,-8,14
40,11,-29,-25,34,-9,-47,-71,-74,-76,-41,-18
1,-20,-21,9,12,-20,-26,-72,-77,-95,-60,-44
-21,-44,-23,33,1,-33,-22,-55,-83,-99,-75,-67
-27,-36,-9,32,-10,-22,-15,-61,-111,-113,-82,-83
-28,-45,-17,36,-5,-31,-18,-40,-113,-87,-66,-77
-67,-65,3,66,-35,-31,1,-49,-108,-103,-93,-94
-44,-71,-27,58,-8,-49,36,14,-66,-65,-72,-84
-13,-144,-130,79,59,-137,93,150,170,311,95,-37
487,57,-430,-272,459,-187,-224,401,1016,1996,1312,629
961,238,-723,-599,842,-242,-656,294,1108,2830,1962,1134
396,62,-334,-229,365,-136,-660,-917,-856,290,479,526
-114,-151,-38,133,-38,-94,-547,-1372,-1859,-1487,-575,-36
-171,-186,-15,179,-78,-101,-261,-696,-1075,-990,-565,-192
-155,-71,84,113,-119,7,-39,-365,-507,-529,-344,-167
-84,-62,22,73,-53,-20,-11,-136,-185,-242,-161,-93
-96,-66,30,81,-63,-17,47,-47,-81,-184,-163,-95
-76,-54,22,65,-49,-16,49,-37,-20,-154,-126,-78
-73,-60,12,66,-42,-24,71,-1,42,-130,-130,-89
-62,-48,14,55,-38,-16,86,7,32,-138,-114,-78
-52,-51,0,51,-26,-25,84,32,31,-117,-105,-80
-59,-43,17,51,-37,-13,87,18,11,-125,-107,-80
-59,-42,18,50,-39,-12,83,37,12,-103,-102,-73
-69,-37,32,53,-51,-2,87,44,5,-97,-103,-77
-67,-31,36,49,-52,3,80,60,39,-85,-98,-71
-69,-24,44,46,-56,10,83,89,86,-77,-100,-70
-73,-17,56,45,-64,19,95,113,136,-58,-87,-70
-72,-11,62,42,-67,25,107,150,196,-18,-72,-64
-74,-3,70,38,-72,33,128,198,256,26,-53,-51
-60,10,70,25,-65,39,148,254,324,57,-33,-40
-42,24,66,8,-54,45,175,300,400,99,-10,-28
-18,46,64,-14,-41,54,197,353,479,148,14,-7
13,73,60,-43,-24,66,196,382,519,191,49,21
18,77,59,-48,-21,68,182,364,504,214,92,53
33,86,53,-60,-10,69,147,335,466,199,109,64
44,91,47,-68,-2,69,103,285,383,184,102,52
33,76,43,-55,-5,59,64,215,264,155,96,43
28,64,36,-46,-4,50,42,146,163,105,80,32
10,42,31,-26,-11,36,36,94,81,54,40,21
-8,18,26,-5,-17,22,33,57,26,16,14,10
-14,11,25,1,-20,18,31,24,-15,1,4,-2
-21,4,25,8,-23,14,27,9,-39,-17,-8,-12
-27,-2,25,14,-26,11,25,3,-44,-37,-16,-23
-35,-10,25,22,-30,8,23,-4,-47,-51,-22,-31
-38,-14,24,26,-30,4,20,-11,-42,-57,-30,-29
-31,-11,20,21,-25,5,17,-17,-57,-62,-38,-34
-24,-6,17,15,-20,5,14,-24,-71,-74,-44,-45
-18,-3,15,10,-16,6,10,-30,-72,-80,-50,-45
-11,0,11,6,-11,5,10,-30,-77,-92,-50,-45
-4,6,10,-1,-7,8,15,-30,-70,-97,-52,-45
-12,-6,6,9,-9,0,15,-31,-74,-95,-59,-45
-22,-17,5,19,-13,-6,15,-27,-79,-93,-56,-43
-16,-12,4,13,-10,-3,15,-25,-69,-90,-51,-40
-11,-10,1,10,-6,-4,15,-25,-61,-89,-49,-37
-6,-7,-1,7,-2,-3,15,-25,-52,-84,-45,-34
-5,-4,2,4,-3,-1,15,-25,-50,-81,-40,-31
-27,-13,14,19,-20,1,15,-25,-47,-78,-42,-30
-40,-25,15,32,-27,-4,15,-26,-44,-73,-45,-35
-32,-25,8,28,-19,-8,15,-24,-41,-70,-45,-35
-32,-26,6,28,-18,-10,15,-34,-40,-75,-46,-37
-28,-29,0,28,-14,-14,11,-39,-46,-79,-45,-40
-28,-32,-4,30,-12,-17,9,-31,-53,-75,-45,-40
-14,-27,-13,21,-1,-20,12,-27,-66,-72,-40,-38
0,-27,-27,13,14,-27,8,-21,-68,-70,-40,-27
-8,-5,3,6,-6,-1,18,-15,-57,-63,-35,-18
9,68,58,-39,-25,63,30,-19,-49,-43,-4,-7
44,107,63,-76,-9,84,19,-20,-35,-38,17,0
69,115,46,-92,11,81,-19,-22,-41,-43,21,0
74,100,26,-87,24,63,-73,-60,-74,-34,12,1
65,57,-8,-61,36,25,-91,-90,-101,-61,-5,-1
54,13,-40,-33,47,-13,-78,-81,-109,-74,-8,-1
22,-16,-38,-3,30,-26,-40,-88,-111,-78,-38,-24
0,-30,-30,15,15,-30,-24,-84,-109,-87,-46,-35
-39,-66,-27,53,-6,-46,-18,-84,-110,-113,-71,-56
-48,-60,-13,54,-17,-36,-10,-85,-111,-115,-52,-46
-42,-61,-19,52,-12,-40,-8,-57,-103,-110,-64,-51
-51,-52,-2,52,-24,-27,17,-51,-98,-117,-71,-58
-46,-97,-51,72,3,-74,74,60,-25,-44,-59,-73
44,-117,-161,37,103,-139,44,201,378,642,331,81
701,127,-573,-414,637,-223,-383,482,1267,2515,1675,858
938,189,-749,-563,843,-280,-739,2,693,2351,1643,1039
227,-43,-270,-92,249,-157,-704,-1300,-1413,-522,22,312
-134,-203,-70,169,-32,-136,-508,-1281,-1759,-1485,-616,-90
-168,-141,27,155,-98,-57,-184,-607,-889,-833,-502,-190
-122,-27,95,74,-108,34,-30,-319,-419,-440,-260,-141
-54,-42,12,48,-32,-15,16,-84,-140,-200,-149,-94
-81,-45,36,62,-58,-5,56,-57,-77,-188,-153,-100
-63,-44,19,53,-40,-13,63,-13,-11,-137,-117,-86
-74,-46,28,60,-50,-9,83,3,0,-141,-130,-93
-63,-38,25,50,-44,-6,80,15,8,-128,-107,-83
-65,-42,23,53,-44,-9,85,37,23,-115,-109,-86
-70,-38,33,54,-51,-2,88,35,16,-114,-98,-80
-60,-34,26,47,-43,-3,89,47,24,-98,-92,-75
-65,-27,38,46,-51,6,94,56,16,-100,-87,-71
-72,-23,49,47,-60,13,93,89,54,-73,-77,-65
-77,-16,61,46,-68,22,98,112,93,-46,-74,-62
-81,-11,70,46,-75,29,121,145,133,-21,-65,-56
-86,-6,80,45,-83,37,138,181,194,4,-56,-50
-85,4,88,40,-87,46,147,235,269,40,-42,-42
-75,11,86,32,-80,48,164,297,353,77,-25,-37
-36,42,77,-3,-57,59,184,355,437,125,1,-16
-6,66,71,-30,-39,68,203,405,512,166,28,13
7,70,63,-39,-28,66,199,418,554,202,49,33
31,86,56,-59,-13,71,171,399,547,225,80,57
35,84,49,-59,-8,66,129,363,496,222,104,63
29,73,44,-51,-8,58,91,302,392,210,99,52
28,67,39,-48,-6,52,67,227,281,167,82,43
24,58,35,-41,-6,46,49,161,181,114,64,33
17,47,30,-32,-7,38,37,109,89,66,42,20
10,35,25,-23,-8,30,28,63,28,24,18,8
8,30,21,-19,-7,25,17,33,-15,-3,-1,1
3,22,20,-12,-9,21,10,19,-40,-21,-9,-6
-4,16,20,-6,-12,17,6,8,-52,-33,-13,-12
-6,9,15,-2,-11,12,4,-1,-56,-42,-19,-19
-12,3,15,4,-14,9,0,-7,-59,-52,-25,-25
-14,0,14,6,-14,7,-5,-14,-64,-56,-30,-25
-10,0,10,5,-10,5,-2,-21,-65,-67,-37,-24
-10,1,10,5,-10,5,11,-28,-68,-81,-48,-31
-11,-1,10,6,-10,4,22,-28,-71,-84,-55,-37
-9,1,10,4,-9,5,21,-24,-69,-89,-59,-33
-8,2,10,3,-10,6,20,-26,-64,-88,-58,-31
0,10,9,-5,-5,9,18,-25,-59,-83,-53,-27
9,20,11,-14,-2,15,15,-25,-55,-80,-50,-25
8,15,8,-12,0,11,14,-25,-50,-77,-47,-23
-7,10,17,-1,-12,13,19,-20,-45,-72,-42,-20
-25,5,30,10,-28,17,31,-21,-49,-70,-40,-20
-24,-2,23,13,-23,10,30,-18,-50,-70,-45,-20
-21,-5,16,13,-18,5,27,-16,-50,-70,-45,-20
-13,-4,10,8,-11,2,24,-14,-55,-70,-45,-20
-22,-20,2,21,-12,-8,21,-20,-55,-70,-45,-30
-23,-25,-2,24,-10,-13,19,-32,-57,-71,-46,-32
-10,-15,-5,13,-2,-10,16,-26,-62,-68,-43,-28
-10,-15,-5,13,-2,-10,10,-18,-68,-58,-36,-26
1,-3,-4,1,3,-3,7,-13,-76,-51,-31,-22
0,-7,-7,4,3,-6,7,-5,-74,-42,-24,-20
6,33,27,-19,-11,30,21,-1,-61,-37,-21,-17
23,91,67,-57,-22,79,33,-6,-52,-38,-14,-1
43,99,55,-71,-6,77,11,-18,-56,-43,-16,11
59,112,53,-85,3,82,-20,-26,-54,-45,-13,10
53,91,38,-72,7,65,-66,-47,-66,-49,-9,3
57,48,-9,-53,33,19,-75,-69,-91,-54,-12,-6
77,24,-53,-50,65,-15,-61,-62,-88,-57,-9,-8
58,2,-56,-30,57,-26,-48,-69,-93,-86,-38,-23
23,-20,-44,-1,34,-32,-44,-70,-87,-81,-47,-32
-12,-50,-38,31,14,-44,-30,-68,-93,-108,-86,-65
-20,-40,-20,31,0,-30,-25,-70,-105,-117,-74,-62
-10,-44,-34,28,12,-38,-22,-51,-103,-115,-82,-65
-34,-41,-8,37,-13,-24,9,-53,-96,-128,-84,-69
-50,-92,-41,71,-4,-66,59,65,-11,-47,-75,-86
81,-96,-177,7,129,-136,39,221,401,645,324,82
768,137,-631,-452,699,-247,-408,516,1303,2480,1630,847
975,161,-815,-568,895,-327,-762,7,682,2247,1553,998
242,-68,-311,-87,277,-189,-711,-1337,-1439,-577,-14,286
-109,-197,-88,153,-10,-142,-535,-1314,-1758,-1479,-611,-98
-165,-140,25,152,-95,-57,-204,-636,-892,-827,-484,-169
-139,-51,89,94,-114,19,-44,-332,-402,-427,-242,-118
-68,-52,16,60,-41,-18,13,-77,-133,-202,-141,-98
-85,-37,48,61,-66,5,66,-51,-83,-201,-142,-104
-74,-52,22,63,-48,-14,63,-13,-18,-146,-111,-89
-100,-67,33,84,-66,-17,76,-4,-22,-135,-126,-95
-75,-51,24,62,-49,-13,72,5,-16,-119,-108,-82
-75,-50,25,62,-50,-12,87,21,-5,-111,-112,-87
-78,-44,34,61,-55,-5,90,24,-8,-110,-103,-84
-73,-41,33,57,-53,-4,89,47,8,-91,-101,-85
-79,-36,43,58,-61,3,91,49,19,-86,-99,-85
-69,-32,37,50,-52,2,89,75,56,-68,-95,-85
-76,-24,52,50,-64,14,98,102,90,-56,-92,-85
-72,-14,58,43,-65,22,105,134,145,-27,-73,-75
-75,-7,67,41,-71,30,116,175,200,0,-59,-69
-77,5,82,36,-79,43,143,234,276,45,-45,-57
-66,8,74,29,-71,41,158,297,361,84,-29,-39
-31,40,71,-5,-51,55,171,349,433,122,-4,-16
16,83,67,-50,-25,74,187,396,501,166,24,8
27,88,61,-57,-17,74,172,413,524,193,49,24
29,87,58,-58,-14,73,140,400,516,215,79,47
30,80,50,-55,-11,65,110,366,484,215,90,58
26,71,44,-49,-9,57,83,292,388,191,77,51
31,69,37,-50,-3,53,60,214,270,145,66,52
12,42,31,-27,-10,36,37,149,168,97,55,38
4,29,25,-17,-11,27,24,85,82,56,38,8
19,39,20,-29,-1,29,19,46,25,24,18,-3
7,27,20,-17,-7,23,14,22,-19,3,-3,-9
-1,18,19,-9,-10,18,8,5,-41,-21,-12,-16
-1,14,15,-7,-8,14,2,-5,-54,-42,-15,-22
-5,10,15,-3,-10,12,2,-15,-61,-45,-20,-29
-10,7,17,1,-14,12,7,-25,-59,-44,-24,-34
-19,2,20,8,-20,11,10,-31,-64,-65,-42,-35
-20,0,20,10,-20,10,13,-30,-66,-78,-52,-35
-26,-6,20,16,-23,7,18,-30,-70,-73,-49,-39
-29,-9,20,19,-24,5,21,-30,-69,-77,-54,-41
-35,-15,20,25,-27,3,24,-27,-64,-85,-55,-38
-36,-11,24,23,-30,6,25,-24,-61,-82,-54,-35
-23,2,25,10,-24,13,25,-21,-58,-74,-51,-32
-29,-4,25,16,-27,10,25,-18,-54,-68,-46,-30
-35,-10,25,22,-30,7,25,-15,-50,-60,-44,-27
-30,-5,25,17,-27,10,23,-16,-47,-55,-40,-24
-23,-1,22,12,-23,11,17,-22,-41,-55,-35,-29
-16,4,20,6,-18,12,12,-26,-36,-55,-37,-30
-17,3,20,7,-19,11,9,-29,-33,-55,-41,-30
-27,-6,20,17,-23,7,4,-34,-27,-55,-40,-35
-33,-14,20,23,-26,3,0,-35,-26,-55,-44,-35
-43,-23,21,33,-32,-1,6,-36,-42,-59,-46,-34
-54,-29,25,41,-39,-2,12,-33,-61,-64,-45,-28
-48,-23,25,35,-36,1,16,-30,-72,-59,-38,-22
-38,-12,26,25,-32,6,23,-30,-78,-53,-30,-18
-20,3,23,8,-22,13,26,-27,-78,-47,-24,-10
-10,47,58,-19,-34,52,37,-21,-65,-42,-16,-8
4,94,90,-49,-43,92,30,-18,-51,-22,2,4
29,101,72,-65,-22,86,3,-11,-39,-1,23,18
46,100,53,-73,-4,76,-34,-13,-35,5,36,11
41,73,31,-57,5,52,-85,-49,-65,-17,21,4
7,29,22,-18,-8,25,-88,-74,-87,-42,2,-7
-10,2,12,4,-10,7,-55,-67,-82,-50,-8,-10
-30,-24,6,27,-18,-8,-15,-72,-91,-86,-38,-24
-40,-43,-4,42,-18,-23,-6,-65,-87,-86,-38,-36
-64,-66,-2,65,-31,-34,-2,-64,-94,-107,-71,-59
-75,-62,13,68,-44,-24,-8,-68,-94,-107,-61,-42
-89,-78,11,84,-50,-34,-2,-50,-96,-112,-77,-62
-94,-60,34,77,-64,-13,39,-41,-91,-110,-72,-63
-84,-107,-24,96,-30,-65,83,60,-21,-41,-71,-77
35,-124,-160,45,98,-142,45,220,405,665,338,90
763,113,-650,-438,707,-268,-405,542,1313,2482,1612,855
966,130,-836,-548,901,-353,-767,-20,621,2112,1459,971
212,-94,-306,-59,259,-200,-719,-1377,-1483,-660,-67,270
-146,-219,-73,183,-36,-146,-523,-1331,-1754,-1465,-612,-96
-204,-151,53,177,-128,-49,-198,-654,-888,-820,-479,-170
-170,-61,110,115,-140,24,-39,-331,-404,-416,-236,-112
-103,-77,26,90,-64,-25,20,-85,-140,-197,-144,-90
-114,-62,52,88,-83,-5,55,-68,-87,-186,-144,-88
-95,-62,32,78,-63,-15,54,-23,-30,-134,-114,-74
-97,-57,40,77,-69,-8,86,-10,-25,-131,-122,-79
-85,-51,34,67,-59,-8,84,-3,-20,-120,-100,-66
-84,-50,34,67,-59,-8,85,25,-12,-110,-102,-68
-76,-43,33,59,-54,-5,86,32,-13,-107,-92,-60
-66,-43,22,54,-44,-10,84,36,-3,-94,-89,-60
-72,-36,36,53,-53,0,86,47,5,-91,-83,-60
-81,-35,46,58,-63,5,77,70,48,-70,-76,-59
-98,-30,68,63,-83,19,86,89,85,-52,-73,-61
-108,-31,78,69,-93,23,118,125,133,-22,-61,-58
-104,-25,79,65,-92,27,131,167,198,3,-53,-48
-91,0,91,46,-91,45,144,227,277,37,-38,-35
-81,10,91,35,-86,51,161,288,356,72,-15,-22
-55,33,88,11,-72,60,175,343,428,111,7,-5
-20,64,84,-23,-52,74,193,394,491,158,27,20
-10,71,81,-31,-46,76,196,395,515,182,46,40
4,78,74,-41,-35,76,171,378,510,193,69,57
29,80,51,-55,-11,66,130,352,459,181,76,66
31,71,40,-51,-5,55,96,286,359,167,68,57
23,59,37,-41,-7,48,65,214,246,140,64,51
14,48,33,-31,-10,40,38,148,148,85,54,44
7,37,30,-22,-11,33,28,93,79,45,32,30
-9,17,26,-5,-17,21,20,49,15,13,14,16
-18,4,22,7,-21,13,11,18,-24,-13,0,5
-17,2,19,8,-19,11,10,8,-43,-38,-12,0
-22,-2,20,12,-21,9,10,0,-46,-45,-23,-5
-21,-5,16,13,-18,5,10,-10,-43,-44,-30,-11
-25,-10,15,17,-20,2,10,-33,-63,-57,-35,-16
-24,-10,15,16,-20,2,12,-42,-72,-60,-38,-21
-21,-11,10,16,-16,0,15,-39,-69,-71,-43,-25
-18,-9,10,14,-14,0,18,-41,-74,-82,-45,-28
-2,8,10,-3,-6,9,21,-40,-75,-91,-40,-32
1,11,10,-6,-4,10,24,-40,-75,-94,-40,-35
-4,6,10,-1,-7,7,25,-35,-70,-85,-39,-39
-7,5,12,1,-10,8,20,-30,-67,-81,-35,-40
-10,0,11,5,-11,6,20,-26,-62,-74,-35,-40
-10,-1,10,6,-10,4,20,-22,-43,-69,-37,-40
-14,-4,10,9,-12,2,20,-16,-39,-64,-41,-40
-17,-7,10,12,-13,1,20,-17,-40,-58,-40,-40
-19,-9,9,14,-14,0,17,-21,-41,-52,-40,-40
-26,-13,13,19,-19,0,15,-19,-46,-52,-40,-40
-30,-14,16,21,-22,1,12,-21,-44,-57,-40,-40
-33,-19,14,25,-23,-2,9,-24,-48,-61,-45,-40
-41,-25,16,33,-28,-4,6,-26,-50,-66,-45,-41
-49,-35,14,41,-31,-10,5,-25,-61,-66,-47,-36
-42,-25,17,33,-29,-4,11,-34,-76,-61,-50,-29
-21,-10,11,15,-16,1,17,-40,-72,-49,-51,-23
-11,18,28,-4,-20,23,26,-14,-62,-37,-44,-15
22,86,64,-55,-21,75,28,-1,-54,-40,-19,-10
52,108,56,-80,-2,81,14,-2,-53,-39,0,-3
71,112,41,-92,15,76,13,8,-58,-42,3,-2
79,110,30,-95,25,70,-28,-11,-59,-45,18,3
63,68,5,-66,29,36,-78,-48,-63,-45,17,6
82,56,-26,-68,54,15,-72,-66,-72,-49,8,11
77,25,-51,-51,64,-13,-51,-66,-76,-65,-13,1
31,-8,-39,-11,35,-23,-28,-73,-83,-90,-46,-26
9,-31,-40,11,25,-35,-28,-68,-77,-86,-50,-36
-28,-61,-33,45,3,-47,-17,-76,-83,-115,-87,-60
-27,-53,-26,40,0,-40,-16,-76,-83,-98,-62,-50
-29,-60,-31,45,1,-46,-7,-70,-91,-108,-87,-70
-36,-42,-6,39,-15,-24,27,-47,-78,-98,-72,-60
-70,-115,-45,93,-12,-80,108,78,11,-8,-66,-98
142,-93,-235,-24,188,-164,20,269,538,893,489,169
913,136,-777,-525,845,-320,-468,561,1350,2605,1711,940
906,97,-809,-501,858,-356,-739,-226,279,1658,1213,877
138,-115,-253,-12,196,-183,-672,-1496,-1705,-1002,-261,178
-136,-220,-84,178,-26,-152,-470,-1217,-1638,-1396,-628,-136
-180,-127,53,153,-117,-37,-149,-583,-795,-750,-463,-189
-111,-36,75,74,-93,19,-22,-289,-354,-365,-215,-122
-70,-58,12,64,-41,-23,29,-79,-118,-188,-150,-100
-86,-42,44,64,-65,1,68,-63,-73,-181,-145,-89
-74,-55,20,65,-47,-17,71,1,-12,-128,-120,-81
-88,-51,37,69,-62,-7,89,11,-15,-126,-126,-83
-69,-43,26,56,-47,-8,89,29,-3,-95,-108,-72
-71,-40,31,56,-51,-5,91,36,3,-94,-113,-72
-55,-31,24,43,-39,-3,90,42,7,-84,-100,-77
-61,-27,34,44,-47,3,90,53,17,-74,-99,-80
-65,-19,46,41,-55,13,91,61,31,-70,-92,-69
-50,-13,37,31,-43,12,94,85,57,-46,-86,-65
-71,-6,65,38,-67,29,106,101,85,-26,-81,-57
-78,0,78,39,-78,39,114,139,149,0,-75,-51
-70,10,81,30,-76,45,127,187,216,26,-58,-45
-73,19,92,26,-82,55,142,244,290,61,-31,-35
-47,44,91,2,-70,67,155,299,369,101,-15,-25
-31,57,87,-13,-59,72,177,353,448,136,3,-10
-22,61,82,-20,-52,71,178,398,507,176,22,2
9,87,77,-48,-34,82,167,418,530,208,50,23
27,101,74,-65,-24,87,159,400,513,205,81,51
41,99,58,-70,-9,78,131,354,457,199,84,67
42,87,46,-65,-2,66,90,297,370,186,75,63
31,75,44,-53,-7,60,55,222,254,145,70,48
24,65,41,-45,-9,53,38,152,156,107,59,35
9,47,38,-28,-15,42,33,99,84,74,34,19
-5,30,35,-13,-21,33,25,58,28,41,13,2
-12,22,33,-5,-23,27,20,34,-2,10,0,-9
-16,15,30,1,-24,22,12,23,-22,-18,-13,-16
-22,5,27,8,-25,16,12,18,-33,-36,-33,-22
-23,2,25,10,-24,13,16,10,-40,-48,-46,-29
-17,5,21,6,-19,13,15,5,-42,-57,-44,-36
-14,5,20,5,-18,12,19,0,-49,-64,-47,-41
-15,5,20,5,-18,12,20,-4,-55,-72,-50,-46
-15,5,20,5,-18,12,19,-9,-60,-82,-51,-50
-15,5,20,5,-18,12,16,-14,-68,-83,-47,-47
-18,1,20,9,-19,10,11,-18,-68,-76,-42,-42
-20,0,20,10,-20,10,9,-20,-63,-69,-36,-39
-19,0,19,10,-19,9,4,-20,-58,-62,-32,-36
-13,2,15,5,-14,8,1,-24,-56,-56,-24,-31
-11,4,16,3,-14,10,-3,-26,-43,-50,-22,-31
-5,8,12,-2,-9,10,-5,-25,-26,-45,-41,-35
1,10,10,-5,-4,10,-5,-30,-12,-46,-47,-38
-4,7,10,-1,-7,8,-9,-34,1,-44,-48,-41
-2,4,6,-1,-5,5,-11,-39,-3,-52,-52,-45
-4,1,5,1,-4,2,-9,-39,-18,-67,-55,-44
-7,-1,6,3,-6,2,-5,-33,-28,-74,-55,-40
-11,-6,5,8,-7,0,3,-45,-44,-72,-45,-35
-9,-4,5,6,-6,0,9,-51,-63,-62,-39,-33
-25,-18,7,21,-16,-5,17,-37,-66,-52,-29,-27
-31,-1,30,16,-31,14,17,-27,-62,-42,-23,-26
8,82,73,-45,-33,77,14,-18,-60,-35,-13,-18
33,112,79,-73,-23,95,9,-8,-56,-34,8,1
38,109,71,-74,-16,90,-9,-18,-55,-37,23,8
50,105,55,-78,-3,80,-52,-39,-66,-31,27,20
55,69,14,-62,20,41,-98,-69,-87,-46,7,11
43,37,-6,-40,25,15,-95,-87,-94,-58,4,1
10,-1,-11,-4,10,-6,-61,-78,-96,-71,-29,-18
4,-7,-10,2,7,-8,-46,-78,-95,-87,-45,-36
-3,-27,-24,15,11,-26,-36,-68,-97,-100,-65,-55
-35,-46,-11,41,-12,-28,-17,-71,-101,-115,-79,-63
-16,-36,-20,26,3,-28,-20,-58,-83,-94,-74,-61
-29,-29,0,29,-14,-15,0,-60,-84,-113,-104,-81
-41,-52,-11,47,-15,-31,38,10,-41,-58,-60,-73
-41,-141,-100,91,30,-120,97,160,171,269,75,-49
474,22,-453,-248,463,-215,-194,433,982,1820,1211,588
1018,185,-832,-601,925,-323,-657,369,1136,2655,1872,1129
451,55,-396,-253,424,-170,-669,-840,-769,281,470,555
-117,-130,-12,124,-52,-71,-556,-1428,-1884,-1510,-583,-33
-194,-197,-3,195,-95,-100,-303,-781,-1158,-1074,-592,-193
-199,-96,103,147,-151,3,-43,-395,-544,-557,-356,-170
-112,-70,42,90,-77,-13,-9,-154,-215,-259,-170,-103
-110,-75,35,92,-72,-20,40,-44,-104,-192,-160,-103
-95,-57,38,76,-66,-9,54,-31,-54,-160,-120,-88
-90,-60,30,75,-60,-15,62,4,3,-135,-125,-94
-87,-47,40,67,-64,-3,60,-3,-10,-135,-108,-86
-76,-46,30,60,-52,-8,71,22,-10,-111,-101,-85
-94,-55,39,74,-66,-8,98,19,-32,-113,-98,-83
-98,-65,32,81,-65,-16,92,39,-30,-96,-89,-75
-93,-56,36,74,-64,-10,98,53,-24,-93,-90,-70
-86,-51,35,68,-60,-8,99,61,4,-80,-81,-62
-80,-47,33,63,-56,-6,100,81,40,-62,-80,-56
-93,-39,55,66,-74,8,103,106,100,-27,-67,-50
-99,-26,73,63,-86,23,105,137,166,5,-56,-41
-90,-15,75,52,-82,30,128,175,233,31,-43,-28
-78,2,80,38,-79,41,145,225,315,67,-23,-16
-58,18,77,20,-68,47,151,286,392,114,-3,-2
-34,35,69,-1,-52,51,162,337,456,161,21,11
-13,50,63,-19,-38,56,160,370,489,197,56,34
-4,51,56,-24,-30,53,154,377,490,216,84,63
28,77,49,-52,-11,62,131,344,460,208,91,68
39,84,45,-62,-3,64,98,294,393,198,83,57
22,64,43,-43,-11,53,69,242,290,172,72,49
15,55,40,-35,-12,47,50,173,182,112,63,40
3,39,36,-21,-17,37,42,116,90,63,48,31
-7,28,35,-11,-21,31,34,75,29,36,31,19
-16,15,31,1,-24,23,30,41,-7,8,13,5
-24,6,30,9,-27,17,30,27,-17,-17,-3,-7
-25,4,30,10,-28,17,30,13,-13,-37,-9,-17
-25,1,25,12,-25,12,30,4,-21,-57,-18,-28
-26,-1,25,13,-25,11,30,-2,-34,-73,-25,-35
-31,-6,25,18,-28,10,27,-9,-45,-83,-36,-35
-28,-4,25,15,-26,10,21,-16,-55,-92,-42,-36
-25,0,25,12,-25,12,16,-23,-63,-91,-39,-40
-25,0,25,12,-25,12,13,-23,-68,-86,-41,-40
-26,-1,25,13,-25,12,7,-19,-69,-84,-39,-38
-24,1,25,11,-25,13,6,-17,-61,-79,-41,-35
-25,-4,21,14,-23,9,10,-14,-54,-76,-37,-32
-35,-15,20,25,-27,2,10,-11,-48,-72,-34,-29
-26,-7,20,16,-23,6,12,-10,-40,-70,-36,-25
-16,-1,15,8,-16,7,16,-10,-30,-70,-31,-25
-24,-9,15,16,-19,2,14,-11,-20,-70,-30,-30
-31,-16,15,23,-23,0,12,-9,-10,-70,-29,-30
-37,-23,14,29,-26,-4,9,-17,-5,-70,-35,-33
-45,-22,23,33,-33,0,6,-27,-10,-67,-43,-37
-46,-13,33,30,-40,10,4,-19,-24,-64,-39,-32
-36,-8,28,22,-32,10,0,-16,-42,-66,-40,-30
-32,0,32,16,-32,16,2,-11,-57,-63,-39,-29
-23,5,28,9,-26,16,11,-6,-56,-66,-40,-24
-17,15,32,1,-25,24,27,-7,-46,-58,-39,-26
4,72,68,-39,-32,70,22,-10,-40,-25,-16,-7
60,131,71,-96,-6,101,2,-10,-32,-13,-1,10
71,131,61,-101,5,96,-35,-9,-44,-22,10,21
55,91,36,-73,10,63,-76,-52,-86,-53,-1,24
56,59,3,-57,26,31,-79,-81,-98,-58,-6,19
21,12,-9,-16,15,1,-76,-65,-92,-63,-16,5
-22,-25,-3,24,-9,-14,-55,-69,-99,-99,-42,-22
-29,-37,-8,34,-10,-23,-37,-58,-91,-90,-50,-38
-47,-48,-1,48,-23,-24,-17,-59,-100,-103,-78,-55
-47,-49,-2,48,-22,-25,-19,-51,-94,-85,-51,-40
-64,-63,0,64,-32,-31,3,-44,-103,-108,-90,-62
-39,-42,-3,41,-17,-22,30,-10,-70,-72,-64,-52
-50,-136,-85,93,18,-110,86,133,71,90,-32,-85
232,-81,-313,-75,272,-196,-44,336,692,1264,799,336
899,193,-706,-546,802,-257,-523,498,1337,2873,2021,1105
669,158,-511,-413,589,-176,-666,-367,-38,1320,1083,808
-32,-66,-34,49,1,-50,-557,-1358,-1752,-1250,-423,83
-167,-179,-12,173,-77,-95,-375,-926,-1390,-1275,-653,-189
-157,-111,46,134,-101,-33,-98,-411,-654,-662,-452,-219
-113,-53,60,83,-86,4,-21,-218,-295,-326,-195,-121
-73,-60,13,66,-42,-24,36,-56,-107,-178,-161,-112
-72,-51,21,61,-46,-15,54,-45,-64,-169,-141,-103
-68,-58,10,63,-38,-24,46,-9,9,-119,-120,-105
-72,-53,19,62,-45,-17,54,-14,8,-131,-125,-107
-68,-56,12,62,-39,-22,46,2,20,-107,-110,-102
-69,-52,17,60,-43,-18,53,9,12,-108,-118,-107
-63,-46,17,54,-40,-14,50,26,12,-97,-104,-97
-65,-42,23,53,-44,-9,61,32,9,-87,-108,-95
-60,-35,25,47,-42,-5,65,36,12,-75,-99,-88
-56,-30,26,43,-41,-2,72,64,43,-58,-91,-83
-72,-25,47,48,-59,11,84,77,89,-45,-83,-78
-71,-18,53,44,-61,17,97,111,160,-22,-73,-72
-64,-7,57,35,-60,25,117,153,226,9,-62,-63
-65,3,68,31,-66,35,127,202,293,50,-48,-52
-40,23,63,8,-52,43,139,253,352,99,-27,-34
-8,48,56,-20,-32,52,155,299,417,142,9,-10
12,61,49,-37,-19,55,152,333,463,179,44,13
31,73,42,-52,-6,57,141,329,471,210,73,37
39,76,37,-58,1,56,134,316,457,203,94,51
44,74,31,-59,6,52,117,290,396,191,99,46
46,76,30,-61,7,53,88,221,309,167,85,36
39,69,29,-54,5,49,68,160,203,123,71,29
29,55,26,-42,1,40,53,111,112,77,53,17
15,39,24,-28,-5,32,44,65,55,37,24,-2
-4,22,27,-9,-16,24,46,35,9,8,-1,-13
-19,11,30,4,-25,20,44,12,-3,-12,-10,-19
-20,10,30,5,-25,20,45,3,-10,-26,-15,-26
-20,10,30,5,-25,20,45,-16,-21,-47,-23,-33
-25,5,30,10,-28,17,46,-36,-27,-57,-28,-37
-25,5,30,10,-28,17,54,-35,-45,-72,-40,-49
-23,4,27,9,-25,15,55,-35,-66,-88,-51,-61
-21,0,21,11,-21,10,55,-35,-72,-82,-50,-60
-16,0,16,8,-16,8,54,-35,-83,-81,-49,-59
-12,0,13,6,-13,6,50,-33,-87,-77,-45,-55
-8,0,7,4,-7,3,48,-29,-80,-75,-45,-55
-4,1,5,1,-4,2,45,-27,-75,-73,-43,-53
-12,-7,5,9,-8,-1,42,-24,-69,-66,-38,-48
-22,-17,5,19,-13,-6,40,-21,-63,-59,-35,-45
-25,-20,5,22,-15,-7,36,-20,-40,-53,-32,-42
-30,-24,5,27,-17,-10,27,-27,-27,-45,-27,-37
-30,-25,5,27,-17,-10,21,-36,-31,-41,-26,-35
-26,-24,2,25,-14,-11,13,-40,-30,-47,-28,-35
-23,-26,-2,25,-10,-14,-10,-40,-31,-59,-40,-36
-19,-24,-6,22,-6,-15,-22,-40,-30,-67,-46,-36
-17,-26,-9,21,-4,-17,-18,-38,-30,-63,-38,-31
-8,-23,-15,16,4,-19,-16,-45,-42,-55,-35,-27
-8,-21,-12,15,2,-16,-13,-51,-58,-46,-29,-22
-15,-2,13,8,-14,5,-11,-33,-61,-40,-26,-18
14,69,56,-42,-21,62,-8,-28,-59,-31,-21,-13
39,104,65,-72,-13,85,-5,-31,-66,-26,-18,-6
55,97,42,-76,6,69,-20,-28,-64,-20,-14,6
64,92,28,-78,18,60,-77,-60,-70,-31,-10,11
52,56,4,-54,24,30,-111,-92,-92,-62,-9,8
45,15,-29,-29,37,-7,-94,-82,-87,-61,-2,12
16,-13,-30,-1,23,-21,-59,-83,-94,-91,-36,-25
-6,-33,-27,20,10,-29,-42,-79,-93,-98,-47,-43
-31,-56,-25,44,-3,-40,-27,-74,-96,-118,-83,-65
-33,-49,-16,41,-8,-32,-18,-78,-97,-120,-68,-58
-44,-64,-20,55,-12,-42,-4,-71,-104,-117,-78,-70
-52,-68,-16,60,-18,-42,23,-71,-111,-128,-88,-75
-32,-107,-75,70,21,-91,71,54,-6,-28,-68,-70
58,-131,-189,37,123,-160,48,208,382,677,351,85
719,130,-588,-424,653,-229,-375,473,1253,2550,1730,881
905,204,-701,-554,803,-249,-692,1,641,2286,1650,1039
161,-39,-200,-60,180,-119,-627,-1252,-1438,-602,-19,285
-147,-180,-33,163,-56,-106,-467,-1211,-1701,-1467,-633,-111
-189,-156,32,172,-110,-62,-163,-553,-850,-819,-513,-216
-166,-69,97,117,-131,14,-16,-300,-397,-437,-270,-144
-77,-58,19,67,-48,-20,9,-90,-119,-196,-140,-100
-105,-66,39,86,-72,-13,48,-70,-58,-186,-134,-112
-85,-64,21,74,-52,-21,46,-18,15,-127,-101,-91
-92,-65,26,78,-59,-19,70,6,38,-128,-119,-99
-79,-58,21,68,-50,-19,80,17,35,-119,-101,-83
-80,-62,18,71,-49,-22,80,30,20,-110,-106,-85
-83,-56,28,69,-55,-14,83,32,8,-112,-98,-75
-60,-38,22,48,-40,-8,85,46,2,-97,-94,-71
-52,-23,28,37,-40,2,86,44,-8,-90,-89,-67
-41,-17,23,29,-32,2,84,76,32,-70,-83,-59
-52,-12,40,32,-46,14,87,93,81,-60,-79,-56
-67,-3,65,34,-66,31,110,122,142,-36,-72,-47
-69,0,69,34,-69,34,130,163,201,-3,-67,-41
-53,15,68,19,-61,41,133,212,266,43,-47,-31
-33,30,63,1,-49,46,148,270,345,85,-28,-25
-24,36,60,-6,-42,48,172,318,424,119,-5,-14
-4,53,57,-25,-31,54,173,358,481,160,28,15
19,71,52,-45,-17,61,162,383,510,192,52,31
32,82,50,-57,-9,66,154,370,492,215,78,48
29,74,45,-52,-8,59,126,324,427,217,102,61
24,64,40,-44,-8,52,85,266,334,179,94,53
21,56,36,-39,-8,46,45,196,212,130,77,49
12,44,31,-28,-10,37,30,136,121,86,59,41
-4,22,26,-9,-15,24,30,91,51,48,34,25
-19,6,25,6,-22,15,26,50,-1,19,12,9
-32,-7,25,19,-29,9,23,16,-25,-8,-6,-2
-38,-13,25,25,-31,6,20,-3,-46,-34,-18,-6
-27,-2,25,14,-26,11,20,-5,-46,-43,-24,-11
-47,-22,25,34,-36,1,20,-13,-49,-58,-28,-17
-57,-32,25,44,-41,-3,20,-17,-53,-79,-37,-23
-46,-21,25,33,-35,2,20,-22,-62,-84,-46,-28
-42,-17,25,29,-33,4,20,-38,-67,-84,-43,-30
-33,-8,25,20,-29,8,20,-40,-70,-94,-54,-30
-29,-4,25,16,-27,10,17,-34,-76,-99,-61,-30
-16,9,25,3,-20,17,14,-31,-75,-92,-55,-30
-13,13,25,0,-19,19,11,-28,-74,-87,-53,-29
-21,3,25,8,-23,14,8,-26,-70,-81,-48,-26
-28,-3,25,15,-26,11,6,-22,-70,-76,-45,-23
-36,-11,25,23,-30,7,3,-20,-58,-71,-45,-20
-43,-18,25,30,-34,3,0,-18,-42,-70,-45,-18
-48,-23,25,35,-36,0,0,-15,-36,-70,-45,-14
-46,-26,20,36,-33,-2,0,-15,-30,-70,-45,-18
-44,-24,20,34,-32,-1,1,-11,-30,-70,-45,-21
-45,-26,19,35,-31,-3,-1,-10,-32,-73,-47,-20
-40,-24,15,31,-27,-5,8,-10,-28,-75,-51,-21
-40,-25,15,32,-27,-5,17,-17,-45,-75,-55,-19
-55,-39,16,47,-35,-12,17,-23,-65,-74,-51,-21
-43,-29,14,36,-28,-7,8,-12,-59,-75,-49,-13
-29,9,38,9,-34,24,19,-2,-52,-73,-49,-9
-14,69,82,-28,-48,75,32,6,-47,-44,-22,3
12,96,84,-54,-36,89,19,23,-36,-18,4,28
14,81,67,-48,-27,74,-3,7,-36,-14,18,38
26,74,48,-50,-12,61,-63,-39,-75,-23,11,34
35,55,21,-45,7,38,-79,-63,-100,-46,-2,35
19,9,-10,-13,14,-1,-61,-58,-91,-52,-12,31
-11,-22,-11,17,0,-16,-47,-62,-99,-82,-43,-14
-16,-21,-6,19,-5,-13,-31,-60,-92,-89,-48,-29
-47,-52,-5,50,-21,-28,-22,-59,-97,-110,-83,-48
-61,-55,6,58,-34,-24,-20,-63,-98,-111,-69,-44
-76,-69,6,72,-41,-31,-17,-48,-101,-115,-89,-59
-98,-57,42,77,-69,-7,9,-33,-99,-122,-86,-59
-84,-90,-6,87,-38,-48,70,77,-17,-41,-75,-73
49,-103,-152,27,101,-127,26,218,405,689,358,106
723,141,-582,-432,652,-220,-419,499,1302,2559,1697,879
905,173,-732,-538,818,-279,-745,-43,610,2211,1556,996
176,-68,-244,-54,210,-156,-689,-1347,-1499,-653,-47,284
-175,-208,-33,192,-71,-121,-498,-1277,-1735,-1482,-626,-100
-195,-140,54,167,-124,-43,-183,-608,-846,-813,-491,-177
-157,-50,107,103,-131,28,-39,-319,-376,-418,-247,-121
-102,-57,45,79,-73,-6,19,-83,-103,-192,-145,-104
-104,-34,70,69,-87,18,60,-52,-53,-173,-137,-105
-85,-35,49,60,-66,7,52,-17,7,-131,-107,-89
-89,-33,57,61,-73,12,71,-10,31,-136,-124,-92
-76,-27,49,52,-62,11,69,8,34,-116,-106,-78
-78,-28,51,53,-64,11,75,24,38,-108,-111,-79
-79,-22,57,50,-68,17,77,32,31,-104,-103,-70
-76,-21,55,49,-65,16,80,47,39,-86,-98,-67
-74,-11,63,42,-68,26,85,53,31,-78,-91,-62
-67,-7,60,37,-63,27,91,81,51,-59,-83,-57
-78,1,79,38,-78,40,106,104,99,-45,-78,-54
-84,8,91,38,-88,49,127,149,150,-20,-68,-47
-85,10,94,37,-89,52,140,184,207,13,-62,-41
-80,11,91,34,-85,51,154,231,281,56,-44,-34
-64,18,82,23,-73,50,170,296,365,83,-20,-28
-37,40,77,-2,-57,58,188,353,449,124,2,-15
-13,54,68,-21,-41,61,197,395,509,168,29,9
15,76,61,-46,-23,68,189,412,545,199,53,32
35,89,54,-63,-10,72,182,400,541,209,82,53
30,78,47,-54,-9,62,144,351,478,198,96,64
33,73,41,-53,-4,57,98,282,379,183,84,55
29,63,34,-46,-3,48,64,206,263,147,76,49
20,48,27,-34,-4,37,46,135,157,104,58,33
15,36,21,-25,-3,28,38,77,83,60,33,3
7,27,20,-17,-7,23,24,34,25,20,12,-6
3,23,20,-13,-9,21,20,5,-18,0,-4,-9
-4,16,20,-6,-12,18,20,-16,-35,-10,-9,-12
-8,12,20,-2,-14,15,20,-24,-37,-26,-14,-17
-14,6,20,4,-18,13,20,-32,-42,-33,-17,-19
-17,1,19,8,-18,9,20,-42,-48,-52,-23,-27
-17,-2,15,9,-16,6,19,-45,-56,-72,-26,-44
-23,-8,15,15,-19,3,15,-48,-71,-72,-24,-45
-24,-9,15,16,-19,3,15,-50,-76,-75,-35,-45
-18,-3,15,10,-16,6,15,-53,-75,-79,-41,-45
-12,3,15,4,-14,9,15,-56,-75,-79,-39,-45
-10,8,19,1,-15,13,15,-51,-76,-73,-40,-44
-13,8,20,2,-17,14,11,-45,-74,-67,-40,-40
-17,3,20,7,-19,11,4,-40,-69,-63,-40,-40
-17,3,20,7,-19,11,-2,-34,-54,-56,-44,-40
-24,-4,20,14,-22,8,-9,-29,-26,-51,-45,-40
-21,-3,19,12,-20,8,-16,-26,-18,-50,-45,-40
-24,-10,14,17,-19,2,-22,-35,-21,-49,-45,-40
-51,-42,9,46,-29,-16,-25,-44,-23,-54,-45,-40
-41,-36,5,38,-22,-15,-25,-46,-26,-64,-45,-40
-17,-16,0,16,-9,-8,-25,-49,-29,-69,-46,-40
-20,-25,-5,23,-8,-14,-25,-51,-44,-64,-45,-40
-30,-31,-1,30,-14,-16,-25,-55,-66,-64,-46,-39
-36,-27,9,31,-22,-9,-18,-53,-75,-66,-44,-31
-34,-22,12,28,-23,-5,-3,-41,-75,-52,-46,-23
9,37,28,-23,-10,32,9,-25,-75,-44,-34,-15
53,95,42,-74,5,68,-4,-25,-74,-30,-1,-7
73,101,28,-87,22,64,-12,-23,-76,-28,4,-2
88,107,19,-98,34,63,-44,-33,-74,-21,7,5
81,81,0,-81,40,40,-92,-67,-88,-37,-3,7
84,42,-42,-63,63,0,-89,-74,-101,-67,-16,9
53,-5,-58,-24,55,-31,-68,-66,-99,-72,-29,-14
11,-27,-38,9,25,-32,-45,-75,-101,-91,-49,-40
-5,-42,-37,24,16,-39,-38,-65,-98,-96,-63,-57
-34,-53,-19,44,-8,-36,-29,-74,-102,-119,-87,-78
-26,-48,-22,37,-2,-35,-37,-71,-100,-100,-60,-64
-50,-68,-18,60,-16,-43,-18,-74,-116,-121,-94,-93
-41,-49,-8,46,-16,-29,5,-36,-71,-101,-65,-62
-59,-132,-73,95,7,-102,75,95,56,58,-42,-80
256,-47,-303,-105,280,-175,-85,303,710,1270,758,317
987,187,-800,-587,893,-306,-604,459,1332,2814,1865,1031
750,77,-673,-413,711,-298,-782,-563,-176,1190,948,738
22,-151,-172,65,98,-162,-677,-1565,-1887,-1298,-424,75
-154,-209,-55,182,-49,-132,-429,-1051,-1450,-1274,-614,-153
-185,-86,99,135,-142,6,-130,-516,-674,-658,-413,-168
-111,-27,84,69,-97,28,-35,-232,-280,-326,-186,-105
-66,-46,20,56,-43,-13,39,-74,-90,-204,-151,-116
-67,-29,38,48,-52,5,55,-67,-59,-195,-126,-97
-58,-35,23,47,-40,-6,51,-6,7,-138,-118,-93
-64,-28,36,46,-50,4,66,-9,5,-145,-121,-90
-53,-27,25,40,-39,-1,73,11,9,-118,-107,-83
-69,-19,50,44,-59,15,83,11,-2,-119,-112,-84
-68,-12,56,40,-62,22,84,34,-7,-103,-100,-75
-60,-7,54,33,-57,23,90,45,-7,-90,-98,-76
-55,2,57,26,-56,29,95,58,13,-78,-85,-69
-57,5,63,26,-60,34,105,87,42,-61,-79,-62
-65,12,76,26,-71,44,116,113,85,-43,-70,-56
-71,14,84,28,-78,49,129,154,144,-14,-60,-48
-68,20,88,24,-78,53,147,195,208,11,-53,-43
-63,19,82,21,-72,50,164,252,292,43,-43,-36
-52,27,80,12,-66,54,177,316,383,89,-21,-22
-21,55,76,-18,-49,65,197,379,474,134,7,-9
3,74,71,-39,-35,72,195,412,530,172,34,12
24,93,69,-59,-23,80,181,408,549,193,57,31
37,100,63,-69,-13,81,174,385,537,193,78,47
36,92,56,-64,-10,73,140,339,470,186,82,54
37,86,49,-62,-7,68,95,272,353,167,69,42
40,82,42,-61,-2,62,65,198,234,131,58,31
36,73,36,-55,0,54,42,125,133,84,44,20
18,53,34,-36,-9,43,27,72,53,33,22,10
6,42,35,-24,-15,38,22,42,-6,-6,2,0
4,38,34,-22,-16,36,16,23,-42,-27,-14,-10
-4,32,36,-14,-21,34,11,5,-55,-37,-31,-19
-17,26,44,-5,-31,35,4,-11,-55,-39,-36,-25
-24,21,45,1,-35,33,1,-21,-55,-55,-35,-30
-29,16,45,6,-37,30,16,-25,-55,-61,-40,-35
-30,15,45,7,-38,30,21,-25,-55,-61,-42,-42
-31,14,45,8,-38,29,19,-27,-56,-82,-54,-44
-34,11,45,11,-39,28,21,-35,-62,-91,-61,-40
-37,8,45,14,-41,26,20,-40,-69,-100,-59,-40
-31,14,45,8,-38,29,20,-40,-74,-103,-60,-40
-20,25,45,-3,-33,35,15,-40,-74,-97,-60,-40
-20,25,45,-3,-33,35,11,-40,-70,-95,-60,-40
-21,24,45,-2,-33,34,9,-40,-68,-91,-57,-44
-24,21,45,1,-35,33,4,-43,-65,-86,-54,-45
-25,19,45,3,-35,31,1,-46,-62,-86,-56,-45
-25,21,45,1,-35,33,0,-45,-60,-90,-55,-45
-25,19,45,3,-35,31,0,-49,-57,-91,-56,-46
-25,21,46,2,-35,33,0,-50,-55,-90,-54,-44
-26,19,45,3,-36,32,0,-49,-55,-90,-48,-38
-31,21,52,5,-42,36,1,-43,-54,-90,-45,-31
-37,19,55,8,-46,36,-1,-32,-55,-83,-39,-24
-26,32,59,-3,-43,45,17,-22,-55,-71,-37,-18
6,92,86,-49,-40,89,31,-15,-55,-60,-23,-11
41,127,86,-85,-23,106,18,-15,-55,-60,-4,-7
50,123,73,-87,-12,98,-6,-14,-55,-60,-10,-4
57,113,56,-85,0,84,-57,-39,-77,-59,-18,1
39,87,48,-64,-4,67,-80,-72,-116,-62,-30,2
7,56,50,-32,-22,53,-66,-69,-123,-57,-34,6
-24,26,50,-1,-37,38,-38,-70,-127,-91,-48,-25
-39,12,51,14,-45,31,-22,-72,-124,-102,-50,-49
-57,-10,47,33,-52,18,-14,-65,-125,-124,-89,-78
-64,-9,55,36,-59,23,-9,-78,-127,-129,-82,-72
-47,-10,37,28,-42,13,-7,-73,-115,-124,-89,-75
-53,4,57,24,-55,30,10,-72,-112,-148,-98,-82
-66,-42,24,54,-45,-9,48,29,-28,-75,-81,-79
-16,-99,-83,58,34,-91,62,164,298,454,185,13
645,125,-521,-385,583,-198,-338,473,1199,2236,1453,735
994,209,-785,-601,889,-287,-722,138,872,2393,1633,1020
286,-5,-291,-140,289,-148,-691,-1228,-1274,-365,89,341
-144,-158,-14,151,-65,-86,-545,-1418,-1877,-1545,-630,-99
-203,-119,84,161,-143,-18,-238,-716,-1014,-925,-533,-205
-165,-5,161,85,-163,78,-55,-380,-483,-484,-289,-151
-88,-10,77,49,-82,33,-2,-122,-172,-230,-155,-112
-123,-23,99,73,-111,38,48,-78,-101,-218,-155,-122
-103,-17,85,60,-94,34,47,-43,-36,-162,-116,-95
-104,-16,88,60,-95,36,67,-19,-4,-144,-130,-100
-94,-9,86,51,-90,38,69,-17,-10,-133,-115,-92
-91,-8,83,49,-87,38,78,-2,-6,-119,-118,-96
-90,2,92,44,-91,47,83,-2,-19,-119,-111,-89
-84,7,91,38,-88,49,85,23,-17,-103,-107,-90
-83,14,97,34,-90,55,89,34,-12,-101,-103,-89
-71,26,97,23,-84,61,90,60,23,-81,-91,-82
-67,42,108,12,-88,75,98,78,55,-70,-86,-81
-79,36,115,21,-97,75,107,107,93,-46,-77,-76
-91,33,124,29,-108,79,119,155,151,-13,-68,-73
-74,60,134,7,-104,97,133,207,223,19,-54,-69
-67,73,140,-3,-104,106,151,262,307,56,-38,-61
-47,84,131,-19,-89,107,155,318,394,99,-20,-44
-24,99,123,-37,-74,111,145,365,472,138,10,-19
-19,93,112,-37,-65,102,140,375,503,168,41,11
9,85,76,-47,-34,81,131,369,487,194,73,37
40,74,34,-57,3,54,125,355,467,207,94,60
53,51,-1,-52,27,25,114,295,390,198,86,67
44,28,-16,-36,29,6,88,227,270,161,77,61
22,-2,-25,-10,24,-13,72,157,172,112,68,57
-1,-35,-34,18,17,-34,63,107,88,65,59,37
-12,-48,-36,30,12,-41,52,82,25,24,43,22
-23,-63,-39,43,8,-51,50,49,-14,2,25,16
-31,-73,-42,52,5,-57,47,32,-27,-6,20,7
-23,-68,-45,46,11,-56,44,23,-24,-14,12,0
-22,-67,-45,45,12,-56,41,15,-28,-29,6,-8
-16,-63,-47,40,16,-55,39,6,-30,-43,-1,-10
-23,-73,-51,48,14,-62,36,-3,-30,-50,-7,-10
-40,-90,-49,65,5,-69,35,-5,-34,-59,-9,-10
-26,-80,-54,53,14,-66,35,-5,-42,-65,-13,-10
-17,-72,-55,45,20,-63,35,-8,-44,-65,-15,-10
-21,-75,-55,48,18,-65,35,-11,-39,-65,-19,-5
-19,-74,-55,47,18,-65,33,-9,-36,-76,-20,-5
-23,-78,-55,51,17,-66,29,-6,-33,-70,-16,-5
-26,-80,-54,53,14,-67,27,-5,-28,-59,-15,-5
-33,-81,-47,57,7,-64,24,-5,-26,-62,-16,-6
-33,-75,-42,54,5,-58,21,-5,-21,-56,-15,-3
-31,-67,-36,49,3,-52,20,-5,-12,-56,-15,0
-27,-58,-31,42,2,-44,27,-2,-3,-49,-14,3
-4,-30,-26,17,11,-28,40,18,21,-24,11,5
30,5,-25,-17,27,-9,33,36,30,-1,29,15
57,34,-23,-45,40,5,19,28,16,10,30,27
50,32,-18,-41,34,6,-10,23,7,5,30,32
43,18,-25,-31,33,-3,-63,-5,-7,-11,21,34
60,12,-48,-36,54,-17,-98,-40,-38,-12,19,30
54,-11,-64,-21,59,-37,-93,-61,-78,-34,5,16
28,-38,-66,5,47,-52,-70,-66,-101,-64,7,14
-13,-69,-56,41,22,-62,-42,-63,-106,-84,-11,-4
-34,-76,-42,55,4,-58,-23,-68,-106,-81,-25,-24
-47,-88,-41,68,-3,-64,-15,-60,-103,-89,-45,-44
-64,-92,-28,78,-18,-59,-3,-72,-109,-106,-61,-54
-43,-87,-44,65,0,-65,-4,-52,-99,-90,-53,-51
-72,-95,-23,84,-24,-59,17,-63,-97,-117,-80,-64
-65,-107,-42,86,-11,-74,49,17,-36,-62,-52,-57
-60,-172,-112,116,26,-142,102,154,177,229,52,-55
449,-20,-470,-214,460,-245,-185,439,991,1748,1101,524
1055,132,-924,-593,989,-396,-653,391,1168,2625,1752,1041
521,-33,-554,-244,538,-294,-727,-929,-792,284,435,514
-99,-237,-138,168,20,-187,-605,-1543,-1960,-1513,-565,-27
-195,-227,-32,211,-82,-129,-301,-864,-1205,-1062,-547,-177
-170,-72,97,121,-133,13,-57,-437,-545,-532,-318,-162
-99,-74,25,86,-62,-24,-6,-147,-190,-237,-141,-92
-114,-89,26,101,-70,-31,60,-45,-83,-177,-141,-96
-88,-68,21,78,-54,-23,68,-27,-40,-145,-107,-83
-83,-73,10,78,-47,-31,73,4,8,-115,-107,-87
-72,-57,15,64,-43,-21,76,-3,2,-123,-96,-81
-58,-58,0,57,-29,-29,73,20,20,-106,-92,-79
-62,-48,13,55,-37,-17,79,23,15,-114,-91,-78
-64,-46,18,55,-40,-14,91,47,28,-97,-81,-71
-72,-41,30,56,-51,-5,98,56,29,-86,-82,-71
-66,-36,30,51,-48,-3,93,75,45,-60,-71,-65
-72,-31,41,52,-56,5,99,93,73,-37,-64,-62
-80,-16,64,48,-72,23,114,126,120,-15,-55,-58
-78,-3,75,40,-77,36,126,172,181,10,-46,-51
-70,5,75,32,-73,40,141,222,246,43,-35,-40
-67,16,83,25,-76,50,167,279,319,79,-17,-31
-53,30,83,11,-68,56,188,337,396,113,1,-18
-29,45,74,-8,-51,59,190,391,467,152,23,2
-5,63,68,-29,-37,65,192,420,511,189,55,22
11,70,59,-41,-24,64,183,418,514,207,78,44
14,66,52,-40,-20,59,146,375,472,196,94,60
13,60,46,-37,-17,53,104,301,388,179,90,56
8,52,44,-30,-19,48,69,226,284,154,75,44
4,44,41,-24,-19,42,54,154,191,116,60,33
-1,37,38,-18,-20,38,43,101,110,72,34,22
-6,28,35,-11,-21,31,35,61,51,29,13,10
-23,13,36,5,-30,24,34,28,9,-2,1,-3
-40,0,41,20,-40,20,30,17,-9,-12,-17,-10
-44,-5,39,25,-41,17,27,12,-21,-24,-39,-15
-49,-6,43,27,-45,18,25,6,-37,-43,-40,-20
-53,-8,45,30,-49,19,23,1,-47,-56,-40,-24
-59,-14,45,36,-52,15,19,-5,-61,-63,-40,-28
-32,10,42,11,-37,26,20,-10,-61,-68,-40,-33
-35,2,37,17,-36,19,20,-16,-60,-75,-50,-35
-67,-32,35,49,-50,1,20,-22,-59,-75,-57,-39
-50,-20,30,35,-40,5,19,-25,-54,-71,-59,-40
-40,-13,27,26,-33,7,15,-25,-56,-70,-56,-35
-27,-4,23,15,-25,10,15,-25,-53,-65,-51,-35
-20,0,20,10,-20,10,15,-25,-46,-65,-49,-35
-17,1,18,8,-18,9,15,-25,-42,-66,-44,-35
-22,-8,14,14,-18,3,14,-25,-37,-66,-42,-36
-38,-25,13,32,-25,-6,19,-21,-29,-65,-37,-33
-29,-21,7,25,-18,-7,25,-14,-26,-65,-35,-29
-28,-9,19,18,-24,5,34,-7,-17,-65,-34,-26
-28,5,33,11,-30,18,36,-1,-8,-61,-29,-22
-7,43,50,-18,-29,46,40,6,3,-43,-32,-20
25,94,70,-60,-22,82,46,11,9,-26,-6,-9
44,100,56,-72,-7,78,22,17,-4,-28,15,5
50,95,45,-73,2,69,-21,-6,-5,-12,14,14
68,72,4,-70,31,37,-59,-57,-48,-26,2,1
64,31,-34,-47,49,-2,-55,-74,-83,-37,4,-6
24,0,-24,-11,24,-12,-34,-65,-95,-54,-26,-19
-18,-23,-4,21,-7,-13,-24,-75,-118,-91,-57,-35
-37,-41,-5,39,-16,-23,-23,-67,-112,-99,-65,-47
-57,-47,10,52,-33,-18,-7,-83,-119,-125,-89,-66
-45,-41,3,43,-23,-19,-12,-82,-110,-103,-69,-54
-73,-55,18,64,-45,-18,6,-79,-129,-139,-103,-76
-60,-52,8,56,-34,-22,41,-30,-81,-99,-69,-64
-58,-119,-60,89,1,-89,102,101,73,78,-31,-95
299,-27,-327,-136,313,-177,-82,350,760,1305,772,330
1030,150,-880,-590,954,-365,-592,526,1325,2688,1736,1008
732,42,-690,-387,711,-324,-749,-596,-287,927,772,679
22,-149,-171,64,97,-160,-643,-1618,-1937,-1372,-470,48
-158,-210,-52,184,-53,-131,-408,-1069,-1451,-1252,-614,-151
-199,-94,105,146,-152,6,-115,-531,-683,-646,-403,-164
-104,-37,67,71,-86,15,-29,-234,-277,-297,-180,-111
-96,-59,37,77,-66,-10,30,-76,-104,-185,-153,-121
-97,-44,53,70,-75,5,46,-72,-67,-168,-130,-107
-85,-54,31,70,-58,-11,52,-19,-1,-121,-125,-105
-93,-48,45,70,-69,-1,55,-25,1,-129,-123,-100
-76,-47,29,61,-52,-9,62,0,21,-105,-117,-92
-80,-39,41,59,-60,1,77,3,16,-109,-111,-92
-71,-32,39,52,-55,3,76,12,26,-94,-112,-86
-71,-27,44,48,-58,9,81,32,32,-90,-98,-86
-66,-18,48,42,-57,14,83,62,34,-78,-102,-80
-64,-14,50,39,-57,17,86,84,52,-62,-89,-81
-62,-5,57,33,-59,26,83,105,85,-51,-84,-75
-65,4,69,31,-67,36,99,140,132,-22,-88,-66
-58,11,68,23,-63,39,107,180,197,9,-38,-58
-40,28,68,6,-54,48,128,236,278,49,-85,-49
-16,44,60,-14,-38,52,129,299,366,87,56,-37
-10,52,62,-21,-37,57,155,359,448,132,-276,-23
19,73,53,-47,-17,62,126,391,492,170,-348,-2
11,63,52,-37,-20,57,227,396,501,193,131,17
