I,II,III,aVR,aVL,aVF,V1,V2,V3,V4,V5,V6
80,65,-15,-72,47,25,0,9,-101,269,25,-99
80,65,-15,-72,47,25,-1,4,-108,262,25,-100
80,65,-15,-72,47,25,-5,-4,-114,254,22,-108
76,61,-14,-68,45,23,-8,-12,-118,245,19,-111
70,60,-11,-65,41,24,-13,-19,-126,236,16,-114
70,60,-9,-65,39,26,-16,-27,-136,229,14,-116
76,65,-11,-70,43,26,-19,-30,-146,224,11,-120
78,70,-8,-74,43,31,-21,-36,-145,219,6,-125
88,70,-18,-79,53,26,-19,-40,-145,213,4,-121
101,70,-31,-86,66,19,-23,-40,-144,207,0,-120
99,70,-29,-84,64,20,-28,-40,-149,202,-5,-120
101,70,-31,-86,66,20,-26,-40,-161,199,-2,-120
96,68,-29,-82,62,19,-24,-47,-160,197,-5,-120
95,61,-34,-78,64,13,-25,-51,-160,194,-12,-121
100,54,-46,-76,72,4,-25,-54,-160,191,-9,-125
92,47,-45,-69,68,1,-25,-53,-160,189,-10,-125
86,41,-45,-63,65,-2,-27,-49,-160,186,-10,-125
80,35,-45,-57,62,-5,-31,-50,-160,183,-10,-121
88,43,-45,-65,66,-1,-34,-50,-160,180,-8,-119
96,51,-45,-73,71,3,-35,-50,-160,177,-5,-120
92,48,-45,-69,68,1,-35,-51,-160,174,-5,-120
89,44,-45,-66,67,0,-35,-49,-159,177,-5,-120
85,41,-45,-63,65,-1,-35,-54,-155,180,-5,-121
82,36,-46,-58,63,-5,-33,-69,-155,179,-6,-125
78,34,-44,-56,60,-5,-29,-71,-155,180,-9,-125
89,48,-41,-69,65,3,-30,-70,-154,179,-12,-125
92,56,-36,-74,63,10,-29,-67,-156,180,-15,-125
88,54,-34,-71,61,10,-30,-65,-153,179,-13,-125
84,55,-29,-69,56,12,-29,-65,-146,180,-8,-129
81,55,-26,-68,53,14,-25,-57,-141,180,-3,-130
77,55,-22,-66,49,17,-20,-47,-136,180,1,-131
76,73,-3,-74,39,35,-15,-37,-129,202,6,-134
107,79,-28,-92,68,25,-12,-35,-125,206,11,-135
99,35,-64,-67,81,-14,-4,-35,-125,190,2,-134
83,18,-65,-50,74,-23,-5,-35,-124,183,-6,-127
82,18,-64,-50,73,-23,8,-35,-130,167,-17,-124
69,1,-67,-35,68,-33,5,-36,-134,158,-23,-116
37,-13,-51,-12,44,-32,44,-22,-139,156,-30,-113
41,31,-9,-36,25,11,70,-15,-138,183,-23,-105
80,58,-22,-69,51,18,-11,-50,-148,170,-25,-109
92,40,-52,-66,72,-6,-39,-57,-164,158,-28,-118
89,43,-46,-66,67,-1,-34,-49,-164,162,-19,-112
67,12,-55,-40,61,-21,-32,-52,-168,129,-35,-128
71,32,-39,-51,55,-3,-41,-40,-160,174,-5,-106
77,26,-51,-51,64,-13,-27,-45,-172,123,-31,-127
128,69,-59,-98,93,5,-46,-41,-153,183,-10,-122
166,24,-142,-94,154,-59,-95,40,-44,298,47,-89
545,435,-110,-490,327,163,-440,420,334,1518,806,394
856,1050,194,-954,330,622,-963,180,93,2258,1520,979
359,612,253,-486,53,432,-882,-863,-947,203,590,547
23,285,262,-154,-120,273,-543,-907,-991,-633,-83,95
35,207,172,-122,-68,189,-258,-345,-426,-46,-31,-23
35,-5,-40,-15,37,-22,-35,-132,-216,-20,-119,-157
73,35,-38,-54,56,-1,11,-20,-110,147,-69,-125
39,2,-37,-20,38,-17,47,-30,-115,112,-93,-174
34,7,-27,-20,30,-10,49,-18,-99,136,-77,-175
30,-19,-49,-5,40,-34,52,-12,-89,131,-74,-173
22,-43,-66,10,44,-54,57,-11,-86,114,-81,-178
19,-37,-56,9,37,-46,57,-1,-76,128,-76,-171
10,-52,-62,21,37,-57,74,-3,-79,104,-88,-183
21,-46,-67,13,44,-56,80,6,-66,116,-83,-177
31,-53,-84,11,57,-68,79,18,-69,106,-98,-182
30,-48,-78,9,54,-63,88,46,-47,125,-93,-179
27,-51,-78,12,53,-64,96,47,-43,118,-91,-181
25,-50,-75,13,50,-62,103,51,-28,120,-89,-175
21,-53,-75,17,48,-64,107,59,-21,121,-83,-186
23,-56,-79,16,52,-67,120,59,-18,118,-88,-192
25,-54,-79,15,53,-66,147,91,8,123,-91,-189
25,-56,-81,15,54,-68,157,107,-1,124,-96,-191
23,-56,-78,16,51,-67,171,109,56,115,-105,-191
19,-64,-83,23,51,-74,193,129,24,105,-122,-198
12,-70,-82,30,47,-76,224,133,97,90,-143,-202
4,-84,-87,40,46,-85,250,161,37,77,-144,-215
-1,-98,-97,50,48,-97,270,122,158,59,-161,-231
-9,-96,-87,52,39,-91,279,123,365,36,-169,-235
6,-85,-91,40,49,-88,270,121,138,26,-175,-237
10,-86,-96,38,53,-91,257,9,582,13,-176,-221
-2,-67,-65,35,31,-66,222,28,523,22,-142,-181
5,-20,-25,8,15,-22,177,57,2,46,-113,-140
30,2,-28,-16,29,-13,128,50,11,66,-67,-96
97,55,-43,-76,70,6,83,42,-66,111,-23,-55
128,92,-36,-110,82,27,58,25,-46,139,-4,-41
93,71,-22,-82,58,24,41,28,-67,133,11,-34
68,61,-6,-64,37,27,33,14,-55,122,17,-28
73,52,-21,-62,47,15,35,18,-84,118,15,-20
81,47,-33,-64,57,7,35,1,-56,106,12,-21
71,43,-28,-57,49,7,35,11,-86,104,9,-42
62,35,-27,-48,44,4,36,-17,-19,124,6,-39
55,33,-22,-44,38,5,35,-43,144,121,0,-26
52,31,-21,-41,36,4,35,17,-72,113,-4,-20
62,43,-19,-52,40,12,43,12,-86,110,-9,-12
74,53,-21,-64,47,16,42,5,-61,103,-14,-6
64,45,-19,-55,41,13,36,7,-89,99,-15,1
62,37,-25,-49,43,6,31,-4,-61,94,-15,7
72,33,-39,-52,55,-3,25,0,-90,91,-15,15
67,28,-39,-47,53,-5,20,-19,-65,85,-15,19
65,23,-42,-44,53,-9,15,-12,-94,81,-15,16
57,21,-36,-39,46,-8,15,-35,29,69,-16,14
59,11,-49,-35,54,-19,15,-65,23,60,-15,22
67,32,-35,-49,50,-1,15,-36,-113,49,-16,40
62,38,-24,-49,43,7,15,-32,-94,26,-8,40
59,-4,-62,-27,61,-33,13,-38,-93,27,-17,40
62,7,-55,-34,59,-24,8,-58,-21,29,-40,40
76,24,-52,-49,64,-14,2,-74,-40,22,-35,40
76,19,-57,-47,67,-18,-1,-68,-95,18,-27,52
77,20,-57,-48,67,-18,-7,-72,-56,15,-22,56
82,20,-62,-51,72,-21,-10,-69,-66,8,-13,55
78,19,-58,-48,68,-20,-6,-71,-78,-1,-11,55
83,22,-61,-52,72,-20,-2,-66,-111,0,-27,55
67,8,-59,-37,63,-25,1,-63,-104,-9,-36,55
41,-20,-61,-10,51,-40,5,-59,-111,2,-34,52
38,-16,-54,-11,46,-35,3,-56,-114,18,-36,49
46,-10,-56,-18,52,-33,-3,-51,-105,-16,-35,46
63,11,-52,-36,57,-21,-6,-48,-123,-39,-36,43
74,27,-46,-50,59,-9,-11,-45,-81,-25,-31,40
59,19,-40,-39,50,-11,-14,-55,-119,-26,-30,39
27,16,-11,-21,19,2,-16,-99,38,-13,-29,33
32,9,-23,-20,27,-7,-14,-119,200,-3,-25,48
53,4,-49,-28,51,-23,-16,-197,409,-22,-25,61
44,0,-44,-22,44,-21,-15,-196,399,-35,-25,44
59,15,-44,-37,51,-14,-12,-87,-130,-47,-37,34
51,1,-51,-26,51,-25,-4,-82,-164,-63,-45,37
12,-52,-64,20,38,-58,10,-74,-118,-86,-57,32
72,-58,-130,-7,101,-93,12,-61,-139,-54,-53,39
48,-47,-96,0,72,-71,54,-68,-62,-47,-58,50
-19,-28,-9,24,-5,-18,41,-51,-108,-18,-36,55
25,-16,-42,-4,34,-29,-2,-59,-122,-46,-40,40
39,-9,-48,-15,44,-28,6,-44,-125,-46,-41,35
48,0,-48,-24,48,-24,-10,-55,-126,-33,-38,31
55,2,-53,-28,54,-26,-2,-64,-125,-58,-62,11
36,-17,-53,-9,45,-35,-18,-30,-81,-29,-40,11
191,-9,-200,-91,195,-104,-104,183,122,396,188,155
734,621,-113,-678,423,254,-547,548,487,2005,1314,884
719,943,224,-831,247,583,-902,-153,-220,1399,1395,1103
53,371,318,-212,-133,344,-595,-1079,-1137,-858,45,372
-106,177,283,-36,-195,230,-304,-734,-779,-715,-214,80
-27,91,118,-32,-73,104,-141,-294,-281,-294,-120,24
-11,-41,-29,26,9,-35,20,-108,-149,-194,-130,-20
8,-26,-34,10,21,-30,46,-51,111,-56,-55,20
-20,-66,-46,43,13,-56,52,-128,352,-119,-103,-7
8,-43,-51,18,29,-47,49,-36,63,-53,-72,3
22,-48,-70,14,46,-59,49,10,-94,-91,-94,-15
19,-41,-61,11,40,-51,58,17,-25,-55,-80,-15
26,-34,-60,4,43,-46,70,32,-64,-65,-87,-27
17,-41,-58,13,37,-49,71,29,-29,-54,-83,-36
-3,-56,-53,30,25,-54,69,31,-41,-45,-77,-34
0,-60,-60,30,31,-60,68,32,-27,-45,-83,-35
13,-46,-59,16,36,-52,81,50,-23,-30,-74,-37
15,-45,-61,15,38,-53,93,58,-17,-30,-76,-54
26,-34,-60,4,43,-47,92,59,-7,-25,-74,-55
30,-30,-60,0,45,-45,97,69,-4,-32,-81,-58
15,-46,-61,15,38,-53,107,80,20,-29,-79,-60
7,-59,-66,26,37,-62,112,94,31,-35,-83,-63
16,-53,-69,18,43,-60,119,108,48,-36,-85,-64
10,-59,-68,25,39,-63,143,119,74,-35,-95,-73
-37,-97,-60,67,12,-78,158,134,82,-45,-118,-94
-41,-108,-67,75,13,-87,176,145,86,-53,-126,-107
-24,-103,-78,64,28,-90,199,140,88,-66,-137,-128
-38,-107,-69,73,16,-87,204,133,77,-76,-137,-137
-33,-93,-60,63,14,-76,192,129,67,-86,-127,-139
-29,-81,-52,56,12,-66,181,119,58,-98,-120,-145
-20,-62,-43,41,12,-52,160,93,38,-90,-114,-133
0,-32,-32,16,16,-32,121,68,9,-57,-92,-105
29,6,-23,-17,26,-8,78,45,-12,-14,-45,-74
55,40,-15,-47,34,12,37,22,-38,15,-12,-59
54,47,-8,-50,30,19,9,8,-53,39,12,-57
56,58,2,-57,27,30,-3,4,-60,55,24,-53
60,63,3,-62,29,33,-9,-8,-66,65,25,-50
67,58,-9,-62,38,24,-16,-26,-60,81,25,-44
63,57,-6,-59,34,26,-23,-22,-55,79,25,-50
52,52,1,-52,25,26,-25,-13,-49,85,25,-64
46,51,5,-49,21,28,-25,-8,-44,100,23,-64
36,48,13,-42,11,30,-25,0,-38,103,35,-67
32,45,13,-39,9,29,-25,4,-35,122,35,-70
35,45,11,-40,11,27,-25,0,-34,133,30,-70
38,45,7,-41,15,26,-25,-5,-32,134,29,-70
40,45,5,-43,17,25,-25,-9,-26,131,25,-71
43,44,1,-44,20,23,-25,-14,-41,126,24,-83
46,46,0,-46,23,22,-25,-19,-72,124,20,-86
47,44,-3,-45,25,20,-25,-18,-69,119,20,-85
57,48,-9,-53,33,19,-25,-13,-72,116,18,-85
69,57,-12,-63,40,23,-30,-28,-79,112,14,-86
61,43,-19,-52,40,12,-33,-40,-86,110,16,-90
51,33,-18,-42,34,7,-41,-36,-103,110,11,-90
50,35,-15,-42,32,10,-46,-34,-106,110,10,-90
47,35,-12,-41,29,11,-45,-38,-104,109,10,-91
41,32,-10,-37,25,11,-45,-53,-106,112,5,-101
36,29,-7,-32,22,11,-45,-56,-104,120,5,-105
35,32,-3,-33,19,13,-44,-54,-107,120,5,-100
38,28,-11,-33,24,8,-41,-55,-110,119,5,-99
41,34,-7,-38,24,14,-40,-56,-110,121,4,-106
38,17,-21,-27,29,-2,-40,-60,-110,119,9,-111
37,14,-24,-25,31,-5,-40,-60,-110,122,16,-110
44,47,3,-46,20,24,-40,-60,-110,124,15,-108
44,42,-2,-43,23,20,-42,-60,-106,127,14,-105
42,37,-5,-39,24,16,-46,-59,-105,131,10,-105
42,34,-8,-38,24,13,-45,-62,-105,126,10,-105
42,28,-13,-35,27,7,-45,-65,-100,125,10,-105
39,25,-14,-32,26,5,-45,-65,-100,124,10,-105
31,20,-11,-26,21,4,-45,-65,-99,121,10,-105
39,33,-5,-36,22,14,-45,-65,-95,119,10,-105
45,34,-11,-39,28,11,-45,-65,-95,121,10,-106
39,27,-12,-33,25,7,-45,-62,-95,125,9,-110
27,24,-3,-26,15,11,-45,-59,-95,125,6,-110
3,18,15,-11,-6,16,-45,-56,-95,125,5,-110
-2,15,17,-7,-10,16,-45,-53,-95,125,5,-110
10,14,4,-13,3,9,-46,-50,-96,125,5,-110
23,18,-5,-20,14,6,-49,-51,-95,124,3,-110
28,23,-5,-25,16,9,-51,-52,-95,129,-1,-110
25,19,-6,-22,15,6,-55,-49,-92,140,1,-110
21,19,-2,-20,12,8,-53,-50,-89,140,-1,-110
14,15,0,-15,7,7,-49,-50,-91,140,-4,-110
15,14,0,-14,7,6,-50,-50,-94,140,-5,-108
20,38,18,-29,0,28,-46,-49,-95,140,-5,-105
26,43,17,-35,4,30,-45,-45,-95,140,-5,-105
30,33,3,-32,13,17,-45,-45,-95,140,-5,-103
36,28,-8,-32,22,10,-45,-45,-95,140,-3,-99
35,20,-14,-27,24,3,-45,-45,-95,140,0,-100
26,15,-11,-21,18,2,-45,-49,-92,140,0,-104
28,20,-8,-24,18,6,-45,-51,-89,139,0,-105
25,20,-5,-22,15,7,-45,-50,-90,136,0,-105
23,21,-3,-22,13,9,-43,-50,-86,133,0,-104
25,27,2,-26,11,14,-39,-50,-85,130,5,-106
25,19,-6,-22,15,6,-42,-49,-85,128,8,-102
24,39,16,-31,4,27,-50,-61,-80,124,8,-106
20,57,37,-39,-9,47,-50,-66,-80,127,14,-116
19,44,25,-32,-3,34,-50,-60,-80,140,16,-110
16,40,24,-28,-4,31,-50,-58,-79,146,13,-108
17,33,16,-26,1,24,-50,-53,-81,144,10,-103
12,23,11,-18,0,16,-49,-50,-77,147,9,-100
17,35,18,-26,-1,27,-42,-46,-71,150,13,-97
31,52,20,-41,5,36,-36,-39,-65,150,18,-95
28,54,26,-41,0,40,-29,-32,-60,156,24,-95
22,61,39,-42,-9,50,-23,-26,-55,177,30,-95
23,66,43,-45,-10,54,-10,-18,-50,183,24,-95
9,65,56,-37,-24,60,16,-17,-50,178,18,-96
-17,65,82,-25,-50,73,50,-18,-49,166,10,-103
1,67,66,-34,-33,66,37,-28,-61,159,5,-99
-8,29,37,-11,-23,33,-20,-47,-78,152,-2,-109
-3,22,24,-10,-14,23,-39,-45,-82,138,-5,-118
34,45,12,-40,11,28,-44,-43,-85,140,5,-111
29,23,-6,-26,18,8,-42,-48,-87,115,-7,-117
45,32,-13,-39,29,9,-49,-40,-77,137,12,-103
43,9,-33,-26,38,-12,-41,-53,-83,103,-4,-117
52,19,-33,-35,42,-7,-48,-45,-70,131,14,-107
34,-2,-36,-16,35,-18,-46,-54,-80,101,-13,-120
28,-7,-35,-10,32,-21,-38,-48,-81,107,-23,-114
49,-14,-62,-17,55,-38,-92,-12,-42,164,1,-105
318,165,-153,-241,235,6,-285,230,202,869,432,154
784,884,99,-834,342,492,-830,369,337,2260,1473,874
499,836,337,-668,81,587,-1006,-504,-534,1022,1065,794
-3,328,331,-163,-168,329,-664,-1063,-1090,-706,-7,202
-15,263,278,-124,-147,270,-379,-542,-568,-279,-54,17
-30,23,53,3,-42,38,-106,-182,-214,-70,-98,-133
-48,-54,-6,51,-20,-30,0,-49,-85,48,-94,-137
-33,-36,-3,34,-14,-19,17,-10,-41,84,-73,-140
-16,-54,-38,35,11,-45,36,-14,-49,50,-87,-158
-8,-32,-23,20,8,-28,41,5,-31,103,-58,-147
-15,-47,-32,31,8,-39,56,5,-32,61,-75,-165
-17,-38,-21,28,2,-29,51,24,-15,93,-66,-158
-26,-67,-41,47,8,-54,66,22,-13,65,-86,-170
-22,-69,-47,46,12,-58,63,31,-2,81,-72,-162
-55,-66,-10,61,-22,-38,56,31,6,70,-84,-172
-63,-63,0,63,-31,-32,82,45,11,90,-93,-176
-14,-58,-44,37,15,-51,92,59,19,105,-85,-173
13,-54,-67,21,40,-60,89,56,33,96,-87,-176
-7,-60,-53,34,23,-56,90,63,38,107,-80,-174
-34,-77,-43,56,5,-60,96,67,31,103,-80,-176
-35,-75,-39,55,2,-56,115,88,49,106,-81,-178
-34,-75,-41,54,4,-57,124,115,70,98,-79,-181
-37,-76,-40,57,2,-58,147,118,74,93,-85,-189
-33,-74,-41,53,4,-57,163,128,92,88,-94,-192
-34,-74,-39,54,3,-57,179,145,111,83,-104,-206
-23,-64,-41,44,9,-52,209,151,117,76,-119,-221
-34,-73,-39,54,3,-56,222,150,123,60,-140,-226
-62,-101,-39,82,-11,-70,240,143,126,44,-154,-233
-48,-97,-48,73,0,-72,250,136,114,31,-154,-227
-62,-92,-31,77,-15,-61,243,130,101,25,-161,-223
-79,-87,-8,83,-36,-47,220,119,84,13,-154,-221
-50,-51,-1,50,-24,-26,179,90,70,16,-125,-196
-28,-9,19,18,-23,5,127,67,54,43,-93,-159
-10,26,35,-8,-23,30,79,52,20,76,-57,-134
15,51,35,-33,-10,43,43,37,2,115,-14,-107
35,69,35,-52,0,52,5,28,-4,145,9,-91
44,76,32,-60,6,54,-21,17,-11,157,15,-90
46,75,29,-61,8,52,-23,11,-19,153,26,-90
39,70,31,-54,4,50,-19,8,-27,150,28,-90
27,62,34,-45,-4,48,-13,5,-28,148,23,-89
22,57,35,-40,-7,46,-10,3,-25,144,20,-96
11,47,36,-29,-13,41,-5,-1,-22,148,16,-101
10,51,40,-31,-15,45,0,3,-19,150,13,-99
25,65,40,-45,-8,52,-4,5,-15,150,9,-100
28,65,37,-47,-5,51,-5,8,-15,150,6,-100
30,64,35,-48,-3,50,-8,10,-20,150,3,-100
31,66,35,-49,-3,50,-10,5,-24,145,0,-104
32,64,32,-48,0,48,-11,0,-29,145,-2,-105
37,66,29,-51,3,47,-16,-4,-33,144,-6,-105
33,64,31,-48,0,47,-19,-10,-39,140,-2,-109
35,67,32,-51,1,49,-24,-12,-37,140,1,-110
44,74,30,-59,7,52,-25,-27,-49,138,0,-108
37,67,30,-52,3,48,-26,-42,-67,127,-5,-105
33,60,26,-47,3,43,-30,-39,-64,119,-13,-105
25,50,25,-38,0,37,-35,-43,-67,110,-15,-105
22,47,26,-35,-2,36,-35,-46,-71,100,-15,-105
30,59,30,-44,0,44,-35,-45,-69,96,-15,-105
31,61,30,-46,0,46,-36,-49,-67,93,-15,-101
26,59,33,-43,-4,46,-32,-53,-62,90,-15,-100
19,56,37,-38,-10,46,-42,-54,-60,87,-17,-100
27,54,27,-41,0,41,-44,-49,-56,84,-15,-100
16,57,41,-37,-13,48,-40,-44,-51,87,-11,-100
13,82,69,-48,-28,75,-30,-41,-50,103,-8,-100
21,101,81,-61,-30,91,-19,-35,-49,124,-5,-100
6,85,79,-45,-37,82,-2,-33,-51,121,-5,-99
-14,67,81,-26,-48,74,46,-25,-48,101,-16,-108
7,86,78,-47,-36,82,32,-32,-55,90,-19,-117
41,81,40,-61,0,60,-16,-55,-76,69,-28,-121
25,37,13,-31,6,25,-37,-57,-77,64,-41,-119
21,21,1,-21,10,11,-44,-63,-82,48,-48,-121
36,22,-13,-29,25,4,-40,-59,-79,50,-43,-119
32,18,-14,-24,23,1,-40,-60,-81,43,-45,-119
28,11,-17,-19,22,-3,-32,-61,-81,31,-47,-124
27,15,-12,-20,20,2,-37,-57,-78,42,-40,-120
25,7,-18,-15,21,-6,-23,-65,-85,19,-61,-132
38,27,-12,-32,24,7,-40,-52,-72,57,-35,-115
25,2,-23,-14,23,-10,-28,-69,-91,-15,-67,-136
37,10,-28,-23,32,-9,-48,-52,-57,44,-44,-122
87,-28,-115,-29,101,-72,-117,13,6,129,-4,-105
484,359,-125,-421,304,117,-422,371,353,1263,712,350
808,961,153,-885,327,556,-951,226,218,2060,1467,950
325,604,280,-465,22,442,-909,-851,-860,67,561,549
-53,271,324,-110,-189,297,-557,-990,-999,-821,-148,82
-15,208,223,-96,-120,215,-267,-382,-379,-197,-69,-38
23,6,-17,-15,20,-5,-40,-136,-142,-131,-136,-161
49,20,-29,-35,39,-4,6,-29,-46,7,-87,-129
11,-19,-29,4,20,-24,47,-23,-36,-38,-108,-168
10,-23,-33,6,21,-27,45,-7,-20,-10,-93,-164
-9,-35,-27,22,9,-31,47,-2,-13,-3,-88,-165
-28,-62,-34,45,3,-47,55,2,-8,-8,-94,-174
-19,-45,-27,32,4,-36,49,14,4,18,-88,-167
-19,-52,-33,36,7,-42,69,20,3,3,-101,-179
-12,-40,-28,26,8,-34,80,21,13,19,-90,-172
-10,-41,-31,26,10,-36,81,25,14,2,-99,-177
-10,-40,-30,25,10,-35,79,45,20,8,-99,-174
-10,-39,-30,25,10,-34,85,50,35,6,-101,-175
-16,-41,-25,29,5,-33,96,59,52,17,-100,-175
-13,-38,-25,26,6,-31,105,67,58,29,-100,-174
-19,-44,-25,32,3,-34,116,81,65,28,-100,-176
-26,-51,-25,39,0,-37,141,102,90,35,-100,-174
-24,-49,-25,37,0,-36,158,128,117,45,-106,-177
-36,-59,-23,48,-6,-41,178,142,133,45,-113,-188
-41,-57,-15,49,-13,-36,203,160,158,46,-118,-192
-32,-42,-10,37,-10,-26,224,184,176,44,-116,-188
-28,-16,12,22,-20,-2,256,203,199,59,-112,-185
-61,39,100,11,-81,69,289,222,213,86,-110,-183
-52,78,129,-13,-91,103,328,216,211,98,-103,-178
-32,39,71,-4,-52,54,301,192,185,65,-114,-189
-54,-9,44,31,-49,17,213,140,140,25,-124,-180
-29,4,33,12,-31,18,169,107,100,32,-102,-144
4,27,23,-16,-9,24,128,78,72,50,-68,-122
23,39,15,-31,4,27,71,39,48,68,-46,-110
30,35,5,-33,12,20,42,30,-1,64,-43,-107
36,34,-2,-35,18,16,37,-2,26,53,-39,-103
46,36,-11,-41,28,12,35,12,24,46,-36,-100
50,34,-15,-42,32,10,30,-32,15,36,-30,-95
51,36,-15,-43,32,10,27,-1,-49,28,-32,-96
45,30,-15,-37,30,7,23,-83,157,28,-34,-94
35,20,-15,-27,25,3,20,-368,882,19,-36,-96
19,8,-11,-14,15,-1,21,-314,1140,18,-34,-95
14,6,-8,-10,11,-1,19,-157,519,12,-44,-94
18,12,-6,-14,11,3,22,-42,-68,-9,-59,-103
21,20,-2,-20,11,9,17,-2,-54,-11,-49,-75
10,10,0,-10,5,4,27,-38,-42,-36,-62,-68
31,28,-3,-29,17,13,25,-5,-57,-3,-46,-55
40,17,-23,-28,31,-3,23,-33,-45,-26,-64,-60
37,28,-9,-32,23,9,21,-11,-53,-1,-48,-48
15,7,-8,-11,12,-1,11,-24,-48,-58,-68,-47
5,4,0,-4,2,2,19,-26,-55,-31,-63,-55
33,-27,-59,-3,47,-43,-9,-23,-38,-72,-83,-71
198,21,-177,-109,187,-78,-107,202,189,413,165,82
724,712,-12,-718,368,350,-571,649,630,1887,1212,792
631,853,222,-742,204,537,-879,-247,-263,774,1002,861
-5,453,458,-225,-232,455,-598,-1177,-1198,-985,-27,318
-87,354,440,-134,-264,397,-315,-625,-633,-488,-78,122
-20,63,84,-22,-52,73,-73,-199,-147,-234,-122,-42
-29,-23,5,26,-17,-9,58,-74,2,-133,-128,-20
-20,-5,15,12,-17,5,59,-40,0,-96,-107,-36
0,-15,-15,8,8,-15,71,-53,-47,-137,-129,-71
10,-10,-20,0,16,-15,60,-17,-24,-97,-102,-36
-15,-39,-23,27,4,-31,66,-26,-34,-149,-124,-50
-11,-25,-14,18,2,-20,72,3,-8,-122,-106,-25
-18,-61,-43,40,13,-52,77,8,-14,-146,-121,-31
-13,-41,-28,27,8,-35,74,15,-19,-119,-109,-19
-15,-40,-25,28,5,-32,71,6,-14,-117,-110,-17
-34,-52,-18,43,-8,-35,69,18,3,-106,-107,-13
-42,-47,-6,45,-18,-26,75,28,12,-97,-103,-7
-29,-58,-29,44,0,-43,97,37,22,-95,-103,-4
-14,-56,-42,35,15,-49,93,46,33,-84,-97,1
-10,-48,-38,29,14,-43,99,56,41,-80,-97,4
-5,-41,-36,23,15,-38,126,94,77,-64,-92,7
-8,-40,-32,24,12,-36,131,117,100,-52,-91,11
-10,-40,-30,25,10,-35,154,136,120,-40,-88,16
-8,-35,-28,22,10,-31,180,167,149,-30,-79,6
-10,-35,-25,23,8,-30,191,194,176,-20,-72,8
-13,-34,-21,24,4,-27,211,223,210,-9,-67,22
-8,-30,-22,19,7,-26,229,255,242,21,-53,45
7,-20,-28,7,18,-24,226,249,240,53,-40,52
14,18,4,-16,5,11,200,216,203,49,-23,67
3,49,46,-26,-22,47,167,188,168,37,9,97
4,50,46,-27,-21,48,124,139,122,29,16,107
22,58,36,-41,-7,47,88,97,83,7,6,116
30,58,28,-44,1,43,67,73,62,-20,2,116
32,50,18,-41,7,34,57,37,28,-46,-7,114
35,46,11,-40,12,28,51,16,5,-72,-11,116
28,39,11,-34,8,25,44,11,2,-86,-19,114
7,34,27,-21,-10,30,38,7,-4,-93,-19,116
-3,28,31,-12,-18,29,31,3,-8,-103,-22,114
-7,22,29,-8,-18,25,27,-3,-11,-99,-38,111
-6,18,24,-6,-15,20,24,-5,-18,-88,-39,107
1,13,12,-8,-6,12,21,-15,-4,-93,-31,103
4,10,6,-7,-1,8,18,-16,-12,-104,-30,100
13,7,-6,-10,10,1,15,-30,-3,-119,-23,94
8,1,-7,-5,7,-2,13,-27,-24,-124,-20,98
-11,1,12,5,-11,6,10,-32,-24,-138,-41,105
-17,-8,9,12,-12,0,10,-30,-29,-166,-52,98
0,-4,-3,2,1,-3,10,-31,-56,-165,-48,94
14,3,-12,-8,13,-4,10,-53,-21,-164,-51,88
12,-15,-26,2,19,-20,10,-29,-87,-166,-49,82
13,-16,-29,2,21,-22,6,-72,10,-163,-51,80
10,-11,-22,1,16,-17,5,2,-158,-173,-54,80
6,-11,-16,3,11,-13,5,-183,247,-181,-55,89
6,-6,-12,0,9,-8,0,-313,576,-180,-55,89
-2,-5,-3,3,1,-3,0,-29,-146,-180,-55,85
-16,-13,3,14,-9,-5,-2,-104,73,-180,-55,82
-15,-16,-1,16,-6,-8,-5,-156,316,-180,-55,77
-15,-14,1,15,-8,-6,-7,-175,411,-180,-55,74
-14,-15,-2,15,-6,-8,-10,-168,311,-180,-55,69
4,-15,-18,6,12,-16,-13,-147,237,-180,-55,62
4,-15,-19,6,12,-17,-16,-151,292,-180,-50,55
1,-12,-13,6,7,-12,-11,-89,31,-179,-50,50
1,-9,-11,4,6,-10,-10,-246,391,-182,-50,40
-18,-11,7,14,-12,-2,-10,-359,957,-190,-50,49
-19,-9,10,14,-15,1,-10,-416,1375,-187,-50,62
-15,-12,3,13,-9,-4,-10,-227,523,-180,-47,54
-21,-21,-1,21,-10,-11,-12,-159,173,-178,-45,48
-6,-14,-8,10,1,-10,-23,-172,191,-171,-45,41
17,5,-12,-11,14,-3,-25,-68,-248,-171,-45,34
30,8,-22,-19,25,-6,-25,-112,-44,-179,-45,29
22,-2,-24,-10,23,-13,-25,-79,-120,-175,-45,24
1,-15,-17,7,9,-16,-25,-82,-93,-167,-40,19
-10,-22,-13,16,2,-17,-25,-83,-92,-161,-40,14
-13,-19,-6,16,-3,-12,-21,-74,-134,-154,-39,10
-8,-10,-1,9,-4,-5,-20,-86,-79,-149,-35,5
-15,-18,-3,17,-6,-11,-19,-75,-123,-143,-36,1
-28,-33,-6,31,-11,-19,-20,-83,-86,-135,-32,-6
-24,-29,-5,27,-9,-16,-19,-80,-91,-129,-30,-13
-19,-25,-5,23,-7,-15,-22,-75,-123,-122,-30,-19
-15,-19,-5,18,-5,-12,-24,-106,36,-116,-29,-26
-11,-17,-6,14,-2,-11,-22,-103,19,-112,-31,-32
-9,-3,6,6,-7,1,-13,-143,126,-102,-28,-35
-13,14,27,0,-20,20,-11,-137,133,-100,-38,-35
-33,-19,14,26,-23,-2,0,-55,-155,-88,-36,-39
-48,-44,4,46,-25,-20,36,-74,-87,-87,-36,-47
1,-26,-27,13,14,-26,-6,-62,-96,-79,-35,-44
32,-43,-75,6,53,-58,-47,-61,-101,-80,-30,-45
-12,-56,-44,35,16,-50,-34,-62,-77,-80,-33,-46
-18,-37,-19,28,1,-28,-35,-53,-97,-59,-23,-45
-14,-43,-30,29,8,-36,-20,-68,-101,-81,-40,-48
-7,-24,-17,15,6,-21,-23,-44,-102,-36,-17,-41
-14,-38,-24,26,5,-31,-4,-66,-101,-80,-45,-66
-9,-35,-26,22,8,-30,-32,-23,-88,-30,-26,-60
40,-100,-140,30,90,-120,-77,34,-13,23,-26,-86
430,242,-189,-336,309,26,-329,361,334,1130,694,372
785,916,131,-851,327,523,-827,267,229,2005,1567,1026
307,668,361,-488,-27,514,-808,-804,-837,44,631,632
-114,246,360,-67,-237,303,-469,-1029,-1065,-973,-215,78
-99,139,238,-20,-169,188,-255,-479,-506,-382,-116,-52
-72,-57,15,64,-43,-21,-53,-200,-222,-250,-147,-137
-30,-70,-40,50,6,-55,14,-43,-81,-50,-93,-111
-45,-76,-30,61,-7,-53,34,-29,-74,-88,-110,-124
-36,-78,-42,58,3,-60,48,-7,-52,-66,-99,-119
-33,-76,-43,55,5,-59,43,-7,-50,-54,-92,-119
-38,-85,-47,62,4,-65,46,-2,-44,-65,-96,-123
-37,-73,-36,55,0,-54,58,8,-33,-37,-87,-116
-10,-59,-49,35,20,-54,68,8,-33,-54,-101,-123
-12,-73,-61,42,24,-67,64,26,-20,-29,-90,-126
-36,-96,-60,66,12,-78,66,24,-18,-39,-98,-133
-26,-85,-60,56,17,-73,65,25,-8,-23,-94,-129
-45,-105,-60,75,8,-83,75,28,-3,-23,-94,-130
-52,-112,-60,82,4,-86,83,40,7,-22,-90,-142
-50,-109,-59,79,5,-83,84,48,18,-19,-89,-151
-56,-108,-52,83,-2,-80,101,57,27,-21,-91,-150
-50,-103,-53,77,2,-77,109,68,40,-19,-89,-148
-51,-107,-56,79,3,-82,117,82,58,-22,-98,-146
-47,-97,-50,73,2,-74,142,96,70,-19,-111,-144
-32,-101,-69,67,19,-85,155,106,87,-27,-109,-147
-46,-129,-83,87,19,-105,173,122,99,-47,-111,-162
-58,-137,-78,98,10,-107,195,128,104,-57,-128,-167
-52,-134,-82,93,15,-107,200,121,109,-72,-134,-163
-47,-125,-78,86,16,-101,195,114,104,-81,-125,-156
-28,-109,-81,69,27,-95,187,108,102,-85,-115,-145
-13,-97,-84,55,36,-90,181,100,89,-79,-106,-140
-14,-84,-70,49,28,-77,157,96,68,-62,-86,-119
2,-56,-57,27,29,-56,112,76,46,-50,-53,-83
28,-20,-48,-4,38,-33,63,48,32,-15,-15,-48
35,7,-28,-20,31,-10,21,39,23,16,22,-23
37,29,-8,-33,22,10,-9,30,22,48,55,-10
52,53,1,-53,26,27,-17,24,13,77,64,-5
57,65,8,-61,24,37,-11,14,8,76,55,-5
47,59,12,-53,18,35,-9,11,13,75,49,-9
25,52,27,-39,-1,39,-4,-14,22,75,41,-16
6,53,47,-30,-21,49,-1,-46,85,75,33,-20
10,55,45,-33,-18,50,3,-11,95,75,32,-22
11,55,44,-34,-17,50,5,14,53,75,36,-26
12,58,47,-35,-18,52,8,16,17,78,35,-21
18,61,43,-40,-12,51,11,25,-5,88,38,-15
5,58,54,-32,-25,56,14,30,10,93,40,-10
3,75,72,-39,-35,73,16,38,10,98,39,-5
15,124,109,-70,-48,117,26,47,25,134,56,2
-1,131,132,-65,-67,131,65,43,24,139,63,3
-7,90,96,-41,-52,92,54,31,10,101,44,-17
3,57,54,-30,-26,55,9,12,-9,58,14,-37
11,28,17,-20,-3,22,0,-16,-50,31,-2,-38
7,-1,-7,-3,7,-4,-5,-30,-62,13,-10,-47
4,-16,-20,6,12,-17,-13,-32,-58,9,-14,-50
3,-28,-31,13,18,-29,-19,-37,-66,-6,-25,-50
-1,-24,-23,13,11,-24,-25,-35,-64,-6,-31,-50
-5,-23,-18,14,7,-20,-31,-43,-65,-10,-33,-48
-9,-24,-15,17,3,-19,-27,-51,-67,-26,-40,-60
-10,-13,-3,12,-3,-8,-34,-52,-61,-10,-27,-61
-17,-29,-12,23,-3,-20,-25,-61,-71,-46,-47,-72
11,-2,-12,-4,12,-7,-36,-46,-57,2,-20,-56
0,-33,-33,17,16,-33,-22,-66,-85,-57,-52,-75
3,-36,-39,17,21,-37,-32,-48,-75,-29,-37,-66
39,-101,-140,31,90,-120,-102,-24,-46,-32,-45,-77
394,242,-152,-318,273,45,-361,326,303,994,592,331
786,964,178,-875,304,571,-910,333,307,2122,1523,1014
361,725,363,-543,-1,544,-955,-759,-779,298,752,711
-85,330,415,-123,-250,372,-578,-1051,-1068,-881,-85,185
-75,206,281,-66,-179,244,-284,-425,-440,-285,-56,30
-52,-21,32,36,-42,5,-35,-131,-150,-199,-142,-100
-59,-39,20,49,-39,-9,12,-24,-50,-75,-97,-88
-66,-78,-12,72,-27,-45,28,-31,-56,-103,-114,-114
-33,-69,-36,51,1,-52,42,-11,-36,-81,-105,-113
-35,-67,-32,52,-2,-49,42,-5,-29,-72,-96,-113
-36,-75,-39,56,1,-56,56,-5,-30,-91,-106,-119
-32,-64,-31,48,0,-47,56,8,-17,-63,-93,-116
-42,-80,-38,61,-2,-59,63,7,-18,-86,-106,-124
-45,-78,-33,61,-6,-55,58,17,-8,-65,-95,-117
-40,-82,-41,61,1,-61,69,18,-5,-75,-103,-122
-36,-75,-39,55,2,-56,72,25,6,-63,-105,-119
-32,-74,-42,53,6,-57,80,27,14,-64,-111,-120
-29,-84,-55,57,13,-69,89,44,25,-59,-110,-120
-41,-97,-56,69,8,-76,94,57,41,-54,-113,-119
-45,-99,-54,73,4,-76,125,81,72,-60,-116,-125
-52,-104,-51,78,0,-77,132,105,86,-60,-114,-135
-61,-109,-48,85,-6,-79,143,111,99,-61,-124,-141
-55,-111,-56,83,0,-83,176,134,128,-65,-125,-144
-55,-120,-65,88,5,-92,203,160,145,-65,-129,-151
-68,-129,-61,98,-3,-95,233,175,160,-66,-145,-164
-76,-132,-56,104,-10,-94,249,179,163,-74,-155,-169
-84,-136,-52,110,-16,-93,258,167,150,-88,-159,-161
-77,-123,-46,101,-15,-84,254,156,145,-97,-149,-151
-67,-95,-28,81,-19,-62,226,138,124,-88,-142,-145
-48,-56,-8,52,-20,-31,181,107,87,-60,-112,-121
-19,-15,4,17,-11,-6,124,74,62,-31,-62,-80
-18,4,22,7,-20,12,76,47,39,-14,-38,-48
-12,18,30,-3,-21,24,40,30,15,-9,-28,-31
4,27,23,-16,-10,25,19,7,-10,-10,-24,-29
3,22,19,-13,-8,20,14,-8,-31,-10,-20,-26
7,19,13,-13,-3,16,12,-20,-34,-14,-15,-23
9,16,7,-13,1,11,9,-32,-35,-15,-10,-20
4,11,7,-8,-2,9,6,-28,-37,-17,-13,-21
-3,11,14,-4,-9,12,4,-26,-31,-21,-16,-34
-4,16,20,-6,-13,17,1,-22,-41,-18,-14,-35
-2,18,20,-8,-11,19,-1,-21,-27,-15,-15,-35
2,22,20,-12,-9,21,0,-21,-46,-13,-15,-35
5,25,20,-15,-8,22,0,-27,-35,-9,-14,-36
2,22,20,-12,-9,21,0,-25,-40,-8,-10,-44
-1,19,20,-9,-11,20,-3,-31,-48,-1,-4,-45
-2,16,17,-7,-10,16,-6,-32,-23,-22,-16,-45
5,14,9,-10,-2,11,-5,-26,-83,-35,-35,-50
4,7,2,-6,1,4,-5,-38,-2,-33,-35,-50
14,10,-4,-12,9,2,-5,-17,-112,-43,-35,-48
32,18,-14,-25,23,2,-6,-51,29,-32,-35,-45
26,10,-16,-18,21,-3,-10,-10,-167,-52,-34,-42
28,2,-26,-15,27,-12,-10,-220,466,-75,-37,-40
28,-8,-36,-10,32,-21,-10,-356,1277,-67,-40,-36
21,-7,-28,-7,25,-17,-8,-187,358,-71,-44,-35
20,-5,-25,-7,23,-15,-2,-492,1402,-70,-45,-32
15,-5,-20,-5,18,-12,1,-367,1264,-69,-46,-30
9,-6,-15,-1,12,-10,7,-17,-281,-91,-49,-30
-4,-20,-15,13,6,-17,10,-90,-1,-94,-51,-25
-11,-25,-14,18,2,-20,5,-52,-135,-99,-49,-25
-10,-31,-21,21,6,-26,2,-70,-85,-95,-45,-24
-15,-34,-19,25,2,-27,-2,-66,-74,-81,-46,-16
-3,-25,-22,14,10,-23,-5,-59,-117,-118,-42,-8
15,-19,-35,2,25,-26,-10,-65,-59,-128,-40,0
16,-13,-29,-1,23,-21,-8,-51,-119,-122,-40,7
18,-4,-22,-7,21,-13,-2,-59,-66,-127,-37,18
-2,-18,-16,10,7,-16,1,-47,-107,-123,-32,29
-8,-18,-10,13,1,-14,5,-53,-80,-120,-30,31
-26,-26,0,26,-13,-12,-7,-53,-92,-128,-50,28
-63,-54,9,58,-36,-22,-12,-55,-84,-136,-56,36
-40,-41,-1,40,-19,-21,-4,-55,-80,-135,-50,44
-25,-33,-7,29,-8,-20,-1,-54,-81,-132,-48,42
-20,-37,-17,29,-1,-27,4,-56,-74,-130,-43,33
-16,-34,-18,25,1,-25,9,-54,-75,-129,-40,46
-26,-35,-9,31,-8,-22,10,-50,-72,-128,-40,70
-34,-37,-3,35,-15,-20,9,-50,-85,-139,-41,73
-29,-25,5,27,-17,-10,5,-49,-81,-140,-39,77
-22,-34,-12,28,-5,-23,5,-45,-73,-140,-44,75
-30,-57,-27,44,-1,-42,5,-45,-70,-139,-51,75
-23,-47,-24,36,1,-36,8,-43,-70,-146,-46,91
-18,-43,-25,31,4,-34,22,-39,-68,-162,-44,90
-13,-38,-25,26,6,-31,30,-41,-64,-156,-40,74
-5,-30,-25,18,10,-27,30,-36,-66,-155,-36,95
0,-26,-26,14,13,-26,32,-35,-60,-149,-33,122
14,-15,-29,1,22,-22,35,-34,-52,-146,-27,119
15,-14,-28,0,22,-21,36,-26,-46,-142,-24,123
29,11,-18,-19,23,-3,36,-8,-38,-121,-18,125
38,25,-12,-31,25,6,53,24,-36,-106,-18,131
21,19,-2,-20,11,8,54,21,-28,-95,-8,148
3,7,4,-5,-1,5,33,-4,-43,-140,-19,149
-26,-51,-25,39,0,-38,28,-14,-70,-179,-48,151
-17,-91,-74,55,29,-83,22,-26,-69,-200,-51,150
4,-92,-96,44,50,-94,20,-39,-68,-215,-49,149
14,-70,-85,28,50,-77,12,-42,-62,-192,-40,152
18,-63,-81,23,50,-72,11,-49,-65,-209,-47,143
-27,-57,-30,42,2,-44,16,-41,-54,-175,-28,147
-52,-69,-17,61,-17,-43,28,-49,-61,-199,-43,133
-13,-46,-34,30,11,-40,32,-42,-48,-158,-20,142
-18,-53,-35,36,9,-44,34,-43,-52,-177,-33,124
-9,-45,-36,27,14,-41,44,-26,-47,-163,-27,134
-16,-81,-65,48,24,-72,25,11,-19,-162,-58,97
206,5,-201,-105,203,-98,-143,220,191,407,297,316
743,727,-17,-735,380,355,-667,466,445,1885,1444,1108
558,838,280,-699,138,559,-895,-346,-378,802,1156,1108
-32,294,326,-131,-179,310,-552,-1073,-1095,-1046,-27,433
-137,134,270,1,-204,202,-284,-633,-671,-702,-166,182
-87,-10,78,48,-83,34,-79,-249,-251,-437,-158,91
-72,-64,8,68,-40,-28,55,-73,-4,-282,-123,97
-68,-56,11,62,-39,-22,75,-4,-27,-225,-99,96
-55,-87,-33,71,-11,-60,89,-10,26,-257,-108,85
-64,-101,-37,83,-13,-69,88,-8,125,-201,-83,90
-66,-104,-38,86,-14,-71,102,-7,23,-237,-105,81
-59,-90,-31,74,-14,-60,106,42,15,-196,-87,86
-83,-112,-30,98,-26,-71,104,63,-5,-214,-100,87
-90,-114,-24,102,-32,-69,106,34,112,-192,-92,102
-90,-119,-30,105,-30,-74,105,11,118,-192,-91,95
-72,-120,-48,96,-12,-84,105,66,23,-186,-87,91
-32,-82,-50,57,9,-65,110,73,58,-184,-82,91
-57,-101,-44,79,-6,-72,123,76,41,-198,-82,88
-79,-136,-57,108,-11,-96,134,90,62,-192,-73,93
-56,-126,-71,91,8,-99,142,97,72,-190,-80,98
-63,-133,-70,98,4,-101,146,116,85,-187,-103,93
-58,-128,-70,93,6,-99,151,122,95,-182,-106,85
-62,-133,-71,97,4,-102,166,134,104,-182,-105,79
-59,-128,-69,93,5,-98,173,159,134,-185,-106,71
-57,-137,-80,97,12,-109,192,171,130,-206,-115,63
-63,-163,-101,113,19,-132,219,175,165,-232,-137,58
-48,-146,-98,97,25,-122,223,188,151,-238,-141,48
-58,-160,-102,109,23,-131,235,166,184,-261,-155,36
-53,-151,-98,102,23,-124,231,173,130,-281,-160,28
-59,-162,-103,111,22,-133,224,148,174,-291,-147,38
-71,-176,-105,123,17,-140,217,155,100,-288,-143,52
-64,-124,-61,94,-1,-92,179,89,135,-272,-123,50
-26,-105,-79,66,27,-92,128,-65,581,-249,-73,107
0,-72,-72,36,36,-72,78,30,295,-216,-29,148
-1,-35,-34,18,17,-35,51,76,38,-188,8,154
36,-10,-46,-13,42,-28,42,45,96,-162,37,172
34,-3,-37,-15,36,-19,38,62,16,-135,39,167
27,-3,-31,-12,29,-17,37,43,64,-99,50,184
27,2,-24,-14,26,-11,32,50,32,-102,43,177
-6,-23,-17,15,6,-20,31,42,43,-133,17,161
-14,-29,-16,22,1,-22,28,55,41,-132,13,167
17,-9,-26,-4,22,-17,37,51,32,-130,0,164
7,-20,-27,7,18,-23,51,45,31,-121,0,166
-42,-36,6,39,-23,-15,50,67,40,-124,30,165
-58,-43,15,50,-36,-14,49,70,67,-128,37,164
-49,-43,6,46,-27,-18,45,73,76,-102,31,157
-22,-24,-2,23,-10,-13,45,74,58,-106,31,152
-8,-18,-10,13,1,-13,43,66,51,-114,26,147
-14,-13,1,13,-7,-6,36,62,34,-104,25,141
-18,-19,-1,18,-8,-10,31,56,25,-117,21,136
-2,-20,-18,11,8,-19,25,50,65,-127,20,131
0,-27,-27,14,14,-27,20,47,31,-117,20,142
-21,-46,-25,33,2,-35,15,35,40,-133,15,143
-15,-33,-18,24,1,-25,15,42,9,-152,15,135
-11,-29,-18,21,4,-23,14,1,97,-154,14,131
-13,-15,-1,14,-6,-8,9,-42,144,-150,9,124
-31,-32,-2,32,-14,-17,11,-21,-24,-165,-16,120
-25,-54,-30,40,3,-42,8,-15,-21,-189,-28,115
6,-24,-30,9,18,-27,4,-7,-27,-184,-21,115
-8,-33,-25,21,9,-29,6,-8,-40,-185,-20,115
-24,-47,-23,35,0,-35,1,-12,-29,-185,-17,115
-26,-44,-18,35,-3,-30,0,-8,-40,-184,-14,115
-30,-45,-15,38,-7,-30,0,-12,-32,-186,-13,112
-20,-39,-18,30,-1,-28,-5,-9,-43,-184,-7,110
-16,-41,-25,29,5,-33,-5,-11,-38,-185,-16,106
-13,-37,-24,26,6,-31,-6,-20,-41,-185,-30,104
-13,-31,-18,22,3,-24,-2,-22,-40,-184,-30,100
-28,-43,-15,36,-7,-28,-2,-18,-39,-189,-29,100
-41,-51,-10,46,-15,-31,-5,-15,-39,-195,-26,106
-40,-45,-5,43,-17,-25,-5,-14,-29,-188,-25,105
-28,-40,-12,34,-8,-26,-10,-8,-25,-180,-24,105
-19,-37,-18,28,0,-27,-10,-14,-17,-175,-19,105
-16,-30,-14,24,-1,-22,-10,-17,-10,-165,-20,105
-21,-32,-11,26,-5,-21,-9,3,-10,-170,-20,105
-36,-45,-9,40,-13,-27,-16,-23,4,-186,-20,100
-40,-43,-4,42,-18,-23,-21,-45,3,-183,-21,95
-28,-38,-10,34,-9,-24,-15,-35,5,-179,-19,91
-12,-37,-25,25,7,-31,-13,-36,-19,-176,-24,86
-4,-29,-25,17,11,-27,-9,-31,-50,-171,-30,82
-11,-35,-24,24,7,-29,-3,-30,-43,-169,-23,77
-20,-46,-26,33,3,-36,-17,-27,-46,-164,-15,71
-21,-45,-25,34,2,-35,-27,-24,-45,-161,-10,63
-20,-43,-23,32,2,-33,-25,-26,-45,-158,-1,58
-22,-40,-18,31,-2,-29,-25,-24,-45,-153,-4,50
-23,-39,-17,32,-3,-27,-21,-26,-44,-150,-21,47
-31,-43,-12,37,-9,-27,-19,-24,-46,-150,-22,63
-36,-45,-10,40,-13,-27,-22,-20,-49,-150,-16,64
-16,-44,-29,30,7,-36,-25,-20,-51,-150,-14,56
-4,-41,-37,23,17,-39,-25,-20,-48,-150,-9,53
-5,-35,-30,20,13,-32,-25,-20,-52,-150,-5,46
-14,-43,-29,29,8,-36,-25,-21,-47,-149,-7,41
-27,-52,-24,40,-1,-38,-21,-16,-51,-141,-11,44
-29,-49,-20,39,-5,-35,-20,-15,-41,-133,-10,48
-28,-50,-23,39,-3,-36,-20,-14,-45,-126,-10,43
-25,-50,-25,38,0,-37,-20,-11,-38,-119,-10,42
-25,-50,-25,38,0,-37,-20,-10,-34,-113,-10,38
-22,-46,-25,35,2,-35,-20,-11,-41,-106,-5,36
-13,-39,-25,27,6,-32,-11,-21,-15,-99,0,33
-9,-33,-24,21,8,-28,-17,-23,-54,-94,4,30
-8,-26,-18,17,6,-22,-35,-49,104,-89,8,30
-10,-19,-8,15,-1,-14,-35,-40,128,-81,14,28
-16,-17,-1,17,-7,-9,-35,-8,-51,-78,15,24
-27,-16,11,21,-19,-2,-35,-16,0,-60,15,25
-13,24,37,-5,-26,30,-25,14,1,-21,37,39
21,56,34,-39,-7,45,6,24,48,-5,58,43
6,27,21,-17,-7,24,32,16,147,1,59,33
-11,-9,2,10,-6,-3,30,32,117,7,43,27
-9,-42,-33,26,12,-38,3,13,16,0,32,21
-10,-77,-67,44,28,-71,-30,-3,-47,-48,17,10
15,-68,-83,27,49,-75,-37,0,-39,-54,11,8
-9,-66,-57,38,24,-62,-34,-10,-59,-50,-2,-4
-20,-53,-33,37,6,-42,-35,-8,-46,-19,9,-8
-10,-45,-35,28,13,-40,-36,-16,-43,-25,9,-14
-7,-44,-37,26,15,-40,-32,-13,-41,-33,8,-18
4,-32,-36,14,20,-34,-36,1,-26,-8,25,-8
-11,-57,-45,34,17,-51,-23,2,-36,-54,-17,-25
-17,-61,-44,40,14,-52,-37,26,0,20,-3,-35
84,-89,-173,3,128,-131,-133,104,82,227,125,28
569,478,-90,-523,330,194,-556,395,370,1622,1105,678
659,934,275,-797,192,604,-942,9,-12,1776,1510,1069
76,455,379,-266,-152,417,-730,-910,-936,-397,303,454
-158,180,338,-12,-248,259,-428,-815,-814,-759,-176,66
-114,47,161,34,-138,104,-205,-304,-309,-236,-66,-39
-78,-79,-1,78,-38,-40,-11,-75,-101,-140,-87,-99
-67,-67,0,67,-34,-33,27,20,0,14,-30,-66
-88,-104,-16,96,-36,-59,32,18,-6,-51,-61,-94
-60,-89,-29,75,-15,-59,28,43,19,9,-32,-79
-55,-104,-48,80,-4,-76,44,42,18,-10,-39,-88
-54,-98,-44,77,-5,-71,50,55,31,20,-30,-89
-55,-100,-44,78,-5,-72,57,60,32,29,-38,-89
-55,-101,-46,78,-4,-73,67,69,42,19,-43,-93
-59,-102,-43,81,-7,-73,64,75,57,31,-37,-93
-60,-106,-46,84,-6,-76,66,76,60,19,-42,-99
-63,-107,-44,85,-9,-75,67,88,60,32,-42,-100
-71,-117,-46,95,-12,-82,79,97,68,35,-57,-94
-69,-114,-44,92,-12,-79,84,118,89,47,-54,-107
-70,-116,-45,93,-12,-80,91,122,94,49,-56,-123
-70,-115,-45,93,-12,-80,105,126,112,50,-54,-119
-65,-115,-50,90,-7,-82,109,140,116,46,-56,-121
-55,-118,-63,86,4,-90,125,161,131,41,-53,-120
-58,-124,-66,92,4,-95,146,175,156,39,-50,-120
-72,-136,-64,104,-3,-100,160,178,160,35,-71,-124
-74,-141,-67,108,-4,-103,184,197,175,31,-76,-126
-80,-150,-70,115,-5,-110,214,206,185,19,-92,-136
-88,-163,-75,126,-6,-119,228,196,178,-8,-115,-157
-100,-170,-70,135,-15,-120,226,192,167,-29,-119,-158
-98,-160,-62,129,-18,-111,217,183,159,-58,-130,-151
-94,-150,-56,122,-19,-103,209,155,131,-83,-137,-143
-81,-130,-49,106,-16,-90,191,127,93,-76,-127,-140
-48,-88,-40,68,-4,-64,148,107,75,-55,-89,-114
-44,-74,-30,59,-7,-52,97,89,59,-16,-44,-70
-40,-61,-21,51,-10,-40,49,72,48,26,-14,-53
-9,-24,-15,17,3,-19,11,61,44,57,16,-32
14,5,-9,-9,11,-2,-4,56,38,89,44,-24
10,7,-3,-8,6,2,-7,52,33,106,54,-24
13,13,0,-13,6,7,-14,47,27,105,49,-19
19,38,19,-29,0,28,-19,43,25,105,47,-17
-10,21,31,-5,-21,26,-17,39,25,105,44,-14
-18,7,24,5,-21,15,-11,40,25,105,41,-19
-9,12,21,-2,-15,16,-7,50,24,107,39,-19
-3,14,17,-6,-10,15,-3,57,26,112,41,-15
5,16,11,-11,-3,13,3,52,28,115,39,-15
3,15,12,-9,-5,13,4,57,36,121,44,-15
11,34,23,-23,-6,28,0,66,47,123,54,-15
14,40,25,-27,-6,32,-6,61,43,116,55,-15
6,31,25,-19,-9,28,3,58,40,109,55,-19
2,27,25,-15,-12,26,5,55,37,103,55,-26
-4,20,25,-9,-15,22,-10,50,35,96,55,-30
-8,17,26,-5,-17,21,-27,48,33,90,54,-30
-11,12,22,-1,-17,17,-32,41,24,84,46,-32
-10,10,20,0,-15,15,-29,34,18,78,39,-35
-11,5,16,3,-14,11,-30,28,10,71,32,-35
-12,2,14,5,-14,8,-30,21,2,64,24,-35
-13,-3,10,8,-12,3,-30,15,-4,57,17,-35
-34,-23,11,29,-22,-6,-31,11,-16,53,11,-35
-43,-23,20,33,-32,-1,-35,9,-21,48,9,-35
-33,-12,20,23,-26,4,-35,4,-20,45,6,-35
-29,-10,20,19,-24,5,-35,1,-20,42,3,-36
-16,4,20,6,-18,12,-35,0,-20,37,0,-40
-15,5,20,5,-18,12,-32,0,-21,34,1,-40
-22,-2,20,12,-21,9,-27,0,-17,31,6,-40
-9,7,15,0,-12,11,-24,0,-15,30,4,-40
-11,4,15,3,-13,9,-21,0,-15,30,8,-40
-21,-6,15,13,-18,4,-15,0,-15,29,10,-40
-13,2,14,5,-14,8,-18,8,-15,34,10,-40
-19,-3,16,10,-18,6,-29,13,-15,36,10,-40
-29,-18,12,23,-20,-3,-41,7,-26,32,10,-40
-26,-15,11,20,-18,-2,-45,2,-30,30,10,-40
-21,-15,5,17,-12,-5,-39,-1,-23,26,10,-39
-20,-13,7,16,-13,-3,-37,-7,-20,25,10,-35
-34,-9,25,21,-29,7,-32,-10,-15,21,9,-35
-34,-11,23,22,-28,6,-30,-5,-10,20,5,-32
-25,-6,19,16,-21,6,-35,-5,-15,19,5,-30
-21,-5,16,12,-18,6,-32,-4,-24,16,3,-30
-17,-5,11,11,-13,3,-30,0,-25,14,0,-34
-13,-5,9,9,-10,2,-30,0,-25,17,0,-38
-11,-6,5,7,-7,0,-26,0,-25,24,4,-35
-7,-4,3,5,-4,0,-25,0,-25,25,5,-35
3,2,-1,-3,2,0,-25,0,-24,25,5,-35
0,8,8,-4,-4,7,-25,0,-20,25,9,-35
-2,14,16,-6,-9,15,-25,0,-20,25,11,-35
-3,12,15,-5,-9,13,-25,-1,-20,24,8,-38
-8,7,15,0,-12,11,-25,-4,-20,19,5,-40
-11,4,15,3,-13,10,-25,-7,-20,14,5,-40
-14,1,15,6,-14,7,-23,-9,-20,10,3,-40
-21,-4,16,12,-18,6,-19,-13,-19,5,-1,-40
-24,-4,20,14,-22,8,-21,-16,-22,0,0,-39
-20,0,20,10,-20,10,-29,-13,-30,3,0,-35
-17,0,17,8,-17,8,-31,-10,-30,12,0,-35
-11,2,14,4,-13,8,-29,-7,-30,13,0,-35
-6,5,12,1,-9,8,-31,-4,-30,10,0,-35
-2,6,8,-2,-5,6,-29,-1,-30,10,0,-35
-15,-9,6,12,-10,-2,-32,0,-29,10,0,-32
-19,-16,3,17,-11,-6,-34,-5,-25,10,0,-29
-7,-7,0,7,-3,-4,-36,-5,-25,10,0,-26
-21,-6,16,13,-18,5,-34,-5,-25,13,0,-23
-21,1,21,10,-21,11,-33,-6,-26,18,0,-21
-11,3,14,3,-13,9,-42,-5,-25,23,-1,-19
-2,12,13,-5,-8,12,-41,-3,-21,27,5,-13
14,23,9,-18,2,16,-31,7,-9,34,15,-6
9,36,27,-23,-9,32,-25,14,-1,33,21,1
2,44,42,-23,-20,43,1,24,12,45,34,7
11,35,24,-23,-6,29,28,58,37,62,34,15
5,25,20,-15,-8,22,21,48,24,40,21,8
-16,-11,4,13,-10,-3,-10,7,-2,1,3,-12
-9,-47,-38,28,15,-42,-48,-11,-29,-24,-22,-33
4,-60,-64,29,34,-62,-48,-13,-37,-37,-33,-48
1,-61,-61,30,31,-61,-41,9,-10,-14,-13,-34
-9,-75,-66,42,28,-70,-33,9,-13,-29,-16,-33
4,-33,-37,15,21,-35,-28,12,-4,-7,3,-23
-19,-14,5,16,-11,-4,-22,4,-6,-15,5,-17
-27,-20,7,23,-17,-6,-21,5,0,-16,3,-20
-27,-26,0,27,-13,-13,-31,1,3,-15,-2,-32
-44,-55,-11,49,-16,-33,-19,-3,-14,-53,-30,-50
32,5,-27,-18,29,-10,-51,37,9,16,-2,-28
153,27,-126,-90,140,-49,-154,182,157,359,188,82
597,648,52,-623,272,350,-643,485,468,1876,1189,735
693,1002,310,-848,191,656,-1043,-80,-100,1672,1424,1039
117,446,328,-282,-106,387,-810,-995,-1010,-508,290,464
-86,261,347,-88,-217,304,-486,-722,-735,-641,-83,143
-53,90,143,-18,-98,116,-185,-210,-229,-225,-77,-10
-73,-64,9,68,-40,-28,5,-42,-62,-169,-126,-87
-59,-34,25,46,-41,-4,38,41,23,-45,-76,-63
-65,-77,-12,71,-26,-44,50,42,23,-116,-104,-90
-60,-59,1,60,-30,-29,56,59,42,-57,-72,-75
-73,-82,-9,78,-32,-45,78,54,31,-89,-83,-89
-61,-70,-9,66,-25,-40,74,76,48,-64,-75,-87
-61,-71,-10,66,-25,-40,86,85,62,-67,-85,-101
-61,-69,-8,66,-27,-38,84,84,59,-67,-86,-101
-59,-61,-3,61,-27,-32,91,85,59,-60,-83,-100
-76,-78,-2,77,-36,-40,108,92,71,-65,-87,-107
-85,-84,1,84,-43,-41,102,109,81,-56,-83,-103
-88,-77,11,82,-49,-33,111,106,87,-62,-87,-106
-95,-70,25,82,-60,-22,113,119,106,-52,-84,-105
-75,-69,6,72,-41,-31,128,131,110,-52,-89,-105
-49,-46,3,48,-25,-22,154,143,127,-47,-90,-106
-94,-80,14,87,-54,-33,162,161,141,-44,-92,-104
-108,-118,-10,113,-49,-64,179,168,158,-41,-96,-106
-83,-106,-23,95,-30,-64,193,186,175,-43,-96,-109
-98,-112,-15,105,-41,-63,217,195,180,-51,-105,-119
-93,-109,-16,102,-38,-62,249,222,205,-57,-116,-141
-95,-109,-14,103,-41,-61,270,240,224,-68,-127,-149
-122,-133,-11,128,-55,-72,288,227,215,-84,-142,-148
-125,-135,-10,130,-57,-72,292,226,203,-99,-147,-143
-113,-121,-8,117,-53,-64,293,216,192,-115,-152,-137
-109,-114,-5,112,-52,-59,280,199,174,-120,-152,-131
-109,-98,11,103,-60,-43,240,171,149,-113,-138,-128
-93,-67,26,80,-59,-20,190,138,116,-103,-111,-106
-60,-30,30,45,-45,1,137,122,94,-76,-74,-55
-46,-15,31,30,-38,8,95,111,85,-38,-35,-27
-25,5,30,10,-27,17,48,100,72,-2,1,-4
-4,26,30,-11,-17,27,11,92,63,20,30,21
2,29,27,-16,-13,28,10,84,58,22,34,19
9,33,24,-21,-8,28,10,76,54,16,27,16
-5,20,26,-8,-16,23,10,69,52,9,23,13
-4,14,19,-5,-12,16,11,65,47,2,16,8
-9,4,13,2,-11,8,9,65,43,-4,11,5
-33,-2,31,18,-32,14,11,64,42,-11,10,2
-22,15,37,3,-29,25,9,66,36,-20,10,-1
-14,19,33,-3,-24,26,15,64,45,-13,10,-4
-21,9,30,6,-26,19,26,63,34,-5,10,-7
-24,8,32,8,-28,20,24,55,46,5,10,-10
-19,31,50,-6,-34,40,20,53,34,16,9,-9
-13,33,47,-10,-30,40,17,47,33,11,4,-3
-18,23,41,-2,-30,31,12,41,37,4,1,0
-19,19,38,0,-29,28,10,43,11,-3,-2,5
-22,10,32,6,-27,21,5,42,48,-8,-7,10
-24,5,29,9,-27,17,5,55,-17,-23,-10,6
-23,0,24,11,-24,12,4,27,63,-37,-10,5
-22,-3,19,12,-20,8,-1,50,-41,-31,-10,5
-21,-7,14,14,-17,4,1,11,73,-43,-10,0
-20,-10,10,15,-15,0,-3,46,-59,-54,-10,0
-20,-15,5,17,-12,-5,-5,-34,165,-41,-9,0
-22,-12,9,17,-15,-2,-6,-287,1301,-58,-12,-1
-30,-10,21,20,-26,5,-11,-113,588,-75,-15,1
-35,-10,25,22,-30,7,-9,-73,91,-71,-15,-1
-31,-6,25,18,-28,9,-6,-86,248,-64,-18,-4
-26,-5,21,16,-23,8,-3,25,-87,-60,-21,-7
-18,-4,15,11,-16,5,0,-15,51,-102,-20,3
-34,-24,10,29,-22,-7,2,14,-42,-97,-20,20
-48,-43,4,45,-26,-19,5,6,-15,-103,-25,20
-36,-38,-2,38,-17,-20,5,15,-16,-135,-26,20
-37,-41,-4,39,-17,-22,5,13,-30,-108,-25,19
-40,-40,0,40,-20,-20,5,6,-8,-105,-25,30
-36,-36,0,36,-18,-17,4,13,-31,-96,-25,41
-36,-36,-1,36,-17,-18,11,2,-11,-103,-25,40
-34,-33,1,33,-17,-16,16,7,-16,-134,-21,44
-33,-38,-4,36,-14,-21,15,4,56,-125,-20,51
-24,-32,-8,28,-7,-19,13,16,20,-120,-19,60
-27,-41,-13,34,-7,-27,10,20,-10,-138,-25,57
-35,-49,-14,42,-10,-32,10,21,-1,-147,-36,51
-28,-25,3,26,-15,-11,14,34,-9,-143,-38,44
-36,-27,9,31,-22,-9,12,35,0,-146,-41,71
-10,-22,-11,16,1,-16,9,34,-2,-145,-41,100
-12,-36,-24,24,7,-30,12,36,0,-137,-39,99
-57,-63,-5,60,-26,-34,26,34,1,-138,-42,100
-38,-34,4,36,-21,-15,40,38,0,-136,-25,99
-9,9,17,0,-13,13,28,46,19,-112,12,137
-6,32,38,-14,-22,35,49,63,51,-109,26,158
2,35,32,-19,-15,33,74,74,55,-100,25,155
-17,18,35,-1,-26,26,54,63,40,-93,16,163
-21,-28,-7,25,-7,-18,39,50,26,-131,-1,152
-17,-53,-37,35,10,-45,18,37,11,-142,-4,153
-24,-83,-59,54,18,-71,18,16,-8,-188,-30,143
-7,-110,-103,59,48,-107,-1,13,-25,-200,-41,145
-34,-80,-46,57,6,-63,-2,6,-28,-197,-44,134
-56,-62,-6,59,-24,-34,20,17,-2,-176,-24,130
-57,-81,-24,69,-17,-52,19,24,-9,-190,-24,143
-35,-48,-13,42,-11,-30,33,24,-2,-187,-15,158
-33,-29,4,31,-18,-12,24,29,2,-172,-15,157
-63,-81,-17,72,-23,-49,40,17,-5,-231,-61,149
-28,-90,-61,59,17,-75,0,43,49,-172,-41,163
97,-42,-139,-27,118,-90,-120,174,166,155,152,244
609,552,-57,-580,333,247,-582,506,482,1633,1211,950
695,876,181,-786,257,528,-978,-25,-45,1354,1424,1258
57,354,297,-206,-120,325,-685,-965,-991,-829,175,582
-150,145,295,3,-223,220,-356,-707,-730,-870,-177,254
-101,17,118,41,-109,68,-121,-209,-223,-430,-111,185
-95,-102,-7,98,-44,-54,74,10,-38,-339,-142,145
-78,-64,14,71,-46,-25,87,85,39,-207,-89,131
-99,-101,-2,100,-48,-51,92,46,24,-302,-119,94
-71,-103,-32,87,-19,-67,93,105,78,-235,-87,125
-88,-115,-26,102,-31,-70,98,95,72,-262,-108,109
-80,-91,-10,86,-34,-50,104,102,75,-227,-92,117
-72,-99,-27,86,-22,-63,115,110,87,-218,-96,120
-87,-112,-25,100,-31,-68,119,116,93,-221,-96,125
-83,-107,-24,96,-29,-65,118,115,88,-230,-88,121
-87,-112,-26,100,-30,-68,121,119,87,-251,-88,116
-84,-109,-25,97,-30,-66,122,141,144,-240,-78,115
-87,-109,-22,99,-33,-66,134,148,168,-239,-79,108
-91,-119,-28,105,-31,-74,141,166,150,-226,-68,115
-82,-124,-43,103,-19,-83,139,174,156,-213,-79,116
-88,-126,-38,107,-25,-82,147,181,159,-206,-92,124
-69,-115,-46,92,-11,-81,157,203,179,-204,-88,128
-70,-122,-52,96,-9,-87,175,231,214,-205,-93,117
-61,-109,-48,85,-6,-78,198,250,234,-195,-87,110
-84,-145,-61,115,-11,-102,218,267,247,-220,-101,100
-110,-175,-66,143,-22,-120,245,285,262,-237,-109,92
-75,-124,-49,99,-13,-86,267,308,290,-207,-107,85
-129,-167,-38,148,-45,-102,269,314,293,-243,-141,75
-100,-133,-34,117,-33,-83,271,307,282,-257,-141,81
-164,-193,-29,178,-67,-111,274,291,274,-250,-131,78
-71,-93,-22,82,-24,-57,256,258,250,-275,-128,83
-142,-148,-6,146,-68,-77,213,229,220,-268,-101,81
-34,-45,-10,40,-12,-27,181,205,186,-240,-63,143
315,283,-33,-299,174,125,169,174,159,-208,-27,138
