I,II,III,aVR,aVL,aVF,V1,V2,V3,V4,V5,V6
65,15,-50,-40,57,-17,43,0,-21,0,-30,-55
64,13,-51,-38,57,-19,36,8,-15,7,-30,-55
62,7,-56,-34,59,-24,17,18,-2,17,-30,-52
62,2,-60,-32,60,-29,-34,9,-11,14,-31,-50
58,-6,-64,-26,62,-35,-41,-8,-27,2,-29,-55
93,16,-77,-54,85,-31,-47,-26,-50,-7,-32,-55
117,8,-109,-62,113,-51,-68,-44,-65,-18,-32,-56
58,-50,-107,-4,83,-78,-61,-45,-73,-38,-47,-61
9,-65,-73,28,41,-69,-54,-45,-79,-46,-61,-59
3,-67,-70,32,37,-68,-21,-45,-71,-44,-58,-62
8,-67,-75,30,42,-71,-1,-44,-63,-52,-70,-79
-14,-86,-72,50,29,-79,4,-46,-59,-51,-75,-85
-46,-109,-63,78,9,-86,17,-41,-48,-44,-76,-81
-47,-106,-60,77,7,-83,16,-40,-67,-52,-72,-76
-57,-111,-54,84,-1,-82,16,-40,-78,-72,-79,-75
-34,-86,-52,60,9,-69,9,-34,-51,-48,-71,-67
-36,-86,-50,61,8,-67,10,-36,-60,-61,-79,-77
-37,-77,-40,58,2,-58,1,-33,-51,-39,-73,-78
-38,-108,-70,73,17,-89,78,58,4,-26,-92,-116
-54,-212,-158,133,52,-185,232,277,217,100,-80,-176
47,-138,-185,46,116,-161,109,190,218,269,97,-51
219,192,-27,-205,123,82,-244,-164,30,358,467,326
501,630,129,-566,185,379,-674,-518,-74,719,1172,952
408,911,503,-659,-48,706,-985,-1131,-847,-62,921,1145
-4,917,921,-456,-463,919,-913,-1376,-1397,-1255,-161,679
-179,665,844,-243,-512,754,-562,-960,-1022,-1140,-513,231
-348,220,568,64,-458,394,34,-395,-555,-782,-597,-195
-432,-120,311,276,-371,95,527,-95,-349,-585,-662,-491
-463,-256,207,359,-334,-25,736,-165,-420,-563,-618,-520
-497,-308,189,402,-343,-60,886,-242,-397,-492,-528,-468
-443,-279,164,361,-303,-57,836,-194,-265,-338,-391,-373
-347,-191,156,268,-251,-17,603,-97,-155,-243,-302,-295
-240,-154,86,196,-162,-34,364,-35,-76,-128,-212,-227
-168,-139,29,154,-98,-55,164,10,-15,-68,-151,-170
-96,-113,-17,105,-39,-65,80,70,60,22,-97,-131
-50,-105,-55,78,2,-79,59,130,120,70,-47,-89
-32,-94,-62,63,16,-78,49,162,167,95,-19,-67
-34,-92,-57,63,12,-74,48,179,180,118,-9,-61
-18,-89,-71,54,26,-79,41,196,193,125,3,-51
-1,-84,-83,42,42,-83,38,204,216,140,12,-45
3,-81,-85,39,44,-83,33,226,246,166,33,-35
7,-76,-83,35,45,-79,26,238,266,191,46,-22
13,-65,-78,26,46,-71,19,257,289,207,49,-8
22,-53,-75,16,48,-64,12,281,323,230,69,6
41,-28,-69,-6,55,-48,4,304,355,257,93,24
112,20,-91,-66,101,-35,-2,340,395,299,123,52
140,45,-94,-92,117,-24,-12,368,430,336,156,84
117,51,-66,-84,91,-7,-28,398,469,368,189,112
137,85,-52,-111,94,17,-40,436,518,414,235,164
163,124,-39,-143,101,42,-56,457,548,449,283,227
181,159,-22,-170,101,68,-70,475,569,478,315,258
210,206,-4,-208,107,101,-78,473,580,487,349,303
230,250,20,-240,105,135,-88,458,579,470,356,319
225,268,43,-247,91,155,-80,444,571,455,336,302
204,246,41,-225,81,143,-68,392,524,418,316,287
171,204,33,-188,69,118,-40,328,451,366,268,234
108,137,30,-123,39,83,-8,249,354,291,208,165
50,73,23,-62,13,48,-1,159,245,212,150,103
25,38,13,-32,6,25,4,100,155,149,97,53
0,1,1,0,-1,1,11,52,84,86,55,13
-16,-29,-13,23,-1,-21,14,21,36,44,17,-13
-21,-42,-21,32,0,-31,11,-10,1,13,4,-29
-20,-39,-20,29,0,-30,9,-37,-22,-8,-8,-39
-16,-36,-20,26,2,-28,10,-34,-33,-20,-34,-44
-42,-62,-20,52,-11,-41,10,-35,-30,-32,-44,-58
-53,-73,-20,63,-16,-46,10,-35,-26,-42,-46,-61
-50,-68,-19,59,-15,-44,12,-35,-23,-40,-49,-59
-56,-71,-15,64,-21,-42,16,-33,-18,-32,-51,-60
-55,-70,-15,63,-20,-42,21,-22,-15,-26,-56,-61
-41,-70,-29,56,-6,-49,31,-13,-12,-19,-53,-62
-23,-60,-37,42,7,-48,33,-3,-9,-13,-41,-59
-16,-50,-34,34,9,-41,28,-5,-6,-7,-26,-61
-13,-49,-36,31,12,-42,25,-5,-4,-5,-17,-60
-33,-67,-34,50,1,-50,22,-6,0,-2,-14,-60
-39,-78,-39,59,1,-58,17,-11,-1,1,-11,-59
-31,-74,-42,52,6,-58,14,-9,-9,5,-8,-55
-34,-72,-38,53,2,-55,10,-13,-16,4,-5,-55
-27,-69,-42,48,8,-56,5,-19,-23,0,-6,-55
-36,-71,-35,53,0,-53,1,-24,-31,-6,-11,-55
-29,-75,-45,52,9,-60,-4,-30,-38,-9,-14,-55
-13,-75,-62,44,25,-68,-9,-35,-43,-14,-17,-55
-24,-79,-55,52,15,-66,-13,-40,-46,-19,-22,-55
-27,-81,-53,54,13,-67,-21,-40,-43,-17,-24,-55
-31,-79,-48,55,9,-63,-29,-40,-52,-37,-30,-55
-44,-88,-45,67,1,-66,-25,-40,-66,-48,-41,-55
-47,-95,-48,71,1,-72,-25,-40,-65,-43,-40,-54
-32,-84,-53,58,11,-68,-24,-40,-64,-46,-40,-50
-26,-80,-55,53,15,-67,-20,-40,-60,-44,-40,-50
-23,-72,-49,47,13,-60,-20,-40,-60,-46,-39,-50
-15,-66,-51,40,19,-58,-20,-40,-57,-42,-43,-50
-32,-80,-48,56,9,-64,-20,-40,-55,-40,-45,-50
-16,-74,-58,45,21,-66,-20,-40,-55,-40,-45,-46
2,-77,-79,38,41,-78,-20,-45,-56,-41,-45,-45
-12,-88,-75,50,32,-81,-20,-45,-60,-53,-45,-45
-14,-84,-70,49,29,-76,-20,-46,-61,-56,-45,-45
-21,-86,-64,54,22,-75,-20,-50,-59,-54,-50,-45
-22,-81,-58,52,18,-69,-21,-50,-61,-56,-50,-46
-20,-74,-54,48,17,-64,-19,-50,-75,-54,-50,-50
-21,-68,-47,45,14,-58,-21,-50,-81,-56,-50,-50
-23,-64,-41,44,9,-52,-19,-50,-82,-60,-50,-52
-24,-58,-34,42,5,-46,-22,-50,-86,-68,-50,-55
-29,-57,-28,43,0,-42,-40,-60,-89,-72,-50,-55
-29,-48,-19,38,-5,-33,-39,-70,-90,-77,-50,-51
-26,-55,-30,41,2,-42,-36,-75,-83,-80,-50,-44
-34,-75,-40,55,3,-57,-33,-68,-75,-73,-50,-38
-12,-42,-30,27,9,-36,-31,-60,-67,-64,-50,-31
5,-19,-24,7,15,-21,-28,-52,-59,-56,-41,-24
14,13,-1,-13,7,6,-15,-44,-57,-47,-28,-18
33,48,15,-41,9,31,7,-38,-62,-45,-17,-15
37,42,5,-40,16,23,2,-21,-63,-42,-15,-13
50,38,-12,-44,31,13,-60,-43,-68,-39,-15,-10
73,37,-35,-55,53,1,-77,-69,-69,-35,-15,-7
75,26,-49,-51,62,-11,-62,-63,-66,-35,-15,-5
79,-2,-81,-38,80,-42,-61,-66,-82,-53,-15,-9
79,-12,-91,-33,86,-51,-51,-65,-83,-64,-30,-21
57,-9,-67,-24,62,-38,-47,-65,-79,-65,-39,-29
27,-38,-66,6,47,-52,-41,-64,-80,-63,-46,-41
-14,-75,-61,45,23,-68,-32,-57,-83,-71,-62,-53
-19,-79,-60,49,21,-69,-28,-56,-91,-83,-60,-55
-13,-67,-54,40,21,-60,-18,-51,-91,-88,-61,-60
-15,-64,-49,40,17,-56,-15,-47,-88,-81,-61,-61
-12,-55,-43,34,15,-49,-9,-45,-93,-89,-69,-67
-10,-50,-40,30,15,-45,-5,-38,-86,-81,-60,-63
-6,-55,-50,31,22,-52,-3,-40,-92,-84,-61,-64
14,-31,-46,8,30,-38,16,-22,-73,-69,-54,-56
-15,-79,-63,47,24,-71,44,20,-40,-55,-68,-77
-90,-204,-115,147,13,-159,183,217,132,13,-117,-175
-8,-185,-177,97,85,-181,165,254,238,224,31,-110
164,96,-68,-130,115,14,-138,-71,69,304,332,206
475,506,31,-491,222,268,-578,-378,23,665,976,783
543,823,280,-683,131,551,-990,-975,-577,280,1080,1160
131,930,799,-531,-334,864,-1004,-1469,-1365,-1008,151,873
-104,779,883,-338,-494,831,-724,-1222,-1219,-1197,-348,451
-271,390,662,-60,-467,526,-152,-649,-700,-824,-470,21
-439,-32,407,235,-423,188,439,-294,-415,-656,-617,-403
-486,-244,242,365,-363,-1,686,-310,-462,-590,-600,-505
-516,-292,224,404,-370,-33,853,-322,-438,-525,-542,-462
-433,-275,157,354,-295,-59,885,-248,-296,-374,-434,-403
-343,-212,131,277,-236,-40,683,-151,-197,-274,-335,-318
-253,-149,104,201,-178,-23,424,-70,-110,-165,-233,-238
-151,-111,40,131,-95,-35,193,-19,-57,-93,-157,-175
-96,-99,-3,97,-46,-51,73,63,29,-21,-87,-122
-40,-96,-55,69,8,-76,59,130,98,32,-38,-74
2,-90,-92,44,47,-91,45,161,130,64,-31,-67
5,-86,-91,41,49,-89,39,174,148,85,-19,-64
13,-84,-97,36,55,-90,33,198,170,107,-10,-55
21,-77,-98,28,59,-87,25,220,191,133,0,-50
23,-84,-108,31,66,-96,20,236,215,144,13,-40
69,-50,-119,-9,94,-85,15,255,242,156,26,-29
68,-38,-107,-15,87,-72,10,278,259,171,39,-15
59,-39,-98,-10,79,-68,3,305,291,200,60,-3
90,-1,-91,-44,91,-46,2,331,325,222,73,18
58,-28,-86,-14,72,-57,6,353,345,245,91,40
113,33,-80,-73,97,-24,18,403,407,307,147,88
171,96,-75,-133,123,11,-1,445,454,346,188,126
178,101,-77,-139,127,12,-28,460,478,368,214,158
217,149,-67,-183,142,41,-58,484,517,403,252,206
222,184,-38,-202,129,73,-76,508,536,430,299,250
251,253,2,-252,124,127,-86,518,561,455,338,312
255,286,31,-271,112,158,-105,507,550,449,357,333
244,289,45,-266,99,166,-93,471,521,432,357,315
222,268,47,-245,87,157,-85,408,499,409,338,308
189,227,38,-208,75,133,-74,340,440,360,296,279
151,180,29,-166,60,105,-51,260,344,291,223,198
79,102,23,-91,28,62,-36,170,242,209,156,120
48,64,16,-56,16,39,-23,95,153,137,105,70
28,38,9,-33,9,23,-13,38,75,81,58,32
-8,-1,7,4,-7,3,-9,4,17,39,24,12
-14,-17,-3,16,-5,-10,-10,-18,-18,7,4,-13
-25,-27,-1,26,-12,-14,-6,-39,-37,-12,-11,-29
-31,-57,-26,44,-2,-41,-5,-43,-46,-19,-23,-36
-37,-67,-30,52,-3,-48,-5,-36,-44,-24,-30,-41
-69,-64,5,66,-37,-29,-1,-32,-41,-29,-37,-47
-60,-69,-9,65,-25,-39,4,-27,-38,-36,-45,-54
-43,-70,-27,57,-8,-48,6,-23,-35,-39,-49,-58
-36,-70,-34,53,-1,-52,11,-18,-34,-34,-46,-59
-29,-65,-35,48,4,-50,13,-14,-28,-25,-43,-55
-32,-68,-36,50,2,-51,20,-9,-23,-17,-41,-55
-29,-70,-41,50,6,-55,31,-5,-18,-15,-37,-53
-30,-70,-40,50,5,-55,24,0,-11,-12,-35,-49
-32,-70,-38,51,3,-54,16,5,-6,-9,-33,-50
-40,-70,-30,55,-5,-50,8,1,-9,-6,-29,-54
-44,-70,-26,58,-9,-48,1,-6,-16,-5,-25,-56
-34,-63,-29,49,-2,-46,5,-13,-20,-10,-22,-55
-15,-59,-44,37,15,-51,5,-19,-26,-10,-17,-55
3,-48,-51,23,27,-49,7,-27,-31,-14,-14,-55
-3,-49,-45,27,21,-47,10,-29,-37,-14,-26,-55
16,-26,-43,5,29,-34,11,-25,-42,-22,-35,-59
16,-23,-39,4,28,-31,7,-23,-50,-37,-35,-60
-28,-62,-34,46,3,-48,5,-18,-49,-34,-35,-60
-25,-62,-37,44,7,-49,0,-35,-52,-36,-35,-65
-1,-50,-49,25,24,-49,-2,-41,-60,-34,-35,-65
-2,-48,-46,26,22,-47,-7,-40,-58,-36,-36,-67
-29,-68,-39,48,5,-53,-35,-62,-75,-52,-44,-66
-44,-80,-36,62,-4,-58,-40,-63,-81,-56,-46,-65
-59,-86,-26,73,-16,-56,-32,-55,-73,-55,-45,-64
-46,-77,-31,62,-7,-54,-30,-52,-73,-55,-45,-61
-19,-66,-47,43,14,-56,-25,-44,-66,-55,-45,-59
-20,-64,-43,42,12,-53,-30,-41,-65,-54,-45,-62
-22,-62,-40,42,9,-51,-30,-46,-75,-50,-45,-67
-46,-85,-39,65,-3,-61,-30,-46,-77,-50,-45,-65
-52,-84,-32,68,-10,-58,-30,-44,-73,-50,-45,-65
-29,-78,-49,54,10,-63,-30,-45,-71,-50,-45,-63
-16,-77,-61,46,23,-69,-30,-45,-67,-50,-45,-59
-18,-70,-53,44,18,-61,-30,-45,-64,-50,-41,-60
-19,-69,-50,44,15,-59,-30,-48,-68,-50,-39,-63
-19,-64,-45,42,14,-55,-30,-50,-70,-50,-40,-65
-25,-65,-40,45,8,-52,-30,-50,-73,-50,-40,-65
-28,-68,-40,48,6,-54,-30,-50,-76,-50,-41,-65
-38,-77,-39,57,1,-58,-25,-50,-79,-49,-38,-65
-37,-77,-40,57,2,-58,-18,-49,-80,-45,-35,-64
-22,-62,-40,42,9,-51,-15,-45,-73,-42,-35,-59
-13,-53,-40,33,14,-46,-7,-38,-64,-38,-35,-54
-3,-42,-39,22,18,-40,-4,-33,-56,-35,-35,-51
-17,-22,-4,19,-6,-13,4,-27,-46,-32,-31,-46
-3,9,12,-4,-8,10,22,-19,-29,-29,-26,-39
27,26,-1,-26,13,12,37,-12,-16,-26,-22,-33
32,23,-10,-27,21,7,25,-6,-2,-24,-18,-26
66,45,-20,-55,43,12,-37,-21,-1,-20,-13,-19
59,32,-27,-45,43,2,-65,-42,-34,-20,-8,-15
55,0,-55,-28,55,-27,-68,-48,-58,-26,-6,-15
88,5,-83,-46,86,-39,-82,-46,-58,-22,-3,-16
46,-32,-78,-7,62,-55,-71,-40,-69,-40,-23,-12
11,-42,-53,16,32,-47,-33,-48,-75,-52,-38,-31
8,-36,-44,14,26,-40,-7,-56,-75,-42,-32,-50
-42,-87,-45,65,2,-66,-20,-49,-72,-57,-47,-56
-57,-103,-45,81,-6,-73,-17,-48,-69,-70,-54,-71
-54,-99,-45,77,-5,-71,3,-43,-72,-71,-57,-69
-54,-100,-45,78,-4,-72,10,-39,-63,-61,-52,-64
-60,-101,-42,81,-9,-71,17,-38,-70,-68,-58,-64
-59,-97,-38,78,-10,-68,19,-32,-57,-54,-51,-58
-55,-98,-43,77,-6,-70,21,-39,-67,-62,-58,-60
-56,-92,-35,74,-10,-63,27,-30,-50,-35,-53,-46
-48,-98,-49,73,1,-73,59,27,-16,-16,-58,-77
-59,-184,-125,122,33,-154,214,239,143,40,-81,-169
1,-184,-185,91,93,-184,168,244,247,231,55,-103
155,86,-69,-120,111,9,-166,-88,70,317,357,222
494,525,31,-509,231,278,-577,-389,24,650,1006,801
541,843,303,-692,119,573,-982,-996,-596,213,1061,1144
131,941,809,-536,-339,875,-1010,-1442,-1337,-964,192,875
-112,795,907,-342,-509,851,-736,-1202,-1158,-1123,-281,463
-281,405,686,-62,-484,545,-176,-639,-644,-793,-446,20
-431,-15,416,223,-423,200,422,-213,-269,-568,-568,-394
-465,-227,237,346,-351,5,714,-186,-298,-490,-552,-499
-492,-296,196,394,-344,-49,910,-213,-323,-458,-512,-474
-476,-315,161,395,-318,-76,937,-178,-216,-327,-405,-413
-365,-223,141,294,-253,-41,729,-113,-165,-248,-307,-321
-248,-150,99,199,-173,-25,458,-51,-96,-166,-226,-253
-160,-119,40,140,-100,-39,231,5,-30,-86,-149,-172
-71,-98,-27,84,-22,-62,87,67,40,-13,-84,-122
-33,-101,-69,67,18,-85,63,129,99,40,-52,-102
-7,-99,-92,53,42,-95,37,176,128,74,-34,-87
7,-101,-107,47,57,-103,5,177,141,94,-12,-79
5,-100,-104,48,54,-101,16,196,171,114,5,-67
4,-101,-105,49,54,-102,19,210,183,118,15,-58
19,-87,-106,34,62,-96,28,220,204,130,20,-48
57,-46,-103,-5,81,-74,33,250,241,166,38,-33
64,-49,-112,-7,88,-80,28,274,271,196,59,-21
80,-52,-132,-14,106,-92,18,283,288,205,64,-5
114,-15,-128,-50,121,-71,7,296,308,218,66,8
110,-8,-118,-50,114,-63,-10,329,349,259,103,28
126,14,-111,-70,118,-48,-26,364,380,290,135,61
143,44,-99,-94,121,-27,-37,392,407,314,155,88
169,78,-91,-123,130,-7,-49,420,450,360,206,137
203,129,-73,-166,138,28,-80,446,480,396,248,191
210,163,-47,-186,128,57,-114,463,503,420,283,234
246,216,-30,-230,137,92,-115,456,518,436,316,271
277,260,-16,-268,146,122,-135,445,514,433,334,304
286,282,-4,-284,144,139,-142,429,505,418,329,322
271,280,9,-276,131,144,-115,400,493,404,313,298
205,223,18,-215,93,120,-101,341,437,369,275,242
143,155,11,-149,66,83,-65,256,345,295,206,164
109,112,3,-111,53,57,-30,179,265,217,154,109
72,67,-5,-69,38,31,-22,112,177,152,109,70
53,40,-13,-46,33,13,-17,61,101,99,72,32
30,12,-18,-21,24,-3,-14,20,41,55,30,-6
-4,-26,-23,15,10,-24,-8,-9,0,18,-5,-40
-6,-32,-25,20,10,-28,-6,-24,-20,0,-19,-48
-23,-47,-24,36,1,-35,7,-29,-38,-13,-38,-61
-27,-53,-26,41,0,-39,21,-25,-34,-33,-47,-68
-11,-34,-23,23,6,-28,20,-23,-31,-34,-50,-62
-18,-49,-31,34,7,-40,24,-20,-28,-27,-50,-71
-27,-74,-46,51,10,-60,25,-17,-24,-24,-50,-80
-22,-65,-43,44,11,-54,26,-15,-18,-19,-50,-77
-17,-57,-40,37,12,-49,25,-12,-7,-15,-50,-73
-10,-48,-38,29,14,-43,25,-9,3,-11,-50,-70
-19,-53,-35,36,8,-44,23,-6,8,-6,-47,-65
-22,-55,-33,38,6,-44,19,-3,1,-4,-44,-65
-5,-35,-29,20,12,-32,21,0,-3,1,-41,-65
-25,-55,-30,40,3,-42,16,-1,-9,5,-38,-65
-38,-69,-31,53,-3,-49,11,-8,-15,3,-36,-65
-31,-59,-28,45,-1,-44,8,-12,-20,-1,-33,-65
-15,-60,-45,38,15,-52,2,-18,-26,-3,-30,-65
1,-55,-56,28,29,-56,-1,-24,-23,-6,-30,-60
1,-54,-55,27,28,-54,-5,-28,-36,-9,-30,-60
-11,-67,-55,39,22,-60,-9,-34,-52,-10,-30,-60
-16,-71,-55,44,19,-62,-12,-35,-49,-20,-30,-60
4,-69,-73,33,39,-71,-17,-38,-50,-30,-33,-60
2,-63,-65,31,34,-64,-20,-40,-54,-35,-36,-62
-22,-69,-47,45,13,-58,-17,-41,-60,-39,-39,-70
-39,-92,-52,65,7,-72,-14,-50,-69,-41,-42,-75
-41,-88,-47,64,3,-67,-11,-52,-76,-53,-45,-75
-37,-83,-46,61,5,-65,-8,-49,-75,-56,-45,-75
-43,-86,-43,65,0,-65,-5,-50,-74,-54,-45,-76
-32,-84,-52,58,10,-68,-6,-50,-76,-56,-45,-72
-16,-86,-70,51,27,-77,-13,-50,-74,-54,-57,-70
-35,-84,-49,60,7,-67,-17,-50,-77,-57,-61,-70
-49,-82,-33,66,-8,-57,-24,-50,-90,-60,-56,-66
-35,-76,-42,56,4,-59,-29,-50,-96,-60,-55,-65
-25,-71,-46,48,11,-58,-30,-50,-95,-60,-50,-65
-27,-69,-42,48,8,-55,-31,-50,-95,-60,-51,-73
-20,-59,-40,39,10,-49,-28,-50,-95,-72,-61,-78
-32,-69,-37,51,2,-52,-36,-55,-95,-74,-60,-74
-45,-79,-34,62,-5,-56,-44,-55,-92,-66,-57,-75
-16,-64,-48,40,16,-56,-38,-48,-89,-65,-54,-71
-15,-65,-50,40,18,-57,-29,-45,-86,-58,-51,-70
-19,-66,-47,43,14,-56,-26,-40,-83,-55,-50,-70
-19,-64,-44,42,13,-54,-14,-35,-81,-67,-44,-64
-23,-75,-52,49,15,-63,-24,-40,-78,-65,-39,-57
-20,-67,-47,44,14,-56,-38,-42,-74,-54,-32,-51
-20,-19,1,19,-10,-9,-13,-31,-61,-47,-30,-44
16,31,15,-24,0,22,20,-26,-46,-44,-30,-38
7,32,25,-20,-9,29,34,-9,-44,-46,-25,-32
-2,25,27,-12,-15,26,-28,-20,-51,-45,-20,-29
35,21,-13,-28,24,4,-79,-54,-52,-45,-16,-25
51,13,-38,-32,44,-12,-68,-56,-60,-44,-11,-22
80,12,-67,-46,74,-27,-66,-51,-68,-45,-6,-17
45,-24,-68,-10,57,-46,-59,-50,-73,-44,-6,-14
1,-59,-60,29,31,-59,-54,-46,-92,-46,-18,-32
2,-48,-50,24,26,-49,-49,-45,-92,-44,-24,-51
-4,-29,-26,17,11,-27,-44,-45,-86,-46,-34,-61
-14,-65,-52,40,19,-58,-36,-44,-82,-69,-54,-70
-47,-99,-52,73,3,-75,-33,-46,-79,-82,-61,-70
-36,-94,-58,65,11,-76,-23,-44,-71,-80,-61,-65
-66,-117,-50,92,-8,-83,-29,-46,-77,-77,-56,-64
-82,-89,-7,86,-38,-48,-18,-43,-96,-85,-59,-60
-27,-74,-47,51,10,-60,8,-40,-82,-73,-49,-65
-39,-87,-48,64,4,-67,1,-40,-85,-84,-64,-96
-33,-70,-37,52,2,-53,-4,-26,-61,-56,-53,-82
-49,-139,-90,94,21,-114,78,78,9,-56,-83,-118
-36,-201,-164,119,64,-182,209,286,220,112,-47,-162
48,-125,-173,39,111,-149,50,146,186,278,147,-25
213,208,-6,-211,110,101,-291,-196,20,375,527,364
509,663,154,-587,178,408,-719,-555,-119,688,1213,1000
352,902,550,-627,-99,726,-1024,-1177,-935,-185,862,1138
-44,922,966,-439,-505,944,-909,-1371,-1396,-1278,-193,660
-176,671,847,-248,-511,759,-546,-940,-984,-1102,-505,206
-344,200,544,72,-444,371,65,-361,-521,-769,-613,-240
-432,-155,277,293,-354,61,521,-88,-325,-572,-656,-507
-450,-283,167,367,-308,-58,734,-155,-374,-520,-587,-513
-458,-316,141,387,-300,-87,904,-192,-351,-451,-503,-473
-394,-290,104,341,-249,-92,825,-173,-264,-327,-382,-380
-310,-207,103,258,-206,-52,583,-101,-160,-243,-284,-281
-202,-158,44,179,-122,-57,338,-35,-84,-145,-192,-208
-137,-150,-13,144,-62,-81,137,14,-19,-73,-124,-152
-69,-129,-60,99,-4,-94,57,74,63,6,-65,-110
-32,-119,-87,76,27,-102,52,127,119,50,-34,-74
-7,-119,-111,63,52,-115,37,162,158,87,-5,-49
15,-114,-129,50,73,-122,35,170,170,105,9,-41
11,-112,-123,51,67,-117,32,189,186,117,22,-36
17,-110,-126,47,71,-117,29,202,215,140,33,-29
19,-106,-125,44,72,-115,26,204,230,152,35,-26
39,-96,-135,29,87,-115,24,228,252,176,52,-17
48,-89,-137,21,93,-113,19,241,275,192,53,-9
71,-63,-134,-4,103,-98,9,261,304,220,81,5
102,-35,-137,-33,120,-85,3,281,334,250,110,18
124,-10,-134,-57,129,-72,-5,300,360,271,119,54
151,14,-137,-82,143,-61,-9,344,415,318,161,100
154,23,-131,-88,142,-54,-28,364,447,351,197,127
182,67,-115,-125,148,-24,-50,398,491,395,243,182
214,127,-88,-170,151,19,-76,432,531,436,293,234
206,151,-55,-178,130,47,-100,438,550,451,317,265
223,199,-25,-211,124,86,-116,438,557,451,342,301
238,236,-2,-237,120,116,-122,425,547,445,340,327
214,231,18,-223,98,124,-117,396,539,436,325,328
190,226,37,-208,76,131,-100,353,494,403,306,292
161,183,22,-172,69,102,-53,302,428,347,265,233
135,126,-8,-130,71,59,-17,229,330,273,202,156
86,73,-12,-79,49,30,9,142,217,205,139,91
40,30,-9,-35,24,10,24,73,135,132,101,61
18,-9,-27,-4,23,-18,16,29,67,77,59,24
-5,-46,-42,26,19,-44,16,-6,12,42,24,-7
-17,-53,-36,35,10,-45,11,-29,-25,7,8,-18
-35,-63,-28,49,-3,-46,10,-30,-36,-10,-2,-27
-35,-59,-24,47,-6,-41,14,-30,-39,-24,-16,-39
-55,-69,-14,62,-20,-41,15,-30,-36,-27,-41,-50
-71,-83,-12,77,-29,-47,20,-30,-34,-24,-47,-51
-40,-71,-31,55,-4,-51,19,-30,-35,-25,-44,-62
-54,-90,-36,72,-8,-63,24,-22,-29,-20,-46,-73
-70,-97,-27,83,-21,-62,31,-15,-31,-20,-44,-73
-55,-84,-29,70,-13,-56,25,-4,-26,-19,-46,-68
-56,-76,-20,66,-17,-48,21,-2,-9,-13,-43,-62
-44,-65,-21,54,-11,-43,16,-6,-4,-8,-38,-58
-10,-61,-50,36,20,-55,11,-5,-6,-2,-33,-51
-3,-51,-48,27,22,-49,7,-9,-5,4,-30,-46
-6,-48,-42,28,18,-45,5,-10,-6,9,-30,-48
11,-36,-47,13,29,-41,6,-10,-4,6,-30,-51
1,-44,-45,22,24,-45,1,-14,-8,-1,-30,-50
-9,-60,-51,34,21,-55,0,-17,-21,-7,-30,-50
-3,-53,-50,28,24,-51,0,-19,-32,-14,-31,-50
1,-47,-48,23,24,-47,-5,-23,-37,-21,-27,-51
13,-31,-45,10,29,-38,-10,-23,-33,-27,-25,-55
-18,-63,-45,41,14,-54,-15,-35,-47,-30,-25,-55
-41,-83,-41,62,0,-62,-18,-47,-62,-30,-25,-55
-30,-70,-39,50,5,-54,-24,-44,-59,-33,-25,-55
-27,-67,-40,47,7,-53,-23,-45,-61,-38,-25,-55
-30,-65,-35,48,3,-50,-19,-45,-56,-41,-34,-57
-46,-81,-35,64,-5,-58,-20,-46,-55,-46,-41,-55
-36,-71,-35,54,0,-53,-20,-41,-55,-44,-39,-55
-29,-63,-35,46,3,-49,-20,-37,-55,-46,-40,-55
-20,-55,-36,38,8,-45,-20,-31,-55,-38,-40,-55
-13,-45,-32,29,10,-38,-19,-33,-57,-29,-39,-54
-48,-78,-30,63,-9,-53,-26,-56,-76,-57,-50,-64
-43,-73,-30,58,-6,-51,-31,-61,-81,-68,-57,-71
-18,-48,-30,33,6,-39,-27,-59,-79,-61,-52,-65
-22,-51,-30,36,4,-41,-25,-58,-81,-61,-50,-63
-19,-49,-30,34,6,-40,-21,-54,-80,-56,-46,-58
-15,-50,-35,33,10,-42,-20,-56,-80,-55,-44,-55
-16,-51,-35,34,10,-42,-17,-51,-76,-51,-45,-55
-12,-48,-36,30,12,-41,-14,-50,-74,-49,-45,-55
-6,-46,-41,26,18,-43,-15,-50,-75,-50,-45,-55
-2,-42,-40,22,19,-40,-14,-45,-75,-50,-45,-55
-19,-57,-38,38,10,-47,-16,-45,-75,-50,-45,-55
-48,-75,-26,62,-11,-50,-13,-43,-74,-49,-44,-54
-50,-68,-19,59,-15,-43,-11,-41,-65,-41,-38,-49
-49,-55,-6,52,-21,-30,-9,-37,-55,-34,-32,-44
-34,-9,25,21,-29,8,-13,-36,-45,-28,-26,-41
10,37,27,-24,-8,31,6,-23,-43,-21,-21,-36
33,48,14,-41,9,31,38,-5,-46,-21,-17,-29
56,65,9,-61,23,37,5,-7,-44,-20,-12,-23
64,63,-1,-63,32,31,-49,-29,-47,-21,-8,-16
53,38,-16,-45,34,11,-64,-53,-53,-18,-2,-11
72,33,-39,-52,55,-3,-68,-57,-64,-23,-1,-17
82,24,-58,-53,70,-17,-71,-51,-75,-33,-9,-24
71,15,-55,-43,63,-20,-71,-50,-75,-35,-19,-30
56,10,-47,-33,52,-18,-65,-68,-92,-58,-27,-38
19,-23,-42,2,31,-32,-42,-74,-104,-74,-37,-43
-8,-43,-34,26,13,-38,-29,-61,-93,-69,-52,-56
-29,-62,-33,46,2,-47,-30,-60,-97,-76,-69,-78
-32,-59,-27,46,-3,-43,-21,-48,-88,-76,-72,-80
-27,-53,-27,40,0,-40,-22,-48,-92,-66,-67,-73
-73,-92,-19,82,-27,-55,-14,-58,-104,-75,-89,-74
-75,-94,-19,85,-28,-56,-14,-52,-89,-56,-80,-64
-83,-98,-14,91,-34,-56,-8,-42,-84,-75,-89,-68
-76,-89,-13,83,-31,-51,10,-35,-60,-62,-73,-61
-50,-110,-60,80,5,-85,75,53,-21,-59,-90,-107
-32,-172,-140,102,54,-155,224,288,203,85,-84,-163
50,-112,-162,31,106,-136,98,196,208,262,106,-38
201,192,-8,-196,104,92,-266,-166,28,355,477,329
509,624,115,-567,196,369,-704,-521,-82,701,1144,944
414,885,471,-650,-29,678,-1027,-1153,-842,-69,903,1140
2,925,924,-464,-461,924,-940,-1433,-1391,-1220,-100,730
-178,684,862,-253,-520,772,-605,-1043,-1080,-1133,-439,315
-338,259,597,40,-468,428,17,-489,-617,-800,-555,-131
-450,-92,358,271,-404,133,534,-213,-434,-625,-637,-459
-503,-270,233,386,-367,-19,723,-271,-497,-596,-601,-491
-511,-308,203,409,-356,-52,876,-303,-419,-504,-532,-450
-444,-296,148,370,-296,-73,824,-216,-283,-355,-403,-383
-325,-201,124,263,-224,-38,580,-118,-169,-251,-299,-292
-218,-135,83,177,-151,-26,326,-71,-91,-141,-211,-213
-139,-126,13,132,-76,-56,131,4,-27,-79,-139,-150
-76,-110,-33,93,-21,-71,53,72,53,-3,-76,-102
-55,-113,-58,84,2,-85,33,122,99,37,-46,-86
-20,-101,-81,60,31,-90,23,161,134,69,-32,-84
-13,-101,-89,57,38,-95,21,165,149,78,-23,-75
-17,-107,-90,62,37,-98,14,186,169,94,-13,-72
10,-82,-91,36,51,-86,9,211,200,122,-5,-62
22,-73,-95,26,59,-84,3,223,218,134,4,-42
25,-69,-94,22,60,-81,0,235,232,146,16,-30
43,-59,-103,8,73,-81,-2,256,260,161,27,-20
52,-55,-107,2,80,-81,-5,281,292,189,46,-11
76,-19,-95,-28,86,-57,-8,310,325,220,74,7
82,-3,-84,-39,83,-44,-10,348,369,255,101,38
85,-1,-86,-42,85,-43,-17,385,409,291,131,69
106,29,-77,-67,91,-23,-32,414,446,326,164,100
138,66,-72,-102,104,-3,-48,451,494,372,212,150
204,126,-78,-164,140,24,-74,486,534,417,260,209
205,163,-41,-184,123,61,-91,502,555,443,288,245
218,212,-6,-215,112,103,-96,495,551,440,324,288
246,262,16,-254,115,139,-108,482,541,435,337,319
231,260,29,-246,101,144,-119,443,534,426,332,320
206,226,20,-216,93,123,-107,378,490,387,308,293
165,178,12,-172,76,95,-72,314,422,332,252,228
131,134,3,-133,64,68,-41,235,330,267,196,160
67,63,-4,-65,35,29,-24,149,216,190,133,99
30,23,-8,-26,19,7,-18,71,120,117,75,38
31,20,-11,-25,20,5,-15,11,55,69,34,5
-21,-36,-15,29,-3,-25,-12,-23,10,21,7,-24
-84,-102,-18,93,-33,-60,-7,-41,-20,-12,-12,-40
-88,-112,-24,100,-32,-68,-5,-50,-41,-26,-27,-44
-74,-109,-35,92,-19,-72,-11,-63,-64,-45,-50,-67
-74,-109,-35,92,-19,-72,-7,-59,-63,-43,-59,-71
-67,-101,-34,85,-16,-68,-1,-48,-57,-39,-59,-71
-35,-70,-36,53,1,-53,4,-42,-54,-36,-65,-76
-45,-78,-34,62,-5,-56,11,-33,-48,-31,-63,-74
-77,-116,-39,97,-19,-78,14,-29,-42,-29,-60,-76
-53,-105,-52,79,0,-79,11,-23,-32,-25,-58,-75
-40,-98,-57,69,9,-77,6,-20,-26,-23,-55,-75
-43,-104,-62,74,10,-82,4,-15,-17,-20,-52,-75
-44,-109,-65,77,11,-86,0,-10,-12,-16,-50,-75
-41,-101,-60,71,10,-81,-5,-14,-9,-15,-47,-72
-37,-94,-56,66,10,-75,-2,-15,-14,-18,-45,-69
-35,-89,-54,62,10,-71,0,-15,-33,-21,-45,-66
-30,-80,-50,55,10,-64,0,-15,-36,-24,-41,-63
-48,-93,-45,71,-1,-69,4,-16,-34,-27,-39,-60
-42,-91,-49,67,4,-70,6,-29,-36,-30,-42,-61
-28,-85,-56,57,14,-70,4,-31,-34,-31,-45,-65
-27,-81,-54,54,14,-67,0,-30,-37,-35,-45,-65
-19,-74,-55,47,19,-64,0,-29,-42,-40,-45,-65
-40,-95,-55,68,8,-75,-1,-36,-57,-44,-42,-65
-39,-94,-54,67,8,-74,-5,-55,-71,-45,-40,-65
-25,-85,-60,55,18,-72,-4,-55,-70,-45,-40,-61
-36,-92,-56,64,10,-74,-8,-55,-70,-45,-40,-60
-28,-94,-66,61,19,-80,-21,-55,-70,-44,-40,-60
-13,-90,-77,52,33,-84,-32,-55,-69,-46,-42,-55
-1,-75,-74,39,36,-74,-31,-53,-72,-51,-45,-55
-5,-85,-79,45,37,-82,-25,-49,-76,-56,-47,-56
-6,-86,-80,46,37,-83,-21,-50,-81,-59,-51,-62
-4,-84,-80,44,38,-82,-16,-46,-84,-57,-46,-62
-16,-85,-70,51,27,-77,-11,-44,-85,-54,-45,-57
2,-52,-54,26,28,-53,-7,-46,-85,-51,-45,-55
-6,-52,-46,29,20,-48,-1,-49,-85,-48,-40,-50
-21,-64,-43,43,11,-53,5,-52,-85,-45,-40,-46
-4,-62,-59,33,28,-60,-5,-54,-83,-46,-40,-46
-6,-61,-55,33,24,-57,-13,-58,-78,-51,-40,-51
-17,-61,-44,40,14,-53,-9,-60,-75,-54,-40,-54
-31,-75,-44,54,7,-60,-10,-58,-72,-52,-40,-52
-29,-68,-40,49,5,-54,-10,-53,-67,-49,-40,-49
-14,-52,-38,33,12,-45,-10,-50,-65,-46,-40,-46
-17,-49,-33,34,8,-40,-10,-47,-59,-43,-36,-43
-6,-54,-48,31,21,-51,-3,-42,-53,-41,-30,-40
2,-50,-52,24,28,-51,6,-40,-45,-38,-25,-39
-16,-34,-18,25,2,-26,14,-31,-40,-26,-19,-33
9,17,8,-13,1,12,24,-18,-31,-11,-14,-26
18,29,10,-24,4,19,37,-6,-14,-1,-9,-19
29,29,0,-29,14,14,41,12,-19,1,-5,-13
70,69,-1,-69,35,34,0,-7,-36,-2,-3,-7
69,47,-21,-57,45,13,-57,-46,-46,-5,0,-1
77,20,-56,-48,66,-18,-76,-54,-52,-12,3,0
84,13,-71,-48,77,-29,-70,-49,-52,-12,6,5
75,-12,-86,-31,81,-49,-68,-44,-60,-28,1,4
39,-35,-74,-2,57,-54,-58,-37,-64,-49,-11,-10
25,-33,-58,4,42,-45,-21,-32,-65,-49,-18,-28
11,-43,-55,16,33,-49,2,-32,-65,-51,-35,-40
3,-46,-48,22,26,-47,-2,-36,-64,-47,-49,-45
0,-43,-43,22,22,-43,2,-35,-66,-55,-52,-48
-45,-81,-36,63,-4,-59,-1,-35,-64,-50,-47,-53
-51,-87,-36,70,-7,-61,0,-38,-83,-66,-54,-55
-40,-73,-33,57,-4,-52,3,-30,-80,-70,-54,-47
-44,-83,-39,64,-2,-61,10,-28,-70,-65,-59,-46
-33,-63,-30,49,-2,-46,22,-17,-44,-52,-64,-36
-41,-84,-42,63,1,-62,41,15,-22,-41,-63,-72
-63,-172,-108,118,23,-140,195,218,129,22,-73,-131
-5,-167,-162,86,79,-164,177,274,259,231,51,-74
151,79,-71,-114,111,4,-135,-52,113,303,311,176
508,505,-3,-507,255,251,-542,-319,98,656,920,730
606,806,201,-706,202,503,-961,-882,-432,371,1075,1115
212,949,737,-581,-263,843,-1014,-1458,-1274,-870,235,878
-71,841,912,-385,-491,876,-737,-1275,-1182,-1129,-272,486
-262,423,686,-81,-474,554,-154,-694,-665,-775,-392,67
-428,-10,419,219,-423,204,453,-315,-402,-623,-564,-364
-482,-215,267,349,-374,26,723,-298,-386,-558,-583,-487
-496,-257,239,376,-368,-8,917,-299,-339,-478,-499,-446
-493,-308,184,400,-338,-62,941,-221,-234,-335,-393,-399
-396,-227,169,311,-282,-29,739,-107,-144,-245,-300,-308
-239,-127,112,183,-176,-7,490,-38,-76,-144,-203,-222
-150,-107,43,128,-96,-32,254,11,-33,-70,-140,-156
-71,-81,-10,76,-30,-45,115,90,49,0,-77,-103
-30,-84,-54,57,12,-69,75,139,101,53,-33,-69
24,-38,-62,7,43,-50,55,181,137,81,-11,-47
47,-40,-88,-3,68,-64,41,195,163,105,2,-37
9,-82,-91,37,50,-86,31,204,176,114,13,-33
31,-59,-90,14,61,-74,29,230,196,123,30,-27
46,-55,-101,4,74,-78,30,245,213,141,30,-21
63,-37,-99,-13,81,-68,25,258,234,159,45,-17
71,-29,-100,-21,86,-65,26,279,258,176,58,-8
84,-16,-100,-34,92,-58,24,301,280,200,69,10
114,14,-100,-64,107,-42,16,337,315,240,98,39
95,-6,-101,-44,98,-53,5,361,345,262,115,67
150,57,-93,-103,121,-17,-4,393,383,288,142,91
163,80,-83,-121,123,-2,-23,427,421,325,176,116
145,74,-71,-110,108,2,-58,454,454,358,206,151
198,142,-57,-170,127,42,-69,484,489,399,258,205
237,194,-44,-215,140,75,-84,502,518,432,297,256
280,261,-18,-270,149,121,-116,506,527,460,335,301
275,291,15,-283,130,153,-130,489,520,457,360,328
273,318,45,-295,114,181,-131,461,510,441,362,340
256,302,46,-280,105,174,-121,421,495,422,352,331
226,255,28,-241,99,141,-103,370,456,379,313,281
192,210,19,-201,86,114,-78,294,366,316,249,204
132,144,12,-138,60,78,-38,203,275,250,177,137
86,95,9,-91,39,51,-11,129,179,172,119,85
35,40,5,-38,15,22,-9,64,96,102,66,27
29,27,-2,-28,15,12,-6,18,52,59,36,-5
34,25,-9,-29,21,8,-3,-2,10,27,18,-15
7,-9,-17,1,12,-13,0,-6,-12,7,-4,-25
-8,-25,-17,17,5,-21,1,-11,-29,-2,-17,-36
-17,-32,-15,25,-1,-23,9,-18,-39,-8,-31,-48
-22,-37,-15,31,-4,-26,17,-22,-32,-12,-29,-51
-46,-58,-12,52,-17,-34,17,-34,-28,-23,-39,-49
-68,-77,-9,73,-29,-43,14,-34,-23,-40,-53,-57
-49,-59,-10,54,-19,-35,18,-19,-19,-37,-49,-67
-40,-57,-16,49,-12,-36,35,-12,-14,-27,-51,-64
-33,-52,-19,43,-7,-36,34,-2,-11,-19,-50,-61
-15,-44,-29,30,7,-36,27,3,-10,-4,-50,-58
-8,-43,-36,26,14,-39,23,0,-10,9,-47,-55
-1,-29,-28,16,14,-28,16,0,-10,10,-41,-54
-24,-49,-25,37,0,-36,11,0,-10,5,-37,-50
-27,-47,-20,37,-3,-33,7,0,-12,3,-33,-51
-17,-31,-15,25,-1,-23,4,0,-19,-2,-27,-47
-28,-47,-19,38,-4,-33,1,-4,-26,-5,-26,-45
-19,-43,-24,31,3,-33,-2,-13,-33,-9,-30,-45
-34,-54,-20,44,-7,-36,-5,-19,-39,-16,-33,-45
-35,-53,-19,44,-8,-36,-5,-26,-45,-19,-35,-44
-35,-48,-12,42,-11,-30,-5,-30,-49,-27,-38,-48
-41,-64,-23,53,-9,-43,-5,-29,-62,-30,-41,-60
-11,-52,-41,32,15,-47,-13,-47,-78,-41,-44,-60
-2,-42,-40,22,19,-40,-16,-57,-80,-60,-45,-60
-29,-69,-40,49,6,-54,-14,-54,-80,-60,-36,-60
-41,-81,-40,61,0,-60,-15,-56,-84,-60,-44,-60
-20,-61,-40,40,10,-50,-15,-55,-85,-60,-56,-60
-17,-55,-38,36,11,-46,-15,-55,-85,-60,-55,-60
-21,-56,-34,39,7,-45,-15,-55,-85,-58,-54,-60
-10,-42,-32,26,11,-37,-14,-55,-85,-54,-50,-60
-31,-60,-29,46,-1,-44,-16,-55,-85,-55,-49,-60
-62,-88,-26,75,-18,-57,-20,-55,-85,-55,-53,-60
-56,-80,-24,69,-16,-52,-20,-55,-84,-55,-55,-64
-47,-68,-22,58,-12,-45,-22,-58,-88,-56,-55,-65
-48,-66,-17,57,-15,-41,-25,-60,-90,-59,-55,-65
-50,-83,-33,66,-8,-58,-25,-60,-90,-60,-55,-65
-34,-81,-47,58,7,-64,-21,-63,-90,-62,-55,-65
-27,-71,-44,50,9,-57,-20,-66,-90,-70,-54,-63
-17,-67,-50,42,17,-58,-20,-64,-90,-74,-61,-57
-9,-58,-49,34,20,-53,-15,-60,-84,-70,-65,-53
-33,-73,-40,54,4,-56,-15,-55,-78,-62,-58,-49
-34,-69,-35,52,0,-51,-14,-50,-70,-56,-54,-44
-25,-52,-27,39,1,-39,-8,-47,-65,-49,-47,-39
-18,-39,-21,29,2,-29,-1,-41,-56,-43,-43,-35
3,-17,-20,7,12,-19,2,-39,-38,-40,-36,-30
7,-12,-19,2,13,-15,12,-32,-22,-41,-18,-26
19,-3,-23,-8,21,-13,-10,-32,-21,-40,-14,-22
32,1,-31,-16,31,-14,-55,-60,-54,-40,-19,-16
67,11,-55,-39,61,-22,-61,-67,-70,-40,-21,-17
110,21,-89,-65,99,-33,-58,-61,-69,-40,-26,-23
71,-16,-87,-27,79,-51,-57,-61,-77,-46,-28,-26
31,-48,-78,9,55,-63,-54,-55,-78,-53,-34,-31
24,-53,-77,15,50,-64,-51,-55,-81,-55,-47,-35
9,-60,-68,26,39,-64,-35,-55,-79,-59,-53,-42
-24,-90,-67,58,22,-78,-26,-55,-88,-71,-60,-68
-58,-119,-61,89,2,-89,-19,-56,-98,-90,-74,-82
-57,-113,-56,85,0,-84,-18,-54,-85,-76,-68,-74
-59,-117,-58,88,0,-87,-16,-57,-89,-81,-69,-74
-51,-110,-59,80,4,-84,-9,-52,-76,-72,-65,-68
-38,-106,-68,72,15,-87,-15,-52,-79,-68,-62,-64
-36,-99,-63,68,13,-80,7,-44,-62,-71,-70,-66
-16,-92,-76,54,30,-84,20,-19,-37,-36,-58,-75
-58,-169,-112,114,27,-140,153,168,80,-14,-105,-149
-33,-215,-182,124,75,-198,195,279,246,184,7,-126
99,6,-94,-53,97,-44,-88,-23,82,268,253,115
368,430,61,-399,153,245,-477,-336,19,565,865,659
512,792,280,-652,116,536,-909,-859,-445,418,1191,1150
157,952,795,-555,-319,873,-1008,-1384,-1272,-830,290,922
-133,832,965,-350,-549,898,-755,-1222,-1217,-1237,-401,429
-264,451,715,-94,-490,583,-265,-653,-705,-871,-523,2
-425,-11,414,218,-420,201,327,-181,-299,-624,-638,-407
-460,-241,219,350,-339,-11,640,-110,-271,-491,-616,-508
-456,-279,177,367,-316,-51,852,-171,-342,-490,-554,-469
-456,-325,130,390,-293,-97,930,-199,-267,-394,-439,-428
-383,-276,108,329,-245,-84,744,-166,-221,-303,-356,-347
-262,-201,61,231,-161,-70,497,-86,-134,-213,-260,-268
-190,-165,26,177,-108,-69,266,-31,-68,-119,-170,-191
-100,-134,-35,117,-32,-84,84,32,9,-33,-106,-132
-37,-123,-86,80,25,-104,27,78,71,21,-57,-99
-17,-113,-96,66,39,-104,44,153,140,77,-39,-82
3,-108,-111,53,57,-109,34,177,168,103,-25,-76
19,-100,-119,41,69,-109,19,163,158,94,-19,-70
49,-95,-145,23,97,-120,19,177,183,115,6,-61
56,-86,-142,15,99,-114,13,194,202,128,12,-50
43,-92,-135,25,89,-113,12,209,224,147,25,-37
34,-100,-134,33,84,-116,7,225,244,164,51,-24
59,-68,-127,5,93,-97,-2,239,263,186,57,-1
65,-60,-124,-2,95,-92,-11,259,297,215,75,15
72,-58,-129,-7,101,-93,-20,287,332,240,98,33
130,0,-130,-65,130,-65,-29,316,372,286,136,63
139,24,-115,-81,126,-45,-55,337,402,314,164,92
155,54,-102,-104,128,-24,-60,378,448,355,200,135
201,111,-89,-156,145,11,-78,414,493,403,246,183
212,134,-78,-173,145,28,-113,423,509,419,278,226
238,187,-51,-212,144,68,-126,430,528,435,318,263
244,230,-14,-236,129,108,-138,423,532,426,333,298
236,244,8,-240,114,125,-128,412,533,418,340,318
227,236,9,-232,109,122,-116,387,505,407,329,304
194,194,0,-194,97,97,-96,337,447,363,282,252
157,151,-6,-154,81,73,-55,266,378,303,229,179
114,100,-13,-107,63,43,-39,184,272,230,173,124
67,45,-22,-56,44,11,-30,109,170,149,110,69
32,8,-24,-20,28,-8,-20,50,89,79,55,17
11,-15,-26,3,19,-20,-11,11,29,34,23,-10
2,-21,-23,10,13,-22,-10,-7,-7,7,3,-23
5,-23,-28,10,17,-26,-5,-13,-24,-12,-16,-34
3,-49,-52,23,28,-50,-6,-23,-34,-32,-21,-43
5,-51,-56,23,31,-53,-20,-33,-45,-44,-29,-50
6,-48,-54,22,30,-51,-17,-32,-39,-42,-38,-57
3,-52,-56,25,29,-53,-8,-24,-33,-36,-44,-70
8,-46,-55,19,32,-50,0,-21,-29,-32,-46,-78
-13,-67,-54,41,21,-60,7,-14,-22,-28,-44,-72
-31,-80,-49,55,10,-64,18,-9,-18,-23,-41,-71
-19,-70,-51,45,16,-60,22,-4,-12,-18,-40,-67
-17,-65,-47,41,15,-56,19,0,-10,-16,-39,-65
-13,-57,-44,36,16,-51,20,-1,-10,-13,-32,-63
-6,-51,-45,29,20,-48,15,2,-10,-10,-26,-58
-1,-46,-45,24,22,-45,15,5,-10,-7,-21,-55
0,-45,-45,23,23,-45,14,5,-10,-4,-15,-52
5,-40,-45,18,25,-42,10,1,-17,-9,-10,-47
6,-39,-45,17,26,-42,8,-8,-27,-16,-4,-45
11,-34,-45,12,28,-39,5,-16,-35,-23,2,-50
8,-37,-45,15,27,-41,1,-24,-45,-28,4,-58
-30,-75,-45,53,8,-60,0,-30,-53,-34,-2,-58
-33,-78,-45,56,6,-61,-4,-30,-55,-39,-8,-54
-23,-68,-45,46,11,-56,-9,-30,-55,-37,-12,-55
-22,-66,-45,45,12,-56,-4,-30,-55,-34,-19,-51
-13,-59,-45,37,16,-52,1,-30,-60,-30,-23,-50
-17,-59,-41,38,12,-49,4,-30,-60,-29,-29,-49
-8,-48,-40,28,16,-44,2,-33,-63,-23,-30,-46
-19,-59,-40,39,10,-50,-3,-36,-66,-31,-31,-43
-33,-74,-40,54,4,-57,-5,-33,-65,-55,-34,-40
-31,-70,-40,50,5,-55,-10,-30,-65,-55,-36,-37
-13,-54,-41,34,15,-47,-14,-30,-65,-50,-33,-34
-8,-63,-55,36,23,-58,-14,-30,-65,-49,-30,-37
-13,-74,-61,44,24,-67,-8,-30,-65,-45,-30,-40
27,-35,-61,4,44,-48,-4,-29,-66,-45,-29,-50
15,-52,-67,19,41,-59,-1,-36,-69,-45,-42,-56
-13,-71,-58,42,23,-64,6,-41,-72,-45,-50,-54
-4,-51,-47,28,22,-49,-7,-40,-75,-45,-40,-55
-6,-56,-50,31,23,-53,-17,-40,-77,-49,-35,-55
-8,-57,-49,32,21,-53,-14,-40,-81,-50,-27,-55
-13,-66,-53,40,20,-59,-15,-40,-78,-50,-21,-53
-11,-66,-55,39,23,-60,-15,-35,-72,-54,-17,-46
1,-55,-55,27,28,-55,-15,-30,-69,-55,-14,-39
0,-49,-48,25,24,-48,-14,-26,-64,-53,-11,-32
-8,-40,-32,24,12,-36,-6,-21,-59,-41,-8,-26
-1,-22,-20,12,10,-21,6,-16,-50,-26,-6,-20
2,11,9,-6,-4,10,14,-14,-33,-16,-4,-14
16,36,20,-27,-2,28,28,-16,-28,-15,0,-8
33,39,6,-36,13,22,12,-14,-31,-16,4,-1
34,27,-7,-30,20,9,-34,-27,-35,-14,7,5
71,19,-52,-45,62,-16,-55,-41,-49,-15,12,13
92,21,-70,-56,81,-24,-63,-39,-60,-15,15,12
68,-5,-73,-31,71,-39,-59,-40,-66,-21,11,4
57,-40,-97,-8,77,-68,-43,-36,-72,-14,2,-3
28,-48,-75,10,52,-61,-31,-34,-74,-15,-3,-8
2,-48,-50,23,26,-49,-25,-35,-80,-42,-11,-18
-17,-65,-48,41,16,-56,-25,-30,-79,-48,-23,-26
-33,-103,-70,68,19,-86,-23,-31,-80,-56,-31,-34
-40,-106,-66,73,14,-86,-15,-29,-81,-64,-49,-42
-54,-104,-50,79,-1,-77,-13,-30,-78,-50,-49,-37
-56,-112,-56,84,0,-83,-6,-30,-81,-60,-61,-43
-53,-107,-54,80,0,-80,-4,-27,-68,-43,-54,-36
-61,-113,-52,87,-4,-83,3,-24,-74,-55,-66,-54
-35,-79,-44,57,5,-62,7,-19,-59,-38,-63,-58
-36,-109,-73,73,19,-91,49,36,-19,-16,-66,-70
-58,-206,-149,132,46,-178,202,259,181,77,-82,-138
35,-152,-187,59,111,-169,122,226,226,264,111,-35
168,150,-18,-159,93,66,-212,-133,16,334,443,299
430,596,166,-513,132,381,-634,-482,-72,691,1153,912
397,896,498,-647,-51,697,-972,-1048,-761,85,1039,1157
-10,918,928,-454,-469,923,-905,-1339,-1377,-1204,-146,671
-202,659,861,-229,-531,760,-580,-993,-1089,-1221,-618,169
-330,222,552,54,-441,387,-56,-434,-610,-863,-680,-231
-412,-113,300,262,-356,93,430,-97,-299,-651,-692,-475
-444,-262,182,353,-313,-40,684,-117,-378,-555,-603,-496
-470,-318,151,394,-310,-83,850,-198,-449,-524,-543,-480
-424,-312,112,367,-268,-100,855,-205,-327,-374,-418,-403
-340,-241,99,290,-219,-70,645,-133,-212,-281,-319,-301
-228,-164,64,196,-146,-50,381,-76,-119,-162,-214,-212
-160,-144,16,151,-88,-63,177,-11,-44,-87,-144,-148
-92,-127,-35,109,-28,-81,63,60,44,-5,-77,-96
-34,-108,-74,71,20,-91,52,113,114,72,-32,-55
-6,-109,-103,58,49,-106,36,148,150,84,-11,-46
10,-102,-113,46,62,-107,26,158,167,104,0,-41
20,-96,-117,38,69,-106,24,187,193,124,3,-35
35,-88,-123,26,79,-105,16,193,206,131,10,-28
37,-87,-124,26,81,-105,13,196,221,152,21,-17
35,-86,-121,26,78,-103,5,210,243,170,35,-8
46,-73,-119,13,83,-96,2,222,270,187,51,3
55,-65,-120,5,88,-92,-6,244,299,214,68,12
70,-43,-113,-13,92,-78,-12,264,333,237,81,26
87,-31,-118,-27,103,-74,-19,279,361,265,111,50
88,-19,-108,-34,98,-63,-26,308,396,305,143,84
131,44,-87,-87,108,-21,-32,344,443,346,176,115
170,86,-84,-128,127,1,-62,381,480,383,219,144
177,108,-69,-142,122,19,-90,397,517,421,260,206
185,147,-38,-165,111,54,-102,403,541,448,294,252
208,186,-21,-197,115,82,-112,427,564,467,326,285
241,228,-13,-234,127,107,-125,425,567,479,334,322
220,233,13,-227,104,123,-134,396,549,459,327,327
198,224,27,-211,85,125,-111,361,518,420,311,305
168,184,15,-176,76,99,-87,299,443,360,267,247
126,134,8,-130,59,71,-65,226,352,284,207,174
92,90,-2,-91,46,44,-30,152,244,206,138,115
49,23,-25,-36,37,-1,-19,86,141,126,89,66
29,-15,-44,-6,36,-29,-21,40,76,68,51,34
17,-31,-48,7,33,-39,-20,0,25,26,18,8
-17,-66,-49,42,16,-57,-20,-29,-15,-7,-1,-22
-48,-92,-45,70,-1,-68,-20,-30,-41,-23,-18,-35
-38,-83,-45,61,4,-64,-18,-25,-57,-35,-28,-37
-33,-78,-45,56,6,-61,-7,-23,-57,-45,-40,-34
-30,-75,-45,53,8,-59,3,-18,-49,-45,-45,-38
-18,-63,-45,41,14,-54,12,-15,-43,-45,-53,-63
-42,-87,-45,65,2,-66,16,-12,-36,-45,-61,-73
-61,-107,-45,85,-8,-76,15,-6,-30,-45,-55,-73
-54,-98,-44,77,-5,-71,15,-1,-25,-45,-53,-79
-50,-96,-46,73,-1,-71,15,2,-20,-38,-49,-80
-48,-92,-43,71,-3,-67,16,8,-15,-28,-45,-75
-37,-87,-51,62,7,-68,13,9,-12,-17,-42,-68
-24,-84,-61,54,19,-72,10,3,-5,-10,-39,-63
-21,-81,-60,51,20,-71,10,-3,-9,-10,-36,-57
-17,-76,-58,47,21,-67,6,-7,-22,-10,-33,-53
-20,-75,-55,48,18,-65,5,-14,-26,-10,-30,-47
-7,-62,-55,35,24,-59,5,-19,-33,-10,-31,-44
-16,-69,-52,43,18,-60,-2,-20,-35,-16,-35,-38
-38,-88,-50,63,6,-69,-9,-21,-35,-21,-37,-36
-25,-70,-46,48,11,-58,-16,-17,-48,-28,-40,-45
-33,-78,-46,56,7,-62,-21,-32,-56,-30,-44,-45
-54,-92,-38,73,-8,-65,-19,-47,-61,-31,-45,-45
-39,-84,-45,62,3,-64,-21,-43,-65,-52,-49,-45
-29,-83,-54,56,13,-69,-19,-48,-68,-56,-50,-44
-39,-78,-40,59,0,-59,-21,-50,-72,-54,-50,-46
-28,-73,-45,51,9,-59,-19,-50,-75,-60,-55,-51
-42,-86,-44,64,2,-65,-17,-46,-72,-59,-55,-55
-57,-97,-39,77,-9,-67,-33,-44,-69,-61,-56,-55
-51,-90,-38,71,-6,-64,-36,-45,-71,-65,-60,-55
-53,-87,-34,71,-9,-60,-34,-40,-69,-64,-60,-55
-45,-82,-38,64,-3,-60,-36,-41,-71,-68,-60,-54
-35,-79,-44,57,5,-61,-34,-38,-67,-70,-60,-59
-26,-76,-49,51,12,-62,-36,-47,-71,-70,-60,-66
-26,-71,-45,49,10,-58,-35,-61,-87,-74,-64,-65
-24,-69,-45,47,11,-57,-35,-60,-83,-75,-65,-65
-20,-64,-44,42,12,-54,-35,-59,-80,-75,-65,-65
-25,-64,-40,44,8,-52,-35,-55,-78,-75,-69,-65
-17,-56,-40,36,11,-48,-35,-55,-73,-75,-70,-65
-28,-70,-43,49,8,-56,-32,-53,-82,-74,-69,-65
-39,-84,-45,62,3,-64,-30,-49,-85,-69,-64,-65
-21,-66,-45,44,13,-55,-26,-51,-81,-66,-61,-65
-33,-77,-45,56,6,-61,-25,-49,-78,-63,-58,-65
-38,-83,-45,61,4,-64,-20,-51,-73,-58,-53,-65
-34,-78,-44,56,6,-61,-20,-49,-70,-55,-50,-60
-23,-52,-29,38,3,-41,-13,-44,-64,-49,-46,-55
1,-8,-9,4,5,-8,-5,-33,-51,-36,-41,-51
-2,0,2,1,-2,1,2,-33,-40,-25,-36,-46
12,22,9,-17,1,15,25,-35,-41,-20,-33,-42
2,17,16,-10,-7,16,-18,-36,-38,-20,-27,-38
19,10,-9,-14,14,1,-60,-57,-54,-20,-25,-35
74,29,-45,-51,59,-8,-53,-61,-70,-18,-25,-31
95,21,-74,-58,84,-27,-66,-58,-72,-37,-25,-29
80,6,-74,-43,77,-34,-59,-61,-76,-46,-24,-25
15,-29,-45,7,30,-36,-51,-59,-80,-44,-25,-24
14,-41,-55,13,35,-48,-49,-61,-99,-62,-44,-41
-1,-59,-59,30,29,-59,-32,-56,-106,-74,-62,-56
-44,-83,-39,64,-2,-61,-21,-50,-95,-67,-63,-69
-42,-79,-37,61,-2,-58,-15,-45,-95,-73,-65,-76
-52,-79,-28,66,-12,-53,-13,-40,-88,-85,-66,-75
-54,-81,-27,68,-13,-54,-11,-32,-84,-77,-62,-74
-59,-79,-20,69,-19,-50,-5,-33,-83,-77,-69,-76
-60,-75,-16,68,-22,-45,-7,-39,-75,-59,-59,-73
-50,-69,-19,60,-16,-44,8,-42,-81,-68,-74,-72
-23,-51,-27,37,2,-39,9,-27,-60,-43,-62,-65
-60,-134,-75,97,8,-104,99,102,25,-36,-104,-123
-59,-203,-144,131,43,-174,230,295,235,133,-59,-155
65,-46,-111,-9,88,-78,22,99,145,272,184,33
274,320,46,-297,114,183,-361,-264,-9,416,625,463
524,686,162,-605,181,424,-760,-614,-154,700,1247,1024
341,896,556,-619,-108,726,-1002,-1206,-957,-243,771,1065
-46,905,950,-430,-498,927,-855,-1345,-1353,-1258,-255,592
-215,607,822,-196,-519,714,-471,-888,-957,-1069,-522,158
-355,182,537,86,-446,360,142,-349,-480,-761,-622,-262
-450,-138,312,293,-381,87,585,-136,-343,-608,-643,-504
-506,-276,230,391,-368,-22,757,-240,-469,-592,-594,-519
-479,-293,186,386,-332,-53,908,-261,-379,-467,-508,-463
-397,-258,139,327,-267,-59,811,-193,-261,-330,-380,-377
-306,-174,132,239,-219,-21,561,-107,-162,-239,-282,-280
-192,-113,79,152,-135,-17,315,-45,-86,-124,-183,-200
-103,-87,15,95,-59,-36,124,20,-21,-59,-122,-152
-56,-92,-36,74,-10,-64,66,88,71,23,-62,-103
-31,-96,-65,64,17,-80,40,134,125,60,-28,-69
-2,-90,-88,46,43,-89,28,151,144,80,-10,-57
2,-88,-91,43,46,-89,19,172,165,100,-7,-55
11,-79,-90,34,51,-84,13,191,187,120,2,-49
25,-63,-88,19,57,-75,16,191,197,130,6,-46
48,-53,-101,3,74,-77,14,212,226,142,22,-34
103,-14,-118,-44,111,-66,16,233,248,167,45,-8
103,-6,-109,-49,106,-58,14,252,270,196,44,5
75,-34,-108,-20,92,-71,9,275,299,212,67,11
93,-11,-103,-40,98,-57,-3,301,336,237,93,27
110,9,-100,-59,105,-45,-11,329,373,278,121,53
132,36,-96,-84,114,-30,-21,364,411,311,150,81
162,75,-86,-118,124,-5,-23,411,462,354,182,125
192,113,-79,-152,135,17,-36,452,512,407,241,180
185,136,-49,-160,117,43,-70,464,536,436,279,218
222,201,-22,-211,122,89,-79,479,562,459,315,264
263,260,-3,-261,132,129,-101,494,581,478,353,311
236,273,36,-255,100,154,-109,471,570,474,363,334
244,296,52,-270,96,173,-93,425,550,460,356,335
230,270,40,-250,95,155,-87,370,501,417,323,299
187,220,33,-204,77,126,-68,299,415,347,269,232
149,173,24,-161,62,98,-47,220,319,272,206,163
109,127,18,-118,46,72,-16,149,225,197,143,106
51,62,11,-57,20,36,-6,73,130,122,88,56
4,7,4,-6,0,5,-18,22,64,70,53,16
-14,-16,-1,15,-6,-8,-12,3,27,38,31,-4
-8,-21,-14,15,3,-17,-1,-27,-17,4,6,-13
-10,-32,-22,21,6,-27,-12,-43,-45,-27,-23,-30
-21,-41,-20,31,-1,-30,-22,-40,-46,-44,-39,-57
-8,-28,-20,18,6,-23,-14,-36,-45,-45,-40,-61
-31,-46,-15,39,-8,-31,-7,-33,-46,-45,-40,-59
-53,-67,-14,61,-19,-41,-1,-28,-45,-44,-38,-61
-48,-64,-16,56,-16,-40,6,-25,-46,-39,-45,-59
-44,-57,-13,51,-15,-35,12,-21,-40,-34,-54,-61
-50,-79,-29,65,-11,-53,18,-15,-30,-30,-64,-60
-52,-93,-42,73,-5,-67,24,-10,-20,-25,-67,-60
-40,-79,-39,59,0,-59,22,-5,-15,-21,-56,-60
-30,-70,-40,50,6,-55,16,2,-13,-16,-48,-60
-28,-68,-40,48,6,-54,12,4,-9,-15,-41,-60
-36,-76,-40,56,2,-58,8,-4,-8,-15,-36,-57
-37,-73,-37,55,1,-55,2,-11,-3,-15,-31,-54
-44,-79,-34,62,-5,-57,1,-18,-14,-15,-28,-51
-22,-58,-35,40,7,-46,8,-26,-28,-16,-22,-49
-14,-43,-29,28,8,-36,6,-32,-37,-20,-21,-45
-38,-68,-31,53,-3,-49,-1,-39,-55,-20,-25,-46
-31,-60,-29,45,-1,-44,-5,-40,-55,-24,-25,-50
-17,-48,-31,33,7,-39,-11,-40,-58,-31,-30,-50
-22,-54,-32,38,5,-43,-17,-40,-61,-36,-30,-50
-31,-61,-30,46,-1,-46,-20,-39,-61,-40,-33,-50
-12,-60,-48,36,18,-54,-20,-42,-68,-43,-42,-50
-19,-60,-41,40,11,-50,-20,-45,-71,-47,-45,-46
-32,-60,-28,46,-2,-44,-20,-48,-76,-50,-45,-45
-30,-59,-30,45,0,-45,-19,-50,-79,-53,-45,-45
-51,-76,-24,64,-14,-49,-21,-46,-80,-56,-45,-45
-58,-82,-23,70,-17,-52,-12,-45,-80,-59,-45,-45
-65,-84,-19,75,-23,-51,5,-45,-80,-62,-41,-46
-59,-85,-26,72,-16,-55,5,-45,-80,-65,-40,-50
-56,-86,-30,71,-13,-57,0,-45,-82,-64,-40,-50
-71,-90,-19,81,-26,-54,-2,-44,-85,-60,-40,-50
-55,-90,-35,73,-10,-62,-7,-40,-85,-58,-40,-50
-35,-88,-53,61,9,-70,-9,-40,-85,-55,-41,-50
-40,-81,-41,61,1,-61,-14,-40,-85,-52,-45,-50
-42,-74,-32,58,-5,-52,-15,-40,-84,-50,-45,-50
-32,-67,-36,50,2,-51,-16,-40,-81,-47,-45,-50
-22,-61,-39,41,9,-50,-19,-36,-78,-44,-42,-50
-17,-54,-37,36,11,-45,-21,-35,-76,-45,-39,-51
-32,-64,-32,48,1,-48,-18,-35,-72,-45,-36,-48
-41,-71,-29,56,-6,-50,-15,-30,-70,-45,-33,-45
-37,-63,-25,51,-5,-44,-15,-30,-68,-44,-30,-45
-41,-63,-21,52,-10,-42,-9,-31,-58,-39,-29,-40
-26,-45,-19,35,-4,-32,-12,-30,-52,-41,-24,-40
2,-8,-10,4,6,-9,3,-23,-38,-33,-21,-33
7,6,-1,-6,4,2,28,-17,-22,-13,-18,-12
7,9,2,-8,2,6,25,-14,-13,-10,-13,-4
35,40,5,-38,15,22,-7,-9,-2,-10,-11,-6
57,44,-12,-50,34,16,-57,-29,-21,-14,-7,-3
73,30,-43,-51,58,-7,-75,-54,-52,-20,-4,0
88,18,-70,-53,79,-26,-69,-55,-57,-26,-5,0
85,-5,-90,-40,87,-47,-62,-54,-61,-30,-5,-4
58,-22,-79,-18,69,-50,-52,-57,-66,-37,-15,-15
20,-44,-64,13,42,-54,-44,-59,-70,-47,-22,-24
21,-41,-62,10,42,-51,-36,-56,-71,-57,-32,-35
-6,-60,-53,33,24,-56,-24,-48,-64,-59,-46,-52
-48,-99,-52,74,2,-75,-18,-46,-65,-53,-50,-64
-58,-98,-41,78,-9,-69,-13,-36,-58,-58,-52,-66
-51,-96,-45,73,-3,-70,-17,-40,-65,-49,-42,-63
-35,-94,-59,65,12,-76,-13,-50,-82,-55,-49,-67
-25,-86,-60,55,18,-73,-16,-38,-65,-45,-39,-62
-28,-89,-61,58,17,-75,-13,-39,-71,-49,-45,-68
-26,-82,-56,54,15,-69,16,-12,-41,-23,-34,-49
-42,-113,-71,78,15,-92,65,56,8,-18,-56,-75
-53,-191,-138,123,42,-164,218,276,183,68,-84,-155
42,-160,-202,60,122,-181,143,245,248,255,81,-63
196,123,-73,-159,134,25,-215,-113,95,346,403,270
517,541,24,-529,246,282,-641,-410,46,710,1047,842
527,825,298,-676,114,561,-1000,-1031,-623,170,994,1113
94,892,798,-494,-352,845,-980,-1446,-1312,-1029,52,773
-150,700,850,-276,-501,775,-639,-1130,-1058,-1084,-358,350
-332,284,616,24,-474,450,-29,-573,-593,-743,-478,-85
-473,-103,370,288,-421,133,512,-290,-402,-594,-616,-440
-514,-275,238,394,-376,-18,741,-314,-418,-546,-585,-505
-524,-328,196,426,-360,-66,898,-294,-348,-460,-495,-467
-456,-315,141,386,-299,-86,882,-200,-209,-303,-372,-391
-350,-216,134,283,-242,-40,634,-86,-111,-219,-280,-291
-249,-163,86,206,-167,-38,374,-41,-59,-129,-198,-230
-158,-136,22,147,-90,-57,144,27,-5,-52,-125,-175
-54,-94,-40,75,-7,-67,-22,95,72,11,-68,-124
-6,-78,-72,42,33,-75,-52,144,125,57,-32,-88
26,-65,-91,19,59,-77,-57,192,165,98,-19,-57
37,-80,-117,22,77,-98,-55,192,173,107,-5,-77
5,-106,-111,51,58,-108,-55,216,190,119,5,-120
26,-83,-108,29,67,-95,-63,238,218,145,14,-134
53,-51,-104,0,79,-77,-63,249,241,152,26,-120
35,-65,-100,15,68,-82,-94,264,255,165,31,-124
47,-55,-102,4,75,-78,-137,290,280,192,98,-114
99,-32,-131,-33,115,-82,-181,312,308,212,123,-45
