I,II,III,aVR,aVL,aVF,V1,V2,V3,V4,V5,V6
-26,-21,5,23,-16,-7,20,0,-36,-70,-70,-40
-28,-23,5,25,-16,-9,20,-3,-42,-71,-71,-40
-21,-19,2,20,-11,-9,17,-9,-49,-76,-74,-41
-20,-20,-1,20,-9,-11,14,-14,-50,-79,-78,-45
-15,-20,-4,18,-5,-12,11,-20,-50,-84,-80,-45
-15,-20,-5,18,-5,-12,9,-24,-50,-83,-75,-45
-19,-19,0,19,-10,-10,6,-19,-50,-79,-75,-45
-16,-16,0,16,-7,-8,5,-14,-50,-80,-74,-45
-14,-13,1,14,-7,-5,5,-9,-47,-80,-70,-45
-16,-11,5,13,-11,-2,5,-3,-39,-80,-70,-45
-12,-7,5,9,-8,-1,5,3,-31,-80,-68,-43
-12,-5,7,9,-9,1,2,3,-22,-71,-62,-38
-14,-3,12,8,-13,4,0,-1,-17,-57,-57,-35
-13,3,15,4,-14,9,-3,0,-19,-52,-54,-32
-12,7,18,2,-15,12,-6,-4,-22,-56,-49,-27
-13,10,23,1,-18,16,-9,-5,-24,-55,-45,-25
-21,4,25,8,-24,14,-10,-5,-28,-55,-45,-29
-18,2,20,8,-19,11,-5,-12,-30,-55,-45,-32
-12,9,20,1,-16,14,-5,-19,-32,-56,-44,-35
-13,6,19,3,-16,12,-4,-26,-40,-59,-49,-37
-12,2,15,5,-14,8,0,-34,-45,-62,-60,-40
-16,0,15,8,-16,7,-1,-41,-54,-69,-64,-43
-17,-5,12,11,-14,4,2,-45,-67,-77,-69,-46
-17,-7,10,12,-13,1,6,-45,-70,-87,-71,-49
-24,-18,7,21,-15,-5,5,-45,-73,-88,-69,-51
-31,-27,4,29,-18,-11,9,-45,-76,-84,-70,-54
-26,-25,0,26,-13,-12,10,-45,-79,-85,-70,-55
-26,-25,0,25,-12,-12,10,-45,-80,-85,-70,-55
-25,-20,5,22,-15,-8,15,-45,-83,-85,-69,-55
-26,-21,5,23,-16,-8,15,-45,-86,-85,-65,-55
-18,-12,5,15,-11,-3,16,-45,-85,-89,-65,-55
2,6,4,-4,-2,5,20,-45,-85,-90,-65,-55
-5,2,7,1,-6,4,20,-45,-85,-90,-65,-55
0,-5,-5,3,3,-5,20,-45,-85,-90,-64,-55
8,-9,-17,1,13,-12,20,-45,-85,-89,-68,-55
-3,-17,-15,11,6,-16,20,-45,-84,-93,-70,-54
-15,-29,-14,22,0,-21,20,-45,-80,-95,-70,-51
-21,-31,-10,26,-6,-20,20,-45,-80,-95,-73,-50
-19,-29,-10,24,-4,-19,21,-45,-79,-95,-76,-50
-18,-26,-8,23,-5,-17,24,-40,-75,-95,-74,-50
-21,-24,-3,23,-8,-13,27,-40,-75,-95,-70,-50
-27,-27,0,27,-13,-13,30,-39,-77,-90,-70,-52
-33,-30,3,31,-18,-13,32,-35,-80,-90,-69,-56
-38,-30,8,34,-23,-11,36,-35,-83,-88,-65,-58
-40,-30,10,35,-25,-10,32,-37,-86,-85,-65,-61
-36,-30,5,33,-21,-12,30,-40,-89,-84,-67,-64
-31,-30,1,30,-16,-14,30,-40,-90,-87,-70,-66
-29,-30,-1,30,-14,-16,26,-40,-90,-94,-70,-69
-28,-33,-6,31,-11,-19,25,-40,-90,-90,-74,-70
-26,-36,-10,31,-8,-23,25,-40,-90,-90,-75,-70
-31,-39,-8,35,-11,-23,25,-40,-90,-89,-75,-70
-38,-42,-4,40,-16,-23,25,-40,-90,-85,-80,-70
-43,-45,-2,44,-20,-23,25,-40,-87,-85,-80,-68
-46,-45,1,46,-23,-21,25,-40,-84,-87,-80,-65
-49,-45,4,47,-26,-21,25,-40,-85,-90,-80,-62
-51,-45,6,47,-28,-19,23,-37,-81,-90,-80,-59
-55,-45,9,50,-31,-18,20,-34,-80,-93,-80,-56
-55,-44,11,50,-32,-16,20,-35,-80,-96,-80,-55
-55,-46,10,50,-32,-18,20,-35,-75,-94,-80,-60
-51,-41,10,46,-30,-15,20,-35,-75,-91,-80,-64
-44,-35,10,40,-27,-12,19,-34,-75,-90,-80,-69
-42,-30,12,36,-27,-9,16,-31,-75,-89,-80,-68
-45,-22,23,34,-34,0,13,-26,-76,-85,-75,-61
-52,-21,32,36,-42,5,11,-24,-71,-86,-69,-57
-33,11,44,11,-38,27,8,-18,-60,-83,-64,-50
-30,21,51,4,-40,36,5,-16,-46,-62,-57,-47
-17,51,68,-17,-43,59,2,-12,-39,-50,-57,-26
25,120,95,-72,-35,107,-18,-6,-24,-33,-61,-8
28,113,85,-70,-29,98,-46,-44,-33,-30,-59,-15
16,91,75,-54,-29,83,-49,-92,-92,-72,-65,-24
12,77,65,-45,-27,71,-37,-90,-100,-81,-64,-26
8,40,32,-24,-12,35,-27,-84,-108,-95,-66,-34
-29,-16,13,23,-21,-1,-19,-83,-119,-103,-70,-47
-50,-47,3,48,-26,-22,-7,-69,-109,-107,-78,-59
-46,-40,6,43,-26,-17,-4,-77,-124,-118,-89,-69
-60,-69,-9,65,-26,-39,10,-53,-103,-113,-92,-76
-69,-70,-1,70,-34,-35,11,-71,-131,-137,-100,-81
-63,-81,-17,72,-22,-49,23,-39,-89,-109,-88,-78
-54,-69,-16,62,-19,-42,21,-60,-117,-149,-104,-82
-55,-86,-30,71,-12,-58,34,-13,-64,-107,-91,-84
-91,-124,-34,108,-29,-78,189,214,38,-167,-197,-182
-82,-20,61,51,-72,21,203,319,236,-56,-158,-170
237,275,37,-256,100,156,-149,205,624,697,537,352
654,891,237,-773,208,564,-794,-828,314,1731,1656,1243
704,967,263,-836,219,615,-1165,-1711,-363,2089,2129,1684
284,419,135,-352,75,276,-797,-1490,-1176,488,934,960
-181,83,263,49,-222,173,-214,-1016,-1358,-758,-283,-4
-263,-107,156,184,-209,24,37,-585,-825,-563,-391,-258
-175,-120,55,147,-114,-32,71,-307,-520,-417,-299,-199
-91,-79,12,85,-51,-33,82,-44,-152,-185,-174,-131
-52,-86,-34,69,-9,-60,74,78,-4,-112,-127,-100
-33,-77,-44,55,6,-60,72,92,31,-90,-117,-94
-17,-80,-63,49,23,-71,68,129,78,-61,-97,-86
-41,-90,-49,66,4,-69,64,127,79,-74,-98,-84
-37,-97,-60,67,12,-78,61,146,115,-43,-78,-75
-22,-88,-66,55,22,-77,59,149,119,-40,-79,-72
-16,-88,-72,52,28,-79,59,158,145,-14,-67,-66
-12,-82,-69,47,29,-75,54,169,155,-14,-63,-61
-9,-80,-70,45,30,-75,56,183,178,9,-56,-57
-3,-73,-70,38,34,-72,52,200,203,28,-47,-52
6,-65,-71,29,39,-67,50,220,236,47,-37,-48
19,-57,-76,19,48,-66,50,263,285,83,-16,-43
29,-49,-79,10,54,-64,50,304,337,117,1,-29
45,-41,-87,-2,66,-64,50,351,406,153,24,-9
68,-24,-93,-22,81,-58,50,406,487,215,68,14
104,-8,-112,-48,108,-60,43,457,560,282,114,36
136,12,-124,-74,130,-56,31,504,626,337,159,65
145,33,-112,-89,128,-39,20,506,663,383,201,106
150,47,-103,-99,126,-28,9,495,673,407,231,128
163,71,-92,-117,127,-11,-3,482,659,410,236,135
179,96,-83,-137,131,6,-11,428,599,376,233,126
154,96,-58,-125,106,19,-16,358,498,328,220,117
117,89,-28,-102,72,30,-23,266,373,257,173,108
95,72,-23,-84,59,25,-23,178,251,165,109,76
60,43,-17,-51,39,12,-12,113,147,93,46,35
21,8,-14,-14,17,-3,-2,62,68,33,6,4
-5,-14,-9,10,2,-11,7,34,13,-11,-24,-18
-16,-21,-5,19,-5,-13,18,22,-14,-33,-47,-37
-8,-18,-10,13,1,-14,25,11,-30,-46,-58,-50
-12,-22,-10,17,-1,-16,25,-1,-43,-52,-64,-50
-37,-47,-10,42,-13,-28,25,-5,-42,-58,-67,-50
-41,-51,-10,46,-16,-31,25,-5,-40,-62,-70,-55
-39,-49,-10,44,-14,-30,25,-5,-40,-67,-73,-55
-48,-55,-8,52,-19,-31,25,-5,-40,-70,-75,-55
-52,-55,-2,54,-24,-28,25,-5,-40,-66,-73,-55
-56,-54,2,55,-28,-26,25,-2,-40,-61,-69,-55
-52,-48,5,49,-29,-21,25,2,-35,-59,-67,-55
-40,-41,0,41,-20,-20,25,6,-29,-54,-64,-55
-26,-35,-8,31,-9,-21,25,9,-24,-51,-61,-55
-19,-27,-8,23,-5,-17,20,14,-18,-48,-59,-52
-17,-22,-4,20,-6,-13,20,14,-12,-43,-56,-46
-17,-19,-2,18,-8,-10,19,9,-12,-37,-50,-41
-17,-16,1,17,-9,-7,15,17,-16,-34,-46,-38
-17,-13,4,15,-10,-4,15,28,-15,-29,-41,-32
-16,-10,6,12,-11,-2,17,24,-15,-25,-36,-31
-21,-11,9,16,-15,-1,20,18,-15,-25,-33,-35
-25,-15,10,20,-17,-2,23,15,-15,-24,-29,-37
-28,-17,11,23,-19,-3,26,10,-22,-28,-30,-40
-36,-20,15,27,-26,-2,29,6,-33,-35,-30,-43
-39,-23,15,30,-26,-4,30,1,-43,-42,-30,-46
-38,-25,13,31,-25,-6,25,-5,-52,-53,-45,-41
-38,-28,10,33,-24,-9,20,-10,-57,-55,-52,-40
-37,-31,7,34,-22,-12,15,-16,-60,-58,-55,-40
-34,-30,4,31,-19,-12,12,-22,-65,-61,-59,-36
-31,-30,1,31,-16,-15,6,-25,-65,-65,-61,-34
-29,-29,0,29,-14,-15,8,-25,-66,-74,-65,-36
-32,-32,0,32,-16,-16,22,-25,-70,-72,-67,-40
-34,-34,0,34,-16,-17,30,-25,-69,-70,-71,-40
-30,-30,0,30,-15,-15,30,-25,-73,-70,-67,-40
-30,-30,0,30,-15,-15,30,-25,-75,-66,-64,-40
-30,-30,0,30,-15,-15,30,-25,-75,-64,-65,-40
-32,-30,2,31,-17,-13,30,-25,-78,-66,-65,-40
-36,-30,5,32,-20,-12,28,-25,-81,-69,-65,-40
-35,-26,8,30,-21,-8,24,-25,-79,-72,-65,-40
-35,-25,11,30,-22,-7,26,-25,-76,-74,-65,-40
-40,-25,15,32,-27,-5,21,-26,-73,-78,-65,-40
-35,-20,15,27,-25,-2,20,-30,-70,-80,-65,-41
-31,-20,11,25,-21,-5,20,-30,-67,-83,-65,-45
-29,-21,8,25,-18,-6,15,-30,-64,-85,-65,-44
-33,-28,5,30,-19,-11,15,-30,-67,-85,-67,-47
-46,-44,3,45,-24,-20,15,-30,-70,-85,-71,-50
-45,-45,-1,45,-21,-22,16,-27,-70,-85,-70,-50
-47,-45,2,46,-24,-21,14,-24,-70,-85,-70,-54
-51,-45,6,47,-28,-20,20,-25,-70,-80,-70,-55
-49,-45,4,47,-26,-20,31,-25,-70,-80,-70,-55
-53,-44,9,49,-31,-17,30,-25,-70,-79,-75,-55
-49,-39,10,44,-29,-15,30,-26,-69,-74,-75,-55
-52,-41,11,46,-31,-15,30,-31,-72,-75,-76,-54
-51,-37,14,43,-33,-11,30,-35,-75,-72,-80,-50
-51,-35,16,43,-33,-9,29,-31,-75,-69,-80,-50
-55,-35,20,45,-37,-7,26,-30,-75,-70,-78,-50
-53,-32,21,42,-37,-5,23,-30,-75,-66,-71,-50
-51,-25,27,37,-39,1,21,-30,-75,-65,-64,-50
-44,-19,25,32,-34,3,17,-30,-68,-66,-58,-46
-51,-14,37,33,-44,11,15,-30,-57,-58,-51,-37
-21,22,43,-1,-32,32,14,-29,-48,-52,-46,-30
0,38,38,-19,-19,37,4,-30,-43,-43,-49,-20
-9,72,81,-32,-45,76,2,-30,-42,-42,-50,-17
2,112,110,-57,-54,110,-26,-28,-33,-50,-51,-22
-16,94,109,-39,-63,101,-56,-58,-51,-54,-55,-28
-5,98,103,-47,-54,100,-48,-87,-89,-68,-55,-34
3,73,70,-38,-34,71,-37,-72,-92,-73,-57,-39
-33,13,45,10,-39,29,-28,-74,-112,-91,-74,-44
-47,-25,21,36,-34,-2,-18,-67,-108,-93,-77,-46
-39,-36,3,37,-21,-16,-6,-60,-110,-104,-89,-60
-32,-42,-10,37,-11,-26,0,-64,-113,-106,-96,-67
-44,-74,-29,59,-7,-51,13,-41,-103,-113,-100,-74
-54,-73,-19,64,-18,-45,11,-57,-122,-124,-102,-76
-48,-89,-40,68,-4,-64,28,-16,-78,-109,-95,-73
-48,-69,-21,59,-13,-45,22,-53,-114,-139,-109,-78
-47,-101,-53,75,3,-77,71,45,-22,-91,-101,-90
-83,-131,-48,107,-17,-89,226,249,70,-184,-234,-215
28,10,-19,-19,23,-4,156,358,390,125,-43,-99
370,410,40,-391,165,225,-279,80,649,990,825,576
647,1004,357,-826,145,680,-920,-1041,99,1901,1878,1427
565,878,312,-721,126,595,-1079,-1594,-646,1675,1882,1545
96,309,213,-203,-58,261,-570,-1226,-1293,-89,454,598
-220,39,259,90,-239,149,-93,-782,-1167,-775,-412,-166
-233,-127,106,180,-169,-11,77,-434,-701,-512,-371,-241
-168,-131,37,150,-102,-46,80,-207,-424,-375,-275,-186
-71,-96,-25,84,-23,-60,79,13,-87,-142,-146,-123
-45,-96,-51,71,3,-74,81,86,-4,-118,-121,-106
-38,-93,-56,66,9,-74,78,121,55,-66,-89,-95
-26,-96,-71,61,23,-83,81,142,82,-64,-82,-83
-21,-95,-75,58,27,-85,79,142,98,-55,-80,-82
-24,-110,-87,67,32,-98,81,156,122,-38,-68,-74
-26,-105,-79,65,27,-92,79,160,127,-34,-69,-73
-19,-100,-81,59,32,-90,80,172,148,-10,-57,-66
-16,-94,-79,55,32,-86,80,179,157,-6,-53,-63
-7,-88,-81,48,37,-85,78,192,187,15,-41,-52
-5,-84,-79,44,37,-81,75,208,217,23,-34,-42
13,-71,-83,29,48,-77,72,233,254,44,-19,-30
39,-56,-95,9,67,-75,69,264,292,77,2,-19
49,-46,-95,-1,72,-70,66,301,350,110,23,-4
70,-34,-104,-18,87,-69,65,341,419,149,53,17
89,-26,-115,-31,103,-71,58,388,490,207,96,38
112,-15,-127,-49,120,-71,47,440,569,268,141,72
159,26,-133,-93,146,-53,38,471,622,321,184,101
184,45,-139,-114,161,-47,27,476,650,358,222,121
174,37,-137,-105,155,-49,21,475,642,363,241,143
163,42,-121,-102,142,-39,16,445,606,350,237,153
159,56,-103,-107,130,-24,11,388,546,317,233,157
127,55,-72,-91,99,-9,5,304,436,252,209,140
89,43,-46,-66,68,-2,1,207,307,162,147,103
67,35,-31,-51,49,2,5,138,196,69,83,65
50,26,-24,-38,37,1,10,89,110,-1,31,28
30,13,-18,-21,24,-2,14,51,39,-55,-6,3
8,-3,-11,-2,10,-6,18,15,-3,-99,-37,-17
-5,-9,-4,7,-1,-6,24,-1,-25,-125,-57,-33
-12,-13,-1,13,-6,-7,23,-3,-49,-137,-59,-45
-14,-19,-6,17,-4,-12,20,-7,-55,-144,-64,-54
-16,-25,-9,20,-3,-17,20,-10,-55,-151,-71,-56
-18,-30,-12,24,-3,-21,20,-15,-55,-155,-75,-59
-18,-35,-17,27,0,-26,20,-13,-55,-161,-75,-62
-15,-35,-20,25,3,-27,20,-8,-52,-168,-75,-65
-20,-36,-17,28,-1,-26,27,-5,-49,-171,-75,-64
-26,-40,-14,34,-6,-26,26,-2,-46,-170,-75,-60
-29,-41,-11,35,-9,-26,24,3,-43,-168,-75,-58
-27,-35,-8,31,-9,-21,25,5,-41,-165,-71,-55
-6,-11,-5,9,0,-8,25,0,-38,-165,-64,-52
3,0,-3,-1,3,-2,26,0,-36,-162,-58,-50
-6,-6,0,6,-3,-2,22,0,-32,-159,-51,-47
-10,-5,5,7,-7,0,20,0,-30,-160,-44,-45
-12,-5,7,8,-9,1,17,0,-26,-160,-41,-45
-17,-5,12,11,-14,3,14,-2,-25,-160,-45,-45
-20,-5,15,12,-17,5,11,-8,-28,-161,-48,-45
-16,-5,11,10,-13,3,10,-13,-32,-167,-51,-46
-25,-16,10,21,-18,-3,15,-16,-39,-175,-55,-50
-34,-24,10,29,-21,-7,15,-21,-51,-181,-54,-50
-34,-29,6,31,-20,-11,16,-25,-60,-196,-57,-50
-40,-35,5,37,-22,-15,20,-31,-66,-214,-68,-50
-41,-35,6,38,-23,-14,20,-37,-69,-221,-72,-50
-45,-35,10,40,-27,-12,18,-43,-70,-226,-75,-54
-41,-35,6,38,-23,-14,14,-45,-81,-238,-78,-55
-40,-35,5,37,-22,-15,15,-45,-86,-246,-81,-55
-40,-35,5,37,-22,-15,15,-45,-84,-245,-85,-60
-37,-37,0,37,-18,-19,15,-45,-85,-248,-85,-60
-41,-40,0,41,-21,-20,15,-44,-85,-255,-85,-61
-38,-40,-1,39,-18,-20,10,-41,-85,-265,-85,-65
-38,-44,-5,41,-16,-24,10,-40,-80,-271,-85,-65
-41,-46,-5,44,-17,-25,10,-40,-80,-269,-85,-65
-39,-44,-5,42,-17,-25,10,-40,-79,-279,-85,-65
-36,-41,-5,39,-15,-22,11,-40,-75,-287,-85,-65
-35,-40,-5,38,-15,-22,7,-40,-75,-288,-85,-61
-39,-40,-2,40,-18,-21,5,-40,-77,-293,-85,-60
-42,-40,3,41,-22,-18,5,-40,-82,-295,-85,-60
-46,-41,6,43,-26,-17,5,-40,-87,-291,-85,-60
-47,-37,9,42,-28,-14,5,-40,-90,-288,-85,-60
-49,-35,14,41,-31,-10,6,-40,-90,-283,-85,-61
-49,-35,14,42,-31,-10,9,-44,-90,-282,-85,-65
-44,-35,9,40,-26,-12,12,-45,-90,-272,-85,-65
-41,-35,6,37,-23,-15,15,-45,-90,-242,-81,-65
-38,-35,3,36,-20,-16,18,-45,-90,-198,-79,-65
-38,-40,-2,39,-18,-21,20,-45,-92,-158,-80,-65
-34,-39,-5,37,-15,-22,20,-43,-95,-137,-80,-65
-38,-43,-5,41,-16,-23,20,-39,-95,-118,-80,-65
-42,-47,-5,45,-18,-26,20,-40,-95,-98,-78,-65
-48,-52,-4,50,-22,-27,20,-40,-95,-87,-75,-65
-57,-55,3,56,-30,-26,20,-41,-95,-78,-75,-65
-57,-48,9,52,-33,-19,19,-39,-89,-63,-75,-64
-55,-39,16,47,-35,-11,16,-36,-83,-43,-75,-59
-52,-30,22,41,-37,-4,13,-31,-76,-29,-76,-56
-50,-21,29,35,-39,4,11,-29,-69,-20,-71,-53
-17,9,26,4,-22,17,7,-23,-62,8,-61,-49
-8,19,27,-5,-18,22,6,-21,-56,38,-50,-45
-8,52,60,-23,-34,56,0,-17,-37,73,-42,-41
20,110,90,-66,-35,100,-31,-10,-17,102,-46,-40
7,97,91,-52,-42,93,-56,-51,-60,81,-48,-40
0,83,83,-42,-42,83,-55,-95,-118,58,-55,-40
-8,60,68,-26,-38,64,-53,-84,-117,60,-60,-39
-29,14,43,8,-36,28,-40,-82,-122,48,-66,-42
-41,-21,20,31,-30,0,0,-80,-120,50,-80,-48
-39,-29,10,33,-24,-9,24,-67,-118,41,-93,-65
-50,-39,11,44,-30,-14,16,-77,-126,37,-100,-71
-77,-87,-9,82,-34,-48,28,-49,-108,40,-105,-69
-73,-74,0,74,-37,-37,20,-66,-127,20,-109,-71
-61,-87,-26,74,-17,-56,32,-27,-82,44,-104,-68
-53,-73,-20,63,-16,-46,30,-46,-125,1,-118,-73
-41,-92,-51,67,5,-71,60,31,-45,48,-98,-77
-107,-140,-33,124,-37,-86,218,242,47,-23,-212,-189
-68,-17,52,42,-60,17,191,330,288,155,-110,-139
301,344,44,-323,128,194,-204,142,630,971,668,455
647,948,301,-798,173,624,-851,-970,215,1982,1786,1348
676,910,234,-793,220,572,-1139,-1712,-499,2076,2064,1659
229,353,124,-291,52,238,-707,-1399,-1280,360,733,827
-240,45,284,97,-262,164,-150,-937,-1310,-639,-344,-72
-270,-135,135,202,-202,0,64,-519,-776,-404,-377,-250
-186,-130,57,158,-121,-36,80,-256,-483,-273,-281,-185
-105,-99,7,102,-55,-46,87,-4,-112,-40,-146,-117
-71,-107,-36,89,-17,-72,80,97,2,6,-104,-88
-74,-102,-29,89,-22,-66,78,118,50,50,-87,-86
-64,-107,-42,86,-11,-74,76,145,83,65,-76,-81
-50,-97,-47,74,-2,-72,73,141,89,59,-80,-80
-42,-102,-60,73,9,-80,71,159,115,86,-67,-75
-44,-96,-52,71,4,-74,67,157,109,80,-70,-75
-28,-89,-61,59,17,-75,65,173,143,97,-60,-69
-22,-81,-59,51,19,-70,61,190,160,92,-54,-62
-12,-73,-61,43,25,-67,60,204,191,115,-42,-56
0,-65,-66,33,33,-65,57,219,217,130,-31,-48
9,-59,-68,25,39,-63,54,241,249,154,-25,-43
22,-50,-72,14,47,-61,51,272,296,181,-6,-35
30,-45,-75,8,53,-60,48,315,349,209,25,-20
38,-36,-74,0,56,-55,46,365,422,253,50,3
51,-29,-79,-11,65,-54,44,417,498,300,75,20
66,-31,-97,-18,82,-63,35,466,575,358,120,46
102,-2,-105,-50,104,-53,26,512,647,417,171,82
127,26,-101,-76,114,-37,18,528,682,460,211,111
139,45,-94,-92,116,-24,8,523,686,473,239,142
146,62,-84,-104,115,-10,1,503,669,468,241,148
150,70,-80,-110,114,-5,0,448,610,452,241,138
136,76,-59,-105,97,8,-1,364,498,390,221,133
91,67,-24,-79,57,22,-4,266,365,299,163,106
77,64,-13,-70,45,25,-6,184,237,205,104,65
65,53,-12,-59,38,21,-4,118,138,127,59,25
28,21,-7,-24,17,7,2,67,69,75,16,-8
5,2,-4,-3,4,-1,8,42,16,29,-24,-26
-4,-4,0,4,-2,-1,12,23,-14,-9,-43,-35
-15,-11,3,13,-9,-4,19,6,-34,-34,-55,-41
-24,-19,5,21,-15,-6,24,-10,-46,-40,-66,-48
-32,-27,5,29,-18,-11,22,-16,-49,-43,-70,-50
-33,-28,5,30,-18,-11,19,-15,-52,-45,-70,-50
-30,-24,5,27,-17,-9,20,-15,-55,-49,-72,-50
-29,-25,4,27,-16,-11,20,-15,-53,-54,-75,-50
-25,-25,0,25,-12,-12,20,-15,-46,-50,-75,-50
-25,-25,0,25,-12,-12,19,-11,-42,-51,-71,-49
-23,-25,-2,24,-10,-13,15,-5,-36,-48,-64,-46
-14,-19,-6,17,-4,-12,15,0,-30,-45,-57,-43
-9,-14,-5,12,-2,-9,15,5,-25,-45,-51,-40
-7,-9,-2,8,-2,-5,15,12,-21,-42,-43,-38
-4,-3,1,4,-2,-1,15,14,-19,-39,-41,-34
0,3,4,-2,-2,3,11,9,-15,-36,-45,-38
-4,3,7,0,-6,5,10,3,-13,-33,-45,-41
-10,0,10,5,-10,5,10,0,-9,-30,-45,-39
-10,0,10,5,-10,5,10,-5,-13,-31,-45,-44
-15,-6,10,10,-12,2,11,-10,-22,-40,-45,-45
-23,-13,10,18,-16,-1,8,-13,-33,-49,-48,-45
-27,-18,10,22,-18,-3,5,-18,-42,-49,-52,-50
-36,-26,10,31,-23,-8,2,-21,-53,-53,-57,-50
-43,-33,10,38,-26,-11,0,-25,-62,-66,-60,-51
-37,-31,6,34,-22,-12,-3,-28,-68,-73,-63,-55
-34,-30,5,31,-20,-12,-6,-32,-71,-79,-65,-55
-35,-30,5,32,-20,-12,0,-35,-75,-86,-68,-55
-30,-30,0,30,-15,-15,1,-36,-80,-89,-70,-55
-30,-30,0,30,-15,-15,0,-39,-83,-92,-70,-55
-31,-32,-1,32,-15,-17,0,-40,-88,-94,-75,-55
-30,-36,-5,33,-12,-20,0,-43,-90,-98,-75,-55
-30,-35,-4,33,-12,-20,0,-46,-90,-100,-76,-55
-31,-39,-8,35,-12,-23,-4,-49,-93,-102,-80,-55
-30,-40,-10,35,-10,-25,-5,-52,-96,-105,-79,-55
-29,-39,-10,34,-10,-25,-5,-55,-94,-105,-83,-55
-29,-36,-6,33,-11,-21,-10,-54,-91,-105,-85,-55
-26,-31,-5,29,-11,-18,-10,-50,-90,-105,-85,-55
-24,-29,-5,27,-10,-16,-9,-51,-90,-106,-85,-57
-23,-24,0,24,-11,-12,-5,-47,-90,-109,-85,-62
-22,-22,0,22,-11,-11,-5,-45,-90,-112,-85,-65
-16,-18,-1,17,-8,-9,-5,-45,-92,-115,-85,-60
-22,-28,-6,25,-8,-17,-5,-49,-95,-118,-84,-60
-34,-46,-12,40,-11,-29,-5,-50,-95,-120,-86,-58
-30,-45,-15,38,-7,-30,-1,-50,-95,-120,-90,-55
-25,-45,-20,35,-2,-32,0,-55,-95,-120,-90,-54
-21,-45,-24,33,2,-35,0,-55,-95,-120,-92,-59
-16,-45,-29,31,7,-37,4,-55,-95,-120,-95,-70
-13,-43,-30,28,9,-36,6,-55,-95,-120,-95,-70
-9,-39,-30,24,10,-35,4,-55,-95,-120,-91,-70
-11,-41,-30,26,10,-35,0,-55,-95,-120,-90,-70
-9,-39,-30,24,10,-35,0,-55,-95,-120,-90,-70
-12,-41,-29,26,9,-35,0,-55,-92,-120,-85,-70
-17,-39,-22,28,3,-30,0,-51,-90,-118,-85,-65
-19,-35,-16,28,-1,-26,0,-45,-87,-114,-84,-61
-18,-27,-9,23,-4,-18,-3,-40,-84,-112,-78,-59
-22,-25,-3,24,-9,-14,-6,-34,-81,-109,-71,-55
-18,-12,6,15,-12,-3,-8,-29,-80,-106,-65,-51
-4,18,22,-7,-13,19,-12,-22,-73,-105,-58,-48
6,40,35,-23,-15,37,-15,-20,-61,-99,-50,-43
9,72,62,-41,-27,67,-16,-12,-54,-101,-54,-40
10,99,88,-55,-39,93,-51,-34,-44,-98,-54,-37
29,105,76,-68,-24,91,-71,-78,-74,-108,-58,-32
17,82,65,-49,-24,73,-60,-90,-116,-126,-60,-30
-4,37,41,-16,-23,38,-50,-80,-111,-125,-62,-40
-8,6,14,1,-11,10,-40,-85,-120,-150,-80,-54
-34,-24,10,29,-22,-7,-28,-76,-110,-149,-84,-59
-36,-35,1,36,-19,-16,-14,-76,-119,-160,-95,-65
-40,-53,-14,47,-13,-33,-8,-76,-113,-159,-96,-66
-56,-82,-27,69,-14,-54,2,-59,-114,-170,-106,-77
-43,-78,-35,61,-4,-56,-2,-69,-120,-173,-105,-73
-39,-89,-50,64,5,-70,14,-31,-88,-162,-108,-77
-35,-60,-25,48,-5,-42,5,-59,-124,-195,-114,-73
-55,-117,-63,86,5,-90,92,87,-2,-140,-117,-106
-131,-126,5,129,-68,-60,245,276,89,-187,-243,-227
25,41,16,-34,5,29,120,386,461,183,51,-24
444,495,51,-470,196,273,-369,-22,652,1095,992,715
703,1016,313,-860,195,665,-989,-1218,102,2039,2023,1558
536,735,199,-636,168,467,-1037,-1622,-673,1536,1773,1503
33,220,187,-127,-77,203,-480,-1222,-1358,-304,257,479
-279,-11,268,145,-273,128,-41,-791,-1123,-778,-425,-187
-240,-130,110,184,-174,-10,85,-431,-678,-523,-359,-235
-144,-95,49,120,-97,-23,88,-185,-379,-374,-262,-171
-96,-104,-8,100,-44,-56,91,43,-54,-158,-133,-109
-68,-103,-35,85,-16,-68,88,99,9,-153,-126,-93
-43,-97,-54,70,6,-75,85,121,73,-90,-96,-86
-38,-97,-59,68,11,-78,86,142,85,-94,-96,-84
-37,-89,-52,64,8,-70,82,159,110,-74,-88,-81
-32,-90,-58,61,13,-73,80,160,115,-60,-79,-76
-30,-83,-53,57,12,-68,80,169,126,-55,-76,-74
-24,-82,-57,53,17,-69,80,188,153,-33,-64,-67
-7,-74,-67,41,30,-70,80,189,165,-22,-61,-61
3,-71,-73,34,38,-72,80,211,194,5,-52,-54
10,-66,-76,29,43,-71,76,222,216,26,-40,-47
19,-61,-80,21,50,-71,71,246,257,46,-17,-41
22,-58,-80,18,51,-68,69,279,301,77,3,-33
33,-51,-84,9,59,-67,64,314,354,119,25,-11
46,-44,-91,-1,69,-67,61,362,425,165,55,15
64,-38,-101,-13,83,-69,57,406,497,226,91,34
85,-31,-116,-26,100,-74,48,448,561,288,139,62
117,1,-116,-58,117,-57,40,471,623,356,192,98
153,44,-109,-99,131,-32,31,465,652,389,231,132
143,35,-108,-89,126,-36,25,456,643,388,237,151
140,42,-98,-90,119,-28,22,433,612,394,223,160
151,80,-71,-115,111,4,18,369,542,363,214,159
115,79,-36,-96,75,21,15,292,430,292,194,134
81,72,-9,-76,45,31,10,220,301,198,142,95
51,49,-2,-49,26,23,12,143,196,112,83,57
20,22,2,-21,8,12,23,85,114,42,28,25
7,13,7,-10,0,10,30,45,44,-16,-11,-2
-11,0,11,6,-11,5,32,16,-2,-45,-30,-20
-25,-10,15,17,-20,2,36,2,-27,-73,-61,-30
-30,-20,10,25,-20,-5,39,-1,-44,-87,-77,-43
-33,-28,5,30,-19,-11,40,0,-52,-88,-75,-47
-37,-37,0,37,-19,-18,40,0,-50,-94,-80,-44
-34,-38,-3,36,-15,-20,40,0,-50,-95,-80,-45
-22,-32,-9,27,-6,-20,40,1,-47,-94,-77,-45
-20,-30,-10,25,-5,-20,40,5,-45,-90,-72,-45
-14,-25,-11,20,-1,-18,40,5,-45,-90,-69,-44
2,-22,-24,10,13,-22,35,5,-39,-88,-66,-41
4,-18,-22,7,14,-20,35,5,-34,-84,-61,-38
1,-14,-15,7,8,-14,35,4,-29,-86,-59,-36
2,-8,-11,3,7,-9,35,9,-23,-78,-53,-32
0,-5,-4,3,2,-4,35,10,-17,-63,-46,-30
0,0,-1,0,1,-1,33,10,-17,-52,-40,-28
2,6,4,-5,-1,5,29,14,-21,-49,-32,-25
-18,-12,6,15,-13,-3,27,15,-20,-51,-26,-25
-32,-22,10,27,-21,-6,24,14,-24,-50,-28,-25
-30,-14,15,22,-22,0,21,9,-26,-50,-31,-25
-25,-13,12,19,-18,-1,19,3,-24,-49,-29,-25
-19,-8,10,14,-14,1,16,0,-33,-54,-32,-32
-13,-4,9,9,-11,2,15,-5,-40,-61,-44,-43
-24,-12,11,18,-17,-1,15,-9,-49,-64,-56,-45
-39,-30,8,35,-23,-11,15,-15,-62,-82,-61,-45
-48,-36,13,42,-30,-11,16,-24,-69,-96,-64,-45
-58,-34,24,46,-41,-5,12,-33,-75,-99,-69,-45
-44,-38,6,41,-25,-16,10,-38,-79,-105,-72,-45
-36,-40,-3,38,-17,-21,10,-35,-82,-105,-77,-52
-44,-41,3,42,-23,-19,10,-35,-85,-105,-80,-60
-40,-36,4,37,-22,-15,10,-35,-88,-105,-80,-60
-34,-30,3,32,-18,-13,10,-35,-90,-104,-80,-64
-24,-25,-1,24,-11,-12,15,-35,-92,-108,-80,-65
-16,-20,-3,18,-6,-11,15,-38,-95,-115,-80,-65
-8,-13,-6,11,-1,-9,16,-41,-95,-115,-77,-65
-6,-11,-5,9,-1,-7,20,-40,-95,-115,-74,-65
-31,-36,-5,34,-13,-20,21,-40,-95,-115,-71,-65
-41,-46,-5,44,-17,-26,17,-40,-95,-115,-68,-65
-36,-40,-5,39,-16,-22,15,-40,-95,-115,-65,-65
-27,-33,-6,31,-10,-19,15,-40,-95,-110,-66,-65
-31,-33,-2,32,-14,-17,12,-40,-95,-110,-80,-65
-59,-59,0,59,-30,-29,9,-40,-95,-109,-86,-65
-54,-54,0,54,-26,-27,11,-40,-95,-105,-84,-65
-37,-37,0,37,-18,-18,26,-40,-92,-105,-88,-65
-40,-40,-1,40,-20,-21,31,-43,-89,-107,-90,-62
-40,-40,1,40,-21,-19,29,-46,-90,-112,-90,-59
-32,-39,-7,36,-12,-23,30,-45,-86,-115,-87,-60
-42,-48,-7,45,-18,-27,30,-45,-85,-108,-83,-60
-42,-36,5,39,-23,-15,29,-45,-85,-100,-81,-60
-33,-16,17,25,-25,0,27,-44,-78,-92,-77,-60
-43,-12,31,28,-37,9,23,-39,-67,-85,-75,-56
-39,-3,35,20,-37,16,22,-36,-62,-76,-62,-52
-16,49,65,-17,-41,57,13,-34,-67,-64,-51,-49
2,98,96,-50,-47,97,-14,-28,-72,-58,-40,-50
-5,85,89,-40,-47,87,-49,-56,-75,-67,-37,-49
-3,78,80,-38,-42,79,-64,-88,-101,-99,-63,-51
0,68,68,-35,-34,68,-56,-82,-116,-106,-70,-49
-27,28,55,-1,-42,41,-43,-78,-115,-111,-77,-51
-46,-3,42,24,-44,19,-12,-79,-118,-117,-89,-54
-53,-33,20,43,-36,-6,22,-66,-110,-116,-92,-57
-63,-46,17,54,-40,-14,17,-76,-118,-130,-101,-69
-62,-65,-3,63,-29,-34,24,-56,-100,-127,-98,-72
-62,-61,1,62,-31,-30,25,-67,-122,-152,-111,-79
-54,-74,-20,64,-17,-47,24,-49,-91,-128,-97,-76
-63,-84,-21,73,-21,-52,28,-53,-119,-161,-114,-87
-51,-82,-31,66,-9,-56,35,-32,-78,-133,-97,-88
-92,-154,-62,123,-14,-108,181,183,47,-164,-180,-173
-86,-77,10,81,-48,-34,225,315,227,-79,-185,-209
227,221,-6,-224,116,107,-59,301,656,634,452,271
543,844,301,-694,120,572,-668,-520,375,1556,1500,1135
619,1055,436,-837,92,745,-1078,-1431,-378,1883,2028,1613
280,483,202,-382,38,342,-737,-1295,-1081,494,955,954
-168,106,274,31,-221,190,-218,-881,-1285,-759,-297,-19
-249,-59,190,154,-219,65,36,-526,-833,-610,-405,-272
-193,-132,61,162,-127,-35,95,-275,-536,-452,-316,-227
-111,-85,27,98,-69,-29,78,-63,-201,-229,-191,-159
-59,-92,-33,75,-13,-62,84,72,-9,-117,-124,-112
-42,-95,-54,69,6,-74,76,92,27,-97,-121,-107
-29,-101,-72,65,22,-86,75,120,77,-50,-89,-96
-27,-94,-67,61,20,-80,75,119,84,-54,-97,-98
-15,-92,-76,54,31,-84,75,134,119,-19,-77,-88
-11,-88,-77,50,33,-82,76,146,124,-21,-76,-83
-3,-83,-80,43,39,-81,74,153,140,-1,-61,-73
-1,-82,-80,41,39,-81,76,157,148,4,-53,-66
3,-77,-80,37,41,-78,74,170,174,14,-41,-59
6,-75,-80,34,43,-77,71,188,199,30,-28,-50
10,-70,-80,30,45,-75,64,205,223,46,-17,-42
11,-68,-79,28,46,-73,61,227,262,74,3,-33
26,-60,-86,17,56,-73,56,261,310,111,20,-23
48,-56,-103,4,76,-79,52,302,373,155,48,-2
65,-44,-108,-10,87,-76,48,346,443,213,84,24
92,-26,-118,-32,105,-72,38,392,519,279,136,50
104,-19,-123,-42,114,-70,29,424,579,338,188,86
119,5,-114,-62,116,-54,20,436,612,381,228,118
138,32,-106,-85,122,-37,11,438,623,406,262,143
140,43,-97,-91,118,-27,14,424,610,401,270,159
137,45,-92,-91,114,-23,15,375,556,369,252,151
106,40,-66,-73,86,-13,15,305,463,321,217,137
66,35,-31,-50,48,2,15,225,341,247,168,116
49,32,-17,-41,33,8,14,151,223,159,112,75
27,24,-3,-25,15,10,18,100,128,83,55,35
-9,-1,8,5,-8,3,20,60,64,24,10,-2
-29,-19,10,24,-19,-4,22,25,26,-28,-27,-27
-37,-26,10,31,-23,-8,25,8,-9,-53,-51,-40
-49,-39,10,44,-29,-14,26,3,-30,-55,-59,-49
-53,-42,11,47,-32,-16,29,-5,-40,-70,-61,-50
-48,-39,9,43,-28,-15,32,-11,-46,-81,-59,-50
-48,-34,14,41,-30,-10,35,-18,-49,-79,-65,-54
-58,-32,26,45,-42,-3,37,-18,-47,-83,-71,-56
-54,-27,27,40,-40,0,41,-11,-41,-85,-70,-54
-47,-24,23,35,-34,-1,38,-4,-37,-85,-70,-50
-61,-41,21,51,-41,-10,34,2,-33,-81,-70,-50
-56,-39,17,48,-36,-11,36,9,-28,-75,-71,-50
-43,-28,16,35,-29,-6,31,14,-24,-70,-68,-50
-37,-25,12,30,-24,-6,30,10,-20,-64,-61,-50
-28,-18,10,23,-19,-4,30,10,-16,-59,-56,-46
-23,-13,9,18,-16,-2,25,10,-13,-54,-50,-41
-17,-7,11,12,-14,2,25,10,-8,-50,-45,-36
-16,-7,9,12,-12,1,25,10,-5,-48,-40,-33
-25,-13,13,19,-19,0,25,8,-9,-45,-40,-27
-46,-17,29,31,-37,6,26,3,-16,-41,-40,-26
-47,-20,27,33,-37,3,22,0,-20,-40,-40,-30
-41,-20,21,30,-31,0,20,-3,-26,-44,-40,-30
-38,-20,18,29,-28,0,20,-8,-32,-51,-42,-33
-32,-20,12,26,-22,-4,16,-10,-35,-55,-49,-39
-29,-20,9,24,-19,-5,15,-16,-51,-55,-55,-42
-23,-20,4,21,-14,-8,15,-23,-61,-61,-60,-47
-21,-22,-2,22,-9,-12,10,-25,-60,-68,-65,-50
-20,-25,-5,23,-7,-15,10,-28,-65,-77,-68,-50
-18,-28,-10,23,-4,-19,9,-31,-65,-80,-73,-50
-16,-30,-15,24,-1,-22,5,-34,-68,-80,-75,-50
-18,-30,-12,24,-3,-21,6,-35,-76,-84,-75,-50
-23,-30,-7,27,-8,-18,2,-35,-80,-85,-78,-54
-25,-30,-4,28,-11,-17,0,-35,-80,-84,-81,-55
-29,-30,-1,30,-14,-15,0,-34,-82,-80,-79,-55
-34,-30,4,32,-19,-13,0,-38,-85,-80,-76,-55
-32,-28,4,30,-18,-12,0,-41,-85,-78,-75,-55
-23,-23,0,23,-11,-11,1,-40,-85,-75,-75,-55
-19,-22,-2,21,-9,-12,4,-44,-85,-74,-75,-55
-11,-16,-5,14,-3,-11,7,-45,-85,-81,-76,-55
-8,-16,-9,12,1,-12,9,-45,-85,-91,-72,-55
-23,-33,-10,28,-6,-21,13,-50,-85,-90,-70,-55
-23,-36,-14,30,-4,-25,15,-50,-86,-90,-70,-55
-19,-34,-15,27,-1,-25,18,-50,-90,-90,-70,-59
-21,-36,-15,29,-2,-25,20,-50,-90,-90,-70,-60
-19,-34,-15,27,-2,-25,20,-50,-92,-90,-70,-60
-20,-36,-15,29,-2,-26,20,-50,-95,-90,-75,-60
-26,-39,-14,33,-6,-26,20,-50,-95,-89,-80,-60
-31,-41,-10,36,-10,-25,20,-50,-95,-92,-83,-59
-29,-39,-10,34,-10,-25,15,-50,-95,-99,-88,-55
-32,-41,-8,37,-12,-24,15,-50,-95,-102,-90,-55
-35,-39,-4,38,-16,-21,14,-49,-95,-105,-90,-55
-37,-43,-6,40,-15,-24,10,-46,-95,-107,-90,-55
-38,-45,-7,42,-15,-26,10,-43,-94,-111,-90,-55
-35,-39,-3,37,-16,-21,10,-41,-88,-107,-89,-51
-38,-33,5,35,-21,-14,10,-37,-82,-99,-85,-50
-36,-25,11,30,-23,-7,10,-36,-78,-93,-80,-50
-38,-21,17,29,-27,-2,10,-32,-70,-86,-76,-46
-33,-7,26,20,-29,9,10,-30,-67,-79,-72,-46
-8,9,18,-1,-13,14,11,-29,-60,-69,-66,-44
-3,38,42,-18,-23,40,-2,-31,-57,-62,-67,-39
15,101,86,-59,-36,93,-21,-27,-52,-56,-70,-36
28,123,95,-76,-34,109,-47,-40,-54,-49,-70,-32
-6,90,95,-42,-51,92,-74,-94,-111,-79,-76,-30
-10,57,67,-24,-39,62,-68,-100,-133,-100,-74,-23
-11,25,37,-7,-24,31,-57,-89,-128,-108,-80,-30
-36,-13,23,24,-29,5,-32,-92,-133,-111,-83,-46
-53,-47,6,50,-29,-20,5,-74,-125,-114,-87,-62
-53,-63,-9,58,-22,-36,3,-85,-139,-124,-100,-75
-36,-78,-42,57,3,-60,14,-59,-116,-114,-105,-74
-36,-70,-34,53,0,-52,10,-74,-133,-141,-116,-77
-39,-90,-51,65,6,-70,20,-44,-93,-119,-102,-78
-48,-91,-43,70,-3,-67,20,-58,-118,-154,-119,-83
-45,-105,-60,75,8,-82,31,-7,-68,-113,-109,-83
-98,-155,-57,127,-20,-106,185,197,29,-167,-206,-182
-74,-52,22,62,-48,-15,202,281,217,-71,-181,-182
258,260,2,-259,128,131,-138,201,596,675,501,323
609,879,270,-744,170,574,-776,-780,260,1664,1600,1206
674,991,316,-833,179,653,-1154,-1647,-436,1983,2077,1670
280,427,147,-354,67,287,-802,-1424,-1194,463,935,971
-175,63,238,55,-206,150,-225,-972,-1351,-756,-288,4
-246,-119,126,182,-186,4,41,-553,-827,-577,-411,-239
-171,-141,31,156,-101,-55,69,-275,-514,-414,-298,-183
-86,-99,-13,93,-36,-56,77,-30,-149,-182,-168,-128
-54,-109,-55,82,1,-82,75,91,-6,-111,-125,-96
-43,-103,-60,73,9,-81,74,105,27,-90,-112,-95
-32,-108,-76,70,22,-91,76,134,78,-56,-90,-86
-30,-103,-72,67,22,-87,74,137,84,-61,-94,-85
-12,-102,-90,57,39,-95,76,157,116,-30,-76,-78
-17,-99,-83,59,33,-90,74,159,119,-33,-80,-75
-13,-99,-86,57,37,-92,76,173,151,-10,-70,-68
-9,-94,-85,52,38,-89,75,190,160,-4,-69,-60
-3,-88,-85,46,41,-86,76,198,182,13,-62,-52
0,-85,-85,43,43,-85,72,217,211,25,-42,-44
6,-79,-85,37,45,-82,69,242,248,53,-24,-36
8,-76,-84,35,47,-80,70,265,289,81,-8,-22
20,-69,-88,25,54,-78,70,299,341,113,12,-8
43,-57,-100,7,71,-78,70,347,412,166,37,4
58,-45,-103,-6,81,-74,70,402,489,218,73,21
80,-32,-111,-24,96,-71,64,448,562,278,117,49
98,-15,-113,-41,106,-64,55,486,628,328,162,80
124,18,-106,-71,115,-43,46,501,666,366,208,112
140,38,-101,-89,120,-31,34,485,671,388,238,132
147,52,-95,-99,121,-21,23,468,657,392,238,147
150,67,-84,-108,117,-8,19,433,600,381,228,143
145,82,-63,-114,104,10,20,356,501,335,211,128
110,79,-31,-94,70,24,20,268,374,245,163,114
61,48,-14,-54,37,17,20,191,250,148,112,81
48,37,-11,-43,29,13,20,123,151,77,63,45
33,28,-5,-30,19,11,22,76,81,23,18,14
15,13,-2,-14,8,5,27,39,32,-19,-7,-7
-7,-3,4,5,-6,0,30,14,-7,-47,-31,-22
-21,-13,7,17,-14,-3,35,9,-27,-62,-46,-35
-23,-9,14,16,-19,2,35,10,-41,-64,-44,-41
-27,-7,20,17,-23,6,36,10,-46,-66,-49,-44
-19,-4,15,11,-17,6,40,10,-45,-64,-50,-40
-16,-1,15,8,-16,7,40,10,-45,-67,-51,-40
-14,0,14,7,-14,6,38,10,-45,-80,-65,-40
-14,-4,10,9,-12,2,35,10,-45,-80,-65,-40
-18,-8,10,13,-14,1,35,10,-44,-76,-61,-41
-19,-10,8,14,-13,-1,35,10,-35,-74,-59,-36
-19,-15,4,16,-11,-5,35,9,-25,-70,-55,-35
-19,-13,6,15,-12,-3,35,12,-15,-69,-54,-35
-12,-8,4,10,-8,-2,30,17,-6,-61,-49,-30
-11,-5,7,8,-8,1,30,22,-4,-53,-43,-30
-29,-2,27,15,-28,12,30,24,-1,-45,-40,-30
-29,3,31,13,-30,17,30,21,2,-37,-35,-30
-24,5,29,9,-27,17,31,18,5,-38,-30,-30
-31,-1,31,16,-31,15,27,16,4,-44,-33,-30
-24,6,30,9,-27,18,24,12,-5,-48,-36,-30
-19,11,30,4,-25,20,25,10,-15,-51,-35,-30
-24,2,25,10,-25,13,21,8,-25,-58,-35,-34
-26,-4,21,15,-23,8,20,-3,-34,-64,-35,-35
-29,-11,18,20,-23,4,20,-11,-41,-69,-36,-35
-33,-18,15,25,-24,-2,15,-20,-50,-76,-45,-40
-27,-17,9,22,-18,-4,15,-29,-59,-80,-51,-40
-32,-15,17,23,-24,1,15,-26,-61,-83,-55,-41
-41,-15,27,28,-34,6,15,-25,-65,-87,-60,-45
-31,-12,19,21,-25,4,15,-25,-68,-90,-57,-45
-24,-9,15,16,-20,3,15,-25,-72,-86,-54,-45
-24,-11,12,17,-18,0,15,-25,-75,-85,-51,-45
-28,-24,4,25,-15,-10,15,-27,-75,-84,-49,-45
-39,-24,15,31,-27,-5,15,-32,-75,-81,-44,-45
-43,-16,27,29,-35,5,15,-35,-75,-79,-48,-45
-39,-14,25,26,-31,5,15,-40,-75,-82,-56,-45
-32,-8,24,20,-28,7,10,-40,-75,-87,-54,-45
-25,-5,20,15,-22,7,10,-40,-75,-85,-56,-45
-33,-12,20,23,-26,4,9,-40,-75,-84,-53,-46
-38,-20,18,29,-28,-1,5,-40,-75,-85,-61,-50
-33,-20,13,26,-23,-3,5,-40,-75,-85,-79,-49
-30,-20,10,25,-20,-5,5,-40,-76,-85,-80,-52
-27,-20,7,23,-17,-6,5,-40,-80,-89,-80,-56
-22,-20,2,21,-12,-9,5,-40,-80,-90,-80,-54
-21,-20,0,21,-10,-10,5,-40,-82,-90,-80,-59
-29,-25,5,26,-16,-10,5,-39,-86,-94,-79,-60
-28,-23,5,25,-17,-9,5,-35,-85,-96,-75,-60
-23,-19,5,21,-14,-6,5,-35,-82,-93,-75,-64
-27,-21,5,23,-16,-7,5,-35,-79,-90,-75,-66
-23,-19,4,20,-14,-7,5,-35,-76,-90,-75,-64
-29,-21,8,25,-18,-7,5,-35,-73,-88,-75,-60
-28,-18,10,23,-19,-4,5,-37,-70,-85,-71,-60
-28,-18,10,23,-19,-4,5,-41,-70,-85,-70,-58
-55,-42,13,48,-34,-14,5,-40,-70,-91,-70,-54
-62,-46,16,54,-38,-16,5,-40,-70,-96,-70,-55
-58,-44,14,51,-36,-15,5,-40,-70,-95,-70,-55
-56,-46,11,51,-33,-17,5,-40,-70,-95,-70,-55
-49,-45,5,47,-26,-20,5,-44,-70,-95,-70,-55
-45,-44,1,44,-22,-21,0,-45,-74,-94,-70,-55
-36,-40,-4,38,-16,-21,0,-45,-75,-90,-70,-55
-29,-38,-9,33,-10,-23,0,-45,-75,-90,-70,-54
-26,-34,-8,31,-9,-21,0,-45,-80,-89,-70,-50
-29,-32,-3,31,-13,-17,0,-42,-80,-84,-66,-50
-29,-29,0,29,-15,-14,2,-40,-79,-86,-65,-50
-38,-35,3,36,-20,-16,8,-37,-73,-83,-65,-50
-45,-37,8,40,-26,-14,11,-34,-65,-76,-60,-50
-33,-24,9,28,-21,-7,15,-31,-60,-72,-61,-46
-39,-17,22,28,-31,3,8,-29,-51,-66,-59,-40
-41,-3,38,21,-39,17,-1,-30,-47,-61,-56,-35
-29,1,30,14,-29,15,-10,-28,-39,-54,-55,-28
-13,40,53,-14,-33,47,-19,-31,-38,-47,-59,-25
14,103,89,-59,-38,96,-35,-27,-30,-31,-60,-25
20,102,82,-61,-31,92,-68,-44,-38,-33,-59,-25
11,98,88,-55,-39,93,-78,-95,-102,-78,-61,-26
-5,76,80,-36,-43,78,-72,-94,-112,-85,-58,-23
-14,25,38,-6,-26,31,-68,-88,-109,-86,-64,-37
-38,-23,15,30,-26,-4,-36,-90,-111,-85,-62,-46
-52,-53,-1,52,-26,-26,-3,-76,-100,-96,-77,-55
-43,-48,-5,45,-19,-26,-8,-89,-113,-114,-92,-64
-54,-81,-28,68,-13,-54,-1,-62,-92,-113,-89,-65
-58,-78,-20,68,-19,-49,-4,-79,-113,-137,-100,-70
-33,-85,-51,59,9,-68,3,-44,-75,-109,-91,-69
-44,-78,-34,61,-5,-56,-1,-65,-111,-151,-110,-81
-50,-108,-57,79,4,-83,37,10,-45,-103,-93,-83
-103,-162,-59,133,-22,-110,188,225,43,-169,-204,-183
-70,-34,36,52,-53,1,177,306,258,-21,-132,-154
311,310,-1,-311,156,154,-195,150,615,767,612,407
670,911,241,-791,214,576,-848,-930,248,1795,1730,1303
731,921,190,-827,271,555,-1172,-1730,-441,2035,2098,1674
293,360,67,-326,112,213,-754,-1459,-1234,361,821,889
-217,43,260,86,-238,151,-170,-1000,-1337,-770,-324,-43
-237,-127,110,182,-173,-9,54,-567,-801,-541,-385,-244
-163,-133,30,147,-96,-51,76,-290,-493,-391,-283,-174
-96,-102,-5,99,-45,-53,89,-28,-126,-158,-155,-111
-46,-104,-58,75,6,-80,84,79,-9,-109,-126,-82
-33,-97,-64,66,15,-80,90,95,30,-85,-115,-81
-15,-104,-89,59,37,-96,91,133,77,-56,-95,-79
-20,-94,-74,57,27,-84,88,128,82,-53,-92,-81
-14,-96,-82,55,34,-88,85,142,108,-29,-74,-79
-18,-90,-72,55,27,-81,85,149,110,-36,-76,-80
-13,-88,-76,51,32,-82,83,166,147,-15,-63,-74
-16,-94,-79,55,32,-86,79,175,157,-14,-60,-68
-17,-97,-80,57,32,-88,80,185,180,7,-53,-63
-6,-86,-81,46,38,-83,76,205,213,29,-46,-57
1,-78,-79,39,40,-79,74,234,244,51,-32,-48
13,-68,-80,27,47,-74,71,266,284,73,-17,-37
28,-53,-81,13,54,-67,68,301,340,107,-4,-28
49,-41,-90,-4,70,-65,66,355,411,159,21,-13
72,-25,-97,-23,85,-61,64,414,485,212,58,9
91,-13,-104,-39,98,-58,56,455,555,265,103,36
118,4,-114,-61,116,-55,45,495,622,313,153,70
130,20,-110,-75,120,-45,38,509,662,352,191,104
147,44,-102,-95,124,-29,27,493,669,371,219,130
150,56,-93,-103,121,-18,21,479,653,363,222,137
133,54,-79,-94,106,-12,19,436,606,353,214,129
123,68,-55,-95,89,6,16,354,509,311,207,128
90,67,-23,-78,57,21,13,262,371,235,163,117
74,60,-14,-66,44,23,10,176,252,164,110,82
45,32,-13,-38,29,9,11,105,149,89,65,40
1,-8,-9,3,5,-8,15,58,66,24,18,4
-13,-20,-7,17,-3,-13,17,27,25,-21,-12,-14
-29,-33,-4,31,-12,-18,20,0,-12,-47,-33,-26
-31,-40,-9,36,-11,-24,23,-21,-36,-58,-50,-38
-29,-40,-10,34,-10,-25,25,-28,-46,-65,-56,-45
-31,-40,-10,36,-11,-25,28,-25,-51,-69,-59,-45
-29,-40,-10,34,-9,-25,32,-25,-50,-68,-64,-45
-31,-41,-9,36,-11,-25,35,-25,-50,-64,-64,-45
-26,-37,-12,32,-7,-24,39,-25,-45,-65,-60,-45
-20,-35,-15,28,-2,-25,39,-25,-42,-65,-60,-45
-20,-35,-15,28,-2,-25,34,-21,-39,-65,-60,-40
-20,-35,-15,28,-2,-25,31,-14,-34,-65,-60,-40
-20,-35,-15,28,-2,-25,27,-7,-31,-60,-60,-40
-19,-34,-15,27,-2,-25,24,-1,-27,-55,-56,-40
-19,-31,-11,25,-4,-21,19,6,-25,-51,-50,-41
-17,-26,-10,21,-3,-18,25,9,-25,-46,-44,-37
-14,-23,-10,19,-2,-16,34,5,-25,-42,-39,-35
-15,-20,-5,18,-5,-12,35,5,-25,-37,-34,-35
-10,-15,-5,13,-2,-10,35,5,-25,-35,-30,-31
-14,-17,-4,16,-5,-11,35,5,-30,-35,-30,-29
-24,-20,4,22,-14,-8,35,5,-30,-32,-30,-31
-33,-20,13,26,-22,-3,35,2,-32,-29,-30,-34
-31,-20,12,25,-22,-4,31,-1,-43,-31,-30,-35
-30,-21,10,25,-20,-5,30,-4,-53,-45,-34,-35
-34,-24,10,29,-22,-7,30,-7,-62,-55,-35,-37
-31,-26,5,28,-18,-10,30,-10,-68,-59,-36,-40
-27,-22,5,24,-16,-9,30,-11,-71,-60,-43,-43
-24,-18,6,21,-15,-5,30,-16,-76,-64,-49,-46
-22,-12,10,17,-16,-1,30,-21,-79,-71,-54,-49
-22,-9,13,15,-17,2,30,-24,-80,-70,-58,-51
-21,-4,17,12,-18,6,30,-25,-80,-70,-63,-54
-19,1,20,9,-20,11,30,-25,-80,-70,-64,-55
-36,-20,16,28,-26,-2,30,-25,-79,-69,-60,-55
-51,-42,9,46,-30,-16,26,-25,-83,-73,-60,-55
-41,-38,2,39,-22,-18,25,-25,-85,-82,-60,-55
-31,-35,-4,33,-13,-19,25,-26,-85,-81,-60,-55
-21,-32,-11,27,-5,-22,25,-30,-85,-80,-60,-55
-13,-27,-14,20,1,-20,25,-30,-85,-79,-57,-55
-17,-26,-9,21,-3,-17,26,-30,-85,-75,-54,-55
-38,-43,-6,41,-16,-24,30,-30,-80,-75,-56,-55
-52,-55,-3,54,-24,-29,30,-30,-80,-77,-53,-55
-56,-54,2,55,-28,-26,30,-30,-79,-88,-60,-60
-61,-56,5,58,-33,-25,30,-30,-75,-97,-75,-60
-55,-54,1,55,-27,-27,30,-30,-75,-96,-75,-60
-45,-56,-10,51,-17,-33,30,-30,-78,-92,-76,-60
-35,-54,-18,45,-8,-36,30,-30,-80,-88,-80,-60
-35,-48,-12,42,-11,-30,30,-29,-81,-85,-80,-62
-33,-41,-8,37,-12,-24,30,-25,-85,-79,-80,-65
-32,-34,-2,33,-15,-18,30,-25,-85,-84,-80,-68
-31,-28,3,29,-17,-12,29,-25,-80,-96,-80,-71
-28,-19,9,23,-19,-5,25,-25,-80,-92,-80,-74
-51,-33,18,42,-35,-8,25,-25,-80,-89,-80,-75
-44,-52,-7,48,-18,-29,23,-25,-80,-90,-79,-70
-24,-42,-17,33,-3,-29,19,-26,-80,-90,-76,-66
-32,-37,-5,35,-13,-21,20,-27,-78,-90,-73,-64
-31,-34,-3,32,-14,-18,16,-24,-72,-89,-70,-59
-31,-24,8,27,-19,-8,14,-21,-68,-86,-68,-56
-36,-26,10,31,-23,-8,16,-18,-64,-81,-66,-52
-24,-1,24,12,-24,11,15,-15,-58,-77,-63,-45
-19,22,42,-2,-30,32,16,-13,-55,-71,-49,-37
-1,55,57,-28,-29,56,13,-10,-35,-71,-38,-32
26,122,96,-74,-36,109,-9,-8,-21,-79,-39,-34
12,122,111,-67,-50,116,-38,-28,-46,-79,-40,-37
2,105,103,-54,-51,104,-50,-75,-85,-88,-39,-41
10,89,79,-50,-35,84,-50,-87,-90,-85,-45,-44
5,50,45,-27,-21,47,-48,-79,-98,-105,-64,-48
-16,19,34,-2,-25,26,-16,-82,-109,-122,-67,-57
-30,-15,15,22,-22,0,17,-68,-99,-117,-77,-65
-22,-15,8,18,-15,-3,12,-78,-114,-124,-87,-65
-17,-37,-20,27,2,-28,18,-58,-93,-116,-85,-69
-51,-60,-9,56,-21,-34,18,-72,-119,-148,-113,-80
-48,-68,-20,59,-14,-44,21,-50,-84,-113,-96,-70
-39,-74,-35,57,-2,-54,19,-51,-96,-141,-112,-81
-47,-85,-39,66,-4,-62,35,-26,-60,-101,-88,-72
-78,-150,-72,114,-3,-111,168,182,61,-128,-168,-161
-55,-71,-15,63,-20,-43,191,290,249,-59,-174,-204
247,213,-35,-230,141,89,-60,314,698,660,473,277
549,851,302,-700,123,576,-664,-482,396,1544,1493,1121
591,1057,466,-824,62,761,-1045,-1363,-369,1817,1976,1565
254,462,209,-358,23,335,-673,-1196,-1033,423,873,874
-155,127,282,14,-219,205,-199,-836,-1237,-784,-337,-61
-235,-29,206,132,-221,88,42,-504,-796,-605,-404,-276
-185,-122,63,153,-123,-29,104,-262,-507,-457,-330,-233
-106,-92,15,99,-61,-38,78,-79,-193,-239,-204,-162
-64,-106,-42,85,-11,-74,82,64,-6,-133,-126,-117
-39,-88,-49,64,5,-68,70,85,41,-111,-122,-103
-21,-92,-71,57,25,-81,69,105,98,-55,-92,-83
-14,-83,-69,49,28,-76,64,110,97,-55,-96,-79
2,-80,-82,39,42,-81,58,127,126,-29,-72,-72
1,-81,-82,40,41,-81,56,137,128,-37,-72,-73
6,-79,-85,37,45,-81,59,138,141,-21,-60,-67
7,-79,-86,37,47,-82,61,144,155,-9,-53,-66
12,-71,-84,30,48,-77,59,151,176,10,-47,-64
18,-68,-86,26,52,-77,60,162,196,23,-32,-55
21,-63,-84,22,53,-74,60,194,229,49,-17,-47
28,-59,-87,16,57,-72,57,215,265,75,-4,-38
44,-55,-99,5,72,-77,49,244,304,102,20,-24
59,-46,-105,-6,82,-75,43,280,363,146,41,-1
73,-34,-107,-19,90,-70,35,306,428,200,69,22
100,-20,-120,-40,110,-69,28,343,488,262,118,44
121,7,-115,-64,118,-54,21,382,548,321,166,78
131,23,-107,-77,119,-42,14,401,580,363,205,117
133,32,-101,-82,117,-34,9,387,570,378,228,133
137,43,-94,-90,115,-25,4,375,554,371,227,126
140,51,-88,-95,114,-18,-2,344,520,348,214,118
125,69,-56,-97,90,7,-8,277,440,299,198,114
99,72,-27,-85,63,22,-8,207,330,217,152,97
75,59,-16,-66,45,21,-2,139,226,132,96,68
58,51,-7,-54,32,22,2,90,134,66,46,29
34,32,-1,-33,17,16,6,52,65,15,1,-3
-3,3,6,0,-5,4,11,22,21,-20,-22,-19
-26,-13,13,19,-19,0,16,5,-14,-49,-46,-35
-35,-23,12,28,-23,-5,20,-12,-36,-77,-63,-42
-45,-36,9,41,-27,-13,20,-20,-43,-82,-66,-50
-47,-37,11,42,-28,-13,20,-20,-40,-83,-70,-58
-42,-32,10,37,-25,-11,20,-20,-40,-87,-70,-55
-40,-30,10,35,-25,-10,20,-20,-40,-90,-70,-55
-35,-25,10,30,-22,-7,20,-20,-40,-89,-70,-55
-33,-23,10,28,-21,-6,20,-18,-40,-83,-70,-55
-27,-17,10,22,-19,-3,20,-13,-37,-80,-71,-55
-39,-30,9,34,-24,-10,15,-10,-32,-75,-67,-51
-53,-28,25,40,-38,-2,15,-7,-29,-71,-61,-45
-34,-3,32,18,-33,14,14,-3,-26,-66,-56,-40
-36,-11,25,23,-30,6,9,1,-21,-59,-51,-35
-42,-19,23,30,-33,2,11,4,-21,-52,-45,-28
-33,-15,18,24,-25,1,7,5,-25,-46,-41,-26
-30,-15,15,22,-22,0,5,5,-28,-38,-44,-30
-33,-14,19,24,-25,2,5,5,-30,-36,-45,-30
-36,-16,20,26,-28,2,1,5,-34,-41,-45,-32
-34,-14,20,24,-26,3,-1,2,-35,-43,-45,-36
-39,-20,20,29,-29,0,1,-6,-39,-56,-44,-34
-50,-30,20,40,-35,-5,4,-13,-46,-66,-47,-39
-49,-30,19,39,-34,-6,7,-20,-51,-67,-54,-40
-44,-30,15,36,-29,-7,9,-28,-57,-71,-60,-40
-46,-30,16,38,-31,-7,13,-33,-64,-73,-64,-45
-42,-29,12,35,-27,-8,15,-31,-68,-77,-65,-45
-40,-31,10,36,-25,-11,15,-30,-72,-82,-68,-45
-45,-35,10,40,-27,-12,15,-30,-77,-84,-71,-45
-51,-45,7,48,-29,-19,15,-30,-80,-90,-67,-45
-59,-55,4,57,-31,-25,15,-30,-83,-95,-65,-45
-56,-55,1,55,-28,-27,15,-30,-87,-95,-65,-45
-54,-55,-1,54,-26,-28,14,-30,-90,-97,-62,-45
-49,-55,-5,53,-22,-30,11,-31,-94,-100,-59,-49
-51,-55,-4,54,-23,-29,6,-35,-95,-100,-61,-50
-55,-55,0,55,-27,-27,3,-35,-95,-96,-73,-50
-49,-49,0,49,-24,-25,0,-35,-95,-95,-76,-54
-44,-44,0,44,-22,-21,-5,-35,-95,-95,-75,-56
-38,-38,0,38,-19,-19,-3,-35,-94,-95,-80,-53
-34,-34,0,34,-17,-16,4,-34,-90,-95,-80,-50
-21,-25,-4,23,-8,-14,9,-30,-90,-96,-80,-50
-33,-38,-5,36,-14,-21,14,-30,-88,-100,-80,-50
-46,-51,-5,49,-20,-28,20,-30,-84,-100,-80,-50
-41,-50,-9,45,-16,-30,25,-30,-85,-102,-80,-50
-42,-53,-10,48,-16,-31,25,-30,-85,-105,-80,-50
-54,-62,-9,58,-22,-35,25,-34,-85,-105,-80,-50
-74,-75,0,75,-37,-37,25,-39,-85,-105,-80,-50
-70,-68,2,69,-36,-32,25,-35,-85,-105,-80,-50
-59,-61,-1,60,-29,-31,25,-35,-85,-105,-80,-50
-55,-54,1,55,-28,-26,23,-35,-84,-105,-80,-49
-47,-47,-1,47,-23,-24,19,-35,-79,-105,-80,-45
-40,-39,1,39,-20,-19,21,-36,-76,-104,-79,-45
-43,-33,10,38,-26,-11,20,-31,-73,-97,-72,-43
-45,-26,19,35,-32,-3,21,-29,-68,-89,-64,-40
-45,-10,36,27,-40,13,19,-25,-66,-84,-59,-41
-25,19,43,3,-34,31,16,-24,-53,-70,-46,-36
5,78,73,-42,-34,75,10,-19,-28,-57,-31,-29
-6,99,105,-47,-55,101,-21,-23,-25,-50,-23,-25
-12,82,94,-35,-53,88,-36,-72,-73,-74,-34,-23
-25,72,97,-24,-61,84,-28,-103,-114,-97,-56,-19
-12,54,66,-21,-39,60,-17,-86,-105,-99,-64,-23
-22,16,38,3,-30,27,-8,-88,-115,-119,-71,-36
-60,-31,28,45,-44,-1,3,-70,-104,-115,-75,-49
-51,-46,5,48,-28,-20,10,-71,-116,-129,-91,-61
-69,-76,-7,73,-31,-41,17,-60,-104,-122,-89,-64
-76,-90,-14,83,-31,-51,28,-48,-102,-139,-93,-71
-64,-79,-15,72,-24,-47,28,-54,-97,-133,-87,-70
-57,-93,-36,75,-10,-64,50,-18,-73,-132,-84,-76
-68,-89,-21,79,-23,-55,33,-60,-103,-146,-89,-77
-72,-138,-66,105,-3,-102,123,111,12,-115,-121,-122
-83,-107,-24,95,-29,-65,255,247,93,-188,-234,-216
83,66,-17,-74,50,24,99,303,476,276,130,32
440,580,140,-510,150,360,-425,-178,529,1173,1073,782
660,1082,422,-871,119,752,-1027,-1308,-118,1938,1986,1536
511,716,206,-614,152,461,-997,-1531,-823,1269,1585,1366
10,189,179,-100,-85,184,-436,-1116,-1348,-421,117,350
-243,-19,223,131,-233,102,-47,-706,-1044,-722,-441,-225
-189,-138,50,163,-119,-44,71,-378,-639,-483,-351,-235
-112,-112,1,112,-57,-55,95,-161,-340,-317,-244,-172
-35,-94,-59,65,13,-77,96,46,-45,-119,-128,-108
-29,-102,-73,65,22,-87,93,89,-7,-123,-117,-94
-24,-114,-91,69,34,-102,90,109,50,-69,-88,-86
-22,-113,-91,67,34,-102,90,119,63,-71,-94,-85
-15,-105,-89,60,37,-97,88,132,96,-46,-81,-81
3,-104,-107,51,56,-105,82,138,107,-41,-75,-76
6,-96,-102,46,54,-99,77,149,117,-32,-71,-74
8,-94,-102,43,56,-98,74,163,138,-19,-61,-68
8,-89,-97,41,53,-93,68,162,153,-17,-55,-64
5,-90,-96,43,51,-92,65,178,184,4,-45,-59
4,-90,-93,43,49,-91,72,199,212,26,-36,-55
0,-90,-90,45,45,-90,71,222,246,52,-24,-51
5,-84,-89,40,47,-86,70,253,288,87,3,-39
30,-71,-101,21,66,-86,69,293,347,130,32,-17
55,-60,-116,3,86,-87,64,338,414,169,51,1
82,-44,-126,-19,104,-84,66,388,495,229,95,23
103,-23,-126,-40,115,-74,62,427,567,288,141,58
123,3,-120,-63,122,-58,49,449,618,346,189,86
145,31,-114,-88,129,-41,38,457,644,381,226,113
159,50,-109,-104,134,-29,24,446,636,378,227,144
157,54,-103,-105,130,-24,9,407,595,375,224,144
118,47,-71,-82,94,-11,2,345,519,346,227,128
86,43,-43,-64,64,0,8,266,411,273,189,114
71,36,-36,-53,53,0,13,178,284,183,127,82
60,33,-28,-46,44,2,16,107,172,104,68,38
42,18,-24,-30,33,-3,22,56,88,31,12,5
7,-12,-19,2,13,-15,24,23,28,-23,-24,-19
-6,-21,-15,14,5,-18,49,7,-7,-55,-45,-36
-13,-23,-10,18,-1,-17,83,-4,-35,-76,-60,-52
-29,-35,-6,32,-11,-20,92,-15,-49,-83,-79,-55
-45,-50,-4,48,-20,-27,100,-25,-55,-92,-68,-18
-45,-51,-5,48,-20,-27,105,-24,-64,-95,-91,3
-44,-49,-5,47,-20,-26,109,-26,-66,-95,-52,-2
-47,-52,-5,50,-21,-28,115,-24,-74,-104,32,1
-42,-47,-4,45,-19,-25,116,-26,-29,-104,0,-1
-52,-57,-5,55,-23,-31,126,-24,10,-99,-3,0
-34,-39,-5,37,-14,-21,122,10,-3,-97,3,0
-31,-24,7,28,-19,-9,129,-2,1,-92,-4,0
-38,-30,8,34,-23,-11,121,-20,0,-90,4,0
-23,-24,-1,24,-11,-13,129,3,-1,-74,-3,0
-8,-39,-30,24,11,-35,119,1,1,-32,3,0
