I,II,III,aVR,aVL,aVF,V1,V2,V3,V4,V5,V6
-15,-6,9,10,-12,1,20,830,-66,64,34,90
-16,-13,4,14,-10,-4,20,829,-83,58,29,89
-27,-29,-2,28,-12,-15,18,826,-94,47,23,85
-34,-45,-11,40,-11,-27,29,824,-86,38,15,82
-26,-45,-19,36,-3,-32,36,820,-84,29,7,77
-22,-40,-17,31,-2,-28,35,819,-79,27,1,74
-24,-40,-16,32,-4,-27,35,814,-74,20,-4,71
-18,-34,-16,26,0,-25,36,808,-67,25,-8,68
-23,-37,-13,31,-5,-25,40,804,-52,48,-11,66
-32,-52,-20,42,-5,-36,40,797,-48,51,-15,62
-21,-52,-31,37,5,-41,40,792,-50,45,-13,60
-31,-61,-30,46,0,-45,40,786,-50,45,-6,57
-35,-65,-30,50,-2,-47,40,779,-50,39,-2,55
-26,-56,-30,41,2,-43,39,772,-50,41,4,54
-24,-54,-30,39,4,-42,35,764,-49,57,10,57
-21,-49,-28,35,3,-38,35,757,-46,61,15,69
-21,-44,-23,33,1,-33,35,750,-45,59,20,71
-24,-41,-17,33,-4,-29,35,744,-45,60,20,69
-24,-38,-14,31,-5,-26,35,739,-45,60,20,66
-28,-36,-8,32,-9,-21,32,735,-46,60,20,64
-26,-32,-6,30,-10,-19,27,731,-42,60,21,67
-5,-29,-24,18,9,-26,24,726,-39,60,17,70
-10,-33,-23,21,7,-27,20,722,-40,60,15,76
-15,-33,-19,24,2,-26,17,715,-36,60,15,70
-16,-29,-13,23,-2,-21,13,709,-35,60,16,72
-15,-27,-12,21,-1,-19,10,702,-35,62,24,81
-4,-24,-19,14,8,-21,10,695,-30,60,26,80
-15,-21,-6,18,-5,-13,8,689,-25,60,24,80
-22,-20,2,21,-12,-9,4,685,-20,72,22,77
-17,-25,-8,22,-4,-16,5,679,-17,76,19,74
-14,-38,-23,27,5,-30,5,675,-10,74,21,75
-15,-41,-26,28,5,-33,5,671,-15,75,33,86
-15,-40,-24,28,4,-32,5,666,-22,75,36,92
-11,-36,-25,24,8,-31,5,662,-18,75,35,86
-10,-35,-25,23,8,-30,4,656,-16,70,32,85
-10,-34,-25,23,8,-30,7,651,-12,70,30,80
-11,-31,-20,21,4,-25,12,645,-10,70,30,80
-17,-28,-12,23,-2,-20,11,639,-8,69,25,86
-18,-25,-7,22,-5,-16,7,635,-3,71,25,88
-25,-23,2,24,-14,-10,5,629,0,67,25,84
-18,-19,-1,19,-9,-9,1,625,3,66,25,85
3,-24,-27,11,15,-25,0,621,9,63,24,85
5,-26,-30,11,18,-28,3,616,9,69,31,85
-2,-25,-23,14,11,-24,8,612,7,86,43,85
-5,-23,-19,14,7,-20,9,606,3,83,38,80
-7,-20,-13,14,3,-16,4,601,12,89,46,80
-14,-20,-6,17,-4,-13,-2,596,25,101,61,80
-8,-17,-9,13,1,-13,-5,589,26,99,60,80
18,-3,-21,-7,19,-12,-10,585,31,100,59,79
20,17,-3,-19,11,7,-15,580,31,99,60,84
4,28,24,-16,-10,25,-10,577,55,110,63,97
10,66,56,-38,-23,61,-2,571,87,134,78,108
22,87,65,-55,-21,76,-16,556,91,133,87,114
17,59,42,-39,-13,51,-33,543,61,116,74,102
13,47,33,-30,-10,40,-33,520,31,98,63,97
7,28,22,-18,-8,25,-42,497,20,50,52,85
8,12,4,-10,2,8,-39,501,-9,44,49,75
35,16,-19,-25,27,-2,-23,508,4,85,51,93
35,1,-34,-18,34,-16,-12,518,40,89,47,86
-2,-29,-27,16,12,-27,-11,510,41,55,50,78
-36,-52,-16,44,-9,-34,3,510,37,35,33,66
-17,-32,-15,24,0,-24,1,507,42,84,44,71
-14,-46,-32,31,9,-38,17,500,26,62,22,53
0,-21,-21,11,10,-21,14,516,46,79,36,59
-19,-43,-24,31,3,-34,11,497,31,56,13,45
-10,-106,-96,58,43,-101,64,562,61,47,-31,0
-24,-204,-180,114,78,-192,166,669,153,30,-104,-64
142,11,-132,-76,137,-60,127,741,434,374,180,141
676,789,113,-733,281,451,-507,298,365,1042,1028,892
421,833,412,-627,4,622,-821,-376,-624,252,730,866
-99,419,518,-160,-309,468,-439,-213,-742,-460,-17,250
-68,207,276,-70,-173,242,-148,247,-84,-39,1,113
-91,-14,77,52,-84,31,27,444,67,32,-35,39
-67,-14,53,41,-60,19,70,508,136,92,-11,27
-51,-65,-15,58,-18,-40,87,513,142,116,-5,19
-42,-81,-39,61,-1,-59,115,543,161,95,-11,0
-36,-77,-41,56,3,-58,117,544,176,115,2,5
-52,-92,-40,72,-6,-65,125,545,170,111,-12,-10
-39,-80,-40,60,1,-60,122,545,197,119,0,-10
-49,-88,-39,68,-4,-63,128,544,193,116,-23,-24
-47,-88,-41,68,-3,-64,129,546,194,148,-18,-19
-66,-120,-54,93,-6,-87,137,549,204,136,-17,-20
-69,-111,-41,90,-14,-76,134,550,216,141,-15,-23
-56,-98,-42,77,-6,-70,136,551,221,141,-9,-25
-58,-97,-39,77,-9,-67,148,555,243,138,-13,-27
-61,-88,-28,75,-17,-58,150,555,253,139,-34,-38
-68,-90,-22,79,-23,-56,151,552,270,142,-30,-38
-68,-81,-13,75,-27,-47,156,550,298,167,-11,-28
-76,-82,-5,79,-36,-43,159,549,317,178,-7,-23
-94,-89,5,91,-49,-42,164,551,342,189,-3,-16
-64,-49,15,56,-40,-17,169,549,372,213,-1,-10
-64,-30,33,47,-48,1,176,552,393,216,3,-20
-80,-35,45,58,-62,5,181,557,395,213,6,-28
-76,-25,51,50,-63,13,175,548,391,210,3,-21
-93,-20,73,56,-83,27,165,535,384,205,-4,-16
-98,-13,85,55,-91,36,155,525,379,203,2,-10
-89,1,90,43,-89,45,144,508,372,198,13,-6
-74,23,97,26,-86,60,121,481,346,195,23,13
-44,34,78,5,-61,56,93,447,305,191,42,36
-3,52,55,-25,-29,53,72,410,261,183,51,53
26,46,19,-36,3,32,41,382,219,163,46,62
35,27,-8,-31,21,9,21,370,183,138,39,59
27,24,-3,-25,14,11,19,362,153,117,33,60
28,-3,-30,-12,29,-16,15,356,144,104,25,60
45,-13,-58,-15,51,-35,14,349,145,95,21,60
45,-8,-53,-18,49,-30,9,342,144,89,24,60
42,-8,-50,-17,46,-29,13,336,145,91,25,60
44,-2,-47,-21,46,-24,21,331,144,89,25,60
31,-11,-42,-10,37,-26,20,326,149,90,25,60
19,-21,-40,1,30,-30,19,321,156,90,25,61
16,-17,-33,0,25,-24,16,317,161,89,24,58
14,-9,-23,-2,18,-15,14,312,170,96,17,55
10,-2,-12,-4,11,-7,17,308,170,98,17,53
6,3,-2,-5,4,0,22,304,184,108,25,50
17,17,0,-17,8,9,23,298,196,112,26,47
18,19,0,-18,9,9,18,294,194,109,24,44
5,8,3,-7,1,5,16,289,194,111,21,49
-10,-4,7,7,-8,1,13,286,190,109,19,50
-6,-3,3,4,-5,0,10,279,189,110,23,51
10,28,18,-19,-4,22,10,272,193,109,43,64
22,58,36,-41,-7,47,2,261,203,119,53,74
39,88,50,-64,-6,69,-3,259,223,135,59,80
34,106,72,-70,-20,89,-17,252,230,134,77,88
38,87,50,-63,-6,68,-41,221,207,118,65,87
63,69,5,-66,29,37,-45,207,161,97,41,80
63,53,-9,-58,36,22,-50,193,120,63,29,77
42,38,-4,-40,23,17,-60,183,113,29,30,71
49,32,-17,-40,33,7,-53,195,117,51,38,69
56,18,-38,-36,47,-10,-27,210,120,54,26,61
45,12,-34,-28,39,-11,-22,210,128,45,26,60
5,-23,-29,9,17,-26,-16,201,112,33,9,51
14,-37,-51,12,33,-44,-9,207,119,45,4,46
13,-32,-45,10,29,-38,-8,190,104,40,-16,44
6,-41,-47,18,27,-44,6,203,107,42,-26,30
10,-26,-36,8,23,-30,-15,181,100,57,0,36
-11,-67,-55,39,22,-61,19,209,89,-2,-37,0
-8,-166,-158,87,75,-161,112,314,148,-21,-106,-80
-18,-194,-176,106,79,-184,203,418,313,50,-110,-94
510,442,-68,-476,289,187,-222,259,537,759,626,507
646,963,317,-804,164,639,-843,-513,-209,592,918,944
23,611,588,-317,-283,599,-679,-750,-841,-450,161,429
-74,307,381,-117,-228,344,-271,-223,-238,-245,-9,104
-57,86,144,-15,-101,115,-53,77,127,26,2,58
-69,-10,58,39,-64,24,36,179,183,27,-47,9
-21,-7,14,14,-18,4,47,200,211,78,-6,20
-39,-77,-38,58,0,-57,85,221,195,41,-53,-3
-19,-73,-54,46,17,-64,91,236,227,92,-32,-7
-39,-85,-46,62,3,-65,101,227,229,63,-51,-33
-32,-78,-45,55,7,-61,101,249,246,75,-35,-29
-40,-80,-40,60,0,-60,106,255,237,66,-29,-29
-46,-81,-35,64,-5,-58,109,255,264,63,-42,-35
-37,-76,-40,57,2,-58,110,255,273,72,-54,-30
-26,-76,-50,51,13,-63,110,255,274,89,-51,-24
-30,-74,-44,52,7,-58,112,255,287,103,-41,-34
-39,-76,-37,58,0,-57,137,254,303,100,-40,-43
-41,-74,-33,58,-3,-53,147,259,323,106,-31,-39
-49,-76,-26,63,-11,-51,144,271,337,118,-28,-37
-46,-65,-19,56,-14,-42,146,275,356,128,-36,-34
-43,-52,-9,48,-17,-30,144,275,390,143,-31,-35
-41,-43,-2,42,-19,-22,146,284,420,172,-17,-30
-50,-32,18,41,-34,-7,151,289,452,195,-8,-30
-67,-25,42,45,-54,8,145,278,485,231,1,-29
-63,-14,48,38,-55,16,137,266,493,245,9,-24
-63,-3,60,33,-62,28,130,255,498,242,25,-26
-51,48,100,1,-76,74,122,244,500,242,39,-21
-60,73,133,-7,-97,103,116,229,489,231,66,-14
-83,48,132,17,-108,90,98,200,455,231,81,10
-43,82,125,-20,-84,103,69,164,390,211,74,28
-9,88,97,-40,-53,92,48,126,311,154,70,32
7,55,48,-32,-21,52,20,91,238,109,67,44
18,35,17,-27,0,25,7,75,168,64,59,40
26,19,-7,-22,17,5,9,69,118,35,39,31
35,15,-20,-25,27,-3,0,62,85,39,37,27
31,3,-27,-17,29,-12,-6,55,71,11,23,18
37,0,-37,-18,37,-18,-12,47,67,-1,14,14
20,-21,-41,0,31,-31,-19,41,58,8,19,9
15,-43,-58,14,36,-50,-16,35,53,-10,6,4
28,-33,-62,3,45,-47,-10,35,46,-26,0,0
16,-33,-48,9,32,-40,-5,35,42,-36,-19,-6
11,-25,-36,7,24,-30,0,35,37,-18,-20,-8
10,-24,-34,8,22,-29,7,36,34,-24,-15,-19
-3,-48,-45,26,21,-47,9,32,31,-53,-41,-20
5,-29,-34,12,20,-32,4,24,26,-47,-36,-20
6,-15,-21,4,14,-18,1,17,24,-37,-31,-35
-6,-38,-32,22,13,-34,-2,10,17,-31,-28,-35
0,-49,-49,25,24,-48,-7,2,13,-62,-21,-35
8,-43,-51,18,30,-47,-10,-4,6,-55,-24,-35
17,-32,-49,8,33,-40,-13,-12,2,-26,-18,-35
11,-40,-51,15,31,-45,-22,-23,-5,-67,-38,-33
3,-47,-50,22,27,-48,-24,-24,-12,-83,-48,-29
4,-44,-48,20,26,-46,-20,-37,-18,-79,-43,-29
-1,-46,-44,24,22,-45,-20,-48,-36,-86,-47,-24
-2,-44,-42,23,20,-43,-20,-47,-42,-85,-44,-26
-2,-41,-39,21,19,-40,-21,-52,-38,-74,-41,-30
-4,-40,-36,22,16,-37,-19,-48,-34,-73,-36,-28
-5,-40,-35,23,15,-37,-27,-51,-46,-81,-33,-25
-5,-40,-35,23,15,-37,-45,-67,-62,-75,-30,-22
-3,-40,-37,22,17,-38,-45,-72,-67,-71,-24,-19
-2,-38,-36,20,17,-37,-40,-68,-71,-71,-34,-15
-1,-32,-31,17,15,-32,-39,-71,-69,-69,-41,-15
1,-28,-29,14,15,-28,-34,-81,-70,-66,-40,-9
-2,-26,-25,14,12,-25,-37,-83,-70,-64,-38,-16
5,-15,-20,5,13,-17,-42,-93,-81,-67,-34,-38
-2,-25,-23,13,11,-24,-40,-102,-91,-85,-35,-41
-7,-43,-36,25,15,-39,-40,-99,-89,-91,-34,-34
9,-26,-35,8,22,-30,-38,-99,-92,-89,-36,-31
10,-7,-17,-1,13,-12,-34,-108,-87,-90,-33,-26
2,-28,-30,13,17,-28,-35,-122,-94,-90,-40,-21
4,-43,-47,20,26,-45,-35,-119,-106,-90,-44,-23
6,-39,-45,17,25,-41,-35,-120,-105,-84,-41,-26
2,-40,-42,19,22,-41,-35,-120,-104,-79,-35,-25
-7,-40,-33,24,13,-37,-35,-120,-105,-73,-35,-25
-16,-38,-22,27,3,-29,-36,-124,-112,-69,-55,-25
-8,-33,-25,21,9,-29,-33,-125,-117,-60,-57,-25
-3,-30,-28,17,13,-29,-30,-130,-113,-69,-44,-22
10,-22,-32,6,21,-27,-29,-129,-117,-91,-36,-19
18,-31,-49,6,34,-40,-26,-125,-138,-90,-43,-21
-10,-33,-22,22,6,-27,-23,-124,-147,-90,-46,-19
-24,-15,9,20,-16,-3,-35,-135,-143,-90,-43,-21
-6,-13,-7,9,1,-10,-47,-147,-146,-90,-54,-34
-4,-16,-12,10,5,-14,-43,-144,-145,-87,-49,-24
-15,1,16,7,-16,8,-40,-145,-145,-73,-31,-18
0,0,0,0,0,-1,-37,-153,-140,-65,-23,-20
-7,-1,5,4,-6,2,-34,-154,-131,-62,-37,-26
22,53,31,-38,-5,42,-36,-153,-133,-53,-31,-32
58,81,24,-70,17,52,-38,-145,-135,-26,-20,-26
3,81,78,-43,-37,79,-59,-175,-135,-18,-15,-12
2,60,58,-31,-28,59,-72,-183,-134,-30,-6,20
25,31,6,-28,10,18,-77,-172,-149,-48,-23,-4
-3,21,24,-9,-13,22,-84,-201,-199,-92,-56,-25
11,7,-4,-9,7,1,-75,-198,-209,-98,-57,-23
39,-12,-51,-13,45,-31,-66,-197,-176,-79,-11,-25
20,-29,-49,4,35,-38,-55,-192,-171,-84,-26,-24
-4,-37,-32,21,14,-34,-54,-192,-202,-90,-69,-46
-18,-48,-30,33,6,-39,-40,-187,-208,-102,-81,-57
-6,-35,-29,21,12,-32,-42,-184,-200,-83,-67,-42
-24,-56,-32,40,4,-43,-26,-181,-213,-99,-83,-58
-16,-35,-20,26,2,-27,-27,-169,-195,-75,-68,-43
-35,-61,-26,48,-4,-43,-17,-183,-219,-92,-77,-52
-33,-104,-71,69,19,-87,41,-112,-165,-86,-113,-100
-33,-213,-179,123,73,-195,129,-12,-57,-75,-181,-172
177,3,-174,-90,176,-85,71,66,252,345,169,84
659,787,128,-723,265,458,-524,-386,138,910,988,839
301,761,460,-532,-80,611,-750,-989,-859,19,569,706
-182,338,521,-78,-352,429,-374,-789,-926,-586,-184,71
-95,197,292,-51,-194,244,-156,-393,-325,-148,-105,-22
-101,-12,89,56,-95,38,-10,-225,-209,-103,-120,-92
-69,-33,37,51,-53,2,34,-161,-145,-51,-101,-82
-78,-80,-2,79,-38,-41,42,-145,-143,-40,-104,-90
-71,-95,-24,84,-23,-60,59,-124,-135,-34,-122,-122
-69,-106,-37,88,-16,-71,66,-121,-128,-11,-97,-109
-91,-134,-43,113,-23,-88,75,-112,-130,-25,-99,-106
-81,-117,-36,99,-22,-76,65,-113,-117,-6,-94,-95
-85,-131,-46,108,-19,-88,84,-108,-121,-14,-114,-125
-54,-121,-67,88,7,-94,95,-106,-110,-4,-108,-125
-75,-128,-53,101,-10,-90,95,-104,-112,1,-109,-125
-81,-124,-43,103,-19,-83,95,-100,-106,-3,-116,-122
-70,-125,-56,98,-7,-90,106,-98,-102,-28,-130,-118
-79,-141,-61,110,-9,-101,111,-94,-100,-7,-126,-122
-81,-134,-54,108,-13,-94,109,-91,-88,13,-121,-124
-78,-120,-42,99,-18,-81,111,-87,-65,26,-118,-126
-74,-107,-33,91,-20,-69,116,-81,-41,48,-107,-124
-77,-100,-23,89,-27,-61,113,-74,-24,62,-100,-126
-78,-90,-12,85,-33,-51,120,-67,1,77,-100,-125
-83,-84,-1,83,-41,-42,135,-60,25,75,-100,-125
-86,-75,12,80,-49,-31,136,-55,38,72,-100,-124
-89,-60,29,75,-59,-15,134,-65,46,66,-100,-126
-129,-78,51,103,-90,-13,137,-74,40,61,-98,-127
-152,-71,81,111,-116,5,143,-75,38,58,-107,-118
-131,-50,81,90,-106,15,136,-86,28,52,-101,-109
-118,-47,71,82,-94,12,123,-102,8,49,-87,-102
-103,-36,67,69,-85,15,99,-128,-24,44,-73,-88
-93,-36,57,64,-74,10,67,-162,-69,39,-53,-67
-73,-35,39,54,-55,2,43,-179,-99,36,-50,-51
-45,-32,13,38,-29,-9,30,-195,-147,24,-47,-38
-22,-29,-7,26,-8,-18,24,-214,-184,2,-44,-29
-2,-31,-29,17,14,-29,14,-219,-205,-16,-41,-25
-13,-44,-31,28,9,-37,8,-223,-225,-32,-39,-20
-19,-51,-33,35,7,-42,1,-232,-223,-46,-36,-17
-6,-49,-43,28,18,-45,0,-234,-220,-44,-29,-10
1,-51,-52,25,26,-51,-1,-226,-213,-38,-26,-13
9,-50,-59,20,34,-54,-5,-224,-208,-35,-20,-27
13,-50,-62,18,38,-56,-5,-218,-202,-30,-17,-25
2,-49,-51,24,27,-50,-5,-215,-182,-26,-11,-17
5,-13,-18,4,11,-16,-4,-219,-164,-18,-5,-13
11,2,-9,-7,10,-3,-6,-220,-137,2,7,-2
-12,11,23,1,-17,17,1,-219,-103,22,10,6
-1,63,63,-31,-32,63,-6,-222,-73,42,23,29
28,85,57,-57,-15,70,-33,-240,-74,55,52,46
31,75,44,-53,-6,59,-48,-247,-107,26,32,33
35,65,30,-50,2,47,-58,-246,-137,-3,13,23
37,53,16,-45,10,35,-56,-270,-177,-19,-10,16
27,35,8,-31,9,21,-46,-279,-187,-59,-26,8
36,21,-14,-28,25,3,-41,-276,-168,-35,5,2
10,-7,-17,-1,13,-12,-24,-269,-165,-20,-4,-7
-22,-33,-11,28,-5,-22,-13,-264,-179,-52,-14,-14
-24,-55,-30,40,3,-42,1,-261,-204,-88,-40,-34
-26,-61,-35,43,5,-48,5,-249,-193,-74,-39,-27
-49,-66,-17,58,-15,-41,8,-255,-208,-92,-34,-31
-46,-63,-17,54,-15,-39,20,-234,-192,-83,-32,-31
-29,-52,-24,41,-2,-38,14,-254,-207,-74,-39,-26
-18,-111,-93,65,38,-101,41,-213,-193,-103,-91,-60
-33,-226,-193,130,80,-209,119,-128,-128,-102,-168,-130
5,-200,-205,97,105,-202,180,-18,75,26,-110,-105
526,516,-9,-521,267,253,-311,-266,229,766,731,594
513,988,475,-751,19,731,-838,-1038,-625,399,893,934
-70,573,643,-252,-357,608,-571,-1081,-1063,-574,44,332
-103,242,345,-70,-224,294,-210,-561,-415,-255,-93,49
-84,55,140,14,-112,97,-41,-331,-160,-83,-64,-5
-89,-37,51,63,-70,7,41,-232,-99,-90,-83,-58
-59,-57,2,58,-31,-27,53,-210,-55,-36,-54,-48
-64,-88,-24,76,-20,-56,70,-189,-61,-66,-87,-62
-39,-93,-54,66,8,-73,72,-182,-38,-23,-64,-50
-49,-109,-60,79,6,-84,86,-177,-39,-43,-80,-74
-33,-93,-61,63,14,-77,91,-167,-13,-15,-63,-74
-28,-87,-59,58,16,-73,102,-165,3,-21,-69,-75
-43,-103,-60,73,9,-82,107,-158,29,-6,-62,-76
-56,-123,-67,90,6,-95,103,-156,31,-4,-60,-74
-57,-116,-59,86,2,-87,108,-150,48,11,-60,-76
-64,-113,-49,89,-7,-81,124,-143,79,42,-53,-70
-65,-110,-45,88,-10,-77,126,-122,100,37,-56,-70
-65,-105,-41,85,-11,-72,135,-109,126,56,-54,-69
-67,-103,-36,85,-15,-69,142,-100,149,68,-56,-65
-60,-92,-32,76,-14,-62,139,-88,185,96,-48,-65
-57,-83,-26,70,-15,-54,150,-72,222,135,-36,-64
-58,-73,-15,66,-21,-44,157,-63,257,145,-17,-59
-58,-61,-3,59,-27,-32,159,-64,303,174,-2,-55
-65,-44,20,54,-42,-11,164,-65,333,203,10,-50
-59,-19,40,39,-50,10,165,-69,354,214,32,-46
-55,9,64,23,-60,36,150,-69,369,228,34,-38
-60,30,90,15,-75,60,136,-81,374,239,50,-16
-50,59,109,-4,-80,84,118,-104,356,230,72,10
-40,73,113,-17,-77,92,87,-144,294,197,70,26
-21,59,80,-19,-51,69,58,-183,220,155,65,30
2,44,42,-23,-20,43,37,-211,139,115,62,30
-1,41,42,-20,-21,41,23,-246,65,75,56,30
14,33,19,-23,-3,26,13,-254,18,41,37,30
51,18,-33,-34,41,-7,7,-264,-7,18,24,30
46,5,-41,-25,43,-17,-8,-271,-26,-6,18,28
21,-30,-51,5,36,-41,-20,-262,-52,-28,15,23
9,-48,-57,20,33,-52,-7,-277,-53,-38,6,17
10,-44,-54,18,32,-49,7,-275,-43,-40,5,14
11,-45,-56,17,34,-50,10,-267,-39,-42,-9,8
14,-41,-55,14,34,-47,11,-260,-30,-55,-23,5
35,-39,-73,2,54,-56,9,-252,-26,-56,-1,15
27,-43,-69,8,48,-56,15,-268,-23,-53,-12,15
3,-59,-62,28,33,-61,26,-271,-20,-47,-28,8
15,-59,-74,22,45,-66,24,-268,-18,-38,-18,4
14,-53,-67,20,41,-60,20,-267,-14,-35,-17,-2
7,-51,-59,22,33,-55,17,-263,-17,-20,-11,-8
9,-46,-55,19,32,-50,12,-267,-12,-32,-6,-8
11,-44,-55,17,33,-49,9,-269,-12,-48,-7,-5
16,-40,-55,12,35,-47,5,-271,-21,-44,-14,-5
14,-41,-55,14,35,-47,5,-274,-17,-46,-20,-1
18,-38,-55,10,37,-46,5,-276,-13,-45,-20,0
17,-35,-52,9,35,-43,5,-274,-10,-50,-20,0
12,-35,-47,12,30,-41,6,-276,-5,-50,-20,6
6,-38,-44,17,25,-41,2,-274,-8,-43,-20,13
-5,-45,-40,25,18,-43,0,-277,-10,-40,-20,13
-7,-43,-36,25,15,-39,0,-288,-10,-35,-18,9
-2,-37,-35,20,17,-35,-4,-290,-10,-30,-13,10
9,-34,-44,13,27,-39,-5,-290,-3,-33,-10,10
27,-28,-55,1,41,-41,-5,-287,-5,-35,-7,10
28,-27,-55,0,42,-41,-10,-294,-14,-35,-2,10
21,-35,-56,7,39,-45,-10,-302,-13,-35,0,15
27,-33,-60,3,44,-47,-11,-299,-8,-35,0,15
32,-28,-60,-2,46,-44,-16,-300,-5,-33,0,14
30,-27,-57,-2,44,-42,-14,-300,-2,-30,0,24
35,-20,-55,-7,45,-37,-18,-299,3,-30,0,23
29,-21,-51,-4,40,-36,-20,-296,5,-30,1,18
17,-33,-50,8,34,-41,-20,-293,6,-30,-3,17
13,-31,-44,9,29,-37,-24,-301,15,-29,-5,10
26,-21,-48,-2,37,-34,-26,-311,15,-37,-6,11
41,-17,-58,-12,49,-37,-24,-308,10,-41,-15,23
45,-8,-53,-18,49,-31,-20,-305,9,-32,-12,28
48,-6,-54,-21,52,-30,-15,-303,5,-27,-5,24
33,-23,-55,-5,44,-39,-11,-299,6,-18,-4,21
34,-32,-66,-1,50,-49,-6,-302,19,-17,4,18
36,-29,-64,-3,50,-46,-1,-308,26,-24,3,15
28,-26,-54,0,41,-40,-2,-310,25,-25,-7,16
31,-23,-55,-4,44,-39,-8,-310,25,-27,-3,20
29,-20,-49,-5,39,-34,-11,-310,25,-26,3,20
30,-19,-49,-5,39,-34,-16,-310,25,-19,8,20
29,-14,-43,-7,37,-29,-21,-310,25,-16,14,20
35,-10,-45,-12,40,-27,-24,-314,38,-11,15,20
24,-25,-49,1,36,-37,-26,-319,41,-7,15,23
26,-11,-37,-7,31,-24,-24,-313,40,-2,14,32
66,42,-23,-54,45,9,-24,-316,57,8,34,43
76,59,-17,-68,47,21,-14,-313,83,19,49,50
64,66,2,-65,31,34,-25,-321,91,30,54,52
45,65,19,-55,13,42,-58,-348,74,36,51,49
51,33,-18,-42,34,8,-60,-339,61,21,33,46
86,40,-46,-62,65,-3,-61,-348,19,-23,24,44
102,41,-61,-71,81,-10,-58,-366,-19,-60,-2,39
96,23,-73,-59,84,-24,-48,-361,12,-15,19,41
70,7,-63,-38,66,-28,-37,-359,36,2,29,31
51,-15,-67,-18,59,-41,-32,-353,44,-27,0,29
24,-39,-63,8,44,-51,-26,-353,36,-53,-16,20
34,-33,-67,0,51,-50,-20,-344,41,-31,-4,16
30,-33,-62,2,46,-47,-18,-348,31,-33,-2,14
21,-52,-73,16,47,-62,-4,-331,37,-29,-6,-2
36,-38,-74,1,56,-56,-16,-344,41,-3,20,11
11,-72,-83,31,47,-77,21,-302,40,-52,-36,-29
19,-165,-185,73,102,-175,110,-203,114,-21,-103,-91
72,-153,-224,41,148,-188,186,-83,302,75,-53,-71
570,505,-65,-537,318,220,-262,-273,514,787,704,552
682,956,274,-819,203,615,-844,-1020,-233,628,981,969
66,578,511,-322,-223,544,-642,-1205,-874,-467,157,407
-83,298,380,-108,-231,339,-257,-716,-296,-280,-67,74
-39,86,124,-24,-82,105,-47,-425,47,-27,-42,24
-43,-30,14,37,-28,-8,41,-320,99,-51,-80,-28
-22,-40,-18,31,-2,-29,53,-288,147,19,-38,-31
-18,-60,-42,39,12,-51,91,-272,138,-26,-70,-70
-6,-67,-62,37,29,-64,94,-267,174,17,-44,-53
-32,-108,-76,71,22,-92,107,-266,162,-6,-62,-64
-20,-95,-75,58,28,-84,105,-260,176,15,-51,-59
-29,-102,-74,66,22,-88,112,-258,178,12,-56,-60
-20,-99,-79,60,30,-89,109,-253,190,14,-56,-63
-11,-100,-88,56,38,-94,111,-248,193,17,-54,-68
-19,-99,-80,59,31,-89,127,-238,198,14,-55,-71
-18,-89,-71,54,27,-80,133,-230,211,26,-45,-71
-20,-85,-65,53,22,-75,134,-222,221,29,-44,-82
-20,-77,-56,49,18,-66,129,-216,233,34,-37,-79
-22,-71,-49,47,13,-60,147,-209,257,51,-34,-80
-26,-65,-39,46,7,-52,157,-202,275,67,-29,-80
-36,-67,-31,51,-2,-49,154,-196,298,74,-26,-79
-30,-55,-25,43,-2,-39,156,-189,327,93,-22,-83
-21,-43,-23,32,1,-33,155,-202,339,97,-18,-85
-37,-53,-16,45,-10,-34,154,-217,358,94,-15,-85
-47,-49,-2,48,-22,-25,159,-213,366,98,-9,-88
-48,-36,12,42,-30,-12,160,-218,369,108,-17,-91
-61,-28,33,45,-47,2,153,-220,364,111,-18,-90
-74,-15,59,44,-66,22,145,-219,354,111,-12,-79
-72,-4,68,38,-70,32,140,-227,352,116,-6,-65
-46,11,57,17,-52,34,128,-242,334,112,-1,-51
-11,37,48,-13,-30,42,91,-280,284,91,-8,-39
4,40,36,-22,-16,38,62,-309,233,67,-4,-14
14,32,18,-23,-2,25,41,-328,197,51,9,9
38,28,-10,-32,24,9,16,-358,163,34,33,13
56,17,-39,-36,47,-11,10,-360,138,11,45,16
69,9,-60,-39,64,-25,10,-362,117,-18,35,13
78,0,-78,-39,78,-39,10,-376,105,-27,29,10
68,-9,-77,-29,73,-43,10,-375,91,-24,22,8
53,-18,-71,-17,62,-44,10,-375,81,-25,12,5
45,-23,-68,-11,57,-45,10,-375,101,-25,15,3
46,-16,-62,-15,54,-38,10,-374,106,-25,24,-2
49,-9,-59,-20,54,-34,10,-376,104,-24,27,-7
49,-2,-51,-23,50,-26,10,-380,124,-20,30,-9
47,4,-43,-25,45,-19,10,-380,134,-15,28,-6
51,15,-35,-33,43,-10,10,-379,135,-13,24,0
53,23,-30,-38,41,-3,5,-383,143,-8,22,-3
41,19,-22,-30,32,-1,5,-387,145,-6,18,-12
34,18,-16,-26,25,1,5,-391,139,-1,17,-20
22,13,-8,-17,15,2,4,-395,137,0,13,-29
18,12,-6,-15,12,2,6,-394,132,-12,23,-18
38,9,-29,-23,33,-10,2,-395,130,-12,31,2
58,29,-29,-43,43,0,-5,-397,137,-5,33,9
58,61,3,-59,27,31,-14,-401,148,12,48,13
37,74,37,-55,0,55,-14,-398,170,35,67,22
68,118,50,-93,9,84,-20,-404,167,41,75,29
93,125,32,-109,30,79,-50,-435,148,23,73,26
69,89,20,-79,25,54,-67,-433,126,-5,67,16
79,75,-4,-77,42,35,-74,-434,84,-25,55,13
93,53,-40,-72,66,6,-73,-470,62,-57,31,2
98,46,-52,-72,75,-3,-61,-466,68,-71,25,2
90,29,-60,-59,75,-15,-47,-436,73,-77,8,14
82,15,-66,-48,74,-25,-35,-432,64,-73,4,11
64,7,-58,-36,61,-25,-32,-455,34,-77,19,-5
36,-22,-58,-7,48,-40,-19,-443,25,-93,6,-35
27,-25,-51,-1,39,-38,-21,-447,32,-69,14,-22
5,-45,-50,20,28,-48,-3,-440,29,-98,-8,-40
24,-37,-61,7,43,-49,-9,-434,51,-81,10,-33
17,-52,-69,18,43,-60,10,-436,32,-105,-17,-30
28,-110,-138,42,83,-124,63,-346,70,-107,-78,-100
-18,-219,-201,119,92,-210,182,-242,159,-154,-186,-203
315,131,-184,-223,249,-26,13,-210,455,359,286,172
747,875,128,-811,309,502,-680,-829,106,747,994,866
274,804,530,-539,-129,667,-810,-1415,-859,-310,398,579
-80,377,457,-149,-269,417,-394,-1025,-578,-569,-111,78
-29,160,189,-66,-109,175,-123,-590,17,-114,1,21
-47,3,50,22,-49,26,21,-445,89,-127,-46,-59
9,-4,-13,-2,11,-9,41,-396,162,-51,-6,-41
3,-29,-32,13,17,-30,71,-388,149,-88,-18,-72
13,-31,-44,9,29,-37,68,-358,181,-70,-7,-91
-1,-67,-66,34,33,-66,71,-358,174,-74,-42,-89
-33,-99,-66,67,17,-83,90,-346,182,-80,-56,-98
-35,-75,-40,55,3,-57,87,-344,188,-67,-44,-90
-12,-76,-64,45,27,-70,95,-337,186,-56,-56,-78
11,-77,-88,33,49,-82,102,-330,224,-26,-45,-83
-2,-81,-79,41,39,-80,105,-324,231,-30,-53,-109
-12,-89,-77,51,33,-83,106,-316,237,-19,-45,-99
-8,-80,-72,44,32,-75,111,-311,252,-18,-42,-95
-2,-64,-62,33,31,-63,117,-302,263,-12,-36,-92
-3,-56,-53,30,25,-54,124,-294,273,-8,-33,-84
-5,-44,-39,25,18,-41,132,-285,292,14,-27,-89
-6,-36,-30,21,12,-33,132,-277,325,27,-24,-100
-23,-37,-14,30,-5,-25,130,-275,362,61,-19,-98
-24,-26,-2,25,-11,-13,143,-271,383,86,-17,-94
-3,-4,-1,4,-1,-2,140,-269,413,91,-3,-91
-18,-5,13,11,-15,4,132,-265,441,123,26,-86
-37,21,58,7,-47,39,126,-265,439,127,19,-84
-33,44,77,-6,-56,61,117,-270,456,138,31,-78
-34,43,77,-5,-56,60,111,-280,457,159,58,-67
-36,85,121,-25,-78,103,94,-316,423,141,65,-53
-10,100,110,-45,-61,105,69,-347,369,113,60,-40
11,89,78,-50,-34,83,36,-382,287,94,57,-31
31,80,49,-56,-9,64,12,-417,211,55,51,-23
57,44,-13,-50,35,16,1,-432,139,13,34,-15
46,30,-17,-38,31,6,-15,-455,85,-33,40,-18
37,25,-13,-31,25,6,-26,-465,45,-69,29,-27
60,21,-39,-40,50,-9,-25,-467,19,-89,9,-42
79,16,-63,-48,71,-23,-22,-470,16,-98,0,-43
83,12,-71,-47,77,-29,-19,-473,8,-105,-12,-33
68,5,-63,-36,66,-29,-16,-475,4,-130,-28,-56
36,-27,-63,-4,49,-45,-14,-475,-2,-131,-44,-72
12,-45,-56,17,34,-50,-11,-474,-6,-129,-41,-69
19,-37,-56,10,37,-46,-10,-475,-18,-131,-40,-70
34,-26,-59,-4,47,-42,-10,-473,-36,-130,-38,-70
39,-22,-60,-8,50,-41,-10,-470,-35,-129,-49,-78
61,1,-60,-31,61,-29,-10,-470,-39,-123,-57,-77
45,-12,-57,-16,51,-34,-11,-470,-40,-119,-54,-71
0,-37,-38,19,20,-37,-8,-470,-42,-114,-55,-66
14,-6,-20,-3,17,-13,-17,-468,-46,-111,-56,-60
20,-24,-44,2,32,-34,-32,-477,-44,-103,-65,-54
12,-37,-49,13,31,-43,-29,-485,-65,-119,-61,-62
17,-23,-39,3,28,-31,-30,-490,-85,-136,-53,-76
16,-22,-38,3,27,-29,-30,-496,-85,-128,-50,-67
18,-10,-28,-4,23,-19,-29,-494,-84,-124,-50,-60
18,-10,-27,-4,23,-18,-35,-495,-88,-119,-50,-55
28,12,-16,-20,22,-2,-34,-495,-97,-110,-50,-46
60,31,-29,-45,44,1,-39,-495,-100,-121,-50,-53
72,25,-47,-48,60,-11,-46,-494,-112,-133,-50,-61
58,20,-39,-39,48,-10,-40,-498,-124,-127,-47,-59
51,15,-36,-33,43,-10,-38,-506,-116,-124,-44,-60
38,7,-31,-23,35,-12,-33,-504,-124,-122,-41,-60
34,7,-26,-20,29,-9,-30,-503,-139,-114,-38,-60
41,17,-24,-28,33,-4,-32,-500,-141,-120,-36,-62
47,12,-36,-29,41,-12,-30,-499,-138,-131,-33,-61
46,4,-41,-25,43,-18,-30,-503,-142,-130,-31,-57
35,-4,-39,-15,37,-22,-29,-496,-136,-129,-27,-55
61,11,-51,-36,56,-20,-38,-501,-123,-125,-25,-51
79,26,-53,-52,65,-13,-46,-512,-152,-125,-40,-49
45,3,-41,-24,43,-19,-45,-509,-169,-124,-47,-59
37,-4,-40,-16,39,-22,-45,-510,-163,-114,-44,-60
42,2,-40,-22,41,-19,-45,-510,-170,-112,-46,-61
31,-9,-40,-11,36,-24,-45,-509,-170,-100,-49,-52
51,1,-50,-25,50,-24,-41,-514,-169,-104,-50,-60
69,29,-40,-49,54,-6,-40,-515,-166,-121,-50,-82
66,27,-39,-46,52,-6,-40,-515,-160,-114,-49,-79
44,20,-24,-32,34,-2,-40,-513,-165,-110,-51,-80
44,16,-28,-30,35,-6,-39,-510,-179,-106,-45,-78
52,8,-43,-30,47,-17,-45,-510,-181,-101,-30,-71
32,35,3,-34,14,19,-57,-510,-179,-101,-21,-66
57,44,-12,-50,34,16,-53,-509,-177,-116,-36,-61
76,32,-44,-54,59,-6,-51,-510,-173,-124,-49,-54
58,23,-35,-40,46,-6,-47,-506,-177,-114,-38,-52
57,19,-39,-38,48,-9,-45,-505,-184,-108,-31,-53
48,19,-29,-33,38,-5,-45,-505,-183,-98,-27,-60
42,9,-33,-26,37,-11,-45,-500,-175,-101,-21,-68
62,40,-22,-51,42,9,-44,-500,-174,-106,-14,-56
46,33,-13,-39,29,10,-45,-497,-165,-99,-13,-46
35,38,3,-37,15,21,-46,-496,-167,-97,-19,-38
59,103,44,-81,7,73,-43,-492,-170,-91,-12,-32
71,104,33,-87,19,68,-84,-515,-169,-88,16,-28
39,70,31,-55,4,50,-108,-533,-187,-83,26,-36
41,65,24,-54,8,44,-104,-526,-202,-96,18,-32
59,76,17,-68,21,46,-101,-544,-253,-137,-22,-36
57,54,-3,-56,30,25,-89,-533,-261,-130,-52,-63
83,21,-61,-52,72,-20,-81,-511,-238,-114,-22,-53
43,5,-38,-24,41,-17,-70,-502,-242,-115,-13,-37
9,-1,-10,-4,10,-5,-70,-501,-255,-125,-46,-59
13,-31,-44,9,28,-37,-54,-486,-272,-144,-70,-81
70,13,-57,-41,63,-22,-60,-488,-264,-117,-20,-57
75,17,-58,-45,66,-21,-38,-475,-266,-129,-45,-68
35,-12,-47,-11,41,-29,-52,-465,-252,-113,-35,-43
9,-37,-46,15,27,-41,-41,-458,-259,-141,-50,-66
16,-102,-118,43,67,-110,42,-379,-199,-134,-118,-141
10,-179,-189,85,100,-184,138,-280,-66,-101,-159,-194
321,176,-146,-248,234,15,-10,-236,251,424,324,179
728,895,167,-812,280,531,-631,-781,-36,839,1044,887
237,733,496,-485,-130,614,-717,-1286,-1012,-206,406,559
-138,322,460,-92,-299,390,-332,-979,-878,-602,-205,-8
-51,197,248,-73,-150,222,-142,-617,-310,-133,-62,-34
-64,53,117,6,-91,85,-13,-475,-245,-136,-123,-123
-25,36,62,-6,-43,49,-2,-427,-183,-76,-88,-109
-49,-51,-1,50,-24,-26,38,-398,-193,-98,-102,-116
-13,-50,-37,32,12,-43,48,-378,-181,-89,-97,-116
-7,-45,-38,26,16,-41,45,-376,-179,-73,-87,-127
-12,-46,-34,30,11,-40,67,-356,-175,-83,-96,-152
-11,-33,-22,22,5,-27,66,-346,-160,-64,-80,-132
-20,-67,-47,44,14,-57,75,-331,-159,-73,-90,-138
-19,-78,-59,49,20,-68,77,-326,-144,-58,-84,-125
-36,-85,-49,61,7,-66,76,-319,-144,-60,-94,-134
-24,-79,-55,52,16,-67,78,-312,-134,-51,-87,-129
-23,-71,-48,47,13,-59,103,-305,-130,-49,-96,-133
-29,-73,-44,52,8,-58,106,-300,-125,-44,-101,-146
-37,-78,-41,57,2,-59,104,-288,-108,-39,-87,-145
-42,-77,-35,60,-3,-56,106,-268,-87,-29,-81,-144
-45,-69,-24,57,-10,-46,105,-260,-73,-8,-75,-140
-48,-47,1,47,-24,-23,113,-254,-58,16,-70,-140
-59,-56,3,58,-31,-27,119,-247,-35,25,-71,-138
-52,-43,8,47,-30,-17,124,-241,-11,30,-68,-134
-67,-19,49,43,-57,15,125,-235,0,36,-66,-136
-83,-30,53,56,-68,11,125,-234,5,30,-64,-135
-82,-24,58,52,-70,17,123,-236,9,26,-68,-135
-81,-7,74,43,-77,33,113,-232,6,22,-75,-135
-71,11,83,30,-77,47,101,-248,-19,17,-75,-124
-93,14,107,39,-100,60,91,-262,-49,13,-75,-109
-59,32,91,13,-75,61,71,-281,-71,8,-56,-97
-27,47,74,-10,-51,60,38,-307,-119,4,-24,-77
-11,34,45,-12,-28,39,11,-314,-154,0,5,-62
11,30,19,-21,-4,24,-4,-331,-189,-28,11,-53
6,21,15,-14,-5,18,-11,-342,-230,-66,2,-43
34,13,-21,-23,28,-4,-17,-339,-251,-78,-4,-40
51,14,-37,-32,44,-11,-25,-337,-269,-84,-11,-37
44,15,-29,-30,36,-6,-28,-333,-272,-100,-18,-34
41,16,-26,-28,33,-5,-25,-331,-266,-105,-19,-31
35,13,-22,-24,28,-4,-25,-329,-258,-98,-12,-29
25,10,-15,-17,20,-2,-25,-324,-249,-95,-11,-26
29,10,-19,-19,24,-4,-26,-318,-243,-90,-6,-23
31,10,-21,-20,26,-6,-24,-312,-234,-85,-4,-21
32,18,-15,-25,23,1,-29,-308,-228,-81,4,-17
49,44,-5,-46,27,19,-36,-302,-218,-70,27,-15
44,46,2,-45,20,24,-36,-296,-204,-63,23,-12
34,42,8,-39,13,25,-33,-288,-182,-53,14,-3
49,94,45,-72,1,69,-30,-282,-151,-28,30,5
52,112,60,-83,-4,86,-29,-275,-128,-3,53,13
50,117,67,-84,-9,92,-33,-268,-107,2,57,30
62,137,76,-100,-7,106,-57,-292,-123,-11,57,35
69,111,42,-90,14,76,-68,-308,-175,-46,37,26
79,76,-3,-78,41,36,-61,-302,-215,-91,2,23
43,53,10,-48,16,32,-61,-308,-247,-111,12,16
25,58,33,-42,-4,45,-55,-297,-242,-115,14,11
67,64,-3,-65,35,30,-56,-287,-228,-101,12,4
62,51,-11,-57,36,20,-50,-274,-220,-81,14,-14
30,23,-7,-26,18,8,-49,-267,-231,-98,-10,-20
10,-15,-25,3,18,-20,-42,-259,-248,-133,-32,-37
21,-4,-25,-8,24,-14,-42,-247,-230,-116,-18,-32
18,-6,-24,-5,21,-15,-36,-248,-243,-133,-31,-36
39,2,-37,-20,38,-17,-32,-227,-221,-112,-22,-29
17,8,-8,-12,12,0,-28,-241,-236,-122,-21,-26
26,-51,-76,13,51,-63,14,-172,-214,-147,-59,-62
-9,-200,-191,105,91,-195,114,-51,-139,-180,-171,-155
117,-66,-183,-25,150,-125,123,51,135,109,41,-27
652,716,64,-684,294,389,-443,-322,152,812,908,728
470,988,518,-729,-24,753,-865,-1056,-827,143,797,881
-46,541,587,-248,-317,564,-534,-952,-1059,-661,3,256
-71,246,317,-88,-194,281,-195,-450,-382,-256,-52,13
-57,66,123,-5,-90,94,-40,-238,-179,-122,-28,-43
-13,19,33,-3,-23,26,10,-141,-111,-87,-23,-51
-18,-15,4,16,-11,-5,32,-119,-93,-73,-21,-56
-38,-51,-12,44,-13,-31,55,-91,-75,-74,-32,-72
-47,-45,2,46,-24,-21,56,-87,-55,-40,-14,-59
-34,-61,-28,48,-3,-44,68,-75,-56,-66,-25,-70
-3,-63,-60,33,29,-61,66,-64,-32,-52,-27,-61
-18,-67,-48,43,15,-57,78,-51,-27,-65,-43,-67
-28,-57,-29,42,0,-43,79,-35,-7,-41,-30,-69
-20,-66,-47,43,14,-56,87,-25,5,-35,-28,-69
-18,-76,-58,48,20,-67,97,-10,30,-19,-21,-74
-37,-63,-27,50,-5,-45,97,0,50,5,-16,-85
-22,-52,-31,38,5,-41,103,18,68,10,-14,-82
-1,-46,-46,24,23,-46,113,28,88,12,-28,-76
5,-41,-46,18,26,-43,121,48,122,44,-17,-73
-2,-35,-33,19,15,-34,129,73,162,77,6,-67
-16,-30,-14,23,-1,-22,130,86,202,102,12,-64
-21,-21,0,21,-10,-11,130,102,247,130,20,-59
-21,-9,13,15,-17,2,130,107,274,129,12,-55
-27,4,31,11,-29,17,130,115,305,160,35,-50
-35,20,55,7,-45,38,137,117,328,189,43,-46
-35,47,82,-6,-59,64,126,106,337,195,53,-38
-31,80,112,-25,-72,96,108,99,345,224,81,-22
-37,100,137,-32,-87,118,87,73,321,226,97,-11
-39,94,133,-28,-86,114,60,41,272,197,112,7
-9,87,96,-39,-53,92,30,8,201,151,99,28
5,80,76,-43,-36,78,7,-19,117,96,87,31
12,72,59,-42,-24,65,-11,-33,50,55,78,30
35,67,32,-51,1,49,-29,-51,-2,17,67,27
32,46,14,-39,8,30,-31,-55,-42,-16,58,25
26,29,3,-28,11,16,-29,-48,-63,-36,47,25
48,27,-22,-37,35,3,-26,-44,-71,-47,40,20
60,18,-42,-39,51,-12,-25,-37,-69,-51,35,15
49,9,-39,-29,44,-15,-24,-33,-64,-54,30,11
44,4,-40,-24,42,-18,-19,-28,-60,-54,26,6
31,-9,-40,-11,36,-24,-16,-21,-55,-50,21,2
31,-9,-40,-11,36,-24,-13,-17,-51,-48,17,-3
42,3,-39,-23,41,-18,-9,-11,-46,-44,15,-9
33,-1,-34,-16,34,-17,-4,-5,-45,-43,12,-14
29,-7,-36,-11,33,-21,-9,0,-45,-38,9,-20
24,-10,-35,-7,30,-22,-15,5,-41,-43,6,-25
20,-15,-35,-2,28,-25,-21,5,-39,-56,4,-25
31,-19,-50,-5,41,-34,-24,6,-42,-55,0,-25
30,-24,-54,-3,42,-38,-20,10,-45,-55,-5,-25
19,-25,-44,3,32,-35,-20,10,-45,-55,-8,-25
18,-25,-43,4,30,-34,-18,7,-45,-58,-14,-26
8,-25,-33,9,21,-29,-15,5,-45,-62,-13,-22
7,-25,-32,9,20,-28,-14,4,-45,-59,-8,-16
22,-24,-46,1,35,-35,-24,0,-45,-60,-5,-11
29,-18,-46,-5,38,-32,-32,-1,-45,-60,-2,-6
25,-11,-36,-7,31,-23,-29,11,-45,-60,3,0
27,-4,-32,-11,30,-18,-30,18,-43,-59,5,5
49,3,-46,-26,47,-21,-30,15,-52,-54,13,-2
59,9,-50,-34,55,-21,-30,15,-53,-49,18,-9
51,7,-44,-28,47,-18,-34,15,-43,-44,15,-16
46,3,-42,-25,44,-19,-41,14,-38,-40,15,-18
39,2,-37,-20,38,-17,-45,17,-30,-35,12,-14
32,-3,-34,-14,33,-18,-45,25,-25,-39,9,-16
27,-4,-31,-12,29,-17,-45,25,-25,-44,11,-11
20,-9,-30,-6,25,-19,-45,20,-25,-40,14,-10
15,-15,-30,0,23,-22,-45,20,-25,-40,16,-10
19,-10,-30,-5,25,-20,-45,13,-24,-37,14,-5
25,-5,-30,-10,28,-17,-45,20,-31,-35,15,0
28,-2,-30,-13,29,-16,-45,35,-36,-35,15,5
35,5,-30,-20,32,-12,-45,35,-32,-39,15,8
31,2,-30,-17,30,-14,-45,35,-30,-44,20,14
14,-17,-30,2,22,-23,-43,35,-26,-40,18,13
15,-15,-30,0,23,-22,-40,35,-25,-35,15,9
22,-8,-30,-7,26,-18,-38,35,-21,-33,12,10
22,-3,-25,-9,24,-14,-34,35,-20,-27,9,6
19,-1,-19,-9,19,-10,-32,34,-20,-26,5,5
-4,-22,-18,14,7,-20,-29,37,-15,-28,5,5
-17,-24,-8,21,-4,-16,-37,45,-15,-35,19,-2
7,-16,-23,5,15,-20,-46,45,-14,-50,20,-2
36,-15,-51,-10,44,-32,-44,45,-10,-50,16,12
35,-7,-42,-13,38,-24,-46,45,-10,-51,14,20
27,-6,-33,-10,31,-19,-44,44,-10,-55,11,20
32,1,-30,-17,31,-15,-47,46,-9,-56,10,21
26,-3,-29,-12,28,-16,-41,50,-12,-49,0,19
32,12,-21,-22,26,-5,-40,50,5,-27,10,22
41,59,18,-50,11,38,-52,51,35,-13,49,27
50,85,35,-68,8,59,-44,45,57,-7,70,32
65,89,24,-77,20,56,-62,37,64,9,63,48
57,72,15,-64,21,43,-84,32,43,22,48,41
85,57,-28,-71,56,14,-85,22,10,2,35,29
68,48,-20,-58,44,14,-89,17,-17,-36,19,22
40,36,-4,-38,22,16,-100,3,-49,-67,-4,2
79,29,-50,-54,64,-10,-98,7,-42,-54,-8,18
65,15,-50,-40,57,-17,-61,47,-6,-18,-3,26
30,10,-21,-20,25,-5,-58,51,-7,-16,14,11
0,-9,-9,5,5,-9,-50,51,-26,-57,-4,-13
17,-15,-31,-1,24,-23,-46,60,-14,-41,2,-8
26,-29,-55,2,41,-42,-41,53,-27,-57,-7,-12
41,-17,-58,-11,50,-37,-31,64,-14,-47,3,-10
24,-17,-41,-3,33,-29,-38,44,-25,-44,1,-8
-1,-68,-67,34,33,-67,13,106,3,-75,-64,-64
-2,-162,-160,82,79,-161,105,219,92,-54,-114,-130
99,-82,-180,-8,140,-131,138,330,321,147,30,-38
648,636,-12,-642,330,312,-416,19,412,882,862,679
594,931,337,-763,128,634,-900,-732,-492,413,886,907
2,512,510,-257,-254,511,-586,-740,-893,-554,34,283
-68,260,329,-96,-199,294,-240,-235,-234,-218,-49,48
-67,56,123,5,-95,89,-44,13,23,-55,-11,-13
-42,1,43,21,-43,22,19,99,82,-49,-29,-62
-22,-30,-7,26,-7,-18,25,116,103,-5,-26,-53
-45,-78,-34,62,-5,-56,62,148,100,-37,-61,-68
-30,-67,-37,49,4,-51,55,153,127,1,-39,-59
-47,-92,-45,69,-1,-68,70,159,116,-22,-59,-69
-44,-89,-46,67,1,-67,77,162,134,3,-53,-71
-53,-98,-44,76,-4,-71,82,174,131,-6,-64,-73
-49,-94,-46,72,-1,-70,79,189,146,7,-59,-74
-50,-95,-44,73,-3,-70,96,188,154,5,-60,-96
-50,-96,-46,73,-1,-71,109,191,162,7,-61,-96
-42,-94,-53,68,6,-73,109,193,169,18,-59,-94
-43,-95,-52,69,5,-73,116,210,186,18,-58,-96
-41,-87,-46,64,3,-66,114,213,206,30,-50,-94
-38,-81,-43,60,2,-62,118,221,215,37,-47,-97
-36,-74,-39,55,2,-56,120,228,230,44,-42,-100
-36,-67,-31,52,-3,-48,121,226,257,54,-38,-101
-39,-63,-24,51,-7,-43,137,241,283,71,-33,-97
-45,-52,-7,49,-19,-29,141,247,308,93,-31,-95
-65,-36,29,50,-47,-3,140,241,340,111,-27,-91
-84,-25,60,54,-72,17,137,239,348,123,-25,-89
-75,-15,60,45,-67,22,134,236,341,118,-21,-85
-66,-5,61,36,-63,28,136,234,336,109,-20,-85
-86,11,97,37,-92,54,124,236,329,100,-22,-90
-84,23,107,30,-95,64,110,228,326,91,-15,-84
-74,19,92,27,-83,55,94,196,304,84,-11,-77
-60,22,82,19,-71,51,66,166,266,79,13,-50
-33,41,74,-5,-54,58,29,141,215,67,37,-19
-3,36,39,-17,-21,37,-2,116,156,32,31,-15
30,23,-7,-27,18,8,-9,105,111,7,26,-11
37,12,-25,-25,30,-6,-14,99,70,-11,21,-4
43,0,-43,-22,43,-21,-21,96,54,-35,15,-12
50,12,-38,-30,43,-13,-24,90,51,-35,10,-26
55,2,-53,-29,54,-25,-21,87,44,-35,5,-25
51,-11,-61,-20,56,-36,-19,81,43,-45,6,-25
27,-16,-43,-5,35,-30,-21,79,33,-47,5,-25
20,-26,-46,4,34,-36,-20,93,44,-53,6,-25
21,-22,-42,1,32,-32,-20,96,53,-53,5,-25
21,-18,-39,-2,30,-28,-20,94,57,-46,6,-20
24,-16,-40,-4,33,-28,-21,96,71,-41,21,-17
26,-7,-33,-9,29,-20,-20,94,76,-35,26,-13
18,-19,-37,1,28,-28,-21,97,85,-30,24,-10
15,-23,-38,5,27,-31,-19,100,87,-24,25,-5
27,30,3,-28,12,16,-21,102,102,-11,24,-8
38,67,29,-53,5,48,-42,107,124,-4,36,-11
41,87,46,-64,-2,66,-46,93,143,15,57,-4
42,107,65,-75,-12,86,-47,75,139,17,63,-1
39,80,42,-60,-2,61,-65,74,101,-11,54,3
37,49,12,-43,12,31,-69,76,73,-22,45,10
22,41,20,-32,1,30,-63,74,26,-66,38,4
25,33,8,-29,8,20,-55,76,-4,-85,32,-18
59,23,-35,-41,47,-6,-51,74,8,-61,30,-22
74,21,-53,-47,64,-16,-41,72,21,-67,23,-14
58,2,-56,-30,57,-26,-40,70,17,-84,0,-33
5,-48,-54,22,30,-51,-32,68,-4,-136,-46,-54
8,-49,-57,21,33,-53,-31,74,-10,-129,-42,-44
2,-49,-52,24,27,-50,-27,64,-29,-140,-59,-70
10,-48,-58,19,35,-53,-20,79,-12,-132,-52,-60
14,-37,-51,12,33,-44,-25,69,-18,-132,-30,-36
-8,-90,-81,49,37,-85,16,112,-9,-153,-79,-88
-30,-222,-191,126,81,-206,108,224,29,-179,-167,-172
47,-177,-224,65,136,-200,161,342,261,-13,-73,-131
581,549,-32,-565,306,259,-352,60,384,700,730,560
550,940,390,-745,79,665,-863,-714,-504,267,831,859
-40,554,595,-257,-318,574,-594,-777,-917,-638,34,272
-83,277,360,-98,-221,318,-246,-248,-274,-309,-73,19
-49,64,112,-8,-81,88,-53,8,-4,-124,-31,-53
-58,-16,42,36,-49,13,25,106,52,-131,-58,-86
-45,-43,2,44,-23,-21,32,135,68,-91,-39,-69
-45,-88,-43,67,-1,-65,62,156,70,-112,-61,-98
-17,-80,-62,49,23,-71,52,164,104,-78,-40,-83
-25,-93,-67,59,21,-80,72,176,88,-94,-61,-100
-11,-73,-63,43,26,-68,80,193,103,-71,-61,-93
-14,-82,-68,48,27,-75,80,188,101,-75,-67,-105
-27,-103,-76,65,25,-89,81,190,114,-71,-64,-106
-68,-107,-39,88,-14,-73,78,198,133,-76,-64,-102
-72,-113,-41,92,-15,-76,87,217,151,-73,-72,-112
-50,-119,-69,85,10,-94,100,218,159,-52,-72,-115
-30,-91,-61,61,16,-76,101,213,158,-30,-63,-115
-24,-84,-60,54,19,-72,98,233,187,-6,-56,-115
-45,-101,-55,74,5,-78,109,255,210,5,-51,-115
-50,-102,-51,76,1,-76,121,261,225,22,-48,-115
-51,-100,-49,76,-1,-74,120,267,257,36,-43,-111
-53,-87,-34,71,-9,-60,124,278,281,60,-18,-108
-59,-66,-7,63,-26,-36,125,281,318,100,-6,-104
-63,-28,34,45,-48,3,115,272,352,130,-6,-101
-55,-3,52,29,-54,25,110,266,362,149,6,-97
-40,15,56,12,-48,35,102,259,367,152,11,-88
-40,48,88,-4,-64,67,94,253,356,160,19,-82
-71,40,111,15,-91,75,89,243,339,176,56,-61
-56,55,111,1,-84,82,67,204,295,157,78,-43
-24,75,99,-26,-62,87,25,172,221,114,66,-45
-4,47,50,-22,-27,48,-13,149,142,67,59,-45
32,47,15,-40,8,31,-27,110,59,20,44,-45
10,26,16,-18,-3,20,-25,94,3,-31,3,-45
6,-10,-15,2,11,-12,-24,96,-38,-65,-29,-44
4,-26,-30,11,17,-28,-29,94,-69,-80,-23,-45
11,-29,-40,10,26,-35,-36,96,-83,-86,-10,-45
36,-25,-61,-5,49,-43,-33,93,-85,-85,-26,-44
6,-39,-45,17,26,-42,-30,97,-85,-85,-41,-58
13,-41,-54,14,34,-48,-28,114,-96,-85,-46,-67
23,-40,-63,8,43,-52,-24,115,-88,-102,-38,-64
20,-38,-58,9,39,-48,-28,116,-88,-102,-37,-66
3,-58,-61,27,32,-59,-30,121,-113,-94,-61,-70
5,-64,-68,30,37,-66,-30,119,-115,-87,-70,-73
30,-45,-75,7,53,-60,-30,120,-115,-82,-67,-82
13,-52,-64,20,38,-58,-30,120,-114,-71,-66,-85
21,-48,-69,14,45,-58,-31,120,-120,-74,-64,-79
31,-42,-73,6,53,-57,-34,120,-131,-95,-61,-75
5,-67,-72,31,39,-69,-35,120,-131,-84,-59,-70
-1,-54,-53,28,27,-53,-35,119,-129,-85,-57,-74
2,-16,-17,7,9,-16,-34,115,-136,-92,-53,-79
-6,-45,-39,26,16,-42,-36,115,-152,-86,-50,-73
-12,-69,-57,41,23,-63,-33,115,-147,-86,-46,-67
-12,-63,-50,38,20,-56,-38,115,-162,-81,-44,-63
-22,-66,-44,44,12,-55,-51,115,-176,-80,-39,-56
-13,-57,-44,35,16,-51,-50,115,-175,-88,-41,-51
-5,-63,-59,34,27,-61,-50,115,-170,-92,-39,-53
0,-50,-51,26,26,-50,-50,115,-175,-87,-42,-62
28,-25,-53,-1,41,-39,-49,115,-195,-100,-54,-74
14,-27,-41,7,28,-34,-52,115,-193,-108,-56,-71
2,-39,-41,19,22,-40,-56,115,-204,-97,-54,-64
11,-60,-71,25,41,-65,-54,126,-213,-95,-51,-60
5,-61,-66,29,35,-63,-51,131,-208,-95,-50,-52
3,-58,-61,28,32,-59,-49,129,-211,-96,-48,-54
-3,-62,-58,33,28,-60,-44,131,-209,-91,-54,-60
-8,-58,-51,33,22,-54,-46,129,-211,-100,-62,-60
-6,-58,-52,32,23,-55,-50,131,-214,-106,-59,-60
15,-40,-54,13,35,-47,-50,134,-216,-98,-58,-60
25,-31,-56,3,41,-43,-50,135,-214,-94,-54,-60
0,-54,-54,28,27,-54,-50,135,-218,-84,-55,-58
-6,-62,-56,35,25,-58,-50,135,-238,-79,-52,-69
0,-59,-59,30,30,-59,-50,135,-240,-66,-43,-70
11,-48,-59,18,35,-53,-49,132,-240,-76,-40,-65
17,-35,-52,9,35,-43,-43,133,-245,-85,-28,-64
14,-32,-45,9,30,-38,-57,136,-245,-83,-31,-60
3,-41,-44,19,24,-42,-66,133,-245,-100,-46,-60
-30,-52,-22,41,-4,-37,-58,128,-245,-100,-45,-60
-13,-49,-36,32,11,-42,-55,147,-245,-100,-44,-60
15,-45,-61,15,38,-53,-50,157,-245,-98,-40,-60
5,-45,-50,20,28,-47,-44,154,-245,-87,-40,-60
-9,-60,-51,34,21,-55,-51,155,-243,-78,-38,-60
-14,-60,-46,37,16,-52,-56,154,-252,-68,-30,-57
-1,-46,-45,24,22,-45,-55,169,-257,-64,-25,-54
10,-29,-40,10,25,-34,-55,177,-246,-59,-17,-51
17,-7,-24,-4,20,-15,-50,174,-238,-52,-11,-49
20,6,-14,-13,16,-4,-50,175,-224,-48,-4,-33
15,15,0,-15,7,7,-50,184,-200,-42,4,-24
24,40,16,-32,4,28,-69,186,-199,-40,23,-26
24,57,33,-40,-5,45,-95,176,-218,-40,25,-25
32,38,7,-35,12,22,-94,173,-241,-41,11,-25
17,28,11,-22,3,19,-95,173,-276,-69,-6,-24
1,5,4,-3,-1,4,-90,176,-301,-90,-34,-29
39,-15,-54,-12,47,-34,-87,175,-317,-97,-46,-40
15,-21,-37,3,26,-29,-71,189,-314,-102,-42,-41
13,-28,-41,8,27,-34,-60,190,-308,-86,-43,-41
17,-31,-48,7,33,-39,-48,196,-311,-99,-80,-66
-9,-38,-29,24,11,-33,-49,201,-299,-75,-65,-46
-8,-80,-72,44,32,-76,-39,202,-309,-93,-70,-51
25,-50,-74,13,49,-62,-34,226,-278,-68,-55,-50
5,-46,-51,21,28,-48,-35,210,-283,-73,-48,-48
-24,-132,-108,79,42,-119,26,288,-254,-93,-93,-85
-35,-223,-188,129,77,-206,106,397,-167,-61,-143,-154
123,-97,-220,-13,172,-158,108,497,103,200,54,-24
639,661,22,-650,308,342,-424,169,171,911,913,735
453,836,383,-645,35,609,-790,-501,-762,277,778,835
-111,381,492,-135,-302,436,-460,-438,-1088,-616,-101,152
-120,225,345,-53,-233,285,-194,7,-471,-220,-100,-25
-80,25,105,27,-92,65,-43,218,-283,-98,-70,-60
-43,-25,18,34,-31,-4,18,306,-219,-69,-98,-80
-54,-65,-11,59,-21,-38,38,350,-186,-40,-86,-70
-61,-108,-47,85,-7,-77,62,372,-182,-72,-105,-103
-38,-97,-60,68,11,-78,57,369,-166,-36,-85,-95
-41,-97,-56,69,8,-76,70,388,-173,-63,-104,-104
-45,-90,-45,67,0,-67,60,397,-156,-40,-88,-95
-62,-137,-75,100,7,-106,81,416,-160,-51,-94,-96
-54,-135,-81,95,14,-108,85,424,-147,-36,-88,-95
-62,-141,-79,102,8,-110,85,430,-142,-37,-90,-98
-43,-120,-78,82,18,-99,84,455,-133,-32,-91,-102
-58,-132,-74,96,8,-103,87,463,-122,-25,-89,-108
-60,-136,-76,98,8,-106,94,476,-104,-25,-88,-111
-38,-107,-69,73,15,-87,95,485,-81,-16,-83,-110
-51,-115,-64,83,7,-89,118,490,-70,-18,-82,-109
-61,-118,-58,90,-1,-87,121,516,-53,11,-78,-105
-74,-126,-52,100,-10,-89,118,524,-32,41,-76,-105
-65,-110,-45,88,-10,-77,122,528,0,57,-74,-103
-78,-93,-14,86,-32,-53,118,545,40,83,-69,-99
-98,-92,7,95,-52,-42,125,549,51,83,-70,-101
-105,-77,28,91,-66,-24,130,554,56,76,-70,-103
-127,-80,47,103,-87,-17,132,548,55,71,-70,-106
-112,-83,30,97,-71,-26,133,543,43,64,-70,-104
-99,-47,52,73,-75,2,122,537,36,61,-66,-106
-109,-32,77,70,-92,22,108,532,26,50,-73,-106
-83,-32,51,57,-67,9,89,524,14,40,-47,-71
-61,-27,34,43,-47,3,61,501,-14,26,-17,-40
-35,-24,11,29,-23,-6,29,490,-55,19,1,-28
4,-19,-22,8,13,-20,14,486,-104,5,13,-20
-7,-37,-30,22,12,-33,7,483,-139,-13,5,-14
-17,-47,-31,32,8,-39,2,479,-159,-28,12,-7
12,-43,-56,16,35,-50,0,476,-176,-35,10,-1
20,-46,-67,14,44,-56,-5,471,-180,-38,-4,5
14,-50,-64,18,39,-57,-7,476,-175,-63,-12,-6
31,-49,-80,9,56,-64,-14,489,-165,-63,-9,-11
36,-44,-80,4,59,-62,-21,496,-155,-51,0,-5
28,-42,-70,7,49,-56,-20,510,-144,-44,8,-3
26,-37,-64,6,45,-50,-19,518,-133,-32,16,2
21,-34,-55,6,39,-44,-16,538,-120,-21,18,5
7,-43,-50,18,29,-46,-14,547,-109,-8,13,8
-2,-45,-43,24,21,-44,-16,542,-97,2,9,16
3,-35,-38,17,21,-37,-20,559,-84,13,28,20
8,-24,-32,8,20,-28,-19,565,-77,20,27,10
19,-8,-27,-5,23,-17,-17,566,-55,45,35,25
31,22,-9,-26,20,7,-13,575,-24,73,59,45
43,68,25,-56,9,46,-20,569,9,94,76,57
40,85,45,-62,-3,65,-47,562,1,97,90,65
15,60,45,-37,-15,52,-61,555,-42,56,72,55
34,31,-3,-33,18,14,-67,549,-75,11,60,51
65,17,-48,-41,57,-15,-72,546,-121,-12,54,46
56,14,-42,-34,49,-14,-69,553,-131,-8,45,38
60,9,-51,-34,56,-21,-61,569,-128,1,44,36
51,-24,-75,-13,64,-49,-45,590,-128,-6,32,26
32,-42,-75,5,54,-58,-40,604,-122,-18,30,27
2,-68,-70,33,36,-69,-26,606,-149,-53,-6,16
-5,-75,-69,40,33,-72,-25,616,-135,-37,-15,17
-12,-75,-63,44,26,-69,-22,609,-141,-52,-24,9
-10,-77,-67,44,29,-72,-14,629,-121,-42,-18,4
5,-69,-74,32,40,-71,-22,611,-126,-40,-8,1
-4,-126,-123,65,60,-124,25,673,-114,-64,-48,-43
-31,-221,-190,126,80,-205,108,794,-45,-82,-128,-119
61,-180,-241,60,151,-210,160,906,172,87,-37,-61
585,514,-71,-550,328,221,-344,649,314,849,803,637
552,952,401,-752,75,676,-883,-129,-577,421,909,944
-17,551,568,-267,-293,559,-611,-185,-1024,-536,82,349
-73,230,302,-78,-188,266,-230,363,-360,-216,-38,65
-54,25,79,15,-67,52,-50,615,-93,-30,-12,17
-66,-56,10,61,-38,-23,25,721,-28,14,-28,-8
-39,-70,-31,55,-4,-50,38,753,3,68,-6,-4
-36,-86,-49,61,7,-67,64,777,8,31,-31,-30
-22,-80,-58,51,18,-69,59,784,34,54,-10,-27
-59,-119,-61,89,1,-90,72,798,34,35,-28,-53
-65,-116,-51,91,-6,-83,73,823,61,81,-13,-48
-39,-114,-75,76,18,-94,76,825,52,72,-23,-51
-16,-108,-92,62,38,-99,90,847,84,75,-19,-50
3,-104,-108,51,56,-106,90,852,101,77,-15,-48
-20,-98,-78,59,29,-88,90,854,117,87,-15,-46
-7,-113,-105,61,49,-109,105,873,135,88,-8,-43
-58,-121,-63,90,2,-92,103,892,154,102,-12,-38
-18,-120,-101,69,41,-110,109,903,177,118,-15,-49
-73,-119,-46,97,-13,-82,129,916,200,121,-9,-71
-303,-88,215,195,-259,64,131,934,244,160,6,-74
