I,II,III,aVR,aVL,aVF,V1,V2,V3,V4,V5,V6
5,-120,-125,58,65,-122,-4,55,-17,44,79,64
8,-122,-130,57,69,-126,1,55,-31,41,79,57
10,-121,-132,56,71,-126,6,55,-35,35,76,50
6,-150,-156,72,82,-153,16,54,-36,25,66,39
20,-171,-191,76,106,-181,32,55,-33,24,63,33
3,-175,-178,87,90,-176,38,56,-36,12,27,23
-19,-197,-178,108,80,-188,28,53,-34,18,27,24
-22,-204,-183,113,81,-193,33,59,-30,13,23,16
-56,-232,-176,144,60,-204,21,49,-31,14,24,15
-50,-253,-203,152,76,-228,30,65,-20,20,30,12
-39,-247,-207,143,84,-227,35,54,-30,4,12,8
-38,-231,-192,135,77,-211,49,70,-11,23,40,36
-72,-254,-182,164,55,-218,60,68,-23,-14,19,-6
-95,-235,-140,165,23,-187,59,85,30,38,54,-17
-70,-146,-76,109,3,-111,300,378,204,130,31,-51
301,226,-75,-263,187,76,139,528,752,898,762,452
876,599,-277,-737,576,160,-614,-36,770,1192,1417,1120
740,298,-442,-519,591,-72,-970,-862,-472,-189,491,800
319,-52,-371,-133,345,-211,-632,-754,-799,-656,-112,302
53,-180,-233,64,144,-206,-163,-194,-280,-261,-79,48
-103,-261,-159,182,28,-210,3,-27,-144,-159,-95,-66
-40,-217,-176,128,68,-196,79,88,-19,-15,-14,-38
-56,-203,-147,130,46,-174,105,99,-6,-24,-32,-64
-54,-185,-131,120,39,-158,94,97,10,-4,-9,-47
-61,-217,-156,139,48,-186,122,133,19,-11,-28,-58
-134,-257,-123,196,-5,-190,118,127,18,-12,-36,-62
-153,-258,-105,205,-24,-181,116,132,33,-7,-22,-58
-128,-244,-116,186,-6,-180,115,129,21,-13,-23,-63
-85,-198,-114,142,15,-156,106,128,18,-5,-9,-57
-87,-190,-102,139,8,-146,123,141,30,11,-8,-58
-98,-190,-92,144,-3,-141,138,154,60,45,-14,-52
-109,-189,-80,149,-14,-134,124,137,50,33,-19,-51
-123,-191,-68,158,-28,-129,125,145,47,30,-3,-47
-120,-183,-63,152,-28,-123,126,148,47,28,5,-45
-89,-173,-84,131,-2,-128,135,150,36,18,-6,-43
-77,-156,-79,116,2,-117,124,160,47,26,-4,-39
-65,-125,-59,95,-3,-92,100,163,55,25,5,-36
-33,-83,-50,59,8,-66,111,191,78,42,15,-33
-45,-89,-44,68,0,-66,121,209,111,70,14,-29
-41,-87,-46,64,3,-66,132,241,132,84,34,-14
-11,-53,-43,32,16,-48,144,283,170,107,59,9
14,-37,-50,12,32,-43,148,307,193,123,68,26
-4,-15,-11,10,4,-13,150,335,225,158,101,46
9,27,18,-18,-5,22,140,335,248,180,123,69
53,72,19,-63,16,45,130,321,237,177,146,87
77,76,-1,-76,39,37,119,300,223,171,158,109
114,65,-49,-89,81,8,86,260,204,161,164,118
108,68,-40,-88,73,14,51,214,179,155,167,114
88,50,-38,-68,62,6,24,169,148,146,153,105
52,19,-33,-35,42,-7,12,131,111,128,121,70
36,7,-29,-21,32,-11,10,89,58,108,89,37
15,-48,-64,17,40,-56,4,68,31,93,81,18
-23,-93,-70,58,24,-81,0,63,26,75,70,-2
-13,-78,-65,47,26,-72,-4,57,17,61,53,-21
-32,-94,-61,63,15,-77,-21,51,8,42,35,-54
-23,-81,-58,53,17,-70,-26,45,-2,35,28,-62
-22,-76,-54,50,16,-65,-22,40,-26,15,20,-57
-39,-99,-60,69,11,-79,-19,40,-46,-3,18,-69
-22,-86,-63,55,21,-75,-17,40,-32,21,35,-75
-11,-70,-60,41,25,-65,-13,39,-18,24,36,-70
-1,-70,-69,36,34,-70,-16,41,-24,14,32,-74
-67,-92,-25,80,-20,-58,-15,35,-35,4,30,-81
-56,-97,-41,76,-7,-69,-8,46,-49,9,26,-68
-15,-88,-73,52,29,-80,-15,61,-49,22,25,-83
-57,-91,-34,74,-12,-62,2,51,-24,11,21,-95
-44,-79,-35,62,-4,-57,12,47,-8,7,15,-82
-37,-72,-35,55,-1,-53,4,42,-18,-2,7,-79
-36,-64,-28,50,-4,-45,-6,33,-26,-3,1,-70
-23,-54,-30,39,4,-42,14,52,-20,5,-7,-65
-34,-55,-21,45,-6,-38,31,73,-15,11,-9,-61
-10,-41,-31,26,11,-36,8,65,-12,18,1,-59
-12,-55,-43,33,16,-48,4,64,-5,24,6,-61
-15,-44,-30,30,8,-37,14,60,-11,29,20,-59
-13,-38,-25,25,7,-31,16,59,-33,26,3,-61
-103,-94,9,98,-56,-42,4,62,-35,24,-3,-57
-82,-83,-1,83,-41,-42,10,55,-27,26,30,-54
24,-44,-69,10,47,-56,17,63,-21,24,30,-56
25,-44,-70,10,48,-57,7,53,-14,26,25,-50
-10,-66,-56,38,23,-61,5,41,-7,22,23,-52
-37,-84,-47,61,5,-65,-3,45,-10,14,18,-46
-33,-72,-39,53,3,-56,-7,29,-41,8,15,-49
-33,-81,-48,58,7,-64,-13,21,-56,0,11,-64
-11,-54,-43,33,17,-48,-15,18,-54,-7,9,-50
1,-17,-18,8,10,-17,-16,13,-55,-15,6,-36
-18,-59,-41,39,12,-50,-21,12,-55,-8,3,-33
13,-65,-78,26,46,-71,-20,4,-56,-12,0,-39
-10,-76,-66,44,28,-71,-20,11,-52,-27,-1,-42
-33,-96,-63,65,15,-79,-20,25,-50,-24,-6,-35
-10,-69,-59,40,25,-63,-20,16,-47,-20,1,-35
-21,-74,-53,48,16,-63,-21,4,-44,-17,13,-30
-63,-114,-50,89,-6,-82,-17,-3,-41,-12,9,-29
-64,-113,-49,89,-7,-81,-15,2,-40,-10,6,-49
-24,-75,-51,50,14,-63,-11,10,-46,-15,2,-51
-40,-87,-47,64,4,-67,-10,6,-48,-15,-1,-41
-26,-91,-65,58,20,-78,-5,2,-44,-15,-6,-46
7,-76,-82,35,45,-79,-6,-3,-42,-14,2,-44
9,-71,-80,31,45,-75,-19,-7,-39,-20,13,-41
1,-62,-63,31,32,-62,-20,-10,-35,-30,-3,-39
-30,-54,-24,42,-3,-39,-13,6,-35,-14,-5,-30
-28,-46,-18,37,-5,-31,0,18,-17,16,8,-20
8,-16,-24,4,16,-20,21,24,-9,34,23,-10
18,29,11,-23,3,20,39,53,-8,39,35,-2
22,38,16,-30,3,26,21,53,11,35,43,6
29,33,4,-32,12,18,-23,17,8,27,50,8
35,36,1,-35,16,18,-49,-15,-9,22,44,26
41,29,-12,-34,26,8,-47,-22,-25,13,39,41
42,12,-30,-27,36,-9,-41,-17,-31,10,37,29
56,-9,-65,-23,61,-37,-34,-15,-36,3,28,16
1,-53,-54,27,28,-53,-31,-13,-39,7,29,9
-44,-83,-39,64,-2,-61,-26,-8,-44,2,17,-3
-39,-91,-52,66,7,-71,-23,-10,-43,-2,15,-22
-67,-101,-34,85,-16,-67,-19,0,-36,5,12,-35
-32,-115,-82,74,25,-99,-14,-15,-61,-25,1,-45
-11,-123,-112,67,51,-117,-15,-33,-52,-33,3,-49
-55,-129,-74,92,10,-101,-3,-31,-54,-41,-25,-60
-33,-112,-79,73,23,-95,-11,-23,-38,-9,7,-37
-35,-105,-71,70,18,-88,8,-12,-38,-28,-23,-55
-44,-95,-51,70,4,-73,-1,-15,-10,24,20,-26
-92,-81,11,87,-52,-35,183,200,107,75,-4,-74
150,169,19,-160,65,94,257,494,541,555,415,180
873,619,-255,-746,564,181,-413,174,913,1126,1225,878
955,499,-455,-727,705,22,-1002,-766,-136,107,645,793
449,123,-326,-286,387,-101,-831,-1008,-939,-704,-128,309
135,-53,-189,-41,162,-121,-333,-424,-450,-364,-132,59
-27,-135,-108,81,41,-121,-62,-123,-191,-191,-129,-84
-56,-111,-55,84,0,-83,24,-7,-67,-34,-45,-43
-78,-120,-41,99,-18,-80,87,56,-31,-4,-52,-70
-58,-97,-39,77,-9,-68,76,48,-44,-10,-35,-81
-64,-104,-40,84,-12,-72,87,63,-13,8,-25,-74
-89,-129,-40,109,-24,-85,84,48,-25,-2,-29,-77
-74,-114,-40,94,-17,-76,78,65,0,15,-14,-66
-71,-108,-36,90,-17,-72,77,72,-8,19,-20,-69
-79,-120,-40,100,-19,-80,70,67,2,40,-7,-60
-127,-138,-11,133,-58,-74,71,81,3,33,-8,-58
-114,-129,-16,122,-49,-72,61,94,7,35,2,-51
-106,-120,-15,113,-45,-67,82,96,13,36,8,-46
-86,-108,-22,97,-32,-64,102,100,34,34,13,-40
-52,-73,-21,62,-15,-47,99,106,48,36,22,-35
-70,-58,12,64,-41,-22,103,113,47,35,23,-30
-98,-90,8,94,-53,-41,105,117,57,33,20,-30
-86,-54,32,70,-59,-11,105,132,69,42,20,-26
-58,-67,-9,62,-24,-38,109,149,75,52,17,-26
-42,-85,-43,64,1,-64,127,184,108,73,32,-20
-16,-22,-6,19,-4,-14,140,222,140,93,45,11
-39,-42,-3,40,-18,-22,152,250,161,114,56,27
-16,-19,-3,18,-6,-12,167,277,209,139,87,36
-15,8,22,3,-18,15,173,307,231,151,113,62
-19,30,49,-6,-34,39,172,334,256,183,128,86
41,76,35,-59,3,55,163,326,265,190,143,106
69,89,20,-79,25,54,149,311,252,183,163,120
113,104,-9,-109,61,47,121,259,227,188,165,128
97,98,1,-98,48,49,79,180,180,170,159,127
63,73,10,-68,26,42,49,147,158,139,145,112
78,40,-38,-59,58,1,43,123,138,120,121,93
49,-5,-54,-22,51,-29,36,92,108,111,105,63
23,-52,-75,15,49,-64,28,58,70,98,90,24
5,-77,-82,36,44,-79,20,35,45,78,72,1
-13,-83,-70,48,29,-77,16,35,43,60,58,-4
5,-69,-74,32,40,-71,32,34,39,55,51,-8
-9,-86,-77,48,34,-81,38,30,35,50,46,-13
-52,-123,-70,88,9,-96,31,30,32,44,41,-16
-18,-89,-71,53,27,-80,26,29,28,39,34,-23
28,-70,-98,21,63,-84,24,25,23,34,33,-33
-29,-114,-85,72,28,-99,15,25,17,30,14,-35
-42,-112,-70,77,14,-91,23,25,10,28,22,-55
-37,-107,-69,72,16,-88,41,21,17,25,48,-68
-44,-105,-61,74,9,-82,40,20,27,21,41,-63
-12,-70,-57,41,23,-63,39,19,24,20,37,-66
-50,-100,-50,75,0,-75,41,21,26,20,23,-65
-57,-112,-55,85,-1,-83,39,19,24,24,14,-65
-38,-94,-56,67,9,-75,43,23,25,24,9,-61
-38,-92,-55,65,9,-73,53,39,24,27,3,-59
-49,-105,-55,77,3,-80,55,41,19,29,-4,-60
-32,-87,-55,60,12,-71,48,39,21,30,0,-53
-32,-86,-55,59,12,-70,45,39,17,36,33,-57
-75,-133,-59,104,-8,-96,40,34,15,35,40,-51
-58,-117,-59,88,1,-88,35,36,14,32,31,-49
-57,-108,-50,83,-3,-79,40,35,23,27,28,-67
-46,-92,-45,69,0,-68,38,34,32,43,21,-61
-63,-99,-35,81,-14,-67,32,47,27,62,16,-53
-41,-90,-49,66,4,-69,27,34,25,54,18,-56
-2,-63,-61,33,30,-62,22,13,20,50,20,-54
-33,-72,-40,53,4,-55,15,16,16,47,20,-55
-9,-63,-54,36,23,-58,22,15,14,40,24,-55
-15,-91,-76,53,31,-83,39,15,10,43,26,-51
8,-64,-72,29,40,-68,40,16,11,45,23,-50
-12,-72,-61,42,25,-66,41,13,7,45,20,-49
-18,-75,-57,47,20,-66,44,10,5,48,20,-52
-1,-50,-49,26,24,-50,46,5,4,51,17,-68
-81,-122,-41,102,-20,-81,44,3,16,49,15,-66
-34,-115,-82,75,25,-98,36,-2,15,44,14,-58
-22,-88,-66,55,22,-77,29,-6,-3,38,26,-56
-32,-80,-48,57,8,-64,22,17,16,30,51,-61
-4,-67,-64,36,30,-65,15,17,16,25,39,-66
-20,-60,-40,40,10,-50,6,-14,-14,15,19,-69
-6,-55,-48,31,21,-51,17,-21,-21,22,23,-83
-24,-82,-58,53,17,-70,27,-20,-19,41,24,-84
-26,-78,-52,52,13,-64,24,-20,-16,40,26,-77
-47,-76,-29,62,-8,-52,25,-15,-13,39,24,-74
-39,-68,-29,54,-5,-48,20,-15,-11,41,26,-68
-26,-49,-24,38,-1,-36,21,-13,-8,39,25,-65
-8,-26,-18,17,5,-21,19,8,-1,43,18,-53
53,25,-29,-39,41,-2,42,23,11,53,46,-37
32,55,22,-44,5,38,56,32,19,72,40,-36
6,71,66,-39,-30,68,56,33,21,89,44,-35
-17,47,64,-15,-41,55,36,21,-1,85,69,-31
57,58,1,-58,28,29,-38,-11,-11,82,60,-30
116,92,-24,-103,70,34,-55,-51,-8,77,63,-29
55,62,7,-58,24,34,-41,-46,-20,74,66,-26
60,48,-12,-53,36,18,-37,-34,8,76,72,-1
9,-2,-11,-3,10,-7,-25,-48,-3,44,34,-17
-31,-49,-18,40,-6,-33,-21,-54,-37,5,-6,-59
4,-32,-35,14,20,-33,-11,-51,-45,-4,-14,-72
-15,-28,-13,22,-1,-20,-12,-45,-48,4,-31,-83
-47,-69,-22,58,-13,-45,-1,-40,-51,-28,-54,-94
-53,-84,-31,68,-11,-57,-4,-39,-53,-18,-37,-76
-66,-58,8,62,-37,-25,9,-29,-54,-21,-51,-84
-42,-46,-4,44,-19,-25,-3,-49,-58,-14,-42,-71
-47,-79,-32,63,-7,-56,-6,-29,-34,-4,-37,-68
-99,-99,1,99,-50,-49,13,-31,-53,-16,-52,-83
-105,-64,41,84,-72,-11,66,39,19,53,-11,-71
-68,45,114,11,-91,79,296,366,283,226,75,-53
527,444,-83,-486,305,180,-10,413,835,911,854,533
1057,630,-427,-843,742,101,-799,-371,449,637,973,887
731,349,-382,-540,556,-17,-1008,-1125,-809,-555,16,437
272,83,-188,-177,230,-52,-574,-773,-747,-557,-189,120
6,-73,-79,34,43,-76,-146,-244,-244,-227,-137,-66
-42,-80,-38,61,-1,-59,-14,-96,-127,-105,-122,-102
-80,-61,18,70,-48,-21,68,35,-6,-13,-49,-79
-82,-44,39,63,-60,-2,83,34,-36,-40,-75,-100
-86,-56,30,71,-58,-12,65,31,4,-7,-50,-82
-159,-89,70,124,-114,-10,76,33,-2,-17,-57,-95
-103,-52,51,78,-77,-1,72,37,9,-3,-41,-82
-88,-39,49,63,-68,5,83,52,37,-4,-43,-82
-108,-56,52,82,-80,-2,88,51,32,-2,-39,-75
-115,-68,47,92,-81,-10,91,58,38,6,-33,-71
-92,-38,54,65,-73,8,84,46,27,1,-32,-68
-101,-39,62,69,-81,11,84,54,32,12,-26,-61
-90,-31,59,60,-74,14,79,81,22,36,-24,-57
-26,23,49,2,-38,36,78,86,28,42,-17,-51
-82,-1,81,41,-81,40,96,87,59,38,-14,-46
-150,-54,96,101,-122,21,102,90,68,41,-9,-40
-125,-40,85,82,-105,22,93,94,61,38,-5,-35
-100,-16,84,58,-91,34,99,123,73,44,4,-29
-82,-9,73,45,-78,32,126,155,107,61,21,-18
-47,21,68,13,-58,44,138,185,133,89,47,-12
-43,19,63,11,-53,41,140,210,152,107,62,3
-61,12,72,24,-67,42,153,239,184,120,67,33
-26,70,96,-22,-62,83,160,272,213,154,91,48
-4,79,84,-38,-44,81,155,295,233,166,118,64
37,103,66,-71,-15,84,147,300,254,183,134,93
95,148,53,-121,21,100,142,292,267,209,147,122
91,137,46,-114,22,91,133,265,255,205,148,126
117,159,43,-138,37,100,109,209,228,188,142,129
83,133,50,-109,16,91,75,162,191,169,138,131
64,86,22,-75,21,54,44,119,145,146,133,101
112,77,-36,-94,74,20,33,73,115,122,108,59
88,55,-34,-71,61,10,29,53,88,105,85,33
71,41,-30,-56,50,5,24,38,58,95,80,20
44,9,-35,-26,39,-13,21,6,39,85,73,8
4,-32,-35,14,20,-33,14,0,22,53,47,0
-21,-54,-34,38,7,-44,20,10,19,39,25,-3
-20,-61,-41,40,11,-50,27,16,28,48,23,-12
11,-47,-57,18,34,-52,25,18,23,41,19,-32
7,-36,-43,15,25,-39,24,11,15,34,17,-36
-32,-62,-30,47,-1,-46,25,6,10,27,10,-34
-67,-79,-12,73,-27,-45,24,2,2,19,14,-35
-60,-72,-12,66,-23,-42,25,-7,-3,11,25,-35
-48,-70,-23,59,-12,-46,37,-7,-3,21,17,-35
-50,-56,-6,53,-22,-31,40,8,4,33,11,-35
-27,-54,-27,41,0,-40,34,11,4,29,3,-35
5,-36,-41,16,23,-38,32,8,-1,30,-5,-34
-7,-44,-36,26,15,-40,28,12,1,25,-8,-52
-32,-62,-30,47,-1,-46,23,8,-3,25,-5,-62
-56,-49,7,52,-32,-21,42,16,20,24,0,-59
-58,-64,-5,61,-26,-34,57,31,43,19,2,-61
-34,-39,-5,37,-14,-22,55,27,37,22,8,-59
-46,-33,13,39,-29,-10,52,21,34,17,8,-60
-24,-28,-4,26,-9,-16,44,18,31,29,25,-54
-7,-10,-3,9,-2,-7,37,12,26,49,43,-49
-21,-27,-5,24,-8,-16,30,9,24,43,37,-43
13,-10,-23,-2,19,-16,22,1,19,35,35,-38
8,-25,-33,9,20,-28,16,-6,14,29,31,-32
-27,-45,-18,36,-4,-31,15,-12,10,19,26,-30
-50,-55,-5,53,-22,-29,13,-38,4,19,24,-50
-42,-22,20,32,-30,-1,26,-41,3,42,17,-54
-2,-2,0,2,-1,-1,33,-30,-16,40,13,-44
-1,-23,-22,12,10,-22,19,-35,-38,23,7,-43
-29,-8,21,18,-25,7,11,-36,-33,29,2,-33
-69,-37,32,53,-50,-3,4,-41,-30,29,-5,-31
-72,-49,23,60,-47,-12,0,-37,-28,25,0,-46
-46,-22,24,34,-35,1,-7,-34,-24,22,8,-48
-25,-10,15,17,-20,3,-8,-36,-28,17,16,-40
-51,-38,13,44,-32,-12,-1,-31,-31,16,30,-36
-66,-62,4,64,-34,-29,14,-31,-34,7,29,-30
-16,-13,3,15,-10,-5,28,-28,-37,12,20,-24
-28,14,42,7,-35,28,23,-41,-41,27,17,-49
-47,1,48,23,-47,24,16,-57,-44,21,12,-68
-46,-13,33,29,-39,10,9,-54,-46,13,9,-63
-45,-8,37,26,-41,14,4,-57,-44,9,6,-68
-38,-5,33,21,-35,14,-6,-61,-46,-1,0,-70
-37,0,37,18,-37,18,1,-58,-43,-3,0,-70
1,34,33,-18,-16,33,-7,-58,-52,-14,-30,-64
-14,25,40,-6,-27,32,-16,-58,-60,-14,-25,-50
-11,50,61,-20,-36,55,17,-37,-29,23,33,-43
25,92,67,-59,-21,79,25,-19,-14,41,46,-36
-1,98,99,-49,-51,98,45,-2,-11,55,69,-30
-9,109,118,-50,-63,113,49,0,10,63,89,-22
17,113,96,-65,-40,104,6,-16,7,57,82,-17
47,131,84,-89,-19,107,-38,-44,-17,64,87,-10
67,127,59,-97,4,93,-74,-86,-52,33,79,-6
82,123,41,-103,20,82,-74,-98,-69,9,72,2
51,80,29,-65,11,54,-62,-93,-61,12,65,3
13,49,37,-31,-12,43,-54,-93,-77,-6,35,-17
-28,40,69,-6,-49,54,-50,-89,-85,-20,18,-39
-68,-12,56,40,-62,21,-42,-90,-86,-35,5,-63
-40,-18,22,29,-30,2,-40,-91,-84,-25,8,-57
-37,-36,0,37,-18,-18,-30,-88,-85,-35,-9,-63
-24,-33,-10,29,-7,-21,-30,-93,-87,-26,-7,-57
-18,-4,14,11,-16,5,-19,-86,-76,-32,-16,-61
-73,-37,36,55,-54,0,-15,-95,-79,-32,-12,-65
-83,-47,36,65,-59,-6,-9,-82,-53,-23,-2,-55
-22,-6,16,14,-19,5,3,-73,-70,-53,-44,-83
-14,5,19,4,-17,12,26,-23,-24,18,-1,-77
-85,41,126,22,-106,83,267,299,212,169,61,-54
469,412,-57,-441,263,177,53,422,761,811,767,466
1081,666,-415,-874,748,125,-741,-309,504,674,1016,889
765,377,-388,-571,577,-6,-1045,-1143,-770,-504,106,512
335,126,-209,-230,272,-41,-672,-897,-864,-624,-197,161
104,23,-81,-63,92,-28,-200,-305,-311,-259,-120,3
-50,-18,32,34,-41,7,-49,-141,-191,-132,-89,-57
-97,-29,68,62,-82,19,-7,-44,-80,-41,-34,-64
-79,-22,58,50,-68,18,48,-18,-63,-44,-60,-75
-47,10,57,18,-52,33,52,-14,-39,-18,-29,-59
-82,-38,44,59,-63,3,63,9,-32,-30,-39,-67
-99,-41,57,69,-78,8,60,24,-27,-18,-30,-57
-101,-33,68,66,-84,17,60,35,-21,-17,-36,-62
-57,-7,50,32,-54,21,51,25,-29,-14,-36,-59
-77,-1,77,38,-77,38,48,28,-21,-8,-38,-60
-109,-23,87,66,-97,32,41,21,-27,-10,-42,-61
-76,-5,71,40,-74,33,35,20,-30,-2,-40,-52
-85,-11,74,48,-79,31,42,23,-37,-3,-47,-44
-58,3,61,27,-59,31,51,37,-17,2,-44,-35
-58,-3,56,30,-57,26,50,40,-16,3,-46,-27
-71,21,93,25,-82,57,49,39,-12,10,-44,-17
-41,63,105,-11,-73,84,80,75,27,16,-47,-8
-83,20,103,31,-93,61,95,93,33,20,-33,3
-64,43,107,10,-86,75,96,112,55,47,-11,10
-44,60,103,-8,-74,81,102,132,77,42,-3,21
-55,51,106,1,-81,79,91,157,97,70,22,35
-7,92,99,-43,-54,96,106,197,135,101,34,44
7,98,91,-53,-42,94,126,219,155,99,37,68
55,137,82,-96,-14,109,136,263,194,139,67,87
69,145,76,-107,-4,110,126,270,206,143,69,101
67,149,82,-109,-8,116,116,258,194,158,83,135
86,176,90,-131,-2,132,99,238,194,171,100,155
73,153,80,-113,-4,116,60,181,174,149,84,147
105,156,51,-131,27,103,34,129,136,136,80,134
104,139,35,-122,35,87,3,76,98,105,63,119
78,89,11,-84,33,50,-6,38,69,83,43,95
90,65,-25,-77,57,20,-4,12,48,63,22,72
60,53,-7,-57,33,23,-11,-1,27,45,3,58
-18,40,58,-12,-38,49,-11,-18,10,31,-19,45
-23,27,50,-2,-37,38,-17,-43,0,21,-48,27
-11,4,15,3,-13,10,-20,-46,-6,18,-50,16
-30,-25,5,27,-17,-10,-16,-48,-18,10,-50,11
-18,-18,0,18,-8,-9,-6,-53,-34,7,-55,7
-72,-17,55,44,-64,19,0,-54,-34,2,-55,2
-62,-16,46,39,-54,15,10,-57,-27,-2,-56,-2
-40,-29,11,34,-25,-9,14,-60,-23,-6,-61,-9
-77,-50,27,63,-52,-11,-3,-62,-17,-20,-55,-24
-20,-10,10,15,-15,0,0,-67,-9,-12,-45,-22
-47,-36,10,41,-28,-13,11,-66,-34,-25,-74,-8
-46,-47,-1,46,-22,-23,-10,-75,-54,-45,-85,-13
-7,-7,0,7,-3,-3,-14,-48,-48,-35,-74,-30
-40,9,49,16,-45,29,19,-21,-52,-36,-73,-22
-45,-10,36,28,-40,13,27,-44,-43,-30,-64,-4
-82,-52,30,66,-55,-11,19,-43,-28,-22,-60,-17
-80,-38,43,59,-61,2,19,-35,-16,-14,-74,-27
-68,-29,39,49,-53,5,12,-34,-14,-7,-82,-19
-48,-10,38,29,-43,14,11,-26,-27,-1,-78,-19
-52,-19,33,35,-42,7,5,-24,-31,7,-75,-12
-75,-36,39,55,-57,2,-2,-17,-30,11,-75,-12
-11,0,11,6,-11,5,-9,-4,-30,23,-80,-3
-21,-3,17,12,-19,7,-17,-29,-30,-4,-80,-9
-59,-22,37,40,-48,7,-24,-58,-29,-33,-80,-40
-21,9,30,6,-26,19,-30,-55,-37,-29,-80,-39
-2,19,21,-9,-12,20,-1,-54,-37,-26,-79,-33
-62,-24,38,43,-49,7,9,-56,-36,-24,-83,-32
-33,1,34,16,-34,17,-9,-54,-34,-19,-85,-25
11,-3,-15,-4,13,-9,-14,-56,-38,-21,-85,-25
-91,-54,37,73,-64,-8,-21,-72,-58,-33,-85,-37
-100,-33,67,66,-83,16,-22,-66,-51,-30,-85,-33
-59,-26,33,42,-46,4,-9,-59,-44,-24,-85,-24
-29,0,30,14,-29,15,2,-45,-31,-7,-75,-25
-5,39,44,-17,-25,42,-17,-48,-39,-6,-58,-25
-39,29,68,5,-54,48,-28,-82,-72,-31,-59,-25
-65,0,65,32,-65,32,-24,-79,-66,-31,-66,-24
-61,1,63,29,-62,32,-26,-74,-63,-27,-58,-40
-65,5,69,30,-67,37,-25,-74,-60,-26,-55,-49
-77,-25,52,50,-64,14,-25,-68,-55,-20,-50,-33
-28,20,48,4,-38,34,-23,-69,-53,-21,-45,-27
9,54,45,-32,-18,49,-16,-62,-49,-15,-46,-23
-31,8,39,11,-35,23,-9,-60,-51,-11,-41,-17
-46,-14,32,30,-39,9,-27,-76,-46,-28,-58,-36
-47,-37,9,42,-28,-14,-34,-81,-44,-36,-66,-43
-35,-14,22,24,-29,4,-14,-64,-46,-23,-49,-29
14,64,50,-39,-18,56,-6,-53,-25,2,-38,-19
-2,94,96,-46,-49,95,14,-34,-4,28,-20,-5
17,101,84,-59,-34,92,36,-8,-5,36,-14,1
44,106,62,-75,-9,84,26,-34,-5,33,-16,6
-16,93,109,-39,-63,100,-10,-59,-12,41,-12,10
9,100,92,-55,-42,96,-47,-74,-21,40,-10,15
42,97,55,-69,-7,76,-51,-102,-29,17,-10,20
-3,47,50,-23,-27,49,-45,-100,-37,8,-14,16
28,33,5,-30,11,18,-43,-98,-32,-3,-26,4
3,26,23,-14,-11,24,-38,-93,-38,-12,-34,-5
-62,-4,58,33,-60,27,-36,-87,-60,-31,-56,-14
-16,-22,-6,19,-4,-14,-30,-86,-67,-50,-71,-34
-34,-39,-6,37,-14,-22,-31,-88,-65,-36,-66,-38
-63,-59,3,61,-33,-28,-29,-89,-73,-43,-82,-44
-40,-37,4,39,-22,-16,-31,-64,-41,-23,-61,-31
-96,-43,53,70,-75,5,-35,-78,-67,-33,-79,-33
-93,-46,47,69,-69,0,-55,-109,-82,-14,-55,-13
-69,-29,41,49,-55,6,-36,-87,-65,-44,-71,-15
-50,-10,39,30,-44,14,-21,-84,-60,-37,-55,-6
-97,-35,62,66,-79,13,96,60,46,37,-52,-47
-19,90,108,-36,-64,99,295,426,398,343,162,76
724,568,-156,-645,440,206,-153,349,937,1018,1018,762
1033,613,-420,-823,726,96,-903,-616,172,367,789,925
563,300,-262,-431,412,19,-972,-1198,-970,-703,-113,461
228,125,-103,-176,166,11,-503,-680,-638,-481,-184,186
21,-4,-25,-8,23,-14,-130,-233,-224,-208,-165,20
-73,-16,57,45,-65,20,-38,-107,-109,-111,-109,-7
-94,-13,80,53,-87,33,7,-39,-34,-57,-82,-26
-85,-6,80,45,-82,37,32,-44,-64,-59,-93,-29
-113,-41,72,77,-93,15,39,-19,-29,-31,-72,-16
-115,-34,81,74,-98,23,42,-18,-45,-38,-85,-20
-86,-5,81,45,-83,38,37,21,-30,-15,-68,-8
-87,3,90,42,-89,46,51,45,-19,-23,-73,-8
-68,20,88,24,-78,53,55,46,-16,-18,-73,-7
-106,-27,79,66,-92,26,56,71,-27,-20,-85,-23
-71,-5,66,38,-68,30,55,58,-23,-21,-70,-16
-23,31,54,-4,-38,42,55,55,-12,-18,-73,-11
-100,-17,83,59,-92,32,74,92,-10,-15,-81,-6
-117,-21,96,68,-106,37,82,103,4,-8,-70,1
-53,30,83,11,-69,57,79,99,14,-5,-70,4
-32,48,80,-8,-57,64,77,99,25,1,-59,11
-60,47,107,7,-84,77,74,106,31,3,-60,13
-54,66,120,-7,-87,93,76,130,43,19,-38,20
-33,70,103,-18,-68,86,89,155,66,51,-17,21
-34,70,104,-18,-69,87,102,188,96,72,-20,34
-2,85,86,-42,-44,85,89,214,118,66,5,44
-3,95,99,-47,-51,97,111,253,157,93,39,62
34,145,111,-89,-39,127,136,288,193,143,45,98
54,140,86,-97,-17,113,121,285,198,152,47,101
46,137,91,-91,-23,114,109,297,215,154,74,129
117,207,90,-162,13,148,99,285,216,146,98,158
132,216,84,-174,23,150,70,236,196,135,109,149
137,209,72,-173,32,140,27,189,158,123,95,142
128,188,60,-158,34,124,12,143,125,105,72,133
94,144,50,-119,21,97,10,110,106,90,60,123
75,116,41,-96,17,79,4,80,81,55,35,102
34,93,59,-64,-13,76,0,57,53,29,5,75
44,83,39,-64,2,61,-4,41,24,20,-12,52
31,72,41,-52,-5,56,-13,28,-7,10,-24,36
3,63,60,-33,-29,61,-22,18,-38,-1,-40,20
-13,52,65,-20,-39,58,-15,11,-42,-23,-41,13
-17,43,60,-13,-39,51,-10,4,-43,-33,-37,7
16,32,16,-24,0,23,-3,-3,-48,-22,-31,3
-30,27,56,1,-43,41,-1,-9,-49,-24,-32,-4
-56,32,88,12,-72,60,-10,-15,-50,-44,-53,-9
-53,23,76,15,-65,49,-21,-10,-43,-44,-55,-3
-81,5,86,37,-83,45,-22,-11,-45,-46,-55,-15
-96,-11,85,53,-90,37,-14,-9,-37,-43,-54,-7
-59,25,83,16,-71,54,-11,-12,-41,-50,-62,-12
-41,33,73,4,-57,53,-3,-26,-64,-75,-79,-37
-109,-15,94,62,-101,39,0,-9,-49,-59,-66,-24
-83,13,96,34,-89,55,9,14,-37,-46,-56,-9
-55,25,80,15,-68,52,20,16,-36,-44,-54,-6
-39,41,80,-1,-60,60,12,16,-30,-36,-47,-4
8,72,64,-40,-29,68,5,14,-27,-32,-42,-1
-59,8,67,26,-63,37,5,11,-21,-26,-36,0
-51,34,85,8,-68,60,17,9,-16,-22,-32,15
-24,58,82,-17,-54,70,17,13,-13,-19,-26,20
-34,43,78,-5,-56,60,8,29,-7,-16,-21,11
1,77,75,-40,-37,76,3,27,-5,-13,-18,9
-40,30,70,5,-55,49,-5,16,-20,-11,-12,3
-10,59,69,-25,-39,64,-10,10,-17,-9,-13,0
-19,37,56,-10,-37,46,-27,-8,-31,-33,-40,-12
-61,-10,51,35,-56,20,-36,-29,-66,-61,-61,-15
0,67,67,-34,-34,67,-34,-30,-65,-60,-59,-5
-26,46,73,-10,-50,59,-35,-30,-65,-60,-60,10
-69,-4,65,36,-67,30,-35,-31,-66,-60,-60,16
-54,28,82,13,-68,54,-35,-27,-64,-60,-60,-1
-31,67,97,-18,-64,82,-37,-49,-68,-58,-58,-23
-44,45,89,-1,-67,67,-41,-63,-70,-54,-54,-27
-47,38,85,5,-66,61,-39,-58,-70,-55,-55,-8
-7,52,59,-23,-33,56,-44,-61,-70,-55,-55,-14
-4,46,50,-21,-28,48,-45,-59,-70,-55,-55,-30
-33,44,77,-5,-55,60,-45,-61,-70,-55,-55,-29
-38,40,78,-1,-58,58,-40,-65,-75,-59,-50,-22
-31,35,66,-2,-49,50,-37,-65,-75,-62,-45,-20
-25,43,67,-9,-46,55,-30,-68,-75,-66,-40,-14
-8,45,54,-19,-31,49,-2,-71,-75,-70,-37,1
-39,18,58,10,-49,38,-25,-67,-73,-68,-29,-4
-32,42,74,-5,-53,58,-49,-62,-67,-62,-37,-13
14,67,53,-41,-19,60,-43,-55,-62,-57,-58,-19
-8,55,63,-24,-36,59,-47,-52,-59,-54,-57,-21
-23,67,90,-23,-57,79,-43,-43,-53,-48,-50,-12
-16,64,80,-24,-49,72,-47,-43,-50,-45,-45,-9
-6,73,79,-34,-42,76,-38,-42,-43,-33,-40,-3
-31,79,111,-24,-71,95,-19,-23,-36,-16,-35,3
-55,87,142,-16,-99,115,14,-13,-26,-5,-36,7
-12,126,138,-57,-76,132,33,-10,-23,8,-33,26
-3,110,113,-54,-58,111,-7,-16,-14,4,-30,32
14,115,101,-64,-44,107,-47,-34,-13,-5,-30,38
36,133,97,-85,-31,115,-86,-70,-55,-12,-27,53
-17,94,112,-39,-65,103,-97,-87,-70,-21,-25,37
-18,108,125,-46,-72,116,-81,-70,-57,-31,-25,28
29,105,76,-67,-24,90,-73,-70,-63,-59,-54,16
11,60,49,-35,-20,54,-66,-59,-53,-50,-56,9
-35,21,55,7,-45,37,-61,-56,-57,-52,-63,-4
-32,5,37,14,-35,21,-60,-91,-93,-83,-81,-36
-29,35,64,-3,-46,49,-54,-85,-93,-84,-79,-41
-83,3,87,40,-85,45,-50,-80,-88,-78,-76,-38
-102,-28,73,65,-87,22,-49,-76,-71,-59,-58,-31
-86,-13,72,49,-79,29,-37,-71,-74,-68,-84,-36
-52,6,58,23,-55,32,-43,-69,-52,-35,-66,-22
-39,12,51,14,-45,31,-20,-58,-55,-56,-109,-29
-23,23,47,0,-35,35,-38,-66,-49,-24,-72,-7
-139,5,143,67,-141,73,142,156,72,23,-72,-61
145,256,111,-201,17,183,207,465,554,520,383,231
948,682,-267,-815,607,207,-469,108,862,973,1112,892
986,562,-424,-774,704,69,-1057,-887,-264,-93,469,769
509,248,-260,-378,384,-6,-878,-1105,-993,-768,-216,309
122,50,-72,-86,97,-11,-372,-479,-473,-392,-184,102
-56,-7,49,31,-53,21,-107,-174,-233,-237,-196,-25
-47,40,88,3,-68,64,-42,-87,-116,-103,-102,-37
-137,-13,124,75,-130,55,10,-32,-72,-92,-104,-62
-124,-13,111,68,-117,48,33,-23,-73,-87,-89,-54
-68,40,108,14,-88,74,49,5,-46,-76,-73,-60
-43,82,125,-20,-85,103,40,-8,-55,-78,-92,-62
-84,39,122,22,-103,80,40,-26,-30,-58,-99,-50
-72,47,119,12,-96,83,36,-16,-36,-65,-100,-45
-46,70,116,-12,-81,93,33,-2,-29,-56,-85,-30
-64,46,110,9,-87,78,30,-5,-31,-63,-85,-25
-42,70,112,-14,-77,91,31,3,-30,-54,-74,-16
-88,42,131,23,-110,86,36,1,-29,-45,-70,-13
-103,35,138,34,-121,86,35,14,-23,-38,-62,-8
-87,42,129,22,-108,86,35,31,-17,-32,-56,-4
-94,36,131,29,-113,84,36,41,-11,-26,-50,1
-84,40,125,21,-105,82,34,46,-4,-22,-44,5
-52,74,125,-12,-89,99,43,67,20,-15,-38,13
-68,88,156,-10,-112,122,82,109,55,-8,-30,18
-73,66,139,3,-106,102,93,115,62,3,-25,26
-63,83,146,-10,-105,114,87,138,78,24,-13,32
-33,117,150,-42,-92,133,103,175,118,46,9,42
12,143,131,-77,-60,136,97,222,161,87,38,70
-27,147,173,-60,-100,160,102,255,183,113,54,82
11,187,176,-99,-83,181,113,247,202,118,64,101
41,200,159,-121,-59,179,88,237,207,122,85,125
39,195,156,-117,-59,175,77,224,199,129,97,143
85,210,125,-148,-20,167,62,195,199,133,104,162
83,181,99,-132,-8,140,18,140,154,116,103,140
96,175,78,-136,9,126,-16,95,118,98,92,110
60,147,87,-103,-14,117,-36,64,104,71,57,86
6,101,96,-54,-45,98,-42,15,62,32,23,54
45,110,65,-78,-10,87,-39,-27,23,0,-1,34
40,111,71,-76,-15,91,-34,-46,-11,-20,-24,16
9,87,77,-49,-34,82,-29,-58,-25,-27,-24,2
-43,31,74,6,-58,52,-27,-56,-22,-27,-23,-11
-33,41,75,-5,-55,58,-17,-44,-13,-12,-12,-20
4,85,80,-45,-38,82,-34,-59,-29,-30,-28,-33
-42,55,97,-7,-70,76,-61,-83,-64,-63,-68,-49
-65,29,94,17,-80,62,-57,-83,-65,-48,-70,-37
-67,28,95,19,-81,61,-41,-72,-56,-41,-61,-15
-29,67,95,-20,-62,81,-36,-70,-57,-43,-61,-29
-36,58,94,-12,-65,76,-36,-59,-47,-25,-52,-40
-53,45,98,4,-76,71,-23,-42,-32,-28,-38,-32
-30,70,100,-20,-65,85,-40,-63,-59,-60,-59,-59
-44,56,100,-6,-72,78,-37,-63,-59,-63,-68,-74
-52,48,100,2,-76,73,-16,-50,-39,-52,-63,-68
-58,42,100,8,-79,71,-16,-47,-34,-51,-66,-68
-65,36,100,15,-83,68,-7,-38,-28,-41,-57,-64
-73,31,105,20,-89,68,-4,-33,-36,-47,-53,-65
-81,25,105,27,-93,65,4,-26,-34,-50,-47,-60
-85,20,105,32,-95,62,3,-28,-28,-42,-41,-55
-75,30,105,22,-90,67,-3,-31,-25,-38,-36,-51
-56,48,105,4,-81,76,-6,-32,-20,-33,-35,-46
-35,68,103,-17,-69,85,-11,-36,-15,-30,-34,-41
-47,48,95,0,-72,71,-16,-35,-19,-27,-37,-39
-56,34,90,11,-73,61,-31,-33,-31,-22,-48,-56
-5,78,82,-37,-44,80,-38,-50,-38,-20,-52,-60
-6,70,76,-33,-41,73,-33,-59,-34,-25,-53,-51
-17,53,70,-18,-44,61,-33,-53,-36,-32,-58,-51
-23,48,70,-12,-47,59,-28,-44,-34,-28,-59,-41
-67,28,95,19,-82,62,-32,-55,-40,-34,-60,-44
-58,30,87,14,-73,58,-52,-88,-62,-53,-72,-62
-28,47,75,-10,-52,61,-52,-88,-63,-54,-76,-61
-12,89,101,-39,-56,94,-44,-80,-55,-48,-69,-50
-4,105,109,-50,-57,106,-40,-80,-54,-47,-70,-48
-13,96,108,-42,-60,102,-33,-69,-47,-40,-64,-37
-20,78,98,-30,-59,88,-29,-60,-42,-39,-65,-37
-24,61,85,-18,-55,72,-43,-84,-65,-66,-87,-55
-22,54,76,-16,-49,65,-51,-96,-76,-74,-80,-42
-24,51,76,-14,-50,63,-40,-83,-66,-62,-63,-41
-58,40,98,9,-78,69,-40,-83,-64,-58,-66,-47
-56,48,104,4,-80,76,-32,-73,-59,-51,-63,-43
-17,82,99,-33,-58,90,-32,-74,-54,-50,-60,-46
-39,62,101,-11,-70,81,-45,-93,-51,-51,-60,-45
-49,48,97,0,-73,72,-39,-96,-48,-49,-62,-44
-61,34,95,13,-78,64,-36,-95,-52,-51,-66,-40
-69,26,95,21,-82,61,-26,-95,-47,-48,-64,-38
-13,71,85,-30,-49,78,-33,-95,-57,-56,-67,-34
27,83,56,-55,-15,69,-60,-94,-79,-78,-78,-33
9,54,45,-31,-19,49,-46,-87,-66,-62,-61,-28
-10,73,82,-32,-46,77,-38,-83,-56,-53,-56,-29
20,107,87,-64,-34,97,-42,-76,-53,-61,-67,-39
-4,90,94,-43,-50,92,-34,-79,-43,-39,-44,-26
9,133,124,-72,-58,128,-36,-80,-28,-27,-29,-15
42,150,108,-96,-33,129,-27,-81,-17,-21,-23,-9
8,121,113,-65,-53,117,-39,-86,-24,-14,-11,0
32,146,113,-89,-41,129,-85,-81,-32,-6,-16,10
48,150,102,-99,-27,125,-94,-100,-55,-16,-27,18
44,151,107,-98,-32,129,-88,-118,-77,-47,-40,6
12,115,103,-64,-46,109,-91,-113,-79,-60,-47,-9
-43,64,106,-11,-75,85,-81,-116,-82,-66,-45,-19
-60,41,101,9,-81,70,-74,-115,-78,-67,-62,-37
-68,19,87,24,-77,53,-60,-114,-82,-84,-94,-68
-46,27,73,9,-59,50,-59,-116,-78,-68,-88,-63
-58,7,65,25,-62,36,-63,-107,-85,-86,-97,-66
-77,-15,62,46,-70,23,-71,-106,-101,-106,-94,-65
-80,-20,60,50,-70,20,-69,-91,-85,-92,-84,-54
-76,-22,54,48,-65,16,-71,-94,-100,-111,-97,-84
-59,5,65,27,-62,35,-76,-77,-74,-75,-68,-81
-42,13,55,15,-49,34,-73,-90,-99,-122,-103,-105
-13,29,43,-8,-28,36,-55,-91,-61,-60,-50,-70
-147,20,167,63,-157,93,197,196,119,48,-53,-84
260,322,62,-292,99,192,136,431,633,600,506,298
1057,697,-360,-877,708,168,-617,-98,739,832,1060,888
936,479,-457,-707,696,11,-1112,-1063,-499,-335,268,647
435,200,-236,-317,335,-18,-828,-1068,-965,-762,-247,244
137,60,-77,-99,107,-8,-317,-432,-391,-372,-184,29
-37,-20,17,28,-27,-2,-97,-190,-198,-238,-184,-90
-78,20,97,29,-88,58,-34,-85,-81,-97,-99,-59
-84,29,113,27,-99,71,-8,-43,-74,-106,-113,-74
-64,14,78,25,-71,46,-5,-38,-64,-84,-90,-56
-75,-3,72,39,-73,34,13,-31,-36,-79,-93,-57
-63,15,78,24,-71,46,16,-37,-33,-81,-89,-50
-61,26,87,18,-75,57,29,-26,-18,-68,-78,-56
-101,10,111,45,-106,60,33,-33,-30,-75,-85,-62
-127,-9,117,68,-122,54,36,-22,-17,-61,-75,-54
-95,17,112,39,-104,64,41,-8,-22,-67,-78,-55
-95,16,111,40,-103,63,42,4,-19,-73,-89,-49
-83,27,110,28,-97,68,48,12,-12,-65,-84,-48
-127,-19,108,73,-117,44,49,8,-9,-50,-68,-45
-132,-27,104,79,-118,38,54,16,1,-43,-63,-42
-61,44,105,8,-83,74,57,37,1,-40,-58,-34
-104,-2,102,53,-103,49,59,51,16,-33,-52,-28
-72,23,95,24,-84,59,67,61,39,-32,-47,-21
-44,50,94,-3,-70,72,63,68,42,-24,-40,-16
-35,50,85,-8,-60,67,76,106,76,-23,-45,-9
-24,67,91,-22,-58,79,87,141,102,-15,-51,-8
-15,97,112,-41,-64,104,104,172,138,39,-13,4
21,130,109,-76,-44,119,119,196,167,55,29,31
10,120,110,-65,-50,114,107,220,182,77,57,58
25,127,102,-77,-38,114,99,245,226,104,72,92
43,154,111,-98,-34,132,93,237,229,108,85,111
53,177,124,-115,-36,150,94,230,213,111,96,124
83,162,79,-123,1,120,62,181,188,86,89,119
93,150,57,-122,18,103,35,121,149,74,84,106
76,128,52,-103,11,90,32,83,122,60,83,99
64,102,38,-83,13,70,21,33,104,51,61,71
35,67,32,-51,2,49,13,-4,71,27,21,41
12,30,19,-21,-4,24,2,-27,42,-18,4,17
23,36,14,-30,4,25,-7,-31,32,-20,0,-1
-16,25,41,-5,-28,33,-17,-28,19,-20,-12,-17
-82,-28,54,55,-67,12,-24,-54,4,-31,-16,-42
-63,-20,44,41,-53,12,-31,-68,-14,-27,-23,-52
-60,-13,47,36,-53,17,-33,-64,-22,-43,-40,-46
-78,-41,37,59,-57,-1,-26,-69,-19,-45,-37,-45
-55,-12,43,34,-49,15,-22,-70,-19,-38,-31,-41
-54,-34,20,44,-37,-7,-16,-69,-13,-39,-29,-40
-72,-67,5,69,-39,-30,-10,-66,-18,-29,-20,-44
-111,-61,50,86,-80,-5,-6,-65,-43,-54,-45,-46
-100,-53,47,76,-73,-2,3,-62,-42,-71,-61,-50
-64,-30,34,46,-49,2,11,-60,-31,-61,-51,-49
-74,-52,22,63,-47,-15,20,-58,-24,-57,-48,-44
-104,-67,37,85,-70,-15,25,-54,-13,-51,-41,-46
-93,-34,58,63,-76,12,25,-52,-25,-69,-36,-42
-81,-38,43,59,-62,3,25,-49,-30,-71,-40,-40
-97,-54,43,75,-70,-6,25,-46,-21,-58,-48,-40
-73,-39,34,56,-53,-2,26,-44,-17,-52,-41,-37
-70,-39,30,54,-50,-4,23,-39,-11,-43,-29,-32
-49,-24,25,36,-36,0,23,-25,-9,-34,-28,-29
-41,-24,18,32,-29,-3,7,-27,-5,-35,-30,-25
-62,-48,15,55,-38,-16,-1,-36,-1,-46,-30,-22
-10,-23,-13,17,2,-18,8,-34,-1,-45,-29,-18
-36,-42,-7,39,-14,-24,5,-39,-5,-45,-31,-15
-82,-62,20,72,-50,-21,4,-39,-7,-46,-28,-15
-53,-48,5,50,-28,-21,1,-34,-10,-44,-33,-16
-29,-44,-15,37,-7,-29,-2,-35,-7,-48,-22,-13
-47,-52,-5,50,-21,-29,-5,-35,-5,-50,-24,-28
-73,-72,1,73,-37,-36,-7,-35,-21,-45,-49,-41
-12,-38,-26,25,7,-31,-12,-47,-23,-45,-45,-19
-36,-40,-3,38,-16,-21,3,-52,-24,-44,-36,-21
-55,-51,5,53,-30,-23,19,-48,-40,-39,-32,-41
-26,-49,-23,38,-1,-36,12,-46,-40,-41,-24,-40
-60,-72,-12,66,-24,-42,26,-43,-39,-40,-16,-39
-40,-66,-26,53,-7,-45,21,-65,-41,-59,-37,-35
-82,-92,-9,87,-36,-50,-9,-73,-39,-68,-51,-35
-77,-101,-24,89,-27,-62,-7,-58,-38,-53,-39,-33
-54,-83,-29,69,-12,-56,12,-67,-34,-54,-37,-28
-84,-78,6,81,-45,-35,22,-70,-32,-55,-34,-25
-17,-63,-46,40,15,-54,19,-64,-29,-55,-35,-22
-43,-72,-29,57,-7,-50,16,-63,-26,-55,-35,-17
-88,-78,10,83,-49,-34,14,-56,-25,-55,-35,-15
-33,-67,-33,50,0,-50,10,-57,-18,-54,-34,-10
-34,-61,-27,48,-3,-44,9,-69,-12,-47,-27,-5
-22,-20,1,21,-11,-9,2,-66,-1,-41,-23,-3
29,5,-24,-17,27,-10,-2,-59,-14,-34,-17,8
-34,-56,-22,45,-6,-39,-10,-55,-30,-27,-11,-13
-95,-62,33,78,-64,-14,-3,-47,-16,-22,-7,-32
-20,-1,19,10,-19,8,17,-46,-9,-14,0,-15
-14,1,15,6,-15,8,30,-25,5,-7,4,1
-41,13,54,14,-48,33,50,-28,29,11,16,22
30,63,33,-47,-2,48,22,-61,18,27,34,28
24,76,51,-50,-14,64,-33,-71,-7,12,28,22
-20,55,75,-18,-48,65,-49,-77,-13,-6,21,22
-32,43,74,-6,-53,58,-52,-80,-22,-16,14,16
5,1,-4,-3,5,-1,-47,-72,-26,-33,3,17
3,-39,-42,18,23,-40,-40,-69,-35,-50,-9,8
-83,-65,18,74,-51,-23,-38,-92,-50,-56,-30,-20
-47,-61,-14,54,-16,-37,-28,-100,-56,-64,-52,-23
-46,-62,-15,54,-15,-38,-27,-93,-66,-66,-54,-27
-113,-117,-3,115,-55,-60,-20,-89,-64,-85,-71,-48
-98,-109,-11,104,-43,-60,-19,-86,-69,-89,-72,-45
-65,-97,-32,81,-16,-64,-25,-76,-57,-77,-63,-41
-72,-100,-28,86,-22,-64,-4,-76,-68,-97,-81,-45
-71,-80,-9,76,-31,-44,-13,-66,-51,-70,-54,-32
-58,-84,-27,72,-15,-55,-8,-61,-65,-100,-91,-46
-75,-75,0,75,-37,-38,0,-58,-35,-44,-46,-24
-142,-87,55,114,-98,-16,204,198,126,38,-48,-78
221,209,-12,-215,116,98,210,504,672,621,510,298
954,617,-337,-785,645,140,-480,71,891,996,1188,956
902,457,-444,-679,673,7,-1014,-947,-373,-187,430,768
410,160,-249,-285,329,-44,-809,-1063,-976,-755,-184,338
107,-8,-115,-49,111,-61,-312,-429,-391,-341,-137,104
-53,-70,-17,61,-18,-43,-65,-172,-191,-215,-164,-35
-53,-19,33,36,-43,7,26,-81,-82,-93,-75,-17
-107,-89,18,98,-62,-36,72,-40,-57,-94,-92,-54
-104,-95,9,99,-56,-43,52,-37,-50,-77,-78,-48
-122,-82,41,102,-81,-20,65,-21,-27,-69,-76,-50
-118,-70,49,94,-83,-10,57,-24,-34,-73,-79,-51
-57,-43,14,50,-35,-14,61,-9,-12,-55,-64,-49
-98,-103,-6,101,-46,-54,64,-9,-21,-62,-69,-60
-112,-84,28,98,-70,-28,65,1,-5,-46,-54,-48
-105,-78,27,91,-66,-25,66,5,-6,-54,-57,-49
-122,-90,32,106,-77,-29,64,12,1,-45,-44,-41
-139,-94,45,116,-92,-24,67,21,1,-46,-48,-38
-88,-62,26,75,-57,-18,62,19,-3,-43,-47,-36
-39,-6,33,23,-36,13,81,37,30,-37,-30,-43
-95,-72,22,83,-58,-25,97,47,39,-54,-62,-76
-110,-52,58,81,-84,3,94,26,13,-39,-56,-66
-100,-22,78,61,-89,28,95,45,34,-25,-27,-46
-104,-51,53,77,-78,1,96,87,64,-8,-21,-40
-72,-27,46,49,-59,9,94,84,67,9,-5,-30
-53,-16,37,35,-45,10,104,123,98,30,12,-19
-29,11,40,9,-35,25,131,180,139,57,29,15
-12,33,45,-11,-28,38,142,191,159,53,38,31
5,72,67,-39,-31,69,158,241,208,97,74,57
1,72,71,-36,-35,71,158,261,237,120,101,78
32,88,56,-60,-12,71,137,244,220,127,115,101
88,136,48,-112,20,91,126,223,215,147,125,128
54,83,29,-69,12,56,85,181,197,131,113,129
97,89,-8,-93,52,40,46,146,167,121,106,126
103,91,-12,-97,57,40,25,95,130,88,96,99
36,64,28,-50,4,45,16,44,91,71,90,75
23,24,1,-23,11,12,15,8,63,52,53,33
-5,-40,-35,23,15,-38,10,-3,37,24,25,-4
-9,-50,-41,30,16,-45,9,-16,19,17,28,-5
-15,-71,-57,43,22,-64,3,-52,7,-16,13,-29
-33,-58,-25,46,-4,-41,9,-62,-1,-27,7,-36
-48,-70,-22,59,-13,-46,20,-59,-10,-23,3,-35
-49,-92,-44,71,-2,-68,18,-61,-20,-28,2,-41
-42,-89,-47,66,3,-68,9,-59,-25,-30,-4,-40
-53,-109,-56,81,2,-82,20,-54,-27,-30,-2,-45
-67,-116,-49,92,-9,-82,46,-48,-31,-30,-12,-49
-66,-109,-43,87,-12,-75,45,-40,-33,-31,-21,-54
-49,-90,-41,69,-4,-65,44,-36,-36,-29,-16,-57
-30,-94,-64,62,17,-79,46,-25,-41,-50,-55,-69
-13,-80,-68,47,28,-74,42,-31,-38,-61,-62,-77
-25,-82,-57,54,16,-69,38,-54,-33,-53,-42,-75
-44,-91,-47,67,1,-68,32,-50,-29,-52,-38,-73
-62,-92,-30,77,-16,-61,29,-43,-24,-43,-30,-70
-110,-112,-2,111,-54,-56,24,-40,-21,-28,-27,-70
-96,-99,-2,97,-47,-50,19,-33,-18,-16,-22,-67
-61,-95,-35,78,-13,-65,17,-30,-16,-15,-18,-53
-41,-88,-46,65,3,-67,7,-25,-12,-15,-13,-53
-21,-78,-58,50,19,-68,1,-20,-10,-15,-9,-66
-24,-65,-41,45,9,-52,10,-23,-8,-15,-4,-63
-25,-56,-30,41,3,-43,16,-28,-4,-15,0,-60
-31,-56,-25,44,-3,-40,20,-29,-1,-18,5,-57
-31,-51,-20,41,-5,-35,20,-23,3,-24,10,-55
-66,-76,-11,71,-27,-43,20,-14,5,-27,5,-53
-49,-68,-19,59,-14,-43,20,-30,0,-32,-3,-46
-24,-77,-53,51,15,-65,19,-52,-8,-35,-10,-39
-42,-82,-40,62,0,-61,21,-49,-13,-37,-13,-33
-15,-48,-34,32,10,-41,12,-50,-22,-41,-11,-26
-45,-81,-36,64,-4,-58,21,-50,-25,-41,-8,-20
-68,-102,-34,86,-16,-68,37,-50,-37,-49,-22,-39
-28,-64,-35,46,4,-49,29,-51,-56,-29,-31,-47
-40,-75,-35,58,-3,-55,26,-49,-53,-28,-25,-44
-54,-91,-38,73,-8,-64,21,-51,-50,-59,-19,-45
-21,-63,-42,42,10,-52,17,-48,-47,-49,-15,-45
-16,-60,-44,39,14,-51,16,-58,-45,-39,-7,-50
-1,-46,-45,24,22,-45,23,-75,-42,-37,-8,-42
-18,-73,-55,46,19,-64,35,-70,-40,-40,-35,-50
-56,-112,-56,84,0,-84,29,-63,-36,-40,-40,-57
-61,-97,-36,80,-13,-66,25,-61,-36,-42,-29,-54
-80,-98,-18,89,-31,-58,12,-57,-57,-59,-25,-55
-40,-78,-38,59,-1,-58,29,-55,-61,-50,-17,-50
-37,-82,-44,60,4,-63,51,-51,-60,-42,-12,-50
-70,-105,-35,88,-17,-70,36,-49,-65,-46,-6,-50
-61,-90,-29,76,-16,-59,30,-54,-65,-44,-1,-50
-46,-75,-29,61,-9,-51,30,-51,-64,-46,3,-50
-22,-63,-41,43,10,-52,30,-45,-56,-33,8,-46
-6,-47,-42,27,18,-44,29,-39,-49,-4,12,-31
-7,-23,-16,15,5,-19,44,-34,-37,11,17,-19
-19,21,40,-1,-30,30,45,-26,-25,21,29,-15
6,54,48,-30,-22,51,32,-17,-6,37,45,-11
-14,29,43,-8,-29,36,7,-45,-32,32,45,-17
-12,54,66,-21,-40,60,-30,-74,-47,21,35,-4
54,59,5,-57,24,32,-30,-79,-36,-3,26,0
53,10,-43,-31,48,-16,-27,-81,-62,-29,19,-14
-2,-35,-33,19,16,-34,-22,-79,-66,-32,8,-20
-44,-69,-25,57,-9,-47,-18,-81,-65,-23,-6,-38
-63,-40,23,52,-43,-8,-16,-79,-63,-31,-27,-47
-102,-107,-4,105,-49,-55,-10,-77,-71,-66,-39,-63
-58,-114,-56,87,-1,-85,-10,-72,-79,-62,-31,-80
-39,-91,-52,65,7,-71,0,-68,-81,-70,-41,-77
-76,-134,-59,105,-8,-96,-7,-68,-73,-59,-28,-69
-60,-111,-51,86,-5,-81,12,-58,-74,-71,-43,-70
-46,-106,-60,77,7,-83,-8,-65,-69,-60,-27,-45
-67,-116,-49,92,-9,-82,-7,-42,-57,-66,-51,-64
-56,-115,-59,85,2,-86,-14,-54,-74,-71,-44,-71
-90,-111,-21,100,-34,-66,100,64,16,-14,-50,-102
5,59,54,-33,-25,56,321,441,403,333,190,32
658,520,-139,-589,398,190,-139,397,995,1109,1130,751
974,621,-353,-797,663,134,-853,-500,284,497,983,982
581,261,-320,-421,450,-29,-927,-1088,-908,-676,5,487
206,27,-179,-116,193,-76,-473,-625,-622,-495,-138,152
-7,-77,-69,42,31,-73,-99,-197,-224,-230,-131,-23
-51,-88,-36,70,-7,-62,-22,-80,-129,-152,-103,-48
-67,-85,-19,76,-24,-52,29,-5,-38,-88,-79,-79
-103,-106,-3,105,-49,-55,57,-15,-68,-89,-86,-101
-70,-63,7,66,-38,-28,79,9,-29,-51,-51,-79
-71,-68,3,69,-37,-32,73,4,-46,-66,-67,-85
-147,-113,34,129,-90,-39,61,8,-33,-49,-58,-69
-152,-104,48,127,-99,-28,60,14,-32,-53,-62,-68
-124,-97,27,111,-75,-35,43,12,-34,-46,-49,-72
-115,-93,22,104,-69,-35,58,19,-22,-42,-45,-77
-98,-87,11,92,-54,-38,69,27,-30,-53,-38,-71
-133,-83,50,108,-91,-17,67,33,-38,-60,-30,-69
-100,-81,20,90,-60,-30,59,28,-41,-49,-43,-71
-70,-69,1,70,-36,-34,66,32,-14,-36,-42,-69
-118,-64,53,91,-85,-5,101,69,7,-34,-34,-71
-120,-77,43,98,-82,-17,107,71,-3,-28,-28,-68
-106,-58,48,82,-77,-5,103,61,3,-25,-20,-58
-97,-44,53,70,-75,5,107,100,20,-8,-17,-43
-101,-37,64,68,-82,14,119,122,50,20,-7,-28
-64,-18,46,40,-55,14,136,146,78,40,1,-15
-37,13,50,12,-44,31,133,168,97,50,17,-5
-50,45,95,3,-73,70,142,193,127,55,43,0
-30,58,88,-14,-60,73,153,232,164,95,66,24
-1,89,90,-44,-46,89,155,253,209,127,105,64
25,118,93,-72,-34,105,160,262,217,127,119,82
38,136,99,-87,-31,117,141,239,203,134,119,92
41,146,105,-94,-33,126,122,209,194,150,148,118
37,112,76,-75,-20,94,105,170,177,142,151,117
83,89,6,-86,39,47,59,106,143,92,113,93
98,90,-8,-94,53,41,61,70,104,99,93,95
50,58,8,-54,20,33,56,51,67,87,81,66
31,7,-24,-19,27,-8,20,26,37,25,43,5
42,-4,-46,-19,44,-25,33,9,20,14,18,-32
35,-6,-41,-14,38,-24,28,-6,-11,-5,15,-47
-30,-43,-13,37,-8,-28,24,-25,-27,-17,-5,-56
-34,-57,-23,46,-5,-40,24,-26,-23,-8,-12,-55
0,-54,-54,27,28,-54,16,-40,-48,-37,-9,-55
-23,-54,-31,39,5,-42,33,-57,-57,-53,-11,-56
-47,-63,-16,55,-15,-39,41,-47,-50,-48,-9,-53
-52,-83,-31,68,-10,-57,40,-45,-50,-49,-34,-76
-38,-54,-17,46,-10,-35,37,-40,-45,-43,-48,-87
-50,-74,-24,62,-12,-49,34,-35,-44,-46,-43,-84
-44,-95,-51,70,3,-72,35,-38,-41,-40,-46,-90
-6,-45,-39,26,17,-42,31,-47,-39,-37,-44,-89
-45,-77,-32,61,-6,-54,30,-48,-48,-58,-46,-91
-42,-71,-29,56,-6,-50,29,-37,-48,-62,-43,-70
-6,-37,-31,22,13,-34,33,-20,-28,-49,-35,-61
-49,-77,-29,63,-10,-53,41,-8,-30,-43,-30,-72
-55,-86,-32,70,-11,-59,40,-20,-38,-35,-22,-62
-25,-62,-37,44,6,-50,39,-17,-27,-30,-17,-61
-38,-47,-9,42,-14,-27,36,-8,-20,-30,-13,-54
-76,-64,11,69,-43,-26,34,-4,-12,-30,-17,-52
-51,-60,-9,55,-21,-34,37,5,-6,-30,-13,-44
0,-39,-39,20,19,-38,44,9,-5,-30,-15,-44
-11,-45,-34,28,12,-39,46,6,-6,-30,-23,-69
-17,-38,-21,28,2,-29,44,1,-3,-30,-8,-69
-24,-24,1,24,-12,-11,45,-1,-12,-30,-10,-63
-67,-54,13,61,-40,-21,45,-6,-26,-30,-27,-62
-57,-65,-8,61,-25,-36,44,-8,-26,-31,-30,-55
-46,-52,-6,49,-20,-29,38,-16,-22,-28,-29,-54
-44,-77,-34,61,-5,-55,29,-44,-32,-37,-32,-43
-18,-61,-43,40,13,-51,35,-52,-40,-37,-21,-28
-63,-83,-20,73,-21,-51,45,-47,-51,-49,-28,-53
-73,-94,-20,84,-26,-57,39,-46,-58,-66,-49,-67
-44,-63,-19,54,-13,-41,33,-42,-40,-55,-40,-48
-62,-100,-38,81,-12,-69,29,-40,-38,-53,-38,-49
-56,-91,-35,74,-10,-63,19,-37,-41,-49,-35,-51
-41,-45,-4,43,-18,-24,31,-35,-44,-45,-30,-48
-69,-51,19,60,-44,-16,56,-35,-45,-42,-28,-56
-91,-94,-3,92,-44,-48,55,-36,-34,-38,-21,-69
-71,-94,-23,83,-24,-58,55,-34,-44,-35,-34,-86
-40,-87,-47,64,3,-67,55,-37,-52,-35,-47,-96
-17,-68,-51,43,17,-59,55,-23,-48,-31,-44,-95
-21,-42,-20,32,0,-31,53,-24,-52,-29,-45,-95
-36,-59,-23,48,-6,-41,45,-50,-47,-49,-45,-94
-58,-77,-19,67,-19,-48,43,-47,-54,-57,-45,-97
-66,-97,-31,82,-18,-64,34,-41,-55,-54,-41,-83
-56,-93,-37,75,-10,-65,32,-36,-39,-52,-34,-68
-23,-70,-48,47,13,-59,20,-29,-45,-49,-31,-73
-20,-66,-46,44,13,-56,22,-26,-44,-50,-24,-64
-37,-49,-12,43,-13,-30,51,-32,-40,-51,-19,-55
-38,-32,6,35,-22,-13,51,-38,-38,-46,-14,-47
-55,-15,40,35,-47,13,54,-20,-24,-28,-10,-38
-13,37,50,-12,-32,43,63,-11,-13,-19,-6,-31
-10,29,39,-9,-25,34,62,5,2,-19,-2,-21
15,50,36,-33,-11,43,22,-17,5,-12,1,-25
69,100,31,-85,19,65,-39,-73,-23,-12,7,-24
9,47,38,-28,-15,42,-42,-72,-46,-29,-1,-26
34,41,7,-37,14,23,-34,-66,-41,-40,-8,-25
75,19,-56,-47,66,-19,-29,-61,-38,-53,-18,-22
-21,-65,-44,43,12,-54,-16,-55,-32,-48,-25,-46
-87,-80,7,83,-47,-37,-13,-50,-34,-51,-11,-61
-57,-68,-11,63,-23,-39,-4,-51,-69,-93,-45,-76
-6,-54,-48,30,21,-51,-4,-66,-62,-82,-60,-73
-42,-92,-50,67,4,-71,9,-62,-62,-86,-72,-76
-51,-100,-49,76,-1,-74,6,-61,-59,-73,-66,-79
-24,-78,-54,51,15,-66,26,-53,-51,-75,-73,-89
-46,-104,-58,75,6,-81,31,-56,-64,-72,-70,-82
-58,-102,-44,80,-7,-72,23,-43,-48,-73,-65,-78
-61,-75,-13,68,-24,-44,12,-53,-84,-101,-82,-85
-56,-41,15,49,-35,-13,65,19,-2,-14,-49,-86
-96,-7,89,51,-93,41,318,355,246,136,15,-85
493,412,-81,-452,286,166,42,484,873,921,849,518
1071,679,-392,-874,731,144,-743,-232,641,798,1132,982
700,316,-384,-508,542,-34,-1004,-1055,-714,-539,145,566
306,67,-239,-186,272,-86,-609,-800,-798,-656,-197,178
27,-78,-106,26,67,-92,-160,-262,-281,-310,-166,-14
-87,-106,-18,97,-34,-62,-12,-109,-170,-197,-153,-72
-50,-58,-8,54,-21,-33,45,-28,-50,-91,-71,-71
-67,-78,-11,73,-28,-44,75,-19,-58,-106,-86,-81
-47,-59,-12,53,-17,-35,82,10,-32,-79,-67,-76
-118,-104,14,111,-66,-45,83,9,-28,-86,-79,-105
-155,-105,50,129,-102,-27,72,24,-24,-65,-71,-94
-107,-78,29,92,-68,-24,74,45,-39,-94,-98,-92
-96,-84,12,90,-54,-36,63,37,-42,-96,-100,-88
-60,-59,0,60,-30,-29,73,40,-17,-73,-91,-81
-39,-50,-11,45,-14,-30,91,33,-27,-79,-88,-82
-99,-81,18,90,-58,-31,89,36,-34,-86,-73,-93
-55,-57,-2,55,-26,-29,83,38,-29,-76,-67,-93
-62,-47,15,54,-38,-15,93,47,-12,-59,-55,-85
-91,-66,25,79,-58,-20,100,50,-9,-58,-52,-83
-81,-71,9,76,-45,-31,101,73,15,-48,-46,-77
-99,-54,45,76,-72,-4,97,84,41,-43,-43,-74
-27,-13,13,20,-20,0,116,93,39,-37,-38,-62
-51,-37,13,44,-32,-12,139,126,46,-27,-34,-48
-102,-30,72,66,-87,21,131,156,79,-10,-27,-36
-89,-12,77,50,-83,32,161,198,113,0,-21,-24
-65,8,73,28,-69,40,168,226,133,19,-9,-11
-23,56,79,-17,-51,68,185,261,169,63,34,27
-51,46,97,2,-74,71,200,286,201,93,73,56
-22,69,91,-24,-57,80,181,273,206,87,69,64
35,98,63,-66,-15,80,166,272,206,97,84,93
83,129,46,-106,19,87,131,251,195,118,114,120
104,144,40,-124,32,91,114,194,183,111,124,129
55,87,32,-72,12,59,71,146,161,98,114,127
49,52,3,-51,23,27,55,105,120,71,89,97
41,7,-35,-24,38,-14,8,68,82,40,54,54
29,-17,-46,-6,38,-32,59,48,54,28,43,19
27,-33,-60,3,43,-46,0,28,32,8,32,1
-8,-77,-69,42,31,-73,-328,17,21,-11,-3,-8
-20,-76,-56,48,19,-66,-408,-6,-15,-32,-11,-29
15,-55,-70,20,43,-62,-322,-35,-48,-61,-65,-42
-3,-74,-71,39,34,-72,-333,-15,-42,-58,-12,-39
-5,-56,-51,31,24,-53,-161,-10,-39,-57,-68,-40
13,-59,-73,23,43,-66,-167,-10,-36,-53,0,-35
-36,-102,-66,69,16,-84,-47,-23,-31,-49,-66,-35
-61,-100,-38,81,-11,-69,224,-25,-28,-64,40,-33
