I,II,III,aVR,aVL,aVF,V1,V2,V3,V4,V5,V6
-14,-48,-34,32,10,-41,-2,5,-14,7,-13,-28
-22,-46,-24,34,1,-35,4,10,-12,6,-17,-32
-28,-34,-5,31,-11,-19,-7,11,-7,12,-9,-24
-30,-36,-5,33,-12,-20,12,24,2,14,-13,-27
-20,54,74,-17,-48,64,-57,-37,9,46,41,8
58,105,47,-82,5,75,-252,-268,-28,192,255,145
84,87,3,-85,40,45,-473,-1142,-822,-166,285,258
244,447,203,-345,21,324,-1166,-2421,-2115,-894,388,575
328,266,-63,-297,195,102,-1277,-2431,-2266,-1132,296,620
-27,-266,-239,147,106,-252,-679,-1652,-1691,-1140,-265,202
-250,-246,4,248,-127,-121,-370,-1037,-1127,-920,-428,-14
-149,-118,31,133,-90,-43,-83,-326,-391,-353,-193,-31
-79,2,81,38,-80,41,72,19,-33,-51,-62,-21
-67,16,83,26,-75,49,97,98,48,-4,-29,-18
-59,11,70,24,-65,40,130,161,120,42,-12,-15
-48,31,79,8,-64,55,130,177,136,75,0,-8
-40,25,65,7,-53,45,146,199,170,103,10,-12
-33,40,73,-3,-54,56,147,197,183,109,19,-9
-39,34,72,3,-56,53,152,212,189,119,21,-11
-54,43,97,5,-75,70,161,220,195,121,24,-9
-54,42,95,6,-75,68,179,226,204,118,27,-11
-54,47,100,4,-77,73,182,242,218,123,30,-7
-55,47,103,4,-79,75,176,251,229,132,29,-5
-48,58,105,-6,-77,81,190,268,234,142,24,-5
-47,57,105,-5,-76,81,207,293,250,147,25,-1
-47,59,106,-6,-77,82,214,320,269,154,23,0
-46,81,127,-18,-86,104,231,351,288,159,19,-1
-54,78,132,-12,-93,105,252,394,318,171,20,-5
-58,87,145,-15,-101,115,281,452,356,184,16,-5
-73,97,171,-12,-122,134,313,510,397,186,14,-6
-78,113,191,-18,-134,151,351,569,432,186,10,-10
-80,116,196,-19,-138,156,395,631,477,175,7,-10
-94,138,232,-22,-164,185,446,689,496,164,4,-7
-95,195,290,-51,-193,242,491,694,479,152,-11,-1
-111,213,324,-51,-217,268,496,682,466,122,-26,4
-135,232,367,-49,-252,299,479,635,412,61,-57,10
-152,260,412,-54,-282,335,441,500,297,-24,-87,15
-148,276,424,-64,-286,350,363,354,175,-96,-83,25
-120,276,396,-79,-258,336,265,211,68,-141,-73,42
-79,258,338,-89,-209,298,175,95,-6,-142,-66,47
-41,219,260,-89,-151,239,103,37,-46,-127,-53,41
-11,170,181,-80,-96,176,48,18,-41,-101,-25,36
7,111,105,-59,-49,108,15,24,-21,-55,-3,31
20,70,50,-45,-15,60,9,28,-4,-14,10,25
34,58,24,-46,4,41,11,32,9,15,23,20
30,41,12,-36,9,26,9,38,13,24,25,16
24,28,4,-26,10,15,11,41,21,41,25,13
45,20,-24,-32,34,-2,9,47,27,52,25,10
55,18,-37,-37,46,-9,15,54,34,48,25,7
43,15,-27,-29,34,-6,24,59,38,53,24,5
37,13,-24,-25,31,-6,25,62,41,55,21,3
26,8,-18,-17,22,-5,25,67,39,55,18,-1
28,17,-11,-22,19,3,25,70,43,58,15,0
49,32,-18,-40,33,7,25,70,55,61,14,0
53,29,-24,-41,38,2,25,74,55,65,7,0
38,24,-14,-31,26,5,22,75,55,64,21,5
27,23,-4,-25,16,9,18,71,55,60,37,5
18,16,-2,-17,10,7,25,65,55,58,35,5
22,17,-5,-19,13,6,36,60,53,55,34,5
35,29,-5,-31,20,12,35,54,49,52,30,5
26,21,-5,-23,15,8,35,48,47,50,30,3
21,16,-5,-18,13,5,35,44,44,47,28,-1
7,2,-5,-4,6,-2,35,39,41,45,23,0
16,12,-4,-14,10,4,33,34,39,45,20,0
59,45,-13,-51,36,16,29,30,35,45,17,0
56,34,-22,-45,38,6,27,25,35,45,12,0
25,6,-19,-16,22,-6,24,20,34,43,10,-5
-4,-25,-21,14,9,-22,21,16,30,40,10,-5
-7,-26,-19,16,7,-22,19,15,30,37,10,-5
2,-19,-21,8,12,-20,16,15,28,35,10,-5
-3,-21,-18,12,8,-19,11,15,24,32,10,-5
14,-12,-26,-1,20,-19,9,15,25,29,10,-8
24,-22,-45,-1,35,-33,4,16,25,34,8,-10
5,-40,-45,18,25,-42,0,20,25,35,4,-13
5,-40,-45,18,25,-42,0,23,24,35,5,-16
2,-41,-43,20,23,-42,0,26,20,35,1,-19
-7,-46,-39,26,17,-42,0,29,20,34,0,-20
-4,-45,-41,24,19,-42,0,32,20,36,0,-15
-4,-43,-39,24,18,-41,0,35,20,40,-5,-15
3,-38,-40,17,22,-39,0,35,20,40,-5,-14
4,-36,-39,16,22,-37,0,35,18,40,-5,-10
4,-31,-35,14,20,-33,0,35,14,40,-5,-10
7,-28,-35,11,21,-31,-3,35,15,40,-5,-13
11,-24,-35,7,24,-29,-5,35,15,44,-5,-15
15,-20,-35,3,25,-27,-5,35,15,45,-5,-15
-6,-41,-35,24,15,-38,-5,35,15,45,-5,-18
-14,-47,-33,31,10,-40,-5,35,10,45,-5,-21
-16,-43,-28,30,6,-35,-5,36,11,45,-5,-19
-16,-43,-27,30,5,-34,0,34,8,45,-5,-16
2,-38,-40,18,21,-39,5,36,6,46,1,-9
-4,-42,-38,23,17,-40,9,33,3,44,6,-6
4,-31,-35,14,20,-33,14,41,12,45,13,-1
34,-28,-62,-3,48,-44,19,63,39,57,17,4
46,-31,-77,-7,61,-53,20,75,65,83,24,8
63,-11,-74,-26,69,-42,27,89,76,85,30,22
98,23,-75,-60,86,-26,32,97,89,95,37,30
146,70,-76,-108,110,-3,-10,100,118,135,72,48
149,75,-74,-111,111,1,-64,78,102,104,73,63
137,56,-81,-97,109,-12,-72,33,57,67,41,48
115,38,-77,-77,96,-19,-75,10,31,63,31,38
96,7,-89,-51,92,-41,-68,6,22,51,18,27
87,-7,-94,-39,91,-51,-57,-1,16,44,7,7
22,-50,-72,14,47,-61,-49,-5,9,11,-1,-7
-1,-71,-69,36,34,-70,-35,-12,5,-10,-15,-19
1,-58,-59,29,30,-59,-39,-15,3,2,-20,-26
-3,-66,-63,34,30,-65,-29,-8,0,1,-32,-40
-3,-51,-47,27,22,-49,-40,-13,-4,10,-19,-38
-4,-63,-58,34,27,-60,-20,-6,-4,11,-26,-42
14,-44,-58,15,36,-50,-41,-15,-4,16,-12,-38
-5,-64,-59,35,27,-61,-11,-4,3,6,-20,-40
21,7,-14,-14,18,-4,-68,-59,0,41,28,1
62,71,9,-66,26,40,-280,-274,-3,171,220,112
57,29,-28,-43,43,0,-479,-1158,-726,-175,234,200
254,363,109,-309,72,236,-1178,-2555,-2076,-934,303,481
379,202,-177,-291,278,12,-1375,-2667,-2335,-1267,186,530
28,-331,-360,152,194,-345,-773,-1849,-1758,-1260,-317,139
-229,-269,-39,249,-95,-154,-437,-1177,-1160,-981,-414,-51
-124,-130,-6,128,-59,-68,-137,-397,-400,-386,-176,-53
-49,-56,-6,53,-21,-31,42,-12,-30,-83,-51,-46
-51,-41,10,45,-30,-16,55,62,43,-37,-17,-43
-54,-52,2,53,-27,-25,80,130,108,20,-2,-46
-52,-34,18,42,-35,-7,84,145,125,43,3,-38
-54,-42,12,48,-33,-15,99,178,148,59,7,-42
-52,-29,23,41,-37,-3,97,178,150,61,15,-36
-52,-30,22,41,-37,-4,104,200,167,82,18,-35
-51,-22,30,36,-40,4,108,211,170,89,24,-31
-41,-17,24,28,-32,3,110,213,184,85,26,-29
-61,-13,48,37,-54,17,114,228,202,98,30,-26
-67,-3,65,35,-66,31,123,244,215,103,33,-25
-82,-20,61,51,-71,20,131,260,227,100,37,-32
-91,-22,69,56,-80,23,147,288,244,121,40,-31
-60,10,70,25,-65,40,157,323,266,133,39,-30
-67,1,67,33,-67,34,175,352,286,140,43,-30
-73,7,80,33,-76,43,203,402,323,160,45,-30
-46,41,87,2,-67,64,229,455,363,167,45,-31
-54,45,99,4,-77,72,267,519,409,189,40,-28
-82,44,127,19,-105,85,303,590,448,195,30,-24
-86,74,161,6,-124,117,347,654,491,184,22,-22
-98,95,194,1,-146,144,396,716,516,181,13,-19
-126,110,235,8,-181,172,431,734,500,168,3,-16
-149,151,300,-1,-225,225,437,718,490,145,-17,-14
-162,169,331,-4,-247,249,422,661,438,91,-40,-8
-167,197,363,-15,-265,280,401,530,322,10,-65,2
-170,211,381,-21,-276,296,341,373,198,-65,-83,9
-159,195,353,-18,-256,274,248,211,81,-126,-78,18
-129,185,314,-28,-222,249,160,90,-8,-155,-67,27
-77,151,228,-37,-153,189,86,34,-54,-156,-58,24
-27,105,132,-39,-80,118,32,-2,-55,-124,-44,15
3,56,54,-30,-26,55,3,-6,-36,-75,-19,9
23,21,-2,-22,12,9,-8,0,-21,-34,-1,1
35,0,-35,-17,35,-18,-14,1,-10,-12,7,-6
58,-8,-66,-25,63,-37,-21,8,-4,1,18,-13
46,-19,-65,-13,55,-41,-28,8,5,21,27,-15
22,-46,-68,12,45,-57,-34,24,12,26,31,-15
36,-56,-91,10,64,-73,-32,37,20,29,30,-19
34,-55,-89,10,62,-72,-29,34,30,30,30,-20
34,-51,-85,9,60,-68,-27,36,39,33,30,-19
34,-50,-84,8,59,-67,-23,33,46,35,30,-15
29,-48,-77,9,53,-62,-21,42,52,37,30,-15
33,-39,-72,3,53,-55,-19,54,54,41,30,-14
34,-31,-65,-1,49,-48,-15,55,57,40,30,-10
32,-23,-55,-4,44,-39,-15,60,60,45,30,-10
29,-16,-45,-7,37,-30,-13,58,56,45,30,-10
28,-9,-37,-9,33,-23,-10,52,51,46,28,-10
25,-4,-29,-10,27,-16,-10,49,46,50,25,-10
21,1,-20,-11,20,-9,-10,43,42,50,25,-10
25,7,-18,-16,22,-5,-10,40,38,48,25,-10
23,14,-9,-18,16,2,-10,35,33,42,25,-10
31,12,-19,-21,25,-4,-10,31,30,38,25,-5
41,0,-41,-21,41,-20,-10,29,27,34,20,-5
29,-12,-40,-9,35,-26,-9,24,25,29,20,-4
16,-22,-38,3,28,-30,-5,21,21,24,20,0
14,-21,-35,4,25,-27,-5,18,20,21,20,0
19,-16,-35,-1,27,-26,-5,12,16,20,20,-2
21,-14,-34,-3,28,-24,-5,7,15,20,17,-7
33,-10,-43,-12,38,-26,-5,4,15,20,15,-10
47,-5,-52,-21,50,-28,-5,-1,10,21,12,-13
39,-7,-47,-16,43,-27,-5,-5,10,17,9,-18
28,-17,-45,-5,37,-31,-5,-11,9,15,5,-21
17,-25,-41,4,29,-33,-5,-16,5,15,5,-25
5,-34,-40,14,23,-37,-5,-22,5,11,10,-25
10,-30,-40,10,25,-35,-5,-26,5,10,10,-26
10,-30,-40,10,25,-35,-5,-25,5,10,10,-30
9,-31,-40,11,24,-35,-5,-25,5,10,10,-31
20,-21,-41,1,30,-31,-5,-25,1,10,10,-27
-2,-40,-38,21,18,-39,-6,-25,0,9,8,-25
-6,-53,-46,29,20,-49,-4,-25,0,13,3,-25
22,-39,-61,9,42,-50,-13,-20,-4,16,0,-21
15,-45,-60,15,37,-52,-25,-20,-6,15,-3,-20
-5,-65,-60,35,28,-62,-25,-20,-4,15,-8,-20
2,-58,-60,28,31,-58,-25,-20,0,15,-10,-26
14,-46,-60,16,37,-53,-25,-20,0,15,-5,-31
7,-51,-58,22,32,-54,-24,-18,0,18,-5,-29
4,-50,-54,23,29,-51,-27,-12,0,20,-5,-30
6,-50,-56,23,31,-52,-30,-7,0,21,-5,-30
1,-50,-51,25,26,-50,-30,-4,4,25,-5,-30
0,-50,-50,25,25,-50,-30,2,5,25,-7,-34
3,-46,-49,22,26,-47,-30,5,5,20,-11,-35
7,-39,-46,16,27,-42,-30,5,5,21,-10,-35
8,-35,-43,13,26,-39,-30,5,4,18,-10,-35
5,-35,-40,15,23,-37,-30,5,6,15,-10,-35
3,-34,-38,16,21,-36,-30,5,10,14,-9,-34
-2,-36,-34,19,17,-35,-30,5,10,21,-5,-29
4,-34,-38,15,21,-36,-30,8,10,42,2,-23
7,-33,-40,13,24,-36,-29,17,10,45,5,-20
13,-28,-41,8,27,-34,-19,26,10,50,14,-15
12,-26,-38,7,26,-32,-11,33,21,51,16,-11
31,-23,-54,-4,43,-38,4,51,50,57,25,-5
82,7,-75,-44,79,-34,19,72,63,69,45,5
102,32,-70,-67,86,-19,22,82,76,83,59,16
126,63,-64,-94,95,-1,0,93,100,121,97,47
119,58,-60,-89,90,-1,-56,80,84,93,92,62
103,35,-68,-69,86,-16,-73,34,54,52,55,49
120,47,-73,-83,96,-12,-63,0,29,49,45,41
104,20,-84,-61,93,-32,-62,-6,18,40,33,29
56,-35,-91,-10,74,-63,-52,-12,11,34,8,6
5,-67,-73,31,39,-70,-52,-21,4,4,-25,-29
-34,-99,-65,66,16,-81,-40,-22,1,-13,-44,-54
-36,-93,-57,65,11,-75,-42,-20,-7,-5,-37,-44
-29,-89,-60,60,15,-74,-31,-10,-6,-1,-43,-43
-29,-80,-51,55,12,-65,-30,-10,-17,1,-38,-37
-20,-73,-53,47,17,-63,-27,0,-9,10,-40,-31
-26,-74,-48,50,11,-61,-14,4,-7,7,-41,-33
-22,-67,-46,45,12,-56,-38,-1,8,13,-25,-24
-35,-57,-22,46,-6,-39,-31,-20,7,25,-27,-26
29,66,37,-47,-4,51,-218,-131,28,159,150,88
79,19,-60,-49,69,-20,-369,-606,-239,114,258,161
179,222,43,-201,68,133,-833,-1961,-1482,-559,290,365
412,401,-11,-407,211,195,-1425,-2824,-2397,-1155,287,605
217,-113,-331,-52,274,-222,-1046,-2212,-2040,-1277,-165,304
-167,-328,-161,248,-3,-244,-562,-1486,-1464,-1149,-494,12
-192,-206,-15,199,-88,-110,-293,-748,-750,-618,-331,-35
-88,-108,-20,98,-34,-64,-17,-127,-147,-135,-129,-64
-42,-33,9,38,-25,-12,26,16,3,-16,-65,-46
-31,-52,-21,42,-5,-36,65,98,79,31,-48,-52
-31,-33,-2,32,-14,-17,70,123,110,64,-35,-43
-35,-39,-4,37,-15,-21,73,149,133,88,-30,-40
-37,-30,7,33,-22,-11,81,166,146,94,-20,-43
-42,-29,13,35,-27,-8,83,173,159,104,-14,-44
-43,-25,17,34,-29,-4,98,189,175,123,-10,-46
-47,-21,26,34,-36,2,102,197,178,123,-7,-44
-42,-19,22,30,-32,1,113,220,192,131,-5,-46
-44,-14,30,29,-37,8,116,232,204,133,-1,-44
-52,-25,27,38,-39,1,131,258,224,136,1,-40
-30,5,35,13,-33,20,146,279,244,147,-4,-32
-43,3,46,20,-44,24,156,300,267,153,-6,-26
-64,-9,55,37,-59,23,174,327,282,158,-3,-19
-56,16,72,19,-64,44,193,362,315,179,-1,-15
-43,36,79,3,-61,57,222,421,358,186,3,-15
-46,56,102,-5,-75,79,248,475,387,187,5,-15
-63,57,120,2,-92,88,283,543,431,204,9,-15
-76,77,153,-1,-115,115,335,613,474,205,10,-15
-76,110,186,-17,-132,148,378,673,509,205,5,-14
-98,116,213,-9,-156,164,424,717,523,203,-12,-11
-118,145,263,-14,-190,204,455,730,508,172,-31,-6
-134,181,315,-24,-225,248,453,696,467,115,-53,-4
-182,199,380,-9,-282,289,432,591,371,34,-96,1
-181,220,401,-20,-291,310,376,439,254,-44,-116,4
-172,220,392,-25,-282,306,287,272,121,-125,-115,8
-152,213,365,-31,-259,289,198,133,17,-175,-112,16
-90,199,289,-55,-190,244,108,39,-45,-175,-111,24
-34,167,201,-66,-118,184,41,5,-79,-160,-95,32
6,132,126,-69,-60,129,-5,3,-65,-124,-57,39
11,78,67,-45,-28,73,-41,-1,-47,-79,-31,31
6,34,29,-20,-12,31,-46,-4,-33,-42,-17,19
14,24,9,-19,2,16,-45,-9,-25,-16,-14,8
24,18,-6,-21,14,6,-45,-12,-20,-5,-11,-2
29,11,-18,-20,23,-4,-45,-15,-12,0,-8,-7
42,15,-27,-28,34,-6,-45,-15,-6,4,-5,-10
46,15,-31,-31,38,-7,-42,-17,0,9,-6,-13
44,14,-30,-29,36,-7,-37,-21,5,14,-19,-18
46,16,-30,-31,38,-7,-34,-20,5,17,-22,-21
42,12,-30,-27,36,-8,-31,-17,6,24,-17,-21
59,29,-30,-44,44,0,-26,-12,10,29,-14,-20
71,47,-24,-59,47,11,-26,-10,10,25,-11,-20
62,44,-18,-53,40,13,-33,-6,7,25,-6,-20
57,45,-12,-50,34,16,-39,-1,5,24,-6,-20
49,46,-3,-47,25,21,-40,-1,5,19,-10,-19
36,43,7,-40,14,25,-40,-6,1,21,-9,-15
35,53,18,-44,9,35,-40,-9,0,17,-11,-16
36,61,25,-49,6,42,-40,-12,0,15,-8,-12
34,59,26,-47,4,42,-40,-17,-6,15,-19,-10
39,62,23,-51,8,42,-40,-19,-13,11,-31,-9
17,54,37,-36,-10,45,-40,-33,-19,10,-26,-18
30,75,45,-53,-7,59,-40,-39,-26,10,-23,-34
53,90,37,-71,8,63,-40,-48,-32,5,-20,-35
40,73,33,-57,4,53,-40,-57,-38,1,-14,-35
39,65,26,-53,6,46,-43,-54,-40,-1,-19,-35
42,63,21,-53,10,42,-53,-56,-40,-6,-36,-35
48,64,16,-56,15,40,-65,-55,-40,-9,-37,-34
47,58,11,-52,17,34,-65,-55,-40,-15,-34,-29
44,50,6,-47,19,28,-65,-61,-45,-25,-36,-31
42,45,3,-44,19,24,-65,-68,-45,-25,-34,-27
40,37,-4,-38,22,16,-65,-68,-45,-25,-36,-25
35,32,-3,-33,18,15,-64,-63,-45,-25,-32,-25
36,26,-11,-31,23,7,-57,-60,-45,-25,-26,-27
56,23,-33,-39,45,-5,-51,-57,-45,-25,-21,-59
53,17,-36,-35,45,-9,-44,-52,-36,-18,-15,-69
25,-24,-49,0,37,-37,-37,-49,-23,-7,-10,-52
16,-67,-83,26,50,-75,-31,-45,-13,2,-6,-41
31,-89,-120,30,76,-105,-26,-40,-6,9,-3,-34
39,-104,-142,33,91,-123,-25,-36,-2,14,-1,-31
43,-112,-155,35,99,-134,-25,-31,4,21,3,-28
58,-115,-173,29,116,-144,-25,-27,10,24,3,-23
60,-126,-186,34,123,-155,-25,-22,15,21,15,-20
40,-145,-185,53,113,-165,-24,-13,21,20,27,-24
41,-146,-187,53,114,-167,-18,-2,26,20,24,-25
63,-128,-191,32,127,-159,-12,4,32,20,25,-25
66,-123,-189,29,128,-156,-8,7,38,20,25,-30
45,-149,-194,52,120,-171,-1,10,41,20,25,-30
55,-143,-198,44,127,-170,3,13,43,20,25,-29
76,-127,-203,26,140,-165,2,21,46,20,25,-23
76,-128,-203,27,140,-165,-1,28,49,21,24,-16
61,-113,-174,26,118,-143,1,34,51,28,26,-10
18,-129,-147,55,83,-137,-1,41,45,31,23,-2
-17,-144,-127,81,55,-135,2,43,47,47,32,2
-8,-106,-98,57,45,-102,13,50,73,78,61,13
-3,-71,-68,37,32,-69,23,61,92,96,71,29
11,-39,-50,14,30,-44,52,86,122,129,105,61
65,15,-50,-40,57,-17,39,116,134,156,138,87
84,34,-50,-59,66,-7,-3,106,117,145,128,83
62,6,-55,-34,58,-24,-6,88,106,136,119,77
53,-21,-75,-16,64,-48,-13,67,88,123,112,76
42,-63,-105,11,74,-84,-14,42,64,102,90,55
3,-109,-112,53,58,-111,-9,34,42,67,63,27
-29,-133,-104,82,38,-118,-5,27,34,42,42,14
-24,-132,-108,79,42,-120,4,21,28,49,28,1
-18,-118,-101,69,42,-109,2,11,24,52,33,-4
-9,-121,-112,65,52,-116,20,8,21,46,26,-23
3,-103,-106,50,55,-104,4,7,14,47,34,-27
-6,-110,-105,58,50,-107,16,13,23,42,25,-27
20,-86,-106,33,63,-95,-10,14,31,46,34,-10
12,-87,-99,38,55,-93,8,9,23,35,10,-21
2,-39,-41,19,22,-40,-54,-36,28,84,65,9
60,14,-46,-37,53,-16,-269,-251,14,229,277,144
95,21,-73,-58,83,-26,-475,-1143,-747,-127,306,255
275,377,103,-326,86,240,-1144,-2455,-2064,-856,398,554
360,247,-112,-303,236,68,-1303,-2536,-2282,-1160,258,592
7,-285,-292,139,150,-288,-713,-1751,-1707,-1198,-306,154
-254,-304,-50,279,-102,-177,-397,-1124,-1128,-932,-444,-73
-155,-177,-22,166,-66,-99,-127,-404,-384,-337,-197,-69
-63,-72,-10,68,-27,-41,27,-15,5,-18,-42,-50
-69,-63,6,66,-37,-29,71,72,95,55,-11,-38
-83,-70,13,77,-48,-28,109,135,163,104,12,-29
-101,-54,47,78,-74,-3,105,154,179,122,34,-23
-96,-62,34,79,-65,-14,121,175,204,142,26,-26
-87,-49,38,67,-62,-6,117,180,204,140,23,-24
-79,-49,30,64,-55,-9,122,199,216,139,18,-25
-62,-35,27,48,-44,-4,123,202,229,142,14,-25
-56,-28,27,42,-41,-1,127,225,235,137,10,-30
-75,-28,47,52,-61,9,133,235,244,152,5,-30
-86,-34,52,60,-69,9,138,235,251,168,5,-30
-74,-26,48,50,-61,11,150,263,267,174,5,-30
-69,-18,52,43,-60,17,160,287,277,175,5,-30
-59,-11,49,35,-54,19,165,303,281,173,5,-28
-53,-1,52,27,-52,25,187,333,308,183,3,-25
-61,4,65,28,-63,34,214,382,337,193,-1,-22
-69,22,91,23,-80,56,243,435,367,205,-3,-19
-85,23,108,30,-97,65,275,492,406,216,-6,-16
-80,36,116,22,-99,76,304,552,442,215,-9,-15
-93,56,149,18,-121,102,352,615,483,215,-11,-25
-114,77,192,18,-153,134,402,672,509,215,-21,-26
-110,116,226,-3,-168,171,444,685,516,187,-41,-21
-121,141,262,-10,-192,201,468,668,496,135,-59,-19
-126,186,311,-30,-219,249,453,628,436,77,-86,-14
-155,206,360,-25,-258,283,411,517,324,-2,-120,-11
-155,219,374,-32,-265,296,331,364,192,-83,-138,-7
-119,229,348,-55,-234,289,233,214,77,-145,-136,2
-108,201,309,-46,-209,254,140,90,-5,-178,-124,12
-81,159,240,-39,-161,199,61,18,-49,-160,-109,10
-43,106,149,-32,-96,127,15,3,-49,-126,-75,3
6,85,80,-46,-37,82,-25,2,-32,-85,-42,-1
26,56,29,-41,-2,42,-54,-12,-22,-40,-29,-8
24,6,-18,-15,21,-6,-55,-12,-10,-6,-15,-12
16,-20,-36,2,26,-27,-55,-4,-3,14,-7,-18
10,-30,-40,10,25,-35,-53,2,4,20,-3,-23
36,-29,-65,-3,51,-47,-50,9,11,30,3,-21
42,-30,-72,-6,57,-51,-50,16,17,35,8,-20
39,-30,-69,-4,54,-49,-47,22,24,35,14,-20
41,-30,-71,-6,56,-50,-44,29,29,35,11,-20
39,-31,-70,-4,54,-50,-41,36,30,35,10,-21
42,-27,-69,-7,56,-48,-39,41,30,35,10,-17
37,-23,-60,-7,49,-41,-35,47,29,35,5,-15
35,-17,-52,-9,44,-34,-36,50,31,35,5,-15
29,-14,-43,-7,36,-28,-40,49,35,35,4,-11
28,-8,-36,-10,32,-22,-40,50,35,35,0,-10
28,-7,-34,-10,32,-20,-40,50,40,35,0,-10
11,-20,-31,4,21,-25,-40,50,37,35,0,-10
10,-18,-28,4,19,-23,-40,49,29,33,0,-10
12,-13,-26,1,19,-20,-37,42,23,28,0,-10
12,-12,-23,0,17,-17,-32,36,15,22,-3,-10
14,-5,-19,-4,17,-12,-29,29,10,19,-9,-10
8,-5,-13,-1,11,-9,-26,23,5,13,-14,-12
17,6,-10,-11,13,-2,-21,16,5,10,-17,-21
18,13,-5,-15,11,4,-20,11,4,16,-23,-28
23,23,0,-23,11,11,-20,9,0,21,-24,-26
53,38,-14,-45,33,12,-20,6,1,28,-19,-21
52,31,-21,-41,37,5,-20,3,-3,28,-13,-19
32,19,-12,-25,22,3,-20,0,-5,22,-10,-15
21,11,-10,-16,15,0,-20,1,-5,18,-5,-10
31,25,-6,-27,18,9,-23,6,-5,13,-1,-12
23,25,2,-24,10,13,-26,4,-5,9,-3,-15
25,11,-14,-18,19,-1,-29,8,-5,4,-8,-15
37,4,-33,-20,35,-14,-32,10,-5,-1,-9,-19
29,-18,-47,-6,38,-32,-35,10,-5,-11,-5,-21
28,-21,-49,-4,39,-35,-35,14,-5,-12,-5,-19
8,-20,-28,6,18,-24,-35,15,-5,2,-3,-15
5,-19,-23,8,14,-21,-35,15,-5,17,1,-15
17,-15,-32,-1,25,-23,-35,15,-5,22,0,-14
26,-15,-40,-5,34,-27,-35,15,-5,18,-3,-10
30,-14,-43,-7,37,-28,-35,14,-5,16,-8,-10
18,-28,-46,5,32,-37,-31,9,-5,12,-11,-12
20,-31,-51,6,35,-41,-30,6,-5,10,-14,-22
16,-29,-46,7,31,-37,-30,3,-5,10,-19,-28
13,-27,-40,7,27,-33,-30,-2,-5,11,-19,-26
7,-24,-32,9,20,-28,-30,-5,-5,16,-15,-23
2,-25,-27,12,15,-26,-31,-5,-5,15,-15,-20
-3,-20,-17,12,7,-19,-38,-5,-5,11,-15,-18
0,-20,-20,11,10,-20,-37,-5,-5,9,-15,-14
24,-20,-44,-2,34,-32,-31,-5,-2,5,-15,-17
27,-20,-48,-3,38,-34,-27,-5,0,5,-19,-22
24,-20,-43,-2,33,-31,-23,-4,0,10,-20,-25
17,-22,-40,2,29,-31,-17,0,4,10,-20,-30
12,-26,-37,7,25,-31,-16,0,5,11,-25,-30
7,-24,-31,9,20,-28,-24,2,5,15,-25,-30
-4,-36,-32,20,14,-34,-32,6,10,15,-24,-30
14,-35,-49,11,32,-42,-32,5,10,15,-18,-30
24,-27,-51,1,37,-38,-26,9,11,14,-11,-28
28,-22,-49,-3,39,-35,-22,16,16,16,-4,-24
37,-13,-50,-12,43,-31,-17,22,13,14,3,-26
31,-13,-44,-9,38,-28,-12,31,20,16,9,-21
31,-15,-46,-8,39,-31,-9,35,33,38,15,-20
28,-16,-44,-6,37,-30,-2,47,49,54,25,-20
52,6,-46,-29,49,-19,2,60,65,61,35,-9
87,43,-44,-64,65,-1,11,72,81,87,52,15
120,78,-42,-99,81,17,-8,84,85,102,75,45
152,90,-62,-120,107,13,-49,53,40,76,78,50
125,59,-66,-91,95,-4,-56,13,10,57,63,36
111,44,-66,-77,88,-10,-56,0,11,55,54,29
86,8,-79,-46,82,-35,-51,-5,1,47,41,15
34,-37,-70,2,52,-53,-49,-10,-1,42,23,-1
13,-57,-70,22,42,-63,-44,-14,-10,29,9,-17
-4,-68,-64,37,30,-66,-40,-19,-22,18,5,-35
-1,-61,-60,31,30,-60,-40,-19,-17,20,2,-41
-15,-75,-60,46,23,-68,-29,-13,-13,19,-6,-42
-13,-61,-49,37,18,-54,-34,-17,-8,21,-6,-37
-13,-71,-57,42,22,-64,-15,-13,-4,20,-13,-41
-13,-47,-34,30,11,-41,-30,-17,0,30,2,-28
-5,-47,-42,26,19,-44,0,-15,10,17,-13,-43
12,26,14,-19,-1,20,-126,-68,43,110,99,32
92,61,-31,-77,62,15,-314,-407,-82,197,268,146
123,105,-18,-114,71,43,-621,-1515,-1084,-309,290,274
325,453,128,-389,98,290,-1317,-2667,-2259,-979,399,600
327,146,-182,-236,255,-18,-1229,-2422,-2181,-1173,142,511
-78,-320,-242,199,82,-281,-631,-1634,-1600,-1156,-379,79
-225,-233,-8,229,-108,-121,-350,-980,-989,-808,-386,-61
-135,-136,-2,136,-66,-69,-57,-284,-287,-251,-155,-67
-66,-43,23,54,-45,-10,63,0,-9,-30,-51,-64
-45,-34,12,39,-28,-11,95,77,67,17,-17,-65
-32,-16,15,23,-23,0,112,119,115,60,-5,-66
-55,-42,12,48,-33,-15,106,143,139,87,-2,-62
-89,-62,26,75,-57,-18,120,172,168,118,4,-61
-83,-33,50,58,-66,8,115,179,176,114,10,-60
-77,-36,41,56,-59,2,126,196,197,115,15,-58
-70,-22,48,45,-58,13,123,197,198,120,20,-54
-65,-21,43,43,-54,10,137,218,211,124,20,-55
-60,-14,46,37,-53,16,147,233,221,136,21,-51
-51,-7,44,29,-47,18,157,252,236,137,25,-49
-46,-7,39,26,-42,16,157,268,250,148,25,-46
-60,-25,35,42,-47,5,158,275,253,163,23,-44
-64,-25,39,44,-52,7,194,309,287,170,19,-39
-70,-12,59,41,-64,23,206,342,316,179,17,-45
-49,3,52,22,-51,27,231,383,344,191,14,-56
-58,7,65,25,-62,36,263,436,382,212,11,-55
-100,4,104,48,-102,54,286,494,412,223,10,-54
-71,41,112,14,-92,77,334,564,458,224,5,-49
-69,67,137,0,-103,102,372,627,503,209,-3,-50
-96,71,167,12,-131,118,432,683,518,194,-9,-49
-112,99,211,6,-162,155,486,703,511,164,-27,-51
-146,117,263,14,-205,190,503,682,488,110,-61,-59
-152,157,309,-3,-231,233,489,627,423,57,-80,-50
-151,204,355,-27,-253,279,444,515,321,-18,-98,-37
-141,209,350,-34,-246,279,371,360,191,-104,-131,-30
-122,225,346,-52,-234,285,264,208,66,-174,-143,-27
-113,192,305,-40,-209,249,175,78,-14,-199,-133,-22
-83,134,217,-26,-150,176,105,2,-56,-183,-105,-20
-34,103,136,-35,-85,119,47,-15,-55,-147,-72,-20
3,59,56,-32,-27,58,14,-22,-32,-92,-53,-16
13,21,8,-18,3,14,0,-22,-13,-46,-28,-15
21,-12,-33,-4,27,-23,-1,-11,3,-18,-8,-15
5,-42,-47,18,26,-44,-5,-4,9,2,-3,-20
-3,-56,-53,29,25,-54,-7,0,16,15,3,-27
22,-57,-79,17,51,-67,-11,2,23,17,6,-32
26,-51,-77,13,52,-64,-8,5,25,12,11,-38
26,-45,-72,10,50,-58,-4,8,36,24,15,-38
24,-44,-68,10,46,-56,-6,10,45,40,15,-34
29,-35,-64,3,47,-49,-1,13,47,41,15,-32
25,-41,-66,9,46,-54,0,19,51,39,15,-29
12,-48,-60,18,37,-54,0,23,55,44,16,-25
9,-41,-50,16,29,-45,0,27,53,47,14,-25
10,-35,-45,13,28,-40,0,33,49,42,19,-26
26,-19,-45,-3,36,-32,0,34,50,49,36,-25
0,-43,-43,22,21,-43,0,27,46,52,36,-25
-15,-54,-39,34,12,-47,0,21,45,47,29,-25
3,-38,-41,18,22,-39,-2,14,45,46,26,-25
15,-36,-51,11,34,-43,-9,7,40,41,21,-26
23,-26,-50,2,37,-38,-16,1,37,40,17,-30
15,-21,-36,4,25,-28,-22,-4,34,36,12,-33
15,-14,-29,0,22,-21,-30,-10,29,30,10,-36
16,-6,-23,-4,20,-14,-34,-15,26,25,10,-39
22,-9,-30,-6,26,-19,-30,-20,22,19,6,-42
30,-23,-53,-3,41,-38,-30,-27,16,14,5,-46
19,-37,-56,10,38,-46,-30,-29,11,9,5,-43
8,-46,-54,19,31,-50,-30,-25,6,5,0,-54
3,-53,-56,25,30,-54,-30,-25,-1,5,-4,-61
-1,-55,-54,29,27,-55,-32,-25,-4,5,-6,-60
-2,-58,-56,30,27,-57,-43,-25,0,5,-10,-57
-6,-61,-55,34,24,-58,-45,-25,0,5,-15,-55
-9,-64,-55,37,24,-60,-45,-22,1,8,-13,-54
-12,-66,-53,40,21,-60,-45,-17,5,14,-9,-52
-19,-69,-50,44,16,-59,-45,-14,5,17,-7,-58
-21,-71,-49,46,14,-60,-45,-11,3,23,-4,-26
-16,-70,-53,43,19,-61,-42,-6,0,24,-1,-2
-2,-70,-68,36,33,-69,-40,-6,0,20,0,-7
2,-70,-73,34,38,-72,-37,-11,0,20,-5,-4
1,-66,-68,33,35,-67,-34,-14,0,20,-5,-6
11,-55,-65,23,38,-60,-31,-17,0,20,-5,-4
18,-43,-61,12,40,-52,-30,-22,-5,20,-5,-7
12,-46,-58,18,35,-52,-35,-25,-5,16,-4,-11
16,-37,-53,11,35,-45,-38,-22,-5,15,-8,-9
27,-38,-65,6,46,-51,-44,-19,-5,15,-10,-6
13,-60,-73,24,43,-66,-46,-16,-5,15,-10,-1
10,-43,-53,16,32,-48,-45,-13,-7,15,-10,1
16,-33,-49,8,33,-41,-45,-10,-11,15,-10,6
19,-32,-51,6,35,-41,-45,-11,-10,15,-9,9
22,-27,-49,2,36,-38,-45,-15,-10,15,-6,13
26,-25,-51,-1,39,-37,-47,-15,-10,15,-5,15
31,-17,-48,-7,40,-33,-51,-15,-10,15,-5,15
23,-36,-59,6,41,-47,-53,-15,-5,14,-5,20
21,-46,-67,13,44,-56,-58,-15,1,20,-5,20
16,-46,-62,15,40,-54,-59,-12,3,29,-4,20
17,-43,-60,13,39,-51,-55,-8,11,41,8,19
8,-49,-56,21,32,-52,-55,-3,11,49,11,30
31,-24,-55,-3,43,-39,-52,9,26,62,8,50
70,19,-51,-45,61,-16,-46,21,40,67,18,52
79,30,-50,-55,64,-10,-39,39,58,83,45,71
123,73,-50,-98,86,11,-67,29,71,119,79,96
134,82,-52,-108,93,15,-107,-2,31,97,74,88
127,54,-73,-90,99,-9,-117,-9,15,66,63,79
132,40,-92,-86,112,-26,-114,-16,9,58,56,71
100,11,-90,-55,95,-39,-102,-22,-3,52,45,64
56,-19,-75,-18,66,-47,-100,-29,-23,36,14,53
14,-63,-77,25,46,-70,-90,-42,-43,-3,-28,4
-4,-77,-73,41,34,-74,-89,-45,-36,-6,-24,-15
-3,-80,-77,42,37,-78,-80,-36,-31,0,-21,-16
-9,-83,-74,46,33,-78,-75,-34,-27,1,-21,-22
1,-73,-74,37,37,-73,-79,-29,-19,9,-12,-19
-14,-90,-76,53,31,-83,-68,-24,-17,7,-20,-31
-7,-63,-56,35,25,-59,-86,-41,-32,17,-7,-15
-10,-60,-50,35,21,-55,-63,-43,-32,8,-27,-26
2,47,45,-25,-21,46,-232,-135,18,112,113,74
71,43,-28,-57,50,7,-386,-557,-225,141,283,191
154,196,42,-175,56,119,-809,-1734,-1363,-428,324,369
364,497,133,-430,115,315,-1481,-2645,-2320,-978,481,698
281,24,-257,-152,269,-116,-1174,-2158,-2017,-1047,186,520
-84,-311,-226,198,71,-268,-614,-1446,-1464,-1056,-357,96
-179,-190,-10,185,-84,-100,-343,-794,-830,-693,-330,-25
-79,-107,-28,93,-25,-68,-55,-165,-173,-170,-113,-38
-27,-25,2,26,-14,-11,10,16,12,-17,-38,-34
-36,-53,-17,45,-9,-35,42,97,84,34,-8,-36
-26,-35,-9,31,-8,-22,56,131,129,76,-5,-32
-21,-37,-16,30,-2,-26,57,161,154,94,-5,-29
-20,-37,-17,29,-1,-27,80,187,171,106,-1,-32
-20,-29,-9,25,-6,-19,85,188,182,114,1,-33
-23,-31,-7,27,-8,-19,100,198,195,121,0,-36
-24,-21,3,23,-13,-9,122,219,206,123,12,-34
-28,-23,5,25,-17,-9,126,250,239,129,17,-35
-26,-15,11,21,-18,-2,140,256,241,140,11,-35
-34,-14,20,24,-27,2,155,269,247,152,9,-32
-34,-10,25,22,-30,7,158,275,259,150,4,-30
-45,-7,38,26,-41,15,190,302,273,155,1,-30
-41,-3,37,22,-39,17,208,331,293,156,-2,-30
-44,-1,44,22,-44,21,228,360,324,153,-7,-30
-72,7,79,32,-75,42,253,405,361,162,-10,-31
-49,22,71,13,-60,46,289,452,393,172,-14,-35
-58,34,92,11,-75,63,327,514,431,169,-18,-35
-81,49,129,16,-105,89,365,576,477,165,-20,-35
-57,88,145,-16,-101,116,422,651,513,163,-27,-35
-82,116,198,-17,-140,156,461,694,525,156,-38,-35
-117,128,244,-6,-181,186,497,699,507,129,-58,-32
-138,161,299,-12,-218,230,508,678,462,76,-86,-24
-166,178,344,-6,-256,261,485,591,383,10,-119,-16
-144,207,351,-32,-247,279,436,450,263,-74,-144,-8
-134,218,352,-42,-244,285,350,291,132,-155,-152,-1
-135,197,332,-31,-234,264,254,146,23,-199,-150,6
-91,186,277,-47,-184,231,161,46,-45,-197,-127,12
-53,150,203,-49,-128,176,93,14,-64,-172,-88,17
-21,105,126,-42,-74,115,48,14,-49,-127,-51,23
1,56,55,-28,-27,55,29,10,-27,-70,-21,23
22,24,2,-23,10,12,25,8,-8,-23,-4,16
37,12,-25,-24,31,-7,16,4,9,7,4,12
43,2,-41,-23,42,-19,9,7,22,22,8,6
38,-16,-54,-11,46,-35,2,14,30,35,14,0
4,-44,-48,20,27,-46,3,21,31,41,20,-5
-6,-46,-40,26,17,-43,11,27,35,44,25,-10
-9,-44,-36,27,14,-40,17,34,37,48,25,-10
-20,-46,-26,33,3,-35,24,40,44,53,25,-13
-13,-44,-31,29,10,-38,30,43,50,54,25,-15
1,-45,-46,22,24,-45,37,48,54,50,25,-15
6,-38,-44,17,25,-41,40,50,59,50,25,-15
6,-34,-40,14,23,-36,40,50,58,48,23,-15
8,-30,-37,11,22,-33,40,50,51,44,18,-15
7,-25,-32,9,20,-28,36,50,44,45,15,-15
9,-21,-30,6,20,-25,35,49,37,48,12,-15
9,-16,-25,4,18,-20,35,46,31,51,7,-15
10,-15,-25,3,18,-20,30,43,25,50,4,-15
10,-14,-24,2,17,-19,30,41,20,50,1,-15
8,-12,-19,2,14,-15,29,37,20,50,0,-15
13,-8,-21,-2,17,-14,25,35,19,49,0,-15
1,-16,-17,8,9,-16,23,33,15,43,0,-17
-20,-35,-15,28,-2,-25,20,26,15,38,0,-21
-20,-35,-14,28,-2,-25,17,19,13,32,-2,-20
-20,-36,-16,28,-2,-26,15,13,7,26,-6,-20
-27,-41,-14,34,-7,-27,12,6,3,21,-5,-20
-22,-39,-17,31,-2,-28,6,0,-2,16,-5,-20
-5,-43,-38,24,16,-40,1,-5,-6,14,-5,-25
-4,-45,-41,24,19,-43,-2,-8,-11,11,-5,-25
-6,-45,-39,25,17,-42,-8,-11,-14,8,-10,-25
-4,-45,-41,25,19,-42,-11,-16,-15,5,-10,-24
-6,-45,-39,25,17,-42,-15,-19,-15,5,-11,-28
-4,-45,-40,25,18,-42,-18,-22,-15,5,-15,-35
0,-40,-40,20,20,-40,-22,-30,-15,5,-15,-35
0,-40,-40,20,20,-40,-25,-34,-15,5,-13,-36
0,-40,-40,20,20,-40,-22,-31,-15,5,-9,-40
0,-40,-40,20,20,-40,-19,-28,-15,5,-10,-40
-1,-41,-40,21,20,-40,-16,-26,-15,5,-10,-37
6,-37,-44,16,25,-40,-13,-22,-15,5,-10,-35
14,-32,-45,10,30,-38,-10,-20,-14,5,-10,-35
20,-25,-45,3,33,-35,-11,-17,-11,5,-5,-35
23,-22,-45,0,34,-33,-15,-15,-8,6,-5,-35
34,-11,-45,-11,40,-28,-15,-15,-6,3,-5,-35
22,-22,-44,0,33,-32,-15,-12,-2,0,-5,-40
-7,-46,-40,27,17,-43,-15,-9,0,0,-5,-40
-9,-44,-36,27,14,-40,-15,-11,3,0,-6,-41
-14,-46,-33,30,10,-39,-11,-14,5,0,-4,-45
-22,-50,-29,36,4,-39,-10,-15,5,-1,-6,-45
-26,-50,-24,39,-1,-36,-10,-15,8,7,-23,-43
-9,-48,-39,29,15,-43,-10,-15,11,13,-26,-40
7,-42,-49,18,28,-46,-10,-15,9,9,-21,-40
8,-37,-46,15,27,-41,-11,-15,6,11,-20,-40
10,-34,-43,12,27,-39,-15,-15,5,10,-15,-40
12,-29,-40,8,26,-34,-14,-15,4,10,-15,-39
13,-25,-37,6,26,-31,-18,-15,0,11,-9,-36
9,-26,-34,9,22,-30,-20,-15,0,17,-4,-31
14,-24,-38,6,26,-31,-20,-14,3,24,1,-29
14,-26,-40,6,27,-33,-16,-10,11,26,7,-24
21,-23,-44,1,33,-33,-12,-2,25,36,13,-21
16,-28,-44,7,31,-36,-9,1,29,35,18,-18
40,-14,-54,-13,47,-33,-5,13,46,54,31,-7
97,22,-75,-59,86,-26,-2,23,67,73,42,2
128,52,-76,-89,101,-12,0,50,85,84,57,25
167,93,-74,-130,120,10,-48,64,81,113,79,47
163,85,-77,-124,120,4,-93,6,37,84,56,39
132,60,-72,-96,101,-5,-85,-26,20,54,35,31
130,43,-87,-86,108,-22,-80,-29,19,45,31,23
110,7,-103,-58,106,-47,-71,-30,10,34,19,15
70,-15,-86,-27,78,-50,-68,-35,4,24,10,-2
31,-48,-79,9,55,-64,-58,-59,-15,-16,-31,-40
9,-56,-66,24,38,-61,-68,-68,-28,-27,-41,-45
3,-56,-59,27,31,-57,-63,-63,-24,-23,-39,-45
-4,-53,-49,29,23,-51,-67,-65,-27,-27,-40,-46
1,-47,-48,23,25,-48,-72,-58,-21,-22,-31,-43
-4,-52,-48,29,22,-50,-64,-61,-21,-29,-41,-49
-2,-37,-34,20,17,-35,-84,-57,-20,-16,-23,-36
-18,-35,-17,27,0,-26,-58,-55,-14,-11,-25,-44
37,77,40,-58,-2,59,-236,-180,5,118,123,58
95,58,-37,-77,66,10,-383,-687,-302,84,235,150
156,226,70,-191,43,147,-866,-2021,-1543,-593,242,331
411,424,13,-418,199,218,-1487,-2849,-2434,-1153,290,583
249,-112,-360,-68,304,-236,-1100,-2213,-2039,-1221,-83,332
-158,-348,-189,253,16,-268,-593,-1473,-1454,-1121,-448,29
-166,-158,8,162,-87,-74,-307,-740,-751,-626,-303,-16
-102,-95,7,98,-54,-44,-29,-121,-143,-145,-117,-43
-66,-22,43,44,-54,10,18,10,-10,-32,-62,-31
-48,-27,21,37,-34,-3,51,94,71,12,-35,-36
-51,-15,36,33,-44,10,52,128,105,39,-21,-29
-42,-16,26,29,-34,4,65,150,121,73,-10,-29
-45,-13,32,29,-38,9,74,171,143,89,-3,-35
-37,-9,28,23,-33,10,77,181,142,85,1,-35
-44,-9,35,26,-39,13,92,198,169,101,6,-36
-45,-2,44,23,-44,21,109,214,186,97,10,-34
-62,-24,38,42,-50,7,124,230,195,106,15,-36
-75,-16,59,45,-67,21,121,237,207,121,18,-35
-66,-4,63,35,-64,29,128,263,217,126,21,-33
-65,-1,65,32,-65,32,139,286,243,150,24,-28
-58,9,66,24,-62,37,148,301,264,163,27,-25
-58,5,63,26,-61,33,159,322,278,158,30,-22
-40,37,77,2,-59,57,186,375,313,172,29,-17
-16,72,88,-29,-52,80,206,432,352,190,24,-16
-32,71,103,-19,-68,86,232,484,389,200,18,-19
-57,78,135,-11,-97,106,281,561,436,219,15,-22
-83,76,159,3,-121,117,321,632,482,229,10,-25
-88,92,180,-2,-134,135,365,700,516,220,6,-27
-114,109,223,2,-168,165,415,744,532,207,-6,-31
-138,126,265,6,-201,195,455,754,517,172,-34,-27
-147,166,313,-10,-230,239,468,730,480,124,-49,-19
-180,180,360,0,-270,270,445,630,398,58,-70,-13
-174,202,377,-14,-276,289,398,482,274,-28,-104,-6
-161,220,381,-30,-271,300,323,315,150,-101,-109,4
-142,207,349,-33,-245,278,239,174,43,-152,-100,20
-111,187,298,-38,-205,242,156,82,-25,-161,-94,32
-60,151,211,-46,-135,181,92,21,-45,-144,-77,28
-28,88,116,-30,-72,102,44,4,-36,-109,-48,22
-14,36,50,-12,-32,43,13,5,-24,-58,-21,19
25,24,-1,-24,13,11,7,5,-11,-16,-4,14
38,9,-28,-23,33,-9,3,5,4,20,13,10
38,-21,-59,-8,48,-39,-2,7,14,37,22,4
13,-48,-61,18,38,-55,-6,16,23,42,20,-3
3,-56,-59,27,31,-57,-11,24,30,45,20,-9
7,-54,-61,23,35,-57,-14,32,38,45,20,-16
2,-57,-59,27,31,-58,-15,39,43,50,20,-23
4,-56,-60,26,32,-57,-15,46,46,50,20,-23
4,-50,-54,23,29,-52,-15,52,49,52,24,-19
6,-44,-51,19,29,-47,-16,58,51,57,25,-20
9,-39,-48,15,29,-43,-13,60,55,59,25,-16
9,-34,-43,13,27,-39,-10,60,54,55,29,-15
11,-29,-40,9,25,-35,-10,60,50,55,31,-15
26,-26,-52,0,39,-39,-10,60,48,54,29,-15
27,-23,-49,-2,38,-36,-10,59,45,50,25,-15
18,-19,-37,0,28,-28,-11,56,41,50,25,-15
25,-15,-40,-5,33,-27,-14,53,40,48,25,-15
29,-11,-40,-9,35,-25,-15,51,37,43,25,-16
40,1,-40,-20,40,-19,-15,47,35,40,25,-12
48,7,-40,-28,44,-16,-15,45,35,37,21,-10
26,-13,-39,-7,33,-26,-15,43,30,32,20,-10
19,-22,-41,1,30,-31,-13,38,30,29,20,-7
20,-19,-39,0,29,-29,-7,32,29,26,20,-4
22,-21,-42,-1,32,-31,-2,29,24,25,20,-6
35,-19,-54,-8,45,-36,1,24,26,25,20,-11
32,-23,-56,-4,44,-39,7,18,22,25,20,-11
33,-21,-54,-6,44,-38,10,31,20,25,20,-9
15,-41,-56,14,35,-48,4,42,20,22,20,-10
2,-53,-54,26,28,-53,-3,40,20,20,20,-10
11,-46,-57,18,34,-51,-9,38,20,20,20,-10
16,-44,-60,14,38,-52,-16,35,20,20,24,-12
19,-41,-60,11,40,-50,-23,35,20,20,25,-15
20,-40,-60,10,40,-50,-23,32,20,20,25,-15
16,-44,-60,14,38,-52,-17,29,21,20,25,-15
10,-50,-60,20,35,-55,-12,26,25,20,25,-15
21,-39,-60,9,40,-49,-9,23,25,20,24,-15
0,-60,-60,30,31,-60,-3,21,25,20,20,-15
-15,-74,-59,44,22,-67,0,18,25,19,20,-15
3,-58,-62,28,33,-60,-4,15,25,23,20,-15
10,-54,-65,22,38,-59,-9,15,23,25,20,-15
22,-45,-67,12,45,-56,-11,15,19,25,20,-15
30,-40,-71,5,50,-55,-16,15,21,29,17,-13
29,-37,-66,4,48,-52,-20,15,16,31,14,-10
28,-33,-61,3,45,-47,-18,11,15,29,16,-7
27,-29,-56,1,41,-42,-14,10,15,26,13,-4
26,-27,-53,1,40,-40,-12,10,10,25,19,-1
31,-16,-47,-7,39,-31,-9,10,10,25,27,0
16,-28,-44,7,30,-36,-6,10,10,25,11,-7
-13,-52,-39,33,13,-46,-5,11,11,26,-5,-16
-18,-53,-35,36,9,-44,-11,16,9,26,-13,-21
7,-54,-61,24,34,-57,-18,21,14,41,-23,-28
20,-48,-68,14,44,-57,-19,24,31,57,-21,-28
8,-45,-53,19,31,-49,-12,29,36,53,-15,-21
8,-42,-50,17,29,-46,-8,30,35,58,-9,-16
1,-37,-38,18,20,-37,-4,32,35,60,-4,-11
4,-35,-39,16,22,-37,2,36,35,60,1,-4
33,-28,-61,-2,47,-44,4,35,37,64,15,-1
56,-17,-74,-19,66,-45,29,54,53,65,27,8
67,-8,-74,-29,71,-41,35,75,71,86,49,13
84,8,-75,-46,80,-33,23,90,92,111,71,31
134,59,-75,-96,104,-8,6,95,111,131,91,63
154,79,-75,-116,114,2,-48,68,80,113,91,63
120,44,-76,-82,98,-16,-73,31,44,77,69,55
106,26,-80,-66,92,-27,-74,12,30,72,69,49
110,8,-102,-59,105,-47,-77,2,16,59,62,43
75,-19,-93,-28,84,-56,-50,-6,5,43,39,26
16,-60,-76,22,46,-67,-23,-29,-1,27,14,-15
-8,-80,-72,44,32,-76,-32,-54,-8,10,9,-29
-16,-81,-65,49,25,-73,-31,-45,-9,-1,4,-37
-21,-86,-66,54,23,-76,-27,-44,-16,-2,-8,-48
-15,-67,-52,41,19,-60,-35,-40,-19,8,-5,-32
-19,-79,-61,49,21,-69,-26,-34,-16,3,-23,-37
-11,-51,-41,31,15,-46,-49,-36,-8,18,11,-21
-14,-72,-58,43,22,-64,-13,-27,3,4,-6,-15
39,13,-26,-25,32,-7,-167,-101,30,95,114,55
111,59,-52,-85,81,4,-350,-375,-38,189,275,154
139,102,-36,-120,87,33,-611,-1470,-990,-315,262,286
352,440,87,-396,132,263,-1303,-2734,-2229,-1018,354,602
331,137,-195,-234,263,-29,-1249,-2524,-2227,-1278,54,485
-90,-318,-228,204,69,-273,-662,-1718,-1648,-1250,-435,40
-228,-233,-4,231,-112,-118,-383,-1040,-1012,-844,-405,-89
-127,-139,-12,132,-57,-75,-88,-312,-297,-268,-150,-66
-69,-56,13,62,-41,-21,52,-22,-15,-35,-27,-52
-42,-47,-5,44,-18,-26,69,60,63,12,-5,-52
-35,-43,-8,39,-13,-26,83,109,107,42,9,-48
-26,-34,-8,30,-9,-21,90,129,127,70,4,-43
-40,-38,1,39,-20,-18,102,161,169,110,11,-41
-40,-32,8,35,-24,-12,101,158,169,110,10,-35
-30,-34,-5,32,-12,-19,111,166,170,110,5,-36
-26,-28,-2,27,-12,-14,111,166,173,111,4,-34
-19,-31,-13,25,-3,-22,117,185,189,108,-1,-30
-23,-24,-2,24,-10,-13,122,207,202,115,-2,-30
-31,-20,11,25,-21,-4,128,226,213,132,-6,-29
-41,-16,25,28,-33,5,141,247,231,142,-2,-25
-40,-10,30,25,-35,10,153,260,238,138,6,-25
-38,-8,30,23,-34,11,162,285,258,152,13,-25
-31,5,36,13,-33,20,185,321,290,169,19,-25
-36,16,53,10,-45,34,214,363,312,175,14,-25
-51,5,56,23,-54,30,234,416,346,185,7,-29
-59,12,71,23,-66,42,266,483,389,190,1,-37
-71,44,115,13,-93,79,308,547,424,186,-5,-39
-82,48,130,17,-106,89,352,613,457,176,-13,-34
-96,68,164,14,-130,116,405,678,487,167,-22,-31
-82,127,208,-23,-145,167,448,708,496,160,-33,-28
-104,153,257,-25,-180,204,464,699,468,135,-51,-23
-136,165,302,-15,-219,233,456,645,415,80,-71,-20
-147,198,345,-26,-246,271,422,517,313,0,-102,-16
-154,214,368,-30,-261,291,352,351,180,-84,-119,-9
-122,214,336,-46,-229,274,256,198,63,-146,-113,-2
-103,199,302,-49,-203,250,166,73,-31,-176,-118,4
-71,154,225,-42,-149,189,88,15,-71,-176,-105,12
-20,101,121,-40,-71,111,32,3,-72,-132,-64,22
10,57,48,-34,-19,52,3,-20,-57,-72,-42,17
29,27,-2,-28,15,12,-10,-28,-40,-32,-39,9
33,4,-29,-18,31,-12,-18,-19,-23,-6,-31,3
26,-21,-47,-2,37,-34,-27,-10,-5,7,-20,-6
16,-42,-58,13,37,-50,-27,-2,0,17,-7,-12
13,-47,-60,17,37,-53,-22,0,5,28,0,-19
12,-43,-55,16,34,-49,-20,0,11,35,3,-20
8,-46,-55,20,32,-51,-15,0,17,35,6,-20
10,-44,-54,17,33,-49,-12,0,20,34,11,-21
3,-46,-49,22,27,-47,-9,0,20,49,14,-19
11,-40,-51,14,31,-45,-3,5,20,56,18,-22
32,-15,-47,-9,40,-31,2,11,20,54,21,-26
3,-42,-45,20,24,-43,7,16,20,55,20,-25
-15,-61,-45,38,15,-53,14,22,20,55,24,-25
-5,-47,-42,26,18,-44,19,28,28,55,25,-25
-4,-44,-39,24,18,-41,16,27,31,51,25,-25
6,-35,-41,15,24,-38,9,19,29,46,30,-24
9,-36,-44,14,27,-40,5,13,30,44,30,-19
11,-34,-45,12,29,-40,-1,5,30,40,30,-16
9,-36,-45,14,27,-40,-6,-3,30,35,30,-13
12,-33,-45,11,29,-39,-11,-9,24,37,30,-8
5,-41,-45,18,26,-43,-16,-15,19,41,27,-5
-4,-46,-42,25,20,-44,-19,-15,14,40,19,-8
8,-32,-40,12,24,-35,-22,-15,7,40,13,-14
6,-30,-37,12,21,-33,-26,-15,3,40,5,-18
6,-28,-34,12,20,-30,-30,-15,-3,40,-3,-22
5,-26,-31,10,19,-28,-26,-13,-5,35,-9,-28
6,-21,-28,8,17,-24,-25,-9,-5,31,-15,-30
11,-38,-49,14,30,-43,-25,-10,-5,29,-15,-30
4,-58,-62,27,34,-59,-25,-6,-5,24,-15,-30
5,-49,-54,22,30,-51,-24,-5,-5,21,-15,-30
5,-48,-53,22,29,-50,-26,-5,0,17,-14,-30
5,-43,-48,19,27,-45,-43,-5,0,15,-18,-30
5,-40,-45,18,25,-42,-46,-5,0,12,-20,-34
2,-43,-45,21,24,-44,-45,-5,0,9,-20,-35
-1,-46,-45,24,23,-46,-43,-5,0,6,-20,-35
-4,-48,-45,26,20,-46,-39,-5,-3,5,-20,-35
-7,-53,-47,31,20,-50,-41,-8,-6,10,-20,-35
-14,-65,-52,40,19,-58,-36,-10,-5,10,-16,-35
-7,-55,-48,31,21,-51,-35,-10,-9,11,-15,-35
7,-39,-46,16,27,-42,-35,-10,-11,15,-15,-35
5,-35,-40,15,23,-37,-35,-10,-9,14,-15,-35
17,-28,-45,5,31,-36,-35,-10,-6,17,-15,-31
30,-25,-55,-2,43,-40,-35,-10,-1,20,-15,-30
29,-19,-49,-5,39,-34,-35,-10,1,20,-15,-30
28,-15,-43,-6,36,-29,-35,-10,6,20,-15,-30
1,-37,-38,18,20,-38,-35,-10,9,20,-15,-30
-17,-48,-31,33,8,-39,-35,-10,12,20,-15,-29
-9,-43,-34,26,13,-38,-35,-8,16,25,-14,-25
-9,-43,-34,26,12,-38,-39,-3,14,25,-10,-25
-14,-38,-24,27,5,-31,-39,1,19,25,-2,-25
-3,-41,-38,22,18,-39,-34,2,20,26,3,-25
19,-33,-52,7,36,-42,-29,9,20,24,11,-25
28,-22,-50,-3,39,-35,-26,9,31,31,17,-20
31,-18,-49,-6,40,-33,-19,24,47,48,22,-11
55,10,-45,-32,50,-17,-16,41,66,62,33,1
76,32,-44,-53,60,-6,-5,51,82,80,38,14
124,78,-46,-101,85,15,-5,73,102,113,70,45
153,110,-43,-131,98,33,-77,48,73,115,90,60
134,87,-47,-110,90,20,-105,25,32,78,69,50
134,76,-58,-105,96,9,-97,22,26,54,56,41
121,44,-77,-82,99,-16,-101,10,16,43,46,36
89,6,-84,-47,87,-39,-66,6,8,36,25,20
21,-33,-54,6,38,-43,-55,-5,-2,24,-14,-20
-21,-65,-44,44,12,-54,-52,-10,-4,6,-35,-43
-11,-55,-44,33,17,-49,-59,-14,-8,-5,-26,-39
-18,-65,-47,42,14,-56,-49,-4,-10,-5,-34,-47
-13,-55,-42,34,15,-48,-53,-6,-14,-5,-26,-45
-17,-65,-48,41,16,-56,-38,2,-16,-19,-34,-52
-14,-52,-37,33,12,-44,-39,3,-10,-8,-24,-47
-4,-27,-23,16,10,-24,-30,10,-13,2,-16,-30
-8,4,12,2,-10,8,-56,-2,0,46,19,-2
82,112,31,-97,25,71,-288,-209,-1,184,229,116
118,65,-53,-91,85,6,-430,-885,-521,-26,264,206
238,351,114,-295,62,232,-1025,-2226,-1814,-721,327,461
399,402,3,-400,198,202,-1451,-2718,-2388,-1164,317,618
86,-193,-279,54,183,-235,-900,-1956,-1882,-1228,-203,257
-219,-290,-71,255,-74,-180,-491,-1282,-1315,-1052,-464,-26
-162,-136,26,148,-93,-55,-205,-544,-572,-482,-259,-56
-85,-51,34,68,-59,-9,16,-39,-70,-73,-87,-57
-67,-17,51,42,-59,17,33,46,26,-9,-43,-53
-80,-55,25,67,-52,-15,67,119,96,37,-26,-57
-67,-29,37,48,-52,4,64,135,112,69,-7,-53
-40,-23,17,32,-29,-3,94,165,142,92,0,-53
-54,-29,25,42,-39,-2,105,181,151,98,8,-45
-73,-41,32,57,-52,-5,119,197,158,97,9,-42
-60,-24,36,42,-48,5,128,209,166,106,14,-38
-51,-15,35,32,-43,10,122,219,184,112,17,-32
-50,-11,39,30,-44,14,128,236,204,119,21,-29
-45,-4,41,24,-42,18,129,243,211,127,24,-25
-41,0,40,20,-41,20,146,262,225,136,27,-25
-39,7,46,15,-43,27,158,284,240,155,30,-25
-39,10,49,14,-44,29,161,307,261,168,32,-25
-34,20,54,6,-44,37,178,335,277,170,35,-25
-37,29,66,4,-52,47,197,374,302,178,33,-21
-30,41,71,-6,-51,55,225,431,343,185,25,-20
-36,49,84,-7,-60,66,254,486,379,191,19,-20
-50,57,106,-4,-78,81,290,550,419,197,13,-15
-49,76,126,-14,-88,101,344,625,464,202,6,-15
-75,91,166,-8,-121,128,389,687,497,197,1,-14
-89,118,207,-15,-148,162,439,725,507,178,-12,-9
-114,151,265,-18,-190,208,479,725,489,148,-32,-6
-141,173,314,-16,-228,243,478,687,445,89,-55,-3
-143,201,344,-30,-243,272,453,585,360,20,-76,2
-163,223,386,-30,-274,304,384,430,235,-59,-99,5
-150,219,370,-35,-260,294,282,270,117,-133,-106,10
-122,198,320,-38,-221,259,187,127,25,-170,-99,17
-102,165,267,-32,-185,216,108,36,-36,-171,-93,25
-53,125,178,-36,-116,151,58,-12,-42,-141,-69,29
-26,71,97,-23,-62,84,24,-27,-29,-93,-37,23
-3,37,41,-17,-22,39,-8,-19,-21,-54,-13,15
23,20,-2,-21,12,9,-22,-13,-7,-26,-2,10
16,-12,-27,-2,22,-19,-20,-6,7,2,4,2
28,-9,-36,-9,32,-22,-20,1,20,16,11,-4
32,-13,-45,-9,39,-29,-18,7,28,22,18,-2
21,-39,-60,9,41,-50,-14,11,34,29,24,0
23,-37,-60,7,41,-48,-15,10,35,35,22,0
25,-31,-55,3,40,-43,-12,9,34,43,19,0
26,-28,-54,2,40,-41,-7,5,36,47,16,0
28,-22,-50,-3,39,-35,-5,4,42,52,13,-1
29,-20,-49,-5,39,-34,-1,7,49,54,10,-7
13,-32,-45,10,29,-38,3,9,53,51,10,-13
8,-35,-43,14,26,-39,7,12,58,48,10,-19
11,-29,-40,9,25,-34,10,15,59,46,10,-17
9,-28,-36,10,23,-32,10,18,54,42,10,-15
14,-22,-36,4,25,-29,10,20,55,39,10,-15
7,-20,-26,7,16,-23,10,17,53,42,10,-10
15,-32,-47,9,31,-39,10,12,49,41,6,-10
27,-36,-64,4,46,-49,7,9,51,40,5,-12
24,-34,-58,5,42,-46,1,5,46,39,5,-15
25,-36,-61,5,43,-48,-3,2,40,35,0,-15
25,-34,-60,4,43,-47,-7,-1,35,35,0,-15
24,-35,-59,6,42,-47,-13,-7,30,33,0,-15
26,-30,-56,2,41,-42,-15,-13,23,29,0,-15
23,-30,-53,4,38,-41,-15,-17,21,27,0,-15
21,-30,-51,4,36,-40,-15,-24,25,24,0,-15
19,-28,-47,5,33,-38,-15,-29,25,21,0,-15
-10,-54,-45,32,18,-49,-15,-27,25,19,0,-15
-15,-63,-47,39,16,-55,-15,-24,25,16,-4,-15
-4,-55,-51,29,24,-52,-15,-21,25,15,-5,-16
-6,-55,-50,31,22,-52,-15,-18,22,14,-5,-20
0,-50,-50,25,25,-50,-15,-16,19,10,-10,-20
-1,-51,-50,26,25,-50,-15,-13,16,10,-10,-20
-5,-54,-49,30,23,-51,-15,-10,13,10,-10,-20
-11,-56,-46,34,18,-51,-16,-10,11,10,-10,-20
-16,-60,-44,39,14,-52,-22,-10,8,10,-10,-23
-17,-60,-43,38,13,-51,-28,-10,5,10,-10,-26
-24,-60,-36,42,6,-48,-34,-9,5,10,-10,-29
-7,-60,-53,34,23,-56,-39,-17,3,10,-10,-32
11,-60,-71,25,41,-65,-36,-23,-1,10,-6,-34
2,-61,-63,29,33,-61,-29,-18,0,10,-5,-37
0,-59,-59,30,30,-59,-22,-16,3,10,-5,-40
-4,-56,-53,30,25,-54,-16,-13,5,10,0,-40
-5,-53,-47,29,21,-50,-8,-10,5,10,0,-40
-9,-51,-42,30,16,-46,-6,-10,4,10,1,-40
-5,-46,-41,26,18,-44,-10,-10,0,10,5,-40
14,-46,-60,16,37,-53,-11,-10,0,10,5,-36
18,-41,-58,12,38,-49,-16,-10,0,10,5,-35
16,-35,-52,10,34,-43,-17,-9,-1,10,5,-34
24,-51,-75,14,49,-63,-21,-11,1,10,5,-31
12,-63,-74,26,43,-68,-14,-6,-5,14,9,-29
14,-43,-57,15,36,-50,-5,-5,-4,15,11,-35
7,-47,-55,21,31,-51,5,-5,-6,15,10,-46
22,-33,-55,6,39,-44,15,0,-9,15,10,-43
26,-28,-54,1,40,-40,5,-1,-10,14,9,-40
11,-46,-57,18,34,-51,6,3,-10,17,11,-38
39,-30,-69,-4,54,-50,-12,7,3,24,19,-35
9,-56,-65,23,37,-60,-4,22,5,29,29,-33
55,-2,-57,-27,56,-29,-20,21,27,36,36,-24
-10,-61,-52,36,21,-56,9,43,23,52,48,-16
83,40,-43,-61,63,-1,8,48,59,69,61,-8
25,-15,-40,-5,32,-27,6,62,44,79,66,0
132,98,-34,-115,83,32,165,106,98,106,92,5
417,369,-48,-392,232,160,-172,45,95,146,79,5
