I,II,III,aVR,aVL,aVF,V1,V2,V3,V4,V5,V6
-24,-29,-5,27,-9,-17,15,5,15,65,76,5
-26,-29,-3,27,-11,-15,19,5,21,65,82,9
-40,-37,3,38,-21,-17,24,5,28,68,85,15
-34,-28,6,31,-19,-11,21,6,31,71,85,15
-40,-28,12,34,-26,-8,18,5,30,73,84,14
-39,-25,14,32,-27,-5,16,7,30,78,87,18
-16,16,33,0,-25,24,12,29,52,102,107,26
-8,38,46,-15,-28,42,11,30,66,112,114,33
4,42,38,-23,-17,40,4,30,71,117,115,38
9,36,27,-23,-9,31,-22,50,73,127,137,49
32,53,21,-43,5,37,-31,53,78,139,160,50
13,21,8,-17,3,15,-33,16,39,107,133,34
3,-21,-24,9,14,-22,-34,-30,-1,64,82,26
15,-17,-31,1,23,-24,-23,-36,5,56,68,20
10,-19,-29,4,20,-24,-16,-35,8,56,63,15
4,-19,-24,8,15,-21,-7,-31,14,59,61,10
-31,-56,-25,44,-3,-40,-2,-32,3,44,52,2
-37,-55,-18,46,-9,-36,4,-27,19,60,55,1
-31,-54,-23,43,-4,-38,11,-29,-2,31,40,-17
-30,-57,-28,44,-1,-42,13,-3,31,62,40,-11
-35,-55,-20,46,-7,-38,61,30,47,34,18,-39
-38,-89,-51,64,6,-70,151,170,165,97,-6,-85
40,17,-23,-29,32,-3,47,161,249,263,136,21
290,221,-70,-255,180,75,-555,-585,-320,446,602,377
439,462,22,-450,208,242,-1160,-1594,-1171,422,992,771
237,284,47,-260,95,165,-1121,-2128,-2033,-886,327,549
-41,-137,-96,89,28,-116,-707,-1750,-1932,-1500,-417,50
-160,-97,63,129,-111,-17,-264,-764,-793,-597,-258,-63
-104,-31,73,68,-88,21,-20,-161,-167,-128,-58,-41
-33,-20,13,26,-23,-4,34,-16,-12,-12,-19,-22
-69,-31,38,49,-53,4,87,37,58,9,-4,-32
-99,-92,7,95,-52,-42,97,74,79,33,3,-48
-84,-65,19,75,-51,-23,93,93,109,66,23,-36
-79,-74,4,77,-41,-35,96,105,109,53,25,-36
-67,-59,8,63,-38,-25,93,105,116,72,23,-29
-63,-60,3,61,-32,-28,97,106,114,70,8,-25
-49,-49,0,49,-24,-25,99,119,116,78,2,-35
-38,-37,0,38,-19,-18,101,124,113,62,-18,-41
-65,-80,-15,73,-25,-48,101,127,121,58,-40,-39
-66,-82,-16,74,-25,-48,108,129,140,55,-62,-61
-62,-74,-12,68,-25,-42,108,133,144,51,-72,-73
-64,-70,-6,68,-29,-38,120,142,147,50,-68,-68
-60,-63,-3,62,-28,-33,131,159,152,44,-71,-72
-62,-60,3,61,-32,-29,129,166,154,46,-68,-68
-56,-49,7,52,-31,-21,131,184,167,36,-82,-72
-69,-57,12,63,-40,-22,129,215,188,29,-104,-75
-94,-74,20,84,-57,-27,138,218,197,12,-120,-94
-85,-67,18,76,-51,-25,154,236,209,-16,-150,-122
-106,-72,34,89,-70,-19,180,260,217,-37,-184,-128
-125,-70,55,97,-90,-7,195,268,214,-78,-232,-166
-124,-61,63,93,-94,1,210,285,216,-109,-272,-200
-145,-68,77,106,-111,4,225,293,214,-134,-306,-206
-118,-46,72,82,-94,13,218,278,217,-143,-335,-206
-123,-61,62,92,-93,1,208,240,197,-127,-317,-194
-103,-47,55,75,-79,4,177,192,154,-113,-259,-176
-46,1,47,22,-46,24,139,145,119,-62,-172,-113
-3,35,38,-16,-20,36,101,105,88,-5,-89,-54
18,38,21,-28,-2,29,58,76,63,19,-32,-30
-17,-12,5,15,-11,-3,39,59,52,44,-6,5
-15,-15,-1,15,-7,-8,41,51,46,55,1,24
-7,-7,1,7,-4,-3,38,47,39,51,8,25
-4,-7,-2,6,-1,-4,35,41,32,45,14,25
8,2,-6,-4,7,-1,35,35,26,40,22,24
7,3,-5,-5,5,-1,37,30,28,35,24,20
12,10,-2,-11,7,4,44,37,31,28,19,20
27,28,1,-28,13,14,41,46,29,26,16,19
30,34,4,-33,13,19,39,43,33,32,13,15
15,22,7,-19,4,14,37,56,41,39,9,15
9,20,10,-14,-1,15,33,72,52,44,4,13
0,9,9,-5,-5,9,44,69,67,55,13,10
3,7,4,-6,-1,6,51,73,80,76,21,7
37,42,6,-40,15,24,45,75,77,80,19,4
35,38,2,-37,16,20,43,75,71,71,21,1
18,18,-1,-18,9,8,38,71,68,70,20,0
34,35,1,-34,16,17,35,60,62,63,21,7
35,31,-4,-33,19,13,31,50,59,61,18,15
29,24,-5,-26,17,9,26,41,51,64,15,20
27,21,-5,-24,16,8,21,34,44,60,13,20
26,16,-10,-21,17,3,18,27,37,52,9,20
27,17,-10,-22,18,3,12,19,29,45,7,20
16,6,-10,-11,13,-2,11,13,23,40,3,20
40,30,-10,-35,25,10,25,6,16,31,17,20
56,46,-10,-51,33,18,25,0,10,36,27,15
32,22,-10,-27,21,6,20,-5,5,52,25,15
33,20,-14,-26,24,3,18,-11,-1,49,25,13
36,21,-15,-28,26,2,13,-17,-7,50,21,10
34,18,-15,-26,24,1,10,-19,-9,50,19,10
37,22,-15,-29,26,3,10,-10,-1,49,21,12
14,-2,-15,-6,15,-8,10,1,7,53,26,18
-3,-16,-13,10,5,-14,10,10,12,58,23,21
25,35,10,-30,7,22,10,22,23,67,35,27
58,81,23,-70,17,52,11,29,33,67,45,29
71,87,16,-79,27,51,8,42,50,82,54,43
66,81,15,-74,25,48,-5,52,57,100,73,57
60,70,10,-65,25,40,-42,38,43,86,69,54
57,64,7,-61,25,35,-48,25,34,79,71,56
48,51,3,-50,22,27,-37,2,19,66,67,52
71,47,-24,-59,47,11,-53,-28,9,59,58,48
78,42,-36,-60,57,3,-47,-31,-9,48,50,43
68,37,-31,-52,49,3,-37,-6,-3,39,40,40
35,15,-20,-25,27,-2,-42,-6,-8,34,37,32
-6,-26,-19,16,7,-22,-35,-36,-45,18,32,17
-3,-9,-7,6,2,-8,-19,-29,-26,31,37,9
-6,-19,-13,13,4,-16,0,-19,-32,1,16,1
-7,-15,-8,11,1,-11,4,3,1,29,21,3
-14,-36,-22,25,4,-29,37,43,15,-4,-29,-33
-7,-64,-57,36,25,-60,138,216,194,108,-44,-71
73,52,-21,-62,47,16,3,147,204,238,119,45
315,250,-65,-282,190,92,-614,-632,-428,447,654,459
415,521,106,-468,154,314,-1139,-1586,-1279,344,1027,821
172,312,141,-242,16,226,-1052,-2040,-2102,-1071,213,516
-62,-79,-16,71,-23,-47,-629,-1565,-1813,-1473,-480,19
-136,-2,134,68,-135,66,-226,-642,-696,-542,-263,-68
-56,43,99,6,-78,71,-29,-120,-140,-144,-83,-30
-19,4,24,7,-22,14,25,15,15,-10,-36,-42
-17,10,27,3,-22,19,60,57,46,0,-31,-46
7,7,0,-7,3,3,59,104,82,22,-27,-44
-8,5,13,1,-10,9,60,112,99,38,-21,-45
-12,-18,-6,15,-2,-12,61,105,94,35,-22,-45
15,12,-3,-13,9,5,59,115,113,42,-12,-46
53,40,-13,-46,32,13,61,131,118,29,-20,-50
14,-1,-15,-6,14,-8,59,132,122,39,-25,-50
-36,-50,-14,43,-11,-31,61,135,124,27,-35,-50
-45,-64,-19,55,-13,-41,59,139,125,32,-27,-51
-14,-33,-19,23,3,-26,63,140,129,28,-23,-49
-18,-39,-21,29,2,-29,65,141,129,24,-51,-50
-15,-31,-16,23,1,-23,66,139,133,26,-52,-63
0,-12,-12,6,6,-12,71,162,149,22,-53,-69
-50,-59,-9,55,-20,-34,68,175,157,20,-77,-69
-37,-42,-5,40,-15,-24,81,184,176,20,-81,-88
-58,-60,-2,59,-28,-31,91,199,198,13,-100,-97
-91,-89,1,90,-46,-44,101,226,205,-3,-113,-93
-83,-74,9,79,-46,-33,115,257,214,-21,-132,-116
-97,-80,17,88,-56,-31,128,263,230,-34,-175,-146
-98,-72,26,85,-61,-23,142,278,229,-76,-223,-175
-108,-77,32,92,-69,-22,158,276,217,-112,-266,-198
-120,-74,47,97,-83,-14,168,268,208,-134,-298,-215
-135,-76,59,105,-96,-9,158,263,196,-151,-308,-218
-123,-70,53,96,-87,-9,147,217,183,-132,-275,-186
-103,-56,47,79,-75,-4,127,169,168,-107,-219,-146
-65,-23,41,44,-53,9,91,133,142,-61,-135,-97
-30,6,36,12,-33,20,49,94,99,-11,-57,-45
-8,21,29,-7,-19,25,26,63,76,24,-6,-14
19,41,22,-31,-2,32,18,53,68,50,21,-4
7,23,16,-15,-5,19,7,40,57,45,19,-3
1,10,9,-6,-4,10,5,30,55,40,20,1
1,4,2,-3,-1,3,5,47,51,34,20,3
2,-2,-4,0,3,-3,5,57,50,29,20,6
-1,-2,-2,2,1,-2,4,54,45,23,19,5
20,24,4,-22,7,14,18,56,45,20,14,5
25,33,8,-29,8,21,6,55,39,20,11,6
5,17,12,-11,-4,15,3,54,47,20,7,3
33,51,18,-42,7,34,31,69,87,35,4,18
10,29,19,-19,-5,23,30,77,97,42,-1,22
21,36,15,-29,3,25,30,74,94,54,12,11
68,81,13,-75,28,47,27,72,92,62,26,6
52,61,10,-56,21,35,24,69,89,65,25,-3
56,62,7,-59,24,34,25,70,91,69,25,-9
43,48,5,-46,19,26,20,64,83,58,25,-10
22,24,2,-23,10,13,17,57,76,53,25,-5
32,28,-4,-30,18,12,13,51,69,45,25,-5
24,16,-8,-20,16,3,10,44,61,37,25,-5
19,7,-13,-13,16,-3,5,38,54,31,25,-5
31,13,-17,-22,24,-2,5,32,47,30,25,-5
31,9,-22,-20,26,-6,5,29,43,30,25,-7
40,15,-25,-27,32,-5,6,25,37,28,25,-10
51,26,-25,-38,37,0,19,22,34,41,25,-14
45,20,-25,-32,35,-2,17,17,29,43,25,-15
34,8,-25,-20,29,-8,10,15,25,35,25,-10
17,-8,-25,-4,21,-16,7,20,25,32,25,-10
23,-6,-29,-9,26,-17,-1,20,25,24,24,-10
48,18,-30,-33,38,-6,-4,20,25,21,27,-10
37,7,-31,-22,34,-12,-1,20,25,24,30,-10
8,-26,-34,10,21,-30,1,19,24,26,32,-8
8,-28,-36,11,22,-32,0,23,28,24,36,-1
-4,-35,-32,20,14,-33,1,25,32,25,37,5
4,-8,-12,3,8,-10,0,30,39,27,42,13
28,43,16,-36,6,29,3,29,38,42,34,18
44,62,18,-54,13,40,13,43,54,62,41,28
98,103,5,-101,46,54,-6,64,80,71,65,43
110,105,-5,-107,57,50,-41,51,78,75,60,39
100,84,-17,-92,58,33,-45,39,71,76,54,30
81,72,-10,-76,45,31,-37,5,28,50,49,24
44,-1,-45,-22,44,-23,-31,-26,-16,0,37,14
75,5,-70,-40,73,-33,-24,-22,-19,-2,29,14
78,27,-51,-53,65,-12,-18,-22,-22,8,12,28
4,-40,-44,18,24,-42,-11,-15,-6,15,10,13
-8,-50,-43,29,18,-46,-4,-17,-11,-4,0,-13
20,-30,-50,5,36,-40,6,-10,5,11,6,-6
12,-33,-46,10,29,-39,13,-11,3,-11,-6,-16
47,-13,-60,-16,54,-36,21,-4,10,-1,-2,-12
21,-26,-47,3,34,-36,30,25,27,3,-10,-21
-48,-106,-58,77,6,-82,114,133,100,-5,-70,-83
-11,-33,-21,22,5,-27,124,233,271,167,13,-41
182,150,-32,-166,107,59,-360,-300,-153,300,393,256
410,438,27,-424,191,232,-1030,-1295,-969,525,984,730
313,510,196,-412,58,353,-1195,-2009,-1866,-415,666,724
38,46,8,-42,15,27,-877,-1954,-2195,-1605,-270,228
-113,-92,22,102,-67,-35,-421,-1097,-1233,-1002,-384,-54
-68,59,126,4,-97,92,-96,-314,-336,-290,-159,-96
6,15,9,-11,-2,11,2,-46,-56,-99,-79,-82
-23,-3,20,13,-22,9,42,14,14,-33,-60,-71
-14,-17,-3,16,-6,-9,72,60,35,-40,-64,-64
-20,-31,-11,26,-4,-20,70,72,84,-5,-43,-58
-20,-33,-13,27,-3,-23,76,85,86,-13,-44,-61
4,-15,-18,6,11,-16,72,101,106,7,-33,-59
-23,-34,-11,29,-6,-23,70,106,105,13,-25,-60
-46,-64,-18,56,-14,-41,70,125,104,33,-53,-61
-34,-47,-13,41,-11,-29,70,126,106,16,-78,-64
-36,-49,-13,43,-11,-31,71,124,103,-1,-77,-67
-28,-37,-9,32,-9,-22,69,121,108,-6,-80,-69
-24,-35,-11,29,-6,-22,81,119,111,-14,-84,-72
-14,-24,-10,19,-2,-17,85,121,127,-18,-84,-80
-14,-24,-10,19,-2,-17,89,135,136,-24,-87,-85
-47,-56,-9,52,-18,-32,96,142,145,-29,-112,-95
-49,-51,-2,50,-23,-27,98,153,155,-30,-117,-95
-69,-66,3,67,-35,-31,122,176,173,-31,-126,-107
-57,-50,7,53,-32,-21,139,188,197,-38,-141,-126
-67,-52,14,59,-41,-19,147,220,210,-28,-147,-133
-105,-88,18,96,-61,-35,159,251,235,-53,-191,-167
-105,-77,28,91,-66,-25,171,266,242,-82,-226,-194
-105,-66,39,85,-72,-13,191,276,228,-99,-267,-218
-104,-61,43,83,-73,-9,206,268,222,-135,-311,-241
-145,-84,61,114,-103,-11,197,255,211,-156,-313,-246
-134,-65,70,99,-102,2,191,243,205,-167,-306,-243
-114,-52,62,82,-88,5,180,203,180,-146,-288,-220
-106,-50,56,78,-80,3,117,133,131,-105,-224,-172
-60,-10,49,35,-54,19,75,91,97,-62,-129,-109
-22,19,41,1,-32,30,47,62,68,-20,-65,-62
-8,16,23,-4,-16,19,11,28,38,-7,-24,-40
7,21,15,-15,-4,18,11,18,27,-3,-4,-31
42,54,12,-48,15,33,10,14,23,4,-4,-30
30,38,8,-34,11,23,6,9,17,1,0,-30
19,23,5,-22,6,14,5,6,11,-5,2,-30
26,26,0,-26,13,13,5,0,6,-10,6,-30
22,24,2,-24,10,13,10,4,2,-15,3,-31
19,25,7,-22,5,16,13,9,-3,-22,-1,-35
15,25,10,-20,2,17,17,12,-4,-24,1,-35
10,23,13,-17,-2,18,20,18,4,-15,-4,-37
-2,15,18,-7,-10,16,25,19,11,-7,-5,-41
16,36,20,-26,-3,28,23,33,17,2,-4,-40
26,45,20,-36,3,32,19,42,31,12,0,-37
16,36,20,-26,-2,28,17,39,44,27,0,-34
13,33,20,-23,-3,26,14,44,41,37,0,-31
6,26,20,-16,-7,22,11,45,35,35,0,-28
1,21,20,-11,-10,21,9,45,30,32,0,-25
-1,16,18,-8,-10,17,5,38,24,30,2,-26
0,14,15,-8,-8,15,5,30,19,26,8,-30
4,16,12,-10,-4,13,4,24,14,25,12,-30
5,14,9,-10,-3,11,0,16,9,21,16,-30
10,16,5,-13,2,11,0,9,4,20,21,-30
8,14,5,-11,1,9,-2,2,0,20,25,-30
-1,9,10,-5,-5,10,-8,-4,-5,15,30,-26
-4,11,15,-4,-10,13,-13,-11,-9,15,30,-24
-13,7,20,3,-17,13,-16,-17,-14,14,31,-25
-17,6,23,6,-21,14,-22,-25,-20,10,35,-19
-26,3,29,11,-28,16,-25,-29,-26,10,35,-22
-14,13,28,0,-21,20,-20,-26,-29,10,37,-16
11,36,25,-24,-7,30,-20,-23,-24,9,40,-23
-3,19,22,-8,-13,20,-19,-21,-19,11,43,-39
-29,-10,19,20,-24,4,-14,-17,-14,5,45,-27
-22,-6,16,14,-19,5,-15,-15,-10,6,50,-18
3,16,13,-10,-5,15,-12,-11,-5,20,49,-8
1,40,39,-21,-20,39,-9,2,2,34,61,3
6,54,48,-30,-22,51,-11,12,13,51,74,9
27,59,32,-43,-3,45,-9,24,26,63,78,20
41,65,24,-53,9,44,-33,26,34,76,99,30
53,67,14,-60,19,40,-57,9,34,81,99,31
39,51,12,-45,13,32,-52,-3,-9,60,83,26
26,10,-16,-18,21,-3,-48,-9,-37,49,76,24
70,29,-41,-50,55,-6,-45,-15,-32,36,67,21
65,26,-39,-45,52,-7,-38,-26,-39,19,57,19
-6,-35,-30,21,12,-32,-27,-29,-29,16,51,10
-23,-55,-32,39,4,-43,-18,-37,-43,-2,40,-10
-25,-46,-21,36,-2,-33,-7,-25,-26,23,44,-21
-26,-47,-21,37,-2,-34,-2,-35,-44,-5,29,-27
-30,-45,-14,38,-8,-29,6,-27,-27,31,37,-22
-29,-44,-15,36,-6,-29,47,12,-16,0,7,-39
-42,-102,-60,73,9,-81,142,155,109,35,-21,-70
-7,0,7,4,-7,4,49,156,216,213,109,2
260,224,-36,-242,147,94,-564,-563,-339,407,577,367
456,495,39,-476,208,267,-1176,-1543,-1130,510,1079,816
257,355,98,-306,79,227,-1191,-2120,-2007,-738,480,627
-48,-124,-76,86,14,-100,-775,-1780,-1997,-1498,-335,111
-134,-74,60,104,-97,-7,-291,-768,-846,-619,-231,-24
-91,0,91,46,-91,45,-32,-169,-198,-139,-46,-8
-74,-57,17,65,-45,-20,41,-9,-38,-12,-15,-10
-64,-28,37,46,-51,5,75,51,20,28,-2,-27
-53,-50,3,51,-28,-23,84,77,46,42,0,-45
-45,-31,14,38,-29,-8,91,105,79,88,23,-36
-70,-71,-1,71,-34,-36,88,110,79,77,29,-38
-80,-81,0,81,-40,-40,101,123,110,93,33,-32
-74,-80,-6,77,-34,-42,117,125,104,78,28,-31
-72,-84,-12,78,-30,-48,114,129,113,101,31,-28
-72,-85,-13,79,-29,-49,115,150,124,110,29,-25
-70,-86,-17,79,-26,-51,109,153,128,110,30,-25
-28,-43,-15,36,-7,-29,110,158,135,109,31,-23
-58,-79,-21,68,-18,-50,113,167,133,104,28,-20
-81,-101,-20,91,-30,-60,118,178,146,106,23,-19
-55,-72,-18,64,-18,-45,142,190,154,102,20,-33
-62,-73,-11,68,-25,-42,151,217,170,96,9,-42
-64,-69,-5,67,-29,-37,159,238,189,88,-13,-40
-68,-69,-1,69,-34,-35,159,251,211,84,-17,-39
-100,-82,18,91,-58,-32,173,289,243,74,-36,-52
-132,-88,44,110,-88,-22,210,311,257,74,-61,-67
-139,-82,57,110,-98,-12,213,334,274,74,-74,-68
-137,-72,64,104,-100,-4,218,368,291,45,-119,-88
-153,-70,84,111,-118,7,239,384,299,21,-159,-118
-174,-65,109,119,-141,21,246,393,293,7,-182,-123
-189,-75,113,132,-151,19,234,386,285,3,-186,-108
-180,-71,110,125,-145,19,223,356,271,8,-166,-93
-114,-3,111,59,-113,54,190,296,225,26,-124,-63
-84,8,93,38,-89,50,145,227,189,76,-37,-11
-67,-11,56,39,-61,22,119,185,159,134,48,44
-32,1,33,15,-32,17,91,157,120,168,102,94
-19,1,20,9,-20,10,68,138,104,188,135,116
-2,5,7,-2,-5,6,63,132,100,209,155,131
-8,-5,3,6,-5,-1,57,127,95,212,165,158
-13,-16,-3,15,-5,-9,54,124,92,207,171,161
-8,-14,-6,11,-1,-9,48,118,86,205,173,159
15,3,-12,-9,13,-4,45,115,87,203,168,161
26,13,-14,-19,20,0,63,121,91,198,162,159
5,9,3,-7,1,6,78,130,89,207,160,161
5,5,0,-5,2,2,73,136,102,215,152,159
9,0,-9,-4,9,-5,76,147,118,214,152,166
2,-3,-5,1,4,-4,92,160,126,236,172,171
-17,-19,-2,18,-7,-10,96,179,147,250,176,169
-30,-28,2,29,-16,-13,95,193,156,255,175,172
-16,-11,5,13,-10,-3,94,187,166,266,173,167
1,11,10,-6,-5,10,100,202,187,292,182,182
-21,-13,8,17,-14,-3,109,221,198,312,201,201
-36,-32,4,33,-20,-13,100,212,193,309,200,200
-26,-21,5,23,-16,-7,94,206,185,310,198,198
-18,-17,1,17,-9,-7,86,199,180,310,195,195
-10,-11,0,11,-5,-5,78,192,172,310,194,194
-7,-7,0,7,-3,-3,77,187,170,308,198,198
7,0,-7,-3,7,-3,85,184,170,304,200,201
8,-7,-15,0,12,-11,89,186,170,306,200,198
26,3,-23,-14,24,-9,86,181,170,301,200,211
51,20,-32,-35,41,-6,83,180,170,300,200,222
36,3,-33,-19,34,-15,80,180,170,300,200,219
11,-18,-29,4,20,-23,78,174,165,295,193,220
14,-11,-25,-1,19,-17,74,167,165,291,185,220
29,7,-22,-18,26,-7,78,160,163,286,177,220
20,4,-16,-12,18,-6,80,155,161,281,169,220
10,-6,-16,-2,14,-11,80,145,157,277,167,220
26,-8,-33,-8,30,-21,80,161,174,273,171,219
42,7,-35,-25,38,-14,80,178,195,269,169,221
42,13,-28,-27,35,-7,80,175,195,268,170,218
86,60,-26,-73,56,17,70,174,210,262,187,223
113,97,-15,-105,64,41,54,169,229,261,191,223
69,47,-22,-58,45,12,42,171,228,275,186,220
107,62,-45,-84,76,8,26,164,222,263,182,233
130,77,-53,-103,91,12,14,151,221,257,181,223
81,28,-53,-54,66,-12,15,140,188,240,160,207
81,9,-72,-45,76,-31,22,130,143,193,133,199
71,-13,-84,-29,77,-48,26,125,138,177,123,193
80,-8,-87,-36,84,-47,38,116,158,187,114,185
76,-6,-82,-34,79,-44,56,110,169,175,108,171
55,-33,-88,-10,72,-60,54,101,150,141,92,152
66,-17,-83,-24,74,-50,55,98,162,151,87,144
45,-40,-85,-2,66,-63,56,93,139,118,63,130
38,-50,-88,7,63,-69,51,99,154,138,65,125
41,-38,-79,-1,60,-58,85,132,175,98,17,102
62,-52,-115,-5,89,-83,173,286,332,170,-13,36
124,36,-88,-80,105,-25,88,266,403,326,125,124
360,213,-147,-286,253,33,-484,-425,-167,492,617,521
520,506,-13,-513,266,246,-1059,-1379,-991,480,1078,922
298,376,78,-337,110,227,-1025,-1890,-1838,-842,332,664
28,-64,-92,19,60,-78,-631,-1553,-1735,-1488,-493,97
-48,-11,37,29,-42,13,-230,-670,-655,-607,-332,-37
25,46,21,-36,2,33,-15,-98,-41,-148,-135,3
50,-22,-72,-14,61,-46,30,42,118,-18,-89,-1
45,1,-44,-23,44,-21,65,84,156,4,-95,-8
80,2,-78,-40,79,-38,74,108,192,-3,-95,-28
62,-8,-70,-26,66,-39,69,110,212,1,-85,-41
57,-25,-83,-16,70,-54,67,110,197,-20,-95,-47
70,-9,-79,-31,75,-44,62,110,204,-11,-89,-53
65,-12,-77,-26,71,-45,59,110,193,-33,-103,-69
86,12,-74,-49,80,-31,54,109,196,-22,-98,-67
54,-11,-65,-22,60,-37,52,106,191,-47,-115,-75
28,-38,-66,5,47,-51,49,104,186,-77,-143,-95
38,-18,-57,-10,48,-37,51,106,182,-81,-152,-120
44,-13,-57,-15,50,-34,49,104,177,-90,-160,-140
78,2,-76,-40,77,-37,51,106,173,-100,-174,-146
59,-20,-80,-19,70,-50,48,105,170,-116,-191,-159
94,22,-72,-57,83,-25,45,105,180,-102,-178,-169
79,10,-70,-44,74,-30,66,130,208,-123,-208,-199
10,-54,-64,23,37,-59,78,143,212,-160,-258,-220
59,1,-58,-30,59,-29,74,142,202,-169,-267,-220
44,-4,-48,-20,46,-26,75,147,196,-199,-297,-247
9,-32,-41,12,25,-36,88,149,186,-229,-336,-284
5,-26,-31,11,18,-29,95,148,182,-284,-392,-324
-15,-28,-13,21,0,-20,108,141,170,-330,-440,-352
-3,-8,-5,6,1,-7,116,136,159,-366,-479,-371
-23,-26,-3,25,-10,-14,107,130,143,-397,-510,-392
-23,-23,1,23,-12,-11,106,108,111,-392,-492,-379
12,17,5,-15,4,10,77,60,77,-370,-443,-344
49,52,3,-50,23,27,31,10,45,-324,-356,-301
84,77,-7,-80,46,35,-9,-43,15,-279,-269,-247
77,65,-11,-71,44,27,-42,-80,-15,-259,-221,-218
101,64,-37,-82,69,13,-55,-93,-32,-259,-193,-214
113,55,-58,-83,85,-2,-64,-109,-51,-264,-189,-215
106,52,-54,-79,80,0,-64,-117,-65,-265,-184,-215
112,57,-56,-84,84,0,-67,-126,-71,-270,-182,-215
117,62,-55,-89,86,3,-70,-129,-76,-270,-177,-215
115,59,-55,-87,85,2,-70,-119,-82,-269,-174,-215
109,58,-51,-83,80,3,-72,-116,-76,-274,-177,-215
128,83,-44,-105,86,19,-59,-109,-75,-271,-161,-215
78,38,-41,-58,59,-2,-73,-104,-101,-258,-187,-215
81,47,-34,-63,57,6,-86,-98,-90,-247,-198,-215
106,77,-29,-92,68,24,-73,-93,-75,-238,-174,-215
89,65,-23,-77,56,21,-71,-87,-83,-229,-172,-215
94,73,-20,-84,57,27,-64,-85,-78,-221,-168,-212
84,66,-17,-75,51,24,-61,-85,-81,-219,-165,-209
95,81,-15,-87,55,32,-60,-82,-80,-221,-163,-210
72,60,-12,-66,41,24,-60,-79,-78,-219,-158,-210
77,68,-9,-73,43,29,-60,-80,-101,-225,-164,-210
108,94,-14,-101,61,40,-60,-90,-106,-245,-182,-210
100,85,-15,-92,57,35,-58,-96,-97,-234,-186,-205
88,73,-15,-80,51,29,-54,-94,-116,-246,-185,-200
66,51,-15,-58,40,17,-55,-95,-131,-277,-190,-195
65,50,-15,-57,40,17,-55,-95,-146,-274,-190,-191
71,57,-14,-64,42,21,-55,-93,-158,-275,-189,-186
76,66,-10,-71,42,28,-54,-106,-154,-270,-185,-184
60,50,-10,-55,35,20,-51,-117,-161,-270,-182,-189
51,41,-10,-46,30,15,-48,-109,-159,-269,-180,-190
78,68,-10,-73,44,29,-46,-108,-156,-264,-176,-185
76,66,-10,-71,43,28,-42,-103,-171,-266,-174,-183
38,31,-7,-34,22,12,-40,-100,-176,-262,-172,-178
35,31,-4,-33,19,13,-37,-104,-174,-259,-166,-175
55,54,-1,-54,28,26,-35,-105,-172,-260,-161,-171
53,55,2,-54,25,28,-35,-117,-169,-256,-158,-164
51,55,5,-53,23,30,-31,-117,-170,-249,-153,-158
48,54,6,-51,20,30,-29,-108,-160,-243,-148,-151
37,57,21,-47,8,39,-30,-102,-146,-217,-125,-144
51,95,44,-73,3,69,-36,-95,-137,-194,-103,-135
54,96,43,-75,5,69,-42,-90,-127,-185,-92,-127
42,72,30,-57,6,51,-47,-94,-117,-170,-78,-118
77,99,22,-88,27,60,-59,-100,-111,-162,-76,-115
94,108,14,-101,40,60,-55,-96,-133,-153,-73,-115
66,53,-12,-59,39,21,-47,-117,-193,-152,-84,-115
60,19,-41,-39,51,-11,-41,-119,-211,-140,-91,-115
74,33,-41,-53,58,-4,-34,-103,-210,-142,-88,-115
57,21,-36,-39,46,-7,-29,-90,-210,-132,-85,-114
53,28,-25,-40,38,2,-24,-84,-208,-135,-77,-108
15,-14,-29,0,22,-21,-23,-83,-214,-139,-93,-120
-14,-35,-20,25,3,-27,-17,-75,-200,-115,-108,-135
39,9,-30,-23,34,-11,-17,-81,-205,-112,-116,-136
8,-13,-21,3,15,-17,-4,-49,-169,-58,-92,-132
-27,-54,-27,41,1,-40,54,19,-133,-103,-129,-145
-19,-44,-25,32,3,-34,121,193,80,48,-101,-134
77,85,8,-81,35,46,-132,-22,-36,211,155,51
322,343,21,-333,150,181,-798,-927,-799,461,785,523
350,579,229,-465,60,404,-1210,-1820,-1707,94,965,788
92,223,131,-158,-20,177,-1016,-2055,-2340,-1356,2,375
-129,-136,-7,133,-61,-71,-551,-1369,-1711,-1336,-495,-67
-155,-7,148,81,-151,70,-179,-481,-626,-402,-239,-112
-63,3,66,30,-65,34,-28,-86,-220,-111,-109,-72
-40,-6,34,23,-37,14,11,18,-94,13,-66,-69
-78,-47,31,62,-54,-8,33,51,-60,12,-64,-72
-91,-84,7,87,-48,-39,49,80,-20,62,-35,-66
-87,-68,19,77,-52,-24,60,104,7,71,-31,-63
-83,-81,2,82,-42,-39,66,113,18,81,-26,-61
-80,-71,9,75,-44,-31,71,123,38,97,-23,-55
-75,-77,-2,76,-36,-39,74,132,46,91,-27,-50
-70,-71,-1,71,-34,-36,79,135,57,107,-23,-44
-56,-62,-6,60,-25,-34,84,140,75,115,-27,-40
-62,-67,-5,65,-28,-36,87,143,83,127,-24,-33
-75,-80,-4,78,-36,-42,92,146,98,124,-27,-31
-73,-79,-6,76,-33,-42,97,145,122,125,-33,-36
-66,-70,-4,69,-30,-37,104,160,143,137,-36,-35
-75,-73,2,74,-39,-35,108,170,159,140,-41,-41
-71,-60,11,65,-40,-24,111,187,173,141,-39,-39
-86,-77,10,82,-48,-33,131,225,207,155,-45,-45
-138,-128,10,133,-74,-59,143,230,223,150,-72,-65
-149,-132,17,140,-83,-57,146,261,243,145,-77,-66
-156,-128,28,142,-92,-50,160,294,274,137,-92,-86
-161,-127,35,144,-97,-46,180,304,297,110,-123,-107
-160,-124,36,141,-97,-44,203,328,314,76,-150,-128
-172,-125,47,148,-109,-39,218,323,320,50,-193,-155
-187,-115,72,151,-129,-21,222,315,326,43,-215,-155
-192,-107,85,149,-138,-11,213,303,311,46,-214,-156
-177,-99,78,138,-127,-11,189,265,269,44,-190,-137
-153,-82,70,117,-111,-6,151,219,230,56,-112,-82
-115,-54,62,84,-88,4,102,174,192,105,-24,-16
-98,-43,54,70,-76,5,66,136,163,145,49,32
-92,-46,46,69,-69,0,49,112,150,171,97,61
-71,-42,28,56,-49,-7,44,97,140,184,124,81
-58,-39,19,49,-39,-10,46,82,133,186,141,89
-57,-42,15,49,-36,-13,44,79,125,190,145,96
-43,-33,10,38,-26,-11,46,80,119,183,149,106
-37,-31,7,33,-22,-12,44,73,109,176,147,110
-43,-43,1,43,-22,-20,41,79,107,169,143,113
-64,-62,2,62,-32,-29,58,98,126,161,142,115
-71,-65,7,68,-39,-29,60,102,132,153,138,109
-51,-41,10,46,-30,-15,55,98,129,155,136,104
-49,-36,13,42,-31,-11,54,97,136,167,133,98
-55,-37,18,45,-36,-9,49,93,134,168,130,92
-47,-27,20,37,-34,-3,51,99,136,175,125,88
-51,-31,20,41,-35,-5,55,114,157,190,123,84
-36,-16,20,26,-28,2,59,112,165,194,118,85
-36,-16,20,26,-28,2,57,106,155,193,115,85
-81,-62,20,71,-50,-21,52,103,149,189,127,85
-83,-62,21,73,-51,-21,50,97,142,187,131,84
-67,-50,17,58,-42,-16,45,94,134,184,129,80
-63,-49,15,55,-39,-17,42,88,128,181,131,80
-52,-36,15,44,-33,-10,38,80,120,179,128,80
-48,-37,11,43,-29,-13,34,75,110,174,140,80
-54,-44,10,49,-32,-17,28,67,100,168,150,80
-64,-55,9,59,-36,-22,25,61,89,164,143,80
-62,-55,6,58,-33,-25,20,72,85,158,138,80
-56,-53,3,54,-29,-25,15,75,83,151,133,80
-60,-59,1,59,-30,-28,19,69,80,152,126,80
-41,-44,-3,42,-18,-23,19,67,76,155,130,80
-57,-61,-4,60,-26,-33,15,62,75,155,141,80
-78,-86,-8,82,-35,-47,15,60,79,159,138,85
-47,-69,-22,58,-12,-45,16,65,80,160,135,90
-46,-65,-18,56,-14,-41,13,65,79,161,133,93
-44,-54,-10,49,-16,-32,27,65,81,165,129,98
-47,-48,-1,47,-23,-24,36,67,88,165,133,100
-41,-38,4,39,-22,-17,27,63,94,166,135,100
-19,1,20,9,-19,10,19,72,106,177,143,105
-14,25,40,-6,-28,32,11,75,122,171,148,104
1,26,25,-14,-12,25,4,84,134,189,148,113
4,23,18,-13,-8,20,-23,89,126,200,170,129
11,32,21,-22,-6,26,-38,76,117,185,186,126
0,14,14,-7,-7,14,-33,58,110,167,170,120
8,-19,-27,6,18,-23,-30,22,71,122,134,115
26,-30,-56,2,42,-43,-26,28,69,118,112,109
-2,-54,-51,28,24,-52,-24,30,74,118,104,103
-4,-51,-47,28,21,-49,-19,31,83,119,105,99
-13,-55,-42,35,15,-48,-21,28,76,92,94,95
-28,-68,-40,48,6,-53,-12,31,84,99,96,95
-24,-54,-30,39,3,-42,1,31,79,83,86,91
-18,-49,-31,34,7,-40,18,20,73,99,94,90
-30,-47,-17,39,-6,-32,40,38,93,106,98,69
-67,-129,-62,98,-2,-95,124,136,152,64,26,-4
-36,-70,-34,53,-1,-52,123,254,334,250,105,38
175,151,-24,-163,99,63,-371,-268,-37,447,491,352
414,464,49,-439,182,256,-1056,-1273,-823,722,1114,828
317,508,191,-413,63,349,-1243,-2016,-1738,-216,833,842
36,12,-24,-24,30,-6,-886,-1920,-2051,-1435,-155,312
-122,-111,11,116,-66,-50,-394,-976,-1030,-805,-257,48
-125,-5,120,65,-123,58,-76,-261,-204,-156,-43,49
-60,-57,3,58,-31,-27,39,-35,18,-23,-1,35
-65,-46,20,55,-42,-13,74,40,103,54,49,40
-60,-64,-4,62,-28,-34,96,73,114,41,32,30
-46,-55,-10,51,-18,-32,97,98,166,95,47,31
-48,-72,-24,60,-11,-48,101,113,166,76,43,23
-39,-73,-34,56,-2,-53,114,134,171,91,40,15
-58,-84,-26,71,-16,-55,116,128,164,87,33,8
-41,-75,-34,58,-3,-54,111,131,163,90,25,-2
-24,-51,-27,37,2,-39,128,130,160,90,21,-6
-63,-95,-32,79,-15,-63,143,130,165,78,12,-15
-54,-79,-26,67,-14,-52,139,136,185,74,4,-19
-32,-53,-21,43,-5,-37,138,151,191,61,-9,-15
-53,-70,-17,62,-18,-43,134,163,200,56,-21,-21
-65,-77,-12,72,-27,-44,135,172,205,50,-25,-42
-62,-70,-8,67,-27,-39,139,190,204,44,-27,-48
-56,-59,-3,58,-26,-31,147,201,216,39,-35,-41
-88,-85,3,86,-46,-41,159,225,237,29,-58,-61
-114,-102,12,108,-63,-45,177,257,258,22,-75,-75
-104,-83,20,93,-62,-31,197,285,272,12,-93,-90
-107,-80,26,93,-67,-27,216,307,292,4,-136,-118
-125,-80,45,102,-85,-18,228,327,309,-15,-162,-122
-139,-80,59,109,-99,-10,246,353,315,-52,-210,-149
-166,-81,85,123,-126,2,259,358,324,-65,-246,-181
-186,-78,109,132,-147,15,248,330,308,-73,-231,-176
-148,-49,98,98,-123,24,241,294,278,-77,-236,-162
-110,-25,85,67,-97,30,226,257,241,-58,-214,-141
-94,-18,77,56,-85,29,184,204,188,-22,-146,-99
-36,20,56,8,-46,38,147,143,146,6,-81,-61
-6,18,24,-7,-15,21,109,109,115,36,-27,-24
-16,-3,13,9,-15,5,75,84,84,67,16,11
17,28,11,-22,3,20,68,62,67,64,47,16
15,22,7,-19,3,15,65,53,58,61,51,14
2,5,3,-4,-1,4,62,45,47,59,46,16
8,8,1,-8,3,4,57,39,38,55,45,15
3,-5,-7,1,5,-6,55,32,31,54,40,15
14,-12,-26,-1,20,-18,60,26,26,30,40,12
11,-12,-23,1,17,-17,60,28,21,9,34,7
13,-4,-17,-4,15,-10,60,33,15,1,28,4
13,0,-13,-6,13,-6,60,36,10,-8,24,1
11,5,-6,-7,8,0,60,45,19,-14,17,-4
15,13,-2,-14,8,6,57,59,33,-5,13,-5
6,10,4,-8,0,7,54,59,36,3,9,-5
7,11,4,-9,1,7,55,72,34,11,10,-5
14,14,-1,-14,7,6,51,80,41,33,10,-5
12,8,-4,-10,8,2,50,71,54,42,10,-5
9,1,-7,-5,8,-3,50,68,51,51,20,-5
10,-2,-12,-4,11,-7,45,61,45,53,22,-2
4,-11,-15,4,10,-13,41,56,40,43,19,1
11,-4,-15,-3,13,-10,39,51,34,39,21,4
8,-7,-15,0,12,-11,34,44,29,30,19,6
16,1,-15,-8,16,-7,31,38,24,26,21,11
60,45,-15,-52,37,15,27,31,19,23,17,6
33,17,-16,-25,25,0,25,24,13,21,15,-6
6,-14,-20,4,13,-17,25,19,10,17,15,-5
16,-4,-20,-6,18,-11,22,13,4,15,12,-5
21,1,-20,-11,21,-9,19,10,1,12,9,-6
24,4,-20,-14,22,-8,21,6,-1,-7,10,-3
39,19,-20,-29,30,0,30,-4,4,0,20,-1
50,34,-17,-42,33,8,31,3,15,8,21,3
7,-1,-8,-3,8,-5,22,7,10,1,20,5
-3,-7,-4,5,1,-5,16,3,5,-4,18,9
-4,2,6,1,-5,4,10,7,0,-10,15,14
-2,6,8,-2,-5,7,0,9,-7,0,12,21
26,48,22,-37,2,34,8,29,-8,27,26,26
32,64,32,-48,-1,48,3,42,-3,34,42,32
52,68,16,-60,18,41,-23,34,4,25,38,35
61,62,1,-61,29,31,-34,24,8,20,46,35
77,67,-10,-72,43,29,-60,17,15,10,56,49
65,71,6,-68,29,38,-70,2,-1,7,54,43
53,35,-18,-43,35,8,-60,-34,-48,-9,18,21
70,14,-56,-42,63,-21,-54,-41,-47,-28,1,17
59,9,-50,-34,54,-20,-48,-32,-39,-41,13,10
80,35,-46,-57,63,-5,-38,-26,-44,-30,24,9
33,-2,-35,-15,34,-18,-26,-20,-48,-36,15,4
3,-32,-35,15,19,-33,-15,-11,-44,-26,9,0
23,4,-19,-13,21,-8,-5,-17,-36,-20,5,0
6,-22,-28,8,17,-24,3,-19,-44,-28,-12,-13
-6,-15,-9,10,2,-11,29,1,-23,3,-1,8
-5,-54,-49,30,22,-51,77,60,20,-26,-57,-42
26,-30,-56,2,42,-43,135,242,247,147,-17,-70
143,110,-33,-126,88,38,-132,-14,76,284,258,151
381,334,-47,-358,214,143,-800,-918,-672,511,856,613
401,556,155,-479,123,355,-1149,-1751,-1563,-35,890,818
103,170,67,-136,18,118,-909,-1934,-2145,-1437,-129,339
-113,-120,-7,116,-52,-63,-488,-1262,-1470,-1246,-531,-76
-87,55,142,16,-114,98,-151,-433,-466,-375,-225,-81
0,47,47,-24,-24,47,-5,-81,-100,-111,-102,-58
32,49,17,-41,7,33,24,22,-3,-16,-64,-43
24,32,8,-29,8,19,48,56,12,-35,-60,-41
-7,-13,-5,10,-1,-8,43,70,53,7,-38,-35
-16,-18,-2,18,-7,-10,40,90,68,9,-39,-32
8,-12,-20,2,14,-16,38,94,83,27,-41,-23
33,18,-15,-25,24,2,34,96,87,27,-38,-40
3,-16,-19,7,11,-17,36,94,83,22,-42,-78
-24,-37,-13,31,-5,-25,35,96,86,27,-38,-73
-16,-32,-16,25,0,-24,45,107,100,17,-43,-77
-24,-38,-15,31,-4,-26,44,118,113,23,-44,-80
-16,-31,-15,24,0,-23,48,117,109,16,-48,-79
-27,-40,-13,34,-6,-26,56,128,110,10,-51,-83
-16,-25,-9,20,-3,-16,55,147,111,2,-45,-85
21,11,-11,-16,16,0,54,144,128,-5,-56,-85
-12,-19,-7,16,-3,-12,61,152,132,-14,-67,-86
-41,-44,-4,43,-18,-24,81,166,140,-18,-75,-100
-46,-53,-7,50,-19,-30,88,190,158,-30,-97,-113
-67,-57,10,62,-38,-23,94,220,162,-29,-119,-132
-68,-53,15,60,-41,-19,112,225,174,-43,-158,-148
-67,-56,11,61,-39,-22,124,232,172,-88,-215,-175
-87,-55,33,71,-60,-11,150,243,163,-119,-260,-209
-119,-70,49,94,-84,-10,162,237,159,-165,-310,-236
-135,-78,56,106,-96,-11,159,233,150,-198,-341,-257
-126,-57,68,91,-97,5,163,211,146,-200,-336,-246
-124,-38,86,81,-105,24,145,170,125,-185,-299,-209
-110,-26,84,68,-97,29,104,129,97,-131,-215,-162
-67,4,72,31,-69,38,62,98,84,-68,-130,-100
-8,45,53,-19,-30,49,35,85,72,-18,-61,-47
30,58,28,-44,1,42,22,54,64,15,-24,-18
32,54,21,-43,5,37,19,30,58,24,-12,11
42,56,14,-49,14,35,16,27,51,20,-9,22
46,54,8,-50,19,31,14,21,44,21,-10,19
56,57,1,-56,27,28,10,18,37,18,-5,18
52,48,-4,-50,28,22,11,12,34,16,-5,14
18,17,-1,-17,9,8,15,11,36,14,-4,16
14,15,0,-15,7,7,14,23,34,22,3,29
38,38,0,-38,19,19,31,51,36,41,7,32
39,40,1,-39,19,20,35,64,44,46,13,29
34,34,0,-34,17,16,29,66,58,48,19,30
35,33,-2,-34,18,15,27,70,73,51,24,25
31,25,-6,-28,19,9,22,65,72,55,29,25
31,28,-3,-29,17,12,19,60,68,63,31,24
-1,16,17,-7,-9,16,16,56,67,68,29,17
12,32,20,-22,-4,26,13,51,63,65,33,13
33,47,14,-41,9,30,11,47,61,58,35,7
-13,0,12,6,-13,6,7,42,59,54,29,1
-12,-5,7,8,-9,0,5,39,53,48,24,-4
0,5,5,-3,-3,4,2,35,46,42,18,-9
6,7,0,-6,3,4,0,32,39,38,11,-10
24,20,-4,-22,14,8,0,27,32,34,18,-10
24,17,-6,-20,15,5,0,25,26,32,27,-10
24,13,-11,-18,17,1,0,30,21,29,22,-10
21,7,-14,-13,17,-3,0,30,14,26,20,-11
20,2,-18,-11,19,-8,6,31,7,24,17,-16
15,-5,-20,-5,18,-12,11,35,1,21,14,-19
30,10,-20,-20,25,-5,18,35,-7,20,20,-24
55,32,-23,-43,39,4,18,33,-9,19,26,-26
39,14,-26,-26,32,-6,11,26,-5,16,24,-23
33,9,-24,-21,28,-7,4,19,-5,13,26,-20
38,19,-20,-28,29,-1,-2,13,-1,29,25,-20
29,17,-12,-23,20,2,-10,5,0,47,25,-20
11,4,-6,-7,8,-1,-15,1,4,46,24,-20
-8,-7,1,8,-4,-3,-15,6,13,50,17,-21
20,27,8,-24,6,17,-14,13,19,54,36,-16
43,51,9,-47,17,30,-15,20,26,55,52,-7
58,61,3,-60,27,32,-14,26,42,69,62,-1
82,82,0,-82,40,40,-20,34,53,76,72,7
73,70,-3,-71,37,34,-45,32,48,86,76,19
88,78,-9,-83,48,34,-65,14,53,102,90,35
79,71,-8,-75,43,31,-57,0,31,61,65,34
41,5,-36,-23,38,-15,-49,-20,-19,19,28,15
84,22,-62,-53,73,-20,-41,-27,-23,33,33,1
90,33,-58,-61,73,-12,-34,-24,-28,23,29,-11
50,-3,-53,-23,51,-28,-30,-15,-22,32,30,-15
37,-10,-48,-13,43,-29,-23,-16,-28,15,22,-22
25,-21,-46,-2,36,-33,-5,-7,-23,25,23,-23
12,-23,-36,6,24,-29,4,-4,-20,14,19,-23
-1,-41,-40,21,19,-40,6,-4,-17,11,23,-16
-6,-34,-29,20,12,-31,34,17,12,28,28,-17
-35,-109,-74,72,20,-91,93,102,69,-9,-46,-78
9,-40,-49,16,29,-44,119,241,271,182,10,-55
190,150,-40,-170,114,55,-262,-184,-50,339,371,224
395,424,30,-409,182,227,-924,-1144,-874,571,1020,710
321,553,232,-437,44,392,-1152,-1895,-1780,-252,818,777
28,63,36,-46,-4,49,-839,-1872,-2129,-1537,-227,255
-110,-103,7,106,-58,-48,-392,-1038,-1205,-1012,-418,-60
-89,34,124,27,-107,79,-100,-296,-309,-260,-139,-48
-22,-20,2,21,-12,-9,27,-36,-45,-81,-59,-25
-32,-30,2,31,-16,-14,50,22,30,-1,-22,-27
-49,-61,-13,55,-18,-36,49,62,59,-6,-29,-37
-14,-33,-19,24,3,-26,70,100,118,51,-15,-31
-35,-58,-23,46,-6,-40,76,108,120,32,-20,-29
-34,-70,-36,52,1,-53,74,116,128,45,-11,-25
-8,-52,-44,30,18,-48,75,114,131,38,-10,-19
-9,-62,-53,35,23,-57,75,116,133,39,-15,-27
-5,-47,-42,27,18,-44,75,117,140,41,-19,-40
-8,-51,-44,29,18,-47,80,126,141,33,-24,-42
-4,-40,-36,22,16,-38,79,140,151,37,-27,-46
8,-27,-35,10,22,-30,85,150,154,34,-39,-49
-27,-57,-30,42,2,-44,104,172,150,35,-38,-52
-60,-85,-24,73,-18,-54,106,182,170,35,-53,-57
-52,-73,-21,63,-15,-47,104,186,184,32,-75,-60
-58,-74,-16,67,-21,-45,108,199,183,27,-79,-71
-56,-68,-12,62,-22,-40,114,212,204,24,-85,-83
-58,-65,-7,62,-25,-36,119,221,220,18,-105,-94
-63,-62,1,62,-31,-31,136,251,243,17,-132,-108
-55,-46,10,50,-32,-18,163,284,266,-16,-162,-126
-100,-84,16,92,-58,-34,185,294,270,-45,-209,-150
-132,-106,26,118,-78,-40,203,310,281,-68,-260,-180
-114,-86,28,100,-71,-29,205,304,275,-112,-301,-208
-120,-83,37,101,-79,-23,193,287,250,-128,-323,-204
-118,-66,53,92,-85,-6,185,268,220,-125,-311,-198
-101,-55,46,78,-73,-4,176,230,197,-117,-284,-186
-75,-38,36,56,-55,-1,146,191,166,-90,-218,-141
-57,-28,29,42,-43,0,99,139,129,-40,-120,-88
-25,-6,19,15,-22,7,61,93,107,7,-59,-34
14,25,10,-20,2,17,40,76,88,37,-23,0
2,4,2,-3,0,3,28,63,71,43,15,9
38,30,-7,-34,22,11,22,52,58,35,36,16
58,43,-15,-50,36,14,25,42,52,32,35,22
33,18,-15,-25,24,1,25,37,48,27,35,29
36,21,-15,-28,26,2,25,41,43,22,32,35
30,15,-15,-22,22,0,25,43,39,21,29,29
29,14,-15,-21,21,-1,24,46,35,25,30,24
25,10,-15,-17,20,-2,21,49,42,28,25,19
22,10,-12,-16,16,-1,19,52,53,32,25,13
7,-2,-9,-2,8,-5,20,53,55,34,24,8
20,14,-6,-16,13,4,19,64,62,42,20,2
42,39,-3,-40,22,17,21,76,73,55,21,0
31,31,0,-31,15,15,17,71,82,56,17,-3
31,30,-1,-30,16,14,15,67,89,55,15,-6
31,25,-5,-27,17,10,15,64,85,55,12,-9
27,22,-5,-24,16,8,11,60,77,55,9,-10
25,20,-5,-22,15,7,10,57,71,55,6,-5
32,27,-5,-29,18,11,10,53,64,55,5,0
27,22,-5,-24,15,8,10,48,58,49,13,5
34,25,-9,-29,21,8,12,40,52,43,18,8
43,33,-10,-38,27,11,11,34,46,39,15,14
17,7,-10,-12,13,-1,6,27,41,33,15,13
16,7,-10,-12,13,-1,4,21,36,26,34,9
30,19,-11,-24,21,3,-1,23,30,31,41,10
31,16,-15,-23,23,1,-4,25,25,36,32,10
16,1,-15,-8,15,-7,-8,25,20,35,26,10
34,19,-15,-26,24,2,-10,25,15,34,19,10
62,47,-15,-54,38,15,-10,25,11,30,12,5
48,33,-15,-40,31,9,-10,24,6,29,13,5
50,39,-12,-44,30,13,-10,20,1,33,26,4
28,19,-9,-23,18,4,-10,21,2,35,26,0
-4,-14,-10,9,4,-12,-6,17,8,35,25,0
-6,-15,-9,10,2,-12,-1,15,12,35,24,2
-2,-13,-11,7,4,-12,1,14,16,34,19,9
2,-6,-8,2,5,-7,7,21,22,36,21,13
-9,-11,-1,10,-3,-6,8,29,25,40,20,19
14,31,17,-23,-2,24,18,39,37,50,33,25
44,79,35,-62,4,57,30,45,47,54,45,30
47,78,31,-63,8,54,14,36,52,59,47,36
43,64,21,-54,10,43,-1,52,66,80,61,50
59,72,14,-66,22,43,-10,58,67,84,57,57
69,68,-1,-68,34,33,-30,24,33,63,41,48
32,3,-29,-17,30,-13,-47,-12,-17,12,31,37
12,-24,-37,7,25,-30,-39,-15,-19,6,30,30
27,-5,-33,-11,30,-19,-13,-16,-21,20,25,23
29,-2,-32,-14,30,-17,4,-12,-19,29,25,18
15,-10,-25,-2,20,-17,18,-10,-20,22,19,13
21,-7,-29,-6,25,-18,20,-11,-23,24,19,6
-9,-26,-17,17,4,-21,15,-3,-11,31,5,1
3,-23,-27,10,15,-25,28,-4,-23,13,-8,-10
19,8,-11,-13,15,-1,24,17,9,40,7,-10
-21,-71,-50,46,14,-60,78,82,33,-25,-62,-51
-16,-77,-61,47,23,-69,154,259,240,121,-39,-72
123,98,-25,-110,74,37,-155,-2,96,290,232,131
373,403,30,-388,171,216,-844,-917,-640,586,874,611
360,611,251,-486,55,431,-1247,-1830,-1582,126,987,842
93,259,165,-176,-36,212,-1024,-2055,-2232,-1344,34,433
-84,-29,55,56,-70,12,-529,-1280,-1496,-1210,-385,53
-78,48,127,15,-103,87,-155,-401,-442,-335,-173,-2
-33,16,49,8,-42,32,0,-55,-88,-109,-90,-21
-35,-5,31,20,-33,13,43,30,27,5,-42,-25
-36,-23,13,29,-24,-5,71,71,45,-3,-55,-30
-41,-43,-2,42,-19,-22,77,104,94,38,-47,-31
-34,-39,-5,37,-14,-22,87,96,103,27,-51,-34
-10,-26,-16,18,3,-21,94,116,112,42,-50,-36
-30,-43,-13,37,-9,-28,109,135,134,68,-49,-37
-49,-71,-22,60,-13,-46,118,135,140,64,-56,-42
-16,-39,-22,28,3,-30,110,139,141,62,-54,-44
-21,-46,-25,34,2,-35,111,141,142,50,-55,-47
-31,-50,-19,41,-6,-35,105,140,147,48,-55,-50
-24,-44,-20,34,-1,-32,106,140,144,39,-55,-49
-19,-39,-20,29,1,-30,110,140,151,36,-55,-43
-33,-53,-20,43,-6,-36,110,139,151,35,-71,-57
-56,-76,-20,66,-18,-48,109,153,164,34,-76,-65
-48,-64,-16,56,-16,-40,112,166,176,29,-81,-70
-50,-59,-9,55,-21,-34,126,187,193,30,-94,-79
-61,-63,-3,62,-29,-33,129,204,214,27,-110,-87
-87,-83,4,85,-45,-40,147,224,235,19,-133,-104
-95,-83,11,89,-53,-36,173,263,261,7,-170,-127
-90,-74,16,82,-53,-29,183,284,276,-3,-198,-143
-111,-76,35,93,-73,-20,214,304,297,-26,-226,-165
-109,-63,46,86,-77,-8,224,317,300,-62,-274,-197
-135,-75,60,105,-97,-7,212,305,292,-83,-291,-202
-140,-66,74,103,-107,4,201,289,273,-96,-288,-201
-92,-30,63,61,-77,16,183,253,227,-102,-268,-187
-71,-16,55,43,-63,19,151,193,186,-82,-215,-151
-55,-9,46,32,-50,18,102,136,144,-39,-137,-98
-31,5,36,13,-34,20,54,92,106,8,-65,-45
11,35,24,-23,-7,29,16,62,82,37,-17,-9
28,41,13,-34,7,27,4,49,65,46,16,22
22,31,9,-27,6,20,3,44,58,43,36,26
28,31,3,-30,12,17,-1,39,51,40,47,25
22,20,-2,-21,12,9,-3,33,43,38,45,23
17,9,-8,-13,12,0,-6,27,35,34,45,19
8,0,-8,-3,8,-4,0,27,31,38,43,21
-18,-22,-4,20,-7,-13,5,35,39,40,39,16
-4,-10,-6,7,1,-8,15,40,35,41,41,13
8,7,-1,-8,4,3,26,45,39,45,36,9
-14,-14,0,14,-7,-7,25,47,51,45,33,6
2,2,0,-2,1,1,25,61,71,52,29,1
-4,12,16,-4,-11,14,25,72,93,66,26,1
-33,-12,22,23,-27,5,25,66,85,75,21,9
-34,-15,19,25,-27,2,23,65,87,79,22,10
-30,-11,19,20,-24,4,18,61,90,75,40,10
5,20,14,-13,-5,17,15,60,82,75,48,10
19,34,15,-27,1,24,12,55,76,74,44,10
-4,9,13,-2,-9,11,6,46,67,69,41,10
6,14,8,-11,-1,11,6,38,61,71,37,10
5,10,5,-8,0,7,24,28,54,67,34,10
-10,-9,1,9,-6,-3,24,25,49,61,29,10
-8,-10,-3,9,-2,-6,17,23,44,54,34,10
5,0,-6,-2,5,-3,14,19,39,48,44,9
20,10,-10,-15,14,0,8,17,35,41,46,12
14,0,-15,-7,14,-7,5,14,30,35,45,15
33,14,-19,-23,25,-2,0,12,27,46,42,15
46,26,-20,-36,33,2,0,9,22,56,39,15
36,16,-20,-26,28,-2,-2,6,20,55,40,15
27,7,-20,-17,23,-6,-5,3,15,55,40,15
23,3,-20,-13,22,-8,-6,-1,12,55,40,11
28,8,-20,-18,24,-6,-2,2,8,55,40,2
16,-5,-20,-5,18,-12,0,-3,5,55,39,-4
18,-1,-20,-8,19,-10,1,-7,6,55,47,6
-7,-27,-20,17,6,-23,-1,0,2,54,51,6
9,-14,-23,3,16,-19,2,7,1,56,48,5
49,23,-25,-36,37,-1,22,11,-2,54,43,34
35,17,-18,-26,26,0,21,20,16,57,50,42
71,57,-14,-64,43,21,11,30,46,65,77,38
73,62,-11,-67,42,25,7,31,47,65,82,42
62,59,-3,-60,33,28,-17,30,54,88,86,37
92,74,-18,-83,55,28,-51,30,53,93,107,50
85,79,-6,-82,45,36,-65,28,41,80,105,62
56,37,-19,-46,38,9,-55,-20,9,54,79,49
64,-8,-72,-28,68,-40,-51,-47,-26,27,57,41
66,14,-52,-40,59,-19,-38,-33,-31,29,44,30
29,-2,-30,-13,29,-16,-6,-28,-28,27,45,22
32,-2,-34,-15,33,-18,14,-22,-23,15,46,17
32,-22,-54,-5,43,-38,21,-37,-26,9,36,7
21,-25,-46,2,34,-36,33,-33,-14,25,46,6
46,1,-45,-23,46,-22,38,-30,-23,6,32,-10
28,-18,-45,-5,37,-31,25,3,10,53,50,13
1,-32,-33,16,17,-32,57,41,21,2,-1,-16
-26,-78,-53,52,14,-65,153,191,181,90,-27,-70
35,17,-19,-26,27,-1,40,164,225,252,138,52
308,212,-96,-260,202,58,-560,-580,-367,416,612,428
451,485,34,-468,209,259,-1112,-1547,-1214,317,976,798
223,317,94,-270,64,206,-1050,-2041,-2049,-1022,209,517
-80,-137,-57,108,-11,-97,-646,-1621,-1840,-1490,-490,6
-111,-8,103,59,-107,48,-232,-683,-732,-573,-261,-62
-30,34,63,-2,-47,49,-11,-123,-150,-147,-79,-28
-43,-61,-18,52,-12,-39,31,18,3,-25,-30,-31
-41,-27,14,34,-28,-6,62,53,39,0,-26,-23
-32,-49,-17,41,-7,-32,74,85,72,35,-27,-24
-33,-35,-3,34,-15,-19,76,110,109,53,-18,-18
-24,-41,-18,33,-3,-29,76,123,114,48,-19,-23
-15,-43,-28,29,7,-35,73,119,117,61,-13,-26
-3,-51,-48,27,23,-49,72,120,112,52,-23,-30
-9,-49,-40,30,15,-44,68,142,133,65,-22,-35
-19,-53,-34,36,7,-43,71,152,141,54,-42,-35
-6,-37,-31,22,12,-34,80,149,140,53,-52,-34
-26,-48,-22,37,-2,-35,84,150,140,47,-54,-36
-52,-72,-20,62,-16,-46,74,151,141,42,-57,-34
-55,-69,-14,63,-20,-42,73,149,139,39,-63,-55
-30,-44,-13,37,-8,-28,63,153,147,31,-47,-47
-37,-47,-10,42,-14,-28,63,163,147,22,-69,-59
-82,-89,-6,86,-38,-47,89,165,147,15,-114,-106
-44,-49,-5,47,-19,-27,98,187,173,7,-106,-108
-52,-52,-1,52,-25,-26,127,208,181,-1,-112,-108
-82,-74,8,77,-45,-32,137,227,192,-10,-146,-117
-87,-70,17,78,-51,-27,137,253,199,-47,-198,-146
-115,-77,38,95,-76,-19,162,255,187,-94,-236,-167
-133,-80,54,106,-93,-13,172,264,184,-140,-296,-204
-146,-87,59,116,-102,-14,191,272,173,-184,-344,-231
-148,-83,65,115,-106,-9,186,264,161,-193,-339,-211
-165,-89,76,127,-120,-6,167,245,150,-188,-331,-219
-125,-43,82,84,-103,19,142,194,133,-161,-280,-187
-79,-15,63,47,-71,23,99,151,113,-91,-186,-111
-84,-42,42,63,-63,0,70,122,92,-32,-98,-58
-15,7,23,4,-19,15,48,92,80,12,-44,-29
36,46,10,-41,13,27,36,76,68,27,-13,-21
6,10,5,-8,0,7,25,62,47,32,7,-17
-5,-9,-3,7,-1,-6,19,58,39,40,12,-11
-6,-17,-11,11,3,-13,21,60,38,31,15,-5
21,4,-18,-12,20,-7,17,60,34,27,20,-1
47,30,-17,-38,31,6,15,63,33,22,24,8
36,25,-11,-31,23,7,15,65,28,15,29,13
21,14,-7,-17,13,4,18,65,41,22,34,23
-2,-4,-2,4,0,-3,32,57,58,51,33,18
-13,-10,3,11,-8,-4,34,68,53,63,29,-18
19,24,5,-22,6,14,26,82,65,56,27,-27
20,26,5,-23,7,15,25,79,83,60,24,-24
12,16,4,-15,4,10,17,78,79,65,20,-25
32,47,16,-40,8,32,16,74,75,66,21,-19
9,30,22,-19,-7,26,28,75,73,62,21,-20
14,31,17,-23,-1,23,28,71,68,60,20,-22
19,34,15,-27,2,24,20,61,65,60,20,-25
8,19,11,-14,-2,15,17,55,60,56,20,-25
-6,4,10,1,-8,7,8,46,52,46,20,-25
11,18,6,-15,2,12,7,39,44,39,18,-25
55,55,0,-55,27,27,26,49,36,30,30,-25
28,23,-6,-25,17,8,26,44,29,26,33,-25
13,2,-10,-8,12,-4,16,27,24,33,25,-25
18,8,-10,-13,14,-1,11,30,21,36,22,-25
12,2,-10,-7,11,-4,1,30,18,35,14,-25
19,9,-10,-14,14,0,-3,31,13,35,11,-25
21,11,-10,-16,15,0,0,35,10,35,15,-23
13,3,-10,-8,11,-3,15,35,7,36,20,-18
21,11,-10,-16,15,0,11,33,2,34,24,-15
-9,-19,-10,14,1,-14,-15,27,-1,29,29,-12
-24,-34,-10,29,-7,-22,-15,22,-4,23,28,-7
-13,-23,-10,18,-1,-16,-11,19,-9,19,21,-4
-16,-25,-9,20,-3,-17,-10,12,-10,15,16,-1
-6,-16,-10,11,2,-13,-5,12,-10,9,10,6
-24,-19,4,21,-13,-7,-5,7,-10,21,5,8
1,13,12,-7,-6,12,1,26,-5,41,24,15
13,38,25,-26,-6,31,-3,53,6,58,53,17
7,55,48,-31,-21,52,-11,50,16,66,62,25
1,47,46,-24,-23,46,-24,50,24,64,57,34
-2,36,38,-17,-21,37,-40,51,35,69,71,37
50,84,34,-67,8,59,-54,43,28,71,78,53
26,54,28,-40,-1,41,-66,4,2,42,61,52
34,17,-17,-25,25,0,-62,-28,-17,7,48,43
65,23,-42,-44,53,-9,-56,-22,-28,1,43,38
37,2,-35,-19,36,-16,-38,-23,-35,3,30,30
33,4,-29,-18,31,-13,-22,-16,-20,28,25,19
1,-22,-22,11,12,-22,-16,-18,-26,12,20,-2
-23,-42,-19,33,-2,-31,-6,-12,-12,21,28,-5
-41,-44,-3,43,-18,-23,0,-10,-15,8,26,-5
-28,-40,-11,34,-8,-25,9,-7,-6,7,29,-5
-27,-7,20,17,-23,7,12,21,10,12,33,-10
-41,-67,-26,54,-7,-47,91,127,91,20,-17,-54
-17,-20,-3,19,-7,-11,120,238,287,218,49,-29
140,147,7,-144,66,77,-306,-234,-93,372,444,274
389,454,65,-422,162,259,-948,-1178,-903,577,1090,771
287,529,242,-408,22,385,-1126,-1847,-1777,-345,777,774
13,42,29,-28,-8,36,-794,-1760,-2053,-1535,-278,215
-126,-92,35,109,-80,-28,-358,-973,-1125,-935,-399,-78
-87,44,132,21,-110,87,-95,-277,-299,-229,-117,-50
-20,0,20,10,-21,10,-9,-42,-63,-75,-52,-44
-139,-39,100,89,-119,30,38,6,11,-5,-25,-44
-188,-52,136,120,-162,42,57,52,46,-2,-30,-46
-105,-35,70,70,-87,17,63,76,77,45,-12,-44
-26,-41,-16,34,-5,-28,56,91,85,43,-22,-45
-18,-25,-7,21,-5,-15,62,100,103,72,-19,-45
-47,-23,24,35,-35,1,64,105,106,38,-20,-39
-79,-41,38,60,-58,-2,80,122,122,-7,-21,-45
-109,-38,71,74,-90,16,52,120,118,2,-18,-66
-144,-42,102,93,-123,30,-4,119,114,-5,-22,-101
-139,-38,101,88,-120,31,319,120,112,14,-18,-50
-149,-42,107,95,-128,32,514,118,109,-2,-46,8
-182,-37,144,109,-163,53,427,119,105,-98,-49,-3
-133,-22,111,77,-122,44,415,87,103,-122,-64,3
