I,II,III,aVR,aVL,aVF,V1,V2,V3,V4,V5,V6
-167,24,191,71,-179,107,-39,-366,-260,56,110,492
-166,32,198,67,-182,114,-36,-354,-241,71,121,489
-141,29,170,56,-156,99,-30,-329,-219,60,120,483
-214,81,295,67,-255,188,-14,-426,-355,1,44,424
-325,-4,321,164,-323,158,266,-174,-328,-73,-152,246
303,334,30,-318,136,182,-130,310,684,898,811,987
1315,979,-336,-1146,825,321,-1282,85,1991,2608,2754,2589
1200,298,-902,-749,1051,-302,-1287,-603,876,1200,1945,2335
501,-151,-651,-174,576,-401,-545,-612,-348,-337,416,1192
103,80,-24,-91,63,28,-214,-365,-146,85,320,812
-93,2,95,46,-94,48,-57,-353,-225,26,134,564
-129,46,175,41,-152,110,0,-282,-179,101,135,529
-151,23,173,64,-162,98,6,-267,-184,86,84,496
-159,26,184,66,-172,105,18,-254,-190,67,62,488
-159,29,188,64,-174,108,26,-240,-163,96,83,496
-161,19,181,71,-171,100,33,-235,-185,56,57,479
-158,31,189,63,-174,110,34,-219,-151,94,81,486
-162,19,181,71,-172,100,41,-215,-164,68,60,479
-156,30,186,63,-171,107,48,-198,-140,87,78,503
-150,22,172,64,-161,96,50,-190,-132,89,73,501
-142,27,169,58,-156,98,58,-173,-106,110,81,508
-131,28,159,51,-146,94,65,-148,-88,120,88,514
-122,30,152,46,-137,91,67,-123,-69,145,101,521
-113,33,146,40,-130,89,70,-99,-34,168,108,533
-102,35,137,34,-120,86,70,-70,10,197,124,546
-92,36,129,28,-111,82,70,-30,57,241,161,566
-77,44,121,17,-99,82,71,12,123,287,193,599
-50,58,109,-4,-80,83,70,64,213,360,249,635
-21,67,88,-23,-55,77,70,116,308,437,304,674
24,84,60,-54,-19,72,70,167,426,524,369,728
78,108,30,-94,24,69,58,222,538,612,445,790
112,116,4,-114,54,60,37,264,639,687,513,846
153,129,-24,-141,89,52,21,288,708,745,584,890
168,135,-33,-152,100,51,9,271,705,755,602,907
138,125,-13,-131,75,56,-13,200,626,706,578,888
92,117,26,-105,33,71,-37,73,443,583,519,844
37,107,70,-73,-17,89,-40,-62,219,423,412,767
-11,99,110,-44,-61,105,-40,-168,26,277,297,671
-64,83,147,-10,-106,114,-40,-240,-112,172,209,603
-92,65,157,13,-125,111,-40,-274,-186,113,161,559
-92,60,152,16,-123,106,-40,-281,-221,73,133,521
-95,55,151,20,-123,103,-35,-279,-233,59,116,492
-98,49,147,25,-123,98,-35,-284,-239,49,103,474
-100,44,144,27,-122,94,-35,-285,-242,36,94,459
-114,38,152,38,-133,95,-35,-284,-246,31,88,442
-127,35,161,46,-144,98,-35,-280,-255,28,81,422
-124,35,159,44,-142,97,-32,-280,-260,25,74,403
-128,32,160,48,-144,96,-30,-279,-262,22,67,383
-130,30,160,50,-145,95,-27,-275,-265,20,64,362
-130,29,159,50,-145,94,-24,-275,-273,20,65,345
-133,28,161,52,-147,94,-21,-275,-272,20,65,329
-143,15,158,64,-150,86,-19,-275,-266,19,64,315
-141,26,167,58,-154,96,-28,-275,-261,33,71,304
-129,52,181,39,-155,116,-35,-275,-255,41,76,291
-128,46,175,41,-152,110,-35,-275,-250,34,74,275
-127,43,170,42,-149,106,-36,-274,-244,36,75,258
-127,40,167,43,-147,103,-41,-270,-238,32,75,247
-125,36,161,44,-143,98,-40,-265,-231,31,74,241
-130,32,162,48,-146,97,-38,-260,-224,27,80,233
-118,58,176,30,-148,117,-34,-256,-217,43,85,226
-93,104,197,-6,-145,150,-35,-250,-213,70,98,219
-90,103,193,-7,-142,148,-36,-252,-207,75,117,213
-56,127,183,-36,-120,155,-33,-256,-203,97,131,209
-2,173,176,-86,-89,174,-75,-254,-199,101,148,206
-8,158,166,-75,-87,161,-102,-259,-193,90,143,204
-23,138,160,-58,-92,149,-85,-260,-191,83,135,200
-39,115,155,-38,-97,135,-79,-259,-187,73,128,200
-88,63,151,12,-120,107,-68,-266,-218,56,81,182
-110,35,145,37,-128,90,-61,-271,-254,16,44,162
-110,32,142,38,-126,87,-54,-267,-248,11,43,166
-121,20,140,50,-131,79,-44,-264,-250,9,35,164
-138,16,154,61,-147,85,-43,-263,-251,10,34,169
-148,6,154,70,-151,80,-34,-257,-246,12,28,171
-150,4,155,72,-153,80,-36,-272,-254,4,21,168
-145,12,157,66,-151,84,-27,-263,-235,20,25,179
-143,6,150,68,-147,78,-27,-265,-256,-4,12,177
-139,25,164,56,-152,95,-22,-253,-233,28,29,192
-140,6,146,67,-143,76,-17,-251,-255,-10,1,184
-142,39,181,52,-162,110,-25,-249,-241,29,30,207
-117,32,149,42,-133,90,-12,-231,-222,-5,-11,205
-198,62,260,68,-229,161,-10,-315,-334,-63,-63,161
-337,-19,318,178,-327,149,277,-108,-348,-147,-245,-13
242,275,33,-259,104,154,-42,416,581,708,562,598
1304,946,-358,-1125,830,294,-1219,338,2064,2517,2507,2180
1302,335,-967,-818,1134,-316,-1305,-367,1148,1343,1919,2086
583,-195,-778,-194,681,-486,-559,-487,-272,-354,342,943
135,41,-94,-88,115,-27,-205,-254,-129,6,200,545
-90,-19,71,54,-81,25,-51,-254,-191,-37,37,316
-128,19,147,54,-138,83,17,-179,-168,0,22,276
-146,11,157,68,-152,84,46,-160,-154,11,-20,250
-150,14,164,68,-158,89,58,-147,-175,-16,-52,236
-141,27,169,57,-155,97,63,-129,-138,29,-27,243
-148,12,160,68,-154,85,72,-127,-164,-10,-59,221
-143,27,170,57,-156,98,68,-108,-131,32,-33,229
-146,14,160,66,-153,87,75,-106,-147,9,-54,216
-140,24,164,58,-152,94,74,-87,-127,34,-40,229
-136,18,154,59,-145,86,78,-78,-129,31,-48,222
-135,20,155,57,-145,87,80,-56,-108,51,-44,229
-124,25,149,50,-137,87,80,-38,-92,64,-44,231
-107,39,146,33,-126,92,85,-15,-71,78,-39,228
-101,41,142,30,-122,92,88,16,-29,117,-26,244
-91,42,133,24,-112,87,92,40,9,144,-16,256
-78,47,125,15,-102,86,97,74,68,187,9,274
-72,44,116,13,-94,80,100,118,134,238,38,289
-42,57,99,-8,-70,78,94,171,218,300,83,322
0,75,75,-38,-38,75,85,229,322,380,138,368
36,84,48,-60,-7,66,77,288,439,460,198,409
82,103,21,-93,30,62,69,346,554,540,269,466
127,123,-5,-125,66,59,61,393,659,617,338,521
162,133,-29,-147,95,52,45,412,736,671,398,568
165,138,-27,-151,96,55,29,396,755,694,417,593
150,131,-19,-140,84,56,5,335,683,649,396,584
120,121,1,-121,59,61,-22,206,496,524,352,540
61,114,53,-88,4,83,-29,65,271,374,263,465
1,98,97,-50,-48,97,-26,-50,71,229,151,385
-51,73,124,-11,-88,98,-25,-128,-74,127,65,317
-75,59,134,8,-105,96,-25,-170,-157,62,13,269
-83,51,135,15,-109,93,-25,-187,-198,31,-15,234
-93,42,135,25,-114,88,-25,-183,-209,19,-25,219
-102,33,135,34,-119,84,-23,-187,-212,4,-35,208
-109,25,135,41,-122,80,-19,-190,-214,0,-45,195
-111,25,136,43,-124,81,-20,-190,-218,-8,-52,185
-116,24,140,46,-128,82,-16,-190,-227,-14,-59,172
-120,21,140,50,-130,80,-15,-190,-230,-21,-66,162
-125,19,144,52,-135,81,-15,-190,-230,-27,-71,152
-124,21,145,51,-135,83,-10,-191,-230,-30,-75,143
-119,25,145,46,-132,85,-10,-200,-226,-30,-72,132
-121,24,145,48,-134,85,-9,-200,-223,-30,-69,125
-117,28,145,44,-131,86,-5,-196,-220,-30,-70,123
-115,30,145,42,-130,87,-5,-194,-218,-30,-70,120
-115,30,145,42,-130,87,-7,-190,-215,-34,-70,117
-113,33,146,39,-130,89,-10,-190,-213,-35,-69,115
-115,36,151,40,-133,93,-13,-190,-210,-35,-64,115
-115,35,149,40,-132,91,-16,-190,-207,-35,-59,115
-118,35,152,41,-136,93,-20,-190,-204,-36,-55,114
-120,36,156,41,-138,96,-19,-190,-201,-33,-50,116
-120,34,154,43,-137,93,-16,-190,-199,-23,-46,114
-95,73,168,11,-132,120,-12,-186,-194,-9,-39,116
-64,102,166,-19,-115,134,-11,-179,-187,-1,-27,119
-56,100,156,-22,-106,127,-4,-176,-180,12,-14,121
-18,129,148,-56,-83,138,-15,-169,-176,35,-11,133
6,144,138,-75,-66,141,-71,-163,-166,31,-11,132
1,129,128,-65,-64,129,-87,-159,-166,18,-9,122
28,137,109,-83,-41,123,-67,-152,-163,8,-18,120
-36,110,146,-37,-91,128,-59,-184,-169,-13,-35,100
-141,18,159,61,-151,89,-46,-203,-207,-38,-73,63
-129,12,141,58,-135,76,-39,-199,-227,-57,-103,44
-110,58,168,26,-139,113,-26,-209,-240,-59,-115,32
-119,45,164,37,-142,104,-21,-210,-256,-63,-123,18
-119,27,146,46,-133,87,-18,-203,-245,-56,-117,14
-126,16,142,55,-134,78,-14,-203,-255,-66,-130,1
-128,18,145,55,-137,81,-15,-197,-247,-54,-120,-1
-133,0,132,66,-133,66,-7,-193,-250,-70,-135,-13
-137,5,142,65,-139,73,-13,-194,-249,-62,-131,-16
-137,-10,127,73,-131,58,2,-183,-232,-63,-135,-24
-127,8,136,59,-132,72,-12,-201,-257,-75,-144,-34
-105,15,120,44,-113,67,10,-173,-208,-48,-128,-31
-119,23,142,48,-131,82,-13,-225,-282,-107,-167,-52
-295,42,336,126,-316,189,143,-212,-397,-169,-305,-193
-129,32,161,48,-145,96,266,250,-25,12,-198,-131
930,701,-229,-816,579,236,-726,576,1537,1679,1524,1223
1515,677,-837,-1096,1176,-80,-1471,6,1854,1984,2232,2028
933,-158,-1091,-387,1012,-625,-859,-496,115,-79,565,983
313,-91,-404,-111,359,-247,-288,-282,-287,-340,-28,322
-7,2,9,3,-8,5,-97,-183,-138,-48,-51,104
-102,-20,82,61,-92,31,8,-149,-242,-150,-183,-48
-117,21,137,48,-127,79,49,-96,-150,-43,-131,-32
-139,-12,127,76,-134,57,74,-102,-210,-115,-214,-85
-128,21,149,54,-139,85,71,-77,-159,-52,-178,-59
-133,1,134,66,-133,67,79,-83,-181,-80,-209,-77
-126,18,144,54,-135,81,81,-66,-163,-53,-196,-72
-124,13,137,55,-131,75,86,-63,-160,-49,-200,-75
-120,15,135,52,-128,75,90,-42,-158,-45,-207,-76
-117,17,133,50,-126,75,89,-22,-145,-27,-201,-65
-116,13,128,51,-122,70,93,-6,-137,-28,-208,-65
-110,17,128,46,-119,72,102,11,-102,-7,-191,-55
-106,18,124,43,-115,71,106,28,-92,4,-188,-52
-100,21,121,39,-111,71,104,52,-59,32,-171,-46
-91,20,111,35,-101,66,114,78,-20,58,-159,-37
-86,18,104,33,-95,61,116,114,20,93,-143,-20
-65,31,96,17,-81,63,111,154,81,133,-105,12
-40,48,89,-4,-65,68,110,203,157,186,-67,35
-21,57,78,-18,-50,67,106,255,250,253,-22,66
20,77,58,-49,-19,67,105,322,371,333,35,119
66,93,27,-80,19,60,99,378,485,409,92,166
112,107,-5,-110,58,51,87,430,586,481,160,216
164,123,-41,-143,102,41,79,466,688,549,226,268
184,133,-51,-158,117,41,64,455,731,590,273,312
171,131,-40,-151,105,46,39,413,694,577,282,328
150,121,-29,-136,89,46,17,320,567,492,247,308
110,114,4,-112,53,58,-1,177,345,354,168,252
42,88,46,-65,-2,67,-7,39,122,211,60,177
-29,58,86,-15,-58,72,-10,-60,-47,97,-31,109
-67,39,105,14,-86,72,-13,-117,-155,18,-98,52
-83,22,105,30,-94,64,-18,-141,-207,-29,-142,28
-83,19,102,32,-93,60,-20,-153,-231,-53,-153,24
-109,-9,99,59,-104,45,-15,-155,-236,-63,-159,18
-115,-17,97,66,-106,40,-15,-155,-235,-69,-171,13
-89,5,93,42,-91,49,-14,-154,-233,-70,-170,7
-86,13,100,36,-93,56,-9,-156,-230,-71,-167,7
-95,-4,91,49,-93,43,-11,-152,-228,-67,-163,15
-147,-29,118,88,-132,45,-7,-160,-252,-77,-176,20
-153,-10,143,81,-148,67,-5,-172,-269,-93,-188,20
-126,0,126,62,-126,63,-5,-165,-262,-88,-183,20
-126,4,130,61,-128,67,-1,-166,-263,-88,-187,20
-119,-12,107,65,-113,47,0,-156,-256,-81,-182,20
-116,17,133,49,-125,75,-1,-170,-268,-94,-187,20
-112,45,157,33,-134,100,-5,-192,-268,-108,-198,20
-112,6,118,53,-115,62,-5,-182,-244,-94,-187,20
-107,11,118,48,-113,65,-6,-180,-241,-85,-180,20
-105,10,115,47,-110,62,-10,-175,-235,-76,-172,20
-100,9,109,45,-104,59,-10,-170,-229,-69,-166,20
-98,11,109,43,-103,59,-8,-167,-224,-63,-159,21
-90,11,101,39,-96,56,-2,-158,-218,-55,-152,24
-78,34,113,22,-96,73,2,-153,-210,-49,-146,27
-68,59,127,4,-98,93,7,-145,-199,-44,-139,41
-57,64,121,-4,-90,92,10,-139,-190,-28,-134,49
-39,75,114,-18,-76,94,16,-135,-188,-11,-129,60
5,113,108,-60,-52,110,-16,-129,-192,-11,-132,93
13,114,101,-64,-44,107,-65,-142,-190,-6,-127,101
5,100,95,-53,-45,97,-63,-157,-195,-5,-125,98
-8,82,90,-37,-49,85,-49,-154,-195,-23,-124,102
-37,48,86,-6,-62,67,-41,-160,-198,-44,-126,68
-70,9,79,31,-75,43,-29,-169,-235,-82,-170,23
-92,-13,78,52,-85,32,-21,-171,-256,-100,-191,14
-85,-17,68,51,-76,25,-13,-169,-253,-100,-189,8
-99,-18,81,58,-90,31,-15,-176,-258,-101,-191,0
-114,-22,92,68,-103,35,-8,-173,-250,-96,-187,-6
-114,-27,88,70,-100,30,-8,-176,-262,-106,-194,-16
-114,-20,94,67,-104,36,-4,-167,-245,-88,-181,-18
-108,-24,84,66,-96,30,-1,-172,-256,-105,-192,-38
-101,-3,98,52,-99,47,0,-167,-235,-76,-170,-37
-95,-19,76,57,-85,28,11,-162,-242,-99,-187,-56
-85,13,98,36,-91,55,1,-174,-239,-74,-164,-54
-79,-11,68,45,-74,28,26,-140,-209,-77,-171,-59
-125,31,156,47,-141,93,4,-225,-321,-128,-217,-102
-298,-7,291,152,-295,142,253,-107,-381,-198,-402,-296
132,141,9,-137,62,75,108,442,327,354,115,81
1275,822,-453,-1048,864,184,-1067,524,1909,2025,1969,1587
1457,377,-1080,-917,1268,-351,-1392,-217,1372,1302,1732,1710
739,-252,-990,-243,865,-621,-632,-480,-247,-444,136,559
218,-24,-242,-97,230,-133,-204,-199,-193,-173,-24,153
-18,-31,-13,25,-3,-22,-39,-169,-179,-102,-139,-87
-58,-6,53,32,-55,23,56,-104,-203,-88,-172,-172
-100,-6,93,53,-97,43,71,-72,-158,-39,-161,-186
-107,-18,89,62,-98,35,88,-71,-202,-93,-209,-234
-104,-1,104,52,-104,51,91,-49,-154,-36,-179,-234
-114,-19,94,67,-104,38,90,-51,-191,-80,-222,-270
-103,-2,101,52,-102,49,90,-30,-153,-45,-191,-265
-107,-16,90,61,-98,36,90,-28,-162,-62,-208,-295
-104,-6,99,55,-102,46,90,-13,-139,-42,-194,-308
-104,-13,92,58,-98,39,97,-4,-128,-40,-196,-329
-107,-9,98,57,-102,44,106,10,-116,-33,-193,-342
-102,-11,91,57,-97,39,112,36,-88,-11,-177,-350
-112,-20,92,66,-102,36,116,57,-64,-1,-171,-364
-118,-30,88,74,-103,29,121,80,-25,25,-143,-362
-101,-40,61,70,-80,10,137,127,0,65,-119,-371
-91,-6,85,48,-88,40,141,152,46,91,-107,-389
-46,23,69,11,-58,46,135,184,116,122,-83,-389
-8,34,42,-13,-26,38,134,240,198,182,-37,-382
16,48,33,-32,-9,40,128,295,304,249,13,-359
63,62,-1,-62,32,30,126,361,416,322,72,-325
111,82,-29,-97,70,26,118,415,527,398,146,-284
158,92,-66,-124,112,12,103,465,635,468,208,-240
200,103,-97,-151,148,3,89,485,714,521,267,-195
238,124,-114,-181,176,5,67,467,729,547,301,-154
228,124,-104,-176,166,10,48,422,675,512,300,-149
184,106,-78,-145,131,14,37,303,523,413,259,-176
134,92,-42,-112,88,24,26,156,298,280,169,-236
64,72,9,-68,27,40,14,35,92,143,77,-311
11,53,42,-32,-16,47,10,-49,-59,41,-4,-365
-25,37,62,-6,-44,49,10,-95,-147,-18,-65,-404
-53,23,76,15,-65,49,7,-123,-194,-62,-103,-418
-57,17,75,19,-66,46,5,-128,-208,-80,-112,-413
-62,13,75,24,-69,43,5,-131,-218,-82,-119,-411
-67,9,75,29,-71,42,8,-136,-230,-102,-135,-408
-71,4,74,33,-73,39,11,-134,-230,-106,-134,-405
-78,0,78,39,-78,39,10,-138,-229,-106,-136,-404
-80,0,80,40,-80,40,10,-140,-233,-111,-140,-397
-81,0,81,40,-81,40,10,-140,-239,-110,-140,-390
-78,0,78,39,-78,39,11,-137,-236,-117,-138,-384
-84,0,84,41,-84,42,15,-134,-235,-118,-134,-377
-91,-1,91,46,-91,45,15,-131,-234,-124,-135,-371
-82,3,85,39,-84,44,15,-129,-230,-131,-135,-365
-78,5,83,36,-81,44,15,-125,-231,-125,-135,-356
-74,4,78,35,-76,41,15,-126,-228,-121,-135,-347
-66,9,75,28,-71,42,19,-130,-223,-116,-131,-339
-69,10,79,30,-74,44,20,-130,-220,-112,-126,-330
-70,11,80,29,-75,46,20,-130,-217,-107,-124,-320
-66,16,82,25,-74,48,20,-130,-212,-101,-119,-310
-58,28,86,15,-73,57,20,-130,-209,-96,-116,-300
-52,32,85,10,-69,58,21,-126,-203,-91,-112,-289
-45,48,93,-2,-69,71,25,-114,-192,-84,-103,-264
-44,73,117,-15,-81,95,30,-105,-182,-81,-92,-245
-37,78,114,-21,-76,96,22,-95,-174,-84,-83,-234
10,112,102,-61,-46,106,5,-87,-176,-86,-79,-205
32,125,93,-79,-31,109,-30,-97,-175,-89,-70,-180
22,107,85,-65,-32,96,-47,-111,-175,-90,-66,-178
13,94,82,-53,-35,87,-35,-122,-175,-92,-55,-172
-5,74,79,-34,-42,76,-28,-131,-175,-95,-65,-169
-33,41,74,-5,-54,58,-18,-141,-212,-132,-113,-208
-70,0,71,35,-71,35,-14,-153,-244,-163,-128,-224
-79,-11,68,45,-74,28,-9,-146,-236,-160,-122,-217
-78,-15,63,46,-70,24,-4,-146,-245,-170,-128,-220
-83,-15,68,49,-75,26,-1,-141,-242,-160,-121,-211
-82,-25,57,53,-70,16,6,-139,-247,-170,-129,-218
-86,-21,64,54,-74,21,6,-139,-243,-161,-124,-209
-80,-25,55,53,-67,14,14,-127,-234,-165,-133,-207
-73,-13,60,43,-66,23,6,-132,-241,-163,-130,-202
-65,-13,53,39,-59,19,20,-115,-214,-151,-126,-194
-65,-11,54,38,-59,21,10,-127,-244,-177,-139,-198
-55,6,61,24,-58,33,20,-104,-193,-133,-115,-180
-49,-4,45,26,-48,20,10,-139,-244,-198,-146,-201
-214,37,250,88,-232,143,116,-185,-355,-225,-228,-299
-182,-29,152,106,-167,61,334,206,-162,-177,-287,-363
796,543,-253,-669,525,144,-479,635,1242,1212,1185,800
1596,756,-841,-1176,1218,-43,-1444,162,1975,1928,2291,1890
1118,-90,-1208,-514,1163,-648,-1004,-467,310,19,783,999
443,-143,-587,-150,516,-365,-328,-287,-331,-507,-10,227
116,22,-94,-69,106,-36,-95,-121,-93,-125,36,24
-14,-29,-14,22,0,-22,39,-100,-226,-233,-129,-167
-41,23,64,9,-53,43,80,-25,-129,-109,-82,-143
-67,-17,50,42,-58,16,90,-32,-188,-185,-153,-195
-65,11,76,27,-70,43,92,-5,-149,-139,-117,-179
-73,-6,67,39,-70,30,97,-8,-163,-161,-135,-187
-70,1,71,34,-70,36,100,6,-156,-157,-130,-184
-76,-5,71,40,-73,32,102,11,-139,-146,-127,-176
-75,-7,68,41,-71,30,106,18,-144,-151,-133,-184
-74,-3,71,38,-72,34,108,32,-122,-126,-115,-172
-69,-7,62,38,-65,27,113,40,-125,-133,-121,-173
-64,-4,60,34,-62,28,116,60,-93,-110,-106,-163
-58,-5,53,31,-55,24,121,80,-74,-107,-108,-160
-59,-9,51,34,-54,21,125,104,-43,-87,-92,-153
-64,-19,45,41,-54,13,128,135,-5,-60,-76,-148
-44,-5,39,24,-41,17,133,163,34,-26,-57,-141
-16,11,27,2,-21,19,134,198,87,19,-34,-123
15,32,16,-24,-1,24,128,250,165,65,-7,-92
44,48,4,-46,20,25,121,303,256,124,38,-50
83,65,-18,-74,50,23,115,355,362,198,95,-7
123,76,-47,-100,85,14,107,408,475,272,162,39
169,88,-81,-129,125,4,102,467,582,347,223,92
220,110,-110,-164,165,0,92,503,682,409,283,140
256,116,-139,-186,197,-11,76,504,746,446,330,186
267,114,-153,-190,210,-19,59,481,732,451,331,199
232,102,-130,-166,181,-14,37,385,608,381,300,176
179,93,-86,-136,132,3,21,237,392,245,242,141
118,79,-38,-98,78,20,18,103,171,109,151,75
54,50,-4,-52,29,22,14,5,-1,-7,58,-3
14,32,18,-23,-2,25,11,-59,-118,-91,-7,-61
-9,26,35,-9,-23,31,6,-90,-179,-138,-54,-88
-18,19,37,-1,-27,27,6,-104,-205,-157,-77,-97
-24,11,35,6,-29,22,10,-116,-219,-173,-88,-108
-31,4,35,13,-33,19,12,-115,-222,-180,-98,-112
-38,-3,35,20,-37,16,15,-115,-224,-183,-99,-113
-40,-6,34,22,-36,14,19,-115,-227,-188,-105,-117
-42,-5,37,23,-39,16,20,-115,-234,-193,-108,-120
-48,-9,39,29,-44,15,24,-112,-242,-200,-113,-120
-51,-10,41,31,-46,15,25,-110,-241,-200,-118,-122
-54,-10,44,31,-49,17,25,-110,-238,-200,-114,-125
-50,-6,45,28,-47,20,29,-110,-236,-200,-112,-125
-46,-3,43,25,-44,19,30,-110,-232,-200,-109,-122
-30,0,30,15,-30,14,29,-109,-230,-200,-106,-117
-43,-1,42,22,-42,21,25,-105,-228,-196,-104,-115
-71,-8,63,40,-67,27,23,-104,-222,-194,-100,-110
-62,0,61,31,-61,30,19,-107,-219,-197,-97,-108
-50,-5,45,28,-48,20,18,-102,-211,-192,-92,-101
-36,16,52,10,-44,34,13,-110,-212,-200,-92,-103
-30,-3,27,16,-29,12,18,-86,-199,-182,-82,-90
-40,-7,33,24,-37,13,55,-91,-202,-184,-88,-93
-21,89,110,-34,-66,99,67,-129,-220,-200,-97,-104
18,102,84,-60,-34,93,54,-103,-194,-165,-69,-74
24,87,63,-56,-20,75,55,-98,-184,-157,-56,-61
42,110,68,-76,-13,89,30,-103,-184,-159,-50,-42
72,123,51,-97,10,87,-19,-97,-175,-153,-36,-17
64,115,51,-89,6,83,-30,-103,-171,-152,-30,-26
53,91,39,-72,7,64,-18,-96,-164,-149,-17,-30
34,70,36,-53,-1,53,-13,-104,-171,-157,-24,-28
-1,34,35,-17,-18,34,-3,-119,-204,-192,-72,-72
-37,-4,33,20,-35,14,2,-120,-240,-228,-98,-109
-51,-20,32,35,-41,6,9,-120,-238,-227,-95,-103
-57,-30,27,44,-42,-2,14,-124,-241,-233,-106,-106
-70,-34,36,52,-53,1,17,-126,-243,-229,-102,-106
-73,-41,32,56,-52,-4,28,-122,-245,-237,-108,-121
-67,-29,38,47,-52,4,26,-123,-247,-235,-104,-120
-64,-31,33,47,-49,0,34,-116,-234,-227,-103,-117
-62,-27,35,44,-48,4,26,-123,-249,-239,-110,-119
-54,-16,38,34,-46,11,33,-108,-221,-215,-90,-108
-58,-31,28,44,-43,-2,28,-121,-250,-245,-114,-122
-51,-2,48,26,-49,23,31,-114,-213,-201,-77,-100
-64,-50,14,57,-39,-18,27,-119,-239,-246,-111,-115
-172,11,183,80,-177,96,76,-180,-343,-268,-164,-181
-227,-60,167,143,-198,53,372,125,-280,-329,-324,-336
554,363,-191,-459,372,86,-198,598,873,798,822,558
1534,852,-682,-1193,1108,85,-1331,274,2011,2059,2417,1971
1256,82,-1175,-669,1216,-546,-1155,-440,619,394,1249,1402
550,-189,-739,-180,644,-464,-412,-357,-397,-637,60,406
152,14,-139,-83,146,-62,-120,-124,-130,-201,86,141
-22,-69,-47,45,13,-58,16,-115,-244,-297,-91,-88
-33,-6,27,19,-30,11,78,-28,-168,-172,-53,-85
-69,-37,32,53,-50,-2,94,-31,-197,-223,-113,-134
-59,-10,49,34,-53,19,100,-10,-182,-214,-103,-135
-64,-19,45,40,-54,13,108,-6,-169,-200,-101,-133
-66,-23,43,44,-55,9,111,2,-181,-212,-113,-146
-63,-15,48,39,-56,16,109,18,-150,-182,-96,-130
-71,-29,42,49,-56,7,114,24,-163,-197,-114,-140
-65,-21,44,43,-54,12,115,42,-135,-162,-94,-131
-64,-29,35,46,-49,3,116,50,-128,-165,-102,-138
-53,-17,36,35,-44,9,119,68,-99,-140,-89,-134
-52,-23,30,37,-41,4,124,78,-85,-132,-89,-134
-44,-17,27,30,-35,5,127,99,-55,-114,-82,-125
-39,-16,23,27,-31,3,132,127,-18,-88,-63,-114
-23,-14,9,18,-16,-2,135,159,20,-51,-39,-104
2,-18,-20,8,12,-19,131,200,86,-3,-10,-81
23,-25,-48,1,36,-37,127,236,148,32,14,-54
75,17,-58,-46,66,-20,124,275,228,91,53,-20
92,40,-52,-65,71,-6,119,334,338,167,107,20
138,61,-77,-99,108,-8,116,394,452,250,175,64
206,97,-108,-151,157,-5,111,441,554,324,241,119
252,116,-136,-184,194,-10,97,483,657,391,303,174
302,121,-181,-211,242,-30,83,508,727,437,365,222
285,107,-178,-196,232,-35,69,485,714,420,382,247
261,101,-160,-181,210,-29,51,400,627,384,361,241
219,91,-128,-155,173,-18,38,264,429,277,300,200
149,71,-79,-110,114,-4,33,123,201,112,196,116
72,40,-32,-56,52,4,30,26,16,-9,98,38
8,-2,-9,-3,8,-5,27,-34,-110,-100,31,-12
5,-24,-29,9,17,-26,22,-89,-177,-149,-9,-63
18,-11,-29,-3,24,-20,19,-108,-222,-183,-50,-82
20,-2,-22,-9,21,-11,31,-103,-235,-216,-71,-79
13,-5,-18,-4,16,-12,36,-108,-235,-214,-70,-81
4,-7,-10,2,7,-9,34,-110,-234,-216,-69,-79
-4,-11,-7,8,2,-9,35,-110,-238,-220,-76,-93
-13,-13,0,13,-6,-6,35,-107,-253,-220,-91,-103
-26,-16,9,21,-17,-3,35,-102,-258,-218,-89,-105
-30,-10,21,20,-25,6,36,-100,-260,-214,-93,-110
-30,-3,27,16,-29,12,33,-95,-268,-216,-96,-108
-60,-35,26,47,-43,-4,41,-92,-265,-211,-89,-103
-76,-53,22,64,-49,-15,51,-88,-256,-210,-86,-100
-63,-43,20,53,-41,-11,46,-85,-248,-210,-81,-97
-58,-41,16,49,-37,-12,43,-83,-241,-206,-77,-92
-48,-34,15,40,-31,-9,40,-80,-235,-203,-72,-89
-47,-29,19,38,-33,-5,35,-77,-235,-201,-70,-86
-45,-24,21,34,-32,-1,38,-75,-234,-197,-71,-85
-35,-15,19,25,-27,2,40,-72,-230,-195,-66,-84
-30,-9,21,20,-25,5,40,-66,-230,-192,-65,-79
-17,2,19,8,-18,10,40,-61,-227,-184,-65,-81
-17,5,22,6,-20,13,39,-58,-219,-177,-54,-76
-7,24,31,-9,-19,27,41,-52,-211,-170,-40,-64
14,41,26,-28,-6,33,33,-51,-204,-165,-26,-47
39,58,19,-48,10,38,29,-56,-199,-164,-8,-29
76,89,13,-83,31,51,16,-59,-194,-166,13,-22
79,85,6,-83,37,45,-25,-67,-188,-164,22,-17
74,75,1,-75,36,38,-31,-77,-182,-166,14,-10
58,55,-4,-56,31,25,-13,-78,-181,-163,6,-5
24,18,-6,-21,15,6,-4,-84,-205,-173,-15,-27
-8,-19,-11,13,2,-15,8,-90,-242,-224,-52,-70
-23,-37,-14,31,-4,-26,14,-91,-252,-242,-65,-81
-28,-41,-13,35,-7,-27,26,-89,-247,-237,-64,-79
-41,-51,-10,46,-16,-30,28,-92,-256,-244,-67,-81
-43,-52,-9,48,-17,-30,32,-88,-251,-234,-62,-78
-50,-59,-9,55,-20,-34,35,-91,-260,-248,-70,-83
-49,-49,0,49,-24,-25,36,-89,-246,-228,-57,-72
-51,-62,-11,57,-19,-37,43,-90,-254,-244,-65,-79
-55,-47,8,51,-31,-19,36,-93,-249,-227,-49,-71
-51,-60,-9,56,-21,-34,45,-84,-245,-238,-55,-72
-57,-44,13,50,-35,-15,33,-100,-263,-239,-49,-71
-44,-48,-4,46,-19,-26,49,-67,-226,-220,-36,-65
-83,-48,35,65,-58,-7,27,-119,-309,-269,-69,-96
-233,-36,197,134,-215,81,225,-59,-384,-315,-239,-264
28,-7,-35,-10,32,-21,280,412,77,-45,-18,-111
1091,714,-377,-902,734,168,-764,554,1618,1743,1930,1415
1534,621,-913,-1077,1223,-145,-1412,-132,1575,1757,2453,2122
883,-199,-1083,-342,983,-641,-766,-484,-108,-329,686,984
343,-77,-421,-133,382,-249,-224,-181,-258,-408,172,329
75,-35,-110,-20,93,-72,-36,-88,-164,-197,111,68
3,-66,-69,32,36,-67,81,-39,-210,-272,8,-63
-20,-33,-13,27,-4,-23,104,13,-113,-169,60,-58
-54,-66,-12,60,-21,-39,112,6,-180,-236,-3,-116
-51,-36,15,43,-33,-10,116,25,-128,-167,39,-89
-77,-73,4,75,-40,-34,126,21,-165,-206,-1,-113
-42,-23,19,32,-30,-2,122,30,-142,-171,14,-98
-75,-57,18,66,-46,-19,130,37,-150,-178,5,-101
-108,-92,16,100,-62,-38,142,57,-138,-169,20,-101
-78,-71,7,74,-42,-32,139,67,-124,-154,35,-94
-66,-68,-2,67,-32,-34,141,84,-117,-150,39,-97
-46,-54,-8,50,-18,-30,140,93,-89,-128,57,-93
-34,-50,-17,42,-8,-33,140,109,-73,-117,59,-89
-20,-42,-22,31,1,-32,144,140,-33,-88,85,-77
-7,-36,-29,21,11,-32,145,160,6,-61,107,-67
3,-30,-32,14,18,-31,148,191,58,-19,127,-48
14,-23,-37,5,26,-30,150,233,116,30,165,-27
37,-16,-53,-11,46,-34,150,274,188,83,206,9
70,-5,-75,-32,73,-40,158,326,282,153,261,48
106,12,-94,-59,100,-41,151,381,388,236,329,93
157,31,-126,-94,141,-47,138,434,502,318,403,147
199,50,-149,-124,174,-49,128,481,604,390,477,198
242,91,-151,-166,196,-30,106,505,695,463,546,255
318,165,-153,-241,236,6,72,510,738,517,626,327
370,211,-159,-290,264,26,21,470,704,502,644,370
327,193,-134,-259,230,29,21,385,590,423,604,337
247,162,-85,-205,165,39,46,250,374,297,532,268
157,112,-44,-134,100,34,45,106,147,140,409,161
69,46,-23,-57,46,11,45,32,-22,-3,291,69
28,2,-26,-14,27,-12,45,-19,-134,-105,208,11
-3,-26,-23,15,10,-24,44,-51,-188,-160,166,-30
-19,-39,-21,29,1,-30,46,-49,-215,-182,141,-44
-23,-42,-19,33,-2,-30,48,-51,-223,-193,127,-58
-34,-53,-18,44,-8,-35,51,-49,-227,-204,107,-62
-40,-54,-14,48,-12,-34,52,-51,-230,-198,100,-59
-44,-55,-11,49,-16,-33,56,-48,-231,-199,93,-67
-42,-53,-11,48,-15,-32,56,-45,-240,-211,83,-64
-44,-45,-2,45,-21,-23,61,-41,-234,-203,85,-66
-41,-52,-11,47,-15,-32,67,-38,-243,-222,62,-75
-44,-34,9,39,-26,-12,66,-34,-220,-194,86,-58
-47,-51,-5,49,-21,-28,76,-29,-236,-229,58,-74
-51,-26,26,38,-38,0,68,-31,-213,-190,94,-51
-38,-41,-3,39,-17,-22,84,-10,-219,-222,62,-70
-25,12,37,6,-31,25,61,-42,-229,-194,92,-53
-141,-9,132,74,-137,62,216,87,-183,-169,-23,-186
264,105,-159,-184,212,-27,118,550,501,403,506,212
1195,748,-447,-971,820,150,-891,281,1461,1624,2172,1642
1288,476,-812,-882,1050,-168,-1284,-597,412,463,1661,1645
675,-118,-793,-278,734,-455,-578,-465,-555,-788,266,592
215,-45,-260,-85,238,-153,-117,-39,-144,-236,264,246
21,-76,-97,28,59,-86,24,-15,-194,-233,146,35
-4,-55,-50,30,23,-52,92,66,-173,-185,118,-19
-26,-48,-22,37,-2,-35,93,56,-167,-173,79,-54
-27,-51,-24,39,-1,-37,101,59,-189,-203,35,-82
-32,-33,-1,33,-15,-17,102,66,-160,-160,53,-76
-44,-47,-3,46,-21,-25,106,61,-185,-199,22,-93
-42,-33,10,37,-26,-11,105,69,-149,-163,44,-79
-41,-39,2,40,-21,-19,110,68,-163,-181,20,-94
-43,-32,10,37,-26,-11,110,89,-132,-153,31,-87
-44,-34,10,39,-27,-12,110,104,-116,-151,25,-90
-36,-27,9,31,-22,-9,118,125,-91,-126,38,-82
-27,-22,5,24,-16,-8,124,142,-64,-101,39,-77
-17,-19,-2,18,-7,-11,131,168,-38,-80,49,-72
-8,-13,-5,11,-1,-9,140,201,9,-45,72,-66
3,-10,-13,4,8,-12,145,233,51,-12,77,-59
15,-2,-17,-6,16,-10,149,274,117,32,102,-38
31,7,-24,-19,27,-8,160,327,197,81,131,-19
59,18,-42,-38,50,-12,160,383,279,133,165,10
91,27,-64,-59,78,-18,166,442,373,191,206,47
128,38,-89,-83,108,-25,167,489,451,244,246,80
159,45,-113,-102,136,-34,153,524,532,291,286,118
181,53,-128,-117,154,-37,147,526,565,324,319,156
204,68,-135,-136,169,-33,125,493,543,310,322,164
187,64,-123,-125,155,-29,85,416,471,267,313,152
138,53,-85,-96,111,-16,51,292,298,180,290,138
95,46,-50,-70,72,-2,34,172,111,58,219,93
55,35,-20,-45,37,8,35,85,-30,-46,147,40
11,26,15,-19,-2,20,35,37,-134,-125,97,1
-12,14,26,-2,-20,20,35,19,-185,-182,57,-32
-22,3,24,9,-23,13,36,20,-198,-225,36,-48
-33,-8,26,20,-29,9,33,20,-199,-241,32,-54
-35,-10,24,22,-30,7,43,20,-192,-239,29,-55
-39,-13,26,26,-32,6,51,19,-189,-242,26,-55
-38,-16,22,27,-30,3,49,25,-183,-245,21,-59
-33,-15,19,24,-26,2,50,36,-180,-245,20,-60
-30,-15,14,22,-22,0,50,29,-185,-248,20,-60
-27,-15,12,21,-19,-1,50,25,-185,-249,20,-60
-22,-15,7,18,-14,-4,46,21,-189,-258,20,-60
-20,-15,5,17,-12,-5,45,16,-190,-273,20,-60
-29,-17,12,23,-20,-2,45,12,-193,-273,20,-60
-35,-26,8,30,-22,-9,40,9,-196,-278,16,-60
-54,-31,23,42,-38,-4,40,10,-202,-303,10,-64
-60,-27,33,43,-46,3,39,10,-222,-312,5,-66
-48,-25,23,36,-35,-1,34,10,-226,-308,-1,-65
-43,-22,21,32,-32,0,29,9,-225,-311,-6,-65
-36,-19,16,27,-26,-1,24,6,-230,-322,-11,-65
-35,-24,11,29,-22,-6,21,3,-230,-326,-16,-66
-37,-25,12,31,-24,-6,14,1,-230,-325,-21,-70
-40,-25,15,32,-27,-5,23,-3,-230,-333,-25,-70
-45,-30,15,37,-30,-7,32,-5,-230,-339,-30,-72
-44,-30,15,37,-30,-7,27,-8,-230,-340,-35,-75
-47,-31,15,38,-31,-8,25,-10,-230,-340,-35,-75
-50,-35,14,42,-31,-10,21,-10,-230,-344,-35,-75
-45,-35,11,40,-28,-12,20,-13,-226,-345,-35,-75
-45,-35,10,40,-27,-12,20,-16,-224,-345,-35,-75
-45,-35,10,40,-27,-12,20,-14,-225,-345,-35,-75
-45,-35,10,40,-27,-12,20,-11,-225,-345,-36,-75
-48,-39,10,44,-29,-14,20,-10,-225,-345,-40,-74
-53,-40,12,46,-33,-14,20,-10,-223,-345,-40,-70
-55,-40,15,47,-35,-12,20,-10,-220,-345,-42,-70
-55,-40,15,47,-35,-12,20,-11,-220,-345,-46,-70
-55,-40,15,47,-35,-12,20,-8,-220,-345,-44,-70
-55,-40,15,47,-35,-12,20,-4,-220,-345,-49,-71
-55,-40,14,47,-34,-12,20,-5,-220,-345,-50,-66
-50,-40,11,45,-30,-15,20,-5,-220,-344,-50,-65
-50,-40,10,45,-30,-15,20,-5,-220,-346,-55,-64
-50,-40,10,45,-30,-15,20,-4,-220,-350,-55,-68
-50,-40,10,45,-30,-15,20,0,-220,-350,-54,-81
-46,-36,10,41,-28,-12,20,5,-220,-350,-50,-78
-38,-29,9,34,-24,-10,20,10,-219,-350,-45,-74
-33,-23,11,28,-22,-6,21,13,-213,-350,-43,-71
-25,-15,9,20,-17,-3,26,20,-207,-346,-38,-66
-21,-10,11,16,-16,0,29,21,-202,-333,-36,-64
-22,-2,20,12,-20,9,34,34,-192,-312,-27,-54
-10,5,15,2,-13,10,39,50,-175,-296,-14,-47
27,32,6,-30,10,19,28,61,-169,-295,0,-26
59,57,-1,-58,30,28,12,74,-167,-295,23,3
53,44,-9,-48,31,17,2,66,-161,-289,29,5
45,28,-17,-37,31,6,-13,56,-161,-291,16,-3
48,20,-28,-33,38,-4,-16,49,-151,-287,6,-1
22,-12,-34,-5,28,-22,-2,38,-171,-296,-7,-25
-29,-56,-27,43,-1,-41,11,35,-200,-325,-39,-67
-47,-74,-27,61,-10,-50,21,35,-199,-339,-71,-77
-47,-66,-20,57,-13,-43,21,34,-202,-331,-69,-73
-54,-72,-19,63,-17,-45,30,37,-196,-328,-70,-75
-55,-69,-14,63,-21,-41,28,31,-206,-331,-72,-76
-59,-68,-10,64,-25,-39,32,40,-190,-315,-65,-72
-58,-71,-13,65,-22,-42,32,29,-206,-343,-77,-83
-51,-56,-4,54,-23,-30,36,43,-183,-320,-54,-74
-59,-78,-19,68,-20,-48,36,42,-202,-352,-77,-87
-45,-44,2,45,-23,-21,31,37,-186,-320,-54,-75
-62,-80,-18,71,-22,-49,42,44,-176,-339,-68,-79
-163,-35,129,99,-146,47,51,-21,-302,-392,-119,-134
-263,-82,181,172,-222,49,357,209,-302,-471,-307,-309
332,208,-124,-270,228,42,0,723,619,338,474,288
1418,831,-587,-1124,1002,122,-1215,636,2105,1972,2273,1783
1404,189,-1215,-797,1310,-513,-1289,-112,1196,839,1655,1618
671,-317,-988,-177,830,-652,-504,-226,-238,-701,190,525
232,-61,-293,-85,263,-177,-135,35,-87,-337,110,203
21,-93,-113,36,67,-103,16,48,-152,-362,-34,-39
-38,-57,-18,48,-10,-37,95,146,-128,-290,-51,-90
-92,-80,13,86,-52,-33,119,149,-113,-264,-78,-109
-96,-77,19,86,-57,-29,130,148,-136,-291,-96,-140
-91,-75,17,83,-54,-29,131,153,-98,-250,-85,-127
-91,-87,5,89,-48,-41,138,152,-126,-286,-120,-143
-85,-77,7,81,-46,-35,139,164,-93,-249,-93,-133
-102,-109,-7,106,-47,-58,141,167,-110,-274,-114,-145
-99,-99,0,99,-49,-50,144,184,-91,-250,-99,-135
-102,-99,3,101,-52,-48,145,183,-91,-257,-108,-137
-103,-93,10,98,-56,-41,149,203,-66,-248,-97,-132
-93,-88,4,90,-48,-42,150,211,-42,-244,-88,-129
-82,-85,-3,84,-39,-44,150,233,-21,-235,-82,-127
-69,-78,-9,74,-30,-43,154,255,8,-208,-70,-124
-54,-70,-16,62,-19,-43,156,277,40,-185,-59,-120
-39,-62,-23,51,-8,-42,153,306,86,-150,-38,-103
-29,-54,-24,42,-2,-39,151,333,136,-112,-15,-85
-21,-47,-26,35,3,-36,148,377,205,-63,23,-55
19,-30,-49,6,34,-39,145,422,288,-8,61,-18
55,-20,-75,-18,66,-47,141,472,383,55,101,16
77,-6,-83,-35,80,-44,140,519,479,112,153,53
125,2,-123,-63,124,-61,135,571,573,180,210,101
175,14,-161,-95,168,-73,125,610,658,236,259,137
233,59,-175,-146,204,-58,114,627,715,265,288,159
235,32,-203,-133,218,-85,92,625,739,282,309,190
194,-2,-196,-95,195,-99,75,554,664,230,304,187
171,-6,-177,-83,174,-91,68,443,501,140,252,151
127,-21,-148,-53,138,-84,61,323,321,30,183,103
69,-30,-99,-19,84,-64,53,209,141,-83,112,38
12,-50,-62,20,37,-56,45,133,1,-164,39,-16
-12,-58,-46,35,17,-51,40,82,-83,-230,-11,-54
-27,-71,-44,49,9,-57,40,56,-129,-267,-44,-76
-43,-79,-37,61,-3,-58,40,55,-150,-285,-61,-88
-49,-80,-32,64,-8,-55,40,55,-163,-295,-65,-96
-60,-86,-26,73,-16,-56,40,55,-171,-300,-67,-100
-71,-93,-21,82,-25,-57,40,55,-170,-308,-79,-104
-79,-95,-16,87,-31,-55,44,56,-170,-310,-91,-109
-78,-89,-11,83,-33,-50,45,60,-170,-310,-89,-110
-79,-87,-8,84,-35,-48,45,60,-170,-310,-93,-110
-80,-82,-2,81,-39,-42,45,60,-166,-310,-96,-110
-79,-80,-1,80,-39,-41,45,60,-159,-310,-95,-110
-80,-85,-5,83,-37,-45,43,60,-153,-301,-92,-109
-78,-85,-7,82,-35,-46,40,60,-146,-289,-84,-104
-75,-85,-10,80,-32,-47,40,60,-139,-276,-78,-101
-71,-85,-14,78,-28,-49,38,60,-134,-259,-71,-98
-70,-86,-15,78,-27,-50,34,60,-130,-242,-64,-93
-70,-82,-12,76,-29,-47,35,60,-130,-223,-59,-90
-67,-74,-7,71,-30,-40,39,61,-130,-213,-54,-87
-61,-65,-4,64,-28,-35,40,65,-130,-205,-48,-82
-58,-59,-1,59,-29,-29,41,65,-130,-196,-45,-80
-53,-49,4,51,-28,-22,39,65,-126,-177,-40,-75
-52,-46,6,48,-28,-20,43,68,-120,-150,-36,-72
-48,-32,16,40,-32,-8,48,73,-115,-126,-31,-68
-11,4,15,3,-13,9,37,74,-110,-116,-30,-66
15,16,1,-15,6,8,-2,65,-103,-113,-26,-63
11,1,-10,-6,10,-4,-34,56,-101,-109,-23,-59
27,-7,-34,-10,31,-20,-22,48,-99,-105,-21,-58
23,-18,-41,-3,33,-29,-8,37,-106,-107,-18,-51
-33,-69,-36,52,2,-52,1,32,-146,-141,-66,-84
-74,-106,-32,90,-21,-68,6,27,-178,-173,-111,-122
-86,-112,-26,99,-29,-69,11,25,-171,-167,-108,-118
-92,-117,-25,105,-33,-71,18,20,-180,-173,-119,-124
-98,-113,-15,106,-41,-63,21,17,-178,-166,-116,-124
-96,-117,-21,107,-37,-69,30,14,-179,-171,-122,-123
-119,-115,5,117,-62,-55,27,8,-195,-173,-126,-133
-166,-152,14,159,-90,-69,34,13,-201,-182,-137,-146
-150,-133,17,141,-83,-58,29,5,-205,-174,-132,-137
-131,-121,10,126,-70,-55,41,18,-178,-149,-121,-129
-129,-123,6,126,-67,-58,28,0,-206,-170,-135,-132
-110,-98,12,103,-60,-43,37,18,-157,-117,-103,-112
-121,-125,-4,123,-58,-65,20,-16,-202,-172,-143,-137
-256,-68,188,162,-221,60,121,-50,-309,-196,-234,-243
-226,-130,96,178,-161,-17,363,348,-129,-165,-312,-329
718,424,-294,-571,506,64,-415,772,1257,1219,1138,817
1551,709,-842,-1130,1196,-67,-1419,300,2073,2098,2376,1991
1104,-126,-1230,-489,1167,-678,-1029,-362,419,174,893,1147
421,-236,-657,-92,539,-446,-336,-191,-306,-486,0,304
77,-72,-149,-2,113,-110,-95,-7,-56,-80,17,66
-53,-127,-74,90,11,-100,39,6,-183,-195,-161,-136
-89,-81,7,85,-48,-37,83,87,-84,-54,-92,-127
-119,-122,-3,120,-58,-62,100,77,-137,-122,-181,-172
-110,-95,15,103,-62,-40,113,98,-97,-79,-150,-154
-126,-116,10,121,-68,-53,108,95,-103,-92,-162,-175
-125,-108,17,116,-71,-45,111,118,-98,-90,-164,-177
-128,-107,21,117,-74,-42,109,127,-75,-77,-152,-171
-122,-107,15,114,-68,-46,111,126,-77,-87,-171,-179
-116,-102,14,109,-65,-44,114,132,-48,-59,-163,-171
-112,-104,8,108,-59,-48,115,141,-47,-64,-168,-177
-104,-97,7,100,-56,-45,119,160,-20,-34,-152,-165
-102,-102,0,102,-51,-50,120,172,-4,-26,-151,-163
-93,-93,-1,93,-46,-47,122,194,36,2,-142,-155
-77,-88,-10,83,-33,-49,127,214,69,34,-134,-152
-62,-81,-19,72,-21,-50,129,246,111,68,-108,-143
-46,-74,-27,60,-9,-50,125,284,171,120,-82,-124
-32,-69,-37,50,3,-52,120,327,237,171,-54,-99
-14,-61,-46,38,16,-53,116,373,323,233,-17,-66
28,-44,-72,8,50,-58,111,430,427,315,32,-23
69,-28,-97,-20,84,-62,107,480,531,390,93,19
105,-15,-121,-45,113,-68,101,527,629,462,154,66
151,-2,-153,-75,153,-78,85,558,718,526,216,121
182,7,-175,-94,178,-83,69,553,778,560,262,156
211,18,-193,-114,202,-87,52,534,774,562,276,179
205,27,-177,-116,191,-75,34,445,649,498,251,168
129,14,-116,-71,123,-51,26,305,447,374,177,114
59,-16,-75,-21,67,-45,19,173,232,234,78,41
-3,-37,-35,20,16,-36,13,76,54,111,-11,-29
-51,-55,-5,53,-23,-30,5,16,-58,33,-86,-88
-68,-74,-6,72,-31,-40,0,-25,-121,-18,-141,-128
-82,-86,-4,84,-39,-45,5,-36,-153,-44,-158,-140
-92,-93,-1,92,-46,-46,5,-35,-167,-51,-167,-150
-95,-95,0,95,-47,-47,5,-35,-169,-57,-178,-156
-100,-98,1,99,-50,-48,5,-35,-174,-59,-184,-157
-105,-100,5,102,-55,-47,4,-35,-177,-65,-191,-162
-100,-95,5,97,-52,-45,8,-35,-182,-76,-198,-165
-100,-95,5,97,-52,-45,10,-35,-188,-75,-196,-165
-99,-94,5,96,-52,-44,11,-35,-184,-74,-195,-165
-95,-90,5,92,-50,-42,15,-35,-181,-84,-195,-165
-99,-90,9,94,-54,-41,15,-36,-178,-89,-190,-165
-98,-87,11,93,-54,-38,10,-34,-174,-82,-190,-164
-94,-85,10,89,-51,-37,10,-30,-170,-78,-190,-161
-92,-82,11,87,-51,-35,9,-30,-167,-71,-190,-158
-89,-79,10,84,-49,-35,5,-30,-164,-66,-190,-156
-86,-75,11,81,-48,-32,5,-30,-161,-61,-190,-152
-92,-76,17,84,-54,-30,8,-30,-158,-54,-190,-150
-99,-79,20,89,-59,-29,12,-27,-155,-48,-190,-147
-108,-82,26,94,-67,-28,18,-24,-154,-41,-185,-141
-98,-70,27,84,-62,-21,21,-21,-148,-34,-175,-136
-68,-23,45,46,-56,11,27,-19,-142,-27,-165,-129
-48,9,58,19,-53,33,29,-14,-138,-23,-157,-126
-26,17,44,4,-35,30,15,-17,-131,-17,-152,-102
7,40,33,-23,-13,36,-13,-19,-127,-12,-149,-77
17,40,23,-29,-3,31,-56,-23,-128,-6,-141,-75
0,16,16,-8,-9,16,-60,-24,-132,-10,-137,-77
-6,5,11,1,-9,8,-41,-24,-128,-18,-137,-72
-48,-41,7,44,-27,-17,-34,-42,-136,-30,-145,-93
-86,-88,-1,87,-42,-44,-22,-46,-169,-68,-187,-140
-90,-93,-3,92,-43,-48,-13,-46,-177,-88,-210,-150
-99,-101,-1,100,-49,-51,-4,-49,-172,-90,-209,-149
-101,-100,1,101,-51,-50,-5,-52,-182,-92,-212,-151
-111,-110,1,111,-56,-54,1,-47,-176,-85,-211,-148
-114,-110,4,111,-58,-53,2,-47,-185,-98,-220,-153
-108,-99,8,103,-58,-45,5,-43,-168,-78,-206,-143
-109,-108,1,108,-55,-53,9,-44,-182,-97,-218,-149
-106,-86,20,96,-63,-33,7,-40,-170,-73,-196,-140
-108,-106,2,107,-55,-51,16,-37,-175,-93,-211,-145
-108,-76,32,91,-70,-22,1,-49,-183,-76,-194,-139
-107,-105,2,106,-55,-51,24,-22,-150,-71,-190,-135
-135,-62,73,98,-104,5,11,-91,-240,-121,-237,-170
-282,-99,183,190,-233,42,248,45,-295,-210,-439,-373
101,22,-79,-62,90,-28,150,537,373,287,31,-19
1184,783,-401,-983,793,190,-997,503,1874,2135,2077,1614
1403,455,-948,-929,1175,-247,-1416,-233,1367,1588,2078,1965
703,-261,-964,-221,834,-612,-690,-435,-182,-381,317,772
192,-118,-310,-37,251,-214,-226,-127,-121,-209,4,226
-28,-118,-91,73,32,-104,-53,-63,-106,-117,-136,-40
-74,-104,-29,89,-22,-66,49,8,-130,-116,-186,-130
-104,-100,4,102,-54,-47,62,44,-76,-37,-174,-134
-117,-113,3,115,-59,-55,82,45,-119,-102,-234,-176
-112,-95,17,104,-64,-39,92,61,-66,-42,-192,-159
-118,-114,4,116,-60,-55,89,54,-98,-92,-233,-179
-117,-102,15,110,-66,-44,91,64,-62,-55,-202,-165
-122,-115,7,119,-65,-54,89,57,-75,-78,-222,-179
-117,-107,10,111,-63,-48,91,67,-54,-60,-212,-174
-114,-111,2,112,-58,-54,94,64,-44,-52,-215,-173
-110,-110,0,110,-55,-55,95,66,-30,-46,-212,-168
-104,-107,-3,106,-50,-55,99,71,-5,-28,-199,-162
-94,-102,-8,98,-43,-55,100,74,25,-17,-196,-160
-83,-93,-10,88,-36,-51,102,92,62,14,-184,-154
-72,-88,-17,80,-27,-52,105,116,90,45,-180,-144
-52,-80,-28,66,-11,-54,105,150,149,80,-163,-121
-39,-75,-37,57,-1,-56,105,181,204,121,-135,-103
-22,-66,-44,44,11,-55,106,220,282,180,-97,-74
20,-53,-73,17,47,-63,105,272,380,250,-45,-37
55,-42,-97,-6,76,-69,96,321,487,334,19,13
92,-22,-114,-35,103,-68,84,370,591,412,81,74
136,-9,-145,-63,141,-77,73,405,689,484,151,121
161,-11,-172,-75,166,-91,61,424,773,549,218,162
168,-8,-175,-80,172,-91,43,415,805,568,250,186
163,-6,-169,-79,166,-87,27,363,764,544,246,182
139,-4,-143,-67,142,-73,21,258,611,455,204,151
89,-9,-98,-39,94,-54,14,121,392,297,103,76
37,-24,-62,-6,50,-43,6,11,186,147,-13,-5
-1,-43,-41,22,20,-42,-2,-70,40,31,-99,-66
-36,-69,-33,52,-1,-50,-3,-122,-50,-47,-171,-127
-57,-79,-23,68,-17,-51,1,-143,-100,-86,-215,-164
-70,-82,-12,76,-28,-47,0,-151,-124,-109,-231,-172
-77,-87,-10,82,-33,-48,4,-150,-135,-115,-243,-175
-84,-92,-8,88,-37,-50,5,-150,-135,-124,-249,-185
-94,-99,-5,97,-44,-52,5,-150,-135,-133,-255,-194
-95,-100,-5,98,-46,-52,5,-150,-136,-132,-266,-203
-100,-100,0,100,-50,-50,5,-150,-141,-146,-270,-210
-107,-100,7,103,-57,-46,5,-150,-143,-156,-274,-211
-112,-100,12,106,-62,-44,5,-150,-149,-155,-274,-215
-114,-100,14,107,-64,-43,5,-150,-154,-155,-279,-215
-107,-100,7,103,-57,-46,3,-150,-145,-155,-283,-215
-102,-97,5,99,-54,-46,-1,-149,-137,-155,-272,-215
-110,-93,17,101,-63,-38,0,-145,-129,-152,-262,-215
-121,-92,29,106,-75,-31,0,-143,-123,-147,-253,-215
-110,-87,23,98,-67,-32,0,-140,-118,-145,-245,-215
-107,-86,21,97,-63,-32,1,-137,-112,-141,-240,-208
-101,-82,19,92,-60,-31,3,-135,-109,-136,-232,-200
-83,-72,11,77,-47,-30,7,-132,-104,-134,-226,-192
-91,-55,36,73,-64,-9,2,-129,-99,-128,-219,-184
-72,-46,26,59,-49,-10,16,-126,-95,-122,-215,-177
-77,-44,32,60,-54,-6,30,-124,-89,-117,-208,-167
-58,10,68,23,-63,39,-1,-120,-86,-111,-205,-158
12,49,38,-31,-13,43,-43,-121,-81,-108,-198,-148
19,26,6,-22,6,16,-60,-126,-77,-99,-192,-145
17,3,-14,-10,15,-5,-51,-127,-73,-105,-193,-145
-11,-29,-17,20,3,-23,-42,-142,-83,-121,-197,-148
-71,-79,-9,75,-31,-44,-34,-151,-114,-154,-240,-196
-101,-103,-2,102,-50,-52,-27,-150,-137,-197,-275,-236
-95,-106,-10,101,-42,-58,-21,-147,-133,-198,-271,-243
-83,-113,-30,98,-27,-71,-14,-145,-137,-203,-278,-251
-89,-106,-17,98,-36,-62,-9,-146,-133,-196,-274,-250
-97,-118,-21,108,-38,-69,1,-144,-135,-203,-283,-256
-105,-111,-6,108,-49,-59,1,-147,-136,-199,-278,-257
-109,-117,-9,113,-50,-63,9,-141,-125,-198,-276,-261
-112,-110,2,111,-57,-54,1,-150,-139,-208,-278,-268
-110,-105,5,107,-57,-50,9,-138,-117,-186,-267,-265
-113,-111,1,112,-56,-55,1,-152,-146,-221,-288,-277
-109,-88,21,98,-65,-33,10,-131,-113,-173,-258,-269
-109,-117,-9,113,-50,-63,4,-146,-142,-230,-291,-276
-230,-70,160,149,-194,45,88,-183,-251,-279,-398,-390
-227,-157,70,192,-148,-44,337,180,-72,-309,-525,-517
587,408,-180,-497,383,114,-355,506,1196,1142,946,604
1398,842,-555,-1120,976,144,-1378,48,2007,2421,2567,2013
1047,-14,-1061,-516,1054,-537,-1069,-505,543,448,1208,1334
396,-227,-624,-84,510,-425,-380,-340,-225,-563,-16,298
68,-54,-123,-7,96,-88,-121,-148,-5,-137,-85,-41
-58,-132,-73,95,7,-102,20,-136,-112,-268,-288,-272
-82,-78,5,80,-44,-36,60,-61,-26,-152,-237,-272
-111,-114,-4,112,-53,-59,70,-61,-61,-215,-299,-323
-118,-91,27,104,-73,-32,81,-44,-30,-181,-294,-329
-156,-126,30,141,-92,-48,93,-39,-28,-188,-299,-328
-155,-124,30,140,-92,-47,97,-30,-28,-193,-305,-338
-144,-115,29,129,-86,-43,94,-19,-9,-174,-306,-330
-141,-120,21,130,-80,-50,96,-11,-16,-195,-319,-340
-129,-107,23,118,-76,-42,94,1,11,-165,-297,-342
-125,-112,13,118,-69,-49,96,9,14,-172,-303,-344
-118,-102,16,110,-67,-43,103,20,34,-150,-287,-335
-130,-107,23,118,-76,-42,109,34,53,-148,-287,-333
-124,-102,22,113,-73,-40,113,56,88,-132,-275,-327
-113,-99,14,106,-63,-42,116,76,119,-103,-263,-323
-108,-101,7,104,-58,-47,120,109,166,-52,-250,-310
-95,-94,2,94,-48,-46,128,147,222,3,-223,-297
-70,-82,-12,76,-28,-47,126,188,290,68,-185,-276
-38,-70,-31,54,-3,-50,117,240,385,163,-128,-234
0,-53,-53,27,27,-53,111,295,495,265,-56,-188
57,-29,-86,-14,72,-57,102,349,608,367,14,-139
100,-7,-107,-46,104,-57,97,395,712,457,84,-80
135,3,-132,-69,134,-64,83,431,814,547,153,-27
154,7,-146,-80,150,-69,67,436,859,595,214,16
150,14,-136,-82,143,-61,48,402,847,587,240,27
148,19,-128,-83,138,-54,15,319,750,533,214,-2
106,9,-97,-58,101,-43,-1,184,531,398,130,-50
29,-24,-53,-3,42,-38,1,54,311,238,6,-136
-30,-50,-20,40,-5,-34,-2,-43,127,102,-99,-224
-48,-54,-6,51,-20,-30,-5,-98,13,6,-185,-287
-64,-71,-7,68,-28,-39,-5,-122,-41,-42,-235,-328
-82,-80,3,81,-42,-38,-3,-131,-77,-59,-253,-344
-87,-98,-11,92,-38,-54,1,-129,-72,-67,-258,-346
-123,-128,-5,126,-59,-67,3,-133,-83,-78,-266,-357
-154,-123,32,138,-93,-45,6,-135,-105,-84,-285,-374
-149,-113,36,131,-92,-38,9,-135,-105,-85,-287,-377
-141,-107,34,123,-87,-36,11,-135,-105,-85,-294,-379
-134,-98,36,115,-85,-31,14,-135,-106,-85,-301,-383
-130,-95,34,112,-82,-30,15,-135,-104,-84,-307,-389
-130,-95,36,112,-82,-30,15,-135,-112,-91,-308,-395
-130,-95,35,112,-82,-30,15,-135,-114,-94,-304,-394
-130,-95,35,112,-82,-30,16,-134,-106,-87,-306,-395
-130,-95,35,112,-82,-30,12,-130,-100,-83,-305,-395
-127,-92,35,109,-81,-28,10,-130,-93,-76,-305,-395
-124,-89,35,106,-80,-27,10,-128,-87,-72,-305,-393
-126,-91,35,108,-81,-27,6,-124,-81,-66,-299,-388
-124,-89,35,106,-79,-27,5,-126,-75,-62,-292,-385
-127,-91,36,108,-81,-27,5,-121,-70,-57,-286,-381
-121,-87,34,103,-77,-26,12,-115,-64,-53,-279,-377
-113,-68,45,91,-79,-12,19,-110,-58,-48,-272,-374
-112,-43,68,77,-90,12,27,-104,-54,-25,-266,-366
-85,-16,68,50,-76,26,26,-99,-49,-12,-253,-353
-53,7,60,23,-57,34,14,-94,-44,-16,-233,-343
-22,33,55,-6,-38,44,-12,-100,-40,-16,-214,-340
-16,31,48,-8,-32,39,-43,-115,-35,-19,-209,-335
-31,10,42,10,-37,26,-41,-115,-31,-22,-212,-334
-43,-8,36,25,-39,14,-26,-114,-28,-16,-206,-325
-96,-61,36,78,-66,-13,-12,-121,-49,-42,-248,-348
-138,-104,33,121,-85,-35,2,-131,-84,-89,-301,-393
-138,-105,32,121,-85,-36,9,-130,-84,-89,-298,-394
-141,-114,27,128,-84,-43,14,-132,-85,-98,-302,-395
-146,-112,34,129,-90,-38,15,-137,-86,-99,-299,-394
-150,-118,32,133,-90,-43,23,-133,-82,-108,-305,-395
-150,-113,37,131,-93,-38,21,-134,-96,-114,-307,-395
-149,-115,34,132,-91,-41,31,-126,-86,-102,-300,-388
-151,-118,33,134,-92,-42,27,-134,-98,-124,-313,-393
-145,-105,40,124,-92,-32,33,-121,-70,-90,-294,-385
-145,-120,25,132,-85,-47,29,-128,-90,-134,-319,-396
-139,-88,51,113,-95,-18,29,-126,-61,-76,-291,-384
-134,-124,10,129,-72,-57,32,-124,-70,-119,-314,-390
-242,-70,171,156,-206,50,64,-197,-196,-178,-391,-464
-311,-145,166,228,-239,11,366,75,-154,-255,-576,-638
403,272,-131,-337,266,70,-138,600,1014,869,524,198
1380,841,-539,-1110,959,151,-1275,393,2339,2550,2374,1725
1213,76,-1136,-644,1174,-530,-1155,-330,1093,956,1413,1350
504,-300,-805,-102,655,-552,-418,-364,-101,-508,-29,251
88,-89,-177,1,133,-133,-111,-145,77,-95,-111,-105
-117,-166,-49,141,-34,-107,33,-138,-46,-206,-309,-357
-149,-102,47,125,-98,-27,95,-70,13,-115,-288,-388
-166,-130,36,148,-101,-47,108,-72,-9,-139,-336,-420
-171,-117,54,144,-112,-31,116,-60,-7,-136,-346,-429
-165,-115,50,140,-107,-32,119,-53,16,-108,-331,-430
-169,-120,49,144,-109,-35,124,-50,0,-134,-357,-451
-167,-108,60,137,-113,-24,128,-37,31,-96,-333,-434
-175,-125,51,150,-113,-37,133,-33,16,-119,-349,-445
-175,-119,56,147,-115,-32,136,-18,42,-89,-327,-437
-165,-120,44,142,-104,-38,140,-11,43,-98,-333,-441
-156,-110,46,133,-101,-32,142,4,70,-83,-320,-440
-147,-107,40,127,-93,-33,145,17,87,-74,-318,-437
-138,-101,37,119,-87,-31,148,38,115,-52,-311,-428
-129,-96,34,112,-81,-31,151,66,156,-32,-295,-419
-115,-90,25,103,-70,-32,159,98,194,-1,-284,-412
-99,-84,15,91,-57,-34,164,135,252,40,-258,-398
-88,-79,8,83,-48,-35,158,179,319,80,-223,-378
-61,-63,-2,62,-29,-32,153,234,414,152,-176,-347
-29,-45,-16,38,-6,-30,148,293,523,229,-119,-303
14,-33,-47,10,31,-39,141,354,650,319,-45,-248
59,-13,-72,-23,66,-42,137,409,766,400,28,-187
109,30,-79,-69,94,-25,128,452,872,478,99,-129
185,57,-128,-121,156,-35,111,477,951,541,169,-82
188,44,-143,-116,165,-49,95,455,943,543,196,-59
146,35,-111,-91,128,-38,67,367,850,488,175,-61
102,24,-78,-63,89,-26,46,217,642,340,103,-110
28,0,-28,-14,28,-13,43,77,407,172,-7,-198
-44,-28,16,36,-30,-5,39,-26,219,35,-112,-278
-96,-50,46,73,-71,-2,36,-97,85,-75,-191,-338
-115,-64,51,90,-83,-6,31,-126,23,-137,-245,-379
-128,-79,49,104,-88,-15,31,-141,-10,-173,-272,-406
-138,-87,51,112,-94,-18,36,-146,-18,-189,-283,-415
-140,-90,49,115,-94,-20,34,-145,-24,-196,-292,-419
-145,-95,51,120,-97,-22,38,-143,-32,-201,-295,-420
-150,-95,55,122,-102,-20,41,-139,-39,-199,-295,-421
-150,-95,55,122,-102,-20,39,-140,-44,-200,-294,-425
-153,-95,57,123,-104,-19,44,-144,-37,-206,-302,-424
-162,-95,68,128,-114,-13,45,-145,-53,-208,-312,-427
-165,-95,70,130,-117,-12,45,-145,-62,-204,-313,-434
-172,-95,77,133,-124,-9,49,-149,-59,-205,-319,-442
-176,-95,80,135,-127,-7,50,-151,-61,-201,-325,-441
-175,-95,80,135,-127,-7,49,-149,-60,-200,-320,-440
-169,-89,80,129,-124,-5,45,-145,-60,-200,-315,-439
-164,-83,80,124,-122,-1,45,-145,-55,-195,-311,-434
-159,-79,80,119,-119,0,45,-143,-47,-187,-306,-435
-151,-72,78,111,-114,3,45,-139,-42,-181,-302,-433
-138,-68,70,103,-104,1,45,-141,-34,-173,-294,-422
-127,-62,65,94,-95,1,42,-136,-28,-168,-287,-413
-151,-53,98,102,-124,22,39,-130,-22,-158,-281,-402
-153,-42,111,98,-132,34,41,-125,-13,-120,-262,-391
-124,-23,100,73,-112,38,59,-119,-3,-98,-237,-373
-101,-2,99,51,-100,48,41,-114,7,-99,-235,-353
-73,17,90,28,-82,53,10,-108,14,-92,-235,-349
-69,17,87,26,-78,52,-3,-107,19,-91,-235,-350
-84,-3,81,43,-82,39,-18,-97,16,-84,-236,-355
-106,-28,78,67,-92,24,-4,-116,3,-91,-233,-353
-141,-67,74,104,-107,3,16,-142,-23,-131,-271,-367
-169,-98,71,134,-120,-13,18,-139,-52,-162,-320,-396
-177,-111,66,144,-121,-22,30,-135,-58,-173,-342,-402
-175,-109,66,141,-120,-21,32,-134,-53,-168,-338,-397
-183,-112,71,148,-127,-20,43,-129,-58,-175,-341,-406
-184,-115,68,149,-125,-23,45,-132,-53,-175,-343,-404
-187,-114,73,150,-129,-20,42,-139,-57,-175,-356,-404
-182,-116,66,149,-124,-25,53,-129,-50,-174,-366,-404
-176,-101,75,139,-125,-13,41,-144,-49,-164,-360,-392
-173,-106,67,139,-120,-19,63,-124,-54,-179,-381,-406
-166,-84,82,124,-124,-1,33,-148,-43,-152,-358,-378
-165,-96,69,130,-116,-14,72,-122,-63,-184,-401,-410
-149,-68,81,108,-115,7,22,-148,-28,-141,-338,-365
-327,-104,223,216,-275,59,165,-192,-243,-324,-562,-555
-296,-74,221,185,-258,73,330,197,52,-141,-492,-535
