I,II,III,aVR,aVL,aVF,V1,V2,V3,V4,V5,V6
-456,95,551,180,-504,323,459,322,57,-539,-685,-408
-421,52,473,184,-447,262,498,282,20,-504,-648,-406
-353,-60,293,206,-323,116,565,307,90,-390,-547,-383
-256,-165,91,210,-173,-37,585,356,131,-224,-386,-304
-165,-237,-73,201,-45,-155,370,-30,-162,-223,-309,-258
-72,-172,-101,122,15,-136,126,-154,-204,-132,-201,-188
-9,-73,-64,42,28,-69,97,37,-23,39,-70,-111
10,-65,-75,28,42,-70,85,35,1,71,-59,-106
-3,-71,-68,37,33,-69,75,45,5,69,-60,-104
-28,-70,-42,49,7,-55,69,32,-4,66,-59,-103
-23,-70,-47,47,12,-58,59,23,-7,62,-67,-99
14,-70,-84,29,49,-77,69,20,-14,58,-63,-100
19,-70,-88,26,54,-78,64,8,-18,55,-64,-103
9,-72,-81,32,45,-77,48,7,-22,58,-56,-98
21,-69,-90,25,56,-79,51,-5,-45,49,-57,-121
23,-58,-81,18,52,-69,54,-8,-49,43,-82,-139
24,-68,-92,22,59,-80,23,-17,-52,35,-89,-139
18,-90,-108,37,63,-99,15,-20,-59,27,-84,-144
40,-94,-134,27,87,-114,10,-20,-72,22,-85,-145
76,-96,-172,10,124,-134,1,-20,-80,8,-84,-150
69,-113,-182,22,126,-147,-2,-44,-102,-3,-102,-150
90,-127,-216,19,154,-171,-31,-60,-137,-24,-113,-150
78,-155,-233,39,156,-194,-61,-70,-173,-46,-106,-159
116,-151,-267,18,192,-209,-71,-84,-196,-42,-88,-140
169,-135,-304,-17,237,-219,-72,-83,-209,-35,-56,-111
152,-158,-310,4,231,-234,-103,-78,-239,-30,-29,-85
163,-156,-319,-3,241,-237,-131,-72,-243,-25,6,-44
161,-123,-284,-19,222,-203,-128,-68,-233,-18,70,-6
150,-95,-245,-27,197,-169,-139,-61,-229,-7,118,32
144,-70,-214,-37,179,-142,-131,-56,-217,2,125,45
128,-44,-172,-42,150,-108,-102,-52,-197,12,127,31
105,-15,-120,-44,113,-68,-71,-49,-170,9,106,25
69,0,-69,-34,69,-35,-47,-46,-144,-3,55,7
34,13,-22,-23,27,-4,-23,-43,-117,-8,16,-21
22,23,2,-23,10,12,-3,-41,-108,-25,-25,-59
-38,-1,37,19,-38,18,19,-38,-92,-50,-69,-98
-46,22,68,12,-57,45,52,-35,-58,-47,-84,-106
-9,54,63,-23,-36,58,56,-27,-45,-40,-89,-111
-31,34,65,-2,-48,49,54,-26,-39,-36,-101,-124
-46,10,56,18,-51,32,60,-19,-32,-29,-89,-137
-53,19,72,17,-63,45,60,-16,-26,-16,-62,-134
-11,61,72,-25,-41,66,59,-34,-19,23,-50,-121
1,41,39,-22,-19,40,54,-25,-12,44,-42,-116
-26,14,41,6,-34,27,49,-5,-6,36,-33,-111
-4,36,40,-16,-22,38,45,0,1,58,-19,-109
9,47,37,-28,-14,42,40,9,8,77,4,-104
9,45,35,-28,-13,40,36,26,12,69,17,-101
1,36,34,-19,-17,35,38,35,20,66,15,-99
-10,29,39,-10,-25,34,44,25,19,62,12,-104
26,66,40,-46,-7,53,44,19,25,55,8,-116
53,93,40,-73,6,67,40,13,32,61,5,-98
24,64,40,-44,-8,51,38,5,19,64,1,-111
-5,35,40,-15,-23,37,35,10,8,52,-6,-142
1,40,39,-21,-19,39,32,18,-2,43,-13,-139
14,46,32,-30,-10,39,29,13,-11,40,-19,-140
8,36,28,-22,-10,32,34,7,-19,40,-26,-140
13,35,22,-24,-5,28,38,2,-27,41,-29,-140
8,26,17,-17,-5,21,40,-4,-34,39,-24,-138
13,22,9,-18,2,16,41,-10,-25,41,-26,-133
23,52,29,-38,-3,40,50,0,-10,42,-25,-130
-4,77,80,-37,-42,78,90,24,5,53,-22,-127
21,116,95,-69,-38,106,100,29,31,70,-10,-122
59,137,78,-98,-10,107,54,14,32,62,0,-120
56,124,68,-90,-6,96,3,-2,18,55,8,-124
72,127,55,-99,8,91,-16,-18,9,51,6,-125
61,112,51,-87,5,81,-21,-37,-4,40,-2,-124
66,124,58,-95,4,91,-22,-46,-10,51,28,-126
41,82,41,-62,0,61,-4,-35,-22,33,12,-124
-43,12,55,15,-49,33,18,-17,-25,2,-19,-129
5,26,21,-16,-8,24,38,-23,-36,-2,-29,-159
26,14,-12,-20,19,2,40,-39,-60,-18,-55,-175
-22,15,36,3,-29,25,41,-35,-48,-18,-44,-167
-19,-1,18,9,-19,9,38,-26,-43,-21,-37,-160
-19,3,23,8,-21,13,52,-27,-32,-20,-30,-155
1,9,8,-5,-4,9,57,-11,-33,-15,-25,-146
-47,-43,4,45,-25,-19,44,-28,-59,-18,-46,-147
27,-31,-58,3,43,-44,37,-2,-47,-4,-42,-163
128,19,-109,-74,119,-45,17,143,82,124,53,-131
264,87,-177,-176,220,-44,-8,329,338,518,365,26
534,157,-377,-345,455,-110,-69,445,528,918,837,327
164,416,253,-290,-45,334,77,480,822,1363,1344,667
-423,714,1137,-146,-780,925,320,378,850,1212,1459,889
-539,666,1205,-63,-873,935,350,129,329,121,504,528
-575,404,979,85,-777,691,367,169,81,-519,-590,-232
-513,205,719,154,-616,462,397,290,35,-574,-756,-509
-441,112,552,164,-497,332,438,215,-91,-562,-654,-491
-395,10,405,192,-400,208,490,154,-83,-497,-598,-488
-285,-99,185,192,-235,43,563,205,-18,-367,-435,-433
-204,-209,-6,206,-99,-107,451,51,-143,-288,-335,-396
-59,-189,-130,124,36,-159,118,-231,-290,-265,-254,-328
30,-94,-124,32,78,-109,-1,-97,-158,-94,-135,-262
24,-73,-97,24,61,-85,-13,-18,-64,-11,-94,-232
36,-59,-94,12,65,-76,-27,-44,-54,-18,-96,-231
42,-51,-93,5,68,-71,-14,-20,-39,-13,-81,-226
61,-36,-97,-12,79,-66,-24,-66,-66,-16,-75,-221
48,-45,-93,-1,71,-69,-18,-55,-62,-15,-67,-218
85,-12,-97,-36,91,-54,-21,-56,-54,-13,-54,-210
82,-13,-95,-34,88,-54,-30,-48,-66,-19,-57,-202
31,-74,-105,22,69,-89,-47,-44,-64,-44,-42,-183
71,-89,-160,9,116,-125,-45,-42,-72,-36,-55,-214
85,-102,-186,9,135,-144,-41,-34,-91,-24,-70,-225
95,-80,-175,-7,135,-127,-40,-40,-70,1,-29,-183
108,-61,-169,-24,139,-115,-42,-52,-72,1,-48,-197
77,-98,-174,11,126,-136,-68,-68,-102,-36,-78,-220
94,-117,-211,12,152,-164,-79,-75,-128,-57,-89,-222
155,-82,-238,-36,196,-160,-83,-68,-135,-67,-96,-230
123,-133,-256,5,190,-194,-120,-85,-159,-71,-85,-219
151,-153,-304,1,228,-228,-141,-113,-216,-106,-83,-215
209,-131,-340,-39,275,-235,-137,-109,-236,-125,-66,-201
203,-161,-364,-21,284,-263,-152,-110,-243,-115,-25,-154
246,-137,-383,-54,314,-260,-175,-111,-268,-106,18,-129
269,-124,-392,-72,331,-258,-191,-108,-279,-87,58,-102
253,-99,-352,-77,303,-225,-191,-112,-266,-69,114,-57
225,-79,-304,-73,265,-191,-180,-99,-248,-45,151,-35
188,-83,-271,-52,230,-177,-178,-101,-222,-36,144,-32
195,-21,-217,-87,206,-119,-161,-76,-180,-15,135,-11
180,0,-180,-90,180,-90,-140,-61,-169,-37,115,-24
104,-11,-115,-46,110,-63,-130,-81,-170,-62,71,-71
83,16,-67,-49,75,-25,-78,-50,-120,-32,42,-73
66,20,-47,-43,56,-13,-34,-43,-82,-58,30,-97
59,28,-32,-43,45,-2,-21,-31,-74,-59,13,-105
58,34,-24,-46,41,5,-11,-22,-76,-68,-43,-111
16,16,0,-16,8,8,-5,-48,-61,-71,-57,-139
40,26,-14,-33,27,6,10,-37,-20,-28,-18,-127
70,50,-20,-60,45,15,13,-24,-7,-11,-11,-114
40,41,2,-41,19,21,-2,-11,-3,-9,-3,-109
44,23,-21,-34,32,2,-14,4,4,-5,8,-111
46,-16,-62,-15,54,-39,-15,25,16,39,28,-89
50,-12,-63,-19,57,-37,-15,39,41,42,45,-64
69,-7,-75,-31,72,-41,-15,30,40,50,33,-60
86,-6,-92,-40,90,-49,-15,53,40,74,44,-43
117,35,-82,-76,99,-23,-15,67,41,59,71,-4
100,10,-89,-55,94,-39,-11,52,37,58,74,18
92,10,-82,-51,87,-36,-5,48,57,50,79,29
121,27,-94,-74,107,-33,0,43,41,54,77,31
83,-12,-94,-35,89,-53,6,38,34,60,65,25
57,-13,-70,-21,64,-42,12,34,44,49,53,48
88,11,-78,-49,83,-33,14,29,30,41,42,41
84,19,-65,-51,74,-23,7,26,24,29,40,31
93,17,-76,-55,84,-30,-3,25,16,24,40,37
76,-25,-101,-26,89,-62,-1,24,14,28,43,36
47,-42,-89,-2,69,-65,0,20,10,39,46,41
50,-22,-73,-14,62,-47,13,20,11,45,45,41
69,23,-46,-46,58,-12,51,29,36,40,42,41
96,76,-20,-86,58,28,74,52,68,57,63,69
76,62,-14,-68,45,23,62,58,78,79,83,99
95,45,-49,-69,72,-2,29,40,67,73,74,93
148,74,-74,-111,111,0,2,32,60,71,74,96
152,83,-69,-117,110,7,-11,22,54,71,68,95
181,83,-97,-132,139,-7,-40,0,37,59,65,95
189,63,-126,-125,157,-31,-60,-38,9,38,60,99
95,-12,-107,-41,101,-59,-36,-51,-5,8,38,85
30,-33,-63,1,46,-47,-5,-33,8,25,33,70
32,-39,-71,4,51,-55,27,-24,23,43,25,51
35,-65,-100,15,68,-83,51,-17,18,15,3,43
37,-55,-93,9,65,-74,55,-17,22,17,7,45
17,-73,-90,28,53,-81,55,-9,18,13,13,45
9,-73,-82,32,45,-77,54,-10,22,17,13,56
25,-53,-78,14,52,-66,56,-1,18,14,8,66
0,-73,-73,37,37,-73,53,-4,6,16,-16,71
70,-72,-143,1,107,-107,54,18,20,20,-5,69
147,-55,-202,-46,175,-128,37,156,136,153,109,100
315,6,-309,-160,312,-151,-26,320,380,585,483,285
546,139,-407,-342,476,-134,-78,405,562,980,994,635
172,414,242,-293,-35,328,57,427,848,1399,1451,933
-402,703,1105,-151,-754,904,251,300,845,1156,1403,1040
-576,626,1202,-25,-889,914,276,68,339,16,303,588
-529,383,913,73,-721,648,317,128,129,-546,-673,-128
-450,190,640,130,-546,415,380,306,116,-546,-726,-320
-415,24,439,195,-427,232,404,269,-4,-568,-665,-303
-368,-33,335,200,-351,151,455,228,7,-512,-608,-298
-268,-134,134,201,-201,0,518,340,142,-330,-439,-247
-135,-245,-110,191,-13,-177,428,153,-14,-236,-335,-169
-71,-252,-181,162,55,-217,172,-178,-213,-216,-228,-57
17,-139,-156,62,87,-148,62,-71,-87,-44,-99,10
88,-74,-162,-7,125,-117,50,30,-11,65,2,79
49,-141,-190,46,120,-165,27,5,9,81,19,72
35,-142,-177,54,106,-159,31,-9,3,77,-31,51
82,-120,-202,19,142,-160,19,-27,-5,72,-28,65
114,-96,-210,-9,162,-152,18,-15,32,71,-4,90
81,-114,-196,17,139,-155,11,-23,19,65,-33,90
78,-131,-209,27,144,-170,4,-23,-5,60,-60,48
89,-112,-201,12,146,-157,1,-25,-9,54,-50,67
64,-143,-208,40,136,-175,-7,-27,-16,48,-44,75
63,-140,-202,39,133,-171,-9,-47,-25,42,-62,56
89,-118,-206,15,148,-162,-21,-52,-25,62,-68,55
104,-141,-245,19,174,-192,-26,-51,-54,39,-64,41
79,-171,-250,47,165,-210,-23,-57,-52,28,-66,38
73,-165,-239,46,156,-202,-37,-55,-66,49,-64,26
115,-153,-267,19,191,-210,-57,-64,-101,24,-65,21
136,-175,-311,20,224,-243,-83,-68,-110,3,-64,14
177,-186,-363,4,271,-274,-113,-79,-162,-37,-83,-9
197,-150,-347,-23,272,-249,-123,-86,-192,-53,-78,20
202,-136,-339,-33,271,-237,-128,-82,-207,-33,0,74
245,-157,-402,-44,323,-279,-152,-79,-224,-14,57,103
227,-161,-388,-33,307,-274,-154,-76,-228,13,77,116
206,-138,-344,-34,276,-241,-148,-72,-216,16,116,174
175,-128,-303,-23,239,-216,-143,-70,-186,30,160,174
138,-114,-252,-12,195,-183,-143,-68,-189,32,176,171
111,-93,-204,-9,157,-148,-144,-65,-169,13,135,199
107,-54,-161,-26,134,-107,-114,-65,-148,-3,95,125
118,-18,-137,-50,128,-77,-73,-59,-120,-4,97,155
67,-39,-106,-14,87,-73,-52,-54,-85,-34,56,163
21,-37,-57,8,39,-47,-48,-48,-73,-75,9,81
-30,-33,-3,32,-13,-18,-38,-45,-64,-80,-43,80
8,-17,-25,5,16,-21,-24,-33,-47,-61,-98,60
36,-12,-47,-12,42,-29,-16,-51,-42,-52,-65,60
-16,-48,-32,32,8,-40,-9,-86,-54,-88,-88,37
32,-34,-66,1,50,-50,8,-59,-3,-47,-81,21
79,-2,-80,-38,80,-41,-10,-61,2,-25,-19,97
84,14,-70,-49,77,-28,-32,-75,-5,-8,-36,75
55,-13,-68,-20,62,-41,-15,-45,25,32,-15,59
23,-34,-58,6,41,-46,-9,-30,39,40,-7,106
51,-38,-89,-7,71,-63,5,-12,55,73,26,118
53,-66,-119,7,86,-92,25,3,57,78,72,120
64,-27,-91,-19,78,-58,22,7,83,98,61,65
76,-3,-79,-36,78,-41,16,12,77,90,54,80
66,-59,-125,-3,96,-92,13,16,64,95,75,153
86,-63,-149,-11,117,-105,6,21,63,121,96,136
106,-31,-137,-37,122,-84,8,13,47,104,21,125
90,-30,-120,-30,105,-75,25,5,51,92,1,136
40,-42,-82,1,61,-62,24,-3,51,76,35,119
47,-23,-69,-12,58,-46,15,-18,43,66,-1,85
73,3,-70,-38,72,-33,10,-11,43,56,-15,74
112,33,-79,-73,95,-23,1,-29,46,49,15,78
49,-39,-88,-5,69,-64,-3,-53,44,47,36,63
35,-35,-70,0,53,-52,3,-50,45,34,25,66
107,37,-70,-72,88,-16,39,-37,45,44,18,44
53,-2,-55,-25,55,-28,57,3,42,71,10,29
107,50,-58,-78,82,-4,41,19,61,92,59,72
102,57,-45,-79,73,6,25,11,55,86,53,62
67,18,-49,-42,58,-15,-4,-27,7,62,-32,38
86,-29,-115,-28,101,-72,-23,-63,-10,51,5,53
84,-62,-146,-10,115,-104,-43,-74,-22,39,3,54
125,-51,-176,-37,151,-113,-58,-89,-65,16,-59,45
68,-13,-81,-27,75,-47,-43,-69,-65,7,-51,19
49,8,-41,-28,45,-16,7,-47,-51,29,-50,-2
42,-60,-102,9,73,-81,54,-44,-51,30,-44,15
5,-69,-74,33,40,-71,51,-51,-42,25,-46,-1
25,-58,-83,17,54,-70,40,-51,-44,24,-43,10
34,-29,-63,-2,48,-46,39,-57,-23,19,-48,-11
95,26,-69,-60,82,-21,26,-41,6,23,-59,-62
37,-14,-51,-12,44,-32,26,-44,3,26,-24,-11
27,-59,-85,16,57,-72,33,-16,-10,28,-11,-39
144,-23,-167,-60,156,-95,20,120,108,159,88,8
281,46,-236,-163,258,-95,-33,266,377,616,490,246
538,159,-379,-348,459,-110,-127,377,583,1094,1053,589
223,388,165,-306,29,276,-17,359,813,1429,1406,830
-359,682,1040,-162,-700,861,227,220,779,1067,1067,683
-496,686,1182,-95,-839,934,284,31,321,-60,40,265
-522,402,923,60,-723,662,298,39,47,-673,-751,-242
-441,173,614,134,-528,394,333,191,-19,-741,-851,-454
-332,98,431,117,-382,264,379,191,-111,-732,-729,-402
-297,15,312,141,-305,163,431,120,-159,-678,-688,-416
-248,-146,102,197,-175,-22,486,231,17,-445,-513,-356
-193,-231,-37,212,-78,-134,438,147,-29,-254,-325,-258
-45,-237,-193,141,74,-215,167,-195,-263,-248,-253,-176
35,-180,-215,73,126,-198,29,-101,-117,-55,-100,-83
25,-115,-139,45,82,-127,18,9,1,75,-30,-54
52,-100,-152,24,102,-126,-24,-42,-8,65,-33,-65
4,-112,-116,54,61,-114,-8,-36,-3,78,-11,-58
27,-81,-108,27,68,-95,-16,-53,7,86,-15,-48
91,-51,-141,-20,116,-96,-39,-40,19,76,-5,-51
53,-83,-136,15,94,-109,-38,-48,2,56,-7,-49
30,-95,-124,33,77,-109,-35,-44,1,43,-22,-52
38,-81,-119,22,79,-100,-30,-41,-7,66,-26,-55
67,-90,-157,12,112,-123,-28,-40,-36,90,-11,-56
53,-112,-164,30,109,-138,-24,-39,-47,95,-2,-59
65,-58,-123,-3,94,-90,-41,-41,-23,69,-8,-62
96,-91,-188,-2,142,-139,-64,-40,-50,67,-12,-53
77,-145,-223,34,150,-184,-51,-40,-56,91,-20,-49
91,-119,-210,15,151,-165,-83,-52,-42,77,-15,-68
120,-140,-260,10,191,-200,-119,-64,-115,81,-4,-79
156,-123,-279,-16,218,-201,-111,-55,-143,70,-1,-69
153,-147,-300,-2,226,-223,-120,-49,-126,56,-12,-57
144,-179,-322,18,233,-250,-106,-43,-166,53,21,-15
184,-174,-358,-5,271,-266,-130,-36,-185,42,95,34
231,-153,-384,-39,308,-269,-174,-30,-181,33,118,29
245,-123,-367,-61,306,-245,-167,-25,-183,84,164,69
219,-127,-346,-46,283,-236,-181,-18,-169,119,199,106
212,-90,-303,-61,258,-196,-192,-14,-158,100,180,90
165,-63,-228,-50,197,-145,-163,-2,-140,98,178,91
88,-73,-161,-8,125,-117,-140,18,-129,81,159,73
70,-70,-140,0,105,-105,-117,21,-118,48,100,30
35,-59,-94,12,65,-76,-98,10,-105,-5,37,-19
3,-46,-49,22,26,-48,-93,-5,-96,-25,11,-44
8,-18,-25,5,17,-21,-56,-29,-89,-51,-23,-72
0,-2,-2,1,1,-2,-30,-35,-85,-86,-63,-109
-15,-30,-16,23,1,-23,-38,-36,-77,-96,-86,-122
-53,-40,13,47,-33,-13,-24,-55,-78,-95,-84,-127
-45,-39,5,42,-25,-17,-15,-60,-77,-63,-68,-122
20,-27,-48,4,34,-37,-16,-54,-64,-42,-76,-120
16,-43,-59,13,38,-50,-11,-47,-49,-23,-48,-119
46,-47,-93,1,70,-70,-12,-33,-46,-12,-12,-110
71,-27,-98,-22,84,-62,-4,-23,-38,23,-15,-101
13,-78,-91,33,52,-85,8,-16,-26,44,-11,-100
38,-49,-88,6,63,-68,-3,-11,-14,31,-6,-95
55,-17,-72,-19,64,-45,-16,-6,-6,31,-8,-94
32,-35,-67,2,50,-51,-35,1,-6,22,5,-89
89,36,-53,-62,71,-9,-39,4,-8,17,27,-89
81,35,-46,-58,63,-6,-30,-5,-20,17,15,-76
46,12,-34,-28,40,-11,-27,-25,-29,22,-23,-60
74,49,-26,-61,50,11,-19,-32,-29,27,-48,-93
47,27,-21,-37,34,3,-15,-28,-37,31,-42,-88
23,9,-14,-16,18,-2,-11,-23,-38,36,-25,-73
26,14,-12,-20,19,1,-6,-18,-42,35,-23,-92
-1,-1,0,1,-1,-1,-4,-15,-51,29,-16,-83
39,35,-3,-37,21,16,1,-8,-41,37,-18,-78
35,72,36,-54,-1,54,3,-14,-47,68,-6,-71
-32,64,96,-16,-64,80,14,4,-37,79,25,-63
12,112,100,-62,-44,106,46,35,-8,75,49,-76
27,114,87,-71,-31,100,54,25,-18,69,63,-81
-14,82,96,-34,-55,89,33,14,-26,64,60,-80
-26,89,115,-32,-71,102,-14,-15,-51,59,61,-79
-14,70,84,-28,-49,77,-36,-57,-75,46,54,-82
27,95,68,-62,-20,81,-40,-70,-86,31,59,-76
61,112,51,-87,5,81,-77,-64,-115,21,37,-89
37,111,74,-74,-19,93,-55,-54,-114,9,21,-123
-38,90,128,-26,-83,109,-19,-48,-101,1,37,-118
-63,47,110,7,-87,79,-16,-38,-93,-16,17,-115
-50,64,115,-7,-83,89,-5,-34,-84,-15,22,-114
-43,60,103,-9,-73,81,3,-27,-85,-12,29,-108
-53,52,105,1,-79,78,10,-32,-84,-12,20,-116
-53,47,99,3,-76,73,19,-22,-78,-2,31,-113
-72,39,110,16,-91,74,22,-27,-82,-11,18,-119
-37,30,67,3,-53,49,19,-9,-77,17,34,-94
49,35,-14,-42,31,10,17,115,37,132,130,-45
172,122,-50,-147,111,36,-26,279,304,548,478,104
472,196,-276,-334,374,-40,-119,407,514,1029,1016,435
246,384,138,-315,53,261,-38,405,730,1391,1440,707
-392,691,1083,-150,-738,887,199,298,769,1186,1302,731
-630,712,1341,-42,-986,1026,269,78,299,44,253,336
-637,488,1125,74,-882,806,284,50,-18,-678,-699,-257
-540,274,814,133,-678,544,322,217,-50,-718,-829,-501
-455,163,618,145,-537,391,373,232,-134,-710,-698,-497
-424,84,507,170,-466,295,414,161,-160,-638,-619,-484
-354,-67,287,210,-321,110,458,232,-56,-459,-467,-427
-233,-144,89,188,-160,-27,423,143,-115,-304,-295,-353
-144,-137,6,140,-75,-65,145,-197,-327,-281,-212,-282
-82,-80,2,81,-42,-39,6,-136,-215,-116,-65,-189
-8,-16,-8,12,0,-11,-12,-29,-81,3,41,-132
3,4,1,-4,1,2,-52,-59,-87,4,42,-131
3,34,31,-19,-14,32,-36,-25,-74,15,47,-119
2,41,39,-22,-19,40,-36,-49,-82,7,44,-112
3,38,35,-21,-16,36,-33,-35,-72,8,45,-110
16,42,26,-29,-5,34,-61,-42,-76,4,45,-110
16,37,21,-27,-2,28,-67,-40,-80,5,41,-111
49,43,-6,-46,27,19,-61,-38,-87,-1,35,-109
70,34,-37,-52,53,-1,-83,-59,-116,-8,30,-127
62,34,-27,-48,44,3,-79,-54,-126,-15,24,-124
65,27,-38,-46,52,-6,-77,-52,-125,-20,19,-117
73,-6,-79,-33,76,-42,-64,-39,-125,-31,13,-106
95,-14,-109,-40,102,-61,-68,-42,-136,-14,20,-107
37,-71,-108,17,73,-89,-111,-88,-163,-11,32,-149
24,-95,-120,36,72,-107,-131,-99,-176,-54,27,-149
65,-75,-140,5,103,-108,-148,-92,-192,-67,25,-135
83,-82,-166,0,125,-124,-156,-98,-220,-77,20,-131
136,-69,-205,-34,171,-137,-154,-93,-241,-80,25,-115
152,-74,-227,-39,190,-151,-177,-98,-262,-79,46,-108
180,-84,-265,-48,223,-174,-203,-106,-283,-91,80,-77
166,-83,-249,-42,208,-166,-200,-97,-276,-71,135,-20
154,-42,-196,-56,175,-119,-192,-84,-260,-46,192,16
187,11,-176,-99,181,-82,-186,-75,-247,-38,221,50
183,35,-149,-109,166,-57,-179,-65,-235,-40,219,56
142,55,-87,-98,115,-16,-173,-65,-223,-46,202,44
71,41,-30,-56,50,6,-141,-65,-185,-42,166,28
63,79,15,-71,24,47,-110,-60,-154,-51,124,-9
38,92,54,-65,-8,72,-96,-60,-146,-68,73,-29
0,59,59,-29,-30,59,-77,-60,-134,-91,22,-61
13,93,81,-53,-34,87,-65,-60,-123,-100,3,-78
-26,78,104,-26,-65,91,-59,-60,-111,-89,-4,-85
-27,73,100,-23,-64,86,-53,-60,-98,-85,-17,-111
-7,88,96,-41,-52,92,-50,-60,-83,-77,-15,-111
-18,77,95,-29,-57,85,-45,-60,-70,-72,-5,-104
-10,77,88,-34,-49,82,-43,-56,-62,-59,6,-98
-17,72,88,-28,-53,80,-38,-51,-56,-37,36,-90
-7,70,77,-32,-42,73,-35,-47,-49,-17,60,-84
16,64,48,-40,-16,56,-43,-44,-43,-1,66,-78
15,75,61,-45,-23,68,-46,-28,-38,1,69,-73
27,87,61,-57,-17,74,-41,-15,-32,4,64,-67
44,85,41,-65,1,63,-39,-12,-27,7,59,-62
42,77,35,-60,3,56,-36,-6,-21,10,55,-56
17,61,44,-40,-14,53,-35,-3,-15,10,50,-51
-17,50,67,-17,-43,59,-35,3,-25,0,46,-46
12,76,64,-44,-27,70,-35,4,-32,-9,41,-45
32,97,65,-65,-17,81,-35,-9,-26,-17,40,-43
18,84,66,-51,-24,75,-35,-25,-26,-28,40,-38
12,75,63,-44,-25,68,-35,-26,-20,-26,40,-44
17,88,71,-53,-27,79,-33,-17,-21,-20,40,-51
35,105,70,-70,-18,87,-17,-9,-15,-14,40,-50
-4,101,104,-49,-54,102,-5,-1,-10,-10,48,-49
-9,131,140,-62,-75,135,20,6,-1,-2,53,-45
0,146,146,-74,-73,146,28,19,22,23,60,-45
17,160,143,-89,-63,151,-35,-8,16,22,68,-48
78,189,112,-134,-17,150,-77,-43,-5,8,63,-50
63,156,93,-110,-15,124,-80,-52,-18,2,56,-50
48,127,79,-88,-15,103,-97,-71,-35,-13,49,-52
51,122,71,-87,-10,97,-103,-73,-63,-22,43,-57
45,103,58,-74,-6,80,-64,-64,-72,-37,33,-52
25,83,57,-54,-16,70,-37,-71,-69,-46,16,-75
-2,66,68,-32,-35,67,-40,-69,-70,-45,1,-106
4,54,50,-29,-23,52,-34,-71,-72,-57,-10,-103
-9,44,54,-18,-32,49,-33,-70,-85,-60,-16,-101
-13,43,56,-15,-35,49,-30,-70,-80,-61,-22,-98
-4,41,45,-18,-25,43,-27,-68,-72,-58,-17,-117
-20,36,56,-9,-38,46,-26,-47,-64,-62,-23,-113
14,40,26,-27,-6,33,-23,-48,-67,-59,-14,-109
82,25,-57,-53,69,-16,-28,27,-27,-15,27,-99
153,91,-61,-122,107,15,-20,224,216,283,235,26
432,152,-280,-292,355,-64,-84,384,448,720,673,256
472,268,-204,-370,338,32,-100,430,641,1105,1147,551
-102,599,702,-249,-402,650,133,408,871,1327,1474,811
-530,753,1283,-111,-907,1018,275,181,562,572,941,734
-611,570,1181,21,-896,875,278,45,109,-439,-285,103
-584,320,904,132,-744,612,308,195,42,-665,-831,-400
-518,180,698,169,-608,439,353,243,-39,-640,-717,-425
-452,127,579,162,-515,353,416,172,-118,-617,-644,-425
-325,25,350,150,-338,188,462,152,-74,-508,-536,-399
-273,-102,171,187,-221,34,496,172,-57,-352,-368,-323
-179,-173,6,176,-92,-83,243,-124,-243,-323,-294,-280
-63,-137,-74,100,6,-105,-15,-214,-241,-205,-173,-199
-31,-4,27,17,-29,11,-21,-12,-62,-26,-34,-105
14,36,22,-26,-4,29,-40,-31,-36,1,-5,-83
-15,2,17,6,-16,10,-33,-5,-8,13,-7,-86
-54,-37,17,46,-35,-10,-61,-30,-43,3,-20,-84
-38,-35,3,37,-20,-16,-74,-46,-60,0,-20,-86
-33,-3,29,18,-30,13,-60,-27,-41,5,-21,-84
-14,-2,12,8,-13,4,-66,-39,-49,4,-27,-86
-15,-8,7,11,-11,0,-53,-21,-34,7,-22,-89
-23,-32,-9,28,-7,-20,-59,-31,-39,3,-22,-91
8,-20,-28,6,18,-23,-65,-40,-51,8,-18,-88
32,-30,-62,-1,47,-45,-86,-51,-68,-2,-32,-97
40,-49,-89,5,65,-69,-103,-58,-84,-15,-51,-111
45,-44,-89,0,68,-66,-102,-63,-84,-15,-51,-110
33,-47,-79,7,56,-63,-92,-71,-91,-10,-55,-110
14,-73,-86,29,50,-79,-95,-78,-106,-11,-53,-110
57,-85,-142,14,100,-113,-137,-87,-135,-38,-48,-111
133,-58,-191,-38,163,-124,-161,-98,-171,-51,-51,-106
120,-92,-212,-14,166,-151,-165,-102,-189,-62,-48,-89
125,-105,-230,-9,178,-167,-178,-96,-207,-66,-30,-66
146,-112,-258,-17,203,-184,-196,-91,-230,-52,27,-32
149,-115,-263,-17,206,-189,-206,-85,-230,-49,81,10
174,-86,-259,-44,217,-172,-196,-80,-225,-22,125,50
158,-61,-219,-49,189,-139,-213,-73,-224,-15,172,89
159,-16,-175,-71,167,-95,-211,-65,-190,-27,170,114
105,-34,-139,-35,123,-86,-168,-60,-157,-23,160,106
56,-12,-68,-21,62,-40,-139,-52,-139,-17,141,93
53,22,-30,-37,41,-4,-121,-47,-128,-28,101,61
2,25,23,-14,-11,24,-101,-37,-104,-37,74,27
-22,42,64,-10,-43,53,-69,-35,-69,-34,22,23
-60,5,65,27,-63,35,-54,-23,-54,-57,-12,10
-50,40,90,5,-71,65,-46,-26,-46,-60,8,11
-29,48,77,-10,-53,62,-34,-66,-35,-54,5,8
-58,15,73,21,-66,44,-34,-69,-26,-46,-22,-19
-75,-4,71,40,-74,33,-35,-61,-25,-29,-37,-31
-78,-31,47,54,-62,8,-36,-60,-22,-18,-30,-47
-31,20,51,5,-41,35,-34,-46,-4,-7,-14,-50
-61,-6,54,33,-57,24,-40,-35,24,2,20,-44
-37,20,57,8,-48,38,-49,-26,44,34,52,-42
5,65,60,-35,-28,62,-40,-17,46,57,57,-37
-52,3,56,24,-54,29,-34,-8,50,53,76,-34
-26,28,54,-2,-40,41,-32,15,49,58,88,-31
-6,51,57,-23,-32,54,-37,49,45,60,89,-29
-5,46,51,-21,-28,48,-48,57,44,63,93,-31
-10,51,62,-21,-36,57,-35,54,42,67,95,-29
1,37,37,-19,-19,37,-19,56,37,68,98,-32
26,65,38,-46,-6,51,8,54,53,72,101,-24
-28,86,115,-29,-72,100,28,55,73,58,94,1
-37,84,121,-23,-80,102,-11,44,65,56,87,22
-12,106,118,-47,-65,111,-60,26,61,81,113,44
-48,69,117,-11,-82,93,-75,13,58,80,117,48
-57,56,113,0,-85,84,-68,7,52,66,106,38
-26,90,116,-32,-72,103,-64,4,49,60,101,33
-47,65,113,-9,-80,89,-51,0,44,53,92,24
-83,36,119,23,-101,77,-6,5,41,48,87,18
-114,-12,101,62,-108,44,31,7,36,44,79,10
-185,-71,113,128,-149,21,35,11,35,46,74,2
-181,-43,138,112,-159,47,38,14,35,44,68,-9
-139,-12,128,75,-133,58,42,22,36,46,63,-28
-148,-43,105,96,-127,31,43,35,34,44,57,-20
-175,-39,136,107,-155,48,47,21,40,45,60,-17
-179,-19,161,99,-169,71,35,31,47,36,64,-13
-147,-7,140,77,-143,66,31,8,21,15,45,-6
-99,-31,68,65,-84,19,16,59,43,40,73,-7
-35,-18,17,26,-25,0,17,239,222,240,229,69
185,39,-146,-112,165,-53,-22,393,438,618,567,230
360,159,-201,-259,281,-21,-78,495,633,1018,1055,540
-73,460,533,-194,-303,496,121,529,918,1389,1526,888
-621,671,1291,-25,-957,981,295,356,808,983,1325,971
-699,580,1279,59,-989,929,302,147,321,-60,182,468
-676,322,998,177,-837,659,357,246,151,-510,-667,-187
-651,130,781,261,-716,455,385,342,121,-537,-677,-343
-600,51,651,274,-626,351,428,281,28,-548,-575,-327
-529,-52,477,290,-503,212,487,251,43,-454,-476,-297
-354,-151,204,252,-279,27,541,309,80,-290,-323,-255
-286,-217,69,251,-177,-74,374,65,-94,-232,-222,-203
-236,-232,4,234,-120,-114,78,-179,-201,-187,-108,-99
-111,-143,-32,127,-39,-87,-3,-4,-40,-17,17,-47
-87,-95,-8,91,-39,-51,-22,40,48,58,71,-14
-95,-99,-4,97,-45,-51,-16,25,46,60,59,-7
-87,-69,18,77,-52,-25,2,24,37,51,48,-2
-121,-100,20,110,-70,-40,-4,1,25,41,49,-13
-126,-113,13,119,-69,-50,-20,7,23,37,53,-18
-100,-92,8,96,-54,-42,-38,-18,11,27,57,-11
-97,-94,3,96,-50,-45,-36,-23,7,21,58,-7
-91,-99,-8,95,-41,-53,-45,-27,-2,14,46,-9
-87,-122,-35,105,-26,-79,-44,-24,-7,8,36,-27
-43,-126,-83,85,21,-104,-47,-30,-10,4,41,-15
-47,-149,-102,99,28,-125,-50,-41,-17,-2,39,-11
-33,-151,-117,92,42,-134,-50,-39,-17,-4,38,1
3,-147,-150,72,77,-148,-64,-43,-41,-10,23,2
17,-146,-163,64,91,-154,-64,-48,-59,-14,17,-19
37,-139,-176,51,107,-157,-79,-64,-82,-23,-2,-31
13,-177,-190,82,101,-183,-132,-106,-147,-69,-44,-62
68,-172,-241,52,155,-206,-157,-125,-177,-87,-23,-45
70,-173,-242,52,156,-207,-160,-121,-182,-76,21,-6
82,-183,-265,50,174,-223,-176,-130,-201,-74,82,31
132,-166,-298,17,215,-231,-199,-128,-226,-71,99,58
82,-158,-241,38,162,-199,-193,-126,-229,-60,159,124
85,-150,-236,33,161,-193,-176,-117,-225,-56,214,146
100,-90,-190,-5,145,-140,-194,-111,-184,-35,248,170
49,-88,-137,19,93,-112,-149,-101,-140,-7,229,210
23,-67,-90,22,57,-79,-119,-60,-107,19,206,212
18,-37,-54,10,36,-45,-123,-42,-61,72,283,234
-5,-50,-45,28,20,-47,-108,-7,6,268,537,331
113,60,-53,-86,83,4,-134,13,44,345,926,615
209,-186,-395,-11,302,-290,-7,267,109,-43,-102,-25
190,-558,-748,184,469,-652,170,601,212,-419,-1410,-991
293,-733,-1025,220,659,-879,175,385,-179,-891,-1505,-1061
290,-902,-1192,306,741,-1047,146,186,-533,-1258,-1489,-1054
172,-974,-1146,401,659,-1060,246,267,-566,-1273,-1420,-1064
76,-968,-1044,446,560,-1006,335,312,-592,-1196,-1268,-959
-123,-796,-673,460,275,-735,380,454,-334,-825,-919,-731
-315,-577,-262,446,-26,-419,449,388,-225,-536,-583,-468
-455,-320,135,387,-295,-92,419,82,-213,-294,-290,-205
-376,-108,268,242,-322,80,286,-215,-171,-108,-44,7
-184,36,221,74,-203,128,73,-203,-16,90,119,133
-168,140,308,14,-238,224,-12,10,233,311,295,268
-146,167,314,-11,-230,240,-15,6,232,299,290,271
-118,176,294,-29,-206,235,-57,-11,243,330,314,282
-142,150,292,-4,-217,221,-43,-9,263,339,328,320
-138,178,316,-20,-227,247,-36,-37,246,349,324,301
-152,206,358,-27,-256,282,-24,-20,268,386,358,323
-132,273,405,-70,-269,339,-16,-4,316,429,418,395
-94,338,432,-122,-264,385,-8,-4,350,484,483,434
-135,320,455,-93,-295,387,-17,4,367,510,529,479
-111,369,480,-129,-296,424,-95,-18,399,562,581,521
-108,425,533,-158,-321,479,-139,-65,409,614,657,578
-142,442,583,-150,-363,512,-168,-94,406,669,763,678
-69,501,570,-216,-320,535,-216,-112,429,717,839,733
-56,543,599,-244,-327,570,-217,-120,457,749,888,772
-123,572,695,-225,-409,633,-178,-102,478,804,950,821
-138,579,717,-220,-428,648,-145,-73,511,838,985,834
-141,560,701,-210,-422,631,-143,-67,523,838,987,823
-121,561,682,-220,-402,621,-137,-29,546,862,974,808
-119,523,642,-202,-381,582,-133,20,568,858,912,785
-148,489,637,-171,-393,563,-126,66,573,819,845,741
-97,452,549,-178,-323,500,-98,127,569,762,760,665
-68,396,464,-164,-266,430,-51,160,560,704,659,588
-67,332,399,-133,-233,365,-26,208,544,647,558,517
-62,227,289,-83,-175,257,-25,249,503,556,470,451
-43,182,225,-70,-134,203,-10,257,452,483,413,404
-3,137,140,-67,-72,138,15,262,407,408,345,346
-11,69,80,-29,-45,74,36,245,352,327,245,280
-20,32,52,-6,-36,42,24,235,300,269,179,259
-35,-16,19,25,-27,1,43,209,258,238,186,243
-28,-57,-29,43,1,-43,65,176,206,204,128,190
-15,-79,-64,47,25,-71,47,179,195,153,69,164
-35,-70,-35,53,0,-52,38,163,192,128,74,155
-14,-69,-56,42,21,-62,32,137,152,108,22,140
12,-65,-77,27,45,-70,35,132,124,93,24,135
14,-88,-102,38,58,-95,46,107,113,71,13,113
-14,-118,-104,66,45,-110,50,82,104,51,-72,97
-40,-102,-63,71,12,-82,50,76,98,49,-77,105
-25,-114,-89,70,32,-101,50,66,67,40,-64,101
-30,-129,-98,80,34,-113,51,52,54,24,-61,89
-34,-127,-93,81,29,-110,49,38,66,9,-55,77
13,-83,-97,35,55,-89,44,29,61,0,-51,69
7,-106,-113,50,60,-109,36,21,46,-13,-60,63
-54,-170,-117,112,32,-143,29,7,14,-23,-82,58
-51,-156,-105,104,27,-131,22,-7,2,-29,-89,52
-63,-161,-98,112,17,-129,12,-18,0,-42,-100,49
-73,-164,-91,119,9,-127,21,-28,-7,-47,-100,72
-55,-164,-110,110,28,-137,27,-35,-9,-44,-100,77
-34,-171,-137,103,51,-153,14,-35,-15,-39,-100,64
-23,-170,-147,97,62,-158,5,-35,-19,-44,-101,55
-69,-176,-107,123,20,-142,-4,-46,-31,-65,-117,49
-69,-173,-104,121,18,-138,-6,-58,-37,-75,-131,51
-25,-150,-125,87,50,-137,-9,-60,-35,-75,-135,49
-28,-135,-107,82,40,-120,-11,-60,-35,-75,-135,51
-38,-134,-95,86,29,-114,-9,-64,-35,-73,-135,48
-47,-138,-90,93,22,-114,-11,-65,-35,-69,-135,57
-40,-124,-84,83,22,-104,-9,-65,-35,-71,-135,65
-19,-113,-95,66,39,-104,-15,-65,-38,-72,-138,50
-28,-117,-89,73,30,-102,-14,-65,-42,-80,-141,37
-21,-102,-81,62,30,-92,-18,-64,-47,-92,-139,29
-48,-151,-104,100,28,-127,-34,-73,-53,-86,-140,22
-99,-176,-77,138,-11,-127,-35,-82,-56,-89,-139,15
-77,-151,-74,115,-1,-113,-27,-79,-53,-73,-141,8
-63,-155,-92,110,15,-123,-25,-79,-60,-73,-154,-1
-72,-147,-75,110,2,-111,-20,-73,-71,-93,-155,13
-70,-141,-71,106,1,-106,-15,-76,-70,-89,-155,26
-72,-136,-63,104,-4,-99,-34,-83,-70,-90,-155,18
-73,-125,-53,99,-10,-89,-41,-79,-70,-90,-154,15
-68,-117,-49,93,-9,-83,-33,-98,-70,-109,-174,10
-83,-111,-28,97,-27,-69,-33,-106,-71,-117,-179,5
-46,-88,-42,67,-1,-65,-26,-95,-69,-107,-167,2
-23,-97,-74,60,26,-85,-25,-95,-71,-109,-164,-1
-61,-114,-54,88,-3,-84,-24,-87,-69,-100,-154,-4
-50,-99,-49,75,0,-74,-26,-85,-71,-101,-151,-6
-27,-79,-52,54,13,-65,-24,-92,-68,-94,-157,-5
-44,-77,-34,61,-5,-55,-25,-91,-67,-96,-164,6
-68,-96,-28,82,-20,-62,-42,-90,-87,-117,-178,8
-18,-81,-63,50,23,-72,-41,-88,-86,-113,-175,-2
1,-79,-80,40,40,-79,-31,-86,-76,-104,-168,-7
-5,-77,-72,42,34,-75,-28,-83,-73,-94,-159,-16
11,-66,-77,28,44,-71,-16,-94,-62,-97,-162,-23
-3,-70,-67,37,32,-68,-21,-106,-64,-109,-173,-21
-15,-73,-58,44,22,-66,-39,-97,-70,-101,-164,-15
-47,-93,-46,70,0,-69,-33,-93,-62,-93,-155,-9
-42,-92,-50,67,4,-71,-22,-86,-56,-91,-147,-5
-10,-72,-62,41,26,-67,-14,-80,-49,-88,-144,3
-32,-60,-28,47,-2,-44,9,-85,-43,-86,-139,2
-67,-47,20,57,-43,-13,27,-86,-40,-67,-130,-7
-68,-32,36,50,-52,2,14,-91,-39,-44,-125,3
-59,-14,45,36,-52,15,-27,-92,-35,-45,-117,19
17,26,9,-22,4,17,-75,-96,-34,-43,-115,23
66,19,-47,-43,56,-14,-83,-92,-56,-26,-115,16
78,18,-60,-48,69,-21,-78,-83,-60,-27,-119,38
99,30,-68,-64,83,-19,-82,-118,-76,-72,-125,42
-6,-60,-54,33,24,-57,-57,-117,-97,-93,-127,12
-50,-102,-52,76,2,-77,-29,-85,-86,-88,-136,-18
-24,-86,-62,55,19,-74,-22,-80,-83,-102,-140,-52
-40,-91,-52,66,6,-71,-20,-78,-77,-107,-141,-56
-30,-81,-51,55,11,-66,-13,-82,-70,-99,-139,-50
-34,-82,-48,58,7,-64,-10,-77,-74,-101,-158,-50
-36,-76,-40,56,3,-58,-6,-84,-75,-94,-161,-45
-5,-66,-62,35,29,-64,1,-76,-76,-94,-158,-46
-34,-82,-48,58,7,-65,-11,-76,-83,-94,-164,-47
-28,-137,-109,83,41,-123,-26,-33,-68,-73,-124,-42
72,-94,-166,11,119,-129,-25,118,81,94,-10,4
316,20,-296,-167,306,-138,-71,262,308,503,377,203
543,79,-464,-311,503,-193,-161,351,455,853,849,506
111,374,263,-243,-76,318,19,413,731,1231,1330,836
-503,638,1141,-68,-822,890,265,283,710,925,1216,936
-630,524,1154,53,-892,839,272,52,228,-173,-24,387
-621,287,908,166,-764,597,312,130,62,-614,-848,-247
-551,100,650,225,-601,375,355,280,24,-623,-833,-412
-446,12,458,217,-452,234,369,215,-107,-675,-821,-428
-428,-107,321,267,-374,107,427,172,-66,-588,-739,-398
-321,-199,123,259,-222,-38,495,257,-5,-428,-560,-323
-216,-267,-51,241,-82,-159,332,-11,-187,-364,-449,-271
-133,-270,-137,202,2,-204,54,-257,-298,-316,-357,-205
-4,-148,-143,76,70,-145,-1,-76,-117,-127,-220,-118
7,-127,-134,61,71,-130,-15,-53,-50,-73,-167,-89
-8,-139,-131,74,62,-135,-33,-53,-66,-80,-176,-99
-6,-131,-125,69,60,-128,-33,-28,-49,-65,-170,-89
-11,-138,-127,75,59,-132,-31,-61,-57,-71,-166,-92
-1,-132,-131,66,65,-131,-26,-55,-45,-56,-163,-87
-2,-131,-129,66,63,-130,-23,-55,-56,-66,-155,-91
2,-129,-132,64,67,-131,-21,-51,-77,-77,-162,-109
-7,-134,-126,71,60,-130,-44,-69,-68,-87,-184,-111
0,-141,-141,71,70,-140,-24,-82,-86,-104,-187,-108
18,-139,-157,61,87,-148,-28,-96,-102,-108,-177,-113
9,-141,-150,66,79,-145,-75,-96,-91,-108,-189,-129
25,-141,-166,58,95,-153,-74,-89,-120,-117,-227,-131
43,-137,-180,48,112,-158,-66,-91,-132,-136,-239,-128
16,-152,-168,68,92,-159,-87,-102,-139,-155,-246,-122
28,-155,-184,64,106,-169,-107,-125,-175,-183,-274,-133
59,-171,-230,56,145,-200,-105,-148,-209,-223,-293,-150
59,-180,-238,61,149,-209,-104,-156,-234,-258,-288,-143
60,-189,-249,65,155,-219,-121,-164,-259,-269,-279,-133
71,-203,-275,66,173,-239,-137,-169,-286,-291,-276,-105
96,-177,-273,41,185,-225,-139,-172,-293,-305,-262,-76
135,-176,-311,21,223,-243,-152,-176,-317,-294,-227,-52
146,-166,-312,10,229,-239,-179,-168,-335,-292,-185,-34
166,-125,-291,-21,229,-208,-176,-160,-296,-266,-144,-7
146,-125,-271,-10,209,-198,-168,-152,-271,-231,-94,21
74,-117,-191,22,132,-154,-164,-145,-262,-219,-73,28
74,-76,-150,2,112,-113,-130,-136,-230,-207,-63,37
59,-59,-118,0,89,-89,-97,-118,-208,-198,-67,28
66,-30,-96,-18,81,-63,-80,-97,-185,-185,-92,15
81,-2,-83,-39,82,-42,-67,-82,-138,-158,-101,5
42,-24,-66,-9,54,-45,-55,-76,-106,-143,-122,-8
10,-52,-61,21,36,-56,-45,-71,-88,-132,-128,-19
9,-48,-57,20,33,-52,-40,-65,-67,-124,-113,-41
40,-51,-91,6,65,-71,-35,-54,-42,-104,-107,-50
52,-50,-102,-1,77,-76,-29,-30,-15,-49,-85,-34
51,-49,-100,-1,76,-74,-24,-7,12,-3,-53,-23
54,-52,-105,0,79,-78,-19,12,39,30,-22,-3
99,-7,-106,-45,103,-57,-21,31,51,58,6,16
89,-35,-124,-26,106,-79,-19,37,63,73,29,10
37,-78,-115,20,77,-96,-21,33,72,76,35,3
45,-60,-105,8,75,-82,-19,41,76,75,35,-9
28,-65,-93,19,61,-79,-22,61,81,81,35,5
-4,-51,-47,28,22,-49,-9,75,85,86,31,41
0,-15,-15,8,8,-15,19,75,85,85,29,28
31,33,1,-32,15,17,23,79,85,85,20,22
27,47,20,-37,3,33,53,101,102,84,37,31
43,47,3,-45,20,25,63,112,105,85,50,46
32,64,32,-48,0,48,25,84,89,85,40,65
-19,53,72,-17,-46,62,-30,35,78,74,35,61
0,47,48,-23,-25,47,-62,4,63,56,27,61
38,43,4,-40,16,23,-45,-8,51,43,22,57
90,51,-40,-70,65,6,-39,-23,40,33,17,56
29,11,-18,-20,23,-3,-23,-28,34,22,29,52
-32,-35,-2,34,-15,-18,14,-19,27,13,8,35
-33,-46,-13,40,-10,-30,32,0,19,-22,-42,-1
-71,-100,-29,86,-21,-64,35,-10,6,-62,-77,-45
-36,-50,-14,43,-11,-32,35,-19,-3,-59,-94,-52
-10,-19,-9,15,-1,-14,35,-5,11,-56,-82,-41
5,-48,-52,22,29,-50,34,-33,-3,-56,-85,-44
-14,-55,-41,35,14,-48,36,-37,-34,-48,-78,-27
-57,-70,-13,64,-22,-41,29,-21,-26,-53,-76,-12
-44,-75,-31,60,-6,-53,24,-38,-14,-33,-81,-44
29,-91,-120,31,75,-105,14,63,40,19,-12,-1
151,-32,-183,-60,167,-107,9,269,261,315,231,128
453,36,-417,-244,434,-190,-61,389,449,695,613,328
432,222,-210,-327,321,6,-46,492,690,1108,1098,636
-219,547,766,-164,-493,656,207,494,961,1390,1508,962
-552,659,1210,-54,-881,935,325,277,634,620,935,868
-576,482,1058,47,-817,770,350,178,210,-330,-317,162
-621,216,836,202,-729,526,379,256,127,-568,-849,-340
-510,71,581,219,-546,325,383,327,48,-562,-718,-367
-447,-26,421,236,-433,197,455,258,-7,-513,-617,-342
-363,-127,236,245,-299,54,512,274,69,-411,-531,-300
-219,-189,30,204,-124,-79,515,266,43,-284,-386,-252
-142,-261,-119,202,-11,-190,251,-136,-200,-296,-326,-204
-61,-219,-159,140,49,-189,27,-191,-185,-194,-203,-119
-21,-136,-115,79,48,-125,7,-31,-47,-38,-85,-56
-7,-116,-108,62,51,-112,-17,-76,-38,-26,-94,-45
34,-93,-127,30,81,-110,-9,-51,-27,-35,-88,-40
5,-118,-124,57,65,-121,-47,-64,-35,-41,-86,-32
-45,-137,-91,91,24,-114,-58,-59,-29,-32,-85,-26
-34,-136,-102,86,34,-119,-52,-58,-29,-32,-83,-21
30,-141,-172,56,101,-156,-58,-63,-32,-26,-80,-24
28,-142,-170,57,99,-156,-53,-56,-27,-26,-79,-37
2,-147,-149,73,76,-148,-56,-64,-34,-31,-96,-57
42,-139,-181,49,112,-160,-59,-67,-37,-29,-101,-62
62,-141,-203,40,133,-172,-63,-74,-39,-32,-100,-59
102,-131,-233,14,168,-181,-70,-66,-57,-29,-100,-61
85,-160,-245,38,165,-203,-89,-72,-60,-32,-101,-60
36,-218,-254,91,145,-236,-110,-87,-84,-44,-97,-59
79,-219,-298,71,188,-258,-114,-112,-135,-74,-106,-82
106,-211,-317,53,212,-264,-110,-131,-163,-102,-132,-90
111,-221,-332,55,222,-276,-144,-139,-178,-107,-114,-76
148,-229,-377,41,262,-303,-167,-150,-200,-113,-84,-68
195,-215,-410,10,303,-313,-184,-150,-215,-109,-70,-46
203,-197,-400,-2,301,-298,-191,-150,-229,-101,-36,-7
181,-191,-372,5,277,-281,-186,-150,-246,-97,10,74
207,-181,-389,-13,298,-285,-220,-150,-242,-89,49,89
213,-148,-361,-33,287,-254,-217,-148,-236,-68,70,74
161,-106,-266,-27,214,-186,-181,-140,-218,-29,97,127
118,-99,-217,-9,168,-158,-164,-134,-193,-35,95,121
73,-112,-185,20,129,-148,-156,-127,-170,-75,53,95
60,-98,-158,19,109,-128,-132,-121,-140,-81,31,76
15,-97,-111,41,63,-104,-83,-103,-105,-79,-4,49
3,-81,-84,39,44,-83,-39,-83,-72,-80,-44,39
5,-88,-93,41,50,-90,-10,-76,-54,-80,-72,20
-17,-98,-82,58,33,-90,-4,-68,-40,-84,-77,22
16,-47,-63,16,40,-55,-17,-60,-30,-86,-98,-9
-7,-59,-52,33,23,-55,0,-52,-13,-78,-122,-30
-3,-57,-54,31,26,-55,14,-44,7,-40,-79,-2
-50,-83,-32,67,-8,-57,3,-38,35,-14,-63,13
-47,-98,-51,73,2,-74,3,-31,65,-4,-62,47
30,-50,-81,10,56,-65,-3,-22,66,8,-52,52
-7,-76,-69,42,31,-72,-9,-13,64,14,-45,48
-2,-52,-50,27,24,-51,-14,-1,61,20,-37,52
8,-60,-69,26,39,-64,-12,-1,60,20,-27,49
-8,-101,-92,54,42,-96,9,3,59,18,-19,50
-28,-78,-49,53,11,-63,4,-11,55,10,-34,43
-38,-79,-41,58,2,-59,21,-7,55,8,-34,39
-3,-72,-69,37,33,-70,31,2,55,27,-47,34
0,-67,-68,34,34,-67,-5,-28,56,17,-46,30
-5,-45,-40,25,18,-42,11,-20,54,6,-24,24
-45,-24,21,34,-33,-1,54,4,63,23,-26,38
-46,-21,25,33,-35,2,66,20,70,29,-21,60
51,24,-27,-37,39,-1,24,0,62,35,-19,48
77,61,-17,-69,47,22,-25,-22,56,43,-15,57
62,50,-12,-55,37,18,-60,-38,49,34,-13,79
30,32,2,-31,14,16,-57,-56,40,20,-7,80
57,41,-16,-49,36,12,-58,-50,36,24,9,74
79,9,-70,-44,75,-30,-68,-82,26,27,-4,72
-23,-34,-11,28,-5,-22,-25,-61,23,20,-15,68
-1,-6,-5,3,2,-5,-8,-51,26,-3,-41,21
25,-41,-66,9,46,-54,-8,-62,4,-41,-76,1
-31,-104,-73,68,21,-88,2,-39,-10,-48,-75,-7
-1,-90,-89,46,44,-89,21,-52,-1,-42,-75,-30
-18,-89,-72,54,27,-80,31,-42,-13,-48,-81,-14
-62,-95,-33,78,-14,-64,16,-44,-31,-43,-79,-12
-31,-71,-40,51,5,-56,11,-31,-21,-46,-81,2
-49,-76,-27,63,-11,-51,1,-39,-16,-41,-89,1
37,-81,-118,22,78,-99,-10,-1,5,0,-46,-5
131,-55,-186,-38,158,-120,-10,151,164,190,109,68
328,-3,-330,-162,329,-166,-77,285,380,573,481,269
534,134,-400,-334,467,-133,-126,383,566,982,983,597
39,440,401,-240,-181,420,52,399,872,1357,1419,893
-486,710,1196,-112,-842,953,266,268,780,930,1137,901
-605,575,1179,15,-892,877,309,101,304,-121,-46,334
-607,300,907,153,-757,603,322,162,181,-528,-796,-258
-494,140,634,177,-564,386,343,298,125,-550,-775,-364
-422,34,456,194,-439,245,378,242,-20,-571,-712,-384
-372,-45,327,208,-349,140,434,231,55,-484,-634,-382
-277,-156,121,216,-199,-17,488,342,162,-341,-456,-298
-173,-252,-79,213,-47,-166,347,25,-93,-289,-367,-244
-68,-228,-159,149,46,-193,64,-269,-250,-240,-280,-167
23,-119,-142,48,83,-130,-24,-107,-85,-75,-132,-87
34,-104,-138,36,86,-121,-45,-89,-56,-33,-107,-69
34,-109,-143,38,89,-125,-56,-98,-52,-44,-113,-64
34,-97,-130,32,82,-113,-43,-82,-45,-36,-105,-63
28,-99,-127,36,78,-113,-66,-93,-54,-43,-107,-69
26,-92,-118,34,72,-104,-74,-79,-46,-37,-102,-70
18,-97,-115,40,67,-106,-76,-105,-55,-45,-115,-74
46,-94,-139,24,93,-116,-75,-103,-56,-45,-114,-75
53,-96,-149,21,101,-122,-74,-106,-60,-45,-134,-86
35,-94,-129,30,82,-112,-88,-106,-68,-51,-148,-93
45,-88,-134,22,90,-111,-90,-103,-76,-49,-144,-85
55,-93,-148,19,101,-120,-93,-109,-90,-53,-150,-89
76,-86,-162,5,119,-124,-120,-136,-114,-58,-150,-114
87,-95,-183,4,135,-139,-135,-142,-133,-75,-150,-115
100,-102,-202,1,151,-151,-142,-140,-161,-93,-142,-116
112,-112,-224,0,168,-168,-161,-166,-180,-117,-157,-122
113,-142,-256,15,185,-199,-188,-176,-215,-148,-172,-117
146,-135,-281,-5,214,-208,-186,-170,-247,-145,-143,-113
153,-132,-285,-10,219,-209,-185,-168,-260,-137,-107,-81
202,-129,-331,-37,266,-230,-227,-163,-279,-129,-82,-36
195,-125,-319,-35,257,-221,-237,-161,-273,-120,-25,10
179,-113,-292,-33,236,-202,-229,-153,-264,-114,41,41
214,-69,-282,-72,248,-175,-228,-138,-257,-83,73,63
175,-44,-219,-66,198,-131,-224,-125,-243,-67,100,90
177,8,-169,-92,173,-81,-207,-115,-221,-74,114,92
133,29,-105,-81,119,-38,-176,-107,-189,-77,91,80
68,4,-64,-36,65,-29,-159,-98,-168,-81,48,64
47,14,-33,-30,40,-10,-133,-91,-147,-88,4,32
11,25,13,-18,-1,19,-100,-87,-111,-93,-22,4
21,60,39,-41,-9,49,-73,-84,-82,-98,-20,2
18,57,38,-38,-10,47,-60,-81,-64,-99,-55,-25
5,34,29,-20,-12,31,-59,-76,-52,-83,-85,-57
5,31,26,-18,-11,28,-55,-74,-38,-70,-70,-51
-2,17,19,-8,-11,18,-52,-69,-22,-60,-60,-47
16,27,12,-22,2,19,-50,-72,-13,-44,-43,-43
23,23,-1,-23,12,11,-48,-57,-2,-20,-21,-38
28,15,-13,-21,20,1,-42,-33,8,17,12,-34
27,7,-20,-17,24,-6,-38,-34,17,26,21,-29
47,8,-39,-27,43,-15,-33,-29,29,24,12,-26
62,31,-32,-46,47,-1,-30,-22,32,34,38,-25
26,17,-9,-21,17,4,-22,-17,25,35,52,-25
11,10,-1,-10,6,4,-33,-14,17,30,50,-25
44,47,3,-46,21,25,-51,-12,11,28,39,-24
46,40,-6,-43,26,17,-42,-9,2,24,19,-27
32,20,-12,-26,22,4,-36,-22,-3,21,22,-29
41,36,-6,-38,23,15,-30,-26,10,20,28,-31
32,76,45,-54,-7,60,-22,-18,30,20,33,-30
46,119,73,-83,-14,96,-16,-14,43,20,39,-30
77,128,51,-103,13,89,13,-6,45,19,39,-37
36,121,85,-79,-24,102,-8,-8,39,26,43,-10
22,118,96,-70,-37,107,-61,-28,37,31,45,17
76,130,55,-103,10,93,-64,-51,33,26,38,28
100,103,3,-102,48,53,-90,-71,0,21,31,33
90,71,-19,-80,54,26,-108,-79,-26,10,24,28
23,56,33,-40,-5,44,-74,-76,-25,0,18,21
7,49,42,-28,-17,45,-36,-74,-25,-15,10,-13
-1,26,28,-13,-15,27,-22,-75,-26,-33,-14,-50
-34,-5,29,19,-32,12,-27,-68,-24,-43,-32,-61
-16,2,18,7,-17,10,-24,-72,-27,-48,-37,-67
-28,-8,21,18,-24,6,-26,-67,-30,-50,-33,-64
-12,-5,7,8,-10,1,-25,-61,-30,-62,-37,-64
-4,-13,-9,8,2,-11,-23,-59,-43,-53,-39,-79
-43,-5,38,24,-40,16,-17,-43,-43,-56,-39,-70
-17,-13,4,15,-10,-5,-18,-58,-44,-59,-46,-70
75,-29,-104,-23,90,-66,-36,41,18,1,6,-37
208,72,-136,-139,171,-32,-32,220,246,289,218,64
442,101,-341,-271,391,-120,-94,364,452,709,650,294
412,238,-174,-325,293,32,-85,448,679,1121,1149,626
-169,568,736,-200,-453,652,161,425,902,1333,1458,873
-555,694,1249,-70,-902,971,302,199,580,557,913,783
-528,566,1094,-20,-811,829,316,69,151,-410,-300,144
-519,312,831,104,-676,571,332,212,66,-636,-849,-372
-460,179,638,140,-549,408,335,228,-43,-654,-764,-419
-381,141,522,120,-452,331,374,113,-133,-630,-688,-421
-312,27,339,142,-326,183,424,96,-87,-541,-591,-400
-211,-49,162,130,-186,57,441,97,-86,-410,-449,-343
-113,-93,20,103,-66,-36,182,-198,-274,-362,-347,-279
21,-38,-60,9,40,-49,-58,-263,-251,-240,-221,-177
101,67,-34,-84,67,17,-72,-87,-81,-89,-101,-114
52,60,7,-56,22,33,-80,-113,-89,-77,-99,-115
21,57,35,-39,-7,46,-80,-94,-83,-62,-102,-116
37,64,27,-51,5,46,-97,-101,-85,-64,-102,-114
34,54,20,-44,7,36,-91,-102,-86,-59,-108,-116
76,43,-33,-59,54,5,-113,-97,-83,-78,-103,-113
87,35,-51,-61,69,-8,-125,-104,-91,-89,-102,-110
70,41,-29,-55,50,6,-116,-100,-90,-78,-99,-110
77,25,-52,-50,64,-13,-124,-111,-96,-82,-100,-107
74,15,-59,-44,66,-22,-117,-108,-97,-74,-94,-105
88,6,-82,-47,85,-38,-123,-117,-100,-77,-96,-105
108,1,-107,-55,107,-52,-122,-111,-104,-80,-96,-110
148,-3,-151,-72,150,-77,-135,-110,-110,-86,-101,-128
166,-8,-174,-79,171,-90,-136,-106,-115,-84,-100,-126
114,-34,-148,-39,131,-91,-133,-105,-133,-85,-99,-120
88,-98,-186,5,137,-141,-171,-136,-167,-126,-129,-118
146,-112,-257,-17,202,-184,-197,-143,-209,-150,-137,-116
170,-100,-271,-35,221,-185,-199,-135,-223,-142,-98,-108
194,-104,-297,-45,245,-200,-209,-135,-234,-136,-56,-70
192,-118,-310,-37,251,-214,-239,-128,-254,-130,-20,-37
173,-119,-292,-27,232,-205,-247,-126,-246,-118,20,-14
203,-78,-281,-62,242,-179,-238,-122,-234,-91,68,37
193,-50,-243,-72,219,-146,-238,-116,-219,-69,111,74
183,-32,-215,-75,200,-124,-232,-110,-196,-67,124,80
127,-14,-141,-56,134,-77,-187,-105,-162,-51,120,93
125,31,-94,-78,109,-31,-163,-100,-144,-55,103,90
98,56,-42,-76,70,7,-157,-95,-139,-91,68,63
13,26,12,-20,0,19,-128,-92,-117,-100,12,42
36,42,6,-39,14,24,-117,-85,-94,-115,-23,25
8,65,57,-37,-25,61,-73,-91,-70,-118,-46,-14
-16,54,70,-19,-44,62,-54,-96,-65,-105,-74,-37
-28,39,67,-6,-48,53,-63,-95,-60,-103,-64,-26
-1,46,47,-23,-24,46,-54,-95,-45,-92,-55,-21
9,38,29,-24,-11,34,-55,-96,-29,-83,-47,-14
3,54,51,-29,-24,52,-50,-84,-8,-62,-31,-7
47,67,20,-57,13,43,-50,-62,0,-33,-19,-2
27,27,0,-27,14,13,-50,-50,16,-21,-7,8
16,29,13,-23,1,21,-50,-44,26,-13,2,10
33,25,-8,-29,21,8,-50,-37,25,-8,15,12
21,17,-4,-18,12,6,-51,-31,39,-7,26,24
20,16,-4,-18,12,6,-49,-29,44,-19,15,14
43,3,-40,-22,41,-19,-50,-30,32,-15,2,11
-2,26,28,-12,-15,27,-40,-29,29,23,30,49
5,55,50,-30,-23,53,-40,-31,20,7,49,45
36,49,14,-43,11,31,-33,-28,15,-15,43,14
28,73,45,-51,-9,58,-4,-26,46,-2,46,31
42,108,66,-75,-12,87,-6,-24,61,-1,44,56
10,88,77,-49,-34,82,18,-26,48,7,45,55
21,96,75,-59,-27,85,13,-23,43,19,45,53
71,118,46,-95,12,82,-57,-37,34,16,45,66
69,99,29,-84,20,64,-90,-67,28,6,45,76
77,91,14,-84,31,52,-96,-68,21,-2,46,75
79,81,2,-80,38,41,-96,-80,16,-12,51,74
64,75,11,-70,27,42,-62,-90,10,-22,44,78
64,49,-14,-57,39,18,-30,-69,3,-39,11,56
16,-6,-21,-5,18,-13,-14,-62,-6,-56,-16,7
-19,-27,-7,23,-6,-17,3,-59,-15,-59,-17,-7
-32,-22,10,26,-21,-5,-1,-59,-18,-61,-24,-3
-18,-16,2,17,-10,-7,0,-62,-14,-58,-23,-9
-11,-17,-6,14,-2,-11,1,-56,-11,-59,-20,-9
-8,-7,2,7,-5,-2,8,-69,-10,-52,-20,-12
7,-13,-20,3,14,-16,13,-69,-3,-58,-14,-2
14,11,-4,-12,9,4,19,-72,-12,-51,-17,17
114,29,-85,-71,99,-28,33,-4,5,-11,9,25
138,15,-122,-76,130,-54,18,165,170,162,134,71
346,59,-287,-203,317,-114,-56,330,385,541,482,247
512,169,-342,-340,427,-86,-91,440,591,951,964,563
-11,475,486,-232,-249,480,115,491,895,1337,1418,881
-477,727,1204,-125,-841,965,310,304,763,915,1248,961
-544,594,1138,-25,-841,866,312,51,247,-167,90,429
-566,336,902,115,-734,618,333,165,96,-608,-751,-208
-488,186,674,151,-581,429,392,271,48,-625,-745,-331
-395,107,502,144,-449,304,424,171,-97,-636,-674,-336
-349,-18,330,183,-339,156,458,122,-85,-553,-590,-320
-281,-163,118,221,-199,-22,541,166,-24,-407,-424,-239
-167,-208,-42,188,-62,-125,334,-78,-180,-348,-324,-197
-59,-185,-126,122,33,-155,18,-275,-255,-271,-224,-121
12,-109,-121,49,67,-115,-12,-82,-93,-98,-96,-38
57,-58,-116,1,87,-87,-35,-59,-40,-49,-57,-20
68,-56,-124,-6,97,-90,-44,-72,-43,-41,-54,-22
74,-53,-127,-10,101,-90,-34,-57,-36,-38,-47,-15
82,-47,-129,-17,105,-88,-57,-73,-43,-42,-52,-13
49,-49,-98,0,74,-73,-39,-59,-37,-38,-49,-9
13,-80,-93,33,53,-86,-52,-66,-42,-41,-51,-16
44,-66,-110,11,77,-87,-72,-57,-38,-38,-52,-23
67,-65,-132,-1,100,-98,-71,-61,-34,-55,-58,-29
60,-77,-137,9,99,-107,-70,-66,-53,-53,-62,-36
57,-74,-131,8,95,-102,-69,-81,-61,-50,-65,-43
30,-117,-147,43,89,-132,-94,-101,-83,-78,-71,-44
55,-100,-154,23,104,-127,-100,-106,-91,-88,-70,-39
108,-92,-200,-8,154,-146,-97,-105,-90,-91,-71,-41
95,-124,-219,15,157,-171,-113,-105,-118,-95,-81,-35
126,-107,-233,-9,180,-170,-121,-105,-142,-95,-94,-35
150,-136,-287,-7,219,-211,-146,-131,-183,-128,-88,-35
146,-168,-314,12,230,-241,-171,-141,-211,-140,-69,-26
180,-155,-334,-12,257,-244,-181,-133,-224,-126,-55,-8
197,-149,-346,-24,272,-247,-194,-131,-226,-125,-16,30
220,-110,-330,-55,275,-220,-201,-125,-213,-104,34,60
197,-87,-285,-55,241,-186,-200,-120,-208,-66,89,110
177,-92,-269,-42,223,-180,-199,-111,-199,-53,135,145
193,-53,-246,-69,219,-149,-202,-103,-192,-56,139,138
145,-43,-188,-51,166,-115,-192,-93,-190,-52,137,141
49,-46,-95,-1,72,-70,-157,-84,-166,-50,129,133
-1,-7,-6,4,3,-7,-125,-68,-129,-48,120,137
21,21,1,-21,10,11,-95,-71,-104,-61,87,126
8,30,22,-20,-7,26,-68,-81,-76,-78,34,78
-26,29,55,-2,-41,42,-47,-75,-54,-73,19,64
-39,30,69,4,-54,49,-35,-73,-45,-81,-8,62
-39,35,74,2,-57,54,-32,-68,-41,-94,-32,53
-32,38,70,-3,-52,54,-28,-65,-28,-78,-22,48
-52,14,66,19,-59,40,-22,-61,-8,-62,-13,41
-21,-8,12,14,-16,2,-21,-53,2,-56,-2,33
-49,-6,43,27,-45,18,-40,-33,22,-43,11,39
-57,17,74,20,-66,46,-41,-13,39,-6,34,74
0,26,26,-13,-13,26,-25,2,48,17,76,103
-19,-2,17,10,-18,7,-20,13,50,13,79,94
