I,II,III,aVR,aVL,aVF,V1,V2,V3,V4,V5,V6
-61,-146,-85,104,12,-115,-15,-225,-869,-60,-629,-288
-14,-145,-131,80,59,-137,-22,-251,-884,-86,-650,-297
-20,-144,-124,83,52,-134,-31,-244,-862,-83,-642,-335
-32,-152,-120,92,44,-136,-36,-239,-846,-76,-632,-342
-31,-146,-114,89,41,-129,-54,-233,-856,-90,-657,-366
-20,-154,-134,87,57,-144,-73,-207,-867,-107,-678,-388
3,-146,-149,72,76,-147,-72,-184,-856,-104,-673,-376
-14,-152,-138,83,62,-145,-91,-176,-847,-105,-675,-376
-61,-171,-110,116,24,-140,-129,-168,-841,-105,-674,-369
-51,-187,-136,119,43,-161,-150,-157,-827,-105,-675,-367
-36,-176,-140,106,53,-158,-160,-120,-790,-101,-670,-350
-23,-128,-105,76,41,-116,-163,-89,-750,-90,-660,-313
-23,-126,-104,75,41,-115,-163,-81,-717,-83,-653,-300
-55,-103,-48,79,-3,-75,-181,-70,-708,-72,-643,-295
-48,-84,-36,66,-6,-60,-221,-59,-685,-42,-640,-264
-1,-9,-8,5,4,-8,-268,-38,-637,0,-635,-197
35,26,-9,-30,22,8,-286,-22,-613,17,-634,-164
19,-76,-95,29,57,-86,-285,-29,-620,-5,-628,-168
20,-114,-134,47,77,-124,-286,-20,-665,-64,-652,-169
-28,-157,-130,92,51,-143,-283,-31,-677,-96,-685,-157
-76,-183,-107,130,16,-145,-289,-30,-665,-100,-690,-154
-29,-173,-144,101,58,-158,-277,-51,-668,-114,-691,-147
4,-189,-193,93,99,-191,-279,-28,-655,-99,-682,-123
-15,-187,-172,101,79,-179,-257,-16,-660,-109,-691,-102
-8,-167,-159,88,76,-163,-264,-25,-644,-84,-675,-72
8,-181,-189,87,99,-185,-231,24,-637,-100,-691,-82
-22,-130,-108,76,43,-119,-213,-40,-599,-70,-649,-16
6,-141,-147,68,77,-144,-169,275,-462,38,-602,7
296,-5,-300,-145,298,-152,-166,699,-11,537,-326,165
901,64,-837,-482,869,-386,-803,926,329,1047,-62,259
856,-341,-1197,-257,1027,-769,-1067,497,-359,304,-555,-82
227,-333,-560,54,394,-447,-574,-233,-913,-322,-853,-91
50,-145,-195,48,122,-170,-273,-28,-677,-152,-741,52
68,-135,-203,34,135,-169,-132,132,-570,-129,-742,59
0,-101,-101,51,51,-101,-98,94,-539,-90,-706,122
-30,-138,-108,84,39,-123,-85,133,-511,-84,-718,121
-11,-100,-89,56,39,-94,-69,112,-510,-75,-709,153
-5,-94,-89,50,42,-91,-70,155,-490,-62,-706,169
42,-85,-128,22,85,-106,-53,141,-486,-66,-707,178
57,-76,-133,10,95,-104,-54,173,-464,-51,-699,192
54,-66,-121,6,88,-93,-43,178,-448,-53,-696,217
54,-62,-116,4,85,-89,-25,210,-421,-43,-685,249
79,-30,-109,-24,94,-69,9,245,-399,-28,-683,243
93,-4,-97,-44,95,-50,21,252,-376,5,-666,248
67,-19,-87,-24,77,-53,21,277,-349,17,-648,250
80,15,-65,-47,72,-25,41,316,-324,33,-626,251
54,24,-29,-39,41,-3,65,369,-289,60,-603,263
121,65,-55,-93,88,5,66,409,-252,85,-580,279
153,89,-64,-121,108,13,57,467,-201,127,-557,306
149,94,-55,-121,102,20,51,537,-146,179,-526,333
180,108,-72,-144,126,18,42,597,-97,233,-488,350
180,130,-50,-155,115,40,37,654,-29,281,-451,380
198,159,-40,-178,119,59,28,672,23,314,-414,395
205,155,-51,-180,128,52,18,658,50,339,-399,409
221,186,-35,-203,128,75,10,650,70,361,-399,447
221,185,-36,-203,128,75,0,613,60,360,-400,441
208,170,-38,-189,123,66,-8,536,19,324,-400,427
186,170,-16,-178,100,77,-11,443,-40,269,-400,419
223,153,-70,-188,147,41,-14,318,-123,207,-413,391
217,125,-92,-171,154,16,-18,201,-198,149,-434,364
152,80,-72,-116,112,4,-20,123,-256,104,-472,341
161,85,-76,-123,119,4,-13,72,-303,71,-494,326
153,101,-52,-127,103,24,-3,46,-313,49,-487,217
155,95,-61,-125,108,17,3,40,-319,42,-497,74
158,79,-79,-118,118,0,17,34,-318,38,-500,10
190,87,-102,-138,146,-7,24,30,-312,33,-495,-49
225,132,-94,-178,159,19,35,21,-310,29,-493,-61
214,134,-80,-174,146,27,45,27,-305,24,-487,-53
226,139,-87,-182,156,26,37,50,-303,25,-486,-73
178,136,-42,-157,109,47,33,50,-293,25,-479,-68
151,111,-41,-131,96,35,26,50,-287,25,-470,-59
167,92,-75,-130,121,8,21,49,-275,28,-458,-52
147,118,-29,-133,87,45,16,51,-264,55,-435,-43
162,170,9,-166,77,89,11,61,-248,77,-413,-21
181,147,-33,-164,107,57,7,59,-216,69,-406,7
186,138,-48,-162,117,45,2,60,-198,83,-397,32
164,132,-32,-148,98,50,-3,60,-194,97,-388,41
125,109,-17,-117,71,46,-5,60,-189,87,-383,38
181,136,-45,-159,113,45,13,56,-179,85,-357,53
195,112,-84,-153,139,13,16,40,-201,80,-372,62
161,90,-71,-126,116,10,4,24,-221,75,-397,58
196,125,-71,-160,133,27,-5,13,-211,75,-383,65
159,98,-61,-128,109,18,-14,9,-207,75,-380,64
149,89,-60,-119,105,14,-4,3,-202,75,-372,66
128,89,-39,-108,83,25,4,-3,-193,74,-366,75
71,81,10,-76,30,45,22,-7,-171,76,-359,90
115,110,-5,-113,59,53,45,-13,-146,74,-346,109
101,124,23,-113,39,73,35,-22,-131,75,-334,123
68,154,86,-111,-9,120,17,-32,-129,85,-312,152
82,194,112,-138,-15,152,6,-30,-126,109,-289,185
109,227,118,-169,-4,172,0,-23,-123,132,-256,210
118,182,64,-150,26,123,-2,-18,-121,118,-253,197
96,84,-11,-90,53,36,-9,-20,-121,77,-302,141
87,43,-44,-65,65,0,-11,-58,-161,29,-339,99
87,13,-74,-50,81,-30,-16,-71,-176,13,-357,97
45,-36,-81,-4,63,-58,-13,-81,-174,-17,-374,89
30,-45,-74,7,52,-59,-35,-93,-170,-21,-353,95
60,-75,-135,8,97,-104,-41,-77,-166,-37,-361,79
7,-54,-61,24,34,-57,-35,-125,-169,-37,-346,87
36,-53,-89,9,62,-71,-30,-38,-155,1,-330,76
5,-48,-54,22,30,-51,-12,-127,-166,-19,-307,79
-30,19,49,5,-40,34,-1,-10,-56,51,-250,139
135,33,-102,-84,118,-34,101,448,276,354,-94,208
631,239,-392,-434,511,-76,-339,775,845,1099,353,424
982,-26,-1008,-477,995,-517,-913,772,648,937,178,222
460,-345,-805,-57,633,-574,-610,-62,-270,-77,-381,-42
43,-132,-174,45,109,-153,-186,-301,-361,-177,-380,95
17,-121,-138,52,78,-129,-48,-29,-154,-63,-332,105
-47,-106,-58,77,6,-82,9,-80,-153,-87,-306,108
-51,-86,-35,69,-8,-60,37,-11,-106,-43,-280,108
-92,-83,10,87,-51,-36,69,-36,-110,-66,-280,121
-104,-63,40,83,-72,-11,62,-12,-83,-47,-254,142
-70,-60,10,64,-40,-25,67,-6,-80,-57,-253,142
-49,-52,-2,51,-23,-27,65,-3,-67,-47,-234,167
-123,-106,17,115,-69,-45,71,15,-57,-51,-229,176
-149,-72,77,110,-112,2,75,14,-47,-44,-216,198
-113,-53,60,83,-86,3,78,40,-28,-34,-207,197
-106,-51,55,78,-81,2,81,56,-8,-32,-198,201
-88,-37,51,63,-69,7,82,86,18,-19,-188,204
-76,-35,41,55,-58,3,86,108,23,-5,-181,206
-84,-23,61,53,-72,19,85,154,40,13,-168,214
-115,-16,99,65,-107,41,93,202,74,33,-135,239
-58,22,80,18,-70,51,92,257,117,65,-115,261
-21,44,64,-12,-43,54,84,325,158,104,-99,268
-15,79,94,-33,-55,86,81,395,215,154,-60,288
35,119,84,-77,-25,101,74,460,278,215,-22,311
59,129,70,-94,-6,99,69,515,326,263,29,345
71,145,74,-109,-1,109,63,544,363,294,60,354
93,151,58,-122,17,105,51,544,366,306,71,344
113,156,43,-134,34,99,36,530,356,306,68,338
65,146,81,-105,-9,113,26,462,329,286,57,328
33,121,88,-77,-28,105,19,357,259,234,47,330
12,78,66,-45,-28,72,13,232,162,162,8,297
-32,31,63,0,-47,46,6,110,81,90,-31,255
-49,13,62,17,-56,38,-1,23,12,29,-72,238
-82,-41,41,61,-61,0,-6,-49,-44,-12,-91,222
-108,-70,38,88,-72,-16,-14,-98,-66,-50,-97,212
-83,-49,33,66,-58,-8,-21,-127,-88,-90,-120,200
-99,-89,10,94,-54,-39,-28,-131,-89,-103,-120,187
-158,-109,49,133,-103,-29,-25,-124,-83,-106,-120,170
-130,-73,58,101,-94,-7,-16,-124,-82,-107,-121,163
-107,-92,15,100,-61,-38,-8,-139,-76,-123,-116,162
-148,-133,15,140,-81,-59,1,-146,-74,-131,-131,156
-205,-129,77,167,-141,-26,7,-139,-69,-121,-125,155
-210,-124,85,167,-147,-19,14,-137,-66,-120,-106,147
-190,-123,67,156,-128,-28,12,-132,-63,-113,-99,156
-187,-117,70,152,-129,-23,6,-129,-58,-110,-87,160
-151,-96,55,123,-103,-20,1,-126,-55,-105,-78,153
-133,-75,59,104,-96,-8,-2,-125,-52,-97,-68,177
-134,-76,58,105,-95,-8,-8,-124,-46,-91,-57,174
-136,-75,62,106,-99,-6,-11,-120,-42,-84,-48,181
-134,-75,59,104,-96,-8,-9,-120,-37,-77,-39,195
-136,-75,61,106,-98,-7,-12,-121,-33,-73,-33,178
-135,-73,61,104,-98,-6,-7,-119,-29,-67,-26,174
-104,-61,44,83,-74,-8,-23,-128,-24,-76,-19,161
-114,-46,68,80,-91,11,-10,-142,-19,-72,-13,156
-130,-34,96,82,-113,31,31,-139,-14,-43,-5,149
-116,-20,96,68,-106,38,36,-140,-11,-39,-3,143
-102,-2,100,52,-101,49,36,-140,-3,-41,8,169
-100,29,129,35,-115,79,10,-139,-4,-39,17,174
-80,68,148,6,-114,107,-40,-144,19,-35,53,192
-32,97,129,-33,-81,113,-69,-142,42,-22,86,213
-36,48,84,-6,-60,66,-69,-150,12,-29,49,189
-103,-64,39,83,-71,-12,-62,-138,-19,-63,25,136
-145,-97,48,121,-96,-24,-58,-152,-64,-100,11,83
-120,-115,5,117,-62,-55,-56,-154,-95,-123,-15,63
-126,-136,-11,131,-57,-73,-46,-165,-96,-129,-19,64
-81,-135,-55,108,-13,-95,-48,-156,-92,-119,-23,69
-99,-167,-68,134,-15,-117,-30,-166,-98,-129,-35,58
-162,-151,11,157,-87,-70,-31,-172,-92,-116,-7,76
-102,-172,-70,137,-15,-121,-17,-114,-93,-129,-21,49
-190,-123,67,157,-128,-28,-7,-211,-58,-83,32,93
-153,-120,33,137,-93,-43,37,66,53,-10,75,108
156,2,-155,-79,156,-76,15,508,480,447,347,218
727,140,-587,-433,656,-223,-586,867,942,1065,686,320
791,-307,-1097,-242,944,-701,-883,535,315,392,210,-39
142,-368,-511,113,327,-439,-419,-325,-374,-333,-114,-102
-58,-131,-73,95,8,-102,-89,-208,-200,-182,17,40
-88,-167,-79,128,-4,-123,24,-33,-101,-167,12,19
-131,-96,35,113,-82,-30,59,-92,-82,-145,59,43
-158,-120,37,139,-97,-41,97,-51,-65,-134,54,20
-220,-146,74,183,-147,-35,115,-78,-73,-136,58,25
-183,-123,60,153,-121,-31,105,-41,-56,-121,64,18
-171,-118,53,145,-112,-33,114,-50,-63,-128,63,8
-156,-108,49,131,-102,-29,106,-21,-49,-113,72,22
-196,-107,89,151,-142,-9,129,-9,-48,-117,92,40
-186,-98,88,142,-137,-5,135,7,-35,-104,97,42
-171,-94,77,132,-124,-8,136,30,-30,-97,110,38
-142,-88,53,115,-97,-17,162,61,-17,-89,135,41
-171,-100,71,135,-121,-14,166,87,-4,-76,138,39
-209,-72,138,140,-173,33,164,118,12,-59,163,41
-148,-42,106,95,-127,32,166,167,43,-36,157,45
-111,-30,82,71,-96,26,163,211,69,-5,186,53
-76,-14,62,45,-69,24,171,271,111,24,215,65
-44,38,82,3,-63,60,176,351,172,82,250,93
-12,88,100,-38,-56,94,165,429,225,144,297,113
8,77,69,-42,-31,73,153,484,270,186,329,136
27,92,65,-60,-19,78,143,540,314,234,372,161
33,120,87,-77,-27,103,136,561,333,261,378,168
46,137,91,-91,-23,114,129,559,331,259,393,173
41,126,85,-84,-22,105,122,523,310,247,383,177
26,110,84,-69,-29,97,116,433,269,232,344,172
16,95,79,-55,-32,87,110,317,191,175,331,136
-34,46,80,-6,-58,63,105,179,99,102,292,91
-66,4,70,31,-68,37,102,68,31,51,248,52
-124,-43,81,84,-102,19,98,-9,-28,-1,230,20
-167,-79,88,122,-127,5,95,-67,-79,-46,214,-9
-170,-99,71,134,-120,-14,90,-99,-104,-70,200,-36
-180,-122,58,151,-119,-32,92,-104,-105,-83,190,-38
-155,-118,37,136,-96,-40,101,-114,-104,-100,177,-49
-158,-121,37,140,-97,-42,98,-132,-102,-110,170,-59
-161,-143,18,152,-89,-62,105,-126,-98,-110,170,-74
-178,-135,43,156,-110,-46,116,-123,-103,-110,170,-87
-202,-119,83,160,-142,-18,115,-120,-108,-110,169,-75
-187,-113,74,150,-130,-20,115,-115,-102,-110,171,-75
-193,-105,87,149,-140,-9,115,-113,-92,-107,169,-68
-161,-99,62,130,-111,-18,115,-108,-84,-98,181,-65
-121,-94,27,107,-74,-33,113,-105,-80,-87,201,-70
-136,-80,56,107,-96,-12,109,-102,-78,-78,208,-70
-175,-95,80,135,-127,-8,107,-97,-74,-75,210,-70
-185,-121,65,153,-124,-28,104,-95,-72,-75,211,-70
-161,-108,52,134,-106,-28,100,-95,-69,-75,216,-69
-153,-111,43,132,-98,-33,100,-95,-72,-75,212,-71
-144,-104,40,124,-92,-32,105,-95,-83,-75,225,-88
-167,-102,66,134,-116,-18,105,-95,-76,-73,250,-91
-171,-99,73,135,-122,-13,105,-95,-65,-68,251,-85
-107,-53,54,80,-80,0,107,-97,-55,-65,248,-84
-131,-52,79,92,-105,13,120,-100,-47,-62,252,-79
-117,-36,81,76,-99,22,139,-100,-42,-57,246,-81
-79,1,80,39,-79,40,134,-102,-36,-55,258,-86
-47,54,101,-3,-74,77,99,-107,-29,-34,290,-84
-4,98,102,-47,-53,100,73,-102,-5,0,309,-92
-36,73,109,-18,-73,91,76,-109,17,4,318,-87
-69,-5,63,37,-66,29,73,-101,-5,-40,282,-96
-116,-101,16,108,-66,-42,76,-130,-79,-100,226,-145
-119,-125,-7,122,-56,-66,74,-152,-99,-109,196,-178
-138,-149,-12,144,-63,-80,74,-141,-102,-135,196,-201
-79,-128,-49,103,-14,-88,70,-190,-145,-153,219,-204
-56,-155,-98,106,21,-126,67,-165,-146,-158,198,-222
-119,-169,-50,144,-34,-109,73,-199,-137,-145,201,-205
-71,-154,-84,113,7,-119,56,-159,-129,-135,188,-210
-126,-141,-14,134,-56,-77,77,-201,-113,-139,178,-206
-126,-84,42,104,-84,-21,74,-140,-60,-84,212,-168
-10,-75,-65,43,28,-70,149,308,191,112,323,-142
487,115,-372,-300,429,-128,-215,758,745,785,698,30
950,-114,-1064,-418,1006,-589,-837,849,597,686,552,-182
451,-406,-857,-22,654,-631,-597,-12,-236,-228,66,-414
-23,-196,-174,110,75,-185,-139,-362,-317,-300,97,-269
-65,-151,-86,108,11,-118,43,-60,-107,-170,154,-276
-116,-125,-9,121,-53,-67,142,-110,-99,-196,152,-260
-117,-105,12,111,-64,-46,147,-72,-61,-164,174,-251
-160,-130,31,145,-95,-49,155,-96,-70,-183,165,-258
-187,-118,68,152,-127,-25,145,-75,-51,-160,171,-244
-177,-113,64,145,-120,-24,175,-58,-49,-169,161,-252
-137,-90,47,113,-91,-21,174,-60,-40,-156,162,-241
-143,-93,50,118,-97,-21,169,-35,-30,-154,159,-244
-138,-103,36,120,-87,-33,167,-35,-24,-150,151,-233
-127,-103,24,115,-75,-40,168,2,-12,-143,153,-231
-177,-93,83,135,-130,-5,204,24,-1,-142,172,-223
-154,-84,69,119,-111,-7,203,49,14,-132,168,-219
-126,-55,71,90,-99,8,196,77,48,-122,171,-213
-97,-38,59,67,-78,10,195,115,89,-109,168,-207
-93,-39,54,66,-73,7,188,155,113,-95,171,-197
-119,-24,95,71,-107,35,185,211,159,-66,199,-195
-81,14,95,34,-88,54,197,277,204,-24,224,-175
-35,53,87,-9,-61,70,204,363,271,31,263,-137
-10,71,81,-31,-46,76,181,427,337,80,292,-141
20,94,74,-57,-28,84,154,471,379,123,328,-121
69,139,70,-104,0,104,139,513,420,168,342,-104
83,161,78,-122,2,119,131,505,426,176,331,-95
89,160,71,-125,9,115,122,493,441,180,330,-104
49,132,84,-91,-18,108,113,441,426,167,325,-137
22,109,86,-66,-32,97,106,328,345,100,294,-131
22,102,79,-62,-29,91,99,210,275,45,244,-160
-14,63,77,-25,-45,70,92,82,190,-31,211,-201
-2,31,32,-15,-17,31,86,-17,116,-100,180,-215
-60,-20,40,40,-50,9,79,-91,76,-136,150,-230
-126,-79,46,102,-86,-16,73,-127,38,-169,123,-239
-111,-85,26,98,-68,-29,70,-144,29,-180,109,-246
-106,-85,21,95,-63,-32,70,-176,30,-214,105,-266
-133,-82,51,107,-92,-15,70,-172,30,-224,100,-269
-146,-79,67,112,-107,-5,70,-151,30,-217,96,-260
-141,-82,59,112,-100,-12,70,-146,30,-222,91,-259
-124,-68,56,96,-90,-5,66,-165,33,-219,90,-252
-140,-87,53,113,-96,-17,59,-165,39,-219,90,-249
-127,-78,49,102,-88,-15,56,-154,52,-207,90,-241
-91,-49,42,70,-66,-4,48,-151,48,-188,89,-233
-110,-44,66,77,-88,10,45,-143,51,-163,91,-225
-47,-39,8,43,-27,-15,36,-139,60,-154,87,-217
-94,-59,35,76,-64,-12,44,-134,74,-154,104,-212
-145,-41,104,93,-125,31,55,-131,96,-149,131,-207
-54,6,61,24,-58,34,32,-125,94,-147,123,-204
-52,14,66,18,-59,40,23,-123,89,-144,119,-200
-82,-17,66,49,-74,25,12,-117,88,-141,113,-196
-91,-27,64,58,-77,18,2,-128,85,-139,107,-194
-89,-24,65,56,-77,21,-5,-147,77,-131,103,-185
-101,-34,66,67,-83,16,0,-141,92,-144,98,-179
-73,-9,64,41,-68,27,38,-139,114,-152,124,-167
-71,32,103,19,-87,67,29,-133,98,-139,119,-154
-53,60,112,-4,-83,86,34,-132,110,-130,120,-137
-4,88,92,-42,-48,90,55,-125,147,-118,145,-101
-38,105,143,-34,-91,123,22,-140,147,-103,145,-59
5,139,134,-72,-65,137,-30,-164,153,-89,167,-23
31,169,138,-100,-54,154,-65,-156,159,-86,192,-22
-26,109,135,-42,-81,122,-65,-169,120,-83,182,-16
-65,10,75,27,-70,42,-66,-159,63,-125,130,-43
-66,-32,34,49,-50,1,-63,-174,29,-172,94,-80
-17,-58,-41,38,13,-49,-69,-165,22,-175,80,-76
-38,-46,-8,42,-15,-27,-59,-172,14,-185,70,-69
-86,-60,26,73,-56,-17,-64,-180,14,-173,74,-57
-78,-96,-18,87,-30,-57,-46,-174,2,-188,55,-58
-56,-31,25,44,-41,-2,-52,-184,1,-171,67,-35
-64,-75,-11,70,-26,-43,-58,-132,-6,-186,45,-32
-80,-9,71,45,-76,31,-41,-202,22,-143,77,48
-29,26,54,1,-42,40,5,91,169,-37,118,78
203,99,-105,-151,154,-3,-5,499,619,440,410,217
785,195,-590,-489,687,-197,-608,730,1057,1076,736,333
803,-232,-1035,-285,919,-633,-910,377,406,384,244,-7
189,-278,-468,45,328,-373,-453,-378,-307,-404,-125,-69
5,-73,-78,34,42,-75,-160,-234,-120,-242,-39,58
-38,-83,-45,61,3,-63,-49,-70,14,-194,-57,61
-112,-33,79,72,-95,22,-3,-108,41,-176,-31,110
-134,-53,81,93,-107,13,34,-53,57,-164,-37,99
-135,-35,100,85,-117,32,51,-88,38,-164,-27,110
-139,-36,103,88,-121,33,40,-48,74,-145,-21,101
-133,-31,102,82,-117,35,52,-66,79,-150,-21,121
-77,-25,52,50,-64,14,48,-35,80,-132,-12,140
-107,-26,81,66,-94,28,51,-5,96,-135,-13,147
-105,-18,87,61,-96,34,49,8,97,-121,0,171
-65,-19,46,42,-55,14,50,17,96,-120,-2,159
-79,-11,67,45,-73,28,49,40,132,-107,11,155
-103,-10,93,56,-98,41,61,72,145,-96,9,146
-64,47,111,8,-87,78,63,98,172,-77,26,138
-37,65,101,-15,-69,83,55,141,208,-54,35,138
-49,58,106,-5,-78,82,52,179,234,-29,29,140
-1,105,106,-52,-54,105,44,239,287,25,64,141
40,140,100,-90,-30,119,41,299,336,68,91,138
41,177,136,-109,-48,156,29,373,403,134,143,169
84,205,122,-145,-19,164,15,425,453,183,179,187
120,208,88,-165,15,148,2,454,483,215,196,178
133,226,93,-180,19,160,-10,490,531,259,211,175
142,249,107,-195,17,177,-21,474,536,269,216,186
106,223,117,-165,-6,170,-33,452,527,274,219,220
76,190,114,-133,-19,151,-36,369,476,227,183,212
66,181,115,-123,-25,148,-54,227,372,150,146,161
9,138,128,-74,-60,133,-61,112,283,84,113,120
5,96,91,-51,-43,94,-70,-8,207,15,78,85
13,75,62,-44,-25,68,-91,-88,146,-34,40,54
-39,60,100,-11,-70,80,-85,-136,100,-93,6,32
-22,51,74,-15,-48,62,-80,-158,66,-125,-20,13
-18,35,53,-9,-36,44,-77,-155,45,-139,-41,-6
-36,30,65,3,-51,47,-71,-151,37,-146,-49,-28
-45,11,56,17,-51,33,-68,-146,32,-145,-49,-43
-52,11,63,20,-57,37,-64,-138,22,-145,-55,-58
-78,-19,59,49,-68,19,-66,-135,17,-143,-64,-69
-106,-50,56,78,-81,3,-64,-166,6,-163,-55,-81
-66,-11,55,38,-60,22,-66,-173,2,-144,-47,-87
-38,3,40,18,-39,21,-64,-158,20,-119,-40,-80
-56,10,66,23,-61,37,-66,-155,46,-118,-32,-81
-88,7,95,40,-92,51,-64,-144,65,-105,-23,-74
-38,38,76,0,-58,57,-67,-140,68,-101,-12,-77
15,74,59,-45,-22,66,-80,-133,68,-91,1,-84
-28,53,82,-13,-55,67,-80,-129,74,-84,28,-86
-58,36,94,11,-76,65,-75,-124,81,-77,37,-84
12,53,41,-33,-15,46,-73,-115,77,-66,31,-87
37,83,46,-61,-4,64,-71,-125,75,-64,32,-114
-2,80,83,-39,-43,81,-66,-128,71,-48,24,-111
23,75,52,-49,-15,63,-83,-142,71,-80,27,-123
16,76,61,-46,-23,68,-95,-159,65,-105,18,-141
-8,74,82,-33,-45,78,-80,-144,64,-88,26,-131
-10,80,90,-35,-50,85,-70,-135,54,-81,47,-128
-15,111,126,-49,-70,118,-67,-130,60,-69,46,-120
-9,114,123,-53,-66,119,-56,-121,84,-66,67,-117
41,156,115,-98,-37,135,-65,-117,80,-22,84,-109
75,239,164,-157,-45,201,-116,-108,116,-12,129,-104
61,217,156,-139,-47,186,-125,-105,112,-37,136,-88
89,131,42,-110,23,86,-115,-113,62,-40,85,-112
54,60,6,-57,24,33,-115,-112,38,-95,44,-185
-12,41,53,-15,-33,47,-102,-155,-1,-135,21,-203
31,17,-13,-24,22,2,-107,-134,-11,-144,14,-218
9,-4,-13,-2,11,-9,-96,-132,-17,-155,4,-228
-30,-5,25,17,-27,10,-127,-161,-21,-155,7,-235
-19,-44,-24,32,3,-33,-121,-160,-31,-175,-11,-247
4,-20,-24,8,15,-22,-126,-177,-36,-151,0,-219
7,-38,-45,16,26,-41,-117,-129,-32,-168,-10,-234
-45,30,76,7,-61,53,-101,-197,-4,-129,43,-176
37,76,39,-57,-1,57,-84,85,113,-34,89,-157
279,170,-109,-224,194,31,-68,521,575,459,386,-23
839,258,-580,-548,709,-161,-652,792,1048,1107,733,79
876,-178,-1054,-348,965,-616,-955,444,394,411,245,-281
224,-255,-479,16,352,-366,-475,-333,-327,-373,-112,-368
72,-11,-83,-30,78,-47,-185,-218,-159,-233,-20,-268
88,1,-87,-44,87,-43,-77,-69,-61,-190,-28,-295
-31,26,58,3,-45,42,-31,-105,-41,-152,23,-259
-35,11,45,12,-40,28,-11,-45,-18,-157,18,-266
-79,-1,78,39,-78,38,5,-82,-22,-175,22,-249
-95,-1,95,48,-95,47,22,-42,23,-154,9,-246
-66,20,86,23,-76,53,35,-59,34,-161,16,-240
-94,3,97,45,-95,50,27,-37,44,-142,56,-230
-14,25,39,-6,-27,31,52,-23,37,-142,52,-229
-12,45,57,-17,-34,51,49,7,42,-124,59,-211
-52,43,94,4,-73,68,50,33,39,-116,59,-189
-1,68,69,-34,-35,68,49,43,42,-102,60,-168
-74,48,122,12,-98,85,60,79,85,-83,80,-158
-60,56,116,1,-88,86,73,107,117,-62,93,-142
-25,78,103,-27,-64,90,66,149,126,-42,88,-128
-27,98,126,-36,-76,112,65,195,153,-18,114,-114
18,134,116,-76,-49,125,63,255,201,14,150,-92
36,145,109,-91,-37,127,57,322,251,60,180,-77
58,191,133,-125,-37,162,60,405,316,133,229,-72
96,229,133,-163,-19,181,52,465,361,178,256,-69
149,235,86,-192,31,160,24,492,395,216,289,-65
152,266,115,-209,18,190,17,526,427,250,315,-61
144,265,121,-205,11,193,13,526,416,256,323,-59
163,258,95,-210,33,176,8,476,409,244,321,-53
89,216,127,-153,-19,171,4,397,376,197,297,-65
38,185,147,-112,-55,166,0,276,288,146,272,-91
53,173,120,-113,-34,146,-10,148,205,80,224,-121
2,119,118,-61,-58,118,-26,42,140,10,181,-153
17,99,82,-58,-33,90,-33,-55,73,-51,140,-177
25,82,57,-53,-16,69,-47,-103,18,-101,135,-187
-23,70,93,-24,-58,81,-48,-130,-10,-113,131,-199
-16,59,75,-22,-45,66,-38,-151,-35,-130,96,-211
-25,41,66,-8,-46,54,-34,-146,-43,-137,95,-213
-35,32,67,1,-51,49,-25,-139,-29,-144,95,-214
-58,1,59,28,-59,30,-21,-133,-47,-156,116,-219
-55,5,60,25,-57,32,-13,-125,-66,-147,128,-223
-10,42,52,-16,-31,46,-3,-122,-58,-144,123,-212
-7,46,52,-20,-30,49,4,-134,-54,-137,126,-202
-1,37,38,-18,-20,37,10,-134,-48,-132,125,-196
-17,36,53,-10,-35,44,4,-128,-42,-128,142,-191
-59,28,87,15,-73,57,-1,-127,-38,-117,147,-186
-53,26,79,13,-66,52,-8,-120,-34,-108,154,-180
-16,59,75,-21,-46,67,-12,-122,-36,-100,178,-175
4,76,72,-40,-34,74,-16,-125,-31,-92,175,-170
-15,49,64,-17,-40,56,-36,-125,-29,-84,184,-166
-19,45,65,-13,-43,55,-38,-125,-32,-77,204,-163
-1,38,39,-19,-20,39,-28,-125,-32,-75,195,-159
-32,13,45,9,-39,29,-23,-129,-42,-75,196,-156
-26,43,69,-9,-48,56,-16,-133,-44,-75,191,-153
-2,52,54,-25,-28,53,-9,-130,-37,-86,189,-148
-15,30,45,-8,-30,37,-19,-127,-34,-90,192,-145
-18,57,75,-20,-46,65,-18,-125,-29,-80,188,-141
-4,88,92,-43,-48,90,5,-121,-25,-75,217,-137
18,80,62,-49,-22,70,18,-120,-17,-67,220,-134
-19,99,118,-41,-69,108,34,-116,-11,-62,229,-131
20,150,130,-86,-55,140,26,-104,1,-55,255,-128
59,174,116,-116,-29,145,-3,-96,2,-45,275,-125
48,229,182,-139,-68,205,-58,-85,23,-36,315,-122
93,203,110,-148,-9,156,-80,-92,32,-23,291,-120
48,115,68,-82,-10,91,-67,-92,-17,-46,250,-126
1,80,79,-41,-39,79,-60,-100,-57,-99,209,-152
-33,18,51,7,-42,35,-53,-137,-82,-123,195,-179
-55,-16,38,35,-47,11,-46,-121,-93,-139,186,-196
-54,-1,53,27,-53,26,-39,-140,-89,-130,182,-183
-39,-3,37,21,-38,17,-38,-120,-84,-127,174,-187
-61,-9,51,34,-56,20,-24,-161,-88,-130,163,-181
-63,-19,44,41,-53,12,-31,-134,-97,-131,183,-177
-41,-11,30,26,-36,9,-8,-137,-105,-144,188,-177
-50,70,120,-10,-85,95,-4,-139,-43,-55,251,-130
52,66,14,-59,19,40,97,263,155,71,308,-125
454,226,-229,-340,342,-1,-152,699,685,696,669,70
996,128,-867,-562,932,-369,-838,945,782,900,706,-35
699,-283,-982,-208,841,-632,-772,220,-66,-40,158,-389
94,-150,-244,29,169,-197,-281,-381,-377,-338,82,-286
-12,-16,-3,14,-4,-10,-52,-81,-131,-137,170,-207
-43,-3,40,23,-41,18,55,-75,-101,-146,174,-212
-42,53,94,-6,-68,73,75,-49,-71,-120,191,-187
-43,22,66,10,-55,44,101,-36,-72,-137,165,-195
-73,27,100,23,-87,63,100,-49,-62,-115,205,-175
-114,6,120,54,-117,63,99,-21,-54,-116,208,-176
-87,30,116,28,-102,73,103,-37,-51,-108,210,-161
-47,53,101,-3,-74,77,126,1,-33,-100,225,-151
-32,70,103,-19,-68,86,139,6,-24,-96,231,-145
-3,78,80,-38,-42,79,132,34,-6,-82,230,-129
-48,66,114,-9,-81,90,138,51,6,-78,229,-134
-80,70,150,4,-115,110,132,82,20,-66,231,-147
-78,60,139,9,-109,99,142,111,38,-58,228,-132
-54,84,138,-15,-96,110,147,138,69,-45,242,-121
-25,110,135,-43,-80,122,158,199,105,-13,268,-88
-21,106,127,-42,-75,116,168,248,127,9,280,-94
16,151,135,-83,-60,143,154,310,176,44,289,-97
43,196,154,-120,-56,175,146,386,233,95,310,-60
59,205,146,-132,-44,175,135,460,281,141,336,-50
96,236,140,-166,-22,188,127,527,337,197,362,-37
142,271,130,-207,5,200,119,562,365,223,387,-39
156,282,126,-220,15,204,95,582,395,250,390,-40
182,296,114,-239,34,205,75,574,407,260,377,-41
183,287,104,-235,39,195,70,511,359,227,357,-38
104,243,139,-173,-17,191,65,406,303,204,339,-48
90,221,131,-156,-20,176,60,286,236,154,313,-71
95,199,104,-147,-5,151,53,156,161,83,264,-84
58,150,92,-104,-17,121,51,52,102,14,217,-114
13,94,81,-54,-35,87,55,-24,36,-49,181,-150
13,63,50,-39,-19,57,55,-79,-10,-85,158,-176
19,71,52,-45,-16,61,57,-109,-19,-101,147,-174
-34,67,101,-17,-68,83,61,-117,-29,-107,135,-170
-25,63,88,-19,-57,75,60,-114,-52,-128,125,-169
-18,61,78,-22,-48,69,57,-111,-62,-134,117,-164
-19,54,73,-18,-46,63,54,-111,-60,-122,113,-164
-3,54,57,-26,-30,55,55,-108,-58,-119,106,-158
-50,33,83,8,-66,58,55,-117,-60,-110,102,-154
-71,27,98,21,-84,62,55,-136,-47,-105,94,-150
-77,12,89,32,-83,50,54,-130,-29,-99,100,-145
-64,13,77,25,-71,45,45,-125,-35,-92,115,-140
-26,52,78,-13,-52,64,36,-122,-29,-86,113,-136
14,69,55,-42,-21,62,28,-116,-24,-79,130,-129
17,80,63,-49,-23,71,17,-113,-21,-72,135,-122
-36,60,96,-12,-66,77,11,-109,-14,-71,125,-116
-11,86,97,-38,-55,91,10,-110,-13,-67,125,-108
-18,56,74,-19,-46,64,10,-107,-6,-69,117,-106
-12,33,44,-11,-28,38,6,-104,-3,-82,118,-109
-1,93,94,-46,-48,93,4,-106,3,-75,139,-113
-30,68,98,-19,-65,83,10,-109,5,-73,139,-114
-25,62,87,-19,-56,74,17,-121,-7,-69,132,-122
-15,67,83,-26,-49,75,10,-130,-3,-63,133,-130
2,56,54,-29,-26,55,-13,-122,5,-85,122,-122
-65,62,127,1,-96,94,15,-116,27,-88,131,-116
-88,67,156,10,-122,112,52,-109,47,-70,141,-109
-48,98,146,-25,-97,122,68,-102,60,-59,150,-102
-5,147,152,-71,-78,149,61,-100,91,-42,153,-93
28,167,139,-98,-56,153,12,-99,89,-31,160,-68
59,211,152,-136,-47,181,-28,-101,96,-15,187,-38
106,231,125,-169,-10,178,-59,-97,97,0,186,-26
45,159,115,-102,-35,136,-60,-104,88,-13,176,-56
4,81,77,-42,-37,79,-56,-99,72,-61,128,-111
-5,45,50,-20,-28,47,-52,-138,31,-90,100,-144
-38,12,50,13,-44,31,-53,-145,26,-91,102,-157
-47,-23,23,35,-35,0,-45,-143,23,-122,85,-156
-10,-33,-23,21,7,-28,-49,-151,25,-122,91,-152
0,-39,-38,20,19,-38,-41,-133,17,-128,69,-160
-50,21,71,14,-60,46,-43,-165,22,-114,84,-150
-25,-13,13,19,-19,0,-41,-108,26,-113,65,-165
-34,42,76,-4,-55,58,-23,-177,38,-67,98,-99
-6,88,94,-41,-50,91,-9,37,148,7,139,-89
233,128,-106,-180,169,11,41,481,526,365,341,-18
814,239,-576,-526,695,-168,-506,785,967,978,670,106
948,-148,-1096,-400,1022,-622,-938,508,434,443,258,-225
328,-262,-589,-33,459,-425,-513,-316,-272,-332,-109,-327
59,-47,-105,-6,82,-76,-165,-265,-128,-212,11,-150
0,-55,-55,28,28,-55,-31,-70,34,-151,18,-150
-83,8,91,38,-87,49,28,-120,78,-134,53,-118
-36,34,70,0,-53,52,43,-62,103,-118,43,-127
-47,48,95,-1,-72,71,51,-119,87,-125,44,-134
-45,45,90,0,-68,67,56,-86,113,-104,48,-138
-17,40,57,-12,-37,48,77,-98,121,-110,41,-134
-44,43,87,0,-65,65,62,-89,122,-94,48,-125
-79,35,114,22,-97,74,65,-82,150,-94,33,-124
-29,65,94,-18,-62,79,59,-89,182,-80,65,-114
-22,75,96,-27,-60,85,53,-89,170,-74,83,-113
-6,76,82,-36,-44,79,63,-86,181,-62,77,-108
13,73,60,-43,-24,66,79,-70,208,-44,83,-107
-48,78,126,-15,-87,102,90,-60,231,-15,74,-103
-65,71,136,-4,-101,103,94,-25,269,14,101,-100
-42,77,118,-18,-80,97,87,11,301,30,128,-98
16,130,114,-73,-49,122,81,73,338,61,126,-73
51,155,105,-103,-27,130,77,148,398,98,158,-43
72,164,92,-118,-10,128,68,205,449,148,188,-17
98,196,97,-147,0,146,51,270,505,205,230,14
107,241,134,-174,-14,187,35,318,549,254,252,34
130,254,124,-192,3,188,26,341,573,289,273,58
144,257,113,-201,15,185,18,341,583,296,291,65
152,260,108,-207,22,184,10,301,557,295,260,57
149,241,92,-195,28,166,3,216,508,263,234,54
109,215,106,-162,1,160,-7,105,438,205,199,50
52,163,111,-108,-30,137,-17,-15,357,155,162,27
26,127,101,-77,-37,114,-30,-138,269,86,126,-15
17,110,93,-63,-38,101,-38,-221,203,26,86,-45
-7,75,82,-34,-45,78,-36,-282,158,-22,59,-57
-33,44,77,-6,-55,61,-32,-309,140,-66,44,-68
-33,37,69,-2,-51,53,-30,-313,138,-73,36,-87
-41,30,71,5,-56,50,-26,-311,127,-88,24,-96
-36,18,54,8,-45,36,-25,-301,124,-96,17,-93
-22,22,45,0,-34,33,-25,-297,115,-92,14,-88
-77,4,81,36,-79,43,-18,-289,116,-104,11,-98
-59,-11,48,35,-53,18,-29,-284,114,-100,8,-95
-28,1,30,13,-29,15,-47,-271,115,-92,5,-71
-77,3,79,37,-78,41,-55,-256,137,-87,5,-59
-37,26,64,5,-50,45,-55,-245,146,-78,17,-44
25,79,54,-52,-15,66,-56,-235,167,-68,49,-22
39,82,43,-61,-2,62,-61,-226,178,-55,62,-4
-7,31,39,-12,-23,35,-59,-215,184,-47,57,9
20,48,28,-34,-5,38,-63,-206,200,-44,53,19
63,69,7,-66,28,38,-65,-195,210,-42,67,42
13,53,40,-33,-14,47,-66,-185,218,-37,76,58
13,57,44,-35,-16,50,-71,-175,208,-37,70,52
19,46,27,-33,-4,37,-67,-169,202,-31,68,61
26,47,20,-37,2,33,-82,-196,195,-38,63,66
-17,43,60,-13,-39,52,-96,-208,185,-49,60,61
-17,47,64,-15,-41,55,-86,-193,187,-41,55,59
34,42,8,-38,13,25,-82,-187,179,-34,51,53
42,56,14,-49,13,35,-76,-179,192,-28,42,70
10,84,74,-48,-32,79,-73,-175,214,-21,50,88
-38,73,111,-18,-74,91,-70,-169,223,-16,82,118
-4,115,119,-56,-62,117,-65,-164,229,-4,79,125
27,141,114,-85,-44,128,-72,-158,223,26,80,127
58,197,139,-127,-41,168,-92,-145,258,54,121,183
66,234,169,-150,-52,201,-109,-122,275,67,121,185
60,142,82,-102,-11,112,-117,-119,240,34,87,154
29,73,44,-51,-8,58,-106,-135,203,-16,53,125
-25,32,57,-4,-42,44,-89,-170,171,-29,13,108
11,-11,-22,0,16,-16,-109,-182,172,-59,-16,109
-36,-44,-8,40,-14,-26,-113,-206,163,-81,-25,100
-25,-35,-10,30,-7,-23,-120,-195,167,-59,-16,104
13,-31,-44,9,29,-37,-109,-185,158,-72,-24,89
-40,-30,10,35,-25,-10,-123,-206,161,-47,-19,102
-10,-49,-39,30,15,-44,-117,-152,157,-58,-33,77
-35,23,58,6,-47,40,-95,-242,152,-33,28,109
-18,42,59,-12,-38,50,-76,50,303,83,73,138
217,137,-80,-177,148,29,-51,469,760,569,354,263
758,269,-488,-513,623,-110,-608,707,1259,1298,743,413
852,-163,-1016,-344,934,-589,-964,413,655,667,281,78
258,-280,-538,11,398,-409,-526,-381,-176,-253,-176,-79
32,-48,-80,8,56,-64,-203,-290,-28,-133,-103,44
13,-50,-63,19,38,-56,-83,-112,124,-83,-91,45
-71,3,73,34,-72,38,-42,-153,137,-90,-56,67
-74,-18,56,45,-65,19,-28,-89,154,-72,-61,50
-95,-12,83,53,-89,35,-5,-129,136,-83,-61,53
-88,-1,88,44,-88,44,-2,-90,152,-63,-52,48
-48,3,52,22,-50,27,9,-86,140,-72,-59,42
-63,31,94,16,-79,62,6,-49,146,-50,-50,43
-92,7,99,42,-96,53,13,-38,139,-51,-51,35
-34,20,55,7,-45,37,13,-26,168,-36,-38,35
-62,21,83,20,-73,51,17,1,173,-29,-36,30
-72,33,106,19,-89,69,30,19,176,-15,-27,24
-8,83,91,-38,-50,87,45,37,203,-4,-20,30
19,99,80,-59,-31,89,44,60,206,5,-10,26
-9,95,105,-43,-57,100,52,113,244,41,26,33
-22,104,126,-41,-74,114,73,159,284,66,44,67
24,110,86,-67,-31,98,67,212,307,93,58,67
8,134,126,-71,-59,130,66,290,369,144,95,76
29,181,153,-105,-62,167,59,362,425,200,134,82
69,203,134,-136,-33,168,25,413,463,243,168,101
97,237,140,-167,-21,188,7,460,499,294,205,125
142,248,106,-195,18,177,-3,484,503,321,226,119
135,251,116,-194,10,183,-11,464,498,318,231,120
115,264,149,-190,-17,206,-33,426,474,330,240,115
85,224,139,-155,-27,181,-53,353,428,288,212,115
54,192,138,-123,-42,165,-49,237,344,218,171,102
34,168,133,-101,-50,150,-56,120,246,154,139,61
-2,128,130,-63,-66,128,-54,8,166,80,101,26
-29,97,126,-34,-78,111,-57,-80,86,19,58,1
-31,84,115,-27,-72,99,-64,-137,54,-33,29,-44
-9,98,107,-44,-58,102,-57,-167,35,-50,21,-83
-45,54,98,-5,-71,76,-49,-163,19,-57,18,-82
-82,5,87,38,-84,46,-40,-168,-10,-82,13,-86
-57,26,83,15,-70,54,-37,-182,-34,-107,8,-105
-91,-3,88,47,-89,42,-20,-173,-22,-106,7,-104
-117,-19,98,67,-107,39,-43,-191,-60,-119,-40,-128
-123,1,124,61,-124,62,-41,-201,-63,-129,-38,-126
-96,20,116,38,-106,68,2,-177,-38,-110,3,-85
-45,13,59,16,-52,36,-16,-168,-51,-98,-19,-106
-109,-8,101,58,-105,46,-31,-157,-42,-80,-10,-108
-109,4,113,52,-111,58,-38,-150,-37,-67,16,-89
-63,32,94,15,-79,63,-51,-146,-32,-56,39,-90
-84,76,160,4,-122,117,-49,-140,-25,-48,49,-88
-18,81,99,-32,-59,90,-51,-137,-23,-52,36,-92
-35,89,125,-27,-80,107,-50,-130,-16,-49,58,-87
-46,96,142,-25,-94,118,-50,-132,-17,-51,77,-95
1,85,84,-43,-42,84,-72,-137,-37,-50,74,-89
-62,84,147,-11,-105,115,-81,-140,-48,-48,75,-79
-53,75,128,-11,-91,101,-72,-146,-49,-56,75,-112
-31,72,103,-21,-67,88,-70,-151,-55,-57,75,-115
-46,69,114,-12,-80,91,-64,-164,-57,-68,71,-105
-33,71,104,-19,-68,87,-60,-167,-71,-75,64,-106
-34,69,103,-18,-68,86,-63,-155,-82,-67,59,-97
-54,75,129,-11,-91,101,-66,-144,-73,-61,83,-96
-4,110,114,-53,-60,112,-64,-136,-62,-57,103,-82
-9,141,150,-67,-79,145,-66,-129,-57,-48,103,-67
-48,161,209,-57,-129,185,-64,-126,-62,-35,118,-61
-7,200,207,-97,-108,203,-67,-118,-58,-19,147,-50
32,245,212,-139,-90,228,-87,-114,-62,23,165,-38
53,181,129,-117,-38,155,-88,-109,-57,-1,140,-37
18,79,61,-49,-22,70,-84,-103,-67,-56,72,-84
15,51,36,-34,-11,44,-75,-151,-130,-88,59,-135
-4,28,32,-12,-18,30,-79,-139,-143,-112,80,-149
-32,11,43,11,-38,27,-62,-154,-137,-106,55,-148
6,12,6,-9,-1,9,-84,-180,-145,-114,58,-146
-21,-10,11,15,-16,0,-100,-144,-164,-151,31,-169
-40,-4,36,22,-37,16,-98,-178,-156,-131,46,-141
12,-15,-27,2,20,-21,-108,-115,-154,-146,67,-148
-41,48,88,-4,-65,68,-62,-188,-145,-128,82,-114
-24,68,92,-22,-58,80,-42,-4,-36,-35,113,-82
177,118,-59,-148,118,30,14,444,329,328,311,14
722,284,-438,-503,580,-76,-466,813,887,1050,702,179
971,-79,-1051,-446,1010,-565,-944,657,456,629,372,-141
347,-287,-634,-30,491,-460,-565,-236,-398,-292,-96,-313
-9,-58,-48,34,20,-53,-172,-297,-324,-227,-10,-158
-12,-32,-19,22,4,-26,-30,-49,-148,-127,28,-155
-59,5,65,27,-62,35,23,-82,-145,-124,43,-118
-43,28,72,7,-58,50,58,-22,-126,-110,53,-125
-47,47,94,0,-71,70,78,-88,-141,-147,50,-144
-5,74,79,-35,-42,76,63,-49,-124,-123,53,-142
-5,65,70,-30,-38,67,68,-48,-135,-126,38,-141
-52,61,113,-5,-83,87,66,-9,-124,-106,47,-133
-47,50,97,-1,-73,74,99,17,-112,-103,65,-133
-49,42,92,3,-71,67,99,19,-99,-89,74,-127
-7,70,77,-32,-42,73,92,56,-88,-80,61,-122
14,93,79,-54,-33,86,94,61,-84,-71,69,-109
-43,71,114,-14,-79,93,82,87,-73,-64,78,-101
-15,81,96,-33,-56,88,97,120,-46,-58,92,-90
-49,105,154,-28,-102,129,130,167,-13,-25,115,-82
-10,140,150,-65,-81,145,131,204,23,-4,130,-74
53,156,103,-105,-25,129,127,266,64,38,163,-60
21,157,136,-89,-58,146,144,349,116,96,192,-47
48,194,146,-121,-49,170,136,422,169,142,209,-32
61,211,150,-136,-45,180,120,493,220,192,239,-13
85,227,142,-156,-29,184,90,552,277,250,265,19
114,254,140,-184,-13,196,54,562,300,271,265,32
111,246,136,-179,-13,191,65,559,293,277,253,26
105,237,132,-171,-14,184,63,546,287,282,246,23
100,228,128,-164,-14,178,50,456,257,246,236,17
68,190,122,-129,-27,155,44,345,192,198,212,14
34,153,119,-94,-43,136,32,209,110,142,167,-32
9,122,113,-65,-52,117,31,86,29,83,121,-66
-24,86,110,-31,-67,98,30,19,-31,32,92,-87
-52,51,103,0,-78,77,30,-50,-86,-13,77,-115
-72,23,95,24,-84,59,31,-94,-127,-39,61,-107
-83,4,87,40,-85,45,28,-119,-141,-73,47,-112
-101,-21,80,61,-90,29,36,-130,-156,-86,33,-107
-79,-12,68,45,-73,28,28,-136,-175,-83,25,-115
-71,-7,64,38,-67,28,36,-137,-182,-101,25,-135
-80,0,79,40,-80,39,53,-129,-179,-98,25,-132
-86,7,92,39,-89,50,30,-125,-179,-94,26,-149
-139,-30,109,84,-123,39,46,-118,-186,-91,24,-143
-143,-35,108,89,-125,37,67,-114,-184,-86,26,-128
-97,-19,78,58,-87,29,45,-109,-173,-84,22,-125
-63,-7,56,35,-59,24,33,-103,-167,-75,34,-118
-83,10,93,36,-88,51,29,-100,-159,-65,58,-115
-70,20,90,25,-81,55,30,-95,-153,-54,62,-109
-59,22,81,18,-70,51,30,-91,-146,-53,58,-106
-112,17,129,47,-121,73,30,-89,-139,-55,64,-101
-92,16,109,38,-101,62,30,-91,-133,-55,86,-100
-77,12,89,32,-83,50,25,-89,-124,-60,92,-99
-82,10,92,36,-87,51,25,-96,-149,-60,88,-107
-76,8,84,34,-80,46,24,-111,-174,-59,91,-124
-80,-2,78,41,-79,38,19,-100,-167,-53,89,-105
-103,-6,97,55,-100,45,20,-105,-166,-48,89,-106
-125,-17,109,71,-117,46,17,-130,-162,-43,84,-137
-124,-21,103,72,-113,41,2,-124,-161,-36,84,-131
-94,-3,91,48,-93,44,24,-118,-154,-31,86,-119
-52,33,85,9,-69,59,61,-110,-128,-25,82,-111
-72,54,126,9,-99,90,66,-105,-119,-16,104,-92
-49,75,124,-13,-86,99,57,-98,-120,-7,109,-81
1,119,118,-60,-59,118,49,-104,-120,0,116,-80
3,163,160,-83,-79,161,33,-122,-120,38,158,-80
19,162,143,-91,-62,152,13,-117,-120,47,157,-80
13,79,66,-47,-27,73,-1,-125,-123,13,119,-82
-35,17,52,9,-44,34,1,-112,-148,-21,63,-106
-60,-7,52,33,-56,22,0,-138,-173,-54,41,-135
-63,-73,-10,68,-26,-41,-2,-151,-185,-80,31,-144
-88,-93,-5,91,-42,-48,4,-163,-196,-82,27,-127
-67,-84,-16,76,-25,-50,-11,-144,-193,-76,26,-139
-47,-89,-42,68,-2,-65,-1,-145,-192,-87,13,-169
-101,-72,29,87,-65,-21,-2,-146,-189,-70,22,-145
-129,-93,36,110,-82,-28,17,-111,-210,-98,-16,-126
-122,-18,105,70,-113,44,10,-192,-159,-38,46,-48
-73,-3,70,38,-71,33,94,121,-28,50,93,-45
239,117,-122,-178,180,-2,6,587,417,531,376,90
869,154,-715,-511,792,-281,-682,954,739,985,607,115
812,-263,-1075,-274,943,-669,-856,488,35,226,122,-235
154,-256,-410,51,282,-332,-353,-350,-485,-301,-115,-226
-8,-56,-48,32,20,-52,-63,-175,-275,-113,-20,-128
-68,-60,8,64,-38,-26,65,-65,-201,-107,-9,-138
-115,-23,93,69,-104,35,105,-81,-175,-79,27,-102
-107,-41,67,74,-87,13,120,-28,-163,-86,6,-124
-150,-26,125,88,-138,49,139,-60,-163,-82,39,-107
-100,-27,73,64,-86,22,144,-19,-148,-74,40,-112
-111,-26,85,68,-97,29,143,-35,-150,-79,34,-110
-130,-18,112,74,-121,47,135,-10,-132,-68,35,-105
-133,-18,114,75,-123,48,136,13,-126,-66,25,-101
-120,-2,118,60,-118,58,153,46,-109,-50,59,-93
-117,-8,110,62,-113,51,163,55,-97,-44,65,-91
-117,18,134,49,-126,76,158,72,-84,-28,61,-82
-105,28,134,38,-120,81,163,115,-56,-14,58,-80
-114,21,135,46,-124,78,174,148,-18,-3,52,-71
-79,48,127,15,-103,87,172,192,19,13,73,-68
-73,61,134,6,-104,97,165,240,33,29,77,-51
-46,92,138,-24,-92,115,164,302,79,74,107,-12
-2,110,113,-54,-58,111,155,388,144,126,140,-4
-1,131,132,-65,-67,131,163,460,193,171,141,15
30,167,137,-99,-54,152,170,520,250,226,180,51
55,183,128,-119,-36,155,145,565,283,255,247,55
82,211,129,-146,-24,169,118,577,318,293,277,61
104,229,125,-168,-11,177,100,563,343,306,272,63
101,220,120,-161,-10,170,88,515,319,292,268,53
56,189,132,-123,-38,160,78,427,268,264,236,49
9,155,146,-82,-69,151,71,313,219,211,195,38
-13,127,140,-57,-76,133,66,190,142,144,155,17
-30,86,116,-28,-73,101,61,81,56,68,116,-1
-31,47,78,-8,-55,63,54,-10,13,23,75,-30
-33,41,74,-4,-54,57,51,-66,-31,-5,27,-64
-61,8,69,26,-65,39,43,-100,-77,-16,9,-76
-92,-25,67,58,-80,21,42,-118,-92,-56,-1,-98
-80,-19,61,49,-71,21,34,-115,-89,-82,-14,-97
-87,-27,60,58,-74,16,37,-126,-94,-80,-27,-79
-96,-45,51,70,-73,3,53,-123,-96,-92,-42,-109
-73,-37,36,55,-54,0,43,-119,-95,-86,-39,-120
-123,-35,87,79,-105,26,65,-117,-88,-84,-36,-107
-127,-64,63,95,-95,0,75,-111,-77,-80,-33,-104
-105,-61,44,82,-74,-8,60,-109,-68,-75,-30,-95
-102,-51,50,76,-76,0,57,-104,-58,-73,-29,-90
-63,-50,13,56,-38,-18,46,-106,-53,-63,-25,-85
-86,-40,46,63,-66,3,41,-103,-48,-57,-26,-85
-100,-39,60,69,-80,10,34,-99,-43,-47,-23,-84
-78,-14,64,46,-71,25,27,-101,-39,-42,-20,-79
-21,2,23,9,-22,12,21,-96,-34,-44,-20,-81
-77,-46,31,61,-54,-7,14,-95,-31,-46,-20,-77
-128,-63,65,96,-97,1,9,-94,-29,-45,-20,-69
-85,-57,28,71,-57,-14,5,-87,-30,-45,-20,-61
-133,-56,77,94,-104,10,0,-99,-24,-45,-20,-53
-101,-51,50,76,-76,0,-2,-115,-26,-42,-20,-45
-69,-52,18,60,-43,-16,-7,-117,-22,-40,-21,-40
-74,-45,29,59,-52,-7,-10,-111,-7,-32,-27,-32
-80,-77,2,78,-41,-37,-6,-131,-36,-40,-34,-26
-38,-35,3,37,-21,-16,2,-142,-37,-45,-37,-19
-7,10,17,-2,-12,13,27,-113,1,-22,-22,-13
-75,-32,44,53,-59,6,50,-109,14,-13,-13,-7
-50,10,60,20,-55,35,62,-111,50,-3,-2,10
-60,43,103,8,-82,73,33,-105,68,8,7,18
-58,68,126,-5,-92,97,-8,-107,62,30,30,60
29,147,118,-88,-45,132,-12,-103,76,69,74,98
19,95,76,-57,-29,85,-31,-107,75,52,52,69
-3,-26,-23,14,10,-24,-57,-103,46,-9,-16,14
-11,-69,-58,40,24,-63,-48,-131,12,-38,-47,-22
-32,-101,-69,66,19,-85,-47,-145,5,-41,-53,-23
-12,-106,-93,59,41,-99,-38,-132,-1,-65,-79,-30
-19,-114,-95,67,38,-104,-34,-153,-1,-57,-79,-24
-51,-162,-111,107,30,-136,-31,-138,-7,-71,-92,-37
-64,-139,-74,102,5,-106,-30,-172,-11,-60,-70,-12
-57,-163,-106,110,24,-134,-55,-118,-1,-68,-92,-34
-66,-113,-47,90,-9,-79,-16,-166,14,-75,-87,-17
-31,-49,-18,40,-7,-33,12,-36,92,25,-12,41
123,-17,-139,-53,131,-78,83,395,385,290,124,91
622,158,-464,-389,543,-153,-323,704,933,1008,535,287
946,-159,-1105,-393,1026,-632,-890,623,652,798,307,55
423,-405,-828,-9,626,-616,-597,-179,-221,-185,-236,-168
22,-193,-215,86,119,-204,-187,-351,-242,-228,-213,-48
-14,-173,-158,94,72,-165,-21,-69,-14,-100,-183,-44
-37,-120,-83,79,23,-101,63,-113,3,-97,-166,-9
-7,-96,-89,52,42,-92,69,-45,45,-58,-158,1
-46,-104,-58,76,6,-81,117,-64,41,-101,-164,19
-84,-109,-25,96,-29,-66,106,-43,47,-80,-149,32
-132,-143,-11,138,-60,-77,112,-30,59,-82,-156,38
-83,-125,-42,104,-20,-84,110,-23,73,-66,-144,56
-47,-131,-85,89,19,-108,109,1,88,-61,-143,46
-65,-121,-56,94,-4,-89,110,14,97,-52,-132,51
-56,-121,-65,89,4,-92,88,43,116,-43,-128,69
-118,-116,2,117,-60,-57,117,65,133,-34,-120,84
-122,-103,19,113,-70,-42,138,92,129,-21,-115,78
-74,-97,-23,86,-25,-60,133,121,154,-9,-104,81
-64,-82,-19,73,-22,-50,136,162,180,12,-89,80
-39,-72,-33,55,-3,-52,133,201,205,35,-76,80
-17,-43,-27,30,5,-35,139,271,252,84,-59,95
-11,-24,-13,17,1,-18,144,326,285,123,-36,123
16,36,20,-27,-2,28,129,398,331,175,-4,149
50,92,42,-71,4,67,104,461,381,231,23,167
68,89,22,-79,23,55,87,494,415,268,50,192
104,101,-3,-103,53,49,81,526,448,313,58,222
112,112,0,-112,56,56,74,527,454,320,47,226
154,141,-13,-147,84,64,66,488,423,310,40,220
191,130,-60,-161,125,35,59,409,387,298,33,239
106,84,-22,-95,63,31,53,317,332,262,17,228
51,30,-21,-40,35,4,47,202,235,201,-28,187
42,-12,-54,-15,48,-33,42,87,134,133,-72,158
27,-25,-52,-1,40,-38,39,-27,66,81,-121,144
-25,-65,-40,45,7,-52,33,-96,27,35,-158,134
-49,-86,-36,68,-6,-61,30,-127,-23,-17,-171,122
-43,-103,-60,73,9,-81,30,-160,-48,-42,-200,115
-65,-122,-57,93,-3,-89,30,-161,-51,-53,-213,110
-11,-104,-93,58,41,-98,29,-174,-65,-63,-215,105
-40,-97,-56,69,8,-76,31,-171,-60,-57,-219,102
-87,-139,-51,114,-18,-95,29,-163,-78,-86,-237,94
-86,-142,-56,114,-15,-99,32,-162,-86,-95,-243,98
-84,-115,-31,99,-26,-72,45,-151,-74,-85,-229,125
-16,-101,-86,59,35,-93,42,-155,-71,-74,-221,132
-60,-103,-43,81,-8,-72,36,-158,-61,-42,-210,128
-21,-70,-49,45,14,-59,33,-150,-57,-31,-202,132
22,-61,-83,20,53,-72,27,-142,-48,-23,-194,141
-38,-105,-67,72,15,-85,24,-134,-36,-15,-186,160
-19,-93,-74,56,28,-83,18,-132,-35,-8,-179,156
-64,-124,-60,94,-2,-92,11,-136,-35,2,-174,164
-37,-115,-78,76,20,-96,4,-139,-35,17,-175,189
14,-87,-101,36,58,-94,-2,-140,-36,28,-175,184
-15,-112,-97,64,41,-104,-10,-151,-33,23,-175,178
-32,-123,-91,78,30,-107,-6,-157,-44,16,-175,173
-29,-120,-91,75,31,-106,0,-154,-49,9,-172,167
-29,-112,-83,71,27,-97,6,-175,-58,2,-167,162
-27,-113,-86,70,30,-100,12,-191,-76,-4,-164,159
-26,-100,-74,63,24,-86,15,-190,-68,-10,-161,156
-54,-126,-72,90,9,-98,29,-191,-61,3,-156,155
-5,-94,-89,50,42,-92,41,-190,-55,13,-153,175
-10,-53,-43,32,17,-48,59,-190,-46,28,-146,184
-33,-68,-36,51,2,-52,62,-188,-44,51,-134,189
-6,-15,-9,10,2,-12,53,-183,-31,49,-133,202
-1,40,41,-20,-21,40,24,-187,-21,58,-135,223
40,81,41,-60,-1,61,-11,-179,6,91,-134,257
6,26,20,-16,-7,23,-11,-181,12,84,-136,249
25,-72,-97,24,61,-84,-17,-180,-35,40,-134,200
12,-124,-136,56,75,-130,-13,-202,-76,-9,-149,158
-66,-185,-120,126,27,-153,-16,-216,-95,-32,-166,146
-59,-196,-138,128,39,-167,-14,-199,-111,-43,-175,127
-63,-180,-118,122,28,-149,-14,-236,-114,-43,-187,130
-59,-215,-156,137,48,-185,-18,-223,-127,-55,-214,104
-79,-200,-121,140,21,-160,-10,-253,-125,-44,-198,113
-67,-195,-128,131,30,-161,-24,-196,-112,-29,-188,118
-94,-175,-82,135,-6,-128,2,-263,-140,-42,-168,119
-99,-126,-27,113,-36,-76,43,-170,-39,34,-110,182
33,-96,-130,32,82,-113,143,292,277,308,28,239
524,127,-396,-325,460,-134,-245,641,865,1078,475,445
922,-110,-1032,-406,977,-571,-827,671,722,998,335,262
427,-434,-861,4,645,-648,-574,-143,-230,-54,-252,-24
-6,-231,-225,119,109,-227,-150,-441,-376,-216,-265,99
-64,-197,-133,130,35,-164,39,-146,-161,-78,-214,132
-141,-187,-47,164,-47,-117,121,-195,-154,-99,-218,158
-116,-133,-16,124,-50,-74,118,-135,-110,-61,-196,164
-173,-164,10,168,-91,-77,148,-155,-124,-81,-205,154
-176,-174,2,175,-89,-86,131,-142,-104,-54,-184,166
-123,-168,-45,146,-39,-106,156,-125,-104,-62,-190,154
-140,-152,-13,146,-63,-82,174,-114,-96,-48,-176,167
-145,-147,-2,146,-72,-74,166,-87,-89,-45,-175,162
-94,-136,-41,115,-26,-88,173,-93,-82,-39,-167,166
-63,-130,-67,97,2,-98,167,-62,-68,-29,-162,168
-73,-121,-47,97,-13,-84,173,-51,-62,-26,-157,170
-66,-114,-48,90,-9,-81,179,-30,-42,-16,-144,171
-62,-105,-43,84,-9,-74,178,9,-28,-7,-132,168
-69,-95,-26,82,-21,-60,198,52,-6,23,-121,182
-27,-83,-57,55,15,-70,217,88,29,52,-102,191
-50,-69,-19,60,-15,-44,216,147,70,75,-68,203
-94,-44,50,69,-72,3,210,213,114,108,-41,213
-23,0,22,11,-22,11,202,278,168,158,-34,234
24,50,26,-37,-2,38,195,350,222,219,-10,264
58,78,20,-68,18,49,187,404,254,265,20,278
76,93,18,-85,29,55,181,433,275,297,43,301
102,116,14,-110,43,65,174,446,307,337,67,307
140,133,-7,-137,73,63,167,438,300,339,61,322
127,133,7,-130,59,70,161,354,229,291,43,319
77,89,12,-83,32,50,154,232,156,241,12,297
30,51,20,-41,5,35,148,123,70,182,-29,297
5,36,31,-21,-13,33,145,-5,-18,125,-80,267
-41,-35,6,38,-24,-15,142,-104,-92,65,-120,238
-71,-83,-12,77,-29,-47,139,-182,-145,4,-155,229
-76,-62,14,69,-45,-24,137,-225,-179,-30,-184,210
-65,-77,-11,71,-27,-44,134,-236,-213,-57,-178,173
-72,-108,-36,90,-18,-71,139,-259,-230,-70,-180,163
-91,-130,-38,111,-26,-84,139,-261,-241,-84,-181,159
-94,-144,-49,119,-23,-96,142,-258,-240,-91,-178,154
-114,-138,-23,127,-45,-80,146,-265,-239,-85,-186,151
-120,-138,-18,129,-51,-77,143,-269,-241,-83,-188,143
-96,-134,-39,115,-28,-86,159,-264,-239,-78,-181,163
-88,-135,-47,112,-20,-91,163,-258,-237,-76,-174,170
-83,-127,-44,106,-19,-85,155,-253,-230,-70,-168,170
-73,-111,-38,92,-17,-74,152,-247,-227,-61,-159,168
-62,-106,-43,84,-9,-74,144,-243,-222,-52,-146,173
-56,-79,-23,68,-16,-51,140,-239,-218,-44,-135,187
-63,-92,-30,78,-16,-61,135,-237,-213,-38,-128,182
-38,-98,-60,69,11,-79,134,-233,-210,-34,-124,210
-8,-58,-50,34,21,-54,135,-232,-210,-30,-120,222
-36,-102,-67,69,16,-84,128,-226,-205,-25,-114,209
-36,-121,-85,79,25,-103,132,-232,-206,-22,-112,211
2,-100,-102,49,52,-101,128,-239,-217,-13,-99,202
-57,-104,-47,81,-5,-76,127,-255,-245,-40,-116,201
-86,-81,4,84,-45,-38,149,-278,-259,-63,-138,204
-80,-108,-28,94,-26,-68,151,-274,-240,-51,-129,205
-99,-149,-50,124,-24,-99,146,-275,-230,-51,-129,206
-87,-156,-69,122,-9,-112,143,-275,-240,-45,-123,203
-82,-120,-37,101,-22,-78,151,-275,-241,-41,-120,207
-69,-61,8,65,-38,-26,161,-271,-230,-34,-114,200
-84,-69,14,76,-49,-27,178,-260,-222,-17,-91,204
-77,-50,27,63,-52,-11,201,-254,-216,-6,-75,228
-74,-21,53,48,-64,16,185,-242,-197,12,-61,238
-43,30,73,6,-58,52,142,-242,-179,39,-49,277
17,101,84,-59,-34,92,125,-237,-168,75,-42,299
5,19,14,-12,-5,16,143,-238,-175,73,-37,268
-20,-98,-78,59,29,-88,140,-231,-217,7,-90,215
-80,-157,-77,119,-2,-116,136,-263,-251,-40,-143,179
-97,-166,-69,132,-14,-117,128,-285,-271,-58,-149,182
-82,-171,-89,127,4,-130,126,-260,-284,-71,-156,177
-105,-189,-84,148,-11,-136,116,-283,-277,-55,-152,184
-82,-193,-111,138,15,-151,135,-288,-282,-65,-176,175
-52,-167,-115,110,32,-141,147,-319,-279,-51,-155,185
-56,-179,-124,118,34,-151,124,-269,-279,-57,-174,168
-119,-149,-29,134,-45,-89,152,-325,-255,-34,-144,184
-98,-113,-16,105,-41,-64,183,-182,-175,25,-88,215
68,-78,-145,5,107,-111,243,263,131,297,52,269
603,86,-517,-344,560,-215,-234,667,684,989,445,428
905,-221,-1125,-342,1014,-673,-746,581,345,673,169,205
338,-447,-784,55,561,-615,-399,-310,-487,-218,-304,-1
-3,-228,-225,116,111,-226,16,-477,-462,-191,-208,142
-53,-194,-141,124,44,-167,179,-230,-293,-96,-172,170
-151,-168,-17,160,-67,-92,237,-285,-287,-85,-171,169
-146,-167,-21,157,-63,-93,246,-218,-252,-67,-161,174
-183,-169,13,176,-97,-78,258,-250,-260,-95,-164,172
-175,-158,18,166,-96,-70,270,-225,-237,-44,-152,178
-155,-165,-9,160,-73,-87,289,-225,-238,-115,-154,168
-159,-154,5,156,-82,-74,281,-223,-228,-122,-146,172
-164,-154,10,158,-86,-71,277,-207,-220,-118,-140,164
-155,-142,13,149,-84,-64,277,-209,-208,-90,-148,160
-173,-139,34,156,-103,-52,311,-185,-191,-129,-142,177
-129,-130,-1,130,-64,-65,322,-179,-164,-99,-108,196
