I,II,III,aVR,aVL,aVF,V1,V2,V3,V4,V5,V6
-113,193,306,-40,-210,249,-155,-654,-655,138,318,504
-166,70,236,48,-202,153,-71,-493,-598,-135,-15,234
-160,37,196,61,-178,117,-19,-251,-380,-212,-185,79
-104,60,165,22,-135,112,-29,-171,-281,-150,-102,110
-80,52,132,14,-106,92,-22,-150,-271,-176,-151,77
-90,63,152,13,-121,107,-38,-139,-276,-173,-152,85
-92,59,151,16,-122,105,-56,-137,-284,-177,-148,86
-84,59,143,12,-114,101,-54,-128,-271,-167,-151,82
-79,61,140,9,-110,100,-56,-126,-263,-158,-140,88
-74,59,133,7,-103,95,-54,-117,-248,-155,-145,81
-67,62,129,2,-98,95,-56,-109,-234,-144,-136,88
-44,80,124,-18,-84,102,-54,-100,-228,-141,-136,88
-29,97,125,-35,-77,111,-56,-90,-217,-131,-121,95
-24,98,122,-37,-73,110,-54,-73,-198,-128,-114,98
-13,107,120,-47,-67,113,-56,-63,-180,-106,-102,104
-6,112,118,-53,-63,115,-71,-54,-164,-91,-83,121
-17,131,147,-57,-82,139,-77,-25,-135,-73,-64,140
-20,143,163,-62,-92,153,-70,16,-101,-36,-40,167
10,171,161,-91,-76,166,-71,59,-55,4,7,203
47,214,167,-131,-61,190,-99,101,5,60,57,239
79,252,173,-166,-47,212,-105,154,72,136,117,298
109,304,195,-207,-43,249,-127,208,151,226,204,366
163,346,183,-255,-10,265,-172,239,209,300,266,415
203,404,201,-303,1,302,-177,264,263,378,336,481
197,449,252,-323,-28,350,-184,273,322,446,408,538
195,448,253,-322,-29,350,-183,260,321,446,410,535
181,426,245,-303,-33,335,-163,241,276,401,360,495
133,372,240,-253,-54,306,-136,200,208,320,279,435
72,302,230,-187,-80,266,-103,134,112,208,183,355
19,237,217,-128,-99,227,-85,55,9,92,88,276
-13,190,203,-88,-108,196,-72,-25,-96,-12,5,215
-41,150,191,-55,-116,170,-60,-89,-177,-83,-60,175
-63,113,176,-25,-120,144,-55,-139,-233,-138,-102,136
-69,96,165,-13,-117,130,-50,-168,-270,-174,-127,109
-68,85,153,-9,-111,119,-44,-180,-277,-176,-137,104
-65,77,142,-6,-104,109,-39,-180,-280,-178,-136,102
-63,71,135,-4,-99,103,-33,-172,-275,-182,-135,99
-73,63,135,4,-104,99,-30,-166,-267,-185,-135,95
-78,55,133,11,-106,94,-30,-159,-261,-184,-135,95
-78,51,130,13,-104,90,-28,-153,-254,-180,-135,100
-74,56,130,9,-102,93,-25,-147,-249,-178,-136,100
-52,77,129,-13,-91,103,-25,-145,-245,-174,-140,99
-54,86,141,-16,-98,113,-29,-145,-243,-172,-151,100
-62,84,147,-11,-105,115,-30,-142,-240,-170,-146,99
-52,89,140,-19,-96,115,-30,-139,-237,-167,-131,103
-50,90,140,-20,-95,115,-34,-141,-235,-162,-126,112
-46,89,135,-22,-91,112,-36,-145,-235,-159,-125,111
-50,84,135,-17,-93,109,-33,-145,-235,-156,-125,110
-52,78,130,-13,-91,103,-30,-147,-235,-151,-125,109
-51,70,122,-10,-87,96,-29,-151,-235,-151,-125,105
-52,65,117,-7,-85,91,-31,-149,-235,-155,-128,104
-52,55,107,-2,-80,81,-29,-151,-234,-157,-130,110
-45,59,105,-7,-75,82,-30,-154,-230,-161,-131,118
-21,75,96,-27,-59,85,-42,-155,-230,-161,-135,115
-30,76,106,-23,-69,91,-43,-155,-230,-158,-134,111
-41,69,110,-14,-76,89,-33,-155,-230,-152,-130,109
-38,47,85,-5,-61,66,-28,-155,-230,-149,-130,105
-58,34,92,12,-75,63,-20,-155,-227,-143,-130,105
-62,31,93,16,-77,62,-15,-155,-222,-140,-130,113
-58,25,82,16,-70,54,-26,-150,-219,-150,-130,120
-60,22,82,19,-71,52,-32,-146,-215,-151,-128,120
-55,16,71,19,-63,43,-29,-144,-211,-144,-122,120
-61,12,73,24,-68,43,-30,-139,-208,-141,-117,120
-79,10,89,34,-84,49,-30,-136,-205,-136,-114,119
-71,6,77,32,-75,42,-30,-132,-205,-132,-109,121
-54,5,59,25,-57,31,-30,-128,-203,-127,-104,124
-55,0,55,27,-55,27,-30,-125,-199,-125,-101,126
-50,0,50,25,-50,25,-29,-122,-201,-125,-96,131
-43,5,48,19,-46,26,-31,-117,-195,-121,-94,127
-34,10,43,12,-38,26,-35,-116,-187,-120,-89,125
-26,14,40,6,-33,27,-30,-129,-179,-120,-86,125
-31,13,43,9,-37,27,-22,-121,-170,-115,-82,122
-37,9,46,13,-42,28,-17,-112,-164,-112,-79,119
-45,3,48,21,-47,25,-9,-104,-133,-107,-80,122
-23,30,53,-4,-39,42,-4,-68,-110,-98,-73,141
-12,64,76,-26,-44,70,1,-71,-111,-87,-65,146
-9,73,82,-32,-45,77,6,-83,-105,-77,-58,144
11,73,62,-42,-26,67,-9,-79,-105,-63,-49,150
-6,83,89,-38,-48,85,-47,-96,-97,-53,-43,150
8,114,107,-61,-50,110,-87,-121,-108,-50,-32,148
41,106,65,-74,-12,85,-107,-136,-118,-49,-28,144
43,89,46,-66,-2,67,-110,-115,-96,-47,-11,136
16,54,37,-35,-11,45,-83,-91,-84,-38,-5,134
-9,8,17,1,-13,12,-56,-104,-105,-56,-50,115
-7,-14,-6,10,0,-9,-63,-122,-138,-76,-73,86
-1,-48,-48,24,24,-48,-58,-103,-132,-92,-79,86
13,-51,-63,19,38,-57,-62,-92,-118,-89,-76,87
-12,-54,-42,33,16,-48,-53,-94,-116,-75,-68,76
-26,-58,-32,42,3,-45,-28,-80,-112,-71,-65,71
-7,-58,-51,32,22,-54,-30,-85,-108,-63,-57,64
-3,-65,-62,34,29,-63,-25,-61,-109,-79,-71,54
-7,-50,-44,29,18,-47,-17,-80,-101,-60,-67,50
-13,-118,-104,66,46,-111,42,21,-93,-147,-149,-23
-46,-134,-88,90,21,-110,212,229,-13,-224,-236,-97
60,180,120,-120,-30,150,161,460,353,129,81,169
381,730,349,-555,16,539,-333,540,1235,1393,1140,981
375,863,488,-619,-57,675,-524,24,1450,2255,1818,1428
68,373,305,-221,-119,339,-161,-307,250,1074,940,798
-68,-42,26,55,-47,-8,109,-139,-415,-54,22,182
-60,-104,-44,83,-8,-74,116,-45,-191,-67,-72,105
-15,-73,-58,44,22,-66,42,2,-83,-49,-51,103
1,-67,-68,33,35,-67,27,25,-23,-18,-43,100
13,-64,-76,26,45,-70,25,31,-19,-17,-43,95
23,-58,-80,18,52,-69,19,35,-7,-13,-39,89
46,-54,-101,4,74,-77,20,36,3,-6,-35,95
59,-49,-108,-5,84,-78,14,42,6,-8,-36,100
56,-46,-102,-5,80,-74,15,39,19,3,-28,105
61,-41,-102,-10,82,-72,7,40,21,0,-25,108
60,-39,-99,-11,80,-69,3,44,34,22,-17,112
65,-34,-100,-15,83,-67,-4,56,39,16,-14,119
63,-31,-94,-16,78,-62,-8,63,48,32,-5,131
69,-27,-96,-20,83,-61,-18,65,61,58,10,139
69,-24,-94,-22,82,-59,-34,83,87,70,36,152
89,-8,-97,-40,93,-53,-38,104,111,107,61,175
104,21,-82,-62,93,-30,-43,123,146,141,93,200
109,48,-61,-78,85,-6,-46,149,197,186,140,224
139,82,-56,-110,97,13,-61,180,248,245,187,261
155,132,-23,-143,89,55,-90,216,314,319,256,317
176,192,16,-184,80,104,-117,256,395,416,339,382
199,232,33,-216,83,132,-139,280,462,506,420,444
226,274,47,-250,89,160,-163,275,505,580,489,497
242,309,66,-276,88,187,-189,266,513,614,521,516
239,303,64,-271,87,183,-191,262,510,607,535,499
241,293,52,-267,94,173,-164,251,489,577,501,485
197,244,47,-221,75,145,-126,215,405,487,403,427
133,170,38,-152,47,104,-83,162,312,370,303,340
100,116,16,-108,42,66,-53,111,217,272,208,270
68,62,-6,-65,37,28,-31,63,122,172,128,203
30,16,-15,-23,22,0,-20,15,53,91,71,156
10,-12,-23,1,17,-17,-19,-28,9,38,25,120
8,-25,-33,8,21,-29,-15,-49,-18,9,-6,98
1,-38,-39,18,20,-38,-12,-51,-37,4,-21,95
-6,-40,-35,23,15,-37,-10,-47,-42,1,-27,92
-5,-40,-35,23,15,-37,-7,-45,-38,-3,-38,89
-5,-40,-35,23,15,-37,-5,-42,-36,-5,-37,85
0,-35,-35,18,18,-35,-5,-39,-32,0,-29,85
3,-32,-35,15,19,-33,-5,-37,-30,5,-23,90
7,-28,-35,11,21,-31,-5,-34,-28,9,-16,93
10,-25,-35,8,23,-30,-6,-31,-23,14,-9,97
15,-20,-35,3,25,-27,-10,-28,-17,18,-3,101
13,-22,-35,5,24,-28,-15,-25,-14,23,0,104
9,-26,-35,9,23,-31,-19,-26,-8,28,2,108
10,-25,-35,8,23,-30,-23,-31,-6,26,5,110
6,-29,-35,12,21,-32,-29,-34,-10,21,8,105
5,-30,-35,13,20,-32,-28,-39,-16,19,10,101
5,-29,-35,13,20,-32,-24,-40,-19,14,6,98
10,-26,-35,9,23,-31,-25,-41,-24,11,-1,94
10,-24,-34,7,23,-29,-25,-50,-28,7,-7,91
6,-26,-32,11,19,-29,-25,-59,-33,5,-14,87
-3,-23,-19,13,9,-21,-24,-60,-42,2,-21,85
-11,-33,-22,22,6,-27,-21,-60,-46,-1,-25,82
5,-31,-36,14,21,-34,-18,-60,-45,-4,-25,79
2,-33,-34,16,18,-34,-15,-60,-45,-5,-25,76
-18,-54,-36,37,9,-45,-12,-60,-45,0,-37,74
-23,-56,-33,40,6,-45,-10,-60,-45,0,-40,70
-12,-58,-46,36,17,-52,-10,-60,-47,1,-34,63
-6,-62,-57,35,25,-59,-10,-60,-50,5,-32,59
-14,-64,-50,39,18,-56,-10,-60,-50,5,-27,53
-19,-67,-48,43,15,-57,-10,-60,-50,3,-25,47
-26,-69,-43,48,8,-56,-10,-56,-50,-1,-29,47
-30,-71,-40,50,5,-55,-11,-55,-50,0,-30,50
-33,-69,-36,52,2,-53,-14,-54,-54,-4,-29,50
-36,-70,-35,54,0,-52,-15,-51,-57,-5,-31,50
-35,-70,-34,53,0,-52,-15,-49,-61,-5,-29,50
-36,-67,-31,52,-2,-48,-15,-53,-65,-10,-32,50
-35,-64,-29,49,-3,-46,-15,-65,-63,-10,-44,44
-28,-61,-34,45,3,-48,-13,-65,-59,-11,-46,38
-17,-58,-41,37,12,-49,-8,-66,-60,-15,-39,34
-16,-56,-40,36,12,-47,-5,-70,-60,-15,-40,28
-20,-53,-33,37,7,-43,-2,-71,-60,-13,-34,22
-9,-42,-33,26,12,-37,3,-66,-60,-5,-36,22
-1,-27,-26,14,13,-26,4,-48,-43,0,-42,29
-11,-8,3,9,-7,-3,19,-26,-23,9,-13,40
-23,5,28,8,-26,16,27,-15,-20,25,-3,46
-11,15,26,-2,-19,20,14,-30,-20,31,-7,48
1,26,25,-14,-12,25,-19,-47,-20,29,-4,54
-18,39,57,-11,-38,48,-58,-65,-24,30,-5,57
-39,18,58,10,-49,38,-69,-89,-46,30,-5,65
-20,12,32,4,-26,22,-78,-90,-61,30,0,69
20,47,27,-33,-4,36,-75,-83,-61,40,31,65
-2,12,14,-5,-8,12,-49,-81,-65,28,12,53
-24,-44,-20,34,-1,-32,-31,-73,-67,-4,-35,15
-17,-63,-46,40,15,-54,-25,-73,-70,-21,-44,-9
-10,-79,-69,45,30,-74,-20,-67,-70,-33,-56,-14
-4,-85,-80,45,38,-82,-15,-74,-70,-30,-53,-21
-8,-85,-77,47,35,-81,-7,-67,-70,-38,-57,-29
-23,-94,-71,58,25,-82,-7,-72,-70,-37,-54,-37
-37,-106,-70,72,17,-88,-9,-71,-74,-40,-55,-37
-24,-87,-63,56,20,-75,-16,-64,-76,-43,-56,-25
-31,-106,-75,69,22,-90,5,-53,-74,-43,-64,-46
-41,-159,-118,100,39,-138,138,102,-71,-167,-183,-148
-75,-81,-6,78,-34,-44,283,251,23,-172,-195,-155
145,331,186,-239,-20,258,15,516,596,466,376,312
461,910,449,-685,6,679,-564,370,1466,1787,1471,1134
272,809,537,-541,-133,673,-549,-217,1130,1943,1606,1190
-30,157,187,-63,-109,172,-81,-296,-106,528,523,411
-97,-108,-10,103,-43,-59,96,-163,-343,-113,-75,-33
-66,-75,-9,71,-28,-42,74,-50,-95,-36,-57,-45
-30,-78,-48,54,9,-63,57,8,-64,-65,-46,-28
-33,-80,-47,57,7,-64,56,-5,-12,-34,-51,-48
-30,-81,-51,55,11,-66,50,22,-20,-45,-61,-58
-22,-79,-58,51,18,-68,42,20,-5,-31,-57,-47
-13,-75,-63,44,26,-69,42,37,-1,-30,-55,-49
-21,-75,-54,48,17,-65,44,35,5,-24,-50,-40
-28,-74,-45,51,9,-59,46,33,14,-18,-48,-41
-15,-66,-52,41,19,-59,45,44,16,-17,-44,-56
-1,-58,-57,30,28,-57,45,48,25,-9,-40,-56
-3,-50,-46,27,22,-48,45,59,31,-6,-35,-45
-5,-43,-38,24,17,-40,41,68,50,5,-27,-39
-3,-34,-31,18,14,-32,32,78,70,17,-18,-30
0,-27,-27,13,14,-27,24,102,90,38,-5,-21
19,-5,-24,-7,22,-14,16,122,117,71,22,-8
18,12,-6,-15,12,2,9,150,159,106,47,6
36,33,-3,-34,19,14,-3,196,206,150,82,27
63,83,21,-73,21,52,-17,242,272,218,142,72
75,131,56,-104,10,93,-38,289,357,304,219,131
103,190,88,-147,7,139,-67,331,437,396,308,198
134,250,116,-192,9,183,-92,359,497,469,376,258
166,295,129,-230,18,212,-121,362,543,536,441,308
172,313,141,-243,15,226,-130,357,559,569,479,340
183,313,130,-248,26,221,-131,340,533,552,463,340
154,283,129,-219,12,206,-116,297,489,498,408,303
112,216,104,-164,4,160,-74,238,393,394,316,227
76,143,68,-110,4,106,-47,167,277,282,219,144
18,81,63,-50,-23,72,-30,101,176,177,124,70
-12,35,46,-12,-29,41,-20,48,76,84,45,13
-36,-1,34,18,-35,16,-14,-1,7,19,-7,-26
-44,-21,23,32,-33,1,-8,-37,-35,-21,-39,-48
-66,-52,14,59,-40,-19,-5,-63,-70,-48,-55,-55
-84,-68,16,75,-50,-26,0,-71,-95,-72,-67,-63
-76,-63,13,69,-44,-25,4,-70,-105,-82,-71,-66
-76,-66,10,71,-43,-27,10,-70,-105,-85,-69,-64
-74,-64,10,69,-42,-27,18,-70,-105,-85,-71,-65
-73,-65,8,69,-40,-28,25,-70,-105,-85,-69,-65
-65,-65,1,65,-33,-32,29,-68,-105,-85,-71,-66
-75,-65,10,70,-42,-27,24,-63,-106,-84,-74,-69
-91,-64,27,77,-58,-19,21,-60,-103,-88,-75,-74
-89,-58,32,73,-60,-12,18,-57,-98,-91,-75,-75
-83,-53,30,68,-56,-11,13,-52,-92,-90,-75,-75
-68,-47,21,57,-45,-13,10,-50,-89,-94,-75,-75
-79,-41,38,60,-59,-2,6,-54,-83,-95,-78,-75
-90,-36,54,63,-72,9,0,-58,-81,-95,-81,-76
-81,-38,43,59,-62,2,-5,-67,-95,-99,-80,-74
-79,-42,37,61,-58,-2,-10,-76,-105,-102,-84,-86
-74,-45,30,59,-51,-7,-17,-82,-109,-106,-85,-101
-69,-49,21,59,-45,-14,-19,-90,-116,-111,-85,-100
-79,-51,28,65,-53,-12,-15,-94,-122,-114,-90,-100
-92,-56,36,73,-63,-10,-15,-97,-127,-117,-90,-100
-85,-54,30,69,-57,-11,-13,-101,-131,-119,-91,-100
-83,-56,27,69,-55,-14,-9,-100,-129,-123,-95,-102
-79,-55,24,66,-51,-15,-11,-100,-131,-125,-95,-107
-72,-54,18,63,-44,-18,-5,-107,-144,-127,-97,-110
-94,-66,28,79,-61,-19,-2,-119,-157,-138,-108,-118
-104,-69,35,86,-70,-16,-6,-134,-169,-140,-115,-125
-106,-78,28,92,-67,-25,-11,-136,-170,-135,-115,-125
-73,-49,25,61,-49,-12,-14,-134,-165,-134,-116,-129
-52,-32,20,42,-36,-6,-12,-135,-164,-130,-120,-130
-63,-47,15,54,-38,-16,-9,-135,-160,-128,-121,-132
-56,-44,12,50,-33,-16,-10,-135,-158,-123,-117,-137
-53,-46,7,49,-30,-19,-10,-135,-155,-129,-116,-142
-51,-47,4,49,-27,-22,-10,-135,-154,-142,-113,-143
-49,-49,1,49,-25,-23,-10,-135,-156,-147,-112,-142
10,6,-4,-8,8,1,1,-134,-152,-142,-107,-136
-45,-49,-4,48,-20,-27,-2,-136,-163,-149,-124,-150
-140,-136,4,138,-72,-65,-20,-140,-186,-167,-154,-179
-101,-89,12,95,-56,-39,-16,-140,-185,-163,-147,-171
-99,-78,20,88,-59,-29,-6,-140,-185,-160,-136,-159
-100,-73,27,86,-64,-23,1,-139,-184,-158,-130,-154
-92,-54,38,72,-65,-8,12,-124,-168,-154,-121,-148
-66,-7,59,37,-63,26,23,-103,-148,-153,-117,-145
-44,37,81,4,-63,59,36,-84,-128,-145,-109,-140
-55,27,83,14,-69,55,48,-60,-120,-142,-103,-136
-56,20,76,17,-66,48,23,-79,-118,-139,-103,-135
-53,37,90,8,-71,63,-14,-113,-113,-141,-106,-135
-46,48,94,-1,-70,71,-42,-122,-127,-138,-105,-135
-60,20,80,20,-70,50,-52,-129,-157,-149,-103,-136
-69,10,78,29,-74,44,-39,-123,-166,-155,-101,-141
-64,-7,57,35,-60,25,-31,-123,-164,-143,-97,-143
-91,-80,11,85,-51,-34,-23,-118,-171,-164,-118,-153
-96,-110,-14,103,-41,-62,-20,-116,-169,-170,-137,-167
-71,-102,-31,87,-19,-67,-15,-114,-173,-182,-142,-171
-70,-107,-37,89,-16,-72,-11,-109,-176,-197,-147,-169
-71,-103,-33,88,-18,-68,-4,-113,-169,-192,-149,-174
-73,-107,-34,90,-19,-70,3,-104,-167,-199,-147,-176
-70,-97,-27,84,-21,-62,8,-112,-158,-188,-136,-173
-57,-90,-33,73,-12,-61,19,-96,-160,-206,-143,-173
-61,-114,-53,88,-4,-83,15,-107,-147,-179,-126,-157
-77,-173,-95,125,9,-134,99,9,-153,-260,-213,-223
-130,-170,-40,150,-45,-105,281,167,-119,-368,-325,-324
19,135,116,-77,-49,125,188,431,242,-6,0,-62
408,694,285,-551,61,489,-352,614,1207,1238,1067,765
398,842,444,-621,-23,643,-584,45,1555,2110,1774,1235
50,331,280,-191,-115,305,-173,-359,298,987,924,621
-132,-109,23,120,-77,-43,141,-246,-483,-168,-38,-75
-139,-148,-9,144,-65,-78,140,-133,-225,-186,-144,-196
-78,-111,-33,95,-23,-71,88,-20,-123,-162,-124,-166
-63,-112,-49,87,-7,-80,68,-16,-79,-145,-131,-162
-61,-110,-49,86,-6,-80,72,3,-78,-142,-131,-156
-54,-106,-52,80,-1,-79,69,14,-71,-142,-129,-150
-57,-104,-47,81,-4,-75,71,17,-56,-130,-124,-145
-47,-101,-53,74,3,-77,70,33,-55,-134,-123,-145
-54,-100,-45,77,-5,-72,68,23,-36,-119,-119,-145
-56,-107,-52,82,-2,-79,62,35,-33,-118,-118,-144
-34,-105,-71,70,19,-88,57,56,-11,-105,-107,-146
-39,-102,-63,71,12,-82,54,64,1,-100,-97,-139
-45,-94,-49,70,2,-71,49,72,14,-92,-85,-117
-25,-69,-43,47,9,-56,45,82,25,-82,-74,-102
-14,-51,-37,33,11,-43,39,90,42,-73,-58,-93
-12,-44,-32,28,10,-38,29,119,68,-46,-39,-78
-2,-27,-25,15,12,-26,22,150,115,-4,-3,-39
23,9,-15,-16,19,-3,14,181,163,32,25,-13
49,44,-5,-46,27,19,5,223,226,95,75,12
72,93,21,-83,25,57,-27,272,311,193,164,75
114,163,49,-139,32,106,-72,316,390,288,246,148
147,218,71,-183,38,144,-92,341,462,377,331,212
170,265,95,-218,38,180,-119,345,514,459,402,263
205,297,92,-252,56,195,-137,339,544,518,457,305
196,298,101,-247,47,199,-143,337,547,519,457,306
162,266,104,-214,29,185,-137,317,510,477,414,269
127,206,79,-167,23,143,-87,267,429,393,346,211
84,141,58,-113,13,100,-49,200,316,254,227,123
51,76,25,-64,12,50,-21,136,203,135,118,49
22,15,-6,-18,14,4,8,67,106,43,44,-5
-2,-29,-27,15,13,-27,22,3,25,-41,-18,-56
-30,-63,-34,47,2,-48,33,-34,-35,-81,-61,-88
-35,-87,-52,62,9,-70,35,-54,-74,-113,-87,-107
-22,-89,-67,56,23,-78,35,-60,-92,-148,-102,-125
-38,-98,-59,68,11,-78,40,-60,-97,-160,-110,-133
-58,-116,-58,87,1,-87,48,-60,-96,-161,-114,-139
-61,-114,-53,88,-3,-84,48,-60,-95,-156,-113,-137
-67,-117,-50,92,-8,-83,44,-60,-95,-153,-109,-134
-73,-120,-47,97,-13,-83,45,-60,-95,-150,-110,-135
-77,-120,-43,99,-17,-81,45,-60,-96,-145,-110,-130
-75,-117,-42,96,-17,-79,45,-60,-91,-145,-110,-130
-59,-97,-38,79,-11,-67,44,-60,-90,-145,-110,-129
-53,-89,-36,72,-9,-62,41,-60,-89,-145,-106,-125
-57,-91,-33,74,-12,-62,38,-59,-86,-145,-105,-125
-59,-90,-30,74,-14,-60,35,-62,-84,-145,-105,-125
-63,-91,-28,77,-18,-59,32,-64,-90,-146,-105,-125
-65,-89,-25,78,-20,-57,30,-68,-105,-149,-105,-125
-71,-93,-22,82,-24,-57,30,-70,-108,-151,-107,-129
-77,-96,-19,86,-29,-57,30,-74,-113,-148,-110,-134
-68,-95,-27,81,-20,-60,30,-80,-118,-156,-113,-137
-61,-99,-37,81,-12,-68,30,-79,-128,-170,-115,-142
-67,-100,-33,84,-17,-66,30,-97,-146,-170,-122,-144
-68,-100,-32,84,-18,-66,31,-107,-151,-169,-132,-148
-73,-100,-28,87,-23,-64,34,-104,-153,-174,-137,-150
-74,-99,-26,87,-24,-62,35,-106,-156,-187,-143,-155
-77,-101,-23,90,-27,-62,35,-112,-160,-198,-145,-164
-79,-98,-20,89,-30,-59,35,-120,-168,-202,-146,-165
-71,-107,-35,89,-18,-71,35,-120,-168,-200,-144,-164
-79,-120,-42,100,-19,-81,33,-119,-160,-200,-146,-166
-81,-120,-39,100,-21,-80,29,-121,-175,-210,-162,-171
-83,-120,-37,102,-23,-78,30,-119,-196,-217,-167,-176
-86,-120,-34,103,-26,-77,26,-122,-195,-220,-168,-179
-85,-120,-35,103,-25,-77,25,-134,-195,-225,-172,-180
-87,-118,-30,103,-28,-74,25,-136,-195,-225,-175,-180
-88,-114,-27,101,-30,-70,25,-134,-195,-225,-174,-180
-92,-116,-23,104,-34,-69,25,-131,-193,-225,-170,-180
-94,-114,-20,104,-37,-67,24,-130,-189,-225,-168,-180
-101,-115,-14,109,-43,-65,26,-129,-191,-223,-165,-179
-89,-114,-26,102,-31,-70,24,-124,-186,-216,-161,-175
-75,-110,-36,93,-19,-73,28,-126,-184,-209,-160,-175
-80,-105,-25,92,-27,-65,34,-119,-186,-202,-154,-180
-79,-102,-23,91,-28,-63,39,-122,-173,-196,-141,-178
-87,-94,-7,91,-40,-51,60,-106,-154,-190,-130,-170
-89,-68,21,78,-54,-23,80,-69,-149,-186,-124,-165
-78,-53,25,65,-51,-14,86,-74,-152,-184,-121,-157
-65,-45,20,54,-42,-12,71,-75,-145,-180,-118,-152
-74,-38,36,56,-55,-1,30,-98,-147,-178,-113,-149
-93,-34,60,63,-76,13,-10,-129,-142,-174,-110,-151
-86,-31,55,58,-71,12,-19,-141,-161,-180,-117,-149
-66,-27,38,46,-52,5,-33,-151,-182,-206,-124,-151
-41,-24,18,32,-29,-3,-36,-115,-138,-219,-116,-149
-71,-77,-6,74,-32,-42,-15,-115,-151,-220,-117,-153
-97,-126,-28,112,-34,-77,-5,-121,-193,-227,-146,-186
-82,-139,-57,111,-12,-98,7,-120,-187,-223,-160,-200
-80,-149,-69,115,-5,-109,20,-119,-192,-227,-170,-201
-74,-142,-69,108,-2,-105,31,-121,-186,-223,-169,-198
-76,-147,-71,112,-2,-109,40,-120,-185,-225,-170,-205
-74,-143,-69,108,-2,-106,31,-118,-186,-226,-170,-217
-77,-146,-70,111,-3,-107,30,-125,-179,-223,-168,-221
-75,-146,-71,110,-2,-108,26,-112,-179,-242,-174,-227
-85,-156,-70,121,-7,-113,38,-128,-167,-231,-172,-230
-118,-219,-101,169,-8,-160,160,19,-179,-340,-283,-310
-145,-177,-32,161,-56,-104,318,193,-124,-398,-344,-352
58,205,147,-132,-45,176,141,454,370,124,132,34
391,785,394,-588,-2,589,-443,433,1321,1461,1245,870
266,792,527,-529,-130,659,-545,-216,1254,1955,1635,1111
-46,196,242,-75,-144,218,-80,-416,-59,594,623,381
-153,-152,1,153,-77,-75,145,-236,-512,-286,-150,-191
-144,-163,-19,154,-62,-91,144,-120,-225,-215,-184,-245
-94,-147,-53,120,-20,-100,109,-33,-174,-231,-157,-217
-90,-140,-50,116,-20,-95,96,-49,-124,-209,-154,-224
-82,-137,-55,110,-13,-96,96,-27,-121,-216,-167,-226
-82,-132,-50,107,-15,-91,87,-26,-112,-208,-164,-224
-81,-128,-47,105,-17,-87,87,-17,-101,-204,-165,-226
-77,-123,-46,101,-15,-85,79,-10,-99,-204,-165,-224
-78,-118,-40,98,-19,-79,81,-5,-85,-192,-164,-226
-71,-112,-41,92,-15,-76,80,4,-80,-192,-165,-222
-72,-108,-36,90,-18,-72,80,8,-65,-181,-149,-213
-68,-100,-33,84,-17,-66,80,30,-58,-174,-137,-202
-68,-97,-29,83,-19,-63,80,37,-43,-160,-122,-193
-61,-87,-25,75,-18,-56,79,48,-33,-148,-108,-178
-48,-70,-22,59,-13,-46,70,64,-11,-127,-94,-165
-42,-60,-18,51,-12,-39,62,88,22,-109,-73,-149
-31,-42,-11,37,-9,-26,53,121,58,-70,-41,-123
-8,-7,1,7,-4,-3,44,159,110,-8,11,-92
29,37,8,-33,11,22,29,208,178,55,62,-49
61,80,18,-71,21,49,6,259,264,136,125,4
90,135,44,-113,23,89,-23,297,351,238,217,76
116,188,71,-152,22,129,-52,325,417,323,293,142
145,238,93,-192,25,166,-79,344,468,397,361,198
159,260,101,-209,29,180,-90,333,494,454,407,235
146,245,99,-196,23,172,-80,318,488,451,408,236
133,230,97,-182,18,163,-67,293,446,409,375,203
96,179,83,-138,6,131,-46,229,351,306,287,130
54,111,57,-83,-2,84,-14,168,237,181,182,56
22,42,20,-33,1,31,20,103,132,75,86,-15
-9,-17,-8,13,-1,-12,36,33,38,-16,9,-81
-39,-56,-17,48,-11,-36,37,-11,-34,-85,-48,-120
-52,-82,-30,67,-11,-56,41,-44,-88,-136,-92,-146
-61,-100,-39,81,-11,-69,43,-67,-116,-156,-108,-158
-65,-115,-50,90,-7,-82,46,-81,-133,-168,-120,-164
-55,-116,-61,86,3,-88,49,-88,-136,-181,-129,-168
-60,-120,-60,90,0,-90,53,-83,-134,-185,-130,-170
-65,-124,-59,95,-3,-91,58,-76,-133,-185,-130,-175
-69,-124,-55,97,-7,-89,60,-69,-129,-187,-130,-173
-65,-120,-55,93,-5,-87,60,-62,-131,-190,-130,-169
-64,-117,-53,91,-5,-85,63,-56,-126,-190,-130,-170
-69,-115,-46,92,-11,-80,66,-55,-120,-185,-127,-170
-72,-111,-39,92,-16,-75,64,-55,-115,-175,-121,-170
-78,-110,-32,94,-23,-71,60,-55,-109,-164,-116,-170
-81,-106,-26,94,-27,-66,55,-55,-103,-158,-113,-166
-84,-105,-21,95,-31,-62,51,-54,-101,-160,-107,-161
-83,-105,-21,94,-31,-63,47,-57,-106,-160,-106,-159
-81,-101,-19,91,-31,-60,41,-59,-111,-160,-110,-154
-78,-100,-22,89,-28,-60,42,-64,-114,-160,-110,-150
-68,-101,-33,85,-17,-67,45,-64,-119,-160,-112,-150
-67,-106,-39,87,-14,-72,45,-68,-125,-164,-115,-150
-69,-111,-42,90,-13,-76,49,-83,-135,-167,-115,-150
-67,-114,-47,91,-10,-80,51,-86,-144,-171,-111,-150
-66,-116,-50,91,-8,-82,49,-84,-146,-175,-110,-150
-62,-114,-53,88,-4,-83,46,-86,-143,-171,-110,-150
-61,-116,-55,89,-2,-85,41,-84,-140,-170,-105,-154
-55,-114,-59,85,2,-86,38,-85,-140,-170,-104,-155
-57,-117,-60,87,2,-88,35,-97,-140,-165,-107,-155
-61,-123,-62,92,1,-92,30,-101,-140,-165,-110,-155
-62,-126,-64,95,2,-95,32,-96,-140,-165,-113,-155
-60,-129,-69,95,4,-99,35,-95,-143,-164,-115,-152
-63,-132,-68,97,3,-100,35,-90,-146,-164,-118,-149
-62,-135,-73,99,6,-104,39,-90,-149,-165,-120,-150
-49,-134,-85,92,18,-109,40,-95,-152,-165,-120,-146
-52,-130,-78,91,13,-104,39,-95,-154,-165,-120,-145
-57,-128,-70,93,7,-99,36,-96,-156,-165,-120,-145
-60,-125,-65,92,3,-95,31,-100,-160,-165,-120,-140
-65,-121,-57,93,-4,-89,29,-99,-162,-167,-120,-136
-67,-120,-53,93,-7,-86,24,-103,-165,-170,-119,-133
-69,-116,-47,93,-11,-82,21,-105,-168,-169,-114,-129
-66,-109,-43,88,-11,-75,17,-108,-171,-170,-109,-126
-64,-103,-38,83,-13,-70,15,-111,-165,-175,-105,-123
-62,-96,-33,79,-14,-64,15,-100,-156,-173,-100,-116
-58,-88,-30,73,-14,-59,32,-89,-149,-162,-95,-111
-49,-68,-18,59,-15,-43,57,-75,-124,-153,-91,-106
-51,-48,3,50,-26,-23,60,-60,-106,-155,-90,-100
-59,-37,22,48,-41,-7,45,-47,-105,-155,-91,-96
-55,-24,31,39,-43,4,37,-59,-106,-157,-90,-89
-63,-17,45,40,-54,14,10,-100,-126,-160,-90,-83
-58,-6,52,31,-55,23,-33,-123,-142,-160,-90,-75
-45,-16,28,30,-36,6,-53,-143,-153,-162,-89,-70
-38,-31,7,34,-22,-11,-44,-142,-157,-166,-94,-60
-28,-32,-4,30,-12,-18,-23,-136,-148,-168,-97,-67
-49,-81,-32,65,-8,-56,-10,-131,-158,-170,-102,-111
-61,-115,-54,88,-3,-84,-4,-124,-176,-181,-118,-142
-60,-123,-64,92,2,-93,6,-122,-183,-189,-130,-155
-70,-136,-65,103,-2,-100,12,-111,-184,-192,-135,-156
-75,-132,-57,104,-9,-94,21,-121,-178,-193,-134,-155
-58,-132,-73,95,7,-102,37,-106,-178,-196,-137,-162
-44,-128,-84,86,20,-105,38,-119,-173,-185,-132,-157
-46,-133,-88,90,21,-110,44,-100,-172,-191,-140,-161
-51,-124,-73,88,11,-99,33,-119,-169,-180,-127,-150
-62,-163,-101,113,20,-132,73,-66,-164,-228,-174,-189
-117,-216,-99,166,-9,-157,239,103,-173,-367,-307,-300
-87,-30,57,58,-72,14,297,287,25,-227,-186,-189
256,506,250,-381,2,378,-141,540,814,724,648,477
426,930,503,-678,-39,716,-604,124,1493,1941,1636,1201
129,563,434,-346,-153,498,-355,-394,656,1444,1285,918
-105,-23,82,64,-94,29,45,-329,-452,31,176,112
-136,-142,-6,139,-65,-74,118,-200,-373,-265,-183,-175
-100,-122,-22,111,-39,-72,89,-58,-165,-166,-117,-140
-75,-115,-40,95,-17,-78,76,-19,-148,-171,-118,-131
-74,-109,-35,92,-20,-72,78,-19,-118,-170,-128,-147
-53,-109,-57,81,2,-83,70,-16,-126,-184,-132,-144
-43,-102,-59,72,8,-80,66,-18,-102,-163,-129,-140
-37,-102,-65,69,14,-83,68,-5,-106,-169,-126,-139
-31,-95,-64,63,17,-80,70,-6,-90,-156,-125,-134
-19,-90,-71,55,26,-81,65,5,-87,-155,-124,-136
-16,-84,-68,50,26,-76,62,7,-78,-148,-115,-127
10,-78,-89,35,50,-83,53,12,-66,-141,-105,-129
-31,-74,-43,52,6,-58,73,40,-56,-139,-95,-104
-93,-66,27,79,-59,-19,82,65,-17,-125,-84,-71
0,-53,-54,27,27,-53,62,51,-19,-113,-71,-67
-12,-48,-36,30,12,-42,58,75,-4,-82,-59,-37
-63,-18,44,40,-53,13,48,128,57,-36,-25,-12
15,29,14,-23,0,22,42,151,96,-4,16,12
44,57,12,-51,16,34,33,181,147,44,53,55
13,75,61,-44,-24,68,14,233,224,128,123,99
61,152,91,-107,-15,121,-9,299,319,225,205,176
144,243,100,-194,22,171,-25,348,416,332,305,273
189,288,99,-238,44,193,-57,343,466,399,361,318
222,330,108,-276,57,218,-87,349,500,457,412,362
130,314,183,-222,-27,248,-77,372,547,526,481,415
78,269,191,-174,-57,229,-74,344,524,507,452,394
90,229,140,-160,-25,184,-63,285,436,414,378,336
64,180,117,-122,-27,148,-31,224,326,291,275,253
44,129,85,-87,-20,106,-8,155,207,170,170,176
-1,68,69,-34,-35,68,6,92,102,77,95,120
-24,23,47,0,-36,35,15,32,7,-4,14,73
-31,4,36,13,-34,20,16,-19,-64,-68,-40,55
-44,-10,35,27,-39,12,14,-46,-95,-109,-66,39
-59,-52,8,55,-33,-22,17,-68,-118,-145,-87,29
-56,-72,-17,64,-19,-44,12,-77,-142,-162,-96,31
-52,-62,-10,57,-21,-36,25,-71,-136,-159,-95,28
-56,-59,-3,57,-26,-30,50,-69,-131,-161,-95,25
-52,-54,-2,53,-25,-28,51,-64,-128,-160,-95,25
-38,-44,-5,41,-16,-24,56,-61,-122,-160,-94,23
-43,-61,-18,53,-13,-39,54,-58,-119,-156,-98,19
-88,-92,-4,90,-42,-48,49,-54,-114,-150,-102,17
-102,-98,4,100,-53,-47,47,-56,-111,-145,-107,14
-90,-97,-7,93,-41,-52,42,-54,-107,-139,-110,6
-66,-79,-13,72,-26,-45,40,-56,-104,-133,-104,-6
-67,-69,-2,69,-32,-35,35,-55,-99,-131,-99,-17
-45,-68,-23,57,-11,-45,35,-56,-111,-138,-94,-27
18,-62,-81,22,50,-71,34,-76,-118,-137,-88,-41
-49,-61,-12,55,-18,-37,29,-82,-114,-132,-82,-46
-92,-52,39,72,-65,-7,31,-75,-115,-129,-82,-41
-65,-63,2,64,-33,-31,27,-75,-112,-126,-86,-40
-87,-84,3,86,-45,-40,23,-70,-109,-121,-84,-35
-82,-92,-10,88,-36,-51,17,-71,-112,-121,-86,-35
-76,-89,-13,82,-31,-51,14,-80,-126,-128,-84,-44
-82,-106,-24,94,-29,-65,8,-95,-140,-134,-98,-53
-81,-109,-28,95,-26,-68,5,-109,-145,-140,-115,-45
-63,-79,-15,71,-24,-47,21,-106,-146,-140,-110,-40
-33,-80,-47,57,7,-63,27,-99,-143,-139,-105,-65
-31,-86,-55,59,12,-70,19,-95,-140,-141,-100,-80
-42,-84,-42,63,1,-63,16,-87,-140,-139,-92,-80
-43,-85,-42,64,0,-64,11,-88,-140,-143,-92,-87
-48,-85,-37,67,-5,-61,6,-96,-140,-147,-99,-95
-47,-83,-36,66,-5,-60,7,-92,-140,-152,-102,-95
-64,-96,-32,80,-16,-64,11,-89,-140,-155,-105,-90
-58,-88,-30,73,-14,-59,9,-86,-139,-149,-108,-89
-43,-71,-28,57,-7,-49,12,-81,-141,-146,-111,-83
-41,-62,-21,52,-10,-41,27,-81,-133,-139,-113,-90
-51,-67,-16,59,-17,-41,17,-97,-141,-148,-117,-113
-100,-112,-12,106,-44,-61,-2,-120,-165,-166,-129,-120
-88,-91,-3,90,-42,-47,0,-117,-165,-159,-126,-120
-79,-82,-2,81,-38,-42,5,-111,-165,-152,-119,-120
-91,-100,-8,96,-41,-53,10,-108,-165,-146,-114,-119
-21,-56,-35,39,7,-45,13,-103,-166,-138,-108,-122
-32,-41,-10,37,-11,-25,19,-98,-158,-134,-104,-118
-87,-37,50,62,-69,7,21,-92,-138,-127,-99,-110
-65,-19,46,42,-56,13,18,-78,-116,-121,-96,-104
-40,31,70,4,-55,51,43,-72,-104,-123,-91,-97
-59,43,101,8,-80,72,45,-60,-93,-126,-90,-95
-108,-6,102,57,-105,48,12,-58,-88,-125,-91,-92
-84,19,103,32,-94,61,-25,-103,-113,-125,-90,-88
-41,52,93,-6,-67,72,-58,-120,-123,-126,-90,-87
-45,44,89,1,-67,66,-69,-131,-147,-122,-91,-83
-37,37,74,0,-56,55,-73,-139,-163,-115,-97,-83
-12,34,46,-11,-29,39,-65,-130,-160,-96,-100,-77
-33,-19,14,25,-23,-2,-51,-132,-167,-113,-104,-88
-65,-66,-2,66,-31,-33,-43,-124,-161,-142,-109,-117
-71,-78,-6,75,-32,-42,-32,-128,-157,-144,-111,-125
-87,-106,-18,97,-34,-62,-22,-118,-154,-163,-116,-136
-77,-104,-27,91,-25,-65,-14,-118,-150,-158,-114,-129
-61,-106,-46,83,-7,-76,-2,-107,-146,-160,-116,-126
-71,-103,-33,87,-19,-68,-7,-106,-146,-155,-115,-121
-60,-107,-47,84,-6,-77,6,-99,-159,-153,-129,-116
-18,-101,-83,60,33,-92,-1,-87,-176,-161,-130,-118
-46,-122,-76,84,15,-99,19,-67,-170,-160,-132,-122
-119,-199,-80,159,-19,-139,156,61,-188,-295,-258,-223
-133,-103,30,118,-82,-36,284,192,-92,-289,-264,-229
129,329,200,-229,-36,264,29,516,530,375,332,255
429,920,491,-674,-31,705,-550,337,1406,1675,1426,1090
242,836,594,-539,-176,715,-517,-311,1061,1817,1558,1172
-72,152,224,-40,-149,188,-76,-393,-208,404,476,385
-155,-116,38,135,-96,-39,96,-245,-432,-225,-128,-80
-97,-77,20,87,-58,-28,107,-82,-151,-121,-112,-116
-68,-80,-12,74,-28,-45,61,-7,-140,-150,-107,-114
-83,-84,0,84,-41,-42,67,-16,-86,-134,-111,-108
-77,-95,-19,86,-29,-57,66,5,-100,-152,-118,-108
-78,-91,-14,85,-32,-52,58,-5,-93,-142,-113,-104
-62,-91,-29,76,-16,-60,63,10,-89,-146,-116,-109
-68,-86,-18,77,-24,-52,56,8,-92,-146,-114,-113
-27,-85,-58,56,16,-72,57,10,-85,-142,-115,-114
-10,-66,-56,39,23,-61,51,16,-62,-140,-124,-106
-64,-38,26,51,-45,-6,51,44,-31,-130,-118,-98
-62,-54,8,58,-35,-23,46,63,-30,-128,-107,-90
-58,-63,-5,61,-27,-34,45,61,-16,-113,-93,-83
-50,-46,4,48,-27,-21,41,73,1,-91,-73,-69
-25,-29,-4,27,-11,-16,34,95,30,-66,-52,-42
-11,-3,8,7,-10,2,30,124,68,-35,-29,-23
2,28,27,-15,-13,27,24,156,101,6,-1,-3
14,57,43,-36,-15,50,19,191,150,53,38,28
36,103,67,-70,-16,85,14,246,222,120,97,74
69,156,87,-113,-9,121,-1,297,302,203,165,137
91,208,117,-150,-13,162,-23,340,383,291,246,210
132,271,140,-202,-5,205,-46,372,447,369,317,267
163,309,146,-236,9,228,-69,370,499,439,380,320
156,329,173,-243,-9,251,-76,368,523,478,429,358
150,322,172,-236,-11,246,-73,357,515,472,426,361
120,285,165,-203,-23,224,-67,322,477,427,381,324
101,243,142,-173,-20,192,-40,274,383,335,293,258
76,178,102,-127,-13,140,-11,208,275,223,196,177
22,105,83,-64,-31,94,7,140,164,111,106,103
-11,51,62,-20,-37,56,21,80,69,31,37,52
-27,17,44,5,-36,30,30,17,2,-30,-16,17
-18,-3,15,10,-16,6,32,-24,-54,-71,-56,-2
-18,-20,-1,19,-8,-10,29,-39,-80,-88,-69,-11
-38,-37,1,37,-19,-18,30,-54,-94,-109,-91,-17
-39,-40,-1,39,-19,-20,26,-55,-94,-110,-97,-25
-45,-44,1,44,-23,-21,24,-58,-88,-105,-93,-33
-55,-56,-1,55,-26,-28,27,-65,-86,-105,-96,-39
-58,-55,3,56,-30,-26,29,-58,-81,-99,-94,-45
-60,-55,5,57,-32,-25,33,-53,-79,-103,-97,-45
-60,-55,5,57,-32,-25,35,-47,-75,-110,-100,-46
-64,-55,9,59,-36,-23,40,-43,-73,-110,-100,-50
-64,-54,10,59,-37,-22,42,-38,-70,-110,-100,-50
-60,-50,10,55,-35,-20,37,-34,-67,-110,-100,-53
-54,-51,4,52,-29,-23,35,-29,-65,-111,-100,-56
-60,-48,12,53,-36,-17,30,-25,-69,-107,-97,-55
-65,-45,20,55,-42,-12,27,-32,-73,-105,-94,-55
-58,-45,13,51,-35,-16,23,-42,-76,-105,-91,-55
-58,-49,9,53,-33,-20,20,-47,-83,-105,-89,-55
-58,-56,3,57,-30,-26,20,-50,-89,-105,-85,-55
-60,-62,-3,61,-28,-32,18,-58,-94,-105,-86,-55
-56,-63,-8,60,-23,-35,15,-60,-95,-110,-90,-55
-66,-76,-10,71,-28,-42,15,-61,-96,-110,-90,-55
-73,-88,-14,81,-29,-51,18,-66,-101,-114,-90,-55
-68,-81,-13,75,-27,-47,20,-64,-106,-115,-89,-57
-57,-81,-23,69,-17,-52,20,-72,-109,-117,-98,-61
-38,-76,-38,57,1,-57,20,-85,-109,-120,-102,-60
-44,-75,-31,60,-6,-53,20,-84,-110,-115,-99,-60
-47,-78,-31,62,-8,-54,19,-86,-110,-115,-100,-71
-58,-83,-26,71,-16,-54,15,-89,-110,-115,-100,-76
-70,-95,-25,83,-22,-60,15,-91,-110,-115,-99,-75
-66,-95,-29,80,-18,-61,13,-88,-109,-115,-102,-75
-64,-96,-32,80,-15,-64,9,-85,-111,-117,-105,-75
-46,-91,-45,69,0,-68,11,-85,-109,-120,-107,-75
-48,-100,-52,74,2,-76,3,-85,-111,-120,-110,-74
-45,-104,-59,75,7,-81,-8,-97,-115,-121,-106,-87
-57,-90,-32,74,-12,-61,-3,-98,-115,-120,-105,-91
-83,-90,-7,87,-38,-49,3,-90,-114,-120,-105,-89
-82,-90,-8,87,-37,-49,7,-87,-110,-120,-100,-90
-83,-90,-7,87,-38,-48,14,-79,-110,-120,-100,-93
-63,-90,-28,77,-17,-59,18,-76,-108,-119,-99,-102
-54,-89,-35,72,-10,-61,24,-68,-105,-111,-92,-99
-45,-84,-39,65,-3,-61,29,-60,-102,-103,-86,-96
-51,-87,-36,69,-7,-61,32,-52,-101,-95,-79,-94
-67,-70,-3,69,-32,-36,37,-43,-87,-87,-73,-89
-46,-33,13,40,-29,-10,48,-43,-61,-81,-66,-92
-41,-12,29,26,-35,8,65,-45,-59,-80,-62,-95
-29,5,34,12,-31,19,60,-49,-62,-80,-60,-95
-30,20,50,5,-40,35,27,-50,-58,-76,-60,-95
-37,27,63,5,-50,45,-16,-64,-68,-74,-60,-95
-19,23,42,-2,-30,32,-40,-88,-82,-79,-59,-95
-31,12,43,9,-37,27,-52,-95,-90,-80,-60,-85
-13,11,24,1,-18,17,-52,-89,-70,-72,-31,-57
1,-22,-22,11,12,-22,-29,-88,-68,-79,-39,-59
-24,-77,-54,51,15,-65,-17,-81,-113,-116,-90,-90
-39,-95,-55,67,8,-75,-17,-82,-123,-126,-95,-90
-55,-110,-55,83,1,-82,-8,-73,-118,-124,-109,-90
-61,-113,-52,88,-4,-83,-8,-74,-122,-129,-111,-87
-58,-107,-50,83,-4,-78,1,-69,-117,-129,-108,-84
-51,-102,-51,77,0,-76,5,-68,-123,-133,-113,-86
-51,-96,-45,74,-3,-70,13,-73,-116,-125,-106,-87
-46,-92,-46,69,0,-69,21,-53,-124,-137,-116,-93
-58,-94,-36,76,-11,-65,19,-84,-116,-124,-106,-87
-65,-165,-100,116,18,-133,110,43,-125,-219,-202,-170
-118,-151,-33,135,-42,-92,284,168,-112,-311,-294,-245
41,165,125,-103,-42,145,183,447,292,92,69,59
440,759,319,-600,60,539,-403,544,1204,1292,1106,867
380,943,563,-661,-92,753,-633,-77,1427,2007,1707,1288
20,356,336,-188,-158,346,-204,-385,219,880,849,662
-119,-82,38,100,-78,-22,75,-279,-455,-156,-49,-3
-106,-78,29,92,-67,-24,86,-125,-167,-146,-135,-102
-64,-58,7,61,-35,-25,67,-6,-102,-146,-102,-63
-53,-54,-1,53,-25,-27,64,-6,-66,-135,-115,-72
-39,-56,-17,47,-10,-36,64,22,-59,-128,-122,-81
-22,-55,-33,39,6,-44,55,14,-65,-128,-120,-72
-20,-55,-35,38,8,-45,57,26,-50,-117,-120,-66
-26,-55,-29,40,2,-41,58,31,-57,-120,-121,-59
-24,-47,-23,36,0,-34,61,33,-44,-111,-119,-52
-27,-43,-17,35,-5,-29,59,42,-41,-111,-121,-48
-12,-35,-23,24,6,-29,60,40,-24,-106,-119,-43
21,-32,-54,6,38,-43,60,59,-9,-97,-121,-41
9,-23,-32,7,21,-27,57,85,23,-69,-102,-21
-15,-8,7,11,-11,0,49,95,32,-65,-77,8
-21,4,25,8,-23,14,42,105,44,-44,-64,21
-11,23,33,-6,-22,28,36,120,60,-29,-53,31
8,41,33,-25,-13,37,26,152,98,-5,-20,63
18,66,47,-42,-15,57,23,205,162,59,25,111
54,107,53,-81,0,80,7,247,209,109,68,156
107,173,65,-140,20,119,-6,303,294,190,141,218
122,224,102,-174,10,163,-29,344,370,281,220,283
110,230,121,-170,-6,175,-68,355,416,344,273,322
178,310,132,-244,22,221,-75,389,485,424,354,390
223,362,139,-293,42,250,-95,400,516,484,407,435
177,327,150,-252,13,238,-105,374,518,481,391,423
184,340,156,-263,14,248,-87,352,500,453,379,417
168,314,147,-241,10,230,-67,318,430,390,329,370
143,266,123,-205,10,194,-34,250,324,271,217,288
134,229,95,-182,19,162,6,183,217,164,126,216
86,179,93,-133,-4,136,26,127,127,82,60,157
29,106,77,-68,-25,92,18,47,32,-3,-26,101
-17,44,62,-13,-40,53,11,-9,-39,-64,-76,58
-29,29,59,0,-44,44,4,-39,-78,-97,-89,40
-33,18,52,7,-42,35,-4,-59,-96,-116,-104,24
-28,21,49,3,-39,35,-11,-61,-99,-124,-110,13
-26,18,43,4,-35,30,-13,-62,-101,-125,-114,6
-25,14,40,5,-33,26,-6,-57,-100,-125,-119,1
-35,16,50,9,-43,33,-1,-54,-100,-125,-117,-5
-46,11,57,17,-52,34,4,-51,-100,-125,-115,-14
-43,9,53,17,-48,31,10,-46,-99,-125,-115,-25
-45,6,51,20,-48,28,14,-44,-95,-123,-112,-38
-44,3,47,20,-46,25,11,-40,-96,-118,-109,-43
-45,0,45,22,-45,22,10,-40,-93,-112,-111,-37
-42,1,43,20,-42,21,9,-40,-90,-109,-114,-33
-34,5,40,15,-37,22,5,-40,-90,-103,-116,-29
-32,5,37,13,-35,21,6,-40,-90,-100,-115,-23
-29,5,34,12,-32,19,3,-43,-90,-105,-115,-20
-25,6,31,10,-29,18,-1,-46,-92,-105,-115,-20
-26,4,29,11,-28,16,0,-44,-103,-109,-115,-21
-19,16,36,1,-28,26,0,-47,-107,-109,-115,-19
-14,20,34,-4,-24,27,0,-67,-112,-113,-115,-21
-23,13,36,5,-30,24,0,-72,-115,-115,-115,-20
-23,11,34,6,-29,22,-9,-74,-115,-119,-115,-18
-32,3,35,14,-34,19,-21,-79,-115,-123,-115,-14
-30,4,34,13,-32,19,-33,-80,-121,-125,-121,-15
-41,-18,23,29,-32,3,-42,-102,-149,-143,-142,-31
-61,-36,25,49,-43,-5,-47,-115,-156,-125,-155,-19
-29,-49,-19,39,-5,-34,-50,-120,-163,-139,-160,-33
-31,-43,-12,37,-9,-27,-46,-101,-160,-151,-142,-63
-31,9,41,11,-36,25,-41,-77,-123,-121,-122,-60
-4,23,27,-10,-16,25,-39,-89,-124,-127,-126,-59
-6,17,23,-6,-15,19,-34,-94,-132,-129,-125,-65
-5,12,16,-4,-11,14,-31,-96,-129,-132,-129,-78
-5,3,8,0,-6,5,-27,-100,-131,-137,-131,-93
-8,-2,6,4,-7,2,-25,-102,-129,-138,-129,-112
-13,-9,4,11,-8,-2,-22,-106,-131,-141,-130,-128
-16,-10,6,12,-11,-1,-19,-102,-128,-139,-130,-136
-14,-10,4,12,-9,-3,-16,-97,-125,-140,-130,-151
-16,-9,6,12,-11,-1,-14,-91,-125,-140,-130,-176
-16,-12,4,13,-10,-4,-11,-87,-125,-138,-130,-198
-21,-11,10,16,-16,0,-8,-78,-125,-132,-128,-217
-22,-5,17,13,-20,6,-5,-79,-126,-128,-124,-218
-22,4,27,9,-25,15,-3,-85,-119,-124,-125,-209
-27,6,33,10,-31,19,0,-71,-104,-120,-124,-206
-18,24,41,-3,-30,32,3,-53,-80,-109,-116,-187
-23,47,70,-13,-47,59,16,-44,-61,-95,-103,-163
-25,52,76,-14,-51,64,27,-25,-61,-83,-93,-157
-16,63,79,-24,-48,71,14,-14,-59,-81,-86,-151
-6,73,79,-33,-43,75,-19,-52,-64,-76,-79,-144
15,80,65,-48,-25,72,-64,-87,-81,-76,-73,-141
19,71,51,-45,-16,61,-75,-101,-98,-89,-64,-127
18,59,41,-39,-12,50,-61,-95,-91,-78,-63,-117
12,49,37,-31,-13,43,-53,-84,-77,-63,-61,-120
18,9,-9,-13,13,0,-42,-86,-88,-82,-79,-123
12,-27,-39,8,26,-33,-38,-84,-105,-104,-104,-126
-34,-67,-33,51,0,-49,-33,-87,-110,-113,-115,-129
-50,-87,-37,69,-7,-62,-28,-82,-117,-128,-133,-131
-42,-76,-34,60,-4,-55,-25,-87,-114,-121,-127,-129
-41,-77,-35,60,-3,-56,-18,-73,-113,-129,-133,-138
-28,-64,-36,46,4,-50,-15,-82,-110,-121,-127,-132
-18,-67,-49,43,16,-58,0,-66,-108,-128,-133,-140
6,-50,-57,23,32,-53,0,-74,-118,-126,-130,-137
-14,-73,-60,44,23,-66,28,-36,-108,-144,-150,-150
-92,-145,-52,119,-19,-98,173,102,-127,-280,-279,-253
-52,0,52,25,-52,26,289,277,27,-179,-203,-192
291,487,197,-389,46,342,-81,606,711,630,525,405
539,983,444,-761,47,713,-617,291,1489,1864,1580,1208
263,738,474,-501,-106,606,-457,-345,924,1636,1437,1077
-33,103,137,-35,-85,120,-43,-388,-289,225,304,246
-72,-81,-9,77,-31,-45,78,-227,-330,-185,-148,-125
-26,-55,-30,41,2,-42,81,-54,-82,-100,-97,-136
5,-48,-53,22,30,-50,55,12,-92,-127,-99,-135
-2,-41,-39,22,19,-40,52,27,-48,-99,-109,-134
7,-43,-50,19,28,-46,46,39,-58,-110,-110,-136
7,-35,-42,15,25,-38,43,33,-31,-93,-102,-134
10,-37,-47,14,29,-42,40,47,-28,-95,-102,-140
9,-31,-40,12,25,-36,35,49,-15,-83,-96,-139
10,-24,-35,7,23,-30,33,62,-4,-76,-94,-141
13,-17,-30,2,22,-24,29,60,3,-69,-88,-145
13,-11,-24,-1,19,-17,31,72,19,-59,-81,-145
15,-3,-18,-6,17,-10,26,91,30,-52,-74,-143
26,8,-18,-17,21,-4,25,99,47,-37,-68,-136
52,17,-35,-34,43,-9,25,114,64,-27,-54,-131
61,29,-32,-45,46,-2,18,128,82,-8,-32,-125
63,46,-18,-54,40,14,11,148,105,12,-12,-109
81,67,-13,-74,47,27,1,182,142,41,13,-84
93,100,6,-96,43,53,-4,225,194,103,49,-45
110,137,27,-124,42,81,-15,279,264,175,110,-1
156,192,36,-174,60,113,-27,329,339,255,186,53
200,251,52,-226,74,151,-44,371,414,343,271,118
231,302,71,-267,80,186,-74,395,473,421,338,171
253,341,89,-297,82,215,-93,392,511,482,398,215
278,364,86,-321,95,225,-102,383,525,505,431,236
284,363,78,-324,103,220,-97,379,508,495,419,226
247,321,74,-284,86,198,-83,355,466,442,379,182
196,264,68,-230,64,166,-61,298,387,343,286,104
141,195,54,-168,43,124,-32,229,284,230,183,29
87,124,37,-106,25,80,-8,157,181,131,95,-44
56,77,21,-67,17,49,1,82,86,51,18,-108
38,43,5,-41,16,24,-1,19,23,-16,-37,-149
30,26,-4,-28,17,11,3,-18,-27,-53,-75,-178
31,19,-12,-25,21,4,5,-37,-67,-67,-82,-191
32,12,-20,-22,26,-4,5,-48,-80,-79,-92,-194
34,6,-28,-20,31,-10,2,-54,-84,-81,-96,-198
25,-2,-27,-11,26,-14,-1,-52,-79,-79,-105,-200
17,-4,-21,-7,20,-12,2,-44,-69,-76,-112,-200
16,0,-16,-8,16,-8,5,-38,-62,-74,-105,-200
13,0,-13,-6,13,-6,8,-30,-54,-75,-105,-200
9,2,-7,-5,8,-2,10,-27,-47,-75,-101,-200
12,5,-6,-8,8,0,14,-30,-45,-75,-99,-197
18,5,-13,-11,15,-4,15,-30,-42,-75,-96,-195
6,1,-5,-4,6,-2,12,-33,-40,-75,-94,-195
-1,0,1,1,-1,0,7,-36,-35,-75,-96,-191
0,0,0,0,0,0,4,-35,-36,-79,-95,-190
0,1,0,0,0,0,0,-38,-44,-80,-95,-190
-1,-2,0,1,-1,-1,-3,-43,-47,-81,-95,-190
5,5,0,-5,2,3,-7,-46,-61,-84,-95,-190
20,16,-4,-18,11,6,-10,-53,-72,-86,-95,-190
22,11,-10,-16,16,0,-14,-59,-76,-83,-95,-190
23,9,-15,-16,19,-3,-17,-61,-82,-80,-95,-189
25,4,-21,-14,22,-8,-22,-67,-79,-80,-95,-192
28,1,-27,-14,27,-13,-25,-74,-82,-77,-100,-195
26,-3,-28,-11,27,-15,-21,-75,-94,-75,-103,-195
15,-11,-26,-1,20,-18,-20,-75,-95,-74,-108,-195
6,-18,-23,6,15,-20,-20,-76,-95,-82,-110,-195
14,-24,-38,5,26,-30,-15,-74,-95,-95,-110,-194
32,-21,-53,-6,43,-37,-15,-76,-95,-95,-113,-190
28,-20,-48,-4,38,-34,-16,-73,-94,-95,-116,-190
27,-19,-46,-4,37,-32,-20,-69,-90,-95,-114,-190
28,-15,-43,-6,36,-29,-20,-64,-90,-94,-111,-189
25,-15,-40,-5,33,-27,-20,-60,-90,-97,-110,-191
22,-17,-39,-2,30,-28,-20,-82,-90,-100,-110,-187
11,-23,-34,6,23,-28,-20,-93,-90,-100,-110,-178
5,-26,-31,11,18,-28,-24,-88,-90,-102,-110,-167
-4,-32,-27,18,12,-29,-25,-91,-90,-106,-112,-156
-11,-34,-24,23,7,-29,-25,-89,-90,-105,-115,-143
-12,-31,-19,21,4,-25,-25,-90,-90,-102,-115,-132
1,-24,-25,12,14,-24,-25,-85,-90,-97,-115,-122
12,-22,-33,5,23,-27,-24,-85,-89,-94,-115,-112
28,-15,-43,-6,36,-29,-15,-81,-81,-90,-115,-103
35,-13,-48,-11,41,-30,-8,-80,-73,-86,-108,-88
25,-2,-28,-11,27,-15,3,-75,-69,-83,-97,-69
42,35,-7,-38,25,13,9,-47,-52,-73,-88,-43
51,57,7,-54,22,32,19,-41,-26,-61,-85,-30
42,60,18,-51,12,39,23,-38,-18,-54,-83,-31
16,59,42,-38,-13,50,-8,-51,-33,-56,-79,-30
37,91,54,-64,-9,72,-45,-82,-46,-53,-76,-30
71,100,29,-86,20,64,-79,-101,-65,-59,-74,-33
61,72,11,-66,25,41,-86,-107,-88,-81,-69,-46
63,67,4,-65,30,35,-85,-83,-92,-88,-58,-43
45,35,-10,-40,27,12,-78,-73,-88,-81,-60,-54
22,-13,-35,-5,29,-23,-59,-91,-94,-92,-95,-103
11,-44,-55,17,33,-49,-61,-112,-109,-102,-121,-132
16,-60,-76,22,46,-68,-59,-102,-110,-108,-129,-145
21,-63,-85,21,54,-74,-57,-101,-105,-108,-125,-148
9,-66,-75,29,42,-70,-44,-92,-103,-112,-124,-153
6,-64,-69,29,38,-66,-36,-87,-101,-117,-121,-157
-4,-66,-63,35,30,-64,-25,-85,-98,-112,-116,-159
-9,-63,-55,36,24,-59,-10,-69,-109,-130,-117,-163
-4,-74,-70,39,34,-72,-1,-73,-102,-112,-116,-160
-16,-131,-115,74,50,-123,93,49,-118,-204,-224,-248
-52,-99,-47,76,-2,-73,256,179,-49,-261,-287,-302
162,250,89,-206,36,169,120,517,415,239,164,72
526,792,266,-660,130,529,-462,523,1297,1460,1249,915
434,846,412,-641,11,629,-581,-149,1363,1950,1699,1227
75,273,198,-174,-62,235,-148,-432,103,716,718,508
-56,-92,-36,74,-10,-64,52,-324,-433,-158,-100,-113
-4,-65,-61,35,28,-63,86,-120,-112,-87,-115,-163
48,-26,-74,-11,61,-50,89,12,-41,-68,-79,-122
29,-39,-68,5,49,-53,63,18,-14,-65,-99,-132
-17,-87,-70,52,26,-78,31,37,-38,-108,-122,-141
-12,-85,-73,49,30,-79,31,17,-20,-92,-115,-133
10,-73,-83,32,46,-78,44,22,-5,-78,-109,-129
11,-72,-83,31,47,-77,37,31,-9,-81,-108,-123
14,-58,-72,22,44,-65,42,51,7,-64,-100,-117
20,-52,-72,16,46,-62,39,60,5,-67,-99,-113
22,-39,-60,9,42,-49,41,71,30,-49,-86,-102
32,-32,-64,0,48,-47,36,87,50,-37,-79,-93
59,-26,-85,-16,72,-55,29,94,72,-27,-66,-82
76,-22,-99,-26,88,-60,26,103,79,-28,-61,-80
88,-18,-106,-35,97,-62,18,113,90,-10,-54,-75
84,-12,-97,-36,91,-54,15,141,121,29,-25,-48
77,-4,-81,-36,79,-42,7,175,153,66,4,-22
94,25,-68,-59,81,-21,3,210,196,109,39,10
126,73,-53,-99,89,10,-19,262,264,170,96,62
162,122,-40,-142,101,40,-37,322,335,248,165,112
189,162,-27,-176,108,67,-51,361,404,330,241,165
223,208,-15,-215,119,96,-82,389,465,408,317,219
262,258,-4,-260,132,127,-94,405,520,477,382,264
274,284,10,-279,132,147,-93,393,547,520,427,302
269,283,14,-276,127,149,-83,386,543,526,438,300
261,270,9,-266,126,139,-76,373,519,487,402,268
238,235,-3,-236,120,115,-60,335,452,417,332,210
196,175,-21,-185,108,77,-23,289,367,327,246,133
157,114,-43,-135,100,35,-2,212,265,213,145,59
142,72,-70,-107,106,1,23,135,168,121,59,0
85,11,-74,-48,80,-31,37,83,103,57,2,-35
33,-55,-88,11,61,-71,33,31,44,9,-42,-79
44,-68,-112,12,78,-90,30,3,2,-22,-72,-107
30,-76,-106,24,68,-91,26,-11,-19,-48,-78,-112
12,-90,-101,39,57,-95,22,-18,-31,-56,-79,-113
6,-91,-97,43,52,-94,20,-15,-38,-50,-81,-109
2,-91,-92,45,47,-91,26,-15,-33,-42,-80,-107
0,-89,-90,45,45,-89,28,-11,-26,-37,-80,-104
21,-87,-108,33,65,-97,24,-6,-20,-28,-80,-101
43,-84,-127,21,86,-106,26,-4,-10,-26,-78,-99
36,-85,-121,25,79,-102,21,0,0,-41,-72,-108
38,-81,-119,21,79,-99,20,5,7,-44,-67,-113
40,-74,-114,17,78,-94,20,3,5,-38,-64,-107
37,-73,-110,18,74,-92,15,-1,2,-36,-59,-102
49,-63,-112,7,81,-87,15,0,0,-32,-55,-99
44,-76,-120,16,82,-97,15,0,-4,-27,-60,-93
22,-102,-124,40,73,-113,15,0,-5,-25,-65,-91
23,-98,-121,38,72,-109,15,0,-8,-29,-68,-94
7,-111,-119,52,63,-115,15,-5,-11,-33,-73,-96
10,-121,-131,56,71,-126,15,-10,-9,-35,-75,-94
35,-114,-149,40,93,-131,15,-15,-16,-40,-75,-95
32,-110,-141,40,86,-125,15,-18,-14,-40,-75,-95
27,-122,-149,48,88,-135,15,-24,-18,-40,-75,-93
7,-142,-148,68,77,-145,16,-25,-24,-40,-75,-89
18,-139,-157,61,88,-148,19,-25,-26,-40,-75,-90
51,-141,-192,46,122,-167,21,-41,-37,-60,-91,-106
21,-145,-166,62,94,-155,17,-43,-22,-63,-93,-110
11,-145,-155,67,84,-150,15,-35,-21,-52,-83,-104
20,-145,-164,63,93,-154,15,-31,-27,-49,-78,-102
27,-145,-172,60,100,-158,11,-25,-20,-40,-71,-97
38,-144,-182,53,111,-163,10,-20,-20,-37,-74,-95
28,-151,-178,62,103,-164,10,-16,-15,-41,-77,-106
24,-162,-186,70,105,-173,20,-13,-14,-38,-79,-117
22,-162,-184,71,103,-173,28,-23,-11,-34,-83,-122
2,-180,-182,89,93,-181,25,-36,-9,-31,-85,-129
-11,-189,-178,100,84,-183,25,-32,-11,-26,-83,-131
10,-176,-186,83,99,-181,22,-23,-9,-24,-76,-128
29,-172,-201,72,115,-187,19,-18,-11,-20,-71,-126
31,-168,-200,68,116,-184,21,-10,-7,-20,-66,-122
32,-166,-199,67,116,-182,24,-5,1,-20,-59,-120
32,-163,-195,66,114,-179,29,-16,9,-20,-56,-117
35,-160,-195,63,115,-177,33,-15,18,-21,-49,-108
34,-159,-193,62,114,-176,35,12,24,-9,-43,-97
57,-128,-185,36,121,-157,59,44,35,13,-36,-90
75,-106,-181,16,128,-143,71,61,59,30,-19,-86
64,-104,-168,20,116,-136,71,60,64,29,-11,-82
55,-100,-155,22,105,-127,63,41,52,26,-9,-77
67,-97,-164,15,116,-130,26,18,45,22,-6,-71
67,-94,-161,14,114,-127,-15,6,36,19,-2,-60
53,-119,-172,34,112,-145,-36,-13,25,14,-1,-46
64,-119,-183,28,124,-151,-28,-16,34,28,7,-42
48,-130,-178,42,113,-154,-18,-6,38,59,19,-33
35,-187,-222,76,129,-204,-7,-2,26,22,-15,-46
34,-212,-246,89,140,-229,4,-21,30,-19,-39,-71
19,-229,-248,105,134,-238,18,-18,31,-19,-40,-70
32,-230,-263,99,147,-246,26,-10,28,-18,-46,-71
25,-229,-255,102,140,-242,32,-7,33,-11,-42,-75
24,-231,-254,104,139,-242,34,7,26,-15,-43,-76
21,-229,-249,104,135,-239,36,1,28,-3,-36,-71
12,-232,-244,111,128,-238,44,24,13,-29,-45,-66
24,-231,-255,104,140,-243,31,4,14,-25,-37,-47
0,-288,-287,144,144,-288,106,99,1,-76,-105,-105
-61,-309,-248,185,94,-278,266,228,17,-179,-218,-201
61,-65,-126,2,94,-95,251,508,337,105,38,20
475,475,-1,-475,237,237,-235,724,1156,1192,1014,800
533,704,171,-619,181,437,-548,138,1614,2101,1820,1382
168,221,53,-194,57,137,-197,-362,555,1188,1124,860
-31,-232,-201,132,85,-216,80,-310,-339,4,101,95
-31,-262,-231,147,100,-246,115,-112,-94,-45,-63,-76
24,-238,-263,107,143,-250,111,73,28,7,-37,-39
25,-244,-269,110,147,-256,95,87,61,7,-53,-39
58,-239,-296,91,177,-267,86,86,63,6,-56,-43
45,-247,-292,101,169,-270,86,99,61,-10,-39,-33
9,-246,-256,119,133,-251,118,120,110,10,-32,-23
27,-238,-265,105,147,-252,114,127,100,9,-43,-11
0,-237,-238,119,119,-237,113,138,129,41,-30,2
32,-243,-276,106,154,-259,107,151,125,50,-32,16
52,-245,-296,97,175,-270,98,144,129,50,-23,30
27,-234,-262,104,145,-248,94,160,147,48,-16,35
33,-226,-259,97,146,-242,85,170,155,63,-5,39
37,-217,-255,90,146,-235,81,186,176,89,18,55
30,-221,-251,96,141,-236,79,210,205,99,39,71
78,-170,-248,46,163,-208,83,240,241,132,71,99
117,-127,-244,6,180,-185,76,281,273,177,107,140
76,-166,-241,45,159,-203,64,304,298,198,126,156
106,-131,-237,13,172,-184,54,347,361,250,173,201
146,-82,-228,-31,187,-155,39,402,430,327,242,269
188,-27,-215,-80,202,-121,18,447,497,410,314,336
243,39,-204,-141,223,-82,-10,491,564,495,395,399
250,61,-189,-155,219,-64,-35,509,608,558,458,440
