I,II,III,aVR,aVL,aVF,V1,V2,V3,V4,V5,V6
-24,146,170,-61,-97,157,-50,165,135,-35,-59,631
-9,161,170,-76,-90,165,-54,174,149,-23,-48,640
5,175,170,-90,-82,172,-61,201,193,7,-21,655
16,186,170,-101,-77,178,-69,239,247,40,12,686
40,210,170,-125,-65,189,-81,286,306,82,47,719
65,235,170,-150,-52,202,-104,329,375,133,87,747
123,296,173,-210,-26,235,-143,372,437,184,136,768
162,337,176,-250,-7,257,-180,399,502,238,190,800
193,373,179,-283,7,276,-214,406,549,285,241,837
235,414,179,-325,28,296,-249,397,545,313,277,870
255,428,172,-342,41,300,-267,360,530,330,290,876
243,411,167,-327,38,289,-259,296,485,311,278,864
197,360,163,-279,17,261,-229,215,356,237,231,843
130,286,156,-208,-13,220,-169,134,195,133,135,765
34,186,152,-111,-59,169,-106,73,63,26,39,689
-26,118,145,-46,-86,131,-65,38,-38,-60,-30,638
-54,81,135,-14,-95,108,-24,29,-97,-123,-86,592
-83,42,125,20,-104,83,-17,28,-138,-158,-115,572
-91,23,114,33,-102,68,-22,24,-158,-166,-128,562
-90,20,111,35,-100,66,-2,22,-154,-173,-135,552
-85,17,103,33,-94,60,-9,19,-155,-182,-138,542
-85,32,117,26,-101,74,-22,20,-155,-185,-149,539
-88,45,133,21,-111,89,-21,20,-155,-185,-156,537
-90,55,145,17,-117,100,-17,20,-152,-185,-155,533
-98,72,170,13,-134,121,-15,20,-146,-185,-155,531
-99,71,170,14,-135,120,-12,19,-141,-185,-155,528
-83,86,169,-1,-126,128,-9,21,-138,-181,-155,526
-79,91,170,-6,-124,131,-21,25,-131,-180,-152,523
-86,92,178,-3,-132,135,-27,25,-135,-180,-149,520
-85,120,205,-18,-146,163,-24,27,-146,-180,-146,517
-89,131,220,-21,-154,175,-26,31,-146,-180,-143,514
-91,129,220,-19,-155,175,-24,30,-143,-181,-140,513
-90,130,220,-20,-155,175,-26,27,-141,-186,-141,508
-90,129,220,-20,-155,175,-20,21,-139,-191,-147,505
-90,130,221,-20,-156,176,-18,16,-142,-195,-155,501
-80,134,214,-27,-147,174,-38,14,-154,-191,-163,497
-60,129,189,-35,-125,159,-37,5,-156,-190,-159,494
-62,104,166,-22,-114,135,-26,11,-154,-190,-153,490
-76,81,157,-2,-117,119,-18,18,-156,-185,-150,489
-80,80,160,0,-120,120,-17,8,-154,-184,-145,490
-83,80,163,1,-123,121,-21,-1,-156,-186,-140,489
-86,80,166,3,-126,122,-19,-9,-172,-192,-144,490
-86,92,178,-3,-132,135,-21,-21,-185,-201,-158,487
-88,91,179,-2,-134,134,-20,-30,-181,-205,-162,484
-90,81,172,4,-131,127,-20,-31,-180,-205,-156,485
-93,76,169,8,-131,122,-20,-29,-180,-205,-151,485
-97,66,163,15,-131,114,-20,-30,-180,-205,-148,485
-96,63,159,16,-128,111,-21,-30,-180,-205,-141,485
-91,83,174,4,-133,128,-18,-30,-179,-206,-145,477
-90,126,216,-18,-153,170,-31,-42,-190,-215,-168,468
-94,153,247,-30,-171,200,-41,-56,-200,-220,-177,460
-98,149,248,-26,-173,198,-35,-54,-205,-220,-175,452
-100,143,243,-22,-172,193,-33,-49,-210,-220,-175,450
-105,135,240,-15,-172,187,-28,-48,-210,-220,-174,450
-105,129,234,-12,-170,181,-25,-41,-210,-220,-170,450
-110,119,228,-5,-169,173,-22,-43,-210,-219,-170,450
-102,120,223,-9,-163,171,-19,-64,-210,-214,-168,450
-97,120,217,-12,-157,168,-16,-65,-208,-211,-164,455
-114,95,209,9,-162,152,-13,-60,-204,-207,-165,462
-98,104,202,-3,-151,153,-10,-59,-202,-203,-161,465
-82,114,195,-16,-139,154,-10,-55,-199,-200,-160,464
-83,103,186,-10,-135,144,-9,-54,-196,-197,-159,465
-85,98,182,-7,-134,140,-10,-50,-194,-194,-156,465
-92,89,181,1,-137,135,-16,-48,-190,-190,-153,465
-98,82,180,8,-140,131,-15,-45,-190,-189,-150,469
-103,76,179,13,-141,127,-10,-42,-189,-183,-147,469
-102,74,176,13,-139,125,-9,-40,-184,-190,-145,471
-99,71,169,14,-134,120,-4,-37,-185,-201,-143,475
-97,69,165,13,-131,117,-7,-32,-182,-196,-139,475
-98,64,162,17,-131,113,-17,-29,-179,-193,-140,473
-87,68,154,9,-121,111,-15,-27,-180,-189,-140,468
-90,70,159,10,-125,114,-15,-19,-176,-185,-140,465
-82,75,157,3,-119,116,-15,-26,-175,-182,-140,461
-78,91,169,-6,-123,129,-15,-41,-175,-179,-135,457
-72,90,162,-9,-117,126,-15,-35,-170,-177,-135,454
-48,90,137,-21,-92,113,-11,-30,-170,-174,-135,450
-70,90,160,-10,-115,125,-7,-28,-170,-171,-135,446
-73,90,162,-9,-117,126,-2,-18,-170,-169,-135,443
-85,90,175,-3,-130,132,-1,-29,-170,-183,-133,439
-102,91,194,6,-148,142,-8,-47,-167,-193,-130,435
-85,100,185,-8,-135,142,-14,-41,-164,-187,-127,434
-89,116,204,-14,-147,160,-21,-39,-165,-183,-124,435
-90,118,208,-14,-149,163,-28,-35,-165,-178,-121,435
-90,110,200,-10,-145,155,-26,-31,-165,-174,-119,435
-88,107,195,-10,-142,151,-19,-28,-164,-169,-116,435
-91,99,190,-4,-141,144,-12,-24,-160,-164,-111,434
-83,96,179,-7,-131,137,-7,-21,-152,-159,-109,435
-78,78,156,0,-118,117,3,-17,-146,-152,-104,433
-84,58,142,12,-113,100,-3,-16,-140,-148,-101,445
-73,54,127,9,-101,90,-10,4,-132,-141,-97,463
-73,48,121,12,-97,84,16,21,-128,-138,-89,461
-34,80,114,-23,-74,96,38,32,-100,-110,-62,474
-9,106,115,-48,-62,110,42,57,-73,-80,-38,491
-5,89,94,-42,-50,91,37,74,-75,-79,-40,486
7,56,49,-32,-21,52,33,67,-81,-82,-41,479
-30,13,44,8,-37,28,27,59,-80,-83,-39,472
-43,3,46,20,-45,24,24,46,-88,-87,-42,465
-66,-22,44,43,-55,11,19,40,-98,-100,-49,460
-100,-55,45,77,-72,-5,14,41,-118,-108,-46,454
-99,-53,46,75,-72,-3,35,36,-121,-99,-36,455
-101,-78,23,89,-62,-27,45,40,-99,-98,-32,453
-79,-98,-19,89,-29,-59,52,27,-103,-96,-23,450
-73,-127,-55,100,-9,-91,76,47,-68,-84,-23,450
-88,-138,-49,113,-19,-93,76,30,-98,-95,-40,447
-86,-157,-71,121,-7,-113,72,57,-47,-61,-29,445
-103,-186,-82,145,-10,-134,83,39,-88,-81,-36,449
-85,-174,-89,129,2,-131,82,73,-43,-40,-22,452
-90,-175,-85,132,-2,-130,99,48,-64,-68,-30,442
-142,-141,2,142,-72,-69,126,53,11,-6,-8,452
120,-12,-132,-54,126,-72,-94,244,550,323,265,626
604,624,20,-614,291,322,-809,-690,519,969,965,1194
704,871,167,-788,268,519,-1061,-1147,812,1537,1318,1444
258,83,-175,-170,216,-46,-321,-269,447,490,458,821
-79,-322,-242,201,82,-282,174,74,-353,-358,-145,398
-52,-227,-176,140,62,-201,176,182,-21,-72,-25,434
-55,-157,-102,106,24,-130,168,205,2,-81,-13,450
-63,-120,-57,91,-3,-88,143,178,40,-20,29,474
-55,-132,-77,94,11,-105,136,200,86,-12,22,474
-57,-112,-55,85,-1,-83,121,172,47,-8,34,478
-48,-114,-66,81,9,-90,113,189,94,18,56,475
-48,-100,-52,74,2,-75,103,174,59,4,45,473
-41,-88,-47,65,4,-68,92,184,94,30,55,476
-40,-78,-38,59,-1,-58,87,178,86,20,46,473
-28,-56,-28,42,0,-41,78,180,111,39,53,477
-16,-43,-27,30,5,-35,73,180,115,39,52,478
-12,-33,-21,23,5,-27,65,181,133,60,64,480
-5,-26,-21,15,9,-24,60,202,161,71,78,482
-1,-16,-15,9,7,-15,51,218,188,90,87,492
8,-9,-17,1,12,-12,38,232,221,118,101,506
28,19,-9,-24,18,5,27,247,254,127,126,522
58,53,-5,-55,31,24,14,270,298,158,151,539
92,57,-35,-74,64,11,4,308,353,202,181,568
118,77,-41,-97,79,18,-19,354,421,242,226,606
141,109,-32,-125,86,39,-41,395,495,294,268,637
166,135,-31,-150,98,52,-69,437,572,356,324,680
210,186,-24,-198,117,81,-111,455,624,403,369,718
251,231,-21,-241,136,105,-146,450,653,433,409,751
281,264,-17,-272,149,123,-179,439,663,455,425,785
290,282,-8,-286,149,137,-197,389,636,453,411,797
253,245,-7,-249,130,119,-187,310,536,401,393,767
170,176,5,-173,82,90,-132,235,388,315,321,731
98,108,10,-103,44,59,-67,160,234,200,221,646
28,61,33,-45,-3,47,-29,102,98,89,115,582
-29,19,48,4,-39,33,-3,59,15,5,32,535
-60,-3,57,31,-58,27,30,40,-37,-47,-10,482
-56,-6,50,31,-53,22,41,26,-69,-76,-50,482
-58,-17,41,37,-49,12,39,19,-79,-95,-58,421
-73,-17,55,45,-64,19,42,22,-80,-100,-60,479
-47,-31,16,39,-31,-8,36,16,-99,-123,-84,376
-107,-15,92,61,-99,38,49,24,-90,-98,-65,502
123,-34,-157,-44,140,-96,-15,-67,-152,-187,-146,108
259,-65,-324,-97,292,-194,-60,-108,-224,-271,-195,-1094
-10,3,12,4,-11,7,8,-14,-160,-164,-96,-1016
-47,37,84,5,-66,60,37,25,-119,-119,-72,-557
-51,46,97,3,-74,71,53,51,-82,-94,-66,-414
-62,53,115,4,-89,84,62,73,-52,-73,-63,-169
-50,46,96,1,-73,71,57,79,-53,-79,-68,-56
-82,56,138,13,-110,96,53,78,-43,-72,-63,95
-79,62,141,8,-111,101,48,73,-42,-73,-67,149
-82,78,159,2,-121,118,44,76,-31,-67,-67,204
-83,79,162,1,-122,120,40,69,-34,-75,-71,248
-81,82,163,0,-123,122,44,71,-48,-90,-71,270
-63,94,158,-16,-111,126,48,69,-53,-93,-76,306
-64,90,155,-14,-110,122,50,63,-55,-98,-74,314
-66,85,151,-9,-109,117,50,58,-64,-115,-86,316
-68,80,147,-6,-108,113,50,52,-81,-123,-105,314
-70,73,143,-2,-107,108,51,47,-87,-126,-105,315
-68,69,137,-1,-103,103,49,41,-90,-131,-104,315
-70,65,134,2,-102,100,46,44,-90,-134,-106,311
-66,61,127,2,-97,94,43,44,-90,-135,-103,310
-68,59,127,4,-97,92,41,37,-105,-137,-112,310
-75,53,129,11,-102,91,37,33,-111,-145,-125,311
-77,64,142,6,-110,103,35,27,-110,-149,-127,310
-62,89,151,-14,-107,120,33,21,-110,-151,-129,313
-60,90,150,-15,-104,120,29,16,-118,-155,-133,329
-71,90,161,-10,-116,126,30,19,-123,-153,-135,334
-64,96,160,-16,-112,128,30,25,-119,-149,-133,337
-59,89,148,-16,-104,119,30,31,-120,-151,-128,341
-62,80,143,-9,-103,112,30,34,-116,-146,-125,347
-67,76,143,-5,-105,109,25,27,-115,-145,-122,355
-74,73,148,0,-111,110,26,22,-114,-145,-117,355
-78,70,149,4,-114,110,23,17,-123,-140,-115,355
-86,67,153,9,-120,110,36,11,-131,-140,-121,355
-90,65,155,12,-123,110,47,7,-123,-140,-128,355
-90,63,153,13,-122,108,42,1,-120,-140,-130,355
-93,56,149,19,-122,102,40,-5,-115,-139,-130,355
-98,49,147,24,-122,98,36,-10,-110,-143,-130,355
-102,43,144,29,-123,93,35,-15,-107,-145,-130,355
-104,36,140,34,-123,88,31,-22,-101,-146,-130,355
-111,30,141,41,-126,85,30,-24,-97,-155,-130,354
-91,25,116,33,-104,70,29,-18,-92,-150,-124,356
-61,20,81,21,-71,50,26,-11,-88,-142,-117,360
-53,18,70,17,-62,44,23,-4,-83,-136,-111,360
-50,8,58,21,-55,33,31,3,-80,-130,-104,360
-61,-14,47,37,-54,16,50,9,-77,-127,-98,360
-78,-33,45,55,-62,5,55,10,-75,-123,-92,360
-99,-54,45,76,-72,-4,58,10,-71,-119,-90,360
-115,-70,45,92,-80,-12,61,10,-69,-116,-86,360
-119,-74,45,96,-81,-14,59,10,-74,-112,-84,360
-101,-56,45,78,-73,-6,61,10,-75,-110,-80,360
-82,-37,45,59,-63,4,59,9,-75,-110,-80,359
-107,-63,44,85,-75,-9,60,3,-75,-107,-85,362
-125,-78,46,101,-85,-16,60,-3,-74,-104,-85,365
-104,-63,42,83,-73,-10,53,-7,-76,-106,-89,360
-99,-49,50,74,-74,0,46,-14,-81,-116,-90,355
-102,-24,78,63,-90,27,39,-18,-84,-114,-92,349
-81,-6,75,44,-78,34,31,-26,-89,-120,-99,343
-73,-2,71,37,-72,35,23,-33,-90,-131,-108,339
-85,6,91,39,-88,48,22,-30,-91,-130,-113,334
-71,18,89,26,-80,54,27,-30,-89,-129,-108,328
-59,17,76,21,-68,47,35,-28,-95,-125,-105,324
-67,2,68,32,-68,34,39,-24,-106,-125,-102,320
-75,-18,57,46,-65,19,36,-26,-100,-123,-97,315
-72,-24,48,48,-60,11,33,-21,-95,-119,-94,319
-74,-37,38,55,-56,1,30,-20,-91,-121,-91,322
-75,-48,26,61,-50,-11,28,-20,-86,-119,-88,326
-83,-52,31,68,-57,-10,23,-15,-83,-121,-86,323
-84,-54,31,69,-57,-11,27,-15,-75,-119,-82,329
-45,-53,-8,49,-18,-30,28,-14,-70,-114,-80,343
-37,-68,-31,53,-3,-50,33,-6,-62,-105,-77,345
-29,-60,-31,44,1,-45,56,1,-57,-101,-58,357
-29,-27,1,28,-15,-13,59,8,-43,-88,-40,374
-31,14,45,8,-38,29,62,20,-23,-51,-28,404
9,11,2,-10,3,6,69,48,-19,-34,-24,414
10,-37,-47,13,29,-42,64,46,-17,-36,-25,402
9,-73,-82,32,46,-77,59,19,-11,-34,-25,398
6,-94,-100,45,53,-97,53,9,-12,-35,-25,388
-25,-112,-86,69,31,-99,48,6,-19,-44,-25,382
-64,-146,-81,105,9,-113,42,-4,-58,-65,-31,379
-94,-164,-71,129,-11,-117,42,-9,-51,-60,-33,380
-91,-166,-76,129,-7,-121,46,-32,-56,-69,-40,379
-88,-163,-75,126,-6,-119,44,-38,-58,-63,-37,380
-80,-168,-87,124,4,-127,46,-31,-46,-62,-34,379
-81,-162,-81,122,0,-121,44,-52,-71,-64,-33,379
-71,-168,-96,120,13,-132,46,-25,-19,-50,-26,375
-88,-152,-64,120,-11,-108,45,-69,-75,-80,-31,370
-80,-147,-67,114,-6,-107,37,-28,18,-43,-17,371
-104,-128,-24,116,-40,-76,44,-98,-86,-103,-30,360
-105,-61,44,83,-74,-9,32,17,173,56,32,397
266,207,-59,-236,162,74,-350,-124,538,412,393,678
699,895,196,-798,251,545,-1098,-1226,419,1167,1148,1290
628,802,174,-716,227,488,-996,-1129,777,1404,1176,1294
124,-40,-164,-42,144,-102,-168,-260,132,80,170,570
-89,-216,-126,153,19,-171,134,-61,-319,-346,-162,320
-13,-91,-78,53,33,-84,107,69,58,-51,-25,380
-60,-53,7,57,-33,-23,80,27,-26,-120,-52,370
-60,-32,28,46,-44,-2,60,11,67,-30,0,393
-50,-39,12,45,-31,-13,64,16,44,-58,-8,379
-49,-21,28,35,-39,4,49,-2,60,-21,4,387
-47,-23,24,35,-35,1,48,9,81,-18,5,400
-45,-11,33,28,-38,10,39,-11,71,-12,6,412
-29,-10,19,19,-24,4,37,2,105,5,15,409
-32,-11,21,21,-27,5,33,4,90,4,32,409
-20,-8,12,14,-16,2,29,17,123,31,55,422
-29,-18,11,23,-20,-3,26,23,136,38,55,432
-18,-26,-8,22,-4,-17,22,37,171,70,74,450
2,-24,-27,11,15,-25,13,54,196,83,84,459
3,-8,-11,3,7,-9,2,61,216,95,93,460
25,26,1,-25,11,13,-8,80,245,113,111,470
39,61,22,-51,8,41,-20,104,280,135,123,490
42,84,42,-63,0,63,-35,135,328,169,149,511
54,103,49,-79,2,76,-66,162,374,201,179,536
95,151,56,-124,19,103,-84,212,443,249,219,576
129,193,64,-162,32,128,-113,264,524,306,269,609
172,238,66,-206,53,152,-158,286,579,353,312,641
227,291,64,-259,81,177,-190,305,636,409,366,675
242,309,66,-276,88,187,-234,300,661,443,410,707
268,331,63,-300,103,197,-262,270,660,454,432,741
266,337,71,-302,97,204,-272,210,616,446,437,743
226,304,78,-265,74,191,-257,122,501,390,388,699
157,228,71,-192,43,149,-198,39,345,280,287,628
78,136,58,-108,10,96,-140,-34,184,156,182,550
31,52,20,-42,5,36,-87,-90,68,55,101,479
-2,-16,-14,9,6,-15,-43,-116,-1,-17,41,422
-25,-54,-29,39,3,-41,-23,-114,-33,-51,0,390
-54,-93,-39,73,-7,-65,-15,-110,-50,-68,-12,380
-53,-110,-57,82,2,-83,-7,-107,-52,-75,-17,370
-47,-117,-70,82,12,-93,1,-102,-47,-75,-26,359
-55,-136,-81,95,14,-108,7,-100,-46,-75,-32,355
-53,-144,-92,99,20,-118,12,-94,-42,-75,-40,352
-61,-149,-88,105,14,-119,14,-89,-40,-75,-45,350
-52,-148,-96,100,22,-122,11,-84,-38,-73,-45,346
-40,-141,-101,90,31,-121,8,-78,-32,-70,-45,344
-43,-134,-91,89,25,-113,6,-72,-28,-70,-45,341
-41,-128,-87,85,23,-107,2,-67,-24,-70,-45,339
-42,-120,-79,81,19,-100,0,-65,-19,-70,-48,340
-44,-116,-72,80,15,-94,0,-62,-14,-70,-51,339
-48,-120,-72,84,13,-96,0,-59,-11,-65,-50,340
-54,-128,-75,91,11,-101,0,-56,-8,-65,-54,339
-43,-130,-87,87,22,-108,0,-55,-5,-65,-55,334
-41,-130,-89,86,24,-110,0,-55,-3,-65,-55,330
-43,-141,-97,92,27,-119,1,-55,1,-65,-60,327
-38,-148,-110,93,36,-128,4,-55,-2,-67,-64,323
-30,-142,-112,86,42,-126,7,-55,-9,-82,-68,320
-42,-156,-114,99,37,-135,9,-55,-13,-90,-73,315
-68,-187,-119,128,25,-153,13,-57,-19,-91,-75,307
-44,-190,-146,117,51,-168,15,-60,-25,-95,-78,301
-34,-192,-158,114,62,-174,18,-60,-30,-97,-81,293
-48,-201,-153,125,53,-177,24,-64,-35,-100,-84,285
-42,-199,-156,121,57,-177,30,-66,-38,-103,-88,279
-50,-204,-154,128,52,-178,34,-64,-43,-106,-93,272
-67,-218,-151,142,43,-184,30,-62,-45,-110,-97,267
-71,-220,-149,145,39,-185,25,-57,-46,-118,-102,258
-70,-221,-151,145,40,-186,21,-74,-50,-122,-105,237
-68,-214,-146,141,39,-180,16,-92,-57,-126,-111,222
-59,-192,-133,126,38,-163,12,-94,-76,-140,-127,210
-60,-173,-113,117,26,-143,7,-92,-85,-146,-133,201
-67,-161,-94,114,13,-127,5,-90,-86,-144,-136,196
-59,-146,-87,103,14,-117,2,-90,-92,-149,-140,191
-61,-144,-83,102,11,-113,-1,-90,-94,-150,-143,187
-74,-153,-78,114,2,-115,-4,-90,-98,-150,-147,182
-73,-147,-74,110,1,-110,-5,-91,-100,-155,-150,178
-67,-137,-69,102,1,-103,-5,-100,-104,-158,-153,174
-64,-130,-65,97,1,-97,-5,-102,-105,-163,-157,168
-62,-122,-60,92,-1,-91,-4,-99,-106,-165,-162,165
-61,-116,-55,89,-2,-86,-6,-100,-110,-165,-164,160
-58,-109,-51,84,-3,-80,-4,-95,-110,-165,-168,156
-56,-102,-46,79,-5,-74,-10,-95,-112,-165,-170,151
-52,-97,-45,75,-3,-71,-21,-94,-116,-164,-174,145
-45,-90,-45,68,0,-67,-19,-90,-114,-160,-174,140
-46,-90,-45,69,-1,-67,-14,-91,-112,-160,-169,134
-38,-84,-46,62,4,-65,-12,-87,-109,-160,-171,128
-46,-89,-44,68,-1,-67,-7,-85,-106,-160,-167,124
-67,-128,-60,97,-3,-94,-5,-85,-103,-160,-165,119
-62,-135,-73,98,6,-103,-10,-89,-100,-157,-165,116
-59,-125,-66,92,4,-95,-10,-90,-99,-154,-162,113
-54,-120,-66,87,6,-92,-11,-90,-95,-155,-159,108
-52,-112,-60,82,4,-86,-15,-94,-95,-155,-156,105
-45,-106,-61,75,8,-83,-15,-96,-93,-155,-153,105
-50,-108,-58,79,4,-83,-13,-93,-89,-155,-150,105
-66,-140,-74,103,4,-107,-10,-90,-90,-150,-151,105
-44,-148,-104,97,30,-126,-7,-90,-86,-150,-155,105
-40,-140,-100,90,30,-120,-4,-88,-84,-149,-155,105
-45,-138,-93,92,24,-115,0,-84,-85,-144,-155,104
-43,-132,-88,88,23,-110,0,-85,-85,-145,-155,99
-49,-129,-80,89,16,-104,-5,-85,-85,-142,-154,96
-47,-123,-76,85,14,-99,-10,-85,-85,-140,-157,93
-48,-117,-69,82,11,-93,-14,-85,-85,-140,-169,88
-48,-112,-63,80,8,-87,-19,-85,-85,-137,-170,85
-46,-105,-60,76,7,-82,-23,-85,-84,-134,-162,88
-46,-101,-55,74,5,-78,-24,-84,-94,-136,-161,90
-36,-90,-54,63,9,-72,-14,-68,-84,-128,-154,89
-33,-80,-47,57,7,-63,-10,-47,-64,-121,-153,91
-23,-70,-47,47,12,-58,2,-27,-56,-108,-134,104
4,-33,-37,15,20,-34,41,-11,-25,-69,-101,125
7,-16,-23,5,15,-19,33,2,-15,-54,-99,131
38,-26,-63,-6,51,-44,-11,18,-13,-53,-100,129
42,-48,-90,3,66,-69,-33,-4,-18,-67,-104,130
13,-70,-82,29,48,-76,-22,-31,-34,-83,-111,130
-23,-93,-71,58,24,-82,11,-35,-50,-90,-117,130
-51,-141,-91,96,20,-116,35,-39,-48,-92,-120,131
-36,-153,-117,94,41,-135,43,-55,-50,-99,-120,134
-48,-147,-99,98,25,-122,37,-63,-63,-100,-120,137
-38,-153,-115,95,39,-134,37,-35,-36,-89,-119,130
-51,-154,-103,102,26,-129,31,-57,-70,-95,-123,131
-74,-196,-121,135,24,-158,31,-14,-23,-71,-111,125
-63,-193,-131,128,35,-162,28,-53,-74,-91,-113,125
-81,-191,-110,136,15,-151,21,-20,-16,-54,-92,133
-108,-192,-84,150,-12,-138,51,-56,-64,-72,-99,118
-106,-145,-39,126,-33,-92,88,-7,80,20,-73,133
181,28,-153,-104,167,-63,-195,128,563,320,203,326
671,710,39,-690,315,374,-946,-913,543,1028,950,913
712,823,110,-768,301,466,-1059,-1228,881,1462,1190,1058
198,-15,-213,-91,205,-114,-277,-338,335,314,238,391
-100,-354,-254,227,77,-303,141,-73,-365,-346,-221,60
-42,-250,-208,146,83,-229,131,59,7,-73,-85,106
-44,-176,-133,111,45,-154,114,89,-8,-99,-111,121
-40,-144,-104,92,32,-124,93,58,50,-21,-62,140
-41,-150,-108,96,34,-129,91,68,61,-17,-64,131
-38,-106,-68,72,16,-87,66,44,44,-13,-44,137
-9,-77,-68,43,30,-72,49,58,74,-19,-36,134
-25,-68,-43,46,9,-55,41,41,55,-21,-34,135
-29,-71,-43,50,7,-57,36,45,93,19,-21,135
-30,-66,-36,48,3,-51,31,39,81,27,-20,140
-32,-65,-33,49,1,-49,25,50,123,43,-9,146
7,-64,-72,29,40,-68,20,59,131,52,0,154
12,-73,-86,31,49,-79,28,74,155,76,28,169
8,-81,-89,37,49,-85,32,89,181,92,42,175
34,-67,-101,17,67,-84,18,91,202,109,58,182
32,-61,-93,14,63,-76,7,107,243,131,73,194
34,-55,-89,11,62,-72,-5,125,280,168,97,221
54,-28,-82,-13,68,-55,-23,154,322,202,136,249
96,18,-78,-57,87,-30,-49,187,372,236,168,267
124,52,-72,-88,98,-10,-73,218,432,276,202,299
151,88,-64,-119,107,12,-96,259,506,332,254,335
192,134,-58,-163,125,38,-135,287,571,387,315,368
228,179,-49,-204,139,65,-180,307,626,436,359,397
284,207,-77,-245,180,64,-213,311,657,476,407,427
302,203,-98,-252,200,52,-230,298,659,502,455,459
289,196,-93,-242,191,51,-227,270,637,517,448,457
270,175,-96,-222,183,39,-202,199,532,467,409,438
201,107,-95,-153,148,6,-153,118,389,366,343,390
120,25,-95,-72,107,-35,-90,61,242,254,230,304
48,-47,-95,0,72,-71,-36,15,113,147,138,239
-7,-101,-94,55,44,-98,2,-22,42,81,80,189
-31,-127,-96,80,32,-111,27,-39,-1,36,32,152
-48,-145,-97,97,24,-120,41,-40,-21,16,16,143
-50,-145,-96,98,24,-121,45,-40,-35,6,12,130
-50,-144,-94,98,23,-119,45,-39,-42,-6,4,119
-50,-146,-95,98,23,-120,45,-35,-39,-13,-2,114
-49,-144,-95,97,23,-120,45,-33,-41,-20,-9,108
-54,-145,-90,100,18,-117,45,-30,-40,-20,-14,105
-48,-127,-79,88,16,-103,44,-26,-41,-20,-20,100
-66,-111,-45,88,-11,-77,40,-25,-38,-20,-26,95
-82,-104,-22,94,-30,-63,40,-27,-33,-20,-32,91
-71,-97,-26,85,-22,-61,40,-26,-28,-20,-34,89
-67,-91,-24,80,-21,-58,40,-22,-24,-17,-21,90
-58,-83,-25,71,-16,-54,40,-20,-19,-13,-11,90
-55,-80,-25,68,-15,-52,36,-17,-15,-9,-9,90
-56,-80,-23,68,-16,-51,35,-15,-20,-6,-6,89
-60,-80,-20,70,-20,-50,36,-19,-25,-1,-4,84
-66,-80,-14,73,-26,-46,35,-20,-29,-1,0,85
-56,-80,-23,68,-16,-51,36,-20,-34,-8,-1,82
-63,-94,-31,78,-16,-63,33,-25,-39,-14,-8,79
-72,-102,-30,87,-21,-66,30,-25,-42,-21,-14,80
-74,-99,-25,87,-25,-61,30,-25,-48,-28,-21,76
-76,-100,-25,88,-26,-62,28,-25,-50,-34,-28,72
-81,-100,-18,91,-32,-59,25,-25,-50,-32,-27,69
-78,-100,-22,89,-28,-61,25,-25,-50,-26,-19,66
-71,-116,-45,93,-13,-80,35,-25,-50,-22,-13,62
-69,-127,-58,99,-5,-93,41,-25,-50,-18,-6,58
-54,-132,-77,93,12,-104,40,-22,-50,-12,1,56
-72,-152,-80,112,5,-116,40,-17,-50,-10,8,53
-72,-156,-84,114,7,-120,46,-14,-50,-10,14,68
-58,-154,-96,106,19,-125,51,-10,-50,-10,19,76
-68,-156,-88,112,10,-121,49,-7,-50,-10,20,70
-70,-154,-84,112,8,-119,54,-3,-53,-10,20,68
-83,-160,-77,122,-2,-119,55,0,-55,-10,24,63
-86,-158,-72,122,-6,-115,55,0,-55,-7,26,60
-85,-152,-67,119,-8,-109,55,2,-55,-4,23,57
-87,-148,-61,117,-13,-104,55,6,-55,-1,20,52
-85,-141,-56,113,-14,-98,55,5,-54,2,17,49
-85,-136,-51,111,-17,-93,55,5,-51,5,15,45
-94,-138,-44,116,-24,-91,55,5,-48,4,11,42
-100,-141,-41,120,-30,-91,53,5,-45,-1,10,38
-85,-139,-55,112,-15,-97,49,5,-43,-4,13,35
-75,-140,-65,108,-5,-103,50,5,-39,-7,16,33
-70,-139,-69,104,0,-104,50,4,-43,-12,19,30
-69,-134,-66,102,-1,-100,50,-1,-45,-15,22,27
-71,-131,-60,101,-6,-95,51,1,-45,-15,24,24
-72,-127,-56,100,-8,-91,48,-3,-44,-15,27,22
-73,-124,-51,98,-10,-87,59,-5,-46,-15,30,19
-73,-119,-47,96,-13,-83,66,-5,-50,-15,33,16
-75,-117,-42,97,-17,-79,65,0,-46,-15,35,13
-68,-108,-40,88,-13,-74,63,8,-39,-14,38,9
-72,-108,-36,90,-18,-71,59,16,-34,-2,40,11
-55,-90,-36,73,-9,-63,61,28,-29,8,42,19
-43,-60,-17,52,-13,-38,61,38,-4,28,64,37
-50,-59,-10,55,-20,-34,73,61,18,50,83,53
-12,-62,-50,38,19,-56,61,60,15,48,78,48
-4,-66,-62,36,30,-64,18,28,0,38,72,40
-13,-63,-50,38,19,-56,16,22,-10,33,67,35
-40,-88,-49,64,5,-68,48,23,-27,26,60,27
-79,-115,-36,97,-21,-75,61,4,-66,13,52,22
-76,-111,-35,94,-20,-73,60,-3,-53,11,47,15
-81,-109,-27,95,-27,-68,59,-29,-78,-9,36,15
-80,-111,-31,95,-24,-71,55,-20,-59,-3,33,14
-79,-111,-31,95,-24,-71,55,-29,-79,-26,23,10
-82,-107,-25,95,-28,-66,61,-32,-66,-16,35,10
-75,-113,-39,94,-18,-76,74,-21,-65,-26,37,8
-87,-92,-5,89,-40,-48,67,-43,-90,-12,37,6
-95,-107,-12,101,-41,-60,78,8,-24,9,36,2
-149,-61,88,104,-118,14,120,-65,-106,-21,18,-2
-21,11,32,4,-26,21,42,179,414,250,176,62
435,478,43,-456,195,260,-522,-232,619,809,759,514
690,997,307,-844,192,652,-1022,-1102,707,1692,1403,955
364,432,69,-398,147,251,-486,-547,651,1123,863,541
-55,-189,-134,122,39,-161,164,5,-269,-226,-16,-9
-95,-194,-99,145,3,-146,219,48,-175,-128,-7,-46
-63,-126,-63,95,1,-94,181,129,34,-3,55,-9
-61,-50,11,56,-36,-19,145,70,-6,-2,73,18
-44,-33,11,38,-27,-11,129,85,98,70,102,28
-54,-15,39,34,-46,12,120,66,33,32,86,22
-37,-5,32,21,-34,13,111,70,88,80,107,26
-48,4,52,22,-50,28,108,65,58,57,97,17
-52,16,67,18,-60,42,91,58,74,77,112,22
-42,29,71,6,-57,50,78,63,76,85,109,17
-30,49,78,-10,-54,63,70,57,91,109,118,32
-24,60,85,-18,-55,72,67,62,109,110,124,47
-17,80,97,-32,-57,88,59,59,123,112,129,44
-4,106,110,-51,-58,108,57,67,144,133,142,45
-5,136,142,-66,-74,139,33,75,149,148,152,45
12,152,140,-82,-64,145,18,80,186,167,164,45
19,159,140,-89,-61,149,14,97,214,191,179,50
30,170,140,-100,-55,154,-14,115,260,219,214,75
64,211,148,-138,-42,179,-31,141,310,251,244,96
104,258,154,-181,-25,206,-47,172,372,297,276,124
138,279,142,-209,-2,210,-75,197,453,351,331,159
167,303,136,-235,15,219,-105,241,535,419,391,192
198,333,135,-266,31,234,-135,254,604,480,445,230
225,359,134,-293,45,246,-167,267,653,535,497,273
255,386,131,-321,62,258,-205,273,680,564,534,305
280,409,129,-344,75,269,-210,234,651,558,540,296
265,395,129,-330,68,262,-195,185,574,527,512,283
196,337,141,-267,27,238,-174,106,419,431,444,242
136,278,142,-207,-3,210,-103,35,240,303,327,151
75,205,130,-140,-28,167,-43,-13,95,176,218,72
3,131,128,-67,-62,129,-2,-63,-10,86,145,12
-16,101,117,-43,-67,109,38,-85,-64,36,90,-26
-24,92,117,-35,-71,104,42,-87,-98,-9,59,-53
-55,90,145,-17,-100,118,38,-89,-111,-30,47,-69
-64,87,151,-11,-108,118,44,-96,-123,-38,36,-69
-70,82,152,-6,-111,116,59,-101,-128,-41,24,-83
-75,80,155,-3,-115,117,60,-96,-124,-44,20,-91
-70,90,160,-11,-115,125,55,-94,-126,-44,18,-90
-76,102,177,-14,-127,139,54,-90,-124,-40,15,-96
-66,107,172,-21,-119,139,50,-86,-126,-40,11,-95
-60,111,171,-26,-115,141,49,-83,-124,-40,10,-95
-58,108,167,-25,-113,137,43,-77,-121,-40,7,-95
-59,107,165,-25,-113,136,37,-73,-117,-40,4,-95
-63,99,162,-19,-113,131,33,-69,-114,-44,5,-95
-51,107,158,-28,-104,132,26,-64,-110,-45,4,-95
-52,129,181,-39,-117,155,21,-60,-105,-48,5,-97
-57,130,186,-37,-121,158,24,-67,-107,-50,3,-103
-54,130,184,-39,-119,157,26,-71,-113,-52,-4,-106
-56,129,185,-37,-120,157,22,-68,-117,-54,-11,-111
-48,131,178,-42,-113,155,20,-78,-120,-63,-17,-114
-57,128,185,-36,-121,157,16,-79,-126,-72,-27,-118
-69,132,201,-32,-135,166,15,-86,-141,-83,-32,-124
-67,168,235,-51,-151,201,15,-105,-158,-106,-40,-136
-79,177,256,-50,-168,216,15,-105,-170,-106,-57,-156
-74,164,237,-45,-156,200,15,-105,-171,-104,-49,-159
-73,149,222,-38,-148,185,15,-105,-170,-106,-39,-151
-82,129,211,-24,-147,170,15,-105,-169,-104,-41,-149
-76,121,198,-23,-137,159,16,-103,-164,-105,-39,-143
-75,112,187,-19,-131,149,21,-99,-165,-105,-40,-140
-71,104,174,-17,-123,139,24,-97,-165,-105,-39,-145
-69,100,169,-15,-119,134,27,-94,-165,-105,-42,-145
-68,95,163,-14,-116,129,32,-91,-165,-105,-46,-146
-68,91,159,-12,-114,125,35,-90,-165,-105,-44,-150
-66,89,155,-12,-111,122,31,-90,-165,-106,-46,-150
-59,90,149,-16,-104,120,30,-90,-165,-109,-44,-152
-65,90,155,-13,-110,122,30,-90,-169,-112,-46,-157
-63,90,153,-14,-108,121,30,-90,-170,-114,-49,-160
-72,90,161,-9,-117,125,30,-89,-174,-118,-52,-165
-96,83,179,7,-138,130,29,-93,-175,-120,-55,-169
-84,98,183,-7,-134,140,23,-95,-177,-122,-57,-173
-63,119,182,-28,-123,150,15,-95,-180,-129,-81,-177
-72,123,194,-26,-133,158,10,-98,-183,-136,-92,-181
-68,141,209,-36,-139,175,2,-101,-186,-139,-89,-186
-64,151,215,-44,-139,183,-3,-99,-190,-142,-91,-189
-70,148,219,-39,-145,184,-12,-95,-199,-146,-90,-192
-67,151,218,-43,-142,184,-23,-87,-197,-149,-89,-195
-64,148,212,-43,-138,180,-17,-82,-195,-154,-86,-197
-65,154,219,-45,-142,186,-11,-73,-194,-154,-83,-201
-35,190,225,-78,-131,208,-4,-68,-196,-157,-81,-198
-8,232,240,-112,-124,236,2,-61,-173,-130,-76,-187
-19,262,281,-121,-151,271,10,-44,-141,-96,-65,-185
-8,260,268,-126,-138,264,13,-45,-136,-95,-52,-185
7,241,234,-124,-114,237,-13,-56,-121,-94,-57,-185
-6,226,232,-111,-119,229,-28,-80,-149,-114,-68,-185
-25,210,235,-92,-130,222,-23,-97,-166,-122,-73,-184
-45,204,249,-79,-148,226,-21,-95,-182,-140,-95,-206
-48,204,253,-78,-151,228,-19,-108,-217,-167,-115,-219
-48,198,246,-75,-147,222,-14,-103,-202,-167,-126,-220
-62,198,260,-69,-161,229,-16,-122,-227,-184,-135,-226
-73,193,266,-60,-170,229,-24,-112,-199,-170,-128,-224
-85,199,284,-57,-185,241,-32,-128,-224,-187,-133,-226
-85,202,287,-59,-186,244,-33,-115,-194,-162,-126,-223
-84,196,279,-57,-181,237,-23,-121,-211,-186,-134,-227
-88,207,295,-60,-191,250,-22,-126,-203,-168,-126,-223
-78,191,270,-57,-174,230,-9,-102,-183,-174,-130,-228
-144,250,395,-53,-270,322,9,-171,-221,-179,-123,-232
-1,362,363,-181,-182,362,-138,24,294,121,51,-127
464,905,441,-684,11,672,-787,-655,358,673,641,335
713,1315,601,-1014,56,958,-1208,-1328,595,1483,1214,717
352,635,283,-494,34,459,-576,-542,471,719,526,226
-103,85,188,9,-146,136,29,-89,-460,-495,-276,-294
-93,133,226,-20,-160,179,72,-22,-253,-265,-190,-269
-45,205,250,-80,-147,227,56,46,-115,-199,-166,-250
-70,267,338,-98,-204,302,25,-25,-154,-183,-153,-237
-54,266,320,-106,-187,293,11,-4,-75,-140,-132,-223
-61,276,336,-108,-199,306,5,-23,-130,-171,-141,-221
-49,282,331,-117,-190,307,-4,-9,-70,-125,-124,-211
-50,286,335,-119,-193,311,-7,-11,-102,-150,-133,-212
-50,286,336,-119,-193,311,-19,-11,-64,-115,-120,-203
-50,283,333,-117,-192,308,-17,-6,-56,-120,-121,-202
-50,287,337,-119,-194,312,-15,-6,-36,-98,-108,-196
-48,285,333,-119,-191,309,-31,-3,-21,-90,-102,-194
-26,310,336,-142,-182,323,-47,-3,-12,-78,-94,-191
-13,345,358,-166,-186,351,-53,2,16,-64,-86,-188
-14,363,376,-175,-195,369,-57,-1,32,-53,-75,-185
11,387,376,-199,-182,381,-64,12,68,-31,-62,-183
22,402,380,-212,-179,391,-76,35,108,-6,-43,-173
19,401,383,-210,-182,392,-83,63,153,30,-14,-152
45,429,384,-238,-170,407,-96,91,208,62,9,-123
78,465,388,-272,-155,426,-126,128,272,106,42,-85
117,510,393,-314,-138,451,-153,170,341,153,95,-53
161,552,391,-357,-115,472,-181,205,416,211,148,-21
193,582,389,-388,-98,485,-216,230,479,267,192,1
239,629,390,-434,-76,509,-249,237,517,310,238,31
265,655,390,-460,-63,522,-280,220,525,339,274,64
267,656,389,-462,-61,522,-297,177,498,333,276,64
231,629,398,-430,-84,513,-282,112,402,293,242,47
166,561,396,-364,-115,478,-234,29,242,189,154,-15
108,473,365,-291,-128,418,-161,-31,78,57,48,-92
40,374,334,-208,-147,354,-95,-71,-46,-42,-37,-152
-9,311,321,-151,-165,316,-60,-112,-133,-122,-111,-214
-37,280,317,-122,-177,298,-44,-125,-187,-176,-164,-251
-51,257,308,-104,-180,283,-28,-125,-201,-193,-182,-265
-51,246,297,-97,-174,271,-15,-125,-207,-199,-188,-278
-53,231,284,-89,-168,257,-10,-122,-206,-205,-191,-282
-48,214,262,-83,-156,238,-8,-120,-205,-204,-190,-277
-42,203,246,-81,-144,224,-5,-117,-203,-206,-195,-274
-44,198,241,-77,-143,219,-1,-114,-199,-210,-194,-271
-47,191,238,-72,-143,214,0,-111,-201,-210,-197,-265
-48,184,232,-68,-140,208,4,-109,-196,-207,-207,-267
-52,177,229,-63,-141,203,5,-106,-189,-201,-205,-271
-50,174,224,-63,-137,199,5,-101,-182,-196,-200,-270
-50,175,226,-63,-138,200,10,-99,-176,-191,-198,-269
-45,174,219,-65,-133,196,10,-94,-169,-184,-193,-265
-45,175,220,-65,-133,197,11,-91,-166,-181,-190,-265
-60,174,234,-57,-148,204,15,-88,-171,-184,-186,-264
-42,166,208,-62,-125,186,15,-85,-170,-185,-185,-259
-32,154,186,-61,-109,170,15,-82,-173,-185,-185,-260
-49,143,192,-47,-121,167,15,-79,-175,-185,-185,-260
-64,131,195,-34,-130,163,15,-76,-175,-185,-185,-260
-71,115,186,-22,-129,150,21,-74,-171,-182,-183,-260
-49,99,148,-26,-99,124,34,-70,-170,-179,-180,-256
-40,75,115,-18,-78,95,44,-65,-170,-180,-177,-255
-59,47,106,6,-82,76,45,-61,-165,-176,-175,-254
-62,32,94,14,-78,63,45,-56,-165,-174,-172,-250
-53,17,70,17,-62,43,45,-51,-165,-175,-169,-249
-39,7,46,16,-43,26,45,-52,-165,-175,-174,-251
-44,-9,35,26,-39,13,57,-55,-164,-175,-175,-255
-43,-10,34,26,-38,12,61,-55,-170,-175,-175,-255
-47,-17,30,32,-38,6,59,-55,-180,-175,-179,-254
-69,-42,28,55,-48,-7,61,-55,-180,-175,-180,-255
-64,-39,25,51,-44,-7,59,-55,-180,-173,-179,-255
-64,-41,23,52,-43,-9,61,-49,-180,-169,-174,-252
-51,-39,13,45,-32,-13,64,-43,-180,-167,-171,-249
-49,-44,5,47,-27,-20,65,-39,-178,-164,-167,-246
-54,-57,-3,56,-25,-30,67,-33,-171,-161,-163,-243
-40,-68,-28,55,-6,-48,71,-27,-166,-160,-159,-240
-50,-90,-41,70,-4,-65,70,-25,-159,-160,-157,-241
-44,-102,-58,73,7,-80,70,-25,-156,-160,-153,-245
-41,-119,-78,81,19,-99,76,-25,-159,-160,-152,-245
-51,-134,-83,93,16,-108,78,-25,-160,-160,-148,-245
-56,-136,-80,97,12,-108,75,-25,-160,-160,-145,-245
-53,-121,-68,88,8,-95,72,-24,-160,-157,-144,-245
-56,-118,-62,87,3,-90,69,-33,-160,-154,-137,-248
-61,-115,-54,88,-3,-84,66,-38,-158,-155,-154,-250
-41,-96,-55,69,7,-75,64,-34,-154,-151,-162,-249
-54,-102,-49,78,-2,-75,62,-30,-152,-150,-155,-250
-64,-112,-48,88,-8,-80,54,-27,-149,-150,-155,-249
-41,-115,-75,79,17,-95,66,-22,-146,-145,-150,-251
-33,-120,-87,77,27,-103,82,-20,-144,-145,-150,-258
-45,-122,-76,84,16,-99,82,-35,-140,-144,-144,-257
-53,-126,-73,90,11,-100,85,-35,-132,-140,-138,-251
-37,-130,-93,84,28,-111,89,-21,-126,-140,-134,-246
-44,-133,-90,89,23,-111,90,-13,-119,-138,-127,-243
-33,-152,-119,93,43,-135,94,-3,-112,-133,-123,-236
-22,-182,-159,103,68,-170,94,1,-110,-130,-117,-237
-39,-191,-152,116,57,-172,90,7,-110,-127,-115,-244
-19,-176,-156,98,69,-166,90,12,-110,-122,-115,-247
-19,-173,-154,97,68,-164,90,18,-110,-120,-116,-246
-25,-180,-155,103,65,-167,90,18,-110,-120,-114,-244
-25,-179,-154,102,65,-166,90,14,-110,-120,-116,-240
-35,-183,-147,109,56,-165,102,16,-110,-120,-119,-239
-46,-188,-143,117,48,-165,106,11,-110,-120,-120,-235
-57,-194,-137,126,40,-166,104,10,-110,-120,-133,-235
-61,-193,-131,127,35,-162,102,10,-110,-120,-136,-257
-58,-184,-126,121,34,-155,99,5,-110,-120,-134,-267
-32,-175,-143,104,56,-159,100,2,-112,-120,-131,-263
-25,-167,-142,96,59,-154,95,-2,-115,-120,-130,-269
-37,-163,-126,100,45,-144,91,-5,-115,-120,-129,-270
-31,-157,-126,95,47,-141,89,-10,-115,-120,-124,-270
-30,-154,-124,92,48,-139,84,-8,-115,-120,-125,-275
-23,-148,-125,86,52,-136,81,-4,-115,-120,-123,-279
-21,-146,-125,84,52,-135,77,-6,-119,-120,-119,-283
-23,-149,-125,87,51,-137,75,-1,-122,-120,-120,-287
-30,-151,-122,91,46,-136,75,0,-128,-120,-123,-292
-42,-144,-102,93,30,-123,72,0,-131,-122,-126,-296
-26,-115,-89,70,32,-102,69,5,-135,-127,-135,-300
-8,-98,-91,53,42,-95,71,5,-140,-129,-137,-304
-14,-103,-88,59,37,-95,74,6,-140,-125,-134,-305
-32,-117,-85,75,27,-101,75,10,-140,-125,-135,-305
-38,-122,-84,81,23,-103,75,10,-140,-125,-135,-305
-26,-113,-88,70,31,-100,75,8,-140,-125,-135,-304
-17,-107,-90,63,37,-99,75,3,-137,-125,-134,-307
-16,-101,-85,59,35,-93,75,0,-134,-122,-129,-310
-8,-93,-85,51,39,-89,75,0,-135,-119,-131,-310
-8,-92,-84,50,38,-87,75,0,-135,-120,-129,-310
-16,-96,-80,56,32,-87,75,0,-135,-120,-134,-310
-15,-95,-80,55,33,-87,76,0,-134,-120,-150,-309
-17,-95,-78,56,31,-86,74,0,-130,-120,-149,-305
-21,-95,-74,58,27,-85,71,2,-125,-115,-146,-305
-23,-95,-72,59,25,-83,68,9,-121,-115,-143,-304
-24,-92,-68,58,23,-80,65,14,-116,-114,-140,-299
-8,-74,-66,41,29,-70,63,18,-112,-110,-138,-301
23,-42,-65,10,44,-53,59,28,-107,-111,-126,-298
42,0,-43,-20,42,-22,71,26,-98,-108,-111,-295
36,35,-2,-35,19,16,72,57,-94,-105,-101,-295
36,44,8,-40,14,26,51,64,-95,-105,-100,-291
62,32,-29,-47,45,1,41,34,-95,-105,-98,-289
67,20,-47,-43,57,-13,40,37,-96,-105,-106,-291
45,10,-35,-27,40,-12,39,21,-107,-105,-119,-301
14,-18,-32,2,23,-25,36,15,-122,-118,-135,-319
-15,-39,-24,28,4,-31,34,3,-149,-140,-148,-333
-22,-43,-20,33,-1,-31,36,1,-134,-134,-142,-341
-31,-49,-18,41,-6,-33,40,-8,-144,-140,-147,-343
-36,-47,-11,42,-13,-28,39,-16,-139,-131,-143,-338
-33,-47,-14,40,-9,-30,43,-15,-135,-135,-146,-338
-37,-37,0,38,-19,-18,45,-25,-153,-132,-145,-333
-31,-42,-11,37,-10,-26,45,1,-115,-123,-143,-331
-29,-29,0,29,-14,-14,49,-38,-162,-142,-152,-330
-17,-34,-18,26,1,-26,55,17,-70,-95,-142,-335
-66,-15,51,40,-58,18,66,-66,-172,-146,-163,-343
-54,38,92,8,-74,65,49,84,144,28,-63,-305
323,317,-6,-320,164,156,-375,-143,439,399,322,-13
770,961,191,-866,289,576,-1121,-1242,398,1164,1074,584
674,754,80,-714,297,417,-948,-982,766,1261,1002,498
165,-83,-248,-41,206,-165,-104,-123,19,-38,-11,-205
-34,-240,-206,137,87,-223,170,54,-339,-326,-227,-376
7,-134,-141,64,74,-138,145,183,28,-57,-95,-325
-23,-98,-75,61,26,-86,142,145,-61,-116,-120,-320
-24,-90,-66,57,22,-78,128,140,41,-34,-72,-286
-24,-100,-76,62,27,-88,133,143,11,-61,-89,-296
-9,-91,-81,50,37,-86,123,134,40,-16,-61,-281
-2,-99,-96,51,48,-97,123,140,52,-22,-59,-284
-17,-93,-75,55,29,-84,118,129,49,-6,-43,-275
-3,-96,-93,50,45,-94,112,142,76,11,-31,-272
16,-95,-110,40,64,-102,104,144,75,18,-24,-264
16,-95,-111,40,64,-102,97,159,119,51,-7,-254
32,-96,-128,32,80,-111,89,163,128,58,3,-247
42,-94,-136,26,89,-114,82,173,154,79,20,-238
38,-80,-118,21,78,-98,73,179,181,93,30,-234
53,-45,-97,-4,75,-71,57,186,198,101,43,-227
76,-6,-82,-34,79,-44,46,203,217,111,53,-221
106,35,-71,-70,88,-18,32,223,252,133,62,-209
119,59,-59,-89,89,0,22,250,292,155,73,-198
131,80,-51,-105,91,15,1,285,346,192,107,-174
161,122,-39,-141,100,41,-31,329,411,235,154,-139
197,162,-35,-179,116,63,-54,366,477,284,198,-105
243,208,-34,-225,138,87,-95,395,529,333,239,-77
285,248,-37,-266,160,106,-132,393,575,372,284,-49
311,289,-21,-300,166,134,-167,379,584,404,324,-21
310,322,12,-316,149,167,-199,361,572,415,335,6
291,313,21,-302,135,167,-206,300,542,412,332,5
262,287,24,-275,119,155,-196,204,421,352,291,-34
218,240,22,-229,98,130,-147,109,267,246,206,-90
159,174,15,-167,72,94,-88,50,125,139,112,-171
99,109,10,-104,44,60,-45,11,12,45,23,-240
52,56,4,-55,24,30,-11,-9,-55,-22,-36,-284
33,31,-2,-32,17,14,11,-19,-87,-62,-73,-320
27,23,-4,-25,15,9,19,-39,-99,-80,-99,-339
3,12,9,-8,-3,11,24,-39,-111,-89,-102,-342
-8,3,11,2,-10,7,30,-35,-111,-90,-100,-339
-5,-3,2,4,-3,0,25,-32,-105,-90,-100,-340
-3,-7,-4,5,1,-5,25,-27,-100,-90,-100,-340
-1,-11,-11,6,5,-11,23,-25,-94,-90,-100,-340
5,-16,-21,6,14,-19,20,-19,-89,-91,-99,-339
0,-20,-20,10,11,-20,19,-14,-84,-85,-96,-335
-7,-26,-20,17,7,-23,26,-8,-75,-76,-91,-335
14,-33,-47,10,30,-40,47,-2,-65,-68,-89,-335
10,-58,-68,24,39,-63,55,2,-55,-58,-84,-335
-1,-77,-76,39,38,-77,56,7,-46,-55,-81,-335
-2,-76,-75,40,37,-75,60,12,-45,-53,-80,-332
-5,-81,-76,44,35,-78,62,16,-45,-50,-80,-330
3,-83,-85,40,45,-84,65,21,-40,-47,-80,-330
-3,-88,-85,46,41,-87,65,25,-40,-44,-80,-330
-8,-89,-81,48,37,-85,65,20,-41,-50,-80,-330
-5,-84,-79,45,38,-82,65,15,-57,-60,-80,-330
-10,-86,-76,48,33,-81,64,11,-71,-70,-86,-337
-9,-84,-75,47,33,-79,61,6,-73,-77,-92,-345
-5,-86,-81,46,39,-83,56,2,-92,-85,-98,-350
3,-83,-86,40,45,-85,53,-3,-102,-91,-100,-358
7,-87,-94,40,51,-90,50,-5,-99,-89,-99,-360
4,-91,-96,44,50,-93,44,-5,-104,-91,-104,-360
0,-108,-108,54,55,-108,54,-5,-105,-89,-105,-360
-5,-132,-127,69,61,-129,66,-5,-105,-93,-105,-360
-2,-126,-125,65,62,-125,64,-5,-110,-105,-109,-360
1,-123,-124,62,63,-124,65,-10,-110,-105,-112,-360
0,-120,-120,60,60,-120,65,-10,-111,-105,-115,-365
5,-115,-120,55,63,-117,65,-11,-115,-105,-117,-368
2,-113,-115,55,59,-113,62,-16,-114,-104,-121,-373
-16,-103,-87,60,36,-95,57,-14,-117,-107,-117,-379
-23,-96,-74,60,26,-85,55,-18,-120,-110,-115,-383
-20,-87,-67,54,24,-77,50,-20,-120,-110,-115,-387
-20,-81,-61,51,21,-71,47,-20,-124,-110,-111,-390
-20,-74,-54,47,18,-64,43,-25,-125,-110,-109,-393
-21,-67,-47,44,13,-57,40,-25,-125,-110,-111,-395
-14,-61,-47,38,17,-54,38,-25,-125,-106,-114,-405
-3,-54,-50,29,24,-52,34,-25,-125,-104,-115,-407
7,-48,-55,21,32,-52,32,-25,-125,-105,-115,-404
6,-47,-53,21,30,-50,29,-23,-125,-105,-115,-405
-8,-74,-66,41,29,-70,36,-19,-125,-105,-115,-404
-5,-87,-82,46,39,-84,43,-20,-122,-104,-115,-405
-6,-85,-79,46,37,-82,40,-20,-119,-100,-113,-402
-16,-108,-92,62,38,-100,40,-20,-121,-100,-109,-399
-20,-116,-96,69,38,-106,40,-19,-116,-100,-107,-400
-27,-121,-94,75,33,-107,40,-16,-115,-100,-104,-396
-29,-125,-96,78,34,-111,40,-13,-114,-100,-101,-394
-31,-125,-94,78,32,-109,43,-10,-111,-96,-99,-395
-30,-125,-96,78,33,-110,45,-8,-108,-95,-96,-399
-36,-125,-89,80,27,-106,45,-4,-105,-94,-94,-400
-32,-125,-93,79,31,-109,45,-8,-103,-91,-95,-400
-5,-121,-116,63,56,-118,45,-10,-98,-89,-94,-400
4,-115,-119,56,62,-117,43,-10,-106,-91,-96,-400
2,-110,-111,54,57,-110,40,-10,-116,-95,-92,-397
4,-105,-109,51,57,-107,37,-10,-114,-95,-90,-394
7,-97,-103,45,55,-99,35,-9,-115,-97,-90,-395
1,-99,-100,49,51,-99,32,-6,-115,-100,-86,-395
9,-97,-106,45,58,-101,29,-3,-115,-100,-85,-395
12,-100,-112,44,62,-105,38,0,-113,-96,-85,-395
-7,-125,-117,66,56,-121,42,3,-109,-95,-85,-395
-9,-138,-129,73,60,-133,39,5,-110,-95,-85,-395
-7,-138,-131,73,62,-134,40,7,-109,-90,-85,-395
-4,-132,-129,68,63,-130,40,10,-110,-90,-85,-395
-2,-128,-126,66,62,-127,40,13,-109,-89,-85,-395
0,-124,-124,63,62,-124,41,16,-106,-84,-83,-392
8,-119,-127,56,68,-122,46,20,-103,-79,-78,-389
0,-139,-139,69,70,-138,50,20,-100,-75,-72,-386
-3,-159,-156,82,77,-157,50,15,-98,-70,-69,-384
-2,-162,-160,83,79,-161,51,15,-94,-65,-64,-380
-5,-156,-152,81,74,-154,51,15,-98,-69,-59,-380
-3,-148,-144,76,71,-146,48,15,-100,-70,-72,-385
-5,-140,-135,73,65,-137,45,15,-100,-72,-81,-389
0,-132,-131,66,66,-131,43,15,-99,-76,-79,-393
1,-134,-135,67,69,-134,39,15,-102,-73,-80,-398
0,-135,-135,68,68,-135,42,15,-114,-70,-80,-400
2,-135,-137,67,70,-136,46,15,-111,-70,-80,-399
6,-134,-140,64,74,-137,45,15,-104,-68,-76,-403
3,-136,-140,66,72,-138,45,15,-100,-64,-75,-405
-15,-152,-136,84,61,-144,45,15,-93,-66,-75,-405
-18,-153,-135,86,58,-144,45,15,-90,-61,-70,-410
-10,-145,-135,78,63,-140,50,15,-89,-60,-70,-410
-6,-142,-135,75,65,-138,50,15,-91,-60,-69,-410
0,-134,-134,67,67,-134,51,15,-90,-55,-64,-410
7,-131,-138,63,73,-135,55,17,-86,-55,-61,-410
-2,-155,-153,79,76,-154,55,24,-84,-55,-57,-408
4,-167,-171,81,88,-169,55,30,-79,-55,-54,-402
34,-156,-191,61,113,-173,55,23,-77,-54,-50,-399
38,-152,-190,57,114,-170,55,39,-71,-57,-47,-393
47,-144,-191,48,119,-167,57,60,-55,-41,-43,-391
86,-110,-196,12,142,-153,83,79,-30,0,-2,-367
104,-88,-192,-8,148,-140,93,110,-3,30,23,-342
86,-123,-209,19,148,-166,51,101,7,33,13,-350
71,-149,-219,39,146,-184,28,75,-5,23,9,-355
69,-142,-211,36,141,-176,36,55,-29,9,0,-364
43,-159,-202,59,123,-180,43,47,-33,2,-5,-383
9,-177,-186,84,98,-181,46,34,-62,-12,-16,-396
3,-173,-176,85,90,-174,44,26,-82,-19,-24,-407
0,-178,-177,89,89,-177,46,25,-80,-30,-32,-411
-7,-172,-165,90,79,-168,44,6,-100,-35,-44,-408
-8,-178,-170,93,82,-174,46,15,-68,-23,-40,-412
-15,-171,-156,93,71,-163,50,-11,-99,-40,-42,-414
-11,-170,-159,90,74,-164,49,20,-52,-17,-32,-415
-20,-172,-152,96,66,-161,52,-4,-93,-46,-39,-415
-16,-158,-142,87,64,-150,46,28,-46,-13,-24,-413
-24,-177,-153,101,65,-165,63,-6,-73,-46,-34,-417
-59,-121,-62,90,2,-92,81,-2,1,11,-19,-397
198,40,-158,-119,178,-59,-156,125,494,324,228,-244
673,663,-10,-667,341,326,-890,-891,430,953,927,321
785,907,122,-846,332,514,-1147,-1329,763,1520,1303,594
338,95,-243,-216,290,-74,-385,-382,438,509,437,-46
-19,-322,-303,171,142,-312,128,-7,-357,-320,-169,-474
10,-223,-233,107,122,-228,130,116,-29,-39,-35,-418
30,-167,-197,68,114,-181,128,154,1,-44,-26,-412
25,-113,-137,44,81,-125,109,105,15,12,12,-400
20,-126,-146,53,83,-136,105,132,48,17,11,-402
17,-109,-125,46,71,-117,92,110,23,17,17,-398
23,-109,-132,43,78,-120,84,127,70,45,30,-394
16,-102,-119,43,68,-110,79,116,45,32,28,-395
18,-98,-116,40,67,-107,69,122,86,61,42,-384
22,-99,-121,39,72,-109,66,125,73,58,40,-379
34,-91,-125,29,80,-108,55,127,104,86,58,-369
45,-112,-157,34,101,-134,59,136,132,107,71,-363
51,-121,-172,35,112,-147,60,146,158,130,94,-354
60,-120,-180,30,120,-150,52,159,176,145,104,-346
66,-118,-184,26,125,-150,46,168,204,161,117,-338
76,-114,-190,19,133,-152,38,187,246,186,142,-327
88,-114,-202,13,145,-157,34,222,282,213,165,-300
109,-90,-199,-9,154,-144,25,250,321,239,193,-267
145,-67,-212,-39,179,-139,10,289,375,281,230,-243
167,-49,-216,-59,192,-132,-14,335,446,327,269,-222
205,-9,-214,-98,210,-111,-38,372,511,373,312,-197
240,28,-212,-134,226,-92,-66,408,577,428,371,-161
285,76,-209,-181,247,-66,-106,426,626,473,418,-130
327,117,-210,-222,269,-47,-137,431,646,509,452,-96
340,137,-203,-238,271,-32,-170,397,635,526,490,-68
336,141,-195,-238,265,-26,-172,345,623,531,506,-58
315,124,-191,-220,253,-33,-159,278,552,501,480,-62
276,80,-196,-177,236,-58,-141,186,399,419,408,-125
185,-12,-197,-86,191,-104,-82,117,257,318,313,-200
108,-96,-204,-6,156,-149,-25,67,135,218,224,-264
47,-165,-212,59,130,-189,15,35,53,143,156,-323
18,-202,-220,92,120,-211,54,26,10,88,108,-363
16,-221,-236,103,126,-228,72,24,-23,55,78,-395
-6,-247,-241,127,118,-244,82,25,-32,56,70,-398
6,-250,-256,122,131,-253,86,25,-30,54,67,-402
9,-253,-262,122,136,-257,84,25,-26,51,65,-404
2,-256,-259,127,131,-257,85,26,-23,49,61,-399
-1,-258,-257,130,128,-257,86,30,-18,52,60,-401
-8,-261,-254,135,123,-257,90,32,-15,55,59,-399
3,-252,-256,125,130,-254,90,35,-11,55,62,-400
4,-251,-254,124,129,-252,90,39,-4,60,61,-399
16,-240,-256,113,136,-248,90,38,1,58,55,-397
8,-247,-255,120,132,-251,90,53,12,68,77,-394
2,-278,-280,138,141,-278,94,67,25,75,91,-390
19,-279,-298,131,158,-288,96,64,35,86,95,-389
-1,-294,-293,148,146,-293,94,64,35,98,101,-383
3,-308,-311,153,158,-310,112,74,34,91,99,-389
13,-303,-316,146,165,-310,121,79,35,90,100,-396
5,-306,-311,151,158,-308,115,70,35,86,100,-395
5,-304,-310,149,158,-306,113,65,36,85,100,-394
0,-305,-305,153,153,-305,108,57,29,80,96,-399
0,-305,-305,153,153,-305,105,51,16,66,94,-421
-6,-305,-299,155,147,-302,101,49,5,55,95,-431
-3,-304,-301,154,149,-302,100,52,-2,47,90,-429
-13,-308,-295,161,141,-302,100,56,-6,43,90,-430
-9,-305,-296,158,143,-300,95,51,-11,37,89,-432
2,-289,-291,144,147,-290,95,46,-15,31,80,-442
-4,-278,-274,141,135,-276,94,43,-20,26,72,-456
10,-267,-277,129,143,-272,89,37,-23,21,63,-459
-11,-259,-248,135,119,-253,86,33,-27,19,56,-466
-27,-253,-226,140,100,-239,83,30,-38,16,55,-481
-22,-247,-224,135,101,-235,78,28,-41,13,55,-484
-29,-243,-214,136,93,-228,74,25,-39,10,55,-488
-25,-237,-211,131,93,-224,79,22,-41,11,55,-490
-35,-234,-199,135,82,-216,80,20,-39,15,53,-489
-12,-228,-216,120,102,-222,81,17,-42,15,50,-490
8,-225,-232,108,120,-228,84,15,-45,11,50,-490
-16,-240,-224,129,104,-232,86,15,-45,10,50,-490
-20,-243,-223,132,102,-233,83,15,-48,10,50,-490
-17,-235,-218,126,101,-226,80,14,-51,10,50,-495
-17,-232,-215,125,100,-223,81,17,-54,9,54,-494
-13,-224,-211,119,99,-217,77,20,-57,11,55,-496
-11,-221,-210,116,99,-215,76,22,-60,15,55,-500
-30,-234,-204,132,87,-219,73,26,-60,14,54,-499
-33,-244,-211,139,89,-227,79,21,-60,26,50,-502
-4,-235,-231,120,114,-233,87,16,-60,29,47,-506
-2,-229,-227,115,113,-227,76,11,-60,20,45,-509
-11,-217,-206,114,98,-212,68,8,-60,15,41,-512
-2,-197,-195,100,97,-196,61,2,-60,7,39,-515
3,-188,-191,93,97,-190,56,1,-56,1,44,-519
2,-186,-188,92,95,-187,51,15,-55,-4,45,-522
2,-182,-184,91,93,-183,48,14,-55,-5,45,-525
4,-178,-182,87,93,-180,42,5,-55,-5,45,-529
4,-175,-179,85,92,-177,41,0,-54,-10,46,-527
2,-171,-172,85,87,-171,47,-8,-58,-10,50,-524
-5,-170,-165,88,80,-167,44,-14,-66,-8,50,-521
-12,-163,-152,88,71,-157,41,-12,-62,-5,50,-519
-3,-172,-168,88,83,-169,39,-4,-56,-2,50,-515
-5,-191,-186,98,91,-188,34,2,-54,0,53,-515
-13,-188,-174,101,81,-181,37,10,-46,4,57,-523
-9,-181,-172,95,82,-176,41,14,-50,5,60,-525
-11,-177,-166,94,78,-171,39,9,-61,8,64,-524
-8,-170,-162,90,77,-166,35,6,-58,14,65,-525
-7,-165,-158,86,76,-161,34,3,-55,17,65,-525
-7,-161,-154,84,74,-157,29,-2,-53,22,65,-525
3,-154,-156,76,80,-155,31,-5,-50,25,65,-525
-11,-164,-152,88,71,-158,41,-1,-48,25,65,-525
-9,-171,-162,90,77,-166,39,5,-44,27,65,-525
4,-165,-169,80,87,-167,51,10,-42,30,61,-525
-17,-177,-160,97,72,-168,63,17,-39,30,60,-524
-21,-176,-154,99,67,-165,56,19,-36,27,60,-527
-19,-166,-147,93,64,-157,56,11,-34,23,56,-530
-21,-162,-141,92,60,-152,51,4,-43,19,54,-533
-16,-152,-135,84,60,-143,50,-2,-51,16,57,-535
-16,-143,-127,80,55,-134,46,-12,-57,11,56,-545
-12,-131,-119,72,54,-125,40,-17,-63,11,53,-556
-2,-112,-110,58,54,-111,35,-18,-65,16,48,-562
3,-97,-100,48,52,-98,29,-13,-77,17,47,-565
1,-87,-88,43,45,-87,24,-12,-69,23,39,-565
4,-68,-72,32,38,-70,19,-7,-56,21,43,-565
34,-29,-62,-2,48,-45,42,6,-39,41,73,-569
76,11,-65,-43,71,-27,63,27,-14,62,94,-570
88,24,-64,-55,76,-20,47,52,4,49,100,-569
97,31,-67,-64,82,-18,10,22,5,41,87,-570
98,45,-53,-71,75,-4,-13,-18,-37,28,69,-569
48,20,-28,-33,37,-4,-8,-15,-47,20,61,-572
3,-11,-15,4,9,-13,3,-25,-80,4,49,-575
-3,-8,-5,6,1,-6,7,-37,-79,-2,40,-579
-13,-6,6,9,-9,0,3,-53,-86,-24,30,-595
-20,1,21,9,-20,10,-2,-52,-116,-31,29,-608
-4,-1,3,2,-4,1,-2,-45,-99,-27,26,-615
-4,10,13,-4,-9,12,-12,-68,-129,-32,22,-616
-18,7,25,5,-22,16,-7,-41,-82,-13,23,-621
-29,29,58,0,-43,43,-22,-96,-148,-37,14,-618
-11,43,54,-16,-33,48,-22,-39,-59,5,21,-621
-42,54,96,-7,-69,75,11,-102,-133,-39,6,-628
-43,70,113,-14,-78,91,9,24,113,99,58,-615
310,313,3,-312,154,157,-340,19,572,490,443,-355
733,1002,270,-868,232,636,-1065,-1052,564,1304,1213,244
642,894,252,-768,195,573,-972,-1039,856,1515,1205,213
151,69,-81,-110,116,-6,-168,-213,112,189,235,-465
-70,-143,-73,107,2,-107,113,-59,-370,-256,-78,-686
-7,-43,-36,25,15,-39,86,81,13,11,36,-644
-7,43,49,-18,-28,46,66,69,-66,-33,39,-627
-1,74,75,-37,-38,75,30,59,37,63,96,-585
-18,65,83,-24,-51,74,25,65,18,32,79,-590
-30,74,104,-22,-67,88,14,48,39,65,94,-579
-18,69,88,-26,-53,78,11,61,54,67,93,-578
-9,91,100,-41,-55,95,1,43,35,74,100,-572
-1,90,92,-45,-47,90,-4,56,79,90,109,-567
8,105,97,-57,-44,100,-9,52,67,90,106,-563
32,127,95,-80,-32,111,-16,59,92,110,120,-555
32,126,94,-79,-32,110,-20,61,97,110,127,-552
39,135,96,-88,-28,115,-28,56,126,136,143,-544
