I,II,III,aVR,aVL,aVF,V1,V2,V3,V4,V5,V6
-40,-23,17,31,-28,-3,190,167,352,97,21,70
-36,-12,24,23,-30,6,190,194,393,120,31,77
-37,0,37,18,-37,18,190,230,483,164,37,93
-33,28,61,2,-47,44,190,271,570,215,39,118
2,85,83,-43,-41,84,195,326,684,283,67,162
-5,129,135,-62,-70,132,201,374,807,359,95,202
11,176,165,-93,-78,170,199,418,905,433,127,247
45,221,177,-133,-66,199,201,434,981,513,165,307
48,245,197,-147,-75,221,198,418,978,544,202,355
74,288,214,-181,-71,251,166,390,924,542,228,381
69,276,208,-173,-70,242,124,308,798,500,221,361
34,235,201,-135,-84,218,89,207,579,366,184,294
7,189,182,-98,-88,185,78,127,386,233,135,210
-9,114,123,-53,-66,118,81,65,229,120,95,136
-29,62,91,-17,-61,77,77,25,118,30,46,83
-47,25,73,11,-60,49,75,13,50,-27,15,52
-51,3,55,24,-53,29,75,8,9,-59,13,35
-62,-19,43,40,-52,12,79,0,-11,-63,9,19
-61,-44,17,52,-39,-13,80,-8,-36,-78,6,7
-49,-48,1,48,-25,-23,80,-14,-38,-81,2,0
-31,-50,-18,40,-6,-34,80,-10,-34,-79,-2,-5
-51,-70,-19,61,-16,-45,80,-2,-29,-81,-4,-10
-61,-83,-23,72,-19,-53,79,4,-24,-80,-8,-14
-50,-85,-34,67,-8,-59,72,11,-21,-79,-10,-19
-62,-90,-28,76,-17,-59,66,18,-15,-74,-7,-18
-62,-90,-28,76,-17,-59,59,18,-12,-76,-3,-13
-66,-90,-24,78,-20,-57,53,14,-9,-73,1,-10
-66,-90,-24,79,-21,-56,46,15,-11,-70,4,-7
-48,-90,-43,69,-3,-66,44,15,-10,-70,9,-2
-39,-88,-49,64,5,-68,57,15,-11,-74,8,0
-41,-81,-40,62,-1,-61,61,15,-32,-77,-13,-5
-39,-76,-37,57,0,-57,60,9,-42,-82,-23,-9
-42,-70,-28,56,-7,-49,57,6,-43,-85,-19,-11
-37,-65,-28,51,-4,-46,54,0,-46,-85,-19,-16
-50,-60,-10,56,-20,-35,55,-2,-53,-88,-13,-18
-53,-60,-7,57,-23,-34,49,-14,-74,-97,-18,-27
-23,-59,-35,41,6,-47,44,-40,-91,-117,-42,-44
-27,-55,-28,41,1,-41,38,-39,-96,-121,-44,-45
-36,-55,-19,45,-8,-36,33,-34,-95,-116,-36,-45
-40,-58,-18,49,-11,-37,26,-32,-95,-115,-34,-45
-49,-60,-11,55,-19,-35,28,-27,-95,-110,-28,-45
-53,-60,-7,57,-23,-33,37,-25,-95,-109,-25,-44
-61,-60,2,61,-31,-29,36,-25,-90,-106,-29,-40
-79,-60,18,69,-49,-21,33,-25,-90,-104,-34,-40
-77,-60,18,68,-47,-21,30,-25,-89,-106,-33,-40
-65,-55,10,60,-37,-22,28,-25,-85,-105,-26,-40
-62,-56,6,59,-33,-25,23,-24,-85,-106,-19,-42
-45,-46,-1,46,-22,-23,36,-28,-81,-99,-13,-32
-34,-2,32,18,-33,15,56,-30,-63,-76,-5,-15
-25,47,71,-11,-48,59,63,-36,-41,-63,-1,-7
-45,41,86,2,-66,63,55,-36,-19,-59,9,-1
-39,44,83,-3,-61,63,11,-44,-13,-52,15,10
10,83,73,-47,-32,78,-29,-44,-40,-52,38,39
18,60,41,-40,-12,50,-21,-9,-35,-56,59,46
16,14,-2,-15,9,6,-13,-21,-50,-61,51,24
16,-15,-31,0,24,-23,3,-18,-72,-68,38,6
27,-27,-54,0,40,-40,8,-22,-91,-100,0,-20
3,-71,-74,34,39,-73,21,-20,-99,-109,-23,-40
-24,-93,-69,59,22,-81,41,-17,-99,-113,-20,-47
-30,-98,-67,64,19,-82,35,-28,-114,-120,-33,-44
-30,-106,-77,68,24,-91,43,-13,-74,-108,-43,-47
-16,-75,-59,46,21,-66,18,-45,-117,-121,-41,-41
-20,-96,-76,58,28,-86,56,17,-41,-91,-43,-50
-22,-37,-15,30,-4,-26,56,-13,-67,-83,-33,-33
2,-81,-83,40,42,-82,109,152,314,200,15,101
168,289,121,-228,23,205,-150,-52,558,936,446,745
232,731,499,-482,-134,615,-611,-790,-344,1307,876,1305
46,140,94,-93,-24,117,-336,-739,-1134,253,415,436
-98,-364,-266,231,85,-315,-63,-432,-1525,-966,-157,-517
-107,-358,-252,233,73,-305,-32,-186,-1121,-779,-199,-442
-59,-252,-193,156,67,-222,110,50,-440,-381,-140,-251
-20,-120,-100,70,41,-110,125,85,-192,-232,-79,-132
-4,-105,-100,55,48,-102,126,107,-12,-128,-58,-84
-15,-81,-66,48,26,-74,116,82,-1,-120,-53,-72
5,-85,-91,40,48,-88,112,88,51,-71,-44,-43
11,-78,-89,34,50,-83,109,77,69,-73,-42,-34
-3,-73,-70,38,33,-71,102,75,81,-44,-33,-19
9,-71,-80,32,45,-75,101,86,110,-37,-32,-16
8,-63,-70,28,39,-66,93,83,131,-21,-26,-5
20,-59,-79,20,50,-69,96,87,154,-5,-22,0
17,-50,-67,17,42,-58,95,96,170,0,-16,10
4,-45,-49,21,27,-47,94,111,217,30,-4,18
24,-37,-61,7,42,-49,104,137,264,61,11,36
36,-30,-66,-3,51,-48,110,162,322,90,19,58
48,-6,-53,-21,51,-29,116,190,397,137,49,89
57,11,-47,-34,52,-18,131,231,491,198,74,115
64,33,-31,-49,47,1,130,285,601,266,86,154
78,63,-16,-70,47,23,129,335,711,345,114,205
84,97,13,-90,35,55,137,375,824,432,158,264
100,163,63,-132,18,113,136,419,919,521,203,337
103,192,89,-147,7,140,127,416,941,562,232,365
109,212,103,-161,3,157,118,380,913,559,252,392
109,228,119,-169,-5,173,109,330,803,522,253,394
94,201,107,-147,-7,153,97,243,614,421,229,342
72,146,75,-109,-2,110,86,156,408,267,174,242
21,77,56,-50,-17,66,74,93,226,127,105,136
2,26,23,-15,-11,24,70,49,108,40,59,73
18,-2,-20,-8,19,-11,68,26,37,-16,33,28
3,-31,-34,14,19,-32,64,14,-3,-64,20,4
-17,-51,-33,34,8,-42,63,8,-39,-83,5,-20
-29,-51,-21,41,-4,-36,58,3,-72,-77,-9,-27
-53,-47,5,50,-29,-21,68,-3,-77,-94,-3,-38
-41,-58,-17,50,-12,-37,78,-5,-73,-107,-2,-62
-40,-80,-40,60,0,-59,83,-9,-65,-100,-9,-60
-41,-81,-40,61,0,-61,84,-10,-59,-98,-14,-58
-21,-77,-56,49,17,-66,77,-3,-53,-93,-21,-55
-21,-75,-55,49,17,-65,97,5,-46,-90,-24,-55
-24,-74,-50,49,14,-62,100,13,-49,-90,-22,-53
-23,-72,-49,48,13,-60,87,21,-50,-90,-14,-49
-24,-69,-45,47,10,-56,82,23,-50,-90,-29,-47
-27,-71,-44,50,8,-57,69,19,-50,-90,-42,-44
-28,-68,-40,48,6,-54,67,17,-51,-90,-32,-41
-45,-79,-33,62,-6,-56,60,14,-51,-91,-30,-40
-22,-80,-58,52,18,-69,65,11,-58,-95,-25,-44
11,-62,-73,25,42,-67,76,9,-64,-95,-20,-47
-12,-79,-67,45,27,-72,74,6,-69,-95,-24,-50
-26,-91,-65,59,20,-78,75,1,-92,-99,-25,-53
-19,-81,-61,50,21,-71,75,-1,-102,-100,-25,-55
-18,-79,-60,49,21,-69,75,-6,-102,-101,-25,-55
-18,-70,-52,44,17,-60,77,-9,-106,-106,-25,-55
9,-68,-77,29,43,-72,80,-13,-110,-109,-26,-55
22,-67,-89,23,56,-78,80,-15,-109,-114,-31,-56
-3,-77,-73,40,35,-75,80,-15,-113,-115,-35,-57
-24,-95,-72,60,24,-83,80,-18,-125,-115,-40,-55
-26,-95,-69,61,22,-82,80,-21,-126,-120,-36,-55
-23,-93,-70,58,24,-81,84,-19,-123,-120,-35,-55
-21,-90,-70,56,24,-80,85,-16,-120,-119,-35,-54
-19,-90,-71,54,26,-80,85,-15,-120,-114,-30,-56
-21,-88,-67,55,23,-78,84,-15,-118,-108,-30,-53
-15,-78,-63,47,24,-70,86,-15,-113,-106,-29,-61
-16,-74,-58,45,21,-65,82,-15,-107,-99,-26,-69
-9,-65,-56,38,24,-61,78,-13,-106,-98,-22,-60
-9,-32,-23,21,7,-27,69,-9,-74,-80,-21,-52
-11,6,17,2,-14,11,70,-7,-47,-53,-15,-42
4,1,-3,-3,4,-1,84,-4,-62,-55,-17,-33
-27,-7,20,17,-23,6,47,-23,-57,-49,1,-19
-15,31,46,-8,-31,38,10,-44,-65,-49,34,-9
33,29,-4,-31,18,12,30,-37,-53,-37,32,3
36,-1,-36,-17,36,-18,39,-44,-74,-54,23,4
14,-35,-49,11,31,-42,58,-33,-106,-88,19,-33
-43,-67,-24,55,-9,-45,84,-38,-111,-102,3,-56
-34,-84,-50,60,8,-67,90,-34,-117,-104,-21,-60
-21,-103,-82,62,31,-92,99,-29,-125,-111,-26,-67
-63,-116,-53,90,-5,-85,112,-36,-141,-131,-37,-75
-47,-134,-87,91,20,-110,129,-16,-101,-120,-57,-77
-27,-111,-85,69,30,-98,113,-42,-154,-122,-55,-65
-48,-144,-96,96,25,-120,140,5,-67,-88,-46,-57
-62,-96,-34,79,-14,-64,108,-29,-104,-104,-34,-55
-30,-101,-71,65,21,-85,171,137,271,172,7,55
120,244,124,-182,-2,184,-52,-43,556,901,404,677
238,746,508,-492,-135,627,-537,-779,-344,1319,870,1291
80,183,102,-131,-11,143,-277,-746,-1091,402,496,551
-96,-420,-324,258,115,-372,-1,-424,-1523,-912,-111,-484
-100,-392,-291,246,96,-341,36,-199,-1165,-797,-180,-465
-76,-258,-182,167,53,-220,215,49,-431,-342,-127,-241
-38,-135,-97,87,30,-116,218,89,-203,-224,-89,-147
-20,-123,-103,72,42,-113,208,80,-28,-103,-59,-89
-19,-103,-84,61,33,-93,189,63,-9,-104,-61,-88
-15,-104,-89,60,37,-96,175,73,35,-66,-48,-69
-15,-99,-84,58,35,-91,196,72,68,-64,-46,-65
-15,-92,-77,53,32,-84,196,75,81,-46,-36,-48
-23,-92,-69,58,23,-80,193,77,102,-27,-32,-43
-27,-82,-55,55,14,-68,182,87,114,-15,-26,-35
-26,-80,-54,54,14,-67,179,97,148,10,-19,-25
-18,-71,-54,45,18,-62,169,101,173,26,-15,-15
-12,-69,-57,41,23,-62,175,123,210,42,-4,-6
-18,-60,-43,39,13,-51,183,136,261,67,-2,16
-9,-47,-38,28,14,-42,179,158,322,95,22,40
14,-33,-47,10,31,-40,181,192,392,137,48,62
6,-12,-18,3,12,-16,177,234,487,191,44,89
-16,17,32,-1,-24,24,196,285,599,255,68,125
17,42,25,-30,-4,34,217,331,717,337,101,171
49,73,25,-61,11,49,206,385,828,415,134,230
67,123,56,-95,5,90,201,425,917,498,182,292
80,158,77,-119,1,117,194,421,936,544,214,330
61,180,119,-121,-29,149,187,391,908,555,235,355
77,200,123,-139,-23,161,182,338,819,528,242,357
102,202,100,-153,1,151,168,250,625,429,220,319
59,152,93,-106,-17,122,160,157,421,284,178,227
-4,72,76,-34,-40,74,157,88,244,156,113,137
-40,22,62,9,-51,41,153,40,118,60,62,74
-44,-23,21,34,-32,-1,150,15,43,-21,50,23
-23,-46,-23,34,0,-34,145,8,-16,-53,19,-10
-21,-59,-37,40,8,-48,147,5,-47,-66,-8,-28
-28,-83,-55,56,14,-69,150,2,-71,-75,-17,-35
-26,-81,-55,54,14,-67,150,-3,-78,-78,-15,-43
-37,-86,-49,61,6,-67,153,-5,-77,-91,-9,-43
-42,-91,-49,67,4,-70,156,-22,-74,-90,-30,-40
-28,-70,-43,50,8,-56,154,-36,-70,-90,-35,-40
-32,-78,-45,55,7,-61,145,-21,-67,-91,-29,-40
-39,-98,-59,68,10,-78,125,-9,-62,-90,-28,-40
-38,-94,-56,66,10,-75,118,-9,-60,-88,-22,-41
-46,-95,-49,71,2,-72,127,-10,-55,-85,-20,-46
-47,-96,-48,72,1,-72,120,-11,-56,-82,-15,-43
-55,-93,-38,74,-8,-66,104,-16,-54,-79,-15,-39
-58,-105,-47,82,-5,-76,93,-15,-50,-76,-15,-36
-35,-98,-63,67,14,-80,87,-18,-49,-75,-15,-31
-12,-73,-60,43,24,-66,84,-20,-55,-81,-16,-31
-37,-83,-46,60,5,-64,79,-20,-67,-78,-12,-40
-43,-102,-58,73,8,-80,75,-20,-77,-89,-10,-49
-24,-98,-74,61,25,-86,70,-20,-88,-101,-10,-50
-42,-95,-53,69,6,-74,65,-21,-94,-100,-22,-53
-47,-92,-46,70,0,-69,61,-13,-96,-98,-38,-55
-48,-90,-42,69,-3,-66,56,-26,-106,-106,-37,-56
-52,-88,-36,70,-8,-62,53,-43,-116,-122,-35,-60
-55,-84,-30,70,-12,-57,47,-37,-115,-118,-35,-60
-55,-82,-27,69,-14,-54,42,-36,-115,-115,-31,-59
-35,-79,-44,57,5,-61,39,-33,-115,-113,-30,-60
-30,-76,-46,54,8,-61,34,-29,-115,-110,-30,-66
-31,-74,-43,53,7,-58,30,-33,-113,-108,-40,-64
-11,-72,-61,42,25,-66,25,-35,-109,-104,-47,-60
-7,-79,-72,43,33,-76,25,-35,-110,-105,-50,-58
-9,-76,-67,42,29,-71,24,-35,-110,-101,-55,-54
0,-65,-65,34,32,-65,20,-36,-110,-99,-54,-58
-2,-64,-62,33,30,-63,20,-34,-110,-100,-57,-63
10,-49,-59,20,35,-54,23,-31,-105,-95,-60,-61
-4,-62,-58,33,27,-59,38,-29,-101,-91,-61,-58
-23,-77,-54,51,15,-65,43,-29,-96,-86,-57,-54
-14,-68,-54,41,20,-61,50,-25,-91,-81,-43,-51
-16,-18,-2,17,-7,-10,58,-24,-86,-77,-32,-47
-5,46,51,-21,-29,48,36,-29,-74,-68,-23,-38
-18,31,49,-6,-34,39,36,-28,-64,-61,-12,-26
-7,61,67,-27,-37,64,0,-50,-62,-54,-3,-21
53,108,55,-81,-1,81,-34,-43,-70,-57,8,-18
57,69,12,-63,22,40,-58,-19,-64,-51,16,-15
48,26,-22,-37,35,2,-141,-41,-86,-64,15,-18
49,-12,-60,-18,55,-36,-139,-40,-100,-100,-1,-32
21,-28,-49,4,35,-39,-128,-59,-119,-109,-11,-53
-11,-66,-55,39,22,-60,-121,-47,-121,-104,-29,-74
-31,-76,-45,54,7,-60,-114,-52,-150,-132,-57,-90
-59,-105,-46,82,-6,-75,-109,-40,-142,-128,-61,-89
-72,-121,-48,97,-11,-84,-94,-37,-128,-128,-61,-85
-62,-109,-47,86,-8,-77,-95,-42,-154,-137,-63,-81
-65,-136,-71,101,3,-103,-64,-11,-88,-115,-68,-77
-34,-45,-11,40,-11,-28,-90,-38,-112,-106,-60,-59
37,-29,-66,-4,51,-47,-36,157,411,297,37,127
179,453,274,-316,-48,363,-430,-297,367,1035,529,863
275,789,514,-532,-120,651,-817,-972,-576,1246,883,1278
87,44,-43,-65,65,0,-443,-740,-1218,53,339,279
-75,-411,-336,243,130,-373,-254,-444,-1583,-1024,-177,-554
-62,-321,-259,191,99,-290,-162,-172,-978,-662,-174,-397
-56,-196,-139,126,42,-167,-17,41,-350,-319,-140,-225
-29,-108,-79,69,26,-94,-29,80,-164,-201,-101,-137
-17,-108,-91,63,37,-100,-10,93,-24,-115,-83,-106
-17,-85,-69,52,26,-77,-19,76,-36,-122,-77,-98
-3,-81,-78,42,38,-79,-19,86,33,-76,-63,-79
-12,-78,-65,45,27,-71,-31,76,41,-76,-57,-76
-23,-84,-62,54,20,-73,-34,85,73,-48,-54,-60
-11,-64,-53,38,21,-58,-26,84,99,-46,-53,-55
-12,-52,-40,33,14,-46,-25,88,106,-27,-49,-40
1,-49,-51,24,26,-50,-17,91,130,-10,-49,-29
11,-39,-50,14,31,-44,-15,95,169,6,-33,-13
0,-35,-34,18,17,-34,-9,121,214,35,-18,-1
10,-20,-30,6,20,-25,-2,135,265,54,-5,18
7,-15,-22,4,15,-19,3,165,329,84,5,34
20,4,-16,-11,18,-6,12,211,413,136,18,60
31,22,-9,-26,19,6,16,250,506,188,34,89
40,58,18,-49,11,38,27,310,623,254,57,119
52,86,35,-69,8,60,44,368,754,342,90,179
60,107,47,-84,6,77,36,410,852,414,122,225
81,164,83,-123,-1,123,26,436,937,488,165,277
70,195,125,-133,-27,160,19,431,948,540,200,325
89,225,136,-157,-24,181,6,404,906,545,213,346
96,236,141,-167,-23,188,-21,329,802,502,208,342
48,196,148,-122,-50,172,-68,225,595,398,196,296
39,149,109,-94,-35,129,-93,140,390,258,157,219
25,99,74,-62,-25,86,-110,74,216,131,104,136
3,62,59,-33,-28,60,-120,29,92,44,66,78
7,25,18,-16,-6,21,-122,7,38,-9,27,38
-15,-15,0,15,-7,-7,-135,-3,-20,-54,5,8
-27,-32,-6,30,-10,-19,-135,-12,-57,-81,0,-10
-14,-29,-15,22,1,-22,-135,-26,-72,-91,-8,-23
0,-30,-29,15,14,-29,-130,-30,-87,-106,-13,-35
9,-32,-41,12,25,-36,-131,-23,-84,-103,-26,-44
12,-19,-31,4,22,-24,-127,-19,-86,-99,-41,-45
-11,-39,-28,25,9,-33,-130,-13,-81,-101,-40,-44
-34,-55,-22,45,-6,-38,-151,-7,-80,-99,-40,-47
-18,-33,-15,26,-2,-24,-146,-7,-80,-101,-40,-49
2,-30,-32,14,17,-31,-143,-12,-75,-98,-40,-53
3,-38,-42,18,23,-40,-140,-15,-76,-104,-38,-55
-10,-41,-31,26,11,-36,-135,-15,-74,-116,-35,-59
-6,-38,-31,22,13,-34,-136,-15,-71,-115,-32,-61
-11,-34,-23,23,7,-29,-134,-15,-69,-114,-29,-56
-10,-32,-22,21,6,-27,-135,-15,-73,-110,-26,-55
-5,-29,-24,17,9,-26,-135,-15,-78,-110,-25,-54
-20,-35,-15,28,-2,-25,-135,-17,-90,-109,-36,-52
-18,-45,-27,32,5,-36,-134,-23,-98,-98,-41,-48
-16,-51,-35,34,10,-43,-130,-26,-109,-110,-39,-53
-29,-50,-21,39,-4,-35,-130,-32,-129,-126,-41,-53
-46,-50,-3,48,-22,-27,-130,-35,-130,-125,-44,-56
-19,-62,-43,41,12,-52,-129,-30,-130,-123,-45,-79
-6,-65,-59,36,27,-62,-131,-30,-128,-120,-46,-81
-20,-58,-38,40,9,-48,-127,-30,-124,-119,-51,-80
-5,-57,-52,31,24,-54,-125,-24,-121,-124,-49,-86
-7,-53,-45,30,19,-49,-125,-27,-120,-137,-53,-84
-12,-50,-38,32,13,-44,-121,-21,-114,-141,-55,-83
-39,-53,-14,46,-12,-33,-120,-19,-117,-139,-55,-78
-57,-57,0,57,-28,-28,-120,-38,-134,-140,-59,-75
-24,-54,-30,39,4,-42,-125,-37,-130,-140,-60,-72
-24,-56,-32,40,4,-43,-124,-29,-122,-140,-60,-67
-33,-56,-24,45,-4,-40,-128,-25,-116,-134,-56,-66
-8,-36,-28,22,11,-32,-131,-18,-107,-125,-52,-70
2,15,13,-9,-6,14,-126,-15,-87,-116,-49,-65
13,63,50,-39,-19,57,-123,-26,-70,-101,-46,-58
-6,38,44,-16,-25,41,-109,-33,-67,-89,-42,-54
-2,67,68,-33,-35,67,-165,-52,-61,-88,-22,-29
59,129,70,-94,-6,99,-210,-54,-59,-91,-8,-18
81,105,24,-93,28,64,-178,-13,-55,-89,-7,-30
91,71,-19,-81,55,26,-173,-19,-101,-91,1,-36
67,27,-39,-47,53,-6,-155,-34,-118,-91,-5,-48
32,17,-14,-24,23,2,-151,-45,-130,-103,-20,-59
9,-37,-46,14,28,-41,-142,-36,-146,-124,-50,-87
8,-63,-71,28,40,-67,-139,-36,-155,-148,-65,-106
5,-54,-59,25,32,-56,-135,-35,-165,-141,-66,-97
-1,-63,-62,32,31,-62,-122,-22,-127,-131,-72,-96
2,-37,-39,18,20,-37,-132,-43,-173,-142,-68,-85
-17,-77,-60,48,22,-69,-98,-9,-98,-105,-73,-85
36,15,-22,-25,29,-3,-131,-36,-109,-95,-65,-75
74,-7,-81,-33,77,-44,-62,142,315,222,-4,63
190,361,171,-276,9,266,-344,-131,473,963,442,746
283,796,513,-540,-115,654,-750,-831,-467,1277,837,1249
59,156,98,-107,-20,127,-438,-743,-1205,160,344,324
-84,-334,-250,209,83,-291,-233,-444,-1582,-1018,-210,-589
-48,-285,-237,167,95,-261,-182,-186,-1129,-761,-225,-479
-37,-198,-161,118,62,-179,-52,39,-464,-388,-172,-296
15,-72,-87,29,51,-79,-68,62,-236,-249,-130,-197
31,-48,-79,9,55,-63,-55,60,-76,-139,-103,-140
13,-42,-54,15,34,-47,-59,34,-81,-152,-95,-126
28,-26,-54,-1,41,-39,-54,59,-6,-92,-81,-106
26,-13,-38,-6,32,-25,-55,54,15,-87,-77,-105
13,-19,-33,3,23,-26,-61,55,34,-71,-68,-91
19,-9,-28,-4,24,-19,-60,57,55,-61,-63,-86
31,11,-20,-20,25,-5,-67,52,66,-48,-55,-75
36,19,-17,-27,26,1,-68,77,103,-27,-50,-68
44,33,-11,-38,27,11,-69,91,119,-9,-45,-58
56,53,-4,-54,30,24,-60,94,160,14,-40,-37
48,50,1,-49,23,25,-54,103,203,34,-36,-19
20,31,11,-26,4,21,-47,123,261,65,-32,-3
49,61,12,-55,18,37,-40,156,337,106,-23,22
79,110,31,-94,24,70,-35,207,433,171,12,52
59,119,60,-89,0,89,-29,252,547,239,37,87
83,144,62,-114,10,103,-31,293,656,313,57,133
121,213,91,-167,15,152,-28,341,772,408,116,202
123,234,111,-178,6,173,-37,361,859,484,152,262
134,263,129,-198,2,196,-53,351,866,528,176,299
166,329,163,-247,1,246,-62,333,835,524,222,319
125,316,191,-221,-33,254,-86,273,727,478,215,303
70,269,199,-170,-65,234,-104,171,523,363,162,239
77,235,158,-156,-41,197,-108,91,317,201,102,153
74,198,124,-136,-25,161,-102,35,149,78,53,64
40,138,97,-89,-29,117,-95,-5,31,-17,9,-5
40,98,58,-70,-9,78,-114,-23,-39,-76,-32,-33
28,82,54,-55,-13,68,-122,-41,-83,-112,-48,-66
-5,54,60,-25,-33,57,-116,-53,-109,-136,-61,-92
-1,51,52,-25,-26,51,-115,-59,-129,-150,-75,-98
-4,44,49,-20,-27,46,-110,-63,-132,-156,-75,-105
-1,44,44,-22,-23,44,-109,-60,-129,-154,-75,-111
-1,38,38,-18,-19,38,-106,-57,-130,-155,-75,-114
-2,35,37,-17,-20,36,-103,-55,-125,-155,-74,-109
11,40,29,-25,-9,35,-101,-51,-125,-154,-78,-110
3,37,34,-20,-15,35,-97,-50,-124,-150,-80,-110
11,74,63,-43,-26,68,-95,-54,-120,-145,-80,-110
6,66,60,-36,-28,63,-92,-56,-120,-141,-79,-110
-15,37,51,-11,-33,44,-90,-55,-120,-137,-74,-107
-5,41,47,-18,-26,44,-87,-56,-120,-131,-76,-104
18,56,38,-37,-10,47,-84,-55,-120,-132,-70,-101
39,73,34,-56,3,53,-80,-57,-125,-136,-82,-99
41,64,23,-53,8,44,-80,-60,-135,-139,-97,-93
16,63,47,-40,-16,54,-84,-60,-143,-142,-94,-101
-5,59,63,-27,-34,61,-88,-62,-150,-146,-95,-110
-3,54,58,-25,-31,56,-91,-65,-161,-149,-95,-117
-10,51,61,-20,-36,56,-88,-65,-165,-149,-95,-126
-18,41,59,-12,-39,50,-85,-62,-165,-155,-91,-125
-23,34,57,-6,-41,45,-82,-57,-169,-154,-86,-125
-27,26,54,0,-41,40,-80,-55,-170,-151,-81,-125
-35,20,56,7,-46,38,-77,-50,-166,-147,-78,-125
-19,35,55,-9,-37,45,-75,-47,-164,-147,-71,-122
6,61,55,-34,-25,58,-75,-43,-165,-140,-73,-117
-10,45,55,-18,-33,50,-72,-40,-164,-149,-89,-114
-15,32,47,-9,-32,39,-68,-39,-166,-163,-82,-111
-14,39,54,-13,-34,46,-71,-40,-162,-154,-72,-106
-7,36,43,-15,-25,40,-63,-40,-159,-138,-64,-104
10,98,87,-54,-39,92,-58,-39,-141,-101,-56,-97
33,167,134,-100,-51,150,-55,-49,-120,-93,-49,-92
36,166,130,-101,-47,147,-53,-48,-113,-89,-43,-83
13,171,158,-93,-73,165,-104,-56,-115,-76,-33,-62
50,189,139,-120,-45,164,-122,-63,-117,-71,-13,-54
84,175,91,-130,-4,133,-97,-57,-109,-69,-20,-55
49,117,68,-83,-10,92,-94,-61,-152,-107,-26,-65
2,71,69,-37,-34,70,-80,-49,-170,-124,-36,-86
-23,63,86,-20,-55,74,-82,-64,-187,-145,-63,-104
14,44,31,-29,-9,37,-66,-71,-185,-161,-73,-126
19,56,37,-38,-9,46,-68,-80,-213,-177,-86,-139
-58,15,73,22,-66,43,-55,-58,-199,-166,-99,-146
-60,31,90,14,-75,60,-53,-59,-198,-163,-92,-146
-27,59,85,-17,-56,72,-45,-53,-201,-153,-95,-143
-32,44,76,-6,-54,60,-29,-45,-137,-141,-97,-149
-32,87,119,-28,-76,103,-40,-40,-108,-104,-95,-115
29,99,70,-64,-21,84,-15,123,440,390,51,169
217,656,438,-437,-111,547,-454,-375,187,1130,580,960
224,768,544,-496,-160,656,-675,-881,-843,1045,738,1077
10,-16,-26,3,18,-21,-289,-614,-1423,-333,114,-75
-66,-272,-206,169,70,-239,-197,-357,-1576,-1093,-268,-653
-66,-194,-128,130,31,-161,-110,-94,-904,-617,-227,-428
-52,-57,-4,55,-24,-31,0,33,-397,-352,-184,-285
-7,50,57,-22,-32,53,-30,47,-200,-223,-139,-185
0,49,49,-25,-24,49,-21,53,-70,-160,-131,-164
-14,83,97,-35,-55,89,-29,28,-79,-146,-127,-145
-32,58,90,-13,-61,73,-50,41,-36,-109,-120,-133
-25,62,87,-19,-56,74,-61,31,-37,-105,-116,-128
-38,45,83,-4,-61,64,-49,38,21,-76,-109,-112
-25,51,76,-13,-51,63,-47,33,37,-76,-104,-108
41,115,75,-79,-17,95,-39,55,62,-50,-93,-91
19,114,95,-66,-39,104,-35,69,96,-33,-86,-79
-5,98,103,-46,-54,100,-36,69,117,-14,-75,-65
-10,87,97,-39,-54,92,-31,77,160,9,-62,-48
-16,82,98,-33,-57,90,-28,92,208,43,-48,-32
39,130,91,-85,-27,110,-23,127,277,84,-33,-13
41,143,102,-92,-31,122,-18,157,360,127,-12,18
64,163,99,-113,-18,131,-11,197,455,184,3,49
67,190,123,-128,-29,156,-6,246,575,255,18,88
54,225,171,-139,-59,198,1,297,695,341,56,150
120,311,191,-216,-35,251,8,339,800,424,102,211
116,337,221,-227,-52,278,14,343,858,483,137,249
101,369,268,-236,-84,319,19,334,858,513,157,284
97,413,316,-255,-109,364,-15,294,790,489,169,288
101,433,332,-267,-116,382,-52,217,633,428,159,265
107,420,313,-264,-103,366,-70,131,433,300,114,196
63,352,290,-208,-114,321,-93,41,216,128,53,83
32,311,279,-172,-124,295,-91,-25,59,11,-8,2
11,261,250,-136,-120,255,-90,-62,-37,-65,-44,-52
-4,209,213,-103,-108,211,-89,-78,-99,-109,-68,-78
3,196,193,-100,-95,194,-84,-81,-122,-132,-82,-96
-11,168,180,-79,-95,174,-86,-86,-150,-151,-87,-114
-16,156,172,-70,-94,164,-82,-90,-161,-150,-104,-119
8,174,166,-91,-79,170,-80,-90,-163,-154,-104,-120
17,174,158,-96,-71,165,-79,-90,-161,-165,-98,-121
12,163,151,-88,-70,157,-77,-90,-159,-167,-97,-126
1,145,144,-73,-72,145,-73,-90,-160,-171,-89,-124
8,143,135,-76,-64,139,-78,-88,-154,-175,-94,-130
6,137,131,-72,-63,134,-81,-81,-156,-173,-110,-138
16,135,118,-76,-51,126,-61,-76,-152,-166,-110,-131
14,153,139,-83,-62,146,-66,-71,-150,-159,-106,-126
-14,149,163,-68,-88,156,-80,-64,-147,-153,-104,-121
-2,150,152,-74,-77,151,-80,-61,-144,-146,-101,-115
0,150,150,-75,-75,150,-80,-64,-141,-140,-99,-111
5,150,145,-78,-70,147,-75,-69,-139,-151,-96,-117
6,147,140,-77,-67,143,-75,-74,-157,-161,-95,-121
4,141,136,-73,-66,138,-76,-77,-167,-160,-95,-119
3,138,134,-71,-66,136,-80,-79,-164,-160,-95,-120
-2,132,134,-65,-69,133,-80,-82,-171,-160,-95,-120
8,129,121,-69,-57,124,-82,-86,-174,-159,-97,-120
6,121,114,-64,-54,117,-86,-82,-179,-163,-100,-120
0,115,115,-58,-58,115,-84,-79,-180,-165,-100,-120
-9,106,115,-49,-62,110,-90,-80,-181,-166,-103,-120
-14,101,115,-44,-65,108,-85,-80,-186,-166,-105,-120
-26,89,115,-32,-71,102,-91,-80,-184,-163,-104,-120
-15,98,114,-42,-65,106,-106,-80,-181,-159,-100,-120
13,122,109,-68,-48,115,-101,-80,-179,-156,-100,-125
3,107,104,-55,-50,105,-98,-80,-174,-151,-99,-125
-1,98,99,-49,-50,99,-95,-80,-177,-151,-95,-125
-2,93,95,-46,-49,94,-89,-80,-181,-167,-95,-125
-5,85,90,-40,-48,87,-94,-80,-179,-171,-93,-125
1,91,90,-46,-45,90,-106,-77,-176,-166,-87,-123
0,90,91,-45,-45,90,-100,-75,-173,-165,-83,-116
2,97,96,-50,-48,97,-95,-74,-170,-160,-79,-112
-2,97,99,-47,-50,98,-92,-72,-167,-161,-74,-104
11,112,101,-62,-45,106,-85,-69,-148,-136,-70,-101
14,166,152,-90,-70,159,-83,-71,-129,-101,-64,-92
-4,182,185,-89,-94,183,-61,-76,-132,-101,-59,-86
3,188,184,-96,-91,186,-114,-85,-127,-99,-52,-73
42,233,191,-138,-74,212,-195,-95,-134,-101,-52,-46
86,243,157,-165,-36,200,-177,-82,-126,-98,-56,-38
52,191,139,-122,-44,165,-158,-86,-134,-102,-55,-51
12,135,123,-74,-56,129,-139,-87,-154,-123,-61,-71
19,125,106,-73,-44,116,-113,-90,-162,-135,-59,-88
-6,92,99,-43,-53,96,-101,-96,-187,-153,-80,-97
-21,58,79,-18,-51,68,-96,-90,-184,-165,-108,-114
-20,68,88,-24,-54,78,-124,-100,-203,-170,-103,-122
-21,36,58,-8,-40,47,-112,-77,-161,-153,-107,-128
-17,64,81,-24,-49,73,-130,-108,-203,-170,-102,-120
-12,28,40,-8,-26,34,-107,-65,-143,-142,-108,-121
-1,78,79,-39,-40,79,-120,-87,-169,-148,-102,-118
-11,82,93,-36,-53,87,-71,47,116,44,-77,-24
111,289,178,-200,-34,233,-199,-21,537,718,233,485
275,905,630,-590,-178,768,-730,-780,-248,1310,789,1234
164,511,347,-338,-91,429,-623,-886,-1066,665,595,776
-4,-210,-206,107,101,-207,-259,-535,-1555,-790,-77,-388
-51,-263,-212,158,80,-237,-195,-316,-1366,-941,-241,-558
-43,-140,-97,92,27,-118,-68,-44,-574,-432,-179,-305
-1,-6,-6,3,3,-6,-56,25,-291,-289,-142,-205
15,-4,-18,-6,16,-11,-43,41,-114,-160,-108,-149
26,44,17,-35,4,30,-32,32,-67,-146,-107,-135
28,64,37,-46,-5,50,-34,30,-43,-102,-99,-113
18,54,36,-37,-9,45,-21,32,0,-90,-95,-113
26,60,34,-43,-5,46,-25,28,7,-79,-88,-99
20,48,28,-34,-4,38,-14,39,40,-59,-84,-93
-4,54,58,-25,-31,56,-14,35,57,-57,-75,-83
-13,43,56,-15,-34,49,-9,45,87,-34,-64,-72
9,54,45,-32,-19,49,-10,42,110,-28,-55,-63
26,70,44,-48,-9,57,-21,51,151,6,-45,-47
53,83,30,-68,12,56,-26,65,192,29,-37,-34
43,82,39,-63,1,60,-14,83,244,47,-29,-10
28,101,73,-65,-23,87,3,124,327,97,-21,17
54,119,64,-87,-5,91,21,158,418,144,-13,41
72,139,67,-106,3,103,35,215,528,215,9,81
70,176,106,-123,-18,141,35,267,651,290,37,122
66,192,126,-129,-31,159,31,311,758,362,62,164
111,255,144,-183,-17,199,28,355,863,451,110,228
124,299,175,-212,-26,237,23,359,900,502,147,280
115,312,197,-214,-41,254,21,339,885,518,166,306
126,342,216,-234,-45,279,6,284,805,507,189,304
128,349,220,-239,-46,284,-34,199,624,433,180,275
91,302,211,-197,-60,256,-76,100,408,290,126,205
71,253,182,-162,-56,217,-80,27,223,151,62,115
70,211,141,-141,-36,175,-81,-15,85,59,25,39
30,144,114,-87,-43,129,-107,-53,-9,-18,-14,-11
29,111,83,-70,-27,97,-111,-75,-58,-75,-49,-40
22,99,78,-61,-28,88,-109,-74,-95,-94,-49,-57
27,93,66,-60,-20,80,-111,-80,-117,-108,-51,-64
32,88,56,-60,-13,72,-107,-91,-118,-110,-49,-59
0,82,82,-42,-41,82,-88,-88,-127,-112,-53,-65
-1,78,78,-38,-40,78,-70,-85,-141,-129,-77,-93
5,72,68,-39,-32,70,-70,-83,-139,-127,-81,-96
2,68,66,-35,-32,66,-69,-80,-128,-121,-79,-89
3,63,59,-33,-28,61,-66,-78,-122,-118,-81,-90
2,61,59,-32,-29,60,-65,-74,-114,-111,-80,-84
-1,51,52,-25,-27,51,-66,-72,-110,-111,-79,-86
18,69,51,-44,-17,60,-70,-69,-111,-115,-74,-85
5,50,45,-28,-20,48,-70,-66,-107,-115,-75,-85
4,45,41,-25,-19,43,-70,-65,-105,-115,-75,-97
20,86,66,-53,-24,76,-70,-72,-105,-115,-75,-101
-2,75,77,-37,-40,76,-69,-79,-105,-115,-75,-99
-5,68,74,-32,-39,71,-78,-73,-122,-118,-71,-100
-14,62,76,-24,-45,69,-82,-72,-132,-121,-70,-100
-21,53,74,-16,-48,63,-79,-66,-129,-120,-70,-100
-23,52,75,-15,-50,63,-76,-66,-129,-119,-70,-100
-8,60,68,-26,-38,64,-73,-94,-150,-130,-69,-100
-9,48,57,-20,-33,52,-70,-102,-163,-137,-72,-100
0,48,48,-24,-24,48,-70,-95,-159,-134,-76,-100
33,70,37,-52,-2,53,-82,-95,-164,-136,-75,-100
11,46,35,-29,-12,40,-84,-90,-165,-134,-75,-98
22,57,35,-40,-7,45,-77,-91,-164,-136,-75,-94
6,38,32,-23,-13,35,-74,-94,-161,-139,-74,-95
0,29,29,-15,-14,29,-68,-95,-160,-140,-78,-95
39,71,32,-55,3,52,-65,-95,-160,-140,-80,-95
0,49,49,-24,-25,49,-75,-95,-160,-140,-80,-94
-15,35,50,-10,-33,42,-92,-95,-160,-140,-80,-91
-17,33,50,-8,-34,41,-89,-95,-158,-137,-80,-86
-27,22,49,2,-38,35,-84,-95,-154,-134,-79,-83
-15,19,34,-2,-25,26,-79,-95,-152,-135,-76,-80
-8,11,18,-2,-13,14,-73,-95,-149,-131,-71,-74
-1,3,3,-1,-2,3,-67,-94,-146,-130,-69,-84
-16,-14,2,15,-9,-6,-62,-95,-145,-131,-64,-89
-15,-28,-13,23,-1,-20,-60,-99,-133,-123,-61,-81
25,31,6,-28,10,18,-54,-101,-115,-111,-57,-74
26,92,66,-59,-20,78,-55,-105,-104,-99,-48,-61
3,81,78,-43,-38,80,-44,-107,-94,-88,-37,-49
39,110,71,-75,-16,91,-84,-110,-92,-88,-28,-25
72,153,81,-113,-4,116,-131,-108,-99,-94,-24,-13
90,137,47,-114,22,92,-100,-99,-89,-94,-25,-26
108,93,-15,-100,61,38,-89,-99,-107,-101,-25,-31
75,48,-27,-62,51,10,-74,-88,-131,-100,-23,-42
28,27,-1,-27,14,13,-67,-88,-156,-113,-47,-64
-3,-12,-9,8,3,-10,-56,-78,-151,-127,-71,-80
1,-24,-25,12,13,-24,-50,-97,-162,-145,-70,-95
7,-28,-35,11,21,-31,-42,-94,-174,-143,-88,-91
-5,-39,-33,22,14,-36,-32,-85,-142,-132,-90,-87
30,-13,-43,-9,37,-28,-48,-98,-183,-143,-85,-82
44,-40,-84,-2,64,-62,-23,-63,-104,-110,-84,-77
14,6,-8,-9,11,-1,-42,-83,-123,-104,-79,-74
37,-22,-59,-7,48,-41,41,116,336,234,-21,81
204,410,206,-307,-1,307,-276,-206,453,993,443,776
293,833,540,-564,-123,686,-723,-914,-500,1335,846,1297
105,166,61,-135,22,114,-421,-801,-1202,242,385,408
-19,-335,-316,177,149,-326,-172,-482,-1576,-971,-176,-532
-30,-309,-280,169,125,-294,-106,-227,-1100,-736,-223,-437
-8,-183,-175,96,84,-179,18,-6,-434,-355,-170,-251
40,-74,-114,17,77,-94,37,47,-208,-225,-124,-154
25,-86,-111,30,69,-99,57,54,-45,-120,-94,-103
27,-50,-77,12,52,-63,46,40,-47,-119,-93,-99
26,-54,-80,14,53,-67,51,46,19,-77,-82,-75
37,-30,-67,-3,52,-48,51,39,40,-74,-79,-74
29,-35,-63,3,46,-49,46,38,55,-39,-71,-62
-7,-63,-56,35,25,-59,69,51,81,-29,-66,-59
3,-47,-50,22,26,-48,86,60,90,-20,-60,-50
14,-36,-50,11,33,-43,86,61,126,7,-54,-39
31,-19,-50,-6,41,-34,84,78,160,23,-49,-25
39,-8,-48,-15,44,-28,86,95,196,42,-35,-5
58,16,-42,-36,49,-13,84,110,251,81,-26,12
79,43,-35,-61,57,4,89,136,309,105,-11,28
68,37,-30,-52,49,3,104,174,390,147,1,56
71,46,-25,-59,48,10,110,214,487,207,23,86
89,73,-16,-80,52,28,115,267,598,269,59,122
93,95,3,-94,45,49,123,316,719,346,69,159
83,139,56,-111,13,97,117,358,833,434,110,226
94,166,72,-131,11,119,116,397,922,520,155,293
116,207,91,-162,12,149,115,397,946,555,185,324
118,245,127,-182,-5,186,87,365,921,571,206,348
104,237,133,-171,-15,185,47,299,804,545,197,351
86,235,149,-161,-32,192,31,211,609,434,186,307
78,196,118,-137,-21,157,20,129,392,287,131,212
68,142,73,-105,-3,107,-33,68,204,145,73,120
15,64,49,-40,-17,57,-78,28,81,48,30,61
3,20,17,-11,-7,18,-103,9,4,-1,-4,21
27,38,10,-33,8,24,-118,-7,-43,-46,-12,-24
-6,3,9,2,-8,6,-113,-27,-74,-78,-29,-51
-17,-18,-1,18,-8,-9,-120,-37,-81,-92,-46,-53
-20,-23,-3,21,-8,-13,-120,-34,-96,-94,-49,-57
-11,-37,-25,24,7,-31,-121,-37,-107,-100,-55,-67
-14,-36,-23,25,5,-29,-126,-48,-99,-118,-72,-80
-16,-32,-16,24,0,-24,-119,-43,-97,-117,-73,-82
3,-30,-33,14,18,-31,-113,-34,-93,-108,-63,-85
9,-29,-37,10,23,-33,-106,-26,-90,-103,-58,-88
-12,-38,-26,25,7,-31,-100,-21,-86,-95,-50,-90
-36,-55,-19,46,-8,-37,-100,-26,-85,-91,-44,-88
15,-30,-45,7,30,-37,-100,-25,-85,-90,-55,-81
24,-15,-39,-4,32,-27,-100,-25,-85,-90,-62,-74
37,-10,-47,-13,42,-28,-116,-25,-85,-90,-59,-68
42,-18,-61,-12,51,-39,-121,-25,-86,-91,-61,-61
2,-41,-44,20,23,-42,-113,-29,-99,-90,-60,-55
10,-33,-43,12,27,-38,-113,-30,-111,-93,-60,-62
7,-24,-32,9,20,-28,-106,-30,-120,-96,-65,-65
10,-16,-26,4,18,-21,-107,-30,-126,-95,-65,-65
-22,-42,-20,33,-1,-31,-118,-31,-128,-106,-66,-65
-40,-58,-18,49,-11,-38,-112,-35,-130,-111,-70,-66
2,-46,-48,22,25,-47,-104,-35,-151,-109,-70,-84
15,-45,-60,16,38,-53,-106,-35,-163,-111,-72,-92
14,-37,-51,11,33,-43,-104,-38,-158,-109,-75,-89
17,-33,-50,8,33,-41,-105,-41,-161,-111,-75,-91
14,-29,-43,8,28,-35,-105,-44,-159,-107,-78,-89
11,-30,-41,9,27,-35,-105,-47,-160,-105,-81,-91
-21,-47,-26,34,3,-36,-117,-50,-156,-101,-79,-94
-27,-53,-26,40,-1,-39,-119,-49,-149,-101,-76,-97
13,-46,-59,17,36,-52,-112,-44,-168,-116,-73,-100
2,-61,-63,29,33,-62,-108,-41,-174,-114,-71,-102
-7,-60,-53,34,23,-56,-104,-38,-165,-111,-67,-106
14,-34,-48,10,31,-41,-99,-33,-160,-108,-65,-102
28,-14,-43,-7,36,-28,-105,-30,-155,-106,-63,-87
35,-7,-42,-14,39,-24,-105,-33,-143,-103,-55,-73
27,28,1,-27,13,15,-102,-36,-122,-70,-50,-64
51,97,45,-75,3,71,-122,-40,-112,-55,-39,-62
61,99,37,-80,12,68,-130,-44,-103,-49,-25,-54
35,107,72,-72,-18,89,-174,-44,-103,-31,-13,-25
30,98,68,-64,-19,82,-204,-39,-113,-26,-2,-20
40,59,19,-50,10,39,-183,-32,-108,-44,7,-34
69,63,-6,-66,38,28,-170,-33,-128,-64,19,-41
75,28,-47,-51,61,-9,-140,-21,-130,-76,-4,-55
14,-12,-26,-1,20,-19,-127,-25,-159,-105,-40,-71
-5,-53,-48,29,22,-51,-112,-22,-161,-107,-61,-90
15,-44,-59,15,37,-51,-111,-37,-182,-123,-70,-100
-23,-84,-62,53,20,-73,-97,-24,-166,-124,-70,-105
-25,-85,-60,55,18,-72,-94,-28,-157,-125,-67,-106
-21,-76,-55,49,17,-66,-85,-29,-176,-112,-63,-102
-17,-89,-73,53,28,-81,-71,2,-108,-101,-72,-110
-4,-27,-23,16,10,-25,-55,15,-82,-56,-74,-70
33,-48,-80,8,57,-64,-25,162,455,421,66,190
207,527,320,-367,-57,423,-456,-288,263,1166,587,967
223,703,480,-463,-128,591,-679,-807,-795,1140,772,1147
10,-83,-93,37,52,-88,-294,-575,-1399,-239,155,2
-102,-379,-277,241,87,-328,-162,-300,-1546,-1048,-229,-623
-86,-322,-237,205,76,-279,-94,-50,-914,-597,-191,-401
-46,-195,-149,121,52,-172,31,102,-388,-319,-150,-250
-28,-111,-82,70,27,-96,19,107,-176,-164,-95,-146
-19,-105,-86,62,34,-95,-15,79,-45,-102,-81,-122
-8,-63,-55,36,23,-59,-21,69,-23,-90,-78,-103
-10,-69,-59,40,25,-64,-23,82,28,-57,-74,-92
-8,-54,-45,31,19,-49,-36,68,11,-57,-72,-91
-1,-54,-53,27,26,-53,-11,88,63,-9,-65,-78
2,-47,-49,23,26,-48,-9,100,74,1,-54,-71
7,-38,-45,16,26,-41,-16,101,99,25,-41,-54
0,-43,-43,22,22,-43,-22,97,119,28,-34,-50
-22,-60,-38,41,9,-49,-27,114,151,53,-21,-32
-18,-55,-37,37,9,-46,-22,141,203,81,-15,-13
-4,-36,-32,20,14,-34,-19,151,244,100,-7,13
-11,-37,-26,24,8,-31,-17,173,309,136,-2,31
2,-12,-14,6,8,-13,-14,205,387,177,19,45
13,22,8,-18,3,15,-12,244,498,248,53,87
14,56,42,-36,-14,49,-4,296,617,330,79,134
40,90,50,-66,-5,70,14,342,744,425,121,199
50,112,62,-81,-7,87,8,377,849,507,160,252
92,189,98,-141,-4,143,21,402,923,581,202,307
108,224,115,-166,-4,169,7,396,927,620,236,352
73,214,141,-144,-34,177,-35,358,874,611,231,357
89,229,139,-159,-25,184,-51,295,742,549,220,343
68,201,133,-135,-33,167,-61,211,520,401,189,261
41,160,119,-100,-39,139,-61,137,318,244,124,159
14,91,76,-53,-31,83,-58,89,160,120,72,74
-51,22,72,14,-62,47,-59,54,61,46,30,13
-55,-4,52,29,-53,24,-74,32,-9,-4,6,-21
-61,-36,26,48,-43,-5,-73,25,-68,-62,2,-52
-75,-61,14,68,-45,-23,-67,19,-84,-81,-6,-46
-60,-60,0,60,-30,-30,-66,16,-90,-81,-14,-54
-39,-59,-20,49,-9,-39,-60,11,-104,-85,-21,-72
-19,-61,-43,40,12,-52,-58,7,-100,-87,-26,-71
-19,-58,-38,39,9,-48,-53,1,-92,-95,-24,-80
-23,-65,-42,44,10,-53,-50,-11,-86,-99,-28,-84
-25,-80,-55,53,15,-67,-47,-10,-79,-96,-44,-81
-21,-75,-55,49,18,-65,-42,-3,-74,-93,-42,-80
-14,-70,-55,43,20,-62,-40,1,-70,-91,-36,-80
-12,-67,-55,40,21,-61,-48,7,-68,-87,-33,-80
-5,-60,-55,33,25,-58,-56,13,-65,-85,-27,-80
-6,-60,-54,34,24,-57,-55,13,-63,-83,-24,-78
-23,-72,-49,47,13,-60,-55,9,-58,-80,-20,-75
-28,-75,-47,52,9,-60,-55,10,-78,-81,-21,-75
-24,-66,-41,45,9,-53,-54,6,-94,-80,-17,-72
-25,-66,-40,45,8,-53,-56,4,-90,-81,-15,-69
-25,-57,-31,42,3,-44,-52,6,-96,-79,-14,-71
-16,-58,-43,37,14,-50,-63,11,-113,-82,-27,-74
-8,-78,-70,44,31,-74,-86,10,-136,-95,-37,-75
-17,-81,-64,49,23,-72,-85,6,-141,-95,-34,-75
-22,-79,-57,51,18,-68,-85,4,-139,-95,-36,-75
-28,-81,-53,55,12,-67,-85,1,-140,-95,-35,-75
-49,-97,-48,73,0,-72,-84,-1,-140,-95,-35,-73
-56,-101,-45,79,-5,-73,-88,-4,-139,-94,-34,-69
-54,-96,-42,75,-6,-68,-90,-6,-135,-90,-30,-70
-58,-95,-37,76,-10,-66,-90,-4,-133,-88,-25,-70
-55,-90,-35,73,-10,-62,-90,-6,-129,-84,-23,-70
-41,-91,-51,66,5,-71,-90,-4,-128,-82,-18,-70
-34,-78,-44,56,5,-61,-89,-7,-121,-80,-16,-65
-52,-79,-27,66,-12,-53,-86,-14,-129,-77,-25,-58
-38,-42,-4,40,-17,-23,-82,-18,-113,-73,-16,-54
-34,19,53,7,-44,36,-83,-24,-72,-60,-1,-47
-55,24,78,15,-67,51,-71,-30,-79,-47,7,-43
-36,42,78,-3,-58,60,-126,-34,-76,-34,17,-33
-21,66,87,-22,-55,76,-178,-26,-80,-36,31,-1
17,67,50,-43,-17,58,-149,-15,-66,-28,34,12
32,42,10,-37,11,26,-144,-23,-83,-34,23,3
9,-12,-21,2,15,-16,-134,-17,-119,-63,16,-30
15,-27,-43,6,30,-35,-130,-29,-135,-82,6,-65
-22,-65,-43,44,11,-54,-123,-26,-154,-97,-5,-75
-24,-78,-54,52,16,-66,-114,-22,-154,-108,-17,-81
-42,-100,-59,71,9,-79,-119,-32,-174,-110,-27,-79
-89,-153,-64,121,-12,-108,-102,-13,-137,-91,-27,-81
-82,-117,-35,99,-23,-75,-118,-43,-192,-112,-23,-80
-113,-168,-55,140,-29,-111,-88,6,-119,-64,-27,-80
-34,-58,-24,47,-5,-41,-120,-27,-134,-71,-24,-66
38,-40,-79,1,59,-59,-64,121,233,165,1,48
92,212,120,-152,-14,166,-258,-32,516,867,361,622
240,775,536,-508,-148,655,-747,-754,-403,1316,851,1289
116,241,125,-178,-5,183,-524,-741,-1152,491,542,634
-79,-415,-336,248,128,-375,-206,-406,-1566,-868,-72,-462
-82,-378,-295,230,107,-336,-169,-188,-1233,-828,-179,-490
-75,-252,-178,164,52,-215,-21,61,-472,-336,-117,-251
-56,-137,-81,97,13,-109,-11,91,-228,-219,-71,-159
-45,-136,-91,91,23,-113,-40,65,-60,-107,-45,-103
-53,-122,-69,88,8,-95,-44,50,-43,-100,-40,-95
-42,-105,-63,74,10,-84,-36,62,1,-47,-29,-67
-12,-68,-56,40,22,-62,-27,62,38,-36,-26,-62
-5,-57,-52,32,23,-54,-24,69,56,-13,-16,-43
-13,-65,-52,39,20,-59,-14,72,76,-1,-12,-36
-12,-57,-45,35,17,-51,-13,77,89,5,-5,-27
-17,-63,-46,41,15,-54,-8,87,128,23,3,-17
-2,-43,-41,23,20,-42,-7,97,153,43,11,-11
-28,-56,-28,42,0,-42,-3,114,194,72,20,-3
-27,-42,-14,35,-7,-28,0,121,241,87,25,11
20,-12,-32,-4,27,-22,1,144,300,120,31,29
16,-12,-28,-2,22,-20,7,166,367,157,35,51
8,12,4,-10,2,8,15,210,471,217,58,87
16,31,16,-24,0,23,21,261,584,282,82,120
18,38,20,-28,-1,28,28,301,703,355,100,165
19,64,45,-42,-13,55,34,353,817,442,141,225
22,105,82,-64,-30,93,31,371,904,519,174,277
32,137,105,-85,-37,121,21,364,940,567,205,321
35,176,141,-106,-53,158,13,357,917,595,234,348
42,198,156,-121,-57,177,3,301,810,564,243,342
39,167,128,-103,-45,147,-22,206,608,455,223,302
-2,107,109,-53,-56,107,-46,125,389,309,175,228
-4,62,67,-29,-36,64,-55,63,206,169,123,148
-6,27,33,-11,-20,29,-61,27,81,72,72,78
-49,-22,27,35,-37,2,-60,-3,-6,2,38,18
-44,-54,-10,49,-16,-32,-60,-29,-59,-44,22,-16
-13,-59,-46,36,17,-52,-60,-40,-80,-61,18,-31
-31,-71,-40,51,5,-55,-60,-44,-89,-65,16,-39
-73,-90,-17,82,-28,-54,-57,-40,-95,-66,11,-40
-54,-88,-34,71,-9,-61,-51,-40,-104,-74,9,-41
-41,-84,-43,62,1,-63,-48,-39,-106,-80,5,-49
-46,-81,-35,64,-5,-58,-42,-35,-104,-80,0,-50
-22,-76,-53,49,16,-64,-39,-36,-101,-80,-2,-50
-34,-75,-42,55,5,-58,-30,-32,-100,-80,-7,-50
-29,-74,-45,52,8,-60,-20,-30,-99,-80,-10,-50
-31,-76,-45,54,7,-60,-11,-27,-94,-80,-7,-49
-35,-73,-39,54,2,-56,-10,-24,-96,-76,-5,-45
-30,-84,-53,57,12,-68,-10,-21,-92,-72,-4,-43
-40,-88,-48,64,4,-68,-5,-20,-90,-69,-8,-40
-7,-77,-70,43,31,-73,-6,-25,-90,-65,13,-37
0,-75,-75,38,38,-75,-3,-25,-93,-60,23,-35
4,-62,-66,29,35,-64,-11,-29,-98,-62,9,-31
-3,-70,-68,37,33,-68,-26,-30,-99,-68,4,-30
-36,-88,-52,63,8,-70,-21,-32,-117,-71,-8,-30
-38,-97,-59,68,11,-78,-19,-36,-127,-75,-10,-30
-19,-90,-71,54,27,-80,-14,-34,-123,-80,-10,-30
-6,-68,-62,37,28,-65,-11,-36,-126,-84,-10,-31
-16,-76,-60,47,22,-68,-7,-34,-129,-89,-11,-38
-36,-92,-55,64,10,-73,-5,-46,-133,-88,-18,-37
-49,-98,-49,73,0,-73,-4,-61,-142,-84,-15,-35
-11,-82,-71,47,30,-77,1,-59,-145,-82,-15,-35
10,-76,-85,33,48,-80,0,-62,-145,-79,-13,-31
-1,-72,-71,36,36,-71,7,-65,-145,-75,-10,-29
6,-64,-69,29,38,-66,15,-65,-145,-76,-10,-33
-28,-95,-67,62,20,-80,23,-63,-146,-81,-7,-42
-5,-83,-78,44,37,-80,31,-57,-141,-75,-4,-37
12,-65,-77,27,45,-71,37,-56,-133,-69,-2,-32
-17,-46,-29,31,6,-37,41,-50,-100,-63,2,-29
-3,3,6,0,-4,4,38,-50,-67,-52,4,-20
-14,27,42,-7,-28,34,43,-41,-72,-38,7,-10
30,74,44,-52,-7,59,-6,-49,-68,-22,19,6
55,92,37,-74,9,64,-51,-69,-79,-13,35,27
66,76,10,-71,27,43,-27,-38,-64,-7,51,41
75,39,-37,-57,56,1,-15,-44,-72,-23,47,29
32,-27,-59,-2,46,-43,8,-48,-113,-45,31,-1
23,-47,-71,12,47,-59,18,-52,-130,-67,19,-26
-10,-77,-68,43,29,-72,30,-70,-138,-84,-6,-35
-7,-101,-94,54,44,-97,51,-71,-136,-93,-32,-44
-19,-104,-85,62,34,-94,46,-72,-168,-104,-35,-48
-32,-127,-95,79,32,-111,64,-48,-127,-81,-36,-51
-25,-87,-62,57,19,-75,48,-70,-173,-100,-34,-49
-45,-135,-91,90,23,-113,87,-22,-98,-62,-36,-49
-20,-72,-52,46,16,-61,81,-70,-126,-75,-34,-51
-5,-47,-42,26,19,-44,147,81,183,120,-10,46
103,177,75,-140,14,126,-17,-25,552,795,311,560
247,759,512,-503,-133,635,-570,-817,-287,1358,857,1295
152,343,191,-247,-20,267,-423,-885,-1069,704,657,825
-35,-382,-347,209,157,-365,-77,-523,-1552,-751,-23,-343
-89,-420,-331,255,122,-376,-25,-295,-1315,-868,-197,-485
-68,-259,-191,164,62,-225,168,-7,-490,-333,-116,-232
-16,-130,-114,73,49,-121,197,66,-212,-200,-77,-150
-35,-143,-108,89,37,-125,154,45,-67,-91,-58,-88
-54,-131,-77,93,11,-104,166,29,-36,-83,-53,-78
-21,-122,-101,72,40,-112,169,47,10,-41,-41,-53
-27,-120,-93,73,34,-106,172,56,43,-36,-40,-53
-14,-99,-85,57,35,-92,168,54,64,-27,-34,-40
-20,-104,-85,62,33,-94,172,56,97,-12,-30,-28
-27,-100,-73,64,23,-86,169,54,97,-1,-26,-19
-20,-94,-74,57,27,-84,166,55,133,26,-20,-13
-16,-78,-62,48,23,-70,162,61,160,37,-11,-8
-10,-72,-62,41,26,-66,158,78,201,52,-2,-3
-41,-91,-50,67,5,-70,155,91,247,79,5,7
-22,-79,-57,51,18,-68,149,113,308,116,15,32
30,-40,-70,5,50,-55,154,152,387,145,25,60
35,-33,-68,-1,52,-50,178,197,484,199,36,85
38,-19,-57,-9,48,-38,198,248,597,258,58,114
38,16,-22,-27,30,-3,208,302,719,337,88,160
17,39,22,-28,-3,30,215,351,831,419,121,210
44,95,51,-70,-4,73,223,387,932,501,160,276
75,146,71,-111,2,108,213,397,973,564,203,332
48,151,103,-100,-28,127,193,371,949,572,229,356
64,176,112,-120,-24,143,172,306,862,547,235,354
71,182,111,-126,-20,146,134,211,666,462,227,327
40,140,101,-90,-30,120,110,115,450,330,183,256
6,61,55,-33,-25,57,108,42,255,187,124,162
-12,8,20,1,-16,14,104,1,119,86,75,96
-22,-34,-12,28,-4,-23,101,-36,43,30,36,48
-50,-91,-42,71,-4,-66,96,-62,-12,-19,17,19
-42,-101,-59,72,9,-80,95,-68,-40,-47,10,5
-39,-99,-60,69,10,-79,95,-68,-61,-51,3,-4
-39,-95,-56,68,9,-76,95,-64,-71,-62,-8,-11
-43,-95,-52,69,5,-74,95,-65,-85,-80,-3,-18
-42,-93,-52,67,5,-72,95,-65,-85,-80,7,-26
-58,-104,-47,81,-5,-75,95,-65,-79,-80,1,-33
-73,-122,-49,98,-12,-85,92,-65,-79,-80,-1,-32
-26,-110,-84,68,29,-97,89,-60,-74,-80,-5,-30
-31,-116,-86,74,28,-101,89,-57,-73,-78,-10,-30
-56,-126,-71,91,8,-98,82,-54,-70,-75,-10,-30
-48,-124,-77,86,15,-100,91,-50,-67,-76,-10,-30
-45,-126,-81,85,18,-103,110,-46,-65,-71,-10,-31
-49,-125,-76,87,14,-100,110,-45,-61,-70,-10,-35
-40,-125,-85,83,23,-105,110,-45,-60,-70,-10,-35
-29,-125,-96,77,34,-110,110,-45,-61,-70,-10,-38
-39,-125,-85,82,23,-105,110,-45,-58,-70,-4,-41
-40,-125,-85,83,23,-105,108,-52,-70,-71,-10,-40
-47,-124,-77,86,15,-100,102,-62,-81,-69,-18,-44
-49,-127,-78,89,15,-102,98,-62,-90,-74,-15,-45
-32,-131,-99,82,33,-115,94,-54,-102,-85,-15,-45
-29,-130,-101,79,36,-115,88,-64,-103,-85,-15,-45
-31,-130,-99,81,34,-115,85,-76,-109,-85,-15,-45
-28,-129,-100,78,36,-114,85,-74,-110,-85,-16,-45
-25,-125,-100,75,38,-112,85,-75,-110,-85,-19,-45
-26,-125,-99,76,37,-111,85,-75,-109,-83,-22,-45
-30,-125,-95,78,33,-110,85,-71,-105,-79,-25,-45
-30,-125,-95,78,33,-110,85,-70,-105,-81,-23,-45
-30,-125,-96,78,33,-111,82,-70,-102,-76,-19,-45
-33,-127,-94,81,30,-110,79,-70,-100,-75,-18,-41
-38,-134,-96,86,29,-115,74,-71,-99,-74,-13,-34
-36,-133,-97,85,31,-115,73,-68,-108,-71,-12,-28
-19,-127,-108,73,45,-117,65,-65,-96,-69,-8,-22
-18,-123,-105,71,44,-114,68,-63,-72,-65,-8,-14
-46,-93,-47,70,1,-70,82,-59,-60,-62,2,-8
-42,-49,-7,46,-17,-28,87,-58,-53,-52,22,2
-45,-45,0,45,-22,-22,97,-51,-49,-43,21,15
-39,-29,10,34,-25,-9,45,-72,-45,-29,45,24
24,20,-4,-22,14,8,4,-94,-42,-19,66,44
68,15,-53,-41,60,-19,31,-79,-27,-12,56,37
41,-44,-85,2,64,-65,30,-84,-68,-37,49,8
18,-98,-116,41,67,-107,56,-70,-88,-59,35,-3
1,-111,-112,56,57,-112,78,-75,-101,-76,21,-12
-34,-151,-117,93,41,-134,88,-78,-98,-87,3,-35
-21,-161,-140,91,60,-150,96,-85,-106,-97,-11,-58
-17,-152,-136,85,60,-143,93,-77,-111,-91,-26,-51
-8,-143,-135,75,64,-138,99,-63,-76,-80,-33,-46
-43,-145,-103,94,30,-124,106,-80,-116,-89,-29,-40
-55,-191,-136,123,40,-163,142,-16,-32,-55,-27,-33
-41,-118,-77,79,18,-97,110,-43,-78,-69,-26,-30
-34,-128,-94,81,30,-111,175,137,367,256,40,125
123,274,151,-198,-15,212,-143,-205,472,994,494,794
221,689,469,-455,-124,579,-591,-946,-459,1349,916,1326
84,59,-26,-71,55,16,-271,-794,-1130,291,460,463
-110,-487,-377,299,134,-432,-39,-489,-1550,-943,-125,-500
-97,-420,-323,259,114,-371,28,-229,-1054,-691,-173,-397
-64,-285,-221,175,79,-253,198,20,-357,-290,-113,-208
-77,-218,-141,148,33,-179,199,62,-164,-178,-59,-128
-35,-209,-173,122,69,-191,205,74,-7,-82,-40,-67
-45,-184,-139,115,47,-161,195,53,4,-75,-40,-53
-32,-178,-146,106,57,-162,194,62,75,-24,-24,-33
-25,-174,-149,100,62,-161,190,47,84,-36,-25,-39
-50,-170,-121,110,36,-145,198,61,102,-10,-27,-24
-60,-161,-102,111,21,-132,225,80,128,7,-22,-23
-35,-152,-116,93,41,-134,218,77,146,21,-9,-13
-28,-145,-117,86,45,-131,225,88,174,28,-1,-9
-31,-138,-107,85,38,-123,242,95,205,54,10,7
-25,-137,-112,81,44,-124,252,118,261,85,21,38
-22,-128,-107,75,43,-117,256,139,305,103,28,49
-19,-117,-98,68,40,-107,258,166,366,140,35,59
-17,-104,-87,60,35,-95,271,209,444,183,51,80
8,-71,-79,32,44,-75,285,247,540,236,72,112
11,-37,-48,14,30,-42,304,301,652,299,92,153
14,-16,-31,1,23,-23,314,361,781,392,130,207
28,25,-3,-27,16,11,303,419,895,476,169,266
53,75,22,-65,16,48,295,431,975,550,205,319
80,121,40,-101,20,80,286,411,994,598,244,365
73,150,77,-112,-3,113,273,399,965,604,251,372
65,140,75,-103,-5,107,241,330,857,576,251,365
58,122,65,-90,-4,93,222,233,641,453,232,328
37,85,48,-61,-5,66,220,152,439,304,178,240
2,14,12,-8,-5,13,213,77,269,183,127,155
-5,-26,-21,15,8,-23,208,35,138,88,84,93
-9,-58,-49,34,21,-53,202,13,66,31,57,51
-38,-106,-69,72,16,-88,202,-8,15,-13,40,19
-56,-121,-66,89,5,-93,210,-18,-12,-37,33,4
-68,-128,-61,98,-3,-95,214,-24,-25,-48,29,-4
-48,-137,-89,93,22,-113,210,-31,-37,-55,24,-16
-36,-134,-98,86,31,-116,210,-38,-47,-58,20,-17
-48,-141,-93,95,22,-116,209,-36,-46,-55,15,-13
-53,-150,-97,102,22,-123,204,-25,-41,-55,12,-10
-57,-150,-93,104,18,-121,205,-15,-39,-55,7,-6
-50,-150,-100,101,25,-125,205,-9,-34,-55,4,-5
-35,-146,-111,91,38,-128,205,-6,-31,-55,1,-23
-38,-145,-106,92,35,-125,205,-3,-28,-52,-4,-27
-42,-145,-103,94,31,-124,195,2,-25,-50,-5,-24
-37,-138,-100,88,32,-119,183,5,-26,-51,-5,-25
-62,-156,-94,110,16,-125,178,2,-25,-50,-5,-20
-44,-150,-106,97,31,-128,175,-3,-26,-51,-5,-20
-24,-140,-116,82,47,-128,171,-6,-24,-50,-5,-21
-58,-168,-110,113,26,-139,167,-10,-27,-52,-5,-30
-58,-166,-108,112,25,-137,164,-13,-47,-66,-5,-36
-55,-159,-104,107,25,-131,161,-17,-57,-71,-5,-35
-57,-155,-98,106,21,-126,160,-20,-60,-69,-4,-35
-42,-147,-106,94,32,-126,160,-20,-60,-70,-6,-35
-31,-146,-115,89,43,-131,160,-20,-59,-70,-4,-35
-31,-143,-112,87,41,-127,160,-24,-65,-70,-9,-34
-48,-155,-107,102,30,-131,162,-25,-66,-73,-21,-29
-55,-160,-106,108,25,-132,166,-25,-64,-75,-20,-27
-64,-164,-99,114,18,-131,164,-25,-61,-75,-20,-23
-80,-180,-100,130,10,-140,165,-25,-59,-75,-20,-20
-59,-179,-120,120,31,-150,165,-23,-67,-74,-20,-32
-49,-175,-127,112,40,-151,165,-20,-70,-70,-19,-33
-50,-174,-124,112,37,-148,170,-18,-66,-57,-12,-25
-45,-170,-125,108,40,-147,172,-14,-61,-67,-6,-22
-60,-167,-107,114,24,-137,177,-12,-57,-76,1,-13
-33,-121,-88,77,28,-104,177,-9,-50,-51,7,-12
-1,-74,-73,38,36,-73,186,-15,-36,-39,15,3
-12,-71,-59,41,24,-64,178,-25,-24,-31,10,4
5,-51,-57,24,31,-54,150,-38,-12,-17,13,5
20,-30,-50,6,36,-40,148,-43,-10,-4,50,37
30,-29,-59,0,44,-43,156,-13,-5,9,53,22
34,-58,-93,12,64,-75,153,-22,-47,-22,27,-14
20,-112,-132,46,76,-122,162,-38,-69,-50,14,-28
-13,-128,-114,71,51,-121,159,-42,-83,-66,2,-42
-32,-171,-139,102,54,-155,165,-39,-102,-89,-7,-62
-10,-184,-174,97,82,-179,175,-38,-92,-98,-15,-69
-24,-181,-156,103,66,-169,169,-45,-105,-94,-20,-60
-41,-204,-163,122,61,-183,191,-30,-69,-78,-31,-62
-52,-186,-133,119,41,-159,178,-45,-112,-84,-34,-53
-51,-213,-162,132,56,-187,209,8,-44,-55,-37,-54
-65,-150,-86,107,11,-118,209,-29,-74,-52,-38,-45
-31,-182,-151,107,60,-166,251,123,314,229,15,78
136,162,26,-149,55,94,4,-66,570,963,429,720
212,626,415,-419,-102,520,-447,-786,-372,1330,858,1287
74,79,5,-77,34,42,-167,-735,-1152,314,424,446
-101,-448,-347,275,123,-398,105,-424,-1521,-915,-144,-530
-97,-448,-351,273,128,-400,120,-201,-1135,-749,-179,-462
-56,-341,-285,199,115,-313,280,44,-445,-348,-127,-260
-62,-228,-166,145,52,-197,281,57,-202,-210,-79,-163
-20,-207,-186,114,83,-196,270,52,0,-82,-60,-107
-7,-173,-166,91,79,-169,258,44,23,-94,-56,-96
-9,-186,-177,98,84,-181,250,82,55,-35,-36,-77
-50,-180,-130,115,40,-155,250,63,90,-50,-44,-71
-58,-179,-121,119,31,-149,240,45,78,26,-20,-44
-74,-177,-103,126,14,-140,242,44,130,80,-37,-30
-142,-146,-3,144,-69,-74,232,-4,153,-4,95,-14
