I,II,III,aVR,aVL,aVF,V1,V2,V3,V4,V5,V6
6,-25,-31,10,19,-27,72,215,225,225,144,50
21,-20,-41,0,31,-30,81,210,217,213,134,42
22,-7,-30,-7,26,-18,71,195,198,182,106,19
-12,0,13,6,-13,7,64,154,156,133,64,-17
-30,-1,29,15,-30,14,57,92,98,77,27,-40
-44,1,45,21,-45,23,52,76,71,48,3,-47
-45,-2,43,23,-44,20,46,54,42,16,-7,-44
-41,8,49,16,-45,28,41,21,-2,-23,-29,-46
-54,43,97,5,-75,70,35,10,-38,-51,-62,-69
-49,53,102,-2,-76,77,25,-3,-44,-55,-64,-70
-42,47,89,-3,-66,68,17,-22,-27,-46,-61,-56
-38,47,84,-5,-61,65,7,-15,-19,-43,-39,-50
-34,41,75,-4,-55,58,-1,7,-14,-36,-25,-45
-28,41,69,-6,-49,55,-5,12,-12,-32,-37,-42
-30,37,67,-4,-49,51,-5,18,-9,-26,-27,-37
-39,32,71,4,-55,51,-7,21,-5,-17,-21,-31
-44,26,70,9,-58,48,-11,26,-5,-11,-14,-26
-55,21,76,16,-66,48,-9,30,2,-10,-7,-22
-59,15,73,22,-66,44,-14,25,1,-10,-1,-13
-47,10,57,18,-52,33,-15,26,-14,-10,5,-14
8,21,14,-15,-3,17,-16,23,-16,-10,-5,2
14,26,13,-20,0,19,-19,20,-14,-15,-21,-10
-27,25,52,1,-40,38,-21,20,-16,-17,-27,-46
-19,21,40,-1,-30,31,-19,18,-14,-14,-18,-40
-5,20,25,-8,-15,22,-14,13,-17,-16,-7,-20
-1,26,27,-13,-14,26,-35,11,-17,-15,11,-7
5,40,35,-23,-15,38,-46,7,-13,-15,17,-38
37,19,-18,-28,27,1,-34,4,-8,-14,0,-43
14,11,-3,-13,8,4,-31,27,-5,-7,16,-24
-18,60,78,-22,-48,69,-22,35,-21,-1,42,-20
4,53,49,-28,-23,50,-15,24,-27,7,40,-13
7,55,48,-31,-21,51,0,18,-21,12,40,-16
13,95,82,-55,-34,88,7,10,-18,23,41,-3
18,125,107,-72,-45,116,-35,1,-15,33,39,9
33,152,119,-92,-43,135,-71,-13,-9,30,44,30
51,152,101,-102,-25,126,-82,-28,-18,31,42,40
56,139,83,-98,-14,111,-87,-28,-42,29,32,45
49,102,53,-76,-3,77,-53,2,-34,31,26,39
10,50,40,-30,-15,45,-6,16,-28,29,16,7
-24,10,34,7,-29,22,4,21,-22,27,13,-2
-33,-15,18,24,-25,1,10,36,-13,25,8,-10
-30,-40,-11,35,-9,-25,13,27,-18,23,11,-19
-40,-37,3,39,-21,-17,23,36,-10,29,10,-37
-39,-34,4,36,-21,-15,29,22,-22,19,7,-25
-15,-31,-16,23,0,-23,33,39,-7,35,15,-5
-20,-26,-6,23,-7,-15,28,22,-23,20,2,-9
-15,-25,-10,20,-2,-17,27,34,2,47,22,9
-9,-17,-9,13,0,-13,29,25,-11,16,-6,0
6,-13,-19,4,12,-16,9,9,3,23,32,12
-66,22,88,22,-77,55,140,228,67,-15,-87,-106
-203,-100,103,151,-153,1,436,27,-304,-405,-385,-249
-249,-52,198,150,-224,73,366,-753,-977,-917,-615,-276
-182,244,426,-31,-304,335,-504,-1601,-1633,-1433,-813,-166
4,213,209,-109,-102,210,-968,-1481,-1388,-1142,-504,120
15,58,42,-37,-14,50,-476,-550,-483,-369,-146,66
-33,-21,12,27,-22,-4,-108,-73,-19,3,-8,-40
34,-36,-71,1,53,-53,-13,114,182,195,131,41
43,-11,-54,-16,49,-32,10,155,213,214,125,26
46,-31,-77,-7,62,-54,24,166,238,251,174,57
37,-41,-77,2,57,-58,44,210,276,277,194,70
35,-46,-81,6,58,-63,36,190,266,270,194,71
36,-45,-81,4,59,-62,43,202,280,281,203,77
30,-45,-75,8,53,-60,43,216,276,280,201,73
31,-46,-76,8,54,-61,46,228,281,291,207,77
30,-44,-73,8,52,-59,45,224,273,279,197,74
41,-41,-82,0,62,-61,53,223,284,281,199,76
48,-35,-83,-6,66,-59,59,220,282,275,192,69
59,-32,-91,-13,75,-62,64,220,270,272,192,63
58,-27,-85,-16,72,-56,69,215,264,268,175,58
52,-18,-70,-17,62,-44,73,201,254,243,138,51
43,-9,-52,-17,48,-30,74,191,245,212,120,45
39,-3,-42,-18,40,-22,70,179,228,183,108,35
27,4,-23,-15,25,-9,70,164,203,153,86,20
-3,11,15,-4,-9,13,71,143,172,117,53,-6
-5,13,18,-4,-12,15,70,113,130,74,18,-26
-23,3,25,9,-24,14,71,75,86,25,-10,-44
-45,-8,38,26,-41,15,65,38,45,-18,-44,-72
-74,-5,70,39,-72,32,55,13,3,-37,-67,-74
-82,-3,79,43,-80,38,45,4,-11,-58,-63,-64
-38,9,47,15,-43,28,35,1,-22,-68,-61,-58
-17,31,48,-8,-32,39,27,-3,-32,-59,-58,-49
-14,26,41,-6,-28,33,21,-7,-21,-51,-55,-42
-17,21,37,-2,-27,29,14,-10,-14,-42,-52,-34
-17,16,33,0,-25,24,7,-7,-6,-36,-39,-28
-19,9,28,5,-23,18,1,-5,1,-31,-28,-21
-20,6,26,6,-23,16,-4,-6,18,-25,-25,-15
-37,-13,24,24,-30,6,-9,-5,27,-20,-25,-15
-50,-26,24,38,-37,-1,-12,-6,19,-15,-25,-15
-31,-14,17,23,-24,1,-18,-4,15,-16,-25,-15
-28,-3,25,15,-26,11,-20,4,9,-14,-25,-14
-5,-7,-2,6,-1,-5,-20,12,3,-10,-25,-18
-3,-17,-15,10,6,-16,-20,19,1,-10,-25,-25
-46,-28,17,37,-31,-5,-20,20,5,-8,-25,-25
-59,-32,27,45,-43,-3,-20,20,8,-4,-25,-25
-59,-27,33,43,-46,3,-20,20,10,-2,-25,-25
-52,-20,32,36,-41,6,-16,20,14,1,-25,-25
-44,-16,28,30,-36,6,-9,21,15,4,-19,-25
-32,-8,24,20,-28,8,-3,25,19,6,-13,-20
-41,-4,38,22,-39,17,4,25,25,10,-9,-15
-48,5,53,21,-51,29,11,25,31,18,-2,-10
-39,9,48,15,-44,29,16,25,34,24,3,-6
-27,24,51,1,-39,37,22,26,26,31,8,-1
21,74,54,-48,-17,64,-1,20,20,39,13,2
50,100,49,-75,0,74,-38,6,12,38,16,13
72,107,35,-90,18,71,-70,-5,4,33,21,20
81,107,26,-94,28,66,-99,-33,-2,30,19,33
83,98,15,-91,34,56,-85,-41,-3,26,26,47
50,60,10,-55,20,35,-38,-10,7,23,30,29
-15,-12,3,13,-8,-5,-3,-5,7,18,19,18
-22,-44,-22,33,1,-33,15,4,19,27,16,15
-1,-46,-45,24,22,-45,17,7,19,22,3,3
-2,-61,-60,32,29,-61,22,13,28,27,1,3
-41,-66,-25,54,-8,-45,31,22,30,24,-6,-12
-29,-51,-22,40,-3,-36,30,16,24,24,4,-5
-25,-41,-16,33,-4,-28,38,37,30,31,5,-6
-32,-45,-13,39,-9,-29,22,10,19,23,6,0
-26,-36,-10,31,-8,-23,37,54,64,43,19,5
-39,-37,2,39,-20,-18,15,-1,5,9,2,-2
-22,-34,-12,28,-5,-23,38,100,86,63,21,4
-138,-63,75,100,-106,6,279,236,12,-148,-206,-153
-236,-165,70,200,-152,-48,528,-253,-546,-625,-486,-247
-239,18,258,110,-248,138,115,-1173,-1278,-1172,-717,-241
-100,234,334,-67,-217,283,-888,-1844,-1761,-1507,-756,-38
77,118,40,-97,18,79,-949,-1259,-1136,-911,-349,192
5,10,5,-8,-1,8,-306,-336,-285,-231,-103,44
-10,-39,-29,25,10,-34,-67,4,52,66,48,20
27,-53,-80,13,54,-66,-3,148,205,206,152,60
38,-40,-78,1,59,-59,10,149,207,205,145,46
62,-37,-99,-12,81,-68,16,183,254,246,190,91
53,-30,-83,-12,68,-56,22,193,263,249,188,86
65,-30,-95,-17,80,-62,25,205,268,272,203,94
64,-23,-87,-20,76,-55,35,222,281,285,207,94
69,-21,-90,-24,80,-56,36,223,281,285,204,95
65,-17,-82,-24,74,-49,49,238,291,287,207,91
62,-15,-77,-24,70,-46,55,245,291,283,201,85
60,-12,-72,-24,66,-42,65,256,289,283,201,85
56,-9,-65,-23,61,-37,77,247,282,278,199,78
74,-6,-79,-34,77,-42,88,241,279,281,195,77
67,-5,-71,-31,69,-38,84,234,273,263,179,71
30,-15,-45,-7,37,-30,91,225,270,234,164,55
8,-16,-25,4,17,-20,105,220,249,210,141,39
6,-11,-17,2,12,-14,97,209,213,175,109,23
7,-9,-16,1,12,-12,91,181,177,140,88,5
3,-4,-7,1,6,-5,85,148,143,114,61,-11
0,-1,-1,0,1,-1,78,115,107,71,28,-33
-9,3,12,3,-11,7,72,85,65,19,-10,-46
-33,6,39,13,-37,23,64,56,24,-18,-36,-45
-37,10,47,13,-42,28,56,32,-8,-43,-45,-45
-28,13,41,7,-34,26,48,15,-20,-59,-53,-41
-21,18,39,1,-31,28,41,-1,-31,-59,-46,-40
-14,20,34,-3,-24,26,34,-1,-43,-50,-38,-40
-16,15,31,0,-24,23,29,0,-38,-45,-30,-34
-12,15,27,-2,-20,21,24,1,-30,-37,-22,-29
-11,13,25,-2,-18,19,17,5,-22,-31,-17,-24
-15,10,25,2,-20,17,13,4,-8,-25,-12,-18
-13,9,21,2,-17,15,7,7,-1,-20,-9,-12
-3,17,20,-7,-11,19,5,12,1,-15,-6,-12
7,26,19,-17,-7,22,5,15,5,-8,-1,-16
3,19,16,-12,-6,17,1,18,7,-7,-1,-18
3,16,13,-9,-6,14,-1,23,10,-10,-6,-21
1,11,11,-6,-5,11,1,25,8,-13,-12,-24
-1,6,7,-3,-4,7,4,20,4,-15,-15,-25
-3,2,5,0,-4,4,5,16,2,-19,-20,-25
-3,-1,2,2,-2,1,5,13,-1,-20,-24,-25
6,0,-6,-3,6,-2,5,10,-4,-17,-22,-25
12,0,-12,-6,12,-6,4,5,-6,-14,-19,-25
20,0,-20,-10,20,-10,8,7,-9,-11,-16,-25
28,0,-28,-13,28,-14,11,12,-12,-8,-13,-23
44,11,-34,-27,39,-11,15,15,-15,-5,-11,-16
54,26,-28,-40,41,-1,18,19,-12,-4,-8,-9
56,39,-17,-47,36,11,22,23,4,5,0,-2
77,69,-8,-72,42,30,26,26,17,16,8,4
91,95,4,-93,43,49,1,18,17,18,17,12
95,110,15,-103,40,62,-38,11,15,14,17,19
93,122,29,-108,32,75,-74,-2,14,11,12,26
114,120,6,-117,54,63,-100,-39,10,9,9,35
133,103,-29,-118,81,37,-86,-32,8,4,5,43
86,56,-30,-71,57,13,-31,5,15,7,2,33
22,-8,-30,-7,26,-19,4,5,17,9,-3,5
1,-30,-31,15,16,-30,9,18,23,12,-3,-1
-4,-32,-28,18,12,-30,18,17,17,9,-8,-1
-5,-37,-32,21,14,-34,26,30,23,19,-1,3
-11,-34,-22,23,6,-28,29,42,18,12,-9,-4
-17,-42,-25,29,4,-33,22,35,19,20,2,4
-23,-38,-15,31,-4,-26,30,50,24,24,0,-5
-24,-41,-17,33,-3,-29,18,24,10,21,6,-6
-23,-33,-10,28,-6,-21,33,64,37,40,13,-9
-30,-35,-6,33,-12,-20,14,4,-7,14,3,-24
-19,-26,-7,23,-6,-17,33,108,80,69,32,-4
-114,-62,52,88,-83,-5,302,210,-46,-183,-222,-171
-231,-172,60,202,-145,-56,541,-305,-618,-669,-502,-268
-220,-1,219,110,-219,108,-1,-1270,-1372,-1229,-735,-248
-29,179,207,-76,-118,193,-1010,-1909,-1816,-1540,-753,-35
155,78,-78,-116,116,0,-1020,-1305,-1184,-943,-344,207
103,2,-101,-53,102,-49,-385,-405,-356,-282,-124,52
61,-24,-85,-18,73,-54,-95,0,39,63,47,26
57,-27,-84,-15,71,-55,-25,158,208,222,150,72
39,-23,-62,-8,51,-42,-17,167,221,224,142,55
73,-27,-100,-23,87,-63,-1,206,261,257,175,76
63,-23,-87,-20,75,-55,5,209,264,259,180,69
68,-26,-94,-20,81,-60,9,228,278,283,208,87
105,-21,-126,-42,116,-73,14,239,292,289,203,77
93,-20,-113,-36,103,-66,21,242,297,292,206,81
82,-20,-102,-31,92,-61,42,252,300,290,206,80
74,-20,-93,-27,83,-56,46,252,292,285,204,79
61,-20,-81,-20,71,-51,50,255,290,284,206,81
55,-20,-75,-17,65,-47,58,246,284,279,197,72
44,-20,-64,-12,54,-42,66,243,280,279,189,64
38,-20,-58,-9,48,-39,73,238,276,264,181,55
28,-20,-47,-4,37,-33,75,233,268,248,169,46
20,-20,-41,0,30,-30,75,230,248,229,148,32
11,-20,-30,5,20,-25,78,213,229,202,121,18
8,-17,-25,5,17,-21,81,188,200,166,90,4
1,-14,-14,7,8,-14,80,168,163,131,64,-14
-27,-11,16,19,-21,2,74,136,126,97,31,-28
-33,-8,25,20,-29,8,65,94,81,52,-10,-44
-36,-5,31,20,-33,13,59,57,39,10,-44,-61
-40,-4,36,22,-38,16,51,25,0,-30,-69,-61
-25,4,30,10,-28,17,32,3,-35,-57,-77,-60
-14,11,25,1,-20,18,19,-11,-41,-55,-71,-56
-1,21,22,-10,-11,21,18,-22,-35,-48,-72,-56
10,26,16,-19,-3,21,12,-10,-27,-37,-56,-48
27,38,11,-33,8,24,11,25,11,3,-13,-17
65,59,-6,-62,35,26,4,71,65,66,49,22
86,38,-48,-62,67,-5,9,102,96,108,78,46
50,14,-36,-32,43,-11,16,94,91,106,60,31
-5,11,16,-3,-11,13,35,74,67,79,50,19
-41,4,44,18,-43,24,87,67,44,42,20,-7
-51,-1,50,26,-50,24,72,56,28,19,-17,-38
-43,-7,36,25,-39,14,43,50,22,13,-27,-39
-62,-31,30,46,-46,0,45,37,7,-4,-39,-45
-80,-59,21,70,-51,-19,37,26,-3,-11,-45,-44
-81,-65,17,73,-49,-24,38,16,-15,-28,-54,-53
-71,-65,6,68,-38,-30,29,2,-32,-44,-57,-54
-68,-65,3,67,-35,-31,31,10,-40,-42,-67,-55
-75,-71,4,73,-40,-33,22,-8,-55,-45,-68,-56
-79,-70,9,74,-44,-30,23,9,-34,-30,-55,-53
-87,-69,17,78,-52,-26,16,-17,-54,-46,-64,-60
-85,-72,13,78,-49,-29,13,7,-24,-17,-39,-45
-100,-66,33,83,-67,-16,15,-15,-51,-48,-63,-56
-89,-77,12,83,-51,-32,-9,1,-13,5,-17,-17
-173,-79,94,126,-133,8,185,219,31,-69,-143,-132
-321,-197,125,258,-223,-36,539,-113,-456,-556,-486,-319
-380,-178,203,279,-291,12,276,-1053,-1228,-1128,-749,-349
-259,74,333,92,-297,203,-811,-1944,-1897,-1635,-913,-206
21,64,43,-43,-11,53,-1194,-1684,-1567,-1289,-569,101
29,-65,-94,18,62,-79,-574,-650,-589,-472,-194,53
-55,-83,-28,69,-13,-56,-187,-129,-87,-47,-35,-43
-16,-79,-63,48,24,-71,-88,69,129,159,116,32
-21,-69,-48,46,14,-59,-52,113,168,179,121,23
12,-64,-77,26,45,-70,-46,130,196,213,159,50
43,-38,-81,-3,62,-59,-36,163,235,244,175,59
71,-8,-79,-32,75,-43,-39,175,245,261,190,82
99,17,-82,-58,90,-33,-21,202,273,292,219,97
114,37,-77,-75,95,-20,1,225,296,299,224,107
129,47,-83,-88,106,-18,17,255,319,308,228,112
123,46,-78,-84,100,-16,24,256,308,303,219,101
128,45,-83,-86,105,-18,38,263,311,306,220,102
115,43,-72,-79,93,-14,50,261,309,305,213,94
76,39,-36,-58,56,1,60,258,304,305,211,91
58,40,-17,-49,38,11,68,255,307,294,206,84
51,37,-15,-44,33,11,67,252,298,273,188,71
41,34,-7,-37,24,13,62,247,278,250,169,60
34,31,-3,-32,18,14,59,229,248,216,145,47
25,28,3,-27,11,15,56,200,212,177,119,29
2,26,23,-14,-11,24,52,163,170,132,86,7
-12,23,35,-6,-24,29,49,126,126,84,48,-5
-24,21,45,2,-34,32,43,85,85,40,12,-15
-42,17,59,12,-50,38,36,47,46,5,-19,-36
-38,15,53,11,-46,34,29,21,23,-14,-31,-38
-34,12,45,11,-40,28,22,13,9,-18,-29,-28
-29,9,39,10,-34,24,16,19,2,-27,-25,-23
-15,15,30,0,-23,22,19,23,11,-25,-22,-15
-4,22,27,-9,-16,24,29,27,18,-2,-17,-10
-1,30,30,-15,-16,30,35,33,24,10,-15,-5
4,33,30,-18,-13,31,35,35,33,15,-20,-5
0,30,30,-15,-15,30,35,35,40,20,-20,-4
-3,28,30,-13,-17,29,35,35,40,23,-20,0
-5,25,29,-10,-18,26,35,35,40,29,-20,0
-24,22,46,1,-35,34,35,35,40,28,-20,-2
-28,20,48,4,-38,33,32,35,40,22,-18,-5
-24,17,40,3,-32,28,26,32,40,18,-15,-8
-23,14,37,4,-30,25,22,27,35,13,-16,-11
-18,11,29,4,-24,20,17,24,31,9,-11,-15
-17,9,26,4,-22,17,13,20,28,4,-10,-15
-15,5,19,5,-18,12,8,16,25,1,-10,-10
-15,6,21,5,-18,13,4,13,20,0,-5,-10
-4,14,18,-5,-11,16,-2,10,22,0,-2,-10
5,21,16,-13,-6,18,-5,10,25,0,2,-10
14,28,14,-21,0,21,-10,7,25,0,5,-10
13,27,14,-20,-1,20,-15,5,29,2,10,-8
24,24,0,-24,12,12,-15,5,30,5,10,-5
61,26,-35,-43,48,-5,-27,6,30,8,10,-2
49,24,-25,-36,37,0,-28,11,25,11,10,1
38,26,-12,-31,25,7,-20,14,26,14,10,4
42,25,-17,-33,29,4,-16,20,24,16,10,5
53,37,-16,-44,34,10,-10,29,29,21,10,12
74,41,-33,-58,53,4,-4,43,57,39,27,26
99,60,-39,-79,68,11,9,62,84,64,46,49
152,96,-56,-124,104,19,16,99,121,110,87,77
133,71,-63,-102,98,4,30,126,151,136,117,82
126,59,-67,-92,97,-4,27,108,139,124,104,64
126,73,-54,-99,90,9,43,89,88,97,70,38
33,52,18,-43,7,35,101,77,61,69,45,25
5,30,25,-18,-11,27,98,65,60,57,39,23
5,1,-4,-3,5,-2,61,50,48,47,32,21
-13,-16,-2,15,-5,-9,42,47,48,41,27,17
-3,-29,-26,16,11,-27,31,34,33,32,17,15
-4,-51,-47,28,22,-48,38,39,38,34,19,13
-11,-49,-38,30,14,-44,29,22,24,21,15,7
-7,-47,-40,27,17,-43,30,26,35,27,26,14
-19,-41,-22,30,2,-31,33,17,26,17,15,1
-14,-42,-28,28,7,-35,18,8,29,29,33,12
-20,-27,-6,24,-7,-16,38,32,37,29,18,-4
-6,-17,-11,11,3,-13,1,-20,5,23,19,32
-48,-14,35,31,-41,11,101,174,99,23,-20,-20
-201,-97,104,149,-153,4,420,83,-198,-329,-316,-217
-231,-139,91,185,-161,-24,476,-634,-847,-805,-542,-262
-185,99,284,43,-235,192,-335,-1590,-1562,-1352,-750,-168
22,169,147,-96,-62,157,-1119,-1826,-1654,-1360,-589,132
135,30,-105,-82,120,-38,-740,-882,-771,-597,-191,180
25,-24,-49,0,37,-36,-201,-168,-128,-93,-53,35
31,-43,-74,6,53,-58,-63,71,123,147,112,72
43,-24,-67,-9,55,-45,-15,161,205,221,151,48
49,-23,-72,-13,61,-48,-9,158,206,235,162,63
51,-26,-76,-12,64,-51,8,196,243,272,191,75
61,-24,-85,-18,73,-54,6,196,246,266,199,88
80,-26,-106,-27,94,-66,15,228,275,291,225,109
72,-24,-96,-24,84,-60,20,225,261,277,206,95
75,-25,-101,-25,88,-63,23,230,259,277,207,95
73,-20,-93,-26,83,-56,23,229,254,271,196,86
80,-16,-96,-31,88,-56,16,219,244,265,187,83
75,-14,-89,-30,83,-51,33,219,255,264,197,76
67,-9,-75,-29,71,-42,46,209,256,252,195,69
60,-6,-66,-26,63,-36,45,206,249,248,173,63
55,-1,-56,-27,56,-28,49,199,232,225,151,55
69,17,-52,-43,60,-17,50,196,203,196,128,49
65,20,-45,-42,55,-12,61,183,175,171,107,36
40,3,-37,-21,38,-17,66,156,149,150,89,22
12,-17,-29,2,21,-23,59,122,117,122,60,8
-28,-22,6,25,-17,-8,58,93,85,73,26,-11
-51,-18,34,34,-42,8,51,73,50,29,-7,-34
-62,-16,46,38,-53,15,51,41,10,-6,-45,-47
-73,-12,61,43,-67,24,60,4,-23,-39,-71,-52
-71,-11,60,41,-65,25,57,-25,-61,-73,-82,-55
-64,-6,58,35,-61,26,51,-37,-88,-94,-93,-50
-63,8,71,28,-67,39,46,-35,-85,-88,-96,-43
-60,23,83,19,-72,52,40,-32,-82,-77,-89,-39
-62,7,68,28,-65,37,35,-26,-76,-68,-84,-33
-54,-12,42,33,-48,15,30,-23,-59,-57,-68,-27
-35,-3,32,18,-33,15,26,-18,-45,-48,-51,-27
-20,8,28,6,-24,18,24,-14,-33,-37,-47,-31
-4,17,21,-7,-12,18,20,-6,-23,-28,-41,-33
-3,14,17,-6,-11,15,15,2,-18,-29,-38,-36
-12,1,13,5,-13,7,17,10,-12,-31,-32,-39
-29,-11,18,20,-23,3,20,18,-9,-30,-31,-41
-30,-11,19,20,-24,4,23,16,-3,-30,-35,-44
-18,-5,13,12,-15,4,26,14,0,-30,-39,-45
-25,-1,24,13,-24,11,29,15,-5,-33,-50,-45
-29,-3,26,15,-27,11,30,10,-9,-36,-58,-45
-32,-8,24,19,-28,8,25,10,-11,-35,-64,-45
-21,2,23,9,-22,12,25,9,-15,-30,-72,-43
-20,-1,19,11,-20,9,24,5,-20,-30,-74,-38
-34,-14,20,24,-27,2,20,6,-18,-29,-68,-35
-34,-16,17,25,-25,1,20,2,-13,-25,-61,-32
-27,-16,11,21,-18,-2,18,0,-10,-25,-54,-27
-21,-10,11,16,-16,1,12,-1,-7,-23,-47,-25
-15,-11,4,12,-9,-3,7,7,-2,-16,-41,-20
-7,-4,3,5,-4,0,4,18,0,-12,-36,-16
-6,-7,-1,6,-2,-4,-1,15,-4,-6,-31,-11
-5,-27,-22,16,9,-24,-5,12,-5,0,-26,-7
-7,-24,-17,16,5,-20,1,10,-5,5,-23,0
17,-13,-29,-2,23,-21,3,6,-5,10,-18,14
33,2,-30,-17,32,-14,-3,5,-5,10,-13,16
-3,-20,-16,12,7,-18,-7,2,-3,11,-10,15
-20,-23,-3,22,-8,-13,-12,-1,1,16,-7,15
-26,-14,12,20,-19,-1,-16,-4,3,14,-5,15
-36,-33,3,35,-19,-15,-21,-7,6,18,-1,15
-14,-10,5,12,-9,-2,-25,-10,9,20,0,11
-7,-3,4,5,-5,1,-25,-9,10,20,4,9
-33,-19,13,26,-23,-3,-26,-2,10,21,11,8
3,-13,-16,5,10,-15,-30,2,9,19,17,3
54,-7,-62,-23,58,-34,-30,8,12,21,24,13
37,14,-22,-25,29,-4,-28,14,7,12,31,27
12,16,4,-14,4,10,-25,20,22,19,35,25
13,47,35,-30,-11,41,-25,16,51,46,28,22
61,116,55,-89,3,86,-26,5,48,44,22,18
83,116,33,-100,25,74,-52,-3,40,36,17,17
57,130,73,-94,-8,102,-97,-13,38,35,8,13
66,124,57,-95,4,90,-125,-19,28,26,41,47
96,78,-18,-86,56,30,-106,-6,27,28,76,76
60,40,-20,-49,40,10,-33,10,30,34,54,30
-15,-19,-5,17,-5,-12,10,17,25,32,24,5
-38,-30,9,33,-24,-10,17,27,24,27,-1,-7
-27,-41,-13,34,-7,-27,11,12,13,20,1,-13
-7,-65,-58,36,26,-61,24,32,19,21,28,9
-40,-58,-18,49,-11,-38,36,22,0,7,27,8
-38,-56,-19,47,-9,-37,36,37,12,17,32,1
-6,-65,-60,36,27,-62,24,26,-8,2,15,-4
-16,-66,-50,41,17,-57,16,28,-1,16,29,-3
-26,-50,-24,39,-1,-37,18,44,5,-2,6,-52
-10,-21,-11,16,1,-16,-17,-15,-13,8,17,-36
-34,-4,30,19,-32,13,102,202,74,-7,-62,-79
-152,-139,13,146,-82,-63,387,64,-263,-385,-352,-239
-216,-100,116,158,-166,8,409,-695,-939,-888,-585,-278
-170,198,368,-15,-269,283,-400,-1595,-1636,-1415,-803,-161
29,186,157,-107,-64,171,-1010,-1613,-1518,-1225,-537,114
65,48,-17,-57,41,16,-553,-649,-591,-445,-144,99
7,-7,-14,0,11,-10,-130,-88,-74,-26,-17,-39
78,-57,-134,-10,106,-95,-25,99,129,176,148,11
56,-47,-103,-5,80,-75,12,154,179,209,156,16
70,-51,-121,-9,95,-86,12,165,199,240,164,60
91,-45,-135,-22,113,-90,30,190,220,256,168,68
82,-45,-127,-18,105,-86,30,191,216,258,174,62
59,-45,-104,-6,82,-74,38,219,238,289,199,68
71,-47,-118,-12,95,-82,32,208,228,277,195,62
87,-57,-145,-15,117,-101,43,219,239,291,199,67
39,-53,-92,8,66,-73,52,218,238,288,195,68
82,-56,-138,-13,111,-97,55,220,241,286,211,73
78,-54,-132,-12,106,-93,60,221,231,276,200,63
40,-56,-96,8,69,-76,64,219,217,267,187,58
76,-50,-126,-13,102,-88,76,221,208,260,174,51
69,-23,-92,-23,81,-57,83,216,197,244,153,44
60,-9,-70,-25,65,-39,80,205,188,233,133,38
71,-7,-78,-31,75,-43,80,193,178,210,112,28
70,-3,-73,-33,72,-38,78,173,159,170,94,8
59,-1,-60,-29,59,-30,75,147,138,140,66,-12
35,7,-28,-20,31,-10,76,129,118,111,32,-26
2,-3,-5,1,4,-4,70,95,86,74,0,-53
-22,-18,4,20,-13,-7,61,59,48,37,-24,-67
-26,2,29,12,-27,15,53,30,11,1,-50,-64
-13,30,43,-9,-28,36,44,7,-10,-39,-76,-66
-2,35,37,-17,-20,36,36,-7,-22,-68,-80,-65
-18,27,46,-5,-32,36,28,-29,-28,-71,-72,-65
-14,21,34,-4,-24,27,20,-36,-25,-70,-66,-61
-13,15,27,-1,-20,21,12,-28,-25,-70,-59,-54
-13,7,19,3,-16,13,5,-25,-25,-70,-52,-48
10,8,-2,-9,5,3,-15,-20,-25,-70,-54,-41
-18,22,39,-2,-29,30,-32,-15,-16,-61,-55,-34
-18,26,44,-4,-31,34,-28,-12,-3,-48,-50,-28
13,24,12,-19,0,18,-25,-7,7,-38,-48,-25
0,25,25,-13,-13,25,-22,-5,11,-35,-44,-25
-15,25,40,-5,-28,32,-20,0,9,-35,-40,-25
-12,26,37,-7,-25,31,-18,3,14,-35,-37,-25
-8,23,31,-7,-20,27,-15,7,15,-35,-34,-26
-10,16,26,-3,-19,21,-12,10,15,-35,-31,-21
-8,11,19,-2,-14,15,-9,10,20,-31,-28,-20
-11,6,17,2,-14,11,-5,12,23,-26,-25,-19
-29,0,28,14,-29,14,-5,15,26,-24,-25,-23
-47,-4,43,25,-44,19,-10,15,31,-19,-25,-35
-6,1,8,2,-7,4,-8,11,34,-16,-27,-30
18,14,-4,-16,11,5,-4,10,38,-12,-23,-25
-18,17,35,0,-27,26,-2,10,40,-10,-15,-20
-22,13,34,4,-28,23,1,11,40,-9,-10,-13
-26,9,35,8,-31,21,4,9,40,-5,-2,-9
-31,5,36,12,-34,20,5,12,40,-5,3,0
1,35,34,-18,-17,34,16,22,52,7,11,9
38,92,55,-65,-9,73,20,19,59,25,20,16
55,113,58,-84,-2,85,-10,12,51,36,31,25
58,108,50,-83,4,78,-59,7,45,34,37,24
67,113,46,-90,11,79,-86,-3,50,30,35,28
53,91,38,-72,7,64,-86,-19,49,26,42,47
19,49,30,-35,-6,39,-49,-2,53,23,37,40
-28,-6,22,17,-25,8,-10,17,54,19,15,22
-72,-67,5,70,-38,-31,-2,35,56,26,8,8
-70,-75,-4,73,-33,-39,6,42,53,25,2,-9
-42,-67,-25,54,-8,-46,13,36,48,30,7,-9
-28,-61,-34,45,3,-47,22,49,51,33,3,-11
-21,-56,-36,39,8,-46,16,35,37,32,5,-9
-18,-54,-36,36,9,-45,29,59,51,43,7,-10
-19,-50,-31,35,6,-40,19,24,25,31,-8,-11
-6,-47,-41,27,18,-44,24,55,52,53,3,-12
-19,-42,-23,31,3,-33,13,13,34,22,-30,-20
-27,-36,-9,32,-9,-23,29,54,82,65,8,-16
-109,-56,53,82,-81,-1,236,254,69,-79,-146,-143
-245,-178,67,211,-156,-56,512,-141,-441,-543,-437,-267
-270,-69,201,169,-235,66,257,-1014,-1154,-1070,-672,-273
-98,204,302,-54,-200,253,-765,-1803,-1722,-1489,-783,-78
85,133,48,-109,18,91,-1040,-1425,-1284,-1032,-415,155
55,-9,-63,-23,59,-36,-401,-430,-376,-289,-121,53
21,-35,-57,7,39,-46,-89,-19,25,56,28,-3
7,-50,-56,22,32,-53,-12,146,202,222,147,44
8,-43,-50,18,30,-46,11,163,214,228,134,46
49,-45,-94,-2,72,-69,14,200,259,275,185,79
48,-39,-87,-5,68,-63,21,221,280,290,183,78
50,-40,-91,-5,71,-66,18,213,274,292,185,81
53,-38,-91,-7,72,-64,27,234,291,300,192,80
56,-32,-88,-12,72,-60,27,229,280,297,196,80
67,-28,-95,-19,81,-61,33,243,292,301,200,81
74,-23,-97,-25,86,-60,39,245,289,289,189,75
65,-19,-84,-23,75,-51,53,246,285,288,186,68
54,-15,-69,-19,62,-42,59,245,281,280,177,60
42,-20,-61,-11,52,-40,67,245,276,275,171,53
29,-24,-53,-2,41,-38,78,245,272,271,166,45
22,-23,-45,1,34,-34,80,245,265,252,153,40
18,-17,-35,0,26,-26,75,236,250,225,133,30
13,-13,-25,0,20,-19,75,224,233,199,123,24
6,-9,-15,2,10,-11,74,209,210,162,97,8
4,-4,-8,0,7,-6,70,171,170,120,58,-22
-2,0,3,1,-2,1,71,130,125,81,26,-35
-12,5,17,3,-15,10,68,94,78,39,-3,-45
-24,5,29,10,-27,16,57,55,30,4,-26,-53
-37,6,44,15,-41,25,48,26,-2,-29,-46,-49
-34,10,43,12,-38,27,37,12,-28,-53,-52,-46
-28,11,39,9,-33,24,28,9,-36,-53,-47,-43
-29,7,36,10,-33,21,21,10,-28,-47,-41,-38
-32,-1,31,16,-31,15,14,10,-25,-43,-36,-35
-37,-8,29,22,-32,10,6,10,-20,-36,-30,-32
-38,-13,25,25,-31,5,-1,10,-15,-31,-26,-29
-36,-11,25,23,-30,7,-5,14,-12,-27,-25,-26
-30,-4,25,17,-27,10,-5,17,-9,-24,-25,-24
-26,-1,25,13,-25,12,-5,20,-6,-21,-25,-20
-22,4,25,9,-24,14,-5,25,-3,-18,-25,-21
-12,9,21,1,-16,15,-5,23,0,-15,-25,-25
-7,8,15,-1,-11,11,-6,19,-1,-15,-23,-25
-7,3,10,2,-9,6,-9,20,-5,-15,-20,-27
-4,0,5,2,-5,2,-10,20,-7,-15,-20,-31
-1,-3,-2,2,1,-2,-10,20,-10,-15,-20,-30
-4,-8,-4,6,0,-6,-10,19,-14,-15,-20,-27
-10,-10,0,10,-5,-5,-10,15,-15,-15,-20,-21
-5,-5,0,5,-2,-2,-8,15,-12,-11,-15,-17
-4,-2,2,3,-3,0,-3,14,-7,-5,-10,-12
-4,2,6,1,-5,3,0,10,-5,0,-6,-7
2,5,4,-4,-2,5,3,10,0,6,-1,-4
-1,9,10,-5,-5,9,8,12,3,11,4,4
1,16,15,-9,-7,15,9,19,7,17,8,12
16,41,25,-29,-5,33,21,27,15,30,16,20
36,77,41,-57,-3,59,24,32,24,45,24,27
48,87,39,-67,4,63,-4,41,33,47,32,35
48,84,36,-67,6,60,-47,17,32,39,39,45
46,80,34,-63,6,57,-85,-6,26,33,34,50
56,82,26,-69,15,54,-96,1,20,25,25,54
44,58,14,-52,15,36,-49,13,19,20,20,37
-4,4,7,0,-5,5,4,26,11,15,10,10
-18,-33,-14,26,-2,-23,22,32,10,21,5,-3
-15,-53,-37,34,11,-45,27,30,10,21,0,-20
-12,-55,-43,33,16,-49,22,27,8,25,8,-13
-8,-45,-37,27,15,-41,28,36,14,30,10,-12
-4,-45,-42,24,20,-43,21,21,3,26,12,-8
2,-37,-39,18,21,-38,28,44,20,33,22,-2
4,-35,-39,16,21,-36,17,23,1,14,13,-4
10,-30,-40,10,25,-35,21,52,30,40,25,7
-5,-21,-16,14,6,-19,24,31,-1,6,2,-12
6,-21,-27,8,17,-24,4,51,35,53,23,17
-81,-21,60,51,-70,19,206,222,38,-63,-136,-112
-223,-151,72,187,-147,-40,527,-117,-439,-525,-436,-269
-246,-93,154,169,-200,31,302,-968,-1133,-1035,-664,-266
-90,173,262,-42,-176,217,-739,-1839,-1779,-1520,-798,-115
137,130,-7,-133,72,61,-1131,-1576,-1439,-1153,-475,165
115,5,-109,-60,112,-52,-481,-541,-487,-370,-153,72
54,-22,-76,-16,65,-49,-98,-52,-24,10,2,-24
66,-35,-101,-16,83,-68,-17,132,172,196,137,55
55,-27,-82,-14,69,-55,6,163,192,213,131,42
64,-30,-94,-17,80,-62,-3,181,222,245,165,72
69,-23,-92,-23,81,-57,10,203,244,262,169,73
80,-26,-106,-27,94,-66,5,214,245,274,176,78
77,-21,-98,-28,88,-60,13,238,268,291,190,81
79,-14,-93,-32,86,-53,13,224,269,293,187,87
81,-8,-89,-36,85,-49,26,234,287,298,188,92
81,0,-81,-40,81,-40,35,232,286,286,179,81
84,6,-78,-45,81,-36,42,240,288,286,180,81
78,11,-67,-44,73,-28,52,238,278,279,173,74
69,10,-60,-39,65,-25,67,230,273,276,171,71
62,10,-52,-36,57,-21,77,225,266,269,166,65
45,10,-35,-27,40,-12,82,217,259,254,147,55
48,10,-38,-29,43,-14,84,211,253,225,123,45
59,10,-49,-34,54,-19,81,205,231,193,100,35
39,6,-33,-23,36,-13,78,188,204,168,78,20
26,5,-21,-15,23,-8,76,160,177,131,50,7
-9,5,14,2,-12,9,72,131,142,94,20,-8
-48,5,53,21,-51,29,70,97,98,57,-11,-24
-51,5,55,23,-54,30,67,65,47,14,-46,-39
-48,6,55,20,-52,30,58,35,3,-22,-69,-49
-45,10,55,17,-50,32,47,13,-20,-48,-72,-45
-45,10,55,17,-50,32,38,-1,-31,-52,-64,-36
-44,10,54,17,-49,32,28,-8,-38,-44,-58,-28
-36,10,46,13,-41,28,21,-3,-32,-38,-51,-20
-29,10,39,9,-34,25,14,0,-24,-31,-44,-15
-26,6,32,9,-29,19,6,3,-18,-24,-39,-12
-19,5,24,7,-22,14,-1,8,-10,-18,-34,-9
-13,5,18,4,-16,11,-5,10,-5,-15,-31,-5
-8,1,8,3,-8,4,-5,16,0,-13,-28,0
7,-1,-8,-3,7,-4,-5,26,5,-10,-24,-2
19,2,-17,-10,18,-7,-5,28,12,-7,-19,-7
9,4,-5,-7,6,0,-5,24,13,-4,-27,-10
-11,8,19,2,-16,13,-5,22,10,-9,-40,-13
-22,10,32,6,-27,21,-1,19,7,-15,-40,-18
-12,14,26,-1,-19,20,0,16,5,-20,-39,-20
-6,16,22,-5,-15,18,0,14,1,-26,-34,-15
-6,11,17,-3,-12,14,0,11,-1,-32,-28,-15
-5,8,12,-2,-9,10,-1,10,3,-34,-25,-14
-5,4,9,1,-7,6,3,10,8,-26,-20,-9
-3,2,4,0,-4,2,9,10,11,-18,-16,-11
-9,-5,4,7,-6,0,14,10,14,-10,-8,-6
1,-2,-4,0,3,-3,19,13,19,-2,7,5
4,18,14,-11,-5,16,25,23,22,7,20,18
19,45,26,-33,-4,36,30,33,26,19,28,26
45,80,35,-63,5,57,7,29,37,32,35,33
33,89,56,-62,-12,73,-34,17,41,35,42,42
43,82,39,-63,1,60,-76,7,38,27,45,40
69,83,13,-76,28,48,-105,-13,33,21,50,49
99,75,-24,-87,61,25,-85,-10,29,16,43,63
76,39,-37,-57,56,1,-26,11,28,11,23,34
18,-7,-26,-5,22,-16,15,14,20,3,19,-8
-12,-35,-23,24,5,-28,32,31,23,3,22,-24
-29,-41,-12,35,-9,-26,29,26,16,1,17,-22
-29,-40,-10,35,-9,-25,28,33,24,9,24,-17
-41,-40,2,41,-21,-19,25,28,16,1,15,-24
-37,-41,-4,39,-16,-23,19,29,22,15,26,-15
-44,-39,5,41,-24,-17,24,35,20,7,14,-26
-36,-37,-2,36,-17,-19,8,18,15,11,25,-13
-35,-25,10,30,-22,-7,26,51,32,23,18,-19
-25,-22,3,23,-14,-10,-7,-8,-4,5,18,-8
-32,-17,14,24,-23,-1,64,147,91,41,19,-24
-178,-86,92,131,-134,3,389,144,-135,-273,-273,-223
-256,-164,93,210,-174,-35,542,-479,-742,-760,-531,-304
-209,43,252,83,-230,147,-185,-1471,-1500,-1323,-760,-259
31,171,139,-101,-54,154,-1134,-1939,-1798,-1495,-694,4
174,44,-130,-109,152,-43,-889,-1088,-976,-766,-248,167
80,8,-73,-44,76,-32,-250,-239,-206,-149,-45,3
81,2,-80,-41,80,-39,-67,48,94,121,112,14
66,-12,-78,-26,72,-45,-14,166,213,220,177,44
58,-10,-68,-23,63,-39,-14,164,221,227,177,49
66,-9,-75,-29,71,-41,2,209,264,271,212,73
64,-3,-67,-30,66,-35,10,214,269,273,205,69
78,-2,-80,-38,79,-40,19,231,298,295,219,82
76,4,-71,-39,73,-33,31,240,306,296,212,76
83,6,-77,-44,80,-35,39,249,310,295,216,77
84,10,-74,-47,79,-31,51,261,312,296,215,72
85,10,-75,-47,80,-32,55,261,307,292,215,70
79,10,-70,-44,75,-30,62,266,306,290,212,67
72,10,-62,-41,67,-25,70,257,304,290,199,65
66,10,-57,-38,61,-23,72,255,303,283,191,60
59,10,-49,-34,54,-19,69,249,292,266,179,47
53,10,-43,-31,48,-16,70,246,283,249,163,36
47,10,-37,-29,42,-13,70,235,261,226,142,25
44,10,-34,-26,39,-12,70,212,229,195,123,15
40,10,-30,-25,35,-10,69,194,196,155,103,6
30,9,-21,-19,25,-6,63,166,166,119,78,-8
13,5,-8,-8,10,-1,56,126,132,82,48,-24
3,5,2,-4,0,3,49,85,86,39,9,-40
-3,5,8,-1,-6,6,42,47,39,0,-23,-48
-8,5,13,1,-11,9,36,18,4,-32,-40,-45
-11,5,16,3,-14,10,31,-2,-8,-51,-52,-45
-17,5,22,6,-20,13,26,-19,-17,-49,-48,-42
-19,5,24,6,-22,14,21,-26,-28,-37,-40,-40
-17,5,22,6,-20,13,18,-15,-23,-28,-35,-40
-13,5,18,4,-16,11,12,-5,-12,-18,-27,-37
-18,5,24,7,-22,14,11,5,-3,-11,-21,-34
-4,4,7,0,-6,5,17,15,3,-6,-20,-31
21,0,-21,-10,21,-10,23,23,7,-1,-20,-28
-4,0,4,2,-4,2,29,33,11,5,-20,-25
-18,0,18,8,-18,9,34,32,16,9,-20,-26
-12,0,12,6,-12,5,35,29,20,4,-21,-31
-23,0,24,11,-24,12,35,30,15,-2,-25,-34
-34,-4,31,19,-32,13,35,29,11,-6,-25,-39
-32,-5,27,18,-29,11,35,30,9,-12,-25,-40
-28,-5,23,16,-25,9,34,29,4,-18,-25,-40
-25,-5,20,15,-22,7,28,24,0,-18,-29,-44
-20,-5,15,12,-17,5,22,18,2,-12,-34,-45
-22,-4,17,13,-19,7,17,15,6,-8,-27,-44
-16,4,21,6,-19,12,11,10,8,-4,-21,-36
-8,11,19,-2,-14,15,6,5,11,2,-14,-28
0,21,21,-10,-11,21,9,9,14,5,-7,-20
8,26,18,-18,-5,22,14,15,16,14,-1,-12
8,39,30,-24,-11,34,22,21,24,27,6,-5
34,71,38,-53,-2,54,22,27,38,38,12,5
58,92,34,-76,12,63,6,29,43,48,20,15
77,99,22,-88,27,60,-33,7,35,45,24,30
76,94,18,-86,29,56,-80,-24,31,38,17,38
75,82,7,-79,34,45,-95,-41,26,30,8,40
92,57,-34,-74,63,11,-56,-18,24,26,4,39
-2,-5,-2,3,0,-3,6,16,19,15,-6,3
-66,-47,20,56,-43,-13,33,26,15,19,-3,-16
-53,-45,7,49,-30,-19,36,26,18,19,-7,-15
-53,-45,8,49,-30,-18,33,24,18,19,-9,-10
-40,-38,2,39,-21,-18,38,37,24,22,-10,-9
-38,-38,0,38,-19,-19,32,21,17,15,-13,-5
-36,-31,5,33,-20,-13,39,38,35,27,-11,-4
-45,-30,15,37,-30,-7,39,10,12,4,-23,-15
-40,-26,13,33,-26,-6,39,32,34,30,-3,-5
-57,-22,36,39,-46,7,47,7,5,-3,-32,-30
-40,-23,17,32,-29,-4,20,21,37,38,11,2
-100,-28,72,64,-86,22,208,229,54,-52,-128,-111
-246,-165,81,205,-163,-42,552,-75,-404,-512,-449,-269
-269,-105,164,186,-216,30,277,-973,-1137,-1051,-685,-281
-144,109,253,17,-199,181,-772,-1898,-1834,-1573,-866,-157
91,63,-29,-77,60,17,-1139,-1637,-1499,-1214,-516,146
91,-12,-102,-39,97,-57,-515,-577,-511,-399,-147,115
-3,-37,-35,20,16,-36,-120,-64,-31,-3,-13,20
22,-42,-64,10,43,-53,-31,137,175,198,142,65
21,-29,-50,4,36,-39,-1,166,208,219,144,45
35,-32,-67,-2,51,-49,5,195,235,252,176,79
33,-22,-55,-6,44,-38,22,233,259,275,190,79
47,-21,-67,-13,57,-44,21,221,263,285,195,86
58,-15,-73,-21,66,-44,30,239,286,298,208,90
77,-13,-90,-31,84,-51,32,246,280,294,205,89
84,-11,-95,-37,90,-53,38,262,298,302,208,92
55,-7,-62,-24,59,-34,42,254,301,290,200,88
55,-5,-60,-25,58,-32,45,256,300,289,201,91
52,-5,-57,-23,55,-31,45,254,296,282,196,89
48,-5,-54,-21,51,-29,58,249,292,276,195,89
47,-5,-52,-21,50,-28,67,251,290,272,189,77
44,-5,-49,-19,47,-26,64,246,274,262,174,66
37,-5,-42,-15,40,-23,69,230,250,246,148,53
23,-4,-28,-9,26,-16,70,214,227,229,118,38
16,-1,-17,-8,17,-9,70,194,203,201,97,25
5,1,-4,-3,4,-2,66,170,174,166,68,9
-8,-1,8,4,-8,3,59,148,136,133,37,-7
-16,1,17,7,-17,9,56,110,88,87,8,-21
-27,-1,26,14,-26,12,51,65,40,46,-27,-30
-22,6,28,8,-25,17,47,31,6,12,-50,-40
1,23,23,-12,-11,23,42,12,-25,-31,-69,-50
-6,11,17,-3,-12,14,38,10,-41,-51,-82,-52
-3,12,14,-5,-9,13,32,0,-29,-32,-67,-38
28,36,8,-32,10,21,28,9,-19,-3,-42,-15
66,71,6,-69,30,38,25,50,21,39,3,25
110,98,-12,-104,61,43,17,87,73,92,58,67
109,73,-35,-91,72,19,33,98,84,114,62,63
80,59,-21,-69,50,18,39,85,75,102,50,51
35,52,16,-44,9,34,75,73,71,76,27,27
-13,33,46,-11,-30,39,116,63,46,35,-20,-15
-28,13,40,7,-34,26,87,47,7,-2,-40,-31
-40,-6,35,23,-37,14,75,34,-4,-18,-44,-38
-50,-17,33,33,-41,8,68,15,-19,-34,-64,-46
-61,-37,24,49,-42,-7,57,13,-24,-39,-69,-54
-73,-46,27,59,-50,-9,51,5,-34,-50,-69,-66
-67,-45,22,56,-44,-12,40,0,-36,-49,-62,-56
-73,-44,29,58,-50,-8,38,-2,-39,-56,-68,-57
-67,-46,21,56,-44,-13,25,-17,-39,-59,-64,-46
-72,-44,29,57,-50,-7,24,-3,-26,-56,-64,-48
-65,-42,22,53,-43,-10,13,-34,-43,-63,-71,-40
-51,-30,20,41,-35,-5,34,3,-9,-34,-61,-33
-51,-27,24,39,-37,-1,7,-57,-53,-66,-87,-34
-32,-20,12,26,-22,-4,11,52,38,8,-40,-7
-153,-52,101,103,-127,24,300,199,-44,-190,-219,-182
-281,-179,102,230,-191,-39,550,-333,-647,-724,-528,-316
-288,-63,226,175,-257,82,-7,-1357,-1456,-1327,-803,-327
-100,125,225,-13,-163,175,-1041,-2070,-1966,-1688,-869,-136
131,61,-70,-96,100,-4,-1050,-1427,-1301,-1071,-423,137
71,-4,-76,-33,74,-40,-390,-423,-372,-309,-114,31
23,-26,-49,2,37,-37,-118,-35,18,41,57,2
45,-24,-69,-10,57,-46,-43,132,200,203,173,71
37,-15,-52,-11,45,-34,-23,145,217,208,165,72
48,-16,-63,-16,56,-39,-15,182,250,245,198,87
42,-7,-49,-17,46,-28,-9,192,263,250,191,77
53,-5,-59,-23,56,-32,-6,206,276,273,220,89
64,0,-64,-32,64,-32,3,230,291,291,225,83
73,1,-71,-37,72,-35,5,230,300,298,226,89
75,5,-71,-40,73,-32,15,244,315,306,232,91
75,8,-68,-42,71,-30,21,253,312,299,231,89
83,10,-74,-47,79,-32,32,264,309,301,238,84
77,13,-65,-45,71,-26,42,259,300,299,229,75
87,15,-71,-51,79,-28,44,257,295,298,221,70
78,18,-59,-48,68,-20,49,253,287,287,208,60
49,21,-28,-34,38,-3,56,250,282,267,188,55
60,25,-36,-42,47,-5,52,240,267,239,164,46
48,25,-23,-36,35,1,49,216,233,201,141,30
26,20,-6,-23,16,6,47,189,197,171,111,14
14,15,1,-15,6,8,45,155,156,137,74,-2
-4,10,14,-4,-9,12,42,115,110,88,38,-19
-14,6,21,4,-18,13,39,84,70,38,3,-30
-30,1,31,14,-31,16,36,58,37,-2,-22,-30
-41,-3,38,22,-39,17,33,32,10,-19,-38,-30
-39,-5,34,22,-36,14,30,24,4,-31,-47,-30
-34,-8,25,21,-29,8,29,26,6,-31,-42,-30
-30,-11,19,20,-25,4,23,22,4,-22,-33,-30
-25,-14,11,20,-18,-1,17,20,6,-16,-25,-25
-19,-15,4,17,-11,-5,12,20,4,-9,-17,-25
-7,-10,-2,9,-2,-6,6,16,13,-2,-11,-25
-2,-10,-9,6,4,-10,1,15,22,-2,-10,-25
5,-9,-14,2,10,-11,-4,15,17,-8,-10,-25
16,-5,-20,-5,19,-12,-5,10,14,-13,-10,-28
19,-5,-24,-6,22,-15,-5,10,11,-16,-10,-30
18,-3,-20,-7,19,-11,-5,9,6,-22,-11,-30
15,0,-15,-7,15,-7,-5,5,5,-25,-17,-30
14,3,-11,-8,12,-3,-5,5,5,-20,-23,-30
12,6,-6,-9,9,0,-5,5,5,-20,-29,-30
11,9,-2,-10,6,4,-5,5,5,-19,-27,-25
7,10,3,-9,2,6,-5,5,5,-14,-21,-25
0,5,5,-3,-3,5,-5,8,5,-16,-17,-24
-5,4,9,0,-7,6,-5,10,8,-12,-13,-20
-12,-1,11,6,-11,5,-9,10,11,-6,-7,-20
-11,4,14,3,-13,9,-10,10,14,-1,-6,-18
6,21,15,-14,-5,18,-10,10,17,4,-10,-13
17,26,8,-22,4,17,-15,10,20,11,-10,-10
19,25,5,-23,7,15,-15,10,21,14,-10,-7
31,25,-6,-28,18,9,-16,10,25,11,-10,-2
15,25,10,-20,2,18,-25,10,25,10,-10,1
-4,24,28,-11,-16,26,-35,10,25,10,-6,5
8,19,11,-13,-2,15,-39,14,25,10,-5,5
2,8,6,-6,-2,7,-34,15,25,10,-5,6
9,9,-1,-9,5,4,-31,15,29,12,0,10
34,26,-8,-30,21,9,-28,20,30,16,0,10
34,21,-13,-27,23,4,-23,20,30,15,1,12
30,3,-27,-16,29,-12,-20,21,34,22,8,18
28,-2,-30,-13,29,-15,-17,25,36,26,10,22
22,0,-22,-11,22,-11,-14,28,34,24,10,27
20,4,-16,-12,17,-6,-11,32,30,29,10,31
15,5,-10,-10,12,-2,-8,35,30,30,10,36
11,10,-1,-11,6,4,-5,39,30,31,10,40
7,9,2,-8,2,5,-4,40,30,34,11,40
10,6,-4,-8,6,1,4,42,29,37,15,40
11,0,-11,-6,11,-5,12,45,36,40,15,39
-6,6,12,0,-9,9,19,46,49,43,19,44
8,45,38,-27,-15,41,29,51,51,45,29,51
45,78,33,-62,6,55,20,50,55,55,35,49
61,93,32,-77,14,62,-9,51,53,63,45,58
76,102,26,-89,25,63,-51,33,48,57,49,67
74,101,27,-88,23,64,-84,-9,42,50,42,67
86,85,-1,-85,43,41,-76,2,37,47,37,78
67,43,-24,-54,45,9,-29,27,30,38,28,67
-10,-8,2,9,-6,-3,23,29,33,37,24,32
-12,-34,-23,23,6,-28,43,33,40,39,14,16
16,-36,-52,11,34,-44,37,25,39,39,19,22
7,-34,-41,14,24,-37,43,37,50,42,21,19
14,-32,-47,9,31,-39,32,21,37,35,18,18
10,-29,-39,10,24,-34,38,45,54,47,24,12
9,-30,-39,11,24,-34,35,25,34,30,13,0
18,-24,-42,3,30,-33,39,41,56,52,29,5
6,-14,-20,4,13,-16,46,36,36,26,-2,-20
24,-12,-36,-6,30,-24,21,17,45,57,27,2
-70,-13,58,41,-64,23,172,235,95,-3,-92,-85
-220,-139,81,179,-150,-29,501,-27,-318,-416,-377,-222
-241,-104,137,172,-189,16,427,-862,-990,-908,-600,-240
-85,178,263,-47,-175,220,-538,-1739,-1646,-1401,-767,-84
118,166,48,-142,35,107,-1074,-1623,-1433,-1136,-472,188
76,-4,-80,-36,78,-42,-516,-601,-505,-377,-151,115
1,-60,-61,29,31,-60,-98,-51,-11,20,-12,28
27,-61,-88,18,58,-74,-4,128,182,210,136,65
36,-45,-81,4,59,-63,35,172,219,232,142,38
48,-55,-104,4,77,-79,37,186,237,254,170,70
67,-46,-113,-10,91,-79,45,219,257,269,180,75
86,-31,-117,-27,102,-74,43,218,259,277,198,85
65,-49,-114,-7,90,-81,46,240,277,298,219,82
52,-64,-116,7,84,-90,47,236,265,291,216,78
59,-55,-114,-2,87,-84,57,242,273,292,217,82
69,-47,-116,-10,93,-81,54,239,268,281,205,73
71,-43,-114,-14,93,-78,56,240,270,276,202,77
78,-38,-116,-20,97,-77,53,240,263,270,194,73
91,-35,-126,-28,109,-80,61,240,252,259,187,67
64,-30,-94,-16,79,-62,77,237,243,234,167,58
44,-29,-73,-8,59,-51,74,221,221,217,153,50
42,-25,-67,-8,55,-46,75,208,204,205,139,43
23,-22,-46,0,35,-34,75,188,182,175,111,33
12,-20,-32,4,22,-26,75,159,148,136,75,20
6,-22,-28,8,17,-25,73,122,110,89,39,-6
-8,-31,-22,20,7,-26,70,90,72,52,17,-26
-9,-11,-2,10,-4,-6,69,60,30,16,-8,-47
-24,5,30,9,-27,17,65,19,-10,-28,-36,-58
-59,-11,49,35,-54,19,65,-14,-45,-70,-71,-70
-74,-11,62,42,-68,26,59,-38,-90,-111,-101,-94
-78,0,77,39,-77,38,52,-55,-113,-131,-99,-88
-79,-4,74,41,-76,35,46,-64,-107,-134,-96,-78
-84,-20,64,52,-74,21,39,-70,-104,-133,-94,-72
-81,-21,60,50,-70,20,33,-65,-102,-127,-90,-63
-61,-13,48,37,-54,17,26,-57,-96,-113,-90,-58
-57,-8,48,32,-52,20,21,-52,-80,-84,-73,-50
-78,-2,76,39,-76,37,16,-40,-62,-69,-56,-45
-75,3,77,36,-76,40,9,-27,-48,-61,-50,-37
-57,11,68,22,-62,40,6,-19,-39,-49,-45,-31
-45,19,64,13,-55,41,9,-11,-31,-49,-39,-33
-32,27,59,3,-46,43,12,-3,-23,-50,-34,-36
-21,35,56,-8,-38,45,14,5,-15,-50,-30,-34
-14,39,53,-13,-34,46,18,13,-7,-50,-31,-37
-17,31,48,-7,-33,39,20,22,2,-50,-41,-44
-28,17,45,5,-37,31,18,33,3,-49,-43,-47
-54,9,63,22,-59,36,14,42,-1,-44,-39,-50
-59,-9,50,34,-54,20,15,41,0,-39,-37,-52
-39,-17,22,27,-30,3,15,40,-4,-35,-33,-56
-42,-4,38,23,-40,17,15,39,-6,-30,-32,-52
-55,8,62,23,-59,35,15,35,-4,-25,-28,-44
-46,3,49,21,-47,26,14,35,-1,-21,-27,-36
-29,-29,0,29,-14,-15,19,37,6,-16,-22,-28
-33,-19,13,26,-23,-3,21,35,9,-13,-22,-21
5,25,20,-15,-8,22,18,35,14,-7,-13,-12
35,27,-8,-31,21,10,12,34,18,13,19,-3
9,45,36,-27,-14,40,14,30,27,30,27,9
32,84,52,-59,-10,68,-2,31,45,32,27,15
67,101,34,-84,16,68,-35,26,47,39,43,35
68,98,30,-83,19,64,-69,0,45,46,53,47
84,97,13,-91,35,55,-105,-23,45,39,45,52
104,90,-14,-97,59,37,-89,-4,44,32,37,51
53,31,-22,-42,37,5,-27,27,47,27,28,11
13,-6,-19,-4,16,-12,21,31,42,17,18,-7
0,-21,-21,11,11,-21,33,40,45,19,16,-13
-39,-57,-18,48,-10,-37,27,29,33,17,13,-23
-23,-53,-31,38,5,-42,33,40,41,24,17,-16
-25,-56,-31,41,3,-44,28,31,27,15,4,-25
-48,-79,-31,64,-8,-55,31,35,34,24,17,-15
-53,-69,-17,61,-18,-43,27,34,26,17,-1,-26
-52,-75,-23,64,-14,-49,13,11,11,20,2,-13
-59,-61,-3,60,-28,-32,19,43,16,25,-13,-19
-41,-72,-31,56,-4,-51,-6,-38,-33,8,-22,-8
-30,-56,-26,44,-1,-41,87,162,96,37,-20,-29
-164,-90,74,127,-119,-8,322,157,-139,-271,-301,-229
-240,-142,98,191,-168,-22,462,-506,-770,-746,-544,-285
-193,109,302,42,-248,205,-157,-1412,-1479,-1286,-758,-191
-40,194,234,-77,-138,214,-980,-1751,-1665,-1357,-654,72
79,42,-37,-61,58,3,-722,-893,-811,-614,-228,153
45,1,-44,-22,44,-21,-204,-181,-162,-94,-58,-22
68,-33,-101,-17,85,-67,-71,43,73,132,89,22
63,-51,-114,-6,89,-82,-18,165,174,210,128,38
58,-54,-112,-2,85,-83,-4,146,167,217,143,46
82,-43,-125,-19,104,-84,12,194,233,274,184,52
62,-54,-116,-4,89,-84,12,196,228,268,167,60
77,-46,-123,-15,100,-85,20,194,232,278,181,99
81,-38,-118,-22,100,-78,27,198,235,276,171,77
71,-45,-116,-12,94,-80,26,225,244,295,177,79
69,-37,-106,-16,87,-71,24,237,247,294,173,68
57,-36,-93,-11,76,-64,16,235,243,287,166,63
61,-32,-93,-15,77,-62,18,241,244,287,160,58
76,-28,-104,-24,90,-65,46,233,231,280,151,50
70,-23,-93,-24,82,-58,57,233,225,280,145,47
55,-47,-102,-4,79,-74,68,228,214,263,138,39
46,-52,-99,3,73,-75,82,226,206,249,128,36
37,-31,-67,-3,52,-49,74,215,189,226,111,23
25,-22,-47,-1,36,-34,71,191,167,192,94,7
19,-21,-40,1,29,-30,66,167,148,161,74,-9
4,-8,-12,2,8,-10,62,132,111,120,45,-25
-16,19,36,-2,-26,27,57,89,70,71,8,-42
-25,18,43,4,-35,30,49,63,30,33,-21,-50
-40,6,46,17,-43,25,41,35,-10,3,-41,-53
-39,12,51,13,-45,31,33,-1,-45,-37,-67,-58
-27,23,50,2,-39,36,25,-24,-54,-56,-79,-52
-25,26,51,-1,-39,38,21,-32,-45,-48,-71,-48
-25,24,49,1,-38,36,17,-26,-40,-44,-64,-44
-25,26,50,0,-38,38,14,-22,-32,-38,-58,-39
-25,25,50,0,-38,37,11,-18,-23,-32,-54,-36
-25,25,50,0,-38,37,8,-13,-12,-28,-52,-30
-10,37,47,-14,-28,42,4,-9,-4,-21,-49,-26
-2,40,42,-19,-22,41,2,-5,2,-17,-46,-21
-5,34,40,-14,-23,36,-1,-2,9,-11,-44,-16
-3,32,35,-15,-19,33,-4,2,16,-5,-41,-17
-5,27,32,-11,-18,29,-6,3,22,0,-34,-22
-4,25,28,-10,-17,26,-15,17,28,5,-31,-25
-3,20,23,-8,-13,21,-17,27,30,5,-27,-28
-3,12,15,-5,-10,13,-14,24,30,6,-20,-33
-3,6,10,-2,-7,7,-16,25,30,10,-29,-35
-3,-1,2,2,-3,1,-15,20,30,10,-34,-31
-4,-8,-4,6,0,-5,-15,19,30,7,-27,-28
-6,-8,-2,7,-2,-4,-13,21,35,5,-23,-26
-5,1,6,1,-5,3,-7,19,35,5,-16,-22
-5,8,13,-1,-9,10,-3,21,39,2,-11,-21
-5,14,18,-5,-12,16,1,18,40,-1,-7,-16
6,34,27,-20,-11,30,6,26,42,1,-4,-5
27,56,29,-42,-1,42,10,39,53,8,-1,8
27,73,46,-50,-10,59,0,33,59,28,2,17
34,94,60,-64,-13,77,-27,27,56,42,12,25
58,111,53,-85,2,82,-58,18,51,36,25,31
62,102,40,-82,11,71,-88,9,49,29,36,35
103,91,-11,-97,57,39,-100,-7,44,22,43,56
89,77,-11,-83,50,33,-67,-3,40,17,47,57
-1,36,37,-18,-19,36,-15,17,44,9,39,34
-8,-9,-1,9,-3,-5,23,33,52,23,33,23
-17,-29,-13,23,-2,-21,39,57,51,36,23,4
-40,-25,15,32,-27,-5,36,56,46,33,20,-2
-48,-35,13,42,-30,-11,49,70,56,39,21,-1
-56,-47,9,51,-32,-19,47,52,42,29,16,-1
-36,-39,-3,37,-16,-21,52,68,59,43,26,3
-52,-39,13,45,-33,-13,49,54,46,26,11,-6
-52,-43,9,47,-30,-17,47,61,71,50,38,9
-61,-35,26,47,-43,-4,58,68,58,31,23,-12
-47,-47,0,47,-24,-23,29,37,53,54,51,17
-75,-34,41,54,-58,4,148,239,120,17,-49,-68
-202,-118,84,159,-142,-17,422,39,-260,-399,-359,-242
-255,-108,147,182,-201,20,399,-730,-923,-893,-579,-260
-173,177,350,-2,-262,263,-472,-1636,-1628,-1419,-777,-151
50,200,149,-125,-50,174,-1095,-1644,-1510,-1236,-517,134
103,26,-77,-64,90,-26,-591,-656,-569,-449,-138,110
16,-43,-59,14,38,-51,-137,-80,-38,-20,3,-24
19,-57,-77,19,48,-67,-34,114,176,187,152,55
33,-40,-73,3,53,-56,7,176,228,221,161,55
55,-40,-95,-7,75,-67,10,177,240,244,180,71
60,-29,-89,-15,75,-59,29,199,269,278,190,70
63,-26,-89,-19,77,-57,25,201,271,276,192,73
62,-30,-92,-16,77,-61,35,228,299,292,208,79
58,-29,-87,-14,73,-58,35,231,288,291,202,69
60,-34,-94,-13,77,-64,41,248,292,294,208,73
61,-35,-96,-12,79,-65,45,244,289,283,203,64
63,-33,-95,-15,79,-64,48,245,286,278,206,66
59,-29,-88,-15,73,-59,57,245,286,271,205,60
60,-27,-87,-16,74,-57,59,245,283,264,198,52
55,-24,-78,-15,67,-51,63,241,271,259,183,46
45,-21,-67,-12,56,-44,65,229,251,243,171,38
36,-19,-55,-8,45,-36,69,220,237,219,153,31
24,-16,-40,-4,32,-28,74,195,199,192,140,24
18,-9,-27,-5,23,-18,69,167,180,156,111,9
6,-7,-12,1,10,-9,64,132,144,120,70,-8
-2,-1,1,1,-1,0,60,108,113,79,40,-22
-13,4,17,4,-15,10,55,83,74,35,10,-35
-32,5,36,13,-35,20,50,52,19,-5,-20,-46
-49,7,56,21,-53,31,47,26,-3,-44,-59,-73
-61,1,63,30,-63,32,39,3,-60,-68,-55,-107
-46,11,57,17,-52,34,33,6,-14,-76,-66,-125
-53,-5,48,29,-51,21,25,-5,-78,-66,-37,-139
-17,25,43,-4,-30,33,20,1,10,-60,-56,-141
-5,27,32,-11,-19,29,9,-15,-74,-50,-20,-130
-50,-16,34,33,-42,9,-85,-1,20,-48,99,-122
-55,7,62,23,-58,34,-197,41,-99,-78,41,-113
