I,II,III,aVR,aVL,aVF,V1,V2,V3,V4,V5,V6
-48,0,48,24,-48,24,19,9,0,0,-9,-9
-48,-4,43,26,-46,19,19,9,0,-4,-14,-9
-48,-9,39,29,-43,14,19,9,0,-9,-19,-9
-48,-9,39,29,-43,14,19,4,0,-9,-24,-9
-48,-9,39,29,-43,14,19,0,0,-9,-29,-9
-53,-9,43,31,-48,17,19,0,0,-9,-29,-9
-58,-9,48,34,-53,19,19,0,0,-9,-29,-9
-58,-9,48,34,-53,19,19,-4,-4,-9,-29,-9
-58,-9,48,34,-53,19,19,-9,-9,-9,-29,-9
-58,-9,48,34,-53,19,19,-9,-9,-9,-29,-9
-58,-9,48,34,-53,19,19,-9,-9,-9,-29,-9
-63,-9,53,36,-58,21,24,-9,-14,-9,-29,-9
-68,-9,58,39,-63,24,29,-9,-19,-9,-29,-9
-68,-9,58,39,-63,24,29,-14,-19,-19,-34,-14
-68,-9,58,39,-63,24,29,-19,-19,-29,-39,-19
-68,-9,58,39,-63,24,29,-19,-19,-29,-39,-19
-68,-9,58,39,-63,24,29,-19,-19,-29,-39,-19
-68,-9,58,39,-63,24,29,-19,-19,-29,-39,-19
-68,-9,58,39,-63,24,29,-19,-19,-29,-39,-19
-68,-9,58,39,-63,24,24,-19,-19,-24,-39,-19
-68,-9,58,39,-63,24,19,-19,-19,-19,-39,-19
-58,0,58,29,-58,29,19,-14,-4,-14,-34,-9
-43,9,53,17,-48,31,14,0,4,0,-19,0
-34,19,53,7,-43,36,14,14,19,9,-9,9
-24,39,63,-7,-43,51,4,34,34,29,0,19
-9,63,73,-26,-41,68,-4,58,53,43,4,29
0,78,78,-39,-39,78,-4,78,68,53,14,39
14,78,63,-46,-24,70,-9,92,78,58,19,48
24,92,68,-58,-21,80,-19,107,87,58,34,58
34,97,63,-65,-14,80,-19,117,92,63,39,58
53,112,58,-82,-2,85,-34,131,102,73,43,68
78,112,34,-95,21,73,-43,151,117,87,53,78
87,112,24,-100,31,68,-43,151,117,87,53,78
87,107,19,-97,34,63,-48,141,107,82,43,68
73,82,9,-78,31,46,-48,97,68,53,19,43
53,43,-9,-48,31,17,-43,34,29,14,-9,19
39,14,-24,-26,31,-4,-39,-4,4,-14,-29,0
34,4,-29,-19,31,-12,-29,-9,-4,-19,-39,0
34,0,-34,-17,34,-17,-19,-14,-9,-24,-43,-4
34,0,-34,-17,34,-17,-19,-29,-24,-34,-48,-4
34,4,-29,-19,31,-12,-19,-34,-24,-34,-48,-4
24,4,-19,-14,21,-7,-14,-34,-24,-34,-48,-9
9,4,-4,-7,7,0,-9,-24,-19,-29,-48,-9
-29,4,34,12,-31,19,9,-14,-14,-29,-43,-4
-63,-4,58,34,-61,26,34,-9,-4,-24,-43,-4
-68,-9,58,39,-63,24,39,-9,-4,-24,-48,-19
-73,-19,53,46,-63,17,48,-14,-9,-29,-63,-34
-78,-29,48,53,-63,9,53,-19,-9,-34,-68,-34
-82,-34,48,58,-65,7,58,-19,-9,-34,-68,-34
-82,-29,53,56,-68,12,58,-19,-9,-34,-58,-29
-82,-29,53,56,-68,12,53,-19,-9,-34,-53,-29
-82,-29,53,56,-68,12,53,-19,-9,-29,-53,-29
-82,-24,58,53,-70,17,53,-19,-9,-29,-53,-29
-87,-24,63,56,-75,19,53,-19,-9,-29,-53,-24
-87,-24,63,56,-75,19,58,-19,-9,-29,-48,-24
-87,-24,63,56,-75,19,58,-24,-9,-34,-48,-24
-87,-24,63,56,-75,19,58,-24,-9,-34,-48,-24
-92,-24,68,58,-80,21,58,-24,-19,-34,-48,-29
-107,-34,73,70,-90,19,73,-19,-19,-43,-53,-34
-126,-48,78,87,-102,14,102,0,-19,-43,-63,-43
-161,-63,97,112,-129,17,146,68,19,-24,-63,-43
-195,-63,131,129,-163,34,180,170,82,14,-43,-48
-180,-53,126,117,-153,36,180,258,136,43,-29,-39
-14,-19,-4,17,-4,-12,136,395,229,117,19,9
287,48,-239,-168,263,-95,19,517,297,170,82,82
702,190,-512,-446,607,-161,-204,575,370,248,170,190
1161,302,-858,-732,1010,-278,-448,502,356,253,219,268
1459,405,-1054,-932,1256,-324,-634,380,312,253,253,326
1537,453,-1083,-995,1310,-314,-751,78,156,170,224,341
1293,488,-805,-890,1049,-158,-775,-336,-92,43,161,312
883,395,-488,-639,685,-46,-649,-829,-429,-209,-39,156
424,283,-141,-353,283,70,-502,-1268,-736,-434,-229,-24
209,224,14,-217,97,119,-439,-1337,-795,-468,-268,-73
170,146,-24,-158,97,61,-375,-1200,-766,-463,-292,-87
107,131,24,-119,41,78,-317,-971,-639,-395,-258,-78
78,131,53,-104,12,92,-283,-722,-468,-292,-200,-48
53,112,58,-82,-2,85,-209,-473,-287,-170,-131,-19
9,82,73,-46,-31,78,-131,-307,-180,-97,-82,4
-29,48,78,-9,-53,63,-68,-200,-126,-68,-73,4
-68,24,92,21,-80,58,-14,-117,-73,-48,-73,0
-112,14,126,48,-119,70,19,-63,-29,-19,-58,0
-126,4,131,61,-129,68,29,-48,-19,0,-43,4
-126,4,131,61,-129,68,39,-48,-14,0,-43,4
-131,4,136,63,-134,70,43,-39,-14,0,-43,0
-146,0,146,73,-146,73,53,-14,0,4,-39,0
-151,-4,146,78,-148,70,58,0,14,4,-34,0
-151,-9,141,80,-146,65,63,9,14,9,-34,0
-156,-9,146,82,-151,68,63,14,19,9,-34,4
-161,-4,156,82,-158,75,63,29,19,14,-34,9
-161,-4,156,82,-158,75,63,34,29,14,-29,9
-161,-4,156,82,-158,75,63,39,29,14,-29,9
-156,-4,151,80,-153,73,63,34,29,19,-29,4
-156,-4,151,80,-153,73,63,24,29,24,-29,0
-156,-4,151,80,-153,73,58,24,29,29,-29,9
-156,-4,151,80,-153,73,53,24,29,29,-29,9
-151,-4,146,78,-148,70,53,24,34,29,-24,4
-146,-4,141,75,-143,68,53,24,34,29,-24,4
-146,-4,141,75,-143,68,48,34,34,29,-24,9
-146,-4,141,75,-143,68,43,43,29,24,-29,9
-141,-4,136,73,-139,65,43,43,24,24,-29,4
-141,-4,136,73,-139,65,43,48,19,24,-29,4
-141,-4,136,73,-139,65,43,53,19,29,-29,9
-141,-4,136,73,-139,65,48,58,19,29,-24,14
-141,-4,136,73,-139,65,48,63,24,29,-19,14
-136,-4,131,70,-134,63,43,68,29,29,-24,14
-136,-4,131,70,-134,63,43,73,29,29,-24,14
-136,-4,131,70,-134,63,43,73,29,29,-24,14
-131,-4,126,68,-129,61,43,73,29,29,-24,14
-126,-4,122,65,-124,58,43,73,29,29,-19,14
-126,-9,117,68,-122,53,39,82,29,29,-19,14
-122,-14,107,68,-114,46,39,92,29,29,-24,19
-122,-14,107,68,-114,46,34,92,29,24,-29,14
-117,-14,102,65,-109,43,29,92,29,24,-34,9
-112,-19,92,65,-102,36,29,97,29,29,-34,9
-107,-19,87,63,-97,34,29,97,24,34,-39,9
-102,-19,82,61,-92,31,29,92,19,29,-43,4
-97,-29,68,63,-82,19,24,92,14,14,-48,0
-92,-29,63,61,-78,17,24,82,9,4,-58,-9
-82,-39,43,61,-63,2,24,73,0,-4,-68,-14
-78,-43,34,61,-56,-4,29,68,-9,-9,-68,-14
-68,-48,19,58,-43,-14,29,53,-19,-19,-73,-24
-63,-63,0,63,-31,-31,29,39,-29,-24,-78,-34
-58,-68,-9,63,-24,-39,29,19,-34,-29,-78,-39
-48,-78,-29,63,-9,-53,19,9,-43,-39,-82,-53
-39,-87,-48,63,4,-68,14,4,-53,-48,-92,-58
-34,-92,-58,63,12,-75,14,-19,-68,-53,-92,-63
-29,-97,-68,63,19,-82,14,-34,-78,-63,-97,-73
-14,-102,-87,58,36,-95,14,-43,-92,-68,-107,-73
-4,-107,-102,56,48,-104,14,-48,-102,-73,-107,-73
4,-107,-112,51,58,-109,4,-48,-107,-82,-107,-78
14,-102,-117,43,65,-109,4,-53,-112,-92,-102,-78
29,-102,-131,36,80,-117,-4,-58,-112,-92,-102,-73
39,-97,-136,29,87,-117,-9,-58,-112,-87,-97,-73
43,-97,-141,26,92,-119,-14,-58,-107,-78,-87,-73
53,-92,-146,19,100,-119,-14,-58,-102,-73,-82,-73
53,-82,-136,14,95,-109,-24,-48,-97,-53,-68,-58
53,-78,-131,12,92,-104,-24,-43,-87,-43,-58,-53
53,-68,-122,7,87,-95,-24,-34,-78,-39,-39,-48
48,-63,-112,7,80,-87,-29,-24,-68,-29,-24,-48
48,-53,-102,2,75,-78,-29,-14,-58,-24,-9,-43
39,-53,-92,7,65,-73,-24,-9,-43,-14,0,-34
34,-53,-87,9,61,-70,-24,0,-43,-9,4,-39
29,-48,-78,9,53,-63,-24,4,-43,-9,9,-34
19,-43,-63,12,41,-53,-19,14,-34,-4,24,-34
14,-39,-53,12,34,-46,-19,24,-29,-4,29,-34
4,-39,-43,17,24,-41,-19,34,-19,4,34,-24
-9,-34,-24,21,7,-29,-19,43,-14,4,34,-19
-9,-34,-24,21,7,-29,-19,53,-4,14,48,-14
-14,-29,-14,21,0,-21,-19,63,0,14,53,-14
-9,-29,-19,19,4,-24,-19,63,0,24,58,-19
-9,-29,-19,19,4,-24,-19,63,0,29,58,-19
-14,-24,-9,19,-2,-17,-19,68,4,24,68,-19
-14,-24,-9,19,-2,-17,-19,78,4,24,73,-19
-19,-19,0,19,-9,-9,-19,78,9,24,73,-19
-24,-19,4,21,-14,-7,-14,78,19,29,78,-14
-24,-19,4,21,-14,-7,-14,82,19,34,78,-14
-24,-24,0,24,-12,-12,-14,82,19,39,78,-14
-24,-24,0,24,-12,-12,-14,82,19,39,73,-9
-24,-19,4,21,-14,-7,-14,82,19,43,73,-9
-29,-19,9,24,-19,-4,-14,78,24,34,73,-9
-29,-19,9,24,-19,-4,-9,78,24,24,73,-9
-29,-24,4,26,-17,-9,-9,78,24,24,63,-14
-29,-24,4,26,-17,-9,-9,73,24,19,58,-14
-29,-24,4,26,-17,-9,-4,73,24,19,53,-14
-29,-24,4,26,-17,-9,-4,73,24,24,48,-14
-34,-24,9,29,-21,-7,-4,73,24,24,48,-14
-34,-24,9,29,-21,-7,-4,73,24,24,48,-14
-34,-24,9,29,-21,-7,-4,73,24,19,43,-19
-34,-24,9,29,-21,-7,-4,68,24,19,34,-24
-34,-34,0,34,-17,-17,0,63,19,19,29,-24
-34,-43,-9,39,-12,-26,0,53,19,19,29,-24
-34,-34,0,34,-17,-17,0,53,19,19,24,-24
-43,-29,14,36,-29,-7,0,53,19,19,24,-24
-43,-29,14,36,-29,-7,0,43,19,19,24,-24
-43,-29,14,36,-29,-7,4,29,19,19,19,-24
-43,-34,9,39,-26,-12,4,29,14,14,19,-24
-43,-43,0,43,-21,-21,4,29,9,4,19,-24
-43,-43,0,43,-21,-21,14,14,9,4,14,-19
-48,-43,4,46,-26,-19,19,4,9,4,9,-19
-53,-43,9,48,-31,-17,19,4,14,14,9,-19
-53,-43,9,48,-31,-17,19,4,19,29,14,-14
-53,-43,9,48,-31,-17,19,4,19,19,14,-14
-58,-43,14,51,-36,-14,24,4,19,9,9,-14
-58,-43,14,51,-36,-14,29,4,14,0,4,-19
-58,-48,9,53,-34,-19,34,4,9,-9,4,-24
-58,-48,9,53,-34,-19,34,4,9,0,4,-24
-58,-48,9,53,-34,-19,39,4,9,9,4,-24
-63,-48,14,56,-39,-17,43,0,9,9,0,-19
-63,-48,14,56,-39,-17,48,0,9,9,0,-19
-58,-53,4,56,-31,-24,43,4,9,9,0,-19
-58,-58,0,58,-29,-29,39,9,9,9,0,-19
-58,-58,0,58,-29,-29,39,14,9,9,0,-19
-58,-58,0,58,-29,-29,39,19,9,9,0,-19
-58,-58,0,58,-29,-29,39,19,9,9,0,-19
-53,-48,4,51,-29,-21,39,29,14,14,4,-9
-48,-39,9,43,-29,-14,39,39,24,19,9,-4
-34,-29,4,31,-19,-12,34,58,39,34,29,9
-24,-4,19,14,-21,7,24,73,53,58,39,19
-9,24,34,-7,-21,29,14,97,73,82,48,29
0,39,39,-19,-19,39,14,122,82,82,63,34
14,39,24,-26,-4,31,9,141,92,82,68,39
24,43,19,-34,2,31,0,156,107,87,78,43
34,34,0,-34,17,17,0,165,112,92,78,39
53,53,0,-53,26,26,-14,185,122,102,82,48
78,63,-14,-70,46,24,-24,209,136,117,92,58
87,63,-24,-75,56,19,-29,209,146,122,97,63
87,58,-29,-73,58,14,-39,200,146,122,97,63
73,34,-39,-53,56,-2,-39,156,107,102,78,43
53,0,-53,-26,53,-26,-34,92,63,73,48,19
34,-29,-63,-2,48,-46,-29,48,34,34,29,0
24,-43,-68,9,46,-56,-19,39,24,19,19,-4
24,-48,-73,12,48,-61,-9,34,19,14,14,-14
24,-53,-78,14,51,-65,-9,19,4,4,9,-14
34,-53,-87,9,61,-70,-9,14,0,0,9,-14
34,-53,-87,9,61,-70,-4,14,-4,-4,9,-19
19,-53,-73,17,46,-63,0,24,-4,-9,0,-24
-19,-53,-34,36,7,-43,14,34,-4,-19,-4,-24
-58,-58,0,58,-29,-29,34,39,4,-4,4,-24
-68,-58,9,63,-39,-24,39,39,4,4,14,-34
-73,-68,4,70,-39,-31,48,34,0,0,4,-43
-78,-73,4,75,-41,-34,53,29,0,-4,0,-43
-82,-73,9,78,-46,-31,58,29,0,-4,0,-43
-82,-68,14,75,-48,-26,58,29,0,-4,4,-39
-82,-68,14,75,-48,-26,53,29,0,-4,9,-39
-82,-73,9,78,-46,-31,53,29,0,0,14,-39
-82,-78,4,80,-43,-36,53,29,0,0,14,-39
-87,-82,4,85,-46,-39,53,29,0,0,14,-39
-87,-82,4,85,-46,-39,58,29,0,0,19,-43
-87,-82,4,85,-46,-39,58,24,0,-4,19,-43
-87,-82,4,85,-46,-39,58,24,0,-4,24,-39
-92,-82,9,87,-51,-36,58,24,-9,-4,29,-39
-102,-92,9,97,-56,-41,73,24,-9,-14,24,-43
-117,-107,9,112,-63,-48,102,39,-4,-14,14,-53
-151,-122,29,136,-90,-46,146,107,39,4,19,-53
-180,-122,58,151,-119,-31,180,214,107,48,48,-53
-214,-117,97,165,-156,-9,204,307,170,82,78,-39
-92,-82,9,87,-51,-36,175,448,273,161,141,14
190,-9,-200,-90,195,-104,73,629,370,234,214,92
561,131,-429,-346,495,-148,-117,756,473,331,312,200
1073,248,-824,-661,949,-287,-375,746,497,366,380,287
1424,361,-1063,-893,1244,-351,-580,673,488,390,434,356
1576,444,-1132,-1010,1354,-344,-736,419,385,351,448,409
1420,507,-912,-963,1166,-202,-800,53,190,268,424,419
985,424,-561,-705,773,-68,-658,-517,-200,-14,214,253
497,322,-175,-409,336,73,-502,-1044,-570,-278,4,63
209,244,34,-226,87,139,-424,-1200,-683,-361,-73,-9
102,141,39,-122,31,90,-346,-1161,-702,-400,-126,-58
39,117,78,-78,-19,97,-287,-980,-619,-351,-102,-68
19,112,92,-65,-36,102,-258,-761,-488,-263,-58,-48
24,92,68,-58,-21,80,-200,-488,-287,-141,4,-19
4,63,58,-34,-26,61,-131,-297,-161,-68,53,4
-29,19,48,4,-39,34,-58,-185,-107,-39,63,0
-63,-14,48,39,-56,17,0,-97,-53,-19,68,-9
-102,-29,73,65,-87,21,34,-34,0,9,78,-9
-117,-43,73,80,-95,14,48,-4,19,29,82,-4
-117,-43,73,80,-95,14,58,0,24,29,82,-4
-122,-43,78,82,-100,17,63,9,24,29,82,-9
-141,-48,92,95,-117,21,73,34,34,34,92,-9
-151,-53,97,102,-124,21,78,43,43,34,102,-9
-151,-53,97,102,-124,21,82,48,43,48,107,-4
-151,-48,102,100,-126,26,82,53,48,58,112,0
-151,-43,107,97,-129,31,82,68,53,63,112,0
-151,-43,107,97,-129,31,82,73,68,63,112,0
-151,-43,107,97,-129,31,82,82,68,63,107,0
-146,-43,102,95,-124,29,82,87,68,63,107,0
-146,-43,102,95,-124,29,82,82,68,58,107,0
-146,-43,102,95,-124,29,82,82,68,58,107,9
-146,-39,107,92,-126,34,82,82,68,58,97,9
-146,-34,112,90,-129,39,82,82,73,58,92,4
-146,-34,112,90,-129,39,82,82,73,58,87,4
-146,-34,112,90,-129,39,82,82,73,58,82,9
-146,-34,112,90,-129,39,82,78,68,53,78,9
-141,-34,107,87,-124,36,82,73,68,53,78,4
-141,-34,107,87,-124,36,82,78,68,53,73,4
-141,-34,107,87,-124,36,78,78,68,58,63,4
-141,-34,107,87,-124,36,78,78,68,58,58,4
-141,-34,107,87,-124,36,78,78,68,58,53,4
-136,-34,102,85,-119,34,73,78,68,53,39,4
-136,-34,102,85,-119,34,73,78,68,48,34,4
-136,-34,102,85,-119,34,73,73,68,48,34,4
-131,-34,97,82,-114,31,73,73,68,48,34,4
-126,-34,92,80,-109,29,73,68,68,48,34,4
-126,-34,92,80,-109,29,68,63,68,48,29,4
-122,-34,87,78,-104,26,68,63,68,48,24,9
-122,-34,87,78,-104,26,68,63,68,43,24,9
-117,-34,82,75,-100,24,68,58,68,43,24,9
-112,-39,73,75,-92,17,68,53,68,43,24,9
-107,-39,68,73,-87,14,68,48,63,43,19,9
-102,-39,63,70,-82,12,68,39,53,39,14,4
-102,-48,53,75,-78,2,68,34,43,24,9,0
-102,-48,53,75,-78,2,73,24,39,14,0,-9
-92,-58,34,75,-63,-12,73,9,29,4,-14,-14
-87,-63,24,75,-56,-19,78,0,19,0,-19,-14
-78,-63,14,70,-46,-24,78,-14,9,-9,-24,-19
-73,-73,0,73,-36,-36,78,-24,-4,-19,-34,-24
-68,-78,-9,73,-29,-43,78,-39,-14,-29,-43,-29
-58,-82,-24,70,-17,-53,73,-48,-24,-39,-53,-39
-48,-87,-39,68,-4,-63,68,-48,-34,-48,-63,-39
-43,-87,-43,65,0,-65,63,-58,-48,-53,-63,-43
-34,-87,-53,61,9,-70,63,-63,-58,-63,-68,-53
-19,-92,-73,56,26,-82,63,-73,-68,-68,-78,-53
-14,-97,-82,56,34,-90,63,-78,-73,-73,-78,-53
-4,-97,-92,51,43,-95,53,-78,-78,-78,-82,-58
4,-92,-97,43,51,-95,53,-82,-82,-82,-87,-58
19,-92,-112,36,65,-102,43,-82,-82,-82,-92,-53
29,-87,-117,29,73,-102,39,-73,-82,-78,-92,-53
34,-87,-122,26,78,-104,34,-63,-78,-73,-92,-53
43,-82,-126,19,85,-104,34,-58,-73,-73,-92,-53
43,-73,-117,14,80,-95,24,-43,-68,-58,-82,-39
43,-68,-112,12,78,-90,19,-34,-58,-58,-78,-34
43,-58,-102,7,73,-80,14,-24,-48,-58,-68,-29
34,-53,-87,9,61,-70,9,-9,-39,-48,-63,-29
29,-43,-73,7,51,-58,9,4,-29,-43,-53,-24
19,-43,-63,12,41,-53,14,9,-14,-34,-53,-14
14,-39,-53,12,34,-46,14,19,-9,-24,-53,-14
9,-29,-39,9,24,-34,14,24,-4,-19,-48,-9
0,-24,-24,12,12,-24,19,34,4,-14,-39,-14
-4,-19,-14,12,4,-17,19,39,4,-14,-39,-14
-9,-19,-9,14,0,-14,19,39,9,-4,-34,-9
-19,-14,4,17,-12,-4,19,43,9,-9,-34,-9
-19,-14,4,17,-12,-4,19,43,9,-4,-24,-4
-24,-14,9,19,-17,-2,19,43,9,-4,-19,0
-24,-19,4,21,-14,-7,19,43,9,0,-9,0
-29,-19,9,24,-19,-4,19,39,9,0,-9,0
-34,-14,19,24,-26,2,19,34,14,-4,-4,0
-34,-14,19,24,-26,2,19,39,14,-4,0,-4
-34,-9,24,21,-29,7,19,39,14,-4,4,-9
-34,-9,24,21,-29,7,19,34,19,0,9,-4
-34,-9,24,21,-29,7,14,34,19,0,9,-4
-34,-14,19,24,-26,2,14,34,19,-4,9,-9
-34,-14,19,24,-26,2,14,34,19,-9,9,-9
-34,-9,24,21,-29,7,14,34,14,-4,19,-9
-39,-9,29,24,-34,9,14,34,14,-4,24,-9
-34,-9,24,21,-29,7,19,34,14,0,24,-9
-29,-14,14,21,-21,0,19,29,14,4,19,-14
-29,-14,14,21,-21,0,19,24,19,0,19,-14
-29,-14,14,21,-21,0,19,24,24,0,19,-14
-29,-14,14,21,-21,0,19,19,24,4,19,-14
-34,-14,19,24,-26,2,24,14,24,4,19,-14
-34,-14,19,24,-26,2,24,14,24,4,19,-19
-34,-14,19,24,-26,2,24,14,24,0,19,-24
-34,-14,19,24,-26,2,24,9,24,0,14,-24
-34,-14,19,24,-26,2,29,9,19,0,9,-24
-34,-14,19,24,-26,2,29,4,19,0,9,-19
-34,-14,19,24,-26,2,29,4,19,0,4,-14
-43,-24,19,34,-31,-2,29,4,19,0,4,-14
-43,-29,14,36,-29,-7,29,4,19,0,4,-14
-43,-29,14,36,-29,-7,34,0,19,0,0,-14
-43,-29,14,36,-29,-7,34,0,19,0,0,-14
-43,-29,14,36,-29,-7,34,0,19,-4,0,-14
-43,-24,19,34,-31,-2,39,-9,19,-4,-4,-14
-43,-24,19,34,-31,-2,39,-14,19,-4,-9,-19
-43,-24,19,34,-31,-2,39,-14,19,-9,-9,-24
-43,-29,14,36,-29,-7,39,-9,19,-9,-4,-24
-43,-34,9,39,-26,-12,39,-4,19,-9,-4,-24
-48,-34,14,41,-31,-9,43,-4,24,-9,-9,-24
-48,-34,14,41,-31,-9,43,-4,24,-9,-14,-24
-48,-39,9,43,-29,-14,43,-9,19,-14,-14,-24
-48,-39,9,43,-29,-14,43,-14,19,-19,-14,-24
-48,-34,14,41,-31,-9,43,-14,14,-19,-14,-24
-53,-29,24,41,-39,-2,43,-19,9,-19,-19,-19
-58,-29,29,43,-43,0,48,-19,9,-19,-24,-19
-63,-29,34,46,-48,2,48,-19,4,-19,-29,-24
-58,-34,24,46,-41,-4,48,-19,4,-19,-29,-19
-58,-39,19,48,-39,-9,48,-19,9,-19,-29,-19
-58,-39,19,48,-39,-9,48,-19,9,-19,-29,-19
-58,-39,19,48,-39,-9,48,-19,9,-19,-29,-19
-58,-39,19,48,-39,-9,43,-14,9,-19,-24,-19
-53,-24,29,39,-41,2,39,-4,14,-14,-19,-9
-48,-14,34,31,-41,9,39,4,19,-9,-14,-4
-34,0,34,17,-34,17,34,19,29,4,0,9
-24,19,43,2,-34,31,24,34,43,19,9,19
-9,43,53,-17,-31,48,14,58,63,34,19,29
0,58,58,-29,-29,58,14,78,78,48,34,39
14,58,43,-36,-14,51,9,92,92,63,39,48
24,73,48,-48,-12,61,0,107,107,68,53,58
34,73,39,-53,-2,56,0,117,112,73,58,58
53,82,29,-68,12,56,-14,131,122,82,63,68
78,82,4,-80,36,43,-24,151,136,97,73,78
87,82,-4,-85,46,39,-24,156,136,97,73,78
87,78,-9,-82,48,34,-29,151,126,92,68,73
73,53,-19,-63,46,17,-34,107,82,63,48,53
53,19,-34,-36,43,-7,-34,43,34,24,19,29
39,-4,-43,-17,41,-24,-29,0,4,-9,-4,4
34,-14,-48,-9,41,-31,-19,-9,-4,-19,-19,-4
34,-19,-53,-7,43,-36,-9,-14,-9,-24,-24,-14
34,-24,-58,-4,46,-41,-9,-29,-24,-34,-29,-14
34,-24,-58,-4,46,-41,-4,-29,-24,-34,-34,-14
24,-24,-48,0,36,-36,4,-24,-24,-34,-39,-19
9,-24,-34,7,21,-29,9,-14,-14,-29,-39,-19
-29,-24,4,26,-17,-9,24,-4,-4,-29,-34,-14
-63,-34,29,48,-46,-2,43,0,4,-24,-43,-14
-68,-39,29,53,-48,-4,48,0,4,-24,-53,-24
-73,-48,24,61,-48,-12,58,-9,-4,-29,-63,-34
-78,-53,24,65,-51,-14,63,-19,-9,-34,-68,-34
-82,-53,29,68,-56,-12,68,-24,-9,-34,-68,-34
-82,-48,34,65,-58,-7,68,-29,-9,-34,-63,-29
-82,-48,34,65,-58,-7,63,-29,-9,-34,-63,-29
-82,-53,29,68,-56,-12,63,-29,-9,-29,-63,-29
-82,-53,29,68,-56,-12,63,-29,-9,-29,-63,-29
-87,-53,34,70,-61,-9,63,-29,-9,-29,-63,-29
-92,-53,39,73,-65,-7,68,-29,-9,-29,-58,-34
-97,-53,43,75,-70,-4,68,-34,-9,-34,-58,-34
-97,-53,43,75,-70,-4,68,-29,-9,-34,-53,-34
-102,-53,48,78,-75,-2,68,-24,-19,-34,-48,-39
-117,-63,53,90,-85,-4,82,-14,-19,-43,-53,-43
-136,-78,58,107,-97,-9,112,9,-14,-43,-63,-53
-165,-92,73,129,-119,-9,156,82,29,-24,-58,-53
-190,-92,97,141,-143,2,190,195,97,19,-29,-53
-161,-78,82,119,-122,2,180,292,165,58,4,-29
24,-34,-58,4,41,-46,117,439,273,141,73,34
336,48,-287,-192,312,-119,-9,566,346,204,156,117
736,200,-536,-468,636,-168,-224,639,424,292,263,229
1151,302,-849,-727,1000,-273,-453,546,405,302,307,307
1405,400,-1005,-902,1205,-302,-629,390,351,302,336,366
1444,444,-1000,-944,1222,-278,-732,43,156,190,292,361
1176,468,-707,-822,941,-119,-741,-414,-131,34,209,312
790,375,-414,-583,602,-19,-610,-893,-468,-219,9,156
351,263,-87,-307,219,87,-463,-1327,-785,-453,-190,-24
141,209,68,-175,36,139,-400,-1342,-805,-473,-219,-68
112,131,19,-122,46,75,-336,-1161,-732,-448,-224,-87
53,112,58,-82,-2,85,-278,-951,-610,-385,-190,-87
39,112,73,-75,-17,92,-248,-702,-439,-283,-136,-58
24,92,68,-58,-21,80,-185,-463,-263,-161,-73,-29
-14,63,78,-24,-46,70,-112,-307,-161,-87,-24,-4
-48,29,78,9,-63,53,-48,-200,-107,-58,-14,-4
-82,4,87,39,-85,46,0,-117,-53,-39,-9,-9
-117,-4,112,61,-114,53,24,-68,-14,-14,0,-9
-126,-14,112,70,-119,48,29,-53,-9,0,4,-4
-126,-14,112,70,-119,48,39,-48,-4,0,0,-4
-131,-14,117,73,-124,51,43,-39,-4,0,-4,-9
-146,-19,126,82,-136,53,53,-9,9,9,0,-9
-151,-24,126,87,-139,51,58,4,24,14,4,-9
-151,-29,122,90,-136,46,63,9,24,19,4,-4
-151,-29,122,90,-136,46,63,14,29,19,4,0
-156,-19,136,87,-146,58,63,29,34,19,4,0
-161,-14,146,87,-153,65,63,34,48,14,4,0
-161,-14,146,87,-153,65,63,39,48,14,0,0
-156,-14,141,85,-148,63,63,39,48,14,0,0
-156,-14,141,85,-148,63,63,34,48,14,0,-4
-156,-14,141,85,-148,63,63,34,48,19,0,0
-156,-14,141,85,-148,63,63,34,43,19,-4,0
-156,-14,141,85,-148,63,63,34,43,19,-4,-4
-151,-14,136,82,-143,61,63,34,43,19,-4,-4
-146,-14,131,80,-139,58,63,34,43,19,-4,0
-146,-9,136,78,-141,63,63,34,39,19,-9,0
-141,-4,136,73,-139,65,63,34,39,24,-9,-4
-141,-4,136,73,-139,65,63,39,39,24,-9,0
-141,-4,136,73,-139,65,58,39,39,29,-14,4
-141,-4,136,73,-139,65,63,39,39,29,-14,4
-141,-4,136,73,-139,65,68,39,39,29,-14,4
-136,-4,131,70,-134,63,63,34,39,29,-24,4
-136,-4,131,70,-134,63,63,29,39,29,-24,4
-136,-4,131,70,-134,63,63,24,39,24,-24,0
-131,-4,126,68,-129,61,63,24,39,19,-24,-4
-126,-4,122,65,-124,58,63,24,39,19,-19,-4
-126,-4,122,65,-124,58,58,24,39,19,-19,-4
-122,-4,117,63,-119,56,58,24,39,24,-24,4
-122,-4,117,63,-119,56,58,24,39,24,-24,9
-117,-4,112,61,-114,53,58,24,39,24,-24,9
-112,-9,102,61,-107,46,58,24,39,24,-24,9
-107,-9,97,58,-102,43,58,24,34,24,-29,9
-102,-9,92,56,-97,41,58,19,24,19,-34,4
-97,-24,73,61,-85,24,53,19,14,4,-39,0
-92,-29,63,61,-78,17,53,14,9,-4,-48,-9
-82,-39,43,61,-63,2,53,4,0,-19,-58,-19
-78,-43,34,61,-56,-4,58,0,-9,-29,-58,-24
-68,-48,19,58,-43,-14,58,-14,-24,-39,-58,-34
-63,-63,0,63,-31,-31,58,-24,-43,-48,-63,-43
-58,-68,-9,63,-24,-39,58,-39,-53,-58,-68,-43
-48,-73,-24,61,-12,-48,53,-48,-63,-68,-73,-48
-39,-78,-39,58,0,-58,53,-53,-73,-78,-87,-48
-34,-78,-43,56,4,-61,53,-68,-87,-82,-92,-53
-29,-78,-48,53,9,-63,53,-73,-92,-92,-97,-63
-19,-82,-63,51,21,-73,53,-82,-97,-97,-107,-63
-14,-87,-73,51,29,-80,53,-87,-102,-102,-112,-63
-4,-87,-82,46,39,-85,43,-87,-107,-107,-122,-68
4,-82,-87,39,46,-85,43,-97,-112,-112,-122,-68
19,-82,-102,31,61,-92,34,-102,-112,-112,-122,-63
29,-78,-107,24,68,-92,29,-97,-112,-107,-117,-63
34,-78,-112,21,73,-95,24,-92,-107,-102,-112,-63
43,-73,-117,14,80,-95,24,-87,-102,-102,-117,-63
43,-63,-107,9,75,-85,14,-73,-97,-87,-112,-48
43,-58,-102,7,73,-80,14,-63,-87,-82,-107,-43
43,-48,-92,2,68,-70,14,-53,-78,-78,-97,-39
39,-43,-82,2,61,-63,9,-43,-68,-63,-92,-34
39,-34,-73,-2,56,-53,9,-34,-58,-53,-82,-24
29,-34,-63,2,46,-48,14,-29,-43,-43,-78,-14
24,-29,-53,2,39,-41,14,-19,-39,-34,-73,-14
14,-19,-34,2,24,-26,14,-14,-34,-29,-68,-4
0,-14,-14,7,7,-14,19,-4,-24,-24,-58,-4
-4,-9,-4,7,0,-7,19,4,-19,-24,-58,-9
-9,-9,0,9,-4,-4,19,9,-9,-14,-53,-9
-19,-4,14,12,-17,4,14,14,-4,-19,-53,-9
-19,-4,14,12,-17,4,9,14,0,-14,-43,-4
-24,0,24,12,-24,12,9,14,-4,-14,-43,-4
-24,0,24,12,-24,12,9,14,-9,-9,-39,-9
-29,0,29,14,-29,14,9,14,-9,-9,-39,-9
-34,4,39,14,-36,21,9,14,-4,-14,-34,-9
-34,4,39,14,-36,21,9,19,-4,-14,-34,-9
-34,9,43,12,-39,26,9,19,-4,-14,-34,-9
-34,9,43,12,-39,26,14,19,0,-9,-29,-4
-34,9,43,12,-39,26,14,24,0,-9,-29,-4
-34,4,39,14,-36,21,14,29,4,-9,-29,-9
-34,4,39,14,-36,21,14,34,9,-9,-29,-9
-29,9,39,9,-34,24,14,34,9,-4,-24,-9
-29,9,39,9,-34,24,14,34,14,-4,-24,-9
-29,9,39,9,-34,24,19,39,14,-4,-24,-4
-29,4,34,12,-31,19,19,39,14,-4,-29,-4
-29,4,34,12,-31,19,19,34,14,-9,-24,-4
-29,4,34,12,-31,19,19,34,14,-9,-19,-4
-29,4,34,12,-31,19,14,29,9,-4,-19,-4
-34,4,39,14,-36,21,14,24,4,-4,-19,-4
-34,0,34,17,-34,17,14,24,4,0,-19,-4
-34,-4,29,19,-31,12,14,24,4,0,-19,-4
-34,-4,29,19,-31,12,14,24,9,0,-24,-4
-34,-4,29,19,-31,12,19,29,9,0,-29,-4
-34,0,34,17,-34,17,19,24,9,-4,-29,-9
-34,4,39,14,-36,21,19,24,9,-9,-34,-14
-43,0,43,21,-43,21,19,24,4,-14,-39,-14
-43,0,43,21,-43,21,19,24,0,-19,-43,-14
-43,0,43,21,-43,21,24,19,0,-19,-48,-14
-43,0,43,21,-43,21,24,19,0,-19,-48,-14
-43,-4,39,24,-41,17,24,19,0,-24,-48,-14
-43,-4,39,24,-41,17,29,9,0,-24,-53,-14
-48,-9,39,29,-43,14,29,4,0,-24,-58,-14
-53,-14,39,34,-46,12,29,4,0,-29,-58,-14
-53,-14,39,34,-46,12,24,4,0,-24,-53,-14
-53,-14,39,34,-46,12,19,4,0,-19,-53,-14
-58,-14,43,36,-51,14,24,4,0,-19,-58,-14
-58,-14,43,36,-51,14,24,4,-4,-19,-63,-14
-58,-19,39,39,-48,9,24,4,-9,-19,-63,-14
-58,-19,39,39,-48,9,24,4,-9,-19,-63,-14
-58,-19,39,39,-48,9,29,4,-9,-24,-68,-19
-63,-19,43,41,-53,12,34,0,-9,-29,-78,-19
-63,-19,43,41,-53,12,29,0,-9,-29,-73,-19
-68,-24,43,46,-56,9,29,-4,-9,-29,-73,-19
-68,-19,48,43,-58,14,29,0,-9,-29,-68,-19
-68,-19,48,43,-58,14,29,0,-9,-29,-68,-19
-68,-19,48,43,-58,14,29,0,-9,-29,-68,-19
-68,-19,48,43,-58,14,29,0,-9,-29,-68,-19
-63,-9,53,36,-58,21,29,0,-9,-24,-68,-14
-53,0,53,26,-53,26,24,9,-4,-14,-53,-4
-43,9,53,17,-48,31,24,19,0,-4,-43,0
-34,29,63,2,-48,46,14,34,14,9,-29,9
-14,53,68,-19,-41,61,0,63,34,24,-19,19
0,68,68,-34,-34,68,-4,87,48,34,-4,29
14,73,58,-43,-21,65,-9,102,63,48,0,39
24,92,68,-58,-21,80,-19,117,78,58,14,48
29,92,63,-61,-17,78,-19,126,87,63,24,48
43,102,58,-73,-7,80,-34,141,102,73,34,58
68,102,34,-85,17,68,-43,170,122,92,48,73
78,102,24,-90,26,63,-43,180,126,97,53,78
92,102,9,-97,41,56,-48,185,136,97,53,73
92,82,-9,-87,51,36,-48,156,117,73,39,53
63,48,-14,-56,39,17,-43,82,63,34,9,29
39,24,-14,-31,26,4,-39,34,24,4,-9,9
34,9,-24,-21,29,-7,-29,24,4,-9,-29,0
34,0,-34,-17,34,-17,-19,14,-9,-24,-43,-14
34,-9,-43,-12,39,-26,-19,0,-24,-34,-48,-14
34,-14,-48,-9,41,-31,-19,-4,-24,-34,-48,-14
39,-14,-53,-12,46,-34,-19,-9,-24,-34,-48,-19
39,-14,-53,-12,46,-34,-19,-4,-19,-29,-48,-19
-9,-9,0,9,-4,-4,-4,4,-9,-24,-43,-14
-53,-14,39,34,-46,12,14,9,4,-14,-43,-14
-63,-19,43,41,-53,12,24,9,4,-14,-43,-24
-73,-29,43,51,-58,7,39,4,0,-19,-53,-34
-78,-39,39,58,-58,0,43,-4,0,-29,-58,-34
-82,-43,39,63,-61,-2,48,-9,0,-34,-58,-34
-87,-39,48,63,-68,4,48,-9,0,-34,-53,-29
-92,-39,53,65,-73,7,43,-9,0,-34,-53,-29
-92,-43,48,68,-70,2,43,-14,0,-29,-53,-29
-92,-43,48,68,-70,2,43,-19,0,-29,-53,-29
-97,-43,53,70,-75,4,43,-19,-4,-29,-53,-29
-97,-43,53,70,-75,4,48,-19,-9,-29,-48,-34
-92,-43,48,68,-70,2,48,-24,-9,-34,-48,-34
-87,-43,43,65,-65,0,48,-24,-9,-34,-48,-34
-87,-39,48,63,-68,4,39,-24,-19,-24,-48,-39
-97,-43,53,70,-75,4,43,-19,-19,-24,-53,-43
-117,-58,58,87,-87,0,73,-29,-39,-43,-68,-53
-151,-73,78,112,-114,2,117,9,-19,-43,-73,-53
-229,-82,146,156,-187,31,175,102,39,-9,-58,-68
-258,-82,175,170,-217,46,200,180,87,14,-48,-68
-185,-78,107,131,-146,14,204,336,185,82,-14,-39
24,-39,-63,7,43,-51,136,478,258,131,34,14
434,102,-331,-268,383,-114,-68,610,366,234,141,131
888,214,-673,-551,780,-229,-292,610,385,263,209,219
1361,336,-1024,-849,1193,-344,-536,585,409,307,273,302
1615,405,-1210,-1010,1412,-402,-712,380,322,268,273,341
1493,497,-995,-995,1244,-248,-810,-4,107,185,268,375
1205,463,-741,-834,973,-139,-756,-468,-195,-24,126,283
614,331,-283,-473,448,24,-580,-1102,-629,-341,-136,48
268,253,-14,-261,141,119,-488,-1366,-814,-468,-248,-53
209,151,-58,-180,134,46,-414,-1283,-824,-492,-287,-87
126,112,-14,-119,70,48,-346,-1107,-736,-453,-268,-97
92,122,29,-107,31,75,-331,-849,-566,-351,-214,-68
63,112,48,-87,7,80,-278,-590,-385,-229,-151,-39
24,82,58,-53,-17,70,-185,-380,-248,-131,-87,-9
-9,48,58,-19,-34,53,-107,-229,-165,-78,-63,-4
-48,19,68,14,-58,43,-48,-122,-102,-58,-58,-9
-92,4,97,43,-95,51,-9,-43,-48,-29,-39,-9
-112,-4,107,58,-109,51,4,-14,-24,4,-19,0
-117,-4,112,61,-114,53,19,0,-4,19,-14,4
-126,-4,122,65,-124,58,24,9,-4,24,-9,0
-146,-9,136,78,-141,63,34,34,9,34,0,0
-151,-19,131,85,-141,56,39,48,19,34,4,0
-151,-29,122,90,-136,46,43,58,14,39,4,0
-151,-34,117,92,-134,41,43,63,19,34,4,0
-151,-34,117,92,-134,41,43,78,19,34,4,0
-151,-34,117,92,-134,41,43,87,34,34,4,0
-151,-34,117,92,-134,41,43,97,39,34,0,0
-146,-34,112,90,-129,39,43,97,39,34,4,0
-146,-34,112,90,-129,39,43,92,39,34,9,0
-146,-29,117,87,-131,43,43,92,34,39,9,4
-146,-24,122,85,-134,48,43,92,29,39,9,0
-146,-24,122,85,-134,48,43,87,34,39,9,-4
-146,-24,122,85,-134,48,43,82,34,39,4,-4
-146,-29,117,87,-131,43,43,82,34,39,4,0
-146,-34,112,90,-129,39,43,82,29,34,0,0
-141,-34,107,87,-124,36,43,78,29,34,0,-4
-141,-34,107,87,-124,36,43,78,29,34,0,-4
-141,-34,107,87,-124,36,39,78,29,39,-4,-4
-141,-34,107,87,-124,36,39,78,29,39,-4,-4
-141,-34,107,87,-124,36,39,73,29,39,0,-4
-136,-34,102,85,-119,34,34,68,29,39,-4,-4
-136,-34,102,85,-119,34,34,68,29,39,0,-4
-136,-34,102,85,-119,34,34,63,29,39,4,-4
-131,-34,97,82,-114,31,34,58,29,39,4,-4
-126,-34,92,80,-109,29,34,53,29,39,9,-4
-126,-34,92,80,-109,29,29,53,29,39,9,-9
-122,-34,87,78,-104,26,29,53,29,39,4,-9
-122,-34,87,78,-104,26,29,53,29,39,9,-9
-117,-34,82,75,-100,24,29,53,29,43,14,-9
-112,-39,73,75,-92,17,29,53,29,43,19,-9
-107,-39,68,73,-87,14,29,48,24,43,19,-9
-107,-39,68,73,-87,14,29,39,19,43,19,-14
-107,-48,58,78,-82,4,24,34,14,34,19,-19
-102,-48,53,75,-78,2,24,24,9,29,19,-24
-92,-58,34,75,-63,-12,24,14,0,24,19,-24
-87,-58,29,73,-58,-14,24,19,-9,19,19,-24
-78,-58,19,68,-48,-19,19,14,-19,9,14,-34
-73,-73,0,73,-36,-36,19,9,-34,-4,4,-43
-68,-78,-9,73,-29,-43,19,0,-43,-19,0,-48
-58,-82,-24,70,-17,-53,14,-9,-53,-29,-9,-58
-48,-87,-39,68,-4,-63,14,-14,-63,-39,-24,-58
-39,-87,-48,63,4,-68,14,-29,-78,-43,-24,-63
-29,-87,-58,58,14,-73,14,-34,-87,-53,-29,-73
-19,-92,-73,56,26,-82,14,-43,-97,-58,-39,-73
-14,-97,-82,56,34,-90,14,-48,-102,-63,-39,-73
-4,-102,-97,53,46,-100,9,-48,-107,-68,-43,-78
4,-102,-107,48,56,-104,14,-53,-112,-73,-43,-78
19,-102,-122,41,70,-112,9,-53,-112,-78,-48,-78
29,-97,-126,34,78,-112,9,-48,-112,-78,-48,-82
34,-102,-136,34,85,-119,4,-48,-107,-82,-48,-82
43,-102,-146,29,95,-124,4,-48,-102,-92,-53,-82
48,-92,-141,21,95,-117,-4,-39,-102,-78,-48,-68
53,-87,-141,17,97,-114,-4,-34,-97,-73,-48,-63
53,-78,-131,12,92,-104,-4,-24,-87,-68,-39,-53
48,-73,-122,12,85,-97,-9,-14,-78,-58,-34,-48
48,-63,-112,7,80,-87,-9,-4,-63,-43,-24,-43
39,-63,-102,12,70,-82,-4,0,-43,-24,-19,-34
34,-58,-92,12,63,-75,-4,4,-39,-14,-14,-34
29,-48,-78,9,53,-63,-4,4,-34,-9,-9,-24
19,-43,-63,12,41,-53,0,9,-24,-4,0,-24
14,-39,-53,12,34,-46,0,14,-19,-4,0,-24
9,-39,-48,14,29,-43,0,19,-9,0,0,-19
0,-34,-34,17,17,-34,0,24,-4,-4,-4,-19
0,-39,-39,19,19,-39,0,24,4,4,4,-14
-4,-39,-34,21,14,-36,0,24,9,4,4,-14
-9,-39,-29,24,9,-34,4,24,9,14,9,-19
-19,-39,-19,29,0,-29,9,24,9,19,9,-19
-24,-34,-9,29,-7,-21,9,34,14,14,19,-19
-24,-34,-9,29,-7,-21,9,48,14,14,24,-19
-24,-34,-9,29,-7,-21,9,48,14,14,24,-19
-24,-39,-14,31,-4,-26,14,48,19,19,29,-14
-24,-39,-14,31,-4,-26,14,48,24,19,34,-14
-24,-43,-19,34,-2,-31,14,43,29,19,39,-14
-24,-39,-14,31,-4,-26,14,43,29,24,43,-4
-24,-29,-4,26,-9,-17,14,43,29,34,53,0
-29,-29,0,29,-14,-14,14,43,29,34,53,0
-29,-29,0,29,-14,-14,19,48,24,34,53,0
-29,-39,-9,34,-9,-24,19,48,24,29,43,-4
-29,-43,-14,36,-7,-29,19,43,24,19,39,-4
-29,-43,-14,36,-7,-29,19,43,24,19,39,-4
-29,-43,-14,36,-7,-29,14,43,24,24,39,-4
-34,-43,-9,39,-12,-26,14,43,24,29,48,-4
-34,-43,-9,39,-12,-26,14,43,24,34,58,-4
-34,-43,-9,39,-12,-26,14,43,24,29,58,-4
-34,-43,-9,39,-12,-26,14,39,24,29,53,-4
-34,-43,-9,39,-12,-26,19,39,14,24,48,-9
-34,-43,-9,39,-12,-26,19,34,9,19,48,-14
-34,-43,-9,39,-12,-26,19,39,9,19,43,-14
-43,-48,-4,46,-19,-26,19,43,9,19,43,-14
-43,-48,-4,46,-19,-26,19,48,14,24,48,-14
-43,-48,-4,46,-19,-26,24,48,19,29,48,-14
-43,-48,-4,46,-19,-26,24,53,19,29,48,-14
-43,-53,-9,48,-17,-31,24,58,19,24,48,-14
-43,-53,-9,48,-17,-31,34,48,14,19,39,-14
-48,-53,-4,51,-21,-29,39,43,9,14,29,-19
-53,-53,0,53,-26,-26,39,43,9,9,29,-24
-53,-53,0,53,-26,-26,39,43,9,9,34,-24
-53,-53,0,53,-26,-26,39,43,19,14,43,-24
-58,-53,4,56,-31,-24,43,43,29,19,48,-24
-58,-53,4,56,-31,-24,43,43,24,19,43,-24
-58,-58,0,58,-29,-29,43,43,19,19,43,-24
-58,-53,4,56,-31,-24,34,43,19,9,39,-24
-58,-48,9,53,-34,-19,29,43,19,0,34,-24
-63,-48,14,56,-39,-17,34,39,19,0,29,-19
-63,-48,14,56,-39,-17,39,39,19,0,29,-19
-58,-53,4,56,-31,-24,39,34,14,0,29,-19
-58,-58,0,58,-29,-29,39,29,9,0,29,-19
-58,-58,0,58,-29,-29,39,29,9,4,29,-19
-58,-58,0,58,-29,-29,39,29,9,9,29,-19
-58,-58,0,58,-29,-29,39,34,14,9,34,-19
-53,-48,4,51,-29,-21,39,43,19,14,39,-14
-48,-39,9,43,-29,-14,39,53,29,19,43,-9
-34,-29,4,31,-19,-12,34,68,39,34,58,0
-24,-9,14,17,-19,2,29,78,48,48,68,4
-9,14,24,-2,-17,19,24,97,63,63,78,9
0,29,29,-14,-14,29,24,117,78,73,97,19
14,29,14,-21,0,21,19,131,92,82,107,29
24,43,19,-34,2,31,4,151,107,87,122,43
34,43,9,-39,12,26,0,165,112,92,126,48
53,58,4,-56,24,31,-14,180,122,102,131,58
78,63,-14,-70,46,24,-24,200,136,117,141,68
87,68,-19,-78,53,24,-24,209,151,122,151,73
87,68,-19,-78,53,24,-29,209,156,122,156,73
73,43,-29,-58,51,7,-29,165,117,97,136,53
53,9,-43,-31,48,-17,-24,102,73,63,107,29
39,-14,-53,-12,46,-34,-19,58,39,34,87,9
34,-24,-58,-4,46,-41,-9,48,24,29,78,4
34,-34,-68,0,51,-51,4,43,19,19,73,-4
34,-43,-78,4,56,-61,9,29,4,4,68,-4
39,-43,-82,2,61,-63,9,19,4,4,68,-4
34,-43,-78,4,56,-61,14,14,4,4,68,-9
19,-39,-58,9,39,-48,19,24,9,14,68,-9
-19,-34,-14,26,-2,-24,34,34,14,19,73,-4
-58,-43,14,51,-36,-14,53,39,24,24,73,-4
-68,-48,19,58,-43,-14,58,39,24,24,73,-14
-73,-58,14,65,-43,-21,68,34,19,14,63,-29
-78,-63,14,70,-46,-24,73,29,19,4,58,-34
-82,-63,19,73,-51,-21,78,24,14,4,53,-34
-82,-58,24,70,-53,-17,78,19,9,4,53,-29
-82,-58,24,70,-53,-17,73,19,9,4,48,-29
-82,-63,19,73,-51,-21,73,19,9,9,43,-29
-82,-63,19,73,-51,-21,73,19,9,9,39,-29
-87,-63,24,75,-56,-19,73,19,9,9,34,-29
-87,-63,24,75,-56,-19,73,19,9,9,34,-34
-87,-63,24,75,-56,-19,68,14,9,4,29,-34
-87,-63,24,75,-56,-19,68,14,9,4,29,-29
-92,-63,29,78,-61,-17,68,14,0,4,29,-29
-102,-73,29,87,-65,-21,82,14,0,-4,19,-34
-117,-87,29,102,-73,-29,112,29,4,-4,4,-43
-151,-107,43,129,-97,-31,156,97,48,9,4,-43
-180,-112,68,146,-124,-21,190,204,117,48,29,-43
-214,-102,112,158,-163,4,209,297,175,82,43,-34
-92,-63,29,78,-61,-17,175,439,273,161,92,14
185,9,-175,-97,180,-82,73,614,370,229,161,92
551,151,-400,-351,475,-124,-117,736,473,322,253,200
1054,273,-780,-663,917,-253,-370,722,497,356,312,292
1395,390,-1005,-893,1200,-307,-570,644,488,380,356,366
1546,468,-1078,-1007,1312,-305,-717,375,375,336,366,414
1390,527,-863,-958,1127,-168,-771,-4,170,248,336,419
956,434,-522,-695,739,-43,-639,-570,-214,-43,117,253
468,322,-146,-395,307,87,-492,-1093,-580,-317,-102,63
195,258,63,-226,65,161,-409,-1244,-688,-385,-175,-14
102,170,68,-136,17,119,-326,-1200,-702,-409,-224,-68
39,141,102,-90,-31,122,-283,-1019,-614,-375,-209,-73
19,131,112,-75,-46,122,-268,-800,-478,-302,-175,-48
19,112,92,-65,-36,102,-200,-527,-283,-170,-102,-19
-4,82,87,-39,-46,85,-122,-336,-161,-87,-43,4
-39,39,78,0,-58,58,-58,-219,-107,-58,-34,4
-73,4,78,34,-75,41,-9,-126,-53,-39,-29,0
-112,-4,107,58,-109,51,24,-58,0,-9,-9,0
-126,-14,112,70,-119,48,39,-24,19,9,4,4
-126,-14,112,70,-119,48,48,-19,24,9,4,4
-131,-14,117,73,-124,51,53,-9,24,9,4,0
-146,-14,131,80,-139,58,63,14,34,19,9,0
-151,-14,136,82,-143,61,68,24,43,24,14,0
-151,-19,131,85,-141,56,73,29,43,29,14,0
-151,-19,131,85,-141,56,73,34,48,29,14,0
-151,-19,131,85,-141,56,73,53,48,34,14,0
-151,-24,126,87,-139,51,73,63,58,34,14,0
-151,-24,126,87,-139,51,73,68,58,34,9,0
-146,-24,122,85,-134,48,73,68,58,34,9,0
-146,-19,126,82,-136,53,68,63,53,34,9,-4
-146,-14,131,80,-139,58,63,63,48,39,9,0
-146,-14,131,80,-139,58,63,63,43,34,4,0
-146,-14,131,80,-139,58,63,63,43,29,4,-4
-146,-14,131,80,-139,58,63,58,43,29,0,-4
-146,-14,131,80,-139,58,63,53,43,29,-4,0
-146,-14,131,80,-139,58,63,43,34,19,-9,0
-141,-14,126,78,-134,56,63,34,29,14,-9,-4
-141,-14,126,78,-134,56,63,39,29,14,-14,-4
-141,-14,126,78,-134,56,58,39,29,19,-24,-4
-141,-19,122,80,-131,51,58,39,29,14,-24,-4
-141,-24,117,82,-129,46,58,39,29,9,-24,-4
-136,-24,112,80,-124,43,53,39,24,9,-39,-4
-136,-24,112,80,-124,43,53,39,19,9,-43,-4
-136,-24,112,80,-124,43,48,34,19,4,-48,-4
-131,-24,107,78,-119,41,43,34,19,0,-53,-4
-126,-24,102,75,-114,39,43,34,19,0,-48,-4
-126,-24,102,75,-114,39,39,34,19,0,-48,-4
-122,-24,97,73,-109,36,39,34,19,0,-58,-4
-122,-24,97,73,-109,36,39,34,19,-4,-63,-9
-117,-24,92,70,-104,34,39,34,19,-4,-63,-9
-112,-29,82,70,-97,26,39,34,19,-4,-63,-9
-107,-29,78,68,-92,24,39,29,19,-4,-68,-9
-102,-29,73,65,-87,21,39,19,14,-9,-73,-14
-97,-39,58,68,-78,9,34,14,4,-24,-78,-19
-92,-39,53,65,-73,7,34,4,0,-34,-87,-29
-82,-48,34,65,-58,-7,39,-9,-9,-43,-97,-39
-78,-53,24,65,-51,-14,48,-19,-19,-48,-97,-43
-68,-58,9,63,-39,-24,48,-34,-29,-58,-97,-53
-63,-73,-9,68,-26,-41,48,-43,-43,-68,-102,-63
-58,-78,-19,68,-19,-48,48,-63,-53,-78,-107,-63
-48,-82,-34,65,-7,-58,43,-78,-63,-87,-112,-68
-39,-87,-48,63,4,-68,43,-82,-73,-97,-117,-68
-34,-87,-53,61,9,-70,43,-97,-87,-102,-112,-73
-29,-87,-58,58,14,-73,39,-107,-97,-112,-117,-82
-19,-92,-73,56,26,-82,34,-122,-107,-117,-126,-82
-14,-102,-87,58,36,-95,34,-126,-112,-117,-122,-82
-4,-107,-102,56,48,-104,24,-126,-117,-117,-122,-87
4,-102,-107,48,56,-104,24,-131,-122,-122,-117,-87
19,-102,-122,41,70,-112,14,-131,-122,-122,-112,-82
29,-97,-126,34,78,-112,9,-126,-122,-117,-107,-82
34,-97,-131,31,82,-114,4,-122,-117,-112,-102,-82
43,-92,-136,24,90,-114,4,-117,-112,-112,-102,-82
43,-82,-126,19,85,-104,-4,-102,-107,-97,-92,-68
43,-73,-117,14,80,-95,-4,-92,-97,-92,-82,-63
43,-58,-102,7,73,-80,-4,-82,-87,-87,-68,-58
34,-53,-87,9,61,-70,-9,-68,-78,-78,-63,-58
29,-43,-73,7,51,-58,-9,-53,-68,-73,-53,-53
19,-43,-63,12,41,-53,-4,-43,-48,-58,-43,-43
14,-39,-53,12,34,-46,-4,-29,-39,-43,-34,-43
9,-29,-39,9,24,-34,-4,-24,-34,-34,-29,-34
0,-24,-24,12,12,-24,0,-14,-24,-24,-19,-34
-4,-19,-14,12,4,-17,0,0,-19,-24,-19,-34
-9,-19,-9,14,0,-14,0,9,-9,-14,-14,-29
-19,-14,4,17,-12,-4,0,19,0,-14,-14,-29
-19,-14,4,17,-12,-4,0,24,9,-4,-4,-24
-24,-9,14,17,-19,2,4,24,9,-4,-4,-19
-24,-9,14,17,-19,2,9,24,9,0,0,-19
-29,-9,19,19,-24,4,9,24,9,0,0,-19
-34,-4,29,19,-31,12,9,24,14,-4,4,-19
-34,-9,24,21,-29,7,4,29,14,-4,4,-19
-34,-9,24,21,-29,7,0,29,14,-4,4,-19
-34,-9,24,21,-29,7,4,29,19,0,4,-14
-34,-9,24,21,-29,7,4,34,19,0,0,-14
-34,-9,24,21,-29,7,4,34,19,0,0,-14
-34,-4,29,19,-31,12,4,34,19,0,0,-9
-29,0,29,14,-29,14,4,34,14,4,4,-9
-29,0,29,14,-29,14,4,34,14,4,4,-9
-29,0,29,14,-29,14,9,39,14,4,4,-9
-29,-4,24,17,-26,9,9,39,14,4,0,-14
-29,-4,24,17,-26,9,9,34,14,0,0,-14
-29,-4,24,17,-26,9,9,34,14,0,0,-14
-29,-4,24,17,-26,9,4,29,14,4,0,-14
-34,-4,29,19,-31,12,4,24,14,4,0,-14
-34,-4,29,19,-31,12,4,24,14,4,0,-14
-34,-4,29,19,-31,12,4,24,14,0,0,-14
-34,-4,29,19,-31,12,4,19,14,-4,-4,-14
-34,-4,29,19,-31,12,9,19,9,-9,-9,-14
-34,-4,29,19,-31,12,9,14,9,-9,-9,-14
-34,-4,29,19,-31,12,9,14,9,-9,-14,-14
-43,-9,34,26,-39,12,9,14,9,-9,-9,-14
-43,-9,34,26,-39,12,9,14,9,-9,-4,-14
-43,-9,34,26,-39,12,14,9,9,-9,-9,-19
-43,-9,34,26,-39,12,14,9,9,-9,-9,-24
-43,-14,29,29,-36,7,9,9,9,-9,-9,-24
-43,-14,29,29,-36,7,9,0,9,-4,-14,-24
-48,-14,34,31,-41,9,9,-4,9,-4,-19,-24
-53,-14,39,34,-46,12,9,-4,9,-9,-19,-24
-53,-14,39,34,-46,12,9,-4,4,-14,-14,-24
-53,-14,39,34,-46,12,9,-4,0,-19,-14,-24
-58,-14,43,36,-51,14,14,-4,0,-19,-19,-24
-58,-14,43,36,-51,14,14,-4,-4,-19,-24,-24
-58,-19,39,39,-48,9,14,-4,-9,-19,-19,-24
-58,-19,39,39,-48,9,14,-4,-9,-19,-14,-24
-58,-19,39,39,-48,9,19,0,-9,-14,-14,-24
-63,-19,43,41,-53,12,24,0,-9,-9,-19,-19
-63,-19,43,41,-53,12,29,0,-9,-9,-24,-19
-63,-19,43,41,-53,12,29,0,-14,-9,-29,-24
-63,-24,39,43,-51,7,29,0,-9,-14,-24,-19
-68,-29,39,48,-53,4,29,0,-9,-19,-19,-19
-68,-29,39,48,-53,4,29,0,-9,-19,-19,-19
-68,-29,39,48,-53,4,29,0,-9,-19,-19,-19
-68,-29,39,48,-53,4,24,0,-9,-19,-19,-19
-63,-19,43,41,-53,12,19,4,-4,-14,-14,-14
-58,-9,48,34,-53,19,19,14,0,-9,-14,-9
-43,0,43,21,-43,21,14,29,9,4,0,0
-29,24,53,2,-41,39,4,39,24,19,9,9
-9,53,63,-21,-36,58,-4,58,43,34,19,19
0,68,68,-34,-34,68,-4,78,53,43,34,24
14,68,53,-41,-19,61,-9,92,63,53,39,29
19,82,63,-51,-21,73,-19,107,78,58,58,39
24,82,58,-53,-17,70,-19,117,82,63,68,39
43,92,48,-68,-2,70,-34,136,97,78,73,53
68,92,24,-80,21,58,-43,161,117,97,82,68
82,97,14,-90,34,56,-43,170,126,102,82,73
87,97,9,-92,39,53,-48,170,126,102,78,73
73,73,0,-73,36,36,-53,126,87,73,58,53
53,39,-14,-46,34,12,-53,63,43,34,29,29
39,9,-29,-24,34,-9,-48,19,9,0,4,4
34,-4,-39,-14,36,-21,-39,9,-4,-9,-9,-4
34,-9,-43,-12,39,-26,-29,0,-14,-19,-14,-14
34,-14,-48,-9,41,-31,-29,-19,-34,-34,-19,-14
34,-14,-48,-9,41,-31,-29,-24,-34,-34,-19,-14
24,-14,-39,-4,31,-26,-24,-24,-34,-34,-19,-19
9,-14,-24,2,17,-19,-19,-14,-24,-24,-19,-19
-29,-14,14,21,-21,0,-4,-4,-14,-19,-14,-14
-68,-24,43,46,-56,9,14,4,-4,-9,-9,-9
-78,-29,48,53,-63,9,19,9,-4,-4,-4,-14
-82,-39,43,61,-63,2,29,4,-9,-9,-14,-24
-87,-43,43,65,-65,0,34,0,-9,-14,-19,-24
-92,-43,48,68,-70,2,43,-4,-9,-14,-19,-29
-92,-39,53,65,-73,7,48,-9,-9,-14,-14,-29
-92,-39,53,65,-73,7,43,-9,-9,-14,-14,-29
-92,-43,48,68,-70,2,43,-9,-9,-9,-14,-29
-92,-43,48,68,-70,2,43,-9,-9,-9,-14,-29
-97,-43,53,70,-75,4,43,-9,-9,-9,-14,-29
-97,-43,53,70,-75,4,48,-9,-9,-9,-9,-34
-97,-43,53,70,-75,4,48,-14,-9,-14,-9,-34
-97,-43,53,70,-75,4,43,-14,-9,-14,-9,-34
-102,-43,58,73,-80,7,39,-14,-19,-14,-9,-39
-107,-53,53,80,-80,0,53,-19,-29,-34,-14,-43
-117,-68,48,92,-82,-9,82,-9,-34,-43,-24,-53
-165,-87,78,126,-122,-4,126,43,0,-34,-34,-58
-209,-92,117,151,-163,12,161,136,58,0,-19,-63
-253,-97,156,175,-204,29,195,219,107,29,-4,-63
-141,-73,68,107,-104,-2,175,351,195,102,43,-24
126,-14,-141,-56,134,-78,82,507,283,161,112,53
483,112,-370,-297,427,-129,-97,610,375,244,204,161
1010,234,-775,-622,893,-270,-366,605,405,283,263,248
1376,351,-1024,-863,1200,-336,-580,536,400,312,307,317
1566,439,-1127,-1002,1346,-344,-746,268,283,263,312,356
1449,507,-941,-978,1195,-217,-819,-112,73,170,278,351
1019,414,-605,-717,812,-95,-688,-668,-312,-117,63,195
536,302,-234,-419,385,34,-541,-1180,-678,-385,-151,14
268,239,-29,-253,148,104,-468,-1322,-780,-448,-214,-53
180,151,-29,-165,104,61,-395,-1268,-790,-468,-253,-97
102,126,24,-114,39,75,-336,-1068,-688,-424,-234,-97
68,122,53,-95,7,87,-307,-829,-536,-341,-195,-68
53,102,48,-78,2,75,-239,-556,-336,-200,-117,-34
14,73,58,-43,-21,65,-161,-366,-209,-107,-53,-4
-24,39,63,-7,-43,51,-92,-234,-141,-68,-43,-4
-63,14,78,24,-70,46,-39,-126,-73,-39,-39,-9
-112,0,112,56,-112,56,0,-63,-24,-9,-19,-9
-136,-14,122,75,-129,53,19,-34,-9,9,-4,-4
-136,-14,122,75,-129,53,34,-29,-4,9,-4,0
-141,-14,126,78,-134,56,43,-19,-4,9,-4,0
-156,-14,141,85,-148,63,53,4,9,14,0,0
-161,-14,146,87,-153,65,58,14,24,14,4,0
-161,-19,141,90,-151,61,63,19,24,19,4,0
-161,-19,141,90,-151,61,63,24,29,19,4,0
-161,-14,146,87,-153,65,63,39,29,24,4,0
-161,-14,146,87,-153,65,63,43,39,24,4,0
-161,-19,141,90,-151,61,63,48,39,24,0,0
-156,-24,131,90,-143,53,63,48,39,24,0,0
-156,-24,131,90,-143,53,63,43,39,24,9,0
-156,-24,131,90,-143,53,63,43,39,29,19,9
-156,-19,136,87,-146,58,63,39,39,34,24,9
-156,-14,141,85,-148,63,63,34,43,39,34,4
-156,-14,141,85,-148,63,63,34,43,39,34,4
-156,-14,141,85,-148,63,63,34,43,39,34,9
-156,-14,141,85,-148,63,63,34,39,29,24,9
-151,-14,136,82,-143,61,63,34,39,24,19,4
-151,-14,136,82,-143,61,63,43,39,24,19,4
-151,-14,136,82,-143,61,58,48,39,29,14,4
-151,-14,136,82,-143,61,58,48,39,29,14,4
-151,-14,136,82,-143,61,58,48,39,29,14,4
-146,-14,131,80,-139,58,53,48,39,29,4,4
-146,-14,131,80,-139,58,53,48,39,29,4,4
-146,-14,131,80,-139,58,53,43,39,29,0,4
-141,-14,126,78,-134,56,53,43,39,29,-4,4
-136,-14,122,75,-129,53,53,39,39,29,0,4
-136,-14,122,75,-129,53,48,34,39,29,0,4
-131,-14,117,73,-124,51,48,34,39,34,-4,9
-131,-14,117,73,-124,51,48,34,39,34,-4,9
-126,-14,112,70,-119,48,53,39,39,34,-4,9
-122,-19,102,70,-112,41,58,43,39,34,-4,9
-117,-19,97,68,-107,39,58,39,34,34,-9,9
-112,-19,92,65,-102,36,58,29,24,29,-14,4
-107,-29,78,68,-92,24,53,24,14,14,-19,-4
-102,-29,73,65,-87,21,53,14,9,4,-29,-19
-97,-34,63,65,-80,14,53,0,0,-9,-39,-24
-97,-34,63,65,-80,14,58,-9,-9,-19,-39,-24
-87,-39,48,63,-68,4,58,-24,-19,-29,-43,-29
-82,-53,29,68,-56,-12,58,-34,-34,-39,-53,-34
-78,-63,14,70,-46,-24,58,-48,-43,-43,-58,-39
-68,-73,-4,70,-31,-39,53,-58,-53,-48,-63,-48
-58,-78,-19,68,-19,-48,53,-63,-63,-58,-73,-48
-53,-78,-24,65,-14,-51,53,-78,-78,-63,-73,-53
-48,-78,-29,63,-9,-53,53,-82,-87,-73,-78,-63
-39,-82,-43,61,2,-63,53,-92,-97,-78,-87,-63
-34,-87,-53,61,9,-70,53,-97,-102,-92,-92,-68
-24,-87,-63,56,19,-75,43,-97,-107,-107,-102,-78
-14,-82,-68,48,26,-75,43,-107,-122,-112,-102,-78
0,-82,-82,41,41,-82,34,-112,-131,-112,-102,-73
9,-78,-87,34,48,-82,29,-107,-131,-107,-97,-73
14,-78,-92,31,53,-85,24,-102,-126,-102,-92,-73
29,-73,-102,21,65,-87,24,-102,-122,-102,-92,-73
34,-63,-97,14,65,-80,14,-92,-117,-87,-82,-58
34,-58,-92,12,63,-75,14,-82,-102,-82,-82,-53
34,-48,-82,7,58,-65,14,-73,-87,-78,-78,-48
29,-43,-73,7,51,-58,9,-63,-78,-68,-73,-48
29,-34,-63,2,46,-48,9,-53,-68,-63,-63,-43
19,-34,-53,7,36,-43,14,-48,-53,-53,-63,-34
14,-29,-43,7,29,-36,14,-39,-48,-43,-63,-34
14,-19,-34,2,24,-26,14,-34,-43,-39,-63,-24
9,-14,-24,2,17,-19,19,-24,-34,-34,-58,-24
4,-9,-14,2,9,-12,19,-14,-29,-34,-58,-24
0,-9,-9,4,4,-9,19,-9,-19,-24,-53,-19
-14,-4,9,9,-12,2,19,-4,-14,-24,-58,-19
-19,-4,14,12,-17,4,19,-4,-9,-14,-53,-14
-24,4,29,9,-26,17,19,0,-9,-14,-53,-9
-24,9,34,7,-29,21,19,4,-9,-9,-48,-9
-29,9,39,9,-34,24,19,9,-4,-9,-48,-9
-34,14,48,9,-41,31,19,14,4,-14,-43,-9
-34,14,48,9,-41,31,19,19,4,-14,-43,-9
-34,19,53,7,-43,36,19,19,4,-14,-43,-9
-34,19,53,7,-43,36,24,9,4,-9,-39,-4
-34,19,53,7,-43,36,24,4,0,-9,-39,-4
-34,14,48,9,-41,31,19,4,0,-9,-39,-4
-34,14,48,9,-41,31,14,4,0,-9,-39,0
-34,19,53,7,-43,36,14,4,0,-4,-39,-4
-39,19,58,9,-48,39,14,4,4,-4,-43,-9
-39,19,58,9,-48,39,19,4,9,-4,-43,-9
-39,14,53,12,-46,34,19,0,14,-4,-48,-14
-39,14,53,12,-46,34,19,-4,14,-14,-53,-14
-39,14,53,12,-46,34,19,-4,14,-19,-58,-14
-39,14,53,12,-46,34,14,-4,9,-14,-58,-14
-43,14,58,14,-51,36,14,-4,4,-14,-58,-14
-43,14,58,14,-51,36,14,-4,4,-14,-53,-14
-43,14,58,14,-51,36,14,-4,4,-19,-48,-14
-43,14,58,14,-51,36,14,0,4,-19,-53,-14
-43,14,58,14,-51,36,19,9,0,-19,-58,-14
-43,14,58,14,-51,36,19,4,0,-19,-58,-14
-43,14,58,14,-51,36,19,4,0,-19,-63,-14
-53,9,63,21,-58,36,19,4,0,-19,-58,-14
-53,9,63,21,-58,36,19,4,0,-19,-53,-14
-53,9,63,21,-58,36,24,0,0,-19,-58,-14
-53,9,63,21,-58,36,24,0,0,-19,-58,-14
-53,4,58,24,-56,31,24,0,0,-24,-53,-14
-53,4,58,24,-56,31,29,-9,0,-24,-53,-14
-58,4,63,26,-61,34,29,-14,0,-24,-58,-14
-63,4,68,29,-65,36,29,-14,0,-29,-58,-14
-63,4,68,29,-65,36,29,-14,0,-29,-53,-14
-63,4,68,29,-65,36,29,-14,0,-29,-53,-14
-68,4,73,31,-70,39,34,-14,4,-24,-58,-14
-68,4,73,31,-70,39,34,-14,4,-19,-63,-14
-68,0,68,34,-68,34,34,-14,0,-19,-63,-14
-68,0,68,34,-68,34,34,-14,0,-19,-63,-14
-68,0,68,34,-68,34,39,-14,-4,-19,-63,-19
-73,0,73,36,-73,36,43,-19,-9,-19,-68,-19
-68,0,68,34,-68,34,39,-24,-9,-19,-63,-19
-68,-4,63,36,-65,29,39,-34,-9,-19,-63,-19
-68,-4,63,36,-65,29,39,-29,-9,-19,-58,-19
-68,-9,58,39,-63,24,39,-29,-9,-19,-58,-19
-68,-4,63,36,-65,29,39,-29,-9,-19,-58,-19
-68,0,68,34,-68,34,39,-29,-9,-19,-58,-19
-63,9,73,26,-68,41,34,-24,-9,-14,-58,-14
-53,14,68,19,-61,41,29,-9,-4,-9,-48,-4
-43,24,68,9,-56,46,24,4,0,-4,-39,0
-34,39,73,-2,-53,56,14,24,14,0,-29,9
-19,63,82,-21,-51,73,4,48,34,24,-19,19
-9,78,87,-34,-48,82,4,68,48,43,-4,29
4,78,73,-41,-34,75,0,87,63,53,-4,39
14,92,78,-53,-31,85,-9,107,78,58,4,48
24,92,68,-58,-21,80,-9,117,82,63,9,48
43,102,58,-73,-7,80,-24,131,92,73,14,58
73,107,34,-90,19,70,-39,161,112,97,29,73
87,112,24,-100,31,68,-43,170,117,107,34,78
87,107,19,-97,34,63,-48,165,112,102,29,73
73,82,9,-78,31,46,-48,126,78,73,9,53
53,43,-9,-48,31,17,-43,63,34,34,-24,29
39,14,-24,-26,31,-4,-39,24,4,4,-48,9
34,0,-34,-17,34,-17,-29,24,-4,-4,-58,0
34,-9,-43,-12,39,-26,-19,24,-9,-14,-63,-14
34,-19,-53,-7,43,-36,-19,19,-24,-24,-68,-14
34,-24,-58,-4,46,-41,-19,24,-24,-24,-68,-14
24,-24,-48,0,36,-36,-24,29,-24,-24,-68,-19
9,-24,-34,7,21,-29,-29,43,-19,-19,-68,-19
-29,-19,9,24,-19,-4,-14,53,-14,-14,-63,-14
-63,-24,39,43,-51,7,4,58,-4,-4,-63,-14
-68,-29,39,48,-53,4,9,58,-4,-4,-63,-24
-73,-39,34,56,-53,-2,19,53,-9,-9,-73,-34
-78,-43,34,61,-56,-4,19,48,-9,-14,-78,-39
-82,-43,39,63,-61,-2,19,48,-9,-14,-78,-43
-82,-39,43,61,-63,2,19,43,-9,-14,-73,-39
-82,-39,43,61,-63,2,14,39,-9,-14,-73,-39
-87,-48,39,68,-63,-4,14,29,-14,-9,-73,-43
-92,-53,39,73,-65,-7,14,19,-19,-9,-73,-48
-97,-53,43,75,-70,-4,14,9,-19,-9,-73,-48
-97,-53,43,75,-70,-4,19,0,-19,-9,-68,-53
-92,-58,34,75,-63,-12,19,-9,-19,-14,-63,-53
-87,-63,24,75,-56,-19,19,-14,-19,-14,-58,-53
-87,-63,24,75,-56,-19,14,-24,-29,-14,-53,-58
-97,-73,24,85,-61,-24,24,-29,-29,-24,-53,-63
-117,-87,29,102,-73,-29,53,-19,-34,-24,-53,-73
-151,-102,48,126,-100,-26,97,39,0,-4,-43,-73
-219,-107,112,163,-165,2,151,146,63,34,-19,-78
-239,-102,136,170,-187,17,170,239,117,63,0,-68
-117,-82,34,100,-75,-24,146,380,214,141,53,-29
141,-29,-170,-56,156,-100,48,507,287,200,122,34
561,112,-448,-336,505,-168,-165,619,380,287,224,141
1024,224,-800,-624,912,-287,-400,600,385,302,287,219
1434,341,-1093,-888,1263,-375,-619,531,375,326,336,283
1625,405,-1220,-1015,1422,-407,-771,283,253,268,322,302
1434,468,-966,-951,1200,-248,-829,-122,24,165,297,312
1078,405,-673,-741,875,-134,-736,-605,-292,-63,136,195
541,278,-263,-409,402,7,-575,-1156,-678,-346,-97,-14
248,204,-43,-226,146,80,-497,-1337,-814,-439,-180,-92
190,122,-68,-156,129,26,-429,-1220,-795,-439,-209,-117
107,102,-4,-104,56,48,-366,-1010,-678,-375,-180,-117
82,102,19,-92,31,61,-336,-761,-507,-273,-126,-82
63,82,19,-73,21,51,-268,-512,-326,-151,-63,-48
24,53,29,-39,-2,41,-185,-326,-200,-73,-4,-24
-9,19,29,-4,-19,24,-117,-200,-126,-39,14,-24
-53,-4,48,29,-51,21,-58,-92,-68,-19,4,-29
-102,-14,87,58,-95,36,-19,-14,-19,9,9,-29
-117,-24,92,70,-104,34,-4,9,-9,29,19,-24
-117,-24,92,70,-104,34,9,19,-4,29,14,-24
-122,-24,97,73,-109,36,14,29,-4,29,9,-29
-136,-29,107,82,-122,39,24,53,9,34,9,-29
-146,-34,112,90,-129,39,29,68,34,34,14,-29
-151,-39,112,95,-131,36,34,78,43,39,14,-29
-151,-39,112,95,-131,36,34,82,48,39,14,-24
-151,-34,117,92,-134,41,34,97,48,43,14,-19
-151,-34,117,92,-134,41,39,102,58,43,14,-19
-151,-34,117,92,-134,41,43,107,58,43,9,-19
-146,-39,107,92,-126,34,48,117,58,43,9,-19
-146,-43,102,95,-124,29,53,122,58,43,9,-19
-146,-43,102,95,-124,29,53,122,58,43,4,-9
-146,-43,102,95,-124,29,53,122,58,39,0,-9
-146,-43,102,95,-124,29,53,112,53,39,4,-19
-146,-43,102,95,-124,29,53,102,43,39,4,-24
-146,-43,102,95,-124,29,48,97,53,39,4,-19
-146,-43,102,95,-124,29,43,92,58,34,0,-19
-136,-34,102,85,-119,34,43,87,58,34,0,-19
-131,-24,107,78,-119,41,43,87,58,34,0,-14
-131,-24,107,78,-119,41,39,87,58,34,-9,-14
-131,-24,107,78,-119,41,39,87,58,29,-14,-14
-136,-34,102,85,-119,34,48,78,58,29,-14,-14
-136,-43,92,90,-114,24,53,68,58,29,-24,-14
-136,-43,92,90,-114,24,53,63,58,29,-24,-9
-136,-43,92,90,-114,24,53,53,58,29,-24,-4
-131,-43,87,87,-109,21,53,53,58,29,-24,-4
-126,-43,82,85,-104,19,53,53,58,29,-19,-4
-122,-43,78,82,-100,17,48,53,53,29,-19,-14
-112,-43,68,78,-90,12,48,53,48,29,-24,-19
-112,-43,68,78,-90,12,48,53,48,24,-24,-19
-107,-43,63,75,-85,9,48,53,48,24,-24,-19
-102,-48,53,75,-78,2,48,58,48,29,-14,-4
-97,-48,48,73,-73,0,48,58,43,34,-9,9
-92,-48,43,70,-68,-2,48,48,34,34,-9,4
-87,-58,29,73,-58,-14,43,43,24,24,-9,0
-87,-58,29,73,-58,-14,43,34,24,14,-19,-9
-82,-68,14,75,-48,-26,43,24,19,4,-29,-14
-78,-73,4,75,-41,-34,48,29,9,4,-29,-14
-68,-78,-9,73,-29,-43,48,24,0,0,-34,-24
-63,-92,-29,78,-17,-61,48,14,-14,-9,-43,-34
-58,-97,-39,78,-9,-68,48,0,-24,-19,-48,-39
-48,-102,-53,75,2,-78,43,-9,-34,-29,-48,-48
-39,-107,-68,73,14,-87,43,-14,-43,-39,-53,-48
-29,-107,-78,68,24,-92,43,-24,-58,-43,-53,-48
-19,-107,-87,63,34,-97,43,-24,-68,-53,-58,-53
-9,-112,-102,61,46,-107,48,-34,-78,-58,-68,-53
-4,-117,-112,61,53,-114,53,-39,-82,-63,-68,-53
4,-122,-126,58,65,-124,43,-43,-87,-68,-73,-63
14,-122,-136,53,75,-129,43,-53,-92,-73,-73,-68
29,-122,-151,46,90,-136,34,-53,-92,-78,-73,-63
39,-117,-156,39,97,-136,29,-48,-92,-78,-68,-63
43,-112,-156,34,100,-134,19,-39,-87,-73,-58,-63
53,-102,-156,24,104,-129,14,-29,-82,-73,-53,-63
58,-92,-151,17,104,-122,4,-14,-78,-58,-43,-48
63,-87,-151,12,107,-119,4,-4,-68,-53,-39,-43
63,-82,-146,9,104,-114,4,4,-58,-48,-39,-39
58,-82,-141,12,100,-112,0,14,-48,-39,-43,-39
58,-73,-131,7,95,-102,-4,24,-34,-34,-24,-34
48,-73,-122,12,85,-97,-4,29,-14,-24,-9,-24
43,-68,-112,12,78,-90,-4,39,-9,-14,-4,-29
39,-58,-97,9,68,-78,-4,43,-4,-9,0,-24
29,-53,-82,12,56,-68,4,53,4,-4,9,-24
24,-48,-73,12,48,-61,9,63,9,-4,9,-24
19,-43,-63,12,41,-53,9,68,19,4,19,-19
9,-34,-43,12,26,-39,9,73,24,4,24,-19
9,-34,-43,12,26,-39,9,73,24,14,34,-9
4,-29,-34,12,19,-31,9,73,19,14,34,-4
4,-34,-39,14,21,-36,9,73,19,19,39,-9
0,-39,-39,19,19,-39,9,73,19,19,39,-9
-9,-34,-24,21,7,-29,9,73,24,14,53,-9
-14,-34,-19,24,2,-26,9,78,24,14,63,-9
-14,-24,-9,19,-2,-17,9,78,29,19,63,-9
-14,-19,-4,17,-4,-12,14,78,39,29,68,-4
-14,-19,-4,17,-4,-12,14,82,39,29,73,-4
-14,-24,-9,19,-2,-17,14,82,39,29,78,-4
-14,-19,-4,17,-4,-12,14,82,39,29,78,0
-14,-9,4,12,-9,-2,14,82,39,34,82,0
-19,-9,9,14,-14,0,14,78,43,39,82,0
-19,-9,9,14,-14,0,19,78,43,43,82,0
-24,-14,9,19,-17,-2,19,78,43,43,78,-4
-29,-14,14,21,-21,0,19,73,43,39,78,-4
-29,-14,14,21,-21,0,24,73,48,39,78,-9
-29,-14,14,21,-21,0,24,73,53,43,78,-14
-34,-14,19,24,-26,2,24,73,53,43,78,-14
-34,-14,19,24,-26,2,24,73,53,43,78,-14
-34,-19,14,26,-24,-2,24,73,53,39,78,-14
-34,-24,9,29,-21,-7,24,68,53,39,73,-14
-34,-24,9,29,-21,-7,29,63,48,39,68,-14
-34,-24,9,29,-21,-7,29,53,48,39,68,-14
-34,-24,9,29,-21,-7,34,53,48,39,58,-14
-43,-29,14,36,-29,-7,39,53,48,39,53,-14
-43,-29,14,36,-29,-7,39,53,48,39,53,-14
-43,-29,14,36,-29,-7,43,48,48,39,48,-14
-43,-29,14,36,-29,-7,43,53,48,39,43,-14
-43,-34,9,39,-26,-12,43,58,48,34,39,-14
-43,-34,9,39,-26,-12,48,48,48,34,34,-9
-48,-34,14,41,-31,-9,48,43,48,34,29,-9
-53,-34,19,43,-36,-7,48,43,48,24,24,-14
-53,-34,19,43,-36,-7,48,43,48,19,24,-14
-53,-34,19,43,-36,-7,48,43,48,19,24,-14
-58,-34,24,46,-41,-4,53,43,48,19,19,-14
-58,-29,29,43,-43,0,53,39,43,19,9,-14
-58,-29,29,43,-43,0,53,34,39,19,4,-14
-58,-29,29,43,-43,0,53,34,39,19,4,-14
-58,-29,29,43,-43,0,58,34,39,19,4,-9
-58,-34,24,46,-41,-4,58,29,39,14,0,-14
-58,-39,19,48,-39,-9,58,29,39,9,-9,-19
-63,-39,24,51,-43,-7,58,29,39,9,-14,-19
-68,-39,29,53,-48,-4,58,29,39,9,-19,-19
-68,-39,29,53,-48,-4,53,29,39,9,-19,-19
-63,-29,34,46,-48,2,48,34,43,14,-14,-14
-58,-19,39,39,-48,9,48,43,53,19,-14,-9
-43,-9,34,26,-39,12,43,58,68,34,0,0
-34,9,43,12,-39,26,29,73,82,48,9,9
-19,34,53,-7,-36,43,14,97,102,63,19,19
-9,53,63,-21,-36,58,14,117,112,73,29,29
4,58,53,-31,-24,56,9,131,122,82,29,39
14,73,58,-43,-21,65,0,146,136,87,43,48
24,73,48,-48,-12,61,0,156,141,92,48,48
43,82,39,-63,2,61,-14,170,151,102,53,58
68,82,14,-75,26,48,-24,190,165,117,63,68
82,87,4,-85,39,46,-24,204,175,122,73,78
87,87,0,-87,43,43,-29,209,175,122,78,82
73,63,-9,-68,41,26,-34,165,136,92,58,63
53,29,-24,-41,39,2,-34,102,92,53,29,39
34,4,-29,-19,31,-12,-29,53,53,14,4,14
24,-4,-29,-9,26,-17,-19,39,34,0,-9,4
24,-14,-39,-4,31,-26,-9,34,29,-9,-24,-9
24,-24,-48,0,36,-36,-9,19,14,-24,-39,-14
29,-24,-53,-2,41,-39,-9,9,9,-24,-39,-14
24,-24,-48,0,36,-36,-4,4,4,-24,-39,-19
19,-24,-43,2,31,-34,0,14,9,-19,-39,-19
-9,-24,-14,17,2,-19,14,24,14,-19,-34,-14
-53,-34,19,43,-36,-7,34,29,19,-14,-34,-14
-68,-39,29,53,-48,-4,39,29,14,-14,-34,-24
-73,-48,24,61,-48,-12,48,24,4,-19,-43,-34
-78,-53,24,65,-51,-14,53,19,0,-24,-48,-34
-82,-53,29,68,-56,-12,63,9,-4,-24,-53,-34
-82,-48,34,65,-58,-7,68,0,-9,-24,-53,-29
-82,-48,34,65,-58,-7,63,0,-9,-24,-53,-29
-82,-53,29,68,-56,-12,63,0,-9,-19,-53,-29
-82,-53,29,68,-56,-12,63,-4,-9,-24,-58,-29
-87,-53,34,70,-61,-9,63,-9,-9,-29,-63,-29
-87,-53,34,70,-61,-9,63,-9,-9,-29,-58,-34
-87,-53,34,70,-61,-9,58,-14,-9,-34,-58,-34
-87,-53,34,70,-61,-9,58,-14,-9,-34,-63,-34
-92,-53,39,73,-65,-7,58,-14,-19,-34,-68,-39
-107,-63,43,85,-75,-9,68,-24,-29,-48,-73,-48
-126,-78,48,102,-87,-14,92,-19,-34,-53,-82,-63
-161,-97,63,129,-112,-17,136,29,-4,-48,-92,-68
-190,-102,87,146,-139,-7,170,117,48,-19,-78,-73
-263,-112,151,187,-207,19,214,209,107,14,-58,-73
-180,-92,87,136,-134,-2,204,351,204,92,-4,-34
63,-29,-92,-17,78,-61,117,541,317,170,73,43
395,102,-292,-248,344,-95,-58,678,434,273,175,151
927,234,-692,-580,810,-229,-322,702,488,331,268,268
1298,361,-936,-829,1117,-287,-531,663,507,380,346,366
1517,453,-1063,-985,1290,-305,-712,419,400,341,366,424
1429,527,-902,-978,1166,-187,-800,63,200,258,346,439
1019,434,-585,-727,802,-75,-668,-546,-219,-48,117,268
556,322,-234,-439,395,43,-522,-1112,-619,-336,-112,73
253,253,0,-253,126,126,-448,-1298,-751,-429,-195,-14
131,161,29,-146,51,95,-375,-1288,-790,-478,-253,-78
68,136,68,-102,0,102,-317,-1098,-692,-439,-239,-92
48,131,82,-90,-17,107,-287,-868,-546,-361,-204,-78
34,112,78,-73,-21,95,-219,-580,-336,-214,-117,-39
-4,82,87,-39,-46,85,-141,-375,-200,-117,-43,-4
-34,39,73,-2,-53,56,-78,-253,-141,-87,-34,-4
-63,4,68,29,-65,36,-29,-156,-82,-68,-29,-9
-102,-4,97,53,-100,46,9,-87,-24,-34,-9,-9
-117,-14,102,65,-109,43,29,-53,0,-9,4,-4
-117,-14,102,65,-109,43,39,-48,4,-9,4,-4
-122,-14,107,68,-114,46,43,-39,4,-9,4,-9
-141,-19,122,80,-131,51,58,-9,19,4,14,-9
-151,-24,126,87,-139,51,68,4,34,14,24,-9
-151,-29,122,90,-136,46,73,9,34,19,24,-9
-151,-29,122,90,-136,46,73,14,39,19,24,-9
-151,-24,126,87,-139,51,73,29,39,24,34,-9
-151,-24,126,87,-139,51,73,34,48,24,43,-9
-151,-24,126,87,-139,51,73,39,48,24,39,-9
-146,-24,122,85,-134,48,73,39,48,24,39,-9
-146,-24,122,85,-134,48,73,34,53,24,43,-9
-146,-24,122,85,-134,48,73,34,58,29,48,0
-146,-24,122,85,-134,48,73,39,58,34,48,4
-146,-24,122,85,-134,48,73,43,63,39,53,4
-146,-24,122,85,-134,48,73,43,63,39,58,4
-146,-24,122,85,-134,48,73,43,63,39,63,9
-146,-19,126,82,-136,53,73,43,58,34,58,9
-141,-14,126,78,-134,56,73,43,58,34,58,4
-141,-14,126,78,-134,56,73,43,58,29,58,4
-141,-14,126,78,-134,56,68,39,58,29,53,4
-141,-14,126,78,-134,56,68,39,58,29,48,4
-141,-14,126,78,-134,56,68,39,58,29,43,4
-136,-14,122,75,-129,53,63,39,58,34,34,4
-136,-14,122,75,-129,53,63,39,58,39,34,4
-136,-14,122,75,-129,53,63,39,58,39,34,4
-131,-14,117,73,-124,51,63,43,58,39,34,4
-126,-14,112,70,-119,48,63,43,58,39,29,4
-126,-14,112,70,-119,48,58,43,58,39,19,4
-122,-14,107,68,-114,46,58,43,58,39,14,9
-122,-14,107,68,-114,46,58,43,58,34,14,9
-117,-14,102,65,-109,43,58,43,58,29,14,9
-112,-19,92,65,-102,36,58,43,58,24,14,9
-107,-19,87,63,-97,34,58,39,53,24,9,9
-102,-19,82,61,-92,31,58,29,43,19,4,4
-97,-29,68,63,-82,19,58,24,34,9,0,0
-92,-29,63,61,-78,17,63,14,29,4,-9,-9
-82,-39,43,61,-63,2,63,4,19,-4,-19,-14
-78,-43,34,61,-56,-4,68,0,9,-9,-19,-14
-68,-48,19,58,-43,-14,68,-9,0,-19,-24,-19
-63,-63,0,63,-31,-31,68,-14,-14,-29,-34,-24
-63,-68,-4,65,-29,-36,68,-29,-24,-39,-39,-29
-58,-73,-14,65,-21,-43,63,-39,-34,-48,-43,-39
-48,-78,-29,63,-9,-53,63,-43,-43,-58,-53,-39
-43,-78,-34,61,-4,-56,63,-58,-58,-63,-53,-43
-34,-78,-43,56,4,-61,63,-63,-73,-73,-58,-58
-19,-82,-63,51,21,-73,63,-73,-87,-78,-68,-63
-14,-92,-78,53,31,-85,63,-78,-92,-82,-63,-63
-4,-97,-92,51,43,-95,53,-78,-97,-87,-63,-68
0,-92,-92,46,46,-92,53,-82,-102,-92,-63,-68
9,-92,-102,41,56,-97,43,-82,-102,-92,-63,-63
19,-87,-107,34,63,-97,39,-78,-102,-87,-58,-63
24,-87,-112,31,68,-100,34,-73,-97,-82,-53,-63
34,-82,-117,24,75,-100,34,-73,-92,-82,-53,-63
34,-73,-107,19,70,-90,24,-63,-87,-68,-43,-48
34,-68,-102,17,68,-85,24,-53,-78,-63,-43,-39
34,-58,-92,12,63,-75,24,-43,-68,-58,-39,-29
29,-53,-82,12,56,-68,19,-34,-58,-48,-39,-29
29,-43,-73,7,51,-58,19,-24,-48,-43,-34,-24
19,-43,-63,12,41,-53,19,-19,-34,-34,-29,-14
14,-39,-53,12,34,-46,14,-9,-29,-24,-24,-14
9,-29,-39,9,24,-34,14,-9,-24,-19,-19,-4
0,-24,-24,12,12,-24,19,-4,-14,-14,-9,-4
-4,-19,-14,12,4,-17,19,4,-9,-14,-9,-9
-9,-19,-9,14,0,-14,19,9,0,-4,-4,-9
-19,-14,4,17,-12,-4,19,14,4,-4,-9,-9
-19,-14,4,17,-12,-4,19,14,9,4,-4,-4
-24,-9,14,17,-19,2,19,19,14,4,-4,0
-24,-9,14,17,-19,2,19,24,19,9,0,0
-29,-9,19,19,-24,4,19,24,19,9,4,0
-34,-4,29,19,-31,12,19,24,24,4,14,0
-34,-4,29,19,-31,12,19,24,19,4,14,0
-34,0,34,17,-34,17,19,19,14,4,14,0
-34,0,34,17,-34,17,19,19,19,9,24,4
-34,0,34,17,-34,17,14,24,19,9,29,4
-34,-4,29,19,-31,12,14,29,14,4,29,0
-34,-4,29,19,-31,12,14,34,9,0,29,0
-34,0,34,17,-34,17,14,34,9,4,34,0
-39,0,39,19,-39,19,14,34,14,4,34,0
-39,0,39,19,-39,19,19,39,14,4,43,0
-39,-4,34,21,-36,14,19,39,14,4,48,-4
-39,-4,34,21,-36,14,19,34,9,0,48,-4
-39,-4,34,21,-36,14,19,34,4,0,48,-4
-34,-4,29,19,-31,12,14,34,4,4,53,-4
-34,-4,29,19,-31,12,14,34,4,4,58,-4
-34,-4,29,19,-31,12,14,34,4,4,58,-4
-34,-4,29,19,-31,12,14,34,4,0,58,-4
-34,-4,29,19,-31,12,9,29,4,0,53,-4
-34,-4,29,19,-31,12,9,29,0,0,48,-4
-34,-4,29,19,-31,12,9,24,0,0,48,-4
-34,-4,29,19,-31,12,9,24,0,0,43,-4
-43,-9,34,26,-39,12,14,24,0,0,43,-9
-43,-9,34,26,-39,12,19,24,0,0,43,-14
-39,-9,29,24,-34,9,24,19,0,0,39,-14
-34,-9,24,21,-29,7,24,19,0,0,39,-14
-34,-14,19,24,-26,2,19,19,0,0,39,-14
-34,-14,19,24,-26,2,19,9,0,4,34,-14
-43,-14,29,29,-36,7,19,4,0,4,29,-14
-53,-14,39,34,-46,12,19,4,0,0,29,-14
-53,-19,34,36,-43,7,19,4,4,0,34,-14
-53,-24,29,39,-41,2,19,4,9,0,34,-14
-58,-24,34,41,-46,4,24,0,9,0,24,-19
-58,-24,34,41,-46,4,24,-4,4,0,14,-24
-58,-24,34,41,-46,4,24,-4,0,0,14,-24
-58,-19,39,39,-48,9,24,-4,0,0,14,-24
-58,-19,39,39,-48,9,29,-4,4,0,14,-24
-63,-19,43,41,-53,12,34,-9,9,0,9,-19
-58,-19,39,39,-48,9,29,-4,9,0,9,-19
-58,-19,39,39,-48,9,29,0,9,0,9,-19
-63,-19,43,41,-53,12,29,0,9,0,9,-19
-68,-19,48,43,-58,14,29,0,9,0,9,-19
-68,-19,48,43,-58,14,29,-4,9,-4,9,-19
-63,-9,53,36,-58,21,29,0,9,0,9,-14
-58,0,58,29,-58,29,29,4,14,0,9,-9
-43,9,53,17,-48,31,24,19,19,14,19,0
-29,29,58,0,-43,43,14,34,34,29,29,9
-9,53,63,-21,-36,58,4,58,53,43,39,19
0,68,68,-34,-34,68,4,78,68,53,53,29
14,68,53,-41,-19,61,0,92,82,63,58,39
19,82,63,-51,-21,73,-4,107,97,68,68,53
24,82,58,-53,-17,70,0,117,102,73,68,58
43,97,53,-70,-4,75,-14,136,112,87,73,68
68,102,34,-85,17,68,-24,161,126,107,82,78
82,102,19,-92,31,61,-29,161,126,107,82,78
87,97,9,-92,39,53,-39,151,117,102,78,73
73,73,0,-73,36,36,-39,107,78,73,58,53
53,39,-14,-46,34,12,-34,43,34,34,29,29
39,9,-29,-24,34,-9,-29,0,0,0,4,9
34,-4,-39,-14,36,-21,-19,-9,-14,-9,-9,4
34,-9,-43,-12,39,-26,-9,-14,-19,-14,-14,-4
34,-14,-48,-9,41,-31,-9,-29,-34,-24,-19,-4
34,-14,-48,-9,41,-31,-9,-34,-29,-24,-19,-4
24,-14,-39,-4,31,-26,-4,-34,-24,-24,-19,-9
9,-14,-24,2,17,-19,0,-24,-19,-19,-19,-9
-29,-14,14,21,-21,0,14,-14,-14,-19,-14,-4
-68,-24,43,46,-56,9,34,-4,-9,-14,-14,-4
-78,-29,48,53,-63,9,39,0,-14,-14,-14,-14
-82,-39,43,61,-63,2,48,-4,-19,-19,-24,-29
-87,-43,43,65,-65,0,53,-9,-19,-24,-29,-34
-92,-43,48,68,-70,2,63,-9,-19,-24,-29,-34
-92,-39,53,65,-73,7,68,-9,-19,-24,-24,-29
-92,-39,53,65,-73,7,63,-14,-19,-24,-24,-24
-92,-43,48,68,-70,2,63,-19,-19,-19,-24,-19
-92,-43,48,68,-70,2,63,-19,-19,-19,-24,-19
-97,-43,53,70,-75,4,63,-19,-19,-19,-24,-19
-92,-43,48,68,-70,2,68,-14,-19,-19,-19,-24
-87,-43,43,65,-65,0,68,-14,-19,-24,-19,-24
-87,-43,43,65,-65,0,68,-14,-19,-24,-19,-24
-92,-43,48,68,-70,2,68,-14,-29,-24,-19,-29
-107,-53,53,80,-80,0,78,-24,-29,-39,-24,-34
-126,-68,58,97,-92,-4,102,-19,-24,-43,-34,-43
-165,-82,82,124,-124,0,146,48,9,-29,-39,-48
-200,-82,117,141,-158,17,180,156,68,9,-19,-53
-239,-87,151,163,-195,31,209,239,126,34,0,-48
-122,-63,58,92,-90,-2,185,370,224,102,53,-4
151,0,-151,-75,151,-75,82,531,302,170,122,73
512,131,-380,-322,446,-124,-107,639,385,263,214,180
1024,253,-771,-639,897,-258,-370,614,405,292,278,268
1376,370,-1005,-873,1190,-317,-580,527,390,312,326,336
1551,444,-1107,-997,1329,-331,-732,248,258,258,331,375
1420,497,-922,-958,1171,-212,-790,-141,34,161,297,370
976,409,-566,-692,771,-78,-658,-702,-341,-131,78,200
478,302,-175,-390,326,63,-512,-1220,-697,-405,-141,4
229,244,14,-236,107,129,-448,-1342,-795,-458,-204,-53
161,161,0,-161,80,80,-385,-1268,-800,-468,-244,-87
87,136,48,-112,19,92,-326,-1058,-688,-419,-219,-87
58,131,73,-95,-7,102,-297,-810,-527,-331,-175,-58
43,112,68,-78,-12,90,-229,-541,-326,-195,-102,-29
4,82,78,-43,-36,80,-151,-356,-200,-107,-43,-4
-29,48,78,-9,-53,63,-78,-234,-141,-73,-34,-4
-63,24,87,19,-75,56,-19,-136,-82,-48,-29,-9
-107,9,117,48,-112,63,9,-78,-29,-19,-9,-9
-126,-4,122,65,-124,58,19,-53,-9,0,4,-4
-126,-4,122,65,-124,58,29,-48,-4,0,4,-4
-131,-4,126,68,-129,61,34,-39,-4,0,4,-9
-146,-9,136,78,-141,63,48,-14,4,9,9,-4
-151,-14,136,82,-143,61,58,-4,14,14,14,0
-151,-24,126,87,-139,51,63,4,14,19,14,0
-151,-29,122,90,-136,46,63,14,19,19,14,0
-156,-24,131,90,-143,53,63,29,19,24,14,0
-161,-24,136,92,-148,56,63,34,29,24,14,0
-161,-24,136,92,-148,56,63,34,34,24,9,0
-156,-24,131,90,-143,53,63,29,39,24,9,0
-156,-19,136,87,-146,58,63,24,39,24,9,0
-156,-14,141,85,-148,63,63,24,39,29,9,9
-156,-14,141,85,-148,63,63,24,34,24,9,9
-156,-14,141,85,-148,63,63,24,34,19,14,4
-151,-14,136,82,-143,61,63,24,34,19,14,4
-146,-14,131,80,-139,58,63,24,34,19,14,9
-146,-14,131,80,-139,58,63,24,29,19,9,9
-141,-14,126,78,-134,56,63,24,29,24,9,4
-141,-14,126,78,-134,56,63,29,29,24,9,0
-141,-14,126,78,-134,56,58,29,29,29,4,-4
-141,-14,126,78,-134,56,58,34,29,29,4,-4
-141,-14,126,78,-134,56,58,39,29,29,4,-4
-136,-14,122,75,-129,53,53,43,29,29,-4,0
-136,-14,122,75,-129,53,53,48,29,29,-4,4
-136,-14,122,75,-129,53,53,43,34,29,-4,4
-131,-14,117,73,-124,51,53,43,39,29,-4,4
-126,-14,112,70,-119,48,53,39,39,29,0,4
-126,-14,112,70,-119,48,48,34,39,29,0,4
-122,-14,107,68,-114,46,48,34,39,29,-4,9
-122,-14,107,68,-114,46,48,34,39,24,-4,9
-117,-14,102,65,-109,43,48,34,39,24,-9,4
-112,-19,92,65,-102,36,48,34,39,24,-14,0
-107,-19,87,63,-97,34,48,34,34,24,-19,0
-102,-19,82,61,-92,31,48,29,24,19,-24,-4
-97,-29,68,63,-82,19,43,24,14,4,-24,-9
-92,-29,63,61,-78,17,43,14,9,-4,-29,-19
-87,-39,48,63,-68,4,43,0,0,-14,-39,-19
-87,-43,43,65,-65,0,48,-9,-9,-19,-39,-14
-78,-48,29,63,-53,-9,48,-24,-19,-29,-43,-24
-73,-63,9,68,-41,-26,48,-34,-34,-39,-53,-34
-63,-68,-4,65,-29,-36,48,-48,-43,-48,-58,-39
-48,-73,-24,61,-12,-48,43,-58,-53,-58,-63,-48
-39,-78,-39,58,0,-58,43,-63,-63,-68,-73,-48
-34,-78,-43,56,4,-61,43,-78,-78,-73,-73,-53
-29,-78,-48,53,9,-63,43,-82,-87,-82,-82,-63
-19,-82,-63,51,21,-73,43,-92,-97,-87,-97,-63
-14,-87,-73,51,29,-80,43,-97,-102,-92,-97,-63
-4,-87,-82,46,39,-85,34,-97,-107,-97,-102,-68
4,-82,-87,39,46,-85,39,-102,-112,-102,-102,-68
19,-82,-102,31,61,-92,34,-102,-112,-102,-102,-63
29,-78,-107,24,68,-92,29,-97,-112,-97,-97,-63
34,-78,-112,21,73,-95,24,-92,-107,-92,-92,-63
43,-68,-112,12,78,-90,19,-92,-102,-97,-97,-68
43,-53,-97,4,70,-75,4,-82,-97,-87,-92,-58
48,-48,-97,0,73,-73,4,-78,-87,-82,-92,-53
53,-39,-92,-7,73,-65,4,-73,-78,-78,-87,-48
48,-34,-82,-7,65,-58,0,-63,-68,-68,-82,-48
48,-24,-73,-12,61,-48,0,-53,-58,-63,-73,-43
39,-24,-63,-7,51,-43,0,-43,-43,-53,-68,-34
34,-19,-53,-7,43,-36,-4,-29,-39,-43,-63,-34
29,-9,-39,-9,34,-24,-4,-24,-34,-39,-58,-19
19,-4,-24,-7,21,-14,0,-14,-24,-34,-48,-14
14,0,-14,-7,14,-7,4,-4,-19,-34,-48,-14
9,0,-9,-4,9,-4,9,0,-9,-24,-43,-9
-4,4,9,0,-7,7,9,4,0,-19,-43,-9
-9,4,14,2,-12,9,9,4,9,-4,-34,-4
-14,9,24,2,-19,17,9,4,9,-4,-34,-4
-14,9,24,2,-19,17,9,4,9,0,-29,-9
-19,4,24,7,-21,14,9,4,9,0,-29,-4
-24,4,29,9,-26,17,9,4,14,-4,-24,0
-24,4,29,9,-26,17,9,14,14,-4,-24,0
-24,9,34,7,-29,21,9,19,14,-4,-24,0
-24,9,34,7,-29,21,14,19,19,0,-24,4
-24,9,34,7,-29,21,14,24,19,0,-29,4
-24,4,29,9,-26,17,14,24,19,-4,-29,0
-24,4,29,9,-26,17,14,24,19,-9,-29,0
-24,9,34,7,-29,21,14,19,19,-4,-24,0
-29,9,39,9,-34,24,14,14,24,-4,-24,0
-29,9,39,9,-34,24,19,19,24,-4,-24,0
-29,4,34,12,-31,19,19,19,24,-4,-29,-4
-29,4,34,12,-31,19,19,19,24,-9,-34,-4
-29,4,34,12,-31,19,19,24,24,-9,-39,-4
-29,4,34,12,-31,19,19,24,19,-4,-39,-4
-34,4,39,14,-36,21,24,24,14,-4,-39,-4
-34,4,39,14,-36,21,24,24,14,0,-39,-4
-34,4,39,14,-36,21,24,24,14,0,-39,-4
-34,4,39,14,-36,21,24,24,14,0,-39,-4
-34,4,39,14,-36,21,29,29,9,0,-39,-4
-34,4,39,14,-36,21,24,24,9,0,-39,-4
-34,4,39,14,-36,21,19,24,9,0,-43,-4
-43,-4,39,24,-41,17,19,24,9,-4,-39,-9
-43,-9,34,26,-39,12,19,24,9,-9,-34,-14
-43,-9,34,26,-39,12,24,19,9,-9,-39,-14
-43,-9,34,26,-39,12,24,19,9,-9,-39,-14
-43,-14,29,29,-36,7,24,24,9,-14,-39,-14
-43,-14,29,29,-36,7,29,19,9,-14,-43,-14
-53,-14,39,34,-46,12,29,14,4,-14,-48,-14
-63,-14,48,39,-56,17,29,14,0,-19,-48,-14
-63,-14,48,39,-56,17,29,14,0,-19,-39,-14
-63,-14,48,39,-56,17,29,14,0,-19,-34,-14
-63,-14,48,39,-56,17,34,14,0,-19,-39,-14
-58,-14,43,36,-51,14,34,14,-4,-19,-43,-14
-58,-14,43,36,-51,14,29,14,-9,-19,-43,-19
-58,-9,48,34,-53,19,24,14,-9,-19,-43,-24
-58,-9,48,34,-53,19,29,14,-9,-19,-43,-24
-63,-9,53,36,-58,21,34,9,-9,-19,-48,-19
-63,-9,53,36,-58,21,29,4,-14,-24,-48,-19
-68,-9,58,39,-63,24,29,0,-19,-29,-48,-19
-68,-9,58,39,-63,24,29,0,-19,-29,-48,-19
-68,-9,58,39,-63,24,29,0,-19,-29,-48,-19
-68,-9,58,39,-63,24,24,0,-14,-24,-48,-19
-58,0,58,29,-58,29,19,4,-4,-14,-43,-14
-53,9,63,21,-58,36,19,14,0,-9,-39,-9
-34,19,53,7,-43,36,14,29,9,4,-19,0
-24,39,63,-7,-43,51,4,43,24,19,-9,14
-9,63,73,-26,-41,68,-4,68,43,34,0,29
0,78,78,-39,-39,78,-4,87,58,43,14,39
14,78,63,-46,-24,70,-9,102,73,53,19,48
24,92,68,-58,-21,80,-19,112,87,63,34,58
34,92,58,-63,-12,75,-19,117,92,73,39,58
53,107,53,-80,0,80,-34,131,102,82,48,68
78,112,34,-95,21,73,-43,151,117,97,63,78
87,112,24,-100,31,68,-48,156,122,97,68,82
87,107,19,-97,34,63,-58,151,117,92,68,82
73,82,9,-78,31,46,-58,107,78,63,48,63
53,48,-4,-51,29,21,-53,43,34,24,19,39
39,19,-19,-29,29,0,-48,0,4,-9,0,9
34,4,-29,-19,31,-12,-39,-9,-4,-19,-9,-4
34,0,-34,-17,34,-17,-29,-14,-9,-24,-14,-14
34,-4,-39,-14,36,-21,-29,-29,-24,-34,-19,-14
34,-4,-39,-14,36,-21,-24,-39,-24,-34,-19,-14
24,-4,-29,-9,26,-17,-14,-43,-24,-34,-19,-19
9,-4,-14,-2,12,-9,-9,-34,-19,-24,-19,-19
-29,-4,24,17,-26,9,4,-24,-14,-19,-14,-14
-63,-14,48,39,-56,17,24,-14,-4,-14,-14,-9
-68,-19,48,43,-58,14,29,-9,-4,-14,-14,-14
-73,-29,43,51,-58,7,39,-14,-9,-19,-24,-24
-78,-34,43,56,-61,4,43,-19,-9,-24,-29,-24
-87,-34,53,61,-70,9,53,-19,-14,-29,-34,-29
-92,-29,63,61,-78,17,58,-19,-19,-34,-34,-29
-92,-29,63,61,-78,17,53,-19,-19,-34,-34,-29
-92,-34,58,63,-75,12,53,-19,-19,-29,-34,-29
-92,-34,58,63,-75,12,53,-19,-19,-29,-34,-24
-97,-34,63,65,-80,14,53,-19,-19,-29,-34,-19
-97,-34,63,65,-80,14,58,-19,-19,-29,-34,-24
-97,-34,63,65,-80,14,58,-24,-19,-34,-39,-24
-97,-34,63,65,-80,14,53,-24,-19,-34,-39,-24
-102,-34,68,68,-85,17,48,-24,-29,-34,-39,-29
-117,-43,73,80,-95,14,63,-34,-29,-43,-43,-34
-136,-58,78,97,-107,9,92,-29,-24,-43,-53,-43
-170,-78,92,124,-131,7,136,29,9,-29,-53,-48
-200,-82,117,141,-158,17,170,126,68,9,-29,-53
-234,-82,151,158,-192,34,195,209,112,34,-19,-53
-112,-53,58,82,-85,2,165,341,195,102,24,-14
170,4,-165,-87,168,-80,63,488,283,161,87,58
541,131,-409,-336,475,-139,-126,580,375,244,175,161
1058,253,-805,-656,932,-275,-390,556,380,268,229,239
1415,370,-1044,-893,1229,-336,-600,468,351,283,268,297
1581,448,-1132,-1015,1356,-341,-756,195,224,219,273,341
1439,507,-932,-973,1185,-212,-819,-190,4,112,239,341
1000,414,-585,-707,793,-85,-688,-727,-361,-161,29,185
507,302,-204,-405,356,48,-541,-1220,-707,-414,-180,4
258,239,-19,-248,139,109,-473,-1332,-795,-463,-229,-48
190,151,-39,-170,114,56,-405,-1249,-790,-468,-253,-78
112,131,19,-122,46,75,-346,-1039,-683,-419,-234,-78
78,131,53,-104,12,92,-317,-790,-527,-331,-195,-48
58,112,53,-85,2,82,-248,-522,-326,-195,-112,-19
14,82,68,-48,-26,75,-170,-336,-200,-107,-43,4
-19,48,68,-14,-43,58,-102,-214,-146,-78,-34,4
-53,24,78,14,-65,51,-48,-117,-92,-58,-29,0
-102,9,112,46,-107,61,-9,-58,-43,-19,-9,0
-126,-4,122,65,-124,58,9,-34,-29,9,4,4
-126,-9,117,68,-122,53,19,-24,-19,14,4,9
-131,-14,117,73,-124,51,24,-9,-14,19,4,9
-146,-19,126,82,-136,53,34,19,0,24,9,9
-151,-24,126,87,-139,51,39,34,14,24,14,9
-151,-29,122,90,-136,46,43,39,14,29,14,4
-151,-29,122,90,-136,46,43,43,19,29,14,0
-151,-24,126,87,-139,51,43,63,19,34,19,0
-151,-24,126,87,-139,51,43,73,29,34,24,0
-156,-29,126,92,-141,48,43,78,29,34,19,0
-156,-34,122,95,-139,43,43,78,29,34,19,0
-156,-34,122,95,-139,43,39,73,29,34,14,-4
-156,-34,122,95,-139,43,34,73,29,39,9,0
-156,-29,126,92,-141,48,34,73,29,39,4,0
-156,-24,131,90,-143,53,34,73,34,39,4,-4
-151,-24,126,87,-139,51,34,73,34,39,4,-4
-146,-24,122,85,-134,48,34,73,34,39,4,0
-146,-29,117,87,-131,43,29,63,29,34,0,0
-141,-34,107,87,-124,36,24,53,29,34,0,-4
-141,-34,107,87,-124,36,24,43,29,34,0,-4
-141,-34,107,87,-124,36,19,29,29,39,-4,-4
-141,-34,107,87,-124,36,24,24,29,39,-4,-4
-141,-34,107,87,-124,36,29,19,29,39,-4,-4
-136,-39,97,87,-117,29,24,19,29,39,-14,-4
-136,-43,92,90,-114,24,24,19,29,39,-14,-4
-141,-43,97,92,-119,26,24,14,34,39,-14,-4
-141,-43,97,92,-119,26,24,14,39,39,-14,-4
-136,-43,92,90,-114,24,24,19,39,39,-4,-4
-136,-43,92,90,-114,24,19,24,39,39,0,-4
-131,-43,87,87,-109,21,19,24,34,39,0,-4
-131,-43,87,87,-109,21,19,24,29,34,4,-9
-126,-43,82,85,-104,19,19,24,29,34,9,-9
-122,-48,73,85,-97,12,19,24,29,34,14,-9
-117,-48,68,82,-92,9,19,29,24,34,19,-9
-112,-48,63,80,-87,7,19,29,14,29,24,-14
-107,-58,48,82,-78,-4,14,34,9,19,24,-19
-102,-58,43,80,-73,-7,14,34,9,14,19,-29
-92,-68,24,80,-58,-21,14,29,0,4,9,-34
-87,-73,14,80,-51,-29,19,29,-9,0,9,-34
-73,-73,0,73,-36,-36,19,19,-24,-9,4,-43
-63,-82,-19,73,-21,-51,19,14,-43,-19,-4,-53
-58,-87,-29,73,-14,-58,19,0,-53,-29,-9,-58
-48,-92,-43,70,-2,-68,14,-9,-63,-39,-14,-68
-39,-102,-63,70,12,-82,14,-14,-68,-48,-24,-68
-34,-107,-73,70,19,-90,14,-29,-78,-53,-24,-73
-29,-107,-78,68,24,-92,14,-34,-87,-63,-29,-82
-19,-112,-92,65,36,-102,14,-43,-97,-68,-39,-82
-14,-117,-102,65,43,-109,19,-48,-102,-73,-39,-82
-4,-117,-112,61,53,-114,14,-48,-107,-78,-43,-87
4,-112,-117,53,61,-114,14,-53,-112,-82,-48,-87
19,-112,-131,46,75,-122,4,-53,-112,-82,-53,-82
29,-102,-131,36,80,-117,0,-48,-112,-78,-48,-82
34,-97,-131,31,82,-114,-4,-43,-107,-73,-43,-82
48,-92,-141,21,95,-117,-4,-39,-102,-78,-48,-82
53,-82,-136,14,95,-109,-14,-24,-97,-68,-43,-68
53,-82,-136,14,95,-109,-14,-4,-87,-63,-43,-58
53,-78,-131,12,92,-104,-14,14,-78,-58,-39,-48
48,-73,-122,12,85,-97,-19,24,-63,-48,-34,-48
48,-63,-112,7,80,-87,-19,34,-48,-43,-24,-43
34,-63,-97,14,65,-80,-14,34,-34,-34,-24,-34
24,-58,-82,17,53,-70,-14,39,-29,-24,-24,-34
19,-48,-68,14,43,-58,-14,43,-19,-14,-19,-24
9,-43,-53,17,31,-48,-9,53,-4,-4,-9,-24
9,-39,-48,14,29,-43,-4,58,0,-4,-9,-24
9,-39,-48,14,29,-43,0,58,9,4,-4,-19
0,-34,-34,17,17,-34,0,63,14,0,-9,-14
0,-34,-34,17,17,-34,0,63,19,4,-4,-4
-4,-29,-24,17,9,-26,0,63,29,4,-4,-4
-4,-29,-24,17,9,-26,0,63,39,9,0,-9
-9,-29,-19,19,4,-24,0,53,39,14,0,-9
-14,-24,-9,19,-2,-17,0,43,43,14,4,-9
-19,-24,-4,21,-7,-14,0,48,43,14,4,-9
-24,-19,4,21,-14,-7,0,48,43,14,4,-9
-29,-19,9,24,-19,-4,4,48,43,19,14,-4
-34,-19,14,26,-24,-2,4,53,39,19,19,-4
-34,-34,0,34,-17,-17,9,53,39,19,19,-4
-34,-43,-9,39,-12,-26,14,53,39,19,19,0
-29,-39,-9,34,-9,-24,14,58,34,24,24,0
-29,-39,-9,34,-9,-24,14,63,34,24,24,0
-29,-39,-9,34,-9,-24,19,68,34,24,24,0
-29,-43,-14,36,-7,-29,19,68,34,24,19,-4
-29,-43,-14,36,-7,-29,19,58,34,19,24,-4
-29,-43,-14,36,-7,-29,19,53,34,19,29,-4
-29,-48,-19,39,-4,-34,19,53,34,24,29,-4
-34,-53,-19,43,-7,-36,24,53,34,24,29,-4
-34,-53,-19,43,-7,-36,24,53,34,24,29,-4
-34,-53,-19,43,-7,-36,24,53,34,19,29,-4
-34,-48,-14,41,-9,-31,24,53,34,19,29,-4
-34,-43,-9,39,-12,-26,29,58,29,19,29,-4
-39,-43,-4,41,-17,-24,29,53,29,24,34,-4
-43,-43,0,43,-21,-21,29,53,29,29,34,-4
-53,-48,4,51,-29,-21,29,53,24,29,34,-4
-53,-48,4,51,-29,-21,29,53,19,29,34,-4
-53,-48,4,51,-29,-21,34,48,19,29,29,-4
-53,-48,4,51,-29,-21,34,48,19,29,29,-4
-53,-53,0,53,-26,-26,34,58,19,29,34,-4
-53,-53,0,53,-26,-26,39,58,19,34,34,-4
-53,-53,0,53,-26,-26,39,53,14,34,29,-14
-53,-53,0,53,-26,-26,39,53,9,29,29,-24
-53,-53,0,53,-26,-26,34,53,9,24,29,-24
-53,-53,0,53,-26,-26,29,53,9,19,24,-24
-63,-53,9,58,-36,-21,34,53,14,19,19,-24
-68,-53,14,61,-41,-19,34,53,14,19,14,-24
-68,-58,9,63,-39,-24,34,53,9,19,14,-24
-68,-58,9,63,-39,-24,34,53,9,19,14,-24
-63,-53,9,58,-36,-21,39,48,9,14,14,-19
-58,-53,4,56,-31,-24,43,43,9,9,14,-19
-58,-53,4,56,-31,-24,39,43,9,9,9,-19
-58,-58,0,58,-29,-29,39,48,9,9,9,-19
-58,-58,0,58,-29,-29,39,48,9,9,9,-19
-58,-58,0,58,-29,-29,39,48,9,9,9,-19
-53,-48,4,51,-29,-21,39,48,14,9,9,-14
-43,-39,4,41,-24,-17,34,58,19,14,19,-4
-34,-29,4,31,-19,-12,34,68,29,24,29,0
-24,-9,14,17,-19,2,24,82,43,39,39,9
-9,14,24,-2,-17,19,14,107,63,53,48,19
0,29,29,-14,-14,29,14,126,78,63,63,29
4,29,24,-17,-9,26,14,141,87,78,68,39
4,43,39,-24,-17,41,9,156,97,87,82,48
14,34,19,-24,-2,26,9,165,102,92,92,48
34,34,0,-34,17,17,-4,180,112,102,102,58
63,48,-14,-56,39,17,-19,200,136,122,122,73
78,63,-14,-70,46,24,-24,200,146,126,131,78
78,63,-14,-70,46,24,-29,200,136,122,126,73
63,43,-19,-53,41,12,-29,165,97,92,107,53
43,9,-34,-26,39,-12,-24,102,53,53,78,29
29,-14,-43,-7,36,-29,-19,63,24,24,58,9
24,-29,-53,2,39,-41,-9,48,14,19,53,4
24,-39,-63,7,43,-51,0,34,9,14,53,-4
24,-48,-73,12,48,-61,0,19,-9,4,48,-9
24,-53,-78,14,51,-65,0,14,-14,4,48,-14
14,-53,-68,19,41,-61,4,14,-14,0,48,-19
0,-53,-53,26,26,-53,9,24,-9,0,48,-19
-39,-53,-14,46,-12,-34,24,39,-4,0,53,-14
-73,-63,9,68,-41,-26,43,48,4,4,53,-14
-78,-68,9,73,-43,-29,48,48,4,4,53,-24
-82,-78,4,80,-43,-36,58,43,0,0,43,-34
-87,-87,0,87,-43,-43,68,39,0,-9,39,-34
-92,-92,0,92,-46,-46,78,39,0,-14,39,-34
-92,-87,4,90,-48,-41,78,39,0,-14,43,-29
-92,-87,4,90,-48,-41,73,39,0,-14,43,-29
-92,-87,4,90,-48,-41,73,39,0,-4,48,-29
-92,-82,9,87,-51,-36,73,39,0,0,53,-29
-97,-78,19,87,-58,-29,73,34,0,4,53,-29
-97,-73,24,85,-61,-24,78,29,0,9,58,-34
-97,-73,24,85,-61,-24,78,24,4,4,58,-34
-97,-73,24,85,-61,-24,78,24,9,4,58,-34
-97,-73,24,85,-61,-24,73,24,0,4,58,-34
-107,-82,24,95,-65,-29,82,29,0,-4,53,-34
-112,-97,14,104,-63,-41,102,39,-4,-4,43,-43
-131,-112,19,122,-75,-46,136,97,29,14,43,-43
-204,-117,87,161,-146,-14,190,214,107,63,68,-48
-229,-112,117,170,-173,2,209,317,175,102,87,-39
-122,-78,43,100,-82,-17,195,478,283,180,141,14
122,-9,-131,-56,126,-70,107,624,366,239,209,92
531,131,-400,-331,466,-134,-107,761,483,346,302,204
985,244,-741,-614,863,-248,-341,766,512,380,356,287
1390,375,-1015,-883,1202,-319,-556,722,527,419,424,370
1576,453,-1122,-1015,1349,-334,-702,497,429,375,429,409
1400,527,-873,-963,1137,-173,-771,97,214,283,409,424
1058,473,-585,-766,822,-56,-688,-380,-87,63,253,312
488,351,-136,-419,312,107,-507,-985,-502,-239,0,92
161,283,122,-222,19,202,-409,-1220,-668,-351,-102,4
97,170,73,-134,12,122,-331,-1161,-697,-390,-161,-48
9,122,112,-65,-51,117,-258,-1010,-629,-366,-161,-78
9,122,112,-65,-51,117,-258,-761,-473,-278,-107,-48
14,102,87,-58,-36,95,-219,-512,-307,-170,-43,-19
-14,68,82,-26,-48,75,-131,-326,-180,-87,4,4
-39,29,68,4,-53,48,-58,-200,-107,-48,14,4
-73,0,73,36,-73,36,0,-102,-53,-29,9,0
-112,-14,97,63,-104,41,39,-34,-9,0,19,0
-126,-29,97,78,-112,34,48,-14,4,19,29,4
-126,-34,92,80,-109,29,58,-9,14,19,24,4
-131,-34,97,82,-114,31,58,-4,14,19,19,0
-146,-39,107,92,-126,34,63,14,29,24,19,0
-151,-43,107,97,-129,31,68,19,43,24,24,0
-151,-48,102,100,-126,26,73,19,43,29,24,0
-156,-48,107,102,-131,29,78,19,48,29,24,0
-161,-43,117,102,-139,36,82,29,48,34,24,0
-161,-43,117,102,-139,36,82,34,58,34,24,0
-161,-43,117,102,-139,36,82,39,58,34,19,0
-156,-43,112,100,-134,34,82,39,58,29,14,-4
-156,-43,112,100,-134,34,82,34,58,24,9,-9
-156,-39,117,97,-136,39,82,39,58,29,9,0
-156,-34,122,95,-139,43,82,43,58,29,9,0
-156,-34,122,95,-139,43,78,43,63,29,9,-4
-156,-34,122,95,-139,43,73,43,63,29,4,-4
-156,-34,122,95,-139,43,73,43,63,29,4,0
-156,-34,122,95,-139,43,73,43,58,24,0,0
-151,-34,117,92,-134,41,73,43,58,24,0,-4
-151,-34,117,92,-134,41,73,48,58,24,0,-4
-151,-34,117,92,-134,41,68,48,58,29,-4,-4
-151,-34,117,92,-134,41,68,48,58,29,-4,-4
-151,-34,117,92,-134,41,68,48,58,24,-4,-4
-146,-34,112,90,-129,39,63,48,58,19,-14,-4
-146,-34,112,90,-129,39,63,53,53,19,-14,-4
-146,-34,112,90,-129,39,63,53,48,19,-14,-4
-141,-34,107,87,-124,36,63,53,48,19,-19,-4
-136,-34,102,85,-119,34,63,53,48,19,-19,-4
-131,-34,97,82,-114,31,58,48,43,19,-19,-4
-122,-34,87,78,-104,26,58,43,39,19,-24,0
-122,-34,87,78,-104,26,58,43,39,14,-29,0
-117,-34,82,75,-100,24,58,43,39,14,-34,0
-112,-43,68,78,-90,12,58,43,39,14,-34,-4
-107,-48,58,78,-82,4,58,39,34,14,-39,-9
-102,-48,53,75,-78,2,58,24,24,9,-43,-14
-97,-58,39,78,-68,-9,53,14,14,-4,-48,-19
-92,-58,34,75,-63,-12,48,4,4,-14,-58,-29
-82,-68,14,75,-48,-26,43,-4,-9,-24,-68,-34
-78,-68,9,73,-43,-29,48,-9,-19,-34,-68,-34
-68,-68,0,68,-34,-34,48,-24,-29,-48,-73,-43
-63,-82,-19,73,-21,-51,48,-39,-43,-58,-82,-53
-58,-87,-29,73,-14,-58,48,-58,-53,-68,-87,-58
-48,-97,-48,73,0,-73,43,-68,-63,-78,-92,-68
-39,-107,-68,73,14,-87,43,-73,-73,-87,-102,-68
-34,-107,-73,70,19,-90,43,-87,-87,-92,-102,-73
-29,-107,-78,68,24,-92,43,-92,-97,-102,-107,-82
-14,-112,-97,63,41,-104,43,-102,-107,-107,-117,-82
-4,-117,-112,61,53,-114,43,-107,-112,-112,-117,-82
4,-117,-122,56,63,-119,34,-107,-117,-117,-117,-87
14,-112,-126,48,70,-119,34,-112,-122,-122,-112,-87
29,-112,-141,41,85,-126,24,-112,-117,-122,-112,-82
39,-107,-146,34,92,-126,19,-107,-112,-117,-107,-82
39,-107,-146,34,92,-126,14,-102,-107,-112,-102,-82
43,-102,-146,29,95,-124,14,-97,-102,-112,-102,-82
43,-92,-136,24,90,-114,4,-82,-97,-97,-92,-68
43,-87,-131,21,87,-109,4,-73,-87,-92,-87,-63
43,-73,-117,14,80,-95,4,-63,-73,-82,-78,-58
39,-63,-102,12,70,-82,0,-53,-58,-68,-73,-58
39,-53,-92,7,65,-73,-4,-39,-48,-63,-58,-53
29,-53,-82,12,56,-68,-4,-29,-34,-53,-48,-43
24,-48,-73,12,48,-61,-4,-19,-29,-43,-43,-43
19,-39,-58,9,39,-48,-4,-14,-24,-39,-39,-34
9,-34,-43,12,26,-39,0,-9,-14,-29,-29,-34
4,-29,-34,12,19,-31,0,-4,-9,-24,-29,-34
-4,-29,-24,17,9,-26,4,0,0,-14,-24,-29
-19,-24,-4,21,-7,-14,9,4,4,-14,-24,-29
-19,-24,-4,21,-7,-14,9,9,9,-4,-14,-24
-24,-19,4,21,-14,-7,9,14,9,-4,-14,-24
-24,-19,4,21,-14,-7,9,14,9,0,-9,-24
-29,-19,9,24,-19,-4,9,14,9,0,-9,-19
-34,-19,14,26,-24,-2,9,14,14,-4,-4,-19
-34,-24,9,29,-21,-7,9,19,14,-4,-4,-19
-34,-19,14,26,-24,-2,9,19,14,-4,-4,-24
-34,-19,14,26,-24,-2,14,19,19,0,0,-24
-34,-19,14,26,-24,-2,14,24,19,0,0,-24
-34,-24,9,29,-21,-7,14,24,19,0,0,-24
-34,-24,9,29,-21,-7,9,29,19,-4,0,-19
-34,-19,14,26,-24,-2,4,34,19,-4,4,-19
-39,-19,19,29,-29,0,4,34,24,-4,4,-19
-39,-19,19,29,-29,0,9,39,24,-4,4,-19
-39,-24,14,31,-26,-4,9,39,24,-4,0,-24
-39,-24,14,31,-26,-4,9,34,24,-9,0,-24
-34,-24,9,29,-21,-7,14,34,24,-9,0,-24
-29,-24,4,26,-17,-9,14,34,24,-4,0,-24
-34,-24,9,29,-21,-7,14,39,24,-4,-4,-24
-34,-24,9,29,-21,-7,14,43,24,-4,-9,-24
-39,-24,14,31,-26,-4,14,43,24,-9,-9,-24
-43,-24,19,34,-31,-2,14,39,24,-9,-14,-24
-43,-24,19,34,-31,-2,19,43,19,-9,-19,-24
-43,-24,19,34,-31,-2,19,43,19,-9,-19,-24
-39,-24,14,31,-26,-4,19,43,19,-9,-24,-24
-43,-29,14,36,-29,-7,19,43,19,-9,-24,-24
-43,-29,14,36,-29,-7,19,43,19,-4,-24,-24
-43,-29,14,36,-29,-7,24,39,19,0,-29,-24
-43,-24,19,34,-31,-2,19,39,19,0,-29,-24
-43,-24,19,34,-31,-2,14,39,19,-4,-29,-24
-43,-24,19,34,-31,-2,19,29,19,-4,-34,-19
-48,-24,24,36,-36,0,19,24,19,-4,-39,-19
-53,-24,29,39,-41,2,19,19,14,-9,-39,-24
-53,-24,29,39,-41,2,19,14,9,-9,-34,-24
-53,-24,29,39,-41,2,19,14,9,-9,-34,-24
-58,-24,34,41,-46,4,24,14,9,-9,-39,-24
-58,-24,34,41,-46,4,24,9,4,-9,-39,-24
-58,-29,29,43,-43,0,24,4,0,-9,-34,-24
-58,-29,29,43,-43,0,24,4,0,-9,-34,-24
-58,-29,29,43,-43,0,29,4,0,-9,-34,-19
-58,-29,29,43,-43,0,29,4,0,-9,-34,-24
-58,-34,24,46,-41,-4,29,4,0,-9,-34,-29
-58,-29,29,43,-43,0,29,0,0,-9,-29,-29
-58,-29,29,43,-43,0,29,0,0,-9,-29,-29
-58,-29,29,43,-43,0,29,0,0,-9,-29,-29
-58,-29,29,43,-43,0,29,0,0,-9,-29,-29
-58,-24,34,41,-46,4,24,0,4,-9,-29,-24
-48,-14,34,31,-41,9,19,9,9,0,-14,-14
-43,-9,34,26,-39,12,14,19,19,4,-4,-9
-34,9,43,12,-39,26,4,34,34,19,9,0
-19,34,53,-7,-36,43,-4,63,53,39,19,9
-9,48,58,-19,-34,53,-4,87,68,53,34,19
4,53,48,-29,-21,51,-9,102,82,63,43,29
14,73,58,-43,-21,65,-19,117,97,68,63,39
24,73,48,-48,-12,61,-19,126,102,73,68,39
43,82,39,-63,2,61,-34,141,112,82,73,48
73,82,9,-78,31,46,-43,165,131,102,87,63
87,82,-4,-85,46,39,-43,170,136,107,92,68
87,82,-4,-85,46,39,-48,175,141,112,97,63
73,63,-9,-68,41,26,-48,146,117,92,87,43
53,29,-24,-41,39,2,-53,73,58,43,48,19
39,4,-34,-21,36,-14,-58,24,14,4,19,0
34,-9,-43,-12,39,-26,-48,14,0,-4,4,-9
34,-19,-53,-7,43,-36,-39,4,-9,-14,-4,-24
34,-24,-58,-4,46,-41,-39,-14,-24,-24,-9,-24
34,-24,-58,-4,46,-41,-39,-24,-24,-24,-9,-24
34,-24,-58,-4,46,-41,-34,-24,-24,-24,-9,-29
29,-24,-53,-2,41,-39,-29,-14,-19,-19,-9,-29
-19,-24,-4,21,-7,-14,-9,-4,-14,-14,0,-24
-63,-34,29,48,-46,-2,14,0,-4,-4,4,-24
-73,-39,34,56,-53,-2,19,0,-4,-4,4,-24
-82,-48,34,65,-58,-7,29,-4,-9,-9,-4,-24
-87,-53,34,70,-61,-9,34,-9,-9,-19,-14,-34
-92,-53,39,73,-65,-7,39,-9,-9,-24,-19,-43
-87,-48,39,68,-63,-4,39,-9,-9,-24,-14,-43
-82,-48,34,65,-58,-7,34,-9,-9,-24,-14,-48
-82,-53,29,68,-56,-12,34,-9,-9,-19,-14,-48
-82,-53,29,68,-56,-12,34,-9,-9,-19,-14,-48
-87,-53,34,70,-61,-9,34,-9,-9,-19,-14,-43
-87,-53,34,70,-61,-9,39,-9,-9,-19,-9,-43
-87,-53,34,70,-61,-9,39,-14,-4,-24,-9,-39
-87,-53,34,70,-61,-9,39,-14,0,-24,-9,-34
-87,-48,39,68,-63,-4,34,-14,-9,-24,-9,-39
-97,-53,43,75,-70,-4,43,-9,-9,-34,-14,-43
-117,-68,48,92,-82,-9,73,-19,-24,-43,-29,-58
-151,-82,68,117,-109,-7,117,19,0,-34,-34,-63
-224,-97,126,161,-175,14,170,112,58,0,-19,-73
-248,-102,146,175,-197,21,190,190,107,24,-9,-68
-165,-92,73,129,-119,-9,190,346,204,102,39,-39
53,-48,-102,-2,78,-75,117,488,278,161,102,14
463,102,-361,-283,412,-129,-97,614,385,258,195,136
917,224,-692,-570,805,-234,-331,610,405,283,248,229
1366,346,-1019,-856,1193,-336,-561,575,424,322,317,312
1595,414,-1180,-1005,1388,-383,-722,361,331,278,322,351
1459,497,-961,-978,1210,-231,-810,-29,107,185,302,370
1156,453,-702,-805,929,-124,-746,-497,-204,-34,146,263
580,326,-253,-453,417,36,-566,-1117,-624,-341,-107,34
248,253,4,-251,122,129,-468,-1366,-795,-458,-209,-63
190,156,-34,-173,112,61,-405,-1283,-800,-483,-258,-97
107,122,14,-114,46,68,-346,-1107,-707,-444,-248,-107
78,122,43,-100,17,82,-317,-849,-536,-341,-195,-78
53,102,48,-78,2,75,-248,-590,-356,-219,-131,-48
14,73,58,-43,-21,65,-170,-395,-229,-126,-73,-14
-19,39,58,-9,-39,48,-107,-258,-156,-78,-53,-4
-58,14,73,21,-65,43,-43,-151,-92,-58,-48,-9
-102,4,107,48,-104,56,0,-73,-39,-29,-29,-9
-122,-4,117,63,-119,56,14,-53,-24,-4,-14,-4
-126,-4,122,65,-124,58,29,-48,-14,0,-14,-4
-131,-4,126,68,-129,61,34,-39,-14,0,-14,-9
-146,-9,136,78,-141,63,43,-14,0,4,-9,-9
-151,-19,131,85,-141,56,48,-4,14,4,0,-9
-151,-29,122,90,-136,46,53,0,14,9,4,-9
-156,-29,126,92,-141,48,53,4,19,4,4,-9
-161,-24,136,92,-148,56,53,19,19,4,4,-9
-161,-24,136,92,-148,56,58,29,29,4,4,-9
-161,-24,136,92,-148,56,63,39,29,4,0,-9
-156,-24,131,90,-143,53,63,39,34,9,4,-9
-156,-24,131,90,-143,53,63,34,39,14,9,-9
-156,-24,131,90,-143,53,63,29,39,24,9,0
-156,-24,131,90,-143,53,63,24,39,29,9,0
-156,-24,131,90,-143,53,63,24,43,29,14,-4
-156,-24,131,90,-143,53,63,24,43,29,14,-4
-156,-24,131,90,-143,53,63,24,43,29,19,4
-156,-24,131,90,-143,53,63,24,39,24,19,9
-151,-24,126,87,-139,51,63,29,39,19,19,4
-151,-24,126,87,-139,51,63,39,39,14,19,4
-151,-19,131,85,-141,56,58,39,39,19,14,4
-151,-14,136,82,-143,61,58,39,39,19,14,4
-146,-14,131,80,-139,58,58,39,39,19,19,4
-136,-14,122,75,-129,53,53,39,39,19,14,4
-136,-14,122,75,-129,53,53,43,43,24,14,4
-136,-14,122,75,-129,53,53,43,48,29,14,4
-131,-14,117,73,-124,51,53,43,48,29,14,4
-126,-14,112,70,-119,48,53,43,48,29,19,4
-131,-14,117,73,-124,51,48,39,43,29,19,4
-131,-14,117,73,-124,51,48,34,39,29,14,9
-131,-14,117,73,-124,51,48,34,39,24,14,9
-126,-14,112,70,-119,48,48,34,39,24,14,9
-122,-19,102,70,-112,41,48,39,43,24,14,9
-117,-19,97,68,-107,39,48,39,43,24,9,9
-112,-19,92,65,-102,36,48,29,34,19,4,4
-107,-29,78,68,-92,24,43,24,24,4,0,0
-102,-29,73,65,-87,21,43,14,19,-4,-9,-9
-92,-39,53,65,-73,7,43,4,9,-14,-19,-14
-87,-43,43,65,-65,0,48,0,0,-19,-19,-14
-78,-48,29,63,-53,-9,48,-14,-9,-29,-24,-24
-73,-63,9,68,-41,-26,53,-24,-24,-39,-34,-34
-68,-68,0,68,-34,-34,58,-39,-34,-48,-39,-39
-58,-73,-14,65,-21,-43,53,-48,-43,-58,-43,-48
-48,-78,-29,63,-9,-53,53,-53,-53,-68,-53,-48
-43,-78,-34,61,-4,-56,53,-68,-68,-73,-53,-53
-39,-78,-39,58,0,-58,53,-73,-78,-82,-58,-63
-29,-87,-58,58,14,-73,53,-87,-87,-87,-68,-68
-24,-97,-73,61,24,-85,53,-97,-92,-92,-68,-73
-14,-97,-82,56,34,-90,43,-97,-102,-97,-73,-78
-4,-92,-87,48,41,-90,43,-102,-112,-102,-73,-78
9,-92,-102,41,56,-97,34,-102,-112,-102,-78,-68
19,-87,-107,34,63,-97,29,-97,-112,-97,-78,-63
24,-87,-112,31,68,-100,24,-92,-102,-92,-73,-63
34,-82,-117,24,75,-100,24,-87,-92,-92,-73,-63
34,-73,-107,19,70,-90,14,-78,-87,-78,-63,-48
34,-68,-102,17,68,-85,14,-73,-78,-73,-58,-43
34,-58,-92,12,63,-75,14,-63,-68,-68,-48,-39
29,-53,-82,12,56,-68,9,-53,-58,-58,-43,-39
34,-43,-78,4,56,-61,4,-43,-48,-53,-34,-34
29,-43,-73,7,51,-58,4,-39,-34,-43,-29,-24
24,-39,-63,7,43,-51,4,-29,-29,-34,-29,-24
19,-29,-48,4,34,-39,4,-24,-24,-29,-29,-14
9,-19,-29,4,19,-24,9,-14,-14,-24,-19,-14
4,-9,-14,2,9,-12,9,-4,-9,-24,-19,-14
0,-9,-9,4,4,-9,9,0,0,-14,-14,-9
-9,-4,4,7,-7,0,9,4,4,-14,-14,-9
-9,-9,0,9,-4,-4,14,4,9,-4,-4,0
-14,-9,4,12,-9,-2,19,4,9,-4,-4,4
-14,-9,4,12,-9,-2,19,9,9,0,0,0
-19,-9,9,14,-14,0,19,14,9,0,0,0
-24,0,24,12,-24,12,14,14,14,-4,4,0
-24,4,29,9,-26,17,9,19,14,-4,4,0
-29,9,39,9,-34,24,9,19,14,-4,0,-4
-34,9,43,12,-39,26,14,19,19,0,0,-4
-34,9,43,12,-39,26,14,29,24,0,0,-4
-34,4,39,14,-36,21,14,34,29,0,0,-4
-34,4,39,14,-36,21,14,34,29,0,0,0
-34,9,43,12,-39,26,14,34,29,4,4,0
-39,9,48,14,-43,29,14,34,34,4,4,0
-39,9,48,14,-43,29,19,39,34,4,4,0
-39,4,43,17,-41,24,19,39,34,9,0,-4
-39,4,43,17,-41,24,19,34,34,9,0,-4
-39,4,43,17,-41,24,19,29,29,9,-4,-4
-39,4,43,17,-41,24,14,24,24,14,-9,-4
-43,4,48,19,-46,26,14,24,24,14,-9,-4
-43,4,48,19,-46,26,14,24,24,14,-9,-4
-43,4,48,19,-46,26,14,24,24,9,-9,-4
-43,4,48,19,-46,26,14,19,24,9,-14,-4
-43,0,43,21,-43,21,19,19,19,9,-19,-4
-43,-4,39,24,-41,17,19,14,19,9,-19,-4
-43,-4,39,24,-41,17,19,14,19,9,-24,-4
-53,-9,43,31,-48,17,19,14,19,9,-24,-4
-53,-4,48,29,-51,21,19,14,19,9,-24,-4
-53,0,53,26,-53,26,24,9,19,9,-29,-4
-53,0,53,26,-53,26,24,9,19,4,-29,-4
-53,-4,48,29,-51,21,24,9,19,-4,-29,-4
-53,-4,48,29,-51,21,29,0,19,-4,-34,-4
-58,-4,53,31,-56,24,29,-4,19,-4,-39,-9
-63,-4,58,34,-61,26,29,-4,19,-9,-39,-14
-63,-4,58,34,-61,26,29,-4,19,-9,-34,-14
-63,-4,58,34,-61,26,29,0,19,-9,-34,-14
-68,-4,63,36,-65,29,34,4,19,-9,-39,-14
-68,-4,63,36,-65,29,34,4,9,-9,-43,-14
-68,-9,58,39,-63,24,34,4,0,-9,-43,-14
-68,-9,58,39,-63,24,34,4,0,-9,-43,-14
-68,-9,58,39,-63,24,39,4,0,-9,-43,-9
-68,-9,58,39,-63,24,39,4,0,-9,-39,-14
-68,-14,53,41,-61,19,39,4,0,-9,-34,-19
-68,-14,53,41,-61,19,34,0,0,-9,-29,-19
-68,-19,48,43,-58,14,29,0,0,-9,-29,-19
-68,-14,53,41,-61,19,29,0,0,-9,-29,-14
-68,-9,58,39,-63,24,29,0,0,-9,-29,-9
-58,0,58,29,-58,29,24,4,9,-4,-29,-4
-43,9,53,17,-48,31,19,14,19,4,-19,0
-34,19,53,7,-43,36,14,24,29,14,-9,9
-24,39,63,-7,-43,51,4,34,43,29,0,19
-9,63,73,-26,-41,68,-4,58,58,43,9,29
0,78,78,-39,-39,78,-4,78,68,53,24,39
14,78,63,-46,-24,70,-4,92,82,63,29,48
24,92,68,-58,-21,80,-9,107,97,68,43,58
34,92,58,-63,-12,75,-9,117,102,73,48,58
53,102,48,-78,2,75,-24,131,112,82,53,68
78,107,29,-92,24,68,-39,151,126,97,63,78
87,112,24,-100,31,68,-43,151,126,97,63,78
87,107,19,-97,34,63,-48,141,117,92,53,73
73,82,9,-78,31,46,-48,97,78,63,29,53
53,43,-9,-48,31,17,-39,34,34,24,0,29
39,14,-24,-26,31,-4,-29,-4,4,-4,-19,9
34,0,-34,-17,34,-17,-19,-9,-4,-14,-29,4
34,-9,-43,-12,39,-26,-9,-14,-9,-24,-34,-4
34,-14,-48,-9,41,-31,-9,-29,-24,-34,-43,-4
34,-14,-48,-9,41,-31,-9,-34,-24,-34,-48,-4
24,-9,-34,-7,29,-21,-4,-29,-24,-29,-48,-9
9,-4,-14,-2,12,-9,0,-14,-19,-19,-48,-9
-29,-4,24,17,-26,9,14,-4,-14,-19,-43,-4
-63,-14,48,39,-56,17,34,0,-4,-14,-43,-4
-73,-19,53,46,-63,17,39,-4,-4,-14,-43,-14
-82,-29,53,56,-68,12,48,-14,-9,-19,-53,-24
-87,-34,53,61,-70,9,53,-19,-9,-24,-58,-24
-92,-34,58,63,-75,12,58,-19,-9,-24,-58,-24
-92,-29,63,61,-78,17,63,-19,-9,-24,-53,-19
-92,-29,63,61,-78,17,63,-19,-9,-24,-53,-19
-92,-34,58,63,-75,12,63,-19,-14,-24,-53,-19
-92,-34,58,63,-75,12,63,-19,-19,-29,-53,-19
-97,-34,63,65,-80,14,63,-19,-19,-29,-53,-19
-97,-34,63,65,-80,14,68,-19,-19,-29,-48,-24
-97,-34,63,65,-80,14,68,-24,-19,-34,-48,-19
-97,-34,63,65,-80,14,68,-24,-19,-34,-48,-14
-97,-34,63,65,-80,14,63,-24,-29,-34,-48,-19
-107,-43,63,75,-85,9,73,-19,-29,-43,-53,-24
-126,-58,68,92,-97,4,102,-9,-34,-48,-68,-39
-161,-73,87,117,-124,7,146,48,0,-34,-73,-43
-214,-78,136,146,-175,29,190,151,68,4,-48,-48
-219,-73,146,146,-183,36,200,239,126,34,-29,-39
-78,-39,39,58,-58,0,170,380,224,107,9,0
200,29,-170,-114,185,-70,68,507,297,161,63,63
619,170,-448,-395,534,-139,-156,585,375,244,156,170
1083,283,-800,-683,941,-258,-400,531,366,253,209,248
1444,390,-1054,-917,1249,-331,-605,434,336,263,248,312
1586,444,-1141,-1015,1363,-348,-741,156,195,190,224,331
1366,488,-878,-927,1122,-195,-785,-248,-39,78,175,322
980,405,-575,-692,778,-85,-678,-732,-361,-161,-9,185
478,292,-185,-385,331,53,-522,-1229,-702,-414,-224,-4
219,234,14,-226,102,124,-448,-1356,-795,-478,-287,-63
175,151,-24,-163,100,63,-385,-1229,-771,-478,-312,-87
107,131,24,-119,41,78,-326,-1010,-649,-414,-278,-87
78,136,58,-107,9,97,-297,-756,-478,-312,-219,-58
53,122,68,-87,-7,95,-229,-502,-297,-190,-151,-29
9,92,82,-51,-36,87,-141,-331,-190,-112,-97,0
-29,58,87,-14,-58,73,-68,-219,-136,-78,-82,4
-68,34,102,17,-85,68,-14,-131,-78,-53,-78,0
-112,24,136,43,-124,80,19,-73,-29,-19,-58,0
-126,9,136,58,-131,73,29,-53,-19,0,-43,4
-126,4,131,61,-129,68,39,-48,-14,0,-43,4
-131,4,136,63,-134,70,43,-39,-14,4,-39,4
-146,0,146,73,-146,73,53,-14,0,14,-29,9
-151,-4,146,78,-148,70,58,-4,14,14,-24,9
-151,-9,141,80,-146,65,63,0,14,19,-24,9
-156,-9,146,82,-151,68,63,4,24,19,-19,9
-161,-4,156,82,-158,75,63,19,29,24,-14,9
-161,-4,156,82,-158,75,63,24,39,24,-9,9
-161,-4,156,82,-158,75,63,29,39,24,-9,9
-151,-4,146,78,-148,70,63,34,39,24,-9,9
-146,-4,141,75,-143,68,63,34,39,24,-9,9
-141,0,141,70,-141,70,63,34,39,29,-4,19
-136,4,141,65,-139,73,63,34,39,29,0,19
-136,4,141,65,-139,73,63,34,39,34,4,14
-136,4,141,65,-139,73,63,34,34,39,4,14
-141,4,146,68,-143,75,63,34,34,39,9,19
-146,4,151,70,-148,78,63,34,29,34,9,19
-141,4,146,68,-143,75,63,43,29,34,9,14
-141,4,146,68,-143,75,63,58,29,34,9,14
-141,4,146,68,-143,75,58,68,34,39,9,14
-141,4,146,68,-143,75,58,78,39,39,14,14
-141,4,146,68,-143,75,58,82,39,39,14,14
-136,4,141,65,-139,73,53,87,39,39,4,14
-136,4,141,65,-139,73,48,87,39,39,4,14
-136,4,141,65,-139,73,43,82,39,39,4,14
-131,0,131,65,-131,65,43,87,39,43,4,14
-126,-4,122,65,-124,58,43,92,39,48,9,14
-126,-9,117,68,-122,53,39,97,39,48,9,14
-122,-14,107,68,-114,46,39,102,39,48,4,19
-122,-14,107,68,-114,46,39,107,39,43,4,19
-117,-14,102,65,-109,43,39,112,39,43,4,19
-112,-19,92,65,-102,36,34,122,39,43,4,14
-107,-19,87,63,-97,34,29,126,34,43,0,9
-102,-19,82,61,-92,31,29,117,24,39,-4,4
-97,-29,68,63,-82,19,24,112,14,24,-9,0
-92,-29,63,61,-78,17,19,97,9,19,-19,-9
-82,-39,43,61,-63,2,14,82,0,14,-29,-14
-78,-43,34,61,-56,-4,19,68,-9,9,-29,-14
-68,-48,19,58,-43,-14,19,43,-19,0,-34,-24
-63,-63,0,63,-31,-31,19,29,-34,-14,-43,-34
-58,-68,-9,63,-24,-39,19,9,-43,-29,-48,-39
-48,-78,-29,63,-9,-53,14,-4,-53,-39,-58,-53
-39,-87,-48,63,4,-68,14,-14,-63,-48,-73,-58
-34,-87,-53,61,9,-70,14,-39,-78,-53,-73,-63
-29,-87,-58,58,14,-73,14,-53,-87,-63,-78,-73
-19,-97,-78,58,29,-87,14,-68,-97,-68,-82,-73
-14,-107,-92,61,39,-100,14,-78,-102,-73,-78,-73
-4,-107,-102,56,48,-104,4,-82,-107,-78,-78,-78
4,-102,-107,48,56,-104,4,-92,-112,-82,-73,-78
19,-102,-122,41,70,-112,-4,-92,-112,-82,-73,-73
29,-97,-126,34,78,-112,-9,-87,-112,-78,-68,-73
34,-97,-131,31,82,-114,-14,-82,-107,-73,-53,-73
43,-92,-136,24,90,-114,-14,-78,-102,-73,-43,-73
43,-82,-126,19,85,-104,-24,-63,-97,-58,-29,-58
43,-78,-122,17,82,-100,-24,-53,-87,-53,-19,-53
43,-68,-112,12,78,-90,-24,-39,-78,-48,-9,-48
39,-63,-102,12,70,-82,-29,-24,-68,-39,-4,-48
39,-58,-97,9,68,-78,-29,-9,-58,-34,14,-43
29,-63,-92,17,61,-78,-24,0,-43,-24,29,-34
24,-58,-82,17,53,-70,-24,9,-39,-9,39,-34
19,-48,-68,14,43,-58,-24,14,-34,0,48,-24
9,-43,-53,17,31,-48,-19,29,-24,9,63,-24
4,-39,-43,17,24,-41,-19,43,-19,14,68,-24
0,-34,-34,17,17,-34,-19,53,-4,24,73,-19
-9,-24,-14,17,2,-19,-19,63,4,24,73,-19
-9,-24,-14,17,2,-19,-19,63,9,34,82,-14
-14,-19,-4,17,-4,-12,-19,63,9,34,82,-14
-14,-19,-4,17,-4,-12,-14,68,9,39,87,-14
-19,-19,0,19,-9,-9,-9,73,9,39,87,-9
-24,-19,4,21,-14,-7,-9,73,14,34,87,-9
-24,-24,0,24,-12,-12,-9,78,14,34,82,-9
-24,-19,4,21,-14,-7,-14,78,14,34,78,-14
-24,-19,4,21,-14,-7,-14,78,19,39,78,-14
-24,-14,9,19,-17,-2,-14,87,24,43,78,-14
-24,-14,9,19,-17,-2,-14,92,29,48,78,-14
-24,-14,9,19,-17,-2,-14,92,29,48,73,-9
-24,-9,14,17,-19,2,-14,92,29,53,73,-9
-34,-9,24,21,-29,7,-14,87,34,48,68,-9
-39,-9,29,24,-34,9,-9,87,34,43,63,-9
-39,-14,24,26,-31,4,-4,87,34,43,53,-14
-39,-14,24,26,-31,4,0,82,34,39,48,-14
-34,-14,19,24,-26,2,4,87,34,34,43,-14
-29,-14,14,21,-21,0,4,92,34,34,39,-14
-34,-19,14,26,-24,-2,4,92,39,34,34,-14
-34,-24,9,29,-21,-7,4,92,43,34,29,-14
-34,-24,9,29,-21,-7,4,87,43,29,24,-14
-34,-24,9,29,-21,-7,4,78,43,29,14,-14
-34,-24,9,29,-21,-7,9,78,39,29,9,-14
-34,-24,9,29,-21,-7,9,73,39,29,9,-14
-39,-24,14,31,-26,-4,9,63,39,29,4,-14
-53,-29,24,41,-39,-2,9,53,39,29,4,-14
-53,-34,19,43,-36,-7,9,48,39,29,4,-14
-53,-39,14,46,-34,-12,14,39,39,29,0,-14
-48,-39,9,43,-29,-14,14,39,39,24,0,-14
-43,-43,0,43,-21,-21,14,39,39,14,0,-14
-43,-43,0,43,-21,-21,24,29,34,9,-9,-14
-48,-43,4,46,-26,-19,29,24,29,4,-19,-19
-53,-43,9,48,-31,-17,29,24,29,0,-19,-24
-53,-43,9,48,-31,-17,29,24,29,0,-14,-24
-53,-43,9,48,-31,-17,29,24,29,0,-9,-24
-58,-43,14,51,-36,-14,34,24,29,0,-9,-24
-58,-48,9,53,-34,-19,34,24,24,0,-14,-24
-58,-58,0,58,-29,-29,34,24,19,0,-14,-24
-58,-58,0,58,-29,-29,34,24,19,4,-9,-24
-58,-58,0,58,-29,-29,39,24,19,9,-4,-19
-63,-58,4,61,-34,-26,39,24,19,14,0,-19
-68,-58,9,63,-39,-24,39,29,19,19,0,-19
-68,-53,14,61,-41,-19,39,29,19,19,0,-19
-68,-48,19,58,-43,-14,39,29,19,19,0,-19
-63,-48,14,56,-39,-17,39,34,19,19,4,-19
-53,-39,14,46,-34,-12,39,43,24,24,9,-14
-48,-34,14,41,-31,-9,39,53,29,29,14,-9
-34,-29,4,31,-19,-12,34,68,39,43,29,0
-19,-9,9,14,-14,0,19,87,53,58,39,9
0,14,14,-7,-7,14,4,117,73,73,48,19
9,34,24,-21,-7,29,4,136,87,87,63,34
24,39,14,-31,4,26,0,151,102,102,68,48
29,53,24,-41,2,39,-9,161,112,107,82,58
34,53,19,-43,7,36,-9,165,112,112,87,58
43,58,14,-51,14,36,-19,180,122,112,87,63
58,53,-4,-56,31,24,-24,200,136,117,92,68
78,53,-24,-65,51,14,-24,204,136,117,92,68
87,48,-39,-68,63,4,-29,200,126,112,87,63
73,29,-43,-51,58,-7,-34,161,92,92,68,48
53,0,-53,-26,53,-26,-34,102,53,63,39,29
39,-24,-63,-7,51,-43,-29,63,24,34,19,9
34,-34,-68,0,51,-51,-19,58,14,29,9,4
34,-29,-63,-2,48,-46,-9,53,9,24,4,-9
34,-24,-58,-4,46,-41,-9,39,-4,14,0,-14
39,-34,-73,-2,56,-53,-9,34,-4,4,-4,-14
34,-43,-78,4,56,-61,-4,34,-4,-4,-9,-19
19,-43,-63,12,41,-53,0,43,0,0,-9,-19
-19,-43,-24,31,2,-34,14,53,4,0,-4,-14
-63,-53,9,58,-36,-21,34,58,14,4,-4,-14
-78,-58,19,68,-48,-19,39,58,14,4,-4,-24
-82,-73,9,78,-46,-31,48,53,-4,-9,-14,-34
-87,-82,4,85,-46,-39,53,48,-19,-24,-19,-34
-92,-82,9,87,-51,-36,58,43,-19,-24,-19,-39
-92,-78,14,85,-53,-31,58,39,-19,-24,-14,-39
-92,-78,14,85,-53,-31,58,39,-14,-19,-9,-39
-92,-82,9,87,-51,-36,63,39,-9,-9,-4,-39
-92,-82,9,87,-51,-36,63,39,-9,-9,-4,-39
-97,-82,14,90,-56,-34,63,39,-9,-9,-4,-39
-97,-82,14,90,-56,-34,68,39,-9,-9,0,-43
-97,-82,14,90,-56,-34,68,34,-9,-14,0,-43
-92,-78,14,85,-53,-31,68,34,-4,-14,4,-39
-92,-73,19,82,-56,-26,68,34,-9,-14,9,-39
-107,-82,24,95,-65,-29,78,34,-9,-19,14,-43
-126,-97,29,112,-78,-34,102,48,-4,-14,14,-53
-161,-112,48,136,-104,-31,146,117,39,9,19,-53
-190,-112,78,151,-134,-17,180,224,107,58,48,-53
-229,-107,122,168,-175,7,209,317,170,92,73,-43
-112,-73,39,92,-75,-17,185,458,273,170,131,4
170,0,-170,-85,170,-85,82,629,370,239,204,82
541,141,-400,-341,470,-129,-107,746,473,331,302,190
1054,258,-795,-656,924,-268,-366,751,502,370,370,283
1405,370,-1034,-888,1220,-331,-570,692,497,400,424,356
1576,458,-1117,-1017,1346,-329,-732,434,390,361,439,409
1439,527,-912,-983,1176,-192,-800,63,190,278,414,419
995,434,-561,-714,778,-63,-658,-507,-200,-14,195,253
497,322,-175,-409,336,73,-502,-1034,-570,-287,-24,63
204,253,48,-229,78,151,-419,-1210,-692,-366,-102,-9
92,161,68,-126,12,114,-336,-1190,-722,-400,-156,-58
29,131,102,-80,-36,117,-287,-1005,-629,-361,-136,-68
9,122,112,-65,-51,117,-268,-780,-488,-283,-97,-48
9,102,92,-56,-41,97,-200,-512,-292,-151,-34,-19
-14,73,87,-29,-51,80,-122,-326,-170,-68,14,4
-48,34,82,7,-65,58,-48,-200,-112,-39,24,4
-82,4,87,39,-85,46,9,-97,-53,-19,29,0
-122,-9,112,65,-117,51,39,-43,-4,9,39,0
-136,-24,112,80,-124,43,48,-24,9,29,43,4
-136,-24,112,80,-124,43,58,-19,14,29,43,4
-141,-24,117,82,-129,46,63,-9,14,29,43,0
-156,-29,126,92,-141,48,73,14,29,34,43,0
-161,-34,126,97,-143,46,78,24,43,34,43,0
-161,-39,122,100,-141,41,87,24,43,39,43,0
-161,-39,122,100,-141,41,92,24,48,39,43,0
-161,-34,126,97,-143,46,92,39,48,43,43,0
-161,-34,126,97,-143,46,92,43,58,43,43,0
-161,-34,126,97,-143,46,92,53,58,43,39,0
-156,-34,122,95,-139,43,92,58,58,43,39,0
-156,-29,126,92,-141,48,92,53,58,39,39,-4
-156,-24,131,90,-143,53,92,53,58,39,39,0
-156,-24,131,90,-143,53,87,53,53,39,39,0
-156,-24,131,90,-143,53,82,53,53,39,43,-4
-156,-24,131,90,-143,53,82,53,53,39,43,-4
-156,-24,131,90,-143,53,82,53,53,39,43,0
-156,-24,131,90,-143,53,82,53,48,34,34,4
-151,-24,126,87,-139,51,82,53,48,34,29,4
-151,-24,126,87,-139,51,82,58,53,29,29,4
-151,-24,126,87,-139,51,78,58,58,29,24,4
-151,-24,126,87,-139,51,78,58,58,29,19,4
-151,-24,126,87,-139,51,78,58,58,29,14,4
-146,-24,122,85,-134,48,73,58,58,29,4,4
-146,-24,122,85,-134,48,73,58,58,29,4,4
-146,-24,122,85,-134,48,73,53,58,29,0,4
-141,-24,117,82,-129,46,73,53,58,29,-4,4
-136,-24,112,80,-124,43,73,53,58,29,-4,4
-136,-24,112,80,-124,43,68,53,58,29,-9,4
-131,-24,107,78,-119,41,68,53,58,29,-14,4
-131,-24,107,78,-119,41,68,53,58,24,-14,0
-126,-24,102,75,-114,39,68,48,53,19,-14,0
-122,-29,92,75,-107,31,68,43,48,14,-14,0
-117,-29,87,73,-102,29,68,39,43,14,-19,0
-112,-29,82,70,-97,26,68,29,34,9,-24,-4
-112,-39,73,75,-92,17,63,24,24,0,-29,-9
-112,-39,73,75,-92,17,63,14,19,-4,-39,-19
-102,-48,53,75,-78,2,63,4,9,-14,-48,-24
-97,-53,43,75,-70,-4,68,0,0,-19,-48,-24
-87,-58,29,73,-58,-14,68,-14,-9,-29,-58,-34
-82,-73,9,78,-46,-31,68,-24,-24,-39,-73,-43
-78,-78,0,78,-39,-39,68,-43,-34,-53,-82,-48
-68,-82,-14,75,-26,-48,63,-58,-43,-68,-92,-58
-58,-87,-29,73,-14,-58,63,-63,-53,-78,-102,-53
-53,-87,-34,70,-9,-61,63,-78,-68,-82,-102,-53
-43,-87,-43,65,0,-65,63,-82,-82,-92,-107,-63
-29,-92,-63,61,17,-78,63,-92,-97,-97,-117,-63
-24,-102,-78,63,26,-90,63,-97,-102,-102,-117,-63
-14,-107,-92,61,39,-100,53,-97,-107,-107,-122,-68
-9,-102,-92,56,41,-97,53,-102,-112,-112,-122,-68
0,-102,-102,51,51,-102,43,-102,-112,-112,-122,-63
9,-92,-102,41,56,-97,39,-97,-112,-107,-117,-63
14,-87,-102,36,58,-95,34,-92,-107,-102,-112,-63
24,-82,-107,29,65,-95,34,-92,-102,-102,-112,-63
24,-73,-97,24,61,-85,24,-82,-97,-87,-102,-48
24,-68,-92,21,58,-80,24,-73,-87,-78,-92,-43
24,-58,-82,17,53,-70,24,-63,-78,-68,-78,-39
19,-53,-73,17,46,-63,19,-48,-68,-58,-73,-43
19,-43,-63,12,41,-53,19,-34,-58,-53,-63,-43
9,-43,-53,17,31,-48,24,-29,-43,-43,-53,-34
4,-39,-43,17,24,-41,24,-19,-39,-34,-43,-34
0,-29,-29,14,14,-29,24,-14,-34,-29,-39,-24
-9,-24,-14,17,2,-19,29,-4,-24,-24,-29,-24
-14,-19,-4,17,-4,-12,29,4,-19,-29,-29,-24
-19,-19,0,19,-9,-9,29,9,-9,-24,-24,-19
-29,-14,14,21,-21,0,29,14,-4,-24,-19,-19
-29,-14,14,21,-21,0,29,14,0,-14,-4,-14
-34,-14,19,24,-26,2,29,14,0,-14,-4,-14
-34,-19,14,26,-24,-2,29,14,0,-9,0,-19
-39,-19,19,29,-29,0,29,19,0,-9,4,-19
-43,-14,29,29,-36,7,29,24,4,-14,14,-19
-43,-14,29,29,-36,7,24,29,0,-14,14,-19
-43,-9,34,26,-39,12,19,29,-4,-14,14,-19
-43,-4,39,24,-41,17,24,29,0,-9,19,-14
-43,0,43,21,-43,21,24,34,0,-9,19,-14
-43,-4,39,24,-41,17,24,34,0,-9,19,-14
-43,-4,39,24,-41,17,24,34,0,-9,19,-9
-43,0,43,21,-43,21,24,34,0,-4,24,-9
-48,0,48,24,-48,24,24,34,4,-4,24,-9
-48,0,48,24,-48,24,29,39,9,-4,24,-9
-48,-4,43,26,-46,19,29,39,14,-4,19,-14
-48,-4,43,26,-46,19,29,34,14,-9,19,-14
-48,-4,43,26,-46,19,29,34,14,-9,19,-14
-43,-4,39,24,-41,17,29,34,9,-4,14,-14
-43,-4,39,24,-41,17,34,34,4,-4,9,-14
-43,-9,34,26,-39,12,34,34,4,-4,9,-19
-43,-14,29,29,-36,7,34,34,4,-9,9,-24
-48,-14,34,31,-41,9,34,29,9,-9,4,-24
-53,-14,39,34,-46,12,39,29,9,-9,0,-24
-53,-19,34,36,-43,7,39,29,9,-9,0,-24
-53,-24,29,39,-41,2,39,34,9,-9,-4,-24
-63,-29,34,46,-48,2,39,34,9,-9,-9,-24
-63,-29,34,46,-48,2,39,34,9,-9,-14,-24
-63,-24,39,43,-51,7,39,29,9,-9,-19,-24
-63,-19,43,41,-53,12,34,29,9,-9,-19,-24
-58,-24,34,41,-46,4,34,29,9,-14,-19,-24
-53,-24,29,39,-41,2,39,19,9,-14,-24,-24
-58,-24,34,41,-46,4,39,9,9,-14,-34,-29
-63,-24,39,43,-51,7,39,4,9,-19,-39,-34
-63,-24,39,43,-51,7,39,0,9,-19,-34,-34
-63,-24,39,43,-51,7,39,-4,9,-19,-34,-34
-68,-24,43,46,-56,9,43,-4,9,-19,-39,-34
-68,-24,43,46,-56,9,43,-4,4,-19,-43,-34
-73,-29,43,51,-58,7,43,-4,0,-19,-43,-34
-78,-29,48,53,-63,9,43,-4,0,-19,-43,-34
-78,-29,48,53,-63,9,43,-4,0,-19,-43,-34
-82,-29,53,56,-68,12,43,-9,0,-19,-48,-29
-82,-29,53,56,-68,12,48,-9,4,-19,-48,-29
-82,-29,53,56,-68,12,48,-9,4,-19,-48,-34
-82,-29,53,56,-68,12,53,-9,4,-24,-48,-34
-82,-29,53,56,-68,12,53,-9,4,-24,-48,-29
-78,-29,48,53,-63,9,53,-4,4,-19,-48,-29
-73,-24,48,48,-61,12,48,-4,9,-19,-43,-29
-68,-4,63,36,-65,29,43,4,19,-14,-34,-24
-58,9,68,24,-63,39,29,19,34,4,-24,-9
-39,24,63,7,-51,43,19,39,48,14,-19,0
-19,39,58,-9,-39,48,14,58,58,29,0,14
-9,48,58,-19,-34,53,9,73,73,39,14,24
0,63,63,-31,-31,63,0,92,87,53,29,34
9,68,58,-39,-24,63,-4,112,97,58,39,43
19,78,58,-48,-19,68,-9,126,102,58,43,48
43,82,39,-63,2,61,-19,141,117,68,53,48
63,87,24,-75,19,56,-29,151,122,78,63,53
63,82,19,-73,21,51,-29,146,112,73,58,53
58,68,9,-63,24,39,-29,131,92,63,43,48
48,48,0,-48,24,24,-29,82,63,34,24,29
29,14,-14,-21,21,0,-24,29,24,-4,0,4
14,-4,-19,-4,17,-12,-19,9,0,-19,-19,-14
4,-24,-29,9,17,-26,-9,-4,-19,-19,-29,-19
4,-29,-34,12,19,-31,0,-14,-29,-39,-39,-29
4,-29,-34,12,19,-31,0,-14,-34,-43,-43,-34
4,-39,-43,17,24,-41,4,-14,-29,-48,-48,-34
-4,-39,-34,21,14,-36,4,-9,-29,-48,-48,-29
-24,-34,-9,29,-7,-21,14,-9,-29,-43,-48,-29
-78,-34,43,56,-61,4,29,4,-24,-39,-48,-34
-87,-39,48,63,-68,4,39,0,-19,-39,-58,-34
-97,-48,48,73,-73,0,53,-4,-14,-43,-68,-39
-102,-48,53,75,-78,2,53,-9,-14,-39,-68,-43
-107,-48,58,78,-82,4,58,-19,-19,-39,-68,-48
-107,-48,58,78,-82,4,58,-29,-19,-39,-63,-48
-107,-48,58,78,-82,4,58,-39,-19,-39,-58,-48
-107,-53,53,80,-80,0,58,-39,-19,-39,-58,-48
-107,-58,48,82,-78,-4,58,-39,-19,-39,-58,-48
-112,-58,53,85,-82,-2,58,-34,-19,-39,-53,-48
-117,-58,58,87,-87,0,58,-29,-19,-39,-48,-48
-117,-53,63,85,-90,4,58,-29,-19,-43,-43,-48
-117,-48,68,82,-92,9,58,-29,-19,-48,-39,-48
-126,-48,78,87,-102,14,68,-24,-19,-48,-39,-53
-136,-48,87,92,-112,19,78,-19,-19,-48,-39,-58
-156,-68,87,112,-122,9,107,24,-4,-43,-39,-68
-175,-87,87,131,-131,0,136,68,9,-39,-39,-78
-185,-87,97,136,-141,4,161,165,73,0,-14,-68
-195,-87,107,141,-151,9,185,263,136,39,9,-58
9,-34,-43,12,26,-39,107,409,229,112,78,4
214,19,-195,-117,204,-87,29,556,322,185,146,68
605,146,-458,-375,531,-156,-180,580,370,248,229,165
995,273,-722,-634,858,-224,-390,605,419,312,312,263
1200,361,-839,-780,1019,-239,-556,400,326,278,326,307
1405,448,-956,-927,1180,-253,-722,195,234,244,341,351
1132,424,-707,-778,919,-141,-683,-278,-73,43,209,263
858,400,-458,-629,658,-29,-644,-751,-380,-156,78,175
517,307,-209,-412,363,48,-536,-1049,-600,-322,-58,48
175,214,39,-195,68,126,-429,-1346,-819,-488,-195,-78
112,161,48,-136,31,104,-366,-1171,-736,-444,-195,-92
48,107,58,-78,-4,82,-302,-995,-653,-400,-195,-107
24,102,78,-63,-26,90,-258,-761,-488,-297,-136,-78
0,97,97,-48,-48,97,-214,-527,-322,-195,-78,-48
-29,68,97,-19,-63,82,-141,-375,-234,-136,-43,-39
-58,39,97,9,-78,68,-68,-224,-146,-78,-9,-29
-97,19,117,39,-107,68,-29,-151,-92,-48,0,-29
-136,0,136,68,-136,68,9,-78,-39,-19,9,-29
-146,-4,141,75,-143,68,19,-58,-34,-14,14,-29
-156,-9,146,82,-151,68,29,-39,-29,-9,19,-29
-165,-14,151,90,-158,68,39,-29,-14,-9,19,-29
-175,-19,156,97,-165,68,48,-19,0,-9,19,-29
-180,-19,161,100,-170,70,53,0,4,-4,14,-29
-185,-19,165,102,-175,73,58,19,9,0,9,-29
-185,-19,165,102,-175,73,58,19,9,0,9,-29
